EXPLAIN
TAG	EISPOT
TITLE	LABEL	Potentiostatic EIS	Test &Identifier
DATE	LABEL	10/6/2019	Date
TIME	LABEL	9:58:03	Time
NOTES	NOTES	2	&Notes...
	
	
PSTAT	PSTAT	REF600-11020	Potentiostat
VDC	POTEN	0.00000E+000	T	DC &Voltage (V)
FREQINIT	QUANT	1.00000E+006	Initial Fre&q. (Hz)
FREQFINAL	QUANT	1.00000E+000	Final Fre&q. (Hz)
PTSPERDEC	QUANT	1.00000E+001	Points/&decade
VAC	QUANT	2.50000E+001	AC &Voltage (mV rms)
AREA	QUANT	1.00000E-002	&Area (cm^2)
CONDIT	TWOPARAM	T	5.00000E+000	0.00000E+000	Conditionin&g	Time(s)	E(V)
DELAY	TWOPARAM	T	5.00000E+000	0.00000E+000	Init. De&lay	Time(s)	Stab.(mV/s)
SPEED	SELECTOR	1	&Optimize for:
ZGUESS	QUANT	1.00000E+004	E&stimated Z (ohms)
OCVCURVE	TABLE	19
	Pt	T	Vf	Vm	Ach	Over
	#	s	V vs. Ref.	V	V	bits
	0	0.258333	-2.50114E-003	-2.50114E-003	5.43099E-004	...........
	1	0.516667	-2.51371E-003	-3.15890E-003	5.39366E-004	...........
	2	0.775	-2.59051E-003	-3.76362E-003	5.37599E-004	...........
	3	1.03333	-2.80645E-003	-4.33683E-003	5.35466E-004	...........
	4	1.29167	-3.18972E-003	-4.87816E-003	5.33466E-004	...........
	5	1.55	-3.69414E-003	-5.36438E-003	5.39433E-004	...........
	6	1.80833	-4.24466E-003	-5.79892E-003	5.34366E-004	...........
	7	2.06667	-4.78366E-003	-6.20046E-003	5.34800E-004	...........
	8	2.325	-5.28378E-003	-6.62417E-003	5.32066E-004	...........
	9	2.58333	-5.74395E-003	-7.07391E-003	5.34966E-004	...........
	10	2.84167	-6.18088E-003	-7.57576E-003	5.31933E-004	...........
	11	3.1	-6.61624E-003	-8.00939E-003	5.34833E-004	...........
	12	3.35833	-7.06109E-003	-8.40096E-003	5.38233E-004	...........
	13	3.61667	-7.50783E-003	-8.75920E-003	5.37666E-004	...........
	14	3.875	-7.93923E-003	-9.11525E-003	5.37366E-004	...........
	15	4.13333	-8.34407E-003	-9.45858E-003	5.37766E-004	...........
	16	4.39167	-8.72273E-003	-9.79646E-003	5.31800E-004	...........
	17	4.65	-9.08179E-003	-1.01205E-002	5.35333E-004	...........
	18	4.90833	-9.42750E-003	-1.04417E-002	5.40399E-004	...........
EOC	QUANT	-0.0094275	Open Circuit (V)
PSTATMODEL	IQUANT	4	Pstat Model
PSTATSECTION	LABEL	REF600-11020	Pstat Section
PSTATSERIALNO	LABEL	11020	Pstat Serial Number
CTRLMODE	IQUANT	1	Control Mode
IESTAB	IQUANT	0	I/E Stability
CASPEED	IQUANT	1	Control Amp Speed
CONVENTION	IQUANT	1	Current Convention
ICHRANGE	IQUANT	2	Ich Range
ICHRANGEMODE	TOGGLE	F	Ich Auto Range
ICHOFFSETENABLE	TOGGLE	T	Ich Offset Enable
ICHOFFSET	QUANT	0	Ich Offset (V)
ICHFILTER	IQUANT	3	Ich Filter
VCHRANGE	IQUANT	2	Vch Range
VCHRANGEMODE	TOGGLE	F	Vch Auto Range
VCHOFFSETENABLE	TOGGLE	T	Vch Offset Enable
VCHOFFSET	QUANT	0	Vch Offset (V)
VCHFILTER	IQUANT	3	Vch Filter
ACHRANGE	IQUANT	2	Ach Range
ACHOFFSETENABLE	TOGGLE	F	Ach Offset Enable
ACHOFFSET	QUANT	0	Ach Offset (V)
ACHFILTER	IQUANT	3	Ach Filter
IERANGELOWERLIMIT	IQUANT	1	I/E Range Lower Limit
IERANGEMODE	TOGGLE	F	I/E AutoRange
IERANGE	IQUANT	6	I/E Range
POSFEEDENABLE	TOGGLE	F	Positive Feedback IR Comp
POSFEEDRESISTANCE	QUANT	0	Positive Feedback Resistance (ohm)
ACHSELECT	IQUANT	0	Ach Select
CABLEID	IQUANT	14	Cable ID
DCCALDATE	LABEL	8/19/2019	DC Calibration Date
ACCALDATE	LABEL	8/19/2019	AC Calibration Date
THERMOSELECT	IQUANT	1	Thermo Select
FRAMEWORKVERSION	QUANT	6.33	Framework Version
INSTRUMENTVERSION	LABEL	3.50	Instrument Version
ZCURVE	TABLE
	Pt	Time	Freq	Zreal	Zimag	Zsig	Zmod	Zphz	Idc	Vdc	IERange
	#	s	Hz	ohm	ohm	V	ohm	°	A	V	#
	0	1	1000078	2112.502	-1116.476	1	2389.39	-27.85686	7.28965E-006	-0.0082046	8
	1	2	794390.6	2309.142	-1029.341	1	2528.177	-24.02576	-3.065865E-006	-0.0076122	8
	2	4	630984.4	2475.395	-932.588	1	2645.241	-20.64355	3.473212E-008	-0.00754	8
	3	5	501234.4	2595.809	-827.8516	1	2724.621	-17.68845	-2.154669E-006	-0.0074358	8
	4	7	398109.4	2702.246	-742.0977	1	2802.293	-15.35614	6.213384E-007	-0.0080959	8
	5	8	316265.6	2791.553	-661.4112	1	2868.838	-13.32946	3.935553E-007	-0.0079174	8
	6	9	251203.1	2856.332	-588.6918	1	2916.366	-11.64563	3.593211E-006	-0.0085922	8
	7	11	199546.9	2901.522	-532.108	1	2949.91	-10.39196	-2.330232E-006	-0.0074833	8
	8	12	158578.1	2952.557	-499.4158	1	2994.496	-9.60053	-2.21748E-006	-0.0074812	8
	9	13	125953.1	3020.818	-437.4465	1	3052.327	-8.239759	-1.380903E-006	-0.0048867	7
	10	15	100078.1	3055.161	-421.4659	1	3084.095	-7.854497	1.020803E-007	-0.0080856	7
	11	16	79453.13	3098.192	-425.0527	1	3127.213	-7.811857	-7.772544E-008	-0.0078887	7
	12	17	63140.62	3143.542	-435.729	1	3173.597	-7.891532	-1.342763E-008	-0.0079408	7
	13	19	50203.12	3192.794	-451.1427	1	3224.51	-8.042665	1.325724E-008	-0.008072	7
	14	20	39890.62	3245.115	-471.588	1	3279.202	-8.268479	1.199303E-008	-0.0080656	7
	15	21	31640.63	3301.21	-499.1179	1	3338.729	-8.597569	1.219861E-007	-0.0081866	7
	16	23	25171.88	3359.688	-531.8444	1	3401.524	-8.995376	-2.800459E-008	-0.0080164	7
	17	24	20015.62	3423.691	-569.6398	1	3470.757	-9.446439	1.479969E-008	-0.0079132	7
	18	26	15890.62	3489.599	-616.5134	1	3543.641	-10.01915	-6.438301E-008	-0.0078848	7
	19	27	12609.37	3559.375	-672.2196	1	3622.296	-10.69485	3.890139E-008	-0.0080504	7
	20	28	10078.13	3633.404	-735.4845	1	3707.096	-11.44336	-7.698473E-008	-0.007898	7
	21	30	8015.625	3712.646	-806.9222	1	3799.324	-12.2622	-3.798253E-008	-0.0080008	7
	22	31	6328.125	3797.64	-901.1805	1	3903.101	-13.34938	5.813371E-008	-0.0080986	7
	23	32	5015.625	3886.244	-1007.555	1	4014.73	-14.5346	-2.681699E-008	-0.0080193	7
	24	34	3984.375	3974.576	-1134.872	1	4133.423	-15.93578	4.758695E-008	-0.0081457	7
	25	35	3170.956	4069.266	-1284.277	1	4267.117	-17.51591	4.095793E-008	-0.0080437	7
	26	36	2527.573	4160.625	-1468.077	1	4412.035	-19.43539	4.02078E-008	-0.0080439	7
	27	38	1976.103	4264.418	-1719.496	1	4598.035	-21.96024	-4.582735E-008	-0.0079527	7
	28	39	1577.524	4365.103	-2009.198	1	4805.31	-24.71598	-1.15133E-008	-0.0079569	7
	29	41	1265.625	4469.313	-2360.913	1	5054.569	-27.84524	-9.945901E-009	-0.0079543	7
	30	42	998.264	4600.365	-2838.129	1	5405.399	-31.67191	-9.139197E-009	-0.0080199	7
	31	43	796.875	4747.973	-3401.062	1	5840.417	-35.61473	-4.291756E-008	-0.0079079	7
	32	45	627.7902	4944.158	-4139.991	1	6448.583	-39.94112	4.746052E-008	-0.0081474	7
	33	46	505.5147	5166.453	-4961.409	1	7162.947	-43.84017	-2.897929E-008	-0.008019	7
	34	47	397.9953	5479.538	-6072.273	1	8179.11	-47.93733	4.936134E-009	-0.0079895	7
	35	49	315.5048	5878.052	-7384.176	1	9438.09	-51.47903	5.132199E-009	-0.0079827	7
	36	50	252.4038	6376.598	-8899.733	1	10948.34	-54.37866	1.320359E-009	-0.0080468	6
	37	51	198.6229	7067.291	-10859.11	1	12956.34	-56.94324	1.102003E-009	-0.008046	6
	38	53	158.3615	7915.996	-13071	1	15281.16	-58.80026	1.394717E-009	-0.0080489	6
	39	54	125.558	9048.227	-15755.73	1	18169.03	-60.13205	1.177698E-009	-0.0080468	6
	40	56	100.4464	10429.56	-18781.52	1	21483.05	-60.95616	1.180177E-009	-0.0080482	6
	41	57	79.00281	12374.32	-22527.68	1	25702.53	-61.22026	1.362769E-009	-0.0080512	6
	42	58	63.3446	14791.51	-26471.84	1	30324.04	-60.80511	8.208053E-010	-0.0080505	6
	43	60	49.86702	17641.22	-31536.31	1	36135.18	-60.77762	1.946337E-010	-0.0080543	6
	44	61	39.72458	21197.19	-36597.14	1	42292.69	-59.92042	1.363143E-009	-0.0080485	6
	45	62	31.6723	25291.15	-42164.89	1	49168.29	-59.04403	9.044321E-010	-0.0080467	6
	46	64	24.93351	30346.85	-48756.84	1	57429.61	-58.10136	1.130534E-009	-0.0080508	6
	47	65	19.86229	35678.55	-55601.88	1	66064.57	-57.31257	7.478289E-010	-0.0080525	6
	48	67	15.83615	41299.01	-63477.05	1	75729.41	-56.95144	2.172406E-009	-0.0080512	6
	49	68	12.40079	48039.05	-72933.65	1	87333.09	-56.62839	1.017297E-009	-0.0080433	6
	50	70	9.93114	54130.98	-83083.74	1	99161.8	-56.91483	6.983827E-010	-0.0080396	5
	51	71	7.944915	60735.16	-95325.5	1	113029.7	-57.49739	3.554418E-010	-0.0080374	5
	52	73	6.317385	68241.51	-110601.7	1	129960.2	-58.32532	3.817685E-010	-0.0080515	5
	53	75	5.008013	76604.74	-129769.5	1	150693.1	-59.44606	4.696876E-010	-0.0080432	5
	54	77	3.945707	86302.73	-153945.5	1	176486.2	-60.72476	1.959332E-010	-0.0080411	5
	55	80	3.158693	97130.2	-181262	1	205645.8	-61.81512	7.193177E-010	-0.0080393	5
	56	83	2.504006	110664.5	-215846.7	1	242562.2	-62.85581	2.067775E-010	-0.0080436	5
	57	86	1.998082	126632.9	-255932.2	1	285547.2	-63.67422	4.923172E-010	-0.0080949	5
	58	89	1.584686	146215.9	-304803.2	1	338059.3	-64.37268	4.848915E-010	-0.0080425	5
	59	93	1.266892	169923.7	-362261.1	1	400133.9	-64.87041	4.442872E-010	-0.0080775	5
	60	97	0.999041	200947.7	-433428.7	1	477745.1	-65.12646	6.615566E-010	-0.0080016	5
