EXPLAIN
TAG	EISPOT
TITLE	LABEL	Potentiostatic EIS	Test &Identifier
DATE	LABEL	11/11/2019	Date
TIME	LABEL	14:14:13	Time
NOTES	NOTES	3	&Notes...
	
	
	
PSTAT	PSTAT	REF600-11020	Potentiostat
VDC	POTEN	0.00000E+000	T	DC &Voltage (V)
FREQINIT	QUANT	1.00000E+006	Initial Fre&q. (Hz)
FREQFINAL	QUANT	1.00000E+000	Final Fre&q. (Hz)
PTSPERDEC	QUANT	1.00000E+001	Points/&decade
VAC	QUANT	2.50000E+001	AC &Voltage (mV rms)
AREA	QUANT	1.00000E-002	&Area (cm^2)
CONDIT	TWOPARAM	T	5.00000E+000	0.00000E+000	Conditionin&g	Time(s)	E(V)
DELAY	TWOPARAM	T	5.00000E+000	0.00000E+000	Init. De&lay	Time(s)	Stab.(mV/s)
SPEED	SELECTOR	1	&Optimize for:
ZGUESS	QUANT	1.00000E+005	E&stimated Z (ohms)
OCVCURVE	TABLE	19
	Pt	T	Vf	Vm	Ach	Over
	#	s	V vs. Ref.	V	V	bits
	0	0.258333	9.83817E-003	9.83817E-003	5.71199E-004	...........
	1	0.516667	9.83529E-003	9.68706E-003	5.65799E-004	...........
	2	0.775	9.81329E-003	9.32016E-003	5.71066E-004	...........
	3	1.03333	9.74355E-003	9.31866E-003	5.75165E-004	...........
	4	1.29167	9.63207E-003	9.92266E-003	5.74599E-004	...........
	5	1.55	9.54259E-003	9.22436E-003	5.71166E-004	...........
	6	1.80833	9.52806E-003	1.03996E-002	5.80665E-004	...........
	7	2.06667	9.58376E-003	9.19052E-003	5.76666E-004	...........
	8	2.325	9.64651E-003	9.17783E-003	5.75399E-004	...........
	9	2.58333	9.63855E-003	1.00843E-002	5.75465E-004	...........
	10	2.84167	9.59111E-003	9.82151E-003	5.80232E-004	...........
	11	3.1	9.60790E-003	9.74257E-003	5.76166E-004	...........
	12	3.35833	9.68767E-003	9.67198E-003	5.75299E-004	...........
	13	3.61667	9.74569E-003	9.63748E-003	5.72032E-004	...........
	14	3.875	9.74458E-003	9.61618E-003	5.73166E-004	...........
	15	4.13333	9.70612E-003	9.58870E-003	5.77299E-004	...........
	16	4.39167	9.66085E-003	9.58143E-003	5.67199E-004	...........
	17	4.65	9.62387E-003	9.54633E-003	5.73532E-004	...........
	18	4.90833	9.59717E-003	9.58021E-003	5.81399E-004	...........
EOC	QUANT	0.0095972	Open Circuit (V)
PSTATMODEL	IQUANT	4	Pstat Model
PSTATSECTION	LABEL	REF600-11020	Pstat Section
PSTATSERIALNO	LABEL	11020	Pstat Serial Number
CTRLMODE	IQUANT	1	Control Mode
IESTAB	IQUANT	0	I/E Stability
CASPEED	IQUANT	1	Control Amp Speed
CONVENTION	IQUANT	1	Current Convention
ICHRANGE	IQUANT	2	Ich Range
ICHRANGEMODE	TOGGLE	F	Ich Auto Range
ICHOFFSETENABLE	TOGGLE	T	Ich Offset Enable
ICHOFFSET	QUANT	0	Ich Offset (V)
ICHFILTER	IQUANT	3	Ich Filter
VCHRANGE	IQUANT	2	Vch Range
VCHRANGEMODE	TOGGLE	F	Vch Auto Range
VCHOFFSETENABLE	TOGGLE	T	Vch Offset Enable
VCHOFFSET	QUANT	0	Vch Offset (V)
VCHFILTER	IQUANT	3	Vch Filter
ACHRANGE	IQUANT	2	Ach Range
ACHOFFSETENABLE	TOGGLE	F	Ach Offset Enable
ACHOFFSET	QUANT	0	Ach Offset (V)
ACHFILTER	IQUANT	3	Ach Filter
IERANGELOWERLIMIT	IQUANT	1	I/E Range Lower Limit
IERANGEMODE	TOGGLE	F	I/E AutoRange
IERANGE	IQUANT	5	I/E Range
POSFEEDENABLE	TOGGLE	F	Positive Feedback IR Comp
POSFEEDRESISTANCE	QUANT	0	Positive Feedback Resistance (ohm)
ACHSELECT	IQUANT	0	Ach Select
CABLEID	IQUANT	14	Cable ID
DCCALDATE	LABEL	8/19/2019	DC Calibration Date
ACCALDATE	LABEL	8/19/2019	AC Calibration Date
THERMOSELECT	IQUANT	1	Thermo Select
FRAMEWORKVERSION	QUANT	6.33	Framework Version
INSTRUMENTVERSION	LABEL	3.50	Instrument Version
ZCURVE	TABLE
	Pt	Time	Freq	Zreal	Zimag	Zsig	Zmod	Zphz	Idc	Vdc	IERange
	#	s	Hz	ohm	ohm	V	ohm	°	A	V	#
	0	2	1000078	2528.565	-1932.101	1	3182.241	-37.38379	-2.417223E-006	0.0118882	8
	1	3	794390.6	2912.221	-1892.807	1	3473.291	-33.02198	-7.268324E-007	0.0118243	8
	2	5	630984.4	3270.323	-1811.805	1	3738.67	-28.98707	7.20555E-006	0.0104521	8
	3	6	501234.4	3579.187	-1693.415	1	3959.574	-25.32016	-5.455134E-006	0.0115097	8
	4	7	398109.4	3834.111	-1575.519	1	4145.198	-22.33882	-3.726353E-006	0.0114441	8
	5	9	316265.6	4075.238	-1423.908	1	4316.836	-19.25966	-2.981612E-006	0.0115594	8
	6	10	251203.1	4248.612	-1303.969	1	4444.214	-17.06211	6.556477E-008	0.0108034	8
	7	12	199546.9	4411.79	-1188.924	1	4569.182	-15.08222	-1.314385E-006	0.0108664	8
	8	13	158578.1	4571.729	-1086.868	1	4699.148	-13.37306	-1.489192E-007	0.0108169	8
	9	14	125953.1	4683.999	-942.0052	1	4777.784	-11.37114	-5.820996E-007	0.0138403	7
	10	16	100078.1	4772.17	-903.0117	1	4856.854	-10.71508	3.322805E-007	0.0115158	7
	11	17	79453.13	4860.942	-889.2493	1	4941.612	-10.36692	9.706221E-007	0.0100277	7
	12	18	63140.62	4943.09	-886.626	1	5021.977	-10.16883	-9.612725E-007	0.0124306	7
	13	20	50203.12	5034.199	-909.3059	1	5115.662	-10.2387	4.313752E-007	0.009558	7
	14	21	39890.62	5126.809	-949.2067	1	5213.939	-10.48929	7.378247E-007	0.0108257	7
	15	22	31640.63	5218.245	-1005.189	1	5314.177	-10.90332	-2.684514E-007	0.0122312	7
	16	24	25171.88	5321.969	-1084.57	1	5431.358	-11.51864	-5.606803E-007	0.0124367	7
	17	25	20015.62	5431.671	-1177.461	1	5557.83	-12.23115	-1.088316E-006	0.0122892	7
	18	26	15890.62	5557.412	-1304.264	1	5708.409	-13.20767	-6.456169E-007	0.0108529	7
	19	28	12609.37	5698.209	-1449.642	1	5879.715	-14.27344	-1.093661E-006	0.0119735	7
	20	29	10078.13	5851.775	-1613.095	1	6070.037	-15.41136	-5.617758E-007	0.0124417	7
	21	30	8015.625	6022.563	-1815.119	1	6290.145	-16.77209	-5.57504E-007	0.0124338	7
	22	32	6328.125	6221.223	-2056.904	1	6552.439	-18.29528	-1.094813E-006	0.0122965	7
	23	33	5015.625	6446.121	-2335.683	1	6856.23	-19.91744	-2.576213E-007	0.0121985	7
	24	34	3984.375	6697.534	-2656.354	1	7205.08	-21.6341	-1.065298E-006	0.0122556	7
	25	36	3170.956	6974.048	-3022.265	1	7600.752	-23.42992	-9.107812E-007	0.0114484	7
	26	37	2527.573	7291.425	-3448.144	1	8065.642	-25.30965	-2.66336E-007	0.0102545	7
	27	38	1976.103	7681.328	-3975.18	1	8648.979	-27.36211	3.356354E-007	0.0114802	7
	28	40	1577.524	8060.871	-4540.763	1	9251.819	-29.39296	-1.075611E-006	0.0122734	7
	29	41	1265.625	8536.427	-5155.724	1	9972.57	-31.13061	-2.572101E-007	0.0121932	7
	30	43	998.264	9087.929	-5927.838	1	10850.33	-33.11545	-1.423177E-007	0.0136406	6
	31	44	796.875	9672.85	-6776.25	1	11810.23	-35.01291	1.030922E-007	0.0084743	6
	32	45	627.7902	10343.59	-7810.955	1	12961.52	-37.05824	6.146619E-008	0.0086478	6
	33	47	505.5147	11008.75	-8899.764	1	14156.21	-38.95298	-4.35524E-008	0.0097126	6
	34	48	397.9953	11789.6	-10305.25	1	15658.64	-41.15662	7.860928E-011	0.010971	6
	35	49	315.5048	12576.45	-11945.95	1	17345.69	-43.5272	2.632791E-010	0.0109644	6
	36	51	252.4038	13360.85	-13857.74	1	19249.66	-46.04585	-3.872361E-010	0.010967	6
	37	52	198.6229	14227.96	-16397.53	1	21709.76	-49.05217	7.492335E-011	0.0109728	6
	38	53	158.3615	15110.82	-19397.38	1	24588.52	-52.08091	7.787695E-010	0.0109639	6
	39	55	125.558	16106.23	-23238.9	1	28274.67	-55.27525	3.537687E-010	0.0109716	6
	40	56	100.4464	17214.59	-27866.29	1	32754.72	-58.29401	6.727075E-010	0.0109681	6
	41	57	79.00281	18636.02	-34077.07	1	38840.04	-61.32669	9.223317E-010	0.0109717	6
	42	59	63.3446	20177.46	-41365.92	1	46024.66	-63.99782	5.548346E-010	0.0109688	6
	43	60	49.86702	22809.29	-50256.91	1	55190.77	-65.5889	4.286483E-010	0.0109643	6
	44	62	39.72458	25945.25	-61470.68	1	66721.81	-67.11659	3.780565E-010	0.0109743	6
	45	63	31.6723	29908.17	-74590.39	1	80363.09	-68.15092	6.512347E-010	0.0109618	6
	46	64	24.93351	35894.85	-91723.77	1	98497.2	-68.62778	2.006444E-010	0.01096	6
	47	66	19.86229	43432.02	-110818.3	1	119025.4	-68.59875	-1.613518E-010	0.0109734	5
	48	67	15.83615	53113.59	-134383.9	1	144499.5	-68.4342	1.436359E-009	0.0109684	5
	49	68	12.40079	67476.11	-160998.9	1	174567.1	-67.261	-1.04076E-010	0.0109762	5
	50	70	9.93114	85932.8	-190594.1	1	209070.7	-65.7309	-1.333614E-010	0.0109764	5
	51	72	7.944915	107293.8	-222896.1	1	247375.5	-64.29559	6.151538E-010	0.0109712	5
	52	73	6.317385	136174.2	-258481.6	1	292157.8	-62.21868	4.079562E-010	0.0109716	5
	53	75	5.008013	170152	-297484.7	1	342708.1	-60.23178	-9.73507E-011	0.0109841	5
	54	78	3.945707	209184.1	-338683.4	1	398075.9	-58.29891	-7.213601E-011	0.0109722	5
	55	80	3.158693	250171.2	-379969.4	1	454931.2	-56.63916	6.611818E-011	0.010963	5
	56	84	2.504006	294297.4	-426573.6	1	518243.2	-55.39782	-3.735798E-011	0.0109825	5
	57	86	1.998082	337836.3	-477149.8	1	584641.1	-54.70037	1.726791E-010	0.0109421	5
	58	90	1.584686	384933.5	-540100.6	1	663236.4	-54.52226	-2.59316E-011	0.0109336	5
	59	93	1.266892	431284.1	-610927.1	1	747822.1	-54.77982	1.191008E-010	0.010939	5
	60	97	0.999041	483915.2	-705411	1	855440.6	-55.5497	-4.875446E-011	0.0109909	5
