EXPLAIN
TAG	EISPOT
TITLE	LABEL	Potentiostatic EIS	Test &Identifier
DATE	LABEL	11/7/2019	Date
TIME	LABEL	10:38:03	Time
NOTES	NOTES	2	&Notes...
	
	
PSTAT	PSTAT	REF600-11020	Potentiostat
VDC	POTEN	0.00000E+000	T	DC &Voltage (V)
FREQINIT	QUANT	1.00000E+006	Initial Fre&q. (Hz)
FREQFINAL	QUANT	1.00000E+000	Final Fre&q. (Hz)
PTSPERDEC	QUANT	1.00000E+001	Points/&decade
VAC	QUANT	2.50000E+001	AC &Voltage (mV rms)
AREA	QUANT	1.00000E-002	&Area (cm^2)
CONDIT	TWOPARAM	T	5.00000E+000	0.00000E+000	Conditionin&g	Time(s)	E(V)
DELAY	TWOPARAM	T	5.00000E+000	0.00000E+000	Init. De&lay	Time(s)	Stab.(mV/s)
SPEED	SELECTOR	1	&Optimize for:
ZGUESS	QUANT	1.00000E+005	E&stimated Z (ohms)
OCVCURVE	TABLE	19
	Pt	T	Vf	Vm	Ach	Over
	#	s	V vs. Ref.	V	V	bits
	0	0.258333	-7.75873E-002	-7.75873E-002	5.72666E-004	...........
	1	0.516667	-7.75746E-002	-7.69239E-002	5.69899E-004	...........
	2	0.775	-7.75484E-002	-7.89964E-002	5.66166E-004	...........
	3	1.03333	-7.75087E-002	-7.38125E-002	5.74032E-004	...........
	4	1.29167	-7.71782E-002	-6.91640E-002	5.79099E-004	...........
	5	1.55	-7.59144E-002	-6.45836E-002	5.74432E-004	...........
	6	1.80833	-7.34201E-002	-6.68210E-002	5.75332E-004	...........
	7	2.06667	-7.02680E-002	-5.96235E-002	5.81232E-004	...........
	8	2.325	-6.64351E-002	-2.01070E-002	5.84065E-004	...........
	9	2.58333	-5.99900E-002	-3.27585E-002	5.80665E-004	.........v.
	10	2.84167	-5.05809E-002	-5.08945E-002	5.80799E-004	...........
	11	3.1	-4.26080E-002	-4.91667E-002	5.81532E-004	...........
	12	3.35833	-4.05471E-002	-5.94920E-002	5.77666E-004	...........
	13	3.61667	-4.42088E-002	-7.08676E-002	5.73332E-004	...........
	14	3.875	-5.05777E-002	-4.97088E-002	5.68999E-004	...........
	15	4.13333	-5.61654E-002	-5.66592E-002	5.72966E-004	...........
	16	4.39167	-5.85403E-002	-5.69802E-002	5.69599E-004	...........
	17	4.65	-5.81900E-002	-5.68928E-002	5.75332E-004	...........
	18	4.90833	-5.72813E-002	-5.96589E-002	5.76932E-004	...........
EOC	QUANT	-0.0572813	Open Circuit (V)
PSTATMODEL	IQUANT	4	Pstat Model
PSTATSECTION	LABEL	REF600-11020	Pstat Section
PSTATSERIALNO	LABEL	11020	Pstat Serial Number
CTRLMODE	IQUANT	1	Control Mode
IESTAB	IQUANT	0	I/E Stability
CASPEED	IQUANT	1	Control Amp Speed
CONVENTION	IQUANT	1	Current Convention
ICHRANGE	IQUANT	2	Ich Range
ICHRANGEMODE	TOGGLE	F	Ich Auto Range
ICHOFFSETENABLE	TOGGLE	T	Ich Offset Enable
ICHOFFSET	QUANT	0	Ich Offset (V)
ICHFILTER	IQUANT	3	Ich Filter
VCHRANGE	IQUANT	2	Vch Range
VCHRANGEMODE	TOGGLE	F	Vch Auto Range
VCHOFFSETENABLE	TOGGLE	T	Vch Offset Enable
VCHOFFSET	QUANT	0	Vch Offset (V)
VCHFILTER	IQUANT	3	Vch Filter
ACHRANGE	IQUANT	2	Ach Range
ACHOFFSETENABLE	TOGGLE	F	Ach Offset Enable
ACHOFFSET	QUANT	0	Ach Offset (V)
ACHFILTER	IQUANT	3	Ach Filter
IERANGELOWERLIMIT	IQUANT	1	I/E Range Lower Limit
IERANGEMODE	TOGGLE	F	I/E AutoRange
IERANGE	IQUANT	6	I/E Range
POSFEEDENABLE	TOGGLE	F	Positive Feedback IR Comp
POSFEEDRESISTANCE	QUANT	0	Positive Feedback Resistance (ohm)
ACHSELECT	IQUANT	0	Ach Select
CABLEID	IQUANT	14	Cable ID
DCCALDATE	LABEL	8/19/2019	DC Calibration Date
ACCALDATE	LABEL	8/19/2019	AC Calibration Date
THERMOSELECT	IQUANT	1	Thermo Select
FRAMEWORKVERSION	QUANT	6.33	Framework Version
INSTRUMENTVERSION	LABEL	3.50	Instrument Version
ZCURVE	TABLE
	Pt	Time	Freq	Zreal	Zimag	Zsig	Zmod	Zphz	Idc	Vdc	IERange
	#	s	Hz	ohm	ohm	V	ohm	°	A	V	#
	0	2	1000078	733.2373	-9350.637	1	9379.342	-85.51628	1.22913E-005	-0.0563734	8
	1	4	794390.6	1040.58	-11585.26	1	11631.9	-84.86751	-1.10553E-005	-0.0540292	8
	2	6	630984.4	918.2192	-14336.91	1	14366.28	-86.33545	-2.615341E-006	-0.0556624	8
	3	8	501234.4	1446.135	-18033.79	1	18091.68	-85.41525	-3.270625E-007	-0.0560204	8
	4	9	398109.4	2542.858	-22510.83	1	22654	-83.5551	-2.486329E-006	-0.0555237	8
	5	11	316265.6	2181.029	-27961.21	1	28046.14	-85.53985	-7.106723E-006	-0.0546792	8
	6	13	251203.1	2118.971	-34851.44	1	34915.79	-86.52069	-5.32832E-007	-0.0551832	8
	7	16	199546.9	2264.406	-43176.75	1	43236.09	-86.99787	-2.29586E-006	-0.0555829	8
	8	18	158578.1	-4529.426	-63167.43	1	63329.62	-94.10138	-9.639418E-007	-0.0552342	8
	9	20	125953.1	6166.777	-68454	1	68731.21	-84.85233	4.11377E-007	-0.0515358	7
	10	22	100078.1	17696.81	-86827.51	1	88612.6	-78.48001	-1.795587E-006	-0.0543545	7
	11	23	79453.13	8182.458	-106928.1	1	107240.7	-85.62408	-7.20791E-008	-0.0540938	7
	12	25	63140.62	9234.26	-134700	1	135016.2	-86.07826	-1.855331E-006	-0.053758	7
	13	27	50203.12	12176.96	-166261.4	1	166706.8	-85.81114	4.111234E-007	-0.054689	7
	14	28	39890.62	13622.29	-208400.7	1	208845.4	-86.26013	-9.732069E-007	-0.0562955	7
	15	30	31640.63	22995.26	-266143.4	1	267135	-85.06181	-1.489084E-006	-0.0552643	7
	16	32	25171.88	20922.98	-328926.7	1	329591.5	-86.36033	1.712996E-006	-0.0578934	7
	17	34	20015.62	38141.28	-407205.4	1	408987.8	-84.64895	9.156502E-007	-0.0584844	7
	18	36	15890.62	28397.99	-511095.5	1	511883.9	-86.81975	-1.463187E-006	-0.0532483	7
	19	37	12609.37	47876.91	-640392.4	1	642179.6	-85.72442	3.09022E-007	-0.060938	6
	20	39	10078.13	47938.61	-874055.6	1	875369.3	-86.86069	3.442068E-007	-0.0592412	6
	21	41	8015.625	122505.8	-912585.3	1	920771.2	-82.3543	-2.656276E-007	-0.0555163	6
	22	43	6328.125	108189.4	-1194847	1	1199735	-84.82616	-5.425299E-008	-0.0589449	6
	23	45	5015.625	159379.8	-1532537	1	1540802	-84.06274	-5.434091E-008	-0.0589414	6
	24	46	3984.375	151913.7	-1767571	1	1774087	-85.08779	-5.401734E-008	-0.0589412	6
	25	48	3170.956	325180	-2293301	1	2316241	-81.92951	3.397254E-007	-0.060234	6
	26	50	2527.573	412763.1	-2910699	1	2939820	-81.92876	3.433734E-007	-0.0592302	6
	27	52	1976.103	1330115	-5482620	1	5641660	-76.36318	-2.18235E-008	-0.0520359	6
	28	54	1577.524	760575.1	-4723209	1	4784055	-80.85223	5.743182E-008	-0.0601331	6
	29	56	1265.625	643975.8	-5725459	1	5761561	-83.58258	1.013604E-008	-0.0605392	5
	30	58	998.264	1340553	-6385455	1	6524655	-78.14359	2.380684E-008	-0.0559318	5
	31	59	796.875	2238756	-7645983	1	7967000	-73.67989	-1.916225E-008	-0.0503342	5
	32	61	627.7902	2146933	-9.604913E+006	1	9.841934E+006	-77.40011	-4.015369E-008	-0.0510595	5
	33	62	505.5147	4295645	-1.236788E+007	1	1.309263E+007	-70.84673	-2.233429E-008	-0.0564158	5
	34	64	397.9953	2646677	-1.441693E+007	1	1.465786E+007	-79.5974	-4.074272E-010	-0.0558188	5
	35	66	315.5048	5004824	-1.533667E+007	1	1.613263E+007	-71.92692	3.375014E-010	-0.0558029	5
	36	67	252.4038	7050901	-1.632298E+007	1	1.778074E+007	-66.6375	3.932448E-010	-0.0558117	5
	37	69	198.6229	1.269777E+007	-2.785589E+007	1	3.061346E+007	-65.4947	1.88954E-010	-0.055827	5
	38	70	158.3615	367891.8	-3.420576E+007	1	3.420774E+007	-89.3838	-1.622206E-010	-0.0558182	5
	39	72	125.558	6046795	-3.325717E+007	1	3.380242E+007	-79.69509	-6.42043E-011	-0.0558156	4
	40	73	100.4464	3.317645E+007	-2.265432E+007	1	4.017332E+007	-34.32695	-9.142589E-011	-0.055808	4
	41	75	79.00281	1.671929E+007	393042.4	1	1.672391E+007	1.346679	1.849576E-010	-0.0558136	4
	42	77	63.3446	1631252	-3082962	1	3487928	-62.11586	1.635836E-010	-0.055835	4
	43	79	49.86702	1.712627E+007	-1.331348E+007	1	2.169235E+007	-37.86049	1.377925E-010	-0.0558314	4
	44	80	39.72458	2.209561E+007	3.614203E+007	1	4.23611E+007	58.56026	2.678756E-010	-0.055829	4
	45	82	31.6723	-6448229	4.480294E+007	1	4.526458E+007	98.19	2.852169E-010	-0.0558214	4
	46	84	24.93351	5.450186E+007	6307223	1	5.48656E+007	6.601185	1.722403E-010	-0.055823	4
	47	85	19.86229	6.851838E+007	1.088622E+007	1	6.937779E+007	9.027713	5.691232E-011	-0.0558021	4
	48	87	15.83615	1.89039E+007	-3710123	1	1.926454E+007	-11.10387	4.741852E-010	-0.0558219	5
	49	89	12.40079	1.441857E+007	5347310	1	1.53782E+007	20.34794	-8.960043E-010	-0.0558203	4
	50	90	9.93114	1.916298E+007	-1.066306E+008	1	1.083388E+008	-79.81191	-1.604759E-010	-0.0558257	4
	51	92	7.944915	5.655624E+007	-4.815698E+007	1	7.428124E+007	-40.41401	1.159631E-010	-0.0558075	4
	52	94	6.317385	9.248222E+007	-2.110138E+007	1	9.485899E+007	-12.85297	-5.130335E-012	-0.055798	5
	53	97	5.008013	7.316656E+007	-8810741	1	7.369514E+007	-6.866513	9.749948E-011	-0.0558379	4
	54	101	3.945707	8.127953E+007	3.337421E+007	1	8.786466E+007	22.32356	9.648518E-011	-0.0558072	5
	55	104	3.158693	9.979582E+007	-6619697	1	1.000151E+008	-3.795008	4.291454E-011	-0.0558164	4
	56	108	2.504006	3.852661E+008	-4.41968E+007	1	3.877929E+008	-6.544225	6.598826E-011	-0.0558205	3
	57	112	1.998082	4.153477E+008	-3.981007E+007	1	4.172512E+008	-5.474937	7.230866E-011	-0.0558714	3
	58	117	1.584686	4.086839E+008	-2.963317E+007	1	4.097568E+008	-4.14719	6.636346E-011	-0.0558304	3
	59	122	1.266892	3.923649E+009	-8.406591E+008	1	4.012696E+009	-12.09304	-4.741687E-013	-0.0558593	2
	60	129	0.999041	3.990041E+009	-9.233322E+008	1	4.095481E+009	-13.02943	-5.432488E-013	-0.0557771	2
