EXPLAIN
TAG	EISPOT
TITLE	LABEL	Potentiostatic IDE	Test &Identifier
DATE	LABEL	9/10/2019	Date
TIME	LABEL	9:24:08	Time
NOTES	NOTES	1	&Notes...
	
PSTAT	PSTAT	REF600-11020	Potentiostat
VDC	POTEN	0.00000E+000	T	DC &Voltage (V)
FREQINIT	QUANT	1.00000E+006	Initial Fre&q. (Hz)
FREQFINAL	QUANT	1.00000E+000	Final Fre&q. (Hz)
PTSPERDEC	QUANT	1.00000E+001	Points/&decade
VAC	QUANT	2.50000E+001	AC &Voltage (mV rms)
AREA	QUANT	1.00000E-002	&Area (cm^2)
CONDIT	TWOPARAM	T	5.00000E+000	0.00000E+000	Conditionin&g	Time(s)	E(V)
DELAY	TWOPARAM	T	5.00000E+000	0.00000E+000	Init. De&lay	Time(s)	Stab.(mV/s)
SPEED	SELECTOR	1	&Optimize for:
ZGUESS	QUANT	1.00000E+007	E&stimated Z (ohms)
OCVCURVE	TABLE	19
	Pt	T	Vf	Vm	Ach	Over
	#	s	V vs. Ref.	V	V	bits
	0	0.258333	6.58894E-003	6.58894E-003	5.67332E-004	...........
	1	0.516667	6.58771E-003	6.52484E-003	5.65199E-004	...........
	2	0.775	6.58049E-003	6.47960E-003	5.66066E-004	...........
	3	1.03333	6.56125E-003	6.44679E-003	5.65299E-004	...........
	4	1.29167	6.52980E-003	6.42554E-003	5.65132E-004	...........
	5	1.55	6.49320E-003	6.40650E-003	5.62599E-004	...........
	6	1.80833	6.45938E-003	6.39599E-003	5.66532E-004	...........
	7	2.06667	6.43247E-003	6.38990E-003	5.65466E-004	...........
	8	2.325	6.41315E-003	6.39030E-003	5.64732E-004	...........
	9	2.58333	6.40057E-003	6.38506E-003	5.63666E-004	...........
	10	2.84167	6.39319E-003	6.38678E-003	5.63799E-004	...........
	11	3.1	6.38923E-003	6.38823E-003	5.67832E-004	...........
	12	3.35833	6.38751E-003	6.39098E-003	5.60132E-004	...........
	13	3.61667	6.38743E-003	6.39192E-003	5.60066E-004	...........
	14	3.875	6.38853E-003	6.39588E-003	5.60732E-004	...........
	15	4.13333	6.39033E-003	6.39622E-003	5.63666E-004	...........
	16	4.39167	6.39248E-003	6.40080E-003	5.66866E-004	...........
	17	4.65	6.39480E-003	6.40278E-003	5.69632E-004	...........
	18	4.90833	6.39730E-003	6.40584E-003	5.68199E-004	...........
EOC	QUANT	0.0063973	Open Circuit (V)
PSTATMODEL	IQUANT	4	Pstat Model
PSTATSECTION	LABEL	REF600-11020	Pstat Section
PSTATSERIALNO	LABEL	11020	Pstat Serial Number
CTRLMODE	IQUANT	1	Control Mode
IESTAB	IQUANT	0	I/E Stability
CASPEED	IQUANT	1	Control Amp Speed
CONVENTION	IQUANT	1	Current Convention
ICHRANGE	IQUANT	2	Ich Range
ICHRANGEMODE	TOGGLE	F	Ich Auto Range
ICHOFFSETENABLE	TOGGLE	T	Ich Offset Enable
ICHOFFSET	QUANT	0	Ich Offset (V)
ICHFILTER	IQUANT	3	Ich Filter
VCHRANGE	IQUANT	2	Vch Range
VCHRANGEMODE	TOGGLE	F	Vch Auto Range
VCHOFFSETENABLE	TOGGLE	T	Vch Offset Enable
VCHOFFSET	QUANT	0	Vch Offset (V)
VCHFILTER	IQUANT	3	Vch Filter
ACHRANGE	IQUANT	2	Ach Range
ACHOFFSETENABLE	TOGGLE	F	Ach Offset Enable
ACHOFFSET	QUANT	0	Ach Offset (V)
ACHFILTER	IQUANT	3	Ach Filter
IERANGELOWERLIMIT	IQUANT	1	I/E Range Lower Limit
IERANGEMODE	TOGGLE	F	I/E AutoRange
IERANGE	IQUANT	3	I/E Range
POSFEEDENABLE	TOGGLE	F	Positive Feedback IR Comp
POSFEEDRESISTANCE	QUANT	0	Positive Feedback Resistance (ohm)
ACHSELECT	IQUANT	0	Ach Select
CABLEID	IQUANT	14	Cable ID
DCCALDATE	LABEL	8/19/2019	DC Calibration Date
ACCALDATE	LABEL	8/19/2019	AC Calibration Date
THERMOSELECT	IQUANT	1	Thermo Select
FRAMEWORKVERSION	QUANT	6.33	Framework Version
INSTRUMENTVERSION	LABEL	3.50	Instrument Version
ZCURVE	TABLE
	Pt	Time	Freq	Zreal	Zimag	Zsig	Zmod	Zphz	Idc	Vdc	IERange
	#	s	Hz	ohm	ohm	V	ohm	°	A	V	#
	0	2	1000078	2696.611	-1920.385	1	3310.527	-35.45648	3.405041E-008	0.0093266	8
	1	3	794390.6	3076.584	-1837.22	1	3583.398	-30.84405	-6.938134E-007	0.0084711	8
	2	5	630984.4	3421.106	-1691.966	1	3816.636	-26.31548	-1.649406E-007	0.0086236	8
	3	6	501234.4	3695.997	-1526.328	1	3998.758	-22.43905	4.017901E-006	0.0074259	8
	4	7	398109.4	3928.952	-1329.36	1	4147.754	-18.69323	3.439633E-006	0.007399	8
	5	9	316265.6	4085.213	-1172.015	1	4250.01	-16.00776	-1.35671E-006	0.0083948	8
	6	10	251203.1	4211.823	-1010.701	1	4331.394	-13.49398	-9.737731E-007	0.0083824	8
	7	11	199546.9	4313.814	-881.7582	1	4403.009	-11.55232	3.617326E-006	0.0073949	8
	8	13	158578.1	4384.259	-781.3626	1	4453.342	-10.10516	-6.164863E-007	0.0082374	8
	9	14	125953.1	4470.44	-660.8898	1	4519.028	-8.409439	3.390592E-007	0.0075701	7
	10	15	100078.1	4518.404	-605.0925	1	4558.74	-7.627516	-5.86197E-008	0.0082147	7
	11	17	79453.13	4562.977	-576.7398	1	4599.281	-7.20373	-1.651241E-008	0.0081619	7
	12	18	63140.62	4608.904	-560.0865	1	4642.811	-6.928763	3.219889E-008	0.0080818	7
	13	19	50203.12	4656.053	-561.7159	1	4689.813	-6.879037	-6.014805E-008	0.0082988	7
	14	21	39890.62	4704.077	-576.2873	1	4739.245	-6.984392	-1.553417E-008	0.0081498	7
	15	22	31640.63	4755.574	-603.6599	1	4793.734	-7.234283	8.658195E-009	0.0081982	7
	16	23	25171.88	4809.429	-646.365	1	4852.668	-7.654423	-4.542039E-009	0.0080835	7
	17	25	20015.62	4872.243	-703.9637	1	4922.836	-8.221459	9.257903E-008	0.0079921	7
	18	26	15890.62	4939.637	-777.0797	1	5000.386	-8.940224	-5.020921E-008	0.0082021	7
	19	27	12609.37	5012.293	-867.1052	1	5086.743	-9.81478	-6.354781E-009	0.0080764	7
	20	29	10078.13	5092.974	-974.429	1	5185.354	-10.83139	-5.786805E-008	0.0081922	7
	21	30	8015.625	5185.476	-1103.624	1	5301.617	-12.01497	-6.284474E-009	0.0080801	7
	22	31	6328.125	5292.484	-1262.839	1	5441.062	-13.4204	-4.40763E-009	0.0081022	7
	23	33	5015.625	5410.247	-1448.636	1	5600.832	-14.98977	-2.012228E-008	0.0081088	7
	24	34	3984.375	5541.879	-1669.182	1	5787.796	-16.762	-2.047233E-008	0.0081078	7
	25	35	3170.956	5689.914	-1926.376	1	6007.166	-18.70403	-6.039026E-008	0.0082835	7
	26	37	2527.573	5851.303	-2229.424	1	6261.636	-20.8575	-5.742832E-008	0.008299	7
	27	38	1976.103	6055.079	-2620.417	1	6597.77	-23.4012	-1.375034E-008	0.0081514	7
	28	39	1577.524	6265.377	-3048.317	1	6967.582	-25.94448	1.714543E-008	0.0080413	7
	29	41	1265.625	6490.609	-3541.287	1	7393.83	-28.61695	-4.905687E-008	0.0082006	7
	30	42	998.264	6766.461	-4175.507	1	7951.092	-31.67827	7.449599E-008	0.0080502	7
	31	43	796.875	7056.399	-4900.677	1	8591.24	-34.78002	-4.310951E-008	0.0081705	7
	32	45	627.7902	7404.492	-5824.291	1	9420.661	-38.18819	-4.354856E-009	0.0080996	7
	33	46	505.5147	7756.033	-6850.88	1	10348.46	-41.45406	-5.247932E-009	0.0080683	6
	34	47	397.9953	8201.251	-8215.72	1	11608.56	-45.0505	8.44797E-010	0.0080745	6
	35	49	315.5048	8691.838	-9837.53	1	13127.27	-48.53817	8.572477E-010	0.008073	6
	36	50	252.4038	9233.677	-11736.74	1	14933.58	-51.80671	1.071155E-009	0.0080672	6
	37	51	198.6229	9910.58	-14227.16	1	17338.73	-55.1391	6.275399E-010	0.0080691	6
	38	52	158.3615	10665.59	-17109.79	1	20161.84	-58.06216	4.323134E-010	0.0080658	6
	39	54	125.558	11576.79	-20716.99	1	23732.16	-60.80326	7.378678E-010	0.0080714	6
	40	55	100.4464	12615	-24939.42	1	27948.4	-63.16854	5.155423E-010	0.008072	6
	41	56	79.00281	13942.81	-30535.1	1	33567.75	-65.45781	4.415395E-010	0.0080657	6
	42	58	63.3446	15529.69	-36654.93	1	39808.98	-67.03896	5.301453E-010	0.0080669	6
	43	59	49.86702	17516.25	-45348.96	1	48614.27	-68.88071	9.459012E-010	0.0080644	6
	44	61	39.72458	20063.68	-54932.21	1	58481.61	-69.93556	5.878509E-010	0.0080769	6
	45	62	31.6723	23082.85	-66729.7	1	70609.28	-70.9187	7.325372E-010	0.0080655	6
	46	63	24.93351	27506.59	-81951.99	1	86445.02	-71.44604	7.412758E-010	0.0080679	6
	47	65	19.86229	32937.16	-99426.6	1	104740.2	-71.67146	9.286125E-010	0.0080741	6
	48	66	15.83615	40185.69	-121015.2	1	127513	-71.63015	1.522105E-009	0.0080679	5
	49	67	12.40079	50540.2	-147528.6	1	155945.5	-71.08962	-2.928071E-010	0.0080809	5
	50	69	9.93114	61787.08	-177002	1	187476.3	-70.75715	9.208974E-011	0.0080729	5
	51	70	7.944915	77401.49	-211811.3	1	225510.5	-69.92635	2.273688E-010	0.0080694	5
	52	72	6.317385	97738.1	-252730.5	1	270971.3	-68.85709	5.43713E-011	0.0080825	5
	53	74	5.008013	124422.7	-300996.2	1	325698.8	-67.54128	1.69991E-010	0.0080728	5
	54	76	3.945707	158991	-357330.3	1	391104.9	-66.01374	4.919361E-010	0.0080769	5
	55	79	3.158693	199514.5	-417041	1	462308.6	-64.43332	1.042765E-011	0.0080695	5
	56	82	2.504006	251283.2	-485355.5	1	546546.6	-62.62803	5.475627E-010	0.0080674	5
	57	85	1.998082	311459.2	-557414.1	1	638527.4	-60.8054	1.794027E-010	0.0081128	5
	58	88	1.584686	382351.3	-637570.4	1	743430.3	-59.04886	3.01099E-010	0.0080962	5
	59	92	1.266892	464123.9	-719266.3	1	856011.1	-57.16689	1.938058E-011	0.0081151	5
	60	96	0.999041	557944.6	-812163.5	1	985349	-55.51149	2.940906E-010	0.0080502	5
