EXPLAIN
TAG	EISPOT
TITLE	LABEL	Potentiostatic EIS	Test &Identifier
DATE	LABEL	10/20/2019	Date
TIME	LABEL	9:46:08	Time
NOTES	NOTES	1	&Notes...
	
PSTAT	PSTAT	REF600-11020	Potentiostat
VDC	POTEN	0.00000E+000	T	DC &Voltage (V)
FREQINIT	QUANT	1.00000E+006	Initial Fre&q. (Hz)
FREQFINAL	QUANT	1.00000E+000	Final Fre&q. (Hz)
PTSPERDEC	QUANT	1.00000E+001	Points/&decade
VAC	QUANT	2.50000E+001	AC &Voltage (mV rms)
AREA	QUANT	1.00000E-002	&Area (cm^2)
CONDIT	TWOPARAM	T	5.00000E+000	0.00000E+000	Conditionin&g	Time(s)	E(V)
DELAY	TWOPARAM	T	5.00000E+000	0.00000E+000	Init. De&lay	Time(s)	Stab.(mV/s)
SPEED	SELECTOR	1	&Optimize for:
ZGUESS	QUANT	1.00000E+005	E&stimated Z (ohms)
OCVCURVE	TABLE	19
	Pt	T	Vf	Vm	Ach	Over
	#	s	V vs. Ref.	V	V	bits
	0	0.258333	7.75078E-003	7.75078E-003	5.50933E-004	...........
	1	0.516667	7.76454E-003	8.47073E-003	5.53066E-004	...........
	2	0.775	7.83213E-003	8.27065E-003	5.54599E-004	...........
	3	1.03333	7.97273E-003	8.36163E-003	5.51232E-004	...........
	4	1.29167	8.13833E-003	8.39495E-003	5.51633E-004	...........
	5	1.55	8.26849E-003	8.47066E-003	5.57066E-004	...........
	6	1.80833	8.34822E-003	8.29047E-003	5.51266E-004	...........
	7	2.06667	8.38667E-003	8.44461E-003	5.53299E-004	...........
	8	2.325	8.39750E-003	8.44975E-003	5.53666E-004	...........
	9	2.58333	8.40212E-003	8.44090E-003	5.54199E-004	...........
	10	2.84167	8.41362E-003	8.42759E-003	5.54066E-004	...........
	11	3.1	8.45011E-003	9.65377E-003	5.50333E-004	...........
	12	3.35833	8.56683E-003	9.05410E-003	5.59466E-004	...........
	13	3.61667	8.76664E-003	8.47679E-003	5.59066E-004	...........
	14	3.875	8.91649E-003	8.53245E-003	5.53099E-004	...........
	15	4.13333	8.92728E-003	9.95107E-003	5.54633E-004	...........
	16	4.39167	8.90737E-003	8.54128E-003	5.53799E-004	...........
	17	4.65	8.95007E-003	8.70753E-003	5.52899E-004	...........
	18	4.90833	8.97525E-003	8.81563E-003	5.49399E-004	...........
EOC	QUANT	0.0089752	Open Circuit (V)
PSTATMODEL	IQUANT	4	Pstat Model
PSTATSECTION	LABEL	REF600-11020	Pstat Section
PSTATSERIALNO	LABEL	11020	Pstat Serial Number
CTRLMODE	IQUANT	1	Control Mode
IESTAB	IQUANT	0	I/E Stability
CASPEED	IQUANT	1	Control Amp Speed
CONVENTION	IQUANT	1	Current Convention
ICHRANGE	IQUANT	2	Ich Range
ICHRANGEMODE	TOGGLE	F	Ich Auto Range
ICHOFFSETENABLE	TOGGLE	T	Ich Offset Enable
ICHOFFSET	QUANT	0	Ich Offset (V)
ICHFILTER	IQUANT	3	Ich Filter
VCHRANGE	IQUANT	2	Vch Range
VCHRANGEMODE	TOGGLE	F	Vch Auto Range
VCHOFFSETENABLE	TOGGLE	T	Vch Offset Enable
VCHOFFSET	QUANT	0	Vch Offset (V)
VCHFILTER	IQUANT	3	Vch Filter
ACHRANGE	IQUANT	2	Ach Range
ACHOFFSETENABLE	TOGGLE	F	Ach Offset Enable
ACHOFFSET	QUANT	0	Ach Offset (V)
ACHFILTER	IQUANT	3	Ach Filter
IERANGELOWERLIMIT	IQUANT	1	I/E Range Lower Limit
IERANGEMODE	TOGGLE	F	I/E AutoRange
IERANGE	IQUANT	5	I/E Range
POSFEEDENABLE	TOGGLE	F	Positive Feedback IR Comp
POSFEEDRESISTANCE	QUANT	0	Positive Feedback Resistance (ohm)
ACHSELECT	IQUANT	0	Ach Select
CABLEID	IQUANT	14	Cable ID
DCCALDATE	LABEL	8/19/2019	DC Calibration Date
ACCALDATE	LABEL	8/19/2019	AC Calibration Date
THERMOSELECT	IQUANT	1	Thermo Select
FRAMEWORKVERSION	QUANT	6.33	Framework Version
INSTRUMENTVERSION	LABEL	3.50	Instrument Version
ZCURVE	TABLE
	Pt	Time	Freq	Zreal	Zimag	Zsig	Zmod	Zphz	Idc	Vdc	IERange
	#	s	Hz	ohm	ohm	V	ohm	°	A	V	#
	0	1	1000078	2825.46	-1535.675	1	3215.824	-28.52467	-8.66763E-006	0.0124092	8
	1	3	794390.6	3100.684	-1404.147	1	3403.802	-24.36343	7.410558E-006	0.0099709	8
	2	5	630984.4	3337.404	-1247.01	1	3562.765	-20.48804	-5.573404E-006	0.0116343	8
	3	6	501234.4	3505.289	-1091.309	1	3671.241	-17.29304	1.359542E-006	0.0106533	8
	4	8	398109.4	3624.981	-928.6772	1	3742.049	-14.36945	6.758254E-007	0.0104207	8
	5	9	316265.6	3726.888	-807.8928	1	3813.448	-12.231	-2.855206E-006	0.0110667	8
	6	10	251203.1	3813.909	-700.9313	1	3877.783	-10.41378	3.477666E-006	0.009796	8
	7	12	199546.9	3853.599	-604.1448	1	3900.668	-8.909974	2.66418E-006	0.0099658	8
	8	13	158578.1	3912.042	-540.3617	1	3949.185	-7.864377	4.468673E-007	0.0105457	8
	9	15	125953.1	3976.577	-420.0745	1	3998.703	-6.030201	2.568511E-007	0.0100093	7
	10	16	100078.1	3996.772	-392.5811	1	4016.007	-5.609856	-5.012433E-009	0.0105949	7
	11	17	79453.13	4027.055	-382.7364	1	4045.202	-5.429156	-4.731193E-008	0.0106471	7
	12	19	63140.62	4059.625	-383.2489	1	4077.675	-5.393025	6.2689E-008	0.010354	7
	13	20	50203.12	4092.98	-389.7304	1	4111.493	-5.43926	2.016133E-008	0.0104288	7
	14	21	39890.62	4128.199	-406.8808	1	4148.202	-5.628969	-4.331295E-008	0.0106348	7
	15	23	31640.63	4167.056	-432.3319	1	4189.423	-5.923244	2.01629E-008	0.0104267	7
	16	24	25171.88	4209.024	-466.4878	1	4234.795	-6.324304	-6.328913E-008	0.0106246	7
	17	25	20015.62	4252.547	-516.0679	1	4283.747	-6.919295	-5.24454E-008	0.0106152	7
	18	27	15890.62	4305.56	-568.0046	1	4342.865	-7.515263	-3.239114E-008	0.0105577	7
	19	28	12609.37	4363.938	-634.2675	1	4409.79	-8.269629	1.083171E-007	0.0103244	7
	20	30	10078.13	4421.332	-709.492	1	4477.896	-9.116543	2.083483E-008	0.0104544	7
	21	31	8015.625	4499.23	-801.6971	1	4570.098	-10.10323	-2.461197E-008	0.0105428	7
	22	32	6328.125	4562.796	-918.5921	1	4654.344	-11.38276	-4.588673E-008	0.0105633	7
	23	34	5015.625	4641.795	-1054.274	1	4760.016	-12.7963	-4.422403E-008	0.0105728	7
	24	35	3984.375	4737.807	-1213.795	1	4890.819	-14.36974	2.054888E-008	0.010458	7
	25	36	3170.956	4819.094	-1410.785	1	5021.353	-16.31734	-6.852535E-010	0.0105645	7
	26	38	2527.573	4918.914	-1651.591	1	5188.783	-18.56016	-1.538504E-009	0.0105564	7
	27	39	1976.103	5040.48	-1953.587	1	5405.825	-21.18531	-2.428848E-008	0.0105441	7
	28	40	1577.524	5140.298	-2314.006	1	5637.134	-24.23582	-2.926188E-009	0.0106024	7
	29	42	1265.625	5293.957	-2712.394	1	5948.366	-27.12863	6.980715E-008	0.0103929	7
	30	43	998.264	5451.59	-3254.844	1	6349.318	-30.8391	8.25703E-010	0.0105597	7
	31	45	796.875	5624.94	-3879.055	1	6832.79	-34.59081	-1.459302E-009	0.0105971	7
	32	46	627.7902	5830.422	-4685.683	1	7479.936	-38.78748	-4.550751E-008	0.0105535	7
	33	47	505.5147	6044.335	-5595.2	1	8236.519	-42.79022	2.042729E-008	0.0104531	7
	34	49	397.9953	6308.794	-6828.791	1	9296.949	-47.26663	6.067158E-009	0.0105426	7
	35	50	315.5048	6611.039	-8308.61	1	10617.85	-51.49125	-6.157888E-010	0.0104805	6
	36	51	252.4038	6949.328	-10066.71	1	12232.41	-55.3816	1.452625E-009	0.0104811	6
	37	53	198.6229	7389.76	-12401.1	1	14435.92	-59.20947	4.90043E-010	0.0104799	6
	38	54	158.3615	7905.79	-15137.02	1	17077.2	-62.42275	1.697664E-009	0.0104746	6
	39	56	125.558	8580.24	-18599.6	1	20483.3	-65.2355	8.028184E-010	0.0104781	6
	40	57	100.4464	9409.413	-22717.77	1	24589.31	-67.50128	1.36657E-009	0.0104729	6
	41	58	79.00281	10677.48	-28082.9	1	30044.27	-69.18255	9.627052E-010	0.0104749	6
	42	60	63.3446	12403.23	-33761.68	1	35967.92	-69.82788	-1.340043E-010	0.0104752	6
	43	61	49.86702	14071.99	-42567.27	1	44832.95	-71.70703	-4.226297E-010	0.010471	6
	44	63	39.72458	16425.41	-51496.54	1	54052.64	-72.30932	5.073698E-010	0.0104768	6
	45	64	31.6723	20098.73	-62655.94	1	65800.66	-72.21483	-3.890346E-010	0.0104672	6
	46	65	24.93351	24369.44	-76646.2	1	80427.04	-72.36208	3.073796E-010	0.0104675	6
	47	67	19.86229	29869.63	-92576.38	1	97275.8	-72.11778	1.740368E-011	0.0104739	6
	48	68	15.83615	36176.52	-112002.4	1	117699.9	-72.09966	1.812237E-009	0.0104703	5
	49	69	12.40079	46809.28	-134143.4	1	142075.9	-70.7636	-6.905022E-010	0.0104731	5
	50	71	9.93114	59074.43	-161176.9	1	171661.8	-69.87114	1.06413E-010	0.0104689	5
	51	72	7.944915	73737.41	-191119.2	1	204850.6	-68.90244	4.510185E-011	0.0104672	5
	52	74	6.317385	91986.96	-226628.5	1	244585.5	-67.9081	1.555133E-010	0.0104621	5
	53	76	5.008013	114793.7	-268393.5	1	291912.1	-66.84328	-1.367586E-010	0.0104686	5
	54	79	3.945707	144706.6	-316096.8	1	347645.3	-65.40207	1.254217E-010	0.0104802	5
	55	81	3.158693	176431.6	-369513.9	1	409473.6	-64.47695	-9.187769E-011	0.0104661	5
	56	85	2.504006	217170	-430733.8	1	482384.1	-63.24339	3.674624E-010	0.010474	5
	57	87	1.998082	263353.9	-498352.8	1	563658.4	-62.14584	2.920456E-011	0.010519	5
	58	91	1.584686	318043.6	-575781.4	1	657781.1	-61.08512	1.849889E-010	0.0104781	5
	59	94	1.266892	382141.6	-662249.7	1	764595.9	-60.01353	8.339692E-011	0.0105166	5
	60	99	0.999041	462564.9	-768405.2	1	896890.6	-58.95288	2.977256E-011	0.0104391	5
