EXPLAIN
TAG	EISPOT
TITLE	LABEL	Potentiostatic EIS	Test &Identifier
DATE	LABEL	11/27/2019	Date
TIME	LABEL	12:31:45	Time
NOTES	NOTES	3	&Notes...
	
	
	
PSTAT	PSTAT	REF600-11020	Potentiostat
VDC	POTEN	0.00000E+000	T	DC &Voltage (V)
FREQINIT	QUANT	1.00000E+006	Initial Fre&q. (Hz)
FREQFINAL	QUANT	1.00000E+000	Final Fre&q. (Hz)
PTSPERDEC	QUANT	1.00000E+001	Points/&decade
VAC	QUANT	2.50000E+001	AC &Voltage (mV rms)
AREA	QUANT	1.00000E-002	&Area (cm^2)
CONDIT	TWOPARAM	T	5.00000E+000	0.00000E+000	Conditionin&g	Time(s)	E(V)
DELAY	TWOPARAM	T	5.00000E+000	0.00000E+000	Init. De&lay	Time(s)	Stab.(mV/s)
SPEED	SELECTOR	0	&Optimize for:
ZGUESS	QUANT	1.00000E+005	E&stimated Z (ohms)
OCVCURVE	TABLE	19
	Pt	T	Vf	Vm	Ach	Over
	#	s	V vs. Ref.	V	V	bits
	0	0.258333	5.06586E-004	5.06586E-004	5.62866E-004	...........
	1	0.516667	4.93901E-004	-1.57430E-004	5.58666E-004	...........
	2	0.775	4.16416E-004	-7.65376E-004	5.59699E-004	...........
	3	1.03333	2.00905E-004	-1.22726E-003	5.54899E-004	...........
	4	1.29167	-1.73995E-004	-1.78005E-003	5.56266E-004	...........
	5	1.55	-6.56819E-004	-2.24082E-003	5.54766E-004	...........
	6	1.80833	-1.17924E-003	-2.74645E-003	5.53032E-004	...........
	7	2.06667	-1.69927E-003	-3.18016E-003	5.55866E-004	...........
	8	2.325	-2.19968E-003	-3.56880E-003	5.57532E-004	...........
	9	2.58333	-2.67322E-003	-3.97490E-003	5.52366E-004	...........
	10	2.84167	-3.11655E-003	-4.31751E-003	5.57233E-004	...........
	11	3.1	-3.53026E-003	-4.65654E-003	5.58799E-004	...........
	12	3.35833	-3.91797E-003	-5.04843E-003	5.60032E-004	...........
	13	3.61667	-4.28555E-003	-5.29126E-003	5.59232E-004	...........
	14	3.875	-4.63575E-003	-5.58956E-003	5.55166E-004	...........
	15	4.13333	-4.96576E-003	-5.89873E-003	5.53399E-004	...........
	16	4.39167	-5.27722E-003	-6.22665E-003	5.57266E-004	...........
	17	4.65	-5.57944E-003	-6.46305E-003	5.51899E-004	...........
	18	4.90833	-5.87719E-003	-6.73039E-003	5.54033E-004	...........
EOC	QUANT	-0.0058772	Open Circuit (V)
PSTATMODEL	IQUANT	4	Pstat Model
PSTATSECTION	LABEL	REF600-11020	Pstat Section
PSTATSERIALNO	LABEL	11020	Pstat Serial Number
CTRLMODE	IQUANT	1	Control Mode
IESTAB	IQUANT	0	I/E Stability
CASPEED	IQUANT	1	Control Amp Speed
CONVENTION	IQUANT	1	Current Convention
ICHRANGE	IQUANT	2	Ich Range
ICHRANGEMODE	TOGGLE	F	Ich Auto Range
ICHOFFSETENABLE	TOGGLE	T	Ich Offset Enable
ICHOFFSET	QUANT	0	Ich Offset (V)
ICHFILTER	IQUANT	3	Ich Filter
VCHRANGE	IQUANT	2	Vch Range
VCHRANGEMODE	TOGGLE	F	Vch Auto Range
VCHOFFSETENABLE	TOGGLE	T	Vch Offset Enable
VCHOFFSET	QUANT	0	Vch Offset (V)
VCHFILTER	IQUANT	3	Vch Filter
ACHRANGE	IQUANT	2	Ach Range
ACHOFFSETENABLE	TOGGLE	F	Ach Offset Enable
ACHOFFSET	QUANT	0	Ach Offset (V)
ACHFILTER	IQUANT	3	Ach Filter
IERANGELOWERLIMIT	IQUANT	1	I/E Range Lower Limit
IERANGEMODE	TOGGLE	F	I/E AutoRange
IERANGE	IQUANT	5	I/E Range
POSFEEDENABLE	TOGGLE	F	Positive Feedback IR Comp
POSFEEDRESISTANCE	QUANT	0	Positive Feedback Resistance (ohm)
ACHSELECT	IQUANT	0	Ach Select
CABLEID	IQUANT	14	Cable ID
DCCALDATE	LABEL	8/19/2019	DC Calibration Date
ACCALDATE	LABEL	8/19/2019	AC Calibration Date
THERMOSELECT	IQUANT	1	Thermo Select
FRAMEWORKVERSION	QUANT	6.33	Framework Version
INSTRUMENTVERSION	LABEL	3.50	Instrument Version
ZCURVE	TABLE
	Pt	Time	Freq	Zreal	Zimag	Zsig	Zmod	Zphz	Idc	Vdc	IERange
	#	s	Hz	ohm	ohm	V	ohm	°	A	V	#
	0	2	1000078	2189.544	-1498.864	1	2653.431	-34.3938	5.351413E-007	-0.0033002	8
	1	2	794390.6	2511.73	-1443.117	1	2896.787	-29.87957	8.362756E-006	-0.0050712	8
	2	2	630984.4	2774.397	-1311.183	1	3068.628	-25.29548	4.785349E-007	-0.0048417	8
	3	3	501234.4	2983.424	-1175.679	1	3206.718	-21.50793	-4.950845E-007	-0.0038909	8
	4	3	398109.4	3167.018	-1045.234	1	3335.043	-18.26481	5.969558E-006	-0.0055359	8
	5	3	316265.6	3287.12	-904.282	1	3409.235	-15.3815	-1.877722E-006	-0.0046705	8
	6	4	251203.1	3392.724	-783.265	1	3481.965	-12.99989	8.117802E-007	-0.0041183	8
	7	4	199546.9	3472.302	-682.7678	1	3538.792	-11.1243	6.452427E-006	-0.0051662	8
	8	4	158578.1	3516.799	-589.3922	1	3565.846	-9.51397	1.628733E-006	-0.0041947	8
	9	4	125953.1	3587.46	-487.0761	1	3620.375	-7.731875	-1.455601E-006	-0.0007533	7
	10	5	100078.1	3632.859	-440.6535	1	3659.487	-6.915997	-2.81536E-007	-0.0032117	7
	11	5	79453.13	3665.191	-409.612	1	3688.009	-6.376764	-8.573598E-007	-0.0029228	7
	12	5	63140.62	3695.153	-391.5975	1	3715.845	-6.049397	-5.902359E-007	-0.0029975	7
	13	6	50203.12	3729.827	-386.9241	1	3749.842	-5.922555	-1.15854E-006	-0.0031533	7
	14	6	39890.62	3757.941	-388.3492	1	3777.954	-5.900056	-1.146851E-006	-0.0034923	7
	15	6	31640.63	3795.802	-401.7138	1	3816.999	-6.041187	9.517852E-007	-0.0051738	7
	16	7	25171.88	3827.172	-426.241	1	3850.834	-6.354975	-2.835957E-007	-0.0053256	7
	17	7	20015.62	3863.938	-459.8925	1	3891.211	-6.78751	1.037442E-006	-0.0055674	7
	18	7	15890.62	3901.551	-499.4441	1	3933.388	-7.294856	-5.878684E-007	-0.0030047	7
	19	8	12609.37	3939.826	-556.4617	1	3978.929	-8.039289	1.14893E-007	-0.0058172	7
	20	8	10078.13	3978.803	-622.3438	1	4027.181	-8.889878	6.007771E-008	-0.0036039	7
	21	8	8015.625	4030.282	-717.9551	1	4093.731	-10.10072	7.374685E-007	-0.0061875	7
	22	9	6328.125	4075.694	-824.9267	1	4158.34	-11.44218	-1.161886E-006	-0.0031514	7
	23	9	5015.625	4127.36	-961.764	1	4237.935	-13.11709	-9.805437E-007	-0.0040429	7
	24	9	3984.375	4189.106	-1129.013	1	4338.58	-15.08349	9.54623E-007	-0.0051704	7
	25	10	3170.956	4252.994	-1339.114	1	4458.832	-17.47733	-8.452801E-007	-0.0029329	7
	26	10	2527.573	4323.148	-1586.013	1	4604.894	-20.14634	-1.156119E-006	-0.0031487	7
	27	10	1976.103	4411.245	-1940.507	1	4819.196	-23.7447	5.637979E-007	-0.0043075	7
	28	11	1577.524	4527.779	-2309.228	1	5082.648	-27.02219	-1.032948E-006	-0.0029927	7
	29	11	1265.625	4619.724	-2781.799	1	5392.611	-31.05454	9.331404E-007	-0.0061103	7
	30	11	998.264	4759.523	-3398.631	1	5848.397	-35.52948	7.443315E-007	-0.0061924	7
	31	11	796.875	4894.796	-4111.99	1	6392.769	-40.03273	7.485668E-007	-0.0061973	7
	32	12	627.7902	5100.209	-5038.157	1	7169.042	-44.64932	-1.15943E-006	-0.003149	7
	33	12	505.5147	5298.545	-6072.767	1	8059.347	-48.895	-6.916982E-007	-0.0046829	7
	34	13	397.9953	5573.59	-7483.792	1	9331.241	-53.32293	1.22055E-009	-0.0044876	7
	35	13	315.5048	5912.791	-9174.751	1	10915	-57.1997	9.758705E-011	-0.0045473	6
	36	13	252.4038	6313.75	-11168.02	1	12829.19	-60.51871	8.311391E-011	-0.0045488	6
	37	14	198.6229	6863.353	-13803.06	1	15415.25	-63.56187	8.340287E-010	-0.0045568	6
	38	14	158.3615	7541.033	-16858.02	1	18467.81	-65.89979	-1.003803E-009	-0.0045531	6
	39	14	125.558	8439.078	-20697.97	1	22352.27	-67.81805	-2.903908E-009	-0.0045538	6
	40	14	100.4464	9552.89	-25149.18	1	26902.39	-69.20078	1.304936E-009	-0.0045521	6
	41	15	79.00281	11211.5	-30976.68	1	32943.17	-70.10311	1.632838E-009	-0.004561	6
	42	15	63.3446	13106.32	-38084.48	1	40276.58	-71.00971	1.616222E-009	-0.0045594	6
	43	16	49.86702	15858.09	-46453.5	1	49085.7	-71.15134	9.763732E-010	-0.0045623	6
	44	16	39.72458	19493.74	-55833.85	1	59139.03	-70.75394	1.118579E-009	-0.0045493	6
	45	16	31.6723	24053.09	-66980.28	1	71168.18	-70.24643	1.424146E-009	-0.0045529	6
	46	17	24.93351	30136.35	-81358.87	1	86760.96	-69.67474	1.386054E-010	-0.0045536	6
	47	17	19.86229	37659.37	-97457.2	1	104480.3	-68.87248	-8.234078E-010	-0.0045642	6
	48	17	15.83615	46768.45	-113491.5	1	122750.2	-67.60405	-5.48438E-010	-0.0045484	5
	49	17	12.40079	60354.7	-136653.9	1	149388.7	-66.17083	1.205739E-009	-0.0045578	5
	50	18	9.93114	75596.22	-160519.3	1	177429.5	-64.78201	7.290674E-010	-0.0045543	5
	51	18	7.944915	92653.36	-186174	1	207955.3	-63.54181	-1.073626E-010	-0.0045444	5
	52	19	6.317385	114304.3	-214184.4	1	242776.5	-61.9124	2.847259E-010	-0.0045411	5
	53	20	5.008013	139650.9	-246608.9	1	283404.8	-60.47777	6.333998E-010	-0.0045446	5
	54	21	3.945707	169300.7	-283967.9	1	330606.3	-59.19675	3.063672E-010	-0.0045601	5
	55	22	3.158693	201228.5	-322551.5	1	380174.2	-58.04141	6.061732E-010	-0.0045739	5
	56	24	2.504006	237650	-367797.9	1	437896	-57.13176	5.886752E-010	-0.0045613	5
	57	25	1.998082	277693.2	-416889.1	1	500909.2	-56.3321	3.16403E-010	-0.0046088	5
	58	27	1.584686	321122	-475103.2	1	573447.8	-55.94526	3.24103E-010	-0.0045926	5
	59	29	1.266892	367809.7	-538082.1	1	651779.3	-55.64517	3.876837E-010	-0.0045546	5
	60	31	0.999041	422774.6	-617020.3	1	747965.4	-55.58155	4.080291E-010	-0.0045287	5
