EXPLAIN
TAG	EISPOT
TITLE	LABEL	Potentiostatic EIS	Test &Identifier
DATE	LABEL	9/20/2019	Date
TIME	LABEL	12:16:55	Time
NOTES	NOTES	1	&Notes...
	
PSTAT	PSTAT	REF600-11020	Potentiostat
VDC	POTEN	0.00000E+000	T	DC &Voltage (V)
FREQINIT	QUANT	1.00000E+006	Initial Fre&q. (Hz)
FREQFINAL	QUANT	1.00000E+000	Final Fre&q. (Hz)
PTSPERDEC	QUANT	1.00000E+001	Points/&decade
VAC	QUANT	2.50000E+001	AC &Voltage (mV rms)
AREA	QUANT	1.00000E-002	&Area (cm^2)
CONDIT	TWOPARAM	T	5.00000E+000	0.00000E+000	Conditionin&g	Time(s)	E(V)
DELAY	TWOPARAM	T	5.00000E+000	0.00000E+000	Init. De&lay	Time(s)	Stab.(mV/s)
SPEED	SELECTOR	1	&Optimize for:
ZGUESS	QUANT	1.00000E+004	E&stimated Z (ohms)
OCVCURVE	TABLE	19
	Pt	T	Vf	Vm	Ach	Over
	#	s	V vs. Ref.	V	V	bits
	0	0.258333	3.43623E-003	3.43623E-003	5.76199E-004	...........
	1	0.516667	3.43221E-003	3.22592E-003	5.74565E-004	...........
	2	0.775	3.40794E-003	3.04747E-003	5.75199E-004	...........
	3	1.03333	3.34092E-003	2.89256E-003	5.73732E-004	...........
	4	1.29167	3.22452E-003	2.72196E-003	5.75932E-004	...........
	5	1.55	3.07363E-003	2.55341E-003	5.74399E-004	...........
	6	1.80833	2.90928E-003	2.47803E-003	5.70666E-004	...........
	7	2.06667	2.74984E-003	2.38258E-003	5.68999E-004	...........
	8	2.325	2.60905E-003	2.28951E-003	5.71199E-004	...........
	9	2.58333	2.49141E-003	2.23269E-003	5.76266E-004	...........
	10	2.84167	2.39347E-003	2.16708E-003	5.69332E-004	...........
	11	3.1	2.30795E-003	1.97370E-003	5.75899E-004	...........
	12	3.35833	2.22234E-003	1.89853E-003	5.67232E-004	...........
	13	3.61667	2.12604E-003	1.82960E-003	5.71866E-004	...........
	14	3.875	2.02290E-003	1.76035E-003	5.74999E-004	...........
	15	4.13333	1.92552E-003	1.68771E-003	5.74799E-004	...........
	16	4.39167	1.84012E-003	1.62042E-003	5.76566E-004	...........
	17	4.65	1.76436E-003	1.55131E-003	5.78699E-004	...........
	18	4.90833	1.69418E-003	1.51116E-003	5.71132E-004	...........
EOC	QUANT	0.0016942	Open Circuit (V)
PSTATMODEL	IQUANT	4	Pstat Model
PSTATSECTION	LABEL	REF600-11020	Pstat Section
PSTATSERIALNO	LABEL	11020	Pstat Serial Number
CTRLMODE	IQUANT	1	Control Mode
IESTAB	IQUANT	0	I/E Stability
CASPEED	IQUANT	1	Control Amp Speed
CONVENTION	IQUANT	1	Current Convention
ICHRANGE	IQUANT	2	Ich Range
ICHRANGEMODE	TOGGLE	F	Ich Auto Range
ICHOFFSETENABLE	TOGGLE	T	Ich Offset Enable
ICHOFFSET	QUANT	0	Ich Offset (V)
ICHFILTER	IQUANT	3	Ich Filter
VCHRANGE	IQUANT	2	Vch Range
VCHRANGEMODE	TOGGLE	F	Vch Auto Range
VCHOFFSETENABLE	TOGGLE	T	Vch Offset Enable
VCHOFFSET	QUANT	0	Vch Offset (V)
VCHFILTER	IQUANT	3	Vch Filter
ACHRANGE	IQUANT	2	Ach Range
ACHOFFSETENABLE	TOGGLE	F	Ach Offset Enable
ACHOFFSET	QUANT	0	Ach Offset (V)
ACHFILTER	IQUANT	3	Ach Filter
IERANGELOWERLIMIT	IQUANT	1	I/E Range Lower Limit
IERANGEMODE	TOGGLE	F	I/E AutoRange
IERANGE	IQUANT	5	I/E Range
POSFEEDENABLE	TOGGLE	F	Positive Feedback IR Comp
POSFEEDRESISTANCE	QUANT	0	Positive Feedback Resistance (ohm)
ACHSELECT	IQUANT	0	Ach Select
CABLEID	IQUANT	14	Cable ID
DCCALDATE	LABEL	8/19/2019	DC Calibration Date
ACCALDATE	LABEL	8/19/2019	AC Calibration Date
THERMOSELECT	IQUANT	1	Thermo Select
FRAMEWORKVERSION	QUANT	6.33	Framework Version
INSTRUMENTVERSION	LABEL	3.50	Instrument Version
ZCURVE	TABLE
	Pt	Time	Freq	Zreal	Zimag	Zsig	Zmod	Zphz	Idc	Vdc	IERange
	#	s	Hz	ohm	ohm	V	ohm	°	A	V	#
	0	1	1000078	2268.623	-1750.456	1	2865.439	-37.65356	-4.362013E-006	0.0047641	8
	1	3	794390.6	2638.341	-1713.787	1	3146.094	-33.00654	3.875326E-006	0.0033098	8
	2	4	630984.4	2949.259	-1617.76	1	3363.819	-28.74614	4.50976E-006	0.0026173	8
	3	6	501234.4	3236.113	-1470.295	1	3554.461	-24.43419	7.951868E-008	0.0036202	8
	4	7	398109.4	3489.625	-1329.378	1	3734.264	-20.85441	3.677357E-006	0.0027883	8
	5	8	316265.6	3675.324	-1167.201	1	3856.211	-17.61869	4.464983E-006	0.0025276	8
	6	10	251203.1	3815.155	-1014.289	1	3947.682	-14.88814	-3.544062E-007	0.0033386	8
	7	11	199546.9	3929.169	-868.4746	1	4024.005	-12.46384	3.455294E-006	0.0027664	8
	8	13	158578.1	4015.167	-745.7484	1	4083.835	-10.52181	-3.163022E-006	0.0040651	8
	9	14	125953.1	4108.397	-604.0798	1	4152.57	-8.364572	6.026573E-007	0.0022732	7
	10	15	100078.1	4152.699	-531.8074	1	4186.613	-7.297752	-4.389896E-008	0.0034479	7
	11	17	79453.13	4193.653	-480.3427	1	4221.073	-6.534206	7.031661E-008	0.0032309	7
	12	18	63140.62	4230.407	-439.3108	1	4253.156	-5.928686	8.459197E-008	0.0033042	7
	13	19	50203.12	4263.028	-412.3125	1	4282.921	-5.524363	8.338714E-008	0.0031739	7
	14	21	39890.62	4295.188	-395.7483	1	4313.382	-5.264232	-1.938939E-008	0.003402	7
	15	22	31640.63	4325.251	-393.7148	1	4343.134	-5.201131	-2.034732E-008	0.0034041	7
	16	23	25171.88	4355.741	-398.918	1	4373.97	-5.232803	-4.102356E-008	0.0033878	7
	17	25	20015.62	4385.661	-416.8031	1	4405.423	-5.428952	7.178243E-008	0.0032197	7
	18	26	15890.62	4417.665	-444.5122	1	4439.973	-5.74585	1.33651E-008	0.0032649	7
	19	27	12609.37	4451.445	-486.0704	1	4477.904	-6.231658	-4.269256E-008	0.0034303	7
	20	29	10078.13	4484.288	-539.5629	1	4516.632	-6.861016	7.160897E-008	0.0032174	7
	21	30	8015.625	4522.082	-612.2188	1	4563.336	-7.710071	1.344097E-007	0.003147	7
	22	32	6328.125	4563.834	-704.4454	1	4617.881	-8.774577	-3.028616E-008	0.003344	7
	23	33	5015.625	4609.479	-821.0257	1	4682.027	-10.09943	-3.100189E-008	0.0033434	7
	24	34	3984.375	4658.989	-964.048	1	4757.685	-11.69078	-5.034985E-008	0.0035022	7
	25	36	3170.956	4716.295	-1137.549	1	4851.542	-13.56048	-3.604633E-008	0.0033512	7
	26	37	2527.573	4779.448	-1351.341	1	4966.815	-15.78772	-6.601693E-009	0.0034548	7
	27	38	1976.103	4859.765	-1635.253	1	5127.511	-18.59747	1.61514E-008	0.0032647	7
	28	40	1577.524	4947.151	-1954.465	1	5319.233	-21.55743	-4.116735E-008	0.0034199	7
	29	41	1265.625	5044.155	-2324.45	1	5553.968	-24.74122	-4.106577E-008	0.0033787	7
	30	42	998.264	5158.391	-2832.553	1	5884.926	-28.77188	-3.268233E-008	0.0033369	7
	31	44	796.875	5286.202	-3412.299	1	6291.876	-32.84267	-3.428204E-008	0.0033506	7
	32	45	627.7902	5440.102	-4172.62	1	6856.053	-37.48862	-4.104094E-008	0.0033878	7
	33	47	505.5147	5601.004	-5017.63	1	7519.831	-41.8554	8.395298E-008	0.0031628	7
	34	48	397.9953	5816.076	-6175.521	1	8483.147	-46.71692	6.27363E-009	0.0033591	7
	35	49	315.5048	6066.798	-7566.82	1	9698.6	-51.27864	5.966214E-009	0.0033565	7
	36	51	252.4038	6363.508	-9214.45	1	11198.23	-55.371	6.587614E-010	0.0032922	6
	37	52	198.6229	6759.597	-11401.84	1	13254.96	-59.33835	1.094587E-009	0.003291	6
	38	53	158.3615	7235.864	-13954.33	1	15718.81	-62.5915	9.114034E-010	0.0032893	6
	39	55	125.558	7864.741	-17175.88	1	18890.88	-65.39722	1.071956E-009	0.003295	6
	40	56	100.4464	8653.233	-20977.41	1	22692.07	-67.58373	1.400061E-009	0.0032933	6
	41	57	79.00281	9709.46	-25944.52	1	27701.83	-69.48218	1.496358E-009	0.0032888	6
	42	59	63.3446	10884.98	-31469.57	1	33298.9	-70.92006	7.67367E-010	0.0032838	6
	43	60	49.86702	13109.93	-38988.35	1	41133.46	-71.41465	7.22825E-010	0.003281	6
	44	62	39.72458	15344.26	-47543.75	1	49958.53	-72.11304	8.955035E-010	0.0032935	6
	45	63	31.6723	18328.89	-57766.5	1	60604.59	-72.39615	8.312123E-010	0.0032888	6
	46	64	24.93351	22700.42	-70756.96	1	74309.2	-72.21259	1.293254E-009	0.0032821	6
	47	66	19.86229	27989.91	-85494.61	1	89959.79	-71.87218	1.422191E-009	0.0032902	6
	48	67	15.83615	34325	-102820.1	1	108398.3	-71.53916	1.512386E-010	0.0032924	5
	49	69	12.40079	44670.85	-125454.9	1	133170.6	-70.40066	1.407986E-009	0.0032937	5
	50	70	9.93114	55386.02	-148975.9	1	158938.5	-69.60596	4.715965E-010	0.0032904	5
	51	72	7.944915	69559.25	-176624	1	189827.6	-68.50415	5.296457E-010	0.0032861	5
	52	73	6.317385	87937.37	-208882.8	1	226638.5	-67.16944	8.788877E-010	0.0032895	5
	53	75	5.008013	111119.5	-246674	1	270546.9	-65.74982	5.499353E-010	0.0033008	5
	54	78	3.945707	140668	-290845.7	1	323077	-64.18919	9.727111E-012	0.0032855	5
	55	80	3.158693	174199.8	-336003.7	1	378475.9	-62.5957	4.572946E-010	0.0033116	5
	56	84	2.504006	216511.1	-388917.6	1	445122.4	-60.89524	-1.479881E-010	0.0032878	5
	57	87	1.998082	264348.6	-443523.8	1	516327	-59.20426	-5.826585E-011	0.0032767	5
	58	90	1.584686	321897.8	-502498.8	1	596760.7	-57.35661	1.616492E-010	0.0033426	5
	59	93	1.266892	381876.4	-566256.9	1	682990.8	-56.00478	-1.058423E-010	0.0032872	5
	60	98	0.999041	452759.8	-637872.8	1	782223.1	-54.63301	4.481806E-010	0.0033126	5
