EXPLAIN
TAG	EISPOT
TITLE	LABEL	Potentiostatic EIS	Test &Identifier
DATE	LABEL	9/22/2019	Date
TIME	LABEL	9:24:06	Time
NOTES	NOTES	1	&Notes...
	
PSTAT	PSTAT	REF600-11020	Potentiostat
VDC	POTEN	0.00000E+000	T	DC &Voltage (V)
FREQINIT	QUANT	1.00000E+006	Initial Fre&q. (Hz)
FREQFINAL	QUANT	1.00000E+000	Final Fre&q. (Hz)
PTSPERDEC	QUANT	1.00000E+001	Points/&decade
VAC	QUANT	2.50000E+001	AC &Voltage (mV rms)
AREA	QUANT	1.00000E-002	&Area (cm^2)
CONDIT	TWOPARAM	T	5.00000E+000	0.00000E+000	Conditionin&g	Time(s)	E(V)
DELAY	TWOPARAM	T	5.00000E+000	0.00000E+000	Init. De&lay	Time(s)	Stab.(mV/s)
SPEED	SELECTOR	1	&Optimize for:
ZGUESS	QUANT	1.00000E+004	E&stimated Z (ohms)
OCVCURVE	TABLE	19
	Pt	T	Vf	Vm	Ach	Over
	#	s	V vs. Ref.	V	V	bits
	0	0.258333	-6.67156E-003	-6.67156E-003	5.70099E-004	...........
	1	0.516667	-6.68569E-003	-7.41126E-003	5.69866E-004	...........
	2	0.775	-6.77212E-003	-8.09474E-003	5.72132E-004	...........
	3	1.03333	-7.01536E-003	-8.74256E-003	5.70632E-004	...........
	4	1.29167	-7.44778E-003	-9.36826E-003	5.72566E-004	...........
	5	1.55	-8.01918E-003	-9.95675E-003	5.68099E-004	...........
	6	1.80833	-8.64922E-003	-1.05199E-002	5.70599E-004	...........
	7	2.06667	-9.27945E-003	-1.10581E-002	5.74066E-004	...........
	8	2.325	-9.88349E-003	-1.15713E-002	5.72532E-004	...........
	9	2.58333	-1.04560E-002	-1.20769E-002	5.66932E-004	...........
	10	2.84167	-1.10006E-002	-1.25680E-002	5.69532E-004	...........
	11	3.1	-1.15230E-002	-1.30362E-002	5.68299E-004	...........
	12	3.35833	-1.20276E-002	-1.34927E-002	5.71632E-004	...........
	13	3.61667	-1.25162E-002	-1.39361E-002	5.70399E-004	...........
	14	3.875	-1.29891E-002	-1.43641E-002	5.69332E-004	...........
	15	4.13333	-1.34474E-002	-1.47880E-002	5.69032E-004	...........
	16	4.39167	-1.38924E-002	-1.52077E-002	5.73332E-004	...........
	17	4.65	-1.43258E-002	-1.55903E-002	5.68799E-004	...........
	18	4.90833	-1.47481E-002	-1.59833E-002	5.70532E-004	...........
EOC	QUANT	-0.0147481	Open Circuit (V)
PSTATMODEL	IQUANT	4	Pstat Model
PSTATSECTION	LABEL	REF600-11020	Pstat Section
PSTATSERIALNO	LABEL	11020	Pstat Serial Number
CTRLMODE	IQUANT	1	Control Mode
IESTAB	IQUANT	0	I/E Stability
CASPEED	IQUANT	1	Control Amp Speed
CONVENTION	IQUANT	1	Current Convention
ICHRANGE	IQUANT	2	Ich Range
ICHRANGEMODE	TOGGLE	F	Ich Auto Range
ICHOFFSETENABLE	TOGGLE	T	Ich Offset Enable
ICHOFFSET	QUANT	0	Ich Offset (V)
ICHFILTER	IQUANT	3	Ich Filter
VCHRANGE	IQUANT	2	Vch Range
VCHRANGEMODE	TOGGLE	F	Vch Auto Range
VCHOFFSETENABLE	TOGGLE	T	Vch Offset Enable
VCHOFFSET	QUANT	0	Vch Offset (V)
VCHFILTER	IQUANT	3	Vch Filter
ACHRANGE	IQUANT	2	Ach Range
ACHOFFSETENABLE	TOGGLE	F	Ach Offset Enable
ACHOFFSET	QUANT	0	Ach Offset (V)
ACHFILTER	IQUANT	3	Ach Filter
IERANGELOWERLIMIT	IQUANT	1	I/E Range Lower Limit
IERANGEMODE	TOGGLE	F	I/E AutoRange
IERANGE	IQUANT	6	I/E Range
POSFEEDENABLE	TOGGLE	F	Positive Feedback IR Comp
POSFEEDRESISTANCE	QUANT	0	Positive Feedback Resistance (ohm)
ACHSELECT	IQUANT	0	Ach Select
CABLEID	IQUANT	14	Cable ID
DCCALDATE	LABEL	8/19/2019	DC Calibration Date
ACCALDATE	LABEL	8/19/2019	AC Calibration Date
THERMOSELECT	IQUANT	1	Thermo Select
FRAMEWORKVERSION	QUANT	6.33	Framework Version
INSTRUMENTVERSION	LABEL	3.50	Instrument Version
ZCURVE	TABLE
	Pt	Time	Freq	Zreal	Zimag	Zsig	Zmod	Zphz	Idc	Vdc	IERange
	#	s	Hz	ohm	ohm	V	ohm	°	A	V	#
	0	2	1000078	2446.514	-1105.418	1	2684.656	-24.31506	-1.764446E-006	-0.011947	8
	1	4	794390.6	2621.919	-973.109	1	2796.676	-20.3621	4.659958E-006	-0.0136392	8
	2	5	630984.4	2765.397	-849.8594	1	2893.04	-17.0832	5.860132E-007	-0.0133157	8
	3	6	501234.4	2871.475	-723.4606	1	2961.21	-14.14121	-2.509461E-006	-0.0126149	8
	4	8	398109.4	2950.36	-625.4097	1	3015.918	-11.96825	1.149707E-007	-0.0132345	8
	5	9	316265.6	3009.122	-539.3116	1	3057.07	-10.16099	3.521033E-006	-0.0138107	8
	6	10	251203.1	3068.276	-464.1895	1	3103.19	-8.602855	-3.483858E-007	-0.0130528	8
	7	12	199546.9	3086.53	-401.4457	1	3112.527	-7.410506	-2.098104E-007	-0.0130617	8
	8	13	158578.1	3138.556	-336.5909	1	3156.553	-6.121225	-6.399881E-007	-0.0129505	8
	9	14	125953.1	3167.814	-261.831	1	3178.616	-4.724959	6.996496E-007	-0.0141077	7
	10	16	100078.1	3183.897	-232.5251	1	3192.376	-4.176987	-3.113317E-008	-0.0132123	7
	11	17	79453.13	3201.163	-217.986	1	3208.576	-3.895592	-1.66515E-008	-0.013259	7
	12	18	63140.62	3218.214	-209.5	1	3225.026	-3.724598	7.160426E-008	-0.0133613	7
	13	20	50203.12	3235.277	-203.8749	1	3241.694	-3.605795	-3.127694E-008	-0.0132197	7
	14	21	39890.62	3251.239	-203.1119	1	3257.577	-3.574745	8.220732E-008	-0.0133946	7
	15	22	31640.63	3267.508	-206.9505	1	3274.055	-3.624038	-4.917104E-009	-0.013284	7
	16	24	25171.88	3283.17	-216.4813	1	3290.299	-3.772432	8.218386E-008	-0.0134021	7
	17	25	20015.62	3299.556	-231.8647	1	3307.693	-4.019652	-3.558999E-008	-0.0132219	7
	18	26	15890.62	3315.858	-254.0372	1	3325.575	-4.381033	-1.041314E-008	-0.0131847	7
	19	28	12609.37	3333.632	-284.7028	1	3345.768	-4.881397	-3.691053E-008	-0.0132265	7
	20	29	10078.13	3351.809	-323.6004	1	3367.394	-5.514529	-7.217002E-008	-0.0131231	7
	21	30	8015.625	3372.417	-373.1164	1	3392.995	-6.313394	-5.789041E-009	-0.0132849	7
	22	32	6328.125	3395.834	-438.53	1	3424.033	-7.358318	-7.723688E-009	-0.0132037	7
	23	33	5015.625	3422.672	-517.2522	1	3461.536	-8.593809	-1.162112E-008	-0.0131898	7
	24	35	3984.375	3453.267	-615.4734	1	3507.686	-10.10567	-3.771846E-008	-0.0132211	7
	25	36	3170.956	3487.755	-734.0008	1	3564.154	-11.88451	-7.320299E-008	-0.0131241	7
	26	37	2527.573	3528.339	-875.6967	1	3635.384	-13.93857	8.075242E-008	-0.0134125	7
	27	39	1976.103	3579.692	-1066.47	1	3735.178	-16.58997	1.545911E-008	-0.0133098	7
	28	40	1577.524	3632.687	-1277.533	1	3850.779	-19.37561	8.209479E-008	-0.0134034	7
	29	41	1265.625	3695.538	-1530.6	1	3999.967	-22.49813	-1.563573E-008	-0.0132661	7
	30	43	998.264	3767.006	-1864.923	1	4203.364	-26.33852	-1.132351E-008	-0.0131868	7
	31	44	796.875	3850.165	-2254.588	1	4461.719	-30.35248	4.910589E-008	-0.0133884	7
	32	45	627.7902	3949.861	-2763.858	1	4820.821	-34.98185	1.348353E-007	-0.0134384	7
	33	47	505.5147	4058.887	-3330.004	1	5250.094	-39.36624	3.253957E-008	-0.0132797	7
	34	48	397.9953	4200.841	-4101.311	1	5870.93	-44.31314	5.736356E-009	-0.0132177	7
	35	50	315.5048	4368.71	-5028.682	1	6661.327	-49.01724	6.939305E-009	-0.013216	7
	36	51	252.4038	4566.114	-6124.926	1	7639.641	-53.29559	7.234922E-009	-0.0132219	7
	37	52	198.6229	4831.042	-7578.695	1	8987.524	-57.48451	7.055976E-009	-0.0132213	7
	38	54	158.3615	5149.639	-9275.519	1	10609.15	-60.96157	2.809349E-009	-0.0132828	6
	39	55	125.558	5567.888	-11413.51	1	12699.2	-63.99536	3.045101E-009	-0.0132825	6
	40	56	100.4464	6087.874	-13926.24	1	15198.76	-66.38739	2.401555E-009	-0.0132804	6
	41	58	79.00281	6801.085	-17269.83	1	18560.76	-68.50483	2.419438E-009	-0.0132887	6
	42	59	63.3446	7571.5	-21007.73	1	22330.53	-70.18008	2.710455E-009	-0.0132834	6
	43	61	49.86702	8945.792	-25860.29	1	27363.88	-70.91808	1.879611E-009	-0.0132848	6
	44	62	39.72458	10496.24	-31626.55	1	33322.81	-71.64	3.521425E-009	-0.0132869	6
	45	63	31.6723	12487.36	-38459.09	1	40435.57	-72.0118	2.958714E-009	-0.0132861	6
	46	65	24.93351	15416.12	-47222.66	1	49675.31	-71.92042	3.22455E-009	-0.0132923	6
	47	66	19.86229	19073.2	-57254.68	1	60348.04	-71.57558	3.029373E-009	-0.013284	6
	48	67	15.83615	23735.52	-68568.79	1	72560.69	-70.90639	2.45619E-009	-0.0132904	6
	49	69	12.40079	30282.07	-83888.21	1	89186.52	-70.15137	3.008643E-009	-0.0132876	6
	50	70	9.93114	38582.77	-99663	1	106870.7	-68.83697	2.251147E-009	-0.0132855	5
	51	72	7.944915	48970.22	-117714.9	1	127494.6	-67.41235	3.334926E-009	-0.0132817	5
	52	73	6.317385	62182.18	-138662.1	1	151966.4	-65.84644	2.666662E-009	-0.013276	5
	53	76	5.008013	78756.2	-162505.2	1	180583.7	-64.1434	2.830263E-009	-0.0132764	5
	54	78	3.945707	99871.5	-189627.7	1	214319.8	-62.2255	1.656819E-009	-0.0132901	5
	55	81	3.158693	123643.9	-217202.1	1	249929.2	-60.34899	2.3763E-009	-0.0132816	5
	56	84	2.504006	152344.2	-247711.8	1	290809	-58.40824	2.037578E-009	-0.0132785	5
	57	87	1.998082	183440.3	-279204.9	1	334074.4	-56.69469	2.687231E-009	-0.013281	5
	58	90	1.584686	220738.4	-313231.4	1	383196.3	-54.82713	2.097954E-009	-0.0133269	5
	59	93	1.266892	258930.3	-349991.3	1	435360.6	-53.50525	2.387281E-009	-0.0132728	5
	60	98	0.999041	304934.2	-392255.4	1	496839.2	-52.13898	1.435568E-009	-0.01331	5
