EXPLAIN
TAG	EISPOT
TITLE	LABEL	Potentiostatic EIS	Test &Identifier
DATE	LABEL	10/14/2019	Date
TIME	LABEL	11:55:53	Time
NOTES	NOTES	1	&Notes...
	
PSTAT	PSTAT	REF600-11020	Potentiostat
VDC	POTEN	0.00000E+000	T	DC &Voltage (V)
FREQINIT	QUANT	1.00000E+006	Initial Fre&q. (Hz)
FREQFINAL	QUANT	1.00000E+000	Final Fre&q. (Hz)
PTSPERDEC	QUANT	1.00000E+001	Points/&decade
VAC	QUANT	2.50000E+001	AC &Voltage (mV rms)
AREA	QUANT	1.00000E-002	&Area (cm^2)
CONDIT	TWOPARAM	T	5.00000E+000	0.00000E+000	Conditionin&g	Time(s)	E(V)
DELAY	TWOPARAM	T	5.00000E+000	0.00000E+000	Init. De&lay	Time(s)	Stab.(mV/s)
SPEED	SELECTOR	1	&Optimize for:
ZGUESS	QUANT	1.00000E+004	E&stimated Z (ohms)
OCVCURVE	TABLE	19
	Pt	T	Vf	Vm	Ach	Over
	#	s	V vs. Ref.	V	V	bits
	0	0.258333	6.32411E-003	6.32411E-003	5.65574E-004	...........
	1	0.516667	6.32277E-003	6.25370E-003	5.65207E-004	...........
	2	0.775	6.31473E-003	6.19876E-003	5.67874E-004	...........
	3	1.03333	6.29291E-003	6.15398E-003	5.74074E-004	...........
	4	1.29167	6.25604E-003	6.11498E-003	5.67941E-004	...........
	5	1.55	6.21077E-003	6.08734E-003	5.72574E-004	...........
	6	1.80833	6.16560E-003	6.06006E-003	5.66374E-004	...........
	7	2.06667	6.12578E-003	6.03959E-003	5.63674E-004	...........
	8	2.325	6.09274E-003	6.02275E-003	5.64874E-004	...........
	9	2.58333	6.06588E-003	6.01215E-003	5.66474E-004	...........
	10	2.84167	6.04431E-003	5.99903E-003	5.63974E-004	...........
	11	3.1	6.02720E-003	5.99579E-003	5.63907E-004	...........
	12	3.35833	6.01376E-003	5.98518E-003	5.66541E-004	...........
	13	3.61667	6.00328E-003	5.98369E-003	5.70541E-004	...........
	14	3.875	5.99505E-003	5.97760E-003	5.67241E-004	...........
	15	4.13333	5.98851E-003	5.97449E-003	5.67441E-004	...........
	16	4.39167	5.98325E-003	5.97286E-003	5.69907E-004	...........
	17	4.65	5.97908E-003	5.97491E-003	5.64541E-004	...........
	18	4.90833	5.97619E-003	5.97499E-003	5.71441E-004	...........
EOC	QUANT	0.0059762	Open Circuit (V)
PSTATMODEL	IQUANT	4	Pstat Model
PSTATSECTION	LABEL	REF600-11020	Pstat Section
PSTATSERIALNO	LABEL	11020	Pstat Serial Number
CTRLMODE	IQUANT	1	Control Mode
IESTAB	IQUANT	0	I/E Stability
CASPEED	IQUANT	1	Control Amp Speed
CONVENTION	IQUANT	1	Current Convention
ICHRANGE	IQUANT	2	Ich Range
ICHRANGEMODE	TOGGLE	F	Ich Auto Range
ICHOFFSETENABLE	TOGGLE	T	Ich Offset Enable
ICHOFFSET	QUANT	0	Ich Offset (V)
ICHFILTER	IQUANT	3	Ich Filter
VCHRANGE	IQUANT	2	Vch Range
VCHRANGEMODE	TOGGLE	F	Vch Auto Range
VCHOFFSETENABLE	TOGGLE	T	Vch Offset Enable
VCHOFFSET	QUANT	0	Vch Offset (V)
VCHFILTER	IQUANT	3	Vch Filter
ACHRANGE	IQUANT	2	Ach Range
ACHOFFSETENABLE	TOGGLE	F	Ach Offset Enable
ACHOFFSET	QUANT	0	Ach Offset (V)
ACHFILTER	IQUANT	0	Ach Filter
IERANGELOWERLIMIT	IQUANT	1	I/E Range Lower Limit
IERANGEMODE	TOGGLE	F	I/E AutoRange
IERANGE	IQUANT	6	I/E Range
POSFEEDENABLE	TOGGLE	F	Positive Feedback IR Comp
POSFEEDRESISTANCE	QUANT	0	Positive Feedback Resistance (ohm)
ACHSELECT	IQUANT	0	Ach Select
CABLEID	IQUANT	14	Cable ID
DCCALDATE	LABEL	8/19/2019	DC Calibration Date
ACCALDATE	LABEL	8/19/2019	AC Calibration Date
THERMOSELECT	IQUANT	1	Thermo Select
FRAMEWORKVERSION	QUANT	6.33	Framework Version
INSTRUMENTVERSION	LABEL	3.50	Instrument Version
ZCURVE	TABLE
	Pt	Time	Freq	Zreal	Zimag	Zsig	Zmod	Zphz	Idc	Vdc	IERange
	#	s	Hz	ohm	ohm	V	ohm	°	A	V	#
	0	1	1000078	2414.159	-1596.379	1	2894.234	-33.47493	-2.524705E-006	0.0083844	8
	1	3	794390.6	2711.708	-1545.474	1	3121.194	-29.67997	1.643082E-006	0.0079625	8
	2	4	630984.4	2985.38	-1434.219	1	3312.02	-25.66029	-2.392379E-006	0.0081716	8
	3	5	501234.4	3220.62	-1296.998	1	3471.973	-21.93548	-4.014898E-006	0.0086822	8
	4	7	398109.4	3425.76	-1167.484	1	3619.234	-18.81888	4.459479E-008	0.0077633	8
	5	8	316265.6	3588.415	-1011.066	1	3728.133	-15.73563	1.182714E-006	0.0072039	8
	6	10	251203.1	3725.458	-904.5351	1	3833.695	-13.64724	2.758944E-006	0.0070225	8
	7	11	199546.9	3820.743	-778.3067	1	3899.21	-11.51394	-2.147467E-007	0.0076812	8
	8	12	158578.1	3881.322	-673.6789	1	3939.353	-9.8467	1.17663E-006	0.0073763	8
	9	14	125953.1	3959.216	-536.1413	1	3995.352	-7.711857	-3.233515E-007	0.0079495	7
	10	15	100078.1	4006.112	-480.0403	1	4034.77	-6.833001	7.594706E-008	0.0074018	7
	11	16	79453.13	4044.216	-434.3903	1	4067.478	-6.13065	-5.405657E-008	0.0077142	7
	12	18	63140.62	4079.724	-401.384	1	4099.422	-5.618967	-5.354871E-008	0.0077126	7
	13	19	50203.12	4111.874	-377.8257	1	4129.196	-5.249967	-4.843553E-008	0.0075796	7
	14	20	39890.62	4141.411	-364.2369	1	4157.397	-5.026229	7.806512E-009	0.0074899	7
	15	22	31640.63	4171.228	-361.1871	1	4186.836	-4.948904	-4.429745E-008	0.0075965	7
	16	23	25171.88	4200.878	-367.2918	1	4216.904	-4.996787	4.455371E-008	0.0074038	7
	17	24	20015.62	4237.762	-375.4611	1	4254.362	-5.063123	-2.569648E-008	0.0076125	7
	18	26	15890.62	4262.605	-406.6632	1	4281.96	-5.449667	1.194014E-007	0.0073698	7
	19	27	12609.37	4294.673	-442.2666	1	4317.385	-5.87961	-2.816089E-008	0.0075485	7
	20	28	10078.13	4329.03	-487.3352	1	4356.374	-6.422961	7.641274E-008	0.0073835	7
	21	30	8015.625	4358.609	-556.5554	1	4393.999	-7.276779	3.683235E-008	0.0074969	7
	22	31	6328.125	4400.503	-627.4277	1	4445.008	-8.11459	7.611895E-008	0.0074938	7
	23	32	5015.625	4438.5	-726.8462	1	4497.62	-9.300176	-6.078253E-008	0.0076291	7
	24	34	3984.375	4489.388	-853.7903	1	4569.854	-10.7679	-2.814213E-008	0.0076138	7
	25	35	3170.956	4522.42	-1003.924	1	4632.51	-12.51604	7.151747E-009	0.0074845	7
	26	36	2527.573	4569.239	-1193.716	1	4722.595	-14.64131	-3.474928E-008	0.0075513	7
	27	38	1976.103	4625.692	-1452.924	1	4848.507	-17.43743	-3.723553E-008	0.0076069	7
	28	39	1577.524	4677.216	-1753.41	1	4995.077	-20.55018	8.608183E-009	0.0074847	7
	29	41	1265.625	4754.101	-2106.462	1	5199.871	-23.89732	-5.074832E-008	0.0077012	7
	30	42	998.264	4841.956	-2582.047	1	5487.395	-28.06946	-6.177485E-008	0.0076378	7
	31	43	796.875	4944.26	-3144.377	1	5859.421	-32.45494	-5.240637E-008	0.0076982	7
	32	45	627.7902	5076.237	-3874.957	1	6386.194	-37.35639	3.74505E-008	0.007493	7
	33	46	505.5147	5220.34	-4690.791	1	7018.224	-41.94161	8.908057E-009	0.007477	7
	34	47	397.9953	5423.051	-5801.305	1	7941.324	-46.9301	4.787486E-009	0.0075451	7
	35	49	315.5048	5670.54	-7134.928	1	9113.848	-51.5238	4.459457E-009	0.0075443	7
	36	50	252.4038	5974.786	-8705.457	1	10558.55	-55.53716	4.589187E-010	0.0074829	6
	37	51	198.6229	6389.533	-10780.91	1	12532.12	-59.346	9.062709E-010	0.0074853	6
	38	53	158.3615	6895.359	-13190.32	1	14883.9	-62.40128	5.865942E-010	0.007476	6
	39	54	125.558	7571.092	-16210.84	1	17891.7	-64.9656	1.055636E-009	0.0074808	6
	40	55	100.4464	8403.965	-19738.14	1	21452.75	-66.937	9.819312E-010	0.0074843	6
	41	57	79.00281	9618.47	-24400.92	1	26228.22	-68.48639	1.824002E-010	0.0074823	6
	42	58	63.3446	11198.38	-29529.1	1	31581.19	-69.23167	1.607243E-010	0.0074787	6
	43	59	49.86702	13081.45	-36389.54	1	38669.4	-70.22732	5.087357E-010	0.0074813	6
	44	61	39.72458	15641.48	-43995.14	1	46692.91	-70.42831	7.163811E-010	0.007489	6
	45	62	31.6723	19038.46	-53190.85	1	56495.39	-70.30632	4.432172E-010	0.0074793	6
	46	64	24.93351	23541.14	-64616.8	1	68771.48	-69.98235	4.732639E-010	0.0074797	6
	47	65	19.86229	29140.93	-77443.05	1	82744.3	-69.37926	1.280424E-010	0.0074818	6
	48	66	15.83615	36389.44	-92088.93	1	99018	-68.43828	4.159302E-010	0.0074786	6
	49	68	12.40079	46119.8	-111254	1	120434.6	-67.4838	1.015681E-009	0.0074847	5
	50	69	9.93114	56980.48	-130764.9	1	142640.3	-66.45496	1.749054E-010	0.0074793	5
	51	71	7.944915	70995.74	-153370.8	1	169005.9	-65.16045	1.013632E-010	0.0074775	5
	52	72	6.317385	88540.34	-179101.2	1	199791.5	-63.69409	4.000313E-010	0.0074675	5
	53	74	5.008013	110299	-208454.8	1	235837.4	-62.11549	-1.988826E-011	0.007482	5
	54	77	3.945707	137045.1	-241414.9	1	277601.4	-60.41752	3.394985E-011	0.0074776	5
	55	80	3.158693	166147.5	-274589.7	1	320943.1	-58.8229	-8.478754E-011	0.0074688	5
	56	83	2.504006	200382	-312166.1	1	370945.6	-57.30325	4.413337E-010	0.0074898	5
	57	86	1.998082	237648	-351631.7	1	424407.2	-55.94746	4.229106E-010	0.007498	5
	58	89	1.584686	279364.5	-394370.4	1	483293.5	-54.68697	1.848902E-010	0.0074422	5
	59	92	1.266892	321830.1	-442672.7	1	547296.8	-53.98225	2.650792E-010	0.0075046	5
	60	97	0.999041	369943.8	-499903.1	1	621901.5	-53.49741	-1.751311E-010	0.0074468	5
