EXPLAIN
TAG	EISPOT
TITLE	LABEL	Potentiostatic EIS	Test &Identifier
DATE	LABEL	8/14/2018	Date
TIME	LABEL	5:42:42	Time
NOTES	NOTES	1	&Notes...
	
PSTAT	PSTAT	REF600-11020	Potentiostat
VDC	POTEN	0.00000E+000	T	DC &Voltage (V)
FREQINIT	QUANT	1.00000E+006	Initial Fre&q. (Hz)
FREQFINAL	QUANT	1.00000E+000	Final Fre&q. (Hz)
PTSPERDEC	QUANT	1.00000E+001	Points/&decade
VAC	QUANT	2.50000E+001	AC &Voltage (mV rms)
AREA	QUANT	1.00000E-002	&Area (cm^2)
CONDIT	TWOPARAM	T	5.00000E+000	0.00000E+000	Conditionin&g	Time(s)	E(V)
DELAY	TWOPARAM	T	5.00000E+000	0.00000E+000	Init. De&lay	Time(s)	Stab.(mV/s)
SPEED	SELECTOR	0	&Optimize for:
ZGUESS	QUANT	1.00000E+005	E&stimated Z (ohms)
OCVCURVE	TABLE	19
	Pt	T	Vf	Vm	Ach	Over
	#	s	V vs. Ref.	V	V	bits
	0	0.258333	3.67424E-002	3.67424E-002	5.60799E-004	...........
	1	0.516667	3.67888E-002	3.91724E-002	5.57666E-004	...........
	2	0.775	3.70734E-002	4.14491E-002	5.60499E-004	...........
	3	1.03333	3.78757E-002	4.35847E-002	5.58266E-004	...........
	4	1.29167	3.93031E-002	4.55997E-002	5.63632E-004	...........
	5	1.55	4.11859E-002	4.75003E-002	5.63332E-004	...........
	6	1.80833	4.32519E-002	4.93124E-002	5.65266E-004	...........
	7	2.06667	4.53044E-002	5.10227E-002	5.57166E-004	...........
	8	2.325	4.72579E-002	5.26586E-002	5.62532E-004	...........
	9	2.58333	4.90967E-002	5.42176E-002	5.64799E-004	...........
	10	2.84167	5.08318E-002	5.57073E-002	5.56099E-004	...........
	11	3.1	5.24781E-002	5.71377E-002	5.59199E-004	...........
	12	3.35833	5.40473E-002	5.85189E-002	5.62966E-004	...........
	13	3.61667	5.55480E-002	5.98238E-002	5.59032E-004	...........
	14	3.875	5.69861E-002	6.10989E-002	5.59932E-004	...........
	15	4.13333	5.83654E-002	6.23129E-002	5.67432E-004	...........
	16	4.39167	5.96893E-002	6.34766E-002	5.63032E-004	...........
	17	4.65	6.09607E-002	6.46049E-002	5.56599E-004	...........
	18	4.90833	6.21822E-002	6.56960E-002	5.58866E-004	...........
EOC	QUANT	0.0621822	Open Circuit (V)
PSTATMODEL	IQUANT	4	Pstat Model
PSTATSECTION	LABEL	REF600-11020	Pstat Section
PSTATSERIALNO	LABEL	11020	Pstat Serial Number
CTRLMODE	IQUANT	1	Control Mode
IESTAB	IQUANT	0	I/E Stability
CASPEED	IQUANT	1	Control Amp Speed
CONVENTION	IQUANT	1	Current Convention
ICHRANGE	IQUANT	2	Ich Range
ICHRANGEMODE	TOGGLE	F	Ich Auto Range
ICHOFFSETENABLE	TOGGLE	T	Ich Offset Enable
ICHOFFSET	QUANT	0	Ich Offset (V)
ICHFILTER	IQUANT	3	Ich Filter
VCHRANGE	IQUANT	2	Vch Range
VCHRANGEMODE	TOGGLE	F	Vch Auto Range
VCHOFFSETENABLE	TOGGLE	T	Vch Offset Enable
VCHOFFSET	QUANT	0	Vch Offset (V)
VCHFILTER	IQUANT	3	Vch Filter
ACHRANGE	IQUANT	2	Ach Range
ACHOFFSETENABLE	TOGGLE	F	Ach Offset Enable
ACHOFFSET	QUANT	0	Ach Offset (V)
ACHFILTER	IQUANT	3	Ach Filter
IERANGELOWERLIMIT	IQUANT	1	I/E Range Lower Limit
IERANGEMODE	TOGGLE	F	I/E AutoRange
IERANGE	IQUANT	6	I/E Range
POSFEEDENABLE	TOGGLE	F	Positive Feedback IR Comp
POSFEEDRESISTANCE	QUANT	0	Positive Feedback Resistance (ohm)
ACHSELECT	IQUANT	0	Ach Select
CABLEID	IQUANT	14	Cable ID
DCCALDATE	LABEL	8/19/2019	DC Calibration Date
ACCALDATE	LABEL	8/19/2019	AC Calibration Date
THERMOSELECT	IQUANT	1	Thermo Select
FRAMEWORKVERSION	QUANT	6.33	Framework Version
INSTRUMENTVERSION	LABEL	3.50	Instrument Version
ZCURVE	TABLE
	Pt	Time	Freq	Zreal	Zimag	Zsig	Zmod	Zphz	Idc	Vdc	IERange
	#	s	Hz	ohm	ohm	V	ohm	°	A	V	#
	0	1	1000078	2303.787	-1836.401	1	2946.151	-38.55915	5.837644E-006	0.0632404	8
	1	2	794390.6	2602.047	-1909.506	1	3227.517	-36.27299	-1.948365E-006	0.0641114	8
	2	2	630984.4	2945.249	-1933.379	1	3523.13	-33.28249	-8.433167E-007	0.0642556	8
	3	2	501234.4	3310.849	-1939.101	1	3836.904	-30.35668	-5.556549E-007	0.0641311	8
	4	3	398109.4	3660.845	-1880.55	1	4115.611	-27.18924	1.27232E-006	0.0635389	8
	5	3	316265.6	3993.142	-1783.789	1	4373.453	-24.07095	9.193666E-007	0.0635457	8
	6	3	251203.1	4299.57	-1695.593	1	4621.833	-21.52246	3.544339E-006	0.0631085	8
	7	4	199546.9	4547.396	-1541.943	1	4801.708	-18.73091	-1.329855E-006	0.0640281	8
	8	4	158578.1	4737.032	-1459.575	1	4956.796	-17.12512	9.599059E-007	0.0635397	8
	9	4	125953.1	5031.183	-1155.586	1	5162.188	-12.93561	-8.916577E-007	0.0648914	7
	10	5	100078.1	5182.732	-1046.941	1	5287.418	-11.42038	4.225807E-008	0.0637031	7
	11	5	79453.13	5305.66	-930.0523	1	5386.56	-9.94261	-7.094014E-008	0.0639738	7
	12	5	63140.62	5404.043	-833.171	1	5467.893	-8.764595	-1.551385E-008	0.0637337	7
	13	6	50203.12	5488.364	-754.0482	1	5539.921	-7.82291	7.417807E-008	0.0635876	7
	14	6	39890.62	5557.026	-694.6414	1	5600.273	-7.12515	-1.283223E-008	0.0637757	7
	15	6	31640.63	5617.12	-652.5164	1	5654.893	-6.626103	-3.64323E-008	0.0637468	7
	16	7	25171.88	5674.31	-630.091	1	5709.186	-6.336323	-5.153593E-008	0.0637964	7
	17	7	20015.62	5728.247	-631.1019	1	5762.907	-6.287129	6.705522E-008	0.0636384	7
	18	7	15890.62	5773.182	-639.4764	1	5808.491	-6.320699	-3.620417E-008	0.0638399	7
	19	7	12609.37	5834.946	-676.656	1	5874.05	-6.614822	4.305975E-008	0.0636874	7
	20	8	10078.13	5865.293	-737.2042	1	5911.441	-7.163896	-1.062725E-008	0.0637221	7
	21	8	8015.625	5927.367	-807.5109	1	5982.119	-7.757894	1.115662E-008	0.0637753	8
	22	9	6328.125	5979.453	-905.5255	1	6047.63	-8.611411	1.27656E-009	0.0637541	8
	23	9	5015.625	6049.908	-1033.675	1	6137.578	-9.69582	2.812357E-007	0.0637011	8
	24	10	3984.375	6123.035	-1198.088	1	6239.148	-11.07113	-1.284628E-008	0.0637705	7
	25	10	3170.956	6186.149	-1406.112	1	6343.942	-12.80576	-3.612855E-008	0.0637467	7
	26	11	2527.573	6264.263	-1661.631	1	6480.896	-14.85591	-7.003143E-008	0.0639638	7
	27	11	1976.103	6370.734	-2006.649	1	6679.288	-17.48334	7.494677E-008	0.0635776	7
	28	11	1577.524	6449.693	-2390.868	1	6878.574	-20.33948	-3.546001E-008	0.0637385	7
	29	11	1265.625	6581.845	-2859.985	1	7176.364	-23.48621	-7.119629E-008	0.0639595	7
	30	12	998.264	6728.655	-3483.898	1	7577.094	-27.37378	7.460051E-008	0.0635745	7
	31	12	796.875	6889.614	-4198.623	1	8068.161	-31.35869	-1.098136E-008	0.0637171	7
	32	12	627.7902	7090.306	-5138.325	1	8756.416	-35.93074	-7.088564E-009	0.0637827	7
	33	13	505.5147	7308.902	-6175.755	1	9568.7	-40.19659	-9.88899E-009	0.0638686	6
	34	13	397.9953	7581.802	-7578.278	1	10719.79	-44.98668	-1.195393E-009	0.0637086	6
	35	13	315.5048	7899.863	-9271.951	1	12181.01	-49.56843	-8.447092E-010	0.0637088	6
	36	14	252.4038	8268.943	-11272.5	1	13980.15	-53.73808	-1.255693E-009	0.063705	6
	37	14	198.6229	8748.541	-13928.37	1	16447.99	-57.86668	-1.88293E-009	0.0637037	6
	38	14	158.3615	9310.315	-17035.13	1	19413.33	-61.34179	-2.394384E-009	0.0636972	6
	39	15	125.558	10056.38	-20960.01	1	23247.64	-64.36882	-2.025153E-009	0.0637035	6
	40	15	100.4464	10955.63	-25632.72	1	27875.83	-66.85775	-1.221506E-009	0.0636981	6
	41	15	79.00281	12147.31	-31790.51	1	34032.24	-69.08789	-1.984547E-009	0.0636974	6
	42	16	63.3446	14133.57	-38261.17	1	40788.17	-69.72591	-1.9036E-009	0.0636955	6
	43	16	49.86702	16287.42	-47577.67	1	50288.31	-71.10222	-2.072061E-009	0.0636979	6
	44	16	39.72458	18677.34	-58367.45	1	61282.97	-72.25554	-2.062293E-009	0.0637011	6
	45	17	31.6723	22193.06	-71462.84	1	74829.61	-72.74762	-2.612151E-009	0.0636988	6
	46	17	24.93351	27659.92	-87591.02	1	91854.55	-72.47467	-1.917188E-009	0.0636948	6
	47	17	19.86229	34406.49	-106422.6	1	111846.2	-72.08395	-2.689376E-009	0.0637045	5
	48	18	15.83615	43604.14	-129997.7	1	137115.7	-71.45739	-3.371241E-009	0.0637037	5
	49	18	12.40079	56934.14	-157904.8	1	167855.3	-70.17273	-8.241807E-010	0.0637029	5
	50	18	9.93114	70808.14	-185829.2	1	198862.5	-69.14122	-2.275987E-009	0.0637101	5
	51	19	7.944915	90560.69	-220145.2	1	238044.4	-67.63931	-1.496383E-009	0.0636973	5
	52	20	6.317385	115862.3	-260033.8	1	284678.1	-65.98385	-1.378037E-009	0.0637002	5
	53	20	5.008013	148312.3	-304648.4	1	338832.1	-64.04175	-1.691157E-009	0.0636937	5
	54	21	3.945707	189764.9	-353093.8	1	400856.5	-61.74487	-1.351686E-009	0.0637051	5
	55	23	3.158693	235903.8	-403023.1	1	466988.4	-59.65804	-1.415448E-009	0.0637131	5
	56	24	2.504006	291140.6	-457082.5	1	541929.2	-57.50474	-1.46844E-009	0.0637015	5
	57	26	1.998082	351521.9	-510614	1	619914.8	-55.45532	-1.165519E-009	0.0637361	5
	58	27	1.584686	419196.3	-570366.8	1	707844.5	-53.68564	-1.017024E-009	0.0637476	5
	59	29	1.266892	487945	-631202.6	1	797813.9	-52.29454	-9.809195E-010	0.063708	5
	60	32	0.999041	566942.6	-702147.3	1	902460.3	-51.08117	-9.443826E-010	0.063676	5
