EXPLAIN
TAG	EISPOT
TITLE	LABEL	Potentiostatic EIS	Test &Identifier
DATE	LABEL	6/20/2000	Date
TIME	LABEL	9:01:03	Time
NOTES	NOTES	2	&Notes...
	
	
PSTAT	PSTAT	REF600-11020	Potentiostat
VDC	POTEN	0.00000E+000	T	DC &Voltage (V)
FREQINIT	QUANT	1.00000E+006	Initial Fre&q. (Hz)
FREQFINAL	QUANT	1.00000E+000	Final Fre&q. (Hz)
PTSPERDEC	QUANT	1.00000E+001	Points/&decade
VAC	QUANT	2.50000E+001	AC &Voltage (mV rms)
AREA	QUANT	1.00000E-002	&Area (cm^2)
CONDIT	TWOPARAM	T	5.00000E+000	0.00000E+000	Conditionin&g	Time(s)	E(V)
DELAY	TWOPARAM	T	5.00000E+000	0.00000E+000	Init. De&lay	Time(s)	Stab.(mV/s)
SPEED	SELECTOR	0	&Optimize for:
ZGUESS	QUANT	1.00000E+005	E&stimated Z (ohms)
OCVCURVE	TABLE	19
	Pt	T	Vf	Vm	Ach	Over
	#	s	V vs. Ref.	V	V	bits
	0	0.258333	-1.39531E-003	-1.39531E-003	5.28433E-004	...........
	1	0.516667	-1.38927E-003	-1.07912E-003	5.32933E-004	...........
	2	0.775	-1.38809E-003	-2.65941E-003	5.26433E-004	...........
	3	1.03333	-1.45601E-003	-1.65730E-003	5.29333E-004	...........
	4	1.29167	-1.64309E-003	-3.01730E-003	5.32166E-004	...........
	5	1.55	-1.90549E-003	-1.96962E-003	5.31533E-004	...........
	6	1.80833	-2.16305E-003	-3.29934E-003	5.24933E-004	...........
	7	2.06667	-2.37991E-003	-2.42027E-003	5.25066E-004	...........
	8	2.325	-2.56604E-003	-3.58483E-003	5.30266E-004	...........
	9	2.58333	-2.74236E-003	-2.86995E-003	5.31766E-004	...........
	10	2.84167	-2.90958E-003	-3.32625E-003	5.27900E-004	...........
	11	3.1	-3.18448E-003	-1.05165E-002	5.25700E-004	...........
	12	3.35833	-4.01469E-003	-1.13077E-002	5.29800E-004	...........
	13	3.61667	-5.71548E-003	-9.14719E-003	5.31433E-004	...........
	14	3.875	-7.42500E-003	6.81737E-003	5.28333E-004	...........
	15	4.13333	-7.37972E-003	-1.36581E-003	5.28700E-004	...........
	16	4.39167	-5.19110E-003	-4.18786E-003	5.33266E-004	...........
	17	4.65	-2.60900E-003	4.19242E-003	5.35266E-004	...........
	18	4.90833	-1.04622E-003	-2.51179E-003	5.29466E-004	...........
EOC	QUANT	-0.0010462	Open Circuit (V)
PSTATMODEL	IQUANT	4	Pstat Model
PSTATSECTION	LABEL	REF600-11020	Pstat Section
PSTATSERIALNO	LABEL	11020	Pstat Serial Number
CTRLMODE	IQUANT	1	Control Mode
IESTAB	IQUANT	0	I/E Stability
CASPEED	IQUANT	1	Control Amp Speed
CONVENTION	IQUANT	1	Current Convention
ICHRANGE	IQUANT	2	Ich Range
ICHRANGEMODE	TOGGLE	F	Ich Auto Range
ICHOFFSETENABLE	TOGGLE	T	Ich Offset Enable
ICHOFFSET	QUANT	0	Ich Offset (V)
ICHFILTER	IQUANT	3	Ich Filter
VCHRANGE	IQUANT	2	Vch Range
VCHRANGEMODE	TOGGLE	F	Vch Auto Range
VCHOFFSETENABLE	TOGGLE	T	Vch Offset Enable
VCHOFFSET	QUANT	0	Vch Offset (V)
VCHFILTER	IQUANT	3	Vch Filter
ACHRANGE	IQUANT	2	Ach Range
ACHOFFSETENABLE	TOGGLE	F	Ach Offset Enable
ACHOFFSET	QUANT	0	Ach Offset (V)
ACHFILTER	IQUANT	3	Ach Filter
IERANGELOWERLIMIT	IQUANT	1	I/E Range Lower Limit
IERANGEMODE	TOGGLE	F	I/E AutoRange
IERANGE	IQUANT	4	I/E Range
POSFEEDENABLE	TOGGLE	F	Positive Feedback IR Comp
POSFEEDRESISTANCE	QUANT	0	Positive Feedback Resistance (ohm)
ACHSELECT	IQUANT	0	Ach Select
CABLEID	IQUANT	14	Cable ID
DCCALDATE	LABEL	8/19/2019	DC Calibration Date
ACCALDATE	LABEL	8/19/2019	AC Calibration Date
THERMOSELECT	IQUANT	1	Thermo Select
FRAMEWORKVERSION	QUANT	6.33	Framework Version
INSTRUMENTVERSION	LABEL	3.50	Instrument Version
ZCURVE	TABLE
	Pt	Time	Freq	Zreal	Zimag	Zsig	Zmod	Zphz	Idc	Vdc	IERange
	#	s	Hz	ohm	ohm	V	ohm	°	A	V	#
	0	2	1000078	801.6526	-8827.841	1	8864.165	-84.81123	-1.051716E-006	0.0014679	8
	1	3	794390.6	1174.708	-11360.85	1	11421.42	-84.09662	-3.209292E-006	0.0016615	8
	2	3	630984.4	1089.587	-13894.73	1	13937.38	-85.5162	-2.99482E-006	0.0013306	8
	3	4	501234.4	1481.043	-17523.41	1	17585.89	-85.16896	-5.370704E-007	0.0003044	8
	4	4	398109.4	2248.935	-22038.27	1	22152.72	-84.17332	-5.438296E-007	0.0011253	8
	5	4	316265.6	2139.609	-27852.07	1	27934.13	-85.60714	-5.910844E-007	0.0002121	8
	6	5	251203.1	2890.32	-34293.39	1	34414.97	-85.18237	4.131015E-006	0.0005415	8
	7	5	199546.9	3474.089	-42435.07	1	42577.04	-85.31973	6.539552E-006	-0.0006823	8
	8	6	158578.1	8029.803	-52580.53	1	53190.13	-81.31719	-1.467159E-006	0.0002838	8
	9	7	125953.1	14781.2	-66515.06	1	68137.63	-77.47113	-1.727298E-007	-0.0028884	7
	10	7	100078.1	10916.68	-81558.81	1	82286.17	-82.37625	-8.107932E-008	0.0020855	7
	11	7	79453.13	12371.26	-101729.1	1	102478.5	-83.06631	-9.013993E-007	-1.524612E-005	7
	12	8	63140.62	18171.25	-124402.2	1	125722.3	-81.68966	-9.024066E-007	-2.262872E-005	7
	13	8	50203.12	24011.76	-153679	1	155543.6	-81.11955	-1.393102E-006	0.0009488	7
	14	9	39890.62	32850.28	-190323.4	1	193137.6	-80.20709	-9.034803E-007	-2.261326E-005	7
	15	9	31640.63	39281.04	-233823.4	1	237099.9	-80.46367	-1.622062E-006	0.0026879	7
	16	10	25171.88	53289.98	-292473.2	1	297288.4	-79.67372	-1.035348E-006	0.0028301	7
	17	10	20015.62	33994.37	-426190.1	1	427543.7	-85.43955	-1.038188E-006	0.0028291	7
	18	10	15890.62	86292.48	-392343.6	1	401721.2	-77.5958	8.761405E-007	-0.0020633	7
	19	11	12609.37	122266.5	-500223.3	1	514949	-76.26485	1.845623E-007	0.0012341	6
	20	11	10078.13	110318.6	-635549.8	1	645053.3	-80.15273	2.615164E-007	-0.0003458	6
	21	12	8015.625	136274.2	-758464.7	1	770609.7	-79.81428	3.09782E-007	-0.0017317	6
	22	12	6328.125	165639.2	-930524.1	1	945151.6	-79.90671	3.10545E-007	-0.0017356	6
	23	13	5015.625	181533.9	-1170365	1	1184360	-81.18318	2.357613E-007	-0.0046228	6
	24	13	3984.375	230419	-1220739	1	1242295	-79.31097	2.353524E-007	-0.0046251	6
	25	14	3170.956	315966.3	-1752756	1	1781008	-79.78114	3.097001E-007	-0.0017344	6
	26	14	2527.573	471605.5	-2194227	1	2244336	-77.86995	-1.555749E-007	-0.0010573	6
	27	15	1976.103	-268962.8	-2976255	1	2988383	-95.1638	1.537471E-007	-0.0043815	6
	28	16	1577.524	577150.5	-1449570	1	1560242	-68.28988	-3.284486E-007	0.0025394	6
	29	16	1265.625	920980.4	-4188934	1	4288982	-77.60021	1.976078E-008	-0.0045853	5
	30	17	998.264	1012747	-5067217	1	5167431	-78.69764	-1.148583E-008	-0.0017873	5
	31	17	796.875	996940	-6070005	1	6151329	-80.67299	-1.122189E-008	-0.0017845	5
	32	18	627.7902	1604599	-7623247	1	7790291	-78.11346	1.959045E-008	-0.0045844	5
	33	18	505.5147	945243.7	-8293404	1	8347098	-83.49775	8.685577E-008	0.0027384	6
	34	19	397.9953	2672611	-1.064025E+007	1	1.097077E+007	-75.90018	-7.359585E-011	0.0004507	5
	35	20	315.5048	3061652	-1.477878E+007	1	1.509258E+007	-78.29586	1.423845E-010	0.0004366	5
	36	20	252.4038	2369685	-1.563148E+007	1	1.581008E+007	-81.37977	1.277836E-010	0.0004312	5
	37	21	198.6229	6421379	-2.087019E+007	1	2.183572E+007	-72.89782	-1.125047E-010	0.0004445	5
	38	21	158.3615	6669131	-3.002177E+007	1	3.07536E+007	-77.47551	6.056159E-010	0.0004307	5
	39	21	125.558	5734159	-2.956506E+007	1	3.0116E+007	-79.02373	-9.204042E-011	0.0004386	4
	40	22	100.4464	-2.940517E+007	-3.454659E+007	1	4.536663E+007	-130.4036	-8.209997E-010	0.0004374	4
	41	22	79.00281	1.37443E+007	1.674931E+007	1	2.166668E+007	50.62807	7.1381E-010	0.0004358	4
	42	23	63.3446	4930081	820704.4	1	4997925	9.45129	-1.247696E-010	0.0004446	4
	43	23	49.86702	6855632	-2.282112E+007	1	2.382862E+007	-73.27935	1.882475E-010	0.0004245	4
	44	24	39.72458	4.86324E+007	5708294	1	4.896626E+007	6.694539	-3.543124E-012	0.0004343	4
	45	25	31.6723	6607486	-1.589347E+007	1	1.721225E+007	-67.42559	6.501037E-010	0.0004212	4
	46	25	24.93351	6.792388E+007	-1.568988E+007	1	6.971245E+007	-13.00674	1.261728E-010	0.0004182	4
	47	25	19.86229	3.298517E+007	-3.161406E+007	1	4.568884E+007	-43.78409	2.135231E-010	0.000442	5
	48	26	15.83615	8504180	-1.208733E+007	1	1.47792E+007	-54.87127	9.762681E-010	0.0004278	4
	49	26	12.40079	4.857016E+007	1.278587E+007	1	5.022488E+007	14.74825	-1.532993E-011	0.0004427	4
	50	27	9.93114	3.946114E+007	-3.151153E+007	1	5.04991E+007	-38.60897	-1.306496E-010	0.0004265	4
	51	28	7.944915	5.421964E+007	-1437381	1	5.423869E+007	-1.518575	-9.940469E-011	0.000432	4
	52	29	6.317385	1.025031E+008	-1.910931E+007	1	1.042692E+008	-10.56023	6.048063E-011	0.000435	4
	53	30	5.008013	1.422428E+008	-5.452226E+007	1	1.523341E+008	-20.97204	1.19988E-010	0.0004309	4
	54	32	3.945707	1.775034E+008	-5.570156E+007	1	1.860379E+008	-17.42215	1.286055E-010	0.0004318	4
	55	34	3.158693	9.873835E+007	-2.428051E+007	1	1.016799E+008	-13.81535	4.138027E-011	0.0004288	4
	56	36	2.504006	2.957143E+008	-4.048157E+007	1	2.984723E+008	-7.795007	5.659408E-011	0.0004314	3
	57	38	1.998082	2.901338E+008	-3.634793E+007	1	2.924017E+008	-7.140806	5.637754E-011	0.0003892	3
	58	41	1.584686	3.032646E+008	-3.417272E+007	1	3.051838E+008	-6.429133	5.719924E-011	0.0004235	3
	59	44	1.266892	2.195794E+009	-6.007967E+008	1	2.276504E+009	-15.30231	2.044006E-012	0.0004616	2
	60	47	0.999041	2.220586E+009	-5.039817E+008	1	2.27706E+009	-12.78716	1.718108E-012	0.0004711	2
