EXPLAIN
TAG	EISPOT
TITLE	LABEL	Potentiostatic IDE	Test &Identifier
DATE	LABEL	9/12/2019	Date
TIME	LABEL	10:34:39	Time
NOTES	NOTES	1	&Notes...
	
PSTAT	PSTAT	REF600-11020	Potentiostat
VDC	POTEN	0.00000E+000	T	DC &Voltage (V)
FREQINIT	QUANT	1.00000E+006	Initial Fre&q. (Hz)
FREQFINAL	QUANT	1.00000E+000	Final Fre&q. (Hz)
PTSPERDEC	QUANT	1.00000E+001	Points/&decade
VAC	QUANT	2.50000E+001	AC &Voltage (mV rms)
AREA	QUANT	1.00000E-002	&Area (cm^2)
CONDIT	TWOPARAM	T	5.00000E+000	0.00000E+000	Conditionin&g	Time(s)	E(V)
DELAY	TWOPARAM	T	5.00000E+000	0.00000E+000	Init. De&lay	Time(s)	Stab.(mV/s)
SPEED	SELECTOR	1	&Optimize for:
ZGUESS	QUANT	1.00000E+007	E&stimated Z (ohms)
OCVCURVE	TABLE	18
	Pt	T	Vf	Vm	Ach	Over
	#	s	V vs. Ref.	V	V	bits
	0	0.258333	2.58585E-003	2.58585E-003	5.65232E-004	...........
	1	0.516667	2.57943E-003	2.25022E-003	5.70699E-004	...........
	2	0.775	2.54044E-003	1.95199E-003	5.64499E-004	...........
	3	1.03333	2.43179E-003	1.68606E-003	5.67632E-004	...........
	4	1.29167	2.24174E-003	1.44164E-003	5.68199E-004	...........
	5	1.55	1.99662E-003	1.21336E-003	5.70399E-004	...........
	6	1.80833	1.73463E-003	1.00478E-003	5.68032E-004	...........
	7	2.06667	1.48150E-003	8.10139E-004	5.69566E-004	...........
	8	2.325	1.24715E-003	6.26717E-004	5.71532E-004	...........
	9	2.58333	1.03204E-003	4.49847E-004	5.67299E-004	...........
	10	2.84167	8.32988E-004	2.84811E-004	5.64199E-004	...........
	11	3.1	6.46629E-004	1.30104E-004	5.67599E-004	...........
	12	3.35833	4.70868E-004	-1.96208E-005	5.66432E-004	...........
	13	3.61667	3.04643E-004	-1.60226E-004	5.64199E-004	...........
	14	3.875	1.47143E-004	-2.95664E-004	5.65766E-004	...........
	15	4.13333	-2.48339E-006	-4.26756E-004	5.62266E-004	...........
	16	4.39167	-1.45100E-004	-5.50117E-004	5.64166E-004	...........
	17	4.65	-2.81440E-004	-6.69939E-004	5.67066E-004	...........
EOC	QUANT	-0.000412	Open Circuit (V)
PSTATMODEL	IQUANT	4	Pstat Model
PSTATSECTION	LABEL	REF600-11020	Pstat Section
PSTATSERIALNO	LABEL	11020	Pstat Serial Number
CTRLMODE	IQUANT	1	Control Mode
IESTAB	IQUANT	0	I/E Stability
CASPEED	IQUANT	1	Control Amp Speed
CONVENTION	IQUANT	1	Current Convention
ICHRANGE	IQUANT	2	Ich Range
ICHRANGEMODE	TOGGLE	F	Ich Auto Range
ICHOFFSETENABLE	TOGGLE	T	Ich Offset Enable
ICHOFFSET	QUANT	0	Ich Offset (V)
ICHFILTER	IQUANT	3	Ich Filter
VCHRANGE	IQUANT	2	Vch Range
VCHRANGEMODE	TOGGLE	F	Vch Auto Range
VCHOFFSETENABLE	TOGGLE	T	Vch Offset Enable
VCHOFFSET	QUANT	0	Vch Offset (V)
VCHFILTER	IQUANT	3	Vch Filter
ACHRANGE	IQUANT	2	Ach Range
ACHOFFSETENABLE	TOGGLE	F	Ach Offset Enable
ACHOFFSET	QUANT	0	Ach Offset (V)
ACHFILTER	IQUANT	3	Ach Filter
IERANGELOWERLIMIT	IQUANT	1	I/E Range Lower Limit
IERANGEMODE	TOGGLE	F	I/E AutoRange
IERANGE	IQUANT	1	I/E Range
POSFEEDENABLE	TOGGLE	F	Positive Feedback IR Comp
POSFEEDRESISTANCE	QUANT	0	Positive Feedback Resistance (ohm)
ACHSELECT	IQUANT	0	Ach Select
CABLEID	IQUANT	14	Cable ID
DCCALDATE	LABEL	8/19/2019	DC Calibration Date
ACCALDATE	LABEL	8/19/2019	AC Calibration Date
THERMOSELECT	IQUANT	1	Thermo Select
FRAMEWORKVERSION	QUANT	6.33	Framework Version
INSTRUMENTVERSION	LABEL	3.50	Instrument Version
ZCURVE	TABLE
	Pt	Time	Freq	Zreal	Zimag	Zsig	Zmod	Zphz	Idc	Vdc	IERange
	#	s	Hz	ohm	ohm	V	ohm	°	A	V	#
	0	3	1000078	2487.549	-1853.123	1	3101.93	-36.68462	-4.808383E-006	0.0021805	8
	1	4	794390.6	2870.629	-1774.631	1	3374.881	-31.72448	-4.859276E-008	0.0020425	8
	2	6	630984.4	3203.674	-1654.01	1	3605.451	-27.30664	-1.300393E-006	0.0016553	8
	3	7	501234.4	3511.797	-1488.434	1	3814.204	-22.96909	5.830453E-006	0.0001995	8
	4	9	398109.4	3724.008	-1330.801	1	3954.651	-19.66471	-1.517392E-007	0.000966	8
	5	10	316265.6	3871.637	-1146.05	1	4037.698	-16.48937	5.129829E-006	0.0002092	8
	6	11	251203.1	4036.464	-972.458	1	4151.953	-13.54547	4.957825E-006	0.000196	8
	7	13	199546.9	4128.954	-838.4466	1	4213.223	-11.4787	4.529886E-006	0.0002418	8
	8	14	158578.1	4212.727	-755.1486	1	4279.873	-10.16257	2.140344E-006	0.0006734	8
	9	16	125953.1	4259.672	-611.8822	1	4303.395	-8.174356	9.726596E-007	-0.0010675	7
	10	17	100078.1	4311.437	-543.308	1	4345.535	-7.1823	4.811982E-008	0.0009388	7
	11	18	79453.13	4353.676	-507.6656	1	4383.174	-6.651007	1.471599E-007	0.0008699	7
	12	20	63140.62	4392.805	-483.7957	1	4419.366	-6.284865	-4.335045E-008	0.0011119	7
	13	21	50203.12	4432.453	-474.8988	1	4457.821	-6.115416	-4.048288E-008	0.0012159	7
	14	22	39890.62	4470.432	-479.5827	1	4496.083	-6.123206	-5.488952E-008	0.0011849	7
	15	24	31640.63	4510.234	-492.7813	1	4537.074	-6.235318	-4.915905E-008	0.0011142	7
	16	25	25171.88	4553.113	-520.1407	1	4582.727	-6.51713	-3.486648E-008	0.0010751	7
	17	26	20015.62	4598.095	-559.8062	1	4632.047	-6.941451	-4.300196E-008	0.0011026	7
	18	28	15890.62	4646.995	-614.4023	1	4687.436	-7.531676	3.791999E-008	0.0010418	7
	19	29	12609.37	4701.926	-680.895	1	4750.971	-8.239833	7.968819E-008	0.0009298	7
	20	30	10078.13	4762.159	-763.4836	1	4822.973	-9.10832	-4.056883E-008	0.0012132	7
	21	32	8015.625	4825.447	-867.103	1	4902.735	-10.18698	-9.57399E-009	0.0011229	7
	22	33	6328.125	4900.147	-994.984	1	5000.144	-11.47797	-7.969055E-009	0.0011229	7
	23	34	5015.625	4981.981	-1149.355	1	5112.842	-12.99099	-4.687437E-008	0.0011119	7
	24	36	3984.375	5075.193	-1334.174	1	5247.628	-14.72875	-3.296934E-008	0.0010804	7
	25	37	3170.956	5176.982	-1552.526	1	5404.764	-16.69347	8.199163E-008	0.0010355	7
	26	38	2527.573	5289.724	-1813.477	1	5591.948	-18.92326	-3.922957E-008	0.0012073	7
	27	40	1976.103	5429.623	-2160.681	1	5843.744	-21.69974	-3.968121E-008	0.001113	7
	28	41	1577.524	5572.29	-2542.064	1	6124.745	-24.52235	3.915611E-008	0.0010356	7
	29	42	1265.625	5728.252	-2993.979	1	6463.497	-27.59467	8.347745E-008	0.0010363	7
	30	44	998.264	5919.259	-3578.278	1	6916.77	-31.15357	7.975487E-008	0.0009245	7
	31	45	796.875	6125.266	-4255.993	1	7458.71	-34.79257	-9.435374E-009	0.0011091	7
	32	46	627.7902	6376.921	-5129.751	1	8184.099	-38.81405	6.781136E-010	0.0010052	7
	33	48	505.5147	6636.602	-6104.573	1	9017.222	-42.60891	-5.591412E-009	0.0012104	7
	34	49	397.9953	6967.822	-7397.165	1	10162.12	-46.71195	1.688649E-009	0.0010147	6
	35	50	315.5048	7337.148	-8951.103	1	11573.94	-50.65879	1.033806E-009	0.0010168	6
	36	52	252.4038	7744.246	-10778.71	1	13272.3	-54.30366	5.999928E-010	0.0010155	6
	37	53	198.6229	8250.248	-13192.69	1	15560	-57.97957	1.288182E-009	0.0010167	6
	38	54	158.3615	8820.711	-16010.74	1	18279.73	-61.14854	5.785394E-010	0.0010127	6
	39	56	125.558	9512.06	-19567.25	1	21756.76	-64.07461	1.142442E-009	0.0010142	6
	40	57	100.4464	10308.66	-23755.25	1	25895.57	-66.54143	3.400938E-010	0.0010121	6
	41	58	79.00281	11336.08	-29410.94	1	31519.99	-68.92146	6.894879E-010	0.0010105	6
	42	60	63.3446	12981.79	-35597.76	1	37890.99	-69.9641	1.05365E-009	0.0010141	6
	43	61	49.86702	14189.55	-44413.72	1	46625.34	-72.28206	1.760848E-009	0.0010127	6
	44	62	39.72458	16669.39	-54070.64	1	56581.82	-72.86604	1.104712E-009	0.0010148	6
	45	64	31.6723	19456.5	-66348.6	1	69142.55	-73.65641	1.76883E-009	0.0010154	6
	46	65	24.93351	23497.42	-81644.95	1	84958.97	-73.94418	8.746374E-010	0.0010125	6
	47	66	19.86229	28619.48	-99473.8	1	103509	-73.94901	1.243536E-009	0.001019	6
	48	68	15.83615	35577.11	-120611.9	1	125749.6	-73.56543	1.049162E-009	0.0010179	5
	49	69	12.40079	44763.06	-149137.9	1	155710.8	-73.29311	5.213889E-010	0.0010245	5
	50	71	9.93114	56370.2	-178586	1	187271.4	-72.48183	6.214069E-011	0.0010188	5
	51	72	7.944915	72061.84	-214514.3	1	226294.7	-71.43124	7.003762E-010	0.0010162	5
	52	74	6.317385	91615.49	-256840.9	1	272691.4	-70.36861	6.808561E-010	0.0010181	5
	53	76	5.008013	118239.3	-307655.9	1	329594.8	-68.97707	3.182924E-010	0.0010197	5
	54	78	3.945707	152171.2	-366749.8	1	397066.1	-67.46555	1.279259E-010	0.0010129	5
	55	81	3.158693	192635	-428876.8	1	470152.6	-65.81221	1.721149E-010	0.0010066	5
	56	84	2.504006	244435.3	-501251.9	1	557675.7	-64.00384	2.955602E-010	0.0010274	5
	57	87	1.998082	304609.5	-577275.4	1	652712.7	-62.18084	5.325205E-010	0.0010043	5
	58	90	1.584686	380721.2	-663897.8	1	765316.2	-60.1673	2.107226E-010	0.0009688	5
	59	94	1.266892	460619	-754869.1	1	884306.1	-58.60858	3.348356E-010	0.0010062	5
	60	98	0.999041	565058.5	-856556.4	1	1026148	-56.58771	-8.616689E-011	0.0009962	4
