EXPLAIN
TAG	EISPOT
TITLE	LABEL	Potentiostatic IDE	Test &Identifier
DATE	LABEL	9/14/2019	Date
TIME	LABEL	13:01:53	Time
NOTES	NOTES	1	&Notes...
	
PSTAT	PSTAT	REF600-11020	Potentiostat
VDC	POTEN	0.00000E+000	T	DC &Voltage (V)
FREQINIT	QUANT	1.00000E+006	Initial Fre&q. (Hz)
FREQFINAL	QUANT	1.00000E+000	Final Fre&q. (Hz)
PTSPERDEC	QUANT	1.00000E+001	Points/&decade
VAC	QUANT	2.50000E+001	AC &Voltage (mV rms)
AREA	QUANT	1.00000E-002	&Area (cm^2)
CONDIT	TWOPARAM	T	5.00000E+000	0.00000E+000	Conditionin&g	Time(s)	E(V)
DELAY	TWOPARAM	T	5.00000E+000	0.00000E+000	Init. De&lay	Time(s)	Stab.(mV/s)
SPEED	SELECTOR	1	&Optimize for:
ZGUESS	QUANT	1.00000E+007	E&stimated Z (ohms)
OCVCURVE	TABLE	19
	Pt	T	Vf	Vm	Ach	Over
	#	s	V vs. Ref.	V	V	bits
	0	0.258333	1.04436E-003	1.04436E-003	5.30733E-004	...........
	1	0.516667	1.03328E-003	4.64618E-004	5.36233E-004	...........
	2	0.775	9.65123E-004	-9.28250E-005	5.40166E-004	...........
	3	1.03333	7.72932E-004	-5.68731E-004	5.35633E-004	...........
	4	1.29167	4.33684E-004	-9.91025E-004	5.32966E-004	...........
	5	1.55	-4.88161E-006	-1.37164E-003	5.41099E-004	...........
	6	1.80833	-4.69774E-004	-1.71259E-003	5.48699E-004	...........
	7	2.06667	-9.10565E-004	-2.02796E-003	5.33233E-004	...........
	8	2.325	-1.31161E-003	-2.47592E-003	5.34266E-004	...........
	9	2.58333	-1.68330E-003	-2.73720E-003	5.45099E-004	...........
	10	2.84167	-2.03843E-003	-2.95202E-003	5.44799E-004	...........
	11	3.1	-2.37123E-003	-3.16992E-003	5.33633E-004	...........
	12	3.35833	-2.66744E-003	-3.40795E-003	5.33666E-004	...........
	13	3.61667	-2.93030E-003	-3.81331E-003	5.48199E-004	...........
	14	3.875	-3.21821E-003	-5.79166E-003	5.48033E-004	...........
	15	4.13333	-3.66234E-003	-6.17820E-003	5.37633E-004	...........
	16	4.39167	-4.33759E-003	-6.27385E-003	5.32866E-004	...........
	17	4.65	-5.10575E-003	-6.13530E-003	5.47333E-004	...........
	18	4.90833	-5.70339E-003	-5.23352E-003	5.39333E-004	...........
EOC	QUANT	-0.0057034	Open Circuit (V)
PSTATMODEL	IQUANT	4	Pstat Model
PSTATSECTION	LABEL	REF600-11020	Pstat Section
PSTATSERIALNO	LABEL	11020	Pstat Serial Number
CTRLMODE	IQUANT	1	Control Mode
IESTAB	IQUANT	0	I/E Stability
CASPEED	IQUANT	1	Control Amp Speed
CONVENTION	IQUANT	1	Current Convention
ICHRANGE	IQUANT	2	Ich Range
ICHRANGEMODE	TOGGLE	F	Ich Auto Range
ICHOFFSETENABLE	TOGGLE	T	Ich Offset Enable
ICHOFFSET	QUANT	0	Ich Offset (V)
ICHFILTER	IQUANT	3	Ich Filter
VCHRANGE	IQUANT	2	Vch Range
VCHRANGEMODE	TOGGLE	F	Vch Auto Range
VCHOFFSETENABLE	TOGGLE	T	Vch Offset Enable
VCHOFFSET	QUANT	0	Vch Offset (V)
VCHFILTER	IQUANT	3	Vch Filter
ACHRANGE	IQUANT	2	Ach Range
ACHOFFSETENABLE	TOGGLE	F	Ach Offset Enable
ACHOFFSET	QUANT	0	Ach Offset (V)
ACHFILTER	IQUANT	3	Ach Filter
IERANGELOWERLIMIT	IQUANT	1	I/E Range Lower Limit
IERANGEMODE	TOGGLE	F	I/E AutoRange
IERANGE	IQUANT	3	I/E Range
POSFEEDENABLE	TOGGLE	F	Positive Feedback IR Comp
POSFEEDRESISTANCE	QUANT	0	Positive Feedback Resistance (ohm)
ACHSELECT	IQUANT	0	Ach Select
CABLEID	IQUANT	14	Cable ID
DCCALDATE	LABEL	8/19/2019	DC Calibration Date
ACCALDATE	LABEL	8/19/2019	AC Calibration Date
THERMOSELECT	IQUANT	1	Thermo Select
FRAMEWORKVERSION	QUANT	6.33	Framework Version
INSTRUMENTVERSION	LABEL	3.50	Instrument Version
ZCURVE	TABLE
	Pt	Time	Freq	Zreal	Zimag	Zsig	Zmod	Zphz	Idc	Vdc	IERange
	#	s	Hz	ohm	ohm	V	ohm	°	A	V	#
	0	2	1000078	2090.951	-1459.288	1	2549.823	-34.91142	1.971395E-006	-0.0037252	8
	1	3	794390.6	2381.591	-1405.378	1	2765.333	-30.54488	2.189098E-007	-0.004002	8
	2	5	630984.4	2639.176	-1316.844	1	2949.462	-26.51737	-6.284575E-007	-0.0039216	8
	3	6	501234.4	2867.319	-1202.618	1	3109.31	-22.75427	1.181777E-006	-0.0043588	8
	4	7	398109.4	3032.348	-1067.522	1	3214.768	-19.39434	2.231842E-006	-0.0046517	8
	5	9	316265.6	3170.789	-959.592	1	3312.812	-16.83766	-1.310602E-006	-0.0038829	8
	6	10	251203.1	3285.814	-856.639	1	3395.645	-14.61222	3.042548E-006	-0.0045538	8
	7	11	199546.9	3383.342	-753.6783	1	3466.271	-12.55825	-3.095332E-006	-0.0033879	8
	8	13	158578.1	3452.299	-685.4552	1	3519.69	-11.23005	-9.555332E-007	-0.0039153	8
	9	14	125953.1	3538.255	-594.0384	1	3587.775	-9.53052	-6.1633E-008	-0.0043405	7
	10	16	100078.1	3588.51	-558.6464	1	3631.733	-8.848577	8.328711E-008	-0.0042615	7
	11	17	79453.13	3639.266	-543.0488	1	3679.559	-8.487016	-3.862947E-008	-0.0041279	7
	12	18	63140.62	3690.86	-538.8135	1	3729.982	-8.305705	-4.155333E-008	-0.0041	7
	13	20	50203.12	3741.57	-546.1046	1	3781.214	-8.304026	-3.284586E-008	-0.0040995	7
	14	21	39890.62	3793.604	-569.274	1	3836.08	-8.534212	-5.234545E-008	-0.0041186	7
	15	22	31640.63	3852.13	-593.0319	1	3897.511	-8.751925	-4.184556E-008	-0.0041152	7
	16	24	25171.88	3913.007	-633.1084	1	3963.893	-9.190577	4.027342E-008	-0.0043111	7
	17	25	20015.62	3978.554	-686.2286	1	4037.301	-9.7862	1.176955E-008	-0.0042027	7
	18	26	15890.62	4054.284	-752.1891	1	4123.47	-10.51055	-4.828239E-008	-0.0041401	7
	19	28	12609.37	4131.768	-832.7943	1	4214.86	-11.39579	1.146242E-009	-0.0042242	7
	20	29	10078.13	4218.164	-926.8166	1	4318.784	-12.39214	-3.050026E-008	-0.0041506	7
	21	30	8015.625	4315.755	-1037.261	1	4438.655	-13.51431	-1.968941E-008	-0.0042165	7
	22	32	6328.125	4430.855	-1172.802	1	4583.442	-14.82561	3.818253E-008	-0.0041801	7
	23	33	5015.625	4556.893	-1328.911	1	4746.712	-16.25809	-3.830601E-008	-0.0041426	7
	24	34	3984.375	4700.01	-1506.969	1	4935.691	-17.77746	-3.204578E-008	-0.0041522	7
	25	36	3170.956	4859.593	-1713.495	1	5152.834	-19.42267	9.571381E-010	-0.0042249	7
	26	37	2527.573	5041.316	-1951.807	1	5405.962	-21.16452	-5.225793E-008	-0.004134	7
	27	38	1976.103	5266.144	-2252.761	1	5727.758	-23.16037	-3.979684E-008	-0.0041209	7
	28	40	1577.524	5514.062	-2561.786	1	6080.101	-24.91918	-5.105463E-008	-0.0041294	7
	29	41	1265.625	5773.714	-2907.301	1	6464.377	-26.72712	-5.177741E-008	-0.0041275	7
	30	42	998.264	6101.334	-3332.306	1	6952.017	-28.64161	-4.881143E-008	-0.0041218	7
	31	44	796.875	6451.116	-3790.272	1	7482.183	-30.43583	-4.825896E-008	-0.0041469	7
	32	45	627.7902	6863.91	-4333.178	1	8117.247	-32.26417	-3.104357E-008	-0.0041496	7
	33	46	505.5147	7258.474	-4882.473	1	8747.799	-33.92708	1.235933E-008	-0.0042723	7
	34	48	397.9953	7710.144	-5593.698	1	9525.53	-35.96083	1.997399E-010	-0.0042336	6
	35	49	315.5048	8145.109	-6415.143	1	10368.07	-38.22421	8.492709E-011	-0.0042326	6
	36	50	252.4038	8554.01	-7382.825	1	11299.43	-40.79694	-7.377094E-010	-0.0042343	6
	37	52	198.6229	8982.531	-8680.015	1	12491.14	-44.01876	1.181292E-009	-0.0042307	6
	38	53	158.3615	9389.872	-10231.31	1	13887.03	-47.45559	1.292256E-009	-0.0042346	6
	39	54	125.558	9822.65	-12239.92	1	15693.95	-51.25262	8.741963E-010	-0.004236	6
	40	56	100.4464	10275.95	-14652.2	1	17896.43	-54.95707	4.84554E-010	-0.0042311	6
	41	57	79.00281	10857.88	-17937.41	1	20967.7	-58.81262	3.767222E-010	-0.0042306	6
	42	58	63.3446	11339.37	-21630.6	1	24422.62	-62.3352	1.035233E-009	-0.0042352	6
	43	60	49.86702	12357.25	-26922.83	1	29623.3	-65.34546	5.739796E-010	-0.0042357	6
	44	61	39.72458	13240.57	-32928.99	1	35491.28	-68.0952	6.003463E-010	-0.0042332	6
	45	62	31.6723	14512.05	-40281.54	1	42815.91	-70.18765	1.037712E-009	-0.0042336	6
	46	64	24.93351	16223.96	-50041.34	1	52605.63	-72.03672	5.479598E-010	-0.0042378	6
	47	65	19.86229	18282.89	-61482.44	1	64143.23	-73.43922	-3.664645E-011	-0.004243	6
	48	66	15.83615	20829.12	-75006.97	1	77845.34	-74.48026	-2.284859E-010	-0.0042378	6
	49	68	12.40079	25056.9	-93509.64	1	96808.6	-74.99939	4.915786E-010	-0.0042356	6
	50	69	9.93114	29745.11	-114267	1	118075.1	-75.40903	-1.040189E-010	-0.0042351	5
	51	71	7.944915	36058.84	-139009	1	143609.7	-75.45803	1.746724E-009	-0.0042435	5
	52	72	6.317385	43960.69	-169733.4	1	175333.9	-75.47955	-9.110807E-011	-0.0042392	5
	53	74	5.008013	54567.36	-207628.3	1	214679.1	-75.27494	4.444663E-010	-0.0042346	5
	54	77	3.945707	69185.2	-254240	1	263485.4	-74.77698	8.581678E-010	-0.0042463	5
	55	80	3.158693	86711.66	-307418.5	1	319413.6	-74.24816	3.230615E-010	-0.004225	5
	56	83	2.504006	110598.5	-372430	1	388505	-73.46045	3.736579E-011	-0.0042354	5
	57	86	1.998082	139814.9	-446072.6	1	467470.8	-72.59717	2.946704E-010	-0.0042605	5
	58	89	1.584686	178229.8	-537488.9	1	566268.6	-71.65462	1.289198E-010	-0.0042874	5
	59	92	1.266892	223085.1	-638757.3	1	676592.8	-70.74832	3.628347E-010	-0.004233	5
	60	97	0.999041	286416	-767544.6	1	819242.9	-69.5365	5.118397E-011	-0.0042646	5
