EXPLAIN
TAG	EISPOT
TITLE	LABEL	Potentiostatic EIS	Test &Identifier
DATE	LABEL	10/6/2019	Date
TIME	LABEL	10:40:42	Time
NOTES	NOTES	2	&Notes...
	
	
PSTAT	PSTAT	REF600-11020	Potentiostat
VDC	POTEN	0.00000E+000	T	DC &Voltage (V)
FREQINIT	QUANT	1.00000E+006	Initial Fre&q. (Hz)
FREQFINAL	QUANT	1.00000E+000	Final Fre&q. (Hz)
PTSPERDEC	QUANT	1.00000E+001	Points/&decade
VAC	QUANT	2.50000E+001	AC &Voltage (mV rms)
AREA	QUANT	1.00000E-002	&Area (cm^2)
CONDIT	TWOPARAM	T	5.00000E+000	0.00000E+000	Conditionin&g	Time(s)	E(V)
DELAY	TWOPARAM	T	5.00000E+000	0.00000E+000	Init. De&lay	Time(s)	Stab.(mV/s)
SPEED	SELECTOR	1	&Optimize for:
ZGUESS	QUANT	1.00000E+004	E&stimated Z (ohms)
OCVCURVE	TABLE	19
	Pt	T	Vf	Vm	Ach	Over
	#	s	V vs. Ref.	V	V	bits
	0	0.258333	8.92462E-003	8.92462E-003	5.48966E-004	...........
	1	0.516667	8.92707E-003	9.05294E-003	5.48266E-004	...........
	2	0.775	8.94232E-003	9.18480E-003	5.50333E-004	...........
	3	1.03333	8.98652E-003	9.33296E-003	5.46599E-004	...........
	4	1.29167	9.06845E-003	9.46443E-003	5.46666E-004	...........
	5	1.55	9.18217E-003	9.60522E-003	5.44133E-004	...........
	6	1.80833	9.31398E-003	9.74010E-003	5.44333E-004	...........
	7	2.06667	9.45229E-003	9.87385E-003	5.52799E-004	...........
	8	2.325	9.59081E-003	9.99999E-003	5.50233E-004	...........
	9	2.58333	9.72686E-003	1.01256E-002	5.44566E-004	...........
	10	2.84167	9.85937E-003	1.02469E-002	5.55299E-004	...........
	11	3.1	9.98825E-003	1.03713E-002	5.48266E-004	...........
	12	3.35833	1.01139E-002	1.04821E-002	5.50366E-004	...........
	13	3.61667	1.02368E-002	1.05993E-002	5.51599E-004	...........
	14	3.875	1.03567E-002	1.07136E-002	5.43766E-004	...........
	15	4.13333	1.04740E-002	1.08246E-002	5.46233E-004	...........
	16	4.39167	1.05891E-002	1.09235E-002	5.49933E-004	...........
	17	4.65	1.07015E-002	1.10245E-002	5.49099E-004	...........
	18	4.90833	1.08100E-002	1.11250E-002	5.47466E-004	...........
EOC	QUANT	0.01081	Open Circuit (V)
PSTATMODEL	IQUANT	4	Pstat Model
PSTATSECTION	LABEL	REF600-11020	Pstat Section
PSTATSERIALNO	LABEL	11020	Pstat Serial Number
CTRLMODE	IQUANT	1	Control Mode
IESTAB	IQUANT	0	I/E Stability
CASPEED	IQUANT	1	Control Amp Speed
CONVENTION	IQUANT	1	Current Convention
ICHRANGE	IQUANT	2	Ich Range
ICHRANGEMODE	TOGGLE	F	Ich Auto Range
ICHOFFSETENABLE	TOGGLE	T	Ich Offset Enable
ICHOFFSET	QUANT	0	Ich Offset (V)
ICHFILTER	IQUANT	3	Ich Filter
VCHRANGE	IQUANT	2	Vch Range
VCHRANGEMODE	TOGGLE	F	Vch Auto Range
VCHOFFSETENABLE	TOGGLE	T	Vch Offset Enable
VCHOFFSET	QUANT	0	Vch Offset (V)
VCHFILTER	IQUANT	3	Vch Filter
ACHRANGE	IQUANT	2	Ach Range
ACHOFFSETENABLE	TOGGLE	F	Ach Offset Enable
ACHOFFSET	QUANT	0	Ach Offset (V)
ACHFILTER	IQUANT	3	Ach Filter
IERANGELOWERLIMIT	IQUANT	1	I/E Range Lower Limit
IERANGEMODE	TOGGLE	F	I/E AutoRange
IERANGE	IQUANT	6	I/E Range
POSFEEDENABLE	TOGGLE	F	Positive Feedback IR Comp
POSFEEDRESISTANCE	QUANT	0	Positive Feedback Resistance (ohm)
ACHSELECT	IQUANT	0	Ach Select
CABLEID	IQUANT	14	Cable ID
DCCALDATE	LABEL	8/19/2019	DC Calibration Date
ACCALDATE	LABEL	8/19/2019	AC Calibration Date
THERMOSELECT	IQUANT	1	Thermo Select
FRAMEWORKVERSION	QUANT	6.33	Framework Version
INSTRUMENTVERSION	LABEL	3.50	Instrument Version
ZCURVE	TABLE
	Pt	Time	Freq	Zreal	Zimag	Zsig	Zmod	Zphz	Idc	Vdc	IERange
	#	s	Hz	ohm	ohm	V	ohm	°	A	V	#
	0	2	1000078	2427.492	-2005.001	1	3148.451	-39.55519	3.877656E-008	0.0135946	8
	1	3	794390.6	2831.947	-1998.816	1	3466.293	-35.21482	2.217685E-006	0.0123506	8
	2	4	630984.4	3228.214	-1925	1	3758.589	-30.80783	4.987114E-006	0.0113151	8
	3	6	501234.4	3589.501	-1797.51	1	4014.419	-26.60028	-2.375806E-006	0.0127911	8
	4	7	398109.4	3898.011	-1617.386	1	4220.24	-22.53483	-5.847631E-007	0.012255	8
	5	8	316265.6	4145.842	-1444.892	1	4390.413	-19.21426	-7.609175E-007	0.0122273	8
	6	10	251203.1	4347.415	-1233.243	1	4518.949	-15.83719	1.645235E-006	0.0121122	8
	7	11	199546.9	4483.474	-1073.532	1	4610.207	-13.4655	3.400063E-006	0.0117544	8
	8	13	158578.1	4602.419	-942.9278	1	4698.019	-11.57834	2.00425E-006	0.011835	8
	9	14	125953.1	4722.761	-747.9318	1	4781.619	-8.999052	2.253891E-007	0.0120637	7
	10	15	100078.1	4768.274	-645.8004	1	4811.808	-7.713032	-5.664446E-008	0.0124183	7
	11	17	79453.13	4819.65	-575.8461	1	4853.929	-6.813333	4.672589E-008	0.0121309	7
	12	18	63140.62	4864.646	-519.5719	1	4892.314	-6.096404	1.162385E-007	0.0121727	7
	13	19	50203.12	4902.468	-479.3923	1	4925.851	-5.584965	-8.350369E-009	0.0123323	7
	14	21	39890.62	4938.866	-453.2262	1	4959.618	-5.243191	-9.955282E-009	0.0123036	7
	15	22	31640.63	4974.267	-440.1746	1	4993.705	-5.056951	-5.527864E-008	0.0124041	7
	16	23	25171.88	5007.817	-438.054	1	5026.94	-4.999168	-3.345849E-008	0.012274	7
	17	25	20015.62	5037.616	-441.8344	1	5056.955	-5.012417	-5.654682E-009	0.012212	7
	18	26	15890.62	5074.274	-472.8573	1	5096.259	-5.323856	2.185453E-009	0.0122644	7
	19	27	12609.37	5109.292	-506.7566	1	5134.362	-5.664261	5.09124E-008	0.0122246	7
	20	29	10078.13	5144.68	-557.4343	1	5174.792	-6.183965	8.890977E-008	0.0120965	7
	21	30	8015.625	5182.031	-628.0594	1	5219.953	-6.910512	4.917153E-008	0.0121245	7
	22	32	6328.125	5221.221	-716.3731	1	5270.137	-7.812438	1.431211E-008	0.0121978	7
	23	33	5015.625	5264.81	-831.0643	1	5329.999	-8.970276	-8.152441E-008	0.0125225	7
	24	34	3984.375	5311.859	-979.789	1	5401.466	-10.45092	-3.213799E-008	0.0122724	7
	25	36	3170.956	5364.105	-1151.393	1	5486.286	-12.11459	-5.545678E-008	0.0123372	7
	26	37	2527.573	5424.176	-1371.107	1	5594.785	-14.18589	-4.424902E-008	0.0122866	7
	27	38	1976.103	5494.311	-1660.286	1	5739.687	-16.81392	1.595919E-008	0.012199	7
	28	40	1577.524	5568.051	-1994.425	1	5914.467	-19.70706	2.377433E-008	0.0123552	7
	29	41	1265.625	5653.792	-2390.389	1	6138.349	-22.91834	1.183037E-007	0.0121565	7
	30	42	998.264	5760.478	-2915.46	1	6456.238	-26.84462	-3.430912E-008	0.0122671	7
	31	44	796.875	5872.136	-3534.394	1	6853.753	-31.04342	1.242972E-007	0.0120812	7
	32	45	627.7902	6021.429	-4346.605	1	7426.344	-35.82386	-8.302966E-009	0.0122962	7
	33	46	505.5147	6175.186	-5253.635	1	8107.626	-40.38999	5.331145E-008	0.0121873	7
	34	48	397.9953	6383.618	-6489.631	1	9103.07	-45.47183	5.53393E-009	0.0122982	7
	35	49	315.5048	6636.815	-7980.761	1	10379.78	-50.25303	7.987698E-010	0.0122408	6
	36	50	252.4038	6935.494	-9747.54	1	11963.09	-54.56767	3.645789E-010	0.0122382	6
	37	52	198.6229	7343.802	-12093.94	1	14149.03	-58.73264	8.039414E-010	0.0122372	6
	38	53	158.3615	7840.316	-14833.49	1	16778.05	-62.14109	6.147074E-010	0.0122339	6
	39	54	125.558	8505.662	-18294.49	1	20175.1	-65.06487	9.217607E-010	0.0122354	6
	40	56	100.4464	9349.337	-22379.26	1	24253.69	-67.32639	5.573203E-010	0.0122301	6
	41	57	79.00281	10577.01	-27745.62	1	29693.31	-69.13246	4.47009E-010	0.0122289	6
	42	58	63.3446	12024.83	-33558.63	1	35647.98	-70.28622	6.214082E-010	0.0122296	6
	43	60	49.86702	14193.86	-41928.95	1	44266.27	-71.29792	1.044742E-009	0.0122248	6
	44	61	39.72458	16806.76	-50927.02	1	53628.62	-71.73626	1.044154E-009	0.0122274	6
	45	63	31.6723	20377	-62023.3	1	65284.85	-71.8127	1.295554E-009	0.0122334	6
	46	64	24.93351	25604.39	-75734.42	1	79945.52	-71.32057	9.673377E-010	0.0122326	6
	47	65	19.86229	31958.09	-91341.99	1	96771.3	-70.71644	1.381209E-009	0.0122415	6
	48	67	15.83615	41190.46	-108951.7	1	116478	-69.29032	-4.563244E-010	0.0122367	5
	49	68	12.40079	52275.48	-132094	1	142061.8	-68.40909	7.307746E-010	0.0122434	5
	50	69	9.93114	66177.33	-155138.8	1	168663.8	-66.89843	6.558217E-010	0.0122387	5
	51	71	7.944915	82822.87	-181473.5	1	199480	-65.46848	-1.715521E-010	0.0122386	5
	52	73	6.317385	103356.5	-210932.2	1	234893.5	-63.89521	-2.278566E-011	0.0122334	5
	53	75	5.008013	128038.9	-244548.1	1	276039.4	-62.36465	-1.938185E-010	0.0122336	5
	54	77	3.945707	157287.9	-282368.2	1	323220.1	-60.88083	3.01113E-010	0.0122442	5
	55	80	3.158693	188362.6	-322598.5	1	373564.2	-59.7197	-1.744279E-010	0.0122222	5
	56	83	2.504006	224713.3	-368996.8	1	432035.5	-58.65924	4.450604E-010	0.0122428	5
	57	86	1.998082	264856.3	-420058.1	1	496586	-57.76763	1.364837E-010	0.0122836	5
	58	89	1.584686	308872.7	-479326.6	1	570224.8	-57.20272	1.595029E-010	0.0122393	5
	59	93	1.266892	359262	-545832.8	1	653454.3	-56.64746	1.948584E-011	0.0122854	5
	60	97	0.999041	416228.7	-625790.7	1	751571.9	-56.37115	3.623302E-011	0.0122055	5
