EXPLAIN
TAG	EISPOT
TITLE	LABEL	Potentiostatic IDE	Test &Identifier
DATE	LABEL	9/4/2019	Date
TIME	LABEL	11:57:25	Time
NOTES	NOTES	1	&Notes...
	
PSTAT	PSTAT	REF600-11020	Potentiostat
VDC	POTEN	0.00000E+000	T	DC &Voltage (V)
FREQINIT	QUANT	1.00000E+006	Initial Fre&q. (Hz)
FREQFINAL	QUANT	1.00000E+000	Final Fre&q. (Hz)
PTSPERDEC	QUANT	1.00000E+001	Points/&decade
VAC	QUANT	2.50000E+001	AC &Voltage (mV rms)
AREA	QUANT	1.00000E-002	&Area (cm^2)
CONDIT	TWOPARAM	T	5.00000E+000	0.00000E+000	Conditionin&g	Time(s)	E(V)
DELAY	TWOPARAM	T	5.00000E+000	0.00000E+000	Init. De&lay	Time(s)	Stab.(mV/s)
SPEED	SELECTOR	1	&Optimize for:
ZGUESS	QUANT	1.00000E+007	E&stimated Z (ohms)
OCVCURVE	TABLE	19
	Pt	T	Vf	Vm	Ach	Over
	#	s	V vs. Ref.	V	V	bits
	0	0.258333	7.63617E-002	7.63617E-002	5.71499E-004	...........
	1	0.516667	7.63880E-002	7.77376E-002	5.72832E-004	...........
	2	0.775	7.65554E-002	7.93585E-002	5.72199E-004	...........
	3	1.03333	7.70457E-002	8.07270E-002	5.71566E-004	...........
	4	1.29167	7.79432E-002	8.18835E-002	5.72299E-004	...........
	5	1.55	7.91390E-002	8.30064E-002	5.74399E-004	...........
	6	1.80833	8.04368E-002	8.41097E-002	5.75032E-004	...........
	7	2.06667	8.16989E-002	8.51610E-002	5.72432E-004	...........
	8	2.325	8.28816E-002	8.61400E-002	5.71032E-004	...........
	9	2.58333	8.39926E-002	8.72087E-002	5.73699E-004	...........
	10	2.84167	8.50560E-002	8.83011E-002	5.72499E-004	...........
	11	3.1	8.61068E-002	8.96599E-002	5.77366E-004	...........
	12	3.35833	8.71879E-002	9.08398E-002	5.78865E-004	...........
	13	3.61667	8.83215E-002	9.17355E-002	5.77499E-004	...........
	14	3.875	8.94717E-002	9.24456E-002	5.73932E-004	...........
	15	4.13333	9.05566E-002	9.30959E-002	5.75465E-004	...........
	16	4.39167	9.15085E-002	9.36470E-002	5.72899E-004	...........
	17	4.65	9.23111E-002	9.41321E-002	5.71966E-004	...........
	18	4.90833	9.29857E-002	9.46089E-002	5.66432E-004	...........
EOC	QUANT	0.0929857	Open Circuit (V)
PSTATMODEL	IQUANT	4	Pstat Model
PSTATSECTION	LABEL	REF600-11020	Pstat Section
PSTATSERIALNO	LABEL	11020	Pstat Serial Number
CTRLMODE	IQUANT	1	Control Mode
IESTAB	IQUANT	0	I/E Stability
CASPEED	IQUANT	1	Control Amp Speed
CONVENTION	IQUANT	1	Current Convention
ICHRANGE	IQUANT	2	Ich Range
ICHRANGEMODE	TOGGLE	F	Ich Auto Range
ICHOFFSETENABLE	TOGGLE	T	Ich Offset Enable
ICHOFFSET	QUANT	0	Ich Offset (V)
ICHFILTER	IQUANT	3	Ich Filter
VCHRANGE	IQUANT	2	Vch Range
VCHRANGEMODE	TOGGLE	F	Vch Auto Range
VCHOFFSETENABLE	TOGGLE	T	Vch Offset Enable
VCHOFFSET	QUANT	0	Vch Offset (V)
VCHFILTER	IQUANT	3	Vch Filter
ACHRANGE	IQUANT	2	Ach Range
ACHOFFSETENABLE	TOGGLE	F	Ach Offset Enable
ACHOFFSET	QUANT	0	Ach Offset (V)
ACHFILTER	IQUANT	3	Ach Filter
IERANGELOWERLIMIT	IQUANT	1	I/E Range Lower Limit
IERANGEMODE	TOGGLE	F	I/E AutoRange
IERANGE	IQUANT	4	I/E Range
POSFEEDENABLE	TOGGLE	F	Positive Feedback IR Comp
POSFEEDRESISTANCE	QUANT	0	Positive Feedback Resistance (ohm)
ACHSELECT	IQUANT	0	Ach Select
CABLEID	IQUANT	14	Cable ID
DCCALDATE	LABEL	8/19/2019	DC Calibration Date
ACCALDATE	LABEL	8/19/2019	AC Calibration Date
THERMOSELECT	IQUANT	1	Thermo Select
FRAMEWORKVERSION	QUANT	6.33	Framework Version
INSTRUMENTVERSION	LABEL	3.50	Instrument Version
ZCURVE	TABLE
	Pt	Time	Freq	Zreal	Zimag	Zsig	Zmod	Zphz	Idc	Vdc	IERange
	#	s	Hz	ohm	ohm	V	ohm	°	A	V	#
	0	1	1000078	2403.306	-2177.955	1	3243.357	-42.1839	1.21494E-005	0.0943202	8
	1	3	794390.6	2840.253	-2113.094	1	3540.085	-36.64855	1.041543E-005	0.0939254	8
	2	5	630984.4	3243.275	-2001.526	1	3811.16	-31.68002	8.640395E-006	0.0943545	8
	3	6	501234.4	3556.058	-1813.847	1	3991.941	-27.02487	7.801648E-006	0.094594	8
	4	8	398109.4	3853.844	-1635.76	1	4186.625	-22.99874	1.018986E-005	0.094044	8
	5	9	316265.6	4075.474	-1447.659	1	4324.952	-19.55567	1.190514E-005	0.0936132	8
	6	11	251203.1	4243.009	-1318.585	1	4443.173	-17.26349	9.499357E-006	0.0940712	8
	7	12	199546.9	4383.293	-1191.445	1	4542.334	-15.20646	1.016233E-005	0.0940466	8
	8	14	158578.1	4491.511	-1058.616	1	4614.579	-13.26215	8.818534E-006	0.0943057	8
	9	15	125953.1	4578.532	-1033.011	1	4693.62	-12.71423	3.135275E-007	0.0951206	7
	10	17	100078.1	4653.215	-984.966	1	4756.319	-11.95162	8.115395E-007	0.0943636	7
	11	18	79453.13	4731.102	-988.537	1	4833.273	-11.80183	8.300671E-007	0.0943288	7
	12	20	63140.62	4807.001	-1018.787	1	4913.775	-11.96609	8.174747E-007	0.0943218	7
	13	21	50203.12	4886.109	-1078.426	1	5003.705	-12.44636	8.770047E-007	0.0942025	7
	14	22	39890.62	4978.628	-1173.727	1	5115.112	-13.26543	8.438627E-007	0.0942566	7
	15	24	31640.63	5074.051	-1294.067	1	5236.469	-14.30751	8.426015E-007	0.0942515	7
	16	25	25171.88	5179.31	-1450.304	1	5378.535	-15.64324	8.247366E-007	0.0942831	7
	17	26	20015.62	5305.962	-1647.203	1	5555.764	-17.24663	8.126005E-007	0.0943049	7
	18	28	15890.62	5444.438	-1885.594	1	5761.716	-19.10271	8.266228E-007	0.0942731	7
	19	29	12609.37	5610.015	-2180.025	1	6018.702	-21.23589	8.298498E-007	0.0942719	7
	20	30	10078.13	5794.343	-2523.292	1	6319.922	-23.53193	8.164428E-007	0.0943116	7
	21	32	8015.625	6012.331	-2930.078	1	6688.309	-25.98205	8.257254E-007	0.0943695	7
	22	33	6328.125	6274.775	-3434.601	1	7153.271	-28.69481	8.164028E-007	0.0943562	7
	23	34	5015.625	6570.039	-4021.346	1	7703.028	-31.46969	8.360063E-007	0.0943095	7
	24	36	3984.375	6916.579	-4716.065	1	8371.399	-34.2881	8.22837E-007	0.0942895	7
	25	37	3170.956	7319.361	-5527.501	1	9172.04	-37.0597	8.318865E-007	0.0943074	7
	26	38	2527.573	7782.437	-6483.874	1	10129.51	-39.7991	9.057066E-007	0.0941846	7
	27	40	1976.103	8378.24	-7703.585	1	11381.57	-42.59777	9.04941E-007	0.0941826	7
	28	41	1577.524	9007.366	-9030.246	1	12754.53	-45.07268	8.044716E-008	0.0943029	6
	29	42	1265.625	9734.81	-10563.4	1	14364.96	-47.33757	8.358862E-008	0.0941275	6
	30	43	998.264	10661.89	-12519.47	1	16444.24	-49.58147	7.599857E-008	0.0943188	6
	31	45	796.875	11698.1	-14713.86	1	18797.42	-51.51392	8.262727E-008	0.0943108	6
	32	46	627.7902	12988.31	-17474.96	1	21773.16	-53.37831	7.746769E-008	0.0943521	6
	33	47	505.5147	14389.95	-20405.68	1	24969.23	-54.80877	8.78867E-008	0.0942091	6
	34	49	397.9953	16181.1	-24226.78	1	29133.56	-56.26098	8.326484E-008	0.0938861	6
	35	50	315.5048	18256.5	-28632.08	1	33957.26	-57.47744	8.326989E-008	0.093885	6
	36	52	252.4038	20607.21	-33620.86	1	39433.73	-58.49464	8.335521E-008	0.0938887	6
	37	53	198.6229	23601.94	-39961.61	1	46411.01	-59.43325	8.340209E-008	0.093888	6
	38	54	158.3615	26961.76	-47016.36	1	54198.48	-60.16768	8.31649E-008	0.0938805	6
	39	56	125.558	31024.91	-55570.86	1	63644.84	-60.82561	8.339159E-008	0.0938842	6
	40	57	100.4464	35539.38	-65169.42	1	74230.05	-61.39467	8.340238E-008	0.0938827	6
	41	58	79.00281	41492.68	-77622.33	1	88016.3	-61.87346	8.311959E-008	0.0938797	6
	42	60	63.3446	46804.99	-90366.8	1	101768.7	-62.61835	8.294198E-008	0.0938792	6
	43	61	49.86702	56810.29	-107177.6	1	121303.1	-62.07383	8.334546E-008	0.0938758	6
	44	62	39.72458	64721.08	-125955.3	1	141610.5	-62.80401	8.368883E-009	0.0938874	5
	45	64	31.6723	75700.88	-147998	1	166234.8	-62.91029	8.685764E-009	0.0938881	5
	46	65	24.93351	87698.75	-175695.5	1	196367	-63.47384	8.360234E-009	0.0938866	5
	47	67	19.86229	101676.7	-206789.4	1	230434.4	-63.81702	8.362828E-009	0.0938862	5
	48	68	15.83615	116727.7	-242359.9	1	269005	-64.28316	8.630729E-009	0.0938894	5
	49	69	12.40079	136711.2	-289486.4	1	320144.2	-64.72076	8.002138E-009	0.0938971	5
	50	71	9.93114	159059.5	-343653.3	1	378678.6	-65.16301	8.409576E-009	0.0938886	5
	51	72	7.944915	181880.5	-406170.8	1	445033.9	-65.87749	8.107247E-009	0.0938959	5
	52	74	6.317385	214353.3	-482624.3	1	528084.8	-66.05203	8.310747E-009	0.0939046	5
	53	76	5.008013	251726.2	-575411.3	1	628063.9	-66.37198	8.388841E-009	0.0938978	5
	54	78	3.945707	296585.4	-692067.4	1	752941	-66.80245	8.306089E-008	0.0938902	6
	55	81	3.158693	348127.8	-819765.1	1	890622.1	-66.99063	8.257858E-009	0.0938761	5
	56	85	2.504006	417791.6	-980987	1	1066248	-66.93137	8.324117E-009	0.0941744	5
	57	88	1.998082	500147.8	-1165175	1	1267982	-66.76871	8.247217E-009	0.0942157	5
	58	91	1.584686	605406.1	-1387065	1	1513429	-66.42039	8.987598E-010	0.0941822	4
	59	94	1.266892	733074.9	-1640590	1	1796924	-65.92318	7.698213E-010	0.0942136	4
	60	99	0.999041	901729.9	-1953631	1	2151695	-65.22355	7.737104E-010	0.094144	4
