EXPLAIN
TAG	EISPOT
TITLE	LABEL	Potentiostatic EIS	Test &Identifier
DATE	LABEL	11/20/2019	Date
TIME	LABEL	11:17:22	Time
NOTES	NOTES	4	&Notes...
	
	
	
	
PSTAT	PSTAT	REF600-11020	Potentiostat
VDC	POTEN	0.00000E+000	T	DC &Voltage (V)
FREQINIT	QUANT	1.00000E+006	Initial Fre&q. (Hz)
FREQFINAL	QUANT	1.00000E+000	Final Fre&q. (Hz)
PTSPERDEC	QUANT	1.00000E+001	Points/&decade
VAC	QUANT	2.50000E+001	AC &Voltage (mV rms)
AREA	QUANT	1.00000E-002	&Area (cm^2)
CONDIT	TWOPARAM	T	5.00000E+000	0.00000E+000	Conditionin&g	Time(s)	E(V)
DELAY	TWOPARAM	T	5.00000E+000	0.00000E+000	Init. De&lay	Time(s)	Stab.(mV/s)
SPEED	SELECTOR	1	&Optimize for:
ZGUESS	QUANT	1.00000E+005	E&stimated Z (ohms)
OCVCURVE	TABLE	19
	Pt	T	Vf	Vm	Ach	Over
	#	s	V vs. Ref.	V	V	bits
	0	0.258333	4.25800E-003	4.25800E-003	5.51399E-004	...........
	1	0.516667	4.25274E-003	3.98284E-003	5.52133E-004	...........
	2	0.775	4.22008E-003	3.70207E-003	5.51599E-004	...........
	3	1.03333	4.12892E-003	3.56285E-003	5.50333E-004	...........
	4	1.29167	3.97368E-003	3.40179E-003	5.54766E-004	...........
	5	1.55	3.78532E-003	3.28839E-003	5.54266E-004	...........
	6	1.80833	3.60080E-003	3.14338E-003	5.52232E-004	...........
	7	2.06667	3.43637E-003	2.99127E-003	5.53166E-004	...........
	8	2.325	3.28792E-003	2.83539E-003	5.51899E-004	...........
	9	2.58333	3.14552E-003	2.74964E-003	5.47566E-004	...........
	10	2.84167	3.00639E-003	2.62228E-003	5.49099E-004	...........
	11	3.1	2.87337E-003	2.46187E-003	5.46833E-004	...........
	12	3.35833	2.74656E-003	2.42293E-003	5.46666E-004	...........
	13	3.61667	2.62739E-003	2.39130E-003	5.44099E-004	...........
	14	3.875	2.52457E-003	2.31413E-003	5.47333E-004	...........
	15	4.13333	2.44299E-003	2.22333E-003	5.50566E-004	...........
	16	4.39167	2.37400E-003	2.14003E-003	5.49833E-004	...........
	17	4.65	2.30466E-003	2.06049E-003	5.48833E-004	...........
	18	4.90833	2.22965E-003	2.00073E-003	5.51066E-004	...........
EOC	QUANT	0.0022297	Open Circuit (V)
PSTATMODEL	IQUANT	4	Pstat Model
PSTATSECTION	LABEL	REF600-11020	Pstat Section
PSTATSERIALNO	LABEL	11020	Pstat Serial Number
CTRLMODE	IQUANT	1	Control Mode
IESTAB	IQUANT	0	I/E Stability
CASPEED	IQUANT	1	Control Amp Speed
CONVENTION	IQUANT	1	Current Convention
ICHRANGE	IQUANT	2	Ich Range
ICHRANGEMODE	TOGGLE	F	Ich Auto Range
ICHOFFSETENABLE	TOGGLE	T	Ich Offset Enable
ICHOFFSET	QUANT	0	Ich Offset (V)
ICHFILTER	IQUANT	3	Ich Filter
VCHRANGE	IQUANT	2	Vch Range
VCHRANGEMODE	TOGGLE	F	Vch Auto Range
VCHOFFSETENABLE	TOGGLE	T	Vch Offset Enable
VCHOFFSET	QUANT	0	Vch Offset (V)
VCHFILTER	IQUANT	3	Vch Filter
ACHRANGE	IQUANT	2	Ach Range
ACHOFFSETENABLE	TOGGLE	F	Ach Offset Enable
ACHOFFSET	QUANT	0	Ach Offset (V)
ACHFILTER	IQUANT	3	Ach Filter
IERANGELOWERLIMIT	IQUANT	1	I/E Range Lower Limit
IERANGEMODE	TOGGLE	F	I/E AutoRange
IERANGE	IQUANT	4	I/E Range
POSFEEDENABLE	TOGGLE	F	Positive Feedback IR Comp
POSFEEDRESISTANCE	QUANT	0	Positive Feedback Resistance (ohm)
ACHSELECT	IQUANT	0	Ach Select
CABLEID	IQUANT	14	Cable ID
DCCALDATE	LABEL	8/19/2019	DC Calibration Date
ACCALDATE	LABEL	8/19/2019	AC Calibration Date
THERMOSELECT	IQUANT	1	Thermo Select
FRAMEWORKVERSION	QUANT	6.33	Framework Version
INSTRUMENTVERSION	LABEL	3.50	Instrument Version
ZCURVE	TABLE
	Pt	Time	Freq	Zreal	Zimag	Zsig	Zmod	Zphz	Idc	Vdc	IERange
	#	s	Hz	ohm	ohm	V	ohm	°	A	V	#
	0	2	1000078	2238.562	-2243.111	1	3169.023	-45.05816	4.796775E-006	0.0037385	8
	1	3	794390.6	2715.873	-2312.503	1	3567.02	-40.41362	-8.770088E-006	0.0051169	8
	2	5	630984.4	3199.58	-2306.02	1	3943.988	-35.78127	4.222668E-006	0.0034451	8
	3	6	501234.4	3651.081	-2209.199	1	4267.429	-31.17733	-8.309347E-007	0.0035972	8
	4	7	398109.4	4081.663	-2051.956	1	4568.424	-26.68984	6.700362E-006	0.0030938	8
	5	9	316265.6	4417.297	-1838.161	1	4784.491	-22.59356	-4.299676E-007	0.0035317	8
	6	10	251203.1	4692.408	-1625.88	1	4966.103	-19.11077	-1.66593E-007	0.003537	8
	7	12	199546.9	4912.602	-1418.181	1	5113.208	-16.10249	-5.617838E-007	0.0035383	8
	8	13	158578.1	5063.386	-1229.152	1	5210.441	-13.64479	5.348914E-006	0.0027982	8
	9	14	125953.1	5233.079	-1005.484	1	5328.8	-10.87627	-1.154216E-006	0.0025349	7
	10	16	100078.1	5307.385	-873.2707	1	5378.749	-9.343658	-7.0049E-007	0.0035862	7
	11	17	79453.13	5378.127	-768.1152	1	5432.702	-8.128133	-1.077852E-006	0.0053439	7
	12	18	63140.62	5441.366	-689.2806	1	5484.849	-7.219446	-7.018824E-007	0.003577	7
	13	20	50203.12	5493.119	-631.2187	1	5529.267	-6.555153	-1.194373E-006	0.0051529	7
	14	21	39890.62	5544.247	-592.0276	1	5575.767	-6.09508	1.306545E-007	0.0023992	7
	15	23	31640.63	5588.895	-567.1051	1	5617.593	-5.793972	3.603811E-007	0.0043157	7
	16	24	25171.88	5631.422	-556.5648	1	5658.858	-5.644328	7.798727E-007	0.0020144	7
	17	25	20015.62	5671.783	-549.2126	1	5698.312	-5.530848	-6.998665E-007	0.0035717	7
	18	27	15890.62	5713.906	-586.3553	1	5743.913	-5.859126	1.079182E-006	0.0026607	7
	19	28	12609.37	5748.258	-626.5131	1	5782.3	-6.220218	-7.018683E-007	0.0035726	7
	20	29	10078.13	5789.354	-684.7311	1	5829.707	-6.745275	1.306451E-007	0.0023949	7
	21	31	8015.625	5830.859	-776.4655	1	5882.331	-7.585158	5.824708E-007	0.0039916	7
	22	32	6328.125	5876.507	-878.4437	1	5941.801	-8.501848	-8.882156E-007	0.005391	7
	23	34	5015.625	5926.706	-1021.898	1	6014.16	-9.78289	5.113586E-008	0.0047124	7
	24	35	3984.375	6018.169	-1231.438	1	6142.866	-11.56424	9.894528E-007	0.0030786	7
	25	37	3170.956	6051.169	-1425.439	1	6216.793	-13.25518	9.923862E-007	0.003078	7
	26	38	2527.573	6114.351	-1697.333	1	6345.567	-15.51456	-1.078676E-006	0.0053223	7
	27	39	1976.103	6214.686	-2069.62	1	6550.24	-18.41883	9.737554E-007	0.0020924	7
	28	41	1577.524	6311.773	-2518.069	1	6795.525	-21.74943	1.0725E-006	0.0023224	7
	29	42	1265.625	6434.613	-2979.534	1	7090.971	-24.8464	5.865837E-007	0.0039835	7
	30	44	998.264	6582.995	-3631.913	1	7518.418	-28.88602	4.950996E-007	0.0020952	7
	31	45	796.875	6753.678	-4380.882	1	8050.111	-32.9701	-8.842009E-007	0.0053876	7
	32	47	627.7902	6974.91	-5354.777	1	8793.35	-37.51417	-1.18695E-006	0.0047873	7
	33	48	505.5147	7200.088	-6447.352	1	9664.86	-41.843	-2.923933E-007	0.0028975	7
	34	50	397.9953	7497.069	-7905.021	1	10894.74	-46.51722	7.638313E-010	0.0037144	6
	35	51	315.5048	7835.422	-9664.03	1	12441.36	-50.96549	2.151158E-010	0.003718	6
	36	52	252.4038	8224.017	-11742.47	1	14335.97	-54.99393	1.087175E-009	0.0037053	6
	37	54	198.6229	8735.828	-14502.7	1	16930.53	-58.93697	6.083993E-010	0.003714	6
	38	55	158.3615	9343.364	-17726.51	1	20038.15	-62.20699	7.151599E-010	0.0037105	6
	39	56	125.558	10132.17	-21802.36	1	24041.71	-65.07438	5.557314E-010	0.0037086	6
	40	58	100.4464	11110.67	-26622.68	1	28848.12	-67.34734	1.512547E-009	0.0036993	6
	41	59	79.00281	12539.41	-32949.17	1	35254.57	-69.16476	5.162882E-010	0.0037102	6
	42	61	63.3446	14417.06	-40410.01	1	42904.79	-70.36515	4.407607E-010	0.0037054	6
	43	62	49.86702	16341.5	-49763.68	1	52378.13	-71.82074	-5.383506E-011	0.0037053	6
	44	63	39.72458	19710.39	-60601.84	1	63726.63	-71.98319	8.720648E-010	0.0037044	6
	45	65	31.6723	23700.1	-73869.38	1	77578.22	-72.21178	4.185478E-010	0.0037058	6
	46	66	24.93351	29632.49	-90431.45	1	95162.7	-71.85712	3.1466E-010	0.0037099	6
	47	68	19.86229	37200.74	-109305.9	1	115462.9	-71.20471	3.361675E-010	0.0037128	5
	48	69	15.83615	46282.88	-131518.1	1	139424.3	-70.61239	-1.866698E-010	0.0037139	5
	49	71	12.40079	60844.86	-160234.3	1	171397.6	-69.20702	1.285767E-009	0.0037166	5
	50	72	9.93114	77162.38	-187524.1	1	202779	-67.63382	6.603261E-010	0.0037117	5
	51	74	7.944915	98502.9	-220065	1	241104.6	-65.88631	-2.002515E-010	0.0037036	5
	52	75	6.317385	124358.8	-256806.7	1	285332.8	-64.1614	5.756683E-010	0.0037237	5
	53	77	5.008013	156012.3	-297803.2	1	336194.3	-62.35099	5.41157E-010	0.0037257	5
	54	80	3.945707	195018.4	-343462.8	1	394966.9	-60.41206	1.278035E-010	0.003709	5
	55	83	3.158693	235734.1	-389079	1	454920.9	-58.78928	2.094563E-010	0.0037334	5
	56	86	2.504006	283399.9	-441583.5	1	524701.4	-57.30842	2.209997E-010	0.0037027	5
	57	89	1.998082	333797.1	-497563.6	1	599157.8	-56.1438	-7.333326E-011	0.0037521	5
	58	92	1.584686	390352.8	-562808.6	1	684929.8	-55.25559	2.527643E-010	0.003745	5
	59	95	1.266892	451380.1	-632948.3	1	777410.8	-54.50585	2.310661E-011	0.0037594	5
	60	100	0.999041	519958	-718711.9	1	887075.6	-54.11583	1.616116E-010	0.0036833	5
