EXPLAIN
TAG	EISPOT
TITLE	LABEL	Potentiostatic EIS	Test &Identifier
DATE	LABEL	10/14/2019	Date
TIME	LABEL	11:00:10	Time
NOTES	NOTES	1	&Notes...
	
PSTAT	PSTAT	REF600-11020	Potentiostat
VDC	POTEN	0.00000E+000	T	DC &Voltage (V)
FREQINIT	QUANT	1.00000E+006	Initial Fre&q. (Hz)
FREQFINAL	QUANT	1.00000E+000	Final Fre&q. (Hz)
PTSPERDEC	QUANT	1.00000E+001	Points/&decade
VAC	QUANT	2.50000E+001	AC &Voltage (mV rms)
AREA	QUANT	1.00000E-002	&Area (cm^2)
CONDIT	TWOPARAM	T	5.00000E+000	0.00000E+000	Conditionin&g	Time(s)	E(V)
DELAY	TWOPARAM	T	5.00000E+000	0.00000E+000	Init. De&lay	Time(s)	Stab.(mV/s)
SPEED	SELECTOR	1	&Optimize for:
ZGUESS	QUANT	1.00000E+004	E&stimated Z (ohms)
OCVCURVE	TABLE	19
	Pt	T	Vf	Vm	Ach	Over
	#	s	V vs. Ref.	V	V	bits
	0	0.258333	3.78121E-003	3.78121E-003	5.65132E-004	...........
	1	0.516667	3.77820E-003	3.62363E-003	5.65999E-004	...........
	2	0.775	3.76024E-003	3.50175E-003	5.62632E-004	...........
	3	1.03333	3.71125E-003	3.38849E-003	5.73599E-004	...........
	4	1.29167	3.62711E-003	3.27067E-003	5.65232E-004	...........
	5	1.55	3.52000E-003	3.19957E-003	5.66966E-004	...........
	6	1.80833	3.40753E-003	3.11999E-003	5.72199E-004	...........
	7	2.06667	3.30256E-003	3.03647E-003	5.65099E-004	...........
	8	2.325	3.20940E-003	2.97628E-003	5.71532E-004	...........
	9	2.58333	3.12656E-003	2.91628E-003	5.72499E-004	...........
	10	2.84167	3.05214E-003	2.86507E-003	5.72266E-004	...........
	11	3.1	2.98529E-003	2.80975E-003	5.75832E-004	...........
	12	3.35833	2.92491E-003	2.76759E-003	5.70699E-004	...........
	13	3.61667	2.86970E-003	2.71977E-003	5.73099E-004	...........
	14	3.875	2.81862E-003	2.67875E-003	5.71199E-004	...........
	15	4.13333	2.77087E-003	2.63798E-003	5.75232E-004	...........
	16	4.39167	2.72586E-003	2.60001E-003	5.70732E-004	...........
	17	4.65	2.68318E-003	2.56179E-003	5.70166E-004	...........
	18	4.90833	2.64257E-003	2.52934E-003	5.64299E-004	...........
EOC	QUANT	0.0026426	Open Circuit (V)
PSTATMODEL	IQUANT	4	Pstat Model
PSTATSECTION	LABEL	REF600-11020	Pstat Section
PSTATSERIALNO	LABEL	11020	Pstat Serial Number
CTRLMODE	IQUANT	1	Control Mode
IESTAB	IQUANT	0	I/E Stability
CASPEED	IQUANT	1	Control Amp Speed
CONVENTION	IQUANT	1	Current Convention
ICHRANGE	IQUANT	2	Ich Range
ICHRANGEMODE	TOGGLE	F	Ich Auto Range
ICHOFFSETENABLE	TOGGLE	T	Ich Offset Enable
ICHOFFSET	QUANT	0	Ich Offset (V)
ICHFILTER	IQUANT	3	Ich Filter
VCHRANGE	IQUANT	2	Vch Range
VCHRANGEMODE	TOGGLE	F	Vch Auto Range
VCHOFFSETENABLE	TOGGLE	T	Vch Offset Enable
VCHOFFSET	QUANT	0	Vch Offset (V)
VCHFILTER	IQUANT	3	Vch Filter
ACHRANGE	IQUANT	2	Ach Range
ACHOFFSETENABLE	TOGGLE	F	Ach Offset Enable
ACHOFFSET	QUANT	0	Ach Offset (V)
ACHFILTER	IQUANT	3	Ach Filter
IERANGELOWERLIMIT	IQUANT	1	I/E Range Lower Limit
IERANGEMODE	TOGGLE	F	I/E AutoRange
IERANGE	IQUANT	5	I/E Range
POSFEEDENABLE	TOGGLE	F	Positive Feedback IR Comp
POSFEEDRESISTANCE	QUANT	0	Positive Feedback Resistance (ohm)
ACHSELECT	IQUANT	0	Ach Select
CABLEID	IQUANT	14	Cable ID
DCCALDATE	LABEL	8/19/2019	DC Calibration Date
ACCALDATE	LABEL	8/19/2019	AC Calibration Date
THERMOSELECT	IQUANT	1	Thermo Select
FRAMEWORKVERSION	QUANT	6.33	Framework Version
INSTRUMENTVERSION	LABEL	3.50	Instrument Version
ZCURVE	TABLE
	Pt	Time	Freq	Zreal	Zimag	Zsig	Zmod	Zphz	Idc	Vdc	IERange
	#	s	Hz	ohm	ohm	V	ohm	°	A	V	#
	0	2	1000078	2623.68	-1853.598	1	3212.402	-35.24075	-2.4952E-006	0.0049987	8
	1	3	794390.6	3001.861	-1765.244	1	3482.421	-30.45764	5.725155E-006	0.0039117	8
	2	4	630984.4	3310.793	-1624.207	1	3687.736	-26.13161	-2.387141E-006	0.0049309	8
	3	6	501234.4	3577.383	-1461.176	1	3864.286	-22.21748	4.447196E-006	0.0037891	8
	4	7	398109.4	3802.127	-1277.839	1	4011.115	-18.57674	-1.532352E-007	0.0043767	8
	5	9	316265.6	3965.173	-1116	1	4119.229	-15.71928	8.906517E-007	0.0042218	8
	6	10	251203.1	4084.922	-970.311	1	4198.583	-13.36211	5.168716E-007	0.004384	8
	7	11	199546.9	4182.723	-834.0906	1	4265.076	-11.27761	8.535763E-008	0.0043941	8
	8	13	158578.1	4245.636	-728.5103	1	4307.686	-9.73658	-1.122848E-006	0.0045751	8
	9	14	125953.1	4328.481	-601.8195	1	4370.118	-7.915494	1.145443E-006	0.0022326	7
	10	15	100078.1	4369.009	-546.9966	1	4403.118	-7.136256	-5.33596E-008	0.0044907	7
	11	17	79453.13	4411.42	-513.8107	1	4441.242	-6.643468	-5.946517E-008	0.0044122	7
	12	18	63140.62	4452.297	-494.4999	1	4479.674	-6.337653	3.830444E-008	0.0042764	7
	13	20	50203.12	4493.117	-487.2986	1	4519.464	-6.189791	1.860415E-009	0.0044132	7
	14	21	39890.62	4536.199	-491.9621	1	4562.798	-6.189678	-2.490262E-008	0.0043209	7
	15	22	31640.63	4580.238	-509.1165	1	4608.446	-6.342677	7.857554E-008	0.0042614	7
	16	24	25171.88	4626.507	-537.8973	1	4657.671	-6.631675	-3.328189E-008	0.004321	7
	17	25	20015.62	4693.377	-578.136	1	4728.851	-7.02239	-3.817317E-008	0.0043564	7
	18	26	15890.62	4732.845	-631.0647	1	4774.731	-7.594866	2.305769E-009	0.0044137	7
	19	28	12609.37	4794.021	-697.936	1	4844.56	-8.283193	7.394524E-008	0.004155	7
	20	29	10078.13	4856.801	-775.6686	1	4918.351	-9.073948	2.077604E-009	0.0044084	7
	21	30	8015.625	4931.072	-871.2054	1	5007.442	-10.01943	-2.475261E-008	0.004309	7
	22	32	6328.125	5005.831	-992.593	1	5103.292	-11.21555	-1.252281E-008	0.0043322	7
	23	33	5015.625	5089.616	-1135.891	1	5214.829	-12.58099	-1.216807E-008	0.0043346	7
	24	34	3984.375	5183.16	-1316.5	1	5347.739	-14.2515	-3.321551E-009	0.0043421	7
	25	36	3170.956	5275.131	-1516.538	1	5488.797	-16.03931	2.599548E-009	0.0042485	7
	26	37	2527.573	5378.676	-1767.503	1	5661.645	-18.1912	-3.47782E-009	0.0043416	7
	27	38	1976.103	5505.525	-2103.633	1	5893.732	-20.9116	7.454372E-008	0.004153	7
	28	40	1577.524	5618.508	-2487.245	1	6144.43	-23.87839	-3.67341E-008	0.0043511	7
	29	41	1265.625	5772.036	-2927.34	1	6471.917	-26.89225	-2.777523E-008	0.0043055	7
	30	42	998.264	5944.689	-3517.496	1	6907.396	-30.61297	-2.886203E-008	0.0043797	7
	31	44	796.875	6132.896	-4198.063	1	7432.103	-34.39225	4.434481E-009	0.0042456	7
	32	45	627.7902	6358.071	-5080.018	1	8138.283	-38.62441	5.098165E-009	0.0042431	7
	33	46	505.5147	6594.887	-6068.024	1	8961.777	-42.61749	-3.119771E-008	0.0043074	7
	34	48	397.9953	6896.421	-7396.502	1	10112.81	-47.00385	7.838377E-010	0.0042573	6
	35	49	315.5048	7236.627	-8996.527	1	11545.83	-51.1875	8.873783E-010	0.0042579	6
	36	51	252.4038	7622.28	-10886.02	1	13289.27	-55.00069	2.487778E-010	0.0042541	6
	37	52	198.6229	8124.261	-13391.78	1	15663.44	-58.75647	9.734997E-010	0.004255	6
	38	53	158.3615	8709.802	-16324.19	1	18502.43	-61.91777	1.150042E-009	0.0042527	6
	39	55	125.558	9466.788	-20018.35	1	22143.94	-64.69027	6.545305E-010	0.0042563	6
	40	56	100.4464	10409.15	-24392.45	1	26520.6	-66.89029	5.838666E-010	0.0042492	6
	41	57	79.00281	11658.84	-30093.85	1	32273.34	-68.82282	1.022343E-009	0.0042457	6
	42	59	63.3446	12955.44	-36757.13	1	38973.46	-70.58445	7.376715E-010	0.0042456	6
	43	60	49.86702	15473.75	-44922.41	1	47512.73	-70.99348	9.939538E-010	0.004246	6
	44	62	39.72458	18282.85	-55009.67	1	57968.32	-71.61542	9.908278E-010	0.0042529	6
	45	63	31.6723	21821.57	-67025.05	1	70487.86	-71.96613	1.152678E-009	0.0042518	6
	46	64	24.93351	26950.88	-81895.51	1	86216.15	-71.78421	1.571395E-010	0.0042489	6
	47	66	19.86229	33390.82	-98957	1	104438.6	-71.35418	6.037669E-010	0.0042443	6
	48	67	15.83615	41284	-118505.3	1	125490.5	-70.79306	4.545667E-010	0.0042546	5
	49	68	12.40079	52862.56	-143669	1	153085.8	-69.79907	-3.137449E-010	0.004262	5
	50	70	9.93114	67254.85	-172008.8	1	184689.5	-68.64467	4.030138E-010	0.0042589	5
	51	71	7.944915	84465.22	-203602.1	1	220427.3	-67.46867	1.219792E-010	0.0042509	5
	52	73	6.317385	106813.7	-239119.5	1	261891.8	-65.92987	5.823848E-011	0.0042478	5
	53	75	5.008013	135154.5	-280457.6	1	311324.9	-64.27026	-1.343229E-010	0.004248	5
	54	77	3.945707	170746.5	-327221.6	1	369091.2	-62.44413	3.629284E-010	0.0042556	5
	55	80	3.158693	210722.9	-375740.9	1	430796.2	-60.71544	-1.222343E-010	0.0042444	5
	56	83	2.504006	259577	-429565.8	1	501903.4	-58.85637	5.24838E-010	0.0042525	5
	57	86	1.998082	313801.1	-484799.6	1	577496.1	-57.08583	2.193287E-011	0.0042995	5
	58	89	1.584686	374400.3	-546758.4	1	662661.6	-55.59808	2.548239E-010	0.0042702	5
	59	93	1.266892	441449.8	-610044.4	1	753015.4	-54.10917	-7.628671E-011	0.0043	5
	60	97	0.999041	516460.3	-682493.8	1	855879.1	-52.88428	1.490728E-010	0.0042307	5
