EXPLAIN
TAG	EISPOT
TITLE	LABEL	Potentiostatic EIS	Test &Identifier
DATE	LABEL	11/11/2019	Date
TIME	LABEL	11:48:02	Time
NOTES	NOTES	3	&Notes...
	
	
	
PSTAT	PSTAT	REF600-11020	Potentiostat
VDC	POTEN	0.00000E+000	T	DC &Voltage (V)
FREQINIT	QUANT	1.00000E+006	Initial Fre&q. (Hz)
FREQFINAL	QUANT	1.00000E+000	Final Fre&q. (Hz)
PTSPERDEC	QUANT	1.00000E+001	Points/&decade
VAC	QUANT	2.50000E+001	AC &Voltage (mV rms)
AREA	QUANT	1.00000E-002	&Area (cm^2)
CONDIT	TWOPARAM	T	5.00000E+000	0.00000E+000	Conditionin&g	Time(s)	E(V)
DELAY	TWOPARAM	T	5.00000E+000	0.00000E+000	Init. De&lay	Time(s)	Stab.(mV/s)
SPEED	SELECTOR	1	&Optimize for:
ZGUESS	QUANT	1.00000E+005	E&stimated Z (ohms)
OCVCURVE	TABLE	19
	Pt	T	Vf	Vm	Ach	Over
	#	s	V vs. Ref.	V	V	bits
	0	0.258333	1.20841E-003	1.20841E-003	6.10532E-004	...........
	1	0.516667	1.20165E-003	8.54590E-004	6.19365E-004	...........
	2	0.775	1.15779E-003	3.96295E-004	6.14232E-004	...........
	3	1.03333	1.02719E-003	2.20729E-005	6.14465E-004	...........
	4	1.29167	7.85045E-004	-2.75112E-004	6.15598E-004	...........
	5	1.55	4.61797E-004	-5.28186E-004	6.13698E-004	...........
	6	1.80833	1.16946E-004	-7.72331E-004	6.12698E-004	...........
	7	2.06667	-2.05133E-004	-1.00759E-003	6.11998E-004	...........
	8	2.325	-4.90609E-004	-1.20501E-003	6.17665E-004	...........
	9	2.58333	-7.54262E-004	-1.94354E-003	6.13932E-004	...........
	10	2.84167	-1.02720E-003	-1.62182E-003	6.17565E-004	...........
	11	3.1	-1.30514E-003	-1.70361E-003	6.14465E-004	...........
	12	3.35833	-1.53048E-003	-1.81997E-003	6.27131E-004	...........
	13	3.61667	-1.67338E-003	-2.10398E-003	6.26098E-004	...........
	14	3.875	-1.77987E-003	-2.36120E-003	6.21932E-004	...........
	15	4.13333	-1.91217E-003	-2.47512E-003	6.25831E-004	...........
	16	4.39167	-2.08482E-003	-2.57851E-003	6.26065E-004	...........
	17	4.65	-2.26909E-003	-2.73928E-003	6.23598E-004	...........
	18	4.90833	-2.43799E-003	-2.90264E-003	6.22398E-004	...........
EOC	QUANT	-0.002438	Open Circuit (V)
PSTATMODEL	IQUANT	4	Pstat Model
PSTATSECTION	LABEL	REF600-11020	Pstat Section
PSTATSERIALNO	LABEL	11020	Pstat Serial Number
CTRLMODE	IQUANT	1	Control Mode
IESTAB	IQUANT	0	I/E Stability
CASPEED	IQUANT	1	Control Amp Speed
CONVENTION	IQUANT	1	Current Convention
ICHRANGE	IQUANT	2	Ich Range
ICHRANGEMODE	TOGGLE	F	Ich Auto Range
ICHOFFSETENABLE	TOGGLE	T	Ich Offset Enable
ICHOFFSET	QUANT	0	Ich Offset (V)
ICHFILTER	IQUANT	3	Ich Filter
VCHRANGE	IQUANT	2	Vch Range
VCHRANGEMODE	TOGGLE	F	Vch Auto Range
VCHOFFSETENABLE	TOGGLE	T	Vch Offset Enable
VCHOFFSET	QUANT	0	Vch Offset (V)
VCHFILTER	IQUANT	3	Vch Filter
ACHRANGE	IQUANT	2	Ach Range
ACHOFFSETENABLE	TOGGLE	F	Ach Offset Enable
ACHOFFSET	QUANT	0	Ach Offset (V)
ACHFILTER	IQUANT	3	Ach Filter
IERANGELOWERLIMIT	IQUANT	1	I/E Range Lower Limit
IERANGEMODE	TOGGLE	F	I/E AutoRange
IERANGE	IQUANT	4	I/E Range
POSFEEDENABLE	TOGGLE	F	Positive Feedback IR Comp
POSFEEDRESISTANCE	QUANT	0	Positive Feedback Resistance (ohm)
ACHSELECT	IQUANT	0	Ach Select
CABLEID	IQUANT	14	Cable ID
DCCALDATE	LABEL	8/19/2019	DC Calibration Date
ACCALDATE	LABEL	8/19/2019	AC Calibration Date
THERMOSELECT	IQUANT	1	Thermo Select
FRAMEWORKVERSION	QUANT	6.33	Framework Version
INSTRUMENTVERSION	LABEL	3.50	Instrument Version
ZCURVE	TABLE
	Pt	Time	Freq	Zreal	Zimag	Zsig	Zmod	Zphz	Idc	Vdc	IERange
	#	s	Hz	ohm	ohm	V	ohm	°	A	V	#
	0	2	1000078	2254.673	-1632.806	1	2783.811	-35.91158	3.758338E-006	-0.0014019	8
	1	4	794390.6	2567.133	-1609.734	1	3030.085	-32.08998	-4.512158E-006	-0.0007782	8
	2	5	630984.4	2870.647	-1553.286	1	3263.941	-28.41749	-4.196221E-006	-0.0003925	8
	3	6	501234.4	3147.866	-1461.607	1	3470.642	-24.90623	-8.26197E-007	-0.0004566	8
	4	8	398109.4	3388.846	-1350.671	1	3648.094	-21.73043	-3.414583E-007	-0.000461	8
	5	9	316265.6	3591.302	-1227.414	1	3795.26	-18.86909	1.931206E-006	-0.0006874	8
	6	10	251203.1	3770.776	-1101.07	1	3928.245	-16.27786	-4.493601E-006	-0.0006241	8
	7	12	199546.9	3909.87	-975.083	1	4029.625	-14.00335	-1.966293E-006	-0.0008158	8
	8	13	158578.1	4029.057	-879.7603	1	4123.988	-12.31743	-7.501454E-007	-0.0005553	8
	9	14	125953.1	4118.251	-728.5969	1	4182.206	-10.03289	-1.186224E-006	-0.0021511	7
	10	16	100078.1	4214.844	-636.8192	1	4262.681	-8.591813	1.01088E-007	-0.0023521	7
	11	17	79453.13	4270.328	-586.4122	1	4310.404	-7.819096	-1.205804E-006	7.629678E-005	7
	12	19	63140.62	4324.463	-545.7131	1	4358.76	-7.192258	-1.042568E-006	-0.0004876	7
	13	20	50203.12	4381.904	-523.9989	1	4413.124	-6.819189	3.966923E-007	-0.00051	7
	14	21	39890.62	4433.121	-508.1599	1	4462.15	-6.539162	8.362585E-007	-0.0012696	7
	15	23	31640.63	4467.538	-501.4233	1	4495.589	-6.40391	-1.2078E-006	0.000421	7
	16	24	25171.88	4512.177	-507.7202	1	4540.652	-6.420045	-7.349603E-007	-0.0011592	7
	17	25	20015.62	4552.856	-514.2386	1	4581.806	-6.444166	-1.206148E-006	6.288305E-005	7
	18	27	15890.62	4607.274	-558.6512	1	4641.02	-6.913602	6.167379E-007	-0.0008412	7
	19	28	12609.37	4655.834	-600.8385	1	4694.443	-7.353417	9.646791E-007	-0.0027092	7
	20	29	10078.13	4691.313	-657.2525	1	4737.129	-7.975225	-1.077538E-006	0.0005774	7
	21	31	8015.625	4748.474	-729.2364	1	4804.143	-8.730861	7.58562E-007	-0.0027799	7
	22	32	6328.125	4799.455	-833.6204	1	4871.313	-9.85344	-2.718613E-007	0.0002916	7
	23	34	5015.625	4859.448	-960.843	1	4953.529	-11.18464	7.577665E-007	-0.0027835	7
	24	35	3984.375	4906.78	-1102.884	1	5029.199	-12.6677	-2.708736E-007	0.0002918	7
	25	36	3170.956	4978.874	-1311.475	1	5148.704	-14.75696	1.001566E-007	-0.0023727	7
	26	38	2527.573	5050.602	-1548.297	1	5282.595	-17.04328	-3.220244E-007	-0.0018616	7
	27	39	1976.103	5154.049	-1873.046	1	5483.842	-19.97178	1.098052E-006	-0.0021797	7
	28	40	1577.524	5235.875	-2201.529	1	5679.886	-22.8053	1.004395E-007	-0.0023739	7
	29	42	1265.625	5359.079	-2664.867	1	5985.085	-26.43942	9.662903E-007	-0.0027112	7
	30	43	998.264	5493.813	-3221.258	1	6368.555	-30.38492	-1.203364E-006	0.0004142	7
	31	45	796.875	5652.133	-3875.732	1	6853.313	-34.43887	-7.313567E-007	-0.0011645	7
	32	46	627.7902	5846.135	-4730.441	1	7520.264	-38.97829	4.638129E-007	-0.0026752	7
	33	48	505.5147	6039.72	-5686.131	1	8295.198	-43.27279	1.014405E-006	-0.0017604	7
	34	49	397.9953	6304.775	-6947.921	1	9382.1	-47.77835	6.62383E-009	-0.0010123	7
	35	51	315.5048	6606.842	-8483.596	1	10752.76	-52.08931	1.396967E-009	-0.0010644	6
	36	52	252.4038	6949.319	-10302.53	1	12427.19	-55.99933	9.13103E-010	-0.0010689	6
	37	53	198.6229	7398.143	-12719.42	1	14714.49	-59.81595	1.455392E-009	-0.0010723	6
	38	55	158.3615	7931.181	-15544.2	1	17450.66	-62.96777	1.054051E-009	-0.0010772	6
	39	56	125.558	8633.68	-19111.53	1	20971.19	-65.6888	1.241073E-009	-0.0010816	6
	40	58	100.4464	9511.48	-23287.58	1	25155.11	-67.78314	9.149445E-010	-0.0010757	6
	41	59	79.00281	10772.66	-28873.32	1	30817.51	-69.53941	1.299988E-009	-0.0010811	6
	42	60	63.3446	12330.08	-35411.11	1	37496.37	-70.80199	1.650995E-010	-0.001068	6
	43	62	49.86702	14030.7	-43272.02	1	45489.87	-72.03501	4.227883E-010	-0.0010851	6
	44	63	39.72458	16861.11	-52859.08	1	55483.15	-72.30824	7.947115E-010	-0.0010729	6
	45	64	31.6723	20558.89	-64156.59	1	67370.14	-72.23202	4.436619E-010	-0.0010721	6
	46	66	24.93351	25240.78	-78776.63	1	82721.55	-72.23405	1.096196E-009	-0.0010768	6
	47	67	19.86229	31288.14	-95317.9	1	100321.8	-71.82756	1.371951E-009	-0.0010762	6
	48	69	15.83615	39555.18	-114458.1	1	121100.3	-70.93554	7.438752E-010	-0.0010619	5
	49	70	12.40079	50299.17	-140834.7	1	149547.4	-70.34579	1.457832E-009	-0.0010731	5
	50	71	9.93114	64382.47	-165798.4	1	177860.1	-68.77792	3.976993E-011	-0.0010722	5
	51	73	7.944915	80361.7	-195831.2	1	211678.7	-67.68861	-1.450814E-010	-0.001072	5
	52	75	6.317385	103841.8	-230314	1	252641.4	-65.7308	-2.475498E-011	-0.0010718	5
	53	77	5.008013	132205.9	-269867.6	1	300511.1	-63.90015	-3.368829E-011	-0.0010654	5
	54	79	3.945707	167417.6	-313697.4	1	355576.6	-61.91154	3.547557E-011	-0.0010661	5
	55	82	3.158693	206973.2	-357278	1	412898.9	-59.91604	2.639911E-010	-0.0010673	5
	56	85	2.504006	253783.4	-406669.7	1	479360.2	-58.03366	4.02278E-011	-0.0010571	5
	57	88	1.998082	303789.5	-455996.4	1	547924.1	-56.32804	5.171801E-010	-0.0010973	5
	58	91	1.584686	360236.6	-511872.5	1	625926.4	-54.86356	1.170388E-010	-0.0011048	5
	59	95	1.266892	420667.3	-571220.6	1	709403.9	-53.63074	4.156862E-010	-0.0011028	5
	60	99	0.999041	488191.3	-642499.4	1	806930.1	-52.77129	-1.010999E-011	-0.001053	5
