EXPLAIN
TAG	EISPOT
TITLE	LABEL	Potentiostatic EIS	Test &Identifier
DATE	LABEL	10/16/2019	Date
TIME	LABEL	9:18:45	Time
NOTES	NOTES	1	&Notes...
	
PSTAT	PSTAT	REF600-11020	Potentiostat
VDC	POTEN	0.00000E+000	T	DC &Voltage (V)
FREQINIT	QUANT	1.00000E+006	Initial Fre&q. (Hz)
FREQFINAL	QUANT	1.00000E+000	Final Fre&q. (Hz)
PTSPERDEC	QUANT	1.00000E+001	Points/&decade
VAC	QUANT	2.50000E+001	AC &Voltage (mV rms)
AREA	QUANT	1.00000E-002	&Area (cm^2)
CONDIT	TWOPARAM	T	5.00000E+000	0.00000E+000	Conditionin&g	Time(s)	E(V)
DELAY	TWOPARAM	T	5.00000E+000	0.00000E+000	Init. De&lay	Time(s)	Stab.(mV/s)
SPEED	SELECTOR	0	&Optimize for:
ZGUESS	QUANT	1.00000E+005	E&stimated Z (ohms)
OCVCURVE	TABLE	19
	Pt	T	Vf	Vm	Ach	Over
	#	s	V vs. Ref.	V	V	bits
	0	0.258333	6.46307E-003	6.46307E-003	5.13200E-004	...........
	1	0.516667	6.46011E-003	6.30845E-003	5.09900E-004	...........
	2	0.775	6.44266E-003	6.19759E-003	5.16100E-004	...........
	3	1.03333	6.39598E-003	6.11399E-003	5.12733E-004	...........
	4	1.29167	6.31917E-003	6.05582E-003	5.16366E-004	...........
	5	1.55	6.22790E-003	5.96656E-003	5.26933E-004	...........
	6	1.80833	6.13800E-003	5.89505E-003	5.22800E-004	...........
	7	2.06667	6.05516E-003	5.84598E-003	5.18500E-004	...........
	8	2.325	5.97992E-003	5.80246E-003	5.26666E-004	...........
	9	2.58333	5.91340E-003	5.75662E-003	5.16733E-004	...........
	10	2.84167	5.85630E-003	5.72387E-003	5.12900E-004	...........
	11	3.1	5.80760E-003	5.69574E-003	5.18300E-004	...........
	12	3.35833	5.76585E-003	5.66333E-003	5.19066E-004	...........
	13	3.61667	5.72964E-003	5.63755E-003	5.21200E-004	...........
	14	3.875	5.69752E-003	5.61679E-003	5.24066E-004	...........
	15	4.13333	5.66856E-003	5.59458E-003	5.10833E-004	...........
	16	4.39167	5.64253E-003	5.57747E-003	5.16566E-004	...........
	17	4.65	5.61903E-003	5.54871E-003	5.17433E-004	...........
	18	4.90833	5.59703E-003	5.53301E-003	5.18700E-004	...........
EOC	QUANT	0.005597	Open Circuit (V)
PSTATMODEL	IQUANT	4	Pstat Model
PSTATSECTION	LABEL	REF600-11020	Pstat Section
PSTATSERIALNO	LABEL	11020	Pstat Serial Number
CTRLMODE	IQUANT	1	Control Mode
IESTAB	IQUANT	0	I/E Stability
CASPEED	IQUANT	1	Control Amp Speed
CONVENTION	IQUANT	1	Current Convention
ICHRANGE	IQUANT	2	Ich Range
ICHRANGEMODE	TOGGLE	F	Ich Auto Range
ICHOFFSETENABLE	TOGGLE	T	Ich Offset Enable
ICHOFFSET	QUANT	0	Ich Offset (V)
ICHFILTER	IQUANT	3	Ich Filter
VCHRANGE	IQUANT	2	Vch Range
VCHRANGEMODE	TOGGLE	F	Vch Auto Range
VCHOFFSETENABLE	TOGGLE	T	Vch Offset Enable
VCHOFFSET	QUANT	0	Vch Offset (V)
VCHFILTER	IQUANT	3	Vch Filter
ACHRANGE	IQUANT	2	Ach Range
ACHOFFSETENABLE	TOGGLE	F	Ach Offset Enable
ACHOFFSET	QUANT	0	Ach Offset (V)
ACHFILTER	IQUANT	3	Ach Filter
IERANGELOWERLIMIT	IQUANT	1	I/E Range Lower Limit
IERANGEMODE	TOGGLE	F	I/E AutoRange
IERANGE	IQUANT	5	I/E Range
POSFEEDENABLE	TOGGLE	F	Positive Feedback IR Comp
POSFEEDRESISTANCE	QUANT	0	Positive Feedback Resistance (ohm)
ACHSELECT	IQUANT	0	Ach Select
CABLEID	IQUANT	14	Cable ID
DCCALDATE	LABEL	8/19/2019	DC Calibration Date
ACCALDATE	LABEL	8/19/2019	AC Calibration Date
THERMOSELECT	IQUANT	1	Thermo Select
FRAMEWORKVERSION	QUANT	6.33	Framework Version
INSTRUMENTVERSION	LABEL	3.50	Instrument Version
ZCURVE	TABLE
	Pt	Time	Freq	Zreal	Zimag	Zsig	Zmod	Zphz	Idc	Vdc	IERange
	#	s	Hz	ohm	ohm	V	ohm	°	A	V	#
	0	1	1000078	2511.965	-1368.069	1	2860.346	-28.57363	-1.511054E-006	0.0078233	8
	1	1	794390.6	2758.455	-1254.316	1	3030.245	-24.45209	1.785962E-006	0.0072204	8
	2	2	630984.4	2958.465	-1122.66	1	3164.314	-20.78044	-1.31582E-006	0.0076161	8
	3	2	501234.4	3122.521	-984.441	1	3274.029	-17.49856	-2.356082E-006	0.0077157	8
	4	2	398109.4	3245.123	-844.7245	1	3353.265	-14.59063	-2.309485E-006	0.0076806	8
	5	3	316265.6	3336.046	-729.9802	1	3414.978	-12.3427	2.193208E-007	0.0071426	8
	6	3	251203.1	3400.265	-621.2405	1	3456.551	-10.35394	-3.817234E-007	0.0071699	8
	7	3	199546.9	3457.175	-536.759	1	3498.595	-8.825247	4.371605E-007	0.0069037	8
	8	3	158578.1	3491.409	-464.732	1	3522.203	-7.581918	1.189552E-006	0.0068364	8
	9	4	125953.1	3551.248	-371.4739	1	3570.624	-5.971637	1.395436E-007	0.0066064	7
	10	4	100078.1	3573.21	-344.0548	1	3589.736	-5.499902	6.262491E-008	0.0069607	7
	11	4	79453.13	3596.633	-329.3721	1	3611.683	-5.232432	-4.22425E-008	0.0072207	7
	12	5	63140.62	3621.966	-324.6329	1	3636.485	-5.121674	-4.670156E-009	0.0071155	7
	13	5	50203.12	3649.782	-326.3873	1	3664.347	-5.110169	3.148831E-010	0.007169	7
	14	5	39890.62	3677.814	-337.2702	1	3693.246	-5.239596	-3.54603E-008	0.0071189	7
	15	6	31640.63	3705.751	-355.2723	1	3722.743	-5.476239	-4.959252E-009	0.007105	7
	16	6	25171.88	3735.972	-382.2824	1	3755.48	-5.842442	-1.978941E-008	0.0071368	7
	17	6	20015.62	3748.325	-423.8038	1	3772.208	-6.450743	-1.122734E-008	0.0070995	7
	18	7	15890.62	3804.095	-465.7273	1	3832.498	-6.979867	-2.055359E-008	0.0071336	7
	19	7	12609.37	3843.3	-523.0414	1	3878.728	-7.749871	-2.368056E-008	0.0070727	7
	20	7	10078.13	3882.601	-594.1359	1	3927.797	-8.700208	-4.10345E-008	0.0071114	7
	21	8	8015.625	3930.119	-680.0123	1	3988.515	-9.81646	3.167699E-008	0.0070333	7
	22	8	6328.125	3972.901	-794.0042	1	4051.467	-11.30194	6.554409E-008	0.0070353	7
	23	8	5015.625	4024.003	-931.4316	1	4130.396	-13.03267	-3.460083E-008	0.0071171	7
	24	9	3984.375	4070.22	-1114.131	1	4219.951	-15.30845	-3.810598E-008	0.0071047	7
	25	9	3170.956	4141.547	-1304.678	1	4342.188	-17.48557	-3.126285E-008	0.0071316	7
	26	9	2527.573	4209.467	-1556.127	1	4487.889	-20.288	6.486275E-008	0.0070308	7
	27	9	1976.103	4299.716	-1889.225	1	4696.459	-23.7199	-5.456236E-009	0.0070987	7
	28	10	1577.524	4387.086	-2293.921	1	4950.616	-27.60419	3.113782E-008	0.0070321	7
	29	10	1265.625	4501.716	-2716.884	1	5258.032	-31.1119	-3.408827E-008	0.0071111	7
	30	10	998.264	4633.219	-3312.647	1	5695.643	-35.56392	-2.130578E-008	0.0071281	7
	31	11	796.875	4783.459	-4002.358	1	6237.015	-39.91949	1.008098E-007	0.0069183	7
	32	11	627.7902	4965.335	-4901.223	1	6976.857	-44.6277	7.818672E-009	0.0070151	7
	33	11	505.5147	5172.909	-5906.081	1	7851.164	-48.78613	-2.734361E-008	0.0070731	7
	34	12	397.9953	5435.021	-7271.414	1	9078.155	-53.22371	3.247695E-009	0.0070859	7
	35	12	315.5048	5755.335	-8910.169	1	10607.31	-57.14042	1.353362E-009	0.0070243	6
	36	12	252.4038	6132.838	-10847.4	1	12461.05	-60.51731	8.554742E-010	0.0070239	6
	37	13	198.6229	6647.454	-13414.73	1	14971.43	-63.64003	7.754243E-010	0.0070248	6
	38	13	158.3615	7275.886	-16399.81	1	17941.36	-66.07521	7.870472E-010	0.0070236	6
	39	13	125.558	8118.823	-20153.44	1	21727.32	-68.05793	6.550501E-010	0.0070259	6
	40	14	100.4464	9152.986	-24583.24	1	26231.9	-69.57838	-1.262616E-010	0.007019	6
	41	14	79.00281	10746.72	-30326.53	1	32174.37	-70.48735	-3.546587E-010	0.0070176	6
	42	14	63.3446	12070.79	-36748.24	1	38679.93	-71.81606	2.025998E-010	0.0070164	6
	43	15	49.86702	14831.96	-45051.21	1	47429.93	-71.77719	3.380129E-010	0.0070174	6
	44	15	39.72458	18404.54	-54828.24	1	57834.79	-71.44432	7.316157E-010	0.0070208	6
	45	15	31.6723	22944.27	-66214.39	1	70076.99	-70.88804	1.008242E-009	0.0070136	6
	46	16	24.93351	28771.22	-80183.23	1	85188.8	-70.26108	-1.455871E-010	0.0070135	6
	47	16	19.86229	36103.89	-95924	1	102493.4	-69.37466	-2.781023E-010	0.0070161	6
	48	16	15.83615	45946.44	-114186.9	1	123084.3	-68.08118	-5.261321E-010	0.0070203	5
	49	17	12.40079	58547.37	-137409.8	1	149362.8	-66.9222	1.216886E-010	0.0070229	5
	50	17	9.93114	72737.54	-159298.8	1	175119.6	-65.45805	3.341694E-010	0.0070209	5
	51	18	7.944915	89878.91	-184642.3	1	205355.8	-64.04443	4.772688E-010	0.0070182	5
	52	18	6.317385	111510.6	-214177.8	1	241467.9	-62.49649	4.999233E-010	0.007011	5
	53	19	5.008013	136779.4	-247050.9	1	282387.5	-61.02896	4.106001E-010	0.007024	5
	54	20	3.945707	166709.8	-284723.1	1	329938.5	-59.65037	-8.045468E-011	0.0070114	5
	55	21	3.158693	197995	-323378.3	1	379177.5	-58.5221	3.185733E-011	0.006998	5
	56	23	2.504006	234512.6	-368941.2	1	437165.6	-57.55846	2.68351E-010	0.0070083	5
	57	24	1.998082	272754.2	-417940.4	1	499068.2	-56.87093	1.345976E-011	0.0069879	5
	58	26	1.584686	316702.5	-477925.7	1	573335.4	-56.46914	-5.829253E-011	0.0069655	5
	59	28	1.266892	361299.6	-544354.8	1	653344.8	-56.42694	-2.888188E-012	0.0069891	5
	60	30	0.999041	414122.7	-626192.3	1	750742.5	-56.52195	1.617901E-011	0.0070209	5
