EXPLAIN
TAG	EISPOT
TITLE	LABEL	Potentiostatic IDE	Test &Identifier
DATE	LABEL	9/10/2019	Date
TIME	LABEL	10:15:58	Time
NOTES	NOTES	1	&Notes...
	
PSTAT	PSTAT	REF600-11020	Potentiostat
VDC	POTEN	0.00000E+000	T	DC &Voltage (V)
FREQINIT	QUANT	1.00000E+006	Initial Fre&q. (Hz)
FREQFINAL	QUANT	1.00000E+000	Final Fre&q. (Hz)
PTSPERDEC	QUANT	1.00000E+001	Points/&decade
VAC	QUANT	2.50000E+001	AC &Voltage (mV rms)
AREA	QUANT	1.00000E-002	&Area (cm^2)
CONDIT	TWOPARAM	T	5.00000E+000	0.00000E+000	Conditionin&g	Time(s)	E(V)
DELAY	TWOPARAM	T	5.00000E+000	0.00000E+000	Init. De&lay	Time(s)	Stab.(mV/s)
SPEED	SELECTOR	1	&Optimize for:
ZGUESS	QUANT	1.00000E+007	E&stimated Z (ohms)
OCVCURVE	TABLE	19
	Pt	T	Vf	Vm	Ach	Over
	#	s	V vs. Ref.	V	V	bits
	0	0.258333	3.27997E-003	3.27997E-003	5.63099E-004	...........
	1	0.516667	3.27319E-003	2.92497E-003	5.59099E-004	...........
	2	0.775	3.23179E-003	2.60129E-003	5.60966E-004	...........
	3	1.03333	3.11578E-003	2.30575E-003	5.61399E-004	...........
	4	1.29167	2.91125E-003	2.03285E-003	5.54899E-004	...........
	5	1.55	2.64485E-003	1.77731E-003	5.58599E-004	...........
	6	1.80833	2.35692E-003	1.53330E-003	5.59232E-004	...........
	7	2.06667	2.07520E-003	1.30804E-003	5.60566E-004	...........
	8	2.325	1.81060E-003	1.09150E-003	5.56733E-004	...........
	9	2.58333	1.56414E-003	8.86129E-004	5.60399E-004	...........
	10	2.84167	1.33338E-003	6.89082E-004	5.57099E-004	...........
	11	3.1	1.11558E-003	5.06029E-004	5.57799E-004	...........
	12	3.35833	9.08885E-004	3.23099E-004	5.59732E-004	...........
	13	3.61667	7.11971E-004	1.49644E-004	5.58299E-004	...........
	14	3.875	5.23550E-004	-1.56805E-005	5.61199E-004	...........
	15	4.13333	3.42589E-004	-1.77822E-004	5.58732E-004	...........
	16	4.39167	1.68527E-004	-3.31680E-004	5.57632E-004	...........
	17	4.65	9.63661E-007	-4.82454E-004	5.56333E-004	...........
	18	4.90833	-1.60531E-004	-6.27707E-004	5.60666E-004	...........
EOC	QUANT	-0.0001605	Open Circuit (V)
PSTATMODEL	IQUANT	4	Pstat Model
PSTATSECTION	LABEL	REF600-11020	Pstat Section
PSTATSERIALNO	LABEL	11020	Pstat Serial Number
CTRLMODE	IQUANT	1	Control Mode
IESTAB	IQUANT	0	I/E Stability
CASPEED	IQUANT	1	Control Amp Speed
CONVENTION	IQUANT	1	Current Convention
ICHRANGE	IQUANT	2	Ich Range
ICHRANGEMODE	TOGGLE	F	Ich Auto Range
ICHOFFSETENABLE	TOGGLE	T	Ich Offset Enable
ICHOFFSET	QUANT	0	Ich Offset (V)
ICHFILTER	IQUANT	3	Ich Filter
VCHRANGE	IQUANT	2	Vch Range
VCHRANGEMODE	TOGGLE	F	Vch Auto Range
VCHOFFSETENABLE	TOGGLE	T	Vch Offset Enable
VCHOFFSET	QUANT	0	Vch Offset (V)
VCHFILTER	IQUANT	3	Vch Filter
ACHRANGE	IQUANT	2	Ach Range
ACHOFFSETENABLE	TOGGLE	F	Ach Offset Enable
ACHOFFSET	QUANT	0	Ach Offset (V)
ACHFILTER	IQUANT	3	Ach Filter
IERANGELOWERLIMIT	IQUANT	1	I/E Range Lower Limit
IERANGEMODE	TOGGLE	F	I/E AutoRange
IERANGE	IQUANT	1	I/E Range
POSFEEDENABLE	TOGGLE	F	Positive Feedback IR Comp
POSFEEDRESISTANCE	QUANT	0	Positive Feedback Resistance (ohm)
ACHSELECT	IQUANT	0	Ach Select
CABLEID	IQUANT	14	Cable ID
DCCALDATE	LABEL	8/19/2019	DC Calibration Date
ACCALDATE	LABEL	8/19/2019	AC Calibration Date
THERMOSELECT	IQUANT	1	Thermo Select
FRAMEWORKVERSION	QUANT	6.33	Framework Version
INSTRUMENTVERSION	LABEL	3.50	Instrument Version
ZCURVE	TABLE
	Pt	Time	Freq	Zreal	Zimag	Zsig	Zmod	Zphz	Idc	Vdc	IERange
	#	s	Hz	ohm	ohm	V	ohm	°	A	V	#
	0	2	1000078	2800.908	-2001.463	1	3442.519	-35.5487	-3.431092E-007	0.0023408	8
	1	3	794390.6	3213.815	-1930.773	1	3749.199	-30.99631	-2.562916E-006	0.0023225	8
	2	4	630984.4	3556.639	-1762.616	1	3969.445	-26.36231	-1.84001E-006	0.0021321	8
	3	6	501234.4	3863.364	-1596.983	1	4180.423	-22.45853	1.389453E-006	0.0012814	8
	4	7	398109.4	4086.916	-1419.844	1	4326.527	-19.15784	-1.969522E-007	0.0014893	8
	5	8	316265.6	4267.88	-1240.71	1	4444.565	-16.20961	1.728754E-007	0.0013055	8
	6	10	251203.1	4409.576	-1066.185	1	4536.641	-13.59258	-2.26178E-006	0.0018639	8
	7	11	199546.9	4496.541	-934.072	1	4592.534	-11.73522	-2.046668E-006	0.001845	8
	8	13	158578.1	4593.327	-832.8961	1	4668.229	-10.27763	-2.169412E-006	0.0018598	8
	9	14	125953.1	4670.231	-709.5763	1	4723.829	-8.639219	-4.518407E-007	0.0018766	7
	10	15	100078.1	4723.93	-656.2368	1	4769.293	-7.908774	-3.95343E-008	0.001492	7
	11	16	79453.13	4777.87	-629.1636	1	4819.117	-7.501711	6.167636E-008	0.0013243	7
	12	18	63140.62	4829.002	-617.7352	1	4868.353	-7.289794	-4.246595E-008	0.0014215	7
	13	19	50203.12	4880.703	-621.6198	1	4920.129	-7.258271	3.77153E-008	0.0012467	7
	14	20	39890.62	4930.061	-641.2222	1	4971.585	-7.410505	9.667722E-009	0.0012895	7
	15	22	31640.63	4991.084	-674.596	1	5036.467	-7.697463	-1.491626E-009	0.0013839	7
	16	23	25171.88	5053.161	-727.1522	1	5105.211	-8.188677	1.101164E-008	0.0012989	7
	17	24	20015.62	5117.571	-794.4952	1	5178.875	-8.824636	-3.532906E-008	0.0014781	7
	18	26	15890.62	5197.966	-880.5842	1	5272.028	-9.61515	-3.793408E-008	0.0013852	7
	19	27	12609.37	5270.943	-988.39	1	5362.813	-10.62058	-3.549782E-008	0.0013933	7
	20	28	10078.13	5358.217	-1114.266	1	5472.85	-11.74749	-3.78997E-008	0.0013852	7
	21	30	8015.625	5455.298	-1268.332	1	5600.798	-13.08848	1.24759E-008	0.0012785	7
	22	31	6328.125	5569.18	-1462.611	1	5758.038	-14.71505	6.454865E-008	0.001241	7
	23	32	5015.625	5695.536	-1693.706	1	5942.034	-16.56112	-4.37208E-008	0.00141	7
	24	34	3984.375	5833.242	-1964.581	1	6155.184	-18.61304	3.362002E-008	0.0013103	7
	25	35	3170.956	5991.934	-2292.125	1	6415.381	-20.93361	-3.760047E-008	0.0013864	7
	26	36	2527.573	6171.302	-2676.135	1	6726.564	-23.44357	-3.835324E-008	0.0014745	7
	27	38	1976.103	6395.021	-3175.229	1	7139.914	-26.40513	9.790471E-008	0.0012266	7
	28	39	1577.524	6631.691	-3727.873	1	7607.652	-29.34165	6.326609E-008	0.0013234	7
	29	40	1265.625	6889.122	-4368.124	1	8157.236	-32.37719	6.496929E-008	0.0013147	7
	30	42	998.264	7210.283	-5194.506	1	8886.567	-35.77012	-3.571243E-008	0.0013854	7
	31	43	796.875	7560.471	-6137.016	1	9737.75	-39.06707	-6.468227E-009	0.0013611	6
	32	44	627.7902	7974.9	-7341.597	1	10839.65	-42.63229	7.380865E-009	0.0012825	6
	33	46	505.5147	8411.075	-8664.904	1	12075.87	-45.85162	-5.481212E-010	0.0012024	6
	34	47	397.9953	8947.547	-10446.63	1	13754.66	-49.41992	1.130991E-009	0.0013131	6
	35	48	315.5048	9558.76	-12558.81	1	15782.7	-52.7245	5.567545E-010	0.0013104	6
	36	50	252.4038	10242.72	-15029.44	1	18187.84	-55.72515	8.44564E-010	0.0013064	6
	37	51	198.6229	11118.99	-18272.92	1	21389.99	-58.67967	1.181708E-009	0.0013068	6
	38	52	158.3615	12112.15	-22032.65	1	25142.44	-61.20081	7.301035E-010	0.0013024	6
	39	53	125.558	13354.16	-26724.37	1	29875.17	-63.44872	9.394335E-010	0.0013059	6
	40	55	100.4464	14790.34	-32232.6	1	35463.99	-65.35138	9.080056E-010	0.0013015	6
	41	56	79.00281	16698.78	-39447.42	1	42836.29	-67.05621	8.694603E-010	0.0013058	6
	42	58	63.3446	18964.58	-47177.19	1	50846.27	-68.10056	1.021771E-009	0.0013002	6
	43	59	49.86702	22244.07	-58224.23	1	62328.64	-69.09106	9.470742E-010	0.0012931	6
	44	60	39.72458	25752.17	-70241.87	1	74813.73	-69.86598	1.102756E-009	0.0013031	6
	45	62	31.6723	30397.51	-85072.23	1	90339.88	-70.33747	6.819526E-010	0.0013071	6
	46	63	24.93351	36960.5	-103618.6	1	110013.1	-70.3688	6.073885E-010	0.0013065	5
	47	64	19.86229	44876.76	-124970.6	1	132783.9	-70.24686	7.771578E-010	0.0013074	5
	48	66	15.83615	55737.43	-150130.7	1	160143.3	-69.63209	1.243618E-009	0.0013048	5
	49	67	12.40079	69119.42	-182721.8	1	195358	-69.27953	4.61674E-010	0.0013086	5
	50	68	9.93114	86531.25	-216342.2	1	233005.6	-68.19987	2.835089E-011	0.0013129	5
	51	70	7.944915	108236.9	-255676.9	1	277643.5	-67.05537	-1.04527E-011	0.0013043	5
	52	72	6.317385	136400.6	-301960.1	1	331338.3	-65.69048	4.6129E-010	0.0012927	5
	53	74	5.008013	171578.3	-354848.3	1	394152.8	-64.19503	-1.155992E-011	0.0012977	5
	54	76	3.945707	216780.2	-414297.7	1	467585.5	-62.3793	3.745343E-010	0.0013069	5
	55	79	3.158693	266979.2	-475551.8	1	545369.1	-60.68975	1.31965E-010	0.0012934	5
	56	82	2.504006	328196.9	-544451.4	1	635720.6	-58.9183	3.15086E-010	0.0013118	5
	57	85	1.998082	396412.4	-616854.5	1	733247.8	-57.27377	4.913267E-010	0.001326	5
	58	88	1.584686	475630.8	-694005.8	1	841349.3	-55.57555	2.91043E-010	0.0012732	5
	59	92	1.266892	560437.5	-778173.4	1	958981	-54.23871	3.542479E-010	0.0013244	5
	60	96	0.999041	661656.3	-875508	1	1097408	-52.92021	-7.41885E-011	0.0012652	4
