EXPLAIN
TAG	EISPOT
TITLE	LABEL	Potentiostatic EIS	Test &Identifier
DATE	LABEL	11/7/2019	Date
TIME	LABEL	9:16:32	Time
NOTES	NOTES	2	&Notes...
	
	
PSTAT	PSTAT	REF600-11020	Potentiostat
VDC	POTEN	0.00000E+000	T	DC &Voltage (V)
FREQINIT	QUANT	1.00000E+006	Initial Fre&q. (Hz)
FREQFINAL	QUANT	1.00000E+000	Final Fre&q. (Hz)
PTSPERDEC	QUANT	1.00000E+001	Points/&decade
VAC	QUANT	2.50000E+001	AC &Voltage (mV rms)
AREA	QUANT	1.00000E-002	&Area (cm^2)
CONDIT	TWOPARAM	T	5.00000E+000	0.00000E+000	Conditionin&g	Time(s)	E(V)
DELAY	TWOPARAM	T	5.00000E+000	0.00000E+000	Init. De&lay	Time(s)	Stab.(mV/s)
SPEED	SELECTOR	1	&Optimize for:
ZGUESS	QUANT	1.00000E+005	E&stimated Z (ohms)
OCVCURVE	TABLE	19
	Pt	T	Vf	Vm	Ach	Over
	#	s	V vs. Ref.	V	V	bits
	0	0.258333	8.78826E-003	8.78826E-003	5.72366E-004	...........
	1	0.516667	8.78962E-003	8.85984E-003	5.71199E-004	...........
	2	0.775	8.79831E-003	8.94272E-003	5.68432E-004	...........
	3	1.03333	8.82395E-003	9.02842E-003	5.68599E-004	...........
	4	1.29167	8.87236E-003	9.12015E-003	5.72366E-004	...........
	5	1.55	8.94116E-003	9.21291E-003	5.75066E-004	...........
	6	1.80833	9.02353E-003	9.31118E-003	5.73532E-004	...........
	7	2.06667	9.11332E-003	9.40072E-003	5.75999E-004	...........
	8	2.325	9.20655E-003	9.50051E-003	5.72499E-004	...........
	9	2.58333	9.30099E-003	9.58764E-003	5.71866E-004	...........
	10	2.84167	9.39547E-003	9.68535E-003	5.74332E-004	...........
	11	3.1	9.48933E-003	9.76708E-003	5.76532E-004	...........
	12	3.35833	9.58179E-003	9.84886E-003	5.69566E-004	...........
	13	3.61667	9.67172E-003	9.93198E-003	5.76199E-004	...........
	14	3.875	9.75866E-003	1.00217E-002	5.75699E-004	...........
	15	4.13333	9.84371E-003	1.01067E-002	5.66799E-004	...........
	16	4.39167	9.92857E-003	1.01921E-002	5.68632E-004	...........
	17	4.65	1.00137E-002	1.02625E-002	5.65099E-004	...........
	18	4.90833	1.00979E-002	1.03503E-002	5.66366E-004	...........
EOC	QUANT	0.0100979	Open Circuit (V)
PSTATMODEL	IQUANT	4	Pstat Model
PSTATSECTION	LABEL	REF600-11020	Pstat Section
PSTATSERIALNO	LABEL	11020	Pstat Serial Number
CTRLMODE	IQUANT	1	Control Mode
IESTAB	IQUANT	0	I/E Stability
CASPEED	IQUANT	1	Control Amp Speed
CONVENTION	IQUANT	1	Current Convention
ICHRANGE	IQUANT	2	Ich Range
ICHRANGEMODE	TOGGLE	F	Ich Auto Range
ICHOFFSETENABLE	TOGGLE	T	Ich Offset Enable
ICHOFFSET	QUANT	0	Ich Offset (V)
ICHFILTER	IQUANT	3	Ich Filter
VCHRANGE	IQUANT	2	Vch Range
VCHRANGEMODE	TOGGLE	F	Vch Auto Range
VCHOFFSETENABLE	TOGGLE	T	Vch Offset Enable
VCHOFFSET	QUANT	0	Vch Offset (V)
VCHFILTER	IQUANT	3	Vch Filter
ACHRANGE	IQUANT	2	Ach Range
ACHOFFSETENABLE	TOGGLE	F	Ach Offset Enable
ACHOFFSET	QUANT	0	Ach Offset (V)
ACHFILTER	IQUANT	3	Ach Filter
IERANGELOWERLIMIT	IQUANT	1	I/E Range Lower Limit
IERANGEMODE	TOGGLE	F	I/E AutoRange
IERANGE	IQUANT	5	I/E Range
POSFEEDENABLE	TOGGLE	F	Positive Feedback IR Comp
POSFEEDRESISTANCE	QUANT	0	Positive Feedback Resistance (ohm)
ACHSELECT	IQUANT	0	Ach Select
CABLEID	IQUANT	14	Cable ID
DCCALDATE	LABEL	8/19/2019	DC Calibration Date
ACCALDATE	LABEL	8/19/2019	AC Calibration Date
THERMOSELECT	IQUANT	1	Thermo Select
FRAMEWORKVERSION	QUANT	6.33	Framework Version
INSTRUMENTVERSION	LABEL	3.50	Instrument Version
ZCURVE	TABLE
	Pt	Time	Freq	Zreal	Zimag	Zsig	Zmod	Zphz	Idc	Vdc	IERange
	#	s	Hz	ohm	ohm	V	ohm	°	A	V	#
	0	2	1000078	2422.676	-1616.684	1	2912.564	-33.71571	1.655679E-005	0.010928	8
	1	3	794390.6	2722.348	-1527.279	1	3121.5	-29.2931	-9.319952E-008	0.0118251	8
	2	5	630984.4	3001.537	-1419.646	1	3320.334	-25.31288	5.261212E-006	0.0116784	8
	3	6	501234.4	3237.485	-1266.992	1	3476.575	-21.37292	-6.399546E-006	0.0120754	8
	4	8	398109.4	3413.411	-1139.67	1	3598.642	-18.46315	-3.743793E-006	0.0122476	8
	5	9	316265.6	3575.145	-975.141	1	3705.747	-15.25663	-2.095531E-007	0.0120814	8
	6	10	251203.1	3659.419	-840.7148	1	3754.75	-12.93861	6.742689E-006	0.0102988	8
	7	12	199546.9	3754.28	-728.8946	1	3824.383	-10.9873	1.955452E-006	0.0118641	8
	8	13	158578.1	3830.235	-694.1299	1	3892.624	-10.27188	-2.236611E-006	0.0116943	8
	9	15	125953.1	3899.789	-505.1904	1	3932.375	-7.381162	-1.125997E-006	0.012678	7
	10	16	100078.1	3938.213	-447.4761	1	3963.553	-6.482383	1.252384E-006	0.009833	7
	11	18	79453.13	3966.993	-419.0654	1	3989.066	-6.030249	-3.488906E-007	0.0130775	7
	12	19	63140.62	4000.205	-401.7877	1	4020.333	-5.735653	-1.039774E-006	0.0134418	7
	13	20	50203.12	4034.822	-396.0424	1	4054.212	-5.605973	9.480315E-007	0.0112712	7
	14	22	39890.62	4065.804	-400.055	1	4085.438	-5.619533	-1.396913E-006	0.0127307	7
	15	23	31640.63	4101.707	-413.7347	1	4122.521	-5.759881	6.909298E-008	0.0126201	7
	16	24	25171.88	4134.908	-436.8927	1	4157.925	-6.03147	7.027599E-008	0.0126154	7
	17	26	20015.62	4180.328	-468.949	1	4206.549	-6.400678	1.138059E-006	0.0095508	7
	18	27	15890.62	4218.903	-517.2428	1	4250.492	-6.989653	5.77542E-007	0.0095576	7
	19	28	12609.37	4256.979	-574.5878	1	4295.582	-7.687067	-7.24959E-007	0.0133317	7
	20	30	10078.13	4313.117	-660.1934	1	4363.352	-8.702514	-7.234635E-007	0.0133357	7
	21	31	8015.625	4358.49	-733.4711	1	4419.775	-9.55255	1.164799E-006	0.01069	7
	22	32	6328.125	4412.283	-851.3652	1	4493.669	-10.9212	1.25655E-006	0.0098194	7
	23	34	5015.625	4469.44	-988.841	1	4577.522	-12.47544	1.257952E-006	0.0098178	7
	24	35	3984.375	4529.646	-1158.791	1	4675.521	-14.34986	1.257672E-006	0.009819	7
	25	37	3170.956	4597.091	-1367.161	1	4796.079	-16.56232	9.116656E-007	0.009445	7
	26	38	2527.573	4668.221	-1619.111	1	4941.033	-19.12844	-8.216159E-007	0.0112772	7
	27	39	1976.103	4761.15	-1963.387	1	5150.091	-22.41011	-1.4131E-006	0.0131569	7
	28	41	1577.524	4860.483	-2354.663	1	5400.809	-25.84789	6.971895E-007	0.0117431	7
	29	42	1265.625	4962.149	-2815.586	1	5705.3	-29.57112	-1.413323E-006	0.0131548	7
	30	43	998.264	5099.848	-3431.544	1	6146.864	-33.9355	-8.237554E-007	0.0112759	7
	31	45	796.875	5250.644	-4147.744	1	6691.266	-38.30695	6.983022E-007	0.0117397	7
	32	46	627.7902	5435.098	-5085.085	1	7443.008	-43.09444	4.417538E-007	0.0121155	7
	33	48	505.5147	5630.53	-6143.263	1	8333.219	-47.49358	1.168938E-006	0.0106875	7
	34	49	397.9953	5905.211	-7556.282	1	9590.04	-51.99249	3.791508E-009	0.011508	7
	35	50	315.5048	6230.846	-9267.634	1	11167.47	-56.08614	8.136141E-010	0.0114583	6
	36	52	252.4038	6614.994	-11292.52	1	13087.37	-59.63885	-1.235337E-010	0.0114519	6
	37	53	198.6229	7141.399	-13970.54	1	15689.99	-62.925	6.148542E-010	0.0114521	6
	38	54	158.3615	7773.282	-17086.7	1	18771.76	-65.5377	4.702666E-010	0.0114526	6
	39	56	125.558	8624.464	-21017.99	1	22718.66	-67.68983	8.689669E-010	0.0114549	6
	40	57	100.4464	9687.93	-25659.08	1	27427.07	-69.3153	1.628228E-010	0.0114486	6
	41	58	79.00281	11169.16	-31587.74	1	33504.26	-70.52683	-5.48786E-011	0.0114502	6
	42	60	63.3446	12546.28	-38307.46	1	40309.68	-71.86559	6.901661E-010	0.0114475	6
	43	61	49.86702	15969.71	-46995.61	1	49634.85	-71.23158	1.168896E-010	0.011445	6
	44	63	39.72458	19188.08	-57407.29	1	60529.16	-71.51807	3.417213E-010	0.0114488	6
	45	64	31.6723	23353.97	-69245.4	1	73077.59	-71.36261	-3.19939E-010	0.0114409	6
	46	65	24.93351	29735.75	-84451.66	1	89533.77	-70.60264	5.823191E-010	0.0114491	6
	47	67	19.86229	37482.16	-101238.5	1	107954.4	-69.68362	8.084887E-010	0.0114435	5
	48	68	15.83615	47195.71	-121399.1	1	130250.4	-68.75566	-8.389969E-010	0.0114452	5
	49	69	12.40079	59797.28	-144561.9	1	156441.2	-67.52782	2.913821E-010	0.0114519	5
	50	71	9.93114	75383.01	-168972.4	1	185025.1	-65.95711	5.273144E-010	0.0114513	5
	51	72	7.944915	94731.25	-198265.5	1	219734.4	-64.46152	1.13968E-010	0.0114468	5
	52	74	6.317385	117606.9	-228191.9	1	256715.7	-62.73405	2.90167E-010	0.0114669	5
	53	76	5.008013	144645.8	-263242.8	1	300365.1	-61.21223	-4.433965E-010	0.0114444	5
	54	79	3.945707	176900.2	-303362.5	1	351173.1	-59.75219	7.214191E-010	0.0114557	5
	55	81	3.158693	211602.9	-344806.5	1	404558.1	-58.46314	8.185381E-012	0.0114551	5
	56	85	2.504006	251513.3	-392956.5	1	466555.2	-57.37857	1.440712E-010	0.0114393	5
	57	87	1.998082	294029.4	-444888.1	1	533271.7	-56.53902	-1.097665E-010	0.0114753	5
	58	91	1.584686	342721.6	-507001.5	1	611971.1	-55.94219	1.305165E-010	0.0114824	5
	59	94	1.266892	394079.1	-573164.9	1	695569.1	-55.48956	-1.139424E-010	0.0114871	5
	60	98	0.999041	452740.2	-656916.7	1	797817.8	-55.42579	1.580492E-010	0.0114349	5
