EXPLAIN
TAG	EISPOT
TITLE	LABEL	Potentiostatic EIS	Test &Identifier
DATE	LABEL	9/24/2019	Date
TIME	LABEL	10:42:44	Time
NOTES	NOTES	1	&Notes...
	
PSTAT	PSTAT	REF600-11020	Potentiostat
VDC	POTEN	0.00000E+000	T	DC &Voltage (V)
FREQINIT	QUANT	1.00000E+006	Initial Fre&q. (Hz)
FREQFINAL	QUANT	1.00000E+000	Final Fre&q. (Hz)
PTSPERDEC	QUANT	1.00000E+001	Points/&decade
VAC	QUANT	2.50000E+001	AC &Voltage (mV rms)
AREA	QUANT	1.00000E-002	&Area (cm^2)
CONDIT	TWOPARAM	T	5.00000E+000	0.00000E+000	Conditionin&g	Time(s)	E(V)
DELAY	TWOPARAM	T	5.00000E+000	0.00000E+000	Init. De&lay	Time(s)	Stab.(mV/s)
SPEED	SELECTOR	1	&Optimize for:
ZGUESS	QUANT	1.00000E+004	E&stimated Z (ohms)
OCVCURVE	TABLE	19
	Pt	T	Vf	Vm	Ach	Over
	#	s	V vs. Ref.	V	V	bits
	0	0.258333	8.99055E-004	8.99055E-004	5.85365E-004	...........
	1	0.516667	8.88410E-004	3.41812E-004	5.83165E-004	...........
	2	0.775	8.22358E-004	-2.22126E-004	5.82232E-004	...........
	3	1.03333	6.33484E-004	-7.50306E-004	5.78566E-004	...........
	4	1.29167	2.92816E-004	-1.22768E-003	5.79599E-004	...........
	5	1.55	-1.60723E-004	-1.67164E-003	5.80399E-004	...........
	6	1.80833	-6.58375E-004	-2.07013E-003	5.79899E-004	...........
	7	2.06667	-1.14662E-003	-2.43724E-003	5.79666E-004	...........
	8	2.325	-1.59980E-003	-2.77384E-003	5.78732E-004	...........
	9	2.58333	-2.01213E-003	-3.08701E-003	5.80665E-004	...........
	10	2.84167	-2.38707E-003	-3.37811E-003	5.80899E-004	...........
	11	3.1	-2.73046E-003	-3.65178E-003	5.77599E-004	...........
	12	3.35833	-3.04763E-003	-3.90965E-003	5.83499E-004	...........
	13	3.61667	-3.34267E-003	-4.14467E-003	5.80099E-004	...........
	14	3.875	-3.61816E-003	-4.36992E-003	5.85999E-004	...........
	15	4.13333	-3.87589E-003	-4.59125E-003	5.83632E-004	...........
	16	4.39167	-4.11802E-003	-4.79416E-003	5.84399E-004	...........
	17	4.65	-4.34711E-003	-4.99406E-003	5.81032E-004	...........
	18	4.90833	-4.56500E-003	-5.18008E-003	5.82332E-004	...........
EOC	QUANT	-0.004565	Open Circuit (V)
PSTATMODEL	IQUANT	4	Pstat Model
PSTATSECTION	LABEL	REF600-11020	Pstat Section
PSTATSERIALNO	LABEL	11020	Pstat Serial Number
CTRLMODE	IQUANT	1	Control Mode
IESTAB	IQUANT	0	I/E Stability
CASPEED	IQUANT	1	Control Amp Speed
CONVENTION	IQUANT	1	Current Convention
ICHRANGE	IQUANT	2	Ich Range
ICHRANGEMODE	TOGGLE	F	Ich Auto Range
ICHOFFSETENABLE	TOGGLE	T	Ich Offset Enable
ICHOFFSET	QUANT	0	Ich Offset (V)
ICHFILTER	IQUANT	3	Ich Filter
VCHRANGE	IQUANT	2	Vch Range
VCHRANGEMODE	TOGGLE	F	Vch Auto Range
VCHOFFSETENABLE	TOGGLE	T	Vch Offset Enable
VCHOFFSET	QUANT	0	Vch Offset (V)
VCHFILTER	IQUANT	3	Vch Filter
ACHRANGE	IQUANT	2	Ach Range
ACHOFFSETENABLE	TOGGLE	F	Ach Offset Enable
ACHOFFSET	QUANT	0	Ach Offset (V)
ACHFILTER	IQUANT	3	Ach Filter
IERANGELOWERLIMIT	IQUANT	1	I/E Range Lower Limit
IERANGEMODE	TOGGLE	F	I/E AutoRange
IERANGE	IQUANT	5	I/E Range
POSFEEDENABLE	TOGGLE	F	Positive Feedback IR Comp
POSFEEDRESISTANCE	QUANT	0	Positive Feedback Resistance (ohm)
ACHSELECT	IQUANT	0	Ach Select
CABLEID	IQUANT	14	Cable ID
DCCALDATE	LABEL	8/19/2019	DC Calibration Date
ACCALDATE	LABEL	8/19/2019	AC Calibration Date
THERMOSELECT	IQUANT	1	Thermo Select
FRAMEWORKVERSION	QUANT	6.33	Framework Version
INSTRUMENTVERSION	LABEL	3.50	Instrument Version
ZCURVE	TABLE
	Pt	Time	Freq	Zreal	Zimag	Zsig	Zmod	Zphz	Idc	Vdc	IERange
	#	s	Hz	ohm	ohm	V	ohm	°	A	V	#
	0	2	1000078	2155	-2114.32	1	3019.002	-44.45407	2.025165E-006	-0.00206	8
	1	3	794390.6	2591.704	-2185.792	1	3390.371	-40.14362	-4.006006E-006	-0.0021446	8
	2	5	630984.4	3037.241	-2185.199	1	3741.648	-35.73382	-2.805958E-006	-0.0019736	8
	3	6	501234.4	3479.078	-2130.605	1	4079.64	-31.48352	2.260265E-006	-0.0034229	8
	4	8	398109.4	3854.434	-1983.115	1	4334.675	-27.22592	1.57568E-006	-0.003449	8
	5	9	316265.6	4183.099	-1828.143	1	4565.131	-23.60681	-3.289119E-006	-0.0022513	8
	6	11	251203.1	4457.255	-1657.653	1	4755.516	-20.40017	3.953415E-007	-0.0030716	8
	7	12	199546.9	4698.389	-1475.162	1	4924.526	-17.43082	-4.207662E-007	-0.0027661	8
	8	14	158578.1	4849.477	-1321.472	1	5026.302	-15.24289	3.56679E-006	-0.0035972	8
	9	15	125953.1	5040.375	-1142.245	1	5168.182	-12.76864	-1.470416E-006	-3.101971E-006	7
	10	17	100078.1	5129.138	-1027.877	1	5231.117	-11.33195	-1.305883E-008	-0.0028258	7
	11	18	79453.13	5224.061	-961.621	1	5311.829	-10.42999	-4.872306E-008	-0.0028639	7
	12	19	63140.62	5312.279	-913.3182	1	5390.219	-9.75526	-3.701677E-008	-0.0029322	7
	13	21	50203.12	5390.395	-892.0625	1	5463.71	-9.396777	-3.614168E-008	-0.0029513	7
	14	22	39890.62	5470.981	-892.8082	1	5543.352	-9.268386	-2.108492E-008	-0.0029887	7
	15	23	31640.63	5555.502	-909.9514	1	5629.531	-9.302039	-4.151369E-009	-0.0029378	7
	16	25	25171.88	5639.186	-952.149	1	5719.004	-9.58372	4.613517E-008	-0.0031179	7
	17	26	20015.62	5736.244	-1011.939	1	5824.819	-10.0047	8.443728E-008	-0.0030144	7
	18	27	15890.62	5832.363	-1091.695	1	5933.654	-10.60188	7.591736E-008	-0.0031017	7
	19	29	12609.37	5948.676	-1190.673	1	6066.667	-11.31862	1.642333E-008	-0.0030585	7
	20	30	10078.13	6069.062	-1315.689	1	6210.036	-12.23166	7.181991E-008	-0.0031077	7
	21	32	8015.625	6206.363	-1468.812	1	6377.801	-13.31477	-4.020433E-009	-0.0029578	7
	22	33	6328.125	6366.436	-1650.992	1	6577.027	-14.53812	-5.992257E-009	-0.0029393	7
	23	34	5015.625	6543.111	-1862.701	1	6803.084	-15.89066	-1.171102E-008	-0.0029285	7
	24	36	3984.375	6743.131	-2107.753	1	7064.874	-17.35808	1.375861E-007	-0.0031782	7
	25	37	3170.956	6968.399	-2387.993	1	7366.213	-18.91602	-3.657814E-008	-0.0029651	7
	26	38	2527.573	7224.067	-2710.706	1	7715.897	-20.56773	-3.471646E-008	-0.0029641	7
	27	40	1976.103	7543.078	-3111.782	1	8159.731	-22.41785	-4.633791E-008	-0.0028297	7
	28	41	1577.524	7866.146	-3526.44	1	8620.442	-24.14698	1.821057E-008	-0.0030624	7
	29	42	1265.625	8260.313	-4026.552	1	9189.444	-25.98727	8.531801E-008	-0.0031563	7
	30	44	998.264	8667.719	-4564.015	1	9795.9	-27.76919	-8.538161E-009	-0.0028554	6
	31	45	796.875	9113.278	-5181.263	1	10483.19	-29.61996	-7.097377E-009	-0.0029309	6
	32	46	627.7902	9618.47	-5937.893	1	11303.7	-31.68881	-3.499344E-009	-0.00291	6
	33	48	505.5147	10103.67	-6738.303	1	12144.5	-33.69997	1.634932E-008	-0.0032402	6
	34	49	397.9953	10650.61	-7795.172	1	13198.49	-36.20036	1.070907E-009	-0.0030157	6
	35	50	315.5048	11194.46	-9055.434	1	14398.5	-38.97013	4.848837E-010	-0.0030262	6
	36	52	252.4038	11728.77	-10546.17	1	15772.94	-41.96095	1.462223E-009	-0.0030309	6
	37	53	198.6229	12339.76	-12547.06	1	17598.25	-45.47725	1.141477E-009	-0.0030314	6
	38	55	158.3615	12976.11	-14918.71	1	19772.39	-48.98366	8.448616E-010	-0.0030294	6
	39	56	125.558	13709.53	-17955.4	1	22590.87	-52.63709	6.819609E-010	-0.0030285	6
	40	57	100.4464	14573.8	-21570.72	1	26032.51	-55.9559	1.482198E-009	-0.0030293	6
	41	59	79.00281	15704.56	-26368.3	1	30690.73	-59.22261	1.5659E-009	-0.0030344	6
	42	60	63.3446	16643.33	-31899.38	1	35980.15	-62.44695	6.757914E-010	-0.0030285	6
	43	61	49.86702	19015.24	-38999.97	1	43388.68	-64.00749	9.658269E-010	-0.0030343	6
	44	63	39.72458	21205.82	-47668.46	1	52172.5	-66.0176	9.287118E-010	-0.0030267	6
	45	64	31.6723	24237.98	-57694.72	1	62579.23	-67.21236	5.329575E-010	-0.0030336	6
	46	66	24.93351	28252.62	-70688.86	1	76125.72	-68.21461	5.966637E-010	-0.003032	6
	47	67	19.86229	33131.19	-85286.45	1	91495.66	-68.77037	2.530987E-010	-0.0030336	6
	48	68	15.83615	40561.43	-103249.9	1	110931.4	-68.55276	2.387689E-009	-0.0030347	5
	49	70	12.40079	48837.46	-125406.4	1	134580.3	-68.7224	-6.800853E-010	-0.0030239	5
	50	71	9.93114	58195.78	-148465.2	1	159463.6	-68.59568	-7.266903E-011	-0.0030191	5
	51	73	7.944915	69488.99	-176087.3	1	189302.5	-68.46441	9.494368E-010	-0.0030241	5
	52	74	6.317385	84725.58	-210047.1	1	226491.1	-68.03259	6.296101E-010	-0.0030188	5
	53	76	5.008013	103165.1	-250071.9	1	270516.2	-67.58181	4.679364E-010	-0.0030161	5
	54	79	3.945707	125841.1	-298492.9	1	323935.2	-67.14028	1.740322E-010	-0.0030312	5
	55	81	3.158693	151563.4	-351387.6	1	382681	-66.6681	3.813151E-010	-0.0030177	5
	56	85	2.504006	183483.4	-415708.3	1	454400.2	-66.18452	2.163715E-010	-0.0030225	5
	57	87	1.998082	220068.3	-487642.1	1	534999.9	-65.71078	4.122548E-010	-0.0030651	5
	58	91	1.584686	264440.4	-576807.3	1	634535.6	-65.37066	2.624069E-010	-0.0030691	5
	59	94	1.266892	316674.4	-674384.9	1	745035.4	-64.84642	3.849592E-010	-0.0030525	5
	60	98	0.999041	381395.7	-798701.6	1	885091.5	-64.47461	1.742105E-010	-0.0030246	5
