EXPLAIN
TAG	EISPOT
TITLE	LABEL	Potentiostatic EIS	Test &Identifier
DATE	LABEL	10/16/2019	Date
TIME	LABEL	9:57:19	Time
NOTES	NOTES	1	&Notes...
	
PSTAT	PSTAT	REF600-11020	Potentiostat
VDC	POTEN	0.00000E+000	T	DC &Voltage (V)
FREQINIT	QUANT	1.00000E+006	Initial Fre&q. (Hz)
FREQFINAL	QUANT	1.00000E+000	Final Fre&q. (Hz)
PTSPERDEC	QUANT	1.00000E+001	Points/&decade
VAC	QUANT	2.50000E+001	AC &Voltage (mV rms)
AREA	QUANT	1.00000E-002	&Area (cm^2)
CONDIT	TWOPARAM	T	5.00000E+000	0.00000E+000	Conditionin&g	Time(s)	E(V)
DELAY	TWOPARAM	T	5.00000E+000	0.00000E+000	Init. De&lay	Time(s)	Stab.(mV/s)
SPEED	SELECTOR	0	&Optimize for:
ZGUESS	QUANT	1.00000E+005	E&stimated Z (ohms)
OCVCURVE	TABLE	19
	Pt	T	Vf	Vm	Ach	Over
	#	s	V vs. Ref.	V	V	bits
	0	0.258333	3.37993E-003	3.37993E-003	5.67632E-004	...........
	1	0.516667	3.36768E-003	2.73864E-003	5.65766E-004	...........
	2	0.775	3.29330E-003	2.17511E-003	5.71399E-004	...........
	3	1.03333	3.08631E-003	1.66670E-003	5.74332E-004	...........
	4	1.29167	2.72460E-003	1.20285E-003	5.64532E-004	...........
	5	1.55	2.25862E-003	7.86516E-004	5.75099E-004	...........
	6	1.80833	1.76227E-003	4.00674E-004	5.71899E-004	...........
	7	2.06667	1.28614E-003	4.56025E-005	5.69132E-004	...........
	8	2.325	8.49905E-004	-2.73663E-004	5.67566E-004	...........
	9	2.58333	4.54696E-004	-5.78901E-004	5.65899E-004	...........
	10	2.84167	9.50918E-005	-8.64600E-004	5.69566E-004	...........
	11	3.1	-2.35493E-004	-1.13382E-003	5.64632E-004	...........
	12	3.35833	-5.42544E-004	-1.37467E-003	5.67732E-004	...........
	13	3.61667	-8.29273E-004	-1.61582E-003	5.64199E-004	...........
	14	3.875	-1.09739E-003	-1.82896E-003	5.64499E-004	...........
	15	4.13333	-1.34843E-003	-2.04032E-003	5.63866E-004	...........
	16	4.39167	-1.58402E-003	-2.23650E-003	5.67332E-004	...........
	17	4.65	-1.80614E-003	-2.43872E-003	5.71432E-004	...........
	18	4.90833	-2.01704E-003	-2.60697E-003	5.77132E-004	...........
EOC	QUANT	-0.002017	Open Circuit (V)
PSTATMODEL	IQUANT	4	Pstat Model
PSTATSECTION	LABEL	REF600-11020	Pstat Section
PSTATSERIALNO	LABEL	11020	Pstat Serial Number
CTRLMODE	IQUANT	1	Control Mode
IESTAB	IQUANT	0	I/E Stability
CASPEED	IQUANT	1	Control Amp Speed
CONVENTION	IQUANT	1	Current Convention
ICHRANGE	IQUANT	2	Ich Range
ICHRANGEMODE	TOGGLE	F	Ich Auto Range
ICHOFFSETENABLE	TOGGLE	T	Ich Offset Enable
ICHOFFSET	QUANT	0	Ich Offset (V)
ICHFILTER	IQUANT	3	Ich Filter
VCHRANGE	IQUANT	2	Vch Range
VCHRANGEMODE	TOGGLE	F	Vch Auto Range
VCHOFFSETENABLE	TOGGLE	T	Vch Offset Enable
VCHOFFSET	QUANT	0	Vch Offset (V)
VCHFILTER	IQUANT	3	Vch Filter
ACHRANGE	IQUANT	2	Ach Range
ACHOFFSETENABLE	TOGGLE	F	Ach Offset Enable
ACHOFFSET	QUANT	0	Ach Offset (V)
ACHFILTER	IQUANT	3	Ach Filter
IERANGELOWERLIMIT	IQUANT	1	I/E Range Lower Limit
IERANGEMODE	TOGGLE	F	I/E AutoRange
IERANGE	IQUANT	4	I/E Range
POSFEEDENABLE	TOGGLE	F	Positive Feedback IR Comp
POSFEEDRESISTANCE	QUANT	0	Positive Feedback Resistance (ohm)
ACHSELECT	IQUANT	0	Ach Select
CABLEID	IQUANT	14	Cable ID
DCCALDATE	LABEL	8/19/2019	DC Calibration Date
ACCALDATE	LABEL	8/19/2019	AC Calibration Date
THERMOSELECT	IQUANT	1	Thermo Select
FRAMEWORKVERSION	QUANT	6.33	Framework Version
INSTRUMENTVERSION	LABEL	3.50	Instrument Version
ZCURVE	TABLE
	Pt	Time	Freq	Zreal	Zimag	Zsig	Zmod	Zphz	Idc	Vdc	IERange
	#	s	Hz	ohm	ohm	V	ohm	°	A	V	#
	0	1	1000078	2686.099	-1758.445	1	3210.492	-33.21062	1.764329E-006	0.0002933	8
	1	1	794390.6	2993.512	-1673.022	1	3429.303	-29.20008	-2.867454E-006	0.0003475	8
	2	1	630984.4	3297.403	-1565.495	1	3650.156	-25.39679	1.550667E-006	-0.0003137	8
	3	2	501234.4	3543.834	-1427.579	1	3820.569	-21.94128	3.809724E-006	-0.0012233	8
	4	2	398109.4	3747.537	-1258.324	1	3953.152	-18.56069	-2.236569E-006	0.0001058	8
	5	2	316265.6	3912.203	-1136.579	1	4073.959	-16.19971	1.705765E-007	-0.0003864	8
	6	3	251203.1	4043.599	-982.912	1	4161.347	-13.66239	8.404256E-007	-0.0004797	8
	7	3	199546.9	4148.198	-914.0923	1	4247.718	-12.42703	1.633084E-006	-0.0008229	8
	8	3	158578.1	4242.14	-828.2057	1	4322.23	-11.04707	1.617803E-006	-0.0008248	8
	9	4	125953.1	4347.955	-707.1094	1	4405.079	-9.237163	-1.158067E-008	-0.0008333	7
	10	4	100078.1	4397.943	-677.8959	1	4449.882	-8.762569	-6.45768E-008	-0.0003873	7
	11	4	79453.13	4460.567	-665.8484	1	4509.99	-8.490102	-3.577597E-008	-0.0004765	7
	12	5	63140.62	4521.586	-671.6098	1	4571.192	-8.448607	4.923404E-008	-0.0005584	7
	13	5	50203.12	4584.59	-689.6529	1	4636.171	-8.554774	-3.952335E-008	-0.0003844	7
	14	5	39890.62	4651.762	-721.9633	1	4707.454	-8.822042	-6.044807E-008	-0.0002897	7
	15	6	31640.63	4724.276	-770.2271	1	4786.652	-9.259804	-5.529678E-009	-0.0004423	7
	16	6	25171.88	4803.452	-833.8359	1	4875.288	-9.84789	-3.108005E-008	-0.0004805	7
	17	6	20015.62	4898.342	-908.935	1	4981.959	-10.51222	1.285251E-008	-0.0005477	7
	18	7	15890.62	4983.703	-1011.196	1	5085.254	-11.46964	3.930144E-008	-0.000524	7
	19	7	12609.37	5094.376	-1126.399	1	5217.417	-12.46787	-4.018534E-009	-0.0005111	7
	20	7	10078.13	5211.025	-1262.25	1	5361.722	-13.61631	1.29697E-008	-0.0005525	7
	21	7	8015.625	5323.836	-1421.729	1	5510.403	-14.95191	-1.10101E-008	-0.0004558	7
	22	8	6328.125	5500.715	-1615.594	1	5733.063	-16.36783	4.060318E-008	-0.0005319	7
	23	8	5015.625	5676.957	-1837.988	1	5967.08	-17.94003	3.948739E-008	-0.0006077	7
	24	8	3984.375	5867.296	-2077.832	1	6224.351	-19.50099	4.938435E-008	-0.0005721	7
	25	9	3170.956	6097.836	-2382.022	1	6546.574	-21.33731	-2.795212E-008	-0.0004965	7
	26	9	2527.573	6354.185	-2713.074	1	6909.156	-23.12124	4.066083E-008	-0.0005375	7
	27	9	1976.103	6676.139	-3125.225	1	7371.422	-25.08517	-5.364218E-008	-0.0003945	7
	28	10	1577.524	7041.944	-3515.508	1	7870.69	-26.52947	3.664982E-008	-0.0006111	7
	29	10	1265.625	7358.492	-4015.704	1	8382.916	-28.62234	-6.510857E-008	-0.0004028	7
	30	10	998.264	7781.032	-4582.401	1	9030.108	-30.49466	-4.533909E-008	-0.0004329	7
	31	11	796.875	8199.402	-5196.748	1	9707.54	-32.36636	4.09718E-009	-0.0006554	6
	32	11	627.7902	8640.978	-5967.193	1	10501.14	-34.62777	-9.193222E-010	-0.0003941	6
	33	11	505.5147	9035.8	-6812.541	1	11316.2	-37.01447	1.51459E-008	-0.0007557	6
	34	12	397.9953	9470.676	-7972.447	1	12379.56	-40.09079	6.623284E-010	-0.0005348	6
	35	12	315.5048	9893.28	-9393.755	1	13642.57	-43.5164	8.761802E-010	-0.0005415	6
	36	12	252.4038	10310.89	-11117.39	1	15162.81	-47.15544	1.33564E-009	-0.0005427	6
	37	13	198.6229	10805.26	-13451.92	1	17254.21	-51.22681	7.472907E-010	-0.0005398	6
	38	13	158.3615	11344.26	-16226.08	1	19798.43	-55.04117	1.294477E-009	-0.0005422	6
	39	13	125.558	12017.31	-19784.05	1	23147.88	-58.72449	9.321722E-010	-0.0005403	6
	40	14	100.4464	12838.43	-24016.06	1	27232.27	-61.87206	1.553849E-009	-0.0005446	6
	41	14	79.00281	13985.05	-29739.31	1	32863.48	-64.81451	5.767155E-010	-0.000546	6
	42	14	63.3446	14857.91	-35903.75	1	38856.61	-67.51895	8.229956E-010	-0.0005461	6
	43	15	49.86702	16907.78	-44314.86	1	47430.79	-69.11626	8.724541E-010	-0.0005497	6
	44	15	39.72458	19321.99	-54501.55	1	57825.25	-70.47947	8.85934E-010	-0.000546	6
	45	15	31.6723	22531.41	-66464.31	1	70179.55	-71.27334	2.054626E-010	-0.0005471	6
	46	16	24.93351	26481.56	-81664.95	1	85851.26	-72.03363	6.674234E-010	-0.0005473	6
	47	16	19.86229	31479.26	-99370.9	1	104237.8	-72.42255	8.154722E-010	-0.0005505	6
	48	16	15.83615	36803.9	-120772.4	1	126255.7	-73.05205	1.527695E-009	-0.0005447	5
	49	17	12.40079	46346.1	-148143.2	1	155223.6	-72.62788	2.385673E-010	-0.0005409	5
	50	17	9.93114	57286.53	-177143.9	1	186176.6	-72.07932	2.952224E-010	-0.0005456	5
	51	17	7.944915	70379.73	-212002.5	1	223379.4	-71.63507	3.716714E-010	-0.0005336	5
	52	18	6.317385	87196.23	-255168.2	1	269655.3	-71.13364	3.035991E-010	-0.0005407	5
	53	19	5.008013	108758.8	-306720.7	1	325432.1	-70.47622	3.846748E-010	-0.0005333	5
	54	20	3.945707	136446.8	-367664.6	1	392167.1	-69.63923	1.992825E-010	-0.0005471	5
	55	21	3.158693	168206	-435459.4	1	466817	-68.87983	1.587597E-010	-0.000556	5
	56	23	2.504006	208940.9	-517103.2	1	557720.4	-67.99831	2.926892E-010	-0.0005517	5
	57	24	1.998082	256067.5	-607432.1	1	659199.8	-67.14179	1.439893E-010	-0.0005854	5
	58	26	1.584686	312051.2	-718276.3	1	783132.7	-66.51773	1.24034E-010	-0.0005944	5
	59	28	1.266892	377923.5	-837706.4	1	919009.3	-65.71792	1.60469E-010	-0.000567	5
	60	30	0.999041	460778.3	-989516	1	1091540	-65.03048	1.224785E-010	-0.0005381	4
