EXPLAIN
TAG	EISPOT
TITLE	LABEL	Potentiostatic EIS	Test &Identifier
DATE	LABEL	10/22/2019	Date
TIME	LABEL	9:21:21	Time
NOTES	NOTES	1	&Notes...
	
PSTAT	PSTAT	REF600-11020	Potentiostat
VDC	POTEN	0.00000E+000	T	DC &Voltage (V)
FREQINIT	QUANT	1.00000E+006	Initial Fre&q. (Hz)
FREQFINAL	QUANT	1.00000E+000	Final Fre&q. (Hz)
PTSPERDEC	QUANT	1.00000E+001	Points/&decade
VAC	QUANT	2.50000E+001	AC &Voltage (mV rms)
AREA	QUANT	1.00000E-002	&Area (cm^2)
CONDIT	TWOPARAM	T	5.00000E+000	0.00000E+000	Conditionin&g	Time(s)	E(V)
DELAY	TWOPARAM	T	5.00000E+000	0.00000E+000	Init. De&lay	Time(s)	Stab.(mV/s)
SPEED	SELECTOR	1	&Optimize for:
ZGUESS	QUANT	1.00000E+005	E&stimated Z (ohms)
OCVCURVE	TABLE	19
	Pt	T	Vf	Vm	Ach	Over
	#	s	V vs. Ref.	V	V	bits
	0	0.258333	1.41416E-002	1.41416E-002	5.49199E-004	...........
	1	0.516667	1.41496E-002	1.45584E-002	5.51599E-004	...........
	2	0.775	1.41991E-002	1.49845E-002	5.44499E-004	...........
	3	1.03333	1.43404E-002	1.53598E-002	5.45733E-004	...........
	4	1.29167	1.45937E-002	1.56905E-002	5.45466E-004	...........
	5	1.55	1.49276E-002	1.60489E-002	5.43999E-004	...........
	6	1.80833	1.52925E-002	1.63653E-002	5.45499E-004	...........
	7	2.06667	1.56548E-002	1.66762E-002	5.42099E-004	...........
	8	2.325	1.60018E-002	1.69924E-002	5.39666E-004	...........
	9	2.58333	1.63320E-002	1.72493E-002	5.46933E-004	...........
	10	2.84167	1.66464E-002	1.75442E-002	5.48866E-004	...........
	11	3.1	1.69462E-002	1.78006E-002	5.47366E-004	...........
	12	3.35833	1.72327E-002	1.80363E-002	5.44066E-004	...........
	13	3.61667	1.75070E-002	1.83064E-002	5.47133E-004	...........
	14	3.875	1.77708E-002	1.85631E-002	5.48899E-004	...........
	15	4.13333	1.80265E-002	1.86974E-002	5.53266E-004	...........
	16	4.39167	1.82678E-002	1.87887E-002	5.47799E-004	...........
	17	4.65	1.84812E-002	1.90347E-002	5.44166E-004	...........
	18	4.90833	1.86649E-002	1.91941E-002	5.58999E-004	...........
EOC	QUANT	0.0186649	Open Circuit (V)
PSTATMODEL	IQUANT	4	Pstat Model
PSTATSECTION	LABEL	REF600-11020	Pstat Section
PSTATSERIALNO	LABEL	11020	Pstat Serial Number
CTRLMODE	IQUANT	1	Control Mode
IESTAB	IQUANT	0	I/E Stability
CASPEED	IQUANT	1	Control Amp Speed
CONVENTION	IQUANT	1	Current Convention
ICHRANGE	IQUANT	2	Ich Range
ICHRANGEMODE	TOGGLE	F	Ich Auto Range
ICHOFFSETENABLE	TOGGLE	T	Ich Offset Enable
ICHOFFSET	QUANT	0	Ich Offset (V)
ICHFILTER	IQUANT	3	Ich Filter
VCHRANGE	IQUANT	2	Vch Range
VCHRANGEMODE	TOGGLE	F	Vch Auto Range
VCHOFFSETENABLE	TOGGLE	T	Vch Offset Enable
VCHOFFSET	QUANT	0	Vch Offset (V)
VCHFILTER	IQUANT	3	Vch Filter
ACHRANGE	IQUANT	2	Ach Range
ACHOFFSETENABLE	TOGGLE	F	Ach Offset Enable
ACHOFFSET	QUANT	0	Ach Offset (V)
ACHFILTER	IQUANT	3	Ach Filter
IERANGELOWERLIMIT	IQUANT	1	I/E Range Lower Limit
IERANGEMODE	TOGGLE	F	I/E AutoRange
IERANGE	IQUANT	5	I/E Range
POSFEEDENABLE	TOGGLE	F	Positive Feedback IR Comp
POSFEEDRESISTANCE	QUANT	0	Positive Feedback Resistance (ohm)
ACHSELECT	IQUANT	0	Ach Select
CABLEID	IQUANT	14	Cable ID
DCCALDATE	LABEL	8/19/2019	DC Calibration Date
ACCALDATE	LABEL	8/19/2019	AC Calibration Date
THERMOSELECT	IQUANT	1	Thermo Select
FRAMEWORKVERSION	QUANT	6.33	Framework Version
INSTRUMENTVERSION	LABEL	3.50	Instrument Version
ZCURVE	TABLE
	Pt	Time	Freq	Zreal	Zimag	Zsig	Zmod	Zphz	Idc	Vdc	IERange
	#	s	Hz	ohm	ohm	V	ohm	°	A	V	#
	0	1	1000078	2544.071	-1852.089	1	3146.829	-36.0547	-7.877534E-007	0.0211123	8
	1	2	794390.6	2914.134	-1803.722	1	3427.184	-31.75571	5.015371E-006	0.0198845	8
	2	4	630984.4	3256.948	-1694.007	1	3671.154	-27.47989	-5.257962E-008	0.0203055	8
	3	5	501234.4	3537.89	-1529.397	1	3854.312	-23.37837	1.036968E-006	0.0202209	8
	4	6	398109.4	3796.607	-1370.896	1	4036.531	-19.85387	8.973108E-007	0.0201752	8
	5	8	316265.6	3967.172	-1190.931	1	4142.074	-16.70957	1.199594E-006	0.0200978	8
	6	9	251203.1	4128.686	-1026.763	1	4254.444	-13.96558	-4.195444E-006	0.0213277	8
	7	11	199546.9	4223.405	-876.0712	1	4313.311	-11.71881	-3.010291E-006	0.0208202	8
	8	12	158578.1	4322.583	-765.318	1	4389.81	-10.04023	1.989994E-009	0.0204504	8
	9	14	125953.1	4417.042	-598.2604	1	4457.374	-7.713411	6.118507E-007	0.0184522	7
	10	15	100078.1	4438.848	-543.53	1	4472.001	-6.981027	1.314843E-007	0.0201103	7
	11	16	79453.13	4480.818	-495.5624	1	4508.139	-6.31106	-5.978395E-008	0.0204864	7
	12	18	63140.62	4517.747	-462.6333	1	4541.373	-5.84691	-1.194302E-008	0.0204435	7
	13	19	50203.12	4553.906	-442.2374	1	4575.329	-5.546696	9.18336E-008	0.0202378	7
	14	20	39890.62	4587.121	-432.8413	1	4607.497	-5.390477	-5.915883E-008	0.0204853	7
	15	22	31640.63	4622.834	-439.1522	1	4643.646	-5.426603	1.339471E-007	0.0201013	7
	16	23	25171.88	4657.315	-455.7015	1	4679.556	-5.588397	-2.562087E-009	0.0203103	7
	17	24	20015.62	4711.776	-474.6396	1	4735.623	-5.752271	-5.202665E-008	0.0203321	7
	18	26	15890.62	4733.947	-523.5507	1	4762.81	-6.310978	4.281911E-008	0.0202497	7
	19	27	12609.37	4776.755	-577.437	1	4811.53	-6.892743	-8.147596E-008	0.0204356	7
	20	28	10078.13	4820.891	-647.5133	1	4864.182	-7.649845	-8.129781E-008	0.0204327	7
	21	30	8015.625	4872.314	-720.4352	1	4925.289	-8.410984	6.136382E-008	0.0201991	7
	22	31	6328.125	4926.633	-846.9929	1	4998.911	-9.755	-2.026761E-008	0.0203606	7
	23	32	5015.625	4985.012	-982.523	1	5080.915	-11.14982	6.210141E-008	0.0201948	7
	24	34	3984.375	5058.152	-1138.346	1	5184.664	-12.68321	-2.900786E-008	0.0203075	7
	25	35	3170.956	5121.465	-1355.354	1	5297.772	-14.82305	-3.451276E-009	0.0203062	7
	26	36	2527.573	5199.337	-1603.258	1	5440.914	-17.13757	-1.560374E-009	0.020329	7
	27	38	1976.103	5298.086	-1937.601	1	5641.278	-20.08833	-2.088177E-008	0.020353	7
	28	39	1577.524	5416.677	-2307.219	1	5887.584	-23.07144	-8.040394E-008	0.0204267	7
	29	40	1265.625	5517.853	-2762.09	1	6170.563	-26.59133	-1.590765E-008	0.0202686	7
	30	42	998.264	5661.127	-3348.129	1	6577.106	-30.60111	4.341258E-008	0.0202427	7
	31	43	796.875	5820.579	-4031.416	1	7080.357	-34.70702	-3.316583E-009	0.0203255	7
	32	45	627.7902	6018.273	-4916.57	1	7771.247	-39.24677	4.251039E-008	0.0202451	7
	33	46	505.5147	6228.75	-5905.743	1	8583.422	-43.47521	-3.781003E-008	0.0203775	7
	34	47	397.9953	6501.741	-7237.527	1	9729.05	-48.06546	4.101446E-009	0.020316	7
	35	49	315.5048	6816.035	-8837.467	1	11160.61	-52.35823	1.351809E-009	0.0202498	6
	36	50	252.4038	7169.169	-10730.1	1	12904.73	-56.25167	1.364925E-009	0.0202478	6
	37	51	198.6229	7629.086	-13241.51	1	15282.04	-60.05164	9.898977E-010	0.0202515	6
	38	53	158.3615	8171.118	-16180.1	1	18126.3	-63.20575	1.018336E-009	0.02025	6
	39	54	125.558	8855.995	-19893.26	1	21775.46	-66.00254	1.069864E-009	0.0202453	6
	40	55	100.4464	9685.65	-24267.72	1	26129.18	-68.24223	2.128416E-010	0.0202466	6
	41	57	79.00281	10843.55	-30063.26	1	31959.07	-70.16608	8.309123E-010	0.0202485	6
	42	58	63.3446	12041.29	-36520.98	1	38454.84	-71.75216	3.276229E-010	0.0202481	6
	43	60	49.86702	14598.25	-45248.68	1	47545.26	-72.11912	-1.894004E-010	0.0202456	6
	44	61	39.72458	17013.05	-55513.35	1	58061.83	-72.96139	3.305886E-010	0.0202496	6
	45	62	31.6723	20157.84	-67683.2	1	70621.2	-73.41508	-3.184662E-011	0.0202488	6
	46	64	24.93351	25203.47	-83214.03	1	86947.05	-73.14973	7.05897E-010	0.0202414	6
	47	65	19.86229	31438.42	-100985.7	1	105766.2	-72.70782	7.470274E-010	0.0202523	6
	48	66	15.83615	39849.68	-121299.4	1	127677.4	-71.81344	7.163343E-010	0.0202521	5
	49	68	12.40079	51821.55	-149735.7	1	158449.5	-70.90994	-9.112942E-010	0.0202573	5
	50	69	9.93114	64495.25	-177860.3	1	189192.8	-70.06847	1.445791E-010	0.0202609	5
	51	71	7.944915	83235.05	-211264.4	1	227069.8	-68.49629	5.291819E-010	0.0202622	5
	52	72	6.317385	106567.7	-249255	1	271080.7	-66.85111	2.766508E-010	0.0202671	5
	53	74	5.008013	136600.6	-292839.6	1	323132.7	-64.9924	3.838624E-010	0.0202646	5
	54	77	3.945707	174993.2	-342276.9	1	384416.6	-62.92107	-1.715685E-010	0.0202478	5
	55	80	3.158693	217614.9	-391455.2	1	447876.5	-60.92976	2.299105E-010	0.0202712	5
	56	83	2.504006	269887.4	-447112.4	1	522253.5	-58.88384	-3.468892E-010	0.0202542	5
	57	86	1.998082	327294.3	-502732.8	1	599884.8	-56.93465	-1.339762E-010	0.0202212	5
	58	89	1.584686	390740.5	-562944.7	1	685262.6	-55.23545	-1.688001E-010	0.0202716	5
	59	92	1.266892	459020.3	-627830.5	1	777734.4	-53.82866	-1.258348E-010	0.020214	5
	60	97	0.999041	534352.6	-700920.8	1	881375.4	-52.67962	1.646547E-011	0.0202981	5
