EXPLAIN
TAG	EISPOT
TITLE	LABEL	Potentiostatic EIS	Test &Identifier
DATE	LABEL	10/4/2019	Date
TIME	LABEL	9:35:33	Time
NOTES	NOTES	2	&Notes...
	
	
PSTAT	PSTAT	REF600-11020	Potentiostat
VDC	POTEN	0.00000E+000	T	DC &Voltage (V)
FREQINIT	QUANT	1.00000E+006	Initial Fre&q. (Hz)
FREQFINAL	QUANT	1.00000E+000	Final Fre&q. (Hz)
PTSPERDEC	QUANT	1.00000E+001	Points/&decade
VAC	QUANT	2.50000E+001	AC &Voltage (mV rms)
AREA	QUANT	1.00000E-002	&Area (cm^2)
CONDIT	TWOPARAM	T	5.00000E+000	0.00000E+000	Conditionin&g	Time(s)	E(V)
DELAY	TWOPARAM	T	5.00000E+000	0.00000E+000	Init. De&lay	Time(s)	Stab.(mV/s)
SPEED	SELECTOR	1	&Optimize for:
ZGUESS	QUANT	1.00000E+004	E&stimated Z (ohms)
OCVCURVE	TABLE	19
	Pt	T	Vf	Vm	Ach	Over
	#	s	V vs. Ref.	V	V	bits
	0	0.258333	3.80639E-003	3.80639E-003	5.90965E-004	...........
	1	0.516667	3.80240E-003	3.59741E-003	5.89165E-004	...........
	2	0.775	3.77832E-003	3.42214E-003	5.91065E-004	...........
	3	1.03333	3.71186E-003	3.26488E-003	5.93199E-004	...........
	4	1.29167	3.59705E-003	3.13368E-003	5.90565E-004	...........
	5	1.55	3.45163E-003	3.01228E-003	5.95765E-004	...........
	6	1.80833	3.30027E-003	2.90542E-003	5.91532E-004	...........
	7	2.06667	3.15886E-003	2.80445E-003	5.94799E-004	...........
	8	2.325	3.03234E-003	2.71074E-003	5.91032E-004	...........
	9	2.58333	2.91921E-003	2.61648E-003	5.94699E-004	...........
	10	2.84167	2.81603E-003	2.53737E-003	5.87365E-004	...........
	11	3.1	2.72024E-003	2.46405E-003	5.93632E-004	...........
	12	3.35833	2.63121E-003	2.39620E-003	5.93499E-004	...........
	13	3.61667	2.54941E-003	2.34459E-003	5.87899E-004	...........
	14	3.875	2.47532E-003	2.28290E-003	5.90832E-004	...........
	15	4.13333	2.40840E-003	2.22425E-003	5.91799E-004	...........
	16	4.39167	2.34662E-003	2.16854E-003	5.91132E-004	...........
	17	4.65	2.28768E-003	2.11768E-003	5.91265E-004	...........
	18	4.90833	2.23066E-003	2.06820E-003	5.88099E-004	...........
EOC	QUANT	0.0022307	Open Circuit (V)
PSTATMODEL	IQUANT	4	Pstat Model
PSTATSECTION	LABEL	REF600-11020	Pstat Section
PSTATSERIALNO	LABEL	11020	Pstat Serial Number
CTRLMODE	IQUANT	1	Control Mode
IESTAB	IQUANT	0	I/E Stability
CASPEED	IQUANT	1	Control Amp Speed
CONVENTION	IQUANT	1	Current Convention
ICHRANGE	IQUANT	2	Ich Range
ICHRANGEMODE	TOGGLE	F	Ich Auto Range
ICHOFFSETENABLE	TOGGLE	T	Ich Offset Enable
ICHOFFSET	QUANT	0	Ich Offset (V)
ICHFILTER	IQUANT	3	Ich Filter
VCHRANGE	IQUANT	2	Vch Range
VCHRANGEMODE	TOGGLE	F	Vch Auto Range
VCHOFFSETENABLE	TOGGLE	T	Vch Offset Enable
VCHOFFSET	QUANT	0	Vch Offset (V)
VCHFILTER	IQUANT	3	Vch Filter
ACHRANGE	IQUANT	2	Ach Range
ACHOFFSETENABLE	TOGGLE	F	Ach Offset Enable
ACHOFFSET	QUANT	0	Ach Offset (V)
ACHFILTER	IQUANT	3	Ach Filter
IERANGELOWERLIMIT	IQUANT	1	I/E Range Lower Limit
IERANGEMODE	TOGGLE	F	I/E AutoRange
IERANGE	IQUANT	5	I/E Range
POSFEEDENABLE	TOGGLE	F	Positive Feedback IR Comp
POSFEEDRESISTANCE	QUANT	0	Positive Feedback Resistance (ohm)
ACHSELECT	IQUANT	0	Ach Select
CABLEID	IQUANT	14	Cable ID
DCCALDATE	LABEL	8/19/2019	DC Calibration Date
ACCALDATE	LABEL	8/19/2019	AC Calibration Date
THERMOSELECT	IQUANT	1	Thermo Select
FRAMEWORKVERSION	QUANT	6.33	Framework Version
INSTRUMENTVERSION	LABEL	3.50	Instrument Version
ZCURVE	TABLE
	Pt	Time	Freq	Zreal	Zimag	Zsig	Zmod	Zphz	Idc	Vdc	IERange
	#	s	Hz	ohm	ohm	V	ohm	°	A	V	#
	0	1	1000078	2498.697	-1508.719	1	2918.855	-31.12368	-1.084514E-006	0.0043233	8
	1	3	794390.6	2770.553	-1369.44	1	3090.523	-26.30244	-1.1479E-006	0.0046801	8
	2	4	630984.4	2988.145	-1234.506	1	3233.113	-22.44721	1.398499E-006	0.003972	8
	3	5	501234.4	3185.972	-1081.681	1	3364.587	-18.75305	4.539788E-007	0.0036692	8
	4	7	398109.4	3332.473	-937.7224	1	3461.893	-15.71604	-9.767879E-007	0.0037967	8
	5	8	316265.6	3427.177	-796.6976	1	3518.56	-13.08681	1.002402E-006	0.0038175	8
	6	9	251203.1	3535.193	-686.9396	1	3601.315	-10.99637	4.26732E-006	0.00306	8
	7	11	199546.9	3598.124	-593.8521	1	3646.801	-9.37189	-2.321421E-006	0.0044269	8
	8	12	158578.1	3626.931	-509.6898	1	3662.569	-7.999349	-1.144824E-006	0.004249	8
	9	14	125953.1	3681.688	-403.2588	1	3703.706	-6.250745	1.49545E-006	0.0006657	7
	10	15	100078.1	3699.297	-363.1722	1	3717.081	-5.606949	3.840132E-008	0.0037607	7
	11	16	79453.13	3724.637	-341.3199	1	3740.244	-5.23587	-3.074091E-008	0.0037885	7
	12	18	63140.62	3748.855	-328.5978	1	3763.229	-5.009336	9.667707E-009	0.0038924	7
	13	19	50203.12	3775.011	-324.778	1	3788.956	-4.917256	-6.811006E-008	0.003913	7
	14	20	39890.62	3800.596	-328.8146	1	3814.793	-4.944722	2.134115E-008	0.0037029	7
	15	22	31640.63	3828.511	-343.5593	1	3843.895	-5.12782	-6.211731E-010	0.0037278	7
	16	23	25171.88	3857.834	-364.5432	1	3875.019	-5.398094	1.027648E-007	0.0036974	7
	17	24	20015.62	3888.719	-395.8088	1	3908.811	-5.81177	5.191098E-008	0.0036326	7
	18	26	15890.62	3922.873	-436.0861	1	3947.037	-6.343241	-2.891567E-008	0.0037763	7
	19	27	12609.37	3961.51	-488.2847	1	3991.489	-7.026678	-4.915591E-008	0.0038887	7
	20	28	10078.13	4000.124	-547.7745	1	4037.456	-7.797549	8.623797E-009	0.0037591	7
	21	30	8015.625	4044.19	-622.6648	1	4091.844	-8.75283	-1.008185E-008	0.0037789	7
	22	31	6328.125	4090.944	-719.7631	1	4153.779	-9.97853	5.22907E-008	0.0036249	7
	23	33	5015.625	4142.197	-836.4048	1	4225.798	-11.41583	8.620711E-009	0.0037518	7
	24	34	3984.375	4196.252	-979.681	1	4309.096	-13.14122	1.247474E-007	0.0035954	7
	25	35	3170.956	4255.943	-1152.737	1	4409.292	-15.15514	-4.191585E-008	0.0037844	7
	26	37	2527.573	4321.625	-1365.082	1	4532.096	-17.52989	5.804461E-008	0.0036888	7
	27	38	1976.103	4402.665	-1649.631	1	4701.568	-20.54043	-6.277342E-008	0.0038644	7
	28	39	1577.524	4490.41	-1974.817	1	4905.475	-23.7392	-6.70818E-008	0.0039076	7
	29	41	1265.625	4586.947	-2358.792	1	5157.905	-27.21405	1.132418E-008	0.0038855	7
	30	42	998.264	4710.168	-2862.238	1	5511.632	-31.28589	-4.806811E-008	0.0038893	7
	31	43	796.875	4847.152	-3449.601	1	5949.339	-35.43854	1.064753E-008	0.0038832	7
	32	45	627.7902	5015.466	-4209.374	1	6547.804	-40.00602	1.25426E-007	0.0035999	7
	33	46	505.5147	5196.072	-5055.69	1	7249.77	-44.21548	-8.081916E-009	0.0038059	7
	34	47	397.9953	5430.787	-6198.8	1	8241.272	-48.77831	4.532596E-009	0.0038093	7
	35	49	315.5048	5700.511	-7571.957	1	9477.888	-53.02592	4.610087E-009	0.0038145	7
	36	50	252.4038	6015.681	-9193.453	1	10986.72	-56.80151	5.200592E-010	0.0037507	6
	37	51	198.6229	6425.017	-11343.74	1	13036.92	-60.47308	1.076218E-009	0.0037523	6
	38	53	158.3615	6907.287	-13856.89	1	15483.03	-63.50499	7.571364E-010	0.0037465	6
	39	54	125.558	7533.567	-17019.18	1	18612.01	-66.12334	1.029072E-009	0.0037498	6
	40	56	100.4464	8306.643	-20751	1	22351.83	-68.18373	3.8096E-010	0.0037503	6
	41	57	79.00281	9335.772	-25674.3	1	27318.98	-70.01756	5.722905E-010	0.0037505	6
	42	58	63.3446	10790.2	-31332.4	1	33138.31	-70.99741	1.134911E-009	0.0037535	6
	43	60	49.86702	12356.04	-38587.74	1	40517.71	-72.2446	8.912069E-010	0.0037489	6
	44	61	39.72458	14770.29	-46976.64	1	49243.95	-72.54593	1.06369E-009	0.0037511	6
	45	62	31.6723	17682.76	-57296.41	1	59962.98	-72.84878	1.244237E-010	0.0037445	6
	46	64	24.93351	21910.06	-70143.21	1	73485.52	-72.65319	9.665244E-010	0.0037452	6
	47	65	19.86229	27132.53	-84925.27	1	89154.22	-72.28199	9.161898E-010	0.0037616	6
	48	66	15.83615	33694.51	-101793.8	1	107225.5	-71.68507	2.767125E-010	0.0037549	5
	49	68	12.40079	43567.21	-124619.8	1	132015.9	-70.73032	3.643014E-010	0.0037542	5
	50	69	9.93114	55046.66	-148658.9	1	158523.2	-69.681	3.476731E-010	0.0037605	5
	51	71	7.944915	69373.7	-175812.7	1	189004.8	-68.46637	1.036867E-009	0.0037589	5
	52	72	6.317385	88092.51	-208087.9	1	225966.5	-67.05499	5.655506E-010	0.0037604	5
	53	74	5.008013	111728.2	-244847.9	1	269135.1	-65.472	5.565676E-010	0.0037633	5
	54	77	3.945707	141544	-287371.9	1	320339.4	-63.77761	-8.22025E-012	0.0037451	5
	55	80	3.158693	174806	-330777.2	1	374126.5	-62.14487	4.298414E-010	0.0037658	5
	56	83	2.504006	216095.4	-381030.3	1	438042.6	-60.44094	-1.999492E-010	0.003747	5
	57	86	1.998082	261548.6	-432531.7	1	505461.5	-58.83897	1.363908E-010	0.0037066	5
	58	89	1.584686	312965.8	-490485.9	1	581828.2	-57.45915	1.618553E-011	0.0037565	5
	59	92	1.266892	369541.9	-552827.1	1	664965.4	-56.23892	1.157733E-010	0.0037039	5
	60	97	0.999041	433533.2	-625524.1	1	761072.6	-55.27526	1.830053E-010	0.0037904	5
