EXPLAIN
TAG	EISPOT
TITLE	LABEL	Potentiostatic EIS	Test &Identifier
DATE	LABEL	11/20/2019	Date
TIME	LABEL	10:55:32	Time
NOTES	NOTES	4	&Notes...
	
	
	
	
PSTAT	PSTAT	REF600-11020	Potentiostat
VDC	POTEN	0.00000E+000	T	DC &Voltage (V)
FREQINIT	QUANT	1.00000E+006	Initial Fre&q. (Hz)
FREQFINAL	QUANT	1.00000E+000	Final Fre&q. (Hz)
PTSPERDEC	QUANT	1.00000E+001	Points/&decade
VAC	QUANT	2.50000E+001	AC &Voltage (mV rms)
AREA	QUANT	1.00000E-002	&Area (cm^2)
CONDIT	TWOPARAM	T	5.00000E+000	0.00000E+000	Conditionin&g	Time(s)	E(V)
DELAY	TWOPARAM	T	5.00000E+000	0.00000E+000	Init. De&lay	Time(s)	Stab.(mV/s)
SPEED	SELECTOR	0	&Optimize for:
ZGUESS	QUANT	1.00000E+005	E&stimated Z (ohms)
OCVCURVE	TABLE	19
	Pt	T	Vf	Vm	Ach	Over
	#	s	V vs. Ref.	V	V	bits
	0	0.258333	3.50118E-003	3.50118E-003	5.51333E-004	...........
	1	0.516667	3.49738E-003	3.30244E-003	5.52566E-004	...........
	2	0.775	3.47427E-003	3.12454E-003	5.56133E-004	...........
	3	1.03333	3.40945E-003	2.94866E-003	5.53099E-004	...........
	4	1.29167	3.29459E-003	2.79278E-003	5.49299E-004	...........
	5	1.55	3.14372E-003	2.64753E-003	5.47499E-004	...........
	6	1.80833	2.97909E-003	2.49097E-003	5.52599E-004	...........
	7	2.06667	2.81637E-003	2.37797E-003	5.47633E-004	...........
	8	2.325	2.66171E-003	2.20473E-003	5.47166E-004	...........
	9	2.58333	2.51585E-003	2.15435E-003	5.53799E-004	...........
	10	2.84167	2.37983E-003	2.01887E-003	5.53066E-004	...........
	11	3.1	2.25428E-003	1.84697E-003	5.51699E-004	...........
	12	3.35833	2.13019E-003	1.58624E-003	5.42699E-004	...........
	13	3.61667	1.98962E-003	1.44071E-003	5.46533E-004	...........
	14	3.875	1.82218E-003	1.18410E-003	5.54133E-004	...........
	15	4.13333	1.63461E-003	1.13105E-003	5.51599E-004	...........
	16	4.39167	1.44637E-003	1.01447E-003	5.55699E-004	...........
	17	4.65	1.27736E-003	8.50752E-004	5.48166E-004	...........
	18	4.90833	1.13378E-003	8.17747E-004	5.47199E-004	...........
EOC	QUANT	0.0011338	Open Circuit (V)
PSTATMODEL	IQUANT	4	Pstat Model
PSTATSECTION	LABEL	REF600-11020	Pstat Section
PSTATSERIALNO	LABEL	11020	Pstat Serial Number
CTRLMODE	IQUANT	1	Control Mode
IESTAB	IQUANT	0	I/E Stability
CASPEED	IQUANT	1	Control Amp Speed
CONVENTION	IQUANT	1	Current Convention
ICHRANGE	IQUANT	2	Ich Range
ICHRANGEMODE	TOGGLE	F	Ich Auto Range
ICHOFFSETENABLE	TOGGLE	T	Ich Offset Enable
ICHOFFSET	QUANT	0	Ich Offset (V)
ICHFILTER	IQUANT	3	Ich Filter
VCHRANGE	IQUANT	2	Vch Range
VCHRANGEMODE	TOGGLE	F	Vch Auto Range
VCHOFFSETENABLE	TOGGLE	T	Vch Offset Enable
VCHOFFSET	QUANT	0	Vch Offset (V)
VCHFILTER	IQUANT	3	Vch Filter
ACHRANGE	IQUANT	2	Ach Range
ACHOFFSETENABLE	TOGGLE	F	Ach Offset Enable
ACHOFFSET	QUANT	0	Ach Offset (V)
ACHFILTER	IQUANT	3	Ach Filter
IERANGELOWERLIMIT	IQUANT	1	I/E Range Lower Limit
IERANGEMODE	TOGGLE	F	I/E AutoRange
IERANGE	IQUANT	4	I/E Range
POSFEEDENABLE	TOGGLE	F	Positive Feedback IR Comp
POSFEEDRESISTANCE	QUANT	0	Positive Feedback Resistance (ohm)
ACHSELECT	IQUANT	0	Ach Select
CABLEID	IQUANT	14	Cable ID
DCCALDATE	LABEL	8/19/2019	DC Calibration Date
ACCALDATE	LABEL	8/19/2019	AC Calibration Date
THERMOSELECT	IQUANT	1	Thermo Select
FRAMEWORKVERSION	QUANT	6.33	Framework Version
INSTRUMENTVERSION	LABEL	3.50	Instrument Version
ZCURVE	TABLE
	Pt	Time	Freq	Zreal	Zimag	Zsig	Zmod	Zphz	Idc	Vdc	IERange
	#	s	Hz	ohm	ohm	V	ohm	°	A	V	#
	0	1	1000078	2195.153	-2096.795	1	3035.663	-43.6872	-4.537429E-007	0.004029	8
	1	1	794390.6	2651.296	-2139.244	1	3406.719	-38.89893	-1.69404E-006	0.0029085	8
	2	2	630984.4	3096.799	-2090.644	1	3736.436	-34.02322	-2.207518E-006	0.0029153	8
	3	2	501234.4	3499.095	-1963.585	1	4012.397	-29.29981	6.118769E-006	0.0022204	8
	4	2	398109.4	3864.466	-1829	1	4275.434	-25.32756	-2.032382E-006	0.0026554	8
	5	3	316265.6	4152.548	-1620.966	1	4457.711	-21.32342	3.752365E-006	0.0027956	8
	6	3	251203.1	4375.656	-1414.254	1	4598.53	-17.91133	1.509657E-006	0.0030944	8
	7	3	199546.9	4557.002	-1230.906	1	4720.318	-15.11562	3.491387E-006	0.0027881	8
	8	4	158578.1	4693.565	-1084.297	1	4817.183	-13.00814	5.300541E-006	0.0018254	8
	9	4	125953.1	4816.969	-875.826	1	4895.943	-10.305	-2.210925E-006	0.0035073	7
	10	4	100078.1	4894.063	-759.9097	1	4952.708	-8.825936	-2.908232E-007	0.0041057	7
	11	5	79453.13	4959.06	-676.999	1	5005.058	-7.773828	5.49145E-008	0.0037267	7
	12	5	63140.62	5013.406	-608.4676	1	5050.195	-6.920034	-1.054287E-006	0.0043353	7
	13	5	50203.12	5064.053	-563.8248	1	5095.344	-6.353069	9.698094E-007	0.0021144	7
	14	6	39890.62	5104.758	-528.3947	1	5132.032	-5.909654	-1.05512E-006	0.0043313	7
	15	6	31640.63	5148.047	-510.0741	1	5173.254	-5.65846	1.044604E-006	0.0013897	7
	16	6	25171.88	5187.685	-505.8797	1	5212.292	-5.569617	9.465517E-007	0.0011654	7
	17	6	20015.62	5221.458	-514.0092	1	5246.696	-5.62218	4.754999E-007	0.0011727	7
	18	7	15890.62	5261.909	-539.9125	1	5289.536	-5.858488	1.185747E-007	0.001461	7
	19	7	12609.37	5301.899	-576.462	1	5333.146	-6.205249	-1.055027E-006	0.0043278	7
	20	7	10078.13	5342.56	-631.7009	1	5379.776	-6.743308	-8.66347E-007	0.0043864	7
	21	8	8015.625	5387.046	-705.2126	1	5433.01	-7.45812	-1.002416E-006	0.0032657	7
	22	8	6328.125	5436.971	-801.4828	1	5495.728	-8.385776	-6.050379E-007	0.0043149	7
	23	8	5015.625	5491.191	-926.2098	1	5568.756	-9.57407	5.741853E-007	0.0029947	7
	24	9	3984.375	5539.54	-1077.647	1	5643.388	-11.00867	-8.659438E-007	0.0043858	7
	25	9	3170.956	5607.261	-1267.403	1	5748.712	-12.73648	5.734461E-007	0.0030018	7
	26	9	2527.573	5673.612	-1500.064	1	5868.566	-14.80973	-1.000175E-006	0.0032631	7
	27	10	1976.103	5761.379	-1815.554	1	6040.673	-17.49093	7.555319E-007	0.0010692	7
	28	10	1577.524	5858.769	-2195.642	1	6256.678	-20.54407	1.055052E-006	0.0017025	7
	29	10	1265.625	5944.488	-2598.746	1	6487.713	-23.61346	1.054872E-006	0.0016994	7
	30	11	998.264	6074.213	-3165.751	1	6849.675	-27.52757	9.70562E-007	0.0021024	7
	31	11	796.875	6210.813	-3826.181	1	7294.783	-31.63521	4.763688E-007	0.0011671	7
	32	11	627.7902	6386.571	-4681.967	1	7918.908	-36.24498	4.705104E-007	0.0011627	7
	33	12	505.5147	6576.388	-5639.126	1	8663.061	-40.61245	5.943229E-008	0.0037094	7
	34	12	397.9953	6832.886	-6936.956	1	9737.03	-45.43302	-1.014358E-009	0.002803	7
	35	12	315.5048	7136.772	-8492.839	1	11093.32	-49.95872	3.202703E-010	0.0027338	6
	36	13	252.4038	7489.672	-10331.95	1	12761.05	-54.0615	-4.717363E-011	0.0027359	6
	37	13	198.6229	7961.184	-12764.15	1	15043.41	-58.04762	2.327626E-010	0.0027422	6
	38	13	158.3615	8525.216	-15596.51	1	17774.43	-61.33852	1.447846E-010	0.0027309	6
	39	14	125.558	9255.195	-19168.93	1	21286.3	-64.22769	9.16549E-010	0.0027341	6
	40	14	100.4464	10156.43	-23348.37	1	25461.72	-66.4912	1.539128E-009	0.0027325	6
	41	14	79.00281	11468.98	-28862.66	1	31057.86	-68.32891	9.027957E-010	0.0027275	6
	42	15	63.3446	12863.1	-35392.23	1	37657.26	-70.02662	-1.830704E-010	0.0027333	6
	43	15	49.86702	15020.54	-43488.54	1	46009.46	-70.94556	1.306884E-009	0.0027212	6
	44	16	39.72458	18018.18	-52801.8	1	55791.45	-71.15822	6.265263E-010	0.002739	6
	45	16	31.6723	21743.74	-64072.18	1	67661.17	-71.25468	-5.305437E-011	0.0027296	6
	46	16	24.93351	26822.63	-78398.21	1	82859.72	-71.11248	4.784932E-010	0.0027273	6
	47	16	19.86229	33222.76	-94610.75	1	100274.4	-70.65117	4.566794E-010	0.0027413	6
	48	17	15.83615	42412.78	-113016.3	1	120712.5	-69.42987	1.627152E-009	0.0027401	5
	49	17	12.40079	54343.15	-136660.6	1	147069.1	-68.31474	-1.433059E-009	0.0027475	5
	50	17	9.93114	67892.59	-162418.3	1	176037.2	-67.31454	7.237343E-010	0.002743	5
	51	18	7.944915	85982.92	-190427.8	1	208939.8	-65.69964	1.155825E-009	0.0027374	5
	52	19	6.317385	108930.5	-222733	1	247943.3	-63.93844	8.702828E-010	0.0027262	5
	53	19	5.008013	137702.7	-258499.8	1	292889.3	-61.9558	3.810161E-010	0.0027417	5
	54	20	3.945707	173028.4	-297776.2	1	344397.3	-59.84047	-3.698794E-010	0.0027358	5
	55	22	3.158693	213275.9	-336933.7	1	398761.7	-57.66657	8.784573E-010	0.0027232	5
	56	24	2.504006	256991	-379219.3	1	458095.7	-55.87512	3.766138E-011	0.0027269	5
	57	25	1.998082	302585.1	-422019.7	1	519286.4	-54.35975	3.077138E-010	0.0027287	5
	58	26	1.584686	352755.9	-469442.1	1	587207.4	-53.07746	1.682053E-010	0.0026861	5
	59	28	1.266892	407998.6	-523738	1	663900.9	-52.08096	1.64183E-010	0.002687	5
	60	31	0.999041	465784.1	-586765.4	1	749165.2	-51.55687	8.297719E-011	0.0027101	5
