EXPLAIN
TAG	EISPOT
TITLE	LABEL	Potentiostatic EIS	Test &Identifier
DATE	LABEL	9/26/2019	Date
TIME	LABEL	10:48:16	Time
NOTES	NOTES	2	&Notes...
	
	
PSTAT	PSTAT	REF600-11020	Potentiostat
VDC	POTEN	0.00000E+000	T	DC &Voltage (V)
FREQINIT	QUANT	1.00000E+006	Initial Fre&q. (Hz)
FREQFINAL	QUANT	1.00000E+000	Final Fre&q. (Hz)
PTSPERDEC	QUANT	1.00000E+001	Points/&decade
VAC	QUANT	2.50000E+001	AC &Voltage (mV rms)
AREA	QUANT	1.00000E-002	&Area (cm^2)
CONDIT	TWOPARAM	T	5.00000E+000	0.00000E+000	Conditionin&g	Time(s)	E(V)
DELAY	TWOPARAM	T	5.00000E+000	0.00000E+000	Init. De&lay	Time(s)	Stab.(mV/s)
SPEED	SELECTOR	1	&Optimize for:
ZGUESS	QUANT	1.00000E+004	E&stimated Z (ohms)
OCVCURVE	TABLE	19
	Pt	T	Vf	Vm	Ach	Over
	#	s	V vs. Ref.	V	V	bits
	0	0.258333	2.87876E-002	2.87876E-002	5.70266E-004	...........
	1	0.516667	2.88190E-002	3.04314E-002	5.64699E-004	...........
	2	0.775	2.90094E-002	3.18646E-002	5.67799E-004	...........
	3	1.03333	2.95437E-002	3.34205E-002	5.67099E-004	...........
	4	1.29167	3.04964E-002	3.47647E-002	5.62332E-004	...........
	5	1.55	3.17629E-002	3.60443E-002	5.61366E-004	...........
	6	1.80833	3.31624E-002	3.72523E-002	5.59632E-004	...........
	7	2.06667	3.45539E-002	3.83882E-002	5.59632E-004	...........
	8	2.325	3.58715E-002	3.94511E-002	5.62532E-004	...........
	9	2.58333	3.70990E-002	4.03480E-002	5.67632E-004	...........
	10	2.84167	3.82368E-002	4.13365E-002	5.65799E-004	...........
	11	3.1	3.92952E-002	4.23466E-002	5.64499E-004	...........
	12	3.35833	4.02989E-002	4.32483E-002	5.62299E-004	...........
	13	3.61667	4.12727E-002	4.41056E-002	5.61999E-004	...........
	14	3.875	4.22222E-002	4.49736E-002	5.69132E-004	...........
	15	4.13333	4.31414E-002	4.58021E-002	5.63932E-004	...........
	16	4.39167	4.40278E-002	4.65634E-002	5.68932E-004	...........
	17	4.65	4.48801E-002	4.72535E-002	5.71032E-004	...........
	18	4.90833	4.56927E-002	4.79616E-002	5.67966E-004	...........
EOC	QUANT	0.0456927	Open Circuit (V)
PSTATMODEL	IQUANT	4	Pstat Model
PSTATSECTION	LABEL	REF600-11020	Pstat Section
PSTATSERIALNO	LABEL	11020	Pstat Serial Number
CTRLMODE	IQUANT	1	Control Mode
IESTAB	IQUANT	0	I/E Stability
CASPEED	IQUANT	1	Control Amp Speed
CONVENTION	IQUANT	1	Current Convention
ICHRANGE	IQUANT	2	Ich Range
ICHRANGEMODE	TOGGLE	F	Ich Auto Range
ICHOFFSETENABLE	TOGGLE	T	Ich Offset Enable
ICHOFFSET	QUANT	0	Ich Offset (V)
ICHFILTER	IQUANT	3	Ich Filter
VCHRANGE	IQUANT	2	Vch Range
VCHRANGEMODE	TOGGLE	F	Vch Auto Range
VCHOFFSETENABLE	TOGGLE	T	Vch Offset Enable
VCHOFFSET	QUANT	0	Vch Offset (V)
VCHFILTER	IQUANT	3	Vch Filter
ACHRANGE	IQUANT	2	Ach Range
ACHOFFSETENABLE	TOGGLE	F	Ach Offset Enable
ACHOFFSET	QUANT	0	Ach Offset (V)
ACHFILTER	IQUANT	3	Ach Filter
IERANGELOWERLIMIT	IQUANT	1	I/E Range Lower Limit
IERANGEMODE	TOGGLE	F	I/E AutoRange
IERANGE	IQUANT	6	I/E Range
POSFEEDENABLE	TOGGLE	F	Positive Feedback IR Comp
POSFEEDRESISTANCE	QUANT	0	Positive Feedback Resistance (ohm)
ACHSELECT	IQUANT	0	Ach Select
CABLEID	IQUANT	14	Cable ID
DCCALDATE	LABEL	8/19/2019	DC Calibration Date
ACCALDATE	LABEL	8/19/2019	AC Calibration Date
THERMOSELECT	IQUANT	1	Thermo Select
FRAMEWORKVERSION	QUANT	6.33	Framework Version
INSTRUMENTVERSION	LABEL	3.50	Instrument Version
ZCURVE	TABLE
	Pt	Time	Freq	Zreal	Zimag	Zsig	Zmod	Zphz	Idc	Vdc	IERange
	#	s	Hz	ohm	ohm	V	ohm	°	A	V	#
	0	1	1000078	2082.877	-1917.926	1	2831.398	-42.63907	3.327379E-006	0.0481994	8
	1	3	794390.6	2462.171	-2015.217	1	3181.727	-39.29935	-2.35553E-006	0.0481437	8
	2	4	630984.4	2842.15	-2040.64	1	3498.861	-35.67803	1.224385E-006	0.0476458	8
	3	6	501234.4	3229.883	-2029.719	1	3814.696	-32.14603	-3.49792E-007	0.0474043	8
	4	7	398109.4	3579.993	-1965.6	1	4084.108	-28.76904	-9.132617E-007	0.0477274	8
	5	9	316265.6	3917.151	-1885.103	1	4347.146	-25.69888	2.48525E-008	0.0474212	8
	6	10	251203.1	4232.539	-1769.589	1	4587.573	-22.68939	2.08506E-006	0.0468948	8
	7	11	199546.9	4492.208	-1648.962	1	4785.292	-20.15676	-9.361688E-007	0.0475482	8
	8	13	158578.1	4733.437	-1532.587	1	4975.364	-17.94086	-4.071291E-006	0.0482894	8
	9	14	125953.1	4981.442	-1347.586	1	5160.499	-15.1374	3.545935E-007	0.0463426	7
	10	16	100078.1	5147.172	-1235.196	1	5293.306	-13.49441	-5.544583E-008	0.0474763	7
	11	17	79453.13	5300.873	-1145.487	1	5423.227	-12.19378	-4.600394E-008	0.0473375	7
	12	19	63140.62	5437.089	-1064.483	1	5540.313	-11.07735	-4.896842E-008	0.0473961	7
	13	20	50203.12	5558.62	-1003.994	1	5648.563	-10.23834	-5.176489E-009	0.0473301	7
	14	21	39890.62	5662.151	-957.8	1	5742.59	-9.60117	-3.702929E-008	0.0472968	7
	15	23	31640.63	5764.571	-926.9731	1	5838.626	-9.135256	-3.934209E-008	0.0473029	7
	16	24	25171.88	5861.029	-914.2086	1	5931.9	-8.865607	-1.978943E-008	0.0473536	7
	17	25	20015.62	5955.488	-921.9138	1	6026.422	-8.799582	7.414368E-008	0.04716	7
	18	27	15890.62	6045.523	-951.209	1	6119.898	-8.941674	-5.36597E-008	0.0473255	7
	19	28	12609.37	6148.746	-997.748	1	6229.171	-9.216966	1.382587E-007	0.0470936	7
	20	30	10078.13	6243.222	-1061.945	1	6332.894	-9.65337	-5.221964E-008	0.0474628	7
	21	31	8015.625	6357.872	-1143.306	1	6459.852	-10.19428	-2.124214E-008	0.0473504	7
	22	33	6328.125	6481.518	-1252.933	1	6601.508	-10.94082	-2.043609E-008	0.0473535	7
	23	34	5015.625	6616.342	-1383.622	1	6759.467	-11.81158	4.366809E-008	0.0472397	7
	24	36	3984.375	6763.218	-1539.295	1	6936.177	-12.82199	4.450727E-008	0.0471426	7
	25	37	3170.956	6924.969	-1719.777	1	7135.322	-13.94693	7.392457E-008	0.0471637	7
	26	38	2527.573	7094.394	-1924.73	1	7350.851	-15.17913	8.254341E-008	0.0471138	7
	27	40	1976.103	7292.825	-2191.85	1	7615.083	-16.72809	-7.92324E-008	0.0474095	7
	28	41	1577.524	7482.761	-2478.235	1	7882.472	-18.32449	-1.948549E-008	0.047351	7
	29	42	1265.625	7706.333	-2818.54	1	8205.592	-20.08965	-5.413118E-009	0.0473288	7
	30	44	998.264	7907.824	-3229.755	1	8541.955	-22.21634	-5.52736E-008	0.0473253	7
	31	45	796.875	8115.998	-3734.166	1	8933.835	-24.70713	-3.546003E-008	0.047295	7
	32	46	627.7902	8352.314	-4393.582	1	9437.41	-27.74579	-2.478188E-009	0.0473532	6
	33	48	505.5147	8570.002	-5140.854	1	9993.66	-30.95811	1.690599E-008	0.0469018	6
	34	49	397.9953	8832.784	-6176.49	1	10778.08	-34.96389	-6.105989E-010	0.0472439	6
	35	51	315.5048	9117.277	-7439.722	1	11767.51	-39.21453	-1.267893E-009	0.0472466	6
	36	52	252.4038	9437.549	-8949.77	1	13006.37	-43.48041	-3.667422E-010	0.047242	6
	37	53	198.6229	9848.94	-10968.71	1	14741.58	-48.07894	-3.294119E-010	0.0472443	6
	38	55	158.3615	10340.45	-13338.93	1	16877.56	-52.21686	3.970417E-010	0.0472439	6
	39	56	125.558	10972.29	-16329.94	1	19673.79	-56.10236	-4.629661E-010	0.0472431	6
	40	57	100.4464	11752.94	-19836.52	1	23056.87	-59.35369	-3.642245E-010	0.0472443	6
	41	59	79.00281	12856.39	-24596.71	1	27754.01	-62.40449	9.019203E-011	0.0472405	6
	42	60	63.3446	14474.21	-29566.84	1	32919.61	-63.91631	-7.481409E-010	0.0472463	6
	43	62	49.86702	16033.25	-36908.99	1	40241.01	-66.51989	-1.305946E-009	0.0472411	6
	44	63	39.72458	18551.55	-44564.97	1	48272.11	-67.39896	-3.741861E-010	0.0472491	6
	45	64	31.6723	21866.18	-54188.19	1	58433.64	-68.02479	7.419469E-011	0.0472431	6
	46	66	24.93351	26244.11	-66077.38	1	71098.34	-68.33839	-7.2095E-010	0.0472387	6
	47	67	19.86229	31888.11	-79640.48	1	85787.28	-68.1788	-7.407387E-010	0.0472418	6
	48	68	15.83615	38945.17	-94126	1	101864.8	-67.52239	-1.459268E-009	0.0472417	6
	49	70	12.40079	49064.77	-115104.8	1	125125.8	-66.9133	-3.199668E-010	0.0472393	5
	50	71	9.93114	60646.07	-134815.4	1	147828.1	-65.77963	-1.165259E-009	0.0472463	5
	51	73	7.944915	75063.78	-158891	1	175729.7	-64.71287	-3.613609E-010	0.0472421	5
	52	75	6.317385	93229.23	-184160.8	1	206414.4	-63.14973	-2.165646E-010	0.0472427	5
	53	77	5.008013	115032.9	-213665.2	1	242663.1	-61.7029	-5.307302E-010	0.0472487	5
	54	79	3.945707	140458.2	-246603.5	1	283798.8	-60.3354	-9.260206E-010	0.0472438	5
	55	82	3.158693	167595.5	-280808.1	1	327019.1	-59.16986	-4.328673E-010	0.0472624	5
	56	85	2.504006	198017.1	-320438.7	1	376685.2	-58.28575	-9.490777E-010	0.0472482	5
	57	88	1.998082	229955.1	-363794	1	430378.3	-57.70292	-6.117061E-010	0.0471984	5
	58	91	1.584686	263599.3	-416148.4	1	492609.5	-57.64876	-6.500133E-010	0.0472626	5
	59	95	1.266892	300838.1	-478051.2	1	564833.1	-57.81775	-6.183014E-010	0.0472003	5
	60	99	0.999041	343482.6	-556019.6	1	653558	-58.29419	-5.202049E-010	0.0472865	5
