EXPLAIN
TAG	EISPOT
TITLE	LABEL	Potentiostatic IDE	Test &Identifier
DATE	LABEL	9/6/2019	Date
TIME	LABEL	7:30:54	Time
NOTES	NOTES	1	&Notes...
	
PSTAT	PSTAT	REF600-11020	Potentiostat
VDC	POTEN	0.00000E+000	T	DC &Voltage (V)
FREQINIT	QUANT	1.00000E+006	Initial Fre&q. (Hz)
FREQFINAL	QUANT	1.00000E+000	Final Fre&q. (Hz)
PTSPERDEC	QUANT	1.00000E+001	Points/&decade
VAC	QUANT	2.50000E+001	AC &Voltage (mV rms)
AREA	QUANT	1.00000E-002	&Area (cm^2)
CONDIT	TWOPARAM	T	5.00000E+000	0.00000E+000	Conditionin&g	Time(s)	E(V)
DELAY	TWOPARAM	T	5.00000E+000	0.00000E+000	Init. De&lay	Time(s)	Stab.(mV/s)
SPEED	SELECTOR	1	&Optimize for:
ZGUESS	QUANT	1.00000E+007	E&stimated Z (ohms)
OCVCURVE	TABLE	19
	Pt	T	Vf	Vm	Ach	Over
	#	s	V vs. Ref.	V	V	bits
	0	0.258333	3.38898E-003	3.38898E-003	5.59299E-004	...........
	1	0.516667	3.38569E-003	3.21692E-003	5.59232E-004	...........
	2	0.775	3.36557E-003	3.05700E-003	5.62166E-004	...........
	3	1.03333	3.30919E-003	2.92147E-003	5.55299E-004	...........
	4	1.29167	3.21024E-003	2.79360E-003	5.56899E-004	...........
	5	1.55	3.08256E-003	2.67730E-003	5.63199E-004	...........
	6	1.80833	2.94639E-003	2.56954E-003	5.60966E-004	...........
	7	2.06667	2.81529E-003	2.46882E-003	5.59966E-004	...........
	8	2.325	2.69422E-003	2.37119E-003	5.55333E-004	...........
	9	2.58333	2.58302E-003	2.28189E-003	5.63099E-004	...........
	10	2.84167	2.47986E-003	2.19593E-003	5.60532E-004	...........
	11	3.1	2.38317E-003	2.11361E-003	5.54166E-004	...........
	12	3.35833	2.29193E-003	2.03716E-003	5.58266E-004	...........
	13	3.61667	2.20548E-003	1.96213E-003	5.61699E-004	...........
	14	3.875	2.12335E-003	1.89105E-003	5.60032E-004	...........
	15	4.13333	2.04507E-003	1.82099E-003	5.50299E-004	...........
	16	4.39167	1.97016E-003	1.75725E-003	5.49666E-004	...........
	17	4.65	1.89831E-003	1.69263E-003	5.56499E-004	...........
	18	4.90833	1.82940E-003	1.63143E-003	5.54133E-004	...........
EOC	QUANT	0.0018294	Open Circuit (V)
PSTATMODEL	IQUANT	4	Pstat Model
PSTATSECTION	LABEL	REF600-11020	Pstat Section
PSTATSERIALNO	LABEL	11020	Pstat Serial Number
CTRLMODE	IQUANT	1	Control Mode
IESTAB	IQUANT	0	I/E Stability
CASPEED	IQUANT	1	Control Amp Speed
CONVENTION	IQUANT	1	Current Convention
ICHRANGE	IQUANT	2	Ich Range
ICHRANGEMODE	TOGGLE	F	Ich Auto Range
ICHOFFSETENABLE	TOGGLE	T	Ich Offset Enable
ICHOFFSET	QUANT	0	Ich Offset (V)
ICHFILTER	IQUANT	3	Ich Filter
VCHRANGE	IQUANT	2	Vch Range
VCHRANGEMODE	TOGGLE	F	Vch Auto Range
VCHOFFSETENABLE	TOGGLE	T	Vch Offset Enable
VCHOFFSET	QUANT	0	Vch Offset (V)
VCHFILTER	IQUANT	3	Vch Filter
ACHRANGE	IQUANT	2	Ach Range
ACHOFFSETENABLE	TOGGLE	F	Ach Offset Enable
ACHOFFSET	QUANT	0	Ach Offset (V)
ACHFILTER	IQUANT	3	Ach Filter
IERANGELOWERLIMIT	IQUANT	1	I/E Range Lower Limit
IERANGEMODE	TOGGLE	F	I/E AutoRange
IERANGE	IQUANT	2	I/E Range
POSFEEDENABLE	TOGGLE	F	Positive Feedback IR Comp
POSFEEDRESISTANCE	QUANT	0	Positive Feedback Resistance (ohm)
ACHSELECT	IQUANT	0	Ach Select
CABLEID	IQUANT	14	Cable ID
DCCALDATE	LABEL	8/19/2019	DC Calibration Date
ACCALDATE	LABEL	8/19/2019	AC Calibration Date
THERMOSELECT	IQUANT	1	Thermo Select
FRAMEWORKVERSION	QUANT	6.33	Framework Version
INSTRUMENTVERSION	LABEL	3.50	Instrument Version
ZCURVE	TABLE
	Pt	Time	Freq	Zreal	Zimag	Zsig	Zmod	Zphz	Idc	Vdc	IERange
	#	s	Hz	ohm	ohm	V	ohm	°	A	V	#
	0	2	1000078	2111.088	-964.836	1	2321.121	-24.56194	2.403807E-006	0.003367	8
	1	3	794390.6	2264.849	-857.7567	1	2421.835	-20.74297	3.044907E-006	0.0030592	8
	2	4	630984.4	2390.211	-745.7861	1	2503.859	-17.3288	-2.867878E-006	0.0040256	8
	3	6	501234.4	2475.714	-642.2189	1	2557.656	-14.54241	5.583587E-007	0.0034181	8
	4	7	398109.4	2540.107	-556.828	1	2600.423	-12.36448	-1.04552E-006	0.0036186	8
	5	8	316265.6	2592.051	-482.2157	1	2636.524	-10.53862	-3.449638E-007	0.0034958	8
	6	10	251203.1	2633.065	-418.9818	1	2666.191	-9.04129	-3.866371E-007	0.0034884	8
	7	11	199546.9	2668.212	-369.2636	1	2693.643	-7.879323	-1.831376E-006	0.0037986	8
	8	12	158578.1	2695.772	-330.2849	1	2715.93	-6.985044	1.133608E-006	0.0032134	8
	9	14	125953.1	2731.413	-286.0646	1	2746.352	-5.978869	9.162537E-008	0.003233	7
	10	15	100078.1	2751.147	-265.6268	1	2763.94	-5.514888	-3.4593E-008	0.0034399	7
	11	16	79453.13	2774.273	-260.8423	1	2786.509	-5.371264	7.030081E-008	0.0032828	7
	12	18	63140.62	2799.48	-260.9427	1	2811.615	-5.325218	-2.337906E-008	0.0034218	7
	13	19	50203.12	2825.118	-265.0566	1	2837.525	-5.359882	2.718259E-008	0.0033042	7
	14	20	39890.62	2852.431	-273.1382	1	2865.479	-5.469753	2.140145E-009	0.003347	7
	15	22	31640.63	2880.275	-285.32	1	2894.373	-5.657261	1.372918E-008	0.003338	7
	16	23	25171.88	2909.979	-303.4191	1	2925.755	-5.952634	-3.12394E-008	0.0034327	7
	17	24	20015.62	2940.022	-326.2831	1	2958.072	-6.33276	6.971965E-008	0.0032788	7
	18	26	15890.62	2972.522	-355.4384	1	2993.697	-6.818749	4.390675E-008	0.0032996	7
	19	27	12609.37	3007.447	-391.7299	1	3032.852	-7.421184	-2.559645E-008	0.0034148	7
	20	28	10078.13	3042.31	-434.4889	1	3073.179	-8.127764	7.228407E-008	0.0032793	7
	21	29	8015.625	3081.02	-488.6792	1	3119.534	-9.012583	2.27401E-010	0.0033951	7
	22	31	6328.125	3123.521	-556.6816	1	3172.739	-10.1053	-2.339148E-008	0.0033963	7
	23	32	5015.625	3167.438	-638.9321	1	3231.237	-11.4046	4.144496E-011	0.0033907	7
	24	33	3984.375	3214.972	-738.068	1	3298.604	-12.92948	-1.855488E-008	0.0034378	7
	25	35	3170.956	3265.942	-859.3299	1	3377.104	-14.74145	-2.606996E-008	0.003389	7
	26	36	2527.573	3320.391	-1006.004	1	3469.444	-16.85563	4.212995E-008	0.0032858	7
	27	37	1976.103	3388.713	-1203.672	1	3596.137	-19.55506	-2.896568E-008	0.0034309	7
	28	39	1577.524	3458.575	-1425.896	1	3740.979	-22.4053	7.050726E-008	0.0032744	7
	29	40	1265.625	3538.551	-1693.736	1	3923.02	-25.57822	-2.821511E-009	0.0033943	7
	30	41	998.264	3636.509	-2040.14	1	4169.696	-29.29312	-2.647839E-008	0.0034284	7
	31	43	796.875	3746.256	-2443.018	1	4472.445	-33.10928	3.445793E-010	0.0033889	7
	32	44	627.7902	3883.323	-2965.475	1	4886.127	-37.36693	-1.52184E-009	0.0033965	7
	33	45	505.5147	4032.679	-3536.991	1	5364.029	-41.25343	1.117417E-008	0.0033598	7
	34	47	397.9953	4221.062	-4316.225	1	6037.148	-45.63864	4.875132E-009	0.0033967	7
	35	48	315.5048	4439.242	-5238.441	1	6866.45	-49.72087	4.919848E-009	0.0033998	7
	36	49	252.4038	4687.825	-6320.61	1	7869.296	-53.43668	5.361816E-009	0.0033914	7
	37	51	198.6229	5007.618	-7746.194	1	9223.869	-57.11888	5.298319E-009	0.0033964	7
	38	52	158.3615	5375.15	-9403.562	1	10831.4	-60.24738	1.025646E-009	0.0033338	6
	39	53	125.558	5835.477	-11484.16	1	12881.72	-63.06339	1.107181E-009	0.0033393	6
	40	55	100.4464	6381.646	-13932.49	1	15324.48	-65.3903	1.298509E-009	0.0033381	6
	41	56	79.00281	7119.285	-17162.67	1	18580.68	-67.47073	1.294297E-009	0.0033309	6
	42	58	63.3446	7996.384	-20820.45	1	22303.21	-68.99002	7.064477E-010	0.0033286	6
	43	59	49.86702	9176.444	-25564.14	1	27161.23	-70.25401	7.216527E-010	0.0033235	6
	44	60	39.72458	10650.35	-31145.66	1	32916.29	-71.12172	8.749914E-010	0.0033321	6
	45	62	31.6723	12557.36	-37832.52	1	39862.09	-71.63797	4.546007E-010	0.0033311	6
	46	63	24.93351	15130.78	-46387.37	1	48792.71	-71.93454	7.373605E-010	0.0033299	6
	47	64	19.86229	18344.91	-56179.9	1	59099.21	-71.91614	1.844845E-009	0.0033379	6
	48	66	15.83615	22370.19	-67746.27	1	71344.12	-71.7265	5.93335E-010	0.0033266	6
	49	67	12.40079	28143.43	-82856.95	1	87506.16	-71.23929	4.251118E-010	0.0033336	6
	50	68	9.93114	35017.72	-98703	1	104730.7	-70.4664	1.293645E-009	0.0033322	5
	51	70	7.944915	43542.23	-117526.7	1	125333.4	-69.67094	9.046782E-010	0.0033377	5
	52	71	6.317385	54378.21	-139750.9	1	149957.7	-68.73859	8.767899E-010	0.0033384	5
	53	73	5.008013	67958.86	-166270.5	1	179622.6	-67.76895	7.062041E-011	0.0033296	5
	54	76	3.945707	85158.45	-197222.1	1	214822.1	-66.64582	7.029369E-010	0.0033397	5
	55	78	3.158693	104667.8	-230110	1	252796.3	-65.54111	3.22873E-010	0.0033515	5
	56	81	2.504006	128505.2	-269842.6	1	298878.9	-64.53514	-2.96248E-011	0.0033262	5
	57	84	1.998082	155689.9	-313525.4	1	350053.6	-63.59201	-1.237296E-011	0.0033027	5
	58	87	1.584686	188273.8	-363449.8	1	409319.9	-62.615	8.482131E-011	0.0033575	5
	59	91	1.266892	225014.2	-420052.1	1	476524	-61.82286	1.052312E-010	0.0032961	5
	60	95	0.999041	269221	-487304.5	1	556727.6	-61.08067	1.64068E-010	0.003374	5
