EXPLAIN
TAG	EISPOT
TITLE	LABEL	Potentiostatic EIS	Test &Identifier
DATE	LABEL	8/16/2017	Date
TIME	LABEL	16:39:39	Time
NOTES	NOTES	1	&Notes...
	
PSTAT	PSTAT	REF600-11020	Potentiostat
VDC	POTEN	0.00000E+000	T	DC &Voltage (V)
FREQINIT	QUANT	1.00000E+006	Initial Fre&q. (Hz)
FREQFINAL	QUANT	1.00000E+000	Final Fre&q. (Hz)
PTSPERDEC	QUANT	1.00000E+001	Points/&decade
VAC	QUANT	2.50000E+001	AC &Voltage (mV rms)
AREA	QUANT	1.00000E-002	&Area (cm^2)
CONDIT	TWOPARAM	T	5.00000E+000	0.00000E+000	Conditionin&g	Time(s)	E(V)
DELAY	TWOPARAM	T	5.00000E+000	0.00000E+000	Init. De&lay	Time(s)	Stab.(mV/s)
SPEED	SELECTOR	0	&Optimize for:
ZGUESS	QUANT	1.00000E+005	E&stimated Z (ohms)
OCVCURVE	TABLE	19
	Pt	T	Vf	Vm	Ach	Over
	#	s	V vs. Ref.	V	V	bits
	0	0.258333	7.81065E-003	7.81065E-003	5.51866E-004	...........
	1	0.516667	7.80871E-003	7.70921E-003	5.48266E-004	...........
	2	0.775	7.79688E-003	7.61658E-003	5.46833E-004	...........
	3	1.03333	7.76406E-003	7.54991E-003	5.52832E-004	...........
	4	1.29167	7.70809E-003	7.51056E-003	5.48066E-004	...........
	5	1.55	7.64060E-003	7.48600E-003	5.49299E-004	...........
	6	1.80833	7.57756E-003	7.46894E-003	5.43899E-004	...........
	7	2.06667	7.52851E-003	7.44905E-003	5.46499E-004	...........
	8	2.325	7.49409E-003	7.43482E-003	5.45966E-004	...........
	9	2.58333	7.47043E-003	7.44291E-003	5.45466E-004	...........
	10	2.84167	7.45448E-003	7.44029E-003	5.43966E-004	...........
	11	3.1	7.44507E-003	7.43553E-003	5.40533E-004	...........
	12	3.35833	7.44137E-003	7.48010E-003	5.49733E-004	...........
	13	3.61667	7.44373E-003	7.48609E-003	5.49233E-004	...........
	14	3.875	7.45294E-003	7.49406E-003	5.43899E-004	...........
	15	4.13333	7.46673E-003	7.50295E-003	5.45199E-004	...........
	16	4.39167	7.48098E-003	7.52595E-003	5.46599E-004	...........
	17	4.65	7.49406E-003	7.52648E-003	5.43599E-004	...........
	18	4.90833	7.50647E-003	7.54599E-003	5.49899E-004	...........
EOC	QUANT	0.0075065	Open Circuit (V)
PSTATMODEL	IQUANT	4	Pstat Model
PSTATSECTION	LABEL	REF600-11020	Pstat Section
PSTATSERIALNO	LABEL	11020	Pstat Serial Number
CTRLMODE	IQUANT	1	Control Mode
IESTAB	IQUANT	0	I/E Stability
CASPEED	IQUANT	1	Control Amp Speed
CONVENTION	IQUANT	1	Current Convention
ICHRANGE	IQUANT	2	Ich Range
ICHRANGEMODE	TOGGLE	F	Ich Auto Range
ICHOFFSETENABLE	TOGGLE	T	Ich Offset Enable
ICHOFFSET	QUANT	0	Ich Offset (V)
ICHFILTER	IQUANT	3	Ich Filter
VCHRANGE	IQUANT	2	Vch Range
VCHRANGEMODE	TOGGLE	F	Vch Auto Range
VCHOFFSETENABLE	TOGGLE	T	Vch Offset Enable
VCHOFFSET	QUANT	0	Vch Offset (V)
VCHFILTER	IQUANT	3	Vch Filter
ACHRANGE	IQUANT	2	Ach Range
ACHOFFSETENABLE	TOGGLE	F	Ach Offset Enable
ACHOFFSET	QUANT	0	Ach Offset (V)
ACHFILTER	IQUANT	3	Ach Filter
IERANGELOWERLIMIT	IQUANT	1	I/E Range Lower Limit
IERANGEMODE	TOGGLE	F	I/E AutoRange
IERANGE	IQUANT	5	I/E Range
POSFEEDENABLE	TOGGLE	F	Positive Feedback IR Comp
POSFEEDRESISTANCE	QUANT	0	Positive Feedback Resistance (ohm)
ACHSELECT	IQUANT	0	Ach Select
CABLEID	IQUANT	14	Cable ID
DCCALDATE	LABEL	8/19/2019	DC Calibration Date
ACCALDATE	LABEL	8/19/2019	AC Calibration Date
THERMOSELECT	IQUANT	1	Thermo Select
FRAMEWORKVERSION	QUANT	6.33	Framework Version
INSTRUMENTVERSION	LABEL	3.50	Instrument Version
ZCURVE	TABLE
	Pt	Time	Freq	Zreal	Zimag	Zsig	Zmod	Zphz	Idc	Vdc	IERange
	#	s	Hz	ohm	ohm	V	ohm	°	A	V	#
	0	1	1000078	2182.356	-1532.015	1	2666.411	-35.06887	2.682417E-006	0.009904	8
	1	2	794390.6	2488.233	-1491.818	1	2901.177	-30.94476	-7.35698E-006	0.0098601	8
	2	2	630984.4	2763.153	-1417.823	1	3105.678	-27.16317	-4.139888E-006	0.0096836	8
	3	2	501234.4	2993.857	-1306.032	1	3266.329	-23.56862	-6.357278E-006	0.0101332	8
	4	3	398109.4	3197.468	-1197.221	1	3414.256	-20.5273	7.336672E-006	0.0078613	8
	5	3	316265.6	3354.977	-1086.565	1	3526.542	-17.94541	-8.873342E-007	0.0095927	8
	6	3	251203.1	3493.087	-984.498	1	3629.172	-15.74005	-3.056316E-007	0.0087888	8
	7	3	199546.9	3598.438	-898.8231	1	3708.994	-14.02446	7.846393E-007	0.0094731	8
	8	4	158578.1	3694.441	-845.9402	1	3790.054	-12.89706	-2.189269E-006	0.0092392	8
	9	4	125953.1	3796.472	-716.5731	1	3863.506	-10.68867	8.582941E-008	0.0118272	7
	10	4	100078.1	3869.394	-686.2455	1	3929.776	-10.05696	8.345473E-007	0.007131	7
	11	5	79453.13	3936.069	-683.2643	1	3994.933	-9.84787	-3.396236E-007	0.0081341	7
	12	5	63140.62	4006.377	-696.531	1	4066.474	-9.86261	1.191424E-006	0.0078011	7
	13	5	50203.12	4071.549	-719.3857	1	4134.613	-10.01995	4.284294E-007	0.0096022	7
	14	6	39890.62	4138.829	-752.6207	1	4206.702	-10.30627	-1.323867E-006	0.0102247	7
	15	6	31640.63	4224.92	-805.2609	1	4300.977	-10.79103	5.1952E-007	0.0072466	7
	16	6	25171.88	4310.178	-872.3502	1	4397.571	-11.44171	4.28803E-007	0.0095995	7
	17	7	20015.62	4406.384	-955.333	1	4508.756	-12.23277	9.076588E-007	0.008785	7
	18	7	15890.62	4501.994	-1051.444	1	4623.146	-13.14583	-7.952279E-007	0.0088766	7
	19	7	12609.37	4625.896	-1171.884	1	4772.025	-14.21574	5.199044E-007	0.0072426	7
	20	8	10078.13	4736.452	-1302.232	1	4912.208	-15.37296	-1.322695E-006	0.0102191	7
	21	8	8015.625	4895.725	-1464.291	1	5110.017	-16.65171	1.057551E-006	0.0072093	7
	22	8	6328.125	5051.715	-1656.35	1	5316.326	-18.15322	-6.673855E-007	0.0107574	7
	23	9	5015.625	5247.938	-1880.407	1	5574.655	-19.71329	1.192245E-006	0.007797	7
	24	9	3984.375	5450.57	-2104.671	1	5842.803	-21.11346	8.330117E-008	0.0100719	7
	25	9	3170.956	5686.09	-2408.151	1	6175.015	-22.95344	1.197233E-007	0.0075674	7
	26	10	2527.573	5941.492	-2716.668	1	6533.117	-24.57162	-9.678374E-007	0.0108523	7
	27	10	1976.103	6260.29	-3095.804	1	6983.927	-26.31306	-3.037771E-007	0.0104931	7
	28	10	1577.524	6473.349	-3462.269	1	7341.087	-28.14009	-7.99878E-007	0.0088676	7
	29	11	1265.625	6900.161	-3969.207	1	7960.328	-29.90897	8.371102E-007	0.0071173	7
	30	11	998.264	7269.583	-4523.011	1	8561.803	-31.88917	-1.321674E-006	0.0102094	7
	31	12	796.875	7626.809	-5157.581	1	9207	-34.06827	-3.051657E-007	0.0104889	7
	32	12	627.7902	8008.67	-5979.879	1	9994.89	-36.7478	-6.633917E-007	0.0107484	7
	33	12	505.5147	8357.469	-6903.624	1	10840.08	-39.55815	-3.443426E-007	0.0081109	7
	34	13	397.9953	8762.813	-8173.972	1	11983.35	-43.0088	8.168938E-011	0.0089964	6
	35	13	315.5048	9165.881	-9728.52	1	13366.28	-46.70565	1.393887E-009	0.0089848	6
	36	13	252.4038	9591.81	-11599.51	1	15051.63	-50.41214	1.119216E-009	0.0089927	6
	37	14	198.6229	10113.01	-14117.73	1	17366.15	-54.3847	8.900797E-010	0.0089859	6
	38	14	158.3615	10703.96	-17090.87	1	20166.12	-57.94121	4.838803E-010	0.0089896	6
	39	14	125.558	11453.51	-20881.05	1	23815.98	-61.25468	7.129517E-011	0.008996	6
	40	15	100.4464	12320.57	-25386.75	1	28218.5	-64.11201	-1.073719E-009	0.0089932	6
	41	15	79.00281	13585.04	-31269.55	1	34093.07	-66.51749	-4.257593E-010	0.0089892	6
	42	15	63.3446	15455.75	-38458.66	1	41448.14	-68.10581	9.314476E-010	0.008976	6
	43	16	49.86702	17461.97	-47345.99	1	50463.49	-69.7552	1.299462E-009	0.0089718	6
	44	16	39.72458	19958.81	-57303.91	1	60680.24	-70.7969	3.950504E-010	0.0089853	6
	45	16	31.6723	23125.05	-69483.34	1	73230.48	-71.59181	1.198559E-009	0.0089742	6
	46	17	24.93351	28008.53	-85665.94	1	90128.41	-71.89481	2.343674E-010	0.0089851	6
	47	17	19.86229	34122.96	-103885.1	1	109345.8	-71.81629	-3.238176E-010	0.0089868	5
	48	17	15.83615	39625.52	-125360.4	1	131474	-72.45863	-1.220144E-009	0.0089838	5
	49	18	12.40079	50555.25	-153698.9	1	161799.9	-71.79273	6.919688E-010	0.0089875	5
	50	18	9.93114	63867.19	-182391.6	1	193250.4	-70.70152	7.39263E-010	0.0089837	5
	51	19	7.944915	79546.54	-217358.5	1	231457.1	-69.89893	4.541116E-010	0.0089861	5
	52	19	6.317385	99302.2	-260377.1	1	278670.4	-69.12422	1.093619E-010	0.0089904	5
	53	20	5.008013	125140.7	-310227.4	1	334516.4	-68.03165	8.397476E-011	0.0090056	5
	54	21	3.945707	157899.7	-369308.2	1	401647.7	-66.85061	-2.1482E-011	0.0089781	5
	55	22	3.158693	196159.9	-433196.8	1	475539.9	-65.63806	1.094719E-010	0.0089719	5
	56	24	2.504006	244808.4	-508002.4	1	563912.8	-64.27039	1.294021E-010	0.0089839	5
	57	25	1.998082	302378.9	-588883.8	1	661979.7	-62.82049	-1.105754E-010	0.0089393	5
	58	27	1.584686	370280.8	-681269.6	1	775394.2	-61.47522	-2.333027E-011	0.0089502	5
	59	29	1.266892	448529.6	-778914.4	1	898825	-60.06496	-7.508464E-012	0.0089906	5
	60	31	0.999041	545957.6	-895041.6	1	1048413	-58.61764	3.70651E-011	0.0090181	4
