EXPLAIN
TAG	EISPOT
TITLE	LABEL	Potentiostatic EIS	Test &Identifier
DATE	LABEL	11/3/2019	Date
TIME	LABEL	12:03:06	Time
NOTES	NOTES	1	&Notes...
	
PSTAT	PSTAT	REF600-11020	Potentiostat
VDC	POTEN	0.00000E+000	T	DC &Voltage (V)
FREQINIT	QUANT	1.00000E+006	Initial Fre&q. (Hz)
FREQFINAL	QUANT	1.00000E+000	Final Fre&q. (Hz)
PTSPERDEC	QUANT	1.00000E+001	Points/&decade
VAC	QUANT	2.50000E+001	AC &Voltage (mV rms)
AREA	QUANT	1.00000E-002	&Area (cm^2)
CONDIT	TWOPARAM	T	5.00000E+000	0.00000E+000	Conditionin&g	Time(s)	E(V)
DELAY	TWOPARAM	T	5.00000E+000	0.00000E+000	Init. De&lay	Time(s)	Stab.(mV/s)
SPEED	SELECTOR	1	&Optimize for:
ZGUESS	QUANT	1.00000E+005	E&stimated Z (ohms)
OCVCURVE	TABLE	19
	Pt	T	Vf	Vm	Ach	Over
	#	s	V vs. Ref.	V	V	bits
	0	0.258333	1.17211E-002	1.17211E-002	5.51066E-004	...........
	1	0.516667	1.17225E-002	1.17951E-002	5.55566E-004	...........
	2	0.775	1.17295E-002	1.17780E-002	5.52832E-004	...........
	3	1.03333	1.17450E-002	1.18202E-002	5.52766E-004	...........
	4	1.29167	1.17669E-002	1.18712E-002	5.49966E-004	...........
	5	1.55	1.17950E-002	1.19706E-002	5.49566E-004	...........
	6	1.80833	1.18350E-002	1.20786E-002	5.52499E-004	...........
	7	2.06667	1.18944E-002	1.21802E-002	5.56033E-004	...........
	8	2.325	1.19742E-002	1.22882E-002	5.55333E-004	...........
	9	2.58333	1.20690E-002	1.23884E-002	5.54433E-004	...........
	10	2.84167	1.21715E-002	1.24943E-002	5.55633E-004	...........
	11	3.1	1.22763E-002	1.25950E-002	5.51999E-004	...........
	12	3.35833	1.23809E-002	1.27005E-002	5.55866E-004	...........
	13	3.61667	1.24847E-002	1.27974E-002	5.56366E-004	...........
	14	3.875	1.25877E-002	1.29026E-002	5.54266E-004	...........
	15	4.13333	1.26898E-002	1.29941E-002	5.58932E-004	...........
	16	4.39167	1.27909E-002	1.31010E-002	5.51799E-004	...........
	17	4.65	1.28911E-002	1.31990E-002	5.50666E-004	...........
	18	4.90833	1.29911E-002	1.33009E-002	5.54066E-004	...........
EOC	QUANT	0.0129911	Open Circuit (V)
PSTATMODEL	IQUANT	4	Pstat Model
PSTATSECTION	LABEL	REF600-11020	Pstat Section
PSTATSERIALNO	LABEL	11020	Pstat Serial Number
CTRLMODE	IQUANT	1	Control Mode
IESTAB	IQUANT	0	I/E Stability
CASPEED	IQUANT	1	Control Amp Speed
CONVENTION	IQUANT	1	Current Convention
ICHRANGE	IQUANT	2	Ich Range
ICHRANGEMODE	TOGGLE	F	Ich Auto Range
ICHOFFSETENABLE	TOGGLE	T	Ich Offset Enable
ICHOFFSET	QUANT	0	Ich Offset (V)
ICHFILTER	IQUANT	3	Ich Filter
VCHRANGE	IQUANT	2	Vch Range
VCHRANGEMODE	TOGGLE	F	Vch Auto Range
VCHOFFSETENABLE	TOGGLE	T	Vch Offset Enable
VCHOFFSET	QUANT	0	Vch Offset (V)
VCHFILTER	IQUANT	3	Vch Filter
ACHRANGE	IQUANT	2	Ach Range
ACHOFFSETENABLE	TOGGLE	F	Ach Offset Enable
ACHOFFSET	QUANT	0	Ach Offset (V)
ACHFILTER	IQUANT	3	Ach Filter
IERANGELOWERLIMIT	IQUANT	1	I/E Range Lower Limit
IERANGEMODE	TOGGLE	F	I/E AutoRange
IERANGE	IQUANT	5	I/E Range
POSFEEDENABLE	TOGGLE	F	Positive Feedback IR Comp
POSFEEDRESISTANCE	QUANT	0	Positive Feedback Resistance (ohm)
ACHSELECT	IQUANT	0	Ach Select
CABLEID	IQUANT	14	Cable ID
DCCALDATE	LABEL	8/19/2019	DC Calibration Date
ACCALDATE	LABEL	8/19/2019	AC Calibration Date
THERMOSELECT	IQUANT	1	Thermo Select
FRAMEWORKVERSION	QUANT	6.33	Framework Version
INSTRUMENTVERSION	LABEL	3.50	Instrument Version
ZCURVE	TABLE
	Pt	Time	Freq	Zreal	Zimag	Zsig	Zmod	Zphz	Idc	Vdc	IERange
	#	s	Hz	ohm	ohm	V	ohm	°	A	V	#
	0	1	1000078	2142.137	-1596.731	1	2671.76	-36.70053	-3.032566E-006	0.01519	8
	1	2	794390.6	2453.64	-1566.013	1	2910.798	-32.54769	-4.909292E-006	0.0154273	8
	2	4	630984.4	2757.354	-1467.382	1	3123.494	-28.02058	8.211814E-006	0.0139331	8
	3	5	501234.4	2990.161	-1358.726	1	3284.387	-24.43699	-3.991804E-007	0.0151212	8
	4	6	398109.4	3195.875	-1222.85	1	3421.838	-20.93855	-4.786029E-006	0.0149838	8
	5	8	316265.6	3377.068	-1084.967	1	3547.075	-17.81091	9.830795E-007	0.0149827	8
	6	9	251203.1	3504.115	-981.424	1	3638.958	-15.64637	-3.713058E-006	0.0151219	8
	7	10	199546.9	3608.089	-893.6682	1	3717.116	-13.91132	6.077014E-006	0.0138449	8
	8	12	158578.1	3711.469	-792.5872	1	3795.154	-12.05449	-9.495355E-007	0.0149888	8
	9	13	125953.1	3809.522	-687.6973	1	3871.096	-10.23287	-1.757733E-006	0.014183	7
	10	15	100078.1	3867.848	-645.7364	1	3921.381	-9.478104	-1.240878E-006	0.0156265	7
	11	16	79453.13	3929.79	-632.1887	1	3980.315	-9.138922	7.983174E-007	0.0127108	7
	12	17	63140.62	3985.292	-627.6179	1	4034.409	-8.94964	-9.187979E-007	0.0162409	7
	13	19	50203.12	4052.406	-640.3497	1	4102.687	-8.979469	1.033421E-006	0.013803	7
	14	20	39890.62	4111.577	-660.6483	1	4164.315	-9.128263	-3.00759E-007	0.015908	7
	15	21	31640.63	4179.699	-696.3718	1	4237.313	-9.459058	-1.066813E-006	0.0150478	7
	16	23	25171.88	4252.058	-746.3754	1	4317.067	-9.95586	-2.999229E-007	0.0159011	7
	17	24	20015.62	4333.157	-810.4543	1	4408.297	-10.59394	6.222606E-007	0.0147256	7
	18	25	15890.62	4415.67	-886.1436	1	4503.708	-11.34748	-1.123285E-006	0.0161673	7
	19	27	12609.37	4511.796	-980.675	1	4617.145	-12.26295	-2.99787E-007	0.0159027	7
	20	28	10078.13	4615.789	-1084.776	1	4741.544	-13.22532	1.005882E-006	0.012788	7
	21	30	8015.625	4735.009	-1221.671	1	4890.07	-14.46727	-1.243592E-006	0.0156117	7
	22	31	6328.125	4872.918	-1379.168	1	5064.33	-15.80295	7.087449E-008	0.0154946	7
	23	32	5015.625	5028.648	-1562.461	1	5265.794	-17.26064	1.036076E-006	0.0137918	7
	24	34	3984.375	5193.306	-1759.004	1	5483.112	-18.71155	-1.121782E-006	0.0161664	7
	25	35	3170.956	5382.301	-1999.208	1	5741.602	-20.37707	6.597381E-008	0.0154976	7
	26	36	2527.573	5587.972	-2257.68	1	6026.819	-21.99994	-1.256399E-006	0.015999	7
	27	38	1976.103	5835.149	-2587.479	1	6383.104	-23.91393	-1.256075E-006	0.0159986	7
	28	39	1577.524	6090.067	-2940.542	1	6762.817	-25.77321	5.024458E-007	0.012805	7
	29	41	1265.625	6322.551	-3347.999	1	7154.281	-27.90269	6.265801E-007	0.014723	7
	30	42	998.264	6624.179	-3862.37	1	7667.962	-30.24525	7.982354E-007	0.0126961	7
	31	43	796.875	6910.466	-4439.077	1	8213.4	-32.71548	-1.068564E-006	0.0150293	7
	32	45	627.7902	7222.997	-5202.219	1	8901.391	-35.76257	4.972848E-007	0.0128028	7
	33	46	505.5147	7521.15	-6046.489	1	9650.27	-38.79689	4.976378E-007	0.0128033	7
	34	48	397.9953	7874.095	-7185.169	1	10659.64	-42.38068	5.512723E-009	0.014531	7
	35	49	315.5048	8246.65	-8577.468	1	11898.75	-46.12648	-8.460835E-011	0.0144784	6
	36	50	252.4038	8639.656	-10244.18	1	13401	-49.85666	4.66781E-010	0.0144777	6
	37	52	198.6229	9125.748	-12476.88	1	15458.06	-53.81778	4.847588E-010	0.014476	6
	38	53	158.3615	9675.52	-15111.01	1	17943.2	-57.36872	1.243355E-009	0.0144671	6
	39	54	125.558	10378.08	-18445.48	1	21164.6	-60.63636	5.078198E-010	0.014471	6
	40	56	100.4464	11210.16	-22421.73	1	25067.95	-63.43639	7.05095E-010	0.0144738	6
	41	57	79.00281	12476.81	-27600.36	1	30289.44	-65.67454	4.373721E-010	0.0144667	6
	42	59	63.3446	14004.81	-33222.76	1	36053.94	-67.1425	-7.750189E-010	0.0144739	6
	43	60	49.86702	15978.2	-41524.32	1	44492.38	-68.9537	-8.391626E-011	0.0144731	6
	44	61	39.72458	18460.17	-50277.2	1	53559.07	-69.83839	4.935004E-010	0.0144787	6
	45	63	31.6723	21679.17	-60827.02	1	64574.86	-70.38358	-3.258538E-010	0.0144748	6
	46	64	24.93351	26168.16	-74430.25	1	78896.35	-70.62936	-3.410797E-010	0.0144784	6
	47	66	19.86229	31635	-89786.02	1	95196.1	-70.59071	-7.249956E-010	0.0144725	6
	48	67	15.83615	38284.42	-107562	1	114172.2	-70.40789	7.420427E-011	0.0144753	5
	49	68	12.40079	48687.23	-130038.1	1	138853.7	-69.47372	-1.090388E-009	0.0144812	5
	50	70	9.93114	58831.08	-155606.6	1	166356.6	-69.28961	-3.076767E-010	0.0144826	5
	51	71	7.944915	72056.93	-183962.6	1	197571.3	-68.61005	2.240551E-010	0.0144839	5
	52	73	6.317385	87421.41	-218601.5	1	235433.9	-68.20293	-2.477104E-010	0.01447	5
	53	75	5.008013	107340.9	-259583.4	1	280901.4	-67.5343	-1.034798E-010	0.0144685	5
	54	78	3.945707	131293.9	-308952.3	1	335692.7	-66.9762	-2.097535E-011	0.0144734	5
	55	80	3.158693	158152.9	-362493.9	1	395492.3	-66.42878	-4.503814E-011	0.0144702	5
	56	84	2.504006	191207.5	-427955.4	1	468728.2	-65.92524	-5.622262E-011	0.0144833	5
	57	86	1.998082	229030.8	-501211.1	1	551060.5	-65.44174	8.825742E-011	0.0144395	5
	58	89	1.584686	274751.6	-591844.9	1	652509.6	-65.0979	-5.583932E-011	0.0144408	5
	59	93	1.266892	328078.2	-691089.3	1	765009.6	-64.60508	5.061032E-011	0.0144352	5
	60	97	0.999041	391443	-818493.8	1	907281.5	-64.44064	-2.346336E-010	0.0144996	5
