EXPLAIN
TAG	EISPOT
TITLE	LABEL	Potentiostatic EIS	Test &Identifier
DATE	LABEL	9/24/2019	Date
TIME	LABEL	9:35:11	Time
NOTES	NOTES	1	&Notes...
	
PSTAT	PSTAT	REF600-11020	Potentiostat
VDC	POTEN	0.00000E+000	T	DC &Voltage (V)
FREQINIT	QUANT	1.00000E+006	Initial Fre&q. (Hz)
FREQFINAL	QUANT	1.00000E+000	Final Fre&q. (Hz)
PTSPERDEC	QUANT	1.00000E+001	Points/&decade
VAC	QUANT	2.50000E+001	AC &Voltage (mV rms)
AREA	QUANT	1.00000E-002	&Area (cm^2)
CONDIT	TWOPARAM	T	5.00000E+000	0.00000E+000	Conditionin&g	Time(s)	E(V)
DELAY	TWOPARAM	T	5.00000E+000	0.00000E+000	Init. De&lay	Time(s)	Stab.(mV/s)
SPEED	SELECTOR	1	&Optimize for:
ZGUESS	QUANT	1.00000E+004	E&stimated Z (ohms)
OCVCURVE	TABLE	19
	Pt	T	Vf	Vm	Ach	Over
	#	s	V vs. Ref.	V	V	bits
	0	0.258333	-8.59027E-003	-8.59027E-003	5.74066E-004	...........
	1	0.516667	-8.61309E-003	-9.78480E-003	5.70666E-004	...........
	2	0.775	-8.75302E-003	-1.09070E-002	5.71632E-004	...........
	3	1.03333	-9.14791E-003	-1.19664E-002	5.70599E-004	...........
	4	1.29167	-9.85144E-003	-1.29679E-002	5.72399E-004	...........
	5	1.55	-1.07814E-002	-1.39195E-002	5.76199E-004	...........
	6	1.80833	-1.18048E-002	-1.48296E-002	5.76766E-004	...........
	7	2.06667	-1.28256E-002	-1.56961E-002	5.74532E-004	...........
	8	2.325	-1.38018E-002	-1.65297E-002	5.76899E-004	...........
	9	2.58333	-1.47259E-002	-1.73284E-002	5.71899E-004	...........
	10	2.84167	-1.56033E-002	-1.80953E-002	5.72332E-004	...........
	11	3.1	-1.64410E-002	-1.88384E-002	5.73199E-004	...........
	12	3.35833	-1.72441E-002	-1.95505E-002	5.71966E-004	...........
	13	3.61667	-1.80163E-002	-2.02375E-002	5.77566E-004	...........
	14	3.875	-1.87598E-002	-2.09028E-002	5.73699E-004	...........
	15	4.13333	-1.94762E-002	-2.15399E-002	5.67399E-004	...........
	16	4.39167	-2.01668E-002	-2.21673E-002	5.70832E-004	...........
	17	4.65	-2.08336E-002	-2.27686E-002	5.70566E-004	...........
	18	4.90833	-2.14785E-002	-2.33558E-002	5.69466E-004	...........
EOC	QUANT	-0.0214785	Open Circuit (V)
PSTATMODEL	IQUANT	4	Pstat Model
PSTATSECTION	LABEL	REF600-11020	Pstat Section
PSTATSERIALNO	LABEL	11020	Pstat Serial Number
CTRLMODE	IQUANT	1	Control Mode
IESTAB	IQUANT	0	I/E Stability
CASPEED	IQUANT	1	Control Amp Speed
CONVENTION	IQUANT	1	Current Convention
ICHRANGE	IQUANT	2	Ich Range
ICHRANGEMODE	TOGGLE	F	Ich Auto Range
ICHOFFSETENABLE	TOGGLE	T	Ich Offset Enable
ICHOFFSET	QUANT	0	Ich Offset (V)
ICHFILTER	IQUANT	3	Ich Filter
VCHRANGE	IQUANT	2	Vch Range
VCHRANGEMODE	TOGGLE	F	Vch Auto Range
VCHOFFSETENABLE	TOGGLE	T	Vch Offset Enable
VCHOFFSET	QUANT	0	Vch Offset (V)
VCHFILTER	IQUANT	3	Vch Filter
ACHRANGE	IQUANT	2	Ach Range
ACHOFFSETENABLE	TOGGLE	F	Ach Offset Enable
ACHOFFSET	QUANT	0	Ach Offset (V)
ACHFILTER	IQUANT	3	Ach Filter
IERANGELOWERLIMIT	IQUANT	1	I/E Range Lower Limit
IERANGEMODE	TOGGLE	F	I/E AutoRange
IERANGE	IQUANT	6	I/E Range
POSFEEDENABLE	TOGGLE	F	Positive Feedback IR Comp
POSFEEDRESISTANCE	QUANT	0	Positive Feedback Resistance (ohm)
ACHSELECT	IQUANT	0	Ach Select
CABLEID	IQUANT	14	Cable ID
DCCALDATE	LABEL	8/19/2019	DC Calibration Date
ACCALDATE	LABEL	8/19/2019	AC Calibration Date
THERMOSELECT	IQUANT	1	Thermo Select
FRAMEWORKVERSION	QUANT	6.33	Framework Version
INSTRUMENTVERSION	LABEL	3.50	Instrument Version
ZCURVE	TABLE
	Pt	Time	Freq	Zreal	Zimag	Zsig	Zmod	Zphz	Idc	Vdc	IERange
	#	s	Hz	ohm	ohm	V	ohm	°	A	V	#
	0	2	1000078	2117.776	-2085.996	1	2972.601	-44.56686	4.783722E-007	-0.0193146	8
	1	3	794390.6	2524.045	-2154.775	1	3318.713	-40.48736	-4.32503E-006	-0.0186775	8
	2	5	630984.4	2950.021	-2199.913	1	3679.978	-36.71292	2.627321E-006	-0.0201716	8
	3	6	501234.4	3382.852	-2158.875	1	4013.032	-32.54529	1.430236E-006	-0.0202037	8
	4	8	398109.4	3786.577	-2058.125	1	4309.761	-28.52548	2.791312E-006	-0.0204643	8
	5	9	316265.6	4175.702	-1949.493	1	4608.363	-25.02627	4.888031E-006	-0.020883	8
	6	11	251203.1	4461.352	-1755.942	1	4794.475	-21.48408	-1.202457E-006	-0.0197162	8
	7	12	199546.9	4736.165	-1573.737	1	4990.782	-18.38066	-4.323802E-006	-0.0189254	8
	8	14	158578.1	4953.135	-1405.489	1	5148.684	-15.84168	-1.943824E-006	-0.0195549	8
	9	15	125953.1	5156.697	-1179.451	1	5289.861	-12.88321	-9.246694E-007	-0.01774	7
	10	17	100078.1	5266.797	-1044.283	1	5369.327	-11.21496	8.365903E-008	-0.0201418	7
	11	18	79453.13	5371.059	-927.882	1	5450.618	-9.80144	-1.192585E-008	-0.0198394	7
	12	19	63140.62	5454.665	-836.8636	1	5518.488	-8.7224	-4.917156E-008	-0.0198732	7
	13	21	50203.12	5526.653	-763.68	1	5579.167	-7.867383	-6.884545E-009	-0.0200357	7
	14	22	39890.62	5586.346	-716.9487	1	5632.164	-7.313333	-1.8794E-008	-0.0200045	7
	15	23	31640.63	5642.979	-687.6122	1	5684.718	-6.947395	-1.196335E-008	-0.0199388	7
	16	25	25171.88	5693.453	-678.5577	1	5733.746	-6.796573	-6.456364E-009	-0.0200357	7
	17	26	20015.62	5744.498	-689.5035	1	5785.73	-6.844384	1.379758E-007	-0.0201837	7
	18	28	15890.62	5796.729	-718.9888	1	5841.148	-7.070488	-5.673463E-009	-0.0199614	7
	19	29	12609.37	5846.696	-772.5366	1	5897.514	-7.527013	1.726407E-008	-0.0200715	7
	20	30	10078.13	5900.396	-845.2333	1	5960.628	-8.152175	-6.312583E-009	-0.0199723	7
	21	32	8015.625	5955.968	-945.6932	1	6030.58	-9.02215	-3.915694E-008	-0.0199785	7
	22	33	6328.125	6019.366	-1079.6	1	6115.415	-10.16814	-8.309291E-009	-0.0200484	7
	23	35	5015.625	6088.835	-1248.151	1	6215.448	-11.58458	-4.075996E-008	-0.0199833	7
	24	36	3984.375	6165.218	-1460.644	1	6335.881	-13.32858	-7.435105E-009	-0.0200539	7
	25	37	3170.956	6250.688	-1718.709	1	6482.674	-15.37429	-3.4701E-008	-0.0199661	7
	26	39	2527.573	6346.343	-2035.842	1	6664.887	-17.78571	-4.013488E-008	-0.0199809	7
	27	40	1976.103	6471.692	-2464.958	1	6925.23	-20.85099	-4.082888E-008	-0.0199816	7
	28	41	1577.524	6608.135	-2945.305	1	7234.795	-24.02296	8.418549E-008	-0.0200432	7
	29	43	1265.625	6790.888	-3509.416	1	7644.093	-27.32916	-3.614918E-008	-0.0199781	7
	30	44	998.264	6961.285	-4259.7	1	8161.16	-31.463	-3.715117E-008	-0.0199772	7
	31	46	796.875	7194.281	-5133.106	1	8837.786	-35.50779	-7.345614E-008	-0.019883	7
	32	47	627.7902	7491.281	-6250.814	1	9756.64	-39.84202	-3.969509E-008	-0.0199805	7
	33	48	505.5147	7825.191	-7483.659	1	10827.69	-43.72197	1.733854E-008	-0.0202578	6
	34	50	397.9953	8268.246	-9134.514	1	12320.85	-47.84969	1.697705E-009	-0.0200413	6
	35	51	315.5048	8800.159	-11094.23	1	14160.68	-51.57786	9.571244E-010	-0.0200324	6
	36	52	252.4038	9429.384	-13374.13	1	16364.01	-54.81439	2.439503E-009	-0.0200393	6
	37	54	198.6229	10265.63	-16354.56	1	19309.45	-57.88382	1.822422E-009	-0.0200398	6
	38	55	158.3615	11264.16	-19774.58	1	22757.75	-60.33294	1.598524E-009	-0.0200441	6
	39	57	125.558	12559.01	-24035.96	1	27119.29	-62.41253	1.878793E-009	-0.0200426	6
	40	58	100.4464	14190.16	-28965.2	1	32254.36	-63.89959	2.620058E-009	-0.0200487	6
	41	59	79.00281	16334.28	-35497.49	1	39075.32	-65.29034	2.333188E-009	-0.0200467	6
	42	61	63.3446	18446.72	-42529.84	1	46358.05	-66.55189	1.166789E-009	-0.020047	6
	43	62	49.86702	23204.85	-51260.35	1	56268	-65.64439	7.314233E-010	-0.0200475	6
	44	64	39.72458	27708.89	-61726.29	1	67660.31	-65.82472	1.239884E-009	-0.0200469	6
	45	65	31.6723	34030.55	-73740.94	1	81214.55	-65.22725	1.055963E-009	-0.0200541	6
	46	66	24.93351	42329.68	-87889.84	1	97552.2	-64.28352	1.936804E-009	-0.020041	6
	47	68	19.86229	52527.98	-102934.6	1	115562.6	-62.96458	9.304851E-010	-0.020044	5
	48	69	15.83615	64143.5	-119139.5	1	135309.3	-61.70243	9.253656E-010	-0.020041	5
	49	71	12.40079	82877.49	-140540.2	1	163157.1	-59.47187	2.322108E-009	-0.0200425	5
	50	72	9.93114	99797.6	-158636	1	187416.5	-57.82609	6.976205E-010	-0.0200382	5
	51	74	7.944915	121138.1	-179248.9	1	216343.7	-55.94882	1.194092E-009	-0.020041	5
	52	75	6.317385	144188.2	-199355.7	1	246034.4	-54.12287	7.583091E-010	-0.0200308	5
	53	77	5.008013	170017.6	-222010.5	1	279633.1	-52.55479	9.82012E-010	-0.020048	5
	54	80	3.945707	198021.2	-247064.7	1	316628.1	-51.288	1.249802E-009	-0.0200416	5
	55	83	3.158693	225503.8	-273571.2	1	354532.3	-50.50135	6.570188E-010	-0.0200528	5
	56	86	2.504006	255320.2	-305453.5	1	398108.3	-50.10868	1.319421E-009	-0.0200513	5
	57	89	1.998082	284843.2	-341388.5	1	444614.1	-50.15951	9.078503E-010	-0.0200066	5
	58	92	1.584686	315945.1	-386149.7	1	498931.8	-50.7102	9.729137E-010	-0.020064	5
	59	95	1.266892	350250.9	-439745.7	1	562185	-51.4632	9.345903E-010	-0.0200149	5
	60	100	0.999041	390135.4	-507867.7	1	640418	-52.46914	6.451033E-010	-0.0200858	5
