EXPLAIN
TAG	EISPOT
TITLE	LABEL	Potentiostatic EIS	Test &Identifier
DATE	LABEL	11/20/2019	Date
TIME	LABEL	10:22:24	Time
NOTES	NOTES	4	&Notes...
	
	
	
	
PSTAT	PSTAT	REF600-11020	Potentiostat
VDC	POTEN	0.00000E+000	T	DC &Voltage (V)
FREQINIT	QUANT	1.00000E+006	Initial Fre&q. (Hz)
FREQFINAL	QUANT	1.00000E+000	Final Fre&q. (Hz)
PTSPERDEC	QUANT	1.00000E+001	Points/&decade
VAC	QUANT	2.50000E+001	AC &Voltage (mV rms)
AREA	QUANT	1.00000E-002	&Area (cm^2)
CONDIT	TWOPARAM	T	5.00000E+000	0.00000E+000	Conditionin&g	Time(s)	E(V)
DELAY	TWOPARAM	T	5.00000E+000	0.00000E+000	Init. De&lay	Time(s)	Stab.(mV/s)
SPEED	SELECTOR	0	&Optimize for:
ZGUESS	QUANT	1.00000E+005	E&stimated Z (ohms)
OCVCURVE	TABLE	19
	Pt	T	Vf	Vm	Ach	Over
	#	s	V vs. Ref.	V	V	bits
	0	0.258333	4.37559E-003	4.37559E-003	5.30900E-004	...........
	1	0.516667	4.37169E-003	4.17143E-003	5.34766E-004	...........
	2	0.775	4.34798E-003	3.99047E-003	5.31333E-004	...........
	3	1.03333	4.28186E-003	3.82468E-003	5.27133E-004	...........
	4	1.29167	4.16605E-003	3.68141E-003	5.22933E-004	...........
	5	1.55	4.01696E-003	3.55515E-003	5.24400E-004	...........
	6	1.80833	3.85918E-003	3.43679E-003	5.22800E-004	...........
	7	2.06667	3.70968E-003	3.32881E-003	5.28266E-004	...........
	8	2.325	3.57468E-003	3.23808E-003	5.27600E-004	...........
	9	2.58333	3.45396E-003	3.13525E-003	5.26333E-004	...........
	10	2.84167	3.34470E-003	3.04640E-003	5.29200E-004	...........
	11	3.1	3.24342E-003	2.95883E-003	5.32033E-004	...........
	12	3.35833	3.14779E-003	2.88886E-003	5.32500E-004	...........
	13	3.61667	3.05755E-003	2.80796E-003	5.30833E-004	...........
	14	3.875	2.97291E-003	2.73681E-003	5.34133E-004	...........
	15	4.13333	2.89306E-003	2.66119E-003	5.28733E-004	...........
	16	4.39167	2.81649E-003	2.59329E-003	5.35000E-004	...........
	17	4.65	2.74181E-003	2.50407E-003	5.30733E-004	...........
	18	4.90833	2.66714E-003	2.42042E-003	5.29766E-004	...........
EOC	QUANT	0.0026671	Open Circuit (V)
PSTATMODEL	IQUANT	4	Pstat Model
PSTATSECTION	LABEL	REF600-11020	Pstat Section
PSTATSERIALNO	LABEL	11020	Pstat Serial Number
CTRLMODE	IQUANT	1	Control Mode
IESTAB	IQUANT	0	I/E Stability
CASPEED	IQUANT	1	Control Amp Speed
CONVENTION	IQUANT	1	Current Convention
ICHRANGE	IQUANT	2	Ich Range
ICHRANGEMODE	TOGGLE	F	Ich Auto Range
ICHOFFSETENABLE	TOGGLE	T	Ich Offset Enable
ICHOFFSET	QUANT	0	Ich Offset (V)
ICHFILTER	IQUANT	3	Ich Filter
VCHRANGE	IQUANT	2	Vch Range
VCHRANGEMODE	TOGGLE	F	Vch Auto Range
VCHOFFSETENABLE	TOGGLE	T	Vch Offset Enable
VCHOFFSET	QUANT	0	Vch Offset (V)
VCHFILTER	IQUANT	3	Vch Filter
ACHRANGE	IQUANT	2	Ach Range
ACHOFFSETENABLE	TOGGLE	F	Ach Offset Enable
ACHOFFSET	QUANT	0	Ach Offset (V)
ACHFILTER	IQUANT	3	Ach Filter
IERANGELOWERLIMIT	IQUANT	1	I/E Range Lower Limit
IERANGEMODE	TOGGLE	F	I/E AutoRange
IERANGE	IQUANT	4	I/E Range
POSFEEDENABLE	TOGGLE	F	Positive Feedback IR Comp
POSFEEDRESISTANCE	QUANT	0	Positive Feedback Resistance (ohm)
ACHSELECT	IQUANT	0	Ach Select
CABLEID	IQUANT	14	Cable ID
DCCALDATE	LABEL	8/19/2019	DC Calibration Date
ACCALDATE	LABEL	8/19/2019	AC Calibration Date
THERMOSELECT	IQUANT	1	Thermo Select
FRAMEWORKVERSION	QUANT	6.33	Framework Version
INSTRUMENTVERSION	LABEL	3.50	Instrument Version
ZCURVE	TABLE
	Pt	Time	Freq	Zreal	Zimag	Zsig	Zmod	Zphz	Idc	Vdc	IERange
	#	s	Hz	ohm	ohm	V	ohm	°	A	V	#
	0	1	1000078	2352.601	-2031.553	1	3108.365	-40.81175	8.203519E-006	0.0048953	8
	1	1	794390.6	2785.772	-2021.446	1	3441.913	-35.96585	-3.248558E-006	0.0043365	8
	2	2	630984.4	3198.75	-1918.947	1	3730.196	-30.95977	-9.776627E-007	0.0042751	8
	3	2	501234.4	3561.297	-1768.607	1	3976.281	-26.40986	-2.049739E-006	0.0045811	8
	4	2	398109.4	3847.148	-1577.929	1	4158.174	-22.30126	-4.291399E-006	0.0047279	8
	5	3	316265.6	4070.297	-1399.763	1	4304.26	-18.97794	-1.027625E-006	0.0047105	8
	6	3	251203.1	4262.595	-1209.849	1	4430.965	-15.8455	-5.425453E-007	0.0040604	8
	7	3	199546.9	4384.692	-1041.85	1	4506.771	-13.36623	-7.532235E-007	0.0047196	8
	8	3	158578.1	4491.615	-917.5953	1	4584.385	-11.54612	5.428857E-006	0.0033132	8
	9	4	125953.1	4600.012	-729.1148	1	4657.437	-9.006616	-1.512738E-006	0.0080918	7
	10	4	100078.1	4651.857	-648.6791	1	4696.867	-7.93843	5.732445E-007	0.0045308	7
	11	4	79453.13	4705.405	-587.532	1	4741.943	-7.1173	1.057759E-006	0.0032217	7
	12	5	63140.62	4752.717	-541.2388	1	4783.436	-6.496847	1.056378E-006	0.0032198	7
	13	5	50203.12	4797.155	-507.8465	1	4823.961	-6.043058	4.835588E-007	0.0026749	7
	14	5	39890.62	4837.114	-486.252	1	4861.493	-5.740387	-1.178863E-006	0.0056736	7
	15	6	31640.63	4881.327	-482.3725	1	4905.103	-5.643644	1.048294E-006	0.0028974	7
	16	6	25171.88	4922.735	-486.0483	1	4946.672	-5.638846	1.057607E-006	0.0032186	7
	17	6	20015.62	4960.604	-499.7117	1	4985.71	-5.752346	-1.171096E-006	0.0053168	7
	18	7	15890.62	5007.957	-529.1499	1	5035.835	-6.031597	-8.739152E-007	0.0059027	7
	19	7	12609.37	5052.382	-571.6572	1	5084.619	-6.455339	5.308613E-008	0.0052289	7
	20	7	10078.13	5101.005	-624.3356	1	5139.07	-6.97799	1.049689E-006	0.0028927	7
	21	8	8015.625	5159.547	-702.1168	1	5207.101	-7.749271	9.535385E-007	0.0026656	7
	22	8	6328.125	5200.167	-782.7479	1	5258.749	-8.560102	-1.179505E-006	0.0056654	7
	23	8	5015.625	5255.889	-897.1478	1	5331.908	-9.68668	-2.833832E-007	0.0034523	7
	24	9	3984.375	5324.919	-1034.94	1	5424.562	-10.99876	4.832041E-007	0.0026668	7
	25	9	3170.956	5379.067	-1214.502	1	5514.47	-12.72308	9.73732E-007	0.0036173	7
	26	9	2527.573	5443.605	-1427.724	1	5627.72	-14.69626	-6.108169E-007	0.0058252	7
	27	10	1976.103	5526.588	-1716.23	1	5786.936	-17.25169	-6.112763E-007	0.0058281	7
	28	10	1577.524	5612.811	-2038.871	1	5971.653	-19.96371	-9.995777E-007	0.0047647	7
	29	10	1265.625	5718.748	-2447.448	1	6220.457	-23.16944	9.529415E-007	0.0026654	7
	30	11	998.264	5839.318	-2975.208	1	6553.587	-26.99943	9.737992E-007	0.0036179	7
	31	11	796.875	5982.504	-3584.326	1	6974.077	-30.92729	7.922696E-007	0.0040879	7
	32	12	627.7902	6155.267	-4377.732	1	7553.268	-35.4211	4.799893E-007	0.0026629	7
	33	12	505.5147	6343.559	-5265.37	1	8244.08	-39.69383	1.049041E-006	0.0028815	7
	34	12	397.9953	6595.46	-6450.634	1	9225.55	-44.36398	2.464416E-009	0.0043066	7
	35	12	315.5048	6891.711	-7879.334	1	10468.03	-48.82522	1.053802E-009	0.0042337	6
	36	13	252.4038	7231.294	-9565.86	1	11991.55	-52.9126	3.579445E-010	0.0042352	6
	37	13	198.6229	7681.643	-11794.62	1	14075.54	-56.92447	7.72492E-010	0.004233	6
	38	13	158.3615	8216.287	-14386.93	1	16567.77	-60.26957	1.367508E-010	0.004236	6
	39	14	125.558	8902.819	-17654.62	1	19772.35	-63.23923	8.811289E-010	0.0042315	6
	40	14	100.4464	9755.49	-21473.36	1	23585.48	-65.56739	1.154493E-009	0.0042367	6
	41	14	79.00281	10973.79	-26544.43	1	28723.35	-67.53921	9.040991E-010	0.0042394	6
	42	15	63.3446	12160.5	-32334.1	1	34545.21	-69.38928	1.207206E-010	0.0042336	6
	43	15	49.86702	14178.47	-39758.11	1	42210.62	-70.37283	-1.472077E-010	0.0042357	6
	44	16	39.72458	16901.77	-48350.59	1	51219.62	-70.73206	3.83918E-010	0.0042381	6
	45	16	31.6723	20239.1	-58566.45	1	61964.91	-70.93613	-2.983892E-011	0.0042389	6
	46	16	24.93351	24753.01	-71649.52	1	75804.78	-70.94132	5.563782E-010	0.0042247	6
	47	17	19.86229	30475.66	-86500.91	1	91712.45	-70.59182	-3.694438E-010	0.0042408	6
	48	17	15.83615	38648.25	-103035.9	1	110045.8	-69.43919	2.146118E-009	0.0042299	5
	49	17	12.40079	48550.3	-125032.9	1	134128.1	-68.77879	1.631328E-009	0.0042343	5
	50	17	9.93114	59724.9	-148346.3	1	159917.8	-68.07006	-2.55345E-010	0.0042428	5
	51	18	7.944915	73960.8	-174502.5	1	189529.2	-67.03093	-1.36364E-010	0.0042407	5
	52	19	6.317385	91878.29	-205229.3	1	224857.1	-65.88261	-8.389339E-011	0.0042459	5
	53	19	5.008013	113905.6	-240556.3	1	266161.3	-64.66203	-9.195306E-011	0.0042335	5
	54	20	3.945707	140844.9	-282438.3	1	315608.4	-63.49572	4.293154E-010	0.0042309	5
	55	22	3.158693	169962.5	-325469.7	1	367175.4	-62.42612	1.192405E-010	0.0042547	5
	56	23	2.504006	205437.3	-377657.9	1	429918.5	-61.45481	-3.421666E-011	0.0042357	5
	57	25	1.998082	244729.7	-433526.6	1	497833.3	-60.55488	2.176797E-010	0.0042634	5
	58	26	1.584686	291067.9	-501392.1	1	579753.9	-59.864	2.329868E-010	0.0042826	5
	59	28	1.266892	341007.5	-574977.1	1	668494.4	-59.32867	1.819011E-010	0.00425	5
	60	31	0.999041	402618.6	-663996.4	1	776526.3	-58.7692	1.412383E-010	0.0042217	5
