EXPLAIN
TAG	EISPOT
TITLE	LABEL	Potentiostatic EIS	Test &Identifier
DATE	LABEL	9/24/2019	Date
TIME	LABEL	9:48:55	Time
NOTES	NOTES	1	&Notes...
	
PSTAT	PSTAT	REF600-11020	Potentiostat
VDC	POTEN	0.00000E+000	T	DC &Voltage (V)
FREQINIT	QUANT	1.00000E+006	Initial Fre&q. (Hz)
FREQFINAL	QUANT	1.00000E+000	Final Fre&q. (Hz)
PTSPERDEC	QUANT	1.00000E+001	Points/&decade
VAC	QUANT	2.50000E+001	AC &Voltage (mV rms)
AREA	QUANT	1.00000E-002	&Area (cm^2)
CONDIT	TWOPARAM	T	5.00000E+000	0.00000E+000	Conditionin&g	Time(s)	E(V)
DELAY	TWOPARAM	T	5.00000E+000	0.00000E+000	Init. De&lay	Time(s)	Stab.(mV/s)
SPEED	SELECTOR	1	&Optimize for:
ZGUESS	QUANT	1.00000E+004	E&stimated Z (ohms)
OCVCURVE	TABLE	19
	Pt	T	Vf	Vm	Ach	Over
	#	s	V vs. Ref.	V	V	bits
	0	0.258333	-6.83215E-003	-6.83215E-003	5.64199E-004	...........
	1	0.516667	-6.85150E-003	-7.84494E-003	5.68632E-004	...........
	2	0.775	-6.97000E-003	-8.78886E-003	5.64132E-004	...........
	3	1.03333	-7.30392E-003	-9.68004E-003	5.66499E-004	...........
	4	1.29167	-7.89789E-003	-1.05213E-002	5.64732E-004	...........
	5	1.55	-8.68175E-003	-1.13200E-002	5.68466E-004	...........
	6	1.80833	-9.54307E-003	-1.20806E-002	5.66332E-004	...........
	7	2.06667	-1.04008E-002	-1.28049E-002	5.65332E-004	...........
	8	2.325	-1.12195E-002	-1.34972E-002	5.71366E-004	...........
	9	2.58333	-1.19928E-002	-1.41573E-002	5.75365E-004	...........
	10	2.84167	-1.27249E-002	-1.47953E-002	5.70032E-004	...........
	11	3.1	-1.34218E-002	-1.54073E-002	5.71532E-004	...........
	12	3.35833	-1.40883E-002	-1.59949E-002	5.69499E-004	...........
	13	3.61667	-1.47277E-002	-1.65636E-002	5.67366E-004	...........
	14	3.875	-1.53425E-002	-1.71117E-002	5.72499E-004	...........
	15	4.13333	-1.59343E-002	-1.76414E-002	5.68832E-004	...........
	16	4.39167	-1.65047E-002	-1.81503E-002	5.66132E-004	...........
	17	4.65	-1.70551E-002	-1.86496E-002	5.69366E-004	...........
	18	4.90833	-1.75862E-002	-1.91064E-002	5.72666E-004	...........
EOC	QUANT	-0.0175862	Open Circuit (V)
PSTATMODEL	IQUANT	4	Pstat Model
PSTATSECTION	LABEL	REF600-11020	Pstat Section
PSTATSERIALNO	LABEL	11020	Pstat Serial Number
CTRLMODE	IQUANT	1	Control Mode
IESTAB	IQUANT	0	I/E Stability
CASPEED	IQUANT	1	Control Amp Speed
CONVENTION	IQUANT	1	Current Convention
ICHRANGE	IQUANT	2	Ich Range
ICHRANGEMODE	TOGGLE	F	Ich Auto Range
ICHOFFSETENABLE	TOGGLE	T	Ich Offset Enable
ICHOFFSET	QUANT	0	Ich Offset (V)
ICHFILTER	IQUANT	3	Ich Filter
VCHRANGE	IQUANT	2	Vch Range
VCHRANGEMODE	TOGGLE	F	Vch Auto Range
VCHOFFSETENABLE	TOGGLE	T	Vch Offset Enable
VCHOFFSET	QUANT	0	Vch Offset (V)
VCHFILTER	IQUANT	3	Vch Filter
ACHRANGE	IQUANT	2	Ach Range
ACHOFFSETENABLE	TOGGLE	F	Ach Offset Enable
ACHOFFSET	QUANT	0	Ach Offset (V)
ACHFILTER	IQUANT	3	Ach Filter
IERANGELOWERLIMIT	IQUANT	1	I/E Range Lower Limit
IERANGEMODE	TOGGLE	F	I/E AutoRange
IERANGE	IQUANT	6	I/E Range
POSFEEDENABLE	TOGGLE	F	Positive Feedback IR Comp
POSFEEDRESISTANCE	QUANT	0	Positive Feedback Resistance (ohm)
ACHSELECT	IQUANT	0	Ach Select
CABLEID	IQUANT	14	Cable ID
DCCALDATE	LABEL	8/19/2019	DC Calibration Date
ACCALDATE	LABEL	8/19/2019	AC Calibration Date
THERMOSELECT	IQUANT	1	Thermo Select
FRAMEWORKVERSION	QUANT	6.33	Framework Version
INSTRUMENTVERSION	LABEL	3.50	Instrument Version
ZCURVE	TABLE
	Pt	Time	Freq	Zreal	Zimag	Zsig	Zmod	Zphz	Idc	Vdc	IERange
	#	s	Hz	ohm	ohm	V	ohm	°	A	V	#
	0	1	1000078	2321.173	-2236.761	1	3223.499	-43.93902	3.119143E-006	-0.0159296	8
	1	3	794390.6	2770.501	-2294.349	1	3597.181	-39.62935	-8.323158E-007	-0.0155309	8
	2	4	630984.4	3245.565	-2268.536	1	3959.792	-34.9522	7.942583E-007	-0.0157533	8
	3	5	501234.4	3668.486	-2154.748	1	4254.495	-30.42857	1.697778E-006	-0.0161991	8
	4	7	398109.4	4070.941	-1996.83	1	4534.302	-26.12833	1.581064E-006	-0.0162484	8
	5	8	316265.6	4396.67	-1813.541	1	4756.011	-22.4152	1.915363E-006	-0.0164037	8
	6	9	251203.1	4671.44	-1601.966	1	4938.487	-18.92826	-8.443654E-007	-0.0159836	8
	7	11	199546.9	4860.697	-1413.16	1	5061.956	-16.21083	-1.105923E-006	-0.0156614	8
	8	12	158578.1	5037.51	-1243.177	1	5188.642	-13.86269	-7.068198E-007	-0.0160038	8
	9	14	125953.1	5194.425	-1035.357	1	5296.604	-11.27251	1.859159E-007	-0.016163	7
	10	15	100078.1	5276.886	-926.9072	1	5357.675	-9.96261	-1.831111E-008	-0.0159384	7
	11	16	79453.13	5359.975	-840.5771	1	5425.486	-8.912806	-5.180161E-008	-0.0159099	7
	12	18	63140.62	5430.544	-776.8693	1	5485.831	-8.14124	6.321876E-008	-0.0160872	7
	13	19	50203.12	5500.043	-735.0542	1	5548.944	-7.612198	1.786103E-008	-0.0160791	7
	14	20	39890.62	5559.126	-717.2318	1	5605.203	-7.351622	-5.150469E-008	-0.0159267	7
	15	22	31640.63	5618.794	-703.5234	1	5662.667	-7.136805	5.164062E-008	-0.0160579	7
	16	23	25171.88	5676.967	-717.5176	1	5722.131	-7.203476	-2.940479E-008	-0.0159977	7
	17	24	20015.62	5738.731	-746.2379	1	5787.046	-7.408904	-4.362238E-008	-0.0159748	7
	18	26	15890.62	5801.681	-794.7186	1	5855.859	-7.799875	-1.766101E-008	-0.0159516	7
	19	27	12609.37	5870.945	-862.2473	1	5933.925	-8.355121	-4.364268E-008	-0.0159736	7
	20	28	10078.13	5940.049	-948.0958	1	6015.236	-9.068531	-7.008629E-008	-0.0158988	7
	21	30	8015.625	6015.953	-1059.79	1	6108.587	-9.9909	6.345943E-008	-0.0160945	7
	22	31	6328.125	6097.532	-1204.534	1	6215.368	-11.17459	-1.6068E-008	-0.0160324	7
	23	33	5015.625	6186.943	-1384.307	1	6339.918	-12.61201	-3.226879E-008	-0.0159934	7
	24	34	3984.375	6279.582	-1603.361	1	6481.043	-14.32327	4.239652E-008	-0.0161281	7
	25	35	3170.956	6387.528	-1875.889	1	6657.287	-16.36646	1.201753E-007	-0.0161586	7
	26	37	2527.573	6499.749	-2205.367	1	6863.7	-18.74209	6.195654E-008	-0.0160975	7
	27	38	1976.103	6643.517	-2643.64	1	7150.185	-21.69899	-1.405692E-009	-0.0159507	7
	28	39	1577.524	6790.307	-3138.729	1	7480.634	-24.80811	1.201152E-007	-0.0161698	7
	29	41	1265.625	6949.595	-3739.526	1	7891.826	-28.28437	-5.63957E-008	-0.0158959	7
	30	42	998.264	7170.513	-4508.725	1	8470.233	-32.16115	5.739915E-009	-0.0160314	7
	31	44	796.875	7404.353	-5413.507	1	9172.268	-36.17147	5.164341E-008	-0.0160618	7
	32	45	627.7902	7708.94	-6585.505	1	10138.87	-40.50622	-9.094662E-009	-0.0159531	6
	33	46	505.5147	8023.715	-7884.321	1	11249.11	-44.49796	1.56455E-008	-0.0163335	6
	34	48	397.9953	8448.522	-9637.54	1	12816.38	-48.76133	2.29137E-009	-0.0160344	6
	35	49	315.5048	8950.452	-11730.38	1	14755.08	-52.65584	1.106986E-009	-0.0160365	6
	36	50	252.4038	9540.6	-14177.91	1	17089.07	-56.06258	6.93175E-010	-0.016039	6
	37	52	198.6229	10323.74	-17404.41	1	20235.94	-59.32494	1.325285E-009	-0.0160376	6
	38	53	158.3615	11257.36	-21145.49	1	23955.37	-61.97021	8.234191E-010	-0.0160367	6
	39	54	125.558	12469.85	-25809.41	1	28663.97	-64.21243	1.452172E-009	-0.0160414	6
	40	56	100.4464	13933.84	-31236.13	1	34203.04	-65.95927	1.595371E-009	-0.0160407	6
	41	57	79.00281	16228.46	-38396.91	1	41685.56	-67.08864	1.833644E-009	-0.0160397	6
	42	59	63.3446	19105.56	-45812.2	1	49636.48	-67.36187	1.505582E-009	-0.0160443	6
	43	60	49.86702	22500.04	-57298.92	1	61558.25	-68.56115	1.906181E-009	-0.0160484	6
	44	61	39.72458	27076.41	-68624.59	1	73773.08	-68.46786	1.956576E-009	-0.0160435	6
	45	63	31.6723	32980.06	-82471.79	1	88821.63	-68.20377	1.80186E-009	-0.0160432	6
	46	64	24.93351	41843.88	-99445.1	1	107889.9	-67.17992	1.242756E-009	-0.0160453	5
	47	66	19.86229	52552.57	-117872	1	129056.5	-65.97057	1.884154E-009	-0.0160383	5
	48	67	15.83615	67599.52	-137667.1	1	153368.6	-63.8473	2.26221E-009	-0.0160388	5
	49	69	12.40079	83435.35	-165418.7	1	185269.6	-63.23413	6.857966E-010	-0.0160439	5
	50	70	9.93114	106169.3	-188791.7	1	216597	-60.64825	1.382945E-009	-0.0160407	5
	51	72	7.944915	131648.9	-215805.7	1	252791.5	-58.61537	8.875393E-010	-0.0160434	5
	52	73	6.317385	161683.3	-241748.1	1	290832.7	-56.22504	1.359822E-009	-0.0160492	5
	53	75	5.008013	196316.5	-270101.4	1	333908.6	-53.98941	9.455327E-010	-0.0160264	5
	54	78	3.945707	235143.1	-299425.6	1	380720.3	-51.85696	5.6667E-010	-0.0160428	5
	55	81	3.158693	273663.5	-328606.4	1	427637.5	-50.21246	1.078017E-009	-0.0160221	5
	56	84	2.504006	315569.3	-361262.4	1	479681.7	-48.8622	3.068261E-010	-0.0160356	5
	57	87	1.998082	356964.7	-394543.5	1	532060.5	-47.86266	7.166413E-010	-0.0160822	5
	58	90	1.584686	399034.7	-435214.6	1	590457.9	-47.48326	6.280829E-010	-0.0160086	5
	59	94	1.266892	441722.6	-482400.6	1	654086.5	-47.52042	6.146661E-010	-0.0160663	5
	60	98	0.999041	490003.9	-543853.4	1	732038.6	-47.98161	8.803128E-010	-0.0159954	5
