EXPLAIN
TAG	EISPOT
TITLE	LABEL	Potentiostatic EIS	Test &Identifier
DATE	LABEL	11/27/2019	Date
TIME	LABEL	12:42:22	Time
NOTES	NOTES	3	&Notes...
	
	
	
PSTAT	PSTAT	REF600-11020	Potentiostat
VDC	POTEN	0.00000E+000	T	DC &Voltage (V)
FREQINIT	QUANT	1.00000E+006	Initial Fre&q. (Hz)
FREQFINAL	QUANT	1.00000E+000	Final Fre&q. (Hz)
PTSPERDEC	QUANT	1.00000E+001	Points/&decade
VAC	QUANT	2.50000E+001	AC &Voltage (mV rms)
AREA	QUANT	1.00000E-002	&Area (cm^2)
CONDIT	TWOPARAM	T	5.00000E+000	0.00000E+000	Conditionin&g	Time(s)	E(V)
DELAY	TWOPARAM	T	5.00000E+000	0.00000E+000	Init. De&lay	Time(s)	Stab.(mV/s)
SPEED	SELECTOR	0	&Optimize for:
ZGUESS	QUANT	1.00000E+005	E&stimated Z (ohms)
OCVCURVE	TABLE	19
	Pt	T	Vf	Vm	Ach	Over
	#	s	V vs. Ref.	V	V	bits
	0	0.258333	5.73660E-003	5.73660E-003	5.83965E-004	...........
	1	0.516667	5.73501E-003	5.65358E-003	5.80599E-004	...........
	2	0.775	5.72632E-003	5.62987E-003	5.75632E-004	...........
	3	1.03333	5.70698E-003	5.69838E-003	5.72499E-004	...........
	4	1.29167	5.68381E-003	5.61065E-003	5.80832E-004	...........
	5	1.55	5.66460E-003	5.58631E-003	5.83032E-004	...........
	6	1.80833	5.64679E-003	5.60387E-003	5.71732E-004	...........
	7	2.06667	5.62801E-003	5.62610E-003	5.73732E-004	...........
	8	2.325	5.61461E-003	5.63031E-003	5.72499E-004	...........
	9	2.58333	5.61195E-003	5.63257E-003	5.79999E-004	...........
	10	2.84167	5.61780E-003	5.65869E-003	5.74466E-004	...........
	11	3.1	5.62741E-003	5.65161E-003	5.82999E-004	...........
	12	3.35833	5.63785E-003	5.66611E-003	5.84899E-004	...........
	13	3.61667	5.64763E-003	5.67527E-003	5.78999E-004	...........
	14	3.875	5.65681E-003	5.69835E-003	5.75332E-004	...........
	15	4.13333	5.66677E-003	5.69734E-003	5.84632E-004	...........
	16	4.39167	5.67825E-003	5.72600E-003	5.82999E-004	...........
	17	4.65	5.69090E-003	5.72863E-003	5.72332E-004	...........
	18	4.90833	5.70439E-003	5.75404E-003	5.81065E-004	...........
EOC	QUANT	0.0057044	Open Circuit (V)
PSTATMODEL	IQUANT	4	Pstat Model
PSTATSECTION	LABEL	REF600-11020	Pstat Section
PSTATSERIALNO	LABEL	11020	Pstat Serial Number
CTRLMODE	IQUANT	1	Control Mode
IESTAB	IQUANT	0	I/E Stability
CASPEED	IQUANT	1	Control Amp Speed
CONVENTION	IQUANT	1	Current Convention
ICHRANGE	IQUANT	2	Ich Range
ICHRANGEMODE	TOGGLE	F	Ich Auto Range
ICHOFFSETENABLE	TOGGLE	T	Ich Offset Enable
ICHOFFSET	QUANT	0	Ich Offset (V)
ICHFILTER	IQUANT	3	Ich Filter
VCHRANGE	IQUANT	2	Vch Range
VCHRANGEMODE	TOGGLE	F	Vch Auto Range
VCHOFFSETENABLE	TOGGLE	T	Vch Offset Enable
VCHOFFSET	QUANT	0	Vch Offset (V)
VCHFILTER	IQUANT	3	Vch Filter
ACHRANGE	IQUANT	2	Ach Range
ACHOFFSETENABLE	TOGGLE	F	Ach Offset Enable
ACHOFFSET	QUANT	0	Ach Offset (V)
ACHFILTER	IQUANT	3	Ach Filter
IERANGELOWERLIMIT	IQUANT	1	I/E Range Lower Limit
IERANGEMODE	TOGGLE	F	I/E AutoRange
IERANGE	IQUANT	5	I/E Range
POSFEEDENABLE	TOGGLE	F	Positive Feedback IR Comp
POSFEEDRESISTANCE	QUANT	0	Positive Feedback Resistance (ohm)
ACHSELECT	IQUANT	0	Ach Select
CABLEID	IQUANT	14	Cable ID
DCCALDATE	LABEL	8/19/2019	DC Calibration Date
ACCALDATE	LABEL	8/19/2019	AC Calibration Date
THERMOSELECT	IQUANT	1	Thermo Select
FRAMEWORKVERSION	QUANT	6.33	Framework Version
INSTRUMENTVERSION	LABEL	3.50	Instrument Version
ZCURVE	TABLE
	Pt	Time	Freq	Zreal	Zimag	Zsig	Zmod	Zphz	Idc	Vdc	IERange
	#	s	Hz	ohm	ohm	V	ohm	°	A	V	#
	0	1	1000078	1910.839	-1555.085	1	2463.655	-39.13951	-3.88041E-006	0.0088416	8
	1	1	794390.6	2185.721	-1604.317	1	2711.311	-36.27863	3.805047E-007	0.0082425	8
	2	2	630984.4	2444.408	-1644.663	1	2946.192	-33.93371	7.416885E-006	0.0066996	8
	3	2	501234.4	2715.326	-1675.445	1	3190.629	-31.67594	-1.422612E-006	0.0079049	8
	4	2	398109.4	2988.801	-1698.747	1	3437.829	-29.61263	5.655252E-006	0.0066895	8
	5	3	316265.6	3294.206	-1701.493	1	3707.678	-27.31684	-1.614177E-006	0.0077291	8
	6	3	251203.1	3597.913	-1695.342	1	3977.331	-25.22988	-2.279349E-006	0.007804	8
	7	3	199546.9	3888.101	-1634.345	1	4217.631	-22.79922	-1.882118E-006	0.0074727	8
	8	4	158578.1	4175.598	-1548.778	1	4453.575	-20.35041	-1.209295E-006	0.0077004	8
	9	4	125953.1	4468.288	-1399.419	1	4682.304	-17.38998	-1.190054E-006	0.0062838	7
	10	4	100078.1	4678.685	-1285.902	1	4852.178	-15.36787	-8.235411E-007	0.0088841	7
	11	4	79453.13	4874.379	-1140.397	1	5006.004	-13.16792	-3.362123E-007	0.0065489	7
	12	5	63140.62	5015.674	-1020.665	1	5118.471	-11.50236	-1.164839E-006	0.0083574	7
	13	5	50203.12	5159.912	-919.7747	1	5241.248	-10.10704	8.164652E-007	0.0070119	7
	14	5	39890.62	5264.15	-809.7188	1	5326.061	-8.744562	1.045304E-006	0.0061591	7
	15	6	31640.63	5338.152	-730.0417	1	5387.841	-7.787419	1.040013E-006	0.0061621	7
	16	6	25171.88	5369.755	-661.9455	1	5410.401	-7.027565	-3.387266E-007	0.0065412	7
	17	6	20015.62	5440.474	-621.8782	1	5475.901	-6.520942	9.076463E-007	0.0056626	7
	18	7	15890.62	5490.508	-602.4961	1	5523.466	-6.262247	8.11602E-007	0.0070082	7
	19	7	12609.37	5525.241	-596.5652	1	5557.354	-6.162404	1.018419E-006	0.0058584	7
	20	7	10078.13	5568.067	-619.3019	1	5602.401	-6.346573	1.049145E-006	0.0061449	7
	21	8	8015.625	5579.076	-648.2189	1	5616.607	-6.627338	6.41892E-008	0.0060374	7
	22	8	6328.125	5610.629	-722.9727	1	5657.018	-7.342541	4.179968E-007	0.005731	7
	23	8	5015.625	5658.75	-820.5112	1	5717.927	-8.250313	-8.230395E-007	0.0088713	7
	24	9	3984.375	5715.406	-944.5698	1	5792.934	-9.384295	1.042077E-006	0.0061611	7
	25	9	3170.956	5764.607	-1095.745	1	5867.823	-10.76247	4.011851E-007	0.0077353	7
	26	9	2527.573	5788.742	-1285.329	1	5929.722	-12.51883	-8.254883E-007	0.0088736	7
	27	10	1976.103	5884.475	-1560.247	1	6087.809	-14.85007	4.068922E-007	0.0077354	7
	28	10	1577.524	5922.183	-1847.797	1	6203.757	-17.3286	-3.379672E-007	0.0065287	7
	29	10	1265.625	6019.061	-2220.847	1	6415.704	-20.25249	1.046953E-006	0.0061461	7
	30	11	998.264	6130.635	-2717.073	1	6705.756	-23.90273	1.052686E-006	0.006139	7
	31	11	796.875	6246.974	-3280.774	1	7056.072	-27.70747	1.049254E-006	0.0061437	7
	32	11	627.7902	6373.516	-4021.63	1	7536.26	-32.25155	-5.5637E-007	0.0087685	7
	33	12	505.5147	6525.796	-4864.401	1	8139.313	-36.70125	9.769324E-007	0.0065367	7
	34	13	397.9953	6723.872	-5975.13	1	8995.145	-41.62571	1.513071E-009	0.0072951	7
	35	13	315.5048	6968.291	-7335.318	1	10117.51	-46.46988	9.872261E-010	0.0072415	6
	36	13	252.4038	7260.286	-8940.476	1	11517.11	-50.92101	-4.308314E-010	0.0072341	6
	37	14	198.6229	7654.819	-11073.81	1	13462	-55.34567	2.860971E-010	0.0072285	6
	38	14	158.3615	8129.333	-13549.28	1	15800.92	-59.03697	1.880986E-010	0.0072305	6
	39	14	125.558	8767.341	-16670.95	1	18835.78	-62.25988	5.977622E-010	0.0072253	6
	40	15	100.4464	9523.9	-20334.66	1	22454.46	-64.90359	7.618102E-010	0.007232	6
	41	15	79.00281	10660.41	-25140.72	1	27307.51	-67.02161	9.423901E-010	0.0072331	6
	42	15	63.3446	12139.84	-30929.33	1	33226.48	-68.56986	-1.174339E-010	0.0072224	6
	43	16	49.86702	14005.25	-38056.42	1	40551.68	-69.79573	-6.480503E-010	0.0072244	6
	44	16	39.72458	16418.83	-46022.59	1	48863.65	-70.36584	-4.4849E-011	0.0072347	6
	45	16	31.6723	19521.29	-55789.95	1	59106.67	-70.71471	-1.273917E-010	0.007233	6
	46	17	24.93351	24124.01	-68463.17	1	72589.08	-70.58934	4.723989E-010	0.0072203	6
	47	17	19.86229	29883.85	-82605.45	1	87844.78	-70.1116	1.429615E-009	0.007233	6
	48	17	15.83615	37560.23	-98756.9	1	105658.4	-69.17667	-1.16592E-009	0.007227	5
	49	18	12.40079	46857.22	-120009	1	128832.3	-68.67197	-3.992928E-010	0.007224	5
	50	18	9.93114	60633.52	-141274.8	1	153736.8	-66.77155	-8.099357E-010	0.0072376	5
	51	18	7.944915	76136.44	-165878.1	1	182516.6	-65.34534	-2.416335E-010	0.0072323	5
	52	19	6.317385	95742.6	-192887	1	215341.7	-63.60175	-3.252192E-010	0.0072411	5
	53	20	5.008013	119834.3	-223354	1	253470.5	-61.78547	-3.536859E-010	0.007224	5
	54	21	3.945707	148631.2	-256428.2	1	296389.4	-59.90251	1.685246E-010	0.0072284	5
	55	22	3.158693	179670	-290268.8	1	341375.5	-58.24341	-4.199346E-011	0.0072413	5
	56	24	2.504006	215148.3	-328933.8	1	393047.3	-56.8122	-2.270284E-010	0.0072351	5
	57	25	1.998082	251859.8	-368650.7	1	446471.4	-55.65936	7.824773E-011	0.0072597	5
	58	27	1.584686	292500.1	-416952.2	1	509318.6	-54.94959	1.217966E-010	0.0072739	5
	59	29	1.266892	333301.2	-469553.7	1	575821.4	-54.6319	2.103794E-011	0.0072418	5
	60	31	0.999041	380256.2	-535009	1	656375.9	-54.59679	1.29347E-011	0.0072149	5
