EXPLAIN
TAG	EISPOT
TITLE	LABEL	Potentiostatic EIS	Test &Identifier
DATE	LABEL	9/20/2019	Date
TIME	LABEL	10:29:44	Time
NOTES	NOTES	1	&Notes...
	
PSTAT	PSTAT	REF600-11020	Potentiostat
VDC	POTEN	0.00000E+000	T	DC &Voltage (V)
FREQINIT	QUANT	1.00000E+006	Initial Fre&q. (Hz)
FREQFINAL	QUANT	1.00000E+000	Final Fre&q. (Hz)
PTSPERDEC	QUANT	1.00000E+001	Points/&decade
VAC	QUANT	2.50000E+001	AC &Voltage (mV rms)
AREA	QUANT	1.00000E-002	&Area (cm^2)
CONDIT	TWOPARAM	T	5.00000E+000	0.00000E+000	Conditionin&g	Time(s)	E(V)
DELAY	TWOPARAM	T	5.00000E+000	0.00000E+000	Init. De&lay	Time(s)	Stab.(mV/s)
SPEED	SELECTOR	1	&Optimize for:
ZGUESS	QUANT	1.00000E+004	E&stimated Z (ohms)
OCVCURVE	TABLE	19
	Pt	T	Vf	Vm	Ach	Over
	#	s	V vs. Ref.	V	V	bits
	0	0.258333	-1.03802E-002	-1.03802E-002	5.49699E-004	...........
	1	0.516667	-1.03937E-002	-1.10864E-002	5.53566E-004	...........
	2	0.775	-1.04761E-002	-1.17330E-002	5.50199E-004	...........
	3	1.03333	-1.07072E-002	-1.23215E-002	5.53032E-004	...........
	4	1.29167	-1.11148E-002	-1.28714E-002	5.48199E-004	...........
	5	1.55	-1.16464E-002	-1.33812E-002	5.47799E-004	...........
	6	1.80833	-1.22215E-002	-1.38590E-002	5.57132E-004	...........
	7	2.06667	-1.27838E-002	-1.43057E-002	5.52699E-004	...........
	8	2.325	-1.33103E-002	-1.47259E-002	5.47233E-004	...........
	9	2.58333	-1.37983E-002	-1.51289E-002	5.48266E-004	...........
	10	2.84167	-1.42525E-002	-1.55040E-002	5.52932E-004	...........
	11	3.1	-1.46787E-002	-1.58633E-002	5.54133E-004	...........
	12	3.35833	-1.50810E-002	-1.62133E-002	5.52566E-004	...........
	13	3.61667	-1.54625E-002	-1.65369E-002	5.49899E-004	...........
	14	3.875	-1.58252E-002	-1.68321E-002	5.44899E-004	...........
	15	4.13333	-1.61689E-002	-1.71038E-002	5.49899E-004	...........
	16	4.39167	-1.64922E-002	-1.74051E-002	5.52766E-004	...........
	17	4.65	-1.67975E-002	-1.76898E-002	5.45566E-004	...........
	18	4.90833	-1.70910E-002	-1.79599E-002	5.46699E-004	...........
EOC	QUANT	-0.017091	Open Circuit (V)
PSTATMODEL	IQUANT	4	Pstat Model
PSTATSECTION	LABEL	REF600-11020	Pstat Section
PSTATSERIALNO	LABEL	11020	Pstat Serial Number
CTRLMODE	IQUANT	1	Control Mode
IESTAB	IQUANT	0	I/E Stability
CASPEED	IQUANT	1	Control Amp Speed
CONVENTION	IQUANT	1	Current Convention
ICHRANGE	IQUANT	2	Ich Range
ICHRANGEMODE	TOGGLE	F	Ich Auto Range
ICHOFFSETENABLE	TOGGLE	T	Ich Offset Enable
ICHOFFSET	QUANT	0	Ich Offset (V)
ICHFILTER	IQUANT	3	Ich Filter
VCHRANGE	IQUANT	2	Vch Range
VCHRANGEMODE	TOGGLE	F	Vch Auto Range
VCHOFFSETENABLE	TOGGLE	T	Vch Offset Enable
VCHOFFSET	QUANT	0	Vch Offset (V)
VCHFILTER	IQUANT	3	Vch Filter
ACHRANGE	IQUANT	2	Ach Range
ACHOFFSETENABLE	TOGGLE	F	Ach Offset Enable
ACHOFFSET	QUANT	0	Ach Offset (V)
ACHFILTER	IQUANT	3	Ach Filter
IERANGELOWERLIMIT	IQUANT	1	I/E Range Lower Limit
IERANGEMODE	TOGGLE	F	I/E AutoRange
IERANGE	IQUANT	6	I/E Range
POSFEEDENABLE	TOGGLE	F	Positive Feedback IR Comp
POSFEEDRESISTANCE	QUANT	0	Positive Feedback Resistance (ohm)
ACHSELECT	IQUANT	0	Ach Select
CABLEID	IQUANT	14	Cable ID
DCCALDATE	LABEL	8/19/2019	DC Calibration Date
ACCALDATE	LABEL	8/19/2019	AC Calibration Date
THERMOSELECT	IQUANT	1	Thermo Select
FRAMEWORKVERSION	QUANT	6.33	Framework Version
INSTRUMENTVERSION	LABEL	3.50	Instrument Version
ZCURVE	TABLE
	Pt	Time	Freq	Zreal	Zimag	Zsig	Zmod	Zphz	Idc	Vdc	IERange
	#	s	Hz	ohm	ohm	V	ohm	°	A	V	#
	0	1	1000078	2009.771	-792.0913	1	2160.229	-21.5104	3.078909E-006	-0.014604	8
	1	3	794390.6	2132.154	-709.0955	1	2246.975	-18.3957	1.846504E-006	-0.0156469	8
	2	4	630984.4	2223.512	-631.0165	1	2311.318	-15.84355	-4.026757E-006	-0.0144207	8
	3	5	501234.4	2296.739	-545.3883	1	2360.605	-13.35816	5.41332E-007	-0.0153973	8
	4	7	398109.4	2359.147	-465.2274	1	2404.582	-11.15568	-2.765132E-006	-0.0149871	8
	5	8	316265.6	2400.209	-405.0906	1	2434.153	-9.57971	3.190512E-006	-0.0160314	8
	6	9	251203.1	2444.266	-363.1649	1	2471.098	-8.451083	1.220301E-006	-0.0157918	8
	7	11	199546.9	2468.033	-315.9695	1	2488.177	-7.295596	2.914259E-006	-0.0160289	8
	8	12	158578.1	2492.227	-284.2576	1	2508.385	-6.506904	-2.826315E-007	-0.0154781	8
	9	13	125953.1	2529.502	-231.8247	1	2540.103	-5.236435	8.126615E-007	-0.0172225	7
	10	15	100078.1	2544.171	-214.7135	1	2553.216	-4.824004	6.591582E-008	-0.0155844	7
	11	16	79453.13	2563.331	-211.9407	1	2572.078	-4.726564	-3.491049E-008	-0.0154302	7
	12	18	63140.62	2583.365	-214.4514	1	2592.25	-4.745383	-1.640322E-008	-0.0153464	7
	13	19	50203.12	2605.537	-219.1337	1	2614.736	-4.807438	-3.818273E-008	-0.0153892	7
	14	20	39890.62	2628.125	-227.8717	1	2637.985	-4.95544	-3.425249E-008	-0.0154663	7
	15	22	31640.63	2652.278	-240.3334	1	2663.144	-5.177658	-1.202593E-008	-0.0155058	7
	16	23	25171.88	2676.782	-256.2186	1	2689.016	-5.467632	-3.508064E-008	-0.0154338	7
	17	24	20015.62	2703.014	-277.5985	1	2717.231	-5.863698	-1.073664E-008	-0.0154374	7
	18	26	15890.62	2731.91	-302.8656	1	2748.646	-6.326106	-3.009398E-008	-0.0154669	7
	19	27	12609.37	2762.115	-333.6957	1	2782.199	-6.888614	3.047677E-008	-0.0155138	7
	20	28	10078.13	2793.456	-371.2703	1	2818.02	-7.57065	-8.344136E-009	-0.0154394	7
	21	30	8015.625	2826.48	-416.0044	1	2856.93	-8.372743	-3.280367E-008	-0.0154706	7
	22	31	6328.125	2863.599	-474.3093	1	2902.614	-9.404742	7.298105E-008	-0.0155161	7
	23	32	5015.625	2903.003	-542.8242	1	2953.317	-10.59126	1.248569E-007	-0.0156698	7
	24	34	3984.375	2944.458	-626.2308	1	3010.315	-12.00683	-9.753661E-009	-0.0155122	7
	25	35	3170.956	2989.242	-726.3779	1	3076.231	-13.658	6.946803E-008	-0.0156046	7
	26	37	2527.573	3038.333	-848.2917	1	3154.531	-15.59954	3.104403E-008	-0.0155206	7
	27	38	1976.103	3096.999	-1011.14	1	3257.884	-18.08136	4.499909E-008	-0.0156141	7
	28	39	1577.524	3156.205	-1193.568	1	3374.35	-20.7149	6.963683E-008	-0.0156051	7
	29	41	1265.625	3221.799	-1409.972	1	3516.818	-23.63586	-2.715765E-008	-0.0154639	7
	30	42	998.264	3301.212	-1701.438	1	3713.878	-27.26649	7.413433E-008	-0.0156382	7
	31	43	796.875	3389.122	-2039.21	1	3955.316	-31.03502	4.499805E-009	-0.015481	7
	32	45	627.7902	3499.368	-2478.24	1	4288.035	-35.30599	-5.944327E-009	-0.0154334	7
	33	46	505.5147	3620.262	-2970.65	1	4683.061	-39.37101	3.207389E-008	-0.0155154	7
	34	47	397.9953	3781.595	-3635.262	1	5245.53	-43.86971	8.441574E-009	-0.0154644	7
	35	49	315.5048	3980.302	-4431.801	1	5956.817	-48.07226	9.238036E-009	-0.0154672	7
	36	50	252.4038	4222.554	-5364.71	1	6827.157	-51.79378	9.084593E-009	-0.015472	7
	37	52	198.6229	4559.133	-6588.007	1	8011.712	-55.3154	1.00394E-008	-0.0154715	7
	38	53	158.3615	4975.636	-7993.837	1	9415.858	-58.10046	1.010299E-008	-0.0154693	7
	39	54	125.558	5533.669	-9733.63	1	11196.66	-60.38133	4.704837E-009	-0.015525	6
	40	56	100.4464	6225.645	-11735.86	1	13284.92	-62.05492	4.152652E-009	-0.0155317	6
	41	57	79.00281	7223.689	-14290.96	1	16012.91	-63.18465	3.500828E-009	-0.015529	6
	42	58	63.3446	8426.206	-17024.5	1	18995.65	-63.66708	3.782157E-009	-0.0155353	6
	43	60	49.86702	10063.74	-20710.1	1	23025.79	-64.08331	3.700967E-009	-0.0155316	6
	44	61	39.72458	12061.68	-24596.34	1	27394.6	-63.87735	3.549752E-009	-0.015527	6
	45	63	31.6723	14551.65	-29020.93	1	32464.83	-63.36993	4.058635E-009	-0.0155267	6
	46	64	24.93351	17902.9	-34442.59	1	38817.59	-62.53506	5.04697E-009	-0.0155297	6
	47	65	19.86229	21776.19	-40194.4	1	45714.25	-61.55241	5.356225E-009	-0.0155282	6
	48	67	15.83615	26257.1	-46637.59	1	53521.02	-60.62036	3.397385E-009	-0.0155283	6
	49	68	12.40079	32533.61	-54373.81	1	63363.61	-59.10656	5.922445E-009	-0.0155321	6
	50	70	9.93114	38931.76	-62075.06	1	73273.43	-57.9052	4.463474E-009	-0.0155357	6
	51	71	7.944915	46377.71	-70655.73	1	84517.01	-56.71951	3.671494E-009	-0.0155349	6
	52	73	6.317385	55314.25	-80122.53	1	97361.6	-55.37994	5.153779E-009	-0.0155368	6
	53	75	5.008013	65514.87	-90942.27	1	112083.4	-54.231	3.11158E-009	-0.0155359	5
	54	77	3.945707	77655.23	-102850.9	1	128874.5	-52.94621	4.55038E-009	-0.0155241	5
	55	80	3.158693	90451.05	-115421.2	1	146640.5	-51.91559	3.069608E-009	-0.0155427	5
	56	83	2.504006	105554.7	-129617.3	1	167159.9	-50.84212	4.736881E-009	-0.0155214	5
	57	86	1.998082	121884.8	-144546.5	1	189075.7	-49.86167	4.424559E-009	-0.0155151	5
	58	89	1.584686	140741.4	-160912.9	1	213778.2	-48.82566	3.534882E-009	-0.0155771	5
	59	92	1.266892	160275.2	-179228.1	1	240438.8	-48.19525	4.281672E-009	-0.0155307	5
	60	97	0.999041	183949	-200758.8	1	272289.1	-47.50193	2.668886E-009	-0.015551	5
