EXPLAIN
TAG	EISPOT
TITLE	LABEL	Potentiostatic EIS	Test &Identifier
DATE	LABEL	10/2/2019	Date
TIME	LABEL	10:21:15	Time
NOTES	NOTES	2	&Notes...
	
	
PSTAT	PSTAT	REF600-11020	Potentiostat
VDC	POTEN	0.00000E+000	T	DC &Voltage (V)
FREQINIT	QUANT	1.00000E+006	Initial Fre&q. (Hz)
FREQFINAL	QUANT	1.00000E+000	Final Fre&q. (Hz)
PTSPERDEC	QUANT	1.00000E+001	Points/&decade
VAC	QUANT	2.50000E+001	AC &Voltage (mV rms)
AREA	QUANT	1.00000E-002	&Area (cm^2)
CONDIT	TWOPARAM	T	5.00000E+000	0.00000E+000	Conditionin&g	Time(s)	E(V)
DELAY	TWOPARAM	T	5.00000E+000	0.00000E+000	Init. De&lay	Time(s)	Stab.(mV/s)
SPEED	SELECTOR	1	&Optimize for:
ZGUESS	QUANT	1.00000E+004	E&stimated Z (ohms)
OCVCURVE	TABLE	19
	Pt	T	Vf	Vm	Ach	Over
	#	s	V vs. Ref.	V	V	bits
	0	0.258333	7.33530E-002	7.33530E-002	5.74266E-004	...........
	1	0.516667	7.31351E-002	6.19489E-002	5.67999E-004	...........
	2	0.775	7.15313E-002	3.72148E-002	5.68466E-004	...........
	3	1.03333	6.55188E-002	-1.74865E-002	5.72299E-004	...........
	4	1.29167	5.14927E-002	-1.63585E-002	5.74332E-004	...........
	5	1.55	3.02358E-002	-1.05080E-002	5.73066E-004	...........
	6	1.80833	8.71811E-003	-2.24324E-002	5.72566E-004	...........
	7	2.06667	-6.74304E-003	-2.96957E-002	5.66899E-004	.........v.
	8	2.325	-1.57453E-002	-1.46106E-002	5.68532E-004	...........
	9	2.58333	-1.98284E-002	5.10654E-003	5.74132E-004	...........
	10	2.84167	-1.88380E-002	-5.79387E-003	5.69566E-004	...........
	11	3.1	-1.43181E-002	-3.27585E-002	5.72832E-004	.........v.
	12	3.35833	-1.08943E-002	5.02312E-003	5.71766E-004	...........
	13	3.61667	-1.08818E-002	-3.27585E-002	5.74266E-004	.........v.
	14	3.875	-1.32233E-002	-3.66425E-002	5.74432E-004	...........
	15	4.13333	-1.82749E-002	-6.30176E-002	5.76299E-004	...........
	16	4.39167	-2.72585E-002	-5.20285E-002	5.71199E-004	...........
	17	4.65	-3.83051E-002	-5.29101E-002	5.76332E-004	...........
	18	4.90833	-4.73095E-002	-5.08502E-002	5.75132E-004	...........
EOC	QUANT	-0.0473095	Open Circuit (V)
PSTATMODEL	IQUANT	4	Pstat Model
PSTATSECTION	LABEL	REF600-11020	Pstat Section
PSTATSERIALNO	LABEL	11020	Pstat Serial Number
CTRLMODE	IQUANT	1	Control Mode
IESTAB	IQUANT	0	I/E Stability
CASPEED	IQUANT	1	Control Amp Speed
CONVENTION	IQUANT	1	Current Convention
ICHRANGE	IQUANT	2	Ich Range
ICHRANGEMODE	TOGGLE	F	Ich Auto Range
ICHOFFSETENABLE	TOGGLE	T	Ich Offset Enable
ICHOFFSET	QUANT	0	Ich Offset (V)
ICHFILTER	IQUANT	3	Ich Filter
VCHRANGE	IQUANT	2	Vch Range
VCHRANGEMODE	TOGGLE	F	Vch Auto Range
VCHOFFSETENABLE	TOGGLE	T	Vch Offset Enable
VCHOFFSET	QUANT	0	Vch Offset (V)
VCHFILTER	IQUANT	3	Vch Filter
ACHRANGE	IQUANT	2	Ach Range
ACHOFFSETENABLE	TOGGLE	F	Ach Offset Enable
ACHOFFSET	QUANT	0	Ach Offset (V)
ACHFILTER	IQUANT	3	Ach Filter
IERANGELOWERLIMIT	IQUANT	1	I/E Range Lower Limit
IERANGEMODE	TOGGLE	F	I/E AutoRange
IERANGE	IQUANT	6	I/E Range
POSFEEDENABLE	TOGGLE	F	Positive Feedback IR Comp
POSFEEDRESISTANCE	QUANT	0	Positive Feedback Resistance (ohm)
ACHSELECT	IQUANT	0	Ach Select
CABLEID	IQUANT	14	Cable ID
DCCALDATE	LABEL	8/19/2019	DC Calibration Date
ACCALDATE	LABEL	8/19/2019	AC Calibration Date
THERMOSELECT	IQUANT	1	Thermo Select
FRAMEWORKVERSION	QUANT	6.33	Framework Version
INSTRUMENTVERSION	LABEL	3.50	Instrument Version
ZCURVE	TABLE
	Pt	Time	Freq	Zreal	Zimag	Zsig	Zmod	Zphz	Idc	Vdc	IERange
	#	s	Hz	ohm	ohm	V	ohm	°	A	V	#
	0	2	1000078	876.0295	-8604.239	1	8648.72	-84.18654	-1.634205E-006	-0.0448943	8
	1	4	794390.6	1025.883	-10675.69	1	10724.86	-84.511	7.737475E-008	-0.0453634	8
	2	6	630984.4	1084.422	-13470.34	1	13513.92	-85.39736	6.480276E-007	-0.0457465	8
	3	7	501234.4	1602.07	-16260.18	1	16338.91	-84.37297	2.179793E-006	-0.0461603	8
	4	9	398109.4	1845.663	-20010.41	1	20095.35	-84.73022	1.767258E-006	-0.0461567	8
	5	10	316265.6	1657.465	-25644.07	1	25697.58	-86.30192	-4.738404E-007	-0.0457181	8
	6	12	251203.1	2135.296	-31919.23	1	31990.57	-86.1728	-9.576545E-007	-0.0453349	8
	7	13	199546.9	1742.179	-41169.05	1	41205.9	-87.57682	1.877711E-006	-0.0461584	8
	8	15	158578.1	3970.683	-50430.07	1	50586.15	-85.49802	-2.592587E-006	-0.0451894	8
	9	17	125953.1	4160.942	-61753.81	1	61893.83	-86.14526	-4.63611E-008	-0.0446322	7
	10	18	100078.1	5587.313	-78746.41	1	78944.38	-85.94148	5.619016E-008	-0.045902	7
	11	20	79453.13	6760.469	-97733.7	1	97967.2	-86.04302	-8.992929E-008	-0.0454865	7
	12	22	63140.62	8084.503	-122352.2	1	122619	-86.21964	6.569687E-008	-0.0458472	7
	13	23	50203.12	9786.97	-152065.7	1	152380.3	-86.31751	-2.682145E-008	-0.0457194	7
	14	25	39890.62	11399.28	-190045.5	1	190387.1	-86.56741	6.628537E-008	-0.04585	7
	15	26	31640.63	13611.25	-237846.3	1	238235.5	-86.7247	1.396487E-007	-0.0459574	7
	16	28	25171.88	21270.85	-292691.6	1	293463.5	-85.84344	-3.866038E-008	-0.0457825	7
	17	29	20015.62	24768.48	-368140.1	1	368972.4	-86.15094	6.473405E-008	-0.0458466	7
	18	31	15890.62	26641.75	-464384.7	1	465148.3	-86.71654	-1.823977E-008	-0.0457303	7
	19	32	12609.37	43419.47	-580083.7	1	581706.4	-85.71938	4.137264E-010	-0.04586	6
	20	34	10078.13	46433.66	-715935.2	1	717439.4	-86.28915	-1.052327E-008	-0.0456005	6
	21	36	8015.625	68357.79	-898379.4	1	900976.4	-85.64874	1.116404E-008	-0.0458039	6
	22	37	6328.125	87968.11	-1125212	1	1128645	-85.52975	-2.157754E-008	-0.0456	6
	23	39	5015.625	106543	-1411304	1	1415319	-85.68278	6.456136E-009	-0.0456514	6
	24	41	3984.375	131049.2	-1735094	1	1740036	-85.68073	7.139519E-009	-0.0460761	6
	25	42	3170.956	193166.4	-2191232	1	2199730	-84.96216	2.42656E-009	-0.0460089	6
	26	44	2527.573	231176.5	-2633587	1	2643714	-84.98343	2.866309E-008	-0.0461886	6
	27	46	1976.103	426245.8	-3454954	1	3481148	-82.96683	-1.870142E-008	-0.0456518	6
	28	48	1577.524	739881.4	-4402493	1	4464232	-80.46004	-5.437854E-009	-0.0458096	6
	29	49	1265.625	661111.9	-5135939	1	5178314	-82.66507	5.544412E-009	-0.0457604	5
	30	51	998.264	976377	-6586874	1	6658845	-81.5684	8.071035E-010	-0.0457918	5
	31	52	796.875	1302990	-8311528	1	8413042	-81.09031	3.221857E-009	-0.0458768	5
	32	54	627.7902	2083623	-1.008084E+007	1	1.029392E+007	-78.32189	-2.531167E-009	-0.0457677	5
	33	55	505.5147	2742464	-1.286941E+007	1	1.315838E+007	-77.97025	3.692127E-010	-0.0456969	5
	34	57	397.9953	3127595	-1.526985E+007	1	1.558686E+007	-78.42468	-6.263655E-011	-0.0457882	5
	35	58	315.5048	4195125	-1.866918E+007	1	1.913472E+007	-77.33551	-1.691807E-009	-0.0457949	5
	36	60	252.4038	8020391	-2.09679E+007	1	2.244949E+007	-69.06775	-3.525353E-009	-0.0457957	5
	37	61	198.6229	1.289501E+007	-2.575728E+007	1	2.880484E+007	-63.40584	2.125866E-009	-0.0457943	5
	38	63	158.3615	2.33557E+007	-2.688589E+007	1	3.561376E+007	-49.01925	-3.822211E-009	-0.0457873	5
	39	64	125.558	2.065976E+007	-4.236886E+007	1	4.713752E+007	-64.00537	9.084229E-010	-0.0457952	4
	40	66	100.4464	2.859567E+007	-4.465162E+007	1	5.302339E+007	-57.3638	2.733295E-009	-0.0458001	4
	41	67	79.00281	4.212529E+007	4332764	1	4.234753E+007	5.872462	-5.051259E-009	-0.0457651	4
	42	69	63.3446	-5519143	-7034633	1	8941309	-128.1166	-5.830998E-009	-0.0457656	4
	43	72	49.86702	3.235954E+007	-2.018738E+007	1	3.814014E+007	-31.95782	1.160559E-009	-0.045795	5
	44	73	39.72458	1.253581E+008	4.352093E+007	1	1.326978E+008	19.14562	-1.91676E-009	-0.0457803	4
	45	75	31.6723	4.722092E+007	1901193	1	4.725917E+007	2.305578	-1.087697E-010	-0.0458011	4
	46	77	24.93351	9.151419E+007	-1.316475E+007	1	9.245625E+007	-8.186111	-2.591127E-010	-0.0457959	4
	47	78	19.86229	8.195382E+007	-1.819082E+007	1	8.39484E+007	-12.51473	4.76139E-010	-0.0458033	4
	48	80	15.83615	2862072	-1.861861E+007	1	1.883731E+007	-81.26084	-9.117962E-010	-0.0457936	5
	49	82	12.40079	1.483505E+007	-4.565174E+007	1	4.800167E+007	-71.99785	9.430137E-011	-0.0457929	4
	50	83	9.93114	8.461649E+007	-3.173656E+007	1	9.037234E+007	-20.55924	-9.07853E-010	-0.0457952	4
	51	85	7.944915	4.778338E+007	2.376366E+007	1	5.336631E+007	26.44211	-1.730512E-009	-0.045787	4
	52	87	6.317385	5.362855E+007	98326.8	1	5.362864E+007	0.1050505	2.469111E-010	-0.0457899	4
	53	90	5.008013	5.44776E+007	-1.077776E+007	1	5.55335E+007	-11.1908	2.522448E-009	-0.0458047	4
	54	93	3.945707	9.51842E+007	3.838342E+007	1	1.02632E+008	21.96196	1.343299E-010	-0.0457971	4
	55	96	3.158693	6.95485E+007	8465457	1	7.006181E+007	6.939915	-3.25534E-010	-0.0457773	4
	56	100	2.504006	9.952588E+007	-1.871397E+007	1	1.0127E+008	-10.64906	-1.524671E-010	-0.0458012	3
	57	105	1.998082	1.394862E+008	3.091496E+007	1	1.428711E+008	12.49672	5.353919E-013	-0.0457622	3
	58	113	1.584686	1.24822E+008	-9.61418E+006	1	1.251917E+008	-4.404404	-5.693254E-011	-0.0458084	3
	59	118	1.266892	2.06784E+008	-6605727	1	2.068895E+008	-1.829695	-5.033186E-011	-0.0457085	2
	60	124	0.999041	2.93068E+008	1.282757E+007	1	2.933486E+008	2.506233	-8.815653E-011	-0.0457626	2
