EXPLAIN
TAG	EISPOT
TITLE	LABEL	Potentiostatic EIS	Test &Identifier
DATE	LABEL	10/8/2019	Date
TIME	LABEL	8:34:39	Time
NOTES	NOTES	2	&Notes...
	
	
PSTAT	PSTAT	REF600-11020	Potentiostat
VDC	POTEN	0.00000E+000	T	DC &Voltage (V)
FREQINIT	QUANT	1.00000E+006	Initial Fre&q. (Hz)
FREQFINAL	QUANT	1.00000E+000	Final Fre&q. (Hz)
PTSPERDEC	QUANT	1.00000E+001	Points/&decade
VAC	QUANT	2.50000E+001	AC &Voltage (mV rms)
AREA	QUANT	1.00000E-002	&Area (cm^2)
CONDIT	TWOPARAM	T	5.00000E+000	0.00000E+000	Conditionin&g	Time(s)	E(V)
DELAY	TWOPARAM	T	5.00000E+000	0.00000E+000	Init. De&lay	Time(s)	Stab.(mV/s)
SPEED	SELECTOR	1	&Optimize for:
ZGUESS	QUANT	1.00000E+004	E&stimated Z (ohms)
OCVCURVE	TABLE	19
	Pt	T	Vf	Vm	Ach	Over
	#	s	V vs. Ref.	V	V	bits
	0	0.258333	7.08756E-003	7.08756E-003	5.36799E-004	...........
	1	0.516667	7.08725E-003	7.07090E-003	5.36866E-004	...........
	2	0.775	7.08553E-003	7.06761E-003	5.39766E-004	...........
	3	1.03333	7.08170E-003	7.07658E-003	5.35933E-004	...........
	4	1.29167	7.07748E-003	7.08957E-003	5.40666E-004	...........
	5	1.55	7.07656E-003	7.11295E-003	5.38533E-004	...........
	6	1.80833	7.08188E-003	7.13451E-003	5.41799E-004	...........
	7	2.06667	7.09426E-003	7.16609E-003	5.40299E-004	...........
	8	2.325	7.11289E-003	7.19223E-003	5.41899E-004	...........
	9	2.58333	7.13647E-003	7.23255E-003	5.36133E-004	...........
	10	2.84167	7.16397E-003	7.26324E-003	5.40233E-004	...........
	11	3.1	7.19467E-003	7.29990E-003	5.36199E-004	...........
	12	3.35833	7.22762E-003	7.33382E-003	5.33066E-004	...........
	13	3.61667	7.26187E-003	7.37326E-003	5.37266E-004	...........
	14	3.875	7.29691E-003	7.40463E-003	5.35866E-004	...........
	15	4.13333	7.33243E-003	7.44318E-003	5.36299E-004	...........
	16	4.39167	7.36800E-003	7.47211E-003	5.33966E-004	...........
	17	4.65	7.40317E-003	7.51093E-003	5.33166E-004	...........
	18	4.90833	7.43786E-003	7.54361E-003	5.39233E-004	...........
EOC	QUANT	0.0074379	Open Circuit (V)
PSTATMODEL	IQUANT	4	Pstat Model
PSTATSECTION	LABEL	REF600-11020	Pstat Section
PSTATSERIALNO	LABEL	11020	Pstat Serial Number
CTRLMODE	IQUANT	1	Control Mode
IESTAB	IQUANT	0	I/E Stability
CASPEED	IQUANT	1	Control Amp Speed
CONVENTION	IQUANT	1	Current Convention
ICHRANGE	IQUANT	2	Ich Range
ICHRANGEMODE	TOGGLE	F	Ich Auto Range
ICHOFFSETENABLE	TOGGLE	T	Ich Offset Enable
ICHOFFSET	QUANT	0	Ich Offset (V)
ICHFILTER	IQUANT	3	Ich Filter
VCHRANGE	IQUANT	2	Vch Range
VCHRANGEMODE	TOGGLE	F	Vch Auto Range
VCHOFFSETENABLE	TOGGLE	T	Vch Offset Enable
VCHOFFSET	QUANT	0	Vch Offset (V)
VCHFILTER	IQUANT	3	Vch Filter
ACHRANGE	IQUANT	2	Ach Range
ACHOFFSETENABLE	TOGGLE	F	Ach Offset Enable
ACHOFFSET	QUANT	0	Ach Offset (V)
ACHFILTER	IQUANT	3	Ach Filter
IERANGELOWERLIMIT	IQUANT	1	I/E Range Lower Limit
IERANGEMODE	TOGGLE	F	I/E AutoRange
IERANGE	IQUANT	6	I/E Range
POSFEEDENABLE	TOGGLE	F	Positive Feedback IR Comp
POSFEEDRESISTANCE	QUANT	0	Positive Feedback Resistance (ohm)
ACHSELECT	IQUANT	0	Ach Select
CABLEID	IQUANT	14	Cable ID
DCCALDATE	LABEL	8/19/2019	DC Calibration Date
ACCALDATE	LABEL	8/19/2019	AC Calibration Date
THERMOSELECT	IQUANT	1	Thermo Select
FRAMEWORKVERSION	QUANT	6.33	Framework Version
INSTRUMENTVERSION	LABEL	3.50	Instrument Version
ZCURVE	TABLE
	Pt	Time	Freq	Zreal	Zimag	Zsig	Zmod	Zphz	Idc	Vdc	IERange
	#	s	Hz	ohm	ohm	V	ohm	°	A	V	#
	0	1	1000078	2421.424	-1475.642	1	2835.633	-31.35858	2.1926E-007	0.0097997	8
	1	3	794390.6	2684.929	-1384.439	1	3020.847	-27.27715	-1.131773E-007	0.0095392	8
	2	4	630984.4	2933.963	-1253.209	1	3190.403	-23.12921	3.725595E-008	0.0093736	8
	3	6	501234.4	3132.579	-1103.335	1	3321.205	-19.40293	-7.027656E-007	0.0092364	8
	4	7	398109.4	3273.377	-967.892	1	3413.475	-16.47221	3.249236E-006	0.0084937	8
	5	8	316265.6	3391.403	-827.1164	1	3490.807	-13.70608	-6.475613E-007	0.009115	8
	6	10	251203.1	3475.834	-707.6537	1	3547.139	-11.50771	3.884932E-006	0.0083537	8
	7	11	199546.9	3566.939	-615.4309	1	3619.643	-9.78929	1.219414E-006	0.0089628	8
	8	13	158578.1	3584.31	-526.0818	1	3622.712	-8.349885	2.963946E-006	0.0084951	8
	9	14	125953.1	3642.092	-429.1044	1	3667.282	-6.719504	-2.509418E-008	0.0091436	7
	10	15	100078.1	3670.196	-383.427	1	3690.17	-5.964081	-3.275209E-008	0.0090693	7
	11	17	79453.13	3698.4	-358.9417	1	3715.778	-5.54338	-4.895118E-008	0.0090852	7
	12	18	63140.62	3726.301	-344.6667	1	3742.207	-5.284575	3.740743E-008	0.0090061	7
	13	19	50203.12	3753.721	-339.5824	1	3769.05	-5.169222	-4.761823E-008	0.0090702	7
	14	21	39890.62	3781.959	-343.4012	1	3797.517	-5.188219	-6.795464E-009	0.0090785	7
	15	22	31640.63	3811.156	-353.9521	1	3827.557	-5.30599	-5.896195E-008	0.0092098	7
	16	23	25171.88	3841.887	-373.8437	1	3860.033	-5.5578	-1.248373E-008	0.0090036	7
	17	25	20015.62	3872.361	-400.8844	1	3893.056	-5.910466	-3.809348E-008	0.0090751	7
	18	26	15890.62	3910.372	-442.904	1	3935.374	-6.462006	4.490376E-008	0.0089015	7
	19	28	12609.37	3950.156	-490.9587	1	3980.55	-7.08487	-8.112903E-008	0.0091748	7
	20	29	10078.13	3990.077	-551.4317	1	4028.001	-7.868479	-5.66554E-008	0.0092162	7
	21	30	8015.625	4029.731	-625.4718	1	4077.984	-8.822721	-1.143984E-008	0.0090013	7
	22	32	6328.125	4081.747	-720.1483	1	4144.789	-10.0058	8.173222E-008	0.0088746	7
	23	33	5015.625	4132.257	-835.8382	1	4215.942	-11.43503	-1.446995E-008	0.0091768	7
	24	34	3984.375	4178.072	-984.558	1	4292.51	-13.25978	8.81206E-008	0.0089798	7
	25	36	3170.956	4243.22	-1147.739	1	4395.705	-15.13562	-3.722615E-008	0.0090694	7
	26	37	2527.573	4301.44	-1357.659	1	4510.612	-17.5172	-4.555347E-010	0.0090444	7
	27	38	1976.103	4376.77	-1644.189	1	4675.412	-20.58933	-5.781493E-008	0.0092047	7
	28	40	1577.524	4449.726	-1968.855	1	4865.845	-23.86779	-9.458309E-009	0.0089984	7
	29	41	1265.625	4529.69	-2361.981	1	5108.527	-27.53953	2.195525E-010	0.0090477	7
	30	43	998.264	4630.048	-2883.262	1	5454.406	-31.91169	8.288377E-008	0.0088678	7
	31	44	796.875	4743.72	-3501.369	1	5895.97	-36.43126	6.832414E-008	0.0089277	7
	32	45	627.7902	4888.817	-4310.83	1	6517.959	-41.405	-2.881132E-008	0.0090465	7
	33	47	505.5147	5042.651	-5207.026	1	7248.548	-45.91878	8.165861E-008	0.0088673	7
	34	48	397.9953	5267.568	-6446.103	1	8324.634	-50.7453	5.322113E-009	0.0090549	7
	35	49	315.5048	5535.861	-7927.116	1	9668.76	-55.07167	6.266571E-009	0.0090515	7
	36	51	252.4038	5865.833	-9674.65	1	11314.01	-58.77117	1.152764E-009	0.0089904	6
	37	52	198.6229	6313.374	-11983.88	1	13545.18	-62.21874	9.799267E-010	0.0089921	6
	38	54	158.3615	6859.74	-14667.64	1	16192.46	-64.93552	7.513404E-010	0.0089902	6
	39	55	125.558	7588.403	-18030.02	1	19561.84	-67.17494	1.009967E-009	0.0089938	6
	40	56	100.4464	8484.422	-21952.76	1	23535.28	-68.86921	6.008509E-010	0.0089841	6
	41	58	79.00281	9718.55	-27149.85	1	28836.86	-70.30469	9.361337E-010	0.0089836	6
	42	59	63.3446	11071.46	-32903.81	1	34716.54	-71.40296	8.201814E-010	0.0089823	6
	43	61	49.86702	13471.79	-40352.39	1	42541.8	-71.53822	9.501283E-011	0.0089821	6
	44	62	39.72458	16063.19	-49127.35	1	51686.77	-71.89378	9.154278E-010	0.0089886	6
	45	63	31.6723	19460.98	-59633.41	1	62728.57	-71.92624	1.072537E-009	0.0089873	6
	46	65	24.93351	24052.61	-72591.55	1	76472.62	-71.66782	7.064599E-010	0.0089883	6
	47	66	19.86229	29867.55	-87521.61	1	92477.58	-71.15733	4.558961E-010	0.0089945	6
	48	67	15.83615	36974.98	-105254.7	1	111560.3	-70.6441	-5.111305E-010	0.0089927	5
	49	69	12.40079	46602.98	-127285.4	1	135548.6	-69.89082	1.9565E-010	0.0089882	5
	50	70	9.93114	58485.99	-150515	1	161478.7	-68.76524	5.639685E-010	0.0089881	5
	51	72	7.944915	73070.69	-177631.2	1	192073.4	-67.63961	-1.728659E-010	0.008988	5
	52	74	6.317385	91285.9	-209077	1	228136.6	-66.41325	6.352356E-010	0.0089898	5
	53	76	5.008013	114106	-245960.6	1	271139.8	-65.11247	3.669864E-010	0.0089997	5
	54	78	3.945707	142354.1	-289105.6	1	322252.6	-63.7846	1.361188E-010	0.0089948	5
	55	81	3.158693	174105.6	-333732.7	1	376417.7	-62.44932	1.131525E-010	0.0090129	5
	56	84	2.504006	212800.7	-386339.5	1	441069.6	-61.15347	1.68849E-010	0.0089898	5
	57	87	1.998082	255564.1	-442468.4	1	510970.9	-59.98982	-1.695647E-010	0.0090209	5
	58	90	1.584686	306444.7	-507826.3	1	593123.8	-58.89138	1.677482E-010	0.0090341	5
	59	94	1.266892	361671.8	-576108.3	1	680225.9	-57.88004	-9.814286E-011	0.0090367	5
	60	98	0.999041	424783.7	-659165.6	1	784181.4	-57.2012	1.301783E-010	0.0089661	5
