EXPLAIN
TAG	EISPOT
TITLE	LABEL	Potentiostatic EIS	Test &Identifier
DATE	LABEL	10/16/2019	Date
TIME	LABEL	9:50:04	Time
NOTES	NOTES	1	&Notes...
	
PSTAT	PSTAT	REF600-11020	Potentiostat
VDC	POTEN	0.00000E+000	T	DC &Voltage (V)
FREQINIT	QUANT	1.00000E+006	Initial Fre&q. (Hz)
FREQFINAL	QUANT	1.00000E+000	Final Fre&q. (Hz)
PTSPERDEC	QUANT	1.00000E+001	Points/&decade
VAC	QUANT	2.50000E+001	AC &Voltage (mV rms)
AREA	QUANT	1.00000E-002	&Area (cm^2)
CONDIT	TWOPARAM	T	5.00000E+000	0.00000E+000	Conditionin&g	Time(s)	E(V)
DELAY	TWOPARAM	T	5.00000E+000	0.00000E+000	Init. De&lay	Time(s)	Stab.(mV/s)
SPEED	SELECTOR	0	&Optimize for:
ZGUESS	QUANT	1.00000E+005	E&stimated Z (ohms)
OCVCURVE	TABLE	19
	Pt	T	Vf	Vm	Ach	Over
	#	s	V vs. Ref.	V	V	bits
	0	0.258333	7.03775E-003	7.03775E-003	5.70899E-004	...........
	1	0.516667	7.03493E-003	6.88984E-003	5.65499E-004	...........
	2	0.775	7.01726E-003	6.73285E-003	5.63599E-004	...........
	3	1.03333	6.96688E-003	6.61765E-003	5.65632E-004	...........
	4	1.29167	6.87743E-003	6.49647E-003	5.71066E-004	...........
	5	1.55	6.76077E-003	6.36282E-003	5.71099E-004	...........
	6	1.80833	6.63359E-003	6.25431E-003	5.66132E-004	...........
	7	2.06667	6.50680E-003	6.17430E-003	5.63432E-004	...........
	8	2.325	6.38705E-003	6.07660E-003	5.65099E-004	...........
	9	2.58333	6.27837E-003	6.01068E-003	5.68566E-004	...........
	10	2.84167	6.18172E-003	5.94750E-003	5.65866E-004	...........
	11	3.1	6.09676E-003	5.90058E-003	5.67666E-004	...........
	12	3.35833	6.02327E-003	5.85025E-003	5.73565E-004	...........
	13	3.61667	5.95990E-003	5.78693E-003	5.70566E-004	...........
	14	3.875	5.90378E-003	5.77491E-003	5.65566E-004	...........
	15	4.13333	5.85455E-003	5.79432E-003	5.67632E-004	...........
	16	4.39167	5.81709E-003	5.78782E-003	5.70132E-004	...........
	17	4.65	5.79601E-003	5.80749E-003	5.65566E-004	...........
	18	4.90833	5.78992E-003	5.81029E-003	5.64166E-004	...........
EOC	QUANT	0.0057899	Open Circuit (V)
PSTATMODEL	IQUANT	4	Pstat Model
PSTATSECTION	LABEL	REF600-11020	Pstat Section
PSTATSERIALNO	LABEL	11020	Pstat Serial Number
CTRLMODE	IQUANT	1	Control Mode
IESTAB	IQUANT	0	I/E Stability
CASPEED	IQUANT	1	Control Amp Speed
CONVENTION	IQUANT	1	Current Convention
ICHRANGE	IQUANT	2	Ich Range
ICHRANGEMODE	TOGGLE	F	Ich Auto Range
ICHOFFSETENABLE	TOGGLE	T	Ich Offset Enable
ICHOFFSET	QUANT	0	Ich Offset (V)
ICHFILTER	IQUANT	3	Ich Filter
VCHRANGE	IQUANT	2	Vch Range
VCHRANGEMODE	TOGGLE	F	Vch Auto Range
VCHOFFSETENABLE	TOGGLE	T	Vch Offset Enable
VCHOFFSET	QUANT	0	Vch Offset (V)
VCHFILTER	IQUANT	3	Vch Filter
ACHRANGE	IQUANT	2	Ach Range
ACHOFFSETENABLE	TOGGLE	F	Ach Offset Enable
ACHOFFSET	QUANT	0	Ach Offset (V)
ACHFILTER	IQUANT	3	Ach Filter
IERANGELOWERLIMIT	IQUANT	1	I/E Range Lower Limit
IERANGEMODE	TOGGLE	F	I/E AutoRange
IERANGE	IQUANT	5	I/E Range
POSFEEDENABLE	TOGGLE	F	Positive Feedback IR Comp
POSFEEDRESISTANCE	QUANT	0	Positive Feedback Resistance (ohm)
ACHSELECT	IQUANT	0	Ach Select
CABLEID	IQUANT	14	Cable ID
DCCALDATE	LABEL	8/19/2019	DC Calibration Date
ACCALDATE	LABEL	8/19/2019	AC Calibration Date
THERMOSELECT	IQUANT	1	Thermo Select
FRAMEWORKVERSION	QUANT	6.33	Framework Version
INSTRUMENTVERSION	LABEL	3.50	Instrument Version
ZCURVE	TABLE
	Pt	Time	Freq	Zreal	Zimag	Zsig	Zmod	Zphz	Idc	Vdc	IERange
	#	s	Hz	ohm	ohm	V	ohm	°	A	V	#
	0	2	1000078	2115.512	-984.738	1	2333.474	-24.96124	-2.526477E-006	0.0081103	8
	1	2	794390.6	2280.397	-912.335	1	2456.128	-21.80523	-1.389566E-006	0.0081916	8
	2	2	630984.4	2408.971	-823.4432	1	2545.82	-18.87164	1.660263E-006	0.0073118	8
	3	3	501234.4	2518.487	-737.1771	1	2624.158	-16.31509	-5.100523E-007	0.0074397	8
	4	3	398109.4	2607.951	-657.5919	1	2689.579	-14.15206	-6.657129E-007	0.0076745	8
	5	3	316265.6	2682.42	-595.0399	1	2747.626	-12.50736	6.008121E-007	0.0073594	8
	6	4	251203.1	2742.711	-538.1453	1	2795.007	-11.10094	1.118284E-007	0.0073764	8
	7	4	199546.9	2794.498	-504.0773	1	2839.597	-10.22518	5.465897E-007	0.0073452	8
	8	4	158578.1	2839.834	-481.5987	1	2880.381	-9.62504	-6.393494E-007	0.0076071	8
	9	4	125953.1	2901.291	-423.5622	1	2932.046	-8.305987	3.679308E-007	0.006078	7
	10	5	100078.1	2941.643	-416.0236	1	2970.915	-8.049706	-9.156737E-009	0.0073622	7
	11	5	79453.13	2985.486	-428.3464	1	3016.058	-8.164863	5.354662E-009	0.0073944	7
	12	5	63140.62	3033.322	-446.7303	1	3066.041	-8.377969	-3.097688E-008	0.0073836	7
	13	6	50203.12	3083.874	-470.7362	1	3119.595	-8.678888	5.125463E-008	0.0072244	7
	14	6	39890.62	3139.136	-499.758	1	3178.668	-9.045713	-5.140621E-008	0.0074029	7
	15	6	31640.63	3197.913	-535.1083	1	3242.374	-9.499323	-5.510365E-008	0.0073752	7
	16	7	25171.88	3260.494	-576.8956	1	3311.138	-10.03378	-5.118122E-008	0.0074009	7
	17	7	20015.62	3323.807	-629.3563	1	3382.866	-10.72191	8.520693E-009	0.0072491	7
	18	7	15890.62	3399.249	-683.082	1	3467.203	-11.36231	6.26187E-008	0.0071806	7
	19	8	12609.37	3475.742	-750.3202	1	3555.807	-12.1817	7.31576E-008	0.0072536	7
	20	8	10078.13	3553.22	-825.161	1	3647.776	-13.074	-2.246635E-008	0.0073019	7
	21	8	8015.625	3647.243	-920.2567	1	3761.549	-14.16105	-5.325336E-008	0.0073776	7
	22	9	6328.125	3728.878	-1031.958	1	3869.04	-15.4693	-2.967203E-008	0.0073771	7
	23	9	5015.625	3822.37	-1164.547	1	3995.833	-16.94421	5.057733E-009	0.0073828	7
	24	9	3984.375	3921.263	-1323.205	1	4138.499	-18.64664	9.601074E-008	0.0071578	7
	25	10	3170.956	4018.835	-1514.613	1	4294.774	-20.65036	5.508463E-010	0.0073032	7
	26	10	2527.573	4122.25	-1751.281	1	4478.832	-23.01753	9.639048E-008	0.0071646	7
	27	10	1976.103	4234.575	-2063.718	1	4710.686	-25.98226	9.527157E-008	0.0071629	7
	28	10	1577.524	4357.317	-2420.497	1	4984.478	-29.05224	6.689179E-009	0.0073768	7
	29	11	1265.625	4458.431	-2864.67	1	5299.429	-32.72191	-5.282831E-008	0.007465	7
	30	11	998.264	4594.861	-3457.235	1	5750.237	-36.95829	9.35639E-009	0.0072342	7
	31	11	796.875	4740.078	-4151.028	1	6300.744	-41.2096	-1.444652E-008	0.0073324	7
	32	12	627.7902	4918.681	-5064.955	1	7060.254	-45.83941	9.418893E-009	0.0072412	7
	33	12	505.5147	5116.738	-6098.733	1	7960.876	-50.0039	-2.835062E-008	0.0073014	7
	34	12	397.9953	5375.86	-7502.457	1	9229.666	-54.37664	1.200708E-009	0.0073182	7
	35	13	315.5048	5692.857	-9194.938	1	10814.6	-58.23713	8.901859E-010	0.00726	6
	36	13	252.4038	6064.853	-11196.05	1	12733.19	-61.55579	-3.564857E-011	0.0072585	6
	37	13	198.6229	6569.572	-13848.73	1	15327.97	-64.62124	1.940943E-010	0.00726	6
	38	14	158.3615	7176.1	-16932.1	1	18390.01	-67.03198	8.247795E-010	0.0072589	6
	39	14	125.558	7978.523	-20818.24	1	22294.75	-69.03083	1.103679E-010	0.0072625	6
	40	14	100.4464	8950.776	-25343.67	1	26877.83	-70.548	1.061376E-009	0.0072619	6
	41	15	79.00281	10267.84	-31332.9	1	32972.4	-71.85596	1.493173E-010	0.0072578	6
	42	15	63.3446	12432.86	-38163.07	1	40137.21	-71.95529	-1.304748E-011	0.0072537	6
	43	15	49.86702	14623.25	-47145.64	1	49361.44	-72.76758	-7.222771E-010	0.0072511	6
	44	16	39.72458	17290.11	-57081.74	1	59642.87	-73.14839	3.364474E-010	0.0072556	6
	45	16	31.6723	20900.51	-69218.16	1	72304.8	-73.19824	3.479392E-011	0.0072497	6
	46	16	24.93351	26196.02	-84884.63	1	88834.86	-72.84939	-4.201221E-010	0.0072539	6
	47	17	19.86229	32628.73	-102509.9	1	107577.5	-72.34382	-7.79225E-010	0.0072618	5
	48	17	15.83615	40171.77	-124569.7	1	130886.9	-72.1263	-1.225026E-009	0.0072605	5
	49	17	12.40079	52731.36	-151540.2	1	160452.6	-70.81366	3.624772E-010	0.0072621	5
	50	18	9.93114	67066.8	-177934.9	1	190154.6	-69.34769	-7.725295E-011	0.0072639	5
	51	18	7.944915	84575.16	-209478	1	225907	-68.01398	-2.34539E-010	0.0072585	5
	52	19	6.317385	107306.3	-247454.5	1	269719.1	-66.5565	-2.251367E-010	0.0072678	5
	53	20	5.008013	135477.1	-290119.8	1	320192.9	-64.96886	-2.572192E-010	0.0072512	5
	54	21	3.945707	169391.4	-338032.7	1	378099.9	-63.38411	7.213274E-011	0.0072583	5
	55	22	3.158693	207875.2	-388408	1	440537	-61.8444	1.79395E-011	0.0072743	5
	56	24	2.504006	252919	-447196	1	513762.8	-60.50896	-1.62962E-010	0.0072625	5
	57	25	1.998082	300993.4	-508825.5	1	591185.6	-59.39376	7.651043E-011	0.0072831	5
	58	27	1.584686	357083.7	-581840.1	1	682676.1	-58.46195	1.354819E-010	0.0073068	5
	59	29	1.266892	414715.5	-662421.6	1	781531.4	-57.95098	6.223942E-011	0.0072805	5
	60	31	0.999041	482202.2	-759083.8	1	899292.6	-57.57456	5.078843E-011	0.0072477	5
