EXPLAIN
TAG	EISPOT
TITLE	LABEL	Potentiostatic EIS	Test &Identifier
DATE	LABEL	8/14/2018	Date
TIME	LABEL	5:57:54	Time
NOTES	NOTES	1	&Notes...
	
PSTAT	PSTAT	REF600-11020	Potentiostat
VDC	POTEN	0.00000E+000	T	DC &Voltage (V)
FREQINIT	QUANT	1.00000E+006	Initial Fre&q. (Hz)
FREQFINAL	QUANT	1.00000E+000	Final Fre&q. (Hz)
PTSPERDEC	QUANT	1.00000E+001	Points/&decade
VAC	QUANT	2.50000E+001	AC &Voltage (mV rms)
AREA	QUANT	1.00000E-002	&Area (cm^2)
CONDIT	TWOPARAM	T	5.00000E+000	0.00000E+000	Conditionin&g	Time(s)	E(V)
DELAY	TWOPARAM	T	5.00000E+000	0.00000E+000	Init. De&lay	Time(s)	Stab.(mV/s)
SPEED	SELECTOR	0	&Optimize for:
ZGUESS	QUANT	1.00000E+005	E&stimated Z (ohms)
OCVCURVE	TABLE	19
	Pt	T	Vf	Vm	Ach	Over
	#	s	V vs. Ref.	V	V	bits
	0	0.258333	5.42113E-002	5.42113E-002	5.56799E-004	...........
	1	0.516667	5.42949E-002	5.85882E-002	5.54666E-004	...........
	2	0.775	5.48057E-002	6.25981E-002	5.59366E-004	...........
	3	1.03333	5.62373E-002	6.62094E-002	5.57366E-004	...........
	4	1.29167	5.87581E-002	6.94756E-002	5.57966E-004	...........
	5	1.55	6.20290E-002	7.25221E-002	5.46266E-004	...........
	6	1.80833	6.55381E-002	7.53153E-002	5.51232E-004	...........
	7	2.06667	6.89308E-002	7.78751E-002	5.49499E-004	...........
	8	2.325	7.20647E-002	8.02656E-002	5.52133E-004	...........
	9	2.58333	7.49262E-002	8.25299E-002	5.57333E-004	...........
	10	2.84167	7.75516E-002	8.46582E-002	5.54799E-004	...........
	11	3.1	7.99847E-002	8.66169E-002	5.49599E-004	...........
	12	3.35833	8.22568E-002	8.84754E-002	5.52499E-004	...........
	13	3.61667	8.43857E-002	9.02793E-002	5.57499E-004	...........
	14	3.875	8.63864E-002	9.19504E-002	5.51499E-004	...........
	15	4.13333	8.82744E-002	9.35240E-002	5.46999E-004	...........
	16	4.39167	9.00604E-002	9.50600E-002	5.55733E-004	...........
	17	4.65	9.17521E-002	9.65193E-002	5.48599E-004	...........
	18	4.90833	9.33596E-002	9.79158E-002	5.51933E-004	...........
EOC	QUANT	0.0933596	Open Circuit (V)
PSTATMODEL	IQUANT	4	Pstat Model
PSTATSECTION	LABEL	REF600-11020	Pstat Section
PSTATSERIALNO	LABEL	11020	Pstat Serial Number
CTRLMODE	IQUANT	1	Control Mode
IESTAB	IQUANT	0	I/E Stability
CASPEED	IQUANT	1	Control Amp Speed
CONVENTION	IQUANT	1	Current Convention
ICHRANGE	IQUANT	2	Ich Range
ICHRANGEMODE	TOGGLE	F	Ich Auto Range
ICHOFFSETENABLE	TOGGLE	T	Ich Offset Enable
ICHOFFSET	QUANT	0	Ich Offset (V)
ICHFILTER	IQUANT	3	Ich Filter
VCHRANGE	IQUANT	2	Vch Range
VCHRANGEMODE	TOGGLE	F	Vch Auto Range
VCHOFFSETENABLE	TOGGLE	T	Vch Offset Enable
VCHOFFSET	QUANT	0	Vch Offset (V)
VCHFILTER	IQUANT	3	Vch Filter
ACHRANGE	IQUANT	2	Ach Range
ACHOFFSETENABLE	TOGGLE	F	Ach Offset Enable
ACHOFFSET	QUANT	0	Ach Offset (V)
ACHFILTER	IQUANT	3	Ach Filter
IERANGELOWERLIMIT	IQUANT	1	I/E Range Lower Limit
IERANGEMODE	TOGGLE	F	I/E AutoRange
IERANGE	IQUANT	6	I/E Range
POSFEEDENABLE	TOGGLE	F	Positive Feedback IR Comp
POSFEEDRESISTANCE	QUANT	0	Positive Feedback Resistance (ohm)
ACHSELECT	IQUANT	0	Ach Select
CABLEID	IQUANT	14	Cable ID
DCCALDATE	LABEL	8/19/2019	DC Calibration Date
ACCALDATE	LABEL	8/19/2019	AC Calibration Date
THERMOSELECT	IQUANT	1	Thermo Select
FRAMEWORKVERSION	QUANT	6.33	Framework Version
INSTRUMENTVERSION	LABEL	3.50	Instrument Version
ZCURVE	TABLE
	Pt	Time	Freq	Zreal	Zimag	Zsig	Zmod	Zphz	Idc	Vdc	IERange
	#	s	Hz	ohm	ohm	V	ohm	°	A	V	#
	0	2	1000078	1784.74	-1499.363	1	2330.963	-40.03367	-9.90518E-008	0.0954633	8
	1	2	794390.6	2070.712	-1629.679	1	2635.091	-38.20323	-1.186969E-006	0.0954061	8
	2	2	630984.4	2362.862	-1713.925	1	2919.016	-35.95562	3.755104E-007	0.0947462	8
	3	3	501234.4	2669.268	-1784.442	1	3210.798	-33.76327	4.018515E-006	0.0941328	8
	4	3	398109.4	2983.156	-1819.703	1	3494.358	-31.38288	-4.713698E-007	0.094846	8
	5	3	316265.6	3291.805	-1821.365	1	3762.094	-28.95588	1.042851E-006	0.0946524	8
	6	4	251203.1	3573.586	-1806.761	1	4004.361	-26.82059	3.48649E-007	0.0948822	8
	7	4	199546.9	3853.58	-1780.266	1	4244.929	-24.79586	9.860814E-008	0.0945992	8
	8	4	158578.1	4165.522	-1750.385	1	4518.343	-22.79253	-7.999191E-007	0.0951352	8
	9	5	125953.1	4436.907	-1646.339	1	4732.502	-20.35765	3.724627E-007	0.0941076	7
	10	5	100078.1	4680.428	-1585.253	1	4941.603	-18.71116	2.602305E-008	0.0946588	7
	11	5	79453.13	4882.906	-1609.862	1	5141.442	-18.24705	6.599255E-008	0.094658	7
	12	5	63140.62	5086.595	-1607.828	1	5334.656	-17.54129	-3.786689E-008	0.0948748	7
	13	6	50203.12	5295.88	-1621.773	1	5538.636	-17.02632	6.387666E-008	0.0946571	7
	14	6	39890.62	5499.815	-1648.972	1	5741.696	-16.68995	-5.266266E-008	0.0949422	7
	15	6	31640.63	5711.92	-1690.481	1	5956.825	-16.48647	-7.359591E-009	0.094725	7
	16	7	25171.88	5929.008	-1750.713	1	6182.082	-16.45078	3.414606E-008	0.0947216	7
	17	7	20015.62	6146.618	-1823.568	1	6411.42	-16.52448	2.379697E-008	0.0946485	7
	18	7	15890.62	6386.118	-1910.312	1	6665.718	-16.65376	-4.991885E-008	0.0947914	7
	19	8	12609.37	6628.667	-2008.621	1	6926.311	-16.85788	-1.056538E-008	0.0947053	7
	20	8	10078.13	6895.431	-2125.951	1	7215.722	-17.13521	-5.239139E-008	0.0947915	7
	21	8	8015.625	7135.723	-2265.567	1	7486.744	-17.61446	-6.829292E-008	0.0948367	7
	22	9	6328.125	7450.021	-2434.995	1	7837.858	-18.09967	-5.070272E-008	0.0947869	7
	23	9	5015.625	7763.383	-2628.498	1	8196.287	-18.70488	-6.932338E-008	0.0948374	7
	24	9	3984.375	8107.991	-2857.901	1	8596.925	-19.41651	-6.889222E-008	0.094871	7
	25	10	3170.956	8473.054	-3106.612	1	9024.615	-20.13527	-6.687202E-009	0.0947932	7
	26	10	2527.573	8895.579	-3349.633	1	9505.33	-20.63388	-1.216459E-008	0.094706	6
	27	10	1976.103	9386.571	-3688.214	1	10085.17	-21.45108	-6.229458E-009	0.0947572	6
	28	11	1577.524	9839.45	-3955.228	1	10604.65	-21.89896	-8.799319E-009	0.094801	6
	29	11	1265.625	10427.39	-4314.299	1	11284.66	-22.47717	-1.282703E-008	0.0947081	6
	30	11	998.264	11034.89	-4661.392	1	11979.04	-22.90032	-4.773484E-009	0.0945244	6
	31	12	796.875	11628.19	-5008.774	1	12661.07	-23.30368	-1.409799E-008	0.0948521	6
	32	12	627.7902	12249.23	-5414.845	1	13392.69	-23.8481	-1.503054E-008	0.0948047	6
	33	12	505.5147	12814.42	-5847.013	1	14085.34	-24.52645	-1.379203E-008	0.0948566	6
	34	13	397.9953	13438.39	-6421.882	1	14893.99	-25.54201	-6.670862E-009	0.0947251	6
	35	13	315.5048	14053.97	-7123.517	1	15756.23	-26.87901	-8.321407E-009	0.0947201	6
	36	13	252.4038	14674.58	-7961.229	1	16695.04	-28.48064	-8.586521E-009	0.0947207	6
	37	14	198.6229	15382.48	-9068.309	1	17856.51	-30.52028	-7.404522E-009	0.094719	6
	38	14	158.3615	16108.82	-10362.08	1	19153.77	-32.75135	-7.197452E-009	0.0947155	6
	39	14	125.558	16938.98	-11981.29	1	20748.02	-35.27257	-8.061679E-009	0.0947158	6
	40	14	100.4464	17827.56	-13835.76	1	22566.57	-37.81461	-7.902241E-009	0.0947122	6
	41	15	79.00281	18893.21	-16377.59	1	25003.58	-40.9204	-7.746465E-009	0.0947142	6
	42	15	63.3446	20360.61	-18978.28	1	27833.96	-42.98751	-9.077006E-009	0.0947148	6
	43	15	49.86702	21921.39	-22739.66	1	31585.44	-46.04964	-9.66912E-009	0.0947112	6
	44	16	39.72458	23611.05	-26875	1	35773.56	-48.69905	-7.992344E-009	0.0947164	6
	45	16	31.6723	25875.11	-31812.86	1	41007.06	-50.87669	-8.369735E-009	0.0947105	6
	46	17	24.93351	29018.22	-37876.82	1	47714.89	-52.54353	-8.129396E-009	0.0947081	6
	47	17	19.86229	32606.02	-44694.96	1	55324.43	-53.88837	-5.116197E-009	0.0947144	6
	48	17	15.83615	37519.9	-52054.8	1	64167.32	-54.2168	-1.302424E-008	0.0947094	6
	49	17	12.40079	42641.43	-61518.75	1	74852.18	-55.27242	-1.211201E-008	0.0947098	6
	50	18	9.93114	49345.98	-71817.52	1	87136.57	-55.50695	-9.221722E-009	0.0947051	6
	51	18	7.944915	57124.12	-83030.41	1	100783	-55.4724	-9.266169E-009	0.0947146	6
	52	19	6.317385	66131.53	-96128.1	1	116679	-55.47388	-9.83097E-009	0.0947333	5
	53	20	5.008013	77258.8	-110878.3	1	135140.4	-55.13164	-9.043248E-009	0.0947116	5
	54	21	3.945707	90140.55	-127547.1	1	156184.4	-54.75024	-8.250295E-009	0.0947101	5
	55	22	3.158693	103414.1	-145292.3	1	178337.6	-54.55803	-7.924693E-009	0.0947287	5
	56	24	2.504006	118920.8	-166229.9	1	204388.2	-54.42009	-8.196946E-009	0.0947189	5
	57	25	1.998082	134743.8	-189894.6	1	232843	-54.64157	-8.103306E-009	0.0946943	5
	58	26	1.584686	153169.2	-217938.7	1	266379.6	-54.90013	-7.751922E-009	0.0947436	5
	59	28	1.266892	173173.6	-251400.9	1	305272.8	-55.43959	-7.638408E-009	0.0947488	5
	60	31	0.999041	197026	-293987.5	1	353903.8	-56.1706	-7.524593E-009	0.0947379	5
