EXPLAIN
TAG	EISPOT
TITLE	LABEL	Potentiostatic EIS	Test &Identifier
DATE	LABEL	10/20/2019	Date
TIME	LABEL	11:21:45	Time
NOTES	NOTES	1	&Notes...
	
PSTAT	PSTAT	REF600-11020	Potentiostat
VDC	POTEN	0.00000E+000	T	DC &Voltage (V)
FREQINIT	QUANT	1.00000E+006	Initial Fre&q. (Hz)
FREQFINAL	QUANT	1.00000E+000	Final Fre&q. (Hz)
PTSPERDEC	QUANT	1.00000E+001	Points/&decade
VAC	QUANT	2.50000E+001	AC &Voltage (mV rms)
AREA	QUANT	1.00000E-002	&Area (cm^2)
CONDIT	TWOPARAM	T	5.00000E+000	0.00000E+000	Conditionin&g	Time(s)	E(V)
DELAY	TWOPARAM	T	5.00000E+000	0.00000E+000	Init. De&lay	Time(s)	Stab.(mV/s)
SPEED	SELECTOR	1	&Optimize for:
ZGUESS	QUANT	1.00000E+005	E&stimated Z (ohms)
OCVCURVE	TABLE	19
	Pt	T	Vf	Vm	Ach	Over
	#	s	V vs. Ref.	V	V	bits
	0	0.258333	3.76491E-003	3.76491E-003	5.53366E-004	...........
	1	0.516667	3.76031E-003	3.52407E-003	5.50299E-004	...........
	2	0.775	3.73229E-003	3.30823E-003	5.59999E-004	...........
	3	1.03333	3.65383E-003	3.10089E-003	5.53699E-004	...........
	4	1.29167	3.51514E-003	2.91134E-003	5.54833E-004	...........
	5	1.55	3.33310E-003	2.71652E-003	5.52432E-004	...........
	6	1.80833	3.13374E-003	2.55852E-003	5.55699E-004	...........
	7	2.06667	2.93667E-003	2.42294E-003	5.55733E-004	...........
	8	2.325	2.75317E-003	2.28946E-003	5.51499E-004	...........
	9	2.58333	2.58800E-003	2.17209E-003	5.55533E-004	...........
	10	2.84167	2.44071E-003	2.06524E-003	5.59499E-004	...........
	11	3.1	2.30764E-003	1.92170E-003	5.54833E-004	...........
	12	3.35833	2.18328E-003	1.82001E-003	5.54833E-004	...........
	13	3.61667	2.06265E-003	1.70597E-003	5.58999E-004	...........
	14	3.875	1.94475E-003	1.62353E-003	5.59499E-004	...........
	15	4.13333	1.83208E-003	1.52368E-003	5.59732E-004	...........
	16	4.39167	1.72645E-003	1.42360E-003	5.63166E-004	...........
	17	4.65	1.62640E-003	1.32396E-003	5.65832E-004	...........
	18	4.90833	1.52993E-003	1.29740E-003	5.57333E-004	...........
EOC	QUANT	0.0015299	Open Circuit (V)
PSTATMODEL	IQUANT	4	Pstat Model
PSTATSECTION	LABEL	REF600-11020	Pstat Section
PSTATSERIALNO	LABEL	11020	Pstat Serial Number
CTRLMODE	IQUANT	1	Control Mode
IESTAB	IQUANT	0	I/E Stability
CASPEED	IQUANT	1	Control Amp Speed
CONVENTION	IQUANT	1	Current Convention
ICHRANGE	IQUANT	2	Ich Range
ICHRANGEMODE	TOGGLE	F	Ich Auto Range
ICHOFFSETENABLE	TOGGLE	T	Ich Offset Enable
ICHOFFSET	QUANT	0	Ich Offset (V)
ICHFILTER	IQUANT	3	Ich Filter
VCHRANGE	IQUANT	2	Vch Range
VCHRANGEMODE	TOGGLE	F	Vch Auto Range
VCHOFFSETENABLE	TOGGLE	T	Vch Offset Enable
VCHOFFSET	QUANT	0	Vch Offset (V)
VCHFILTER	IQUANT	3	Vch Filter
ACHRANGE	IQUANT	2	Ach Range
ACHOFFSETENABLE	TOGGLE	F	Ach Offset Enable
ACHOFFSET	QUANT	0	Ach Offset (V)
ACHFILTER	IQUANT	3	Ach Filter
IERANGELOWERLIMIT	IQUANT	1	I/E Range Lower Limit
IERANGEMODE	TOGGLE	F	I/E AutoRange
IERANGE	IQUANT	4	I/E Range
POSFEEDENABLE	TOGGLE	F	Positive Feedback IR Comp
POSFEEDRESISTANCE	QUANT	0	Positive Feedback Resistance (ohm)
ACHSELECT	IQUANT	0	Ach Select
CABLEID	IQUANT	14	Cable ID
DCCALDATE	LABEL	8/19/2019	DC Calibration Date
ACCALDATE	LABEL	8/19/2019	AC Calibration Date
THERMOSELECT	IQUANT	1	Thermo Select
FRAMEWORKVERSION	QUANT	6.33	Framework Version
INSTRUMENTVERSION	LABEL	3.50	Instrument Version
ZCURVE	TABLE
	Pt	Time	Freq	Zreal	Zimag	Zsig	Zmod	Zphz	Idc	Vdc	IERange
	#	s	Hz	ohm	ohm	V	ohm	°	A	V	#
	0	1	1000078	2224.116	-936.6783	1	2413.309	-22.83821	8.066248E-007	0.0041426	8
	1	3	794390.6	2357.413	-859.2602	1	2509.128	-20.02644	-7.583392E-007	0.0036097	8
	2	4	630984.4	2485.206	-771.2823	1	2602.138	-17.2417	3.575516E-006	0.0025502	8
	3	6	501234.4	2587.699	-686.4296	1	2677.195	-14.85649	-9.327246E-007	0.0031712	8
	4	7	398109.4	2670.469	-614.9603	1	2740.362	-12.96809	1.345077E-006	0.0028461	8
	5	9	316265.6	2729.975	-539.2504	1	2782.725	-11.17376	-3.306351E-006	0.0035595	8
	6	10	251203.1	2784.609	-489.581	1	2827.32	-9.97165	2.512351E-008	0.0030163	8
	7	12	199546.9	2833.877	-452.2471	1	2869.736	-9.067149	-1.446713E-006	0.0033778	8
	8	13	158578.1	2871.464	-417.8464	1	2901.707	-8.279389	2.579135E-006	0.0025494	8
	9	15	125953.1	2933.744	-362.1612	1	2956.013	-7.037376	3.407044E-007	0.0023486	7
	10	16	100078.1	2960.008	-357.2016	1	2981.482	-6.880948	8.279641E-008	0.0030072	7
	11	17	79453.13	2997.117	-369.373	1	3019.793	-7.025861	1.171327E-008	0.002976	7
	12	19	63140.62	3037.176	-386.5308	1	3061.673	-7.252845	1.236183E-008	0.002981	7
	13	20	50203.12	3081.083	-407.6343	1	3107.932	-7.536592	-2.100678E-008	0.0031986	7
	14	22	39890.62	3129.993	-434.7198	1	3160.038	-7.907135	1.042565E-008	0.0029767	7
	15	23	31640.63	3182.353	-466.425	1	3216.353	-8.338248	-5.409251E-008	0.00321	7
	16	24	25171.88	3237.862	-502.6986	1	3276.653	-8.825075	8.277141E-008	0.0028727	7
	17	26	20015.62	3312.091	-536.5563	1	3355.271	-9.201931	-3.405544E-008	0.003064	7
	18	27	15890.62	3364.307	-592.4395	1	3416.071	-9.98714	-4.076725E-008	0.0030657	7
	19	28	12609.37	3435.599	-647.8748	1	3496.152	-10.67925	1.167266E-008	0.0029733	7
	20	30	10078.13	3507.992	-708.5087	1	3578.825	-11.41842	1.389588E-007	0.0028329	7
	21	31	8015.625	3589.033	-797.6895	1	3676.611	-12.53073	-4.239717E-008	0.0030641	7
	22	32	6328.125	3668.774	-868.2213	1	3770.107	-13.3142	7.094793E-008	0.0029242	7
	23	34	5015.625	3754.386	-969.307	1	3877.496	-14.4765	8.254797E-008	0.0029973	7
	24	35	3984.375	3841.442	-1087.706	1	3992.466	-15.80949	-9.881806E-009	0.0030842	7
	25	37	3170.956	3928.716	-1236.731	1	4118.776	-17.47361	-7.531889E-008	0.0031673	7
	26	38	2527.573	4017.737	-1414.9	1	4259.595	-19.40039	-4.011877E-008	0.0030655	7
	27	39	1976.103	4119.564	-1658.619	1	4440.926	-21.9307	-7.738635E-008	0.0031698	7
	28	41	1577.524	4205.478	-1986.626	1	4651.1	-25.28558	4.610012E-011	0.0030517	7
	29	42	1265.625	4318.097	-2266.144	1	4876.615	-27.69056	3.286619E-008	0.0030111	7
	30	43	998.264	4438.359	-2713.34	1	5202.042	-31.43905	8.460275E-008	0.0028699	7
	31	45	796.875	4569.318	-3241.996	1	5602.607	-35.35624	-1.058505E-008	0.0030859	7
	32	46	627.7902	4724.455	-3938.303	1	6150.667	-39.81456	-8.639135E-009	0.0030776	7
	33	47	505.5147	4898.17	-4711.652	1	6796.45	-43.88808	3.913873E-008	0.002899	7
	34	49	397.9953	5119.775	-5775.286	1	7717.903	-48.4431	3.65383E-009	0.0030572	7
	35	50	315.5048	5385.35	-7051.477	1	8872.729	-52.63033	4.333972E-009	0.0030557	7
	36	52	252.4038	5708.16	-8557.242	1	10286.37	-56.29449	-5.599035E-011	0.0029933	6
	37	53	198.6229	6143.123	-10548.31	1	12206.75	-59.78434	7.707044E-010	0.0029956	6
	38	54	158.3615	6668.247	-12848.61	1	14475.92	-62.57132	6.808012E-010	0.0029893	6
	39	56	125.558	7362.2	-15741	1	17377.6	-64.93411	5.368231E-010	0.0029937	6
	40	57	100.4464	8186.784	-19116.37	1	20795.65	-66.81647	-1.38303E-010	0.0029904	6
	41	58	79.00281	9363.696	-23450.36	1	25250.7	-68.23324	2.025354E-009	0.0029891	6
	42	60	63.3446	11038.48	-28060.18	1	30153.31	-68.52602	3.164848E-011	0.0029916	6
	43	61	49.86702	12768.85	-35028.34	1	37283.09	-69.97173	1.403321E-010	0.0029845	6
	44	63	39.72458	15081.09	-42026.86	1	44650.82	-70.25977	7.15988E-010	0.0029878	6
	45	64	31.6723	18120.54	-50458.77	1	53613.82	-70.24599	9.573507E-011	0.0029852	6
	46	66	24.93351	22109.78	-61448.38	1	65305.02	-70.21073	6.176551E-010	0.0029842	6
	47	67	19.86229	27007.41	-73753.74	1	78543.08	-69.8881	1.090666E-009	0.0029912	6
	48	68	15.83615	32350.31	-89295.58	1	94974.96	-70.08538	-2.133183E-009	0.002989	6
	49	70	12.40079	40139.22	-106553.2	1	113862.9	-69.35832	-1.657403E-010	0.0029956	5
	50	71	9.93114	50321.43	-126173.8	1	135838.4	-68.25659	9.784928E-010	0.002996	5
	51	73	7.944915	61156.96	-148930.1	1	160998	-67.67489	5.345787E-010	0.0030001	5
	52	75	6.317385	74683.52	-175819	1	191023.4	-66.98543	6.909743E-010	0.0030023	5
	53	77	5.008013	91619.56	-207996.2	1	227280.8	-66.22715	5.080359E-010	0.0030034	5
	54	79	3.945707	112684	-246609	1	271134	-65.44274	3.709942E-010	0.0029975	5
	55	82	3.158693	136358.7	-287506.1	1	318203.5	-64.62591	1.96728E-010	0.0030066	5
	56	85	2.504006	165275.1	-336984.9	1	375332.7	-63.87423	1.656051E-010	0.0029914	5
	57	88	1.998082	198105.4	-391743.9	1	438986.4	-63.17422	-4.48282E-011	0.0030164	5
	58	91	1.584686	238063.3	-456730.2	1	515050.1	-62.46994	2.292673E-010	0.0030387	5
	59	95	1.266892	282463.8	-527182.8	1	598086.4	-61.81766	-2.403353E-011	0.0030322	5
	60	99	0.999041	335001	-613420.4	1	698935.1	-61.36018	2.423949E-010	0.0029804	5
