EXPLAIN
TAG	EISPOT
TITLE	LABEL	Potentiostatic EIS	Test &Identifier
DATE	LABEL	8/16/2017	Date
TIME	LABEL	17:02:18	Time
NOTES	NOTES	1	&Notes...
	
PSTAT	PSTAT	REF600-11020	Potentiostat
VDC	POTEN	0.00000E+000	T	DC &Voltage (V)
FREQINIT	QUANT	1.00000E+006	Initial Fre&q. (Hz)
FREQFINAL	QUANT	1.00000E+000	Final Fre&q. (Hz)
PTSPERDEC	QUANT	1.00000E+001	Points/&decade
VAC	QUANT	2.50000E+001	AC &Voltage (mV rms)
AREA	QUANT	1.00000E-002	&Area (cm^2)
CONDIT	TWOPARAM	T	5.00000E+000	0.00000E+000	Conditionin&g	Time(s)	E(V)
DELAY	TWOPARAM	T	5.00000E+000	0.00000E+000	Init. De&lay	Time(s)	Stab.(mV/s)
SPEED	SELECTOR	0	&Optimize for:
ZGUESS	QUANT	1.00000E+005	E&stimated Z (ohms)
OCVCURVE	TABLE	19
	Pt	T	Vf	Vm	Ach	Over
	#	s	V vs. Ref.	V	V	bits
	0	0.258333	5.69144E-003	5.69144E-003	5.65899E-004	...........
	1	0.516667	5.68937E-003	5.58278E-003	5.62366E-004	...........
	2	0.775	5.67679E-003	5.48868E-003	5.65632E-004	...........
	3	1.03333	5.64112E-003	5.36432E-003	5.64066E-004	...........
	4	1.29167	5.57789E-003	5.36626E-003	5.57366E-004	...........
	5	1.55	5.49987E-003	5.34727E-003	5.57199E-004	...........
	6	1.80833	5.42934E-003	5.33494E-003	5.57532E-004	...........
	7	2.06667	5.38033E-003	5.32929E-003	5.63599E-004	...........
	8	2.325	5.35206E-003	5.31757E-003	5.63132E-004	...........
	9	2.58333	5.33670E-003	5.31640E-003	5.63066E-004	...........
	10	2.84167	5.32767E-003	5.31865E-003	5.65266E-004	...........
	11	3.1	5.32209E-003	5.32142E-003	5.65066E-004	...........
	12	3.35833	5.31942E-003	5.32311E-003	5.63532E-004	...........
	13	3.61667	5.31943E-003	5.33340E-003	5.61799E-004	...........
	14	3.875	5.32170E-003	5.33790E-003	5.62766E-004	...........
	15	4.13333	5.32606E-003	5.35356E-003	5.57333E-004	...........
	16	4.39167	5.33254E-003	5.36215E-003	5.61499E-004	...........
	17	4.65	5.34111E-003	5.37868E-003	5.61799E-004	...........
	18	4.90833	5.35151E-003	5.38630E-003	5.55666E-004	...........
EOC	QUANT	0.0053515	Open Circuit (V)
PSTATMODEL	IQUANT	4	Pstat Model
PSTATSECTION	LABEL	REF600-11020	Pstat Section
PSTATSERIALNO	LABEL	11020	Pstat Serial Number
CTRLMODE	IQUANT	1	Control Mode
IESTAB	IQUANT	0	I/E Stability
CASPEED	IQUANT	1	Control Amp Speed
CONVENTION	IQUANT	1	Current Convention
ICHRANGE	IQUANT	2	Ich Range
ICHRANGEMODE	TOGGLE	F	Ich Auto Range
ICHOFFSETENABLE	TOGGLE	T	Ich Offset Enable
ICHOFFSET	QUANT	0	Ich Offset (V)
ICHFILTER	IQUANT	3	Ich Filter
VCHRANGE	IQUANT	2	Vch Range
VCHRANGEMODE	TOGGLE	F	Vch Auto Range
VCHOFFSETENABLE	TOGGLE	T	Vch Offset Enable
VCHOFFSET	QUANT	0	Vch Offset (V)
VCHFILTER	IQUANT	3	Vch Filter
ACHRANGE	IQUANT	2	Ach Range
ACHOFFSETENABLE	TOGGLE	F	Ach Offset Enable
ACHOFFSET	QUANT	0	Ach Offset (V)
ACHFILTER	IQUANT	3	Ach Filter
IERANGELOWERLIMIT	IQUANT	1	I/E Range Lower Limit
IERANGEMODE	TOGGLE	F	I/E AutoRange
IERANGE	IQUANT	5	I/E Range
POSFEEDENABLE	TOGGLE	F	Positive Feedback IR Comp
POSFEEDRESISTANCE	QUANT	0	Positive Feedback Resistance (ohm)
ACHSELECT	IQUANT	0	Ach Select
CABLEID	IQUANT	14	Cable ID
DCCALDATE	LABEL	8/19/2019	DC Calibration Date
ACCALDATE	LABEL	8/19/2019	AC Calibration Date
THERMOSELECT	IQUANT	1	Thermo Select
FRAMEWORKVERSION	QUANT	6.33	Framework Version
INSTRUMENTVERSION	LABEL	3.50	Instrument Version
ZCURVE	TABLE
	Pt	Time	Freq	Zreal	Zimag	Zsig	Zmod	Zphz	Idc	Vdc	IERange
	#	s	Hz	ohm	ohm	V	ohm	°	A	V	#
	0	2	1000078	2112.273	-1461.761	1	2568.743	-34.68448	1.073514E-005	0.0074321	8
	1	2	794390.6	2420.489	-1411.464	1	2801.963	-30.24782	-5.614068E-007	0.0064398	8
	2	2	630984.4	2665.803	-1332.807	1	2980.416	-26.56343	-2.990065E-006	0.0069023	8
	3	3	501234.4	2899.229	-1218.184	1	3144.758	-22.79093	4.891988E-006	0.0068703	8
	4	3	398109.4	3079.702	-1093.284	1	3268.002	-19.5447	-3.492823E-006	0.0074562	8
	5	3	316265.6	3229.607	-980.878	1	3375.275	-16.89429	-4.589701E-006	0.0071936	8
	6	3	251203.1	3355.263	-859.9748	1	3463.719	-14.3758	-7.141689E-007	0.0072629	8
	7	4	199546.9	3445.379	-757.4006	1	3527.647	-12.39817	-6.054027E-006	0.0076858	8
	8	4	158578.1	3539.68	-686.8743	1	3605.708	-10.98175	4.057963E-006	0.0067748	8
	9	4	125953.1	3601.784	-547.6351	1	3643.179	-8.645351	-3.248304E-006	0.0108585	7
	10	5	100078.1	3665.512	-513.4786	1	3701.303	-7.974315	1.045543E-006	0.0060444	7
	11	5	79453.13	3705.556	-481.3497	1	3736.689	-7.401246	4.062999E-007	0.0073149	7
	12	5	63140.62	3754.335	-463.4264	1	3782.829	-7.036863	1.046082E-006	0.0060365	7
	13	6	50203.12	3790.18	-449.9009	1	3816.788	-6.769433	-3.206804E-007	0.0058968	7
	14	6	39890.62	3837.862	-449.3521	1	3864.078	-6.678013	4.980811E-007	0.0050514	7
	15	6	31640.63	3876.565	-460.7663	1	3903.852	-6.778342	-2.981164E-007	0.0081658	7
	16	7	25171.88	3928.099	-479.2579	1	3957.228	-6.956141	4.9855E-007	0.0050537	7
	17	7	20015.62	3979.254	-505.7892	1	4011.27	-7.243824	1.187998E-007	0.0053633	7
	18	7	15890.62	4016.382	-541.9088	1	4052.776	-7.684206	-1.271336E-006	0.0082818	7
	19	8	12609.37	4079.382	-592.4681	1	4122.181	-8.263561	8.58399E-007	0.0065479	7
	20	8	10078.13	4114.299	-648.2983	1	4165.063	-8.954583	-1.272221E-006	0.0082767	7
	21	8	8015.625	4192.523	-718.9202	1	4253.716	-9.73026	4.055123E-007	0.0073069	7
	22	9	6328.125	4243.134	-810.2891	1	4319.81	-10.81131	-1.261341E-006	0.0078892	7
	23	9	5015.625	4309.243	-922.654	1	4406.911	-12.08516	-1.134898E-006	0.0084419	7
	24	9	3984.375	4388.466	-1065.119	1	4515.873	-13.64239	1.122821E-006	0.0052526	7
	25	9	3170.956	4453.185	-1228.689	1	4619.582	-15.42484	7.55345E-008	0.0077471	7
	26	10	2527.573	4535.949	-1437.606	1	4758.313	-17.58529	1.046253E-006	0.0060237	7
	27	10	1976.103	4622.376	-1714.159	1	4929.98	-20.34677	8.043104E-007	0.0049298	7
	28	10	1577.524	4687.517	-2001.347	1	5096.882	-23.12018	5.02352E-007	0.0050445	7
	29	11	1265.625	4805.979	-2407.606	1	5375.314	-26.60906	1.210188E-007	0.0053514	7
	30	11	998.264	4925.569	-2915.002	1	5723.501	-30.61748	4.050249E-007	0.0072982	7
	31	11	796.875	5056.189	-3511.641	1	6156.027	-34.78088	8.574582E-007	0.0065283	7
	32	12	627.7902	5214.418	-4294.194	1	6755.017	-39.47224	1.13926E-006	0.0055862	7
	33	12	505.5147	5381.851	-5166.048	1	7460.052	-43.82793	1.046366E-006	0.0060233	7
	34	12	397.9953	5608.093	-6330.395	1	8457.222	-48.46229	1.862429E-009	0.0067789	7
	35	13	315.5048	5877.806	-7755.276	1	9731.03	-52.84113	1.01663E-009	0.0067883	7
	36	13	252.4038	6203.754	-9439.863	1	11295.91	-56.68761	1.026374E-009	0.0067182	6
	37	13	198.6229	6639.783	-11673.32	1	13429.56	-60.36878	-9.461976E-011	0.0067295	6
	38	14	158.3615	7171.891	-14276.93	1	15977.07	-63.32774	8.540314E-010	0.0067217	6
	39	14	125.558	7871.075	-17550.11	1	19234.35	-65.84417	6.168657E-010	0.0067268	6
	40	14	100.4464	8734.486	-21367.61	1	23083.89	-67.76662	-6.9217E-010	0.0067281	6
	41	15	79.00281	10022.23	-26393.4	1	28232.2	-69.20699	-7.48977E-010	0.0067277	6
	42	15	63.3446	11450.2	-32411.8	1	34374.88	-70.54308	1.113344E-009	0.0067189	6
	43	15	49.86702	13544.52	-39683.23	1	41931.04	-71.15441	-1.499403E-010	0.0067151	6
	44	16	39.72458	16424.83	-48038.07	1	50768.4	-71.12379	4.899847E-010	0.0067074	6
	45	16	31.6723	20117.12	-58126.61	1	61509.36	-70.90971	4.287044E-010	0.0067147	6
	46	16	24.93351	25071.47	-70729.61	1	75041.7	-70.48215	3.391322E-010	0.0067173	6
	47	17	19.86229	31189.38	-84889.98	1	90438.3	-69.82619	1.6723E-009	0.0067163	6
	48	17	15.83615	40001.4	-101772.1	1	109351.1	-68.54275	-1.943409E-009	0.0067131	5
	49	17	12.40079	50571.11	-120632.3	1	130803.6	-67.25574	1.79782E-009	0.0067262	5
	50	18	9.93114	63128.73	-143131	1	156434.4	-66.19985	-5.681302E-010	0.0067201	5
	51	18	7.944915	78829.54	-166363.7	1	184095	-64.6466	-1.048585E-009	0.0067216	5
	52	19	6.317385	98522.9	-192910.7	1	216613.3	-62.9458	-6.225733E-010	0.0067351	5
	53	20	5.008013	121732.8	-222379.7	1	253518.4	-61.30328	-2.615987E-010	0.0067302	5
	54	21	3.945707	148275.4	-255290.6	1	295226.8	-59.85153	-5.677509E-011	0.0067117	5
	55	22	3.158693	175395.2	-289806.1	1	338749.3	-58.81702	8.721013E-011	0.0067341	5
	56	24	2.504006	206280	-330165.8	1	389308.2	-58.0038	-7.777776E-011	0.0067269	5
	57	25	1.998082	237865.9	-376050.5	1	444965.4	-57.68513	-1.484618E-010	0.0066876	5
	58	27	1.584686	273071.2	-429885.5	1	509283.2	-57.57554	-9.956855E-012	0.0067388	5
	59	29	1.266892	311479.1	-493708.4	1	583752.8	-57.7523	4.658143E-011	0.0067607	5
	60	31	0.999041	355545.9	-575507.9	1	676477.8	-58.29243	4.306501E-011	0.0067587	5
