EXPLAIN
TAG	EISPOT
TITLE	LABEL	Potentiostatic EIS	Test &Identifier
DATE	LABEL	11/11/2019	Date
TIME	LABEL	14:04:56	Time
NOTES	NOTES	3	&Notes...
	
	
	
PSTAT	PSTAT	REF600-11020	Potentiostat
VDC	POTEN	0.00000E+000	T	DC &Voltage (V)
FREQINIT	QUANT	1.00000E+006	Initial Fre&q. (Hz)
FREQFINAL	QUANT	1.00000E+000	Final Fre&q. (Hz)
PTSPERDEC	QUANT	1.00000E+001	Points/&decade
VAC	QUANT	2.50000E+001	AC &Voltage (mV rms)
AREA	QUANT	1.00000E-002	&Area (cm^2)
CONDIT	TWOPARAM	T	5.00000E+000	0.00000E+000	Conditionin&g	Time(s)	E(V)
DELAY	TWOPARAM	T	5.00000E+000	0.00000E+000	Init. De&lay	Time(s)	Stab.(mV/s)
SPEED	SELECTOR	1	&Optimize for:
ZGUESS	QUANT	1.00000E+005	E&stimated Z (ohms)
OCVCURVE	TABLE	19
	Pt	T	Vf	Vm	Ach	Over
	#	s	V vs. Ref.	V	V	bits
	0	0.258333	-1.78764E-002	-1.78764E-002	5.22333E-004	...........
	1	0.516667	-1.78026E-002	-1.40147E-002	5.21666E-004	...........
	2	0.775	-1.72450E-002	-4.87710E-003	5.20166E-004	...........
	3	1.03333	-1.56171E-002	-1.16771E-002	5.26133E-004	...........
	4	1.29167	-1.30594E-002	-4.09038E-003	5.26300E-004	...........
	5	1.55	-1.05210E-002	-1.02351E-002	5.28066E-004	...........
	6	1.80833	-9.07384E-003	-2.27887E-002	5.27666E-004	...........
	7	2.06667	-9.99343E-003	-3.27585E-002	5.29700E-004	.........v.
	8	2.325	-1.41868E-002	-3.37736E-002	5.17833E-004	...........
	9	2.58333	-2.01607E-002	-6.44961E-003	5.19233E-004	...........
	10	2.84167	-2.42584E-002	-3.20615E-002	5.19166E-004	.........v.
	11	3.1	-2.39998E-002	2.32956E-002	5.21400E-004	...........
	12	3.35833	-1.95750E-002	-2.68048E-002	5.19533E-004	.........v.
	13	3.61667	-1.37403E-002	-1.41856E-002	5.17033E-004	...........
	14	3.875	-1.03616E-002	-2.99049E-003	5.26100E-004	...........
	15	4.13333	-9.88967E-003	-5.82273E-003	5.19000E-004	...........
	16	4.39167	-9.36198E-003	2.59438E-003	5.20100E-004	...........
	17	4.65	-7.30610E-003	-5.32597E-003	5.20966E-004	...........
	18	4.90833	-5.13916E-003	-2.13322E-002	5.25533E-004	...........
EOC	QUANT	-0.0051392	Open Circuit (V)
PSTATMODEL	IQUANT	4	Pstat Model
PSTATSECTION	LABEL	REF600-11020	Pstat Section
PSTATSERIALNO	LABEL	11020	Pstat Serial Number
CTRLMODE	IQUANT	1	Control Mode
IESTAB	IQUANT	0	I/E Stability
CASPEED	IQUANT	1	Control Amp Speed
CONVENTION	IQUANT	1	Current Convention
ICHRANGE	IQUANT	2	Ich Range
ICHRANGEMODE	TOGGLE	F	Ich Auto Range
ICHOFFSETENABLE	TOGGLE	T	Ich Offset Enable
ICHOFFSET	QUANT	0	Ich Offset (V)
ICHFILTER	IQUANT	3	Ich Filter
VCHRANGE	IQUANT	2	Vch Range
VCHRANGEMODE	TOGGLE	F	Vch Auto Range
VCHOFFSETENABLE	TOGGLE	T	Vch Offset Enable
VCHOFFSET	QUANT	0	Vch Offset (V)
VCHFILTER	IQUANT	3	Vch Filter
ACHRANGE	IQUANT	2	Ach Range
ACHOFFSETENABLE	TOGGLE	F	Ach Offset Enable
ACHOFFSET	QUANT	0	Ach Offset (V)
ACHFILTER	IQUANT	3	Ach Filter
IERANGELOWERLIMIT	IQUANT	1	I/E Range Lower Limit
IERANGEMODE	TOGGLE	F	I/E AutoRange
IERANGE	IQUANT	4	I/E Range
POSFEEDENABLE	TOGGLE	F	Positive Feedback IR Comp
POSFEEDRESISTANCE	QUANT	0	Positive Feedback Resistance (ohm)
ACHSELECT	IQUANT	0	Ach Select
CABLEID	IQUANT	14	Cable ID
DCCALDATE	LABEL	8/19/2019	DC Calibration Date
ACCALDATE	LABEL	8/19/2019	AC Calibration Date
THERMOSELECT	IQUANT	1	Thermo Select
FRAMEWORKVERSION	QUANT	6.33	Framework Version
INSTRUMENTVERSION	LABEL	3.50	Instrument Version
ZCURVE	TABLE
	Pt	Time	Freq	Zreal	Zimag	Zsig	Zmod	Zphz	Idc	Vdc	IERange
	#	s	Hz	ohm	ohm	V	ohm	°	A	V	#
	0	2	1000078	995.63	-9485.555	1	9537.66	-84.00802	-6.994789E-006	-0.0019471	8
	1	3	794390.6	1157.073	-11767.99	1	11824.74	-84.38451	-1.770213E-006	-0.0035832	8
	2	5	630984.4	1247.427	-14772.24	1	14824.82	-85.17316	-1.859552E-006	-0.0033257	8
	3	7	501234.4	1621.607	-18320.18	1	18391.81	-84.94166	2.814533E-007	-0.0039067	8
	4	8	398109.4	1573.636	-22920.6	1	22974.55	-86.07246	-1.337031E-006	-0.0038892	8
	5	10	316265.6	2185.505	-28469.61	1	28553.38	-85.61023	8.773657E-008	-0.0039625	8
	6	11	251203.1	2996.845	-35548.66	1	35674.76	-85.18121	-1.851275E-006	-0.0035664	8
	7	13	199546.9	2554.803	-44212.67	1	44286.42	-86.69287	6.059003E-007	-0.0033957	8
	8	15	158578.1	6941.496	-57251.92	1	57671.19	-83.08693	-4.393755E-007	-0.0039706	8
	9	16	125953.1	5361.507	-69668.95	1	69874.95	-85.59937	-3.372119E-007	-0.0003563	7
	10	18	100078.1	6919.854	-86854.66	1	87129.88	-85.44477	2.966929E-007	-0.0029599	7
	11	19	79453.13	7857.818	-108495	1	108779.2	-85.85755	2.967531E-007	-0.0029679	7
	12	21	63140.62	9285.637	-134891.4	1	135210.7	-86.0621	-7.058939E-007	-0.0041219	7
	13	23	50203.12	12123.48	-169024.3	1	169458.5	-85.89742	2.99336E-007	-0.0029698	7
	14	25	39890.62	12679.33	-209563.7	1	209946.9	-86.53763	-7.862863E-007	-0.0019592	7
	15	26	31640.63	19916.64	-262057.4	1	262813.2	-85.65382	-4.369434E-007	-0.0021747	7
	16	28	25171.88	24769.18	-326184.8	1	327123.9	-85.65752	9.73811E-007	-0.0057828	7
	17	30	20015.62	24726.9	-387779.4	1	388567	-86.35146	1.253387E-006	-0.0053099	7
	18	32	15890.62	43656.69	-511355.4	1	513215.6	-85.12024	1.225997E-006	-0.0048845	7
	19	33	12609.37	58035.03	-635550.3	1	638194.6	-84.78253	2.060253E-007	-0.0044654	6
	20	35	10078.13	67784.67	-793647.3	1	796536.8	-85.11827	2.516207E-007	-0.0070879	6
	21	37	8015.625	89217.33	-953076	1	957242	-84.65213	2.426886E-007	-0.0055396	6
	22	38	6328.125	124926.8	-1220892	1	1227267	-84.15759	2.513168E-007	-0.0070926	6
	23	40	5015.625	135986.5	-1528141	1	1534179	-84.91475	-4.175794E-008	-0.0061059	6
	24	42	3984.375	101498.1	-1854128	1	1856904	-86.86666	-1.23707E-007	-0.0049337	6
	25	43	3170.956	222404	-2373719	1	2384115	-84.64734	7.00533E-008	-0.0020589	6
	26	45	2527.573	305444.9	-2938483	1	2954315	-84.06562	-1.371648E-008	-0.0010254	6
	27	47	1976.103	616032.1	-3982163	1	4029531	-81.20618	-4.114587E-008	-0.006111	6
	28	49	1577.524	-253157.5	-3023391	1	3033971	-94.78638	1.459959E-007	-0.0032442	6
	29	51	1265.625	926961.2	-5528348	1	5605523	-80.48152	-1.466884E-008	0.0002258	5
	30	52	998.264	1172242	-7057381	1	7154074	-80.56918	1.122612E-008	-0.0026671	5
	31	54	796.875	1965093	-8631116	1	8851991	-77.1738	-5.243289E-009	-0.0005113	5
	32	56	627.7902	2021960	-1.100008E+007	1	1.118437E+007	-79.58454	2.06978E-008	-0.00778	5
	33	57	505.5147	3244421	-1.245303E+007	1	1.286873E+007	-75.39719	1.499017E-008	-0.0077117	5
	34	59	397.9953	3967285	-1.729339E+007	1	1.774263E+007	-77.07932	2.66502E-010	-0.0037947	5
	35	60	315.5048	6089732	-1.705232E+007	1	1.810708E+007	-70.34731	-1.454435E-010	-0.0038065	5
	36	62	252.4038	7616938	-2.586522E+007	1	2.696344E+007	-73.59105	4.594541E-010	-0.0037926	5
	37	63	198.6229	1.230716E+007	-3.125767E+007	1	3.359327E+007	-68.50883	-1.35248E-010	-0.0037968	5
	38	65	158.3615	1.654424E+007	-2.611425E+007	1	3.091384E+007	-57.64439	6.789898E-012	-0.0038027	5
	39	66	125.558	2.803101E+007	-3.546472E+007	1	4.520491E+007	-51.67746	-9.14957E-011	-0.0038136	4
	40	68	100.4464	2.89203E+007	-5.411397E+007	1	6.13572E+007	-61.87847	-5.245726E-011	-0.0038121	4
	41	69	79.00281	-1.53797E+007	-4.192936E+007	1	4.466102E+007	-110.1431	2.544152E-010	-0.0038111	5
	42	71	63.3446	2009251	-6729138	1	7022705	-73.37492	9.091946E-011	-0.0038095	4
	43	73	49.86702	6.630065E+007	1.783318E+007	1	6.865711E+007	15.05479	8.116265E-011	-0.0038204	5
	44	75	39.72458	1.124692E+008	8.848507E+007	1	1.431046E+008	38.19387	1.656619E-010	-0.0038113	5
	45	77	31.6723	-2.257316E+007	-8.384116E+007	1	8.682677E+007	-105.0688	-2.614482E-011	-0.00381	4
	46	78	24.93351	8.309853E+007	-9.542817E+007	1	1.265381E+008	-48.95076	9.913908E-011	-0.0038178	5
	47	80	19.86229	3906205	-3.47869E+007	1	3.500553E+007	-83.59312	1.108745E-009	-0.0038179	4
	48	82	15.83615	-8129296	-1.670629E+007	1	1.857917E+007	-115.9476	6.647399E-010	-0.0038185	4
	49	83	12.40079	5.701452E+007	-2.45486E+007	1	6.207486E+007	-23.29514	-1.419082E-010	-0.0038207	4
	50	85	9.93114	2.516769E+007	-2.211936E+007	1	3.35064E+007	-41.31158	-6.692624E-011	-0.0037992	5
	51	87	7.944915	5.839043E+007	-7.060981E+007	1	9.162526E+007	-50.41112	2.508636E-010	-0.0037998	4
	52	89	6.317385	1.452752E+008	-4.760239E+007	1	1.528753E+008	-18.14245	2.483477E-011	-0.0037975	4
	53	92	5.008013	1.424046E+008	-1.976791E+007	1	1.4377E+008	-7.903016	4.361658E-012	-0.0037941	4
	54	95	3.945707	1.976673E+008	1.444482E+007	1	1.981944E+008	4.179542	-4.688424E-011	-0.0038177	4
	55	99	3.158693	1.605782E+008	4.455476E+007	1	1.666448E+008	15.50745	4.168354E-011	-0.0038054	4
	56	103	2.504006	2.798619E+008	-5.694425E+007	1	2.855964E+008	-11.50112	1.364106E-011	-0.0038143	3
	57	107	1.998082	2.898461E+008	-4.546313E+007	1	2.9339E+008	-8.914361	1.458595E-011	-0.0038509	3
	58	113	1.584686	1.481679E+008	-1.040016E+008	1	1.810251E+008	-35.06567	1.685646E-011	-0.0038064	3
	59	119	1.266892	4.010179E+008	3.40663E+007	1	4.024622E+008	4.855595	-1.377834E-011	-0.0038365	2
	60	126	0.999041	9.026952E+008	-2.7604E+009	1	2.90425E+009	-71.89143	-6.604624E-013	-0.0037601	2
