EXPLAIN
TAG	EISPOT
TITLE	LABEL	Potentiostatic EIS	Test &Identifier
DATE	LABEL	10/26/2019	Date
TIME	LABEL	10:58:16	Time
NOTES	NOTES	1	&Notes...
	
PSTAT	PSTAT	REF600-11020	Potentiostat
VDC	POTEN	0.00000E+000	T	DC &Voltage (V)
FREQINIT	QUANT	1.00000E+006	Initial Fre&q. (Hz)
FREQFINAL	QUANT	1.00000E+000	Final Fre&q. (Hz)
PTSPERDEC	QUANT	1.00000E+001	Points/&decade
VAC	QUANT	2.50000E+001	AC &Voltage (mV rms)
AREA	QUANT	1.00000E-002	&Area (cm^2)
CONDIT	TWOPARAM	T	5.00000E+000	0.00000E+000	Conditionin&g	Time(s)	E(V)
DELAY	TWOPARAM	T	5.00000E+000	0.00000E+000	Init. De&lay	Time(s)	Stab.(mV/s)
SPEED	SELECTOR	0	&Optimize for:
ZGUESS	QUANT	1.00000E+005	E&stimated Z (ohms)
OCVCURVE	TABLE	19
	Pt	T	Vf	Vm	Ach	Over
	#	s	V vs. Ref.	V	V	bits
	0	0.258333	1.20555E-002	1.20555E-002	5.40933E-004	...........
	1	0.516667	1.20615E-002	1.23673E-002	5.37866E-004	...........
	2	0.775	1.20985E-002	1.26831E-002	5.44266E-004	...........
	3	1.03333	1.22041E-002	1.29754E-002	5.41899E-004	...........
	4	1.29167	1.23946E-002	1.32527E-002	5.42866E-004	...........
	5	1.55	1.26492E-002	1.35254E-002	5.46266E-004	...........
	6	1.80833	1.29321E-002	1.37806E-002	5.46966E-004	...........
	7	2.06667	1.32171E-002	1.40440E-002	5.43466E-004	...........
	8	2.325	1.34932E-002	1.42879E-002	5.44033E-004	...........
	9	2.58333	1.37588E-002	1.45172E-002	5.49266E-004	...........
	10	2.84167	1.40141E-002	1.47446E-002	5.48266E-004	...........
	11	3.1	1.42592E-002	1.49569E-002	5.46199E-004	...........
	12	3.35833	1.44941E-002	1.51734E-002	5.38899E-004	...........
	13	3.61667	1.47199E-002	1.53631E-002	5.41633E-004	...........
	14	3.875	1.49370E-002	1.55558E-002	5.43899E-004	...........
	15	4.13333	1.51452E-002	1.57417E-002	5.41999E-004	...........
	16	4.39167	1.53449E-002	1.59233E-002	5.43733E-004	...........
	17	4.65	1.55374E-002	1.61020E-002	5.46433E-004	...........
	18	4.90833	1.57242E-002	1.62685E-002	5.47499E-004	...........
EOC	QUANT	0.0157242	Open Circuit (V)
PSTATMODEL	IQUANT	4	Pstat Model
PSTATSECTION	LABEL	REF600-11020	Pstat Section
PSTATSERIALNO	LABEL	11020	Pstat Serial Number
CTRLMODE	IQUANT	1	Control Mode
IESTAB	IQUANT	0	I/E Stability
CASPEED	IQUANT	1	Control Amp Speed
CONVENTION	IQUANT	1	Current Convention
ICHRANGE	IQUANT	2	Ich Range
ICHRANGEMODE	TOGGLE	F	Ich Auto Range
ICHOFFSETENABLE	TOGGLE	T	Ich Offset Enable
ICHOFFSET	QUANT	0	Ich Offset (V)
ICHFILTER	IQUANT	3	Ich Filter
VCHRANGE	IQUANT	2	Vch Range
VCHRANGEMODE	TOGGLE	F	Vch Auto Range
VCHOFFSETENABLE	TOGGLE	T	Vch Offset Enable
VCHOFFSET	QUANT	0	Vch Offset (V)
VCHFILTER	IQUANT	3	Vch Filter
ACHRANGE	IQUANT	2	Ach Range
ACHOFFSETENABLE	TOGGLE	F	Ach Offset Enable
ACHOFFSET	QUANT	0	Ach Offset (V)
ACHFILTER	IQUANT	3	Ach Filter
IERANGELOWERLIMIT	IQUANT	1	I/E Range Lower Limit
IERANGEMODE	TOGGLE	F	I/E AutoRange
IERANGE	IQUANT	5	I/E Range
POSFEEDENABLE	TOGGLE	F	Positive Feedback IR Comp
POSFEEDRESISTANCE	QUANT	0	Positive Feedback Resistance (ohm)
ACHSELECT	IQUANT	0	Ach Select
CABLEID	IQUANT	14	Cable ID
DCCALDATE	LABEL	8/19/2019	DC Calibration Date
ACCALDATE	LABEL	8/19/2019	AC Calibration Date
THERMOSELECT	IQUANT	1	Thermo Select
FRAMEWORKVERSION	QUANT	6.33	Framework Version
INSTRUMENTVERSION	LABEL	3.50	Instrument Version
ZCURVE	TABLE
	Pt	Time	Freq	Zreal	Zimag	Zsig	Zmod	Zphz	Idc	Vdc	IERange
	#	s	Hz	ohm	ohm	V	ohm	°	A	V	#
	0	1	1000078	2302.8	-1473.299	1	2733.77	-32.61053	-1.749028E-006	0.0182095	8
	1	2	794390.6	2603.221	-1402.664	1	2957.064	-28.31661	1.742702E-006	0.0176405	8
	2	2	630984.4	2842.522	-1297.905	1	3124.818	-24.5416	1.373E-006	0.0171573	8
	3	2	501234.4	3061.533	-1176.715	1	3279.885	-21.0245	-2.960539E-006	0.0180422	8
	4	3	398109.4	3213.379	-1038.823	1	3377.123	-17.91501	1.212298E-006	0.0173102	8
	5	3	316265.6	3356.654	-925.4365	1	3481.89	-15.41364	7.92255E-007	0.0172012	8
	6	3	251203.1	3459.56	-814.9418	1	3554.249	-13.25508	-1.363764E-006	0.0176123	8
	7	4	199546.9	3535.492	-729.4908	1	3609.967	-11.65844	-4.897842E-007	0.0174076	8
	8	4	158578.1	3609.226	-658.105	1	3668.735	-10.33376	-2.270426E-006	0.0176766	8
	9	4	125953.1	3682.133	-552.4436	1	3723.345	-8.532647	4.069042E-007	0.016052	7
	10	5	100078.1	3727.934	-510.1341	1	3762.675	-7.792015	3.0469E-008	0.0171923	7
	11	5	79453.13	3774.447	-491.6407	1	3806.332	-7.42128	5.255168E-008	0.0172087	7
	12	5	63140.62	3820.707	-483.4406	1	3851.17	-7.211411	-4.96392E-009	0.017397	7
	13	5	50203.12	3866.136	-485.8242	1	3896.542	-7.162327	-5.901979E-008	0.0173881	7
	14	6	39890.62	3913.865	-498.3484	1	3945.465	-7.256366	-4.384113E-008	0.0173294	7
	15	6	31640.63	3964.732	-518.4203	1	3998.482	-7.449616	-6.331342E-009	0.0173254	7
	16	6	25171.88	4017.483	-551.1693	1	4055.115	-7.811796	1.056245E-007	0.0171376	7
	17	7	20015.62	4074.757	-586.4338	1	4116.74	-8.189701	-3.230518E-008	0.0173524	7
	18	7	15890.62	4140.641	-645.7621	1	4190.694	-8.864273	-5.070233E-009	0.017254	7
	19	7	12609.37	4211.143	-708.5698	1	4270.339	-9.55116	-2.541521E-008	0.0172961	7
	20	8	10078.13	4287.929	-781.4146	1	4358.548	-10.32801	-4.669467E-008	0.0174334	7
	21	8	8015.625	4378.174	-872.9119	1	4464.346	-11.27567	-5.201509E-009	0.0173189	7
	22	8	6328.125	4474.854	-973.4	1	4579.5	-12.27217	-2.233891E-009	0.0172439	7
	23	9	5015.625	4582.73	-1092.284	1	4711.104	-13.40619	-7.236162E-009	0.017304	7
	24	9	3984.375	4685.027	-1232.679	1	4844.479	-14.74102	-4.690249E-008	0.0174282	7
	25	9	3170.956	4825.246	-1378.066	1	5018.173	-15.93908	5.347681E-008	0.0171906	7
	26	10	2527.573	4959.518	-1554.302	1	5197.372	-17.40088	-2.539956E-008	0.0172884	7
	27	10	1976.103	5110.862	-1777.955	1	5411.288	-19.18164	5.26845E-008	0.0171898	7
	28	10	1577.524	5257.052	-2009.548	1	5628.044	-20.91974	6.809499E-009	0.0172299	7
	29	11	1265.625	5401.408	-2309.235	1	5874.332	-23.1479	5.393E-008	0.0171879	7
	30	11	998.264	5561.969	-2693.235	1	6179.726	-25.83735	-5.765468E-009	0.0172376	7
	31	11	796.875	5715.451	-3146.231	1	6524.197	-28.83182	-5.769727E-009	0.0173804	7
	32	12	627.7902	5884.88	-3738.78	1	6972.108	-32.4286	6.380287E-008	0.0171406	7
	33	12	505.5147	6052.203	-4421.131	1	7495.036	-36.14811	-2.492343E-008	0.0172883	7
	34	12	397.9953	6265.98	-5355.082	1	8242.536	-40.51812	1.541371E-009	0.017306	7
	35	12	315.5048	6507.583	-6494.13	1	9193.604	-44.94071	2.887513E-009	0.017306	7
	36	13	252.4038	6791.717	-7851.526	1	10381.42	-49.13958	1.047273E-009	0.0172428	6
	37	13	198.6229	7171.743	-9660.5	1	12031.59	-53.41063	4.472181E-010	0.0172407	6
	38	13	158.3615	7639.409	-11773.6	1	14034.89	-57.02211	4.910519E-010	0.017239	6
	39	14	125.558	8257.329	-14426.63	1	16622.61	-60.2146	4.274265E-010	0.0172386	6
	40	14	100.4464	9048.33	-17530.29	1	19727.73	-62.69929	1.220134E-009	0.0172356	6
	41	14	79.00281	10168.74	-21635.23	1	23905.79	-64.82609	2.368508E-010	0.0172348	6
	42	15	63.3446	11219.99	-26019.55	1	28335.58	-66.67362	-6.293805E-010	0.0172328	6
	43	15	49.86702	13154.98	-31917.66	1	34522.32	-67.60081	-8.324544E-010	0.0172325	6
	44	16	39.72458	15656.07	-38782.11	1	41823.01	-68.01641	1.46385E-010	0.0172316	6
	45	16	31.6723	18769.37	-46762.66	1	50388.84	-68.13071	7.151732E-011	0.0172278	6
	46	16	24.93351	22881.88	-56621.68	1	61070.41	-67.99545	4.18882E-010	0.0172307	6
	47	17	19.86229	27835.39	-67639.78	1	73143.34	-67.63166	1.836619E-009	0.0172375	6
	48	17	15.83615	34482	-80663.25	1	87724.39	-66.85422	-1.59792E-009	0.017227	6
	49	17	12.40079	42791.78	-96272.6	1	105354.4	-66.03554	-3.818177E-011	0.017233	5
	50	18	9.93114	52606.24	-112388.6	1	124091.1	-64.9169	-7.546186E-010	0.017242	5
	51	18	7.944915	63522.58	-130609.6	1	145237.7	-64.06382	3.283115E-010	0.0172324	5
	52	19	6.317385	76863.75	-151160.5	1	169580.5	-63.04707	-5.371349E-011	0.0172304	5
	53	19	5.008013	91928.93	-175204.9	1	197857.7	-62.31428	-2.67723E-010	0.0172288	5
	54	21	3.945707	108592.8	-204121	1	231209.4	-61.98693	4.271031E-011	0.0172395	5
	55	22	3.158693	125708.1	-235241.5	1	266722.8	-61.88088	-3.046465E-010	0.0172433	5
	56	24	2.504006	144718.9	-274464.4	1	310280.9	-62.19833	-3.066409E-010	0.0172309	5
	57	25	1.998082	165403	-320026.9	1	360243.5	-62.66822	-6.363935E-011	0.0172733	5
	58	26	1.584686	188201.3	-377458	1	421775.2	-63.49907	-1.426134E-010	0.0172613	5
	59	28	1.266892	214664.1	-443826.7	1	493014	-64.1885	-1.97806E-010	0.0172198	5
	60	31	0.999041	248635.2	-530411.1	1	585794.6	-64.88472	-2.034865E-010	0.0171952	5
