EXPLAIN
TAG	EISPOT
TITLE	LABEL	Potentiostatic EIS	Test &Identifier
DATE	LABEL	8/14/2018	Date
TIME	LABEL	5:10:26	Time
NOTES	NOTES	1	&Notes...
	
PSTAT	PSTAT	REF600-11020	Potentiostat
VDC	POTEN	0.00000E+000	T	DC &Voltage (V)
FREQINIT	QUANT	1.00000E+006	Initial Fre&q. (Hz)
FREQFINAL	QUANT	1.00000E+000	Final Fre&q. (Hz)
PTSPERDEC	QUANT	1.00000E+001	Points/&decade
VAC	QUANT	2.50000E+001	AC &Voltage (mV rms)
AREA	QUANT	1.00000E-002	&Area (cm^2)
CONDIT	TWOPARAM	T	5.00000E+000	0.00000E+000	Conditionin&g	Time(s)	E(V)
DELAY	TWOPARAM	T	5.00000E+000	0.00000E+000	Init. De&lay	Time(s)	Stab.(mV/s)
SPEED	SELECTOR	0	&Optimize for:
ZGUESS	QUANT	1.00000E+005	E&stimated Z (ohms)
OCVCURVE	TABLE	19
	Pt	T	Vf	Vm	Ach	Over
	#	s	V vs. Ref.	V	V	bits
	0	0.258333	5.60350E-003	5.60350E-003	5.68932E-004	...........
	1	0.516667	5.60295E-003	5.57464E-003	5.70366E-004	...........
	2	0.775	5.59952E-003	5.54506E-003	5.71132E-004	...........
	3	1.03333	5.59001E-003	5.53362E-003	5.76899E-004	...........
	4	1.29167	5.57422E-003	5.52751E-003	5.75232E-004	...........
	5	1.55	5.55651E-003	5.53247E-003	5.69066E-004	...........
	6	1.80833	5.54257E-003	5.54420E-003	5.68732E-004	...........
	7	2.06667	5.53600E-003	5.55960E-003	5.69066E-004	...........
	8	2.325	5.53755E-003	5.57485E-003	5.69966E-004	...........
	9	2.58333	5.54589E-003	5.59311E-003	5.66199E-004	...........
	10	2.84167	5.55890E-003	5.61378E-003	5.66466E-004	...........
	11	3.1	5.57490E-003	5.63424E-003	5.68166E-004	...........
	12	3.35833	5.59302E-003	5.65875E-003	5.67099E-004	...........
	13	3.61667	5.61292E-003	5.68378E-003	5.78632E-004	...........
	14	3.875	5.63459E-003	5.71302E-003	5.72599E-004	...........
	15	4.13333	5.65815E-003	5.73820E-003	5.75966E-004	...........
	16	4.39167	5.68348E-003	5.77042E-003	5.77032E-004	...........
	17	4.65	5.71024E-003	5.79564E-003	5.75032E-004	...........
	18	4.90833	5.73797E-003	5.82538E-003	5.72432E-004	...........
EOC	QUANT	0.005738	Open Circuit (V)
PSTATMODEL	IQUANT	4	Pstat Model
PSTATSECTION	LABEL	REF600-11020	Pstat Section
PSTATSERIALNO	LABEL	11020	Pstat Serial Number
CTRLMODE	IQUANT	1	Control Mode
IESTAB	IQUANT	0	I/E Stability
CASPEED	IQUANT	1	Control Amp Speed
CONVENTION	IQUANT	1	Current Convention
ICHRANGE	IQUANT	2	Ich Range
ICHRANGEMODE	TOGGLE	F	Ich Auto Range
ICHOFFSETENABLE	TOGGLE	T	Ich Offset Enable
ICHOFFSET	QUANT	0	Ich Offset (V)
ICHFILTER	IQUANT	3	Ich Filter
VCHRANGE	IQUANT	2	Vch Range
VCHRANGEMODE	TOGGLE	F	Vch Auto Range
VCHOFFSETENABLE	TOGGLE	T	Vch Offset Enable
VCHOFFSET	QUANT	0	Vch Offset (V)
VCHFILTER	IQUANT	3	Vch Filter
ACHRANGE	IQUANT	2	Ach Range
ACHOFFSETENABLE	TOGGLE	F	Ach Offset Enable
ACHOFFSET	QUANT	0	Ach Offset (V)
ACHFILTER	IQUANT	3	Ach Filter
IERANGELOWERLIMIT	IQUANT	1	I/E Range Lower Limit
IERANGEMODE	TOGGLE	F	I/E AutoRange
IERANGE	IQUANT	5	I/E Range
POSFEEDENABLE	TOGGLE	F	Positive Feedback IR Comp
POSFEEDRESISTANCE	QUANT	0	Positive Feedback Resistance (ohm)
ACHSELECT	IQUANT	0	Ach Select
CABLEID	IQUANT	14	Cable ID
DCCALDATE	LABEL	8/19/2019	DC Calibration Date
ACCALDATE	LABEL	8/19/2019	AC Calibration Date
THERMOSELECT	IQUANT	1	Thermo Select
FRAMEWORKVERSION	QUANT	6.33	Framework Version
INSTRUMENTVERSION	LABEL	3.50	Instrument Version
ZCURVE	TABLE
	Pt	Time	Freq	Zreal	Zimag	Zsig	Zmod	Zphz	Idc	Vdc	IERange
	#	s	Hz	ohm	ohm	V	ohm	°	A	V	#
	0	2	1000078	2241.735	-1323.677	1	2603.362	-30.56056	-7.022363E-006	0.0088873	8
	1	2	794390.6	2513.709	-1206.583	1	2788.293	-25.64105	5.797312E-006	0.0069516	8
	2	2	630984.4	2711.463	-1076.442	1	2917.32	-21.65291	-1.913256E-006	0.0076279	8
	3	3	501234.4	2879.677	-954.053	1	3033.604	-18.33032	-7.610691E-007	0.0078311	8
	4	3	398109.4	3007.052	-837.9802	1	3121.63	-15.57165	-3.614785E-007	0.0072631	8
	5	3	316265.6	3097.473	-712.2446	1	3178.306	-12.94971	-2.770866E-006	0.0079082	8
	6	4	251203.1	3162.581	-610.1492	1	3220.901	-10.91977	-3.447385E-007	0.0072211	8
	7	4	199546.9	3222.125	-520.1437	1	3263.838	-9.170079	4.968573E-007	0.0072659	8
	8	4	158578.1	3264.729	-438.8396	1	3294.091	-7.655719	-5.395607E-007	0.0074131	8
	9	5	125953.1	3324.325	-355.1533	1	3343.243	-6.098047	1.221802E-007	0.0071637	7
	10	5	100078.1	3344.68	-312.4733	1	3359.245	-5.337306	-2.387281E-008	0.0073323	7
	11	5	79453.13	3369.349	-298.3581	1	3382.533	-5.06038	1.66663E-009	0.0072494	7
	12	5	63140.62	3392.316	-287.4202	1	3404.471	-4.842924	1.512472E-008	0.0073589	7
	13	6	50203.12	3415.74	-283.9223	1	3427.52	-4.751602	8.289485E-008	0.0072179	7
	14	6	39890.62	3439.264	-285.9756	1	3451.133	-4.753222	1.969785E-009	0.007243	7
	15	6	31640.63	3461.534	-295.8144	1	3474.151	-4.884492	-1.904085E-008	0.0073124	7
	16	7	25171.88	3484.698	-311.5637	1	3498.599	-5.109179	-4.268319E-008	0.0073833	7
	17	7	20015.62	3508.368	-336.54	1	3524.473	-5.479328	-2.055204E-008	0.0073104	7
	18	7	15890.62	3531.275	-372.374	1	3550.854	-6.019609	5.899945E-008	0.0071774	7
	19	8	12609.37	3554.855	-422.4104	1	3579.864	-6.776473	7.332328E-008	0.0071217	7
	20	8	10078.13	3582.104	-480.4513	1	3614.18	-7.639232	-4.235714E-009	0.0073213	7
	21	8	8015.625	3608.163	-554.3907	1	3650.505	-8.735128	-2.634969E-008	0.007272	7
	22	9	6328.125	3640.361	-655.9358	1	3698.984	-10.2142	3.583223E-008	0.007155	7
	23	9	5015.625	3673.57	-780.3504	1	3755.538	-11.99267	-4.508037E-008	0.0073048	7
	24	9	3984.375	3712.967	-934.1725	1	3828.681	-14.12235	1.055386E-007	0.0071276	7
	25	10	3170.956	3754.495	-1121.459	1	3918.406	-16.63077	-2.142713E-008	0.007311	7
	26	10	2527.573	3803.907	-1352.101	1	4037.064	-19.56779	-6.36829E-008	0.0073545	7
	27	10	1976.103	3866.124	-1665.459	1	4209.593	-23.30553	-2.783739E-008	0.007261	7
	28	11	1577.524	3941.619	-2013.248	1	4426.006	-27.05643	-4.532678E-009	0.0073115	7
	29	11	1265.625	4014.413	-2437.495	1	4696.477	-31.26554	8.514832E-008	0.0072061	7
	30	11	998.264	4115.876	-2996.168	1	5090.919	-36.05289	3.735153E-008	0.0071468	7
	31	11	796.875	4236.066	-3658.118	1	5596.971	-40.81274	2.769883E-009	0.0072417	7
	32	12	627.7902	4386.85	-4514.197	1	6294.635	-45.81967	-6.458252E-008	0.0073626	7
	33	12	505.5147	4568.067	-5477.514	1	7132.349	-50.173	1.654715E-009	0.0072401	7
	34	12	397.9953	4806.565	-6776.292	1	8307.9	-54.65113	6.127847E-010	0.0072976	7
	35	13	315.5048	5110.888	-8343.144	1	9784.13	-58.50897	1.016315E-009	0.0072967	7
	36	13	252.4038	5490.632	-10186.8	1	11572.29	-61.67556	2.743339E-010	0.0072318	6
	37	13	198.6229	6023.298	-12619	1	13982.82	-64.48392	4.06829E-010	0.0072308	6
	38	14	158.3615	6685.179	-15435.44	1	16820.95	-66.58228	9.727883E-010	0.0072288	6
	39	14	125.558	7592.877	-18956.9	1	20420.97	-68.17223	3.505037E-010	0.0072272	6
	40	14	100.4464	8785.617	-23080.04	1	24695.65	-69.16024	-9.656322E-011	0.0072287	6
	41	15	79.00281	10454.64	-28461.57	1	30320.96	-69.83046	9.645212E-010	0.0072262	6
	42	15	63.3446	12304.93	-33914.25	1	36077.52	-70.05798	-2.512024E-010	0.007225	6
	43	15	49.86702	15444.49	-41480.26	1	44262.22	-69.57802	5.642125E-010	0.0072209	6
	44	16	39.72458	19248.85	-50182.74	1	53747.8	-69.01443	1.881891E-010	0.0072284	6
	45	16	31.6723	23972.9	-59978.8	1	64592.23	-68.21392	6.501607E-010	0.0072259	6
	46	16	24.93351	30716.61	-71600.47	1	77911.09	-66.78066	1.607344E-010	0.0072189	6
	47	17	19.86229	38473.55	-83988.59	1	92381.27	-65.3884	1.500639E-009	0.007232	6
	48	17	15.83615	47020.75	-97848.4	1	108559.9	-64.33353	3.955527E-011	0.0072293	5
	49	17	12.40079	60194.5	-115601	1	130334	-62.49359	-3.560374E-010	0.007227	5
	50	18	9.93114	72171.92	-131431.5	1	149943.4	-61.22785	-5.486554E-010	0.0072255	5
	51	18	7.944915	87025.34	-150070.3	1	173477.6	-59.89067	-8.018571E-010	0.0072331	5
	52	19	6.317385	103102.9	-172104.9	1	200624.8	-59.07543	-7.973686E-010	0.0072455	5
	53	20	5.008013	122067.7	-197421	1	232111.1	-58.27103	-3.738603E-010	0.007231	5
	54	21	3.945707	144036.5	-226941.3	1	268791.5	-57.59726	-1.308336E-010	0.0072223	5
	55	22	3.158693	167020.8	-259295.7	1	308431.8	-57.2131	1.193934E-010	0.0072373	5
	56	24	2.504006	194382.9	-297521.6	1	355392.4	-56.84179	-1.76866E-010	0.0072321	5
	57	25	1.998082	223840	-340797.2	1	407734	-56.70258	-2.434425E-010	0.0072005	5
	58	27	1.584686	258031.4	-390541.3	1	468084.1	-56.54718	-6.779061E-011	0.0072498	5
	59	29	1.266892	295692.3	-447824.7	1	536638.6	-56.56379	1.102088E-012	0.007265	5
	60	31	0.999041	339145	-519491.1	1	620395.3	-56.86186	-1.839815E-013	0.0072587	5
