EXPLAIN
TAG	EISPOT
TITLE	LABEL	Potentiostatic IDE	Test &Identifier
DATE	LABEL	9/8/2019	Date
TIME	LABEL	8:44:25	Time
NOTES	NOTES	1	&Notes...
	
PSTAT	PSTAT	REF600-11020	Potentiostat
VDC	POTEN	0.00000E+000	T	DC &Voltage (V)
FREQINIT	QUANT	1.00000E+006	Initial Fre&q. (Hz)
FREQFINAL	QUANT	1.00000E+000	Final Fre&q. (Hz)
PTSPERDEC	QUANT	1.00000E+001	Points/&decade
VAC	QUANT	2.50000E+001	AC &Voltage (mV rms)
AREA	QUANT	1.00000E-002	&Area (cm^2)
CONDIT	TWOPARAM	T	5.00000E+000	0.00000E+000	Conditionin&g	Time(s)	E(V)
DELAY	TWOPARAM	T	5.00000E+000	0.00000E+000	Init. De&lay	Time(s)	Stab.(mV/s)
SPEED	SELECTOR	1	&Optimize for:
ZGUESS	QUANT	1.00000E+007	E&stimated Z (ohms)
OCVCURVE	TABLE	19
	Pt	T	Vf	Vm	Ach	Over
	#	s	V vs. Ref.	V	V	bits
	0	0.258333	1.80361E-002	1.80361E-002	5.64466E-004	...........
	1	0.516667	1.80506E-002	1.87939E-002	5.64632E-004	...........
	2	0.775	1.81391E-002	1.94921E-002	5.63132E-004	...........
	3	1.03333	1.83878E-002	2.01397E-002	5.67232E-004	...........
	4	1.29167	1.88280E-002	2.07435E-002	5.63632E-004	...........
	5	1.55	1.94047E-002	2.12974E-002	5.64799E-004	...........
	6	1.80833	2.00305E-002	2.17860E-002	5.63766E-004	...........
	7	2.06667	2.06334E-002	2.18683E-002	5.66732E-004	...........
	8	2.325	2.11561E-002	2.20729E-002	5.69266E-004	...........
	9	2.58333	2.15613E-002	2.23118E-002	5.65199E-004	...........
	10	2.84167	2.18579E-002	2.25490E-002	5.70266E-004	...........
	11	3.1	2.20932E-002	2.27714E-002	5.71299E-004	...........
	12	3.35833	2.23106E-002	2.29810E-002	5.71132E-004	...........
	13	3.61667	2.25279E-002	2.31816E-002	5.67032E-004	...........
	14	3.875	2.27447E-002	2.33779E-002	5.73132E-004	...........
	15	4.13333	2.29563E-002	2.35568E-002	5.65599E-004	...........
	16	4.39167	2.31595E-002	2.37302E-002	5.69966E-004	...........
	17	4.65	2.33529E-002	2.38884E-002	5.66766E-004	...........
	18	4.90833	2.35356E-002	2.40388E-002	5.64832E-004	...........
EOC	QUANT	0.0235356	Open Circuit (V)
PSTATMODEL	IQUANT	4	Pstat Model
PSTATSECTION	LABEL	REF600-11020	Pstat Section
PSTATSERIALNO	LABEL	11020	Pstat Serial Number
CTRLMODE	IQUANT	1	Control Mode
IESTAB	IQUANT	0	I/E Stability
CASPEED	IQUANT	1	Control Amp Speed
CONVENTION	IQUANT	1	Current Convention
ICHRANGE	IQUANT	2	Ich Range
ICHRANGEMODE	TOGGLE	F	Ich Auto Range
ICHOFFSETENABLE	TOGGLE	T	Ich Offset Enable
ICHOFFSET	QUANT	0	Ich Offset (V)
ICHFILTER	IQUANT	3	Ich Filter
VCHRANGE	IQUANT	2	Vch Range
VCHRANGEMODE	TOGGLE	F	Vch Auto Range
VCHOFFSETENABLE	TOGGLE	T	Vch Offset Enable
VCHOFFSET	QUANT	0	Vch Offset (V)
VCHFILTER	IQUANT	3	Vch Filter
ACHRANGE	IQUANT	2	Ach Range
ACHOFFSETENABLE	TOGGLE	F	Ach Offset Enable
ACHOFFSET	QUANT	0	Ach Offset (V)
ACHFILTER	IQUANT	3	Ach Filter
IERANGELOWERLIMIT	IQUANT	1	I/E Range Lower Limit
IERANGEMODE	TOGGLE	F	I/E AutoRange
IERANGE	IQUANT	3	I/E Range
POSFEEDENABLE	TOGGLE	F	Positive Feedback IR Comp
POSFEEDRESISTANCE	QUANT	0	Positive Feedback Resistance (ohm)
ACHSELECT	IQUANT	0	Ach Select
CABLEID	IQUANT	14	Cable ID
DCCALDATE	LABEL	8/19/2019	DC Calibration Date
ACCALDATE	LABEL	8/19/2019	AC Calibration Date
THERMOSELECT	IQUANT	1	Thermo Select
FRAMEWORKVERSION	QUANT	6.33	Framework Version
INSTRUMENTVERSION	LABEL	3.50	Instrument Version
ZCURVE	TABLE
	Pt	Time	Freq	Zreal	Zimag	Zsig	Zmod	Zphz	Idc	Vdc	IERange
	#	s	Hz	ohm	ohm	V	ohm	°	A	V	#
	0	3	1000078	1585.458	-2575.963	1	3024.775	-58.38847	-7.684541E-006	0.0271739	8
	1	4	794390.6	1740.062	-3043.123	1	3505.483	-60.23902	-2.612719E-006	0.0266283	8
	2	5	630984.4	1932.97	-3597.951	1	4084.314	-61.75345	-5.771416E-006	0.0267962	8
	3	7	501234.4	2133.37	-4299.187	1	4799.403	-63.60818	-2.910632E-007	0.0255892	8
	4	8	398109.4	2398.881	-5201.73	1	5728.23	-65.24227	8.776215E-007	0.0249791	8
	5	10	316265.6	2682.428	-6223.443	1	6776.922	-66.68299	-2.365128E-006	0.0254377	8
	6	12	251203.1	3133.708	-7547.478	1	8172.182	-67.45181	-4.039698E-006	0.0260103	8
	7	13	199546.9	3587.385	-9195.309	1	9870.31	-68.68764	2.395229E-006	0.0247017	8
	8	15	158578.1	4291.372	-11005.42	1	11812.5	-68.69756	-3.911811E-006	0.0259817	8
	9	17	125953.1	5448.248	-13468.74	1	14528.95	-67.97614	5.661774E-007	0.0236968	7
	10	18	100078.1	6780.237	-16233.58	1	17592.63	-67.3313	-5.323463E-008	0.025169	7
	11	20	79453.13	8657.235	-19559.29	1	21389.57	-66.1251	2.30075E-008	0.0250291	7
	12	21	63140.62	11174.86	-23339.72	1	25877.02	-64.41529	-2.889433E-010	0.0252667	7
	13	23	50203.12	14757.72	-27321.45	1	31052.4	-61.62424	-4.564966E-008	0.0251707	7
	14	24	39890.62	19433.89	-31435.36	1	36957.52	-58.27491	-2.34875E-009	0.025037	7
	15	25	31640.63	25219.13	-35684.1	1	43696.22	-54.74989	-5.057893E-008	0.0251454	7
	16	27	25171.88	32178.28	-38987.65	1	50551.75	-50.46559	-4.874164E-008	0.0251527	7
	17	28	20015.62	40196.71	-41303.25	1	57634.48	-45.77787	-5.501452E-008	0.0251916	7
	18	30	15890.62	48361.85	-42526.71	1	64400.23	-41.3266	4.555207E-008	0.0250737	7
	19	31	12609.37	57684.52	-41471.3	1	71044.86	-35.7136	-1.527408E-008	0.0251972	6
	20	33	10078.13	65015.05	-40298.72	1	76491.47	-31.79216	-7.284319E-009	0.0251979	6
	21	34	8015.625	71960.71	-37911.04	1	81336.28	-27.7816	-6.190619E-009	0.0251923	6
	22	36	6328.125	78086.03	-35327.85	1	85705.8	-24.34305	-4.443342E-009	0.0249634	6
	23	37	5015.625	82911.45	-32665.67	1	89114.28	-21.50357	9.541384E-009	0.0248189	6
	24	38	3984.375	87520.69	-30382.7	1	92644.37	-19.14438	1.173473E-008	0.0250225	6
	25	40	3170.956	91007.27	-28356.01	1	95322.5	-17.30597	-1.483308E-008	0.0252025	6
	26	41	2527.573	94441.55	-26833.84	1	98179.7	-15.86153	-1.031506E-009	0.0252075	6
	27	42	1976.103	97549.6	-25841.64	1	100914.4	-14.83729	-7.522658E-009	0.0251796	6
	28	44	1577.524	100279	-25118.14	1	103377	-14.06226	-1.496961E-008	0.0251918	6
	29	45	1265.625	103809.9	-23044.9	1	106337	-12.5162	7.144946E-010	0.0248218	5
	30	47	998.264	106585	-23392.28	1	109121.7	-12.37849	-1.389291E-009	0.0251695	5
	31	48	796.875	109430.2	-24259.78	1	112087	-12.49984	1.16481E-009	0.0250022	5
	32	49	627.7902	112582.6	-25211.53	1	115370.9	-12.62246	5.877616E-010	0.0250412	5
	33	51	505.5147	115898.3	-26496.74	1	118888.6	-12.87768	-9.304716E-010	0.0252132	5
	34	52	397.9953	119429.7	-28158.9	1	122704.4	-13.26679	-8.686758E-010	0.0250725	5
	35	53	315.5048	123384.9	-29980.66	1	126975.1	-13.65733	4.914595E-010	0.0250724	5
	36	55	252.4038	127192.7	-32131.91	1	131188.6	-14.17765	5.269132E-010	0.02507	5
	37	56	198.6229	131466.2	-34808.93	1	135996.4	-14.83017	-1.136893E-011	0.0250699	5
	38	57	158.3615	136070.9	-37907.66	1	141252.5	-15.56718	-1.957373E-010	0.0250634	5
	39	59	125.558	141067.3	-41454.43	1	147032.1	-16.3761	1.150217E-010	0.0250691	5
	40	60	100.4464	145770.1	-45208.52	1	152619.6	-17.23053	3.193038E-010	0.0250692	5
	41	62	79.00281	149701.8	-50771.08	1	158077	-18.73427	4.512574E-010	0.025059	5
	42	63	63.3446	161965.9	-50866.64	1	169765.6	-17.4353	-4.012493E-010	0.0250654	5
	43	64	49.86702	163848.2	-62593.8	1	175397.3	-20.90802	1.67679E-010	0.0250688	5
	44	66	39.72458	169757.5	-70848.53	1	183948.7	-22.65329	1.394244E-011	0.0250685	5
	45	67	31.6723	178606.4	-79564.35	1	195526.8	-24.01168	3.683898E-010	0.0250652	5
	46	69	24.93351	186495.8	-91921.23	1	207918.7	-26.23806	-1.073316E-010	0.0250674	5
	47	70	19.86229	195760	-104357.1	1	221838.6	-28.0615	-2.075313E-010	0.0250731	5
	48	72	15.83615	202975.4	-118956.9	1	235265.3	-30.37309	-1.004435E-009	0.025068	5
	49	73	12.40079	225954.3	-139431.6	1	265511.8	-31.67785	-1.42593E-010	0.025066	5
	50	75	9.93114	237773.4	-158026.9	1	285497.3	-33.60847	-2.201869E-010	0.025079	5
	51	76	7.944915	256315.6	-181180.2	1	313885.2	-35.2551	4.497629E-010	0.0250638	5
	52	78	6.317385	278763.8	-206560.8	1	346953.4	-36.53802	8.121063E-010	0.0250591	5
	53	80	5.008013	305012	-235064.4	1	385081.3	-37.62046	5.674833E-010	0.0250785	5
	54	82	3.945707	335074.8	-266779.9	1	428306.8	-38.52611	1.863827E-010	0.0250628	5
	55	85	3.158693	367390.8	-299731.3	1	474146.5	-39.20887	3.044003E-010	0.025053	5
	56	88	2.504006	405795.9	-338981.5	1	528752.1	-39.87369	6.331792E-010	0.0250752	5
	57	91	1.998082	447713.2	-381729.9	1	588357.7	-40.45162	8.021137E-010	0.0250989	5
	58	94	1.584686	494161.9	-430130.4	1	655139.8	-41.03709	5.721382E-010	0.0250252	5
	59	98	1.266892	546906.8	-486433	1	731931.8	-41.65072	7.422459E-010	0.0250858	5
	60	102	0.999041	610695.3	-553123.3	1	823950.3	-42.16799	1.106624E-010	0.0250404	5
