EXPLAIN
TAG	EISPOT
TITLE	LABEL	Potentiostatic EIS	Test &Identifier
DATE	LABEL	10/6/2019	Date
TIME	LABEL	8:52:32	Time
NOTES	NOTES	2	&Notes...
	
	
PSTAT	PSTAT	REF600-11020	Potentiostat
VDC	POTEN	0.00000E+000	T	DC &Voltage (V)
FREQINIT	QUANT	1.00000E+006	Initial Fre&q. (Hz)
FREQFINAL	QUANT	1.00000E+000	Final Fre&q. (Hz)
PTSPERDEC	QUANT	1.00000E+001	Points/&decade
VAC	QUANT	2.50000E+001	AC &Voltage (mV rms)
AREA	QUANT	1.00000E-002	&Area (cm^2)
CONDIT	TWOPARAM	T	5.00000E+000	0.00000E+000	Conditionin&g	Time(s)	E(V)
DELAY	TWOPARAM	T	5.00000E+000	0.00000E+000	Init. De&lay	Time(s)	Stab.(mV/s)
SPEED	SELECTOR	1	&Optimize for:
ZGUESS	QUANT	1.00000E+004	E&stimated Z (ohms)
OCVCURVE	TABLE	19
	Pt	T	Vf	Vm	Ach	Over
	#	s	V vs. Ref.	V	V	bits
	0	0.258333	8.97196E-003	8.97196E-003	6.07898E-004	...........
	1	0.516667	8.97592E-003	9.17956E-003	6.00965E-004	...........
	2	0.775	9.00067E-003	9.39691E-003	6.08998E-004	...........
	3	1.03333	9.07197E-003	9.60485E-003	6.07765E-004	...........
	4	1.29167	9.20198E-003	9.80315E-003	6.00899E-004	...........
	5	1.55	9.37801E-003	9.99770E-003	5.99999E-004	...........
	6	1.80833	9.57637E-003	1.01897E-002	6.07632E-004	...........
	7	2.06667	9.77902E-003	1.03759E-002	6.12465E-004	...........
	8	2.325	9.97766E-003	1.05517E-002	6.02798E-004	...........
	9	2.58333	1.01699E-002	1.07237E-002	6.00232E-004	...........
	10	2.84167	1.03555E-002	1.09063E-002	6.11498E-004	...........
	11	3.1	1.05361E-002	1.10797E-002	6.07832E-004	...........
	12	3.35833	1.07137E-002	1.12491E-002	6.00132E-004	...........
	13	3.61667	1.08892E-002	1.14082E-002	6.06098E-004	...........
	14	3.875	1.10619E-002	1.15683E-002	6.13165E-004	...........
	15	4.13333	1.12297E-002	1.16969E-002	6.08665E-004	...........
	16	4.39167	1.13911E-002	1.18680E-002	6.06465E-004	...........
	17	4.65	1.15467E-002	1.20242E-002	6.02865E-004	...........
	18	4.90833	1.17002E-002	1.21825E-002	6.14265E-004	...........
EOC	QUANT	0.0117002	Open Circuit (V)
PSTATMODEL	IQUANT	4	Pstat Model
PSTATSECTION	LABEL	REF600-11020	Pstat Section
PSTATSERIALNO	LABEL	11020	Pstat Serial Number
CTRLMODE	IQUANT	1	Control Mode
IESTAB	IQUANT	0	I/E Stability
CASPEED	IQUANT	1	Control Amp Speed
CONVENTION	IQUANT	1	Current Convention
ICHRANGE	IQUANT	2	Ich Range
ICHRANGEMODE	TOGGLE	F	Ich Auto Range
ICHOFFSETENABLE	TOGGLE	T	Ich Offset Enable
ICHOFFSET	QUANT	0	Ich Offset (V)
ICHFILTER	IQUANT	3	Ich Filter
VCHRANGE	IQUANT	2	Vch Range
VCHRANGEMODE	TOGGLE	F	Vch Auto Range
VCHOFFSETENABLE	TOGGLE	T	Vch Offset Enable
VCHOFFSET	QUANT	0	Vch Offset (V)
VCHFILTER	IQUANT	3	Vch Filter
ACHRANGE	IQUANT	2	Ach Range
ACHOFFSETENABLE	TOGGLE	F	Ach Offset Enable
ACHOFFSET	QUANT	0	Ach Offset (V)
ACHFILTER	IQUANT	3	Ach Filter
IERANGELOWERLIMIT	IQUANT	1	I/E Range Lower Limit
IERANGEMODE	TOGGLE	F	I/E AutoRange
IERANGE	IQUANT	6	I/E Range
POSFEEDENABLE	TOGGLE	F	Positive Feedback IR Comp
POSFEEDRESISTANCE	QUANT	0	Positive Feedback Resistance (ohm)
ACHSELECT	IQUANT	0	Ach Select
CABLEID	IQUANT	14	Cable ID
DCCALDATE	LABEL	8/19/2019	DC Calibration Date
ACCALDATE	LABEL	8/19/2019	AC Calibration Date
THERMOSELECT	IQUANT	1	Thermo Select
FRAMEWORKVERSION	QUANT	6.33	Framework Version
INSTRUMENTVERSION	LABEL	3.50	Instrument Version
ZCURVE	TABLE
	Pt	Time	Freq	Zreal	Zimag	Zsig	Zmod	Zphz	Idc	Vdc	IERange
	#	s	Hz	ohm	ohm	V	ohm	°	A	V	#
	0	1	1000078	1903.943	-873.2548	1	2094.654	-24.63884	-4.762248E-006	0.0149529	8
	1	3	794390.6	2043.419	-776.6609	1	2186.038	-20.81076	-2.189727E-006	0.014483	8
	2	4	630984.4	2158.877	-676.8575	1	2262.496	-17.4074	2.013184E-006	0.0133969	8
	3	5	501234.4	2238.439	-590.1238	1	2314.92	-14.76896	-7.466385E-007	0.013454	8
	4	7	398109.4	2302.988	-511.2791	1	2359.059	-12.51705	-1.711895E-006	0.0137636	8
	5	8	316265.6	2361.667	-439.3094	1	2402.178	-10.53753	-1.96923E-006	0.0137124	8
	6	9	251203.1	2392.028	-388.1091	1	2423.309	-9.21599	7.262634E-007	0.0130949	8
	7	11	199546.9	2420.482	-331.9471	1	2443.138	-7.808881	8.164364E-007	0.0133074	8
	8	12	158578.1	2450.006	-297.6401	1	2468.019	-6.926661	-1.16871E-006	0.0137319	8
	9	14	125953.1	2485.545	-232.1968	1	2496.368	-5.337016	-1.094489E-006	0.0156869	7
	10	15	100078.1	2504.651	-229.2712	1	2515.123	-5.230176	5.376725E-008	0.0131846	7
	11	16	79453.13	2523.488	-226.7887	1	2533.658	-5.13544	4.519418E-008	0.013144	7
	12	18	63140.62	2544.279	-229.7005	1	2554.627	-5.158744	-4.031121E-008	0.0133624	7
	13	19	50203.12	2566.878	-236.8275	1	2577.78	-5.27135	7.315589E-008	0.0131258	7
	14	20	39890.62	2590.979	-248.3338	1	2602.852	-5.474822	-4.107995E-008	0.013358	7
	15	22	31640.63	2617.261	-264.2476	1	2630.567	-5.765239	-6.686001E-008	0.0133939	7
	16	23	25171.88	2644.87	-285.1276	1	2660.194	-6.152952	-1.311208E-008	0.0132704	7
	17	24	20015.62	2675.452	-311.673	1	2693.545	-6.64464	5.610367E-008	0.0131757	7
	18	26	15890.62	2708.248	-343.5111	1	2729.946	-7.228733	-3.86529E-008	0.0133614	7
	19	27	12609.37	2745.021	-382.2195	1	2771.504	-7.926954	-6.568475E-008	0.0133955	7
	20	28	10078.13	2783.743	-426.5813	1	2816.238	-8.712241	-3.980778E-008	0.0133564	7
	21	30	8015.625	2825.45	-480.3591	1	2865.992	-9.64869	-2.629659E-008	0.0132563	7
	22	31	6328.125	2873.884	-545.3863	1	2925.176	-10.74543	5.671475E-008	0.0131729	7
	23	32	5015.625	2925.271	-622.091	1	2990.686	-12.00573	1.084755E-008	0.013365	7
	24	34	3984.375	2979.845	-713.5313	1	3064.083	-13.46607	1.232584E-008	0.0132427	7
	25	35	3170.956	3039.246	-818.658	1	3147.573	-15.07551	-1.300099E-008	0.0132637	7
	26	36	2527.573	3101.01	-945.408	1	3241.922	-16.95494	-2.707167E-008	0.0132536	7
	27	38	1976.103	3173.168	-1114.873	1	3363.323	-19.3586	-7.720195E-008	0.013488	7
	28	39	1577.524	3241.073	-1302.963	1	3493.174	-21.90092	8.412862E-009	0.0133622	7
	29	40	1265.625	3312.414	-1527.01	1	3647.443	-24.74952	4.711656E-008	0.0131281	7
	30	42	998.264	3393.851	-1826.671	1	3854.212	-28.29045	3.501442E-008	0.0132319	7
	31	43	796.875	3477.7	-2184.646	1	4106.954	-32.1365	-7.314198E-008	0.0133696	7
	32	44	627.7902	3573.144	-2651.678	1	4449.579	-36.57961	1.343678E-008	0.0131976	7
	33	46	505.5147	3671.261	-3181.209	1	4857.803	-40.90947	-2.543708E-008	0.0132511	7
	34	47	397.9953	3802.737	-3905.632	1	5451.125	-45.76477	4.015624E-009	0.0132943	7
	35	48	315.5048	3954.656	-4784.6	1	6207.391	-50.42495	6.103257E-009	0.013294	7
	36	50	252.4038	4131.68	-5827.313	1	7143.413	-54.66261	4.924456E-009	0.013291	7
	37	51	198.6229	4372.39	-7214.822	1	8436.317	-58.78293	5.07095E-009	0.0132894	7
	38	53	158.3615	4661.61	-8836.81	1	9990.99	-62.18737	5.073053E-009	0.0132895	7
	39	54	125.558	5040.315	-10882.67	1	11993.22	-65.14875	6.147422E-010	0.0132294	6
	40	55	100.4464	5501.796	-13289.29	1	14383.15	-67.51035	1.539463E-010	0.0132284	6
	41	57	79.00281	6174.878	-16477.46	1	17596.47	-69.45667	9.169079E-010	0.0132299	6
	42	58	63.3446	6848.574	-20029.81	1	21168.29	-71.12347	4.886763E-011	0.0132231	6
	43	59	49.86702	8088.429	-24763.98	1	26051.43	-71.91189	8.684914E-012	0.0132238	6
	44	61	39.72458	9396.858	-30309.48	1	31732.72	-72.77498	4.767032E-010	0.0132257	6
	45	62	31.6723	11175.72	-36907.41	1	38562.34	-73.15346	3.351636E-010	0.0132245	6
	46	63	24.93351	13555.98	-45362.01	1	47344.23	-73.36176	-1.968218E-010	0.0132253	6
	47	65	19.86229	16561.69	-55102.12	1	57537.23	-73.27114	4.466206E-010	0.0132242	6
	48	66	15.83615	20221.75	-66793.46	1	69787.43	-73.15629	-9.680141E-010	0.0132265	6
	49	68	12.40079	25814.54	-81556.69	1	85544.63	-72.43624	-9.137314E-010	0.013226	6
	50	69	9.93114	31804.77	-97768.3	1	102811.4	-71.9799	-3.35531E-010	0.0132298	6
	51	71	7.944915	39609.03	-116634.9	1	123177	-71.2426	3.031565E-010	0.0132239	5
	52	72	6.317385	49571.89	-139547.1	1	148090.4	-70.44323	4.136701E-010	0.0132292	5
	53	74	5.008013	62248.43	-166910.5	1	178140.4	-69.54726	4.714522E-012	0.013241	5
	54	77	3.945707	78378.18	-199703.7	1	214533.7	-68.57137	-3.801858E-010	0.0132276	5
	55	79	3.158693	97004.7	-235135.7	1	254359.4	-67.5815	-5.323456E-011	0.0132336	5
	56	83	2.504006	120308.8	-277676.8	1	302619.5	-66.5744	-2.984317E-010	0.0132393	5
	57	85	1.998082	147092.5	-324569.6	1	356344.8	-65.62032	1.003078E-010	0.0132172	5
	58	88	1.584686	181020	-381393.8	1	422172.3	-64.6097	-2.002429E-010	0.0131825	5
	59	92	1.266892	218142.2	-442857.2	1	493668.4	-63.7761	4.553998E-011	0.0132225	5
	60	96	0.999041	265897.3	-520013.8	1	584051.1	-62.9181	-4.539169E-010	0.0132168	5
