EXPLAIN
TAG	EISPOT
TITLE	LABEL	Potentiostatic EIS	Test &Identifier
DATE	LABEL	8/14/2018	Date
TIME	LABEL	5:38:54	Time
NOTES	NOTES	1	&Notes...
	
PSTAT	PSTAT	REF600-11020	Potentiostat
VDC	POTEN	0.00000E+000	T	DC &Voltage (V)
FREQINIT	QUANT	1.00000E+006	Initial Fre&q. (Hz)
FREQFINAL	QUANT	1.00000E+000	Final Fre&q. (Hz)
PTSPERDEC	QUANT	1.00000E+001	Points/&decade
VAC	QUANT	2.50000E+001	AC &Voltage (mV rms)
AREA	QUANT	1.00000E-002	&Area (cm^2)
CONDIT	TWOPARAM	T	5.00000E+000	0.00000E+000	Conditionin&g	Time(s)	E(V)
DELAY	TWOPARAM	T	5.00000E+000	0.00000E+000	Init. De&lay	Time(s)	Stab.(mV/s)
SPEED	SELECTOR	0	&Optimize for:
ZGUESS	QUANT	1.00000E+005	E&stimated Z (ohms)
OCVCURVE	TABLE	19
	Pt	T	Vf	Vm	Ach	Over
	#	s	V vs. Ref.	V	V	bits
	0	0.258333	2.37129E-002	2.37129E-002	5.55399E-004	...........
	1	0.516667	2.37365E-002	2.49509E-002	5.58166E-004	...........
	2	0.775	2.38855E-002	2.63240E-002	5.60532E-004	...........
	3	1.03333	2.43192E-002	2.76058E-002	5.63699E-004	...........
	4	1.29167	2.51170E-002	2.88605E-002	5.62599E-004	...........
	5	1.55	2.62057E-002	3.00822E-002	5.57199E-004	...........
	6	1.80833	2.74399E-002	3.12553E-002	5.60632E-004	...........
	7	2.06667	2.87042E-002	3.23996E-002	5.63632E-004	...........
	8	2.325	2.99413E-002	3.35118E-002	5.63666E-004	...........
	9	2.58333	3.11347E-002	3.45755E-002	5.68699E-004	...........
	10	2.84167	3.22827E-002	3.54972E-002	5.66566E-004	...........
	11	3.1	3.33788E-002	3.63472E-002	5.65366E-004	...........
	12	3.35833	3.44128E-002	3.73704E-002	5.69166E-004	...........
	13	3.61667	3.53961E-002	3.85697E-002	5.67399E-004	...........
	14	3.875	3.63740E-002	3.96353E-002	5.64832E-004	...........
	15	4.13333	3.73889E-002	4.06186E-002	5.66699E-004	...........
	16	4.39167	3.84404E-002	4.16792E-002	5.68799E-004	...........
	17	4.65	3.94976E-002	4.25422E-002	5.69132E-004	...........
	18	4.90833	4.05307E-002	4.34998E-002	5.67166E-004	...........
EOC	QUANT	0.0405307	Open Circuit (V)
PSTATMODEL	IQUANT	4	Pstat Model
PSTATSECTION	LABEL	REF600-11020	Pstat Section
PSTATSERIALNO	LABEL	11020	Pstat Serial Number
CTRLMODE	IQUANT	1	Control Mode
IESTAB	IQUANT	0	I/E Stability
CASPEED	IQUANT	1	Control Amp Speed
CONVENTION	IQUANT	1	Current Convention
ICHRANGE	IQUANT	2	Ich Range
ICHRANGEMODE	TOGGLE	F	Ich Auto Range
ICHOFFSETENABLE	TOGGLE	T	Ich Offset Enable
ICHOFFSET	QUANT	0	Ich Offset (V)
ICHFILTER	IQUANT	3	Ich Filter
VCHRANGE	IQUANT	2	Vch Range
VCHRANGEMODE	TOGGLE	F	Vch Auto Range
VCHOFFSETENABLE	TOGGLE	T	Vch Offset Enable
VCHOFFSET	QUANT	0	Vch Offset (V)
VCHFILTER	IQUANT	3	Vch Filter
ACHRANGE	IQUANT	2	Ach Range
ACHOFFSETENABLE	TOGGLE	F	Ach Offset Enable
ACHOFFSET	QUANT	0	Ach Offset (V)
ACHFILTER	IQUANT	3	Ach Filter
IERANGELOWERLIMIT	IQUANT	1	I/E Range Lower Limit
IERANGEMODE	TOGGLE	F	I/E AutoRange
IERANGE	IQUANT	5	I/E Range
POSFEEDENABLE	TOGGLE	F	Positive Feedback IR Comp
POSFEEDRESISTANCE	QUANT	0	Positive Feedback Resistance (ohm)
ACHSELECT	IQUANT	0	Ach Select
CABLEID	IQUANT	14	Cable ID
DCCALDATE	LABEL	8/19/2019	DC Calibration Date
ACCALDATE	LABEL	8/19/2019	AC Calibration Date
THERMOSELECT	IQUANT	1	Thermo Select
FRAMEWORKVERSION	QUANT	6.33	Framework Version
INSTRUMENTVERSION	LABEL	3.50	Instrument Version
ZCURVE	TABLE
	Pt	Time	Freq	Zreal	Zimag	Zsig	Zmod	Zphz	Idc	Vdc	IERange
	#	s	Hz	ohm	ohm	V	ohm	°	A	V	#
	0	1	1000078	2284.742	-1698.451	1	2846.89	-36.62669	1.809989E-006	0.0429433	8
	1	2	794390.6	2579.726	-1748.782	1	3116.604	-34.13314	2.139436E-006	0.0418435	8
	2	2	630984.4	2863.116	-1763.511	1	3362.649	-31.63063	4.224921E-007	0.0419562	8
	3	2	501234.4	3174.818	-1763.147	1	3631.551	-29.04576	-1.622126E-007	0.0420312	8
	4	3	398109.4	3458.066	-1758.146	1	3879.343	-26.94963	-3.297213E-006	0.0427367	8
	5	3	316265.6	3790.465	-1700.177	1	4154.302	-24.15817	-4.338043E-006	0.0428838	8
	6	3	251203.1	4081.681	-1643.866	1	4400.275	-21.93674	1.654752E-007	0.0421357	8
	7	4	199546.9	4336.654	-1578.43	1	4614.977	-20.0002	3.179605E-008	0.0421289	8
	8	4	158578.1	4709.732	-1543.935	1	4956.341	-18.15008	-6.18456E-009	0.0421314	8
	9	4	125953.1	4870.382	-1256.311	1	5029.805	-14.4641	-9.955053E-007	0.0441903	7
	10	4	100078.1	5039.626	-1162.599	1	5171.989	-12.99039	-1.126949E-008	0.042054	7
	11	5	79453.13	5216.949	-1031.241	1	5317.896	-11.18158	-4.452562E-008	0.0419991	7
	12	5	63140.62	5348.444	-923.7902	1	5427.637	-9.79952	1.222534E-007	0.0418087	7
	13	5	50203.12	5451.2	-828.7729	1	5513.841	-8.64476	-7.958038E-008	0.042225	7
	14	6	39890.62	5536.119	-749.6689	1	5586.646	-7.711751	7.437183E-008	0.0418293	7
	15	6	31640.63	5604.22	-691.5638	1	5646.728	-7.034767	-4.421462E-008	0.0419956	7
	16	6	25171.88	5669.039	-650.8632	1	5706.279	-6.54946	-1.146643E-008	0.0420376	7
	17	7	20015.62	5709.854	-625.2146	1	5743.981	-6.248849	-3.19989E-008	0.0419742	7
	18	7	15890.62	5771.016	-623.6925	1	5804.62	-6.168202	3.711051E-008	0.0418561	7
	19	7	12609.37	5819.138	-639.5593	1	5854.178	-6.271987	-3.093782E-008	0.0420444	7
	20	8	10078.13	5863.53	-680.8363	1	5902.925	-6.623168	-3.039869E-008	0.0419673	7
	21	8	8015.625	5913.065	-727.0344	1	5957.594	-7.009558	3.714332E-008	0.0418537	7
	22	8	6328.125	5964.168	-814.3139	1	6019.502	-7.774769	9.924553E-008	0.041897	7
	23	9	5015.625	6008.525	-933.0324	1	6080.537	-8.826665	5.024718E-008	0.041967	8
	24	9	3984.375	6078.627	-1074.935	1	6172.94	-10.02842	-5.65538E-008	0.042043	7
	25	10	3170.956	6139.912	-1262.071	1	6268.28	-11.61547	-1.968232E-009	0.0419754	7
	26	11	2527.573	6205.689	-1490.505	1	6382.177	-13.50568	4.053111E-008	0.0419226	7
	27	11	1976.103	6290.357	-1800.971	1	6543.095	-15.97677	3.44892E-008	0.0418483	7
	28	11	1577.524	6399.705	-2148.826	1	6750.828	-18.56049	6.19406E-008	0.0418772	7
	29	12	1265.625	6474.032	-2600.108	1	6976.65	-21.88143	1.232244E-007	0.0417943	7
	30	12	998.264	6599.941	-3174.112	1	7323.539	-25.68431	1.022496E-007	0.0418943	7
	31	12	796.875	6743.3	-3838.527	1	7759.277	-29.65008	-5.919278E-008	0.042042	7
	32	13	627.7902	6922.374	-4706.097	1	8370.58	-34.20938	-1.710226E-008	0.0419415	7
	33	13	505.5147	7133.676	-5665.585	1	9109.785	-38.4567	-5.972895E-008	0.042042	7
	34	13	397.9953	7408.15	-6966.335	1	10169.1	-43.23951	-2.675273E-009	0.0419433	6
	35	14	315.5048	7733.741	-8526.286	1	11511.22	-47.7905	-2.446323E-009	0.0419419	6
	36	14	252.4038	8116.794	-10356.39	1	13158.16	-51.91251	-2.012643E-009	0.0419404	6
	37	14	198.6229	8633.78	-12773.91	1	15418.01	-55.94556	-1.683294E-009	0.0419399	6
	38	14	158.3615	9245.507	-15584.74	1	18120.8	-59.32184	-1.167442E-009	0.0419383	6
	39	15	125.558	10050.55	-19117.97	1	21598.85	-62.26855	-1.835369E-009	0.0419404	6
	40	15	100.4464	11021.8	-23301.47	1	25776.71	-64.68544	-3.043369E-009	0.0419396	6
	41	15	79.00281	12405.57	-28714.04	1	31279.29	-66.6338	-2.994311E-009	0.0419391	6
	42	16	63.3446	14685.43	-34905.97	1	37869.36	-67.18282	-1.625754E-009	0.0419342	6
	43	16	49.86702	17099.8	-42997.52	1	46272.99	-68.31264	-8.023687E-010	0.0419324	6
	44	17	39.72458	19936.14	-51952.83	1	55646.62	-69.00642	-1.395216E-009	0.0419375	6
	45	17	31.6723	24138.05	-62674.6	1	67162.13	-68.93667	-2.14082E-009	0.041936	6
	46	17	24.93351	30159.75	-76451.2	1	82185.14	-68.47092	-2.441129E-009	0.0419342	6
	47	18	19.86229	37796.16	-91452.81	1	98955.4	-67.54538	-2.238979E-009	0.041936	6
	48	18	15.83615	47638.53	-107474.1	1	117559	-66.0944	-3.152831E-009	0.0419393	5
	49	18	12.40079	60473.53	-127815.7	1	141399.8	-64.67973	2.627356E-010	0.0419318	5
	50	19	9.93114	75399.13	-150367	1	168212	-63.36926	-2.576409E-009	0.041931	5
	51	19	7.944915	93144.71	-173246.4	1	196698.4	-61.73562	-3.429236E-009	0.0419404	5
	52	20	6.317385	116138.5	-198542.1	1	230015.4	-59.67422	-2.789987E-009	0.0419465	5
	53	20	5.008013	142857.1	-226240.9	1	267568.9	-57.73012	-2.217957E-009	0.0419362	5
	54	22	3.945707	173414.2	-255800	1	309040.7	-55.86552	-1.933805E-009	0.0419227	5
	55	23	3.158693	205244.2	-286424.1	1	352369.1	-54.37558	-1.580865E-009	0.0419325	5
	56	25	2.504006	241183	-320138.6	1	400821.7	-53.0067	-1.645319E-009	0.0419355	5
	57	26	1.998082	278934	-356464.6	1	452627	-51.95677	-1.865727E-009	0.04189	5
	58	27	1.584686	318384.8	-397739.2	1	509475.5	-51.32321	-1.654536E-009	0.0419281	5
	59	29	1.266892	360304	-443341.3	1	571288.4	-50.89919	-1.463855E-009	0.0419586	5
	60	32	0.999041	407607.9	-501735.7	1	646438.6	-50.90974	-1.325108E-009	0.04197	5
