EXPLAIN
TAG	EISPOT
TITLE	LABEL	Potentiostatic IDE	Test &Identifier
DATE	LABEL	9/4/2019	Date
TIME	LABEL	15:18:14	Time
NOTES	NOTES	1	&Notes...
	
PSTAT	PSTAT	REF600-11020	Potentiostat
VDC	POTEN	0.00000E+000	T	DC &Voltage (V)
FREQINIT	QUANT	1.00000E+006	Initial Fre&q. (Hz)
FREQFINAL	QUANT	1.00000E+000	Final Fre&q. (Hz)
PTSPERDEC	QUANT	1.00000E+001	Points/&decade
VAC	QUANT	2.50000E+001	AC &Voltage (mV rms)
AREA	QUANT	1.00000E-002	&Area (cm^2)
CONDIT	TWOPARAM	T	5.00000E+000	0.00000E+000	Conditionin&g	Time(s)	E(V)
DELAY	TWOPARAM	T	5.00000E+000	0.00000E+000	Init. De&lay	Time(s)	Stab.(mV/s)
SPEED	SELECTOR	1	&Optimize for:
ZGUESS	QUANT	1.00000E+007	E&stimated Z (ohms)
OCVCURVE	TABLE	19
	Pt	T	Vf	Vm	Ach	Over
	#	s	V vs. Ref.	V	V	bits
	0	0.258333	5.66404E-003	5.66404E-003	5.82279E-004	...........
	1	0.516667	5.64408E-003	4.61893E-003	5.81346E-004	...........
	2	0.775	5.52220E-003	3.66612E-003	5.84412E-004	...........
	3	1.03333	5.18788E-003	3.17332E-003	5.88812E-004	...........
	4	1.29167	4.63924E-003	3.20898E-003	5.83446E-004	...........
	5	1.55	4.01270E-003	2.00210E-003	5.85712E-004	...........
	6	1.80833	3.40731E-003	1.15484E-003	5.86079E-004	...........
	7	2.06667	2.78374E-003	5.60790E-004	5.84579E-004	...........
	8	2.325	2.09385E-003	1.00975E-004	5.81512E-004	...........
	9	2.58333	1.38685E-003	-2.76320E-004	5.82046E-004	...........
	10	2.84167	7.47423E-004	-6.31974E-004	5.83546E-004	...........
	11	3.1	2.15341E-004	-9.49615E-004	5.79346E-004	...........
	12	3.35833	-2.19903E-004	-1.24987E-003	5.83379E-004	...........
	13	3.61667	-5.88371E-004	-1.54180E-003	5.80879E-004	...........
	14	3.875	-9.16391E-004	-1.80228E-003	5.80679E-004	...........
	15	4.13333	-1.21956E-003	-2.06151E-003	5.83546E-004	...........
	16	4.39167	-1.50468E-003	-2.29607E-003	5.86612E-004	...........
	17	4.65	-1.77417E-003	-2.52758E-003	5.87146E-004	...........
	18	4.90833	-2.02927E-003	-2.74516E-003	5.89279E-004	...........
EOC	QUANT	-0.0020293	Open Circuit (V)
PSTATMODEL	IQUANT	4	Pstat Model
PSTATSECTION	LABEL	REF600-11020	Pstat Section
PSTATSERIALNO	LABEL	11020	Pstat Serial Number
CTRLMODE	IQUANT	1	Control Mode
IESTAB	IQUANT	0	I/E Stability
CASPEED	IQUANT	1	Control Amp Speed
CONVENTION	IQUANT	1	Current Convention
ICHRANGE	IQUANT	2	Ich Range
ICHRANGEMODE	TOGGLE	F	Ich Auto Range
ICHOFFSETENABLE	TOGGLE	T	Ich Offset Enable
ICHOFFSET	QUANT	0	Ich Offset (V)
ICHFILTER	IQUANT	3	Ich Filter
VCHRANGE	IQUANT	2	Vch Range
VCHRANGEMODE	TOGGLE	F	Vch Auto Range
VCHOFFSETENABLE	TOGGLE	T	Vch Offset Enable
VCHOFFSET	QUANT	0	Vch Offset (V)
VCHFILTER	IQUANT	3	Vch Filter
ACHRANGE	IQUANT	2	Ach Range
ACHOFFSETENABLE	TOGGLE	F	Ach Offset Enable
ACHOFFSET	QUANT	0	Ach Offset (V)
ACHFILTER	IQUANT	1	Ach Filter
IERANGELOWERLIMIT	IQUANT	1	I/E Range Lower Limit
IERANGEMODE	TOGGLE	F	I/E AutoRange
IERANGE	IQUANT	2	I/E Range
POSFEEDENABLE	TOGGLE	F	Positive Feedback IR Comp
POSFEEDRESISTANCE	QUANT	0	Positive Feedback Resistance (ohm)
ACHSELECT	IQUANT	0	Ach Select
CABLEID	IQUANT	14	Cable ID
DCCALDATE	LABEL	8/19/2019	DC Calibration Date
ACCALDATE	LABEL	8/19/2019	AC Calibration Date
THERMOSELECT	IQUANT	1	Thermo Select
FRAMEWORKVERSION	QUANT	6.33	Framework Version
INSTRUMENTVERSION	LABEL	3.50	Instrument Version
ZCURVE	TABLE
	Pt	Time	Freq	Zreal	Zimag	Zsig	Zmod	Zphz	Idc	Vdc	IERange
	#	s	Hz	ohm	ohm	V	ohm	°	A	V	#
	0	2	1000078	2046.332	-2384.031	1	3141.828	-49.35887	-1.432164E-007	0.0029517	8
	1	3	794390.6	2567.585	-2338.846	1	3473.139	-42.3308	4.580052E-007	-0.0002868	8
	2	4	630984.4	3020.746	-2217.969	1	3747.572	-36.2878	-1.627505E-006	-0.0066015	8
	3	6	501234.4	3409.949	-2026.186	1	3966.507	-30.71871	-1.216576E-006	-0.0062692	8
	4	7	398109.4	3721.351	-1831.427	1	4147.6	-26.20366	1.213942E-006	7.14915E-005	8
	5	8	316265.6	3950.806	-1651.962	1	4282.271	-22.69141	8.256106E-007	0.0010469	8
	6	10	251203.1	4135.036	-1490.436	1	4395.443	-19.82123	-1.014823E-006	0.000434	8
	7	11	199546.9	4298.091	-1353.186	1	4506.073	-17.47578	1.125586E-006	-0.0002318	8
	8	12	158578.1	4408.383	-1265.813	1	4586.516	-16.02077	-9.687936E-007	0.0004133	8
	9	14	125953.1	4501.999	-1260.835	1	4675.222	-15.64549	1.821173E-007	-0.0001498	7
	10	15	100078.1	4601.899	-1223.749	1	4761.831	-14.89161	-3.055808E-008	-0.0005272	7
	11	17	79453.13	4707.155	-1225.679	1	4864.113	-14.59495	-1.483879E-008	-0.0004799	7
	12	18	63140.62	4812.383	-1260.04	1	4974.609	-14.67253	-2.135996E-008	-0.0005468	7
	13	19	50203.12	4921.007	-1327.038	1	5096.797	-15.09184	1.432927E-008	-0.000403	7
	14	21	39890.62	5036.61	-1428.32	1	5235.221	-15.83268	-8.426943E-009	-0.000422	7
	15	22	31640.63	5162.772	-1565.553	1	5394.921	-16.86934	-6.018814E-009	-0.0004671	7
	16	23	25171.88	5301.143	-1740.038	1	5579.413	-18.17181	1.581699E-008	-0.0004027	7
	17	25	20015.62	5456.365	-1959.647	1	5797.598	-19.75569	-2.102554E-008	-0.0005546	7
	18	26	15890.62	5632.46	-2228.785	1	6057.4	-21.58888	-3.582518E-009	-0.0004365	7
	19	27	12609.37	5831.936	-2552.155	1	6365.922	-23.63501	4.70212E-008	-0.0002136	7
	20	29	10078.13	6052.874	-2930.555	1	6724.985	-25.83438	2.670378E-008	-0.0002859	7
	21	30	8015.625	6311.875	-3389.213	1	7164.254	-28.23394	-7.841715E-009	-0.0004233	7
	22	31	6328.125	6618.958	-3952.749	1	7709.399	-30.84506	-8.5848E-009	-0.0004239	7
	23	33	5015.625	6969.159	-4611.492	1	8356.736	-33.4926	5.275967E-008	-0.0001987	7
	24	34	3984.375	7375.333	-5384.857	1	9131.935	-36.13382	-6.908163E-009	-0.0004715	7
	25	35	3170.956	7824.34	-6320.851	1	10058.5	-38.93282	-2.779142E-010	-0.0004469	6
	26	37	2527.573	8369.374	-7385.232	1	11161.9	-41.42555	-2.040805E-009	-0.0004298	6
	27	38	1976.103	9064.555	-8754.129	1	12601.62	-44.00193	4.021818E-009	-0.0002667	6
	28	39	1577.524	9815.49	-10237.83	1	14182.98	-46.20652	-1.307015E-009	-0.0004744	6
	29	40	1265.625	10672.06	-11947.91	1	16020.15	-48.22828	-6.424006E-010	-0.0004564	6
	30	42	998.264	11768.96	-14113.3	1	18376.45	-50.17554	1.742071E-009	-0.0004115	6
	31	43	796.875	12994.2	-16534.08	1	21029.15	-51.83607	-2.298377E-009	-0.000462	6
	32	44	627.7902	14524.33	-19537.51	1	24344.82	-53.3726	-2.700832E-009	-0.0005056	6
	33	46	505.5147	16164.61	-22772.82	1	27926.62	-54.6321	1.083017E-009	-0.0006398	6
	34	47	397.9953	18317.64	-26880.41	1	32528.33	-55.72755	6.376566E-010	-0.0004399	6
	35	48	315.5048	20785.25	-31607.54	1	37829.39	-56.67091	8.772222E-010	-0.0004372	6
	36	50	252.4038	23580.31	-36919.71	1	43807.49	-57.43397	7.189187E-010	-0.0004398	6
	37	51	198.6229	27112.62	-43583.3	1	51328.34	-58.11478	7.663894E-010	-0.0004338	6
	38	52	158.3615	31037.89	-50938.52	1	59649.67	-58.64518	8.271903E-010	-0.0004383	6
	39	54	125.558	35730.73	-59748.61	1	69617.39	-59.11983	7.118843E-010	-0.0004395	6
	40	55	100.4464	40948.78	-69559.3	1	80717.41	-59.51516	6.211188E-010	-0.0004402	6
	41	57	79.00281	47441.09	-81996.44	1	94731.59	-59.9474	7.131172E-010	-0.0004432	6
	42	58	63.3446	54253.59	-95714.2	1	110021.2	-60.45419	2.125926E-010	-0.0004358	5
	43	60	49.86702	62782.59	-112186.2	1	128558.9	-60.76738	1.873304E-010	-0.0004372	5
	44	61	39.72458	72305.09	-131525.9	1	150090.3	-61.20064	1.650808E-010	-0.0004351	5
	45	63	31.6723	82927.64	-153994.7	1	174903.9	-61.6971	1.442396E-010	-0.0004348	5
	46	65	24.93351	96024.8	-182229.5	1	205981.5	-62.21328	7.453606E-012	-0.0004419	5
	47	67	19.86229	109917.5	-214465	1	240991.9	-62.86396	2.624482E-010	-0.0004356	5
	48	70	15.83615	126890.8	-253336.7	1	283338.6	-63.39471	5.505841E-010	-0.0004442	5
	49	71	12.40079	147438.1	-302381.8	1	336411.6	-64.00664	-8.818952E-011	-0.0004332	5
	50	73	9.93114	168975.8	-356810	1	394798.9	-64.659	-3.029109E-010	-0.000439	5
	51	75	7.944915	194728.4	-422556.6	1	465266.8	-65.25815	1.995875E-010	-0.0004359	5
	52	76	6.317385	226919.2	-502687.5	1	551531.5	-65.70501	2.346854E-010	-0.0004547	5
	53	78	5.008013	266899.2	-600121.1	1	656795.7	-66.02326	1.883649E-010	-0.0004305	5
	54	81	3.945707	316410.1	-719710.4	1	786192.4	-66.26801	1.254932E-010	-0.0004415	5
	55	83	3.158693	374954.6	-853944.2	1	932636.9	-66.29441	1.345326E-010	-0.0004408	5
	56	86	2.504006	449900.3	-1020215	1	1115011	-66.2032	3.454192E-011	-0.0004359	4
	57	89	1.998082	539948.2	-1205497	1	1320896	-65.87215	1.444766E-010	-0.0004684	4
	58	92	1.584686	653565.4	-1436020	1	1577752	-65.52863	5.909585E-011	-0.0004837	4
	59	96	1.266892	791334.4	-1686339	1	1862780	-64.86114	5.943888E-011	-0.0004127	4
	60	101	0.999041	976040	-1992183	1	2218434	-63.89815	1.05963E-010	-0.0004716	4
