EXPLAIN
TAG	EISPOT
TITLE	LABEL	Potentiostatic IDE	Test &Identifier
DATE	LABEL	9/18/2019	Date
TIME	LABEL	9:13:42	Time
NOTES	NOTES	1	&Notes...
	
PSTAT	PSTAT	REF600-11020	Potentiostat
VDC	POTEN	0.00000E+000	T	DC &Voltage (V)
FREQINIT	QUANT	1.00000E+006	Initial Fre&q. (Hz)
FREQFINAL	QUANT	1.00000E+000	Final Fre&q. (Hz)
PTSPERDEC	QUANT	1.00000E+001	Points/&decade
VAC	QUANT	2.50000E+001	AC &Voltage (mV rms)
AREA	QUANT	1.00000E-002	&Area (cm^2)
CONDIT	TWOPARAM	T	5.00000E+000	0.00000E+000	Conditionin&g	Time(s)	E(V)
DELAY	TWOPARAM	T	5.00000E+000	0.00000E+000	Init. De&lay	Time(s)	Stab.(mV/s)
SPEED	SELECTOR	1	&Optimize for:
ZGUESS	QUANT	1.00000E+007	E&stimated Z (ohms)
OCVCURVE	TABLE	19
	Pt	T	Vf	Vm	Ach	Over
	#	s	V vs. Ref.	V	V	bits
	0	0.258333	-2.99604E-003	-2.99604E-003	5.19766E-004	...........
	1	0.516667	-3.00771E-003	-3.60715E-003	5.08967E-004	...........
	2	0.775	-3.07900E-003	-4.16573E-003	5.09900E-004	...........
	3	1.03333	-3.27898E-003	-4.68132E-003	5.10100E-004	...........
	4	1.29167	-3.63216E-003	-5.15732E-003	5.11567E-004	...........
	5	1.55	-4.09338E-003	-5.60340E-003	5.05067E-004	...........
	6	1.80833	-4.59322E-003	-6.02312E-003	5.12033E-004	...........
	7	2.06667	-5.08301E-003	-6.41418E-003	5.12833E-004	...........
	8	2.325	-5.54272E-003	-6.78493E-003	5.10633E-004	...........
	9	2.58333	-5.96981E-003	-7.13538E-003	5.07267E-004	...........
	10	2.84167	-6.36805E-003	-7.46670E-003	5.12700E-004	...........
	11	3.1	-6.74203E-003	-7.78801E-003	5.13767E-004	...........
	12	3.35833	-7.09549E-003	-8.08774E-003	5.04733E-004	...........
	13	3.61667	-7.43108E-003	-8.37631E-003	5.03200E-004	...........
	14	3.875	-7.75037E-003	-8.65058E-003	5.12600E-004	...........
	15	4.13333	-8.05441E-003	-8.91534E-003	5.13466E-004	...........
	16	4.39167	-8.34423E-003	-9.16338E-003	5.00367E-004	...........
	17	4.65	-8.62078E-003	-9.40471E-003	5.06033E-004	...........
	18	4.90833	-8.88481E-003	-9.63571E-003	5.13167E-004	...........
EOC	QUANT	-0.0088848	Open Circuit (V)
PSTATMODEL	IQUANT	4	Pstat Model
PSTATSECTION	LABEL	REF600-11020	Pstat Section
PSTATSERIALNO	LABEL	11020	Pstat Serial Number
CTRLMODE	IQUANT	1	Control Mode
IESTAB	IQUANT	0	I/E Stability
CASPEED	IQUANT	1	Control Amp Speed
CONVENTION	IQUANT	1	Current Convention
ICHRANGE	IQUANT	2	Ich Range
ICHRANGEMODE	TOGGLE	F	Ich Auto Range
ICHOFFSETENABLE	TOGGLE	T	Ich Offset Enable
ICHOFFSET	QUANT	0	Ich Offset (V)
ICHFILTER	IQUANT	3	Ich Filter
VCHRANGE	IQUANT	2	Vch Range
VCHRANGEMODE	TOGGLE	F	Vch Auto Range
VCHOFFSETENABLE	TOGGLE	T	Vch Offset Enable
VCHOFFSET	QUANT	0	Vch Offset (V)
VCHFILTER	IQUANT	3	Vch Filter
ACHRANGE	IQUANT	2	Ach Range
ACHOFFSETENABLE	TOGGLE	F	Ach Offset Enable
ACHOFFSET	QUANT	0	Ach Offset (V)
ACHFILTER	IQUANT	3	Ach Filter
IERANGELOWERLIMIT	IQUANT	1	I/E Range Lower Limit
IERANGEMODE	TOGGLE	F	I/E AutoRange
IERANGE	IQUANT	3	I/E Range
POSFEEDENABLE	TOGGLE	F	Positive Feedback IR Comp
POSFEEDRESISTANCE	QUANT	0	Positive Feedback Resistance (ohm)
ACHSELECT	IQUANT	0	Ach Select
CABLEID	IQUANT	14	Cable ID
DCCALDATE	LABEL	8/19/2019	DC Calibration Date
ACCALDATE	LABEL	8/19/2019	AC Calibration Date
THERMOSELECT	IQUANT	1	Thermo Select
FRAMEWORKVERSION	QUANT	6.33	Framework Version
INSTRUMENTVERSION	LABEL	3.50	Instrument Version
ZCURVE	TABLE
	Pt	Time	Freq	Zreal	Zimag	Zsig	Zmod	Zphz	Idc	Vdc	IERange
	#	s	Hz	ohm	ohm	V	ohm	°	A	V	#
	0	2	1000078	2250.676	-1900.897	1	2946.006	-40.18408	-1.987939E-006	-0.007097	8
	1	3	794390.6	2635.174	-1882.078	1	3238.265	-35.53496	-6.671905E-007	-0.0067598	8
	2	5	630984.4	3008.707	-1796.029	1	3504.003	-30.83482	-6.999351E-007	-0.0069619	8
	3	6	501234.4	3340.369	-1649.323	1	3725.364	-26.27807	-4.249453E-007	-0.0073338	8
	4	7	398109.4	3595.095	-1465.311	1	3882.247	-22.17512	-1.089376E-006	-0.0070736	8
	5	9	316265.6	3841.724	-1305.665	1	4057.537	-18.77106	-1.181537E-006	-0.0072512	8
	6	10	251203.1	3987.256	-1152.59	1	4150.503	-16.12292	6.948744E-007	-0.0075624	8
	7	11	199546.9	4112.305	-1016.137	1	4235.987	-13.87957	-1.339641E-006	-0.0071192	8
	8	13	158578.1	4221.457	-876.2068	1	4311.431	-11.72583	-1.265146E-006	-0.0072459	8
	9	14	125953.1	4309.959	-756.6552	1	4375.875	-9.95736	3.896695E-007	-0.0084738	7
	10	15	100078.1	4366.632	-683.1413	1	4419.746	-8.891611	-2.288359E-008	-0.0074101	7
	11	17	79453.13	4426.032	-635.7255	1	4471.455	-8.173676	-3.330846E-008	-0.0074397	7
	12	18	63140.62	4479.258	-602.8678	1	4519.646	-7.665431	-2.339145E-008	-0.0074277	7
	13	19	50203.12	4529.959	-586.2835	1	4567.741	-7.374432	-2.365715E-008	-0.0074304	7
	14	21	39890.62	4583.24	-580.0426	1	4619.799	-7.212854	9.493081E-010	-0.0075222	7
	15	22	31640.63	4633.688	-595.306	1	4671.771	-7.320887	-3.069404E-008	-0.0074368	7
	16	24	25171.88	4688.285	-621.0779	1	4729.245	-7.546286	1.89315E-008	-0.0075331	7
	17	25	20015.62	4746.18	-661.1918	1	4792.014	-7.930851	-3.840372E-009	-0.0074577	7
	18	26	15890.62	4808.699	-714.9529	1	4861.558	-8.456733	-3.113315E-008	-0.0074396	7
	19	28	12609.37	4878.195	-785.5941	1	4941.047	-9.148477	-3.734338E-008	-0.0073539	7
	20	29	10078.13	4950.1	-866.3294	1	5025.337	-9.92694	-3.693396E-008	-0.0073605	7
	21	30	8015.625	5030.39	-974.528	1	5123.917	-10.96399	-3.008613E-008	-0.0074454	7
	22	32	6328.125	5121.877	-1104.984	1	5239.715	-12.17429	3.541879E-009	-0.0075285	7
	23	33	5015.625	5222.428	-1261.278	1	5372.577	-13.57761	-3.605415E-008	-0.0073588	7
	24	34	3984.375	5332.183	-1446.937	1	5525.016	-15.18214	-4.423286E-009	-0.0074672	7
	25	36	3170.956	5451.673	-1668.023	1	5701.144	-17.0123	7.047288E-008	-0.0075825	7
	26	37	2527.573	5583.927	-1929.449	1	5907.877	-19.06189	7.134643E-008	-0.0075817	7
	27	38	1976.103	5742.362	-2273.986	1	6176.224	-21.60365	7.167567E-008	-0.0075756	7
	28	39	1577.524	5902.746	-2651.692	1	6471.003	-24.19106	7.663355E-009	-0.0075357	7
	29	41	1265.625	6093.06	-3109.273	1	6840.538	-27.03511	-1.178977E-008	-0.0075056	7
	30	42	998.264	6283.06	-3681.607	1	7282.243	-30.3685	-3.642313E-008	-0.0073621	7
	31	43	796.875	6501.316	-4353.972	1	7824.588	-33.81047	-1.999682E-009	-0.0074638	7
	32	45	627.7902	6767.193	-5224.644	1	8549.375	-37.67011	9.528183E-010	-0.0075127	7
	33	46	505.5147	7027.699	-6196.82	1	9369.586	-41.40491	3.738162E-008	-0.0075472	7
	34	47	397.9953	7365.075	-7504.855	1	10515.09	-45.53858	1.271236E-009	-0.0075279	6
	35	49	315.5048	7739.802	-9076.286	1	11928.26	-49.54412	1.093504E-009	-0.0075298	6
	36	50	252.4038	8161.99	-10927.01	1	13638.83	-53.24192	1.707772E-009	-0.0075329	6
	37	51	198.6229	8698.205	-13377.77	1	15956.93	-56.96815	1.451091E-009	-0.0075312	6
	38	53	158.3615	9311.151	-16239.78	1	18719.72	-60.172	6.908309E-010	-0.0075284	6
	39	54	125.558	10085.1	-19842.98	1	22258.77	-63.05826	1.322494E-009	-0.0075319	6
	40	55	100.4464	11011.43	-24117.28	1	26512.16	-65.45958	1.404278E-009	-0.0075323	6
	41	57	79.00281	12320.3	-29704.69	1	32158.33	-67.4733	1.186427E-009	-0.0075341	6
	42	58	63.3446	13565.45	-36153.99	1	38615.18	-69.43326	6.251583E-010	-0.0075339	6
	43	59	49.86702	16027.16	-44336.99	1	47144.87	-70.12583	8.861284E-010	-0.0075367	6
	44	61	39.72458	18575.83	-54242.18	1	57334.76	-71.09567	1.039664E-009	-0.0075307	6
	45	62	31.6723	22155.49	-65793.17	1	69423.39	-71.38933	1.012485E-009	-0.0075341	6
	46	64	24.93351	27029.01	-80833.66	1	85232.91	-71.51119	7.347126E-010	-0.0075348	6
	47	65	19.86229	33138.65	-97819.3	1	103280.1	-71.28495	1.290534E-009	-0.0075306	6
	48	66	15.83615	41459.77	-117406.2	1	124511.5	-70.55029	1.140872E-010	-0.0075306	5
	49	68	12.40079	52628.74	-143418.7	1	152770.1	-69.84895	8.865595E-010	-0.0075287	5
	50	69	9.93114	66578.28	-170998.7	1	183502.6	-68.72656	2.942593E-010	-0.0075244	5
	51	71	7.944915	83996.82	-201369.1	1	218185.6	-67.35758	1.329457E-009	-0.0075293	5
	52	72	6.317385	107241.9	-237874.9	1	260931.6	-65.73257	9.269423E-010	-0.0075331	5
	53	74	5.008013	136694.9	-279007.8	1	310694.2	-63.89828	3.392075E-010	-0.0075289	5
	54	77	3.945707	173925.6	-325175.7	1	368767.3	-61.85916	7.274126E-011	-0.0075306	5
	55	79	3.158693	215982	-370915.6	1	429216.3	-59.788	2.858153E-010	-0.0075423	5
	56	83	2.504006	266725.8	-421645.3	1	498926.2	-57.68323	2.992395E-010	-0.0075203	5
	57	85	1.998082	321957.8	-472443.5	1	571716.4	-55.7266	6.628242E-010	-0.0075533	5
	58	88	1.584686	387422.9	-527812.8	1	654738.8	-53.72075	2.770575E-010	-0.0075775	5
	59	92	1.266892	452558.9	-584248.3	1	739023.4	-52.23863	5.979572E-010	-0.0075259	5
	60	96	0.999041	529752.8	-649430.3	1	838091.8	-50.79521	-1.924221E-011	-0.0075494	5
