EXPLAIN
TAG	EISPOT
TITLE	LABEL	Potentiostatic EIS	Test &Identifier
DATE	LABEL	8/14/2018	Date
TIME	LABEL	5:31:14	Time
NOTES	NOTES	1	&Notes...
	
PSTAT	PSTAT	REF600-11020	Potentiostat
VDC	POTEN	0.00000E+000	T	DC &Voltage (V)
FREQINIT	QUANT	1.00000E+006	Initial Fre&q. (Hz)
FREQFINAL	QUANT	1.00000E+000	Final Fre&q. (Hz)
PTSPERDEC	QUANT	1.00000E+001	Points/&decade
VAC	QUANT	2.50000E+001	AC &Voltage (mV rms)
AREA	QUANT	1.00000E-002	&Area (cm^2)
CONDIT	TWOPARAM	T	5.00000E+000	0.00000E+000	Conditionin&g	Time(s)	E(V)
DELAY	TWOPARAM	T	5.00000E+000	0.00000E+000	Init. De&lay	Time(s)	Stab.(mV/s)
SPEED	SELECTOR	0	&Optimize for:
ZGUESS	QUANT	1.00000E+005	E&stimated Z (ohms)
OCVCURVE	TABLE	19
	Pt	T	Vf	Vm	Ach	Over
	#	s	V vs. Ref.	V	V	bits
	0	0.258333	2.92547E-002	2.92547E-002	5.47199E-004	...........
	1	0.516667	2.92881E-002	3.10037E-002	5.43299E-004	...........
	2	0.775	2.94978E-002	3.28964E-002	5.46166E-004	...........
	3	1.03333	3.01039E-002	3.46131E-002	5.45133E-004	...........
	4	1.29167	3.12080E-002	3.62153E-002	5.44566E-004	...........
	5	1.55	3.26914E-002	3.77424E-002	5.42833E-004	...........
	6	1.80833	3.43363E-002	3.91478E-002	5.48133E-004	...........
	7	2.06667	3.59744E-002	4.05023E-002	5.43666E-004	...........
	8	2.325	3.75280E-002	4.17769E-002	5.47999E-004	...........
	9	2.58333	3.89819E-002	4.29988E-002	5.52532E-004	...........
	10	2.84167	4.03467E-002	4.41688E-002	5.46299E-004	...........
	11	3.1	4.16377E-002	4.52796E-002	5.52366E-004	...........
	12	3.35833	4.28662E-002	4.63543E-002	5.48699E-004	...........
	13	3.61667	4.40390E-002	4.73679E-002	5.52699E-004	...........
	14	3.875	4.51604E-002	4.83486E-002	5.50833E-004	...........
	15	4.13333	4.62327E-002	4.92716E-002	5.49866E-004	...........
	16	4.39167	4.72576E-002	5.01701E-002	5.49033E-004	...........
	17	4.65	4.82375E-002	5.10337E-002	5.51366E-004	...........
	18	4.90833	4.91757E-002	5.18629E-002	5.54533E-004	...........
EOC	QUANT	0.0491757	Open Circuit (V)
PSTATMODEL	IQUANT	4	Pstat Model
PSTATSECTION	LABEL	REF600-11020	Pstat Section
PSTATSERIALNO	LABEL	11020	Pstat Serial Number
CTRLMODE	IQUANT	1	Control Mode
IESTAB	IQUANT	0	I/E Stability
CASPEED	IQUANT	1	Control Amp Speed
CONVENTION	IQUANT	1	Current Convention
ICHRANGE	IQUANT	2	Ich Range
ICHRANGEMODE	TOGGLE	F	Ich Auto Range
ICHOFFSETENABLE	TOGGLE	T	Ich Offset Enable
ICHOFFSET	QUANT	0	Ich Offset (V)
ICHFILTER	IQUANT	3	Ich Filter
VCHRANGE	IQUANT	2	Vch Range
VCHRANGEMODE	TOGGLE	F	Vch Auto Range
VCHOFFSETENABLE	TOGGLE	T	Vch Offset Enable
VCHOFFSET	QUANT	0	Vch Offset (V)
VCHFILTER	IQUANT	3	Vch Filter
ACHRANGE	IQUANT	2	Ach Range
ACHOFFSETENABLE	TOGGLE	F	Ach Offset Enable
ACHOFFSET	QUANT	0	Ach Offset (V)
ACHFILTER	IQUANT	3	Ach Filter
IERANGELOWERLIMIT	IQUANT	1	I/E Range Lower Limit
IERANGEMODE	TOGGLE	F	I/E AutoRange
IERANGE	IQUANT	5	I/E Range
POSFEEDENABLE	TOGGLE	F	Positive Feedback IR Comp
POSFEEDRESISTANCE	QUANT	0	Positive Feedback Resistance (ohm)
ACHSELECT	IQUANT	0	Ach Select
CABLEID	IQUANT	14	Cable ID
DCCALDATE	LABEL	8/19/2019	DC Calibration Date
ACCALDATE	LABEL	8/19/2019	AC Calibration Date
THERMOSELECT	IQUANT	1	Thermo Select
FRAMEWORKVERSION	QUANT	6.33	Framework Version
INSTRUMENTVERSION	LABEL	3.50	Instrument Version
ZCURVE	TABLE
	Pt	Time	Freq	Zreal	Zimag	Zsig	Zmod	Zphz	Idc	Vdc	IERange
	#	s	Hz	ohm	ohm	V	ohm	°	A	V	#
	0	1	1000078	2331.032	-1693.332	1	2881.16	-35.99578	-1.275497E-007	0.0514678	8
	1	2	794390.6	2656.612	-1706.063	1	3157.252	-32.70839	-1.505904E-006	0.0511411	8
	2	2	630984.4	2984.814	-1648.501	1	3409.79	-28.9117	-9.145509E-007	0.0512092	8
	3	2	501234.4	3289.186	-1550.632	1	3636.372	-25.24075	-2.475902E-006	0.0514389	8
	4	3	398109.4	3548.126	-1425.826	1	3823.896	-21.89289	9.465314E-007	0.0508373	8
	5	3	316265.6	3735.855	-1271.046	1	3946.159	-18.78979	-2.511426E-006	0.0513051	8
	6	3	251203.1	3924.824	-1145.291	1	4088.513	-16.26761	3.814091E-006	0.0502019	8
	7	3	199546.9	4065.971	-996.348	1	4186.267	-13.76876	-4.086085E-007	0.0507939	8
	8	4	158578.1	4221.775	-858.5886	1	4308.197	-11.49555	1.001487E-006	0.0507601	8
	9	4	125953.1	4311.499	-703.167	1	4368.462	-9.262878	-1.323055E-006	0.0536459	7
	10	4	100078.1	4381.704	-626.5294	1	4426.27	-8.137428	-9.288374E-008	0.0509282	7
	11	5	79453.13	4440.91	-568.2515	1	4477.118	-7.291848	3.307404E-008	0.0506712	7
	12	5	63140.62	4493.707	-519.3748	1	4523.622	-6.592893	-6.583944E-008	0.0508949	7
	13	5	50203.12	4538.311	-482.6247	1	4563.901	-6.070281	-1.128513E-008	0.0507976	7
	14	6	39890.62	4582.362	-458.8238	1	4605.275	-5.717867	1.3026E-008	0.0506965	7
	15	6	31640.63	4620.026	-442.8564	1	4641.203	-5.475406	-1.751568E-008	0.0508192	7
	16	6	25171.88	4658.301	-442.5536	1	4679.275	-5.426996	1.905805E-008	0.050869	7
	17	7	20015.62	4691.641	-449.726	1	4713.146	-5.475465	-6.49699E-009	0.0508324	7
	18	7	15890.62	4725.443	-478.2173	1	4749.579	-5.778688	-2.726233E-008	0.0507685	7
	19	7	12609.37	4757.442	-514.428	1	4785.174	-6.171484	-5.135779E-008	0.0508095	7
	20	8	10078.13	4789.791	-561.1249	1	4822.546	-6.681756	3.226143E-008	0.0506559	7
	21	8	8015.625	4825.29	-633.2368	1	4866.664	-7.476367	7.674247E-008	0.0506168	7
	22	8	6328.125	4875.151	-736.096	1	4930.409	-8.586198	-3.809349E-008	0.0507875	7
	23	8	5015.625	4919.319	-856.744	1	4993.367	-9.87949	7.406481E-009	0.0507016	7
	24	9	3984.375	4975.599	-1009.202	1	5076.916	-11.46578	6.289059E-008	0.0506792	7
	25	9	3170.956	5018.923	-1195.338	1	5159.305	-13.39634	-2.928135E-008	0.0508336	7
	26	9	2527.573	5083.699	-1425.322	1	5279.729	-15.66196	1.952529E-008	0.0508654	7
	27	10	1976.103	5154.423	-1735.646	1	5438.8	-18.60989	-2.754048E-008	0.0508324	7
	28	10	1577.524	5240.26	-2086.068	1	5640.213	-21.70675	-6.476684E-009	0.0508257	7
	29	10	1265.625	5321.534	-2507.464	1	5882.695	-25.22944	6.059184E-008	0.0506806	7
	30	11	998.264	5441.801	-3056.389	1	6241.371	-29.32076	-5.792536E-008	0.0508526	7
	31	11	796.875	5561.065	-3712.062	1	6686.169	-33.72347	-1.694703E-008	0.050805	7
	32	11	627.7902	5724.951	-4565.063	1	7322.217	-38.56878	1.134084E-007	0.0506177	7
	33	12	505.5147	5893.062	-5510.93	1	8068.366	-43.08082	-5.689566E-009	0.0507455	7
	34	12	397.9953	6128.171	-6806.787	1	9158.975	-48.0032	-2.534346E-009	0.0508023	7
	35	12	315.5048	6410.298	-8359.06	1	10534.03	-52.51654	-6.962755E-010	0.0507385	6
	36	13	252.4038	6745.038	-10196.79	1	12225.79	-56.5159	-1.240684E-009	0.0507342	6
	37	13	198.6229	7203.543	-12635.26	1	14544.44	-60.31191	-1.334025E-009	0.0507375	6
	38	13	158.3615	7756.604	-15473.3	1	17308.61	-63.37587	-4.892248E-010	0.0507355	6
	39	14	125.558	8494.829	-19047.46	1	20855.88	-65.96398	-7.619619E-010	0.0507388	6
	40	14	100.4464	9404.449	-23270.84	1	25099.31	-67.99487	-2.118031E-009	0.0507312	6
	41	14	79.00281	10646.83	-28816.51	1	30720.45	-69.72226	-1.201117E-009	0.0507358	6
	42	15	63.3446	12662.44	-34673.32	1	36913.09	-69.93818	-1.426981E-009	0.0507314	6
	43	15	49.86702	14993.1	-43035.02	1	45571.98	-70.79202	-2.745584E-009	0.0507266	6
	44	15	39.72458	17564.92	-52404.85	1	55270.2	-71.47002	-9.367583E-010	0.0507337	6
	45	16	31.6723	21193.86	-63546.4	1	66987.49	-71.55553	-8.00692E-010	0.0507295	6
	46	16	24.93351	26719.17	-77702.46	1	82168.04	-71.02369	-7.547575E-010	0.0507322	6
	47	16	19.86229	33418.27	-93620.16	1	99405.8	-70.35567	4.24643E-010	0.0507375	6
	48	17	15.83615	42120.29	-111467.4	1	119160	-69.29988	-1.510271E-009	0.0507366	5
	49	17	12.40079	56057.71	-134595.8	1	145803	-67.38879	3.00993E-010	0.050732	5
	50	17	9.93114	69312.2	-159328	1	173751.5	-66.4896	-1.885151E-009	0.0507372	5
	51	18	7.944915	87316.68	-185741.8	1	205241.9	-64.82192	-1.602934E-009	0.0507362	5
	52	18	6.317385	110648.7	-216366.8	1	243017.9	-62.91507	-1.352868E-009	0.0507373	5
	53	19	5.008013	139507.2	-249352.3	1	285725.1	-60.77394	-1.328114E-009	0.0507279	5
	54	20	3.945707	174772.1	-286527.2	1	335623.4	-58.61819	-6.541972E-010	0.0507352	5
	55	22	3.158693	211732.4	-321088.6	1	384614.7	-56.59832	-9.899223E-010	0.0507494	5
	56	23	2.504006	254911.7	-360183.8	1	441262.2	-54.71194	-1.107499E-009	0.0507411	5
	57	25	1.998082	299630.5	-398807.9	1	498824.8	-53.0819	-7.454676E-010	0.0507661	5
	58	26	1.584686	349035.1	-444217	1	564937.4	-51.84218	-5.984367E-010	0.0507813	5
	59	28	1.266892	397903.9	-492690.2	1	633301.8	-51.07514	-5.765433E-010	0.0507449	5
	60	31	0.999041	453473.2	-551677.3	1	714132.8	-50.58014	-5.631514E-010	0.0507151	5
