EXPLAIN
TAG	EISPOT
TITLE	LABEL	Potentiostatic EIS	Test &Identifier
DATE	LABEL	11/9/2019	Date
TIME	LABEL	11:22:46	Time
NOTES	NOTES	2	&Notes...
	
	
PSTAT	PSTAT	REF600-11020	Potentiostat
VDC	POTEN	0.00000E+000	T	DC &Voltage (V)
FREQINIT	QUANT	1.00000E+006	Initial Fre&q. (Hz)
FREQFINAL	QUANT	1.00000E+000	Final Fre&q. (Hz)
PTSPERDEC	QUANT	1.00000E+001	Points/&decade
VAC	QUANT	2.50000E+001	AC &Voltage (mV rms)
AREA	QUANT	1.00000E-002	&Area (cm^2)
CONDIT	TWOPARAM	T	5.00000E+000	0.00000E+000	Conditionin&g	Time(s)	E(V)
DELAY	TWOPARAM	T	5.00000E+000	0.00000E+000	Init. De&lay	Time(s)	Stab.(mV/s)
SPEED	SELECTOR	0	&Optimize for:
ZGUESS	QUANT	1.00000E+005	E&stimated Z (ohms)
OCVCURVE	TABLE	19
	Pt	T	Vf	Vm	Ach	Over
	#	s	V vs. Ref.	V	V	bits
	0	0.258333	1.10037E-001	1.10037E-001	5.60166E-004	...........
	1	0.516667	1.10161E-001	1.16546E-001	5.59199E-004	...........
	2	0.775	1.10915E-001	1.22193E-001	5.64199E-004	...........
	3	1.03333	1.13004E-001	1.27135E-001	5.58766E-004	...........
	4	1.29167	1.16630E-001	1.31451E-001	5.65899E-004	...........
	5	1.55	1.21246E-001	1.35336E-001	5.59766E-004	...........
	6	1.80833	1.26077E-001	1.38728E-001	5.57532E-004	...........
	7	2.06667	1.30607E-001	1.41866E-001	5.54866E-004	...........
	8	2.325	1.34651E-001	1.44598E-001	5.59399E-004	...........
	9	2.58333	1.38220E-001	1.47187E-001	5.60499E-004	...........
	10	2.84167	1.41389E-001	1.49442E-001	5.51299E-004	...........
	11	3.1	1.44232E-001	1.51606E-001	5.51866E-004	...........
	12	3.35833	1.46806E-001	1.53512E-001	5.54166E-004	...........
	13	3.61667	1.49150E-001	1.55291E-001	5.57466E-004	...........
	14	3.875	1.51290E-001	1.56823E-001	5.52966E-004	...........
	15	4.13333	1.53250E-001	1.58851E-001	5.59566E-004	...........
	16	4.39167	1.55077E-001	1.60178E-001	5.58466E-004	...........
	17	4.65	1.56810E-001	1.61397E-001	5.54999E-004	...........
	18	4.90833	1.58438E-001	1.62646E-001	5.59799E-004	...........
EOC	QUANT	0.1584375	Open Circuit (V)
PSTATMODEL	IQUANT	4	Pstat Model
PSTATSECTION	LABEL	REF600-11020	Pstat Section
PSTATSERIALNO	LABEL	11020	Pstat Serial Number
CTRLMODE	IQUANT	1	Control Mode
IESTAB	IQUANT	0	I/E Stability
CASPEED	IQUANT	1	Control Amp Speed
CONVENTION	IQUANT	1	Current Convention
ICHRANGE	IQUANT	2	Ich Range
ICHRANGEMODE	TOGGLE	F	Ich Auto Range
ICHOFFSETENABLE	TOGGLE	T	Ich Offset Enable
ICHOFFSET	QUANT	0	Ich Offset (V)
ICHFILTER	IQUANT	3	Ich Filter
VCHRANGE	IQUANT	2	Vch Range
VCHRANGEMODE	TOGGLE	F	Vch Auto Range
VCHOFFSETENABLE	TOGGLE	T	Vch Offset Enable
VCHOFFSET	QUANT	0	Vch Offset (V)
VCHFILTER	IQUANT	3	Vch Filter
ACHRANGE	IQUANT	2	Ach Range
ACHOFFSETENABLE	TOGGLE	F	Ach Offset Enable
ACHOFFSET	QUANT	0	Ach Offset (V)
ACHFILTER	IQUANT	3	Ach Filter
IERANGELOWERLIMIT	IQUANT	1	I/E Range Lower Limit
IERANGEMODE	TOGGLE	F	I/E AutoRange
IERANGE	IQUANT	6	I/E Range
POSFEEDENABLE	TOGGLE	F	Positive Feedback IR Comp
POSFEEDRESISTANCE	QUANT	0	Positive Feedback Resistance (ohm)
ACHSELECT	IQUANT	0	Ach Select
CABLEID	IQUANT	14	Cable ID
DCCALDATE	LABEL	8/19/2019	DC Calibration Date
ACCALDATE	LABEL	8/19/2019	AC Calibration Date
THERMOSELECT	IQUANT	1	Thermo Select
FRAMEWORKVERSION	QUANT	6.33	Framework Version
INSTRUMENTVERSION	LABEL	3.50	Instrument Version
ZCURVE	TABLE
	Pt	Time	Freq	Zreal	Zimag	Zsig	Zmod	Zphz	Idc	Vdc	IERange
	#	s	Hz	ohm	ohm	V	ohm	°	A	V	#
	0	1	1000078	2172.455	-2271.021	1	3142.785	-46.27074	-2.752301E-006	0.1602646	8
	1	1	794390.6	2619.944	-2421.53	1	3567.62	-42.74622	-1.479167E-006	0.1599813	8
	2	2	630984.4	3127.15	-2512.229	1	4011.279	-38.77701	-6.329123E-006	0.1607274	8
	3	2	501234.4	3632.305	-2505.04	1	4412.354	-34.59231	-2.489486E-006	0.1599888	8
	4	2	398109.4	4104.417	-2437.296	1	4773.536	-30.7028	8.015893E-006	0.1591077	8
	5	3	316265.6	4534.511	-2364.865	1	5114.135	-27.54321	-2.421861E-006	0.1597415	8
	6	3	251203.1	4955.886	-2165.487	1	5408.34	-23.60304	-1.026812E-006	0.1605665	8
	7	3	199546.9	5297.557	-2084.74	1	5693	-21.48105	-7.363316E-006	0.1611039	8
	8	3	158578.1	5660.131	-1771.183	1	5930.782	-17.37608	-4.172345E-007	0.1605851	8
	9	4	125953.1	5806.758	-1556.659	1	6011.791	-15.00684	-4.128924E-006	0.1651194	7
	10	4	100078.1	5998.415	-1437.526	1	6168.262	-13.47683	-1.658427E-006	0.1614469	7
	11	5	79453.13	6187.335	-1326.26	1	6327.882	-12.09832	5.922604E-008	0.1613315	7
	12	5	63140.62	6318.312	-1239.684	1	6438.78	-11.1007	-4.276888E-007	0.1618633	7
	13	6	50203.12	6469.389	-1138.781	1	6568.852	-9.98328	1.630808E-007	0.1580857	7
	14	6	39890.62	6612.829	-1120.179	1	6707.034	-9.61434	1.380144E-006	0.1590336	7
	15	6	31640.63	6683.389	-1108.097	1	6774.627	-9.413924	7.477188E-008	0.1613316	7
	16	7	25171.88	6802.949	-1113.453	1	6893.467	-9.295305	1.699911E-007	0.158085	7
	17	7	20015.62	6914.404	-1131.859	1	7006.432	-9.296626	6.728287E-007	0.1576672	7
	18	8	15890.62	6992.052	-1187.223	1	7092.129	-9.63669	-4.157574E-007	0.1587959	7
	19	8	12609.37	7114.387	-1257.942	1	7224.744	-10.02721	-4.128914E-007	0.1587908	7
	20	8	10078.13	7266.901	-1336.464	1	7388.774	-10.42088	5.002283E-007	0.1607441	7
	21	9	8015.625	7361.354	-1493.519	1	7511.334	-11.46887	-1.00245E-006	0.1597323	7
	22	9	6328.125	7500.865	-1667.959	1	7684.079	-12.53681	-1.43085E-006	0.1606554	7
	23	9	5015.625	7704.07	-1858.277	1	7925.017	-13.56112	-9.855615E-007	0.1597237	7
	24	10	3984.375	7875.8	-2075.364	1	8144.653	-14.76251	-1.421641E-006	0.1606489	7
	25	10	3170.956	8092.558	-2355.306	1	8428.343	-16.22742	-1.232744E-006	0.1622656	7
	26	10	2527.573	8326.595	-2634.334	1	8733.378	-17.55612	-1.677791E-006	0.1619391	7
	27	11	1976.103	8601.376	-3041.487	1	9123.284	-19.47383	-1.506615E-006	0.1621723	7
	28	11	1577.524	9047.652	-3465.67	1	9688.7	-20.95915	1.596712E-007	0.1580667	7
	29	12	1265.625	9346.425	-3894.582	1	10125.38	-22.62111	2.222459E-007	0.1586714	6
	30	12	998.264	9608.33	-4448.45	1	10588.14	-24.84312	-2.854265E-007	0.1624075	6
	31	12	796.875	10068.04	-5144.117	1	11306.08	-27.06409	2.429601E-007	0.157862	6
	32	12	627.7902	10444	-5995.672	1	12042.64	-29.85919	2.48934E-007	0.1570485	6
	33	13	505.5147	10735.07	-6861.479	1	12740.55	-32.58529	-2.373436E-007	0.160969	6
	34	13	397.9953	11214.66	-8151.743	1	13864.33	-36.01275	-2.953722E-009	0.1599277	6
	35	13	315.5048	11667.26	-9680.67	1	15160.48	-39.68349	-1.528816E-009	0.1599284	6
	36	14	252.4038	12143.73	-11513.51	1	16734.13	-43.474	-1.666884E-009	0.15992	6
	37	14	198.6229	12736.8	-13957.7	1	18895.59	-47.61866	-2.287674E-009	0.1599329	6
	38	14	158.3615	13391.72	-16810.89	1	21492.89	-51.45884	-9.759052E-010	0.1599273	6
	39	15	125.558	14212.19	-20461.96	1	24913.42	-55.21745	-1.782245E-009	0.1599251	6
	40	15	100.4464	15222.7	-24722.78	1	29033.54	-58.37792	-4.817501E-009	0.1599233	6
	41	15	79.00281	16729.99	-30521.97	1	34806.37	-61.27155	-3.862652E-009	0.1599227	6
	42	16	63.3446	17363.22	-37009.29	1	40879.93	-64.86598	-1.858285E-009	0.1599267	6
	43	16	49.86702	19881.13	-45178.14	1	49359.13	-66.24758	-1.816168E-009	0.1599128	6
	44	16	39.72458	23422	-55334.27	1	60087.2	-67.05793	-1.806988E-009	0.1599165	6
	45	17	31.6723	27084.54	-66546.71	1	71847.32	-67.85365	-2.023618E-009	0.159921	6
	46	17	24.93351	32465.76	-81645.3	1	87863.42	-68.31506	-2.039046E-009	0.1599092	6
	47	18	19.86229	39092.86	-98292.4	1	105781.1	-68.31128	-2.397332E-009	0.1599354	5
	48	18	15.83615	45307.84	-118403.8	1	126776.4	-69.06038	-4.280921E-009	0.1599338	5
	49	18	12.40079	57733.38	-142754	1	153986.5	-67.98033	-2.905689E-009	0.1599181	5
	50	19	9.93114	72112.71	-168747	1	183509.7	-66.86095	-2.669809E-009	0.1599239	5
	51	19	7.944915	88137.17	-199466.5	1	218071.2	-66.16106	-2.284788E-009	0.1599235	5
	52	20	6.317385	107638.2	-235058.1	1	258531	-65.39592	-2.207934E-009	0.1599228	5
	53	21	5.008013	132706.8	-276746.7	1	306919.9	-64.38114	-2.347783E-009	0.1599367	5
	54	22	3.945707	163085.3	-325588.5	1	364149.2	-63.39399	-2.316476E-009	0.1599405	5
	55	23	3.158693	199008.3	-376780.9	1	426108.1	-62.15786	-2.518188E-009	0.1599222	5
	56	25	2.504006	241811.3	-437686	1	500041.7	-61.08038	-2.236902E-009	0.1599152	5
	57	26	1.998082	289993.8	-503573.6	1	581104.8	-60.06357	-2.174419E-009	0.1599385	5
	58	28	1.584686	348697.6	-578906.3	1	675812.4	-58.93782	-2.202072E-009	0.1598892	5
	59	30	1.266892	415507.6	-664459.9	1	783679.5	-57.98097	-2.138274E-009	0.1598785	5
	60	32	0.999041	496609.7	-766821.9	1	913584.8	-57.07207	-2.080953E-009	0.1598896	5
