EXPLAIN
TAG	EISPOT
TITLE	LABEL	Potentiostatic IDE	Test &Identifier
DATE	LABEL	9/6/2019	Date
TIME	LABEL	7:11:14	Time
NOTES	NOTES	1	&Notes...
	
PSTAT	PSTAT	REF600-11020	Potentiostat
VDC	POTEN	0.00000E+000	T	DC &Voltage (V)
FREQINIT	QUANT	1.00000E+006	Initial Fre&q. (Hz)
FREQFINAL	QUANT	1.00000E+000	Final Fre&q. (Hz)
PTSPERDEC	QUANT	1.00000E+001	Points/&decade
VAC	QUANT	2.50000E+001	AC &Voltage (mV rms)
AREA	QUANT	1.00000E-002	&Area (cm^2)
CONDIT	TWOPARAM	T	5.00000E+000	0.00000E+000	Conditionin&g	Time(s)	E(V)
DELAY	TWOPARAM	T	5.00000E+000	0.00000E+000	Init. De&lay	Time(s)	Stab.(mV/s)
SPEED	SELECTOR	1	&Optimize for:
ZGUESS	QUANT	1.00000E+007	E&stimated Z (ohms)
OCVCURVE	TABLE	19
	Pt	T	Vf	Vm	Ach	Over
	#	s	V vs. Ref.	V	V	bits
	0	0.258333	9.17054E-003	9.17054E-003	5.62999E-004	...........
	1	0.516667	9.17048E-003	9.16744E-003	5.59566E-004	...........
	2	0.775	9.17029E-003	9.17330E-003	5.60066E-004	...........
	3	1.03333	9.17072E-003	9.20151E-003	5.61466E-004	...........
	4	1.29167	9.17479E-003	9.24556E-003	5.59599E-004	...........
	5	1.55	9.18725E-003	9.29444E-003	5.63566E-004	...........
	6	1.80833	9.21160E-003	9.34788E-003	5.62432E-004	...........
	7	2.06667	9.24790E-003	9.40514E-003	5.62466E-004	...........
	8	2.325	9.29354E-003	9.46157E-003	5.64832E-004	...........
	9	2.58333	9.34541E-003	9.52530E-003	5.68232E-004	...........
	10	2.84167	9.40116E-003	9.58214E-003	5.64132E-004	...........
	11	3.1	9.45962E-003	9.66210E-003	5.62899E-004	...........
	12	3.35833	9.52039E-003	9.69983E-003	5.61332E-004	...........
	13	3.61667	9.57922E-003	9.60616E-003	5.58432E-004	...........
	14	3.875	9.62661E-003	9.78657E-003	5.62299E-004	...........
	15	4.13333	9.66385E-003	9.90263E-003	5.62366E-004	...........
	16	4.39167	9.71088E-003	9.97511E-003	5.66999E-004	...........
	17	4.65	9.78170E-003	1.00341E-002	5.60166E-004	...........
	18	4.90833	9.86716E-003	1.00885E-002	5.61999E-004	...........
EOC	QUANT	0.0098672	Open Circuit (V)
PSTATMODEL	IQUANT	4	Pstat Model
PSTATSECTION	LABEL	REF600-11020	Pstat Section
PSTATSERIALNO	LABEL	11020	Pstat Serial Number
CTRLMODE	IQUANT	1	Control Mode
IESTAB	IQUANT	0	I/E Stability
CASPEED	IQUANT	1	Control Amp Speed
CONVENTION	IQUANT	1	Current Convention
ICHRANGE	IQUANT	2	Ich Range
ICHRANGEMODE	TOGGLE	F	Ich Auto Range
ICHOFFSETENABLE	TOGGLE	T	Ich Offset Enable
ICHOFFSET	QUANT	0	Ich Offset (V)
ICHFILTER	IQUANT	3	Ich Filter
VCHRANGE	IQUANT	2	Vch Range
VCHRANGEMODE	TOGGLE	F	Vch Auto Range
VCHOFFSETENABLE	TOGGLE	T	Vch Offset Enable
VCHOFFSET	QUANT	0	Vch Offset (V)
VCHFILTER	IQUANT	3	Vch Filter
ACHRANGE	IQUANT	2	Ach Range
ACHOFFSETENABLE	TOGGLE	F	Ach Offset Enable
ACHOFFSET	QUANT	0	Ach Offset (V)
ACHFILTER	IQUANT	3	Ach Filter
IERANGELOWERLIMIT	IQUANT	1	I/E Range Lower Limit
IERANGEMODE	TOGGLE	F	I/E AutoRange
IERANGE	IQUANT	3	I/E Range
POSFEEDENABLE	TOGGLE	F	Positive Feedback IR Comp
POSFEEDRESISTANCE	QUANT	0	Positive Feedback Resistance (ohm)
ACHSELECT	IQUANT	0	Ach Select
CABLEID	IQUANT	14	Cable ID
DCCALDATE	LABEL	8/19/2019	DC Calibration Date
ACCALDATE	LABEL	8/19/2019	AC Calibration Date
THERMOSELECT	IQUANT	1	Thermo Select
FRAMEWORKVERSION	QUANT	6.33	Framework Version
INSTRUMENTVERSION	LABEL	3.50	Instrument Version
ZCURVE	TABLE
	Pt	Time	Freq	Zreal	Zimag	Zsig	Zmod	Zphz	Idc	Vdc	IERange
	#	s	Hz	ohm	ohm	V	ohm	°	A	V	#
	0	2	1000078	2322.324	-1654.992	1	2851.699	-35.47538	-3.599571E-006	0.0126583	8
	1	3	794390.6	2653.656	-1575.153	1	3085.936	-30.69245	9.777744E-007	0.0119023	8
	2	4	630984.4	2931.327	-1447.702	1	3269.33	-26.28351	-1.583637E-006	0.0117333	8
	3	6	501234.4	3168.415	-1309.604	1	3428.398	-22.45683	-5.255555E-007	0.0116788	8
	4	7	398109.4	3362.376	-1148.308	1	3553.053	-18.8559	1.285192E-006	0.0111976	8
	5	8	316265.6	3501.521	-1017.207	1	3646.28	-16.1988	-2.048351E-006	0.0118209	8
	6	10	251203.1	3608.338	-903.8843	1	3719.827	-14.06314	3.176334E-006	0.0108775	8
	7	11	199546.9	3710.614	-786.2712	1	3793.004	-11.96389	1.028637E-007	0.011335	8
	8	12	158578.1	3789.99	-695.92	1	3853.353	-10.40478	1.282818E-006	0.01108	8
	9	14	125953.1	3852.664	-610.1761	1	3900.684	-8.999625	-3.245424E-007	0.0118754	7
	10	15	100078.1	3905.075	-564.9432	1	3945.729	-8.231811	3.424608E-008	0.0113803	7
	11	16	79453.13	3953.683	-538.6094	1	3990.201	-7.757638	-2.429781E-008	0.0114034	7
	12	18	63140.62	4004.606	-523.9634	1	4038.739	-7.454247	4.423494E-008	0.0113018	7
	13	19	50203.12	4052.093	-518.358	1	4085.113	-7.289885	4.511317E-008	0.0112954	7
	14	20	39890.62	4099.059	-524.0036	1	4132.417	-7.2849	-2.014417E-008	0.0114423	7
	15	22	31640.63	4149.047	-541.505	1	4184.235	-7.43582	-3.807473E-008	0.0114277	7
	16	23	25171.88	4198.044	-570.8019	1	4236.672	-7.74294	-4.934289E-009	0.0113977	7
	17	24	20015.62	4251.299	-612.2389	1	4295.158	-8.194948	4.927934E-008	0.0112715	7
	18	26	15890.62	4308.761	-666.9537	1	4360.074	-8.79899	9.140655E-011	0.0113894	7
	19	27	12609.37	4365.994	-736.3036	1	4427.646	-9.57258	3.946395E-008	0.0113643	7
	20	28	10078.13	4424.53	-824.6077	1	4500.716	-10.5572	-9.925567E-009	0.0113707	7
	21	29	8015.625	4488.833	-936.3879	1	4585.46	-11.78314	-2.259917E-008	0.0113921	7
	22	31	6328.125	4564.248	-1077.314	1	4689.666	-13.28064	-2.439319E-008	0.0113883	7
	23	32	5015.625	4640.216	-1251.293	1	4805.969	-15.09156	3.741993E-008	0.0113598	7
	24	34	3984.375	4730.146	-1460.871	1	4950.598	-17.16292	-7.058798E-012	0.0113331	7
	25	35	3170.956	4832.047	-1717.554	1	5128.223	-19.56778	-5.3656E-009	0.0113928	7
	26	36	2527.573	4943.661	-2027.94	1	5343.438	-22.30394	-2.093489E-008	0.0113995	7
	27	38	1976.103	5086.023	-2440.439	1	5641.221	-25.6332	-3.112847E-008	0.0114335	7
	28	39	1577.524	5237.605	-2897.474	1	5985.638	-28.95163	-1.353703E-008	0.0113719	7
	29	40	1265.625	5406.926	-3428.165	1	6402.122	-32.37601	-2.697902E-008	0.0113879	7
	30	42	998.264	5628.48	-4135.695	1	6984.537	-36.3077	3.107271E-008	0.011289	7
	31	43	796.875	5876.181	-4945.639	1	7680.419	-40.08537	3.977788E-008	0.0113617	7
	32	44	627.7902	6181.943	-5975.53	1	8597.87	-44.02731	-2.272682E-008	0.0113853	7
	33	46	505.5147	6510.148	-7116.681	1	9645.16	-47.54856	-2.496124E-008	0.0113833	7
	34	47	397.9953	6945.825	-8650.146	1	11093.67	-51.23651	7.671931E-010	0.0113209	6
	35	48	315.5048	7447.072	-10457.08	1	12837.81	-54.54321	8.644248E-010	0.0113195	6
	36	50	252.4038	8022.923	-12561.9	1	14905.32	-57.4348	9.008299E-010	0.0113146	6
	37	51	198.6229	8767.365	-15311.65	1	17644.07	-60.20478	9.146943E-010	0.0113197	6
	38	52	158.3615	9621.8	-18475.22	1	20830.58	-62.48973	8.189674E-010	0.0113242	6
	39	54	125.558	10687.46	-22402.53	1	24821.26	-64.49583	7.802312E-010	0.0113184	6
	40	55	100.4464	11922.78	-26972.12	1	29489.79	-66.15262	5.769362E-010	0.0113186	6
	41	56	79.00281	13549.85	-32974.64	1	35650.04	-67.66139	6.152605E-010	0.0113173	6
	42	58	63.3446	15377.19	-39495.66	1	42383.54	-68.7271	4.948276E-010	0.011323	6
	43	59	49.86702	17895.29	-48380.03	1	51583.61	-69.70107	3.114451E-010	0.0113231	6
	44	60	39.72458	20618.49	-58384.89	1	61918.64	-70.54945	8.941377E-010	0.0113284	6
	45	62	31.6723	24100.93	-70572.4	1	74574.24	-71.14464	8.939879E-010	0.0113241	6
	46	63	24.93351	28516.97	-86133.04	1	90731.02	-71.6813	4.803676E-010	0.011332	6
	47	64	19.86229	33834.37	-104057	1	109419.5	-71.98794	4.635548E-010	0.0113286	5
	48	66	15.83615	40120	-125645.8	1	131895.7	-72.29118	4.272599E-010	0.0113255	5
	49	67	12.40079	49876.56	-154192.5	1	162058.7	-72.0752	-7.223486E-012	0.0113346	5
	50	68	9.93114	60145.23	-185356.4	1	194870.3	-72.02258	1.130546E-010	0.0113298	5
	51	70	7.944915	74032.13	-222689.2	1	234672.6	-71.61082	1.628189E-010	0.0113325	5
	52	72	6.317385	92177.25	-268159.9	1	283560.2	-71.03011	1.547376E-010	0.011324	5
	53	74	5.008013	116062.9	-322950.8	1	343173.2	-70.23245	1.060793E-011	0.0113188	5
	54	76	3.945707	147641.4	-388479.8	1	415589.4	-69.19075	3.633903E-010	0.0113369	5
	55	78	3.158693	186394.8	-459633.1	1	495989.5	-67.92599	8.364692E-011	0.0113393	5
	56	82	2.504006	236440.5	-544128.4	1	593278.9	-66.51357	3.211105E-010	0.0113246	5
	57	84	1.998082	295637.2	-636137.5	1	701478.6	-65.07392	-9.052348E-011	0.011347	5
	58	88	1.584686	372571.3	-741899.3	1	830195.1	-63.33485	1.055419E-010	0.0113784	5
	59	91	1.266892	457509	-854808.7	1	969542	-61.84351	-1.371088E-010	0.0113266	5
	60	96	0.999041	566441.6	-984526	1	1135847	-60.08627	2.322745E-010	0.0113368	4
