EXPLAIN
TAG	EISPOT
TITLE	LABEL	Potentiostatic EIS	Test &Identifier
DATE	LABEL	10/28/2019	Date
TIME	LABEL	11:47:30	Time
NOTES	NOTES	1	&Notes...
	
PSTAT	PSTAT	REF600-11020	Potentiostat
VDC	POTEN	0.00000E+000	T	DC &Voltage (V)
FREQINIT	QUANT	1.00000E+006	Initial Fre&q. (Hz)
FREQFINAL	QUANT	1.00000E+000	Final Fre&q. (Hz)
PTSPERDEC	QUANT	1.00000E+001	Points/&decade
VAC	QUANT	2.50000E+001	AC &Voltage (mV rms)
AREA	QUANT	1.00000E-002	&Area (cm^2)
CONDIT	TWOPARAM	T	5.00000E+000	0.00000E+000	Conditionin&g	Time(s)	E(V)
DELAY	TWOPARAM	T	5.00000E+000	0.00000E+000	Init. De&lay	Time(s)	Stab.(mV/s)
SPEED	SELECTOR	1	&Optimize for:
ZGUESS	QUANT	1.00000E+005	E&stimated Z (ohms)
OCVCURVE	TABLE	19
	Pt	T	Vf	Vm	Ach	Over
	#	s	V vs. Ref.	V	V	bits
	0	0.258333	6.02084E-003	6.02084E-003	5.65466E-004	...........
	1	0.516667	6.01992E-003	5.97287E-003	5.65832E-004	...........
	2	0.775	6.01535E-003	5.98289E-003	5.68299E-004	...........
	3	1.03333	6.00725E-003	6.06017E-003	5.62332E-004	...........
	4	1.29167	6.00504E-003	6.12525E-003	5.58766E-004	...........
	5	1.55	6.02267E-003	6.23378E-003	5.56066E-004	...........
	6	1.80833	6.06327E-003	6.10958E-003	5.71299E-004	...........
	7	2.06667	6.10691E-003	5.98141E-003	5.74366E-004	...........
	8	2.325	6.12072E-003	5.96211E-003	5.75299E-004	...........
	9	2.58333	6.09218E-003	5.97622E-003	5.68032E-004	...........
	10	2.84167	6.04300E-003	5.99417E-003	5.68699E-004	...........
	11	3.1	6.00434E-003	6.03461E-003	5.66332E-004	...........
	12	3.35833	5.99000E-003	5.98930E-003	5.68999E-004	...........
	13	3.61667	5.99346E-003	6.01997E-003	5.65466E-004	...........
	14	3.875	6.00173E-003	6.01739E-003	5.69632E-004	...........
	15	4.13333	6.00897E-003	6.05494E-003	5.68666E-004	...........
	16	4.39167	6.01731E-003	6.06117E-003	5.71499E-004	...........
	17	4.65	6.02982E-003	6.09945E-003	5.68466E-004	...........
	18	4.90833	6.04652E-003	6.08283E-003	5.64832E-004	...........
EOC	QUANT	0.0060465	Open Circuit (V)
PSTATMODEL	IQUANT	4	Pstat Model
PSTATSECTION	LABEL	REF600-11020	Pstat Section
PSTATSERIALNO	LABEL	11020	Pstat Serial Number
CTRLMODE	IQUANT	1	Control Mode
IESTAB	IQUANT	0	I/E Stability
CASPEED	IQUANT	1	Control Amp Speed
CONVENTION	IQUANT	1	Current Convention
ICHRANGE	IQUANT	2	Ich Range
ICHRANGEMODE	TOGGLE	F	Ich Auto Range
ICHOFFSETENABLE	TOGGLE	T	Ich Offset Enable
ICHOFFSET	QUANT	0	Ich Offset (V)
ICHFILTER	IQUANT	3	Ich Filter
VCHRANGE	IQUANT	2	Vch Range
VCHRANGEMODE	TOGGLE	F	Vch Auto Range
VCHOFFSETENABLE	TOGGLE	T	Vch Offset Enable
VCHOFFSET	QUANT	0	Vch Offset (V)
VCHFILTER	IQUANT	3	Vch Filter
ACHRANGE	IQUANT	2	Ach Range
ACHOFFSETENABLE	TOGGLE	F	Ach Offset Enable
ACHOFFSET	QUANT	0	Ach Offset (V)
ACHFILTER	IQUANT	3	Ach Filter
IERANGELOWERLIMIT	IQUANT	1	I/E Range Lower Limit
IERANGEMODE	TOGGLE	F	I/E AutoRange
IERANGE	IQUANT	5	I/E Range
POSFEEDENABLE	TOGGLE	F	Positive Feedback IR Comp
POSFEEDRESISTANCE	QUANT	0	Positive Feedback Resistance (ohm)
ACHSELECT	IQUANT	0	Ach Select
CABLEID	IQUANT	14	Cable ID
DCCALDATE	LABEL	8/19/2019	DC Calibration Date
ACCALDATE	LABEL	8/19/2019	AC Calibration Date
THERMOSELECT	IQUANT	1	Thermo Select
FRAMEWORKVERSION	QUANT	6.33	Framework Version
INSTRUMENTVERSION	LABEL	3.50	Instrument Version
ZCURVE	TABLE
	Pt	Time	Freq	Zreal	Zimag	Zsig	Zmod	Zphz	Idc	Vdc	IERange
	#	s	Hz	ohm	ohm	V	ohm	°	A	V	#
	0	2	1000078	1784.32	-2148.125	1	2792.533	-50.28559	-6.537743E-006	0.0093699	8
	1	4	794390.6	1924.841	-2475.989	1	3136.165	-52.1384	1.044701E-006	0.0084238	8
	2	5	630984.4	2067.24	-2882.879	1	3547.46	-54.35665	4.5521E-006	0.006868	8
	3	6	501234.4	2267.675	-3393.434	1	4081.39	-56.24703	-3.872301E-006	0.0082871	8
	4	8	398109.4	2466.095	-4035.402	1	4729.28	-58.57027	-5.628138E-007	0.0078041	8
	5	9	316265.6	2747.178	-4832.538	1	5558.814	-60.38284	4.116997E-006	0.0068235	8
	6	11	251203.1	3048.344	-5751.766	1	6509.625	-62.07713	4.750085E-007	0.0075949	8
	7	13	199546.9	3543.905	-6986.156	1	7833.622	-63.10244	2.036257E-006	0.0070659	8
	8	14	158578.1	4062.484	-8321.408	1	9260.108	-63.97852	-1.13564E-007	0.0074695	8
	9	16	125953.1	5026.551	-9998.99	1	11191.34	-63.31106	3.704359E-007	0.006976	7
	10	18	100078.1	5992.041	-11968.65	1	13384.81	-63.40541	3.964397E-008	0.0076015	7
	11	19	79453.13	7286.952	-14301.69	1	16051.11	-63.0004	-5.724082E-009	0.0074679	7
	12	21	63140.62	8931.282	-16951.88	1	19160.74	-62.217	-7.96172E-008	0.0076488	7
	13	22	50203.12	11113.12	-19910.25	1	22801.74	-60.83147	-4.127984E-008	0.0074979	7
	14	24	39890.62	13902.07	-23134.4	1	26990.14	-58.99724	2.475731E-009	0.0074212	7
	15	25	31640.63	17387.95	-26601.05	1	31779.81	-56.82911	8.860263E-008	0.0073675	7
	16	27	25171.88	21618.86	-30002.98	1	36980.45	-54.22509	-5.986629E-008	0.00774	7
	17	28	20015.62	25971.52	-32730.62	1	41782.93	-51.56825	9.427449E-008	0.0073009	7
	18	30	15890.62	32406.74	-36717.69	1	48973.32	-48.56863	9.015424E-008	0.0073639	7
	19	31	12609.37	39140.17	-38734.07	1	55066.15	-44.70122	5.26838E-009	0.0074777	6
	20	33	10078.13	45321.38	-41061.09	1	61155.87	-42.17652	8.477613E-009	0.0072394	6
	21	35	8015.625	52539.51	-43339.73	1	68108.24	-39.51915	-9.438849E-008	0.0076198	7
	22	36	6328.125	59091.82	-44241.94	1	73818.64	-36.82213	8.261197E-009	0.0072415	6
	23	38	5015.625	65297.45	-45549.71	1	79614.9	-34.89857	-5.30377E-009	0.0074534	7
	24	40	3984.375	75342.48	-46137.9	1	88347.01	-31.48229	-4.077829E-008	0.0074926	7
	25	41	3170.956	79497.81	-48421.8	1	93083.69	-31.34543	1.621297E-008	0.0073257	6
	26	43	2527.573	86213.15	-49886.93	1	99606.3	-30.05567	2.179994E-008	0.0071369	6
	27	45	1976.103	93097.52	-51004.02	1	106153.5	-28.71639	-8.615888E-009	0.0075567	6
	28	47	1577.524	98398	-49542.66	1	110166.4	-26.72492	2.209841E-008	0.0071317	6
	29	49	1265.625	108911.9	-53495.48	1	121340.7	-26.1594	-1.868765E-011	0.0074831	5
	30	50	998.264	116639.7	-56693.58	1	129688	-25.92241	4.472528E-010	0.0073066	5
	31	52	796.875	124324.5	-59785.11	1	137952.3	-25.68195	-5.015027E-010	0.0076242	5
	32	53	627.7902	132899	-63765.21	1	147404.7	-25.63178	-1.114628E-009	0.0075772	5
	33	55	505.5147	140937.7	-67483.19	1	156260.7	-25.58583	1.305721E-009	0.0073017	5
	34	56	397.9953	150747.1	-71853.05	1	166995.7	-25.48463	-3.401003E-010	0.0074726	5
	35	57	315.5048	160342.8	-76365.61	1	177599.3	-25.46681	-2.299923E-010	0.0074712	5
	36	59	252.4038	170603.8	-81736.05	1	189173.1	-25.59901	9.515172E-010	0.0074677	5
	37	60	198.6229	181721.2	-87316.69	1	201610.5	-25.6642	-3.256403E-010	0.007468	5
	38	61	158.3615	193314.6	-93468.4	1	214725.1	-25.80395	-7.259819E-011	0.0074683	5
	39	63	125.558	204277.5	-99915.7	1	227403.7	-26.06407	-2.976853E-010	0.0074737	5
	40	64	100.4464	215434.6	-108807.7	1	241352.8	-26.79657	1.406462E-010	0.0074709	5
	41	66	79.00281	226380.4	-121262.3	1	256812.4	-28.17605	-2.381298E-010	0.0074664	5
	42	67	63.3446	223582.4	-140275.5	1	263943.8	-32.10414	-4.121081E-010	0.0074662	5
	43	69	49.86702	252531.5	-145035.5	1	291217.2	-29.86989	-1.702632E-010	0.007463	5
	44	71	39.72458	268476	-160362.6	1	312722.8	-30.85016	4.548779E-010	0.0074717	5
	45	72	31.6723	287306.1	-187485.4	1	343067.9	-33.12699	6.745732E-010	0.0074691	5
	46	74	24.93351	307680.9	-206166.2	1	370367.4	-33.82466	-1.916931E-010	0.0074726	5
	47	75	19.86229	330955.1	-235258.6	1	406051.6	-35.40702	2.055723E-010	0.0074739	5
	48	77	15.83615	356495.1	-291260.6	1	460349.3	-39.24922	-2.066739E-009	0.0074662	5
	49	78	12.40079	378306.9	-306411.6	1	486830.8	-39.00592	4.731864E-010	0.007461	5
	50	79	9.93114	422757.2	-346542.7	1	546640.1	-39.34217	-2.044169E-010	0.0074612	5
	51	81	7.944915	452586.4	-407643.1	1	609103.8	-42.00925	-4.885423E-010	0.0074716	5
	52	83	6.317385	498320.6	-454502.4	1	674459.7	-42.36695	1.144098E-010	0.0074785	6
	53	85	5.008013	551699.1	-523171.7	1	760316.1	-43.47971	2.070016E-010	0.0074616	6
	54	88	3.945707	612469.1	-603669.6	1	859962.4	-44.58544	2.779917E-010	0.0074632	6
	55	91	3.158693	683731.5	-686920	1	969200	-45.13329	1.56688E-010	0.0074681	6
	56	95	2.504006	774112.9	-784247.9	1	1101951	-45.37262	-1.204405E-010	0.0074749	4
	57	98	1.998082	872257.4	-886533.6	1	1243694	-45.46506	1.482573E-010	0.0074387	4
	58	101	1.584686	994923	-1001349	1	1411584	-45.18443	-4.523883E-011	0.0074201	4
	59	104	1.266892	1123631	-1117671	1	1584845	-44.84764	1.6213E-010	0.0074531	4
	60	109	0.999041	1282181	-1250957	1	1791336	-44.2938	-2.014317E-010	0.0074549	4
