EXPLAIN
TAG	EISPOT
TITLE	LABEL	Potentiostatic IDE	Test &Identifier
DATE	LABEL	9/18/2019	Date
TIME	LABEL	7:54:56	Time
NOTES	NOTES	1	&Notes...
	
PSTAT	PSTAT	REF600-11020	Potentiostat
VDC	POTEN	0.00000E+000	T	DC &Voltage (V)
FREQINIT	QUANT	1.00000E+006	Initial Fre&q. (Hz)
FREQFINAL	QUANT	1.00000E+000	Final Fre&q. (Hz)
PTSPERDEC	QUANT	1.00000E+001	Points/&decade
VAC	QUANT	2.50000E+001	AC &Voltage (mV rms)
AREA	QUANT	1.00000E-002	&Area (cm^2)
CONDIT	TWOPARAM	T	5.00000E+000	0.00000E+000	Conditionin&g	Time(s)	E(V)
DELAY	TWOPARAM	T	5.00000E+000	0.00000E+000	Init. De&lay	Time(s)	Stab.(mV/s)
SPEED	SELECTOR	1	&Optimize for:
ZGUESS	QUANT	1.00000E+007	E&stimated Z (ohms)
OCVCURVE	TABLE	19
	Pt	T	Vf	Vm	Ach	Over
	#	s	V vs. Ref.	V	V	bits
	0	0.258333	6.30465E-003	6.30465E-003	5.71499E-004	...........
	1	0.516667	6.30842E-003	6.50201E-003	5.66732E-004	...........
	2	0.775	6.33161E-003	6.69113E-003	5.66132E-004	...........
	3	1.03333	6.39740E-003	6.87540E-003	5.66899E-004	...........
	4	1.29167	6.51554E-003	7.05014E-003	5.67066E-004	...........
	5	1.55	6.67335E-003	7.21640E-003	5.64266E-004	...........
	6	1.80833	6.84885E-003	7.37071E-003	5.66899E-004	...........
	7	2.06667	7.02519E-003	7.52502E-003	5.71166E-004	...........
	8	2.325	7.19443E-003	7.66817E-003	5.67966E-004	...........
	9	2.58333	7.35490E-003	7.80614E-003	5.68332E-004	...........
	10	2.84167	7.50729E-003	7.93872E-003	5.68499E-004	...........
	11	3.1	7.65252E-003	8.06440E-003	5.67332E-004	...........
	12	3.35833	7.79120E-003	8.18346E-003	5.66399E-004	...........
	13	3.61667	7.92366E-003	8.29998E-003	5.68166E-004	...........
	14	3.875	8.05022E-003	8.41172E-003	5.69299E-004	...........
	15	4.13333	8.17140E-003	8.51818E-003	5.69032E-004	...........
	16	4.39167	8.28769E-003	8.61878E-003	5.70532E-004	...........
	17	4.65	8.39922E-003	8.71679E-003	5.70232E-004	...........
	18	4.90833	8.50605E-003	8.81226E-003	5.68066E-004	...........
EOC	QUANT	0.0085061	Open Circuit (V)
PSTATMODEL	IQUANT	4	Pstat Model
PSTATSECTION	LABEL	REF600-11020	Pstat Section
PSTATSERIALNO	LABEL	11020	Pstat Serial Number
CTRLMODE	IQUANT	1	Control Mode
IESTAB	IQUANT	0	I/E Stability
CASPEED	IQUANT	1	Control Amp Speed
CONVENTION	IQUANT	1	Current Convention
ICHRANGE	IQUANT	2	Ich Range
ICHRANGEMODE	TOGGLE	F	Ich Auto Range
ICHOFFSETENABLE	TOGGLE	T	Ich Offset Enable
ICHOFFSET	QUANT	0	Ich Offset (V)
ICHFILTER	IQUANT	3	Ich Filter
VCHRANGE	IQUANT	2	Vch Range
VCHRANGEMODE	TOGGLE	F	Vch Auto Range
VCHOFFSETENABLE	TOGGLE	T	Vch Offset Enable
VCHOFFSET	QUANT	0	Vch Offset (V)
VCHFILTER	IQUANT	3	Vch Filter
ACHRANGE	IQUANT	2	Ach Range
ACHOFFSETENABLE	TOGGLE	F	Ach Offset Enable
ACHOFFSET	QUANT	0	Ach Offset (V)
ACHFILTER	IQUANT	3	Ach Filter
IERANGELOWERLIMIT	IQUANT	1	I/E Range Lower Limit
IERANGEMODE	TOGGLE	F	I/E AutoRange
IERANGE	IQUANT	3	I/E Range
POSFEEDENABLE	TOGGLE	F	Positive Feedback IR Comp
POSFEEDRESISTANCE	QUANT	0	Positive Feedback Resistance (ohm)
ACHSELECT	IQUANT	0	Ach Select
CABLEID	IQUANT	14	Cable ID
DCCALDATE	LABEL	8/19/2019	DC Calibration Date
ACCALDATE	LABEL	8/19/2019	AC Calibration Date
THERMOSELECT	IQUANT	1	Thermo Select
FRAMEWORKVERSION	QUANT	6.33	Framework Version
INSTRUMENTVERSION	LABEL	3.50	Instrument Version
ZCURVE	TABLE
	Pt	Time	Freq	Zreal	Zimag	Zsig	Zmod	Zphz	Idc	Vdc	IERange
	#	s	Hz	ohm	ohm	V	ohm	°	A	V	#
	0	1	1000078	2114.242	-1342.12	1	2504.257	-32.40736	-3.143012E-006	0.0108806	8
	1	3	794390.6	2361.338	-1250.477	1	2672.005	-27.90404	-9.460864E-008	0.0106509	8
	2	4	630984.4	2575.511	-1127.549	1	2811.516	-23.64363	2.697458E-008	0.010342	8
	3	6	501234.4	2750.002	-1005.143	1	2927.938	-20.07768	-5.626794E-009	0.0102417	8
	4	7	398109.4	2880.174	-879.0616	1	3011.337	-16.97278	-2.000459E-007	0.0101727	8
	5	8	316265.6	2979.761	-769.9868	1	3077.638	-14.48861	-4.498821E-007	0.0101373	8
	6	10	251203.1	3054.237	-675.5705	1	3128.06	-12.4725	-1.661009E-006	0.0104355	8
	7	11	199546.9	3117.729	-596.6443	1	3174.306	-10.83379	1.806286E-007	0.0101007	8
	8	12	158578.1	3174.054	-541.6617	1	3219.94	-9.6844	-7.151181E-007	0.0102367	8
	9	14	125953.1	3226.332	-475.0686	1	3261.121	-8.376455	-5.866641E-007	0.0111097	7
	10	15	100078.1	3264.266	-444.2936	1	3294.363	-7.750802	3.721051E-008	0.0099824	7
	11	16	79453.13	3303.586	-433.9697	1	3331.968	-7.483708	-3.898112E-008	0.0101157	7
	12	18	63140.62	3344.138	-434.2333	1	3372.212	-7.39841	1.019642E-009	0.0100648	7
	13	19	50203.12	3386.739	-441.7	1	3415.42	-7.430601	-3.054091E-008	0.0100969	7
	14	20	39890.62	3431.319	-456.5371	1	3461.556	-7.578696	-1.076007E-008	0.0100867	7
	15	22	31640.63	3479.087	-483.7562	1	3512.559	-7.916043	-2.626686E-008	0.0101377	7
	16	23	25171.88	3529.712	-517.8657	1	3567.499	-8.346666	6.186232E-008	0.0099662	7
	17	24	20015.62	3584.657	-560.4943	1	3628.212	-8.886769	1.4534E-008	0.0099765	7
	18	26	15890.62	3646.443	-614.743	1	3697.898	-9.56934	6.899279E-010	0.0100476	7
	19	27	12609.37	3711.301	-679.2883	1	3772.955	-10.37218	1.393156E-009	0.0100145	7
	20	28	10078.13	3781.329	-754.6921	1	3855.905	-11.287	4.336452E-008	0.0100148	7
	21	30	8015.625	3861.423	-845.0428	1	3952.808	-12.34413	1.461998E-008	0.0099675	7
	22	31	6328.125	3952.083	-955.08	1	4065.85	-13.5859	6.340625E-008	0.0099574	7
	23	32	5015.625	4051.263	-1081.471	1	4193.127	-14.94639	2.745764E-008	0.0099582	7
	24	34	3984.375	4160.167	-1229.406	1	4338.021	-16.46338	-9.283296E-009	0.0100774	7
	25	35	3170.956	4278.886	-1398.56	1	4501.648	-18.10006	-2.531363E-008	0.0101335	7
	26	36	2527.573	4408.289	-1595.456	1	4688.122	-19.89629	-1.820172E-008	0.0100312	7
	27	38	1976.103	4561.535	-1848.325	1	4921.779	-22.05769	2.446348E-008	0.0100019	7
	28	39	1577.524	4710.378	-2123.642	1	5166.964	-24.26791	-9.573975E-009	0.01007	7
	29	40	1265.625	4868.107	-2438.184	1	5444.558	-26.60392	-1.616394E-008	0.0100339	7
	30	42	998.264	5042.604	-2863.455	1	5798.898	-29.59018	3.90705E-008	0.0099587	7
	31	43	796.875	5220.789	-3355.541	1	6206.149	-32.72994	6.332973E-008	0.0099591	7
	32	44	627.7902	5421.824	-3997.128	1	6735.964	-36.39873	6.516173E-008	0.0099625	7
	33	46	505.5147	5625.1	-4716.895	1	7341.039	-39.98132	2.898783E-008	0.0099547	7
	34	47	397.9953	5881.759	-5712.475	1	8199.235	-44.1635	5.551131E-009	0.0100574	7
	35	48	315.5048	6182.709	-6913.592	1	9274.894	-48.19427	6.072477E-009	0.0100581	7
	36	50	252.4038	6543.737	-8336.211	1	10597.78	-51.86889	7.671676E-010	0.0100001	6
	37	51	198.6229	7036.808	-10219.33	1	12407.72	-55.44955	5.612907E-010	0.0099919	6
	38	52	158.3615	7643.319	-12398.73	1	14565.33	-58.34783	4.106691E-010	0.0099852	6
	39	54	125.558	8455.759	-15116.57	1	17320.81	-60.77865	6.191169E-010	0.0099913	6
	40	55	100.4464	9496.092	-18271.86	1	20592.15	-62.53859	4.291907E-010	0.0099872	6
	41	56	79.00281	10954.17	-22304.83	1	24849.53	-63.84379	4.92612E-010	0.0099891	6
	42	58	63.3446	12586.6	-26726.84	1	29542.28	-64.78262	-2.283886E-010	0.0099872	6
	43	59	49.86702	15352.1	-32468.17	1	35914.75	-64.69356	5.841415E-010	0.0099868	6
	44	60	39.72458	18371.57	-38835.7	1	42961.92	-64.68309	5.628469E-010	0.0099979	6
	45	62	31.6723	22273.21	-46031.7	1	51137.2	-64.17921	5.148755E-010	0.0099946	6
	46	63	24.93351	27731.46	-54738.28	1	61362.15	-63.13235	-5.199882E-010	0.0099903	6
	47	64	19.86229	34188.27	-64030.71	1	72586.3	-61.90066	-3.168964E-010	0.0099899	6
	48	66	15.83615	42181.01	-73933.66	1	85120.06	-60.29416	-1.135673E-009	0.0099908	6
	49	67	12.40079	51819.73	-86018.23	1	100421.2	-58.93409	1.245449E-009	0.0099889	6
	50	69	9.93114	62983.14	-97964.7	1	116464.4	-57.26236	-1.140413E-009	0.0099987	5
	51	70	7.944915	75564.05	-110634.2	1	133977	-55.6666	9.444439E-010	0.0099909	5
	52	72	6.317385	90295.51	-124524.1	1	153816.6	-54.05322	5.887601E-010	0.0099977	5
	53	74	5.008013	107122.2	-139724.1	1	176062.5	-52.52373	1.5347E-010	0.0100021	5
	54	76	3.945707	126330.8	-156308.7	1	200977.3	-51.05439	-3.428661E-010	0.0099996	5
	55	79	3.158693	145862.4	-173039.3	1	226315	-49.87099	-6.265898E-010	0.0099831	5
	56	82	2.504006	168209.9	-192442.5	1	255594.7	-48.84398	5.616413E-010	0.0099933	5
	57	85	1.998082	191815.4	-212443.9	1	286226.4	-47.92115	-1.276493E-010	0.0100356	5
	58	88	1.584686	217157.5	-236539	1	321104.5	-47.44614	1.009079E-010	0.0100116	5
	59	91	1.266892	245482	-263306.4	1	359988.4	-47.00642	-5.194005E-010	0.0100369	5
	60	96	0.999041	274822.1	-294055.9	1	402487.4	-46.93644	-6.723094E-012	0.0099766	5
