EXPLAIN
TAG	EISPOT
TITLE	LABEL	Potentiostatic EIS	Test &Identifier
DATE	LABEL	10/20/2019	Date
TIME	LABEL	10:34:55	Time
NOTES	NOTES	1	&Notes...
	
PSTAT	PSTAT	REF600-11020	Potentiostat
VDC	POTEN	0.00000E+000	T	DC &Voltage (V)
FREQINIT	QUANT	1.00000E+006	Initial Fre&q. (Hz)
FREQFINAL	QUANT	1.00000E+000	Final Fre&q. (Hz)
PTSPERDEC	QUANT	1.00000E+001	Points/&decade
VAC	QUANT	2.50000E+001	AC &Voltage (mV rms)
AREA	QUANT	1.00000E-002	&Area (cm^2)
CONDIT	TWOPARAM	T	5.00000E+000	0.00000E+000	Conditionin&g	Time(s)	E(V)
DELAY	TWOPARAM	T	5.00000E+000	0.00000E+000	Init. De&lay	Time(s)	Stab.(mV/s)
SPEED	SELECTOR	1	&Optimize for:
ZGUESS	QUANT	1.00000E+005	E&stimated Z (ohms)
OCVCURVE	TABLE	19
	Pt	T	Vf	Vm	Ach	Over
	#	s	V vs. Ref.	V	V	bits
	0	0.258333	6.81001E-003	6.81001E-003	5.08400E-004	...........
	1	0.516667	6.81040E-003	6.83048E-003	5.09433E-004	...........
	2	0.775	6.80938E-003	6.67075E-003	5.02267E-004	...........
	3	1.03333	6.79805E-003	6.67078E-003	5.10200E-004	...........
	4	1.29167	6.76842E-003	6.66484E-003	5.17033E-004	...........
	5	1.55	6.72858E-003	6.69410E-003	5.02933E-004	...........
	6	1.80833	6.69755E-003	6.72421E-003	5.08800E-004	...........
	7	2.06667	6.68726E-003	6.75005E-003	5.04267E-004	...........
	8	2.325	6.69699E-003	6.78051E-003	5.03233E-004	...........
	9	2.58333	6.71932E-003	6.80613E-003	5.02333E-004	...........
	10	2.84167	6.74707E-003	6.83834E-003	5.06667E-004	...........
	11	3.1	6.77638E-003	6.87179E-003	5.07700E-004	...........
	12	3.35833	6.80634E-003	6.90342E-003	5.03500E-004	...........
	13	3.61667	6.83731E-003	6.94369E-003	5.06400E-004	...........
	14	3.875	6.86988E-003	6.98319E-003	5.01733E-004	...........
	15	4.13333	6.90461E-003	7.02338E-003	4.99333E-004	...........
	16	4.39167	6.94141E-003	7.05288E-003	5.07566E-004	...........
	17	4.65	6.97892E-003	7.08264E-003	5.10900E-004	...........
	18	4.90833	7.01502E-003	7.10894E-003	5.06067E-004	...........
EOC	QUANT	0.007015	Open Circuit (V)
PSTATMODEL	IQUANT	4	Pstat Model
PSTATSECTION	LABEL	REF600-11020	Pstat Section
PSTATSERIALNO	LABEL	11020	Pstat Serial Number
CTRLMODE	IQUANT	1	Control Mode
IESTAB	IQUANT	0	I/E Stability
CASPEED	IQUANT	1	Control Amp Speed
CONVENTION	IQUANT	1	Current Convention
ICHRANGE	IQUANT	2	Ich Range
ICHRANGEMODE	TOGGLE	F	Ich Auto Range
ICHOFFSETENABLE	TOGGLE	T	Ich Offset Enable
ICHOFFSET	QUANT	0	Ich Offset (V)
ICHFILTER	IQUANT	3	Ich Filter
VCHRANGE	IQUANT	2	Vch Range
VCHRANGEMODE	TOGGLE	F	Vch Auto Range
VCHOFFSETENABLE	TOGGLE	T	Vch Offset Enable
VCHOFFSET	QUANT	0	Vch Offset (V)
VCHFILTER	IQUANT	3	Vch Filter
ACHRANGE	IQUANT	2	Ach Range
ACHOFFSETENABLE	TOGGLE	F	Ach Offset Enable
ACHOFFSET	QUANT	0	Ach Offset (V)
ACHFILTER	IQUANT	3	Ach Filter
IERANGELOWERLIMIT	IQUANT	1	I/E Range Lower Limit
IERANGEMODE	TOGGLE	F	I/E AutoRange
IERANGE	IQUANT	5	I/E Range
POSFEEDENABLE	TOGGLE	F	Positive Feedback IR Comp
POSFEEDRESISTANCE	QUANT	0	Positive Feedback Resistance (ohm)
ACHSELECT	IQUANT	0	Ach Select
CABLEID	IQUANT	14	Cable ID
DCCALDATE	LABEL	8/19/2019	DC Calibration Date
ACCALDATE	LABEL	8/19/2019	AC Calibration Date
THERMOSELECT	IQUANT	1	Thermo Select
FRAMEWORKVERSION	QUANT	6.33	Framework Version
INSTRUMENTVERSION	LABEL	3.50	Instrument Version
ZCURVE	TABLE
	Pt	Time	Freq	Zreal	Zimag	Zsig	Zmod	Zphz	Idc	Vdc	IERange
	#	s	Hz	ohm	ohm	V	ohm	°	A	V	#
	0	1	1000078	2423.027	-1452.672	1	2825.122	-30.94386	-1.559183E-007	0.0090863	8
	1	3	794390.6	2693.724	-1399.753	1	3035.697	-27.45796	2.6508E-007	0.0089228	8
	2	4	630984.4	2952.828	-1305.19	1	3228.423	-23.84608	4.33661E-006	0.0079357	8
	3	6	501234.4	3175.864	-1174.133	1	3385.957	-20.28961	3.63859E-007	0.008409	8
	4	7	398109.4	3343.878	-1038.078	1	3501.304	-17.24651	-2.227879E-007	0.0084494	8
	5	8	316265.6	3483.866	-929.0496	1	3605.615	-14.9317	-2.603178E-007	0.0084467	8
	6	10	251203.1	3588.575	-808.9301	1	3678.619	-12.70319	-2.968442E-006	0.0091881	8
	7	11	199546.9	3677.223	-696.1163	1	3742.532	-10.71952	-2.849473E-006	0.009186	8
	8	13	158578.1	3741.948	-609.919	1	3791.329	-9.257518	8.460167E-007	0.0084203	8
	9	14	125953.1	3818.928	-482.2045	1	3849.25	-7.196481	-2.248011E-007	0.0085934	7
	10	16	100078.1	3854.514	-430.778	1	3878.511	-6.376878	7.44242E-009	0.0084934	7
	11	17	79453.13	3890.975	-401.0311	1	3911.587	-5.884527	1.060693E-008	0.0084569	7
	12	18	63140.62	3923.506	-379.0064	1	3941.769	-5.517591	-6.228424E-008	0.008746	7
	13	20	50203.12	3956.554	-365.9599	1	3973.442	-5.284515	4.7015E-008	0.0084805	7
	14	21	39890.62	3990.133	-363.4278	1	4006.649	-5.204233	-5.054206E-008	0.0086626	7
	15	22	31640.63	4024.514	-367.7593	1	4041.282	-5.221176	-2.543863E-008	0.0085138	7
	16	24	25171.88	4061.024	-381.4048	1	4078.895	-5.365387	2.137246E-008	0.0086111	7
	17	25	20015.62	4112.516	-399.0303	1	4131.829	-5.541963	-2.739201E-008	0.0085223	7
	18	27	15890.62	4143.002	-428.9984	1	4165.154	-5.911777	-5.331427E-008	0.0086579	7
	19	28	12609.37	4189.537	-461.4188	1	4214.87	-6.284997	-2.554334E-008	0.0085187	7
	20	29	10078.13	4240.424	-500.5919	1	4269.87	-6.732738	-7.121675E-008	0.0086248	7
	21	31	8015.625	4309.494	-558.7439	1	4345.565	-7.387426	-6.348287E-008	0.0087441	7
	22	32	6328.125	4352.355	-603.0723	1	4393.938	-7.888803	-6.505811E-008	0.0087451	7
	23	33	5015.625	4413.249	-668.385	1	4463.575	-8.611979	-2.835777E-008	0.008523	7
	24	35	3984.375	4487.89	-748.9004	1	4549.946	-9.473734	4.057975E-008	0.0083968	7
	25	36	3170.956	4529.708	-840.8178	1	4607.084	-10.51573	9.599978E-008	0.0084614	7
	26	37	2527.573	4586.058	-958.367	1	4685.125	-11.80347	-5.345339E-008	0.0086113	7
	27	39	1976.103	4648.148	-1123.359	1	4781.968	-13.58665	4.007965E-008	0.0083941	7
	28	40	1577.524	4686.836	-1230.774	1	4845.745	-14.71379	-5.467228E-008	0.0086276	7
	29	42	1265.625	4765.808	-1538.7	1	5008.046	-17.89332	9.344319E-008	0.0084575	7
	30	43	998.264	4836.52	-1853.434	1	5179.492	-20.96765	8.844168E-009	0.0084774	7
	31	44	796.875	4909.127	-2224.705	1	5389.698	-24.37896	1.245802E-007	0.0083555	7
	32	46	627.7902	5000.339	-2713.96	1	5689.374	-28.49113	-3.674364E-008	0.0085486	7
	33	47	505.5147	5097.732	-3272.69	1	6057.836	-32.70003	1.227972E-007	0.008346	7
	34	48	397.9953	5230.932	-4030.2	1	6603.42	-37.61265	2.418595E-009	0.008554	7
	35	50	315.5048	5389.577	-4948.075	1	7316.487	-42.55449	3.725151E-009	0.008545	7
	36	51	252.4038	5582.464	-6035.342	1	8221.269	-47.23234	3.616044E-009	0.0085442	7
	37	52	198.6229	5849.149	-7473.597	1	9490.374	-51.95178	4.028412E-009	0.0085421	7
	38	54	158.3615	6171.937	-9148.945	1	11036.12	-55.99615	1.076734E-010	0.0084853	6
	39	55	125.558	6603.535	-11249.95	1	13044.85	-59.58778	7.491608E-010	0.0084856	6
	40	57	100.4464	7142.362	-13703.97	1	15453.54	-62.47195	-9.571395E-010	0.0084865	6
	41	58	79.00281	7822.287	-16948.59	1	18666.63	-65.22525	-7.109091E-010	0.0084816	6
	42	59	63.3446	8578.998	-20372.06	1	22104.75	-67.16327	1.001796E-009	0.0084807	6
	43	61	49.86702	10041.94	-25312.85	1	27231.98	-68.36112	1.454956E-009	0.0084754	6
	44	62	39.72458	11316.26	-30754.33	1	32770.21	-69.79857	1.14319E-009	0.0084848	6
	45	64	31.6723	12940.78	-37416.42	1	39591.06	-70.92163	1.450709E-009	0.0084821	6
	46	65	24.93351	15356.61	-45802.74	1	48308.55	-71.46488	4.729515E-010	0.0084791	6
	47	66	19.86229	18244.28	-55570.96	1	58489.2	-71.82468	4.688842E-010	0.0084836	6
	48	68	15.83615	21738.9	-66952.93	1	70393.71	-72.01194	2.872244E-010	0.0084805	6
	49	69	12.40079	25925.2	-82321.77	1	86307.53	-72.51947	-5.775689E-010	0.0084776	6
	50	71	9.93114	32211.1	-98752.2	1	103872.8	-71.93465	-3.5504E-010	0.0084837	6
	51	72	7.944915	39714.05	-118682.9	1	125151.3	-71.49857	1.074936E-010	0.0084844	5
	52	74	6.317385	48688.75	-142627.6	1	150709.1	-71.15164	5.640958E-010	0.0084938	5
	53	76	5.008013	60540.21	-171631.4	1	181995.8	-70.57053	4.625161E-010	0.0084951	5
	54	78	3.945707	76149.97	-206705.3	1	220286	-69.77627	7.309042E-011	0.0084907	5
	55	81	3.158693	94292.14	-244803	1	262334.7	-68.93453	1.687149E-010	0.0085028	5
	56	84	2.504006	117546	-291096.7	1	313933.6	-68.01096	7.356393E-011	0.0084749	5
	57	87	1.998082	144513.2	-342323	1	371576.5	-67.11273	-1.641922E-010	0.0085011	5
	58	90	1.584686	178748	-404227.3	1	441984.8	-66.14514	1.679423E-010	0.0085385	5
	59	94	1.266892	218037.9	-471095.8	1	519106.7	-65.16383	-1.371339E-010	0.0085169	5
	60	98	0.999041	266642.3	-553667.9	1	614529.4	-64.28488	2.536979E-010	0.0084811	5
