EXPLAIN
TAG	EISPOT
TITLE	LABEL	Potentiostatic IDE	Test &Identifier
DATE	LABEL	9/12/2019	Date
TIME	LABEL	11:10:58	Time
NOTES	NOTES	1	&Notes...
	
PSTAT	PSTAT	REF600-11020	Potentiostat
VDC	POTEN	0.00000E+000	T	DC &Voltage (V)
FREQINIT	QUANT	1.00000E+006	Initial Fre&q. (Hz)
FREQFINAL	QUANT	1.00000E+000	Final Fre&q. (Hz)
PTSPERDEC	QUANT	1.00000E+001	Points/&decade
VAC	QUANT	2.50000E+001	AC &Voltage (mV rms)
AREA	QUANT	1.00000E-002	&Area (cm^2)
CONDIT	TWOPARAM	T	5.00000E+000	0.00000E+000	Conditionin&g	Time(s)	E(V)
DELAY	TWOPARAM	T	5.00000E+000	0.00000E+000	Init. De&lay	Time(s)	Stab.(mV/s)
SPEED	SELECTOR	1	&Optimize for:
ZGUESS	QUANT	1.00000E+007	E&stimated Z (ohms)
OCVCURVE	TABLE	19
	Pt	T	Vf	Vm	Ach	Over
	#	s	V vs. Ref.	V	V	bits
	0	0.258333	6.93779E-003	6.93779E-003	5.56766E-004	...........
	1	0.516667	6.93811E-003	6.95420E-003	5.56133E-004	...........
	2	0.775	6.94079E-003	7.00969E-003	5.56533E-004	...........
	3	1.03333	6.95038E-003	7.03406E-003	5.55099E-004	...........
	4	1.29167	6.97020E-003	7.06617E-003	5.52333E-004	...........
	5	1.55	6.99874E-003	7.11285E-003	5.62332E-004	...........
	6	1.80833	7.03257E-003	7.16217E-003	5.58466E-004	...........
	7	2.06667	7.07049E-003	7.20851E-003	5.62032E-004	...........
	8	2.325	7.11251E-003	7.25627E-003	5.64566E-004	...........
	9	2.58333	7.15785E-003	7.30876E-003	5.65499E-004	...........
	10	2.84167	7.20535E-003	7.35911E-003	5.69299E-004	...........
	11	3.1	7.25430E-003	7.40636E-003	5.68399E-004	...........
	12	3.35833	7.30389E-003	7.45097E-003	5.64866E-004	...........
	13	3.61667	7.35310E-003	7.50050E-003	5.64099E-004	...........
	14	3.875	7.40127E-003	7.54246E-003	5.67066E-004	...........
	15	4.13333	7.44835E-003	7.58810E-003	5.62799E-004	...........
	16	4.39167	7.49433E-003	7.62740E-003	5.72232E-004	...........
	17	4.65	7.53902E-003	7.66854E-003	5.69099E-004	...........
	18	4.90833	7.58227E-003	7.70876E-003	5.67799E-004	...........
EOC	QUANT	0.0075823	Open Circuit (V)
PSTATMODEL	IQUANT	4	Pstat Model
PSTATSECTION	LABEL	REF600-11020	Pstat Section
PSTATSERIALNO	LABEL	11020	Pstat Serial Number
CTRLMODE	IQUANT	1	Control Mode
IESTAB	IQUANT	0	I/E Stability
CASPEED	IQUANT	1	Control Amp Speed
CONVENTION	IQUANT	1	Current Convention
ICHRANGE	IQUANT	2	Ich Range
ICHRANGEMODE	TOGGLE	F	Ich Auto Range
ICHOFFSETENABLE	TOGGLE	T	Ich Offset Enable
ICHOFFSET	QUANT	0	Ich Offset (V)
ICHFILTER	IQUANT	3	Ich Filter
VCHRANGE	IQUANT	2	Vch Range
VCHRANGEMODE	TOGGLE	F	Vch Auto Range
VCHOFFSETENABLE	TOGGLE	T	Vch Offset Enable
VCHOFFSET	QUANT	0	Vch Offset (V)
VCHFILTER	IQUANT	3	Vch Filter
ACHRANGE	IQUANT	2	Ach Range
ACHOFFSETENABLE	TOGGLE	F	Ach Offset Enable
ACHOFFSET	QUANT	0	Ach Offset (V)
ACHFILTER	IQUANT	3	Ach Filter
IERANGELOWERLIMIT	IQUANT	1	I/E Range Lower Limit
IERANGEMODE	TOGGLE	F	I/E AutoRange
IERANGE	IQUANT	3	I/E Range
POSFEEDENABLE	TOGGLE	F	Positive Feedback IR Comp
POSFEEDRESISTANCE	QUANT	0	Positive Feedback Resistance (ohm)
ACHSELECT	IQUANT	0	Ach Select
CABLEID	IQUANT	14	Cable ID
DCCALDATE	LABEL	8/19/2019	DC Calibration Date
ACCALDATE	LABEL	8/19/2019	AC Calibration Date
THERMOSELECT	IQUANT	1	Thermo Select
FRAMEWORKVERSION	QUANT	6.33	Framework Version
INSTRUMENTVERSION	LABEL	3.50	Instrument Version
ZCURVE	TABLE
	Pt	Time	Freq	Zreal	Zimag	Zsig	Zmod	Zphz	Idc	Vdc	IERange
	#	s	Hz	ohm	ohm	V	ohm	°	A	V	#
	0	2	1000078	2479.658	-1511.033	1	2903.777	-31.35695	-2.711657E-006	0.0108982	8
	1	3	794390.6	2781.624	-1395.661	1	3112.122	-26.64491	-1.632998E-007	0.0096806	8
	2	5	630984.4	3004.487	-1234.653	1	3248.278	-22.33954	3.072736E-007	0.0095316	8
	3	6	501234.4	3195.168	-1076.041	1	3371.493	-18.61205	-2.626583E-006	0.0095428	8
	4	8	398109.4	3333.163	-938.4129	1	3462.744	-15.72394	5.031379E-006	0.0082886	8
	5	9	316265.6	3437.947	-808.2405	1	3531.675	-13.22965	-4.006536E-006	0.0098972	8
	6	10	251203.1	3514.69	-677.044	1	3579.306	-10.90348	-1.040102E-006	0.0094542	8
	7	12	199546.9	3585.248	-596.8545	1	3634.589	-9.451642	-2.279518E-006	0.0094072	8
	8	13	158578.1	3617.135	-530.8098	1	3655.876	-8.348492	6.120237E-007	0.0089125	8
	9	15	125953.1	3670.645	-409.8736	1	3693.458	-6.3714	6.397898E-007	0.0075027	7
	10	16	100078.1	3696.717	-365.6327	1	3714.755	-5.648605	2.726387E-008	0.009088	7
	11	17	79453.13	3723.982	-346.416	1	3740.06	-5.314531	9.259317E-010	0.0090402	7
	12	19	63140.62	3749.532	-337.4769	1	3764.689	-5.143052	-1.090387E-008	0.0091433	7
	13	20	50203.12	3774.847	-334.7648	1	3789.662	-5.067903	8.77475E-010	0.0090353	7
	14	21	39890.62	3803.267	-342.6118	1	3818.668	-5.147514	-3.260054E-008	0.0091022	7
	15	23	31640.63	3829.736	-358.0727	1	3846.439	-5.341513	-5.529427E-008	0.0092121	7
	16	24	25171.88	3859.294	-383.0508	1	3878.257	-5.668276	-4.134236E-008	0.0092349	7
	17	25	20015.62	3891.745	-417.5017	1	3914.076	-6.123204	7.209655E-008	0.0090827	7
	18	27	15890.62	3930.004	-462.6353	1	3957.141	-6.71389	2.39478E-008	0.0090117	7
	19	28	12609.37	3967.766	-522.3378	1	4002	-7.499596	8.570932E-008	0.0089464	7
	20	29	10078.13	4008.161	-591.2847	1	4051.54	-8.391759	-1.21993E-008	0.0091423	7
	21	30	8015.625	4057.968	-676.9494	1	4114.044	-9.47086	-8.945783E-009	0.0091345	7
	22	32	6328.125	4114.269	-783.709	1	4188.247	-10.78482	-1.164611E-008	0.0091472	7
	23	33	5015.625	4176.023	-912.2874	1	4274.51	-12.32314	2.973452E-008	0.0090776	7
	24	34	3984.375	4248.021	-1066.67	1	4379.894	-14.09544	-2.047234E-008	0.009081	7
	25	36	3170.956	4325.459	-1250.545	1	4502.606	-16.12526	1.437157E-007	0.0088844	7
	26	37	2527.573	4415.334	-1469.529	1	4653.46	-18.40868	-5.393002E-008	0.0092061	7
	27	38	1976.103	4525.646	-1755.035	1	4854.032	-21.19617	-1.13336E-008	0.0091417	7
	28	40	1577.524	4645.861	-2075.542	1	5088.408	-24.07273	-4.361766E-008	0.009125	7
	29	41	1265.625	4775.391	-2447.756	1	5366.178	-27.13864	-6.969778E-008	0.0091986	7
	30	42	998.264	4935.175	-2934.684	1	5741.805	-30.73768	-1.695472E-009	0.0091315	7
	31	44	796.875	5112.431	-3491.136	1	6190.717	-34.32807	-4.218465E-008	0.0091281	7
	32	45	627.7902	5328.878	-4208.739	1	6790.466	-38.30162	2.404795E-008	0.0090031	7
	33	46	505.5147	5553.498	-4995.303	1	7469.564	-41.97099	9.208799E-008	0.0089066	7
	34	48	397.9953	5842.207	-6066.808	1	8422.442	-46.08045	6.327797E-009	0.0091034	7
	35	49	315.5048	6174.512	-7332.646	1	9586.05	-49.90068	6.898841E-009	0.009104	7
	36	50	252.4038	6554.358	-8808.372	1	10979.39	-53.34686	5.454603E-010	0.0090404	6
	37	52	198.6229	7034.686	-10748.2	1	12845.65	-56.7953	9.480818E-010	0.0090406	6
	38	53	158.3615	7579.488	-12990.4	1	15039.91	-59.73778	1.858407E-009	0.0090346	6
	39	54	125.558	8244.37	-15795.8	1	17817.88	-62.4384	1.143489E-009	0.0090379	6
	40	56	100.4464	9005.561	-19061.35	1	21081.63	-64.71154	5.588877E-010	0.0090357	6
	41	57	79.00281	10047.72	-23443.33	1	25505.81	-66.80022	1.267443E-009	0.0090396	6
	42	58	63.3446	10924.94	-28358.23	1	30389.86	-68.93094	1.474642E-009	0.0090357	6
	43	60	49.86702	12779.23	-34647.66	1	36929.24	-69.75432	4.376333E-010	0.009034	6
	44	61	39.72458	14464.78	-42376.36	1	44777.07	-71.15313	1.593252E-009	0.0090399	6
	45	62	31.6723	16943.44	-51445.27	1	54163.61	-71.77076	1.71302E-009	0.0090354	6
	46	64	24.93351	20041.73	-63369.92	1	66463.66	-72.44963	1.026148E-009	0.0090321	6
	47	65	19.86229	23996.95	-77042.69	1	80693.43	-72.69945	7.066314E-010	0.0090363	6
	48	66	15.83615	29649.73	-93269.95	1	97869.2	-72.36498	-9.389859E-011	0.0090334	6
	49	68	12.40079	36700.44	-115168.3	1	120874.5	-72.32458	6.71686E-010	0.0090433	5
	50	69	9.93114	45843.93	-137741.6	1	145170.3	-71.59124	1.489935E-010	0.0090521	5
	51	71	7.944915	57653.29	-165236.8	1	175006	-70.76545	7.306065E-010	0.0090403	5
	52	73	6.317385	72585.92	-198030	1	210913.8	-69.87009	2.299469E-010	0.0090572	5
	53	75	5.008013	92690.84	-236228.8	1	253763	-68.57608	5.548235E-010	0.0090486	5
	54	77	3.945707	118783.4	-282407.8	1	306371.8	-67.18792	7.660447E-011	0.0090436	5
	55	80	3.158693	150045.3	-329730.8	1	362265	-65.5319	1.227569E-010	0.0090307	5
	56	83	2.504006	189108.3	-385043.8	1	428976.3	-63.84276	4.674685E-010	0.0090475	5
	57	86	1.998082	235117.6	-444238.5	1	502621.3	-62.10953	4.615818E-010	0.0090674	5
	58	89	1.584686	290107.1	-508526.4	1	585458.2	-60.29585	2.922629E-010	0.0090168	5
	59	92	1.266892	352031.3	-578022.3	1	676783.4	-58.65745	1.852913E-010	0.0090884	5
	60	97	0.999041	424996.2	-655949.1	1	781595.1	-57.06038	1.250382E-010	0.0090037	5
