EXPLAIN
TAG	EISPOT
TITLE	LABEL	Potentiostatic IDE	Test &Identifier
DATE	LABEL	9/8/2019	Date
TIME	LABEL	8:41:39	Time
NOTES	NOTES	1	&Notes...
	
PSTAT	PSTAT	REF600-11020	Potentiostat
VDC	POTEN	0.00000E+000	T	DC &Voltage (V)
FREQINIT	QUANT	1.00000E+006	Initial Fre&q. (Hz)
FREQFINAL	QUANT	1.00000E+000	Final Fre&q. (Hz)
PTSPERDEC	QUANT	1.00000E+001	Points/&decade
VAC	QUANT	2.50000E+001	AC &Voltage (mV rms)
AREA	QUANT	1.00000E-002	&Area (cm^2)
CONDIT	TWOPARAM	T	5.00000E+000	0.00000E+000	Conditionin&g	Time(s)	E(V)
DELAY	TWOPARAM	T	5.00000E+000	0.00000E+000	Init. De&lay	Time(s)	Stab.(mV/s)
SPEED	SELECTOR	1	&Optimize for:
ZGUESS	QUANT	1.00000E+007	E&stimated Z (ohms)
OCVCURVE	TABLE	19
	Pt	T	Vf	Vm	Ach	Over
	#	s	V vs. Ref.	V	V	bits
	0	0.258333	2.45505E-002	2.45505E-002	5.66899E-004	...........
	1	0.516667	2.45733E-002	2.57473E-002	5.67199E-004	...........
	2	0.775	2.47139E-002	2.68929E-002	5.70832E-004	...........
	3	1.03333	2.51112E-002	2.79283E-002	5.66266E-004	...........
	4	1.29167	2.58181E-002	2.89284E-002	5.69566E-004	...........
	5	1.55	2.67496E-002	2.98753E-002	5.65932E-004	...........
	6	1.80833	2.77703E-002	3.07453E-002	5.70299E-004	...........
	7	2.06667	2.87823E-002	3.15623E-002	5.72832E-004	...........
	8	2.325	2.97402E-002	3.23420E-002	5.65832E-004	...........
	9	2.58333	3.06341E-002	3.31050E-002	5.63532E-004	...........
	10	2.84167	3.14720E-002	3.38502E-002	5.62999E-004	...........
	11	3.1	3.22684E-002	3.45874E-002	5.66799E-004	...........
	12	3.35833	3.30285E-002	3.48830E-002	5.67899E-004	...........
	13	3.61667	3.37314E-002	3.53711E-002	5.65232E-004	...........
	14	3.875	3.43474E-002	3.58941E-002	5.66766E-004	...........
	15	4.13333	3.48830E-002	3.64440E-002	5.67166E-004	...........
	16	4.39167	3.53832E-002	3.70333E-002	5.66666E-004	...........
	17	4.65	3.58910E-002	3.75659E-002	5.63766E-004	...........
	18	4.90833	3.64215E-002	3.80964E-002	5.67399E-004	...........
EOC	QUANT	0.0364215	Open Circuit (V)
PSTATMODEL	IQUANT	4	Pstat Model
PSTATSECTION	LABEL	REF600-11020	Pstat Section
PSTATSERIALNO	LABEL	11020	Pstat Serial Number
CTRLMODE	IQUANT	1	Control Mode
IESTAB	IQUANT	0	I/E Stability
CASPEED	IQUANT	1	Control Amp Speed
CONVENTION	IQUANT	1	Current Convention
ICHRANGE	IQUANT	2	Ich Range
ICHRANGEMODE	TOGGLE	F	Ich Auto Range
ICHOFFSETENABLE	TOGGLE	T	Ich Offset Enable
ICHOFFSET	QUANT	0	Ich Offset (V)
ICHFILTER	IQUANT	3	Ich Filter
VCHRANGE	IQUANT	2	Vch Range
VCHRANGEMODE	TOGGLE	F	Vch Auto Range
VCHOFFSETENABLE	TOGGLE	T	Vch Offset Enable
VCHOFFSET	QUANT	0	Vch Offset (V)
VCHFILTER	IQUANT	3	Vch Filter
ACHRANGE	IQUANT	2	Ach Range
ACHOFFSETENABLE	TOGGLE	F	Ach Offset Enable
ACHOFFSET	QUANT	0	Ach Offset (V)
ACHFILTER	IQUANT	3	Ach Filter
IERANGELOWERLIMIT	IQUANT	1	I/E Range Lower Limit
IERANGEMODE	TOGGLE	F	I/E AutoRange
IERANGE	IQUANT	3	I/E Range
POSFEEDENABLE	TOGGLE	F	Positive Feedback IR Comp
POSFEEDRESISTANCE	QUANT	0	Positive Feedback Resistance (ohm)
ACHSELECT	IQUANT	0	Ach Select
CABLEID	IQUANT	14	Cable ID
DCCALDATE	LABEL	8/19/2019	DC Calibration Date
ACCALDATE	LABEL	8/19/2019	AC Calibration Date
THERMOSELECT	IQUANT	1	Thermo Select
FRAMEWORKVERSION	QUANT	6.33	Framework Version
INSTRUMENTVERSION	LABEL	3.50	Instrument Version
ZCURVE	TABLE
	Pt	Time	Freq	Zreal	Zimag	Zsig	Zmod	Zphz	Idc	Vdc	IERange
	#	s	Hz	ohm	ohm	V	ohm	°	A	V	#
	0	2	1000078	2489.135	-1305.428	1	2810.683	-27.67477	5.35779E-007	0.0385567	8
	1	4	794390.6	2710.4	-1187.332	1	2959.058	-23.65655	2.718248E-006	0.0377137	8
	2	5	630984.4	2924.038	-1047.668	1	3106.06	-19.71235	1.973283E-006	0.0378575	8
	3	7	501234.4	3062.258	-918.5225	1	3197.047	-16.69659	1.746706E-006	0.0377061	8
	4	8	398109.4	3155.842	-787.5411	1	3252.623	-14.01199	2.166355E-006	0.037727	8
	5	9	316265.6	3238.77	-667.6131	1	3306.863	-11.64734	-2.410715E-006	0.0383935	8
	6	11	251203.1	3299.185	-580.7841	1	3349.915	-9.98398	-5.09463E-006	0.0392802	8
	7	13	199546.9	3353.268	-510.6488	1	3391.927	-8.658703	-7.706827E-007	0.038292	8
	8	14	158578.1	3392.601	-444.8341	1	3421.64	-7.469944	-3.92679E-006	0.0389587	8
	9	15	125953.1	3443.816	-356.4781	1	3462.217	-5.909782	8.82379E-007	0.0369307	7
	10	17	100078.1	3460.323	-333.2013	1	3476.329	-5.500165	-3.582544E-009	0.0380185	7
	11	18	79453.13	3484.34	-327.7716	1	3499.723	-5.373995	-6.1131E-008	0.0381949	7
	12	19	63140.62	3510.013	-330.33	1	3525.522	-5.376315	1.440829E-007	0.0378695	7
	13	21	50203.12	3537.519	-340.0439	1	3553.825	-5.490685	-7.592519E-008	0.0381835	7
	14	22	39890.62	3566.915	-356.3585	1	3584.672	-5.705297	-1.478405E-008	0.0381063	7
	15	23	31640.63	3599.54	-386.2227	1	3620.201	-6.12428	1.427046E-007	0.0378517	7
	16	25	25171.88	3635.577	-423.028	1	3660.105	-6.636969	-4.843548E-008	0.038104	7
	17	26	20015.62	3675.387	-469.2455	1	3705.221	-7.275727	8.822686E-008	0.0378868	7
	18	27	15890.62	3722.002	-523.6624	1	3758.659	-8.008591	-9.730249E-009	0.0381075	7
	19	29	12609.37	3774.931	-594.7672	1	3821.499	-8.953751	9.030215E-008	0.0379098	7
	20	30	10078.13	3830.992	-674.1357	1	3889.853	-9.9801	-2.407753E-008	0.0382198	7
	21	31	8015.625	3898.333	-767.7718	1	3973.22	-11.14173	-2.484952E-008	0.0380611	7
	22	33	6328.125	3975.848	-882.1008	1	4072.526	-12.50929	-2.586058E-008	0.0380602	7
	23	34	5015.625	4061.301	-1013.507	1	4185.853	-14.0121	-4.704626E-008	0.0380985	7
	24	35	3984.375	4156.876	-1166.506	1	4317.448	-15.67523	-4.863397E-008	0.0380943	7
	25	37	3170.956	4263.449	-1345.115	1	4470.607	-17.51045	-4.625238E-008	0.0381103	7
	26	38	2527.573	4382.108	-1555.314	1	4649.933	-19.54098	5.4516E-008	0.0379009	7
	27	39	1976.103	4525.845	-1825.406	1	4880.101	-21.96566	-2.724826E-008	0.0380841	7
	28	41	1577.524	4675.786	-2120.541	1	5134.167	-24.39502	-6.715215E-008	0.0381616	7
	29	42	1265.625	4839.805	-2459.113	1	5428.715	-26.93519	-4.316761E-008	0.0382022	7
	30	43	998.264	5034.59	-2900.199	1	5810.185	-29.94429	9.041604E-008	0.0378915	7
	31	45	796.875	5243.898	-3401.382	1	6250.429	-32.9689	2.427282E-008	0.0379796	7
	32	46	627.7902	5497.26	-4041.765	1	6823.176	-36.32454	-5.01309E-008	0.0380967	7
	33	47	505.5147	5754.541	-4740.217	1	7455.495	-39.47948	-4.372709E-008	0.038105	7
	34	49	397.9953	6084.661	-5679.736	1	8323.611	-43.02869	2.691017E-009	0.0380893	7
	35	50	315.5048	6456.179	-6788.023	1	9368.005	-46.43529	4.791366E-009	0.0380874	7
	36	51	252.4038	6877.88	-8076.931	1	10608.58	-49.58407	-7.86557E-010	0.0380244	6
	37	53	198.6229	7411.465	-9764.49	1	12258.67	-52.80069	-1.278184E-009	0.0380233	6
	38	54	158.3615	8018.648	-11704.79	1	14188.05	-55.58596	-1.741611E-009	0.0380221	6
	39	55	125.558	8774.951	-14110.52	1	16616.45	-58.12363	-1.132312E-009	0.038025	6
	40	57	100.4464	9663.71	-16897.26	1	19465.47	-60.23433	-3.441209E-010	0.0380187	6
	41	58	79.00281	10840.52	-20531.49	1	23217.64	-62.16617	-1.778508E-009	0.038025	6
	42	59	63.3446	12104.99	-24777.6	1	27576.44	-63.96238	-1.545431E-009	0.0380213	6
	43	61	49.86702	14031	-29758.63	1	32900.54	-64.75642	-8.051039E-010	0.0380181	6
	44	62	39.72458	16279.01	-35961.21	1	39474.23	-65.64456	-1.31923E-009	0.0380217	6
	45	63	31.6723	19161.6	-43045.03	1	47117.32	-66.00364	-1.889672E-009	0.0380209	6
	46	65	24.93351	22928.07	-52063.62	1	56888.64	-66.23199	-1.146006E-009	0.0380186	6
	47	66	19.86229	27501.53	-62199.73	1	68008.38	-66.14745	-2.647992E-010	0.0380269	6
	48	68	15.83615	32974.9	-74125.16	1	81128.8	-66.0179	-1.086096E-009	0.0380234	6
	49	69	12.40079	41124.74	-88750.53	1	97815.6	-65.13819	-2.076041E-009	0.0380326	6
	50	70	9.93114	49852.93	-103962.4	1	115297.5	-64.38097	-2.289505E-009	0.0380241	5
	51	72	7.944915	60586.91	-121550	1	135813	-63.50592	-6.087238E-010	0.0380201	5
	52	74	6.317385	74515.56	-142130.1	1	160479.1	-62.33301	-1.382909E-009	0.0380278	5
	53	76	5.008013	91378.64	-165682.5	1	189210.8	-61.12201	-1.467296E-009	0.0380308	5
	54	78	3.945707	112114.5	-192767	1	222999.5	-59.81746	-1.607248E-009	0.0380238	5
	55	81	3.158693	135152.1	-220501.5	1	258625.2	-58.49459	-1.831513E-009	0.0380418	5
	56	84	2.504006	163468.1	-252604.3	1	300883.3	-57.09184	-1.616921E-009	0.0380177	5
	57	87	1.998082	194689.9	-286135.8	1	346089.3	-55.7682	-2.321499E-009	0.0380633	5
	58	90	1.584686	231288.3	-324818.3	1	398749.5	-54.54707	-1.880857E-009	0.0380538	5
	59	94	1.266892	271715.6	-364612	1	454721.1	-53.30584	-2.409852E-009	0.0380574	5
	60	98	0.999041	319163.9	-411984.7	1	521149.7	-52.23511	-1.669054E-009	0.0380285	5
