EXPLAIN
TAG	EISPOT
TITLE	LABEL	Potentiostatic EIS	Test &Identifier
DATE	LABEL	10/4/2019	Date
TIME	LABEL	10:01:02	Time
NOTES	NOTES	2	&Notes...
	
	
PSTAT	PSTAT	REF600-11020	Potentiostat
VDC	POTEN	0.00000E+000	T	DC &Voltage (V)
FREQINIT	QUANT	1.00000E+006	Initial Fre&q. (Hz)
FREQFINAL	QUANT	1.00000E+000	Final Fre&q. (Hz)
PTSPERDEC	QUANT	1.00000E+001	Points/&decade
VAC	QUANT	2.50000E+001	AC &Voltage (mV rms)
AREA	QUANT	1.00000E-002	&Area (cm^2)
CONDIT	TWOPARAM	T	5.00000E+000	0.00000E+000	Conditionin&g	Time(s)	E(V)
DELAY	TWOPARAM	T	5.00000E+000	0.00000E+000	Init. De&lay	Time(s)	Stab.(mV/s)
SPEED	SELECTOR	1	&Optimize for:
ZGUESS	QUANT	1.00000E+004	E&stimated Z (ohms)
OCVCURVE	TABLE	19
	Pt	T	Vf	Vm	Ach	Over
	#	s	V vs. Ref.	V	V	bits
	0	0.258333	2.25274E-003	2.25274E-003	5.32500E-004	...........
	1	0.516667	2.24643E-003	1.92264E-003	5.24400E-004	...........
	2	0.775	2.20937E-003	1.69707E-003	5.21133E-004	...........
	3	1.03333	2.11489E-003	1.73136E-003	5.24266E-004	...........
	4	1.29167	1.97027E-003	1.38744E-003	5.21666E-004	...........
	5	1.55	1.80048E-003	1.03346E-003	5.24800E-004	...........
	6	1.80833	1.60556E-003	8.84064E-004	5.26433E-004	...........
	7	2.06667	1.38154E-003	8.14265E-004	5.27566E-004	...........
	8	2.325	1.15655E-003	6.97823E-004	5.30566E-004	...........
	9	2.58333	9.65382E-004	5.22370E-004	5.29933E-004	...........
	10	2.84167	8.07718E-004	1.89868E-004	5.24300E-004	...........
	11	3.1	6.47211E-004	-1.60382E-004	5.24433E-004	...........
	12	3.35833	4.45452E-004	-3.65793E-004	5.25700E-004	...........
	13	3.61667	1.98551E-004	-5.14366E-004	5.25366E-004	...........
	14	3.875	-5.89364E-005	-6.13912E-004	5.31233E-004	...........
	15	4.13333	-2.86705E-004	-7.60232E-004	5.33266E-004	...........
	16	4.39167	-4.69299E-004	-8.66551E-004	5.29566E-004	...........
	17	4.65	-6.15552E-004	-9.59771E-004	5.32133E-004	...........
	18	4.90833	-7.39594E-004	-1.05603E-003	5.21333E-004	...........
EOC	QUANT	-0.0007396	Open Circuit (V)
PSTATMODEL	IQUANT	4	Pstat Model
PSTATSECTION	LABEL	REF600-11020	Pstat Section
PSTATSERIALNO	LABEL	11020	Pstat Serial Number
CTRLMODE	IQUANT	1	Control Mode
IESTAB	IQUANT	0	I/E Stability
CASPEED	IQUANT	1	Control Amp Speed
CONVENTION	IQUANT	1	Current Convention
ICHRANGE	IQUANT	2	Ich Range
ICHRANGEMODE	TOGGLE	F	Ich Auto Range
ICHOFFSETENABLE	TOGGLE	T	Ich Offset Enable
ICHOFFSET	QUANT	0	Ich Offset (V)
ICHFILTER	IQUANT	3	Ich Filter
VCHRANGE	IQUANT	2	Vch Range
VCHRANGEMODE	TOGGLE	F	Vch Auto Range
VCHOFFSETENABLE	TOGGLE	T	Vch Offset Enable
VCHOFFSET	QUANT	0	Vch Offset (V)
VCHFILTER	IQUANT	3	Vch Filter
ACHRANGE	IQUANT	2	Ach Range
ACHOFFSETENABLE	TOGGLE	F	Ach Offset Enable
ACHOFFSET	QUANT	0	Ach Offset (V)
ACHFILTER	IQUANT	3	Ach Filter
IERANGELOWERLIMIT	IQUANT	1	I/E Range Lower Limit
IERANGEMODE	TOGGLE	F	I/E AutoRange
IERANGE	IQUANT	5	I/E Range
POSFEEDENABLE	TOGGLE	F	Positive Feedback IR Comp
POSFEEDRESISTANCE	QUANT	0	Positive Feedback Resistance (ohm)
ACHSELECT	IQUANT	0	Ach Select
CABLEID	IQUANT	14	Cable ID
DCCALDATE	LABEL	8/19/2019	DC Calibration Date
ACCALDATE	LABEL	8/19/2019	AC Calibration Date
THERMOSELECT	IQUANT	1	Thermo Select
FRAMEWORKVERSION	QUANT	6.33	Framework Version
INSTRUMENTVERSION	LABEL	3.50	Instrument Version
ZCURVE	TABLE
	Pt	Time	Freq	Zreal	Zimag	Zsig	Zmod	Zphz	Idc	Vdc	IERange
	#	s	Hz	ohm	ohm	V	ohm	°	A	V	#
	0	1	1000078	2262.14	-1069.899	1	2502.391	-25.31222	3.141581E-007	0.0012956	8
	1	3	794390.6	2445.054	-984.308	1	2635.745	-21.92829	1.922201E-006	0.0007144	8
	2	4	630984.4	2581.549	-877.0852	1	2726.477	-18.76527	-3.153139E-006	0.0014159	8
	3	5	501234.4	2705.721	-779.288	1	2815.709	-16.06719	1.24522E-006	0.0007646	8
	4	7	398109.4	2804.001	-697.0507	1	2889.343	-13.96026	-4.57269E-007	0.0009257	8
	5	8	316265.6	2870.785	-623.4402	1	2937.7	-12.25251	3.431846E-006	0.0002293	8
	6	9	251203.1	2934.75	-557.2891	1	2987.194	-10.75206	-2.310751E-006	0.0012485	8
	7	11	199546.9	2987.845	-510.8646	1	3031.204	-9.70266	7.81491E-007	0.0007663	8
	8	12	158578.1	3031.409	-468.6826	1	3067.427	-8.788844	1.166268E-007	0.0008148	8
	9	13	125953.1	3083.895	-416.6247	1	3111.91	-7.693902	2.313897E-007	0.000249	7
	10	15	100078.1	3122.767	-406.0576	1	3149.056	-7.408679	-2.326958E-008	0.0007595	7
	11	16	79453.13	3163.53	-412.0258	1	3190.249	-7.420571	-2.024891E-008	0.0007482	7
	12	17	63140.62	3207.665	-423.9796	1	3235.564	-7.529539	-5.054618E-009	0.0008504	7
	13	19	50203.12	3256.292	-441.7816	1	3286.123	-7.726155	-3.91483E-008	0.0007829	7
	14	20	39890.62	3306.881	-464.4355	1	3339.336	-7.994625	6.212795E-008	0.0006165	7
	15	21	31640.63	3362.415	-492.9771	1	3398.362	-8.340938	-1.717185E-008	0.0007978	7
	16	23	25171.88	3420.35	-527.1002	1	3460.727	-8.760766	1.002254E-007	0.0005939	7
	17	24	20015.62	3482.515	-567.8396	1	3528.506	-9.260834	-3.243801E-008	0.0007825	7
	18	26	15890.62	3547.959	-614.7767	1	3600.828	-9.83038	2.984076E-008	0.0007163	7
	19	27	12609.37	3619.393	-671.1914	1	3681.1	-10.50576	-2.033791E-008	0.000752	7
	20	28	10078.13	3692.699	-735.0268	1	3765.142	-11.25751	-2.45104E-008	0.0008007	7
	21	30	8015.625	3772.885	-810.2184	1	3858.901	-12.12006	-2.69334E-009	0.0007524	7
	22	31	6328.125	3856.945	-902.205	1	3961.06	-13.16573	3.053464E-008	0.0007094	7
	23	32	5015.625	3947.901	-1009.542	1	4074.935	-14.34407	6.279369E-008	0.0006095	7
	24	34	3984.375	4038.933	-1135.234	1	4195.442	-15.69923	-1.614831E-008	0.0007986	7
	25	35	3170.956	4131.813	-1285.391	1	4327.136	-17.28071	3.572124E-008	0.000632	7
	26	36	2527.573	4224.176	-1470.033	1	4472.657	-19.18814	-2.820153E-008	0.0007544	7
	27	38	1976.103	4327.387	-1718.854	1	4656.258	-21.66316	1.001035E-007	0.0005917	7
	28	39	1577.524	4427.063	-2007.73	1	4861.056	-24.3949	5.250792E-008	0.0006551	7
	29	40	1265.625	4529.93	-2360.202	1	5107.917	-27.52059	-2.088334E-008	0.0007448	7
	30	42	998.264	4657.197	-2835.085	1	5452.265	-31.33111	7.093705E-010	0.0006999	7
	31	43	796.875	4800.751	-3399.073	1	5882.254	-35.29962	-3.294748E-008	0.0007791	7
	32	44	627.7902	4990.024	-4140.352	1	6484.046	-39.68337	3.074991E-008	0.0007118	7
	33	46	505.5147	5201.987	-4975.356	1	7198.252	-43.72434	-1.837067E-008	0.0007874	7
	34	47	397.9953	5510.714	-6082.761	1	8207.798	-47.8248	3.821548E-009	0.0007666	7
	35	48	315.5048	5897.38	-7405.722	1	9466.985	-51.46872	3.89562E-009	0.0007664	7
	36	50	252.4038	6382.028	-8939.394	1	10983.76	-54.47613	8.378724E-010	0.000704	6
	37	51	198.6229	7056.866	-10923.36	1	13004.58	-57.13615	9.320669E-010	0.0007063	6
	38	52	158.3615	7891.721	-13171.28	1	15354.54	-59.07159	5.446162E-010	0.0007055	6
	39	54	125.558	9003.716	-15905.11	1	18276.75	-60.48626	1.015526E-009	0.0007048	6
	40	55	100.4464	10378.84	-18989.9	1	21641.09	-61.34138	1.237546E-009	0.0007019	6
	41	57	79.00281	12321.58	-22870.45	1	25978.43	-61.6862	2.522073E-010	0.0007037	6
	42	58	63.3446	14638.58	-26898.32	1	30623.65	-61.44413	1.779106E-010	0.000701	6
	43	59	49.86702	17605.46	-32040.69	1	36558.97	-61.21243	2.911309E-010	0.0007022	6
	44	61	39.72458	21194	-37300.81	1	42901.46	-60.39514	4.97796E-010	0.0007104	6
	45	62	31.6723	25432.31	-43179.62	1	50112.69	-59.50239	-6.395835E-012	0.0007021	6
	46	63	24.93351	30620.36	-49894.64	1	58541.28	-58.46255	3.3137E-010	0.0007071	6
	47	65	19.86229	36123.96	-56905.2	1	67402.84	-57.59224	1.667479E-009	0.0007115	6
	48	66	15.83615	42098.6	-64590.37	1	77098.69	-56.90457	6.032191E-010	0.0006997	6
	49	67	12.40079	48878.71	-74494.05	1	89098.22	-56.72942	-7.1097E-011	0.0007109	6
	50	69	9.93114	55444.85	-84804.92	1	101321.3	-56.82363	4.618642E-011	0.0007141	5
	51	70	7.944915	62344.18	-96982.4	1	115292.6	-57.26546	1.079546E-009	0.0007113	5
	52	72	6.317385	69830.71	-112307.5	1	132247.1	-58.12741	9.16986E-010	0.0007137	5
	53	74	5.008013	78308.41	-131619.7	1	153153.4	-59.24907	1.775416E-011	0.0007009	5
	54	76	3.945707	88084.52	-155685	1	178876.2	-60.49939	6.434881E-010	0.000713	5
	55	79	3.158693	98950.9	-183372.5	1	208366.9	-61.64796	6.81664E-011	0.0007026	5
	56	82	2.504006	112362.4	-218102.9	1	245345	-62.74334	5.350901E-010	0.0007079	5
	57	85	1.998082	128135.2	-258628.5	1	288630.1	-63.64429	1.766398E-010	0.000751	5
	58	88	1.584686	147101.3	-309057.2	1	342279.3	-64.54706	3.065266E-010	0.0007333	5
	59	92	1.266892	171093.5	-366495.3	1	404464.8	-64.9751	1.385477E-010	0.0007487	5
	60	96	0.999041	200647.6	-438963	1	482646.9	-65.43511	3.109455E-010	0.0006923	5
