EXPLAIN
TAG	EISPOT
TITLE	LABEL	Potentiostatic IDE	Test &Identifier
DATE	LABEL	9/14/2019	Date
TIME	LABEL	9:59:28	Time
NOTES	NOTES	1	&Notes...
	
PSTAT	PSTAT	REF600-11020	Potentiostat
VDC	POTEN	0.00000E+000	T	DC &Voltage (V)
FREQINIT	QUANT	1.00000E+006	Initial Fre&q. (Hz)
FREQFINAL	QUANT	1.00000E+000	Final Fre&q. (Hz)
PTSPERDEC	QUANT	1.00000E+001	Points/&decade
VAC	QUANT	2.50000E+001	AC &Voltage (mV rms)
AREA	QUANT	1.00000E-002	&Area (cm^2)
CONDIT	TWOPARAM	T	5.00000E+000	0.00000E+000	Conditionin&g	Time(s)	E(V)
DELAY	TWOPARAM	T	5.00000E+000	0.00000E+000	Init. De&lay	Time(s)	Stab.(mV/s)
SPEED	SELECTOR	1	&Optimize for:
ZGUESS	QUANT	1.00000E+007	E&stimated Z (ohms)
OCVCURVE	TABLE	19
	Pt	T	Vf	Vm	Ach	Over
	#	s	V vs. Ref.	V	V	bits
	0	0.258333	2.75637E-003	2.75637E-003	5.57366E-004	...........
	1	0.516667	2.75473E-003	2.67032E-003	5.55566E-004	...........
	2	0.775	2.74488E-003	2.60184E-003	5.52733E-004	...........
	3	1.03333	2.71794E-003	2.54019E-003	5.54133E-004	...........
	4	1.29167	2.67189E-003	2.49129E-003	5.57432E-004	...........
	5	1.55	2.61423E-003	2.44129E-003	5.55466E-004	...........
	6	1.80833	2.55473E-003	2.39804E-003	5.55433E-004	...........
	7	2.06667	2.49917E-003	2.35775E-003	5.59266E-004	...........
	8	2.325	2.44918E-003	2.32611E-003	5.57066E-004	...........
	9	2.58333	2.40469E-003	2.29426E-003	5.61399E-004	...........
	10	2.84167	2.36515E-003	2.26073E-003	5.63699E-004	...........
	11	3.1	2.32948E-003	2.23160E-003	5.60766E-004	...........
	12	3.35833	2.29624E-003	2.19783E-003	5.60532E-004	...........
	13	3.61667	2.26424E-003	2.16953E-003	5.60166E-004	...........
	14	3.875	2.23291E-003	2.14079E-003	5.57933E-004	...........
	15	4.13333	2.20240E-003	2.12178E-003	5.54833E-004	...........
	16	4.39167	2.17342E-003	2.09098E-003	5.57132E-004	...........
	17	4.65	2.14629E-003	2.07134E-003	5.55033E-004	...........
	18	4.90833	2.12069E-003	2.04860E-003	5.60932E-004	...........
EOC	QUANT	0.0021207	Open Circuit (V)
PSTATMODEL	IQUANT	4	Pstat Model
PSTATSECTION	LABEL	REF600-11020	Pstat Section
PSTATSERIALNO	LABEL	11020	Pstat Serial Number
CTRLMODE	IQUANT	1	Control Mode
IESTAB	IQUANT	0	I/E Stability
CASPEED	IQUANT	1	Control Amp Speed
CONVENTION	IQUANT	1	Current Convention
ICHRANGE	IQUANT	2	Ich Range
ICHRANGEMODE	TOGGLE	F	Ich Auto Range
ICHOFFSETENABLE	TOGGLE	T	Ich Offset Enable
ICHOFFSET	QUANT	0	Ich Offset (V)
ICHFILTER	IQUANT	3	Ich Filter
VCHRANGE	IQUANT	2	Vch Range
VCHRANGEMODE	TOGGLE	F	Vch Auto Range
VCHOFFSETENABLE	TOGGLE	T	Vch Offset Enable
VCHOFFSET	QUANT	0	Vch Offset (V)
VCHFILTER	IQUANT	3	Vch Filter
ACHRANGE	IQUANT	2	Ach Range
ACHOFFSETENABLE	TOGGLE	F	Ach Offset Enable
ACHOFFSET	QUANT	0	Ach Offset (V)
ACHFILTER	IQUANT	3	Ach Filter
IERANGELOWERLIMIT	IQUANT	1	I/E Range Lower Limit
IERANGEMODE	TOGGLE	F	I/E AutoRange
IERANGE	IQUANT	2	I/E Range
POSFEEDENABLE	TOGGLE	F	Positive Feedback IR Comp
POSFEEDRESISTANCE	QUANT	0	Positive Feedback Resistance (ohm)
ACHSELECT	IQUANT	0	Ach Select
CABLEID	IQUANT	14	Cable ID
DCCALDATE	LABEL	8/19/2019	DC Calibration Date
ACCALDATE	LABEL	8/19/2019	AC Calibration Date
THERMOSELECT	IQUANT	1	Thermo Select
FRAMEWORKVERSION	QUANT	6.33	Framework Version
INSTRUMENTVERSION	LABEL	3.50	Instrument Version
ZCURVE	TABLE
	Pt	Time	Freq	Zreal	Zimag	Zsig	Zmod	Zphz	Idc	Vdc	IERange
	#	s	Hz	ohm	ohm	V	ohm	°	A	V	#
	0	2	1000078	1557.162	-2432.893	1	2888.55	-57.37891	6.858172E-006	0.0029425	8
	1	3	794390.6	1701.779	-2810.826	1	3285.848	-58.80773	-3.963024E-006	0.0045246	8
	2	5	630984.4	1868.048	-3277.064	1	3772.102	-60.31525	2.467347E-006	0.0035303	8
	3	6	501234.4	2088.987	-3875.984	1	4403.081	-61.67726	1.288318E-006	0.0032463	8
	4	8	398109.4	2319.438	-4598.561	1	5150.393	-63.23438	-3.59511E-006	0.0044137	8
	5	9	316265.6	2608.054	-5517.645	1	6102.979	-64.70106	3.079199E-007	0.0036516	8
	6	10	251203.1	2926.169	-6582.795	1	7203.864	-66.034	1.78018E-006	0.0031697	8
	7	12	199546.9	3244.387	-7948.411	1	8585.062	-67.79567	5.044306E-006	0.0027046	8
	8	14	158578.1	3758.47	-9577.36	1	10288.43	-68.57333	1.386653E-006	0.0033614	8
	9	15	125953.1	4527.806	-11601.58	1	12453.82	-68.68054	6.630667E-007	0.0023562	7
	10	17	100078.1	5347.947	-13955.55	1	14945.17	-69.03252	-4.995013E-008	0.0036408	7
	11	18	79453.13	6358.238	-16994.52	1	18145	-69.48744	8.182442E-008	0.0035626	7
	12	20	63140.62	7724.741	-20530.27	1	21935.45	-69.38064	-2.273428E-008	0.0036578	7
	13	21	50203.12	9593.81	-24807.87	1	26598.34	-68.85729	8.351655E-008	0.0035539	7
	14	23	39890.62	12456.04	-29872.97	1	32365.84	-67.36548	-1.082733E-009	0.003515	7
	15	25	31640.63	15683.98	-35657.87	1	38954.73	-66.2579	-4.343702E-008	0.0036309	7
	16	26	25171.88	20177.77	-42317.05	1	46881.5	-64.5071	1.052893E-008	0.0036894	7
	17	28	20015.62	26487.23	-49274.66	1	55942.52	-61.74007	-4.113154E-008	0.0036071	7
	18	29	15890.62	33119.56	-58198.7	1	66962.63	-60.35677	4.439808E-008	0.0035341	7
	19	31	12609.37	45307.26	-63995.26	1	78410.09	-54.70234	-4.86643E-009	0.0035539	6
	20	33	10078.13	57142.77	-70138.95	1	90469.7	-50.83002	-1.015603E-008	0.0036321	6
	21	34	8015.625	70722.38	-75265.57	1	103279	-46.78249	7.757064E-009	0.0033223	6
	22	36	6328.125	85722.04	-78265.54	1	116076.5	-42.39656	-5.840211E-009	0.0036255	6
	23	37	5015.625	100935.3	-79276.43	1	128346	-38.14673	6.439993E-009	0.0035393	6
	24	39	3984.375	115174.6	-78332.32	1	139288	-34.22032	1.811754E-008	0.0032064	6
	25	40	3170.956	128588.1	-75676.34	1	149203.9	-30.47756	-3.878054E-009	0.0034286	6
	26	42	2527.573	140604	-73144.49	1	158491.7	-27.48418	1.674723E-008	0.0033117	6
	27	44	1976.103	152032.1	-69606.92	1	167209.1	-24.60037	4.254708E-009	0.0035514	6
	28	45	1577.524	161523.5	-66239.55	1	174578.1	-22.29816	-5.478695E-009	0.0035442	6
	29	47	1265.625	171155.6	-61373.76	1	181826.8	-19.72705	3.975929E-010	0.0036237	5
	30	48	998.264	179360.5	-59925.98	1	189106.6	-18.47494	2.293415E-009	0.0032873	5
	31	49	796.875	186953.9	-59104.98	1	196074.4	-17.54421	8.331092E-010	0.0034581	5
	32	51	627.7902	194330.2	-58550.39	1	202959	-16.76721	-7.19909E-010	0.0036312	5
	33	52	505.5147	200669.5	-58913.48	1	209138.9	-16.36143	1.150074E-009	0.0034552	5
	34	53	397.9953	208103.1	-59421.02	1	216420.3	-15.93598	8.897827E-011	0.0035382	5
	35	55	315.5048	215957.7	-61084.23	1	224430.4	-15.7937	-3.950036E-011	0.0035372	5
	36	56	252.4038	222482.3	-62788.94	1	231172.7	-15.76013	-6.282882E-010	0.0035344	5
	37	57	198.6229	230114.7	-66153.77	1	239434.9	-16.03898	-1.081518E-010	0.0035338	5
	38	59	158.3615	236725.4	-69330.91	1	246669.2	-16.32398	3.336786E-010	0.003531	5
	39	60	125.558	245012.6	-75251.67	1	256308.4	-17.0735	3.102537E-010	0.0035335	5
	40	62	100.4464	252654.2	-81046.05	1	265334.9	-17.78512	1.324204E-010	0.0035326	5
	41	63	79.00281	263022.1	-90514.13	1	278160.8	-18.98994	4.681516E-011	0.0035323	5
	42	65	63.3446	278288.1	-84742.95	1	290904.8	-16.93629	1.94118E-010	0.003532	5
	43	66	49.86702	278422.8	-109695	1	299252.8	-21.5038	2.124796E-011	0.0035288	5
	44	68	39.72458	290551.3	-127814.9	1	317422	-23.74493	-1.558679E-010	0.0035392	5
	45	69	31.6723	302581.8	-145312.7	1	335665.8	-25.6523	2.241991E-010	0.0035302	5
	46	71	24.93351	316450.4	-170518.2	1	359468.1	-28.31785	-5.576649E-011	0.0035273	5
	47	72	19.86229	333694.2	-198312.1	1	388174.6	-30.72272	-2.119042E-010	0.0035264	5
	48	74	15.83615	355424.7	-232434	1	424679.1	-33.18313	3.234669E-010	0.0035288	5
	49	75	12.40079	391335.8	-270689.6	1	475832.5	-34.67187	2.194789E-010	0.0035335	5
	50	77	9.93114	422927.6	-298473.7	1	517643	-35.21185	1.891136E-010	0.003527	5
	51	78	7.944915	469487.5	-336821.8	1	577812.7	-35.65658	1.63857E-010	0.0035286	5
	52	80	6.317385	510484.7	-379975.9	1	636377.5	-36.66191	1.255305E-010	0.0035233	5
	53	82	5.008013	563642.7	-423826.8	1	705210.8	-36.94106	6.308918E-010	0.0035344	6
	54	85	3.945707	622900.7	-466219.3	1	778052.5	-36.81356	5.062544E-010	0.0035349	6
	55	88	3.158693	684438.6	-511338.3	1	854355.4	-36.7631	4.818824E-010	0.0035161	6
	56	91	2.504006	749143.7	-562085.2	1	936566.1	-36.88103	3.583496E-010	0.0035358	5
	57	94	1.998082	818923.3	-614323.3	1	1023733	-36.87576	3.125294E-010	0.0035685	4
	58	97	1.584686	888173	-678575.9	1	1117728	-37.38031	2.34851E-010	0.0034993	4
	59	101	1.266892	962535	-753538.9	1	1222414	-38.05629	2.800414E-010	0.003552	4
	60	105	0.999041	1048778	-841152.8	1	1344423	-38.73071	-4.357321E-011	0.0034857	4
