EXPLAIN
TAG	EISPOT
TITLE	LABEL	Potentiostatic EIS	Test &Identifier
DATE	LABEL	10/4/2019	Date
TIME	LABEL	9:04:30	Time
NOTES	NOTES	2	&Notes...
	
	
PSTAT	PSTAT	REF600-11020	Potentiostat
VDC	POTEN	0.00000E+000	T	DC &Voltage (V)
FREQINIT	QUANT	1.00000E+006	Initial Fre&q. (Hz)
FREQFINAL	QUANT	1.00000E+000	Final Fre&q. (Hz)
PTSPERDEC	QUANT	1.00000E+001	Points/&decade
VAC	QUANT	2.50000E+001	AC &Voltage (mV rms)
AREA	QUANT	1.00000E-002	&Area (cm^2)
CONDIT	TWOPARAM	T	5.00000E+000	0.00000E+000	Conditionin&g	Time(s)	E(V)
DELAY	TWOPARAM	T	5.00000E+000	0.00000E+000	Init. De&lay	Time(s)	Stab.(mV/s)
SPEED	SELECTOR	1	&Optimize for:
ZGUESS	QUANT	1.00000E+004	E&stimated Z (ohms)
OCVCURVE	TABLE	19
	Pt	T	Vf	Vm	Ach	Over
	#	s	V vs. Ref.	V	V	bits
	0	0.258333	6.03565E-003	6.03565E-003	5.58199E-004	...........
	1	0.516667	6.03359E-003	5.92760E-003	5.54533E-004	...........
	2	0.775	6.02123E-003	5.84192E-003	5.53799E-004	...........
	3	1.03333	5.98736E-003	5.76042E-003	5.51899E-004	...........
	4	1.29167	5.92797E-003	5.63533E-003	5.52599E-004	...........
	5	1.55	5.84251E-003	5.26238E-003	5.51333E-004	...........
	6	1.80833	5.73394E-003	5.83716E-003	5.51133E-004	...........
	7	2.06667	5.70664E-003	9.29424E-003	5.51699E-004	...........
	8	2.325	6.03823E-003	9.70593E-003	5.55933E-004	...........
	9	2.58333	6.89687E-003	9.61108E-003	5.46999E-004	...........
	10	2.84167	8.00596E-003	9.04635E-003	5.48999E-004	...........
	11	3.1	8.86136E-003	8.57975E-003	5.50733E-004	...........
	12	3.35833	9.18669E-003	7.78777E-003	5.51999E-004	...........
	13	3.61667	9.02344E-003	7.20765E-003	5.48433E-004	...........
	14	3.875	8.55133E-003	6.65322E-003	5.49233E-004	...........
	15	4.13333	7.95258E-003	6.49649E-003	5.59566E-004	...........
	16	4.39167	7.38237E-003	6.83194E-003	5.52366E-004	...........
	17	4.65	6.96316E-003	6.59262E-003	5.53133E-004	...........
	18	4.90833	6.76023E-003	7.77335E-003	5.56766E-004	...........
EOC	QUANT	0.0067602	Open Circuit (V)
PSTATMODEL	IQUANT	4	Pstat Model
PSTATSECTION	LABEL	REF600-11020	Pstat Section
PSTATSERIALNO	LABEL	11020	Pstat Serial Number
CTRLMODE	IQUANT	1	Control Mode
IESTAB	IQUANT	0	I/E Stability
CASPEED	IQUANT	1	Control Amp Speed
CONVENTION	IQUANT	1	Current Convention
ICHRANGE	IQUANT	2	Ich Range
ICHRANGEMODE	TOGGLE	F	Ich Auto Range
ICHOFFSETENABLE	TOGGLE	T	Ich Offset Enable
ICHOFFSET	QUANT	0	Ich Offset (V)
ICHFILTER	IQUANT	3	Ich Filter
VCHRANGE	IQUANT	2	Vch Range
VCHRANGEMODE	TOGGLE	F	Vch Auto Range
VCHOFFSETENABLE	TOGGLE	T	Vch Offset Enable
VCHOFFSET	QUANT	0	Vch Offset (V)
VCHFILTER	IQUANT	3	Vch Filter
ACHRANGE	IQUANT	2	Ach Range
ACHOFFSETENABLE	TOGGLE	F	Ach Offset Enable
ACHOFFSET	QUANT	0	Ach Offset (V)
ACHFILTER	IQUANT	3	Ach Filter
IERANGELOWERLIMIT	IQUANT	1	I/E Range Lower Limit
IERANGEMODE	TOGGLE	F	I/E AutoRange
IERANGE	IQUANT	6	I/E Range
POSFEEDENABLE	TOGGLE	F	Positive Feedback IR Comp
POSFEEDRESISTANCE	QUANT	0	Positive Feedback Resistance (ohm)
ACHSELECT	IQUANT	0	Ach Select
CABLEID	IQUANT	14	Cable ID
DCCALDATE	LABEL	8/19/2019	DC Calibration Date
ACCALDATE	LABEL	8/19/2019	AC Calibration Date
THERMOSELECT	IQUANT	1	Thermo Select
FRAMEWORKVERSION	QUANT	6.33	Framework Version
INSTRUMENTVERSION	LABEL	3.50	Instrument Version
ZCURVE	TABLE
	Pt	Time	Freq	Zreal	Zimag	Zsig	Zmod	Zphz	Idc	Vdc	IERange
	#	s	Hz	ohm	ohm	V	ohm	°	A	V	#
	0	1	1000078	2395.445	-1468.167	1	2809.568	-31.50411	-5.867062E-006	0.0100044	8
	1	3	794390.6	2684.266	-1371.126	1	3014.178	-27.05799	1.617915E-006	0.0087429	8
	2	4	630984.4	2925.451	-1226.188	1	3172.034	-22.74075	-1.845999E-008	0.0085546	8
	3	5	501234.4	3113.398	-1080.42	1	3295.536	-19.13793	3.825645E-006	0.0075868	8
	4	7	398109.4	3255.774	-934.8042	1	3387.318	-16.01994	-7.04265E-007	0.0084378	8
	5	8	316265.6	3361.242	-809.2507	1	3457.287	-13.53687	-2.97909E-006	0.0089875	8
	6	9	251203.1	3449.828	-690.1998	1	3518.194	-11.31367	3.84045E-006	0.0076713	8
	7	11	199546.9	3509.015	-587.4528	1	3557.848	-9.50389	4.083219E-007	0.0083151	8
	8	12	158578.1	3547.485	-518.4406	1	3585.168	-8.314526	1.661308E-006	0.0079443	8
	9	13	125953.1	3614.111	-412.8741	1	3637.618	-6.517187	9.42554E-008	0.0083056	7
	10	15	100078.1	3635.227	-367.4871	1	3653.755	-5.77245	-7.051509E-008	0.0084089	7
	11	16	79453.13	3661.177	-343.926	1	3677.296	-5.366539	4.386456E-008	0.00826	7
	12	17	63140.62	3687.651	-330.2728	1	3702.411	-5.117861	-5.99371E-008	0.0084084	7
	13	19	50203.12	3714.182	-325.2995	1	3728.4	-5.005369	8.175878E-008	0.0081328	7
	14	20	39890.62	3741.265	-328.1923	1	3755.632	-5.013284	-6.964934E-008	0.0083894	7
	15	21	31640.63	3769.113	-339.2477	1	3784.349	-5.14318	-5.250482E-008	0.0083594	7
	16	23	25171.88	3798.7	-359.1798	1	3815.643	-5.401449	1.190936E-007	0.0081195	7
	17	24	20015.62	3831.282	-385.8944	1	3850.667	-5.751549	-5.850721E-008	0.0084087	7
	18	25	15890.62	3864.963	-423.4888	1	3888.095	-6.253025	1.045534E-008	0.0082216	7
	19	27	12609.37	3901.906	-470.7619	1	3930.202	-6.87944	-1.632178E-008	0.0082751	7
	20	28	10078.13	3939.312	-527.7656	1	3974.508	-7.630711	5.591779E-008	0.0082097	7
	21	29	8015.625	3981.451	-599.4268	1	4026.321	-8.561855	-4.232531E-008	0.008311	7
	22	31	6328.125	4026.146	-690.0923	1	4084.86	-9.72614	9.665769E-008	0.008212	7
	23	32	5015.625	4074.656	-800.7374	1	4152.589	-11.1179	-5.813684E-008	0.008397	7
	24	34	3984.375	4124.885	-935.5589	1	4229.651	-12.77897	5.741328E-008	0.008204	7
	25	35	3170.956	4176.741	-1102.389	1	4319.772	-14.7852	-1.804386E-008	0.0082626	7
	26	36	2527.573	4233.787	-1307.255	1	4431.012	-17.15898	-4.254253E-008	0.0083094	7
	27	38	1976.103	4300.916	-1583.572	1	4583.184	-20.21341	-5.285955E-008	0.008361	7
	28	39	1577.524	4369.587	-1899.702	1	4764.678	-23.49725	4.384112E-008	0.0081636	7
	29	40	1265.625	4445.867	-2281.639	1	4997.16	-27.1671	-3.628075E-008	0.0083044	7
	30	42	998.264	4541.583	-2791.047	1	5330.659	-31.57296	-3.558203E-008	0.0083067	7
	31	43	796.875	4649.685	-3391.637	1	5755.238	-36.10828	1.443151E-009	0.008256	7
	32	44	627.7902	4789.461	-4181.601	1	6358.043	-41.12368	-4.039172E-008	0.0083094	7
	33	46	505.5147	4940.862	-5066.298	1	7076.687	-45.71814	-5.89029E-008	0.0084014	7
	34	47	397.9953	5153.47	-6260.565	1	8108.818	-50.54003	4.152501E-009	0.0083238	7
	35	48	315.5048	5414.356	-7703.924	1	9416.247	-54.90026	4.489611E-009	0.0083214	7
	36	50	252.4038	5735.277	-9405.138	1	11015.9	-58.62505	1.133614E-009	0.0082593	6
	37	51	198.6229	6171.843	-11652.35	1	13185.94	-62.0914	8.416219E-010	0.008261	6
	38	52	158.3615	6709.32	-14264.01	1	15763.15	-64.80925	3.878935E-010	0.0082665	6
	39	54	125.558	7419.337	-17538.97	1	19043.68	-67.07066	9.057861E-010	0.0082623	6
	40	55	100.4464	8297.446	-21351.51	1	22907.09	-68.7633	1.003803E-009	0.0082587	6
	41	56	79.00281	9553.02	-26421.32	1	28095.31	-70.12178	1.349905E-010	0.0082544	6
	42	58	63.3446	11223.45	-31957.03	1	33870.6	-70.6485	4.473239E-010	0.0082514	6
	43	59	49.86702	13093.76	-39484.86	1	41599.29	-71.65372	7.704015E-011	0.0082449	6
	44	61	39.72458	15734.83	-47715.88	1	50243.3	-71.74947	8.648374E-010	0.0082536	6
	45	62	31.6723	19058.12	-57734.04	1	60798.28	-71.73184	9.383682E-010	0.0082528	6
	46	63	24.93351	23675.75	-70448.64	1	74320.6	-71.424	4.826819E-010	0.0082534	6
	47	65	19.86229	29248.59	-84801.38	1	89703.7	-70.97033	7.345649E-010	0.0082634	6
	48	66	15.83615	36721.55	-102042.8	1	108449.1	-70.20801	1.781299E-009	0.0082577	5
	49	67	12.40079	46444.28	-123166.8	1	131632.6	-69.33932	-2.780383E-010	0.0082589	5
	50	69	9.93114	57481.53	-145481.6	1	156425.8	-68.44044	-8.523383E-011	0.0082628	5
	51	70	7.944915	71785.98	-171210.2	1	185650.7	-67.2524	4.962851E-010	0.0082596	5
	52	72	6.317385	89230.35	-201718.4	1	220572.8	-66.13775	7.14351E-010	0.0082579	5
	53	74	5.008013	111205.9	-237414.9	1	262168.9	-64.90147	3.664275E-010	0.0082686	5
	54	77	3.945707	138625.7	-278406.5	1	311010.1	-63.53011	-1.13286E-010	0.0082544	5
	55	79	3.158693	170166.1	-321563.8	1	363812.8	-62.11296	3.136767E-010	0.0082622	5
	56	83	2.504006	206586.3	-371215.3	1	424827.8	-60.90348	2.134629E-010	0.0082733	5
	57	85	1.998082	247712.7	-424560.7	1	491541.8	-59.7383	3.072462E-010	0.0082358	5
	58	88	1.584686	297372.1	-487597	1	571122.6	-58.62212	-6.049667E-011	0.0082185	5
	59	92	1.266892	348879.2	-552503.8	1	653434.8	-57.72959	2.539146E-010	0.0082419	5
	60	96	0.999041	410895	-633903.6	1	755426.1	-57.04878	-1.727537E-010	0.0082594	5
