EXPLAIN
TAG	EISPOT
TITLE	LABEL	Potentiostatic IDE	Test &Identifier
DATE	LABEL	9/16/2019	Date
TIME	LABEL	8:44:02	Time
NOTES	NOTES	1	&Notes...
	
PSTAT	PSTAT	REF600-11020	Potentiostat
VDC	POTEN	0.00000E+000	T	DC &Voltage (V)
FREQINIT	QUANT	1.00000E+006	Initial Fre&q. (Hz)
FREQFINAL	QUANT	1.00000E+000	Final Fre&q. (Hz)
PTSPERDEC	QUANT	1.00000E+001	Points/&decade
VAC	QUANT	2.50000E+001	AC &Voltage (mV rms)
AREA	QUANT	1.00000E-002	&Area (cm^2)
CONDIT	TWOPARAM	T	5.00000E+000	0.00000E+000	Conditionin&g	Time(s)	E(V)
DELAY	TWOPARAM	T	5.00000E+000	0.00000E+000	Init. De&lay	Time(s)	Stab.(mV/s)
SPEED	SELECTOR	1	&Optimize for:
ZGUESS	QUANT	1.00000E+007	E&stimated Z (ohms)
OCVCURVE	TABLE	19
	Pt	T	Vf	Vm	Ach	Over
	#	s	V vs. Ref.	V	V	bits
	0	0.258333	4.57443E-002	4.57443E-002	5.64866E-004	...........
	1	0.516667	4.58175E-002	4.95753E-002	5.60766E-004	...........
	2	0.775	4.62496E-002	5.22996E-002	5.57999E-004	...........
	3	1.03333	4.74152E-002	5.49632E-002	5.63299E-004	...........
	4	1.29167	4.93933E-002	5.75176E-002	5.64699E-004	...........
	5	1.55	5.18834E-002	5.94108E-002	5.60766E-004	...........
	6	1.80833	5.44763E-002	6.07617E-002	5.65166E-004	...........
	7	2.06667	5.68447E-002	6.13968E-002	5.65332E-004	...........
	8	2.325	5.88186E-002	6.39682E-002	5.63132E-004	...........
	9	2.58333	6.04566E-002	6.49144E-002	5.64699E-004	...........
	10	2.84167	6.18756E-002	6.23631E-002	5.65232E-004	...........
	11	3.1	6.28902E-002	6.09455E-002	5.65399E-004	...........
	12	3.35833	6.31832E-002	6.31830E-002	5.70066E-004	...........
	13	3.61667	6.29901E-002	6.70216E-002	5.63966E-004	...........
	14	3.875	6.32074E-002	7.21323E-002	5.64366E-004	...........
	15	4.13333	6.46229E-002	7.34920E-002	5.63599E-004	...........
	16	4.39167	6.71384E-002	7.26815E-002	5.66299E-004	...........
	17	4.65	6.98222E-002	7.31289E-002	5.59232E-004	...........
	18	4.90833	7.17726E-002	7.33865E-002	5.60866E-004	...........
EOC	QUANT	0.0717726	Open Circuit (V)
PSTATMODEL	IQUANT	4	Pstat Model
PSTATSECTION	LABEL	REF600-11020	Pstat Section
PSTATSERIALNO	LABEL	11020	Pstat Serial Number
CTRLMODE	IQUANT	1	Control Mode
IESTAB	IQUANT	0	I/E Stability
CASPEED	IQUANT	1	Control Amp Speed
CONVENTION	IQUANT	1	Current Convention
ICHRANGE	IQUANT	2	Ich Range
ICHRANGEMODE	TOGGLE	F	Ich Auto Range
ICHOFFSETENABLE	TOGGLE	T	Ich Offset Enable
ICHOFFSET	QUANT	0	Ich Offset (V)
ICHFILTER	IQUANT	3	Ich Filter
VCHRANGE	IQUANT	2	Vch Range
VCHRANGEMODE	TOGGLE	F	Vch Auto Range
VCHOFFSETENABLE	TOGGLE	T	Vch Offset Enable
VCHOFFSET	QUANT	0	Vch Offset (V)
VCHFILTER	IQUANT	3	Vch Filter
ACHRANGE	IQUANT	2	Ach Range
ACHOFFSETENABLE	TOGGLE	F	Ach Offset Enable
ACHOFFSET	QUANT	0	Ach Offset (V)
ACHFILTER	IQUANT	3	Ach Filter
IERANGELOWERLIMIT	IQUANT	1	I/E Range Lower Limit
IERANGEMODE	TOGGLE	F	I/E AutoRange
IERANGE	IQUANT	4	I/E Range
POSFEEDENABLE	TOGGLE	F	Positive Feedback IR Comp
POSFEEDRESISTANCE	QUANT	0	Positive Feedback Resistance (ohm)
ACHSELECT	IQUANT	0	Ach Select
CABLEID	IQUANT	14	Cable ID
DCCALDATE	LABEL	8/19/2019	DC Calibration Date
ACCALDATE	LABEL	8/19/2019	AC Calibration Date
THERMOSELECT	IQUANT	1	Thermo Select
FRAMEWORKVERSION	QUANT	6.33	Framework Version
INSTRUMENTVERSION	LABEL	3.50	Instrument Version
ZCURVE	TABLE
	Pt	Time	Freq	Zreal	Zimag	Zsig	Zmod	Zphz	Idc	Vdc	IERange
	#	s	Hz	ohm	ohm	V	ohm	°	A	V	#
	0	2	1000078	2326.471	-1587.741	1	2816.627	-34.31227	-3.62499E-006	0.0745697	8
	1	4	794390.6	2625.049	-1505.389	1	3026.066	-29.833	3.156186E-006	0.0732649	8
	2	5	630984.4	2906.529	-1381.594	1	3218.184	-25.42368	-6.106129E-006	0.0748105	8
	3	7	501234.4	3137.315	-1241.715	1	3374.107	-21.59311	3.001053E-006	0.0730451	8
	4	8	398109.4	3302.083	-1101.168	1	3480.851	-18.44234	1.244287E-006	0.073015	8
	5	10	316265.6	3431.925	-989.969	1	3571.855	-16.09068	-1.153679E-006	0.0736945	8
	6	11	251203.1	3561.113	-861.7599	1	3663.899	-13.60359	2.284606E-007	0.07321	8
	7	12	199546.9	3626.684	-755.8884	1	3704.62	-11.77327	2.636367E-006	0.0728398	8
	8	14	158578.1	3695.141	-699.8132	1	3760.825	-10.72409	-3.314155E-006	0.0740487	8
	9	15	125953.1	3782.259	-590.1683	1	3828.025	-8.868687	2.834921E-007	0.0727974	7
	10	16	100078.1	3815.584	-553.1343	1	3855.469	-8.248544	-9.936535E-009	0.0733538	7
	11	18	79453.13	3862.708	-544.1664	1	3900.85	-8.018881	3.128005E-008	0.0732894	7
	12	19	63140.62	3910.904	-546.0035	1	3948.834	-7.947725	-4.345046E-008	0.0733452	7
	13	20	50203.12	3960.153	-561.2258	1	3999.723	-8.066142	-1.952846E-008	0.0732953	7
	14	22	39890.62	4012.241	-588.8887	1	4055.228	-8.349855	-1.952847E-008	0.0732984	7
	15	23	31640.63	4073.869	-630.1192	1	4122.313	-8.792459	-9.012948E-009	0.0733401	7
	16	24	25171.88	4136.061	-681.1805	1	4191.779	-9.352263	-1.940813E-008	0.0732942	7
	17	26	20015.62	4207.53	-748.6479	1	4273.614	-10.08908	-2.257105E-008	0.0734542	7
	18	27	15890.62	4287.154	-825.0402	1	4365.82	-10.8931	-2.142715E-008	0.0734559	7
	19	28	12609.37	4377.16	-925.429	1	4473.919	-11.9378	-1.747868E-009	0.0732556	7
	20	30	10078.13	4474.258	-1037.212	1	4592.907	-13.05163	-1.924404E-008	0.0734535	7
	21	31	8015.625	4586.768	-1166.629	1	4732.807	-14.2704	-4.220029E-008	0.0734468	7
	22	32	6328.125	4718.09	-1324.133	1	4900.378	-15.67679	-4.282538E-008	0.0734452	7
	23	34	5015.625	4862.319	-1499.312	1	5088.23	-17.13731	-4.259564E-008	0.0733295	7
	24	35	3984.375	5024.538	-1704.483	1	5305.774	-18.73857	-1.233529E-008	0.0733564	7
	25	36	3170.956	5206.332	-1937.479	1	5555.152	-20.41219	-4.710789E-009	0.0733368	7
	26	38	2527.573	5407.286	-2204.007	1	5839.211	-22.17579	-2.969704E-008	0.0733122	7
	27	39	1976.103	5652.684	-2538.423	1	6196.485	-24.18319	-3.192076E-008	0.0733069	7
	28	40	1577.524	5904.015	-2889.052	1	6572.976	-26.07421	1.345272E-007	0.0731123	7
	29	42	1265.625	6179.312	-3269.761	1	6991.083	-27.8854	7.615784E-008	0.0731655	7
	30	43	998.264	6507.892	-3778.428	1	7525.236	-30.1391	7.56774E-008	0.0731689	7
	31	44	796.875	6846.013	-4311.084	1	8090.324	-32.19952	4.613408E-008	0.0731654	7
	32	46	627.7902	7225.121	-4990.664	1	8781.179	-34.6343	-3.822824E-008	0.0733291	7
	33	47	505.5147	7577.845	-5711.331	1	9489.102	-37.00489	-4.035788E-008	0.073353	7
	34	48	397.9953	7991.485	-6680.821	1	10416.2	-39.89537	8.289892E-010	0.073263	6
	35	50	315.5048	8386.259	-7842.566	1	11481.95	-43.08121	9.258183E-011	0.073262	6
	36	51	252.4038	8777.512	-9229.895	1	12737.18	-46.43908	8.349689E-010	0.0732682	6
	37	52	198.6229	9218.974	-11095.09	1	14425.34	-50.27662	5.251871E-010	0.0732626	6
	38	54	158.3615	9676.71	-13316.61	1	16461.19	-53.99541	4.207177E-010	0.0732634	6
	39	55	125.558	10202.91	-16159.33	1	19110.82	-57.7319	2.383397E-010	0.0732677	6
	40	56	100.4464	10790.71	-19546.02	1	22326.81	-61.09838	6.760902E-010	0.0732629	6
	41	58	79.00281	11653.93	-24116.45	1	26784.64	-64.20851	5.386914E-010	0.0732649	6
	42	59	63.3446	12296.58	-29346.3	1	31818.42	-67.26552	7.570498E-010	0.0732624	6
	43	60	49.86702	13930.94	-36160.67	1	38751.32	-68.93076	5.94579E-011	0.0732562	6
	44	62	39.72458	15471.17	-44497.49	1	47110.34	-70.82814	3.479741E-010	0.0732636	6
	45	63	31.6723	17517.58	-54570.73	1	57313.44	-72.20301	-2.376761E-010	0.0732576	6
	46	65	24.93351	20395.85	-67342.8	1	70363.66	-73.15022	1.575983E-010	0.0732565	6
	47	66	19.86229	24062.63	-82290.89	1	85736.81	-73.70058	5.415715E-010	0.0732583	6
	48	67	15.83615	28567.87	-100901.2	1	104867.5	-74.19175	-7.306634E-010	0.0732581	6
	49	69	12.40079	36287.86	-124291.3	1	129480.2	-73.7244	9.185934E-010	0.0732609	5
	50	70	9.93114	43744.08	-149929	1	156180.2	-73.73459	1.94399E-010	0.0732551	5
	51	72	7.944915	53554.16	-181083.4	1	188836.6	-73.52479	-5.314099E-010	0.0732693	5
	52	73	6.317385	68220.27	-218079.8	1	228501.2	-72.62914	-1.547383E-010	0.073258	5
	53	75	5.008013	86165.5	-263451.4	1	277184.3	-71.88894	-3.010137E-010	0.0732583	5
	54	78	3.945707	109830.9	-317545	1	336002.4	-70.92077	-2.918605E-011	0.0732625	5
	55	80	3.158693	137330.4	-376382.1	1	400653.4	-69.95451	-6.335383E-011	0.0732769	5
	56	84	2.504006	172667.8	-448511.2	1	480600.2	-68.94429	-2.933583E-010	0.0732575	5
	57	86	1.998082	213223.5	-527127.1	1	568618.8	-67.97661	1.328204E-010	0.0732156	5
	58	89	1.584686	265072	-622465.4	1	676554.8	-66.93365	-2.110948E-010	0.0732433	5
	59	93	1.266892	325285.2	-727118.5	1	796562.5	-65.89807	-8.939541E-011	0.0732216	5
	60	97	0.999041	402671.8	-853984.4	1	944157.8	-64.75512	-6.09885E-010	0.0732819	5
