EXPLAIN
TAG	EISPOT
TITLE	LABEL	Potentiostatic IDE	Test &Identifier
DATE	LABEL	9/18/2019	Date
TIME	LABEL	8:27:02	Time
NOTES	NOTES	1	&Notes...
	
PSTAT	PSTAT	REF600-11020	Potentiostat
VDC	POTEN	0.00000E+000	T	DC &Voltage (V)
FREQINIT	QUANT	1.00000E+006	Initial Fre&q. (Hz)
FREQFINAL	QUANT	1.00000E+000	Final Fre&q. (Hz)
PTSPERDEC	QUANT	1.00000E+001	Points/&decade
VAC	QUANT	2.50000E+001	AC &Voltage (mV rms)
AREA	QUANT	1.00000E-002	&Area (cm^2)
CONDIT	TWOPARAM	T	5.00000E+000	0.00000E+000	Conditionin&g	Time(s)	E(V)
DELAY	TWOPARAM	T	5.00000E+000	0.00000E+000	Init. De&lay	Time(s)	Stab.(mV/s)
SPEED	SELECTOR	1	&Optimize for:
ZGUESS	QUANT	1.00000E+007	E&stimated Z (ohms)
OCVCURVE	TABLE	19
	Pt	T	Vf	Vm	Ach	Over
	#	s	V vs. Ref.	V	V	bits
	0	0.258333	1.80111E-003	1.80111E-003	5.58432E-004	...........
	1	0.516667	1.79823E-003	1.65051E-003	5.50333E-004	...........
	2	0.775	1.78077E-003	1.51854E-003	5.49499E-004	...........
	3	1.03333	1.73223E-003	1.40054E-003	5.55933E-004	...........
	4	1.29167	1.64741E-003	1.28684E-003	5.58632E-004	...........
	5	1.55	1.53789E-003	1.18775E-003	5.55566E-004	...........
	6	1.80833	1.42043E-003	1.08725E-003	5.52832E-004	...........
	7	2.06667	1.30625E-003	9.97388E-004	5.58832E-004	...........
	8	2.325	1.19958E-003	9.14040E-004	5.55533E-004	...........
	9	2.58333	1.10074E-003	8.31794E-004	5.44399E-004	...........
	10	2.84167	1.00896E-003	7.61174E-004	5.52832E-004	...........
	11	3.1	9.23421E-004	6.89881E-004	5.49466E-004	...........
	12	3.35833	8.43569E-004	6.25724E-004	5.50366E-004	...........
	13	3.61667	7.68751E-004	5.54973E-004	5.50999E-004	...........
	14	3.875	6.97530E-004	4.77647E-004	5.55299E-004	...........
	15	4.13333	6.28654E-004	4.63180E-004	5.53866E-004	...........
	16	4.39167	5.63422E-004	3.83170E-004	5.54333E-004	...........
	17	4.65	5.03304E-004	3.13921E-004	5.52932E-004	...........
	18	4.90833	4.45548E-004	2.61442E-004	5.48899E-004	...........
EOC	QUANT	0.0004455	Open Circuit (V)
PSTATMODEL	IQUANT	4	Pstat Model
PSTATSECTION	LABEL	REF600-11020	Pstat Section
PSTATSERIALNO	LABEL	11020	Pstat Serial Number
CTRLMODE	IQUANT	1	Control Mode
IESTAB	IQUANT	0	I/E Stability
CASPEED	IQUANT	1	Control Amp Speed
CONVENTION	IQUANT	1	Current Convention
ICHRANGE	IQUANT	2	Ich Range
ICHRANGEMODE	TOGGLE	F	Ich Auto Range
ICHOFFSETENABLE	TOGGLE	T	Ich Offset Enable
ICHOFFSET	QUANT	0	Ich Offset (V)
ICHFILTER	IQUANT	3	Ich Filter
VCHRANGE	IQUANT	2	Vch Range
VCHRANGEMODE	TOGGLE	F	Vch Auto Range
VCHOFFSETENABLE	TOGGLE	T	Vch Offset Enable
VCHOFFSET	QUANT	0	Vch Offset (V)
VCHFILTER	IQUANT	3	Vch Filter
ACHRANGE	IQUANT	2	Ach Range
ACHOFFSETENABLE	TOGGLE	F	Ach Offset Enable
ACHOFFSET	QUANT	0	Ach Offset (V)
ACHFILTER	IQUANT	3	Ach Filter
IERANGELOWERLIMIT	IQUANT	1	I/E Range Lower Limit
IERANGEMODE	TOGGLE	F	I/E AutoRange
IERANGE	IQUANT	1	I/E Range
POSFEEDENABLE	TOGGLE	F	Positive Feedback IR Comp
POSFEEDRESISTANCE	QUANT	0	Positive Feedback Resistance (ohm)
ACHSELECT	IQUANT	0	Ach Select
CABLEID	IQUANT	14	Cable ID
DCCALDATE	LABEL	8/19/2019	DC Calibration Date
ACCALDATE	LABEL	8/19/2019	AC Calibration Date
THERMOSELECT	IQUANT	1	Thermo Select
FRAMEWORKVERSION	QUANT	6.33	Framework Version
INSTRUMENTVERSION	LABEL	3.50	Instrument Version
ZCURVE	TABLE
	Pt	Time	Freq	Zreal	Zimag	Zsig	Zmod	Zphz	Idc	Vdc	IERange
	#	s	Hz	ohm	ohm	V	ohm	°	A	V	#
	0	2	1000078	2338.125	-1650.666	1	2862.084	-35.22128	-9.58185E-007	0.0032021	8
	1	4	794390.6	2671.24	-1554.686	1	3090.724	-30.19979	2.378537E-006	0.0020699	8
	2	5	630984.4	2960.079	-1425.375	1	3285.386	-25.71235	2.778276E-006	0.0017003	8
	3	6	501234.4	3184.635	-1270.043	1	3428.543	-21.74228	4.369498E-007	0.0023143	8
	4	8	398109.4	3371.376	-1114.656	1	3550.864	-18.2951	-6.824853E-007	0.002296	8
	5	9	316265.6	3506.712	-961.054	1	3636.022	-15.32623	7.068841E-007	0.0022362	8
	6	10	251203.1	3605.435	-823.1708	1	3698.211	-12.86098	-1.544894E-006	0.0024689	8
	7	12	199546.9	3695.678	-722.3099	1	3765.604	-11.05889	2.83631E-007	0.0020603	8
	8	13	158578.1	3751.327	-624.9958	1	3803.034	-9.458975	1.526808E-006	0.001793	8
	9	14	125953.1	3811.838	-523.1657	1	3847.572	-7.814885	2.644053E-007	0.0014759	7
	10	16	100078.1	3845.411	-471.3986	1	3874.197	-6.988867	9.608381E-011	0.0021423	7
	11	17	79453.13	3880.42	-439.5273	1	3905.233	-6.462234	7.743312E-010	0.0021405	7
	12	18	63140.62	3915.248	-420.8474	1	3937.802	-6.135128	1.660615E-008	0.002126	7
	13	20	50203.12	3949.137	-412.4689	1	3970.619	-5.962657	-2.63575E-008	0.0021323	7
	14	21	39890.62	3983.379	-415.1623	1	4004.956	-5.950092	4.948407E-008	0.0020566	7
	15	22	31640.63	4019.07	-429.1769	1	4041.92	-6.09524	5.021855E-008	0.0020526	7
	16	24	25171.88	4057.192	-451.6635	1	4082.256	-6.352249	9.642698E-009	0.002051	7
	17	25	20015.62	4096.596	-484.8188	1	4125.185	-6.749375	-1.317134E-008	0.0021102	7
	18	26	15890.62	4137.313	-528.9119	1	4170.983	-7.285147	5.185158E-008	0.0020524	7
	19	28	12609.37	4187.807	-589.2119	1	4229.054	-8.008774	-1.372766E-008	0.0021018	7
	20	29	10078.13	4236.495	-658.2338	1	4287.325	-8.831561	-2.434943E-008	0.0021242	7
	21	30	8015.625	4289.05	-746.518	1	4353.532	-9.87354	-2.626687E-008	0.0021718	7
	22	32	6328.125	4349.047	-856.1891	1	4432.524	-11.13729	-5.422848E-008	0.0021753	7
	23	33	5015.625	4412.269	-991.295	1	4522.254	-12.66226	6.39079E-008	0.0019353	7
	24	34	3984.375	4479.476	-1157.248	1	4626.546	-14.48534	-8.22692E-009	0.002118	7
	25	36	3170.956	4554.497	-1355.919	1	4752.047	-16.5788	9.165073E-008	0.001935	7
	26	37	2527.573	4638.174	-1600.177	1	4906.447	-19.03451	-4.263869E-009	0.0020482	7
	27	38	1976.103	4740.902	-1925.526	1	5117.011	-22.10461	8.845343E-008	0.0019265	7
	28	40	1577.524	4847.396	-2296.144	1	5363.724	-25.34626	-5.223916E-008	0.0021712	7
	29	42	1265.625	4969.801	-2731	1	5670.739	-28.78963	1.039435E-008	0.0021074	7
	30	43	998.264	5122.307	-3302.78	1	6094.783	-32.81326	-8.988133E-009	0.0020722	7
	31	44	796.875	5286.107	-3968.779	1	6610.153	-36.89901	8.949372E-008	0.0019207	7
	32	46	627.7902	5488.457	-4837.293	1	7315.912	-41.39158	-2.633253E-008	0.0021636	7
	33	47	505.5147	5704.858	-5794.811	1	8131.743	-45.44817	8.718046E-008	0.0019126	7
	34	48	397.9953	5985.247	-7097.217	1	9284.055	-49.85829	6.472081E-009	0.0020997	7
	35	50	315.5048	6312.83	-8664.847	1	10720.61	-53.92455	1.758103E-009	0.0020353	6
	36	51	252.4038	6693.096	-10520	1	12468.68	-57.53442	1.776699E-009	0.0020316	6
	37	52	198.6229	7199.856	-12983.43	1	14846.13	-60.9898	1.647212E-009	0.0020387	6
	38	54	158.3615	7806.367	-15873.21	1	17688.93	-63.81227	1.936523E-009	0.0020295	6
	39	55	125.558	8595.6	-19529.94	1	21337.83	-66.24454	1.557251E-009	0.0020332	6
	40	57	100.4464	9548.33	-23958.43	1	25791.03	-68.27086	1.294456E-009	0.0020354	6
	41	58	79.00281	10756.35	-29765.41	1	31649.31	-70.13162	1.086414E-009	0.0020314	6
	42	59	63.3446	12613.21	-36048.7	1	38191.64	-70.71539	2.488589E-010	0.0020324	6
	43	61	49.86702	14731.67	-44779.28	1	47140.28	-71.78962	1.179916E-009	0.0020346	6
	44	62	39.72458	17823.85	-54309.67	1	57159.69	-71.83072	1.19613E-009	0.0020337	6
	45	63	31.6723	21711.26	-65986.63	1	69466.63	-71.78749	1.506298E-009	0.0020293	6
	46	65	24.93351	27274.18	-80498.14	1	84993.13	-71.28272	7.329622E-010	0.0020325	6
	47	66	19.86229	34365.34	-96939.1	1	102850.2	-70.48035	8.729036E-010	0.0020379	6
	48	67	15.83615	42866.79	-116647.8	1	124275	-69.82218	1.472418E-009	0.0020404	5
	49	69	12.40079	57217.91	-140459.9	1	151666.9	-67.83592	1.624087E-009	0.0020448	5
	50	70	9.93114	71612.98	-165401.2	1	180238.7	-66.58907	5.693595E-010	0.0020444	5
	51	72	7.944915	90724.88	-192890.1	1	213160.9	-64.81029	1.469415E-009	0.0020364	5
	52	73	6.317385	115587.3	-224663.9	1	252654.5	-62.77465	1.011795E-009	0.0020286	5
	53	75	5.008013	146532.4	-259392.9	1	297920.1	-60.53767	2.974826E-010	0.002034	5
	54	78	3.945707	183830.5	-297064.5	1	349343.6	-58.24981	9.092271E-010	0.0020451	5
	55	81	3.158693	225163.4	-334209.1	1	402981.7	-56.03106	2.213654E-010	0.0020317	5
	56	84	2.504006	274451.6	-373008	1	463096.8	-53.65513	9.645532E-010	0.0020278	5
	57	87	1.998082	326472.7	-411626.2	1	525376.6	-51.58104	2.791906E-010	0.002071	5
	58	90	1.584686	385886	-452946.7	1	595036.8	-49.5708	6.46351E-010	0.0020893	5
	59	93	1.266892	445711.3	-494011.9	1	665361.8	-47.94234	2.181949E-010	0.0020718	5
	60	98	0.999041	512499	-539243.5	1	743934.7	-46.45665	8.545563E-010	0.0020418	5
