EXPLAIN
TAG	EISPOT
TITLE	LABEL	Potentiostatic EIS	Test &Identifier
DATE	LABEL	10/20/2019	Date
TIME	LABEL	8:59:02	Time
NOTES	NOTES	1	&Notes...
	
PSTAT	PSTAT	REF600-11020	Potentiostat
VDC	POTEN	0.00000E+000	T	DC &Voltage (V)
FREQINIT	QUANT	1.00000E+006	Initial Fre&q. (Hz)
FREQFINAL	QUANT	1.00000E+000	Final Fre&q. (Hz)
PTSPERDEC	QUANT	1.00000E+001	Points/&decade
VAC	QUANT	2.50000E+001	AC &Voltage (mV rms)
AREA	QUANT	1.00000E-002	&Area (cm^2)
CONDIT	TWOPARAM	T	5.00000E+000	0.00000E+000	Conditionin&g	Time(s)	E(V)
DELAY	TWOPARAM	T	5.00000E+000	0.00000E+000	Init. De&lay	Time(s)	Stab.(mV/s)
SPEED	SELECTOR	1	&Optimize for:
ZGUESS	QUANT	1.00000E+005	E&stimated Z (ohms)
OCVCURVE	TABLE	19
	Pt	T	Vf	Vm	Ach	Over
	#	s	V vs. Ref.	V	V	bits
	0	0.258333	6.32681E-003	6.32681E-003	5.69399E-004	...........
	1	0.516667	6.32844E-003	6.41187E-003	5.62632E-004	...........
	2	0.775	6.33942E-003	6.54508E-003	5.64732E-004	...........
	3	1.03333	6.37380E-003	6.67126E-003	5.62966E-004	...........
	4	1.29167	6.44145E-003	6.78292E-003	5.71432E-004	...........
	5	1.55	6.53869E-003	6.90443E-003	5.64499E-004	...........
	6	1.80833	6.65236E-003	6.99845E-003	5.64932E-004	...........
	7	2.06667	6.77065E-003	7.15450E-003	5.76432E-004	...........
	8	2.325	6.88871E-003	7.22846E-003	5.75532E-004	...........
	9	2.58333	7.00571E-003	7.35614E-003	5.64899E-004	...........
	10	2.84167	7.12020E-003	7.44510E-003	5.61466E-004	...........
	11	3.1	7.23082E-003	7.55699E-003	5.61899E-004	...........
	12	3.35833	7.33794E-003	7.65968E-003	5.57166E-004	...........
	13	3.61667	7.44289E-003	7.75746E-003	5.55799E-004	...........
	14	3.875	7.54654E-003	7.85684E-003	5.60166E-004	...........
	15	4.13333	7.64867E-003	7.94932E-003	5.60799E-004	...........
	16	4.39167	7.74858E-003	8.03902E-003	5.57099E-004	...........
	17	4.65	7.84564E-003	8.12612E-003	5.52932E-004	...........
	18	4.90833	7.93848E-003	8.16035E-003	5.59366E-004	...........
EOC	QUANT	0.0079385	Open Circuit (V)
PSTATMODEL	IQUANT	4	Pstat Model
PSTATSECTION	LABEL	REF600-11020	Pstat Section
PSTATSERIALNO	LABEL	11020	Pstat Serial Number
CTRLMODE	IQUANT	1	Control Mode
IESTAB	IQUANT	0	I/E Stability
CASPEED	IQUANT	1	Control Amp Speed
CONVENTION	IQUANT	1	Current Convention
ICHRANGE	IQUANT	2	Ich Range
ICHRANGEMODE	TOGGLE	F	Ich Auto Range
ICHOFFSETENABLE	TOGGLE	T	Ich Offset Enable
ICHOFFSET	QUANT	0	Ich Offset (V)
ICHFILTER	IQUANT	3	Ich Filter
VCHRANGE	IQUANT	2	Vch Range
VCHRANGEMODE	TOGGLE	F	Vch Auto Range
VCHOFFSETENABLE	TOGGLE	T	Vch Offset Enable
VCHOFFSET	QUANT	0	Vch Offset (V)
VCHFILTER	IQUANT	3	Vch Filter
ACHRANGE	IQUANT	2	Ach Range
ACHOFFSETENABLE	TOGGLE	F	Ach Offset Enable
ACHOFFSET	QUANT	0	Ach Offset (V)
ACHFILTER	IQUANT	3	Ach Filter
IERANGELOWERLIMIT	IQUANT	1	I/E Range Lower Limit
IERANGEMODE	TOGGLE	F	I/E AutoRange
IERANGE	IQUANT	5	I/E Range
POSFEEDENABLE	TOGGLE	F	Positive Feedback IR Comp
POSFEEDRESISTANCE	QUANT	0	Positive Feedback Resistance (ohm)
ACHSELECT	IQUANT	0	Ach Select
CABLEID	IQUANT	14	Cable ID
DCCALDATE	LABEL	8/19/2019	DC Calibration Date
ACCALDATE	LABEL	8/19/2019	AC Calibration Date
THERMOSELECT	IQUANT	1	Thermo Select
FRAMEWORKVERSION	QUANT	6.33	Framework Version
INSTRUMENTVERSION	LABEL	3.50	Instrument Version
ZCURVE	TABLE
	Pt	Time	Freq	Zreal	Zimag	Zsig	Zmod	Zphz	Idc	Vdc	IERange
	#	s	Hz	ohm	ohm	V	ohm	°	A	V	#
	0	1	1000078	1913.873	-532.8278	1	1986.66	-15.55735	-1.399543E-006	0.0104506	8
	1	2	794390.6	1981.523	-465.6865	1	2035.509	-13.22534	3.122843E-007	0.0098549	8
	2	4	630984.4	2034.274	-396.1443	1	2072.487	-11.01958	-3.771321E-006	0.0103115	8
	3	5	501234.4	2069.439	-339.9599	1	2097.177	-9.329018	2.291088E-006	0.0091189	8
	4	6	398109.4	2097.349	-294.6142	1	2117.94	-7.996011	1.376814E-006	0.0094517	8
	5	8	316265.6	2124.932	-257.5526	1	2140.483	-6.910833	2.460861E-006	0.0090486	8
	6	9	251203.1	2139.107	-221.9752	1	2150.593	-5.924381	-3.180042E-006	0.0102404	8
	7	11	199546.9	2166.576	-204.8324	1	2176.238	-5.400803	1.119739E-006	0.0093454	8
	8	12	158578.1	2177.851	-187.9179	1	2185.943	-4.931605	3.834242E-006	0.008849	8
	9	13	125953.1	2204.147	-147.4939	1	2209.077	-3.828326	-1.487287E-006	0.0124508	7
	10	15	100078.1	2218.295	-139.0793	1	2222.651	-3.587547	8.505256E-010	0.0095479	7
	11	16	79453.13	2232.057	-145.3779	1	2236.787	-3.726513	-5.216919E-008	0.0096875	7
	12	17	63140.62	2248.376	-154.3101	1	2253.665	-3.926155	-4.076447E-008	0.0095814	7
	13	19	50203.12	2266.325	-165.2212	1	2272.34	-4.169641	-9.394546E-009	0.0094978	7
	14	20	39890.62	2284.787	-178.5053	1	2291.749	-4.467318	6.705179E-008	0.0094149	7
	15	21	31640.63	2304.674	-193.929	1	2312.819	-4.809877	-3.796561E-008	0.0096143	7
	16	23	25171.88	2325.339	-213.205	1	2335.092	-5.238672	-6.318933E-008	0.0096296	7
	17	24	20015.62	2348.896	-235.8231	1	2360.704	-5.733137	7.203537E-008	0.0094857	7
	18	25	15890.62	2368.515	-266.1116	1	2383.417	-6.410513	-4.152541E-008	0.0095731	7
	19	27	12609.37	2391.844	-302.2789	1	2410.869	-7.202801	-6.361906E-008	0.0096306	7
	20	28	10078.13	2415.2	-344.7982	1	2439.688	-8.124744	-2.498202E-009	0.009539	7
	21	29	8015.625	2440.431	-396.6554	1	2472.456	-9.23184	-7.498848E-009	0.0094883	7
	22	31	6328.125	2469.658	-468.6611	1	2513.733	-10.74511	-3.972827E-008	0.0096056	7
	23	32	5015.625	2499.537	-552.4432	1	2559.859	-12.46306	-1.445293E-008	0.0095668	7
	24	33	3984.375	2531.635	-652.1747	1	2614.289	-14.44588	-3.979696E-008	0.0095738	7
	25	35	3170.956	2566.651	-780.9366	1	2682.827	-16.92306	7.081979E-008	0.0094817	7
	26	36	2527.573	2604.769	-934.7492	1	2767.414	-19.74107	-3.275995E-008	0.0095471	7
	27	38	1976.103	2650.943	-1143.823	1	2887.184	-23.33913	-1.086145E-010	0.0095441	7
	28	39	1577.524	2701.63	-1375.831	1	3031.784	-26.9879	-8.484745E-009	0.0094865	7
	29	40	1265.625	2754.07	-1669.569	1	3220.615	-31.22503	7.144958E-008	0.00949	7
	30	42	998.264	2824.215	-2050.241	1	3489.94	-35.9778	-3.509414E-008	0.0095461	7
	31	43	796.875	2909.236	-2500.776	1	3836.344	-40.68232	1.018654E-008	0.0094639	7
	32	44	627.7902	3016.725	-3086.857	1	4316.169	-45.65831	-6.573892E-008	0.0096343	7
	33	46	505.5147	3139.042	-3744.718	1	4886.358	-50.02829	-3.718868E-008	0.0095412	7
	34	47	397.9953	3310.354	-4638.592	1	5698.682	-54.48626	3.800339E-009	0.0095403	7
	35	48	315.5048	3524.602	-5708.163	1	6708.647	-58.30604	7.079939E-009	0.0095389	7
	36	50	252.4038	3788.355	-6963.032	1	7926.881	-61.45085	5.516528E-009	0.0095381	7
	37	51	198.6229	4158.667	-8616.751	1	9567.81	-64.23685	5.430941E-009	0.009536	7
	38	52	158.3615	4614.235	-10525.4	1	11492.4	-66.32782	9.138153E-010	0.0094742	6
	39	54	125.558	5225.248	-12906.08	1	13923.72	-67.9586	1.334157E-009	0.0094717	6
	40	55	100.4464	5965.22	-15661.79	1	16759.34	-69.1493	5.631459E-010	0.0094687	6
	41	57	79.00281	7037.957	-19307.06	1	20549.83	-69.97181	1.626339E-010	0.0094734	6
	42	58	63.3446	8572.949	-23151.25	1	24687.56	-69.68031	-4.662117E-010	0.0094666	6
	43	59	49.86702	10051.84	-28552.95	1	30270.62	-70.60578	-5.460852E-010	0.0094687	6
	44	61	39.72458	12229.99	-34192.42	1	36313.83	-70.31882	6.400051E-010	0.0094757	6
	45	62	31.6723	15103.27	-41117.63	1	43803.75	-69.83077	-5.14721E-010	0.0094761	6
	46	63	24.93351	18674.5	-49517.71	1	52922.03	-69.33716	5.79528E-010	0.0094729	6
	47	65	19.86229	22959.47	-58901.06	1	63217.66	-68.7043	-2.765767E-011	0.0094781	6
	48	66	15.83615	28594.01	-70652.19	1	76219.09	-67.96607	3.574498E-009	0.0094698	6
	49	68	12.40079	34591.57	-84125.53	1	90959.78	-67.64803	-3.051113E-010	0.0094688	6
	50	69	9.93114	43053.84	-98388.8	1	107396.4	-66.36636	8.325928E-010	0.0094757	5
	51	71	7.944915	52869.65	-115830.1	1	127325.6	-65.46607	1.346702E-010	0.0094768	5
	52	72	6.317385	64173.87	-135532.3	1	149957.6	-64.66267	-3.903764E-010	0.0094759	5
	53	74	5.008013	78452.09	-159191.5	1	177473	-63.7652	-3.511084E-010	0.0094701	5
	54	77	3.945707	96106.3	-186631.3	1	209923	-62.75367	5.254194E-010	0.0094831	5
	55	79	3.158693	115983.1	-216147.5	1	245299.4	-61.78232	-2.596283E-010	0.0094717	5
	56	83	2.504006	140066.8	-250514.2	1	287012.3	-60.78969	5.55926E-010	0.0094778	5
	57	85	1.998082	167194	-287913.9	1	332938.9	-59.8559	-5.544298E-011	0.0095193	5
	58	89	1.584686	197640.5	-331308.9	1	385781.5	-59.18204	1.65841E-010	0.0094796	5
	59	92	1.266892	232893.3	-379364.7	1	445148.1	-58.45409	-8.579105E-011	0.0095233	5
	60	96	0.999041	272810.4	-437261.8	1	515386.7	-58.0397	1.838597E-011	0.0094436	5
