EXPLAIN
TAG	EISPOT
TITLE	LABEL	Potentiostatic IDE	Test &Identifier
DATE	LABEL	9/6/2019	Date
TIME	LABEL	8:10:01	Time
NOTES	NOTES	1	&Notes...
	
PSTAT	PSTAT	REF600-11020	Potentiostat
VDC	POTEN	0.00000E+000	T	DC &Voltage (V)
FREQINIT	QUANT	1.00000E+006	Initial Fre&q. (Hz)
FREQFINAL	QUANT	1.00000E+000	Final Fre&q. (Hz)
PTSPERDEC	QUANT	1.00000E+001	Points/&decade
VAC	QUANT	2.50000E+001	AC &Voltage (mV rms)
AREA	QUANT	1.00000E-002	&Area (cm^2)
CONDIT	TWOPARAM	T	5.00000E+000	0.00000E+000	Conditionin&g	Time(s)	E(V)
DELAY	TWOPARAM	T	5.00000E+000	0.00000E+000	Init. De&lay	Time(s)	Stab.(mV/s)
SPEED	SELECTOR	1	&Optimize for:
ZGUESS	QUANT	1.00000E+007	E&stimated Z (ohms)
OCVCURVE	TABLE	19
	Pt	T	Vf	Vm	Ach	Over
	#	s	V vs. Ref.	V	V	bits
	0	0.258333	1.43078E-002	1.43078E-002	5.64266E-004	...........
	1	0.516667	1.43062E-002	1.42263E-002	5.68866E-004	...........
	2	0.775	1.42986E-002	1.42513E-002	5.66699E-004	...........
	3	1.03333	1.42836E-002	1.42753E-002	5.65766E-004	...........
	4	1.29167	1.42692E-002	1.42955E-002	5.71032E-004	...........
	5	1.55	1.42655E-002	1.43067E-002	5.70999E-004	...........
	6	1.80833	1.42743E-002	1.43536E-002	5.69566E-004	...........
	7	2.06667	1.42898E-002	1.42450E-002	5.69566E-004	...........
	8	2.325	1.43100E-002	1.47406E-002	5.65299E-004	...........
	9	2.58333	1.43630E-002	1.51715E-002	5.66832E-004	...........
	10	2.84167	1.44934E-002	1.49320E-002	5.66366E-004	...........
	11	3.1	1.46798E-002	1.46939E-002	5.70632E-004	...........
	12	3.35833	1.48204E-002	1.45839E-002	5.67999E-004	...........
	13	3.61667	1.48417E-002	1.45386E-002	5.69166E-004	...........
	14	3.875	1.47668E-002	1.45553E-002	5.67766E-004	...........
	15	4.13333	1.46704E-002	1.47039E-002	5.63899E-004	...........
	16	4.39167	1.46157E-002	1.48580E-002	5.63332E-004	...........
	17	4.65	1.46321E-002	1.50241E-002	5.67832E-004	...........
	18	4.90833	1.47160E-002	1.51257E-002	5.68166E-004	...........
EOC	QUANT	0.014716	Open Circuit (V)
PSTATMODEL	IQUANT	4	Pstat Model
PSTATSECTION	LABEL	REF600-11020	Pstat Section
PSTATSERIALNO	LABEL	11020	Pstat Serial Number
CTRLMODE	IQUANT	1	Control Mode
IESTAB	IQUANT	0	I/E Stability
CASPEED	IQUANT	1	Control Amp Speed
CONVENTION	IQUANT	1	Current Convention
ICHRANGE	IQUANT	2	Ich Range
ICHRANGEMODE	TOGGLE	F	Ich Auto Range
ICHOFFSETENABLE	TOGGLE	T	Ich Offset Enable
ICHOFFSET	QUANT	0	Ich Offset (V)
ICHFILTER	IQUANT	3	Ich Filter
VCHRANGE	IQUANT	2	Vch Range
VCHRANGEMODE	TOGGLE	F	Vch Auto Range
VCHOFFSETENABLE	TOGGLE	T	Vch Offset Enable
VCHOFFSET	QUANT	0	Vch Offset (V)
VCHFILTER	IQUANT	3	Vch Filter
ACHRANGE	IQUANT	2	Ach Range
ACHOFFSETENABLE	TOGGLE	F	Ach Offset Enable
ACHOFFSET	QUANT	0	Ach Offset (V)
ACHFILTER	IQUANT	3	Ach Filter
IERANGELOWERLIMIT	IQUANT	1	I/E Range Lower Limit
IERANGEMODE	TOGGLE	F	I/E AutoRange
IERANGE	IQUANT	3	I/E Range
POSFEEDENABLE	TOGGLE	F	Positive Feedback IR Comp
POSFEEDRESISTANCE	QUANT	0	Positive Feedback Resistance (ohm)
ACHSELECT	IQUANT	0	Ach Select
CABLEID	IQUANT	14	Cable ID
DCCALDATE	LABEL	8/19/2019	DC Calibration Date
ACCALDATE	LABEL	8/19/2019	AC Calibration Date
THERMOSELECT	IQUANT	1	Thermo Select
FRAMEWORKVERSION	QUANT	6.33	Framework Version
INSTRUMENTVERSION	LABEL	3.50	Instrument Version
ZCURVE	TABLE
	Pt	Time	Freq	Zreal	Zimag	Zsig	Zmod	Zphz	Idc	Vdc	IERange
	#	s	Hz	ohm	ohm	V	ohm	°	A	V	#
	0	2	1000078	2343.076	-2027.52	1	3098.523	-40.87043	2.084272E-006	0.0163347	8
	1	3	794390.6	2767.923	-2029.444	1	3432.207	-36.2489	7.612728E-007	0.0164932	8
	2	4	630984.4	3175.39	-1918.005	1	3709.696	-31.13289	3.952556E-007	0.0164862	8
	3	6	501234.4	3523.23	-1762.54	1	3939.504	-26.57708	-3.538453E-007	0.0167034	8
	4	7	398109.4	3802.212	-1596.075	1	4123.624	-22.77146	2.49927E-006	0.0160036	8
	5	8	316265.6	4022.09	-1428.905	1	4268.369	-19.55831	2.087363E-008	0.0163519	8
	6	10	251203.1	4192.869	-1257.917	1	4377.5	-16.69995	-2.672982E-006	0.0170125	8
	7	11	199546.9	4313.199	-1118.675	1	4455.908	-14.53991	-1.067609E-006	0.0165406	8
	8	12	158578.1	4428.068	-1014.912	1	4542.888	-12.90921	-3.929346E-007	0.0164935	8
	9	14	125953.1	4545.535	-888.2083	1	4631.501	-11.05642	6.061484E-007	0.0151334	7
	10	15	100078.1	4602.796	-838.6126	1	4678.569	-10.32582	2.811711E-008	0.0163057	7
	11	16	79453.13	4671.671	-816.7192	1	4742.525	-9.91645	4.580076E-008	0.0163098	7
	12	18	63140.62	4738.435	-815.1281	1	4808.035	-9.76076	-3.197389E-008	0.0164484	7
	13	19	50203.12	4806.58	-835.5982	1	4878.671	-9.862	-1.599205E-008	0.0163791	7
	14	20	39890.62	4875.938	-878.0205	1	4954.361	-10.20798	-3.827945E-008	0.016436	7
	15	22	31640.63	4953.331	-941.49	1	5042.012	-10.76195	-1.318696E-008	0.0163739	7
	16	23	25171.88	5032.797	-1026.303	1	5136.375	-11.52589	-2.408688E-008	0.0163934	7
	17	24	20015.62	5121.761	-1139.56	1	5247.002	-12.54363	-1.097415E-008	0.0164587	7
	18	25	15890.62	5220.012	-1283.798	1	5375.562	-13.81698	-1.179459E-008	0.0164546	7
	19	27	12609.37	5326.796	-1459.441	1	5523.108	-15.32195	-2.99205E-008	0.0164353	7
	20	28	10078.13	5441.068	-1664.705	1	5690.032	-17.01159	-1.459497E-008	0.0163734	7
	21	29	8015.625	5571.875	-1925.809	1	5895.297	-19.0667	4.931999E-008	0.0162705	7
	22	31	6328.125	5725.593	-2250.152	1	6151.877	-21.45478	7.922968E-008	0.0162601	7
	23	32	5015.625	5895.333	-2636.726	1	6458.117	-24.09689	-2.175456E-008	0.0163979	7
	24	33	3984.375	6089.505	-3107.588	1	6836.605	-27.03607	7.846176E-008	0.0162604	7
	25	35	3170.956	6319.243	-3661.163	1	7303.215	-30.08661	1.879847E-008	0.0163289	7
	26	36	2527.573	6580.347	-4334.404	1	7879.596	-33.37247	4.832203E-008	0.0163036	7
	27	37	1976.103	6912.943	-5215.563	1	8659.728	-37.03322	-3.023509E-008	0.0164265	7
	28	39	1577.524	7285.137	-6179.337	1	9552.88	-40.305	-7.155228E-009	0.0163976	7
	29	40	1265.625	7720.796	-7304.039	1	10628.25	-43.41114	-5.950048E-009	0.0163563	6
	30	41	998.264	8274.933	-8761.336	1	12051.37	-46.63541	8.315165E-009	0.0162067	6
	31	43	796.875	8912.661	-10419.39	1	13711.28	-49.4566	-4.438828E-009	0.0164098	6
	32	44	627.7902	9715.52	-12509.75	1	15839.36	-52.16581	-3.026382E-010	0.0162395	6
	33	45	505.5147	10591.97	-14782.82	1	18185.75	-54.37819	2.596767E-009	0.0163296	6
	34	47	397.9953	11751.21	-17708.88	1	21253.12	-56.43266	4.27247E-010	0.0163167	6
	35	48	315.5048	13084.92	-21125.04	1	24849.2	-58.2258	6.458037E-010	0.016317	6
	36	49	252.4038	14591.54	-25021.23	1	28965.07	-59.75069	6.415675E-010	0.0163082	6
	37	51	198.6229	16477.48	-30010.06	1	34236.11	-61.23034	4.819792E-010	0.0163229	6
	38	52	158.3615	18557.52	-35668.14	1	40206.94	-62.51281	5.923419E-010	0.0163165	6
	39	54	125.558	21046.34	-42621.84	1	47534.93	-63.72019	4.452735E-010	0.0163142	6
	40	55	100.4464	23844.12	-50684.43	1	56012.98	-64.8057	5.46576E-010	0.0163169	6
	41	56	79.00281	27409.31	-61060.33	1	66930.06	-65.82522	4.470105E-010	0.0163207	6
	42	58	63.3446	31495.31	-73072.73	1	79571.22	-66.68333	3.523211E-010	0.0163268	6
	43	59	49.86702	36057.85	-87864.32	1	94975.3	-67.68768	4.278455E-010	0.0163179	6
	44	60	39.72458	42277.41	-105478.9	1	113636.1	-68.15839	1.474108E-010	0.0163218	5
	45	62	31.6723	49275.86	-126493.4	1	135752.4	-68.71647	1.124763E-010	0.0163201	5
	46	63	24.93351	58908.14	-153049.1	1	163994.5	-68.94844	2.37651E-010	0.0163159	5
	47	64	19.86229	69937.8	-183606	1	196475.1	-69.14754	4.619083E-010	0.0163281	5
	48	66	15.83615	83387.02	-218867.7	1	234214.5	-69.14352	3.115051E-011	0.0163229	5
	49	67	12.40079	101856	-267113.8	1	285874.9	-69.12711	2.66302E-010	0.0163264	5
	50	68	9.93114	124414.9	-316865.7	1	340415.8	-68.56293	-2.752323E-011	0.0163247	5
	51	70	7.944915	151424.2	-376046.3	1	405388.9	-68.06661	-9.601756E-011	0.0163265	5
	52	72	6.317385	186032.7	-447828.2	1	484931.1	-67.44147	-5.166344E-011	0.0163334	5
	53	74	5.008013	231003.4	-532186.7	1	580159.7	-66.53604	1.76796E-010	0.0163309	5
	54	76	3.945707	286559.2	-632101.2	1	694023.1	-65.61313	1.195362E-011	0.0163225	5
	55	79	3.158693	350818.5	-739581.7	1	818568.7	-64.6228	9.897023E-011	0.0163304	5
	56	82	2.504006	433796.1	-866635.4	1	969142	-63.40965	-6.329905E-011	0.0163283	5
	57	85	1.998082	529311.1	-1003145	1	1134226	-62.18155	1.375243E-010	0.0163006	4
	58	88	1.584686	649163.2	-1164288	1	1333034	-60.85761	-2.004094E-011	0.0162707	4
	59	91	1.266892	779113.4	-1332663	1	1543700	-59.68821	1.120909E-010	0.0163165	4
	60	96	0.999041	945929.6	-1537957	1	1805573	-58.40616	-1.237891E-010	0.0162989	4
