EXPLAIN
TAG	EISPOT
TITLE	LABEL	Potentiostatic EIS	Test &Identifier
DATE	LABEL	11/15/2019	Date
TIME	LABEL	12:40:00	Time
NOTES	NOTES	4	&Notes...
	
	
	
	
PSTAT	PSTAT	REF600-11020	Potentiostat
VDC	POTEN	0.00000E+000	T	DC &Voltage (V)
FREQINIT	QUANT	1.00000E+006	Initial Fre&q. (Hz)
FREQFINAL	QUANT	1.00000E+000	Final Fre&q. (Hz)
PTSPERDEC	QUANT	1.00000E+001	Points/&decade
VAC	QUANT	2.50000E+001	AC &Voltage (mV rms)
AREA	QUANT	1.00000E-002	&Area (cm^2)
CONDIT	TWOPARAM	T	5.00000E+000	0.00000E+000	Conditionin&g	Time(s)	E(V)
DELAY	TWOPARAM	T	5.00000E+000	0.00000E+000	Init. De&lay	Time(s)	Stab.(mV/s)
SPEED	SELECTOR	0	&Optimize for:
ZGUESS	QUANT	1.00000E+005	E&stimated Z (ohms)
OCVCURVE	TABLE	19
	Pt	T	Vf	Vm	Ach	Over
	#	s	V vs. Ref.	V	V	bits
	0	0.258333	7.62378E-003	7.62378E-003	5.37133E-004	...........
	1	0.516667	7.62133E-003	7.49594E-003	5.33300E-004	...........
	2	0.775	7.60961E-003	7.54597E-003	5.37333E-004	...........
	3	1.03333	7.58719E-003	7.58790E-003	5.34600E-004	...........
	4	1.29167	7.56543E-003	7.51314E-003	5.31133E-004	...........
	5	1.55	7.55408E-003	7.59178E-003	5.33900E-004	...........
	6	1.80833	7.55382E-003	7.65265E-003	5.36299E-004	...........
	7	2.06667	7.56519E-003	7.59433E-003	5.39599E-004	...........
	8	2.325	7.58644E-003	7.69626E-003	5.39033E-004	...........
	9	2.58333	7.61327E-003	7.77268E-003	5.41333E-004	...........
	10	2.84167	7.64674E-003	7.72620E-003	5.34733E-004	...........
	11	3.1	7.68580E-003	7.79258E-003	5.33400E-004	...........
	12	3.35833	7.72372E-003	7.86623E-003	5.37199E-004	...........
	13	3.61667	7.75909E-003	7.82307E-003	5.39766E-004	...........
	14	3.875	7.79340E-003	7.89615E-003	5.37899E-004	...........
	15	4.13333	7.82614E-003	7.97656E-003	5.33766E-004	...........
	16	4.39167	7.86091E-003	7.98109E-003	5.32133E-004	...........
	17	4.65	7.90201E-003	8.05415E-003	5.27666E-004	...........
	18	4.90833	7.94865E-003	8.14101E-003	5.36399E-004	...........
EOC	QUANT	0.0079486	Open Circuit (V)
PSTATMODEL	IQUANT	4	Pstat Model
PSTATSECTION	LABEL	REF600-11020	Pstat Section
PSTATSERIALNO	LABEL	11020	Pstat Serial Number
CTRLMODE	IQUANT	1	Control Mode
IESTAB	IQUANT	0	I/E Stability
CASPEED	IQUANT	1	Control Amp Speed
CONVENTION	IQUANT	1	Current Convention
ICHRANGE	IQUANT	2	Ich Range
ICHRANGEMODE	TOGGLE	F	Ich Auto Range
ICHOFFSETENABLE	TOGGLE	T	Ich Offset Enable
ICHOFFSET	QUANT	0	Ich Offset (V)
ICHFILTER	IQUANT	3	Ich Filter
VCHRANGE	IQUANT	2	Vch Range
VCHRANGEMODE	TOGGLE	F	Vch Auto Range
VCHOFFSETENABLE	TOGGLE	T	Vch Offset Enable
VCHOFFSET	QUANT	0	Vch Offset (V)
VCHFILTER	IQUANT	3	Vch Filter
ACHRANGE	IQUANT	2	Ach Range
ACHOFFSETENABLE	TOGGLE	F	Ach Offset Enable
ACHOFFSET	QUANT	0	Ach Offset (V)
ACHFILTER	IQUANT	3	Ach Filter
IERANGELOWERLIMIT	IQUANT	1	I/E Range Lower Limit
IERANGEMODE	TOGGLE	F	I/E AutoRange
IERANGE	IQUANT	5	I/E Range
POSFEEDENABLE	TOGGLE	F	Positive Feedback IR Comp
POSFEEDRESISTANCE	QUANT	0	Positive Feedback Resistance (ohm)
ACHSELECT	IQUANT	0	Ach Select
CABLEID	IQUANT	14	Cable ID
DCCALDATE	LABEL	8/19/2019	DC Calibration Date
ACCALDATE	LABEL	8/19/2019	AC Calibration Date
THERMOSELECT	IQUANT	1	Thermo Select
FRAMEWORKVERSION	QUANT	6.33	Framework Version
INSTRUMENTVERSION	LABEL	3.50	Instrument Version
ZCURVE	TABLE
	Pt	Time	Freq	Zreal	Zimag	Zsig	Zmod	Zphz	Idc	Vdc	IERange
	#	s	Hz	ohm	ohm	V	ohm	°	A	V	#
	0	1	1000078	2198.607	-1688.505	1	2772.169	-37.52385	-9.250799E-006	0.0116148	8
	1	2	794390.6	2533.502	-1667.329	1	3032.923	-33.3494	2.786983E-006	0.0104885	8
	2	2	630984.4	2848.64	-1596.663	1	3265.591	-29.27063	1.731103E-006	0.0100759	8
	3	2	501234.4	3138.261	-1499.1	1	3477.928	-25.53311	-4.340423E-006	0.0102756	8
	4	3	398109.4	3374.085	-1362.858	1	3638.933	-21.99473	-3.332744E-007	0.0092861	8
	5	3	316265.6	3570.551	-1244.519	1	3781.225	-19.21605	-6.91621E-007	0.0092679	8
	6	3	251203.1	3740.481	-1111.982	1	3902.269	-16.55633	-1.554286E-006	0.0093196	8
	7	4	199546.9	3883.22	-1004.806	1	4011.114	-14.50743	-3.631915E-006	0.0101202	8
	8	4	158578.1	3988.294	-900.5295	1	4088.697	-12.72363	-1.4171E-007	0.0092694	8
	9	4	125953.1	4100.22	-769.0224	1	4171.714	-10.62278	-7.108098E-007	0.0129405	7
	10	4	100078.1	4171.973	-716.7464	1	4233.094	-9.74827	1.162106E-006	0.0083174	7
	11	5	79453.13	4240.42	-680.4849	1	4294.673	-9.116857	6.429478E-007	0.0097385	7
	12	5	63140.62	4307.329	-658.5579	1	4357.382	-8.692773	8.786893E-007	0.0092798	7
	13	5	50203.12	4368.147	-646.5295	1	4415.734	-8.419224	-1.292055E-006	0.0106625	7
	14	6	39890.62	4432.572	-653.659	1	4480.509	-8.388788	-7.758018E-007	0.0093392	7
	15	6	31640.63	4500.38	-673.2104	1	4550.455	-8.507771	6.438729E-007	0.0097337	7
	16	6	25171.88	4567.026	-703.0278	1	4620.819	-8.751168	-6.611158E-007	0.0112	7
	17	7	20015.62	4641.578	-746.9465	1	4701.295	-9.141952	-1.113392E-006	0.010061	7
	18	7	15890.62	4719.678	-807.0392	1	4788.18	-9.70342	-6.600829E-007	0.0111955	7
	19	7	12609.37	4807.05	-880.6685	1	4887.055	-10.38166	-1.165728E-006	0.0112281	7
	20	8	10078.13	4898.542	-972.838	1	4994.209	-11.23264	-3.281939E-007	0.0086077	7
	21	8	8015.625	5010.25	-1073.225	1	5123.907	-12.09039	1.040924E-006	0.0077098	7
	22	8	6328.125	5125.528	-1198.75	1	5263.843	-13.16363	-1.164186E-006	0.0112241	7
	23	8	5015.625	5263.353	-1347.255	1	5433.045	-14.35766	1.041351E-006	0.0077119	7
	24	9	3984.375	5407.002	-1512.742	1	5614.629	-15.63027	-1.164956E-006	0.0112236	7
	25	9	3170.956	5572.689	-1704.738	1	5827.606	-17.00937	-3.112979E-007	0.010931	7
	26	9	2527.573	5750.433	-1921.022	1	6062.821	-18.4727	-3.090663E-007	0.0109298	7
	27	10	1976.103	5965.427	-2191.265	1	6355.152	-20.16967	8.272572E-007	0.0076195	7
	28	10	1577.524	6160.901	-2484.198	1	6642.886	-21.96027	1.167145E-006	0.0082916	7
	29	10	1265.625	6389.887	-2803.055	1	6977.663	-23.68565	1.167383E-006	0.0082946	7
	30	11	998.264	6628.518	-3224.965	1	7371.408	-25.94426	1.075654E-006	0.0087476	7
	31	11	796.875	6858.818	-3693.777	1	7790.21	-28.30443	4.130566E-007	0.0100581	7
	32	11	627.7902	7116.272	-4322.031	1	8325.94	-31.27218	8.848952E-007	0.0092654	7
	33	12	505.5147	7348.912	-5031.255	1	8906.18	-34.39655	1.151457E-006	0.0079477	7
	34	12	397.9953	7636.091	-5987.256	1	9703.46	-38.09905	3.275283E-009	0.0095178	7
	35	12	315.5048	7939.165	-7162.688	1	10692.73	-42.05667	1.01186E-010	0.0094632	6
	36	13	252.4038	8269.8	-8574.221	1	11912.47	-46.03539	7.021307E-010	0.0094575	6
	37	13	198.6229	8695.145	-10466.88	1	13607.39	-50.28259	5.970786E-010	0.0094574	6
	38	13	158.3615	9191.315	-12675.9	1	15657.54	-54.05407	2.050603E-010	0.0094563	6
	39	14	125.558	9838.99	-15486.88	1	18348	-57.57175	-1.254211E-010	0.0094542	6
	40	14	100.4464	10633	-18797.73	1	21596.65	-60.50518	-5.798764E-010	0.0094489	6
	41	14	79.00281	11795.6	-23136.92	1	25970.24	-62.98672	-1.077914E-009	0.0094509	6
	42	15	63.3446	12955.33	-28184.5	1	31019.46	-65.31359	-6.681325E-010	0.0094557	6
	43	15	49.86702	14822.58	-34399.2	1	37456.82	-66.68884	6.583648E-010	0.0094434	6
	44	15	39.72458	17351.31	-41636.91	1	45107.65	-67.37709	7.384515E-010	0.0094494	6
	45	16	31.6723	20373.13	-50328.89	1	54296.05	-67.96191	2.349303E-010	0.0094459	6
	46	16	24.93351	24771.07	-61146.72	1	65973.69	-67.9467	-2.20261E-010	0.0094503	6
	47	16	19.86229	30155.19	-73455.23	1	79404.07	-67.68063	1.919912E-009	0.009451	6
	48	16	15.83615	36728.04	-87230.32	1	94647.13	-67.16663	1.208101E-009	0.0094458	6
	49	17	12.40079	46581.3	-105348.1	1	115186.9	-66.14663	-2.46603E-010	0.0094679	5
	50	17	9.93114	56389	-123143.1	1	135439.9	-65.39628	6.132857E-011	0.0094625	5
	51	18	7.944915	68472.48	-143357.9	1	158871	-64.46932	9.258943E-010	0.0094536	5
	52	18	6.317385	83660.97	-166673	1	186491.5	-63.34579	5.081383E-010	0.0094432	5
	53	19	5.008013	101226	-193471.3	1	218352.6	-62.38102	1.558599E-010	0.0094646	5
	54	20	3.945707	120959.3	-224618.1	1	255116.5	-61.69704	-4.640897E-011	0.0094566	5
	55	21	3.158693	140502.6	-258825.1	1	294502	-61.50477	-1.84675E-010	0.0094594	5
	56	23	2.504006	163089.7	-300458.9	1	341868.1	-61.50681	-7.141934E-011	0.0094513	5
	57	24	1.998082	186727.3	-349125.2	1	395923.6	-61.8602	2.484917E-011	0.0094893	5
	58	26	1.584686	213671.4	-408323.6	1	460850.9	-62.37741	-1.201768E-010	0.0094412	5
	59	28	1.266892	244748.4	-479208.4	1	538091.5	-62.94501	-1.296797E-010	0.0094155	5
	60	30	0.999041	282163.6	-570860.9	1	636787.6	-63.69786	-1.301719E-010	0.0094185	5
