EXPLAIN
TAG	EISPOT
TITLE	LABEL	Potentiostatic EIS	Test &Identifier
DATE	LABEL	10/24/2019	Date
TIME	LABEL	8:45:49	Time
NOTES	NOTES	1	&Notes...
	
PSTAT	PSTAT	REF600-11020	Potentiostat
VDC	POTEN	0.00000E+000	T	DC &Voltage (V)
FREQINIT	QUANT	1.00000E+006	Initial Fre&q. (Hz)
FREQFINAL	QUANT	1.00000E+000	Final Fre&q. (Hz)
PTSPERDEC	QUANT	1.00000E+001	Points/&decade
VAC	QUANT	2.50000E+001	AC &Voltage (mV rms)
AREA	QUANT	1.00000E-002	&Area (cm^2)
CONDIT	TWOPARAM	T	5.00000E+000	0.00000E+000	Conditionin&g	Time(s)	E(V)
DELAY	TWOPARAM	T	5.00000E+000	0.00000E+000	Init. De&lay	Time(s)	Stab.(mV/s)
SPEED	SELECTOR	1	&Optimize for:
ZGUESS	QUANT	1.00000E+005	E&stimated Z (ohms)
OCVCURVE	TABLE	19
	Pt	T	Vf	Vm	Ach	Over
	#	s	V vs. Ref.	V	V	bits
	0	0.258333	6.61048E-003	6.61048E-003	5.58299E-004	...........
	1	0.516667	6.60871E-003	6.51810E-003	5.61899E-004	...........
	2	0.775	6.59753E-003	6.41270E-003	5.60066E-004	...........
	3	1.03333	6.56509E-003	6.32758E-003	5.61232E-004	...........
	4	1.29167	6.50907E-003	6.39721E-003	5.55399E-004	...........
	5	1.55	6.44655E-003	6.35878E-003	5.70132E-004	...........
	6	1.80833	6.39773E-003	6.26053E-003	5.64466E-004	...........
	7	2.06667	6.36054E-003	6.13461E-003	5.61132E-004	...........
	8	2.325	6.31508E-003	6.10057E-003	5.64266E-004	...........
	9	2.58333	6.25226E-003	6.08142E-003	5.62199E-004	...........
	10	2.84167	6.18501E-003	6.09944E-003	5.59966E-004	...........
	11	3.1	6.13440E-003	6.18337E-003	5.63232E-004	...........
	12	3.35833	6.11363E-003	6.15181E-003	5.61332E-004	...........
	13	3.61667	6.11970E-003	6.15716E-003	5.64766E-004	...........
	14	3.875	6.13659E-003	6.15821E-003	5.58099E-004	...........
	15	4.13333	6.15014E-003	6.16120E-003	5.65066E-004	...........
	16	4.39167	6.15729E-003	6.17948E-003	5.63099E-004	...........
	17	4.65	6.16182E-003	6.18277E-003	5.68032E-004	...........
	18	4.90833	6.16737E-003	6.19294E-003	5.67332E-004	...........
EOC	QUANT	0.0061674	Open Circuit (V)
PSTATMODEL	IQUANT	4	Pstat Model
PSTATSECTION	LABEL	REF600-11020	Pstat Section
PSTATSERIALNO	LABEL	11020	Pstat Serial Number
CTRLMODE	IQUANT	1	Control Mode
IESTAB	IQUANT	0	I/E Stability
CASPEED	IQUANT	1	Control Amp Speed
CONVENTION	IQUANT	1	Current Convention
ICHRANGE	IQUANT	2	Ich Range
ICHRANGEMODE	TOGGLE	F	Ich Auto Range
ICHOFFSETENABLE	TOGGLE	T	Ich Offset Enable
ICHOFFSET	QUANT	0	Ich Offset (V)
ICHFILTER	IQUANT	3	Ich Filter
VCHRANGE	IQUANT	2	Vch Range
VCHRANGEMODE	TOGGLE	F	Vch Auto Range
VCHOFFSETENABLE	TOGGLE	T	Vch Offset Enable
VCHOFFSET	QUANT	0	Vch Offset (V)
VCHFILTER	IQUANT	3	Vch Filter
ACHRANGE	IQUANT	2	Ach Range
ACHOFFSETENABLE	TOGGLE	F	Ach Offset Enable
ACHOFFSET	QUANT	0	Ach Offset (V)
ACHFILTER	IQUANT	3	Ach Filter
IERANGELOWERLIMIT	IQUANT	1	I/E Range Lower Limit
IERANGEMODE	TOGGLE	F	I/E AutoRange
IERANGE	IQUANT	5	I/E Range
POSFEEDENABLE	TOGGLE	F	Positive Feedback IR Comp
POSFEEDRESISTANCE	QUANT	0	Positive Feedback Resistance (ohm)
ACHSELECT	IQUANT	0	Ach Select
CABLEID	IQUANT	14	Cable ID
DCCALDATE	LABEL	8/19/2019	DC Calibration Date
ACCALDATE	LABEL	8/19/2019	AC Calibration Date
THERMOSELECT	IQUANT	1	Thermo Select
FRAMEWORKVERSION	QUANT	6.33	Framework Version
INSTRUMENTVERSION	LABEL	3.50	Instrument Version
ZCURVE	TABLE
	Pt	Time	Freq	Zreal	Zimag	Zsig	Zmod	Zphz	Idc	Vdc	IERange
	#	s	Hz	ohm	ohm	V	ohm	°	A	V	#
	0	1	1000078	2350.535	-1390.093	1	2730.819	-30.59982	3.150043E-006	0.0082934	8
	1	3	794390.6	2599.095	-1281.181	1	2897.709	-26.24023	-5.745115E-006	0.0091147	8
	2	4	630984.4	2830.666	-1149.344	1	3055.104	-22.09878	1.753608E-006	0.0081204	8
	3	5	501234.4	2982.27	-998.498	1	3144.986	-18.51113	6.425034E-007	0.0079129	8
	4	7	398109.4	3125.709	-878.2974	1	3246.762	-15.69491	-1.956511E-006	0.0083965	8
	5	8	316265.6	3213.395	-742.2273	1	3298	-13.00604	3.919836E-006	0.0070302	8
	6	10	251203.1	3289.101	-626.3044	1	3348.2	-10.78109	-1.946219E-006	0.0083208	8
	7	11	199546.9	3335.981	-548.9135	1	3380.839	-9.343913	-1.415835E-006	0.008123	8
	8	12	158578.1	3389.472	-486.1063	1	3424.152	-8.16151	-1.700689E-006	0.0082881	8
	9	14	125953.1	3439.106	-401.9782	1	3462.519	-6.666739	-4.486796E-007	0.0090883	7
	10	15	100078.1	3458.765	-354.5282	1	3476.887	-5.852458	-2.558396E-008	0.0077818	7
	11	16	79453.13	3486.347	-338.9604	1	3502.786	-5.553133	5.108271E-008	0.0076956	7
	12	18	63140.62	3513.266	-330.7814	1	3528.804	-5.378662	5.188283E-008	0.0076916	7
	13	19	50203.12	3539.777	-329.6795	1	3555.096	-5.32093	4.359188E-009	0.0077613	7
	14	21	39890.62	3568.322	-337.7151	1	3584.268	-5.406515	-2.161469E-008	0.0077633	7
	15	22	31640.63	3598.121	-354.346	1	3615.527	-5.624401	-5.492859E-008	0.0078754	7
	16	23	25171.88	3629.071	-378.6973	1	3648.776	-5.957313	8.125292E-009	0.0078553	7
	17	24	20015.62	3664.64	-414.9917	1	3688.062	-6.460774	3.568379E-008	0.0076583	7
	18	26	15890.62	3700.305	-457.3804	1	3728.465	-7.046369	1.320725E-008	0.0077077	7
	19	27	12609.37	3740.044	-512.8663	1	3775.045	-7.80818	3.461486E-008	0.0077374	7
	20	28	10078.13	3782.705	-578.782	1	3826.728	-8.699213	8.174162E-008	0.0077032	7
	21	30	8015.625	3821.825	-660.658	1	3878.507	-9.80748	-3.759128E-009	0.0077307	7
	22	31	6328.125	3880.696	-763.1044	1	3955.013	-11.12477	-3.352815E-009	0.0077328	7
	23	32	5015.625	3935.723	-888.2145	1	4034.705	-12.71747	8.192755E-008	0.0076952	7
	24	34	3984.375	3994.75	-1025.203	1	4124.206	-14.39361	6.564877E-008	0.0076308	7
	25	35	3170.956	4060.908	-1223.885	1	4241.329	-16.77187	3.975306E-008	0.0076543	7
	26	36	2527.573	4134.468	-1448.267	1	4380.788	-19.3049	5.370028E-008	0.0076846	7
	27	38	1976.103	4222.985	-1749.581	1	4571.065	-22.50421	8.291051E-008	0.0076998	7
	28	39	1577.524	4327.482	-2122.723	1	4820.068	-26.12894	-3.173793E-008	0.0078396	7
	29	40	1265.625	4420.388	-2485.678	1	5071.333	-29.34997	-6.178733E-008	0.0079523	7
	30	42	998.264	4545.483	-3011.63	1	5452.645	-33.52664	-4.124772E-008	0.0078179	7
	31	43	796.875	4686.97	-3626.842	1	5926.354	-37.7332	-1.983478E-008	0.0077585	7
	32	45	627.7902	4851.484	-4426.989	1	6567.734	-42.38051	-3.248977E-009	0.0077322	7
	33	46	505.5147	5023.448	-5327.656	1	7322.497	-46.68338	-6.201239E-008	0.0079557	7
	34	47	397.9953	5249.014	-6549.249	1	8393.141	-51.28894	5.009052E-009	0.0077999	7
	35	49	315.5048	5511.192	-8023.583	1	9734.02	-55.51583	4.038607E-009	0.0077956	7
	36	50	252.4038	5821.231	-9772.7	1	11375.08	-59.21933	1.227541E-010	0.0077346	6
	37	51	198.6229	6232.608	-12098.88	1	13609.86	-62.74522	7.818701E-010	0.0077311	6
	38	53	158.3615	6726.733	-14812.64	1	16268.47	-65.57619	1.469739E-009	0.0077307	6
	39	54	125.558	7378.222	-18240.12	1	19675.88	-67.97642	7.073227E-010	0.007731	6
	40	55	100.4464	8197.761	-22258.63	1	23720.24	-69.78146	3.050539E-010	0.0077309	6
	41	57	79.00281	9318.655	-27553.4	1	29086.54	-71.31429	7.49393E-010	0.00773	6
	42	58	63.3446	10670.25	-33943.54	1	35581.15	-72.5493	9.723895E-010	0.0077261	6
	43	60	49.86702	12445.64	-41407.37	1	43237.31	-73.27102	1.093967E-009	0.0077231	6
	44	61	39.72458	15100.35	-50747.23	1	52946.22	-73.42909	1.182846E-009	0.007731	6
	45	62	31.6723	18277.86	-61865.3	1	64508.88	-73.54043	1.349356E-009	0.0077286	6
	46	64	24.93351	22849.38	-75642.63	1	79018.37	-73.192	6.50234E-010	0.0077326	6
	47	65	19.86229	28660.14	-91684.73	1	96059.8	-72.64104	8.677455E-010	0.0077348	6
	48	67	15.83615	36524.41	-109670.9	1	115593	-71.58037	-2.35417E-010	0.0077334	5
	49	68	12.40079	45603.86	-134487.6	1	142009.3	-71.26855	7.788995E-010	0.0077331	5
	50	69	9.93114	58427.72	-159994.2	1	170329	-69.93849	6.532301E-010	0.0077318	5
	51	71	7.944915	73033.5	-189972.9	1	203527.9	-68.97116	3.538628E-010	0.0077333	5
	52	73	6.317385	92868.43	-223521.9	1	242046.7	-67.43819	6.647175E-010	0.0077327	5
	53	75	5.008013	117178.9	-263556.3	1	288431.7	-66.02975	4.316711E-010	0.0077446	5
	54	77	3.945707	147194.5	-309898.3	1	343079	-64.59337	-1.015537E-010	0.0077316	5
	55	80	3.158693	181503.1	-357598.4	1	401023.7	-63.08941	2.3684E-010	0.007753	5
	56	83	2.504006	222507.7	-414358.1	1	470321.5	-61.76448	-3.609723E-011	0.00773	5
	57	86	1.998082	268088.7	-474793.9	1	545252.9	-60.5491	-9.231295E-011	0.00775	5
	58	89	1.584686	322196.1	-545277.2	1	633354.2	-59.42179	2.065698E-010	0.0077799	5
	59	93	1.266892	379706.6	-620512.8	1	727470.4	-58.53654	-1.028225E-010	0.0077609	5
	60	97	0.999041	447129.5	-712229.8	1	840949.5	-57.87988	2.412837E-010	0.0077289	5
