EXPLAIN
TAG	EISPOT
TITLE	LABEL	Potentiostatic EIS	Test &Identifier
DATE	LABEL	8/16/2017	Date
TIME	LABEL	17:00:06	Time
NOTES	NOTES	1	&Notes...
	
PSTAT	PSTAT	REF600-11020	Potentiostat
VDC	POTEN	0.00000E+000	T	DC &Voltage (V)
FREQINIT	QUANT	1.00000E+006	Initial Fre&q. (Hz)
FREQFINAL	QUANT	1.00000E+000	Final Fre&q. (Hz)
PTSPERDEC	QUANT	1.00000E+001	Points/&decade
VAC	QUANT	2.50000E+001	AC &Voltage (mV rms)
AREA	QUANT	1.00000E-002	&Area (cm^2)
CONDIT	TWOPARAM	T	5.00000E+000	0.00000E+000	Conditionin&g	Time(s)	E(V)
DELAY	TWOPARAM	T	5.00000E+000	0.00000E+000	Init. De&lay	Time(s)	Stab.(mV/s)
SPEED	SELECTOR	0	&Optimize for:
ZGUESS	QUANT	1.00000E+005	E&stimated Z (ohms)
OCVCURVE	TABLE	19
	Pt	T	Vf	Vm	Ach	Over
	#	s	V vs. Ref.	V	V	bits
	0	0.258333	8.82624E-003	8.82624E-003	5.75732E-004	...........
	1	0.516667	8.81336E-003	8.15190E-003	5.79465E-004	...........
	2	0.775	8.74680E-003	8.16941E-003	5.79866E-004	...........
	3	1.03333	8.59839E-003	8.09166E-003	5.78432E-004	...........
	4	1.29167	8.40395E-003	7.92305E-003	5.71166E-004	...........
	5	1.55	8.22614E-003	8.02442E-003	5.69866E-004	...........
	6	1.80833	8.10989E-003	8.58828E-003	5.76999E-004	...........
	7	2.06667	8.10787E-003	9.17854E-003	5.70266E-004	...........
	8	2.325	8.27974E-003	9.77097E-003	5.73266E-004	...........
	9	2.58333	8.63326E-003	1.00835E-002	5.76366E-004	...........
	10	2.84167	9.08376E-003	9.63227E-003	5.77566E-004	...........
	11	3.1	9.48219E-003	9.83278E-003	5.74299E-004	...........
	12	3.35833	9.71220E-003	9.39090E-003	5.77499E-004	...........
	13	3.61667	9.75994E-003	9.44324E-003	5.77232E-004	...........
	14	3.875	9.68685E-003	9.41642E-003	5.75265E-004	...........
	15	4.13333	9.57181E-003	9.27415E-003	5.70199E-004	...........
	16	4.39167	9.46704E-003	9.25559E-003	5.70166E-004	...........
	17	4.65	9.38553E-003	9.31068E-003	5.72332E-004	...........
	18	4.90833	9.33318E-003	9.54548E-003	5.66999E-004	...........
EOC	QUANT	0.0093332	Open Circuit (V)
PSTATMODEL	IQUANT	4	Pstat Model
PSTATSECTION	LABEL	REF600-11020	Pstat Section
PSTATSERIALNO	LABEL	11020	Pstat Serial Number
CTRLMODE	IQUANT	1	Control Mode
IESTAB	IQUANT	0	I/E Stability
CASPEED	IQUANT	1	Control Amp Speed
CONVENTION	IQUANT	1	Current Convention
ICHRANGE	IQUANT	2	Ich Range
ICHRANGEMODE	TOGGLE	F	Ich Auto Range
ICHOFFSETENABLE	TOGGLE	T	Ich Offset Enable
ICHOFFSET	QUANT	0	Ich Offset (V)
ICHFILTER	IQUANT	3	Ich Filter
VCHRANGE	IQUANT	2	Vch Range
VCHRANGEMODE	TOGGLE	F	Vch Auto Range
VCHOFFSETENABLE	TOGGLE	T	Vch Offset Enable
VCHOFFSET	QUANT	0	Vch Offset (V)
VCHFILTER	IQUANT	3	Vch Filter
ACHRANGE	IQUANT	2	Ach Range
ACHOFFSETENABLE	TOGGLE	F	Ach Offset Enable
ACHOFFSET	QUANT	0	Ach Offset (V)
ACHFILTER	IQUANT	3	Ach Filter
IERANGELOWERLIMIT	IQUANT	1	I/E Range Lower Limit
IERANGEMODE	TOGGLE	F	I/E AutoRange
IERANGE	IQUANT	5	I/E Range
POSFEEDENABLE	TOGGLE	F	Positive Feedback IR Comp
POSFEEDRESISTANCE	QUANT	0	Positive Feedback Resistance (ohm)
ACHSELECT	IQUANT	0	Ach Select
CABLEID	IQUANT	14	Cable ID
DCCALDATE	LABEL	8/19/2019	DC Calibration Date
ACCALDATE	LABEL	8/19/2019	AC Calibration Date
THERMOSELECT	IQUANT	1	Thermo Select
FRAMEWORKVERSION	QUANT	6.33	Framework Version
INSTRUMENTVERSION	LABEL	3.50	Instrument Version
ZCURVE	TABLE
	Pt	Time	Freq	Zreal	Zimag	Zsig	Zmod	Zphz	Idc	Vdc	IERange
	#	s	Hz	ohm	ohm	V	ohm	°	A	V	#
	0	1	1000078	1892.891	-916.682	1	2103.175	-25.8398	-6.766754E-006	0.0120007	8
	1	1	794390.6	2053.475	-854.4678	1	2224.157	-22.5926	1.930325E-006	0.0117631	8
	2	2	630984.4	2179.542	-783.0217	1	2315.928	-19.76132	7.716619E-006	0.010157	8
	3	2	501234.4	2287.338	-710.3339	1	2395.097	-17.25221	-5.115845E-006	0.0115292	8
	4	2	398109.4	2374.285	-647.9961	1	2461.124	-15.26553	-1.512248E-006	0.0109786	8
	5	2	316265.6	2444.284	-594.7868	1	2515.61	-13.67643	-2.539065E-006	0.0107629	8
	6	3	251203.1	2515.149	-548.1259	1	2574.183	-12.29423	-1.264594E-009	0.010533	8
	7	3	199546.9	2569.615	-512.4877	1	2620.222	-11.27916	7.062256E-007	0.0112052	8
	8	3	158578.1	2623.023	-490.404	1	2668.473	-10.58984	-2.513229E-006	0.0107559	8
	9	4	125953.1	2691.466	-431.9177	1	2725.902	-9.116907	-3.604193E-007	0.0088883	7
	10	4	100078.1	2732.137	-430.326	1	2765.818	-8.950854	-8.180232E-007	0.0123464	7
	11	4	79453.13	2787.128	-440.3824	1	2821.705	-8.978834	8.894829E-007	0.0092522	7
	12	5	63140.62	2837.072	-458.5504	1	2873.891	-9.181204	9.317698E-007	0.0101251	7
	13	5	50203.12	2891.459	-480.9321	1	2931.182	-9.44347	9.894105E-007	0.0094415	7
	14	5	39890.62	2948.228	-508.5352	1	2991.765	-9.78656	7.025778E-007	0.0091794	7
	15	6	31640.63	3010.995	-541.6439	1	3059.325	-10.19779	8.910035E-007	0.0092479	7
	16	6	25171.88	3071.253	-579.0104	1	3125.356	-10.67642	-1.140702E-006	0.0121569	7
	17	6	20015.62	3143.189	-626.8038	1	3205.077	-11.27778	9.941143E-007	0.0094447	7
	18	7	15890.62	3212.859	-677.5825	1	3283.532	-11.909	-5.614632E-007	0.0122528	7
	19	7	12609.37	3290.325	-740.3872	1	3372.597	-12.68145	-5.62915E-007	0.0122501	7
	20	7	10078.13	3369.262	-818.4291	1	3467.24	-13.65331	-2.566202E-007	0.0120192	7
	21	8	8015.625	3457.905	-897.4129	1	3572.458	-14.54872	5.773748E-007	0.0109399	7
	22	8	6328.125	3545.281	-1001.819	1	3684.109	-15.77913	5.771138E-007	0.0109363	7
	23	8	5015.625	3637.582	-1126.38	1	3807.983	-17.20518	8.921442E-007	0.0092391	7
	24	8	3984.375	3726.133	-1276.1	1	3938.591	-18.90495	3.789899E-007	0.0112323	7
	25	9	3170.956	3820.896	-1457.522	1	4089.452	-20.8799	1.012481E-006	0.0097243	7
	26	9	2527.573	3909.321	-1676.804	1	4253.758	-23.21569	-8.194671E-007	0.0123299	7
	27	9	1976.103	4013.08	-1985.384	1	4477.339	-26.3229	-1.010964E-006	0.0122757	7
	28	10	1577.524	4120.035	-2331.392	1	4733.928	-29.50409	-1.009162E-006	0.0122774	7
	29	10	1265.625	4220.333	-2767.163	1	5046.623	-33.25182	-2.564076E-007	0.0120108	7
	30	10	998.264	4350.848	-3352.317	1	5492.532	-37.61416	7.651868E-007	0.0105636	7
	31	11	796.875	4488.001	-4028.551	1	6030.869	-41.912	-6.738254E-007	0.0106401	7
	32	11	627.7902	4657.952	-4939.203	1	6789.127	-46.67861	7.676056E-007	0.0105597	7
	33	11	505.5147	4858.223	-5922.471	1	7660.156	-50.63785	-1.009321E-006	0.0122749	7
	34	12	397.9953	5114.229	-7310.717	1	8921.991	-55.0252	1.106261E-009	0.0108067	7
	35	12	315.5048	5430.974	-8961.583	1	10478.81	-58.78294	1.930514E-010	0.0107429	6
	36	12	252.4038	5805.633	-10914.6	1	12362.6	-61.99084	7.50761E-010	0.0107509	6
	37	13	198.6229	6316.271	-13495.41	1	14900.38	-64.91895	6.867459E-010	0.0107439	6
	38	13	158.3615	6930.981	-16492.98	1	17890.13	-67.20599	9.341676E-010	0.0107342	6
	39	13	125.558	7741.445	-20257.2	1	21686.04	-69.08526	3.149058E-010	0.0107333	6
	40	14	100.4464	8760.763	-24635.55	1	26146.91	-70.42387	6.745033E-010	0.0107373	6
	41	14	79.00281	10183.84	-30538.06	1	32191.36	-71.55748	-1.03058E-010	0.0107382	6
	42	14	63.3446	11528.24	-36620.63	1	38392.33	-72.52591	1.289077E-011	0.0107442	6
	43	15	49.86702	14013.82	-45184.12	1	47307.42	-72.76877	3.126179E-010	0.0107336	6
	44	15	39.72458	17036.43	-55253.91	1	57820.71	-72.86391	-3.060172E-010	0.0107394	6
	45	16	31.6723	20967.68	-67133.8	1	70332.01	-72.65502	-5.488741E-010	0.0107364	6
	46	16	24.93351	26247.73	-81761.37	1	85871.21	-72.20189	-3.032319E-010	0.0107366	6
	47	16	19.86229	32618.94	-98442.3	1	103705.7	-71.66734	-3.683489E-010	0.010737	6
	48	16	15.83615	42594.99	-118907.9	1	126306.9	-70.29155	2.256823E-009	0.0107424	5
	49	17	12.40079	54462.86	-143239.5	1	153244.1	-69.18207	-1.349174E-009	0.0107487	5
	50	17	9.93114	66814.72	-169489.1	1	182183.3	-68.48502	3.57217E-010	0.010741	5
	51	18	7.944915	83732.38	-198826.9	1	215738.9	-67.16248	4.242475E-011	0.0107376	5
	52	18	6.317385	105275.4	-233662.8	1	256283.5	-65.74635	-1.228788E-010	0.0107317	5
	53	19	5.008013	131701.5	-272772.5	1	302902.8	-64.22756	4.675912E-011	0.0107447	5
	54	20	3.945707	163228.8	-317179.6	1	356716.3	-62.76847	-1.34277E-010	0.0107255	5
	55	22	3.158693	197986.4	-364597.8	1	414885.7	-61.49685	-7.662868E-011	0.01072	5
	56	23	2.504006	238970.8	-419820.1	1	483069.3	-60.35052	7.00237E-011	0.0107256	5
	57	24	1.998082	283461.5	-478891.1	1	556495.4	-59.37819	-1.252735E-010	0.0106927	5
	58	26	1.584686	334147.7	-550351.3	1	643848.7	-58.73582	-1.133755E-010	0.0106873	5
	59	28	1.266892	386564.6	-626620.6	1	736264.6	-58.32941	-1.334541E-010	0.0107216	5
	60	30	0.999041	450219.3	-721811.8	1	850711.3	-58.04677	-6.805546E-011	0.0107482	5
