EXPLAIN
TAG	EISPOT
TITLE	LABEL	Potentiostatic EIS	Test &Identifier
DATE	LABEL	9/24/2019	Date
TIME	LABEL	10:02:21	Time
NOTES	NOTES	1	&Notes...
	
PSTAT	PSTAT	REF600-11020	Potentiostat
VDC	POTEN	0.00000E+000	T	DC &Voltage (V)
FREQINIT	QUANT	1.00000E+006	Initial Fre&q. (Hz)
FREQFINAL	QUANT	1.00000E+000	Final Fre&q. (Hz)
PTSPERDEC	QUANT	1.00000E+001	Points/&decade
VAC	QUANT	2.50000E+001	AC &Voltage (mV rms)
AREA	QUANT	1.00000E-002	&Area (cm^2)
CONDIT	TWOPARAM	T	5.00000E+000	0.00000E+000	Conditionin&g	Time(s)	E(V)
DELAY	TWOPARAM	T	5.00000E+000	0.00000E+000	Init. De&lay	Time(s)	Stab.(mV/s)
SPEED	SELECTOR	1	&Optimize for:
ZGUESS	QUANT	1.00000E+004	E&stimated Z (ohms)
OCVCURVE	TABLE	19
	Pt	T	Vf	Vm	Ach	Over
	#	s	V vs. Ref.	V	V	bits
	0	0.258333	-1.07365E-002	-1.07365E-002	5.69399E-004	...........
	1	0.516667	-1.07635E-002	-1.21483E-002	5.72099E-004	...........
	2	0.775	-1.09282E-002	-1.34376E-002	5.71332E-004	...........
	3	1.03333	-1.13901E-002	-1.46290E-002	5.72266E-004	...........
	4	1.29167	-1.22058E-002	-1.57314E-002	5.69232E-004	...........
	5	1.55	-1.32713E-002	-1.67607E-002	5.73299E-004	...........
	6	1.80833	-1.44262E-002	-1.77256E-002	5.70732E-004	...........
	7	2.06667	-1.55579E-002	-1.86411E-002	5.70399E-004	...........
	8	2.325	-1.66204E-002	-1.94992E-002	5.63532E-004	...........
	9	2.58333	-1.76086E-002	-2.03088E-002	5.71632E-004	...........
	10	2.84167	-1.85315E-002	-2.10843E-002	5.73499E-004	...........
	11	3.1	-1.93988E-002	-2.18187E-002	5.72866E-004	...........
	12	3.35833	-2.02186E-002	-2.25197E-002	5.79199E-004	...........
	13	3.61667	-2.09965E-002	-2.31919E-002	5.76199E-004	...........
	14	3.875	-2.17369E-002	-2.38298E-002	5.75732E-004	...........
	15	4.13333	-2.24428E-002	-2.44467E-002	5.77099E-004	...........
	16	4.39167	-2.31174E-002	-2.50530E-002	5.71266E-004	...........
	17	4.65	-2.37639E-002	-2.56120E-002	5.71399E-004	...........
	18	4.90833	-2.43850E-002	-2.61621E-002	5.74932E-004	...........
EOC	QUANT	-0.024385	Open Circuit (V)
PSTATMODEL	IQUANT	4	Pstat Model
PSTATSECTION	LABEL	REF600-11020	Pstat Section
PSTATSERIALNO	LABEL	11020	Pstat Serial Number
CTRLMODE	IQUANT	1	Control Mode
IESTAB	IQUANT	0	I/E Stability
CASPEED	IQUANT	1	Control Amp Speed
CONVENTION	IQUANT	1	Current Convention
ICHRANGE	IQUANT	2	Ich Range
ICHRANGEMODE	TOGGLE	F	Ich Auto Range
ICHOFFSETENABLE	TOGGLE	T	Ich Offset Enable
ICHOFFSET	QUANT	0	Ich Offset (V)
ICHFILTER	IQUANT	3	Ich Filter
VCHRANGE	IQUANT	2	Vch Range
VCHRANGEMODE	TOGGLE	F	Vch Auto Range
VCHOFFSETENABLE	TOGGLE	T	Vch Offset Enable
VCHOFFSET	QUANT	0	Vch Offset (V)
VCHFILTER	IQUANT	3	Vch Filter
ACHRANGE	IQUANT	2	Ach Range
ACHOFFSETENABLE	TOGGLE	F	Ach Offset Enable
ACHOFFSET	QUANT	0	Ach Offset (V)
ACHFILTER	IQUANT	3	Ach Filter
IERANGELOWERLIMIT	IQUANT	1	I/E Range Lower Limit
IERANGEMODE	TOGGLE	F	I/E AutoRange
IERANGE	IQUANT	6	I/E Range
POSFEEDENABLE	TOGGLE	F	Positive Feedback IR Comp
POSFEEDRESISTANCE	QUANT	0	Positive Feedback Resistance (ohm)
ACHSELECT	IQUANT	0	Ach Select
CABLEID	IQUANT	14	Cable ID
DCCALDATE	LABEL	8/19/2019	DC Calibration Date
ACCALDATE	LABEL	8/19/2019	AC Calibration Date
THERMOSELECT	IQUANT	1	Thermo Select
FRAMEWORKVERSION	QUANT	6.33	Framework Version
INSTRUMENTVERSION	LABEL	3.50	Instrument Version
ZCURVE	TABLE
	Pt	Time	Freq	Zreal	Zimag	Zsig	Zmod	Zphz	Idc	Vdc	IERange
	#	s	Hz	ohm	ohm	V	ohm	°	A	V	#
	0	1	1000078	2028.272	-1467.081	1	2503.24	-35.87881	-7.521612E-007	-0.0223108	8
	1	3	794390.6	2325.569	-1430.435	1	2730.277	-31.59528	6.845228E-007	-0.0224913	8
	2	4	630984.4	2598.217	-1357.252	1	2931.359	-27.58159	-3.289484E-006	-0.022	8
	3	5	501234.4	2823.56	-1268.524	1	3095.423	-24.19266	1.012357E-006	-0.0229726	8
	4	7	398109.4	3032.885	-1158.24	1	3246.523	-20.90155	1.572516E-006	-0.0233526	8
	5	8	316265.6	3194.086	-1046.011	1	3361.001	-18.13277	-1.694977E-007	-0.0229267	8
	6	9	251203.1	3320.575	-919.8672	1	3445.631	-15.48382	-7.078979E-007	-0.0226403	8
	7	11	199546.9	3419.792	-819.8613	1	3516.696	-13.48165	2.635021E-006	-0.02353	8
	8	12	158578.1	3491.904	-723.2664	1	3566.021	-11.70201	2.820931E-007	-0.0228279	8
	9	13	125953.1	3595.297	-628.9171	1	3649.89	-9.92223	-3.592198E-007	-0.0222807	7
	10	15	100078.1	3648.636	-577.6255	1	3694.075	-8.995992	6.536749E-008	-0.0230825	7
	11	16	79453.13	3703.749	-549.5208	1	3744.293	-8.43934	-2.579181E-008	-0.0229872	7
	12	18	63140.62	3753.188	-533.1376	1	3790.865	-8.084735	1.119191E-007	-0.0231496	7
	13	19	50203.12	3803.987	-527.9389	1	3840.447	-7.901361	-3.265056E-008	-0.0229755	7
	14	20	39890.62	3853.752	-534.3367	1	3890.619	-7.893938	8.144154E-008	-0.0230356	7
	15	22	31640.63	3906.021	-552.4514	1	3944.896	-8.05028	-4.979036E-008	-0.0229361	7
	16	23	25171.88	3959.796	-580.3781	1	4002.103	-8.338338	-5.17344E-008	-0.0229069	7
	17	24	20015.62	4020.266	-622.1337	1	4068.119	-8.796709	6.768892E-009	-0.0230627	7
	18	26	15890.62	4083.04	-675.8818	1	4138.602	-9.399167	-2.710605E-008	-0.022907	7
	19	27	12609.37	4155.708	-742.8479	1	4221.579	-10.13479	-3.407264E-008	-0.0229843	7
	20	28	10078.13	4232.142	-819.4934	1	4310.753	-10.95888	-5.296739E-008	-0.0229114	7
	21	30	8015.625	4318.548	-912.8765	1	4413.978	-11.93576	2.820496E-010	-0.0229693	7
	22	31	6328.125	4419.877	-1029.244	1	4538.134	-13.10869	9.523927E-009	-0.0230726	7
	23	33	5015.625	4531.771	-1161.057	1	4678.141	-14.3703	1.273062E-008	-0.0229151	7
	24	34	3984.375	4656.339	-1311.924	1	4837.627	-15.73519	-4.243313E-008	-0.0229456	7
	25	35	3170.956	4798.384	-1489.755	1	5024.327	-17.24801	-4.337544E-008	-0.0228418	7
	26	37	2527.573	4960.613	-1688.456	1	5240.092	-18.79716	-5.039047E-008	-0.0229468	7
	27	38	1976.103	5157.305	-1934.064	1	5508.031	-20.55677	1.020528E-008	-0.023069	7
	28	39	1577.524	5368.49	-2192.757	1	5799.041	-22.21753	1.789214E-010	-0.0229664	7
	29	41	1265.625	5587.405	-2477.3	1	6111.964	-23.91117	-4.344108E-008	-0.0228398	7
	30	42	998.264	5848.581	-2820.507	1	6493.163	-25.74591	4.248677E-008	-0.0230501	7
	31	43	796.875	6111.717	-3191.003	1	6894.606	-27.56962	4.338383E-008	-0.0230462	7
	32	45	627.7902	6401.035	-3654.741	1	7370.915	-29.72468	1.13273E-007	-0.0231511	7
	33	46	505.5147	6661.075	-4158.728	1	7852.703	-31.97789	-2.79332E-008	-0.0229125	7
	34	48	397.9953	6950.743	-4835.75	1	8467.427	-34.82699	6.624717E-009	-0.0229672	7
	35	49	315.5048	7230.505	-5662.573	1	9183.95	-38.06628	6.999635E-009	-0.0229704	7
	36	50	252.4038	7507.761	-6657.861	1	10034.62	-41.56652	9.308516E-010	-0.0230344	6
	37	52	198.6229	7827.169	-8008.571	1	11198.29	-45.65631	1.270951E-009	-0.0230328	6
	38	53	158.3615	8162.988	-9612.49	1	12610.88	-49.66186	1.122553E-009	-0.0230382	6
	39	54	125.558	8571.048	-11669.83	1	14479.22	-53.70413	1.306202E-009	-0.0230348	6
	40	56	100.4464	9050.014	-14117.79	1	16769.46	-57.33867	2.147717E-009	-0.0230381	6
	41	57	79.00281	9661.98	-17421.95	1	19921.8	-60.98783	2.331138E-009	-0.0230408	6
	42	59	63.3446	10286.12	-21037.06	1	23417.14	-63.94357	1.433414E-009	-0.0230364	6
	43	60	49.86702	11549.74	-26140.34	1	28578.21	-66.16244	1.965568E-009	-0.0230385	6
	44	61	39.72458	12697.57	-31865.15	1	34301.84	-68.27379	1.426434E-009	-0.0230301	6
	45	63	31.6723	14341.2	-38898.27	1	41457.75	-69.76184	1.593585E-009	-0.0230345	6
	46	64	24.93351	16551.66	-47852.15	1	50633.84	-70.91992	1.652164E-009	-0.0230368	6
	47	65	19.86229	19233.02	-58242.46	1	61335.9	-71.72557	1.755771E-009	-0.0230264	6
	48	67	15.83615	22278.84	-70483.83	1	73921.02	-72.45906	2.610351E-009	-0.0230378	6
	49	68	12.40079	27610.21	-86892.82	1	91173.93	-72.37234	7.624171E-010	-0.0230339	6
	50	70	9.93114	32965.79	-104814.9	1	109876.8	-72.54089	9.307481E-010	-0.0230308	5
	51	71	7.944915	39951.23	-125935.8	1	132120.9	-72.39915	4.07581E-010	-0.0230317	5
	52	73	6.317385	48692.16	-152239.9	1	159837.1	-72.26373	8.298855E-010	-0.0230436	5
	53	75	5.008013	59950.5	-183838.5	1	193366.7	-71.93864	6.963903E-010	-0.0230376	5
	54	77	3.945707	74282.65	-222659.3	1	234723.4	-71.55049	8.60628E-010	-0.0230274	5
	55	80	3.158693	90731.73	-265508.4	1	280583.3	-71.13326	6.436062E-010	-0.0230466	5
	56	83	2.504006	112058.4	-318674.3	1	337802.3	-70.62634	9.886099E-010	-0.0230268	5
	57	86	1.998082	137034.1	-379811.5	1	403776.1	-70.16081	9.153883E-010	-0.0229996	5
	58	89	1.584686	169395	-451661.1	1	482382	-69.44151	8.186657E-010	-0.0230524	5
	59	93	1.266892	207326.5	-536855.2	1	575497.8	-68.88409	7.798336E-010	-0.0230013	5
	60	97	0.999041	257661.3	-641239.6	1	691069.9	-68.10888	6.224972E-010	-0.0230711	5
