EXPLAIN
TAG	EISPOT
TITLE	LABEL	Potentiostatic EIS	Test &Identifier
DATE	LABEL	9/24/2019	Date
TIME	LABEL	9:41:48	Time
NOTES	NOTES	1	&Notes...
	
PSTAT	PSTAT	REF600-11020	Potentiostat
VDC	POTEN	0.00000E+000	T	DC &Voltage (V)
FREQINIT	QUANT	1.00000E+006	Initial Fre&q. (Hz)
FREQFINAL	QUANT	1.00000E+000	Final Fre&q. (Hz)
PTSPERDEC	QUANT	1.00000E+001	Points/&decade
VAC	QUANT	2.50000E+001	AC &Voltage (mV rms)
AREA	QUANT	1.00000E-002	&Area (cm^2)
CONDIT	TWOPARAM	T	5.00000E+000	0.00000E+000	Conditionin&g	Time(s)	E(V)
DELAY	TWOPARAM	T	5.00000E+000	0.00000E+000	Init. De&lay	Time(s)	Stab.(mV/s)
SPEED	SELECTOR	1	&Optimize for:
ZGUESS	QUANT	1.00000E+004	E&stimated Z (ohms)
OCVCURVE	TABLE	19
	Pt	T	Vf	Vm	Ach	Over
	#	s	V vs. Ref.	V	V	bits
	0	0.258333	-4.18158E-003	-4.18158E-003	4.87267E-004	...........
	1	0.516667	-4.19486E-003	-4.87664E-003	4.82634E-004	...........
	2	0.775	-4.27595E-003	-5.51217E-003	4.79200E-004	...........
	3	1.03333	-4.50367E-003	-6.11181E-003	4.82734E-004	...........
	4	1.29167	-4.90716E-003	-6.67601E-003	4.88900E-004	...........
	5	1.55	-5.43749E-003	-7.21014E-003	4.84634E-004	...........
	6	1.80833	-6.01790E-003	-7.71395E-003	4.87267E-004	...........
	7	2.06667	-6.59344E-003	-8.19135E-003	4.85134E-004	...........
	8	2.325	-7.14029E-003	-8.65254E-003	4.88500E-004	...........
	9	2.58333	-7.65470E-003	-9.09605E-003	4.88033E-004	...........
	10	2.84167	-8.14090E-003	-9.51307E-003	4.81634E-004	...........
	11	3.1	-8.60368E-003	-9.92077E-003	4.85200E-004	...........
	12	3.35833	-9.04588E-003	-1.02977E-002	4.85267E-004	...........
	13	3.61667	-9.46883E-003	-1.06793E-002	4.86567E-004	...........
	14	3.875	-9.87383E-003	-1.10321E-002	4.86400E-004	...........
	15	4.13333	-1.02625E-002	-1.13766E-002	4.78534E-004	...........
	16	4.39167	-1.06363E-002	-1.17237E-002	4.85700E-004	...........
	17	4.65	-1.09970E-002	-1.20395E-002	4.86434E-004	...........
	18	4.90833	-1.13459E-002	-1.23638E-002	4.77400E-004	...........
EOC	QUANT	-0.0113459	Open Circuit (V)
PSTATMODEL	IQUANT	4	Pstat Model
PSTATSECTION	LABEL	REF600-11020	Pstat Section
PSTATSERIALNO	LABEL	11020	Pstat Serial Number
CTRLMODE	IQUANT	1	Control Mode
IESTAB	IQUANT	0	I/E Stability
CASPEED	IQUANT	1	Control Amp Speed
CONVENTION	IQUANT	1	Current Convention
ICHRANGE	IQUANT	2	Ich Range
ICHRANGEMODE	TOGGLE	F	Ich Auto Range
ICHOFFSETENABLE	TOGGLE	T	Ich Offset Enable
ICHOFFSET	QUANT	0	Ich Offset (V)
ICHFILTER	IQUANT	3	Ich Filter
VCHRANGE	IQUANT	2	Vch Range
VCHRANGEMODE	TOGGLE	F	Vch Auto Range
VCHOFFSETENABLE	TOGGLE	T	Vch Offset Enable
VCHOFFSET	QUANT	0	Vch Offset (V)
VCHFILTER	IQUANT	3	Vch Filter
ACHRANGE	IQUANT	2	Ach Range
ACHOFFSETENABLE	TOGGLE	F	Ach Offset Enable
ACHOFFSET	QUANT	0	Ach Offset (V)
ACHFILTER	IQUANT	3	Ach Filter
IERANGELOWERLIMIT	IQUANT	1	I/E Range Lower Limit
IERANGEMODE	TOGGLE	F	I/E AutoRange
IERANGE	IQUANT	6	I/E Range
POSFEEDENABLE	TOGGLE	F	Positive Feedback IR Comp
POSFEEDRESISTANCE	QUANT	0	Positive Feedback Resistance (ohm)
ACHSELECT	IQUANT	0	Ach Select
CABLEID	IQUANT	14	Cable ID
DCCALDATE	LABEL	8/19/2019	DC Calibration Date
ACCALDATE	LABEL	8/19/2019	AC Calibration Date
THERMOSELECT	IQUANT	1	Thermo Select
FRAMEWORKVERSION	QUANT	6.33	Framework Version
INSTRUMENTVERSION	LABEL	3.50	Instrument Version
ZCURVE	TABLE
	Pt	Time	Freq	Zreal	Zimag	Zsig	Zmod	Zphz	Idc	Vdc	IERange
	#	s	Hz	ohm	ohm	V	ohm	°	A	V	#
	0	2	1000078	2191.552	-2041.363	1	2995.006	-42.96793	-4.135947E-006	-0.0089579	8
	1	3	794390.6	2616.581	-2049.555	1	3323.728	-38.07142	1.423193E-006	-0.0095949	8
	2	5	630984.4	3032.483	-1993.922	1	3629.281	-33.32576	-7.608647E-007	-0.009433	8
	3	6	501234.4	3447.151	-1856.597	1	3915.329	-28.30641	3.177018E-006	-0.0103048	8
	4	8	398109.4	3749.741	-1708.484	1	4120.616	-24.4953	1.467803E-008	-0.0096357	8
	5	9	316265.6	4041.883	-1516.904	1	4317.153	-20.57093	-2.68164E-006	-0.0091829	8
	6	10	251203.1	4253.779	-1325.213	1	4455.427	-17.30379	-8.91342E-007	-0.0094897	8
	7	12	199546.9	4399.336	-1146.103	1	4546.176	-14.60197	-6.321585E-007	-0.0095846	8
	8	13	158578.1	4536.03	-989.185	1	4642.635	-12.30206	1.76941E-006	-0.010148	8
	9	15	125953.1	4643.025	-813.5588	1	4713.763	-9.93857	-8.121305E-008	-0.0097818	7
	10	16	100078.1	4697.67	-707.9023	1	4750.708	-8.56955	-4.722597E-008	-0.0096679	7
	11	17	79453.13	4755.819	-635.6036	1	4798.105	-7.612331	-3.081277E-008	-0.0096719	7
	12	19	63140.62	4803.734	-580.4105	1	4838.671	-6.889359	-5.627876E-008	-0.0096424	7
	13	20	50203.12	4846.458	-542.4639	1	4876.723	-6.386532	-4.07751E-008	-0.0097179	7
	14	21	39890.62	4886.865	-519.8928	1	4914.441	-6.072613	-3.064872E-008	-0.0096769	7
	15	23	31640.63	4927.623	-515.2176	1	4954.485	-5.968988	-3.553844E-008	-0.0096439	7
	16	24	25171.88	4965.181	-518.168	1	4992.146	-5.957841	-3.858262E-008	-0.0097236	7
	17	25	20015.62	5010.287	-541.7725	1	5039.493	-6.17153	-3.381007E-008	-0.0096439	7
	18	27	15890.62	5056.247	-573.4617	1	5088.663	-6.470635	7.930377E-008	-0.0099102	7
	19	28	12609.37	5102.419	-619.4205	1	5139.879	-6.92169	1.32979E-008	-0.0098306	7
	20	30	10078.13	5150.29	-682.4861	1	5195.313	-7.548521	-3.247396E-008	-0.009747	7
	21	31	8015.625	5204.948	-762.3699	1	5260.484	-8.332872	4.174864E-008	-0.0098861	7
	22	32	6328.125	5263.621	-867.4984	1	5334.628	-9.358798	-4.755417E-008	-0.0095765	7
	23	34	5015.625	5323.151	-995.844	1	5415.5	-10.59629	-2.979392E-008	-0.0096844	7
	24	35	3984.375	5390.904	-1154.591	1	5513.16	-12.08864	-3.773562E-008	-0.0097269	7
	25	36	3170.956	5463.732	-1350.558	1	5628.177	-13.8844	-4.713066E-008	-0.0095729	7
	26	38	2527.573	5540.215	-1590.123	1	5763.894	-16.01425	-1.493253E-008	-0.0097197	7
	27	39	1976.103	5642.187	-1910.892	1	5956.994	-18.71018	1.112259E-008	-0.0098006	7
	28	40	1577.524	5738.958	-2270.285	1	6171.696	-21.58335	4.17769E-008	-0.0098829	7
	29	42	1265.625	5855.568	-2707.218	1	6451.101	-24.81262	-5.526071E-008	-0.0096842	7
	30	43	998.264	6004.559	-3275.01	1	6839.621	-28.60896	1.215779E-008	-0.0098015	7
	31	45	796.875	6170.167	-3936.063	1	7318.713	-32.53455	-4.560281E-008	-0.0095809	7
	32	46	627.7902	6374.9	-4794.021	1	7976.339	-36.94371	4.845199E-008	-0.0098065	7
	33	47	505.5147	6589.587	-5743.389	1	8741.233	-41.07494	-5.542227E-008	-0.0096888	7
	34	49	397.9953	6879.564	-7028.783	1	9835.25	-45.61469	6.489616E-009	-0.0097304	7
	35	50	315.5048	7215.931	-8562.7	1	11197.75	-49.8786	2.575404E-009	-0.0097881	6
	36	51	252.4038	7600.493	-10369.1	1	12856.35	-53.7588	2.53187E-009	-0.0097931	6
	37	53	198.6229	8107.263	-12755.09	1	15113.57	-57.55956	1.776137E-009	-0.009787	6
	38	54	158.3615	8702.647	-15537.4	1	17808.62	-60.7464	1.813078E-009	-0.0097878	6
	39	56	125.558	9459.364	-19022.01	1	21244.21	-63.55952	1.897226E-009	-0.0097834	6
	40	57	100.4464	10373.6	-23143.07	1	25361.64	-65.85628	8.932887E-010	-0.009792	6
	41	58	79.00281	11763.16	-28567.94	1	30894.97	-67.62004	2.04383E-009	-0.0097939	6
	42	60	63.3446	13489.22	-34943.84	1	37457.06	-68.89213	1.734051E-009	-0.0097968	6
	43	61	49.86702	15174.57	-42606.84	1	45228.42	-70.39647	2.145275E-009	-0.0098007	6
	44	63	39.72458	18212.63	-51870.68	1	54975.16	-70.65301	1.425258E-009	-0.0097906	6
	45	64	31.6723	22038.52	-62711.31	1	66471.09	-70.63708	1.78959E-009	-0.0097981	6
	46	65	24.93351	26934.02	-76727.34	1	81317.45	-70.65712	1.190333E-009	-0.0097941	6
	47	67	19.86229	33254.02	-92414.2	1	98215.1	-70.2094	1.5374E-009	-0.0097871	6
	48	68	15.83615	41947.2	-111751.3	1	119364.7	-69.42577	-3.704241E-010	-0.0097934	5
	49	69	12.40079	53065.01	-133585.1	1	143739	-68.33517	1.018467E-009	-0.0097878	5
	50	71	9.93114	66355.95	-158501.9	1	171831.2	-67.28364	1.376694E-009	-0.0097987	5
	51	72	7.944915	82627.41	-186953.7	1	204399.1	-66.15614	1.241948E-009	-0.0097965	5
	52	74	6.317385	104537.6	-217731.3	1	241526.5	-64.3533	1.423468E-009	-0.0097952	5
	53	76	5.008013	131223.1	-253767.7	1	285687.9	-62.65654	1.084383E-009	-0.0097756	5
	54	79	3.945707	164541.3	-294469.8	1	337322.3	-60.8048	6.309904E-010	-0.0097916	5
	55	81	3.158693	200793.5	-335397.2	1	390908.3	-59.09214	1.098271E-009	-0.009768	5
	56	85	2.504006	245088.7	-381948.9	1	453820.9	-57.31256	5.538837E-010	-0.0097936	5
	57	87	1.998082	294047.9	-429679.7	1	520661.9	-55.61452	5.197928E-010	-0.0097885	5
	58	91	1.584686	350795.7	-481542.9	1	595769.4	-53.92731	8.613642E-010	-0.0097276	5
	59	94	1.266892	407944.3	-535705.3	1	673348.9	-52.71041	5.088302E-010	-0.0097607	5
	60	99	0.999041	474122.7	-598429.4	1	763485.5	-51.61098	1.085418E-009	-0.0097826	5
