EXPLAIN
TAG	EISPOT
TITLE	LABEL	Potentiostatic EIS	Test &Identifier
DATE	LABEL	6/20/2000	Date
TIME	LABEL	9:19:38	Time
NOTES	NOTES	2	&Notes...
	
	
PSTAT	PSTAT	REF600-11020	Potentiostat
VDC	POTEN	0.00000E+000	T	DC &Voltage (V)
FREQINIT	QUANT	1.00000E+006	Initial Fre&q. (Hz)
FREQFINAL	QUANT	1.00000E+000	Final Fre&q. (Hz)
PTSPERDEC	QUANT	1.00000E+001	Points/&decade
VAC	QUANT	2.50000E+001	AC &Voltage (mV rms)
AREA	QUANT	1.00000E-002	&Area (cm^2)
CONDIT	TWOPARAM	T	5.00000E+000	0.00000E+000	Conditionin&g	Time(s)	E(V)
DELAY	TWOPARAM	T	5.00000E+000	0.00000E+000	Init. De&lay	Time(s)	Stab.(mV/s)
SPEED	SELECTOR	0	&Optimize for:
ZGUESS	QUANT	1.00000E+005	E&stimated Z (ohms)
OCVCURVE	TABLE	19
	Pt	T	Vf	Vm	Ach	Over
	#	s	V vs. Ref.	V	V	bits
	0	0.258333	1.06928E-003	1.06928E-003	5.66232E-004	...........
	1	0.516667	1.06520E-003	8.55411E-004	5.68066E-004	...........
	2	0.775	1.04025E-003	6.60092E-004	5.63566E-004	...........
	3	1.03333	9.70487E-004	4.90479E-004	5.66666E-004	...........
	4	1.29167	8.48187E-004	3.33923E-004	5.68599E-004	...........
	5	1.55	6.90599E-004	1.98570E-004	5.66899E-004	...........
	6	1.80833	5.23256E-004	6.57236E-005	5.71832E-004	...........
	7	2.06667	3.63527E-004	-4.58061E-005	5.72832E-004	...........
	8	2.325	2.17851E-004	-1.61687E-004	5.72099E-004	...........
	9	2.58333	8.60870E-005	-2.58012E-004	5.70466E-004	...........
	10	2.84167	-3.41688E-005	-3.61559E-004	5.67366E-004	...........
	11	3.1	-1.45560E-004	-4.57647E-004	5.63732E-004	...........
	12	3.35833	-2.50395E-004	-5.43559E-004	5.66199E-004	...........
	13	3.61667	-3.50082E-004	-6.32989E-004	5.64099E-004	...........
	14	3.875	-4.45010E-004	-7.08918E-004	5.70632E-004	...........
	15	4.13333	-5.35261E-004	-7.92798E-004	5.66099E-004	...........
	16	4.39167	-6.21048E-004	-8.57630E-004	5.70299E-004	...........
	17	4.65	-7.02712E-004	-9.42478E-004	5.68666E-004	...........
	18	4.90833	-7.80842E-004	-1.00099E-003	5.67232E-004	...........
EOC	QUANT	-0.0007808	Open Circuit (V)
PSTATMODEL	IQUANT	4	Pstat Model
PSTATSECTION	LABEL	REF600-11020	Pstat Section
PSTATSERIALNO	LABEL	11020	Pstat Serial Number
CTRLMODE	IQUANT	1	Control Mode
IESTAB	IQUANT	0	I/E Stability
CASPEED	IQUANT	1	Control Amp Speed
CONVENTION	IQUANT	1	Current Convention
ICHRANGE	IQUANT	2	Ich Range
ICHRANGEMODE	TOGGLE	F	Ich Auto Range
ICHOFFSETENABLE	TOGGLE	T	Ich Offset Enable
ICHOFFSET	QUANT	0	Ich Offset (V)
ICHFILTER	IQUANT	3	Ich Filter
VCHRANGE	IQUANT	2	Vch Range
VCHRANGEMODE	TOGGLE	F	Vch Auto Range
VCHOFFSETENABLE	TOGGLE	T	Vch Offset Enable
VCHOFFSET	QUANT	0	Vch Offset (V)
VCHFILTER	IQUANT	3	Vch Filter
ACHRANGE	IQUANT	2	Ach Range
ACHOFFSETENABLE	TOGGLE	F	Ach Offset Enable
ACHOFFSET	QUANT	0	Ach Offset (V)
ACHFILTER	IQUANT	3	Ach Filter
IERANGELOWERLIMIT	IQUANT	1	I/E Range Lower Limit
IERANGEMODE	TOGGLE	F	I/E AutoRange
IERANGE	IQUANT	4	I/E Range
POSFEEDENABLE	TOGGLE	F	Positive Feedback IR Comp
POSFEEDRESISTANCE	QUANT	0	Positive Feedback Resistance (ohm)
ACHSELECT	IQUANT	0	Ach Select
CABLEID	IQUANT	14	Cable ID
DCCALDATE	LABEL	8/19/2019	DC Calibration Date
ACCALDATE	LABEL	8/19/2019	AC Calibration Date
THERMOSELECT	IQUANT	1	Thermo Select
FRAMEWORKVERSION	QUANT	6.33	Framework Version
INSTRUMENTVERSION	LABEL	3.50	Instrument Version
ZCURVE	TABLE
	Pt	Time	Freq	Zreal	Zimag	Zsig	Zmod	Zphz	Idc	Vdc	IERange
	#	s	Hz	ohm	ohm	V	ohm	°	A	V	#
	0	2	1000078	1388.617	-2833.951	1	3155.873	-63.89546	1.905317E-006	0.0009355	8
	1	2	794390.6	1543.342	-3380.898	1	3716.5	-65.46384	-5.906064E-006	0.0019293	8
	2	3	630984.4	1745.748	-4052.216	1	4412.265	-66.69299	5.671206E-007	0.0005921	8
	3	3	501234.4	2012.859	-4923.438	1	5319.008	-67.76369	-2.488572E-006	0.0010427	8
	4	3	398109.4	2376.231	-5886.294	1	6347.829	-68.01662	8.164957E-006	-1.279276E-005	8
	5	4	316265.6	2840.351	-7090.013	1	7637.792	-68.16832	-1.127223E-006	0.0013026	8
	6	4	251203.1	3359.575	-8514.373	1	9153.212	-68.46695	6.853159E-007	0.001246	8
	7	5	199546.9	4051.077	-10276.31	1	11045.99	-68.48489	-4.643998E-007	0.0013121	8
	8	5	158578.1	5131.843	-12473.26	1	13487.7	-67.63639	1.836309E-006	0.00113	8
	9	6	125953.1	6101.922	-14991.76	1	16185.99	-67.85278	5.281129E-006	-0.0082112	7
	10	7	100078.1	7686.838	-17516.84	1	19129.22	-66.3069	-1.44026E-006	0.0014608	7
	11	7	79453.13	9609.36	-20991.75	1	23086.65	-65.40319	6.591762E-007	-0.0015705	7
	12	7	63140.62	12122.97	-24461.42	1	27300.69	-63.63718	-1.021118E-006	0.0005306	7
	13	8	50203.12	15043.89	-28784.35	1	32478.57	-62.40657	1.336045E-007	-0.001135	7
	14	8	39890.62	19069.48	-32193.24	1	37417.24	-59.35987	-8.645536E-007	0.0029618	7
	15	8	31640.63	23712.39	-36832.36	1	43805.25	-57.22687	-1.239768E-006	0.003062	7
	16	9	25171.88	28762.2	-43680.17	1	52299.34	-56.63618	1.32622E-007	-0.0011368	7
	17	9	20015.62	35275.66	-49555.34	1	60828.48	-54.55508	1.081454E-006	-0.0017475	7
	18	9	15890.62	42888.43	-54677.57	1	69491.39	-51.88979	1.527107E-006	-0.0013203	7
	19	10	12609.37	52170.38	-57894.38	1	77932.71	-47.97703	-1.730673E-007	0.0049144	6
	20	10	10078.13	61829.2	-62884.78	1	88189.26	-45.48494	2.215536E-007	-0.0002312	6
	21	11	8015.625	74127.12	-68205.92	1	100731.7	-42.61781	2.527175E-007	-0.0027647	6
	22	11	6328.125	85752.34	-69475.76	1	110364.6	-39.01407	-2.440449E-007	0.0051136	6
	23	12	5015.625	98522.9	-71385.72	1	121666.2	-35.92558	-1.70838E-007	0.0049018	6
	24	12	3984.375	112765.7	-72768.71	1	134206.5	-32.83451	-5.941354E-008	-0.0014191	6
	25	12	3170.956	125674.3	-73360.82	1	145519.2	-30.27371	1.040462E-007	-0.0030127	6
	26	12	2527.573	135687.7	-68880.82	1	152170	-26.91429	-8.547972E-008	0.0042533	6
	27	13	1976.103	148105.7	-68652.7	1	163243.7	-24.86954	8.846107E-008	0.0022641	6
	28	13	1577.524	157244.8	-65094.91	1	170186	-22.48817	2.555047E-007	-0.0013344	6
	29	13	1265.625	168643.5	-65496.56	1	180915.5	-21.22482	2.516241E-007	-0.0027663	6
	30	14	998.264	173357.7	-62170.14	1	184168.5	-19.72903	3.124905E-009	0.0033654	6
	31	14	796.875	183590	-59796.66	1	193082.7	-18.04082	2.637073E-008	-0.0018102	5
	32	14	627.7902	190351.5	-60075.76	1	199606.6	-17.51592	-1.226889E-009	-0.0019633	5
	33	15	505.5147	197245.3	-60826.61	1	206411.2	-17.13874	-1.733807E-008	0.0003876	5
	34	15	397.9953	205340.5	-62339.79	1	214594.9	-16.88788	3.090379E-010	0.0007016	5
	35	15	315.5048	212051.5	-64788.35	1	221728.2	-16.98954	-3.371838E-010	0.0007145	5
	36	16	252.4038	219534.4	-67399.61	1	229647.6	-17.0671	1.347868E-010	0.0007023	5
	37	16	198.6229	227910.4	-71914.02	1	238987	-17.51238	3.506737E-010	0.0007122	5
	38	16	158.3615	236280.8	-77908.2	1	248793.7	-18.24879	3.787807E-010	0.000704	5
	39	17	125.558	245231.7	-83804.11	1	259155.7	-18.86707	7.310931E-011	0.0007109	5
	40	17	100.4464	250853.6	-90632.28	1	266724.1	-19.86456	6.531214E-010	0.0007095	5
	41	17	79.00281	263469.4	-96305.1	1	280518.8	-20.0787	7.490811E-010	0.0007102	5
	42	18	63.3446	283542.2	-133489.3	1	313393.6	-25.21066	-8.776767E-011	0.000701	5
	43	18	49.86702	288611.7	-138157.7	1	319975.4	-25.58033	-9.736975E-011	0.0006912	5
	44	18	39.72458	306311.1	-140681.3	1	337072.3	-24.66818	-1.344801E-010	0.000709	5
	45	19	31.6723	322388.3	-151773	1	356327.4	-25.20998	-6.9079E-010	0.0006925	5
	46	19	24.93351	340571.8	-177788.4	1	384184.7	-27.56587	5.336E-010	0.0007003	5
	47	19	19.86229	363659.8	-202099.6	1	416044.1	-29.0626	1.096621E-009	0.0007095	5
	48	20	15.83615	404232	-220078.8	1	460258.8	-28.5655	-9.577915E-010	0.0007077	5
	49	20	12.40079	434103.3	-241827.5	1	496916.7	-29.12103	5.995451E-010	0.0007114	5
	50	20	9.93114	454138.9	-274114.7	1	530453.6	-31.11485	3.132736E-011	0.0007126	5
	51	21	7.944915	486165.8	-300578.4	1	571580.8	-31.72698	6.883251E-010	0.0006954	5
	52	22	6.317385	524761.7	-331097.3	1	620483.9	-32.24979	5.474712E-010	0.0006944	5
	53	22	5.008013	566223.1	-365007.4	1	673675.7	-32.80726	7.361108E-010	0.0006806	6
	54	24	3.945707	611215.3	-407515.5	1	734610.8	-33.69258	7.844645E-010	0.0006879	6
	55	25	3.158693	658436.5	-450500.1	1	797802.6	-34.3798	8.540854E-010	0.0006821	6
	56	27	2.504006	711374.6	-502712.9	1	871076.4	-35.24802	2.385735E-010	0.0006985	5
	57	29	1.998082	768281.8	-559109.9	1	950190	-36.0449	1.518831E-011	0.0006532	5
	58	30	1.584686	832568.5	-629612.3	1	1043830	-37.09762	1.919589E-011	0.0006713	4
	59	32	1.266892	899471.9	-704889.3	1	1142768	-38.08474	1.03428E-010	0.0007126	4
	60	35	0.999041	979421	-796239.6	1	1262245	-39.11008	1.380738E-010	0.0007334	4
