EXPLAIN
TAG	EISPOT
TITLE	LABEL	Potentiostatic EIS	Test &Identifier
DATE	LABEL	11/13/2019	Date
TIME	LABEL	8:08:57	Time
NOTES	NOTES	4	&Notes...
	
	
	
	
PSTAT	PSTAT	REF600-11020	Potentiostat
VDC	POTEN	0.00000E+000	T	DC &Voltage (V)
FREQINIT	QUANT	1.00000E+006	Initial Fre&q. (Hz)
FREQFINAL	QUANT	1.00000E+000	Final Fre&q. (Hz)
PTSPERDEC	QUANT	1.00000E+001	Points/&decade
VAC	QUANT	2.50000E+001	AC &Voltage (mV rms)
AREA	QUANT	1.00000E-002	&Area (cm^2)
CONDIT	TWOPARAM	T	5.00000E+000	0.00000E+000	Conditionin&g	Time(s)	E(V)
DELAY	TWOPARAM	T	5.00000E+000	0.00000E+000	Init. De&lay	Time(s)	Stab.(mV/s)
SPEED	SELECTOR	0	&Optimize for:
ZGUESS	QUANT	1.00000E+005	E&stimated Z (ohms)
OCVCURVE	TABLE	19
	Pt	T	Vf	Vm	Ach	Over
	#	s	V vs. Ref.	V	V	bits
	0	0.258333	-6.21114E-004	-6.21114E-004	5.28066E-004	...........
	1	0.516667	-6.28111E-004	-9.87400E-004	5.26866E-004	...........
	2	0.775	-6.72282E-004	-1.39754E-003	5.28300E-004	...........
	3	1.03333	-7.99254E-004	-1.68757E-003	5.27266E-004	...........
	4	1.29167	-1.02562E-003	-1.97036E-003	5.34266E-004	...........
	5	1.55	-1.31835E-003	-2.22710E-003	5.26200E-004	...........
	6	1.80833	-1.62783E-003	-2.47484E-003	5.27100E-004	...........
	7	2.06667	-1.92306E-003	-2.71736E-003	5.25500E-004	...........
	8	2.325	-2.19621E-003	-2.94866E-003	5.24466E-004	...........
	9	2.58333	-2.45085E-003	-3.16342E-003	5.25433E-004	...........
	10	2.84167	-2.69165E-003	-3.36751E-003	5.23433E-004	...........
	11	3.1	-2.92069E-003	-3.56871E-003	5.17933E-004	...........
	12	3.35833	-3.13876E-003	-3.75414E-003	5.24400E-004	...........
	13	3.61667	-3.34659E-003	-3.93441E-003	5.28733E-004	...........
	14	3.875	-3.54497E-003	-4.11317E-003	5.20000E-004	...........
	15	4.13333	-3.73505E-003	-4.28959E-003	5.22666E-004	...........
	16	4.39167	-3.91848E-003	-4.44956E-003	5.22233E-004	...........
	17	4.65	-4.09629E-003	-4.61293E-003	5.23266E-004	...........
	18	4.90833	-4.26846E-003	-4.76719E-003	5.25400E-004	...........
EOC	QUANT	-0.0042685	Open Circuit (V)
PSTATMODEL	IQUANT	4	Pstat Model
PSTATSECTION	LABEL	REF600-11020	Pstat Section
PSTATSERIALNO	LABEL	11020	Pstat Serial Number
CTRLMODE	IQUANT	1	Control Mode
IESTAB	IQUANT	0	I/E Stability
CASPEED	IQUANT	1	Control Amp Speed
CONVENTION	IQUANT	1	Current Convention
ICHRANGE	IQUANT	2	Ich Range
ICHRANGEMODE	TOGGLE	F	Ich Auto Range
ICHOFFSETENABLE	TOGGLE	T	Ich Offset Enable
ICHOFFSET	QUANT	0	Ich Offset (V)
ICHFILTER	IQUANT	3	Ich Filter
VCHRANGE	IQUANT	2	Vch Range
VCHRANGEMODE	TOGGLE	F	Vch Auto Range
VCHOFFSETENABLE	TOGGLE	T	Vch Offset Enable
VCHOFFSET	QUANT	0	Vch Offset (V)
VCHFILTER	IQUANT	3	Vch Filter
ACHRANGE	IQUANT	2	Ach Range
ACHOFFSETENABLE	TOGGLE	F	Ach Offset Enable
ACHOFFSET	QUANT	0	Ach Offset (V)
ACHFILTER	IQUANT	3	Ach Filter
IERANGELOWERLIMIT	IQUANT	1	I/E Range Lower Limit
IERANGEMODE	TOGGLE	F	I/E AutoRange
IERANGE	IQUANT	4	I/E Range
POSFEEDENABLE	TOGGLE	F	Positive Feedback IR Comp
POSFEEDRESISTANCE	QUANT	0	Positive Feedback Resistance (ohm)
ACHSELECT	IQUANT	0	Ach Select
CABLEID	IQUANT	14	Cable ID
DCCALDATE	LABEL	8/19/2019	DC Calibration Date
ACCALDATE	LABEL	8/19/2019	AC Calibration Date
THERMOSELECT	IQUANT	1	Thermo Select
FRAMEWORKVERSION	QUANT	6.33	Framework Version
INSTRUMENTVERSION	LABEL	3.50	Instrument Version
ZCURVE	TABLE
	Pt	Time	Freq	Zreal	Zimag	Zsig	Zmod	Zphz	Idc	Vdc	IERange
	#	s	Hz	ohm	ohm	V	ohm	°	A	V	#
	0	1	1000078	1365.214	-2530.172	1	2874.992	-61.64988	-9.327784E-006	-0.0014509	8
	1	1	794390.6	1572.508	-2999.722	1	3386.903	-62.33567	3.222565E-007	-0.0017449	8
	2	2	630984.4	1827.907	-3550.766	1	3993.643	-62.76094	-1.719404E-006	-0.0027196	8
	3	2	501234.4	2149.374	-4217.714	1	4733.806	-62.99632	-4.378367E-006	-0.002204	8
	4	2	398109.4	2547.999	-4994.652	1	5607.036	-62.97181	-4.450876E-007	-0.0022393	8
	5	3	316265.6	3050.913	-5904.438	1	6646.085	-62.67391	5.567975E-006	-0.0037311	8
	6	3	251203.1	3681	-6992.344	1	7902.065	-62.2362	-9.895881E-007	-0.0023042	8
	7	4	199546.9	4512.012	-8181.415	1	9343.115	-61.12347	-2.092413E-006	-0.0027723	8
	8	4	158578.1	5455.4	-9522.72	1	10974.68	-60.19236	-5.168593E-006	-0.0019585	8
	9	5	125953.1	6834.345	-10891.82	1	12858.46	-57.89275	-1.924978E-006	-0.0030638	7
	10	5	100078.1	8260.868	-12429.48	1	14924.27	-56.39123	8.336996E-007	-0.0047196	7
	11	5	79453.13	9888.28	-13934.36	1	17086.38	-54.63925	-1.203908E-006	-0.0009164	7
	12	6	63140.62	11640.3	-15810.76	1	19633.56	-53.6385	5.739546E-008	-0.0041997	7
	13	6	50203.12	13594.24	-17494.15	1	22155.1	-52.15018	-2.929293E-007	-0.0012492	7
	14	6	39890.62	15672.15	-19676.77	1	25155.35	-51.46338	1.053005E-007	-0.0016819	7
	15	7	31640.63	17909.69	-22419.13	1	28694.5	-51.38013	4.854093E-007	-0.0045768	7
	16	7	25171.88	20466.54	-24944.94	1	32266.54	-50.6322	-1.349755E-006	-0.0011216	7
	17	7	20015.62	23127.63	-28651.11	1	36820.83	-51.08898	4.860333E-007	-0.0045779	7
	18	8	15890.62	26796.46	-32806.75	1	42359.57	-50.75815	-4.131241E-007	-0.0035968	7
	19	8	12609.37	31559.75	-37046.45	1	48666.8	-49.57243	1.780164E-007	-0.005906	6
	20	8	10078.13	36462.85	-41706.93	1	55398.63	-48.83798	-2.254194E-007	0.0004489	6
	21	9	8015.625	42934.94	-47418.17	1	63967.9	-47.84063	-1.681432E-007	-0.0023714	6
	22	9	6328.125	50870.9	-53125.61	1	73553.91	-46.24201	1.935267E-008	-0.0052018	6
	23	9	5015.625	60465.8	-58524.61	1	84150.12	-44.06536	1.820306E-008	-0.0052054	6
	24	10	3984.375	71733.76	-61617.34	1	94564.41	-40.66168	-2.341188E-007	-0.0002191	6
	25	10	3170.956	83889.07	-66161.18	1	106839.5	-38.26195	-1.11276E-007	-0.0034798	6
	26	11	2527.573	97586.7	-68083.1	1	118989.4	-34.90224	2.005312E-007	-0.0055711	6
	27	11	1976.103	112666.3	-66354.02	1	130753.8	-30.49566	2.003842E-007	-0.0055667	6
	28	11	1577.524	132372.6	-54710.73	1	143233.3	-22.45572	1.780131E-007	-0.0035801	6
	29	12	1265.625	134430.5	-58779.2	1	146719.3	-23.61716	1.317687E-007	-0.0025778	6
	30	12	998.264	143367.3	-51550.89	1	152353.8	-19.77718	6.417632E-009	-0.0055191	5
	31	12	796.875	150699	-47371.13	1	157969	-17.45016	1.656099E-008	-0.0059723	5
	32	13	627.7902	156190.9	-43129.62	1	162036.3	-15.43664	1.573465E-008	-0.0030003	5
	33	13	505.5147	160915.7	-40415.14	1	165913.4	-14.09863	1.033268E-008	-0.0019822	5
	34	13	397.9953	164156.7	-38030.82	1	168504.5	-13.04382	6.322964E-010	-0.0027833	5
	35	14	315.5048	167044.6	-36707.57	1	171030.2	-12.3936	3.181067E-010	-0.0027963	5
	36	14	252.4038	169801.4	-36751.91	1	173733.2	-12.21275	6.946321E-010	-0.0028025	5
	37	14	198.6229	173115	-38351.33	1	177312.2	-12.49137	6.871121E-010	-0.0027909	5
	38	15	158.3615	176227.9	-40840.76	1	180898.4	-13.04794	7.521876E-010	-0.0028009	5
	39	15	125.558	179908.6	-44273.57	1	185276.2	-13.82516	5.245148E-010	-0.0027959	5
	40	15	100.4464	183867.2	-48756.52	1	190221.8	-14.85146	1.737285E-010	-0.0028002	5
	41	16	79.00281	189759.2	-56219.84	1	197912.1	-16.50294	7.588463E-010	-0.0028069	5
	42	16	63.3446	186711.7	-60903.52	1	196393.7	-18.06581	3.669051E-010	-0.0027939	5
	43	16	49.86702	197259.6	-69760.1	1	209231.5	-19.47595	4.615151E-011	-0.0028084	5
	44	17	39.72458	206792.5	-82728.76	1	222726.7	-21.80421	2.458742E-011	-0.0027975	5
	45	17	31.6723	217852.3	-95089.7	1	237700.8	-23.58064	-2.192106E-010	-0.0027939	5
	46	17	24.93351	227000.2	-107966.4	1	251368	-25.4368	1.298024E-010	-0.0027934	5
	47	18	19.86229	239227.1	-123723.5	1	269327.2	-27.3471	-5.949266E-010	-0.002795	5
	48	18	15.83615	252781.9	-143595.5	1	290720.4	-29.59922	4.493697E-010	-0.0027904	5
	49	18	12.40079	271312.3	-162933.7	1	316477.1	-30.98646	-4.271609E-010	-0.0027883	5
	50	19	9.93114	289994.3	-182284.6	1	342526.4	-32.15265	7.725457E-010	-0.0027997	5
	51	19	7.944915	311775.1	-206495	1	373957.1	-33.51732	8.685968E-010	-0.0027957	5
	52	20	6.317385	335362.7	-234707.9	1	409336	-34.98674	8.701842E-010	-0.0028049	5
	53	21	5.008013	364450.9	-266227.6	1	451333.1	-36.14774	8.052518E-010	-0.0027994	5
	54	22	3.945707	396897.5	-301796.8	1	498607	-37.24899	3.100647E-010	-0.0028092	5
	55	23	3.158693	432505.8	-338407.6	1	549163.9	-38.04087	3.231606E-010	-0.0028271	5
	56	25	2.504006	472849.9	-381625.3	1	607638.8	-38.90613	5.843406E-010	-0.0028148	5
	57	26	1.998082	515587.6	-429078.9	1	670775.2	-39.76768	4.139486E-010	-0.0028204	5
	58	28	1.584686	565597.8	-482893.5	1	743698.3	-40.48989	2.840667E-010	-0.0028583	5
	59	30	1.266892	618022.4	-545470.6	1	824311.8	-41.43183	2.525332E-010	-0.0028418	5
	60	32	0.999041	677883.2	-618657.1	1	917748.5	-42.38454	2.686294E-010	-0.0028131	5
