EXPLAIN
TAG	EISPOT
TITLE	LABEL	Potentiostatic EIS	Test &Identifier
DATE	LABEL	11/11/2019	Date
TIME	LABEL	12:27:04	Time
NOTES	NOTES	3	&Notes...
	
	
	
PSTAT	PSTAT	REF600-11020	Potentiostat
VDC	POTEN	0.00000E+000	T	DC &Voltage (V)
FREQINIT	QUANT	1.00000E+006	Initial Fre&q. (Hz)
FREQFINAL	QUANT	1.00000E+000	Final Fre&q. (Hz)
PTSPERDEC	QUANT	1.00000E+001	Points/&decade
VAC	QUANT	2.50000E+001	AC &Voltage (mV rms)
AREA	QUANT	1.00000E-002	&Area (cm^2)
CONDIT	TWOPARAM	T	5.00000E+000	0.00000E+000	Conditionin&g	Time(s)	E(V)
DELAY	TWOPARAM	T	5.00000E+000	0.00000E+000	Init. De&lay	Time(s)	Stab.(mV/s)
SPEED	SELECTOR	1	&Optimize for:
ZGUESS	QUANT	1.00000E+005	E&stimated Z (ohms)
OCVCURVE	TABLE	19
	Pt	T	Vf	Vm	Ach	Over
	#	s	V vs. Ref.	V	V	bits
	0	0.258333	3.78534E-003	3.78534E-003	5.64532E-004	...........
	1	0.516667	3.78476E-003	3.75470E-003	5.64899E-004	...........
	2	0.775	3.77967E-003	3.64772E-003	5.60832E-004	...........
	3	1.03333	3.80653E-003	5.96250E-003	5.61532E-004	...........
	4	1.29167	3.98474E-003	4.95121E-003	5.60499E-004	...........
	5	1.55	4.36431E-003	5.27524E-003	5.58832E-004	...........
	6	1.80833	4.77744E-003	4.66751E-003	5.55099E-004	...........
	7	2.06667	5.00388E-003	4.31149E-003	5.54533E-004	...........
	8	2.325	4.98491E-003	4.78391E-003	5.56399E-004	...........
	9	2.58333	4.84126E-003	5.14809E-003	5.60999E-004	...........
	10	2.84167	4.75556E-003	5.09368E-003	5.58166E-004	...........
	11	3.1	4.80003E-003	4.79348E-003	5.63232E-004	...........
	12	3.35833	4.88770E-003	4.58623E-003	5.69266E-004	...........
	13	3.61667	4.90357E-003	4.58042E-003	5.63699E-004	...........
	14	3.875	4.82582E-003	4.52905E-003	5.64666E-004	...........
	15	4.13333	4.70750E-003	4.33818E-003	5.60199E-004	...........
	16	4.39167	4.58280E-003	3.79182E-003	5.59432E-004	...........
	17	4.65	4.42989E-003	3.80736E-003	5.60099E-004	...........
	18	4.90833	4.23539E-003	3.94526E-003	5.59299E-004	...........
EOC	QUANT	0.0042354	Open Circuit (V)
PSTATMODEL	IQUANT	4	Pstat Model
PSTATSECTION	LABEL	REF600-11020	Pstat Section
PSTATSERIALNO	LABEL	11020	Pstat Serial Number
CTRLMODE	IQUANT	1	Control Mode
IESTAB	IQUANT	0	I/E Stability
CASPEED	IQUANT	1	Control Amp Speed
CONVENTION	IQUANT	1	Current Convention
ICHRANGE	IQUANT	2	Ich Range
ICHRANGEMODE	TOGGLE	F	Ich Auto Range
ICHOFFSETENABLE	TOGGLE	T	Ich Offset Enable
ICHOFFSET	QUANT	0	Ich Offset (V)
ICHFILTER	IQUANT	3	Ich Filter
VCHRANGE	IQUANT	2	Vch Range
VCHRANGEMODE	TOGGLE	F	Vch Auto Range
VCHOFFSETENABLE	TOGGLE	T	Vch Offset Enable
VCHOFFSET	QUANT	0	Vch Offset (V)
VCHFILTER	IQUANT	3	Vch Filter
ACHRANGE	IQUANT	2	Ach Range
ACHOFFSETENABLE	TOGGLE	F	Ach Offset Enable
ACHOFFSET	QUANT	0	Ach Offset (V)
ACHFILTER	IQUANT	3	Ach Filter
IERANGELOWERLIMIT	IQUANT	1	I/E Range Lower Limit
IERANGEMODE	TOGGLE	F	I/E AutoRange
IERANGE	IQUANT	4	I/E Range
POSFEEDENABLE	TOGGLE	F	Positive Feedback IR Comp
POSFEEDRESISTANCE	QUANT	0	Positive Feedback Resistance (ohm)
ACHSELECT	IQUANT	0	Ach Select
CABLEID	IQUANT	14	Cable ID
DCCALDATE	LABEL	8/19/2019	DC Calibration Date
ACCALDATE	LABEL	8/19/2019	AC Calibration Date
THERMOSELECT	IQUANT	1	Thermo Select
FRAMEWORKVERSION	QUANT	6.33	Framework Version
INSTRUMENTVERSION	LABEL	3.50	Instrument Version
ZCURVE	TABLE
	Pt	Time	Freq	Zreal	Zimag	Zsig	Zmod	Zphz	Idc	Vdc	IERange
	#	s	Hz	ohm	ohm	V	ohm	°	A	V	#
	0	2	1000078	2099.059	-955.586	1	2306.338	-24.47715	-6.374367E-008	0.0059176	8
	1	3	794390.6	2256.892	-885.6136	1	2424.432	-21.42525	5.031293E-006	0.0060206	8
	2	4	630984.4	2399.913	-807.3126	1	2532.062	-18.59255	-3.543261E-006	0.0061243	8
	3	6	501234.4	2515.998	-730.2415	1	2619.828	-16.18481	6.791133E-006	0.0050927	8
	4	7	398109.4	2620.568	-659.3392	1	2702.241	-14.12258	6.412742E-006	0.005045	8
	5	9	316265.6	2700.535	-586.8356	1	2763.561	-12.25996	3.55035E-006	0.0057461	8
	6	10	251203.1	2773.204	-525.3655	1	2822.529	-10.72719	-2.562874E-006	0.0057042	8
	7	11	199546.9	2833.696	-465.0145	1	2871.597	-9.319277	-1.927776E-006	0.0059385	8
	8	13	158578.1	2885.582	-425.4565	1	2916.778	-8.387385	-7.291151E-007	0.0062017	8
	9	14	125953.1	2946.614	-326.348	1	2964.631	-6.319955	1.857775E-006	0.0057592	7
	10	15	100078.1	2966.287	-292.4566	1	2980.669	-5.630793	-2.851537E-007	0.0049929	7
	11	17	79453.13	2996.577	-273.9717	1	3009.075	-5.223927	-2.824174E-007	0.0049912	7
	12	18	63140.62	3023.254	-264.2632	1	3034.781	-4.995537	9.919828E-007	0.0047009	7
	13	19	50203.12	3047.058	-256.2362	1	3057.813	-4.806864	8.13587E-008	0.0066003	7
	14	21	39890.62	3072.147	-254.3254	1	3082.656	-4.732397	9.519344E-008	0.0045255	7
	15	22	31640.63	3093.851	-257.8005	1	3104.573	-4.763267	-2.862116E-007	0.0049799	7
	16	24	25171.88	3116.957	-265.6025	1	3128.252	-4.87053	-5.49946E-007	0.0071853	7
	17	25	20015.62	3137.497	-276.0699	1	3149.619	-5.028534	-1.11026E-006	0.0067458	7
	18	26	15890.62	3167.871	-302.0123	1	3182.235	-5.445894	9.963178E-007	0.004699	7
	19	28	12609.37	3191.637	-330.0395	1	3208.656	-5.903835	8.288237E-008	0.0065915	7
	20	29	10078.13	3216.067	-366.5426	1	3236.888	-6.502075	-5.504696E-007	0.0071838	7
	21	30	8015.625	3246.541	-416.6714	1	3273.17	-7.31354	-9.544418E-007	0.0062274	7
	22	32	6328.125	3273.542	-473.7735	1	3307.648	-8.235129	-1.108471E-006	0.0067367	7
	23	33	5015.625	3306.293	-549.2629	1	3351.606	-9.432206	-1.1095E-006	0.0067398	7
	24	34	3984.375	3346.753	-644.5041	1	3408.247	-10.90035	9.621387E-008	0.0045131	7
	25	36	3170.956	3383.806	-754.7432	1	3466.955	-12.57376	9.966741E-007	0.0046961	7
	26	37	2527.573	3425.656	-891.5905	1	3539.782	-14.58863	6.916654E-007	0.0041405	7
	27	39	1976.103	3473.332	-1076.842	1	3636.43	-17.22508	-9.549872E-007	0.0062197	7
	28	40	1577.524	3540.989	-1279.076	1	3764.922	-19.86074	-2.857991E-007	0.0049797	7
	29	41	1265.625	3590.637	-1534.902	1	3904.946	-23.14543	9.585446E-008	0.0045105	7
	30	43	998.264	3664.325	-1869.841	1	4113.828	-27.03442	-2.857342E-007	0.0049727	7
	31	44	796.875	3748.952	-2260.306	1	4377.627	-31.08649	6.925998E-007	0.0041412	7
	32	45	627.7902	3854.838	-2766.554	1	4744.85	-35.66638	-2.844684E-007	0.0049756	7
	33	47	505.5147	3972.128	-3330.912	1	5183.896	-39.98222	-6.680809E-007	0.0056057	7
	34	48	397.9953	4134.461	-4104.582	1	5825.922	-44.79221	7.613361E-009	0.0057637	7
	35	50	315.5048	4330.988	-5027.476	1	6635.734	-49.25629	7.987889E-009	0.0057565	7
	36	51	252.4038	4568	-6110.743	1	7629.404	-53.22056	5.256319E-009	0.0057553	7
	37	52	198.6229	4894.656	-7536.865	1	8986.768	-56.99915	5.49444E-009	0.0057565	7
	38	54	158.3615	5296.908	-9186.205	1	10603.94	-60.03159	8.267403E-010	0.0056933	6
	39	55	125.558	5826.78	-11246.24	1	12666.07	-62.61091	6.60948E-010	0.0056986	6
	40	56	100.4464	6491.525	-13646.84	1	15112.12	-64.56052	5.178313E-010	0.0056881	6
	41	58	79.00281	7408.295	-16736.38	1	18302.71	-66.1236	-8.474305E-012	0.0056969	6
	42	59	63.3446	8614.957	-20133.18	1	21898.91	-66.83399	5.46428E-010	0.0056892	6
	43	61	49.86702	10065.7	-24775.38	1	26742.06	-67.88915	9.63095E-010	0.0056828	6
	44	62	39.72458	12001.61	-29765.19	1	32093.69	-68.04024	-1.116545E-010	0.0056839	6
	45	63	31.6723	14460.56	-35607.89	1	38432.14	-67.89766	7.1624E-010	0.0056868	6
	46	65	24.93351	17805.41	-43054.32	1	46590.85	-67.53212	1.288993E-009	0.0056817	6
	47	66	19.86229	21809.21	-51187.43	1	55639.87	-66.92281	-4.949068E-010	0.0056872	6
	48	68	15.83615	26764.33	-60347.37	1	66016.17	-66.0825	8.798016E-011	0.0056952	6
	49	69	12.40079	32998.17	-72027.96	1	79226.93	-65.38606	7.98909E-010	0.0056853	6
	50	71	9.93114	40661.95	-84309.24	1	93602.58	-64.2522	-1.660609E-010	0.0056983	6
	51	72	7.944915	49470.55	-97725.9	1	109534	-63.15068	1.012826E-009	0.0057017	5
	52	74	6.317385	59936.02	-113653.7	1	128489.3	-62.19479	-5.131909E-010	0.0057073	5
	53	76	5.008013	72652.02	-131698.7	1	150409	-61.11653	-2.728947E-010	0.005703	5
	54	78	3.945707	87558.55	-152461.7	1	175815.5	-60.13131	1.394758E-010	0.0057013	5
	55	81	3.158693	103369.4	-174096	1	202471.3	-59.3003	2.197826E-010	0.0057004	5
	56	84	2.504006	121531.6	-199695.2	1	233769.3	-58.67592	-1.862856E-010	0.0057085	5
	57	87	1.998082	140334.6	-227770.1	1	267531.4	-58.36179	1.646674E-010	0.005655	5
	58	90	1.584686	160382	-261554.2	1	306811	-58.48386	-2.14355E-012	0.0057135	5
	59	94	1.266892	181777.6	-301065.5	1	351686.7	-58.87722	9.431326E-012	0.0056675	5
	60	98	0.999041	205827.4	-351189.7	1	407061.6	-59.62603	2.337239E-010	0.0057456	5
