EXPLAIN
TAG	EISPOT
TITLE	LABEL	Potentiostatic EIS	Test &Identifier
DATE	LABEL	8/14/2018	Date
TIME	LABEL	5:09:21	Time
NOTES	NOTES	1	&Notes...
	
PSTAT	PSTAT	REF600-11020	Potentiostat
VDC	POTEN	0.00000E+000	T	DC &Voltage (V)
FREQINIT	QUANT	1.00000E+006	Initial Fre&q. (Hz)
FREQFINAL	QUANT	1.00000E+000	Final Fre&q. (Hz)
PTSPERDEC	QUANT	1.00000E+001	Points/&decade
VAC	QUANT	2.50000E+001	AC &Voltage (mV rms)
AREA	QUANT	1.00000E-002	&Area (cm^2)
CONDIT	TWOPARAM	T	5.00000E+000	0.00000E+000	Conditionin&g	Time(s)	E(V)
DELAY	TWOPARAM	T	5.00000E+000	0.00000E+000	Init. De&lay	Time(s)	Stab.(mV/s)
SPEED	SELECTOR	0	&Optimize for:
ZGUESS	QUANT	1.00000E+005	E&stimated Z (ohms)
OCVCURVE	TABLE	19
	Pt	T	Vf	Vm	Ach	Over
	#	s	V vs. Ref.	V	V	bits
	0	0.258333	6.06358E-003	6.06358E-003	5.62299E-004	...........
	1	0.516667	6.06300E-003	6.03348E-003	5.63232E-004	...........
	2	0.775	6.05982E-003	6.02308E-003	5.58199E-004	...........
	3	1.03333	6.05215E-003	6.02313E-003	5.59166E-004	...........
	4	1.29167	6.04171E-003	6.03390E-003	5.64066E-004	...........
	5	1.55	6.03337E-003	6.04441E-003	5.67332E-004	...........
	6	1.80833	6.03120E-003	6.06520E-003	5.63466E-004	...........
	7	2.06667	6.03639E-003	6.08539E-003	5.62532E-004	...........
	8	2.325	6.04821E-003	6.11345E-003	5.62032E-004	...........
	9	2.58333	6.06537E-003	6.13504E-003	5.59199E-004	...........
	10	2.84167	6.08650E-003	6.16685E-003	5.60299E-004	...........
	11	3.1	6.11037E-003	6.19162E-003	5.64799E-004	...........
	12	3.35833	6.13629E-003	6.23067E-003	5.64232E-004	...........
	13	3.61667	6.16422E-003	6.26162E-003	5.60499E-004	...........
	14	3.875	6.19444E-003	6.30060E-003	5.60666E-004	...........
	15	4.13333	6.22695E-003	6.33502E-003	5.58699E-004	...........
	16	4.39167	6.26122E-003	6.37025E-003	5.62799E-004	...........
	17	4.65	6.29638E-003	6.40055E-003	5.60366E-004	...........
	18	4.90833	6.33150E-003	6.44027E-003	5.62499E-004	...........
EOC	QUANT	0.0063315	Open Circuit (V)
PSTATMODEL	IQUANT	4	Pstat Model
PSTATSECTION	LABEL	REF600-11020	Pstat Section
PSTATSERIALNO	LABEL	11020	Pstat Serial Number
CTRLMODE	IQUANT	1	Control Mode
IESTAB	IQUANT	0	I/E Stability
CASPEED	IQUANT	1	Control Amp Speed
CONVENTION	IQUANT	1	Current Convention
ICHRANGE	IQUANT	2	Ich Range
ICHRANGEMODE	TOGGLE	F	Ich Auto Range
ICHOFFSETENABLE	TOGGLE	T	Ich Offset Enable
ICHOFFSET	QUANT	0	Ich Offset (V)
ICHFILTER	IQUANT	3	Ich Filter
VCHRANGE	IQUANT	2	Vch Range
VCHRANGEMODE	TOGGLE	F	Vch Auto Range
VCHOFFSETENABLE	TOGGLE	T	Vch Offset Enable
VCHOFFSET	QUANT	0	Vch Offset (V)
VCHFILTER	IQUANT	3	Vch Filter
ACHRANGE	IQUANT	2	Ach Range
ACHOFFSETENABLE	TOGGLE	F	Ach Offset Enable
ACHOFFSET	QUANT	0	Ach Offset (V)
ACHFILTER	IQUANT	3	Ach Filter
IERANGELOWERLIMIT	IQUANT	1	I/E Range Lower Limit
IERANGEMODE	TOGGLE	F	I/E AutoRange
IERANGE	IQUANT	5	I/E Range
POSFEEDENABLE	TOGGLE	F	Positive Feedback IR Comp
POSFEEDRESISTANCE	QUANT	0	Positive Feedback Resistance (ohm)
ACHSELECT	IQUANT	0	Ach Select
CABLEID	IQUANT	14	Cable ID
DCCALDATE	LABEL	8/19/2019	DC Calibration Date
ACCALDATE	LABEL	8/19/2019	AC Calibration Date
THERMOSELECT	IQUANT	1	Thermo Select
FRAMEWORKVERSION	QUANT	6.33	Framework Version
INSTRUMENTVERSION	LABEL	3.50	Instrument Version
ZCURVE	TABLE
	Pt	Time	Freq	Zreal	Zimag	Zsig	Zmod	Zphz	Idc	Vdc	IERange
	#	s	Hz	ohm	ohm	V	ohm	°	A	V	#
	0	1	1000078	2182.963	-1089.21	1	2439.612	-26.51734	1.982523E-006	0.0085161	8
	1	1	794390.6	2342.339	-1014.453	1	2552.58	-23.41715	2.409506E-006	0.0075005	8
	2	2	630984.4	2513.646	-902.186	1	2670.647	-19.74384	8.120535E-007	0.0076233	8
	3	2	501234.4	2633.837	-794.0306	1	2750.924	-16.77664	-1.955967E-007	0.007871	8
	4	2	398109.4	2716.106	-659.4236	1	2795.009	-13.64639	3.636558E-007	0.0077705	8
	5	3	316265.6	2798.57	-582.8962	1	2858.63	-11.76556	-9.09539E-009	0.0077556	8
	6	3	251203.1	2854.993	-507.5948	1	2899.765	-10.08138	-3.004126E-006	0.0084494	8
	7	3	199546.9	2892.304	-436.3422	1	2925.032	-8.579128	-3.957451E-007	0.0079881	8
	8	3	158578.1	2923.514	-377.1962	1	2947.746	-7.351775	3.917453E-006	0.0070922	8
	9	4	125953.1	2968.669	-303.2335	1	2984.116	-5.832226	-7.099454E-007	0.0096538	7
	10	4	100078.1	2979.153	-270.2659	1	2991.387	-5.183629	1.022718E-008	0.0077521	7
	11	4	79453.13	3013.07	-263.7651	1	3024.593	-5.002937	-4.944033E-008	0.0078601	7
	12	5	63140.62	3035.045	-263.2937	1	3046.445	-4.958062	-1.625144E-008	0.0078249	7
	13	5	50203.12	3056.103	-267.9485	1	3067.826	-5.010684	-4.642893E-008	0.0079068	7
	14	5	39890.62	3079.348	-279.5383	1	3092.01	-5.187002	-5.973552E-008	0.0078779	7
	15	6	31640.63	3104.937	-295.778	1	3118.993	-5.441607	-2.097238E-008	0.0077709	7
	16	6	25171.88	3130.665	-320.0345	1	3146.98	-5.836827	3.548219E-008	0.0076719	7
	17	6	20015.62	3157.39	-349.5677	1	3176.682	-6.317724	3.859978E-008	0.0077495	7
	18	7	15890.62	3188.818	-390.9694	1	3212.696	-6.989942	3.77153E-008	0.007668	7
	19	7	12609.37	3221.13	-439.0741	1	3250.918	-7.76218	-6.889453E-008	0.0078895	7
	20	7	10078.13	3271.62	-500.2812	1	3309.649	-8.694063	-4.557418E-008	0.0079035	7
	21	7	8015.625	3291.541	-572.3281	1	3340.928	-9.86388	5.705856E-008	0.0077047	7
	22	8	6328.125	3331.165	-666.9715	1	3397.28	-11.32215	-5.455983E-008	0.0078854	7
	23	8	5015.625	3372.738	-782.0863	1	3462.228	-13.05528	-5.385969E-008	0.0078901	7
	24	8	3984.375	3413.596	-923.7374	1	3536.372	-15.1419	-5.864316E-008	0.0078747	7
	25	9	3170.956	3461.719	-1095.953	1	3631.062	-17.56738	3.685111E-008	0.0077451	7
	26	9	2527.573	3513.457	-1310.104	1	3749.767	-20.44957	-3.671675E-008	0.0078016	7
	27	9	1976.103	3574.715	-1600.873	1	3916.808	-24.12438	-2.415193E-009	0.0077711	7
	28	10	1577.524	3633.233	-1932.418	1	4115.17	-28.0073	1.744846E-008	0.0077039	7
	29	10	1265.625	3714.173	-2329.868	1	4384.446	-32.09968	-9.511473E-009	0.0078362	7
	30	10	998.264	3807.698	-2863.274	1	4764.126	-36.94206	1.067967E-007	0.0076415	7
	31	11	796.875	3918.082	-3488.555	1	5246.083	-41.68101	-2.019573E-008	0.0077686	7
	32	11	627.7902	4059.349	-4308.304	1	5919.442	-46.70417	5.788385E-008	0.0077021	7
	33	11	505.5147	4224.362	-5225.108	1	6719.151	-51.04538	-2.898566E-009	0.0077675	7
	34	11	397.9953	4448.94	-6468.102	1	7850.44	-55.47872	2.393123E-010	0.0078148	7
	35	12	315.5048	4729.756	-7961.091	1	9260.106	-59.28507	2.476352E-013	0.0078115	7
	36	12	252.4038	5076.833	-9718.67	1	10964.8	-62.41835	4.743561E-010	0.0077485	6
	37	12	198.6229	5555.648	-12035.37	1	13255.77	-65.22148	4.652111E-010	0.0077521	6
	38	13	158.3615	6146.935	-14718.28	1	15950.31	-67.33265	-4.836443E-010	0.0077469	6
	39	13	125.558	6925.384	-18080.33	1	19361.28	-69.04145	1.336444E-010	0.0077474	6
	40	13	100.4464	7894.789	-22019.04	1	23391.58	-70.27502	5.666962E-010	0.0077453	6
	41	14	79.00281	9338.275	-27067.7	1	28633.26	-70.96572	-3.911149E-010	0.007747	6
	42	14	63.3446	11012.94	-33155.87	1	34937.04	-71.62576	-9.240998E-010	0.0077407	6
	43	14	49.86702	13149.15	-40531.52	1	42611.08	-72.02601	5.618683E-010	0.007741	6
	44	15	39.72458	16151.95	-48743.73	1	51350.14	-71.66663	-1.815855E-010	0.0077465	6
	45	15	31.6723	19889.88	-58843.37	1	62114.01	-71.32403	7.986176E-010	0.0077427	6
	46	15	24.93351	24813.68	-71291.12	1	75486.04	-70.80897	-7.259399E-010	0.0077438	6
	47	16	19.86229	30862.63	-85445.88	1	90848.78	-70.14053	-1.131587E-010	0.0077522	6
	48	16	15.83615	37651.97	-101956.5	1	108686.7	-69.73109	2.490559E-010	0.0077491	5
	49	16	12.40079	49612.79	-121693.6	1	131418.3	-67.81997	1.28668E-009	0.0077487	5
	50	17	9.93114	61425.2	-143850.6	1	156416.2	-66.87717	-4.859833E-011	0.007748	5
	51	17	7.944915	76249.89	-168751.7	1	185178.8	-65.68433	-3.958109E-010	0.0077521	5
	52	18	6.317385	94744.49	-197309.8	1	218878.2	-64.35054	-2.87457E-011	0.0077475	5
	53	19	5.008013	117627.4	-230235.8	1	258543.5	-62.93753	2.836209E-010	0.0077556	5
	54	20	3.945707	146321.2	-267583.6	1	304976.8	-61.32909	-3.494993E-010	0.0077493	5
	55	21	3.158693	176277.1	-305641.3	1	352831.7	-60.02602	-2.137436E-010	0.0077311	5
	56	23	2.504006	213107.2	-349784.6	1	409589.9	-58.64803	3.979627E-011	0.007738	5
	57	24	1.998082	251946.8	-396887.3	1	470102.9	-57.59234	-2.538659E-011	0.0077529	5
	58	25	1.584686	297896	-449899	1	539584.3	-56.48987	-1.778069E-010	0.0077056	5
	59	27	1.266892	345749.7	-509760	1	615953	-55.85254	-2.242816E-010	0.0076908	5
	60	30	0.999041	399423.8	-582077.8	1	705941.8	-55.54195	-2.249521E-010	0.0077137	5
