EXPLAIN
TAG	EISPOT
TITLE	LABEL	Potentiostatic EIS	Test &Identifier
DATE	LABEL	9/24/2019	Date
TIME	LABEL	8:53:53	Time
NOTES	NOTES	1	&Notes...
	
PSTAT	PSTAT	REF600-11020	Potentiostat
VDC	POTEN	0.00000E+000	T	DC &Voltage (V)
FREQINIT	QUANT	1.00000E+006	Initial Fre&q. (Hz)
FREQFINAL	QUANT	1.00000E+000	Final Fre&q. (Hz)
PTSPERDEC	QUANT	1.00000E+001	Points/&decade
VAC	QUANT	2.50000E+001	AC &Voltage (mV rms)
AREA	QUANT	1.00000E-002	&Area (cm^2)
CONDIT	TWOPARAM	T	5.00000E+000	0.00000E+000	Conditionin&g	Time(s)	E(V)
DELAY	TWOPARAM	T	5.00000E+000	0.00000E+000	Init. De&lay	Time(s)	Stab.(mV/s)
SPEED	SELECTOR	1	&Optimize for:
ZGUESS	QUANT	1.00000E+004	E&stimated Z (ohms)
OCVCURVE	TABLE	19
	Pt	T	Vf	Vm	Ach	Over
	#	s	V vs. Ref.	V	V	bits
	0	0.258333	-1.73220E-002	-1.73220E-002	5.62099E-004	...........
	1	0.516667	-1.73478E-002	-1.86723E-002	5.64832E-004	...........
	2	0.775	-1.75056E-002	-1.99218E-002	5.65932E-004	...........
	3	1.03333	-1.79494E-002	-2.10810E-002	5.58332E-004	...........
	4	1.29167	-1.87358E-002	-2.21661E-002	5.67432E-004	...........
	5	1.55	-1.97676E-002	-2.31913E-002	5.62232E-004	...........
	6	1.80833	-2.08931E-002	-2.41615E-002	5.61199E-004	...........
	7	2.06667	-2.20049E-002	-2.50827E-002	5.65632E-004	...........
	8	2.325	-2.30586E-002	-2.59654E-002	5.65932E-004	...........
	9	2.58333	-2.40481E-002	-2.68007E-002	5.61866E-004	...........
	10	2.84167	-2.49811E-002	-2.76004E-002	5.68799E-004	...........
	11	3.1	-2.58661E-002	-2.83715E-002	5.63666E-004	...........
	12	3.35833	-2.67095E-002	-2.91125E-002	5.65666E-004	...........
	13	3.61667	-2.75162E-002	-2.98197E-002	5.64666E-004	...........
	14	3.875	-2.82897E-002	-3.05091E-002	5.69499E-004	...........
	15	4.13333	-2.90329E-002	-3.11731E-002	5.67232E-004	...........
	16	4.39167	-2.97483E-002	-3.18146E-002	5.63566E-004	...........
	17	4.65	-3.04360E-002	-3.23102E-002	5.69132E-004	...........
	18	4.90833	-3.10886E-002	-3.28316E-002	5.65166E-004	...........
EOC	QUANT	-0.0310886	Open Circuit (V)
PSTATMODEL	IQUANT	4	Pstat Model
PSTATSECTION	LABEL	REF600-11020	Pstat Section
PSTATSERIALNO	LABEL	11020	Pstat Serial Number
CTRLMODE	IQUANT	1	Control Mode
IESTAB	IQUANT	0	I/E Stability
CASPEED	IQUANT	1	Control Amp Speed
CONVENTION	IQUANT	1	Current Convention
ICHRANGE	IQUANT	2	Ich Range
ICHRANGEMODE	TOGGLE	F	Ich Auto Range
ICHOFFSETENABLE	TOGGLE	T	Ich Offset Enable
ICHOFFSET	QUANT	0	Ich Offset (V)
ICHFILTER	IQUANT	3	Ich Filter
VCHRANGE	IQUANT	2	Vch Range
VCHRANGEMODE	TOGGLE	F	Vch Auto Range
VCHOFFSETENABLE	TOGGLE	T	Vch Offset Enable
VCHOFFSET	QUANT	0	Vch Offset (V)
VCHFILTER	IQUANT	3	Vch Filter
ACHRANGE	IQUANT	2	Ach Range
ACHOFFSETENABLE	TOGGLE	F	Ach Offset Enable
ACHOFFSET	QUANT	0	Ach Offset (V)
ACHFILTER	IQUANT	3	Ach Filter
IERANGELOWERLIMIT	IQUANT	1	I/E Range Lower Limit
IERANGEMODE	TOGGLE	F	I/E AutoRange
IERANGE	IQUANT	6	I/E Range
POSFEEDENABLE	TOGGLE	F	Positive Feedback IR Comp
POSFEEDRESISTANCE	QUANT	0	Positive Feedback Resistance (ohm)
ACHSELECT	IQUANT	0	Ach Select
CABLEID	IQUANT	14	Cable ID
DCCALDATE	LABEL	8/19/2019	DC Calibration Date
ACCALDATE	LABEL	8/19/2019	AC Calibration Date
THERMOSELECT	IQUANT	1	Thermo Select
FRAMEWORKVERSION	QUANT	6.33	Framework Version
INSTRUMENTVERSION	LABEL	3.50	Instrument Version
ZCURVE	TABLE
	Pt	Time	Freq	Zreal	Zimag	Zsig	Zmod	Zphz	Idc	Vdc	IERange
	#	s	Hz	ohm	ohm	V	ohm	°	A	V	#
	0	2	1000078	1995.907	-1990.719	1	2818.973	-44.92544	-2.323535E-006	-0.0283313	8
	1	3	794390.6	2384.18	-2078.618	1	3163.063	-41.08314	-3.312444E-006	-0.0281338	8
	2	5	630984.4	2801.092	-2122.398	1	3514.355	-37.15135	2.672631E-006	-0.0297886	8
	3	6	501234.4	3241.826	-2110.741	1	3868.418	-33.068	-7.47046E-007	-0.029346	8
	4	7	398109.4	3630.113	-2001.936	1	4145.536	-28.87587	2.292805E-006	-0.0298348	8
	5	9	316265.6	3994.4	-1869.582	1	4410.28	-25.08198	2.011203E-006	-0.0298484	8
	6	10	251203.1	4325.008	-1702.438	1	4648.01	-21.48592	-3.142748E-006	-0.0287596	8
	7	12	199546.9	4542.182	-1519.915	1	4789.735	-18.50139	-9.018653E-007	-0.029219	8
	8	13	158578.1	4720.055	-1356.291	1	4911.054	-16.03182	9.607816E-007	-0.0296145	8
	9	15	125953.1	4948.814	-1128.723	1	5075.902	-12.84821	4.02456E-007	-0.0305673	7
	10	16	100078.1	5052.098	-997.007	1	5149.535	-11.16359	7.000561E-008	-0.0295766	7
	11	18	79453.13	5148.411	-885.7895	1	5224.056	-9.76222	4.280347E-008	-0.0295988	7
	12	19	63140.62	5228.125	-798.2833	1	5288.719	-8.681449	1.323735E-007	-0.0296702	7
	13	20	50203.12	5293.773	-731.5188	1	5344.076	-7.867579	4.489127E-008	-0.0295321	7
	14	22	39890.62	5349.668	-683.347	1	5393.136	-7.279333	-2.994394E-008	-0.0294467	7
	15	23	31640.63	5405.103	-656.5096	1	5444.827	-6.925284	1.335299E-007	-0.0296744	7
	16	24	25171.88	5454.838	-647.8886	1	5493.18	-6.773471	-6.20163E-009	-0.0295194	7
	17	26	20015.62	5504.808	-652.718	1	5543.37	-6.762123	-2.983141E-008	-0.0294409	7
	18	27	15890.62	5556.104	-676.6961	1	5597.161	-6.94404	-3.942961E-008	-0.0294521	7
	19	28	12609.37	5613.347	-720.0714	1	5659.343	-7.309893	-4.246594E-008	-0.02938	7
	20	30	10078.13	5666.157	-777.139	1	5719.203	-7.809649	-3.270213E-008	-0.0294543	7
	21	31	8015.625	5727.076	-858.131	1	5791.009	-8.521663	-1.027485E-009	-0.0294551	7
	22	33	6328.125	5791.33	-964.681	1	5871.125	-9.45712	-3.240832E-008	-0.0294591	7
	23	34	5015.625	5861.038	-1099.029	1	5963.19	-10.62045	-5.727445E-010	-0.0294432	7
	24	35	3984.375	5935.609	-1265.676	1	6069.052	-12.03715	-8.395236E-010	-0.0294443	7
	25	37	3170.956	6015.852	-1471.481	1	6193.201	-13.74471	4.063237E-008	-0.0296092	7
	26	38	2527.573	6102.258	-1722.909	1	6340.818	-15.76647	4.603873E-008	-0.0295276	7
	27	39	1976.103	6210.074	-2062.071	1	6543.482	-18.36888	-4.171354E-008	-0.029381	7
	28	41	1577.524	6327.185	-2445.215	1	6783.24	-21.12961	-6.478251E-009	-0.0295242	7
	29	42	1265.625	6449.574	-2899.171	1	7071.223	-24.20457	-9.476337E-009	-0.0294354	7
	30	44	998.264	6615.748	-3503.511	1	7486.167	-27.90442	4.607044E-008	-0.0295348	7
	31	45	796.875	6788.644	-4201.509	1	7983.631	-31.75347	-5.232297E-010	-0.0294442	7
	32	46	627.7902	7013.686	-5107.611	1	8676.374	-36.06342	-1.680968E-008	-0.0294997	7
	33	48	505.5147	7241.263	-6103.389	1	9470.335	-40.12628	1.887552E-008	-0.0295617	7
	34	49	397.9953	7552.805	-7455.192	1	10612.48	-44.62735	2.426074E-009	-0.0295199	6
	35	50	315.5048	7900.217	-9073.351	1	12030.76	-48.95373	2.45071E-009	-0.0295213	6
	36	52	252.4038	8293.653	-10979.5	1	13759.87	-52.93348	3.043682E-009	-0.0295254	6
	37	53	198.6229	8798.056	-13501.55	1	16115.14	-56.91041	3.398798E-009	-0.0295218	6
	38	54	158.3615	9390.63	-16442.54	1	18935.18	-60.26854	3.708851E-009	-0.0295203	6
	39	56	125.558	10140.25	-20152.36	1	22559.75	-63.2894	3.10415E-009	-0.0295214	6
	40	57	100.4464	11074.17	-24530.46	1	26914.33	-65.70341	3.797888E-009	-0.0295241	6
	41	59	79.00281	12275.25	-30409.25	1	32793.36	-68.01763	2.600149E-009	-0.0295199	6
	42	60	63.3446	13750.07	-37280.1	1	39735	-69.75445	2.281305E-009	-0.029528	6
	43	61	49.86702	15678.01	-45311.68	1	47947.35	-70.91418	2.367174E-009	-0.029526	6
	44	63	39.72458	18512.48	-55532.67	1	58537.08	-71.56358	3.18935E-009	-0.0295238	6
	45	64	31.6723	22057.72	-67394.31	1	70912.17	-71.87707	2.671401E-009	-0.029525	6
	46	66	24.93351	26955.67	-82864.45	1	87138.55	-71.98038	2.856045E-009	-0.0295297	6
	47	67	19.86229	32878.67	-100441	1	105685.4	-71.8745	3.304543E-009	-0.0295141	6
	48	68	15.83615	41453.7	-120807.5	1	127721.9	-71.06094	1.777469E-009	-0.0295275	5
	49	70	12.40079	51831.56	-147264.5	1	156119.7	-70.60986	2.329061E-009	-0.0295252	5
	50	71	9.93114	65609.9	-175856.1	1	187696.7	-69.54003	2.711107E-009	-0.0295269	5
	51	73	7.944915	81335.13	-208882.6	1	224159.2	-68.72496	1.556794E-009	-0.0295171	5
	52	74	6.317385	104572.7	-247913.6	1	269066.2	-67.12945	1.793622E-009	-0.0295108	5
	53	76	5.008013	132969.2	-292522.8	1	321326	-65.55535	1.910278E-009	-0.029525	5
	54	79	3.945707	169208.6	-343705.2	1	383098.9	-63.78864	2.311854E-009	-0.029511	5
	55	81	3.158693	211236.3	-397210.5	1	449885.5	-61.99598	1.917806E-009	-0.0295101	5
	56	85	2.504006	263523.2	-457471.3	1	527943.7	-60.0562	2.049847E-009	-0.0295195	5
	57	87	1.998082	322565.3	-520595.8	1	612428.3	-58.21732	1.660945E-009	-0.0295066	5
	58	91	1.584686	395741.6	-589261.4	1	709817.2	-56.11512	1.966157E-009	-0.0294639	5
	59	94	1.266892	472730.8	-660336	1	812107.1	-54.40134	1.610908E-009	-0.0295083	5
	60	98	0.999041	566649.8	-739212.9	1	931411.7	-52.52773	2.141929E-009	-0.0295038	5
