EXPLAIN
TAG	EISPOT
TITLE	LABEL	Potentiostatic EIS	Test &Identifier
DATE	LABEL	11/9/2019	Date
TIME	LABEL	11:14:42	Time
NOTES	NOTES	2	&Notes...
	
	
PSTAT	PSTAT	REF600-11020	Potentiostat
VDC	POTEN	0.00000E+000	T	DC &Voltage (V)
FREQINIT	QUANT	1.00000E+006	Initial Fre&q. (Hz)
FREQFINAL	QUANT	1.00000E+000	Final Fre&q. (Hz)
PTSPERDEC	QUANT	1.00000E+001	Points/&decade
VAC	QUANT	2.50000E+001	AC &Voltage (mV rms)
AREA	QUANT	1.00000E-002	&Area (cm^2)
CONDIT	TWOPARAM	T	5.00000E+000	0.00000E+000	Conditionin&g	Time(s)	E(V)
DELAY	TWOPARAM	T	5.00000E+000	0.00000E+000	Init. De&lay	Time(s)	Stab.(mV/s)
SPEED	SELECTOR	0	&Optimize for:
ZGUESS	QUANT	1.00000E+005	E&stimated Z (ohms)
OCVCURVE	TABLE	19
	Pt	T	Vf	Vm	Ach	Over
	#	s	V vs. Ref.	V	V	bits
	0	0.258333	4.37197E-001	4.37197E-001	5.78507E-004	...........
	1	0.516667	4.37861E-001	4.71923E-001	5.76074E-004	...........
	2	0.775	4.41875E-001	5.01718E-001	5.68441E-004	...........
	3	1.03333	4.52980E-001	5.27632E-001	5.64874E-004	...........
	4	1.29167	4.72201E-001	5.50284E-001	5.70874E-004	...........
	5	1.55	4.96583E-001	5.70216E-001	5.72207E-004	...........
	6	1.80833	5.21987E-001	5.87944E-001	5.67007E-004	...........
	7	2.06667	5.45680E-001	6.03764E-001	5.74807E-004	...........
	8	2.325	5.66704E-001	6.18062E-001	5.76441E-004	...........
	9	2.58333	5.85148E-001	6.30920E-001	5.73807E-004	...........
	10	2.84167	6.01439E-001	6.42658E-001	5.71141E-004	...........
	11	3.1	6.15990E-001	6.53387E-001	5.64541E-004	...........
	12	3.35833	6.29116E-001	6.63337E-001	5.71074E-004	...........
	13	3.61667	6.41050E-001	6.72518E-001	5.73407E-004	...........
	14	3.875	6.51974E-001	6.81026E-001	5.70141E-004	...........
	15	4.13333	6.62031E-001	6.89020E-001	5.75641E-004	...........
	16	4.39167	6.71331E-001	6.96469E-001	5.73574E-004	...........
	17	4.65	6.79970E-001	7.03495E-001	5.79307E-004	...........
	18	4.90833	6.88027E-001	7.10050E-001	5.78007E-004	...........
EOC	QUANT	0.6880267	Open Circuit (V)
PSTATMODEL	IQUANT	4	Pstat Model
PSTATSECTION	LABEL	REF600-11020	Pstat Section
PSTATSERIALNO	LABEL	11020	Pstat Serial Number
CTRLMODE	IQUANT	1	Control Mode
IESTAB	IQUANT	0	I/E Stability
CASPEED	IQUANT	1	Control Amp Speed
CONVENTION	IQUANT	1	Current Convention
ICHRANGE	IQUANT	2	Ich Range
ICHRANGEMODE	TOGGLE	F	Ich Auto Range
ICHOFFSETENABLE	TOGGLE	T	Ich Offset Enable
ICHOFFSET	QUANT	0	Ich Offset (V)
ICHFILTER	IQUANT	3	Ich Filter
VCHRANGE	IQUANT	2	Vch Range
VCHRANGEMODE	TOGGLE	F	Vch Auto Range
VCHOFFSETENABLE	TOGGLE	T	Vch Offset Enable
VCHOFFSET	QUANT	0	Vch Offset (V)
VCHFILTER	IQUANT	3	Vch Filter
ACHRANGE	IQUANT	2	Ach Range
ACHOFFSETENABLE	TOGGLE	F	Ach Offset Enable
ACHOFFSET	QUANT	0	Ach Offset (V)
ACHFILTER	IQUANT	2	Ach Filter
IERANGELOWERLIMIT	IQUANT	1	I/E Range Lower Limit
IERANGEMODE	TOGGLE	F	I/E AutoRange
IERANGE	IQUANT	7	I/E Range
POSFEEDENABLE	TOGGLE	F	Positive Feedback IR Comp
POSFEEDRESISTANCE	QUANT	0	Positive Feedback Resistance (ohm)
ACHSELECT	IQUANT	0	Ach Select
CABLEID	IQUANT	14	Cable ID
DCCALDATE	LABEL	8/19/2019	DC Calibration Date
ACCALDATE	LABEL	8/19/2019	AC Calibration Date
THERMOSELECT	IQUANT	1	Thermo Select
FRAMEWORKVERSION	QUANT	6.33	Framework Version
INSTRUMENTVERSION	LABEL	3.50	Instrument Version
ZCURVE	TABLE
	Pt	Time	Freq	Zreal	Zimag	Zsig	Zmod	Zphz	Idc	Vdc	IERange
	#	s	Hz	ohm	ohm	V	ohm	°	A	V	#
	0	1	1000078	1882.476	-1232.064	1	2249.822	-33.2044	1.597875E-005	0.68881	8
	1	1	794390.6	2079.371	-1285.152	1	2444.463	-31.71807	-1.532628E-005	0.6912978	8
	2	2	630984.4	2299.103	-1311.614	1	2646.924	-29.70429	2.394173E-006	0.6893188	8
	3	2	501234.4	2520.981	-1313.36	1	2842.58	-27.51823	-8.690658E-007	0.6893228	8
	4	2	398109.4	2739.073	-1301.511	1	3032.565	-25.41542	-4.097915E-008	0.6892015	8
	5	3	316265.6	2958.75	-1280.763	1	3224.06	-23.40649	2.644491E-006	0.6889424	8
	6	3	251203.1	3143.868	-1242.1	1	3380.343	-21.5583	7.158625E-006	0.6881917	8
	7	3	199546.9	3315.335	-1200.76	1	3526.084	-19.90956	8.234655E-006	0.6886524	8
	8	4	158578.1	3496.709	-1147.481	1	3680.175	-18.16777	-1.809707E-006	0.6900791	8
	9	4	125953.1	3691.201	-1094.337	1	3850.005	-16.5136	3.515318E-006	0.6871068	7
	10	4	100078.1	3800.481	-1036.765	1	3939.357	-15.25891	-3.667789E-007	0.6911693	7
	11	5	79453.13	3908.199	-1020.47	1	4039.23	-14.63377	-1.367059E-006	0.6902585	7
	12	5	63140.62	4026.539	-1030.232	1	4156.248	-14.35184	-3.496969E-007	0.6911662	7
	13	5	50203.12	4148.698	-1038.551	1	4276.714	-14.05414	2.477446E-008	0.6879368	7
	14	6	39890.62	4261.618	-1072.385	1	4394.474	-14.12454	4.77905E-007	0.6901191	7
	15	6	31640.63	4374.616	-1113.509	1	4514.107	-14.28074	2.567147E-008	0.6879434	7
	16	6	25171.88	4505.502	-1180.508	1	4657.59	-14.68229	2.899847E-008	0.6879388	7
	17	7	20015.62	4633.937	-1272.527	1	4805.485	-15.35549	1.00515E-006	0.6891804	7
	18	7	15890.62	4783.336	-1354.225	1	4971.341	-15.80752	4.861295E-007	0.6901047	7
	19	7	12609.37	4924.237	-1451.799	1	5133.792	-16.42695	-1.354801E-006	0.6902601	7
	20	7	10078.13	5109.688	-1589.041	1	5351.071	-17.27496	9.494967E-008	0.6906571	7
	21	8	8015.625	5295.37	-1719.154	1	5567.444	-17.98614	9.980032E-008	0.6906563	7
	22	8	6328.125	5505.315	-1894.355	1	5822.12	-18.98812	1.21031E-006	0.6885804	7
	23	8	5015.625	5721.268	-2075.138	1	6085.976	-19.93601	1.279302E-006	0.6877083	7
	24	9	3984.375	5945.308	-2290.562	1	6371.292	-21.07029	1.217289E-006	0.6885938	7
	25	9	3170.956	6163.326	-2527.59	1	6661.479	-22.29861	1.118674E-006	0.6874678	7
	26	10	2527.573	6436.037	-2815.86	1	7025.072	-23.63008	1.114279E-006	0.6874728	7
	27	10	1976.103	6728.641	-3194.512	1	7448.458	-25.39666	1.120107E-006	0.6874804	7
	28	10	1577.524	7082.482	-3626.943	1	7957.152	-27.11701	1.222972E-006	0.6885805	7
	29	11	1265.625	7439.224	-4080.242	1	8484.718	-28.74375	1.268027E-006	0.6877067	7
	30	11	998.264	7842.668	-4615.209	1	9099.868	-30.47572	-4.653885E-007	0.6885849	7
	31	11	796.875	8398.012	-5257.309	1	9907.87	-32.04732	1.198477E-007	0.6906375	7
	32	12	627.7902	9028.726	-5929.48	1	10801.7	-33.29431	-1.441983E-007	0.6889066	6
	33	12	505.5147	9722.33	-6660.055	1	11784.74	-34.41218	5.234049E-008	0.6865959	6
	34	12	397.9953	10556.13	-7517.245	1	12959.2	-35.45549	-2.252811E-008	0.6894928	6
	35	13	315.5048	11444.94	-8426.906	1	14212.65	-36.36422	-2.382993E-008	0.6894963	6
	36	13	252.4038	12356.22	-9400.247	1	15525.49	-37.26281	-2.203686E-008	0.6894875	6
	37	13	198.6229	13391.12	-10590.51	1	17072.81	-38.33908	-2.056656E-008	0.6894828	6
	38	14	158.3615	14446.97	-11908.54	1	18722.4	-39.49853	-2.110078E-008	0.6894839	6
	39	14	125.558	15601.35	-13538.23	1	20656.38	-40.95016	-1.938447E-008	0.6894909	6
	40	14	100.4464	16877.7	-15444.07	1	22877.41	-42.46033	-1.864936E-008	0.689494	6
	41	15	79.00281	18383.09	-17916.94	1	25670.11	-44.26428	-1.613347E-008	0.6894801	6
	42	15	63.3446	20091.7	-20023.3	1	28365.63	-44.90231	-1.645201E-008	0.6894763	6
	43	15	49.86702	22321.81	-23557.13	1	32453.06	-46.54235	-1.573005E-008	0.6894898	6
	44	16	39.72458	24778.99	-27494.76	1	37012.98	-47.97401	-1.562965E-008	0.6894919	6
	45	16	31.6723	27660.64	-31800.78	1	42147.37	-48.98292	-1.395326E-008	0.6894885	6
	46	16	24.93351	31770.58	-36929.74	1	48715.25	-49.29465	-1.359446E-008	0.6894868	6
	47	17	19.86229	36383.98	-42306.6	1	55800.02	-49.30423	-1.488853E-008	0.6894884	6
	48	17	15.83615	41465.36	-47746.64	1	63238.58	-49.02747	-9.333923E-009	0.6894899	6
	49	17	12.40079	48821.36	-55094.63	1	73613.48	-48.45467	-1.172667E-008	0.6894842	6
	50	18	9.93114	55144.55	-61649.61	1	82713.95	-48.1879	-1.19465E-008	0.689496	6
	51	18	7.944915	62914.44	-68789.13	1	93221.09	-47.55401	-7.652512E-009	0.689473	6
	52	19	6.317385	71671.78	-77176.8	1	105323.8	-47.11806	-6.715051E-009	0.6894827	5
	53	20	5.008013	81498.3	-86380.18	1	118758.2	-46.66568	-5.848835E-009	0.6894892	5
	54	21	3.945707	92542.23	-97025.2	1	134081.9	-46.35469	-3.825592E-009	0.6894873	5
	55	22	3.158693	103687	-109090.4	1	150504.8	-46.4547	-2.105323E-009	0.6894783	5
	56	24	2.504006	116538.1	-123002.1	1	169442.2	-46.54575	3.371578E-010	0.6894763	5
	57	25	1.998082	130329.9	-139058	1	190586	-46.85573	2.386764E-009	0.6895065	5
	58	27	1.584686	146492.7	-157933.4	1	215413.7	-47.15224	3.922226E-009	0.6894643	5
	59	29	1.266892	165264.5	-180275	1	244563.7	-47.48741	5.832569E-009	0.6894383	5
	60	31	0.999041	187587.9	-208586.6	1	280530.9	-48.03405	7.534395E-009	0.6894361	5
