EXPLAIN
TAG	EISPOT
TITLE	LABEL	Potentiostatic IDE	Test &Identifier
DATE	LABEL	9/12/2019	Date
TIME	LABEL	9:49:54	Time
NOTES	NOTES	1	&Notes...
	
PSTAT	PSTAT	REF600-11020	Potentiostat
VDC	POTEN	0.00000E+000	T	DC &Voltage (V)
FREQINIT	QUANT	1.00000E+006	Initial Fre&q. (Hz)
FREQFINAL	QUANT	1.00000E+000	Final Fre&q. (Hz)
PTSPERDEC	QUANT	1.00000E+001	Points/&decade
VAC	QUANT	2.50000E+001	AC &Voltage (mV rms)
AREA	QUANT	1.00000E-002	&Area (cm^2)
CONDIT	TWOPARAM	T	5.00000E+000	0.00000E+000	Conditionin&g	Time(s)	E(V)
DELAY	TWOPARAM	T	5.00000E+000	0.00000E+000	Init. De&lay	Time(s)	Stab.(mV/s)
SPEED	SELECTOR	1	&Optimize for:
ZGUESS	QUANT	1.00000E+007	E&stimated Z (ohms)
OCVCURVE	TABLE	19
	Pt	T	Vf	Vm	Ach	Over
	#	s	V vs. Ref.	V	V	bits
	0	0.258333	6.86429E-003	6.86429E-003	5.64832E-004	...........
	1	0.516667	6.86380E-003	6.83866E-003	5.64066E-004	...........
	2	0.775	6.86106E-003	6.82858E-003	5.61399E-004	...........
	3	1.03333	6.85452E-003	6.83419E-003	5.63399E-004	...........
	4	1.29167	6.84596E-003	6.84611E-003	5.62732E-004	...........
	5	1.55	6.84021E-003	6.86500E-003	5.61366E-004	...........
	6	1.80833	6.84126E-003	6.88423E-003	5.60699E-004	...........
	7	2.06667	6.85001E-003	6.90829E-003	5.59432E-004	...........
	8	2.325	6.86512E-003	6.93325E-003	5.60266E-004	...........
	9	2.58333	6.88461E-003	6.95356E-003	5.62666E-004	...........
	10	2.84167	6.90658E-003	6.97724E-003	5.61499E-004	...........
	11	3.1	6.92963E-003	7.00794E-003	5.59199E-004	...........
	12	3.35833	6.95359E-003	7.04109E-003	5.65566E-004	...........
	13	3.61667	6.97945E-003	7.07325E-003	5.66132E-004	...........
	14	3.875	7.00788E-003	7.10523E-003	5.62566E-004	...........
	15	4.13333	7.03840E-003	7.13147E-003	5.57233E-004	...........
	16	4.39167	7.06958E-003	7.16078E-003	5.56133E-004	...........
	17	4.65	7.10010E-003	7.18700E-003	5.60599E-004	...........
	18	4.90833	7.12943E-003	7.21525E-003	5.64299E-004	...........
EOC	QUANT	0.0071294	Open Circuit (V)
PSTATMODEL	IQUANT	4	Pstat Model
PSTATSECTION	LABEL	REF600-11020	Pstat Section
PSTATSERIALNO	LABEL	11020	Pstat Serial Number
CTRLMODE	IQUANT	1	Control Mode
IESTAB	IQUANT	0	I/E Stability
CASPEED	IQUANT	1	Control Amp Speed
CONVENTION	IQUANT	1	Current Convention
ICHRANGE	IQUANT	2	Ich Range
ICHRANGEMODE	TOGGLE	F	Ich Auto Range
ICHOFFSETENABLE	TOGGLE	T	Ich Offset Enable
ICHOFFSET	QUANT	0	Ich Offset (V)
ICHFILTER	IQUANT	3	Ich Filter
VCHRANGE	IQUANT	2	Vch Range
VCHRANGEMODE	TOGGLE	F	Vch Auto Range
VCHOFFSETENABLE	TOGGLE	T	Vch Offset Enable
VCHOFFSET	QUANT	0	Vch Offset (V)
VCHFILTER	IQUANT	3	Vch Filter
ACHRANGE	IQUANT	2	Ach Range
ACHOFFSETENABLE	TOGGLE	F	Ach Offset Enable
ACHOFFSET	QUANT	0	Ach Offset (V)
ACHFILTER	IQUANT	3	Ach Filter
IERANGELOWERLIMIT	IQUANT	1	I/E Range Lower Limit
IERANGEMODE	TOGGLE	F	I/E AutoRange
IERANGE	IQUANT	3	I/E Range
POSFEEDENABLE	TOGGLE	F	Positive Feedback IR Comp
POSFEEDRESISTANCE	QUANT	0	Positive Feedback Resistance (ohm)
ACHSELECT	IQUANT	0	Ach Select
CABLEID	IQUANT	14	Cable ID
DCCALDATE	LABEL	8/19/2019	DC Calibration Date
ACCALDATE	LABEL	8/19/2019	AC Calibration Date
THERMOSELECT	IQUANT	1	Thermo Select
FRAMEWORKVERSION	QUANT	6.33	Framework Version
INSTRUMENTVERSION	LABEL	3.50	Instrument Version
ZCURVE	TABLE
	Pt	Time	Freq	Zreal	Zimag	Zsig	Zmod	Zphz	Idc	Vdc	IERange
	#	s	Hz	ohm	ohm	V	ohm	°	A	V	#
	0	2	1000078	2433.417	-1607.524	1	2916.445	-33.4489	8.096984E-007	0.0094931	8
	1	3	794390.6	2748.507	-1531.092	1	3146.193	-29.12058	-1.10854E-006	0.0095723	8
	2	4	630984.4	3013.337	-1386.141	1	3316.865	-24.70253	3.369026E-006	0.0085283	8
	3	6	501234.4	3234.252	-1217.219	1	3455.721	-20.62395	-5.536639E-006	0.0101838	8
	4	7	398109.4	3436.359	-1071.461	1	3599.527	-17.31754	5.105788E-007	0.0088483	8
	5	9	316265.6	3553.421	-927.1066	1	3672.374	-14.62279	4.046699E-006	0.0081746	8
	6	10	251203.1	3634.14	-782.4017	1	3717.408	-12.14988	-1.000467E-006	0.0092382	8
	7	11	199546.9	3695.631	-676.6931	1	3757.074	-10.37627	2.077069E-006	0.0085077	8
	8	13	158578.1	3754.054	-596.8885	1	3801.21	-9.034313	-7.203038E-007	0.0091225	8
	9	14	125953.1	3824.494	-460.706	1	3852.143	-6.868865	2.514022E-007	0.008437	7
	10	15	100078.1	3846.8	-418.7374	1	3869.524	-6.212381	3.469144E-008	0.0088535	7
	11	17	79453.13	3877.917	-395.2436	1	3898.007	-5.819583	-4.401377E-009	0.0088209	7
	12	18	63140.62	3906.939	-379.9101	1	3925.367	-5.553971	-4.630243E-008	0.0089105	7
	13	19	50203.12	3937.421	-373.9357	1	3955.137	-5.425093	3.397415E-008	0.0088413	7
	14	21	39890.62	3965.918	-375.1343	1	3983.62	-5.403504	8.6311E-008	0.0086933	7
	15	22	31640.63	4000.752	-392.4318	1	4019.952	-5.602193	-3.625261E-008	0.0088741	7
	16	23	25171.88	4034.096	-416.027	1	4055.492	-5.887966	-4.237375E-008	0.0088892	7
	17	25	20015.62	4068.78	-448.8062	1	4093.458	-6.294556	7.707069E-008	0.0087345	7
	18	26	15890.62	4111.434	-491.0861	1	4140.659	-6.811366	1.384931E-007	0.0086606	7
	19	27	12609.37	4152.283	-549.2401	1	4188.45	-7.535015	1.946122E-008	0.0087838	7
	20	29	10078.13	4199.516	-617.5933	1	4244.685	-8.366119	-2.31774E-008	0.0088477	7
	21	30	8015.625	4247.958	-701.4702	1	4305.486	-9.376699	-4.110016E-008	0.0088952	7
	22	32	6328.125	4306.254	-809.8545	1	4381.745	-10.65091	-3.56588E-008	0.0088726	7
	23	33	5015.625	4369.239	-938.5875	1	4468.915	-12.12387	1.247808E-009	0.0088043	7
	24	35	3984.375	4437.329	-1093.533	1	4570.087	-13.84408	-4.042191E-008	0.0088924	7
	25	36	3170.956	4514.912	-1282.093	1	4693.419	-15.85287	4.982687E-009	0.0088011	7
	26	38	2527.573	4600.071	-1508.365	1	4841.055	-18.15434	-5.172659E-008	0.0089659	7
	27	39	1976.103	4705.552	-1806.349	1	5040.349	-21.00061	7.711753E-008	0.0088259	7
	28	41	1577.524	4813.726	-2140.822	1	5268.309	-23.97629	-2.141308E-008	0.0088506	7
	29	42	1265.625	4941.792	-2537.922	1	5555.391	-27.18336	-8.826999E-009	0.0088919	7
	30	44	998.264	5090.376	-3051.946	1	5935.175	-30.94489	-4.154813E-008	0.0088946	7
	31	45	796.875	5256.75	-3654.901	1	6402.478	-34.81002	7.943488E-008	0.0088312	7
	32	46	627.7902	5463.829	-4423.492	1	7029.987	-38.99348	-1.161817E-008	0.0089115	7
	33	48	505.5147	5683.642	-5281.022	1	7758.413	-42.89706	-1.05385E-008	0.0089147	7
	34	49	397.9953	5964.979	-6430.071	1	8770.792	-47.14886	4.88854E-009	0.008874	7
	35	51	315.5048	6290.57	-7798.831	1	10019.63	-51.11021	1.834989E-009	0.0088168	6
	36	52	252.4038	6653.297	-9406.695	1	11521.82	-54.72847	6.49767E-010	0.0088071	6
	37	53	198.6229	7115.137	-11522.55	1	13542.31	-58.3048	1.170579E-009	0.0088148	6
	38	55	158.3615	7633.703	-13985.23	1	15932.99	-61.37252	5.44386E-010	0.0088124	6
	39	56	125.558	8271.675	-17078.95	1	18976.59	-64.15816	9.358306E-010	0.00882	6
	40	58	100.4464	8996.154	-20727.81	1	22595.86	-66.5385	6.774237E-010	0.0088154	6
	41	59	79.00281	9967.88	-25577.78	1	27451.44	-68.70871	1.63388E-009	0.0088109	6
	42	60	63.3446	10927.37	-31143.21	1	33004.64	-70.66531	1.460893E-009	0.0088141	6
	43	62	49.86702	12909.66	-38245.73	1	40365.77	-71.34814	5.243639E-010	0.008807	6
	44	63	39.72458	14779.29	-46846.55	1	49122.57	-72.49039	9.003869E-010	0.0088108	6
	45	64	31.6723	17360.32	-57250.1	1	59824.37	-73.13078	7.660249E-010	0.0088102	6
	46	66	24.93351	20911.34	-70432.98	1	73471.68	-73.464	1.060505E-009	0.0088048	6
	47	67	19.86229	25487.27	-85617.7	1	89330.8	-73.42242	1.263891E-009	0.0088166	6
	48	68	15.83615	30503.33	-104085.8	1	108463.4	-73.66628	-5.630845E-011	0.0088149	5
	49	70	12.40079	39745.38	-128358.3	1	134370.9	-72.79517	1.00753E-009	0.0088171	5
	50	71	9.93114	49789.89	-152920.4	1	160821.9	-71.96508	1.292395E-010	0.008816	5
	51	73	7.944915	62666.49	-183419.7	1	193829.5	-71.13695	3.732378E-010	0.0088122	5
	52	74	6.317385	79096.72	-219169.9	1	233005.8	-70.15588	4.547152E-010	0.0088022	5
	53	77	5.008013	100511.8	-261930.9	1	280553.8	-69.00648	1.755995E-010	0.0088098	5
	54	79	3.945707	128604.1	-312637.8	1	338055.3	-67.6401	9.348902E-011	0.0088082	5
	55	82	3.158693	161242.5	-366415.8	1	400324.5	-66.24795	3.697022E-010	0.0088112	5
	56	85	2.504006	202934.9	-430472.7	1	475909	-64.75971	-4.515713E-011	0.0088184	5
	57	88	1.998082	251403.3	-496727.8	1	556724.5	-63.15517	4.730525E-010	0.0087816	5
	58	91	1.584686	312021.4	-577062.6	1	656017.2	-61.59962	9.76594E-011	0.0087686	5
	59	94	1.266892	379070.6	-656983.4	1	758499.6	-60.01564	3.546473E-010	0.0087822	5
	60	99	0.999041	458830	-751115.8	1	880170.4	-58.58072	1.145384E-011	0.0088222	5
