EXPLAIN
TAG	EISPOT
TITLE	LABEL	Potentiostatic EIS	Test &Identifier
DATE	LABEL	8/14/2018	Date
TIME	LABEL	5:46:42	Time
NOTES	NOTES	1	&Notes...
	
PSTAT	PSTAT	REF600-11020	Potentiostat
VDC	POTEN	0.00000E+000	T	DC &Voltage (V)
FREQINIT	QUANT	1.00000E+006	Initial Fre&q. (Hz)
FREQFINAL	QUANT	1.00000E+000	Final Fre&q. (Hz)
PTSPERDEC	QUANT	1.00000E+001	Points/&decade
VAC	QUANT	2.50000E+001	AC &Voltage (mV rms)
AREA	QUANT	1.00000E-002	&Area (cm^2)
CONDIT	TWOPARAM	T	5.00000E+000	0.00000E+000	Conditionin&g	Time(s)	E(V)
DELAY	TWOPARAM	T	5.00000E+000	0.00000E+000	Init. De&lay	Time(s)	Stab.(mV/s)
SPEED	SELECTOR	0	&Optimize for:
ZGUESS	QUANT	1.00000E+005	E&stimated Z (ohms)
OCVCURVE	TABLE	19
	Pt	T	Vf	Vm	Ach	Over
	#	s	V vs. Ref.	V	V	bits
	0	0.258333	1.22728E-001	1.22728E-001	6.13198E-004	...........
	1	0.516667	1.22859E-001	1.29601E-001	6.17298E-004	...........
	2	0.775	1.23656E-001	1.35616E-001	6.24465E-004	...........
	3	1.03333	1.25870E-001	1.40935E-001	6.19898E-004	...........
	4	1.29167	1.29724E-001	1.45684E-001	6.14998E-004	...........
	5	1.55	1.34657E-001	1.49963E-001	6.23298E-004	...........
	6	1.80833	1.39863E-001	1.53844E-001	6.22032E-004	...........
	7	2.06667	1.44801E-001	1.57391E-001	6.22298E-004	...........
	8	2.325	1.49274E-001	1.60654E-001	6.18532E-004	...........
	9	2.58333	1.53288E-001	1.63670E-001	6.22732E-004	...........
	10	2.84167	1.56915E-001	1.66475E-001	6.29031E-004	...........
	11	3.1	1.60230E-001	1.69090E-001	6.27765E-004	...........
	12	3.35833	1.63286E-001	1.71547E-001	6.17565E-004	...........
	13	3.61667	1.66124E-001	1.73859E-001	6.27531E-004	...........
	14	3.875	1.68771E-001	1.76044E-001	6.18098E-004	...........
	15	4.13333	1.71253E-001	1.78114E-001	6.18665E-004	...........
	16	4.39167	1.73587E-001	1.80081E-001	6.18665E-004	...........
	17	4.65	1.75791E-001	1.81958E-001	6.21532E-004	...........
	18	4.90833	1.77879E-001	1.83755E-001	6.16398E-004	...........
EOC	QUANT	0.1778786	Open Circuit (V)
PSTATMODEL	IQUANT	4	Pstat Model
PSTATSECTION	LABEL	REF600-11020	Pstat Section
PSTATSERIALNO	LABEL	11020	Pstat Serial Number
CTRLMODE	IQUANT	1	Control Mode
IESTAB	IQUANT	0	I/E Stability
CASPEED	IQUANT	1	Control Amp Speed
CONVENTION	IQUANT	1	Current Convention
ICHRANGE	IQUANT	2	Ich Range
ICHRANGEMODE	TOGGLE	F	Ich Auto Range
ICHOFFSETENABLE	TOGGLE	T	Ich Offset Enable
ICHOFFSET	QUANT	0	Ich Offset (V)
ICHFILTER	IQUANT	3	Ich Filter
VCHRANGE	IQUANT	2	Vch Range
VCHRANGEMODE	TOGGLE	F	Vch Auto Range
VCHOFFSETENABLE	TOGGLE	T	Vch Offset Enable
VCHOFFSET	QUANT	0	Vch Offset (V)
VCHFILTER	IQUANT	3	Vch Filter
ACHRANGE	IQUANT	2	Ach Range
ACHOFFSETENABLE	TOGGLE	F	Ach Offset Enable
ACHOFFSET	QUANT	0	Ach Offset (V)
ACHFILTER	IQUANT	3	Ach Filter
IERANGELOWERLIMIT	IQUANT	1	I/E Range Lower Limit
IERANGEMODE	TOGGLE	F	I/E AutoRange
IERANGE	IQUANT	6	I/E Range
POSFEEDENABLE	TOGGLE	F	Positive Feedback IR Comp
POSFEEDRESISTANCE	QUANT	0	Positive Feedback Resistance (ohm)
ACHSELECT	IQUANT	0	Ach Select
CABLEID	IQUANT	14	Cable ID
DCCALDATE	LABEL	8/19/2019	DC Calibration Date
ACCALDATE	LABEL	8/19/2019	AC Calibration Date
THERMOSELECT	IQUANT	1	Thermo Select
FRAMEWORKVERSION	QUANT	6.33	Framework Version
INSTRUMENTVERSION	LABEL	3.50	Instrument Version
ZCURVE	TABLE
	Pt	Time	Freq	Zreal	Zimag	Zsig	Zmod	Zphz	Idc	Vdc	IERange
	#	s	Hz	ohm	ohm	V	ohm	°	A	V	#
	0	1	1000078	1888.572	-1037.737	1	2154.901	-28.78801	5.880197E-006	0.1790974	8
	1	1	794390.6	2050.664	-1047.137	1	2302.547	-27.05036	-2.278136E-006	0.1798807	8
	2	2	630984.4	2223.292	-1041.623	1	2455.2	-25.10331	3.642446E-006	0.1790327	8
	3	2	501234.4	2384.756	-1031.627	1	2598.33	-23.39294	2.425176E-006	0.1789874	8
	4	2	398109.4	2553.73	-1027.091	1	2752.535	-21.90962	6.221688E-007	0.1795572	8
	5	3	316265.6	2703.324	-1000.512	1	2882.531	-20.30974	7.899269E-007	0.1795324	8
	6	3	251203.1	2853.643	-964.946	1	3012.374	-18.68273	3.797798E-006	0.1788312	8
	7	3	199546.9	2985.997	-930.0918	1	3127.499	-17.301	-1.213562E-006	0.1797632	8
	8	4	158578.1	3065.798	-908.5406	1	3197.587	-16.50704	2.616677E-006	0.1789761	8
	9	4	125953.1	3264.384	-820.0818	1	3365.819	-14.10207	-7.898533E-007	0.1805933	7
	10	4	100078.1	3363.264	-811.4221	1	3459.761	-13.56399	-6.640738E-009	0.1794632	7
	11	5	79453.13	3470.854	-818.8125	1	3566.129	-13.27401	1.047119E-007	0.1793642	7
	12	5	63140.62	3572.094	-829.5569	1	3667.154	-13.0742	-5.713981E-008	0.1796904	7
	13	5	50203.12	3672.436	-847.8279	1	3769.031	-12.99969	-3.770595E-008	0.1795749	7
	14	6	39890.62	3775.208	-874.7653	1	3875.23	-13.04595	-1.068039E-008	0.1794534	7
	15	6	31640.63	3882.143	-912.4484	1	3987.931	-13.22658	-5.037641E-008	0.1795306	7
	16	6	25171.88	3993.131	-962.474	1	4107.487	-13.55165	-3.747623E-008	0.1795739	7
	17	6	20015.62	4112.849	-1026.022	1	4238.897	-14.00752	6.019491E-008	0.1793635	7
	18	7	15890.62	4234.003	-1091.501	1	4372.431	-14.45577	5.455665E-008	0.179412	7
	19	7	12609.37	4364.798	-1176.759	1	4520.644	-15.08833	-1.318695E-008	0.1795455	7
	20	7	10078.13	4496.108	-1270.042	1	4672.044	-15.7737	-6.097005E-008	0.1795733	7
	21	8	8015.625	4613.781	-1373.594	1	4813.911	-16.57908	-5.243295E-008	0.1795336	7
	22	8	6328.125	4791.244	-1527.035	1	5028.703	-17.67779	-4.977632E-008	0.1795256	7
	23	8	5015.625	4953.741	-1695.905	1	5235.995	-18.89855	-5.35206E-008	0.1795347	7
	24	9	3984.375	5150.162	-1917.964	1	5495.703	-20.42575	3.11597E-008	0.1794629	7
	25	9	3170.956	5323.222	-2132.151	1	5734.349	-21.82796	1.01349E-007	0.179343	7
	26	9	2527.573	5534.402	-2408.757	1	6035.869	-23.52028	6.021917E-009	0.1795829	7
	27	10	1976.103	5789.28	-2766.934	1	6416.517	-25.54504	-4.414185E-008	0.1796022	7
	28	10	1577.524	6095.91	-3141.595	1	6857.823	-27.26482	-7.016661E-008	0.1795791	7
	29	10	1265.625	6328.645	-3569.07	1	7265.673	-29.42104	-1.23225E-008	0.1794635	7
	30	11	998.264	6662.455	-4119.427	1	7833.133	-31.72869	-1.484881E-008	0.1795351	7
	31	11	796.875	7006	-4744.079	1	8461.106	-34.1037	-4.509603E-008	0.1795992	7
	32	11	627.7902	7394.284	-5518.117	1	9226.324	-36.7328	1.015033E-007	0.1793431	7
	33	12	505.5147	7789.819	-6364.869	1	10059.46	-39.25141	-1.984009E-008	0.1795172	6
	34	12	397.9953	8255.185	-7512.922	1	11162.08	-42.30487	-1.054936E-008	0.1794676	6
	35	12	315.5048	8765.133	-8886.141	1	12481.63	-45.39278	-1.027762E-008	0.1794661	6
	36	13	252.4038	9326.836	-10503.17	1	14046.58	-48.39487	-1.079382E-008	0.1794614	6
	37	13	198.6229	10057.27	-12640.12	1	16153.06	-51.49203	-1.011034E-008	0.1794647	6
	38	13	158.3615	10915.83	-15105.22	1	18636.61	-54.14615	-1.112964E-008	0.1794601	6
	39	13	125.558	12017.26	-18175.39	1	21788.98	-56.528	-1.064708E-008	0.179461	6
	40	14	100.4464	13323.59	-21722.27	1	25482.83	-58.47668	-9.084987E-009	0.1794586	6
	41	14	79.00281	15169.97	-26223.56	1	30295.26	-59.9512	-9.543847E-009	0.1794602	6
	42	14	63.3446	17787.96	-31472.38	1	36151.37	-60.52518	-1.075629E-008	0.1794598	6
	43	15	49.86702	20618.44	-37917.82	1	43161.1	-61.46414	-1.112985E-008	0.1794563	6
	44	15	39.72458	24210.73	-44720.43	1	50853.48	-61.56978	-1.089017E-008	0.1794633	6
	45	16	31.6723	29025.29	-52564.44	1	60045.71	-61.09319	-1.133328E-008	0.179457	6
	46	16	24.93351	34974.16	-62288.28	1	71435.44	-60.68629	-9.223397E-009	0.1794562	6
	47	16	19.86229	42140.81	-72708.71	1	84038.12	-59.9041	-7.395337E-009	0.1794626	6
	48	16	15.83615	51896.7	-84052.68	1	98783.2	-58.30755	-1.235542E-008	0.1794583	6
	49	17	12.40079	62275.65	-96557	1	114897.8	-57.17949	-8.991825E-009	0.17946	5
	50	17	9.93114	74050.74	-109597.5	1	132269.1	-55.95464	-1.134999E-008	0.1794672	5
	51	18	7.944915	87427.04	-123510.9	1	151322.3	-54.70728	-1.067507E-008	0.1794669	5
	52	18	6.317385	102464.7	-139277.3	1	172908	-53.6585	-1.027742E-008	0.1794734	5
	53	19	5.008013	118950.5	-157025.3	1	196992.8	-52.85519	-1.020712E-008	0.1794595	5
	54	20	3.945707	137390.5	-177736.2	1	224647.1	-52.29588	-9.363654E-009	0.1794682	5
	55	22	3.158693	155891.4	-200216.2	1	253749.2	-52.09514	-9.435516E-009	0.1794805	5
	56	23	2.504006	177530.1	-228268.8	1	289177.4	-52.12694	-9.555158E-009	0.1794671	5
	57	24	1.998082	200977	-259746.8	1	328420.7	-52.26937	-9.113848E-009	0.1794849	5
	58	26	1.584686	229922.5	-299165.2	1	377311.8	-52.45603	-8.831418E-009	0.1795074	5
	59	28	1.266892	262034.9	-343350.7	1	431916.6	-52.65022	-8.698647E-009	0.1794802	5
	60	30	0.999041	303708.5	-396457.4	1	499417	-52.54587	-8.549288E-009	0.1794525	5
