EXPLAIN
TAG	EISPOT
TITLE	LABEL	Potentiostatic EIS	Test &Identifier
DATE	LABEL	10/20/2019	Date
TIME	LABEL	11:14:48	Time
NOTES	NOTES	1	&Notes...
	
PSTAT	PSTAT	REF600-11020	Potentiostat
VDC	POTEN	0.00000E+000	T	DC &Voltage (V)
FREQINIT	QUANT	1.00000E+006	Initial Fre&q. (Hz)
FREQFINAL	QUANT	1.00000E+000	Final Fre&q. (Hz)
PTSPERDEC	QUANT	1.00000E+001	Points/&decade
VAC	QUANT	2.50000E+001	AC &Voltage (mV rms)
AREA	QUANT	1.00000E-002	&Area (cm^2)
CONDIT	TWOPARAM	T	5.00000E+000	0.00000E+000	Conditionin&g	Time(s)	E(V)
DELAY	TWOPARAM	T	5.00000E+000	0.00000E+000	Init. De&lay	Time(s)	Stab.(mV/s)
SPEED	SELECTOR	1	&Optimize for:
ZGUESS	QUANT	1.00000E+005	E&stimated Z (ohms)
OCVCURVE	TABLE	19
	Pt	T	Vf	Vm	Ach	Over
	#	s	V vs. Ref.	V	V	bits
	0	0.258333	4.25612E-003	4.25612E-003	5.89232E-004	...........
	1	0.516667	4.25681E-003	4.29256E-003	5.83565E-004	...........
	2	0.775	4.25902E-003	4.21867E-003	5.86732E-004	...........
	3	1.03333	4.25918E-003	4.19008E-003	5.80099E-004	...........
	4	1.29167	4.25131E-003	4.24952E-003	5.80332E-004	...........
	5	1.55	4.23504E-003	4.06719E-003	5.83099E-004	...........
	6	1.80833	4.20973E-003	4.05158E-003	5.82032E-004	...........
	7	2.06667	4.17085E-003	4.05925E-003	5.87332E-004	...........
	8	2.325	4.12425E-003	4.05697E-003	5.83132E-004	...........
	9	2.58333	4.08575E-003	4.04367E-003	5.84765E-004	...........
	10	2.84167	4.06280E-003	4.03584E-003	5.88165E-004	...........
	11	3.1	4.05096E-003	4.03118E-003	5.86065E-004	...........
	12	3.35833	4.04410E-003	4.05212E-003	5.87132E-004	...........
	13	3.61667	4.04011E-003	4.02272E-003	5.88832E-004	...........
	14	3.875	4.03807E-003	4.03344E-003	5.85732E-004	...........
	15	4.13333	4.03691E-003	4.06678E-003	5.91032E-004	...........
	16	4.39167	4.03759E-003	4.03434E-003	5.90632E-004	...........
	17	4.65	4.04030E-003	4.02375E-003	5.83232E-004	...........
	18	4.90833	4.04104E-003	4.01782E-003	5.86332E-004	...........
EOC	QUANT	0.004041	Open Circuit (V)
PSTATMODEL	IQUANT	4	Pstat Model
PSTATSECTION	LABEL	REF600-11020	Pstat Section
PSTATSERIALNO	LABEL	11020	Pstat Serial Number
CTRLMODE	IQUANT	1	Control Mode
IESTAB	IQUANT	0	I/E Stability
CASPEED	IQUANT	1	Control Amp Speed
CONVENTION	IQUANT	1	Current Convention
ICHRANGE	IQUANT	2	Ich Range
ICHRANGEMODE	TOGGLE	F	Ich Auto Range
ICHOFFSETENABLE	TOGGLE	T	Ich Offset Enable
ICHOFFSET	QUANT	0	Ich Offset (V)
ICHFILTER	IQUANT	3	Ich Filter
VCHRANGE	IQUANT	2	Vch Range
VCHRANGEMODE	TOGGLE	F	Vch Auto Range
VCHOFFSETENABLE	TOGGLE	T	Vch Offset Enable
VCHOFFSET	QUANT	0	Vch Offset (V)
VCHFILTER	IQUANT	3	Vch Filter
ACHRANGE	IQUANT	2	Ach Range
ACHOFFSETENABLE	TOGGLE	F	Ach Offset Enable
ACHOFFSET	QUANT	0	Ach Offset (V)
ACHFILTER	IQUANT	3	Ach Filter
IERANGELOWERLIMIT	IQUANT	1	I/E Range Lower Limit
IERANGEMODE	TOGGLE	F	I/E AutoRange
IERANGE	IQUANT	4	I/E Range
POSFEEDENABLE	TOGGLE	F	Positive Feedback IR Comp
POSFEEDRESISTANCE	QUANT	0	Positive Feedback Resistance (ohm)
ACHSELECT	IQUANT	0	Ach Select
CABLEID	IQUANT	14	Cable ID
DCCALDATE	LABEL	8/19/2019	DC Calibration Date
ACCALDATE	LABEL	8/19/2019	AC Calibration Date
THERMOSELECT	IQUANT	1	Thermo Select
FRAMEWORKVERSION	QUANT	6.33	Framework Version
INSTRUMENTVERSION	LABEL	3.50	Instrument Version
ZCURVE	TABLE
	Pt	Time	Freq	Zreal	Zimag	Zsig	Zmod	Zphz	Idc	Vdc	IERange
	#	s	Hz	ohm	ohm	V	ohm	°	A	V	#
	0	1	1000078	2543.361	-1737.954	1	3080.449	-34.34595	4.233718E-008	0.0054542	8
	1	3	794390.6	2877.991	-1716.964	1	3351.238	-30.81964	-4.227947E-006	0.0067805	8
	2	4	630984.4	3175.717	-1629.196	1	3569.238	-27.15858	3.292024E-007	0.0057902	8
	3	6	501234.4	3473.889	-1522.284	1	3792.79	-23.66339	-6.865628E-007	0.0059612	8
	4	7	398109.4	3724.621	-1399.068	1	3978.718	-20.58754	-1.62066E-006	0.0059483	8
	5	9	316265.6	3911.995	-1253.194	1	4107.822	-17.76269	3.306384E-006	0.0049395	8
	6	10	251203.1	4123.486	-1104.843	1	4268.936	-14.99946	3.014909E-006	0.0049476	8
	7	12	199546.9	4237.967	-968.912	1	4347.315	-12.878	-1.563178E-006	0.0058823	8
	8	14	158578.1	4371.089	-825.801	1	4448.412	-10.69842	3.998026E-006	0.0049192	8
	9	15	125953.1	4468.628	-683.7434	1	4520.635	-8.699339	4.360348E-007	0.0045865	7
	10	16	100078.1	4524.879	-590.6212	1	4563.263	-7.436631	-4.807297E-008	0.005636	7
	11	18	79453.13	4578.559	-529.9739	1	4609.129	-6.602674	-5.029045E-008	0.0056282	7
	12	19	63140.62	4623.471	-483.8206	1	4648.717	-5.973943	6.831009E-008	0.0054181	7
	13	21	50203.12	4662.812	-448.5167	1	4684.333	-5.494388	4.493189E-008	0.0054828	7
	14	22	39890.62	4697.839	-424.7643	1	4717.003	-5.166462	-4.635711E-008	0.0056259	7
	15	23	31640.63	4732.491	-414.2563	1	4750.587	-5.002607	-4.180337E-008	0.0055512	7
	16	25	25171.88	4765.591	-412.742	1	4783.432	-4.949965	8.620159E-008	0.0053372	7
	17	26	20015.62	4785.384	-380.8312	1	4800.514	-4.550132	-4.39896E-008	0.005548	7
	18	27	15890.62	4831.743	-446.0221	1	4852.286	-5.274072	1.440814E-007	0.0053014	7
	19	29	12609.37	4869.819	-479.4944	1	4893.369	-5.623358	8.592027E-008	0.0053435	7
	20	30	10078.13	4907.7	-520.5199	1	4935.226	-6.054265	8.780179E-008	0.0053432	7
	21	31	8015.625	4898.186	-561.5437	1	4930.27	-6.540019	6.969777E-008	0.0054195	7
	22	33	6328.125	4980.097	-659.2115	1	5023.537	-7.540362	-2.07505E-008	0.0055896	7
	23	34	5015.625	5022.919	-758.3386	1	5079.842	-8.58543	4.231435E-008	0.0054834	7
	24	36	3984.375	5119.098	-879.7401	1	5194.141	-9.75129	-6.054655E-008	0.0057131	7
	25	37	3170.956	5111.568	-1037.224	1	5215.742	-11.47054	-2.321177E-008	0.0055101	7
	26	38	2527.573	5160.403	-1231.19	1	5305.242	-13.419	-3.921394E-008	0.0055981	7
	27	40	1976.103	5221.559	-1495.251	1	5431.432	-15.97966	8.670633E-008	0.0053383	7
	28	41	1577.524	5315.881	-1784.253	1	5607.331	-18.55411	1.147421E-008	0.0054502	7
	29	42	1265.625	5354.37	-2154.411	1	5771.548	-21.91813	-1.102508E-009	0.005552	7
	30	44	998.264	5448.193	-2636.501	1	6052.598	-25.82336	9.659224E-008	0.0054522	7
	31	45	796.875	5549.472	-3204.953	1	6408.46	-30.00747	5.080361E-008	0.0054635	7
	32	47	627.7902	5678.564	-3947.745	1	6915.98	-34.80708	-4.19388E-008	0.0055665	7
	33	48	505.5147	5830.181	-4775.379	1	7536.262	-39.32019	1.364978E-007	0.0053147	7
	34	49	397.9953	6035.357	-5909.402	1	8446.689	-44.39585	5.303E-009	0.0055373	7
	35	51	315.5048	6283.32	-7266.187	1	9606.12	-49.14891	5.880275E-009	0.0055416	7
	36	52	252.4038	6586.01	-8865	1	11043.72	-53.3905	1.856368E-009	0.0054781	6
	37	53	198.6229	7001.729	-10981.16	1	13023.45	-57.4779	1.044961E-009	0.0054775	6
	38	55	158.3615	7505	-13433.43	1	15387.73	-60.80875	1.028829E-009	0.0054755	6
	39	56	125.558	8174.303	-16521.4	1	18433.01	-63.67515	1.180646E-009	0.0054714	6
	40	58	100.4464	8998.938	-20156.42	1	22074.01	-65.94138	-5.856813E-010	0.0054732	6
	41	59	79.00281	10283.69	-24869.03	1	26911.39	-67.53423	1.909698E-009	0.0054746	6
	42	60	63.3446	11683.78	-29712.49	1	31927.15	-68.53386	1.041147E-009	0.0054699	6
	43	62	49.86702	13855.88	-37382.48	1	39867.72	-69.66269	1.260786E-009	0.0054688	6
	44	63	39.72458	16319.87	-45062.68	1	47926.85	-70.09167	8.820279E-010	0.0054753	6
	45	65	31.6723	19654.19	-54712.44	1	58135.52	-70.24034	1.831561E-009	0.005474	6
	46	66	24.93351	24141.21	-66304.84	1	70562.95	-69.99373	7.454857E-010	0.0054655	6
	47	67	19.86229	29603.24	-79561.13	1	84890.07	-69.59068	-3.995637E-010	0.0054692	6
	48	69	15.83615	36034.36	-93813.3	1	100495.8	-68.98786	-1.747743E-009	0.0054685	6
	49	70	12.40079	45566.09	-114199.8	1	122954.7	-68.24783	-3.37206E-010	0.0054725	5
	50	72	9.93114	58244.27	-134776.3	1	146823.2	-66.62817	-3.835387E-010	0.0054798	5
	51	73	7.944915	72804.89	-157069.4	1	173122.4	-65.13132	1.630025E-009	0.0054789	5
	52	75	6.317385	90477.37	-185532.6	1	206418.2	-64.00322	-3.29695E-010	0.0054861	5
	53	77	5.008013	112817.2	-216408.8	1	244050.1	-62.46629	-2.193834E-010	0.0054693	5
	54	79	3.945707	140676.3	-250480.5	1	287280.8	-60.68031	3.87993E-010	0.0054786	5
	55	82	3.158693	171417.4	-285436.2	1	332953	-59.01327	-1.1348E-010	0.0054635	5
	56	86	2.504006	207515.4	-324310	1	385018.9	-57.38615	2.893253E-010	0.0054836	5
	57	88	1.998082	246843.5	-365255	1	440843.4	-55.94873	4.643504E-010	0.0054862	5
	58	91	1.584686	291707.3	-409558.9	1	502823.7	-54.53973	9.882419E-011	0.0054319	5
	59	95	1.266892	335706.4	-458135.3	1	567967.2	-53.76727	3.281038E-010	0.0054762	5
	60	99	0.999041	386481.4	-517165.2	1	645622	-53.22896	-2.462122E-010	0.0054689	5
