EXPLAIN
TAG	EISPOT
TITLE	LABEL	Potentiostatic EIS	Test &Identifier
DATE	LABEL	10/2/2019	Date
TIME	LABEL	10:28:25	Time
NOTES	NOTES	2	&Notes...
	
	
PSTAT	PSTAT	REF600-11020	Potentiostat
VDC	POTEN	0.00000E+000	T	DC &Voltage (V)
FREQINIT	QUANT	1.00000E+006	Initial Fre&q. (Hz)
FREQFINAL	QUANT	1.00000E+000	Final Fre&q. (Hz)
PTSPERDEC	QUANT	1.00000E+001	Points/&decade
VAC	QUANT	2.50000E+001	AC &Voltage (mV rms)
AREA	QUANT	1.00000E-002	&Area (cm^2)
CONDIT	TWOPARAM	T	5.00000E+000	0.00000E+000	Conditionin&g	Time(s)	E(V)
DELAY	TWOPARAM	T	5.00000E+000	0.00000E+000	Init. De&lay	Time(s)	Stab.(mV/s)
SPEED	SELECTOR	1	&Optimize for:
ZGUESS	QUANT	1.00000E+004	E&stimated Z (ohms)
OCVCURVE	TABLE	19
	Pt	T	Vf	Vm	Ach	Over
	#	s	V vs. Ref.	V	V	bits
	0	0.258333	1.40786E-002	1.40786E-002	5.45299E-004	...........
	1	0.516667	1.40789E-002	1.40955E-002	5.41733E-004	...........
	2	0.775	1.40829E-002	1.42196E-002	5.45233E-004	...........
	3	1.03333	1.40997E-002	1.42558E-002	5.45766E-004	...........
	4	1.29167	1.41393E-002	1.44645E-002	5.47433E-004	...........
	5	1.55	1.42099E-002	1.46552E-002	5.48866E-004	...........
	6	1.80833	1.43211E-002	1.49927E-002	5.48299E-004	...........
	7	2.06667	1.44886E-002	1.55145E-002	5.48199E-004	...........
	8	2.325	1.47215E-002	1.53648E-002	5.48099E-004	...........
	9	2.58333	1.49965E-002	1.59246E-002	5.49133E-004	...........
	10	2.84167	1.53032E-002	1.75902E-002	5.50066E-004	...........
	11	3.1	1.57290E-002	1.82281E-002	5.52866E-004	...........
	12	3.35833	1.63566E-002	1.80677E-002	5.45499E-004	...........
	13	3.61667	1.70923E-002	1.90363E-002	5.52733E-004	...........
	14	3.875	1.77654E-002	1.90806E-002	5.50533E-004	...........
	15	4.13333	1.82991E-002	1.88482E-002	5.46966E-004	...........
	16	4.39167	1.86630E-002	1.84519E-002	5.48333E-004	...........
	17	4.65	1.88098E-002	1.81093E-002	5.53533E-004	...........
	18	4.90833	1.87374E-002	1.80593E-002	5.48799E-004	...........
EOC	QUANT	0.0187374	Open Circuit (V)
PSTATMODEL	IQUANT	4	Pstat Model
PSTATSECTION	LABEL	REF600-11020	Pstat Section
PSTATSERIALNO	LABEL	11020	Pstat Serial Number
CTRLMODE	IQUANT	1	Control Mode
IESTAB	IQUANT	0	I/E Stability
CASPEED	IQUANT	1	Control Amp Speed
CONVENTION	IQUANT	1	Current Convention
ICHRANGE	IQUANT	2	Ich Range
ICHRANGEMODE	TOGGLE	F	Ich Auto Range
ICHOFFSETENABLE	TOGGLE	T	Ich Offset Enable
ICHOFFSET	QUANT	0	Ich Offset (V)
ICHFILTER	IQUANT	3	Ich Filter
VCHRANGE	IQUANT	2	Vch Range
VCHRANGEMODE	TOGGLE	F	Vch Auto Range
VCHOFFSETENABLE	TOGGLE	T	Vch Offset Enable
VCHOFFSET	QUANT	0	Vch Offset (V)
VCHFILTER	IQUANT	3	Vch Filter
ACHRANGE	IQUANT	2	Ach Range
ACHOFFSETENABLE	TOGGLE	F	Ach Offset Enable
ACHOFFSET	QUANT	0	Ach Offset (V)
ACHFILTER	IQUANT	3	Ach Filter
IERANGELOWERLIMIT	IQUANT	1	I/E Range Lower Limit
IERANGEMODE	TOGGLE	F	I/E AutoRange
IERANGE	IQUANT	6	I/E Range
POSFEEDENABLE	TOGGLE	F	Positive Feedback IR Comp
POSFEEDRESISTANCE	QUANT	0	Positive Feedback Resistance (ohm)
ACHSELECT	IQUANT	0	Ach Select
CABLEID	IQUANT	14	Cable ID
DCCALDATE	LABEL	8/19/2019	DC Calibration Date
ACCALDATE	LABEL	8/19/2019	AC Calibration Date
THERMOSELECT	IQUANT	1	Thermo Select
FRAMEWORKVERSION	QUANT	6.33	Framework Version
INSTRUMENTVERSION	LABEL	3.50	Instrument Version
ZCURVE	TABLE
	Pt	Time	Freq	Zreal	Zimag	Zsig	Zmod	Zphz	Idc	Vdc	IERange
	#	s	Hz	ohm	ohm	V	ohm	°	A	V	#
	0	1	1000078	2546.259	-2136.99	1	3324.178	-40.00562	6.01302E-008	0.0209157	8
	1	2	794390.6	2983.56	-2119.786	1	3659.934	-35.39337	-1.817651E-006	0.0211347	8
	2	4	630984.4	3389.598	-2027.873	1	3949.892	-30.89054	-4.036765E-006	0.0213602	8
	3	5	501234.4	3748.294	-1907.812	1	4205.884	-26.97525	-3.595226E-006	0.0212135	8
	4	7	398109.4	4070.274	-1742.212	1	4427.464	-23.17253	1.437148E-006	0.0203416	8
	5	8	316265.6	4323.199	-1557.274	1	4595.123	-19.80969	-2.04743E-006	0.0207353	8
	6	10	251203.1	4520.934	-1396.453	1	4731.693	-17.16519	7.48859E-007	0.0203247	8
	7	11	199546.9	4689.16	-1261.517	1	4855.888	-15.05767	1.04486E-006	0.0202964	8
	8	12	158578.1	4841.308	-1127.989	1	4970.978	-13.1155	-2.25722E-006	0.0207912	8
	9	14	125953.1	4954.823	-989.68	1	5052.696	-11.29565	1.44064E-006	0.0172692	7
	10	15	100078.1	5043.84	-924.424	1	5127.854	-10.38578	-7.592055E-008	0.0205519	7
	11	16	79453.13	5130.021	-889.293	1	5206.53	-9.83453	1.034774E-007	0.0202268	7
	12	18	63140.62	5211.512	-874.6271	1	5284.395	-9.52694	-1.491627E-009	0.0203049	7
	13	19	50203.12	5291.913	-879.6913	1	5364.531	-9.438153	8.69376E-008	0.0201389	7
	14	21	39890.62	5376.398	-904.374	1	5451.931	-9.54844	4.837613E-008	0.020172	7
	15	22	31640.63	5467.854	-949.9014	1	5549.751	-9.85533	-5.648036E-008	0.0203888	7
	16	23	25171.88	5561.193	-1014.873	1	5653.038	-10.34221	-7.369989E-008	0.0205388	7
	17	25	20015.62	5665.227	-1097.393	1	5770.535	-10.96281	-7.103331E-009	0.0202614	7
	18	26	15890.62	5781.733	-1201.543	1	5905.264	-11.73994	-3.156759E-008	0.020314	7
	19	27	12609.37	5909.067	-1330.051	1	6056.906	-12.6851	1.04681E-007	0.0202174	7
	20	29	10078.13	6050.557	-1475.732	1	6227.923	-13.70684	-5.039784E-008	0.0204227	7
	21	30	8015.625	6208.451	-1652.713	1	6424.666	-14.90665	-8.061135E-009	0.0203643	7
	22	31	6328.125	6390.256	-1865.802	1	6657.071	-16.27654	-5.515224E-008	0.0203902	7
	23	33	5015.625	6593.817	-2111.58	1	6923.669	-17.75696	2.021303E-008	0.0202146	7
	24	34	3984.375	6823.335	-2395.274	1	7231.545	-19.34319	1.06154E-007	0.0202191	7
	25	35	3170.956	7076.113	-2719.356	1	7580.651	-21.02181	5.589101E-008	0.0202227	7
	26	37	2527.573	7362.756	-3088.677	1	7984.366	-22.75805	-3.380746E-008	0.0203083	7
	27	38	1976.103	7720.45	-3556.965	1	8500.432	-24.73647	-4.699403E-010	0.020296	7
	28	39	1577.524	8093.926	-4041.615	1	9046.894	-26.53476	-3.337365E-008	0.0203036	7
	29	41	1265.625	8507.3	-4577.737	1	9660.74	-28.28448	5.303096E-010	0.0202952	6
	30	42	998.264	8994.035	-5242.15	1	10410.23	-30.23566	6.64813E-009	0.020114	6
	31	43	796.875	9502.12	-5964.925	1	11219.21	-32.11841	1.832599E-008	0.0200053	6
	32	45	627.7902	10083.12	-6847.73	1	12188.55	-34.18152	5.837596E-009	0.0201201	6
	33	46	505.5147	10634.91	-7794.213	1	13185.26	-36.23729	1.101488E-008	0.020206	6
	34	47	397.9953	11254.97	-9010.141	1	14417.25	-38.67893	2.782969E-010	0.0202732	6
	35	49	315.5048	11862.36	-10468.12	1	15820.78	-41.42729	3.993977E-010	0.0202727	6
	36	50	252.4038	12447.53	-12206.55	1	17433.9	-44.43999	3.560224E-010	0.0202614	6
	37	52	198.6229	13094.26	-14541.44	1	19568.17	-47.99763	1.987089E-009	0.0202673	6
	38	53	158.3615	13750.48	-17325.26	1	22118.78	-51.56214	6.742988E-010	0.0202656	6
	39	54	125.558	14497.63	-20907.78	1	25442.41	-55.26223	1.306163E-009	0.0202691	6
	40	56	100.4464	15317.44	-25189.22	1	29480.86	-58.69642	3.949975E-010	0.0202629	6
	41	57	79.00281	16472.53	-30998.98	1	35103.86	-62.0143	8.824809E-010	0.0202593	6
	42	58	63.3446	17897.64	-37354	1	41420.37	-64.39924	6.017171E-010	0.0202633	6
	43	60	49.86702	19563.68	-46497.01	1	50445.12	-67.18101	9.236321E-010	0.0202542	6
	44	61	39.72458	21633.38	-56663.37	1	60652.63	-69.10376	3.612563E-010	0.0202593	6
	45	62	31.6723	24498.75	-69223.08	1	73430.4	-70.51061	1.089504E-009	0.0202606	6
	46	64	24.93351	28322.49	-85395.04	1	89969.3	-71.65115	4.734292E-010	0.0202615	6
	47	65	19.86229	33183.54	-104088.7	1	109250.1	-72.31768	6.537973E-010	0.0202592	5
	48	67	15.83615	39226.59	-127167.9	1	133080.4	-72.85694	-5.404713E-010	0.0202602	5
	49	68	12.40079	48265.58	-157349	1	164585.1	-72.94701	3.49848E-009	0.0202659	5
	50	69	9.93114	59308.41	-189459.4	1	198525.5	-72.61778	-4.794211E-009	0.0202678	5
	51	71	7.944915	73927.12	-227857.1	1	239549.7	-72.0246	-1.098243E-009	0.0202677	5
	52	73	6.317385	91862.28	-274076.2	1	289061.3	-71.47037	6.024054E-010	0.0202536	5
	53	75	5.008013	115636.6	-330142.4	1	349808.3	-70.69654	3.514222E-011	0.0202593	5
	54	77	3.945707	147030.1	-397417.1	1	423743.1	-69.69733	2.089938E-010	0.0202737	5
	55	80	3.158693	184885.2	-471232.7	1	506204.3	-68.57774	2.170031E-011	0.020262	5
	56	83	2.504006	234199.3	-559160.5	1	606225.8	-67.27407	3.301387E-010	0.0202673	5
	57	86	1.998082	292046.4	-654288.9	1	716509	-65.94608	-2.307131E-010	0.0203126	5
	58	89	1.584686	364079.4	-764564.9	1	846825.4	-64.5366	7.204854E-010	0.0202844	5
	59	92	1.266892	445340.3	-879333.3	1	985675	-63.13997	7.484559E-010	0.0203046	5
	60	97	0.999041	570387.2	-1021523	1	1169979	-60.82233	9.285012E-010	0.0202302	4
