EXPLAIN
TAG	EISPOT
TITLE	LABEL	Potentiostatic EIS	Test &Identifier
DATE	LABEL	10/20/2019	Date
TIME	LABEL	10:42:52	Time
NOTES	NOTES	1	&Notes...
	
PSTAT	PSTAT	REF600-11020	Potentiostat
VDC	POTEN	0.00000E+000	T	DC &Voltage (V)
FREQINIT	QUANT	1.00000E+006	Initial Fre&q. (Hz)
FREQFINAL	QUANT	1.00000E+000	Final Fre&q. (Hz)
PTSPERDEC	QUANT	1.00000E+001	Points/&decade
VAC	QUANT	2.50000E+001	AC &Voltage (mV rms)
AREA	QUANT	1.00000E-002	&Area (cm^2)
CONDIT	TWOPARAM	T	5.00000E+000	0.00000E+000	Conditionin&g	Time(s)	E(V)
DELAY	TWOPARAM	T	5.00000E+000	0.00000E+000	Init. De&lay	Time(s)	Stab.(mV/s)
SPEED	SELECTOR	1	&Optimize for:
ZGUESS	QUANT	1.00000E+005	E&stimated Z (ohms)
OCVCURVE	TABLE	19
	Pt	T	Vf	Vm	Ach	Over
	#	s	V vs. Ref.	V	V	bits
	0	0.258333	4.86409E-003	4.86409E-003	5.72732E-004	...........
	1	0.516667	4.85993E-003	4.64634E-003	5.74732E-004	...........
	2	0.775	4.83488E-003	4.46585E-003	5.72366E-004	...........
	3	1.03333	4.76591E-003	4.30542E-003	5.75032E-004	...........
	4	1.29167	4.64713E-003	4.17095E-003	5.69032E-004	...........
	5	1.55	4.49717E-003	4.04381E-003	5.70099E-004	...........
	6	1.80833	4.34140E-003	3.93678E-003	5.71632E-004	...........
	7	2.06667	4.19604E-003	3.83433E-003	5.72399E-004	...........
	8	2.325	4.06646E-003	3.74655E-003	5.69199E-004	...........
	9	2.58333	3.95184E-003	3.65768E-003	5.70866E-004	...........
	10	2.84167	3.84932E-003	3.58241E-003	5.66666E-004	...........
	11	3.1	3.75614E-003	3.50636E-003	5.70466E-004	...........
	12	3.35833	3.67039E-003	3.44134E-003	5.73099E-004	...........
	13	3.61667	3.59107E-003	3.38060E-003	5.71566E-004	...........
	14	3.875	3.51780E-003	3.32240E-003	5.70299E-004	...........
	15	4.13333	3.45027E-003	3.26986E-003	5.73232E-004	...........
	16	4.39167	3.38789E-003	3.21847E-003	5.71366E-004	...........
	17	4.65	3.32994E-003	3.17194E-003	5.76832E-004	...........
	18	4.90833	3.27579E-003	3.12596E-003	5.72466E-004	...........
EOC	QUANT	0.0032758	Open Circuit (V)
PSTATMODEL	IQUANT	4	Pstat Model
PSTATSECTION	LABEL	REF600-11020	Pstat Section
PSTATSERIALNO	LABEL	11020	Pstat Serial Number
CTRLMODE	IQUANT	1	Control Mode
IESTAB	IQUANT	0	I/E Stability
CASPEED	IQUANT	1	Control Amp Speed
CONVENTION	IQUANT	1	Current Convention
ICHRANGE	IQUANT	2	Ich Range
ICHRANGEMODE	TOGGLE	F	Ich Auto Range
ICHOFFSETENABLE	TOGGLE	T	Ich Offset Enable
ICHOFFSET	QUANT	0	Ich Offset (V)
ICHFILTER	IQUANT	3	Ich Filter
VCHRANGE	IQUANT	2	Vch Range
VCHRANGEMODE	TOGGLE	F	Vch Auto Range
VCHOFFSETENABLE	TOGGLE	T	Vch Offset Enable
VCHOFFSET	QUANT	0	Vch Offset (V)
VCHFILTER	IQUANT	3	Vch Filter
ACHRANGE	IQUANT	2	Ach Range
ACHOFFSETENABLE	TOGGLE	F	Ach Offset Enable
ACHOFFSET	QUANT	0	Ach Offset (V)
ACHFILTER	IQUANT	3	Ach Filter
IERANGELOWERLIMIT	IQUANT	1	I/E Range Lower Limit
IERANGEMODE	TOGGLE	F	I/E AutoRange
IERANGE	IQUANT	4	I/E Range
POSFEEDENABLE	TOGGLE	F	Positive Feedback IR Comp
POSFEEDRESISTANCE	QUANT	0	Positive Feedback Resistance (ohm)
ACHSELECT	IQUANT	0	Ach Select
CABLEID	IQUANT	14	Cable ID
DCCALDATE	LABEL	8/19/2019	DC Calibration Date
ACCALDATE	LABEL	8/19/2019	AC Calibration Date
THERMOSELECT	IQUANT	1	Thermo Select
FRAMEWORKVERSION	QUANT	6.33	Framework Version
INSTRUMENTVERSION	LABEL	3.50	Instrument Version
ZCURVE	TABLE
	Pt	Time	Freq	Zreal	Zimag	Zsig	Zmod	Zphz	Idc	Vdc	IERange
	#	s	Hz	ohm	ohm	V	ohm	°	A	V	#
	0	2	1000078	2928.186	-1791.755	1	3432.879	-31.46244	-2.147564E-007	0.0051902	8
	1	3	794390.6	3273.573	-1678.977	1	3679.027	-27.15275	3.916859E-006	0.0044123	8
	2	5	630984.4	3568.114	-1523.02	1	3879.565	-23.11481	4.174345E-007	0.0047709	8
	3	6	501234.4	3797.125	-1342.75	1	4027.548	-19.47475	-4.008109E-006	0.0057443	8
	4	8	398109.4	3978.614	-1168.951	1	4146.783	-16.37324	-2.965088E-006	0.0053505	8
	5	10	316265.6	4114.501	-975.31	1	4228.516	-13.33539	-3.036334E-006	0.0053032	8
	6	11	251203.1	4236.784	-885.6168	1	4328.355	-11.80656	4.824243E-006	0.0040347	8
	7	13	199546.9	4287.776	-731.948	1	4349.801	-9.68734	1.763776E-006	0.0042666	8
	8	14	158578.1	4350.454	-638.3069	1	4397.031	-8.346992	2.839457E-006	0.0042443	8
	9	16	125953.1	4442.351	-478.9154	1	4468.091	-6.153108	1.364573E-006	0.001717	7
	10	17	100078.1	4459.67	-437.7044	1	4481.099	-5.60547	4.251907E-008	0.004756	7
	11	19	79453.13	4491.127	-406.952	1	4509.527	-5.177571	7.475471E-008	0.0046659	7
	12	20	63140.62	4521.677	-384.1967	1	4537.97	-4.856628	7.818487E-008	0.0046683	7
	13	21	50203.12	4553.16	-375.7257	1	4568.636	-4.717346	-6.18599E-009	0.0048081	7
	14	23	39890.62	4581.934	-374.0251	1	4597.175	-4.66673	7.742383E-008	0.0046614	7
	15	24	31640.63	4613.238	-384.451	1	4629.23	-4.763821	9.276809E-008	0.0045975	7
	16	25	25171.88	4643.606	-402.336	1	4661.003	-4.951912	-6.476682E-009	0.0048411	7
	17	27	20015.62	4665.957	-416.6186	1	4684.52	-5.102352	-7.287722E-009	0.0048394	7
	18	28	15890.62	4713.605	-474.4704	1	4737.425	-5.748018	-8.852692E-008	0.0049391	7
	19	29	12609.37	4751.013	-527.2336	1	4780.178	-6.332368	4.840269E-008	0.0046405	7
	20	31	10078.13	4792.554	-591.9994	1	4828.979	-7.04178	9.358071E-008	0.0047375	7
	21	32	8015.625	4835.485	-645.946	1	4878.439	-7.608783	-3.812161E-008	0.0048294	7
	22	33	6328.125	4884.794	-781.3264	1	4946.887	-9.087523	4.191274E-008	0.0047408	7
	23	35	5015.625	4937.843	-911.8928	1	5021.338	-10.46317	7.953504E-008	0.004661	7
	24	36	3984.375	5020.321	-1049.121	1	5128.77	-11.80351	7.67081E-008	0.0046647	7
	25	37	3170.956	5059.089	-1263.619	1	5214.51	-14.02395	-4.625554E-008	0.0048125	7
	26	39	2527.573	5131.625	-1500.01	1	5346.364	-16.29401	-4.665498E-009	0.0048119	7
	27	40	1976.103	5223.994	-1817.258	1	5531.052	-19.18112	9.51075E-008	0.0045923	7
	28	42	1577.524	5386.875	-2184.975	1	5813.135	-22.078	-1.121014E-008	0.0047447	7
	29	43	1265.625	5427.036	-2595.141	1	6015.603	-25.55655	-5.199774E-008	0.0048941	7
	30	44	998.264	5561.078	-3152.791	1	6392.626	-29.55058	1.540902E-007	0.0045623	7
	31	46	796.875	5721.258	-3802.63	1	6869.701	-33.60997	-4.797046E-008	0.0048093	7
	32	47	627.7902	5910.373	-4641.739	1	7515.201	-38.14449	-1.602068E-008	0.0048373	7
	33	48	505.5147	6128.412	-5565.758	1	8278.593	-42.24539	-4.646074E-008	0.0048188	7
	34	50	397.9953	6400.771	-6824.642	1	9356.581	-46.83569	5.125012E-009	0.0048	7
	35	51	315.5048	6728.9	-8327.55	1	10706.36	-51.06079	1.160247E-010	0.0047464	6
	36	53	252.4038	7104.759	-10104.27	1	12352.08	-54.88726	2.106408E-009	0.004742	6
	37	54	198.6229	7609.629	-12451.13	1	14592.36	-58.56841	7.803065E-010	0.0047384	6
	38	55	158.3615	8226.111	-15180.05	1	17265.65	-61.54661	5.146965E-010	0.0047367	6
	39	57	125.558	9016.697	-18609.09	1	20678.47	-64.14833	6.064407E-010	0.0047395	6
	40	58	100.4464	10019.21	-22587.4	1	24709.82	-66.07912	1.550072E-009	0.0047407	6
	41	59	79.00281	11361.27	-27896.45	1	30121.26	-67.84061	1.773222E-009	0.0047404	6
	42	61	63.3446	13288.41	-34370.84	1	36850.19	-68.86256	1.233676E-009	0.0047374	6
	43	62	49.86702	15322.01	-41207.07	1	43963.47	-69.60338	1.827263E-009	0.0047303	6
	44	64	39.72458	18869.77	-50031.1	1	53471.29	-69.33549	9.87508E-010	0.0047377	6
	45	65	31.6723	22825.29	-60504.78	1	64667.01	-69.33113	1.684445E-009	0.0047319	6
	46	66	24.93351	28564.41	-72949.77	1	78342.8	-68.61655	4.760551E-010	0.0047375	6
	47	68	19.86229	35441.48	-86717.25	1	93680.2	-67.77008	8.230533E-010	0.0047325	6
	48	69	15.83615	42885.25	-103930.6	1	112430.9	-67.57732	-1.961145E-009	0.0047442	5
	49	71	12.40079	54011.27	-121681.8	1	133130.3	-66.06486	8.004137E-010	0.0047499	5
	50	72	9.93114	67043.26	-142551.8	1	157530.4	-64.81202	1.917941E-010	0.0047457	5
	51	74	7.944915	80694	-164728.5	1	183431.2	-63.90159	1.242344E-009	0.0047405	5
	52	75	6.317385	97649.1	-192919.9	1	216225.5	-63.15311	2.934259E-010	0.0047556	5
	53	77	5.008013	117660.1	-224311	1	253296.9	-62.32119	2.673852E-010	0.0047498	5
	54	80	3.945707	140863.8	-262306.3	1	297736.8	-61.7633	9.918845E-011	0.0047402	5
	55	82	3.158693	165809.2	-302755.9	1	345186.7	-61.29196	3.458002E-010	0.0047588	5
	56	86	2.504006	196274.7	-352627.4	1	403571.3	-60.8994	-1.433097E-010	0.0047409	5
	57	88	1.998082	230216	-407606.4	1	468126.5	-60.54224	5.830764E-011	0.0047038	5
	58	92	1.584686	270098.1	-472213.7	1	544002.5	-60.23119	6.053344E-011	0.0047641	5
	59	95	1.266892	315035.3	-546954.8	1	631194.7	-60.05889	4.048015E-011	0.0047017	5
	60	99	0.999041	369168	-637895.9	1	737018.4	-59.94084	1.314445E-010	0.0047751	5
