EXPLAIN
TAG	EISPOT
TITLE	LABEL	Potentiostatic EIS	Test &Identifier
DATE	LABEL	10/26/2019	Date
TIME	LABEL	10:47:38	Time
NOTES	NOTES	1	&Notes...
	
PSTAT	PSTAT	REF600-11020	Potentiostat
VDC	POTEN	0.00000E+000	T	DC &Voltage (V)
FREQINIT	QUANT	1.00000E+006	Initial Fre&q. (Hz)
FREQFINAL	QUANT	1.00000E+000	Final Fre&q. (Hz)
PTSPERDEC	QUANT	1.00000E+001	Points/&decade
VAC	QUANT	2.50000E+001	AC &Voltage (mV rms)
AREA	QUANT	1.00000E-002	&Area (cm^2)
CONDIT	TWOPARAM	T	5.00000E+000	0.00000E+000	Conditionin&g	Time(s)	E(V)
DELAY	TWOPARAM	T	5.00000E+000	0.00000E+000	Init. De&lay	Time(s)	Stab.(mV/s)
SPEED	SELECTOR	0	&Optimize for:
ZGUESS	QUANT	1.00000E+005	E&stimated Z (ohms)
OCVCURVE	TABLE	19
	Pt	T	Vf	Vm	Ach	Over
	#	s	V vs. Ref.	V	V	bits
	0	0.258333	9.69778E-003	9.69778E-003	5.70199E-004	...........
	1	0.516667	9.70170E-003	9.90300E-003	5.70132E-004	...........
	2	0.775	9.72741E-003	1.01834E-002	5.66999E-004	...........
	3	1.03333	9.80393E-003	1.03644E-002	5.64999E-004	...........
	4	1.29167	9.94594E-003	1.06372E-002	5.63066E-004	...........
	5	1.55	1.01399E-002	1.08044E-002	5.66466E-004	...........
	6	1.80833	1.03566E-002	1.09077E-002	5.61999E-004	...........
	7	2.06667	1.05653E-002	1.10227E-002	5.65099E-004	...........
	8	2.325	1.07458E-002	1.11984E-002	5.61199E-004	...........
	9	2.58333	1.09002E-002	1.13874E-002	5.64666E-004	...........
	10	2.84167	1.10481E-002	1.16080E-002	5.63399E-004	...........
	11	3.1	1.12089E-002	1.18043E-002	5.63799E-004	...........
	12	3.35833	1.13871E-002	1.18886E-002	5.56766E-004	...........
	13	3.61667	1.15688E-002	1.19954E-002	5.62832E-004	...........
	14	3.875	1.17333E-002	1.20985E-002	5.64332E-004	...........
	15	4.13333	1.18707E-002	1.21809E-002	5.61799E-004	...........
	16	4.39167	1.19866E-002	1.23583E-002	5.58432E-004	...........
	17	4.65	1.20962E-002	1.25199E-002	5.62599E-004	...........
	18	4.90833	1.22155E-002	1.26572E-002	5.67232E-004	...........
EOC	QUANT	0.0122155	Open Circuit (V)
PSTATMODEL	IQUANT	4	Pstat Model
PSTATSECTION	LABEL	REF600-11020	Pstat Section
PSTATSERIALNO	LABEL	11020	Pstat Serial Number
CTRLMODE	IQUANT	1	Control Mode
IESTAB	IQUANT	0	I/E Stability
CASPEED	IQUANT	1	Control Amp Speed
CONVENTION	IQUANT	1	Current Convention
ICHRANGE	IQUANT	2	Ich Range
ICHRANGEMODE	TOGGLE	F	Ich Auto Range
ICHOFFSETENABLE	TOGGLE	T	Ich Offset Enable
ICHOFFSET	QUANT	0	Ich Offset (V)
ICHFILTER	IQUANT	3	Ich Filter
VCHRANGE	IQUANT	2	Vch Range
VCHRANGEMODE	TOGGLE	F	Vch Auto Range
VCHOFFSETENABLE	TOGGLE	T	Vch Offset Enable
VCHOFFSET	QUANT	0	Vch Offset (V)
VCHFILTER	IQUANT	3	Vch Filter
ACHRANGE	IQUANT	2	Ach Range
ACHOFFSETENABLE	TOGGLE	F	Ach Offset Enable
ACHOFFSET	QUANT	0	Ach Offset (V)
ACHFILTER	IQUANT	3	Ach Filter
IERANGELOWERLIMIT	IQUANT	1	I/E Range Lower Limit
IERANGEMODE	TOGGLE	F	I/E AutoRange
IERANGE	IQUANT	5	I/E Range
POSFEEDENABLE	TOGGLE	F	Positive Feedback IR Comp
POSFEEDRESISTANCE	QUANT	0	Positive Feedback Resistance (ohm)
ACHSELECT	IQUANT	0	Ach Select
CABLEID	IQUANT	14	Cable ID
DCCALDATE	LABEL	8/19/2019	DC Calibration Date
ACCALDATE	LABEL	8/19/2019	AC Calibration Date
THERMOSELECT	IQUANT	1	Thermo Select
FRAMEWORKVERSION	QUANT	6.33	Framework Version
INSTRUMENTVERSION	LABEL	3.50	Instrument Version
ZCURVE	TABLE
	Pt	Time	Freq	Zreal	Zimag	Zsig	Zmod	Zphz	Idc	Vdc	IERange
	#	s	Hz	ohm	ohm	V	ohm	°	A	V	#
	0	2	1000078	2445.662	-1828.986	1	3053.924	-36.79093	1.160239E-006	0.0136488	8
	1	2	794390.6	2802.901	-1775.924	1	3318.156	-32.35843	3.314415E-006	0.0134666	8
	2	3	630984.4	3143.145	-1664.544	1	3556.693	-27.90476	-4.33774E-006	0.0146256	8
	3	3	501234.4	3430.81	-1518.522	1	3751.848	-23.87482	1.332121E-006	0.0138758	8
	4	3	398109.4	3656.354	-1374.455	1	3906.156	-20.60168	2.85751E-006	0.0133338	8
	5	3	316265.6	3866.725	-1195.586	1	4047.343	-17.18153	-5.446195E-007	0.0137342	8
	6	4	251203.1	4001.053	-1036.418	1	4133.109	-14.52249	3.308206E-006	0.0131285	8
	7	4	199546.9	4120.397	-895.6713	1	4216.622	-12.26388	2.728905E-006	0.0133351	8
	8	4	158578.1	4199.516	-779.319	1	4271.214	-10.51299	6.311107E-007	0.0136416	8
	9	5	125953.1	4301.318	-632.5095	1	4347.575	-8.365399	-9.499289E-007	0.0158829	7
	10	5	100078.1	4338.393	-562.7178	1	4374.735	-7.390375	6.678331E-008	0.013673	7
	11	5	79453.13	4382.388	-512.3914	1	4412.241	-6.668779	-4.026408E-008	0.0138968	7
	12	6	63140.62	4422.534	-479.4877	1	4448.451	-6.187794	-3.289748E-008	0.0138041	7
	13	6	50203.12	4460.013	-459.6376	1	4483.635	-5.883986	-5.129605E-009	0.013799	7
	14	6	39890.62	4497.126	-449.0697	1	4519.492	-5.702483	3.326002E-008	0.0137571	7
	15	7	31640.63	4532.4	-453.6052	1	4555.042	-5.715163	4.854957E-008	0.0137203	7
	16	7	25171.88	4569.331	-470.0426	1	4593.443	-5.873302	-4.12236E-008	0.0138875	7
	17	7	20015.62	4607.216	-496.3993	1	4633.881	-6.149546	-6.332035E-008	0.0138772	7
	18	8	15890.62	4647.384	-538.1881	1	4678.442	-6.605687	1.076005E-008	0.0137271	7
	19	8	12609.37	4691.132	-592.0065	1	4728.339	-7.192531	-3.521571E-009	0.01377	7
	20	8	10078.13	4733.702	-660.6534	1	4779.581	-7.945097	-8.950447E-009	0.0138336	7
	21	9	8015.625	4782.386	-758.1473	1	4842.107	-9.008086	-6.164358E-008	0.013974	7
	22	9	6328.125	4831.896	-868.8425	1	4909.389	-10.19365	-2.19642E-009	0.0137912	7
	23	9	5015.625	4887.306	-1013.075	1	4991.201	-11.71082	6.796472E-008	0.013655	7
	24	10	3984.375	4939.379	-1190.488	1	5080.82	-13.55096	1.307912E-008	0.0137245	7
	25	10	3170.956	5015.481	-1410.346	1	5210.002	-15.70591	-6.191236E-008	0.0139765	7
	26	10	2527.573	5093.331	-1676.005	1	5361.997	-18.21424	-1.672497E-008	0.0138233	7
	27	10	1976.103	5191.652	-2033.841	1	5575.819	-21.39287	-1.167583E-008	0.0137578	7
	28	11	1577.524	5289.101	-2458.988	1	5832.771	-24.93447	-1.988565E-009	0.0137904	7
	29	11	1265.625	5420.781	-2916.914	1	6155.75	-28.28463	-4.714316E-008	0.0138473	7
	30	11	998.264	5575.975	-3544.451	1	6607.165	-32.44268	9.823881E-008	0.0136402	7
	31	12	796.875	5749.103	-4274.728	1	7164.181	-36.63253	-2.976128E-008	0.0137817	7
	32	12	627.7902	5963.002	-5223.005	1	7926.991	-41.21518	-2.582055E-009	0.0137847	7
	33	12	505.5147	6195.531	-6267.895	1	8813.121	-45.33266	-2.622413E-009	0.0137843	7
	34	13	397.9953	6497.689	-7688.035	1	10066.07	-49.79654	2.056526E-010	0.013756	6
	35	13	315.5048	6851.335	-9395.124	1	11627.95	-53.89883	1.115223E-009	0.0137549	6
	36	13	252.4038	7273.391	-11408.04	1	13529.43	-57.47975	-1.424769E-010	0.0137495	6
	37	14	198.6229	7832.536	-14069.36	1	16102.66	-60.89494	6.744232E-010	0.0137528	6
	38	14	158.3615	8503.562	-17161.99	1	19153.19	-63.64214	-2.77877E-011	0.0137516	6
	39	14	125.558	9397.392	-21039.2	1	23042.55	-65.93154	9.699022E-011	0.0137532	6
	40	15	100.4464	10546.96	-25571.01	1	27660.71	-67.58593	5.030955E-011	0.0137511	6
	41	15	79.00281	12117.46	-31599.98	1	33843.63	-69.01997	-7.690346E-010	0.0137486	6
	42	15	63.3446	13399.72	-38082.53	1	40371.18	-70.61507	8.039311E-010	0.013747	6
	43	16	49.86702	16196.84	-46719.72	1	49447.65	-70.87955	-6.121096E-010	0.0137448	6
	44	16	39.72458	19821.73	-57014.65	1	60362	-70.82946	3.823546E-010	0.0137495	6
	45	16	31.6723	24247.97	-69171.77	1	73298.69	-70.68203	1.25716E-009	0.0137467	6
	46	17	24.93351	30303.51	-83776.98	1	89089.2	-70.11411	1.180406E-010	0.013748	6
	47	17	19.86229	37722.05	-100301.6	1	107160.5	-69.38941	7.078604E-010	0.0137613	5
	48	17	15.83615	49216.39	-120731	1	130377.3	-67.82157	-2.737505E-009	0.0137539	5
	49	18	12.40079	63074.65	-143934.7	1	157148.4	-66.33614	1.323451E-009	0.0137527	5
	50	18	9.93114	76768.02	-168534.8	1	185195.3	-65.51061	-8.480225E-010	0.0137585	5
	51	19	7.944915	96008.3	-195469.3	1	217774.8	-63.8412	-3.179638E-010	0.0137487	5
	52	19	6.317385	119830.5	-226745.7	1	256462.4	-62.14446	-1.098873E-010	0.0137555	5
	53	20	5.008013	148711.5	-260617.1	1	300060.6	-60.29036	-2.612174E-010	0.0137446	5
	54	21	3.945707	182182.1	-299815.2	1	350826.8	-58.71512	2.402962E-010	0.0137541	5
	55	22	3.158693	217679.6	-337396.8	1	401523.4	-57.17096	-2.294694E-010	0.0137628	5
	56	24	2.504006	258207.9	-382175.3	1	461225.9	-55.95599	-2.263505E-010	0.0137451	5
	57	25	1.998082	302180.6	-428186.1	1	524076.7	-54.78852	5.027915E-011	0.0137861	5
	58	27	1.584686	349048.8	-484751.7	1	597343.4	-54.24397	-1.768776E-011	0.0137863	5
	59	29	1.266892	398223	-544459.1	1	674549.6	-53.81788	-9.406709E-011	0.0137413	5
	60	31	0.999041	456145.8	-618984.5	1	768902.3	-53.61253	-1.304214E-010	0.0137182	5
