EXPLAIN
TAG	EISPOT
TITLE	LABEL	Potentiostatic EIS	Test &Identifier
DATE	LABEL	11/3/2019	Date
TIME	LABEL	10:21:53	Time
NOTES	NOTES	1	&Notes...
	
PSTAT	PSTAT	REF600-11020	Potentiostat
VDC	POTEN	0.00000E+000	T	DC &Voltage (V)
FREQINIT	QUANT	1.00000E+006	Initial Fre&q. (Hz)
FREQFINAL	QUANT	1.00000E+000	Final Fre&q. (Hz)
PTSPERDEC	QUANT	1.00000E+001	Points/&decade
VAC	QUANT	2.50000E+001	AC &Voltage (mV rms)
AREA	QUANT	1.00000E-002	&Area (cm^2)
CONDIT	TWOPARAM	T	5.00000E+000	0.00000E+000	Conditionin&g	Time(s)	E(V)
DELAY	TWOPARAM	T	5.00000E+000	0.00000E+000	Init. De&lay	Time(s)	Stab.(mV/s)
SPEED	SELECTOR	1	&Optimize for:
ZGUESS	QUANT	1.00000E+005	E&stimated Z (ohms)
OCVCURVE	TABLE	19
	Pt	T	Vf	Vm	Ach	Over
	#	s	V vs. Ref.	V	V	bits
	0	0.258333	1.91153E-003	1.91153E-003	5.62132E-004	...........
	1	0.516667	1.90682E-003	1.66481E-003	5.60199E-004	...........
	2	0.775	1.87806E-003	1.44059E-003	5.65799E-004	...........
	3	1.03333	1.79733E-003	1.22573E-003	5.66866E-004	...........
	4	1.29167	1.65411E-003	1.02046E-003	5.59966E-004	...........
	5	1.55	1.46529E-003	8.30210E-004	5.58266E-004	...........
	6	1.80833	1.25777E-003	6.47106E-004	5.62166E-004	...........
	7	2.06667	1.05112E-003	4.71980E-004	5.65199E-004	...........
	8	2.325	8.53858E-004	2.99578E-004	5.65032E-004	...........
	9	2.58333	6.67000E-004	1.35522E-004	5.60066E-004	...........
	10	2.84167	4.88852E-004	-2.01025E-005	5.58832E-004	...........
	11	3.1	3.18099E-004	-1.65170E-004	5.56699E-004	...........
	12	3.35833	1.54409E-004	-3.18928E-004	5.57366E-004	...........
	13	3.61667	-2.85522E-006	-4.63701E-004	5.56366E-004	...........
	14	3.875	-1.55209E-004	-6.04097E-004	5.60432E-004	...........
	15	4.13333	-3.03739E-004	-7.35170E-004	5.60299E-004	...........
	16	4.39167	-4.48246E-004	-8.68808E-004	5.61799E-004	...........
	17	4.65	-5.88235E-004	-9.96608E-004	5.57833E-004	...........
	18	4.90833	-7.23931E-004	-1.12347E-003	5.58799E-004	...........
EOC	QUANT	-0.0007239	Open Circuit (V)
PSTATMODEL	IQUANT	4	Pstat Model
PSTATSECTION	LABEL	REF600-11020	Pstat Section
PSTATSERIALNO	LABEL	11020	Pstat Serial Number
CTRLMODE	IQUANT	1	Control Mode
IESTAB	IQUANT	0	I/E Stability
CASPEED	IQUANT	1	Control Amp Speed
CONVENTION	IQUANT	1	Current Convention
ICHRANGE	IQUANT	2	Ich Range
ICHRANGEMODE	TOGGLE	F	Ich Auto Range
ICHOFFSETENABLE	TOGGLE	T	Ich Offset Enable
ICHOFFSET	QUANT	0	Ich Offset (V)
ICHFILTER	IQUANT	3	Ich Filter
VCHRANGE	IQUANT	2	Vch Range
VCHRANGEMODE	TOGGLE	F	Vch Auto Range
VCHOFFSETENABLE	TOGGLE	T	Vch Offset Enable
VCHOFFSET	QUANT	0	Vch Offset (V)
VCHFILTER	IQUANT	3	Vch Filter
ACHRANGE	IQUANT	2	Ach Range
ACHOFFSETENABLE	TOGGLE	F	Ach Offset Enable
ACHOFFSET	QUANT	0	Ach Offset (V)
ACHFILTER	IQUANT	3	Ach Filter
IERANGELOWERLIMIT	IQUANT	1	I/E Range Lower Limit
IERANGEMODE	TOGGLE	F	I/E AutoRange
IERANGE	IQUANT	4	I/E Range
POSFEEDENABLE	TOGGLE	F	Positive Feedback IR Comp
POSFEEDRESISTANCE	QUANT	0	Positive Feedback Resistance (ohm)
ACHSELECT	IQUANT	0	Ach Select
CABLEID	IQUANT	14	Cable ID
DCCALDATE	LABEL	8/19/2019	DC Calibration Date
ACCALDATE	LABEL	8/19/2019	AC Calibration Date
THERMOSELECT	IQUANT	1	Thermo Select
FRAMEWORKVERSION	QUANT	6.33	Framework Version
INSTRUMENTVERSION	LABEL	3.50	Instrument Version
ZCURVE	TABLE
	Pt	Time	Freq	Zreal	Zimag	Zsig	Zmod	Zphz	Idc	Vdc	IERange
	#	s	Hz	ohm	ohm	V	ohm	°	A	V	#
	0	1	1000078	1731.708	-769.1362	1	1894.831	-23.94834	-7.429053E-006	0.0019508	8
	1	3	794390.6	1863.285	-709.3935	1	1993.758	-20.84292	7.781152E-006	0.0010246	8
	2	4	630984.4	1970.013	-640.3562	1	2071.474	-18.00685	-2.704299E-006	0.0014676	8
	3	6	501234.4	2062.241	-569.879	1	2139.533	-15.44759	6.848077E-006	-0.0003428	8
	4	7	398109.4	2135.809	-504.893	1	2194.675	-13.30023	-4.403997E-006	0.0013841	8
	5	8	316265.6	2198.414	-443.4457	1	2242.692	-11.4042	2.554591E-006	0.0002418	8
	6	10	251203.1	2247.53	-394.4585	1	2281.883	-9.95446	1.795077E-006	0.0010474	8
	7	11	199546.9	2284.923	-350.8195	1	2311.698	-8.72884	-1.284388E-007	0.000474	8
	8	12	158578.1	2317.221	-309.5369	1	2337.804	-7.60859	-1.995271E-006	0.0009153	8
	9	14	125953.1	2364.669	-244.874	1	2377.315	-5.912207	3.220108E-006	-0.0030707	7
	10	15	100078.1	2377.439	-220.3945	1	2387.632	-5.296324	-2.392352E-007	0.0019042	7
	11	16	79453.13	2397.96	-210.4723	1	2407.179	-5.016074	8.940953E-008	-0.0004461	7
	12	18	63140.62	2416.809	-205.8614	1	2425.561	-4.868646	8.413824E-007	-0.0007403	7
	13	19	50203.12	2435.868	-204.7348	1	2444.457	-4.804421	8.920768E-007	7.368837E-005	7
	14	21	39890.62	2453.779	-207.1234	1	2462.505	-4.824896	-5.313906E-007	0.0021151	7
	15	22	31640.63	2473.785	-213.3187	1	2482.966	-4.92852	8.407463E-007	-0.0007526	7
	16	23	25171.88	2490.525	-223.4594	1	2500.53	-5.127066	-9.598615E-007	0.0021491	7
	17	25	20015.62	2511.529	-241.0659	1	2523.071	-5.482667	7.40875E-007	0.0004888	7
	18	26	15890.62	2533.118	-262.5018	1	2546.683	-5.916326	7.387857E-007	0.0004919	7
	19	27	12609.37	2551.853	-291.4921	1	2568.447	-6.516517	8.450122E-008	0.0015372	7
	20	29	10078.13	2574.186	-328.0158	1	2595	-7.261783	3.6944E-007	0.0011334	7
	21	30	8015.625	2595.776	-373.9263	1	2622.57	-8.197175	-1.081233E-006	0.0020173	7
	22	31	6328.125	2622.19	-434.0897	1	2657.878	-9.399763	-9.576142E-007	0.0021404	7
	23	33	5015.625	2653	-507.8101	1	2701.162	-10.83591	7.399656E-007	0.0004989	7
	24	34	3984.375	2686.73	-601.1714	1	2753.167	-12.61251	3.675868E-007	0.0011355	7
	25	36	3170.956	2716.206	-707.225	1	2806.767	-14.5942	4.088096E-007	-0.0007227	7
	26	37	2527.573	2752.297	-839.9685	1	2877.618	-16.97157	-7.7658E-007	0.0021939	7
	27	38	1976.103	2799.818	-1021.104	1	2980.208	-20.0371	3.686573E-007	0.0011382	7
	28	40	1577.524	2850.157	-1229.886	1	3104.193	-23.34092	6.62527E-007	-0.0008223	7
	29	41	1265.625	2901.901	-1471.684	1	3253.75	-26.89161	9.622131E-007	-0.0002972	7
	30	42	998.264	2969.244	-1795.206	1	3469.751	-31.15717	-9.286846E-007	0.0011919	7
	31	44	796.875	3046.722	-2174.178	1	3742.935	-35.51213	-1.082108E-006	0.002017	7
	32	45	627.7902	3150.074	-2672.687	1	4131.128	-40.313	-7.749571E-007	0.0021908	7
	33	46	505.5147	3261.83	-3230.986	1	4591.166	-44.72781	3.693417E-007	0.0011312	7
	34	48	397.9953	3418.822	-3982.548	1	5248.717	-49.35553	2.977306E-009	0.0007474	7
	35	49	315.5048	3611.474	-4882.815	1	6073.271	-53.51228	3.920138E-009	0.0007425	7
	36	51	252.4038	3846.529	-5939.149	1	7075.965	-57.07063	4.243685E-009	0.0007337	7
	37	52	198.6229	4171.569	-7326.88	1	8431.201	-60.34492	2.105518E-009	0.0007409	7
	38	53	158.3615	4568.985	-8928.086	1	10029.27	-62.89871	5.64143E-009	0.0007346	7
	39	55	125.558	5099.906	-10922.7	1	12054.64	-64.9717	7.119818E-010	0.0006803	6
	40	56	100.4464	5756.036	-13239.63	1	14436.75	-66.50261	2.194608E-009	0.0006733	6
	41	57	79.00281	6652.843	-16239.22	1	17549.15	-67.72219	9.984323E-010	0.0006698	6
	42	59	63.3446	7780.651	-19437.4	1	20936.83	-68.18413	2.448556E-011	0.0006755	6
	43	60	49.86702	9350.582	-23897.71	1	25661.92	-68.63083	7.958988E-010	0.0006727	6
	44	62	39.72458	11177.59	-28699.27	1	30799.13	-68.72042	4.376313E-010	0.0006742	6
	45	63	31.6723	13489.08	-34370.93	1	36923.11	-68.57217	2.085878E-010	0.0006732	6
	46	64	24.93351	16692.59	-41433.47	1	44669.62	-68.05663	1.883305E-011	0.0006725	6
	47	66	19.86229	20452.34	-49278.33	1	53354.02	-67.45973	9.337896E-010	0.0006773	6
	48	67	15.83615	25380.16	-58284.47	1	63570.68	-66.46913	-1.33173E-009	0.0006802	6
	49	69	12.40079	31300.74	-69806.97	1	76503.27	-65.84901	-1.633039E-009	0.0006832	6
	50	70	9.93114	37897.67	-81142.38	1	89556.23	-64.965	1.154373E-009	0.0006754	6
	51	72	7.944915	45934.34	-94806.2	1	105347.9	-64.14945	-4.295723E-010	0.0006733	5
	52	73	6.317385	55679.28	-110484.1	1	123721.1	-63.25383	7.735474E-010	0.0006629	5
	53	75	5.008013	67475.41	-128801.6	1	145405.6	-62.35126	5.210888E-010	0.0006866	5
	54	78	3.945707	81581.02	-149901.3	1	170663	-61.44358	-4.933588E-011	0.0006752	5
	55	81	3.158693	96657.2	-172296.7	1	197557	-60.70789	5.999956E-010	0.000688	5
	56	84	2.504006	114429.2	-198871.5	1	229442.6	-60.08419	-3.020325E-010	0.0006757	5
	57	87	1.998082	133277	-227898.7	1	264008.7	-59.68056	9.327028E-011	0.0006403	5
	58	90	1.584686	154027.5	-261934.9	1	303865.7	-59.54289	2.02361E-010	0.0007084	5
	59	93	1.266892	175230.7	-301647.1	1	348850.7	-59.84715	-6.379915E-011	0.0006504	5
	60	98	0.999041	200323.8	-353161.4	1	406020.4	-60.43679	3.44873E-010	0.0007167	5
