EXPLAIN
TAG	EISPOT
TITLE	LABEL	Potentiostatic EIS	Test &Identifier
DATE	LABEL	10/8/2019	Date
TIME	LABEL	9:28:41	Time
NOTES	NOTES	2	&Notes...
	
	
PSTAT	PSTAT	REF600-11020	Potentiostat
VDC	POTEN	0.00000E+000	T	DC &Voltage (V)
FREQINIT	QUANT	1.00000E+006	Initial Fre&q. (Hz)
FREQFINAL	QUANT	1.00000E+000	Final Fre&q. (Hz)
PTSPERDEC	QUANT	1.00000E+001	Points/&decade
VAC	QUANT	2.50000E+001	AC &Voltage (mV rms)
AREA	QUANT	1.00000E-002	&Area (cm^2)
CONDIT	TWOPARAM	T	5.00000E+000	0.00000E+000	Conditionin&g	Time(s)	E(V)
DELAY	TWOPARAM	T	5.00000E+000	0.00000E+000	Init. De&lay	Time(s)	Stab.(mV/s)
SPEED	SELECTOR	1	&Optimize for:
ZGUESS	QUANT	1.00000E+004	E&stimated Z (ohms)
OCVCURVE	TABLE	19
	Pt	T	Vf	Vm	Ach	Over
	#	s	V vs. Ref.	V	V	bits
	0	0.258333	7.76498E-003	7.76498E-003	5.40366E-004	...........
	1	0.516667	7.76548E-003	7.79109E-003	5.47799E-004	...........
	2	0.775	7.76857E-003	7.81711E-003	5.43333E-004	...........
	3	1.03333	7.77778E-003	7.86274E-003	5.43166E-004	...........
	4	1.29167	7.79638E-003	7.91953E-003	5.43599E-004	...........
	5	1.55	7.82651E-003	7.99121E-003	5.33433E-004	...........
	6	1.80833	7.86792E-003	7.99695E-003	5.36899E-004	...........
	7	2.06667	7.91604E-003	8.07301E-003	5.42066E-004	...........
	8	2.325	7.96533E-003	8.12579E-003	5.40566E-004	...........
	9	2.58333	8.01479E-003	8.17193E-003	5.40099E-004	...........
	10	2.84167	8.06609E-003	8.24599E-003	5.36033E-004	...........
	11	3.1	8.12005E-003	8.29776E-003	5.41833E-004	...........
	12	3.35833	8.17665E-003	8.35581E-003	5.46833E-004	...........
	13	3.61667	8.23498E-003	8.41722E-003	5.39099E-004	...........
	14	3.875	8.29382E-003	8.47618E-003	5.36499E-004	...........
	15	4.13333	8.35268E-003	8.52717E-003	5.44399E-004	...........
	16	4.39167	8.41097E-003	8.57960E-003	5.41133E-004	...........
	17	4.65	8.46754E-003	8.62394E-003	5.39766E-004	...........
	18	4.90833	8.52183E-003	8.69473E-003	5.42033E-004	...........
EOC	QUANT	0.0085218	Open Circuit (V)
PSTATMODEL	IQUANT	4	Pstat Model
PSTATSECTION	LABEL	REF600-11020	Pstat Section
PSTATSERIALNO	LABEL	11020	Pstat Serial Number
CTRLMODE	IQUANT	1	Control Mode
IESTAB	IQUANT	0	I/E Stability
CASPEED	IQUANT	1	Control Amp Speed
CONVENTION	IQUANT	1	Current Convention
ICHRANGE	IQUANT	2	Ich Range
ICHRANGEMODE	TOGGLE	F	Ich Auto Range
ICHOFFSETENABLE	TOGGLE	T	Ich Offset Enable
ICHOFFSET	QUANT	0	Ich Offset (V)
ICHFILTER	IQUANT	3	Ich Filter
VCHRANGE	IQUANT	2	Vch Range
VCHRANGEMODE	TOGGLE	F	Vch Auto Range
VCHOFFSETENABLE	TOGGLE	T	Vch Offset Enable
VCHOFFSET	QUANT	0	Vch Offset (V)
VCHFILTER	IQUANT	3	Vch Filter
ACHRANGE	IQUANT	2	Ach Range
ACHOFFSETENABLE	TOGGLE	F	Ach Offset Enable
ACHOFFSET	QUANT	0	Ach Offset (V)
ACHFILTER	IQUANT	3	Ach Filter
IERANGELOWERLIMIT	IQUANT	1	I/E Range Lower Limit
IERANGEMODE	TOGGLE	F	I/E AutoRange
IERANGE	IQUANT	6	I/E Range
POSFEEDENABLE	TOGGLE	F	Positive Feedback IR Comp
POSFEEDRESISTANCE	QUANT	0	Positive Feedback Resistance (ohm)
ACHSELECT	IQUANT	0	Ach Select
CABLEID	IQUANT	14	Cable ID
DCCALDATE	LABEL	8/19/2019	DC Calibration Date
ACCALDATE	LABEL	8/19/2019	AC Calibration Date
THERMOSELECT	IQUANT	1	Thermo Select
FRAMEWORKVERSION	QUANT	6.33	Framework Version
INSTRUMENTVERSION	LABEL	3.50	Instrument Version
ZCURVE	TABLE
	Pt	Time	Freq	Zreal	Zimag	Zsig	Zmod	Zphz	Idc	Vdc	IERange
	#	s	Hz	ohm	ohm	V	ohm	°	A	V	#
	0	1	1000078	2457.557	-2045.966	1	3197.743	-39.77808	6.33163E-007	0.0104218	8
	1	3	794390.6	2868.601	-2065.059	1	3534.592	-35.7495	3.550608E-006	0.0096542	8
	2	4	630984.4	3277.676	-2032.807	1	3856.873	-31.80709	3.145276E-007	0.0099982	8
	3	5	501234.4	3665.929	-1907.707	1	4132.6	-27.49195	-6.398018E-007	0.0102266	8
	4	7	398109.4	4002.631	-1741.698	1	4365.154	-23.5157	-3.170893E-006	0.0108413	8
	5	8	316265.6	4282.227	-1584.071	1	4565.824	-20.30032	-2.787918E-006	0.0106956	8
	6	9	251203.1	4506.984	-1404.118	1	4720.641	-17.30404	3.382448E-006	0.009423	8
	7	11	199546.9	4665.123	-1210.431	1	4819.597	-14.54545	-3.451085E-006	0.0105766	8
	8	13	158578.1	4822.17	-1056.703	1	4936.593	-12.3601	9.854239E-007	0.0098955	8
	9	14	125953.1	4949.521	-875.3572	1	5026.332	-10.02945	1.552089E-006	0.0071018	7
	10	15	100078.1	5020.294	-773.4695	1	5079.529	-8.75861	-2.964078E-008	0.0101173	7
	11	17	79453.13	5087.991	-697.5048	1	5135.579	-7.805932	-4.515537E-008	0.0101312	7
	12	18	63140.62	5143.987	-641.2385	1	5183.801	-7.105715	5.135828E-009	0.0099607	7
	13	19	50203.12	5194.667	-602.9401	1	5229.542	-6.620641	6.867263E-008	0.0099209	7
	14	21	39890.62	5240.685	-580.9473	1	5272.787	-6.325601	-1.559512E-008	0.0099919	7
	15	22	31640.63	5290.484	-576.9691	1	5321.853	-6.22396	-3.506495E-008	0.0100349	7
	16	23	25171.88	5338.085	-587.0546	1	5370.269	-6.275869	-5.855877E-008	0.0100723	7
	17	25	20015.62	5375.558	-622.2637	1	5411.454	-6.603055	7.056506E-008	0.0099156	7
	18	26	15890.62	5436.478	-650.554	1	5475.264	-6.823828	-3.831226E-008	0.0100626	7
	19	27	12609.37	5490.58	-706.1189	1	5535.799	-7.328328	-4.215185E-008	0.010117	7
	20	29	10078.13	5543.275	-782.657	1	5598.254	-8.036491	-1.807199E-008	0.0099929	7
	21	30	8015.625	5593.948	-889.6715	1	5664.253	-9.036738	-2.606685E-008	0.0100991	7
	22	31	6328.125	5666.572	-1005.37	1	5755.068	-10.06079	-3.429765E-008	0.0100359	7
	23	33	5015.625	5733.961	-1163.529	1	5850.822	-11.47065	-9.020528E-008	0.0101735	7
	24	34	3984.375	5821.02	-1367.179	1	5979.419	-13.21745	1.026179E-007	0.0099512	7
	25	35	3170.956	5889.723	-1595.065	1	6101.89	-15.15345	4.961127E-008	0.0099657	7
	26	37	2527.573	5989.923	-1890.271	1	6281.107	-17.5144	1.365352E-010	0.010062	7
	27	38	1976.103	6097.582	-2274.767	1	6508.077	-20.45856	4.506266E-008	0.0098758	7
	28	39	1577.524	6215.752	-2718.693	1	6784.31	-23.62397	-9.034344E-008	0.010171	7
	29	41	1265.625	6356.311	-3238.244	1	7133.647	-26.99672	4.429351E-008	0.0098747	7
	30	42	998.264	6524.245	-3927.851	1	7615.365	-31.04959	4.425766E-008	0.0098716	7
	31	43	796.875	6713.55	-4734.313	1	8214.954	-35.19102	5.116571E-008	0.0099707	7
	32	45	627.7902	6948.284	-5779.573	1	9037.816	-39.75364	-3.330081E-008	0.0100274	7
	33	46	505.5147	7216.362	-6946.953	1	10016.79	-43.91027	5.631424E-009	0.0097361	6
	34	47	397.9953	7528.014	-8507.325	1	11359.82	-48.49483	9.515888E-010	0.0099763	6
	35	49	315.5048	7912.332	-10397.37	1	13065.62	-52.7291	3.224899E-010	0.0099797	6
	36	50	252.4038	8362.29	-12628.14	1	15145.88	-56.48767	1.042836E-009	0.0099785	6
	37	51	198.6229	8967.021	-15581.89	1	17977.84	-60.08055	7.095811E-010	0.0099796	6
	38	53	158.3615	9695.13	-19020.64	1	21349.01	-62.99131	2.179934E-010	0.00998	6
	39	54	125.558	10645.76	-23339.41	1	25652.68	-65.48093	7.182421E-010	0.0099831	6
	40	55	100.4464	11800.28	-28436.96	1	30788.11	-67.46338	8.74966E-010	0.0099814	6
	41	57	79.00281	13439.83	-35067.12	1	37554.38	-69.03016	1.148924E-009	0.009979	6
	42	58	63.3446	15782.94	-42849.2	1	45663.5	-69.77938	5.495252E-010	0.0099736	6
	43	60	49.86702	18126.9	-52510.46	1	55551.17	-70.95505	9.955173E-010	0.0099736	6
	44	61	39.72458	22157.38	-63729.35	1	67471.32	-70.82849	4.141934E-010	0.0099769	6
	45	62	31.6723	27248.56	-77137.01	1	81808.33	-70.54429	-1.275481E-010	0.0099777	6
	46	64	24.93351	34172.27	-94191.92	1	100199.1	-70.05953	5.62535E-010	0.0099694	6
	47	65	19.86229	43105.41	-113005.3	1	120947.4	-69.12086	2.525685E-010	0.0099711	5
	48	66	15.83615	53795.69	-133796	1	144205.9	-68.0963	6.292977E-010	0.0099736	5
	49	68	12.40079	71603.73	-160178.4	1	175454.3	-65.91416	1.664063E-009	0.0099752	5
	50	69	9.93114	89753.33	-188588.4	1	208857	-64.5492	2.548444E-010	0.0099848	5
	51	71	7.944915	112653.6	-217133.2	1	244617.4	-62.57869	9.808443E-010	0.0099815	5
	52	72	6.317385	142137.8	-249364.3	1	287029.1	-60.31684	6.300964E-010	0.0099782	5
	53	74	5.008013	176210.9	-283888.5	1	334130.2	-58.17194	1.128507E-010	0.0099832	5
	54	77	3.945707	215584.7	-320522.1	1	386278.6	-56.07504	-3.058923E-011	0.0099776	5
	55	79	3.158693	255258.8	-355915.3	1	437987.1	-54.35229	-1.381089E-010	0.0099646	5
	56	83	2.504006	299599.1	-397044.6	1	497397.3	-52.96279	3.872841E-010	0.0099812	5
	57	85	1.998082	344363.7	-439550.6	1	558382.6	-51.92325	1.082609E-010	0.0100266	5
	58	88	1.584686	389658.3	-490625	1	626535.3	-51.54312	1.721182E-010	0.0099905	5
	59	92	1.266892	437852.5	-548528.8	1	701853.7	-51.40205	1.747819E-012	0.0100244	5
	60	96	0.999041	489473.7	-623704.4	1	792837.8	-51.87572	7.610966E-011	0.0099522	5
