EXPLAIN
TAG	EISPOT
TITLE	LABEL	Potentiostatic EIS	Test &Identifier
DATE	LABEL	10/22/2019	Date
TIME	LABEL	7:51:37	Time
NOTES	NOTES	1	&Notes...
	
PSTAT	PSTAT	REF600-11020	Potentiostat
VDC	POTEN	0.00000E+000	T	DC &Voltage (V)
FREQINIT	QUANT	1.00000E+006	Initial Fre&q. (Hz)
FREQFINAL	QUANT	1.00000E+000	Final Fre&q. (Hz)
PTSPERDEC	QUANT	1.00000E+001	Points/&decade
VAC	QUANT	2.50000E+001	AC &Voltage (mV rms)
AREA	QUANT	1.00000E-002	&Area (cm^2)
CONDIT	TWOPARAM	T	5.00000E+000	0.00000E+000	Conditionin&g	Time(s)	E(V)
DELAY	TWOPARAM	T	5.00000E+000	0.00000E+000	Init. De&lay	Time(s)	Stab.(mV/s)
SPEED	SELECTOR	1	&Optimize for:
ZGUESS	QUANT	1.00000E+005	E&stimated Z (ohms)
OCVCURVE	TABLE	19
	Pt	T	Vf	Vm	Ach	Over
	#	s	V vs. Ref.	V	V	bits
	0	0.258333	-8.09129E-003	-8.09129E-003	5.49633E-004	...........
	1	0.516667	-8.10646E-003	-8.88564E-003	5.53499E-004	...........
	2	0.775	-8.19888E-003	-9.59870E-003	5.49933E-004	...........
	3	1.03333	-8.45798E-003	-1.02921E-002	5.52299E-004	...........
	4	1.29167	-8.91734E-003	-1.09554E-002	5.47099E-004	...........
	5	1.55	-9.52331E-003	-1.15632E-002	5.53133E-004	...........
	6	1.80833	-1.01902E-002	-1.21622E-002	5.50733E-004	...........
	7	2.06667	-1.08552E-002	-1.27181E-002	5.49366E-004	...........
	8	2.325	-1.14899E-002	-1.32341E-002	5.54833E-004	...........
	9	2.58333	-1.20878E-002	-1.37627E-002	5.57666E-004	...........
	10	2.84167	-1.26529E-002	-1.42981E-002	5.55466E-004	...........
	11	3.1	-1.31946E-002	-1.47680E-002	5.52899E-004	...........
	12	3.35833	-1.37207E-002	-1.52854E-002	5.51232E-004	...........
	13	3.61667	-1.42353E-002	-1.57972E-002	5.56633E-004	...........
	14	3.875	-1.47431E-002	-1.63058E-002	5.55799E-004	...........
	15	4.13333	-1.52488E-002	-1.67756E-002	5.55299E-004	...........
	16	4.39167	-1.57514E-002	-1.72254E-002	5.59699E-004	...........
	17	4.65	-1.62442E-002	-1.76632E-002	5.55899E-004	...........
	18	4.90833	-1.67203E-002	-1.80632E-002	5.57199E-004	...........
EOC	QUANT	-0.0167203	Open Circuit (V)
PSTATMODEL	IQUANT	4	Pstat Model
PSTATSECTION	LABEL	REF600-11020	Pstat Section
PSTATSERIALNO	LABEL	11020	Pstat Serial Number
CTRLMODE	IQUANT	1	Control Mode
IESTAB	IQUANT	0	I/E Stability
CASPEED	IQUANT	1	Control Amp Speed
CONVENTION	IQUANT	1	Current Convention
ICHRANGE	IQUANT	2	Ich Range
ICHRANGEMODE	TOGGLE	F	Ich Auto Range
ICHOFFSETENABLE	TOGGLE	T	Ich Offset Enable
ICHOFFSET	QUANT	0	Ich Offset (V)
ICHFILTER	IQUANT	3	Ich Filter
VCHRANGE	IQUANT	2	Vch Range
VCHRANGEMODE	TOGGLE	F	Vch Auto Range
VCHOFFSETENABLE	TOGGLE	T	Vch Offset Enable
VCHOFFSET	QUANT	0	Vch Offset (V)
VCHFILTER	IQUANT	3	Vch Filter
ACHRANGE	IQUANT	2	Ach Range
ACHOFFSETENABLE	TOGGLE	F	Ach Offset Enable
ACHOFFSET	QUANT	0	Ach Offset (V)
ACHFILTER	IQUANT	3	Ach Filter
IERANGELOWERLIMIT	IQUANT	1	I/E Range Lower Limit
IERANGEMODE	TOGGLE	F	I/E AutoRange
IERANGE	IQUANT	5	I/E Range
POSFEEDENABLE	TOGGLE	F	Positive Feedback IR Comp
POSFEEDRESISTANCE	QUANT	0	Positive Feedback Resistance (ohm)
ACHSELECT	IQUANT	0	Ach Select
CABLEID	IQUANT	14	Cable ID
DCCALDATE	LABEL	8/19/2019	DC Calibration Date
ACCALDATE	LABEL	8/19/2019	AC Calibration Date
THERMOSELECT	IQUANT	1	Thermo Select
FRAMEWORKVERSION	QUANT	6.33	Framework Version
INSTRUMENTVERSION	LABEL	3.50	Instrument Version
ZCURVE	TABLE
	Pt	Time	Freq	Zreal	Zimag	Zsig	Zmod	Zphz	Idc	Vdc	IERange
	#	s	Hz	ohm	ohm	V	ohm	°	A	V	#
	0	2	1000078	1443.705	-1985.588	1	2454.963	-53.97941	3.812424E-007	-0.0139468	8
	1	3	794390.6	1631.791	-2335.089	1	2848.751	-55.05365	-1.80607E-006	-0.0145131	8
	2	4	630984.4	1893.285	-2745.611	1	3335.102	-55.41111	3.930082E-006	-0.0157466	8
	3	6	501234.4	2209.634	-3205.49	1	3893.283	-55.42043	-1.256619E-006	-0.015065	8
	4	7	398109.4	2653.269	-3704.928	1	4557.009	-54.39182	-2.068549E-006	-0.0147439	8
	5	8	316265.6	3162.667	-4288.759	1	5328.782	-53.59376	-2.79141E-006	-0.0145655	8
	6	10	251203.1	3806.17	-4865.262	1	6177.192	-51.96338	-1.963066E-006	-0.014806	8
	7	12	199546.9	4539.494	-5457.32	1	7098.545	-50.24573	-2.07042E-006	-0.0148095	8
	8	13	158578.1	5462.987	-6064.958	1	8162.595	-47.98918	1.170026E-006	-0.0154626	8
	9	15	125953.1	6565.971	-6569.715	1	9288.333	-45.01633	-4.331137E-007	-0.0145152	7
	10	16	100078.1	7660.691	-7086.435	1	10435.7	-42.77002	-4.266803E-008	-0.0151605	7
	11	18	79453.13	8867.968	-7574.082	1	11662.23	-40.50046	-2.295815E-008	-0.0152903	7
	12	19	63140.62	10176.9	-7993.809	1	12941.03	-38.14913	-4.03949E-008	-0.0152486	7
	13	21	50203.12	11578.85	-8345.46	1	14272.92	-35.7822	8.47645E-009	-0.0152574	7
	14	22	39890.62	13060.42	-8582.527	1	15628	-33.31054	-3.291185E-008	-0.0152666	7
	15	23	31640.63	14564.88	-8726.89	1	16979.23	-30.92893	-4.871613E-009	-0.015247	7
	16	25	25171.88	16066.7	-8723.111	1	18282	-28.49891	-4.429465E-008	-0.0151074	7
	17	26	20015.62	17505.62	-8581.462	1	19495.85	-26.11464	-3.481491E-008	-0.0152666	7
	18	27	15890.62	18916.76	-8409.117	1	20701.62	-23.96671	-3.627237E-008	-0.0152579	7
	19	29	12609.37	20412.89	-7968.102	1	21912.94	-21.32302	-4.42248E-009	-0.0152233	6
	20	31	10078.13	21559.35	-7731.657	1	22903.8	-19.72895	4.922234E-009	-0.0154474	6
	21	32	8015.625	22650.85	-7516.494	1	23865.43	-18.35799	7.299102E-009	-0.015326	6
	22	33	6328.125	23771.78	-7337.354	1	24878.39	-17.15327	6.421492E-009	-0.0152479	6
	23	35	5015.625	24789.71	-7219.515	1	25819.59	-16.23716	7.331459E-009	-0.0152981	6
	24	36	3984.375	25812.47	-7144.427	1	26782.95	-15.47113	6.968761E-009	-0.0153006	6
	25	38	3170.956	26786.73	-7193.932	1	27735.92	-15.03282	5.203071E-009	-0.0154492	6
	26	39	2527.573	27818.89	-7288.97	1	28757.95	-14.68231	-6.413872E-009	-0.0152588	6
	27	40	1976.103	28917.95	-7492	1	29872.7	-14.52471	2.022936E-008	-0.0156594	6
	28	42	1577.524	29773.88	-7951.764	1	30817.44	-14.95309	-5.630648E-009	-0.0152323	6
	29	43	1265.625	30787.09	-8027.189	1	31816.36	-14.61351	-6.145873E-009	-0.0152634	6
	30	44	998.264	31862.97	-8529.969	1	32984.98	-14.9871	4.74822E-009	-0.0155242	6
	31	46	796.875	32901.97	-9033.607	1	34119.58	-15.35288	-1.506847E-009	-0.0154155	6
	32	47	627.7902	33989.16	-9779.64	1	35368.12	-16.05202	7.329626E-009	-0.0153321	6
	33	49	505.5147	35084.96	-10556.68	1	36638.75	-16.74596	1.203769E-008	-0.0153755	6
	34	50	397.9953	36345.84	-11625.25	1	38159.75	-17.73692	3.069567E-009	-0.015317	6
	35	51	315.5048	37670.84	-12907.38	1	39820.76	-18.91329	2.455546E-009	-0.0153207	6
	36	53	252.4038	38656.38	-14293.47	1	41214.31	-20.29223	2.320101E-009	-0.01532	6
	37	54	198.6229	40376.4	-16176.77	1	43496.45	-21.83347	3.110631E-009	-0.015321	6
	38	55	158.3615	42200.93	-18272.3	1	45986.91	-23.4118	2.523168E-009	-0.0153234	6
	39	57	125.558	44274.37	-20810.87	1	48921.49	-25.17555	2.558911E-009	-0.0153218	6
	40	58	100.4464	46554.78	-23488.57	1	52144.61	-26.7726	1.969973E-009	-0.0153232	6
	41	59	79.00281	49429.77	-27160.02	1	56400.08	-28.78734	3.265338E-009	-0.0153273	6
	42	61	63.3446	53180.13	-31065.29	1	61588.79	-30.29143	2.803561E-009	-0.0153194	6
	43	62	49.86702	55743.43	-35021.73	1	65832	-32.13977	3.693145E-009	-0.0153303	6
	44	64	39.72458	60468.54	-39630.27	1	72298.02	-33.24029	3.466515E-009	-0.0153176	6
	45	65	31.6723	64891.39	-45034.43	1	78987.3	-34.76053	2.113474E-009	-0.0153229	6
	46	66	24.93351	70501.08	-51225.48	1	87146.15	-36.00183	3.349077E-009	-0.0153258	6
	47	68	19.86229	76429.53	-58203.7	1	96068.4	-37.29051	3.596648E-009	-0.0153175	6
	48	69	15.83615	83661.91	-65886.98	1	106491.4	-38.2218	2.686253E-010	-0.015314	5
	49	70	12.40079	90979.96	-75928.67	1	118501.1	-39.84719	1.973063E-009	-0.0153157	5
	50	72	9.93114	99554.5	-85009.59	1	130911.2	-40.494	1.498315E-009	-0.0153083	5
	51	73	7.944915	108693.8	-96386.6	1	145274.6	-41.56573	3.980603E-009	-0.0153188	5
	52	75	6.317385	120065	-109676.7	1	162617.9	-42.41099	2.777971E-009	-0.0153193	5
	53	77	5.008013	133108.5	-125152.5	1	182704.7	-43.23549	2.490838E-009	-0.015306	5
	54	80	3.945707	149445.4	-143417.1	1	207128.9	-43.82079	1.378692E-009	-0.0153189	5
	55	82	3.158693	167051.9	-163074.7	1	233451.7	-44.30977	2.448783E-009	-0.0153067	5
	56	86	2.504006	186392	-185831.6	1	263202.2	-44.91373	1.191797E-009	-0.0153129	5
	57	88	1.998082	206648.6	-210805.7	1	295199.4	-45.57056	2.141787E-009	-0.0153599	5
	58	91	1.584686	230372	-241206.8	1	333544.6	-46.31618	1.470598E-009	-0.0153421	5
	59	95	1.266892	256443.8	-274174.8	1	375413.4	-46.91387	2.294104E-009	-0.015357	5
	60	99	0.999041	287605.5	-315092.2	1	426614.6	-47.61123	1.661249E-009	-0.0152995	5
