EXPLAIN
TAG	EISPOT
TITLE	LABEL	Potentiostatic EIS	Test &Identifier
DATE	LABEL	10/16/2019	Date
TIME	LABEL	8:57:07	Time
NOTES	NOTES	1	&Notes...
	
PSTAT	PSTAT	REF600-11020	Potentiostat
VDC	POTEN	0.00000E+000	T	DC &Voltage (V)
FREQINIT	QUANT	1.00000E+006	Initial Fre&q. (Hz)
FREQFINAL	QUANT	1.00000E+000	Final Fre&q. (Hz)
PTSPERDEC	QUANT	1.00000E+001	Points/&decade
VAC	QUANT	2.50000E+001	AC &Voltage (mV rms)
AREA	QUANT	1.00000E-002	&Area (cm^2)
CONDIT	TWOPARAM	T	5.00000E+000	0.00000E+000	Conditionin&g	Time(s)	E(V)
DELAY	TWOPARAM	T	5.00000E+000	0.00000E+000	Init. De&lay	Time(s)	Stab.(mV/s)
SPEED	SELECTOR	1	&Optimize for:
ZGUESS	QUANT	1.00000E+005	E&stimated Z (ohms)
OCVCURVE	TABLE	19
	Pt	T	Vf	Vm	Ach	Over
	#	s	V vs. Ref.	V	V	bits
	0	0.258333	5.74235E-003	5.74235E-003	6.32098E-004	...........
	1	0.516667	5.74248E-003	5.74881E-003	6.35098E-004	...........
	2	0.775	5.74661E-003	5.93150E-003	6.24031E-004	...........
	3	1.03333	5.76605E-003	5.92620E-003	6.29598E-004	...........
	4	1.29167	5.80459E-003	5.76877E-003	6.29165E-004	...........
	5	1.55	5.83902E-003	5.71702E-003	6.29031E-004	...........
	6	1.80833	5.84312E-003	5.91508E-003	6.22132E-004	...........
	7	2.06667	5.83073E-003	6.00665E-003	6.29865E-004	...........
	8	2.325	5.84310E-003	6.10142E-003	6.28698E-004	...........
	9	2.58333	5.89867E-003	6.14733E-003	6.22765E-004	...........
	10	2.84167	5.97971E-003	6.14664E-003	6.23231E-004	...........
	11	3.1	6.05714E-003	6.16990E-003	6.21932E-004	...........
	12	3.35833	6.11342E-003	6.18599E-003	6.23432E-004	...........
	13	3.61667	6.14563E-003	6.07158E-003	6.26365E-004	...........
	14	3.875	6.15003E-003	5.86054E-003	6.28198E-004	...........
	15	4.13333	6.11841E-003	6.04137E-003	6.26031E-004	...........
	16	4.39167	6.06857E-003	6.30824E-003	6.29431E-004	...........
	17	4.65	6.05629E-003	6.49676E-003	6.20698E-004	...........
	18	4.90833	6.12406E-003	6.53649E-003	6.28398E-004	...........
EOC	QUANT	0.0061241	Open Circuit (V)
PSTATMODEL	IQUANT	4	Pstat Model
PSTATSECTION	LABEL	REF600-11020	Pstat Section
PSTATSERIALNO	LABEL	11020	Pstat Serial Number
CTRLMODE	IQUANT	1	Control Mode
IESTAB	IQUANT	0	I/E Stability
CASPEED	IQUANT	1	Control Amp Speed
CONVENTION	IQUANT	1	Current Convention
ICHRANGE	IQUANT	2	Ich Range
ICHRANGEMODE	TOGGLE	F	Ich Auto Range
ICHOFFSETENABLE	TOGGLE	T	Ich Offset Enable
ICHOFFSET	QUANT	0	Ich Offset (V)
ICHFILTER	IQUANT	3	Ich Filter
VCHRANGE	IQUANT	2	Vch Range
VCHRANGEMODE	TOGGLE	F	Vch Auto Range
VCHOFFSETENABLE	TOGGLE	T	Vch Offset Enable
VCHOFFSET	QUANT	0	Vch Offset (V)
VCHFILTER	IQUANT	3	Vch Filter
ACHRANGE	IQUANT	2	Ach Range
ACHOFFSETENABLE	TOGGLE	F	Ach Offset Enable
ACHOFFSET	QUANT	0	Ach Offset (V)
ACHFILTER	IQUANT	3	Ach Filter
IERANGELOWERLIMIT	IQUANT	1	I/E Range Lower Limit
IERANGEMODE	TOGGLE	F	I/E AutoRange
IERANGE	IQUANT	5	I/E Range
POSFEEDENABLE	TOGGLE	F	Positive Feedback IR Comp
POSFEEDRESISTANCE	QUANT	0	Positive Feedback Resistance (ohm)
ACHSELECT	IQUANT	0	Ach Select
CABLEID	IQUANT	14	Cable ID
DCCALDATE	LABEL	8/19/2019	DC Calibration Date
ACCALDATE	LABEL	8/19/2019	AC Calibration Date
THERMOSELECT	IQUANT	1	Thermo Select
FRAMEWORKVERSION	QUANT	6.33	Framework Version
INSTRUMENTVERSION	LABEL	3.50	Instrument Version
ZCURVE	TABLE
	Pt	Time	Freq	Zreal	Zimag	Zsig	Zmod	Zphz	Idc	Vdc	IERange
	#	s	Hz	ohm	ohm	V	ohm	°	A	V	#
	0	1	1000078	1353.759	-2267.109	1	2640.539	-59.15731	2.027288E-006	0.0077427	8
	1	2	794390.6	1531.239	-2692.906	1	3097.812	-60.3766	1.334874E-006	0.0075609	8
	2	4	630984.4	1762.114	-3214.652	1	3665.929	-61.27062	4.424263E-007	0.0075946	8
	3	5	501234.4	2073.229	-3817.604	1	4344.235	-61.49491	-1.900537E-006	0.008096	8
	4	6	398109.4	2462.022	-4542.615	1	5166.905	-61.54305	9.340335E-007	0.0076135	8
	5	8	316265.6	2999.555	-5345.648	1	6129.705	-60.70231	-8.089802E-007	0.0075909	8
	6	9	251203.1	3653.546	-6280.213	1	7265.637	-59.81108	1.545542E-006	0.0073082	8
	7	11	199546.9	4449.989	-7316.442	1	8563.453	-58.6913	-1.232973E-006	0.0078269	8
	8	13	158578.1	5472.027	-8416.847	1	10039.24	-56.97098	1.466481E-006	0.0073108	8
	9	15	125953.1	6838.975	-9521.28	1	11722.9	-54.31094	6.740296E-007	0.0058988	7
	10	16	100078.1	8289.368	-10790.47	1	13606.91	-52.4681	2.866802E-008	0.0076346	7
	11	18	79453.13	10040.81	-12071.65	1	15701.67	-50.24739	-4.826815E-008	0.0077492	7
	12	19	63140.62	12116.98	-13298.29	1	17990.71	-47.6612	7.029941E-008	0.0074134	7
	13	21	50203.12	14509.94	-14408.91	1	20448.83	-44.79983	-5.848307E-009	0.0075781	7
	14	22	39890.62	17239.82	-15334.32	1	23072.77	-41.65216	3.161352E-008	0.0076166	7
	15	24	31640.63	20195.11	-15839.72	1	25665.91	-38.10831	-4.882071E-009	0.0075288	7
	16	25	25171.88	23211.93	-15998.89	1	28191.46	-34.57667	-2.219647E-008	0.0075363	7
	17	27	20015.62	26265.63	-15893.9	1	30700.15	-31.17903	-5.053965E-009	0.0075728	7
	18	28	15890.62	29037.48	-15158.4	1	32755.95	-27.56585	-7.096382E-008	0.0076492	7
	19	30	12609.37	31861.62	-14043.03	1	34819.09	-23.78551	-7.249371E-009	0.0076646	6
	20	32	10078.13	33953.74	-13198.28	1	36428.71	-21.24179	-5.416174E-009	0.0075199	6
	21	33	8015.625	35853.67	-12390.82	1	37934.39	-19.06485	-5.477273E-009	0.0075556	6
	22	35	6328.125	37456.21	-11448.7	1	39166.83	-16.99607	5.450988E-009	0.0073506	6
	23	36	5015.625	38892.25	-10728.7	1	40344.92	-15.42188	-3.440769E-009	0.0074275	6
	24	38	3984.375	40181.31	-9944.21	1	41393.54	-13.90046	4.91014E-009	0.0073434	6
	25	39	3170.956	41262.77	-9724.63	1	42393.21	-13.26123	2.755411E-009	0.0075579	6
	26	41	2527.573	42284.66	-9460.664	1	43330.09	-12.61151	2.715717E-009	0.0073741	6
	27	42	1976.103	43278.46	-9321.203	1	44270.87	-12.15455	2.165176E-009	0.0075616	6
	28	44	1577.524	45190.65	-9595.49	1	46198.14	-11.98777	1.144917E-008	0.007387	6
	29	45	1265.625	45084.36	-9866.35	1	46151.32	-12.34411	1.271925E-008	0.0073869	6
	30	47	998.264	45989.97	-10367.9	1	47144.15	-12.70429	-5.598592E-009	0.0075499	6
	31	48	796.875	46971.92	-11176.18	1	48283.21	-13.38371	5.11508E-009	0.0073421	6
	32	49	627.7902	47883.63	-12316.01	1	49442.15	-14.42423	3.11762E-009	0.0075757	6
	33	51	505.5147	48953.57	-13675.3	1	50827.8	-15.60783	-3.487423E-009	0.0074083	6
	34	52	397.9953	50200.64	-15541.77	1	52551.41	-17.20216	-1.485526E-010	0.0074979	6
	35	53	315.5048	51577.92	-17850.64	1	54579.55	-19.09026	1.08803E-009	0.0075024	6
	36	55	252.4038	53043.68	-20493.2	1	56864.78	-21.12382	2.348728E-010	0.0074934	6
	37	56	198.6229	55010.26	-23954.12	1	59999.4	-23.53063	7.605276E-010	0.007495	6
	38	57	158.3615	57186.52	-27922.17	1	63639.18	-26.02463	9.91525E-010	0.007494	6
	39	59	125.558	59859.34	-32583.02	1	68152.72	-28.56062	7.392829E-010	0.0074917	6
	40	60	100.4464	63197.29	-37976.11	1	73729.8	-31.00223	6.621948E-010	0.0074919	6
	41	61	79.00281	67309.94	-44317.62	1	80589.57	-33.36135	7.354889E-010	0.0074922	6
	42	63	63.3446	69314.68	-51017.4	1	86065.67	-36.35403	-1.291252E-011	0.0074939	6
	43	64	49.86702	78384.64	-60100.19	1	98773.4	-37.47862	-4.183555E-010	0.0074978	6
	44	66	39.72458	83154.45	-70428.95	1	108972	-40.26345	4.98293E-011	0.0075001	5
	45	67	31.6723	90935.24	-80779.7	1	121633	-41.61536	1.26231E-010	0.0074997	5
	46	69	24.93351	100043.9	-94210.25	1	137420.3	-43.27988	-1.180482E-010	0.0074955	5
	47	70	19.86229	110867.3	-108645.8	1	155227.1	-44.42019	1.506084E-010	0.0074944	5
	48	71	15.83615	119978.9	-123056.9	1	171866.1	-45.72559	1.098026E-009	0.007493	5
	49	73	12.40079	139118.9	-142309.8	1	199013	-45.64961	-1.570719E-009	0.0075007	5
	50	74	9.93114	153549.3	-163726.2	1	224463	-46.83717	-4.292574E-010	0.0075012	5
	51	76	7.944915	171741.4	-186953.7	1	253863.7	-47.42846	1.279276E-010	0.0074965	5
	52	77	6.317385	190417.2	-213306.4	1	285934.2	-48.24492	2.995308E-010	0.007505	5
	53	79	5.008013	213096.8	-244734.7	1	324507.8	-48.95308	3.49646E-010	0.0075056	5
	54	82	3.945707	239971.3	-281469.2	1	369879.9	-49.55019	-8.823615E-011	0.0074949	5
	55	84	3.158693	267393.2	-321982.6	1	418535.4	-50.29177	2.099287E-010	0.0075107	5
	56	88	2.504006	300769.7	-371549.6	1	478028.8	-51.0098	-3.116489E-010	0.0074951	5
	57	90	1.998082	337456.2	-426719.7	1	544027.9	-51.66254	-1.129318E-010	0.0074555	5
	58	94	1.584686	379804.3	-492583.8	1	622004.9	-52.36616	-9.426235E-011	0.0075135	5
	59	97	1.266892	428998.7	-568537.5	1	712232.3	-52.96306	-8.266828E-011	0.0074519	5
	60	102	0.999041	489531.1	-660494.3	1	822127.3	-53.45568	7.477762E-011	0.0075322	5
