EXPLAIN
TAG	EISPOT
TITLE	LABEL	Potentiostatic EIS	Test &Identifier
DATE	LABEL	9/22/2019	Date
TIME	LABEL	10:49:30	Time
NOTES	NOTES	1	&Notes...
	
PSTAT	PSTAT	REF600-11020	Potentiostat
VDC	POTEN	0.00000E+000	T	DC &Voltage (V)
FREQINIT	QUANT	1.00000E+006	Initial Fre&q. (Hz)
FREQFINAL	QUANT	1.00000E+000	Final Fre&q. (Hz)
PTSPERDEC	QUANT	1.00000E+001	Points/&decade
VAC	QUANT	2.50000E+001	AC &Voltage (mV rms)
AREA	QUANT	1.00000E-002	&Area (cm^2)
CONDIT	TWOPARAM	T	5.00000E+000	0.00000E+000	Conditionin&g	Time(s)	E(V)
DELAY	TWOPARAM	T	5.00000E+000	0.00000E+000	Init. De&lay	Time(s)	Stab.(mV/s)
SPEED	SELECTOR	1	&Optimize for:
ZGUESS	QUANT	1.00000E+004	E&stimated Z (ohms)
OCVCURVE	TABLE	19
	Pt	T	Vf	Vm	Ach	Over
	#	s	V vs. Ref.	V	V	bits
	0	0.258333	8.77583E-003	8.77583E-003	6.42164E-004	...........
	1	0.516667	8.77786E-003	8.88199E-003	6.43398E-004	...........
	2	0.775	8.79049E-003	8.99202E-003	6.46331E-004	...........
	3	1.03333	8.82698E-003	9.10585E-003	6.47164E-004	...........
	4	1.29167	8.89422E-003	9.22042E-003	6.40664E-004	...........
	5	1.55	8.98719E-003	9.33571E-003	6.39098E-004	...........
	6	1.80833	9.09510E-003	9.44318E-003	6.40931E-004	...........
	7	2.06667	9.20843E-003	9.54370E-003	6.42798E-004	...........
	8	2.325	9.32100E-003	9.64480E-003	6.39165E-004	...........
	9	2.58333	9.42999E-003	9.75274E-003	6.45865E-004	...........
	10	2.84167	9.53546E-003	9.84499E-003	6.42698E-004	...........
	11	3.1	9.63834E-003	9.93908E-003	6.43065E-004	...........
	12	3.35833	9.73847E-003	1.00212E-002	6.42631E-004	...........
	13	3.61667	9.83474E-003	1.01067E-002	6.43331E-004	...........
	14	3.875	9.92637E-003	1.01816E-002	6.47431E-004	...........
	15	4.13333	1.00132E-002	1.02553E-002	6.46498E-004	...........
	16	4.39167	1.00954E-002	1.03250E-002	6.44598E-004	...........
	17	4.65	1.01733E-002	1.03963E-002	6.42264E-004	...........
	18	4.90833	1.02477E-002	1.04623E-002	6.38898E-004	...........
EOC	QUANT	0.0102477	Open Circuit (V)
PSTATMODEL	IQUANT	4	Pstat Model
PSTATSECTION	LABEL	REF600-11020	Pstat Section
PSTATSERIALNO	LABEL	11020	Pstat Serial Number
CTRLMODE	IQUANT	1	Control Mode
IESTAB	IQUANT	0	I/E Stability
CASPEED	IQUANT	1	Control Amp Speed
CONVENTION	IQUANT	1	Current Convention
ICHRANGE	IQUANT	2	Ich Range
ICHRANGEMODE	TOGGLE	F	Ich Auto Range
ICHOFFSETENABLE	TOGGLE	T	Ich Offset Enable
ICHOFFSET	QUANT	0	Ich Offset (V)
ICHFILTER	IQUANT	3	Ich Filter
VCHRANGE	IQUANT	2	Vch Range
VCHRANGEMODE	TOGGLE	F	Vch Auto Range
VCHOFFSETENABLE	TOGGLE	T	Vch Offset Enable
VCHOFFSET	QUANT	0	Vch Offset (V)
VCHFILTER	IQUANT	3	Vch Filter
ACHRANGE	IQUANT	2	Ach Range
ACHOFFSETENABLE	TOGGLE	F	Ach Offset Enable
ACHOFFSET	QUANT	0	Ach Offset (V)
ACHFILTER	IQUANT	3	Ach Filter
IERANGELOWERLIMIT	IQUANT	1	I/E Range Lower Limit
IERANGEMODE	TOGGLE	F	I/E AutoRange
IERANGE	IQUANT	6	I/E Range
POSFEEDENABLE	TOGGLE	F	Positive Feedback IR Comp
POSFEEDRESISTANCE	QUANT	0	Positive Feedback Resistance (ohm)
ACHSELECT	IQUANT	0	Ach Select
CABLEID	IQUANT	14	Cable ID
DCCALDATE	LABEL	8/19/2019	DC Calibration Date
ACCALDATE	LABEL	8/19/2019	AC Calibration Date
THERMOSELECT	IQUANT	1	Thermo Select
FRAMEWORKVERSION	QUANT	6.33	Framework Version
INSTRUMENTVERSION	LABEL	3.50	Instrument Version
ZCURVE	TABLE
	Pt	Time	Freq	Zreal	Zimag	Zsig	Zmod	Zphz	Idc	Vdc	IERange
	#	s	Hz	ohm	ohm	V	ohm	°	A	V	#
	0	1	1000078	2388.797	-2037.563	1	3139.747	-40.46306	3.74694E-006	0.0111826	8
	1	3	794390.6	2790.447	-2059.801	1	3468.339	-36.43332	4.351157E-006	0.0110489	8
	2	5	630984.4	3209.179	-2026.442	1	3795.431	-32.27044	-9.550818E-008	0.011746	8
	3	6	501234.4	3623.473	-1942.211	1	4111.172	-28.19167	-3.530345E-007	0.012013	8
	4	7	398109.4	3923.995	-1790.245	1	4313.086	-24.5239	2.447183E-006	0.0112682	8
	5	9	316265.6	4224.814	-1619.325	1	4524.518	-20.97128	8.134831E-007	0.011703	8
	6	10	251203.1	4448.247	-1437.16	1	4674.648	-17.90485	-3.170153E-006	0.0124923	8
	7	11	199546.9	4610.373	-1260.518	1	4779.586	-15.29147	2.370501E-006	0.0112612	8
	8	13	158578.1	4795.299	-1134.194	1	4927.604	-13.30717	2.778579E-007	0.0119667	8
	9	14	125953.1	4925.339	-905.2698	1	5007.842	-10.41464	-8.884006E-007	0.0130766	7
	10	16	100078.1	5020.322	-806.5261	1	5084.694	-9.126713	-3.627763E-008	0.0118636	7
	11	17	79453.13	5092.074	-725.5972	1	5143.511	-8.109791	-5.499266E-008	0.0118699	7
	12	19	63140.62	5153.653	-661.8162	1	5195.974	-7.317697	4.454435E-008	0.011647	7
	13	20	50203.12	5206.546	-614.5394	1	5242.688	-6.731593	-6.366574E-008	0.0118667	7
	14	21	39890.62	5254.413	-585.729	1	5286.959	-6.360714	-3.436797E-008	0.0118523	7
	15	23	31640.63	5301.15	-573.1434	1	5332.043	-6.170667	-6.387356E-008	0.011893	7
	16	24	25171.88	5348.79	-574.057	1	5379.506	-6.125802	8.356998E-008	0.0116117	7
	17	25	20015.62	5391.611	-593.0497	1	5424.129	-6.277009	8.398878E-008	0.0116167	7
	18	27	15890.62	5441.435	-625.2565	1	5477.24	-6.554911	-2.812806E-008	0.0117729	7
	19	28	12609.37	5491.174	-675.224	1	5532.533	-7.010202	1.244662E-007	0.0116151	7
	20	29	10078.13	5543.6	-741.0944	1	5592.917	-7.614422	-3.441487E-008	0.0118521	7
	21	31	8015.625	5598.109	-827.7786	1	5658.979	-8.411236	8.829561E-008	0.0117336	7
	22	32	6328.125	5661.498	-943.2282	1	5739.533	-9.458829	1.255366E-007	0.0116123	7
	23	33	5015.625	5726.955	-1085.023	1	5828.833	-10.72805	8.523426E-008	0.0116149	7
	24	35	3984.375	5800.691	-1260.412	1	5936.047	-12.25904	8.432944E-008	0.0116164	7
	25	36	3170.956	5880.171	-1473.302	1	6061.933	-14.06613	6.986637E-008	0.0116713	7
	26	38	2527.573	5970.765	-1736.691	1	6218.209	-16.21791	4.412848E-008	0.0116391	7
	27	39	1976.103	6083.237	-2087.825	1	6431.546	-18.94271	9.037089E-008	0.011739	7
	28	40	1577.524	6207.832	-2482.047	1	6685.637	-21.79277	-6.223429E-008	0.0118845	7
	29	42	1265.625	6343.832	-2942.36	1	6992.974	-24.88254	7.024988E-008	0.0116685	7
	30	43	998.264	6522.082	-3555.962	1	7428.487	-28.60005	-4.289205E-008	0.0117958	7
	31	44	796.875	6716.272	-4255.938	1	7951.184	-32.36143	9.33453E-009	0.011702	7
	32	46	627.7902	6958.368	-5159.043	1	8662.252	-36.55382	-2.066701E-009	0.0118291	7
	33	47	505.5147	7208.813	-6154.809	1	9478.854	-40.49035	-5.249264E-008	0.0118522	7
	34	49	397.9953	7540.777	-7500.703	1	10635.97	-44.84735	1.109065E-009	0.0117495	6
	35	50	315.5048	7912.168	-9107.482	1	12064.35	-49.01737	3.118393E-010	0.011747	6
	36	51	252.4038	8333.722	-10999.86	1	13800.29	-52.85168	9.609906E-010	0.011751	6
	37	53	198.6229	8883.723	-13499.57	1	16160.41	-56.6521	1.14773E-009	0.0117458	6
	38	54	158.3615	9525.17	-16414.87	1	18978.33	-59.8744	1.36815E-009	0.0117441	6
	39	55	125.558	10351.09	-20075.11	1	22586.62	-62.72355	7.96389E-010	0.0117463	6
	40	57	100.4464	11371.72	-24393.29	1	26913.72	-65.0059	7.546431E-010	0.0117395	6
	41	58	79.00281	12752.74	-29971.86	1	32572.15	-66.95071	1.143194E-009	0.0117366	6
	42	60	63.3446	14670.39	-36185.36	1	39046.13	-67.93122	5.882775E-010	0.0117409	6
	43	61	49.86702	16651.48	-44855.69	1	47846.68	-69.6339	7.86504E-010	0.011743	6
	44	62	39.72458	19636.42	-54277.56	1	57720.38	-70.11099	6.243771E-010	0.0117448	6
	45	64	31.6723	23357.02	-65804.58	1	69826.88	-70.45792	4.519209E-010	0.0117406	6
	46	65	24.93351	28362.24	-80109.82	1	84982.35	-70.5039	9.32958E-010	0.0117411	6
	47	67	19.86229	34470.5	-96636	1	102599.9	-70.36845	8.493053E-010	0.0117494	6
	48	68	15.83615	43078.74	-116662.6	1	124362.2	-69.73287	-8.241522E-010	0.0117445	5
	49	69	12.40079	53214.02	-140163	1	149924.7	-69.21033	5.000865E-010	0.0117485	5
	50	71	9.93114	66317.28	-167229.6	1	179899.2	-68.36849	6.463171E-010	0.0117431	5
	51	72	7.944915	83077.35	-197989	1	214712.5	-67.23679	2.871211E-010	0.0117442	5
	52	74	6.317385	103478.4	-233042.2	1	254983.2	-66.0572	5.505063E-010	0.0117336	5
	53	76	5.008013	130075.8	-274141.8	1	303436.1	-64.61642	2.942898E-010	0.011753	5
	54	79	3.945707	163403.8	-321469.4	1	360615.3	-63.05564	-5.727764E-011	0.0117447	5
	55	81	3.158693	200712.3	-369838.2	1	420791.8	-61.51118	4.135673E-010	0.0117625	5
	56	85	2.504006	246758	-426244	1	492517.5	-59.93291	-1.283458E-010	0.0117456	5
	57	87	1.998082	298381	-483933	1	568526.5	-58.34305	-1.831289E-011	0.0117261	5
	58	90	1.584686	359049.7	-548988.4	1	655976.4	-56.81449	1.544396E-010	0.0117953	5
	59	94	1.266892	422617.9	-619986.9	1	750326.4	-55.71946	-6.849016E-011	0.0117436	5
	60	98	0.999041	498353.7	-700888.1	1	860000.3	-54.58596	4.216883E-010	0.0117675	5
