EXPLAIN
TAG	EISPOT
TITLE	LABEL	Potentiostatic EIS	Test &Identifier
DATE	LABEL	10/26/2019	Date
TIME	LABEL	10:13:20	Time
NOTES	NOTES	1	&Notes...
	
PSTAT	PSTAT	REF600-11020	Potentiostat
VDC	POTEN	0.00000E+000	T	DC &Voltage (V)
FREQINIT	QUANT	1.00000E+006	Initial Fre&q. (Hz)
FREQFINAL	QUANT	1.00000E+000	Final Fre&q. (Hz)
PTSPERDEC	QUANT	1.00000E+001	Points/&decade
VAC	QUANT	2.50000E+001	AC &Voltage (mV rms)
AREA	QUANT	1.00000E-002	&Area (cm^2)
CONDIT	TWOPARAM	T	5.00000E+000	0.00000E+000	Conditionin&g	Time(s)	E(V)
DELAY	TWOPARAM	T	5.00000E+000	0.00000E+000	Init. De&lay	Time(s)	Stab.(mV/s)
SPEED	SELECTOR	0	&Optimize for:
ZGUESS	QUANT	1.00000E+005	E&stimated Z (ohms)
OCVCURVE	TABLE	19
	Pt	T	Vf	Vm	Ach	Over
	#	s	V vs. Ref.	V	V	bits
	0	0.258333	6.86238E-003	6.86238E-003	5.50066E-004	...........
	1	0.516667	6.86148E-003	6.81551E-003	5.45966E-004	...........
	2	0.775	6.85620E-003	6.78233E-003	5.49233E-004	...........
	3	1.03333	6.84254E-003	6.78037E-003	5.52366E-004	...........
	4	1.29167	6.82282E-003	6.82319E-003	5.51033E-004	...........
	5	1.55	6.80771E-003	6.86311E-003	5.46733E-004	...........
	6	1.80833	6.80747E-003	6.86495E-003	5.51499E-004	...........
	7	2.06667	6.82276E-003	6.91439E-003	5.52932E-004	...........
	8	2.325	6.84724E-003	6.93918E-003	5.52832E-004	...........
	9	2.58333	6.87667E-003	7.01693E-003	5.53366E-004	...........
	10	2.84167	6.91177E-003	7.05282E-003	5.47399E-004	...........
	11	3.1	6.95382E-003	7.10069E-003	5.44999E-004	...........
	12	3.35833	7.00079E-003	7.14825E-003	5.48766E-004	...........
	13	3.61667	7.04979E-003	7.22870E-003	5.47199E-004	...........
	14	3.875	7.10216E-003	7.33330E-003	5.52932E-004	...........
	15	4.13333	7.16289E-003	7.39316E-003	5.48299E-004	...........
	16	4.39167	7.23190E-003	7.36847E-003	5.51033E-004	...........
	17	4.65	7.29716E-003	7.36544E-003	5.54933E-004	...........
	18	4.90833	7.34281E-003	7.35474E-003	5.48566E-004	...........
EOC	QUANT	0.0073428	Open Circuit (V)
PSTATMODEL	IQUANT	4	Pstat Model
PSTATSECTION	LABEL	REF600-11020	Pstat Section
PSTATSERIALNO	LABEL	11020	Pstat Serial Number
CTRLMODE	IQUANT	1	Control Mode
IESTAB	IQUANT	0	I/E Stability
CASPEED	IQUANT	1	Control Amp Speed
CONVENTION	IQUANT	1	Current Convention
ICHRANGE	IQUANT	2	Ich Range
ICHRANGEMODE	TOGGLE	F	Ich Auto Range
ICHOFFSETENABLE	TOGGLE	T	Ich Offset Enable
ICHOFFSET	QUANT	0	Ich Offset (V)
ICHFILTER	IQUANT	3	Ich Filter
VCHRANGE	IQUANT	2	Vch Range
VCHRANGEMODE	TOGGLE	F	Vch Auto Range
VCHOFFSETENABLE	TOGGLE	T	Vch Offset Enable
VCHOFFSET	QUANT	0	Vch Offset (V)
VCHFILTER	IQUANT	3	Vch Filter
ACHRANGE	IQUANT	2	Ach Range
ACHOFFSETENABLE	TOGGLE	F	Ach Offset Enable
ACHOFFSET	QUANT	0	Ach Offset (V)
ACHFILTER	IQUANT	3	Ach Filter
IERANGELOWERLIMIT	IQUANT	1	I/E Range Lower Limit
IERANGEMODE	TOGGLE	F	I/E AutoRange
IERANGE	IQUANT	5	I/E Range
POSFEEDENABLE	TOGGLE	F	Positive Feedback IR Comp
POSFEEDRESISTANCE	QUANT	0	Positive Feedback Resistance (ohm)
ACHSELECT	IQUANT	0	Ach Select
CABLEID	IQUANT	14	Cable ID
DCCALDATE	LABEL	8/19/2019	DC Calibration Date
ACCALDATE	LABEL	8/19/2019	AC Calibration Date
THERMOSELECT	IQUANT	1	Thermo Select
FRAMEWORKVERSION	QUANT	6.33	Framework Version
INSTRUMENTVERSION	LABEL	3.50	Instrument Version
ZCURVE	TABLE
	Pt	Time	Freq	Zreal	Zimag	Zsig	Zmod	Zphz	Idc	Vdc	IERange
	#	s	Hz	ohm	ohm	V	ohm	°	A	V	#
	0	1	1000078	2314.94	-1252.895	1	2632.241	-28.42319	1.711733E-006	0.0089765	8
	1	2	794390.6	2533.007	-1154.865	1	2783.853	-24.50949	3.973736E-007	0.009118	8
	2	2	630984.4	2722.06	-1033.2	1	2911.548	-20.78504	-4.393231E-007	0.0090361	8
	3	2	501234.4	2871.346	-915.5142	1	3013.768	-17.68462	-9.376784E-007	0.0092954	8
	4	3	398109.4	2982.402	-801.3869	1	3088.194	-15.04041	8.100339E-009	0.0089496	8
	5	3	316265.6	3067.862	-690.5252	1	3144.615	-12.68494	1.120625E-006	0.0087289	8
	6	3	251203.1	3140.539	-605.9089	1	3198.455	-10.91999	-9.277778E-007	0.0091592	8
	7	4	199546.9	3197.392	-530.124	1	3241.041	-9.413939	-4.370812E-007	0.0087519	8
	8	4	158578.1	3251.008	-485.5206	1	3287.063	-8.494039	-4.497298E-007	0.0087597	8
	9	4	125953.1	3291.575	-394.3193	1	3315.11	-6.831282	8.038483E-007	0.0069673	7
	10	5	100078.1	3324.225	-367.2364	1	3344.449	-6.304061	-6.118134E-010	0.0087977	7
	11	5	79453.13	3353.504	-356.924	1	3372.445	-6.075299	3.589474E-008	0.0086897	7
	12	5	63140.62	3384.477	-356.0913	1	3403.158	-6.006168	7.998735E-009	0.0087397	7
	13	5	50203.12	3417.186	-362.1799	1	3436.325	-6.050065	-3.773562E-008	0.0088746	7
	14	6	39890.62	3450.187	-376.9227	1	3470.714	-6.234669	-4.769973E-011	0.0087861	7
	15	6	31640.63	3487.958	-399.2167	1	3510.73	-6.529417	-3.562129E-008	0.0088729	7
	16	6	25171.88	3527.869	-429.2987	1	3553.894	-6.938087	-6.064501E-008	0.0088711	7
	17	7	20015.62	3577.097	-471.9207	1	3608.093	-7.515538	-5.990266E-008	0.0088715	7
	18	7	15890.62	3619.524	-514.149	1	3655.859	-8.084707	7.906627E-008	0.0087203	7
	19	7	12609.37	3671.153	-571.6903	1	3715.399	-8.851294	6.24749E-008	0.0086607	7
	20	8	10078.13	3726.111	-636.7122	1	3780.12	-9.69696	7.421963E-011	0.0087851	7
	21	8	8015.625	3785.943	-714.8366	1	3852.838	-10.69233	-8.744179E-009	0.00883	7
	22	8	6328.125	3850.661	-814.0219	1	3935.762	-11.93647	-3.651669E-008	0.008872	7
	23	9	5015.625	3918.102	-930.9105	1	4027.173	-13.36522	3.167851E-008	0.0087577	7
	24	9	3984.375	3988.031	-1073.178	1	4129.904	-15.06149	-3.774051E-010	0.0087813	7
	25	9	3170.956	4066.379	-1244.111	1	4252.44	-17.01152	-5.342842E-008	0.0088803	7
	26	10	2527.573	4146.858	-1452.607	1	4393.917	-19.30489	-9.008279E-009	0.00883	7
	27	10	1976.103	4241.512	-1731.539	1	4581.337	-22.20707	8.459757E-009	0.0087334	7
	28	10	1577.524	4324.229	-2034.136	1	4778.772	-25.1925	-5.308772E-008	0.0088812	7
	29	11	1265.625	4449.753	-2427.12	1	5068.65	-28.61028	7.386138E-009	0.0087315	7
	30	11	998.264	4583.8	-2923.276	1	5436.613	-32.52732	4.176661E-010	0.008781	7
	31	11	796.875	4726.07	-3505.069	1	5883.982	-36.56232	-5.964799E-008	0.0088648	7
	32	12	627.7902	4896.326	-4262.262	1	6491.601	-41.03964	-3.547092E-008	0.0088718	7
	33	12	505.5147	5076.4	-5097.288	1	7193.899	-45.11763	7.964969E-009	0.0088645	7
	34	12	397.9953	5311.338	-6242.36	1	8196.18	-49.60706	1.303509E-009	0.0088117	7
	35	13	315.5048	5576.939	-7619.35	1	9442.285	-53.79795	2.161326E-009	0.0088105	7
	36	13	252.4038	5885.683	-9251.805	1	10965.27	-57.53687	1.116042E-009	0.0087493	6
	37	13	198.6229	6287.22	-11419.6	1	13035.96	-61.1644	6.267491E-010	0.0087483	6
	38	13	158.3615	6769.188	-13956.79	1	15511.73	-64.12614	-3.771466E-010	0.0087468	6
	39	14	125.558	7388.787	-17159.89	1	18683.04	-66.70403	7.008802E-011	0.0087474	6
	40	14	100.4464	8127.894	-20921.44	1	22444.8	-68.76906	6.055406E-010	0.0087476	6
	41	14	79.00281	9195.521	-25867.22	1	27453.06	-70.43024	-6.291666E-010	0.0087432	6
	42	15	63.3446	10779.02	-31772.98	1	33551.59	-71.26044	3.16443E-011	0.0087435	6
	43	15	49.86702	12519.87	-39150.38	1	41103.52	-72.26629	-6.44926E-010	0.008743	6
	44	16	39.72458	14779.66	-47455.5	1	49703.75	-72.70119	3.391849E-010	0.0087482	6
	45	16	31.6723	17784.25	-57502.51	1	60189.85	-72.81432	7.794203E-010	0.0087455	6
	46	16	24.93351	21902.41	-70770.86	1	74082.59	-72.80357	-2.435987E-010	0.0087467	6
	47	17	19.86229	27159.22	-85827.16	1	90021.8	-72.44051	-9.09981E-010	0.0087457	6
	48	17	15.83615	35170.49	-102737.2	1	108590.5	-71.10215	2.176588E-009	0.0087459	5
	49	17	12.40079	44167.46	-125080.2	1	132649.2	-70.5512	-1.65059E-009	0.0087564	5
	50	18	9.93114	54851.18	-149672.6	1	159406.8	-69.87341	3.22508E-010	0.0087537	5
	51	18	7.944915	68746.42	-177290.5	1	190152.5	-68.80563	3.750777E-010	0.0087556	5
	52	19	6.317385	86862.03	-209952.5	1	227211.5	-67.52402	2.985877E-010	0.0087491	5
	53	19	5.008013	110225.9	-247555.8	1	270986.3	-65.99866	1.795288E-010	0.0087596	5
	54	21	3.945707	140020.2	-292196.5	1	324013	-64.39632	-2.898765E-010	0.0087483	5
	55	22	3.158693	172975.7	-336644.9	1	378484.3	-62.80488	-8.61549E-011	0.0087328	5
	56	24	2.504006	213813	-389199.9	1	444063.7	-61.21712	1.481074E-010	0.0087459	5
	57	25	1.998082	259125.8	-443627.8	1	513762.4	-59.71052	-5.601566E-011	0.0087233	5
	58	26	1.584686	313625.5	-507015.3	1	596175.7	-58.26022	-1.737549E-010	0.0086939	5
	59	28	1.266892	370335	-574147.3	1	683222.6	-57.17728	-1.639473E-010	0.0087182	5
	60	31	0.999041	437266.9	-652573	1	785527.8	-56.17531	-1.546154E-010	0.0087473	5
