EXPLAIN
TAG	EISPOT
TITLE	LABEL	Potentiostatic EIS	Test &Identifier
DATE	LABEL	10/2/2019	Date
TIME	LABEL	10:44:26	Time
NOTES	NOTES	2	&Notes...
	
	
PSTAT	PSTAT	REF600-11020	Potentiostat
VDC	POTEN	0.00000E+000	T	DC &Voltage (V)
FREQINIT	QUANT	1.00000E+006	Initial Fre&q. (Hz)
FREQFINAL	QUANT	1.00000E+000	Final Fre&q. (Hz)
PTSPERDEC	QUANT	1.00000E+001	Points/&decade
VAC	QUANT	2.50000E+001	AC &Voltage (mV rms)
AREA	QUANT	1.00000E-002	&Area (cm^2)
CONDIT	TWOPARAM	T	5.00000E+000	0.00000E+000	Conditionin&g	Time(s)	E(V)
DELAY	TWOPARAM	T	5.00000E+000	0.00000E+000	Init. De&lay	Time(s)	Stab.(mV/s)
SPEED	SELECTOR	1	&Optimize for:
ZGUESS	QUANT	1.00000E+004	E&stimated Z (ohms)
OCVCURVE	TABLE	19
	Pt	T	Vf	Vm	Ach	Over
	#	s	V vs. Ref.	V	V	bits
	0	0.258333	1.47762E-002	1.47762E-002	5.46333E-004	...........
	1	0.516667	1.47841E-002	1.51896E-002	5.45233E-004	...........
	2	0.775	1.47795E-002	1.27988E-002	5.46599E-004	...........
	3	1.03333	1.46079E-002	1.14608E-002	5.39999E-004	...........
	4	1.29167	1.40267E-002	9.56373E-003	5.42633E-004	...........
	5	1.55	1.29608E-002	8.99606E-003	5.45033E-004	...........
	6	1.80833	1.15650E-002	5.57102E-003	5.48899E-004	...........
	7	2.06667	9.96482E-003	3.70337E-003	5.43966E-004	...........
	8	2.325	8.19209E-003	4.46625E-003	5.47966E-004	...........
	9	2.58333	6.46972E-003	4.38040E-003	5.45699E-004	...........
	10	2.84167	5.32039E-003	1.09987E-002	5.47999E-004	...........
	11	3.1	5.41089E-003	1.60292E-002	5.43966E-004	...........
	12	3.35833	7.16721E-003	1.66920E-002	5.45466E-004	...........
	13	3.61667	1.02397E-002	2.04444E-002	5.42066E-004	...........
	14	3.875	1.37201E-002	2.30298E-002	5.45333E-004	...........
	15	4.13333	1.69362E-002	2.24862E-002	5.42766E-004	...........
	16	4.39167	1.94889E-002	1.88960E-002	5.45666E-004	...........
	17	4.65	2.09321E-002	1.98657E-002	5.45599E-004	...........
	18	4.90833	2.11341E-002	1.90802E-002	5.46799E-004	...........
EOC	QUANT	0.0211341	Open Circuit (V)
PSTATMODEL	IQUANT	4	Pstat Model
PSTATSECTION	LABEL	REF600-11020	Pstat Section
PSTATSERIALNO	LABEL	11020	Pstat Serial Number
CTRLMODE	IQUANT	1	Control Mode
IESTAB	IQUANT	0	I/E Stability
CASPEED	IQUANT	1	Control Amp Speed
CONVENTION	IQUANT	1	Current Convention
ICHRANGE	IQUANT	2	Ich Range
ICHRANGEMODE	TOGGLE	F	Ich Auto Range
ICHOFFSETENABLE	TOGGLE	T	Ich Offset Enable
ICHOFFSET	QUANT	0	Ich Offset (V)
ICHFILTER	IQUANT	3	Ich Filter
VCHRANGE	IQUANT	2	Vch Range
VCHRANGEMODE	TOGGLE	F	Vch Auto Range
VCHOFFSETENABLE	TOGGLE	T	Vch Offset Enable
VCHOFFSET	QUANT	0	Vch Offset (V)
VCHFILTER	IQUANT	3	Vch Filter
ACHRANGE	IQUANT	2	Ach Range
ACHOFFSETENABLE	TOGGLE	F	Ach Offset Enable
ACHOFFSET	QUANT	0	Ach Offset (V)
ACHFILTER	IQUANT	3	Ach Filter
IERANGELOWERLIMIT	IQUANT	1	I/E Range Lower Limit
IERANGEMODE	TOGGLE	F	I/E AutoRange
IERANGE	IQUANT	6	I/E Range
POSFEEDENABLE	TOGGLE	F	Positive Feedback IR Comp
POSFEEDRESISTANCE	QUANT	0	Positive Feedback Resistance (ohm)
ACHSELECT	IQUANT	0	Ach Select
CABLEID	IQUANT	14	Cable ID
DCCALDATE	LABEL	8/19/2019	DC Calibration Date
ACCALDATE	LABEL	8/19/2019	AC Calibration Date
THERMOSELECT	IQUANT	1	Thermo Select
FRAMEWORKVERSION	QUANT	6.33	Framework Version
INSTRUMENTVERSION	LABEL	3.50	Instrument Version
ZCURVE	TABLE
	Pt	Time	Freq	Zreal	Zimag	Zsig	Zmod	Zphz	Idc	Vdc	IERange
	#	s	Hz	ohm	ohm	V	ohm	°	A	V	#
	0	1	1000078	2295.364	-1859.264	1	2953.906	-39.00776	2.949464E-007	0.0232319	8
	1	3	794390.6	2678.674	-1851.48	1	3256.266	-34.65195	-2.550423E-006	0.0236519	8
	2	4	630984.4	3038.962	-1760.465	1	3512.054	-30.08364	2.123012E-007	0.0230007	8
	3	5	501234.4	3371.844	-1627.521	1	3744.083	-25.76567	-1.123702E-006	0.0231251	8
	4	7	398109.4	3644.999	-1458.441	1	3925.948	-21.80739	1.073154E-006	0.0228386	8
	5	8	316265.6	3853.096	-1295.35	1	4065.007	-18.58183	2.305234E-006	0.022313	8
	6	9	251203.1	4019.769	-1100.506	1	4167.692	-15.31089	-8.871912E-007	0.0227967	8
	7	11	199546.9	4183.09	-932.2124	1	4285.705	-12.56322	8.483172E-007	0.0228344	8
	8	12	158578.1	4257.413	-817.5679	1	4335.203	-10.8704	-9.254551E-008	0.0229465	8
	9	14	125953.1	4343.124	-663.6676	1	4393.538	-8.688093	1.399945E-006	0.0198207	7
	10	15	100078.1	4385.954	-574.2153	1	4423.383	-7.458821	-5.060768E-008	0.0229145	7
	11	16	79453.13	4429.134	-512.7942	1	4458.721	-6.60416	6.22499E-008	0.0227086	7
	12	18	63140.62	4467.062	-465.1908	1	4491.218	-5.945238	-7.390618E-008	0.0230216	7
	13	19	50203.12	4497.632	-432.7727	1	4518.406	-5.496213	-7.3017E-008	0.0230119	7
	14	20	39890.62	4530.826	-413.2873	1	4549.637	-5.211912	-1.238527E-008	0.0228209	7
	15	22	31640.63	4563.053	-405.1638	1	4581.005	-5.074115	-3.351254E-009	0.022775	7
	16	23	25171.88	4592.051	-409.0083	1	4610.229	-5.089834	-4.282226E-008	0.0228038	7
	17	24	20015.62	4620.761	-423.115	1	4640.093	-5.231884	-2.99408E-008	0.0227853	7
	18	26	15890.62	4652.472	-449.4624	1	4674.132	-5.518062	-7.326702E-008	0.0230063	7
	19	27	12609.37	4686.413	-487.7144	1	4711.723	-5.941378	4.857769E-008	0.0226419	7
	20	28	10078.13	4718.999	-541.7328	1	4749.992	-6.548788	-4.580237E-008	0.0228942	7
	21	30	8015.625	4755.937	-610.0109	1	4794.898	-7.309024	-6.211396E-008	0.0228942	7
	22	31	6328.125	4795.736	-701.0483	1	4846.706	-8.316681	-4.221437E-008	0.022798	7
	23	32	5015.625	4839.055	-814.8609	1	4907.184	-9.55851	-6.16717E-008	0.0228935	7
	24	34	3984.375	4886.742	-954.824	1	4979.15	-11.05577	9.826417E-008	0.0227007	7
	25	35	3170.956	4941.093	-1130.493	1	5068.769	-12.88713	-8.762933E-009	0.0228409	7
	26	36	2527.573	5002.361	-1342.221	1	5179.303	-15.01969	-3.041743E-008	0.0227835	7
	27	38	1976.103	5079.568	-1627.334	1	5333.875	-17.76383	-6.501697E-009	0.0227355	7
	28	39	1577.524	5158.881	-1947.201	1	5514.132	-20.67883	-7.592833E-008	0.0228892	7
	29	41	1265.625	5251.297	-2330.131	1	5745.053	-23.92805	-7.176839E-008	0.0230051	7
	30	42	998.264	5360.899	-2836.584	1	6065.101	-27.88442	-6.086845E-008	0.0229009	7
	31	43	796.875	5483.152	-3423.752	1	6464.289	-31.9812	-4.821534E-008	0.0228946	7
	32	45	627.7902	5637.746	-4190.822	1	7024.754	-36.62529	8.618822E-008	0.0226156	7
	33	46	505.5147	5794.985	-5049.944	1	7686.598	-41.06998	5.633203E-008	0.0226889	7
	34	47	397.9953	6013.971	-6221.198	1	8652.812	-45.97033	5.394169E-009	0.0228081	7
	35	49	315.5048	6267.25	-7628.92	1	9873.14	-50.59649	6.130134E-009	0.0228136	7
	36	50	252.4038	6569.637	-9295.451	1	11382.69	-54.74892	1.438539E-009	0.0227479	6
	37	51	198.6229	6975.695	-11504.87	1	13454.45	-58.7705	9.896989E-010	0.0227472	6
	38	53	158.3615	7463.716	-14084.55	1	15939.94	-62.07989	9.283733E-010	0.0227468	6
	39	54	125.558	8111.081	-17326.53	1	19131.08	-64.91425	1.07265E-009	0.022746	6
	40	55	100.4464	8923.055	-21148.31	1	22953.69	-67.12378	6.908158E-010	0.0227429	6
	41	57	79.00281	10013.89	-26170.08	1	28020.55	-69.06082	1.232528E-009	0.0227446	6
	42	58	63.3446	11274.99	-31940.88	1	33872.48	-70.55718	6.589116E-010	0.0227432	6
	43	60	49.86702	13311.64	-39139.4	1	41341.17	-71.2164	7.286862E-010	0.0227436	6
	44	61	39.72458	15778.05	-47811.45	1	50347.61	-71.73681	1.229923E-009	0.0227481	6
	45	62	31.6723	18873.61	-58035.82	1	61027.61	-71.98515	1.153574E-009	0.0227424	6
	46	64	24.93351	23321.4	-71216.41	1	74937.73	-71.86781	6.245751E-010	0.0227413	6
	47	65	19.86229	28917.8	-86026.48	1	90756.79	-71.41993	1.32429E-009	0.0227495	6
	48	66	15.83615	35538.27	-103399.1	1	109335.9	-71.03216	1.249834E-009	0.0227437	5
	49	68	12.40079	46402.63	-126254.6	1	134511.8	-69.82	1.536377E-009	0.0227523	5
	50	69	9.93114	57969.26	-149568.1	1	160409	-68.81478	8.778097E-010	0.0227448	5
	51	71	7.944915	73184.8	-176429.8	1	191006.5	-67.47085	-2.838533E-010	0.022745	5
	52	72	6.317385	92940.96	-208094	1	227906	-65.93304	1.577554E-011	0.022746	5
	53	74	5.008013	117789	-244020.4	1	270961.6	-64.23331	1.379963E-010	0.0227396	5
	54	77	3.945707	148783	-284340.7	1	320914.4	-62.37891	6.270117E-010	0.0227497	5
	55	79	3.158693	183899.8	-325509.4	1	373865.7	-60.53529	1.173971E-010	0.0227465	5
	56	83	2.504006	225753.1	-371056.5	1	434335.6	-58.68341	4.979785E-010	0.0227386	5
	57	86	1.998082	271095.4	-418251.7	1	498424.7	-57.05017	3.357892E-011	0.0227828	5
	58	89	1.584686	323430.9	-473110.6	1	573097.9	-55.64245	1.095188E-009	0.0227723	5
	59	92	1.266892	376233.9	-530076.9	1	650025.7	-54.63392	-1.136006E-011	0.0227846	5
	60	97	0.999041	430665.7	-593015.4	1	732898.5	-54.01171	2.406925E-010	0.0227272	5
