EXPLAIN
TAG	EISPOT
TITLE	LABEL	Potentiostatic EIS	Test &Identifier
DATE	LABEL	11/12/2019	Date
TIME	LABEL	21:17:44	Time
NOTES	NOTES	3	&Notes...
	
	
	
PSTAT	PSTAT	REF600-11020	Potentiostat
VDC	POTEN	0.00000E+000	T	DC &Voltage (V)
FREQINIT	QUANT	1.00000E+006	Initial Fre&q. (Hz)
FREQFINAL	QUANT	1.00000E+000	Final Fre&q. (Hz)
PTSPERDEC	QUANT	1.00000E+001	Points/&decade
VAC	QUANT	2.50000E+001	AC &Voltage (mV rms)
AREA	QUANT	1.00000E-002	&Area (cm^2)
CONDIT	TWOPARAM	T	5.00000E+000	0.00000E+000	Conditionin&g	Time(s)	E(V)
DELAY	TWOPARAM	T	5.00000E+000	0.00000E+000	Init. De&lay	Time(s)	Stab.(mV/s)
SPEED	SELECTOR	1	&Optimize for:
ZGUESS	QUANT	1.00000E+005	E&stimated Z (ohms)
OCVCURVE	TABLE	19
	Pt	T	Vf	Vm	Ach	Over
	#	s	V vs. Ref.	V	V	bits
	0	0.258333	-6.43329E-004	-6.43329E-004	5.52499E-004	...........
	1	0.516667	-6.50325E-004	-1.00950E-003	5.55999E-004	...........
	2	0.775	-6.93346E-004	-1.36005E-003	5.52566E-004	...........
	3	1.03333	-8.14631E-004	-1.66313E-003	5.55199E-004	...........
	4	1.29167	-1.02915E-003	-1.94742E-003	5.51466E-004	...........
	5	1.55	-1.30869E-003	-2.22314E-003	5.50633E-004	...........
	6	1.80833	-1.61064E-003	-2.46954E-003	5.52966E-004	...........
	7	2.06667	-1.90544E-003	-2.68309E-003	5.53233E-004	...........
	8	2.325	-2.17962E-003	-2.89407E-003	5.55266E-004	...........
	9	2.58333	-2.42999E-003	-3.10185E-003	5.51933E-004	...........
	10	2.84167	-2.65946E-003	-3.27747E-003	5.54566E-004	...........
	11	3.1	-2.87260E-003	-3.46264E-003	5.57833E-004	...........
	12	3.35833	-3.07283E-003	-3.64412E-003	5.53733E-004	...........
	13	3.61667	-3.26312E-003	-3.80860E-003	5.51166E-004	...........
	14	3.875	-3.44584E-003	-3.96622E-003	5.49633E-004	...........
	15	4.13333	-3.62125E-003	-4.11090E-003	5.49733E-004	...........
	16	4.39167	-3.78814E-003	-4.24775E-003	5.49766E-004	...........
	17	4.65	-3.94541E-003	-4.37580E-003	5.47733E-004	...........
	18	4.90833	-4.09313E-003	-4.51226E-003	5.45966E-004	...........
EOC	QUANT	-0.0040931	Open Circuit (V)
PSTATMODEL	IQUANT	4	Pstat Model
PSTATSECTION	LABEL	REF600-11020	Pstat Section
PSTATSERIALNO	LABEL	11020	Pstat Serial Number
CTRLMODE	IQUANT	1	Control Mode
IESTAB	IQUANT	0	I/E Stability
CASPEED	IQUANT	1	Control Amp Speed
CONVENTION	IQUANT	1	Current Convention
ICHRANGE	IQUANT	2	Ich Range
ICHRANGEMODE	TOGGLE	F	Ich Auto Range
ICHOFFSETENABLE	TOGGLE	T	Ich Offset Enable
ICHOFFSET	QUANT	0	Ich Offset (V)
ICHFILTER	IQUANT	3	Ich Filter
VCHRANGE	IQUANT	2	Vch Range
VCHRANGEMODE	TOGGLE	F	Vch Auto Range
VCHOFFSETENABLE	TOGGLE	T	Vch Offset Enable
VCHOFFSET	QUANT	0	Vch Offset (V)
VCHFILTER	IQUANT	3	Vch Filter
ACHRANGE	IQUANT	2	Ach Range
ACHOFFSETENABLE	TOGGLE	F	Ach Offset Enable
ACHOFFSET	QUANT	0	Ach Offset (V)
ACHFILTER	IQUANT	3	Ach Filter
IERANGELOWERLIMIT	IQUANT	1	I/E Range Lower Limit
IERANGEMODE	TOGGLE	F	I/E AutoRange
IERANGE	IQUANT	4	I/E Range
POSFEEDENABLE	TOGGLE	F	Positive Feedback IR Comp
POSFEEDRESISTANCE	QUANT	0	Positive Feedback Resistance (ohm)
ACHSELECT	IQUANT	0	Ach Select
CABLEID	IQUANT	14	Cable ID
DCCALDATE	LABEL	8/19/2019	DC Calibration Date
ACCALDATE	LABEL	8/19/2019	AC Calibration Date
THERMOSELECT	IQUANT	1	Thermo Select
FRAMEWORKVERSION	QUANT	6.33	Framework Version
INSTRUMENTVERSION	LABEL	3.50	Instrument Version
ZCURVE	TABLE
	Pt	Time	Freq	Zreal	Zimag	Zsig	Zmod	Zphz	Idc	Vdc	IERange
	#	s	Hz	ohm	ohm	V	ohm	°	A	V	#
	0	1	1000078	1807.827	-789.0753	1	1972.531	-23.58017	-6.377056E-006	-0.0007438	8
	1	3	794390.6	1931.819	-704.4821	1	2056.264	-20.03554	6.837777E-006	-0.0022175	8
	2	4	630984.4	2031.17	-617.9371	1	2123.087	-16.92118	4.557297E-006	-0.003435	8
	3	6	501234.4	2106.415	-538.1749	1	2174.078	-14.33209	1.624971E-007	-0.0020551	8
	4	7	398109.4	2169.064	-469.46	1	2219.286	-12.21241	-2.069242E-007	-0.0027032	8
	5	8	316265.6	2210.258	-412.4652	1	2248.415	-10.57061	3.574512E-006	-0.0025259	8
	6	10	251203.1	2246.36	-362.2903	1	2275.387	-9.161708	-2.981274E-007	-0.0027265	8
	7	11	199546.9	2277.551	-327.561	1	2300.985	-8.184251	-4.987101E-006	-0.0017452	8
	8	13	158578.1	2305.614	-300.2524	1	2325.082	-7.419683	-5.330496E-007	-0.0027258	8
	9	14	125953.1	2336.391	-260.9757	1	2350.921	-6.373539	-6.452869E-007	-0.0018631	7
	10	15	100078.1	2360.454	-246.3666	1	2373.276	-5.958532	-9.415419E-007	-0.0013863	7
	11	17	79453.13	2381.079	-253.3771	1	2394.522	-6.074141	-9.372523E-007	-0.0016703	7
	12	18	63140.62	2406.211	-264.2363	1	2420.676	-6.266784	5.860178E-007	-0.0038827	7
	13	19	50203.12	2431.6	-280.2163	1	2447.693	-6.573738	6.462215E-007	-0.0027216	7
	14	21	39890.62	2459.147	-298.9302	1	2477.249	-6.930785	-4.645909E-007	-0.0013132	7
	15	22	31640.63	2490.256	-325.5948	1	2511.451	-7.449028	-9.426185E-007	-0.0016816	7
	16	24	25171.88	2524.333	-358.4359	1	2549.653	-8.081538	3.649191E-007	-0.0037956	7
	17	25	20015.62	2561.515	-398.4917	1	2592.326	-8.842551	6.49786E-007	-0.0027313	7
	18	26	15890.62	2602.075	-446.1222	1	2640.041	-9.7287	-2.080261E-007	-0.0015078	7
	19	28	12609.37	2650.287	-502.7754	1	2697.555	-10.74171	-2.383208E-007	-0.0031886	7
	20	29	10078.13	2698.841	-569.1663	1	2758.204	-11.90877	-2.070587E-007	-0.001507	7
	21	31	8015.625	2757.042	-646.2139	1	2831.762	-13.19124	-9.462548E-007	-0.0014011	7
	22	32	6328.125	2825.798	-741.2747	1	2921.407	-14.69887	8.522648E-008	-0.0035827	7
	23	33	5015.625	2900.263	-849.2424	1	3022.042	-16.32086	7.428036E-007	-0.0038318	7
	24	35	3984.375	2979.713	-973.318	1	3134.651	-18.08953	-9.458485E-007	-0.0014063	7
	25	36	3170.956	3069.479	-1119.082	1	3267.115	-20.03104	8.482013E-008	-0.0035822	7
	26	38	2527.573	3166.427	-1289.517	1	3418.934	-22.15845	7.422863E-007	-0.0038324	7
	27	39	1976.103	3280.458	-1508.176	1	3610.54	-24.69039	7.866314E-007	-0.0031055	7
	28	40	1577.524	3385.861	-1744.3	1	3808.758	-27.25624	-2.079479E-007	-0.0015105	7
	29	42	1265.625	3508.576	-2032.016	1	4054.528	-30.07758	3.239714E-007	-0.0021715	7
	30	43	998.264	3642.302	-2403.354	1	4363.768	-33.41862	-9.479216E-007	-0.0014046	7
	31	44	796.875	3780.779	-2836.019	1	4726.234	-36.87411	-9.46261E-007	-0.0014037	7
	32	46	627.7902	3938.495	-3410.496	1	5209.917	-40.89056	7.394976E-007	-0.0038257	7
	33	47	505.5147	4105.175	-4044.583	1	5762.909	-44.57402	-5.608335E-007	-0.0026624	7
	34	49	397.9953	4305.889	-4913.376	1	6533.143	-48.76995	5.166823E-009	-0.0025182	7
	35	50	315.5048	4539.858	-5962.333	1	7493.979	-52.71352	4.859066E-009	-0.0025182	7
	36	51	252.4038	4811.021	-7205.28	1	8663.832	-56.26866	5.417681E-009	-0.0025306	7
	37	53	198.6229	5170.45	-8850.645	1	10250.24	-59.70699	5.582318E-009	-0.0025298	7
	38	54	158.3615	5597.225	-10766.96	1	12134.93	-62.53225	2.677518E-010	-0.0025875	6
	39	56	125.558	6147.901	-13169.35	1	14533.7	-64.97523	1.17649E-009	-0.0025864	6
	40	57	100.4464	6819.884	-15994.22	1	17387.52	-66.90675	2.78512E-010	-0.002585	6
	41	58	79.00281	7766.242	-19691.57	1	21167.73	-68.47601	3.157815E-010	-0.0025848	6
	42	60	63.3446	8824.262	-23697.18	1	25286.83	-69.57587	6.401726E-010	-0.0025881	6
	43	61	49.86702	10448.76	-29221.92	1	31033.81	-70.32468	1.119365E-009	-0.0026015	6
	44	63	39.72458	12217.78	-35471.74	1	37516.91	-70.99439	7.095459E-010	-0.0025831	6
	45	64	31.6723	14615.25	-42894.79	1	45316.32	-71.18483	5.481401E-010	-0.0025901	6
	46	65	24.93351	17724.42	-52345.12	1	55264.52	-71.29354	9.295718E-010	-0.0025882	6
	47	67	19.86229	21609.07	-63088.82	1	66686.97	-71.09273	1.056854E-009	-0.0025855	6
	48	68	15.83615	26444.34	-75281.42	1	79790.95	-70.645	2.859147E-010	-0.0025865	6
	49	70	12.40079	33331.75	-91875.9	1	97735.3	-70.05968	1.175754E-009	-0.0025878	6
	50	71	9.93114	40575.09	-109239.6	1	116531.7	-69.6234	7.439559E-010	-0.0025915	5
	51	73	7.944915	50084.38	-129477.8	1	138827	-68.85262	5.337843E-011	-0.0025905	5
	52	74	6.317385	61620.2	-153545.6	1	165448.8	-68.13365	7.415789E-010	-0.0025747	5
	53	76	5.008013	76027.05	-182273.7	1	197493.9	-67.3588	6.371122E-010	-0.0025713	5
	54	79	3.945707	94090.1	-216624	1	236175.6	-66.5224	2.084849E-010	-0.0025838	5
	55	81	3.158693	114276.2	-253639.1	1	278193.9	-65.74622	3.919572E-010	-0.0025629	5
	56	85	2.504006	139581.6	-298724.2	1	329725.9	-64.95524	4.159383E-010	-0.0025918	5
	57	88	1.998082	168866	-348892.6	1	387610.3	-64.17276	1.190449E-010	-0.0025438	5
	58	91	1.584686	203503.1	-408354.6	1	456253.2	-63.51068	3.610987E-010	-0.0025817	5
	59	94	1.266892	245466.2	-475992.8	1	535558.4	-62.72016	2.38231E-010	-0.0025452	5
	60	99	0.999041	298507.2	-556972.3	1	631921.4	-61.81108	1.239478E-010	-0.0026245	5
