EXPLAIN
TAG	EISPOT
TITLE	LABEL	Potentiostatic EIS	Test &Identifier
DATE	LABEL	9/26/2019	Date
TIME	LABEL	7:52:13	Time
NOTES	NOTES	2	&Notes...
	
	
PSTAT	PSTAT	REF600-11020	Potentiostat
VDC	POTEN	0.00000E+000	T	DC &Voltage (V)
FREQINIT	QUANT	1.00000E+006	Initial Fre&q. (Hz)
FREQFINAL	QUANT	1.00000E+000	Final Fre&q. (Hz)
PTSPERDEC	QUANT	1.00000E+001	Points/&decade
VAC	QUANT	2.50000E+001	AC &Voltage (mV rms)
AREA	QUANT	1.00000E-002	&Area (cm^2)
CONDIT	TWOPARAM	T	5.00000E+000	0.00000E+000	Conditionin&g	Time(s)	E(V)
DELAY	TWOPARAM	T	5.00000E+000	0.00000E+000	Init. De&lay	Time(s)	Stab.(mV/s)
SPEED	SELECTOR	1	&Optimize for:
ZGUESS	QUANT	1.00000E+004	E&stimated Z (ohms)
OCVCURVE	TABLE	19
	Pt	T	Vf	Vm	Ach	Over
	#	s	V vs. Ref.	V	V	bits
	0	0.258333	-5.79250E-003	-5.79250E-003	5.48133E-004	...........
	1	0.516667	-5.80560E-003	-6.47812E-003	5.49333E-004	...........
	2	0.775	-5.88719E-003	-7.18856E-003	5.41633E-004	...........
	3	1.03333	-6.11816E-003	-7.67829E-003	5.42999E-004	...........
	4	1.29167	-6.52602E-003	-8.31505E-003	5.43999E-004	...........
	5	1.55	-7.05881E-003	-8.89006E-003	5.40999E-004	...........
	6	1.80833	-7.64525E-003	-9.44252E-003	5.41433E-004	...........
	7	2.06667	-8.24002E-003	-9.97640E-003	5.47566E-004	...........
	8	2.325	-8.82163E-003	-1.04920E-002	5.39899E-004	...........
	9	2.58333	-9.38232E-003	-1.10000E-002	5.47399E-004	...........
	10	2.84167	-9.92213E-003	-1.14934E-002	5.46266E-004	...........
	11	3.1	-1.04451E-002	-1.20214E-002	5.48633E-004	...........
	12	3.35833	-1.09553E-002	-1.23910E-002	5.42433E-004	...........
	13	3.61667	-1.14507E-002	-1.28746E-002	5.43599E-004	...........
	14	3.875	-1.19265E-002	-1.33206E-002	5.41966E-004	...........
	15	4.13333	-1.23853E-002	-1.37568E-002	5.47099E-004	...........
	16	4.39167	-1.28348E-002	-1.41810E-002	5.42366E-004	...........
	17	4.65	-1.32781E-002	-1.46014E-002	5.44066E-004	...........
	18	4.90833	-1.37142E-002	-1.50027E-002	5.43033E-004	...........
EOC	QUANT	-0.0137142	Open Circuit (V)
PSTATMODEL	IQUANT	4	Pstat Model
PSTATSECTION	LABEL	REF600-11020	Pstat Section
PSTATSERIALNO	LABEL	11020	Pstat Serial Number
CTRLMODE	IQUANT	1	Control Mode
IESTAB	IQUANT	0	I/E Stability
CASPEED	IQUANT	1	Control Amp Speed
CONVENTION	IQUANT	1	Current Convention
ICHRANGE	IQUANT	2	Ich Range
ICHRANGEMODE	TOGGLE	F	Ich Auto Range
ICHOFFSETENABLE	TOGGLE	T	Ich Offset Enable
ICHOFFSET	QUANT	0	Ich Offset (V)
ICHFILTER	IQUANT	3	Ich Filter
VCHRANGE	IQUANT	2	Vch Range
VCHRANGEMODE	TOGGLE	F	Vch Auto Range
VCHOFFSETENABLE	TOGGLE	T	Vch Offset Enable
VCHOFFSET	QUANT	0	Vch Offset (V)
VCHFILTER	IQUANT	3	Vch Filter
ACHRANGE	IQUANT	2	Ach Range
ACHOFFSETENABLE	TOGGLE	F	Ach Offset Enable
ACHOFFSET	QUANT	0	Ach Offset (V)
ACHFILTER	IQUANT	3	Ach Filter
IERANGELOWERLIMIT	IQUANT	1	I/E Range Lower Limit
IERANGEMODE	TOGGLE	F	I/E AutoRange
IERANGE	IQUANT	6	I/E Range
POSFEEDENABLE	TOGGLE	F	Positive Feedback IR Comp
POSFEEDRESISTANCE	QUANT	0	Positive Feedback Resistance (ohm)
ACHSELECT	IQUANT	0	Ach Select
CABLEID	IQUANT	14	Cable ID
DCCALDATE	LABEL	8/19/2019	DC Calibration Date
ACCALDATE	LABEL	8/19/2019	AC Calibration Date
THERMOSELECT	IQUANT	1	Thermo Select
FRAMEWORKVERSION	QUANT	6.33	Framework Version
INSTRUMENTVERSION	LABEL	3.50	Instrument Version
ZCURVE	TABLE
	Pt	Time	Freq	Zreal	Zimag	Zsig	Zmod	Zphz	Idc	Vdc	IERange
	#	s	Hz	ohm	ohm	V	ohm	°	A	V	#
	0	2	1000078	2198.646	-1562.723	1	2697.434	-35.40392	7.090431E-006	-0.012199	8
	1	4	794390.6	2505.795	-1541.773	1	2942.12	-31.60328	-4.711583E-007	-0.0124046	8
	2	5	630984.4	2793.615	-1459.61	1	3151.943	-27.58621	1.875808E-006	-0.0125571	8
	3	7	501234.4	3045.113	-1359.882	1	3334.965	-24.06451	6.117341E-007	-0.0120657	8
	4	8	398109.4	3269.034	-1221.538	1	3489.805	-20.48917	1.786987E-006	-0.0125158	8
	5	10	316265.6	3440.847	-1094.367	1	3610.688	-17.64335	-3.215971E-006	-0.0115154	8
	6	11	251203.1	3594.208	-973.899	1	3723.816	-15.16102	2.147643E-006	-0.0125851	8
	7	12	199546.9	3714.431	-854.083	1	3811.359	-12.9493	1.692333E-006	-0.0125241	8
	8	14	158578.1	3799.998	-758.3472	1	3874.929	-11.28597	2.61643E-006	-0.0127057	8
	9	15	125953.1	3902.672	-615.7343	1	3950.947	-8.965792	7.085377E-007	-0.0132059	7
	10	17	100078.1	3950.939	-555.8736	1	3989.852	-8.008608	-6.81929E-008	-0.0120933	7
	11	18	79453.13	4001.74	-514.1661	1	4034.636	-7.321571	-3.703864E-008	-0.0121958	7
	12	19	63140.62	4048.611	-484.3613	1	4077.481	-6.822237	2.092393E-008	-0.0122935	7
	13	21	50203.12	4091.429	-466.0391	1	4117.886	-6.498337	-5.90785E-009	-0.0122643	7
	14	22	39890.62	4132.846	-459.5724	1	4158.319	-6.345222	-4.731144E-009	-0.0121672	7
	15	24	31640.63	4176.122	-464.8823	1	4201.917	-6.351966	-3.81685E-008	-0.0121916	7
	16	25	25171.88	4220.327	-480.1758	1	4247.556	-6.491024	-6.80851E-008	-0.0121099	7
	17	26	20015.62	4267.165	-506.5209	1	4297.123	-6.769446	-4.035786E-008	-0.0120748	7
	18	28	15890.62	4316.375	-542.3492	1	4350.315	-7.161638	1.407965E-007	-0.0124261	7
	19	29	12609.37	4371.505	-592.0655	1	4411.417	-7.713062	-3.983121E-008	-0.0121744	7
	20	30	10078.13	4428.766	-651.3386	1	4476.406	-8.366513	-3.920927E-008	-0.0120812	7
	21	32	8015.625	4489.046	-724.0341	1	4547.061	-9.162277	-3.99041E-009	-0.0121955	7
	22	33	6328.125	4556.1	-816.1983	1	4628.631	-10.15647	-4.152905E-009	-0.012189	7
	23	35	5015.625	4627.884	-927.2704	1	4719.866	-11.33009	4.942469E-008	-0.0123679	7
	24	36	3984.375	4704.63	-1062.296	1	4823.072	-12.7239	-3.098085E-009	-0.0121815	7
	25	37	3170.956	4785.838	-1228.198	1	4940.923	-14.3933	-9.458344E-009	-0.0121746	7
	26	39	2527.573	4876.465	-1427.945	1	5081.234	-16.32128	-4.95341E-008	-0.0121228	7
	27	40	1976.103	4982.526	-1690.735	1	5261.573	-18.74376	-6.808194E-008	-0.0121146	7
	28	41	1577.524	5095.878	-1991.54	1	5471.216	-21.34625	8.101651E-008	-0.0122556	7
	29	43	1265.625	5218.064	-2344.356	1	5720.507	-24.19328	-6.0063E-009	-0.0120959	7
	30	44	998.264	5365.458	-2807.457	1	6055.572	-27.62066	-3.683741E-008	-0.012195	7
	31	45	796.875	5530.267	-3345.615	1	6463.513	-31.17245	-7.369768E-009	-0.0120944	7
	32	47	627.7902	5733.269	-4051.01	1	7020.046	-35.24425	8.30515E-008	-0.0122582	7
	33	48	505.5147	5953.836	-4830.223	1	7666.76	-39.0517	2.155836E-008	-0.0123074	7
	34	49	397.9953	6265.09	-5884.255	1	8595.104	-43.20459	7.313701E-009	-0.0122046	7
	35	51	315.5048	6640.559	-7141.307	1	9751.68	-47.08086	7.846786E-009	-0.0122036	7
	36	52	252.4038	7109.387	-8605.523	1	11162.37	-50.43845	2.819194E-009	-0.0122708	6
	37	54	198.6229	7761.016	-10510.69	1	13065.53	-53.55811	3.056352E-009	-0.0122664	6
	38	55	158.3615	8574.157	-12676.34	1	15303.78	-55.92595	2.958983E-009	-0.0122734	6
	39	56	125.558	9675.77	-15317.89	1	18117.9	-57.72084	3.605963E-009	-0.0122681	6
	40	58	100.4464	11068.7	-18316.64	1	21401.29	-58.85555	2.643083E-009	-0.0122758	6
	41	59	79.00281	12948.37	-22023.14	1	25547.58	-59.54685	3.088246E-009	-0.0122719	6
	42	60	63.3446	15064.7	-26098.43	1	30134.26	-60.00533	2.924199E-009	-0.012268	6
	43	62	49.86702	18595.26	-30619.38	1	35823.6	-58.72954	3.755243E-009	-0.0122737	6
	44	63	39.72458	22337.05	-35918.97	1	42297.95	-58.12362	3.782005E-009	-0.0122691	6
	45	65	31.6723	26813.91	-41365.39	1	49295.86	-57.04785	3.990319E-009	-0.0122698	6
	46	66	24.93351	32787.05	-47603.86	1	57802.41	-55.44297	3.852754E-009	-0.0122692	6
	47	67	19.86229	39440.02	-53730.12	1	66651.63	-53.71987	2.174184E-009	-0.0122723	6
	48	69	15.83615	46400.32	-60349.95	1	76125.59	-52.44496	3.093577E-009	-0.0122737	6
	49	70	12.40079	56263	-67379.3	1	87780.95	-50.13747	1.64531E-010	-0.0122697	6
	50	72	9.93114	64708.24	-74257.2	1	98495.1	-48.93088	4.092441E-009	-0.0122745	5
	51	73	7.944915	74206.25	-81141.24	1	109956.7	-47.55609	1.046655E-009	-0.0122728	5
	52	75	6.317385	84547.55	-89316.32	1	122986.6	-46.57113	4.254123E-009	-0.0122744	5
	53	77	5.008013	95832.2	-98436	1	137380.7	-45.7679	3.705322E-009	-0.0122598	5
	54	79	3.945707	108117	-108695.9	1	153310.4	-45.15299	2.402714E-009	-0.0122725	5
	55	82	3.158693	120106.1	-119867.1	1	169686.8	-44.94292	3.30952E-009	-0.012253	5
	56	85	2.504006	133568.9	-133457.4	1	188816.1	-44.97607	2.588047E-009	-0.0122793	5
	57	88	1.998082	147171.5	-148966.6	1	209405.1	-45.3473	2.007726E-009	-0.0122521	5
	58	91	1.584686	162942.7	-167559.3	1	233723	-45.80027	3.113788E-009	-0.0122163	5
	59	95	1.266892	178416.9	-189114.5	1	259994	-46.66721	2.305485E-009	-0.0122449	5
	60	99	0.999041	197095.4	-216860.2	1	293044.3	-47.73358	3.503842E-009	-0.0122711	5
