EXPLAIN
TAG	EISPOT
TITLE	LABEL	Potentiostatic EIS	Test &Identifier
DATE	LABEL	11/9/2019	Date
TIME	LABEL	10:56:14	Time
NOTES	NOTES	2	&Notes...
	
	
PSTAT	PSTAT	REF600-11020	Potentiostat
VDC	POTEN	0.00000E+000	T	DC &Voltage (V)
FREQINIT	QUANT	1.00000E+006	Initial Fre&q. (Hz)
FREQFINAL	QUANT	1.00000E+000	Final Fre&q. (Hz)
PTSPERDEC	QUANT	1.00000E+001	Points/&decade
VAC	QUANT	2.50000E+001	AC &Voltage (mV rms)
AREA	QUANT	1.00000E-002	&Area (cm^2)
CONDIT	TWOPARAM	T	5.00000E+000	0.00000E+000	Conditionin&g	Time(s)	E(V)
DELAY	TWOPARAM	T	5.00000E+000	0.00000E+000	Init. De&lay	Time(s)	Stab.(mV/s)
SPEED	SELECTOR	0	&Optimize for:
ZGUESS	QUANT	1.00000E+005	E&stimated Z (ohms)
OCVCURVE	TABLE	19
	Pt	T	Vf	Vm	Ach	Over
	#	s	V vs. Ref.	V	V	bits
	0	0.258333	2.08808E-002	2.08808E-002	5.77166E-004	...........
	1	0.516667	2.08990E-002	2.18340E-002	5.75532E-004	...........
	2	0.775	2.10103E-002	2.27102E-002	5.74599E-004	...........
	3	1.03333	2.13246E-002	2.36155E-002	5.70899E-004	...........
	4	1.29167	2.18887E-002	2.44650E-002	5.68432E-004	...........
	5	1.55	2.26461E-002	2.53584E-002	5.67366E-004	...........
	6	1.80833	2.35008E-002	2.61495E-002	5.68899E-004	...........
	7	2.06667	2.43789E-002	2.69761E-002	5.66332E-004	...........
	8	2.325	2.52414E-002	2.76861E-002	5.77232E-004	...........
	9	2.58333	2.60722E-002	2.84507E-002	5.70832E-004	...........
	10	2.84167	2.68667E-002	2.91057E-002	5.72599E-004	...........
	11	3.1	2.76261E-002	2.98098E-002	5.71699E-004	...........
	12	3.35833	2.83535E-002	3.04248E-002	5.73432E-004	...........
	13	3.61667	2.90519E-002	3.10731E-002	5.74699E-004	...........
	14	3.875	2.97245E-002	3.16721E-002	5.68499E-004	...........
	15	4.13333	3.03741E-002	3.22582E-002	5.68166E-004	...........
	16	4.39167	3.10031E-002	3.28538E-002	5.70699E-004	...........
	17	4.65	3.16135E-002	3.33711E-002	5.77199E-004	...........
	18	4.90833	3.22058E-002	3.39591E-002	5.66232E-004	...........
EOC	QUANT	0.0322058	Open Circuit (V)
PSTATMODEL	IQUANT	4	Pstat Model
PSTATSECTION	LABEL	REF600-11020	Pstat Section
PSTATSERIALNO	LABEL	11020	Pstat Serial Number
CTRLMODE	IQUANT	1	Control Mode
IESTAB	IQUANT	0	I/E Stability
CASPEED	IQUANT	1	Control Amp Speed
CONVENTION	IQUANT	1	Current Convention
ICHRANGE	IQUANT	2	Ich Range
ICHRANGEMODE	TOGGLE	F	Ich Auto Range
ICHOFFSETENABLE	TOGGLE	T	Ich Offset Enable
ICHOFFSET	QUANT	0	Ich Offset (V)
ICHFILTER	IQUANT	3	Ich Filter
VCHRANGE	IQUANT	2	Vch Range
VCHRANGEMODE	TOGGLE	F	Vch Auto Range
VCHOFFSETENABLE	TOGGLE	T	Vch Offset Enable
VCHOFFSET	QUANT	0	Vch Offset (V)
VCHFILTER	IQUANT	3	Vch Filter
ACHRANGE	IQUANT	2	Ach Range
ACHOFFSETENABLE	TOGGLE	F	Ach Offset Enable
ACHOFFSET	QUANT	0	Ach Offset (V)
ACHFILTER	IQUANT	3	Ach Filter
IERANGELOWERLIMIT	IQUANT	1	I/E Range Lower Limit
IERANGEMODE	TOGGLE	F	I/E AutoRange
IERANGE	IQUANT	5	I/E Range
POSFEEDENABLE	TOGGLE	F	Positive Feedback IR Comp
POSFEEDRESISTANCE	QUANT	0	Positive Feedback Resistance (ohm)
ACHSELECT	IQUANT	0	Ach Select
CABLEID	IQUANT	14	Cable ID
DCCALDATE	LABEL	8/19/2019	DC Calibration Date
ACCALDATE	LABEL	8/19/2019	AC Calibration Date
THERMOSELECT	IQUANT	1	Thermo Select
FRAMEWORKVERSION	QUANT	6.33	Framework Version
INSTRUMENTVERSION	LABEL	3.50	Instrument Version
ZCURVE	TABLE
	Pt	Time	Freq	Zreal	Zimag	Zsig	Zmod	Zphz	Idc	Vdc	IERange
	#	s	Hz	ohm	ohm	V	ohm	°	A	V	#
	0	1	1000078	2297.088	-1864.695	1	2958.665	-39.06847	-5.12349E-006	0.0341404	8
	1	1	794390.6	2663.833	-1863.903	1	3251.175	-34.98077	1.74495E-006	0.0335211	8
	2	2	630984.4	3005.655	-1891.038	1	3551.054	-32.17646	-3.300754E-006	0.0340925	8
	3	2	501234.4	3339.267	-1812.541	1	3799.475	-28.49294	5.864026E-006	0.0337888	8
	4	2	398109.4	3639.49	-1737.209	1	4032.839	-25.51618	-5.309314E-006	0.0345331	8
	5	3	316265.6	3922.718	-1641.215	1	4252.212	-22.70381	-7.403392E-006	0.0349144	8
	6	3	251203.1	4190.266	-1567.336	1	4473.798	-20.50791	-2.853544E-006	0.0336636	8
	7	3	199546.9	4394.562	-1486.968	1	4639.315	-18.69405	-7.707226E-007	0.0334153	8
	8	4	158578.1	4620.458	-1373.54	1	4820.294	-16.55582	7.275873E-006	0.0328923	8
	9	4	125953.1	4824.794	-1139.302	1	4957.484	-13.28616	-3.74013E-006	0.0367441	7
	10	4	100078.1	4970.327	-1059.31	1	5081.957	-12.03126	8.064653E-007	0.0340357	7
	11	4	79453.13	5129.388	-994.361	1	5224.88	-10.97103	1.439972E-006	0.0318063	7
	12	5	63140.62	5241.115	-930.9905	1	5323.16	-10.07251	1.299137E-006	0.0314891	7
	13	5	50203.12	5294.3	-867.429	1	5364.89	-9.304785	-1.391817E-006	0.0344119	7
	14	5	39890.62	5382.242	-842.0317	1	5447.71	-8.891636	-1.629296E-006	0.0356598	7
	15	6	31640.63	5479.679	-823.8151	1	5541.259	-8.549818	-1.185664E-006	0.0359494	7
	16	6	25171.88	5562.666	-841.8251	1	5626.004	-8.605548	-8.392245E-007	0.0358526	7
	17	6	20015.62	5660.937	-848.6584	1	5724.196	-8.525993	6.443964E-007	0.0315184	7
	18	7	15890.62	5752.5	-908.3201	1	5823.77	-8.972925	1.340369E-006	0.032802	7
	19	7	12609.37	5804.095	-956.837	1	5882.436	-9.361323	-9.58958E-007	0.0334927	7
	20	7	10078.13	5900.407	-1050.437	1	5993.182	-10.09449	8.723139E-008	0.0350122	7
	21	8	8015.625	6020.002	-1158.409	1	6130.443	-10.8921	1.33901E-006	0.0328023	7
	22	8	6328.125	6112.582	-1299.25	1	6249.137	-11.99982	1.294493E-006	0.031475	7
	23	9	5015.625	6200.447	-1491.397	1	6377.289	-13.52447	7.965664E-007	0.033431	8
	24	9	3984.375	6355.808	-1692.627	1	6577.331	-14.91244	1.045837E-006	0.0313571	7
	25	10	3170.956	6486.994	-1941.245	1	6771.228	-16.65991	1.100354E-006	0.0334524	7
	26	10	2527.573	6600.003	-2212.494	1	6960.975	-18.5325	-9.487254E-007	0.0334879	7
	27	11	1976.103	6813.883	-2624.956	1	7302.013	-21.0685	-8.219407E-007	0.0358381	7
	28	11	1577.524	6997.672	-2994.398	1	7611.428	-23.16673	7.740029E-008	0.0350043	7
	29	11	1265.625	7208.306	-3559.136	1	8039.1	-26.27808	5.144093E-007	0.0344406	7
	30	12	998.264	7448.346	-4236.141	1	8568.707	-29.62844	-3.798373E-007	0.0355237	7
	31	12	796.875	7700.643	-4996.119	1	9179.385	-32.9752	1.509681E-007	0.0318947	7
	32	13	627.7902	8036.509	-6010.528	1	10035.53	-36.79292	2.094686E-007	0.0326116	6
	33	13	505.5147	8341.132	-7101.717	1	10954.86	-40.41138	-2.100335E-007	0.0376818	6
	34	13	397.9953	8767.199	-8579.568	1	12266.73	-44.38029	-1.108626E-010	0.0336927	6
	35	13	315.5048	9222.669	-10357.69	1	13868.64	-48.31756	-1.887763E-009	0.0336851	6
	36	14	252.4038	9730.44	-12447.66	1	15799.54	-51.98496	-1.773348E-009	0.0336867	6
	37	14	198.6229	10374.29	-15198.99	1	18402.04	-55.68396	9.622309E-011	0.0336803	6
	38	14	158.3615	11125.7	-18430.92	1	21528.58	-58.88301	4.791904E-010	0.0336907	6
	39	15	125.558	12061.4	-22479.62	1	25510.99	-61.7843	2.601979E-010	0.0336765	6
	40	15	100.4464	13282.95	-27245.44	1	30310.9	-64.00941	-2.278782E-009	0.0336864	6
	41	15	79.00281	14936.62	-33715.93	1	36876.36	-66.106	-2.272968E-010	0.0336725	6
	42	16	63.3446	15861.32	-39949.19	1	42982.78	-68.34507	4.320744E-011	0.0336831	6
	43	16	49.86702	18784.49	-49278.75	1	52737.58	-69.13373	-2.006036E-009	0.0336808	6
	44	17	39.72458	22614.6	-60862.59	1	64928.23	-69.61654	-9.367586E-010	0.0336911	6
	45	17	31.6723	27587.98	-74026.41	1	79000.03	-69.56071	-2.412058E-009	0.0336918	6
	46	17	24.93351	33549.7	-89892	1	95948.7	-69.5333	-3.843977E-010	0.0336776	6
	47	17	19.86229	41506.45	-107731.6	1	115450.8	-68.9295	-1.586581E-010	0.0336977	5
	48	18	15.83615	53785.34	-132679.7	1	143166.9	-67.93349	-4.554175E-009	0.0336841	5
	49	18	12.40079	69815.6	-158001.5	1	172738.8	-66.16096	1.05826E-009	0.0336949	5
	50	18	9.93114	83910.05	-182544.2	1	200906.2	-65.31319	-1.434686E-009	0.0336949	5
	51	19	7.944915	106053.7	-212282.9	1	237300.3	-63.45391	-7.082446E-010	0.0336988	5
	52	20	6.317385	132915.3	-246867.8	1	280375.1	-61.70168	-4.055117E-010	0.0336742	5
	53	20	5.008013	167237.6	-283533.7	1	329180.4	-59.46648	-5.77318E-010	0.0336742	5
	54	21	3.945707	205466.3	-325276	1	384734.8	-57.72072	-2.677412E-010	0.033696	5
	55	23	3.158693	248582.9	-362548.8	1	439585.1	-55.56337	-8.510717E-010	0.0336856	5
	56	25	2.504006	296578	-405127.3	1	502082.3	-53.79359	-7.174881E-010	0.0336771	5
	57	26	1.998082	347652.7	-449851	1	568531.8	-52.30252	-4.161133E-010	0.033725	5
	58	27	1.584686	402183.6	-499906.5	1	641605.9	-51.18271	-4.615136E-010	0.0336896	5
	59	29	1.266892	460610.8	-553414.6	1	720020.9	-50.22915	-5.292926E-010	0.0336512	5
	60	32	0.999041	528182.6	-619709.6	1	814258.4	-49.55883	-5.700211E-010	0.0336392	5
