EXPLAIN
TAG	EISPOT
TITLE	LABEL	Potentiostatic EIS	Test &Identifier
DATE	LABEL	10/24/2019	Date
TIME	LABEL	10:16:32	Time
NOTES	NOTES	1	&Notes...
	
PSTAT	PSTAT	REF600-11020	Potentiostat
VDC	POTEN	0.00000E+000	T	DC &Voltage (V)
FREQINIT	QUANT	1.00000E+006	Initial Fre&q. (Hz)
FREQFINAL	QUANT	1.00000E+000	Final Fre&q. (Hz)
PTSPERDEC	QUANT	1.00000E+001	Points/&decade
VAC	QUANT	2.50000E+001	AC &Voltage (mV rms)
AREA	QUANT	1.00000E-002	&Area (cm^2)
CONDIT	TWOPARAM	T	5.00000E+000	0.00000E+000	Conditionin&g	Time(s)	E(V)
DELAY	TWOPARAM	T	5.00000E+000	0.00000E+000	Init. De&lay	Time(s)	Stab.(mV/s)
SPEED	SELECTOR	1	&Optimize for:
ZGUESS	QUANT	1.00000E+005	E&stimated Z (ohms)
OCVCURVE	TABLE	19
	Pt	T	Vf	Vm	Ach	Over
	#	s	V vs. Ref.	V	V	bits
	0	0.258333	6.36127E-003	6.36127E-003	5.63766E-004	...........
	1	0.516667	6.35264E-003	5.90948E-003	5.59532E-004	...........
	2	0.775	6.30170E-003	5.58887E-003	5.64099E-004	...........
	3	1.03333	6.17800E-003	5.99181E-003	5.64932E-004	...........
	4	1.29167	6.00172E-003	4.94281E-003	5.62799E-004	...........
	5	1.55	5.78775E-003	4.49006E-003	5.66132E-004	...........
	6	1.80833	5.48821E-003	4.04043E-003	5.62166E-004	...........
	7	2.06667	5.09605E-003	4.69449E-003	5.61932E-004	...........
	8	2.325	4.71454E-003	3.68128E-003	5.65266E-004	...........
	9	2.58333	4.41817E-003	3.48054E-003	5.59966E-004	...........
	10	2.84167	4.15870E-003	3.35957E-003	5.62732E-004	...........
	11	3.1	3.88222E-003	3.12389E-003	5.60366E-004	...........
	12	3.35833	3.60843E-003	2.97055E-003	5.59199E-004	...........
	13	3.61667	3.36848E-003	2.82190E-003	5.61466E-004	...........
	14	3.875	3.16631E-003	2.69704E-003	5.60166E-004	...........
	15	4.13333	2.99548E-003	2.63111E-003	5.59366E-004	...........
	16	4.39167	2.85176E-003	2.52777E-003	5.58899E-004	...........
	17	4.65	2.73179E-003	2.43349E-003	5.62932E-004	...........
	18	4.90833	2.62837E-003	2.33033E-003	5.63999E-004	...........
EOC	QUANT	0.0026284	Open Circuit (V)
PSTATMODEL	IQUANT	4	Pstat Model
PSTATSECTION	LABEL	REF600-11020	Pstat Section
PSTATSERIALNO	LABEL	11020	Pstat Serial Number
CTRLMODE	IQUANT	1	Control Mode
IESTAB	IQUANT	0	I/E Stability
CASPEED	IQUANT	1	Control Amp Speed
CONVENTION	IQUANT	1	Current Convention
ICHRANGE	IQUANT	2	Ich Range
ICHRANGEMODE	TOGGLE	F	Ich Auto Range
ICHOFFSETENABLE	TOGGLE	T	Ich Offset Enable
ICHOFFSET	QUANT	0	Ich Offset (V)
ICHFILTER	IQUANT	3	Ich Filter
VCHRANGE	IQUANT	2	Vch Range
VCHRANGEMODE	TOGGLE	F	Vch Auto Range
VCHOFFSETENABLE	TOGGLE	T	Vch Offset Enable
VCHOFFSET	QUANT	0	Vch Offset (V)
VCHFILTER	IQUANT	3	Vch Filter
ACHRANGE	IQUANT	2	Ach Range
ACHOFFSETENABLE	TOGGLE	F	Ach Offset Enable
ACHOFFSET	QUANT	0	Ach Offset (V)
ACHFILTER	IQUANT	3	Ach Filter
IERANGELOWERLIMIT	IQUANT	1	I/E Range Lower Limit
IERANGEMODE	TOGGLE	F	I/E AutoRange
IERANGE	IQUANT	4	I/E Range
POSFEEDENABLE	TOGGLE	F	Positive Feedback IR Comp
POSFEEDRESISTANCE	QUANT	0	Positive Feedback Resistance (ohm)
ACHSELECT	IQUANT	0	Ach Select
CABLEID	IQUANT	14	Cable ID
DCCALDATE	LABEL	8/19/2019	DC Calibration Date
ACCALDATE	LABEL	8/19/2019	AC Calibration Date
THERMOSELECT	IQUANT	1	Thermo Select
FRAMEWORKVERSION	QUANT	6.33	Framework Version
INSTRUMENTVERSION	LABEL	3.50	Instrument Version
ZCURVE	TABLE
	Pt	Time	Freq	Zreal	Zimag	Zsig	Zmod	Zphz	Idc	Vdc	IERange
	#	s	Hz	ohm	ohm	V	ohm	°	A	V	#
	0	1	1000078	2629.915	-1909.656	1	3250.114	-35.98447	6.123781E-006	0.0039172	8
	1	3	794390.6	3012.164	-1851.713	1	3535.813	-31.58091	-1.616554E-006	0.0046802	8
	2	4	630984.4	3353.269	-1739.793	1	3777.736	-27.42187	1.877316E-006	0.0042195	8
	3	5	501234.4	3634.773	-1583.887	1	3964.88	-23.54562	-2.001192E-006	0.0047592	8
	4	7	398109.4	3874.777	-1424.823	1	4128.44	-20.18936	-1.509134E-006	0.0046981	8
	5	8	316265.6	4062.802	-1273.096	1	4257.597	-17.3986	-1.370906E-006	0.004597	8
	6	9	251203.1	4214.182	-1120.471	1	4360.594	-14.88938	1.936208E-007	0.0043631	8
	7	11	199546.9	4342.203	-1013.638	1	4458.945	-13.13975	-3.549738E-007	0.0043484	8
	8	12	158578.1	4428.815	-914.0511	1	4522.156	-11.66139	1.374478E-006	0.0040715	8
	9	13	125953.1	4543.605	-814.4717	1	4616.028	-10.16272	-9.094892E-007	0.0056239	7
	10	15	100078.1	4603.525	-757.9237	1	4665.5	-9.349297	9.92596E-008	0.0041476	7
	11	16	79453.13	4671.304	-740.3713	1	4729.612	-9.006096	-3.017677E-008	0.0042869	7
	12	17	63140.62	4738.13	-740.7714	1	4795.688	-8.885836	-4.269099E-008	0.0043321	7
	13	19	50203.12	4807.365	-757.181	1	4866.629	-8.950803	1.124138E-008	0.0043675	7
	14	20	39890.62	4879.305	-792.09	1	4943.18	-9.220766	-1.424337E-008	0.0043187	7
	15	21	31640.63	4958.519	-843.4761	1	5029.748	-9.65397	-7.774629E-010	0.0042827	7
	16	23	25171.88	5043.653	-910.3593	1	5125.153	-10.2315	-4.057604E-009	0.0042679	7
	17	24	20015.62	5125.924	-1003.063	1	5223.144	-11.07198	3.84607E-008	0.0042372	7
	18	25	15890.62	5242.476	-1102.23	1	5357.095	-11.87349	-4.368578E-009	0.0043202	7
	19	27	12609.37	5362.638	-1228.43	1	5501.538	-12.90225	-1.298381E-008	0.0043104	7
	20	28	10078.13	5490.191	-1371.428	1	5658.888	-14.02525	6.983843E-008	0.004141	7
	21	29	8015.625	5641.592	-1517.416	1	5842.099	-15.05453	8.454979E-008	0.0042068	7
	22	31	6328.125	5810.933	-1752.267	1	6069.381	-16.78051	-2.527706E-009	0.0043172	7
	23	32	5015.625	6003.293	-1987.904	1	6323.867	-18.32154	-1.510858E-009	0.0042801	7
	24	33	3984.375	6199.424	-2245.963	1	6593.725	-19.91473	-3.883213E-009	0.0043185	7
	25	35	3170.956	6468.746	-2566.36	1	6959.23	-21.63983	-5.660182E-008	0.0044549	7
	26	36	2527.573	6751.294	-2912.172	1	7352.599	-23.33296	-1.320463E-008	0.0043081	7
	27	37	1976.103	7098.384	-3344.066	1	7846.645	-25.22524	1.380592E-008	0.0043573	7
	28	39	1577.524	7498.352	-3811.398	1	8411.423	-26.94415	-5.908589E-008	0.0043546	7
	29	40	1265.625	7853.314	-4277.1	1	8942.49	-28.57375	-3.1311E-008	0.0042751	7
	30	41	998.264	8323.58	-4860.431	1	9638.76	-30.28216	-2.119315E-010	0.00412	6
	31	43	796.875	8787.324	-5496.176	1	10364.6	-32.0246	-8.52381E-009	0.0042934	6
	32	44	627.7902	9289.466	-6277.753	1	11211.8	-34.05054	-6.713726E-010	0.0041187	6
	33	45	505.5147	9740.15	-7129.633	1	12070.71	-36.20353	-7.774207E-009	0.0042642	6
	34	47	397.9953	10231.64	-8279.115	1	13161.7	-38.97866	6.718992E-010	0.0042364	6
	35	48	315.5048	10699.26	-9691.34	1	14435.94	-42.17014	3.231637E-011	0.0042369	6
	36	49	252.4038	11159.7	-11399.29	1	15952.51	-45.60848	1.156522E-009	0.0042356	6
	37	51	198.6229	11686.87	-13718.7	1	18021.81	-49.57254	9.328559E-010	0.0042373	6
	38	52	158.3615	12248.22	-16483.35	1	20535.81	-53.38522	1.066766E-009	0.004234	6
	39	54	125.558	12927.54	-20041.98	1	23849.57	-57.17706	4.176894E-010	0.0042388	6
	40	55	100.4464	13747.59	-24257.75	1	27882.52	-60.45848	-1.501643E-010	0.0042375	6
	41	56	79.00281	14775.73	-29932.4	1	33380.7	-63.72736	1.366396E-009	0.0042315	6
	42	58	63.3446	15900.7	-36722.6	1	40017.27	-66.58762	2.210449E-010	0.004228	6
	43	59	49.86702	18046.75	-44679.8	1	48186.82	-68.00558	-1.956501E-010	0.0042305	6
	44	60	39.72458	20178.98	-54968.04	1	58554.9	-69.84161	-6.232451E-010	0.0042353	6
	45	62	31.6723	23031.61	-67050.44	1	70895.81	-71.04256	8.537603E-010	0.0042322	6
	46	63	24.93351	27187.1	-82583.88	1	86943.87	-71.77815	1.079477E-009	0.00423	6
	47	65	19.86229	32301.35	-100441.3	1	105507.5	-72.1725	5.520799E-010	0.0042361	6
	48	66	15.83615	38542.3	-123327.3	1	129209.6	-72.64491	-1.346359E-009	0.0042401	5
	49	67	12.40079	47429.25	-149968.7	1	157290	-72.44987	4.042757E-010	0.0042443	5
	50	69	9.93114	58398.57	-180277.8	1	189500.6	-72.05097	4.320118E-010	0.0042366	5
	51	70	7.944915	72437.81	-216096.7	1	227914.5	-71.46832	1.596157E-010	0.0042479	5
	52	72	6.317385	90035.2	-258905.5	1	274113.8	-70.82472	-7.138096E-011	0.0042561	5
	53	74	5.008013	112465.1	-311859	1	331518.4	-70.16927	2.068242E-010	0.0042399	5
	54	76	3.945707	141155.8	-374172.4	1	399912.4	-69.33112	1.902289E-010	0.0042365	5
	55	79	3.158693	174851.7	-441275.8	1	474655.1	-68.38448	1.20874E-010	0.0042518	5
	56	82	2.504006	217138.1	-522263.6	1	565604.3	-67.42425	7.368517E-011	0.0042308	5
	57	85	1.998082	266672.7	-613175.9	1	668654.6	-66.49558	1.800706E-010	0.00425	5
	58	88	1.584686	323336.5	-723549.8	1	792509.2	-65.92132	1.675624E-010	0.0042886	5
	59	92	1.266892	394755.4	-838577.8	1	926846.6	-64.79157	9.159928E-011	0.0042637	5
	60	96	0.999041	465944.1	-993550	1	1097381	-64.87489	1.069719E-010	0.0042388	4
