EXPLAIN
TAG	EISPOT
TITLE	LABEL	Potentiostatic EIS	Test &Identifier
DATE	LABEL	10/12/2019	Date
TIME	LABEL	9:39:57	Time
NOTES	NOTES	1	&Notes...
	
PSTAT	PSTAT	REF600-11020	Potentiostat
VDC	POTEN	0.00000E+000	T	DC &Voltage (V)
FREQINIT	QUANT	1.00000E+006	Initial Fre&q. (Hz)
FREQFINAL	QUANT	1.00000E+000	Final Fre&q. (Hz)
PTSPERDEC	QUANT	1.00000E+001	Points/&decade
VAC	QUANT	2.50000E+001	AC &Voltage (mV rms)
AREA	QUANT	1.00000E-002	&Area (cm^2)
CONDIT	TWOPARAM	T	5.00000E+000	0.00000E+000	Conditionin&g	Time(s)	E(V)
DELAY	TWOPARAM	T	5.00000E+000	0.00000E+000	Init. De&lay	Time(s)	Stab.(mV/s)
SPEED	SELECTOR	1	&Optimize for:
ZGUESS	QUANT	1.00000E+004	E&stimated Z (ohms)
OCVCURVE	TABLE	19
	Pt	T	Vf	Vm	Ach	Over
	#	s	V vs. Ref.	V	V	bits
	0	0.258333	4.02603E-003	4.02603E-003	5.59732E-004	...........
	1	0.516667	4.02855E-003	4.15784E-003	5.58766E-004	...........
	2	0.775	4.04309E-003	4.23471E-003	5.57266E-004	...........
	3	1.03333	4.07901E-003	4.19472E-003	5.60499E-004	...........
	4	1.29167	4.12565E-003	4.03961E-003	5.54499E-004	...........
	5	1.55	4.15000E-003	3.92054E-003	5.58932E-004	...........
	6	1.80833	4.13470E-003	4.36856E-003	5.63232E-004	...........
	7	2.06667	4.12550E-003	4.86653E-003	5.63632E-004	...........
	8	2.325	4.19844E-003	4.51352E-003	5.55233E-004	...........
	9	2.58333	4.35285E-003	4.64950E-003	5.59232E-004	...........
	10	2.84167	4.50177E-003	4.50411E-003	5.59566E-004	...........
	11	3.1	4.57146E-003	4.13101E-003	5.63132E-004	...........
	12	3.35833	4.53644E-003	3.86529E-003	5.61499E-004	...........
	13	3.61667	4.39622E-003	3.63832E-003	5.60999E-004	...........
	14	3.875	4.16515E-003	2.76194E-003	5.63332E-004	...........
	15	4.13333	3.85075E-003	2.64105E-003	5.60066E-004	...........
	16	4.39167	3.47973E-003	3.11833E-003	5.62532E-004	...........
	17	4.65	3.15082E-003	2.83904E-003	5.55633E-004	...........
	18	4.90833	2.96390E-003	3.15908E-003	5.59499E-004	...........
EOC	QUANT	0.0029639	Open Circuit (V)
PSTATMODEL	IQUANT	4	Pstat Model
PSTATSECTION	LABEL	REF600-11020	Pstat Section
PSTATSERIALNO	LABEL	11020	Pstat Serial Number
CTRLMODE	IQUANT	1	Control Mode
IESTAB	IQUANT	0	I/E Stability
CASPEED	IQUANT	1	Control Amp Speed
CONVENTION	IQUANT	1	Current Convention
ICHRANGE	IQUANT	2	Ich Range
ICHRANGEMODE	TOGGLE	F	Ich Auto Range
ICHOFFSETENABLE	TOGGLE	T	Ich Offset Enable
ICHOFFSET	QUANT	0	Ich Offset (V)
ICHFILTER	IQUANT	3	Ich Filter
VCHRANGE	IQUANT	2	Vch Range
VCHRANGEMODE	TOGGLE	F	Vch Auto Range
VCHOFFSETENABLE	TOGGLE	T	Vch Offset Enable
VCHOFFSET	QUANT	0	Vch Offset (V)
VCHFILTER	IQUANT	3	Vch Filter
ACHRANGE	IQUANT	2	Ach Range
ACHOFFSETENABLE	TOGGLE	F	Ach Offset Enable
ACHOFFSET	QUANT	0	Ach Offset (V)
ACHFILTER	IQUANT	3	Ach Filter
IERANGELOWERLIMIT	IQUANT	1	I/E Range Lower Limit
IERANGEMODE	TOGGLE	F	I/E AutoRange
IERANGE	IQUANT	5	I/E Range
POSFEEDENABLE	TOGGLE	F	Positive Feedback IR Comp
POSFEEDRESISTANCE	QUANT	0	Positive Feedback Resistance (ohm)
ACHSELECT	IQUANT	0	Ach Select
CABLEID	IQUANT	14	Cable ID
DCCALDATE	LABEL	8/19/2019	DC Calibration Date
ACCALDATE	LABEL	8/19/2019	AC Calibration Date
THERMOSELECT	IQUANT	1	Thermo Select
FRAMEWORKVERSION	QUANT	6.33	Framework Version
INSTRUMENTVERSION	LABEL	3.50	Instrument Version
ZCURVE	TABLE
	Pt	Time	Freq	Zreal	Zimag	Zsig	Zmod	Zphz	Idc	Vdc	IERange
	#	s	Hz	ohm	ohm	V	ohm	°	A	V	#
	0	1	1000078	2533.706	-1607.397	1	3000.565	-32.39126	6.383917E-006	0.0043216	8
	1	2	794390.6	2863.09	-1532.32	1	3247.351	-28.1556	-2.473108E-006	0.0048985	8
	2	4	630984.4	3138.833	-1395.658	1	3435.132	-23.97196	-4.551383E-007	0.0047383	8
	3	5	501234.4	3359.335	-1233.802	1	3578.742	-20.16705	6.857634E-007	0.0047605	8
	4	6	398109.4	3530.446	-1071.289	1	3689.405	-16.88005	-2.182032E-006	0.0050694	8
	5	8	316265.6	3659.692	-935.4209	1	3777.348	-14.33788	-6.174248E-007	0.0048212	8
	6	9	251203.1	3762.222	-788.7345	1	3844.011	-11.84035	-2.031428E-006	0.0051185	8
	7	11	199546.9	3824.466	-680.6274	1	3884.559	-10.09109	1.753027E-006	0.0042129	8
	8	12	158578.1	3879.411	-584.0788	1	3923.134	-8.562066	-8.90358E-007	0.0045267	8
	9	14	125953.1	3972.372	-475.8145	1	4000.767	-6.830401	1.313514E-006	0.0020554	7
	10	15	100078.1	3973.076	-431.0302	1	3996.388	-6.191677	1.398772E-010	0.0044906	7
	11	16	79453.13	4003.939	-403.4837	1	4024.217	-5.754367	-3.309908E-008	0.0045404	7
	12	18	63140.62	4035.342	-387.772	1	4053.93	-5.488925	-1.848769E-008	0.0045192	7
	13	19	50203.12	4065.458	-381.1693	1	4083.288	-5.35628	-6.873049E-008	0.0046615	7
	14	20	39890.62	4096.938	-386.2439	1	4115.105	-5.385711	-4.358017E-008	0.0046322	7
	15	22	31640.63	4129.138	-399.7805	1	4148.446	-5.530105	-7.596583E-008	0.0047636	7
	16	23	25171.88	4163.434	-423.2866	1	4184.896	-5.805182	6.032149E-008	0.0044422	7
	17	25	20015.62	4201.842	-448.8381	1	4225.746	-6.097178	-1.445588E-008	0.0045788	7
	18	26	15890.62	4238.731	-503.3796	1	4268.516	-6.772563	1.035217E-008	0.004636	7
	19	27	12609.37	4281.359	-560.8329	1	4317.936	-7.462919	1.241067E-007	0.0043523	7
	20	29	10078.13	4326.033	-628.9166	1	4371.509	-8.271684	-6.642861E-008	0.0046554	7
	21	30	8015.625	4374.896	-720.8481	1	4433.885	-9.356511	-4.101731E-008	0.0046302	7
	22	31	6328.125	4428.337	-829.5764	1	4505.371	-10.61045	-1.263222E-008	0.004598	7
	23	33	5015.625	4484.956	-967.35	1	4588.093	-12.17154	1.220815E-007	0.0043643	7
	24	34	3984.375	4558.236	-1121.507	1	4694.177	-13.82249	-3.301309E-008	0.0045312	7
	25	35	3170.956	4615.818	-1336.499	1	4805.414	-16.14824	4.440994E-008	0.0044882	7
	26	37	2527.573	4690.255	-1585.547	1	4951.005	-18.67789	4.782759E-008	0.0043985	7
	27	38	1976.103	4787.66	-1920.046	1	5158.32	-21.85279	-3.182545E-008	0.0045282	7
	28	40	1577.524	4888.336	-2319.525	1	5410.733	-25.38443	9.986125E-008	0.0044556	7
	29	41	1265.625	4999.627	-2744.814	1	5703.532	-28.76696	-1.076008E-008	0.004529	7
	30	42	998.264	5146.952	-3337.361	1	6134.256	-32.95998	-3.284728E-008	0.0045261	7
	31	44	796.875	5302.737	-4020.858	1	6654.797	-37.17162	-1.061577E-009	0.0044727	7
	32	45	627.7902	5499.016	-4910.541	1	7372.42	-41.76439	-3.226388E-008	0.0045232	7
	33	46	505.5147	5708.794	-5905.991	1	8214.077	-45.97268	-6.567086E-008	0.0046556	7
	34	48	397.9953	5987.689	-7242.763	1	9397.342	-50.419	5.666246E-009	0.0045451	7
	35	49	315.5048	6311.861	-8851.791	1	10871.7	-54.50884	9.023831E-010	0.0044804	6
	36	51	252.4038	6689.438	-10755.8	1	12666.33	-58.12096	1.72493E-009	0.0044872	6
	37	52	198.6229	7192.038	-13277.94	1	15100.63	-61.55767	1.134649E-009	0.0044867	6
	38	53	158.3615	7796.545	-16218.64	1	17995.29	-64.3257	1.682701E-009	0.0044822	6
	39	55	125.558	8587.465	-19914.22	1	21686.88	-66.67319	1.118658E-009	0.004485	6
	40	56	100.4464	9569	-24235.67	1	26056.35	-68.45435	8.448424E-010	0.0044833	6
	41	57	79.00281	11043.64	-29971.44	1	31941.33	-69.77257	4.235682E-010	0.0044833	6
	42	59	63.3446	12623.94	-36775.25	1	38881.65	-71.05405	1.132191E-010	0.0044807	6
	43	60	49.86702	14919.38	-44558.86	1	46990.21	-71.4882	-3.730178E-010	0.0044772	6
	44	62	39.72458	18168.99	-54404.32	1	57358.02	-71.53262	1.130886E-009	0.0044879	6
	45	63	31.6723	22345.07	-65913.76	1	69598.32	-71.2731	8.727331E-010	0.004485	6
	46	65	24.93351	27845.76	-80390.85	1	85076.88	-70.89495	2.727489E-010	0.0044871	6
	47	66	19.86229	34747.05	-96541	1	102603.7	-70.20518	1.129459E-009	0.0044932	6
	48	67	15.83615	43761.78	-116015.6	1	123994.9	-69.33323	-8.36066E-010	0.0044922	5
	49	69	12.40079	56328.87	-137344.3	1	148446.6	-67.70004	1.381971E-009	0.0044906	5
	50	70	9.93114	70934.83	-162880.1	1	177656.1	-66.46672	8.777051E-010	0.0044852	5
	51	72	7.944915	88176.45	-190853.5	1	210238.3	-65.20255	2.621505E-011	0.0044818	5
	52	73	6.317385	109606.9	-221476.5	1	247114.3	-63.66957	6.193417E-010	0.0044824	5
	53	76	5.008013	135889.1	-256643.5	1	290399.3	-62.09941	3.349451E-010	0.0045007	5
	54	78	3.945707	167228	-296920.8	1	340774.3	-60.61147	-9.217966E-011	0.0044849	5
	55	81	3.158693	200277.4	-338150.2	1	393009.6	-59.36286	3.030418E-010	0.0044989	5
	56	84	2.504006	239621	-386667.2	1	454895.3	-58.21315	-1.464836E-010	0.0044791	5
	57	87	1.998082	281372.9	-438609.4	1	521103.5	-57.31937	4.52191E-011	0.0044611	5
	58	90	1.584686	329021.3	-498788.1	1	597532.1	-56.5895	5.231479E-011	0.0045351	5
	59	94	1.266892	377852.4	-567210.1	1	681542.2	-56.33005	-1.154182E-010	0.0044835	5
	60	98	0.999041	435829.2	-651343.3	1	783706	-56.21258	2.555003E-010	0.0045071	5
