EXPLAIN
TAG	EISPOT
TITLE	LABEL	Potentiostatic IDE	Test &Identifier
DATE	LABEL	9/4/2019	Date
TIME	LABEL	13:01:56	Time
NOTES	NOTES	1	&Notes...
	
PSTAT	PSTAT	REF600-11020	Potentiostat
VDC	POTEN	0.00000E+000	T	DC &Voltage (V)
FREQINIT	QUANT	1.00000E+006	Initial Fre&q. (Hz)
FREQFINAL	QUANT	1.00000E+000	Final Fre&q. (Hz)
PTSPERDEC	QUANT	1.00000E+001	Points/&decade
VAC	QUANT	2.50000E+001	AC &Voltage (mV rms)
AREA	QUANT	1.00000E-002	&Area (cm^2)
CONDIT	TWOPARAM	T	5.00000E+000	0.00000E+000	Conditionin&g	Time(s)	E(V)
DELAY	TWOPARAM	T	5.00000E+000	0.00000E+000	Init. De&lay	Time(s)	Stab.(mV/s)
SPEED	SELECTOR	1	&Optimize for:
ZGUESS	QUANT	1.00000E+007	E&stimated Z (ohms)
OCVCURVE	TABLE	19
	Pt	T	Vf	Vm	Ach	Over
	#	s	V vs. Ref.	V	V	bits
	0	0.258333	4.95475E-002	4.95475E-002	5.62899E-004	...........
	1	0.516667	4.95482E-002	4.95848E-002	5.67399E-004	...........
	2	0.775	4.95543E-002	4.97072E-002	5.67166E-004	...........
	3	1.03333	4.95776E-002	4.98596E-002	5.73999E-004	...........
	4	1.29167	4.96336E-002	5.00469E-002	5.75666E-004	...........
	5	1.55	4.97317E-002	5.02377E-002	5.71932E-004	...........
	6	1.80833	4.98697E-002	5.04202E-002	5.72399E-004	...........
	7	2.06667	5.00338E-002	5.04871E-002	5.73532E-004	...........
	8	2.325	5.02043E-002	5.07261E-002	5.71932E-004	...........
	9	2.58333	5.03711E-002	5.09865E-002	5.72366E-004	...........
	10	2.84167	5.05450E-002	5.12157E-002	5.73766E-004	...........
	11	3.1	5.07410E-002	5.14295E-002	5.72332E-004	...........
	12	3.35833	5.09584E-002	5.16603E-002	5.68166E-004	...........
	13	3.61667	5.11845E-002	5.18274E-002	5.69999E-004	...........
	14	3.875	5.14066E-002	5.20184E-002	5.67232E-004	...........
	15	4.13333	5.16167E-002	5.21881E-002	5.66066E-004	...........
	16	4.39167	5.18142E-002	5.24363E-002	5.69432E-004	...........
	17	4.65	5.20070E-002	5.26478E-002	5.71866E-004	...........
	18	4.90833	5.22046E-002	5.28100E-002	5.70732E-004	...........
EOC	QUANT	0.0522046	Open Circuit (V)
PSTATMODEL	IQUANT	4	Pstat Model
PSTATSECTION	LABEL	REF600-11020	Pstat Section
PSTATSERIALNO	LABEL	11020	Pstat Serial Number
CTRLMODE	IQUANT	1	Control Mode
IESTAB	IQUANT	0	I/E Stability
CASPEED	IQUANT	1	Control Amp Speed
CONVENTION	IQUANT	1	Current Convention
ICHRANGE	IQUANT	2	Ich Range
ICHRANGEMODE	TOGGLE	F	Ich Auto Range
ICHOFFSETENABLE	TOGGLE	T	Ich Offset Enable
ICHOFFSET	QUANT	0	Ich Offset (V)
ICHFILTER	IQUANT	3	Ich Filter
VCHRANGE	IQUANT	2	Vch Range
VCHRANGEMODE	TOGGLE	F	Vch Auto Range
VCHOFFSETENABLE	TOGGLE	T	Vch Offset Enable
VCHOFFSET	QUANT	0	Vch Offset (V)
VCHFILTER	IQUANT	3	Vch Filter
ACHRANGE	IQUANT	2	Ach Range
ACHOFFSETENABLE	TOGGLE	F	Ach Offset Enable
ACHOFFSET	QUANT	0	Ach Offset (V)
ACHFILTER	IQUANT	3	Ach Filter
IERANGELOWERLIMIT	IQUANT	1	I/E Range Lower Limit
IERANGEMODE	TOGGLE	F	I/E AutoRange
IERANGE	IQUANT	3	I/E Range
POSFEEDENABLE	TOGGLE	F	Positive Feedback IR Comp
POSFEEDRESISTANCE	QUANT	0	Positive Feedback Resistance (ohm)
ACHSELECT	IQUANT	0	Ach Select
CABLEID	IQUANT	14	Cable ID
DCCALDATE	LABEL	8/19/2019	DC Calibration Date
ACCALDATE	LABEL	8/19/2019	AC Calibration Date
THERMOSELECT	IQUANT	1	Thermo Select
FRAMEWORKVERSION	QUANT	6.33	Framework Version
INSTRUMENTVERSION	LABEL	3.50	Instrument Version
ZCURVE	TABLE
	Pt	Time	Freq	Zreal	Zimag	Zsig	Zmod	Zphz	Idc	Vdc	IERange
	#	s	Hz	ohm	ohm	V	ohm	°	A	V	#
	0	2	1000078	2276.496	-1702.212	1	2842.527	-36.78669	1.133163E-005	0.0534277	8
	1	3	794390.6	2599.452	-1658.346	1	3083.385	-32.53624	8.670599E-006	0.0538104	8
	2	5	630984.4	2878.903	-1521.359	1	3256.166	-27.85426	1.175194E-005	0.0531384	8
	3	6	501234.4	3166.907	-1387.237	1	3457.416	-23.65541	1.268228E-005	0.0528341	8
	4	8	398109.4	3352.311	-1238.279	1	3573.699	-20.27326	9.024488E-006	0.0536327	8
	5	9	316265.6	3466.583	-1083.761	1	3632.043	-17.36086	1.276676E-005	0.0528522	8
	6	11	251203.1	3602.84	-980.925	1	3733.988	-15.23043	9.244989E-006	0.0536192	8
	7	13	199546.9	3695.492	-881.0529	1	3799.068	-13.40972	1.199585E-005	0.053128	8
	8	14	158578.1	3784.924	-799.2075	1	3868.383	-11.92317	1.115697E-005	0.0530841	8
	9	16	125953.1	3857.486	-738.9835	1	3927.632	-10.84483	1.625052E-006	0.0515171	7
	10	17	100078.1	3908.16	-714.1674	1	3972.876	-10.35583	9.282429E-007	0.0535802	7
	11	18	79453.13	3958.542	-711.4025	1	4021.958	-10.18806	9.795749E-007	0.0534983	7
	12	20	63140.62	4021.418	-726.1522	1	4086.453	-10.23567	9.561686E-007	0.0535073	7
	13	21	50203.12	4078.263	-754.9724	1	4147.555	-10.48793	9.783138E-007	0.0534952	7
	14	22	39890.62	4139.551	-805.4104	1	4217.176	-11.01018	9.462203E-007	0.0535758	7
	15	24	31640.63	4214.784	-883.3531	1	4306.358	-11.83697	9.100513E-007	0.0536349	7
	16	25	25171.88	4288.918	-975.848	1	4398.533	-12.81816	9.302963E-007	0.0535659	7
	17	27	20015.62	4374.663	-1104.361	1	4511.905	-14.168	9.788763E-007	0.0534918	7
	18	28	15890.62	4462.03	-1246.489	1	4632.866	-15.60796	9.795374E-007	0.0534925	7
	19	29	12609.37	4577.827	-1435.553	1	4797.636	-17.41082	9.334233E-007	0.0535627	7
	20	31	10078.13	4697.305	-1646.717	1	4977.585	-19.31895	9.435153E-007	0.0535363	7
	21	32	8015.625	4839.352	-1909.948	1	5202.617	-21.53767	9.484706E-007	0.05357	7
	22	33	6328.125	5007.225	-2238.163	1	5484.676	-24.08401	9.342452E-007	0.0535642	7
	23	35	5015.625	5197.024	-2619.21	1	5819.735	-26.74731	9.344969E-007	0.0535594	7
	24	36	3984.375	5427.884	-3071.086	1	6236.465	-29.5011	9.567655E-007	0.0534984	7
	25	37	3170.956	5679.384	-3597.841	1	6723.084	-32.3539	1.014671E-006	0.0534561	7
	26	39	2527.573	5975.524	-4218.749	1	7314.692	-35.22227	9.695015E-007	0.053551	7
	27	40	1976.103	6370.664	-5027.798	1	8115.671	-38.28089	9.304643E-007	0.0536566	7
	28	41	1577.524	6776.918	-5890.284	1	8978.979	-40.99614	9.593247E-007	0.0535898	7
	29	43	1265.625	7283.045	-6891.897	1	10027.01	-43.41936	9.486363E-007	0.053526	7
	30	44	998.264	7887.11	-8175.38	1	11359.72	-46.02816	1.016304E-006	0.053442	7
	31	45	796.875	8580.99	-9597.87	1	12874.49	-48.20163	9.305065E-007	0.0535645	7
	32	47	627.7902	9437.08	-11355.49	1	14765.01	-50.27143	8.871545E-008	0.0535489	6
	33	48	505.5147	10380.49	-13257.89	1	16838.24	-51.94023	9.004273E-008	0.0534853	6
	34	49	397.9953	11578.89	-15692.98	1	19502.31	-53.57866	9.469411E-008	0.0531429	6
	35	51	315.5048	12965.23	-18495.91	1	22587.51	-54.97039	9.428679E-008	0.0531463	6
	36	52	252.4038	14524.41	-21646.37	1	26067.68	-56.13894	9.454708E-008	0.0531425	6
	37	53	198.6229	16493.13	-25633.36	1	30481.02	-57.24178	9.459161E-008	0.0531435	6
	38	55	158.3615	18672.85	-30061.72	1	35389.01	-58.1535	9.434802E-008	0.053139	6
	39	56	125.558	21256.46	-35409.7	1	41299.93	-59.02359	9.441608E-008	0.0531428	6
	40	57	100.4464	24183.72	-41395.36	1	47941.93	-59.70596	9.45601E-008	0.0531396	6
	41	59	79.00281	27767.41	-49198.03	1	56493.14	-60.55958	9.446627E-008	0.0531391	6
	42	60	63.3446	31670.61	-57016.31	1	65221.83	-60.94933	9.452054E-008	0.0531409	6
	43	61	49.86702	36538.4	-68407.13	1	77553.79	-61.89192	9.449177E-008	0.0531389	6
	44	63	39.72458	41707.54	-80193.8	1	90391.17	-62.52177	9.436708E-008	0.0531447	6
	45	64	31.6723	47602.28	-94741.75	1	106028.2	-63.3231	9.426354E-008	0.0531419	6
	46	65	24.93351	55079.82	-112778.8	1	125510.3	-63.96967	9.442481E-008	0.0531423	6
	47	67	19.86229	63120.84	-133380	1	147561.7	-64.67458	9.547287E-009	0.0531493	5
	48	68	15.83615	73342.99	-158352.2	1	174512.5	-65.14814	9.177819E-009	0.0531455	5
	49	69	12.40079	85240.28	-190824	1	208996.9	-65.92989	9.960466E-009	0.0531512	5
	50	71	9.93114	97382.7	-226120.2	1	246198.6	-66.70001	9.738857E-009	0.0531464	5
	51	72	7.944915	112646.6	-268230.4	1	290924	-67.21944	9.465651E-009	0.0531548	5
	52	74	6.317385	132098.5	-320887.2	1	347013.8	-67.62467	9.533185E-009	0.0531558	5
	53	76	5.008013	155836.3	-384992.8	1	415336.5	-67.96302	9.645547E-009	0.0531514	5
	54	79	3.945707	186093.2	-464375	1	500274.8	-68.16209	9.615479E-009	0.0531519	5
	55	81	3.158693	221151.7	-553061.7	1	595638.6	-68.2051	9.659496E-009	0.0531456	5
	56	85	2.504006	266052.2	-662649.7	1	714064.7	-68.12466	9.487814E-009	0.0534403	5
	57	87	1.998082	320279.7	-787578.8	1	850211.4	-67.87021	9.55602E-009	0.0534293	5
	58	90	1.584686	393111.3	-941359.3	1	1020144	-67.3346	9.441949E-009	0.0533809	5
	59	94	1.266892	476523.5	-1112182	1	1209968	-66.80688	9.523683E-009	0.053428	5
	60	98	0.999041	588639.1	-1327803	1	1452432	-66.09142	9.115605E-010	0.0534141	4
