EXPLAIN
TAG	EISPOT
TITLE	LABEL	Potentiostatic EIS	Test &Identifier
DATE	LABEL	11/27/2019	Date
TIME	LABEL	13:01:33	Time
NOTES	NOTES	3	&Notes...
	
	
	
PSTAT	PSTAT	REF600-11020	Potentiostat
VDC	POTEN	0.00000E+000	T	DC &Voltage (V)
FREQINIT	QUANT	1.00000E+006	Initial Fre&q. (Hz)
FREQFINAL	QUANT	1.00000E+000	Final Fre&q. (Hz)
PTSPERDEC	QUANT	1.00000E+001	Points/&decade
VAC	QUANT	2.50000E+001	AC &Voltage (mV rms)
AREA	QUANT	1.00000E-002	&Area (cm^2)
CONDIT	TWOPARAM	T	5.00000E+000	0.00000E+000	Conditionin&g	Time(s)	E(V)
DELAY	TWOPARAM	T	5.00000E+000	0.00000E+000	Init. De&lay	Time(s)	Stab.(mV/s)
SPEED	SELECTOR	0	&Optimize for:
ZGUESS	QUANT	1.00000E+005	E&stimated Z (ohms)
OCVCURVE	TABLE	19
	Pt	T	Vf	Vm	Ach	Over
	#	s	V vs. Ref.	V	V	bits
	0	0.258333	3.64469E-003	3.64469E-003	5.45566E-004	...........
	1	0.516667	3.64120E-003	3.46170E-003	5.48799E-004	...........
	2	0.775	3.62033E-003	3.31964E-003	5.41866E-004	...........
	3	1.03333	3.56366E-003	3.20275E-003	5.49133E-004	...........
	4	1.29167	3.46887E-003	3.14875E-003	5.41566E-004	...........
	5	1.55	3.35545E-003	3.04851E-003	5.43233E-004	...........
	6	1.80833	3.24592E-003	2.98858E-003	5.44899E-004	...........
	7	2.06667	3.14993E-003	2.91064E-003	5.41999E-004	...........
	8	2.325	3.06678E-003	2.87271E-003	5.48499E-004	...........
	9	2.58333	2.99400E-003	2.81578E-003	5.53433E-004	...........
	10	2.84167	2.92928E-003	2.71863E-003	5.51633E-004	...........
	11	3.1	2.86869E-003	2.71819E-003	5.50333E-004	...........
	12	3.35833	2.80939E-003	2.61276E-003	5.46066E-004	...........
	13	3.61667	2.75161E-003	2.60381E-003	5.49066E-004	...........
	14	3.875	2.69630E-003	2.54198E-003	5.43866E-004	...........
	15	4.13333	2.64362E-003	2.46395E-003	5.48966E-004	...........
	16	4.39167	2.59160E-003	2.43055E-003	5.52333E-004	...........
	17	4.65	2.53797E-003	2.37258E-003	5.46199E-004	...........
	18	4.90833	2.48338E-003	2.31512E-003	5.44199E-004	...........
EOC	QUANT	0.0024834	Open Circuit (V)
PSTATMODEL	IQUANT	4	Pstat Model
PSTATSECTION	LABEL	REF600-11020	Pstat Section
PSTATSERIALNO	LABEL	11020	Pstat Serial Number
CTRLMODE	IQUANT	1	Control Mode
IESTAB	IQUANT	0	I/E Stability
CASPEED	IQUANT	1	Control Amp Speed
CONVENTION	IQUANT	1	Current Convention
ICHRANGE	IQUANT	2	Ich Range
ICHRANGEMODE	TOGGLE	F	Ich Auto Range
ICHOFFSETENABLE	TOGGLE	T	Ich Offset Enable
ICHOFFSET	QUANT	0	Ich Offset (V)
ICHFILTER	IQUANT	3	Ich Filter
VCHRANGE	IQUANT	2	Vch Range
VCHRANGEMODE	TOGGLE	F	Vch Auto Range
VCHOFFSETENABLE	TOGGLE	T	Vch Offset Enable
VCHOFFSET	QUANT	0	Vch Offset (V)
VCHFILTER	IQUANT	3	Vch Filter
ACHRANGE	IQUANT	2	Ach Range
ACHOFFSETENABLE	TOGGLE	F	Ach Offset Enable
ACHOFFSET	QUANT	0	Ach Offset (V)
ACHFILTER	IQUANT	3	Ach Filter
IERANGELOWERLIMIT	IQUANT	1	I/E Range Lower Limit
IERANGEMODE	TOGGLE	F	I/E AutoRange
IERANGE	IQUANT	4	I/E Range
POSFEEDENABLE	TOGGLE	F	Positive Feedback IR Comp
POSFEEDRESISTANCE	QUANT	0	Positive Feedback Resistance (ohm)
ACHSELECT	IQUANT	0	Ach Select
CABLEID	IQUANT	14	Cable ID
DCCALDATE	LABEL	8/19/2019	DC Calibration Date
ACCALDATE	LABEL	8/19/2019	AC Calibration Date
THERMOSELECT	IQUANT	1	Thermo Select
FRAMEWORKVERSION	QUANT	6.33	Framework Version
INSTRUMENTVERSION	LABEL	3.50	Instrument Version
ZCURVE	TABLE
	Pt	Time	Freq	Zreal	Zimag	Zsig	Zmod	Zphz	Idc	Vdc	IERange
	#	s	Hz	ohm	ohm	V	ohm	°	A	V	#
	0	1	1000078	2100.879	-1560.272	1	2616.896	-36.60038	1.075976E-006	0.0054291	8
	1	1	794390.6	2413.706	-1517.495	1	2851.1	-32.15755	-3.440723E-006	0.0050763	8
	2	2	630984.4	2708.225	-1411.983	1	3054.207	-27.53611	-5.506509E-006	0.0052292	8
	3	2	501234.4	2951.869	-1283.2	1	3218.716	-23.49496	2.596542E-006	0.0044891	8
	4	2	398109.4	3161.062	-1154.683	1	3365.354	-20.06641	3.548776E-006	0.0040725	8
	5	2	316265.6	3315.421	-1015.509	1	3467.459	-17.02976	-1.659918E-006	0.003895	8
	6	3	251203.1	3439.743	-878.2816	1	3550.1	-14.32349	1.694691E-006	0.0043537	8
	7	3	199546.9	3531.71	-764.6123	1	3613.531	-12.21595	-1.42809E-006	0.0038779	8
	8	3	158578.1	3586.925	-670.5948	1	3649.072	-10.58951	-1.187093E-006	0.0044498	8
	9	4	125953.1	3676.47	-556.6841	1	3718.377	-8.610213	-2.516269E-006	0.0061592	7
	10	4	100078.1	3717.75	-476.061	1	3748.106	-7.297063	7.483182E-007	0.0038448	7
	11	4	79453.13	3758.224	-434.3806	1	3783.244	-6.593069	6.945555E-008	0.0048968	7
	12	5	63140.62	3787.884	-402.9628	1	3809.258	-6.072403	-9.883198E-007	0.0055022	7
	13	5	50203.12	3819.752	-378.567	1	3838.466	-5.659972	-1.105408E-006	0.0053395	7
	14	5	39890.62	3850.552	-372.681	1	3868.545	-5.528233	4.371494E-007	0.0025302	7
	15	6	31640.63	3876.393	-372.7606	1	3894.275	-5.492771	-2.62771E-007	0.0052511	7
	16	6	25171.88	3905.447	-381.1636	1	3924.004	-5.574295	-9.457547E-007	0.0044947	7
	17	6	20015.62	3933.233	-399.0722	1	3953.426	-5.793498	4.364009E-007	0.0025241	7
	18	6	15890.62	3967.85	-436.13	1	3991.747	-6.272541	5.485755E-007	0.0042176	7
	19	7	12609.37	3998.484	-481.5055	1	4027.372	-6.866608	-1.10881E-006	0.0053331	7
	20	7	10078.13	4032.527	-537.3819	1	4068.176	-7.590617	9.912327E-007	0.0030029	7
	21	7	8015.625	4066.097	-618.6517	1	4112.891	-8.651135	8.804755E-007	0.0025044	7
	22	8	6328.125	4100.792	-714.7739	1	4162.619	-9.88741	-1.102337E-006	0.0050034	7
	23	8	5015.625	4144.816	-836.9594	1	4228.476	-11.41618	3.483342E-007	0.0045016	7
	24	8	3984.375	4192.695	-985.929	1	4307.058	-13.23291	-8.085719E-007	0.0055347	7
	25	9	3170.956	4248.208	-1180.053	1	4409.059	-15.52406	9.776309E-007	0.0027032	7
	26	9	2527.573	4303.549	-1403.015	1	4526.477	-18.05667	-9.866961E-007	0.0054768	7
	27	9	1976.103	4383.465	-1713.323	1	4706.404	-21.34857	-2.617021E-007	0.0052377	7
	28	10	1577.524	4468.942	-2036.642	1	4911.146	-24.5003	3.565978E-007	0.0044947	7
	29	10	1265.625	4546.32	-2481.404	1	5179.42	-28.62593	7.5323E-007	0.0038193	7
	30	10	998.264	4667.879	-3031.909	1	5566.109	-33.00477	8.836735E-007	0.0024933	7
	31	11	796.875	4791.195	-3675.234	1	6038.452	-37.49113	-8.054512E-007	0.0055326	7
	32	11	627.7902	4949.392	-4511.689	1	6697.15	-42.35118	9.939663E-007	0.0029986	7
	33	11	505.5147	5121.716	-5435.953	1	7468.706	-46.70484	7.335325E-008	0.0048788	7
	34	12	397.9953	5358.824	-6711.258	1	8588.247	-51.39324	2.53962E-009	0.004046	7
	35	12	315.5048	5638.972	-8239.898	1	9984.68	-55.61422	1.097262E-009	0.0040451	7
	36	12	252.4038	5975.334	-10045.78	1	11688.55	-59.25537	4.870628E-010	0.0039797	6
	37	13	198.6229	6432.599	-12437.43	1	14002.42	-62.65213	7.801063E-010	0.0039864	6
	38	13	158.3615	6974.578	-15226.14	1	16747.54	-65.38908	1.468384E-009	0.0039787	6
	39	13	125.558	7706.817	-18734.25	1	20257.52	-67.63892	6.321405E-010	0.0039873	6
	40	14	100.4464	8642.812	-22882.96	1	24460.74	-69.30863	2.403093E-010	0.0039813	6
	41	14	79.00281	9932.94	-28357.72	1	30047.02	-70.69603	1.456254E-009	0.0039763	6
	42	14	63.3446	11337.01	-34011.5	1	35851.22	-71.56528	-1.085948E-011	0.0039724	6
	43	15	49.86702	13764.74	-42048.61	1	44244.25	-71.87399	-1.096998E-010	0.0039731	6
	44	15	39.72458	16606.01	-51544.98	1	54153.89	-72.14285	8.29007E-011	0.0039842	6
	45	15	31.6723	20540.53	-62695.32	1	65974.36	-71.85993	-4.517666E-010	0.0039808	6
	46	16	24.93351	25960.37	-76188.52	1	80489.95	-71.18404	4.969322E-010	0.0039737	6
	47	16	19.86229	32638.11	-91599.2	1	97240.2	-70.38829	4.85589E-010	0.0039883	6
	48	16	15.83615	40480.13	-110677.3	1	117847.8	-69.91004	-1.265535E-009	0.0039842	5
	49	17	12.40079	54069.79	-132303.5	1	142925.7	-67.77115	-8.875424E-010	0.0039899	5
	50	17	9.93114	67917.55	-154770.8	1	169017.1	-66.30685	1.11621E-009	0.0039851	5
	51	18	7.944915	85847.84	-180135	1	199545.6	-64.51869	1.25511E-009	0.0039772	5
	52	18	6.317385	108788.8	-209025.7	1	235641.1	-62.50498	8.24199E-010	0.003969	5
	53	19	5.008013	136399.9	-240753.7	1	276707.9	-60.46612	6.252787E-010	0.0039819	5
	54	20	3.945707	169855.9	-275165.1	1	323368	-58.31349	-1.14941E-010	0.0039839	5
	55	21	3.158693	204068.9	-308317.9	1	369735.1	-56.5003	1.568755E-011	0.0039604	5
	56	23	2.504006	243784.1	-345287.5	1	422675	-54.77668	3.745183E-010	0.0039656	5
	57	24	1.998082	283384.7	-383684.3	1	476991.1	-53.55087	1.703169E-010	0.0039584	5
	58	26	1.584686	327868.1	-428282	1	539372.8	-52.5644	-1.132491E-011	0.0039216	5
	59	28	1.266892	371222.5	-479234.1	1	606194.3	-52.23806	-1.033576E-011	0.0039339	5
	60	30	0.999041	418344.7	-542194.3	1	684826.3	-52.34705	7.126456E-012	0.0039514	5
