EXPLAIN
TAG	EISPOT
TITLE	LABEL	Potentiostatic EIS	Test &Identifier
DATE	LABEL	9/20/2019	Date
TIME	LABEL	12:00:57	Time
NOTES	NOTES	1	&Notes...
	
PSTAT	PSTAT	REF600-11020	Potentiostat
VDC	POTEN	0.00000E+000	T	DC &Voltage (V)
FREQINIT	QUANT	1.00000E+006	Initial Fre&q. (Hz)
FREQFINAL	QUANT	1.00000E+000	Final Fre&q. (Hz)
PTSPERDEC	QUANT	1.00000E+001	Points/&decade
VAC	QUANT	2.50000E+001	AC &Voltage (mV rms)
AREA	QUANT	1.00000E-002	&Area (cm^2)
CONDIT	TWOPARAM	T	5.00000E+000	0.00000E+000	Conditionin&g	Time(s)	E(V)
DELAY	TWOPARAM	T	5.00000E+000	0.00000E+000	Init. De&lay	Time(s)	Stab.(mV/s)
SPEED	SELECTOR	1	&Optimize for:
ZGUESS	QUANT	1.00000E+004	E&stimated Z (ohms)
OCVCURVE	TABLE	19
	Pt	T	Vf	Vm	Ach	Over
	#	s	V vs. Ref.	V	V	bits
	0	0.258333	1.78229E-004	1.78229E-004	6.51831E-004	...........
	1	0.516667	1.69244E-004	-2.92101E-004	6.46598E-004	...........
	2	0.775	1.14445E-004	-7.18334E-004	6.44698E-004	...........
	3	1.03333	-3.88000E-005	-1.09944E-003	6.49764E-004	...........
	4	1.29167	-3.08104E-004	-1.45814E-003	6.48831E-004	...........
	5	1.55	-6.57466E-004	-1.78223E-003	6.51564E-004	...........
	6	1.80833	-1.03350E-003	-2.11152E-003	6.49631E-004	...........
	7	2.06667	-1.40100E-003	-2.42542E-003	6.53364E-004	...........
	8	2.325	-1.74878E-003	-2.73318E-003	6.49331E-004	...........
	9	2.58333	-2.07875E-003	-3.02374E-003	6.52331E-004	...........
	10	2.84167	-2.39478E-003	-3.29361E-003	6.50698E-004	...........
	11	3.1	-2.69798E-003	-3.55235E-003	6.51531E-004	...........
	12	3.35833	-2.98768E-003	-3.81455E-003	6.53831E-004	...........
	13	3.61667	-3.26377E-003	-4.02957E-003	6.52898E-004	...........
	14	3.875	-3.52584E-003	-4.23512E-003	6.51331E-004	...........
	15	4.13333	-3.77181E-003	-4.43624E-003	6.51364E-004	...........
	16	4.39167	-4.00078E-003	-4.64346E-003	6.47831E-004	...........
	17	4.65	-4.21593E-003	-4.83928E-003	6.48131E-004	...........
	18	4.90833	-4.42232E-003	-5.02762E-003	6.51098E-004	...........
EOC	QUANT	-0.0044223	Open Circuit (V)
PSTATMODEL	IQUANT	4	Pstat Model
PSTATSECTION	LABEL	REF600-11020	Pstat Section
PSTATSERIALNO	LABEL	11020	Pstat Serial Number
CTRLMODE	IQUANT	1	Control Mode
IESTAB	IQUANT	0	I/E Stability
CASPEED	IQUANT	1	Control Amp Speed
CONVENTION	IQUANT	1	Current Convention
ICHRANGE	IQUANT	2	Ich Range
ICHRANGEMODE	TOGGLE	F	Ich Auto Range
ICHOFFSETENABLE	TOGGLE	T	Ich Offset Enable
ICHOFFSET	QUANT	0	Ich Offset (V)
ICHFILTER	IQUANT	3	Ich Filter
VCHRANGE	IQUANT	2	Vch Range
VCHRANGEMODE	TOGGLE	F	Vch Auto Range
VCHOFFSETENABLE	TOGGLE	T	Vch Offset Enable
VCHOFFSET	QUANT	0	Vch Offset (V)
VCHFILTER	IQUANT	3	Vch Filter
ACHRANGE	IQUANT	2	Ach Range
ACHOFFSETENABLE	TOGGLE	F	Ach Offset Enable
ACHOFFSET	QUANT	0	Ach Offset (V)
ACHFILTER	IQUANT	3	Ach Filter
IERANGELOWERLIMIT	IQUANT	1	I/E Range Lower Limit
IERANGEMODE	TOGGLE	F	I/E AutoRange
IERANGE	IQUANT	5	I/E Range
POSFEEDENABLE	TOGGLE	F	Positive Feedback IR Comp
POSFEEDRESISTANCE	QUANT	0	Positive Feedback Resistance (ohm)
ACHSELECT	IQUANT	0	Ach Select
CABLEID	IQUANT	14	Cable ID
DCCALDATE	LABEL	8/19/2019	DC Calibration Date
ACCALDATE	LABEL	8/19/2019	AC Calibration Date
THERMOSELECT	IQUANT	1	Thermo Select
FRAMEWORKVERSION	QUANT	6.33	Framework Version
INSTRUMENTVERSION	LABEL	3.50	Instrument Version
ZCURVE	TABLE
	Pt	Time	Freq	Zreal	Zimag	Zsig	Zmod	Zphz	Idc	Vdc	IERange
	#	s	Hz	ohm	ohm	V	ohm	°	A	V	#
	0	1	1000078	2470.487	-1950.311	1	3147.542	-38.28912	-1.708794E-006	-0.0019058	8
	1	3	794390.6	2869.279	-1897.361	1	3439.875	-33.47537	2.755417E-006	-0.0031882	8
	2	4	630984.4	3243.862	-1795.835	1	3707.784	-28.96936	-1.957503E-006	-0.0024398	8
	3	6	501234.4	3572.109	-1631.094	1	3926.885	-24.54235	-3.492047E-006	-0.002045	8
	4	7	398109.4	3825.997	-1459.662	1	4094.981	-20.88243	3.663352E-006	-0.003567	8
	5	9	316265.6	4035.587	-1280.643	1	4233.912	-17.60618	7.057571E-007	-0.0030728	8
	6	10	251203.1	4190.341	-1118.226	1	4336.979	-14.94164	-4.607926E-006	-0.001848	8
	7	12	199546.9	4310.569	-943.7171	1	4412.664	-12.34898	4.892439E-006	-0.0038455	8
	8	14	158578.1	4408.626	-824.2878	1	4485.024	-10.5904	-3.392395E-006	-0.0022207	8
	9	15	125953.1	4493.427	-661.3034	1	4541.829	-8.372192	-4.984887E-007	-0.0021112	7
	10	17	100078.1	4544.079	-585.6752	1	4581.667	-7.344225	-8.434761E-009	-0.0029042	7
	11	18	79453.13	4587.328	-531.1411	1	4617.974	-6.604549	-8.309756E-009	-0.0029114	7
	12	19	63140.62	4626.935	-492.5819	1	4653.081	-6.0768	4.546477E-008	-0.0031053	7
	13	21	50203.12	4662.895	-467.5129	1	4686.273	-5.725477	4.002652E-008	-0.0030192	7
	14	22	39890.62	4696.104	-455.0059	1	4718.095	-5.534119	4.731035E-008	-0.0031143	7
	15	23	31640.63	4731.051	-459.493	1	4753.313	-5.547328	-3.860293E-008	-0.0029247	7
	16	25	25171.88	4766.315	-473.6733	1	4789.794	-5.675383	1.408668E-007	-0.0031728	7
	17	26	20015.62	4803.051	-503.2842	1	4829.347	-5.981867	-1.443401E-008	-0.0029273	7
	18	27	15890.62	4841.026	-546.1003	1	4871.731	-6.43614	-1.913308E-008	-0.0029976	7
	19	29	12609.37	4880.263	-605.4037	1	4917.67	-7.071498	-3.892172E-008	-0.0029243	7
	20	30	10078.13	4922.782	-680.2851	1	4969.564	-7.86794	8.687823E-008	-0.0030164	7
	21	31	8015.625	4971.776	-778.7681	1	5032.398	-8.902349	4.208463E-008	-0.0030219	7
	22	33	6328.125	5026.273	-903.3984	1	5106.814	-10.18928	-3.104095E-008	-0.0029631	7
	23	34	5015.625	5085.802	-1056.133	1	5194.304	-11.73148	8.953797E-008	-0.0031506	7
	24	36	3984.375	5151.854	-1242.552	1	5299.578	-13.55993	-1.374017E-008	-0.0029297	7
	25	37	3170.956	5228.954	-1469.219	1	5431.442	-15.69417	4.279255E-008	-0.0030228	7
	26	38	2527.573	5315.771	-1744.695	1	5594.764	-18.17041	8.890665E-008	-0.0031556	7
	27	40	1976.103	5424.435	-2115.127	1	5822.221	-21.30209	7.479376E-008	-0.0031072	7
	28	41	1577.524	5537.227	-2526.51	1	6086.39	-24.52613	1.837671E-008	-0.0030526	7
	29	42	1265.625	5669.228	-3012.671	1	6419.995	-27.98652	8.886676E-008	-0.0031614	7
	30	44	998.264	5832.102	-3660.411	1	6885.639	-32.11368	-3.770541E-008	-0.0029715	7
	31	45	796.875	6019.76	-4411.612	1	7463.232	-36.23602	8.976597E-008	-0.0030262	7
	32	46	627.7902	6252.504	-5379.714	1	8248.342	-40.70901	1.427742E-007	-0.0031856	7
	33	48	505.5147	6505.875	-6451.416	1	9162.269	-44.75919	7.30468E-008	-0.0031071	7
	34	49	397.9953	6849.225	-7897.944	1	10454.16	-49.06764	9.77798E-010	-0.0030202	6
	35	51	315.5048	7248.143	-9627.37	1	12050.8	-53.02506	1.327764E-009	-0.0030217	6
	36	52	252.4038	7718.741	-11656.45	1	13980.4	-56.48801	7.617467E-010	-0.0030206	6
	37	53	198.6229	8345.472	-14323.43	1	16577.32	-59.773	9.805273E-010	-0.0030195	6
	38	55	158.3615	9087.36	-17414.41	1	19642.86	-62.4431	7.544558E-010	-0.0030202	6
	39	56	125.558	10052.71	-21286.13	1	23540.53	-64.72025	1.112051E-009	-0.0030262	6
	40	57	100.4464	11260.21	-25814.59	1	28163.54	-66.43339	1.378378E-009	-0.0030182	6
	41	59	79.00281	12848.31	-31777.95	1	34277.07	-67.98576	1.443493E-009	-0.0030175	6
	42	60	63.3446	14850.04	-38112.16	1	40903.06	-68.7121	5.279592E-010	-0.0030216	6
	43	62	49.86702	17956.65	-47263.04	1	50559.23	-69.19671	7.77131E-010	-0.0030272	6
	44	63	39.72458	21495.81	-57037.23	1	60953.39	-69.34991	6.675466E-010	-0.0030221	6
	45	64	31.6723	26077.28	-68627.85	1	73415.3	-69.19416	1.18242E-010	-0.0030228	6
	46	66	24.93351	32987.61	-83168.65	1	89471.82	-68.36498	4.964641E-010	-0.0030239	6
	47	67	19.86229	41347.59	-99149.8	1	107425.8	-67.36281	9.687297E-010	-0.0030121	5
	48	68	15.83615	52797.27	-117877.8	1	129161.6	-65.87247	-1.155494E-009	-0.0030196	5
	49	70	12.40079	66307.88	-138436.2	1	153497	-64.40661	5.418592E-010	-0.0030202	5
	50	71	9.93114	82990.2	-161069	1	181192.2	-62.74039	8.860382E-010	-0.0030283	5
	51	73	7.944915	102458.3	-184381.2	1	210936.3	-60.93963	-1.103628E-010	-0.0030202	5
	52	75	6.317385	125622.1	-211082.2	1	245635.1	-59.24172	3.861192E-010	-0.0030272	5
	53	77	5.008013	152409.8	-239926.9	1	284242.2	-57.57488	2.150105E-010	-0.003017	5
	54	79	3.945707	182908.7	-272423.3	1	328131.2	-56.12206	1.203147E-011	-0.0030258	5
	55	82	3.158693	213882.4	-305044	1	372555.4	-54.96368	3.451045E-010	-0.0030139	5
	56	85	2.504006	248755.1	-343836.9	1	424385.4	-54.11546	-5.130665E-011	-0.0030129	5
	57	88	1.998082	284390	-386204.8	1	479616.3	-53.63315	3.060254E-010	-0.0030604	5
	58	91	1.584686	323790.1	-438648.4	1	545208.6	-53.56696	5.572771E-011	-0.0030321	5
	59	95	1.266892	366925.7	-496914.6	1	617704.3	-53.55755	2.197946E-010	-0.0030664	5
	60	99	0.999041	417174.6	-571331.6	1	707428.1	-53.86385	1.937209E-010	-0.0029779	5
