EXPLAIN
TAG	EISPOT
TITLE	LABEL	Potentiostatic EIS	Test &Identifier
DATE	LABEL	9/20/2019	Date
TIME	LABEL	12:05:52	Time
NOTES	NOTES	1	&Notes...
	
PSTAT	PSTAT	REF600-11020	Potentiostat
VDC	POTEN	0.00000E+000	T	DC &Voltage (V)
FREQINIT	QUANT	1.00000E+006	Initial Fre&q. (Hz)
FREQFINAL	QUANT	1.00000E+000	Final Fre&q. (Hz)
PTSPERDEC	QUANT	1.00000E+001	Points/&decade
VAC	QUANT	2.50000E+001	AC &Voltage (mV rms)
AREA	QUANT	1.00000E-002	&Area (cm^2)
CONDIT	TWOPARAM	T	5.00000E+000	0.00000E+000	Conditionin&g	Time(s)	E(V)
DELAY	TWOPARAM	T	5.00000E+000	0.00000E+000	Init. De&lay	Time(s)	Stab.(mV/s)
SPEED	SELECTOR	1	&Optimize for:
ZGUESS	QUANT	1.00000E+004	E&stimated Z (ohms)
OCVCURVE	TABLE	19
	Pt	T	Vf	Vm	Ach	Over
	#	s	V vs. Ref.	V	V	bits
	0	0.258333	5.71126E-003	5.71126E-003	5.77766E-004	...........
	1	0.516667	5.70912E-003	5.59963E-003	5.78865E-004	...........
	2	0.775	5.69630E-003	5.50811E-003	5.73866E-004	...........
	3	1.03333	5.66124E-003	5.43620E-003	5.77899E-004	...........
	4	1.29167	5.60171E-003	5.37304E-003	5.75899E-004	...........
	5	1.55	5.52821E-003	5.32099E-003	5.79066E-004	...........
	6	1.80833	5.45420E-003	5.27522E-003	5.77099E-004	...........
	7	2.06667	5.38782E-003	5.23829E-003	5.73666E-004	...........
	8	2.325	5.33133E-003	5.20064E-003	5.73399E-004	...........
	9	2.58333	5.28365E-003	5.17043E-003	5.81165E-004	...........
	10	2.84167	5.24270E-003	5.14164E-003	5.75232E-004	...........
	11	3.1	5.20680E-003	5.11918E-003	5.73066E-004	...........
	12	3.35833	5.17498E-003	5.09297E-003	5.73965E-004	...........
	13	3.61667	5.14667E-003	5.07897E-003	5.75066E-004	...........
	14	3.875	5.12148E-003	5.05671E-003	5.75566E-004	...........
	15	4.13333	5.09912E-003	5.04530E-003	5.74899E-004	...........
	16	4.39167	5.07920E-003	5.02395E-003	5.74999E-004	...........
	17	4.65	5.06107E-003	5.01143E-003	5.71466E-004	...........
	18	4.90833	5.04405E-003	4.99531E-003	5.73799E-004	...........
EOC	QUANT	0.005044	Open Circuit (V)
PSTATMODEL	IQUANT	4	Pstat Model
PSTATSECTION	LABEL	REF600-11020	Pstat Section
PSTATSERIALNO	LABEL	11020	Pstat Serial Number
CTRLMODE	IQUANT	1	Control Mode
IESTAB	IQUANT	0	I/E Stability
CASPEED	IQUANT	1	Control Amp Speed
CONVENTION	IQUANT	1	Current Convention
ICHRANGE	IQUANT	2	Ich Range
ICHRANGEMODE	TOGGLE	F	Ich Auto Range
ICHOFFSETENABLE	TOGGLE	T	Ich Offset Enable
ICHOFFSET	QUANT	0	Ich Offset (V)
ICHFILTER	IQUANT	3	Ich Filter
VCHRANGE	IQUANT	2	Vch Range
VCHRANGEMODE	TOGGLE	F	Vch Auto Range
VCHOFFSETENABLE	TOGGLE	T	Vch Offset Enable
VCHOFFSET	QUANT	0	Vch Offset (V)
VCHFILTER	IQUANT	3	Vch Filter
ACHRANGE	IQUANT	2	Ach Range
ACHOFFSETENABLE	TOGGLE	F	Ach Offset Enable
ACHOFFSET	QUANT	0	Ach Offset (V)
ACHFILTER	IQUANT	3	Ach Filter
IERANGELOWERLIMIT	IQUANT	1	I/E Range Lower Limit
IERANGEMODE	TOGGLE	F	I/E AutoRange
IERANGE	IQUANT	5	I/E Range
POSFEEDENABLE	TOGGLE	F	Positive Feedback IR Comp
POSFEEDRESISTANCE	QUANT	0	Positive Feedback Resistance (ohm)
ACHSELECT	IQUANT	0	Ach Select
CABLEID	IQUANT	14	Cable ID
DCCALDATE	LABEL	8/19/2019	DC Calibration Date
ACCALDATE	LABEL	8/19/2019	AC Calibration Date
THERMOSELECT	IQUANT	1	Thermo Select
FRAMEWORKVERSION	QUANT	6.33	Framework Version
INSTRUMENTVERSION	LABEL	3.50	Instrument Version
ZCURVE	TABLE
	Pt	Time	Freq	Zreal	Zimag	Zsig	Zmod	Zphz	Idc	Vdc	IERange
	#	s	Hz	ohm	ohm	V	ohm	°	A	V	#
	0	2	1000078	2404.739	-2006.857	1	3132.131	-39.84644	5.299099E-006	0.0067612	8
	1	3	794390.6	2808.592	-1985.43	1	3439.495	-35.25698	-2.881071E-006	0.0072941	8
	2	4	630984.4	3213.961	-1917.037	1	3742.269	-30.81489	3.304759E-007	0.0068498	8
	3	6	501234.4	3557.808	-1784.733	1	3980.36	-26.64009	1.354426E-006	0.006338	8
	4	7	398109.4	3868.175	-1617.239	1	4192.641	-22.68924	2.736397E-007	0.0065512	8
	5	9	316265.6	4119.785	-1460.588	1	4371.035	-19.52095	-3.504104E-006	0.0073226	8
	6	10	251203.1	4315.756	-1233.364	1	4488.534	-15.94897	6.21442E-007	0.0063122	8
	7	11	199546.9	4462.063	-1116.076	1	4599.525	-14.04302	-6.588645E-009	0.0066786	8
	8	13	158578.1	4585.75	-971.289	1	4687.483	-11.95885	1.708515E-008	0.0066818	8
	9	14	125953.1	4695.206	-794.6529	1	4761.978	-9.60615	1.335171E-006	0.0041174	7
	10	15	100078.1	4761.196	-695.5298	1	4811.73	-8.311152	-3.270682E-008	0.0065613	7
	11	17	79453.13	4818.135	-630.439	1	4859.206	-7.454635	-1.225714E-008	0.0065829	7
	12	18	63140.62	4865.901	-581.9833	1	4900.582	-6.820429	-5.071396E-008	0.0067209	7
	13	20	50203.12	4914.971	-550.0477	1	4945.654	-6.385556	7.368041E-010	0.0066681	7
	14	21	39890.62	4955.979	-531.7297	1	4984.422	-6.12387	-1.854179E-009	0.0066703	7
	15	22	31640.63	4997.535	-529.1722	1	5025.473	-6.044335	-4.193777E-008	0.0065998	7
	16	24	25171.88	5042.235	-542.2012	1	5071.303	-6.137541	8.502484E-008	0.0063694	7
	17	25	20015.62	5086.751	-567.8249	1	5118.346	-6.369455	4.451307E-008	0.0064942	7
	18	26	15890.62	5132.883	-606.6158	1	5168.604	-6.740082	8.850034E-008	0.0064963	7
	19	28	12609.37	5181.556	-663.8922	1	5223.914	-7.301301	-4.893635E-009	0.0065925	7
	20	29	10078.13	5232.258	-735.7972	1	5283.742	-8.004846	4.48475E-008	0.0064077	7
	21	30	8015.625	5288.347	-828.9333	1	5352.919	-8.908463	4.444901E-008	0.0065	7
	22	32	6328.125	5351.335	-951.06	1	5435.191	-10.0776	-3.192547E-008	0.0065526	7
	23	33	5015.625	5417.941	-1099.629	1	5528.405	-11.47295	4.362233E-008	0.0064943	7
	24	34	3984.375	5492.516	-1281.463	1	5640.025	-13.13279	-4.765885E-008	0.0065811	7
	25	36	3170.956	5573.606	-1505.546	1	5773.366	-15.11602	-5.201513E-009	0.0065871	7
	26	37	2527.573	5667.184	-1775.725	1	5938.87	-17.39758	-8.958267E-009	0.0066737	7
	27	39	1976.103	5780.106	-2138.267	1	6162.938	-20.30123	4.471184E-008	0.0064939	7
	28	40	1577.524	5906.116	-2544.961	1	6431.099	-23.31134	-1.062429E-008	0.0064958	7
	29	41	1265.625	6056.357	-3030.884	1	6772.423	-26.58553	-5.274706E-008	0.0067163	7
	30	43	998.264	6218.307	-3655.042	1	7212.952	-30.44647	-2.049473E-008	0.0065193	7
	31	44	796.875	6413.329	-4379.241	1	7765.857	-34.3266	-1.122733E-008	0.006499	7
	32	45	627.7902	6645.472	-5320.03	1	8512.639	-38.679	-7.779351E-008	0.0066686	7
	33	47	505.5147	6896.444	-6360.567	1	9381.777	-42.68524	-4.769763E-008	0.0065744	7
	34	48	397.9953	7216.034	-7761.314	1	10597.6	-47.08504	1.015302E-009	0.0065061	6
	35	49	315.5048	7577.231	-9445.321	1	12109.03	-51.2627	7.764338E-010	0.0064996	6
	36	51	252.4038	7989.646	-11435.35	1	13949.97	-55.05877	1.375496E-009	0.0064995	6
	37	52	198.6229	8529.228	-14070.24	1	16453.55	-58.77621	1.147338E-009	0.0064997	6
	38	54	158.3615	9159.624	-17142.22	1	19435.91	-61.88302	1.193568E-009	0.0064949	6
	39	55	125.558	9980.35	-21016.96	1	23266.29	-64.5983	1.133581E-009	0.0065035	6
	40	56	100.4464	10961.52	-25561.85	1	27813	-66.78922	8.033064E-010	0.0065026	6
	41	58	79.00281	12356.81	-31616.19	1	33945.16	-68.65256	5.517112E-010	0.0065012	6
	42	59	63.3446	13835.83	-38517.18	1	40926.8	-70.24111	4.817019E-010	0.0065008	6
	43	60	49.86702	16403.8	-46890.6	1	49677.09	-70.71856	1.114228E-010	0.0064962	6
	44	62	39.72458	19344.5	-57297.29	1	60474.7	-71.34447	1.027553E-009	0.0065067	6
	45	63	31.6723	23053.35	-69732.65	1	73444.53	-71.70631	1.512927E-009	0.0065038	6
	46	65	24.93351	28290.38	-85105.89	1	89684.77	-71.61247	6.063224E-010	0.0065017	6
	47	66	19.86229	34694.81	-102861.2	1	108554.9	-71.36089	7.42744E-010	0.0065135	5
	48	67	15.83615	43327.6	-124180.2	1	131521.9	-70.76566	-3.664799E-010	0.0065053	5
	49	69	12.40079	54017.36	-150924.4	1	160299.9	-70.30721	8.952317E-010	0.0065049	5
	50	70	9.93114	68269.71	-178736.4	1	191330.8	-69.09527	-5.635552E-012	0.0065094	5
	51	72	7.944915	85315.49	-210937.9	1	227537.9	-67.97874	1.130319E-009	0.0065065	5
	52	73	6.317385	108428.5	-250890.6	1	273318.2	-66.62723	2.747368E-010	0.0065185	5
	53	75	5.008013	137531	-295470.1	1	325910.1	-65.03967	3.214325E-010	0.0065106	5
	54	78	3.945707	173984.7	-346522	1	387747.6	-63.3393	3.221145E-010	0.0065104	5
	55	81	3.158693	215641.3	-398726.7	1	453303.6	-61.59438	1.33008E-010	0.0065151	5
	56	84	2.504006	266442.9	-457777.2	1	529671.4	-59.79904	4.139583E-010	0.006497	5
	57	87	1.998082	322943.4	-519692.6	1	611860.1	-58.14267	2.88793E-012	0.0065461	5
	58	90	1.584686	387642.4	-588494.6	1	704693.3	-56.62704	3.266385E-010	0.0065218	5
	59	93	1.266892	459736	-660446.5	1	804702.9	-55.15827	1.387097E-010	0.00655	5
	60	98	0.999041	541775.6	-743629.1	1	920057.1	-53.92456	1.602147E-010	0.0064715	5
