EXPLAIN
TAG	EISPOT
TITLE	LABEL	Potentiostatic EIS	Test &Identifier
DATE	LABEL	11/22/2019	Date
TIME	LABEL	10:58:20	Time
NOTES	NOTES	4	&Notes...
	
	
	
	
PSTAT	PSTAT	REF600-11020	Potentiostat
VDC	POTEN	0.00000E+000	T	DC &Voltage (V)
FREQINIT	QUANT	1.00000E+006	Initial Fre&q. (Hz)
FREQFINAL	QUANT	1.00000E+000	Final Fre&q. (Hz)
PTSPERDEC	QUANT	1.00000E+001	Points/&decade
VAC	QUANT	2.50000E+001	AC &Voltage (mV rms)
AREA	QUANT	1.00000E-002	&Area (cm^2)
CONDIT	TWOPARAM	T	5.00000E+000	0.00000E+000	Conditionin&g	Time(s)	E(V)
DELAY	TWOPARAM	T	5.00000E+000	0.00000E+000	Init. De&lay	Time(s)	Stab.(mV/s)
SPEED	SELECTOR	0	&Optimize for:
ZGUESS	QUANT	1.00000E+005	E&stimated Z (ohms)
OCVCURVE	TABLE	19
	Pt	T	Vf	Vm	Ach	Over
	#	s	V vs. Ref.	V	V	bits
	0	0.258333	2.96822E-002	2.96822E-002	5.66366E-004	...........
	1	0.516667	2.97203E-002	3.16744E-002	5.71232E-004	...........
	2	0.775	2.99531E-002	3.35179E-002	5.67366E-004	...........
	3	1.03333	3.06076E-002	3.52153E-002	5.70466E-004	...........
	4	1.29167	3.17664E-002	3.68126E-002	5.68432E-004	...........
	5	1.55	3.32852E-002	3.83060E-002	5.66999E-004	...........
	6	1.80833	3.49389E-002	3.97131E-002	5.68166E-004	...........
	7	2.06667	3.65680E-002	4.10308E-002	5.68566E-004	...........
	8	2.325	3.81048E-002	4.23010E-002	5.69466E-004	...........
	9	2.58333	3.95398E-002	4.35059E-002	5.68632E-004	...........
	10	2.84167	4.08867E-002	4.46670E-002	5.66532E-004	...........
	11	3.1	4.21621E-002	4.57784E-002	5.64766E-004	...........
	12	3.35833	4.33776E-002	4.68128E-002	5.71499E-004	...........
	13	3.61667	4.45379E-002	4.77982E-002	5.67732E-004	...........
	14	3.875	4.56428E-002	4.87458E-002	5.74466E-004	...........
	15	4.13333	4.66922E-002	4.96262E-002	5.72732E-004	...........
	16	4.39167	4.76888E-002	5.05352E-002	5.68232E-004	...........
	17	4.65	4.86397E-002	5.13846E-002	5.66232E-004	...........
	18	4.90833	4.95542E-002	5.21940E-002	5.66266E-004	...........
EOC	QUANT	0.0495542	Open Circuit (V)
PSTATMODEL	IQUANT	4	Pstat Model
PSTATSECTION	LABEL	REF600-11020	Pstat Section
PSTATSERIALNO	LABEL	11020	Pstat Serial Number
CTRLMODE	IQUANT	1	Control Mode
IESTAB	IQUANT	0	I/E Stability
CASPEED	IQUANT	1	Control Amp Speed
CONVENTION	IQUANT	1	Current Convention
ICHRANGE	IQUANT	2	Ich Range
ICHRANGEMODE	TOGGLE	F	Ich Auto Range
ICHOFFSETENABLE	TOGGLE	T	Ich Offset Enable
ICHOFFSET	QUANT	0	Ich Offset (V)
ICHFILTER	IQUANT	3	Ich Filter
VCHRANGE	IQUANT	2	Vch Range
VCHRANGEMODE	TOGGLE	F	Vch Auto Range
VCHOFFSETENABLE	TOGGLE	T	Vch Offset Enable
VCHOFFSET	QUANT	0	Vch Offset (V)
VCHFILTER	IQUANT	3	Vch Filter
ACHRANGE	IQUANT	2	Ach Range
ACHOFFSETENABLE	TOGGLE	F	Ach Offset Enable
ACHOFFSET	QUANT	0	Ach Offset (V)
ACHFILTER	IQUANT	3	Ach Filter
IERANGELOWERLIMIT	IQUANT	1	I/E Range Lower Limit
IERANGEMODE	TOGGLE	F	I/E AutoRange
IERANGE	IQUANT	5	I/E Range
POSFEEDENABLE	TOGGLE	F	Positive Feedback IR Comp
POSFEEDRESISTANCE	QUANT	0	Positive Feedback Resistance (ohm)
ACHSELECT	IQUANT	0	Ach Select
CABLEID	IQUANT	14	Cable ID
DCCALDATE	LABEL	8/19/2019	DC Calibration Date
ACCALDATE	LABEL	8/19/2019	AC Calibration Date
THERMOSELECT	IQUANT	1	Thermo Select
FRAMEWORKVERSION	QUANT	6.33	Framework Version
INSTRUMENTVERSION	LABEL	3.50	Instrument Version
ZCURVE	TABLE
	Pt	Time	Freq	Zreal	Zimag	Zsig	Zmod	Zphz	Idc	Vdc	IERange
	#	s	Hz	ohm	ohm	V	ohm	°	A	V	#
	0	2	1000078	2218.271	-1988.851	1	2979.304	-41.87868	-8.419151E-006	0.0529425	8
	1	2	794390.6	2590.682	-2055.309	1	3306.951	-38.42661	3.939116E-006	0.0518388	8
	2	2	630984.4	2986.725	-2090.362	1	3645.564	-34.98757	-1.21754E-006	0.0508707	8
	3	3	501234.4	3363.061	-2064.358	1	3946.106	-31.54298	-1.42996E-007	0.0508045	8
	4	3	398109.4	3754.962	-2022.266	1	4264.892	-28.30505	-4.919069E-006	0.0514684	8
	5	3	316265.6	4082.05	-1925.237	1	4513.277	-25.2502	7.469595E-006	0.0502514	8
	6	3	251203.1	4396.503	-1808.589	1	4753.97	-22.36078	1.913912E-006	0.0505461	8
	7	4	199546.9	4680.464	-1662.114	1	4966.827	-19.55083	-1.508098E-006	0.0514647	8
	8	4	158578.1	4930.92	-1482.726	1	5149.024	-16.73601	2.139363E-006	0.0505592	8
	9	4	125953.1	5185.06	-1339.492	1	5355.286	-14.48493	4.242331E-006	0.0437649	7
	10	5	100078.1	5314.173	-1233.718	1	5455.501	-13.07004	-1.143339E-006	0.0515893	7
	11	5	79453.13	5481.32	-1149.998	1	5600.658	-11.84898	1.17701E-006	0.0494088	7
	12	5	63140.62	5598.916	-1081.973	1	5702.501	-10.93741	-3.165783E-007	0.052479	7
	13	6	50203.12	5709.087	-1025.95	1	5800.539	-10.18759	-8.029915E-007	0.0508448	7
	14	6	39890.62	5827.248	-1005.598	1	5913.378	-9.791	5.144521E-007	0.0491968	7
	15	6	31640.63	5920.65	-993.187	1	6003.376	-9.52269	-9.728709E-007	0.0528293	7
	16	7	25171.88	6039.121	-1007.171	1	6122.53	-9.46833	1.179777E-006	0.0493975	7
	17	7	20015.62	6143.19	-1042.772	1	6231.064	-9.63381	1.196135E-006	0.0497554	7
	18	7	15890.62	6253.319	-1088.086	1	6347.277	-9.87072	1.196015E-006	0.0497552	7
	19	8	12609.37	6352.668	-1160.386	1	6457.777	-10.35159	-3.504845E-007	0.050091	7
	20	8	10078.13	6469.148	-1231.997	1	6585.416	-10.7824	4.220817E-007	0.0515805	7
	21	9	8015.625	6620.241	-1366.943	1	6759.891	-11.66644	5.099382E-007	0.0491901	7
	22	9	6328.125	6779.526	-1516.627	1	6947.095	-12.60985	6.655915E-007	0.0512238	7
	23	9	5015.625	6938.146	-1684.76	1	7139.769	-13.64871	4.227516E-007	0.0515835	7
	24	10	3984.375	7120.82	-1888.443	1	7366.973	-14.85294	1.036632E-007	0.0495242	7
	25	10	3170.956	7329.683	-2113.645	1	7628.352	-16.08586	-3.128094E-007	0.0524651	7
	26	10	2527.573	7550.854	-2373.781	1	7915.189	-17.45172	-1.328143E-006	0.0521734	7
	27	11	1976.103	7844.437	-2698.732	1	8295.683	-18.98482	4.1885E-007	0.0515794	7
	28	11	1577.524	8148.916	-3053.37	1	8702.178	-20.54079	1.199384E-006	0.049751	7
	29	11	1265.625	8426.175	-3424.355	1	9095.418	-22.11658	9.080453E-007	0.0507505	7
	30	12	998.264	8773.745	-3907.265	1	9604.44	-24.00513	1.198147E-006	0.04975	7
	31	12	796.875	9115.875	-4437.429	1	10138.54	-25.95591	9.097071E-007	0.0507481	7
	32	13	627.7902	9480.006	-5081.398	1	10755.98	-28.19185	-6.698638E-007	0.0527286	7
	33	13	505.5147	9831.43	-5817.368	1	11423.61	-30.61328	1.341029E-009	0.048746	6
	34	13	397.9953	10232.09	-6833.162	1	12303.97	-33.73567	-1.6963E-009	0.050952	6
	35	14	315.5048	10636.02	-8052.725	1	13340.59	-37.13003	-1.529929E-009	0.0509498	6
	36	14	252.4038	11061.95	-9512.92	1	14589.8	-40.69447	-1.500648E-009	0.0509576	6
	37	14	198.6229	11579.06	-11470.87	1	16298.94	-44.73107	-1.416271E-009	0.0509531	6
	38	15	158.3615	12151.33	-13779.63	1	18372.07	-48.59309	-8.03107E-010	0.0509518	6
	39	15	125.558	12870.85	-16705.98	1	21089.06	-52.38812	-1.504591E-009	0.0509586	6
	40	15	100.4464	13716.38	-20142.78	1	24369.46	-55.7468	-1.96689E-009	0.0509478	6
	41	16	79.00281	14908.49	-24701.7	1	28851.99	-58.88729	-1.490737E-009	0.0509549	6
	42	16	63.3446	16340.7	-30184.46	1	34323.76	-61.57061	-2.426169E-009	0.0509572	6
	43	16	49.86702	18194.13	-36879.61	1	41123.37	-63.7411	-8.679997E-010	0.0509472	6
	44	17	39.72458	20716.3	-44536.27	1	49118.68	-65.05423	-8.30887E-010	0.0509479	6
	45	17	31.6723	23911.56	-53905.07	1	58970.49	-66.07858	-1.738983E-009	0.0509479	6
	46	17	24.93351	28382.38	-65565.28	1	71444.84	-66.59283	-1.234256E-009	0.0509414	6
	47	18	19.86229	33924.2	-78833.09	1	85822.53	-66.71637	-1.116101E-009	0.0509633	6
	48	18	15.83615	40142.14	-93653.95	1	101894.3	-66.79897	-1.680469E-009	0.0509506	6
	49	18	12.40079	50339.11	-112807	1	123529.1	-65.9516	-1.045227E-009	0.0509552	5
	50	19	9.93114	62361.99	-133414.8	1	147270.2	-64.94724	-1.90982E-009	0.0509587	5
	51	19	7.944915	75826.03	-155895.9	1	173358.4	-64.06223	-2.378651E-009	0.0509551	5
	52	20	6.317385	92608.53	-181287.7	1	203572	-62.94036	-1.553826E-009	0.0509765	5
	53	20	5.008013	112461.4	-210308.1	1	238489.1	-61.86454	-1.408169E-009	0.0509692	5
	54	22	3.945707	135157.4	-243850.2	1	278801.8	-61.00198	-1.58972E-009	0.0509513	5
	55	23	3.158693	158492.9	-279705.1	1	321488.7	-60.46224	-1.41462E-009	0.0509493	5
	56	25	2.504006	184656.8	-322946.4	1	372011.5	-60.2396	-1.394785E-009	0.050956	5
	57	26	1.998082	213137.8	-372917.4	1	429529	-60.25024	-1.521384E-009	0.0509033	5
	58	27	1.584686	243752.9	-434386.2	1	498103.2	-60.70132	-1.39343E-009	0.0509239	5
	59	29	1.266892	279359.1	-505172.2	1	577269.8	-61.05751	-1.322006E-009	0.05096	5
	60	32	0.999041	323983.8	-596715	1	678995.1	-61.50044	-1.260992E-009	0.0509802	5
