EXPLAIN
TAG	EISPOT
TITLE	LABEL	Potentiostatic EIS	Test &Identifier
DATE	LABEL	9/20/2019	Date
TIME	LABEL	10:50:33	Time
NOTES	NOTES	1	&Notes...
	
PSTAT	PSTAT	REF600-11020	Potentiostat
VDC	POTEN	0.00000E+000	T	DC &Voltage (V)
FREQINIT	QUANT	1.00000E+006	Initial Fre&q. (Hz)
FREQFINAL	QUANT	1.00000E+000	Final Fre&q. (Hz)
PTSPERDEC	QUANT	1.00000E+001	Points/&decade
VAC	QUANT	2.50000E+001	AC &Voltage (mV rms)
AREA	QUANT	1.00000E-002	&Area (cm^2)
CONDIT	TWOPARAM	T	5.00000E+000	0.00000E+000	Conditionin&g	Time(s)	E(V)
DELAY	TWOPARAM	T	5.00000E+000	0.00000E+000	Init. De&lay	Time(s)	Stab.(mV/s)
SPEED	SELECTOR	1	&Optimize for:
ZGUESS	QUANT	1.00000E+004	E&stimated Z (ohms)
OCVCURVE	TABLE	19
	Pt	T	Vf	Vm	Ach	Over
	#	s	V vs. Ref.	V	V	bits
	0	0.258333	9.45679E-002	9.45679E-002	5.87199E-004	...........
	1	0.516667	9.46986E-002	1.01408E-001	5.88065E-004	...........
	2	0.775	9.54968E-002	1.07676E-001	5.83865E-004	...........
	3	1.03333	9.77387E-002	1.13551E-001	5.81899E-004	...........
	4	1.29167	1.01710E-001	1.19111E-001	5.80899E-004	...........
	5	1.55	1.06923E-001	1.24116E-001	5.81332E-004	...........
	6	1.80833	1.12601E-001	1.28732E-001	5.84165E-004	...........
	7	2.06667	1.18167E-001	1.33082E-001	5.83199E-004	...........
	8	2.325	1.23359E-001	1.37178E-001	5.82032E-004	...........
	9	2.58333	1.28140E-001	1.41045E-001	5.86699E-004	...........
	10	2.84167	1.32566E-001	1.44712E-001	5.82832E-004	...........
	11	3.1	1.36703E-001	1.48190E-001	5.85499E-004	...........
	12	3.35833	1.40602E-001	1.51500E-001	5.85365E-004	...........
	13	3.61667	1.44293E-001	1.54644E-001	5.81999E-004	...........
	14	3.875	1.47795E-001	1.57649E-001	5.84365E-004	...........
	15	4.13333	1.51124E-001	1.60517E-001	5.81765E-004	...........
	16	4.39167	1.54294E-001	1.63261E-001	5.82965E-004	...........
	17	4.65	1.57316E-001	1.65887E-001	5.86299E-004	...........
	18	4.90833	1.60202E-001	1.68409E-001	5.84265E-004	...........
EOC	QUANT	0.1602021	Open Circuit (V)
PSTATMODEL	IQUANT	4	Pstat Model
PSTATSECTION	LABEL	REF600-11020	Pstat Section
PSTATSERIALNO	LABEL	11020	Pstat Serial Number
CTRLMODE	IQUANT	1	Control Mode
IESTAB	IQUANT	0	I/E Stability
CASPEED	IQUANT	1	Control Amp Speed
CONVENTION	IQUANT	1	Current Convention
ICHRANGE	IQUANT	2	Ich Range
ICHRANGEMODE	TOGGLE	F	Ich Auto Range
ICHOFFSETENABLE	TOGGLE	T	Ich Offset Enable
ICHOFFSET	QUANT	0	Ich Offset (V)
ICHFILTER	IQUANT	3	Ich Filter
VCHRANGE	IQUANT	2	Vch Range
VCHRANGEMODE	TOGGLE	F	Vch Auto Range
VCHOFFSETENABLE	TOGGLE	T	Vch Offset Enable
VCHOFFSET	QUANT	0	Vch Offset (V)
VCHFILTER	IQUANT	3	Vch Filter
ACHRANGE	IQUANT	2	Ach Range
ACHOFFSETENABLE	TOGGLE	F	Ach Offset Enable
ACHOFFSET	QUANT	0	Ach Offset (V)
ACHFILTER	IQUANT	3	Ach Filter
IERANGELOWERLIMIT	IQUANT	1	I/E Range Lower Limit
IERANGEMODE	TOGGLE	F	I/E AutoRange
IERANGE	IQUANT	7	I/E Range
POSFEEDENABLE	TOGGLE	F	Positive Feedback IR Comp
POSFEEDRESISTANCE	QUANT	0	Positive Feedback Resistance (ohm)
ACHSELECT	IQUANT	0	Ach Select
CABLEID	IQUANT	14	Cable ID
DCCALDATE	LABEL	8/19/2019	DC Calibration Date
ACCALDATE	LABEL	8/19/2019	AC Calibration Date
THERMOSELECT	IQUANT	1	Thermo Select
FRAMEWORKVERSION	QUANT	6.33	Framework Version
INSTRUMENTVERSION	LABEL	3.50	Instrument Version
ZCURVE	TABLE
	Pt	Time	Freq	Zreal	Zimag	Zsig	Zmod	Zphz	Idc	Vdc	IERange
	#	s	Hz	ohm	ohm	V	ohm	°	A	V	#
	0	1	1000078	2204.089	-1412.164	1	2617.674	-32.64777	6.428475E-006	0.1614481	8
	1	2	794390.6	2489.749	-1330.205	1	2822.817	-28.11438	-9.379954E-007	0.1620984	8
	2	4	630984.4	2717.771	-1205.017	1	2972.935	-23.91174	2.847234E-006	0.1614125	8
	3	5	501234.4	2897.903	-1084.205	1	3094.082	-20.51255	2.912988E-006	0.1612073	8
	4	6	398109.4	3055.95	-968.195	1	3205.656	-17.57939	-3.699296E-007	0.1617696	8
	5	8	316265.6	3172.297	-825.8837	1	3278.041	-14.5926	-4.26973E-007	0.1620213	8
	6	9	251203.1	3248.946	-730.9622	1	3330.159	-12.67953	2.273845E-006	0.1613214	8
	7	10	199546.9	3317.307	-661.4962	1	3382.618	-11.27729	-3.304937E-006	0.162511	8
	8	12	158578.1	3368.601	-598.009	1	3421.27	-10.06653	-2.971721E-006	0.1624745	8
	9	13	125953.1	3442.208	-510.9498	1	3479.924	-8.443143	-1.352837E-006	0.1645826	7
	10	15	100078.1	3477.367	-483.8338	1	3510.865	-7.921165	6.503153E-008	0.1617358	7
	11	16	79453.13	3518.537	-480.0688	1	3551.136	-7.769455	-2.788271E-008	0.1617449	7
	12	17	63140.62	3561.573	-485.7515	1	3594.546	-7.766467	-5.221101E-008	0.1617848	7
	13	19	50203.12	3607.645	-502.2079	1	3642.433	-7.925019	-4.974817E-008	0.1618068	7
	14	20	39890.62	3659.172	-529.1833	1	3697.239	-8.228967	-2.8339E-008	0.1618146	7
	15	21	31640.63	3710.54	-568.4626	1	3753.832	-8.710112	-2.869377E-008	0.1617428	7
	16	23	25171.88	3769.452	-618.2314	1	3819.814	-9.314211	-8.484982E-008	0.1618801	7
	17	24	20015.62	3834.456	-678.498	1	3894.022	-10.03449	2.576805E-011	0.1616942	7
	18	25	15890.62	3907.977	-750.6832	1	3979.424	-10.8735	-4.410992E-008	0.1617776	7
	19	27	12609.37	3990.823	-838.0586	1	4077.868	-11.85958	5.196252E-008	0.1616516	7
	20	28	10078.13	4082.626	-935.9623	1	4188.539	-12.91222	6.970088E-008	0.1617118	7
	21	29	8015.625	4187.037	-1049.699	1	4316.612	-14.0741	-2.453851E-008	0.1618924	7
	22	31	6328.125	4306.863	-1187.205	1	4467.497	-15.41109	-8.418416E-008	0.161878	7
	23	32	5015.625	4438.498	-1342.997	1	4637.23	-16.83472	5.24579E-008	0.161649	7
	24	33	3984.375	4585.404	-1520.423	1	4830.902	-18.34443	-5.180941E-008	0.1618514	7
	25	35	3170.956	4749.748	-1722.497	1	5052.435	-19.93318	-6.345945E-008	0.1619164	7
	26	36	2527.573	4931.499	-1951.421	1	5303.557	-21.58897	-2.090364E-008	0.1617958	7
	27	38	1976.103	5151.537	-2240.876	1	5617.816	-23.50864	1.176699E-007	0.1615646	7
	28	39	1577.524	5383.26	-2545.7	1	5954.836	-25.30909	-2.911414E-008	0.1617364	7
	29	40	1265.625	5628.502	-2891.779	1	6327.908	-27.19292	-5.269393E-008	0.161785	7
	30	42	998.264	5917.269	-3311.532	1	6780.879	-29.23306	7.149247E-008	0.1617166	7
	31	43	796.875	6211.233	-3777.925	1	7269.947	-31.30967	2.72096E-008	0.1616314	7
	32	44	627.7902	6541.854	-4367.24	1	7865.663	-33.72646	-9.6106E-009	0.1617752	7
	33	46	505.5147	6862.608	-4999.353	1	8490.519	-36.07302	-5.323541E-008	0.1617869	7
	34	47	397.9953	7224.294	-5848.515	1	9294.921	-38.99232	-6.571538E-009	0.1617858	7
	35	48	315.5048	7594.828	-6869.956	1	10240.98	-42.13114	-1.089288E-008	0.1617296	6
	36	50	252.4038	7976.267	-8090.854	1	11361.46	-45.40862	-1.068116E-008	0.161725	6
	37	51	198.6229	8433.9	-9730.82	1	12877.1	-49.08387	-1.05194E-008	0.1617222	6
	38	52	158.3615	8938.608	-11667.4	1	14697.86	-52.54362	-1.050968E-008	0.1617188	6
	39	54	125.558	9580.98	-14127.24	1	17069.69	-55.85519	-1.045589E-008	0.1617221	6
	40	55	100.4464	10370.53	-17037.64	1	19945.65	-58.67181	-1.003688E-008	0.1617209	6
	41	57	79.00281	11450.63	-20858.74	1	23795.04	-61.23493	-9.700608E-009	0.1617214	6
	42	58	63.3446	12592	-25114.42	1	28094.35	-63.3715	-9.970877E-009	0.1617177	6
	43	59	49.86702	14784.22	-30812.45	1	34175.72	-64.36768	-1.011761E-008	0.1617183	6
	44	61	39.72458	17070.49	-37304.03	1	41024.29	-65.41095	-9.662478E-009	0.1617189	6
	45	62	31.6723	20260.09	-44791.31	1	49160.27	-65.66172	-9.882651E-009	0.1617174	6
	46	63	24.93351	24611.25	-54310.47	1	59626.68	-65.62194	-9.510507E-009	0.1617173	6
	47	65	19.86229	29997.31	-64671.76	1	71290.08	-65.11627	-9.143958E-009	0.1617242	6
	48	66	15.83615	37404.3	-76057.88	1	84757.79	-63.81262	-1.069755E-008	0.1617191	6
	49	68	12.40079	46131.91	-90785.98	1	101834.4	-63.0631	-9.361187E-009	0.1617195	6
	50	69	9.93114	56885.58	-104835.4	1	119274.6	-61.51495	-8.581199E-009	0.1617169	5
	51	71	7.944915	69596.63	-120525.9	1	139176.8	-59.99609	-1.046942E-008	0.1617282	5
	52	72	6.317385	84645.06	-138176	1	162041.3	-58.50883	-9.760141E-009	0.1617231	5
	53	74	5.008013	102362.1	-157905.4	1	188181.1	-57.04669	-9.777565E-009	0.1617215	5
	54	77	3.945707	123204	-179521.3	1	217731.7	-55.53852	-8.676373E-009	0.1617299	5
	55	79	3.158693	145267.2	-202171.4	1	248949.5	-54.30144	-9.362626E-009	0.1617168	5
	56	83	2.504006	170970.8	-228206.8	1	285147.9	-53.15974	-8.162588E-009	0.1617226	5
	57	85	1.998082	198614.2	-255555.7	1	323660.8	-52.14616	-8.593267E-009	0.1617669	5
	58	89	1.584686	229452.1	-287456.3	1	367803.5	-51.4026	-8.133475E-009	0.1617235	5
	59	92	1.266892	264248.2	-322229.7	1	416724.2	-50.64614	-8.176592E-009	0.1617667	5
	60	96	0.999041	304242.9	-363589.6	1	474089.8	-50.07822	-7.934545E-009	0.1616866	5
