EXPLAIN
TAG	EISPOT
TITLE	LABEL	Potentiostatic EIS	Test &Identifier
DATE	LABEL	10/14/2019	Date
TIME	LABEL	12:03:07	Time
NOTES	NOTES	1	&Notes...
	
PSTAT	PSTAT	REF600-11020	Potentiostat
VDC	POTEN	0.00000E+000	T	DC &Voltage (V)
FREQINIT	QUANT	1.00000E+006	Initial Fre&q. (Hz)
FREQFINAL	QUANT	1.00000E+000	Final Fre&q. (Hz)
PTSPERDEC	QUANT	1.00000E+001	Points/&decade
VAC	QUANT	2.50000E+001	AC &Voltage (mV rms)
AREA	QUANT	1.00000E-002	&Area (cm^2)
CONDIT	TWOPARAM	T	5.00000E+000	0.00000E+000	Conditionin&g	Time(s)	E(V)
DELAY	TWOPARAM	T	5.00000E+000	0.00000E+000	Init. De&lay	Time(s)	Stab.(mV/s)
SPEED	SELECTOR	1	&Optimize for:
ZGUESS	QUANT	1.00000E+004	E&stimated Z (ohms)
OCVCURVE	TABLE	19
	Pt	T	Vf	Vm	Ach	Over
	#	s	V vs. Ref.	V	V	bits
	0	0.258333	3.49090E-003	3.49090E-003	5.69966E-004	...........
	1	0.516667	3.48484E-003	3.17341E-003	5.68632E-004	...........
	2	0.775	3.44792E-003	2.88937E-003	5.65199E-004	...........
	3	1.03333	3.34477E-003	2.62856E-003	5.64532E-004	...........
	4	1.29167	3.16360E-003	2.39506E-003	5.60966E-004	...........
	5	1.55	2.92884E-003	2.17488E-003	5.67132E-004	...........
	6	1.80833	2.67694E-003	1.97009E-003	5.64999E-004	...........
	7	2.06667	2.43270E-003	1.77713E-003	5.63866E-004	...........
	8	2.325	2.20550E-003	1.59875E-003	5.64466E-004	...........
	9	2.58333	1.99575E-003	1.42514E-003	5.62099E-004	...........
	10	2.84167	1.80088E-003	1.26469E-003	5.61666E-004	...........
	11	3.1	1.61824E-003	1.11111E-003	5.64966E-004	...........
	12	3.35833	1.44611E-003	9.70448E-004	5.71732E-004	...........
	13	3.61667	1.28357E-003	8.26133E-004	5.64899E-004	...........
	14	3.875	1.12962E-003	6.92464E-004	5.66466E-004	...........
	15	4.13333	9.82732E-004	5.57399E-004	5.67366E-004	...........
	16	4.39167	8.41317E-004	4.28534E-004	5.61132E-004	...........
	17	4.65	7.04323E-004	3.06926E-004	5.60032E-004	...........
	18	4.90833	5.71412E-004	1.83335E-004	5.68766E-004	...........
EOC	QUANT	0.0005714	Open Circuit (V)
PSTATMODEL	IQUANT	4	Pstat Model
PSTATSECTION	LABEL	REF600-11020	Pstat Section
PSTATSERIALNO	LABEL	11020	Pstat Serial Number
CTRLMODE	IQUANT	1	Control Mode
IESTAB	IQUANT	0	I/E Stability
CASPEED	IQUANT	1	Control Amp Speed
CONVENTION	IQUANT	1	Current Convention
ICHRANGE	IQUANT	2	Ich Range
ICHRANGEMODE	TOGGLE	F	Ich Auto Range
ICHOFFSETENABLE	TOGGLE	T	Ich Offset Enable
ICHOFFSET	QUANT	0	Ich Offset (V)
ICHFILTER	IQUANT	3	Ich Filter
VCHRANGE	IQUANT	2	Vch Range
VCHRANGEMODE	TOGGLE	F	Vch Auto Range
VCHOFFSETENABLE	TOGGLE	T	Vch Offset Enable
VCHOFFSET	QUANT	0	Vch Offset (V)
VCHFILTER	IQUANT	3	Vch Filter
ACHRANGE	IQUANT	2	Ach Range
ACHOFFSETENABLE	TOGGLE	F	Ach Offset Enable
ACHOFFSET	QUANT	0	Ach Offset (V)
ACHFILTER	IQUANT	3	Ach Filter
IERANGELOWERLIMIT	IQUANT	1	I/E Range Lower Limit
IERANGEMODE	TOGGLE	F	I/E AutoRange
IERANGE	IQUANT	5	I/E Range
POSFEEDENABLE	TOGGLE	F	Positive Feedback IR Comp
POSFEEDRESISTANCE	QUANT	0	Positive Feedback Resistance (ohm)
ACHSELECT	IQUANT	0	Ach Select
CABLEID	IQUANT	14	Cable ID
DCCALDATE	LABEL	8/19/2019	DC Calibration Date
ACCALDATE	LABEL	8/19/2019	AC Calibration Date
THERMOSELECT	IQUANT	1	Thermo Select
FRAMEWORKVERSION	QUANT	6.33	Framework Version
INSTRUMENTVERSION	LABEL	3.50	Instrument Version
ZCURVE	TABLE
	Pt	Time	Freq	Zreal	Zimag	Zsig	Zmod	Zphz	Idc	Vdc	IERange
	#	s	Hz	ohm	ohm	V	ohm	°	A	V	#
	0	2	1000078	2279.982	-1110.748	1	2536.154	-25.97413	-2.519409E-006	0.0028437	8
	1	3	794390.6	2467.576	-1017.2	1	2669.013	-22.40275	3.193739E-006	0.0021627	8
	2	4	630984.4	2626.09	-919.376	1	2782.373	-19.2948	-2.764296E-006	0.0024059	8
	3	6	501234.4	2749.593	-811.4565	1	2866.832	-16.44232	-1.511987E-006	0.0022955	8
	4	7	398109.4	2850.265	-708.3144	1	2936.958	-13.95577	4.476123E-006	0.001336	8
	5	8	316265.6	2917.637	-632.1878	1	2985.343	-12.22574	-2.989354E-006	0.0026216	8
	6	10	251203.1	2984.57	-555.9694	1	3035.912	-10.55218	1.371719E-007	0.002177	8
	7	11	199546.9	3040.016	-495.9902	1	3080.212	-9.266377	-2.693137E-006	0.0025885	8
	8	12	158578.1	3086.669	-461.2433	1	3120.941	-8.498865	-2.707485E-006	0.0026117	8
	9	14	125953.1	3135.339	-394.4139	1	3160.049	-7.169934	5.283426E-007	0.0013946	7
	10	15	100078.1	3168.255	-374.3576	1	3190.295	-6.738763	-2.102658E-009	0.0020316	7
	11	16	79453.13	3205.3	-372.2974	1	3226.849	-6.625249	3.474301E-008	0.0019204	7
	12	18	63140.62	3244.444	-375.7213	1	3266.126	-6.605688	3.615569E-008	0.0019186	7
	13	19	50203.12	3284.455	-385.2469	1	3306.972	-6.689884	-6.249055E-008	0.0021615	7
	14	21	39890.62	3327.765	-398.7444	1	3351.569	-6.832803	-6.247648E-008	0.0021574	7
	15	22	31640.63	3373.32	-418.1168	1	3399.134	-7.06567	4.840425E-008	0.0019546	7
	16	23	25171.88	3421.514	-442.3318	1	3449.988	-7.366315	-8.336997E-008	0.0022763	7
	17	25	20015.62	3474.357	-472.0866	1	3506.283	-7.737814	5.054046E-008	0.0018817	7
	18	26	15890.62	3526.313	-507.8028	1	3562.689	-8.194481	1.133521E-007	0.0018596	7
	19	27	12609.37	3584.226	-549.7174	1	3626.136	-8.719584	3.101161E-009	0.002004	7
	20	29	10078.13	3639.356	-597.9769	1	3688.155	-9.330808	-4.222376E-008	0.0020448	7
	21	30	8015.625	3697.274	-653.2728	1	3754.544	-10.02019	-8.592031E-008	0.0021555	7
	22	31	6328.125	3761.043	-732.367	1	3831.684	-11.019	4.971378E-008	0.0018789	7
	23	33	5015.625	3822.781	-823.1154	1	3910.393	-12.15132	4.032561E-009	0.0020176	7
	24	34	3984.375	3885.49	-936.025	1	3996.646	-13.54463	-4.847615E-008	0.0021151	7
	25	35	3170.956	3946.573	-1074.156	1	4090.14	-15.22563	-4.938409E-008	0.0021178	7
	26	37	2527.573	4008.614	-1246.22	1	4197.862	-17.26971	4.835736E-008	0.0019491	7
	27	38	1976.103	4082.989	-1484.724	1	4344.56	-19.98311	-4.733693E-008	0.0021196	7
	28	39	1577.524	4127.812	-1758.061	1	4486.603	-23.06946	-6.742403E-008	0.0021251	7
	29	41	1265.625	4232.316	-2089.652	1	4720.079	-26.27727	2.246009E-008	0.0020959	7
	30	42	998.264	4331.242	-2533.027	1	5017.558	-30.32025	6.069845E-008	0.0019262	7
	31	43	796.875	4439.33	-3056.846	1	5389.987	-34.55063	-3.034868E-008	0.0020229	7
	32	45	627.7902	4581.577	-3744.106	1	5916.855	-39.25601	-3.0656E-008	0.0020233	7
	33	46	505.5147	4735.02	-4513.273	1	6541.411	-43.62648	-5.437746E-008	0.0021197	7
	34	48	397.9953	4949.499	-5554.644	1	7439.866	-48.29717	5.238954E-009	0.0020373	7
	35	49	315.5048	5211.158	-6804.761	1	8570.936	-52.55473	5.04751E-009	0.0020401	7
	36	50	252.4038	5526.467	-8273.148	1	9949.21	-56.25706	5.348504E-009	0.0020364	7
	37	52	198.6229	5963.894	-10204.7	1	11819.64	-59.69687	1.248485E-009	0.0019792	6
	38	53	158.3615	6492.229	-12438.38	1	14030.76	-62.43763	1.284889E-009	0.0019705	6
	39	54	125.558	7186.137	-15219.87	1	16831.07	-64.72543	1.127349E-009	0.001972	6
	40	56	100.4464	8051.582	-18452.85	1	20132.95	-66.42679	1.153385E-009	0.0019723	6
	41	57	79.00281	9202.928	-22680.44	1	24476.44	-67.91441	6.913304E-010	0.0019679	6
	42	58	63.3446	10621.33	-27467.48	1	29449.54	-68.85914	3.83254E-010	0.0019672	6
	43	60	49.86702	12478.69	-33376.59	1	35633.05	-69.50046	3.450448E-010	0.0019695	6
	44	61	39.72458	14908.09	-40337.97	1	43004.69	-69.71672	8.36511E-010	0.001978	6
	45	63	31.6723	17799.03	-48472.49	1	51637.07	-69.83684	7.298612E-010	0.0019772	6
	46	64	24.93351	21704.42	-58852.73	1	62727.39	-69.75642	6.692257E-010	0.0019709	6
	47	65	19.86229	26352.1	-70516.08	1	75279.15	-69.50912	5.686834E-010	0.0019693	6
	48	67	15.83615	32281.04	-84345.26	1	90311.62	-69.0569	1.976755E-009	0.0019702	6
	49	68	12.40079	39467.78	-101600.8	1	108997.4	-68.77087	6.079612E-010	0.0019783	5
	50	69	9.93114	48413.86	-119839.8	1	129249.7	-68.00188	1.007114E-009	0.0019702	5
	51	71	7.944915	58619.07	-141490.4	1	153152.7	-67.49591	-1.782553E-010	0.001982	5
	52	73	6.317385	71629.26	-167393.5	1	182075	-66.83346	-7.860164E-011	0.0019826	5
	53	75	5.008013	87479.16	-197977.7	1	216443.5	-66.1611	3.510449E-011	0.0019689	5
	54	77	3.945707	107011.9	-234188.2	1	257479.4	-65.44205	4.938842E-010	0.0019794	5
	55	80	3.158693	129002.7	-273929.8	1	302785.7	-64.78268	1.151486E-011	0.0019661	5
	56	83	2.504006	156149.8	-321071.7	1	357029.1	-64.06452	4.500716E-010	0.0019679	5
	57	86	1.998082	186878.6	-373640.3	1	417768.7	-63.42778	3.694279E-011	0.0020081	5
	58	89	1.584686	223221.8	-436664.8	1	490412.3	-62.92401	2.463426E-010	0.0020095	5
	59	93	1.266892	264651.2	-505206.2	1	570327.6	-62.35231	9.925426E-013	0.0020001	5
	60	97	0.999041	313467.9	-589955.3	1	668063.9	-62.01642	2.716637E-010	0.0019542	5
