EXPLAIN
TAG	EISPOT
TITLE	LABEL	Potentiostatic EIS	Test &Identifier
DATE	LABEL	10/8/2019	Date
TIME	LABEL	8:08:58	Time
NOTES	NOTES	2	&Notes...
	
	
PSTAT	PSTAT	REF600-11020	Potentiostat
VDC	POTEN	0.00000E+000	T	DC &Voltage (V)
FREQINIT	QUANT	1.00000E+006	Initial Fre&q. (Hz)
FREQFINAL	QUANT	1.00000E+000	Final Fre&q. (Hz)
PTSPERDEC	QUANT	1.00000E+001	Points/&decade
VAC	QUANT	2.50000E+001	AC &Voltage (mV rms)
AREA	QUANT	1.00000E-002	&Area (cm^2)
CONDIT	TWOPARAM	T	5.00000E+000	0.00000E+000	Conditionin&g	Time(s)	E(V)
DELAY	TWOPARAM	T	5.00000E+000	0.00000E+000	Init. De&lay	Time(s)	Stab.(mV/s)
SPEED	SELECTOR	1	&Optimize for:
ZGUESS	QUANT	1.00000E+004	E&stimated Z (ohms)
OCVCURVE	TABLE	19
	Pt	T	Vf	Vm	Ach	Over
	#	s	V vs. Ref.	V	V	bits
	0	0.258333	2.61529E-002	2.61529E-002	5.41366E-004	...........
	1	0.516667	2.61545E-002	2.62379E-002	5.38733E-004	...........
	2	0.775	2.61648E-002	2.63343E-002	5.33966E-004	...........
	3	1.03333	2.61960E-002	2.64852E-002	5.34400E-004	...........
	4	1.29167	2.62581E-002	2.66043E-002	5.31066E-004	...........
	5	1.55	2.63977E-002	2.91584E-002	5.36633E-004	...........
	6	1.80833	2.66851E-002	2.56990E-002	5.32666E-004	...........
	7	2.06667	2.70100E-002	2.68873E-002	5.38166E-004	...........
	8	2.325	2.71275E-002	2.70349E-002	5.41899E-004	...........
	9	2.58333	2.70292E-002	2.67243E-002	5.34099E-004	...........
	10	2.84167	2.69060E-002	2.68052E-002	5.39033E-004	...........
	11	3.1	2.68512E-002	2.73120E-002	5.39966E-004	...........
	12	3.35833	2.69698E-002	3.23528E-002	5.30233E-004	...........
	13	3.61667	2.74509E-002	2.60759E-002	5.37666E-004	...........
	14	3.875	2.80922E-002	2.67912E-002	5.38433E-004	...........
	15	4.13333	2.83041E-002	2.72739E-002	5.37333E-004	...........
	16	4.39167	2.79502E-002	2.69837E-002	5.30499E-004	...........
	17	4.65	2.74711E-002	2.75164E-002	5.36666E-004	...........
	18	4.90833	2.72156E-002	2.76738E-002	5.39933E-004	...........
EOC	QUANT	0.0272156	Open Circuit (V)
PSTATMODEL	IQUANT	4	Pstat Model
PSTATSECTION	LABEL	REF600-11020	Pstat Section
PSTATSERIALNO	LABEL	11020	Pstat Serial Number
CTRLMODE	IQUANT	1	Control Mode
IESTAB	IQUANT	0	I/E Stability
CASPEED	IQUANT	1	Control Amp Speed
CONVENTION	IQUANT	1	Current Convention
ICHRANGE	IQUANT	2	Ich Range
ICHRANGEMODE	TOGGLE	F	Ich Auto Range
ICHOFFSETENABLE	TOGGLE	T	Ich Offset Enable
ICHOFFSET	QUANT	0	Ich Offset (V)
ICHFILTER	IQUANT	3	Ich Filter
VCHRANGE	IQUANT	2	Vch Range
VCHRANGEMODE	TOGGLE	F	Vch Auto Range
VCHOFFSETENABLE	TOGGLE	T	Vch Offset Enable
VCHOFFSET	QUANT	0	Vch Offset (V)
VCHFILTER	IQUANT	3	Vch Filter
ACHRANGE	IQUANT	2	Ach Range
ACHOFFSETENABLE	TOGGLE	F	Ach Offset Enable
ACHOFFSET	QUANT	0	Ach Offset (V)
ACHFILTER	IQUANT	3	Ach Filter
IERANGELOWERLIMIT	IQUANT	1	I/E Range Lower Limit
IERANGEMODE	TOGGLE	F	I/E AutoRange
IERANGE	IQUANT	6	I/E Range
POSFEEDENABLE	TOGGLE	F	Positive Feedback IR Comp
POSFEEDRESISTANCE	QUANT	0	Positive Feedback Resistance (ohm)
ACHSELECT	IQUANT	0	Ach Select
CABLEID	IQUANT	14	Cable ID
DCCALDATE	LABEL	8/19/2019	DC Calibration Date
ACCALDATE	LABEL	8/19/2019	AC Calibration Date
THERMOSELECT	IQUANT	1	Thermo Select
FRAMEWORKVERSION	QUANT	6.33	Framework Version
INSTRUMENTVERSION	LABEL	3.50	Instrument Version
ZCURVE	TABLE
	Pt	Time	Freq	Zreal	Zimag	Zsig	Zmod	Zphz	Idc	Vdc	IERange
	#	s	Hz	ohm	ohm	V	ohm	°	A	V	#
	0	2	1000078	944.3015	-9763.48	1	9809.04	-84.47567	-8.795228E-007	0.0297614	8
	1	4	794390.6	1039.835	-12031.69	1	12076.54	-85.06051	3.015524E-007	0.0290787	8
	2	5	630984.4	1820.118	-15265.28	1	15373.41	-83.20058	1.775951E-006	0.0288604	8
	3	7	501234.4	1434.068	-18675.87	1	18730.85	-85.60903	1.188313E-006	0.0284322	8
	4	9	398109.4	1922.79	-23503.09	1	23581.62	-85.32304	1.222248E-006	0.0285778	8
	5	10	316265.6	2255.444	-29806.21	1	29891.43	-85.67266	-2.798328E-008	0.0287302	8
	6	12	251203.1	2934.581	-35902.29	1	36022.02	-85.32715	-4.570288E-007	0.0289673	8
	7	14	199546.9	1497.822	-45772.79	1	45797.29	-88.12578	-5.571324E-007	0.0289949	8
	8	16	158578.1	3315.089	-55859.58	1	55957.86	-86.60366	8.498834E-008	0.0287123	8
	9	17	125953.1	4997.776	-69974.72	1	70152.97	-85.91473	-5.667067E-007	0.0296793	7
	10	19	100078.1	6951.947	-87813.55	1	88088.3	-85.4735	7.483559E-008	0.0286515	7
	11	21	79453.13	8879.699	-109715.4	1	110074.2	-85.37291	-1.302256E-008	0.0287064	7
	12	22	63140.62	10531.67	-136778.2	1	137183.1	-85.59702	4.95137E-008	0.0285924	7
	13	24	50203.12	14041.61	-169509.6	1	170090.2	-85.26462	-3.171729E-008	0.0287284	7
	14	26	39890.62	18471.77	-212744.9	1	213545.3	-85.03768	-4.048971E-008	0.0287578	7
	15	27	31640.63	22223.15	-265175.2	1	266104.8	-85.20949	-6.455357E-008	0.0287942	7
	16	29	25171.88	29557.28	-331557.9	1	332872.8	-84.90574	1.107309E-007	0.0286931	7
	17	30	20015.62	25918.78	-381074.6	1	381955	-86.10902	-7.127571E-009	0.0289212	7
	18	32	15890.62	56419.39	-514585.4	1	517669.1	-83.74306	-9.736205E-008	0.0289009	7
	19	33	12609.37	82113.11	-637078.9	1	642348.9	-82.65564	-9.980759E-009	0.0288468	6
	20	35	10078.13	88056.55	-781498.6	1	786443.9	-83.57123	6.869735E-009	0.0287997	6
	21	36	8015.625	140046.3	-938235.4	1	948629.9	-81.51039	-5.907406E-009	0.0285918	6
	22	38	6328.125	186943	-1213921	1	1228231	-81.24526	-1.365375E-009	0.02887	6
	23	40	5015.625	275317.5	-1501563	1	1526594	-79.60999	-1.603527E-008	0.0288182	6
	24	41	3984.375	415228.9	-1865547	1	1911199	-77.45179	-1.638017E-008	0.0288247	6
	25	43	3170.956	510762.5	-2290179	1	2346444	-77.42748	6.861304E-009	0.0287984	6
	26	45	2527.573	690730.8	-2855408	1	2937765	-76.40124	-1.01377E-008	0.0288504	6
	27	46	1976.103	941776.4	-3333543	1	3464022	-74.22421	-1.014557E-008	0.0288479	6
	28	48	1577.524	1060781	-3902463	1	4044067	-74.79309	2.64529E-008	0.0283487	6
	29	50	1265.625	1949498	-4755373	1	5139467	-67.70848	9.099219E-010	0.0287384	5
	30	52	998.264	2799590	-5844439	1	6480368	-64.40475	-4.63265E-010	0.0288585	5
	31	53	796.875	3847936	-6705256	1	7730917	-60.14983	6.786415E-010	0.0284775	5
	32	54	627.7902	5333263	-7531555	1	9228651	-54.69683	1.823744E-011	0.0285212	5
	33	56	505.5147	5901948	-8043417	1	9.97645E+006	-53.73022	-1.407125E-010	0.0286473	5
	34	57	397.9953	8370546	-8216532	1	1.172934E+007	-44.46801	3.334998E-010	0.028714	5
	35	59	315.5048	9.892425E+006	-8620775	1	1.312166E+007	-41.07059	-3.753098E-010	0.0287116	5
	36	60	252.4038	1.162803E+007	-8926699	1	1.465937E+007	-37.51301	-3.828487E-010	0.0287082	5
	37	62	198.6229	1.381626E+007	-7371032	1	1.565954E+007	-28.08011	1.308228E-010	0.0287142	5
	38	63	158.3615	1.567003E+007	-5576158	1	1.66326E+007	-19.58803	8.279922E-012	0.028709	5
	39	65	125.558	1.477872E+007	-6884376	1	1.630354E+007	-24.97753	-4.048851E-011	0.028709	4
	40	66	100.4464	1.7203E+007	-4325535	1	1.773847E+007	-14.11391	-2.982914E-011	0.0287098	4
	41	68	79.00281	1.431635E+007	-1.02904E+007	1	1.763095E+007	-35.70808	5.370866E-011	0.0287055	4
	42	69	63.3446	1467555	-7955920	1	8090141	-79.54866	-1.09196E-010	0.0287071	4
	43	71	49.86702	2.096338E+007	1213649	1	2.099849E+007	3.313369	-2.615773E-011	0.0287024	5
	44	73	39.72458	1.488287E+007	-3483307	1	1.528506E+007	-13.17286	-1.836911E-010	0.0287074	4
	45	74	31.6723	2.131926E+007	2405183	1	2.14545E+007	6.436745	-1.703647E-010	0.0287066	4
	46	76	24.93351	1.939619E+007	-3359538	1	1.968499E+007	-9.82648	-1.154822E-010	0.0287028	4
	47	78	19.86229	2.203108E+007	-1583821	1	2.208794E+007	-4.111938	5.634933E-011	0.0287116	4
	48	79	15.83615	7825616	-2.804875E+007	1	2.911997E+007	-74.41087	-8.471892E-010	0.0287079	4
	49	81	12.40079	1.332978E+007	3172791	1	1.370217E+007	13.38857	5.056922E-010	0.0286983	4
	50	82	9.93114	1.98158E+007	-2266420	1	1.994499E+007	-6.524817	-4.854393E-011	0.0287024	4
	51	84	7.944915	1.813054E+007	-5056679	1	1.88225E+007	-15.58399	1.523557E-010	0.028703	4
	52	86	6.317385	2.031556E+007	-1558106	1	2.037523E+007	-4.385724	-6.405813E-011	0.0287087	4
	53	89	5.008013	2.036338E+007	-1561283	1	2.042314E+007	-4.384353	-3.410112E-011	0.0287203	4
	54	92	3.945707	2.107941E+007	-2317477	1	2.120642E+007	-6.273919	-8.172098E-011	0.0287061	4
	55	95	3.158693	2.052784E+007	-1952847	1	2.062052E+007	-5.434285	-2.900696E-011	0.0287104	4
	56	98	2.504006	2.954434E+007	-1898853	1	2.96053E+007	-3.677415	-1.158982E-011	0.0286938	3
	57	102	1.998082	3.009674E+007	-2528714	1	3.020278E+007	-4.802685	-1.644295E-011	0.0286807	3
	58	107	1.584686	3.085153E+007	-2810709	1	3.09793E+007	-5.205524	-1.345502E-011	0.0287388	3
	59	112	1.266892	3.133903E+007	-3236537	1	3.150572E+007	-5.896316	-1.984332E-011	0.0286694	3
	60	117	0.999041	3.108693E+007	-3304993	1	3.126212E+007	-6.068579	-8.795649E-012	0.0287448	3
