EXPLAIN
TAG	EISPOT
TITLE	LABEL	Potentiostatic EIS	Test &Identifier
DATE	LABEL	10/28/2019	Date
TIME	LABEL	9:18:18	Time
NOTES	NOTES	1	&Notes...
	
PSTAT	PSTAT	REF600-11020	Potentiostat
VDC	POTEN	0.00000E+000	T	DC &Voltage (V)
FREQINIT	QUANT	1.00000E+006	Initial Fre&q. (Hz)
FREQFINAL	QUANT	1.00000E+000	Final Fre&q. (Hz)
PTSPERDEC	QUANT	1.00000E+001	Points/&decade
VAC	QUANT	2.50000E+001	AC &Voltage (mV rms)
AREA	QUANT	1.00000E-002	&Area (cm^2)
CONDIT	TWOPARAM	T	5.00000E+000	0.00000E+000	Conditionin&g	Time(s)	E(V)
DELAY	TWOPARAM	T	5.00000E+000	0.00000E+000	Init. De&lay	Time(s)	Stab.(mV/s)
SPEED	SELECTOR	1	&Optimize for:
ZGUESS	QUANT	1.00000E+005	E&stimated Z (ohms)
OCVCURVE	TABLE	19
	Pt	T	Vf	Vm	Ach	Over
	#	s	V vs. Ref.	V	V	bits
	0	0.258333	5.81620E-003	5.81620E-003	5.27666E-004	...........
	1	0.516667	5.81672E-003	5.84358E-003	5.25000E-004	...........
	2	0.775	5.81777E-003	5.75647E-003	5.22833E-004	...........
	3	1.03333	5.81216E-003	5.59884E-003	5.24166E-004	...........
	4	1.29167	5.78315E-003	5.50603E-003	5.27933E-004	...........
	5	1.55	5.71919E-003	5.40521E-003	5.28000E-004	...........
	6	1.80833	5.62780E-003	5.35292E-003	5.28800E-004	...........
	7	2.06667	5.52889E-003	5.29837E-003	5.28866E-004	...........
	8	2.325	5.43941E-003	5.25028E-003	5.28200E-004	...........
	9	2.58333	5.36592E-003	5.21027E-003	5.23766E-004	...........
	10	2.84167	5.30715E-003	5.19194E-003	5.30033E-004	...........
	11	3.1	5.26041E-003	5.17765E-003	5.22433E-004	...........
	12	3.35833	5.22492E-003	5.18114E-003	5.25233E-004	...........
	13	3.61667	5.20073E-003	5.17754E-003	5.28800E-004	...........
	14	3.875	5.18688E-003	5.18301E-003	5.19866E-004	...........
	15	4.13333	5.18085E-003	5.18075E-003	5.25366E-004	...........
	16	4.39167	5.17947E-003	5.18135E-003	5.22233E-004	...........
	17	4.65	5.17971E-003	5.16761E-003	5.24233E-004	...........
	18	4.90833	5.17810E-003	5.11604E-003	5.23300E-004	...........
EOC	QUANT	0.0051781	Open Circuit (V)
PSTATMODEL	IQUANT	4	Pstat Model
PSTATSECTION	LABEL	REF600-11020	Pstat Section
PSTATSERIALNO	LABEL	11020	Pstat Serial Number
CTRLMODE	IQUANT	1	Control Mode
IESTAB	IQUANT	0	I/E Stability
CASPEED	IQUANT	1	Control Amp Speed
CONVENTION	IQUANT	1	Current Convention
ICHRANGE	IQUANT	2	Ich Range
ICHRANGEMODE	TOGGLE	F	Ich Auto Range
ICHOFFSETENABLE	TOGGLE	T	Ich Offset Enable
ICHOFFSET	QUANT	0	Ich Offset (V)
ICHFILTER	IQUANT	3	Ich Filter
VCHRANGE	IQUANT	2	Vch Range
VCHRANGEMODE	TOGGLE	F	Vch Auto Range
VCHOFFSETENABLE	TOGGLE	T	Vch Offset Enable
VCHOFFSET	QUANT	0	Vch Offset (V)
VCHFILTER	IQUANT	3	Vch Filter
ACHRANGE	IQUANT	2	Ach Range
ACHOFFSETENABLE	TOGGLE	F	Ach Offset Enable
ACHOFFSET	QUANT	0	Ach Offset (V)
ACHFILTER	IQUANT	3	Ach Filter
IERANGELOWERLIMIT	IQUANT	1	I/E Range Lower Limit
IERANGEMODE	TOGGLE	F	I/E AutoRange
IERANGE	IQUANT	4	I/E Range
POSFEEDENABLE	TOGGLE	F	Positive Feedback IR Comp
POSFEEDRESISTANCE	QUANT	0	Positive Feedback Resistance (ohm)
ACHSELECT	IQUANT	0	Ach Select
CABLEID	IQUANT	14	Cable ID
DCCALDATE	LABEL	8/19/2019	DC Calibration Date
ACCALDATE	LABEL	8/19/2019	AC Calibration Date
THERMOSELECT	IQUANT	1	Thermo Select
FRAMEWORKVERSION	QUANT	6.33	Framework Version
INSTRUMENTVERSION	LABEL	3.50	Instrument Version
ZCURVE	TABLE
	Pt	Time	Freq	Zreal	Zimag	Zsig	Zmod	Zphz	Idc	Vdc	IERange
	#	s	Hz	ohm	ohm	V	ohm	°	A	V	#
	0	2	1000078	2436.089	-1338.28	1	2779.483	-28.78246	3.539684E-006	0.0073972	8
	1	4	794390.6	2673.14	-1229.097	1	2942.169	-24.69274	-8.520061E-006	0.0088294	8
	2	5	630984.4	2868.362	-1073.88	1	3062.796	-20.52528	-6.050375E-007	0.0072826	8
	3	7	501234.4	3036.669	-960.879	1	3185.066	-17.55869	1.454324E-006	0.0066069	8
	4	8	398109.4	3155.273	-822.5024	1	3260.714	-14.61047	-1.893878E-007	0.0067706	8
	5	9	316265.6	3236.319	-716.7665	1	3314.742	-12.48805	3.310252E-006	0.00611	8
	6	11	251203.1	3310.736	-606.9481	1	3365.911	-10.38852	-1.140372E-006	0.0070305	8
	7	12	199546.9	3360.339	-520.6066	1	3400.428	-8.806639	8.994659E-007	0.006588	8
	8	14	158578.1	3433.569	-414.7381	1	3458.526	-6.887346	-1.083591E-006	0.0070381	8
	9	15	125953.1	3458.391	-345.0004	1	3475.557	-5.696836	-4.953189E-007	0.0078136	7
	10	16	100078.1	3483.203	-306.6495	1	3496.676	-5.031156	-6.693492E-008	0.0068503	7
	11	18	79453.13	3502.308	-295.4648	1	3514.749	-4.822218	9.547784E-008	0.0067006	7
	12	19	63140.62	3526.76	-287.7764	1	3538.482	-4.664883	-6.306409E-008	0.0068715	7
	13	20	50203.12	3551.59	-287.0186	1	3563.169	-4.620267	-5.63647E-008	0.006834	7
	14	22	39890.62	3577.221	-292.5171	1	3589.161	-4.674799	-6.673177E-008	0.0068762	7
	15	23	31640.63	3601.27	-304.1186	1	3614.088	-4.827038	-5.191879E-008	0.0068252	7
	16	25	25171.88	3628.962	-323.2201	1	3643.328	-5.089722	-3.212392E-008	0.0068255	7
	17	26	20015.62	3658.138	-348.3677	1	3674.688	-5.439923	-4.01516E-008	0.0067706	7
	18	27	15890.62	3688.843	-384.685	1	3708.847	-5.953478	-3.429294E-008	0.0068272	7
	19	29	12609.37	3718.628	-431.333	1	3743.56	-6.616314	-2.590217E-009	0.006806	7
	20	30	10078.13	3753.406	-482.6806	1	3784.314	-7.327906	-3.719335E-008	0.0068562	7
	21	31	8015.625	3786.851	-553.5834	1	3827.1	-8.316913	-6.325475E-008	0.0068633	7
	22	33	6328.125	3822.965	-642.9821	1	3876.659	-9.54719	-3.45227E-008	0.0068278	7
	23	34	5015.625	3862.163	-754.7394	1	3935.217	-11.05733	8.639379E-008	0.0065838	7
	24	35	3984.375	3904.946	-894.3912	1	4006.063	-12.90055	7.639554E-008	0.006632	7
	25	37	3170.956	3953.282	-1059.107	1	4092.694	-14.99767	7.408898E-008	0.0066406	7
	26	38	2527.573	4007.865	-1265.287	1	4202.849	-17.52095	-2.698884E-008	0.0068146	7
	27	40	1976.103	4076.64	-1539.792	1	4357.746	-20.6921	-4.092043E-008	0.0068554	7
	28	41	1577.524	4147.782	-1845.681	1	4539.894	-23.98812	4.683684E-008	0.006698	7
	29	42	1265.625	4231.12	-2229.762	1	4782.7	-27.78882	-6.367354E-008	0.0068656	7
	30	44	998.264	4334.759	-2726.029	1	5120.681	-32.16483	-5.615601E-008	0.0069525	7
	31	45	796.875	4452.285	-3301.711	1	5542.936	-36.55978	7.635492E-008	0.0066323	7
	32	46	627.7902	4601.075	-4056.263	1	6133.772	-41.39909	-5.688354E-008	0.0068168	7
	33	48	505.5147	4756.732	-4890.226	1	6822.082	-45.7928	4.242246E-008	0.0066026	7
	34	49	397.9953	4967.248	-6034.261	1	7815.744	-50.53967	6.10278E-009	0.0067814	7
	35	50	315.5048	5218.882	-7408.82	1	9062.414	-54.83857	5.739625E-009	0.0067811	7
	36	52	252.4038	5523.19	-9030.457	1	10585.59	-58.54929	1.043562E-009	0.0067165	6
	37	53	198.6229	5928.623	-11181.59	1	12656.08	-62.06688	1.204164E-009	0.0067177	6
	38	55	158.3615	6421.284	-13687.98	1	15119.31	-64.86786	1.272837E-009	0.0067153	6
	39	56	125.558	7077.669	-16851.24	1	18277.25	-67.21716	6.611438E-010	0.0067167	6
	40	57	100.4464	7918.306	-20531.64	1	22005.63	-68.91019	8.592523E-012	0.0067158	6
	41	59	79.00281	9102.029	-25494.27	1	27070.36	-70.35229	-1.626939E-010	0.0067161	6
	42	60	63.3446	10793.12	-31135.53	1	32953.18	-70.88114	1.225859E-009	0.0067123	6
	43	62	49.86702	12325.1	-38059.35	1	40005.28	-72.05603	7.138385E-010	0.0067077	6
	44	63	39.72458	15141.67	-46274.66	1	48688.95	-71.88123	9.191418E-010	0.0067171	6
	45	64	31.6723	18733.25	-55859.54	1	58917.08	-71.46043	1.411196E-009	0.0067101	6
	46	66	24.93351	23357.39	-68191.6	1	72080.95	-71.09234	2.844995E-010	0.0067064	6
	47	67	19.86229	29121.13	-81845.77	1	86872.15	-70.41419	-5.32311E-011	0.0067108	6
	48	68	15.83615	35738.52	-98187.7	1	104489.5	-69.99941	2.6459E-009	0.0067125	6
	49	70	12.40079	48052.7	-117075.4	1	126553.2	-67.68468	-1.383601E-009	0.0067235	5
	50	71	9.93114	58402.87	-138230	1	150061.4	-67.0957	4.079878E-010	0.0067212	5
	51	73	7.944915	71884.29	-161764.8	1	177017.5	-66.04082	-4.415229E-011	0.006717	5
	52	75	6.317385	89190.25	-188919.7	1	208915.2	-64.72769	-1.484313E-010	0.0067196	5
	53	77	5.008013	109817.4	-220242.5	1	246102.8	-63.49822	-5.420395E-011	0.0067123	5
	54	79	3.945707	134105.1	-256951.3	1	289841.6	-62.43956	2.966641E-010	0.0067196	5
	55	82	3.158693	160327	-295987.4	1	336620.3	-61.557	-8.081888E-011	0.0067039	5
	56	85	2.504006	191724.2	-342185.8	1	392236.3	-60.73841	2.687656E-010	0.0067251	5
	57	88	1.998082	226100	-393293.3	1	453652.8	-60.10588	3.476026E-010	0.0067071	5
	58	91	1.584686	268814.8	-454409.6	1	527967.3	-59.39274	1.862769E-011	0.0066608	5
	59	95	1.266892	311386.8	-520841	1	606825.4	-59.12674	2.344968E-010	0.0066968	5
	60	99	0.999041	365590.8	-604655.1	1	706586.5	-58.84171	-1.823791E-010	0.006721	5
