EXPLAIN
TAG	EISPOT
TITLE	LABEL	Potentiostatic EIS	Test &Identifier
DATE	LABEL	10/22/2019	Date
TIME	LABEL	8:30:50	Time
NOTES	NOTES	1	&Notes...
	
PSTAT	PSTAT	REF600-11020	Potentiostat
VDC	POTEN	0.00000E+000	T	DC &Voltage (V)
FREQINIT	QUANT	1.00000E+006	Initial Fre&q. (Hz)
FREQFINAL	QUANT	1.00000E+000	Final Fre&q. (Hz)
PTSPERDEC	QUANT	1.00000E+001	Points/&decade
VAC	QUANT	2.50000E+001	AC &Voltage (mV rms)
AREA	QUANT	1.00000E-002	&Area (cm^2)
CONDIT	TWOPARAM	T	5.00000E+000	0.00000E+000	Conditionin&g	Time(s)	E(V)
DELAY	TWOPARAM	T	5.00000E+000	0.00000E+000	Init. De&lay	Time(s)	Stab.(mV/s)
SPEED	SELECTOR	1	&Optimize for:
ZGUESS	QUANT	1.00000E+005	E&stimated Z (ohms)
OCVCURVE	TABLE	19
	Pt	T	Vf	Vm	Ach	Over
	#	s	V vs. Ref.	V	V	bits
	0	0.258333	7.61300E-003	7.61300E-003	5.55333E-004	...........
	1	0.516667	7.61534E-003	7.73571E-003	5.53966E-004	...........
	2	0.775	7.62991E-003	7.86089E-003	5.59732E-004	...........
	3	1.03333	7.67171E-003	7.98311E-003	5.62966E-004	...........
	4	1.29167	7.74801E-003	8.11326E-003	5.66899E-004	...........
	5	1.55	7.85256E-003	8.24310E-003	5.57732E-004	...........
	6	1.80833	7.97326E-003	8.35964E-003	5.58666E-004	...........
	7	2.06667	8.10063E-003	8.52021E-003	5.67266E-004	...........
	8	2.325	8.23053E-003	8.62475E-003	5.60866E-004	...........
	9	2.58333	8.36138E-003	8.74469E-003	5.69166E-004	...........
	10	2.84167	8.49046E-003	8.86758E-003	5.58332E-004	...........
	11	3.1	8.61525E-003	8.96979E-003	5.65932E-004	...........
	12	3.35833	8.73543E-003	9.09069E-003	5.55533E-004	...........
	13	3.61667	8.85196E-003	9.20179E-003	5.56866E-004	...........
	14	3.875	8.96625E-003	9.30972E-003	5.52066E-004	...........
	15	4.13333	9.07902E-003	9.40914E-003	5.63366E-004	...........
	16	4.39167	9.18965E-003	9.51609E-003	5.58199E-004	...........
	17	4.65	9.29750E-003	9.61995E-003	5.52566E-004	...........
	18	4.90833	9.40314E-003	9.72402E-003	5.61699E-004	...........
EOC	QUANT	0.0094031	Open Circuit (V)
PSTATMODEL	IQUANT	4	Pstat Model
PSTATSECTION	LABEL	REF600-11020	Pstat Section
PSTATSERIALNO	LABEL	11020	Pstat Serial Number
CTRLMODE	IQUANT	1	Control Mode
IESTAB	IQUANT	0	I/E Stability
CASPEED	IQUANT	1	Control Amp Speed
CONVENTION	IQUANT	1	Current Convention
ICHRANGE	IQUANT	2	Ich Range
ICHRANGEMODE	TOGGLE	F	Ich Auto Range
ICHOFFSETENABLE	TOGGLE	T	Ich Offset Enable
ICHOFFSET	QUANT	0	Ich Offset (V)
ICHFILTER	IQUANT	3	Ich Filter
VCHRANGE	IQUANT	2	Vch Range
VCHRANGEMODE	TOGGLE	F	Vch Auto Range
VCHOFFSETENABLE	TOGGLE	T	Vch Offset Enable
VCHOFFSET	QUANT	0	Vch Offset (V)
VCHFILTER	IQUANT	3	Vch Filter
ACHRANGE	IQUANT	2	Ach Range
ACHOFFSETENABLE	TOGGLE	F	Ach Offset Enable
ACHOFFSET	QUANT	0	Ach Offset (V)
ACHFILTER	IQUANT	3	Ach Filter
IERANGELOWERLIMIT	IQUANT	1	I/E Range Lower Limit
IERANGEMODE	TOGGLE	F	I/E AutoRange
IERANGE	IQUANT	5	I/E Range
POSFEEDENABLE	TOGGLE	F	Positive Feedback IR Comp
POSFEEDRESISTANCE	QUANT	0	Positive Feedback Resistance (ohm)
ACHSELECT	IQUANT	0	Ach Select
CABLEID	IQUANT	14	Cable ID
DCCALDATE	LABEL	8/19/2019	DC Calibration Date
ACCALDATE	LABEL	8/19/2019	AC Calibration Date
THERMOSELECT	IQUANT	1	Thermo Select
FRAMEWORKVERSION	QUANT	6.33	Framework Version
INSTRUMENTVERSION	LABEL	3.50	Instrument Version
ZCURVE	TABLE
	Pt	Time	Freq	Zreal	Zimag	Zsig	Zmod	Zphz	Idc	Vdc	IERange
	#	s	Hz	ohm	ohm	V	ohm	°	A	V	#
	0	1	1000078	2681.236	-1350.897	1	3002.324	-26.74051	2.301754E-006	0.0118113	8
	1	3	794390.6	2909.541	-1214.86	1	3152.985	-22.66267	-8.691845E-007	0.0114986	8
	2	4	630984.4	3100.475	-1071.639	1	3280.451	-19.06704	-3.150638E-006	0.011737	8
	3	5	501234.4	3237.584	-932.3876	1	3369.169	-16.0658	-1.838796E-006	0.0116149	8
	4	7	398109.4	3348.846	-814.4647	1	3446.465	-13.66938	1.358151E-006	0.0108578	8
	5	8	316265.6	3436.243	-689.6778	1	3504.771	-11.34887	2.205436E-006	0.0105828	8
	6	9	251203.1	3487.774	-580.7653	1	3535.797	-9.453843	1.360263E-006	0.0109204	8
	7	11	199546.9	3531.158	-511.9672	1	3568.079	-8.249581	-7.90411E-008	0.0111592	8
	8	12	158578.1	3568.111	-458.0464	1	3597.391	-7.315181	2.228877E-006	0.0105942	8
	9	13	125953.1	3631.915	-365.5475	1	3650.265	-5.747389	5.642523E-007	0.0092971	7
	10	15	100078.1	3650.019	-339.4002	1	3665.765	-5.312422	-3.382101E-008	0.0110541	7
	11	16	79453.13	3675.748	-328.9055	1	3690.434	-5.113202	3.669795E-008	0.0109963	7
	12	18	63140.62	3704.053	-326.4468	1	3718.41	-5.036597	-6.306356E-009	0.0110706	7
	13	19	50203.12	3733.911	-330.8237	1	3748.537	-5.063174	1.295091E-007	0.0108312	7
	14	20	39890.62	3765.036	-340.8803	1	3780.436	-5.173363	1.059127E-008	0.010958	7
	15	22	31640.63	3797.666	-362.2084	1	3814.899	-5.448196	-1.162113E-008	0.010997	7
	16	23	25171.88	3832.75	-387.9539	1	3852.334	-5.779837	-1.248062E-008	0.0109952	7
	17	24	20015.62	3868.78	-436.697	1	3893.348	-6.440127	-1.880961E-008	0.011086	7
	18	26	15890.62	3912.962	-464.1745	1	3940.397	-6.765088	3.763402E-008	0.0109859	7
	19	27	12609.37	3957.39	-515.73	1	3990.854	-7.424983	8.495765E-008	0.010978	7
	20	28	10078.13	4006.095	-576.2794	1	4047.332	-8.185881	-5.549115E-008	0.0111993	7
	21	30	8015.625	4061.062	-650.3698	1	4112.81	-9.098528	-1.433243E-008	0.0110029	7
	22	31	6328.125	4118.017	-742.1367	1	4184.355	-10.21602	-4.524131E-008	0.0110568	7
	23	33	5015.625	4177.447	-851.9695	1	4263.439	-11.52711	1.101633E-008	0.0109577	7
	24	34	3984.375	4242.691	-978.255	1	4354.011	-12.984	-6.726707E-009	0.0110688	7
	25	35	3170.956	4311.039	-1143.587	1	4460.14	-14.85666	-3.796536E-008	0.011045	7
	26	37	2527.573	4384.794	-1336.843	1	4584.056	-16.9555	-7.157617E-008	0.0111463	7
	27	38	1976.103	4471.844	-1595.652	1	4747.999	-19.63752	-1.991131E-008	0.0110006	7
	28	39	1577.524	4593.239	-1895.133	1	4968.84	-22.42065	1.099602E-008	0.0109591	7
	29	41	1265.625	4653.42	-2238.633	1	5163.894	-25.69094	-1.87846E-008	0.011083	7
	30	42	998.264	4769.261	-2706.147	1	5483.528	-29.5712	-4.015729E-008	0.0111077	7
	31	43	796.875	4889.999	-3251.192	1	5872.167	-33.61857	1.315156E-007	0.0108365	7
	32	45	627.7902	5040.764	-3969.732	1	6416.235	-38.22135	1.296019E-007	0.0108344	7
	33	46	505.5147	5203.082	-4773.281	1	7060.897	-42.53311	3.916342E-008	0.0109003	7
	34	48	397.9953	5423.388	-5869.594	1	7991.575	-47.26268	4.880399E-009	0.0110521	7
	35	49	315.5048	5688.147	-7189.689	1	9167.695	-51.6506	4.955299E-009	0.0110508	7
	36	50	252.4038	6011.554	-8749.274	1	10615.49	-55.50737	1.33879E-010	0.0109872	6
	37	52	198.6229	6453.703	-10809.7	1	12589.67	-59.16157	6.538857E-010	0.01099	6
	38	53	158.3615	6996.984	-13208.5	1	14947.32	-62.08833	1.032174E-009	0.0109862	6
	39	54	125.558	7732.996	-16213.99	1	17963.65	-64.50196	7.908459E-010	0.0109879	6
	40	56	100.4464	8679.015	-19735.64	1	21559.7	-66.26186	6.68277E-010	0.0109862	6
	41	57	79.00281	10030.23	-24335.73	1	26321.72	-67.60048	-4.757548E-010	0.0109861	6
	42	59	63.3446	11623.55	-29626.22	1	31824.83	-68.57794	1.10147E-009	0.0109817	6
	43	60	49.86702	13926.45	-35819.69	1	38431.71	-68.75426	8.705E-010	0.0109878	6
	44	61	39.72458	17006.88	-43377.39	1	46592.18	-68.59145	8.247927E-010	0.0109857	6
	45	63	31.6723	20963.97	-51999.03	1	56065.92	-68.04264	6.354263E-010	0.0109867	6
	46	64	24.93351	26313.46	-62688.21	1	67986.84	-67.22971	4.1857E-010	0.0109866	6
	47	66	19.86229	32850.34	-74276.19	1	81216.36	-66.14149	-2.224713E-010	0.0109846	6
	48	67	15.83615	41050.42	-87609.8	1	96750.3	-64.8941	1.767391E-009	0.0109882	6
	49	68	12.40079	51868.4	-102141.5	1	114556.6	-63.07813	-9.384257E-010	0.0109939	5
	50	70	9.93114	63907.04	-118384.7	1	134532.7	-61.63871	-3.828869E-010	0.0109905	5
	51	71	7.944915	77685.86	-135679.1	1	156345.5	-60.20581	4.695958E-010	0.0109961	5
	52	73	6.317385	93718.26	-154452.7	1	180662	-58.75161	-4.097474E-010	0.0110013	5
	53	75	5.008013	112019.6	-175584	1	208274.2	-57.46282	-1.083533E-010	0.0109827	5
	54	78	3.945707	132263.7	-199549.5	1	239402.8	-56.46313	3.07506E-010	0.0109914	5
	55	80	3.158693	152684	-225286	1	272151	-55.87318	-3.056158E-010	0.0109788	5
	56	84	2.504006	175045.7	-256082.6	1	310192.3	-55.64538	3.855058E-010	0.0109857	5
	57	86	1.998082	198006.4	-291072.9	1	352036.9	-55.77396	4.093526E-011	0.011021	5
	58	89	1.584686	222177.5	-334424.5	1	401500.4	-56.40162	-8.731293E-013	0.0109634	5
	59	93	1.266892	248815.6	-386798.1	1	459915.2	-57.24804	2.735892E-012	0.0110159	5
	60	97	0.999041	280679	-453366.6	1	533218.5	-58.23838	-2.386004E-010	0.0109418	5
