EXPLAIN
TAG	EISPOT
TITLE	LABEL	Potentiostatic IDE	Test &Identifier
DATE	LABEL	9/16/2019	Date
TIME	LABEL	9:07:02	Time
NOTES	NOTES	1	&Notes...
	
PSTAT	PSTAT	REF600-11020	Potentiostat
VDC	POTEN	0.00000E+000	T	DC &Voltage (V)
FREQINIT	QUANT	1.00000E+006	Initial Fre&q. (Hz)
FREQFINAL	QUANT	1.00000E+000	Final Fre&q. (Hz)
PTSPERDEC	QUANT	1.00000E+001	Points/&decade
VAC	QUANT	2.50000E+001	AC &Voltage (mV rms)
AREA	QUANT	1.00000E-002	&Area (cm^2)
CONDIT	TWOPARAM	T	5.00000E+000	0.00000E+000	Conditionin&g	Time(s)	E(V)
DELAY	TWOPARAM	T	5.00000E+000	0.00000E+000	Init. De&lay	Time(s)	Stab.(mV/s)
SPEED	SELECTOR	1	&Optimize for:
ZGUESS	QUANT	1.00000E+007	E&stimated Z (ohms)
OCVCURVE	TABLE	19
	Pt	T	Vf	Vm	Ach	Over
	#	s	V vs. Ref.	V	V	bits
	0	0.258333	1.61698E-002	1.61698E-002	5.69199E-004	...........
	1	0.516667	1.61825E-002	1.68331E-002	5.73699E-004	...........
	2	0.775	1.62581E-002	1.73459E-002	5.71032E-004	...........
	3	1.03333	1.64644E-002	1.78261E-002	5.73399E-004	...........
	4	1.29167	1.68165E-002	1.81997E-002	5.68132E-004	...........
	5	1.55	1.72585E-002	1.86385E-002	5.73032E-004	...........
	6	1.80833	1.77198E-002	1.89777E-002	5.74132E-004	...........
	7	2.06667	1.81602E-002	1.93594E-002	5.74799E-004	...........
	8	2.325	1.85678E-002	1.96015E-002	5.75232E-004	...........
	9	2.58333	1.89398E-002	1.98578E-002	5.74565E-004	...........
	10	2.84167	1.92741E-002	2.01893E-002	5.77032E-004	...........
	11	3.1	1.95776E-002	2.04376E-002	5.69999E-004	...........
	12	3.35833	1.98655E-002	2.07639E-002	5.71099E-004	...........
	13	3.61667	2.01541E-002	2.12353E-002	5.63899E-004	...........
	14	3.875	2.04630E-002	2.16337E-002	5.69899E-004	...........
	15	4.13333	2.08076E-002	2.19656E-002	5.74899E-004	...........
	16	4.39167	2.11780E-002	2.21328E-002	5.73732E-004	...........
	17	4.65	2.15398E-002	2.24753E-002	5.70966E-004	...........
	18	4.90833	2.18657E-002	2.26807E-002	5.71432E-004	...........
EOC	QUANT	0.0218657	Open Circuit (V)
PSTATMODEL	IQUANT	4	Pstat Model
PSTATSECTION	LABEL	REF600-11020	Pstat Section
PSTATSERIALNO	LABEL	11020	Pstat Serial Number
CTRLMODE	IQUANT	1	Control Mode
IESTAB	IQUANT	0	I/E Stability
CASPEED	IQUANT	1	Control Amp Speed
CONVENTION	IQUANT	1	Current Convention
ICHRANGE	IQUANT	2	Ich Range
ICHRANGEMODE	TOGGLE	F	Ich Auto Range
ICHOFFSETENABLE	TOGGLE	T	Ich Offset Enable
ICHOFFSET	QUANT	0	Ich Offset (V)
ICHFILTER	IQUANT	3	Ich Filter
VCHRANGE	IQUANT	2	Vch Range
VCHRANGEMODE	TOGGLE	F	Vch Auto Range
VCHOFFSETENABLE	TOGGLE	T	Vch Offset Enable
VCHOFFSET	QUANT	0	Vch Offset (V)
VCHFILTER	IQUANT	3	Vch Filter
ACHRANGE	IQUANT	2	Ach Range
ACHOFFSETENABLE	TOGGLE	F	Ach Offset Enable
ACHOFFSET	QUANT	0	Ach Offset (V)
ACHFILTER	IQUANT	3	Ach Filter
IERANGELOWERLIMIT	IQUANT	1	I/E Range Lower Limit
IERANGEMODE	TOGGLE	F	I/E AutoRange
IERANGE	IQUANT	3	I/E Range
POSFEEDENABLE	TOGGLE	F	Positive Feedback IR Comp
POSFEEDRESISTANCE	QUANT	0	Positive Feedback Resistance (ohm)
ACHSELECT	IQUANT	0	Ach Select
CABLEID	IQUANT	14	Cable ID
DCCALDATE	LABEL	8/19/2019	DC Calibration Date
ACCALDATE	LABEL	8/19/2019	AC Calibration Date
THERMOSELECT	IQUANT	1	Thermo Select
FRAMEWORKVERSION	QUANT	6.33	Framework Version
INSTRUMENTVERSION	LABEL	3.50	Instrument Version
ZCURVE	TABLE
	Pt	Time	Freq	Zreal	Zimag	Zsig	Zmod	Zphz	Idc	Vdc	IERange
	#	s	Hz	ohm	ohm	V	ohm	°	A	V	#
	0	2	1000078	2564.597	-1994.195	1	3248.688	-37.86814	2.928857E-007	0.0245231	8
	1	3	794390.6	2965.068	-1952.185	1	3550.021	-33.36069	-1.899181E-007	0.0235752	8
	2	4	630984.4	3353.198	-1840.986	1	3825.332	-28.76783	-3.238167E-006	0.0240983	8
	3	6	501234.4	3677.046	-1666.252	1	4036.962	-24.37764	3.945861E-006	0.0227033	8
	4	7	398109.4	3946.998	-1498.068	1	4221.729	-20.78406	-5.783977E-007	0.0236952	8
	5	9	316265.6	4144.348	-1289.913	1	4340.449	-17.28856	-5.984244E-008	0.0234226	8
	6	10	251203.1	4323.489	-1132.251	1	4469.29	-14.67526	-3.483255E-006	0.0241274	8
	7	12	199546.9	4425.084	-959.041	1	4527.817	-12.22849	5.76627E-006	0.0223452	8
	8	13	158578.1	4530.66	-878.7239	1	4615.087	-10.97627	1.95216E-006	0.0227877	8
	9	15	125953.1	4626.958	-706.7078	1	4680.618	-8.684072	-8.796906E-007	0.0260931	7
	10	16	100078.1	4676.017	-619.5893	1	4716.887	-7.547932	9.780318E-008	0.0231683	7
	11	17	79453.13	4724.477	-567.9404	1	4758.491	-6.854767	-2.162093E-008	0.0235233	7
	12	19	63140.62	4770.846	-532.7117	1	4800.495	-6.371243	-2.199129E-008	0.0233378	7
	13	20	50203.12	4809.542	-511.5987	1	4836.676	-6.071811	9.838762E-008	0.023155	7
	14	21	39890.62	4851.458	-493.5092	1	4876.495	-5.80837	-4.204401E-008	0.0234008	7
	15	23	31640.63	4895.14	-509.3554	1	4921.568	-5.940437	1.526935E-007	0.0231251	7
	16	24	25171.88	4936.571	-529.2273	1	4964.858	-6.119049	-1.245562E-008	0.0233994	7
	17	25	20015.62	4982.058	-560.8424	1	5013.526	-6.422885	-5.752736E-008	0.0234791	7
	18	27	15890.62	5026.503	-611.5433	1	5063.568	-6.936728	-1.044753E-008	0.0233823	7
	19	28	12609.37	5080.238	-666.8985	1	5123.824	-7.47863	-1.983163E-008	0.0235187	7
	20	29	10078.13	5135.001	-741.4999	1	5188.262	-8.216777	4.400832E-008	0.0233165	7
	21	31	8015.625	5194.603	-838.6308	1	5261.863	-9.170856	-1.99582E-008	0.0235198	7
	22	32	6328.125	5258.575	-959.753	1	5345.441	-10.34333	9.19883E-008	0.0233127	7
	23	33	5015.625	5335.125	-1105.385	1	5448.434	-11.7055	-3.96015E-008	0.0233951	7
	24	34	3984.375	5412.188	-1286.868	1	5563.075	-13.37498	-7.058015E-009	0.0233841	7
	25	36	3170.956	5497.864	-1506.971	1	5700.655	-15.32836	-4.282694E-008	0.0233838	7
	26	37	2527.573	5591.705	-1771.412	1	5865.583	-17.57783	7.989603E-008	0.0231998	7
	27	38	1976.103	5711.537	-2123.395	1	6093.477	-20.39377	4.829795E-008	0.0231953	7
	28	40	1577.524	5832.235	-2517.419	1	6352.352	-23.3469	4.649694E-008	0.0231932	7
	29	41	1265.625	5967.455	-2989.647	1	6674.467	-26.61051	-5.512629E-008	0.0234669	7
	30	42	998.264	6132.407	-3606.089	1	7114.091	-30.45715	4.80759E-008	0.0231944	7
	31	44	796.875	6318.483	-4327.653	1	7658.447	-34.40801	-8.132237E-008	0.0234827	7
	32	45	627.7902	6539.073	-5257.397	1	8390.453	-38.79919	9.339112E-008	0.0233066	7
	33	46	505.5147	6774.689	-6291.235	1	9245.325	-42.88096	-4.255755E-008	0.0233813	7
	34	48	397.9953	7085.397	-7684.022	1	10452.13	-47.32101	7.97906E-010	0.0233155	6
	35	49	315.5048	7432.776	-9356.974	1	11949.86	-51.53789	1.213517E-009	0.0233114	6
	36	50	252.4038	7825.361	-11332.46	1	13771.74	-55.37389	1.666168E-009	0.0233051	6
	37	52	198.6229	8330.636	-13947.26	1	16245.79	-59.15032	1.237392E-009	0.0233041	6
	38	53	158.3615	8917.642	-17002.25	1	19198.98	-62.3231	2.66448E-010	0.02331	6
	39	54	125.558	9658.69	-20867.2	1	22994.13	-65.16225	9.72284E-010	0.0233049	6
	40	56	100.4464	10530.33	-25447.61	1	27540.31	-67.52002	1.565455E-009	0.0233009	6
	41	57	79.00281	11865.24	-31507.92	1	33667.98	-69.36465	1.267165E-009	0.0233035	6
	42	58	63.3446	12867.32	-38122.34	1	40235.32	-71.34907	1.313469E-010	0.0233013	6
	43	60	49.86702	15400.56	-47727.59	1	50150.78	-72.11635	1.584657E-009	0.0233017	6
	44	61	39.72458	18123.58	-57794.58	1	60569.61	-72.58929	8.380749E-010	0.0233076	6
	45	63	31.6723	21752.29	-70353.95	1	73639.94	-72.81925	1.504646E-009	0.023306	6
	46	64	24.93351	26409.66	-86737.28	1	90668.77	-73.06562	6.379193E-010	0.0233044	6
	47	65	19.86229	32472	-105123.8	1	110024.7	-72.83444	2.844846E-010	0.0233029	5
	48	67	15.83615	40802.84	-126722	1	133129.1	-72.15212	-7.78741E-011	0.0233133	5
	49	68	12.40079	51599	-155189.6	1	163542.8	-71.60854	7.768674E-010	0.0233079	5
	50	70	9.93114	65046.7	-185442	1	196519.2	-70.67088	4.918314E-010	0.0233142	5
	51	71	7.944915	83377.07	-220276.1	1	235527.7	-69.26777	3.531447E-010	0.023307	5
	52	73	6.317385	104818.7	-261641.3	1	281856.6	-68.16798	3.12584E-010	0.0233011	5
	53	75	5.008013	132982.3	-310043.5	1	337359.3	-66.78478	-4.411063E-011	0.0233054	5
	54	77	3.945707	169171.1	-366333.2	1	403508.2	-65.21272	1.698946E-011	0.0233066	5
	55	80	3.158693	210043.1	-424298.7	1	473442.2	-63.66294	2.889069E-010	0.0233287	5
	56	84	2.504006	262696.4	-493145.5	1	558750.3	-61.95597	8.883904E-011	0.0233278	5
	57	87	1.998082	321950.2	-565637.2	1	650843.6	-60.35227	4.18689E-010	0.0233176	5
	58	90	1.584686	396558	-647684	1	759442.4	-58.52208	3.014382E-011	0.0232648	5
	59	94	1.266892	477531.2	-729951.8	1	872276.1	-56.80747	3.052189E-010	0.0232857	5
	60	98	0.999041	576511.6	-828571.1	1	1009404	-55.17019	-1.640235E-010	0.0233215	5
