EXPLAIN
TAG	EISPOT
TITLE	LABEL	Potentiostatic EIS	Test &Identifier
DATE	LABEL	10/24/2019	Date
TIME	LABEL	9:20:03	Time
NOTES	NOTES	1	&Notes...
	
PSTAT	PSTAT	REF600-11020	Potentiostat
VDC	POTEN	0.00000E+000	T	DC &Voltage (V)
FREQINIT	QUANT	1.00000E+006	Initial Fre&q. (Hz)
FREQFINAL	QUANT	1.00000E+000	Final Fre&q. (Hz)
PTSPERDEC	QUANT	1.00000E+001	Points/&decade
VAC	QUANT	2.50000E+001	AC &Voltage (mV rms)
AREA	QUANT	1.00000E-002	&Area (cm^2)
CONDIT	TWOPARAM	T	5.00000E+000	0.00000E+000	Conditionin&g	Time(s)	E(V)
DELAY	TWOPARAM	T	5.00000E+000	0.00000E+000	Init. De&lay	Time(s)	Stab.(mV/s)
SPEED	SELECTOR	1	&Optimize for:
ZGUESS	QUANT	1.00000E+005	E&stimated Z (ohms)
OCVCURVE	TABLE	19
	Pt	T	Vf	Vm	Ach	Over
	#	s	V vs. Ref.	V	V	bits
	0	0.258333	4.60989E-003	4.60989E-003	5.52666E-004	...........
	1	0.516667	4.61179E-003	4.70964E-003	5.56999E-004	...........
	2	0.775	4.61730E-003	4.48014E-003	5.44366E-004	...........
	3	1.03333	4.61624E-003	4.46487E-003	5.50733E-004	...........
	4	1.29167	4.59052E-003	4.39538E-003	5.49733E-004	...........
	5	1.55	4.53575E-003	4.23650E-003	5.51832E-004	...........
	6	1.80833	4.45672E-003	3.99739E-003	5.51999E-004	...........
	7	2.06667	4.34665E-003	3.73614E-003	5.53233E-004	...........
	8	2.325	4.19342E-003	3.54631E-003	5.51866E-004	...........
	9	2.58333	4.00760E-003	3.73231E-003	5.47333E-004	...........
	10	2.84167	3.84019E-003	3.93625E-003	5.50433E-004	...........
	11	3.1	3.75634E-003	4.02519E-003	5.58299E-004	...........
	12	3.35833	3.77852E-003	4.10833E-003	5.55599E-004	...........
	13	3.61667	3.87067E-003	4.15085E-003	5.52866E-004	...........
	14	3.875	3.98672E-003	4.58979E-003	5.46833E-004	...........
	15	4.13333	4.13330E-003	5.43507E-003	5.52666E-004	...........
	16	4.39167	4.36332E-003	5.19705E-003	5.51766E-004	...........
	17	4.65	4.67887E-003	5.48121E-003	5.49433E-004	...........
	18	4.90833	5.00433E-003	5.93294E-003	5.48366E-004	...........
EOC	QUANT	0.0050043	Open Circuit (V)
PSTATMODEL	IQUANT	4	Pstat Model
PSTATSECTION	LABEL	REF600-11020	Pstat Section
PSTATSERIALNO	LABEL	11020	Pstat Serial Number
CTRLMODE	IQUANT	1	Control Mode
IESTAB	IQUANT	0	I/E Stability
CASPEED	IQUANT	1	Control Amp Speed
CONVENTION	IQUANT	1	Current Convention
ICHRANGE	IQUANT	2	Ich Range
ICHRANGEMODE	TOGGLE	F	Ich Auto Range
ICHOFFSETENABLE	TOGGLE	T	Ich Offset Enable
ICHOFFSET	QUANT	0	Ich Offset (V)
ICHFILTER	IQUANT	3	Ich Filter
VCHRANGE	IQUANT	2	Vch Range
VCHRANGEMODE	TOGGLE	F	Vch Auto Range
VCHOFFSETENABLE	TOGGLE	T	Vch Offset Enable
VCHOFFSET	QUANT	0	Vch Offset (V)
VCHFILTER	IQUANT	3	Vch Filter
ACHRANGE	IQUANT	2	Ach Range
ACHOFFSETENABLE	TOGGLE	F	Ach Offset Enable
ACHOFFSET	QUANT	0	Ach Offset (V)
ACHFILTER	IQUANT	3	Ach Filter
IERANGELOWERLIMIT	IQUANT	1	I/E Range Lower Limit
IERANGEMODE	TOGGLE	F	I/E AutoRange
IERANGE	IQUANT	4	I/E Range
POSFEEDENABLE	TOGGLE	F	Positive Feedback IR Comp
POSFEEDRESISTANCE	QUANT	0	Positive Feedback Resistance (ohm)
ACHSELECT	IQUANT	0	Ach Select
CABLEID	IQUANT	14	Cable ID
DCCALDATE	LABEL	8/19/2019	DC Calibration Date
ACCALDATE	LABEL	8/19/2019	AC Calibration Date
THERMOSELECT	IQUANT	1	Thermo Select
FRAMEWORKVERSION	QUANT	6.33	Framework Version
INSTRUMENTVERSION	LABEL	3.50	Instrument Version
ZCURVE	TABLE
	Pt	Time	Freq	Zreal	Zimag	Zsig	Zmod	Zphz	Idc	Vdc	IERange
	#	s	Hz	ohm	ohm	V	ohm	°	A	V	#
	0	2	1000078	2278.054	-1694.934	1	2839.425	-36.65026	2.484755E-006	0.0062764	8
	1	4	794390.6	2589.242	-1695.321	1	3094.881	-33.215	-1.328816E-007	0.0065107	8
	2	5	630984.4	2889.243	-1665.307	1	3334.813	-29.95836	1.30807E-006	0.0063857	8
	3	7	501234.4	3180.686	-1600.546	1	3560.689	-26.7119	3.922471E-007	0.006677	8
	4	8	398109.4	3466.927	-1542.961	1	3794.774	-23.99153	1.137244E-008	0.0066455	8
	5	9	316265.6	3724.856	-1447.529	1	3996.235	-21.2368	-4.677287E-007	0.006631	8
	6	11	251203.1	3961.389	-1329.1	1	4178.41	-18.5473	1.183283E-008	0.006625	8
	7	12	199546.9	4170.54	-1193.814	1	4338.04	-15.97373	-2.078648E-007	0.0066234	8
	8	14	158578.1	4332.351	-1058.61	1	4459.811	-13.73116	1.136582E-006	0.0062733	8
	9	15	125953.1	4486.89	-891.4515	1	4574.589	-11.23715	-4.977699E-007	0.0079395	7
	10	16	100078.1	4577.907	-772.345	1	4642.601	-9.57627	6.953368E-008	0.00649	7
	11	18	79453.13	4655.077	-680.8232	1	4704.6	-8.32074	8.076882E-009	0.0064767	7
	12	19	63140.62	4719.041	-605.3934	1	4757.714	-7.310396	-5.302364E-008	0.0066016	7
	13	20	50203.12	4769.596	-544.1658	1	4800.538	-6.508763	-2.610748E-008	0.006522	7
	14	22	39890.62	4811.596	-499.4672	1	4837.45	-5.926356	2.663645E-009	0.0066121	7
	15	23	31640.63	4850.36	-469.1089	1	4872.993	-5.524254	-2.92626E-008	0.0065282	7
	16	24	25171.88	4886.062	-453.2883	1	4907.042	-5.300257	7.223249E-008	0.0064676	7
	17	26	20015.62	4913.011	-447.2279	1	4933.324	-5.20126	3.523763E-010	0.0065367	7
	18	27	15890.62	4949.015	-464.4972	1	4970.765	-5.361874	-2.08927E-008	0.0065812	7
	19	29	12609.37	4980.703	-491.7001	1	5004.915	-5.63803	3.54499E-009	0.0066001	7
	20	30	10078.13	5013.377	-530.6529	1	5041.383	-6.042111	-1.981755E-008	0.0065774	7
	21	31	8015.625	5059.047	-587.2274	1	5093.014	-6.620961	9.658317E-009	0.0064563	7
	22	33	6328.125	5081.803	-666.9395	1	5125.381	-7.476807	-3.313657E-008	0.0065561	7
	23	34	5015.625	5119.877	-771.3988	1	5177.664	-8.568162	-2.697323E-008	0.0065152	7
	24	35	3984.375	5151.543	-908.5139	1	5231.041	-10.0017	-3.198328E-008	0.0065851	7
	25	37	3170.956	5212.845	-1065.369	1	5320.598	-11.55069	3.573127E-009	0.0066042	7
	26	38	2527.573	5268.286	-1265.456	1	5418.137	-13.50671	1.064028E-007	0.0063681	7
	27	40	1976.103	5337.006	-1533.218	1	5552.873	-16.02833	-1.022406E-008	0.0065452	7
	28	41	1577.524	5358.184	-1842.455	1	5666.107	-18.97594	-3.34413E-008	0.0065514	7
	29	42	1265.625	5502.329	-2196.316	1	5924.477	-21.75997	-2.985175E-008	0.0065251	7
	30	44	998.264	5607.726	-2670.412	1	6211.094	-25.46389	-4.093503E-008	0.0066533	7
	31	45	796.875	5732.148	-3225.153	1	6577.168	-29.36398	3.457421E-008	0.006468	7
	32	46	627.7902	5881.274	-3944.904	1	7081.783	-33.85199	3.586322E-009	0.0066021	7
	33	48	505.5147	6041.87	-4745.62	1	7682.78	-38.14806	3.361972E-008	0.0063921	7
	34	49	397.9953	6244.802	-5836.758	1	8547.824	-43.06562	4.691806E-009	0.0065309	7
	35	50	315.5048	6484.154	-7149.984	1	9652.28	-47.79585	6.15265E-009	0.0065308	7
	36	52	252.4038	6766.428	-8703.243	1	11024.11	-52.13634	3.288314E-010	0.0064678	6
	37	53	198.6229	7142.635	-10768.19	1	12921.73	-56.44334	1.248493E-009	0.0064691	6
	38	55	158.3615	7589.679	-13178.63	1	15207.88	-60.06201	7.439729E-010	0.006466	6
	39	56	125.558	8185.529	-16217.86	1	18166.51	-63.21887	1.024033E-009	0.0064645	6
	40	57	100.4464	8905.082	-19782.94	1	21694.82	-65.76561	5.474986E-010	0.006463	6
	41	59	79.00281	9950.08	-24571.99	1	26510.13	-67.9552	1.352605E-009	0.0064691	6
	42	60	63.3446	11104.02	-30089	1	32072.54	-69.74396	6.670354E-010	0.0064705	6
	43	62	49.86702	12929.02	-36651.97	1	38865.49	-70.56965	1.642865E-009	0.0064647	6
	44	63	39.72458	15225.11	-44951.58	1	47459.97	-71.28876	7.392371E-010	0.0064694	6
	45	64	31.6723	18143.89	-54702.94	1	57633.43	-71.65033	1.365539E-009	0.0064668	6
	46	66	24.93351	22479.79	-67090.48	1	70756.44	-71.47572	5.526489E-010	0.0064634	6
	47	67	19.86229	27768.37	-81129.15	1	85749.76	-71.10528	1.976211E-010	0.0064692	6
	48	69	15.83615	34295.03	-97832.6	1	103669.5	-70.68199	1.959759E-009	0.0064702	6
	49	70	12.40079	45817.46	-118492.8	1	127042.4	-68.86007	-1.182473E-009	0.0064736	5
	50	72	9.93114	56464.16	-140340.2	1	151273.2	-68.08322	8.285762E-010	0.0064756	5
	51	73	7.944915	72364.86	-164790	1	179979	-66.29211	1.169612E-009	0.0064714	5
	52	75	6.317385	91169.95	-193929.9	1	214291.3	-64.82093	-3.005188E-010	0.0064685	5
	53	77	5.008013	114990.5	-225873.2	1	253459.1	-63.01966	-1.363051E-010	0.0064688	5
	54	79	3.945707	144600.9	-260922.7	1	298312.1	-61.0052	2.962978E-010	0.006472	5
	55	82	3.158693	176152.5	-296373.2	1	344770.6	-59.27443	-1.023382E-010	0.0064516	5
	56	85	2.504006	213233.5	-336335.2	1	398233.5	-57.62566	3.390059E-010	0.0064772	5
	57	88	1.998082	252929.8	-377639.9	1	454516.6	-56.18723	4.719774E-010	0.0064673	5
	58	91	1.584686	295595.7	-425701.6	1	518265	-55.22493	1.87027E-011	0.0064183	5
	59	95	1.266892	340644.6	-477849.3	1	586837.9	-54.51606	3.046258E-010	0.0064502	5
	60	99	0.999041	390253.3	-542482.3	1	668269.9	-54.26935	-2.095717E-010	0.0064665	5
