EXPLAIN
TAG	EISPOT
TITLE	LABEL	Potentiostatic EIS	Test &Identifier
DATE	LABEL	8/16/2017	Date
TIME	LABEL	17:03:25	Time
NOTES	NOTES	1	&Notes...
	
PSTAT	PSTAT	REF600-11020	Potentiostat
VDC	POTEN	0.00000E+000	T	DC &Voltage (V)
FREQINIT	QUANT	1.00000E+006	Initial Fre&q. (Hz)
FREQFINAL	QUANT	1.00000E+000	Final Fre&q. (Hz)
PTSPERDEC	QUANT	1.00000E+001	Points/&decade
VAC	QUANT	2.50000E+001	AC &Voltage (mV rms)
AREA	QUANT	1.00000E-002	&Area (cm^2)
CONDIT	TWOPARAM	T	5.00000E+000	0.00000E+000	Conditionin&g	Time(s)	E(V)
DELAY	TWOPARAM	T	5.00000E+000	0.00000E+000	Init. De&lay	Time(s)	Stab.(mV/s)
SPEED	SELECTOR	0	&Optimize for:
ZGUESS	QUANT	1.00000E+005	E&stimated Z (ohms)
OCVCURVE	TABLE	19
	Pt	T	Vf	Vm	Ach	Over
	#	s	V vs. Ref.	V	V	bits
	0	0.258333	7.21037E-003	7.21037E-003	5.65366E-004	...........
	1	0.516667	7.21088E-003	7.23727E-003	5.64966E-004	...........
	2	0.775	7.21448E-003	7.28572E-003	5.65832E-004	...........
	3	1.03333	7.22663E-003	7.35968E-003	5.70466E-004	...........
	4	1.29167	7.25292E-003	7.40146E-003	5.64599E-004	...........
	5	1.55	7.29424E-003	7.47440E-003	5.65499E-004	...........
	6	1.80833	7.34691E-003	7.55629E-003	5.62032E-004	...........
	7	2.06667	7.40757E-003	7.62107E-003	5.63032E-004	...........
	8	2.325	7.47424E-003	7.68822E-003	5.59666E-004	...........
	9	2.58333	7.54407E-003	7.75824E-003	5.60066E-004	...........
	10	2.84167	7.61439E-003	7.83415E-003	5.62166E-004	...........
	11	3.1	7.68482E-003	7.91418E-003	5.61032E-004	...........
	12	3.35833	7.75677E-003	7.99474E-003	5.67532E-004	...........
	13	3.61667	7.83117E-003	8.05927E-003	5.67366E-004	...........
	14	3.875	7.90750E-003	8.16126E-003	5.61066E-004	...........
	15	4.13333	7.98593E-003	8.26268E-003	5.63032E-004	...........
	16	4.39167	8.06936E-003	8.38160E-003	5.61966E-004	...........
	17	4.65	8.16156E-003	8.50287E-003	5.58366E-004	...........
	18	4.90833	8.26343E-003	8.58770E-003	5.61266E-004	...........
EOC	QUANT	0.0082634	Open Circuit (V)
PSTATMODEL	IQUANT	4	Pstat Model
PSTATSECTION	LABEL	REF600-11020	Pstat Section
PSTATSERIALNO	LABEL	11020	Pstat Serial Number
CTRLMODE	IQUANT	1	Control Mode
IESTAB	IQUANT	0	I/E Stability
CASPEED	IQUANT	1	Control Amp Speed
CONVENTION	IQUANT	1	Current Convention
ICHRANGE	IQUANT	2	Ich Range
ICHRANGEMODE	TOGGLE	F	Ich Auto Range
ICHOFFSETENABLE	TOGGLE	T	Ich Offset Enable
ICHOFFSET	QUANT	0	Ich Offset (V)
ICHFILTER	IQUANT	3	Ich Filter
VCHRANGE	IQUANT	2	Vch Range
VCHRANGEMODE	TOGGLE	F	Vch Auto Range
VCHOFFSETENABLE	TOGGLE	T	Vch Offset Enable
VCHOFFSET	QUANT	0	Vch Offset (V)
VCHFILTER	IQUANT	3	Vch Filter
ACHRANGE	IQUANT	2	Ach Range
ACHOFFSETENABLE	TOGGLE	F	Ach Offset Enable
ACHOFFSET	QUANT	0	Ach Offset (V)
ACHFILTER	IQUANT	3	Ach Filter
IERANGELOWERLIMIT	IQUANT	1	I/E Range Lower Limit
IERANGEMODE	TOGGLE	F	I/E AutoRange
IERANGE	IQUANT	5	I/E Range
POSFEEDENABLE	TOGGLE	F	Positive Feedback IR Comp
POSFEEDRESISTANCE	QUANT	0	Positive Feedback Resistance (ohm)
ACHSELECT	IQUANT	0	Ach Select
CABLEID	IQUANT	14	Cable ID
DCCALDATE	LABEL	8/19/2019	DC Calibration Date
ACCALDATE	LABEL	8/19/2019	AC Calibration Date
THERMOSELECT	IQUANT	1	Thermo Select
FRAMEWORKVERSION	QUANT	6.33	Framework Version
INSTRUMENTVERSION	LABEL	3.50	Instrument Version
ZCURVE	TABLE
	Pt	Time	Freq	Zreal	Zimag	Zsig	Zmod	Zphz	Idc	Vdc	IERange
	#	s	Hz	ohm	ohm	V	ohm	°	A	V	#
	0	1	1000078	1747.221	-727.9866	1	1892.814	-22.61925	1.892045E-006	0.0108988	8
	1	2	794390.6	1863.506	-687.6487	1	1986.332	-20.25447	-5.708496E-006	0.0110564	8
	2	2	630984.4	1962.295	-628.6789	1	2060.543	-17.76439	4.832477E-006	0.0090815	8
	3	2	501234.4	2047.146	-584.188	1	2128.869	-15.927	5.932507E-006	0.0097256	8
	4	3	398109.4	2120.189	-532.861	1	2186.125	-14.10778	8.526868E-006	0.0081166	8
	5	3	316265.6	2178.488	-495.1132	1	2234.043	-12.80432	-5.933811E-006	0.0106364	8
	6	3	251203.1	2232.58	-466.696	1	2280.837	-11.80703	6.076149E-006	0.009677	8
	7	4	199546.9	2280.811	-441.3593	1	2323.122	-10.95193	2.826469E-006	0.0101686	8
	8	4	158578.1	2327.46	-415.3592	1	2364.232	-10.1185	-8.524629E-006	0.0110164	8
	9	4	125953.1	2392.633	-367.913	1	2420.754	-8.74185	-3.630581E-006	0.0129626	7
	10	4	100078.1	2438.273	-374.2491	1	2466.827	-8.726195	1.377248E-006	0.0078123	7
	11	5	79453.13	2477.921	-392.5377	1	2508.82	-9.001661	1.131455E-006	0.0093465	7
	12	5	63140.62	2520.606	-414.9896	1	2554.54	-9.349237	-3.068554E-007	0.011474	7
	13	5	50203.12	2570.591	-441.4666	1	2608.224	-9.74477	-1.036656E-006	0.0096695	7
	14	6	39890.62	2626.039	-474.234	1	2668.517	-10.23666	9.637539E-007	0.0074245	7
	15	6	31640.63	2682.125	-511.0771	1	2730.384	-10.78834	6.780994E-008	0.0080316	7
	16	6	25171.88	2739.331	-552.0239	1	2794.398	-11.39353	-1.424936E-006	0.0105508	7
	17	7	20015.62	2804.336	-603.9435	1	2868.632	-12.15363	6.857733E-008	0.0080843	7
	18	7	15890.62	2874.805	-664.5552	1	2950.616	-13.01616	1.10976E-006	0.0093517	7
	19	7	12609.37	2945.865	-733.6559	1	3035.847	-13.98479	1.216713E-006	0.0075634	7
	20	8	10078.13	3014.876	-814.7796	1	3123.035	-15.12309	1.765655E-007	0.0108943	7
	21	8	8015.625	3093.628	-910.648	1	3224.875	-16.40245	-1.404473E-006	0.0105353	7
	22	8	6328.125	3185.141	-1030.955	1	3347.834	-17.93554	-7.429317E-007	0.0118021	7
	23	9	5015.625	3286.587	-1176.685	1	3490.88	-19.6987	1.394485E-006	0.0077906	7
	24	9	3984.375	3385.273	-1341.065	1	3641.226	-21.61083	-1.407364E-006	0.0119089	7
	25	9	3170.956	3497.52	-1540.655	1	3821.814	-23.77346	-1.12391E-006	0.0119494	7
	26	10	2527.573	3617.001	-1774.13	1	4028.677	-26.12784	-1.418408E-006	0.0105436	7
	27	10	1976.103	3761.468	-2085.709	1	4301.025	-29.00808	-4.789505E-007	0.0087486	7
	28	10	1577.524	3893.11	-2429.384	1	4588.922	-31.96505	-4.739544E-007	0.0087433	7
	29	10	1265.625	4043.465	-2855.004	1	4949.814	-35.2251	1.437561E-006	0.0081823	7
	30	11	998.264	4210.038	-3401.373	1	5412.371	-38.93543	5.524929E-007	0.0076441	7
	31	11	796.875	4388.453	-4059.58	1	5978.186	-42.77066	1.434676E-006	0.0081846	7
	32	11	627.7902	4605.208	-4904.914	1	6728.01	-46.80505	1.132502E-006	0.0093423	7
	33	12	505.5147	4849.842	-5849.203	1	7598.299	-50.33632	6.212045E-008	0.0080505	7
	34	12	397.9953	5173.542	-7148.21	1	8823.971	-54.10473	1.771267E-009	0.0097682	7
	35	12	315.5048	5579.398	-8699.813	1	10335.2	-57.32698	-4.24985E-010	0.0097157	6
	36	13	252.4038	6070.552	-10524.97	1	12150.17	-60.02468	-8.01965E-010	0.0097025	6
	37	13	198.6229	6753.365	-12912.4	1	14571.82	-62.3898	2.59533E-010	0.0097022	6
	38	13	158.3615	7602.463	-15649.89	1	17398.75	-64.09026	-5.376625E-010	0.0097073	6
	39	14	125.558	8739.604	-19030.65	1	20941.5	-65.3336	1.440493E-010	0.0096953	6
	40	14	100.4464	10152.59	-22915.96	1	25064.24	-66.10493	1.027237E-009	0.0097012	6
	41	14	79.00281	12127.23	-27837.62	1	30364.49	-66.46005	1.560868E-010	0.0097001	6
	42	15	63.3446	14934.43	-33210.38	1	36413.83	-65.78694	-7.215756E-010	0.0097068	6
	43	15	49.86702	18250.93	-39987.36	1	43955.5	-65.46722	-9.308993E-010	0.0096942	6
	44	15	39.72458	22111.58	-47357.62	1	52265.34	-64.97182	5.380387E-010	0.0096975	6
	45	16	31.6723	27118.45	-55699.99	1	61950.78	-64.04012	-1.573074E-010	0.0097082	6
	46	16	24.93351	33948.24	-65599.64	1	73863.36	-62.63814	5.800057E-010	0.0097094	6
	47	16	19.86229	41667.76	-75974.91	1	86650.96	-61.25783	2.4985E-009	0.0097108	6
	48	17	15.83615	50805.7	-87039.14	1	100782.1	-59.72742	-1.457825E-009	0.0097054	6
	49	17	12.40079	62076.11	-101023.5	1	118571.5	-58.43045	-5.348683E-010	0.0096994	5
	50	17	9.93114	73626.54	-112969.1	1	134844	-56.90609	-1.128424E-009	0.009708	5
	51	18	7.944915	86055.09	-127077	1	153473.3	-55.8946	-1.054882E-009	0.0096963	5
	52	19	6.317385	99404.2	-143564.8	1	174619.8	-55.30128	-7.529691E-010	0.0097264	5
	53	19	5.008013	113643.5	-162983.7	1	198692	-55.11313	-6.203629E-010	0.0097011	5
	54	20	3.945707	128755	-186367	1	226518.2	-55.36066	-5.904811E-011	0.0096995	5
	55	22	3.158693	143597.2	-212980.3	1	256867.2	-56.01105	-1.310185E-010	0.0097158	5
	56	23	2.504006	160597.6	-247124.5	1	294723.8	-56.98156	-3.770298E-010	0.0097148	5
	57	25	1.998082	178242.1	-287037.6	1	337876.9	-58.1609	-1.591289E-010	0.0097195	5
	58	26	1.584686	200451.6	-337962.2	1	392936.7	-59.32704	-1.739669E-010	0.0097522	5
	59	28	1.266892	223075	-399079.9	1	457195	-60.79597	-5.038509E-011	0.0097306	5
	60	31	0.999041	253160.7	-474182.5	1	537530.8	-61.90274	-1.347306E-010	0.0097057	5
