EXPLAIN
TAG	EISPOT
TITLE	LABEL	Potentiostatic IDE	Test &Identifier
DATE	LABEL	9/16/2019	Date
TIME	LABEL	8:51:43	Time
NOTES	NOTES	1	&Notes...
	
PSTAT	PSTAT	REF600-11020	Potentiostat
VDC	POTEN	0.00000E+000	T	DC &Voltage (V)
FREQINIT	QUANT	1.00000E+006	Initial Fre&q. (Hz)
FREQFINAL	QUANT	1.00000E+000	Final Fre&q. (Hz)
PTSPERDEC	QUANT	1.00000E+001	Points/&decade
VAC	QUANT	2.50000E+001	AC &Voltage (mV rms)
AREA	QUANT	1.00000E-002	&Area (cm^2)
CONDIT	TWOPARAM	T	5.00000E+000	0.00000E+000	Conditionin&g	Time(s)	E(V)
DELAY	TWOPARAM	T	5.00000E+000	0.00000E+000	Init. De&lay	Time(s)	Stab.(mV/s)
SPEED	SELECTOR	1	&Optimize for:
ZGUESS	QUANT	1.00000E+007	E&stimated Z (ohms)
OCVCURVE	TABLE	19
	Pt	T	Vf	Vm	Ach	Over
	#	s	V vs. Ref.	V	V	bits
	0	0.258333	4.13503E-004	4.13503E-004	5.76799E-004	...........
	1	0.516667	4.05760E-004	8.18578E-006	5.73799E-004	...........
	2	0.775	3.56437E-004	-4.68992E-004	5.74532E-004	...........
	3	1.03333	2.14586E-004	-7.39327E-004	5.70232E-004	...........
	4	1.29167	-3.57420E-005	-1.03762E-003	5.72932E-004	...........
	5	1.55	-3.55465E-004	-1.42194E-003	5.71832E-004	...........
	6	1.80833	-6.98806E-004	-1.85420E-003	5.70999E-004	...........
	7	2.06667	-1.06191E-003	-2.70667E-003	5.77432E-004	...........
	8	2.325	-1.49713E-003	-4.04868E-003	5.68532E-004	...........
	9	2.58333	-2.08096E-003	-4.44660E-003	5.73166E-004	...........
	10	2.84167	-2.79548E-003	-3.83133E-003	5.72499E-004	...........
	11	3.1	-3.46065E-003	-4.25136E-003	5.75132E-004	...........
	12	3.35833	-3.89597E-003	-4.11919E-003	5.67132E-004	...........
	13	3.61667	-4.08432E-003	-3.67046E-003	5.68466E-004	...........
	14	3.875	-4.09575E-003	-3.57278E-003	5.71966E-004	...........
	15	4.13333	-3.99586E-003	-3.99101E-003	5.73799E-004	...........
	16	4.39167	-3.88494E-003	-4.40526E-003	5.71466E-004	...........
	17	4.65	-3.88596E-003	-4.75017E-003	5.68699E-004	...........
	18	4.90833	-4.05874E-003	-5.43605E-003	5.72232E-004	...........
EOC	QUANT	-0.0040587	Open Circuit (V)
PSTATMODEL	IQUANT	4	Pstat Model
PSTATSECTION	LABEL	REF600-11020	Pstat Section
PSTATSERIALNO	LABEL	11020	Pstat Serial Number
CTRLMODE	IQUANT	1	Control Mode
IESTAB	IQUANT	0	I/E Stability
CASPEED	IQUANT	1	Control Amp Speed
CONVENTION	IQUANT	1	Current Convention
ICHRANGE	IQUANT	2	Ich Range
ICHRANGEMODE	TOGGLE	F	Ich Auto Range
ICHOFFSETENABLE	TOGGLE	T	Ich Offset Enable
ICHOFFSET	QUANT	0	Ich Offset (V)
ICHFILTER	IQUANT	3	Ich Filter
VCHRANGE	IQUANT	2	Vch Range
VCHRANGEMODE	TOGGLE	F	Vch Auto Range
VCHOFFSETENABLE	TOGGLE	T	Vch Offset Enable
VCHOFFSET	QUANT	0	Vch Offset (V)
VCHFILTER	IQUANT	3	Vch Filter
ACHRANGE	IQUANT	2	Ach Range
ACHOFFSETENABLE	TOGGLE	F	Ach Offset Enable
ACHOFFSET	QUANT	0	Ach Offset (V)
ACHFILTER	IQUANT	3	Ach Filter
IERANGELOWERLIMIT	IQUANT	1	I/E Range Lower Limit
IERANGEMODE	TOGGLE	F	I/E AutoRange
IERANGE	IQUANT	2	I/E Range
POSFEEDENABLE	TOGGLE	F	Positive Feedback IR Comp
POSFEEDRESISTANCE	QUANT	0	Positive Feedback Resistance (ohm)
ACHSELECT	IQUANT	0	Ach Select
CABLEID	IQUANT	14	Cable ID
DCCALDATE	LABEL	8/19/2019	DC Calibration Date
ACCALDATE	LABEL	8/19/2019	AC Calibration Date
THERMOSELECT	IQUANT	1	Thermo Select
FRAMEWORKVERSION	QUANT	6.33	Framework Version
INSTRUMENTVERSION	LABEL	3.50	Instrument Version
ZCURVE	TABLE
	Pt	Time	Freq	Zreal	Zimag	Zsig	Zmod	Zphz	Idc	Vdc	IERange
	#	s	Hz	ohm	ohm	V	ohm	°	A	V	#
	0	2	1000078	2510.743	-1662.153	1	3011.077	-33.50521	7.643857E-006	-0.0025472	8
	1	3	794390.6	2823.97	-1578.756	1	3235.317	-29.20761	-2.078789E-006	-0.002258	8
	2	5	630984.4	3123.752	-1431.063	1	3435.952	-24.6136	5.047636E-006	-0.003058	8
	3	6	501234.4	3343.604	-1258.792	1	3572.708	-20.63023	-6.864144E-007	-0.0020525	8
	4	7	398109.4	3510.315	-1095.25	1	3677.211	-17.32839	-4.732477E-006	-0.0012638	8
	5	9	316265.6	3660.261	-950.529	1	3781.668	-14.55752	2.113046E-006	-0.0027724	8
	6	10	251203.1	3735.796	-809.929	1	3822.585	-12.23254	-1.735802E-008	-0.002192	8
	7	12	199546.9	3832.839	-699.2034	1	3896.093	-10.33847	-1.059062E-006	-0.0021912	8
	8	13	158578.1	3877.455	-606.7508	1	3924.641	-8.893619	-1.884339E-006	-0.002056	8
	9	14	125953.1	3950.267	-484.1689	1	3979.827	-6.98767	-3.387289E-007	-0.0015636	7
	10	16	100078.1	3976.064	-427.8893	1	3999.022	-6.142321	4.388645E-008	-0.0025824	7
	11	17	79453.13	4007.72	-396.3154	1	4027.268	-5.647503	-1.731877E-008	-0.0024685	7
	12	18	63140.62	4038.662	-372.8634	1	4055.838	-5.274794	-6.765747E-009	-0.0024247	7
	13	20	50203.12	4068.141	-362.0904	1	4084.224	-5.086285	-5.022326E-008	-0.0023494	7
	14	21	39890.62	4099.83	-357.7858	1	4115.412	-4.987479	2.200536E-008	-0.0025325	7
	15	22	31640.63	4126.711	-363.5445	1	4142.693	-5.034501	8.590312E-008	-0.0026232	7
	16	24	25171.88	4156.782	-377.5793	1	4173.896	-5.190191	-4.215655E-008	-0.0024199	7
	17	25	20015.62	4186.81	-401.1526	1	4205.983	-5.472998	-1.787354E-008	-0.0024726	7
	18	26	15890.62	4219.562	-441.0874	1	4242.553	-5.96768	8.634379E-008	-0.0026288	7
	19	28	12609.37	4252.662	-480.4564	1	4279.716	-6.445819	-1.246811E-008	-0.0023958	7
	20	29	10078.13	4286.635	-539.3828	1	4320.437	-7.171776	-1.931748E-008	-0.0023055	7
	21	30	8015.625	4323.924	-613.626	1	4367.248	-8.077147	8.607655E-008	-0.0026269	7
	22	32	6328.125	4364.34	-711.605	1	4421.973	-9.260577	-4.260347E-008	-0.0024221	7
	23	33	5015.625	4408.675	-832.3765	1	4486.565	-10.69183	-7.972178E-009	-0.002417	7
	24	34	3984.375	4456.997	-982.278	1	4563.956	-12.42874	-5.115578E-009	-0.0024294	7
	25	36	3170.956	4513.721	-1165.186	1	4661.688	-14.47451	-5.5453E-009	-0.002411	7
	26	37	2527.573	4577.652	-1388.671	1	4783.65	-16.87563	-4.940543E-009	-0.0024307	7
	27	38	1976.103	4655.234	-1689.041	1	4952.177	-19.9421	-3.71538E-009	-0.0024251	7
	28	40	1577.524	4743.268	-2027.301	1	5158.347	-23.14215	-6.912114E-008	-0.0023471	7
	29	41	1265.625	4846.052	-2425.226	1	5419.035	-26.58585	4.530226E-008	-0.0025911	7
	30	42	998.264	4974.89	-2951.694	1	5784.637	-30.68144	3.903405E-008	-0.002488	7
	31	44	796.875	5125.547	-3564.06	1	6242.896	-34.8129	-5.196814E-009	-0.0024373	7
	32	45	627.7902	5307.674	-4349.549	1	6862.214	-39.33404	-6.063075E-009	-0.0024255	7
	33	46	505.5147	5507.341	-5212.711	1	7583.084	-43.42568	4.457025E-008	-0.0025996	7
	34	48	397.9953	5764.286	-6383.512	1	8600.943	-47.91809	6.977019E-009	-0.0024414	7
	35	49	315.5048	6058.576	-7779.995	1	9860.76	-52.09076	6.539724E-009	-0.0024409	7
	36	50	252.4038	6397.082	-9424.441	1	11390.47	-55.83229	1.918104E-009	-0.0025057	6
	37	52	198.6229	6830.734	-11600.63	1	13462.3	-59.50938	1.613024E-009	-0.0025053	6
	38	53	158.3615	7331.487	-14142.07	1	15929.5	-62.59702	7.598227E-010	-0.0025048	6
	39	54	125.558	7971.511	-17342.55	1	19086.88	-65.3141	1.324419E-009	-0.0025001	6
	40	56	100.4464	8753.084	-21133.66	1	22874.62	-67.50177	5.872377E-010	-0.0025073	6
	41	57	79.00281	9868.87	-26090.59	1	27894.69	-69.28068	7.267303E-010	-0.0025023	6
	42	58	63.3446	11205.85	-32017.34	1	33921.69	-70.7103	1.048336E-009	-0.0025016	6
	43	60	49.86702	12788.29	-39040.56	1	41081.7	-71.86306	5.817939E-010	-0.0025023	6
	44	61	39.72458	15288.97	-47819.31	1	50203.97	-72.26969	1.287743E-009	-0.0024995	6
	45	62	31.6723	18165.87	-58090.68	1	60864.82	-72.63471	1.264747E-009	-0.0025017	6
	46	64	24.93351	22416.36	-71257.64	1	74700.37	-72.53737	1.077383E-009	-0.0025022	6
	47	65	19.86229	27558.21	-86239.62	1	90535.77	-72.27851	1.681561E-009	-0.0024977	6
	48	66	15.83615	34212.68	-104381.3	1	109845.2	-71.8526	7.776285E-010	-0.0024955	5
	49	68	12.40079	43795.17	-126751.6	1	134104.4	-70.93896	6.723097E-010	-0.0024951	5
	50	69	9.93114	54594.67	-150926	1	160496.8	-70.11335	1.265636E-009	-0.0025034	5
	51	71	7.944915	68461.19	-180217.6	1	192783	-69.19918	5.547977E-010	-0.002501	5
	52	72	6.317385	86133.48	-213338.3	1	230070	-68.01404	1.964636E-010	-0.0024918	5
	53	74	5.008013	109255	-252675.3	1	275284.3	-66.61668	5.609667E-010	-0.0024969	5
	54	77	3.945707	137983.2	-297324.1	1	327781.9	-65.10477	9.09923E-011	-0.0025025	5
	55	80	3.158693	170044.2	-345812.2	1	385358.4	-63.81555	4.476325E-010	-0.0024815	5
	56	83	2.504006	213051.6	-402955.2	1	455811.2	-62.13357	1.650647E-010	-0.0025074	5
	57	86	1.998082	261995.7	-462256.2	1	531340.3	-60.45648	2.009179E-010	-0.0025368	5
	58	89	1.584686	319010.7	-528085.9	1	616962.3	-58.8643	1.510126E-010	-0.0024931	5
	59	92	1.266892	383707.3	-596963.6	1	709645.6	-57.26851	2.899597E-010	-0.0025458	5
	60	97	0.999041	459031.6	-676421.9	1	817469.6	-55.8385	1.929572E-010	-0.0024676	5
