EXPLAIN
TAG	EISPOT
TITLE	LABEL	Potentiostatic EIS	Test &Identifier
DATE	LABEL	10/24/2019	Date
TIME	LABEL	10:00:42	Time
NOTES	NOTES	1	&Notes...
	
PSTAT	PSTAT	REF600-11020	Potentiostat
VDC	POTEN	0.00000E+000	T	DC &Voltage (V)
FREQINIT	QUANT	1.00000E+006	Initial Fre&q. (Hz)
FREQFINAL	QUANT	1.00000E+000	Final Fre&q. (Hz)
PTSPERDEC	QUANT	1.00000E+001	Points/&decade
VAC	QUANT	2.50000E+001	AC &Voltage (mV rms)
AREA	QUANT	1.00000E-002	&Area (cm^2)
CONDIT	TWOPARAM	T	5.00000E+000	0.00000E+000	Conditionin&g	Time(s)	E(V)
DELAY	TWOPARAM	T	5.00000E+000	0.00000E+000	Init. De&lay	Time(s)	Stab.(mV/s)
SPEED	SELECTOR	1	&Optimize for:
ZGUESS	QUANT	1.00000E+005	E&stimated Z (ohms)
OCVCURVE	TABLE	19
	Pt	T	Vf	Vm	Ach	Over
	#	s	V vs. Ref.	V	V	bits
	0	0.258333	5.96917E-003	5.96917E-003	5.57999E-004	...........
	1	0.516667	5.96493E-003	5.74682E-003	5.60032E-004	...........
	2	0.775	5.94044E-003	5.61969E-003	5.55799E-004	...........
	3	1.03333	5.87684E-003	5.51619E-003	5.60199E-004	...........
	4	1.29167	5.77341E-003	5.34071E-003	5.53266E-004	...........
	5	1.55	5.64696E-003	5.27796E-003	5.56266E-004	...........
	6	1.80833	5.51768E-003	5.27402E-003	5.59366E-004	...........
	7	2.06667	5.40607E-003	5.25998E-003	5.56966E-004	...........
	8	2.325	5.32774E-003	5.26538E-003	5.50999E-004	...........
	9	2.58333	5.28311E-003	5.19725E-003	5.59566E-004	...........
	10	2.84167	5.25780E-003	5.16507E-003	5.56832E-004	...........
	11	3.1	5.23504E-003	5.15645E-003	5.61066E-004	...........
	12	3.35833	5.20838E-003	5.13337E-003	5.61466E-004	...........
	13	3.61667	5.18160E-003	5.14233E-003	5.63932E-004	...........
	14	3.875	5.16003E-003	5.12385E-003	5.62799E-004	...........
	15	4.13333	5.14475E-003	5.09700E-003	5.56933E-004	...........
	16	4.39167	5.13310E-003	5.12598E-003	5.63666E-004	...........
	17	4.65	5.12419E-003	5.14443E-003	5.62132E-004	...........
	18	4.90833	5.11979E-003	5.06638E-003	5.58099E-004	...........
EOC	QUANT	0.0051198	Open Circuit (V)
PSTATMODEL	IQUANT	4	Pstat Model
PSTATSECTION	LABEL	REF600-11020	Pstat Section
PSTATSERIALNO	LABEL	11020	Pstat Serial Number
CTRLMODE	IQUANT	1	Control Mode
IESTAB	IQUANT	0	I/E Stability
CASPEED	IQUANT	1	Control Amp Speed
CONVENTION	IQUANT	1	Current Convention
ICHRANGE	IQUANT	2	Ich Range
ICHRANGEMODE	TOGGLE	F	Ich Auto Range
ICHOFFSETENABLE	TOGGLE	T	Ich Offset Enable
ICHOFFSET	QUANT	0	Ich Offset (V)
ICHFILTER	IQUANT	3	Ich Filter
VCHRANGE	IQUANT	2	Vch Range
VCHRANGEMODE	TOGGLE	F	Vch Auto Range
VCHOFFSETENABLE	TOGGLE	T	Vch Offset Enable
VCHOFFSET	QUANT	0	Vch Offset (V)
VCHFILTER	IQUANT	3	Vch Filter
ACHRANGE	IQUANT	2	Ach Range
ACHOFFSETENABLE	TOGGLE	F	Ach Offset Enable
ACHOFFSET	QUANT	0	Ach Offset (V)
ACHFILTER	IQUANT	3	Ach Filter
IERANGELOWERLIMIT	IQUANT	1	I/E Range Lower Limit
IERANGEMODE	TOGGLE	F	I/E AutoRange
IERANGE	IQUANT	4	I/E Range
POSFEEDENABLE	TOGGLE	F	Positive Feedback IR Comp
POSFEEDRESISTANCE	QUANT	0	Positive Feedback Resistance (ohm)
ACHSELECT	IQUANT	0	Ach Select
CABLEID	IQUANT	14	Cable ID
DCCALDATE	LABEL	8/19/2019	DC Calibration Date
ACCALDATE	LABEL	8/19/2019	AC Calibration Date
THERMOSELECT	IQUANT	1	Thermo Select
FRAMEWORKVERSION	QUANT	6.33	Framework Version
INSTRUMENTVERSION	LABEL	3.50	Instrument Version
ZCURVE	TABLE
	Pt	Time	Freq	Zreal	Zimag	Zsig	Zmod	Zphz	Idc	Vdc	IERange
	#	s	Hz	ohm	ohm	V	ohm	°	A	V	#
	0	2	1000078	2392.911	-1888.331	1	3048.249	-38.27823	-1.081534E-006	0.0075697	8
	1	3	794390.6	2775.794	-1865.429	1	3344.377	-33.90245	1.831425E-007	0.00677	8
	2	5	630984.4	3147.942	-1783.566	1	3618.1	-29.53509	8.442389E-007	0.0066613	8
	3	6	501234.4	3475.782	-1667.131	1	3854.918	-25.62433	-4.652043E-007	0.006626	8
	4	8	398109.4	3730.154	-1484.036	1	4014.525	-21.69506	1.641789E-007	0.0066354	8
	5	9	316265.6	3965.983	-1325.018	1	4181.47	-18.47426	-8.580149E-007	0.0068725	8
	6	10	251203.1	4138.246	-1157.668	1	4297.124	-15.62888	-2.752086E-007	0.0064	8
	7	12	199546.9	4269.933	-999.44	1	4385.34	-13.17375	-8.362292E-007	0.0068566	8
	8	13	158578.1	4366.159	-876.1406	1	4453.197	-11.34663	7.601493E-007	0.0065246	8
	9	14	125953.1	4478.231	-724.8934	1	4536.521	-9.194741	3.385132E-007	0.005229	7
	10	16	100078.1	4524.204	-615.4713	1	4565.876	-7.746943	8.512955E-008	0.0064451	7
	11	17	79453.13	4572.948	-555.9404	1	4606.617	-6.931522	-7.92217E-009	0.0065075	7
	12	18	63140.62	4615.132	-511.5192	1	4643.393	-6.324577	1.039368E-007	0.0063661	7
	13	20	50203.12	4652.884	-482.4156	1	4677.826	-5.919332	3.950617E-008	0.0063949	7
	14	21	39890.62	4687.832	-466.7092	1	4711.007	-5.685493	-3.580724E-008	0.006593	7
	15	23	31640.63	4723.703	-465.1184	1	4746.547	-5.62349	-3.062135E-009	0.0064639	7
	16	24	25171.88	4760.056	-475.7548	1	4783.772	-5.707603	-2.670128E-008	0.0065046	7
	17	25	20015.62	4794.286	-496.4979	1	4819.926	-5.912494	8.57984E-008	0.0064345	7
	18	27	15890.62	4836.813	-538.8558	1	4866.737	-6.356948	6.886641E-008	0.0063652	7
	19	28	12609.37	4878.97	-590.9437	1	4914.627	-6.906058	-6.192276E-009	0.0064616	7
	20	29	10078.13	4923.534	-658.0527	1	4967.315	-7.612726	6.99775E-008	0.0063662	7
	21	31	8015.625	4971.03	-747.0322	1	5026.848	-8.546294	-1.835415E-009	0.0064596	7
	22	32	6328.125	5024.198	-856.6933	1	5096.714	-9.67663	-2.782802E-008	0.0064966	7
	23	34	5015.625	5081.775	-993.315	1	5177.945	-11.05994	-3.548157E-009	0.0065362	7
	24	35	3984.375	5135.032	-1151.449	1	5262.546	-12.6386	1.773486E-010	0.0064769	7
	25	36	3170.956	5214.431	-1371.442	1	5391.766	-14.73558	5.681006E-008	0.0064138	7
	26	38	2527.573	5292.118	-1624.103	1	5535.722	-17.06077	9.909936E-009	0.006437	7
	27	39	1976.103	5389.09	-1965.393	1	5736.293	-20.03684	-2.27117E-008	0.0064907	7
	28	40	1577.524	5436.114	-2313.394	1	5907.887	-23.05268	1.000378E-007	0.0063537	7
	29	42	1265.625	5602.975	-2801.686	1	6264.405	-26.56667	-3.027213E-008	0.0064981	7
	30	43	998.264	5749.074	-3402.267	1	6680.365	-30.61679	-4.104336E-008	0.0065473	7
	31	44	796.875	5908.718	-4102.261	1	7193.156	-34.77119	-6.175892E-008	0.0066827	7
	32	46	627.7902	6105.797	-5011.058	1	7898.826	-39.3759	5.694433E-009	0.0064835	7
	33	47	505.5147	6314.215	-6014.694	1	8720.428	-43.60832	1.604091E-008	0.0065699	7
	34	49	397.9953	6582.521	-7378.275	1	9887.8	-48.26228	6.436837E-009	0.0065208	7
	35	50	315.5048	6894.614	-9017.093	1	11350.93	-52.59789	4.870238E-010	0.0064592	6
	36	51	252.4038	7248.892	-10954.94	1	13136.1	-56.50738	1.567102E-009	0.006455	6
	37	53	198.6229	7709.346	-13530.03	1	15572.27	-60.32571	9.422391E-010	0.0064563	6
	38	54	158.3615	8244.94	-16546.19	1	18486.63	-63.51299	1.50879E-009	0.0064534	6
	39	55	125.558	8945.935	-20354.62	1	22233.76	-66.27432	1.280481E-009	0.0064626	6
	40	57	100.4464	9822.64	-24850.81	1	26721.66	-68.43287	-1.04617E-010	0.0064599	6
	41	58	79.00281	11066.21	-30849.17	1	32773.96	-70.26608	-1.003954E-009	0.0064568	6
	42	60	63.3446	12053.27	-37530.26	1	39418.29	-72.19498	8.989411E-010	0.0064532	6
	43	61	49.86702	14831.36	-46407.86	1	48720.21	-72.27679	3.384014E-010	0.0064504	6
	44	62	39.72458	17202.47	-56808.23	1	59355.71	-73.15282	9.855551E-010	0.006453	6
	45	64	31.6723	20887.84	-69398.77	1	72474.08	-73.24911	3.96178E-010	0.0064538	6
	46	65	24.93351	25562.17	-85374.32	1	89119.02	-73.33162	1.147673E-009	0.0064522	6
	47	67	19.86229	31950.12	-103529.5	1	108347.5	-72.84931	3.916784E-010	0.0064629	5
	48	68	15.83615	39242.04	-125926.4	1	131899.2	-72.69156	-7.918465E-010	0.006458	5
	49	69	12.40079	51595.39	-152768.4	1	161246	-71.33832	3.310703E-010	0.0064566	5
	50	71	9.93114	66239.64	-182196.8	1	193864.3	-70.02071	6.413553E-010	0.0064573	5
	51	72	7.944915	84086.72	-216526.4	1	232280.6	-68.77663	-1.117478E-010	0.0064644	5
	52	74	6.317385	109177.7	-256037.2	1	278343	-66.90595	-1.396847E-011	0.0064596	5
	53	76	5.008013	140755.7	-300909.2	1	332202.6	-64.9313	-5.412288E-011	0.0064556	5
	54	79	3.945707	179767.1	-351072.4	1	394421.1	-62.88522	1.400595E-010	0.00646	5
	55	81	3.158693	224210.2	-401704.6	1	460040	-60.83206	2.883594E-010	0.0064581	5
	56	85	2.504006	277919.4	-457676.1	1	535449.9	-58.73219	-5.627613E-011	0.0064641	5
	57	87	1.998082	335999.7	-514114.3	1	614173.7	-56.83335	2.915741E-010	0.0064231	5
	58	91	1.584686	401797.8	-576125.1	1	702397.1	-55.10753	-1.410932E-010	0.0064749	5
	59	94	1.266892	472209	-641000.2	1	796154.9	-53.62185	-7.934688E-012	0.006424	5
	60	98	0.999041	547830	-716720.6	1	902112.1	-52.60728	2.513875E-010	0.0065039	5
