EXPLAIN
TAG	EISPOT
TITLE	LABEL	Potentiostatic EIS	Test &Identifier
DATE	LABEL	10/4/2019	Date
TIME	LABEL	9:21:46	Time
NOTES	NOTES	2	&Notes...
	
	
PSTAT	PSTAT	REF600-11020	Potentiostat
VDC	POTEN	0.00000E+000	T	DC &Voltage (V)
FREQINIT	QUANT	1.00000E+006	Initial Fre&q. (Hz)
FREQFINAL	QUANT	1.00000E+000	Final Fre&q. (Hz)
PTSPERDEC	QUANT	1.00000E+001	Points/&decade
VAC	QUANT	2.50000E+001	AC &Voltage (mV rms)
AREA	QUANT	1.00000E-002	&Area (cm^2)
CONDIT	TWOPARAM	T	5.00000E+000	0.00000E+000	Conditionin&g	Time(s)	E(V)
DELAY	TWOPARAM	T	5.00000E+000	0.00000E+000	Init. De&lay	Time(s)	Stab.(mV/s)
SPEED	SELECTOR	1	&Optimize for:
ZGUESS	QUANT	1.00000E+004	E&stimated Z (ohms)
OCVCURVE	TABLE	19
	Pt	T	Vf	Vm	Ach	Over
	#	s	V vs. Ref.	V	V	bits
	0	0.258333	5.73055E-003	5.73055E-003	5.53533E-004	...........
	1	0.516667	5.72995E-003	5.69931E-003	5.55966E-004	...........
	2	0.775	5.72648E-003	5.68000E-003	5.58032E-004	...........
	3	1.03333	5.71754E-003	5.67272E-003	5.56599E-004	...........
	4	1.29167	5.70383E-003	5.66972E-003	5.55833E-004	...........
	5	1.55	5.68969E-003	5.67586E-003	5.55899E-004	...........
	6	1.80833	5.67957E-003	5.67983E-003	5.50233E-004	...........
	7	2.06667	5.67519E-003	5.68304E-003	5.54233E-004	...........
	8	2.325	5.67589E-003	5.70333E-003	5.53032E-004	...........
	9	2.58333	5.68024E-003	5.69316E-003	5.51166E-004	...........
	10	2.84167	5.68666E-003	5.71248E-003	5.44099E-004	...........
	11	3.1	5.69446E-003	5.75702E-003	5.52866E-004	...........
	12	3.35833	5.70606E-003	5.78305E-003	5.53466E-004	...........
	13	3.61667	5.72465E-003	5.80657E-003	5.52932E-004	...........
	14	3.875	5.74951E-003	5.83083E-003	5.54533E-004	...........
	15	4.13333	5.77661E-003	5.84804E-003	5.51666E-004	...........
	16	4.39167	5.80250E-003	5.86886E-003	5.48299E-004	...........
	17	4.65	5.82602E-003	5.89371E-003	5.50633E-004	...........
	18	4.90833	5.84793E-003	5.91835E-003	5.56999E-004	...........
EOC	QUANT	0.0058479	Open Circuit (V)
PSTATMODEL	IQUANT	4	Pstat Model
PSTATSECTION	LABEL	REF600-11020	Pstat Section
PSTATSERIALNO	LABEL	11020	Pstat Serial Number
CTRLMODE	IQUANT	1	Control Mode
IESTAB	IQUANT	0	I/E Stability
CASPEED	IQUANT	1	Control Amp Speed
CONVENTION	IQUANT	1	Current Convention
ICHRANGE	IQUANT	2	Ich Range
ICHRANGEMODE	TOGGLE	F	Ich Auto Range
ICHOFFSETENABLE	TOGGLE	T	Ich Offset Enable
ICHOFFSET	QUANT	0	Ich Offset (V)
ICHFILTER	IQUANT	3	Ich Filter
VCHRANGE	IQUANT	2	Vch Range
VCHRANGEMODE	TOGGLE	F	Vch Auto Range
VCHOFFSETENABLE	TOGGLE	T	Vch Offset Enable
VCHOFFSET	QUANT	0	Vch Offset (V)
VCHFILTER	IQUANT	3	Vch Filter
ACHRANGE	IQUANT	2	Ach Range
ACHOFFSETENABLE	TOGGLE	F	Ach Offset Enable
ACHOFFSET	QUANT	0	Ach Offset (V)
ACHFILTER	IQUANT	3	Ach Filter
IERANGELOWERLIMIT	IQUANT	1	I/E Range Lower Limit
IERANGEMODE	TOGGLE	F	I/E AutoRange
IERANGE	IQUANT	6	I/E Range
POSFEEDENABLE	TOGGLE	F	Positive Feedback IR Comp
POSFEEDRESISTANCE	QUANT	0	Positive Feedback Resistance (ohm)
ACHSELECT	IQUANT	0	Ach Select
CABLEID	IQUANT	14	Cable ID
DCCALDATE	LABEL	8/19/2019	DC Calibration Date
ACCALDATE	LABEL	8/19/2019	AC Calibration Date
THERMOSELECT	IQUANT	1	Thermo Select
FRAMEWORKVERSION	QUANT	6.33	Framework Version
INSTRUMENTVERSION	LABEL	3.50	Instrument Version
ZCURVE	TABLE
	Pt	Time	Freq	Zreal	Zimag	Zsig	Zmod	Zphz	Idc	Vdc	IERange
	#	s	Hz	ohm	ohm	V	ohm	°	A	V	#
	0	1	1000078	2660.783	-1264.859	1	2946.122	-25.42505	4.823891E-006	0.0069359	8
	1	3	794390.6	2872.315	-1128.312	1	3085.981	-21.44606	-5.271248E-007	0.0073984	8
	2	4	630984.4	3040.761	-990.029	1	3197.872	-18.03453	-1.367212E-007	0.007318	8
	3	5	501234.4	3161.456	-854.3028	1	3274.849	-15.12156	-1.255814E-006	0.0077096	8
	4	7	398109.4	3255.976	-734.6823	1	3337.834	-12.71535	-1.141365E-006	0.0076588	8
	5	8	316265.6	3328.327	-626.8952	1	3386.85	-10.66678	7.077247E-007	0.0072754	8
	6	9	251203.1	3385.25	-559.0931	1	3431.108	-9.378066	-2.486124E-006	0.0079754	8
	7	11	199546.9	3421.029	-480.1265	1	3454.556	-7.989032	5.609417E-007	0.0071466	8
	8	12	158578.1	3481.533	-423.5852	1	3507.206	-6.936871	-3.340987E-007	0.0073685	8
	9	13	125953.1	3510.713	-347.6833	1	3527.887	-5.655843	-1.003732E-006	0.0088255	7
	10	15	100078.1	3525.643	-317.5868	1	3539.918	-5.147261	-7.600645E-008	0.0075287	7
	11	16	79453.13	3552.488	-311.1259	1	3566.086	-5.005176	-1.279317E-008	0.0072537	7
	12	17	63140.62	3579.03	-311.2191	1	3592.536	-4.969727	1.258528E-008	0.0073808	7
	13	19	50203.12	3607.712	-317.26	1	3621.635	-5.025628	-4.411461E-008	0.0073124	7
	14	20	39890.62	3638.584	-330.2149	1	3653.537	-5.185597	-3.76653E-008	0.0073036	7
	15	22	31640.63	3670.02	-350.002	1	3686.671	-5.447701	1.283687E-008	0.0073815	7
	16	23	25171.88	3704.285	-376.5125	1	3723.37	-5.803751	-5.937763E-008	0.0073996	7
	17	24	20015.62	3739.561	-409.6261	1	3761.929	-6.251175	5.379872E-008	0.0072039	7
	18	26	15890.62	3781.856	-452.1348	1	3808.788	-6.817562	-5.837595E-008	0.0073966	7
	19	27	12609.37	3827.605	-503.7086	1	3860.607	-7.49698	1.204359E-007	0.0071109	7
	20	28	10078.13	3873.042	-563.2557	1	3913.785	-8.274505	-4.28754E-008	0.0073045	7
	21	30	8015.625	3922.826	-635.8751	1	3974.029	-9.207342	1.571301E-009	0.007256	7
	22	31	6328.125	3981.317	-726.942	1	4047.139	-10.34755	4.702438E-008	0.0071456	7
	23	32	5015.625	4041.158	-835.4714	1	4126.617	-11.6808	1.63249E-008	0.0072098	7
	24	34	3984.375	4103.654	-961.036	1	4214.685	-13.18058	-4.866369E-008	0.0074035	7
	25	35	3170.956	4172.486	-1123.867	1	4321.194	-15.07496	9.939092E-008	0.0071977	7
	26	37	2527.573	4246.403	-1313.646	1	4444.953	-17.18971	-4.881525E-008	0.0073996	7
	27	38	1976.103	4334.799	-1567.423	1	4609.479	-19.87952	5.464258E-008	0.0072021	7
	28	39	1577.524	4421.393	-1852.914	1	4793.955	-22.73754	8.73783E-008	0.0071155	7
	29	41	1265.625	4516.143	-2194.686	1	5021.174	-25.91812	-7.503601E-008	0.0075172	7
	30	42	998.264	4627.915	-2648.12	1	5331.992	-29.77844	-4.864979E-008	0.0074036	7
	31	43	796.875	4748.754	-3180.869	1	5715.645	-33.81545	1.039368E-007	0.0071956	7
	32	45	627.7902	4897.321	-3877.392	1	6246.433	-38.36998	-7.669875E-008	0.0073941	7
	33	46	505.5147	5061.604	-4658.568	1	6879.105	-42.62566	1.2172E-007	0.0071031	7
	34	47	397.9953	5266.96	-5727.716	1	7781.234	-47.3997	4.693558E-009	0.0073147	7
	35	49	315.5048	5521.506	-7013.615	1	8926.244	-51.78822	4.612441E-009	0.0073118	7
	36	50	252.4038	5830.46	-8532.718	1	10334.48	-55.65496	1.325822E-009	0.0072437	6
	37	52	198.6229	6251.076	-10543.43	1	12257.24	-59.33679	7.402176E-010	0.0072496	6
	38	53	158.3615	6768.784	-12881.48	1	14551.6	-62.27959	2.887801E-010	0.0072478	6
	39	54	125.558	7454.623	-15809.27	1	17478.69	-64.75449	8.254012E-010	0.0072532	6
	40	56	100.4464	8312.477	-19237.13	1	20956.26	-66.63055	3.87444E-010	0.0072449	6
	41	57	79.00281	9555.31	-23693.87	1	25548.06	-68.03666	7.074746E-010	0.0072482	6
	42	58	63.3446	11072.76	-28568.49	1	30639.26	-68.81435	6.067154E-010	0.0072502	6
	43	60	49.86702	13288.88	-35312.54	1	37730.22	-69.37759	3.454337E-010	0.0072493	6
	44	61	39.72458	15970.09	-42631.26	1	45524.37	-69.46355	4.280626E-010	0.0072496	6
	45	63	31.6723	19500.93	-51369.32	1	54946.27	-69.21214	1.145761E-009	0.0072486	6
	46	64	24.93351	24459.16	-62076.26	1	66721.15	-68.49467	8.223713E-010	0.0072454	6
	47	65	19.86229	30463.65	-73931.84	1	79962.18	-67.60587	-3.408847E-010	0.0072519	6
	48	67	15.83615	38084.38	-87661.83	1	95577.3	-66.51762	1.068682E-010	0.0072449	6
	49	68	12.40079	48585.84	-104096.2	1	114876.4	-64.97966	9.255781E-010	0.0072524	5
	50	70	9.93114	60195.69	-120843.8	1	135006.5	-63.52082	-3.232244E-010	0.007258	5
	51	71	7.944915	73920.3	-139623.7	1	157984.2	-62.10213	6.961203E-010	0.007257	5
	52	73	6.317385	90382.62	-160335.7	1	184055.8	-60.58967	-2.201932E-010	0.0072693	5
	53	75	5.008013	109634.7	-183570.7	1	213817.6	-59.15292	8.050042E-012	0.0072531	5
	54	77	3.945707	131448.8	-209561.1	1	247375.5	-57.9017	4.888392E-010	0.007264	5
	55	80	3.158693	153974	-237119.7	1	282725.6	-57.00227	-1.622495E-010	0.0072447	5
	56	83	2.504006	179209.4	-269536.9	1	323676	-56.3809	5.400863E-010	0.0072596	5
	57	86	1.998082	205453.7	-305745.4	1	368363.2	-56.09983	2.183491E-010	0.0072959	5
	58	89	1.584686	233610.1	-349107.1	1	420058.9	-56.21097	1.472033E-010	0.0072308	5
	59	93	1.266892	264187.5	-401088.9	1	480278.4	-56.62807	1.682474E-010	0.0072909	5
	60	97	0.999041	300340.1	-466463.4	1	554790.3	-57.22388	-1.141606E-010	0.007216	5
