EXPLAIN
TAG	EISPOT
TITLE	LABEL	Potentiostatic EIS	Test &Identifier
DATE	LABEL	10/18/2019	Date
TIME	LABEL	9:15:25	Time
NOTES	NOTES	1	&Notes...
	
PSTAT	PSTAT	REF600-11020	Potentiostat
VDC	POTEN	0.00000E+000	T	DC &Voltage (V)
FREQINIT	QUANT	1.00000E+006	Initial Fre&q. (Hz)
FREQFINAL	QUANT	1.00000E+000	Final Fre&q. (Hz)
PTSPERDEC	QUANT	1.00000E+001	Points/&decade
VAC	QUANT	2.50000E+001	AC &Voltage (mV rms)
AREA	QUANT	1.00000E-002	&Area (cm^2)
CONDIT	TWOPARAM	T	5.00000E+000	0.00000E+000	Conditionin&g	Time(s)	E(V)
DELAY	TWOPARAM	T	5.00000E+000	0.00000E+000	Init. De&lay	Time(s)	Stab.(mV/s)
SPEED	SELECTOR	0	&Optimize for:
ZGUESS	QUANT	1.00000E+005	E&stimated Z (ohms)
OCVCURVE	TABLE	19
	Pt	T	Vf	Vm	Ach	Over
	#	s	V vs. Ref.	V	V	bits
	0	0.258333	4.19559E-003	4.19559E-003	5.56733E-004	...........
	1	0.516667	4.19574E-003	4.20319E-003	5.48233E-004	...........
	2	0.775	4.19566E-003	4.15984E-003	5.46699E-004	...........
	3	1.03333	4.18757E-003	3.87347E-003	5.43899E-004	...........
	4	1.29167	4.15181E-003	3.87846E-003	5.49099E-004	...........
	5	1.55	4.07836E-003	3.85389E-003	5.46433E-004	...........
	6	1.80833	3.98892E-003	3.86600E-003	5.47566E-004	...........
	7	2.06667	3.91736E-003	3.87859E-003	5.44699E-004	...........
	8	2.325	3.87844E-003	3.85951E-003	5.45499E-004	...........
	9	2.58333	3.86573E-003	3.89879E-003	5.50366E-004	...........
	10	2.84167	3.86709E-003	3.88783E-003	5.50299E-004	...........
	11	3.1	3.87424E-003	3.89318E-003	5.47399E-004	...........
	12	3.35833	3.88258E-003	3.90970E-003	5.50533E-004	...........
	13	3.61667	3.89041E-003	3.92196E-003	5.53933E-004	...........
	14	3.875	3.89867E-003	3.92810E-003	5.53199E-004	...........
	15	4.13333	3.90798E-003	3.92799E-003	5.50699E-004	...........
	16	4.39167	3.91762E-003	3.96988E-003	5.48733E-004	...........
	17	4.65	3.92876E-003	3.99808E-003	5.47133E-004	...........
	18	4.90833	3.94421E-003	3.99403E-003	5.47966E-004	...........
EOC	QUANT	0.0039442	Open Circuit (V)
PSTATMODEL	IQUANT	4	Pstat Model
PSTATSECTION	LABEL	REF600-11020	Pstat Section
PSTATSERIALNO	LABEL	11020	Pstat Serial Number
CTRLMODE	IQUANT	1	Control Mode
IESTAB	IQUANT	0	I/E Stability
CASPEED	IQUANT	1	Control Amp Speed
CONVENTION	IQUANT	1	Current Convention
ICHRANGE	IQUANT	2	Ich Range
ICHRANGEMODE	TOGGLE	F	Ich Auto Range
ICHOFFSETENABLE	TOGGLE	T	Ich Offset Enable
ICHOFFSET	QUANT	0	Ich Offset (V)
ICHFILTER	IQUANT	3	Ich Filter
VCHRANGE	IQUANT	2	Vch Range
VCHRANGEMODE	TOGGLE	F	Vch Auto Range
VCHOFFSETENABLE	TOGGLE	T	Vch Offset Enable
VCHOFFSET	QUANT	0	Vch Offset (V)
VCHFILTER	IQUANT	3	Vch Filter
ACHRANGE	IQUANT	2	Ach Range
ACHOFFSETENABLE	TOGGLE	F	Ach Offset Enable
ACHOFFSET	QUANT	0	Ach Offset (V)
ACHFILTER	IQUANT	3	Ach Filter
IERANGELOWERLIMIT	IQUANT	1	I/E Range Lower Limit
IERANGEMODE	TOGGLE	F	I/E AutoRange
IERANGE	IQUANT	4	I/E Range
POSFEEDENABLE	TOGGLE	F	Positive Feedback IR Comp
POSFEEDRESISTANCE	QUANT	0	Positive Feedback Resistance (ohm)
ACHSELECT	IQUANT	0	Ach Select
CABLEID	IQUANT	14	Cable ID
DCCALDATE	LABEL	8/19/2019	DC Calibration Date
ACCALDATE	LABEL	8/19/2019	AC Calibration Date
THERMOSELECT	IQUANT	1	Thermo Select
FRAMEWORKVERSION	QUANT	6.33	Framework Version
INSTRUMENTVERSION	LABEL	3.50	Instrument Version
ZCURVE	TABLE
	Pt	Time	Freq	Zreal	Zimag	Zsig	Zmod	Zphz	Idc	Vdc	IERange
	#	s	Hz	ohm	ohm	V	ohm	°	A	V	#
	0	1	1000078	1886.53	-587.393	1	1975.861	-17.29458	4.785782E-006	0.0053497	8
	1	1	794390.6	1954.879	-505.3776	1	2019.147	-14.49483	-9.266651E-007	0.0058642	8
	2	2	630984.4	2013.184	-437.4041	1	2060.153	-12.25813	-6.843196E-008	0.0057246	8
	3	2	501234.4	2052.182	-373.7411	1	2085.938	-10.32152	4.159942E-006	0.0050034	8
	4	2	398109.4	2089.862	-328.8619	1	2115.578	-8.942765	3.039413E-006	0.0049977	8
	5	3	316265.6	2117.285	-291.0567	1	2137.197	-7.827217	1.709589E-006	0.0051442	8
	6	3	251203.1	2138.115	-257.7322	1	2153.593	-6.873372	3.046366E-006	0.0049143	8
	7	3	199546.9	2157.808	-236.9154	1	2170.775	-6.265664	8.497616E-007	0.0054211	8
	8	4	158578.1	2180.176	-222.03	1	2191.453	-5.814975	-2.626286E-006	0.006254	8
	9	4	125953.1	2205.277	-178.6507	1	2212.501	-4.63145	2.183692E-007	0.0052235	7
	10	4	100078.1	2221.127	-174.3152	1	2227.957	-4.487403	5.918045E-008	0.0054572	7
	11	5	79453.13	2236.994	-182.5164	1	2244.428	-4.664433	-2.727363E-008	0.0056235	7
	12	5	63140.62	2255.012	-195.5438	1	2263.475	-4.956016	1.360007E-009	0.0056411	7
	13	5	50203.12	2275.435	-211.3691	1	2285.231	-5.307075	-1.065418E-008	0.0055948	7
	14	6	39890.62	2298.358	-230.5602	1	2309.894	-5.728472	1.047726E-007	0.005396	7
	15	6	31640.63	2323.273	-252.7959	1	2336.986	-6.209937	-2.933476E-008	0.0056238	7
	16	6	25171.88	2350.695	-279.803	1	2367.289	-6.787974	-5.496793E-008	0.0056128	7
	17	6	20015.62	2380.377	-307.4921	1	2400.156	-7.360586	2.839191E-008	0.0055164	7
	18	7	15890.62	2414.504	-349.1436	1	2439.617	-8.228086	3.596638E-008	0.0054252	7
	19	7	12609.37	2452.115	-393.5071	1	2483.488	-9.116902	-2.931593E-008	0.0055505	7
	20	7	10078.13	2492.649	-442.5299	1	2531.627	-10.06705	-2.027562E-008	0.0055881	7
	21	8	8015.625	2542.649	-494.747	1	2590.335	-11.01099	1.070043E-007	0.0053878	7
	22	8	6328.125	2588.767	-570.7891	1	2650.946	-12.43402	1.855601E-009	0.0056338	7
	23	8	5015.625	2642.828	-650.7114	1	2721.758	-13.83211	6.658172E-008	0.0054081	7
	24	9	3984.375	2699.381	-745.5125	1	2800.437	-15.43904	-1.238214E-008	0.0055928	7
	25	9	3170.956	2760.586	-857.482	1	2890.693	-17.25563	-2.802491E-008	0.0056188	7
	26	9	2527.573	2823.846	-990.654	1	2992.575	-19.33175	-2.921504E-009	0.0055487	7
	27	10	1976.103	2895.178	-1168.05	1	3121.922	-21.97145	1.175884E-009	0.0056333	7
	28	10	1577.524	2949.834	-1362.717	1	3249.387	-24.79524	3.648154E-009	0.005636	7
	29	10	1265.625	3035.087	-1610.019	1	3435.683	-27.94455	-3.222395E-008	0.0056185	7
	30	11	998.264	3120.495	-1932.631	1	3670.497	-31.77138	2.894762E-008	0.005515	7
	31	11	796.875	3207.446	-2314.235	1	3955.173	-35.81118	3.999686E-008	0.0054194	7
	32	11	627.7902	3319.273	-2820.75	1	4355.938	-40.3582	-2.78275E-008	0.0056168	7
	33	12	505.5147	3440.356	-3383.418	1	4825.305	-44.52193	-3.062215E-008	0.0055493	7
	34	12	397.9953	3600.2	-4153.455	1	5496.602	-49.08137	3.02766E-009	0.0055606	7
	35	12	315.5048	3795.358	-5077.514	1	6339.234	-53.22249	3.64979E-009	0.0055608	7
	36	13	252.4038	4029.87	-6164.792	1	7365.087	-56.82771	1.398578E-009	0.0055583	7
	37	13	198.6229	4350.655	-7597.835	1	8755.301	-60.20378	3.27344E-009	0.0055588	7
	38	13	158.3615	4741.85	-9252.908	1	10397.18	-62.86616	6.472552E-010	0.0054989	6
	39	13	125.558	5247.74	-11324.08	1	12480.93	-65.13633	7.324765E-010	0.0054985	6
	40	14	100.4464	5871.508	-13717.47	1	14921.25	-66.82756	-1.290884E-009	0.005499	6
	41	14	79.00281	6757.284	-16840.34	1	18145.47	-68.1366	6.525478E-010	0.0054938	6
	42	14	63.3446	7628.313	-20528.37	1	21899.89	-69.61501	8.731345E-011	0.0054934	6
	43	15	49.86702	9014.109	-24986.89	1	26563.11	-70.16291	3.813815E-010	0.005495	6
	44	15	39.72458	10813.57	-30084.63	1	31969.02	-70.22962	3.509046E-010	0.0055011	6
	45	16	31.6723	12910.44	-36118.83	1	38356.87	-70.33089	8.867966E-010	0.0054961	6
	46	16	24.93351	15552.03	-43963.68	1	46633.36	-70.5189	-2.890218E-010	0.0054927	6
	47	16	19.86229	18847.89	-52730.45	1	55997.71	-70.33115	-4.148191E-010	0.0055019	6
	48	16	15.83615	22363.72	-62855.69	1	66715.62	-70.41472	8.908161E-010	0.0054922	6
	49	17	12.40079	27313.94	-76182.74	1	80931.21	-70.27563	-1.879347E-009	0.0054922	6
	50	17	9.93114	33609.29	-90949.88	1	96961.2	-69.71889	-5.286642E-010	0.0054929	6
	51	18	7.944915	40616.02	-108033.5	1	115416.2	-69.39587	-3.640861E-010	0.0054984	5
	52	18	6.317385	49309.63	-128734.9	1	137855.4	-69.04154	-5.126787E-010	0.0055053	5
	53	19	5.008013	60025.27	-153943.1	1	165231.7	-68.69827	-5.178584E-010	0.0054911	5
	54	20	3.945707	73564.73	-183939.6	1	198104.9	-68.20157	1.837974E-012	0.0054954	5
	55	22	3.158693	89101.33	-217559	1	235097.8	-67.72844	1.40348E-011	0.0055092	5
	56	23	2.504006	108951.2	-258620.7	1	280633.3	-67.15538	-2.282181E-010	0.0055007	5
	57	24	1.998082	131870.1	-304298.1	1	331643	-66.5701	3.234471E-012	0.0055127	5
	58	26	1.584686	161059.6	-360493.9	1	394836.8	-65.92611	7.857744E-011	0.0055412	5
	59	28	1.266892	193681.5	-423238.2	1	465449.4	-65.4103	3.643608E-011	0.0055204	5
	60	30	0.999041	236062.6	-499711.3	1	552663.5	-64.71404	3.461356E-011	0.0054992	5
