EXPLAIN
TAG	EISPOT
TITLE	LABEL	Potentiostatic IDE	Test &Identifier
DATE	LABEL	9/8/2019	Date
TIME	LABEL	9:47:12	Time
NOTES	NOTES	1	&Notes...
	
PSTAT	PSTAT	REF600-11020	Potentiostat
VDC	POTEN	0.00000E+000	T	DC &Voltage (V)
FREQINIT	QUANT	1.00000E+006	Initial Fre&q. (Hz)
FREQFINAL	QUANT	1.00000E+000	Final Fre&q. (Hz)
PTSPERDEC	QUANT	1.00000E+001	Points/&decade
VAC	QUANT	2.50000E+001	AC &Voltage (mV rms)
AREA	QUANT	1.00000E-002	&Area (cm^2)
CONDIT	TWOPARAM	T	5.00000E+000	0.00000E+000	Conditionin&g	Time(s)	E(V)
DELAY	TWOPARAM	T	5.00000E+000	0.00000E+000	Init. De&lay	Time(s)	Stab.(mV/s)
SPEED	SELECTOR	1	&Optimize for:
ZGUESS	QUANT	1.00000E+007	E&stimated Z (ohms)
OCVCURVE	TABLE	19
	Pt	T	Vf	Vm	Ach	Over
	#	s	V vs. Ref.	V	V	bits
	0	0.258333	9.82626E-003	9.82626E-003	5.77032E-004	...........
	1	0.516667	9.82706E-003	9.86822E-003	5.73399E-004	...........
	2	0.775	9.84427E-003	1.05511E-002	5.73099E-004	...........
	3	1.03333	9.91513E-003	1.02306E-002	5.77232E-004	...........
	4	1.29167	1.00439E-002	1.01467E-002	5.74665E-004	...........
	5	1.55	1.01641E-002	1.01464E-002	5.72566E-004	...........
	6	1.80833	1.02180E-002	1.03415E-002	5.70132E-004	...........
	7	2.06667	1.02317E-002	1.05636E-002	5.67332E-004	...........
	8	2.325	1.02710E-002	1.06750E-002	5.69699E-004	...........
	9	2.58333	1.03680E-002	1.08410E-002	5.70866E-004	...........
	10	2.84167	1.05079E-002	1.09769E-002	5.69999E-004	...........
	11	3.1	1.06625E-002	1.10941E-002	5.69166E-004	...........
	12	3.35833	1.08132E-002	1.12067E-002	5.73166E-004	...........
	13	3.61667	1.09522E-002	1.13157E-002	5.68499E-004	...........
	14	3.875	1.10787E-002	1.14219E-002	5.69966E-004	...........
	15	4.13333	1.11955E-002	1.15248E-002	5.72632E-004	...........
	16	4.39167	1.13057E-002	1.16218E-002	5.74299E-004	...........
	17	4.65	1.14114E-002	1.17143E-002	5.73565E-004	...........
	18	4.90833	1.15132E-002	1.18041E-002	5.76466E-004	...........
EOC	QUANT	0.0115132	Open Circuit (V)
PSTATMODEL	IQUANT	4	Pstat Model
PSTATSECTION	LABEL	REF600-11020	Pstat Section
PSTATSERIALNO	LABEL	11020	Pstat Serial Number
CTRLMODE	IQUANT	1	Control Mode
IESTAB	IQUANT	0	I/E Stability
CASPEED	IQUANT	1	Control Amp Speed
CONVENTION	IQUANT	1	Current Convention
ICHRANGE	IQUANT	2	Ich Range
ICHRANGEMODE	TOGGLE	F	Ich Auto Range
ICHOFFSETENABLE	TOGGLE	T	Ich Offset Enable
ICHOFFSET	QUANT	0	Ich Offset (V)
ICHFILTER	IQUANT	3	Ich Filter
VCHRANGE	IQUANT	2	Vch Range
VCHRANGEMODE	TOGGLE	F	Vch Auto Range
VCHOFFSETENABLE	TOGGLE	T	Vch Offset Enable
VCHOFFSET	QUANT	0	Vch Offset (V)
VCHFILTER	IQUANT	3	Vch Filter
ACHRANGE	IQUANT	2	Ach Range
ACHOFFSETENABLE	TOGGLE	F	Ach Offset Enable
ACHOFFSET	QUANT	0	Ach Offset (V)
ACHFILTER	IQUANT	3	Ach Filter
IERANGELOWERLIMIT	IQUANT	1	I/E Range Lower Limit
IERANGEMODE	TOGGLE	F	I/E AutoRange
IERANGE	IQUANT	3	I/E Range
POSFEEDENABLE	TOGGLE	F	Positive Feedback IR Comp
POSFEEDRESISTANCE	QUANT	0	Positive Feedback Resistance (ohm)
ACHSELECT	IQUANT	0	Ach Select
CABLEID	IQUANT	14	Cable ID
DCCALDATE	LABEL	8/19/2019	DC Calibration Date
ACCALDATE	LABEL	8/19/2019	AC Calibration Date
THERMOSELECT	IQUANT	1	Thermo Select
FRAMEWORKVERSION	QUANT	6.33	Framework Version
INSTRUMENTVERSION	LABEL	3.50	Instrument Version
ZCURVE	TABLE
	Pt	Time	Freq	Zreal	Zimag	Zsig	Zmod	Zphz	Idc	Vdc	IERange
	#	s	Hz	ohm	ohm	V	ohm	°	A	V	#
	0	2	1000078	2772.093	-1874.301	1	3346.267	-34.06389	-3.033557E-006	0.0142856	8
	1	4	794390.6	3130.253	-1791.039	1	3606.425	-29.77693	7.158043E-006	0.0123854	8
	2	5	630984.4	3461.77	-1670.101	1	3843.578	-25.75459	-4.634277E-006	0.0137154	8
	3	7	501234.4	3732.085	-1497.98	1	4021.492	-21.86948	2.44839E-006	0.0127722	8
	4	8	398109.4	3953.828	-1328.293	1	4170.985	-18.56983	8.838375E-007	0.0130074	8
	5	10	316265.6	4116.447	-1150.101	1	4274.093	-15.60993	2.353175E-006	0.0125074	8
	6	11	251203.1	4239.37	-1002.236	1	4356.229	-13.30117	-1.114116E-006	0.0134661	8
	7	13	199546.9	4351.989	-879.4041	1	4439.95	-11.4239	-9.591628E-007	0.0134597	8
	8	14	158578.1	4403.26	-777.2509	1	4471.333	-10.01057	1.084955E-007	0.0133871	8
	9	16	125953.1	4524.521	-646.8287	1	4570.523	-8.135917	1.117001E-006	0.0107065	7
	10	17	100078.1	4563.743	-597.4005	1	4602.677	-7.457696	-5.450508E-008	0.0131773	7
	11	18	79453.13	4612.982	-570.0518	1	4648.071	-7.044643	-1.114292E-008	0.0131703	7
	12	20	63140.62	4661.532	-561.0665	1	4695.176	-6.86316	1.620838E-007	0.0128834	7
	13	21	50203.12	4710.015	-565.5834	1	4743.851	-6.847351	-5.185942E-008	0.0131651	7
	14	22	39890.62	4768.092	-576.322	1	4802.796	-6.89194	-5.061862E-008	0.0132809	7
	15	24	31640.63	4815.642	-610.3969	1	4854.173	-7.223886	4.435526E-008	0.013081	7
	16	25	25171.88	4871.661	-655.1653	1	4915.519	-7.659466	-7.981479E-008	0.0132439	7
	17	26	20015.62	4932.661	-711.8126	1	4983.756	-8.211439	-4.262221E-008	0.013174	7
	18	28	15890.62	5000.993	-790.6067	1	5063.101	-8.983539	-1.063038E-008	0.0131533	7
	19	29	12609.37	5073.266	-879.6158	1	5148.957	-9.8363	5.478948E-008	0.0129481	7
	20	30	10078.13	5152.209	-987.945	1	5246.075	-10.8548	1.638106E-007	0.012873	7
	21	32	8015.625	5241.255	-1124.057	1	5360.435	-12.10449	-1.972226E-008	0.0132868	7
	22	33	6328.125	5343.067	-1292.3	1	5497.127	-13.59672	1.631167E-007	0.0128724	7
	23	34	5015.625	5459.204	-1489.544	1	5658.768	-15.26167	-2.26742E-008	0.0130961	7
	24	36	3984.375	5589.562	-1725.509	1	5849.836	-17.15556	-5.04311E-008	0.0131576	7
	25	37	3170.956	5736.427	-2005.07	1	6076.75	-19.2662	-5.98277E-008	0.0132371	7
	26	38	2527.573	5900.494	-2331.516	1	6344.43	-21.56091	-8.132454E-008	0.0132337	7
	27	40	1976.103	6111.212	-2757.522	1	6704.539	-24.28601	-1.970991E-008	0.0132777	7
	28	41	1577.524	6332.157	-3219.903	1	7103.801	-26.95335	9.205112E-008	0.0130741	7
	29	42	1265.625	6582.236	-3754.817	1	7577.895	-29.70247	-5.84477E-008	0.0132346	7
	30	44	998.264	6884.349	-4429.884	1	8186.46	-32.76014	-4.328846E-008	0.0131674	7
	31	45	796.875	7205.577	-5198.883	1	8885.31	-35.81076	4.58117E-008	0.0130736	7
	32	46	627.7902	7601.104	-6174.398	1	9792.85	-39.08706	1.253698E-009	0.013191	6
	33	48	505.5147	7998.116	-7241.208	1	10789.11	-42.15656	-6.781717E-009	0.0130737	6
	34	49	397.9953	8486.559	-8660.457	1	12125.39	-45.58105	1.53848E-009	0.0130686	6
	35	50	315.5048	9025.217	-10342.93	1	13727.01	-48.89212	3.298664E-010	0.0130742	6
	36	52	252.4038	9614.84	-12306.01	1	15616.76	-51.99907	1.095768E-009	0.0130687	6
	37	53	198.6229	10349.97	-14890.07	1	18133.84	-55.19715	1.281338E-009	0.013075	6
	38	54	158.3615	11165.96	-17875.2	1	21076.09	-58.00854	9.087084E-010	0.0130639	6
	39	56	125.558	12164.56	-21628.41	1	24814.61	-60.64511	1.280124E-009	0.0130731	6
	40	57	100.4464	13347.41	-26040.07	1	29261.55	-62.86159	1.658997E-009	0.0130693	6
	41	58	79.00281	14784.47	-31757.1	1	35029.9	-65.03574	3.152247E-010	0.0130638	6
	42	60	63.3446	17013.65	-38193.43	1	41811.51	-65.98894	1.060527E-009	0.0130602	6
	43	61	49.86702	18665.76	-46599.36	1	50198.71	-68.17102	1.325246E-009	0.013059	6
	44	62	39.72458	21745.17	-56560.88	1	60596.91	-68.97044	1.114867E-009	0.0130716	6
	45	64	31.6723	25248.5	-68677.27	1	73171.4	-69.81456	1.447429E-009	0.0130652	6
	46	65	24.93351	29879.69	-83673.19	1	88848.17	-70.34836	1.030001E-009	0.0130679	6
	47	66	19.86229	35637.16	-100988.5	1	107091.9	-70.5629	3.840986E-010	0.0130641	5
	48	68	15.83615	41526.12	-122043.3	1	128914.6	-71.20875	1.350771E-009	0.0130728	5
	49	69	12.40079	53842	-147994.2	1	157484.1	-70.00803	1.730575E-009	0.0130718	5
	50	70	9.93114	64745.01	-178037.3	1	189444.5	-70.01571	6.848339E-010	0.0130701	5
	51	72	7.944915	79320.06	-211250.3	1	225650.9	-69.41989	1.084578E-009	0.0130715	5
	52	74	6.317385	99479.8	-253710.4	1	272516.4	-68.58987	4.940861E-010	0.013068	5
	53	76	5.008013	124955.6	-302212.7	1	327026.6	-67.53642	3.918947E-010	0.0130813	5
	54	78	3.945707	157668.5	-360011.1	1	393023.3	-66.34877	4.595686E-011	0.0130643	5
	55	81	3.158693	195986.8	-420981.7	1	464366.7	-65.03581	1.138593E-010	0.0130638	5
	56	84	2.504006	244008	-492759.6	1	549865.4	-63.65599	2.879089E-010	0.0130792	5
	57	87	1.998082	298745.3	-569675.5	1	643256.5	-62.32689	3.866546E-010	0.0130956	5
	58	90	1.584686	369953	-657132.5	1	754114.3	-60.62133	1.694155E-010	0.0130331	5
	59	94	1.266892	448443.8	-752770.8	1	876222.4	-59.21672	2.434095E-010	0.0131038	5
	60	98	0.999041	546396.7	-862133	1	1020697	-57.63458	-6.95299E-011	0.0130273	4
