EXPLAIN
TAG	EISPOT
TITLE	LABEL	Potentiostatic IDE	Test &Identifier
DATE	LABEL	9/10/2019	Date
TIME	LABEL	9:51:48	Time
NOTES	NOTES	1	&Notes...
	
PSTAT	PSTAT	REF600-11020	Potentiostat
VDC	POTEN	0.00000E+000	T	DC &Voltage (V)
FREQINIT	QUANT	1.00000E+006	Initial Fre&q. (Hz)
FREQFINAL	QUANT	1.00000E+000	Final Fre&q. (Hz)
PTSPERDEC	QUANT	1.00000E+001	Points/&decade
VAC	QUANT	2.50000E+001	AC &Voltage (mV rms)
AREA	QUANT	1.00000E-002	&Area (cm^2)
CONDIT	TWOPARAM	T	5.00000E+000	0.00000E+000	Conditionin&g	Time(s)	E(V)
DELAY	TWOPARAM	T	5.00000E+000	0.00000E+000	Init. De&lay	Time(s)	Stab.(mV/s)
SPEED	SELECTOR	1	&Optimize for:
ZGUESS	QUANT	1.00000E+007	E&stimated Z (ohms)
OCVCURVE	TABLE	19
	Pt	T	Vf	Vm	Ach	Over
	#	s	V vs. Ref.	V	V	bits
	0	0.258333	2.14686E-002	2.14686E-002	5.65999E-004	...........
	1	0.516667	2.14789E-002	2.20110E-002	5.74765E-004	...........
	2	0.775	2.15430E-002	2.25502E-002	5.74599E-004	...........
	3	1.03333	2.17262E-002	2.30755E-002	5.69066E-004	...........
	4	1.29167	2.20575E-002	2.35831E-002	5.71032E-004	...........
	5	1.55	2.25041E-002	2.40698E-002	5.72399E-004	...........
	6	1.80833	2.30060E-002	2.45454E-002	5.70066E-004	...........
	7	2.06667	2.35170E-002	2.49968E-002	5.63999E-004	...........
	8	2.325	2.40146E-002	2.54362E-002	5.68832E-004	...........
	9	2.58333	2.44922E-002	2.58576E-002	5.72732E-004	...........
	10	2.84167	2.49501E-002	2.62645E-002	5.65866E-004	...........
	11	3.1	2.53902E-002	2.66583E-002	5.63832E-004	...........
	12	3.35833	2.58140E-002	2.70399E-002	5.72632E-004	...........
	13	3.61667	2.62230E-002	2.74047E-002	5.74565E-004	...........
	14	3.875	2.66179E-002	2.77557E-002	5.66966E-004	...........
	15	4.13333	2.69989E-002	2.80966E-002	5.66666E-004	...........
	16	4.39167	2.73660E-002	2.84261E-002	5.66466E-004	...........
	17	4.65	2.77201E-002	2.87441E-002	5.69799E-004	...........
	18	4.90833	2.80619E-002	2.90535E-002	5.69132E-004	...........
EOC	QUANT	0.0280619	Open Circuit (V)
PSTATMODEL	IQUANT	4	Pstat Model
PSTATSECTION	LABEL	REF600-11020	Pstat Section
PSTATSERIALNO	LABEL	11020	Pstat Serial Number
CTRLMODE	IQUANT	1	Control Mode
IESTAB	IQUANT	0	I/E Stability
CASPEED	IQUANT	1	Control Amp Speed
CONVENTION	IQUANT	1	Current Convention
ICHRANGE	IQUANT	2	Ich Range
ICHRANGEMODE	TOGGLE	F	Ich Auto Range
ICHOFFSETENABLE	TOGGLE	T	Ich Offset Enable
ICHOFFSET	QUANT	0	Ich Offset (V)
ICHFILTER	IQUANT	3	Ich Filter
VCHRANGE	IQUANT	2	Vch Range
VCHRANGEMODE	TOGGLE	F	Vch Auto Range
VCHOFFSETENABLE	TOGGLE	T	Vch Offset Enable
VCHOFFSET	QUANT	0	Vch Offset (V)
VCHFILTER	IQUANT	3	Vch Filter
ACHRANGE	IQUANT	2	Ach Range
ACHOFFSETENABLE	TOGGLE	F	Ach Offset Enable
ACHOFFSET	QUANT	0	Ach Offset (V)
ACHFILTER	IQUANT	3	Ach Filter
IERANGELOWERLIMIT	IQUANT	1	I/E Range Lower Limit
IERANGEMODE	TOGGLE	F	I/E AutoRange
IERANGE	IQUANT	3	I/E Range
POSFEEDENABLE	TOGGLE	F	Positive Feedback IR Comp
POSFEEDRESISTANCE	QUANT	0	Positive Feedback Resistance (ohm)
ACHSELECT	IQUANT	0	Ach Select
CABLEID	IQUANT	14	Cable ID
DCCALDATE	LABEL	8/19/2019	DC Calibration Date
ACCALDATE	LABEL	8/19/2019	AC Calibration Date
THERMOSELECT	IQUANT	1	Thermo Select
FRAMEWORKVERSION	QUANT	6.33	Framework Version
INSTRUMENTVERSION	LABEL	3.50	Instrument Version
ZCURVE	TABLE
	Pt	Time	Freq	Zreal	Zimag	Zsig	Zmod	Zphz	Idc	Vdc	IERange
	#	s	Hz	ohm	ohm	V	ohm	°	A	V	#
	0	2	1000078	2844.651	-1978.26	1	3464.903	-34.81598	-3.769633E-009	0.0304534	8
	1	4	794390.6	3223.126	-1889.392	1	3736.087	-30.37878	2.15822E-007	0.0299757	8
	2	5	630984.4	3568.333	-1759.614	1	3978.598	-26.24879	-3.663079E-006	0.0304592	8
	3	6	501234.4	3853.042	-1588.946	1	4167.815	-22.41063	5.024356E-007	0.0296077	8
	4	8	398109.4	4070.102	-1441.63	1	4317.874	-19.50414	6.286467E-008	0.0297165	8
	5	9	316265.6	4267.041	-1281.51	1	4455.323	-16.71646	-1.110228E-006	0.0298188	8
	6	10	251203.1	4411.109	-1135.833	1	4554.998	-14.43962	2.256676E-007	0.0296251	8
	7	12	199546.9	4556.359	-1024.031	1	4670.016	-12.66662	1.284739E-006	0.029296	8
	8	13	158578.1	4622.908	-912.871	1	4712.177	-11.17031	3.216507E-006	0.0288931	8
	9	14	125953.1	4741.784	-833.3167	1	4814.45	-9.96733	4.170982E-007	0.0291454	7
	10	16	100078.1	4806.699	-791.1174	1	4871.368	-9.346314	-4.304415E-008	0.0296091	7
	11	17	79453.13	4878.062	-779.6219	1	4939.969	-9.080337	1.18305E-008	0.0296215	7
	12	19	63140.62	4950.188	-782.9438	1	5011.723	-8.987703	-4.774212E-010	0.0295261	7
	13	20	50203.12	5025.751	-804.4818	1	5089.731	-9.094296	9.20977E-008	0.0294186	7
	14	21	39890.62	5101.979	-840.3461	1	5170.723	-9.353199	-8.10503E-009	0.0295888	7
	15	23	31640.63	5191.846	-893.2303	1	5268.123	-9.76188	-4.564608E-008	0.029624	7
	16	24	25171.88	5284.666	-963.969	1	5371.864	-10.33759	3.589785E-008	0.0294376	7
	17	25	20015.62	5388.781	-1052.265	1	5490.557	-11.04908	-3.067684E-008	0.0295453	7
	18	27	15890.62	5501.42	-1161.358	1	5622.667	-11.92021	1.311816E-008	0.0296101	7
	19	28	12609.37	5627.675	-1292.124	1	5774.107	-12.93109	9.383231E-008	0.029409	7
	20	29	10078.13	5768.612	-1436.089	1	5944.681	-13.97954	-2.301018E-008	0.0295361	7
	21	31	8015.625	5920.032	-1613.125	1	6135.874	-15.24224	9.299326E-008	0.0294091	7
	22	32	6328.125	6103.767	-1826.542	1	6371.203	-16.65973	-1.070765E-010	0.0295198	7
	23	33	5015.625	6303.825	-2067.75	1	6634.29	-18.16027	3.513977E-008	0.0294345	7
	24	35	3984.375	6529.678	-2347.047	1	6938.684	-19.77062	4.006699E-008	0.0294991	7
	25	36	3170.956	6788.386	-2662.307	1	7291.78	-21.4144	1.637895E-008	0.0294584	7
	26	37	2527.573	7079.718	-3024.453	1	7698.684	-23.13216	-2.932903E-008	0.0295414	7
	27	39	1976.103	7441.171	-3474.897	1	8212.547	-25.03175	3.519118E-008	0.029435	7
	28	40	1577.524	7824.848	-3941.516	1	8761.495	-26.73521	-5.669447E-008	0.029612	7
	29	41	1265.625	8246.78	-4461.733	1	9376.377	-28.4146	1.52955E-008	0.0296101	7
	30	43	998.264	8758.972	-5067.617	1	10119.3	-30.05208	-4.674485E-009	0.0296063	6
	31	44	796.875	9285.521	-5721.306	1	10906.61	-31.63944	-1.518712E-009	0.0296242	6
	32	45	627.7902	9877.91	-6506.978	1	11828.52	-33.37451	-4.958045E-009	0.0295047	6
	33	47	505.5147	10413.14	-7329.781	1	12734.17	-35.14162	-1.453569E-009	0.0294801	6
	34	48	397.9953	11021.19	-8409.31	1	13863.01	-37.3441	2.156123E-010	0.0294992	6
	35	49	315.5048	11589.76	-9705.16	1	15116.63	-39.94251	2.70005E-010	0.0294963	6
	36	51	252.4038	12124.44	-11261.28	1	16547.46	-42.88618	1.778834E-010	0.0294992	6
	37	52	198.6229	12703.32	-13374.58	1	18445.97	-46.47448	4.204867E-010	0.0295025	6
	38	53	158.3615	13282.12	-15908.69	1	20724.41	-50.1416	3.92798E-010	0.029498	6
	39	55	125.558	13934.64	-19189.12	1	23714.9	-54.01382	5.798644E-010	0.0295005	6
	40	56	100.4464	14678.77	-23125.49	1	27390.77	-57.5949	1.88717E-010	0.0294969	6
	41	57	79.00281	15661.54	-28439.9	1	32467.08	-61.15891	6.920931E-010	0.0294971	6
	42	59	63.3446	16665.11	-34346.41	1	38175.93	-64.11702	1.74164E-010	0.0295008	6
	43	60	49.86702	18400.84	-42718.33	1	46512.87	-66.69614	2.294034E-010	0.0295001	6
	44	61	39.72458	20204.21	-52166.17	1	55942.11	-68.82837	3.106645E-010	0.0295023	6
	45	63	31.6723	22724.14	-63886.05	1	67807.19	-70.41963	8.334824E-011	0.0294987	6
	46	64	24.93351	26173.38	-78861.32	1	83091.23	-71.63945	1.914884E-010	0.0294972	6
	47	66	19.86229	30539.07	-96233.9	1	100963.3	-72.39357	2.728635E-010	0.0295025	6
	48	67	15.83615	35784	-117037.9	1	122386.1	-72.99914	1.855354E-010	0.0295057	5
	49	68	12.40079	43852.09	-144578.8	1	151082.9	-73.12697	2.971108E-010	0.0295075	5
	50	70	9.93114	53139.48	-174456.2	1	182369.9	-73.05923	2.22694E-010	0.0295066	5
	51	71	7.944915	64746.39	-210249.4	1	219993	-72.88377	2.169931E-010	0.029511	5
	52	73	6.317385	79484.02	-253627.9	1	265791	-72.59962	-4.342229E-011	0.0295241	5
	53	75	5.008013	98560.7	-306175.1	1	321648	-72.15614	1.3245E-010	0.0295137	5
	54	77	3.945707	122961.7	-370517.3	1	390387.8	-71.6408	-3.158901E-011	0.0295005	5
	55	80	3.158693	151022.3	-441986.8	1	467076.1	-71.13523	9.77449E-011	0.0295159	5
	56	83	2.504006	187159.6	-529186.9	1	561308.7	-70.52264	-3.076609E-011	0.0295132	5
	57	86	1.998082	228772	-627635.9	1	668029.5	-69.9733	1.019588E-010	0.0295005	5
	58	89	1.584686	282992.3	-748728.6	1	800424.3	-69.29523	1.017684E-011	0.0294637	5
	59	93	1.266892	342660.4	-886580.1	1	950495	-68.86864	6.60037E-011	0.0295261	5
	60	97	0.999041	423805.5	-1061143	1	1142644	-68.22894	-8.270507E-011	0.0294697	4
