EXPLAIN
TAG	EISPOT
TITLE	LABEL	Potentiostatic EIS	Test &Identifier
DATE	LABEL	10/28/2019	Date
TIME	LABEL	9:30:43	Time
NOTES	NOTES	1	&Notes...
	
PSTAT	PSTAT	REF600-11020	Potentiostat
VDC	POTEN	0.00000E+000	T	DC &Voltage (V)
FREQINIT	QUANT	1.00000E+006	Initial Fre&q. (Hz)
FREQFINAL	QUANT	1.00000E+000	Final Fre&q. (Hz)
PTSPERDEC	QUANT	1.00000E+001	Points/&decade
VAC	QUANT	2.50000E+001	AC &Voltage (mV rms)
AREA	QUANT	1.00000E-002	&Area (cm^2)
CONDIT	TWOPARAM	T	5.00000E+000	0.00000E+000	Conditionin&g	Time(s)	E(V)
DELAY	TWOPARAM	T	5.00000E+000	0.00000E+000	Init. De&lay	Time(s)	Stab.(mV/s)
SPEED	SELECTOR	1	&Optimize for:
ZGUESS	QUANT	1.00000E+005	E&stimated Z (ohms)
OCVCURVE	TABLE	19
	Pt	T	Vf	Vm	Ach	Over
	#	s	V vs. Ref.	V	V	bits
	0	0.258333	6.80824E-003	6.80824E-003	5.63466E-004	...........
	1	0.516667	6.80995E-003	6.89786E-003	5.63932E-004	...........
	2	0.775	6.81889E-003	6.90018E-003	5.57532E-004	...........
	3	1.03333	6.83825E-003	6.86767E-003	5.62566E-004	...........
	4	1.29167	6.86016E-003	6.85282E-003	5.62832E-004	...........
	5	1.55	6.87226E-003	6.85626E-003	5.63332E-004	...........
	6	1.80833	6.87256E-003	6.89909E-003	5.66799E-004	...........
	7	2.06667	6.87115E-003	6.93927E-003	5.58266E-004	...........
	8	2.325	6.87880E-003	6.93472E-003	5.65699E-004	...........
	9	2.58333	6.89678E-003	6.96339E-003	5.65466E-004	...........
	10	2.84167	6.91963E-003	7.02150E-003	5.63999E-004	...........
	11	3.1	6.94454E-003	7.01464E-003	5.62899E-004	...........
	12	3.35833	6.97111E-003	7.04336E-003	5.67099E-004	...........
	13	3.61667	6.99723E-003	7.07742E-003	5.62066E-004	...........
	14	3.875	7.02211E-003	7.11445E-003	5.65699E-004	...........
	15	4.13333	7.04823E-003	7.14317E-003	5.66299E-004	...........
	16	4.39167	7.07755E-003	7.18524E-003	5.68399E-004	...........
	17	4.65	7.10990E-003	7.21792E-003	5.63099E-004	...........
	18	4.90833	7.14437E-003	7.25702E-003	5.71899E-004	...........
EOC	QUANT	0.0071444	Open Circuit (V)
PSTATMODEL	IQUANT	4	Pstat Model
PSTATSECTION	LABEL	REF600-11020	Pstat Section
PSTATSERIALNO	LABEL	11020	Pstat Serial Number
CTRLMODE	IQUANT	1	Control Mode
IESTAB	IQUANT	0	I/E Stability
CASPEED	IQUANT	1	Control Amp Speed
CONVENTION	IQUANT	1	Current Convention
ICHRANGE	IQUANT	2	Ich Range
ICHRANGEMODE	TOGGLE	F	Ich Auto Range
ICHOFFSETENABLE	TOGGLE	T	Ich Offset Enable
ICHOFFSET	QUANT	0	Ich Offset (V)
ICHFILTER	IQUANT	3	Ich Filter
VCHRANGE	IQUANT	2	Vch Range
VCHRANGEMODE	TOGGLE	F	Vch Auto Range
VCHOFFSETENABLE	TOGGLE	T	Vch Offset Enable
VCHOFFSET	QUANT	0	Vch Offset (V)
VCHFILTER	IQUANT	3	Vch Filter
ACHRANGE	IQUANT	2	Ach Range
ACHOFFSETENABLE	TOGGLE	F	Ach Offset Enable
ACHOFFSET	QUANT	0	Ach Offset (V)
ACHFILTER	IQUANT	3	Ach Filter
IERANGELOWERLIMIT	IQUANT	1	I/E Range Lower Limit
IERANGEMODE	TOGGLE	F	I/E AutoRange
IERANGE	IQUANT	5	I/E Range
POSFEEDENABLE	TOGGLE	F	Positive Feedback IR Comp
POSFEEDRESISTANCE	QUANT	0	Positive Feedback Resistance (ohm)
ACHSELECT	IQUANT	0	Ach Select
CABLEID	IQUANT	14	Cable ID
DCCALDATE	LABEL	8/19/2019	DC Calibration Date
ACCALDATE	LABEL	8/19/2019	AC Calibration Date
THERMOSELECT	IQUANT	1	Thermo Select
FRAMEWORKVERSION	QUANT	6.33	Framework Version
INSTRUMENTVERSION	LABEL	3.50	Instrument Version
ZCURVE	TABLE
	Pt	Time	Freq	Zreal	Zimag	Zsig	Zmod	Zphz	Idc	Vdc	IERange
	#	s	Hz	ohm	ohm	V	ohm	°	A	V	#
	0	2	1000078	2531.308	-1735.265	1	3068.984	-34.43146	-7.889869E-008	0.0098038	8
	1	3	794390.6	2868.714	-1626.534	1	3297.747	-29.55284	1.914459E-006	0.0086852	8
	2	5	630984.4	3166.005	-1493.882	1	3500.753	-25.26032	5.528468E-006	0.0079708	8
	3	6	501234.4	3384.631	-1354.364	1	3645.549	-21.80888	-3.816832E-006	0.0093224	8
	4	8	398109.4	3608.787	-1183.757	1	3797.976	-18.16056	3.474845E-006	0.0082471	8
	5	9	316265.6	3755.934	-1031.616	1	3895.032	-15.35829	-1.369862E-006	0.0092578	8
	6	11	251203.1	3875.245	-876.1849	1	3973.062	-12.74025	4.605308E-006	0.007962	8
	7	13	199546.9	3936.535	-767.3753	1	4010.633	-11.03072	-2.03803E-006	0.0091845	8
	8	14	158578.1	4024.843	-660.4474	1	4078.67	-9.318772	-3.544149E-006	0.0095542	8
	9	15	125953.1	4094.365	-497.767	1	4124.512	-6.931642	-1.071432E-006	0.0113939	7
	10	17	100078.1	4140.258	-444.0353	1	4164.001	-6.121472	-1.30088E-008	0.0089281	7
	11	18	79453.13	4175.518	-408.8514	1	4195.487	-5.592366	-4.189715E-008	0.0087989	7
	12	19	63140.62	4205.873	-382.8146	1	4223.258	-5.200678	-1.276505E-008	0.0089213	7
	13	21	50203.12	4236.663	-368.5719	1	4252.665	-4.971975	-1.201024E-008	0.0089207	7
	14	22	39890.62	4267.047	-361.0227	1	4282.292	-4.836114	-4.258628E-008	0.0087916	7
	15	24	31640.63	4295.485	-364.4121	1	4310.916	-4.849138	-8.498819E-009	0.0087049	7
	16	25	25171.88	4324.329	-376.0598	1	4340.65	-4.970151	-1.687027E-008	0.0088245	7
	17	26	20015.62	4353.932	-397.1296	1	4372.005	-5.211626	9.477779E-008	0.0085725	7
	18	28	15890.62	4382.246	-432.0959	1	4403.497	-5.631247	-2.582305E-008	0.0087499	7
	19	29	12609.37	4413.139	-478.4936	1	4439.003	-6.188108	-5.960989E-009	0.0087133	7
	20	30	10078.13	4443.774	-537.2511	1	4476.133	-6.893587	-4.631807E-008	0.0087937	7
	21	32	8015.625	4436.494	-621.9409	1	4479.875	-7.980146	4.926218E-008	0.0086113	7
	22	33	6328.125	4511.247	-718.2181	1	4568.061	-9.045921	8.395126E-008	0.0086228	7
	23	34	5015.625	4550.425	-847.4228	1	4628.66	-10.54931	-9.97091E-009	0.0088158	7
	24	36	3984.375	4587.907	-980.061	1	4691.419	-12.05819	-4.66134E-008	0.0087901	7
	25	37	3170.956	4642.402	-1203.802	1	4795.939	-14.53696	8.209634E-008	0.0086215	7
	26	38	2527.573	4698.042	-1445.363	1	4915.351	-17.10063	-4.901425E-009	0.0088025	7
	27	40	1976.103	4765.844	-1770.593	1	5084.119	-20.38089	9.535281E-008	0.0085718	7
	28	41	1577.524	4915.61	-2204.736	1	5387.4	-24.15706	-8.294098E-009	0.0087951	7
	29	42	1265.625	4927.656	-2585.529	1	5564.778	-27.68588	-4.98357E-008	0.0089371	7
	30	44	998.264	5033.555	-3173.586	1	5950.49	-32.23086	9.676414E-008	0.0085711	7
	31	45	796.875	5160.772	-3859.866	1	6444.543	-36.7937	-4.641872E-008	0.0087904	7
	32	46	627.7902	5317.571	-4773.016	1	7145.505	-41.91094	-1.454479E-008	0.0088235	7
	33	48	505.5147	5499.749	-5774.883	1	7974.742	-46.39791	-8.028645E-008	0.0088861	7
	34	49	397.9953	5747.954	-7140.454	1	9166.518	-51.16648	6.210942E-009	0.008783	7
	35	50	315.5048	6053.943	-8785.122	1	10669.05	-55.42876	1.115676E-009	0.0087184	6
	36	52	252.4038	6423.649	-10730.1	1	12505.93	-59.09285	5.032877E-010	0.0087191	6
	37	53	198.6229	6937.148	-13298.42	1	14999.07	-62.45111	1.263375E-009	0.0087257	6
	38	55	158.3615	7576.198	-16283.58	1	17959.79	-65.04904	1.172143E-009	0.0087224	6
	39	56	125.558	8426.501	-20037.1	1	21736.86	-67.19106	7.594055E-010	0.0087225	6
	40	57	100.4464	9526.75	-24399.22	1	26193.14	-68.67169	1.672623E-009	0.0087157	6
	41	59	79.00281	11131.58	-30099.09	1	32091.54	-69.70405	4.316427E-010	0.0087162	6
	42	60	63.3446	12601.31	-36393.41	1	38513.29	-70.90146	3.641867E-010	0.0087145	6
	43	61	49.86702	16293.88	-44746.93	1	47621.19	-69.99171	1.652244E-009	0.0087127	6
	44	63	39.72458	19623.28	-54410.95	1	57841.38	-70.16819	1.387171E-009	0.0087199	6
	45	64	31.6723	24128.46	-65178.49	1	69501.2	-69.68593	5.110795E-010	0.008711	6
	46	66	24.93351	30897.2	-78908.16	1	84741.57	-68.61673	9.961523E-010	0.0087145	6
	47	67	19.86229	38904.03	-93506.35	1	101276.7	-67.40987	2.056278E-010	0.0087195	6
	48	68	15.83615	47229.91	-109749.1	1	119480.2	-66.71564	-1.345304E-009	0.0087186	5
	49	70	12.40079	62826.62	-131201.6	1	145468.4	-64.41231	-7.271704E-010	0.0087185	5
	50	71	9.93114	76901	-150328.3	1	168856	-62.90781	-2.044057E-010	0.0087269	5
	51	73	7.944915	93077.7	-173983.8	1	197316.6	-61.85415	1.736167E-010	0.0087247	5
	52	74	6.317385	112378.4	-198644.1	1	228228.8	-60.50199	3.477642E-010	0.0087279	5
	53	76	5.008013	134523.5	-228193.4	1	264893.9	-59.48001	3.703432E-010	0.0087289	5
	54	79	3.945707	160433.8	-263294.1	1	308322.5	-58.64466	-1.912807E-010	0.0087141	5
	55	81	3.158693	187938.4	-300407.4	1	354352.2	-57.96942	2.603187E-010	0.0087346	5
	56	85	2.504006	220878.3	-344932	1	409591.7	-57.3664	-2.478592E-010	0.0087245	5
	57	87	1.998082	256086.7	-392910.3	1	468997.8	-56.90495	2.186647E-010	0.0086834	5
	58	91	1.584686	297545.7	-451933.7	1	541089.2	-56.63976	-8.369802E-011	0.0086814	5
	59	94	1.266892	341913.9	-514485.7	1	617738.3	-56.39301	1.855745E-010	0.0086824	5
	60	98	0.999041	394463.5	-593894.6	1	712960.3	-56.40797	-1.511554E-010	0.0087344	5
