EXPLAIN
TAG	EISPOT
TITLE	LABEL	Potentiostatic EIS	Test &Identifier
DATE	LABEL	11/22/2019	Date
TIME	LABEL	10:17:23	Time
NOTES	NOTES	4	&Notes...
	
	
	
	
PSTAT	PSTAT	REF600-11020	Potentiostat
VDC	POTEN	0.00000E+000	T	DC &Voltage (V)
FREQINIT	QUANT	1.00000E+006	Initial Fre&q. (Hz)
FREQFINAL	QUANT	1.00000E+000	Final Fre&q. (Hz)
PTSPERDEC	QUANT	1.00000E+001	Points/&decade
VAC	QUANT	2.50000E+001	AC &Voltage (mV rms)
AREA	QUANT	1.00000E-002	&Area (cm^2)
CONDIT	TWOPARAM	T	5.00000E+000	0.00000E+000	Conditionin&g	Time(s)	E(V)
DELAY	TWOPARAM	T	5.00000E+000	0.00000E+000	Init. De&lay	Time(s)	Stab.(mV/s)
SPEED	SELECTOR	0	&Optimize for:
ZGUESS	QUANT	1.00000E+005	E&stimated Z (ohms)
OCVCURVE	TABLE	19
	Pt	T	Vf	Vm	Ach	Over
	#	s	V vs. Ref.	V	V	bits
	0	0.258333	4.10874E-003	4.10874E-003	5.35033E-004	...........
	1	0.516667	4.10562E-003	3.94509E-003	5.40433E-004	...........
	2	0.775	4.08669E-003	3.80391E-003	5.33666E-004	...........
	3	1.03333	4.03437E-003	3.68703E-003	5.30433E-004	...........
	4	1.29167	3.94391E-003	3.56802E-003	5.28300E-004	...........
	5	1.55	3.82880E-003	3.47771E-003	5.33133E-004	...........
	6	1.80833	3.70813E-003	3.39969E-003	5.36399E-004	...........
	7	2.06667	3.59544E-003	3.32254E-003	5.29666E-004	...........
	8	2.325	3.49621E-003	3.25577E-003	5.30266E-004	...........
	9	2.58333	3.40993E-003	3.19927E-003	5.34633E-004	...........
	10	2.84167	3.33412E-003	3.14242E-003	5.33733E-004	...........
	11	3.1	3.26670E-003	3.09597E-003	5.36966E-004	...........
	12	3.35833	3.20606E-003	3.04298E-003	5.39733E-004	...........
	13	3.61667	3.15071E-003	3.00367E-003	5.42699E-004	...........
	14	3.875	3.09942E-003	2.95628E-003	5.45933E-004	...........
	15	4.13333	3.05122E-003	2.90963E-003	5.36966E-004	...........
	16	4.39167	3.00493E-003	2.86693E-003	5.34200E-004	...........
	17	4.65	2.95966E-003	2.82916E-003	5.35966E-004	...........
	18	4.90833	2.91556E-003	2.79314E-003	5.38933E-004	...........
EOC	QUANT	0.0029156	Open Circuit (V)
PSTATMODEL	IQUANT	4	Pstat Model
PSTATSECTION	LABEL	REF600-11020	Pstat Section
PSTATSERIALNO	LABEL	11020	Pstat Serial Number
CTRLMODE	IQUANT	1	Control Mode
IESTAB	IQUANT	0	I/E Stability
CASPEED	IQUANT	1	Control Amp Speed
CONVENTION	IQUANT	1	Current Convention
ICHRANGE	IQUANT	2	Ich Range
ICHRANGEMODE	TOGGLE	F	Ich Auto Range
ICHOFFSETENABLE	TOGGLE	T	Ich Offset Enable
ICHOFFSET	QUANT	0	Ich Offset (V)
ICHFILTER	IQUANT	3	Ich Filter
VCHRANGE	IQUANT	2	Vch Range
VCHRANGEMODE	TOGGLE	F	Vch Auto Range
VCHOFFSETENABLE	TOGGLE	T	Vch Offset Enable
VCHOFFSET	QUANT	0	Vch Offset (V)
VCHFILTER	IQUANT	3	Vch Filter
ACHRANGE	IQUANT	2	Ach Range
ACHOFFSETENABLE	TOGGLE	F	Ach Offset Enable
ACHOFFSET	QUANT	0	Ach Offset (V)
ACHFILTER	IQUANT	3	Ach Filter
IERANGELOWERLIMIT	IQUANT	1	I/E Range Lower Limit
IERANGEMODE	TOGGLE	F	I/E AutoRange
IERANGE	IQUANT	4	I/E Range
POSFEEDENABLE	TOGGLE	F	Positive Feedback IR Comp
POSFEEDRESISTANCE	QUANT	0	Positive Feedback Resistance (ohm)
ACHSELECT	IQUANT	0	Ach Select
CABLEID	IQUANT	14	Cable ID
DCCALDATE	LABEL	8/19/2019	DC Calibration Date
ACCALDATE	LABEL	8/19/2019	AC Calibration Date
THERMOSELECT	IQUANT	1	Thermo Select
FRAMEWORKVERSION	QUANT	6.33	Framework Version
INSTRUMENTVERSION	LABEL	3.50	Instrument Version
ZCURVE	TABLE
	Pt	Time	Freq	Zreal	Zimag	Zsig	Zmod	Zphz	Idc	Vdc	IERange
	#	s	Hz	ohm	ohm	V	ohm	°	A	V	#
	0	2	1000078	2261.62	-1464.398	1	2694.325	-32.92304	-4.907216E-007	0.0059938	8
	1	2	794390.6	2592.209	-1373.268	1	2933.499	-27.91319	-1.951068E-006	0.0046538	8
	2	2	630984.4	2832.481	-1258.229	1	3099.37	-23.95148	5.236112E-006	0.0046912	8
	3	3	501234.4	3037.611	-1108.088	1	3233.41	-20.04142	9.500042E-008	0.0050836	8
	4	3	398109.4	3175.613	-970.118	1	3320.489	-16.98738	-2.305352E-007	0.00429	8
	5	3	316265.6	3303.345	-842.0978	1	3408.99	-14.3014	-7.802417E-008	0.004258	8
	6	4	251203.1	3398.584	-735.788	1	3477.321	-12.21591	-4.677639E-006	0.0049367	8
	7	4	199546.9	3480.864	-630.5806	1	3537.519	-10.26814	5.810185E-006	0.003846	8
	8	4	158578.1	3520.034	-587.4777	1	3568.721	-9.475076	-4.623172E-007	0.005004	8
	9	5	125953.1	3595.087	-434.5097	1	3621.249	-6.891462	-4.469086E-007	0.002568	7
	10	5	100078.1	3619.122	-394.6557	1	3640.577	-6.223363	-1.04326E-006	0.0050297	7
	11	5	79453.13	3649.9	-369.8807	1	3668.594	-5.786598	-7.279109E-007	0.0043492	7
	12	5	63140.62	3677.871	-356.444	1	3695.103	-5.535581	-1.216265E-006	0.0055901	7
	13	6	50203.12	3706.451	-351.3916	1	3723.071	-5.415762	-1.222066E-006	0.0059545	7
	14	6	39890.62	3735.955	-356.0648	1	3752.884	-5.444278	-1.222827E-006	0.0059552	7
	15	6	31640.63	3767.623	-372.3838	1	3785.981	-5.644659	6.067069E-007	0.0047058	7
	16	7	25171.88	3798.053	-394.4748	1	3818.484	-5.929614	7.728561E-007	0.0027365	7
	17	7	20015.62	3820.409	-433.7672	1	3844.955	-6.477593	-1.222775E-006	0.0059493	7
	18	7	15890.62	3866.332	-469.5755	1	3894.743	-6.924798	1.151587E-007	0.0031372	7
	19	8	12609.37	3910.189	-525.9499	1	3945.403	-7.660734	-1.223903E-006	0.0059457	7
	20	8	10078.13	3950.567	-590.3867	1	3994.438	-8.499581	-7.286954E-007	0.0043409	7
	21	8	8015.625	3999.155	-673.7213	1	4055.507	-9.5626	6.066538E-007	0.0047	7
	22	9	6328.125	4050.395	-777.5749	1	4124.357	-10.86715	1.094523E-006	0.0033627	7
	23	9	5015.625	4104.309	-901.861	1	4202.227	-12.39294	3.890491E-007	0.005014	7
	24	9	3984.375	4163.12	-1050.669	1	4293.655	-14.16426	1.008777E-006	0.0037806	7
	25	10	3170.956	4227.53	-1244.713	1	4406.963	-16.40602	1.095641E-006	0.0033652	7
	26	10	2527.573	4294.694	-1473.208	1	4540.346	-18.93349	6.068507E-007	0.0046996	7
	27	10	1976.103	4381.75	-1782.462	1	4730.423	-22.13611	-1.042738E-006	0.0050044	7
	28	11	1577.524	4529.596	-2127.385	1	5004.298	-25.15772	6.054239E-007	0.0046942	7
	29	11	1265.625	4582.421	-2544.949	1	5241.693	-29.04658	-7.271389E-007	0.0043309	7
	30	11	998.264	4719.797	-3098.932	1	5646.226	-33.28817	-7.273812E-007	0.0043293	7
	31	11	796.875	4873.154	-3733.782	1	6139.117	-37.45912	-1.220809E-006	0.0059369	7
	32	12	627.7902	5069.098	-4556.174	1	6815.751	-41.94963	-6.140398E-007	0.0060764	7
	33	12	505.5147	5273.748	-5478.537	1	7604.393	-46.09113	9.75765E-007	0.002806	7
	34	13	397.9953	5552.458	-6700.804	1	8702.331	-50.35398	3.145595E-009	0.0045068	7
	35	13	315.5048	5873.86	-8167.726	1	10060.52	-54.27801	2.699979E-009	0.0045065	7
	36	13	252.4038	6246.538	-9887.57	1	11695.44	-57.71708	5.985924E-010	0.0044385	6
	37	14	198.6229	6726.955	-12163.07	1	13899.36	-61.05459	7.26786E-010	0.0044537	6
	38	14	158.3615	7290.526	-14810.04	1	16507.24	-63.79039	3.704856E-010	0.004453	6
	39	14	125.558	8000.725	-18139.87	1	19825.9	-66.19976	8.220952E-010	0.0044546	6
	40	14	100.4464	8895.116	-22064.09	1	23789.65	-68.04322	4.189041E-010	0.00444	6
	41	15	79.00281	10088.77	-27196.24	1	29007.22	-69.64706	-5.343654E-010	0.0044547	6
	42	15	63.3446	11476.8	-33373.57	1	35291.81	-71.02247	5.198301E-010	0.0044541	6
	43	16	49.86702	13462.55	-40997.05	1	43150.88	-71.82093	-1.173509E-009	0.0044468	6
	44	16	39.72458	16185.48	-49630.11	1	52202.66	-71.93771	-1.642004E-010	0.0044564	6
	45	16	31.6723	19556.9	-60153.59	1	63252.88	-71.98982	6.052902E-010	0.004445	6
	46	17	24.93351	24261.67	-73772.02	1	77659.13	-71.79533	-4.464683E-010	0.0044526	6
	47	17	19.86229	30176.17	-89138.41	1	94107.69	-71.29741	-1.070625E-009	0.0044511	6
	48	17	15.83615	38507.73	-107466.1	1	114157	-70.28616	1.013302E-009	0.0044406	5
	49	17	12.40079	49261.79	-128522.6	1	137640	-69.02853	1.806439E-009	0.0044551	5
	50	18	9.93114	62295.72	-153392.5	1	165559.7	-67.89695	1.515307E-011	0.0044509	5
	51	18	7.944915	78303.98	-180255.6	1	196528.9	-66.51962	-9.201591E-010	0.0044578	5
	52	19	6.317385	99932	-210785.6	1	233274.5	-64.63468	-5.024796E-010	0.0044714	5
	53	20	5.008013	126288.3	-245088.7	1	275712.2	-62.73905	-6.266377E-011	0.0044503	5
	54	21	3.945707	158071.9	-282786.7	1	323967.6	-60.79571	6.674866E-011	0.0044393	5
	55	22	3.158693	192557.5	-321750.9	1	374969.4	-59.10085	2.473143E-010	0.004454	5
	56	24	2.504006	232752.5	-364977	1	432876.4	-57.47359	2.001759E-010	0.0044523	5
	57	25	1.998082	276535.3	-410881.8	1	495273.3	-56.05832	-4.882849E-011	0.0044075	5
	58	27	1.584686	323746.2	-462709.7	1	564722.8	-55.0205	2.901942E-011	0.0044342	5
	59	29	1.266892	374454.9	-518185.1	1	639321.8	-54.14708	1.074536E-010	0.0044692	5
	60	31	0.999041	433526.8	-587766.1	1	730352.3	-53.58811	1.46227E-010	0.0044901	5
