EXPLAIN
TAG	EISPOT
TITLE	LABEL	Potentiostatic EIS	Test &Identifier
DATE	LABEL	10/6/2019	Date
TIME	LABEL	10:27:59	Time
NOTES	NOTES	2	&Notes...
	
	
PSTAT	PSTAT	REF600-11020	Potentiostat
VDC	POTEN	0.00000E+000	T	DC &Voltage (V)
FREQINIT	QUANT	1.00000E+006	Initial Fre&q. (Hz)
FREQFINAL	QUANT	1.00000E+000	Final Fre&q. (Hz)
PTSPERDEC	QUANT	1.00000E+001	Points/&decade
VAC	QUANT	2.50000E+001	AC &Voltage (mV rms)
AREA	QUANT	1.00000E-002	&Area (cm^2)
CONDIT	TWOPARAM	T	5.00000E+000	0.00000E+000	Conditionin&g	Time(s)	E(V)
DELAY	TWOPARAM	T	5.00000E+000	0.00000E+000	Init. De&lay	Time(s)	Stab.(mV/s)
SPEED	SELECTOR	1	&Optimize for:
ZGUESS	QUANT	1.00000E+004	E&stimated Z (ohms)
OCVCURVE	TABLE	19
	Pt	T	Vf	Vm	Ach	Over
	#	s	V vs. Ref.	V	V	bits
	0	0.258333	4.11539E-003	4.11539E-003	5.58766E-004	...........
	1	0.516667	4.11272E-003	3.97577E-003	5.50766E-004	...........
	2	0.775	4.09665E-003	3.85959E-003	5.50433E-004	...........
	3	1.03333	4.05249E-003	3.76247E-003	5.53333E-004	...........
	4	1.29167	3.97678E-003	3.67464E-003	5.58032E-004	...........
	5	1.55	3.88172E-003	3.59921E-003	5.50833E-004	...........
	6	1.80833	3.78355E-003	3.52853E-003	5.55633E-004	...........
	7	2.06667	3.69237E-003	3.46820E-003	5.57933E-004	...........
	8	2.325	3.61139E-003	3.41267E-003	5.57566E-004	...........
	9	2.58333	3.54023E-003	3.36785E-003	5.59466E-004	...........
	10	2.84167	3.47766E-003	3.32253E-003	5.58166E-004	...........
	11	3.1	3.42250E-003	3.28582E-003	5.56566E-004	...........
	12	3.35833	3.37362E-003	3.25065E-003	5.56366E-004	...........
	13	3.61667	3.33001E-003	3.21801E-003	5.58199E-004	...........
	14	3.875	3.29072E-003	3.18541E-003	5.61666E-004	...........
	15	4.13333	3.25478E-003	3.15870E-003	5.57299E-004	...........
	16	4.39167	3.22148E-003	3.13163E-003	5.54566E-004	...........
	17	4.65	3.19057E-003	3.10887E-003	5.60966E-004	...........
	18	4.90833	3.16204E-003	3.08688E-003	5.62699E-004	...........
EOC	QUANT	0.003162	Open Circuit (V)
PSTATMODEL	IQUANT	4	Pstat Model
PSTATSECTION	LABEL	REF600-11020	Pstat Section
PSTATSERIALNO	LABEL	11020	Pstat Serial Number
CTRLMODE	IQUANT	1	Control Mode
IESTAB	IQUANT	0	I/E Stability
CASPEED	IQUANT	1	Control Amp Speed
CONVENTION	IQUANT	1	Current Convention
ICHRANGE	IQUANT	2	Ich Range
ICHRANGEMODE	TOGGLE	F	Ich Auto Range
ICHOFFSETENABLE	TOGGLE	T	Ich Offset Enable
ICHOFFSET	QUANT	0	Ich Offset (V)
ICHFILTER	IQUANT	3	Ich Filter
VCHRANGE	IQUANT	2	Vch Range
VCHRANGEMODE	TOGGLE	F	Vch Auto Range
VCHOFFSETENABLE	TOGGLE	T	Vch Offset Enable
VCHOFFSET	QUANT	0	Vch Offset (V)
VCHFILTER	IQUANT	3	Vch Filter
ACHRANGE	IQUANT	2	Ach Range
ACHOFFSETENABLE	TOGGLE	F	Ach Offset Enable
ACHOFFSET	QUANT	0	Ach Offset (V)
ACHFILTER	IQUANT	3	Ach Filter
IERANGELOWERLIMIT	IQUANT	1	I/E Range Lower Limit
IERANGEMODE	TOGGLE	F	I/E AutoRange
IERANGE	IQUANT	5	I/E Range
POSFEEDENABLE	TOGGLE	F	Positive Feedback IR Comp
POSFEEDRESISTANCE	QUANT	0	Positive Feedback Resistance (ohm)
ACHSELECT	IQUANT	0	Ach Select
CABLEID	IQUANT	14	Cable ID
DCCALDATE	LABEL	8/19/2019	DC Calibration Date
ACCALDATE	LABEL	8/19/2019	AC Calibration Date
THERMOSELECT	IQUANT	1	Thermo Select
FRAMEWORKVERSION	QUANT	6.33	Framework Version
INSTRUMENTVERSION	LABEL	3.50	Instrument Version
ZCURVE	TABLE
	Pt	Time	Freq	Zreal	Zimag	Zsig	Zmod	Zphz	Idc	Vdc	IERange
	#	s	Hz	ohm	ohm	V	ohm	°	A	V	#
	0	2	1000078	2350.781	-1192.123	1	2635.779	-26.89038	2.79422E-007	0.0054858	8
	1	3	794390.6	2540.585	-1089.512	1	2764.346	-23.21173	1.467819E-006	0.0050678	8
	2	4	630984.4	2706.017	-955.979	1	2869.917	-19.45725	-5.541225E-006	0.0059853	8
	3	6	501234.4	2821.112	-838.5458	1	2943.099	-16.55403	5.069168E-006	0.0042388	8
	4	7	398109.4	2940.703	-736.5331	1	3031.536	-14.06113	3.174856E-007	0.0048967	8
	5	9	316265.6	3015.323	-640.1254	1	3082.521	-11.98543	2.447744E-006	0.004373	8
	6	10	251203.1	3075.933	-565.3436	1	3127.455	-10.41449	3.094243E-007	0.0048759	8
	7	11	199546.9	3125.719	-506.5667	1	3166.501	-9.205547	3.810405E-006	0.0042091	8
	8	13	158578.1	3172.99	-465.2777	1	3206.922	-8.342228	-3.889139E-007	0.0048089	8
	9	14	125953.1	3219.463	-379.7786	1	3241.786	-6.727709	1.098841E-006	0.0023719	7
	10	15	100078.1	3249.921	-357.8333	1	3269.562	-6.283256	-4.12955E-008	0.0048144	7
	11	17	79453.13	3283.766	-351.4119	1	3302.515	-6.108255	1.246961E-008	0.0048973	7
	12	18	63140.62	3320.234	-352.5678	1	3338.901	-6.061388	1.016318E-007	0.0047084	7
	13	20	50203.12	3357.817	-356.8567	1	3376.727	-6.066418	-6.951653E-008	0.0049205	7
	14	21	39890.62	3396.907	-366.8946	1	3416.663	-6.16453	-3.788717E-008	0.0048002	7
	15	22	31640.63	3436.482	-381.6513	1	3457.61	-6.337227	-1.795636E-008	0.0048617	7
	16	24	25171.88	3478.243	-401.1534	1	3501.299	-6.578981	5.526925E-008	0.0047006	7
	17	25	20015.62	3521.861	-426.7615	1	3547.623	-6.909132	-6.023711E-008	0.0048659	7
	18	26	15890.62	3565.765	-459.7726	1	3595.285	-7.347225	-4.568045E-008	0.0048927	7
	19	28	12609.37	3610.579	-502.1162	1	3645.326	-7.917233	6.070904E-008	0.0046913	7
	20	29	10078.13	3657.05	-550.5342	1	3698.257	-8.561052	-2.875002E-008	0.004778	7
	21	30	8015.625	3705.257	-610.6955	1	3755.247	-9.359271	-3.857012E-008	0.004796	7
	22	32	6328.125	3758.347	-695.3026	1	3822.122	-10.48134	1.229019E-007	0.0046038	7
	23	33	5015.625	3813.17	-793.8154	1	3894.921	-11.75972	-6.070435E-008	0.0048637	7
	24	34	3984.375	3873.953	-916.319	1	3980.848	-13.30778	-2.527683E-009	0.0047339	7
	25	36	3170.956	3932.006	-1060.865	1	4072.604	-15.09902	-2.772643E-008	0.0047771	7
	26	37	2527.573	3995.447	-1242.008	1	4184.039	-17.26816	-2.990644E-008	0.0047739	7
	27	39	1976.103	4071.666	-1484.411	1	4333.813	-20.03039	1.023632E-007	0.0046944	7
	28	40	1577.524	4150.159	-1761.771	1	4508.62	-23.00155	-2.499592E-009	0.004735	7
	29	41	1265.625	4231.046	-2094.539	1	4721.106	-26.33727	-1.013656E-008	0.004815	7
	30	43	998.264	4332.575	-2539.002	1	5021.726	-30.37141	-8.111775E-008	0.0050289	7
	31	44	796.875	4445.768	-3060.577	1	5397.405	-34.54449	-5.980116E-008	0.0048649	7
	32	45	627.7902	4587.831	-3744.29	1	5921.815	-39.21909	1.495089E-008	0.0047131	7
	33	47	505.5147	4733.211	-4500.552	1	6531.329	-43.55664	-1.399224E-008	0.0048561	7
	34	48	397.9953	4956.546	-5549.78	1	7440.928	-48.23174	3.228776E-009	0.0048125	7
	35	50	315.5048	5215.142	-6796.224	1	8566.584	-52.49886	4.174271E-009	0.0048104	7
	36	51	252.4038	5526.896	-8264.181	1	9942	-56.2263	4.692351E-009	0.0048095	7
	37	52	198.6229	5957.108	-10199.54	1	11811.76	-59.71265	8.453027E-010	0.0047479	6
	38	54	158.3615	6480.116	-12442.87	1	14029.14	-62.48997	9.984704E-010	0.0047487	6
	39	55	125.558	7168.871	-15249.88	1	16850.86	-64.82207	1.118143E-009	0.0047485	6
	40	56	100.4464	8037.29	-18540.5	1	20207.63	-66.56331	1.193569E-009	0.0047526	6
	41	58	79.00281	9246.397	-22845.33	1	24645.58	-67.9649	4.946967E-010	0.0047488	6
	42	59	63.3446	10699.42	-27741.79	1	29733.56	-68.90943	4.760723E-010	0.0047485	6
	43	61	49.86702	12821.53	-33675.98	1	36034.2	-69.15656	-4.797569E-011	0.0047443	6
	44	62	39.72458	15542.64	-40816.33	1	43675.46	-69.15343	1.109985E-009	0.0047503	6
	45	63	31.6723	19006.67	-49053.49	1	52607.02	-68.82023	-6.82336E-011	0.0047497	6
	46	65	24.93351	23912.37	-59373.66	1	64008.07	-68.0632	-9.899691E-011	0.0047485	6
	47	66	19.86229	30040.04	-70591.95	1	76717.84	-66.94807	1.193022E-009	0.0047566	6
	48	68	15.83615	37498.48	-83801.05	1	91808.24	-65.89291	2.471933E-009	0.0047548	6
	49	69	12.40079	47855.55	-98082.4	1	109134.4	-63.99172	-4.604651E-010	0.0047614	5
	50	70	9.93114	59179	-113808.1	1	128274.8	-62.52605	6.295196E-011	0.0047576	5
	51	72	7.944915	72036.73	-130454.6	1	149022.5	-61.09262	-2.555718E-010	0.0047501	5
	52	74	6.317385	87617.06	-148939.2	1	172799.4	-59.53281	-2.817969E-010	0.0047507	5
	53	76	5.008013	104918.7	-169581.8	1	199414	-58.25531	-1.692062E-010	0.0047464	5
	54	78	3.945707	124000.5	-193448.4	1	229779	-57.34012	3.612242E-011	0.0047548	5
	55	81	3.158693	142905.8	-218827.9	1	261357.4	-56.8534	1.953792E-010	0.0047532	5
	56	84	2.504006	163901.5	-250087.6	1	299010.8	-56.76012	-1.425202E-010	0.0047621	5
	57	87	1.998082	185436.7	-285650.3	1	340562.5	-57.00942	2.200041E-010	0.0047145	5
	58	90	1.584686	209537.4	-331038.5	1	391781	-57.66742	-4.520528E-011	0.0047292	5
	59	94	1.266892	235903.2	-382437.3	1	449342.5	-58.33199	1.689397E-010	0.0047166	5
	60	98	0.999041	267718.9	-449576.3	1	523251.6	-59.22656	-7.025822E-011	0.0047749	5
