EXPLAIN
TAG	EISPOT
TITLE	LABEL	Potentiostatic EIS	Test &Identifier
DATE	LABEL	10/18/2019	Date
TIME	LABEL	9:55:44	Time
NOTES	NOTES	1	&Notes...
	
PSTAT	PSTAT	REF600-11020	Potentiostat
VDC	POTEN	0.00000E+000	T	DC &Voltage (V)
FREQINIT	QUANT	1.00000E+006	Initial Fre&q. (Hz)
FREQFINAL	QUANT	1.00000E+000	Final Fre&q. (Hz)
PTSPERDEC	QUANT	1.00000E+001	Points/&decade
VAC	QUANT	2.50000E+001	AC &Voltage (mV rms)
AREA	QUANT	1.00000E-002	&Area (cm^2)
CONDIT	TWOPARAM	T	5.00000E+000	0.00000E+000	Conditionin&g	Time(s)	E(V)
DELAY	TWOPARAM	T	5.00000E+000	0.00000E+000	Init. De&lay	Time(s)	Stab.(mV/s)
SPEED	SELECTOR	0	&Optimize for:
ZGUESS	QUANT	1.00000E+005	E&stimated Z (ohms)
OCVCURVE	TABLE	19
	Pt	T	Vf	Vm	Ach	Over
	#	s	V vs. Ref.	V	V	bits
	0	0.258333	2.84772E-003	2.84772E-003	5.29066E-004	...........
	1	0.516667	2.88168E-003	4.62560E-003	5.25333E-004	...........
	2	0.775	3.06088E-003	4.77359E-003	5.29533E-004	...........
	3	1.03333	3.47263E-003	5.04308E-003	5.31366E-004	...........
	4	1.29167	4.02571E-003	5.02859E-003	5.28000E-004	...........
	5	1.55	4.52414E-003	5.12782E-003	5.29866E-004	...........
	6	1.80833	4.85455E-003	5.07824E-003	5.27866E-004	...........
	7	2.06667	5.02329E-003	5.06621E-003	5.27933E-004	...........
	8	2.325	5.08538E-003	5.05893E-003	5.24066E-004	...........
	9	2.58333	5.09280E-003	5.05138E-003	5.23333E-004	...........
	10	2.84167	5.08117E-003	5.08965E-003	5.27633E-004	...........
	11	3.1	5.07352E-003	5.22079E-003	5.28900E-004	...........
	12	3.35833	5.08649E-003	5.26609E-003	5.21233E-004	...........
	13	3.61667	5.12725E-003	5.33130E-003	5.21466E-004	...........
	14	3.875	5.18851E-003	5.39900E-003	5.22600E-004	...........
	15	4.13333	5.24993E-003	5.08156E-003	5.21300E-004	...........
	16	4.39167	5.25878E-003	3.99989E-003	5.22766E-004	...........
	17	4.65	5.17878E-003	6.73517E-003	5.25233E-004	...........
	18	4.90833	5.15101E-003	6.82895E-003	5.26066E-004	...........
EOC	QUANT	0.005151	Open Circuit (V)
PSTATMODEL	IQUANT	4	Pstat Model
PSTATSECTION	LABEL	REF600-11020	Pstat Section
PSTATSERIALNO	LABEL	11020	Pstat Serial Number
CTRLMODE	IQUANT	1	Control Mode
IESTAB	IQUANT	0	I/E Stability
CASPEED	IQUANT	1	Control Amp Speed
CONVENTION	IQUANT	1	Current Convention
ICHRANGE	IQUANT	2	Ich Range
ICHRANGEMODE	TOGGLE	F	Ich Auto Range
ICHOFFSETENABLE	TOGGLE	T	Ich Offset Enable
ICHOFFSET	QUANT	0	Ich Offset (V)
ICHFILTER	IQUANT	3	Ich Filter
VCHRANGE	IQUANT	2	Vch Range
VCHRANGEMODE	TOGGLE	F	Vch Auto Range
VCHOFFSETENABLE	TOGGLE	T	Vch Offset Enable
VCHOFFSET	QUANT	0	Vch Offset (V)
VCHFILTER	IQUANT	3	Vch Filter
ACHRANGE	IQUANT	2	Ach Range
ACHOFFSETENABLE	TOGGLE	F	Ach Offset Enable
ACHOFFSET	QUANT	0	Ach Offset (V)
ACHFILTER	IQUANT	3	Ach Filter
IERANGELOWERLIMIT	IQUANT	1	I/E Range Lower Limit
IERANGEMODE	TOGGLE	F	I/E AutoRange
IERANGE	IQUANT	4	I/E Range
POSFEEDENABLE	TOGGLE	F	Positive Feedback IR Comp
POSFEEDRESISTANCE	QUANT	0	Positive Feedback Resistance (ohm)
ACHSELECT	IQUANT	0	Ach Select
CABLEID	IQUANT	14	Cable ID
DCCALDATE	LABEL	8/19/2019	DC Calibration Date
ACCALDATE	LABEL	8/19/2019	AC Calibration Date
THERMOSELECT	IQUANT	1	Thermo Select
FRAMEWORKVERSION	QUANT	6.33	Framework Version
INSTRUMENTVERSION	LABEL	3.50	Instrument Version
ZCURVE	TABLE
	Pt	Time	Freq	Zreal	Zimag	Zsig	Zmod	Zphz	Idc	Vdc	IERange
	#	s	Hz	ohm	ohm	V	ohm	°	A	V	#
	0	2	1000078	2572.341	-2123.071	1	3335.321	-39.53442	-1.366221E-006	0.0077764	8
	1	2	794390.6	2990.648	-2171.237	1	3695.707	-35.97998	2.030401E-006	0.0068914	8
	2	2	630984.4	3422.226	-2119.887	1	4025.612	-31.77601	1.410546E-006	0.0064895	8
	3	3	501234.4	3825.763	-2027.09	1	4329.614	-27.91698	-5.053819E-006	0.0081328	8
	4	3	398109.4	4170.282	-1871.19	1	4570.843	-24.16559	-2.907805E-006	0.0074245	8
	5	3	316265.6	4449.387	-1650.873	1	4745.78	-20.35655	9.41847E-007	0.0066627	8
	6	4	251203.1	4699.568	-1529.368	1	4942.156	-18.0263	-3.03701E-006	0.0075369	8
	7	4	199546.9	4895.58	-1316.455	1	5069.493	-15.05118	1.579468E-006	0.0067194	8
	8	4	158578.1	5068.602	-1171.929	1	5202.321	-13.01878	3.823675E-006	0.0061447	8
	9	5	125953.1	5184.988	-900.8793	1	5262.669	-9.85661	6.431498E-007	0.0054215	7
	10	5	100078.1	5283.168	-813.6315	1	5345.453	-8.755022	-3.56791E-008	0.0068695	7
	11	5	79453.13	5349.332	-732.5744	1	5399.261	-7.797972	-4.604543E-009	0.0068753	7
	12	6	63140.62	5410.174	-672.1253	1	5451.765	-7.081775	-4.270193E-008	0.0068611	7
	13	6	50203.12	5462.736	-630.8002	1	5499.036	-6.58696	-1.856115E-008	0.006802	7
	14	6	39890.62	5516.355	-607.8819	1	5549.748	-6.28841	-2.05114E-008	0.0068087	7
	15	7	31640.63	5564.612	-600.0459	1	5596.871	-6.154565	-4.68423E-009	0.0068731	7
	16	7	25171.88	5615.969	-609.9467	1	5648.995	-6.198561	4.525069E-008	0.0067854	7
	17	7	20015.62	5626.532	-631.4269	1	5661.852	-6.40312	1.385946E-007	0.0066269	7
	18	7	15890.62	5716.627	-670.7643	1	5755.845	-6.692239	-5.71664E-008	0.007005	7
	19	8	12609.37	5777.026	-725.284	1	5822.376	-7.155831	-4.701502E-008	0.0069269	7
	20	8	10078.13	5833.39	-802.4465	1	5888.324	-7.832502	4.466779E-008	0.0067789	7
	21	8	8015.625	5886.965	-881.7026	1	5952.626	-8.51799	4.355045E-008	0.0067784	7
	22	9	6328.125	5957.446	-1025.357	1	6045.042	-9.7657	-2.1099E-008	0.0067965	7
	23	9	5015.625	6029.068	-1181.649	1	6143.773	-11.08896	6.333438E-008	0.0067205	7
	24	10	3984.375	6113.084	-1400.897	1	6271.547	-12.90725	1.378723E-007	0.0066277	7
	25	10	3170.956	6188.438	-1611.7	1	6394.868	-14.59768	-5.808466E-008	0.0070027	7
	26	11	2527.573	6283.443	-1901.887	1	6564.97	-16.84013	3.546792E-008	0.006695	7
	27	11	1976.103	6404.768	-2289.216	1	6801.585	-19.66809	6.404245E-008	0.0067271	7
	28	11	1577.524	6459.382	-2803.197	1	7041.415	-23.45954	1.386506E-007	0.0066151	7
	29	12	1265.625	6661.841	-3256.379	1	7415.129	-26.04988	-2.243058E-008	0.006793	7
	30	12	998.264	6829.737	-3939.533	1	7884.493	-29.97724	-5.843307E-008	0.0069984	7
	31	12	796.875	7024.919	-4738.721	1	8473.781	-34.00198	6.22558E-008	0.0067168	7
	32	13	627.7902	7251.81	-5791.008	1	9280.33	-38.60948	4.476486E-008	0.0067747	7
	33	13	505.5147	7502.446	-6939.605	1	10219.83	-42.76818	4.608645E-009	0.0065492	6
	34	13	397.9953	7825.263	-8518.474	1	11567.16	-47.42871	-1.988973E-010	0.0067793	6
	35	14	315.5048	8206.759	-10419.22	1	13263.15	-51.77407	1.600167E-009	0.0067789	6
	36	14	252.4038	8656.054	-12665.8	1	15341.11	-55.65054	1.412024E-009	0.0067742	6
	37	14	198.6229	9268.858	-15634.81	1	18175.78	-59.33907	6.848261E-011	0.0067735	6
	38	14	158.3615	10008.11	-19084.1	1	21549.13	-62.32652	-4.972794E-010	0.0067725	6
	39	15	125.558	10987.08	-23433.01	1	25880.92	-64.87944	2.32588E-010	0.0067692	6
	40	15	100.4464	12155.15	-28587.43	1	31064.27	-66.96519	1.365656E-009	0.0067663	6
	41	15	79.00281	13753.52	-35299.49	1	37884.21	-68.71293	-1.082694E-010	0.0067682	6
	42	16	63.3446	16759.94	-42197.01	1	45403.56	-68.33786	2.70426E-010	0.0067654	6
	43	16	49.86702	19607.5	-52287.62	1	55843.08	-69.4443	-3.312816E-011	0.0067583	6
	44	17	39.72458	22867.84	-63703.35	1	67683.49	-70.25319	5.315915E-010	0.0067627	6
	45	17	31.6723	27893.53	-76686.88	1	81602.24	-70.01202	-8.80477E-010	0.0067649	6
	46	17	24.93351	35148.52	-94046.3	1	100399.8	-69.50745	1.765178E-010	0.0067599	6
	47	18	19.86229	44550.62	-112329.8	1	120841.8	-68.36644	7.946558E-010	0.0067693	5
	48	18	15.83615	53507.45	-132921.2	1	143286.8	-68.07274	1.377569E-009	0.0067612	5
	49	18	12.40079	70663.07	-160068.8	1	174972.2	-66.18073	-8.450927E-010	0.006759	5
	50	19	9.93114	92889.99	-186143.2	1	208033.3	-63.47969	-5.833648E-010	0.0067631	5
	51	19	7.944915	115926.9	-214690.5	1	243989.9	-61.63218	2.682983E-011	0.0067578	5
	52	20	6.317385	143838.2	-244478.1	1	283652.9	-59.52966	-1.091392E-010	0.0067695	5
	53	20	5.008013	176849.2	-277455.5	1	329024.6	-57.48671	-3.715983E-010	0.006756	5
	54	22	3.945707	214266.1	-311496.3	1	378074	-55.47744	-1.720304E-011	0.0067609	5
	55	23	3.158693	253395.3	-345986.7	1	428854.2	-53.78153	-1.773482E-011	0.0067788	5
	56	25	2.504006	295816.7	-385280.3	1	485745.2	-52.48309	-2.298748E-010	0.0067641	5
	57	26	1.998082	337213.8	-426613.4	1	543794.3	-51.67562	-6.567176E-012	0.0067847	5
	58	27	1.584686	382792.1	-477656.2	1	612115.4	-51.29143	9.815441E-011	0.0068223	5
	59	29	1.266892	426560.7	-536716.6	1	685579.1	-51.52374	5.512184E-011	0.006787	5
	60	32	0.999041	476358	-611386.7	1	775055.3	-52.07629	3.12119E-011	0.006762	5
