EXPLAIN
TAG	EISPOT
TITLE	LABEL	Potentiostatic EIS	Test &Identifier
DATE	LABEL	11/15/2019	Date
TIME	LABEL	10:23:30	Time
NOTES	NOTES	4	&Notes...
	
	
	
	
PSTAT	PSTAT	REF600-11020	Potentiostat
VDC	POTEN	0.00000E+000	T	DC &Voltage (V)
FREQINIT	QUANT	1.00000E+006	Initial Fre&q. (Hz)
FREQFINAL	QUANT	1.00000E+000	Final Fre&q. (Hz)
PTSPERDEC	QUANT	1.00000E+001	Points/&decade
VAC	QUANT	2.50000E+001	AC &Voltage (mV rms)
AREA	QUANT	1.00000E-002	&Area (cm^2)
CONDIT	TWOPARAM	T	5.00000E+000	0.00000E+000	Conditionin&g	Time(s)	E(V)
DELAY	TWOPARAM	T	5.00000E+000	0.00000E+000	Init. De&lay	Time(s)	Stab.(mV/s)
SPEED	SELECTOR	0	&Optimize for:
ZGUESS	QUANT	1.00000E+005	E&stimated Z (ohms)
OCVCURVE	TABLE	19
	Pt	T	Vf	Vm	Ach	Over
	#	s	V vs. Ref.	V	V	bits
	0	0.258333	6.62986E-003	6.62986E-003	5.60332E-004	...........
	1	0.516667	6.62906E-003	6.58788E-003	5.55333E-004	...........
	2	0.775	6.62445E-003	6.56478E-003	5.58632E-004	...........
	3	1.03333	6.61275E-003	6.55646E-003	5.59599E-004	...........
	4	1.29167	6.59516E-003	6.55615E-003	5.59266E-004	...........
	5	1.55	6.57771E-003	6.56779E-003	5.55666E-004	...........
	6	1.80833	6.56639E-003	6.57723E-003	5.55799E-004	...........
	7	2.06667	6.56369E-003	6.59835E-003	5.57866E-004	...........
	8	2.325	6.56923E-003	6.62321E-003	5.57399E-004	...........
	9	2.58333	6.58178E-003	6.65186E-003	5.58032E-004	...........
	10	2.84167	6.60030E-003	6.68109E-003	5.51133E-004	...........
	11	3.1	6.62361E-003	6.71137E-003	5.56266E-004	...........
	12	3.35833	6.65035E-003	6.74257E-003	5.56699E-004	...........
	13	3.61667	6.67925E-003	6.77452E-003	5.57732E-004	...........
	14	3.875	6.70956E-003	6.81149E-003	5.58099E-004	...........
	15	4.13333	6.74117E-003	6.84620E-003	5.60366E-004	...........
	16	4.39167	6.77418E-003	6.88121E-003	5.54033E-004	...........
	17	4.65	6.80842E-003	6.91786E-003	5.56733E-004	...........
	18	4.90833	6.84346E-003	6.95259E-003	5.58399E-004	...........
EOC	QUANT	0.0068435	Open Circuit (V)
PSTATMODEL	IQUANT	4	Pstat Model
PSTATSECTION	LABEL	REF600-11020	Pstat Section
PSTATSERIALNO	LABEL	11020	Pstat Serial Number
CTRLMODE	IQUANT	1	Control Mode
IESTAB	IQUANT	0	I/E Stability
CASPEED	IQUANT	1	Control Amp Speed
CONVENTION	IQUANT	1	Current Convention
ICHRANGE	IQUANT	2	Ich Range
ICHRANGEMODE	TOGGLE	F	Ich Auto Range
ICHOFFSETENABLE	TOGGLE	T	Ich Offset Enable
ICHOFFSET	QUANT	0	Ich Offset (V)
ICHFILTER	IQUANT	3	Ich Filter
VCHRANGE	IQUANT	2	Vch Range
VCHRANGEMODE	TOGGLE	F	Vch Auto Range
VCHOFFSETENABLE	TOGGLE	T	Vch Offset Enable
VCHOFFSET	QUANT	0	Vch Offset (V)
VCHFILTER	IQUANT	3	Vch Filter
ACHRANGE	IQUANT	2	Ach Range
ACHOFFSETENABLE	TOGGLE	F	Ach Offset Enable
ACHOFFSET	QUANT	0	Ach Offset (V)
ACHFILTER	IQUANT	3	Ach Filter
IERANGELOWERLIMIT	IQUANT	1	I/E Range Lower Limit
IERANGEMODE	TOGGLE	F	I/E AutoRange
IERANGE	IQUANT	5	I/E Range
POSFEEDENABLE	TOGGLE	F	Positive Feedback IR Comp
POSFEEDRESISTANCE	QUANT	0	Positive Feedback Resistance (ohm)
ACHSELECT	IQUANT	0	Ach Select
CABLEID	IQUANT	14	Cable ID
DCCALDATE	LABEL	8/19/2019	DC Calibration Date
ACCALDATE	LABEL	8/19/2019	AC Calibration Date
THERMOSELECT	IQUANT	1	Thermo Select
FRAMEWORKVERSION	QUANT	6.33	Framework Version
INSTRUMENTVERSION	LABEL	3.50	Instrument Version
ZCURVE	TABLE
	Pt	Time	Freq	Zreal	Zimag	Zsig	Zmod	Zphz	Idc	Vdc	IERange
	#	s	Hz	ohm	ohm	V	ohm	°	A	V	#
	0	1	1000078	2255.435	-1823.006	1	2900.058	-38.94766	-4.861934E-006	0.0098063	8
	1	1	794390.6	2626.132	-1794.671	1	3180.788	-34.34829	-4.211867E-006	0.0090731	8
	2	2	630984.4	2977.062	-1694.418	1	3425.485	-29.64671	-4.425913E-006	0.0088957	8
	3	2	501234.4	3282.948	-1552.365	1	3631.472	-25.30746	1.893202E-007	0.0089308	8
	4	2	398109.4	3533.389	-1392.236	1	3797.783	-21.50557	-1.480951E-006	0.0087875	8
	5	3	316265.6	3736.146	-1235.734	1	3935.203	-18.30169	8.205534E-008	0.0080064	8
	6	3	251203.1	3889.886	-1064.973	1	4033.036	-15.31124	-1.395195E-006	0.0087294	8
	7	3	199546.9	3988.021	-939.9766	1	4097.3	-13.26255	2.207333E-006	0.0078355	8
	8	4	158578.1	4096.539	-795.4497	1	4173.053	-10.98872	-6.293126E-006	0.0092536	8
	9	4	125953.1	4195.953	-641.7823	1	4244.75	-8.696148	-1.165453E-006	0.0069853	7
	10	4	100078.1	4239.519	-563.1842	1	4276.763	-7.566956	-1.307574E-006	0.0098298	7
	11	5	79453.13	4286.879	-509.2364	1	4317.019	-6.774395	-7.57415E-007	0.0080872	7
	12	5	63140.62	4330.779	-470.1237	1	4356.221	-6.195432	1.170571E-006	0.0071009	7
	13	5	50203.12	4363.705	-439.2212	1	4385.753	-5.74765	6.325885E-007	0.0085377	7
	14	6	39890.62	4401.508	-421.1979	1	4421.615	-5.466218	5.377756E-007	0.0064954	7
	15	6	31640.63	4428.271	-414.333	1	4447.612	-5.345342	-1.308829E-006	0.009817	7
	16	6	25171.88	4465.37	-421.5659	1	4485.226	-5.393185	6.32451E-007	0.0085357	7
	17	7	20015.62	4488.722	-434.1792	1	4509.671	-5.524844	-1.104876E-006	0.0088034	7
	18	7	15890.62	4527.658	-465.0207	1	4551.476	-5.864098	8.724681E-007	0.0080807	7
	19	7	12609.37	4557.104	-508.3282	1	4585.368	-6.364822	5.330647E-008	0.0093291	7
	20	8	10078.13	4585.5	-563.9233	1	4620.046	-7.011013	-6.796122E-007	0.0099836	7
	21	8	8015.625	4624.679	-643.908	1	4669.29	-7.926507	3.957656E-007	0.0088704	7
	22	8	6328.125	4653.68	-749.8947	1	4713.711	-9.153961	-1.175739E-006	0.0099918	7
	23	8	5015.625	4694.325	-882.7887	1	4776.61	-10.65034	-3.076755E-007	0.0073437	7
	24	9	3984.375	4745.07	-1043.464	1	4858.447	-12.40221	1.055251E-006	0.0064876	7
	25	9	3170.956	4785.799	-1248.703	1	4946.021	-14.62349	-9.67342E-007	0.0100638	7
	26	9	2527.573	4842.407	-1499.286	1	5069.197	-17.20336	-7.588886E-007	0.0080724	7
	27	10	1976.103	4915.737	-1835.347	1	5247.187	-20.47369	-1.17577E-006	0.0099921	7
	28	10	1577.524	4998.164	-2224.153	1	5470.694	-23.98878	3.942404E-007	0.0088634	7
	29	10	1265.625	5084.107	-2679.006	1	5746.757	-27.78642	6.307399E-007	0.0085313	7
	30	11	998.264	5197.672	-3292.278	1	6152.633	-32.35074	5.401405E-007	0.0064818	7
	31	11	796.875	5328.459	-4005.638	1	6666.154	-36.9338	1.072641E-006	0.0075501	7
	32	11	627.7902	5508.464	-4923.151	1	7387.868	-41.78853	-9.66122E-007	0.0100588	7
	33	12	505.5147	5704.931	-5961.208	1	8251.196	-46.25845	-9.662684E-007	0.0100589	7
	34	12	397.9953	5955.414	-7379.979	1	9483.198	-51.09755	-9.148454E-011	0.008304	7
	35	13	315.5048	6278.456	-9074.009	1	11034.34	-55.32	4.356044E-010	0.0082363	6
	36	13	252.4038	6667.734	-11073.98	1	12926.39	-58.94751	-5.458814E-011	0.0082359	6
	37	13	198.6229	7205.134	-13717.5	1	15494.64	-62.28925	8.60684E-011	0.0082385	6
	38	13	158.3615	7878.693	-16793.91	1	18550.18	-64.86685	-2.083905E-010	0.0082405	6
	39	14	125.558	8776.814	-20647.04	1	22435.08	-66.97022	-2.723263E-010	0.0082412	6
	40	14	100.4464	9945.76	-25133.95	1	27030.23	-68.41079	1.693157E-009	0.0082309	6
	41	14	79.00281	11663	-31066.43	1	33183.55	-69.4228	9.358742E-010	0.0082277	6
	42	15	63.3446	13224.85	-37711.28	1	39962.95	-70.6749	-4.434176E-010	0.0082379	6
	43	15	49.86702	16244.87	-46133.91	1	48910.47	-70.60159	6.771187E-010	0.0082376	6
	44	16	39.72458	20400.71	-55803.14	1	59415.31	-69.91842	-4.035703E-011	0.008236	6
	45	16	31.6723	25498.71	-66879.31	1	71575.32	-69.12992	3.638099E-010	0.0082342	6
	46	16	24.93351	32111.76	-80657.23	1	86814.48	-68.2912	3.393643E-011	0.0082241	6
	47	17	19.86229	40271.81	-95787	1	103908.5	-67.19662	-1.567174E-009	0.0082356	6
	48	17	15.83615	49839.73	-111049.4	1	121720.8	-65.82912	-8.453633E-010	0.0082359	5
	49	17	12.40079	62912.29	-131747.8	1	145998	-64.47456	1.344287E-009	0.0082444	5
	50	18	9.93114	78545.23	-152990.6	1	171975.2	-62.82408	4.317119E-010	0.0082323	5
	51	18	7.944915	95046.9	-176154.6	1	200160.9	-61.65025	-5.972867E-010	0.0082441	5
	52	19	6.317385	114564	-202413.3	1	232585.5	-60.49055	-3.848866E-010	0.0082402	5
	53	19	5.008013	137165	-232676.9	1	270097.8	-59.48029	-7.236425E-011	0.0082468	5
	54	21	3.945707	163537.8	-267961.6	1	313923.6	-58.60416	-2.024906E-010	0.008235	5
	55	22	3.158693	191601.4	-306288.6	1	361280.8	-57.97161	9.831595E-011	0.0082279	5
	56	24	2.504006	224631.8	-351575.3	1	417210.5	-57.42429	4.980135E-013	0.0082354	5
	57	25	1.998082	261541.1	-402230.2	1	479784.3	-56.96698	-2.120002E-010	0.0081922	5
	58	26	1.584686	302764.4	-460830.9	1	551390.4	-56.69522	-1.177832E-010	0.0082236	5
	59	28	1.266892	349411.1	-525497.6	1	631059.3	-56.37949	-3.494399E-011	0.0082581	5
	60	31	0.999041	404628.4	-606266.5	1	728891.8	-56.28045	-4.507404E-012	0.0082723	5
