EXPLAIN
TAG	EISPOT
TITLE	LABEL	Potentiostatic EIS	Test &Identifier
DATE	LABEL	11/7/2019	Date
TIME	LABEL	10:11:10	Time
NOTES	NOTES	2	&Notes...
	
	
PSTAT	PSTAT	REF600-11020	Potentiostat
VDC	POTEN	0.00000E+000	T	DC &Voltage (V)
FREQINIT	QUANT	1.00000E+006	Initial Fre&q. (Hz)
FREQFINAL	QUANT	1.00000E+000	Final Fre&q. (Hz)
PTSPERDEC	QUANT	1.00000E+001	Points/&decade
VAC	QUANT	2.50000E+001	AC &Voltage (mV rms)
AREA	QUANT	1.00000E-002	&Area (cm^2)
CONDIT	TWOPARAM	T	5.00000E+000	0.00000E+000	Conditionin&g	Time(s)	E(V)
DELAY	TWOPARAM	T	5.00000E+000	0.00000E+000	Init. De&lay	Time(s)	Stab.(mV/s)
SPEED	SELECTOR	1	&Optimize for:
ZGUESS	QUANT	1.00000E+005	E&stimated Z (ohms)
OCVCURVE	TABLE	19
	Pt	T	Vf	Vm	Ach	Over
	#	s	V vs. Ref.	V	V	bits
	0	0.258333	4.68909E-003	4.68909E-003	5.58299E-004	...........
	1	0.516667	4.68434E-003	4.44062E-003	5.56999E-004	...........
	2	0.775	4.65969E-003	4.44029E-003	5.58099E-004	...........
	3	1.03333	4.60455E-003	4.42272E-003	5.57999E-004	...........
	4	1.29167	4.53270E-003	4.37090E-003	5.56999E-004	...........
	5	1.55	4.46689E-003	4.31003E-003	5.56799E-004	...........
	6	1.80833	4.41407E-003	4.30438E-003	5.57599E-004	...........
	7	2.06667	4.37034E-003	4.27726E-003	5.56766E-004	...........
	8	2.325	4.33288E-003	4.20517E-003	5.57233E-004	...........
	9	2.58333	4.29777E-003	4.15881E-003	5.57299E-004	...........
	10	2.84167	4.25921E-003	4.12782E-003	5.64432E-004	...........
	11	3.1	4.21603E-003	4.08820E-003	5.61766E-004	...........
	12	3.35833	4.17239E-003	4.06562E-003	5.59932E-004	...........
	13	3.61667	4.13312E-003	4.07168E-003	5.59766E-004	...........
	14	3.875	4.10226E-003	4.07271E-003	5.57566E-004	...........
	15	4.13333	4.08261E-003	4.07183E-003	5.53199E-004	...........
	16	4.39167	4.07364E-003	4.08323E-003	5.56466E-004	...........
	17	4.65	4.07316E-003	4.13633E-003	5.57333E-004	...........
	18	4.90833	4.08395E-003	4.29279E-003	5.56233E-004	...........
EOC	QUANT	0.0040839	Open Circuit (V)
PSTATMODEL	IQUANT	4	Pstat Model
PSTATSECTION	LABEL	REF600-11020	Pstat Section
PSTATSERIALNO	LABEL	11020	Pstat Serial Number
CTRLMODE	IQUANT	1	Control Mode
IESTAB	IQUANT	0	I/E Stability
CASPEED	IQUANT	1	Control Amp Speed
CONVENTION	IQUANT	1	Current Convention
ICHRANGE	IQUANT	2	Ich Range
ICHRANGEMODE	TOGGLE	F	Ich Auto Range
ICHOFFSETENABLE	TOGGLE	T	Ich Offset Enable
ICHOFFSET	QUANT	0	Ich Offset (V)
ICHFILTER	IQUANT	3	Ich Filter
VCHRANGE	IQUANT	2	Vch Range
VCHRANGEMODE	TOGGLE	F	Vch Auto Range
VCHOFFSETENABLE	TOGGLE	T	Vch Offset Enable
VCHOFFSET	QUANT	0	Vch Offset (V)
VCHFILTER	IQUANT	3	Vch Filter
ACHRANGE	IQUANT	2	Ach Range
ACHOFFSETENABLE	TOGGLE	F	Ach Offset Enable
ACHOFFSET	QUANT	0	Ach Offset (V)
ACHFILTER	IQUANT	3	Ach Filter
IERANGELOWERLIMIT	IQUANT	1	I/E Range Lower Limit
IERANGEMODE	TOGGLE	F	I/E AutoRange
IERANGE	IQUANT	4	I/E Range
POSFEEDENABLE	TOGGLE	F	Positive Feedback IR Comp
POSFEEDRESISTANCE	QUANT	0	Positive Feedback Resistance (ohm)
ACHSELECT	IQUANT	0	Ach Select
CABLEID	IQUANT	14	Cable ID
DCCALDATE	LABEL	8/19/2019	DC Calibration Date
ACCALDATE	LABEL	8/19/2019	AC Calibration Date
THERMOSELECT	IQUANT	1	Thermo Select
FRAMEWORKVERSION	QUANT	6.33	Framework Version
INSTRUMENTVERSION	LABEL	3.50	Instrument Version
ZCURVE	TABLE
	Pt	Time	Freq	Zreal	Zimag	Zsig	Zmod	Zphz	Idc	Vdc	IERange
	#	s	Hz	ohm	ohm	V	ohm	°	A	V	#
	0	2	1000078	2164.33	-1981.809	1	2934.603	-42.47937	-8.316755E-007	0.0057722	8
	1	3	794390.6	2603.437	-2154.813	1	3379.512	-39.61389	-2.960983E-007	0.0065549	8
	2	5	630984.4	3026.677	-2205.595	1	3745.053	-36.08152	-8.073124E-006	0.0068788	8
	3	6	501234.4	3439.807	-2192.269	1	4079.009	-32.5103	1.996931E-006	0.0061277	8
	4	8	398109.4	3856.243	-2132.494	1	4406.603	-28.9425	-9.541236E-007	0.005204	8
	5	10	316265.6	4243.725	-2016.968	1	4698.655	-25.42092	2.209471E-006	0.0058839	8
	6	11	251203.1	4589.973	-1863.085	1	4953.679	-22.09239	4.364053E-006	0.0054873	8
	7	13	199546.9	4879.791	-1696.236	1	5166.195	-19.16767	-8.248432E-007	0.0051868	8
	8	14	158578.1	5206.865	-1479.974	1	5413.111	-15.86702	4.382218E-006	0.0054858	8
	9	16	125953.1	5363.116	-1213.193	1	5498.623	-12.74638	-2.996851E-006	0.0097251	7
	10	17	100078.1	5547.568	-1090.803	1	5653.792	-11.124	-9.042396E-007	0.0052808	7
	11	19	79453.13	5643.925	-954.084	1	5724	-9.59492	7.612967E-007	0.0057557	7
	12	20	63140.62	5734.769	-837.3777	1	5795.583	-8.307487	7.623453E-007	0.0057519	7
	13	21	50203.12	5787.654	-736.0255	1	5834.267	-7.247496	-1.124501E-006	0.0075808	7
	14	23	39890.62	5838.542	-652.9987	1	5874.946	-6.381597	-1.301695E-006	0.0061155	7
	15	24	31640.63	5891.832	-600.7516	1	5922.38	-5.821956	-9.035599E-007	0.0052621	7
	16	26	25171.88	5929.318	-566.1266	1	5956.284	-5.454022	-1.299715E-006	0.0061039	7
	17	27	20015.62	5996.585	-553.5257	1	6022.078	-5.273847	7.689719E-008	0.0066996	7
	18	29	15890.62	6013.954	-555.6362	1	6039.567	-5.278638	-3.733173E-007	0.007185	7
	19	30	12609.37	6058.197	-564.1237	1	6084.405	-5.319895	1.370456E-006	0.0036345	7
	20	32	10078.13	6060.813	-563.7593	1	6086.976	-5.314197	-1.298353E-006	0.0061043	7
	21	33	8015.625	6107.139	-669.4406	1	6143.72	-6.255563	-1.12412E-006	0.0075817	7
	22	35	6328.125	6140.994	-755.9886	1	6187.352	-7.0181	-1.122557E-006	0.0075737	7
	23	36	5015.625	6198.343	-878.9545	1	6260.353	-8.071002	9.845318E-007	0.0032399	7
	24	38	3984.375	6237.594	-1027.467	1	6321.651	-9.35386	6.162082E-007	0.0033737	7
	25	39	3170.956	6271.183	-1214.694	1	6387.739	-10.96213	-7.81176E-007	0.0074754	7
	26	41	2527.573	6325.182	-1448.625	1	6488.948	-12.8997	-7.812151E-007	0.0074767	7
	27	42	1976.103	6424.667	-1768.409	1	6663.604	-15.38973	7.628063E-007	0.0057469	7
	28	43	1577.524	6503.392	-2047.372	1	6818.052	-17.47483	-1.371707E-006	0.0074885	7
	29	45	1265.625	6547.381	-2564.732	1	7031.789	-21.39121	-1.37201E-006	0.0074949	7
	30	47	998.264	6666.469	-3148.145	1	7372.423	-25.27836	-9.027506E-007	0.0052619	7
	31	48	796.875	6801.204	-3824.748	1	7802.889	-29.35181	-1.36896E-006	0.0074895	7
	32	50	627.7902	6987.813	-4710.394	1	8427.179	-33.98339	-1.528727E-006	0.0072875	7
	33	51	505.5147	7221.679	-5742.54	1	9226.56	-38.49104	7.670809E-008	0.0067056	7
	34	52	397.9953	7518.323	-7068.921	1	10319.63	-43.2354	1.886948E-009	0.0054461	6
	35	54	315.5048	7900.97	-8668.945	1	11729.28	-47.65362	7.104787E-010	0.0054354	6
	36	55	252.4038	8381.951	-10541.25	1	13467.56	-51.50978	1.868721E-009	0.0054428	6
	37	57	198.6229	9064.708	-12984.33	1	15835.46	-55.08008	1.477651E-009	0.0054266	6
	38	58	158.3615	9917.14	-15769.44	1	18628.61	-57.83488	1.696541E-009	0.0054337	6
	39	59	125.558	11068	-19218.07	1	22177.35	-60.06167	1.390559E-009	0.0054243	6
	40	61	100.4464	12511.73	-23196.1	1	26355.31	-61.65804	1.126124E-009	0.0054323	6
	41	62	79.00281	14629.73	-28240.46	1	31804.91	-62.61398	-3.166302E-010	0.0054353	6
	42	63	63.3446	16880.25	-34073.75	1	38025.82	-63.64603	1.228984E-009	0.0054262	6
	43	65	49.86702	20312.69	-40094.43	1	44946.29	-63.13226	1.674901E-009	0.0054223	6
	44	66	39.72458	24657.29	-47833.12	1	53814.4	-62.72955	8.787052E-010	0.0054337	6
	45	68	31.6723	29784.04	-56174.59	1	63582.02	-62.06725	1.33652E-009	0.0054352	6
	46	69	24.93351	36734.95	-65992.98	1	75528.34	-60.89753	-2.691484E-011	0.0054358	6
	47	71	19.86229	44313.25	-76009.79	1	87983.81	-59.75808	-2.089535E-010	0.0054421	6
	48	72	15.83615	53730.3	-86140.49	1	101524	-58.04607	1.657936E-009	0.0054357	5
	49	73	12.40079	63554.79	-100056.7	1	118535	-57.57679	8.219261E-010	0.0054369	5
	50	75	9.93114	74553.34	-113550	1	135837.4	-56.71235	8.403111E-010	0.0054428	5
	51	77	7.944915	86142.28	-128667.8	1	154841.5	-56.19794	-8.618292E-012	0.005431	5
	52	78	6.317385	97777.1	-146953	1	176509.3	-56.36169	3.791267E-010	0.0054563	5
	53	80	5.008013	111199	-168906.3	1	202224	-56.64119	2.639288E-010	0.0054393	5
	54	83	3.945707	125936.2	-196210.1	1	233148.7	-57.30589	4.350554E-010	0.0054446	5
	55	85	3.158693	141671.5	-227008.7	1	267588.8	-58.03255	-5.682363E-011	0.0054383	5
	56	89	2.504006	159964.7	-265670.9	1	310112.4	-58.94718	4.10021E-010	0.0054353	5
	57	92	1.998082	180833.9	-310797.3	1	359577.4	-59.8075	1.280214E-010	0.0054776	5
	58	95	1.584686	203693	-366601.2	1	419389.2	-60.94233	-1.39483E-010	0.0054263	5
	59	98	1.266892	234176.1	-430838.3	1	490367.3	-61.47433	3.219336E-011	0.0054727	5
	60	103	0.999041	270666	-512902	1	579938.4	-62.17873	-6.810073E-011	0.0053919	5
