EXPLAIN
TAG	EISPOT
TITLE	LABEL	Potentiostatic EIS	Test &Identifier
DATE	LABEL	11/21/2019	Date
TIME	LABEL	23:53:57	Time
NOTES	NOTES	4	&Notes...
	
	
	
	
PSTAT	PSTAT	REF600-11020	Potentiostat
VDC	POTEN	0.00000E+000	T	DC &Voltage (V)
FREQINIT	QUANT	1.00000E+006	Initial Fre&q. (Hz)
FREQFINAL	QUANT	1.00000E+000	Final Fre&q. (Hz)
PTSPERDEC	QUANT	1.00000E+001	Points/&decade
VAC	QUANT	2.50000E+001	AC &Voltage (mV rms)
AREA	QUANT	1.00000E-002	&Area (cm^2)
CONDIT	TWOPARAM	T	5.00000E+000	0.00000E+000	Conditionin&g	Time(s)	E(V)
DELAY	TWOPARAM	T	5.00000E+000	0.00000E+000	Init. De&lay	Time(s)	Stab.(mV/s)
SPEED	SELECTOR	1	&Optimize for:
ZGUESS	QUANT	1.00000E+005	E&stimated Z (ohms)
OCVCURVE	TABLE	19
	Pt	T	Vf	Vm	Ach	Over
	#	s	V vs. Ref.	V	V	bits
	0	0.258333	4.11616E-003	4.11616E-003	5.63299E-004	...........
	1	0.516667	4.11397E-003	4.00171E-003	5.62632E-004	...........
	2	0.775	4.10100E-003	3.91689E-003	5.62766E-004	...........
	3	1.03333	4.06585E-003	3.83784E-003	5.63499E-004	...........
	4	1.29167	4.00664E-003	3.79270E-003	5.63532E-004	...........
	5	1.55	3.93488E-003	3.75591E-003	5.66799E-004	...........
	6	1.80833	3.86571E-003	3.71953E-003	5.60432E-004	...........
	7	2.06667	3.80725E-003	3.65755E-003	5.64532E-004	...........
	8	2.325	3.75752E-003	3.59404E-003	5.62966E-004	...........
	9	2.58333	3.70926E-003	3.54037E-003	5.64499E-004	...........
	10	2.84167	3.65807E-003	3.51445E-003	5.64799E-004	...........
	11	3.1	3.60657E-003	3.49974E-003	5.66466E-004	...........
	12	3.35833	3.56063E-003	3.44193E-003	5.64399E-004	...........
	13	3.61667	3.52216E-003	3.43004E-003	5.60632E-004	...........
	14	3.875	3.48837E-003	3.39008E-003	5.64366E-004	...........
	15	4.13333	3.45643E-003	3.35531E-003	5.55766E-004	...........
	16	4.39167	3.42477E-003	3.32437E-003	5.60232E-004	...........
	17	4.65	3.39297E-003	3.31726E-003	5.60099E-004	...........
	18	4.90833	3.36296E-003	3.29848E-003	5.62866E-004	...........
EOC	QUANT	0.003363	Open Circuit (V)
PSTATMODEL	IQUANT	4	Pstat Model
PSTATSECTION	LABEL	REF600-11020	Pstat Section
PSTATSERIALNO	LABEL	11020	Pstat Serial Number
CTRLMODE	IQUANT	1	Control Mode
IESTAB	IQUANT	0	I/E Stability
CASPEED	IQUANT	1	Control Amp Speed
CONVENTION	IQUANT	1	Current Convention
ICHRANGE	IQUANT	2	Ich Range
ICHRANGEMODE	TOGGLE	F	Ich Auto Range
ICHOFFSETENABLE	TOGGLE	T	Ich Offset Enable
ICHOFFSET	QUANT	0	Ich Offset (V)
ICHFILTER	IQUANT	3	Ich Filter
VCHRANGE	IQUANT	2	Vch Range
VCHRANGEMODE	TOGGLE	F	Vch Auto Range
VCHOFFSETENABLE	TOGGLE	T	Vch Offset Enable
VCHOFFSET	QUANT	0	Vch Offset (V)
VCHFILTER	IQUANT	3	Vch Filter
ACHRANGE	IQUANT	2	Ach Range
ACHOFFSETENABLE	TOGGLE	F	Ach Offset Enable
ACHOFFSET	QUANT	0	Ach Offset (V)
ACHFILTER	IQUANT	3	Ach Filter
IERANGELOWERLIMIT	IQUANT	1	I/E Range Lower Limit
IERANGEMODE	TOGGLE	F	I/E AutoRange
IERANGE	IQUANT	4	I/E Range
POSFEEDENABLE	TOGGLE	F	Positive Feedback IR Comp
POSFEEDRESISTANCE	QUANT	0	Positive Feedback Resistance (ohm)
ACHSELECT	IQUANT	0	Ach Select
CABLEID	IQUANT	14	Cable ID
DCCALDATE	LABEL	8/19/2019	DC Calibration Date
ACCALDATE	LABEL	8/19/2019	AC Calibration Date
THERMOSELECT	IQUANT	1	Thermo Select
FRAMEWORKVERSION	QUANT	6.33	Framework Version
INSTRUMENTVERSION	LABEL	3.50	Instrument Version
ZCURVE	TABLE
	Pt	Time	Freq	Zreal	Zimag	Zsig	Zmod	Zphz	Idc	Vdc	IERange
	#	s	Hz	ohm	ohm	V	ohm	°	A	V	#
	0	1	1000078	2219.356	-1250.728	1	2547.521	-29.40363	-3.633413E-006	0.0060848	8
	1	2	794390.6	2454.04	-1164.646	1	2716.378	-25.38822	3.871058E-007	0.0047814	8
	2	3	630984.4	2645.63	-1048.528	1	2845.834	-21.61963	-2.545014E-006	0.0051838	8
	3	5	501234.4	2798.461	-933.5068	1	2950.054	-18.4476	-5.982062E-007	0.0053948	8
	4	6	398109.4	2918.516	-821.5915	1	3031.954	-15.72244	-6.343212E-006	0.0057759	8
	5	7	316265.6	3018.218	-716.6639	1	3102.136	-13.35729	-1.232952E-006	0.0045892	8
	6	9	251203.1	3093.352	-630.1957	1	3156.893	-11.51505	-1.526177E-006	0.0045802	8
	7	10	199546.9	3151.333	-563.0134	1	3201.232	-10.12952	5.956986E-006	0.0037024	8
	8	12	158578.1	3191.491	-498.3297	1	3230.162	-8.874688	5.659798E-006	0.0041181	8
	9	13	125953.1	3255.765	-412.999	1	3281.855	-7.229449	4.896295E-007	0.0069445	7
	10	14	100078.1	3284.777	-392.8839	1	3308.19	-6.820602	-6.999743E-007	0.004598	7
	11	16	79453.13	3320.345	-376.5054	1	3341.624	-6.469332	9.514757E-007	0.0031198	7
	12	17	63140.62	3350.301	-374.8511	1	3371.206	-6.384035	-1.194278E-006	0.0061754	7
	13	18	50203.12	3385.023	-386.1479	1	3406.977	-6.507908	9.858679E-007	0.0040637	7
	14	20	39890.62	3418.795	-400.8144	1	3442.21	-6.686746	3.835859E-007	0.0052556	7
	15	21	31640.63	3455.084	-426.9811	1	3481.367	-7.044924	-7.048672E-007	0.004592	7
	16	22	25171.88	3497.482	-463.1131	1	3528.01	-7.542843	1.069215E-006	0.0036505	7
	17	24	20015.62	3540.251	-508.439	1	3576.575	-8.172744	-7.03106E-007	0.0045885	7
	18	25	15890.62	3588.555	-564.5001	1	3632.683	-8.939693	-2.822549E-007	0.0060659	7
	19	26	12609.37	3642.455	-634.0377	1	3697.226	-9.87447	-1.068317E-006	0.0063266	7
	20	28	10078.13	3709.319	-713.8963	1	3777.393	-10.89395	4.775049E-007	0.0031268	7
	21	29	8015.625	3771.702	-811.7398	1	3858.064	-12.14584	-7.030091E-007	0.004587	7
	22	30	6328.125	3856.677	-932.4188	1	3967.791	-13.59144	9.865242E-007	0.0040554	7
	23	32	5015.625	3942.241	-1070.099	1	4084.896	-15.18667	6.971651E-008	0.005675	7
	24	33	3984.375	4043.841	-1230.838	1	4227.01	-16.92885	7.595777E-007	0.0030313	7
	25	34	3170.956	4153.219	-1419.631	1	4389.144	-18.87117	1.0708E-006	0.0036469	7
	26	36	2527.573	4271.18	-1638.852	1	4574.802	-20.99181	-7.023215E-007	0.0045809	7
	27	37	1976.103	4418.923	-1925.238	1	4820.106	-23.54181	1.071941E-006	0.0036467	7
	28	38	1577.524	4550.896	-2219.259	1	5063.178	-25.99632	8.092813E-007	0.0045302	7
	29	40	1265.625	4720.384	-2593.655	1	5386.007	-28.78696	-8.730401E-007	0.0063781	7
	30	41	998.264	4907.239	-3064.853	1	5785.699	-31.98715	-6.039164E-007	0.0062972	7
	31	43	796.875	5098.288	-3609.851	1	6246.884	-35.30046	-2.886089E-007	0.003909	7
	32	44	627.7902	5323.093	-4309.129	1	6848.643	-38.99072	-7.079032E-007	0.0045855	7
	33	45	505.5147	5546.206	-5081.951	1	7522.409	-42.49882	-6.00576E-007	0.0062963	7
	34	47	397.9953	5819.102	-6144.526	1	8462.691	-46.55812	5.915254E-009	0.00477	7
	35	48	315.5048	6122.967	-7416.177	1	9617.19	-50.45613	5.237214E-009	0.0047748	7
	36	49	252.4038	6465.089	-8924.027	1	11019.78	-54.07822	1.617077E-009	0.0047096	6
	37	51	198.6229	6899.755	-10928.3	1	12924.18	-57.73309	8.562723E-010	0.0047133	6
	38	52	158.3615	7402.341	-13275.02	1	15199.37	-60.85534	1.139333E-009	0.0047064	6
	39	53	125.558	8050.706	-16238.21	1	18124.39	-63.62835	3.890563E-010	0.0047169	6
	40	55	100.4464	8832.326	-19731.59	1	21618.18	-65.88558	-1.324988E-010	0.0047146	6
	41	56	79.00281	9995.62	-24327.97	1	26301.38	-67.66373	1.219777E-009	0.004703	6
	42	57	63.3446	11276.5	-29303.05	1	31397.9	-68.9521	4.329453E-010	0.0047121	6
	43	59	49.86702	13346.1	-36444.27	1	38811.12	-69.88698	1.005283E-009	0.0046991	6
	44	60	39.72458	15602.52	-44226.25	1	46897.76	-70.56773	2.405397E-010	0.0047092	6
	45	62	31.6723	18939.18	-53572.25	1	56821.46	-70.53017	1.86039E-010	0.0047019	6
	46	63	24.93351	23301.14	-65483.61	1	69505.73	-70.41283	2.263547E-010	0.0047048	6
	47	64	19.86229	28892.34	-78785.07	1	83915.76	-69.86082	2.936108E-010	0.004696	6
	48	66	15.83615	36045.61	-94310.42	1	100964.1	-69.08306	1.294284E-009	0.0046949	6
	49	67	12.40079	46693.61	-113635.7	1	122855.1	-67.66194	6.239246E-010	0.0046991	5
	50	68	9.93114	58427.45	-133683.8	1	145894.3	-66.39194	5.667444E-010	0.0046944	5
	51	70	7.944915	73021.96	-155743.9	1	172012.7	-64.88004	-5.721608E-010	0.0047047	5
	52	72	6.317385	91376.6	-181269.7	1	202998.5	-63.2477	-3.838703E-010	0.0047134	5
	53	74	5.008013	113421	-209610.8	1	238329.6	-61.58206	-6.203795E-011	0.004694	5
	54	76	3.945707	139499	-241373.7	1	278785.2	-59.97476	4.64528E-010	0.0047176	5
	55	79	3.158693	167454	-273976.8	1	321098.3	-58.56682	-1.679231E-012	0.0047128	5
	56	82	2.504006	199349.5	-311328.8	1	369683.4	-57.36782	3.687088E-010	0.0046989	5
	57	85	1.998082	232432.9	-351445.8	1	421354.1	-56.52086	-1.393474E-010	0.0047393	5
	58	88	1.584686	270178.8	-400126.4	1	482801.9	-55.97146	2.188394E-010	0.0047537	5
	59	92	1.266892	308857.7	-452780.2	1	548090.3	-55.7007	-9.787083E-011	0.0047424	5
	60	96	0.999041	353670.2	-520460.9	1	629255.3	-55.80261	3.059091E-010	0.0046949	5
