EXPLAIN
TAG	EISPOT
TITLE	LABEL	Potentiostatic EIS	Test &Identifier
DATE	LABEL	10/20/2019	Date
TIME	LABEL	9:57:03	Time
NOTES	NOTES	1	&Notes...
	
PSTAT	PSTAT	REF600-11020	Potentiostat
VDC	POTEN	0.00000E+000	T	DC &Voltage (V)
FREQINIT	QUANT	1.00000E+006	Initial Fre&q. (Hz)
FREQFINAL	QUANT	1.00000E+000	Final Fre&q. (Hz)
PTSPERDEC	QUANT	1.00000E+001	Points/&decade
VAC	QUANT	2.50000E+001	AC &Voltage (mV rms)
AREA	QUANT	1.00000E-002	&Area (cm^2)
CONDIT	TWOPARAM	T	5.00000E+000	0.00000E+000	Conditionin&g	Time(s)	E(V)
DELAY	TWOPARAM	T	5.00000E+000	0.00000E+000	Init. De&lay	Time(s)	Stab.(mV/s)
SPEED	SELECTOR	1	&Optimize for:
ZGUESS	QUANT	1.00000E+005	E&stimated Z (ohms)
OCVCURVE	TABLE	19
	Pt	T	Vf	Vm	Ach	Over
	#	s	V vs. Ref.	V	V	bits
	0	0.258333	7.28379E-003	7.28379E-003	5.38199E-004	...........
	1	0.516667	7.27045E-003	6.58540E-003	5.32066E-004	...........
	2	0.775	7.19925E-003	6.48518E-003	5.31066E-004	...........
	3	1.03333	7.03666E-003	6.55360E-003	5.37366E-004	...........
	4	1.29167	6.82776E-003	6.57754E-003	5.29000E-004	...........
	5	1.55	6.66568E-003	6.80974E-003	5.29366E-004	...........
	6	1.80833	6.60432E-003	6.74997E-003	5.32366E-004	...........
	7	2.06667	6.62683E-003	6.64901E-003	5.33300E-004	...........
	8	2.325	6.67157E-003	6.56022E-003	5.36166E-004	...........
	9	2.58333	6.68526E-003	6.60513E-003	5.29400E-004	...........
	10	2.84167	6.66303E-003	6.65368E-003	5.31600E-004	...........
	11	3.1	6.63571E-003	6.68252E-003	5.30366E-004	...........
	12	3.35833	6.62977E-003	6.74290E-003	5.31533E-004	...........
	13	3.61667	6.64958E-003	6.78492E-003	5.28000E-004	...........
	14	3.875	6.68669E-003	6.82148E-003	5.27366E-004	...........
	15	4.13333	6.73080E-003	6.84693E-003	5.24766E-004	...........
	16	4.39167	6.77393E-003	6.87976E-003	5.31566E-004	...........
	17	4.65	6.81225E-003	6.90869E-003	5.32866E-004	...........
	18	4.90833	6.84637E-003	6.95983E-003	5.28033E-004	...........
EOC	QUANT	0.0068464	Open Circuit (V)
PSTATMODEL	IQUANT	4	Pstat Model
PSTATSECTION	LABEL	REF600-11020	Pstat Section
PSTATSERIALNO	LABEL	11020	Pstat Serial Number
CTRLMODE	IQUANT	1	Control Mode
IESTAB	IQUANT	0	I/E Stability
CASPEED	IQUANT	1	Control Amp Speed
CONVENTION	IQUANT	1	Current Convention
ICHRANGE	IQUANT	2	Ich Range
ICHRANGEMODE	TOGGLE	F	Ich Auto Range
ICHOFFSETENABLE	TOGGLE	T	Ich Offset Enable
ICHOFFSET	QUANT	0	Ich Offset (V)
ICHFILTER	IQUANT	3	Ich Filter
VCHRANGE	IQUANT	2	Vch Range
VCHRANGEMODE	TOGGLE	F	Vch Auto Range
VCHOFFSETENABLE	TOGGLE	T	Vch Offset Enable
VCHOFFSET	QUANT	0	Vch Offset (V)
VCHFILTER	IQUANT	3	Vch Filter
ACHRANGE	IQUANT	2	Ach Range
ACHOFFSETENABLE	TOGGLE	F	Ach Offset Enable
ACHOFFSET	QUANT	0	Ach Offset (V)
ACHFILTER	IQUANT	3	Ach Filter
IERANGELOWERLIMIT	IQUANT	1	I/E Range Lower Limit
IERANGEMODE	TOGGLE	F	I/E AutoRange
IERANGE	IQUANT	5	I/E Range
POSFEEDENABLE	TOGGLE	F	Positive Feedback IR Comp
POSFEEDRESISTANCE	QUANT	0	Positive Feedback Resistance (ohm)
ACHSELECT	IQUANT	0	Ach Select
CABLEID	IQUANT	14	Cable ID
DCCALDATE	LABEL	8/19/2019	DC Calibration Date
ACCALDATE	LABEL	8/19/2019	AC Calibration Date
THERMOSELECT	IQUANT	1	Thermo Select
FRAMEWORKVERSION	QUANT	6.33	Framework Version
INSTRUMENTVERSION	LABEL	3.50	Instrument Version
ZCURVE	TABLE
	Pt	Time	Freq	Zreal	Zimag	Zsig	Zmod	Zphz	Idc	Vdc	IERange
	#	s	Hz	ohm	ohm	V	ohm	°	A	V	#
	0	2	1000078	2680.337	-1539.332	1	3090.914	-29.86898	-1.871935E-006	0.0091408	8
	1	4	794390.6	2959.385	-1419.937	1	3282.405	-25.63206	-1.879704E-006	0.0088031	8
	2	5	630984.4	3202.577	-1273.541	1	3446.507	-21.6858	2.363307E-006	0.0082952	8
	3	6	501234.4	3395.659	-1106.823	1	3571.492	-18.05351	-7.10371E-007	0.0083608	8
	4	8	398109.4	3538.01	-951.344	1	3663.683	-15.0504	3.396374E-006	0.0076108	8
	5	9	316265.6	3637.16	-820.0768	1	3728.466	-12.70611	-3.847315E-006	0.0090722	8
	6	10	251203.1	3726.293	-696.8833	1	3790.897	-10.59297	-2.752698E-006	0.0088879	8
	7	12	199546.9	3790.685	-597.5013	1	3837.487	-8.957467	-2.473171E-008	0.0082374	8
	8	13	158578.1	3810.616	-518.0079	1	3845.663	-7.741228	1.601835E-006	0.0081607	8
	9	15	125953.1	3896.361	-404.2677	1	3917.277	-5.923539	1.733099E-006	0.0046004	7
	10	16	100078.1	3913.724	-361.9534	1	3930.426	-5.283862	-5.76774E-008	0.0083331	7
	11	17	79453.13	3938.937	-342.5561	1	3953.804	-4.970316	2.049419E-008	0.0083883	7
	12	19	63140.62	3964.199	-331.6447	1	3978.048	-4.782226	3.446798E-008	0.0081881	7
	13	20	50203.12	3990.057	-328.7079	1	4003.574	-4.709493	1.210314E-007	0.0081741	7
	14	22	39890.62	4016.863	-336.4967	1	4030.933	-4.788545	-3.917332E-008	0.0082945	7
	15	23	31640.63	4044.957	-350.264	1	4060.094	-4.949055	-9.731873E-008	0.0085756	7
	16	24	25171.88	4075.89	-373.7967	1	4092.995	-5.239893	4.683059E-008	0.0082498	7
	17	26	20015.62	4112.517	-407.4935	1	4132.656	-5.658748	-6.536595E-008	0.0084231	7
	18	27	15890.62	4143.739	-447.7784	1	4167.862	-6.167531	-7.934754E-008	0.0084059	7
	19	28	12609.37	4186.021	-502.6368	1	4216.09	-6.847014	5.265483E-008	0.0082027	7
	20	30	10078.13	4226.381	-564.2283	1	4263.877	-7.60411	4.416304E-008	0.0082528	7
	21	31	8015.625	4279.631	-642.2895	1	4327.56	-8.535281	-1.02521E-007	0.008449	7
	22	32	6328.125	4320.463	-742.0012	1	4383.716	-9.74497	-1.771258E-008	0.0083648	7
	23	34	5015.625	4374.372	-861.8528	1	4458.466	-11.14584	4.088838E-009	0.0082668	7
	24	35	3984.375	4437.994	-1008.055	1	4551.04	-12.79714	3.647294E-008	0.0081718	7
	25	37	3170.956	4494.25	-1185.629	1	4648.01	-14.77851	3.550249E-008	0.0081727	7
	26	38	2527.573	4563.046	-1404.408	1	4774.28	-17.10724	1.307374E-007	0.0080886	7
	27	39	1976.103	4644.489	-1693.819	1	4943.713	-20.03662	1.299653E-007	0.0080911	7
	28	41	1577.524	4750.55	-2032.167	1	5166.955	-23.16003	1.305404E-007	0.00809	7
	29	42	1265.625	4834.212	-2416.806	1	5404.68	-26.56221	-7.929597E-008	0.0084077	7
	30	43	998.264	4959.113	-2943.028	1	5766.646	-30.68737	4.782838E-009	0.0082813	7
	31	45	796.875	5101.95	-3543.103	1	6211.56	-34.77846	-9.891739E-008	0.0084394	7
	32	46	627.7902	5273.062	-4321.781	1	6817.842	-39.33792	3.42504E-008	0.0081762	7
	33	48	505.5147	5460.626	-5188.636	1	7532.621	-43.53694	9.627779E-008	0.0080978	7
	34	49	397.9953	5698.816	-6363.112	1	8541.996	-48.15231	3.839963E-009	0.0083073	7
	35	50	315.5048	5975.484	-7772.059	1	9803.64	-52.44541	3.499311E-009	0.0083106	7
	36	52	252.4038	6296.48	-9438.175	1	11345.7	-56.2916	-3.759575E-010	0.0082445	6
	37	53	198.6229	6708.779	-11644.84	1	13439.12	-60.05307	6.845822E-010	0.0082433	6
	38	54	158.3615	7196.103	-14222.61	1	15939.46	-63.16232	-4.207203E-011	0.0082431	6
	39	56	125.558	7828.957	-17488.35	1	19160.76	-65.88351	1.08533E-009	0.0082436	6
	40	57	100.4464	8594.179	-21297.01	1	22965.68	-68.02399	2.186767E-009	0.008241	6
	41	59	79.00281	9682.22	-26488.88	1	28202.95	-69.92162	1.80057E-009	0.0082369	6
	42	60	63.3446	10591.75	-32479.19	1	34162.6	-71.93839	1.126159E-009	0.0082402	6
	43	61	49.86702	12788.12	-39359.11	1	41384.49	-72.00057	8.310423E-010	0.0082413	6
	44	63	39.72458	15126.54	-48387.72	1	50696.98	-72.64018	5.294417E-010	0.0082477	6
	45	64	31.6723	18393.28	-59307.8	1	62094.5	-72.76964	-7.202958E-011	0.0082417	6
	46	66	24.93351	22419.33	-72547.18	1	75932.34	-72.82723	1.000967E-009	0.0082441	6
	47	67	19.86229	27857.29	-88042.48	1	92344.5	-72.44225	1.239473E-009	0.008249	6
	48	68	15.83615	35033.48	-107211.6	1	112790.4	-71.90419	-1.272409E-009	0.0082477	5
	49	70	12.40079	45867.64	-129849.4	1	137712.4	-70.54488	1.515648E-009	0.0082449	5
	50	71	9.93114	57397.05	-154748.1	1	165049.7	-69.64986	4.258395E-010	0.0082465	5
	51	73	7.944915	73015.56	-182348.7	1	196423.8	-68.17799	8.4662E-010	0.0082496	5
	52	74	6.317385	93313.99	-215373.4	1	234719.4	-66.57455	-1.593481E-010	0.008256	5
	53	76	5.008013	119049	-252838.6	1	279463.8	-64.78661	-3.438818E-011	0.0082341	5
	54	79	3.945707	151287.2	-294104.9	1	330734.8	-62.77876	4.628331E-010	0.0082509	5
	55	82	3.158693	187173.7	-336685.1	1	385215.3	-60.92896	-4.127362E-011	0.0082338	5
	56	85	2.504006	229553.9	-384286.4	1	447628.2	-59.14796	3.165716E-010	0.008254	5
	57	88	1.998082	275459.2	-433348.6	1	513486.9	-57.55781	4.459425E-010	0.0082292	5
	58	91	1.584686	329240	-489612	1	590016	-56.08111	1.582113E-011	0.0081952	5
	59	95	1.266892	382349.8	-548662.3	1	668746.3	-55.12827	2.996155E-010	0.0082315	5
	60	99	0.999041	444127.5	-621266.7	1	763689.4	-54.44001	-1.989344E-010	0.0082409	5
