EXPLAIN
TAG	EISPOT
TITLE	LABEL	Potentiostatic EIS	Test &Identifier
DATE	LABEL	10/12/2019	Date
TIME	LABEL	9:49:32	Time
NOTES	NOTES	1	&Notes...
	
PSTAT	PSTAT	REF600-11020	Potentiostat
VDC	POTEN	0.00000E+000	T	DC &Voltage (V)
FREQINIT	QUANT	1.00000E+006	Initial Fre&q. (Hz)
FREQFINAL	QUANT	1.00000E+000	Final Fre&q. (Hz)
PTSPERDEC	QUANT	1.00000E+001	Points/&decade
VAC	QUANT	2.50000E+001	AC &Voltage (mV rms)
AREA	QUANT	1.00000E-002	&Area (cm^2)
CONDIT	TWOPARAM	T	5.00000E+000	0.00000E+000	Conditionin&g	Time(s)	E(V)
DELAY	TWOPARAM	T	5.00000E+000	0.00000E+000	Init. De&lay	Time(s)	Stab.(mV/s)
SPEED	SELECTOR	1	&Optimize for:
ZGUESS	QUANT	1.00000E+004	E&stimated Z (ohms)
OCVCURVE	TABLE	19
	Pt	T	Vf	Vm	Ach	Over
	#	s	V vs. Ref.	V	V	bits
	0	0.258333	3.79955E-003	3.79955E-003	5.78599E-004	...........
	1	0.516667	3.79344E-003	3.47961E-003	5.80899E-004	...........
	2	0.775	3.75638E-003	3.20113E-003	5.74466E-004	...........
	3	1.03333	3.65352E-003	2.95500E-003	5.77666E-004	...........
	4	1.29167	3.47458E-003	2.73314E-003	5.79532E-004	...........
	5	1.55	3.24571E-003	2.53930E-003	5.74232E-004	...........
	6	1.80833	3.00451E-003	2.36037E-003	5.78832E-004	...........
	7	2.06667	2.77627E-003	2.19570E-003	5.85199E-004	...........
	8	2.325	2.57004E-003	2.04434E-003	5.85132E-004	...........
	9	2.58333	2.38511E-003	1.90935E-003	5.83065E-004	...........
	10	2.84167	2.21809E-003	1.78184E-003	5.76832E-004	...........
	11	3.1	2.06606E-003	1.66484E-003	5.72366E-004	...........
	12	3.35833	1.92680E-003	1.55578E-003	5.77466E-004	...........
	13	3.61667	1.79839E-003	1.44662E-003	5.84065E-004	...........
	14	3.875	1.67882E-003	1.34493E-003	5.82799E-004	...........
	15	4.13333	1.56608E-003	1.24728E-003	5.74099E-004	...........
	16	4.39167	1.45877E-003	1.15542E-003	5.81565E-004	...........
	17	4.65	1.35646E-003	1.07280E-003	5.83365E-004	...........
	18	4.90833	1.25940E-003	9.90801E-004	5.79965E-004	...........
EOC	QUANT	0.0012594	Open Circuit (V)
PSTATMODEL	IQUANT	4	Pstat Model
PSTATSECTION	LABEL	REF600-11020	Pstat Section
PSTATSERIALNO	LABEL	11020	Pstat Serial Number
CTRLMODE	IQUANT	1	Control Mode
IESTAB	IQUANT	0	I/E Stability
CASPEED	IQUANT	1	Control Amp Speed
CONVENTION	IQUANT	1	Current Convention
ICHRANGE	IQUANT	2	Ich Range
ICHRANGEMODE	TOGGLE	F	Ich Auto Range
ICHOFFSETENABLE	TOGGLE	T	Ich Offset Enable
ICHOFFSET	QUANT	0	Ich Offset (V)
ICHFILTER	IQUANT	3	Ich Filter
VCHRANGE	IQUANT	2	Vch Range
VCHRANGEMODE	TOGGLE	F	Vch Auto Range
VCHOFFSETENABLE	TOGGLE	T	Vch Offset Enable
VCHOFFSET	QUANT	0	Vch Offset (V)
VCHFILTER	IQUANT	3	Vch Filter
ACHRANGE	IQUANT	2	Ach Range
ACHOFFSETENABLE	TOGGLE	F	Ach Offset Enable
ACHOFFSET	QUANT	0	Ach Offset (V)
ACHFILTER	IQUANT	3	Ach Filter
IERANGELOWERLIMIT	IQUANT	1	I/E Range Lower Limit
IERANGEMODE	TOGGLE	F	I/E AutoRange
IERANGE	IQUANT	5	I/E Range
POSFEEDENABLE	TOGGLE	F	Positive Feedback IR Comp
POSFEEDRESISTANCE	QUANT	0	Positive Feedback Resistance (ohm)
ACHSELECT	IQUANT	0	Ach Select
CABLEID	IQUANT	14	Cable ID
DCCALDATE	LABEL	8/19/2019	DC Calibration Date
ACCALDATE	LABEL	8/19/2019	AC Calibration Date
THERMOSELECT	IQUANT	1	Thermo Select
FRAMEWORKVERSION	QUANT	6.33	Framework Version
INSTRUMENTVERSION	LABEL	3.50	Instrument Version
ZCURVE	TABLE
	Pt	Time	Freq	Zreal	Zimag	Zsig	Zmod	Zphz	Idc	Vdc	IERange
	#	s	Hz	ohm	ohm	V	ohm	°	A	V	#
	0	2	1000078	2520.465	-1626.893	1	2999.921	-32.84116	-3.321677E-006	0.0038807	8
	1	4	794390.6	2842.073	-1527.558	1	3226.58	-28.25715	-5.956352E-007	0.0034949	8
	2	5	630984.4	3106.891	-1388.619	1	3403.092	-24.08216	2.764398E-006	0.0025108	8
	3	6	501234.4	3337.7	-1222.208	1	3554.439	-20.11186	-1.223912E-006	0.0032893	8
	4	8	398109.4	3502.266	-1059.795	1	3659.103	-16.83595	-1.644321E-006	0.0032469	8
	5	9	316265.6	3625.375	-928.3604	1	3742.352	-14.36326	-7.945005E-007	0.0027769	8
	6	10	251203.1	3720.253	-798.7826	1	3805.041	-12.1181	-1.584461E-006	0.0031645	8
	7	12	199546.9	3793.28	-692.0302	1	3855.888	-10.3391	-2.949165E-006	0.0034345	8
	8	13	158578.1	3849.221	-599.7339	1	3895.663	-8.855855	5.740847E-007	0.002653	8
	9	15	125953.1	3901.717	-485.8922	1	3931.855	-7.098665	-4.125425E-008	0.0036736	7
	10	16	100078.1	3941.237	-456.051	1	3967.534	-6.600492	5.463946E-008	0.0027109	7
	11	17	79453.13	3976.514	-432.6049	1	3999.976	-6.20879	-2.285077E-008	0.0027805	7
	12	19	63140.62	4011.311	-421.0067	1	4033.344	-5.991537	-6.511436E-008	0.0029161	7
	13	20	50203.12	4046.53	-420.9307	1	4068.364	-5.938699	-1.111949E-008	0.0028237	7
	14	21	39890.62	4082.504	-430.7523	1	4105.166	-6.023095	-2.262059E-009	0.002734	7
	15	23	31640.63	4122.575	-451.1093	1	4147.183	-6.244698	-7.192935E-008	0.003021	7
	16	24	25171.88	4163.406	-481.5207	1	4191.159	-6.597259	1.216939E-007	0.0026119	7
	17	25	20015.62	4207.543	-523.3324	1	4239.964	-7.090012	-2.283904E-009	0.0027343	7
	18	27	15890.62	4259.395	-574.2239	1	4297.927	-7.677952	-2.441662E-008	0.0027766	7
	19	28	12609.37	4316.314	-639.4738	1	4363.427	-8.427227	8.597207E-009	0.0027613	7
	20	29	10078.13	4372.404	-712.8023	1	4430.125	-9.259076	-2.240154E-009	0.0027338	7
	21	31	8015.625	4440.657	-807.0472	1	4513.397	-10.30054	-1.078351E-008	0.0027868	7
	22	32	6328.125	4510.418	-919.6329	1	4603.216	-11.52413	5.930417E-008	0.0027001	7
	23	33	5015.625	4588.736	-1055.614	1	4708.59	-12.95519	-7.240128E-008	0.002886	7
	24	35	3984.375	4672.043	-1224.125	1	4829.749	-14.68207	-4.199402E-008	0.0028837	7
	25	36	3170.956	4760.647	-1413.153	1	4965.96	-16.53302	-2.070519E-008	0.0027705	7
	26	37	2527.573	4860.429	-1648.489	1	5132.376	-18.73515	-5.129371E-008	0.0028517	7
	27	39	1976.103	4977.063	-1962.756	1	5350.1	-21.52231	-2.649033E-010	0.0027291	7
	28	40	1577.524	5065.101	-2300.076	1	5562.876	-24.42292	1.642645E-008	0.0028724	7
	29	42	1265.625	5230.199	-2733.43	1	5901.408	-27.59267	-3.175824E-008	0.0027864	7
	30	43	998.264	5393.635	-3280.409	1	6312.874	-31.30797	-4.199003E-008	0.0028822	7
	31	44	796.875	5569.117	-3917.362	1	6808.876	-35.12286	-1.358094E-008	0.0027831	7
	32	46	627.7902	5782.853	-4735.429	1	7474.334	-39.31316	-2.423758E-008	0.0027672	7
	33	47	505.5147	6001.218	-5656.546	1	8246.886	-43.3065	-2.435633E-008	0.0027681	7
	34	48	397.9953	6272.505	-6898.681	1	9323.954	-47.72187	5.734836E-009	0.0027968	7
	35	50	315.5048	6586.72	-8388.119	1	10665.15	-51.85944	-3.255939E-010	0.0027362	6
	36	51	252.4038	6938.037	-10151.24	1	12295.69	-55.64867	1.506141E-009	0.0027311	6
	37	52	198.6229	7395.17	-12493.06	1	14517.75	-59.37691	1.09069E-009	0.0027337	6
	38	54	158.3615	7924.55	-15230.15	1	17168.46	-62.51114	9.752429E-010	0.0027341	6
	39	55	125.558	8616.119	-18697.18	1	20586.94	-65.25859	8.821686E-010	0.0027352	6
	40	56	100.4464	9452.328	-22802.13	1	24683.68	-67.48418	1.485555E-009	0.0027369	6
	41	58	79.00281	10678.42	-28123.81	1	30082.84	-69.20856	8.785727E-010	0.0027394	6
	42	59	63.3446	11821.66	-34012.04	1	36007.93	-70.83395	1.132097E-009	0.0027331	6
	43	61	49.86702	14309.62	-42129.2	1	44493.08	-71.23941	1.556136E-009	0.0027317	6
	44	62	39.72458	16644.81	-51544.42	1	54165.28	-72.10361	1.187731E-009	0.0027362	6
	45	63	31.6723	19970.23	-62532.48	1	65643.9	-72.28872	9.030945E-010	0.0027373	6
	46	65	24.93351	24468.45	-76802.38	1	80605.9	-72.32866	5.641923E-010	0.0027365	6
	47	66	19.86229	30174.41	-92636.18	1	97426.7	-71.958	1.252482E-009	0.0027379	6
	48	67	15.83615	36706.27	-111191.2	1	117093.3	-71.731	-4.504652E-010	0.002741	5
	49	69	12.40079	48137.57	-134799.9	1	143137.1	-70.34815	1.456687E-009	0.0027366	5
	50	70	9.93114	59373.3	-161842.5	1	172389.6	-69.854	4.220888E-010	0.0027378	5
	51	72	7.944915	74499.08	-191055.3	1	205066.4	-68.69746	5.364841E-010	0.0027441	5
	52	73	6.317385	92376.1	-226718.9	1	244815.9	-67.83167	5.323276E-011	0.0027566	5
	53	76	5.008013	115585.6	-267953.5	1	291820.3	-66.66635	2.527753E-010	0.0027397	5
	54	78	3.945707	144402.8	-316699.2	1	348066.9	-65.48882	3.840542E-010	0.0027417	5
	55	81	3.158693	176866.5	-368183.7	1	408461.8	-64.34151	1.809338E-010	0.0027504	5
	56	84	2.504006	216718.5	-429546.8	1	481120.9	-63.22777	2.25834E-010	0.0027354	5
	57	87	1.998082	261750.2	-496720.8	1	561466.6	-62.21273	-2.109168E-011	0.0027635	5
	58	90	1.584686	317303.1	-576006	1	657620.1	-61.15105	2.305972E-010	0.0027929	5
	59	93	1.266892	377875.5	-661103.3	1	761477.2	-60.24844	-4.836855E-011	0.0027566	5
	60	98	0.999041	452832.4	-764308.8	1	888383.4	-59.3544	3.3665E-010	0.0027473	5
