EXPLAIN
TAG	EISPOT
TITLE	LABEL	Potentiostatic IDE	Test &Identifier
DATE	LABEL	9/6/2019	Date
TIME	LABEL	8:01:28	Time
NOTES	NOTES	1	&Notes...
	
PSTAT	PSTAT	REF600-11020	Potentiostat
VDC	POTEN	0.00000E+000	T	DC &Voltage (V)
FREQINIT	QUANT	1.00000E+006	Initial Fre&q. (Hz)
FREQFINAL	QUANT	1.00000E+000	Final Fre&q. (Hz)
PTSPERDEC	QUANT	1.00000E+001	Points/&decade
VAC	QUANT	2.50000E+001	AC &Voltage (mV rms)
AREA	QUANT	1.00000E-002	&Area (cm^2)
CONDIT	TWOPARAM	T	5.00000E+000	0.00000E+000	Conditionin&g	Time(s)	E(V)
DELAY	TWOPARAM	T	5.00000E+000	0.00000E+000	Init. De&lay	Time(s)	Stab.(mV/s)
SPEED	SELECTOR	1	&Optimize for:
ZGUESS	QUANT	1.00000E+007	E&stimated Z (ohms)
OCVCURVE	TABLE	19
	Pt	T	Vf	Vm	Ach	Over
	#	s	V vs. Ref.	V	V	bits
	0	0.258333	9.32204E-003	9.32204E-003	5.68099E-004	...........
	1	0.516667	9.32049E-003	9.24126E-003	5.67932E-004	...........
	2	0.775	9.31167E-003	9.19869E-003	5.69466E-004	...........
	3	1.03333	9.28906E-003	9.16823E-003	5.65266E-004	...........
	4	1.29167	9.25379E-003	9.14633E-003	5.65499E-004	...........
	5	1.55	9.21382E-003	9.08369E-003	5.68899E-004	...........
	6	1.80833	9.18145E-003	9.42386E-003	5.62532E-004	...........
	7	2.06667	9.17765E-003	9.31315E-003	5.68999E-004	...........
	8	2.325	9.21233E-003	9.26273E-003	5.69132E-004	...........
	9	2.58333	9.25985E-003	9.27743E-003	5.66699E-004	...........
	10	2.84167	9.28580E-003	9.20111E-003	5.68932E-004	...........
	11	3.1	9.28283E-003	9.25381E-003	5.72999E-004	...........
	12	3.35833	9.26625E-003	9.29663E-003	5.65599E-004	...........
	13	3.61667	9.25727E-003	9.37671E-003	5.65099E-004	...........
	14	3.875	9.27006E-003	9.38567E-003	5.64566E-004	...........
	15	4.13333	9.30307E-003	9.41781E-003	5.69866E-004	...........
	16	4.39167	9.34383E-003	9.44753E-003	5.70399E-004	...........
	17	4.65	9.38203E-003	9.47577E-003	5.67266E-004	...........
	18	4.90833	9.41551E-003	9.51641E-003	5.67332E-004	...........
EOC	QUANT	0.0094155	Open Circuit (V)
PSTATMODEL	IQUANT	4	Pstat Model
PSTATSECTION	LABEL	REF600-11020	Pstat Section
PSTATSERIALNO	LABEL	11020	Pstat Serial Number
CTRLMODE	IQUANT	1	Control Mode
IESTAB	IQUANT	0	I/E Stability
CASPEED	IQUANT	1	Control Amp Speed
CONVENTION	IQUANT	1	Current Convention
ICHRANGE	IQUANT	2	Ich Range
ICHRANGEMODE	TOGGLE	F	Ich Auto Range
ICHOFFSETENABLE	TOGGLE	T	Ich Offset Enable
ICHOFFSET	QUANT	0	Ich Offset (V)
ICHFILTER	IQUANT	3	Ich Filter
VCHRANGE	IQUANT	2	Vch Range
VCHRANGEMODE	TOGGLE	F	Vch Auto Range
VCHOFFSETENABLE	TOGGLE	T	Vch Offset Enable
VCHOFFSET	QUANT	0	Vch Offset (V)
VCHFILTER	IQUANT	3	Vch Filter
ACHRANGE	IQUANT	2	Ach Range
ACHOFFSETENABLE	TOGGLE	F	Ach Offset Enable
ACHOFFSET	QUANT	0	Ach Offset (V)
ACHFILTER	IQUANT	3	Ach Filter
IERANGELOWERLIMIT	IQUANT	1	I/E Range Lower Limit
IERANGEMODE	TOGGLE	F	I/E AutoRange
IERANGE	IQUANT	3	I/E Range
POSFEEDENABLE	TOGGLE	F	Positive Feedback IR Comp
POSFEEDRESISTANCE	QUANT	0	Positive Feedback Resistance (ohm)
ACHSELECT	IQUANT	0	Ach Select
CABLEID	IQUANT	14	Cable ID
DCCALDATE	LABEL	8/19/2019	DC Calibration Date
ACCALDATE	LABEL	8/19/2019	AC Calibration Date
THERMOSELECT	IQUANT	1	Thermo Select
FRAMEWORKVERSION	QUANT	6.33	Framework Version
INSTRUMENTVERSION	LABEL	3.50	Instrument Version
ZCURVE	TABLE
	Pt	Time	Freq	Zreal	Zimag	Zsig	Zmod	Zphz	Idc	Vdc	IERange
	#	s	Hz	ohm	ohm	V	ohm	°	A	V	#
	0	2	1000078	2360.938	-1894.68	1	3027.184	-38.74744	1.034108E-006	0.011256	8
	1	3	794390.6	2759.89	-1831.865	1	3312.51	-33.57405	2.96409E-006	0.0109091	8
	2	4	630984.4	3102.205	-1703.862	1	3539.325	-28.77745	-3.540119E-007	0.0112228	8
	3	6	501234.4	3410.744	-1536.649	1	3740.918	-24.25308	2.213752E-007	0.0112218	8
	4	7	398109.4	3634.729	-1348.13	1	3876.688	-20.34994	1.243944E-006	0.010951	8
	5	9	316265.6	3801.631	-1189.174	1	3983.282	-17.37	1.365955E-006	0.0108144	8
	6	10	251203.1	3937.517	-1032.911	1	4070.742	-14.69895	-8.44489E-007	0.0113538	8
	7	12	199546.9	4041.856	-908.843	1	4142.776	-12.67263	-7.987601E-007	0.0113535	8
	8	13	158578.1	4134.25	-805.7322	1	4212.033	-11.02825	1.425498E-006	0.0109028	8
	9	14	125953.1	4200.002	-681.7972	1	4254.981	-9.22054	-5.283054E-007	0.0121294	7
	10	16	100078.1	4247.754	-632.9792	1	4294.657	-8.475565	-1.624361E-008	0.0112259	7
	11	17	79453.13	4295.157	-602.6683	1	4337.232	-7.987223	-1.542943E-008	0.0112196	7
	12	19	63140.62	4342.654	-590.7265	1	4382.648	-7.746336	-2.411971E-008	0.0111973	7
	13	20	50203.12	4389.196	-593.4055	1	4429.127	-7.699525	-8.272215E-009	0.0111474	7
	14	21	39890.62	4436.318	-614.1596	1	4478.628	-7.881875	5.611779E-008	0.011007	7
	15	23	31640.63	4484.481	-653.1236	1	4531.792	-8.286345	-1.401833E-008	0.0112141	7
	16	24	25171.88	4534.932	-707.3625	1	4589.768	-8.865604	-7.819027E-009	0.0111544	7
	17	25	20015.62	4591.292	-781.8321	1	4657.384	-9.66396	-2.587077E-009	0.0111468	7
	18	27	15890.62	4651.784	-879.382	1	4734.174	-10.70497	-2.388624E-009	0.0111402	7
	19	28	12609.37	4718.771	-1003.071	1	4824.204	-12.00076	-1.428712E-008	0.01121	7
	20	29	10078.13	4792.228	-1151.235	1	4928.569	-13.50817	-1.478248E-008	0.0112173	7
	21	31	8015.625	4873.839	-1336.087	1	5053.656	-15.33014	-1.473403E-008	0.0112184	7
	22	32	6328.125	4975.289	-1571.611	1	5217.61	-17.53046	8.544367E-008	0.0109988	7
	23	33	5015.625	5088.322	-1853.701	1	5415.462	-20.01694	-4.117202E-008	0.0111829	7
	24	35	3984.375	5218.949	-2193.681	1	5661.242	-22.79847	5.126556E-008	0.0110124	7
	25	36	3170.956	5373.099	-2602.008	1	5969.979	-25.83932	-2.625594E-008	0.0111393	7
	26	38	2527.573	5553.151	-3088.086	1	6354.035	-29.07827	1.420007E-009	0.0110607	7
	27	39	1976.103	5786.268	-3731.775	1	6885.277	-32.81945	-4.373927E-008	0.0111653	7
	28	41	1577.524	6050.145	-4441.322	1	7505.304	-36.28184	-2.57804E-009	0.0111293	7
	29	42	1265.625	6356.712	-5261.346	1	8251.64	-39.614	5.191486E-008	0.0110114	7
	30	43	998.264	6749.415	-6321.986	1	9247.816	-43.12712	-7.258555E-009	0.0111437	7
	31	45	796.875	7213.046	-7516.821	1	10417.8	-46.18145	-4.500644E-009	0.0110927	6
	32	46	627.7902	7786.397	-9026.627	1	11920.91	-49.21884	9.068738E-009	0.0109622	6
	33	48	505.5147	8416.671	-10659.92	1	13582.13	-51.70672	-5.141406E-009	0.0111625	6
	34	49	397.9953	9243.467	-12792.96	1	15782.95	-54.15026	6.364874E-010	0.0110661	6
	35	51	315.5048	10186.39	-15274.2	1	18359.3	-56.3006	5.690989E-010	0.0110634	6
	36	52	252.4038	11248.39	-18107.9	1	21317.18	-58.152	6.496123E-010	0.0110581	6
	37	53	198.6229	12579.88	-21752.44	1	25128.11	-59.95832	6.869005E-010	0.0110584	6
	38	55	158.3615	14051.99	-25896.17	1	29463.03	-61.5145	5.322912E-010	0.0110588	6
	39	56	125.558	15833.15	-31007.65	1	34816.13	-62.95021	7.105848E-010	0.0110583	6
	40	57	100.4464	17829.27	-36933.49	1	41011.77	-64.23154	8.039737E-010	0.0110548	6
	41	59	79.00281	20461.42	-44622.36	1	49089.97	-65.36635	6.235952E-010	0.0110597	6
	42	60	63.3446	23238.54	-52982.48	1	57854.76	-66.31737	4.173196E-010	0.0110548	6
	43	61	49.86702	27092.78	-64507.45	1	69965.92	-67.21786	4.13021E-010	0.011056	6
	44	63	39.72458	31517.02	-77141.05	1	83331.05	-67.77687	5.182486E-010	0.0110613	6
	45	64	31.6723	36882.02	-92462.91	1	99547.3	-68.25371	7.385221E-010	0.0110634	6
	46	66	24.93351	44143.57	-111893.7	1	120286.5	-68.4701	3.49003E-010	0.0110634	5
	47	67	19.86229	52640.88	-133965.2	1	143936.6	-68.54794	3.413957E-010	0.0110718	5
	48	68	15.83615	63013.4	-160241	1	172185.6	-68.5332	5.578878E-010	0.0110687	5
	49	70	12.40079	78072.08	-193820.1	1	208953.3	-68.06008	-7.782477E-011	0.0110711	5
	50	71	9.93114	93938.27	-229773.2	1	248234	-67.76376	5.869139E-010	0.011065	5
	51	73	7.944915	114389.6	-272385.4	1	295429.9	-67.21979	3.82171E-010	0.0110697	5
	52	74	6.317385	140165.6	-322479.1	1	351623.6	-66.5078	3.527035E-010	0.0110774	5
	53	76	5.008013	172885.7	-381921.5	1	419229.7	-65.645	3.685149E-010	0.0110749	5
	54	79	3.945707	214069.6	-452710.6	1	500772	-64.69231	-3.242633E-011	0.0110639	5
	55	81	3.158693	261785.8	-526814.1	1	588272.8	-63.57618	2.563842E-010	0.0110777	5
	56	84	2.504006	321949.6	-615790	1	694873.3	-62.39837	-9.981681E-011	0.0110694	5
	57	87	1.998082	391135.2	-708904.9	1	809649.9	-61.11248	1.78701E-010	0.0110288	5
	58	90	1.584686	473159.5	-819576.8	1	946354	-60.00122	-9.750457E-012	0.0110544	5
	59	94	1.266892	569150.9	-934762	1	1094401	-58.66391	1.20431E-010	0.0110247	4
	60	98	0.999041	681609.3	-1073443	1	1271563	-57.58549	-7.600844E-011	0.0110887	4
