EXPLAIN
TAG	EISPOT
TITLE	LABEL	Potentiostatic IDE	Test &Identifier
DATE	LABEL	9/14/2019	Date
TIME	LABEL	13:38:43	Time
NOTES	NOTES	1	&Notes...
	
PSTAT	PSTAT	REF600-11020	Potentiostat
VDC	POTEN	0.00000E+000	T	DC &Voltage (V)
FREQINIT	QUANT	1.00000E+006	Initial Fre&q. (Hz)
FREQFINAL	QUANT	1.00000E+000	Final Fre&q. (Hz)
PTSPERDEC	QUANT	1.00000E+001	Points/&decade
VAC	QUANT	2.50000E+001	AC &Voltage (mV rms)
AREA	QUANT	1.00000E-002	&Area (cm^2)
CONDIT	TWOPARAM	T	5.00000E+000	0.00000E+000	Conditionin&g	Time(s)	E(V)
DELAY	TWOPARAM	T	5.00000E+000	0.00000E+000	Init. De&lay	Time(s)	Stab.(mV/s)
SPEED	SELECTOR	1	&Optimize for:
ZGUESS	QUANT	1.00000E+007	E&stimated Z (ohms)
OCVCURVE	TABLE	18
	Pt	T	Vf	Vm	Ach	Over
	#	s	V vs. Ref.	V	V	bits
	0	0.258333	7.14828E-003	7.14828E-003	5.42833E-004	...........
	1	0.516667	7.15031E-003	7.25415E-003	5.37566E-004	...........
	2	0.775	7.16054E-003	7.24024E-003	5.46466E-004	...........
	3	1.03333	7.18331E-003	7.28273E-003	5.38199E-004	...........
	4	1.29167	7.21530E-003	7.35732E-003	5.44266E-004	...........
	5	1.55	7.25350E-003	7.44268E-003	5.41899E-004	...........
	6	1.80833	7.30092E-003	7.49032E-003	5.38066E-004	...........
	7	2.06667	7.35917E-003	7.57122E-003	5.35366E-004	...........
	8	2.325	7.42558E-003	7.69060E-003	5.34133E-004	...........
	9	2.58333	7.49868E-003	7.72916E-003	5.36799E-004	...........
	10	2.84167	7.57642E-003	7.77906E-003	5.35433E-004	...........
	11	3.1	7.65132E-003	7.80893E-003	5.34333E-004	...........
	12	3.35833	7.71513E-003	7.83821E-003	5.38799E-004	...........
	13	3.61667	7.76510E-003	7.86131E-003	5.41499E-004	...........
	14	3.875	7.80369E-003	7.90145E-003	5.43433E-004	...........
	15	4.13333	7.83605E-003	7.94402E-003	5.42199E-004	...........
	16	4.39167	7.86778E-003	7.98118E-003	5.42099E-004	...........
	17	4.65	7.90206E-003	8.01440E-003	5.41699E-004	...........
EOC	QUANT	0.0079385	Open Circuit (V)
PSTATMODEL	IQUANT	4	Pstat Model
PSTATSECTION	LABEL	REF600-11020	Pstat Section
PSTATSERIALNO	LABEL	11020	Pstat Serial Number
CTRLMODE	IQUANT	1	Control Mode
IESTAB	IQUANT	0	I/E Stability
CASPEED	IQUANT	1	Control Amp Speed
CONVENTION	IQUANT	1	Current Convention
ICHRANGE	IQUANT	2	Ich Range
ICHRANGEMODE	TOGGLE	F	Ich Auto Range
ICHOFFSETENABLE	TOGGLE	T	Ich Offset Enable
ICHOFFSET	QUANT	0	Ich Offset (V)
ICHFILTER	IQUANT	3	Ich Filter
VCHRANGE	IQUANT	2	Vch Range
VCHRANGEMODE	TOGGLE	F	Vch Auto Range
VCHOFFSETENABLE	TOGGLE	T	Vch Offset Enable
VCHOFFSET	QUANT	0	Vch Offset (V)
VCHFILTER	IQUANT	3	Vch Filter
ACHRANGE	IQUANT	2	Ach Range
ACHOFFSETENABLE	TOGGLE	F	Ach Offset Enable
ACHOFFSET	QUANT	0	Ach Offset (V)
ACHFILTER	IQUANT	3	Ach Filter
IERANGELOWERLIMIT	IQUANT	1	I/E Range Lower Limit
IERANGEMODE	TOGGLE	F	I/E AutoRange
IERANGE	IQUANT	3	I/E Range
POSFEEDENABLE	TOGGLE	F	Positive Feedback IR Comp
POSFEEDRESISTANCE	QUANT	0	Positive Feedback Resistance (ohm)
ACHSELECT	IQUANT	0	Ach Select
CABLEID	IQUANT	14	Cable ID
DCCALDATE	LABEL	8/19/2019	DC Calibration Date
ACCALDATE	LABEL	8/19/2019	AC Calibration Date
THERMOSELECT	IQUANT	1	Thermo Select
FRAMEWORKVERSION	QUANT	6.33	Framework Version
INSTRUMENTVERSION	LABEL	3.50	Instrument Version
ZCURVE	TABLE
	Pt	Time	Freq	Zreal	Zimag	Zsig	Zmod	Zphz	Idc	Vdc	IERange
	#	s	Hz	ohm	ohm	V	ohm	°	A	V	#
	0	2	1000078	2375.871	-1995.666	1	3102.812	-40.02934	7.259868E-006	0.0094324	8
	1	3	794390.6	2794.776	-1974.026	1	3421.63	-35.2346	-4.466032E-006	0.0104096	8
	2	4	630984.4	3184.034	-1861.956	1	3688.49	-30.3182	-8.310516E-007	0.0103343	8
	3	6	501234.4	3524.933	-1697.414	1	3912.335	-25.71291	-7.728322E-007	0.0098135	8
	4	7	398109.4	3806.858	-1506.919	1	4094.261	-21.5958	-3.362018E-006	0.0103745	8
	5	9	316265.6	4025.068	-1347.434	1	4244.614	-18.50851	-4.0587E-006	0.0104323	8
	6	10	251203.1	4166.73	-1143.874	1	4320.89	-15.35097	-3.141459E-006	0.0103113	8
	7	11	199546.9	4294.271	-1000.231	1	4409.221	-13.11167	-2.111788E-007	0.0097411	8
	8	13	158578.1	4389.859	-855.6371	1	4472.469	-11.02936	7.474354E-007	0.009609	8
	9	14	125953.1	4487.115	-700.9008	1	4541.527	-8.878029	4.52507E-007	0.008549	7
	10	16	100078.1	4543.609	-620.5496	1	4585.79	-7.777131	-4.424744E-008	0.0095772	7
	11	17	79453.13	4590.692	-569.1416	1	4625.838	-7.067314	-7.234592E-009	0.0095032	7
	12	18	63140.62	4632.635	-532.3431	1	4663.121	-6.555192	4.693061E-008	0.0095058	7
	13	19	50203.12	4674.208	-512.4187	1	4702.211	-6.256174	4.699781E-008	0.009505	7
	14	21	39890.62	4703.479	-519.29	1	4732.058	-6.300255	2.284607E-008	0.0096301	7
	15	22	31640.63	4754.457	-513.2326	1	4782.078	-6.161089	-2.911726E-008	0.0095462	7
	16	24	25171.88	4796.905	-533.52	1	4826.483	-6.346452	4.695248E-008	0.009505	7
	17	25	20015.62	4842.078	-568.1835	1	4875.3	-6.692648	-4.145176E-008	0.0095645	7
	18	26	15890.62	4888.489	-608.765	1	4926.248	-7.098517	-5.784304E-008	0.0096309	7
	19	28	12609.37	4938.455	-681.6559	1	4985.278	-7.858889	1.151774E-007	0.0093907	7
	20	29	10078.13	4994.277	-763.8132	1	5052.347	-8.695309	-6.227803E-008	0.0096652	7
	21	30	8015.625	5051.246	-863.6959	1	5124.554	-9.70298	1.042978E-007	0.0094522	7
	22	32	6328.125	5118.839	-991.964	1	5214.068	-10.96724	-6.072781E-008	0.0096629	7
	23	33	5015.625	5190.421	-1152.003	1	5316.727	-12.51383	-5.911041E-008	0.0096301	7
	24	34	3984.375	5268.979	-1344.305	1	5437.766	-14.31285	-5.887132E-008	0.0096346	7
	25	36	3170.956	5358.809	-1579.969	1	5586.872	-16.4274	-8.930137E-009	0.0096041	7
	26	37	2527.573	5460.596	-1864.626	1	5770.177	-18.85346	-6.050123E-008	0.0096727	7
	27	38	1976.103	5589.11	-2245.079	1	6023.166	-21.88474	-5.351522E-009	0.0094853	7
	28	39	1577.524	5717.024	-2675.376	1	6312.052	-25.07802	5.98861E-008	0.0094533	7
	29	41	1265.625	5869.684	-3169.139	1	6670.58	-28.36534	-2.625873E-009	0.0094899	7
	30	42	998.264	6067.478	-3817.688	1	7168.614	-32.17831	-5.722248E-008	0.0096286	7
	31	43	796.875	6279.327	-4575.415	1	7769.451	-36.07885	-8.094435E-008	0.0096633	7
	32	45	627.7902	6543.658	-5545.226	1	8577.236	-40.2786	-4.941865E-008	0.0096636	7
	33	46	505.5147	6825.041	-6612.39	1	9502.89	-44.09336	5.032042E-008	0.0094987	7
	34	47	397.9953	7192.403	-8045.662	1	10791.82	-48.20494	1.552711E-009	0.0095093	6
	35	49	315.5048	7601.854	-9757.35	1	12369.07	-52.07819	1.582482E-009	0.0095131	6
	36	50	252.4038	8067.706	-11765.9	1	14266.2	-55.56214	1.51575E-009	0.0095097	6
	37	51	198.6229	8660.849	-14418.02	1	16819.32	-59.00692	9.285622E-010	0.009509	6
	38	53	158.3615	9344.003	-17511.73	1	19848.7	-61.91627	1.163435E-009	0.0095117	6
	39	54	125.558	10209.1	-21390.86	1	23702.2	-64.48651	1.377713E-009	0.0095076	6
	40	55	100.4464	11233.43	-25931.71	1	28260.28	-66.57808	1.958359E-009	0.0095033	6
	41	57	79.00281	12670.36	-31914.98	1	34338.08	-68.34674	2.271875E-010	0.009507	6
	42	58	63.3446	13971.31	-38507.17	1	40963.39	-70.05804	5.923415E-010	0.0095074	6
	43	60	49.86702	17128.52	-47761.47	1	50739.96	-70.27083	1.544024E-009	0.0095018	6
	44	61	39.72458	19661.94	-57917.76	1	61164.2	-71.24866	1.031069E-009	0.0095104	6
	45	62	31.6723	23554.63	-70569.44	1	74396.68	-71.54205	1.669401E-009	0.0095064	6
	46	64	24.93351	28760.99	-85989.81	1	90672.17	-71.50647	1.024751E-009	0.0094968	6
	47	65	19.86229	35066.66	-103935.7	1	109691.8	-71.35622	1.413982E-009	0.0095135	5
	48	66	15.83615	42427.27	-124422.7	1	131457.6	-71.17099	-1.580331E-011	0.0095117	5
	49	68	12.40079	54598.11	-152976.6	1	162427.8	-70.35827	8.477828E-010	0.0095149	5
	50	69	9.93114	69210.27	-180958.2	1	193741.9	-69.06986	5.525887E-010	0.0095088	5
	51	71	7.944915	85329.16	-213578.2	1	229992.8	-68.22221	1.267324E-009	0.0095082	5
	52	72	6.317385	109501	-253922	1	276526.4	-66.67242	6.824696E-010	0.0095032	5
	53	74	5.008013	138929.9	-299661.9	1	330301	-65.12652	2.115786E-010	0.0095208	5
	54	77	3.945707	176955.3	-351568.6	1	393590.7	-63.28248	1.970308E-010	0.0095173	5
	55	79	3.158693	219374.1	-404850.6	1	460466.1	-61.54832	-1.578091E-011	0.0095003	5
	56	83	2.504006	272101.5	-463996.8	1	537896.1	-59.61137	5.136057E-010	0.0095237	5
	57	85	1.998082	330944.6	-525440.6	1	620976.8	-57.79555	4.881368E-010	0.0095236	5
	58	89	1.584686	400329.8	-591361.6	1	714123.6	-55.90346	2.416677E-010	0.009479	5
	59	92	1.266892	474171.7	-662622	1	814804.7	-54.41253	3.090409E-010	0.0095479	5
	60	96	0.999041	559758	-742014.8	1	929470.3	-52.96998	1.493983E-011	0.0094786	5
