EXPLAIN
TAG	EISPOT
TITLE	LABEL	Potentiostatic EIS	Test &Identifier
DATE	LABEL	11/22/2019	Date
TIME	LABEL	9:46:31	Time
NOTES	NOTES	4	&Notes...
	
	
	
	
PSTAT	PSTAT	REF600-11020	Potentiostat
VDC	POTEN	0.00000E+000	T	DC &Voltage (V)
FREQINIT	QUANT	1.00000E+006	Initial Fre&q. (Hz)
FREQFINAL	QUANT	1.00000E+000	Final Fre&q. (Hz)
PTSPERDEC	QUANT	1.00000E+001	Points/&decade
VAC	QUANT	2.50000E+001	AC &Voltage (mV rms)
AREA	QUANT	1.00000E-002	&Area (cm^2)
CONDIT	TWOPARAM	T	5.00000E+000	0.00000E+000	Conditionin&g	Time(s)	E(V)
DELAY	TWOPARAM	T	5.00000E+000	0.00000E+000	Init. De&lay	Time(s)	Stab.(mV/s)
SPEED	SELECTOR	0	&Optimize for:
ZGUESS	QUANT	1.00000E+005	E&stimated Z (ohms)
OCVCURVE	TABLE	19
	Pt	T	Vf	Vm	Ach	Over
	#	s	V vs. Ref.	V	V	bits
	0	0.258333	3.16820E-003	3.16820E-003	5.40799E-004	...........
	1	0.516667	3.16551E-003	3.02771E-003	5.41533E-004	...........
	2	0.775	3.14917E-003	2.90161E-003	5.41899E-004	...........
	3	1.03333	3.10409E-003	2.81803E-003	5.39166E-004	...........
	4	1.29167	3.02714E-003	2.72244E-003	5.43333E-004	...........
	5	1.55	2.93121E-003	2.63972E-003	5.37099E-004	...........
	6	1.80833	2.83187E-003	2.56024E-003	5.39366E-004	...........
	7	2.06667	2.73786E-003	2.50106E-003	5.40666E-004	...........
	8	2.325	2.65232E-003	2.43585E-003	5.37666E-004	...........
	9	2.58333	2.57584E-003	2.38452E-003	5.37899E-004	...........
	10	2.84167	2.50761E-003	2.33140E-003	5.36766E-004	...........
	11	3.1	2.44606E-003	2.27917E-003	5.35933E-004	...........
	12	3.35833	2.38937E-003	2.22918E-003	5.33566E-004	...........
	13	3.61667	2.33583E-003	2.18224E-003	5.30900E-004	...........
	14	3.875	2.28448E-003	2.13953E-003	5.36533E-004	...........
	15	4.13333	2.23519E-003	2.09339E-003	5.40499E-004	...........
	16	4.39167	2.18799E-003	2.05338E-003	5.35600E-004	...........
	17	4.65	2.14250E-003	2.00157E-003	5.34366E-004	...........
	18	4.90833	2.09698E-003	1.91714E-003	5.41733E-004	...........
EOC	QUANT	0.002097	Open Circuit (V)
PSTATMODEL	IQUANT	4	Pstat Model
PSTATSECTION	LABEL	REF600-11020	Pstat Section
PSTATSERIALNO	LABEL	11020	Pstat Serial Number
CTRLMODE	IQUANT	1	Control Mode
IESTAB	IQUANT	0	I/E Stability
CASPEED	IQUANT	1	Control Amp Speed
CONVENTION	IQUANT	1	Current Convention
ICHRANGE	IQUANT	2	Ich Range
ICHRANGEMODE	TOGGLE	F	Ich Auto Range
ICHOFFSETENABLE	TOGGLE	T	Ich Offset Enable
ICHOFFSET	QUANT	0	Ich Offset (V)
ICHFILTER	IQUANT	3	Ich Filter
VCHRANGE	IQUANT	2	Vch Range
VCHRANGEMODE	TOGGLE	F	Vch Auto Range
VCHOFFSETENABLE	TOGGLE	T	Vch Offset Enable
VCHOFFSET	QUANT	0	Vch Offset (V)
VCHFILTER	IQUANT	3	Vch Filter
ACHRANGE	IQUANT	2	Ach Range
ACHOFFSETENABLE	TOGGLE	F	Ach Offset Enable
ACHOFFSET	QUANT	0	Ach Offset (V)
ACHFILTER	IQUANT	3	Ach Filter
IERANGELOWERLIMIT	IQUANT	1	I/E Range Lower Limit
IERANGEMODE	TOGGLE	F	I/E AutoRange
IERANGE	IQUANT	4	I/E Range
POSFEEDENABLE	TOGGLE	F	Positive Feedback IR Comp
POSFEEDRESISTANCE	QUANT	0	Positive Feedback Resistance (ohm)
ACHSELECT	IQUANT	0	Ach Select
CABLEID	IQUANT	14	Cable ID
DCCALDATE	LABEL	8/19/2019	DC Calibration Date
ACCALDATE	LABEL	8/19/2019	AC Calibration Date
THERMOSELECT	IQUANT	1	Thermo Select
FRAMEWORKVERSION	QUANT	6.33	Framework Version
INSTRUMENTVERSION	LABEL	3.50	Instrument Version
ZCURVE	TABLE
	Pt	Time	Freq	Zreal	Zimag	Zsig	Zmod	Zphz	Idc	Vdc	IERange
	#	s	Hz	ohm	ohm	V	ohm	°	A	V	#
	0	2	1000078	2067.02	-1019.216	1	2304.641	-26.24721	-7.777416E-007	0.0035607	8
	1	2	794390.6	2249.521	-925.121	1	2432.323	-22.35503	-7.270062E-007	0.0044354	8
	2	2	630984.4	2392.088	-819.9957	1	2528.73	-18.92146	5.093244E-008	0.0033866	8
	3	3	501234.4	2502.177	-721.2654	1	2604.057	-16.0799	8.732969E-007	0.0040638	8
	4	3	398109.4	2590.262	-629.4955	1	2665.656	-13.65944	1.918212E-006	0.0038894	8
	5	3	316265.6	2648.08	-550.7877	1	2704.754	-11.74971	1.805163E-006	0.0031276	8
	6	3	251203.1	2705.794	-483.9137	1	2748.726	-10.13978	7.281531E-007	0.0039321	8
	7	4	199546.9	2751.763	-425.7143	1	2784.498	-8.794285	-3.553485E-006	0.0041177	8
	8	4	158578.1	2794.126	-376.9596	1	2819.439	-7.683465	-3.697099E-008	0.0032681	8
	9	4	125953.1	2835.007	-307.5014	1	2851.635	-6.190435	5.603094E-007	0.0054964	7
	10	5	100078.1	2858.221	-292.8259	1	2873.182	-5.849566	-2.921281E-007	0.0027573	7
	11	5	79453.13	2881.23	-286.855	1	2895.475	-5.685626	9.874822E-007	0.002173	7
	12	5	63140.62	2907.534	-289.2568	1	2921.887	-5.681393	-6.792621E-007	0.003391	7
	13	6	50203.12	2933.845	-299.9135	1	2949.135	-5.836809	8.319959E-008	0.0043789	7
	14	6	39890.62	2961.755	-314.0965	1	2978.364	-6.053638	-9.736648E-007	0.004015	7
	15	6	31640.63	2992.521	-338.2634	1	3011.578	-6.449127	-2.926782E-007	0.0027482	7
	16	7	25171.88	3025.586	-367.1456	1	3047.78	-6.918841	8.888438E-007	0.0019705	7
	17	7	20015.62	3059.654	-404.6934	1	3086.302	-7.534646	-1.129917E-006	0.0045402	7
	18	7	15890.62	3098.862	-448.5833	1	3131.162	-8.236774	9.397976E-007	0.0028368	7
	19	8	12609.37	3141.228	-505.2197	1	3181.597	-9.136925	7.753767E-007	0.0032866	7
	20	8	10078.13	3183.08	-569.5735	1	3233.637	-10.14502	5.779951E-007	0.0036729	7
	21	8	8015.625	3230.595	-651.4191	1	3295.617	-11.40029	-1.129445E-006	0.00454	7
	22	8	6328.125	3285.692	-751.0223	1	3370.431	-12.87512	5.773294E-007	0.0036702	7
	23	9	5015.625	3342.436	-871.7521	1	3454.248	-14.61786	-2.936252E-007	0.0027488	7
	24	9	3984.375	3404.293	-1015.836	1	3552.623	-16.61503	-9.743288E-007	0.0040086	7
	25	9	3170.956	3470.667	-1193.287	1	3670.077	-18.97404	-1.13294E-006	0.0048644	7
	26	10	2527.573	3543.926	-1407.027	1	3813.022	-21.65431	-2.542151E-007	0.0047442	7
	27	10	1976.103	3632.715	-1694.086	1	4008.31	-25.0016	4.34174E-007	0.0019915	7
	28	10	1577.524	3721.515	-2025.855	1	4237.188	-28.56224	8.305582E-008	0.0043688	7
	29	11	1265.625	3824.085	-2399.344	1	4514.474	-32.10537	1.011637E-006	0.0024501	7
	30	11	998.264	3947.439	-2908.421	1	4903.182	-36.3823	1.011432E-006	0.0024473	7
	31	11	796.875	4082.128	-3504.592	1	5380.143	-40.64678	1.012095E-006	0.0024459	7
	32	12	627.7902	4250.173	-4287.197	1	6036.89	-45.24847	8.924854E-007	0.0019572	7
	33	12	505.5147	4431.451	-5154.069	1	6797.219	-49.31117	8.881659E-007	0.0019562	7
	34	12	397.9953	4687.835	-6331.09	1	7877.722	-53.48203	3.877124E-009	0.0035305	7
	35	13	315.5048	4993.973	-7751.363	1	9220.813	-57.20752	3.681226E-011	0.0035322	7
	36	13	252.4038	5371.119	-9423.45	1	10846.67	-60.318	4.2415E-010	0.0034655	6
	37	13	198.6229	5889.226	-11625.04	1	13031.67	-63.1333	2.247521E-010	0.0034762	6
	38	14	158.3615	6528.822	-14174.52	1	15605.85	-65.26907	7.794666E-010	0.0034649	6
	39	14	125.558	7392.783	-17355.62	1	18864.54	-66.92799	1.063774E-010	0.0034753	6
	40	14	100.4464	8481.153	-21018.43	1	22665.04	-68.02541	3.65109E-010	0.0034718	6
	41	14	79.00281	10056.82	-25791.97	1	27683.3	-68.69817	8.25183E-010	0.0034589	6
	42	15	63.3446	12015.11	-31374.24	1	33596.22	-69.04512	-7.430725E-011	0.0034678	6
	43	15	49.86702	14628.33	-38118.07	1	40828.61	-69.00501	-4.421667E-010	0.0034678	6
	44	16	39.72458	17954.84	-45576.06	1	48985.24	-68.49788	1.08342E-009	0.0034693	6
	45	16	31.6723	22301.91	-54487.01	1	58874.53	-67.74037	-1.032839E-010	0.003463	6
	46	16	24.93351	28176.32	-65077.36	1	70915.22	-66.589	1.653102E-009	0.0034596	6
	47	16	19.86229	35245.43	-76785.66	1	84488.33	-65.34438	2.792132E-009	0.0034738	6
	48	17	15.83615	43366.44	-89086.21	1	99080.8	-64.04356	-6.804606E-010	0.0034622	6
	49	17	12.40079	55483.07	-105058.7	1	118809.5	-62.16079	-3.15275E-010	0.0034697	5
	50	17	9.93114	68091.4	-120133.1	1	138088.4	-60.45545	8.672178E-010	0.0034764	5
	51	18	7.944915	82334.21	-137030.3	1	159863.2	-59.00059	9.74584E-010	0.0034653	5
	52	19	6.317385	99070.5	-155415.7	1	184306.8	-57.48432	4.26037E-010	0.0034587	5
	53	19	5.008013	117878.6	-175923.4	1	211765	-56.17567	-4.27235E-011	0.003462	5
	54	20	3.945707	138669.7	-199313.6	1	242806.9	-55.17226	2.688759E-010	0.0034647	5
	55	22	3.158693	159846.8	-224129.6	1	275290.9	-54.50394	2.822378E-010	0.003478	5
	56	23	2.504006	183549.4	-254160.8	1	313509.3	-54.16401	-5.969961E-012	0.003472	5
	57	25	1.998082	207537.7	-288472.8	1	355370.8	-54.2674	7.025827E-011	0.0034576	5
	58	26	1.584686	235693.7	-329988	1	405516.4	-54.4637	1.942771E-010	0.0035014	5
	59	28	1.266892	266228.5	-379480.8	1	463555.1	-54.94804	2.029416E-010	0.0035031	5
	60	31	0.999041	303527.8	-442063.3	1	536236.1	-55.52588	3.244812E-010	0.003508	5
