EXPLAIN
TAG	EISPOT
TITLE	LABEL	Potentiostatic EIS	Test &Identifier
DATE	LABEL	11/22/2019	Date
TIME	LABEL	10:29:41	Time
NOTES	NOTES	4	&Notes...
	
	
	
	
PSTAT	PSTAT	REF600-11020	Potentiostat
VDC	POTEN	0.00000E+000	T	DC &Voltage (V)
FREQINIT	QUANT	1.00000E+006	Initial Fre&q. (Hz)
FREQFINAL	QUANT	1.00000E+000	Final Fre&q. (Hz)
PTSPERDEC	QUANT	1.00000E+001	Points/&decade
VAC	QUANT	2.50000E+001	AC &Voltage (mV rms)
AREA	QUANT	1.00000E-002	&Area (cm^2)
CONDIT	TWOPARAM	T	5.00000E+000	0.00000E+000	Conditionin&g	Time(s)	E(V)
DELAY	TWOPARAM	T	5.00000E+000	0.00000E+000	Init. De&lay	Time(s)	Stab.(mV/s)
SPEED	SELECTOR	0	&Optimize for:
ZGUESS	QUANT	1.00000E+005	E&stimated Z (ohms)
OCVCURVE	TABLE	19
	Pt	T	Vf	Vm	Ach	Over
	#	s	V vs. Ref.	V	V	bits
	0	0.258333	5.30558E-002	5.30558E-002	5.76666E-004	...........
	1	0.516667	5.30947E-002	5.50918E-002	5.70332E-004	...........
	2	0.775	5.33304E-002	5.68568E-002	5.88432E-004	...........
	3	1.03333	5.39839E-002	5.84083E-002	5.80899E-004	...........
	4	1.29167	5.51191E-002	5.97937E-002	5.80832E-004	...........
	5	1.55	5.65681E-002	6.10483E-002	5.72899E-004	...........
	6	1.80833	5.80938E-002	6.21980E-002	5.73432E-004	...........
	7	2.06667	5.95404E-002	6.32400E-002	5.71932E-004	...........
	8	2.325	6.08528E-002	6.42220E-002	5.78066E-004	...........
	9	2.58333	6.20349E-002	6.51277E-002	5.85199E-004	...........
	10	2.84167	6.31096E-002	6.59865E-002	5.85199E-004	...........
	11	3.1	6.40994E-002	6.67938E-002	5.72132E-004	...........
	12	3.35833	6.50208E-002	6.75571E-002	5.77732E-004	...........
	13	3.61667	6.58850E-002	6.82821E-002	5.86799E-004	...........
	14	3.875	6.66995E-002	6.89721E-002	5.86765E-004	...........
	15	4.13333	6.74699E-002	6.96361E-002	5.90399E-004	...........
	16	4.39167	6.82012E-002	7.02705E-002	5.81999E-004	...........
	17	4.65	6.88979E-002	7.08694E-002	5.88432E-004	...........
	18	4.90833	6.95641E-002	7.15106E-002	5.83999E-004	...........
EOC	QUANT	0.0695641	Open Circuit (V)
PSTATMODEL	IQUANT	4	Pstat Model
PSTATSECTION	LABEL	REF600-11020	Pstat Section
PSTATSERIALNO	LABEL	11020	Pstat Serial Number
CTRLMODE	IQUANT	1	Control Mode
IESTAB	IQUANT	0	I/E Stability
CASPEED	IQUANT	1	Control Amp Speed
CONVENTION	IQUANT	1	Current Convention
ICHRANGE	IQUANT	2	Ich Range
ICHRANGEMODE	TOGGLE	F	Ich Auto Range
ICHOFFSETENABLE	TOGGLE	T	Ich Offset Enable
ICHOFFSET	QUANT	0	Ich Offset (V)
ICHFILTER	IQUANT	3	Ich Filter
VCHRANGE	IQUANT	2	Vch Range
VCHRANGEMODE	TOGGLE	F	Vch Auto Range
VCHOFFSETENABLE	TOGGLE	T	Vch Offset Enable
VCHOFFSET	QUANT	0	Vch Offset (V)
VCHFILTER	IQUANT	3	Vch Filter
ACHRANGE	IQUANT	2	Ach Range
ACHOFFSETENABLE	TOGGLE	F	Ach Offset Enable
ACHOFFSET	QUANT	0	Ach Offset (V)
ACHFILTER	IQUANT	3	Ach Filter
IERANGELOWERLIMIT	IQUANT	1	I/E Range Lower Limit
IERANGEMODE	TOGGLE	F	I/E AutoRange
IERANGE	IQUANT	6	I/E Range
POSFEEDENABLE	TOGGLE	F	Positive Feedback IR Comp
POSFEEDRESISTANCE	QUANT	0	Positive Feedback Resistance (ohm)
ACHSELECT	IQUANT	0	Ach Select
CABLEID	IQUANT	14	Cable ID
DCCALDATE	LABEL	8/19/2019	DC Calibration Date
ACCALDATE	LABEL	8/19/2019	AC Calibration Date
THERMOSELECT	IQUANT	1	Thermo Select
FRAMEWORKVERSION	QUANT	6.33	Framework Version
INSTRUMENTVERSION	LABEL	3.50	Instrument Version
ZCURVE	TABLE
	Pt	Time	Freq	Zreal	Zimag	Zsig	Zmod	Zphz	Idc	Vdc	IERange
	#	s	Hz	ohm	ohm	V	ohm	°	A	V	#
	0	1	1000078	2162.102	-1882.592	1	2866.852	-41.04684	1.959148E-006	0.0722201	8
	1	2	794390.6	2476.347	-1981.299	1	3171.41	-38.66294	-2.579324E-006	0.0718935	8
	2	2	630984.4	2798.251	-2056.505	1	3472.668	-36.31311	7.860314E-006	0.0698098	8
	3	2	501234.4	3133.964	-2124.139	1	3785.987	-34.12865	5.655547E-006	0.0698302	8
	4	3	398109.4	3465.975	-2177.637	1	4093.298	-32.14073	-4.50056E-006	0.0716865	8
	5	3	316265.6	3805.845	-2203.802	1	4397.863	-30.07329	-4.592984E-006	0.0714352	8
	6	3	251203.1	4154.663	-2254.374	1	4726.883	-28.48483	6.328392E-006	0.0698685	8
	7	3	199546.9	4493.933	-2294.245	1	5045.69	-27.04524	6.8942E-006	0.0702539	8
	8	4	158578.1	4863.383	-2317.375	1	5387.274	-25.47754	-3.795774E-006	0.0716139	8
	9	4	125953.1	5335.018	-2273.819	1	5799.368	-23.08401	4.328683E-006	0.0635872	7
	10	4	100078.1	5676.407	-2235.464	1	6100.729	-21.49535	1.061516E-006	0.069114	7
	11	5	79453.13	6034.023	-2219.28	1	6429.202	-20.19324	8.263431E-007	0.0690379	7
	12	5	63140.62	6374.161	-2207.054	1	6745.444	-19.09842	7.084822E-007	0.071179	7
	13	5	50203.12	6664.595	-2105.465	1	6989.264	-17.53226	-1.35833E-006	0.0722361	7
	14	6	39890.62	6998.528	-2053.582	1	7293.6	-16.3533	-9.682657E-007	0.0728531	7
	15	6	31640.63	7292.561	-1958.375	1	7550.939	-15.03181	-1.178482E-006	0.0716201	7
	16	7	25171.88	7576.813	-1889.77	1	7808.926	-14.00468	-9.681333E-007	0.0728464	7
	17	7	20015.62	7796.125	-1773.341	1	7995.268	-12.81471	-8.512412E-007	0.070888	7
	18	7	15890.62	8057.523	-1730.735	1	8241.307	-12.12279	-3.94514E-007	0.0701204	7
	19	8	12609.37	8242.596	-1679.338	1	8411.93	-11.51577	-1.183116E-006	0.0716168	7
	20	8	10078.13	8448.43	-1654.664	1	8608.941	-11.08137	-6.605471E-007	0.0727444	7
	21	8	8015.625	8707.363	-1707.925	1	8873.285	-11.09752	7.022901E-007	0.0711762	7
	22	9	6328.125	8836.167	-1695.389	1	8997.344	-10.8613	7.037192E-007	0.0711689	7
	23	9	5015.625	9008.093	-1763.806	1	9179.147	-11.07849	1.133981E-006	0.0701536	7
	24	9	3984.375	9122.503	-1832.265	1	9304.69	-11.35682	8.178874E-007	0.06904	7
	25	10	3170.956	9206.681	-1994.819	1	9420.312	-12.22535	-8.478153E-007	0.070881	7
	26	10	2527.573	9378.842	-2195.503	1	9632.39	-13.17519	-3.944546E-007	0.0701203	7
	27	10	1976.103	9662.93	-2508.847	1	9983.32	-14.55469	1.214034E-006	0.0696945	7
	28	10	1577.524	9910.23	-2752.457	1	10285.36	-15.52205	1.054083E-006	0.0691159	7
	29	11	1265.625	9961.75	-3235.638	1	10474.06	-17.99411	8.188723E-007	0.0690419	7
	30	11	998.264	10157.21	-3783.523	1	10839.01	-20.43017	8.17955E-007	0.0690447	7
	31	11	796.875	10242.84	-4377.553	1	11139.07	-23.14073	-1.353135E-006	0.0722269	7
	32	12	627.7902	10467.89	-5242.289	1	11707.19	-26.60158	-1.345006E-006	0.0726108	7
	33	12	505.5147	10814.52	-6265.675	1	12498.5	-30.08697	4.554118E-007	0.0715359	7
	34	12	397.9953	11096.47	-7589.892	1	13443.89	-34.37179	-3.033599E-009	0.0709556	6
	35	13	315.5048	11479.02	-9213.52	1	14719.27	-38.75191	-2.646616E-009	0.0709526	6
	36	13	252.4038	11934.6	-11134.19	1	16321.92	-43.01283	-2.809222E-009	0.0709512	6
	37	13	198.6229	12576.38	-13668.03	1	18573.65	-47.38186	-2.770935E-009	0.0709453	6
	38	14	158.3615	13365.43	-16609.69	1	21319.4	-51.17717	-2.478554E-009	0.0709435	6
	39	14	125.558	14455.46	-20267.64	1	24894.53	-54.50245	-3.288862E-009	0.0709571	6
	40	14	100.4464	15828.16	-24533.76	1	29196.5	-57.17158	-3.676282E-009	0.070941	6
	41	15	79.00281	17746.16	-30032.42	1	34883.7	-59.42115	-3.357118E-009	0.0709409	6
	42	15	63.3446	20394.26	-35593.19	1	41021.96	-60.18806	-2.844345E-009	0.0709441	6
	43	15	49.86702	23846.85	-43379.65	1	49502.18	-61.20134	-3.182357E-009	0.0709448	6
	44	16	39.72458	27951.15	-51985.51	1	59023.39	-61.73433	-2.668229E-009	0.0709478	6
	45	16	31.6723	33387.68	-61788.16	1	70231.86	-61.61511	-2.552031E-009	0.0709519	6
	46	16	24.93351	40938.27	-73062.41	1	83749.98	-60.73726	-2.975821E-009	0.0709391	6
	47	17	19.86229	49573.89	-85085.83	1	98474.2	-59.77347	-1.140087E-009	0.070948	6
	48	17	15.83615	59158.68	-98600.8	1	114986.4	-59.03703	-2.471672E-009	0.0709431	5
	49	17	12.40079	73111.46	-114202.1	1	135600.1	-57.37288	-2.862902E-009	0.0709435	5
	50	18	9.93114	87732.44	-128752.1	1	155801.5	-55.72926	-3.703559E-009	0.0709536	5
	51	18	7.944915	104016.6	-145180.7	1	178597.1	-54.3798	-3.300419E-009	0.0709475	5
	52	19	6.317385	122772.1	-163787.5	1	204693.3	-53.14546	-2.978388E-009	0.0709467	5
	53	20	5.008013	144162.3	-184371.3	1	234041.7	-51.97769	-3.109453E-009	0.0709358	5
	54	21	3.945707	168742.6	-207386.7	1	267363.7	-50.86607	-2.649525E-009	0.0709495	5
	55	22	3.158693	194913.6	-231492.7	1	302622.2	-49.9031	-2.427574E-009	0.0709656	5
	56	24	2.504006	225876	-259598.5	1	344109.5	-48.97356	-2.738524E-009	0.0709548	5
	57	25	1.998082	259113.4	-289288.6	1	388365.4	-48.14946	-2.536048E-009	0.0709592	5
	58	27	1.584686	299873.5	-322922.9	1	440685.1	-47.11952	-2.232896E-009	0.0709979	5
	59	29	1.266892	343976.5	-359012.3	1	497201.8	-46.22528	-2.114051E-009	0.070982	5
	60	31	0.999041	396864.7	-398716.9	1	562562.6	-45.13339	-2.038372E-009	0.0709546	5
