EXPLAIN
TAG	EISPOT
TITLE	LABEL	Potentiostatic EIS	Test &Identifier
DATE	LABEL	10/10/2019	Date
TIME	LABEL	8:13:53	Time
NOTES	NOTES	1	&Notes...
	
PSTAT	PSTAT	REF600-11020	Potentiostat
VDC	POTEN	0.00000E+000	T	DC &Voltage (V)
FREQINIT	QUANT	1.00000E+006	Initial Fre&q. (Hz)
FREQFINAL	QUANT	1.00000E+000	Final Fre&q. (Hz)
PTSPERDEC	QUANT	1.00000E+001	Points/&decade
VAC	QUANT	2.50000E+001	AC &Voltage (mV rms)
AREA	QUANT	1.00000E-002	&Area (cm^2)
CONDIT	TWOPARAM	T	5.00000E+000	0.00000E+000	Conditionin&g	Time(s)	E(V)
DELAY	TWOPARAM	T	5.00000E+000	0.00000E+000	Init. De&lay	Time(s)	Stab.(mV/s)
SPEED	SELECTOR	1	&Optimize for:
ZGUESS	QUANT	1.00000E+004	E&stimated Z (ohms)
OCVCURVE	TABLE	19
	Pt	T	Vf	Vm	Ach	Over
	#	s	V vs. Ref.	V	V	bits
	0	0.258333	5.10177E-003	5.10177E-003	5.82165E-004	...........
	1	0.516667	5.09979E-003	4.99793E-003	5.82699E-004	...........
	2	0.775	5.08846E-003	4.94383E-003	5.81532E-004	...........
	3	1.03333	5.05868E-003	4.86421E-003	5.82099E-004	...........
	4	1.29167	5.00858E-003	4.79003E-003	5.81065E-004	...........
	5	1.55	4.94422E-003	4.72723E-003	5.84565E-004	...........
	6	1.80833	4.87379E-003	4.67640E-003	5.81132E-004	...........
	7	2.06667	4.80414E-003	4.61275E-003	5.83065E-004	...........
	8	2.325	4.73916E-003	4.57403E-003	5.81165E-004	...........
	9	2.58333	4.67980E-003	4.52374E-003	5.80799E-004	...........
	10	2.84167	4.62635E-003	4.51254E-003	5.82832E-004	...........
	11	3.1	4.57994E-003	4.47703E-003	5.79499E-004	...........
	12	3.35833	4.54135E-003	4.45079E-003	5.77999E-004	...........
	13	3.61667	4.50918E-003	4.42954E-003	5.79599E-004	...........
	14	3.875	4.48121E-003	4.41751E-003	5.79199E-004	...........
	15	4.13333	4.45654E-003	4.39324E-003	5.78932E-004	...........
	16	4.39167	4.43503E-003	4.38489E-003	5.80032E-004	...........
	17	4.65	4.41609E-003	4.36303E-003	5.84465E-004	...........
	18	4.90833	4.39879E-003	4.34774E-003	5.81065E-004	...........
EOC	QUANT	0.0043988	Open Circuit (V)
PSTATMODEL	IQUANT	4	Pstat Model
PSTATSECTION	LABEL	REF600-11020	Pstat Section
PSTATSERIALNO	LABEL	11020	Pstat Serial Number
CTRLMODE	IQUANT	1	Control Mode
IESTAB	IQUANT	0	I/E Stability
CASPEED	IQUANT	1	Control Amp Speed
CONVENTION	IQUANT	1	Current Convention
ICHRANGE	IQUANT	2	Ich Range
ICHRANGEMODE	TOGGLE	F	Ich Auto Range
ICHOFFSETENABLE	TOGGLE	T	Ich Offset Enable
ICHOFFSET	QUANT	0	Ich Offset (V)
ICHFILTER	IQUANT	3	Ich Filter
VCHRANGE	IQUANT	2	Vch Range
VCHRANGEMODE	TOGGLE	F	Vch Auto Range
VCHOFFSETENABLE	TOGGLE	T	Vch Offset Enable
VCHOFFSET	QUANT	0	Vch Offset (V)
VCHFILTER	IQUANT	3	Vch Filter
ACHRANGE	IQUANT	2	Ach Range
ACHOFFSETENABLE	TOGGLE	F	Ach Offset Enable
ACHOFFSET	QUANT	0	Ach Offset (V)
ACHFILTER	IQUANT	3	Ach Filter
IERANGELOWERLIMIT	IQUANT	1	I/E Range Lower Limit
IERANGEMODE	TOGGLE	F	I/E AutoRange
IERANGE	IQUANT	5	I/E Range
POSFEEDENABLE	TOGGLE	F	Positive Feedback IR Comp
POSFEEDRESISTANCE	QUANT	0	Positive Feedback Resistance (ohm)
ACHSELECT	IQUANT	0	Ach Select
CABLEID	IQUANT	14	Cable ID
DCCALDATE	LABEL	8/19/2019	DC Calibration Date
ACCALDATE	LABEL	8/19/2019	AC Calibration Date
THERMOSELECT	IQUANT	1	Thermo Select
FRAMEWORKVERSION	QUANT	6.33	Framework Version
INSTRUMENTVERSION	LABEL	3.50	Instrument Version
ZCURVE	TABLE
	Pt	Time	Freq	Zreal	Zimag	Zsig	Zmod	Zphz	Idc	Vdc	IERange
	#	s	Hz	ohm	ohm	V	ohm	°	A	V	#
	0	2	1000078	2437.941	-1584.323	1	2907.513	-33.01828	5.72167E-006	0.0057049	8
	1	3	794390.6	2729.351	-1512.08	1	3120.215	-28.98677	-3.302519E-006	0.0066728	8
	2	4	630984.4	3010.64	-1411.736	1	3325.199	-25.1226	4.228043E-006	0.005549	8
	3	6	501234.4	3243.108	-1272.499	1	3483.821	-21.42356	-1.549106E-006	0.0063398	8
	4	7	398109.4	3442.899	-1140.059	1	3626.746	-18.32143	3.181802E-006	0.0054737	8
	5	9	316265.6	3588.295	-1006.398	1	3726.755	-15.66705	3.767076E-006	0.0053485	8
	6	10	251203.1	3697.543	-878.719	1	3800.522	-13.36832	-4.043933E-007	0.0060461	8
	7	12	199546.9	3803.474	-769.8688	1	3880.608	-11.44275	-3.150267E-007	0.0060568	8
	8	13	158578.1	3867.132	-669.86	1	3924.719	-9.8272	1.394421E-007	0.0061448	8
	9	14	125953.1	3968.745	-566.5405	1	4008.978	-8.124117	-2.635932E-007	0.0062408	7
	10	16	100078.1	4001.774	-503.794	1	4033.362	-7.175369	-3.773249E-008	0.0060654	7
	11	17	79453.13	4046.742	-469.1103	1	4073.842	-6.612382	-5.994959E-008	0.0062456	7
	12	18	63140.62	4088.456	-447.2321	1	4112.844	-6.242707	-3.737619E-008	0.0060584	7
	13	20	50203.12	4130.538	-432.1995	1	4153.088	-5.973416	1.215705E-007	0.0058559	7
	14	21	39890.62	4167.344	-427.1407	1	4189.177	-5.852215	-4.345355E-008	0.0060594	7
	15	22	31640.63	4210.357	-430.8536	1	4232.345	-5.842844	-6.05356E-008	0.006142	7
	16	24	25171.88	4249.778	-443.6836	1	4272.875	-5.960179	-6.77897E-008	0.0061214	7
	17	25	20015.62	4292.813	-474.4986	1	4318.958	-6.307484	8.469111E-009	0.0059646	7
	18	27	15890.62	4333.82	-502.3152	1	4362.833	-6.611416	1.91237E-008	0.0061223	7
	19	28	12609.37	4377.656	-544.2458	1	4411.358	-7.086853	-5.275797E-008	0.0061231	7
	20	29	10078.13	4423.216	-602.4434	1	4464.054	-7.755978	1.263133E-007	0.0058512	7
	21	31	8015.625	4465.313	-665.767	1	4514.673	-8.480186	-2.249917E-008	0.0060084	7
	22	32	6328.125	4522.067	-768.3787	1	4586.883	-9.64346	-4.766824E-008	0.0060496	7
	23	33	5015.625	4576.802	-884.5223	1	4661.491	-10.93825	-3.732305E-008	0.0060429	7
	24	35	3984.375	4640.372	-1033.406	1	4754.049	-12.55483	-6.747874E-008	0.0062511	7
	25	36	3170.956	4696.407	-1207.993	1	4849.277	-14.42473	4.999194E-008	0.00598	7
	26	37	2527.573	4767.072	-1426.938	1	4976.056	-16.66413	5.042639E-008	0.0059776	7
	27	39	1976.103	4853.034	-1718.643	1	5148.366	-19.50098	-7.398118E-008	0.0061314	7
	28	40	1577.524	4949.163	-2042.059	1	5353.897	-22.42138	1.388392E-008	0.0059509	7
	29	42	1265.625	5049.776	-2440.01	1	5608.377	-25.78945	-5.233447E-008	0.006096	7
	30	43	998.264	5178.005	-2959.803	1	5964.241	-29.75275	-1.346468E-009	0.0059997	7
	31	44	796.875	5316.838	-3558.649	1	6397.871	-33.79506	-4.083714E-008	0.0060463	7
	32	46	627.7902	5479.338	-4343.545	1	6992.104	-38.40434	-4.501215E-008	0.006147	7
	33	47	505.5147	5664.33	-5215.688	1	7699.872	-42.63872	-4.277164E-008	0.0060447	7
	34	48	397.9953	5883.511	-6400.036	1	8693.455	-47.40788	4.199037E-009	0.0060449	7
	35	50	315.5048	6141.946	-7833.335	1	9954.13	-51.90078	5.269089E-009	0.006047	7
	36	51	252.4038	6447.104	-9533.85	1	11509.1	-55.93215	1.084994E-009	0.0059815	6
	37	53	198.6229	6849.565	-11793.65	1	13638.43	-59.85266	1.136015E-009	0.005984	6
	38	54	158.3615	7333.301	-14437.93	1	16193.55	-63.07311	1.480226E-009	0.0059899	6
	39	55	125.558	7969.305	-17785.76	1	19489.56	-65.86417	9.880905E-010	0.0059872	6
	40	57	100.4464	8757.656	-21701.44	1	23401.9	-68.02337	1.517931E-009	0.0059903	6
	41	58	79.00281	9949.39	-26918.66	1	28698.51	-69.71521	1.370307E-009	0.0059882	6
	42	59	63.3446	11328.77	-32467.76	1	34387.45	-70.76492	6.17653E-010	0.0059841	6
	43	61	49.86702	13339.26	-40730.05	1	42858.75	-71.86617	1.33853E-009	0.0059836	6
	44	62	39.72458	15705.54	-49360.94	1	51799.29	-72.3501	9.81453E-010	0.0059896	6
	45	63	31.6723	18984.17	-59941.46	1	62875.89	-72.42639	9.010847E-010	0.0059867	6
	46	65	24.93351	23584.88	-73658.49	1	77342.23	-72.24534	-3.729137E-011	0.0059876	6
	47	66	19.86229	29330.17	-88996.22	1	93704.78	-71.75951	8.494222E-010	0.005994	6
	48	67	15.83615	36198.23	-106770	1	112739.2	-71.2718	-1.299058E-010	0.0059907	5
	49	69	12.40079	46991.8	-129866.6	1	138107	-70.10751	9.36173E-010	0.0059915	5
	50	70	9.93114	60313.86	-154641.9	1	165987.6	-68.69308	2.664572E-011	0.0060001	5
	51	72	7.944915	76234.06	-183239.5	1	198465	-67.41098	-1.606774E-010	0.0059984	5
	52	73	6.317385	97530.9	-214867.3	1	235966.6	-65.58612	-2.844587E-010	0.0060056	5
	53	75	5.008013	124231.9	-251036.8	1	280094.7	-63.67034	-1.786271E-010	0.005989	5
	54	78	3.945707	157289.8	-291510.8	1	331238	-61.65014	2.979824E-010	0.0059962	5
	55	81	3.158693	193741.8	-332034.8	1	384425.5	-59.7365	-2.552663E-011	0.0059865	5
	56	84	2.504006	237421.7	-377209.7	1	445708.7	-57.81304	9.154348E-011	0.0060017	5
	57	87	1.998082	283886.1	-423347.3	1	509719.8	-56.15519	3.575739E-010	0.0059609	5
	58	90	1.584686	337193.1	-476099.3	1	583412.1	-54.6923	-5.878673E-011	0.0059644	5
	59	94	1.266892	392125.9	-529309.5	1	658734.6	-53.46801	2.269217E-010	0.0059468	5
	60	98	0.999041	452388.6	-594295.1	1	746888.3	-52.72092	7.602247E-011	0.0060279	5
