EXPLAIN
TAG	EISPOT
TITLE	LABEL	Potentiostatic IDE	Test &Identifier
DATE	LABEL	9/4/2019	Date
TIME	LABEL	11:17:13	Time
NOTES	NOTES	1	&Notes...
	
PSTAT	PSTAT	REF600-11020	Potentiostat
VDC	POTEN	0.00000E+000	T	DC &Voltage (V)
FREQINIT	QUANT	1.00000E+006	Initial Fre&q. (Hz)
FREQFINAL	QUANT	1.00000E+000	Final Fre&q. (Hz)
PTSPERDEC	QUANT	1.00000E+001	Points/&decade
VAC	QUANT	2.50000E+001	AC &Voltage (mV rms)
AREA	QUANT	1.00000E-002	&Area (cm^2)
CONDIT	TWOPARAM	T	5.00000E+000	0.00000E+000	Conditionin&g	Time(s)	E(V)
DELAY	TWOPARAM	T	5.00000E+000	0.00000E+000	Init. De&lay	Time(s)	Stab.(mV/s)
SPEED	SELECTOR	1	&Optimize for:
ZGUESS	QUANT	1.00000E+007	E&stimated Z (ohms)
OCVCURVE	TABLE	19
	Pt	T	Vf	Vm	Ach	Over
	#	s	V vs. Ref.	V	V	bits
	0	0.258333	5.48981E-002	5.48981E-002	5.69932E-004	...........
	1	0.516667	5.48906E-002	5.45043E-002	5.69432E-004	...........
	2	0.775	5.48466E-002	5.42492E-002	5.69166E-004	...........
	3	1.03333	5.47319E-002	5.41140E-002	5.71132E-004	...........
	4	1.29167	5.45510E-002	5.40170E-002	5.66466E-004	...........
	5	1.55	5.43523E-002	5.39993E-002	5.69066E-004	...........
	6	1.80833	5.41866E-002	5.40016E-002	5.65732E-004	...........
	7	2.06667	5.40783E-002	5.40472E-002	5.58866E-004	...........
	8	2.325	5.40278E-002	5.40987E-002	5.68332E-004	...........
	9	2.58333	5.40238E-002	5.41815E-002	5.66799E-004	...........
	10	2.84167	5.40540E-002	5.42713E-002	5.67666E-004	...........
	11	3.1	5.41093E-002	5.43812E-002	5.65499E-004	...........
	12	3.35833	5.41839E-002	5.44825E-002	5.65699E-004	...........
	13	3.61667	5.42730E-002	5.45947E-002	5.64766E-004	...........
	14	3.875	5.43723E-002	5.47100E-002	5.64466E-004	...........
	15	4.13333	5.44781E-002	5.48304E-002	5.64399E-004	...........
	16	4.39167	5.45890E-002	5.49500E-002	5.61632E-004	...........
	17	4.65	5.47038E-002	5.50753E-002	5.64832E-004	...........
	18	4.90833	5.48222E-002	5.52071E-002	5.63832E-004	...........
EOC	QUANT	0.0548222	Open Circuit (V)
PSTATMODEL	IQUANT	4	Pstat Model
PSTATSECTION	LABEL	REF600-11020	Pstat Section
PSTATSERIALNO	LABEL	11020	Pstat Serial Number
CTRLMODE	IQUANT	1	Control Mode
IESTAB	IQUANT	0	I/E Stability
CASPEED	IQUANT	1	Control Amp Speed
CONVENTION	IQUANT	1	Current Convention
ICHRANGE	IQUANT	2	Ich Range
ICHRANGEMODE	TOGGLE	F	Ich Auto Range
ICHOFFSETENABLE	TOGGLE	T	Ich Offset Enable
ICHOFFSET	QUANT	0	Ich Offset (V)
ICHFILTER	IQUANT	3	Ich Filter
VCHRANGE	IQUANT	2	Vch Range
VCHRANGEMODE	TOGGLE	F	Vch Auto Range
VCHOFFSETENABLE	TOGGLE	T	Vch Offset Enable
VCHOFFSET	QUANT	0	Vch Offset (V)
VCHFILTER	IQUANT	3	Vch Filter
ACHRANGE	IQUANT	2	Ach Range
ACHOFFSETENABLE	TOGGLE	F	Ach Offset Enable
ACHOFFSET	QUANT	0	Ach Offset (V)
ACHFILTER	IQUANT	3	Ach Filter
IERANGELOWERLIMIT	IQUANT	1	I/E Range Lower Limit
IERANGEMODE	TOGGLE	F	I/E AutoRange
IERANGE	IQUANT	4	I/E Range
POSFEEDENABLE	TOGGLE	F	Positive Feedback IR Comp
POSFEEDRESISTANCE	QUANT	0	Positive Feedback Resistance (ohm)
ACHSELECT	IQUANT	0	Ach Select
CABLEID	IQUANT	14	Cable ID
DCCALDATE	LABEL	8/19/2019	DC Calibration Date
ACCALDATE	LABEL	8/19/2019	AC Calibration Date
THERMOSELECT	IQUANT	1	Thermo Select
FRAMEWORKVERSION	QUANT	6.33	Framework Version
INSTRUMENTVERSION	LABEL	3.50	Instrument Version
ZCURVE	TABLE
	Pt	Time	Freq	Zreal	Zimag	Zsig	Zmod	Zphz	Idc	Vdc	IERange
	#	s	Hz	ohm	ohm	V	ohm	°	A	V	#
	0	2	1000078	2688.782	-1967.009	1	3331.468	-36.18776	1.271392E-005	0.0565512	8
	1	4	794390.6	3046.379	-1865.719	1	3572.301	-31.48489	1.63325E-005	0.055681	8
	2	5	630984.4	3359.213	-1732.01	1	3779.44	-27.27562	1.45047E-005	0.0556991	8
	3	7	501234.4	3617.06	-1582.7	1	3948.172	-23.63252	1.437924E-005	0.0557958	8
	4	8	398109.4	3821.325	-1436.642	1	4082.458	-20.60394	1.479422E-005	0.0555435	8
	5	10	316265.6	4049.204	-1289.549	1	4249.587	-17.66511	1.224389E-005	0.0561337	8
	6	11	251203.1	4150.606	-1171.229	1	4312.692	-15.75814	1.484367E-005	0.0555326	8
	7	13	199546.9	4245.408	-1119.468	1	4390.524	-14.77202	1.332506E-005	0.0559454	8
	8	14	158578.1	4377.492	-1048.137	1	4501.225	-13.46528	1.239958E-005	0.0560894	8
	9	16	125953.1	4446.397	-982.108	1	4553.568	-12.45536	9.768579E-007	0.0562828	7
	10	18	100078.1	4515.265	-962.863	1	4616.787	-12.03779	1.309971E-006	0.0560404	7
	11	19	79453.13	4593.229	-993.118	1	4699.366	-12.20032	1.269819E-006	0.056137	7
	12	20	63140.62	4672.668	-1049.339	1	4789.044	-12.65691	1.289141E-006	0.0561131	7
	13	22	50203.12	4756.123	-1134.867	1	4889.645	-13.42051	1.370103E-006	0.055982	7
	14	23	39890.62	4845.047	-1246.298	1	5002.773	-14.42553	1.290258E-006	0.0560653	7
	15	24	31640.63	4945.541	-1397.445	1	5139.185	-15.77853	1.369944E-006	0.0559825	7
	16	26	25171.88	5063.742	-1591.296	1	5307.891	-17.44548	1.314216E-006	0.0560373	7
	17	27	20015.62	5198.273	-1823.922	1	5508.969	-19.33448	1.371747E-006	0.0559785	7
	18	28	15890.62	5349.912	-2108.007	1	5750.239	-21.50575	1.351377E-006	0.0559451	7
	19	30	12609.37	5526.213	-2453.842	1	6046.517	-23.94298	1.292094E-006	0.056148	7
	20	31	10078.13	5718.032	-2851.149	1	6389.44	-26.50195	1.374542E-006	0.0559476	7
	21	32	8015.625	5959.063	-3331.933	1	6827.313	-29.21118	1.3461E-006	0.055939	7
	22	34	6328.125	6241.349	-3931.995	1	7376.654	-32.21056	1.289901E-006	0.0561009	7
	23	35	5015.625	6568.406	-4631.667	1	8037.182	-35.18932	1.272438E-006	0.0561257	7
	24	36	3984.375	6948.829	-5449.205	1	8830.632	-38.1032	1.367734E-006	0.0559821	7
	25	38	3170.956	7389.589	-6420.52	1	9789.23	-40.98608	1.304288E-006	0.0560235	7
	26	39	2527.573	7905.897	-7563.474	1	10941.18	-43.73193	1.279907E-006	0.0560831	7
	27	40	1976.103	8563.73	-9021.425	1	12438.79	-46.49092	1.291037E-006	0.0560617	7
	28	42	1577.524	9251.149	-10661.32	1	14115.51	-49.05084	1.318949E-006	0.0559961	7
	29	43	1265.625	10122.68	-12492.33	1	16078.77	-50.98174	1.297239E-007	0.0560211	6
	30	44	998.264	11164.68	-14886.51	1	18608.02	-53.13062	1.298309E-007	0.0560506	6
	31	46	796.875	12343.39	-17548.35	1	21454.69	-54.87771	1.387619E-007	0.0558397	6
	32	47	627.7902	13835.45	-20919.26	1	25080.57	-56.52039	1.306637E-007	0.0560629	6
	33	48	505.5147	15465.9	-24537.64	1	29005	-57.77706	1.315805E-007	0.055898	6
	34	50	397.9953	17556.81	-29222.48	1	34090.98	-59.00263	1.303587E-007	0.0556431	6
	35	51	315.5048	19996.95	-34662.22	1	40016.84	-60.01896	1.304922E-007	0.0556402	6
	36	52	252.4038	22784.94	-40825.75	1	46753.56	-60.83402	1.307394E-007	0.055639	6
	37	54	198.6229	26374.46	-48671.57	1	55358.23	-61.54734	1.306698E-007	0.0556411	6
	38	55	158.3615	30461.09	-57465.7	1	65039.87	-62.07309	1.31138E-007	0.0556339	6
	39	56	125.558	35386.02	-68011.08	1	76666.02	-62.51213	1.308068E-007	0.0556351	6
	40	58	100.4464	40942.22	-80131.48	1	89985.11	-62.93579	1.307149E-007	0.0556334	6
	41	59	79.00281	48771.47	-95352.5	1	107101.6	-62.91088	1.309022E-007	0.0556329	6
	42	60	63.3446	54749.94	-112515.9	1	125129.5	-64.05257	1.304625E-007	0.0556277	6
	43	62	49.86702	67131.09	-131040.2	1	147234.9	-62.87422	1.308683E-007	0.0556308	6
	44	63	39.72458	78592.75	-155732.1	1	174440	-63.22146	1.304937E-008	0.055647	5
	45	64	31.6723	91695.83	-182219.6	1	203990.4	-63.28772	1.341451E-008	0.055643	5
	46	66	24.93351	109637.1	-215579	1	241856.6	-63.04345	1.318113E-008	0.0556438	5
	47	67	19.86229	128748	-253093.5	1	283958.4	-63.03767	1.352966E-008	0.055649	5
	48	69	15.83615	151713.5	-297534.3	1	333981.5	-62.98285	1.359158E-008	0.0556348	5
	49	70	12.40079	181050.9	-352987.5	1	396710.9	-62.84625	1.310764E-008	0.0556474	5
	50	72	9.93114	209687.5	-409867.5	1	460391.4	-62.90579	1.313687E-008	0.0556415	5
	51	73	7.944915	247803.3	-480697.8	1	540811.3	-62.72855	1.335631E-008	0.0556466	5
	52	75	6.317385	288798	-561205	1	631153.9	-62.7695	1.314699E-008	0.0556394	5
	53	77	5.008013	338876.4	-662741.1	1	744354.1	-62.91818	1.309385E-007	0.0556327	6
	54	80	3.945707	403239.2	-780201	1	878245.7	-62.66826	1.320672E-008	0.0556494	5
	55	83	3.158693	472252.9	-911505.8	1	1026580	-62.61124	1.320644E-008	0.0556332	5
	56	86	2.504006	560178.4	-1072056	1	1209589	-62.41172	1.322093E-008	0.0559276	5
	57	89	1.998082	660623.8	-1250683	1	1414437	-62.15651	1.309284E-008	0.0559629	5
	58	92	1.584686	786015.8	-1470205	1	1667130	-61.8697	1.380837E-009	0.0559747	4
	59	95	1.266892	928742.8	-1707869	1	1944063	-61.46257	1.316387E-009	0.0559573	4
	60	100	0.999041	1106866	-2005502	1	2290674	-61.10505	1.423553E-009	0.0559311	4
