EXPLAIN
TAG	EISPOT
TITLE	LABEL	Potentiostatic EIS	Test &Identifier
DATE	LABEL	10/14/2019	Date
TIME	LABEL	9:19:10	Time
NOTES	NOTES	1	&Notes...
	
PSTAT	PSTAT	REF600-11020	Potentiostat
VDC	POTEN	0.00000E+000	T	DC &Voltage (V)
FREQINIT	QUANT	1.00000E+006	Initial Fre&q. (Hz)
FREQFINAL	QUANT	1.00000E+000	Final Fre&q. (Hz)
PTSPERDEC	QUANT	1.00000E+001	Points/&decade
VAC	QUANT	2.50000E+001	AC &Voltage (mV rms)
AREA	QUANT	1.00000E-002	&Area (cm^2)
CONDIT	TWOPARAM	T	5.00000E+000	0.00000E+000	Conditionin&g	Time(s)	E(V)
DELAY	TWOPARAM	T	5.00000E+000	0.00000E+000	Init. De&lay	Time(s)	Stab.(mV/s)
SPEED	SELECTOR	1	&Optimize for:
ZGUESS	QUANT	1.00000E+004	E&stimated Z (ohms)
OCVCURVE	TABLE	19
	Pt	T	Vf	Vm	Ach	Over
	#	s	V vs. Ref.	V	V	bits
	0	0.258333	7.59062E-003	7.59062E-003	5.76466E-004	...........
	1	0.516667	7.59148E-003	7.63542E-003	5.78566E-004	...........
	2	0.775	7.59704E-003	7.69405E-003	5.75666E-004	...........
	3	1.03333	7.61403E-003	7.76185E-003	5.83632E-004	...........
	4	1.29167	7.64748E-003	7.83292E-003	5.74632E-004	...........
	5	1.55	7.69720E-003	7.90671E-003	5.77499E-004	...........
	6	1.80833	7.75898E-003	7.97916E-003	5.76232E-004	...........
	7	2.06667	7.82788E-003	8.05452E-003	5.71099E-004	...........
	8	2.325	7.90020E-003	8.12695E-003	5.72699E-004	...........
	9	2.58333	7.97388E-003	8.20467E-003	5.75399E-004	...........
	10	2.84167	8.04806E-003	8.27458E-003	5.75766E-004	...........
	11	3.1	8.12228E-003	8.34604E-003	5.74899E-004	...........
	12	3.35833	8.19590E-003	8.41556E-003	5.79099E-004	...........
	13	3.61667	8.26836E-003	8.48403E-003	5.77699E-004	...........
	14	3.875	8.33954E-003	8.55438E-003	5.76399E-004	...........
	15	4.13333	8.40972E-003	8.62416E-003	5.75465E-004	...........
	16	4.39167	8.47938E-003	8.69210E-003	5.74765E-004	...........
	17	4.65	8.54874E-003	8.75781E-003	5.73466E-004	...........
	18	4.90833	8.61753E-003	8.82234E-003	5.70366E-004	...........
EOC	QUANT	0.0086175	Open Circuit (V)
PSTATMODEL	IQUANT	4	Pstat Model
PSTATSECTION	LABEL	REF600-11020	Pstat Section
PSTATSERIALNO	LABEL	11020	Pstat Serial Number
CTRLMODE	IQUANT	1	Control Mode
IESTAB	IQUANT	0	I/E Stability
CASPEED	IQUANT	1	Control Amp Speed
CONVENTION	IQUANT	1	Current Convention
ICHRANGE	IQUANT	2	Ich Range
ICHRANGEMODE	TOGGLE	F	Ich Auto Range
ICHOFFSETENABLE	TOGGLE	T	Ich Offset Enable
ICHOFFSET	QUANT	0	Ich Offset (V)
ICHFILTER	IQUANT	3	Ich Filter
VCHRANGE	IQUANT	2	Vch Range
VCHRANGEMODE	TOGGLE	F	Vch Auto Range
VCHOFFSETENABLE	TOGGLE	T	Vch Offset Enable
VCHOFFSET	QUANT	0	Vch Offset (V)
VCHFILTER	IQUANT	3	Vch Filter
ACHRANGE	IQUANT	2	Ach Range
ACHOFFSETENABLE	TOGGLE	F	Ach Offset Enable
ACHOFFSET	QUANT	0	Ach Offset (V)
ACHFILTER	IQUANT	3	Ach Filter
IERANGELOWERLIMIT	IQUANT	1	I/E Range Lower Limit
IERANGEMODE	TOGGLE	F	I/E AutoRange
IERANGE	IQUANT	6	I/E Range
POSFEEDENABLE	TOGGLE	F	Positive Feedback IR Comp
POSFEEDRESISTANCE	QUANT	0	Positive Feedback Resistance (ohm)
ACHSELECT	IQUANT	0	Ach Select
CABLEID	IQUANT	14	Cable ID
DCCALDATE	LABEL	8/19/2019	DC Calibration Date
ACCALDATE	LABEL	8/19/2019	AC Calibration Date
THERMOSELECT	IQUANT	1	Thermo Select
FRAMEWORKVERSION	QUANT	6.33	Framework Version
INSTRUMENTVERSION	LABEL	3.50	Instrument Version
ZCURVE	TABLE
	Pt	Time	Freq	Zreal	Zimag	Zsig	Zmod	Zphz	Idc	Vdc	IERange
	#	s	Hz	ohm	ohm	V	ohm	°	A	V	#
	0	1	1000078	2055.616	-904.7141	1	2245.899	-23.75517	-3.135059E-006	0.0105429	8
	1	2	794390.6	2195.431	-814.0673	1	2341.5	-20.34482	-2.063849E-006	0.0107699	8
	2	4	630984.4	2317.127	-717.7524	1	2425.747	-17.21087	-1.748841E-006	0.0106134	8
	3	5	501234.4	2404.979	-617.7159	1	2483.042	-14.40497	5.825474E-008	0.0101074	8
	4	7	398109.4	2470.821	-535.736	1	2528.234	-12.23379	1.208638E-006	0.0098408	8
	5	8	316265.6	2522.691	-461.1764	1	2564.499	-10.35992	1.436637E-006	0.0096164	8
	6	9	251203.1	2560.783	-410.1494	1	2593.421	-9.099529	1.10241E-006	0.0098338	8
	7	11	199546.9	2597.272	-364.3211	1	2622.699	-7.98482	7.726904E-007	0.0098756	8
	8	12	158578.1	2628.366	-327.029	1	2648.633	-7.092458	-3.736627E-007	0.0102136	8
	9	13	125953.1	2666.148	-283.9678	1	2681.228	-6.079577	4.383989E-007	0.0091527	7
	10	15	100078.1	2685.247	-263.2077	1	2698.116	-5.598244	-2.009111E-008	0.010167	7
	11	16	79453.13	2709.173	-263.6248	1	2721.969	-5.557853	-2.884241E-008	0.0100599	7
	12	17	63140.62	2733.9	-269.5778	1	2747.159	-5.631479	-1.160247E-008	0.0100173	7
	13	19	50203.12	2760.3	-280.3269	1	2774.498	-5.798887	-3.334598E-008	0.0100694	7
	14	20	39890.62	2789.043	-295.9234	1	2804.698	-6.056545	-9.850535E-009	0.0100089	7
	15	21	31640.63	2819.63	-318.3703	1	2837.547	-6.442102	-3.492588E-008	0.0101117	7
	16	23	25171.88	2852.28	-346.3798	1	2873.235	-6.924074	1.116191E-007	0.0098654	7
	17	24	20015.62	2891.645	-381.905	1	2916.756	-7.523618	-6.289155E-009	0.0100639	7
	18	25	15890.62	2930.347	-423.2904	1	2960.761	-8.219556	-5.464024E-009	0.0100644	7
	19	27	12609.37	2976.725	-473.5768	1	3014.161	-9.039613	-6.206706E-008	0.010133	7
	20	28	10078.13	3025.657	-531.9418	1	3072.062	-9.97129	-7.4987E-009	0.009996	7
	21	29	8015.625	3081.473	-600.6536	1	3139.468	-11.03003	-1.762508E-008	0.010154	7
	22	31	6328.125	3143.6	-684.1064	1	3217.176	-12.27722	-3.350534E-008	0.0100473	7
	23	32	5015.625	3212.024	-779.9197	1	3305.355	-13.64801	-3.360382E-008	0.0100486	7
	24	33	3984.375	3289.912	-891.2896	1	3408.506	-15.15848	-3.185825E-008	0.0100682	7
	25	35	3170.956	3365.971	-1021.855	1	3517.662	-16.88746	6.251241E-008	0.0100023	7
	26	36	2527.573	3450.041	-1175.051	1	3644.657	-18.80836	1.100236E-007	0.0098575	7
	27	37	1976.103	3548.547	-1375.094	1	3805.662	-21.1818	-1.866896E-008	0.010148	7
	28	39	1577.524	3655.888	-1601.443	1	3991.258	-23.65558	-3.264119E-008	0.0100503	7
	29	40	1265.625	3744.691	-1860.375	1	4181.352	-26.41834	-2.904851E-008	0.0100424	7
	30	41	998.264	3858.997	-2207.885	1	4445.966	-29.77559	-3.644673E-008	0.0101058	7
	31	43	796.875	3972.05	-2618.206	1	4757.329	-33.39117	-1.091164E-008	0.0100027	7
	32	44	627.7902	4101.78	-3158.206	1	5176.762	-37.59483	5.898813E-008	0.0099272	7
	33	46	505.5147	4236.803	-3763.684	1	5667.082	-41.61568	-6.670456E-009	0.0099921	7
	34	47	397.9953	4407.377	-4599.208	1	6370.062	-46.22015	5.536675E-009	0.0100298	7
	35	48	315.5048	4604.688	-5606.663	1	7255.193	-50.60413	4.269908E-009	0.0100288	7
	36	50	252.4038	4835.036	-6801.894	1	8345.258	-54.59339	5.756394E-009	0.0100274	7
	37	51	198.6229	5142.774	-8388.984	1	9839.88	-58.49008	4.607196E-009	0.0100328	7
	38	52	158.3615	5511.258	-10243.46	1	11631.96	-61.71856	8.749741E-010	0.0099722	6
	39	54	125.558	5986.607	-12571.86	1	13924.48	-64.53663	5.736366E-010	0.0099673	6
	40	55	100.4464	6562.396	-15319.91	1	16666.28	-66.81178	-6.640012E-011	0.0099707	6
	41	56	79.00281	7393.619	-18911.73	1	20305.64	-68.64678	8.533473E-010	0.0099703	6
	42	58	63.3446	8286.387	-22851.9	1	24307.89	-70.06872	4.410998E-010	0.009967	6
	43	59	49.86702	9763.07	-28331.77	1	29966.76	-70.98615	-3.562165E-010	0.0099631	6
	44	61	39.72458	11294.82	-34494.35	1	36296.46	-71.86949	5.849152E-010	0.0099703	6
	45	62	31.6723	13450.89	-41878.84	1	43985.95	-72.19372	5.191181E-010	0.0099657	6
	46	63	24.93351	16207.12	-51280.55	1	53780.71	-72.46095	1.269697E-010	0.009967	6
	47	65	19.86229	19637.64	-62127.38	1	65157.11	-72.45895	2.703517E-011	0.0099613	6
	48	66	15.83615	23554.91	-74881.34	1	78498.71	-72.53835	-1.018392E-009	0.0099642	6
	49	67	12.40079	29997.41	-91191.97	1	95999.1	-71.79149	5.268951E-010	0.0099684	6
	50	69	9.93114	36888.87	-109071.4	1	115140.6	-71.31403	8.762251E-010	0.0099745	5
	51	70	7.944915	45190.07	-130100.3	1	137725.2	-70.84544	7.829372E-010	0.0099732	5
	52	72	6.317385	55896.21	-155785.4	1	165509.7	-70.26188	2.609855E-010	0.0099825	5
	53	74	5.008013	69269.34	-186283.6	1	198745.6	-69.6024	2.8755E-010	0.0099866	5
	54	76	3.945707	86058.58	-223444.1	1	239443.8	-68.93601	-1.419657E-010	0.0099661	5
	55	79	3.158693	105318.6	-263943.9	1	284180.2	-68.24708	2.051008E-010	0.0099857	5
	56	82	2.504006	129914.4	-313567.9	1	339415	-67.49527	-2.898431E-010	0.0099758	5
	57	85	1.998082	158654.9	-368836.3	1	401511.6	-66.72504	5.956674E-012	0.0099323	5
	58	88	1.584686	193305.5	-434847.1	1	475877.1	-66.0331	-5.839437E-011	0.0099679	5
	59	92	1.266892	235257.4	-509308.1	1	561017.6	-65.20705	5.046668E-011	0.0099279	5
	60	96	0.999041	285816.4	-599777.8	1	664397.8	-64.52047	-3.625204E-011	0.0100053	5
