EXPLAIN
TAG	EISPOT
TITLE	LABEL	Potentiostatic EIS	Test &Identifier
DATE	LABEL	10/24/2019	Date
TIME	LABEL	9:42:07	Time
NOTES	NOTES	1	&Notes...
	
PSTAT	PSTAT	REF600-11020	Potentiostat
VDC	POTEN	0.00000E+000	T	DC &Voltage (V)
FREQINIT	QUANT	1.00000E+006	Initial Fre&q. (Hz)
FREQFINAL	QUANT	1.00000E+000	Final Fre&q. (Hz)
PTSPERDEC	QUANT	1.00000E+001	Points/&decade
VAC	QUANT	2.50000E+001	AC &Voltage (mV rms)
AREA	QUANT	1.00000E-002	&Area (cm^2)
CONDIT	TWOPARAM	T	5.00000E+000	0.00000E+000	Conditionin&g	Time(s)	E(V)
DELAY	TWOPARAM	T	5.00000E+000	0.00000E+000	Init. De&lay	Time(s)	Stab.(mV/s)
SPEED	SELECTOR	1	&Optimize for:
ZGUESS	QUANT	1.00000E+005	E&stimated Z (ohms)
OCVCURVE	TABLE	19
	Pt	T	Vf	Vm	Ach	Over
	#	s	V vs. Ref.	V	V	bits
	0	0.258333	8.36533E-003	8.36533E-003	5.37499E-004	...........
	1	0.516667	8.35697E-003	7.92760E-003	5.50299E-004	...........
	2	0.775	8.30376E-003	7.41547E-003	5.44233E-004	...........
	3	1.03333	8.15007E-003	7.08061E-003	5.39566E-004	...........
	4	1.29167	7.87451E-003	6.67125E-003	5.38466E-004	...........
	5	1.55	7.52121E-003	6.73841E-003	5.46799E-004	...........
	6	1.80833	7.18382E-003	7.10945E-003	5.44066E-004	...........
	7	2.06667	6.96187E-003	6.93242E-003	5.39099E-004	...........
	8	2.325	6.89690E-003	7.42961E-003	5.37799E-004	...........
	9	2.58333	6.94821E-003	6.82614E-003	5.47166E-004	...........
	10	2.84167	7.02431E-003	6.82435E-003	5.41133E-004	...........
	11	3.1	7.03970E-003	6.79774E-003	5.39833E-004	...........
	12	3.35833	6.97912E-003	6.75194E-003	5.38399E-004	...........
	13	3.61667	6.89035E-003	6.71897E-003	5.45766E-004	...........
	14	3.875	6.81524E-003	6.71483E-003	5.42199E-004	...........
	15	4.13333	6.76381E-003	6.67974E-003	5.37933E-004	...........
	16	4.39167	6.73027E-003	6.66228E-003	5.43933E-004	...........
	17	4.65	6.70597E-003	6.65014E-003	5.51033E-004	...........
	18	4.90833	6.68549E-003	6.63579E-003	5.41933E-004	...........
EOC	QUANT	0.0066855	Open Circuit (V)
PSTATMODEL	IQUANT	4	Pstat Model
PSTATSECTION	LABEL	REF600-11020	Pstat Section
PSTATSERIALNO	LABEL	11020	Pstat Serial Number
CTRLMODE	IQUANT	1	Control Mode
IESTAB	IQUANT	0	I/E Stability
CASPEED	IQUANT	1	Control Amp Speed
CONVENTION	IQUANT	1	Current Convention
ICHRANGE	IQUANT	2	Ich Range
ICHRANGEMODE	TOGGLE	F	Ich Auto Range
ICHOFFSETENABLE	TOGGLE	T	Ich Offset Enable
ICHOFFSET	QUANT	0	Ich Offset (V)
ICHFILTER	IQUANT	3	Ich Filter
VCHRANGE	IQUANT	2	Vch Range
VCHRANGEMODE	TOGGLE	F	Vch Auto Range
VCHOFFSETENABLE	TOGGLE	T	Vch Offset Enable
VCHOFFSET	QUANT	0	Vch Offset (V)
VCHFILTER	IQUANT	3	Vch Filter
ACHRANGE	IQUANT	2	Ach Range
ACHOFFSETENABLE	TOGGLE	F	Ach Offset Enable
ACHOFFSET	QUANT	0	Ach Offset (V)
ACHFILTER	IQUANT	3	Ach Filter
IERANGELOWERLIMIT	IQUANT	1	I/E Range Lower Limit
IERANGEMODE	TOGGLE	F	I/E AutoRange
IERANGE	IQUANT	5	I/E Range
POSFEEDENABLE	TOGGLE	F	Positive Feedback IR Comp
POSFEEDRESISTANCE	QUANT	0	Positive Feedback Resistance (ohm)
ACHSELECT	IQUANT	0	Ach Select
CABLEID	IQUANT	14	Cable ID
DCCALDATE	LABEL	8/19/2019	DC Calibration Date
ACCALDATE	LABEL	8/19/2019	AC Calibration Date
THERMOSELECT	IQUANT	1	Thermo Select
FRAMEWORKVERSION	QUANT	6.33	Framework Version
INSTRUMENTVERSION	LABEL	3.50	Instrument Version
ZCURVE	TABLE
	Pt	Time	Freq	Zreal	Zimag	Zsig	Zmod	Zphz	Idc	Vdc	IERange
	#	s	Hz	ohm	ohm	V	ohm	°	A	V	#
	0	1	1000078	2448.509	-1901.107	1	3099.904	-37.82701	6.814861E-006	0.008333	8
	1	3	794390.6	2815.331	-1856.921	1	3372.572	-33.40783	1.39884E-006	0.0079623	8
	2	4	630984.4	3167.595	-1774.042	1	3630.549	-29.25143	5.502212E-007	0.0082976	8
	3	6	501234.4	3471.329	-1642.235	1	3840.19	-25.31815	8.453913E-007	0.0083489	8
	4	7	398109.4	3730.076	-1510.325	1	4024.245	-22.04325	-1.682816E-006	0.0087026	8
	5	8	316265.6	3949.254	-1371.343	1	4180.573	-19.1491	-6.507626E-007	0.008629	8
	6	10	251203.1	4113.301	-1232.317	1	4293.932	-16.67786	6.293665E-007	0.0083068	8
	7	11	199546.9	4265.825	-1121.182	1	4410.704	-14.72593	-5.068368E-007	0.0085653	8
	8	13	158578.1	4382.068	-1018.304	1	4498.83	-13.08219	2.885139E-006	0.0077887	8
	9	14	125953.1	4511.853	-918.2439	1	4604.344	-11.50362	2.519452E-007	0.0076344	7
	10	15	100078.1	4585.32	-862.313	1	4665.698	-10.65062	5.328146E-008	0.0082049	7
	11	17	79453.13	4667.699	-844.3206	1	4743.447	-10.25313	-5.189535E-008	0.0083584	7
	12	18	63140.62	4749.232	-844.3129	1	4823.699	-10.08066	3.076746E-008	0.0081823	7
	13	20	50203.12	4832.195	-861.8704	1	4908.455	-10.11293	1.395268E-008	0.008349	7
	14	21	39890.62	4916.465	-896.3846	1	4997.513	-10.33284	-5.045454E-008	0.0083552	7
	15	22	31640.63	5008.91	-948.4319	1	5097.911	-10.72196	-2.617636E-010	0.0083156	7
	16	24	25171.88	5107.099	-1019.682	1	5207.899	-11.29118	-4.688686E-008	0.0083652	7
	17	25	20015.62	5219.283	-1104.277	1	5334.823	-11.94626	5.034268E-009	0.0082256	7
	18	26	15890.62	5334.814	-1218.575	1	5472.218	-12.86672	-2.69232E-008	0.0082885	7
	19	28	12609.37	5471.604	-1353.985	1	5636.641	-13.89901	7.796451E-008	0.0082178	7
	20	29	10078.13	5614.104	-1499.165	1	5810.823	-14.95115	3.075184E-008	0.0081797	7
	21	30	8015.625	5778.027	-1684.689	1	6018.619	-16.255	3.100343E-008	0.0081764	7
	22	32	6328.125	5968.106	-1893.982	1	6261.426	-17.60686	-4.976742E-008	0.0083566	7
	23	33	5015.625	6181.19	-2142.257	1	6541.894	-19.11513	-4.684094E-008	0.0084299	7
	24	35	3984.375	6401.143	-2430.508	1	6847.043	-20.79173	-1.855475E-008	0.0082629	7
	25	36	3170.956	6688.253	-2743.61	1	7229.116	-22.30409	-3.184079E-008	0.008306	7
	26	37	2527.573	6996.846	-3105.066	1	7654.887	-23.93073	5.502387E-008	0.0081891	7
	27	39	1976.103	7369.012	-3547.974	1	8178.659	-25.70952	-4.667233E-008	0.0083602	7
	28	40	1577.524	7747.125	-3953.224	1	8697.467	-27.03444	-4.530964E-008	0.0084303	7
	29	41	1265.625	8172.923	-4500.823	1	9330.278	-28.84155	-2.747158E-008	0.0083519	7
	30	43	998.264	8655.528	-5101.032	1	10046.83	-30.51246	-3.556277E-009	0.0082117	6
	31	44	796.875	9123.779	-5763.278	1	10791.6	-32.27964	-5.817137E-010	0.0083104	6
	32	46	627.7902	9636.3	-6595.454	1	11677.25	-34.38924	-7.570352E-009	0.0082636	6
	33	47	505.5147	10098.13	-7500.805	1	12579.12	-36.60465	1.233812E-009	0.0082456	6
	34	48	397.9953	10611.22	-8734.129	1	13743.47	-39.45791	3.348921E-010	0.0082386	6
	35	50	315.5048	11114.37	-10238.93	1	15111.75	-42.6523	5.122516E-011	0.0082377	6
	36	51	252.4038	11609.19	-12054.91	1	16736.01	-46.07905	1.129564E-009	0.0082343	6
	37	52	198.6229	12185.56	-14511.01	1	18948.81	-49.97828	3.110935E-010	0.0082404	6
	38	54	158.3615	12794.93	-17428.12	1	21620.58	-53.71559	8.662928E-010	0.0082384	6
	39	55	125.558	13542.81	-21172.2	1	25133.04	-57.39497	3.006564E-010	0.008241	6
	40	57	100.4464	14455.23	-25657.11	1	29448.95	-60.60307	8.937374E-011	0.0082408	6
	41	58	79.00281	15612.76	-31688.84	1	35326.2	-63.77101	1.116363E-009	0.0082319	6
	42	59	63.3446	16603.83	-38548.29	1	41972.11	-66.6971	6.357817E-010	0.0082351	6
	43	61	49.86702	19012.35	-47037.95	1	50734.98	-67.99184	8.490139E-010	0.0082309	6
	44	62	39.72458	21506.29	-57794.46	1	61666.2	-69.58892	4.302117E-010	0.0082391	6
	45	64	31.6723	24661.74	-70361.61	1	74558.41	-70.68444	-3.370386E-012	0.0082337	6
	46	65	24.93351	29185.73	-86782.39	1	91558.67	-71.41173	4.858691E-010	0.0082354	6
	47	67	19.86229	34609.72	-105541.3	1	111071.1	-71.84434	4.013261E-010	0.008243	5
	48	68	15.83615	40891.79	-127640.7	1	134031	-72.23629	5.914464E-010	0.0082394	5
	49	69	12.40079	52101.5	-157018.4	1	165436.8	-71.64324	-8.519691E-010	0.008242	5
	50	71	9.93114	62958.75	-187684.7	1	197963	-71.45599	2.400633E-010	0.0082435	5
	51	72	7.944915	77193.21	-223469.3	1	236426.1	-70.9435	-2.117519E-010	0.0082376	5
	52	74	6.317385	96016.4	-270619.3	1	287147.9	-70.46519	2.627891E-010	0.0082291	5
	53	76	5.008013	119642.8	-322547.9	1	344022.7	-69.64865	1.142953E-010	0.0082554	5
	54	79	3.945707	149684.7	-387593.5	1	415492.7	-68.88395	-5.993965E-011	0.0082376	5
	55	81	3.158693	185140.7	-457852.9	1	493868.8	-67.98321	2.190974E-010	0.0082607	5
	56	85	2.504006	231264.1	-543966	1	591085.6	-66.9675	8.729971E-011	0.0082331	5
	57	87	1.998082	285537.6	-638929	1	699829.9	-65.92011	1.037262E-011	0.0082256	5
	58	90	1.584686	356981.8	-749524.3	1	830194.4	-64.53257	1.065502E-010	0.0082865	5
	59	94	1.266892	437852.5	-872892	1	976553	-63.36114	-1.4741E-011	0.0082402	5
	60	98	0.999041	542070.4	-1022319	1	1157141	-62.06585	2.000598E-010	0.0082604	4
