EXPLAIN
TAG	EISPOT
TITLE	LABEL	Potentiostatic EIS	Test &Identifier
DATE	LABEL	10/18/2019	Date
TIME	LABEL	9:25:51	Time
NOTES	NOTES	1	&Notes...
	
PSTAT	PSTAT	REF600-11020	Potentiostat
VDC	POTEN	0.00000E+000	T	DC &Voltage (V)
FREQINIT	QUANT	1.00000E+006	Initial Fre&q. (Hz)
FREQFINAL	QUANT	1.00000E+000	Final Fre&q. (Hz)
PTSPERDEC	QUANT	1.00000E+001	Points/&decade
VAC	QUANT	2.50000E+001	AC &Voltage (mV rms)
AREA	QUANT	1.00000E-002	&Area (cm^2)
CONDIT	TWOPARAM	T	5.00000E+000	0.00000E+000	Conditionin&g	Time(s)	E(V)
DELAY	TWOPARAM	T	5.00000E+000	0.00000E+000	Init. De&lay	Time(s)	Stab.(mV/s)
SPEED	SELECTOR	0	&Optimize for:
ZGUESS	QUANT	1.00000E+005	E&stimated Z (ohms)
OCVCURVE	TABLE	19
	Pt	T	Vf	Vm	Ach	Over
	#	s	V vs. Ref.	V	V	bits
	0	0.258333	5.09897E-003	5.09897E-003	5.31166E-004	...........
	1	0.516667	5.09693E-003	4.99222E-003	5.29133E-004	...........
	2	0.775	5.08253E-003	4.79274E-003	5.34600E-004	...........
	3	1.03333	5.03474E-003	4.55866E-003	5.37266E-004	...........
	4	1.29167	4.93840E-003	4.58551E-003	5.36199E-004	...........
	5	1.55	4.81134E-003	4.64691E-003	5.32966E-004	...........
	6	1.80833	4.69841E-003	4.52710E-003	5.31100E-004	...........
	7	2.06667	4.62733E-003	4.58624E-003	5.29299E-004	...........
	8	2.325	4.59281E-003	4.63139E-003	5.28933E-004	...........
	9	2.58333	4.58538E-003	4.75076E-003	5.32233E-004	...........
	10	2.84167	4.60724E-003	4.84214E-003	5.29733E-004	...........
	11	3.1	4.66009E-003	4.90681E-003	5.28533E-004	...........
	12	3.35833	4.73418E-003	4.93311E-003	5.30533E-004	...........
	13	3.61667	4.81152E-003	4.97509E-003	5.32433E-004	...........
	14	3.875	4.88033E-003	5.14252E-003	5.35366E-004	...........
	15	4.13333	4.94300E-003	5.05486E-003	5.30066E-004	...........
	16	4.39167	5.00160E-003	5.08295E-003	5.30566E-004	...........
	17	4.65	5.04755E-003	5.12663E-003	5.31266E-004	...........
	18	4.90833	5.07738E-003	5.16186E-003	5.31700E-004	...........
EOC	QUANT	0.0050774	Open Circuit (V)
PSTATMODEL	IQUANT	4	Pstat Model
PSTATSECTION	LABEL	REF600-11020	Pstat Section
PSTATSERIALNO	LABEL	11020	Pstat Serial Number
CTRLMODE	IQUANT	1	Control Mode
IESTAB	IQUANT	0	I/E Stability
CASPEED	IQUANT	1	Control Amp Speed
CONVENTION	IQUANT	1	Current Convention
ICHRANGE	IQUANT	2	Ich Range
ICHRANGEMODE	TOGGLE	F	Ich Auto Range
ICHOFFSETENABLE	TOGGLE	T	Ich Offset Enable
ICHOFFSET	QUANT	0	Ich Offset (V)
ICHFILTER	IQUANT	3	Ich Filter
VCHRANGE	IQUANT	2	Vch Range
VCHRANGEMODE	TOGGLE	F	Vch Auto Range
VCHOFFSETENABLE	TOGGLE	T	Vch Offset Enable
VCHOFFSET	QUANT	0	Vch Offset (V)
VCHFILTER	IQUANT	3	Vch Filter
ACHRANGE	IQUANT	2	Ach Range
ACHOFFSETENABLE	TOGGLE	F	Ach Offset Enable
ACHOFFSET	QUANT	0	Ach Offset (V)
ACHFILTER	IQUANT	3	Ach Filter
IERANGELOWERLIMIT	IQUANT	1	I/E Range Lower Limit
IERANGEMODE	TOGGLE	F	I/E AutoRange
IERANGE	IQUANT	4	I/E Range
POSFEEDENABLE	TOGGLE	F	Positive Feedback IR Comp
POSFEEDRESISTANCE	QUANT	0	Positive Feedback Resistance (ohm)
ACHSELECT	IQUANT	0	Ach Select
CABLEID	IQUANT	14	Cable ID
DCCALDATE	LABEL	8/19/2019	DC Calibration Date
ACCALDATE	LABEL	8/19/2019	AC Calibration Date
THERMOSELECT	IQUANT	1	Thermo Select
FRAMEWORKVERSION	QUANT	6.33	Framework Version
INSTRUMENTVERSION	LABEL	3.50	Instrument Version
ZCURVE	TABLE
	Pt	Time	Freq	Zreal	Zimag	Zsig	Zmod	Zphz	Idc	Vdc	IERange
	#	s	Hz	ohm	ohm	V	ohm	°	A	V	#
	0	1	1000078	2225.478	-1073.294	1	2470.772	-25.74688	4.252479E-006	0.0068244	8
	1	1	794390.6	2416.118	-969.869	1	2603.511	-21.87133	-5.360067E-006	0.0074787	8
	2	2	630984.4	2560.02	-858.8046	1	2700.231	-18.54495	2.471661E-006	0.0064667	8
	3	2	501234.4	2678.103	-748.5389	1	2780.745	-15.61586	-5.31696E-007	0.0067939	8
	4	2	398109.4	2758.207	-638.3993	1	2831.123	-13.03189	1.242272E-006	0.0063925	8
	5	3	316265.6	2831.264	-550.0355	1	2884.197	-10.99402	1.182993E-006	0.0061849	8
	6	3	251203.1	2872.398	-467.7164	1	2910.229	-9.248381	-2.797643E-006	0.0071961	8
	7	3	199546.9	2911.668	-414.3463	1	2941.002	-8.099123	-2.922593E-006	0.0070757	8
	8	4	158578.1	2942.878	-351.7353	1	2963.823	-6.815708	1.187335E-006	0.0063807	8
	9	4	125953.1	2991.09	-277.907	1	3003.972	-5.308205	6.006869E-007	0.0053102	7
	10	4	100078.1	3004.779	-254.7612	1	3015.56	-4.846251	7.91772E-008	0.0065301	7
	11	5	79453.13	3025.45	-245.4872	1	3035.393	-4.638859	-1.140859E-008	0.0065429	7
	12	5	63140.62	3045.967	-242.8023	1	3055.628	-4.557566	5.740235E-008	0.0064744	7
	13	5	50203.12	3067.611	-246.6295	1	3077.509	-4.596574	-1.574429E-009	0.0065822	7
	14	6	39890.62	3090.553	-253.3169	1	3100.917	-4.685768	-4.209403E-008	0.0066484	7
	15	6	31640.63	3113.578	-265.5156	1	3124.878	-4.874202	-6.72516E-009	0.0065782	7
	16	6	25171.88	3137.962	-284.0383	1	3150.791	-5.172135	-1.466372E-008	0.0065322	7
	17	6	20015.62	3165.064	-312.853	1	3180.489	-5.645103	-5.162438E-009	0.0065777	7
	18	7	15890.62	3191.163	-339.6857	1	3209.191	-6.076012	6.109974E-008	0.0064604	7
	19	7	12609.37	3221.256	-380.4326	1	3243.643	-6.735473	-1.712034E-008	0.006538	7
	20	7	10078.13	3249.489	-428.9576	1	3277.679	-7.520005	7.645495E-008	0.0065149	7
	21	8	8015.625	3281.205	-488.5857	1	3317.381	-8.469362	-3.970933E-008	0.006584	7
	22	8	6328.125	3318.111	-567.385	1	3366.272	-9.70352	-1.549822E-008	0.0065375	7
	23	8	5015.625	3356.743	-662.4905	1	3421.494	-11.16448	7.618932E-008	0.0065162	7
	24	9	3984.375	3394.244	-778.5192	1	3482.382	-12.91818	-4.333327E-008	0.0065839	7
	25	9	3170.956	3445.753	-920.7589	1	3566.653	-14.96077	3.501338E-008	0.006437	7
	26	9	2527.573	3498.441	-1094.044	1	3665.518	-17.36568	3.398667E-008	0.0065253	7
	27	10	1976.103	3562.747	-1323.259	1	3800.55	-20.37578	5.879786E-008	0.006454	7
	28	10	1577.524	3641.697	-1592.767	1	3974.778	-23.6231	-4.092199E-008	0.0065771	7
	29	10	1265.625	3705.597	-1891.24	1	4160.317	-27.03858	7.967724E-008	0.0065065	7
	30	11	998.264	3798.294	-2297.496	1	4439.091	-31.16873	8.110225E-008	0.0065104	7
	31	11	796.875	3899.952	-2775.015	1	4786.474	-35.43379	-2.301094E-009	0.0065716	7
	32	11	627.7902	4026.284	-3400.39	1	5270.068	-40.1827	-3.9145E-008	0.0066342	7
	33	11	505.5147	4161.21	-4092.657	1	5836.567	-44.52414	-3.688081E-008	0.0065901	7
	34	12	397.9953	4335.068	-5044.33	1	6651.171	-49.32442	2.631772E-009	0.006575	7
	35	12	315.5048	4548.279	-6187.184	1	7679.068	-53.67991	2.697655E-009	0.0065746	7
	36	12	252.4038	4803.616	-7539.313	1	8939.573	-57.49706	3.854367E-009	0.0065695	7
	37	13	198.6229	5155.191	-9328.671	1	10658.33	-61.07417	2.790058E-010	0.0065095	6
	38	13	158.3615	5579.308	-11415.23	1	12705.75	-63.95246	-7.901855E-010	0.0065036	6
	39	13	125.558	6148.901	-14034.23	1	15322.16	-66.34003	2.442843E-011	0.0065108	6
	40	14	100.4464	6862.304	-17092.21	1	18418.33	-68.12518	-1.014741E-009	0.0065042	6
	41	14	79.00281	7923.127	-21145.47	1	22581.12	-69.45922	-4.658375E-010	0.0065035	6
	42	14	63.3446	8802.256	-25770.75	1	27232.54	-71.14188	1.173665E-009	0.0064998	6
	43	15	49.86702	10600.58	-31543.29	1	33276.89	-71.42433	-1.05748E-009	0.0064998	6
	44	15	39.72458	13073.63	-38409.95	1	40573.93	-71.20292	-3.22035E-010	0.0065101	6
	45	15	31.6723	16180.58	-46427.68	1	49166.46	-70.78597	-1.149622E-009	0.0065062	6
	46	16	24.93351	20045.66	-56444.08	1	59897.94	-70.44791	9.201944E-010	0.0065029	6
	47	16	19.86229	25184.59	-67715.73	1	72247.38	-69.59901	1.025735E-009	0.0065031	6
	48	16	15.83615	31992.47	-80910.45	1	87005.86	-68.42587	1.605143E-009	0.0065038	6
	49	17	12.40079	39674.83	-97168.3	1	104956	-67.78929	7.688801E-010	0.0065076	6
	50	17	9.93114	50145.02	-113025.5	1	123649.9	-66.075	1.481715E-009	0.0065105	5
	51	18	7.944915	62764.67	-131867.1	1	146042.3	-64.547	2.694337E-010	0.0065099	5
	52	18	6.317385	76957.94	-153388.7	1	171611.8	-63.35624	7.41294E-010	0.0064977	5
	53	19	5.008013	94515.66	-177715.3	1	201285.7	-61.99428	1.82745E-010	0.0065132	5
	54	20	3.945707	115040.4	-205651.8	1	235641.6	-60.77762	2.054357E-010	0.0065247	5
	55	21	3.158693	136984.5	-234763.6	1	271806.3	-59.73645	-2.795525E-010	0.0065125	5
	56	23	2.504006	161991.8	-268986	1	313998.1	-58.94233	-1.31409E-010	0.006505	5
	57	24	1.998082	188908.1	-307297.3	1	360718.6	-58.41927	1.457193E-010	0.0065463	5
	58	26	1.584686	218198.2	-352883.4	1	414894.2	-58.27029	-5.436715E-012	0.0065254	5
	59	28	1.266892	250791.8	-404233.4	1	475711.2	-58.18399	-8.84693E-011	0.006488	5
	60	30	0.999041	290129.7	-470088.5	1	552411.5	-58.3179	-9.992942E-011	0.0064675	5
