EXPLAIN
TAG	EISPOT
TITLE	LABEL	Potentiostatic EIS	Test &Identifier
DATE	LABEL	10/24/2019	Date
TIME	LABEL	10:23:20	Time
NOTES	NOTES	1	&Notes...
	
PSTAT	PSTAT	REF600-11020	Potentiostat
VDC	POTEN	0.00000E+000	T	DC &Voltage (V)
FREQINIT	QUANT	1.00000E+006	Initial Fre&q. (Hz)
FREQFINAL	QUANT	1.00000E+000	Final Fre&q. (Hz)
PTSPERDEC	QUANT	1.00000E+001	Points/&decade
VAC	QUANT	2.50000E+001	AC &Voltage (mV rms)
AREA	QUANT	1.00000E-002	&Area (cm^2)
CONDIT	TWOPARAM	T	5.00000E+000	0.00000E+000	Conditionin&g	Time(s)	E(V)
DELAY	TWOPARAM	T	5.00000E+000	0.00000E+000	Init. De&lay	Time(s)	Stab.(mV/s)
SPEED	SELECTOR	1	&Optimize for:
ZGUESS	QUANT	1.00000E+005	E&stimated Z (ohms)
OCVCURVE	TABLE	19
	Pt	T	Vf	Vm	Ach	Over
	#	s	V vs. Ref.	V	V	bits
	0	0.258333	5.74442E-003	5.74442E-003	5.30099E-004	...........
	1	0.516667	5.74356E-003	5.69982E-003	5.24666E-004	...........
	2	0.775	5.74612E-003	6.06520E-003	5.23400E-004	...........
	3	1.03333	5.76378E-003	5.60667E-003	5.23066E-004	...........
	4	1.29167	5.78660E-003	5.61482E-003	5.20800E-004	...........
	5	1.55	5.78180E-003	5.81966E-003	5.20000E-004	...........
	6	1.80833	5.74876E-003	5.61056E-003	5.22233E-004	...........
	7	2.06667	5.71557E-003	5.61302E-003	5.27666E-004	...........
	8	2.325	5.68816E-003	5.60752E-003	5.22266E-004	...........
	9	2.58333	5.66146E-003	5.72565E-003	5.28533E-004	...........
	10	2.84167	5.64497E-003	5.62193E-003	5.19833E-004	...........
	11	3.1	5.64485E-003	5.67305E-003	5.21500E-004	...........
	12	3.35833	5.65261E-003	5.68962E-003	5.15400E-004	...........
	13	3.61667	5.66111E-003	5.69236E-003	5.22200E-004	...........
	14	3.875	5.67066E-003	5.69783E-003	5.22300E-004	...........
	15	4.13333	5.68121E-003	5.71699E-003	5.20733E-004	...........
	16	4.39167	5.69183E-003	5.73404E-003	5.19133E-004	...........
	17	4.65	5.70309E-003	5.73435E-003	5.21633E-004	...........
	18	4.90833	5.71527E-003	5.76064E-003	5.19866E-004	...........
EOC	QUANT	0.0057153	Open Circuit (V)
PSTATMODEL	IQUANT	4	Pstat Model
PSTATSECTION	LABEL	REF600-11020	Pstat Section
PSTATSERIALNO	LABEL	11020	Pstat Serial Number
CTRLMODE	IQUANT	1	Control Mode
IESTAB	IQUANT	0	I/E Stability
CASPEED	IQUANT	1	Control Amp Speed
CONVENTION	IQUANT	1	Current Convention
ICHRANGE	IQUANT	2	Ich Range
ICHRANGEMODE	TOGGLE	F	Ich Auto Range
ICHOFFSETENABLE	TOGGLE	T	Ich Offset Enable
ICHOFFSET	QUANT	0	Ich Offset (V)
ICHFILTER	IQUANT	3	Ich Filter
VCHRANGE	IQUANT	2	Vch Range
VCHRANGEMODE	TOGGLE	F	Vch Auto Range
VCHOFFSETENABLE	TOGGLE	T	Vch Offset Enable
VCHOFFSET	QUANT	0	Vch Offset (V)
VCHFILTER	IQUANT	3	Vch Filter
ACHRANGE	IQUANT	2	Ach Range
ACHOFFSETENABLE	TOGGLE	F	Ach Offset Enable
ACHOFFSET	QUANT	0	Ach Offset (V)
ACHFILTER	IQUANT	3	Ach Filter
IERANGELOWERLIMIT	IQUANT	1	I/E Range Lower Limit
IERANGEMODE	TOGGLE	F	I/E AutoRange
IERANGE	IQUANT	5	I/E Range
POSFEEDENABLE	TOGGLE	F	Positive Feedback IR Comp
POSFEEDRESISTANCE	QUANT	0	Positive Feedback Resistance (ohm)
ACHSELECT	IQUANT	0	Ach Select
CABLEID	IQUANT	14	Cable ID
DCCALDATE	LABEL	8/19/2019	DC Calibration Date
ACCALDATE	LABEL	8/19/2019	AC Calibration Date
THERMOSELECT	IQUANT	1	Thermo Select
FRAMEWORKVERSION	QUANT	6.33	Framework Version
INSTRUMENTVERSION	LABEL	3.50	Instrument Version
ZCURVE	TABLE
	Pt	Time	Freq	Zreal	Zimag	Zsig	Zmod	Zphz	Idc	Vdc	IERange
	#	s	Hz	ohm	ohm	V	ohm	°	A	V	#
	0	2	1000078	2371.202	-1200.11	1	2657.605	-26.84482	-1.498114E-006	0.0084565	8
	1	3	794390.6	2571.752	-1084.583	1	2791.098	-22.86658	-3.672351E-006	0.0085001	8
	2	5	630984.4	2731.615	-969.304	1	2898.495	-19.53706	6.457134E-007	0.0075117	8
	3	6	501234.4	2871.995	-854.2603	1	2996.351	-16.56484	9.36579E-008	0.0074724	8
	4	7	398109.4	2970.108	-747.1358	1	3062.638	-14.11989	1.45438E-006	0.0071037	8
	5	9	316265.6	3051.355	-657.9546	1	3121.486	-12.16821	1.333017E-006	0.0070123	8
	6	10	251203.1	3112.1	-578.4462	1	3165.402	-10.52941	-3.20509E-006	0.007911	8
	7	11	199546.9	3166.539	-512.5989	1	3207.76	-9.195268	1.407482E-006	0.0070169	8
	8	13	158578.1	3205.564	-459.7605	1	3238.367	-8.162029	2.723505E-006	0.0068348	8
	9	14	125953.1	3256.937	-398.415	1	3281.215	-6.974235	2.60738E-008	0.0072754	7
	10	15	100078.1	3288.683	-370.2958	1	3309.465	-6.424273	-6.014492E-008	0.0074621	7
	11	17	79453.13	3324.938	-364.9858	1	3344.91	-6.264403	3.625104E-008	0.0071704	7
	12	18	63140.62	3363.179	-365.7938	1	3383.014	-6.207335	-2.568241E-008	0.0072778	7
	13	20	50203.12	3401.292	-371.4777	1	3421.518	-6.232948	6.476113E-008	0.0071461	7
	14	21	39890.62	3441.231	-380.6514	1	3462.22	-6.312105	3.094409E-008	0.0072351	7
	15	22	31640.63	3484.443	-397.2266	1	3507.012	-6.503643	-6.468861E-009	0.007263	7
	16	24	25171.88	3527.093	-418.5184	1	3551.836	-6.766972	-5.147657E-008	0.0073631	7
	17	25	20015.62	3577.43	-445.2392	1	3605.03	-7.094429	3.740275E-008	0.0071627	7
	18	26	15890.62	3617.934	-480.3646	1	3649.685	-7.563107	-7.559624E-009	0.0073118	7
	19	28	12609.37	3665.237	-522.8965	1	3702.348	-8.119245	3.445388E-008	0.0072302	7
	20	29	10078.13	3713.668	-576.6615	1	3758.173	-8.826447	7.794577E-008	0.0072125	7
	21	30	8015.625	3773.044	-638.4214	1	3826.675	-9.60382	7.601895E-008	0.0072146	7
	22	32	6328.125	3820.363	-726.4314	1	3888.814	-10.76611	-1.982694E-008	0.0072607	7
	23	33	5015.625	3877.389	-829.1278	1	3965.047	-12.07016	-4.907312E-008	0.007363	7
	24	34	3984.375	3930.006	-939.3523	1	4040.709	-13.44266	-6.043792E-009	0.0072614	7
	25	36	3170.956	3999.963	-1106.697	1	4150.239	-15.46554	7.785042E-008	0.0072081	7
	26	37	2527.573	4065.657	-1293.93	1	4266.594	-17.65412	-2.061924E-008	0.0072627	7
	27	38	1976.103	4139.635	-1546.904	1	4419.218	-20.48977	-4.218623E-008	0.0073248	7
	28	40	1577.524	4194.905	-1842.126	1	4581.556	-23.70792	9.845479E-008	0.0071282	7
	29	41	1265.625	4300.9	-2189.372	1	4826.084	-26.97835	9.98425E-008	0.007124	7
	30	42	998.264	4403.925	-2659.228	1	5144.517	-31.1249	-2.512575E-008	0.0072638	7
	31	44	796.875	4516.558	-3209.028	1	5540.502	-35.39391	9.836417E-008	0.0071265	7
	32	45	627.7902	4663.184	-3931.309	1	6099.219	-40.13265	-4.814972E-008	0.0073651	7
	33	47	505.5147	4823.896	-4738.45	1	6761.87	-44.48804	-4.182651E-008	0.0073221	7
	34	48	397.9953	5042.234	-5840.048	1	7715.587	-49.19303	6.039927E-009	0.0072946	7
	35	49	315.5048	5310.215	-7160.242	1	8914.452	-53.43844	5.673377E-009	0.0072923	7
	36	51	252.4038	5637.483	-8713.789	1	10378.41	-57.0987	8.982275E-010	0.0072291	6
	37	52	198.6229	6085.648	-10765.83	1	12366.82	-60.52164	1.114495E-009	0.0072296	6
	38	53	158.3615	6634.891	-13142.82	1	14722.62	-63.21398	3.396763E-010	0.0072284	6
	39	55	125.558	7363.94	-16118.01	1	17720.55	-65.44545	1.217642E-009	0.0072333	6
	40	56	100.4464	8279.469	-19566.09	1	21245.74	-67.06416	1.140655E-009	0.0072301	6
	41	57	79.00281	9559.63	-24155.15	1	25978.03	-68.40833	1.682341E-009	0.0072277	6
	42	59	63.3446	10984.08	-29002.46	1	31012.79	-69.25686	1.005208E-009	0.0072254	6
	43	60	49.86702	13611.44	-35605.6	1	38118.63	-69.07896	1.395176E-009	0.0072237	6
	44	62	39.72458	16340.13	-43229.86	1	46214.94	-69.29429	7.29076E-010	0.0072289	6
	45	63	31.6723	20041.26	-51818.55	1	55559.1	-68.8556	1.566569E-009	0.0072305	6
	46	64	24.93351	25354.44	-62687.21	1	67620.52	-67.97866	1.174915E-009	0.0072262	6
	47	66	19.86229	31853.45	-74513.36	1	81036.3	-66.85395	7.218277E-010	0.0072245	6
	48	67	15.83615	40259.34	-87784.48	1	96576	-65.36307	1.759402E-010	0.0072306	6
	49	69	12.40079	51334.11	-102928.1	1	115019.1	-63.49284	-1.248072E-009	0.0072392	5
	50	70	9.93114	62888.91	-119358	1	134912.3	-62.21556	1.827205E-010	0.0072403	5
	51	72	7.944915	76715.8	-135402.7	1	155625.2	-60.46519	1.376453E-009	0.0072356	5
	52	73	6.317385	92708.12	-155088.5	1	180685.4	-59.13004	1.05695E-010	0.0072478	5
	53	75	5.008013	110014.1	-176215.5	1	207737.8	-58.02281	4.850225E-010	0.0072456	5
	54	78	3.945707	129440.6	-200675.9	1	238800.5	-57.17705	-1.685752E-010	0.0072288	5
	55	80	3.158693	148410.1	-227169.8	1	271351.6	-56.84339	3.327208E-010	0.0072506	5
	56	84	2.504006	169576.8	-260548.6	1	310872.7	-56.94211	-2.033591E-010	0.0072307	5
	57	86	1.998082	190571.6	-298960.6	1	354534.9	-57.48463	-4.652279E-011	0.0072085	5
	58	90	1.584686	216421.2	-345879.2	1	408008	-57.96523	3.737158E-011	0.0072809	5
	59	93	1.266892	242899.5	-402172.2	1	469832.6	-58.86934	-9.109673E-011	0.0072363	5
	60	98	0.999041	275651.7	-473095.8	1	547543.1	-59.77256	3.09201E-010	0.0072398	5
