EXPLAIN
TAG	EISPOT
TITLE	LABEL	Potentiostatic EIS	Test &Identifier
DATE	LABEL	11/9/2019	Date
TIME	LABEL	11:00:23	Time
NOTES	NOTES	2	&Notes...
	
	
PSTAT	PSTAT	REF600-11020	Potentiostat
VDC	POTEN	0.00000E+000	T	DC &Voltage (V)
FREQINIT	QUANT	1.00000E+006	Initial Fre&q. (Hz)
FREQFINAL	QUANT	1.00000E+000	Final Fre&q. (Hz)
PTSPERDEC	QUANT	1.00000E+001	Points/&decade
VAC	QUANT	2.50000E+001	AC &Voltage (mV rms)
AREA	QUANT	1.00000E-002	&Area (cm^2)
CONDIT	TWOPARAM	T	5.00000E+000	0.00000E+000	Conditionin&g	Time(s)	E(V)
DELAY	TWOPARAM	T	5.00000E+000	0.00000E+000	Init. De&lay	Time(s)	Stab.(mV/s)
SPEED	SELECTOR	0	&Optimize for:
ZGUESS	QUANT	1.00000E+005	E&stimated Z (ohms)
OCVCURVE	TABLE	19
	Pt	T	Vf	Vm	Ach	Over
	#	s	V vs. Ref.	V	V	bits
	0	0.258333	1.57230E-002	1.57230E-002	5.62232E-004	...........
	1	0.516667	1.57348E-002	1.63423E-002	5.60266E-004	...........
	2	0.775	1.58068E-002	1.68911E-002	5.55399E-004	...........
	3	1.03333	1.60079E-002	1.74248E-002	5.63866E-004	...........
	4	1.29167	1.63648E-002	1.79961E-002	5.47199E-004	...........
	5	1.55	1.68382E-002	1.84198E-002	5.53733E-004	...........
	6	1.80833	1.73633E-002	1.89795E-002	5.50666E-004	...........
	7	2.06667	1.78919E-002	1.93807E-002	5.55833E-004	...........
	8	2.325	1.84024E-002	1.98550E-002	5.53733E-004	...........
	9	2.58333	1.88897E-002	2.02830E-002	5.56333E-004	...........
	10	2.84167	1.93549E-002	2.06533E-002	5.56599E-004	...........
	11	3.1	1.97998E-002	2.10967E-002	5.59399E-004	...........
	12	3.35833	2.02260E-002	2.14276E-002	5.51933E-004	...........
	13	3.61667	2.06350E-002	2.18035E-002	5.53899E-004	...........
	14	3.875	2.10277E-002	2.21842E-002	5.58899E-004	...........
	15	4.13333	2.14055E-002	2.24428E-002	5.51699E-004	...........
	16	4.39167	2.17690E-002	2.28666E-002	5.55833E-004	...........
	17	4.65	2.21183E-002	2.30639E-002	5.56466E-004	...........
	18	4.90833	2.24537E-002	2.34491E-002	5.45799E-004	...........
EOC	QUANT	0.0224537	Open Circuit (V)
PSTATMODEL	IQUANT	4	Pstat Model
PSTATSECTION	LABEL	REF600-11020	Pstat Section
PSTATSERIALNO	LABEL	11020	Pstat Serial Number
CTRLMODE	IQUANT	1	Control Mode
IESTAB	IQUANT	0	I/E Stability
CASPEED	IQUANT	1	Control Amp Speed
CONVENTION	IQUANT	1	Current Convention
ICHRANGE	IQUANT	2	Ich Range
ICHRANGEMODE	TOGGLE	F	Ich Auto Range
ICHOFFSETENABLE	TOGGLE	T	Ich Offset Enable
ICHOFFSET	QUANT	0	Ich Offset (V)
ICHFILTER	IQUANT	3	Ich Filter
VCHRANGE	IQUANT	2	Vch Range
VCHRANGEMODE	TOGGLE	F	Vch Auto Range
VCHOFFSETENABLE	TOGGLE	T	Vch Offset Enable
VCHOFFSET	QUANT	0	Vch Offset (V)
VCHFILTER	IQUANT	3	Vch Filter
ACHRANGE	IQUANT	2	Ach Range
ACHOFFSETENABLE	TOGGLE	F	Ach Offset Enable
ACHOFFSET	QUANT	0	Ach Offset (V)
ACHFILTER	IQUANT	3	Ach Filter
IERANGELOWERLIMIT	IQUANT	1	I/E Range Lower Limit
IERANGEMODE	TOGGLE	F	I/E AutoRange
IERANGE	IQUANT	5	I/E Range
POSFEEDENABLE	TOGGLE	F	Positive Feedback IR Comp
POSFEEDRESISTANCE	QUANT	0	Positive Feedback Resistance (ohm)
ACHSELECT	IQUANT	0	Ach Select
CABLEID	IQUANT	14	Cable ID
DCCALDATE	LABEL	8/19/2019	DC Calibration Date
ACCALDATE	LABEL	8/19/2019	AC Calibration Date
THERMOSELECT	IQUANT	1	Thermo Select
FRAMEWORKVERSION	QUANT	6.33	Framework Version
INSTRUMENTVERSION	LABEL	3.50	Instrument Version
ZCURVE	TABLE
	Pt	Time	Freq	Zreal	Zimag	Zsig	Zmod	Zphz	Idc	Vdc	IERange
	#	s	Hz	ohm	ohm	V	ohm	°	A	V	#
	0	1	1000078	2360.753	-1812.851	1	2976.505	-37.52109	-1.221305E-007	0.0242638	8
	1	1	794390.6	2735.372	-1788.168	1	3267.997	-33.17345	-5.87051E-006	0.0253838	8
	2	2	630984.4	3104.382	-1696.383	1	3537.641	-28.65431	3.099891E-007	0.023867	8
	3	2	501234.4	3395.585	-1589.379	1	3749.15	-25.08299	-3.513936E-006	0.024086	8
	4	2	398109.4	3641.927	-1429.68	1	3912.496	-21.43306	-2.971401E-006	0.0240254	8
	5	3	316265.6	3862.923	-1282.957	1	4070.399	-18.3724	-6.670264E-007	0.0237227	8
	6	3	251203.1	4071.07	-1148.247	1	4229.903	-15.75113	7.212187E-006	0.0232136	8
	7	3	199546.9	4158.767	-970.641	1	4270.537	-13.13745	-2.790071E-006	0.0242868	8
	8	4	158578.1	4296.55	-862.7764	1	4382.32	-11.35437	-4.370151E-006	0.0247792	8
	9	4	125953.1	4387.555	-733.295	1	4448.411	-9.488187	1.612323E-006	0.0259845	7
	10	4	100078.1	4435.845	-646.3756	1	4482.691	-8.290587	-1.421629E-006	0.0261522	7
	11	5	79453.13	4487.012	-598.3928	1	4526.737	-7.596205	-1.161931E-006	0.0262276	7
	12	5	63140.62	4536.683	-562.0482	1	4571.367	-7.06237	-8.088829E-007	0.0261165	7
	13	5	50203.12	4600.089	-550.2833	1	4632.886	-6.821562	6.339481E-007	0.0218824	7
	14	6	39890.62	4624.875	-545.8997	1	4656.981	-6.731791	-1.165092E-006	0.0262161	7
	15	6	31640.63	4668.904	-551.8203	1	4701.401	-6.740549	-1.583184E-006	0.0259103	7
	16	6	25171.88	4744.134	-577.4683	1	4779.15	-6.940049	1.071109E-006	0.0237617	7
	17	6	20015.62	4783.321	-608.6897	1	4821.895	-7.252055	-3.979988E-007	0.022943	7
	18	7	15890.62	4860.814	-666.9182	1	4906.353	-7.812374	1.41315E-006	0.0221427	7
	19	7	12609.37	4915.61	-726.437	1	4968.997	-8.406421	8.921915E-008	0.0252827	7
	20	7	10078.13	4970.309	-808.291	1	5035.604	-9.236802	8.600938E-008	0.0252976	7
	21	8	8015.625	5039.95	-901.7122	1	5119.979	-10.14363	-8.018195E-007	0.0261017	7
	22	8	6328.125	5103.808	-1024.161	1	5205.551	-11.34662	-3.789384E-007	0.0257956	7
	23	8	5015.625	5198.125	-1179.978	1	5330.371	-12.78944	-1.572049E-006	0.02543	7
	24	9	3984.375	5278.055	-1365.415	1	5451.81	-14.50425	-8.088876E-007	0.0260947	7
	25	9	3170.956	5375.456	-1568.667	1	5599.664	-16.26831	-3.778585E-007	0.02579	7
	26	9	2527.573	5458.097	-1844.241	1	5761.253	-18.66964	-1.344959E-006	0.0246894	7
	27	10	1976.103	5610.18	-2219.388	1	6033.225	-21.58376	6.307883E-007	0.021865	7
	28	10	1577.524	5722.04	-2600.751	1	6285.352	-24.4425	-1.569752E-006	0.0254246	7
	29	10	1265.625	5875.642	-3083.915	1	6635.789	-27.69338	-1.346553E-006	0.0246931	7
	30	11	998.264	6078.598	-3720.644	1	7126.889	-31.47035	1.419068E-006	0.022573	7
	31	11	796.875	6259.193	-4455.81	1	7683.211	-35.4464	7.772676E-007	0.0243102	7
	32	12	627.7902	6471.116	-5388.412	1	8420.827	-39.7837	6.267475E-007	0.0218654	7
	33	12	505.5147	6729.058	-6458.75	1	9327.146	-43.82578	9.403983E-008	0.0252785	7
	34	12	397.9953	7060.829	-7875.132	1	10577	-48.12066	-4.360924E-010	0.0240038	6
	35	13	315.5048	7421.495	-9589.48	1	12125.87	-52.26299	5.271855E-010	0.0239995	6
	36	13	252.4038	7838.624	-11611.31	1	14009.51	-55.97729	1.814226E-009	0.0239909	6
	37	13	198.6229	8374.527	-14295.2	1	16567.6	-59.63704	1.063867E-010	0.023989	6
	38	14	158.3615	9026.178	-17411.74	1	19612.25	-62.59795	2.023736E-010	0.0239944	6
	39	14	125.558	9864.29	-21369.77	1	23536.59	-65.22194	5.234351E-010	0.0240014	6
	40	14	100.4464	10893.04	-25966.46	1	28158.75	-67.24174	-2.283019E-009	0.0239993	6
	41	15	79.00281	12490.21	-32053.71	1	34401.25	-68.71087	-5.320203E-010	0.0239824	6
	42	15	63.3446	13383.12	-39655.92	1	41853.32	-71.35144	4.926397E-010	0.0239954	6
	43	15	49.86702	15924.47	-48305.77	1	50862.91	-71.75468	-2.62844E-010	0.0239814	6
	44	16	39.72458	19577.73	-58595.58	1	61779.68	-71.5247	-6.183604E-010	0.0240017	6
	45	16	31.6723	23625.71	-71390.94	1	75198.67	-71.68884	7.937301E-010	0.0239864	6
	46	16	24.93351	29567.96	-86740.99	1	91642.04	-71.17696	1.828301E-010	0.0239909	6
	47	17	19.86229	36709.32	-103932.8	1	110225.3	-70.54666	1.118998E-010	0.0239979	5
	48	17	15.83615	42775.44	-125106.9	1	132217.5	-71.12387	1.830634E-009	0.0239962	5
	49	17	12.40079	59688.83	-155342.9	1	166415.7	-68.98127	-2.052091E-009	0.0239954	5
	50	18	9.93114	73899.53	-179668.5	1	194272.8	-67.64213	-4.669528E-010	0.0239979	5
	51	18	7.944915	95249.4	-210778.4	1	231300.6	-65.68209	-4.041075E-010	0.0240036	5
	52	19	6.317385	118811.1	-247808	1	274817.9	-64.38469	-8.824046E-010	0.0240167	5
	53	20	5.008013	150919.2	-289213.2	1	326222.1	-62.44324	-5.493825E-010	0.0239892	5
	54	21	3.945707	188426.8	-334644.2	1	384046	-60.61761	-5.10073E-010	0.0239942	5
	55	22	3.158693	232459.9	-378947.4	1	444565.8	-58.47356	-2.653557E-011	0.0239967	5
	56	24	2.504006	284387.9	-428112.9	1	513962.2	-56.40461	-2.693719E-010	0.0239974	5
	57	25	1.998082	339920.2	-478917.3	1	587288.3	-54.63409	-3.791621E-010	0.0239641	5
	58	27	1.584686	402026.6	-531875.1	1	666720.7	-52.91558	-1.985081E-010	0.02401	5
	59	28	1.266892	467802.1	-588570	1	751833.4	-51.52192	-8.702993E-011	0.024033	5
	60	31	0.999041	540274.8	-656298	1	850072.9	-50.53826	-2.693631E-011	0.0240277	5
