EXPLAIN
TAG	EISPOT
TITLE	LABEL	Potentiostatic EIS	Test &Identifier
DATE	LABEL	10/22/2019	Date
TIME	LABEL	9:14:37	Time
NOTES	NOTES	1	&Notes...
	
PSTAT	PSTAT	REF600-11020	Potentiostat
VDC	POTEN	0.00000E+000	T	DC &Voltage (V)
FREQINIT	QUANT	1.00000E+006	Initial Fre&q. (Hz)
FREQFINAL	QUANT	1.00000E+000	Final Fre&q. (Hz)
PTSPERDEC	QUANT	1.00000E+001	Points/&decade
VAC	QUANT	2.50000E+001	AC &Voltage (mV rms)
AREA	QUANT	1.00000E-002	&Area (cm^2)
CONDIT	TWOPARAM	T	5.00000E+000	0.00000E+000	Conditionin&g	Time(s)	E(V)
DELAY	TWOPARAM	T	5.00000E+000	0.00000E+000	Init. De&lay	Time(s)	Stab.(mV/s)
SPEED	SELECTOR	1	&Optimize for:
ZGUESS	QUANT	1.00000E+005	E&stimated Z (ohms)
OCVCURVE	TABLE	19
	Pt	T	Vf	Vm	Ach	Over
	#	s	V vs. Ref.	V	V	bits
	0	0.258333	2.07160E-003	2.07160E-003	5.56366E-004	...........
	1	0.516667	2.06454E-003	1.70252E-003	5.54133E-004	...........
	2	0.775	2.02283E-003	1.43554E-003	5.52399E-004	...........
	3	1.03333	1.91043E-003	1.19725E-003	5.57666E-004	...........
	4	1.29167	1.72074E-003	9.53719E-004	5.58732E-004	...........
	5	1.55	1.48342E-003	7.47509E-004	5.60832E-004	...........
	6	1.80833	1.23457E-003	5.47405E-004	5.58366E-004	...........
	7	2.06667	9.96053E-004	3.60028E-004	5.57132E-004	...........
	8	2.325	7.75240E-004	1.80495E-004	5.55799E-004	...........
	9	2.58333	5.71244E-004	1.28337E-005	5.52232E-004	...........
	10	2.84167	3.80722E-004	-1.54887E-004	5.58799E-004	...........
	11	3.1	2.00674E-004	-3.07682E-004	5.61166E-004	...........
	12	3.35833	2.92354E-005	-4.53103E-004	5.53066E-004	...........
	13	3.61667	-1.34433E-004	-6.07350E-004	5.58366E-004	...........
	14	3.875	-2.91019E-004	-7.31604E-004	5.53032E-004	...........
	15	4.13333	-4.40860E-004	-8.58411E-004	5.56533E-004	...........
	16	4.39167	-5.83569E-004	-9.94698E-004	5.55233E-004	...........
	17	4.65	-7.19692E-004	-1.11532E-003	5.56799E-004	...........
	18	4.90833	-8.51035E-004	-1.23297E-003	5.57699E-004	...........
EOC	QUANT	-0.000851	Open Circuit (V)
PSTATMODEL	IQUANT	4	Pstat Model
PSTATSECTION	LABEL	REF600-11020	Pstat Section
PSTATSERIALNO	LABEL	11020	Pstat Serial Number
CTRLMODE	IQUANT	1	Control Mode
IESTAB	IQUANT	0	I/E Stability
CASPEED	IQUANT	1	Control Amp Speed
CONVENTION	IQUANT	1	Current Convention
ICHRANGE	IQUANT	2	Ich Range
ICHRANGEMODE	TOGGLE	F	Ich Auto Range
ICHOFFSETENABLE	TOGGLE	T	Ich Offset Enable
ICHOFFSET	QUANT	0	Ich Offset (V)
ICHFILTER	IQUANT	3	Ich Filter
VCHRANGE	IQUANT	2	Vch Range
VCHRANGEMODE	TOGGLE	F	Vch Auto Range
VCHOFFSETENABLE	TOGGLE	T	Vch Offset Enable
VCHOFFSET	QUANT	0	Vch Offset (V)
VCHFILTER	IQUANT	3	Vch Filter
ACHRANGE	IQUANT	2	Ach Range
ACHOFFSETENABLE	TOGGLE	F	Ach Offset Enable
ACHOFFSET	QUANT	0	Ach Offset (V)
ACHFILTER	IQUANT	3	Ach Filter
IERANGELOWERLIMIT	IQUANT	1	I/E Range Lower Limit
IERANGEMODE	TOGGLE	F	I/E AutoRange
IERANGE	IQUANT	4	I/E Range
POSFEEDENABLE	TOGGLE	F	Positive Feedback IR Comp
POSFEEDRESISTANCE	QUANT	0	Positive Feedback Resistance (ohm)
ACHSELECT	IQUANT	0	Ach Select
CABLEID	IQUANT	14	Cable ID
DCCALDATE	LABEL	8/19/2019	DC Calibration Date
ACCALDATE	LABEL	8/19/2019	AC Calibration Date
THERMOSELECT	IQUANT	1	Thermo Select
FRAMEWORKVERSION	QUANT	6.33	Framework Version
INSTRUMENTVERSION	LABEL	3.50	Instrument Version
ZCURVE	TABLE
	Pt	Time	Freq	Zreal	Zimag	Zsig	Zmod	Zphz	Idc	Vdc	IERange
	#	s	Hz	ohm	ohm	V	ohm	°	A	V	#
	0	2	1000078	2197.671	-1216.261	1	2511.781	-28.96153	-4.937076E-006	0.0018796	8
	1	3	794390.6	2408.03	-1155.459	1	2670.897	-25.63337	-3.686033E-006	0.0024215	8
	2	5	630984.4	2600.155	-1079.809	1	2815.456	-22.55244	2.203687E-006	0.0005001	8
	3	6	501234.4	2768.11	-1008.139	1	2945.976	-20.0115	3.822528E-006	0.0001035	8
	4	7	398109.4	2897.169	-912.0186	1	3037.329	-17.47382	-4.707334E-006	0.0018515	8
	5	9	316265.6	3022.038	-841.1274	1	3136.91	-15.55355	4.081368E-006	7.260774E-005	8
	6	10	251203.1	3126.761	-772.3177	1	3220.731	-13.87449	-7.924909E-007	0.0008472	8
	7	11	199546.9	3225.065	-720.632	1	3304.596	-12.59568	-4.023555E-007	0.0008045	8
	8	13	158578.1	3285.776	-681.1399	1	3355.633	-11.71151	1.171103E-007	0.0008517	8
	9	14	125953.1	3378.758	-597.1934	1	3431.128	-10.02347	6.232978E-007	-0.0005642	7
	10	16	100078.1	3443.442	-583.192	1	3492.478	-9.61258	-3.179261E-008	0.0007743	7
	11	17	79453.13	3508.387	-583.6747	1	3556.607	-9.445534	-2.809524E-008	0.0007523	7
	12	18	63140.62	3575.093	-593.6871	1	3624.052	-9.428611	3.848884E-008	0.0006124	7
	13	20	50203.12	3645.596	-607.1781	1	3695.813	-9.455881	-3.262084E-008	0.000767	7
	14	21	39890.62	3718.992	-629.3423	1	3771.866	-9.60482	3.786842E-008	0.000699	7
	15	22	31640.63	3796.164	-658.8911	1	3852.92	-9.84659	-5.282205E-008	0.0009057	7
	16	24	25171.88	3876.833	-694.2819	1	3938.51	-10.15317	1.529117E-009	0.0007459	7
	17	25	20015.62	3955.154	-734.7512	1	4022.823	-10.5239	-3.432582E-008	0.0008197	7
	18	26	15890.62	4052.507	-787.5699	1	4128.326	-10.99785	-3.229738E-008	0.0007661	7
	19	28	12609.37	4149.55	-847.6113	1	4235.234	-11.54475	-9.050485E-009	0.0008749	7
	20	29	10078.13	4247.323	-914.984	1	4344.761	-12.15721	8.943952E-008	0.0006792	7
	21	31	8015.625	4354.35	-991.643	1	4465.839	-12.82951	3.985153E-008	0.0006149	7
	22	32	6328.125	4468.282	-1089.683	1	4599.234	-13.70524	-1.483564E-008	0.000718	7
	23	33	5015.625	4587.043	-1199.055	1	4741.171	-14.64934	-4.486472E-008	0.0007704	7
	24	35	3984.375	4718.536	-1321.501	1	4900.096	-15.64575	-8.60196E-009	0.0008718	7
	25	36	3170.956	4824.802	-1477.178	1	5045.866	-17.02268	-9.342692E-009	0.0008637	7
	26	37	2527.573	4944.01	-1660.113	1	5215.286	-18.56116	1.450959E-009	0.0007451	7
	27	39	1976.103	5070.221	-1912.547	1	5418.946	-20.66706	2.83085E-009	0.0007416	7
	28	40	1577.524	5171.589	-2225.11	1	5629.959	-23.28011	6.244051E-008	0.0006377	7
	29	41	1265.625	5307.57	-2568.511	1	5896.401	-25.82389	6.178574E-008	0.0006376	7
	30	43	998.264	5450.846	-3062.347	1	6252.175	-29.32777	-5.053772E-008	0.0009029	7
	31	44	796.875	5609.216	-3647.449	1	6690.829	-33.03434	-1.450497E-008	0.0007923	7
	32	46	627.7902	5814.458	-4423.722	1	7305.973	-37.26439	-1.453403E-008	0.0007889	7
	33	47	505.5147	6047.268	-5289.232	1	8034.017	-41.17451	-7.473257E-008	0.0008663	7
	34	48	397.9953	6378.995	-6459.291	1	9078.217	-45.35835	5.355268E-009	0.0007639	7
	35	50	315.5048	6799.486	-7848.657	1	10384.34	-49.09681	5.316987E-010	0.0007007	6
	36	51	252.4038	7318.276	-9462.741	1	11962.47	-52.28242	1.602831E-009	0.0006988	6
	37	52	198.6229	8042.782	-11549.58	1	14074.06	-55.14781	1.159267E-009	0.0007017	6
	38	54	158.3615	8941.931	-13907.49	1	16534.1	-57.26069	8.334891E-010	0.0006984	6
	39	55	125.558	10133.44	-16780.46	1	19602.82	-58.87293	9.472875E-010	0.0007003	6
	40	56	100.4464	11598.76	-19998.29	1	23118.45	-59.88681	1.181059E-009	0.0006996	6
	41	58	79.00281	13704.08	-24032.11	1	27664.85	-60.30647	1.573196E-009	0.0006934	6
	42	59	63.3446	16301.42	-28390.38	1	32737.59	-60.13607	5.135773E-010	0.0006936	6
	43	61	49.86702	19198.13	-33604	1	38701.39	-60.26046	7.036831E-010	0.0006938	6
	44	62	39.72458	23074.33	-39055.64	1	45362.63	-59.42513	1.119165E-009	0.000697	6
	45	63	31.6723	27588.05	-44939.67	1	52732.1	-58.45462	6.617688E-010	0.000699	6
	46	65	24.93351	32941.96	-52022.03	1	61574.86	-57.65675	1.18398E-009	0.0006969	6
	47	66	19.86229	38641.4	-59324.24	1	70799.17	-56.92141	9.540069E-010	0.000696	6
	48	68	15.83615	45005.75	-67609.27	1	81219.03	-56.34932	1.708126E-009	0.0006968	6
	49	69	12.40079	51505.38	-77448.89	1	93011.48	-56.37513	5.553366E-010	0.0007001	6
	50	70	9.93114	58458.58	-88481.02	1	106048.6	-56.54763	2.550476E-011	0.0007066	5
	51	72	7.944915	65643.18	-101485.3	1	120864.8	-57.10421	8.326771E-010	0.0007052	5
	52	74	6.317385	73446.8	-117795.7	1	138817.3	-58.05604	3.122164E-010	0.000721	5
	53	76	5.008013	82372.95	-138147.5	1	160841.7	-59.19373	3.698185E-010	0.000707	5
	54	78	3.945707	92920.92	-163784.9	1	188307.7	-60.43224	4.008605E-010	0.0007026	5
	55	81	3.158693	104841.9	-192947.4	1	219591.7	-61.48164	3.403292E-011	0.0007034	5
	56	84	2.504006	119601.2	-229454.8	1	258754.7	-62.46963	4.737977E-010	0.0006945	5
	57	87	1.998082	137196.5	-271831.4	1	304491.7	-63.21938	5.111601E-011	0.0007435	5
	58	90	1.584686	158221	-323679.4	1	360280.8	-63.94968	2.337097E-010	0.000718	5
	59	94	1.266892	185048.5	-383261.6	1	425596.5	-64.22756	6.447603E-011	0.0007465	5
	60	98	0.999041	218193.4	-457094.3	1	506501.3	-64.48258	8.245062E-011	0.0006646	5
