EXPLAIN
TAG	EISPOT
TITLE	LABEL	Potentiostatic EIS	Test &Identifier
DATE	LABEL	10/8/2019	Date
TIME	LABEL	8:43:58	Time
NOTES	NOTES	2	&Notes...
	
	
PSTAT	PSTAT	REF600-11020	Potentiostat
VDC	POTEN	0.00000E+000	T	DC &Voltage (V)
FREQINIT	QUANT	1.00000E+006	Initial Fre&q. (Hz)
FREQFINAL	QUANT	1.00000E+000	Final Fre&q. (Hz)
PTSPERDEC	QUANT	1.00000E+001	Points/&decade
VAC	QUANT	2.50000E+001	AC &Voltage (mV rms)
AREA	QUANT	1.00000E-002	&Area (cm^2)
CONDIT	TWOPARAM	T	5.00000E+000	0.00000E+000	Conditionin&g	Time(s)	E(V)
DELAY	TWOPARAM	T	5.00000E+000	0.00000E+000	Init. De&lay	Time(s)	Stab.(mV/s)
SPEED	SELECTOR	1	&Optimize for:
ZGUESS	QUANT	1.00000E+004	E&stimated Z (ohms)
OCVCURVE	TABLE	19
	Pt	T	Vf	Vm	Ach	Over
	#	s	V vs. Ref.	V	V	bits
	0	0.258333	4.42169E-003	4.42169E-003	5.90899E-004	...........
	1	0.516667	4.41661E-003	4.15554E-003	5.97032E-004	...........
	2	0.775	4.38581E-003	3.92512E-003	5.96099E-004	...........
	3	1.03333	4.30025E-003	3.71444E-003	5.97198E-004	...........
	4	1.29167	4.15105E-003	3.52819E-003	6.02065E-004	...........
	5	1.55	3.95939E-003	3.36029E-003	5.98399E-004	...........
	6	1.80833	3.75629E-003	3.20889E-003	5.89932E-004	...........
	7	2.06667	3.56376E-003	3.10857E-003	5.98465E-004	...........
	8	2.325	3.39161E-003	2.94222E-003	5.97932E-004	...........
	9	2.58333	3.23654E-003	2.69125E-003	5.99665E-004	...........
	10	2.84167	3.08448E-003	2.62965E-003	5.92499E-004	...........
	11	3.1	2.92978E-003	2.61403E-003	5.95465E-004	...........
	12	3.35833	2.78988E-003	2.58920E-003	5.98999E-004	...........
	13	3.61667	2.68735E-003	2.58620E-003	5.99132E-004	...........
	14	3.875	2.62885E-003	2.68475E-003	5.91199E-004	...........
	15	4.13333	2.60571E-003	2.47650E-003	5.94265E-004	...........
	16	4.39167	2.59267E-003	2.30648E-003	5.97765E-004	...........
	17	4.65	2.55188E-003	2.15745E-003	5.94632E-004	...........
	18	4.90833	2.46090E-003	1.99259E-003	5.98032E-004	...........
EOC	QUANT	0.0024609	Open Circuit (V)
PSTATMODEL	IQUANT	4	Pstat Model
PSTATSECTION	LABEL	REF600-11020	Pstat Section
PSTATSERIALNO	LABEL	11020	Pstat Serial Number
CTRLMODE	IQUANT	1	Control Mode
IESTAB	IQUANT	0	I/E Stability
CASPEED	IQUANT	1	Control Amp Speed
CONVENTION	IQUANT	1	Current Convention
ICHRANGE	IQUANT	2	Ich Range
ICHRANGEMODE	TOGGLE	F	Ich Auto Range
ICHOFFSETENABLE	TOGGLE	T	Ich Offset Enable
ICHOFFSET	QUANT	0	Ich Offset (V)
ICHFILTER	IQUANT	3	Ich Filter
VCHRANGE	IQUANT	2	Vch Range
VCHRANGEMODE	TOGGLE	F	Vch Auto Range
VCHOFFSETENABLE	TOGGLE	T	Vch Offset Enable
VCHOFFSET	QUANT	0	Vch Offset (V)
VCHFILTER	IQUANT	3	Vch Filter
ACHRANGE	IQUANT	2	Ach Range
ACHOFFSETENABLE	TOGGLE	F	Ach Offset Enable
ACHOFFSET	QUANT	0	Ach Offset (V)
ACHFILTER	IQUANT	3	Ach Filter
IERANGELOWERLIMIT	IQUANT	1	I/E Range Lower Limit
IERANGEMODE	TOGGLE	F	I/E AutoRange
IERANGE	IQUANT	5	I/E Range
POSFEEDENABLE	TOGGLE	F	Positive Feedback IR Comp
POSFEEDRESISTANCE	QUANT	0	Positive Feedback Resistance (ohm)
ACHSELECT	IQUANT	0	Ach Select
CABLEID	IQUANT	14	Cable ID
DCCALDATE	LABEL	8/19/2019	DC Calibration Date
ACCALDATE	LABEL	8/19/2019	AC Calibration Date
THERMOSELECT	IQUANT	1	Thermo Select
FRAMEWORKVERSION	QUANT	6.33	Framework Version
INSTRUMENTVERSION	LABEL	3.50	Instrument Version
ZCURVE	TABLE
	Pt	Time	Freq	Zreal	Zimag	Zsig	Zmod	Zphz	Idc	Vdc	IERange
	#	s	Hz	ohm	ohm	V	ohm	°	A	V	#
	0	2	1000078	2641.132	-1498.834	1	3036.788	-29.57477	5.004446E-006	0.0040985	8
	1	3	794390.6	2908.461	-1387.133	1	3222.31	-25.49789	-3.226835E-006	0.004783	8
	2	5	630984.4	3146.019	-1235.339	1	3379.867	-21.43832	-3.707848E-008	0.00437	8
	3	6	501234.4	3325.682	-1075.341	1	3495.214	-17.91833	-1.92612E-007	0.0043392	8
	4	7	398109.4	3453.033	-929.4152	1	3575.926	-15.06466	4.141678E-006	0.0033692	8
	5	9	316265.6	3560.022	-779.5212	1	3644.367	-12.35086	-8.849457E-007	0.0041643	8
	6	10	251203.1	3642.648	-687.941	1	3707.04	-10.69477	-2.789751E-006	0.0046487	8
	7	11	199546.9	3695.342	-574.9806	1	3739.806	-8.844081	1.226618E-006	0.0040113	8
	8	13	158578.1	3751.701	-516.457	1	3787.082	-7.838041	3.771083E-006	0.0033795	8
	9	14	125953.1	3798.541	-414.518	1	3821.091	-6.227792	4.112103E-007	0.0027938	7
	10	16	100078.1	3821.479	-383.1353	1	3840.638	-5.72525	-4.682436E-008	0.0040858	7
	11	17	79453.13	3851.255	-364.3281	1	3868.449	-5.404089	-3.984059E-008	0.0040761	7
	12	18	63140.62	3878.039	-354.0387	1	3894.166	-5.216258	8.57437E-008	0.0039992	7
	13	20	50203.12	3907.146	-353.6861	1	3923.121	-5.172481	-8.219479E-008	0.0041885	7
	14	21	39890.62	3935.669	-361.079	1	3952.198	-5.241941	-1.866584E-008	0.0042009	7
	15	22	31640.63	3966.261	-379.2082	1	3984.347	-5.461362	6.728963E-008	0.003935	7
	16	24	25171.88	3998.716	-406.2128	1	4019.296	-5.80054	-7.753411E-009	0.0040933	7
	17	25	20015.62	4032.61	-445.1214	1	4057.102	-6.298836	4.709313E-008	0.0039027	7
	18	26	15890.62	4071.182	-489.9946	1	4100.563	-6.862929	1.330647E-009	0.0040476	7
	19	28	12609.37	4111.52	-552.1091	1	4148.424	-7.648124	-3.923274E-008	0.0040616	7
	20	29	10078.13	4154.338	-622.683	1	4200.745	-8.524457	4.085321E-008	0.0040038	7
	21	31	8015.625	4201.33	-715.6337	1	4261.843	-9.6667	-3.821537E-008	0.0040588	7
	22	32	6328.125	4253.222	-829.422	1	4333.34	-11.03478	-4.82386E-008	0.0040745	7
	23	33	5015.625	4307.417	-969.138	1	4415.096	-12.67999	1.398901E-007	0.0038329	7
	24	35	3984.375	4368.321	-1142.518	1	4515.26	-14.65717	-3.148632E-008	0.0040577	7
	25	36	3170.956	4436.455	-1352.887	1	4638.149	-16.95897	-4.862772E-008	0.0040727	7
	26	37	2527.573	4509.483	-1608.763	1	4787.855	-19.63392	4.673683E-008	0.0038973	7
	27	39	1976.103	4605.985	-1951.371	1	5002.294	-22.96042	-2.911571E-008	0.0040486	7
	28	40	1577.524	4704.914	-2336.597	1	5253.18	-26.41033	7.050257E-008	0.0039292	7
	29	42	1265.625	4821.795	-2800.736	1	5576.185	-30.15013	-3.802162E-008	0.0040606	7
	30	43	998.264	4966.842	-3404.494	1	6021.636	-34.42847	-7.914699E-008	0.0041703	7
	31	44	796.875	5127.789	-4105.82	1	6569.016	-38.68425	-4.090015E-008	0.0040604	7
	32	46	627.7902	5331.594	-5020.561	1	7323.382	-43.27905	-3.686312E-008	0.0040776	7
	33	47	505.5147	5546.172	-6027.946	1	8191.224	-47.38357	-7.204608E-009	0.0040785	7
	34	48	397.9953	5824.743	-7402.195	1	9419.136	-51.80101	3.844121E-009	0.0040577	7
	35	50	315.5048	6154.1	-9050.584	1	10944.68	-55.78559	1.312108E-009	0.0039983	6
	36	51	252.4038	6537.768	-10998.55	1	12794.94	-59.27187	3.940871E-010	0.0039951	6
	37	53	198.6229	7049.833	-13580.14	1	15300.99	-62.5649	9.699707E-010	0.0039942	6
	38	54	158.3615	7666.748	-16589.59	1	18275.49	-65.19635	8.037907E-010	0.0039932	6
	39	55	125.558	8475.896	-20383.38	1	22075.39	-67.4213	6.797092E-010	0.0039934	6
	40	57	100.4464	9488.207	-24850.95	1	26600.67	-69.10291	1.14656E-011	0.0039893	6
	41	58	79.00281	10951.08	-30672	1	32568.35	-70.35149	1.024948E-009	0.0039898	6
	42	59	63.3446	12564.93	-37040.48	1	39113.61	-71.26196	1.014895E-009	0.0039888	6
	43	61	49.86702	15340.87	-45766.04	1	48268.75	-71.46874	1.141237E-009	0.0039867	6
	44	62	39.72458	18368.93	-55735.91	1	58684.83	-71.75929	7.421634E-010	0.0039929	6
	45	64	31.6723	22625.65	-67475.21	1	71167.58	-71.46278	7.320923E-010	0.0039883	6
	46	65	24.93351	28247.27	-82224.72	1	86941.43	-71.04048	4.893699E-010	0.0039878	6
	47	66	19.86229	35562.78	-98751.2	1	104959.5	-70.19478	6.656103E-010	0.0039881	6
	48	68	15.83615	44974.67	-118114.9	1	126387.7	-69.15465	1.744799E-010	0.003996	5
	49	69	12.40079	57707.28	-141182.7	1	152521.1	-67.76811	6.52019E-010	0.0039929	5
	50	71	9.93114	72044.99	-166821.1	1	181713.4	-66.64194	5.600504E-010	0.0039867	5
	51	72	7.944915	89917.26	-194539.1	1	214314.2	-65.19331	4.488613E-010	0.0039887	5
	52	74	6.317385	112754.6	-225938.2	1	252510.7	-63.47849	5.999773E-010	0.0040074	5
	53	76	5.008013	139748.4	-261553.1	1	296546.2	-61.88431	4.387861E-010	0.0039989	5
	54	78	3.945707	171694.9	-302263.8	1	347624.2	-60.40212	2.197125E-010	0.0039953	5
	55	81	3.158693	205634.6	-343789.4	1	400595.5	-59.11462	-1.496962E-013	0.0039943	5
	56	84	2.504006	244834.9	-392053.1	1	462222.6	-58.01546	5.402497E-010	0.0039903	5
	57	87	1.998082	287078.4	-444620	1	529245.6	-57.15083	4.697431E-011	0.0040357	5
	58	90	1.584686	332444.9	-505299.9	1	604853.4	-56.65844	1.975913E-010	0.0039766	5
	59	94	1.266892	383345.9	-574764.8	1	690875.3	-56.29824	1.725095E-010	0.0040264	5
	60	98	0.999041	440404.9	-660751.4	1	794071.1	-56.3157	-3.360012E-011	0.0039527	5
