EXPLAIN
TAG	EISPOT
TITLE	LABEL	Potentiostatic EIS	Test &Identifier
DATE	LABEL	6/20/2000	Date
TIME	LABEL	9:18:29	Time
NOTES	NOTES	2	&Notes...
	
	
PSTAT	PSTAT	REF600-11020	Potentiostat
VDC	POTEN	0.00000E+000	T	DC &Voltage (V)
FREQINIT	QUANT	1.00000E+006	Initial Fre&q. (Hz)
FREQFINAL	QUANT	1.00000E+000	Final Fre&q. (Hz)
PTSPERDEC	QUANT	1.00000E+001	Points/&decade
VAC	QUANT	2.50000E+001	AC &Voltage (mV rms)
AREA	QUANT	1.00000E-002	&Area (cm^2)
CONDIT	TWOPARAM	T	5.00000E+000	0.00000E+000	Conditionin&g	Time(s)	E(V)
DELAY	TWOPARAM	T	5.00000E+000	0.00000E+000	Init. De&lay	Time(s)	Stab.(mV/s)
SPEED	SELECTOR	0	&Optimize for:
ZGUESS	QUANT	1.00000E+005	E&stimated Z (ohms)
OCVCURVE	TABLE	19
	Pt	T	Vf	Vm	Ach	Over
	#	s	V vs. Ref.	V	V	bits
	0	0.258333	3.42731E-003	3.42731E-003	6.28398E-004	...........
	1	0.516667	3.42434E-003	3.27193E-003	6.22332E-004	...........
	2	0.775	3.40639E-003	3.13924E-003	6.17198E-004	...........
	3	1.03333	3.35671E-003	3.02039E-003	6.17265E-004	...........
	4	1.29167	3.27046E-003	2.91400E-003	6.16465E-004	...........
	5	1.55	3.16030E-003	2.81941E-003	6.19331E-004	...........
	6	1.80833	3.04418E-003	2.73321E-003	6.16632E-004	...........
	7	2.06667	2.93414E-003	2.65266E-003	6.12665E-004	...........
	8	2.325	2.83446E-003	2.57965E-003	6.18832E-004	...........
	9	2.58333	2.74477E-003	2.50831E-003	6.24798E-004	...........
	10	2.84167	2.66312E-003	2.44321E-003	6.24031E-004	...........
	11	3.1	2.58759E-003	2.37715E-003	6.17498E-004	...........
	12	3.35833	2.51671E-003	2.32027E-003	6.18832E-004	...........
	13	3.61667	2.44972E-003	2.26433E-003	6.12332E-004	...........
	14	3.875	2.38652E-003	2.21443E-003	6.19431E-004	...........
	15	4.13333	2.32715E-003	2.15972E-003	6.20498E-004	...........
	16	4.39167	2.27115E-003	2.11227E-003	6.21465E-004	...........
	17	4.65	2.21772E-003	2.06212E-003	6.17832E-004	...........
	18	4.90833	2.16624E-003	2.02021E-003	6.14898E-004	...........
EOC	QUANT	0.0021662	Open Circuit (V)
PSTATMODEL	IQUANT	4	Pstat Model
PSTATSECTION	LABEL	REF600-11020	Pstat Section
PSTATSERIALNO	LABEL	11020	Pstat Serial Number
CTRLMODE	IQUANT	1	Control Mode
IESTAB	IQUANT	0	I/E Stability
CASPEED	IQUANT	1	Control Amp Speed
CONVENTION	IQUANT	1	Current Convention
ICHRANGE	IQUANT	2	Ich Range
ICHRANGEMODE	TOGGLE	F	Ich Auto Range
ICHOFFSETENABLE	TOGGLE	T	Ich Offset Enable
ICHOFFSET	QUANT	0	Ich Offset (V)
ICHFILTER	IQUANT	3	Ich Filter
VCHRANGE	IQUANT	2	Vch Range
VCHRANGEMODE	TOGGLE	F	Vch Auto Range
VCHOFFSETENABLE	TOGGLE	T	Vch Offset Enable
VCHOFFSET	QUANT	0	Vch Offset (V)
VCHFILTER	IQUANT	3	Vch Filter
ACHRANGE	IQUANT	2	Ach Range
ACHOFFSETENABLE	TOGGLE	F	Ach Offset Enable
ACHOFFSET	QUANT	0	Ach Offset (V)
ACHFILTER	IQUANT	3	Ach Filter
IERANGELOWERLIMIT	IQUANT	1	I/E Range Lower Limit
IERANGEMODE	TOGGLE	F	I/E AutoRange
IERANGE	IQUANT	4	I/E Range
POSFEEDENABLE	TOGGLE	F	Positive Feedback IR Comp
POSFEEDRESISTANCE	QUANT	0	Positive Feedback Resistance (ohm)
ACHSELECT	IQUANT	0	Ach Select
CABLEID	IQUANT	14	Cable ID
DCCALDATE	LABEL	8/19/2019	DC Calibration Date
ACCALDATE	LABEL	8/19/2019	AC Calibration Date
THERMOSELECT	IQUANT	1	Thermo Select
FRAMEWORKVERSION	QUANT	6.33	Framework Version
INSTRUMENTVERSION	LABEL	3.50	Instrument Version
ZCURVE	TABLE
	Pt	Time	Freq	Zreal	Zimag	Zsig	Zmod	Zphz	Idc	Vdc	IERange
	#	s	Hz	ohm	ohm	V	ohm	°	A	V	#
	0	1	1000078	2055.071	-833.1697	1	2217.541	-22.06869	9.459931E-006	0.0028767	8
	1	2	794390.6	2198.153	-756.2296	1	2324.599	-18.98473	-8.237697E-007	0.0046276	8
	2	2	630984.4	2302.754	-663.4028	1	2396.409	-16.07122	-1.593115E-006	0.0045719	8
	3	2	501234.4	2386.75	-571.3838	1	2454.191	-13.46313	1.063065E-006	0.0043816	8
	4	2	398109.4	2448.334	-495.4742	1	2497.966	-11.44055	-1.658011E-006	0.0043421	8
	5	3	316265.6	2492.68	-418.0681	1	2527.495	-9.52094	2.809214E-006	0.003228	8
	6	3	251203.1	2535.707	-384.9492	1	2564.76	-8.632241	6.225061E-006	0.0030702	8
	7	3	199546.9	2557.133	-342.0096	1	2579.903	-7.617946	-1.623079E-006	0.0042685	8
	8	4	158578.1	2587.256	-309.8075	1	2605.739	-6.828293	-4.657501E-006	0.0041959	8
	9	4	125953.1	2622.721	-256.5466	1	2635.239	-5.586726	1.161819E-006	0.0052483	7
	10	4	100078.1	2642.687	-240.9232	1	2653.646	-5.209028	-6.064929E-007	0.0053282	7
	11	5	79453.13	2658.05	-247.6735	1	2669.563	-5.323372	3.714559E-007	0.0042815	7
	12	5	63140.62	2679.623	-258.1275	1	2692.027	-5.502313	3.732671E-007	0.004279	7
	13	5	50203.12	2704.26	-273.7065	1	2718.077	-5.779401	1.037267E-006	0.0023947	7
	14	6	39890.62	2728.676	-293.2261	1	2744.386	-6.133522	-2.898747E-007	0.0050914	7
	15	6	31640.63	2757.008	-320.4801	1	2775.572	-6.63042	-1.173136E-006	0.0048111	7
	16	6	25171.88	2790.075	-355.8491	1	2812.676	-7.268323	7.519376E-007	0.0020894	7
	17	7	20015.62	2825.516	-397.8729	1	2853.392	-8.01536	1.297794E-007	0.0024451	7
	18	7	15890.62	2864.927	-449.0187	1	2899.901	-8.907477	7.861704E-007	0.0035783	7
	19	7	12609.37	2908.345	-506.3932	1	2952.102	-9.87717	-1.171285E-006	0.004804	7
	20	8	10078.13	2955.906	-578.423	1	3011.968	-11.07195	4.774658E-007	0.0021748	7
	21	8	8015.625	3014.625	-655.4409	1	3085.055	-12.26637	1.050575E-006	0.0027006	7
	22	8	6328.125	3076.856	-754.3229	1	3167.972	-13.77496	-1.061764E-006	0.0053257	7
	23	8	5015.625	3147.585	-868.0333	1	3265.084	-15.41766	-1.172901E-006	0.0048035	7
	24	9	3984.375	3224.17	-1000.845	1	3375.939	-17.24536	-1.17232E-006	0.0047984	7
	25	9	3170.956	3306.747	-1155.802	1	3502.921	-19.26596	6.22624E-008	0.0046962	7
	26	9	2527.573	3397.634	-1341.308	1	3652.81	-21.54297	9.633179E-007	0.0031105	7
	27	10	1976.103	3500.918	-1579.654	1	3840.799	-24.28543	-1.172609E-006	0.004801	7
	28	10	1577.524	3615.023	-1847.111	1	4059.582	-27.06495	-6.801529E-007	0.0035749	7
	29	10	1265.625	3715.5	-2164.147	1	4299.822	-30.21928	-2.900372E-007	0.0050743	7
	30	11	998.264	3839.922	-2585.052	1	4628.984	-33.94861	-2.705637E-007	0.0029136	7
	31	11	796.875	3969.303	-3080.603	1	5024.488	-37.81528	9.397929E-007	0.0021648	7
	32	11	627.7902	4126.442	-3726.445	1	5560.029	-42.08408	1.336216E-007	0.0024308	7
	33	12	505.5147	4288.317	-4443.979	1	6175.646	-46.02124	-6.808248E-007	0.0035724	7
	34	12	397.9953	4489.598	-5435.583	1	7049.968	-50.4445	-1.554747E-010	0.0037953	7
	35	12	315.5048	4729.299	-6632.36	1	8145.825	-54.50869	3.51652E-009	0.0037866	7
	36	13	252.4038	5012.764	-8050.603	1	9483.671	-58.09126	5.172003E-010	0.0037889	7
	37	13	198.6229	5401.899	-9933.96	1	11307.7	-61.46348	7.427469E-010	0.0037287	6
	38	13	158.3615	5871.986	-12128.16	1	13474.88	-64.16552	7.642789E-010	0.0037299	6
	39	14	125.558	6497.14	-14889.38	1	16245.2	-66.42544	1.13777E-009	0.0037279	6
	40	14	100.4464	7266.428	-18124.59	1	19526.95	-68.15339	-1.856201E-010	0.0037248	6
	41	14	79.00281	8386.508	-22336.43	1	23858.96	-69.42069	-2.533107E-010	0.003729	6
	42	15	63.3446	9902.34	-27265.73	1	29008.22	-70.04004	7.532991E-010	0.0037296	6
	43	15	49.86702	11809.01	-33460.68	1	35483.37	-70.56095	-8.933919E-010	0.0037271	6
	44	15	39.72458	14223.8	-40337.09	1	42771.46	-70.57616	3.96026E-010	0.0037263	6
	45	16	31.6723	17358.53	-48606.51	1	51613.09	-70.34716	-3.437135E-010	0.0037328	6
	46	16	24.93351	21962.17	-59137.74	1	63084.14	-69.62635	-7.747074E-010	0.0037258	6
	47	16	19.86229	27626.86	-70647.38	1	75857.07	-68.64187	-3.374077E-010	0.0037321	6
	48	17	15.83615	34719.36	-83157.18	1	90114.1	-67.33874	-1.41309E-009	0.0037246	6
	49	17	12.40079	44144.24	-99109.2	1	108495.9	-65.99133	2.346517E-009	0.003722	5
	50	17	9.93114	55224.56	-116249.7	1	128700.3	-64.5899	-2.214345E-010	0.0037185	5
	51	18	7.944915	68245.62	-134629.6	1	150939.1	-63.11892	-7.715744E-010	0.0037373	5
	52	19	6.317385	83403.27	-155358.3	1	176330.1	-61.77111	-6.752422E-010	0.0037477	5
	53	19	5.008013	101501.8	-178920.8	1	205706.8	-60.43374	-4.425084E-010	0.0037307	5
	54	20	3.945707	122036.8	-205280.7	1	238816.1	-59.26905	8.268295E-011	0.0037311	5
	55	22	3.158693	143559.9	-233213.9	1	273857.9	-58.38471	1.815691E-010	0.0037522	5
	56	23	2.504006	168193.3	-266606.8	1	315227.2	-57.75355	-1.229145E-010	0.0037385	5
	57	25	1.998082	193258.9	-303869.4	1	360118.9	-57.54392	1.989286E-011	0.0037254	5
	58	26	1.584686	222991.7	-349171.8	1	414302.1	-57.43647	1.84182E-010	0.0037758	5
	59	28	1.266892	253742	-402248.7	1	475593.3	-57.75591	1.6691E-010	0.0037648	5
	60	31	0.999041	290232.7	-468578.9	1	551181.7	-58.22637	1.655356E-010	0.0037473	5
