EXPLAIN
TAG	EISPOT
TITLE	LABEL	Potentiostatic EIS	Test &Identifier
DATE	LABEL	10/22/2019	Date
TIME	LABEL	9:53:54	Time
NOTES	NOTES	1	&Notes...
	
PSTAT	PSTAT	REF600-11020	Potentiostat
VDC	POTEN	0.00000E+000	T	DC &Voltage (V)
FREQINIT	QUANT	1.00000E+006	Initial Fre&q. (Hz)
FREQFINAL	QUANT	1.00000E+000	Final Fre&q. (Hz)
PTSPERDEC	QUANT	1.00000E+001	Points/&decade
VAC	QUANT	2.50000E+001	AC &Voltage (mV rms)
AREA	QUANT	1.00000E-002	&Area (cm^2)
CONDIT	TWOPARAM	T	5.00000E+000	0.00000E+000	Conditionin&g	Time(s)	E(V)
DELAY	TWOPARAM	T	5.00000E+000	0.00000E+000	Init. De&lay	Time(s)	Stab.(mV/s)
SPEED	SELECTOR	1	&Optimize for:
ZGUESS	QUANT	1.00000E+005	E&stimated Z (ohms)
OCVCURVE	TABLE	19
	Pt	T	Vf	Vm	Ach	Over
	#	s	V vs. Ref.	V	V	bits
	0	0.258333	1.05878E-002	1.05878E-002	5.43933E-004	...........
	1	0.516667	1.05925E-002	1.08340E-002	5.45333E-004	...........
	2	0.775	1.06226E-002	1.11297E-002	5.45699E-004	...........
	3	1.03333	1.07111E-002	1.13850E-002	5.43999E-004	...........
	4	1.29167	1.08753E-002	1.16616E-002	5.45366E-004	...........
	5	1.55	1.11006E-002	1.18952E-002	5.44566E-004	...........
	6	1.80833	1.13564E-002	1.21332E-002	5.42599E-004	...........
	7	2.06667	1.16169E-002	1.23774E-002	5.43166E-004	...........
	8	2.325	1.18700E-002	1.25937E-002	5.47366E-004	...........
	9	2.58333	1.21135E-002	1.28201E-002	5.46766E-004	...........
	10	2.84167	1.23480E-002	1.30137E-002	5.42233E-004	...........
	11	3.1	1.25740E-002	1.32416E-002	5.39266E-004	...........
	12	3.35833	1.27923E-002	1.34224E-002	5.32833E-004	...........
	13	3.61667	1.30040E-002	1.36190E-002	5.36866E-004	...........
	14	3.875	1.32092E-002	1.38072E-002	5.27933E-004	...........
	15	4.13333	1.34076E-002	1.39782E-002	5.39599E-004	...........
	16	4.39167	1.36000E-002	1.41870E-002	5.36399E-004	...........
	17	4.65	1.37884E-002	1.43534E-002	5.39766E-004	...........
	18	4.90833	1.39749E-002	1.45462E-002	5.30766E-004	...........
EOC	QUANT	0.0139749	Open Circuit (V)
PSTATMODEL	IQUANT	4	Pstat Model
PSTATSECTION	LABEL	REF600-11020	Pstat Section
PSTATSERIALNO	LABEL	11020	Pstat Serial Number
CTRLMODE	IQUANT	1	Control Mode
IESTAB	IQUANT	0	I/E Stability
CASPEED	IQUANT	1	Control Amp Speed
CONVENTION	IQUANT	1	Current Convention
ICHRANGE	IQUANT	2	Ich Range
ICHRANGEMODE	TOGGLE	F	Ich Auto Range
ICHOFFSETENABLE	TOGGLE	T	Ich Offset Enable
ICHOFFSET	QUANT	0	Ich Offset (V)
ICHFILTER	IQUANT	3	Ich Filter
VCHRANGE	IQUANT	2	Vch Range
VCHRANGEMODE	TOGGLE	F	Vch Auto Range
VCHOFFSETENABLE	TOGGLE	T	Vch Offset Enable
VCHOFFSET	QUANT	0	Vch Offset (V)
VCHFILTER	IQUANT	3	Vch Filter
ACHRANGE	IQUANT	2	Ach Range
ACHOFFSETENABLE	TOGGLE	F	Ach Offset Enable
ACHOFFSET	QUANT	0	Ach Offset (V)
ACHFILTER	IQUANT	3	Ach Filter
IERANGELOWERLIMIT	IQUANT	1	I/E Range Lower Limit
IERANGEMODE	TOGGLE	F	I/E AutoRange
IERANGE	IQUANT	5	I/E Range
POSFEEDENABLE	TOGGLE	F	Positive Feedback IR Comp
POSFEEDRESISTANCE	QUANT	0	Positive Feedback Resistance (ohm)
ACHSELECT	IQUANT	0	Ach Select
CABLEID	IQUANT	14	Cable ID
DCCALDATE	LABEL	8/19/2019	DC Calibration Date
ACCALDATE	LABEL	8/19/2019	AC Calibration Date
THERMOSELECT	IQUANT	1	Thermo Select
FRAMEWORKVERSION	QUANT	6.33	Framework Version
INSTRUMENTVERSION	LABEL	3.50	Instrument Version
ZCURVE	TABLE
	Pt	Time	Freq	Zreal	Zimag	Zsig	Zmod	Zphz	Idc	Vdc	IERange
	#	s	Hz	ohm	ohm	V	ohm	°	A	V	#
	0	2	1000078	2343.531	-1832.352	1	2974.836	-38.02103	-1.675265E-006	0.015877	8
	1	4	794390.6	2699.266	-1823.14	1	3257.28	-34.03591	5.531703E-006	0.0149606	8
	2	5	630984.4	3059.286	-1756.786	1	3527.823	-29.86647	1.216393E-008	0.0154753	8
	3	6	501234.4	3370.305	-1623.139	1	3740.793	-25.71547	1.549699E-006	0.0155008	8
	4	8	398109.4	3663.822	-1474.609	1	3949.438	-21.92372	-2.371058E-006	0.0160333	8
	5	9	316265.6	3891.193	-1317.39	1	4108.15	-18.70388	-1.431211E-007	0.0155359	8
	6	10	251203.1	4059.057	-1164.366	1	4222.759	-16.00588	3.77756E-006	0.0148348	8
	7	12	199546.9	4224.864	-1007.67	1	4343.372	-13.41495	1.322452E-006	0.0150857	8
	8	13	158578.1	4324.48	-863.8218	1	4409.911	-11.29625	-2.658892E-007	0.0155239	8
	9	15	125953.1	4435.181	-682.6935	1	4487.416	-8.750679	6.447646E-007	0.0141276	7
	10	16	100078.1	4480.712	-602.8715	1	4521.088	-7.663019	6.329063E-008	0.0154197	7
	11	17	79453.13	4527.672	-533.9114	1	4559.043	-6.725365	3.754341E-008	0.015474	7
	12	19	63140.62	4571.097	-487.1748	1	4596.985	-6.08346	7.24238E-009	0.0154457	7
	13	20	50203.12	4607.734	-452.5349	1	4629.903	-5.609146	-2.010666E-008	0.0155699	7
	14	21	39890.62	4641.054	-429.6051	1	4660.895	-5.288586	8.117436E-008	0.0153373	7
	15	23	31640.63	4673.958	-420.3232	1	4692.819	-5.138715	-5.596468E-008	0.0156847	7
	16	24	25171.88	4705.851	-422.6006	1	4724.788	-5.13158	-1.06632E-008	0.0156494	7
	17	26	20015.62	4735.417	-416.7098	1	4753.716	-5.028992	-1.200713E-008	0.0154735	7
	18	27	15890.62	4773.5	-460.3373	1	4795.645	-5.508343	-5.266578E-008	0.015677	7
	19	28	12609.37	4806.544	-500.0162	1	4832.482	-5.939015	8.214166E-008	0.0153371	7
	20	30	10078.13	4842.2	-550.2305	1	4873.362	-6.482845	4.198618E-008	0.0154595	7
	21	31	8015.625	4882.482	-616.5588	1	4921.258	-7.197203	1.353708E-007	0.015304	7
	22	32	6328.125	4922.894	-711.0361	1	4973.978	-8.218656	-3.338767E-009	0.0155159	7
	23	34	5015.625	4967.415	-825.4695	1	5035.535	-9.435016	4.238621E-008	0.0153743	7
	24	35	3984.375	5017.717	-950.156	1	5106.886	-10.72259	9.096316E-008	0.0154511	7
	25	36	3170.956	5069.793	-1144.496	1	5197.372	-12.72118	-4.087668E-008	0.015596	7
	26	38	2527.573	5128.558	-1356.926	1	5305.031	-14.81986	8.82541E-009	0.0154366	7
	27	39	1976.103	5205.632	-1646.728	1	5459.883	-17.55403	-4.775417E-008	0.0155387	7
	28	41	1577.524	5266.809	-1949.473	1	5616.024	-20.31168	-5.585527E-008	0.0156729	7
	29	42	1265.625	5372.275	-2362.955	1	5868.978	-23.74194	-1.72594E-008	0.0154756	7
	30	43	998.264	5484.228	-2878.182	1	6193.601	-27.69097	-1.184615E-008	0.0154708	7
	31	45	796.875	5600.363	-3482.637	1	6594.909	-31.87579	-4.928269E-008	0.0155374	7
	32	46	627.7902	5753.933	-4278.423	1	7170.261	-36.63321	4.200164E-008	0.0154562	7
	33	47	505.5147	5910.851	-5162.271	1	7847.751	-41.1325	-1.462572E-009	0.0155129	7
	34	49	397.9953	6127.795	-6362.818	1	8833.761	-46.07795	5.542968E-009	0.0155276	7
	35	50	315.5048	6388.462	-7812.596	1	10092.03	-50.72668	6.793673E-010	0.0154675	6
	36	51	252.4038	6694.867	-9528.95	1	11645.69	-54.90882	1.006458E-009	0.0154622	6
	37	53	198.6229	7109.82	-11805.76	1	13781.35	-58.94226	1.008265E-009	0.015464	6
	38	54	158.3615	7614.659	-14457.68	1	16340.36	-62.22484	5.805487E-010	0.0154643	6
	39	56	125.558	8279.334	-17802.15	1	19633.23	-65.05804	1.126821E-009	0.0154616	6
	40	57	100.4464	9123.828	-21740.93	1	23577.79	-67.23409	2.601839E-010	0.0154583	6
	41	58	79.00281	10246.88	-26916.35	1	28800.84	-69.15849	1.889064E-010	0.0154598	6
	42	60	63.3446	11883.03	-32906.62	1	34986.46	-70.14465	7.561163E-010	0.0154632	6
	43	61	49.86702	13520.39	-40346.48	1	42551.61	-71.47363	1.064278E-009	0.0154579	6
	44	63	39.72458	16210.76	-49123.42	1	51729.09	-71.73708	9.382826E-010	0.0154631	6
	45	64	31.6723	19730.15	-59670.86	1	62848.15	-71.70355	1.045077E-009	0.0154598	6
	46	65	24.93351	24202.99	-73123.37	1	77024.74	-71.68606	9.154855E-010	0.0154596	6
	47	67	19.86229	30004.96	-88256.59	1	93217.61	-71.22329	2.951714E-010	0.0154616	6
	48	68	15.83615	37332.5	-105545	1	111953	-70.52072	3.389405E-010	0.0154612	5
	49	69	12.40079	48106.84	-129544.4	1	138188.3	-69.62732	1.207328E-009	0.0154666	5
	50	71	9.93114	60798.66	-152667.9	1	164328.8	-68.28551	-3.076768E-010	0.0154695	5
	51	72	7.944915	76560.18	-179373.9	1	195029.3	-66.88628	1.203739E-009	0.0154678	5
	52	74	6.317385	97159.2	-211803.4	1	233024.9	-65.35796	-6.028178E-011	0.0154792	5
	53	76	5.008013	122883.6	-247356.5	1	276198.5	-63.5824	6.33007E-011	0.0154647	5
	54	79	3.945707	154647.2	-287379.4	1	326347.5	-61.71402	4.538349E-010	0.0154749	5
	55	81	3.158693	189850.7	-327906.9	1	378901.4	-59.93013	-1.760868E-010	0.0154579	5
	56	85	2.504006	231639.3	-372415.5	1	438577.3	-58.11874	4.601998E-010	0.0154654	5
	57	87	1.998082	276615.8	-419273.5	1	502301.3	-56.58516	2.120659E-010	0.0155015	5
	58	91	1.584686	325793.4	-470388.5	1	572194.7	-55.29333	1.136032E-010	0.0154322	5
	59	94	1.266892	376921.6	-527876.3	1	648631.8	-54.47188	1.64383E-010	0.0154903	5
	60	98	0.999041	435035.2	-596748.4	1	738487.8	-53.9076	-2.336422E-010	0.0154362	5
