EXPLAIN
TAG	EISPOT
TITLE	LABEL	Potentiostatic IDE	Test &Identifier
DATE	LABEL	9/8/2019	Date
TIME	LABEL	7:31:54	Time
NOTES	NOTES	1	&Notes...
	
PSTAT	PSTAT	REF600-11020	Potentiostat
VDC	POTEN	0.00000E+000	T	DC &Voltage (V)
FREQINIT	QUANT	1.00000E+006	Initial Fre&q. (Hz)
FREQFINAL	QUANT	1.00000E+000	Final Fre&q. (Hz)
PTSPERDEC	QUANT	1.00000E+001	Points/&decade
VAC	QUANT	2.50000E+001	AC &Voltage (mV rms)
AREA	QUANT	1.00000E-002	&Area (cm^2)
CONDIT	TWOPARAM	T	5.00000E+000	0.00000E+000	Conditionin&g	Time(s)	E(V)
DELAY	TWOPARAM	T	5.00000E+000	0.00000E+000	Init. De&lay	Time(s)	Stab.(mV/s)
SPEED	SELECTOR	1	&Optimize for:
ZGUESS	QUANT	1.00000E+007	E&stimated Z (ohms)
OCVCURVE	TABLE	19
	Pt	T	Vf	Vm	Ach	Over
	#	s	V vs. Ref.	V	V	bits
	0	0.258333	7.55792E-002	7.55792E-002	5.78932E-004	...........
	1	0.516667	7.56653E-002	8.00856E-002	5.79365E-004	...........
	2	0.775	7.61919E-002	8.42487E-002	5.78066E-004	...........
	3	1.03333	7.76716E-002	8.80892E-002	5.71866E-004	...........
	4	1.29167	8.02882E-002	9.15297E-002	5.70866E-004	...........
	5	1.55	8.36990E-002	9.46030E-002	5.74232E-004	...........
	6	1.80833	8.73612E-002	9.73123E-002	5.74432E-004	...........
	7	2.06667	9.08742E-002	9.98025E-002	5.70466E-004	...........
	8	2.325	9.40619E-002	1.02056E-001	5.70132E-004	...........
	9	2.58333	9.69051E-002	1.04130E-001	5.72466E-004	...........
	10	2.84167	9.94534E-002	1.06212E-001	5.70099E-004	...........
	11	3.1	1.01774E-001	1.08063E-001	5.71866E-004	...........
	12	3.35833	1.03927E-001	1.09883E-001	5.73032E-004	...........
	13	3.61667	1.05948E-001	1.11525E-001	5.65532E-004	...........
	14	3.875	1.07855E-001	1.13230E-001	5.66499E-004	...........
	15	4.13333	1.09662E-001	1.14814E-001	5.73166E-004	...........
	16	4.39167	1.11386E-001	1.16280E-001	5.75465E-004	...........
	17	4.65	1.13036E-001	1.17616E-001	5.72666E-004	...........
	18	4.90833	1.14603E-001	1.18860E-001	5.72099E-004	...........
EOC	QUANT	0.1146027	Open Circuit (V)
PSTATMODEL	IQUANT	4	Pstat Model
PSTATSECTION	LABEL	REF600-11020	Pstat Section
PSTATSERIALNO	LABEL	11020	Pstat Serial Number
CTRLMODE	IQUANT	1	Control Mode
IESTAB	IQUANT	0	I/E Stability
CASPEED	IQUANT	1	Control Amp Speed
CONVENTION	IQUANT	1	Current Convention
ICHRANGE	IQUANT	2	Ich Range
ICHRANGEMODE	TOGGLE	F	Ich Auto Range
ICHOFFSETENABLE	TOGGLE	T	Ich Offset Enable
ICHOFFSET	QUANT	0	Ich Offset (V)
ICHFILTER	IQUANT	3	Ich Filter
VCHRANGE	IQUANT	2	Vch Range
VCHRANGEMODE	TOGGLE	F	Vch Auto Range
VCHOFFSETENABLE	TOGGLE	T	Vch Offset Enable
VCHOFFSET	QUANT	0	Vch Offset (V)
VCHFILTER	IQUANT	3	Vch Filter
ACHRANGE	IQUANT	2	Ach Range
ACHOFFSETENABLE	TOGGLE	F	Ach Offset Enable
ACHOFFSET	QUANT	0	Ach Offset (V)
ACHFILTER	IQUANT	3	Ach Filter
IERANGELOWERLIMIT	IQUANT	1	I/E Range Lower Limit
IERANGEMODE	TOGGLE	F	I/E AutoRange
IERANGE	IQUANT	4	I/E Range
POSFEEDENABLE	TOGGLE	F	Positive Feedback IR Comp
POSFEEDRESISTANCE	QUANT	0	Positive Feedback Resistance (ohm)
ACHSELECT	IQUANT	0	Ach Select
CABLEID	IQUANT	14	Cable ID
DCCALDATE	LABEL	8/19/2019	DC Calibration Date
ACCALDATE	LABEL	8/19/2019	AC Calibration Date
THERMOSELECT	IQUANT	1	Thermo Select
FRAMEWORKVERSION	QUANT	6.33	Framework Version
INSTRUMENTVERSION	LABEL	3.50	Instrument Version
ZCURVE	TABLE
	Pt	Time	Freq	Zreal	Zimag	Zsig	Zmod	Zphz	Idc	Vdc	IERange
	#	s	Hz	ohm	ohm	V	ohm	°	A	V	#
	0	2	1000078	1535.184	-1281.036	1	1999.46	-39.84334	2.967022E-006	0.1159781	8
	1	3	794390.6	1602.296	-1469.711	1	2174.259	-42.52871	9.100142E-007	0.1160136	8
	2	5	630984.4	1678.842	-1704.56	1	2392.495	-45.43551	1.399261E-006	0.1159673	8
	3	6	501234.4	1762.113	-2016.026	1	2677.574	-48.84483	9.185343E-007	0.1159863	8
	4	7	398109.4	1855.389	-2406.541	1	3038.735	-52.36858	-5.830866E-008	0.1161399	8
	5	9	316265.6	1994.82	-2904.699	1	3523.717	-55.52042	-1.348681E-006	0.1162422	8
	6	10	251203.1	2184.071	-3549.543	1	4167.664	-58.39559	2.664283E-008	0.1161043	8
	7	11	199546.9	2443.041	-4316.339	1	4959.762	-60.49021	1.93665E-006	0.1156615	8
	8	13	158578.1	2788.489	-5268.204	1	5960.675	-62.10749	1.915609E-006	0.1157608	8
	9	14	125953.1	3417.092	-6380.283	1	7237.716	-61.8278	-1.088542E-006	0.1186047	7
	10	16	100078.1	4164.338	-7676.964	1	8733.699	-61.52256	3.190528E-008	0.115951	7
	11	17	79453.13	5204.358	-9166.988	1	10541.3	-60.4152	1.447757E-008	0.1160574	7
	12	18	63140.62	6593.729	-10739.02	1	12601.74	-58.45018	4.702337E-009	0.116004	7
	13	20	50203.12	8379.624	-12352.7	1	14926.73	-55.84846	-5.862832E-008	0.1161537	7
	14	21	39890.62	10646.78	-13922.54	1	17526.87	-52.59432	-7.154584E-009	0.1161106	7
	15	22	31640.63	13277.05	-15165.72	1	20156.37	-48.79899	-4.40046E-008	0.1160912	7
	16	24	25171.88	16190.12	-16166.62	1	22879.67	-44.95839	-5.3201E-008	0.1161709	7
	17	25	20015.62	19265.19	-16696.89	1	25493.8	-40.91504	-3.958429E-008	0.1160874	7
	18	26	15890.62	22306.55	-16962.67	1	28023.46	-37.25061	-1.896086E-008	0.1161172	7
	19	28	12609.37	25617.89	-16659.71	1	30558.51	-33.03657	-1.174909E-008	0.1161056	6
	20	29	10078.13	28248.61	-16286.06	1	32607.05	-29.96457	-4.773983E-009	0.1160169	6
	21	30	8015.625	30771.37	-15882.8	1	34628.61	-27.30076	-1.37309E-008	0.1160689	6
	22	32	6328.125	33154.27	-15426.09	1	36567.34	-24.95172	-1.424612E-008	0.1160283	6
	23	33	5015.625	35339.45	-15019.9	1	38398.89	-23.02636	-1.139998E-008	0.1159738	6
	24	34	3984.375	37359.97	-14727.57	1	40158.05	-21.51472	4.300765E-009	0.1157356	6
	25	36	3170.956	39253.53	-14560.5	1	41867.02	-20.35157	-1.371684E-008	0.1160267	6
	26	37	2527.573	41124.51	-14506.62	1	43608.11	-19.43023	-7.113188E-009	0.1160353	6
	27	38	1976.103	43180.12	-14564.98	1	45570.4	-18.63964	-1.412737E-008	0.1160618	6
	28	40	1577.524	45036.07	-14738.53	1	47386.41	-18.12123	-1.137584E-008	0.116099	6
	29	41	1265.625	46880.43	-15013.18	1	49225.71	-17.75736	-6.711423E-009	0.1160055	6
	30	43	998.264	48894.51	-15360.5	1	51250.54	-17.44042	-1.237411E-008	0.1159185	6
	31	44	796.875	50961.45	-15873.26	1	53376.3	-17.30055	4.223868E-009	0.1157276	6
	32	45	627.7902	53166.09	-16437.04	1	55648.98	-17.17973	-1.359927E-008	0.1160618	6
	33	47	505.5147	55436.23	-17091.35	1	58011.12	-17.13487	-1.279096E-008	0.1160112	6
	34	48	397.9953	57554.41	-17838.93	1	60255.6	-17.22076	-9.550962E-009	0.1160169	6
	35	49	315.5048	59827.23	-18683.72	1	62676.78	-17.3433	-9.874904E-009	0.1160162	6
	36	51	252.4038	62069.23	-19707.95	1	65122.9	-17.61545	-9.120323E-009	0.116015	6
	37	52	198.6229	64546.84	-21048.4	1	67892.04	-18.06088	-9.485331E-009	0.1160092	6
	38	53	158.3615	67017.38	-22631.29	1	70735.46	-18.65946	-9.568484E-009	0.1160046	6
	39	55	125.558	69696.31	-24519.74	1	73883.65	-19.38229	-9.600904E-009	0.1160076	6
	40	56	100.4464	72507.2	-26879.09	1	77329.04	-20.34021	-9.636571E-009	0.1160069	6
	41	58	79.00281	75564.9	-29381.52	1	81076.06	-21.24732	-9.260547E-009	0.1160025	6
	42	59	63.3446	78547.55	-31668.44	1	84691.25	-21.95808	-9.267497E-009	0.1160103	6
	43	61	49.86702	82727.57	-36734.61	1	90516.75	-23.94329	-9.257254E-009	0.1160042	6
	44	62	39.72458	87525.69	-40244.46	1	96334.6	-24.69305	-1.032878E-008	0.1160162	5
	45	64	31.6723	91984.93	-44776.79	1	102304.4	-25.95608	-9.319454E-009	0.116019	5
	46	66	24.93351	97760	-50096.31	1	109848.3	-27.1325	-1.01997E-008	0.116009	5
	47	67	19.86229	103591.2	-55872.44	1	117698.2	-28.34043	-1.037943E-008	0.1160109	5
	48	68	15.83615	110200	-63327.89	1	127100.2	-29.88439	-1.050033E-008	0.1160126	5
	49	70	12.40079	117635.9	-71077.34	1	137441.6	-31.14099	-1.040381E-008	0.1160157	5
	50	71	9.93114	126011.2	-79070.19	1	148764.6	-32.10767	-1.09665E-008	0.1160203	5
	51	73	7.944915	135342.1	-88827.17	1	161888.1	-33.27753	-1.001106E-008	0.1160165	5
	52	75	6.317385	145739.5	-99888.9	1	176685.6	-34.4265	-1.073709E-008	0.1160337	5
	53	77	5.008013	157898.2	-112531.9	1	193895	-35.47695	-8.910776E-009	0.1160275	5
	54	80	3.945707	172141.9	-127334.4	1	214118.9	-36.49056	-8.986306E-009	0.1160157	5
	55	82	3.158693	187052.9	-142823.8	1	235345.3	-37.36346	-8.861472E-009	0.116027	5
	56	86	2.504006	205179.9	-161180.2	1	260917.3	-38.15159	-1.027464E-008	0.1160149	5
	57	88	1.998082	224053.3	-180160	1	287502.2	-38.80257	-9.237475E-009	0.1160475	5
	58	92	1.584686	246521.1	-203091.4	1	319403.8	-39.48272	-8.41182E-009	0.1160109	5
	59	95	1.266892	271478.7	-226829.8	1	353768.9	-39.87991	-9.048639E-009	0.1160607	5
	60	100	0.999041	300335.7	-255507.2	1	394316.4	-40.38909	-8.982123E-009	0.1159808	5
