EXPLAIN
TAG	EISPOT
TITLE	LABEL	Potentiostatic EIS	Test &Identifier
DATE	LABEL	10/8/2019	Date
TIME	LABEL	7:57:35	Time
NOTES	NOTES	2	&Notes...
	
	
PSTAT	PSTAT	REF600-11020	Potentiostat
VDC	POTEN	0.00000E+000	T	DC &Voltage (V)
FREQINIT	QUANT	1.00000E+006	Initial Fre&q. (Hz)
FREQFINAL	QUANT	1.00000E+000	Final Fre&q. (Hz)
PTSPERDEC	QUANT	1.00000E+001	Points/&decade
VAC	QUANT	2.50000E+001	AC &Voltage (mV rms)
AREA	QUANT	1.00000E-002	&Area (cm^2)
CONDIT	TWOPARAM	T	5.00000E+000	0.00000E+000	Conditionin&g	Time(s)	E(V)
DELAY	TWOPARAM	T	5.00000E+000	0.00000E+000	Init. De&lay	Time(s)	Stab.(mV/s)
SPEED	SELECTOR	1	&Optimize for:
ZGUESS	QUANT	1.00000E+004	E&stimated Z (ohms)
OCVCURVE	TABLE	19
	Pt	T	Vf	Vm	Ach	Over
	#	s	V vs. Ref.	V	V	bits
	0	0.258333	7.52605E-003	7.52605E-003	5.62366E-004	...........
	1	0.516667	7.52887E-003	7.67355E-003	5.66899E-004	...........
	2	0.775	7.54647E-003	7.82922E-003	5.69832E-004	...........
	3	1.03333	7.59735E-003	7.98214E-003	5.62866E-004	...........
	4	1.29167	7.69075E-003	8.13526E-003	5.68699E-004	...........
	5	1.55	7.81867E-003	8.28170E-003	5.64666E-004	...........
	6	1.80833	7.96588E-003	8.47303E-003	5.61399E-004	...........
	7	2.06667	8.12184E-003	8.60586E-003	5.63199E-004	...........
	8	2.325	8.28113E-003	8.74585E-003	5.67432E-004	...........
	9	2.58333	8.43845E-003	8.88474E-003	5.61366E-004	...........
	10	2.84167	8.58954E-003	9.02609E-003	5.63332E-004	...........
	11	3.1	8.73433E-003	9.16440E-003	5.62266E-004	...........
	12	3.35833	8.87535E-003	9.30304E-003	5.63932E-004	...........
	13	3.61667	9.01468E-003	9.43631E-003	5.63999E-004	...........
	14	3.875	9.15278E-003	9.56246E-003	5.64366E-004	...........
	15	4.13333	9.28873E-003	9.68516E-003	5.66399E-004	...........
	16	4.39167	9.42146E-003	9.82025E-003	5.68132E-004	...........
	17	4.65	9.55146E-003	9.95483E-003	5.59599E-004	...........
	18	4.90833	9.68064E-003	1.00735E-002	5.66999E-004	...........
EOC	QUANT	0.0096806	Open Circuit (V)
PSTATMODEL	IQUANT	4	Pstat Model
PSTATSECTION	LABEL	REF600-11020	Pstat Section
PSTATSERIALNO	LABEL	11020	Pstat Serial Number
CTRLMODE	IQUANT	1	Control Mode
IESTAB	IQUANT	0	I/E Stability
CASPEED	IQUANT	1	Control Amp Speed
CONVENTION	IQUANT	1	Current Convention
ICHRANGE	IQUANT	2	Ich Range
ICHRANGEMODE	TOGGLE	F	Ich Auto Range
ICHOFFSETENABLE	TOGGLE	T	Ich Offset Enable
ICHOFFSET	QUANT	0	Ich Offset (V)
ICHFILTER	IQUANT	3	Ich Filter
VCHRANGE	IQUANT	2	Vch Range
VCHRANGEMODE	TOGGLE	F	Vch Auto Range
VCHOFFSETENABLE	TOGGLE	T	Vch Offset Enable
VCHOFFSET	QUANT	0	Vch Offset (V)
VCHFILTER	IQUANT	3	Vch Filter
ACHRANGE	IQUANT	2	Ach Range
ACHOFFSETENABLE	TOGGLE	F	Ach Offset Enable
ACHOFFSET	QUANT	0	Ach Offset (V)
ACHFILTER	IQUANT	3	Ach Filter
IERANGELOWERLIMIT	IQUANT	1	I/E Range Lower Limit
IERANGEMODE	TOGGLE	F	I/E AutoRange
IERANGE	IQUANT	6	I/E Range
POSFEEDENABLE	TOGGLE	F	Positive Feedback IR Comp
POSFEEDRESISTANCE	QUANT	0	Positive Feedback Resistance (ohm)
ACHSELECT	IQUANT	0	Ach Select
CABLEID	IQUANT	14	Cable ID
DCCALDATE	LABEL	8/19/2019	DC Calibration Date
ACCALDATE	LABEL	8/19/2019	AC Calibration Date
THERMOSELECT	IQUANT	1	Thermo Select
FRAMEWORKVERSION	QUANT	6.33	Framework Version
INSTRUMENTVERSION	LABEL	3.50	Instrument Version
ZCURVE	TABLE
	Pt	Time	Freq	Zreal	Zimag	Zsig	Zmod	Zphz	Idc	Vdc	IERange
	#	s	Hz	ohm	ohm	V	ohm	°	A	V	#
	0	2	1000078	1192.645	-1428.807	1	1861.153	-50.14779	-1.96915E-006	0.0124228	8
	1	3	794390.6	1268.555	-1692.301	1	2114.974	-53.14464	-2.012598E-006	0.0122902	8
	2	4	630984.4	1366.123	-2039.027	1	2454.368	-56.17841	-2.872151E-006	0.0123257	8
	3	6	501234.4	1495.721	-2459.44	1	2878.546	-58.69391	2.096391E-006	0.0109633	8
	4	7	398109.4	1652.496	-2971.24	1	3399.854	-60.91877	2.408662E-006	0.0108625	8
	5	8	316265.6	1881.635	-3612.475	1	4073.147	-62.48628	1.002916E-006	0.0111626	8
	6	10	251203.1	2130.096	-4364.024	1	4856.132	-63.98283	7.598566E-007	0.01115	8
	7	11	199546.9	2558.035	-5280.903	1	5867.834	-64.15475	1.404134E-006	0.0109047	8
	8	13	158578.1	3142.167	-6348.213	1	7083.292	-63.66602	-5.025506E-007	0.0113873	8
	9	14	125953.1	4012.382	-7557.421	1	8556.508	-62.0353	-5.525241E-007	0.0122159	7
	10	16	100078.1	4979.383	-8921.62	1	10217.12	-60.833	-4.647216E-009	0.0113522	7
	11	17	79453.13	6285.284	-10392.85	1	12145.62	-58.8357	-5.737957E-008	0.0113629	7
	12	19	63140.62	7934.464	-11932.72	1	14329.88	-56.37875	-6.092208E-008	0.0113571	7
	13	20	50203.12	9941.37	-13425.53	1	16705.56	-53.48071	-3.412591E-008	0.0114505	7
	14	21	39890.62	12317.34	-14767.86	1	19230.35	-50.16973	-3.683581E-008	0.0112986	7
	15	23	31640.63	14964.51	-15944.8	1	21867.17	-46.81653	-5.768817E-008	0.0113534	7
	16	24	25171.88	17779.16	-16899.89	1	24529.67	-43.54761	-3.242645E-008	0.0114439	7
	17	25	20015.62	20684.99	-17590.8	1	27153.37	-40.3783	-3.816864E-008	0.0112995	7
	18	27	15890.62	23577.01	-18065.06	1	29702.21	-37.45988	-4.380597E-008	0.0113978	7
	19	28	12609.37	26712.49	-18206.83	1	32327.17	-34.27776	1.681705E-008	0.0109181	6
	20	30	10078.13	29336.4	-18516.45	1	34691.25	-32.25917	-9.166149E-010	0.0112152	6
	21	31	8015.625	32023.52	-18820.71	1	37144.65	-30.44341	-4.618963E-009	0.0112436	6
	22	32	6328.125	34710.08	-19298.86	1	39714.43	-29.07413	3.763978E-009	0.0112951	6
	23	34	5015.625	37358.39	-19871.24	1	42314.48	-28.00888	-8.911462E-010	0.0112163	6
	24	35	3984.375	40149.33	-20630.06	1	45139.43	-27.1956	4.219346E-009	0.0113018	6
	25	36	3170.956	42731.3	-21453.02	1	47814.18	-26.6587	1.714493E-009	0.0111427	6
	26	38	2527.573	45558.04	-22489.47	1	50806.61	-26.27299	-1.182395E-008	0.0113283	6
	27	39	1976.103	48733.37	-23878.57	1	54269.03	-26.10411	2.128915E-009	0.0110632	6
	28	40	1577.524	51779.04	-25273.11	1	57617.7	-26.01679	2.50599E-009	0.011066	6
	29	42	1265.625	55212.52	-26953.77	1	61440.44	-26.02081	1.790967E-008	0.0109846	6
	30	43	998.264	59051.5	-28828.63	1	65712.78	-26.02139	-1.129689E-008	0.0113249	6
	31	45	796.875	63067.24	-30838.72	1	70203.3	-26.05778	5.047794E-009	0.0112359	6
	32	46	627.7902	67528.2	-33017	1	75167.68	-26.05569	1.588301E-009	0.0110529	6
	33	48	505.5147	71854.63	-35124.5	1	79980.11	-26.05064	5.450378E-009	0.0110654	6
	34	49	397.9953	76911.68	-37619.12	1	85618.95	-26.06423	1.155756E-010	0.0112388	6
	35	50	315.5048	81888.3	-40255.52	1	91248.02	-26.1783	1.630626E-010	0.0112355	6
	36	52	252.4038	86934.24	-42812.24	1	96904.3	-26.21872	1.680769E-010	0.0112336	5
	37	53	198.6229	92351.91	-46456.26	1	103378.2	-26.704	-1.678155E-010	0.0112381	5
	38	55	158.3615	97735.6	-50599.62	1	110057.1	-27.37149	-4.000385E-010	0.0112322	5
	39	56	125.558	103507.9	-55537.82	1	117466.3	-28.21606	-1.627623E-010	0.0112406	5
	40	57	100.4464	109169.2	-61576.15	1	125337.7	-29.42488	1.405831E-010	0.01124	5
	41	59	79.00281	117185.2	-69251.39	1	136118.1	-30.58125	2.513549E-010	0.0112366	5
	42	60	63.3446	124253.2	-79845.8	1	147696.4	-32.72502	-3.572165E-010	0.011238	5
	43	61	49.86702	131423.5	-85653.3	1	156871.4	-33.0937	3.846404E-010	0.0112329	5
	44	63	39.72458	142076.1	-98147.7	1	172680.6	-34.63714	6.696433E-012	0.0112401	5
	45	64	31.6723	152263.3	-110116.9	1	187909.1	-35.87449	2.190206E-010	0.0112404	5
	46	66	24.93351	165297.9	-126628.2	1	208226.1	-37.45431	1.77835E-010	0.0112389	5
	47	67	19.86229	178788.8	-144398.7	1	229818.2	-38.92606	-3.542936E-010	0.0112375	5
	48	68	15.83615	194607.2	-166476.6	1	256098.5	-40.54531	-8.78649E-010	0.0112384	5
	49	70	12.40079	211253.5	-188618.8	1	283205.1	-41.76024	4.234957E-010	0.0112388	5
	50	71	9.93114	232189.5	-218529.2	1	318852.6	-43.26402	-2.048998E-010	0.0112449	5
	51	73	7.944915	255616.4	-251791.3	1	358801.6	-44.56808	1.681988E-011	0.0112391	5
	52	75	6.317385	285555.6	-288268.3	1	405759.3	-45.27086	1.037323E-010	0.0112574	5
	53	77	5.008013	321491.1	-332075.3	1	462201.9	-45.9278	2.382112E-011	0.0112403	5
	54	79	3.945707	365136.1	-381695	1	528219.1	-46.27016	6.741296E-011	0.0112508	5
	55	82	3.158693	414241.9	-432678.5	1	599005.1	-46.24707	-2.521358E-010	0.0112368	5
	56	85	2.504006	472810.5	-489720.2	1	680717	-46.00646	2.855509E-010	0.0112377	5
	57	88	1.998082	537029.8	-547791.3	1	767122.1	-45.56836	8.34224E-011	0.0112658	5
	58	91	1.584686	608910.9	-610248.6	1	862076.5	-45.06287	-5.001306E-011	0.0111957	5
	59	95	1.266892	686691.8	-680094.8	1	966475	-44.72346	1.120827E-010	0.0112528	5
	60	99	0.999041	781059.9	-760808.9	1	1090360	-44.24752	-4.013896E-010	0.0112077	4
