EXPLAIN
TAG	EISPOT
TITLE	LABEL	Potentiostatic EIS	Test &Identifier
DATE	LABEL	10/6/2019	Date
TIME	LABEL	9:05:46	Time
NOTES	NOTES	2	&Notes...
	
	
PSTAT	PSTAT	REF600-11020	Potentiostat
VDC	POTEN	0.00000E+000	T	DC &Voltage (V)
FREQINIT	QUANT	1.00000E+006	Initial Fre&q. (Hz)
FREQFINAL	QUANT	1.00000E+000	Final Fre&q. (Hz)
PTSPERDEC	QUANT	1.00000E+001	Points/&decade
VAC	QUANT	2.50000E+001	AC &Voltage (mV rms)
AREA	QUANT	1.00000E-002	&Area (cm^2)
CONDIT	TWOPARAM	T	5.00000E+000	0.00000E+000	Conditionin&g	Time(s)	E(V)
DELAY	TWOPARAM	T	5.00000E+000	0.00000E+000	Init. De&lay	Time(s)	Stab.(mV/s)
SPEED	SELECTOR	1	&Optimize for:
ZGUESS	QUANT	1.00000E+004	E&stimated Z (ohms)
OCVCURVE	TABLE	19
	Pt	T	Vf	Vm	Ach	Over
	#	s	V vs. Ref.	V	V	bits
	0	0.258333	9.76384E-003	9.76384E-003	5.22233E-004	...........
	1	0.516667	9.76807E-003	9.98508E-003	5.27733E-004	...........
	2	0.775	9.79439E-003	1.02142E-002	5.30533E-004	...........
	3	1.03333	9.87022E-003	1.04408E-002	5.27166E-004	...........
	4	1.29167	1.00088E-002	1.06549E-002	5.22900E-004	...........
	5	1.55	1.01972E-002	1.08719E-002	5.24266E-004	...........
	6	1.80833	1.04110E-002	1.10775E-002	5.27233E-004	...........
	7	2.06667	1.06309E-002	1.12813E-002	5.20333E-004	...........
	8	2.325	1.08473E-002	1.14776E-002	5.24200E-004	...........
	9	2.58333	1.10574E-002	1.16714E-002	5.25266E-004	...........
	10	2.84167	1.12609E-002	1.18401E-002	5.27000E-004	...........
	11	3.1	1.14508E-002	1.16889E-002	5.18866E-004	...........
	12	3.35833	1.16049E-002	1.17804E-002	5.22366E-004	...........
	13	3.61667	1.17157E-002	1.24810E-002	5.29266E-004	...........
	14	3.875	1.18388E-002	1.28348E-002	5.27666E-004	...........
	15	4.13333	1.20525E-002	1.30867E-002	5.24800E-004	...........
	16	4.39167	1.23622E-002	1.32882E-002	5.23466E-004	...........
	17	4.65	1.26993E-002	1.34693E-002	5.28766E-004	...........
	18	4.90833	1.30007E-002	1.36574E-002	5.22066E-004	...........
EOC	QUANT	0.0130007	Open Circuit (V)
PSTATMODEL	IQUANT	4	Pstat Model
PSTATSECTION	LABEL	REF600-11020	Pstat Section
PSTATSERIALNO	LABEL	11020	Pstat Serial Number
CTRLMODE	IQUANT	1	Control Mode
IESTAB	IQUANT	0	I/E Stability
CASPEED	IQUANT	1	Control Amp Speed
CONVENTION	IQUANT	1	Current Convention
ICHRANGE	IQUANT	2	Ich Range
ICHRANGEMODE	TOGGLE	F	Ich Auto Range
ICHOFFSETENABLE	TOGGLE	T	Ich Offset Enable
ICHOFFSET	QUANT	0	Ich Offset (V)
ICHFILTER	IQUANT	3	Ich Filter
VCHRANGE	IQUANT	2	Vch Range
VCHRANGEMODE	TOGGLE	F	Vch Auto Range
VCHOFFSETENABLE	TOGGLE	T	Vch Offset Enable
VCHOFFSET	QUANT	0	Vch Offset (V)
VCHFILTER	IQUANT	3	Vch Filter
ACHRANGE	IQUANT	2	Ach Range
ACHOFFSETENABLE	TOGGLE	F	Ach Offset Enable
ACHOFFSET	QUANT	0	Ach Offset (V)
ACHFILTER	IQUANT	3	Ach Filter
IERANGELOWERLIMIT	IQUANT	1	I/E Range Lower Limit
IERANGEMODE	TOGGLE	F	I/E AutoRange
IERANGE	IQUANT	6	I/E Range
POSFEEDENABLE	TOGGLE	F	Positive Feedback IR Comp
POSFEEDRESISTANCE	QUANT	0	Positive Feedback Resistance (ohm)
ACHSELECT	IQUANT	0	Ach Select
CABLEID	IQUANT	14	Cable ID
DCCALDATE	LABEL	8/19/2019	DC Calibration Date
ACCALDATE	LABEL	8/19/2019	AC Calibration Date
THERMOSELECT	IQUANT	1	Thermo Select
FRAMEWORKVERSION	QUANT	6.33	Framework Version
INSTRUMENTVERSION	LABEL	3.50	Instrument Version
ZCURVE	TABLE
	Pt	Time	Freq	Zreal	Zimag	Zsig	Zmod	Zphz	Idc	Vdc	IERange
	#	s	Hz	ohm	ohm	V	ohm	°	A	V	#
	0	2	1000078	2360.542	-1689.541	1	2902.879	-35.59291	-5.202357E-006	0.0157117	8
	1	3	794390.6	2705.36	-1603.476	1	3144.854	-30.65536	-1.525666E-006	0.015529	8
	2	4	630984.4	2992.829	-1461.79	1	3330.744	-26.03232	-1.489761E-007	0.0147159	8
	3	6	501234.4	3208.023	-1299.016	1	3461.048	-22.04436	-5.057465E-006	0.0155409	8
	4	7	398109.4	3428.291	-1151.435	1	3616.488	-18.56528	-1.599784E-007	0.0147791	8
	5	8	316265.6	3566.719	-965.132	1	3694.991	-15.14128	-1.272569E-006	0.0150148	8
	6	10	251203.1	3671.792	-831.5378	1	3764.773	-12.76033	-3.14562E-006	0.0151923	8
	7	11	199546.9	3748.291	-712.9356	1	3815.49	-10.76918	-1.687843E-006	0.0149552	8
	8	13	158578.1	3812.344	-611.2526	1	3861.035	-9.108997	2.477617E-006	0.0140699	8
	9	14	125953.1	3889.544	-495.2884	1	3920.951	-7.256899	1.30562E-007	0.0145094	7
	10	15	100078.1	3909.946	-435.6287	1	3934.139	-6.357419	1.313515E-007	0.0143256	7
	11	17	79453.13	3942.497	-401.2178	1	3962.86	-5.810839	4.721814E-008	0.0144691	7
	12	18	63140.62	3972.643	-377.1111	1	3990.501	-5.422668	1.322578E-007	0.0143151	7
	13	19	50203.12	4003.276	-363.366	1	4019.733	-5.186363	6.028403E-008	0.0144153	7
	14	21	39890.62	4031.56	-357.5794	1	4047.387	-5.068589	-1.150863E-008	0.0145369	7
	15	22	31640.63	4061.791	-361.4554	1	4077.842	-5.08531	4.842299E-008	0.0144512	7
	16	23	25171.88	4092.434	-374.7447	1	4109.556	-5.231991	-6.036058E-008	0.0145837	7
	17	25	20015.62	4122.62	-395.2607	1	4141.524	-5.476556	-3.373038E-008	0.0145002	7
	18	26	15890.62	4152.421	-427.5487	1	4174.374	-5.87867	1.157868E-007	0.014399	7
	19	28	12609.37	4188.087	-474.1713	1	4214.845	-6.459467	-7.16293E-008	0.0146416	7
	20	29	10078.13	4216.408	-533.5209	1	4250.028	-7.211565	-6.129666E-008	0.0145819	7
	21	30	8015.625	4252.281	-606.6158	1	4295.332	-8.11884	-8.197221E-009	0.0144889	7
	22	32	6328.125	4290.545	-705.901	1	4348.227	-9.342876	1.337331E-007	0.0143069	7
	23	33	5015.625	4332.042	-828.6795	1	4410.59	-10.82933	-9.886532E-009	0.0145569	7
	24	34	3984.375	4376.702	-981.878	1	4485.488	-12.6445	1.33394E-007	0.0143008	7
	25	36	3170.956	4429.157	-1167.974	1	4580.567	-14.77267	-8.914886E-008	0.0146199	7
	26	37	2527.573	4483.949	-1397.777	1	4696.763	-17.31377	1.169792E-007	0.014394	7
	27	39	1976.103	4560.182	-1702.655	1	4867.679	-20.47434	-3.106438E-008	0.0144994	7
	28	40	1577.524	4634.828	-2050.327	1	5068.084	-23.86335	8.315967E-009	0.014486	7
	29	41	1265.625	4724.937	-2467.375	1	5330.382	-27.57369	-8.509767E-009	0.0144874	7
	30	43	998.264	4836.358	-3021.306	1	5702.513	-31.9933	2.040823E-008	0.0146027	7
	31	44	796.875	4960.84	-3666.546	1	6168.751	-36.46803	-1.018656E-008	0.0145658	7
	32	45	627.7902	5120.452	-4510.102	1	6823.492	-41.37365	-3.450759E-008	0.0145056	7
	33	47	505.5147	5304.33	-5453.551	1	7607.702	-45.79469	-8.08238E-009	0.0144843	7
	34	48	397.9953	5532.423	-6734.753	1	8715.768	-50.59779	5.018954E-009	0.0145328	7
	35	50	315.5048	5825.6	-8275.755	1	10120.56	-54.85692	6.22026E-010	0.0144712	6
	36	51	252.4038	6177.829	-10096.14	1	11836.28	-58.53753	4.382222E-010	0.0144742	6
	37	52	198.6229	6662.924	-12503.41	1	14167.92	-61.94736	7.140831E-010	0.0144747	6
	38	54	158.3615	7259.872	-15304.05	1	16938.71	-64.62147	1.472387E-010	0.0144749	6
	39	55	125.558	8067.352	-18816.1	1	20472.61	-66.7929	4.381899E-010	0.0144763	6
	40	56	100.4464	9098.218	-22921.29	1	24660.96	-68.35023	1.382643E-009	0.0144734	6
	41	58	79.00281	10523.69	-28356.27	1	30246.09	-69.63889	1.113239E-009	0.0144696	6
	42	59	63.3446	12444.17	-34069.67	1	36271.2	-69.93494	1.454079E-010	0.0144662	6
	43	61	49.86702	15018.68	-42335.85	1	44920.87	-70.46782	6.86102E-010	0.0144687	6
	44	62	39.72458	18325.71	-51044.8	1	54234.71	-70.25124	2.610486E-010	0.0144669	6
	45	63	31.6723	22646.13	-61520.25	1	65556	-69.7909	1.14643E-009	0.0144659	6
	46	65	24.93351	28730.89	-74217.2	1	79584.27	-68.83763	9.1233E-010	0.0144666	6
	47	66	19.86229	36200.84	-88395.16	1	95520.7	-67.72922	2.950566E-010	0.014468	6
	48	68	15.83615	45032.21	-104704.4	1	113977.6	-66.72798	-1.211977E-009	0.0144693	5
	49	69	12.40079	58394.57	-122627	1	135820.9	-64.53638	1.226365E-009	0.0144685	5
	50	70	9.93114	71577.62	-142756.6	1	159696	-63.37099	4.760229E-010	0.0144716	5
	51	72	7.944915	86906.16	-164804.8	1	186315.1	-62.19608	3.101522E-010	0.0144656	5
	52	74	6.317385	105559.8	-188444.6	1	215995.9	-60.74404	5.113187E-010	0.0144616	5
	53	76	5.008013	126655.9	-216430.4	1	250766.5	-59.66368	5.006989E-011	0.0144733	5
	54	78	3.945707	150726	-248949.5	1	291022.7	-58.80727	-2.601149E-010	0.0144582	5
	55	81	3.158693	175451.6	-283889.6	1	333731.3	-58.28279	2.047513E-010	0.0144855	5
	56	84	2.504006	204570.6	-326747.3	1	385503.5	-57.95006	-2.899155E-010	0.0144578	5
	57	87	1.998082	235997	-374684.5	1	442812.7	-57.79501	-2.626599E-010	0.0144712	5
	58	90	1.584686	274056.3	-432141.7	1	511716	-57.61788	-2.407743E-012	0.0145184	5
	59	94	1.266892	313823.8	-497180.9	1	587940.7	-57.73962	-2.28481E-010	0.014485	5
	60	98	0.999041	362810.9	-577967.3	1	682406	-57.88203	1.620366E-010	0.0144675	5
