EXPLAIN
TAG	EISPOT
TITLE	LABEL	Potentiostatic EIS	Test &Identifier
DATE	LABEL	10/14/2019	Date
TIME	LABEL	9:41:45	Time
NOTES	NOTES	1	&Notes...
	
PSTAT	PSTAT	REF600-11020	Potentiostat
VDC	POTEN	0.00000E+000	T	DC &Voltage (V)
FREQINIT	QUANT	1.00000E+006	Initial Fre&q. (Hz)
FREQFINAL	QUANT	1.00000E+000	Final Fre&q. (Hz)
PTSPERDEC	QUANT	1.00000E+001	Points/&decade
VAC	QUANT	2.50000E+001	AC &Voltage (mV rms)
AREA	QUANT	1.00000E-002	&Area (cm^2)
CONDIT	TWOPARAM	T	5.00000E+000	0.00000E+000	Conditionin&g	Time(s)	E(V)
DELAY	TWOPARAM	T	5.00000E+000	0.00000E+000	Init. De&lay	Time(s)	Stab.(mV/s)
SPEED	SELECTOR	1	&Optimize for:
ZGUESS	QUANT	1.00000E+004	E&stimated Z (ohms)
OCVCURVE	TABLE	19
	Pt	T	Vf	Vm	Ach	Over
	#	s	V vs. Ref.	V	V	bits
	0	0.258333	7.96140E-003	7.96140E-003	5.64466E-004	...........
	1	0.516667	7.96102E-003	7.94169E-003	5.57233E-004	...........
	2	0.775	7.95856E-003	7.91556E-003	5.56366E-004	...........
	3	1.03333	7.95156E-003	7.91171E-003	5.54733E-004	...........
	4	1.29167	7.94054E-003	7.94349E-003	5.60866E-004	...........
	5	1.55	7.93136E-003	7.95267E-003	5.60332E-004	...........
	6	1.80833	7.93032E-003	7.97126E-003	5.60366E-004	...........
	7	2.06667	7.93866E-003	8.00010E-003	5.59032E-004	...........
	8	2.325	7.95402E-003	8.02496E-003	5.60566E-004	...........
	9	2.58333	7.97442E-003	8.06245E-003	5.56499E-004	...........
	10	2.84167	7.99918E-003	8.09861E-003	5.62432E-004	...........
	11	3.1	8.02825E-003	8.14215E-003	5.65432E-004	...........
	12	3.35833	8.06149E-003	8.17653E-003	5.60299E-004	...........
	13	3.61667	8.09783E-003	8.21071E-003	5.57032E-004	...........
	14	3.875	8.13531E-003	8.24722E-003	5.63299E-004	...........
	15	4.13333	8.17253E-003	8.29135E-003	5.62699E-004	...........
	16	4.39167	8.20948E-003	8.31861E-003	5.59466E-004	...........
	17	4.65	8.24630E-003	8.35304E-003	5.61499E-004	...........
	18	4.90833	8.28236E-003	8.38881E-003	5.63099E-004	...........
EOC	QUANT	0.0082824	Open Circuit (V)
PSTATMODEL	IQUANT	4	Pstat Model
PSTATSECTION	LABEL	REF600-11020	Pstat Section
PSTATSERIALNO	LABEL	11020	Pstat Serial Number
CTRLMODE	IQUANT	1	Control Mode
IESTAB	IQUANT	0	I/E Stability
CASPEED	IQUANT	1	Control Amp Speed
CONVENTION	IQUANT	1	Current Convention
ICHRANGE	IQUANT	2	Ich Range
ICHRANGEMODE	TOGGLE	F	Ich Auto Range
ICHOFFSETENABLE	TOGGLE	T	Ich Offset Enable
ICHOFFSET	QUANT	0	Ich Offset (V)
ICHFILTER	IQUANT	3	Ich Filter
VCHRANGE	IQUANT	2	Vch Range
VCHRANGEMODE	TOGGLE	F	Vch Auto Range
VCHOFFSETENABLE	TOGGLE	T	Vch Offset Enable
VCHOFFSET	QUANT	0	Vch Offset (V)
VCHFILTER	IQUANT	3	Vch Filter
ACHRANGE	IQUANT	2	Ach Range
ACHOFFSETENABLE	TOGGLE	F	Ach Offset Enable
ACHOFFSET	QUANT	0	Ach Offset (V)
ACHFILTER	IQUANT	3	Ach Filter
IERANGELOWERLIMIT	IQUANT	1	I/E Range Lower Limit
IERANGEMODE	TOGGLE	F	I/E AutoRange
IERANGE	IQUANT	6	I/E Range
POSFEEDENABLE	TOGGLE	F	Positive Feedback IR Comp
POSFEEDRESISTANCE	QUANT	0	Positive Feedback Resistance (ohm)
ACHSELECT	IQUANT	0	Ach Select
CABLEID	IQUANT	14	Cable ID
DCCALDATE	LABEL	8/19/2019	DC Calibration Date
ACCALDATE	LABEL	8/19/2019	AC Calibration Date
THERMOSELECT	IQUANT	1	Thermo Select
FRAMEWORKVERSION	QUANT	6.33	Framework Version
INSTRUMENTVERSION	LABEL	3.50	Instrument Version
ZCURVE	TABLE
	Pt	Time	Freq	Zreal	Zimag	Zsig	Zmod	Zphz	Idc	Vdc	IERange
	#	s	Hz	ohm	ohm	V	ohm	°	A	V	#
	0	2	1000078	2327.942	-1530.212	1	2785.833	-33.31787	-2.262375E-006	0.0109653	8
	1	3	794390.6	2638.573	-1447.911	1	3009.736	-28.75568	2.594614E-006	0.0097331	8
	2	4	630984.4	2899.783	-1311.986	1	3182.774	-24.34404	-1.796012E-006	0.0103625	8
	3	6	501234.4	3135.979	-1170.81	1	3347.411	-20.47299	1.263892E-006	0.0096057	8
	4	7	398109.4	3276.371	-1021.101	1	3431.801	-17.30996	-3.167116E-006	0.0104399	8
	5	8	316265.6	3389.16	-867.629	1	3498.455	-14.3594	1.141243E-008	0.0097676	8
	6	10	251203.1	3482.375	-754.0124	1	3563.07	-12.21723	-5.610825E-007	0.0099892	8
	7	11	199546.9	3562.641	-647.066	1	3620.926	-10.29415	-7.118398E-008	0.0097457	8
	8	13	158578.1	3600.406	-554.9674	1	3642.926	-8.762622	2.582347E-006	0.0092981	8
	9	14	125953.1	3671.373	-448.3658	1	3698.649	-6.962759	-8.198477E-007	0.011381	7
	10	16	100078.1	3694.761	-412.113	1	3717.673	-6.364455	1.283089E-007	0.0095863	7
	11	17	79453.13	3725.749	-385.8592	1	3745.677	-5.912787	1.29845E-007	0.0095772	7
	12	18	63140.62	3756.938	-370.9424	1	3775.206	-5.638839	-5.443711E-009	0.0097884	7
	13	20	50203.12	3786.287	-365.4436	1	3803.882	-5.512979	1.147579E-008	0.0096999	7
	14	21	39890.62	3816.007	-369.7559	1	3833.879	-5.534456	-4.000621E-008	0.0097912	7
	15	22	31640.63	3847.78	-384.3815	1	3866.931	-5.704747	-1.783919E-008	0.0099052	7
	16	24	25171.88	3881.248	-405.9851	1	3902.423	-5.97152	3.146597E-008	0.0097335	7
	17	25	20015.62	3918.535	-436.395	1	3942.76	-6.354667	7.578919E-008	0.0096082	7
	18	26	15890.62	3955.314	-483.3471	1	3984.737	-6.967113	7.557669E-008	0.0097301	7
	19	28	12609.37	3998.534	-541.2292	1	4034.998	-7.708529	-4.974349E-008	0.0099179	7
	20	29	10078.13	4041.3	-607.4032	1	4086.691	-8.547517	7.700503E-008	0.0096039	7
	21	31	8015.625	4092.249	-690.5214	1	4150.099	-9.5778	-3.771062E-008	0.009792	7
	22	32	6328.125	4148.124	-796.3755	1	4223.878	-10.86767	-1.098979E-008	0.0097241	7
	23	33	5015.625	4206.734	-924.4893	1	4307.121	-12.39453	-3.441333E-008	0.0098065	7
	24	35	3984.375	4268.498	-1077.037	1	4402.281	-14.1614	-6.888363E-008	0.0098795	7
	25	36	3170.956	4339.521	-1267.635	1	4520.878	-16.28382	-1.261814E-008	0.0098112	7
	26	37	2527.573	4414.563	-1494.672	1	4660.73	-18.70495	-3.362882E-008	0.0098001	7
	27	39	1976.103	4507.829	-1801.422	1	4854.445	-21.78267	-3.891547E-008	0.0097904	7
	28	40	1577.524	4604.591	-2137.537	1	5076.546	-24.9016	6.540812E-008	0.0096556	7
	29	41	1265.625	4715.269	-2559.115	1	5364.963	-28.48998	-1.744068E-008	0.0098997	7
	30	43	998.264	4852.319	-3095.882	1	5755.822	-32.53873	7.652006E-008	0.0097214	7
	31	44	796.875	4998.376	-3723.968	1	6233.113	-36.68742	3.561186E-008	0.0097287	7
	32	46	627.7902	5174.876	-4544.651	1	6887.176	-41.29007	3.65021E-008	0.0097299	7
	33	47	505.5147	5362.351	-5453.653	1	7648.342	-45.48365	-3.741215E-008	0.0097824	7
	34	48	397.9953	5597.824	-6686.327	1	8720.241	-50.06377	3.81616E-009	0.0097758	7
	35	50	315.5048	5872.43	-8176.972	1	10067.19	-54.31535	1.397272E-009	0.0097154	6
	36	51	252.4038	6186.397	-9944.85	1	11712.03	-58.11548	-1.261258E-011	0.009713	6
	37	52	198.6229	6600.301	-12297.36	1	13956.69	-61.77644	4.749985E-010	0.0097104	6
	38	54	158.3615	7093.156	-15050.08	1	16637.84	-64.76534	1.119676E-009	0.0097127	6
	39	55	125.558	7733.549	-18520.34	1	20070.15	-67.33602	6.72939E-010	0.0097113	6
	40	57	100.4464	8510.613	-22611.91	1	24160.48	-69.37479	1.45855E-009	0.0097048	6
	41	58	79.00281	9690.11	-28043.04	1	29670.02	-70.93771	3.011575E-010	0.0097053	6
	42	59	63.3446	11278.28	-34182.18	1	35994.73	-71.73988	3.179294E-010	0.0097012	6
	43	61	49.86702	12643.19	-42365	1	44211.34	-73.38307	-3.269153E-010	0.0097017	6
	44	62	39.72458	15227.21	-51679.37	1	53876.02	-73.5825	8.367081E-010	0.0097042	6
	45	64	31.6723	18280.51	-62875.32	1	65478.88	-73.78862	2.130537E-010	0.009704	6
	46	65	24.93351	22699.8	-77370.66	1	80631.88	-73.64882	1.717665E-010	0.0097094	6
	47	66	19.86229	28166.1	-93984.37	1	98114.2	-73.31709	7.120224E-010	0.0097147	6
	48	68	15.83615	36098.23	-114359.4	1	119921.4	-72.48138	-1.247996E-009	0.0097143	5
	49	69	12.40079	45951.89	-138592.3	1	146011.7	-71.65646	-4.39426E-010	0.0097139	5
	50	70	9.93114	57515.07	-165464.1	1	175175.2	-70.83262	5.753513E-010	0.0097084	5
	51	72	7.944915	72901.83	-196750.3	1	209822.2	-69.66884	-6.803738E-011	0.0097192	5
	52	74	6.317385	92277.27	-233359.2	1	250941.5	-68.42467	3.766711E-010	0.0097004	5
	53	76	5.008013	117200.4	-275746.2	1	299619.6	-66.97306	3.199996E-010	0.00972	5
	54	78	3.945707	147887.2	-325409.5	1	357438.1	-65.55988	-8.210807E-011	0.0097099	5
	55	81	3.158693	183557.5	-377418.1	1	419687.7	-64.064	2.095329E-010	0.0097245	5
	56	84	2.504006	227322.3	-438841.4	1	494223.8	-62.6156	-2.437002E-010	0.0097051	5
	57	87	1.998082	276117.7	-503752.5	1	574462.9	-61.2719	-1.097838E-010	0.0096899	5
	58	90	1.584686	334497.7	-577083.9	1	667019.2	-59.90194	3.575741E-012	0.009755	5
	59	94	1.266892	396125.6	-659281.4	1	769134.3	-59.00068	-1.244149E-010	0.0096878	5
	60	98	0.999041	471104	-756431.8	1	891138.6	-58.08544	2.087773E-010	0.0097361	5
