EXPLAIN
TAG	EISPOT
TITLE	LABEL	Potentiostatic EIS	Test &Identifier
DATE	LABEL	9/24/2019	Date
TIME	LABEL	8:33:01	Time
NOTES	NOTES	1	&Notes...
	
PSTAT	PSTAT	REF600-11020	Potentiostat
VDC	POTEN	0.00000E+000	T	DC &Voltage (V)
FREQINIT	QUANT	1.00000E+006	Initial Fre&q. (Hz)
FREQFINAL	QUANT	1.00000E+000	Final Fre&q. (Hz)
PTSPERDEC	QUANT	1.00000E+001	Points/&decade
VAC	QUANT	2.50000E+001	AC &Voltage (mV rms)
AREA	QUANT	1.00000E-002	&Area (cm^2)
CONDIT	TWOPARAM	T	5.00000E+000	0.00000E+000	Conditionin&g	Time(s)	E(V)
DELAY	TWOPARAM	T	5.00000E+000	0.00000E+000	Init. De&lay	Time(s)	Stab.(mV/s)
SPEED	SELECTOR	1	&Optimize for:
ZGUESS	QUANT	1.00000E+004	E&stimated Z (ohms)
OCVCURVE	TABLE	19
	Pt	T	Vf	Vm	Ach	Over
	#	s	V vs. Ref.	V	V	bits
	0	0.258333	-1.93017E-002	-1.93017E-002	5.65599E-004	...........
	1	0.516667	-1.93302E-002	-2.07930E-002	5.65466E-004	...........
	2	0.775	-1.95046E-002	-2.21774E-002	5.71999E-004	...........
	3	1.03333	-1.99954E-002	-2.34751E-002	5.66066E-004	...........
	4	1.29167	-2.08670E-002	-2.46925E-002	5.68532E-004	...........
	5	1.55	-2.20138E-002	-2.58409E-002	5.69599E-004	...........
	6	1.80833	-2.32686E-002	-2.69235E-002	5.73999E-004	...........
	7	2.06667	-2.45112E-002	-2.79537E-002	5.73766E-004	...........
	8	2.325	-2.56897E-002	-2.89287E-002	5.71166E-004	...........
	9	2.58333	-2.67953E-002	-2.98624E-002	5.72366E-004	...........
	10	2.84167	-2.78360E-002	-3.07516E-002	5.73732E-004	...........
	11	3.1	-2.88214E-002	-3.16013E-002	5.75732E-004	...........
	12	3.35833	-2.97590E-002	-3.24106E-002	5.75365E-004	...........
	13	3.61667	-3.06531E-002	-3.31915E-002	5.73565E-004	...........
	14	3.875	-3.15073E-002	-3.39421E-002	5.71899E-004	...........
	15	4.13333	-3.23246E-002	-3.46496E-002	5.71532E-004	...........
	16	4.39167	-3.31070E-002	-3.53217E-002	5.70732E-004	...........
	17	4.65	-3.38549E-002	-3.59702E-002	5.69166E-004	...........
	18	4.90833	-3.45685E-002	-3.65973E-002	5.77699E-004	...........
EOC	QUANT	-0.0345685	Open Circuit (V)
PSTATMODEL	IQUANT	4	Pstat Model
PSTATSECTION	LABEL	REF600-11020	Pstat Section
PSTATSERIALNO	LABEL	11020	Pstat Serial Number
CTRLMODE	IQUANT	1	Control Mode
IESTAB	IQUANT	0	I/E Stability
CASPEED	IQUANT	1	Control Amp Speed
CONVENTION	IQUANT	1	Current Convention
ICHRANGE	IQUANT	2	Ich Range
ICHRANGEMODE	TOGGLE	F	Ich Auto Range
ICHOFFSETENABLE	TOGGLE	T	Ich Offset Enable
ICHOFFSET	QUANT	0	Ich Offset (V)
ICHFILTER	IQUANT	3	Ich Filter
VCHRANGE	IQUANT	2	Vch Range
VCHRANGEMODE	TOGGLE	F	Vch Auto Range
VCHOFFSETENABLE	TOGGLE	T	Vch Offset Enable
VCHOFFSET	QUANT	0	Vch Offset (V)
VCHFILTER	IQUANT	3	Vch Filter
ACHRANGE	IQUANT	2	Ach Range
ACHOFFSETENABLE	TOGGLE	F	Ach Offset Enable
ACHOFFSET	QUANT	0	Ach Offset (V)
ACHFILTER	IQUANT	3	Ach Filter
IERANGELOWERLIMIT	IQUANT	1	I/E Range Lower Limit
IERANGEMODE	TOGGLE	F	I/E AutoRange
IERANGE	IQUANT	6	I/E Range
POSFEEDENABLE	TOGGLE	F	Positive Feedback IR Comp
POSFEEDRESISTANCE	QUANT	0	Positive Feedback Resistance (ohm)
ACHSELECT	IQUANT	0	Ach Select
CABLEID	IQUANT	14	Cable ID
DCCALDATE	LABEL	8/19/2019	DC Calibration Date
ACCALDATE	LABEL	8/19/2019	AC Calibration Date
THERMOSELECT	IQUANT	1	Thermo Select
FRAMEWORKVERSION	QUANT	6.33	Framework Version
INSTRUMENTVERSION	LABEL	3.50	Instrument Version
ZCURVE	TABLE
	Pt	Time	Freq	Zreal	Zimag	Zsig	Zmod	Zphz	Idc	Vdc	IERange
	#	s	Hz	ohm	ohm	V	ohm	°	A	V	#
	0	1	1000078	2077.489	-1524.172	1	2576.637	-36.26603	2.392507E-006	-0.0326768	8
	1	3	794390.6	2383.185	-1493.941	1	2812.727	-32.08226	1.650875E-006	-0.0331032	8
	2	4	630984.4	2655.88	-1410.665	1	3007.271	-27.97492	-7.397441E-007	-0.0327562	8
	3	5	501234.4	2928.823	-1307.99	1	3207.622	-24.06517	-1.472601E-007	-0.0326923	8
	4	7	398109.4	3111.515	-1168.409	1	3323.658	-20.58173	1.184352E-006	-0.0332012	8
	5	8	316265.6	3267.411	-1047.101	1	3431.092	-17.769	3.479867E-006	-0.0335587	8
	6	9	251203.1	3395.635	-925.4042	1	3519.475	-15.24447	1.832898E-006	-0.033315	8
	7	11	199546.9	3497.967	-816.561	1	3592.011	-13.13975	1.243645E-006	-0.0331754	8
	8	12	158578.1	3598.991	-728.3354	1	3671.949	-11.44056	2.591877E-006	-0.0334395	8
	9	14	125953.1	3685.745	-627.7105	1	3738.815	-9.66518	-6.118234E-007	-0.0309563	7
	10	15	100078.1	3732.367	-573.4449	1	3776.163	-8.734684	2.179995E-010	-0.0329081	7
	11	16	79453.13	3784.06	-543.9751	1	3822.96	-8.180473	-2.866873E-008	-0.0329309	7
	12	18	63140.62	3834.165	-527.2134	1	3870.242	-7.829308	-5.968862E-008	-0.0328507	7
	13	19	50203.12	3881.931	-521.0117	1	3916.738	-7.644247	-2.957045E-008	-0.0329245	7
	14	20	39890.62	3928.845	-527.4904	1	3964.097	-7.646857	6.945244E-008	-0.0330692	7
	15	22	31640.63	3981.962	-548.1694	1	4019.516	-7.83825	-3.803881E-008	-0.0328097	7
	16	23	25171.88	4036.044	-578.0035	1	4077.222	-8.149936	-1.916679E-009	-0.0328356	7
	17	24	20015.62	4093.968	-619.491	1	4140.573	-8.604605	-3.781065E-008	-0.0328174	7
	18	26	15890.62	4160.277	-678.6772	1	4215.271	-9.2652	-7.509629E-009	-0.0329082	7
	19	27	12609.37	4230.046	-741.7802	1	4294.593	-9.94625	-2.628874E-008	-0.0329421	7
	20	29	10078.13	4304.849	-821.172	1	4382.47	-10.79972	1.840639E-008	-0.033032	7
	21	30	8015.625	4388.819	-918.8372	1	4483.971	-11.82458	-3.276249E-009	-0.0330018	7
	22	31	6328.125	4484.706	-1037.083	1	4603.057	-13.02071	-2.447994E-009	-0.0329999	7
	23	33	5015.625	4588.401	-1175.06	1	4736.475	-14.36436	7.964911E-008	-0.0331121	7
	24	34	3984.375	4703.393	-1337.99	1	4890.002	-15.87964	-1.732284E-009	-0.0328456	7
	25	35	3170.956	4825.893	-1526.384	1	5061.531	-17.55167	4.270659E-008	-0.0330125	7
	26	37	2527.573	4959.863	-1750.018	1	5259.544	-19.43467	4.310821E-008	-0.0330163	7
	27	38	1976.103	5121.55	-2038.26	1	5512.239	-21.70143	1.274806E-007	-0.0331515	7
	28	39	1577.524	5281.755	-2356.99	1	5783.8	-24.04888	-6.015687E-009	-0.0329233	7
	29	41	1265.625	5436.625	-2732.167	1	6084.541	-26.68174	-2.667161E-008	-0.0329254	7
	30	42	998.264	5646.751	-3206.219	1	6493.507	-29.58786	-2.697445E-008	-0.0329313	7
	31	44	796.875	5846.632	-3765.78	1	6954.438	-32.78534	7.808484E-008	-0.0331234	7
	32	45	627.7902	6087.856	-4499.715	1	7570.299	-36.46921	4.41606E-008	-0.0330883	7
	33	46	505.5147	6328.344	-5314.359	1	8263.798	-40.02256	4.108683E-008	-0.0330911	7
	34	48	397.9953	6641.137	-6435.59	1	9247.785	-44.09947	1.022085E-008	-0.0329447	7
	35	49	315.5048	7014.298	-7779.164	1	10474.53	-47.95972	5.670004E-009	-0.0330038	6
	36	50	252.4038	7458.625	-9363.164	1	11970.79	-51.45944	4.399675E-009	-0.0330047	6
	37	52	198.6229	8067.564	-11448	1	14005.08	-54.82711	5.135739E-009	-0.0330021	6
	38	53	158.3615	8812.25	-13855.8	1	16420.69	-57.54376	5.349687E-009	-0.0330045	6
	39	55	125.558	9820.38	-16827.62	1	19483.54	-59.73273	5.494215E-009	-0.0330074	6
	40	56	100.4464	11074.69	-20258.07	1	23087.62	-61.33545	4.254219E-009	-0.0330033	6
	41	57	79.00281	12915.41	-24598	1	27782.54	-62.29786	4.464185E-009	-0.0330094	6
	42	59	63.3446	14990.75	-29096.47	1	32731.13	-62.74208	4.560348E-009	-0.0330078	6
	43	60	49.86702	18330.05	-35419.61	1	39881.57	-62.63792	4.326409E-009	-0.0330114	6
	44	62	39.72458	21947.82	-41954.16	1	47348.27	-62.38422	5.611532E-009	-0.033003	6
	45	63	31.6723	26531.16	-49398.96	1	56072.81	-61.76068	5.72737E-009	-0.0330034	6
	46	64	24.93351	32931.91	-58059.84	1	66749.2	-60.43782	5.872701E-009	-0.0330062	6
	47	66	19.86229	40107.76	-67200.61	1	78259.53	-59.16972	6.596796E-009	-0.0330008	6
	48	67	15.83615	49318.42	-76849.18	1	91313.21	-57.30944	4.329124E-009	-0.0330046	6
	49	68	12.40079	59701.82	-88437.59	1	106702.9	-55.97778	4.18005E-009	-0.0330065	5
	50	70	9.93114	72364.57	-98858.1	1	122513.5	-53.79571	5.877934E-009	-0.0330119	5
	51	71	7.944915	86405.3	-110196.9	1	140033	-51.90004	3.484023E-009	-0.0329957	5
	52	73	6.317385	101895.6	-122117.1	1	159044.9	-50.15807	4.709126E-009	-0.0330107	5
	53	75	5.008013	119453.3	-134358.2	1	179781.1	-48.36079	4.332963E-009	-0.0329936	5
	54	78	3.945707	138561.9	-147404.9	1	202305.7	-46.7712	3.893116E-009	-0.0330019	5
	55	80	3.158693	157641.9	-160133.6	1	224708.1	-45.44926	4.872225E-009	-0.0329967	5
	56	84	2.504006	178274.8	-174772.5	1	249654.4	-44.43164	3.6302E-009	-0.0329995	5
	57	86	1.998082	198523.9	-190128.6	1	274882.9	-43.76255	4.517846E-009	-0.0330426	5
	58	90	1.584686	219632.5	-209155.6	1	303289.5	-43.60033	4.196499E-009	-0.0329831	5
	59	93	1.266892	242073.7	-230906.2	1	334540.5	-43.64745	4.257461E-009	-0.0330359	5
	60	97	0.999041	266931.2	-258401.2	1	371515.1	-44.06974	4.790142E-009	-0.03296	5
