EXPLAIN
TAG	EISPOT
TITLE	LABEL	Potentiostatic IDE	Test &Identifier
DATE	LABEL	9/10/2019	Date
TIME	LABEL	8:13:46	Time
NOTES	NOTES	1	&Notes...
	
PSTAT	PSTAT	REF600-11020	Potentiostat
VDC	POTEN	0.00000E+000	T	DC &Voltage (V)
FREQINIT	QUANT	1.00000E+006	Initial Fre&q. (Hz)
FREQFINAL	QUANT	1.00000E+000	Final Fre&q. (Hz)
PTSPERDEC	QUANT	1.00000E+001	Points/&decade
VAC	QUANT	2.50000E+001	AC &Voltage (mV rms)
AREA	QUANT	1.00000E-002	&Area (cm^2)
CONDIT	TWOPARAM	T	5.00000E+000	0.00000E+000	Conditionin&g	Time(s)	E(V)
DELAY	TWOPARAM	T	5.00000E+000	0.00000E+000	Init. De&lay	Time(s)	Stab.(mV/s)
SPEED	SELECTOR	1	&Optimize for:
ZGUESS	QUANT	1.00000E+007	E&stimated Z (ohms)
OCVCURVE	TABLE	19
	Pt	T	Vf	Vm	Ach	Over
	#	s	V vs. Ref.	V	V	bits
	0	0.258333	5.93904E-003	5.93904E-003	5.61399E-004	...........
	1	0.516667	5.93776E-003	5.87165E-003	5.62899E-004	...........
	2	0.775	5.93016E-003	5.82376E-003	5.63766E-004	...........
	3	1.03333	5.91001E-003	5.79557E-003	5.68732E-004	...........
	4	1.29167	5.87755E-003	5.77569E-003	5.64966E-004	...........
	5	1.55	5.84070E-003	5.76049E-003	5.66532E-004	...........
	6	1.80833	5.80790E-003	5.75243E-003	5.60766E-004	...........
	7	2.06667	5.78313E-003	5.75179E-003	5.65599E-004	...........
	8	2.325	5.76677E-003	5.75642E-003	5.64099E-004	...........
	9	2.58333	5.75788E-003	5.75900E-003	5.59732E-004	...........
	10	2.84167	5.75498E-003	5.76815E-003	5.67266E-004	...........
	11	3.1	5.75647E-003	5.77562E-003	5.66232E-004	...........
	12	3.35833	5.76103E-003	5.78603E-003	5.66299E-004	...........
	13	3.61667	5.76785E-003	5.80108E-003	5.61766E-004	...........
	14	3.875	5.77674E-003	5.81679E-003	5.60566E-004	...........
	15	4.13333	5.78772E-003	5.82803E-003	5.62666E-004	...........
	16	4.39167	5.80043E-003	5.84326E-003	5.60166E-004	...........
	17	4.65	5.81406E-003	5.85849E-003	5.60599E-004	...........
	18	4.90833	5.82811E-003	5.87311E-003	5.59699E-004	...........
EOC	QUANT	0.0058281	Open Circuit (V)
PSTATMODEL	IQUANT	4	Pstat Model
PSTATSECTION	LABEL	REF600-11020	Pstat Section
PSTATSERIALNO	LABEL	11020	Pstat Serial Number
CTRLMODE	IQUANT	1	Control Mode
IESTAB	IQUANT	0	I/E Stability
CASPEED	IQUANT	1	Control Amp Speed
CONVENTION	IQUANT	1	Current Convention
ICHRANGE	IQUANT	2	Ich Range
ICHRANGEMODE	TOGGLE	F	Ich Auto Range
ICHOFFSETENABLE	TOGGLE	T	Ich Offset Enable
ICHOFFSET	QUANT	0	Ich Offset (V)
ICHFILTER	IQUANT	3	Ich Filter
VCHRANGE	IQUANT	2	Vch Range
VCHRANGEMODE	TOGGLE	F	Vch Auto Range
VCHOFFSETENABLE	TOGGLE	T	Vch Offset Enable
VCHOFFSET	QUANT	0	Vch Offset (V)
VCHFILTER	IQUANT	3	Vch Filter
ACHRANGE	IQUANT	2	Ach Range
ACHOFFSETENABLE	TOGGLE	F	Ach Offset Enable
ACHOFFSET	QUANT	0	Ach Offset (V)
ACHFILTER	IQUANT	3	Ach Filter
IERANGELOWERLIMIT	IQUANT	1	I/E Range Lower Limit
IERANGEMODE	TOGGLE	F	I/E AutoRange
IERANGE	IQUANT	3	I/E Range
POSFEEDENABLE	TOGGLE	F	Positive Feedback IR Comp
POSFEEDRESISTANCE	QUANT	0	Positive Feedback Resistance (ohm)
ACHSELECT	IQUANT	0	Ach Select
CABLEID	IQUANT	14	Cable ID
DCCALDATE	LABEL	8/19/2019	DC Calibration Date
ACCALDATE	LABEL	8/19/2019	AC Calibration Date
THERMOSELECT	IQUANT	1	Thermo Select
FRAMEWORKVERSION	QUANT	6.33	Framework Version
INSTRUMENTVERSION	LABEL	3.50	Instrument Version
ZCURVE	TABLE
	Pt	Time	Freq	Zreal	Zimag	Zsig	Zmod	Zphz	Idc	Vdc	IERange
	#	s	Hz	ohm	ohm	V	ohm	°	A	V	#
	0	2	1000078	2351.705	-1192.89	1	2636.95	-26.89615	5.698213E-006	0.0073487	8
	1	3	794390.6	2559.976	-1079.729	1	2778.362	-22.86871	1.047823E-006	0.0071471	8
	2	4	630984.4	2722.719	-950.488	1	2883.856	-19.24384	-7.695772E-007	0.0074421	8
	3	6	501234.4	2846.64	-817.8148	1	2961.786	-16.0289	3.969468E-006	0.0068049	8
	4	7	398109.4	2940.998	-724.7429	1	3028.98	-13.84344	-1.577378E-006	0.0077854	8
	5	8	316265.6	3015.988	-619.7922	1	3079.014	-11.61274	9.433606E-008	0.0075457	8
	6	10	251203.1	3066.902	-539.1025	1	3113.924	-9.96965	-1.160773E-006	0.0076365	8
	7	11	199546.9	3114.538	-479.2847	1	3151.2	-8.748409	-1.093774E-006	0.0076057	8
	8	13	158578.1	3154.799	-439.5382	1	3185.271	-7.931602	-1.105315E-006	0.0075995	8
	9	14	125953.1	3199.008	-376.3987	1	3221.076	-6.710627	3.271843E-007	0.006875	7
	10	15	100078.1	3224.669	-357.6377	1	3244.441	-6.328628	2.729664E-008	0.0073404	7
	11	16	79453.13	3256.702	-355.2682	1	3276.022	-6.225684	2.637468E-008	0.0073268	7
	12	18	63140.62	3286.978	-360.0215	1	3306.635	-6.250669	-1.40652E-008	0.0074095	7
	13	19	50203.12	3325.666	-374.8172	1	3346.721	-6.430352	-4.071675E-009	0.0073174	7
	14	20	39890.62	3363.475	-397.6962	1	3386.905	-6.743327	3.336787E-008	0.0072577	7
	15	22	31640.63	3401.106	-426.403	1	3427.731	-7.145993	-3.049241E-008	0.0074238	7
	16	23	25171.88	3445.491	-464.11	1	3476.609	-7.671603	-5.593028E-008	0.0074302	7
	17	25	20015.62	3493.87	-511.5481	1	3531.12	-8.329664	-5.316585E-008	0.007446	7
	18	26	15890.62	3546.222	-568.4493	1	3591.493	-9.106878	-2.92282E-008	0.0074157	7
	19	27	12609.37	3607.235	-639.1146	1	3663.415	-10.04716	3.337176E-009	0.0074358	7
	20	29	10078.13	3667.728	-718.8221	1	3737.503	-11.08861	7.093384E-008	0.0073069	7
	21	30	8015.625	3741.145	-818.1174	1	3829.553	-12.33532	2.692632E-008	0.0073262	7
	22	31	6328.125	3824.642	-935.374	1	3937.361	-13.74279	7.079168E-008	0.0073019	7
	23	33	5015.625	3916.807	-1073.496	1	4061.252	-15.32693	-1.396677E-008	0.0073974	7
	24	34	3984.375	4012.979	-1231.394	1	4197.658	-17.05878	-2.018239E-009	0.007317	7
	25	35	3170.956	4123.023	-1421.71	1	4361.259	-19.02533	-1.885337E-008	0.0073488	7
	26	37	2527.573	4241.818	-1641.878	1	4548.492	-21.1599	-2.694915E-009	0.0073189	7
	27	38	1976.103	4387.188	-1932.752	1	4794.053	-23.77563	2.836251E-010	0.0073383	7
	28	39	1577.524	4529.085	-2245.531	1	5055.197	-26.37233	4.9999E-009	0.0074239	7
	29	41	1265.625	4682.397	-2620.186	1	5365.651	-29.2306	6.399243E-010	0.0073497	7
	30	42	998.264	4863.821	-3107.399	1	5771.714	-32.57371	7.007124E-008	0.0073115	7
	31	43	796.875	5055.676	-3664.562	1	6244.107	-35.93615	-4.238784E-008	0.0074045	7
	32	45	627.7902	5277.043	-4390.299	1	6864.54	-39.75916	3.145332E-008	0.0073161	7
	33	46	505.5147	5513.621	-5201.029	1	7579.625	-43.32891	3.363736E-008	0.0073167	7
	34	47	397.9953	5793.914	-6284.987	1	8548.129	-47.32811	3.552072E-009	0.007376	7
	35	49	315.5048	6109.693	-7590.576	1	9743.98	-51.16924	4.700417E-009	0.0073727	7
	36	50	252.4038	6462.312	-9133.35	1	11188.37	-54.71864	7.671624E-010	0.007309	6
	37	51	198.6229	6903.932	-11180.63	1	13140.42	-58.30507	7.539194E-010	0.0073123	6
	38	53	158.3615	7412.405	-13572.99	1	15465.12	-61.36041	7.723219E-010	0.007304	6
	39	54	125.558	8046.611	-16591.14	1	18439.47	-64.12687	1.00684E-009	0.0073048	6
	40	55	100.4464	8821.017	-20152.57	1	21998.56	-66.36044	6.582259E-010	0.0072987	6
	41	57	79.00281	9899.36	-24864.33	1	26762.51	-68.29076	7.22051E-010	0.0073017	6
	42	58	63.3446	11086.52	-30325.66	1	32288.64	-69.91848	8.176856E-010	0.0073109	6
	43	59	49.86702	12879.38	-37138.43	1	39308.29	-70.87377	7.154037E-010	0.0073036	6
	44	61	39.72458	15183.6	-45354.44	1	47828.52	-71.49066	8.902329E-010	0.0073083	6
	45	62	31.6723	18126.4	-54998.64	1	57908.7	-71.75886	2.670767E-010	0.007308	6
	46	63	24.93351	22064.7	-67448.35	1	70965.7	-71.88528	3.01054E-010	0.0073085	6
	47	65	19.86229	26947.95	-81484.43	1	85824.84	-71.70029	5.526677E-010	0.0073056	6
	48	66	15.83615	33398.43	-97796	1	103341.7	-71.14438	9.873717E-010	0.0073041	6
	49	67	12.40079	42412.83	-119619.1	1	126915.6	-70.47723	-2.000151E-010	0.0073111	5
	50	69	9.93114	52026.39	-142295.5	1	151508.2	-69.91647	9.378196E-011	0.0073158	5
	51	70	7.944915	64728.35	-168636.6	1	180632.4	-69.00153	4.52705E-010	0.0073045	5
	52	72	6.317385	80650.94	-200185.9	1	215821.6	-68.05647	6.760241E-010	0.0073014	5
	53	74	5.008013	100855.8	-237557	1	258079.9	-66.99615	1.16104E-010	0.00731	5
	54	76	3.945707	126225.7	-281296.3	1	308318.9	-65.83287	2.572428E-010	0.0073165	5
	55	79	3.158693	154786.2	-328681.8	1	363305	-64.78284	-9.646953E-011	0.0073043	5
	56	82	2.504006	190688.8	-384047.7	1	428782.9	-63.59451	5.087726E-010	0.0073147	5
	57	85	1.998082	232767.7	-445272.5	1	502442.4	-62.40153	2.036733E-010	0.0073541	5
	58	88	1.584686	281626.6	-515599.3	1	587499.9	-61.35609	2.26619E-010	0.0073157	5
	59	92	1.266892	340051.5	-592812.2	1	683418.8	-60.16037	-6.292151E-012	0.0073536	5
	60	96	0.999041	408118	-683528.1	1	796097.3	-59.1596	1.700236E-010	0.007287	5
