EXPLAIN
TAG	EISPOT
TITLE	LABEL	Potentiostatic IDE	Test &Identifier
DATE	LABEL	9/16/2019	Date
TIME	LABEL	7:37:53	Time
NOTES	NOTES	1	&Notes...
	
PSTAT	PSTAT	REF600-11020	Potentiostat
VDC	POTEN	0.00000E+000	T	DC &Voltage (V)
FREQINIT	QUANT	1.00000E+006	Initial Fre&q. (Hz)
FREQFINAL	QUANT	1.00000E+000	Final Fre&q. (Hz)
PTSPERDEC	QUANT	1.00000E+001	Points/&decade
VAC	QUANT	2.50000E+001	AC &Voltage (mV rms)
AREA	QUANT	1.00000E-002	&Area (cm^2)
CONDIT	TWOPARAM	T	5.00000E+000	0.00000E+000	Conditionin&g	Time(s)	E(V)
DELAY	TWOPARAM	T	5.00000E+000	0.00000E+000	Init. De&lay	Time(s)	Stab.(mV/s)
SPEED	SELECTOR	1	&Optimize for:
ZGUESS	QUANT	1.00000E+007	E&stimated Z (ohms)
OCVCURVE	TABLE	19
	Pt	T	Vf	Vm	Ach	Over
	#	s	V vs. Ref.	V	V	bits
	0	0.258333	1.37357E-002	1.37357E-002	5.51166E-004	...........
	1	0.516667	1.37406E-002	1.39922E-002	5.48999E-004	...........
	2	0.775	1.37767E-002	1.45490E-002	5.50033E-004	...........
	3	1.03333	1.38951E-002	1.48966E-002	5.49799E-004	...........
	4	1.29167	1.41288E-002	1.51701E-002	5.42999E-004	...........
	5	1.55	1.44482E-002	1.53571E-002	5.41533E-004	...........
	6	1.80833	1.47839E-002	1.55961E-002	5.41199E-004	...........
	7	2.06667	1.50889E-002	1.59762E-002	5.46266E-004	...........
	8	2.325	1.53599E-002	1.59356E-002	5.51699E-004	...........
	9	2.58333	1.56089E-002	1.64788E-002	5.46133E-004	...........
	10	2.84167	1.58507E-002	1.67254E-002	5.45466E-004	...........
	11	3.1	1.61058E-002	1.68754E-002	5.50299E-004	...........
	12	3.35833	1.63750E-002	1.71091E-002	5.51333E-004	...........
	13	3.61667	1.66349E-002	1.73091E-002	5.48599E-004	...........
	14	3.875	1.68711E-002	1.75180E-002	5.50099E-004	...........
	15	4.13333	1.70891E-002	1.77553E-002	5.48233E-004	...........
	16	4.39167	1.73012E-002	1.79879E-002	5.47833E-004	...........
	17	4.65	1.75168E-002	1.82087E-002	5.55666E-004	...........
	18	4.90833	1.77383E-002	1.84146E-002	5.44866E-004	...........
EOC	QUANT	0.0177383	Open Circuit (V)
PSTATMODEL	IQUANT	4	Pstat Model
PSTATSECTION	LABEL	REF600-11020	Pstat Section
PSTATSERIALNO	LABEL	11020	Pstat Serial Number
CTRLMODE	IQUANT	1	Control Mode
IESTAB	IQUANT	0	I/E Stability
CASPEED	IQUANT	1	Control Amp Speed
CONVENTION	IQUANT	1	Current Convention
ICHRANGE	IQUANT	2	Ich Range
ICHRANGEMODE	TOGGLE	F	Ich Auto Range
ICHOFFSETENABLE	TOGGLE	T	Ich Offset Enable
ICHOFFSET	QUANT	0	Ich Offset (V)
ICHFILTER	IQUANT	3	Ich Filter
VCHRANGE	IQUANT	2	Vch Range
VCHRANGEMODE	TOGGLE	F	Vch Auto Range
VCHOFFSETENABLE	TOGGLE	T	Vch Offset Enable
VCHOFFSET	QUANT	0	Vch Offset (V)
VCHFILTER	IQUANT	3	Vch Filter
ACHRANGE	IQUANT	2	Ach Range
ACHOFFSETENABLE	TOGGLE	F	Ach Offset Enable
ACHOFFSET	QUANT	0	Ach Offset (V)
ACHFILTER	IQUANT	3	Ach Filter
IERANGELOWERLIMIT	IQUANT	1	I/E Range Lower Limit
IERANGEMODE	TOGGLE	F	I/E AutoRange
IERANGE	IQUANT	3	I/E Range
POSFEEDENABLE	TOGGLE	F	Positive Feedback IR Comp
POSFEEDRESISTANCE	QUANT	0	Positive Feedback Resistance (ohm)
ACHSELECT	IQUANT	0	Ach Select
CABLEID	IQUANT	14	Cable ID
DCCALDATE	LABEL	8/19/2019	DC Calibration Date
ACCALDATE	LABEL	8/19/2019	AC Calibration Date
THERMOSELECT	IQUANT	1	Thermo Select
FRAMEWORKVERSION	QUANT	6.33	Framework Version
INSTRUMENTVERSION	LABEL	3.50	Instrument Version
ZCURVE	TABLE
	Pt	Time	Freq	Zreal	Zimag	Zsig	Zmod	Zphz	Idc	Vdc	IERange
	#	s	Hz	ohm	ohm	V	ohm	°	A	V	#
	0	1	1000078	1337.33	-1312.742	1	1873.964	-44.4684	9.141605E-007	0.0204892	8
	1	3	794390.6	1409.66	-1512.173	1	2067.319	-47.00941	-5.623192E-006	0.0210728	8
	2	4	630984.4	1481.018	-1767.824	1	2306.212	-50.04496	-3.603737E-006	0.0207897	8
	3	5	501234.4	1571.614	-2116.599	1	2636.278	-53.40543	8.381091E-007	0.0197454	8
	4	7	398109.4	1663.101	-2550.624	1	3044.928	-56.89416	-3.986714E-006	0.020325	8
	5	8	316265.6	1816.491	-3100.365	1	3593.314	-59.63414	4.743885E-007	0.019334	8
	6	9	251203.1	1992.247	-3794.262	1	4285.496	-62.29746	-3.780147E-006	0.0202436	8
	7	11	199546.9	2328.269	-4635.931	1	5187.745	-63.33317	4.851801E-007	0.0195778	8
	8	12	158578.1	2613.969	-5609.924	1	6189.029	-65.01662	-4.819131E-006	0.0205244	8
	9	14	125953.1	3284.719	-6835.566	1	7583.821	-64.33416	9.928466E-007	0.0173326	7
	10	15	100078.1	4016.152	-8210.484	1	9140.105	-63.93447	-2.916886E-008	0.0195165	7
	11	17	79453.13	5042.883	-9812.65	1	11032.62	-62.80061	-3.52367E-008	0.0193805	7
	12	18	63140.62	6391.442	-11576.81	1	13223.96	-61.09734	8.599498E-008	0.0191748	7
	13	19	50203.12	8104.957	-13468.12	1	15718.8	-58.96097	1.012277E-007	0.0193021	7
	14	21	39890.62	10268	-15356.74	1	18473.26	-56.23206	1.534653E-007	0.019138	7
	15	22	31640.63	12894.3	-17142.5	1	21450.6	-53.05014	-4.907248E-008	0.0194005	7
	16	23	25171.88	15881.4	-18796.01	1	24607.09	-49.80437	-5.361933E-008	0.0194925	7
	17	25	20015.62	19149.13	-20246.79	1	27867.93	-46.59598	-2.879158E-008	0.0195033	7
	18	26	15890.62	22657.34	-21264.27	1	31072.88	-43.18334	8.828282E-008	0.019169	7
	19	27	12609.37	26518.57	-21946.04	1	34421.84	-39.61022	6.610434E-009	0.0193007	6
	20	29	10078.13	29919.45	-22612.52	1	37503.33	-37.08126	4.072768E-009	0.0193641	6
	21	30	8015.625	33357.44	-23314.9	1	40697.71	-34.95129	-2.873583E-009	0.0192848	6
	22	31	6328.125	36807.87	-24050.18	1	43968.52	-33.16051	6.384465E-009	0.0192929	6
	23	33	5015.625	40282.92	-24797.29	1	47303.48	-31.61555	-4.264078E-009	0.0193782	6
	24	34	3984.375	43636.13	-25685.52	1	50634.55	-30.48233	-4.270801E-009	0.0193085	6
	25	35	3170.956	47105.51	-26778.3	1	54184.93	-29.61714	-8.352735E-009	0.0194198	6
	26	37	2527.573	50595.85	-28069.29	1	57860.39	-29.0204	7.926992E-009	0.0192871	6
	27	38	1976.103	54594.91	-29848.93	1	62221.88	-28.66695	5.594509E-009	0.0192862	6
	28	39	1577.524	58543.86	-31564.71	1	66511.02	-28.33192	-8.229906E-009	0.01942	6
	29	41	1265.625	62525	-33662.1	1	71010.66	-28.29705	1.629025E-008	0.0190673	6
	30	43	998.264	67387.73	-36143.14	1	76468.51	-28.2067	-2.697227E-009	0.0192832	6
	31	44	796.875	72380.66	-38538.07	1	82000.87	-28.03244	-2.939095E-009	0.0192978	6
	32	46	627.7902	77904.66	-41497.33	1	88267.58	-28.04281	-4.496568E-009	0.0192127	6
	33	47	505.5147	84040.6	-43658.16	1	94704.05	-27.45138	-1.091259E-009	0.0192262	5
	34	48	397.9953	90567.36	-46763.41	1	101927.7	-27.30905	2.057076E-010	0.0193077	5
	35	49	315.5048	97119.9	-49899.79	1	109189.1	-27.19391	4.048183E-010	0.0193072	5
	36	51	252.4038	103721.3	-52982.05	1	116469.8	-27.05848	-1.479718E-010	0.019314	5
	37	52	198.6229	110674.6	-56858.52	1	124425.7	-27.1916	-5.261326E-010	0.0193134	5
	38	53	158.3615	117637.4	-61239.5	1	132622.9	-27.50051	7.954404E-012	0.0193042	5
	39	55	125.558	124676	-66610.23	1	141354.2	-28.11411	-1.07053E-010	0.019307	5
	40	56	100.4464	132192.1	-72697.62	1	150863.2	-28.80811	-4.745552E-010	0.0193088	5
	41	58	79.00281	141591.1	-80780.7	1	163014	-29.70566	8.234956E-011	0.0193088	5
	42	60	63.3446	143227.3	-84192.84	1	166140	-30.44816	-8.566718E-010	0.0193126	5
	43	61	49.86702	161076.1	-100043.2	1	189615.8	-31.8441	-6.119397E-010	0.0193038	5
	44	63	39.72458	171927.2	-114055.7	1	206319.4	-33.56012	9.869162E-011	0.0193071	5
	45	64	31.6723	183148	-125370.3	1	221948	-34.3928	1.886506E-010	0.0193044	5
	46	65	24.93351	199546.5	-143599.6	1	245844.8	-35.73993	-4.379995E-010	0.0193029	5
	47	67	19.86229	215423.1	-161356.8	1	269152.6	-36.83404	-8.287666E-011	0.0193125	5
	48	68	15.83615	234748.6	-186229.4	1	299646.9	-38.42547	-9.373231E-010	0.0193047	5
	49	69	12.40079	259907.3	-207305.1	1	332456.3	-38.57627	3.66385E-010	0.0193116	5
	50	71	9.93114	278299.6	-235717.8	1	364710.2	-40.26437	-6.891616E-010	0.019312	5
	51	73	7.944915	300446.2	-267270.9	1	402121.4	-41.65565	4.025218E-010	0.0193078	5
	52	74	6.317385	334764.3	-304389.9	1	452460.3	-42.27919	-1.396138E-010	0.0193128	5
	53	76	5.008013	371111.8	-347749.6	1	508580.1	-43.1386	-1.909906E-010	0.0193162	5
	54	79	3.945707	414265	-399673.1	1	575633.6	-43.97294	-5.572647E-010	0.0193047	5
	55	81	3.158693	462801.9	-453330.4	1	647838	-44.40766	-2.667541E-010	0.0193149	5
	56	85	2.504006	521796.3	-515301.8	1	733353.4	-44.6412	-5.013E-010	0.0193178	5
	57	87	1.998082	586586.3	-581572.8	1	826020.8	-44.7541	-9.25614E-011	0.0193018	5
	58	90	1.584686	664498.6	-655129.1	1	933141.2	-44.5932	-1.67412E-010	0.0192581	5
	59	94	1.266892	752122.5	-732377.6	1	1049793	-44.23797	-1.698269E-010	0.0193208	4
	60	98	0.999041	856262.2	-817771.7	1	1184034	-43.68285	-5.966832E-010	0.0192693	4
