EXPLAIN
TAG	EISPOT
TITLE	LABEL	Potentiostatic EIS	Test &Identifier
DATE	LABEL	6/20/2000	Date
TIME	LABEL	9:29:44	Time
NOTES	NOTES	2	&Notes...
	
	
PSTAT	PSTAT	REF600-11020	Potentiostat
VDC	POTEN	0.00000E+000	T	DC &Voltage (V)
FREQINIT	QUANT	1.00000E+006	Initial Fre&q. (Hz)
FREQFINAL	QUANT	1.00000E+000	Final Fre&q. (Hz)
PTSPERDEC	QUANT	1.00000E+001	Points/&decade
VAC	QUANT	2.50000E+001	AC &Voltage (mV rms)
AREA	QUANT	1.00000E-002	&Area (cm^2)
CONDIT	TWOPARAM	T	5.00000E+000	0.00000E+000	Conditionin&g	Time(s)	E(V)
DELAY	TWOPARAM	T	5.00000E+000	0.00000E+000	Init. De&lay	Time(s)	Stab.(mV/s)
SPEED	SELECTOR	0	&Optimize for:
ZGUESS	QUANT	1.00000E+005	E&stimated Z (ohms)
OCVCURVE	TABLE	19
	Pt	T	Vf	Vm	Ach	Over
	#	s	V vs. Ref.	V	V	bits
	0	0.258333	4.37497E-003	4.37497E-003	5.50833E-004	...........
	1	0.516667	4.37202E-003	4.22098E-003	5.58066E-004	...........
	2	0.775	4.35542E-003	4.15158E-003	5.57333E-004	...........
	3	1.03333	4.31267E-003	4.05116E-003	5.60999E-004	...........
	4	1.29167	4.24362E-003	3.99832E-003	5.55366E-004	...........
	5	1.55	4.16098E-003	3.91683E-003	5.54699E-004	...........
	6	1.80833	4.07836E-003	3.88031E-003	5.57766E-004	...........
	7	2.06667	4.00341E-003	3.82629E-003	5.60299E-004	...........
	8	2.325	3.93869E-003	3.79226E-003	5.58499E-004	...........
	9	2.58333	3.88332E-003	3.72948E-003	5.58066E-004	...........
	10	2.84167	3.83465E-003	3.73278E-003	5.59332E-004	...........
	11	3.1	3.79105E-003	3.66273E-003	5.57666E-004	...........
	12	3.35833	3.75262E-003	3.69248E-003	5.58399E-004	...........
	13	3.61667	3.71973E-003	3.61751E-003	5.57432E-004	...........
	14	3.875	3.69172E-003	3.63641E-003	5.56266E-004	...........
	15	4.13333	3.66661E-003	3.57732E-003	5.54466E-004	...........
	16	4.39167	3.64264E-003	3.58594E-003	5.55699E-004	...........
	17	4.65	3.61926E-003	3.54082E-003	5.53066E-004	...........
	18	4.90833	3.59654E-003	3.53778E-003	5.55866E-004	...........
EOC	QUANT	0.0035965	Open Circuit (V)
PSTATMODEL	IQUANT	4	Pstat Model
PSTATSECTION	LABEL	REF600-11020	Pstat Section
PSTATSERIALNO	LABEL	11020	Pstat Serial Number
CTRLMODE	IQUANT	1	Control Mode
IESTAB	IQUANT	0	I/E Stability
CASPEED	IQUANT	1	Control Amp Speed
CONVENTION	IQUANT	1	Current Convention
ICHRANGE	IQUANT	2	Ich Range
ICHRANGEMODE	TOGGLE	F	Ich Auto Range
ICHOFFSETENABLE	TOGGLE	T	Ich Offset Enable
ICHOFFSET	QUANT	0	Ich Offset (V)
ICHFILTER	IQUANT	3	Ich Filter
VCHRANGE	IQUANT	2	Vch Range
VCHRANGEMODE	TOGGLE	F	Vch Auto Range
VCHOFFSETENABLE	TOGGLE	T	Vch Offset Enable
VCHOFFSET	QUANT	0	Vch Offset (V)
VCHFILTER	IQUANT	3	Vch Filter
ACHRANGE	IQUANT	2	Ach Range
ACHOFFSETENABLE	TOGGLE	F	Ach Offset Enable
ACHOFFSET	QUANT	0	Ach Offset (V)
ACHFILTER	IQUANT	3	Ach Filter
IERANGELOWERLIMIT	IQUANT	1	I/E Range Lower Limit
IERANGEMODE	TOGGLE	F	I/E AutoRange
IERANGE	IQUANT	4	I/E Range
POSFEEDENABLE	TOGGLE	F	Positive Feedback IR Comp
POSFEEDRESISTANCE	QUANT	0	Positive Feedback Resistance (ohm)
ACHSELECT	IQUANT	0	Ach Select
CABLEID	IQUANT	14	Cable ID
DCCALDATE	LABEL	8/19/2019	DC Calibration Date
ACCALDATE	LABEL	8/19/2019	AC Calibration Date
THERMOSELECT	IQUANT	1	Thermo Select
FRAMEWORKVERSION	QUANT	6.33	Framework Version
INSTRUMENTVERSION	LABEL	3.50	Instrument Version
ZCURVE	TABLE
	Pt	Time	Freq	Zreal	Zimag	Zsig	Zmod	Zphz	Idc	Vdc	IERange
	#	s	Hz	ohm	ohm	V	ohm	°	A	V	#
	0	1	1000078	2045.507	-1074.68	1	2310.636	-27.71678	-8.375126E-006	0.0072994	8
	1	1	794390.6	2236.871	-983.848	1	2443.676	-23.74143	2.650314E-006	0.0048945	8
	2	2	630984.4	2405.765	-864.456	1	2556.362	-19.76473	2.505431E-006	0.004485	8
	3	2	501234.4	2532.389	-772.5113	1	2647.596	-16.96445	7.567619E-006	0.0041642	8
	4	2	398109.4	2624.541	-683.9344	1	2712.191	-14.60598	-7.860855E-007	0.0046875	8
	5	3	316265.6	2703.406	-586.8735	1	2766.374	-12.24811	-3.594249E-007	0.0056527	8
	6	3	251203.1	2765.893	-528.4109	1	2815.916	-10.81576	-1.708531E-006	0.0055834	8
	7	3	199546.9	2814.635	-466.4355	1	2853.021	-9.409427	-2.53653E-006	0.0052541	8
	8	4	158578.1	2846.15	-418.1067	1	2876.696	-8.357123	7.211434E-006	0.0036913	8
	9	4	125953.1	2907.623	-330.3196	1	2926.326	-6.481283	3.211381E-006	0.0030088	7
	10	4	100078.1	2926.568	-307.5551	1	2942.684	-5.999233	1.126273E-006	0.0030683	7
	11	5	79453.13	2948.67	-296.9533	1	2963.585	-5.750729	5.569673E-007	0.0030967	7
	12	5	63140.62	2974.061	-292.9481	1	2988.454	-5.625547	-3.262031E-007	0.0065918	7
	13	5	50203.12	3001.348	-295.9424	1	3015.903	-5.631341	-1.269358E-006	0.0069248	7
	14	5	39890.62	3029.723	-310.9997	1	3045.643	-5.860859	8.855012E-007	0.0029704	7
	15	6	31640.63	3060.063	-332.7047	1	3078.097	-6.205098	-7.106695E-007	0.0068774	7
	16	6	25171.88	3087.892	-352.8411	1	3107.986	-6.518687	-3.20482E-007	0.0065846	7
	17	6	20015.62	3125.077	-385.3202	1	3148.742	-7.029058	-1.23468E-006	0.0056421	7
	18	7	15890.62	3155.813	-426.499	1	3184.502	-7.696726	5.564532E-007	0.0030901	7
	19	7	12609.37	3192.878	-474.3213	1	3227.917	-8.449836	4.668441E-007	0.0056023	7
	20	7	10078.13	3223.2	-538.85	1	3267.932	-9.490856	1.243006E-007	0.0034352	7
	21	8	8015.625	3271.127	-608.0928	1	3327.169	-10.5309	4.596072E-007	0.0056115	7
	22	8	6328.125	3315.742	-713.2562	1	3391.589	-12.14002	5.486427E-007	0.0030996	7
	23	8	5015.625	3359.354	-828.9092	1	3460.108	-13.86067	-1.427108E-006	0.006735	7
	24	9	3984.375	3415.161	-974.107	1	3551.367	-15.91974	-1.429469E-006	0.006294	7
	25	9	3170.956	3470.87	-1154.156	1	3657.733	-18.39333	4.741935E-007	0.0055941	7
	26	9	2527.573	3540.052	-1375.339	1	3797.832	-21.23154	-1.425398E-006	0.0063135	7
	27	10	1976.103	3616.979	-1659.891	1	3979.67	-24.65117	-7.106273E-007	0.0068634	7
	28	10	1577.524	3684.53	-1994.494	1	4189.722	-28.42739	-1.267808E-006	0.006911	7
	29	10	1265.625	3784.566	-2386.279	1	4474.066	-32.23263	-8.584584E-007	0.004844	7
	30	11	998.264	3914.083	-2899.488	1	4871.045	-36.53043	-7.101879E-007	0.0068744	7
	31	11	796.875	4049.969	-3515.184	1	5362.72	-40.95646	9.7401E-007	0.0047439	7
	32	11	627.7902	4219.057	-4281.378	1	6010.877	-45.42006	-1.027193E-006	0.0069746	7
	33	12	505.5147	4412.108	-5158.063	1	6787.659	-49.45695	-7.134511E-007	0.0068724	7
	34	12	397.9953	4631.171	-6337.18	1	7849.05	-53.8409	2.055526E-009	0.0050466	7
	35	12	315.5048	4905.905	-7754.261	1	9175.863	-57.6796	4.677758E-009	0.0050362	7
	36	13	252.4038	5227.826	-9426.807	1	10779.37	-60.98856	2.292745E-009	0.0049762	6
	37	13	198.6229	5649.68	-11644.18	1	12942.4	-64.11764	9.000161E-010	0.004985	6
	38	13	158.3615	6167.38	-14229.89	1	15508.92	-66.5676	1.746776E-009	0.0049786	6
	39	14	125.558	6828.273	-17492.34	1	18777.84	-68.67641	1.132901E-009	0.0049825	6
	40	14	100.4464	7662.07	-21290.53	1	22627.28	-70.20713	-1.865083E-009	0.0049857	6
	41	14	79.00281	8891.45	-26477.12	1	27930.19	-71.4371	-3.801778E-010	0.0049681	6
	42	15	63.3446	9699.1	-31680.2	1	33131.67	-72.97769	3.026163E-010	0.004971	6
	43	15	49.86702	11881.82	-39231.18	1	40991.01	-73.15018	-6.50785E-010	0.0049772	6
	44	15	39.72458	14667.8	-48244.41	1	50424.87	-73.0891	1.017591E-009	0.0049698	6
	45	16	31.6723	18199.01	-58845.18	1	61595.13	-72.81477	1.160048E-009	0.0049795	6
	46	16	24.93351	22882.16	-71576.41	1	75145.02	-72.27151	6.441697E-010	0.0049728	6
	47	16	19.86229	28684.99	-86246.5	1	90891.63	-71.60323	1.877717E-009	0.0049731	6
	48	17	15.83615	36797.64	-104372.4	1	110669.1	-70.57933	-1.062166E-009	0.0049821	5
	49	17	12.40079	50052.58	-125391.6	1	135012.3	-68.2396	2.835776E-009	0.0049782	5
	50	17	9.93114	60529.27	-148063.9	1	159958.5	-67.76501	-6.945002E-010	0.004986	5
	51	18	7.944915	76685.9	-172826	1	189075.5	-66.0723	-2.904003E-010	0.0049784	5
	52	18	6.317385	97296.3	-202389.1	1	224561.6	-64.3246	5.219478E-011	0.0049827	5
	53	19	5.008013	122929.2	-234219.6	1	264519.2	-62.30746	-2.669441E-011	0.0049725	5
	54	20	3.945707	153269.7	-271605.4	1	311867.2	-60.56352	5.098404E-010	0.0049885	5
	55	22	3.158693	185580.9	-306411.6	1	358229.5	-58.79844	-6.807727E-011	0.0049784	5
	56	23	2.504006	223111.5	-347277.2	1	412771.3	-57.2809	-1.300236E-010	0.0049745	5
	57	25	1.998082	263105.9	-389785.6	1	470273.9	-55.98059	1.916932E-010	0.0050142	5
	58	26	1.584686	305535	-440371.9	1	535984.1	-55.24665	1.570354E-010	0.0050028	5
	59	28	1.266892	350218.2	-494879.9	1	606266.4	-54.7136	7.313824E-011	0.0049613	5
	60	31	0.999041	402299	-563602.3	1	692453.7	-54.48077	2.216427E-011	0.00494	5
