EXPLAIN
TAG	EISPOT
TITLE	LABEL	Potentiostatic EIS	Test &Identifier
DATE	LABEL	10/2/2019	Date
TIME	LABEL	10:57:55	Time
NOTES	NOTES	2	&Notes...
	
	
PSTAT	PSTAT	REF600-11020	Potentiostat
VDC	POTEN	0.00000E+000	T	DC &Voltage (V)
FREQINIT	QUANT	1.00000E+006	Initial Fre&q. (Hz)
FREQFINAL	QUANT	1.00000E+000	Final Fre&q. (Hz)
PTSPERDEC	QUANT	1.00000E+001	Points/&decade
VAC	QUANT	2.50000E+001	AC &Voltage (mV rms)
AREA	QUANT	1.00000E-002	&Area (cm^2)
CONDIT	TWOPARAM	T	5.00000E+000	0.00000E+000	Conditionin&g	Time(s)	E(V)
DELAY	TWOPARAM	T	5.00000E+000	0.00000E+000	Init. De&lay	Time(s)	Stab.(mV/s)
SPEED	SELECTOR	1	&Optimize for:
ZGUESS	QUANT	1.00000E+004	E&stimated Z (ohms)
OCVCURVE	TABLE	19
	Pt	T	Vf	Vm	Ach	Over
	#	s	V vs. Ref.	V	V	bits
	0	0.258333	1.56299E-003	1.56299E-003	5.65466E-004	...........
	1	0.516667	1.57425E-003	2.15253E-003	5.64766E-004	...........
	2	0.775	1.63160E-003	2.09346E-003	5.66966E-004	...........
	3	1.03333	1.77349E-003	3.02431E-003	5.62399E-004	...........
	4	1.29167	2.02444E-003	3.43358E-003	5.58099E-004	...........
	5	1.55	2.37358E-003	2.80333E-003	5.60366E-004	...........
	6	1.80833	2.69702E-003	1.67428E-003	5.61366E-004	...........
	7	2.06667	2.78523E-003	1.60925E-003	5.65399E-004	...........
	8	2.325	2.57908E-003	2.57091E-003	5.59566E-004	...........
	9	2.58333	2.30095E-003	2.98709E-003	5.61366E-004	...........
	10	2.84167	2.23918E-003	3.56911E-003	5.63432E-004	...........
	11	3.1	2.38517E-003	-1.03815E-003	5.57966E-004	...........
	12	3.35833	2.22211E-003	-6.14220E-003	5.63599E-004	...........
	13	3.61667	1.02473E-003	-8.07401E-003	5.66632E-004	...........
	14	3.875	-1.30178E-003	-5.91667E-003	5.65199E-004	...........
	15	4.13333	-3.91596E-003	-8.82690E-003	5.61499E-004	...........
	16	4.39167	-6.04764E-003	-1.43620E-002	5.54566E-004	...........
	17	4.65	-8.01484E-003	-2.05718E-002	5.60499E-004	...........
	18	4.90833	-1.07062E-002	-2.24444E-002	5.60232E-004	...........
EOC	QUANT	-0.0107062	Open Circuit (V)
PSTATMODEL	IQUANT	4	Pstat Model
PSTATSECTION	LABEL	REF600-11020	Pstat Section
PSTATSERIALNO	LABEL	11020	Pstat Serial Number
CTRLMODE	IQUANT	1	Control Mode
IESTAB	IQUANT	0	I/E Stability
CASPEED	IQUANT	1	Control Amp Speed
CONVENTION	IQUANT	1	Current Convention
ICHRANGE	IQUANT	2	Ich Range
ICHRANGEMODE	TOGGLE	F	Ich Auto Range
ICHOFFSETENABLE	TOGGLE	T	Ich Offset Enable
ICHOFFSET	QUANT	0	Ich Offset (V)
ICHFILTER	IQUANT	3	Ich Filter
VCHRANGE	IQUANT	2	Vch Range
VCHRANGEMODE	TOGGLE	F	Vch Auto Range
VCHOFFSETENABLE	TOGGLE	T	Vch Offset Enable
VCHOFFSET	QUANT	0	Vch Offset (V)
VCHFILTER	IQUANT	3	Vch Filter
ACHRANGE	IQUANT	2	Ach Range
ACHOFFSETENABLE	TOGGLE	F	Ach Offset Enable
ACHOFFSET	QUANT	0	Ach Offset (V)
ACHFILTER	IQUANT	3	Ach Filter
IERANGELOWERLIMIT	IQUANT	1	I/E Range Lower Limit
IERANGEMODE	TOGGLE	F	I/E AutoRange
IERANGE	IQUANT	6	I/E Range
POSFEEDENABLE	TOGGLE	F	Positive Feedback IR Comp
POSFEEDRESISTANCE	QUANT	0	Positive Feedback Resistance (ohm)
ACHSELECT	IQUANT	0	Ach Select
CABLEID	IQUANT	14	Cable ID
DCCALDATE	LABEL	8/19/2019	DC Calibration Date
ACCALDATE	LABEL	8/19/2019	AC Calibration Date
THERMOSELECT	IQUANT	1	Thermo Select
FRAMEWORKVERSION	QUANT	6.33	Framework Version
INSTRUMENTVERSION	LABEL	3.50	Instrument Version
ZCURVE	TABLE
	Pt	Time	Freq	Zreal	Zimag	Zsig	Zmod	Zphz	Idc	Vdc	IERange
	#	s	Hz	ohm	ohm	V	ohm	°	A	V	#
	0	1	1000078	2429.002	-2080.646	1	3198.303	-40.58286	3.610622E-006	-0.0086647	8
	1	3	794390.6	2860.74	-2079.968	1	3536.961	-36.0199	-2.627345E-006	-0.0083305	8
	2	4	630984.4	3274.537	-2014.495	1	3844.578	-31.59982	-1.12189E-006	-0.0085764	8
	3	6	501234.4	3645.183	-1879.367	1	4101.144	-27.27452	1.380992E-006	-0.0091809	8
	4	7	398109.4	3962.698	-1711.812	1	4316.627	-23.36344	-5.95007E-007	-0.0091477	8
	5	8	316265.6	4218.999	-1532.272	1	4488.631	-19.9602	5.785096E-007	-0.009385	8
	6	10	251203.1	4427.595	-1346.393	1	4627.783	-16.91406	-4.546515E-007	-0.0092101	8
	7	11	199546.9	4581.874	-1183.557	1	4732.27	-14.48363	3.672859E-006	-0.0098361	8
	8	13	158578.1	4708.485	-1060.655	1	4826.471	-12.69481	-2.456427E-007	-0.0090737	8
	9	14	125953.1	4839.335	-890.5281	1	4920.59	-10.42684	-1.297146E-006	-0.0062912	7
	10	15	100078.1	4901.605	-810.0211	1	4968.085	-9.383678	1.237364E-007	-0.0093976	7
	11	17	79453.13	4969.594	-755.107	1	5026.634	-8.639745	-3.283182E-008	-0.0092012	7
	12	18	63140.62	5036.432	-718.9037	1	5087.482	-8.123562	4.078914E-008	-0.0092752	7
	13	19	50203.12	5099.05	-705.3449	1	5147.604	-7.87567	-1.199461E-008	-0.0092726	7
	14	21	39890.62	5164.634	-705.6989	1	5212.625	-7.780747	-7.987418E-008	-0.0090985	7
	15	22	31640.63	5230.187	-723.3222	1	5279.967	-7.873922	-2.776165E-009	-0.009223	7
	16	24	25171.88	5298.925	-755.6948	1	5352.54	-8.116385	9.085534E-008	-0.0092912	7
	17	25	20015.62	5375.264	-804.3994	1	5435.119	-8.511061	-3.559098E-009	-0.0091984	7
	18	26	15890.62	5458.222	-870.715	1	5527.235	-9.063659	-2.80742E-009	-0.0092025	7
	19	28	12609.37	5548.051	-950.924	1	5628.955	-9.72587	-1.14938E-009	-0.0091897	7
	20	29	10078.13	5645.477	-1048.493	1	5742.016	-10.52125	-9.933408E-009	-0.0090928	7
	21	30	8015.625	5757.796	-1165.949	1	5874.662	-11.44755	-3.71871E-008	-0.0091461	7
	22	32	6328.125	5887.948	-1306.831	1	6031.23	-12.51395	4.044692E-008	-0.009368	7
	23	33	5015.625	6031.479	-1470.281	1	6208.097	-13.69969	-3.770813E-008	-0.0092184	7
	24	34	3984.375	6191.071	-1657.905	1	6409.213	-14.99147	6.245754E-008	-0.0093329	7
	25	36	3170.956	6366.419	-1868.532	1	6634.961	-16.35686	6.187997E-008	-0.0093312	7
	26	37	2527.573	6557.453	-2110.257	1	6888.641	-17.83872	-1.773247E-009	-0.0092262	7
	27	39	1976.103	6784.867	-2413.324	1	7201.289	-19.58007	4.002839E-008	-0.0093723	7
	28	40	1577.524	7001.344	-2737.696	1	7517.566	-21.35671	1.412059E-007	-0.0094348	7
	29	41	1265.625	7240.764	-3093.938	1	7874.079	-23.13674	6.167509E-008	-0.0093421	7
	30	43	998.264	7505.536	-3578.538	1	8314.986	-25.49117	4.013177E-008	-0.0092877	7
	31	44	796.875	7768.164	-4121.768	1	8793.938	-27.95031	-2.728187E-008	-0.0092335	7
	32	45	627.7902	8059.415	-4819.365	1	9390.444	-30.87856	-2.489648E-009	-0.0091885	6
	33	47	505.5147	8328.653	-5606.266	1	10039.75	-33.94568	-8.23173E-009	-0.0090989	6
	34	48	397.9953	8649.007	-6683.609	1	10930.51	-37.69543	1.204212E-009	-0.0092772	6
	35	49	315.5048	8989.433	-7994.049	1	12029.74	-41.64579	-9.992832E-011	-0.0092772	6
	36	51	252.4038	9357.145	-9557.95	1	13375.74	-45.60822	5.224471E-010	-0.0092795	6
	37	52	198.6229	9819.51	-11650.03	1	15236.34	-49.8733	6.082104E-010	-0.0092755	6
	38	54	158.3615	10353.08	-14111.99	1	17502.42	-53.73484	1.122803E-009	-0.0092818	6
	39	55	125.558	11034.17	-17227.56	1	20458.3	-57.36063	-2.165783E-010	-0.0092796	6
	40	56	100.4464	11879.73	-20908.92	1	24048.1	-60.39626	-3.561629E-011	-0.0092834	6
	41	58	79.00281	13010.96	-25776.32	1	28873.93	-63.21701	5.574329E-010	-0.0092801	6
	42	59	63.3446	14287.34	-31284.51	1	34392.57	-65.45427	5.954642E-010	-0.0092806	6
	43	61	49.86702	16426.88	-38202.1	1	41584.16	-66.73232	2.649544E-010	-0.0092825	6
	44	62	39.72458	18845.85	-46493.66	1	50167.98	-67.93521	3.321518E-010	-0.0092757	6
	45	63	31.6723	21877.29	-56185.16	1	60294.18	-68.72514	-1.275307E-009	-0.0092774	6
	46	65	24.93351	26067.05	-68586.8	1	73373.3	-69.19025	-1.559673E-009	-0.0092828	6
	47	66	19.86229	31113.9	-82482.02	1	88155.31	-69.3325	-6.818553E-012	-0.0092734	6
	48	67	15.83615	37708.48	-98669.8	1	105629.8	-69.08472	7.122371E-010	-0.0092721	5
	49	69	12.40079	45206.02	-120064.4	1	128292.8	-69.3679	-3.731458E-012	-0.0092757	5
	50	70	9.93114	54866.85	-142428.3	1	152630.9	-68.9321	2.266009E-010	-0.00928	5
	51	72	7.944915	66250.65	-168821.7	1	181355.8	-68.57349	5.363174E-010	-0.0092722	5
	52	74	6.317385	80107.81	-200662	1	216061.3	-68.23724	3.287565E-010	-0.0092592	5
	53	76	5.008013	96804	-238887.9	1	257756.6	-67.94084	2.852312E-010	-0.0092724	5
	54	78	3.945707	117401.4	-285416.8	1	308619.3	-67.64101	1.912597E-010	-0.0092732	5
	55	81	3.158693	140605.9	-336663.4	1	364845.5	-67.33238	9.332572E-011	-0.0092611	5
	56	84	2.504006	169173.2	-399901	1	434212.4	-67.0698	2.152284E-010	-0.0092848	5
	57	87	1.998082	202366.5	-472433.7	1	513951.2	-66.81218	4.688873E-010	-0.00924	5
	58	90	1.584686	238723.6	-559370.6	1	608181.2	-66.88858	4.679463E-010	-0.0092541	5
	59	94	1.266892	291042.3	-655424.8	1	717138.3	-66.05632	2.822529E-010	-0.0092384	5
	60	98	0.999041	352093.8	-784623.1	1	860002.1	-65.83219	-2.338282E-010	-0.0093082	5
