EXPLAIN
TAG	EISPOT
TITLE	LABEL	Potentiostatic EIS	Test &Identifier
DATE	LABEL	11/11/2019	Date
TIME	LABEL	11:29:52	Time
NOTES	NOTES	3	&Notes...
	
	
	
PSTAT	PSTAT	REF600-11020	Potentiostat
VDC	POTEN	0.00000E+000	T	DC &Voltage (V)
FREQINIT	QUANT	1.00000E+006	Initial Fre&q. (Hz)
FREQFINAL	QUANT	1.00000E+000	Final Fre&q. (Hz)
PTSPERDEC	QUANT	1.00000E+001	Points/&decade
VAC	QUANT	2.50000E+001	AC &Voltage (mV rms)
AREA	QUANT	1.00000E-002	&Area (cm^2)
CONDIT	TWOPARAM	T	5.00000E+000	0.00000E+000	Conditionin&g	Time(s)	E(V)
DELAY	TWOPARAM	T	5.00000E+000	0.00000E+000	Init. De&lay	Time(s)	Stab.(mV/s)
SPEED	SELECTOR	1	&Optimize for:
ZGUESS	QUANT	1.00000E+005	E&stimated Z (ohms)
OCVCURVE	TABLE	19
	Pt	T	Vf	Vm	Ach	Over
	#	s	V vs. Ref.	V	V	bits
	0	0.258333	3.90955E-003	3.90955E-003	5.72799E-004	...........
	1	0.516667	3.90309E-003	3.57100E-003	5.78666E-004	...........
	2	0.775	3.86871E-003	3.52978E-003	5.73866E-004	...........
	3	1.03333	3.78790E-003	3.41996E-003	5.76099E-004	...........
	4	1.29167	3.67148E-003	3.29611E-003	5.71166E-004	...........
	5	1.55	3.54580E-003	3.18913E-003	5.76932E-004	...........
	6	1.80833	3.42546E-003	3.11456E-003	5.77432E-004	...........
	7	2.06667	3.31413E-003	3.03311E-003	5.77699E-004	...........
	8	2.325	3.21364E-003	2.96318E-003	5.73266E-004	...........
	9	2.58333	3.12434E-003	2.89967E-003	5.79699E-004	...........
	10	2.84167	3.04472E-003	2.83711E-003	5.80932E-004	...........
	11	3.1	2.97265E-003	2.77706E-003	5.81399E-004	...........
	12	3.35833	2.90610E-003	2.72163E-003	5.78932E-004	...........
	13	3.61667	2.84359E-003	2.66979E-003	5.79999E-004	...........
	14	3.875	2.78448E-003	2.62162E-003	5.79066E-004	...........
	15	4.13333	2.72863E-003	2.56929E-003	5.77899E-004	...........
	16	4.39167	2.67564E-003	2.52466E-003	5.66866E-004	...........
	17	4.65	2.62490E-003	2.47955E-003	5.76232E-004	...........
	18	4.90833	2.57608E-003	2.43508E-003	5.85965E-004	...........
EOC	QUANT	0.0025761	Open Circuit (V)
PSTATMODEL	IQUANT	4	Pstat Model
PSTATSECTION	LABEL	REF600-11020	Pstat Section
PSTATSERIALNO	LABEL	11020	Pstat Serial Number
CTRLMODE	IQUANT	1	Control Mode
IESTAB	IQUANT	0	I/E Stability
CASPEED	IQUANT	1	Control Amp Speed
CONVENTION	IQUANT	1	Current Convention
ICHRANGE	IQUANT	2	Ich Range
ICHRANGEMODE	TOGGLE	F	Ich Auto Range
ICHOFFSETENABLE	TOGGLE	T	Ich Offset Enable
ICHOFFSET	QUANT	0	Ich Offset (V)
ICHFILTER	IQUANT	3	Ich Filter
VCHRANGE	IQUANT	2	Vch Range
VCHRANGEMODE	TOGGLE	F	Vch Auto Range
VCHOFFSETENABLE	TOGGLE	T	Vch Offset Enable
VCHOFFSET	QUANT	0	Vch Offset (V)
VCHFILTER	IQUANT	3	Vch Filter
ACHRANGE	IQUANT	2	Ach Range
ACHOFFSETENABLE	TOGGLE	F	Ach Offset Enable
ACHOFFSET	QUANT	0	Ach Offset (V)
ACHFILTER	IQUANT	3	Ach Filter
IERANGELOWERLIMIT	IQUANT	1	I/E Range Lower Limit
IERANGEMODE	TOGGLE	F	I/E AutoRange
IERANGE	IQUANT	4	I/E Range
POSFEEDENABLE	TOGGLE	F	Positive Feedback IR Comp
POSFEEDRESISTANCE	QUANT	0	Positive Feedback Resistance (ohm)
ACHSELECT	IQUANT	0	Ach Select
CABLEID	IQUANT	14	Cable ID
DCCALDATE	LABEL	8/19/2019	DC Calibration Date
ACCALDATE	LABEL	8/19/2019	AC Calibration Date
THERMOSELECT	IQUANT	1	Thermo Select
FRAMEWORKVERSION	QUANT	6.33	Framework Version
INSTRUMENTVERSION	LABEL	3.50	Instrument Version
ZCURVE	TABLE
	Pt	Time	Freq	Zreal	Zimag	Zsig	Zmod	Zphz	Idc	Vdc	IERange
	#	s	Hz	ohm	ohm	V	ohm	°	A	V	#
	0	1	1000078	1494.244	-2655.577	1	3047.106	-60.63435	4.030477E-006	0.0044467	8
	1	3	794390.6	1710.933	-3168.953	1	3601.327	-61.63517	-3.171052E-006	0.0049361	8
	2	4	630984.4	1983.548	-3772.815	1	4262.463	-62.26696	1.57208E-007	0.0048034	8
	3	5	501234.4	2340.715	-4479.142	1	5053.875	-62.40928	6.105229E-006	0.0030109	8
	4	7	398109.4	2815.233	-5333.294	1	6030.719	-62.17221	-1.931049E-006	0.0045052	8
	5	8	316265.6	3388.789	-6290.068	1	7144.847	-61.68633	-1.234024E-006	0.0038677	8
	6	10	251203.1	4105.525	-7388.866	1	8452.851	-60.94184	5.571714E-006	0.0033846	8
	7	12	199546.9	5062.433	-8570.375	1	9953.87	-59.43009	-5.295757E-006	0.0048264	8
	8	14	158578.1	6222.995	-9789.07	1	11599.64	-57.55553	5.418846E-006	0.0030241	8
	9	15	125953.1	7748.522	-11162.5	1	13588.26	-55.23329	-2.614745E-006	0.0076468	7
	10	17	100078.1	9170.96	-12440.9	1	15455.82	-53.60377	4.58445E-007	0.0046483	7
	11	19	79453.13	10819.85	-13911.2	1	17623.59	-52.12495	-3.130613E-007	0.0055726	7
	12	20	63140.62	12576.65	-15680.4	1	20100.92	-51.26823	7.087872E-008	0.0024819	7
	13	22	50203.12	14436.48	-17528.11	1	22707.85	-50.52449	5.120891E-007	0.002099	7
	14	23	39890.62	16402.12	-19467.26	1	25455.92	-49.88422	4.60399E-007	0.0046307	7
	15	25	31640.63	18738.5	-22029.83	1	28921.36	-49.61562	-1.226807E-006	0.0046435	7
	16	26	25171.88	21386.83	-24883.27	1	32811.18	-49.3214	-1.404517E-006	0.005272	7
	17	27	20015.62	24417.71	-28698.52	1	37680.62	-49.6077	1.122727E-006	0.0020087	7
	18	29	15890.62	28608.03	-32253.48	1	43112.71	-48.42778	-8.834542E-007	0.0038842	7
	19	31	12609.37	34261.92	-36105.63	1	49774.45	-46.50087	1.446989E-007	0.0006705	6
	20	32	10078.13	40097.95	-40150.12	1	56743.96	-45.03725	3.664994E-010	0.006173	6
	21	34	8015.625	47218.45	-43954.17	1	64510.08	-42.9495	-4.115674E-010	0.0061725	6
	22	35	6328.125	55769.33	-47069.25	1	72977.62	-40.16433	7.08661E-008	0.0052864	6
	23	37	5015.625	65032.95	-49146.25	1	81514.65	-37.07882	7.133484E-008	0.0052828	6
	24	39	3984.375	74903.05	-49799.96	1	89947.22	-33.6183	1.442957E-007	0.0006563	6
	25	40	3170.956	83615.23	-48911.6	1	96870.3	-30.32594	-2.372894E-007	0.0073212	6
	26	42	2527.573	92418.98	-47234.4	1	103790	-27.07111	-2.370208E-007	0.0073169	6
	27	43	1976.103	100971.8	-44050.36	1	110162.3	-23.5699	-2.211166E-007	0.0055295	6
	28	45	1577.524	111616.4	-43662.1	1	119852.4	-21.36444	-2.021255E-007	0.0076008	6
	29	47	1265.625	113969.9	-38314.49	1	120237.9	-18.58165	-4.558465E-008	0.0021766	6
	30	48	998.264	119768.7	-33351.89	1	124325.7	-15.56089	-1.955084E-008	0.004803	5
	31	50	796.875	123144.6	-31010.72	1	126989.2	-14.13454	3.581543E-010	0.0017117	5
	32	51	627.7902	126541.8	-29397.74	1	129911.7	-13.07876	1.761418E-008	0.0006298	5
	33	53	505.5147	128874.5	-28608.28	1	132011.6	-12.51589	1.27867E-008	0.0006924	5
	34	54	397.9953	131424.9	-28531.62	1	134486.3	-12.24853	3.442663E-010	0.0039667	5
	35	55	315.5048	133379.1	-29259.94	1	136550.9	-12.37321	1.140967E-009	0.0039563	5
	36	57	252.4038	135504.7	-30911.05	1	138985.6	-12.85031	2.725667E-010	0.0039531	5
	37	58	198.6229	138304	-33834.17	1	142382.4	-13.74664	8.140662E-011	0.0039667	5
	38	59	158.3615	140761.6	-37328.21	1	145627	-14.85226	8.222464E-010	0.0039528	5
	39	61	125.558	143961.1	-42463.77	1	150093.2	-16.43432	-1.429052E-010	0.0039589	5
	40	62	100.4464	147867.2	-47990.8	1	155460	-17.98102	2.034267E-009	0.0039675	5
	41	64	79.00281	152977.3	-54980.76	1	162557.5	-19.76867	8.590451E-010	0.0039662	5
	42	66	63.3446	154663.5	-67461.45	1	168736	-23.56597	6.799636E-010	0.0039566	5
	43	67	49.86702	164256	-74363.12	1	180305	-24.35754	4.385874E-010	0.003974	5
	44	69	39.72458	172515.4	-86003.7	1	192764.6	-26.49753	4.92613E-010	0.0039678	5
	45	70	31.6723	180132.1	-97297.7	1	204730.1	-28.37552	8.094214E-010	0.0039718	5
	46	72	24.93351	192964	-113832.8	1	224038	-30.53708	2.260718E-010	0.0039615	5
	47	73	19.86229	205218.3	-130782.6	1	243348.8	-32.50877	-2.18586E-010	0.0039696	5
	48	75	15.83615	220993.8	-152564	1	268540.5	-34.61943	1.388897E-009	0.003968	5
	49	76	12.40079	237232	-172623.6	1	293390.3	-36.04179	2.642395E-011	0.0039719	5
	50	77	9.93114	258263.2	-194951.9	1	323583.3	-37.0476	4.449041E-010	0.0039619	5
	51	79	7.944915	280503.7	-222157.9	1	357821.8	-38.3791	3.348675E-011	0.0039699	5
	52	81	6.317385	303256.4	-252537.1	1	394638.4	-39.78588	3.830953E-010	0.0039559	5
	53	83	5.008013	331689.2	-287958.1	1	439246.7	-40.96309	1.160523E-010	0.0039664	5
	54	85	3.945707	365074.3	-329514.7	1	491791.8	-42.06929	-8.960915E-011	0.0039668	5
	55	88	3.158693	401155.2	-373820.9	1	548331.6	-42.97995	2.982079E-010	0.0039698	5
	56	91	2.504006	442888.2	-426810.1	1	615074.6	-43.9409	-1.926208E-010	0.0039659	5
	57	94	1.998082	487678.3	-483910.5	1	687022.2	-44.77781	1.226391E-010	0.003919	5
	58	97	1.584686	538891.8	-552509.3	1	771797.2	-45.71484	-1.285264E-011	0.0039784	5
	59	101	1.266892	597645.3	-629195.1	1	867793.9	-46.47311	3.254537E-011	0.0039228	5
	60	105	0.999041	666218.6	-720840.2	1	981559	-47.25511	1.904403E-010	0.0040105	5
