EXPLAIN
TAG	EISPOT
TITLE	LABEL	Potentiostatic IDE	Test &Identifier
DATE	LABEL	9/6/2019	Date
TIME	LABEL	9:11:33	Time
NOTES	NOTES	1	&Notes...
	
PSTAT	PSTAT	REF600-11020	Potentiostat
VDC	POTEN	0.00000E+000	T	DC &Voltage (V)
FREQINIT	QUANT	1.00000E+006	Initial Fre&q. (Hz)
FREQFINAL	QUANT	1.00000E+000	Final Fre&q. (Hz)
PTSPERDEC	QUANT	1.00000E+001	Points/&decade
VAC	QUANT	2.50000E+001	AC &Voltage (mV rms)
AREA	QUANT	1.00000E-002	&Area (cm^2)
CONDIT	TWOPARAM	T	5.00000E+000	0.00000E+000	Conditionin&g	Time(s)	E(V)
DELAY	TWOPARAM	T	5.00000E+000	0.00000E+000	Init. De&lay	Time(s)	Stab.(mV/s)
SPEED	SELECTOR	1	&Optimize for:
ZGUESS	QUANT	1.00000E+007	E&stimated Z (ohms)
OCVCURVE	TABLE	19
	Pt	T	Vf	Vm	Ach	Over
	#	s	V vs. Ref.	V	V	bits
	0	0.258333	5.82817E-003	5.82817E-003	5.60366E-004	...........
	1	0.516667	5.82615E-003	5.72215E-003	5.63299E-004	...........
	2	0.775	5.81422E-003	5.64837E-003	5.65266E-004	...........
	3	1.03333	5.78215E-003	5.57635E-003	5.65532E-004	...........
	4	1.29167	5.72859E-003	5.53968E-003	5.64232E-004	...........
	5	1.55	5.66425E-003	5.50752E-003	5.64966E-004	...........
	6	1.80833	5.60327E-003	5.49286E-003	5.61999E-004	...........
	7	2.06667	5.55443E-003	5.47325E-003	5.62599E-004	...........
	8	2.325	5.51904E-003	5.45051E-003	5.60766E-004	...........
	9	2.58333	5.49336E-003	5.43632E-003	5.68232E-004	...........
	10	2.84167	5.47269E-003	5.41575E-003	5.65466E-004	...........
	11	3.1	5.45421E-003	5.41122E-003	5.68966E-004	...........
	12	3.35833	5.43768E-003	5.41020E-003	5.68732E-004	...........
	13	3.61667	5.42439E-003	5.40468E-003	5.63566E-004	...........
	14	3.875	5.41527E-003	5.40561E-003	5.63599E-004	...........
	15	4.13333	5.40955E-003	5.39140E-003	5.67932E-004	...........
	16	4.39167	5.40594E-003	5.42579E-003	5.68732E-004	...........
	17	4.65	5.40495E-003	5.42313E-003	5.63099E-004	...........
	18	4.90833	5.40784E-003	5.41480E-003	5.65766E-004	...........
EOC	QUANT	0.0054078	Open Circuit (V)
PSTATMODEL	IQUANT	4	Pstat Model
PSTATSECTION	LABEL	REF600-11020	Pstat Section
PSTATSERIALNO	LABEL	11020	Pstat Serial Number
CTRLMODE	IQUANT	1	Control Mode
IESTAB	IQUANT	0	I/E Stability
CASPEED	IQUANT	1	Control Amp Speed
CONVENTION	IQUANT	1	Current Convention
ICHRANGE	IQUANT	2	Ich Range
ICHRANGEMODE	TOGGLE	F	Ich Auto Range
ICHOFFSETENABLE	TOGGLE	T	Ich Offset Enable
ICHOFFSET	QUANT	0	Ich Offset (V)
ICHFILTER	IQUANT	3	Ich Filter
VCHRANGE	IQUANT	2	Vch Range
VCHRANGEMODE	TOGGLE	F	Vch Auto Range
VCHOFFSETENABLE	TOGGLE	T	Vch Offset Enable
VCHOFFSET	QUANT	0	Vch Offset (V)
VCHFILTER	IQUANT	3	Vch Filter
ACHRANGE	IQUANT	2	Ach Range
ACHOFFSETENABLE	TOGGLE	F	Ach Offset Enable
ACHOFFSET	QUANT	0	Ach Offset (V)
ACHFILTER	IQUANT	3	Ach Filter
IERANGELOWERLIMIT	IQUANT	1	I/E Range Lower Limit
IERANGEMODE	TOGGLE	F	I/E AutoRange
IERANGE	IQUANT	3	I/E Range
POSFEEDENABLE	TOGGLE	F	Positive Feedback IR Comp
POSFEEDRESISTANCE	QUANT	0	Positive Feedback Resistance (ohm)
ACHSELECT	IQUANT	0	Ach Select
CABLEID	IQUANT	14	Cable ID
DCCALDATE	LABEL	8/19/2019	DC Calibration Date
ACCALDATE	LABEL	8/19/2019	AC Calibration Date
THERMOSELECT	IQUANT	1	Thermo Select
FRAMEWORKVERSION	QUANT	6.33	Framework Version
INSTRUMENTVERSION	LABEL	3.50	Instrument Version
ZCURVE	TABLE
	Pt	Time	Freq	Zreal	Zimag	Zsig	Zmod	Zphz	Idc	Vdc	IERange
	#	s	Hz	ohm	ohm	V	ohm	°	A	V	#
	0	2	1000078	2385.901	-1550.425	1	2845.407	-33.01693	-8.741389E-007	0.0080638	8
	1	3	794390.6	2686.465	-1453.419	1	3054.426	-28.41407	-3.122154E-006	0.0082796	8
	2	4	630984.4	2946.029	-1309.071	1	3223.78	-23.95801	-2.391042E-006	0.0080552	8
	3	6	501234.4	3149.815	-1153.196	1	3354.281	-20.10846	1.541261E-006	0.0070507	8
	4	7	398109.4	3292.722	-1004.367	1	3442.495	-16.96308	-3.162632E-010	0.0071708	8
	5	9	316265.6	3430.356	-861.5342	1	3536.889	-14.09825	-1.053687E-006	0.0072904	8
	6	10	251203.1	3513.183	-730.3895	1	3588.303	-11.74447	5.634568E-007	0.0070575	8
	7	11	199546.9	3575.739	-629.2479	1	3630.683	-9.98055	-5.743103E-007	0.0073116	8
	8	13	158578.1	3629.806	-550.9492	1	3671.381	-8.630747	-1.825394E-006	0.0075649	8
	9	14	125953.1	3679.815	-452.1396	1	3707.488	-7.004834	-4.205868E-007	0.0079914	7
	10	15	100078.1	3707.777	-403.228	1	3729.638	-6.206637	4.437243E-008	0.007062	7
	11	16	79453.13	3737.913	-372.0067	1	3756.379	-5.683508	-3.29537E-008	0.0072031	7
	12	18	63140.62	3766.576	-351.5842	1	3782.949	-5.332719	-1.333386E-008	0.0071305	7
	13	19	50203.12	3793.954	-338.6367	1	3809.037	-5.10053	-2.463544E-008	0.0071462	7
	14	21	39890.62	3820.353	-336.1151	1	3835.111	-5.027943	1.197271E-008	0.007086	7
	15	22	31640.63	3846.586	-341.106	1	3861.68	-5.067596	-8.611354E-009	0.0071639	7
	16	23	25171.88	3873.794	-354.8041	1	3890.009	-5.233169	-2.311799E-008	0.007157	7
	17	25	20015.62	3900.98	-378.2121	1	3919.272	-5.537694	4.615862E-008	0.007033	7
	18	26	15890.62	3930.937	-412.981	1	3952.571	-5.997446	-3.066902E-008	0.0071881	7
	19	27	12609.37	3960.634	-459.0019	1	3987.142	-6.610576	2.912663E-008	0.0070438	7
	20	29	10078.13	3992.655	-517.2939	1	4026.026	-7.382197	-7.229946E-009	0.0071634	7
	21	30	8015.625	4028.4	-592.0414	1	4071.672	-8.36073	3.140662E-008	0.0070464	7
	22	31	6328.125	4068.978	-689.4655	1	4126.978	-9.6171	7.54423E-008	0.0070258	7
	23	33	5015.625	4113.21	-809.726	1	4192.154	-11.13683	1.593734E-008	0.0071175	7
	24	34	3984.375	4162.365	-955.198	1	4270.561	-12.92471	-1.216028E-008	0.0072069	7
	25	35	3170.956	4219.411	-1134.278	1	4369.212	-15.04675	-7.053325E-009	0.0071334	7
	26	36	2527.573	4283.968	-1351.319	1	4492.042	-17.50716	-3.852873E-009	0.0071671	7
	27	38	1976.103	4367.212	-1640.988	1	4665.338	-20.5938	2.81218E-008	0.0070305	7
	28	39	1577.524	4456.593	-1966.202	1	4871.055	-23.80657	4.840579E-008	0.0070315	7
	29	40	1265.625	4561.623	-2351.183	1	5131.906	-27.2678	4.543566E-009	0.0070815	7
	30	42	998.264	4699.128	-2856.251	1	5499.089	-31.29231	-2.191871E-008	0.0071462	7
	31	43	796.875	4852.021	-3442.777	1	5949.355	-35.3578	-1.259001E-008	0.0071995	7
	32	44	627.7902	5048.758	-4191.471	1	6561.889	-39.6994	3.459751E-009	0.0070829	7
	33	46	505.5147	5268.844	-5016.712	1	7275.171	-43.59578	1.703135E-008	0.0071155	7
	34	47	397.9953	5549.883	-6124.141	1	8264.763	-47.81617	4.580171E-009	0.0071428	7
	35	48	315.5048	5885.919	-7436.081	1	9483.636	-51.63715	4.527743E-009	0.0071362	7
	36	50	252.4038	6276.94	-8964.483	1	10943.58	-55.00025	1.110564E-009	0.0070735	6
	37	51	198.6229	6782.94	-10963.04	1	12891.73	-58.25452	1.012534E-009	0.0070715	6
	38	52	158.3615	7365.082	-13263.55	1	15171.23	-60.95714	9.469006E-010	0.0070719	6
	39	54	125.558	8089.847	-16126.27	1	18041.68	-63.35908	9.48681E-010	0.0070753	6
	40	55	100.4464	8932.076	-19467.28	1	21418.62	-65.35316	7.607013E-010	0.007073	6
	41	56	79.00281	10055.32	-23860.53	1	25892.75	-67.14844	7.546156E-010	0.0070722	6
	42	58	63.3446	11337.65	-28679.42	1	30839.12	-68.42995	7.589251E-010	0.0070696	6
	43	59	49.86702	12995.69	-35283.62	1	37600.82	-69.7802	2.708149E-010	0.0070682	6
	44	61	39.72458	14978.45	-42675.76	1	45228.03	-70.65981	1.19691E-009	0.0070721	6
	45	62	31.6723	17480.02	-51772.78	1	54644.05	-71.3438	1.20626E-009	0.0070736	6
	46	63	24.93351	20776.9	-63360.23	1	66679.82	-71.8448	5.310838E-010	0.007077	6
	47	65	19.86229	24796.37	-76715.46	1	80623.34	-72.08786	1.16845E-009	0.0070804	6
	48	66	15.83615	29688.32	-92695.03	1	97333.3	-72.24081	8.842716E-010	0.0070783	6
	49	67	12.40079	36897.54	-113657.1	1	119496.3	-72.01455	5.863465E-010	0.00708	5
	50	69	9.93114	45646.4	-136366.1	1	143803	-71.49285	3.801215E-010	0.007076	5
	51	70	7.944915	56105.39	-163129.2	1	172507.8	-71.02026	-4.187754E-012	0.0070795	5
	52	72	6.317385	70388.41	-195582.1	1	207862.7	-70.2066	2.345669E-010	0.0070725	5
	53	74	5.008013	88447.73	-234363.6	1	250498.1	-69.32372	4.764513E-011	0.0070644	5
	54	76	3.945707	111878.3	-280231.4	1	301738.9	-68.23637	6.08207E-010	0.0070784	5
	55	79	3.158693	139654.6	-330092.3	1	358419.2	-67.06788	7.511322E-011	0.0070761	5
	56	82	2.504006	174915	-388808.7	1	426342	-65.77824	5.060145E-010	0.0070649	5
	57	85	1.998082	215604.3	-453620.5	1	502251.7	-64.57842	-3.551382E-011	0.0070897	5
	58	88	1.584686	267208.3	-528758.6	1	592440.6	-63.19024	2.425861E-010	0.0071232	5
	59	91	1.266892	323920.8	-609531.9	1	690256.3	-62.01268	-8.718246E-011	0.0070803	5
	60	96	0.999041	395286.4	-704896.3	1	808164.6	-60.71749	3.713106E-010	0.007094	5
