EXPLAIN
TAG	EISPOT
TITLE	LABEL	Potentiostatic EIS	Test &Identifier
DATE	LABEL	10/12/2019	Date
TIME	LABEL	9:28:27	Time
NOTES	NOTES	1	&Notes...
	
PSTAT	PSTAT	REF600-11020	Potentiostat
VDC	POTEN	0.00000E+000	T	DC &Voltage (V)
FREQINIT	QUANT	1.00000E+006	Initial Fre&q. (Hz)
FREQFINAL	QUANT	1.00000E+000	Final Fre&q. (Hz)
PTSPERDEC	QUANT	1.00000E+001	Points/&decade
VAC	QUANT	2.50000E+001	AC &Voltage (mV rms)
AREA	QUANT	1.00000E-002	&Area (cm^2)
CONDIT	TWOPARAM	T	5.00000E+000	0.00000E+000	Conditionin&g	Time(s)	E(V)
DELAY	TWOPARAM	T	5.00000E+000	0.00000E+000	Init. De&lay	Time(s)	Stab.(mV/s)
SPEED	SELECTOR	1	&Optimize for:
ZGUESS	QUANT	1.00000E+004	E&stimated Z (ohms)
OCVCURVE	TABLE	19
	Pt	T	Vf	Vm	Ach	Over
	#	s	V vs. Ref.	V	V	bits
	0	0.258333	6.83593E-003	6.83593E-003	5.46066E-004	...........
	1	0.516667	6.83666E-003	6.87417E-003	5.46199E-004	...........
	2	0.775	6.84149E-003	6.92844E-003	5.44599E-004	...........
	3	1.03333	6.85648E-003	6.98975E-003	5.38266E-004	...........
	4	1.29167	6.88638E-003	7.05416E-003	5.43233E-004	...........
	5	1.55	6.93063E-003	7.09163E-003	5.41333E-004	...........
	6	1.80833	6.98005E-003	6.97024E-003	5.45499E-004	...........
	7	2.06667	7.01575E-003	6.94857E-003	5.48199E-004	...........
	8	2.325	7.02637E-003	7.19183E-003	5.50499E-004	...........
	9	2.58333	7.03115E-003	7.19674E-003	5.42899E-004	...........
	10	2.84167	7.05589E-003	7.01124E-003	5.36299E-004	...........
	11	3.1	7.06883E-003	6.01139E-003	5.39133E-004	...........
	12	3.35833	6.96815E-003	5.59793E-003	5.46066E-004	...........
	13	3.61667	6.69905E-003	6.40538E-003	5.40133E-004	...........
	14	3.875	6.40574E-003	7.74989E-003	5.36199E-004	...........
	15	4.13333	6.36301E-003	7.99645E-003	5.34433E-004	...........
	16	4.39167	6.68204E-003	7.84106E-003	5.34333E-004	...........
	17	4.65	7.17540E-003	7.66031E-003	5.40133E-004	...........
	18	4.90833	7.55730E-003	7.15358E-003	5.37799E-004	...........
EOC	QUANT	0.0075573	Open Circuit (V)
PSTATMODEL	IQUANT	4	Pstat Model
PSTATSECTION	LABEL	REF600-11020	Pstat Section
PSTATSERIALNO	LABEL	11020	Pstat Serial Number
CTRLMODE	IQUANT	1	Control Mode
IESTAB	IQUANT	0	I/E Stability
CASPEED	IQUANT	1	Control Amp Speed
CONVENTION	IQUANT	1	Current Convention
ICHRANGE	IQUANT	2	Ich Range
ICHRANGEMODE	TOGGLE	F	Ich Auto Range
ICHOFFSETENABLE	TOGGLE	T	Ich Offset Enable
ICHOFFSET	QUANT	0	Ich Offset (V)
ICHFILTER	IQUANT	3	Ich Filter
VCHRANGE	IQUANT	2	Vch Range
VCHRANGEMODE	TOGGLE	F	Vch Auto Range
VCHOFFSETENABLE	TOGGLE	T	Vch Offset Enable
VCHOFFSET	QUANT	0	Vch Offset (V)
VCHFILTER	IQUANT	3	Vch Filter
ACHRANGE	IQUANT	2	Ach Range
ACHOFFSETENABLE	TOGGLE	F	Ach Offset Enable
ACHOFFSET	QUANT	0	Ach Offset (V)
ACHFILTER	IQUANT	3	Ach Filter
IERANGELOWERLIMIT	IQUANT	1	I/E Range Lower Limit
IERANGEMODE	TOGGLE	F	I/E AutoRange
IERANGE	IQUANT	6	I/E Range
POSFEEDENABLE	TOGGLE	F	Positive Feedback IR Comp
POSFEEDRESISTANCE	QUANT	0	Positive Feedback Resistance (ohm)
ACHSELECT	IQUANT	0	Ach Select
CABLEID	IQUANT	14	Cable ID
DCCALDATE	LABEL	8/19/2019	DC Calibration Date
ACCALDATE	LABEL	8/19/2019	AC Calibration Date
THERMOSELECT	IQUANT	1	Thermo Select
FRAMEWORKVERSION	QUANT	6.33	Framework Version
INSTRUMENTVERSION	LABEL	3.50	Instrument Version
ZCURVE	TABLE
	Pt	Time	Freq	Zreal	Zimag	Zsig	Zmod	Zphz	Idc	Vdc	IERange
	#	s	Hz	ohm	ohm	V	ohm	°	A	V	#
	0	2	1000078	2327.395	-1687.465	1	2874.771	-35.94378	-3.328434E-006	0.0097054	8
	1	3	794390.6	2671.391	-1626.247	1	3127.46	-31.33156	-7.167801E-007	0.0098033	8
	2	5	630984.4	2993.448	-1511.548	1	3353.432	-26.79159	-2.087056E-006	0.0097262	8
	3	6	501234.4	3255.916	-1360.493	1	3528.729	-22.67774	8.864226E-007	0.0089752	8
	4	7	398109.4	3462.941	-1191.335	1	3662.136	-18.98445	1.628717E-006	0.0087325	8
	5	9	316265.6	3629.98	-1023.177	1	3771.425	-15.74146	-2.006213E-006	0.0094925	8
	6	10	251203.1	3741.822	-867.1482	1	3840.987	-13.04768	-6.179563E-007	0.0093874	8
	7	11	199546.9	3817.288	-736.0663	1	3887.606	-10.91407	7.818361E-007	0.0090699	8
	8	13	158578.1	3882.773	-629.1566	1	3933.417	-9.204091	-1.851863E-006	0.0095877	8
	9	14	125953.1	3966.857	-474.648	1	3995.153	-6.823197	7.166572E-008	0.0085502	7
	10	16	100078.1	3980.836	-417.5554	1	4002.675	-5.987937	-4.60555E-008	0.0091585	7
	11	17	79453.13	4009.516	-367.7535	1	4026.345	-5.240517	5.29836E-009	0.009028	7
	12	18	63140.62	4034.144	-329.986	1	4047.618	-4.676284	1.155546E-008	0.0091414	7
	13	20	50203.12	4057.802	-302.4444	1	4069.057	-4.262604	-2.737095E-009	0.0090002	7
	14	21	39890.62	4076.471	-282.7389	1	4086.264	-3.967609	4.531632E-008	0.008998	7
	15	22	31640.63	4096.422	-273.7843	1	4105.562	-3.823675	-3.58562E-009	0.0089954	7
	16	24	25171.88	4114.132	-273.2449	1	4123.196	-3.799786	5.829936E-008	0.0089553	7
	17	25	20015.62	4119.523	-287.2147	1	4129.523	-3.988229	-3.406637E-008	0.0090398	7
	18	26	15890.62	4147.117	-296.4774	1	4157.701	-4.089118	1.201687E-007	0.0088647	7
	19	28	12609.37	4164.901	-322.7658	1	4177.389	-4.431374	-7.126521E-008	0.0091405	7
	20	29	10078.13	4180.563	-361.144	1	4196.133	-4.937321	7.547102E-009	0.0090269	7
	21	30	8015.625	4193.505	-411.2633	1	4213.624	-5.601171	-7.199809E-008	0.0091469	7
	22	32	6328.125	4216.718	-483.0986	1	4244.302	-6.535735	7.708623E-008	0.0088904	7
	23	33	5015.625	4238.04	-573.1708	1	4276.624	-7.702194	1.512626E-008	0.0089679	7
	24	34	3984.375	4263.417	-665.4277	1	4315.034	-8.871067	1.086478E-008	0.0089725	7
	25	36	3170.956	4288.644	-826.0524	1	4367.474	-10.90244	-1.452532E-009	0.009015	7
	26	37	2527.573	4321.891	-999.203	1	4435.893	-13.01782	-1.131169E-008	0.0090772	7
	27	39	1976.103	4364.394	-1233.719	1	4535.416	-15.78444	-7.200204E-009	0.0090983	7
	28	40	1577.524	4406.858	-1502.948	1	4656.098	-18.83181	-7.784638E-009	0.009092	7
	29	41	1265.625	4468.583	-1823.78	1	4826.428	-22.20204	-1.800792E-008	0.0090157	7
	30	43	998.264	4545.42	-2250.487	1	5072.035	-26.34052	-6.38897E-008	0.0091519	7
	31	44	796.875	4639.643	-2753.786	1	5395.333	-30.69057	1.010216E-008	0.0090093	7
	32	45	627.7902	4763.453	-3404.795	1	5855.178	-35.55622	1.662996E-008	0.0089636	7
	33	47	505.5147	4908.88	-4133.118	1	6417.146	-40.09629	-7.04854E-008	0.0091358	7
	34	48	397.9953	5116.744	-5114.4	1	7234.511	-44.98687	5.814717E-009	0.0090541	7
	35	49	315.5048	5381.634	-6286.018	1	8275.023	-49.43225	6.212201E-009	0.0090546	7
	36	51	252.4038	5713.951	-7657.356	1	9554.28	-53.26955	7.203261E-009	0.0090511	7
	37	52	198.6229	6184.837	-9448.613	1	11292.85	-56.7922	9.30464E-010	0.0089959	6
	38	53	158.3615	6768.749	-11503.02	1	13346.74	-59.52606	3.671244E-010	0.0089901	6
	39	55	125.558	7561.579	-14040.62	1	15947.3	-61.6953	8.462448E-010	0.0089955	6
	40	56	100.4464	8567.757	-16945.79	1	18988.58	-63.17892	1.500534E-009	0.0089903	6
	41	57	79.00281	9932.88	-20697.08	1	22957.16	-64.36286	2.71757E-010	0.0089893	6
	42	59	63.3446	11626.27	-24907.71	1	27487.52	-64.97806	1.433388E-009	0.0089849	6
	43	60	49.86702	13844.34	-29750.03	1	32813.56	-65.04482	-2.32764E-010	0.0089843	6
	44	62	39.72458	16746.12	-35402.43	1	39163.31	-64.68484	9.236305E-010	0.0089861	6
	45	63	31.6723	20104.6	-41795.72	1	46379.71	-64.31149	6.552947E-010	0.0089901	6
	46	64	24.93351	24482.02	-49460.56	1	55188.01	-63.66548	8.683139E-010	0.0089819	6
	47	66	19.86229	29317.9	-57743.42	1	64759.88	-63.08186	1.175616E-009	0.0089865	6
	48	67	15.83615	34808.24	-67437.3	1	75890.73	-62.69916	-2.711074E-010	0.0089862	6
	49	68	12.40079	41442.24	-79172.38	1	89362.88	-62.3705	2.037138E-011	0.0089875	6
	50	70	9.93114	48219.67	-91501.3	1	103429.3	-62.21151	1.84508E-010	0.0089937	5
	51	71	7.944915	55814.85	-106380.8	1	120134	-62.31533	6.512477E-010	0.0089959	5
	52	73	6.317385	64627.54	-124450.7	1	140230.8	-62.55704	2.694031E-010	0.0090021	5
	53	75	5.008013	74833.54	-146417.5	1	164432.8	-62.92856	3.94339E-010	0.008995	5
	54	78	3.945707	87154.11	-173749.4	1	194382.9	-63.36129	-1.12397E-010	0.0089834	5
	55	80	3.158693	100599	-204224.6	1	227657.3	-63.77561	2.898713E-010	0.0090077	5
	56	84	2.504006	117794.3	-242238.4	1	269360.2	-64.06754	-3.303433E-010	0.0089917	5
	57	86	1.998082	137569.7	-285243.9	1	316685.2	-64.25255	4.338283E-011	0.0089467	5
	58	89	1.584686	161276.3	-337604.4	1	374148.1	-64.46582	-5.326036E-011	0.0089803	5
	59	93	1.266892	190205.3	-396950.5	1	440167.8	-64.39783	6.964171E-011	0.0089492	5
	60	97	0.999041	225520.7	-470930.4	1	522144.7	-64.41102	-2.580534E-011	0.0090244	5
