EXPLAIN
TAG	EISPOT
TITLE	LABEL	Potentiostatic EIS	Test &Identifier
DATE	LABEL	8/14/2018	Date
TIME	LABEL	5:53:22	Time
NOTES	NOTES	1	&Notes...
	
PSTAT	PSTAT	REF600-11020	Potentiostat
VDC	POTEN	0.00000E+000	T	DC &Voltage (V)
FREQINIT	QUANT	1.00000E+006	Initial Fre&q. (Hz)
FREQFINAL	QUANT	1.00000E+000	Final Fre&q. (Hz)
PTSPERDEC	QUANT	1.00000E+001	Points/&decade
VAC	QUANT	2.50000E+001	AC &Voltage (mV rms)
AREA	QUANT	1.00000E-002	&Area (cm^2)
CONDIT	TWOPARAM	T	5.00000E+000	0.00000E+000	Conditionin&g	Time(s)	E(V)
DELAY	TWOPARAM	T	5.00000E+000	0.00000E+000	Init. De&lay	Time(s)	Stab.(mV/s)
SPEED	SELECTOR	0	&Optimize for:
ZGUESS	QUANT	1.00000E+005	E&stimated Z (ohms)
OCVCURVE	TABLE	19
	Pt	T	Vf	Vm	Ach	Over
	#	s	V vs. Ref.	V	V	bits
	0	0.258333	4.69014E-002	4.69014E-002	5.44999E-004	...........
	1	0.516667	4.69556E-002	4.97341E-002	5.44866E-004	...........
	2	0.775	4.72837E-002	5.22007E-002	5.46233E-004	...........
	3	1.03333	4.81966E-002	5.44947E-002	5.52299E-004	...........
	4	1.29167	4.97955E-002	5.66116E-002	5.44933E-004	...........
	5	1.55	5.18661E-002	5.85125E-002	5.44533E-004	...........
	6	1.80833	5.40890E-002	6.02646E-002	5.40899E-004	...........
	7	2.06667	5.62392E-002	6.19279E-002	5.44933E-004	...........
	8	2.325	5.82253E-002	6.34413E-002	5.43733E-004	...........
	9	2.58333	6.00408E-002	6.48569E-002	5.41233E-004	...........
	10	2.84167	6.17078E-002	6.61772E-002	5.41533E-004	...........
	11	3.1	6.32484E-002	6.74203E-002	5.41766E-004	...........
	12	3.35833	6.46802E-002	6.85889E-002	5.43966E-004	...........
	13	3.61667	6.60175E-002	6.97040E-002	5.45499E-004	...........
	14	3.875	6.72723E-002	7.07452E-002	5.46233E-004	...........
	15	4.13333	6.84541E-002	7.17298E-002	5.53766E-004	...........
	16	4.39167	6.95689E-002	7.26670E-002	5.55099E-004	...........
	17	4.65	7.06215E-002	7.35577E-002	5.52766E-004	...........
	18	4.90833	7.16168E-002	7.43935E-002	5.51499E-004	...........
EOC	QUANT	0.0716168	Open Circuit (V)
PSTATMODEL	IQUANT	4	Pstat Model
PSTATSECTION	LABEL	REF600-11020	Pstat Section
PSTATSERIALNO	LABEL	11020	Pstat Serial Number
CTRLMODE	IQUANT	1	Control Mode
IESTAB	IQUANT	0	I/E Stability
CASPEED	IQUANT	1	Control Amp Speed
CONVENTION	IQUANT	1	Current Convention
ICHRANGE	IQUANT	2	Ich Range
ICHRANGEMODE	TOGGLE	F	Ich Auto Range
ICHOFFSETENABLE	TOGGLE	T	Ich Offset Enable
ICHOFFSET	QUANT	0	Ich Offset (V)
ICHFILTER	IQUANT	3	Ich Filter
VCHRANGE	IQUANT	2	Vch Range
VCHRANGEMODE	TOGGLE	F	Vch Auto Range
VCHOFFSETENABLE	TOGGLE	T	Vch Offset Enable
VCHOFFSET	QUANT	0	Vch Offset (V)
VCHFILTER	IQUANT	3	Vch Filter
ACHRANGE	IQUANT	2	Ach Range
ACHOFFSETENABLE	TOGGLE	F	Ach Offset Enable
ACHOFFSET	QUANT	0	Ach Offset (V)
ACHFILTER	IQUANT	3	Ach Filter
IERANGELOWERLIMIT	IQUANT	1	I/E Range Lower Limit
IERANGEMODE	TOGGLE	F	I/E AutoRange
IERANGE	IQUANT	6	I/E Range
POSFEEDENABLE	TOGGLE	F	Positive Feedback IR Comp
POSFEEDRESISTANCE	QUANT	0	Positive Feedback Resistance (ohm)
ACHSELECT	IQUANT	0	Ach Select
CABLEID	IQUANT	14	Cable ID
DCCALDATE	LABEL	8/19/2019	DC Calibration Date
ACCALDATE	LABEL	8/19/2019	AC Calibration Date
THERMOSELECT	IQUANT	1	Thermo Select
FRAMEWORKVERSION	QUANT	6.33	Framework Version
INSTRUMENTVERSION	LABEL	3.50	Instrument Version
ZCURVE	TABLE
	Pt	Time	Freq	Zreal	Zimag	Zsig	Zmod	Zphz	Idc	Vdc	IERange
	#	s	Hz	ohm	ohm	V	ohm	°	A	V	#
	0	2	1000078	1965.494	-2579.23	1	3242.776	-52.69091	1.234917E-006	0.0735069	8
	1	2	794390.6	2334.269	-2947.904	1	3760.179	-51.6264	3.826878E-007	0.0732344	8
	2	2	630984.4	2795.859	-3320.764	1	4341.002	-49.90489	-6.421379E-007	0.0733924	8
	3	3	501234.4	3331.767	-3703.215	1	4981.412	-48.02242	1.156385E-006	0.0729597	8
	4	3	398109.4	4038.776	-4023.985	1	5701.243	-44.89489	-3.455986E-006	0.073787	8
	5	3	316265.6	4828.411	-4299.82	1	6465.447	-41.68586	3.825394E-006	0.0722962	8
	6	4	251203.1	5637.381	-4413.742	1	7159.691	-38.05888	-3.21544E-008	0.0729865	8
	7	4	199546.9	6527.875	-4466.939	1	7909.911	-34.38333	9.455554E-007	0.0727977	8
	8	5	158578.1	7393.904	-4327.746	1	8567.333	-30.34098	-9.2712E-008	0.0729828	8
	9	5	125953.1	8379.091	-3986.251	1	9278.975	-25.44221	-3.305492E-007	0.0733846	7
	10	5	100078.1	9077.177	-3724.662	1	9811.64	-22.30995	-4.698503E-008	0.0730813	7
	11	6	79453.13	9680.17	-3387.996	1	10255.94	-19.2897	-4.28643E-008	0.0731464	7
	12	6	63140.62	10165.27	-2999.023	1	10598.43	-16.43746	-5.143765E-008	0.073045	7
	13	6	50203.12	10568.8	-2638.088	1	10893.08	-14.01526	9.970874E-008	0.0729511	7
	14	7	39890.62	10858.82	-2298.387	1	11099.39	-11.95089	-7.638293E-008	0.073107	7
	15	7	31640.63	11105.5	-1997.491	1	11283.71	-10.19649	-4.79053E-008	0.0730684	7
	16	7	25171.88	11312.62	-1755.958	1	11448.09	-8.823109	1.632721E-008	0.0731183	7
	17	8	20015.62	11458.15	-1551.381	1	11562.7	-7.7107	-4.631742E-008	0.0731175	7
	18	8	15890.62	11567.45	-1380.196	1	11649.5	-6.80421	7.909905E-008	0.0728472	7
	19	8	12609.37	11717.03	-1066.852	1	11765.49	-5.202519	-7.904386E-009	0.0729797	6
	20	9	10078.13	11784.93	-1028.914	1	11829.76	-4.989704	-1.329601E-008	0.073053	6
	21	9	8015.625	11864.67	-954.362	1	11903	-4.598814	-8.401948E-009	0.0729766	6
	22	9	6328.125	11895.82	-1059.197	1	11942.88	-5.088166	-1.047377E-008	0.0730751	6
	23	9	5015.625	11944.79	-1129.938	1	11998.11	-5.403915	-6.029459E-009	0.072887	6
	24	10	3984.375	11961.1	-1255.1	1	12026.77	-5.990229	-2.463843E-009	0.0729333	6
	25	10	3170.956	12055.2	-1413.353	1	12137.77	-6.686837	-8.575104E-009	0.0731491	6
	26	10	2527.573	12125.2	-1630.778	1	12234.37	-7.660027	6.204459E-010	0.0730512	6
	27	11	1976.103	12180.6	-1942.691	1	12334.55	-9.061815	-1.16172E-008	0.0731442	6
	28	11	1577.524	12252.03	-2362.066	1	12477.64	-10.91216	-7.321348E-009	0.0731454	6
	29	11	1265.625	12363.17	-2714.246	1	12657.61	-12.38243	5.091317E-009	0.0727776	6
	30	12	998.264	12471.55	-3300.147	1	12900.8	-14.82156	1.548427E-011	0.0727597	6
	31	12	796.875	12588.65	-3980.885	1	13203.08	-17.54843	-1.156097E-008	0.0731423	6
	32	12	627.7902	12746.87	-4873.183	1	13646.63	-20.92207	5.392372E-009	0.0727734	6
	33	13	505.5147	12925.8	-5883.119	1	14201.67	-24.47244	1.038432E-008	0.0728904	6
	34	13	397.9953	13153.73	-7248.765	1	15018.83	-28.8583	-2.054306E-009	0.0729787	6
	35	13	315.5048	13432.83	-8902.404	1	16115.01	-33.53383	-1.503967E-009	0.0729776	6
	36	14	252.4038	13762.14	-10847.68	1	17523.38	-38.2461	-1.817688E-009	0.0729739	6
	37	14	198.6229	14221.2	-13429.26	1	19559.85	-43.35943	-2.294514E-009	0.0729741	6
	38	14	158.3615	14791.49	-16446.73	1	22119.74	-48.03313	-2.58772E-009	0.0729723	6
	39	15	125.558	15540.62	-20240.68	1	25518.54	-52.48326	-2.318778E-009	0.0729773	6
	40	15	100.4464	16436.99	-24687.84	1	29659.13	-56.3446	-1.850379E-009	0.072975	6
	41	15	79.00281	17835.17	-30688.57	1	35494.81	-59.83627	-1.531628E-009	0.0729719	6
	42	16	63.3446	19287.32	-36637.1	1	41403.84	-62.23578	-2.556496E-009	0.0729693	6
	43	16	49.86702	21896.76	-45475.23	1	50472.41	-64.28873	-2.391631E-009	0.0729712	6
	44	16	39.72458	24887.33	-55853.46	1	61147.27	-65.98308	-2.495942E-009	0.0729771	6
	45	17	31.6723	29042.48	-68033.28	1	73972.92	-66.88302	-2.675058E-009	0.0729696	6
	46	17	24.93351	34938.46	-82739.09	1	89813.43	-67.10699	-2.426032E-009	0.072969	6
	47	17	19.86229	42336.24	-99637.6	1	108259	-66.97925	-3.312211E-009	0.0729815	5
	48	18	15.83615	51998.09	-117038.7	1	128069.7	-66.04533	-3.607764E-010	0.0729785	5
	49	18	12.40079	65672.42	-143546.2	1	157855.5	-65.41589	-1.999849E-009	0.0729785	5
	50	18	9.93114	80078.77	-168364.6	1	186438.3	-64.56297	-2.183073E-009	0.0729766	5
	51	19	7.944915	97746	-195405.6	1	218489.4	-63.4248	-2.561923E-009	0.0729786	5
	52	19	6.317385	120252.1	-227539.4	1	257361.1	-62.14404	-2.47002E-009	0.0729853	5
	53	20	5.008013	147243.1	-263808.5	1	302118.3	-60.83219	-2.411336E-009	0.0729664	5
	54	21	3.945707	179805.6	-304663.7	1	353765.4	-59.45186	-1.836053E-009	0.0729727	5
	55	23	3.158693	213650.7	-347131.1	1	407610.8	-58.38872	-1.934739E-009	0.0729924	5
	56	24	2.504006	254785.2	-397578.4	1	472211.9	-57.34652	-2.096381E-009	0.0729823	5
	57	26	1.998082	299121.6	-451567.1	1	541651.7	-56.47919	-1.888166E-009	0.0729923	5
	58	27	1.584686	353001.5	-515678.5	1	624927.5	-55.60688	-1.749142E-009	0.0730267	5
	59	29	1.266892	410667.9	-586184.9	1	715724	-54.98578	-1.73705E-009	0.0730019	5
	60	32	0.999041	481417.7	-669951.8	1	824983.9	-54.29952	-1.699337E-009	0.072977	5
