EXPLAIN
TAG	EISPOT
TITLE	LABEL	Potentiostatic IDE	Test &Identifier
DATE	LABEL	9/6/2019	Date
TIME	LABEL	7:49:50	Time
NOTES	NOTES	1	&Notes...
	
PSTAT	PSTAT	REF600-11020	Potentiostat
VDC	POTEN	0.00000E+000	T	DC &Voltage (V)
FREQINIT	QUANT	1.00000E+006	Initial Fre&q. (Hz)
FREQFINAL	QUANT	1.00000E+000	Final Fre&q. (Hz)
PTSPERDEC	QUANT	1.00000E+001	Points/&decade
VAC	QUANT	2.50000E+001	AC &Voltage (mV rms)
AREA	QUANT	1.00000E-002	&Area (cm^2)
CONDIT	TWOPARAM	T	5.00000E+000	0.00000E+000	Conditionin&g	Time(s)	E(V)
DELAY	TWOPARAM	T	5.00000E+000	0.00000E+000	Init. De&lay	Time(s)	Stab.(mV/s)
SPEED	SELECTOR	1	&Optimize for:
ZGUESS	QUANT	1.00000E+007	E&stimated Z (ohms)
OCVCURVE	TABLE	19
	Pt	T	Vf	Vm	Ach	Over
	#	s	V vs. Ref.	V	V	bits
	0	0.258333	8.96419E-003	8.96419E-003	5.66366E-004	...........
	1	0.516667	8.96426E-003	8.96774E-003	5.63766E-004	...........
	2	0.775	8.96514E-003	8.99506E-003	5.66566E-004	...........
	3	1.03333	8.96939E-003	9.03500E-003	5.70099E-004	...........
	4	1.29167	8.98137E-003	9.08767E-003	5.66766E-004	...........
	5	1.55	9.00485E-003	9.14371E-003	5.70132E-004	...........
	6	1.80833	9.04079E-003	9.20287E-003	5.73099E-004	...........
	7	2.06667	9.08734E-003	9.26961E-003	5.72032E-004	...........
	8	2.325	9.14172E-003	9.33704E-003	5.68866E-004	...........
	9	2.58333	9.20168E-003	9.40442E-003	5.68832E-004	...........
	10	2.84167	9.26554E-003	9.47306E-003	5.68799E-004	...........
	11	3.1	9.33187E-003	9.54364E-003	5.65499E-004	...........
	12	3.35833	9.39966E-003	9.61081E-003	5.67132E-004	...........
	13	3.61667	9.46822E-003	9.67960E-003	5.69866E-004	...........
	14	3.875	9.53701E-003	9.74771E-003	5.67632E-004	...........
	15	4.13333	9.60564E-003	9.81513E-003	5.66132E-004	...........
	16	4.39167	9.67398E-003	9.88150E-003	5.65932E-004	...........
	17	4.65	9.74190E-003	9.94845E-003	5.64832E-004	...........
	18	4.90833	9.80933E-003	1.00138E-002	5.66099E-004	...........
EOC	QUANT	0.0098093	Open Circuit (V)
PSTATMODEL	IQUANT	4	Pstat Model
PSTATSECTION	LABEL	REF600-11020	Pstat Section
PSTATSERIALNO	LABEL	11020	Pstat Serial Number
CTRLMODE	IQUANT	1	Control Mode
IESTAB	IQUANT	0	I/E Stability
CASPEED	IQUANT	1	Control Amp Speed
CONVENTION	IQUANT	1	Current Convention
ICHRANGE	IQUANT	2	Ich Range
ICHRANGEMODE	TOGGLE	F	Ich Auto Range
ICHOFFSETENABLE	TOGGLE	T	Ich Offset Enable
ICHOFFSET	QUANT	0	Ich Offset (V)
ICHFILTER	IQUANT	3	Ich Filter
VCHRANGE	IQUANT	2	Vch Range
VCHRANGEMODE	TOGGLE	F	Vch Auto Range
VCHOFFSETENABLE	TOGGLE	T	Vch Offset Enable
VCHOFFSET	QUANT	0	Vch Offset (V)
VCHFILTER	IQUANT	3	Vch Filter
ACHRANGE	IQUANT	2	Ach Range
ACHOFFSETENABLE	TOGGLE	F	Ach Offset Enable
ACHOFFSET	QUANT	0	Ach Offset (V)
ACHFILTER	IQUANT	3	Ach Filter
IERANGELOWERLIMIT	IQUANT	1	I/E Range Lower Limit
IERANGEMODE	TOGGLE	F	I/E AutoRange
IERANGE	IQUANT	3	I/E Range
POSFEEDENABLE	TOGGLE	F	Positive Feedback IR Comp
POSFEEDRESISTANCE	QUANT	0	Positive Feedback Resistance (ohm)
ACHSELECT	IQUANT	0	Ach Select
CABLEID	IQUANT	14	Cable ID
DCCALDATE	LABEL	8/19/2019	DC Calibration Date
ACCALDATE	LABEL	8/19/2019	AC Calibration Date
THERMOSELECT	IQUANT	1	Thermo Select
FRAMEWORKVERSION	QUANT	6.33	Framework Version
INSTRUMENTVERSION	LABEL	3.50	Instrument Version
ZCURVE	TABLE
	Pt	Time	Freq	Zreal	Zimag	Zsig	Zmod	Zphz	Idc	Vdc	IERange
	#	s	Hz	ohm	ohm	V	ohm	°	A	V	#
	0	2	1000078	2300.837	-1554.734	1	2776.877	-34.04789	3.913803E-007	0.0118202	8
	1	3	794390.6	2602.159	-1458.281	1	2982.921	-29.26679	-2.68144E-006	0.0122401	8
	2	4	630984.4	2873.169	-1321.754	1	3162.615	-24.70402	1.187993E-006	0.0114353	8
	3	6	501234.4	3077.057	-1175.6	1	3293.981	-20.90952	5.99062E-009	0.0114129	8
	4	7	398109.4	3228.323	-1016.566	1	3384.594	-17.47868	3.342504E-006	0.0108877	8
	5	8	316265.6	3355.968	-883.7351	1	3470.376	-14.75291	-2.237522E-006	0.0118521	8
	6	10	251203.1	3441.946	-765.2419	1	3525.987	-12.5346	1.435947E-006	0.0110693	8
	7	11	199546.9	3506.646	-660.0753	1	3568.23	-10.66036	1.590336E-007	0.0113401	8
	8	12	158578.1	3561.763	-589.5247	1	3610.221	-9.398098	-2.027605E-006	0.0118596	8
	9	14	125953.1	3622.541	-504.0139	1	3657.436	-7.920867	4.700763E-007	0.0104949	7
	10	15	100078.1	3655.703	-463.1121	1	3684.921	-7.21989	5.015135E-008	0.0112876	7
	11	16	79453.13	3689.881	-443.6294	1	3716.454	-6.855687	-3.704024E-008	0.0114472	7
	12	18	63140.62	3725.773	-437.0516	1	3751.32	-6.690501	1.839546E-008	0.0113659	7
	13	19	50203.12	3761.088	-440.2148	1	3786.762	-6.675785	-2.139277E-008	0.0114504	7
	14	20	39890.62	3794.978	-455.2732	1	3822.189	-6.840926	-2.682944E-008	0.011397	7
	15	22	31640.63	3836.672	-481.6906	1	3866.792	-7.155989	-1.23884E-008	0.0114679	7
	16	23	25171.88	3877.532	-519.4573	1	3912.172	-7.630255	3.830755E-008	0.0113749	7
	17	24	20015.62	3920.823	-570.6857	1	3962.138	-8.281391	2.989547E-008	0.0112887	7
	18	25	15890.62	3967.191	-636.1122	1	4017.865	-9.10945	7.893652E-008	0.0112622	7
	19	27	12609.37	4020.925	-719.2285	1	4084.743	-10.14133	-8.451937E-009	0.0114122	7
	20	28	10078.13	4076.815	-819.8817	1	4158.44	-11.37098	-3.739027E-008	0.0114308	7
	21	29	8015.625	4139.647	-942.7083	1	4245.63	-12.829	3.095499E-008	0.0112877	7
	22	31	6328.125	4211.679	-1100.287	1	4353.03	-14.6411	-2.199911E-008	0.0114442	7
	23	32	5015.625	4293.462	-1290.836	1	4483.311	-16.73349	-1.46903E-008	0.011369	7
	24	33	3984.375	4386.542	-1519.637	1	4642.311	-19.10771	-2.499325E-008	0.0113851	7
	25	35	3170.956	4492.641	-1795.238	1	4838.047	-21.78142	-2.743263E-008	0.0113816	7
	26	36	2527.573	4617.163	-2125.267	1	5082.81	-24.71648	-2.294926E-008	0.0114381	7
	27	37	1976.103	4776.082	-2559.283	1	5418.568	-28.18482	3.049866E-008	0.0112791	7
	28	39	1577.524	4950.969	-3041.299	1	5810.473	-31.56172	7.926002E-008	0.0112621	7
	29	40	1265.625	5154.15	-3604.243	1	6289.342	-34.96469	-2.30383E-008	0.0113899	7
	30	41	998.264	5413.931	-4329.043	1	6931.902	-38.64624	-7.694776E-010	0.0113226	7
	31	43	796.875	5708.502	-5151.852	1	7689.511	-42.06586	-2.407831E-008	0.0113879	7
	32	44	627.7902	6083.282	-6197.175	1	8683.968	-45.53137	4.038613E-008	0.0113729	7
	33	45	505.5147	6470.459	-7343.793	1	9787.65	-48.61741	-7.038172E-009	0.0113899	7
	34	47	397.9953	7009.508	-8838.271	1	11280.44	-51.58256	5.386903E-010	0.0113279	6
	35	48	315.5048	7611.017	-10597.32	1	13047.25	-54.31402	9.281927E-010	0.0113321	6
	36	49	252.4038	8293.231	-12625.77	1	15105.89	-56.70111	7.226785E-010	0.011326	6
	37	51	198.6229	9164.977	-15253.28	1	17794.93	-59.00033	8.131156E-010	0.0113302	6
	38	52	158.3615	10149.84	-18256.07	1	20887.87	-60.92722	8.816994E-010	0.0113197	6
	39	53	125.558	11355.92	-21964.33	1	24726.28	-62.6603	7.23802E-010	0.0113219	6
	40	55	100.4464	12761.5	-26261.57	1	29198.05	-64.08311	5.273793E-010	0.0113244	6
	41	56	79.00281	14601.46	-31842.01	1	35030.21	-65.36572	5.9807E-010	0.0113198	6
	42	57	63.3446	16539.37	-37942.43	1	41390.57	-66.44727	4.310703E-010	0.0113198	6
	43	59	49.86702	19426.18	-46030.49	1	49961.81	-67.11887	6.189078E-010	0.0113142	6
	44	60	39.72458	22543.87	-55276.22	1	59696.62	-67.81239	7.718568E-010	0.0113168	6
	45	62	31.6723	26405.01	-66288.52	1	71354	-68.2809	3.892604E-010	0.0113189	6
	46	63	24.93351	31504.6	-80126.86	1	86097.93	-68.53604	5.242183E-010	0.0113137	6
	47	64	19.86229	37496.93	-95912	1	102981.2	-68.64691	5.309052E-010	0.0113231	6
	48	65	15.83615	44973.84	-114498.8	1	123014.8	-68.55566	-9.892913E-011	0.0113228	5
	49	67	12.40079	54556.44	-138214.4	1	148592.2	-68.45969	8.734597E-010	0.0113197	5
	50	68	9.93114	65485.16	-164450.9	1	177009.6	-68.28731	3.718146E-010	0.0113196	5
	51	70	7.944915	78838.61	-195136.8	1	210461.2	-68.00045	3.478368E-011	0.0113337	5
	52	71	6.317385	95866.2	-231792.8	1	250835.1	-67.5307	4.084839E-010	0.0113361	5
	53	73	5.008013	117012.8	-276451.1	1	300195.3	-67.05863	-7.638636E-011	0.011316	5
	54	76	3.945707	144297.8	-329566.4	1	359772	-66.3542	3.910303E-010	0.011331	5
	55	78	3.158693	175860	-387617.3	1	425645.3	-65.59644	-1.023883E-010	0.0113163	5
	56	81	2.504006	216797	-456211.1	1	505103.4	-64.58237	2.984935E-010	0.0113163	5
	57	84	1.998082	264201	-532623.1	1	594549.8	-63.61687	-2.397593E-010	0.0113653	5
	58	87	1.584686	322564.6	-621303.4	1	700047	-62.56283	1.351166E-010	0.0113641	5
	59	91	1.266892	388844.2	-716457.1	1	815175.2	-61.5099	-1.360311E-010	0.0113385	5
	60	95	0.999041	470348.1	-829353.9	1	953444	-60.44131	2.46585E-010	0.011334	5
