EXPLAIN
TAG	EISPOT
TITLE	LABEL	Potentiostatic EIS	Test &Identifier
DATE	LABEL	10/16/2019	Date
TIME	LABEL	9:15:57	Time
NOTES	NOTES	1	&Notes...
	
PSTAT	PSTAT	REF600-11020	Potentiostat
VDC	POTEN	0.00000E+000	T	DC &Voltage (V)
FREQINIT	QUANT	1.00000E+006	Initial Fre&q. (Hz)
FREQFINAL	QUANT	1.00000E+000	Final Fre&q. (Hz)
PTSPERDEC	QUANT	1.00000E+001	Points/&decade
VAC	QUANT	2.50000E+001	AC &Voltage (mV rms)
AREA	QUANT	1.00000E-002	&Area (cm^2)
CONDIT	TWOPARAM	T	5.00000E+000	0.00000E+000	Conditionin&g	Time(s)	E(V)
DELAY	TWOPARAM	T	5.00000E+000	0.00000E+000	Init. De&lay	Time(s)	Stab.(mV/s)
SPEED	SELECTOR	0	&Optimize for:
ZGUESS	QUANT	1.00000E+005	E&stimated Z (ohms)
OCVCURVE	TABLE	19
	Pt	T	Vf	Vm	Ach	Over
	#	s	V vs. Ref.	V	V	bits
	0	0.258333	1.17663E-003	1.17663E-003	5.43033E-004	...........
	1	0.516667	1.17238E-003	9.54244E-004	5.49066E-004	...........
	2	0.775	1.14487E-003	6.68868E-004	5.46099E-004	...........
	3	1.03333	1.06226E-003	3.92906E-004	5.45733E-004	...........
	4	1.29167	9.06559E-004	2.03075E-004	5.51499E-004	...........
	5	1.55	6.93623E-004	-2.00778E-005	5.54033E-004	...........
	6	1.80833	4.58466E-004	-2.07852E-004	5.47466E-004	...........
	7	2.06667	2.28401E-004	-3.80143E-004	5.47999E-004	...........
	8	2.325	1.37459E-005	-6.03514E-004	5.50733E-004	...........
	9	2.58333	-1.87603E-004	-7.74650E-004	5.44933E-004	...........
	10	2.84167	-3.79856E-004	-8.45800E-004	5.49866E-004	...........
	11	3.1	-5.58973E-004	-1.00387E-003	5.52266E-004	...........
	12	3.35833	-7.18199E-004	-1.14550E-003	5.52532E-004	...........
	13	3.61667	-8.60085E-004	-1.23719E-003	5.52299E-004	...........
	14	3.875	-9.92745E-004	-1.40997E-003	5.46433E-004	...........
	15	4.13333	-1.12287E-003	-1.55635E-003	5.48799E-004	...........
	16	4.39167	-1.25522E-003	-1.63589E-003	5.47966E-004	...........
	17	4.65	-1.38929E-003	-1.79548E-003	5.51733E-004	...........
	18	4.90833	-1.52104E-003	-1.92260E-003	5.45466E-004	...........
EOC	QUANT	-0.001521	Open Circuit (V)
PSTATMODEL	IQUANT	4	Pstat Model
PSTATSECTION	LABEL	REF600-11020	Pstat Section
PSTATSERIALNO	LABEL	11020	Pstat Serial Number
CTRLMODE	IQUANT	1	Control Mode
IESTAB	IQUANT	0	I/E Stability
CASPEED	IQUANT	1	Control Amp Speed
CONVENTION	IQUANT	1	Current Convention
ICHRANGE	IQUANT	2	Ich Range
ICHRANGEMODE	TOGGLE	F	Ich Auto Range
ICHOFFSETENABLE	TOGGLE	T	Ich Offset Enable
ICHOFFSET	QUANT	0	Ich Offset (V)
ICHFILTER	IQUANT	3	Ich Filter
VCHRANGE	IQUANT	2	Vch Range
VCHRANGEMODE	TOGGLE	F	Vch Auto Range
VCHOFFSETENABLE	TOGGLE	T	Vch Offset Enable
VCHOFFSET	QUANT	0	Vch Offset (V)
VCHFILTER	IQUANT	3	Vch Filter
ACHRANGE	IQUANT	2	Ach Range
ACHOFFSETENABLE	TOGGLE	F	Ach Offset Enable
ACHOFFSET	QUANT	0	Ach Offset (V)
ACHFILTER	IQUANT	3	Ach Filter
IERANGELOWERLIMIT	IQUANT	1	I/E Range Lower Limit
IERANGEMODE	TOGGLE	F	I/E AutoRange
IERANGE	IQUANT	4	I/E Range
POSFEEDENABLE	TOGGLE	F	Positive Feedback IR Comp
POSFEEDRESISTANCE	QUANT	0	Positive Feedback Resistance (ohm)
ACHSELECT	IQUANT	0	Ach Select
CABLEID	IQUANT	14	Cable ID
DCCALDATE	LABEL	8/19/2019	DC Calibration Date
ACCALDATE	LABEL	8/19/2019	AC Calibration Date
THERMOSELECT	IQUANT	1	Thermo Select
FRAMEWORKVERSION	QUANT	6.33	Framework Version
INSTRUMENTVERSION	LABEL	3.50	Instrument Version
ZCURVE	TABLE
	Pt	Time	Freq	Zreal	Zimag	Zsig	Zmod	Zphz	Idc	Vdc	IERange
	#	s	Hz	ohm	ohm	V	ohm	°	A	V	#
	0	1	1000078	2299.796	-939.5715	1	2484.322	-22.22226	2.652902E-006	8.715537E-005	8
	1	1	794390.6	2456.752	-848.9841	1	2599.309	-19.0637	8.043661E-008	0.0003875	8
	2	2	630984.4	2583.346	-760.142	1	2692.859	-16.39636	-1.524258E-006	0.0005565	8
	3	2	501234.4	2676.339	-678.7189	1	2761.059	-14.2302	4.104789E-006	-0.000654	8
	4	2	398109.4	2762.947	-583.5258	1	2823.894	-11.92544	-6.641836E-007	0.0001161	8
	5	3	316265.6	2832.563	-512.2495	1	2878.509	-10.25076	1.519354E-006	-0.0001994	8
	6	3	251203.1	2880.9	-444.324	1	2914.963	-8.767699	-3.060642E-007	6.388682E-005	8
	7	3	199546.9	2924.744	-391.9341	1	2950.888	-7.632524	5.696283E-007	-8.683701E-005	8
	8	4	158578.1	2959.911	-342.3769	1	2979.647	-6.598156	5.946323E-007	-0.0000986	8
	9	4	125953.1	2997.427	-260.314	1	3008.709	-4.963446	4.983302E-009	0.0002187	7
	10	4	100078.1	3023.917	-231.7776	1	3032.787	-4.383044	3.302093E-008	7.833458E-006	7
	11	5	79453.13	3044.638	-216.6278	1	3052.335	-4.06977	-5.712577E-008	0.0001211	7
	12	5	63140.62	3063.048	-206.6694	1	3070.012	-3.86	5.932603E-008	-8.533705E-005	7
	13	5	50203.12	3080.628	-199.9158	1	3087.108	-3.712974	4.874494E-008	-3.986904E-005	7
	14	6	39890.62	3097.896	-196.8444	1	3104.143	-3.635762	9.725152E-008	-0.0001053	7
	15	6	31640.63	3113.315	-198.4332	1	3119.632	-3.646924	6.000425E-008	-8.45793E-005	7
	16	6	25171.88	3128.097	-205.6352	1	3134.849	-3.761105	6.027147E-008	-8.668858E-005	7
	17	6	20015.62	3135.698	-230.8234	1	3144.182	-4.210034	-1.025373E-008	7.887912E-005	7
	18	7	15890.62	3156.716	-239.0792	1	3165.756	-4.331124	-3.48993E-008	0.0001139	7
	19	7	12609.37	3171.149	-267.269	1	3182.392	-4.817585	-5.486608E-008	0.0001318	7
	20	7	10078.13	3187.969	-304.5864	1	3202.487	-5.457613	-8.98952E-009	5.9037E-006	7
	21	8	8015.625	3217.726	-339.82	1	3235.62	-6.028589	3.183165E-008	1.47414E-006	7
	22	8	6328.125	3224.762	-414.2776	1	3251.264	-7.320557	-5.560213E-008	0.0001388	7
	23	8	5015.625	3247.465	-492.4456	1	3284.59	-8.622643	7.57525E-009	-2.327548E-005	7
	24	9	3984.375	3271.912	-606.6202	1	3327.671	-10.50351	-5.77149E-008	0.0001042	7
	25	9	3170.956	3301.414	-703.1997	1	3375.474	-12.02428	5.984331E-008	-0.0000966	7
	26	9	2527.573	3334.659	-844.8314	1	3440.013	-14.21668	3.255051E-008	-9.275683E-006	7
	27	10	1976.103	3376.49	-1035.741	1	3531.777	-17.05344	-5.756799E-008	0.000205	7
	28	10	1577.524	3428.75	-1261.179	1	3653.341	-20.19476	-8.74731E-009	1.863013E-005	7
	29	10	1265.625	3473.962	-1507.9	1	3787.107	-23.46362	-7.426792E-009	-2.679892E-007	7
	30	11	998.264	3539.084	-1849.403	1	3993.17	-27.59002	9.783195E-008	-0.0001201	7
	31	11	796.875	3612.925	-2249.361	1	4255.92	-31.90586	7.752384E-008	-3.851745E-005	7
	32	11	627.7902	3708.751	-2769.654	1	4628.803	-36.75197	-7.604267E-009	-2.894762E-006	7
	33	12	505.5147	3811.486	-3351.242	1	5075.258	-41.32349	-5.96777E-008	0.0001984	7
	34	12	397.9953	3955.876	-4144.11	1	5729.101	-46.33125	2.871374E-009	4.883306E-005	7
	35	12	315.5048	4128.828	-5095.006	1	6557.919	-50.97982	4.751497E-009	4.697625E-005	7
	36	13	252.4038	4337.546	-6216.386	1	7580.09	-55.0942	2.640343E-009	4.941568E-005	7
	37	13	198.6229	4625.395	-7700.433	1	8982.813	-59.00816	3.507249E-009	4.742353E-005	7
	38	13	158.3615	4977.601	-9427.007	1	10660.44	-62.16528	-7.97519E-012	-1.611959E-005	6
	39	13	125.558	5444.97	-11590.97	1	12806.19	-64.83776	1.056302E-009	-1.562485E-005	6
	40	14	100.4464	6015.133	-14137.14	1	15363.61	-66.951	1.086876E-009	-1.376481E-005	6
	41	14	79.00281	6849.187	-17493.04	1	18786.1	-68.61777	-7.801582E-011	-1.747387E-005	6
	42	14	63.3446	7800.754	-21048.72	1	22447.73	-69.66506	6.983202E-010	-1.990077E-005	6
	43	15	49.86702	9252.775	-25946.08	1	27546.56	-70.37298	9.134746E-010	-2.026023E-005	6
	44	15	39.72458	11019.84	-31696.13	1	33557.14	-70.82889	4.952601E-010	-1.295551E-005	6
	45	16	31.6723	13425.54	-38408.11	1	40686.96	-70.73294	-4.318947E-010	-1.723568E-005	6
	46	16	24.93351	16600.26	-46691.05	1	49554.24	-70.42797	1.339935E-009	-1.682275E-005	6
	47	16	19.86229	20568	-56048.44	1	59703.19	-69.84846	2.492585E-009	-9.440102E-006	6
	48	16	15.83615	25883.26	-67710.39	1	72488.9	-69.07993	-2.343211E-009	-2.018203E-005	6
	49	17	12.40079	32953.9	-80737.61	1	87203.91	-67.79666	-2.511717E-010	-1.460914E-005	6
	50	17	9.93114	40596.41	-94752.72	1	103083.2	-66.80749	1.904058E-009	-1.652018E-005	5
	51	18	7.944915	50593.18	-110998.2	1	121984.7	-65.49641	1.254863E-009	-1.989323E-005	5
	52	18	6.317385	62789.36	-129693.1	1	144093.1	-64.16662	9.772863E-010	-2.538871E-005	5
	53	19	5.008013	77822.8	-150998.1	1	169873	-62.73391	8.781784E-010	-1.053395E-005	5
	54	20	3.945707	95952.5	-175649.7	1	200149.2	-61.35348	-8.78948E-011	-2.069176E-005	5
	55	21	3.158693	115197.6	-200489	1	231227.9	-60.11906	2.136371E-010	-3.498394E-005	5
	56	23	2.504006	138187.3	-229793.8	1	268143.5	-58.97927	5.901283E-010	-2.755341E-005	5
	57	24	1.998082	162588.4	-261030.9	1	307525.8	-58.08244	1.994642E-010	-4.657455E-005	5
	58	26	1.584686	191195.9	-298422.8	1	354417.9	-57.35281	1.26523E-012	-7.712137E-005	5
	59	28	1.266892	220198.6	-339754.5	1	404871.1	-57.05229	6.53284E-011	-5.743689E-005	5
	60	30	0.999041	254126.8	-389887.1	1	465394.9	-56.90386	7.47257E-011	-2.566964E-005	5
