EXPLAIN
TAG	EISPOT
TITLE	LABEL	Potentiostatic EIS	Test &Identifier
DATE	LABEL	11/15/2019	Date
TIME	LABEL	12:15:42	Time
NOTES	NOTES	4	&Notes...
	
	
	
	
PSTAT	PSTAT	REF600-11020	Potentiostat
VDC	POTEN	0.00000E+000	T	DC &Voltage (V)
FREQINIT	QUANT	1.00000E+006	Initial Fre&q. (Hz)
FREQFINAL	QUANT	1.00000E+000	Final Fre&q. (Hz)
PTSPERDEC	QUANT	1.00000E+001	Points/&decade
VAC	QUANT	2.50000E+001	AC &Voltage (mV rms)
AREA	QUANT	1.00000E-002	&Area (cm^2)
CONDIT	TWOPARAM	T	5.00000E+000	0.00000E+000	Conditionin&g	Time(s)	E(V)
DELAY	TWOPARAM	T	5.00000E+000	0.00000E+000	Init. De&lay	Time(s)	Stab.(mV/s)
SPEED	SELECTOR	0	&Optimize for:
ZGUESS	QUANT	1.00000E+005	E&stimated Z (ohms)
OCVCURVE	TABLE	19
	Pt	T	Vf	Vm	Ach	Over
	#	s	V vs. Ref.	V	V	bits
	0	0.258333	2.91199E-003	2.91199E-003	5.63766E-004	...........
	1	0.516667	2.90024E-003	2.29719E-003	5.61999E-004	...........
	2	0.775	2.82897E-003	1.75888E-003	5.63866E-004	...........
	3	1.03333	2.63094E-003	1.28250E-003	5.63766E-004	...........
	4	1.29167	2.28593E-003	8.50228E-004	5.60632E-004	...........
	5	1.55	1.84334E-003	4.48254E-004	5.58632E-004	...........
	6	1.80833	1.37331E-003	7.09082E-005	5.59132E-004	...........
	7	2.06667	9.22293E-004	-2.35334E-004	5.55566E-004	...........
	8	2.325	5.09190E-004	-5.44062E-004	5.58966E-004	...........
	9	2.58333	1.36802E-004	-8.40792E-004	5.59866E-004	...........
	10	2.84167	-2.00965E-004	-1.12037E-003	5.61832E-004	...........
	11	3.1	-5.13428E-004	-1.37581E-003	5.62499E-004	...........
	12	3.35833	-8.07161E-004	-1.62530E-003	5.60399E-004	...........
	13	3.61667	-1.08462E-003	-1.85025E-003	5.64166E-004	...........
	14	3.875	-1.34650E-003	-2.07744E-003	5.59966E-004	...........
	15	4.13333	-1.59377E-003	-2.28640E-003	5.61799E-004	...........
	16	4.39167	-1.82814E-003	-2.49250E-003	5.68132E-004	...........
	17	4.65	-2.05132E-003	-2.68022E-003	5.60732E-004	...........
	18	4.90833	-2.26420E-003	-2.86554E-003	5.61266E-004	...........
EOC	QUANT	-0.0022642	Open Circuit (V)
PSTATMODEL	IQUANT	4	Pstat Model
PSTATSECTION	LABEL	REF600-11020	Pstat Section
PSTATSERIALNO	LABEL	11020	Pstat Serial Number
CTRLMODE	IQUANT	1	Control Mode
IESTAB	IQUANT	0	I/E Stability
CASPEED	IQUANT	1	Control Amp Speed
CONVENTION	IQUANT	1	Current Convention
ICHRANGE	IQUANT	2	Ich Range
ICHRANGEMODE	TOGGLE	F	Ich Auto Range
ICHOFFSETENABLE	TOGGLE	T	Ich Offset Enable
ICHOFFSET	QUANT	0	Ich Offset (V)
ICHFILTER	IQUANT	3	Ich Filter
VCHRANGE	IQUANT	2	Vch Range
VCHRANGEMODE	TOGGLE	F	Vch Auto Range
VCHOFFSETENABLE	TOGGLE	T	Vch Offset Enable
VCHOFFSET	QUANT	0	Vch Offset (V)
VCHFILTER	IQUANT	3	Vch Filter
ACHRANGE	IQUANT	2	Ach Range
ACHOFFSETENABLE	TOGGLE	F	Ach Offset Enable
ACHOFFSET	QUANT	0	Ach Offset (V)
ACHFILTER	IQUANT	3	Ach Filter
IERANGELOWERLIMIT	IQUANT	1	I/E Range Lower Limit
IERANGEMODE	TOGGLE	F	I/E AutoRange
IERANGE	IQUANT	4	I/E Range
POSFEEDENABLE	TOGGLE	F	Positive Feedback IR Comp
POSFEEDRESISTANCE	QUANT	0	Positive Feedback Resistance (ohm)
ACHSELECT	IQUANT	0	Ach Select
CABLEID	IQUANT	14	Cable ID
DCCALDATE	LABEL	8/19/2019	DC Calibration Date
ACCALDATE	LABEL	8/19/2019	AC Calibration Date
THERMOSELECT	IQUANT	1	Thermo Select
FRAMEWORKVERSION	QUANT	6.33	Framework Version
INSTRUMENTVERSION	LABEL	3.50	Instrument Version
ZCURVE	TABLE
	Pt	Time	Freq	Zreal	Zimag	Zsig	Zmod	Zphz	Idc	Vdc	IERange
	#	s	Hz	ohm	ohm	V	ohm	°	A	V	#
	0	1	1000078	2408.297	-2064.193	1	3171.874	-40.60045	3.994685E-006	-0.0010589	8
	1	1	794390.6	2810.729	-2099.613	1	3508.357	-36.75972	1.593753E-006	-0.0009967	8
	2	1	630984.4	3236.605	-2053.655	1	3833.16	-32.39549	-8.061244E-006	0.0006562	8
	3	2	501234.4	3606.676	-1962.163	1	4105.874	-28.5478	-4.467675E-007	-0.0001253	8
	4	2	398109.4	3960.608	-1842.426	1	4368.174	-24.94727	-3.106267E-006	-4.347244E-005	8
	5	2	316265.6	4240.888	-1695.507	1	4567.261	-21.79153	-2.557952E-006	-0.0007521	8
	6	3	251203.1	4476.692	-1541.506	1	4734.661	-19.00065	-3.391613E-007	-0.0002161	8
	7	3	199546.9	4688.49	-1405.504	1	4894.627	-16.68755	6.016468E-006	-0.0013915	8
	8	3	158578.1	4870.05	-1268.765	1	5032.609	-14.60233	-1.503485E-006	-0.0002891	8
	9	4	125953.1	5016.205	-1116.538	1	5138.966	-12.54868	-8.392265E-007	0.0030153	7
	10	4	100078.1	5116.388	-1036.198	1	5220.261	-11.44899	-1.355851E-006	0.0004549	7
	11	4	79453.13	5225.352	-999.707	1	5320.124	-10.83087	5.732476E-007	-0.0026258	7
	12	5	63140.62	5317.018	-976.109	1	5405.873	-10.40264	-3.168955E-007	-0.0017272	7
	13	5	50203.12	5416.109	-982.267	1	5504.46	-10.27945	1.126607E-006	-0.0014912	7
	14	5	39890.62	5497.791	-995.944	1	5587.272	-10.26797	-1.376349E-006	0.0008657	7
	15	6	31640.63	5609.62	-1045.15	1	5706.152	-10.55399	8.990154E-007	-0.0027452	7
	16	6	25171.88	5698.969	-1107.054	1	5805.499	-10.99309	-1.156319E-006	-0.0002059	7
	17	6	20015.62	5809.542	-1194.61	1	5931.094	-11.61971	-1.15857E-006	-0.0002078	7
	18	7	15890.62	5949.581	-1310.782	1	6092.262	-12.42463	1.1186E-006	-0.0026398	7
	19	7	12609.37	6087.383	-1443.222	1	6256.126	-13.33766	8.958389E-007	-0.0027492	7
	20	7	10078.13	6232.6	-1607.067	1	6436.456	-14.45869	8.98817E-007	-0.0027503	7
	21	8	8015.625	6401.499	-1800.915	1	6649.998	-15.71273	8.953822E-007	-0.002754	7
	22	8	6328.125	6593.84	-2034.162	1	6900.475	-17.1447	6.624608E-007	-0.0004694	7
	23	8	5015.625	6814.011	-2312.721	1	7195.792	-18.74756	1.235882E-006	-0.0019945	7
	24	9	3984.375	7054.287	-2629.15	1	7528.306	-20.44055	5.687122E-007	-0.0026422	7
	25	9	3170.956	7328.963	-2996.618	1	7917.918	-22.23835	1.540221E-007	-0.0023207	7
	26	9	2527.573	7654.187	-3420.656	1	8383.762	-24.07987	1.227757E-006	-0.002375	7
	27	10	1976.103	8031.804	-3938.135	1	8945.322	-26.11953	-3.465187E-007	0.0007776	7
	28	10	1577.524	8444.511	-4519.297	1	9577.78	-28.15461	1.235912E-006	-0.0020001	7
	29	10	1265.625	8929.844	-5122.484	1	10294.75	-29.84016	5.713724E-007	-0.0026505	7
	30	11	998.264	9495.096	-5858.515	1	11157.02	-31.67476	-1.859969E-007	-0.0001023	6
	31	11	796.875	10118.85	-6662.686	1	12115.38	-33.36264	1.970945E-007	-0.0023694	6
	32	11	627.7902	10817.26	-7620.62	1	13232.04	-35.16421	1.399663E-007	-0.0007785	6
	33	11	505.5147	11484.32	-8604.357	1	14350.08	-36.84152	-2.281482E-007	0.0010989	6
	34	12	397.9953	12255.45	-9886.98	1	15746.38	-38.89457	7.071589E-010	-0.0007901	6
	35	12	315.5048	13002.42	-11387.26	1	17283.89	-41.21124	1.878048E-010	-0.0007979	6
	36	12	252.4038	13712.37	-13163.74	1	19008.24	-43.83055	4.07201E-010	-0.0008027	6
	37	13	198.6229	14490.88	-15556.96	1	21260.4	-47.03196	5.14239E-010	-0.0007892	6
	38	13	158.3615	15278.21	-18400.01	1	23916.19	-50.29589	8.673979E-010	-0.0007935	6
	39	13	125.558	16168.29	-22071.57	1	27359.97	-53.77575	6.397666E-011	-0.0007897	6
	40	14	100.4464	17127.98	-26504.67	1	31557.33	-57.12845	1.230594E-009	-0.0007941	6
	41	14	79.00281	18425.91	-32511.32	1	37369.78	-60.45744	4.324244E-010	-0.0008071	6
	42	14	63.3446	20102.08	-38679.77	1	43591.49	-62.53886	3.207445E-010	-0.0007945	6
	43	15	49.86702	22333.67	-47858.76	1	52813.38	-64.98352	1.231095E-009	-0.0008054	6
	44	15	39.72458	24772.16	-58714.52	1	63726.4	-67.12469	1.13284E-009	-0.0008028	6
	45	15	31.6723	28238.51	-71565.69	1	76935.44	-68.46671	3.400793E-010	-0.000803	6
	46	16	24.93351	33448.27	-87885.69	1	94035.53	-69.16376	-2.696341E-010	-0.0007984	6
	47	16	19.86229	39676.68	-106486	1	113637.6	-69.56461	-5.469518E-010	-0.0008048	5
	48	16	15.83615	49881.65	-128617.6	1	137951.7	-68.80225	2.258735E-009	-0.0007995	5
	49	17	12.40079	60895.21	-156922.4	1	168323.7	-68.79079	-5.846418E-010	-0.0008007	5
	50	17	9.93114	74281.92	-186995.6	1	201209.3	-68.3351	6.102929E-010	-0.0007858	5
	51	18	7.944915	92958.1	-220656.5	1	239437.9	-67.1553	6.103986E-010	-0.0008038	5
	52	18	6.317385	115899.9	-260788.2	1	285382.6	-66.0386	5.278716E-010	-0.0008052	5
	53	19	5.008013	145133.5	-306201.1	1	338855.2	-64.63994	3.275556E-010	-0.0008114	5
	54	20	3.945707	179995	-356983.8	1	399794.5	-63.24227	2.464649E-010	-0.0007977	5
	55	21	3.158693	217245.4	-411656.3	1	465463.7	-62.17782	4.822804E-011	-0.000796	5
	56	23	2.504006	260236.4	-474488.8	1	541167.8	-61.25715	1.48908E-010	-0.0008094	5
	57	24	1.998082	306378.5	-544410	1	624699.9	-60.63042	2.814231E-010	-0.0007652	5
	58	26	1.584686	356060.7	-627577.3	1	721548.7	-60.43126	1.895677E-010	-0.0007925	5
	59	28	1.266892	411505.9	-722747.6	1	831685.8	-60.3444	1.419363E-010	-0.0008306	5
	60	30	0.999041	477717.8	-846129	1	971673	-60.55127	1.252032E-010	-0.0008454	5
