EXPLAIN
TAG	EISPOT
TITLE	LABEL	Potentiostatic IDE	Test &Identifier
DATE	LABEL	9/4/2019	Date
TIME	LABEL	11:03:43	Time
NOTES	NOTES	1	&Notes...
	
PSTAT	PSTAT	REF600-11020	Potentiostat
VDC	POTEN	0.00000E+000	T	DC &Voltage (V)
FREQINIT	QUANT	1.00000E+006	Initial Fre&q. (Hz)
FREQFINAL	QUANT	1.00000E+000	Final Fre&q. (Hz)
PTSPERDEC	QUANT	1.00000E+001	Points/&decade
VAC	QUANT	2.50000E+001	AC &Voltage (mV rms)
AREA	QUANT	1.00000E-002	&Area (cm^2)
CONDIT	TWOPARAM	T	5.00000E+000	0.00000E+000	Conditionin&g	Time(s)	E(V)
DELAY	TWOPARAM	T	5.00000E+000	0.00000E+000	Init. De&lay	Time(s)	Stab.(mV/s)
SPEED	SELECTOR	1	&Optimize for:
ZGUESS	QUANT	1.00000E+007	E&stimated Z (ohms)
OCVCURVE	TABLE	19
	Pt	T	Vf	Vm	Ach	Over
	#	s	V vs. Ref.	V	V	bits
	0	0.258333	9.17323E-002	9.17323E-002	5.33633E-004	...........
	1	0.516667	9.18142E-002	9.60184E-002	5.36266E-004	...........
	2	0.775	9.23150E-002	9.99732E-002	5.24800E-004	...........
	3	1.03333	9.37217E-002	1.03617E-001	5.35633E-004	...........
	4	1.29167	9.62108E-002	1.07011E-001	5.34733E-004	...........
	5	1.55	9.94680E-002	1.10167E-001	5.28433E-004	...........
	6	1.80833	1.03005E-001	1.13119E-001	5.30700E-004	...........
	7	2.06667	1.06473E-001	1.15885E-001	5.36066E-004	...........
	8	2.325	1.09727E-001	1.18490E-001	5.36133E-004	...........
	9	2.58333	1.12744E-001	1.20934E-001	5.33500E-004	...........
	10	2.84167	1.15551E-001	1.23249E-001	5.33133E-004	...........
	11	3.1	1.18178E-001	1.25435E-001	5.36666E-004	...........
	12	3.35833	1.20647E-001	1.27501E-001	5.32533E-004	...........
	13	3.61667	1.22977E-001	1.29464E-001	5.31100E-004	...........
	14	3.875	1.25179E-001	1.31332E-001	5.33800E-004	...........
	15	4.13333	1.27264E-001	1.33104E-001	5.34133E-004	...........
	16	4.39167	1.29241E-001	1.34805E-001	5.41099E-004	...........
	17	4.65	1.31120E-001	1.36421E-001	5.37066E-004	...........
	18	4.90833	1.32909E-001	1.37971E-001	5.35533E-004	...........
EOC	QUANT	0.1329089	Open Circuit (V)
PSTATMODEL	IQUANT	4	Pstat Model
PSTATSECTION	LABEL	REF600-11020	Pstat Section
PSTATSERIALNO	LABEL	11020	Pstat Serial Number
CTRLMODE	IQUANT	1	Control Mode
IESTAB	IQUANT	0	I/E Stability
CASPEED	IQUANT	1	Control Amp Speed
CONVENTION	IQUANT	1	Current Convention
ICHRANGE	IQUANT	2	Ich Range
ICHRANGEMODE	TOGGLE	F	Ich Auto Range
ICHOFFSETENABLE	TOGGLE	T	Ich Offset Enable
ICHOFFSET	QUANT	0	Ich Offset (V)
ICHFILTER	IQUANT	3	Ich Filter
VCHRANGE	IQUANT	2	Vch Range
VCHRANGEMODE	TOGGLE	F	Vch Auto Range
VCHOFFSETENABLE	TOGGLE	T	Vch Offset Enable
VCHOFFSET	QUANT	0	Vch Offset (V)
VCHFILTER	IQUANT	3	Vch Filter
ACHRANGE	IQUANT	2	Ach Range
ACHOFFSETENABLE	TOGGLE	F	Ach Offset Enable
ACHOFFSET	QUANT	0	Ach Offset (V)
ACHFILTER	IQUANT	3	Ach Filter
IERANGELOWERLIMIT	IQUANT	1	I/E Range Lower Limit
IERANGEMODE	TOGGLE	F	I/E AutoRange
IERANGE	IQUANT	4	I/E Range
POSFEEDENABLE	TOGGLE	F	Positive Feedback IR Comp
POSFEEDRESISTANCE	QUANT	0	Positive Feedback Resistance (ohm)
ACHSELECT	IQUANT	0	Ach Select
CABLEID	IQUANT	14	Cable ID
DCCALDATE	LABEL	8/19/2019	DC Calibration Date
ACCALDATE	LABEL	8/19/2019	AC Calibration Date
THERMOSELECT	IQUANT	1	Thermo Select
FRAMEWORKVERSION	QUANT	6.33	Framework Version
INSTRUMENTVERSION	LABEL	3.50	Instrument Version
ZCURVE	TABLE
	Pt	Time	Freq	Zreal	Zimag	Zsig	Zmod	Zphz	Idc	Vdc	IERange
	#	s	Hz	ohm	ohm	V	ohm	°	A	V	#
	0	2	1000078	2310.1	-1310.989	1	2656.173	-29.57504	1.181854E-005	0.1341349	8
	1	4	794390.6	2492.194	-1203.391	1	2767.523	-25.77423	9.251694E-006	0.1346232	8
	2	5	630984.4	2687.082	-1082.644	1	2896.986	-21.94485	1.226815E-005	0.1341059	8
	3	7	501234.4	2823.247	-972.362	1	2986.003	-19.00435	1.264926E-005	0.1337342	8
	4	8	398109.4	2944.272	-875.5255	1	3071.691	-16.56067	1.082584E-005	0.1341774	8
	5	10	316265.6	3039.224	-755.4149	1	3131.698	-13.9583	1.232141E-005	0.1338456	8
	6	11	251203.1	3099.875	-704.9988	1	3179.033	-12.81273	1.261702E-005	0.133711	8
	7	13	199546.9	3170.444	-664.6669	1	3239.367	-11.84028	1.051476E-005	0.1342199	8
	8	14	158578.1	3223.681	-634.36	1	3285.503	-11.1325	1.085461E-005	0.1341639	8
	9	16	125953.1	3282.925	-614.1995	1	3339.886	-10.59691	8.445261E-007	0.1342422	7
	10	18	100078.1	3327.434	-610.7725	1	3383.025	-10.40123	1.061158E-006	0.1342562	7
	11	19	79453.13	3377.752	-641.0614	1	3438.047	-10.74632	1.033759E-006	0.1343158	7
	12	20	63140.62	3430.736	-686.4478	1	3498.737	-11.31476	1.042251E-006	0.1342848	7
	13	22	50203.12	3490.067	-747.6753	1	3569.255	-12.09168	1.058848E-006	0.1342865	7
	14	23	39890.62	3553.858	-828.6277	1	3649.182	-13.12476	1.042582E-006	0.1342847	7
	15	24	31640.63	3629.804	-931.7949	1	3747.495	-14.39733	1.041866E-006	0.1342869	7
	16	26	25171.88	3712.694	-1057.943	1	3860.484	-15.90506	1.100232E-006	0.1341755	7
	17	27	20015.62	3806.281	-1209.665	1	3993.878	-17.63065	1.040616E-006	0.1342825	7
	18	28	15890.62	3913.238	-1391.264	1	4153.197	-19.5717	1.050452E-006	0.1342549	7
	19	30	12609.37	4043.407	-1611.457	1	4352.693	-21.72922	1.098047E-006	0.13416	7
	20	31	10078.13	4182.394	-1863.777	1	4578.873	-24.01892	1.047978E-006	0.1342816	7
	21	32	8015.625	4348.94	-2165.406	1	4858.216	-26.46943	1.067742E-006	0.1342458	7
	22	34	6328.125	4550.692	-2537.286	1	5210.242	-29.14231	1.052036E-006	0.1342626	7
	23	35	5015.625	4780.752	-2966.753	1	5626.475	-31.82216	1.052888E-006	0.1342634	7
	24	36	3984.375	5044.955	-3468.518	1	6122.27	-34.50939	1.05116E-006	0.1342587	7
	25	38	3170.956	5354.538	-4058.042	1	6718.54	-37.15738	1.036808E-006	0.1342874	7
	26	39	2527.573	5711.153	-4737.018	1	7420.014	-39.67343	1.064368E-006	0.1342364	7
	27	41	1976.103	6165.015	-5626.801	1	8346.754	-42.38666	1.065061E-006	0.1342778	7
	28	42	1577.524	6657.203	-6560.618	1	9346.66	-44.58134	1.055869E-006	0.1342451	7
	29	43	1265.625	7232.542	-7665.694	1	10539.09	-46.66536	1.065411E-006	0.134281	7
	30	45	998.264	7961.312	-9037.3	1	12043.89	-48.62191	1.092586E-006	0.1342075	7
	31	46	796.875	8781.359	-10567.63	1	13739.98	-50.27451	9.820159E-008	0.1342602	6
	32	47	627.7902	9808.67	-12467.44	1	15863.39	-51.80634	1.056485E-007	0.1341954	6
	33	49	505.5147	10893.76	-14488.04	1	18126.7	-53.06	1.052487E-007	0.1342286	6
	34	50	397.9953	12315.28	-17069.76	1	21048.58	-54.19078	1.062327E-007	0.133853	6
	35	51	315.5048	13958.24	-20011.78	1	24398.85	-55.10419	1.062832E-007	0.1338548	6
	36	53	252.4038	15816.6	-23293.29	1	28155.67	-55.82273	1.059407E-007	0.1338514	6
	37	54	198.6229	18177.48	-27398.63	1	32880.17	-56.43792	1.060171E-007	0.1338456	6
	38	55	158.3615	20820.62	-31903.4	1	38096.27	-56.87096	1.058466E-007	0.1338497	6
	39	57	125.558	23963.55	-37256.57	1	44297.9	-57.25075	1.060578E-007	0.1338531	6
	40	58	100.4464	27477.29	-43242.71	1	51234.1	-57.5673	1.061962E-007	0.1338519	6
	41	59	79.00281	31850.59	-50647.3	1	59829.84	-57.83543	1.055948E-007	0.1338536	6
	42	61	63.3446	37287.7	-58443.87	1	69325.74	-57.46177	1.057936E-007	0.1338502	6
	43	62	49.86702	42192.5	-68426.95	1	80389.4	-58.34175	1.059418E-007	0.1338483	6
	44	64	39.72458	49125.76	-79265.78	1	93254.52	-58.21102	1.062515E-007	0.1338534	6
	45	65	31.6723	56184.5	-91878.84	1	107696	-58.55395	1.0629E-007	0.1338546	6
	46	66	24.93351	65155.79	-107584	1	125776	-58.79976	1.062773E-007	0.1338441	6
	47	68	19.86229	74827.9	-124950.2	1	145642.6	-59.08422	1.050951E-008	0.1338546	5
	48	69	15.83615	84408.75	-146230.3	1	168843.5	-60.0051	1.019915E-008	0.1338573	5
	49	70	12.40079	99608	-171092.7	1	197975.9	-59.79256	9.93411E-009	0.1338656	5
	50	72	9.93114	112733.4	-200488.1	1	230009.3	-60.65118	1.066883E-008	0.1338565	5
	51	73	7.944915	128933.5	-234151.9	1	267303.2	-61.16104	1.040676E-008	0.1338511	5
	52	75	6.317385	148023.7	-275777.4	1	312992.3	-61.77528	1.05566E-008	0.1338714	5
	53	77	5.008013	170699.2	-325801.1	1	367810.5	-62.3483	1.07721E-008	0.1338569	5
	54	79	3.945707	198357.4	-387586.8	1	435395.4	-62.89775	1.065734E-008	0.1338522	5
	55	82	3.158693	228867.8	-456602.8	1	510751	-63.37811	1.077373E-008	0.1338667	5
	56	85	2.504006	267868.2	-542468.6	1	605000.5	-63.72008	1.040353E-008	0.1341409	5
	57	88	1.998082	313539.8	-639377.3	1	712116.9	-63.87745	1.059434E-008	0.1341015	5
	58	91	1.584686	369152.6	-759928.4	1	844846	-64.09077	1.052572E-008	0.1341087	5
	59	95	1.266892	438520.7	-894115.8	1	995863	-63.87428	1.061316E-008	0.1340994	5
	60	99	0.999041	526088.6	-1062323	1	1185453	-63.65424	1.054816E-008	0.1341689	5
