EXPLAIN
TAG	EISPOT
TITLE	LABEL	Potentiostatic EIS	Test &Identifier
DATE	LABEL	10/12/2019	Date
TIME	LABEL	11:32:25	Time
NOTES	NOTES	1	&Notes...
	
PSTAT	PSTAT	REF600-11020	Potentiostat
VDC	POTEN	0.00000E+000	T	DC &Voltage (V)
FREQINIT	QUANT	1.00000E+006	Initial Fre&q. (Hz)
FREQFINAL	QUANT	1.00000E+000	Final Fre&q. (Hz)
PTSPERDEC	QUANT	1.00000E+001	Points/&decade
VAC	QUANT	2.50000E+001	AC &Voltage (mV rms)
AREA	QUANT	1.00000E-002	&Area (cm^2)
CONDIT	TWOPARAM	T	5.00000E+000	0.00000E+000	Conditionin&g	Time(s)	E(V)
DELAY	TWOPARAM	T	5.00000E+000	0.00000E+000	Init. De&lay	Time(s)	Stab.(mV/s)
SPEED	SELECTOR	1	&Optimize for:
ZGUESS	QUANT	1.00000E+004	E&stimated Z (ohms)
OCVCURVE	TABLE	19
	Pt	T	Vf	Vm	Ach	Over
	#	s	V vs. Ref.	V	V	bits
	0	0.258333	3.43707E-003	3.43707E-003	5.58432E-004	...........
	1	0.516667	3.43226E-003	3.18504E-003	5.62099E-004	...........
	2	0.775	3.40329E-003	2.97728E-003	5.62899E-004	...........
	3	1.03333	3.32340E-003	2.78249E-003	5.62899E-004	...........
	4	1.29167	3.18447E-003	2.58496E-003	5.60266E-004	...........
	5	1.55	3.00539E-003	2.45534E-003	5.54366E-004	...........
	6	1.80833	2.81457E-003	2.29212E-003	5.57466E-004	...........
	7	2.06667	2.63214E-003	2.14103E-003	5.55199E-004	...........
	8	2.325	2.46453E-003	2.03020E-003	5.58799E-004	...........
	9	2.58333	2.31048E-003	1.88575E-003	5.57632E-004	...........
	10	2.84167	2.16777E-003	1.78219E-003	5.60832E-004	...........
	11	3.1	2.03489E-003	1.68626E-003	5.55099E-004	...........
	12	3.35833	1.91113E-003	1.55161E-003	5.57599E-004	...........
	13	3.61667	1.79500E-003	1.47261E-003	5.62066E-004	...........
	14	3.875	1.68414E-003	1.36521E-003	5.59866E-004	...........
	15	4.13333	1.57767E-003	1.27383E-003	5.58366E-004	...........
	16	4.39167	1.47588E-003	1.19516E-003	5.60732E-004	...........
	17	4.65	1.37906E-003	1.10584E-003	5.60766E-004	...........
	18	4.90833	1.28765E-003	1.04557E-003	5.57833E-004	...........
EOC	QUANT	0.0012877	Open Circuit (V)
PSTATMODEL	IQUANT	4	Pstat Model
PSTATSECTION	LABEL	REF600-11020	Pstat Section
PSTATSERIALNO	LABEL	11020	Pstat Serial Number
CTRLMODE	IQUANT	1	Control Mode
IESTAB	IQUANT	0	I/E Stability
CASPEED	IQUANT	1	Control Amp Speed
CONVENTION	IQUANT	1	Current Convention
ICHRANGE	IQUANT	2	Ich Range
ICHRANGEMODE	TOGGLE	F	Ich Auto Range
ICHOFFSETENABLE	TOGGLE	T	Ich Offset Enable
ICHOFFSET	QUANT	0	Ich Offset (V)
ICHFILTER	IQUANT	3	Ich Filter
VCHRANGE	IQUANT	2	Vch Range
VCHRANGEMODE	TOGGLE	F	Vch Auto Range
VCHOFFSETENABLE	TOGGLE	T	Vch Offset Enable
VCHOFFSET	QUANT	0	Vch Offset (V)
VCHFILTER	IQUANT	3	Vch Filter
ACHRANGE	IQUANT	2	Ach Range
ACHOFFSETENABLE	TOGGLE	F	Ach Offset Enable
ACHOFFSET	QUANT	0	Ach Offset (V)
ACHFILTER	IQUANT	3	Ach Filter
IERANGELOWERLIMIT	IQUANT	1	I/E Range Lower Limit
IERANGEMODE	TOGGLE	F	I/E AutoRange
IERANGE	IQUANT	5	I/E Range
POSFEEDENABLE	TOGGLE	F	Positive Feedback IR Comp
POSFEEDRESISTANCE	QUANT	0	Positive Feedback Resistance (ohm)
ACHSELECT	IQUANT	0	Ach Select
CABLEID	IQUANT	14	Cable ID
DCCALDATE	LABEL	8/19/2019	DC Calibration Date
ACCALDATE	LABEL	8/19/2019	AC Calibration Date
THERMOSELECT	IQUANT	1	Thermo Select
FRAMEWORKVERSION	QUANT	6.33	Framework Version
INSTRUMENTVERSION	LABEL	3.50	Instrument Version
ZCURVE	TABLE
	Pt	Time	Freq	Zreal	Zimag	Zsig	Zmod	Zphz	Idc	Vdc	IERange
	#	s	Hz	ohm	ohm	V	ohm	°	A	V	#
	0	1	1000078	2283.032	-1155.734	1	2558.897	-26.84979	-1.718378E-006	0.0041587	8
	1	3	794390.6	2478.947	-1060.125	1	2696.116	-23.15404	1.252658E-006	0.0032273	8
	2	4	630984.4	2642.724	-959.223	1	2811.423	-19.94926	-4.656797E-007	0.0029711	8
	3	5	501234.4	2780.336	-858.1808	1	2909.767	-17.15341	3.345344E-006	0.0023567	8
	4	7	398109.4	2868.444	-742.4365	1	2962.968	-14.51135	2.485449E-007	0.0028867	8
	5	8	316265.6	2970.777	-654.973	1	3042.122	-12.43321	2.147578E-006	0.0024395	8
	6	9	251203.1	3028.57	-591.701	1	3085.83	-11.0548	-1.524465E-006	0.0031445	8
	7	11	199546.9	3083.769	-522.9198	1	3127.791	-9.62419	4.807961E-007	0.0029341	8
	8	12	158578.1	3118.477	-464.1928	1	3152.835	-8.46645	3.980208E-006	0.0022	8
	9	14	125953.1	3193.782	-398.631	1	3218.564	-7.114563	-6.752102E-007	0.0045197	7
	10	15	100078.1	3214.015	-390.5787	1	3237.661	-6.928815	8.96333E-008	0.0027369	7
	11	16	79453.13	3255.869	-385.945	1	3278.664	-6.760195	-3.518216E-008	0.0028898	7
	12	18	63140.62	3297.139	-388.6822	1	3319.97	-6.723265	5.333771E-008	0.002723	7
	13	19	50203.12	3337.601	-399.155	1	3361.385	-6.819805	-6.219521E-008	0.002925	7
	14	20	39890.62	3381.053	-403.9163	1	3405.095	-6.812532	-1.511534E-008	0.0027988	7
	15	22	31640.63	3435.543	-432.7833	1	3462.695	-7.179863	1.077882E-008	0.0028928	7
	16	23	25171.88	3477.89	-455.0072	1	3507.528	-7.453588	-1.040689E-008	0.0028129	7
	17	24	20015.62	3534.88	-483.8377	1	3567.839	-7.793945	-3.983314E-011	0.0027622	7
	18	26	15890.62	3580.378	-521.7493	1	3618.194	-8.291048	9.01412E-008	0.0027371	7
	19	27	12609.37	3640.285	-560.4079	1	3683.169	-8.75176	-1.869865E-008	0.0027815	7
	20	28	10078.13	3702.49	-606.5465	1	3751.844	-9.303625	-8.472257E-009	0.0027542	7
	21	30	8015.625	3767.124	-674.481	1	3827.029	-10.15091	-8.111031E-008	0.0030219	7
	22	31	6328.125	3819.995	-740.2325	1	3891.054	-10.96676	-5.728045E-008	0.0029229	7
	23	33	5015.625	3888.292	-830.684	1	3976.034	-12.05923	5.526456E-008	0.0027041	7
	24	34	3984.375	3949.389	-934.6797	1	4058.485	-13.31489	-5.082489E-008	0.0028792	7
	25	35	3170.956	4021.528	-1076.472	1	4163.109	-14.98546	9.333535E-008	0.0027266	7
	26	37	2527.573	4070.635	-1252.791	1	4259.055	-17.10643	-5.741018E-008	0.0028735	7
	27	38	1976.103	4156.607	-1483.541	1	4413.42	-19.64207	-8.321681E-008	0.0030248	7
	28	39	1577.524	4216.712	-1760.342	1	4569.406	-22.65897	-6.823667E-008	0.0030148	7
	29	41	1265.625	4300.652	-2091.526	1	4782.268	-25.93493	-5.162814E-008	0.0028742	7
	30	42	998.264	4399.401	-2536.078	1	5078.033	-29.96172	-6.480302E-008	0.0030069	7
	31	43	796.875	4502.061	-3051.442	1	5438.736	-34.12894	-6.98869E-008	0.0030132	7
	32	45	627.7902	4644.799	-3725.987	1	5954.59	-38.73606	-3.50455E-008	0.0028777	7
	33	46	505.5147	4804.724	-4501.307	1	6583.854	-43.13257	-1.491806E-009	0.0027475	7
	34	47	397.9953	5010.609	-5543.753	1	7472.576	-47.89178	7.577445E-009	0.0028175	7
	35	49	315.5048	5264.753	-6793.498	1	8594.722	-52.22541	6.306112E-009	0.0028139	7
	36	50	252.4038	5570.007	-8264.871	1	9966.6	-56.02249	4.907625E-009	0.0028118	7
	37	51	198.6229	5989.739	-10206.32	1	11834.1	-59.5928	1.432101E-009	0.0027534	6
	38	53	158.3615	6509.179	-12442.89	1	14042.61	-62.38483	2.035428E-009	0.0027502	6
	39	54	125.558	7189.013	-15252.15	1	16861.49	-64.76343	1.439546E-009	0.002749	6
	40	56	100.4464	7986.484	-18515.19	1	20164.23	-66.66716	3.945842E-010	0.0027443	6
	41	57	79.00281	9267.333	-22762.62	1	24576.83	-67.84732	1.958681E-009	0.0027445	6
	42	58	63.3446	10829.75	-27172.67	1	29251.28	-68.2701	-2.224517E-010	0.0027472	6
	43	60	49.86702	12587.92	-33957.64	1	36215.7	-69.66053	-1.784617E-010	0.0027437	6
	44	61	39.72458	14720.66	-40594.93	1	43181.55	-70.06819	1.596181E-009	0.0027484	6
	45	62	31.6723	17818.98	-49048.85	1	52185.3	-70.0344	3.584938E-010	0.0027444	6
	46	64	24.93351	21631.48	-59465.78	1	63277.96	-70.01045	6.585994E-010	0.0027435	6
	47	65	19.86229	26516.28	-71114.7	1	75897.38	-69.5512	1.309559E-009	0.0027431	6
	48	67	15.83615	32035.51	-85506.54	1	91310.69	-69.46126	9.293164E-010	0.0027498	6
	49	68	12.40079	38569.89	-103056.9	1	110038	-69.48122	1.755764E-009	0.0027555	5
	50	69	9.93114	48467.93	-122080.5	1	131349.8	-68.34612	4.693203E-010	0.0027579	5
	51	71	7.944915	59145.76	-143245.4	1	154975.7	-67.56436	8.124749E-010	0.0027527	5
	52	73	6.317385	72593.03	-169593	1	184476.4	-66.82701	6.960805E-010	0.0027618	5
	53	75	5.008013	88917.04	-200410.1	1	219249.8	-66.07432	4.589344E-010	0.0027618	5
	54	77	3.945707	109200.9	-237283.8	1	261205.8	-65.28753	1.126084E-010	0.0027508	5
	55	80	3.158693	131432.2	-277134.3	1	306721.1	-64.62714	3.680396E-010	0.0027683	5
	56	83	2.504006	159502.3	-325086.1	1	362107.6	-63.8653	-1.323948E-010	0.0027584	5
	57	86	1.998082	191282.6	-377109.5	1	422848.2	-63.10434	2.647732E-010	0.0027133	5
	58	89	1.584686	228403.7	-439989.6	1	495741	-62.56565	4.65718E-011	0.002734	5
	59	93	1.266892	271523.1	-508182.4	1	576172	-61.8843	1.911263E-010	0.0027141	5
	60	97	0.999041	322386.2	-592165	1	674234.6	-61.43526	5.285649E-011	0.0027838	5
