EXPLAIN
TAG	EISPOT
TITLE	LABEL	Potentiostatic EIS	Test &Identifier
DATE	LABEL	10/4/2019	Date
TIME	LABEL	10:24:30	Time
NOTES	NOTES	2	&Notes...
	
	
PSTAT	PSTAT	REF600-11020	Potentiostat
VDC	POTEN	0.00000E+000	T	DC &Voltage (V)
FREQINIT	QUANT	1.00000E+006	Initial Fre&q. (Hz)
FREQFINAL	QUANT	1.00000E+000	Final Fre&q. (Hz)
PTSPERDEC	QUANT	1.00000E+001	Points/&decade
VAC	QUANT	2.50000E+001	AC &Voltage (mV rms)
AREA	QUANT	1.00000E-002	&Area (cm^2)
CONDIT	TWOPARAM	T	5.00000E+000	0.00000E+000	Conditionin&g	Time(s)	E(V)
DELAY	TWOPARAM	T	5.00000E+000	0.00000E+000	Init. De&lay	Time(s)	Stab.(mV/s)
SPEED	SELECTOR	1	&Optimize for:
ZGUESS	QUANT	1.00000E+004	E&stimated Z (ohms)
OCVCURVE	TABLE	19
	Pt	T	Vf	Vm	Ach	Over
	#	s	V vs. Ref.	V	V	bits
	0	0.258333	-3.93042E-005	-3.93042E-005	5.53899E-004	...........
	1	0.516667	-3.92925E-005	-3.86965E-005	5.57199E-004	...........
	2	0.775	-3.92521E-005	-3.97352E-005	5.53999E-004	...........
	3	1.03333	-3.91722E-005	-3.71729E-005	5.54233E-004	...........
	4	1.29167	-3.89814E-005	-3.73432E-005	5.52466E-004	...........
	5	1.55	-3.86030E-005	-3.82212E-005	5.55533E-004	...........
	6	1.80833	-3.81943E-005	-3.92918E-005	5.54166E-004	...........
	7	2.06667	-3.80535E-005	-3.84995E-005	5.53266E-004	...........
	8	2.325	-3.81596E-005	-3.52176E-005	5.45633E-004	...........
	9	2.58333	-3.81211E-005	-3.78415E-005	5.51999E-004	...........
	10	2.84167	-3.77211E-005	-3.50736E-005	5.48633E-004	...........
	11	3.1	-3.71426E-005	-3.65389E-005	5.49333E-004	...........
	12	3.35833	-3.66780E-005	-3.86568E-005	5.56233E-004	...........
	13	3.61667	-3.65847E-005	-3.78408E-005	5.50399E-004	...........
	14	3.875	-3.69307E-005	-3.82528E-005	5.52866E-004	...........
	15	4.13333	-3.75439E-005	-4.25251E-005	5.53499E-004	...........
	16	4.39167	-3.83435E-005	-3.98481E-005	5.56599E-004	...........
	17	4.65	-3.92774E-005	-4.07225E-005	5.57333E-004	...........
	18	4.90833	-4.00573E-005	-4.03715E-005	5.52699E-004	...........
EOC	QUANT	-4.005733E-005	Open Circuit (V)
PSTATMODEL	IQUANT	4	Pstat Model
PSTATSECTION	LABEL	REF600-11020	Pstat Section
PSTATSERIALNO	LABEL	11020	Pstat Serial Number
CTRLMODE	IQUANT	1	Control Mode
IESTAB	IQUANT	0	I/E Stability
CASPEED	IQUANT	1	Control Amp Speed
CONVENTION	IQUANT	1	Current Convention
ICHRANGE	IQUANT	2	Ich Range
ICHRANGEMODE	TOGGLE	F	Ich Auto Range
ICHOFFSETENABLE	TOGGLE	T	Ich Offset Enable
ICHOFFSET	QUANT	0	Ich Offset (V)
ICHFILTER	IQUANT	3	Ich Filter
VCHRANGE	IQUANT	2	Vch Range
VCHRANGEMODE	TOGGLE	F	Vch Auto Range
VCHOFFSETENABLE	TOGGLE	T	Vch Offset Enable
VCHOFFSET	QUANT	0	Vch Offset (V)
VCHFILTER	IQUANT	3	Vch Filter
ACHRANGE	IQUANT	2	Ach Range
ACHOFFSETENABLE	TOGGLE	F	Ach Offset Enable
ACHOFFSET	QUANT	0	Ach Offset (V)
ACHFILTER	IQUANT	3	Ach Filter
IERANGELOWERLIMIT	IQUANT	1	I/E Range Lower Limit
IERANGEMODE	TOGGLE	F	I/E AutoRange
IERANGE	IQUANT	3	I/E Range
POSFEEDENABLE	TOGGLE	F	Positive Feedback IR Comp
POSFEEDRESISTANCE	QUANT	0	Positive Feedback Resistance (ohm)
ACHSELECT	IQUANT	0	Ach Select
CABLEID	IQUANT	14	Cable ID
DCCALDATE	LABEL	8/19/2019	DC Calibration Date
ACCALDATE	LABEL	8/19/2019	AC Calibration Date
THERMOSELECT	IQUANT	1	Thermo Select
FRAMEWORKVERSION	QUANT	6.33	Framework Version
INSTRUMENTVERSION	LABEL	3.50	Instrument Version
ZCURVE	TABLE
	Pt	Time	Freq	Zreal	Zimag	Zsig	Zmod	Zphz	Idc	Vdc	IERange
	#	s	Hz	ohm	ohm	V	ohm	°	A	V	#
	0	1	1000078	2805.467	-2044.86	1	3471.613	-36.08771	-1.649903E-006	0.0028342	8
	1	3	794390.6	3228.696	-1956.246	1	3775.099	-31.2114	4.79453E-007	0.0023986	8
	2	4	630984.4	3597.368	-1818.153	1	4030.724	-26.81258	-2.03728E-006	0.0025011	8
	3	6	501234.4	3902.587	-1615.521	1	4223.754	-22.48768	-3.155045E-006	0.0025747	8
	4	7	398109.4	4150.172	-1411.734	1	4383.711	-18.78639	1.11621E-006	0.0016621	8
	5	9	316265.6	4306.954	-1195.941	1	4469.913	-15.51874	2.655259E-007	0.001677	8
	6	11	251203.1	4438.023	-1028.033	1	4555.535	-13.04209	-1.408481E-006	0.0019268	8
	7	13	199546.9	4513.851	-887.7596	1	4600.322	-11.12661	-7.241619E-007	0.0015111	8
	8	14	158578.1	4546.438	-805.0902	1	4617.171	-10.04192	-2.938887E-006	0.0020793	8
	9	16	125953.1	4612.868	-735.0148	1	4671.059	-9.053407	1.855168E-007	0.0011576	7
	10	17	100078.1	4668.409	-677.6432	1	4717.334	-8.259089	7.71802E-009	0.0014256	7
	11	19	79453.13	4718.072	-662.6429	1	4764.378	-7.994774	-3.068702E-008	0.0015498	7
	12	20	63140.62	4776.321	-655.02	1	4821.026	-7.808777	6.985868E-008	0.0013125	7
	13	22	50203.12	4832.624	-665.5094	1	4878.233	-7.840987	3.921311E-008	0.001431	7
	14	23	39890.62	4895.624	-690.7589	1	4944.116	-8.031258	-2.406423E-008	0.0015422	7
	15	25	31640.63	4964.309	-728.6048	1	5017.492	-8.349611	4.047893E-008	0.0014616	7
	16	27	25171.88	5035.274	-784.7825	1	5096.064	-8.858675	3.877635E-008	0.0014144	7
	17	28	20015.62	5115.593	-855.2872	1	5186.599	-9.491615	-4.165647E-008	0.001629	7
	18	30	15890.62	5202.566	-942.6696	1	5287.279	-10.27018	4.09103E-008	0.0014417	7
	19	31	12609.37	5301.331	-1045.578	1	5403.457	-11.15721	4.804547E-009	0.001522	7
	20	33	10078.13	5409.29	-1164.192	1	5533.151	-12.14598	8.173222E-008	0.0014529	7
	21	34	8015.625	5538.91	-1308.682	1	5691.412	-13.29353	-5.282987E-008	0.0016486	7
	22	36	6328.125	5684.024	-1476.739	1	5872.724	-14.56376	-2.929541E-008	0.0015246	7
	23	37	5015.625	5848.937	-1673.172	1	6083.549	-15.96394	-2.526049E-008	0.0015967	7
	24	38	3984.375	6033.39	-1893.147	1	6323.432	-17.42073	8.070145E-009	0.0015823	7
	25	40	3170.956	6240.762	-2147.131	1	6599.794	-18.98575	1.593869E-008	0.0015139	7
	26	41	2527.573	6472.223	-2430.935	1	6913.69	-20.58593	4.547976E-008	0.0014784	7
	27	42	1976.103	6756.235	-2781.849	1	7306.531	-22.37919	-6.239488E-009	0.0015857	7
	28	44	1577.524	7038.767	-3144.054	1	7709.041	-24.06921	-3.487728E-008	0.0016053	7
	29	45	1265.625	7342.065	-3540.134	1	8150.98	-25.74203	9.688428E-008	0.001407	7
	30	46	998.264	7671.346	-4035.333	1	8667.955	-27.74557	-4.281079E-008	0.0016455	7
	31	48	796.875	7986.391	-4593.465	1	9213.162	-29.90586	9.963575E-008	0.0014075	7
	32	49	627.7902	8319.123	-5310.624	1	9869.68	-32.55267	-1.576347E-009	0.0016219	6
	33	50	505.5147	8621.739	-6122.794	1	10574.64	-35.38076	1.427487E-008	0.0012946	6
	34	52	397.9953	8937.492	-7262.819	1	11516.39	-39.09813	5.541397E-010	0.0015236	6
	35	53	315.5048	9266.211	-8662.916	1	12684.98	-43.07279	9.736607E-010	0.0015197	6
	36	54	252.4038	9612.1	-10356.62	1	14129.83	-47.13522	5.410192E-010	0.0015145	6
	37	56	198.6229	10040.57	-12641.53	1	16143.77	-51.54153	7.853819E-010	0.001516	6
	38	57	158.3615	10527.25	-15349.32	1	18612.48	-55.55594	1.075482E-009	0.0015151	6
	39	58	125.558	11150.4	-18796.37	1	21854.86	-59.32269	8.476138E-010	0.0015161	6
	40	60	100.4464	11896.38	-22888.65	1	25795.62	-62.53684	1.175245E-009	0.0015158	6
	41	61	79.00281	12972.44	-28309.9	1	31140.57	-65.38133	8.030498E-010	0.0015163	6
	42	63	63.3446	14246.1	-34345.99	1	37183.31	-67.4722	4.738874E-010	0.0015154	6
	43	64	49.86702	16089.01	-42692.57	1	45623.59	-69.35071	9.423838E-010	0.0015146	6
	44	65	39.72458	18195.13	-52126.4	1	55210.73	-70.75806	8.275271E-010	0.001523	6
	45	67	31.6723	21076.95	-63551.83	1	66955.75	-71.65192	1.802318E-009	0.001515	6
	46	68	24.93351	24956.49	-78139.44	1	82028.03	-72.28735	5.616603E-010	0.0015164	6
	47	69	19.86229	29731.27	-95011.5	1	99554.6	-72.62389	1.370506E-009	0.0015157	6
	48	71	15.83615	35383.75	-114945	1	120267.9	-72.88996	-3.490111E-009	0.001516	5
	49	72	12.40079	43771.32	-140900.4	1	147542.7	-72.74236	-4.516683E-011	0.0015244	5
	50	74	9.93114	53953.52	-169668.8	1	178040.7	-72.3597	5.274111E-011	0.0015253	5
	51	75	7.944915	65970.55	-203124.2	1	213568.6	-72.00727	6.791516E-010	0.001525	5
	52	77	6.317385	81470.39	-244489.3	1	257706.1	-71.57054	3.50398E-010	0.0015379	5
	53	79	5.008013	101065.3	-293949.5	1	310838.4	-71.02608	3.675676E-010	0.001526	5
	54	81	3.945707	126298.6	-353898.9	1	375760.3	-70.35966	2.67629E-010	0.0015162	5
	55	84	3.158693	156167.1	-419741.5	1	447851.6	-69.59201	2.987914E-011	0.0015388	5
	56	87	2.504006	191829.4	-501274.6	1	536725.9	-69.05899	4.183074E-010	0.0015217	5
	57	90	1.998082	234599.6	-592213.4	1	636988	-68.38948	-8.033975E-011	0.0014832	5
	58	93	1.584686	286842.3	-701057	1	757469.1	-67.74773	1.413806E-010	0.0015218	5
	59	97	1.266892	348049.4	-826743.8	1	897019.3	-67.16948	3.059377E-010	0.0014706	5
	60	101	0.999041	433548.7	-980162	1	1071766	-66.13906	2.559645E-010	0.0015545	4
