EXPLAIN
TAG	EISPOT
TITLE	LABEL	Potentiostatic EIS	Test &Identifier
DATE	LABEL	10/26/2019	Date
TIME	LABEL	10:28:27	Time
NOTES	NOTES	1	&Notes...
	
PSTAT	PSTAT	REF600-11020	Potentiostat
VDC	POTEN	0.00000E+000	T	DC &Voltage (V)
FREQINIT	QUANT	1.00000E+006	Initial Fre&q. (Hz)
FREQFINAL	QUANT	1.00000E+000	Final Fre&q. (Hz)
PTSPERDEC	QUANT	1.00000E+001	Points/&decade
VAC	QUANT	2.50000E+001	AC &Voltage (mV rms)
AREA	QUANT	1.00000E-002	&Area (cm^2)
CONDIT	TWOPARAM	T	5.00000E+000	0.00000E+000	Conditionin&g	Time(s)	E(V)
DELAY	TWOPARAM	T	5.00000E+000	0.00000E+000	Init. De&lay	Time(s)	Stab.(mV/s)
SPEED	SELECTOR	0	&Optimize for:
ZGUESS	QUANT	1.00000E+005	E&stimated Z (ohms)
OCVCURVE	TABLE	19
	Pt	T	Vf	Vm	Ach	Over
	#	s	V vs. Ref.	V	V	bits
	0	0.258333	7.32556E-003	7.32556E-003	5.26833E-004	...........
	1	0.516667	7.32604E-003	7.35058E-003	5.34766E-004	...........
	2	0.775	7.32865E-003	7.35769E-003	5.41699E-004	...........
	3	1.03333	7.33455E-003	7.34083E-003	5.38099E-004	...........
	4	1.29167	7.34131E-003	7.33621E-003	5.33433E-004	...........
	5	1.55	7.34491E-003	7.34686E-003	5.37399E-004	...........
	6	1.80833	7.34582E-003	7.39462E-003	5.39099E-004	...........
	7	2.06667	7.34984E-003	7.39613E-003	5.34300E-004	...........
	8	2.325	7.36179E-003	7.44528E-003	5.37733E-004	...........
	9	2.58333	7.38201E-003	7.48367E-003	5.27500E-004	...........
	10	2.84167	7.40845E-003	7.47631E-003	5.29666E-004	...........
	11	3.1	7.43696E-003	7.50398E-003	5.26900E-004	...........
	12	3.35833	7.46298E-003	7.54778E-003	5.30333E-004	...........
	13	3.61667	7.48680E-003	7.57371E-003	5.23066E-004	...........
	14	3.875	7.51199E-003	7.59052E-003	5.26466E-004	...........
	15	4.13333	7.53951E-003	7.64004E-003	5.30933E-004	...........
	16	4.39167	7.56838E-003	7.65686E-003	5.30666E-004	...........
	17	4.65	7.59798E-003	7.68175E-003	5.33100E-004	...........
	18	4.90833	7.62730E-003	7.71451E-003	5.33500E-004	...........
EOC	QUANT	0.0076273	Open Circuit (V)
PSTATMODEL	IQUANT	4	Pstat Model
PSTATSECTION	LABEL	REF600-11020	Pstat Section
PSTATSERIALNO	LABEL	11020	Pstat Serial Number
CTRLMODE	IQUANT	1	Control Mode
IESTAB	IQUANT	0	I/E Stability
CASPEED	IQUANT	1	Control Amp Speed
CONVENTION	IQUANT	1	Current Convention
ICHRANGE	IQUANT	2	Ich Range
ICHRANGEMODE	TOGGLE	F	Ich Auto Range
ICHOFFSETENABLE	TOGGLE	T	Ich Offset Enable
ICHOFFSET	QUANT	0	Ich Offset (V)
ICHFILTER	IQUANT	3	Ich Filter
VCHRANGE	IQUANT	2	Vch Range
VCHRANGEMODE	TOGGLE	F	Vch Auto Range
VCHOFFSETENABLE	TOGGLE	T	Vch Offset Enable
VCHOFFSET	QUANT	0	Vch Offset (V)
VCHFILTER	IQUANT	3	Vch Filter
ACHRANGE	IQUANT	2	Ach Range
ACHOFFSETENABLE	TOGGLE	F	Ach Offset Enable
ACHOFFSET	QUANT	0	Ach Offset (V)
ACHFILTER	IQUANT	3	Ach Filter
IERANGELOWERLIMIT	IQUANT	1	I/E Range Lower Limit
IERANGEMODE	TOGGLE	F	I/E AutoRange
IERANGE	IQUANT	5	I/E Range
POSFEEDENABLE	TOGGLE	F	Positive Feedback IR Comp
POSFEEDRESISTANCE	QUANT	0	Positive Feedback Resistance (ohm)
ACHSELECT	IQUANT	0	Ach Select
CABLEID	IQUANT	14	Cable ID
DCCALDATE	LABEL	8/19/2019	DC Calibration Date
ACCALDATE	LABEL	8/19/2019	AC Calibration Date
THERMOSELECT	IQUANT	1	Thermo Select
FRAMEWORKVERSION	QUANT	6.33	Framework Version
INSTRUMENTVERSION	LABEL	3.50	Instrument Version
ZCURVE	TABLE
	Pt	Time	Freq	Zreal	Zimag	Zsig	Zmod	Zphz	Idc	Vdc	IERange
	#	s	Hz	ohm	ohm	V	ohm	°	A	V	#
	0	1	1000078	2247.885	-1961.571	1	2983.412	-41.10892	1.759209E-006	0.0100429	8
	1	2	794390.6	2644.815	-1988.008	1	3308.659	-36.9308	-1.369764E-007	0.0097108	8
	2	2	630984.4	3049.198	-1959.375	1	3624.467	-32.72427	-1.703609E-007	0.0095598	8
	3	2	501234.4	3410.261	-1873.547	1	3891.023	-28.78374	7.799654E-007	0.0093415	8
	4	3	398109.4	3745.183	-1741.095	1	4130.11	-24.93321	3.358042E-006	0.0088079	8
	5	3	316265.6	4042.567	-1592.959	1	4345.097	-21.50674	3.141293E-006	0.0087961	8
	6	3	251203.1	4283.983	-1435.627	1	4518.134	-18.52678	-7.161515E-008	0.0093578	8
	7	3	199546.9	4480.136	-1267.199	1	4655.9	-15.79347	-7.803943E-007	0.0096293	8
	8	4	158578.1	4622.008	-1122.146	1	4756.277	-13.64642	7.696909E-008	0.009175	8
	9	4	125953.1	4791.904	-938.6036	1	4882.962	-11.08238	2.785361E-007	0.0088232	7
	10	4	100078.1	4856.437	-819.5395	1	4925.102	-9.5786	3.576659E-008	0.009185	7
	11	5	79453.13	4931.272	-736.8391	1	4986.019	-8.498358	-1.387612E-008	0.0093115	7
	12	5	63140.62	4995.655	-672.5425	1	5040.722	-7.667373	-4.356073E-009	0.0093227	7
	13	5	50203.12	5052.614	-627.308	1	5091.407	-7.077349	-5.224696E-008	0.0093517	7
	14	6	39890.62	5103.195	-599.4217	1	5138.279	-6.699269	5.396749E-008	0.0092037	7
	15	6	31640.63	5150.503	-589.0594	1	5184.079	-6.524529	-3.029337E-009	0.009322	7
	16	6	25171.88	5197.181	-592.6852	1	5230.866	-6.505891	-4.296684E-009	0.0093193	7
	17	7	20015.62	5253.664	-592.6222	1	5286.982	-6.435856	3.405696E-008	0.0091715	7
	18	7	15890.62	5294.478	-648.5487	1	5334.052	-6.983673	9.83173E-008	0.0091369	7
	19	7	12609.37	5344.409	-701.6787	1	5390.274	-7.479702	-4.126422E-008	0.0093327	7
	20	8	10078.13	5394.435	-770.0446	1	5449.119	-8.123972	-2.799056E-008	0.0093307	7
	21	8	8015.625	5448.066	-865.9475	1	5516.457	-9.031376	-4.111889E-008	0.0093296	7
	22	8	6328.125	5508.406	-988.724	1	5596.437	-10.17587	4.798304E-009	0.0092397	7
	23	9	5015.625	5575.499	-1146.96	1	5692.25	-11.6244	-4.981695E-008	0.0094389	7
	24	9	3984.375	5643.863	-1341.923	1	5801.202	-13.37468	4.577952E-009	0.009237	7
	25	9	3170.956	5724.537	-1575.511	1	5937.387	-15.388	1.001754E-007	0.0091325	7
	26	10	2527.573	5810.795	-1864.426	1	6102.575	-17.78912	-3.151917E-008	0.0092906	7
	27	10	1976.103	5919.892	-2253.475	1	6334.293	-20.8399	4.245696E-009	0.0092362	7
	28	10	1577.524	5985.336	-2729.411	1	6578.293	-24.51376	-3.244773E-008	0.009288	7
	29	10	1265.625	6165.64	-3217.499	1	6954.669	-27.55751	-2.641817E-008	0.0093195	7
	30	11	998.264	6325.82	-3906.271	1	7434.713	-31.69583	-3.236007E-008	0.0092873	7
	31	11	796.875	6508.492	-4710.237	1	8034.103	-35.8935	-2.393655E-008	0.0092647	7
	32	11	627.7902	6731.326	-5766.831	1	8863.808	-40.58717	6.178348E-009	0.0093576	7
	33	12	505.5147	6973.854	-6930.058	1	9831.6	-44.81952	1.257091E-008	0.0089782	6
	34	12	397.9953	7290.881	-8522.053	1	11215.27	-49.45198	1.178177E-009	0.0092423	6
	35	12	315.5048	7669.231	-10439.2	1	12953.53	-53.69687	1.219006E-009	0.0092382	6
	36	13	252.4038	8125.041	-12701.6	1	15078.03	-57.3935	6.955285E-010	0.0092357	6
	37	13	198.6229	8742.839	-15689.03	1	17960.59	-60.87091	6.044913E-010	0.0092377	6
	38	13	158.3615	9501.56	-19169.87	1	21395.41	-63.63465	4.903474E-010	0.0092344	6
	39	14	125.558	10491.69	-23542.58	1	25774.57	-65.97998	4.78801E-010	0.0092343	6
	40	14	100.4464	11697.58	-28621.56	1	30919.69	-67.77025	3.42976E-010	0.0092349	6
	41	14	79.00281	13542.84	-35270.84	1	37781.48	-68.99486	-2.106255E-010	0.0092336	6
	42	15	63.3446	15678.01	-43604.49	1	46337.37	-70.22393	2.197901E-010	0.009232	6
	43	15	49.86702	18635.05	-53226.46	1	56394.34	-70.70441	-5.449109E-010	0.009231	6
	44	15	39.72458	23094.06	-64048.39	1	68084.74	-70.17211	4.383359E-011	0.0092351	6
	45	16	31.6723	28607.37	-76916.14	1	82063.84	-69.59835	-5.831208E-010	0.0092365	6
	46	16	24.93351	35936.37	-93733.21	1	100385.9	-69.02368	6.136991E-010	0.009237	6
	47	16	19.86229	45852.18	-111734	1	120776.3	-67.68827	9.788858E-010	0.0092449	5
	48	17	15.83615	57215.09	-130197.8	1	142214.7	-66.27703	1.548591E-009	0.009236	5
	49	17	12.40079	73658.1	-155514.4	1	172076.2	-64.65581	-1.842162E-009	0.0092385	5
	50	17	9.93114	94755.22	-181951.4	1	205146	-62.49075	-2.832171E-010	0.0092388	5
	51	18	7.944915	117300.5	-208128.7	1	238907.9	-60.59456	9.375204E-010	0.009231	5
	52	19	6.317385	145548	-235756.6	1	277065.7	-58.31025	5.342332E-010	0.00922	5
	53	19	5.008013	177182.6	-265507.5	1	319198.8	-56.28341	-3.54405E-011	0.009228	5
	54	20	3.945707	213195.6	-296488	1	365181.4	-54.28122	-1.716679E-011	0.0092383	5
	55	22	3.158693	248234.7	-329958.2	1	412907.8	-53.04506	-2.377872E-010	0.0092339	5
	56	23	2.504006	285997.1	-366953.2	1	465240.7	-52.06775	-6.392287E-011	0.0092299	5
	57	25	1.998082	324189.2	-408860.2	1	521790.4	-51.58876	1.231078E-010	0.0092706	5
	58	26	1.584686	363561.4	-459148.5	1	585657.1	-51.62724	-1.176377E-010	0.0092297	5
	59	28	1.266892	408888	-518486.5	1	660316.3	-51.74004	3.422257E-010	0.0091959	5
	60	31	0.999041	450488.3	-596205.9	1	747262.5	-52.92561	-1.476902E-010	0.0091862	5
