EXPLAIN
TAG	EISPOT
TITLE	LABEL	Potentiostatic IDE	Test &Identifier
DATE	LABEL	9/8/2019	Date
TIME	LABEL	10:57:40	Time
NOTES	NOTES	1	&Notes...
	
PSTAT	PSTAT	REF600-11020	Potentiostat
VDC	POTEN	0.00000E+000	T	DC &Voltage (V)
FREQINIT	QUANT	1.00000E+006	Initial Fre&q. (Hz)
FREQFINAL	QUANT	1.00000E+000	Final Fre&q. (Hz)
PTSPERDEC	QUANT	1.00000E+001	Points/&decade
VAC	QUANT	2.50000E+001	AC &Voltage (mV rms)
AREA	QUANT	1.00000E-002	&Area (cm^2)
CONDIT	TWOPARAM	T	5.00000E+000	0.00000E+000	Conditionin&g	Time(s)	E(V)
DELAY	TWOPARAM	T	5.00000E+000	0.00000E+000	Init. De&lay	Time(s)	Stab.(mV/s)
SPEED	SELECTOR	1	&Optimize for:
ZGUESS	QUANT	1.00000E+007	E&stimated Z (ohms)
OCVCURVE	TABLE	19
	Pt	T	Vf	Vm	Ach	Over
	#	s	V vs. Ref.	V	V	bits
	0	0.258333	4.06293E-003	4.06293E-003	4.85467E-004	...........
	1	0.516667	4.05752E-003	3.78000E-003	4.84634E-004	...........
	2	0.775	4.02441E-003	3.51608E-003	4.91133E-004	...........
	3	1.03333	3.93130E-003	3.27737E-003	4.83100E-004	...........
	4	1.29167	3.76668E-003	3.06018E-003	4.82634E-004	...........
	5	1.55	3.55208E-003	2.85859E-003	4.82300E-004	...........
	6	1.80833	3.32069E-003	2.66514E-003	4.84467E-004	...........
	7	2.06667	3.09541E-003	2.48784E-003	4.83267E-004	...........
	8	2.325	2.88497E-003	2.31537E-003	4.87100E-004	...........
	9	2.58333	2.68975E-003	2.15626E-003	4.92467E-004	...........
	10	2.84167	2.50749E-003	2.00220E-003	5.01100E-004	...........
	11	3.1	2.33595E-003	1.85344E-003	4.85867E-004	...........
	12	3.35833	2.17327E-003	1.70960E-003	4.88800E-004	...........
	13	3.61667	2.01788E-003	1.57200E-003	4.99167E-004	...........
	14	3.875	1.86854E-003	1.43528E-003	5.03300E-004	...........
	15	4.13333	1.72438E-003	1.30428E-003	4.92600E-004	...........
	16	4.39167	1.58472E-003	1.17818E-003	4.82467E-004	...........
	17	4.65	1.44931E-003	1.05789E-003	4.96033E-004	...........
	18	4.90833	1.31820E-003	9.35725E-004	4.87700E-004	...........
EOC	QUANT	0.0013182	Open Circuit (V)
PSTATMODEL	IQUANT	4	Pstat Model
PSTATSECTION	LABEL	REF600-11020	Pstat Section
PSTATSERIALNO	LABEL	11020	Pstat Serial Number
CTRLMODE	IQUANT	1	Control Mode
IESTAB	IQUANT	0	I/E Stability
CASPEED	IQUANT	1	Control Amp Speed
CONVENTION	IQUANT	1	Current Convention
ICHRANGE	IQUANT	2	Ich Range
ICHRANGEMODE	TOGGLE	F	Ich Auto Range
ICHOFFSETENABLE	TOGGLE	T	Ich Offset Enable
ICHOFFSET	QUANT	0	Ich Offset (V)
ICHFILTER	IQUANT	3	Ich Filter
VCHRANGE	IQUANT	2	Vch Range
VCHRANGEMODE	TOGGLE	F	Vch Auto Range
VCHOFFSETENABLE	TOGGLE	T	Vch Offset Enable
VCHOFFSET	QUANT	0	Vch Offset (V)
VCHFILTER	IQUANT	3	Vch Filter
ACHRANGE	IQUANT	2	Ach Range
ACHOFFSETENABLE	TOGGLE	F	Ach Offset Enable
ACHOFFSET	QUANT	0	Ach Offset (V)
ACHFILTER	IQUANT	3	Ach Filter
IERANGELOWERLIMIT	IQUANT	1	I/E Range Lower Limit
IERANGEMODE	TOGGLE	F	I/E AutoRange
IERANGE	IQUANT	2	I/E Range
POSFEEDENABLE	TOGGLE	F	Positive Feedback IR Comp
POSFEEDRESISTANCE	QUANT	0	Positive Feedback Resistance (ohm)
ACHSELECT	IQUANT	0	Ach Select
CABLEID	IQUANT	14	Cable ID
DCCALDATE	LABEL	8/19/2019	DC Calibration Date
ACCALDATE	LABEL	8/19/2019	AC Calibration Date
THERMOSELECT	IQUANT	1	Thermo Select
FRAMEWORKVERSION	QUANT	6.33	Framework Version
INSTRUMENTVERSION	LABEL	3.50	Instrument Version
ZCURVE	TABLE
	Pt	Time	Freq	Zreal	Zimag	Zsig	Zmod	Zphz	Idc	Vdc	IERange
	#	s	Hz	ohm	ohm	V	ohm	°	A	V	#
	0	1	1000078	2735.132	-1874.811	1	3316.001	-34.42889	-4.93665E-006	0.0040293	8
	1	3	794390.6	3092.381	-1775.051	1	3565.617	-29.85617	6.663805E-007	0.0038312	8
	2	4	630984.4	3436.982	-1628.497	1	3803.269	-25.35234	6.333377E-006	0.0019693	8
	3	6	501234.4	3703.244	-1457.709	1	3979.816	-21.4861	1.285727E-006	0.0026162	8
	4	7	398109.4	3903.076	-1259.785	1	4101.349	-17.88837	-4.958406E-006	0.004073	8
	5	9	316265.6	4059.596	-1101.967	1	4206.501	-15.18684	-1.991836E-006	0.0032243	8
	6	10	251203.1	4183.025	-961.053	1	4292.007	-12.93921	5.611544E-006	0.0019196	8
	7	12	199546.9	4286.445	-822.6555	1	4364.673	-10.86412	-4.677066E-006	0.0039548	8
	8	13	158578.1	4358.945	-725.0252	1	4418.831	-9.443577	1.978705E-006	0.0025514	8
	9	15	125953.1	4423.612	-587.32	1	4462.431	-7.56289	-2.976455E-007	0.0027346	7
	10	16	100078.1	4467.779	-529.8928	1	4499.093	-6.763865	1.364928E-007	0.0026954	7
	11	17	79453.13	4508.374	-497.3295	1	4535.721	-6.294983	-4.293475E-008	0.0029208	7
	12	19	63140.62	4547.806	-473.8455	1	4572.425	-5.948305	2.36672E-009	0.0028216	7
	13	20	50203.12	4583.673	-465.9148	1	4607.292	-5.803987	-1.280098E-008	0.0029379	7
	14	21	39890.62	4623.862	-463.9862	1	4647.083	-5.730222	-3.36085E-008	0.0028889	7
	15	23	31640.63	4662.258	-486.1621	1	4687.537	-5.953065	5.187191E-008	0.0027306	7
	16	24	25171.88	4704.35	-513.7989	1	4732.324	-6.233016	-2.076457E-008	0.0030295	7
	17	25	20015.62	4747.662	-554.8442	1	4779.974	-6.665739	-4.247843E-008	0.0030204	7
	18	27	15890.62	4793.991	-613.644	1	4833.105	-7.294351	3.548841E-008	0.0028513	7
	19	28	12609.37	4845.102	-680.4526	1	4892.65	-7.99441	5.29955E-008	0.0027325	7
	20	29	10078.13	4899.854	-766.4639	1	4959.439	-8.890494	-4.218153E-008	0.0030173	7
	21	31	8015.625	4961.111	-875.7971	1	5037.821	-10.01142	3.567126E-008	0.002845	7
	22	32	6328.125	5030.338	-1011.755	1	5131.077	-11.3722	-3.886391E-008	0.0029031	7
	23	33	5015.625	5107.475	-1178.835	1	5241.75	-12.99661	-8.723849E-009	0.0029149	7
	24	35	3984.375	5193.706	-1379.146	1	5373.697	-14.87123	-8.094086E-009	0.0029154	7
	25	36	3170.956	5289.285	-1619.226	1	5531.584	-17.02109	5.391749E-008	0.0027237	7
	26	37	2527.573	5402.624	-1910.298	1	5730.408	-19.47294	-2.240385E-008	0.0028534	7
	27	39	1976.103	5542.139	-2292.177	1	5997.448	-22.46953	2.652468E-008	0.0027917	7
	28	40	1577.524	5694.761	-2715.505	1	6309.063	-25.4938	-1.790137E-008	0.0030144	7
	29	41	1265.625	5864.107	-3217.642	1	6688.869	-28.75363	2.480179E-008	0.002785	7
	30	43	998.264	6078.07	-3867.338	1	7204.113	-32.46767	-8.181587E-009	0.0029004	7
	31	44	796.875	6318.833	-4608.969	1	7821.141	-36.10708	-4.188998E-008	0.0028969	7
	32	45	627.7902	6622.059	-5561.209	1	8647.469	-40.02356	-4.664934E-008	0.0029416	7
	33	47	505.5147	6936.763	-6612.215	1	9583.32	-43.62782	-1.204762E-008	0.0029287	7
	34	48	397.9953	7369.095	-8002.103	1	10878.29	-47.35819	1.652368E-009	0.002835	6
	35	49	315.5048	7855.943	-9649.28	1	12442.85	-50.84931	1.626079E-009	0.0028224	6
	36	51	252.4038	8412.791	-11558.56	1	14295.99	-53.95134	1.85895E-009	0.0028233	6
	37	52	198.6229	9126.386	-14044.36	1	16749.18	-56.98315	1.179185E-009	0.0028302	6
	38	53	158.3615	9937.48	-16903.25	1	19607.99	-59.54859	1.660378E-009	0.0028241	6
	39	55	125.558	10929.34	-20450.09	1	23187.43	-61.87819	1.452896E-009	0.0028226	6
	40	56	100.4464	12075.34	-24601.32	1	27405.09	-63.8563	6.901199E-010	0.0028223	6
	41	57	79.00281	13611.1	-29986.24	1	32930.79	-65.58615	8.327346E-010	0.0028206	6
	42	59	63.3446	15022.32	-36243.91	1	39233.8	-67.48705	1.105533E-009	0.0028194	6
	43	60	49.86702	17778.19	-44025.14	1	47479.23	-68.01021	4.962355E-010	0.0028182	6
	44	62	39.72458	20262.22	-53316.8	1	57037.17	-69.19149	1.358456E-009	0.0028284	6
	45	63	31.6723	23850.38	-64348.36	1	68626.17	-69.66303	1.509423E-009	0.0028246	6
	46	64	24.93351	28450.94	-78511.41	1	83507.48	-70.08051	7.569027E-010	0.0028302	6
	47	66	19.86229	34105.5	-94614.32	1	100573.6	-70.17735	5.752868E-010	0.002821	6
	48	67	15.83615	41138.87	-114587.7	1	121748.7	-70.25102	1.571407E-009	0.0028278	5
	49	68	12.40079	52059.54	-138432.9	1	147898.2	-69.39056	1.72079E-010	0.0028268	5
	50	70	9.93114	62644.26	-164289	1	175827.1	-69.12789	5.668563E-011	0.0028286	5
	51	71	7.944915	76656.34	-194925.1	1	209456.4	-68.53225	1.139778E-009	0.0028238	5
	52	73	6.317385	95222.5	-231917.3	1	250704.9	-67.67752	7.861561E-010	0.0028186	5
	53	75	5.008013	118208.3	-275624.5	1	299903.4	-66.78674	3.560717E-010	0.0028257	5
	54	77	3.945707	147723	-327008.6	1	358826.8	-65.68939	4.196175E-010	0.0028306	5
	55	80	3.158693	180957.6	-382772	1	423391.1	-64.6973	7.814187E-011	0.0028176	5
	56	83	2.504006	224311.7	-447522.4	1	500591.7	-63.3786	5.48618E-010	0.0028161	5
	57	86	1.998082	273508.1	-518106.7	1	585867.9	-62.17047	1.151499E-010	0.0028481	5
	58	89	1.584686	333949.7	-600080.1	1	686744.8	-60.90369	3.493321E-010	0.0028727	5
	59	93	1.266892	402160	-686053.9	1	795237.5	-59.62146	-1.033382E-010	0.002834	5
	60	97	0.999041	483114.1	-786773.1	1	923261.1	-58.4482	4.598722E-010	0.0028411	5
