EXPLAIN
TAG	EISPOT
TITLE	LABEL	Potentiostatic EIS	Test &Identifier
DATE	LABEL	11/20/2019	Date
TIME	LABEL	12:28:49	Time
NOTES	NOTES	4	&Notes...
	
	
	
	
PSTAT	PSTAT	REF600-11020	Potentiostat
VDC	POTEN	0.00000E+000	T	DC &Voltage (V)
FREQINIT	QUANT	1.00000E+006	Initial Fre&q. (Hz)
FREQFINAL	QUANT	1.00000E+000	Final Fre&q. (Hz)
PTSPERDEC	QUANT	1.00000E+001	Points/&decade
VAC	QUANT	2.50000E+001	AC &Voltage (mV rms)
AREA	QUANT	1.00000E-002	&Area (cm^2)
CONDIT	TWOPARAM	T	5.00000E+000	0.00000E+000	Conditionin&g	Time(s)	E(V)
DELAY	TWOPARAM	T	5.00000E+000	0.00000E+000	Init. De&lay	Time(s)	Stab.(mV/s)
SPEED	SELECTOR	1	&Optimize for:
ZGUESS	QUANT	1.00000E+005	E&stimated Z (ohms)
OCVCURVE	TABLE	19
	Pt	T	Vf	Vm	Ach	Over
	#	s	V vs. Ref.	V	V	bits
	0	0.258333	4.96710E-003	4.96710E-003	5.01433E-004	...........
	1	0.516667	4.95971E-003	4.58043E-003	5.07067E-004	...........
	2	0.775	4.91496E-003	4.24577E-003	5.07233E-004	...........
	3	1.03333	4.79095E-003	3.95414E-003	5.03967E-004	...........
	4	1.29167	4.57599E-003	3.70180E-003	5.06833E-004	...........
	5	1.55	4.30296E-003	3.47758E-003	5.06633E-004	...........
	6	1.80833	4.01834E-003	3.28070E-003	5.03500E-004	...........
	7	2.06667	3.75293E-003	3.10080E-003	5.07566E-004	...........
	8	2.325	3.51743E-003	2.94264E-003	5.06467E-004	...........
	9	2.58333	3.31069E-003	2.79299E-003	5.00167E-004	...........
	10	2.84167	3.12770E-003	2.66413E-003	5.08167E-004	...........
	11	3.1	2.96373E-003	2.53734E-003	5.10867E-004	...........
	12	3.35833	2.81528E-003	2.42760E-003	5.13233E-004	...........
	13	3.61667	2.67985E-003	2.32078E-003	5.05000E-004	...........
	14	3.875	2.55562E-003	2.22680E-003	5.10667E-004	...........
	15	4.13333	2.44114E-003	2.12764E-003	5.06033E-004	...........
	16	4.39167	2.33499E-003	2.05174E-003	5.07933E-004	...........
	17	4.65	2.23605E-003	1.96066E-003	5.07500E-004	...........
	18	4.90833	2.14358E-003	1.89538E-003	5.06167E-004	...........
EOC	QUANT	0.0021436	Open Circuit (V)
PSTATMODEL	IQUANT	4	Pstat Model
PSTATSECTION	LABEL	REF600-11020	Pstat Section
PSTATSERIALNO	LABEL	11020	Pstat Serial Number
CTRLMODE	IQUANT	1	Control Mode
IESTAB	IQUANT	0	I/E Stability
CASPEED	IQUANT	1	Control Amp Speed
CONVENTION	IQUANT	1	Current Convention
ICHRANGE	IQUANT	2	Ich Range
ICHRANGEMODE	TOGGLE	F	Ich Auto Range
ICHOFFSETENABLE	TOGGLE	T	Ich Offset Enable
ICHOFFSET	QUANT	0	Ich Offset (V)
ICHFILTER	IQUANT	3	Ich Filter
VCHRANGE	IQUANT	2	Vch Range
VCHRANGEMODE	TOGGLE	F	Vch Auto Range
VCHOFFSETENABLE	TOGGLE	T	Vch Offset Enable
VCHOFFSET	QUANT	0	Vch Offset (V)
VCHFILTER	IQUANT	3	Vch Filter
ACHRANGE	IQUANT	2	Ach Range
ACHOFFSETENABLE	TOGGLE	F	Ach Offset Enable
ACHOFFSET	QUANT	0	Ach Offset (V)
ACHFILTER	IQUANT	3	Ach Filter
IERANGELOWERLIMIT	IQUANT	1	I/E Range Lower Limit
IERANGEMODE	TOGGLE	F	I/E AutoRange
IERANGE	IQUANT	4	I/E Range
POSFEEDENABLE	TOGGLE	F	Positive Feedback IR Comp
POSFEEDRESISTANCE	QUANT	0	Positive Feedback Resistance (ohm)
ACHSELECT	IQUANT	0	Ach Select
CABLEID	IQUANT	14	Cable ID
DCCALDATE	LABEL	8/19/2019	DC Calibration Date
ACCALDATE	LABEL	8/19/2019	AC Calibration Date
THERMOSELECT	IQUANT	1	Thermo Select
FRAMEWORKVERSION	QUANT	6.33	Framework Version
INSTRUMENTVERSION	LABEL	3.50	Instrument Version
ZCURVE	TABLE
	Pt	Time	Freq	Zreal	Zimag	Zsig	Zmod	Zphz	Idc	Vdc	IERange
	#	s	Hz	ohm	ohm	V	ohm	°	A	V	#
	0	1	1000078	2222.514	-2270.862	1	3177.48	-45.61647	1.315021E-005	0.0036208	8
	1	3	794390.6	2694.774	-2352.287	1	3577.019	-41.11793	-8.939823E-006	0.0049216	8
	2	4	630984.4	3176.153	-2355.571	1	3954.322	-36.56221	1.066618E-006	0.0045637	8
	3	5	501234.4	3633.612	-2278.616	1	4288.965	-32.09158	1.660373E-006	0.0042692	8
	4	7	398109.4	4047.257	-2142.856	1	4579.533	-27.89938	1.585176E-006	0.0041825	8
	5	8	316265.6	4413.522	-1994.656	1	4843.328	-24.3202	3.5757E-006	0.0038142	8
	6	9	251203.1	4713.391	-1833.083	1	5057.296	-21.25154	5.20435E-006	0.0031971	8
	7	11	199546.9	4951.885	-1651.425	1	5219.998	-18.44324	-1.356463E-007	0.0035603	8
	8	12	158578.1	5168.567	-1392.855	1	5352.956	-15.0821	-7.676232E-007	0.0042224	8
	9	14	125953.1	5349.427	-1291.631	1	5503.152	-13.57438	-3.022845E-006	0.0075936	7
	10	15	100078.1	5480.691	-1201.323	1	5610.807	-12.36325	9.750102E-007	0.0021316	7
	11	16	79453.13	5601.354	-1129.797	1	5714.158	-11.4036	1.087758E-006	0.0026748	7
	12	18	63140.62	5713.613	-1079.343	1	5814.667	-10.69753	-2.983758E-007	0.0051311	7
	13	19	50203.12	5820.838	-1052.564	1	5915.238	-10.24986	-8.88289E-007	0.0054315	7
	14	20	39890.62	5919.473	-1052.293	1	6012.278	-10.08006	-1.083556E-006	0.0053684	7
	15	22	31640.63	6030.072	-1071.43	1	6124.519	-10.07523	5.823057E-008	0.004745	7
	16	23	25171.88	6141.698	-1109.498	1	6241.109	-10.24004	3.686197E-007	0.0043307	7
	17	25	20015.62	6243.314	-1166.825	1	6351.414	-10.586	3.707028E-007	0.0043258	7
	18	26	15890.62	6380.266	-1252.589	1	6502.059	-11.10718	7.800018E-007	0.0020224	7
	19	28	12609.37	6502.542	-1356.893	1	6642.606	-11.78684	-1.026789E-006	0.004267	7
	20	29	10078.13	6646.445	-1493.333	1	6812.142	-12.66301	4.950792E-007	0.0021112	7
	21	31	8015.625	6808.516	-1639.949	1	7003.236	-13.54271	-2.967444E-007	0.0029166	7
	22	32	6328.125	6976.48	-1832.521	1	7213.142	-14.71748	-1.021181E-006	0.0042698	7
	23	34	5015.625	7182.721	-2054.686	1	7470.824	-15.96368	-8.808619E-007	0.0054183	7
	24	35	3984.375	7372.179	-2324.062	1	7729.831	-17.49733	8.172012E-007	0.0035691	7
	25	37	3170.956	7667.971	-2632.791	1	8107.365	-18.94986	3.691678E-007	0.0043213	7
	26	38	2527.573	7945.129	-2959.143	1	8478.302	-20.42772	1.203184E-007	0.0024066	7
	27	40	1976.103	8286.996	-3392.935	1	8954.681	-22.26561	1.177448E-007	0.0023975	7
	28	41	1577.524	8657.022	-3756.682	1	9436.985	-23.45825	1.076785E-006	0.0023265	7
	29	42	1265.625	9024.142	-4345.153	1	10015.76	-25.71097	-7.07591E-007	0.0035874	7
	30	44	998.264	9495.814	-4963.477	1	10714.78	-27.59614	1.075033E-006	0.0023219	7
	31	45	796.875	9949.97	-5675.984	1	11455.07	-29.70271	8.223878E-007	0.0035548	7
	32	46	627.7902	10468.99	-6491.094	1	12318.04	-31.80018	1.960358E-008	0.0053633	6
	33	48	505.5147	10974.01	-7407.313	1	13239.99	-34.01883	1.274547E-007	0.0036544	6
	34	49	397.9953	11569.36	-8608.992	1	14420.99	-36.65367	1.005996E-009	0.0037264	6
	35	51	315.5048	12165.18	-10041.49	1	15774.13	-39.53726	6.719281E-010	0.0037316	6
	36	52	252.4038	12762.04	-11732.74	1	17335.71	-42.59378	-4.100877E-010	0.0037202	6
	37	53	198.6229	13452.29	-13985.15	1	19404.86	-46.1126	3.827821E-010	0.0037173	6
	38	55	158.3615	14166.89	-16644.2	1	21857.04	-49.59687	-4.320866E-010	0.0037196	6
	39	56	125.558	15021.98	-20015.73	1	25025.77	-53.11147	8.606216E-010	0.0037225	6
	40	57	100.4464	15996.62	-24045.43	1	28880.35	-56.36551	-1.289595E-010	0.0037198	6
	41	59	79.00281	17184.85	-29514.43	1	34152.9	-59.78979	-3.270457E-010	0.0037153	6
	42	60	63.3446	18199.19	-35663.99	1	40039.11	-62.96497	9.573866E-010	0.0037129	6
	43	62	49.86702	20830.5	-43311	1	48059.89	-64.31469	1.369782E-009	0.0037105	6
	44	63	39.72458	23199.65	-53003.7	1	57858.58	-66.36107	2.930848E-010	0.0037272	6
	45	64	31.6723	26439.58	-64187.05	1	69419.23	-67.61253	7.599951E-010	0.003727	6
	46	66	24.93351	30840.44	-78930.13	1	84741.36	-68.65788	4.42331E-010	0.003723	6
	47	67	19.86229	36556.27	-95416.5	1	102179.6	-69.03701	-1.00619E-010	0.0037357	6
	48	69	15.83615	43682.48	-114756.2	1	122789	-69.16044	5.494396E-011	0.0037258	5
	49	70	12.40079	52094.53	-140188.5	1	149554.8	-69.61475	-4.451309E-010	0.0037294	5
	50	71	9.93114	64749.99	-167038.6	1	179149.3	-68.81194	-2.423628E-010	0.0037231	5
	51	73	7.944915	79085.04	-198834.7	1	213985.2	-68.31017	3.481026E-010	0.003715	5
	52	75	6.317385	97243.3	-236865.8	1	256050.1	-67.6798	1.240839E-010	0.0037405	5
	53	77	5.008013	119772.9	-281296.8	1	305734.3	-66.93627	-4.464301E-011	0.003714	5
	54	79	3.945707	148402.7	-333767.1	1	365272.3	-66.02866	2.402221E-010	0.0037346	5
	55	82	3.158693	180589.2	-390016.7	1	429797	-65.15448	1.719655E-011	0.0037129	5
	56	86	2.504006	219969.5	-457314.9	1	507467.7	-64.31234	2.060501E-010	0.0037338	5
	57	88	1.998082	264110.6	-531205.3	1	593239.8	-63.56384	2.459834E-010	0.0037171	5
	58	91	1.584686	318099.5	-619737.4	1	696607.3	-62.82943	6.877188E-011	0.0036764	5
	59	95	1.266892	375716.6	-716169.3	1	808740.6	-62.3176	1.921323E-010	0.0037022	5
	60	99	0.999041	445778.3	-838049.6	1	949234.1	-61.99044	-1.088944E-011	0.0037366	5
