EXPLAIN
TAG	EISPOT
TITLE	LABEL	Potentiostatic EIS	Test &Identifier
DATE	LABEL	10/28/2019	Date
TIME	LABEL	11:26:04	Time
NOTES	NOTES	1	&Notes...
	
PSTAT	PSTAT	REF600-11020	Potentiostat
VDC	POTEN	0.00000E+000	T	DC &Voltage (V)
FREQINIT	QUANT	1.00000E+006	Initial Fre&q. (Hz)
FREQFINAL	QUANT	1.00000E+000	Final Fre&q. (Hz)
PTSPERDEC	QUANT	1.00000E+001	Points/&decade
VAC	QUANT	2.50000E+001	AC &Voltage (mV rms)
AREA	QUANT	1.00000E-002	&Area (cm^2)
CONDIT	TWOPARAM	T	5.00000E+000	0.00000E+000	Conditionin&g	Time(s)	E(V)
DELAY	TWOPARAM	T	5.00000E+000	0.00000E+000	Init. De&lay	Time(s)	Stab.(mV/s)
SPEED	SELECTOR	1	&Optimize for:
ZGUESS	QUANT	1.00000E+005	E&stimated Z (ohms)
OCVCURVE	TABLE	19
	Pt	T	Vf	Vm	Ach	Over
	#	s	V vs. Ref.	V	V	bits
	0	0.258333	6.39952E-003	6.39952E-003	5.73965E-004	...........
	1	0.516667	6.39896E-003	6.37010E-003	5.74232E-004	...........
	2	0.775	6.39558E-003	6.34592E-003	5.82999E-004	...........
	3	1.03333	6.38692E-003	6.35789E-003	5.71799E-004	...........
	4	1.29167	6.37553E-003	6.40623E-003	5.70232E-004	...........
	5	1.55	6.36945E-003	6.39486E-003	5.79566E-004	...........
	6	1.80833	6.37197E-003	6.32480E-003	5.79699E-004	...........
	7	2.06667	6.37386E-003	6.29701E-003	5.67966E-004	...........
	8	2.325	6.36641E-003	6.44761E-003	5.68932E-004	...........
	9	2.58333	6.35954E-003	6.44313E-003	5.79099E-004	...........
	10	2.84167	6.37039E-003	6.46601E-003	5.82465E-004	...........
	11	3.1	6.39906E-003	6.48614E-003	5.69132E-004	...........
	12	3.35833	6.43236E-003	6.51573E-003	5.69932E-004	...........
	13	3.61667	6.46216E-003	6.54336E-003	5.79099E-004	...........
	14	3.875	6.48903E-003	6.58276E-003	5.86199E-004	...........
	15	4.13333	6.51606E-003	6.60235E-003	5.70232E-004	...........
	16	4.39167	6.54423E-003	6.61570E-003	5.73432E-004	...........
	17	4.65	6.57147E-003	6.63587E-003	5.84999E-004	...........
	18	4.90833	6.59560E-003	6.66451E-003	5.83699E-004	...........
EOC	QUANT	0.0065956	Open Circuit (V)
PSTATMODEL	IQUANT	4	Pstat Model
PSTATSECTION	LABEL	REF600-11020	Pstat Section
PSTATSERIALNO	LABEL	11020	Pstat Serial Number
CTRLMODE	IQUANT	1	Control Mode
IESTAB	IQUANT	0	I/E Stability
CASPEED	IQUANT	1	Control Amp Speed
CONVENTION	IQUANT	1	Current Convention
ICHRANGE	IQUANT	2	Ich Range
ICHRANGEMODE	TOGGLE	F	Ich Auto Range
ICHOFFSETENABLE	TOGGLE	T	Ich Offset Enable
ICHOFFSET	QUANT	0	Ich Offset (V)
ICHFILTER	IQUANT	3	Ich Filter
VCHRANGE	IQUANT	2	Vch Range
VCHRANGEMODE	TOGGLE	F	Vch Auto Range
VCHOFFSETENABLE	TOGGLE	T	Vch Offset Enable
VCHOFFSET	QUANT	0	Vch Offset (V)
VCHFILTER	IQUANT	3	Vch Filter
ACHRANGE	IQUANT	2	Ach Range
ACHOFFSETENABLE	TOGGLE	F	Ach Offset Enable
ACHOFFSET	QUANT	0	Ach Offset (V)
ACHFILTER	IQUANT	3	Ach Filter
IERANGELOWERLIMIT	IQUANT	1	I/E Range Lower Limit
IERANGEMODE	TOGGLE	F	I/E AutoRange
IERANGE	IQUANT	5	I/E Range
POSFEEDENABLE	TOGGLE	F	Positive Feedback IR Comp
POSFEEDRESISTANCE	QUANT	0	Positive Feedback Resistance (ohm)
ACHSELECT	IQUANT	0	Ach Select
CABLEID	IQUANT	14	Cable ID
DCCALDATE	LABEL	8/19/2019	DC Calibration Date
ACCALDATE	LABEL	8/19/2019	AC Calibration Date
THERMOSELECT	IQUANT	1	Thermo Select
FRAMEWORKVERSION	QUANT	6.33	Framework Version
INSTRUMENTVERSION	LABEL	3.50	Instrument Version
ZCURVE	TABLE
	Pt	Time	Freq	Zreal	Zimag	Zsig	Zmod	Zphz	Idc	Vdc	IERange
	#	s	Hz	ohm	ohm	V	ohm	°	A	V	#
	0	2	1000078	2253.92	-1696.249	1	2820.89	-36.96429	-3.558687E-006	0.0092118	8
	1	3	794390.6	2581.044	-1672.72	1	3075.676	-32.94641	7.242026E-006	0.0073329	8
	2	5	630984.4	2892.663	-1626.862	1	3318.762	-29.35383	-1.159687E-006	0.0081295	8
	3	6	501234.4	3176.435	-1544.047	1	3531.83	-25.92413	2.482956E-006	0.0077312	8
	4	7	398109.4	3451.595	-1453.091	1	3744.994	-22.83066	-5.74084E-008	0.0079728	8
	5	9	316265.6	3666.123	-1319.413	1	3896.32	-19.79346	-1.518702E-006	0.0083468	8
	6	11	251203.1	3885.85	-1191.304	1	4064.362	-17.04423	1.5672E-007	0.0079417	8
	7	12	199546.9	4035.681	-1044.535	1	4168.666	-14.51114	4.630685E-006	0.0071978	8
	8	14	158578.1	4190.564	-925.7831	1	4291.608	-12.45774	-1.079396E-006	0.0083435	8
	9	15	125953.1	4315.097	-727.4431	1	4375.984	-9.569	-3.563646E-007	0.0088527	7
	10	17	100078.1	4373.534	-649.0421	1	4421.431	-8.441213	-5.681792E-008	0.0080811	7
	11	18	79453.13	4433.585	-573.9996	1	4470.588	-7.376835	-3.263494E-008	0.0080263	7
	12	19	63140.62	4483.335	-518.5964	1	4513.229	-6.598194	-7.960696E-008	0.0081432	7
	13	21	50203.12	4524.595	-477.5789	1	4549.73	-6.025359	-1.032407E-008	0.0080686	7
	14	22	39890.62	4562.291	-449.6098	1	4584.392	-5.628275	-5.61053E-008	0.0080612	7
	15	23	31640.63	4597.391	-434.6748	1	4617.894	-5.401154	-6.486587E-008	0.0081512	7
	16	25	25171.88	4627.555	-428.2925	1	4647.332	-5.287813	-5.152501E-008	0.0080552	7
	17	26	20015.62	4671.062	-435.6514	1	4691.333	-5.328337	-3.212549E-008	0.0080184	7
	18	27	15890.62	4696.712	-459.8574	1	4719.17	-5.592035	-3.205672E-008	0.0080146	7
	19	29	12609.37	4732.778	-498.2958	1	4758.938	-6.010306	-5.324867E-008	0.0080583	7
	20	30	10078.13	4762.684	-553.2101	1	4794.705	-6.625508	4.658838E-008	0.0078606	7
	21	31	8015.625	4804.982	-622.7656	1	4845.172	-7.384842	-4.757759E-008	0.0080691	7
	22	33	6328.125	4836.669	-699.0505	1	4886.926	-8.224088	-9.617741E-009	0.0080634	7
	23	34	5015.625	4878.063	-812.1008	1	4945.201	-9.451924	-5.230792E-008	0.0080477	7
	24	35	3984.375	4943.975	-955.112	1	5035.388	-10.93411	-1.384018E-008	0.0080573	7
	25	37	3170.956	4975.409	-1130.349	1	5102.194	-12.79961	-4.264723E-008	0.0081758	7
	26	38	2527.573	5033.762	-1341.726	1	5209.51	-14.92493	-7.337072E-010	0.0081412	7
	27	39	1976.103	5108.017	-1627.696	1	5361.085	-17.67475	-4.16846E-008	0.0080288	7
	28	41	1577.524	5157.395	-1955.103	1	5515.537	-20.76108	1.548406E-007	0.0077801	7
	29	42	1265.625	5265.847	-2343.275	1	5763.687	-23.98882	-5.23001E-008	0.0080502	7
	30	43	998.264	5371.674	-2865.769	1	6088.31	-28.07976	-1.456875E-008	0.0080603	7
	31	45	796.875	5489.995	-3467.797	1	6493.509	-32.27887	-4.455595E-008	0.0081738	7
	32	46	627.7902	5633.266	-4256.422	1	7060.511	-37.07421	1.545599E-007	0.0077892	7
	33	48	505.5147	5789.803	-5141.196	1	7742.979	-41.60425	-1.033924E-008	0.0080613	7
	34	49	397.9953	6010.238	-6345.174	1	8739.806	-46.55282	4.340727E-009	0.0080342	7
	35	50	315.5048	6271.516	-7791.313	1	10001.82	-51.16813	3.844935E-010	0.0079682	6
	36	52	252.4038	6583.11	-9508.03	1	11564.6	-55.3023	2.462014E-010	0.0079671	6
	37	53	198.6229	7003.539	-11778.45	1	13703.34	-59.26402	1.193453E-009	0.0079745	6
	38	54	158.3615	7522.674	-14430.58	1	16273.67	-62.46693	1.277072E-009	0.0079727	6
	39	56	125.558	8204.064	-17751.43	1	19555.56	-65.19534	1.260696E-009	0.007971	6
	40	57	100.4464	9074.547	-21689.43	1	23511.24	-67.29626	3.869848E-010	0.0079731	6
	41	58	79.00281	10306.84	-26761.63	1	28677.79	-68.93656	-2.056796E-010	0.0079674	6
	42	60	63.3446	11500.23	-32184.18	1	34177.14	-70.33689	2.635499E-010	0.0079706	6
	43	61	49.86702	14092	-40252.04	1	42647.52	-70.70515	-1.214213E-010	0.0079668	6
	44	63	39.72458	16280.81	-48861.64	1	51502.66	-71.57181	8.372945E-010	0.0079753	6
	45	64	31.6723	19982.4	-59453.83	1	62722.04	-71.42253	-2.064217E-010	0.0079646	6
	46	65	24.93351	24420.52	-72488.76	1	76491.71	-71.382	3.279735E-010	0.0079625	6
	47	67	19.86229	30355.11	-87377.27	1	92499.84	-70.84263	1.23431E-010	0.007969	6
	48	68	15.83615	38027.64	-104354	1	111066.9	-69.97775	4.672647E-010	0.0079713	5
	49	69	12.40079	49850.2	-128131.2	1	137486.9	-68.74118	2.086711E-009	0.0079769	5
	50	71	9.93114	61417.26	-150344.3	1	162405.3	-67.77946	2.137348E-010	0.0079735	5
	51	72	7.944915	78440.56	-175627.1	1	192348.1	-65.93297	-6.19496E-010	0.0079675	5
	52	74	6.317385	98123.5	-206884	1	228974.2	-64.62538	6.964882E-010	0.0079592	5
	53	76	5.008013	124023.1	-241376.6	1	271375	-62.8052	1.473663E-010	0.0079757	5
	54	79	3.945707	155136.9	-279205.3	1	319410.5	-60.94182	-1.023901E-010	0.0079677	5
	55	81	3.158693	189320.1	-316912.6	1	369155.4	-59.14637	2.874614E-011	0.0079628	5
	56	84	2.504006	228939.9	-359340.5	1	426074	-57.49833	1.714764E-010	0.0079763	5
	57	87	1.998082	271000.1	-404082.9	1	486543	-56.15203	3.892008E-010	0.0079748	5
	58	90	1.584686	319028.4	-453436.5	1	554422.1	-54.87058	5.179161E-011	0.0079192	5
	59	94	1.266892	365998	-508857.5	1	626809.8	-54.27426	2.314222E-010	0.0079795	5
	60	98	0.999041	420817.4	-576952.7	1	714116	-53.89376	-2.455685E-010	0.0079446	5
