EXPLAIN
TAG	EISPOT
TITLE	LABEL	Potentiostatic EIS	Test &Identifier
DATE	LABEL	10/28/2019	Date
TIME	LABEL	11:50:27	Time
NOTES	NOTES	1	&Notes...
	
PSTAT	PSTAT	REF600-11020	Potentiostat
VDC	POTEN	0.00000E+000	T	DC &Voltage (V)
FREQINIT	QUANT	1.00000E+006	Initial Fre&q. (Hz)
FREQFINAL	QUANT	1.00000E+000	Final Fre&q. (Hz)
PTSPERDEC	QUANT	1.00000E+001	Points/&decade
VAC	QUANT	2.50000E+001	AC &Voltage (mV rms)
AREA	QUANT	1.00000E-002	&Area (cm^2)
CONDIT	TWOPARAM	T	5.00000E+000	0.00000E+000	Conditionin&g	Time(s)	E(V)
DELAY	TWOPARAM	T	5.00000E+000	0.00000E+000	Init. De&lay	Time(s)	Stab.(mV/s)
SPEED	SELECTOR	1	&Optimize for:
ZGUESS	QUANT	1.00000E+005	E&stimated Z (ohms)
OCVCURVE	TABLE	19
	Pt	T	Vf	Vm	Ach	Over
	#	s	V vs. Ref.	V	V	bits
	0	0.258333	7.88499E-003	7.88499E-003	5.76399E-004	...........
	1	0.516667	7.88796E-003	8.04051E-003	5.75265E-004	...........
	2	0.775	7.90590E-003	8.17197E-003	5.72332E-004	...........
	3	1.03333	7.95576E-003	8.30489E-003	5.72399E-004	...........
	4	1.29167	8.04341E-003	8.42371E-003	5.76099E-004	...........
	5	1.55	8.15846E-003	8.56313E-003	5.76966E-004	...........
	6	1.80833	8.28644E-003	8.70334E-003	5.76066E-004	...........
	7	2.06667	8.41896E-003	8.82442E-003	5.79099E-004	...........
	8	2.325	8.55267E-003	8.96058E-003	5.70966E-004	...........
	9	2.58333	8.68590E-003	9.09422E-003	5.73366E-004	...........
	10	2.84167	8.81766E-003	9.18962E-003	5.74966E-004	...........
	11	3.1	8.94728E-003	9.37003E-003	5.72299E-004	...........
	12	3.35833	9.07584E-003	9.46745E-003	5.71832E-004	...........
	13	3.61667	9.20499E-003	9.58050E-003	5.70166E-004	...........
	14	3.875	9.33234E-003	9.67713E-003	5.77132E-004	...........
	15	4.13333	9.45252E-003	9.75745E-003	5.81299E-004	...........
	16	4.39167	9.56464E-003	9.97970E-003	5.75399E-004	...........
	17	4.65	9.67624E-003	1.00294E-002	5.70999E-004	...........
	18	4.90833	9.79343E-003	1.01138E-002	5.69099E-004	...........
EOC	QUANT	0.0097934	Open Circuit (V)
PSTATMODEL	IQUANT	4	Pstat Model
PSTATSECTION	LABEL	REF600-11020	Pstat Section
PSTATSERIALNO	LABEL	11020	Pstat Serial Number
CTRLMODE	IQUANT	1	Control Mode
IESTAB	IQUANT	0	I/E Stability
CASPEED	IQUANT	1	Control Amp Speed
CONVENTION	IQUANT	1	Current Convention
ICHRANGE	IQUANT	2	Ich Range
ICHRANGEMODE	TOGGLE	F	Ich Auto Range
ICHOFFSETENABLE	TOGGLE	T	Ich Offset Enable
ICHOFFSET	QUANT	0	Ich Offset (V)
ICHFILTER	IQUANT	3	Ich Filter
VCHRANGE	IQUANT	2	Vch Range
VCHRANGEMODE	TOGGLE	F	Vch Auto Range
VCHOFFSETENABLE	TOGGLE	T	Vch Offset Enable
VCHOFFSET	QUANT	0	Vch Offset (V)
VCHFILTER	IQUANT	3	Vch Filter
ACHRANGE	IQUANT	2	Ach Range
ACHOFFSETENABLE	TOGGLE	F	Ach Offset Enable
ACHOFFSET	QUANT	0	Ach Offset (V)
ACHFILTER	IQUANT	3	Ach Filter
IERANGELOWERLIMIT	IQUANT	1	I/E Range Lower Limit
IERANGEMODE	TOGGLE	F	I/E AutoRange
IERANGE	IQUANT	5	I/E Range
POSFEEDENABLE	TOGGLE	F	Positive Feedback IR Comp
POSFEEDRESISTANCE	QUANT	0	Positive Feedback Resistance (ohm)
ACHSELECT	IQUANT	0	Ach Select
CABLEID	IQUANT	14	Cable ID
DCCALDATE	LABEL	8/19/2019	DC Calibration Date
ACCALDATE	LABEL	8/19/2019	AC Calibration Date
THERMOSELECT	IQUANT	1	Thermo Select
FRAMEWORKVERSION	QUANT	6.33	Framework Version
INSTRUMENTVERSION	LABEL	3.50	Instrument Version
ZCURVE	TABLE
	Pt	Time	Freq	Zreal	Zimag	Zsig	Zmod	Zphz	Idc	Vdc	IERange
	#	s	Hz	ohm	ohm	V	ohm	°	A	V	#
	0	1	1000078	1460.518	-3009.222	1	3344.926	-64.1105	-1.764771E-006	0.0120235	8
	1	3	794390.6	1655.185	-3584.543	1	3948.238	-65.21457	2.861871E-007	0.0114245	8
	2	4	630984.4	1886.941	-4269.018	1	4667.447	-66.15417	-4.394288E-006	0.0124199	8
	3	6	501234.4	2128.517	-5109.369	1	5535.001	-67.38383	-2.598842E-006	0.0120892	8
	4	8	398109.4	2490.368	-6191.287	1	6673.378	-68.08816	1.881494E-006	0.0110433	8
	5	9	316265.6	2852.116	-7483.676	1	8008.744	-69.13757	-2.982684E-007	0.011434	8
	6	11	251203.1	3424.276	-8981.624	1	9612.24	-69.13047	2.258284E-008	0.0114341	8
	7	13	199546.9	4189.374	-11206.25	1	11963.73	-69.50211	2.068567E-007	0.0113706	8
	8	15	158578.1	6003.972	-12806.13	1	14143.72	-64.88114	-1.189335E-006	0.0115664	8
	9	16	125953.1	6567.647	-15588.5	1	16915.53	-67.15364	-1.440169E-006	0.0145474	7
	10	18	100078.1	7928.462	-18856.81	1	20455.8	-67.19537	-4.751042E-008	0.0113621	7
	11	19	79453.13	9910.43	-22379.27	1	24475.47	-66.11434	8.631075E-008	0.0111301	7
	12	21	63140.62	12491.69	-26369.27	1	29178.43	-64.65208	-3.941053E-008	0.0112356	7
	13	22	50203.12	15688.07	-30896.2	1	34650.98	-63.08004	-4.078478E-008	0.01123	7
	14	24	39890.62	19671.79	-35926.69	1	40959.82	-61.29692	-5.152445E-008	0.0113976	7
	15	25	31640.63	24611.46	-41466.87	1	48220.59	-59.30998	-9.009087E-008	0.0113956	7
	16	27	25171.88	30573.19	-47199.53	1	56236.25	-57.06711	-6.158589E-008	0.0113111	7
	17	28	20015.62	35497.2	-52845.17	1	63660.53	-56.10992	-6.137117E-008	0.01131	7
	18	30	15890.62	46182.91	-59194.35	1	75078.84	-52.03896	-7.36077E-009	0.0112037	7
	19	32	12609.37	57214.63	-65124.5	1	86687.45	-48.69933	3.537455E-009	0.011025	6
	20	33	10078.13	67645.77	-71328.31	1	98304	-46.51787	-6.694469E-009	0.011106	6
	21	35	8015.625	81134.92	-75394.17	1	110757.2	-42.8996	-1.072053E-008	0.0114535	6
	22	37	6328.125	94647.83	-80513.58	1	124260.4	-40.38664	6.540815E-009	0.0112072	6
	23	39	5015.625	109209.5	-82780.46	1	137037.7	-37.162	5.683075E-009	0.011205	6
	24	40	3984.375	120046.1	-82508.48	1	145666.5	-34.501	5.179167E-009	0.0113108	6
	25	42	3170.956	138517.1	-83388.48	1	161680.6	-31.04831	-1.011237E-009	0.0111424	6
	26	44	2527.573	151778.5	-81505.33	1	172278.4	-28.23588	-1.126499E-008	0.0114521	6
	27	45	1976.103	163588.3	-80897.63	1	182498.1	-26.3133	-1.53964E-009	0.0111428	6
	28	47	1577.524	184503.2	-89232.99	1	204948.7	-25.81023	-9.264053E-009	0.0113019	6
	29	48	1265.625	188439.4	-70722.38	1	201273.6	-20.5714	-1.124714E-009	0.0112423	5
	30	50	998.264	198145.7	-69770.09	1	210070.4	-19.39794	-1.700172E-009	0.0112427	5
	31	51	796.875	207535.4	-70431.97	1	219161.1	-18.74584	1.320331E-009	0.0111802	5
	32	53	627.7902	216071.6	-70465.88	1	227271.6	-18.06232	-1.833956E-010	0.0113935	5
	33	54	505.5147	224285.2	-71233.47	1	235325.4	-17.61996	-1.204889E-009	0.0113838	5
	34	55	397.9953	234306.2	-73932.19	1	245693.6	-17.51239	-2.036023E-010	0.0112155	5
	35	57	315.5048	243718.4	-75974.61	1	255285.7	-17.31388	-7.314637E-010	0.0112165	5
	36	58	252.4038	251622.5	-78909.62	1	263705.5	-17.41159	9.022375E-010	0.0112113	5
	37	59	198.6229	262222.1	-83408.4	1	275167.9	-17.64499	-2.261245E-010	0.0112139	5
	38	61	158.3615	272230.3	-89838.78	1	286671.2	-18.26341	-3.485338E-010	0.0112071	5
	39	62	125.558	281831.2	-94280.55	1	297182.8	-18.49655	1.392235E-010	0.0112117	5
	40	64	100.4464	293424.1	-103432.6	1	311120.6	-19.41765	-1.666966E-010	0.0112084	5
	41	65	79.00281	308660.3	-117182.8	1	330155.9	-20.78925	-2.176733E-010	0.0112053	5
	42	67	63.3446	311034.9	-155717.2	1	347837	-26.59449	-5.267208E-010	0.0112089	5
	43	68	49.86702	329857.4	-143269.9	1	359627.8	-23.47718	1.724844E-010	0.0111986	5
	44	70	39.72458	347718.9	-159553	1	382577.6	-24.64831	-2.386636E-010	0.0112065	5
	45	71	31.6723	373007.7	-170159.5	1	409986.6	-24.52163	-7.656807E-010	0.0112025	5
	46	73	24.93351	388107.5	-197265.9	1	435363.4	-26.94315	-4.387497E-011	0.0112062	5
	47	75	19.86229	409818.3	-220381.4	1	465316	-28.26932	-5.289477E-010	0.0112073	5
	48	76	15.83615	433744.4	-269303.1	1	510547.1	-31.83531	-1.427575E-009	0.0112036	5
	49	77	12.40079	495196.3	-268766.5	1	563431.3	-28.49078	-1.348887E-009	0.0112	5
	50	79	9.93114	512783.1	-300312.3	1	594250.8	-30.35545	-4.635028E-010	0.011213	5
	51	80	7.944915	541274.3	-329825.2	1	633847.4	-31.35602	8.974493E-010	0.011211	6
	52	82	6.317385	593831.1	-370550.8	1	699959.4	-31.96418	-1.341427E-012	0.0112166	6
	53	85	5.008013	641618.9	-406111.7	1	759342.9	-32.3317	3.084897E-010	0.0112096	6
	54	87	3.945707	693840.7	-451383.1	1	827744.9	-33.04631	2.638896E-010	0.0112082	6
	55	91	3.158693	745389.8	-496703.9	1	895723.6	-33.67822	2.155647E-010	0.0111941	6
	56	94	2.504006	804570.6	-553243.6	1	976428	-34.51342	-2.245837E-012	0.0112151	4
	57	97	1.998082	866892.9	-616532.4	1	1063774	-35.42036	2.112122E-010	0.0112005	4
	58	100	1.584686	937026.5	-686810.4	1	1161778	-36.24022	-4.706458E-011	0.0111554	4
	59	104	1.266892	1010796	-771052.1	1	1271311	-37.33698	1.455478E-010	0.0112009	4
	60	108	0.999041	1100117	-871291.3	1	1403355	-38.37919	-2.867757E-010	0.0111824	4
