EXPLAIN
TAG	EISPOT
TITLE	LABEL	Potentiostatic EIS	Test &Identifier
DATE	LABEL	11/11/2019	Date
TIME	LABEL	12:16:32	Time
NOTES	NOTES	3	&Notes...
	
	
	
PSTAT	PSTAT	REF600-11020	Potentiostat
VDC	POTEN	0.00000E+000	T	DC &Voltage (V)
FREQINIT	QUANT	1.00000E+006	Initial Fre&q. (Hz)
FREQFINAL	QUANT	1.00000E+000	Final Fre&q. (Hz)
PTSPERDEC	QUANT	1.00000E+001	Points/&decade
VAC	QUANT	2.50000E+001	AC &Voltage (mV rms)
AREA	QUANT	1.00000E-002	&Area (cm^2)
CONDIT	TWOPARAM	T	5.00000E+000	0.00000E+000	Conditionin&g	Time(s)	E(V)
DELAY	TWOPARAM	T	5.00000E+000	0.00000E+000	Init. De&lay	Time(s)	Stab.(mV/s)
SPEED	SELECTOR	1	&Optimize for:
ZGUESS	QUANT	1.00000E+005	E&stimated Z (ohms)
OCVCURVE	TABLE	19
	Pt	T	Vf	Vm	Ach	Over
	#	s	V vs. Ref.	V	V	bits
	0	0.258333	8.88686E-003	8.88686E-003	5.32100E-004	...........
	1	0.516667	8.88781E-003	8.93675E-003	5.33633E-004	...........
	2	0.775	8.89403E-003	9.00329E-003	5.28866E-004	...........
	3	1.03333	8.91313E-003	9.08184E-003	5.25633E-004	...........
	4	1.29167	8.95114E-003	9.17014E-003	5.30266E-004	...........
	5	1.55	9.00840E-003	9.25074E-003	5.28566E-004	...........
	6	1.80833	9.08013E-003	9.32856E-003	5.23966E-004	...........
	7	2.06667	9.15960E-003	9.41187E-003	5.32966E-004	...........
	8	2.325	9.24134E-003	9.48523E-003	5.31666E-004	...........
	9	2.58333	9.32252E-003	9.56558E-003	5.34500E-004	...........
	10	2.84167	9.40223E-003	9.63866E-003	5.33000E-004	...........
	11	3.1	9.48047E-003	9.71756E-003	5.28466E-004	...........
	12	3.35833	9.55767E-003	9.79278E-003	5.34400E-004	...........
	13	3.61667	9.63422E-003	9.86395E-003	5.36466E-004	...........
	14	3.875	9.71007E-003	9.93750E-003	5.36199E-004	...........
	15	4.13333	9.78479E-003	1.00055E-002	5.31966E-004	...........
	16	4.39167	9.85814E-003	1.00801E-002	5.33533E-004	...........
	17	4.65	9.93034E-003	1.01492E-002	5.34266E-004	...........
	18	4.90833	1.00018E-002	1.02186E-002	5.32333E-004	...........
EOC	QUANT	0.0100018	Open Circuit (V)
PSTATMODEL	IQUANT	4	Pstat Model
PSTATSECTION	LABEL	REF600-11020	Pstat Section
PSTATSERIALNO	LABEL	11020	Pstat Serial Number
CTRLMODE	IQUANT	1	Control Mode
IESTAB	IQUANT	0	I/E Stability
CASPEED	IQUANT	1	Control Amp Speed
CONVENTION	IQUANT	1	Current Convention
ICHRANGE	IQUANT	2	Ich Range
ICHRANGEMODE	TOGGLE	F	Ich Auto Range
ICHOFFSETENABLE	TOGGLE	T	Ich Offset Enable
ICHOFFSET	QUANT	0	Ich Offset (V)
ICHFILTER	IQUANT	3	Ich Filter
VCHRANGE	IQUANT	2	Vch Range
VCHRANGEMODE	TOGGLE	F	Vch Auto Range
VCHOFFSETENABLE	TOGGLE	T	Vch Offset Enable
VCHOFFSET	QUANT	0	Vch Offset (V)
VCHFILTER	IQUANT	3	Vch Filter
ACHRANGE	IQUANT	2	Ach Range
ACHOFFSETENABLE	TOGGLE	F	Ach Offset Enable
ACHOFFSET	QUANT	0	Ach Offset (V)
ACHFILTER	IQUANT	3	Ach Filter
IERANGELOWERLIMIT	IQUANT	1	I/E Range Lower Limit
IERANGEMODE	TOGGLE	F	I/E AutoRange
IERANGE	IQUANT	5	I/E Range
POSFEEDENABLE	TOGGLE	F	Positive Feedback IR Comp
POSFEEDRESISTANCE	QUANT	0	Positive Feedback Resistance (ohm)
ACHSELECT	IQUANT	0	Ach Select
CABLEID	IQUANT	14	Cable ID
DCCALDATE	LABEL	8/19/2019	DC Calibration Date
ACCALDATE	LABEL	8/19/2019	AC Calibration Date
THERMOSELECT	IQUANT	1	Thermo Select
FRAMEWORKVERSION	QUANT	6.33	Framework Version
INSTRUMENTVERSION	LABEL	3.50	Instrument Version
ZCURVE	TABLE
	Pt	Time	Freq	Zreal	Zimag	Zsig	Zmod	Zphz	Idc	Vdc	IERange
	#	s	Hz	ohm	ohm	V	ohm	°	A	V	#
	0	2	1000078	2425.898	-1647.974	1	2932.712	-34.18926	2.4496E-006	0.0127459	8
	1	3	794390.6	2769.675	-1579.475	1	3188.392	-29.69501	-4.237829E-006	0.0125681	8
	2	4	630984.4	3063.45	-1460.644	1	3393.849	-25.49167	7.709179E-006	0.0109051	8
	3	6	501234.4	3305.229	-1304.861	1	3553.478	-21.54345	-1.531642E-006	0.0121358	8
	4	7	398109.4	3501.125	-1148.508	1	3684.691	-18.16154	4.164405E-006	0.0115422	8
	5	8	316265.6	3648.145	-1006.171	1	3784.355	-15.41904	-3.920129E-007	0.0112574	8
	6	10	251203.1	3760.457	-871.5659	1	3860.138	-13.04912	-1.523513E-007	0.0112479	8
	7	11	199546.9	3845.895	-753.3285	1	3918.981	-11.0827	-2.357277E-006	0.0114406	8
	8	13	158578.1	3923.888	-650.8572	1	3977.501	-9.417931	1.84315E-006	0.0118078	8
	9	14	125953.1	4017.314	-511.9106	1	4049.798	-7.261841	3.669313E-006	0.0071094	7
	10	15	100078.1	4029.667	-452.3302	1	4054.975	-6.404641	-1.023814E-006	0.0120018	7
	11	17	79453.13	4066.194	-425.6875	1	4088.415	-5.976492	8.154229E-007	0.0112909	7
	12	18	63140.62	4095.946	-401.5403	1	4115.581	-5.59902	-1.023053E-006	0.0119903	7
	13	19	50203.12	4131.787	-393.5104	1	4150.483	-5.440427	9.961366E-007	0.0107932	7
	14	21	39890.62	4164.273	-394.6455	1	4182.931	-5.413716	1.082001E-006	0.0103774	7
	15	22	31640.63	4199.333	-406.6342	1	4218.976	-5.53088	1.072806E-006	0.0100563	7
	16	23	25171.88	4229.88	-424.8106	1	4251.159	-5.735036	-6.124936E-007	0.0130642	7
	17	25	20015.62	4276.95	-455.9007	1	4301.179	-6.084458	5.979776E-007	0.0117063	7
	18	26	15890.62	4309.236	-499.7011	1	4338.112	-6.614504	1.083817E-006	0.0103836	7
	19	28	12609.37	4351.198	-552.08	1	4386.083	-7.23105	8.173153E-007	0.0112802	7
	20	29	10078.13	4393.918	-619.895	1	4437.431	-8.030303	9.702439E-007	0.0098313	7
	21	30	8015.625	4440.206	-698.8263	1	4494.862	-8.944186	-1.20303E-006	0.0129066	7
	22	32	6328.125	4498.897	-805.6271	1	4570.46	-10.15247	1.26232E-007	0.0101288	7
	23	33	5015.625	4552.363	-932.1633	1	4646.82	-11.57219	-1.194915E-006	0.0125497	7
	24	34	3984.375	4614.935	-1085.328	1	4740.84	-13.23418	6.715209E-008	0.0124433	7
	25	36	3170.956	4679.852	-1280.466	1	4851.867	-15.30232	1.083517E-006	0.0103779	7
	26	37	2527.573	4743.864	-1511.152	1	4978.737	-17.66921	-2.890402E-007	0.0128296	7
	27	38	1976.103	4828.361	-1827.285	1	5162.561	-20.72906	7.760784E-007	0.0097343	7
	28	40	1577.524	4906.563	-2169.525	1	5364.811	-23.85348	-1.207606E-006	0.0129079	7
	29	41	1265.625	4996.057	-2621.696	1	5642.152	-27.68838	-2.895777E-007	0.0128258	7
	30	43	998.264	5110.874	-3205.576	1	6032.972	-32.09623	1.00412E-006	0.0107859	7
	31	44	796.875	5239.358	-3880.287	1	6519.777	-36.52378	-2.95041E-007	0.0106249	7
	32	45	627.7902	5401.166	-4765.131	1	7202.712	-41.42006	-1.030777E-006	0.0119812	7
	33	47	505.5147	5579.994	-5763.363	1	8022.012	-45.92612	-8.895594E-007	0.0131414	7
	34	48	397.9953	5818.716	-7134.175	1	9206.189	-50.79892	6.381098E-009	0.0115056	7
	35	50	315.5048	6118.481	-8766.989	1	10690.93	-55.08881	1.649339E-009	0.0114327	6
	36	51	252.4038	6474.867	-10696.59	1	12503.64	-58.81263	1.412386E-009	0.0114347	6
	37	52	198.6229	6959.063	-13249.66	1	14966.03	-62.29039	9.875604E-010	0.0114365	6
	38	54	158.3615	7549.924	-16212.91	1	17884.63	-65.02985	7.093633E-010	0.0114398	6
	39	55	125.558	8326.489	-19940.32	1	21608.96	-67.33603	9.524878E-010	0.0114466	6
	40	56	100.4464	9283.414	-24321.68	1	26033.17	-69.1085	1.208636E-010	0.011431	6
	41	58	79.00281	10688.98	-30063.11	1	31906.82	-70.42709	1.508342E-009	0.0114305	6
	42	59	63.3446	12473.49	-36729.14	1	38789.4	-71.24213	2.512585E-009	0.0114288	6
	43	61	49.86702	14225.69	-44977.07	1	47173.16	-72.44849	1.267038E-009	0.011425	6
	44	62	39.72458	17243.67	-54631.62	1	57288.38	-72.48246	6.064056E-010	0.011433	6
	45	63	31.6723	20992.4	-66123.51	1	69375.78	-72.38679	8.01074E-010	0.0114361	6
	46	65	24.93351	25908.2	-80968.68	1	85012.72	-72.25647	7.999077E-010	0.0114187	6
	47	66	19.86229	31971.98	-97658.6	1	102759	-71.87231	4.756254E-010	0.0114375	6
	48	68	15.83615	40209.79	-117776.8	1	124451.6	-71.14974	-3.586269E-010	0.0114281	5
	49	69	12.40079	50042.8	-143674.8	1	152140.5	-70.79646	-3.451005E-010	0.0114391	5
	50	70	9.93114	63417.76	-169511.7	1	180986.2	-69.48815	3.367342E-010	0.0114377	5
	51	72	7.944915	80048.69	-200705.4	1	216079.8	-68.25607	3.913535E-010	0.0114407	5
	52	74	6.317385	100249.2	-237673.2	1	257950.5	-67.13025	2.924097E-010	0.0114516	5
	53	76	5.008013	126540.6	-280414.8	1	307644.2	-65.71215	2.467914E-010	0.0114491	5
	54	78	3.945707	158946.9	-329795.7	1	366100.1	-64.26799	4.155638E-010	0.0114478	5
	55	81	3.158693	196377.6	-381756.1	1	429303.9	-62.77845	-1.291376E-010	0.0114382	5
	56	84	2.504006	242631.4	-441063.6	1	503395.6	-61.18457	4.366115E-010	0.0114324	5
	57	87	1.998082	295117	-503981	1	584029.9	-59.64797	9.29162E-011	0.0114759	5
	58	90	1.584686	354791.2	-573198.4	1	674116.6	-58.24384	1.528038E-010	0.0114166	5
	59	94	1.266892	421256.3	-649381.7	1	774050	-57.02838	1.290436E-010	0.0114636	5
	60	98	0.999041	499085	-735848.4	1	889133.7	-55.85314	-1.189015E-010	0.011397	5
