EXPLAIN
TAG	EISPOT
TITLE	LABEL	Potentiostatic IDE	Test &Identifier
DATE	LABEL	9/10/2019	Date
TIME	LABEL	9:49:35	Time
NOTES	NOTES	1	&Notes...
	
PSTAT	PSTAT	REF600-11020	Potentiostat
VDC	POTEN	0.00000E+000	T	DC &Voltage (V)
FREQINIT	QUANT	1.00000E+006	Initial Fre&q. (Hz)
FREQFINAL	QUANT	1.00000E+000	Final Fre&q. (Hz)
PTSPERDEC	QUANT	1.00000E+001	Points/&decade
VAC	QUANT	2.50000E+001	AC &Voltage (mV rms)
AREA	QUANT	1.00000E-002	&Area (cm^2)
CONDIT	TWOPARAM	T	5.00000E+000	0.00000E+000	Conditionin&g	Time(s)	E(V)
DELAY	TWOPARAM	T	5.00000E+000	0.00000E+000	Init. De&lay	Time(s)	Stab.(mV/s)
SPEED	SELECTOR	1	&Optimize for:
ZGUESS	QUANT	1.00000E+007	E&stimated Z (ohms)
OCVCURVE	TABLE	19
	Pt	T	Vf	Vm	Ach	Over
	#	s	V vs. Ref.	V	V	bits
	0	0.258333	7.54581E-003	7.54581E-003	5.65699E-004	...........
	1	0.516667	7.54375E-003	7.43802E-003	5.66732E-004	...........
	2	0.775	7.53149E-003	7.35595E-003	5.62532E-004	...........
	3	1.03333	7.49842E-003	7.29459E-003	5.64166E-004	...........
	4	1.29167	7.44345E-003	7.25074E-003	5.65566E-004	...........
	5	1.55	7.37808E-003	7.21996E-003	5.66299E-004	...........
	6	1.80833	7.31630E-003	7.19225E-003	5.68032E-004	...........
	7	2.06667	7.26572E-003	7.17023E-003	5.66166E-004	...........
	8	2.325	7.22707E-003	7.15521E-003	5.62866E-004	...........
	9	2.58333	7.19791E-003	7.14392E-003	5.62366E-004	...........
	10	2.84167	7.17579E-003	7.13273E-003	5.65032E-004	...........
	11	3.1	7.15893E-003	7.12938E-003	5.60332E-004	...........
	12	3.35833	7.14614E-003	7.12192E-003	5.61432E-004	...........
	13	3.61667	7.13658E-003	7.12117E-003	5.62299E-004	...........
	14	3.875	7.12963E-003	7.11972E-003	5.64566E-004	...........
	15	4.13333	7.12494E-003	7.12360E-003	5.64666E-004	...........
	16	4.39167	7.12241E-003	7.12454E-003	5.67399E-004	...........
	17	4.65	7.12189E-003	7.12699E-003	5.66066E-004	...........
	18	4.90833	7.12291E-003	7.13290E-003	5.65599E-004	...........
EOC	QUANT	0.0071229	Open Circuit (V)
PSTATMODEL	IQUANT	4	Pstat Model
PSTATSECTION	LABEL	REF600-11020	Pstat Section
PSTATSERIALNO	LABEL	11020	Pstat Serial Number
CTRLMODE	IQUANT	1	Control Mode
IESTAB	IQUANT	0	I/E Stability
CASPEED	IQUANT	1	Control Amp Speed
CONVENTION	IQUANT	1	Current Convention
ICHRANGE	IQUANT	2	Ich Range
ICHRANGEMODE	TOGGLE	F	Ich Auto Range
ICHOFFSETENABLE	TOGGLE	T	Ich Offset Enable
ICHOFFSET	QUANT	0	Ich Offset (V)
ICHFILTER	IQUANT	3	Ich Filter
VCHRANGE	IQUANT	2	Vch Range
VCHRANGEMODE	TOGGLE	F	Vch Auto Range
VCHOFFSETENABLE	TOGGLE	T	Vch Offset Enable
VCHOFFSET	QUANT	0	Vch Offset (V)
VCHFILTER	IQUANT	3	Vch Filter
ACHRANGE	IQUANT	2	Ach Range
ACHOFFSETENABLE	TOGGLE	F	Ach Offset Enable
ACHOFFSET	QUANT	0	Ach Offset (V)
ACHFILTER	IQUANT	3	Ach Filter
IERANGELOWERLIMIT	IQUANT	1	I/E Range Lower Limit
IERANGEMODE	TOGGLE	F	I/E AutoRange
IERANGE	IQUANT	3	I/E Range
POSFEEDENABLE	TOGGLE	F	Positive Feedback IR Comp
POSFEEDRESISTANCE	QUANT	0	Positive Feedback Resistance (ohm)
ACHSELECT	IQUANT	0	Ach Select
CABLEID	IQUANT	14	Cable ID
DCCALDATE	LABEL	8/19/2019	DC Calibration Date
ACCALDATE	LABEL	8/19/2019	AC Calibration Date
THERMOSELECT	IQUANT	1	Thermo Select
FRAMEWORKVERSION	QUANT	6.33	Framework Version
INSTRUMENTVERSION	LABEL	3.50	Instrument Version
ZCURVE	TABLE
	Pt	Time	Freq	Zreal	Zimag	Zsig	Zmod	Zphz	Idc	Vdc	IERange
	#	s	Hz	ohm	ohm	V	ohm	°	A	V	#
	0	2	1000078	2728.964	-1731.157	1	3231.741	-32.38958	-2.988678E-006	0.0095723	8
	1	4	794390.6	3070.57	-1605.427	1	3464.938	-27.60252	5.56369E-006	0.0081575	8
	2	5	630984.4	3350.307	-1478.357	1	3661.979	-23.80996	-1.143933E-006	0.0086865	8
	3	6	501234.4	3588.034	-1317.842	1	3822.394	-20.16768	-3.048906E-006	0.0093121	8
	4	8	398109.4	3752.612	-1148.861	1	3924.535	-17.02195	-1.512881E-006	0.0090397	8
	5	9	316265.6	3887.761	-988.923	1	4011.565	-14.27156	-1.244982E-007	0.0087794	8
	6	10	251203.1	4003.034	-858.4549	1	4094.048	-12.10381	-1.323515E-006	0.0090047	8
	7	12	199546.9	4084.637	-759.1714	1	4154.588	-10.52886	-3.674508E-007	0.0085349	8
	8	13	158578.1	4139.667	-667.2443	1	4193.097	-9.156357	1.299467E-006	0.008342	8
	9	15	125953.1	4201.389	-557.0577	1	4238.158	-7.552734	-5.883214E-007	0.009887	7
	10	16	100078.1	4234.234	-517.0524	1	4265.687	-6.962056	-2.372744E-008	0.008645	7
	11	17	79453.13	4277.38	-498.4383	1	4306.323	-6.646636	-1.76352E-009	0.0085724	7
	12	19	63140.62	4314.903	-490.0084	1	4342.637	-6.478859	-5.306116E-008	0.0086576	7
	13	20	50203.12	4350.992	-494.2646	1	4378.976	-6.480912	-2.33274E-008	0.0085929	7
	14	21	39890.62	4392.635	-511.2393	1	4422.285	-6.638536	-4.116733E-008	0.0086387	7
	15	23	31640.63	4432.771	-545.1929	1	4466.173	-7.011676	-1.302601E-008	0.0085672	7
	16	24	25171.88	4475.395	-592.5002	1	4514.445	-7.541566	-4.530541E-008	0.0086648	7
	17	25	20015.62	4522.915	-657.9576	1	4570.521	-8.276875	1.108666E-008	0.0086605	7
	18	27	15890.62	4573.676	-742.7256	1	4633.59	-9.223823	-2.806086E-008	0.0086621	7
	19	28	12609.37	4635.182	-843.4913	1	4711.304	-10.31359	-1.63827E-008	0.0085709	7
	20	29	10078.13	4699.98	-968.092	1	4798.647	-11.63888	-4.831134E-009	0.0086235	7
	21	31	8015.625	4775.62	-1121.023	1	4905.43	-13.21037	5.933697E-008	0.0084871	7
	22	32	6328.125	4870.326	-1312.272	1	5044.019	-15.07979	1.473403E-008	0.0085167	7
	23	33	5015.625	4976.454	-1540.578	1	5209.46	-17.20114	1.149452E-008	0.0086578	7
	24	35	3984.375	5100.039	-1812.815	1	5412.642	-19.56782	5.93995E-008	0.0084887	7
	25	36	3170.956	5244.9	-2133.445	1	5662.205	-22.13481	-5.071084E-008	0.0086428	7
	26	37	2527.573	5414.652	-2513.636	1	5969.659	-24.90207	-4.323639E-008	0.0086556	7
	27	39	1976.103	5635.656	-3001.603	1	6385.158	-28.04018	-1.216341E-008	0.0085698	7
	28	40	1577.524	5877.767	-3534.476	1	6858.62	-31.01975	-3.917616E-008	0.0086371	7
	29	41	1265.625	6154.521	-4147.521	1	7421.594	-33.97596	-5.451808E-008	0.0087541	7
	30	43	998.264	6507.099	-4926.443	1	8161.628	-37.12891	-5.61569E-008	0.0086471	7
	31	44	796.875	6903.208	-5793.882	1	9012.4	-40.00683	7.184758E-008	0.0084419	7
	32	45	627.7902	7387.938	-6882.548	1	10097.08	-42.97172	-1.403924E-009	0.0086754	6
	33	47	505.5147	7892.831	-8056.285	1	11278.32	-45.58717	-5.435776E-009	0.0085464	6
	34	48	397.9953	8537.905	-9581.58	1	12833.65	-48.29657	8.264239E-010	0.0085557	6
	35	49	315.5048	9254.873	-11361.24	1	14653.68	-50.83372	8.974206E-010	0.0085448	6
	36	51	252.4038	10042.03	-13404.08	1	16748.49	-53.16029	6.189493E-010	0.0085439	6
	37	52	198.6229	11017.39	-16045.53	1	19463.86	-55.52522	8.736689E-010	0.0085455	6
	38	53	158.3615	12089.74	-19066.56	1	22576.43	-57.622	8.941943E-010	0.0085446	6
	39	55	125.558	13375.21	-22794	1	26428.44	-59.59617	7.53485E-010	0.008549	6
	40	56	100.4464	14818.24	-27140.57	1	30922.34	-61.36629	7.921414E-010	0.0085417	6
	41	57	79.00281	16635.69	-32727.11	1	36712.53	-63.05508	8.009631E-010	0.0085407	6
	42	59	63.3446	18922.75	-38893.58	1	43252.53	-64.05585	5.720261E-010	0.0085411	6
	43	60	49.86702	21301.95	-47342.65	1	51914.35	-65.77452	9.228495E-010	0.0085396	6
	44	61	39.72458	24363.78	-56554.86	1	61579.59	-66.69366	7.148182E-010	0.0085418	6
	45	63	31.6723	27965.24	-68036.09	1	73559.26	-67.65561	3.599017E-010	0.0085413	6
	46	64	24.93351	32614.95	-82388.02	1	88608.8	-68.40287	7.329005E-010	0.0085361	6
	47	65	19.86229	38119.52	-98995.2	1	106080.8	-68.94008	3.32066E-010	0.0085386	5
	48	67	15.83615	44480.42	-118712.5	1	126772.1	-69.45951	6.63209E-010	0.008544	5
	49	68	12.40079	53879.67	-145715.5	1	155357.8	-69.70766	2.667446E-010	0.0085432	5
	50	69	9.93114	65242.39	-173797.1	1	185639.5	-69.42416	5.727454E-010	0.008551	5
	51	71	7.944915	79000.63	-207255.1	1	221801.2	-69.13436	7.712166E-010	0.0085453	5
	52	73	6.317385	97043	-248431.2	1	266712.3	-68.66322	5.287864E-010	0.0085365	5
	53	75	5.008013	120457.5	-297293.7	1	320770.2	-67.94319	4.236819E-011	0.0085393	5
	54	77	3.945707	151176.5	-355387.9	1	386205.8	-66.95585	1.431419E-010	0.0085499	5
	55	80	3.158693	186394.4	-417889.7	1	457574.7	-65.96135	-1.386317E-011	0.0085322	5
	56	83	2.504006	232081.8	-491550.3	1	543584.1	-64.72601	4.445615E-010	0.0085471	5
	57	86	1.998082	286407.9	-572536.5	1	640177.8	-63.42377	2.625557E-010	0.008583	5
	58	89	1.584686	351939.9	-663382.1	1	750957.7	-62.05299	2.107223E-010	0.0085205	5
	59	93	1.266892	428375.5	-765010.4	1	876781.9	-60.7529	2.128075E-010	0.0085787	5
	60	97	0.999041	524615.2	-883340.3	1	1027381	-59.29395	-7.008227E-011	0.0085066	4
