EXPLAIN
TAG	EISPOT
TITLE	LABEL	Potentiostatic EIS	Test &Identifier
DATE	LABEL	10/22/2019	Date
TIME	LABEL	10:06:35	Time
NOTES	NOTES	1	&Notes...
	
PSTAT	PSTAT	REF600-11020	Potentiostat
VDC	POTEN	0.00000E+000	T	DC &Voltage (V)
FREQINIT	QUANT	1.00000E+006	Initial Fre&q. (Hz)
FREQFINAL	QUANT	1.00000E+000	Final Fre&q. (Hz)
PTSPERDEC	QUANT	1.00000E+001	Points/&decade
VAC	QUANT	2.50000E+001	AC &Voltage (mV rms)
AREA	QUANT	1.00000E-002	&Area (cm^2)
CONDIT	TWOPARAM	T	5.00000E+000	0.00000E+000	Conditionin&g	Time(s)	E(V)
DELAY	TWOPARAM	T	5.00000E+000	0.00000E+000	Init. De&lay	Time(s)	Stab.(mV/s)
SPEED	SELECTOR	1	&Optimize for:
ZGUESS	QUANT	1.00000E+005	E&stimated Z (ohms)
OCVCURVE	TABLE	19
	Pt	T	Vf	Vm	Ach	Over
	#	s	V vs. Ref.	V	V	bits
	0	0.258333	7.20773E-003	7.20773E-003	5.52799E-004	...........
	1	0.516667	7.20282E-003	6.95101E-003	5.63499E-004	...........
	2	0.775	7.17351E-003	6.74974E-003	5.59999E-004	...........
	3	1.03333	7.09362E-003	6.57515E-003	5.58399E-004	...........
	4	1.29167	6.95776E-003	6.42660E-003	5.55133E-004	...........
	5	1.55	6.78894E-003	6.30690E-003	5.51966E-004	...........
	6	1.80833	6.61729E-003	6.19054E-003	5.50599E-004	...........
	7	2.06667	6.46180E-003	6.11277E-003	5.52299E-004	...........
	8	2.325	6.32909E-003	6.04727E-003	5.44866E-004	...........
	9	2.58333	6.21922E-003	5.97461E-003	5.54133E-004	...........
	10	2.84167	6.12829E-003	5.88949E-003	5.55499E-004	...........
	11	3.1	6.04951E-003	5.85321E-003	5.52266E-004	...........
	12	3.35833	5.97853E-003	5.82290E-003	5.56566E-004	...........
	13	3.61667	5.91705E-003	5.81064E-003	5.57366E-004	...........
	14	3.875	5.86849E-003	5.76582E-003	5.57166E-004	...........
	15	4.13333	5.83153E-003	5.73755E-003	5.51799E-004	...........
	16	4.39167	5.80035E-003	5.70188E-003	5.48033E-004	...........
	17	4.65	5.77017E-003	5.68746E-003	5.51566E-004	...........
	18	4.90833	5.74034E-003	5.66051E-003	5.49433E-004	...........
EOC	QUANT	0.0057403	Open Circuit (V)
PSTATMODEL	IQUANT	4	Pstat Model
PSTATSECTION	LABEL	REF600-11020	Pstat Section
PSTATSERIALNO	LABEL	11020	Pstat Serial Number
CTRLMODE	IQUANT	1	Control Mode
IESTAB	IQUANT	0	I/E Stability
CASPEED	IQUANT	1	Control Amp Speed
CONVENTION	IQUANT	1	Current Convention
ICHRANGE	IQUANT	2	Ich Range
ICHRANGEMODE	TOGGLE	F	Ich Auto Range
ICHOFFSETENABLE	TOGGLE	T	Ich Offset Enable
ICHOFFSET	QUANT	0	Ich Offset (V)
ICHFILTER	IQUANT	3	Ich Filter
VCHRANGE	IQUANT	2	Vch Range
VCHRANGEMODE	TOGGLE	F	Vch Auto Range
VCHOFFSETENABLE	TOGGLE	T	Vch Offset Enable
VCHOFFSET	QUANT	0	Vch Offset (V)
VCHFILTER	IQUANT	3	Vch Filter
ACHRANGE	IQUANT	2	Ach Range
ACHOFFSETENABLE	TOGGLE	F	Ach Offset Enable
ACHOFFSET	QUANT	0	Ach Offset (V)
ACHFILTER	IQUANT	3	Ach Filter
IERANGELOWERLIMIT	IQUANT	1	I/E Range Lower Limit
IERANGEMODE	TOGGLE	F	I/E AutoRange
IERANGE	IQUANT	5	I/E Range
POSFEEDENABLE	TOGGLE	F	Positive Feedback IR Comp
POSFEEDRESISTANCE	QUANT	0	Positive Feedback Resistance (ohm)
ACHSELECT	IQUANT	0	Ach Select
CABLEID	IQUANT	14	Cable ID
DCCALDATE	LABEL	8/19/2019	DC Calibration Date
ACCALDATE	LABEL	8/19/2019	AC Calibration Date
THERMOSELECT	IQUANT	1	Thermo Select
FRAMEWORKVERSION	QUANT	6.33	Framework Version
INSTRUMENTVERSION	LABEL	3.50	Instrument Version
ZCURVE	TABLE
	Pt	Time	Freq	Zreal	Zimag	Zsig	Zmod	Zphz	Idc	Vdc	IERange
	#	s	Hz	ohm	ohm	V	ohm	°	A	V	#
	0	2	1000078	2545.138	-2047.955	1	3266.779	-38.82203	-1.311553E-006	0.0087492	8
	1	4	794390.6	2979.579	-2030.04	1	3605.406	-34.26731	3.984716E-006	0.0069631	8
	2	5	630984.4	3365.502	-1952.287	1	3890.762	-30.1175	-4.267982E-006	0.0082522	8
	3	6	501234.4	3727.738	-1809.779	1	4143.831	-25.89611	4.786772E-006	0.0066477	8
	4	8	398109.4	4016.755	-1643.223	1	4339.874	-22.24908	-3.496637E-006	0.0080745	8
	5	9	316265.6	4259.074	-1479.657	1	4508.78	-19.15788	-2.263767E-007	0.0073523	8
	6	10	251203.1	4448.256	-1308.532	1	4636.727	-16.39217	9.58115E-007	0.0071316	8
	7	12	199546.9	4612.818	-1164.36	1	4757.502	-14.16658	2.647338E-006	0.0067516	8
	8	13	158578.1	4733.201	-1038.726	1	4845.837	-12.37765	2.960374E-006	0.0067237	8
	9	15	125953.1	4850.452	-850.8646	1	4924.516	-9.94957	4.766709E-007	0.006255	7
	10	16	100078.1	4918.133	-804.0413	1	4983.424	-9.284866	4.448339E-008	0.0072414	7
	11	18	79453.13	4993.021	-761.175	1	5050.708	-8.667877	8.045081E-008	0.0071209	7
	12	19	63140.62	5059.116	-735.9155	1	5112.36	-8.276381	-3.700113E-008	0.007311	7
	13	20	50203.12	5125.739	-728.389	1	5177.234	-8.087821	-5.284862E-008	0.0073258	7
	14	22	39890.62	5196.192	-736.3212	1	5248.103	-8.065344	1.378836E-007	0.0070769	7
	15	23	31640.63	5266.438	-760.739	1	5321.099	-8.219543	6.269838E-008	0.0071825	7
	16	24	25171.88	5341.627	-801.8495	1	5401.476	-8.537117	8.344339E-008	0.0071093	7
	17	26	20015.62	5433.104	-861.5311	1	5500.986	-9.010411	-6.943917E-009	0.0074178	7
	18	27	15890.62	5510.255	-930.8221	1	5588.322	-9.58819	8.446541E-008	0.0071111	7
	19	28	12609.37	5611.021	-1023.924	1	5703.682	-10.3418	-8.064615E-008	0.0074182	7
	20	30	10078.13	5715.207	-1130.924	1	5826.026	-11.19308	-5.794933E-008	0.0074666	7
	21	31	8015.625	5828.904	-1245.189	1	5960.421	-12.05846	-2.950325E-008	0.0073008	7
	22	33	6328.125	5977.372	-1418.466	1	6143.372	-13.3497	1.370488E-007	0.0070726	7
	23	34	5015.625	6131.978	-1599.014	1	6337.034	-14.61534	8.252373E-008	0.0071058	7
	24	35	3984.375	6288.754	-1827.011	1	6548.771	-16.19966	-3.806866E-008	0.007301	7
	25	37	3170.956	6499.695	-2038.216	1	6811.781	-17.41072	-6.380264E-009	0.0074105	7
	26	38	2527.573	6709.374	-2303.838	1	7093.896	-18.95124	-5.974068E-008	0.0074646	7
	27	39	1976.103	6957.849	-2633.285	1	7439.479	-20.72977	-5.819811E-008	0.0074612	7
	28	41	1577.524	7214.422	-2935.812	1	7788.895	-22.14321	-5.364514E-009	0.007411	7
	29	42	1265.625	7465.374	-3389.337	1	8198.745	-24.41841	-1.504917E-009	0.007287	7
	30	43	998.264	7758.922	-3908.044	1	8687.56	-26.73366	6.377351E-008	0.0071816	7
	31	45	796.875	8050.629	-4493.989	1	9220.009	-29.17095	-1.665888E-008	0.0072433	7
	32	46	627.7902	8373.431	-5244.215	1	9880.09	-32.05859	1.829928E-008	0.0068987	6
	33	48	505.5147	8676.176	-6094.941	1	10603.03	-35.08772	-7.031757E-009	0.0072551	6
	34	49	397.9953	9020.23	-7251.561	1	11573.66	-38.79656	2.223289E-010	0.0072356	6
	35	50	315.5048	9385.132	-8658.275	1	12768.96	-42.69316	1.766888E-010	0.0072374	6
	36	52	252.4038	9770.75	-10343.62	1	14228.78	-46.63137	1.194022E-009	0.0072326	6
	37	53	198.6229	10249.34	-12602.95	1	16244.48	-50.88028	3.011392E-010	0.007243	6
	38	54	158.3615	10791.44	-15270.89	1	18699.07	-54.75241	1.043999E-009	0.007231	6
	39	56	125.558	11474.48	-18650.9	1	21897.94	-58.39916	4.437369E-010	0.0072329	6
	40	57	100.4464	12323.08	-22686.37	1	25817.24	-61.48951	9.385238E-011	0.0072294	6
	41	59	79.00281	13427.79	-27976.96	1	31032.5	-64.3609	-1.100926E-010	0.0072343	6
	42	60	63.3446	14735.59	-33715.88	1	36795.36	-66.39217	4.842027E-010	0.0072287	6
	43	61	49.86702	17093.27	-41977.62	1	45324.39	-67.84386	7.763487E-010	0.0072309	6
	44	63	39.72458	19443.39	-51062.5	1	54639.03	-69.15436	7.990097E-010	0.0072412	6
	45	64	31.6723	22475.21	-62088.15	1	66030.85	-70.10032	1.104235E-009	0.0072359	6
	46	66	24.93351	27119.75	-75927.84	1	80625.78	-70.34439	4.104846E-010	0.0072368	6
	47	67	19.86229	32675.43	-91726.89	1	97373	-70.39282	4.085856E-010	0.0072353	6
	48	68	15.83615	39888.55	-110054.1	1	117059.8	-70.0772	5.191807E-010	0.0072393	5
	49	70	12.40079	49129.2	-133737.9	1	142476.3	-69.82897	4.856089E-010	0.0072387	5
	50	71	9.93114	59709.07	-159110.3	1	169944.9	-69.43047	-1.515456E-011	0.0072377	5
	51	73	7.944915	73879.99	-188760.7	1	202703.8	-68.62487	4.193628E-012	0.0072367	5
	52	74	6.317385	89793.3	-224037.6	1	241362.1	-68.1593	3.212223E-010	0.0072414	5
	53	76	5.008013	110025.1	-265964.7	1	287824.1	-67.52595	2.212427E-010	0.007245	5
	54	79	3.945707	134658.4	-316304	1	343774.8	-66.93936	4.285633E-011	0.0072376	5
	55	82	3.158693	162029.8	-371206.8	1	405028.6	-66.41898	1.003171E-010	0.0072563	5
	56	85	2.504006	195439.9	-438381.7	1	479974.2	-65.97167	4.345124E-011	0.0072294	5
	57	88	1.998082	233561.3	-514008.3	1	564584.3	-65.56332	-2.145615E-011	0.007252	5
	58	91	1.584686	281447.7	-606667.9	1	668774.1	-65.11229	1.089349E-010	0.0072903	5
	59	94	1.266892	334309.2	-709554.9	1	784366.6	-64.77237	-3.762612E-011	0.0072583	5
	60	99	0.999041	402275.5	-838718.4	1	930201.1	-64.37617	1.892464E-010	0.0072368	5
