EXPLAIN
TAG	EISPOT
TITLE	LABEL	Potentiostatic EIS	Test &Identifier
DATE	LABEL	11/15/2019	Date
TIME	LABEL	10:52:00	Time
NOTES	NOTES	4	&Notes...
	
	
	
	
PSTAT	PSTAT	REF600-11020	Potentiostat
VDC	POTEN	0.00000E+000	T	DC &Voltage (V)
FREQINIT	QUANT	1.00000E+006	Initial Fre&q. (Hz)
FREQFINAL	QUANT	1.00000E+000	Final Fre&q. (Hz)
PTSPERDEC	QUANT	1.00000E+001	Points/&decade
VAC	QUANT	2.50000E+001	AC &Voltage (mV rms)
AREA	QUANT	1.00000E-002	&Area (cm^2)
CONDIT	TWOPARAM	T	5.00000E+000	0.00000E+000	Conditionin&g	Time(s)	E(V)
DELAY	TWOPARAM	T	5.00000E+000	0.00000E+000	Init. De&lay	Time(s)	Stab.(mV/s)
SPEED	SELECTOR	0	&Optimize for:
ZGUESS	QUANT	1.00000E+005	E&stimated Z (ohms)
OCVCURVE	TABLE	19
	Pt	T	Vf	Vm	Ach	Over
	#	s	V vs. Ref.	V	V	bits
	0	0.258333	6.15904E-003	6.15904E-003	5.54099E-004	...........
	1	0.516667	6.15871E-003	6.14174E-003	5.56832E-004	...........
	2	0.775	6.15672E-003	6.12717E-003	5.62166E-004	...........
	3	1.03333	6.15141E-003	6.12470E-003	5.59066E-004	...........
	4	1.29167	6.14346E-003	6.14096E-003	5.53399E-004	...........
	5	1.55	6.13691E-003	6.15662E-003	5.52966E-004	...........
	6	1.80833	6.13638E-003	6.17700E-003	5.60032E-004	...........
	7	2.06667	6.14369E-003	6.19831E-003	5.53299E-004	...........
	8	2.325	6.15785E-003	6.23006E-003	5.56399E-004	...........
	9	2.58333	6.17718E-003	6.25372E-003	5.57499E-004	...........
	10	2.84167	6.20040E-003	6.28724E-003	5.53233E-004	...........
	11	3.1	6.22644E-003	6.31504E-003	5.58466E-004	...........
	12	3.35833	6.25446E-003	6.34850E-003	5.51933E-004	...........
	13	3.61667	6.28389E-003	6.37955E-003	5.62932E-004	...........
	14	3.875	6.31442E-003	6.41385E-003	5.55766E-004	...........
	15	4.13333	6.34582E-003	6.44320E-003	5.54499E-004	...........
	16	4.39167	6.37767E-003	6.47353E-003	5.59032E-004	...........
	17	4.65	6.40937E-003	6.50275E-003	5.61132E-004	...........
	18	4.90833	6.44049E-003	6.53654E-003	5.64432E-004	...........
EOC	QUANT	0.0064405	Open Circuit (V)
PSTATMODEL	IQUANT	4	Pstat Model
PSTATSECTION	LABEL	REF600-11020	Pstat Section
PSTATSERIALNO	LABEL	11020	Pstat Serial Number
CTRLMODE	IQUANT	1	Control Mode
IESTAB	IQUANT	0	I/E Stability
CASPEED	IQUANT	1	Control Amp Speed
CONVENTION	IQUANT	1	Current Convention
ICHRANGE	IQUANT	2	Ich Range
ICHRANGEMODE	TOGGLE	F	Ich Auto Range
ICHOFFSETENABLE	TOGGLE	T	Ich Offset Enable
ICHOFFSET	QUANT	0	Ich Offset (V)
ICHFILTER	IQUANT	3	Ich Filter
VCHRANGE	IQUANT	2	Vch Range
VCHRANGEMODE	TOGGLE	F	Vch Auto Range
VCHOFFSETENABLE	TOGGLE	T	Vch Offset Enable
VCHOFFSET	QUANT	0	Vch Offset (V)
VCHFILTER	IQUANT	3	Vch Filter
ACHRANGE	IQUANT	2	Ach Range
ACHOFFSETENABLE	TOGGLE	F	Ach Offset Enable
ACHOFFSET	QUANT	0	Ach Offset (V)
ACHFILTER	IQUANT	3	Ach Filter
IERANGELOWERLIMIT	IQUANT	1	I/E Range Lower Limit
IERANGEMODE	TOGGLE	F	I/E AutoRange
IERANGE	IQUANT	5	I/E Range
POSFEEDENABLE	TOGGLE	F	Positive Feedback IR Comp
POSFEEDRESISTANCE	QUANT	0	Positive Feedback Resistance (ohm)
ACHSELECT	IQUANT	0	Ach Select
CABLEID	IQUANT	14	Cable ID
DCCALDATE	LABEL	8/19/2019	DC Calibration Date
ACCALDATE	LABEL	8/19/2019	AC Calibration Date
THERMOSELECT	IQUANT	1	Thermo Select
FRAMEWORKVERSION	QUANT	6.33	Framework Version
INSTRUMENTVERSION	LABEL	3.50	Instrument Version
ZCURVE	TABLE
	Pt	Time	Freq	Zreal	Zimag	Zsig	Zmod	Zphz	Idc	Vdc	IERange
	#	s	Hz	ohm	ohm	V	ohm	°	A	V	#
	0	1	1000078	2228.509	-1468.1	1	2668.627	-33.37615	1.250481E-006	0.0094195	8
	1	1	794390.6	2516.763	-1379.053	1	2869.823	-28.72041	-1.342601E-006	0.0080902	8
	2	2	630984.4	2768.849	-1264.594	1	3043.965	-24.54722	-1.378089E-006	0.0087934	8
	3	2	501234.4	2960.815	-1121.917	1	3166.248	-20.75279	2.710601E-006	0.0076419	8
	4	2	398109.4	3118.568	-978.812	1	3268.568	-17.42529	-1.722545E-006	0.0085694	8
	5	3	316265.6	3235.2	-845.4449	1	3343.844	-14.64541	7.759568E-007	0.0085273	8
	6	3	251203.1	3329.758	-729.4412	1	3408.72	-12.35644	7.105599E-006	0.0073227	8
	7	3	199546.9	3400.816	-628.8629	1	3458.471	-10.47652	4.823398E-007	0.0085047	8
	8	3	158578.1	3443.263	-545.3052	1	3486.175	-8.999124	6.031436E-006	0.0070125	8
	9	4	125953.1	3514.532	-442.858	1	3542.324	-7.181857	-2.364527E-006	0.0088179	7
	10	4	100078.1	3540.899	-398.9155	1	3563.299	-6.427804	-1.054766E-006	0.0085596	7
	11	4	79453.13	3571.148	-370.4419	1	3590.31	-5.922217	-1.239442E-006	0.0091412	7
	12	5	63140.62	3599.606	-354.4339	1	3617.013	-5.623482	-1.061219E-006	0.0085493	7
	13	5	50203.12	3627.765	-348.3978	1	3644.456	-5.485663	-7.278609E-007	0.007848	7
	14	5	39890.62	3656.092	-352.8844	1	3673.083	-5.513085	1.111813E-006	0.0065718	7
	15	6	31640.63	3686.868	-365.3451	1	3704.925	-5.659171	1.026786E-006	0.0073483	7
	16	6	25171.88	3715.771	-384.3777	1	3735.599	-5.905952	8.355458E-007	0.007854	7
	17	6	20015.62	3747.362	-415.501	1	3770.326	-6.327014	-1.259136E-006	0.0095223	7
	18	7	15890.62	3785.08	-457.8842	1	3812.675	-6.897602	8.123911E-007	0.0062295	7
	19	7	12609.37	3823.308	-510.4785	1	3857.236	-7.605011	1.112318E-006	0.0065697	7
	20	7	10078.13	3865.988	-569.2545	1	3907.674	-8.376431	8.122021E-007	0.0062317	7
	21	8	8015.625	3905.977	-650.6096	1	3959.792	-9.456803	-1.059917E-006	0.0085431	7
	22	8	6328.125	3952.834	-750.4776	1	4023.446	-10.75012	-1.131092E-006	0.0096902	7
	23	8	5015.625	4005.606	-874.9404	1	4100.049	-12.32153	1.02783E-006	0.0073405	7
	24	9	3984.375	4062.647	-1024.864	1	4189.922	-14.15833	-1.259143E-006	0.0095161	7
	25	9	3170.956	4118.686	-1207.653	1	4292.085	-16.34184	-1.061049E-006	0.0085399	7
	26	9	2527.573	4189.233	-1435.551	1	4428.372	-18.91538	6.081211E-007	0.0082717	7
	27	10	1976.103	4270.872	-1739.903	1	4611.682	-22.16541	-2.889323E-007	0.007137	7
	28	10	1577.524	4370.522	-2086.562	1	4843.058	-25.5206	-9.30737E-007	0.009754	7
	29	10	1265.625	4463.67	-2493.726	1	5113.024	-29.19086	1.012467E-006	0.0063282	7
	30	11	998.264	4592.656	-3029.034	1	5501.594	-33.40639	-1.260487E-006	0.0095107	7
	31	11	796.875	4738.051	-3654.906	1	5983.934	-37.6464	-1.058548E-006	0.0085346	7
	32	11	627.7902	4922.241	-4464.3	1	6645.181	-42.20693	5.601204E-008	0.0090366	7
	33	12	505.5147	5117.116	-5366.812	1	7415.359	-46.36436	-7.308169E-007	0.0078341	7
	34	12	397.9953	5373.267	-6576.5	1	8492.488	-50.74979	2.443426E-009	0.0080662	7
	35	12	315.5048	5670.67	-8031.533	1	9831.68	-54.77597	2.884848E-009	0.0080557	7
	36	13	252.4038	6015.745	-9745.81	1	11452.95	-58.31443	-2.26317E-010	0.0080028	6
	37	13	198.6229	6463.465	-12015.51	1	13643.64	-61.723	-4.323243E-011	0.0080084	6
	38	13	158.3615	6995.928	-14660.66	1	16244.32	-64.48997	-4.311738E-010	0.0080025	6
	39	14	125.558	7673.786	-17996.89	1	19564.64	-66.90685	-6.483938E-012	0.0079963	6
	40	14	100.4464	8520.918	-21900.31	1	23499.56	-68.7401	1.23687E-009	0.0080006	6
	41	14	79.00281	9741.77	-27073.73	1	28773.06	-70.21006	3.30589E-010	0.0079959	6
	42	15	63.3446	10821.62	-33129.7	1	34852.32	-71.91068	-6.006247E-010	0.0079928	6
	43	15	49.86702	12843.89	-40760.91	1	42736.6	-72.51019	-5.828086E-010	0.0079924	6
	44	15	39.72458	15627.25	-49554.65	1	51960.31	-72.49713	5.585492E-010	0.0079977	6
	45	16	31.6723	19013.21	-60085.73	1	63022.2	-72.44082	-2.689296E-010	0.0079965	6
	46	16	24.93351	23496.42	-73736.04	1	77389.18	-72.32522	-2.986368E-010	0.0079978	6
	47	16	19.86229	29316.31	-89230.42	1	93922.91	-71.81226	9.422094E-010	0.0079964	6
	48	16	15.83615	38247.7	-107255.9	1	113871.5	-70.37364	-2.33315E-009	0.0079873	5
	49	17	12.40079	47678.59	-129883.9	1	138358.5	-69.84251	2.219267E-010	0.008001	5
	50	17	9.93114	60879.69	-154545.3	1	166104.1	-68.49914	-4.937908E-010	0.0079965	5
	51	18	7.944915	76870.73	-182418.4	1	197953.5	-67.14955	3.321851E-010	0.0079998	5
	52	18	6.317385	97814.9	-213220.5	1	234586.3	-65.35671	8.264183E-011	0.0079916	5
	53	19	5.008013	123543.2	-248860.6	1	277839	-63.59856	-2.729879E-010	0.0079959	5
	54	20	3.945707	155598.8	-287843.4	1	327207.6	-61.60578	1.35928E-010	0.0079913	5
	55	22	3.158693	190783.1	-328300.2	1	379709.3	-59.8381	-1.659042E-010	0.0080039	5
	56	23	2.504006	231497.9	-373587.1	1	439498.1	-58.21505	-2.326572E-010	0.0079938	5
	57	25	1.998082	275872.3	-420352.4	1	502793.9	-56.72358	8.816067E-011	0.0080378	5
	58	26	1.584686	323658.4	-474865.9	1	574675.9	-55.7225	5.330355E-011	0.0080213	5
	59	28	1.266892	374190.3	-532584	1	650894.8	-54.90836	-2.48823E-011	0.0079753	5
	60	31	0.999041	433005.1	-603985.9	1	743163.8	-54.36279	-8.507581E-011	0.0079552	5
