EXPLAIN
TAG	EISPOT
TITLE	LABEL	Potentiostatic EIS	Test &Identifier
DATE	LABEL	11/12/2019	Date
TIME	LABEL	21:38:41	Time
NOTES	NOTES	3	&Notes...
	
	
	
PSTAT	PSTAT	REF600-11020	Potentiostat
VDC	POTEN	0.00000E+000	T	DC &Voltage (V)
FREQINIT	QUANT	1.00000E+006	Initial Fre&q. (Hz)
FREQFINAL	QUANT	1.00000E+000	Final Fre&q. (Hz)
PTSPERDEC	QUANT	1.00000E+001	Points/&decade
VAC	QUANT	2.50000E+001	AC &Voltage (mV rms)
AREA	QUANT	1.00000E-002	&Area (cm^2)
CONDIT	TWOPARAM	T	5.00000E+000	0.00000E+000	Conditionin&g	Time(s)	E(V)
DELAY	TWOPARAM	T	5.00000E+000	0.00000E+000	Init. De&lay	Time(s)	Stab.(mV/s)
SPEED	SELECTOR	1	&Optimize for:
ZGUESS	QUANT	1.00000E+005	E&stimated Z (ohms)
OCVCURVE	TABLE	19
	Pt	T	Vf	Vm	Ach	Over
	#	s	V vs. Ref.	V	V	bits
	0	0.258333	5.19357E-003	5.19357E-003	5.92965E-004	...........
	1	0.516667	5.19316E-003	5.17179E-003	5.88132E-004	...........
	2	0.775	5.19088E-003	5.16577E-003	5.94565E-004	...........
	3	1.03333	5.18578E-003	5.18115E-003	5.83332E-004	...........
	4	1.29167	5.18011E-003	5.19068E-003	5.89732E-004	...........
	5	1.55	5.17832E-003	5.21274E-003	5.82365E-004	...........
	6	1.80833	5.18334E-003	5.23688E-003	5.85599E-004	...........
	7	2.06667	5.19578E-003	5.27760E-003	5.84332E-004	...........
	8	2.325	5.21554E-003	5.31206E-003	5.91932E-004	...........
	9	2.58333	5.24221E-003	5.35054E-003	5.80532E-004	...........
	10	2.84167	5.27435E-003	5.38707E-003	5.82465E-004	...........
	11	3.1	5.30984E-003	5.42581E-003	5.82899E-004	...........
	12	3.35833	5.34677E-003	5.45570E-003	5.88732E-004	...........
	13	3.61667	5.38372E-003	5.49452E-003	5.76199E-004	...........
	14	3.875	5.41991E-003	5.52699E-003	5.81665E-004	...........
	15	4.13333	5.45565E-003	5.57991E-003	5.77366E-004	...........
	16	4.39167	5.49259E-003	5.62783E-003	5.83399E-004	...........
	17	4.65	5.53266E-003	5.67161E-003	5.80699E-004	...........
	18	4.90833	5.57604E-003	5.70687E-003	5.80165E-004	...........
EOC	QUANT	0.005576	Open Circuit (V)
PSTATMODEL	IQUANT	4	Pstat Model
PSTATSECTION	LABEL	REF600-11020	Pstat Section
PSTATSERIALNO	LABEL	11020	Pstat Serial Number
CTRLMODE	IQUANT	1	Control Mode
IESTAB	IQUANT	0	I/E Stability
CASPEED	IQUANT	1	Control Amp Speed
CONVENTION	IQUANT	1	Current Convention
ICHRANGE	IQUANT	2	Ich Range
ICHRANGEMODE	TOGGLE	F	Ich Auto Range
ICHOFFSETENABLE	TOGGLE	T	Ich Offset Enable
ICHOFFSET	QUANT	0	Ich Offset (V)
ICHFILTER	IQUANT	3	Ich Filter
VCHRANGE	IQUANT	2	Vch Range
VCHRANGEMODE	TOGGLE	F	Vch Auto Range
VCHOFFSETENABLE	TOGGLE	T	Vch Offset Enable
VCHOFFSET	QUANT	0	Vch Offset (V)
VCHFILTER	IQUANT	3	Vch Filter
ACHRANGE	IQUANT	2	Ach Range
ACHOFFSETENABLE	TOGGLE	F	Ach Offset Enable
ACHOFFSET	QUANT	0	Ach Offset (V)
ACHFILTER	IQUANT	3	Ach Filter
IERANGELOWERLIMIT	IQUANT	1	I/E Range Lower Limit
IERANGEMODE	TOGGLE	F	I/E AutoRange
IERANGE	IQUANT	5	I/E Range
POSFEEDENABLE	TOGGLE	F	Positive Feedback IR Comp
POSFEEDRESISTANCE	QUANT	0	Positive Feedback Resistance (ohm)
ACHSELECT	IQUANT	0	Ach Select
CABLEID	IQUANT	14	Cable ID
DCCALDATE	LABEL	8/19/2019	DC Calibration Date
ACCALDATE	LABEL	8/19/2019	AC Calibration Date
THERMOSELECT	IQUANT	1	Thermo Select
FRAMEWORKVERSION	QUANT	6.33	Framework Version
INSTRUMENTVERSION	LABEL	3.50	Instrument Version
ZCURVE	TABLE
	Pt	Time	Freq	Zreal	Zimag	Zsig	Zmod	Zphz	Idc	Vdc	IERange
	#	s	Hz	ohm	ohm	V	ohm	°	A	V	#
	0	1	1000078	2091.538	-1384.844	1	2508.45	-33.50925	1.299363E-006	0.0073582	8
	1	3	794390.6	2376.382	-1307.574	1	2712.369	-28.82123	-1.993548E-006	0.0078238	8
	2	4	630984.4	2609.634	-1202.591	1	2873.398	-24.74155	-1.878457E-006	0.0073975	8
	3	6	501234.4	2801.555	-1081.67	1	3003.118	-21.11139	7.095904E-006	0.0063848	8
	4	7	398109.4	2953.566	-960.054	1	3105.681	-18.00671	4.887294E-006	0.0063949	8
	5	8	316265.6	3080.895	-845.1921	1	3194.725	-15.34073	-3.221062E-007	0.0067589	8
	6	10	251203.1	3175.978	-737.0369	1	3260.377	-13.06515	-5.884285E-007	0.0067759	8
	7	11	199546.9	3238.951	-643.0257	1	3302.164	-11.22887	1.734316E-006	0.0066304	8
	8	12	158578.1	3316.533	-592.2498	1	3368.998	-10.12487	5.103575E-006	0.0064154	8
	9	14	125953.1	3366.995	-471.9977	1	3399.917	-7.979929	-2.031342E-006	0.007683	7
	10	15	100078.1	3409.5	-432.0015	1	3436.76	-7.221195	-2.696188E-007	0.0062653	7
	11	17	79453.13	3447.363	-410.2149	1	3471.683	-6.785936	7.269327E-007	0.0067912	7
	12	18	63140.62	3482.655	-398.5197	1	3505.382	-6.527954	9.580235E-007	0.0060106	7
	13	19	50203.12	3515.076	-392.1318	1	3536.881	-6.365434	-1.070917E-006	0.0082715	7
	14	21	39890.62	3550.974	-398.0916	1	3573.219	-6.39659	3.432444E-007	0.0074494	7
	15	22	31640.63	3585.744	-413.0912	1	3609.461	-6.571717	-1.059395E-006	0.0079558	7
	16	24	25171.88	3626.247	-437.552	1	3652.549	-6.88019	4.210894E-007	0.0055514	7
	17	25	20015.62	3665.553	-473.6759	1	3696.031	-7.363163	3.480575E-007	0.0074526	7
	18	26	15890.62	3710.85	-518.2795	1	3746.868	-7.950841	9.614693E-007	0.0060088	7
	19	28	12609.37	3757.989	-575.9114	1	3801.862	-8.712786	7.309988E-007	0.0068009	7
	20	29	10078.13	3804.445	-642.2006	1	3858.267	-9.58136	3.473106E-007	0.007454	7
	21	30	8015.625	3859.456	-731.7528	1	3928.214	-10.73585	-2.697719E-007	0.0062544	7
	22	32	6328.125	3921.412	-832.8353	1	4008.876	-11.9904	-9.173086E-007	0.0074542	7
	23	33	5015.625	3988.305	-962.164	1	4102.723	-13.56323	6.789198E-007	0.0054557	7
	24	35	3984.375	4055.513	-1115.506	1	4206.131	-15.37941	-9.172774E-007	0.0074559	7
	25	36	3170.956	4132.728	-1304.358	1	4333.681	-17.51656	8.543297E-007	0.0055311	7
	26	37	2527.573	4213.611	-1533.292	1	4483.916	-19.99595	-2.690156E-007	0.0062577	7
	27	39	1976.103	4312.844	-1836.446	1	4687.553	-23.06472	-9.166413E-007	0.0074559	7
	28	40	1577.524	4414.561	-2185.984	1	4926.142	-26.3435	5.41337E-007	0.0071705	7
	29	41	1265.625	4525.535	-2594.136	1	5216.321	-29.82228	4.23135E-007	0.0055469	7
	30	43	998.264	4660.288	-3137.242	1	5617.879	-33.9479	6.804826E-007	0.0054543	7
	31	44	796.875	4808.908	-3766.085	1	6108.108	-38.06619	-5.376538E-007	0.0083916	7
	32	46	627.7902	4986.783	-4598.023	1	6783.054	-42.67736	9.548356E-008	0.0057994	7
	33	47	505.5147	5176.311	-5530.433	1	7574.951	-46.89435	9.46557E-007	0.0057171	7
	34	48	397.9953	5432.272	-6782.282	1	8689.588	-51.307	4.38655E-009	0.0070202	7
	35	50	315.5048	5733.008	-8300.213	1	10087.66	-55.36692	4.497879E-009	0.0070246	7
	36	51	252.4038	6096.366	-10093.86	1	11792.02	-58.86937	5.694997E-010	0.0069568	6
	37	53	198.6229	6586.681	-12471.82	1	14104.28	-62.16034	7.754292E-010	0.0069632	6
	38	54	158.3615	7184.927	-15237	1	16846.05	-64.75403	5.955106E-010	0.0069565	6
	39	55	125.558	7990.063	-18715.76	1	20349.96	-66.88158	6.453367E-010	0.0069543	6
	40	57	100.4464	8993.735	-22797.7	1	24507.6	-68.47067	-2.606456E-010	0.0069618	6
	41	58	79.00281	10430.49	-28095.42	1	29969.12	-69.63244	-5.175592E-011	0.0069572	6
	42	60	63.3446	12247.36	-34314.56	1	36434.69	-70.35779	1.985423E-010	0.0069623	6
	43	61	49.86702	14624.59	-41903.82	1	44382.53	-70.76083	1.27829E-010	0.0069511	6
	44	63	39.72458	18086.4	-50770.86	1	53896.18	-70.39228	1.194307E-010	0.0069606	6
	45	64	31.6723	22333.43	-61094.23	1	65048.35	-69.91975	5.043845E-010	0.0069609	6
	46	65	24.93351	28454.17	-74120.23	1	79394.26	-68.9986	-3.075943E-011	0.006959	6
	47	67	19.86229	35986.15	-88481.73	1	95519.7	-67.86807	1.651548E-010	0.0069643	6
	48	68	15.83615	45785.64	-103723.4	1	113379.3	-66.18235	1.535002E-009	0.0069654	5
	49	70	12.40079	58415.72	-123887.2	1	136968.7	-64.75502	3.246649E-010	0.0069583	5
	50	71	9.93114	74060.73	-143361.7	1	161361.6	-62.6791	-3.55374E-010	0.0069581	5
	51	73	7.944915	92004.23	-163893.1	1	187951.4	-60.69157	-6.138039E-010	0.0069607	5
	52	74	6.317385	113277.5	-186547	1	218246.6	-58.73249	-2.087806E-010	0.0069549	5
	53	76	5.008013	137629	-211164.8	1	252056.1	-56.90526	-9.705011E-011	0.0069639	5
	54	79	3.945707	164876	-237636.4	1	289232	-55.24645	3.218726E-010	0.0069664	5
	55	82	3.158693	192201.5	-265109.2	1	327451.2	-54.05826	-2.754233E-010	0.0069463	5
	56	85	2.504006	222193	-297377.8	1	371218.6	-53.23387	3.560141E-010	0.0069646	5
	57	88	1.998082	253015.4	-332825.7	1	418078.6	-52.75776	2.600014E-010	0.0069232	5
	58	91	1.584686	286480.1	-377511.4	1	473904.8	-52.80642	-1.433319E-010	0.0069458	5
	59	95	1.266892	322872.7	-428068.8	1	536180.6	-52.97443	2.076105E-011	0.0069146	5
	60	99	0.999041	365389.8	-492515.6	1	613254.7	-53.42884	7.07699E-011	0.0070004	5
