EXPLAIN
TAG	EISPOT
TITLE	LABEL	Potentiostatic IDE	Test &Identifier
DATE	LABEL	9/16/2019	Date
TIME	LABEL	8:06:04	Time
NOTES	NOTES	1	&Notes...
	
PSTAT	PSTAT	REF600-11020	Potentiostat
VDC	POTEN	0.00000E+000	T	DC &Voltage (V)
FREQINIT	QUANT	1.00000E+006	Initial Fre&q. (Hz)
FREQFINAL	QUANT	1.00000E+000	Final Fre&q. (Hz)
PTSPERDEC	QUANT	1.00000E+001	Points/&decade
VAC	QUANT	2.50000E+001	AC &Voltage (mV rms)
AREA	QUANT	1.00000E-002	&Area (cm^2)
CONDIT	TWOPARAM	T	5.00000E+000	0.00000E+000	Conditionin&g	Time(s)	E(V)
DELAY	TWOPARAM	T	5.00000E+000	0.00000E+000	Init. De&lay	Time(s)	Stab.(mV/s)
SPEED	SELECTOR	1	&Optimize for:
ZGUESS	QUANT	1.00000E+007	E&stimated Z (ohms)
OCVCURVE	TABLE	19
	Pt	T	Vf	Vm	Ach	Over
	#	s	V vs. Ref.	V	V	bits
	0	0.258333	6.46720E-003	6.46720E-003	5.63532E-004	...........
	1	0.516667	6.47027E-003	6.62831E-003	5.59932E-004	...........
	2	0.775	6.48938E-003	6.79180E-003	5.57766E-004	...........
	3	1.03333	6.54410E-003	6.94836E-003	5.54266E-004	...........
	4	1.29167	6.64342E-003	7.10448E-003	5.55599E-004	...........
	5	1.55	6.77788E-003	7.26182E-003	5.57666E-004	...........
	6	1.80833	6.93054E-003	7.41618E-003	5.55333E-004	...........
	7	2.06667	7.08876E-003	7.56633E-003	5.58499E-004	...........
	8	2.325	7.24634E-003	7.71446E-003	5.58799E-004	...........
	9	2.58333	7.40102E-003	7.85671E-003	5.58066E-004	...........
	10	2.84167	7.55215E-003	7.99688E-003	5.56133E-004	...........
	11	3.1	7.69951E-003	8.13053E-003	5.56399E-004	...........
	12	3.35833	7.84291E-003	8.26100E-003	5.56966E-004	...........
	13	3.61667	7.98221E-003	8.39103E-003	5.59732E-004	...........
	14	3.875	8.11759E-003	8.51549E-003	5.54399E-004	...........
	15	4.13333	8.24949E-003	8.63997E-003	5.54066E-004	...........
	16	4.39167	8.37845E-003	8.76428E-003	5.52432E-004	...........
	17	4.65	8.50504E-003	8.88463E-003	5.56999E-004	...........
	18	4.90833	8.62961E-003	8.99666E-003	5.56133E-004	...........
EOC	QUANT	0.0086296	Open Circuit (V)
PSTATMODEL	IQUANT	4	Pstat Model
PSTATSECTION	LABEL	REF600-11020	Pstat Section
PSTATSERIALNO	LABEL	11020	Pstat Serial Number
CTRLMODE	IQUANT	1	Control Mode
IESTAB	IQUANT	0	I/E Stability
CASPEED	IQUANT	1	Control Amp Speed
CONVENTION	IQUANT	1	Current Convention
ICHRANGE	IQUANT	2	Ich Range
ICHRANGEMODE	TOGGLE	F	Ich Auto Range
ICHOFFSETENABLE	TOGGLE	T	Ich Offset Enable
ICHOFFSET	QUANT	0	Ich Offset (V)
ICHFILTER	IQUANT	3	Ich Filter
VCHRANGE	IQUANT	2	Vch Range
VCHRANGEMODE	TOGGLE	F	Vch Auto Range
VCHOFFSETENABLE	TOGGLE	T	Vch Offset Enable
VCHOFFSET	QUANT	0	Vch Offset (V)
VCHFILTER	IQUANT	3	Vch Filter
ACHRANGE	IQUANT	2	Ach Range
ACHOFFSETENABLE	TOGGLE	F	Ach Offset Enable
ACHOFFSET	QUANT	0	Ach Offset (V)
ACHFILTER	IQUANT	3	Ach Filter
IERANGELOWERLIMIT	IQUANT	1	I/E Range Lower Limit
IERANGEMODE	TOGGLE	F	I/E AutoRange
IERANGE	IQUANT	3	I/E Range
POSFEEDENABLE	TOGGLE	F	Positive Feedback IR Comp
POSFEEDRESISTANCE	QUANT	0	Positive Feedback Resistance (ohm)
ACHSELECT	IQUANT	0	Ach Select
CABLEID	IQUANT	14	Cable ID
DCCALDATE	LABEL	8/19/2019	DC Calibration Date
ACCALDATE	LABEL	8/19/2019	AC Calibration Date
THERMOSELECT	IQUANT	1	Thermo Select
FRAMEWORKVERSION	QUANT	6.33	Framework Version
INSTRUMENTVERSION	LABEL	3.50	Instrument Version
ZCURVE	TABLE
	Pt	Time	Freq	Zreal	Zimag	Zsig	Zmod	Zphz	Idc	Vdc	IERange
	#	s	Hz	ohm	ohm	V	ohm	°	A	V	#
	0	2	1000078	2375.177	-1492.765	1	2805.319	-32.14878	3.362247E-006	0.0101901	8
	1	4	794390.6	2641.657	-1375.478	1	2978.304	-27.50543	-3.62065E-006	0.0111739	8
	2	5	630984.4	2885.614	-1236.752	1	3139.478	-23.19959	5.408025E-006	0.0097279	8
	3	6	501234.4	3078.493	-1098.44	1	3268.592	-19.63696	-5.37583E-007	0.0103035	8
	4	8	398109.4	3236.039	-952.064	1	3373.185	-16.39423	-2.365945E-006	0.0107319	8
	5	9	316265.6	3337.125	-813.7817	1	3434.915	-13.70451	7.614531E-007	0.0101857	8
	6	10	251203.1	3417.689	-703.962	1	3489.436	-11.63878	5.51964E-006	0.0093451	8
	7	12	199546.9	3477.993	-608.7009	1	3530.857	-9.92708	-3.739559E-006	0.0111371	8
	8	13	158578.1	3544.676	-534.1519	1	3584.696	-8.569501	-4.491498E-006	0.0114085	8
	9	15	125953.1	3605.242	-422.9814	1	3629.97	-6.691577	1.287533E-006	0.0082335	7
	10	16	100078.1	3622.171	-384.169	1	3642.487	-6.054182	-4.400367E-008	0.010401	7
	11	17	79453.13	3652.184	-362.9986	1	3670.179	-5.676111	-1.074382E-009	0.0102765	7
	12	19	63140.62	3682.132	-347.7276	1	3698.515	-5.394813	1.34305E-007	0.0101409	7
	13	20	50203.12	3712.194	-342.3698	1	3727.949	-5.269392	1.333346E-007	0.0101381	7
	14	21	39890.62	3745.89	-345.6317	1	3761.802	-5.271729	8.524203E-008	0.0101533	7
	15	23	31640.63	3772.87	-357.4016	1	3789.76	-5.411444	-4.275348E-008	0.0103817	7
	16	24	25171.88	3805.884	-376.188	1	3824.43	-5.644996	6.834443E-008	0.0103086	7
	17	25	20015.62	3840.865	-402.7248	1	3861.92	-5.985743	-1.981912E-008	0.0103057	7
	18	27	15890.62	3879.334	-439.5512	1	3904.157	-6.464376	-4.459124E-008	0.0104613	7
	19	28	12609.37	3920.029	-485.7408	1	3950.009	-7.063662	-1.867675E-008	0.0103161	7
	20	29	10078.13	3960.307	-540.2195	1	3996.982	-7.76769	-5.273142E-008	0.0104323	7
	21	31	8015.625	4006.612	-609.3373	1	4052.682	-8.647448	1.338721E-007	0.0101302	7
	22	32	6328.125	4056.629	-698.6768	1	4116.356	-9.77223	-4.256597E-008	0.0104655	7
	23	33	5015.625	4110.832	-805.724	1	4189.049	-11.08941	8.29013E-010	0.0102681	7
	24	35	3984.375	4167.47	-936.2449	1	4271.341	-12.66159	-2.203663E-008	0.0104692	7
	25	36	3170.956	4229.542	-1092.454	1	4368.35	-14.48248	-4.113767E-008	0.0103841	7
	26	37	2527.573	4298.948	-1286.926	1	4487.441	-16.66551	-2.409783E-008	0.0104678	7
	27	39	1976.103	4381.695	-1544.672	1	4645.995	-19.419	-1.3998E-008	0.0103854	7
	28	40	1577.524	4466.656	-1836.096	1	4829.313	-22.34596	8.052579E-008	0.0101871	7
	29	41	1265.625	4556.869	-2183.106	1	5052.822	-25.59817	8.714547E-008	0.0101531	7
	30	43	998.264	4684.437	-2639.669	1	5376.969	-29.40116	-4.883393E-009	0.0103535	7
	31	44	796.875	4816.546	-3172.963	1	5767.739	-33.37542	-4.393178E-008	0.0104575	7
	32	45	627.7902	4979.531	-3864.278	1	6303.044	-37.81263	-4.323413E-008	0.0104623	7
	33	46	505.5147	5152.274	-4629.909	1	6926.903	-41.94333	8.574634E-008	0.0101417	7
	34	48	397.9953	5382.29	-5668.234	1	7816.516	-46.48226	5.167762E-009	0.0103403	7
	35	49	315.5048	5651.326	-6915.156	1	8930.67	-50.74301	6.234234E-009	0.0103398	7
	36	51	252.4038	5967.54	-8383.807	1	10290.76	-54.55698	-2.419524E-010	0.0102798	6
	37	52	198.6229	6386.671	-10327.56	1	12142.82	-58.26693	5.95278E-010	0.01028	6
	38	53	158.3615	6894.168	-12593.85	1	14357.39	-61.30267	-3.536231E-011	0.0102776	6
	39	55	125.558	7556.714	-15438.96	1	17189.11	-63.92022	3.222053E-010	0.0102768	6
	40	56	100.4464	8379.77	-18780.77	1	20565.46	-65.95411	1.354972E-009	0.0102713	6
	41	57	79.00281	9579.97	-23105.1	1	25012.42	-67.47984	5.874129E-010	0.010274	6
	42	59	63.3446	11236.88	-28097.02	1	30260.71	-68.20198	2.49797E-010	0.0102733	6
	43	60	49.86702	12946.34	-34422.3	1	36776.39	-69.38856	1.079032E-010	0.0102683	6
	44	61	39.72458	15755.92	-41603.07	1	44486.68	-69.25732	5.5425E-010	0.0102773	6
	45	63	31.6723	19087.79	-50064.96	1	53580.26	-69.13013	8.131286E-010	0.0102721	6
	46	64	24.93351	23862.34	-60727.56	1	65247.59	-68.54811	-5.18042E-011	0.0102773	6
	47	65	19.86229	29571.05	-72473.8	1	78274.51	-67.80336	-5.838064E-010	0.0102772	6
	48	67	15.83615	37088.1	-86231.15	1	93868.73	-66.72742	8.986486E-010	0.0102738	6
	49	68	12.40079	46849.93	-102482.2	1	112683.3	-65.43241	5.499111E-010	0.0102855	5
	50	70	9.93114	58237.95	-119758.3	1	133168	-64.06654	2.286072E-010	0.0102787	5
	51	71	7.944915	71944.65	-138909.4	1	156434.8	-62.61923	-3.402621E-010	0.0102845	5
	52	73	6.317385	88898.53	-160011.7	1	183048.4	-60.94454	1.580584E-010	0.0102855	5
	53	75	5.008013	109252.7	-184193.5	1	214157.4	-59.32608	-4.460294E-011	0.0102825	5
	54	77	3.945707	133770.3	-211101.5	1	249916.7	-57.63848	-6.407601E-010	0.0102782	5
	55	80	3.158693	159902.6	-238018.9	1	286743.5	-56.10655	-6.302122E-010	0.0102689	5
	56	83	2.504006	190651.5	-269023.4	1	329729.6	-54.67556	7.118329E-011	0.010285	5
	57	86	1.998082	224417.9	-301015.3	1	375464.5	-53.29412	-1.09292E-010	0.0103105	5
	58	89	1.584686	261270.3	-336871	1	426314.7	-52.20358	-1.996413E-010	0.0102691	5
	59	93	1.266892	302971.9	-377165.4	1	483782.8	-51.22556	-4.636208E-010	0.0103119	5
	60	97	0.999041	347664.9	-420128	1	545324.1	-50.39151	-4.204118E-010	0.0102426	5
