EXPLAIN
TAG	EISPOT
TITLE	LABEL	Potentiostatic EIS	Test &Identifier
DATE	LABEL	10/2/2019	Date
TIME	LABEL	9:03:02	Time
NOTES	NOTES	2	&Notes...
	
	
PSTAT	PSTAT	REF600-11020	Potentiostat
VDC	POTEN	0.00000E+000	T	DC &Voltage (V)
FREQINIT	QUANT	1.00000E+006	Initial Fre&q. (Hz)
FREQFINAL	QUANT	1.00000E+000	Final Fre&q. (Hz)
PTSPERDEC	QUANT	1.00000E+001	Points/&decade
VAC	QUANT	2.50000E+001	AC &Voltage (mV rms)
AREA	QUANT	1.00000E-002	&Area (cm^2)
CONDIT	TWOPARAM	T	5.00000E+000	0.00000E+000	Conditionin&g	Time(s)	E(V)
DELAY	TWOPARAM	T	5.00000E+000	0.00000E+000	Init. De&lay	Time(s)	Stab.(mV/s)
SPEED	SELECTOR	1	&Optimize for:
ZGUESS	QUANT	1.00000E+004	E&stimated Z (ohms)
OCVCURVE	TABLE	19
	Pt	T	Vf	Vm	Ach	Over
	#	s	V vs. Ref.	V	V	bits
	0	0.258333	3.25180E-003	3.25180E-003	4.76900E-004	...........
	1	0.516667	3.24766E-003	3.03523E-003	4.79267E-004	...........
	2	0.775	3.22251E-003	2.84294E-003	4.84934E-004	...........
	3	1.03333	3.15250E-003	2.67583E-003	4.78400E-004	...........
	4	1.29167	3.03031E-003	2.51651E-003	4.79234E-004	...........
	5	1.55	2.87464E-003	2.45445E-003	4.82367E-004	...........
	6	1.80833	2.71055E-003	2.08880E-003	4.86667E-004	...........
	7	2.06667	2.53985E-003	1.76371E-003	4.85334E-004	...........
	8	2.325	2.34002E-003	1.55289E-003	4.78100E-004	...........
	9	2.58333	2.10449E-003	1.52090E-003	4.78100E-004	...........
	10	2.84167	1.87198E-003	1.67077E-003	4.76700E-004	...........
	11	3.1	1.69988E-003	1.53847E-003	4.75367E-004	...........
	12	3.35833	1.60685E-003	1.38221E-003	4.77000E-004	...........
	13	3.61667	1.55705E-003	1.43420E-003	4.77900E-004	...........
	14	3.875	1.50858E-003	1.26269E-003	4.73400E-004	...........
	15	4.13333	1.44404E-003	1.00209E-003	4.72034E-004	...........
	16	4.39167	1.35558E-003	1.11768E-003	4.81767E-004	...........
	17	4.65	1.24757E-003	9.04966E-004	4.78600E-004	...........
	18	4.90833	1.13933E-003	8.70409E-004	4.75434E-004	...........
EOC	QUANT	0.0011393	Open Circuit (V)
PSTATMODEL	IQUANT	4	Pstat Model
PSTATSECTION	LABEL	REF600-11020	Pstat Section
PSTATSERIALNO	LABEL	11020	Pstat Serial Number
CTRLMODE	IQUANT	1	Control Mode
IESTAB	IQUANT	0	I/E Stability
CASPEED	IQUANT	1	Control Amp Speed
CONVENTION	IQUANT	1	Current Convention
ICHRANGE	IQUANT	2	Ich Range
ICHRANGEMODE	TOGGLE	F	Ich Auto Range
ICHOFFSETENABLE	TOGGLE	T	Ich Offset Enable
ICHOFFSET	QUANT	0	Ich Offset (V)
ICHFILTER	IQUANT	3	Ich Filter
VCHRANGE	IQUANT	2	Vch Range
VCHRANGEMODE	TOGGLE	F	Vch Auto Range
VCHOFFSETENABLE	TOGGLE	T	Vch Offset Enable
VCHOFFSET	QUANT	0	Vch Offset (V)
VCHFILTER	IQUANT	3	Vch Filter
ACHRANGE	IQUANT	2	Ach Range
ACHOFFSETENABLE	TOGGLE	F	Ach Offset Enable
ACHOFFSET	QUANT	0	Ach Offset (V)
ACHFILTER	IQUANT	3	Ach Filter
IERANGELOWERLIMIT	IQUANT	1	I/E Range Lower Limit
IERANGEMODE	TOGGLE	F	I/E AutoRange
IERANGE	IQUANT	5	I/E Range
POSFEEDENABLE	TOGGLE	F	Positive Feedback IR Comp
POSFEEDRESISTANCE	QUANT	0	Positive Feedback Resistance (ohm)
ACHSELECT	IQUANT	0	Ach Select
CABLEID	IQUANT	14	Cable ID
DCCALDATE	LABEL	8/19/2019	DC Calibration Date
ACCALDATE	LABEL	8/19/2019	AC Calibration Date
THERMOSELECT	IQUANT	1	Thermo Select
FRAMEWORKVERSION	QUANT	6.33	Framework Version
INSTRUMENTVERSION	LABEL	3.50	Instrument Version
ZCURVE	TABLE
	Pt	Time	Freq	Zreal	Zimag	Zsig	Zmod	Zphz	Idc	Vdc	IERange
	#	s	Hz	ohm	ohm	V	ohm	°	A	V	#
	0	2	1000078	2396.075	-1615.856	1	2890.011	-33.99478	-1.631295E-006	0.0037277	8
	1	3	794390.6	2710.454	-1535.412	1	3115.133	-29.53059	6.0193E-007	0.0030802	8
	2	4	630984.4	3003.276	-1410.298	1	3317.922	-25.15412	-3.41825E-006	0.0037337	8
	3	6	501234.4	3242.512	-1236.379	1	3470.233	-20.872	3.039021E-007	0.0030889	8
	4	7	398109.4	3415.389	-1071.289	1	3579.462	-17.41483	-2.959955E-006	0.0035079	8
	5	8	316265.6	3532.006	-892.0203	1	3642.906	-14.17386	3.047897E-006	0.002289	8
	6	10	251203.1	3635.451	-769.7165	1	3716.042	-11.95442	2.319683E-006	0.0023259	8
	7	11	199546.9	3713.785	-644.5187	1	3769.298	-9.84548	1.635471E-006	0.0023368	8
	8	13	158578.1	3776.323	-557.4115	1	3817.24	-8.396624	1.199258E-006	0.0026087	8
	9	14	125953.1	3813.846	-423.6643	1	3837.305	-6.338762	-5.926003E-007	0.0038206	7
	10	15	100078.1	3835.258	-367.9707	1	3852.87	-5.480422	-4.48741E-008	0.0028975	7
	11	17	79453.13	3859.488	-328.0066	1	3873.401	-4.857728	-3.779499E-008	0.0028187	7
	12	18	63140.62	3882.003	-297.4432	1	3893.381	-4.381503	6.765534E-008	0.0026849	7
	13	19	50203.12	3903.013	-274.8505	1	3912.678	-4.028124	1.291699E-007	0.0026127	7
	14	21	39890.62	3922.04	-259.6661	1	3930.626	-3.787848	8.33005E-009	0.0027411	7
	15	22	31640.63	3939.885	-253.3788	1	3948.024	-3.679695	-5.167105E-009	0.0027544	7
	16	23	25171.88	3956.777	-253.7807	1	3964.907	-3.669825	-3.58666E-008	0.0028142	7
	17	25	20015.62	3972.83	-259.1998	1	3981.277	-3.732865	4.417086E-008	0.0026632	7
	18	26	15890.62	3991.087	-277.63	1	4000.731	-3.979228	-4.088453E-008	0.0028439	7
	19	27	12609.37	4006.674	-304.1564	1	4018.202	-4.341136	-1.848302E-008	0.0029353	7
	20	29	10078.13	4023.406	-341.6234	1	4037.883	-4.853287	4.122046E-008	0.0026615	7
	21	30	8015.625	4038.321	-387.5432	1	4056.874	-5.481684	-4.979595E-009	0.0028359	7
	22	31	6328.125	4057.806	-455.4353	1	4083.285	-6.403896	4.408488E-008	0.0026573	7
	23	33	5015.625	4078.562	-541.1811	1	4114.31	-7.558378	-1.820952E-008	0.0029377	7
	24	34	3984.375	4101.974	-646.0298	1	4152.535	-8.950135	-1.802603E-009	0.0028005	7
	25	35	3170.956	4127.901	-779.0683	1	4200.776	-10.68785	-2.870938E-008	0.0028052	7
	26	37	2527.573	4160.109	-940.9642	1	4265.199	-12.74512	8.083991E-008	0.0026387	7
	27	38	1976.103	4200.46	-1162.141	1	4358.26	-15.46516	-3.773563E-008	0.0028378	7
	28	39	1577.524	4247.695	-1413.333	1	4476.653	-18.4038	3.342563E-008	0.0027593	7
	29	41	1265.625	4302.576	-1715.819	1	4632.083	-21.74156	9.602092E-009	0.0027296	7
	30	42	998.264	4375.664	-2117.102	1	4860.921	-25.81935	-3.833415E-008	0.0028357	7
	31	44	796.875	4463.206	-2585.102	1	5157.805	-30.07955	9.74739E-009	0.0027301	7
	32	45	627.7902	4583.355	-3197.847	1	5588.682	-34.90382	-7.318263E-008	0.0029158	7
	33	46	505.5147	4718.607	-3889.601	1	6115.083	-39.49914	-6.84549E-009	0.002836	7
	34	48	397.9953	4916.406	-4799.075	1	6870.383	-44.30809	5.205781E-009	0.0028138	7
	35	49	315.5048	5166.327	-5896.764	1	7839.819	-48.77745	5.407403E-009	0.0028155	7
	36	50	252.4038	5478.275	-7179.538	1	9030.906	-52.65491	6.299822E-009	0.0028111	7
	37	52	198.6229	5920.574	-8856.1	1	10652.87	-56.23606	1.330319E-009	0.0027489	6
	38	53	158.3615	6469.952	-10780.83	1	12573.25	-59.03057	1.364555E-009	0.0027489	6
	39	54	125.558	7208.087	-13152.09	1	14997.8	-61.27478	1.084809E-009	0.0027495	6
	40	56	100.4464	8129.893	-15883.99	1	17843.66	-62.89529	1.392701E-009	0.0027448	6
	41	57	79.00281	9422.816	-19373.91	1	21543.86	-64.06328	9.392943E-010	0.0027516	6
	42	58	63.3446	10964.27	-23252.57	1	25707.92	-64.75475	1.13555E-009	0.0027527	6
	43	60	49.86702	13107.49	-27889.96	1	30816.49	-64.8278	1.170929E-009	0.0027506	6
	44	61	39.72458	15756.29	-33216.28	1	36763.87	-64.62246	9.209E-010	0.0027474	6
	45	63	31.6723	18882.67	-39186.34	1	43498.56	-64.27203	9.82347E-010	0.0027506	6
	46	64	24.93351	22919.69	-46483.09	1	51826.54	-63.75321	1.230547E-009	0.0027468	6
	47	65	19.86229	27388.81	-54315.43	1	60830.19	-63.24026	1.736629E-009	0.0027597	6
	48	67	15.83615	32476.51	-63418.34	1	71250.33	-62.88303	1.787002E-009	0.00275	6
	49	68	12.40079	39052.23	-74360.08	1	83991.06	-62.29256	2.172677E-009	0.0027466	6
	50	69	9.93114	45209.73	-86233.88	1	97366.3	-62.33338	1.403025E-009	0.0027463	6
	51	71	7.944915	52379.34	-100299.5	1	113152.9	-62.42512	5.623076E-010	0.0027568	5
	52	73	6.317385	60694.52	-117416.3	1	132175.7	-62.66477	2.058143E-010	0.0027677	5
	53	74	5.008013	70204.16	-138467.8	1	155248.1	-63.11467	4.141027E-010	0.0027568	5
	54	77	3.945707	81818.96	-164291.5	1	183537.6	-63.5262	5.621827E-011	0.0027549	5
	55	79	3.158693	94736.43	-193045.8	1	215038.8	-63.86069	3.635582E-010	0.0027473	5
	56	83	2.504006	110699.1	-228764	1	254140.2	-64.17763	2.108471E-010	0.0027569	5
	57	85	1.998082	128948.8	-269440.8	1	298707.5	-64.42519	5.014045E-010	0.002735	5
	58	88	1.584686	152255	-319872.7	1	354260	-64.5462	2.157114E-010	0.0026958	5
	59	92	1.266892	178493.6	-375675.4	1	415923	-64.58633	4.150922E-010	0.002741	5
	60	96	0.999041	212324	-447232.3	1	495074	-64.60393	-4.230094E-011	0.0027357	5
