EXPLAIN
TAG	EISPOT
TITLE	LABEL	Potentiostatic EIS	Test &Identifier
DATE	LABEL	11/11/2019	Date
TIME	LABEL	14:01:16	Time
NOTES	NOTES	3	&Notes...
	
	
	
PSTAT	PSTAT	REF600-11020	Potentiostat
VDC	POTEN	0.00000E+000	T	DC &Voltage (V)
FREQINIT	QUANT	1.00000E+006	Initial Fre&q. (Hz)
FREQFINAL	QUANT	1.00000E+000	Final Fre&q. (Hz)
PTSPERDEC	QUANT	1.00000E+001	Points/&decade
VAC	QUANT	2.50000E+001	AC &Voltage (mV rms)
AREA	QUANT	1.00000E-002	&Area (cm^2)
CONDIT	TWOPARAM	T	5.00000E+000	0.00000E+000	Conditionin&g	Time(s)	E(V)
DELAY	TWOPARAM	T	5.00000E+000	0.00000E+000	Init. De&lay	Time(s)	Stab.(mV/s)
SPEED	SELECTOR	1	&Optimize for:
ZGUESS	QUANT	1.00000E+005	E&stimated Z (ohms)
OCVCURVE	TABLE	19
	Pt	T	Vf	Vm	Ach	Over
	#	s	V vs. Ref.	V	V	bits
	0	0.258333	6.39126E-003	6.39126E-003	5.38533E-004	...........
	1	0.516667	6.39043E-003	6.34783E-003	5.34200E-004	...........
	2	0.775	6.38540E-003	6.31008E-003	5.33933E-004	...........
	3	1.03333	6.37183E-003	6.29701E-003	5.37166E-004	...........
	4	1.29167	6.35004E-003	6.29125E-003	5.37466E-004	...........
	5	1.55	6.32633E-003	6.28821E-003	5.36866E-004	...........
	6	1.80833	6.30779E-003	6.30871E-003	5.35266E-004	...........
	7	2.06667	6.29826E-003	6.31596E-003	5.40366E-004	...........
	8	2.325	6.29819E-003	6.33301E-003	5.38066E-004	...........
	9	2.58333	6.30565E-003	6.35645E-003	5.34500E-004	...........
	10	2.84167	6.31842E-003	6.37861E-003	5.36066E-004	...........
	11	3.1	6.33531E-003	6.40548E-003	5.40599E-004	...........
	12	3.35833	6.35578E-003	6.43886E-003	5.34866E-004	...........
	13	3.61667	6.37959E-003	6.46820E-003	5.40633E-004	...........
	14	3.875	6.40636E-003	6.49466E-003	5.41533E-004	...........
	15	4.13333	6.43498E-003	6.52245E-003	5.41866E-004	...........
	16	4.39167	6.46355E-003	6.53005E-003	5.43599E-004	...........
	17	4.65	6.48997E-003	6.55464E-003	5.36833E-004	...........
	18	4.90833	6.51293E-003	6.56808E-003	5.33666E-004	...........
EOC	QUANT	0.0065129	Open Circuit (V)
PSTATMODEL	IQUANT	4	Pstat Model
PSTATSECTION	LABEL	REF600-11020	Pstat Section
PSTATSERIALNO	LABEL	11020	Pstat Serial Number
CTRLMODE	IQUANT	1	Control Mode
IESTAB	IQUANT	0	I/E Stability
CASPEED	IQUANT	1	Control Amp Speed
CONVENTION	IQUANT	1	Current Convention
ICHRANGE	IQUANT	2	Ich Range
ICHRANGEMODE	TOGGLE	F	Ich Auto Range
ICHOFFSETENABLE	TOGGLE	T	Ich Offset Enable
ICHOFFSET	QUANT	0	Ich Offset (V)
ICHFILTER	IQUANT	3	Ich Filter
VCHRANGE	IQUANT	2	Vch Range
VCHRANGEMODE	TOGGLE	F	Vch Auto Range
VCHOFFSETENABLE	TOGGLE	T	Vch Offset Enable
VCHOFFSET	QUANT	0	Vch Offset (V)
VCHFILTER	IQUANT	3	Vch Filter
ACHRANGE	IQUANT	2	Ach Range
ACHOFFSETENABLE	TOGGLE	F	Ach Offset Enable
ACHOFFSET	QUANT	0	Ach Offset (V)
ACHFILTER	IQUANT	3	Ach Filter
IERANGELOWERLIMIT	IQUANT	1	I/E Range Lower Limit
IERANGEMODE	TOGGLE	F	I/E AutoRange
IERANGE	IQUANT	5	I/E Range
POSFEEDENABLE	TOGGLE	F	Positive Feedback IR Comp
POSFEEDRESISTANCE	QUANT	0	Positive Feedback Resistance (ohm)
ACHSELECT	IQUANT	0	Ach Select
CABLEID	IQUANT	14	Cable ID
DCCALDATE	LABEL	8/19/2019	DC Calibration Date
ACCALDATE	LABEL	8/19/2019	AC Calibration Date
THERMOSELECT	IQUANT	1	Thermo Select
FRAMEWORKVERSION	QUANT	6.33	Framework Version
INSTRUMENTVERSION	LABEL	3.50	Instrument Version
ZCURVE	TABLE
	Pt	Time	Freq	Zreal	Zimag	Zsig	Zmod	Zphz	Idc	Vdc	IERange
	#	s	Hz	ohm	ohm	V	ohm	°	A	V	#
	0	2	1000078	2409.664	-1853.152	1	3039.844	-37.56208	8.275122E-006	0.0078384	8
	1	3	794390.6	2783.323	-1831.305	1	3331.751	-33.34318	-5.553255E-006	0.0083437	8
	2	4	630984.4	3143.771	-1755.947	1	3600.923	-29.18546	8.192172E-006	0.0075188	8
	3	6	501234.4	3460.44	-1641.618	1	3830.085	-25.37946	5.269809E-006	0.0074831	8
	4	7	398109.4	3715.831	-1474.032	1	3997.521	-21.63772	-6.748551E-007	0.0078718	8
	5	9	316265.6	3953.141	-1305.006	1	4162.976	-18.26903	-6.595387E-007	0.0084556	8
	6	10	251203.1	4118.76	-1154.809	1	4277.589	-15.66232	-1.655205E-007	0.0078458	8
	7	11	199546.9	4265.832	-1008.63	1	4383.453	-13.30292	-2.052446E-006	0.0084865	8
	8	13	158578.1	4383.246	-854.5484	1	4465.769	-11.03189	-1.243646E-006	0.0078949	8
	9	14	125953.1	4480.84	-705.5064	1	4536.041	-8.947741	-1.503643E-006	0.0110102	7
	10	15	100078.1	4537.718	-626.4464	1	4580.755	-7.860181	5.819931E-008	0.0088929	7
	11	17	79453.13	4590.7	-566.6083	1	4625.535	-7.03616	-7.829747E-007	0.009501	7
	12	18	63140.62	4637.564	-525.5831	1	4667.251	-6.46584	-9.555654E-007	0.0094489	7
	13	19	50203.12	4679.15	-496.7122	1	4705.44	-6.059505	-1.060186E-006	0.008972	7
	14	21	39890.62	4722.686	-483.8501	1	4747.407	-5.849675	3.340525E-007	0.0085045	7
	15	22	31640.63	4756.569	-482.8063	1	4781.009	-5.795847	-9.108999E-007	0.0084782	7
	16	23	25171.88	4795.886	-492.4115	1	4821.099	-5.862229	-1.058953E-006	0.008977	7
	17	25	20015.62	4832.941	-515.6068	1	4860.367	-6.089619	-9.561061E-007	0.0094479	7
	18	26	15890.62	4871.674	-553.2834	1	4902.992	-6.479405	-1.056873E-006	0.0089711	7
	19	27	12609.37	4912.22	-609.549	1	4949.895	-7.073577	-1.0611E-006	0.0092797	7
	20	29	10078.13	4946.964	-681.7339	1	4993.717	-7.846426	-9.050241E-007	0.0084728	7
	21	30	8015.625	4997.083	-777.1621	1	5057.155	-8.840003	7.244698E-007	0.0078366	7
	22	31	6328.125	5046.039	-896.8933	1	5125.126	-10.07861	-2.635273E-007	0.0072893	7
	23	33	5015.625	5101.648	-1049.955	1	5208.571	-11.62949	5.270929E-007	0.0082139	7
	24	34	3984.375	5159.917	-1237.376	1	5306.208	-13.4852	-2.620631E-007	0.0072868	7
	25	35	3170.956	5222.984	-1475.207	1	5427.32	-15.77208	4.265667E-007	0.0065816	7
	26	37	2527.573	5293.011	-1758.804	1	5577.576	-18.38103	-1.053699E-006	0.008958	7
	27	38	1976.103	5392.346	-2148.886	1	5804.749	-21.72762	8.513746E-007	0.0065713	7
	28	40	1577.524	5487.253	-2577.814	1	6062.596	-25.16331	6.786089E-007	0.0064915	7
	29	41	1265.625	5601.062	-3102.727	1	6403.032	-28.98441	-7.763909E-007	0.0094824	7
	30	42	998.264	5747.214	-3802.763	1	6891.406	-33.49144	8.540254E-007	0.0065701	7
	31	44	796.875	5917.713	-4604.941	1	7498.321	-37.88871	1.002561E-007	0.0068366	7
	32	45	627.7902	6132.197	-5653.746	1	8340.784	-42.67535	-2.67626E-007	0.0072931	7
	33	47	505.5147	6362.415	-6841.437	1	9342.675	-47.07772	8.509518E-007	0.0065639	7
	34	48	397.9953	6700.111	-8427.021	1	10765.97	-51.51268	6.237637E-009	0.0080455	7
	35	49	315.5048	7111.3	-10338.09	1	12547.78	-55.47694	1.052577E-009	0.0079841	6
	36	51	252.4038	7609.229	-12590.33	1	14711.11	-58.85246	2.749776E-010	0.0079858	6
	37	52	198.6229	8310.693	-15558.22	1	17638.76	-61.89033	6.308668E-010	0.0079837	6
	38	53	158.3615	9191.896	-18993.82	1	21101.09	-64.17574	1.816074E-010	0.0079865	6
	39	55	125.558	10387.53	-23286.52	1	25498.29	-65.95956	9.842481E-010	0.0079776	6
	40	56	100.4464	11923.51	-28255.78	1	30668.54	-67.12099	-2.515084E-011	0.0079839	6
	41	57	79.00281	14215.42	-34773.01	1	37566.48	-67.76496	9.44992E-010	0.0079802	6
	42	59	63.3446	17320.62	-41752.17	1	45202.29	-67.46919	-4.398965E-011	0.0079832	6
	43	60	49.86702	20933.36	-51015.01	1	55142.88	-67.68983	7.759572E-010	0.0079762	6
	44	62	39.72458	26147.47	-60688.35	1	66081.51	-66.69129	9.472687E-010	0.0079883	6
	45	63	31.6723	32834.16	-72075.21	1	79201.76	-65.50816	5.026001E-010	0.0079824	6
	46	64	24.93351	41753.51	-85145.91	1	94832.38	-63.87777	1.682035E-010	0.0079865	6
	47	66	19.86229	52369.94	-98720.4	1	111751.2	-62.0546	-2.083862E-011	0.007993	5
	48	67	15.83615	63937.93	-113174.8	1	129986.9	-60.53579	-1.240104E-010	0.0079949	5
	49	68	12.40079	79876.29	-129912.1	1	152503.7	-58.41477	-3.511519E-011	0.0079981	5
	50	70	9.93114	95979.3	-145924.7	1	174659.8	-56.6658	-3.077553E-010	0.0080004	5
	51	71	7.944915	112630.8	-163546.8	1	198578.1	-55.44573	2.406969E-010	0.007991	5
	52	73	6.317385	130749.5	-183137.4	1	225021.7	-54.47536	5.36789E-010	0.0079832	5
	53	75	5.008013	150243.1	-206605	1	255457.7	-53.97537	1.210567E-010	0.0079924	5
	54	77	3.945707	171069.5	-234976.5	1	290652.2	-53.94434	-8.127894E-011	0.0079861	5
	55	80	3.158693	191984.4	-266606.3	1	328537.6	-54.24218	2.295314E-011	0.0079779	5
	56	83	2.504006	215474.7	-306697	1	374823.1	-54.90945	9.425997E-011	0.0080019	5
	57	86	1.998082	240631.2	-353509.4	1	427635.7	-55.75717	2.668678E-010	0.0079892	5
	58	89	1.584686	271741	-411363.4	1	493014.2	-56.5518	5.974199E-012	0.0079466	5
	59	93	1.266892	304223.2	-479147.2	1	567568.3	-57.58746	1.841104E-010	0.008007	5
	60	97	0.999041	346812.8	-564819.2	1	662796.9	-58.44906	-2.113943E-010	0.0079616	5
