EXPLAIN
TAG	EISPOT
TITLE	LABEL	Potentiostatic IDE	Test &Identifier
DATE	LABEL	9/10/2019	Date
TIME	LABEL	10:18:01	Time
NOTES	NOTES	1	&Notes...
	
PSTAT	PSTAT	REF600-11020	Potentiostat
VDC	POTEN	0.00000E+000	T	DC &Voltage (V)
FREQINIT	QUANT	1.00000E+006	Initial Fre&q. (Hz)
FREQFINAL	QUANT	1.00000E+000	Final Fre&q. (Hz)
PTSPERDEC	QUANT	1.00000E+001	Points/&decade
VAC	QUANT	2.50000E+001	AC &Voltage (mV rms)
AREA	QUANT	1.00000E-002	&Area (cm^2)
CONDIT	TWOPARAM	T	5.00000E+000	0.00000E+000	Conditionin&g	Time(s)	E(V)
DELAY	TWOPARAM	T	5.00000E+000	0.00000E+000	Init. De&lay	Time(s)	Stab.(mV/s)
SPEED	SELECTOR	1	&Optimize for:
ZGUESS	QUANT	1.00000E+007	E&stimated Z (ohms)
OCVCURVE	TABLE	18
	Pt	T	Vf	Vm	Ach	Over
	#	s	V vs. Ref.	V	V	bits
	0	0.258333	1.39471E-003	1.39471E-003	4.97867E-004	...........
	1	0.516667	1.38746E-003	1.01531E-003	5.06533E-004	...........
	2	0.775	1.34313E-003	6.64803E-004	5.10367E-004	...........
	3	1.03333	1.21851E-003	3.39533E-004	4.94333E-004	...........
	4	1.29167	9.97687E-004	3.24717E-005	4.93933E-004	...........
	5	1.55	7.07765E-004	-2.58110E-004	5.05100E-004	...........
	6	1.80833	3.90968E-004	-5.35181E-004	5.03967E-004	...........
	7	2.06667	7.70500E-005	-7.97910E-004	5.04100E-004	...........
	8	2.325	-2.21616E-004	-1.05312E-003	4.97133E-004	...........
	9	2.58333	-5.03389E-004	-1.29451E-003	5.08200E-004	...........
	10	2.84167	-7.70498E-004	-1.53023E-003	5.07200E-004	...........
	11	3.1	-1.02543E-003	-1.75457E-003	5.01467E-004	...........
	12	3.35833	-1.26997E-003	-1.97430E-003	4.99000E-004	...........
	13	3.61667	-1.50530E-003	-2.18548E-003	5.02200E-004	...........
	14	3.875	-1.73242E-003	-2.39375E-003	5.03900E-004	...........
	15	4.13333	-1.95217E-003	-2.59024E-003	4.93767E-004	...........
	16	4.39167	-2.16513E-003	-2.78646E-003	4.96367E-004	...........
	17	4.65	-2.37161E-003	-2.97360E-003	5.09100E-004	...........
EOC	QUANT	-0.0025719	Open Circuit (V)
PSTATMODEL	IQUANT	4	Pstat Model
PSTATSECTION	LABEL	REF600-11020	Pstat Section
PSTATSERIALNO	LABEL	11020	Pstat Serial Number
CTRLMODE	IQUANT	1	Control Mode
IESTAB	IQUANT	0	I/E Stability
CASPEED	IQUANT	1	Control Amp Speed
CONVENTION	IQUANT	1	Current Convention
ICHRANGE	IQUANT	2	Ich Range
ICHRANGEMODE	TOGGLE	F	Ich Auto Range
ICHOFFSETENABLE	TOGGLE	T	Ich Offset Enable
ICHOFFSET	QUANT	0	Ich Offset (V)
ICHFILTER	IQUANT	3	Ich Filter
VCHRANGE	IQUANT	2	Vch Range
VCHRANGEMODE	TOGGLE	F	Vch Auto Range
VCHOFFSETENABLE	TOGGLE	T	Vch Offset Enable
VCHOFFSET	QUANT	0	Vch Offset (V)
VCHFILTER	IQUANT	3	Vch Filter
ACHRANGE	IQUANT	2	Ach Range
ACHOFFSETENABLE	TOGGLE	F	Ach Offset Enable
ACHOFFSET	QUANT	0	Ach Offset (V)
ACHFILTER	IQUANT	3	Ach Filter
IERANGELOWERLIMIT	IQUANT	1	I/E Range Lower Limit
IERANGEMODE	TOGGLE	F	I/E AutoRange
IERANGE	IQUANT	2	I/E Range
POSFEEDENABLE	TOGGLE	F	Positive Feedback IR Comp
POSFEEDRESISTANCE	QUANT	0	Positive Feedback Resistance (ohm)
ACHSELECT	IQUANT	0	Ach Select
CABLEID	IQUANT	14	Cable ID
DCCALDATE	LABEL	8/19/2019	DC Calibration Date
ACCALDATE	LABEL	8/19/2019	AC Calibration Date
THERMOSELECT	IQUANT	1	Thermo Select
FRAMEWORKVERSION	QUANT	6.33	Framework Version
INSTRUMENTVERSION	LABEL	3.50	Instrument Version
ZCURVE	TABLE
	Pt	Time	Freq	Zreal	Zimag	Zsig	Zmod	Zphz	Idc	Vdc	IERange
	#	s	Hz	ohm	ohm	V	ohm	°	A	V	#
	0	2	1000078	2495.735	-1512.002	1	2918.021	-31.20891	-4.223946E-006	0.0005255	8
	1	3	794390.6	2800.344	-1418.178	1	3138.973	-26.85901	1.980996E-006	-0.0008331	8
	2	5	630984.4	3045.137	-1271.914	1	3300.094	-22.66965	-1.1683E-006	-0.000407	8
	3	6	501234.4	3247.109	-1116.601	1	3433.732	-18.97684	2.462685E-006	-0.0012868	8
	4	7	398109.4	3390.696	-980.384	1	3529.585	-16.12666	-1.491034E-007	-0.0008491	8
	5	9	316265.6	3507.437	-828.7916	1	3604.027	-13.29487	7.483023E-007	-0.0010468	8
	6	10	251203.1	3586.036	-718.4468	1	3657.297	-11.32898	3.419557E-008	-0.0008876	8
	7	11	199546.9	3642.482	-607.4156	1	3692.78	-9.467455	-5.987918E-007	-0.0006438	8
	8	13	158578.1	3702.354	-532.7015	1	3740.481	-8.187632	-1.158818E-007	-0.0008104	8
	9	14	125953.1	3754.208	-435.746	1	3779.412	-6.620621	-5.542566E-007	0.000187	7
	10	15	100078.1	3777.931	-383.8927	1	3797.385	-5.802168	-2.802962E-008	-0.0009083	7
	11	17	79453.13	3806.58	-356.0899	1	3823.199	-5.344232	6.010585E-008	-0.0010557	7
	12	18	63140.62	3833.042	-336.8661	1	3847.816	-5.022523	6.168572E-008	-0.0010336	7
	13	19	50203.12	3860.45	-324.1095	1	3874.032	-4.799093	-2.544176E-008	-0.0009317	7
	14	21	39890.62	3884.574	-321.0731	1	3897.82	-4.724949	-3.568533E-008	-0.0009011	7
	15	22	31640.63	3912.06	-326.304	1	3925.645	-4.767991	-3.548843E-008	-0.0008899	7
	16	23	25171.88	3937.758	-340.1028	1	3952.418	-4.936367	3.565562E-008	-0.0010453	7
	17	24	20015.62	3964.946	-362.8209	1	3981.511	-5.228413	-2.207258E-008	-0.0009283	7
	18	26	15890.62	3992.012	-391.7995	1	4011.193	-5.605391	-4.563826E-008	-0.0008684	7
	19	27	12609.37	4022.229	-437.5407	1	4045.957	-6.208261	6.100596E-008	-0.001042	7
	20	28	10078.13	4051.328	-494.5438	1	4081.401	-6.959638	3.625414E-008	-0.0010426	7
	21	30	8015.625	4084.659	-563.5583	1	4123.353	-7.855476	3.785748E-008	-0.0010451	7
	22	31	6328.125	4121.954	-656.0814	1	4173.841	-9.043766	6.47002E-008	-0.0010581	7
	23	32	5015.625	4163.447	-770.3428	1	4234.113	-10.48262	9.848957E-009	-0.0010017	7
	24	34	3984.375	4207.414	-911.1871	1	4304.95	-12.21967	-1.221025E-008	-0.0009081	7
	25	35	3170.956	4258.509	-1082.43	1	4393.922	-14.26145	-2.851249E-008	-0.0009378	7
	26	36	2527.573	4317.216	-1291.775	1	4506.333	-16.65796	-4.088837E-009	-0.0009059	7
	27	38	1976.103	4393.558	-1571.043	1	4665.997	-19.67597	9.831816E-009	-0.0010022	7
	28	39	1577.524	4476.187	-1886.975	1	4857.667	-22.85827	3.843724E-008	-0.0010522	7
	29	40	1265.625	4572.011	-2259.594	1	5099.907	-26.29965	3.049711E-008	-0.0009746	7
	30	42	998.264	4696.377	-2749.571	1	5442.067	-30.34754	-2.136656E-008	-0.0009412	7
	31	43	796.875	4831.955	-3312.482	1	5858.355	-34.43207	-2.617466E-008	-0.0009339	7
	32	44	627.7902	5004.865	-4045.049	1	6435.146	-38.94596	6.46469E-008	-0.001047	7
	33	46	505.5147	5189.655	-4847.668	1	7101.578	-43.0486	1.258996E-008	-0.0009815	7
	34	47	397.9953	5425.484	-5938.614	1	8043.819	-47.58535	5.376805E-009	-0.0009211	7
	35	48	315.5048	5698.851	-7241.871	1	9215.291	-51.79971	5.527714E-009	-0.0009209	7
	36	50	252.4038	6013.613	-8776.143	1	10638.81	-55.58017	1.471935E-009	-0.0009849	6
	37	51	198.6229	6424.449	-10809.33	1	12574.38	-59.27516	1.415329E-009	-0.0009834	6
	38	52	158.3615	6904.541	-13177.32	1	14876.64	-62.34675	1.359228E-009	-0.0009871	6
	39	54	125.558	7525.797	-16162.32	1	17828.58	-65.0315	1.491977E-009	-0.0009821	6
	40	55	100.4464	8289.521	-19668.41	1	21343.91	-67.14634	1.008497E-009	-0.0009824	6
	41	56	79.00281	9353.868	-24307.38	1	26045.03	-68.95248	1.571646E-009	-0.0009841	6
	42	58	63.3446	10577.07	-29390.58	1	31235.89	-70.20724	9.645752E-010	-0.0009861	6
	43	59	49.86702	12337.03	-36461.37	1	38492	-71.30629	1.368612E-009	-0.0009884	6
	44	61	39.72458	14611.47	-44295.83	1	46643.5	-71.74429	1.149443E-009	-0.0009799	6
	45	62	31.6723	17463.27	-53873.98	1	56633.66	-72.03988	1.174333E-009	-0.0009862	6
	46	63	24.93351	21507.56	-65902.66	1	69323.41	-71.92574	1.135223E-009	-0.0009807	6
	47	65	19.86229	26487.89	-79591.12	1	83882.98	-71.59258	1.17509E-009	-0.0009795	6
	48	66	15.83615	32722.91	-95665.9	1	101107.6	-71.11653	1.467821E-009	-0.0009768	6
	49	67	12.40079	42158.37	-116225.7	1	123635.5	-70.06285	1.748394E-009	-0.0009777	5
	50	69	9.93114	52273.55	-138349.9	1	147896	-69.30164	4.669085E-010	-0.000981	5
	51	70	7.944915	65476.69	-163730.2	1	176337.1	-68.20323	9.531635E-011	-0.0009719	5
	52	72	6.317385	82492.54	-193756.3	1	210586.1	-66.93792	2.132662E-010	-0.0009586	5
	53	74	5.008013	104047	-227923.1	1	250548.8	-65.46328	6.90132E-010	-0.0009692	5
	54	76	3.945707	130630.5	-268177.2	1	298300.7	-64.02905	1.78288E-010	-0.0009814	5
	55	79	3.158693	160898.7	-309839.5	1	349125.9	-62.55729	5.560886E-010	-0.0009757	5
	56	82	2.504006	197925	-357557.6	1	408683	-61.0334	3.603811E-010	-0.0009751	5
	57	85	1.998082	238854.7	-408548.8	1	473248	-59.68766	7.255061E-010	-0.0009729	5
	58	88	1.584686	288306.8	-465141.1	1	547244.9	-58.20827	3.822315E-010	-0.0010151	5
	59	92	1.266892	340883.3	-528172.7	1	628623.8	-57.16175	4.963994E-010	-0.0009546	5
	60	96	0.999041	403837.7	-600659.1	1	723793	-56.0861	1.283175E-010	-0.001024	5
