EXPLAIN
TAG	EISPOT
TITLE	LABEL	Potentiostatic IDE	Test &Identifier
DATE	LABEL	9/16/2019	Date
TIME	LABEL	7:46:01	Time
NOTES	NOTES	1	&Notes...
	
PSTAT	PSTAT	REF600-11020	Potentiostat
VDC	POTEN	0.00000E+000	T	DC &Voltage (V)
FREQINIT	QUANT	1.00000E+006	Initial Fre&q. (Hz)
FREQFINAL	QUANT	1.00000E+000	Final Fre&q. (Hz)
PTSPERDEC	QUANT	1.00000E+001	Points/&decade
VAC	QUANT	2.50000E+001	AC &Voltage (mV rms)
AREA	QUANT	1.00000E-002	&Area (cm^2)
CONDIT	TWOPARAM	T	5.00000E+000	0.00000E+000	Conditionin&g	Time(s)	E(V)
DELAY	TWOPARAM	T	5.00000E+000	0.00000E+000	Init. De&lay	Time(s)	Stab.(mV/s)
SPEED	SELECTOR	1	&Optimize for:
ZGUESS	QUANT	1.00000E+007	E&stimated Z (ohms)
OCVCURVE	TABLE	19
	Pt	T	Vf	Vm	Ach	Over
	#	s	V vs. Ref.	V	V	bits
	0	0.258333	2.68089E-002	2.68089E-002	5.50466E-004	...........
	1	0.516667	2.68362E-002	2.82355E-002	5.51099E-004	...........
	2	0.775	2.70032E-002	2.95697E-002	5.52499E-004	...........
	3	1.03333	2.74738E-002	3.08142E-002	5.51933E-004	...........
	4	1.29167	2.83092E-002	3.19350E-002	5.52733E-004	...........
	5	1.55	2.94070E-002	3.31221E-002	5.44866E-004	...........
	6	1.80833	3.06116E-002	3.42617E-002	5.48199E-004	...........
	7	2.06667	3.18197E-002	3.52416E-002	5.48599E-004	...........
	8	2.325	3.29862E-002	3.62378E-002	5.46599E-004	...........
	9	2.58333	3.40875E-002	3.68699E-002	5.51433E-004	...........
	10	2.84167	3.51063E-002	3.79611E-002	5.51866E-004	...........
	11	3.1	3.60422E-002	3.84751E-002	5.49133E-004	...........
	12	3.35833	3.69096E-002	3.92979E-002	5.51999E-004	...........
	13	3.61667	3.77202E-002	4.00415E-002	5.54366E-004	...........
	14	3.875	3.84883E-002	4.07464E-002	5.47866E-004	...........
	15	4.13333	3.92394E-002	4.17858E-002	5.48733E-004	...........
	16	4.39167	3.99994E-002	4.22488E-002	5.47066E-004	...........
	17	4.65	4.07646E-002	4.27083E-002	5.50433E-004	...........
	18	4.90833	4.14867E-002	4.31741E-002	5.51966E-004	...........
EOC	QUANT	0.0414867	Open Circuit (V)
PSTATMODEL	IQUANT	4	Pstat Model
PSTATSECTION	LABEL	REF600-11020	Pstat Section
PSTATSERIALNO	LABEL	11020	Pstat Serial Number
CTRLMODE	IQUANT	1	Control Mode
IESTAB	IQUANT	0	I/E Stability
CASPEED	IQUANT	1	Control Amp Speed
CONVENTION	IQUANT	1	Current Convention
ICHRANGE	IQUANT	2	Ich Range
ICHRANGEMODE	TOGGLE	F	Ich Auto Range
ICHOFFSETENABLE	TOGGLE	T	Ich Offset Enable
ICHOFFSET	QUANT	0	Ich Offset (V)
ICHFILTER	IQUANT	3	Ich Filter
VCHRANGE	IQUANT	2	Vch Range
VCHRANGEMODE	TOGGLE	F	Vch Auto Range
VCHOFFSETENABLE	TOGGLE	T	Vch Offset Enable
VCHOFFSET	QUANT	0	Vch Offset (V)
VCHFILTER	IQUANT	3	Vch Filter
ACHRANGE	IQUANT	2	Ach Range
ACHOFFSETENABLE	TOGGLE	F	Ach Offset Enable
ACHOFFSET	QUANT	0	Ach Offset (V)
ACHFILTER	IQUANT	3	Ach Filter
IERANGELOWERLIMIT	IQUANT	1	I/E Range Lower Limit
IERANGEMODE	TOGGLE	F	I/E AutoRange
IERANGE	IQUANT	3	I/E Range
POSFEEDENABLE	TOGGLE	F	Positive Feedback IR Comp
POSFEEDRESISTANCE	QUANT	0	Positive Feedback Resistance (ohm)
ACHSELECT	IQUANT	0	Ach Select
CABLEID	IQUANT	14	Cable ID
DCCALDATE	LABEL	8/19/2019	DC Calibration Date
ACCALDATE	LABEL	8/19/2019	AC Calibration Date
THERMOSELECT	IQUANT	1	Thermo Select
FRAMEWORKVERSION	QUANT	6.33	Framework Version
INSTRUMENTVERSION	LABEL	3.50	Instrument Version
ZCURVE	TABLE
	Pt	Time	Freq	Zreal	Zimag	Zsig	Zmod	Zphz	Idc	Vdc	IERange
	#	s	Hz	ohm	ohm	V	ohm	°	A	V	#
	0	2	1000078	2029.07	-796.0145	1	2179.625	-21.42033	1.199919E-006	0.0435158	8
	1	4	794390.6	2163	-714.1486	1	2277.845	-18.27145	6.834266E-007	0.0432222	8
	2	5	630984.4	2250.12	-607.0147	1	2330.56	-15.09729	2.204968E-006	0.042574	8
	3	6	501234.4	2324.539	-543.4169	1	2387.213	-13.15796	-2.621358E-006	0.0436125	8
	4	8	398109.4	2369.568	-465.854	1	2414.927	-11.12243	-1.952671E-006	0.0435407	8
	5	9	316265.6	2415.634	-401.8942	1	2448.837	-9.445905	-3.645682E-006	0.0439129	8
	6	10	251203.1	2453.029	-360.6612	1	2479.401	-8.364094	-9.846353E-007	0.0433367	8
	7	12	199546.9	2490.233	-320.6277	1	2510.79	-7.336701	-2.035146E-006	0.0434837	8
	8	13	158578.1	2512.137	-285.312	1	2528.287	-6.479513	7.467599E-007	0.0429809	8
	9	14	125953.1	2548.047	-247.6644	1	2560.055	-5.551582	-1.137638E-006	0.0457413	7
	10	16	100078.1	2567.422	-235.6576	1	2578.214	-5.244351	-2.885176E-008	0.0432232	7
	11	17	79453.13	2590.428	-240.4193	1	2601.561	-5.302468	-4.457842E-009	0.0430063	7
	12	18	63140.62	2614.69	-249.2056	1	2626.539	-5.444404	2.493991E-008	0.0430403	7
	13	20	50203.12	2641.621	-262.4781	1	2654.629	-5.674429	-1.957077E-008	0.0431198	7
	14	21	39890.62	2671.71	-279.9527	1	2686.337	-5.981858	-5.367691E-008	0.0431656	7
	15	22	31640.63	2703.152	-302.181	1	2719.99	-6.37852	-4.768546E-008	0.0431961	7
	16	23	25171.88	2736.759	-329.1894	1	2756.486	-6.858838	4.757911E-008	0.04291	7
	17	25	20015.62	2774.365	-362.1938	1	2797.907	-7.437911	4.932935E-008	0.0429102	7
	18	26	15890.62	2816.177	-401.851	1	2844.703	-8.12093	1.348551E-007	0.0428561	7
	19	27	12609.37	2861.455	-448.123	1	2896.332	-8.900609	7.837237E-008	0.0429125	7
	20	29	10078.13	2910.175	-500.533	1	2952.906	-9.75906	-1.26033E-009	0.043084	7
	21	30	8015.625	2965	-561.856	1	3017.765	-10.7301	5.018727E-008	0.0429054	7
	22	31	6328.125	3026.981	-635.4984	1	3092.971	-11.85674	-4.552417E-008	0.0430815	7
	23	33	5015.625	3093.185	-720.0191	1	3175.881	-13.10373	-4.09767E-008	0.0430893	7
	24	34	3984.375	3165.122	-817.6024	1	3269.016	-14.48382	-1.6453E-008	0.0430387	7
	25	35	3170.956	3239.889	-931.0216	1	3371.006	-16.03265	-2.3679E-008	0.0432177	7
	26	37	2527.573	3318.997	-1065.013	1	3485.684	-17.79061	-5.340027E-008	0.0431543	7
	27	38	1976.103	3408.588	-1240.782	1	3627.397	-20.00234	-2.715448E-008	0.043207	7
	28	39	1577.524	3495.631	-1436.377	1	3779.235	-22.33807	-3.963588E-008	0.0430868	7
	29	41	1265.625	3585.005	-1669.056	1	3954.492	-24.96508	-4.600238E-008	0.0431936	7
	30	42	998.264	3679.664	-1983.987	1	4180.446	-28.33248	7.875036E-010	0.0430103	7
	31	43	796.875	3777.339	-2355.12	1	4451.391	-31.94299	-3.906239E-008	0.0430855	7
	32	45	627.7902	3893.041	-2845.775	1	4822.261	-36.16645	6.7399E-008	0.0430422	7
	33	46	505.5147	4009.011	-3396.602	1	5254.434	-40.27266	-5.982849E-009	0.0430699	7
	34	47	397.9953	4163.352	-4153.813	1	5881.127	-44.93429	5.093921E-009	0.0430752	7
	35	49	315.5048	4340.79	-5069.149	1	6673.735	-49.42605	4.778085E-009	0.043078	7
	36	50	252.4038	4549.4	-6153.576	1	7652.682	-53.52411	5.293037E-009	0.043074	7
	37	51	198.6229	4829.612	-7592.786	1	8998.642	-57.54042	5.101026E-009	0.0430738	7
	38	53	158.3615	5167.404	-9270.142	1	10613.09	-60.86363	6.280645E-011	0.0430142	6
	39	54	125.558	5606.875	-11381.5	1	12687.62	-63.77374	-9.557953E-011	0.0430128	6
	40	55	100.4464	6139.35	-13869.6	1	15167.65	-66.12353	-7.008525E-010	0.0430096	6
	41	57	79.00281	6874.149	-17135.75	1	18463.14	-68.1414	4.835097E-010	0.0430032	6
	42	58	63.3446	7883.576	-20887.39	1	22325.63	-69.32187	-6.752906E-010	0.043004	6
	43	59	49.86702	8946.82	-25577.52	1	27097.14	-70.72055	-6.449242E-010	0.0430018	6
	44	61	39.72458	10611.47	-31144.54	1	32902.67	-71.18516	-4.934128E-011	0.0430052	6
	45	62	31.6723	12557.27	-37844.58	1	39873.52	-71.64355	-3.430465E-010	0.0430129	6
	46	64	24.93351	15242.49	-46232.24	1	48680.11	-71.75292	1.257198E-010	0.0430027	6
	47	65	19.86229	18511.59	-55825.46	1	58814.63	-71.6546	5.165506E-010	0.0430128	6
	48	66	15.83615	22335.77	-66973.24	1	70599.59	-71.5563	6.208578E-010	0.0430049	6
	49	68	12.40079	28657.46	-81703.83	1	86583.87	-70.67178	-1.535397E-009	0.0430084	6
	50	69	9.93114	34686.36	-97499.3	1	103485.6	-70.41648	-7.064004E-010	0.0430091	6
	51	71	7.944915	42664.32	-115893.1	1	123496.8	-69.78957	7.694431E-011	0.0430081	5
	52	72	6.317385	52917.73	-138084.2	1	147876.7	-69.03177	-2.512815E-010	0.0430007	5
	53	74	5.008013	65418.42	-164519	1	177048.2	-68.31553	-9.496253E-010	0.0430053	5
	54	77	3.945707	81214.7	-196097.3	1	212249.8	-67.50286	-4.65037E-010	0.0430207	5
	55	79	3.158693	99244.4	-230855.2	1	251283.9	-66.73718	-8.183302E-010	0.0430086	5
	56	83	2.504006	121756.3	-272574.1	1	298531.8	-65.93012	-3.689783E-010	0.043003	5
	57	85	1.998082	147632.1	-319170.1	1	351660.1	-65.1771	-8.820884E-010	0.0430312	5
	58	88	1.584686	180541.7	-375463.2	1	416614.8	-64.3194	-6.51093E-010	0.0430587	5
	59	92	1.266892	216828.4	-437445	1	488234.3	-63.63376	-8.877252E-010	0.0430107	5
	60	96	0.999041	264274.3	-513877.4	1	577850.2	-62.78437	-4.957951E-010	0.04304	5
