EXPLAIN
TAG	EISPOT
TITLE	LABEL	Potentiostatic IDE	Test &Identifier
DATE	LABEL	9/10/2019	Date
TIME	LABEL	9:13:15	Time
NOTES	NOTES	1	&Notes...
	
PSTAT	PSTAT	REF600-11020	Potentiostat
VDC	POTEN	0.00000E+000	T	DC &Voltage (V)
FREQINIT	QUANT	1.00000E+006	Initial Fre&q. (Hz)
FREQFINAL	QUANT	1.00000E+000	Final Fre&q. (Hz)
PTSPERDEC	QUANT	1.00000E+001	Points/&decade
VAC	QUANT	2.50000E+001	AC &Voltage (mV rms)
AREA	QUANT	1.00000E-002	&Area (cm^2)
CONDIT	TWOPARAM	T	5.00000E+000	0.00000E+000	Conditionin&g	Time(s)	E(V)
DELAY	TWOPARAM	T	5.00000E+000	0.00000E+000	Init. De&lay	Time(s)	Stab.(mV/s)
SPEED	SELECTOR	1	&Optimize for:
ZGUESS	QUANT	1.00000E+007	E&stimated Z (ohms)
OCVCURVE	TABLE	19
	Pt	T	Vf	Vm	Ach	Over
	#	s	V vs. Ref.	V	V	bits
	0	0.258333	-6.14405E-003	-6.14405E-003	5.76599E-004	...........
	1	0.516667	-6.16174E-003	-7.07006E-003	5.80465E-004	...........
	2	0.775	-6.26997E-003	-7.92698E-003	5.79732E-004	...........
	3	1.03333	-6.57412E-003	-8.71274E-003	5.78932E-004	...........
	4	1.29167	-7.11242E-003	-9.45317E-003	5.79299E-004	...........
	5	1.55	-7.81742E-003	-1.01449E-002	5.81132E-004	...........
	6	1.80833	-8.58469E-003	-1.08063E-002	5.79499E-004	...........
	7	2.06667	-9.34106E-003	-1.14300E-002	5.79399E-004	...........
	8	2.325	-1.00567E-002	-1.20270E-002	5.77999E-004	...........
	9	2.58333	-1.07280E-002	-1.25892E-002	5.81265E-004	...........
	10	2.84167	-1.13602E-002	-1.31338E-002	5.78332E-004	...........
	11	3.1	-1.19592E-002	-1.36534E-002	5.76666E-004	...........
	12	3.35833	-1.25296E-002	-1.41485E-002	5.76099E-004	...........
	13	3.61667	-1.30744E-002	-1.46200E-002	5.73066E-004	...........
	14	3.875	-1.35951E-002	-1.50667E-002	5.76466E-004	...........
	15	4.13333	-1.40922E-002	-1.54978E-002	5.79365E-004	...........
	16	4.39167	-1.45664E-002	-1.59208E-002	5.79965E-004	...........
	17	4.65	-1.50203E-002	-1.63379E-002	5.75365E-004	...........
	18	4.90833	-1.54576E-002	-1.67276E-002	5.75932E-004	...........
EOC	QUANT	-0.0154576	Open Circuit (V)
PSTATMODEL	IQUANT	4	Pstat Model
PSTATSECTION	LABEL	REF600-11020	Pstat Section
PSTATSERIALNO	LABEL	11020	Pstat Serial Number
CTRLMODE	IQUANT	1	Control Mode
IESTAB	IQUANT	0	I/E Stability
CASPEED	IQUANT	1	Control Amp Speed
CONVENTION	IQUANT	1	Current Convention
ICHRANGE	IQUANT	2	Ich Range
ICHRANGEMODE	TOGGLE	F	Ich Auto Range
ICHOFFSETENABLE	TOGGLE	T	Ich Offset Enable
ICHOFFSET	QUANT	0	Ich Offset (V)
ICHFILTER	IQUANT	3	Ich Filter
VCHRANGE	IQUANT	2	Vch Range
VCHRANGEMODE	TOGGLE	F	Vch Auto Range
VCHOFFSETENABLE	TOGGLE	T	Vch Offset Enable
VCHOFFSET	QUANT	0	Vch Offset (V)
VCHFILTER	IQUANT	3	Vch Filter
ACHRANGE	IQUANT	2	Ach Range
ACHOFFSETENABLE	TOGGLE	F	Ach Offset Enable
ACHOFFSET	QUANT	0	Ach Offset (V)
ACHFILTER	IQUANT	3	Ach Filter
IERANGELOWERLIMIT	IQUANT	1	I/E Range Lower Limit
IERANGEMODE	TOGGLE	F	I/E AutoRange
IERANGE	IQUANT	3	I/E Range
POSFEEDENABLE	TOGGLE	F	Positive Feedback IR Comp
POSFEEDRESISTANCE	QUANT	0	Positive Feedback Resistance (ohm)
ACHSELECT	IQUANT	0	Ach Select
CABLEID	IQUANT	14	Cable ID
DCCALDATE	LABEL	8/19/2019	DC Calibration Date
ACCALDATE	LABEL	8/19/2019	AC Calibration Date
THERMOSELECT	IQUANT	1	Thermo Select
FRAMEWORKVERSION	QUANT	6.33	Framework Version
INSTRUMENTVERSION	LABEL	3.50	Instrument Version
ZCURVE	TABLE
	Pt	Time	Freq	Zreal	Zimag	Zsig	Zmod	Zphz	Idc	Vdc	IERange
	#	s	Hz	ohm	ohm	V	ohm	°	A	V	#
	0	2	1000078	2673.917	-2036.834	1	3361.328	-37.29803	6.411939E-008	-0.0130591	8
	1	4	794390.6	3077.489	-2000.444	1	3670.519	-33.02487	-3.882859E-006	-0.0128044	8
	2	5	630984.4	3474.453	-1893.72	1	3957.019	-28.59221	1.086678E-006	-0.0136561	8
	3	7	501234.4	3818.302	-1745.931	1	4198.537	-24.5724	2.752449E-006	-0.0143398	8
	4	8	398109.4	4084.274	-1562.723	1	4373.031	-20.93783	-2.819947E-007	-0.0137589	8
	5	9	316265.6	4310.06	-1381.201	1	4525.962	-17.76857	-1.339298E-006	-0.0135496	8
	6	11	251203.1	4487.864	-1213.319	1	4648.986	-15.12856	-3.744674E-007	-0.0137091	8
	7	12	199546.9	4634.639	-1071.404	1	4756.867	-13.01659	1.170474E-006	-0.0141819	8
	8	13	158578.1	4721.692	-916.3401	1	4809.788	-10.98288	1.89915E-007	-0.0139064	8
	9	15	125953.1	4832.705	-761.3141	1	4892.303	-8.952446	-9.999303E-007	-0.0117417	7
	10	16	100078.1	4883.148	-686.7042	1	4931.197	-8.004861	1.256498E-008	-0.0140219	7
	11	17	79453.13	4944.035	-623.9865	1	4983.256	-7.193265	-5.15422E-008	-0.0138845	7
	12	19	63140.62	4988.94	-583.5721	1	5022.955	-6.67175	-6.803284E-009	-0.013949	7
	13	20	50203.12	5041.961	-556.2732	1	5072.555	-6.295908	-1.509504E-008	-0.0139839	7
	14	21	39890.62	5079.41	-548.8152	1	5108.973	-6.166718	6.905082E-008	-0.0140147	7
	15	23	31640.63	5125.956	-548.7765	1	5155.248	-6.110718	-4.529291E-008	-0.013888	7
	16	24	25171.88	5170.819	-570.302	1	5202.174	-6.293851	7.033066E-008	-0.014012	7
	17	25	20015.62	5223.669	-609.1567	1	5259.067	-6.651488	-5.378782E-008	-0.0138911	7
	18	27	15890.62	5268.366	-655.2332	1	5308.956	-7.089541	-1.13539E-008	-0.0139889	7
	19	28	12609.37	5326.894	-722.4834	1	5375.666	-7.723861	6.716618E-008	-0.0140143	7
	20	29	10078.13	5386.493	-809.1396	1	5446.927	-8.542892	1.247121E-008	-0.0140256	7
	21	31	8015.625	5449.319	-910.8204	1	5524.914	-9.488925	-4.678061E-008	-0.0138101	7
	22	32	6328.125	5521.33	-1047.946	1	5619.9	-10.74688	-2.998457E-008	-0.0139553	7
	23	33	5015.625	5606.734	-1209.065	1	5735.618	-12.16921	8.974268E-008	-0.0140892	7
	24	35	3984.375	5698.613	-1412.619	1	5871.089	-13.92231	1.460276E-008	-0.0138997	7
	25	36	3170.956	5799.644	-1643.575	1	6028.035	-15.82232	5.545052E-008	-0.0140616	7
	26	37	2527.573	5911.895	-1927.337	1	6218.129	-18.05648	5.282919E-008	-0.0140485	7
	27	39	1976.103	6061.047	-2299.796	1	6482.696	-20.77868	1.177298E-008	-0.0140158	7
	28	40	1577.524	6205.066	-2714.346	1	6772.778	-23.62651	-2.671148E-008	-0.0139573	7
	29	41	1265.625	6366.971	-3204.869	1	7128.079	-26.71879	-4.336594E-008	-0.0138963	7
	30	43	998.264	6563.467	-3843.529	1	7606.039	-30.353	-1.506013E-008	-0.013995	7
	31	44	796.875	6784.197	-4580.937	1	8185.982	-34.02866	-2.997552E-008	-0.0138926	7
	32	45	627.7902	7044.217	-5521.875	1	8950.537	-38.09246	1.587359E-008	-0.0138999	7
	33	47	505.5147	7317.4	-6589.344	1	9847.02	-42.00315	5.556588E-009	-0.0141514	6
	34	48	397.9953	7674.931	-8015.077	1	11097.12	-46.24193	1.387227E-009	-0.0139952	6
	35	49	315.5048	8078.335	-9721.64	1	12640.01	-50.27464	8.658368E-010	-0.0140011	6
	36	51	252.4038	8538.254	-11725.76	1	14505.01	-53.93931	1.249114E-009	-0.0140048	6
	37	52	198.6229	9131.015	-14366.23	1	17022.45	-57.56041	1.154766E-009	-0.0140138	6
	38	53	158.3615	9818.53	-17436.47	1	20010.85	-60.61601	1.006714E-009	-0.0140053	6
	39	55	125.558	10657.92	-21284.47	1	23803.78	-63.40118	1.242445E-009	-0.0140109	6
	40	56	100.4464	11667.12	-25810.53	1	28324.99	-65.67564	6.992761E-010	-0.0140086	6
	41	57	79.00281	13011.83	-31774.58	1	34335.58	-67.73068	1.526052E-009	-0.0140074	6
	42	59	63.3446	14827.69	-38576.36	1	41327.91	-68.97461	9.9083E-010	-0.0140122	6
	43	60	49.86702	16630.46	-47423.02	1	50254.5	-70.67508	9.998123E-010	-0.0140133	6
	44	62	39.72458	19519.3	-57767.61	1	60976.23	-71.33022	9.320336E-010	-0.0140056	6
	45	63	31.6723	22878.23	-70197.73	1	73831.8	-71.94863	9.488166E-010	-0.0140032	6
	46	64	24.93351	27781.18	-86230.58	1	90595.29	-72.14246	7.369007E-010	-0.014001	6
	47	66	19.86229	33947.72	-104652.5	1	110020.9	-72.02771	3.76989E-010	-0.0139972	5
	48	67	15.83615	41148.87	-126781.9	1	133292.4	-72.01842	1.328779E-009	-0.0140034	5
	49	68	12.40079	52281.6	-154150.8	1	162775.5	-71.26519	1.012736E-009	-0.014001	5
	50	70	9.93114	66383.31	-184075.7	1	195679.9	-70.16915	2.595577E-010	-0.0140001	5
	51	71	7.944915	83670.34	-219388.8	1	234802.4	-69.12418	4.431477E-010	-0.0139976	5
	52	73	6.317385	105315.8	-260101	1	280613.6	-67.9568	2.585973E-010	-0.0139966	5
	53	75	5.008013	133437.5	-307748.7	1	335432.3	-66.55882	4.531475E-010	-0.0140018	5
	54	77	3.945707	169112.7	-363203.1	1	400643.9	-65.03262	4.151121E-010	-0.0140027	5
	55	80	3.158693	208897.6	-421107.7	1	470074.3	-63.61551	5.538575E-010	-0.0139845	5
	56	83	2.504006	259394.7	-489176.5	1	553696	-62.06442	1.566254E-010	-0.0139942	5
	57	86	1.998082	315764.3	-559994.1	1	642884.4	-60.58262	5.859643E-010	-0.0140363	5
	58	89	1.584686	384630.7	-644569.7	1	750607	-59.17443	2.844536E-010	-0.0140428	5
	59	93	1.266892	459350	-731203.8	1	863516.9	-57.86252	5.641254E-010	-0.0140169	5
	60	97	0.999041	553571.8	-837727.3	1	1004106	-56.54319	7.282468E-011	-0.0140043	5
