EXPLAIN
TAG	EISPOT
TITLE	LABEL	Potentiostatic EIS	Test &Identifier
DATE	LABEL	9/24/2019	Date
TIME	LABEL	8:47:09	Time
NOTES	NOTES	1	&Notes...
	
PSTAT	PSTAT	REF600-11020	Potentiostat
VDC	POTEN	0.00000E+000	T	DC &Voltage (V)
FREQINIT	QUANT	1.00000E+006	Initial Fre&q. (Hz)
FREQFINAL	QUANT	1.00000E+000	Final Fre&q. (Hz)
PTSPERDEC	QUANT	1.00000E+001	Points/&decade
VAC	QUANT	2.50000E+001	AC &Voltage (mV rms)
AREA	QUANT	1.00000E-002	&Area (cm^2)
CONDIT	TWOPARAM	T	5.00000E+000	0.00000E+000	Conditionin&g	Time(s)	E(V)
DELAY	TWOPARAM	T	5.00000E+000	0.00000E+000	Init. De&lay	Time(s)	Stab.(mV/s)
SPEED	SELECTOR	1	&Optimize for:
ZGUESS	QUANT	1.00000E+004	E&stimated Z (ohms)
OCVCURVE	TABLE	19
	Pt	T	Vf	Vm	Ach	Over
	#	s	V vs. Ref.	V	V	bits
	0	0.258333	-1.33616E-002	-1.33616E-002	5.74932E-004	...........
	1	0.516667	-1.33842E-002	-1.45416E-002	5.73299E-004	...........
	2	0.775	-1.35221E-002	-1.56345E-002	5.67566E-004	...........
	3	1.03333	-1.39103E-002	-1.66644E-002	5.74299E-004	...........
	4	1.29167	-1.45998E-002	-1.76322E-002	5.71599E-004	...........
	5	1.55	-1.55078E-002	-1.85520E-002	5.72366E-004	...........
	6	1.80833	-1.65034E-002	-1.94241E-002	5.74165E-004	...........
	7	2.06667	-1.74926E-002	-2.02580E-002	5.70932E-004	...........
	8	2.325	-1.84352E-002	-2.10551E-002	5.71932E-004	...........
	9	2.58333	-1.93247E-002	-2.18179E-002	5.72032E-004	...........
	10	2.84167	-2.01669E-002	-2.25500E-002	5.68466E-004	...........
	11	3.1	-2.09691E-002	-2.32561E-002	5.75432E-004	...........
	12	3.35833	-2.17368E-002	-2.39378E-002	5.70366E-004	...........
	13	3.61667	-2.24739E-002	-2.45949E-002	5.72432E-004	...........
	14	3.875	-2.31833E-002	-2.52315E-002	5.73432E-004	...........
	15	4.13333	-2.38675E-002	-2.58465E-002	5.69466E-004	...........
	16	4.39167	-2.45280E-002	-2.64393E-002	5.68932E-004	...........
	17	4.65	-2.51663E-002	-2.70199E-002	5.69966E-004	...........
	18	4.90833	-2.57837E-002	-2.75792E-002	5.72666E-004	...........
EOC	QUANT	-0.0257837	Open Circuit (V)
PSTATMODEL	IQUANT	4	Pstat Model
PSTATSECTION	LABEL	REF600-11020	Pstat Section
PSTATSERIALNO	LABEL	11020	Pstat Serial Number
CTRLMODE	IQUANT	1	Control Mode
IESTAB	IQUANT	0	I/E Stability
CASPEED	IQUANT	1	Control Amp Speed
CONVENTION	IQUANT	1	Current Convention
ICHRANGE	IQUANT	2	Ich Range
ICHRANGEMODE	TOGGLE	F	Ich Auto Range
ICHOFFSETENABLE	TOGGLE	T	Ich Offset Enable
ICHOFFSET	QUANT	0	Ich Offset (V)
ICHFILTER	IQUANT	3	Ich Filter
VCHRANGE	IQUANT	2	Vch Range
VCHRANGEMODE	TOGGLE	F	Vch Auto Range
VCHOFFSETENABLE	TOGGLE	T	Vch Offset Enable
VCHOFFSET	QUANT	0	Vch Offset (V)
VCHFILTER	IQUANT	3	Vch Filter
ACHRANGE	IQUANT	2	Ach Range
ACHOFFSETENABLE	TOGGLE	F	Ach Offset Enable
ACHOFFSET	QUANT	0	Ach Offset (V)
ACHFILTER	IQUANT	3	Ach Filter
IERANGELOWERLIMIT	IQUANT	1	I/E Range Lower Limit
IERANGEMODE	TOGGLE	F	I/E AutoRange
IERANGE	IQUANT	6	I/E Range
POSFEEDENABLE	TOGGLE	F	Positive Feedback IR Comp
POSFEEDRESISTANCE	QUANT	0	Positive Feedback Resistance (ohm)
ACHSELECT	IQUANT	0	Ach Select
CABLEID	IQUANT	14	Cable ID
DCCALDATE	LABEL	8/19/2019	DC Calibration Date
ACCALDATE	LABEL	8/19/2019	AC Calibration Date
THERMOSELECT	IQUANT	1	Thermo Select
FRAMEWORKVERSION	QUANT	6.33	Framework Version
INSTRUMENTVERSION	LABEL	3.50	Instrument Version
ZCURVE	TABLE
	Pt	Time	Freq	Zreal	Zimag	Zsig	Zmod	Zphz	Idc	Vdc	IERange
	#	s	Hz	ohm	ohm	V	ohm	°	A	V	#
	0	2	1000078	2145.611	-1788.849	1	2793.497	-39.8188	1.341729E-006	-0.0241383	8
	1	3	794390.6	2521.683	-1779.833	1	3086.533	-35.21488	2.881985E-006	-0.0246125	8
	2	4	630984.4	2851.19	-1707.817	1	3323.541	-30.92093	2.377412E-006	-0.024663	8
	3	6	501234.4	3170.219	-1626.284	1	3563.016	-27.15727	-5.384456E-007	-0.0240196	8
	4	7	398109.4	3447.419	-1487.402	1	3754.605	-23.33796	1.795722E-006	-0.0246186	8
	5	8	316265.6	3668.018	-1337.452	1	3904.245	-20.03313	-2.229065E-006	-0.0238797	8
	6	10	251203.1	3852.625	-1201.572	1	4035.653	-17.32186	-1.351837E-006	-0.0239312	8
	7	11	199546.9	4014.892	-1057.326	1	4151.783	-14.75391	1.532583E-007	-0.0240126	8
	8	13	158578.1	4145.937	-911.516	1	4244.956	-12.39964	-2.03633E-006	-0.0239001	8
	9	14	125953.1	4246.168	-770.6932	1	4315.543	-10.28738	2.106849E-007	-0.024623	7
	10	16	100078.1	4324.735	-686.2081	1	4378.837	-9.015991	-1.101842E-010	-0.024193	7
	11	17	79453.13	4389.486	-619.3979	1	4432.972	-8.031945	-2.956733E-008	-0.024225	7
	12	19	63140.62	4446.021	-566.5844	1	4481.978	-7.262415	4.360722E-009	-0.0243008	7
	13	20	50203.12	4496.436	-525.6859	1	4527.061	-6.668275	-3.935926E-008	-0.0241024	7
	14	21	39890.62	4544.608	-497.5388	1	4571.762	-6.247797	-2.896411E-008	-0.0242312	7
	15	23	31640.63	4585.807	-482.0598	1	4611.075	-6.000891	1.267337E-007	-0.0244209	7
	16	24	25171.88	4625.726	-477.481	1	4650.304	-5.893367	1.799541E-008	-0.0243099	7
	17	25	20015.62	4664.699	-485.8251	1	4689.93	-5.945879	7.92022E-008	-0.0244044	7
	18	27	15890.62	4705.045	-506.7701	1	4732.258	-6.147503	-1.220401E-008	-0.024188	7
	19	28	12609.37	4746.357	-538.6876	1	4776.828	-6.475075	-3.81763E-008	-0.0242143	7
	20	29	10078.13	4787.285	-582.0283	1	4822.536	-6.931883	7.796764E-008	-0.0242801	7
	21	31	8015.625	4831.205	-645.2783	1	4874.108	-7.607666	-5.831032E-008	-0.0241583	7
	22	32	6328.125	4876.311	-730.3121	1	4930.696	-8.517728	-2.764048E-008	-0.0242384	7
	23	33	5015.625	4923.901	-834.5549	1	4994.125	-9.61968	1.724531E-008	-0.0243143	7
	24	35	3984.375	4976.182	-968.74	1	5069.6	-11.01629	1.011843E-009	-0.0242148	7
	25	36	3170.956	5032.412	-1133.749	1	5158.542	-12.69616	-3.747153E-008	-0.0241632	7
	26	37	2527.573	5095.396	-1338.168	1	5268.183	-14.71489	-3.779033E-008	-0.0241064	7
	27	39	1976.103	5175.661	-1611.706	1	5420.799	-17.29664	7.753635E-008	-0.0243789	7
	28	40	1577.524	5255.242	-1924.083	1	5596.397	-20.10902	-3.099251E-008	-0.0242425	7
	29	41	1265.625	5332.787	-2279.965	1	5799.729	-23.14851	-1.239468E-008	-0.0241908	7
	30	43	998.264	5465.9	-2787.879	1	6135.824	-27.02383	4.183824E-008	-0.0242936	7
	31	44	796.875	5595.242	-3357.148	1	6525.119	-30.96378	7.927094E-008	-0.0244133	7
	32	45	627.7902	5764.27	-4102.839	1	7075.316	-35.44215	8.144018E-008	-0.0244132	7
	33	47	505.5147	5941.637	-4928.907	1	7719.92	-39.67753	8.093131E-008	-0.0244158	7
	34	48	397.9953	6176.776	-6050.635	1	8646.545	-44.40894	9.711754E-009	-0.0242294	7
	35	50	315.5048	6456.882	-7392.307	1	9815.17	-48.8641	9.639054E-009	-0.0242253	7
	36	51	252.4038	6788.619	-8973.163	1	11251.8	-52.89079	4.953444E-009	-0.0242915	6
	37	52	198.6229	7232.631	-11064.07	1	13218.34	-56.82718	4.227799E-009	-0.0242886	6
	38	54	158.3615	7765.156	-13497.34	1	15571.64	-60.08775	3.829399E-009	-0.0242896	6
	39	55	125.558	8460.68	-16543.22	1	18581.21	-62.91349	3.956352E-009	-0.0242899	6
	40	56	100.4464	9313.918	-20136.17	1	22185.91	-65.17725	4.219175E-009	-0.0242916	6
	41	58	79.00281	10489.16	-24791.62	1	26919.26	-67.06712	4.043303E-009	-0.0242955	6
	42	59	63.3446	12106.63	-30341.64	1	32667.8	-68.24749	4.142167E-009	-0.0242989	6
	43	60	49.86702	13904.11	-36961.71	1	39490.41	-69.3849	3.315734E-009	-0.0243006	6
	44	62	39.72458	16749.45	-44708.63	1	47743.12	-69.46226	3.82713E-009	-0.0242961	6
	45	63	31.6723	20013.47	-54121.66	1	57703.49	-69.70628	3.033054E-009	-0.0242989	6
	46	65	24.93351	24966.38	-65767.62	1	70346.99	-69.21249	4.295313E-009	-0.0242995	6
	47	66	19.86229	30913.9	-78851.81	1	84695.2	-68.59231	4.5622E-009	-0.0242858	6
	48	67	15.83615	37436.28	-94125.8	1	101297.3	-68.311	5.47325E-009	-0.0242982	6
	49	69	12.40079	49017.49	-112439.3	1	122659.4	-66.44539	3.154356E-009	-0.0242849	5
	50	70	9.93114	61140.48	-132164.9	1	145621.8	-65.17438	2.791396E-009	-0.024285	5
	51	72	7.944915	75635.03	-154559.1	1	172073.2	-63.92472	3.917161E-009	-0.0242964	5
	52	73	6.317385	94983.54	-179132	1	202756.4	-62.06553	3.996745E-009	-0.0242953	5
	53	75	5.008013	117980.4	-206983.7	1	238247	-60.31693	3.596479E-009	-0.0242831	5
	54	78	3.945707	146001.4	-237887.1	1	279117.7	-58.46079	2.954095E-009	-0.0242967	5
	55	80	3.158693	176618.2	-269151.4	1	321926.2	-56.72697	3.465014E-009	-0.024288	5
	56	84	2.504006	212770	-303845.9	1	370935.9	-54.99813	2.877049E-009	-0.0242911	5
	57	86	1.998082	251234.5	-339122.7	1	422046.2	-53.46759	3.52713E-009	-0.0243298	5
	58	90	1.584686	296295.9	-380035.6	1	481890.3	-52.05813	2.966869E-009	-0.0243338	5
	59	93	1.266892	342424.4	-421009.5	1	542681.8	-50.87712	3.432445E-009	-0.0243245	5
	60	97	0.999041	397060.8	-471483.3	1	616403.9	-49.89751	2.71293E-009	-0.0242916	5
