EXPLAIN
TAG	EISPOT
TITLE	LABEL	Potentiostatic EIS	Test &Identifier
DATE	LABEL	11/22/2019	Date
TIME	LABEL	1:27:54	Time
NOTES	NOTES	4	&Notes...
	
	
	
	
PSTAT	PSTAT	REF600-11020	Potentiostat
VDC	POTEN	0.00000E+000	T	DC &Voltage (V)
FREQINIT	QUANT	1.00000E+006	Initial Fre&q. (Hz)
FREQFINAL	QUANT	1.00000E+000	Final Fre&q. (Hz)
PTSPERDEC	QUANT	1.00000E+001	Points/&decade
VAC	QUANT	2.50000E+001	AC &Voltage (mV rms)
AREA	QUANT	1.00000E-002	&Area (cm^2)
CONDIT	TWOPARAM	T	5.00000E+000	0.00000E+000	Conditionin&g	Time(s)	E(V)
DELAY	TWOPARAM	T	5.00000E+000	0.00000E+000	Init. De&lay	Time(s)	Stab.(mV/s)
SPEED	SELECTOR	1	&Optimize for:
ZGUESS	QUANT	1.00000E+005	E&stimated Z (ohms)
OCVCURVE	TABLE	19
	Pt	T	Vf	Vm	Ach	Over
	#	s	V vs. Ref.	V	V	bits
	0	0.258333	5.73908E-003	5.73908E-003	5.60699E-004	...........
	1	0.516667	5.73930E-003	5.75012E-003	5.60866E-004	...........
	2	0.775	5.73973E-003	5.71568E-003	5.50966E-004	...........
	3	1.03333	5.73875E-003	5.71556E-003	5.58732E-004	...........
	4	1.29167	5.73434E-003	5.72258E-003	5.63532E-004	...........
	5	1.55	5.72769E-003	5.71114E-003	5.60999E-004	...........
	6	1.80833	5.72161E-003	5.70536E-003	5.68499E-004	...........
	7	2.06667	5.71681E-003	5.71019E-003	5.74266E-004	...........
	8	2.325	5.71303E-003	5.71402E-003	5.68932E-004	...........
	9	2.58333	5.71124E-003	5.73200E-003	5.62832E-004	...........
	10	2.84167	5.71329E-003	5.74993E-003	5.62066E-004	...........
	11	3.1	5.72114E-003	5.80189E-003	5.69032E-004	...........
	12	3.35833	5.73726E-003	5.84712E-003	5.68132E-004	...........
	13	3.61667	5.76307E-003	5.85664E-003	5.69432E-004	...........
	14	3.875	5.79503E-003	5.86394E-003	5.66699E-004	...........
	15	4.13333	5.82522E-003	5.87281E-003	5.65299E-004	...........
	16	4.39167	5.84822E-003	5.90184E-003	5.65666E-004	...........
	17	4.65	5.86542E-003	5.92373E-003	5.67966E-004	...........
	18	4.90833	5.88197E-003	5.95569E-003	5.65332E-004	...........
EOC	QUANT	0.005882	Open Circuit (V)
PSTATMODEL	IQUANT	4	Pstat Model
PSTATSECTION	LABEL	REF600-11020	Pstat Section
PSTATSERIALNO	LABEL	11020	Pstat Serial Number
CTRLMODE	IQUANT	1	Control Mode
IESTAB	IQUANT	0	I/E Stability
CASPEED	IQUANT	1	Control Amp Speed
CONVENTION	IQUANT	1	Current Convention
ICHRANGE	IQUANT	2	Ich Range
ICHRANGEMODE	TOGGLE	F	Ich Auto Range
ICHOFFSETENABLE	TOGGLE	T	Ich Offset Enable
ICHOFFSET	QUANT	0	Ich Offset (V)
ICHFILTER	IQUANT	3	Ich Filter
VCHRANGE	IQUANT	2	Vch Range
VCHRANGEMODE	TOGGLE	F	Vch Auto Range
VCHOFFSETENABLE	TOGGLE	T	Vch Offset Enable
VCHOFFSET	QUANT	0	Vch Offset (V)
VCHFILTER	IQUANT	3	Vch Filter
ACHRANGE	IQUANT	2	Ach Range
ACHOFFSETENABLE	TOGGLE	F	Ach Offset Enable
ACHOFFSET	QUANT	0	Ach Offset (V)
ACHFILTER	IQUANT	3	Ach Filter
IERANGELOWERLIMIT	IQUANT	1	I/E Range Lower Limit
IERANGEMODE	TOGGLE	F	I/E AutoRange
IERANGE	IQUANT	5	I/E Range
POSFEEDENABLE	TOGGLE	F	Positive Feedback IR Comp
POSFEEDRESISTANCE	QUANT	0	Positive Feedback Resistance (ohm)
ACHSELECT	IQUANT	0	Ach Select
CABLEID	IQUANT	14	Cable ID
DCCALDATE	LABEL	8/19/2019	DC Calibration Date
ACCALDATE	LABEL	8/19/2019	AC Calibration Date
THERMOSELECT	IQUANT	1	Thermo Select
FRAMEWORKVERSION	QUANT	6.33	Framework Version
INSTRUMENTVERSION	LABEL	3.50	Instrument Version
ZCURVE	TABLE
	Pt	Time	Freq	Zreal	Zimag	Zsig	Zmod	Zphz	Idc	Vdc	IERange
	#	s	Hz	ohm	ohm	V	ohm	°	A	V	#
	0	1	1000078	1697.161	-728.0363	1	1846.725	-23.21802	-2.771728E-006	0.0075029	8
	1	3	794390.6	1812.047	-692.9293	1	1940.017	-20.92692	3.582656E-006	0.0081824	8
	2	4	630984.4	1914.718	-645.6559	1	2020.647	-18.63446	-3.91134E-006	0.0083262	8
	3	5	501234.4	2006.445	-605.0588	1	2095.69	-16.78109	-4.284784E-006	0.0079862	8
	4	7	398109.4	2084.625	-558.0154	1	2158.019	-14.98568	8.080412E-008	0.0080142	8
	5	8	316265.6	2155.314	-521.4942	1	2217.507	-13.60173	2.009629E-006	0.0070892	8
	6	10	251203.1	2214.106	-489.7509	1	2267.625	-12.47275	-8.81411E-007	0.007953	8
	7	11	199546.9	2269.587	-471.1967	1	2317.985	-11.72875	-4.309414E-006	0.0078628	8
	8	12	158578.1	2322.477	-453.3051	1	2366.302	-11.04424	5.691031E-006	0.006494	8
	9	14	125953.1	2383.858	-412.9054	1	2419.353	-9.82664	-1.273165E-006	0.010871	7
	10	15	100078.1	2433.641	-412.1157	1	2468.288	-9.61135	9.214214E-007	0.0062187	7
	11	16	79453.13	2477.305	-426.1465	1	2513.69	-9.76051	-1.061422E-006	0.0084802	7
	12	18	63140.62	2528.45	-446.1986	1	2567.519	-10.00801	1.017331E-007	0.0082715	7
	13	19	50203.12	2580.888	-468.7698	1	2623.115	-10.29447	-6.517116E-007	0.0073939	7
	14	20	39890.62	2638.953	-497.4742	1	2685.433	-10.67566	1.042274E-007	0.0082666	7
	15	22	31640.63	2700.554	-530.4677	1	2752.161	-11.11308	5.644042E-007	0.0075898	7
	16	23	25171.88	2762.663	-568.4634	1	2820.542	-11.62726	6.704273E-008	0.0063454	7
	17	25	20015.62	2827.608	-611.3217	1	2892.936	-12.19944	-7.509188E-007	0.0089332	7
	18	26	15890.62	2900.717	-667.3873	1	2976.502	-12.95694	8.224644E-007	0.0060284	7
	19	27	12609.37	2973.198	-730.65	1	3061.659	-13.80659	5.645261E-007	0.0075868	7
	20	29	10078.13	3044.505	-803.3764	1	3148.718	-14.78211	1.034461E-007	0.0082596	7
	21	30	8015.625	3127.564	-898.1103	1	3253.961	-16.02193	9.261754E-007	0.0062029	7
	22	31	6328.125	3217.343	-1012.902	1	3373.021	-17.47534	9.517117E-007	0.0064624	7
	23	33	5015.625	3308.928	-1144.967	1	3501.422	-19.08683	-7.504218E-007	0.0089306	7
	24	34	3984.375	3411.563	-1303.399	1	3652.07	-20.90953	-1.06178E-006	0.0087773	7
	25	36	3170.956	3528.973	-1498.603	1	3833.988	-23.00883	6.414476E-007	0.0059752	7
	26	37	2527.573	3647.467	-1718.14	1	4031.875	-25.22279	-7.499014E-007	0.0089317	7
	27	38	1976.103	3788.588	-2010.754	1	4289.118	-27.95667	-1.063969E-006	0.0084688	7
	28	40	1577.524	3940.992	-2339.803	1	4583.241	-30.69799	3.854939E-007	0.0060805	7
	29	41	1265.625	4080.749	-2724.294	1	4906.556	-33.72694	-9.349235E-007	0.008898	7
	30	42	998.264	4259.156	-3244.111	1	5353.939	-37.29578	6.905027E-008	0.0063495	7
	31	44	796.875	4448.666	-3838.276	1	5875.627	-40.78738	-1.061799E-006	0.0087775	7
	32	45	627.7902	4682.082	-4643.164	1	6594.002	-44.76088	5.665E-007	0.0075821	7
	33	46	505.5147	4933.303	-5530.086	1	7410.758	-48.26435	6.375492E-007	0.0059704	7
	34	48	397.9953	5276.985	-6713.888	1	8539.488	-51.83334	4.087045E-009	0.0075049	7
	35	49	315.5048	5704.061	-8136.337	1	9936.61	-54.96724	5.995589E-009	0.0074976	7
	36	51	252.4038	6230.826	-9791.95	1	11606.27	-57.53055	5.837493E-010	0.0074481	6
	37	52	198.6229	6959.079	-11936.74	1	13817.18	-59.75795	4.275332E-010	0.0074394	6
	38	53	158.3615	7848.806	-14369.43	1	16373.28	-61.35595	3.171357E-010	0.0074413	6
	39	55	125.558	9023.448	-17343.79	1	19550.7	-62.51341	9.542309E-010	0.0074387	6
	40	56	100.4464	10457.86	-20688.9	1	23181.84	-63.18425	1.227269E-009	0.0074308	6
	41	57	79.00281	12454.12	-24996.83	1	27927.53	-63.51624	6.384441E-010	0.0074304	6
	42	59	63.3446	14619.75	-29312.93	1	32756.45	-63.49239	4.804527E-010	0.0074364	6
	43	60	49.86702	18129.3	-35125.13	1	39527.79	-62.70016	1.110376E-009	0.007441	6
	44	62	39.72458	21693.31	-41216.86	1	46577.13	-62.24122	-2.814025E-010	0.0074444	6
	45	63	31.6723	26124.4	-48203.3	1	54827.39	-61.54395	-6.238866E-010	0.0074395	6
	46	64	24.93351	31852.01	-56133.84	1	64541.14	-60.42813	7.067323E-010	0.0074353	6
	47	66	19.86229	38250.07	-64604.46	1	75078.65	-59.37169	-7.038008E-011	0.0074351	6
	48	67	15.83615	45314.82	-74116.24	1	86871.45	-58.5583	-2.027804E-010	0.0074379	6
	49	69	12.40079	54135.82	-85168.71	1	100917.8	-57.55872	-2.122873E-010	0.0074431	6
	50	70	9.93114	62432.41	-96671	1	115078.6	-57.14468	4.798176E-010	0.0074364	5
	51	72	7.944915	71431.15	-109867.7	1	131047	-56.96985	1.988839E-010	0.0074418	5
	52	73	6.317385	81375.98	-125564.8	1	149628.1	-57.05355	5.65389E-010	0.0074449	5
	53	75	5.008013	92062.62	-144993.7	1	171751.9	-57.58681	3.473801E-010	0.0074524	5
	54	78	3.945707	103992.7	-169327	1	198711.1	-58.44369	-6.925821E-011	0.0074411	5
	55	81	3.158693	116189.7	-196793.2	1	228533.6	-59.44176	1.19335E-010	0.0074675	5
	56	84	2.504006	130700.8	-232052.5	1	266328.8	-60.61014	-1.454576E-010	0.0074422	5
	57	87	1.998082	146792.9	-273137.8	1	310084.5	-61.74501	-1.464957E-010	0.0074454	5
	58	90	1.584686	167203.6	-324822.9	1	365331.3	-62.76271	9.803968E-011	0.0074979	5
	59	93	1.266892	189775	-384006	1	428340	-63.70151	-1.116158E-010	0.00747	5
	60	98	0.999041	218688.8	-460515.9	1	509803.6	-64.59799	1.679059E-010	0.0074407	5
