EXPLAIN
TAG	EISPOT
TITLE	LABEL	Potentiostatic EIS	Test &Identifier
DATE	LABEL	8/14/2018	Date
TIME	LABEL	5:51:23	Time
NOTES	NOTES	1	&Notes...
	
PSTAT	PSTAT	REF600-11020	Potentiostat
VDC	POTEN	0.00000E+000	T	DC &Voltage (V)
FREQINIT	QUANT	1.00000E+006	Initial Fre&q. (Hz)
FREQFINAL	QUANT	1.00000E+000	Final Fre&q. (Hz)
PTSPERDEC	QUANT	1.00000E+001	Points/&decade
VAC	QUANT	2.50000E+001	AC &Voltage (mV rms)
AREA	QUANT	1.00000E-002	&Area (cm^2)
CONDIT	TWOPARAM	T	5.00000E+000	0.00000E+000	Conditionin&g	Time(s)	E(V)
DELAY	TWOPARAM	T	5.00000E+000	0.00000E+000	Init. De&lay	Time(s)	Stab.(mV/s)
SPEED	SELECTOR	0	&Optimize for:
ZGUESS	QUANT	1.00000E+005	E&stimated Z (ohms)
OCVCURVE	TABLE	19
	Pt	T	Vf	Vm	Ach	Over
	#	s	V vs. Ref.	V	V	bits
	0	0.258333	1.13081E-001	1.13081E-001	5.32300E-004	...........
	1	0.516667	1.13226E-001	1.20667E-001	5.26600E-004	...........
	2	0.775	1.14110E-001	1.27527E-001	5.25666E-004	...........
	3	1.03333	1.16579E-001	1.33615E-001	5.27866E-004	...........
	4	1.29167	1.20906E-001	1.38998E-001	5.28166E-004	...........
	5	1.55	1.26477E-001	1.43869E-001	5.27033E-004	...........
	6	1.80833	1.32384E-001	1.48428E-001	5.26900E-004	...........
	7	2.06667	1.38012E-001	1.52471E-001	5.29200E-004	...........
	8	2.325	1.43132E-001	1.56139E-001	5.22700E-004	...........
	9	2.58333	1.47739E-001	1.59664E-001	5.24466E-004	...........
	10	2.84167	1.51900E-001	1.62836E-001	5.23233E-004	...........
	11	3.1	1.55694E-001	1.65663E-001	5.34266E-004	...........
	12	3.35833	1.59176E-001	1.68501E-001	5.31266E-004	...........
	13	3.61667	1.62385E-001	1.71039E-001	5.25933E-004	...........
	14	3.875	1.65357E-001	1.73317E-001	5.30733E-004	...........
	15	4.13333	1.68118E-001	1.75632E-001	5.22166E-004	...........
	16	4.39167	1.70686E-001	1.77690E-001	5.29733E-004	...........
	17	4.65	1.73083E-001	1.79649E-001	5.34800E-004	...........
	18	4.90833	1.75329E-001	1.81500E-001	5.24400E-004	...........
EOC	QUANT	0.1753293	Open Circuit (V)
PSTATMODEL	IQUANT	4	Pstat Model
PSTATSECTION	LABEL	REF600-11020	Pstat Section
PSTATSERIALNO	LABEL	11020	Pstat Serial Number
CTRLMODE	IQUANT	1	Control Mode
IESTAB	IQUANT	0	I/E Stability
CASPEED	IQUANT	1	Control Amp Speed
CONVENTION	IQUANT	1	Current Convention
ICHRANGE	IQUANT	2	Ich Range
ICHRANGEMODE	TOGGLE	F	Ich Auto Range
ICHOFFSETENABLE	TOGGLE	T	Ich Offset Enable
ICHOFFSET	QUANT	0	Ich Offset (V)
ICHFILTER	IQUANT	3	Ich Filter
VCHRANGE	IQUANT	2	Vch Range
VCHRANGEMODE	TOGGLE	F	Vch Auto Range
VCHOFFSETENABLE	TOGGLE	T	Vch Offset Enable
VCHOFFSET	QUANT	0	Vch Offset (V)
VCHFILTER	IQUANT	3	Vch Filter
ACHRANGE	IQUANT	2	Ach Range
ACHOFFSETENABLE	TOGGLE	F	Ach Offset Enable
ACHOFFSET	QUANT	0	Ach Offset (V)
ACHFILTER	IQUANT	3	Ach Filter
IERANGELOWERLIMIT	IQUANT	1	I/E Range Lower Limit
IERANGEMODE	TOGGLE	F	I/E AutoRange
IERANGE	IQUANT	6	I/E Range
POSFEEDENABLE	TOGGLE	F	Positive Feedback IR Comp
POSFEEDRESISTANCE	QUANT	0	Positive Feedback Resistance (ohm)
ACHSELECT	IQUANT	0	Ach Select
CABLEID	IQUANT	14	Cable ID
DCCALDATE	LABEL	8/19/2019	DC Calibration Date
ACCALDATE	LABEL	8/19/2019	AC Calibration Date
THERMOSELECT	IQUANT	1	Thermo Select
FRAMEWORKVERSION	QUANT	6.33	Framework Version
INSTRUMENTVERSION	LABEL	3.50	Instrument Version
ZCURVE	TABLE
	Pt	Time	Freq	Zreal	Zimag	Zsig	Zmod	Zphz	Idc	Vdc	IERange
	#	s	Hz	ohm	ohm	V	ohm	°	A	V	#
	0	1	1000078	1891.155	-1240.543	1	2261.728	-33.26372	-4.165108E-006	0.17826	8
	1	2	794390.6	2102.054	-1272.958	1	2457.448	-31.19819	4.26169E-007	0.1775449	8
	2	2	630984.4	2328.313	-1294.352	1	2663.905	-29.07047	2.192219E-007	0.1770053	8
	3	2	501234.4	2550.361	-1293.828	1	2859.778	-26.8992	1.478435E-006	0.1764935	8
	4	3	398109.4	2785.249	-1261.113	1	3057.453	-24.3602	-3.181089E-006	0.1774511	8
	5	3	316265.6	2984.226	-1219.63	1	3223.833	-22.22946	6.455743E-008	0.1766133	8
	6	3	251203.1	3182.164	-1173.555	1	3391.666	-20.24355	-2.50029E-006	0.177431	8
	7	4	199546.9	3348.833	-1098.007	1	3524.245	-18.15315	-9.007482E-007	0.1769899	8
	8	4	158578.1	3480.988	-1090.658	1	3647.85	-17.39675	-3.312521E-006	0.1773736	8
	9	4	125953.1	3670.134	-923.5471	1	3784.551	-14.12457	-1.605435E-007	0.1768075	7
	10	5	100078.1	3784.383	-883.5931	1	3886.167	-13.14221	-4.188151E-008	0.1768548	7
	11	5	79453.13	3892.059	-861.0544	1	3986.168	-12.47482	-2.18475E-008	0.1767873	7
	12	5	63140.62	3992.345	-848.191	1	4081.452	-11.9944	-2.008786E-008	0.176785	7
	13	6	50203.12	4089.974	-847.7833	1	4176.915	-11.71062	-4.127832E-008	0.1767554	7
	14	6	39890.62	4189.359	-857.6536	1	4276.249	-11.56983	1.084874E-007	0.1765831	7
	15	6	31640.63	4291.671	-880.8412	1	4381.132	-11.59856	-8.511293E-009	0.1767067	7
	16	7	25171.88	4397.355	-915.8752	1	4491.722	-11.76529	-1.000214E-008	0.1767855	7
	17	7	20015.62	4504.448	-947.6211	1	4603.046	-11.88033	-6.702086E-008	0.1768255	7
	18	7	15890.62	4626.888	-1015.578	1	4737.034	-12.37981	-5.859001E-008	0.1768078	7
	19	7	12609.37	4754.294	-1082.15	1	4875.896	-12.82293	-1.068191E-008	0.1767796	7
	20	8	10078.13	4879.053	-1154.971	1	5013.893	-13.31792	-6.814445E-008	0.1768565	7
	21	8	8015.625	5024.632	-1252.232	1	5178.321	-13.9941	-7.57057E-009	0.1766937	7
	22	8	6328.125	5184.779	-1350.543	1	5357.789	-14.60009	-6.711089E-009	0.1766871	7
	23	9	5015.625	5347.61	-1467.696	1	5545.364	-15.34739	-4.492099E-008	0.1767553	7
	24	9	3984.375	5532.211	-1609.984	1	5761.719	-16.22605	-4.425527E-008	0.1767531	7
	25	9	3170.956	5698.941	-1748.804	1	5961.228	-17.0594	-4.008126E-008	0.1767509	7
	26	10	2527.573	5888.204	-1929.13	1	6196.167	-18.14016	3.309747E-008	0.1766909	7
	27	10	1976.103	6095.343	-2149.726	1	6463.322	-19.4269	6.504948E-008	0.1765856	7
	28	10	1577.524	6384.409	-2516.989	1	6862.646	-21.51634	-5.506614E-008	0.1767961	7
	29	11	1265.625	6485.192	-2704.232	1	7026.42	-22.63544	-6.717357E-008	0.1768449	7
	30	11	998.264	6700.987	-3103.503	1	7384.778	-24.8508	-4.879044E-008	0.1767617	7
	31	11	796.875	6920.813	-3559.912	1	7782.713	-27.22028	-5.639241E-008	0.1767974	7
	32	12	627.7902	7172.004	-4160.827	1	8291.569	-30.1201	-5.563321E-008	0.1768036	7
	33	12	505.5147	7410.184	-4837.338	1	8849.331	-33.13634	-4.142051E-008	0.1767498	7
	34	12	397.9953	7719.517	-5755.915	1	9629.2	-36.70937	-5.291231E-009	0.1767056	6
	35	13	315.5048	8046.391	-6868.429	1	10579.21	-40.48419	-6.291204E-009	0.1767043	6
	36	13	252.4038	8407.304	-8185.737	1	11734.1	-44.23497	-5.777995E-009	0.1767035	6
	37	13	198.6229	8873.991	-9931.73	1	13318.67	-48.21925	-5.158742E-009	0.1767049	6
	38	14	158.3615	9412.745	-11959.91	1	15219.69	-51.79637	-5.211475E-009	0.1767013	6
	39	14	125.558	10092.04	-14510.16	1	17674.67	-55.1808	-5.759471E-009	0.1767027	6
	40	14	100.4464	10926.91	-17471.61	1	20607.14	-57.97774	-4.348879E-009	0.1766979	6
	41	15	79.00281	11993.06	-21339.86	1	24479.03	-60.6639	-5.948569E-009	0.1766948	6
	42	15	63.3446	13607.94	-25812.2	1	29179.54	-62.20224	-5.313411E-009	0.1766953	6
	43	15	49.86702	15298.53	-31444.38	1	34968.47	-64.05585	-4.956802E-009	0.176696	6
	44	16	39.72458	17286.32	-37793.52	1	41559.2	-65.42119	-5.584031E-009	0.1766978	6
	45	16	31.6723	19876.09	-45419.99	1	49578.57	-66.36549	-5.755117E-009	0.1766947	6
	46	16	24.93351	23463.81	-55252.22	1	60027.98	-66.99065	-5.163391E-009	0.1766898	6
	47	17	19.86229	27748.33	-66318.65	1	71889.73	-67.29512	-4.299161E-009	0.1766934	6
	48	17	15.83615	33582.15	-78699.12	1	85564.66	-66.8913	-7.412604E-009	0.1766907	6
	49	17	12.40079	40414.31	-95413	1	103619.3	-67.04382	-4.010037E-009	0.1766928	6
	50	18	9.93114	48540.08	-113530.4	1	123471.9	-66.85081	-5.641617E-009	0.1766948	5
	51	18	7.944915	58471.58	-134509.5	1	146668.8	-66.5053	-5.652194E-009	0.1766944	5
	52	19	6.317385	70542.82	-159103.2	1	174040.5	-66.08856	-5.861508E-009	0.1767075	5
	53	20	5.008013	86121.23	-188741.1	1	207461	-65.47312	-5.796922E-009	0.1766897	5
	54	21	3.945707	105574	-223460.2	1	247144.3	-64.71156	-5.39131E-009	0.1766889	5
	55	22	3.158693	127889.9	-261368.6	1	290980	-63.92709	-5.152199E-009	0.1767093	5
	56	24	2.504006	156149.8	-306671.2	1	344136.6	-63.01587	-5.32116E-009	0.1767005	5
	57	25	1.998082	188217.6	-356340.3	1	402994.2	-62.15715	-5.142714E-009	0.1766972	5
	58	27	1.584686	229373.8	-414538.8	1	473766.6	-61.04324	-4.919259E-009	0.1767374	5
	59	29	1.266892	275497.7	-479194.2	1	552744.2	-60.1046	-4.830242E-009	0.1767341	5
	60	31	0.999041	332845	-555605.4	1	647675.2	-59.07556	-4.725632E-009	0.1767123	5
