EXPLAIN
TAG	EISPOT
TITLE	LABEL	Potentiostatic EIS	Test &Identifier
DATE	LABEL	11/22/2019	Date
TIME	LABEL	10:10:05	Time
NOTES	NOTES	4	&Notes...
	
	
	
	
PSTAT	PSTAT	REF600-11020	Potentiostat
VDC	POTEN	0.00000E+000	T	DC &Voltage (V)
FREQINIT	QUANT	1.00000E+006	Initial Fre&q. (Hz)
FREQFINAL	QUANT	1.00000E+000	Final Fre&q. (Hz)
PTSPERDEC	QUANT	1.00000E+001	Points/&decade
VAC	QUANT	2.50000E+001	AC &Voltage (mV rms)
AREA	QUANT	1.00000E-002	&Area (cm^2)
CONDIT	TWOPARAM	T	5.00000E+000	0.00000E+000	Conditionin&g	Time(s)	E(V)
DELAY	TWOPARAM	T	5.00000E+000	0.00000E+000	Init. De&lay	Time(s)	Stab.(mV/s)
SPEED	SELECTOR	0	&Optimize for:
ZGUESS	QUANT	1.00000E+005	E&stimated Z (ohms)
OCVCURVE	TABLE	19
	Pt	T	Vf	Vm	Ach	Over
	#	s	V vs. Ref.	V	V	bits
	0	0.258333	3.75506E-003	3.75506E-003	5.66966E-004	...........
	1	0.516667	3.75276E-003	3.63490E-003	5.65799E-004	...........
	2	0.775	3.73882E-003	3.52935E-003	5.65399E-004	...........
	3	1.03333	3.70034E-003	3.44944E-003	5.64166E-004	...........
	4	1.29167	3.63430E-003	3.37313E-003	5.63132E-004	...........
	5	1.55	3.55175E-003	3.31154E-003	5.64166E-004	...........
	6	1.80833	3.46730E-003	3.25565E-003	5.61399E-004	...........
	7	2.06667	3.39009E-003	3.20858E-003	5.69566E-004	...........
	8	2.325	3.32300E-003	3.16413E-003	5.67499E-004	...........
	9	2.58333	3.26534E-003	3.12717E-003	5.67599E-004	...........
	10	2.84167	3.21526E-003	3.08785E-003	5.63899E-004	...........
	11	3.1	3.17087E-003	3.05576E-003	5.64766E-004	...........
	12	3.35833	3.13067E-003	3.02386E-003	5.66366E-004	...........
	13	3.61667	3.09373E-003	2.99377E-003	5.64366E-004	...........
	14	3.875	3.05951E-003	2.96663E-003	5.66066E-004	...........
	15	4.13333	3.02769E-003	2.94527E-003	5.65899E-004	...........
	16	4.39167	2.99828E-003	2.91756E-003	5.64232E-004	...........
	17	4.65	2.97089E-003	2.88459E-003	5.67232E-004	...........
	18	4.90833	2.94416E-003	2.85552E-003	5.66099E-004	...........
EOC	QUANT	0.0029442	Open Circuit (V)
PSTATMODEL	IQUANT	4	Pstat Model
PSTATSECTION	LABEL	REF600-11020	Pstat Section
PSTATSERIALNO	LABEL	11020	Pstat Serial Number
CTRLMODE	IQUANT	1	Control Mode
IESTAB	IQUANT	0	I/E Stability
CASPEED	IQUANT	1	Control Amp Speed
CONVENTION	IQUANT	1	Current Convention
ICHRANGE	IQUANT	2	Ich Range
ICHRANGEMODE	TOGGLE	F	Ich Auto Range
ICHOFFSETENABLE	TOGGLE	T	Ich Offset Enable
ICHOFFSET	QUANT	0	Ich Offset (V)
ICHFILTER	IQUANT	3	Ich Filter
VCHRANGE	IQUANT	2	Vch Range
VCHRANGEMODE	TOGGLE	F	Vch Auto Range
VCHOFFSETENABLE	TOGGLE	T	Vch Offset Enable
VCHOFFSET	QUANT	0	Vch Offset (V)
VCHFILTER	IQUANT	3	Vch Filter
ACHRANGE	IQUANT	2	Ach Range
ACHOFFSETENABLE	TOGGLE	F	Ach Offset Enable
ACHOFFSET	QUANT	0	Ach Offset (V)
ACHFILTER	IQUANT	3	Ach Filter
IERANGELOWERLIMIT	IQUANT	1	I/E Range Lower Limit
IERANGEMODE	TOGGLE	F	I/E AutoRange
IERANGE	IQUANT	4	I/E Range
POSFEEDENABLE	TOGGLE	F	Positive Feedback IR Comp
POSFEEDRESISTANCE	QUANT	0	Positive Feedback Resistance (ohm)
ACHSELECT	IQUANT	0	Ach Select
CABLEID	IQUANT	14	Cable ID
DCCALDATE	LABEL	8/19/2019	DC Calibration Date
ACCALDATE	LABEL	8/19/2019	AC Calibration Date
THERMOSELECT	IQUANT	1	Thermo Select
FRAMEWORKVERSION	QUANT	6.33	Framework Version
INSTRUMENTVERSION	LABEL	3.50	Instrument Version
ZCURVE	TABLE
	Pt	Time	Freq	Zreal	Zimag	Zsig	Zmod	Zphz	Idc	Vdc	IERange
	#	s	Hz	ohm	ohm	V	ohm	°	A	V	#
	0	1	1000078	2390.236	-1325.3	1	2733.066	-29.00679	-2.760739E-006	0.0054825	8
	1	1	794390.6	2609.512	-1240.325	1	2889.284	-25.42217	4.773276E-007	0.0055355	8
	2	2	630984.4	2812.573	-1154.493	1	3040.3	-22.31695	6.938048E-006	0.0038997	8
	3	2	501234.4	2987.535	-1043.508	1	3164.534	-19.25365	-2.766909E-006	0.0044129	8
	4	2	398109.4	3142.252	-955.977	1	3284.454	-16.92149	-1.692235E-007	0.005075	8
	5	3	316265.6	3263.558	-856.3447	1	3374.039	-14.70273	-6.161407E-008	0.0042441	8
	6	3	251203.1	3377.342	-767.3362	1	3463.415	-12.80037	1.817158E-006	0.0048354	8
	7	3	199546.9	3454.719	-688.8593	1	3522.728	-11.27669	-1.605454E-006	0.0043265	8
	8	3	158578.1	3573.91	-612.93	1	3626.089	-9.73162	7.351113E-007	0.004917	8
	9	4	125953.1	3629.375	-492.3735	1	3662.622	-7.725776	1.999776E-006	0.0045831	7
	10	4	100078.1	3663.876	-453.4085	1	3691.824	-7.054546	-1.031313E-006	0.0050106	7
	11	4	79453.13	3706.658	-429.3174	1	3731.438	-6.606749	3.799166E-007	0.005037	7
	12	5	63140.62	3745.945	-410.6454	1	3768.386	-6.256011	-2.938018E-007	0.0036452	7
	13	5	50203.12	3784.649	-404.6752	1	3806.222	-6.103187	1.073541E-006	0.0030595	7
	14	5	39890.62	3819.102	-405.5163	1	3840.571	-6.061017	6.327346E-008	0.005457	7
	15	6	31640.63	3855.884	-417.0025	1	3878.367	-6.172381	-1.093423E-006	0.0060986	7
	16	6	25171.88	3894.177	-439.1761	1	3918.864	-6.434495	-7.139153E-007	0.0043252	7
	17	6	20015.62	3942.793	-467.8276	1	3970.451	-6.766728	8.176997E-007	0.004294	7
	18	7	15890.62	3981.678	-510.7039	1	4014.296	-7.309049	3.809574E-007	0.0050258	7
	19	7	12609.37	4028.002	-563.3192	1	4067.201	-7.961226	-6.261799E-007	0.0060858	7
	20	7	10078.13	4078.238	-624.2104	1	4125.731	-8.702091	-1.092534E-006	0.0060999	7
	21	8	8015.625	4135.593	-705.0122	1	4195.256	-9.67445	-7.129323E-007	0.0043201	7
	22	8	6328.125	4197.609	-801.4083	1	4273.427	-10.80884	5.998778E-007	0.004697	7
	23	8	5015.625	4263.304	-918.546	1	4361.133	-12.15874	6.002185E-007	0.0046995	7
	24	9	3984.375	4341.687	-1054.282	1	4467.858	-13.64884	5.987152E-007	0.0047037	7
	25	9	3170.956	4404.659	-1231.629	1	4573.612	-15.62203	1.248787E-007	0.003126	7
	26	9	2527.573	4486.085	-1438.112	1	4710.958	-17.77438	-7.124166E-007	0.0043118	7
	27	9	1976.103	4583.772	-1716.117	1	4894.489	-20.52538	7.752564E-007	0.0027327	7
	28	10	1577.524	4686.252	-2023.562	1	5104.484	-23.35508	9.991417E-007	0.0037957	7
	29	10	1265.625	4783.75	-2400.057	1	5352.06	-26.64339	-8.953994E-007	0.0061509	7
	30	10	998.264	4913.797	-2895.193	1	5703.292	-30.50645	-1.03087E-006	0.00498	7
	31	11	796.875	5051.438	-3472.079	1	6129.629	-34.50248	-1.218839E-006	0.0059201	7
	32	11	627.7902	5220.103	-4232.985	1	6720.687	-39.03862	-8.919113E-007	0.0061404	7
	33	11	505.5147	5404.443	-5081.724	1	7418.351	-43.23724	-1.208563E-006	0.0055377	7
	34	12	397.9953	5651.901	-6245.997	1	8423.566	-47.85857	2.257295E-009	0.0045024	7
	35	12	315.5048	5951.49	-7638.401	1	9683.25	-52.07592	2.479642E-009	0.0045084	7
	36	12	252.4038	6320.117	-9280.91	1	11228.5	-55.74591	5.688981E-010	0.0044409	6
	37	13	198.6229	6825.765	-11446.51	1	13327.18	-59.1916	7.57204E-011	0.0044514	6
	38	13	158.3615	7449.177	-13959.88	1	15823.03	-61.91502	6.41501E-010	0.0044483	6
	39	13	125.558	8296.568	-17100.37	1	19006.73	-64.11878	4.230922E-010	0.0044413	6
	40	14	100.4464	9358.512	-20726.25	1	22741.14	-65.69942	3.54393E-010	0.004448	6
	41	14	79.00281	10910.11	-25430.37	1	27671.9	-66.77975	-2.830301E-010	0.004445	6
	42	14	63.3446	12936.14	-30939.04	1	33534.57	-67.30936	7.02667E-010	0.0044377	6
	43	15	49.86702	15544.79	-37575.61	1	40664.08	-67.52544	5.481941E-010	0.0044347	6
	44	15	39.72458	18890.89	-44840.16	1	48657.02	-67.1546	2.964048E-010	0.0044339	6
	45	15	31.6723	23311.64	-53481.19	1	58340.98	-66.44834	-1.115466E-009	0.0044439	6
	46	16	24.93351	29025.59	-63743.74	1	70041.05	-65.51794	1.034272E-009	0.0044298	6
	47	16	19.86229	35814.93	-74911.24	1	83032.54	-64.44762	7.556236E-010	0.0044542	6
	48	16	15.83615	44553.88	-88548.34	1	99125.5	-63.29034	-2.164281E-009	0.0044463	6
	49	16	12.40079	55083.67	-102456.5	1	116325.1	-61.73619	1.093341E-009	0.004453	5
	50	17	9.93114	66530.73	-117529.7	1	135053.9	-60.48684	-4.741593E-010	0.0044401	5
	51	17	7.944915	79872.15	-133840.7	1	155861.8	-59.1725	-1.222201E-009	0.004451	5
	52	18	6.317385	95631.1	-152676.7	1	180154	-57.93846	-6.652087E-010	0.0044565	5
	53	19	5.008013	113288.4	-173976.4	1	207610.3	-56.929	-3.388293E-010	0.0044404	5
	54	20	3.945707	132526.9	-198332.7	1	238535.7	-56.24895	-2.461584E-011	0.0044441	5
	55	21	3.158693	152358.4	-224652.4	1	271443.9	-55.85502	2.291408E-010	0.0044668	5
	56	23	2.504006	174814.1	-256578.7	1	310471.5	-55.73232	-1.640887E-011	0.0044563	5
	57	24	1.998082	197907.2	-293477.1	1	353971.8	-56.00612	-3.503776E-011	0.0044314	5
	58	26	1.584686	225073.1	-337902.7	1	406000.1	-56.33287	1.588658E-010	0.004478	5
	59	28	1.266892	255084	-390822	1	466700.9	-56.86808	1.838783E-010	0.0044895	5
	60	30	0.999041	290941.4	-457907.7	1	542518.6	-57.5693	2.009037E-010	0.0044861	5
