EXPLAIN
TAG	EISPOT
TITLE	LABEL	Potentiostatic EIS	Test &Identifier
DATE	LABEL	11/3/2019	Date
TIME	LABEL	11:50:13	Time
NOTES	NOTES	1	&Notes...
	
PSTAT	PSTAT	REF600-11020	Potentiostat
VDC	POTEN	0.00000E+000	T	DC &Voltage (V)
FREQINIT	QUANT	1.00000E+006	Initial Fre&q. (Hz)
FREQFINAL	QUANT	1.00000E+000	Final Fre&q. (Hz)
PTSPERDEC	QUANT	1.00000E+001	Points/&decade
VAC	QUANT	2.50000E+001	AC &Voltage (mV rms)
AREA	QUANT	1.00000E-002	&Area (cm^2)
CONDIT	TWOPARAM	T	5.00000E+000	0.00000E+000	Conditionin&g	Time(s)	E(V)
DELAY	TWOPARAM	T	5.00000E+000	0.00000E+000	Init. De&lay	Time(s)	Stab.(mV/s)
SPEED	SELECTOR	1	&Optimize for:
ZGUESS	QUANT	1.00000E+005	E&stimated Z (ohms)
OCVCURVE	TABLE	19
	Pt	T	Vf	Vm	Ach	Over
	#	s	V vs. Ref.	V	V	bits
	0	0.258333	6.76893E-003	6.76893E-003	5.57366E-004	...........
	1	0.516667	6.77586E-003	7.13152E-003	5.65466E-004	...........
	2	0.775	6.81682E-003	7.39290E-003	5.60466E-004	...........
	3	1.03333	6.92226E-003	7.37096E-003	5.58332E-004	...........
	4	1.29167	7.07911E-003	7.40535E-003	5.60399E-004	...........
	5	1.55	7.23273E-003	7.47668E-003	5.60799E-004	...........
	6	1.80833	7.34588E-003	7.57892E-003	5.60432E-004	...........
	7	2.06667	7.42571E-003	7.66223E-003	5.54099E-004	...........
	8	2.325	7.49658E-003	7.74707E-003	5.67166E-004	...........
	9	2.58333	7.57234E-003	7.82691E-003	5.63699E-004	...........
	10	2.84167	7.65346E-003	7.89413E-003	5.61832E-004	...........
	11	3.1	7.73492E-003	7.94948E-003	5.66832E-004	...........
	12	3.35833	7.81165E-003	8.00566E-003	5.67532E-004	...........
	13	3.61667	7.88096E-003	8.05877E-003	5.64632E-004	...........
	14	3.875	7.94304E-003	8.10632E-003	5.65899E-004	...........
	15	4.13333	7.99815E-003	8.07942E-003	5.66432E-004	...........
	16	4.39167	8.04169E-003	8.04073E-003	5.61899E-004	...........
	17	4.65	8.06590E-003	8.05157E-003	5.59066E-004	...........
	18	4.90833	8.07059E-003	8.08464E-003	5.62432E-004	...........
EOC	QUANT	0.0080706	Open Circuit (V)
PSTATMODEL	IQUANT	4	Pstat Model
PSTATSECTION	LABEL	REF600-11020	Pstat Section
PSTATSERIALNO	LABEL	11020	Pstat Serial Number
CTRLMODE	IQUANT	1	Control Mode
IESTAB	IQUANT	0	I/E Stability
CASPEED	IQUANT	1	Control Amp Speed
CONVENTION	IQUANT	1	Current Convention
ICHRANGE	IQUANT	2	Ich Range
ICHRANGEMODE	TOGGLE	F	Ich Auto Range
ICHOFFSETENABLE	TOGGLE	T	Ich Offset Enable
ICHOFFSET	QUANT	0	Ich Offset (V)
ICHFILTER	IQUANT	3	Ich Filter
VCHRANGE	IQUANT	2	Vch Range
VCHRANGEMODE	TOGGLE	F	Vch Auto Range
VCHOFFSETENABLE	TOGGLE	T	Vch Offset Enable
VCHOFFSET	QUANT	0	Vch Offset (V)
VCHFILTER	IQUANT	3	Vch Filter
ACHRANGE	IQUANT	2	Ach Range
ACHOFFSETENABLE	TOGGLE	F	Ach Offset Enable
ACHOFFSET	QUANT	0	Ach Offset (V)
ACHFILTER	IQUANT	3	Ach Filter
IERANGELOWERLIMIT	IQUANT	1	I/E Range Lower Limit
IERANGEMODE	TOGGLE	F	I/E AutoRange
IERANGE	IQUANT	5	I/E Range
POSFEEDENABLE	TOGGLE	F	Positive Feedback IR Comp
POSFEEDRESISTANCE	QUANT	0	Positive Feedback Resistance (ohm)
ACHSELECT	IQUANT	0	Ach Select
CABLEID	IQUANT	14	Cable ID
DCCALDATE	LABEL	8/19/2019	DC Calibration Date
ACCALDATE	LABEL	8/19/2019	AC Calibration Date
THERMOSELECT	IQUANT	1	Thermo Select
FRAMEWORKVERSION	QUANT	6.33	Framework Version
INSTRUMENTVERSION	LABEL	3.50	Instrument Version
ZCURVE	TABLE
	Pt	Time	Freq	Zreal	Zimag	Zsig	Zmod	Zphz	Idc	Vdc	IERange
	#	s	Hz	ohm	ohm	V	ohm	°	A	V	#
	0	1	1000078	1875.079	-1557.439	1	2437.527	-39.71299	-3.040653E-006	0.0098352	8
	1	2	794390.6	2161.054	-1567.587	1	2669.735	-35.95641	8.986732E-006	0.0083844	8
	2	4	630984.4	2458.686	-1571.39	1	2917.945	-32.58337	-3.707976E-006	0.010208	8
	3	5	501234.4	2745.876	-1534.096	1	3145.36	-29.1917	7.16815E-006	0.0083817	8
	4	6	398109.4	3026.676	-1473.853	1	3366.454	-25.96396	1.290514E-006	0.0098788	8
	5	8	316265.6	3281.717	-1380.594	1	3560.296	-22.81612	-6.298062E-006	0.0104445	8
	6	9	251203.1	3505.242	-1268.887	1	3727.841	-19.9001	9.352173E-007	0.0099163	8
	7	10	199546.9	3701.534	-1137.319	1	3872.319	-17.0799	6.911887E-007	0.0099089	8
	8	12	158578.1	3840.995	-1033.712	1	3977.663	-15.0629	-5.479773E-008	0.0092093	8
	9	13	125953.1	4030.115	-847.0687	1	4118.173	-11.86992	2.177642E-006	0.009377	7
	10	15	100078.1	4092.52	-728.0411	1	4156.773	-10.08714	-7.742891E-007	0.0093652	7
	11	16	79453.13	4158.597	-642.5646	1	4207.947	-8.783581	-1.261618E-006	0.0106288	7
	12	17	63140.62	4219.049	-575.374	1	4258.102	-7.76582	-1.092886E-006	0.0100506	7
	13	19	50203.12	4283.31	-525.3185	1	4315.403	-6.992016	1.116481E-006	0.0079467	7
	14	20	39890.62	4307.843	-483.582	1	4334.901	-6.40499	-1.264528E-006	0.0110017	7
	15	21	31640.63	4360.761	-463.4698	1	4385.321	-6.066728	8.744184E-007	0.0092214	7
	16	23	25171.88	4395.899	-451.6354	1	4419.039	-5.865996	1.116912E-006	0.0079471	7
	17	24	20015.62	4416.167	-458.9478	1	4439.95	-5.933136	-2.791982E-007	0.0108654	7
	18	25	15890.62	4454.111	-471.9267	1	4479.042	-6.048099	4.23757E-007	0.0100085	7
	19	27	12609.37	4490.697	-504.3542	1	4518.93	-6.408087	8.78011E-007	0.0092168	7
	20	28	10078.13	4516.814	-543.3339	1	4549.376	-6.859232	-1.261005E-006	0.0106232	7
	21	29	8015.625	4553.882	-614.426	1	4595.146	-7.684146	1.141703E-006	0.0082704	7
	22	31	6328.125	4580.315	-705.0096	1	4634.255	-8.750388	-2.788404E-007	0.0108618	7
	23	32	5015.625	4611.598	-816.6643	1	4683.351	-10.04235	-1.0941E-006	0.0100468	7
	24	33	3984.375	4657.977	-958.792	1	4755.632	-11.63124	-7.719669E-007	0.0093478	7
	25	35	3170.956	4723.883	-1142.851	1	4860.162	-13.60027	1.14143E-006	0.0082675	7
	26	36	2527.573	4779.534	-1359.995	1	4969.259	-15.88347	1.140245E-006	0.0082726	7
	27	37	1976.103	4835.931	-1648.88	1	5109.308	-18.82755	-9.097154E-007	0.0112061	7
	28	39	1577.524	4923.629	-1986.121	1	5309.125	-21.96844	-7.716044E-007	0.009345	7
	29	40	1265.625	5008.922	-2392.549	1	5551	-25.53182	8.761248E-007	0.009209	7
	30	41	998.264	5111.335	-2914.29	1	5883.777	-29.69015	7.836355E-007	0.0076481	7
	31	43	796.875	5226.273	-3527.991	1	6305.605	-34.02129	-2.794905E-007	0.0108534	7
	32	44	627.7902	5382.842	-4345.947	1	6918.254	-38.91637	7.844637E-007	0.0076399	7
	33	46	505.5147	5544.745	-5228.065	1	7620.817	-43.31621	-9.093279E-007	0.0112016	7
	34	47	397.9953	5765.562	-6469.326	1	8665.673	-48.29209	3.910794E-009	0.0094971	7
	35	48	315.5048	6036.055	-7948.739	1	9980.8	-52.78796	2.808423E-009	0.0095009	7
	36	50	252.4038	6365.704	-9693.6	1	11596.9	-56.70743	1.474285E-009	0.0094324	6
	37	51	198.6229	6810.389	-12002.63	1	13800.17	-60.42908	1.317677E-009	0.0094338	6
	38	53	158.3615	7353.941	-14687.34	1	16425.54	-63.4029	1.484684E-009	0.0094305	6
	39	54	125.558	8075.57	-18063.59	1	19786.56	-65.91233	1.258094E-009	0.0094359	6
	40	55	100.4464	8965.98	-22041.93	1	23795.71	-67.86502	1.109171E-009	0.0094303	6
	41	57	79.00281	10268.64	-27153.33	1	29030.12	-69.28477	5.970298E-010	0.0094277	6
	42	58	63.3446	11479.5	-32903.41	1	34848.43	-70.76689	5.010793E-010	0.0094277	6
	43	59	49.86702	14167.25	-40529.52	1	42934.28	-70.73273	3.153534E-010	0.0094382	6
	44	61	39.72458	16748.43	-49403.76	1	52165.52	-71.27276	1.307276E-009	0.0094351	6
	45	62	31.6723	20313.68	-59730.25	1	63090	-71.21732	5.845275E-010	0.0094454	6
	46	64	24.93351	25206.57	-73022.63	1	77250.73	-70.95591	-2.371288E-010	0.0094414	6
	47	65	19.86229	31500.49	-87866.88	1	93342.75	-70.27712	1.059958E-009	0.0094429	6
	48	66	15.83615	38954.32	-104924.9	1	111922.7	-69.63211	4.940228E-010	0.0094313	5
	49	68	12.40079	51097.45	-126557.7	1	136483.7	-68.0137	-7.138375E-010	0.0094446	5
	50	69	9.93114	63939.49	-149641.2	1	162729.1	-66.8637	-2.609042E-010	0.0094307	5
	51	71	7.944915	79517.71	-174389.6	1	191663.2	-65.48809	1.283773E-009	0.0094367	5
	52	72	6.317385	100958.4	-203876.6	1	227504.5	-63.65567	6.954945E-010	0.0094361	5
	53	74	5.008013	126272.7	-236295.5	1	267918.6	-61.88063	3.711787E-010	0.009443	5
	54	77	3.945707	156886	-272329.6	1	314287.5	-60.05423	-1.877741E-010	0.0094254	5
	55	79	3.158693	189487.7	-308496.1	1	362043.4	-58.44049	2.648226E-010	0.0094426	5
	56	83	2.504006	227424.1	-349159.6	1	416694.3	-56.9219	-1.940115E-010	0.0094384	5
	57	85	1.998082	266131.3	-391482.1	1	473375.2	-55.79196	2.250821E-010	0.0093938	5
	58	89	1.584686	309024.4	-442450	1	539683.3	-55.06804	-9.785837E-011	0.0094094	5
	59	92	1.266892	352171.1	-496232.7	1	608499.3	-54.63708	1.177239E-010	0.0093982	5
	60	97	0.999041	400721.3	-566162.6	1	693626.5	-54.70972	-1.058295E-010	0.0094564	5
