EXPLAIN
TAG	EISPOT
TITLE	LABEL	Potentiostatic IDE	Test &Identifier
DATE	LABEL	9/18/2019	Date
TIME	LABEL	8:51:30	Time
NOTES	NOTES	1	&Notes...
	
PSTAT	PSTAT	REF600-11020	Potentiostat
VDC	POTEN	0.00000E+000	T	DC &Voltage (V)
FREQINIT	QUANT	1.00000E+006	Initial Fre&q. (Hz)
FREQFINAL	QUANT	1.00000E+000	Final Fre&q. (Hz)
PTSPERDEC	QUANT	1.00000E+001	Points/&decade
VAC	QUANT	2.50000E+001	AC &Voltage (mV rms)
AREA	QUANT	1.00000E-002	&Area (cm^2)
CONDIT	TWOPARAM	T	5.00000E+000	0.00000E+000	Conditionin&g	Time(s)	E(V)
DELAY	TWOPARAM	T	5.00000E+000	0.00000E+000	Init. De&lay	Time(s)	Stab.(mV/s)
SPEED	SELECTOR	1	&Optimize for:
ZGUESS	QUANT	1.00000E+007	E&stimated Z (ohms)
OCVCURVE	TABLE	18
	Pt	T	Vf	Vm	Ach	Over
	#	s	V vs. Ref.	V	V	bits
	0	0.258333	3.03984E-003	3.03984E-003	6.39331E-004	...........
	1	0.516667	3.03516E-003	2.79478E-003	6.42464E-004	...........
	2	0.775	3.00673E-003	2.57913E-003	6.34565E-004	...........
	3	1.03333	2.92752E-003	2.38039E-003	6.35398E-004	...........
	4	1.29167	2.78876E-003	2.20203E-003	6.39331E-004	...........
	5	1.55	2.60940E-003	2.03659E-003	6.37231E-004	...........
	6	1.80833	2.41738E-003	1.88071E-003	6.35831E-004	...........
	7	2.06667	2.23176E-003	1.73955E-003	6.37931E-004	...........
	8	2.325	2.05974E-003	1.59933E-003	6.34898E-004	...........
	9	2.58333	1.90118E-003	1.46023E-003	6.41698E-004	...........
	10	2.84167	1.75261E-003	1.31697E-003	6.39931E-004	...........
	11	3.1	1.60996E-003	1.19253E-003	6.34431E-004	...........
	12	3.35833	1.47097E-003	1.06667E-003	6.34531E-004	...........
	13	3.61667	1.33604E-003	9.59381E-004	6.41398E-004	...........
	14	3.875	1.20725E-003	8.63574E-004	6.37931E-004	...........
	15	4.13333	1.08693E-003	7.70042E-004	6.36165E-004	...........
	16	4.39167	9.76176E-004	6.74146E-004	6.32931E-004	...........
	17	4.65	8.73671E-004	5.81272E-004	6.33498E-004	...........
EOC	QUANT	0.0007765	Open Circuit (V)
PSTATMODEL	IQUANT	4	Pstat Model
PSTATSECTION	LABEL	REF600-11020	Pstat Section
PSTATSERIALNO	LABEL	11020	Pstat Serial Number
CTRLMODE	IQUANT	1	Control Mode
IESTAB	IQUANT	0	I/E Stability
CASPEED	IQUANT	1	Control Amp Speed
CONVENTION	IQUANT	1	Current Convention
ICHRANGE	IQUANT	2	Ich Range
ICHRANGEMODE	TOGGLE	F	Ich Auto Range
ICHOFFSETENABLE	TOGGLE	T	Ich Offset Enable
ICHOFFSET	QUANT	0	Ich Offset (V)
ICHFILTER	IQUANT	3	Ich Filter
VCHRANGE	IQUANT	2	Vch Range
VCHRANGEMODE	TOGGLE	F	Vch Auto Range
VCHOFFSETENABLE	TOGGLE	T	Vch Offset Enable
VCHOFFSET	QUANT	0	Vch Offset (V)
VCHFILTER	IQUANT	3	Vch Filter
ACHRANGE	IQUANT	2	Ach Range
ACHOFFSETENABLE	TOGGLE	F	Ach Offset Enable
ACHOFFSET	QUANT	0	Ach Offset (V)
ACHFILTER	IQUANT	3	Ach Filter
IERANGELOWERLIMIT	IQUANT	1	I/E Range Lower Limit
IERANGEMODE	TOGGLE	F	I/E AutoRange
IERANGE	IQUANT	2	I/E Range
POSFEEDENABLE	TOGGLE	F	Positive Feedback IR Comp
POSFEEDRESISTANCE	QUANT	0	Positive Feedback Resistance (ohm)
ACHSELECT	IQUANT	0	Ach Select
CABLEID	IQUANT	14	Cable ID
DCCALDATE	LABEL	8/19/2019	DC Calibration Date
ACCALDATE	LABEL	8/19/2019	AC Calibration Date
THERMOSELECT	IQUANT	1	Thermo Select
FRAMEWORKVERSION	QUANT	6.33	Framework Version
INSTRUMENTVERSION	LABEL	3.50	Instrument Version
ZCURVE	TABLE
	Pt	Time	Freq	Zreal	Zimag	Zsig	Zmod	Zphz	Idc	Vdc	IERange
	#	s	Hz	ohm	ohm	V	ohm	°	A	V	#
	0	2	1000078	2224.053	-1594.551	1	2736.605	-35.63891	2.271596E-006	0.0030443	8
	1	3	794390.6	2543.221	-1501.157	1	2953.209	-30.55157	5.228725E-007	0.0025051	8
	2	5	630984.4	2819.064	-1369.291	1	3134.02	-25.90702	2.23139E-007	0.0024213	8
	3	6	501234.4	3044.884	-1229.405	1	3283.71	-21.98693	-3.17458E-008	0.0024644	8
	4	7	398109.4	3223.48	-1051.529	1	3390.655	-18.06681	-1.054968E-006	0.0026378	8
	5	9	316265.6	3332.614	-908.7155	1	3454.284	-15.25225	-2.441363E-006	0.0029508	8
	6	10	251203.1	3449.55	-774.9894	1	3535.534	-12.66206	-4.267999E-007	0.002499	8
	7	11	199546.9	3523.64	-660.1188	1	3584.94	-10.6108	-6.454829E-007	0.0025044	8
	8	13	158578.1	3566.345	-574.1823	1	3612.271	-9.146146	6.436185E-007	0.0022286	8
	9	14	125953.1	3625.786	-476.2931	1	3656.936	-7.483679	-7.437369E-008	0.0024527	7
	10	15	100078.1	3652.968	-423.0203	1	3677.38	-6.605533	-3.46376E-009	0.0023771	7
	11	17	79453.13	3685.299	-389.5624	1	3705.832	-6.034163	-2.895164E-008	0.0023479	7
	12	18	63140.62	3714.425	-366.614	1	3732.473	-5.63684	-2.011288E-008	0.0023515	7
	13	19	50203.12	3743.741	-352.0789	1	3760.26	-5.372561	1.874393E-008	0.0022439	7
	14	21	39890.62	3769.106	-348.2669	1	3785.162	-5.279162	-3.893552E-012	0.0023294	7
	15	22	31640.63	3800.102	-351.5674	1	3816.33	-5.285687	7.825832E-008	0.0021836	7
	16	23	25171.88	3828.662	-363.9232	1	3845.919	-5.429784	-2.399156E-008	0.0023865	7
	17	25	20015.62	3858.406	-384.9478	1	3877.561	-5.697467	-2.451666E-008	0.0023418	7
	18	26	15890.62	3885.433	-416.4306	1	3907.685	-6.11746	2.078954E-008	0.002239	7
	19	27	12609.37	3919.96	-460.8315	1	3946.955	-6.704931	-1.932377E-008	0.0023375	7
	20	29	10078.13	3950.525	-515.4512	1	3984.01	-7.433765	-2.713419E-008	0.002335	7
	21	30	8015.625	3985.455	-587.5101	1	4028.525	-8.385781	1.234151E-008	0.0023374	7
	22	31	6328.125	4024.74	-682.1694	1	4082.143	-9.61987	1.721093E-008	0.0023405	7
	23	33	5015.625	4066.593	-798.958	1	4144.335	-11.11525	-2.796552E-008	0.0023724	7
	24	34	3984.375	4112.675	-943.4408	1	4219.5	-12.92002	-3.129101E-008	0.0023378	7
	25	35	3170.956	4163.683	-1120.267	1	4311.758	-15.05919	1.279628E-008	0.0023378	7
	26	37	2527.573	4223.478	-1336.533	1	4429.908	-17.56014	-1.929404E-008	0.0023885	7
	27	38	1976.103	4298.69	-1627.003	1	4596.29	-20.73105	3.366855E-009	0.0023472	7
	28	39	1577.524	4382.145	-1954.829	1	4798.39	-24.04115	-2.114118E-008	0.002382	7
	29	41	1265.625	4476.31	-2334.39	1	5048.438	-27.54199	-1.965346E-008	0.0023347	7
	30	42	998.264	4600.284	-2852.876	1	5413.087	-31.80521	-1.268319E-009	0.0023241	7
	31	43	796.875	4737.674	-3442.224	1	5856.148	-36.00081	2.157245E-008	0.00223	7
	32	45	627.7902	4910.002	-4208.178	1	6466.598	-40.59863	-4.263539E-009	0.0022728	7
	33	46	505.5147	5090.239	-5055.495	1	7174.159	-44.80379	2.828182E-009	0.0023543	7
	34	47	397.9953	5325.483	-6200.739	1	8173.734	-49.34248	7.020421E-009	0.0023341	7
	35	49	315.5048	5596.777	-7573.756	1	9417.309	-53.53672	6.650839E-009	0.0023367	7
	36	50	252.4038	5908.262	-9194.213	1	10928.91	-57.27493	1.623135E-009	0.0022685	6
	37	51	198.6229	6313.614	-11345.17	1	12983.63	-60.90397	1.24714E-009	0.0022657	6
	38	53	158.3615	6789.638	-13856.65	1	15430.69	-63.89555	1.40165E-009	0.0022658	6
	39	54	125.558	7407.493	-17026.97	1	18568.49	-66.48881	1.283789E-009	0.0022655	6
	40	55	100.4464	8177.668	-20769.6	1	22321.52	-68.50882	5.443733E-010	0.0022615	6
	41	57	79.00281	9199.333	-25718.86	1	27314.6	-70.31847	7.960136E-010	0.0022655	6
	42	58	63.3446	10689.53	-31282.46	1	33058.41	-71.13419	9.670755E-010	0.002263	6
	43	59	49.86702	12201.13	-38718.08	1	40595.04	-72.50893	1.471362E-009	0.0022644	6
	44	61	39.72458	14643.73	-47107.7	1	49331.27	-72.73181	1.470577E-009	0.0022662	6
	45	62	31.6723	17517.89	-57345.45	1	59961.47	-73.01313	1.217197E-009	0.0022646	6
	46	63	24.93351	21768.37	-70341.43	1	73632.73	-72.80441	1.030877E-009	0.0022638	6
	47	65	19.86229	27062.65	-85137.28	1	89335.01	-72.36607	1.266039E-009	0.0022704	6
	48	66	15.83615	33492.6	-102984.9	1	108294.3	-71.98452	-8.919918E-011	0.0022658	5
	49	67	12.40079	42861.99	-124323.6	1	131504.7	-70.97778	1.28408E-010	0.0022696	5
	50	69	9.93114	54039.72	-148760	1	158271.4	-70.03555	9.420564E-010	0.0022675	5
	51	70	7.944915	68057.84	-176471.1	1	189140	-68.91037	4.717997E-010	0.0022721	5
	52	72	6.317385	85900.14	-209483.9	1	226411.9	-67.70362	3.543705E-010	0.0022905	5
	53	74	5.008013	108658	-247139.7	1	269971.4	-66.26672	7.281047E-010	0.0022825	5
	54	76	3.945707	137850.1	-292035	1	322935.1	-64.73115	1.371617E-010	0.0022679	5
	55	79	3.158693	171483.3	-338163.1	1	379158	-63.11032	3.540017E-010	0.0022661	5
	56	82	2.504006	213032.2	-391414.6	1	445632.3	-61.44221	2.194995E-010	0.0022811	5
	57	85	1.998082	259536.2	-446814.5	1	516722.6	-59.84946	6.891286E-010	0.0022684	5
	58	88	1.584686	317653.8	-510714.1	1	601442.3	-58.11923	1.594505E-010	0.0022216	5
	59	92	1.266892	377663	-574097.5	1	687180.7	-56.66158	5.500367E-010	0.0022643	5
	60	96	0.999041	451526.5	-652652	1	793618.8	-55.32322	-6.848929E-011	0.0022684	5
