EXPLAIN
TAG	EISPOT
TITLE	LABEL	Potentiostatic EIS	Test &Identifier
DATE	LABEL	9/22/2019	Date
TIME	LABEL	8:59:37	Time
NOTES	NOTES	1	&Notes...
	
PSTAT	PSTAT	REF600-11020	Potentiostat
VDC	POTEN	0.00000E+000	T	DC &Voltage (V)
FREQINIT	QUANT	1.00000E+006	Initial Fre&q. (Hz)
FREQFINAL	QUANT	1.00000E+000	Final Fre&q. (Hz)
PTSPERDEC	QUANT	1.00000E+001	Points/&decade
VAC	QUANT	2.50000E+001	AC &Voltage (mV rms)
AREA	QUANT	1.00000E-002	&Area (cm^2)
CONDIT	TWOPARAM	T	5.00000E+000	0.00000E+000	Conditionin&g	Time(s)	E(V)
DELAY	TWOPARAM	T	5.00000E+000	0.00000E+000	Init. De&lay	Time(s)	Stab.(mV/s)
SPEED	SELECTOR	1	&Optimize for:
ZGUESS	QUANT	1.00000E+004	E&stimated Z (ohms)
OCVCURVE	TABLE	19
	Pt	T	Vf	Vm	Ach	Over
	#	s	V vs. Ref.	V	V	bits
	0	0.258333	-3.07345E-004	-3.07345E-004	5.69832E-004	...........
	1	0.516667	-3.10905E-004	-4.93695E-004	5.78132E-004	...........
	2	0.775	-3.32380E-004	-6.50192E-004	5.70932E-004	...........
	3	1.03333	-3.91827E-004	-7.98955E-004	5.72866E-004	...........
	4	1.29167	-4.95379E-004	-9.30718E-004	5.70599E-004	...........
	5	1.55	-6.28601E-004	-1.04663E-003	5.75432E-004	...........
	6	1.80833	-7.70177E-004	-1.15089E-003	5.75132E-004	...........
	7	2.06667	-9.05088E-004	-1.25143E-003	5.70766E-004	...........
	8	2.325	-1.02770E-003	-1.35049E-003	5.72499E-004	...........
	9	2.58333	-1.13884E-003	-1.43613E-003	5.69299E-004	...........
	10	2.84167	-1.24100E-003	-1.50752E-003	5.74932E-004	...........
	11	3.1	-1.33507E-003	-1.57787E-003	5.72532E-004	...........
	12	3.35833	-1.42070E-003	-1.64111E-003	5.76866E-004	...........
	13	3.61667	-1.49824E-003	-1.70594E-003	5.71799E-004	...........
	14	3.875	-1.56924E-003	-1.76449E-003	5.74266E-004	...........
	15	4.13333	-1.63552E-003	-1.82109E-003	5.67032E-004	...........
	16	4.39167	-1.69815E-003	-1.87031E-003	5.71132E-004	...........
	17	4.65	-1.75745E-003	-1.92615E-003	5.74699E-004	...........
	18	4.90833	-1.81367E-003	-1.97314E-003	5.76032E-004	...........
EOC	QUANT	-0.0018137	Open Circuit (V)
PSTATMODEL	IQUANT	4	Pstat Model
PSTATSECTION	LABEL	REF600-11020	Pstat Section
PSTATSERIALNO	LABEL	11020	Pstat Serial Number
CTRLMODE	IQUANT	1	Control Mode
IESTAB	IQUANT	0	I/E Stability
CASPEED	IQUANT	1	Control Amp Speed
CONVENTION	IQUANT	1	Current Convention
ICHRANGE	IQUANT	2	Ich Range
ICHRANGEMODE	TOGGLE	F	Ich Auto Range
ICHOFFSETENABLE	TOGGLE	T	Ich Offset Enable
ICHOFFSET	QUANT	0	Ich Offset (V)
ICHFILTER	IQUANT	3	Ich Filter
VCHRANGE	IQUANT	2	Vch Range
VCHRANGEMODE	TOGGLE	F	Vch Auto Range
VCHOFFSETENABLE	TOGGLE	T	Vch Offset Enable
VCHOFFSET	QUANT	0	Vch Offset (V)
VCHFILTER	IQUANT	3	Vch Filter
ACHRANGE	IQUANT	2	Ach Range
ACHOFFSETENABLE	TOGGLE	F	Ach Offset Enable
ACHOFFSET	QUANT	0	Ach Offset (V)
ACHFILTER	IQUANT	3	Ach Filter
IERANGELOWERLIMIT	IQUANT	1	I/E Range Lower Limit
IERANGEMODE	TOGGLE	F	I/E AutoRange
IERANGE	IQUANT	5	I/E Range
POSFEEDENABLE	TOGGLE	F	Positive Feedback IR Comp
POSFEEDRESISTANCE	QUANT	0	Positive Feedback Resistance (ohm)
ACHSELECT	IQUANT	0	Ach Select
CABLEID	IQUANT	14	Cable ID
DCCALDATE	LABEL	8/19/2019	DC Calibration Date
ACCALDATE	LABEL	8/19/2019	AC Calibration Date
THERMOSELECT	IQUANT	1	Thermo Select
FRAMEWORKVERSION	QUANT	6.33	Framework Version
INSTRUMENTVERSION	LABEL	3.50	Instrument Version
ZCURVE	TABLE
	Pt	Time	Freq	Zreal	Zimag	Zsig	Zmod	Zphz	Idc	Vdc	IERange
	#	s	Hz	ohm	ohm	V	ohm	°	A	V	#
	0	1	1000078	2151.296	-1333.768	1	2531.208	-31.79823	1.46432E-006	0.0004951	8
	1	3	794390.6	2405.403	-1256.329	1	2713.729	-27.57781	-7.642712E-007	0.0001807	8
	2	4	630984.4	2621.294	-1154.396	1	2864.23	-23.7683	-1.941475E-006	0.0004999	8
	3	5	501234.4	2793.876	-1046.621	1	2983.481	-20.53657	6.114061E-008	-6.3254E-005	8
	4	7	398109.4	2964.489	-931.9944	1	3107.541	-17.45243	3.042439E-006	-0.0007595	8
	5	8	316265.6	3074.989	-823.0688	1	3183.238	-14.98484	3.563899E-007	-0.000239	8
	6	9	251203.1	3163.172	-722.976	1	3244.742	-12.8744	-3.867329E-006	0.0007507	8
	7	11	199546.9	3244.802	-617.3113	1	3303.001	-10.77158	4.386527E-006	-0.000971	8
	8	12	158578.1	3296.147	-565.7513	1	3344.347	-9.73936	6.575979E-007	-0.0004795	8
	9	14	125953.1	3367.378	-466.2443	1	3399.502	-7.883005	2.304897E-007	-0.0009412	7
	10	15	100078.1	3407.289	-422.8401	1	3433.426	-7.074163	-4.02485E-008	-0.0001289	7
	11	16	79453.13	3443.548	-401.0754	1	3466.826	-6.643396	6.720994E-008	-0.0003319	7
	12	18	63140.62	3480.79	-387.799	1	3502.326	-6.357175	-4.463657E-008	-0.000161	7
	13	19	50203.12	3515.858	-384.0608	1	3536.773	-6.234084	-3.915372E-009	-0.0002678	7
	14	20	39890.62	3553.778	-387.1235	1	3574.801	-6.216886	7.598769E-008	-0.0002612	7
	15	22	31640.63	3591.077	-400.1421	1	3613.302	-6.358055	-4.611643E-008	-0.0001826	7
	16	23	25171.88	3630.137	-421.9583	1	3654.579	-6.630167	1.214548E-007	-0.0004015	7
	17	24	20015.62	3671.563	-452.2348	1	3699.309	-7.021885	4.173457E-008	-0.0003581	7
	18	26	15890.62	3716.009	-492.4662	1	3748.499	-7.549166	6.746775E-008	-0.0003383	7
	19	27	12609.37	3766.236	-543.098	1	3805.193	-8.205589	-4.392028E-009	-0.0002728	7
	20	28	10078.13	3816.704	-603.1145	1	3864.063	-8.979612	6.867732E-008	-0.0003403	7
	21	30	8015.625	3874.034	-677.6191	1	3932.85	-9.92141	4.190335E-008	-0.0003554	7
	22	31	6328.125	3938.021	-771.1998	1	4012.825	-11.08025	-2.990484E-008	-0.0002138	7
	23	32	5015.625	4006.329	-882.8265	1	4102.445	-12.42698	-4.93466E-008	-6.46558E-005	7
	24	34	3984.375	4079.74	-1016.075	1	4204.365	-13.98522	-4.427403E-008	-0.0001719	7
	25	35	3170.956	4159.035	-1175.224	1	4321.889	-15.77877	-2.393324E-009	-0.0002777	7
	26	36	2527.573	4245.694	-1369.627	1	4461.143	-17.87929	-4.885435E-008	-7.097607E-005	7
	27	38	1976.103	4350.714	-1623.358	1	4643.706	-20.46178	4.252218E-008	-0.0003631	7
	28	39	1577.524	4454.714	-1911.437	1	4847.48	-23.2233	7.616272E-008	-0.0002605	7
	29	40	1265.625	4572.976	-2247.651	1	5095.493	-26.17445	-7.837796E-009	-0.000186	7
	30	42	998.264	4711.272	-2697.988	1	5429.109	-29.79833	1.240612E-007	-0.0004053	7
	31	43	796.875	4867.638	-3220.952	1	5836.816	-33.4929	-2.624587E-009	-0.0002733	7
	32	44	627.7902	5059.686	-3903.034	1	6390.157	-37.64654	3.585132E-008	-0.0002654	7
	33	46	505.5147	5265.824	-4658.572	1	7030.732	-41.49857	6.850055E-008	-0.000345	7
	34	47	397.9953	5555.773	-5685.6	1	7949.381	-45.66168	5.049858E-009	-0.0001975	7
	35	48	315.5048	5911.509	-6907.915	1	9092.042	-49.44445	5.33723E-009	-0.0001988	7
	36	50	252.4038	6352.937	-8332.521	1	10478.11	-52.67713	1.238904E-009	-0.0002568	6
	37	51	198.6229	6965.878	-10184.34	1	12338.73	-55.62867	8.736397E-010	-0.0002568	6
	38	52	158.3615	7723.945	-12290.49	1	14516.04	-57.85274	1.316371E-009	-0.0002607	6
	39	54	125.558	8734.42	-14857.21	1	17234.47	-59.54912	1.271805E-009	-0.0002631	6
	40	55	100.4464	10001.73	-17759.2	1	20381.95	-60.6124	8.823712E-010	-0.0002616	6
	41	56	79.00281	11701.93	-21423.66	1	24411.24	-61.35596	3.916703E-011	-0.0002638	6
	42	58	63.3446	13912.98	-25280.04	1	28855.7	-61.17362	-1.058771E-010	-0.0002621	6
	43	59	49.86702	16500.32	-30322.48	1	34521.2	-61.44667	8.00572E-010	-0.0002668	6
	44	60	39.72458	19820.34	-35452.87	1	40617.14	-60.79211	2.837089E-010	-0.0002657	6
	45	62	31.6723	23794.4	-41313.22	1	47675.52	-60.06015	6.901218E-010	-0.0002668	6
	46	63	24.93351	28982.89	-48354.66	1	56375.36	-59.06231	9.752016E-010	-0.0002662	6
	47	65	19.86229	34800.66	-55664.23	1	65647.48	-57.98684	1.678026E-009	-0.0002564	6
	48	66	15.83615	41561.63	-64133.79	1	76423.24	-57.05492	1.642022E-009	-0.0002663	6
	49	67	12.40079	50264.98	-73625.91	1	89147.88	-55.67834	1.329939E-009	-0.0002685	6
	50	69	9.93114	59506.75	-82742.73	1	101918.7	-54.27715	1.438292E-009	-0.0002653	5
	51	70	7.944915	69694.53	-93050.21	1	116256.9	-53.16682	-2.362373E-010	-0.0002589	5
	52	72	6.317385	81765.27	-104472.1	1	132664.9	-51.95142	9.723515E-013	-0.0002472	5
	53	74	5.008013	95399.3	-117056.2	1	151007.2	-50.82042	1.129806E-009	-0.0002571	5
	54	76	3.945707	110988	-131405.6	1	172005.1	-49.81486	-3.198186E-010	-0.0002709	5
	55	79	3.158693	127360.5	-145978.4	1	193727.6	-48.89656	8.770732E-010	-0.0002543	5
	56	82	2.504006	146180.6	-162661.2	1	218694.8	-48.05456	-3.534608E-010	-0.0002581	5
	57	85	1.998082	165204.9	-180213.5	1	244478.1	-47.48796	7.655856E-010	-0.0002994	5
	58	88	1.584686	187521.8	-201233.3	1	275062.3	-47.02	1.28546E-011	-0.0003113	5
	59	91	1.266892	209994	-223963.8	1	307013.4	-46.8438	7.954723E-010	-0.0002789	5
	60	96	0.999041	237054	-252380.3	1	346252	-46.79358	-3.338703E-010	-0.0002739	5
