EXPLAIN
TAG	EISPOT
TITLE	LABEL	Potentiostatic EIS	Test &Identifier
DATE	LABEL	11/7/2019	Date
TIME	LABEL	10:13:29	Time
NOTES	NOTES	2	&Notes...
	
	
PSTAT	PSTAT	REF600-11020	Potentiostat
VDC	POTEN	0.00000E+000	T	DC &Voltage (V)
FREQINIT	QUANT	1.00000E+006	Initial Fre&q. (Hz)
FREQFINAL	QUANT	1.00000E+000	Final Fre&q. (Hz)
PTSPERDEC	QUANT	1.00000E+001	Points/&decade
VAC	QUANT	2.50000E+001	AC &Voltage (mV rms)
AREA	QUANT	1.00000E-002	&Area (cm^2)
CONDIT	TWOPARAM	T	5.00000E+000	0.00000E+000	Conditionin&g	Time(s)	E(V)
DELAY	TWOPARAM	T	5.00000E+000	0.00000E+000	Init. De&lay	Time(s)	Stab.(mV/s)
SPEED	SELECTOR	1	&Optimize for:
ZGUESS	QUANT	1.00000E+005	E&stimated Z (ohms)
OCVCURVE	TABLE	19
	Pt	T	Vf	Vm	Ach	Over
	#	s	V vs. Ref.	V	V	bits
	0	0.258333	1.05093E-002	1.05093E-002	5.74232E-004	...........
	1	0.516667	1.04992E-002	9.98202E-003	5.67566E-004	...........
	2	0.775	1.04426E-002	9.75607E-003	5.70866E-004	...........
	3	1.03333	1.03050E-002	9.81071E-003	5.73832E-004	...........
	4	1.29167	1.01148E-002	9.84845E-003	5.66232E-004	...........
	5	1.55	9.94691E-003	9.68933E-003	5.71699E-004	...........
	6	1.80833	9.83869E-003	9.62970E-003	5.68832E-004	...........
	7	2.06667	9.76988E-003	9.63408E-003	5.66599E-004	...........
	8	2.325	9.71424E-003	9.59391E-003	5.71599E-004	...........
	9	2.58333	9.66802E-003	9.63720E-003	5.68766E-004	...........
	10	2.84167	9.63797E-003	9.66916E-003	5.70699E-004	...........
	11	3.1	9.62876E-003	9.68818E-003	5.66832E-004	...........
	12	3.35833	9.63834E-003	9.70022E-003	5.65766E-004	...........
	13	3.61667	9.65811E-003	9.71455E-003	5.71166E-004	...........
	14	3.875	9.67943E-003	9.73730E-003	5.66332E-004	...........
	15	4.13333	9.69875E-003	9.75057E-003	5.67166E-004	...........
	16	4.39167	9.71629E-003	9.75999E-003	5.66232E-004	...........
	17	4.65	9.73238E-003	9.77103E-003	5.63932E-004	...........
	18	4.90833	9.74688E-003	9.79382E-003	5.62999E-004	...........
EOC	QUANT	0.0097469	Open Circuit (V)
PSTATMODEL	IQUANT	4	Pstat Model
PSTATSECTION	LABEL	REF600-11020	Pstat Section
PSTATSERIALNO	LABEL	11020	Pstat Serial Number
CTRLMODE	IQUANT	1	Control Mode
IESTAB	IQUANT	0	I/E Stability
CASPEED	IQUANT	1	Control Amp Speed
CONVENTION	IQUANT	1	Current Convention
ICHRANGE	IQUANT	2	Ich Range
ICHRANGEMODE	TOGGLE	F	Ich Auto Range
ICHOFFSETENABLE	TOGGLE	T	Ich Offset Enable
ICHOFFSET	QUANT	0	Ich Offset (V)
ICHFILTER	IQUANT	3	Ich Filter
VCHRANGE	IQUANT	2	Vch Range
VCHRANGEMODE	TOGGLE	F	Vch Auto Range
VCHOFFSETENABLE	TOGGLE	T	Vch Offset Enable
VCHOFFSET	QUANT	0	Vch Offset (V)
VCHFILTER	IQUANT	3	Vch Filter
ACHRANGE	IQUANT	2	Ach Range
ACHOFFSETENABLE	TOGGLE	F	Ach Offset Enable
ACHOFFSET	QUANT	0	Ach Offset (V)
ACHFILTER	IQUANT	3	Ach Filter
IERANGELOWERLIMIT	IQUANT	1	I/E Range Lower Limit
IERANGEMODE	TOGGLE	F	I/E AutoRange
IERANGE	IQUANT	5	I/E Range
POSFEEDENABLE	TOGGLE	F	Positive Feedback IR Comp
POSFEEDRESISTANCE	QUANT	0	Positive Feedback Resistance (ohm)
ACHSELECT	IQUANT	0	Ach Select
CABLEID	IQUANT	14	Cable ID
DCCALDATE	LABEL	8/19/2019	DC Calibration Date
ACCALDATE	LABEL	8/19/2019	AC Calibration Date
THERMOSELECT	IQUANT	1	Thermo Select
FRAMEWORKVERSION	QUANT	6.33	Framework Version
INSTRUMENTVERSION	LABEL	3.50	Instrument Version
ZCURVE	TABLE
	Pt	Time	Freq	Zreal	Zimag	Zsig	Zmod	Zphz	Idc	Vdc	IERange
	#	s	Hz	ohm	ohm	V	ohm	°	A	V	#
	0	2	1000078	2449.604	-1905.403	1	3103.405	-37.87725	5.721989E-006	0.0119734	8
	1	3	794390.6	2807.084	-1841.49	1	3357.202	-33.26548	-5.770059E-006	0.0115536	8
	2	5	630984.4	3165.611	-1759.992	1	3621.97	-29.07284	-8.396541E-007	0.0112051	8
	3	6	501234.4	3469.036	-1640.982	1	3837.582	-25.31588	-1.004564E-006	0.011968	8
	4	8	398109.4	3742.865	-1505.716	1	4034.38	-21.91441	-9.953536E-007	0.0118676	8
	5	10	316265.6	3970.266	-1345.77	1	4192.148	-18.72471	8.096852E-006	0.0104516	8
	6	11	251203.1	4155.314	-1231.024	1	4333.827	-16.50208	6.750385E-006	0.0104336	8
	7	13	199546.9	4291.253	-1093.576	1	4428.404	-14.29686	-2.95441E-006	0.0111865	8
	8	14	158578.1	4375.17	-993.839	1	4486.628	-12.79782	-2.745322E-006	0.0111869	8
	9	16	125953.1	4535.868	-805.5516	1	4606.844	-10.0705	-1.845336E-006	0.0160611	7
	10	18	100078.1	4623.354	-717.5045	1	4678.698	-8.821437	-1.458968E-006	0.0125333	7
	11	19	79453.13	4693.965	-695.9005	1	4745.27	-8.43292	1.219451E-006	0.0104151	7
	12	20	63140.62	4750.983	-664.9931	1	4797.296	-7.967901	-8.581865E-007	0.0110132	7
	13	22	50203.12	4819.333	-654.6335	1	4863.591	-7.73542	6.752403E-008	0.0124344	7
	14	23	39890.62	4875.292	-649.704	1	4918.393	-7.590775	-1.248371E-006	0.0118349	7
	15	24	31640.63	4933.859	-666.4566	1	4978.667	-7.692846	-1.48165E-006	0.0129839	7
	16	26	25171.88	4999.706	-697.968	1	5048.19	-7.947233	-3.480951E-007	0.0101826	7
	17	27	20015.62	5071.604	-750.6187	1	5126.851	-8.418898	9.947425E-007	0.0110047	7
	18	28	15890.62	5131.781	-804.6407	1	5194.48	-8.911173	-1.478382E-006	0.0129723	7
	19	30	12609.37	5206.342	-885.5851	1	5281.123	-9.65347	-3.495312E-007	0.0101793	7
	20	31	10078.13	5325.165	-946.403	1	5408.609	-10.07754	1.60793E-007	0.0095644	7
	21	33	8015.625	5371.481	-1105.736	1	5484.11	-11.63203	-1.328296E-006	0.0131841	7
	22	34	6328.125	5494.019	-1262.802	1	5637.278	-12.94462	7.278999E-007	0.0115148	7
	23	35	5015.625	5614.177	-1443.222	1	5796.712	-14.41672	1.21914E-006	0.0104086	7
	24	37	3984.375	5741.18	-1659.649	1	5976.251	-16.12342	1.219822E-006	0.0104052	7
	25	38	3170.956	5879.137	-1909.981	1	6181.608	-17.99765	9.566561E-007	0.0090895	7
	26	40	2527.573	6039.114	-2209.108	1	6430.479	-20.09252	1.321106E-006	0.0094857	7
	27	41	1976.103	6213.65	-2591.657	1	6732.469	-22.64058	-7.608763E-007	0.0131783	7
	28	43	1577.524	6398.132	-3014.021	1	7072.511	-25.22411	1.220423E-006	0.0104036	7
	29	44	1265.625	6634.093	-3533.277	1	7516.332	-28.03949	9.544185E-007	0.0090959	7
	30	45	998.264	6888.252	-4174.428	1	8054.432	-31.21675	6.097802E-007	0.0092115	7
	31	47	796.875	7139.021	-4940.714	1	8681.951	-34.68601	7.295916E-007	0.0115173	7
	32	48	627.7902	7456.234	-5883.48	1	9497.936	-38.27586	9.929365E-007	0.0110154	7
	33	50	505.5147	7776.452	-6951.507	1	10430.56	-41.79409	9.958917E-007	0.0110107	7
	34	51	397.9953	8185.164	-8392.169	1	11722.86	-45.71543	5.484767E-009	0.0112607	7
	35	53	315.5048	8640.606	-10103.53	1	13294.41	-49.4627	-5.160937E-011	0.0112008	6
	36	54	252.4038	9138.463	-12121.01	1	15179.93	-52.98605	2.612968E-010	0.0111977	6
	37	55	198.6229	9765.89	-14794.23	1	17726.86	-56.57061	1.065686E-009	0.0111855	6
	38	57	158.3615	10472.39	-17903.6	1	20741.5	-59.67525	6.77655E-010	0.0111846	6
	39	58	125.558	11372.97	-21834.36	1	24618.76	-62.48612	7.359544E-010	0.0111872	6
	40	59	100.4464	12406.2	-26445.91	1	29211.3	-64.86797	1.34958E-009	0.0111995	6
	41	61	79.00281	14011.78	-32617.2	1	35499.46	-66.75248	1.103603E-009	0.011198	6
	42	62	63.3446	15946.2	-40041.11	1	43099.56	-68.28529	-3.862204E-010	0.0112052	6
	43	64	49.86702	17685.64	-48547.37	1	51668.45	-69.98349	2.532333E-010	0.0111848	6
	44	65	39.72458	21142.7	-59162.73	1	62827.08	-70.33488	3.679978E-011	0.0112029	6
	45	66	31.6723	25192.45	-71856.06	1	76144.3	-70.67953	-2.271039E-010	0.0112033	6
	46	68	24.93351	31131.11	-87881.03	1	93232.09	-70.49374	8.762931E-010	0.0111994	6
	47	69	19.86229	38274.2	-105978.6	1	112678.3	-70.14281	7.302439E-010	0.0112032	5
	48	71	15.83615	46419.44	-126011	1	134289	-69.77742	-1.558985E-009	0.0112007	5
	49	72	12.40079	61790.96	-154568.4	1	166461.7	-68.21022	8.923682E-010	0.0111973	5
	50	74	9.93114	77767.33	-181230	1	197210.8	-66.77542	-4.249211E-010	0.011214	5
	51	75	7.944915	96678.6	-212441	1	233405.1	-65.53045	9.884696E-010	0.0112055	5
	52	77	6.317385	124848.5	-248820.6	1	278386.1	-63.35429	1.588682E-010	0.0112161	5
	53	79	5.008013	157095.6	-287815.8	1	327897.8	-61.3734	1.021421E-010	0.0112028	5
	54	82	3.945707	196516.8	-330709	1	384691.2	-59.28	4.694183E-010	0.0112039	5
	55	84	3.158693	239034.5	-373322.3	1	443291.1	-57.36897	-1.509943E-010	0.011186	5
	56	88	2.504006	288250.3	-420501.2	1	509813.2	-55.56967	5.113597E-010	0.0112062	5
	57	90	1.998082	340877.5	-468892	1	579704.4	-53.98341	2.590275E-010	0.011226	5
	58	93	1.584686	399575.5	-521817.5	1	657232.2	-52.55735	1.546031E-010	0.0111548	5
	59	97	1.266892	458473.8	-581594.9	1	740574.7	-51.75114	2.872747E-010	0.0112102	5
	60	101	0.999041	527991.5	-653224.6	1	839927.1	-51.05192	-3.285129E-010	0.0111904	5
