EXPLAIN
TAG	EISPOT
TITLE	LABEL	Potentiostatic IDE	Test &Identifier
DATE	LABEL	9/12/2019	Date
TIME	LABEL	10:06:17	Time
NOTES	NOTES	1	&Notes...
	
PSTAT	PSTAT	REF600-11020	Potentiostat
VDC	POTEN	0.00000E+000	T	DC &Voltage (V)
FREQINIT	QUANT	1.00000E+006	Initial Fre&q. (Hz)
FREQFINAL	QUANT	1.00000E+000	Final Fre&q. (Hz)
PTSPERDEC	QUANT	1.00000E+001	Points/&decade
VAC	QUANT	2.50000E+001	AC &Voltage (mV rms)
AREA	QUANT	1.00000E-002	&Area (cm^2)
CONDIT	TWOPARAM	T	5.00000E+000	0.00000E+000	Conditionin&g	Time(s)	E(V)
DELAY	TWOPARAM	T	5.00000E+000	0.00000E+000	Init. De&lay	Time(s)	Stab.(mV/s)
SPEED	SELECTOR	1	&Optimize for:
ZGUESS	QUANT	1.00000E+007	E&stimated Z (ohms)
OCVCURVE	TABLE	19
	Pt	T	Vf	Vm	Ach	Over
	#	s	V vs. Ref.	V	V	bits
	0	0.258333	6.15446E-003	6.15446E-003	5.34966E-004	...........
	1	0.516667	6.14836E-003	5.83490E-003	5.33600E-004	...........
	2	0.775	6.11183E-003	5.58240E-003	5.34933E-004	...........
	3	1.03333	6.01232E-003	5.37193E-003	5.37333E-004	...........
	4	1.29167	5.84334E-003	5.18120E-003	5.35333E-004	...........
	5	1.55	5.63327E-003	5.01608E-003	5.42066E-004	...........
	6	1.80833	5.41818E-003	4.87033E-003	5.36933E-004	...........
	7	2.06667	5.21989E-003	4.73286E-003	5.40466E-004	...........
	8	2.325	5.04338E-003	4.54445E-003	5.34400E-004	...........
	9	2.58333	4.88227E-003	4.42772E-003	5.42033E-004	...........
	10	2.84167	4.72972E-003	4.34671E-003	5.40833E-004	...........
	11	3.1	4.58780E-003	4.25542E-003	5.42366E-004	...........
	12	3.35833	4.46316E-003	4.16988E-003	5.41133E-004	...........
	13	3.61667	4.35690E-003	4.09414E-003	5.39166E-004	...........
	14	3.875	4.26410E-003	4.01052E-003	5.35499E-004	...........
	15	4.13333	4.17882E-003	3.91945E-003	5.36433E-004	...........
	16	4.39167	4.09630E-003	3.84687E-003	5.37333E-004	...........
	17	4.65	4.01539E-003	3.83062E-003	5.39499E-004	...........
	18	4.90833	3.94049E-003	3.77104E-003	5.38766E-004	...........
EOC	QUANT	0.0039405	Open Circuit (V)
PSTATMODEL	IQUANT	4	Pstat Model
PSTATSECTION	LABEL	REF600-11020	Pstat Section
PSTATSERIALNO	LABEL	11020	Pstat Serial Number
CTRLMODE	IQUANT	1	Control Mode
IESTAB	IQUANT	0	I/E Stability
CASPEED	IQUANT	1	Control Amp Speed
CONVENTION	IQUANT	1	Current Convention
ICHRANGE	IQUANT	2	Ich Range
ICHRANGEMODE	TOGGLE	F	Ich Auto Range
ICHOFFSETENABLE	TOGGLE	T	Ich Offset Enable
ICHOFFSET	QUANT	0	Ich Offset (V)
ICHFILTER	IQUANT	3	Ich Filter
VCHRANGE	IQUANT	2	Vch Range
VCHRANGEMODE	TOGGLE	F	Vch Auto Range
VCHOFFSETENABLE	TOGGLE	T	Vch Offset Enable
VCHOFFSET	QUANT	0	Vch Offset (V)
VCHFILTER	IQUANT	3	Vch Filter
ACHRANGE	IQUANT	2	Ach Range
ACHOFFSETENABLE	TOGGLE	F	Ach Offset Enable
ACHOFFSET	QUANT	0	Ach Offset (V)
ACHFILTER	IQUANT	3	Ach Filter
IERANGELOWERLIMIT	IQUANT	1	I/E Range Lower Limit
IERANGEMODE	TOGGLE	F	I/E AutoRange
IERANGE	IQUANT	2	I/E Range
POSFEEDENABLE	TOGGLE	F	Positive Feedback IR Comp
POSFEEDRESISTANCE	QUANT	0	Positive Feedback Resistance (ohm)
ACHSELECT	IQUANT	0	Ach Select
CABLEID	IQUANT	14	Cable ID
DCCALDATE	LABEL	8/19/2019	DC Calibration Date
ACCALDATE	LABEL	8/19/2019	AC Calibration Date
THERMOSELECT	IQUANT	1	Thermo Select
FRAMEWORKVERSION	QUANT	6.33	Framework Version
INSTRUMENTVERSION	LABEL	3.50	Instrument Version
ZCURVE	TABLE
	Pt	Time	Freq	Zreal	Zimag	Zsig	Zmod	Zphz	Idc	Vdc	IERange
	#	s	Hz	ohm	ohm	V	ohm	°	A	V	#
	0	2	1000078	2411.379	-2058.26	1	3170.36	-40.48279	-4.047979E-006	0.0067607	8
	1	4	794390.6	2859.274	-2044.19	1	3514.848	-35.56224	4.299007E-006	0.0054351	8
	2	5	630984.4	3256.77	-1951.014	1	3796.446	-30.92432	4.453173E-006	0.0048406	8
	3	7	501234.4	3605.459	-1812.238	1	4035.287	-26.6858	8.287798E-009	0.0056385	8
	4	8	398109.4	3880.005	-1582.304	1	4190.241	-22.18611	3.77729E-007	0.0055075	8
	5	10	316265.6	4105.623	-1446.847	1	4353.103	-19.41278	-9.388879E-007	0.0059258	8
	6	11	251203.1	4302.201	-1266.849	1	4484.846	-16.40787	-1.703811E-006	0.0059651	8
	7	12	199546.9	4455.691	-1056.3	1	4579.188	-13.33677	-9.56879E-007	0.0058414	8
	8	14	158578.1	4557.827	-955.853	1	4656.978	-11.84424	-3.506053E-006	0.0063632	8
	9	15	125953.1	4661.78	-797.9659	1	4729.582	-9.71329	1.520174E-006	0.0029271	7
	10	17	100078.1	4712.57	-739.4327	1	4770.229	-8.917372	-3.949368E-008	0.0056693	7
	11	18	79453.13	4771.625	-703.2941	1	4823.176	-8.384509	9.191174E-008	0.0054206	7
	12	19	63140.62	4829.023	-687.483	1	4877.715	-8.102456	4.823234E-008	0.0054596	7
	13	21	50203.12	4885.024	-686.9627	1	4933.09	-8.004801	-3.599944E-008	0.0056236	7
	14	22	39890.62	4941.459	-707.2767	1	4991.819	-8.145487	4.602735E-008	0.0054597	7
	15	23	31640.63	5005.024	-744.3349	1	5060.069	-8.458889	-8.789498E-009	0.005657	7
	16	25	25171.88	5073.647	-799.8826	1	5136.313	-8.959188	-1.616237E-008	0.0057597	7
	17	26	20015.62	5146.777	-871.8377	1	5220.097	-9.61435	-9.016086E-009	0.0056591	7
	18	27	15890.62	5230.435	-964.538	1	5318.626	-10.44846	-1.569824E-008	0.0057609	7
	19	29	12609.37	5318.109	-1082.476	1	5427.157	-11.50512	-3.720056E-009	0.0055525	7
	20	30	10078.13	5417.728	-1219.948	1	5553.381	-12.69004	4.854489E-008	0.0054616	7
	21	31	8015.625	5526.949	-1383.835	1	5697.558	-14.05671	-7.492663E-008	0.0057253	7
	22	33	6328.125	5655.314	-1588.007	1	5874.04	-15.68469	8.522801E-008	0.0055698	7
	23	34	5015.625	5795.033	-1833.578	1	6078.192	-17.55764	-7.042372E-009	0.0056462	7
	24	35	3984.375	5949.34	-2120.076	1	6315.803	-19.61377	-7.554863E-008	0.0057218	7
	25	37	3170.956	6122.175	-2457.467	1	6596.982	-21.87074	-2.26728E-008	0.0055785	7
	26	38	2527.573	6313.675	-2862.653	1	6932.335	-24.38979	7.908842E-008	0.0054712	7
	27	39	1976.103	6552.077	-3388.641	1	7376.49	-27.34736	9.588742E-008	0.0054168	7
	28	41	1577.524	6797.418	-3969.352	1	7871.509	-30.28279	2.567221E-008	0.0055114	7
	29	42	1265.625	7061.548	-4652.341	1	8456.344	-33.37799	-5.227887E-008	0.0057157	7
	30	43	998.264	7386.473	-5536.107	1	9230.844	-36.85129	-4.338605E-008	0.0057436	7
	31	45	796.875	7744.917	-6541.933	1	10138.08	-40.18692	6.335421E-009	0.0053139	6
	32	46	627.7902	8163.194	-7843.465	1	11320.67	-43.85568	-8.921389E-009	0.0056497	6
	33	47	505.5147	8584.914	-9276.434	1	12639.34	-47.21716	-8.417262E-009	0.0057414	6
	34	49	397.9953	9135.262	-11214.24	1	14464.17	-50.8333	3.579874E-010	0.0055572	6
	35	50	315.5048	9744.67	-13518.81	1	16664.84	-54.21508	4.573632E-010	0.0055525	6
	36	51	252.4038	10422.61	-16225.13	1	19284.34	-57.28436	4.978303E-010	0.0055536	6
	37	53	198.6229	11290.47	-19788.29	1	22782.7	-60.29253	8.447438E-010	0.0055478	6
	38	54	158.3615	12269.03	-23914.38	1	26877.99	-62.84037	8.024169E-010	0.0055484	6
	39	55	125.558	13477.86	-29107.64	1	32076.59	-65.15421	8.408131E-010	0.0055477	6
	40	57	100.4464	14901.55	-35261.98	1	38281.37	-67.09131	2.64844E-010	0.0055473	6
	41	58	79.00281	16721.8	-43137.93	1	46265.53	-68.81188	1.594551E-009	0.0055442	6
	42	59	63.3446	18423.69	-52900.09	1	56016.54	-70.79814	6.042165E-010	0.0055379	6
	43	61	49.86702	21977.31	-63660.4	1	67347.23	-70.95393	2.528465E-010	0.0055416	6
	44	62	39.72458	25484.69	-78275.38	1	82319.53	-71.96593	9.703174E-010	0.0055534	6
	45	63	31.6723	29799.88	-95030.7	1	99593.5	-72.58954	9.012096E-010	0.0055461	6
	46	65	24.93351	36160.7	-116577.2	1	122056.7	-72.7668	5.738837E-010	0.0055496	5
	47	66	19.86229	44256.4	-141866.1	1	148609	-72.67422	9.609897E-010	0.0055495	5
	48	68	15.83615	52194.44	-173360.6	1	181047.4	-73.2443	-8.877897E-010	0.0055482	5
	49	69	12.40079	69056.98	-207644.7	1	218826.8	-71.60428	-7.093076E-010	0.0055548	5
	50	70	9.93114	86968.17	-252096.2	1	266675.7	-70.96658	5.94049E-010	0.005546	5
	51	72	7.944915	108618.7	-299880.3	1	318945.4	-70.08927	-1.229042E-010	0.0055475	5
	52	74	6.317385	138967.2	-359586.8	1	385505.5	-68.87029	6.610795E-011	0.0055481	5
	53	76	5.008013	179055.9	-428466.6	1	464375.5	-67.31998	1.109476E-010	0.0055469	5
	54	78	3.945707	231616.2	-506910.4	1	557318.8	-65.44351	2.894701E-010	0.0055484	5
	55	81	3.158693	290205.1	-587322.2	1	655107.9	-63.7053	3.250264E-010	0.0055632	5
	56	84	2.504006	367226.9	-680581.4	1	773334.8	-61.64967	-5.832515E-011	0.0055496	5
	57	87	1.998082	454673.2	-774151	1	897795.9	-59.5735	2.127384E-010	0.0055054	5
	58	90	1.584686	558510.8	-881029.3	1	1043143	-57.62817	3.185832E-011	0.0055108	4
	59	94	1.266892	671163.9	-984379	1	1191412	-55.71326	2.070593E-010	0.0055067	4
	60	98	0.999041	802647.7	-1106287	1	1366789	-54.03787	2.028147E-011	0.0055709	4
