EXPLAIN
TAG	EISPOT
TITLE	LABEL	Potentiostatic IDE	Test &Identifier
DATE	LABEL	9/8/2019	Date
TIME	LABEL	10:09:24	Time
NOTES	NOTES	1	&Notes...
	
PSTAT	PSTAT	REF600-11020	Potentiostat
VDC	POTEN	0.00000E+000	T	DC &Voltage (V)
FREQINIT	QUANT	1.00000E+006	Initial Fre&q. (Hz)
FREQFINAL	QUANT	1.00000E+000	Final Fre&q. (Hz)
PTSPERDEC	QUANT	1.00000E+001	Points/&decade
VAC	QUANT	2.50000E+001	AC &Voltage (mV rms)
AREA	QUANT	1.00000E-002	&Area (cm^2)
CONDIT	TWOPARAM	T	5.00000E+000	0.00000E+000	Conditionin&g	Time(s)	E(V)
DELAY	TWOPARAM	T	5.00000E+000	0.00000E+000	Init. De&lay	Time(s)	Stab.(mV/s)
SPEED	SELECTOR	1	&Optimize for:
ZGUESS	QUANT	1.00000E+007	E&stimated Z (ohms)
OCVCURVE	TABLE	19
	Pt	T	Vf	Vm	Ach	Over
	#	s	V vs. Ref.	V	V	bits
	0	0.258333	2.74761E-003	2.74761E-003	5.71166E-004	...........
	1	0.516667	2.74316E-003	2.51475E-003	5.73666E-004	...........
	2	0.775	2.71617E-003	2.31101E-003	5.72999E-004	...........
	3	1.03333	2.64099E-003	2.12078E-003	5.74332E-004	...........
	4	1.29167	2.50935E-003	1.95585E-003	5.74699E-004	...........
	5	1.55	2.33941E-003	1.79966E-003	5.70832E-004	...........
	6	1.80833	2.15794E-003	1.65185E-003	5.70999E-004	...........
	7	2.06667	1.98281E-003	1.51266E-003	5.72632E-004	...........
	8	2.325	1.82019E-003	1.38395E-003	5.73232E-004	...........
	9	2.58333	1.66973E-003	1.25496E-003	5.73099E-004	...........
	10	2.84167	1.52918E-003	1.13609E-003	5.70599E-004	...........
	11	3.1	1.39634E-003	1.02094E-003	5.74966E-004	...........
	12	3.35833	1.26993E-003	9.15215E-004	5.72566E-004	...........
	13	3.61667	1.14953E-003	8.09876E-004	5.72266E-004	...........
	14	3.875	1.03491E-003	7.07235E-004	5.74799E-004	...........
	15	4.13333	9.25299E-004	6.07124E-004	5.73932E-004	...........
	16	4.39167	8.19593E-004	5.10556E-004	5.74565E-004	...........
	17	4.65	7.17027E-004	4.18651E-004	5.72732E-004	...........
	18	4.90833	6.17514E-004	3.31561E-004	5.71299E-004	...........
EOC	QUANT	0.0006175	Open Circuit (V)
PSTATMODEL	IQUANT	4	Pstat Model
PSTATSECTION	LABEL	REF600-11020	Pstat Section
PSTATSERIALNO	LABEL	11020	Pstat Serial Number
CTRLMODE	IQUANT	1	Control Mode
IESTAB	IQUANT	0	I/E Stability
CASPEED	IQUANT	1	Control Amp Speed
CONVENTION	IQUANT	1	Current Convention
ICHRANGE	IQUANT	2	Ich Range
ICHRANGEMODE	TOGGLE	F	Ich Auto Range
ICHOFFSETENABLE	TOGGLE	T	Ich Offset Enable
ICHOFFSET	QUANT	0	Ich Offset (V)
ICHFILTER	IQUANT	3	Ich Filter
VCHRANGE	IQUANT	2	Vch Range
VCHRANGEMODE	TOGGLE	F	Vch Auto Range
VCHOFFSETENABLE	TOGGLE	T	Vch Offset Enable
VCHOFFSET	QUANT	0	Vch Offset (V)
VCHFILTER	IQUANT	3	Vch Filter
ACHRANGE	IQUANT	2	Ach Range
ACHOFFSETENABLE	TOGGLE	F	Ach Offset Enable
ACHOFFSET	QUANT	0	Ach Offset (V)
ACHFILTER	IQUANT	3	Ach Filter
IERANGELOWERLIMIT	IQUANT	1	I/E Range Lower Limit
IERANGEMODE	TOGGLE	F	I/E AutoRange
IERANGE	IQUANT	2	I/E Range
POSFEEDENABLE	TOGGLE	F	Positive Feedback IR Comp
POSFEEDRESISTANCE	QUANT	0	Positive Feedback Resistance (ohm)
ACHSELECT	IQUANT	0	Ach Select
CABLEID	IQUANT	14	Cable ID
DCCALDATE	LABEL	8/19/2019	DC Calibration Date
ACCALDATE	LABEL	8/19/2019	AC Calibration Date
THERMOSELECT	IQUANT	1	Thermo Select
FRAMEWORKVERSION	QUANT	6.33	Framework Version
INSTRUMENTVERSION	LABEL	3.50	Instrument Version
ZCURVE	TABLE
	Pt	Time	Freq	Zreal	Zimag	Zsig	Zmod	Zphz	Idc	Vdc	IERange
	#	s	Hz	ohm	ohm	V	ohm	°	A	V	#
	0	2	1000078	2335.847	-1263.276	1	2655.57	-28.40547	6.096717E-006	0.0012863	8
	1	3	794390.6	2555.243	-1168.2	1	2809.619	-24.56882	-7.016004E-006	0.0034581	8
	2	4	630984.4	2749.593	-1050.036	1	2943.269	-20.90125	-4.222979E-006	0.0036221	8
	3	6	501234.4	2908.024	-911.8452	1	3047.632	-17.40943	2.973737E-006	0.0017988	8
	4	7	398109.4	3033.914	-796.5491	1	3136.738	-14.7109	-1.154843E-006	0.0024752	8
	5	9	316265.6	3132.574	-688.1743	1	3207.274	-12.39011	4.256785E-006	0.0014052	8
	6	10	251203.1	3200.044	-568.6503	1	3250.177	-10.07632	-3.871288E-006	0.0029387	8
	7	11	199546.9	3246.826	-494.9347	1	3284.332	-8.667244	-3.664061E-006	0.0029873	8
	8	13	158578.1	3284.62	-423.4208	1	3311.799	-7.345497	-6.898064E-007	0.0023261	8
	9	14	125953.1	3336.722	-333.0522	1	3353.303	-5.700051	-8.237213E-007	0.0037355	7
	10	15	100078.1	3354.045	-287.4743	1	3366.342	-4.898833	-4.144084E-008	0.0021834	7
	11	17	79453.13	3374.428	-262.1422	1	3384.595	-4.442096	4.85402E-008	0.0019939	7
	12	18	63140.62	3392.339	-243.4829	1	3401.066	-4.105326	-2.209444E-008	0.0021307	7
	13	19	50203.12	3409.49	-232.9092	1	3417.437	-3.907919	7.835992E-008	0.0019846	7
	14	21	39890.62	3427.263	-227.075	1	3434.777	-3.79062	-2.227105E-008	0.0021246	7
	15	22	31640.63	3444.387	-227.4946	1	3451.892	-3.778779	-5.322363E-008	0.0022379	7
	16	23	25171.88	3460.82	-234.2797	1	3468.741	-3.872721	-1.111324E-008	0.0021637	7
	17	25	20015.62	3478.501	-248.3244	1	3487.354	-4.083322	8.021171E-008	0.0019903	7
	18	26	15890.62	3496.259	-268.9505	1	3506.588	-4.398829	-8.658214E-009	0.0021614	7
	19	27	12609.37	3515.954	-296.9945	1	3528.475	-4.828343	8.733453E-008	0.0019536	7
	20	29	10078.13	3534.363	-332.0628	1	3549.928	-5.367335	2.421035E-008	0.0020439	7
	21	30	8015.625	3557.203	-382.9607	1	3577.758	-6.144671	8.033047E-008	0.0019904	7
	22	31	6328.125	3581.513	-444.3407	1	3608.972	-7.072267	3.40648E-008	0.002101	7
	23	33	5015.625	3609.035	-520.9009	1	3646.433	-8.212924	1.39812E-007	0.0019249	7
	24	34	3984.375	3639.14	-615.0064	1	3690.741	-9.59222	7.206999E-008	0.0021075	7
	25	35	3170.956	3674.459	-733.0165	1	3746.861	-11.28181	-6.806475E-008	0.0022317	7
	26	37	2527.573	3714.152	-873.4061	1	3815.464	-13.23304	6.981966E-008	0.0021055	7
	27	38	1976.103	3766.006	-1061.465	1	3912.737	-15.74072	-2.085468E-009	0.0020658	7
	28	39	1577.524	3821.307	-1272.77	1	4027.695	-18.42147	-2.069267E-008	0.0022685	7
	29	41	1265.625	3886.214	-1525.703	1	4174.977	-21.43466	-5.236575E-008	0.0022339	7
	30	42	998.264	3968.223	-1853.193	1	4379.625	-25.03296	-2.911933E-008	0.0021347	7
	31	43	796.875	4058.847	-2232.277	1	4632.203	-28.80983	-4.610612E-011	0.0020675	7
	32	45	627.7902	4171.628	-2723.011	1	4981.693	-33.13431	-5.006492E-008	0.002233	7
	33	46	505.5147	4290.444	-3265.764	1	5391.95	-37.27736	-2.040357E-008	0.0021139	7
	34	47	397.9953	4440.968	-3998.923	1	5976.083	-42.00183	7.104595E-009	0.0021449	7
	35	49	315.5048	4610.618	-4877.105	1	6711.479	-46.60888	7.618044E-009	0.0021451	7
	36	50	252.4038	4801.1	-5914.47	1	7617.841	-50.93187	8.376468E-009	0.0021373	7
	37	51	198.6229	5044.487	-7291.318	1	8866.237	-55.32264	8.505968E-009	0.0021436	7
	38	53	158.3615	5321.899	-8904.132	1	10373.34	-59.13371	1.790469E-009	0.0020807	6
	39	54	125.558	5670.92	-10942.51	1	12324.68	-62.60469	1.809875E-009	0.0020855	6
	40	55	100.4464	6091.755	-13357.18	1	14680.72	-65.48388	7.986648E-010	0.0020825	6
	41	57	79.00281	6669.901	-16571.63	1	17863.55	-68.07575	1.970161E-009	0.0020794	6
	42	58	63.3446	7267.009	-20135.22	1	21406.46	-70.15496	1.35372E-009	0.002076	6
	43	59	49.86702	8348.392	-25079.3	1	26432.31	-71.58845	2.047223E-009	0.0020785	6
	44	61	39.72458	9435.158	-30718.09	1	32134.46	-72.9255	1.632123E-009	0.0020829	6
	45	62	31.6723	10957.12	-37693.25	1	39253.53	-73.79128	1.034136E-009	0.002076	6
	46	63	24.93351	13098.7	-46514.24	1	48323.39	-74.27245	1.813749E-009	0.0020793	6
	47	65	19.86229	15849.23	-56841.75	1	59010.02	-74.41989	1.620987E-009	0.0020874	6
	48	66	15.83615	19298.24	-69505.26	1	72134.62	-74.4826	2.718764E-009	0.0020814	6
	49	67	12.40079	24725.04	-85611.53	1	89110.39	-73.89101	4.173507E-010	0.0020875	6
	50	69	9.93114	30461.42	-102978	1	107388.9	-73.52151	1.293301E-009	0.0020809	5
	51	71	7.944915	38291.21	-124076.3	1	129850.4	-72.84924	6.251977E-010	0.0020822	5
	52	72	6.317385	48627.31	-149193.7	1	156918.3	-71.94744	2.80373E-010	0.0020866	5
	53	74	5.008013	62330.27	-179580.5	1	190090.1	-70.85872	3.67619E-010	0.0020834	5
	54	77	3.945707	80094.62	-215445.9	1	229852.3	-69.60677	4.942308E-010	0.0020852	5
	55	79	3.158693	101145.6	-253860.6	1	273268.4	-68.27619	4.279364E-010	0.0021041	5
	56	83	2.504006	128277.1	-300542.3	1	326773.1	-66.88629	-1.324734E-011	0.0020808	5
	57	85	1.998082	159847.8	-350850.3	1	385548	-65.50594	2.186053E-010	0.0020431	5
	58	88	1.584686	198096	-409135.3	1	454569.9	-64.16457	1.250016E-010	0.0020701	5
	59	92	1.266892	243141.4	-471382.4	1	530395.3	-62.71508	3.03036E-010	0.0020383	5
	60	96	0.999041	298046.7	-545140.4	1	621296.9	-61.33308	1.928651E-010	0.002121	5
