EXPLAIN
TAG	EISPOT
TITLE	LABEL	Potentiostatic EIS	Test &Identifier
DATE	LABEL	10/22/2019	Date
TIME	LABEL	9:41:00	Time
NOTES	NOTES	1	&Notes...
	
PSTAT	PSTAT	REF600-11020	Potentiostat
VDC	POTEN	0.00000E+000	T	DC &Voltage (V)
FREQINIT	QUANT	1.00000E+006	Initial Fre&q. (Hz)
FREQFINAL	QUANT	1.00000E+000	Final Fre&q. (Hz)
PTSPERDEC	QUANT	1.00000E+001	Points/&decade
VAC	QUANT	2.50000E+001	AC &Voltage (mV rms)
AREA	QUANT	1.00000E-002	&Area (cm^2)
CONDIT	TWOPARAM	T	5.00000E+000	0.00000E+000	Conditionin&g	Time(s)	E(V)
DELAY	TWOPARAM	T	5.00000E+000	0.00000E+000	Init. De&lay	Time(s)	Stab.(mV/s)
SPEED	SELECTOR	1	&Optimize for:
ZGUESS	QUANT	1.00000E+005	E&stimated Z (ohms)
OCVCURVE	TABLE	19
	Pt	T	Vf	Vm	Ach	Over
	#	s	V vs. Ref.	V	V	bits
	0	0.258333	7.40219E-003	7.40219E-003	5.46366E-004	...........
	1	0.516667	7.41746E-003	8.20168E-003	5.47866E-004	...........
	2	0.775	7.52811E-003	9.84232E-003	5.52966E-004	...........
	3	1.03333	7.85865E-003	9.39951E-003	5.48766E-004	...........
	4	1.29167	8.40150E-003	9.55429E-003	5.52066E-004	...........
	5	1.55	8.95098E-003	9.40481E-003	5.52532E-004	...........
	6	1.80833	9.31054E-003	9.35619E-003	5.49999E-004	...........
	7	2.06667	9.45254E-003	9.39726E-003	5.50833E-004	...........
	8	2.325	9.45994E-003	9.31414E-003	5.49699E-004	...........
	9	2.58333	9.42121E-003	9.40722E-003	5.50966E-004	...........
	10	2.84167	9.38877E-003	9.48760E-003	5.54766E-004	...........
	11	3.1	9.38744E-003	9.62478E-003	5.57799E-004	...........
	12	3.35833	9.42667E-003	9.70067E-003	5.56233E-004	...........
	13	3.61667	9.50067E-003	9.79438E-003	5.52099E-004	...........
	14	3.875	9.59199E-003	9.81379E-003	5.47499E-004	...........
	15	4.13333	9.67907E-003	9.75626E-003	5.49099E-004	...........
	16	4.39167	9.74506E-003	9.91976E-003	5.48266E-004	...........
	17	4.65	9.79494E-003	1.01476E-002	5.49566E-004	...........
	18	4.90833	9.85866E-003	1.02420E-002	5.47866E-004	...........
EOC	QUANT	0.0098587	Open Circuit (V)
PSTATMODEL	IQUANT	4	Pstat Model
PSTATSECTION	LABEL	REF600-11020	Pstat Section
PSTATSERIALNO	LABEL	11020	Pstat Serial Number
CTRLMODE	IQUANT	1	Control Mode
IESTAB	IQUANT	0	I/E Stability
CASPEED	IQUANT	1	Control Amp Speed
CONVENTION	IQUANT	1	Current Convention
ICHRANGE	IQUANT	2	Ich Range
ICHRANGEMODE	TOGGLE	F	Ich Auto Range
ICHOFFSETENABLE	TOGGLE	T	Ich Offset Enable
ICHOFFSET	QUANT	0	Ich Offset (V)
ICHFILTER	IQUANT	3	Ich Filter
VCHRANGE	IQUANT	2	Vch Range
VCHRANGEMODE	TOGGLE	F	Vch Auto Range
VCHOFFSETENABLE	TOGGLE	T	Vch Offset Enable
VCHOFFSET	QUANT	0	Vch Offset (V)
VCHFILTER	IQUANT	3	Vch Filter
ACHRANGE	IQUANT	2	Ach Range
ACHOFFSETENABLE	TOGGLE	F	Ach Offset Enable
ACHOFFSET	QUANT	0	Ach Offset (V)
ACHFILTER	IQUANT	3	Ach Filter
IERANGELOWERLIMIT	IQUANT	1	I/E Range Lower Limit
IERANGEMODE	TOGGLE	F	I/E AutoRange
IERANGE	IQUANT	5	I/E Range
POSFEEDENABLE	TOGGLE	F	Positive Feedback IR Comp
POSFEEDRESISTANCE	QUANT	0	Positive Feedback Resistance (ohm)
ACHSELECT	IQUANT	0	Ach Select
CABLEID	IQUANT	14	Cable ID
DCCALDATE	LABEL	8/19/2019	DC Calibration Date
ACCALDATE	LABEL	8/19/2019	AC Calibration Date
THERMOSELECT	IQUANT	1	Thermo Select
FRAMEWORKVERSION	QUANT	6.33	Framework Version
INSTRUMENTVERSION	LABEL	3.50	Instrument Version
ZCURVE	TABLE
	Pt	Time	Freq	Zreal	Zimag	Zsig	Zmod	Zphz	Idc	Vdc	IERange
	#	s	Hz	ohm	ohm	V	ohm	°	A	V	#
	0	1	1000078	2512.619	-1669.401	1	3016.646	-33.60033	-3.187541E-006	0.0124937	8
	1	3	794390.6	2831.633	-1604.614	1	3254.678	-29.53912	6.322575E-007	0.0115729	8
	2	4	630984.4	3115.777	-1496.212	1	3456.402	-25.65056	3.454339E-006	0.0107143	8
	3	6	501234.4	3369.431	-1385.969	1	3643.347	-22.35914	5.331049E-007	0.0111636	8
	4	7	398109.4	3565.923	-1241.159	1	3775.749	-19.19102	7.517169E-007	0.0110976	8
	5	8	316265.6	3744.017	-1105.855	1	3903.919	-16.45535	9.585179E-007	0.011102	8
	6	10	251203.1	3883.797	-981.16	1	4005.815	-14.17793	-2.903808E-006	0.0119551	8
	7	11	199546.9	4004.251	-868.5975	1	4097.375	-12.23892	-2.798047E-006	0.0119544	8
	8	13	158578.1	4082.099	-757.5388	1	4151.794	-10.51311	-5.849594E-007	0.011586	8
	9	14	125953.1	4182.198	-644.2283	1	4231.525	-8.757047	-6.726755E-007	0.0124944	7
	10	16	100078.1	4237.115	-557.4345	1	4273.626	-7.494786	-8.005701E-008	0.0114168	7
	11	17	79453.13	4289.891	-513.6401	1	4320.531	-6.827674	-1.772659E-008	0.0112462	7
	12	18	63140.62	4336.903	-480.2222	1	4363.41	-6.31858	-3.153477E-008	0.011294	7
	13	20	50203.12	4379.051	-455.2524	1	4402.651	-5.935231	7.871619E-008	0.0111037	7
	14	21	39890.62	4420.665	-442.0059	1	4442.708	-5.709816	-1.073194E-008	0.0114069	7
	15	22	31640.63	4460.373	-439.2536	1	4481.949	-5.624303	-3.208643E-008	0.0112846	7
	16	24	25171.88	4498.682	-444.8289	1	4520.621	-5.64704	9.164136E-008	0.0112038	7
	17	25	20015.62	4525.644	-453.9588	1	4548.355	-5.728071	-3.137069E-008	0.0112811	7
	18	27	15890.62	4574.472	-488.0348	1	4600.432	-6.089656	7.861773E-008	0.0111026	7
	19	28	12609.37	4613.1	-527.2496	1	4643.133	-6.52027	-2.993769E-008	0.0112783	7
	20	29	10078.13	4651.099	-585.4848	1	4687.805	-7.17471	-8.094463E-008	0.0114068	7
	21	31	8015.625	4703.802	-657.5385	1	4749.538	-7.957738	-4.983728E-008	0.0113034	7
	22	32	6328.125	4731.433	-753.7775	1	4791.1	-9.051878	-7.961477E-008	0.0113996	7
	23	33	5015.625	4775.602	-877.2825	1	4855.512	-10.40923	-7.920533E-008	0.0113997	7
	24	35	3984.375	4823.377	-1032.631	1	4932.676	-12.08397	-3.793408E-008	0.0113481	7
	25	36	3170.956	4876.774	-1219.879	1	5027.03	-14.04383	-1.629052E-008	0.0112363	7
	26	38	2527.573	4937.079	-1454.29	1	5146.815	-16.41313	-5.196303E-010	0.0112789	7
	27	39	1976.103	5014.456	-1771.943	1	5318.322	-19.46172	-1.425273E-008	0.011239	7
	28	40	1577.524	5149.435	-2146.917	1	5579.062	-22.63237	-3.064248E-008	0.0112757	7
	29	42	1265.625	5192.3	-2557.849	1	5788.141	-26.22594	-5.181181E-009	0.011305	7
	30	43	998.264	5310.797	-3126.761	1	6162.89	-30.48769	-1.447846E-008	0.0112366	7
	31	44	796.875	5448.782	-3793.489	1	6639.261	-34.84597	-8.004262E-009	0.0113976	7
	32	46	627.7902	5625.93	-4659.41	1	7304.874	-39.63165	1.343269E-007	0.0110628	7
	33	47	505.5147	5822.678	-5622.843	1	8094.439	-43.99974	-3.679535E-008	0.0112871	7
	34	48	397.9953	6097.583	-6937.082	1	9235.995	-48.68505	4.715591E-009	0.0112851	7
	35	50	315.5048	6439.041	-8506.41	1	10668.66	-52.87561	1.001914E-009	0.0112229	6
	36	51	252.4038	6852.052	-10354.69	1	12416.53	-56.50604	1.339327E-009	0.0112162	6
	37	53	198.6229	7430.411	-12785.34	1	14787.7	-59.83629	-2.46578E-010	0.0112194	6
	38	54	158.3615	8142.784	-15593.46	1	17591.5	-62.42678	7.33024E-010	0.0112213	6
	39	55	125.558	9107.572	-19100.17	1	21160.45	-64.50671	1.914417E-009	0.0112206	6
	40	57	100.4464	10350.68	-23158.44	1	25366.31	-65.91771	1.17967E-010	0.0112172	6
	41	58	79.00281	12098.94	-28500.26	1	30962.06	-66.9978	3.636668E-010	0.0112221	6
	42	59	63.3446	13933.63	-34262.75	1	36987.59	-67.8699	1.71975E-010	0.0112209	6
	43	61	49.86702	17450.2	-41508.46	1	45027.34	-67.19806	-2.538593E-010	0.0112196	6
	44	62	39.72458	21184.93	-49973.44	1	54278.41	-67.02676	9.35353E-010	0.011221	6
	45	64	31.6723	26251.94	-59358.93	1	64904.91	-66.14223	5.724704E-010	0.01122	6
	46	65	24.93351	33024.97	-71026.4	1	78328.78	-65.0631	7.059876E-011	0.01122	6
	47	66	19.86229	41107.2	-83232.94	1	92830.62	-63.71609	-2.632565E-010	0.0112262	6
	48	68	15.83615	50689.43	-96892.7	1	109350.9	-62.38367	-1.021853E-009	0.011226	5
	49	69	12.40079	63946.33	-113041.6	1	129875	-60.50365	-5.385442E-010	0.0112235	5
	50	71	9.93114	77156.8	-128076.2	1	149521.5	-58.93402	6.560048E-010	0.011219	5
	51	72	7.944915	92394.38	-144870.6	1	171826.1	-57.47142	3.684544E-011	0.0112265	5
	52	74	6.317385	109925.4	-163657.8	1	197148.4	-56.11159	8.341545E-010	0.0112303	5
	53	76	5.008013	129445.5	-184918.8	1	225723.5	-55.00748	2.358323E-010	0.0112298	5
	54	79	3.945707	150849.9	-209482.5	1	258144.6	-54.24205	-1.282568E-011	0.0112275	5
	55	81	3.158693	172729	-235578.6	1	292117.4	-53.75069	2.489191E-011	0.0112388	5
	56	85	2.504006	197262.1	-267342.5	1	332241.4	-53.57776	1.467734E-010	0.0112213	5
	57	87	1.998082	222920.7	-302949.3	1	376127.6	-53.65306	-2.768484E-010	0.0112595	5
	58	90	1.584686	251376.8	-347706.1	1	429056.9	-54.13467	1.81354E-010	0.011253	5
	59	94	1.266892	282952.5	-397515.2	1	487934.8	-54.55663	-1.272946E-010	0.0112691	5
	60	98	0.999041	319329.9	-460785.2	1	560619.8	-55.27755	3.626798E-011	0.0111943	5
