EXPLAIN
TAG	EISPOT
TITLE	LABEL	Potentiostatic EIS	Test &Identifier
DATE	LABEL	11/5/2019	Date
TIME	LABEL	10:00:52	Time
NOTES	NOTES	2	&Notes...
	
	
PSTAT	PSTAT	REF600-11020	Potentiostat
VDC	POTEN	0.00000E+000	T	DC &Voltage (V)
FREQINIT	QUANT	1.00000E+006	Initial Fre&q. (Hz)
FREQFINAL	QUANT	1.00000E+000	Final Fre&q. (Hz)
PTSPERDEC	QUANT	1.00000E+001	Points/&decade
VAC	QUANT	2.50000E+001	AC &Voltage (mV rms)
AREA	QUANT	1.00000E-002	&Area (cm^2)
CONDIT	TWOPARAM	T	5.00000E+000	0.00000E+000	Conditionin&g	Time(s)	E(V)
DELAY	TWOPARAM	T	5.00000E+000	0.00000E+000	Init. De&lay	Time(s)	Stab.(mV/s)
SPEED	SELECTOR	1	&Optimize for:
ZGUESS	QUANT	1.00000E+005	E&stimated Z (ohms)
OCVCURVE	TABLE	19
	Pt	T	Vf	Vm	Ach	Over
	#	s	V vs. Ref.	V	V	bits
	0	0.258333	2.82991E-003	2.82991E-003	5.71999E-004	...........
	1	0.516667	2.82444E-003	2.54362E-003	5.74399E-004	...........
	2	0.775	2.79371E-003	2.42148E-003	5.69799E-004	...........
	3	1.03333	2.70995E-003	1.97502E-003	5.78466E-004	...........
	4	1.29167	2.54863E-003	1.42229E-003	5.70866E-004	...........
	5	1.55	2.28823E-003	9.39905E-004	5.76199E-004	...........
	6	1.80833	1.92941E-003	7.90239E-004	5.74499E-004	...........
	7	2.06667	1.52520E-003	6.73938E-004	5.71266E-004	...........
	8	2.325	1.16385E-003	7.92404E-004	5.70899E-004	...........
	9	2.58333	9.04829E-004	2.99778E-004	5.73666E-004	...........
	10	2.84167	7.36136E-004	4.90391E-004	5.74466E-004	...........
	11	3.1	6.11676E-004	3.70268E-004	5.72766E-004	...........
	12	3.35833	5.10168E-004	2.32224E-004	5.73799E-004	...........
	13	3.61667	4.24632E-004	1.03732E-004	5.69199E-004	...........
	14	3.875	3.37124E-004	-1.71535E-005	5.68666E-004	...........
	15	4.13333	2.34465E-004	-1.28663E-004	5.62566E-004	...........
	16	4.39167	1.19317E-004	-2.41042E-004	5.65266E-004	...........
	17	4.65	5.58546E-007	-3.37166E-004	5.64932E-004	...........
	18	4.90833	-1.15037E-004	-4.35987E-004	5.64699E-004	...........
EOC	QUANT	-0.000115	Open Circuit (V)
PSTATMODEL	IQUANT	4	Pstat Model
PSTATSECTION	LABEL	REF600-11020	Pstat Section
PSTATSERIALNO	LABEL	11020	Pstat Serial Number
CTRLMODE	IQUANT	1	Control Mode
IESTAB	IQUANT	0	I/E Stability
CASPEED	IQUANT	1	Control Amp Speed
CONVENTION	IQUANT	1	Current Convention
ICHRANGE	IQUANT	2	Ich Range
ICHRANGEMODE	TOGGLE	F	Ich Auto Range
ICHOFFSETENABLE	TOGGLE	T	Ich Offset Enable
ICHOFFSET	QUANT	0	Ich Offset (V)
ICHFILTER	IQUANT	3	Ich Filter
VCHRANGE	IQUANT	2	Vch Range
VCHRANGEMODE	TOGGLE	F	Vch Auto Range
VCHOFFSETENABLE	TOGGLE	T	Vch Offset Enable
VCHOFFSET	QUANT	0	Vch Offset (V)
VCHFILTER	IQUANT	3	Vch Filter
ACHRANGE	IQUANT	2	Ach Range
ACHOFFSETENABLE	TOGGLE	F	Ach Offset Enable
ACHOFFSET	QUANT	0	Ach Offset (V)
ACHFILTER	IQUANT	3	Ach Filter
IERANGELOWERLIMIT	IQUANT	1	I/E Range Lower Limit
IERANGEMODE	TOGGLE	F	I/E AutoRange
IERANGE	IQUANT	3	I/E Range
POSFEEDENABLE	TOGGLE	F	Positive Feedback IR Comp
POSFEEDRESISTANCE	QUANT	0	Positive Feedback Resistance (ohm)
ACHSELECT	IQUANT	0	Ach Select
CABLEID	IQUANT	14	Cable ID
DCCALDATE	LABEL	8/19/2019	DC Calibration Date
ACCALDATE	LABEL	8/19/2019	AC Calibration Date
THERMOSELECT	IQUANT	1	Thermo Select
FRAMEWORKVERSION	QUANT	6.33	Framework Version
INSTRUMENTVERSION	LABEL	3.50	Instrument Version
ZCURVE	TABLE
	Pt	Time	Freq	Zreal	Zimag	Zsig	Zmod	Zphz	Idc	Vdc	IERange
	#	s	Hz	ohm	ohm	V	ohm	°	A	V	#
	0	2	1000078	2298.457	-1993.601	1	3042.589	-40.93722	-4.155492E-008	0.0016923	8
	1	3	794390.6	2716.578	-2037.85	1	3395.972	-36.87551	5.480001E-006	0.0018562	8
	2	4	630984.4	3132.569	-1963.119	1	3696.867	-32.07455	3.726717E-006	0.001714	8
	3	6	501234.4	3501.489	-1839.778	1	3955.402	-27.71866	-2.408235E-006	0.0013737	8
	4	7	398109.4	3830.232	-1661.758	1	4175.179	-23.45376	-3.100207E-006	0.0022286	8
	5	9	316265.6	4093.707	-1476.403	1	4351.805	-19.83193	9.108954E-007	0.0019848	8
	6	10	251203.1	4274.224	-1299.326	1	4467.353	-16.90881	-3.147555E-006	0.0021518	8
	7	11	199546.9	4468.742	-1117.781	1	4606.418	-14.04343	-4.734916E-006	0.0018988	8
	8	13	158578.1	4553.122	-977.223	1	4656.811	-12.11346	2.054196E-006	0.0018498	8
	9	14	125953.1	4702.936	-768.82	1	4765.363	-9.284394	3.103475E-006	-0.005042	7
	10	15	100078.1	4761.241	-667.5073	1	4807.804	-7.980628	1.263726E-006	-0.0001641	7
	11	17	79453.13	4806.189	-601.2028	1	4843.645	-7.130054	1.161951E-006	0.0007262	7
	12	18	63140.62	4849.116	-544.6534	1	4879.608	-6.40861	-8.18167E-007	0.0012738	7
	13	20	50203.12	4894.198	-510.2025	1	4920.719	-5.951382	1.162865E-006	0.0007193	7
	14	21	39890.62	4927.104	-484.6303	1	4950.881	-5.617548	-8.177826E-007	0.0012663	7
	15	22	31640.63	4963.559	-476.0978	1	4986.34	-5.478972	-1.19063E-006	0.0020508	7
	16	24	25171.88	4997.049	-476.7954	1	5019.744	-5.450399	-1.050111E-006	0.0034356	7
	17	25	20015.62	5034.93	-495.8365	1	5059.286	-5.624315	-1.419285E-006	0.0031538	7
	18	26	15890.62	5068.682	-522.526	1	5095.544	-5.88578	-1.39809E-006	0.0027102	7
	19	28	12609.37	5104.827	-571.6141	1	5136.731	-6.389092	-1.051722E-006	0.0034365	7
	20	29	10078.13	5124.267	-624.0917	1	5162.132	-6.943934	1.268027E-006	-0.0001883	7
	21	30	8015.625	5185.229	-722.6866	1	5235.348	-7.934436	6.864943E-007	0.001774	7
	22	32	6328.125	5226.782	-836.2504	1	5293.257	-9.089906	6.883211E-007	0.0017798	7
	23	33	5015.625	5273.532	-978.451	1	5363.535	-10.51113	5.920658E-007	-0.0004545	7
	24	35	3984.375	5325.271	-1159.52	1	5450.046	-12.2838	5.899546E-007	-0.0004575	7
	25	36	3170.956	5378.114	-1374.472	1	5550.972	-14.33609	-1.418688E-006	0.0031533	7
	26	38	2527.573	5453.844	-1648.582	1	5697.564	-16.81896	9.455062E-007	0.001288	7
	27	39	1976.103	5535.441	-2009.687	1	5888.969	-19.95384	-7.383827E-007	0.0033487	7
	28	40	1577.524	5628.814	-2406.222	1	6121.557	-23.14588	-1.395238E-006	0.0027035	7
	29	42	1265.625	5744.549	-2896.54	1	6433.489	-26.75834	-1.194905E-006	0.0020459	7
	30	43	998.264	5888.407	-3535.173	1	6868.099	-30.97898	-1.27809E-006	0.0033467	7
	31	45	796.875	6042.717	-4275.664	1	7402.414	-35.2822	-7.328143E-007	0.0033425	7
	32	46	627.7902	6242.699	-5237.869	1	8149.022	-39.99797	-1.41985E-006	0.0031441	7
	33	47	505.5147	6444.669	-6305.056	1	9015.957	-44.37262	-1.418309E-006	0.0031465	7
	34	49	397.9953	6708.964	-7775.622	1	10269.88	-49.21171	6.371013E-009	0.0015124	7
	35	50	315.5048	7024.371	-9532.2	1	11840.8	-53.61314	3.880991E-010	0.0014515	6
	36	52	252.4038	7387.863	-11615.31	1	13765.75	-57.54179	1.095195E-009	0.0014556	6
	37	53	198.6229	7870.679	-14382.5	1	16395.24	-61.31076	5.59769E-010	0.001453	6
	38	54	158.3615	8455.978	-17619.91	1	19543.92	-64.36317	1.537368E-009	0.0014417	6
	39	56	125.558	9222.224	-21713.54	1	23590.83	-66.98798	1.240542E-009	0.0014397	6
	40	57	100.4464	10219.34	-26543.04	1	28442.36	-68.94279	9.044344E-010	0.0014464	6
	41	58	79.00281	11455.49	-32973.91	1	34907.12	-70.84222	7.264711E-010	0.0014532	6
	42	60	63.3446	12719.33	-40000.42	1	41973.98	-72.36037	-3.380889E-010	0.0014644	6
	43	61	49.86702	15871.44	-49330.48	1	51820.84	-72.16509	-4.531057E-010	0.0014543	6
	44	63	39.72458	18740.68	-60522.4	1	63357.51	-72.79493	8.962869E-010	0.0014541	6
	45	64	31.6723	22825.08	-73704.45	1	77157.82	-72.79308	6.33196E-010	0.0014415	6
	46	66	24.93351	28791.23	-90622.81	1	95086.4	-72.37474	6.634238E-010	0.0014479	6
	47	67	19.86229	36361.3	-109713.3	1	115581.8	-71.66372	7.193445E-010	0.0014598	5
	48	68	15.83615	44596.57	-132266.9	1	139582.9	-71.36739	-1.510702E-009	0.0014514	5
	49	70	12.40079	61809.64	-158832.9	1	170435.7	-68.73656	1.485123E-009	0.0014426	5
	50	71	9.93114	77664.27	-188058.8	1	203464.6	-67.56042	6.098823E-010	0.0014527	5
	51	73	7.944915	98944.9	-220115.1	1	241331.2	-65.7954	5.978202E-010	0.0014513	5
	52	75	6.317385	124573.7	-255580.3	1	284323.6	-64.01469	3.165966E-010	0.0014597	5
	53	77	5.008013	157186.3	-296377.2	1	335480.2	-62.06035	2.95992E-010	0.0014436	5
	54	79	3.945707	195124.2	-340232	1	392213.3	-60.16558	5.283468E-010	0.0014559	5
	55	82	3.158693	235759.9	-385341.5	1	451741.9	-58.54084	-4.389962E-011	0.0014449	5
	56	85	2.504006	282434.8	-436315.6	1	519750.7	-57.0843	5.177376E-010	0.0014547	5
	57	88	1.998082	332079.2	-491172.4	1	592897	-55.93757	4.018499E-010	0.0014627	5
	58	91	1.584686	391372.7	-552609.2	1	677162.8	-54.69285	1.397625E-010	0.0014054	5
	59	95	1.266892	446232.1	-623935.6	1	767084.6	-54.42805	3.130161E-010	0.001441	5
	60	99	0.999041	515461.3	-711724.3	1	878778.6	-54.08633	-1.247225E-010	0.0014376	5
