EXPLAIN
TAG	EISPOT
TITLE	LABEL	Potentiostatic EIS	Test &Identifier
DATE	LABEL	10/14/2019	Date
TIME	LABEL	9:28:48	Time
NOTES	NOTES	1	&Notes...
	
PSTAT	PSTAT	REF600-11020	Potentiostat
VDC	POTEN	0.00000E+000	T	DC &Voltage (V)
FREQINIT	QUANT	1.00000E+006	Initial Fre&q. (Hz)
FREQFINAL	QUANT	1.00000E+000	Final Fre&q. (Hz)
PTSPERDEC	QUANT	1.00000E+001	Points/&decade
VAC	QUANT	2.50000E+001	AC &Voltage (mV rms)
AREA	QUANT	1.00000E-002	&Area (cm^2)
CONDIT	TWOPARAM	T	5.00000E+000	0.00000E+000	Conditionin&g	Time(s)	E(V)
DELAY	TWOPARAM	T	5.00000E+000	0.00000E+000	Init. De&lay	Time(s)	Stab.(mV/s)
SPEED	SELECTOR	1	&Optimize for:
ZGUESS	QUANT	1.00000E+004	E&stimated Z (ohms)
OCVCURVE	TABLE	19
	Pt	T	Vf	Vm	Ach	Over
	#	s	V vs. Ref.	V	V	bits
	0	0.258333	-2.28003E-004	-2.28003E-004	5.66099E-004	...........
	1	0.516667	1.50944E-004	1.96084E-002	5.69299E-004	...........
	2	0.775	2.31321E-003	2.97895E-002	5.67866E-004	.........v.
	3	1.03333	7.58201E-003	2.38217E-002	5.68499E-004	...........
	4	1.29167	1.48372E-002	2.85890E-002	5.70099E-004	.........v.
	5	1.55	2.12932E-002	3.04385E-002	5.66266E-004	...........
	6	1.80833	2.56805E-002	3.65520E-002	5.62832E-004	...........
	7	2.06667	2.86473E-002	2.88818E-002	5.68299E-004	...........
	8	2.325	3.06623E-002	2.94863E-002	5.69766E-004	...........
	9	2.58333	3.14469E-002	3.02841E-002	5.66299E-004	...........
	10	2.84167	3.11388E-002	2.93906E-002	5.66399E-004	...........
	11	3.1	3.04805E-002	2.97456E-002	5.72132E-004	...........
	12	3.35833	3.00031E-002	3.04987E-002	5.65766E-004	...........
	13	3.61667	2.98597E-002	3.16790E-002	5.64899E-004	...........
	14	3.875	3.00667E-002	3.11215E-002	5.62732E-004	...........
	15	4.13333	3.05376E-002	3.34085E-002	5.64266E-004	...........
	16	4.39167	3.11284E-002	3.15162E-002	5.68299E-004	...........
	17	4.65	3.16731E-002	3.20733E-002	5.68332E-004	...........
	18	4.90833	3.20002E-002	3.17977E-002	5.62432E-004	...........
EOC	QUANT	0.0320002	Open Circuit (V)
PSTATMODEL	IQUANT	4	Pstat Model
PSTATSECTION	LABEL	REF600-11020	Pstat Section
PSTATSERIALNO	LABEL	11020	Pstat Serial Number
CTRLMODE	IQUANT	1	Control Mode
IESTAB	IQUANT	0	I/E Stability
CASPEED	IQUANT	1	Control Amp Speed
CONVENTION	IQUANT	1	Current Convention
ICHRANGE	IQUANT	2	Ich Range
ICHRANGEMODE	TOGGLE	F	Ich Auto Range
ICHOFFSETENABLE	TOGGLE	T	Ich Offset Enable
ICHOFFSET	QUANT	0	Ich Offset (V)
ICHFILTER	IQUANT	3	Ich Filter
VCHRANGE	IQUANT	2	Vch Range
VCHRANGEMODE	TOGGLE	F	Vch Auto Range
VCHOFFSETENABLE	TOGGLE	T	Vch Offset Enable
VCHOFFSET	QUANT	0	Vch Offset (V)
VCHFILTER	IQUANT	3	Vch Filter
ACHRANGE	IQUANT	2	Ach Range
ACHOFFSETENABLE	TOGGLE	F	Ach Offset Enable
ACHOFFSET	QUANT	0	Ach Offset (V)
ACHFILTER	IQUANT	3	Ach Filter
IERANGELOWERLIMIT	IQUANT	1	I/E Range Lower Limit
IERANGEMODE	TOGGLE	F	I/E AutoRange
IERANGE	IQUANT	6	I/E Range
POSFEEDENABLE	TOGGLE	F	Positive Feedback IR Comp
POSFEEDRESISTANCE	QUANT	0	Positive Feedback Resistance (ohm)
ACHSELECT	IQUANT	0	Ach Select
CABLEID	IQUANT	14	Cable ID
DCCALDATE	LABEL	8/19/2019	DC Calibration Date
ACCALDATE	LABEL	8/19/2019	AC Calibration Date
THERMOSELECT	IQUANT	1	Thermo Select
FRAMEWORKVERSION	QUANT	6.33	Framework Version
INSTRUMENTVERSION	LABEL	3.50	Instrument Version
ZCURVE	TABLE
	Pt	Time	Freq	Zreal	Zimag	Zsig	Zmod	Zphz	Idc	Vdc	IERange
	#	s	Hz	ohm	ohm	V	ohm	°	A	V	#
	0	2	1000078	1012.193	-8188.091	1	8250.417	-82.95297	-2.797156E-006	0.0347239	8
	1	4	794390.6	1051.427	-10105.31	1	10159.86	-84.05991	-2.315241E-006	0.0339112	8
	2	6	630984.4	1246.449	-12772.73	1	12833.41	-84.42635	8.374161E-008	0.0339478	8
	3	8	501234.4	1484.085	-16439.37	1	16506.23	-84.84154	1.985577E-006	0.0334202	8
	4	9	398109.4	1426.631	-19928.12	1	19979.12	-85.90525	1.753426E-006	0.0332631	8
	5	11	316265.6	1544.045	-24643.19	1	24691.51	-86.41476	-2.925353E-006	0.0339955	8
	6	13	251203.1	1775.016	-30858.09	1	30909.1	-86.70786	-1.293363E-006	0.0338269	8
	7	14	199546.9	1432.639	-37655.17	1	37682.41	-87.82116	-3.041308E-006	0.0341722	8
	8	16	158578.1	4412.504	-45633.34	1	45846.18	-84.47697	-2.63029E-006	0.033905	8
	9	18	125953.1	5236.219	-59475.95	1	59706	-84.9687	-8.710023E-008	0.033891	7
	10	19	100078.1	5271.275	-74304.11	1	74490.85	-85.94212	-4.122843E-008	0.033621	7
	11	21	79453.13	6170.084	-92695.96	1	92901.09	-86.19186	-7.044226E-008	0.0337339	7
	12	23	63140.62	7803.671	-115777.9	1	116040.6	-86.14397	-6.281341E-008	0.0335475	7
	13	24	50203.12	10606.78	-144529.9	1	144918.6	-85.8027	-3.738541E-008	0.0335015	7
	14	26	39890.62	12511.13	-180701.2	1	181133.8	-86.03936	-4.367571E-008	0.0336149	7
	15	28	31640.63	12792.64	-225486.8	1	225849.4	-86.7529	3.955686E-009	0.0336449	7
	16	29	25171.88	19686.32	-280871.1	1	281560.1	-85.99068	1.114137E-007	0.0332752	7
	17	31	20015.62	41767.68	-292691.9	1	295657	-81.87862	7.383585E-008	0.0333932	7
	18	32	15890.62	26830.45	-440485.9	1	441302.2	-86.51436	1.678334E-007	0.0332482	7
	19	34	12609.37	40722.5	-540970.1	1	542500.7	-85.69508	-1.534698E-008	0.033576	6
	20	35	10078.13	50669.52	-676307.9	1	678203.4	-85.71536	-6.65061E-009	0.0334289	6
	21	37	8015.625	174355.1	-842386.2	1	860240.8	-78.30618	-9.298541E-009	0.0335728	6
	22	39	6328.125	77939.07	-1048033	1	1050927	-85.74691	2.392733E-008	0.0329924	6
	23	40	5015.625	117338.1	-1312276	1	1317511	-84.89044	8.497427E-009	0.0332253	6
	24	42	3984.375	22024.95	-1794644	1	1794779	-89.29687	-4.897716E-010	0.0336	6
	25	44	3170.956	224085.8	-2010611	1	2023060	-83.64054	-1.00625E-008	0.0336529	6
	26	46	2527.573	271116.8	-2511859	1	2526448	-83.83965	-1.034324E-008	0.0336553	6
	27	47	1976.103	272870	-2882414	1	2895301	-84.59209	-1.034069E-008	0.0336536	6
	28	49	1577.524	1083849	-2591761	1	2809262	-67.30579	-8.772333E-009	0.0337136	6
	29	51	1265.625	544938.9	-4724273	1	4755597	-83.42008	-5.976084E-010	0.0336543	5
	30	52	998.264	692877.6	-6223654	1	6262105	-83.64744	-1.780417E-009	0.0336118	5
	31	54	796.875	611205.6	-9395327	1	9415187	-86.27792	9.445375E-009	0.0332297	6
	32	56	627.7902	1711178	-9.958362E+006	1	1.010431E+007	-80.2499	6.584411E-010	0.0334933	5
	33	58	505.5147	1922845	-1.138E+007	1	1.154131E+007	-80.40948	2.408058E-009	0.0329878	5
	34	59	397.9953	4010678	-1.568842E+007	1	1.619297E+007	-75.65971	-3.480917E-011	0.0334441	5
	35	61	315.5048	7257525	-1.74109E+007	1	1.886295E+007	-67.37177	2.842179E-010	0.0334396	5
	36	62	252.4038	6773507	-1.923554E+007	1	2.039329E+007	-70.60105	-5.592694E-010	0.0334398	5
	37	64	198.6229	1.081151E+007	-3.037137E+007	1	3.223831E+007	-70.40543	-1.601822E-010	0.0334423	5
	38	65	158.3615	8749800	-2.282167E+007	1	2.444151E+007	-69.02324	-7.334581E-011	0.0334426	5
	39	67	125.558	2.354981E+007	-6.59743E+007	1	7.005142E+007	-70.35576	9.292162E-011	0.0334488	4
	40	69	100.4464	2.629024E+007	-3.269348E+007	1	4.195283E+007	-51.19574	9.627541E-011	0.0334459	5
	41	70	79.00281	1.593667E+007	-1.493252E+007	1	2.183936E+007	-43.13687	3.762242E-010	0.0334401	4
	42	72	63.3446	-4114186	3259048	1	5248611	141.6155	-1.994928E-010	0.0334403	4
	43	74	49.86702	-5.634043E+007	2.940442E+007	1	6.355206E+007	152.4397	-1.172251E-010	0.0334374	4
	44	76	39.72458	-4.631564E+007	6.630558E+007	1	8.087996E+007	124.935	-1.596627E-010	0.0334454	5
	45	77	31.6723	3.329686E+007	-1.213219E+007	1	3.543827E+007	-20.01995	9.650418E-011	0.0334367	5
	46	79	24.93351	7.217905E+007	-1.011555E+008	1	1.242669E+008	-54.49042	-3.505834E-011	0.0334374	4
	47	81	19.86229	898486.3	-5.142259E+007	1	5.143044E+007	-88.99899	-2.632717E-010	0.0334402	4
	48	82	15.83615	-1.492777E+007	1.041871E+007	1	1.820406E+007	145.0872	9.951244E-010	0.0334297	4
	49	84	12.40079	1.312576E+007	7995526	1	1.536925E+007	31.3476	-1.015384E-009	0.0334463	4
	50	86	9.93114	8.437366E+007	-4553391	1	8.449643E+007	-3.089083	7.871002E-011	0.0334374	4
	51	87	7.944915	3.226061E+007	1.154537E+007	1	3.42643E+007	19.69119	-3.661309E-010	0.0334374	5
	52	90	6.317385	1.229079E+008	-4.421962E+007	1	1.306206E+008	-19.78764	-1.634711E-011	0.0334365	4
	53	92	5.008013	1.019482E+008	-1.438184E+007	1	1.029576E+008	-8.029734	-4.284264E-011	0.0334502	4
	54	95	3.945707	8.42495E+007	-1.045429E+008	1	1.342654E+008	-51.1352	9.99185E-011	0.0334445	4
	55	99	3.158693	1.465756E+008	-2.259842E+007	1	1.483074E+008	-8.764618	1.015714E-011	0.0334538	4
	56	103	2.504006	4.453377E+008	-5.241074E+007	1	4.484111E+008	-6.71213	3.801955E-011	0.0334276	3
	57	107	1.998082	4.536884E+008	-6.280428E+007	1	4.580147E+008	-7.881391	3.824029E-011	0.033417	3
	58	112	1.584686	4.59768E+008	-4.742279E+007	1	4.622072E+008	-5.88895	3.809164E-011	0.0334788	3
	59	117	1.266892	4.145136E+009	-1.099287E+009	1	4.288425E+009	-14.8529	-5.232317E-014	0.033421	2
	60	124	0.999041	4.273162E+009	-9.568575E+008	1	4.378983E+009	-12.62161	-1.824813E-013	0.0334773	2
