EXPLAIN
TAG	EISPOT
TITLE	LABEL	Potentiostatic IDE	Test &Identifier
DATE	LABEL	9/4/2019	Date
TIME	LABEL	12:29:48	Time
NOTES	NOTES	1	&Notes...
	
PSTAT	PSTAT	REF600-11020	Potentiostat
VDC	POTEN	0.00000E+000	T	DC &Voltage (V)
FREQINIT	QUANT	1.00000E+006	Initial Fre&q. (Hz)
FREQFINAL	QUANT	1.00000E+000	Final Fre&q. (Hz)
PTSPERDEC	QUANT	1.00000E+001	Points/&decade
VAC	QUANT	2.50000E+001	AC &Voltage (mV rms)
AREA	QUANT	1.00000E-002	&Area (cm^2)
CONDIT	TWOPARAM	T	5.00000E+000	0.00000E+000	Conditionin&g	Time(s)	E(V)
DELAY	TWOPARAM	T	5.00000E+000	0.00000E+000	Init. De&lay	Time(s)	Stab.(mV/s)
SPEED	SELECTOR	1	&Optimize for:
ZGUESS	QUANT	1.00000E+007	E&stimated Z (ohms)
OCVCURVE	TABLE	19
	Pt	T	Vf	Vm	Ach	Over
	#	s	V vs. Ref.	V	V	bits
	0	0.258333	5.78617E-002	5.78617E-002	5.68366E-004	...........
	1	0.516667	5.78626E-002	5.79093E-002	5.70166E-004	...........
	2	0.775	5.78697E-002	5.80342E-002	5.67899E-004	...........
	3	1.03333	5.78959E-002	5.82042E-002	5.71032E-004	...........
	4	1.29167	5.79577E-002	5.84240E-002	5.70566E-004	...........
	5	1.55	5.80672E-002	5.86774E-002	5.70899E-004	...........
	6	1.80833	5.82260E-002	5.89023E-002	5.73932E-004	...........
	7	2.06667	5.84239E-002	5.90760E-002	5.69566E-004	...........
	8	2.325	5.86430E-002	5.94076E-002	5.72566E-004	...........
	9	2.58333	5.88723E-002	5.96244E-002	5.72666E-004	...........
	10	2.84167	5.91112E-002	5.98898E-002	5.70032E-004	...........
	11	3.1	5.93594E-002	6.01382E-002	5.71932E-004	...........
	12	3.35833	5.96119E-002	6.03790E-002	5.74665E-004	...........
	13	3.61667	5.98641E-002	6.06195E-002	5.77266E-004	...........
	14	3.875	6.01130E-002	6.08467E-002	5.74132E-004	...........
	15	4.13333	6.03569E-002	6.10868E-002	5.72299E-004	...........
	16	4.39167	6.05957E-002	6.12964E-002	5.74099E-004	...........
	17	4.65	6.08294E-002	6.15216E-002	5.71199E-004	...........
	18	4.90833	6.10578E-002	6.17316E-002	5.72199E-004	...........
EOC	QUANT	0.0610578	Open Circuit (V)
PSTATMODEL	IQUANT	4	Pstat Model
PSTATSECTION	LABEL	REF600-11020	Pstat Section
PSTATSERIALNO	LABEL	11020	Pstat Serial Number
CTRLMODE	IQUANT	1	Control Mode
IESTAB	IQUANT	0	I/E Stability
CASPEED	IQUANT	1	Control Amp Speed
CONVENTION	IQUANT	1	Current Convention
ICHRANGE	IQUANT	2	Ich Range
ICHRANGEMODE	TOGGLE	F	Ich Auto Range
ICHOFFSETENABLE	TOGGLE	T	Ich Offset Enable
ICHOFFSET	QUANT	0	Ich Offset (V)
ICHFILTER	IQUANT	3	Ich Filter
VCHRANGE	IQUANT	2	Vch Range
VCHRANGEMODE	TOGGLE	F	Vch Auto Range
VCHOFFSETENABLE	TOGGLE	T	Vch Offset Enable
VCHOFFSET	QUANT	0	Vch Offset (V)
VCHFILTER	IQUANT	3	Vch Filter
ACHRANGE	IQUANT	2	Ach Range
ACHOFFSETENABLE	TOGGLE	F	Ach Offset Enable
ACHOFFSET	QUANT	0	Ach Offset (V)
ACHFILTER	IQUANT	3	Ach Filter
IERANGELOWERLIMIT	IQUANT	1	I/E Range Lower Limit
IERANGEMODE	TOGGLE	F	I/E AutoRange
IERANGE	IQUANT	4	I/E Range
POSFEEDENABLE	TOGGLE	F	Positive Feedback IR Comp
POSFEEDRESISTANCE	QUANT	0	Positive Feedback Resistance (ohm)
ACHSELECT	IQUANT	0	Ach Select
CABLEID	IQUANT	14	Cable ID
DCCALDATE	LABEL	8/19/2019	DC Calibration Date
ACCALDATE	LABEL	8/19/2019	AC Calibration Date
THERMOSELECT	IQUANT	1	Thermo Select
FRAMEWORKVERSION	QUANT	6.33	Framework Version
INSTRUMENTVERSION	LABEL	3.50	Instrument Version
ZCURVE	TABLE
	Pt	Time	Freq	Zreal	Zimag	Zsig	Zmod	Zphz	Idc	Vdc	IERange
	#	s	Hz	ohm	ohm	V	ohm	°	A	V	#
	0	2	1000078	2457.25	-1902.737	1	3107.81	-37.7519	1.094939E-005	0.0624416	8
	1	4	794390.6	2807.805	-1799.801	1	3335.124	-32.65983	1.289947E-005	0.0618195	8
	2	5	630984.4	3114.344	-1660.767	1	3529.488	-28.06938	9.846253E-006	0.0624527	8
	3	7	501234.4	3377.034	-1505.807	1	3697.542	-24.03192	1.47896E-005	0.0615692	8
	4	8	398109.4	3580.454	-1352.291	1	3827.315	-20.6909	1.320948E-005	0.0614307	8
	5	10	316265.6	3724.675	-1210.384	1	3916.406	-18.00228	1.36705E-005	0.0617648	8
	6	11	251203.1	3891.568	-1055.929	1	4032.28	-15.18099	1.376383E-005	0.0615623	8
	7	13	199546.9	4000.959	-983.611	1	4120.092	-13.8119	1.036644E-005	0.0622471	8
	8	14	158578.1	4059.068	-933.9905	1	4165.138	-12.95819	1.236456E-005	0.0618997	8
	9	16	125953.1	4064.743	-904.9799	1	4164.268	-12.55169	1.351022E-006	0.0616284	7
	10	18	100078.1	4199.155	-869.6393	1	4288.26	-11.70047	1.027966E-006	0.0623045	7
	11	19	79453.13	4266.866	-884.8148	1	4357.642	-11.71531	1.086943E-006	0.0622213	7
	12	20	63140.62	4337.243	-929.9256	1	4435.813	-12.10128	1.056403E-006	0.0623025	7
	13	22	50203.12	4414.171	-1000.251	1	4526.081	-12.7676	1.121119E-006	0.0621854	7
	14	23	39890.62	4490.315	-1098.108	1	4622.637	-13.74199	1.123715E-006	0.0621816	7
	15	24	31640.63	4582.952	-1227.892	1	4744.594	-14.99876	1.064075E-006	0.0622244	7
	16	26	25171.88	4686.782	-1389.704	1	4888.477	-16.51591	1.064801E-006	0.0622242	7
	17	27	20015.62	4800.77	-1588.197	1	5056.655	-18.30531	1.040668E-006	0.0622759	7
	18	28	15890.62	4932.047	-1828.022	1	5259.919	-20.3368	1.059239E-006	0.0622479	7
	19	30	12609.37	5092.438	-2123.395	1	5517.402	-22.63469	1.034406E-006	0.0623162	7
	20	31	10078.13	5264.427	-2465.575	1	5813.196	-25.09587	1.032138E-006	0.0623773	7
	21	32	8015.625	5466.887	-2882.517	1	6180.271	-27.80127	1.078867E-006	0.0622692	7
	22	34	6328.125	5709.719	-3382.896	1	6636.631	-30.6459	1.044926E-006	0.0622573	7
	23	35	5015.625	5993.542	-3986.187	1	7198.071	-33.6271	1.054216E-006	0.0622651	7
	24	36	3984.375	6325.324	-4686.233	1	7872.135	-36.53358	1.047314E-006	0.0622108	7
	25	38	3170.956	6710.985	-5513.982	1	8685.696	-39.40773	1.086476E-006	0.0622174	7
	26	39	2527.573	7160.886	-6493.207	1	9666.44	-42.20049	1.046979E-006	0.0622283	7
	27	40	1976.103	7733.129	-7769.404	1	10961.98	-45.13407	1.026621E-006	0.0623055	7
	28	42	1577.524	8368.939	-9116.023	1	12375.02	-47.4466	1.089078E-006	0.0622077	7
	29	43	1265.625	9089.986	-10705.05	1	14043.71	-49.66439	1.109998E-007	0.0620664	6
	30	44	998.264	10006.45	-12718.58	1	16183.05	-51.80579	1.038066E-007	0.0622659	6
	31	46	796.875	11065.47	-14999.62	1	18639.56	-53.58318	1.056605E-007	0.0621145	6
	32	47	627.7902	12379.13	-17838.98	1	21713.41	-55.24178	1.050123E-007	0.0622278	6
	33	48	505.5147	13795	-20897.87	1	25040.43	-56.57061	1.056452E-007	0.0621789	6
	34	50	397.9953	15675.29	-24824.33	1	29359.19	-57.7297	1.049522E-007	0.061853	6
	35	51	315.5048	17845.44	-29363.31	1	34360.79	-58.71101	1.043885E-007	0.0618549	6
	36	52	252.4038	20334.81	-34478.65	1	40028.51	-59.46876	1.046444E-007	0.0618534	6
	37	54	198.6229	23510.84	-40945.1	1	47215.04	-60.13539	1.045931E-007	0.0618528	6
	38	55	158.3615	27072.27	-48128.16	1	55219.81	-60.64209	1.045795E-007	0.0618452	6
	39	56	125.558	31461.34	-56725.77	1	64866.23	-60.9863	1.045564E-007	0.061853	6
	40	58	100.4464	36371.21	-66519.05	1	75813.26	-61.33109	1.047499E-007	0.0618538	6
	41	59	79.00281	42879.82	-78615.02	1	89548.88	-61.39016	1.047958E-007	0.0618468	6
	42	60	63.3446	50538.75	-91962.28	1	104934.4	-61.20858	1.044119E-007	0.0618494	6
	43	62	49.86702	57337.73	-108441.6	1	122667	-62.13266	1.045626E-007	0.061845	6
	44	63	39.72458	67737.54	-126529.2	1	143520.1	-61.83759	1.050758E-008	0.0618629	5
	45	65	31.6723	79005.82	-148067	1	167826.5	-61.91644	1.050786E-008	0.0618538	5
	46	66	24.93351	92450.1	-175034.3	1	197949.6	-62.15776	1.064682E-008	0.0618583	5
	47	67	19.86229	107286.6	-205258.2	1	231606	-62.40435	1.038619E-008	0.0618544	5
	48	69	15.83615	126003.5	-242239.8	1	273051.3	-62.51834	9.939333E-009	0.0618586	5
	49	70	12.40079	147959.5	-283514.3	1	319800.5	-62.44099	1.007156E-008	0.0618611	5
	50	71	9.93114	169387.8	-333760.4	1	374283.7	-63.0916	1.052088E-008	0.0618521	5
	51	73	7.944915	196435.8	-389956.1	1	436638	-63.26385	1.034421E-008	0.0618584	5
	52	75	6.317385	230169.2	-460628.1	1	514933.1	-63.44936	1.049496E-008	0.0618626	5
	53	77	5.008013	269741.2	-544037.4	1	607237.3	-63.62716	1.055899E-008	0.0618528	5
	54	79	3.945707	317250.1	-648474.9	1	721919.2	-63.93097	1.045133E-007	0.0618497	6
	55	82	3.158693	372184.3	-759593.1	1	845874.1	-63.89614	1.0534E-008	0.0618747	5
	56	86	2.504006	439247.5	-898938.8	1	1000515	-63.95853	1.033579E-008	0.0621439	5
	57	88	1.998082	519619.9	-1056873	1	1177703	-63.81859	1.042273E-008	0.0621002	5
	58	92	1.584686	615256.4	-1247811	1	1391249	-63.75355	1.065085E-009	0.0621419	4
	59	95	1.266892	733015.7	-1465450	1	1638553	-63.42585	1.116582E-009	0.0620981	4
	60	100	0.999041	880440.8	-1729982	1	1941137	-63.02707	1.099052E-009	0.0621872	4
