EXPLAIN
TAG	EISPOT
TITLE	LABEL	Potentiostatic EIS	Test &Identifier
DATE	LABEL	11/21/2019	Date
TIME	LABEL	23:49:12	Time
NOTES	NOTES	4	&Notes...
	
	
	
	
PSTAT	PSTAT	REF600-11020	Potentiostat
VDC	POTEN	0.00000E+000	T	DC &Voltage (V)
FREQINIT	QUANT	1.00000E+006	Initial Fre&q. (Hz)
FREQFINAL	QUANT	1.00000E+000	Final Fre&q. (Hz)
PTSPERDEC	QUANT	1.00000E+001	Points/&decade
VAC	QUANT	2.50000E+001	AC &Voltage (mV rms)
AREA	QUANT	1.00000E-002	&Area (cm^2)
CONDIT	TWOPARAM	T	5.00000E+000	0.00000E+000	Conditionin&g	Time(s)	E(V)
DELAY	TWOPARAM	T	5.00000E+000	0.00000E+000	Init. De&lay	Time(s)	Stab.(mV/s)
SPEED	SELECTOR	1	&Optimize for:
ZGUESS	QUANT	1.00000E+005	E&stimated Z (ohms)
OCVCURVE	TABLE	19
	Pt	T	Vf	Vm	Ach	Over
	#	s	V vs. Ref.	V	V	bits
	0	0.258333	1.69464E-003	1.69464E-003	5.58632E-004	...........
	1	0.516667	1.69040E-003	1.47244E-003	5.62466E-004	...........
	2	0.775	1.66501E-003	1.29743E-003	5.58266E-004	...........
	3	1.03333	1.59581E-003	1.14794E-003	5.52599E-004	...........
	4	1.29167	1.47709E-003	9.61186E-004	5.58266E-004	...........
	5	1.55	1.32438E-003	8.07721E-004	5.56499E-004	...........
	6	1.80833	1.15738E-003	6.58075E-004	5.55166E-004	...........
	7	2.06667	9.89595E-004	5.14448E-004	5.57099E-004	...........
	8	2.325	8.28248E-004	3.83270E-004	5.58932E-004	...........
	9	2.58333	6.75989E-004	2.58378E-004	5.57132E-004	...........
	10	2.84167	5.33026E-004	1.35954E-004	5.61932E-004	...........
	11	3.1	3.98523E-004	2.27809E-005	5.58666E-004	...........
	12	3.35833	2.71370E-004	-8.20602E-005	5.60199E-004	...........
	13	3.61667	1.50908E-004	-1.86888E-004	5.57066E-004	...........
	14	3.875	3.67016E-005	-2.87869E-004	5.58899E-004	...........
	15	4.13333	-7.21219E-005	-3.85195E-004	5.52999E-004	...........
	16	4.39167	-1.76696E-004	-4.81843E-004	5.53733E-004	...........
	17	4.65	-2.77733E-004	-5.64835E-004	5.49466E-004	...........
	18	4.90833	-3.75013E-004	-6.46525E-004	5.54633E-004	...........
EOC	QUANT	-0.000375	Open Circuit (V)
PSTATMODEL	IQUANT	4	Pstat Model
PSTATSECTION	LABEL	REF600-11020	Pstat Section
PSTATSERIALNO	LABEL	11020	Pstat Serial Number
CTRLMODE	IQUANT	1	Control Mode
IESTAB	IQUANT	0	I/E Stability
CASPEED	IQUANT	1	Control Amp Speed
CONVENTION	IQUANT	1	Current Convention
ICHRANGE	IQUANT	2	Ich Range
ICHRANGEMODE	TOGGLE	F	Ich Auto Range
ICHOFFSETENABLE	TOGGLE	T	Ich Offset Enable
ICHOFFSET	QUANT	0	Ich Offset (V)
ICHFILTER	IQUANT	3	Ich Filter
VCHRANGE	IQUANT	2	Vch Range
VCHRANGEMODE	TOGGLE	F	Vch Auto Range
VCHOFFSETENABLE	TOGGLE	T	Vch Offset Enable
VCHOFFSET	QUANT	0	Vch Offset (V)
VCHFILTER	IQUANT	3	Vch Filter
ACHRANGE	IQUANT	2	Ach Range
ACHOFFSETENABLE	TOGGLE	F	Ach Offset Enable
ACHOFFSET	QUANT	0	Ach Offset (V)
ACHFILTER	IQUANT	3	Ach Filter
IERANGELOWERLIMIT	IQUANT	1	I/E Range Lower Limit
IERANGEMODE	TOGGLE	F	I/E AutoRange
IERANGE	IQUANT	3	I/E Range
POSFEEDENABLE	TOGGLE	F	Positive Feedback IR Comp
POSFEEDRESISTANCE	QUANT	0	Positive Feedback Resistance (ohm)
ACHSELECT	IQUANT	0	Ach Select
CABLEID	IQUANT	14	Cable ID
DCCALDATE	LABEL	8/19/2019	DC Calibration Date
ACCALDATE	LABEL	8/19/2019	AC Calibration Date
THERMOSELECT	IQUANT	1	Thermo Select
FRAMEWORKVERSION	QUANT	6.33	Framework Version
INSTRUMENTVERSION	LABEL	3.50	Instrument Version
ZCURVE	TABLE
	Pt	Time	Freq	Zreal	Zimag	Zsig	Zmod	Zphz	Idc	Vdc	IERange
	#	s	Hz	ohm	ohm	V	ohm	°	A	V	#
	0	1	1000078	1886.757	-1000.847	1	2135.778	-27.94412	-9.943909E-007	0.0022334	8
	1	3	794390.6	2049.79	-977.82	1	2271.073	-25.50274	-1.434531E-010	0.0009332	8
	2	4	630984.4	2215.639	-933.3053	1	2404.187	-22.84254	-3.190985E-006	0.001797	8
	3	5	501234.4	2365.275	-886.1708	1	2525.832	-20.5389	-4.539296E-006	0.0014654	8
	4	7	398109.4	2499.306	-831.1207	1	2633.874	-18.39406	-4.872251E-007	0.0014905	8
	5	8	316265.6	2634.929	-765.2408	1	2743.801	-16.19445	2.030154E-006	0.0012765	8
	6	10	251203.1	2744.3	-702.4642	1	2832.779	-14.35784	-9.054937E-007	0.0014289	8
	7	11	199546.9	2848.725	-639.2394	1	2919.565	-12.64738	-5.953823E-006	0.0018669	8
	8	12	158578.1	2923.127	-579.3294	1	2979.982	-11.21008	-2.368272E-007	0.0014425	8
	9	14	125953.1	3018.63	-473.1943	1	3055.493	-8.909067	1.525967E-006	-0.0042178	7
	10	15	100078.1	3063.499	-418.9397	1	3092.012	-7.787012	-3.165361E-007	0.0002076	7
	11	16	79453.13	3110.711	-383.774	1	3134.295	-7.033144	1.042301E-006	-0.0001513	7
	12	18	63140.62	3146.869	-353.6079	1	3166.674	-6.411327	9.080886E-007	-0.0006442	7
	13	19	50203.12	3179.092	-329.9872	1	3196.172	-5.926034	7.10246E-007	-0.0007049	7
	14	20	39890.62	3210.983	-315.7206	1	3226.468	-5.615569	8.084203E-007	0.0006917	7
	15	22	31640.63	3238.574	-307.9243	1	3253.18	-5.431366	9.740522E-007	0.0002322	7
	16	23	25171.88	3257.951	-305.7913	1	3272.271	-5.362072	-7.132699E-007	0.0008497	7
	17	24	20015.62	3287.256	-314.2164	1	3302.239	-5.4601	-3.156266E-007	0.0001978	7
	18	26	15890.62	3311.239	-329.0037	1	3327.543	-5.674268	9.682331E-008	0.0018335	7
	19	27	12609.37	3338.369	-352.0748	1	3356.883	-6.020337	4.293843E-007	-0.0005878	7
	20	28	10078.13	3358.5	-384.4101	1	3380.428	-6.529594	-1.031058E-006	0.0025178	7
	21	30	8015.625	3388.183	-434.8346	1	3415.972	-7.313283	4.045903E-007	0.0014092	7
	22	31	6328.125	3419.494	-489.3484	1	3454.33	-8.144049	4.326347E-007	-0.0005958	7
	23	32	5015.625	3454.19	-564.4499	1	3500.004	-9.280689	9.752212E-007	0.0002341	7
	24	34	3984.375	3481.947	-654.9004	1	3543	-10.65201	-3.177191E-007	0.0001886	7
	25	35	3170.956	3527.178	-772.0163	1	3610.678	-12.346	9.751274E-007	0.0002348	7
	26	37	2527.573	3563.665	-911.338	1	3678.348	-14.34485	-5.663217E-007	0.0024594	7
	27	38	1976.103	3615.14	-1101.724	1	3779.29	-16.94875	-5.656966E-007	0.0024555	7
	28	39	1577.524	3669.279	-1332.294	1	3903.667	-19.95567	9.761932E-007	0.0002291	7
	29	41	1265.625	3732.733	-1575.583	1	4051.636	-22.88456	-2.497457E-007	0.0022084	7
	30	42	998.264	3810.859	-1917.645	1	4266.147	-26.71179	4.044883E-007	0.001403	7
	31	43	796.875	3897.255	-2312.6	1	4531.745	-30.68456	-3.165236E-007	0.0001829	7
	32	45	627.7902	4006.136	-2833.337	1	4906.824	-35.26983	-1.166226E-006	0.0020169	7
	33	46	505.5147	4132.066	-3415.008	1	5360.62	-39.57254	-1.032112E-006	0.0025032	7
	34	47	397.9953	4304.368	-4209.937	1	6020.893	-44.36457	7.495279E-009	0.0009744	7
	35	49	315.5048	4513.61	-5153.364	1	6850.536	-48.78627	6.202845E-009	0.0009721	7
	36	50	252.4038	4769.087	-6261.369	1	7870.764	-52.70462	4.172002E-009	0.0009732	7
	37	51	198.6229	5122.913	-7717.606	1	9263.136	-56.42397	5.62883E-009	0.0009752	7
	38	53	158.3615	5559.616	-9399.783	1	10920.86	-59.39729	1.588663E-009	0.0009102	6
	39	54	125.558	6141.093	-11489.88	1	13028.06	-61.87645	1.166572E-009	0.0009091	6
	40	56	100.4464	6878.35	-13920.71	1	15527.33	-63.70561	1.208319E-009	0.0009075	6
	41	57	79.00281	7887.335	-17048	1	18784.15	-65.17216	7.530772E-010	0.0009122	6
	42	58	63.3446	9066.656	-20591.56	1	22499.26	-66.23566	6.233135E-010	0.0009129	6
	43	60	49.86702	10895.82	-24872.63	1	27154.49	-66.34348	-6.402349E-010	0.0009123	6
	44	61	39.72458	13102.97	-29954.81	1	32695.23	-66.37425	3.582561E-011	0.0009174	6
	45	62	31.6723	15855.68	-35651.16	1	39018.05	-66.02313	8.559911E-010	0.0009175	6
	46	64	24.93351	19603.95	-42721.93	1	47005.09	-65.35088	-1.930228E-011	0.0009072	6
	47	65	19.86229	23979.43	-50366.89	1	55783.84	-64.54111	-2.421413E-010	0.000913	6
	48	66	15.83615	29507.81	-59164.23	1	66114.42	-63.49255	2.698467E-009	0.0009191	6
	49	68	12.40079	36057.8	-69487.75	1	78286.09	-62.57481	1.285351E-009	0.0009075	6
	50	69	9.93114	43841.24	-79831.69	1	91077.73	-61.22569	1.729885E-009	0.0009129	6
	51	71	7.944915	52276.85	-91539.54	1	105415.2	-60.26996	-9.836094E-010	0.000911	5
	52	73	6.317385	62428.2	-105112.7	1	122253.6	-59.2932	-3.654849E-010	0.0009172	5
	53	75	5.008013	73831.58	-120540.2	1	141354.3	-58.51228	-9.636782E-011	0.0009095	5
	54	77	3.945707	86576.99	-138521	1	163351.3	-57.99421	7.505055E-010	0.0009251	5
	55	79	3.158693	99634.4	-157800	1	186622.2	-57.73183	-9.198277E-011	0.0009013	5
	56	83	2.504006	114112.1	-181242.4	1	214173.7	-57.80505	5.746094E-010	0.0009106	5
	57	85	1.998082	128929.9	-208104.1	1	244806.5	-58.21992	7.80484E-011	0.0009582	5
	58	89	1.584686	144829.6	-242230.8	1	282225.7	-59.12483	2.498778E-010	0.0009475	5
	59	92	1.266892	162522.3	-281484.1	1	325033.6	-59.99887	1.291781E-011	0.0009549	5
	60	97	0.999041	183064.5	-333239	1	380211.6	-61.21785	2.548458E-010	0.0009045	5
