EXPLAIN
TAG	EISPOT
TITLE	LABEL	Potentiostatic EIS	Test &Identifier
DATE	LABEL	11/15/2019	Date
TIME	LABEL	11:23:41	Time
NOTES	NOTES	4	&Notes...
	
	
	
	
PSTAT	PSTAT	REF600-11020	Potentiostat
VDC	POTEN	0.00000E+000	T	DC &Voltage (V)
FREQINIT	QUANT	1.00000E+006	Initial Fre&q. (Hz)
FREQFINAL	QUANT	1.00000E+000	Final Fre&q. (Hz)
PTSPERDEC	QUANT	1.00000E+001	Points/&decade
VAC	QUANT	2.50000E+001	AC &Voltage (mV rms)
AREA	QUANT	1.00000E-002	&Area (cm^2)
CONDIT	TWOPARAM	T	5.00000E+000	0.00000E+000	Conditionin&g	Time(s)	E(V)
DELAY	TWOPARAM	T	5.00000E+000	0.00000E+000	Init. De&lay	Time(s)	Stab.(mV/s)
SPEED	SELECTOR	0	&Optimize for:
ZGUESS	QUANT	1.00000E+005	E&stimated Z (ohms)
OCVCURVE	TABLE	19
	Pt	T	Vf	Vm	Ach	Over
	#	s	V vs. Ref.	V	V	bits
	0	0.258333	7.16787E-003	7.16787E-003	5.64966E-004	...........
	1	0.516667	7.16942E-003	7.24911E-003	5.66099E-004	...........
	2	0.775	7.17921E-003	7.33975E-003	5.65999E-004	...........
	3	1.03333	7.20785E-003	7.43048E-003	5.70166E-004	...........
	4	1.29167	7.26126E-003	7.52778E-003	5.68232E-004	...........
	5	1.55	7.33638E-003	7.63875E-003	5.61332E-004	...........
	6	1.80833	7.42622E-003	7.74380E-003	5.68499E-004	...........
	7	2.06667	7.52496E-003	7.84492E-003	5.64899E-004	...........
	8	2.325	7.62818E-003	7.94640E-003	5.66299E-004	...........
	9	2.58333	7.73248E-003	8.04827E-003	5.67899E-004	...........
	10	2.84167	7.83598E-003	8.14820E-003	5.58432E-004	...........
	11	3.1	7.93815E-003	8.24028E-003	5.60566E-004	...........
	12	3.35833	8.03860E-003	8.33564E-003	5.57333E-004	...........
	13	3.61667	8.13691E-003	8.42996E-003	5.60466E-004	...........
	14	3.875	8.23315E-003	8.52010E-003	5.66099E-004	...........
	15	4.13333	8.32772E-003	8.61150E-003	5.58399E-004	...........
	16	4.39167	8.42085E-003	8.69878E-003	5.64199E-004	...........
	17	4.65	8.51258E-003	8.79009E-003	5.64466E-004	...........
	18	4.90833	8.60316E-003	8.87911E-003	5.64832E-004	...........
EOC	QUANT	0.0086032	Open Circuit (V)
PSTATMODEL	IQUANT	4	Pstat Model
PSTATSECTION	LABEL	REF600-11020	Pstat Section
PSTATSERIALNO	LABEL	11020	Pstat Serial Number
CTRLMODE	IQUANT	1	Control Mode
IESTAB	IQUANT	0	I/E Stability
CASPEED	IQUANT	1	Control Amp Speed
CONVENTION	IQUANT	1	Current Convention
ICHRANGE	IQUANT	2	Ich Range
ICHRANGEMODE	TOGGLE	F	Ich Auto Range
ICHOFFSETENABLE	TOGGLE	T	Ich Offset Enable
ICHOFFSET	QUANT	0	Ich Offset (V)
ICHFILTER	IQUANT	3	Ich Filter
VCHRANGE	IQUANT	2	Vch Range
VCHRANGEMODE	TOGGLE	F	Vch Auto Range
VCHOFFSETENABLE	TOGGLE	T	Vch Offset Enable
VCHOFFSET	QUANT	0	Vch Offset (V)
VCHFILTER	IQUANT	3	Vch Filter
ACHRANGE	IQUANT	2	Ach Range
ACHOFFSETENABLE	TOGGLE	F	Ach Offset Enable
ACHOFFSET	QUANT	0	Ach Offset (V)
ACHFILTER	IQUANT	3	Ach Filter
IERANGELOWERLIMIT	IQUANT	1	I/E Range Lower Limit
IERANGEMODE	TOGGLE	F	I/E AutoRange
IERANGE	IQUANT	5	I/E Range
POSFEEDENABLE	TOGGLE	F	Positive Feedback IR Comp
POSFEEDRESISTANCE	QUANT	0	Positive Feedback Resistance (ohm)
ACHSELECT	IQUANT	0	Ach Select
CABLEID	IQUANT	14	Cable ID
DCCALDATE	LABEL	8/19/2019	DC Calibration Date
ACCALDATE	LABEL	8/19/2019	AC Calibration Date
THERMOSELECT	IQUANT	1	Thermo Select
FRAMEWORKVERSION	QUANT	6.33	Framework Version
INSTRUMENTVERSION	LABEL	3.50	Instrument Version
ZCURVE	TABLE
	Pt	Time	Freq	Zreal	Zimag	Zsig	Zmod	Zphz	Idc	Vdc	IERange
	#	s	Hz	ohm	ohm	V	ohm	°	A	V	#
	0	1	1000078	2250.796	-1922.538	1	2960.107	-40.50259	3.992146E-007	0.0100842	8
	1	1	794390.6	2647.704	-1904.904	1	3261.747	-35.73331	-8.596238E-006	0.011516	8
	2	2	630984.4	3034.922	-1861.67	1	3560.417	-31.52562	4.6245E-006	0.0095563	8
	3	2	501234.4	3349.747	-1753.034	1	3780.732	-27.62455	-3.935314E-006	0.0107329	8
	4	2	398109.4	3648.155	-1625.189	1	3993.779	-24.01213	-4.475718E-006	0.0104047	8
	5	2	316265.6	3905.551	-1475.059	1	4174.821	-20.69068	5.207951E-008	0.0097369	8
	6	3	251203.1	4116.8	-1333.268	1	4327.314	-17.94509	-2.062974E-006	0.0101697	8
	7	3	199546.9	4276.272	-1190.164	1	4438.806	-15.55285	-1.507488E-006	0.009808	8
	8	3	158578.1	4387.215	-1098.159	1	4522.567	-14.0529	6.378756E-007	0.0104504	8
	9	4	125953.1	4554.572	-904.0921	1	4643.438	-11.22739	1.838067E-006	0.004021	7
	10	4	100078.1	4646.388	-828.0513	1	4719.596	-10.10482	5.493241E-007	0.0081812	7
	11	4	79453.13	4726.396	-774.184	1	4789.381	-9.302444	4.023759E-007	0.010622	7
	12	5	63140.62	4803.003	-731.7217	1	4858.421	-8.662218	8.926381E-007	0.0098052	7
	13	5	50203.12	4870.877	-707.6343	1	4922.011	-8.266022	1.203707E-006	0.0087902	7
	14	5	39890.62	4931.043	-695.121	1	4979.797	-8.024018	5.498507E-007	0.0081711	7
	15	6	31640.63	4992.296	-703.1686	1	5041.574	-8.017411	1.452643E-007	0.008491	7
	16	6	25171.88	5058.349	-728.131	1	5110.486	-8.191255	-3.385782E-007	0.0115001	7
	17	6	20015.62	5123.771	-770.2094	1	5181.337	-8.54874	-3.174253E-007	0.0090526	7
	18	6	15890.62	5202.616	-830.5135	1	5268.488	-9.06982	1.102031E-006	0.0092621	7
	19	7	12609.37	5269.742	-905.6581	1	5346.999	-9.75159	-1.345542E-006	0.0115795	7
	20	7	10078.13	5343.726	-995.468	1	5435.656	-10.55252	5.730853E-008	0.0110793	7
	21	7	8015.625	5448.863	-1121.275	1	5563.036	-11.62809	5.49996E-007	0.0081607	7
	22	8	6328.125	5545.285	-1268.878	1	5688.605	-12.88859	-1.20878E-006	0.0117633	7
	23	8	5015.625	5672.368	-1455.041	1	5856.014	-14.38696	1.19404E-006	0.0084108	7
	24	8	3984.375	5797.343	-1673.707	1	6034.109	-16.10355	1.085352E-006	0.0081593	7
	25	9	3170.956	5936.572	-1925.742	1	6241.104	-17.97234	8.983452E-007	0.0097977	7
	26	9	2527.573	6081.563	-2221.418	1	6474.574	-20.06578	-1.135174E-006	0.0105316	7
	27	9	1976.103	6274.912	-2617.309	1	6798.884	-22.64135	-3.251951E-007	0.0090412	7
	28	10	1577.524	6455.65	-3027.827	1	7130.438	-25.12751	-9.920952E-007	0.0118325	7
	29	10	1265.625	6682.77	-3556.549	1	7570.234	-28.02176	-3.377078E-007	0.0114916	7
	30	10	998.264	6929.92	-4210.619	1	8108.829	-31.28286	-1.345051E-006	0.0115711	7
	31	11	796.875	7215.879	-4978.511	1	8766.669	-34.60328	1.10006E-006	0.009253	7
	32	11	627.7902	7520.541	-5941.671	1	9584.47	-38.31082	-7.867277E-007	0.0097901	7
	33	11	505.5147	7858.021	-7036.609	1	10548.1	-41.84344	9.000488E-007	0.0097891	7
	34	12	397.9953	8264.138	-8479.793	1	11840.73	-45.73791	1.264041E-009	0.0100244	7
	35	12	315.5048	8724.487	-10209.9	1	13429.77	-49.48568	1.258255E-009	0.009957	6
	36	12	252.4038	9232.188	-12248.42	1	15338.09	-52.99301	-4.618481E-010	0.0099611	6
	37	13	198.6229	9878.25	-14947.78	1	17916.92	-56.54125	-1.788151E-010	0.0099674	6
	38	13	158.3615	10597.22	-18084.11	1	20960.35	-59.62985	4.840988E-010	0.0099608	6
	39	13	125.558	11508.64	-22052.15	1	24874.61	-62.44071	7.936915E-013	0.0099604	6
	40	14	100.4464	12572.21	-26730.02	1	29539.03	-64.81049	-9.804003E-010	0.0099601	6
	41	14	79.00281	14026.66	-32964.43	1	35824.58	-66.94982	6.70737E-010	0.0099477	6
	42	14	63.3446	15582.83	-39459.7	1	42425.14	-68.45068	1.100922E-010	0.0099448	6
	43	15	49.86702	18368.19	-48675	1	52025.43	-69.3253	1.33297E-010	0.0099581	6
	44	15	39.72458	21513.65	-59571.66	1	63337.35	-70.14337	2.323335E-010	0.0099473	6
	45	15	31.6723	25562.17	-72140.92	1	76535.86	-70.4889	8.42577E-010	0.0099573	6
	46	16	24.93351	31669.94	-88421.31	1	93921.85	-70.29395	3.440624E-011	0.0099629	6
	47	16	19.86229	39073.77	-106802.2	1	113725.4	-69.90486	-7.592272E-010	0.0099622	5
	48	16	15.83615	47998.56	-127485.9	1	136222.3	-69.3686	3.956581E-010	0.0099629	5
	49	16	12.40079	63551.81	-154284.9	1	166861.2	-67.61265	3.282839E-010	0.0099528	5
	50	17	9.93114	79176.84	-182753.8	1	199168.1	-66.57566	-6.16882E-010	0.0099465	5
	51	17	7.944915	100211.7	-213641.6	1	235976.9	-64.8704	-6.515073E-010	0.0099638	5
	52	18	6.317385	126366.4	-249191.8	1	279401.2	-63.11021	-5.44869E-010	0.00996	5
	53	19	5.008013	158772.7	-288130.1	1	328979.8	-61.14326	-3.755882E-011	0.0099705	5
	54	20	3.945707	198573.8	-330783.4	1	385809.8	-59.02303	-3.870996E-010	0.0099562	5
	55	21	3.158693	240722.7	-372358.8	1	443394.3	-57.11812	-1.541764E-010	0.0099439	5
	56	23	2.504006	290264.8	-419152.2	1	509845.3	-55.29722	5.71159E-011	0.0099512	5
	57	24	1.998082	341666.8	-466485.1	1	578225.4	-53.7799	-1.388168E-010	0.0099326	5
	58	26	1.584686	400831.9	-521858	1	658028.8	-52.47263	-2.647068E-010	0.0099045	5
	59	28	1.266892	460289	-581384.9	1	741535.1	-51.63094	-2.507863E-010	0.0099246	5
	60	30	0.999041	529040	-651613.4	1	839335.1	-50.92711	-2.278286E-010	0.0099468	5
