EXPLAIN
TAG	EISPOT
TITLE	LABEL	Potentiostatic EIS	Test &Identifier
DATE	LABEL	9/20/2019	Date
TIME	LABEL	10:59:46	Time
NOTES	NOTES	1	&Notes...
	
PSTAT	PSTAT	REF600-11020	Potentiostat
VDC	POTEN	0.00000E+000	T	DC &Voltage (V)
FREQINIT	QUANT	1.00000E+006	Initial Fre&q. (Hz)
FREQFINAL	QUANT	1.00000E+000	Final Fre&q. (Hz)
PTSPERDEC	QUANT	1.00000E+001	Points/&decade
VAC	QUANT	2.50000E+001	AC &Voltage (mV rms)
AREA	QUANT	1.00000E-002	&Area (cm^2)
CONDIT	TWOPARAM	T	5.00000E+000	0.00000E+000	Conditionin&g	Time(s)	E(V)
DELAY	TWOPARAM	T	5.00000E+000	0.00000E+000	Init. De&lay	Time(s)	Stab.(mV/s)
SPEED	SELECTOR	1	&Optimize for:
ZGUESS	QUANT	1.00000E+004	E&stimated Z (ohms)
OCVCURVE	TABLE	19
	Pt	T	Vf	Vm	Ach	Over
	#	s	V vs. Ref.	V	V	bits
	0	0.258333	6.21963E-003	6.21963E-003	5.62366E-004	...........
	1	0.516667	6.21437E-003	5.94430E-003	5.51799E-004	...........
	2	0.775	6.18834E-003	6.01147E-003	5.65699E-004	...........
	3	1.03333	6.13607E-003	6.10336E-003	5.55966E-004	...........
	4	1.29167	6.08238E-003	6.04523E-003	5.60432E-004	...........
	5	1.55	6.05466E-003	6.08065E-003	5.62166E-004	...........
	6	1.80833	6.05294E-003	6.11214E-003	5.64299E-004	...........
	7	2.06667	6.06500E-003	6.14329E-003	5.60966E-004	...........
	8	2.325	6.08509E-003	6.18094E-003	5.62299E-004	...........
	9	2.58333	6.11212E-003	6.24018E-003	5.58899E-004	...........
	10	2.84167	6.14359E-003	6.15400E-003	5.57833E-004	...........
	11	3.1	6.16960E-003	6.11062E-003	5.57933E-004	...........
	12	3.35833	6.18020E-003	6.30696E-003	5.55533E-004	...........
	13	3.61667	6.18718E-003	6.39962E-003	5.59599E-004	...........
	14	3.875	6.21641E-003	6.36191E-003	5.61566E-004	...........
	15	4.13333	6.27052E-003	6.39311E-003	5.57432E-004	...........
	16	4.39167	6.32692E-003	6.44983E-003	5.63432E-004	...........
	17	4.65	6.37166E-003	6.50278E-003	5.65699E-004	...........
	18	4.90833	6.41018E-003	6.54824E-003	5.61166E-004	...........
EOC	QUANT	0.0064102	Open Circuit (V)
PSTATMODEL	IQUANT	4	Pstat Model
PSTATSECTION	LABEL	REF600-11020	Pstat Section
PSTATSERIALNO	LABEL	11020	Pstat Serial Number
CTRLMODE	IQUANT	1	Control Mode
IESTAB	IQUANT	0	I/E Stability
CASPEED	IQUANT	1	Control Amp Speed
CONVENTION	IQUANT	1	Current Convention
ICHRANGE	IQUANT	2	Ich Range
ICHRANGEMODE	TOGGLE	F	Ich Auto Range
ICHOFFSETENABLE	TOGGLE	T	Ich Offset Enable
ICHOFFSET	QUANT	0	Ich Offset (V)
ICHFILTER	IQUANT	3	Ich Filter
VCHRANGE	IQUANT	2	Vch Range
VCHRANGEMODE	TOGGLE	F	Vch Auto Range
VCHOFFSETENABLE	TOGGLE	T	Vch Offset Enable
VCHOFFSET	QUANT	0	Vch Offset (V)
VCHFILTER	IQUANT	3	Vch Filter
ACHRANGE	IQUANT	2	Ach Range
ACHOFFSETENABLE	TOGGLE	F	Ach Offset Enable
ACHOFFSET	QUANT	0	Ach Offset (V)
ACHFILTER	IQUANT	3	Ach Filter
IERANGELOWERLIMIT	IQUANT	1	I/E Range Lower Limit
IERANGEMODE	TOGGLE	F	I/E AutoRange
IERANGE	IQUANT	6	I/E Range
POSFEEDENABLE	TOGGLE	F	Positive Feedback IR Comp
POSFEEDRESISTANCE	QUANT	0	Positive Feedback Resistance (ohm)
ACHSELECT	IQUANT	0	Ach Select
CABLEID	IQUANT	14	Cable ID
DCCALDATE	LABEL	8/19/2019	DC Calibration Date
ACCALDATE	LABEL	8/19/2019	AC Calibration Date
THERMOSELECT	IQUANT	1	Thermo Select
FRAMEWORKVERSION	QUANT	6.33	Framework Version
INSTRUMENTVERSION	LABEL	3.50	Instrument Version
ZCURVE	TABLE
	Pt	Time	Freq	Zreal	Zimag	Zsig	Zmod	Zphz	Idc	Vdc	IERange
	#	s	Hz	ohm	ohm	V	ohm	°	A	V	#
	0	2	1000078	2383.439	-1721.913	1	2940.369	-35.84619	1.698622E-006	0.0093192	8
	1	3	794390.6	2737.969	-1654.668	1	3199.125	-31.14631	-6.2632E-006	0.009887	8
	2	4	630984.4	3047.384	-1540.471	1	3414.616	-26.81687	4.925705E-006	0.0076556	8
	3	6	501234.4	3290.233	-1392.875	1	3572.916	-22.9447	-1.303545E-006	0.0085067	8
	4	7	398109.4	3515.651	-1236.757	1	3726.844	-19.38116	1.608749E-006	0.0077857	8
	5	8	316265.6	3662.603	-1070.963	1	3815.969	-16.29918	6.795513E-007	0.0082318	8
	6	10	251203.1	3801.865	-930.2281	1	3914.014	-13.74883	-4.367953E-006	0.0091684	8
	7	11	199546.9	3894.461	-776.5087	1	3971.12	-11.27621	8.311092E-007	0.008216	8
	8	13	158578.1	3986.113	-693.9072	1	4046.061	-9.87516	3.382915E-006	0.00751	8
	9	14	125953.1	4055.673	-558.8752	1	4093.999	-7.845994	7.257904E-007	0.0070489	7
	10	15	100078.1	4091.721	-490.317	1	4120.995	-6.833254	3.894985E-008	0.0079676	7
	11	17	79453.13	4130.269	-447.4399	1	4154.434	-6.182849	-4.228155E-008	0.008119	7
	12	18	63140.62	4165.325	-415.7952	1	4186.027	-5.700551	-4.543607E-009	0.0081118	7
	13	19	50203.12	4196.83	-393.8083	1	4215.266	-5.360636	-1.469812E-008	0.0082324	7
	14	21	39890.62	4229.896	-384.9814	1	4247.379	-5.200413	-1.30229E-008	0.0081377	7
	15	22	31640.63	4262.459	-381.4823	1	4279.497	-5.114242	8.120873E-008	0.0080502	7
	16	23	25171.88	4292.571	-391.1093	1	4310.352	-5.206019	-3.440343E-009	0.0081021	7
	17	25	20015.62	4324.257	-411.8305	1	4343.823	-5.440286	-7.308262E-008	0.0082038	7
	18	26	15890.62	4357.432	-440.6258	1	4379.653	-5.774152	-3.404137E-008	0.0081074	7
	19	27	12609.37	4390.267	-482.4129	1	4416.692	-6.270639	8.038673E-008	0.0080427	7
	20	29	10078.13	4424.882	-536.9196	1	4457.338	-6.918504	-4.914341E-008	0.0082404	7
	21	30	8015.625	4459.795	-609.0573	1	4501.191	-7.776561	-3.931396E-008	0.0081108	7
	22	31	6328.125	4501.645	-703.0861	1	4556.22	-8.876982	-1.306352E-008	0.0081288	7
	23	33	5015.625	4544.191	-822.1558	1	4617.967	-10.25528	3.856697E-008	0.0080434	7
	24	34	3984.375	4591.591	-968.336	1	4692.588	-11.9088	4.34442E-008	0.0079535	7
	25	35	3170.956	4645.573	-1147.752	1	4785.257	-13.87779	-3.764031E-008	0.0081033	7
	26	37	2527.573	4707.829	-1369.761	1	4903.05	-16.22255	-4.033598E-008	0.0081099	7
	27	38	1976.103	4788.238	-1665.525	1	5069.635	-19.17956	1.315968E-007	0.0078861	7
	28	40	1577.524	4872.568	-1996.938	1	5265.898	-22.28543	1.595607E-008	0.0080123	7
	29	41	1265.625	4969.228	-2391.166	1	5514.608	-25.69661	-3.344128E-008	0.0080965	7
	30	42	998.264	5100.918	-2911.546	1	5873.369	-29.71723	6.968752E-008	0.0079596	7
	31	44	796.875	5246.953	-3513.237	1	6314.535	-33.80534	8.186973E-008	0.0080464	7
	32	45	627.7902	5426.66	-4283.922	1	6913.8	-38.28832	-3.532575E-008	0.008126	7
	33	46	505.5147	5618.141	-5139.341	1	7614.219	-42.45153	4.008402E-008	0.0079536	7
	34	48	397.9953	5866.875	-6300.642	1	8609.199	-47.04171	6.015773E-009	0.0081098	7
	35	49	315.5048	6152.897	-7685.572	1	9845.11	-51.32001	5.697886E-009	0.0081109	7
	36	50	252.4038	6484.236	-9319.632	1	11353.45	-55.17131	7.620978E-010	0.008048	6
	37	52	198.6229	6914.876	-11483.19	1	13404.44	-58.94475	1.321579E-009	0.0080538	6
	38	53	158.3615	7417.215	-14005.92	1	15848.69	-62.09533	1.095357E-009	0.0080453	6
	39	54	125.558	8070.888	-17187.63	1	18988.26	-64.84641	1.304626E-009	0.0080421	6
	40	56	100.4464	8883.392	-20933.18	1	22740.11	-67.00513	6.537617E-010	0.0080448	6
	41	57	79.00281	10002.84	-25924.25	1	27787.11	-68.90095	5.577059E-010	0.008039	6
	42	58	63.3446	11561.51	-31305.8	1	33372.47	-69.73036	1.065838E-009	0.0080388	6
	43	60	49.86702	13245.26	-38998.92	1	41186.8	-71.2409	6.439108E-010	0.0080363	6
	44	61	39.72458	15570.46	-47204.25	1	49705.94	-71.74471	1.491867E-009	0.0080408	6
	45	63	31.6723	18648.16	-57517.83	1	60465.32	-72.03651	5.820725E-010	0.0080435	6
	46	64	24.93351	23038.6	-70215.9	1	73898.91	-71.83477	1.070412E-009	0.0080422	6
	47	65	19.86229	28368.73	-84794.98	1	89414.62	-71.50199	1.657026E-009	0.008041	6
	48	67	15.83615	35824.88	-101220.4	1	107373.1	-70.50962	2.035996E-009	0.0080454	5
	49	68	12.40079	45410.49	-123291	1	131387.9	-69.78026	2.546043E-012	0.008054	5
	50	69	9.93114	55992.34	-147100.5	1	157396.6	-69.16116	6.189316E-010	0.0080456	5
	51	71	7.944915	70166.19	-174614.9	1	188185.2	-68.10806	8.441419E-010	0.0080407	5
	52	73	6.317385	88675.55	-206304.5	1	224554.9	-66.74059	1.006533E-009	0.008038	5
	53	75	5.008013	111970.9	-243354.3	1	267878.3	-65.29215	5.814823E-010	0.0080426	5
	54	77	3.945707	141607.9	-285960.1	1	319101.8	-63.65531	8.973206E-010	0.0080474	5
	55	80	3.158693	174796.9	-330223.8	1	373633.1	-62.10644	4.730061E-010	0.0080286	5
	56	83	2.504006	216485.3	-380725.1	1	437969.8	-60.37687	1.107238E-009	0.0080515	5
	57	86	1.998082	265157.1	-432579.1	1	507378.5	-58.49305	8.298537E-010	0.0080808	5
	58	89	1.584686	320598.4	-491915.1	1	587165.9	-56.9063	9.248329E-010	0.0080414	5
	59	93	1.266892	384286.1	-553016.1	1	673426.1	-55.2049	7.585633E-010	0.0080876	5
	60	97	0.999041	457551.4	-620142.5	1	770668.6	-53.57948	6.440536E-010	0.0080083	5
