EXPLAIN
TAG	EISPOT
TITLE	LABEL	Potentiostatic EIS	Test &Identifier
DATE	LABEL	10/8/2019	Date
TIME	LABEL	10:20:48	Time
NOTES	NOTES	2	&Notes...
	
	
PSTAT	PSTAT	REF600-11020	Potentiostat
VDC	POTEN	0.00000E+000	T	DC &Voltage (V)
FREQINIT	QUANT	1.00000E+006	Initial Fre&q. (Hz)
FREQFINAL	QUANT	1.00000E+000	Final Fre&q. (Hz)
PTSPERDEC	QUANT	1.00000E+001	Points/&decade
VAC	QUANT	2.50000E+001	AC &Voltage (mV rms)
AREA	QUANT	1.00000E-002	&Area (cm^2)
CONDIT	TWOPARAM	T	5.00000E+000	0.00000E+000	Conditionin&g	Time(s)	E(V)
DELAY	TWOPARAM	T	5.00000E+000	0.00000E+000	Init. De&lay	Time(s)	Stab.(mV/s)
SPEED	SELECTOR	1	&Optimize for:
ZGUESS	QUANT	1.00000E+004	E&stimated Z (ohms)
OCVCURVE	TABLE	19
	Pt	T	Vf	Vm	Ach	Over
	#	s	V vs. Ref.	V	V	bits
	0	0.258333	6.80065E-003	6.80065E-003	5.27400E-004	...........
	1	0.516667	6.80214E-003	6.87848E-003	5.22100E-004	...........
	2	0.775	6.81070E-003	6.92262E-003	5.21966E-004	...........
	3	1.03333	6.83306E-003	6.96538E-003	5.23800E-004	...........
	4	1.29167	6.86991E-003	7.03117E-003	5.25333E-004	...........
	5	1.55	6.91687E-003	7.10142E-003	5.30800E-004	...........
	6	1.80833	6.97056E-003	7.15274E-003	5.26666E-004	...........
	7	2.06667	7.02898E-003	7.21672E-003	5.25600E-004	...........
	8	2.325	7.08959E-003	7.27500E-003	5.29700E-004	...........
	9	2.58333	7.15319E-003	7.48224E-003	5.33066E-004	...........
	10	2.84167	7.22298E-003	7.27258E-003	5.25266E-004	...........
	11	3.1	7.28820E-003	7.30808E-003	5.23300E-004	...........
	12	3.35833	7.32750E-003	7.39009E-003	5.24600E-004	...........
	13	3.61667	7.34320E-003	7.50542E-003	5.29233E-004	...........
	14	3.875	7.36605E-003	7.65454E-003	5.25900E-004	...........
	15	4.13333	7.42335E-003	7.82324E-003	5.30900E-004	...........
	16	4.39167	7.52126E-003	7.94017E-003	5.26266E-004	...........
	17	4.65	7.64675E-003	7.97096E-003	5.26800E-004	...........
	18	4.90833	7.77427E-003	8.00867E-003	5.24000E-004	...........
EOC	QUANT	0.0077743	Open Circuit (V)
PSTATMODEL	IQUANT	4	Pstat Model
PSTATSECTION	LABEL	REF600-11020	Pstat Section
PSTATSERIALNO	LABEL	11020	Pstat Serial Number
CTRLMODE	IQUANT	1	Control Mode
IESTAB	IQUANT	0	I/E Stability
CASPEED	IQUANT	1	Control Amp Speed
CONVENTION	IQUANT	1	Current Convention
ICHRANGE	IQUANT	2	Ich Range
ICHRANGEMODE	TOGGLE	F	Ich Auto Range
ICHOFFSETENABLE	TOGGLE	T	Ich Offset Enable
ICHOFFSET	QUANT	0	Ich Offset (V)
ICHFILTER	IQUANT	3	Ich Filter
VCHRANGE	IQUANT	2	Vch Range
VCHRANGEMODE	TOGGLE	F	Vch Auto Range
VCHOFFSETENABLE	TOGGLE	T	Vch Offset Enable
VCHOFFSET	QUANT	0	Vch Offset (V)
VCHFILTER	IQUANT	3	Vch Filter
ACHRANGE	IQUANT	2	Ach Range
ACHOFFSETENABLE	TOGGLE	F	Ach Offset Enable
ACHOFFSET	QUANT	0	Ach Offset (V)
ACHFILTER	IQUANT	3	Ach Filter
IERANGELOWERLIMIT	IQUANT	1	I/E Range Lower Limit
IERANGEMODE	TOGGLE	F	I/E AutoRange
IERANGE	IQUANT	6	I/E Range
POSFEEDENABLE	TOGGLE	F	Positive Feedback IR Comp
POSFEEDRESISTANCE	QUANT	0	Positive Feedback Resistance (ohm)
ACHSELECT	IQUANT	0	Ach Select
CABLEID	IQUANT	14	Cable ID
DCCALDATE	LABEL	8/19/2019	DC Calibration Date
ACCALDATE	LABEL	8/19/2019	AC Calibration Date
THERMOSELECT	IQUANT	1	Thermo Select
FRAMEWORKVERSION	QUANT	6.33	Framework Version
INSTRUMENTVERSION	LABEL	3.50	Instrument Version
ZCURVE	TABLE
	Pt	Time	Freq	Zreal	Zimag	Zsig	Zmod	Zphz	Idc	Vdc	IERange
	#	s	Hz	ohm	ohm	V	ohm	°	A	V	#
	0	1	1000078	2417.133	-1661.074	1	2932.866	-34.49717	3.651012E-006	0.0091135	8
	1	3	794390.6	2750.477	-1590.633	1	3177.3	-30.0413	2.544782E-006	0.0089203	8
	2	4	630984.4	3040.859	-1487.882	1	3385.353	-26.07235	-1.095852E-006	0.0095782	8
	3	5	501234.4	3311.299	-1339.787	1	3572.077	-22.02878	-3.51924E-006	0.0099769	8
	4	7	398109.4	3510.461	-1194.116	1	3707.999	-18.78622	1.307224E-006	0.0091414	8
	5	8	316265.6	3669.775	-1031.381	1	3811.954	-15.69789	-1.65649E-007	0.0094616	8
	6	10	251203.1	3775.869	-903.8588	1	3882.544	-13.46201	-2.401007E-006	0.0098076	8
	7	11	199546.9	3887.631	-760.2612	1	3961.272	-11.06506	-2.374884E-006	0.0098087	8
	8	12	158578.1	3950.473	-661.8091	1	4005.525	-9.51025	-6.976561E-007	0.009394	8
	9	14	125953.1	4017.143	-520.0542	1	4050.666	-7.376413	1.392786E-006	0.0062703	7
	10	15	100078.1	4059.79	-461.985	1	4085.992	-6.492063	-5.679447E-008	0.0093404	7
	11	16	79453.13	4092.562	-418.3713	1	4113.891	-5.836913	-3.707306E-008	0.0093057	7
	12	18	63140.62	4125.363	-387.8126	1	4143.552	-5.370415	4.358639E-008	0.0092394	7
	13	19	50203.12	4153.651	-367.8127	1	4169.905	-5.060437	-2.36837E-008	0.0093533	7
	14	20	39890.62	4181.227	-357.4808	1	4196.48	-4.886713	-4.947472E-008	0.0093858	7
	15	22	31640.63	4209.202	-359.9409	1	4224.563	-4.887636	-8.325361E-009	0.0092392	7
	16	23	25171.88	4236.379	-368.882	1	4252.409	-4.976468	8.793151E-008	0.0091012	7
	17	24	20015.62	4267.228	-385.0082	1	4284.562	-5.15552	9.44402E-008	0.0092318	7
	18	26	15890.62	4294.169	-419.6209	1	4314.623	-5.581153	-4.663529E-008	0.0093793	7
	19	27	12609.37	4326.914	-462.4367	1	4351.555	-6.100301	-3.365316E-009	0.0093254	7
	20	28	10078.13	4359.216	-517.2592	1	4389.797	-6.767006	-5.710856E-008	0.0093279	7
	21	30	8015.625	4386.604	-588.2456	1	4425.87	-7.637825	-2.122555E-008	0.0093424	7
	22	31	6328.125	4431.796	-683.2667	1	4484.157	-8.764498	-8.892229E-008	0.009427	7
	23	32	5015.625	4472.287	-800.1918	1	4543.309	-10.14415	7.522196E-008	0.0091566	7
	24	34	3984.375	4512.761	-942.046	1	4610.039	-11.79125	-4.039691E-008	0.0092981	7
	25	35	3170.956	4570.64	-1119.629	1	4705.775	-13.7642	-3.515715E-008	0.009293	7
	26	36	2527.573	4631.157	-1334.049	1	4819.472	-16.06956	-3.500713E-008	0.0092931	7
	27	38	1976.103	4701.89	-1624.032	1	4974.459	-19.0549	1.514152E-007	0.0090515	7
	28	39	1577.524	4782.687	-1944.959	1	5163.038	-22.12994	-3.448137E-009	0.0092905	7
	29	40	1265.625	4871.45	-2335.399	1	5402.325	-25.61331	-3.753403E-008	0.0092875	7
	30	42	998.264	4984.627	-2847.249	1	5740.5	-29.73527	-2.182669E-008	0.0092462	7
	31	43	796.875	5105.177	-3443.945	1	6158.213	-34.00355	4.242844E-008	0.0092326	7
	32	44	627.7902	5257.78	-4227.488	1	6746.547	-38.80082	-1.125668E-008	0.009234	7
	33	46	505.5147	5426.005	-5094.612	1	7442.89	-43.19582	-2.310193E-008	0.0093353	7
	34	47	397.9953	5634.252	-6278.14	1	8435.63	-48.09394	4.639895E-009	0.0092961	7
	35	48	315.5048	5890.221	-7705.993	1	9699.33	-52.60683	4.408805E-009	0.0092988	7
	36	50	252.4038	6199.479	-9393.444	1	11254.79	-56.57602	1.014858E-009	0.0092294	6
	37	51	198.6229	6613.085	-11630.46	1	13379.11	-60.37742	8.514097E-010	0.0092334	6
	38	52	158.3615	7113.76	-14239.09	1	15917.2	-63.45357	6.370365E-010	0.0092338	6
	39	54	125.558	7776.612	-17522.22	1	19170.39	-66.06767	7.323307E-010	0.0092388	6
	40	55	100.4464	8617.147	-21380.7	1	23051.89	-68.04889	1.454753E-009	0.0092332	6
	41	56	79.00281	9731.91	-26452.64	1	28186.03	-69.80147	5.631695E-010	0.0092374	6
	42	58	63.3446	11387.21	-32130.71	1	34088.87	-70.48554	9.655129E-010	0.0092362	6
	43	59	49.86702	13065.49	-39754.91	1	41846.86	-71.80684	2.723788E-010	0.0092283	6
	44	61	39.72458	15717.67	-48268.12	1	50762.75	-71.96307	5.808184E-010	0.0092343	6
	45	62	31.6723	19126.82	-58678.32	1	61716.93	-71.94607	1.360074E-009	0.0092327	6
	46	63	24.93351	23608.8	-71738.49	1	75523.42	-71.78387	1.005623E-009	0.0092291	6
	47	65	19.86229	29349.26	-86559.33	1	91399.66	-71.26999	2.805615E-010	0.009232	6
	48	66	15.83615	36650.27	-104352.5	1	110601.5	-70.64791	-8.505927E-011	0.0092393	5
	49	67	12.40079	46730.02	-126714.4	1	135056.4	-69.75692	4.36415E-010	0.0092446	5
	50	69	9.93114	59825.9	-149495.6	1	161021.9	-68.18945	-1.642862E-010	0.0092417	5
	51	70	7.944915	75256.69	-175726.9	1	191163.5	-66.81651	-4.488754E-010	0.0092344	5
	52	72	6.317385	95514.2	-206736.3	1	227734.1	-65.2026	-3.142145E-010	0.0092442	5
	53	74	5.008013	120700.2	-241158.1	1	269677.2	-63.41193	1.167833E-010	0.0092342	5
	54	76	3.945707	152043.1	-279923.4	1	318550.2	-61.49097	1.646339E-010	0.0092368	5
	55	79	3.158693	185754.1	-318545.3	1	368748.8	-59.75216	2.604809E-010	0.0092545	5
	56	82	2.504006	226469	-362736.4	1	427628.2	-58.02203	-3.116114E-010	0.0092301	5
	57	85	1.998082	270450.3	-407917.5	1	489428.3	-56.45553	-1.014854E-010	0.0091869	5
	58	88	1.584686	317818	-458284.9	1	557703.6	-55.25891	-1.498213E-010	0.0092339	5
	59	92	1.266892	368952.3	-512614.5	1	631584.9	-54.25569	2.273503E-011	0.0091884	5
	60	96	0.999041	425499.3	-578996.8	1	718531.1	-53.68818	-4.119144E-011	0.0092681	5
