EXPLAIN
TAG	EISPOT
TITLE	LABEL	Potentiostatic EIS	Test &Identifier
DATE	LABEL	10/10/2019	Date
TIME	LABEL	10:30:59	Time
NOTES	NOTES	1	&Notes...
	
PSTAT	PSTAT	REF600-11020	Potentiostat
VDC	POTEN	0.00000E+000	T	DC &Voltage (V)
FREQINIT	QUANT	1.00000E+006	Initial Fre&q. (Hz)
FREQFINAL	QUANT	1.00000E+000	Final Fre&q. (Hz)
PTSPERDEC	QUANT	1.00000E+001	Points/&decade
VAC	QUANT	2.50000E+001	AC &Voltage (mV rms)
AREA	QUANT	1.00000E-002	&Area (cm^2)
CONDIT	TWOPARAM	T	5.00000E+000	0.00000E+000	Conditionin&g	Time(s)	E(V)
DELAY	TWOPARAM	T	5.00000E+000	0.00000E+000	Init. De&lay	Time(s)	Stab.(mV/s)
SPEED	SELECTOR	1	&Optimize for:
ZGUESS	QUANT	1.00000E+004	E&stimated Z (ohms)
OCVCURVE	TABLE	19
	Pt	T	Vf	Vm	Ach	Over
	#	s	V vs. Ref.	V	V	bits
	0	0.258333	7.44945E-003	7.44945E-003	6.22332E-004	...........
	1	0.516667	7.44967E-003	7.46100E-003	6.11198E-004	...........
	2	0.775	7.45098E-003	7.46933E-003	6.08198E-004	...........
	3	1.03333	7.45605E-003	7.55849E-003	6.19031E-004	...........
	4	1.29167	7.47029E-003	7.57691E-003	6.12332E-004	...........
	5	1.55	7.49623E-003	7.55360E-003	6.03465E-004	...........
	6	1.80833	7.52687E-003	7.59828E-003	6.05898E-004	...........
	7	2.06667	7.55317E-003	7.62098E-003	6.15398E-004	...........
	8	2.325	7.57476E-003	7.64949E-003	6.03632E-004	...........
	9	2.58333	7.59656E-003	7.68208E-003	6.04032E-004	...........
	10	2.84167	7.62159E-003	7.72440E-003	6.12498E-004	...........
	11	3.1	7.65086E-003	7.76818E-003	6.09698E-004	...........
	12	3.35833	7.68489E-003	7.81283E-003	6.04932E-004	...........
	13	3.61667	7.72309E-003	7.83996E-003	6.04432E-004	...........
	14	3.875	7.76316E-003	7.87911E-003	6.11998E-004	...........
	15	4.13333	7.80255E-003	7.92347E-003	6.17365E-004	...........
	16	4.39167	7.84065E-003	7.94857E-003	6.09132E-004	...........
	17	4.65	7.88004E-003	8.10075E-003	5.98365E-004	...........
	18	4.90833	7.92646E-003	8.08061E-003	6.17565E-004	...........
EOC	QUANT	0.0079265	Open Circuit (V)
PSTATMODEL	IQUANT	4	Pstat Model
PSTATSECTION	LABEL	REF600-11020	Pstat Section
PSTATSERIALNO	LABEL	11020	Pstat Serial Number
CTRLMODE	IQUANT	1	Control Mode
IESTAB	IQUANT	0	I/E Stability
CASPEED	IQUANT	1	Control Amp Speed
CONVENTION	IQUANT	1	Current Convention
ICHRANGE	IQUANT	2	Ich Range
ICHRANGEMODE	TOGGLE	F	Ich Auto Range
ICHOFFSETENABLE	TOGGLE	T	Ich Offset Enable
ICHOFFSET	QUANT	0	Ich Offset (V)
ICHFILTER	IQUANT	3	Ich Filter
VCHRANGE	IQUANT	2	Vch Range
VCHRANGEMODE	TOGGLE	F	Vch Auto Range
VCHOFFSETENABLE	TOGGLE	T	Vch Offset Enable
VCHOFFSET	QUANT	0	Vch Offset (V)
VCHFILTER	IQUANT	3	Vch Filter
ACHRANGE	IQUANT	2	Ach Range
ACHOFFSETENABLE	TOGGLE	F	Ach Offset Enable
ACHOFFSET	QUANT	0	Ach Offset (V)
ACHFILTER	IQUANT	3	Ach Filter
IERANGELOWERLIMIT	IQUANT	1	I/E Range Lower Limit
IERANGEMODE	TOGGLE	F	I/E AutoRange
IERANGE	IQUANT	6	I/E Range
POSFEEDENABLE	TOGGLE	F	Positive Feedback IR Comp
POSFEEDRESISTANCE	QUANT	0	Positive Feedback Resistance (ohm)
ACHSELECT	IQUANT	0	Ach Select
CABLEID	IQUANT	14	Cable ID
DCCALDATE	LABEL	8/19/2019	DC Calibration Date
ACCALDATE	LABEL	8/19/2019	AC Calibration Date
THERMOSELECT	IQUANT	1	Thermo Select
FRAMEWORKVERSION	QUANT	6.33	Framework Version
INSTRUMENTVERSION	LABEL	3.50	Instrument Version
ZCURVE	TABLE
	Pt	Time	Freq	Zreal	Zimag	Zsig	Zmod	Zphz	Idc	Vdc	IERange
	#	s	Hz	ohm	ohm	V	ohm	°	A	V	#
	0	1	1000078	2682.8	-2187.506	1	3461.589	-39.19318	-1.435487E-006	0.0101545	8
	1	3	794390.6	3107.478	-2192.198	1	3802.913	-35.2014	9.797824E-007	0.0099407	8
	2	4	630984.4	3533.953	-2133.772	1	4128.173	-31.12323	-3.827483E-006	0.0103581	8
	3	6	501234.4	3913.492	-2007.07	1	4398.152	-27.15143	-2.806142E-006	0.010219	8
	4	7	398109.4	4264.562	-1881.972	1	4661.363	-23.81211	-2.915519E-006	0.0101363	8
	5	9	316265.6	4548.72	-1721.541	1	4863.595	-20.73	-2.813527E-006	0.0101847	8
	6	10	251203.1	4777.529	-1551.905	1	5023.265	-17.99557	4.254317E-006	0.0088809	8
	7	12	199546.9	4989.612	-1371.775	1	5174.746	-15.37232	-1.494147E-006	0.0098661	8
	8	13	158578.1	5151.861	-1252.928	1	5302.028	-13.66892	9.79551E-007	0.0094124	8
	9	15	125953.1	5305.559	-1085.708	1	5415.507	-11.5651	-8.650368E-007	0.0113338	7
	10	16	100078.1	5401.748	-985.388	1	5490.89	-10.33823	7.132982E-009	0.009645	7
	11	17	79453.13	5498.135	-931.9904	1	5576.567	-9.62077	-6.268276E-008	0.0095929	7
	12	19	63140.62	5581.967	-902.4683	1	5654.45	-9.183865	1.01334E-008	0.009461	7
	13	20	50203.12	5665.113	-892.3508	1	5734.963	-8.951501	1.360943E-007	0.0093359	7
	14	21	39890.62	5749.755	-903.4511	1	5820.301	-8.929794	-6.706932E-008	0.0096312	7
	15	23	31640.63	5834.584	-931.8464	1	5908.529	-9.074122	9.524604E-010	0.0095623	7
	16	24	25171.88	5926.005	-983.878	1	6007.125	-9.426667	7.778011E-008	0.0094075	7
	17	26	20015.62	6017.645	-1058.434	1	6110.019	-9.97563	4.736033E-008	0.0093759	7
	18	27	15890.62	6132.239	-1147.345	1	6238.65	-10.59754	8.786053E-008	0.0093382	7
	19	29	12609.37	6247.183	-1264.325	1	6373.838	-11.44117	-5.975458E-008	0.0095866	7
	20	30	10078.13	6370.229	-1404.828	1	6523.293	-12.43639	-6.975343E-008	0.009596	7
	21	31	8015.625	6531.356	-1563.964	1	6715.995	-13.46619	-4.397742E-008	0.0095683	7
	22	33	6328.125	6688.811	-1777.776	1	6921.031	-14.88417	-4.476318E-008	0.0095368	7
	23	34	5015.625	6879.724	-2019.455	1	7169.993	-16.35892	-1.46178E-008	0.0095551	7
	24	35	3984.375	7097.353	-2269.187	1	7451.283	-17.73028	6.47569E-009	0.0094557	7
	25	37	3170.956	7336.622	-2611.228	1	7787.459	-19.5915	1.364411E-007	0.0093219	7
	26	38	2527.573	7619.372	-2973.935	1	8179.188	-21.32131	2.395135E-009	0.0095557	7
	27	39	1976.103	7963.803	-3427.015	1	8669.867	-23.28337	-3.68935E-008	0.0096191	7
	28	41	1577.524	8298.809	-3877.915	1	9160.155	-25.04601	1.055593E-008	0.0096289	7
	29	42	1265.625	8709.026	-4406.541	1	9760.37	-26.83822	1.930145E-008	0.0092185	6
	30	44	998.264	9166.424	-5046.232	1	10463.64	-28.83334	1.293282E-009	0.0096036	6
	31	45	796.875	9637.12	-5741.152	1	11217.62	-30.78365	-9.46754E-009	0.0096244	6
	32	46	627.7902	10154.96	-6606.173	1	12114.65	-33.04548	1.842705E-008	0.0091407	6
	33	48	505.5147	10641.25	-7549.622	1	13047.34	-35.35447	7.807756E-009	0.009278	6
	34	49	397.9953	11195.29	-8798.981	1	14239.27	-38.1657	7.844086E-011	0.0094762	6
	35	50	315.5048	11744.57	-10303.34	1	15623.5	-41.26001	1.016658E-009	0.0094756	6
	36	52	252.4038	12291.31	-12098.77	1	17246.93	-44.5477	1.965117E-011	0.0094719	6
	37	53	198.6229	12925.12	-14510.42	1	19432.22	-48.30701	8.205324E-010	0.0094735	6
	38	54	158.3615	13595.04	-17373.55	1	22060.49	-51.95634	2.08616E-010	0.0094717	6
	39	56	125.558	14382.33	-21028.62	1	25476.54	-55.63018	4.940822E-010	0.0094733	6
	40	57	100.4464	15330.09	-25366.79	1	29639.26	-58.85388	5.079565E-010	0.0094721	6
	41	58	79.00281	16578.28	-31255.87	1	35380.34	-62.05828	2.863124E-010	0.0094709	6
	42	60	63.3446	17540.97	-37560.43	1	41454.45	-64.96712	8.951918E-010	0.0094679	6
	43	61	49.86702	20236.75	-46598.3	1	50802.83	-66.52562	1.492341E-011	0.0094684	6
	44	63	39.72458	22431.54	-56917.26	1	61178.01	-68.49021	6.884486E-010	0.0094697	6
	45	64	31.6723	25489.14	-69516.36	1	74042.02	-69.86384	3.624479E-010	0.0094701	6
	46	65	24.93351	30070.68	-85505.77	1	90639.3	-70.62424	2.70654E-010	0.0094742	6
	47	67	19.86229	35567.12	-104131.1	1	110037.8	-71.14184	-2.644029E-010	0.0094701	5
	48	68	15.83615	42150	-125027.6	1	131941.4	-71.36973	1.386283E-009	0.0094749	5
	49	69	12.40079	54824.52	-155772.4	1	165138.6	-70.61034	-2.218666E-010	0.0094715	5
	50	71	9.93114	67381.37	-185535.4	1	197392.1	-70.04037	-2.456965E-010	0.0094803	5
	51	72	7.944915	84782.24	-221824.9	1	237474.9	-69.08297	-1.114145E-010	0.0094733	5
	52	74	6.317385	107568.5	-264952	1	285955.5	-67.90323	-1.69878E-010	0.0094822	5
	53	76	5.008013	138051.9	-314443.3	1	343413.6	-66.29681	2.123026E-010	0.0094756	5
	54	78	3.945707	177883.7	-371136.9	1	411564.3	-64.39187	-1.71765E-011	0.0094718	5
	55	81	3.158693	223736.5	-429578	1	484350.4	-62.48821	2.699349E-010	0.0094834	5
	56	84	2.504006	282036.6	-494207.1	1	569021.3	-60.28725	-1.208939E-010	0.0094813	5
	57	87	1.998082	346348.7	-558655.7	1	657307.9	-58.20241	3.45668E-010	0.0094571	5
	58	90	1.584686	424407.1	-629343.7	1	759075	-56.00567	3.861239E-011	0.0094273	5
	59	94	1.266892	503043.1	-699527.9	1	861621.5	-54.27941	3.331898E-010	0.0094636	5
	60	98	0.999041	596365.7	-780263.4	1	982071	-52.60884	-1.615499E-010	0.0094524	5
