EXPLAIN
TAG	EISPOT
TITLE	LABEL	Potentiostatic EIS	Test &Identifier
DATE	LABEL	11/15/2019	Date
TIME	LABEL	10:49:15	Time
NOTES	NOTES	4	&Notes...
	
	
	
	
PSTAT	PSTAT	REF600-11020	Potentiostat
VDC	POTEN	0.00000E+000	T	DC &Voltage (V)
FREQINIT	QUANT	1.00000E+006	Initial Fre&q. (Hz)
FREQFINAL	QUANT	1.00000E+000	Final Fre&q. (Hz)
PTSPERDEC	QUANT	1.00000E+001	Points/&decade
VAC	QUANT	2.50000E+001	AC &Voltage (mV rms)
AREA	QUANT	1.00000E-002	&Area (cm^2)
CONDIT	TWOPARAM	T	5.00000E+000	0.00000E+000	Conditionin&g	Time(s)	E(V)
DELAY	TWOPARAM	T	5.00000E+000	0.00000E+000	Init. De&lay	Time(s)	Stab.(mV/s)
SPEED	SELECTOR	0	&Optimize for:
ZGUESS	QUANT	1.00000E+005	E&stimated Z (ohms)
OCVCURVE	TABLE	19
	Pt	T	Vf	Vm	Ach	Over
	#	s	V vs. Ref.	V	V	bits
	0	0.258333	5.88172E-003	5.88172E-003	5.68699E-004	...........
	1	0.516667	5.88102E-003	5.84494E-003	5.65899E-004	...........
	2	0.775	5.87718E-003	5.83480E-003	5.69732E-004	...........
	3	1.03333	5.86789E-003	5.82548E-003	5.66499E-004	...........
	4	1.29167	5.85461E-003	5.83113E-003	5.65499E-004	...........
	5	1.55	5.84239E-003	5.84757E-003	5.68966E-004	...........
	6	1.80833	5.83622E-003	5.86289E-003	5.72799E-004	...........
	7	2.06667	5.83834E-003	5.88048E-003	5.69232E-004	...........
	8	2.325	5.84788E-003	5.90064E-003	5.70599E-004	...........
	9	2.58333	5.86227E-003	5.91018E-003	5.71199E-004	...........
	10	2.84167	5.87889E-003	5.93704E-003	5.72832E-004	...........
	11	3.1	5.89690E-003	5.98519E-003	5.70899E-004	...........
	12	3.35833	5.91870E-003	6.03615E-003	5.76099E-004	...........
	13	3.61667	5.94812E-003	6.08367E-003	5.70766E-004	...........
	14	3.875	5.98627E-003	6.12659E-003	5.62666E-004	...........
	15	4.13333	6.03034E-003	6.16842E-003	5.69266E-004	...........
	16	4.39167	6.07617E-003	6.20704E-003	5.68732E-004	...........
	17	4.65	6.12090E-003	6.25064E-003	5.67866E-004	...........
	18	4.90833	6.16382E-003	6.29125E-003	5.66266E-004	...........
EOC	QUANT	0.0061638	Open Circuit (V)
PSTATMODEL	IQUANT	4	Pstat Model
PSTATSECTION	LABEL	REF600-11020	Pstat Section
PSTATSERIALNO	LABEL	11020	Pstat Serial Number
CTRLMODE	IQUANT	1	Control Mode
IESTAB	IQUANT	0	I/E Stability
CASPEED	IQUANT	1	Control Amp Speed
CONVENTION	IQUANT	1	Current Convention
ICHRANGE	IQUANT	2	Ich Range
ICHRANGEMODE	TOGGLE	F	Ich Auto Range
ICHOFFSETENABLE	TOGGLE	T	Ich Offset Enable
ICHOFFSET	QUANT	0	Ich Offset (V)
ICHFILTER	IQUANT	3	Ich Filter
VCHRANGE	IQUANT	2	Vch Range
VCHRANGEMODE	TOGGLE	F	Vch Auto Range
VCHOFFSETENABLE	TOGGLE	T	Vch Offset Enable
VCHOFFSET	QUANT	0	Vch Offset (V)
VCHFILTER	IQUANT	3	Vch Filter
ACHRANGE	IQUANT	2	Ach Range
ACHOFFSETENABLE	TOGGLE	F	Ach Offset Enable
ACHOFFSET	QUANT	0	Ach Offset (V)
ACHFILTER	IQUANT	3	Ach Filter
IERANGELOWERLIMIT	IQUANT	1	I/E Range Lower Limit
IERANGEMODE	TOGGLE	F	I/E AutoRange
IERANGE	IQUANT	5	I/E Range
POSFEEDENABLE	TOGGLE	F	Positive Feedback IR Comp
POSFEEDRESISTANCE	QUANT	0	Positive Feedback Resistance (ohm)
ACHSELECT	IQUANT	0	Ach Select
CABLEID	IQUANT	14	Cable ID
DCCALDATE	LABEL	8/19/2019	DC Calibration Date
ACCALDATE	LABEL	8/19/2019	AC Calibration Date
THERMOSELECT	IQUANT	1	Thermo Select
FRAMEWORKVERSION	QUANT	6.33	Framework Version
INSTRUMENTVERSION	LABEL	3.50	Instrument Version
ZCURVE	TABLE
	Pt	Time	Freq	Zreal	Zimag	Zsig	Zmod	Zphz	Idc	Vdc	IERange
	#	s	Hz	ohm	ohm	V	ohm	°	A	V	#
	0	1	1000078	2158.895	-1578.807	1	2674.595	-36.17813	2.449279E-006	0.0090608	8
	1	1	794390.6	2477.949	-1532.269	1	2913.431	-31.73107	-1.373027E-006	0.0088773	8
	2	2	630984.4	2777.182	-1435.335	1	3126.168	-27.33134	-7.953731E-007	0.0086285	8
	3	2	501234.4	3029.541	-1297.83	1	3295.828	-23.1899	6.83291E-006	0.0071761	8
	4	2	398109.4	3234.663	-1148.684	1	3432.568	-19.55082	1.751949E-006	0.0073685	8
	5	3	316265.6	3392.717	-1009.327	1	3539.671	-16.56764	-1.525704E-006	0.0082759	8
	6	3	251203.1	3521.741	-871.3093	1	3627.925	-13.89642	6.287768E-006	0.0067238	8
	7	3	199546.9	3608.747	-746.3959	1	3685.127	-11.68569	5.15081E-007	0.0082463	8
	8	4	158578.1	3684.008	-658.9421	1	3742.475	-10.141	-3.64821E-006	0.0083941	8
	9	4	125953.1	3756.174	-497.9005	1	3789.03	-7.550836	-1.702148E-006	0.0111328	7
	10	4	100078.1	3793.567	-431.6132	1	3818.042	-6.490916	-3.185239E-007	0.0092247	7
	11	5	79453.13	3826.113	-382.0638	1	3845.142	-5.702475	-7.457305E-007	0.0076107	7
	12	5	63140.62	3855.876	-345.333	1	3871.309	-5.117768	5.195278E-007	0.0060483	7
	13	5	50203.12	3877.588	-315.6685	1	3890.416	-4.654098	-6.604674E-007	0.009463	7
	14	6	39890.62	3900.123	-297.4557	1	3911.45	-4.361408	1.371507E-007	0.0063478	7
	15	6	31640.63	3919.382	-287.2564	1	3929.895	-4.191784	-3.158048E-007	0.00921	7
	16	6	25171.88	3937.691	-285.3341	1	3948.016	-4.144539	-1.151439E-006	0.0094757	7
	17	7	20015.62	3956.34	-294.136	1	3967.259	-4.25186	-1.151739E-006	0.0094732	7
	18	7	15890.62	3976.039	-313.0538	1	3988.344	-4.501902	1.37332E-007	0.00635	7
	19	7	12609.37	3990.863	-339.0014	1	4005.235	-4.8553	-1.150522E-006	0.0094714	7
	20	8	10078.13	4007.512	-379.5187	1	4025.443	-5.40988	-1.268832E-006	0.0089026	7
	21	8	8015.625	4029.404	-432.7235	1	4052.573	-6.129584	5.205733E-007	0.0060453	7
	22	8	6328.125	4051.633	-508.7313	1	4083.447	-7.156721	1.13587E-006	0.0062781	7
	23	8	5015.625	4074.481	-602.2817	1	4118.754	-8.40846	8.560112E-007	0.0075848	7
	24	9	3984.375	4098.247	-717.2797	1	4160.542	-9.92742	5.236393E-007	0.0060395	7
	25	9	3170.956	4123.974	-860.6648	1	4212.826	-11.78831	-9.45028E-007	0.0095379	7
	26	9	2527.573	4159.066	-1043.057	1	4287.867	-14.07889	-3.047204E-007	0.0068767	7
	27	10	1976.103	4201.845	-1284.095	1	4393.677	-16.9933	-9.456734E-007	0.0095307	7
	28	10	1577.524	4249.228	-1576.243	1	4532.16	-20.35224	8.239068E-007	0.0059321	7
	29	10	1265.625	4309.781	-1901.045	1	4710.434	-23.80229	8.240693E-007	0.0059361	7
	30	11	998.264	4386.109	-2337.759	1	4970.218	-28.05724	-1.151078E-006	0.0094614	7
	31	11	796.875	4479.513	-2864.869	1	5317.284	-32.60092	5.914008E-008	0.0087973	7
	32	11	627.7902	4605.024	-3543.584	1	5810.614	-37.57842	-3.170336E-007	0.0092027	7
	33	12	505.5147	4750.463	-4295.268	1	6404.391	-42.11922	-1.268896E-006	0.0088926	7
	34	12	397.9953	4956.277	-5331.884	1	7279.675	-47.09086	1.777495E-009	0.0078101	7
	35	12	315.5048	5217.076	-6557.173	1	8379.403	-51.49323	4.992513E-009	0.0078008	7
	36	13	252.4038	5542.349	-7992.39	1	9726.04	-55.2605	4.765616E-009	0.007804	7
	37	13	198.6229	5998.007	-9872.75	1	11551.94	-58.71999	7.062135E-010	0.0077396	6
	38	13	158.3615	6569.12	-12034.42	1	13710.61	-61.3716	2.311811E-010	0.007751	6
	39	14	125.558	7319.215	-14722.5	1	16441.5	-63.56597	5.875256E-010	0.0077399	6
	40	14	100.4464	8276.445	-17819.61	1	19647.85	-65.08715	-3.492609E-010	0.0077383	6
	41	14	79.00281	9627.95	-21864.53	1	23890.48	-66.23392	-1.746591E-010	0.0077486	6
	42	15	63.3446	10983.41	-26170.1	1	28381.5	-67.23254	1.033644E-009	0.0077446	6
	43	15	49.86702	13281.03	-31810.24	1	34471.39	-67.33908	5.841386E-010	0.0077418	6
	44	15	39.72458	16128.82	-38325.5	1	41581.04	-67.1768	4.368529E-010	0.0077466	6
	45	16	31.6723	19733.5	-45781.96	1	49853.77	-66.6824	1.522818E-009	0.0077428	6
	46	16	24.93351	24352.16	-54717.63	1	59891.96	-66.00848	-5.071727E-010	0.0077428	6
	47	16	19.86229	29869.99	-64526.8	1	71105.02	-65.16019	-8.440783E-011	0.0077464	6
	48	17	15.83615	36567.14	-76106.09	1	84435.14	-64.33684	1.009911E-009	0.0077441	6
	49	17	12.40079	45478.88	-89071.95	1	100010.7	-62.95179	1.306082E-009	0.00774	6
	50	17	9.93114	54933.08	-102453.3	1	116251.1	-61.80083	1.96688E-010	0.0077495	5
	51	18	7.944915	65644.41	-117650.7	1	134725.2	-60.84022	-7.723382E-010	0.0077538	5
	52	19	6.317385	77727.97	-135351.2	1	156082	-60.1326	-7.290065E-010	0.0077664	5
	53	19	5.008013	91529.18	-155832	1	180724.1	-59.57182	-3.17995E-010	0.0077467	5
	54	20	3.945707	106540.1	-180256.4	1	209387.6	-59.4149	-2.022994E-010	0.0077327	5
	55	22	3.158693	122310.6	-207274.6	1	240671.3	-59.45559	1.544731E-010	0.007749	5
	56	23	2.504006	140527.5	-240710.1	1	278728	-59.72345	-1.314433E-010	0.0077552	5
	57	25	1.998082	160097.1	-279794.1	1	322359.8	-60.22198	-2.228775E-010	0.0077169	5
	58	26	1.584686	183359.2	-326944.5	1	374851	-60.71513	-1.903666E-011	0.0077611	5
	59	28	1.266892	210248.2	-382350.2	1	436343.9	-61.19431	3.852236E-011	0.0077792	5
	60	31	0.999041	242629.1	-452871.4	1	513771.8	-61.8195	3.977958E-011	0.0077768	5
