EXPLAIN
TAG	EISPOT
TITLE	LABEL	Potentiostatic EIS	Test &Identifier
DATE	LABEL	11/9/2019	Date
TIME	LABEL	9:46:34	Time
NOTES	NOTES	2	&Notes...
	
	
PSTAT	PSTAT	REF600-11020	Potentiostat
VDC	POTEN	0.00000E+000	T	DC &Voltage (V)
FREQINIT	QUANT	1.00000E+006	Initial Fre&q. (Hz)
FREQFINAL	QUANT	1.00000E+000	Final Fre&q. (Hz)
PTSPERDEC	QUANT	1.00000E+001	Points/&decade
VAC	QUANT	2.50000E+001	AC &Voltage (mV rms)
AREA	QUANT	1.00000E-002	&Area (cm^2)
CONDIT	TWOPARAM	T	5.00000E+000	0.00000E+000	Conditionin&g	Time(s)	E(V)
DELAY	TWOPARAM	T	5.00000E+000	0.00000E+000	Init. De&lay	Time(s)	Stab.(mV/s)
SPEED	SELECTOR	0	&Optimize for:
ZGUESS	QUANT	1.00000E+005	E&stimated Z (ohms)
OCVCURVE	TABLE	19
	Pt	T	Vf	Vm	Ach	Over
	#	s	V vs. Ref.	V	V	bits
	0	0.258333	6.70442E-003	6.70442E-003	5.67099E-004	...........
	1	0.516667	6.69914E-003	6.42812E-003	5.70432E-004	...........
	2	0.775	6.66783E-003	6.22394E-003	5.65066E-004	...........
	3	1.03333	6.58429E-003	6.09943E-003	5.69066E-004	...........
	4	1.29167	6.44956E-003	6.06829E-003	5.67999E-004	...........
	5	1.55	6.30431E-003	6.26654E-003	5.69432E-004	...........
	6	1.80833	6.20562E-003	6.39413E-003	5.66666E-004	...........
	7	2.06667	6.19070E-003	6.50821E-003	5.64999E-004	...........
	8	2.325	6.25242E-003	6.50416E-003	5.71099E-004	...........
	9	2.58333	6.34906E-003	6.57181E-003	5.72466E-004	...........
	10	2.84167	6.44006E-003	6.60823E-003	5.74366E-004	...........
	11	3.1	6.51004E-003	6.65789E-003	5.62732E-004	...........
	12	3.35833	6.56217E-003	6.62011E-003	5.70299E-004	...........
	13	3.61667	6.59924E-003	6.60701E-003	5.71066E-004	...........
	14	3.875	6.61895E-003	6.60741E-003	5.75866E-004	...........
	15	4.13333	6.62332E-003	6.64917E-003	5.74632E-004	...........
	16	4.39167	6.62292E-003	6.66609E-003	5.70866E-004	...........
	17	4.65	6.62899E-003	6.71204E-003	5.72366E-004	...........
	18	4.90833	6.64548E-003	6.71088E-003	5.65266E-004	...........
EOC	QUANT	0.0066455	Open Circuit (V)
PSTATMODEL	IQUANT	4	Pstat Model
PSTATSECTION	LABEL	REF600-11020	Pstat Section
PSTATSERIALNO	LABEL	11020	Pstat Serial Number
CTRLMODE	IQUANT	1	Control Mode
IESTAB	IQUANT	0	I/E Stability
CASPEED	IQUANT	1	Control Amp Speed
CONVENTION	IQUANT	1	Current Convention
ICHRANGE	IQUANT	2	Ich Range
ICHRANGEMODE	TOGGLE	F	Ich Auto Range
ICHOFFSETENABLE	TOGGLE	T	Ich Offset Enable
ICHOFFSET	QUANT	0	Ich Offset (V)
ICHFILTER	IQUANT	3	Ich Filter
VCHRANGE	IQUANT	2	Vch Range
VCHRANGEMODE	TOGGLE	F	Vch Auto Range
VCHOFFSETENABLE	TOGGLE	T	Vch Offset Enable
VCHOFFSET	QUANT	0	Vch Offset (V)
VCHFILTER	IQUANT	3	Vch Filter
ACHRANGE	IQUANT	2	Ach Range
ACHOFFSETENABLE	TOGGLE	F	Ach Offset Enable
ACHOFFSET	QUANT	0	Ach Offset (V)
ACHFILTER	IQUANT	3	Ach Filter
IERANGELOWERLIMIT	IQUANT	1	I/E Range Lower Limit
IERANGEMODE	TOGGLE	F	I/E AutoRange
IERANGE	IQUANT	5	I/E Range
POSFEEDENABLE	TOGGLE	F	Positive Feedback IR Comp
POSFEEDRESISTANCE	QUANT	0	Positive Feedback Resistance (ohm)
ACHSELECT	IQUANT	0	Ach Select
CABLEID	IQUANT	14	Cable ID
DCCALDATE	LABEL	8/19/2019	DC Calibration Date
ACCALDATE	LABEL	8/19/2019	AC Calibration Date
THERMOSELECT	IQUANT	1	Thermo Select
FRAMEWORKVERSION	QUANT	6.33	Framework Version
INSTRUMENTVERSION	LABEL	3.50	Instrument Version
ZCURVE	TABLE
	Pt	Time	Freq	Zreal	Zimag	Zsig	Zmod	Zphz	Idc	Vdc	IERange
	#	s	Hz	ohm	ohm	V	ohm	°	A	V	#
	0	1	1000078	2129.505	-933.8076	1	2325.25	-23.67789	-7.459608E-006	0.0099897	8
	1	2	794390.6	2280.333	-868.4	1	2440.089	-20.84792	-7.156952E-006	0.0100804	8
	2	2	630984.4	2410.057	-784.5648	1	2534.544	-18.03203	5.744168E-007	0.0080815	8
	3	2	501234.4	2510.356	-695.4932	1	2604.918	-15.48537	-8.350667E-006	0.0096417	8
	4	3	398109.4	2600.556	-616.9739	1	2672.742	-13.34649	1.724075E-006	0.0088733	8
	5	3	316265.6	2670.88	-553.0532	1	2727.539	-11.69878	-3.623074E-006	0.0090482	8
	6	3	251203.1	2732.177	-498.2945	1	2777.244	-10.33601	-2.224984E-007	0.0080058	8
	7	4	199546.9	2781.673	-466.8517	1	2820.577	-9.52723	-1.952253E-006	0.0080758	8
	8	4	158578.1	2841.053	-424.9486	1	2872.658	-8.506911	2.948836E-006	0.0076618	8
	9	4	125953.1	2892.026	-358.4635	1	2914.157	-7.065712	2.270142E-006	0.0084475	7
	10	5	100078.1	2913.673	-333.404	1	2932.686	-6.527815	1.264587E-006	0.0070052	7
	11	5	79453.13	2951.564	-336.9431	1	2970.734	-6.512549	1.241287E-006	0.0066202	7
	12	5	63140.62	2992.15	-343.3717	1	3011.788	-6.546485	8.914909E-007	0.0062779	7
	13	6	50203.12	3029.721	-350.2272	1	3049.896	-6.593964	-1.412379E-006	0.0099891	7
	14	6	39890.62	3069.259	-358.9151	1	3090.173	-6.6698	9.402946E-007	0.0080511	7
	15	6	31640.63	3103.854	-369.9709	1	3125.825	-6.79743	-1.400537E-006	0.0095397	7
	16	6	25171.88	3153.377	-392.3354	1	3177.69	-7.092155	7.04428E-007	0.0085125	7
	17	7	20015.62	3188.769	-425.096	1	3216.979	-7.593352	1.402902E-007	0.0067046	7
	18	7	15890.62	3231.395	-453.3771	1	3263.045	-7.986684	7.125948E-007	0.0085153	7
	19	7	12609.37	3280.816	-499.2401	1	3318.583	-8.652293	8.433886E-008	0.0093924	7
	20	8	10078.13	3324.734	-548.7208	1	3369.711	-9.371728	1.258924E-006	0.0069843	7
	21	8	8015.625	3366.257	-605.3196	1	3420.248	-10.19397	-1.26622E-006	0.0101646	7
	22	8	6328.125	3414.889	-695.5674	1	3485.008	-11.5129	-1.044332E-006	0.0102312	7
	23	9	5015.625	3468.433	-795.2663	1	3558.438	-12.91395	-7.176267E-007	0.0101309	7
	24	9	3984.375	3525.352	-912.4973	1	3641.532	-14.51187	4.489229E-007	0.0088783	7
	25	9	3170.956	3580.548	-1071.214	1	3737.356	-16.65593	-1.421173E-006	0.0099684	7
	26	10	2527.573	3642.388	-1254.966	1	3852.523	-19.01113	1.255888E-006	0.006602	7
	27	10	1976.103	3703.64	-1507.732	1	3998.776	-22.15097	-7.231509E-007	0.0101339	7
	28	10	1577.524	3767.905	-1788.327	1	4170.758	-25.39	1.163195E-006	0.0074772	7
	29	11	1265.625	3848.708	-2144.954	1	4406.063	-29.13171	-1.428574E-006	0.0099689	7
	30	11	998.264	3952.205	-2620.355	1	4741.96	-33.54481	1.275694E-006	0.0069855	7
	31	11	796.875	4058.836	-3170.003	1	5150.055	-37.9903	-8.231911E-007	0.0080744	7
	32	12	627.7902	4194.945	-3903.36	1	5730.077	-42.93791	1.163377E-006	0.0074705	7
	33	12	505.5147	4349.317	-4707.21	1	6408.93	-47.26302	1.263795E-006	0.0069771	7
	34	12	397.9953	4580.308	-5810.754	1	7398.924	-51.75317	-7.517835E-010	0.0083156	7
	35	12	315.5048	4854.037	-7131.755	1	8626.911	-55.7599	2.705158E-009	0.0083138	7
	36	13	252.4038	5189.993	-8684.2	1	10116.88	-59.13593	4.372391E-009	0.0083111	7
	37	13	198.6229	5662.645	-10731.77	1	12134.1	-62.18152	5.560276E-010	0.0082476	6
	38	13	158.3615	6227.425	-13090.93	1	14496.66	-64.55932	1.042675E-009	0.008253	6
	39	14	125.558	7004.219	-16040.01	1	17502.6	-66.41047	6.838852E-010	0.0082494	6
	40	14	100.4464	7949.938	-19508	1	21065.7	-67.82803	-1.27416E-009	0.0082397	6
	41	14	79.00281	9275.08	-23929.17	1	25663.83	-68.81339	-9.760732E-010	0.0082438	6
	42	15	63.3446	11556.09	-28706.9	1	30945.59	-68.07253	2.069785E-010	0.0082435	6
	43	15	49.86702	13919.06	-35197.54	1	37849.8	-68.42341	1.890942E-009	0.0082394	6
	44	16	39.72458	16522.03	-42402.5	1	45507.69	-68.71175	3.706331E-010	0.0082516	6
	45	16	31.6723	20219.02	-50931.74	1	54798.28	-68.34778	1.533533E-009	0.008238	6
	46	16	24.93351	26058.08	-61008.06	1	66340.09	-66.87145	3.77939E-010	0.0082447	6
	47	16	19.86229	32393.54	-71943.45	1	78899.95	-65.75967	1.532986E-009	0.0082431	6
	48	17	15.83615	41255.22	-85645.09	1	95063.5	-64.27989	3.825193E-009	0.008244	6
	49	17	12.40079	52594.19	-99498.7	1	112544	-62.13944	-1.204036E-009	0.0082481	5
	50	17	9.93114	62842.52	-112296	1	128684	-60.76798	5.278908E-010	0.0082411	5
	51	18	7.944915	76068.42	-128570.4	1	149387.9	-59.3894	-6.687571E-010	0.0082515	5
	52	19	6.317385	89885.4	-145421.4	1	170958.4	-58.27967	2.090979E-010	0.0082462	5
	53	19	5.008013	105453.5	-165719.1	1	196426.2	-57.5298	4.383665E-010	0.0082584	5
	54	20	3.945707	122409.3	-189056.5	1	225225.2	-57.07797	-1.65996E-012	0.0082374	5
	55	22	3.158693	140213.4	-215309.3	1	256939.5	-56.92708	2.171935E-011	0.0082202	5
	56	23	2.504006	159840.2	-248017.3	1	295061.8	-57.19935	2.123973E-010	0.0082309	5
	57	25	1.998082	180840	-285202.5	1	337703.4	-57.62221	-9.528489E-011	0.0082026	5
	58	26	1.584686	205439.7	-332715.4	1	391030.8	-58.30618	-1.582502E-010	0.0081824	5
	59	28	1.266892	231560.5	-386605.1	1	450648.2	-59.08013	-7.288801E-011	0.008217	5
	60	31	0.999041	264792.3	-454679.9	1	526164.2	-59.78473	-3.651074E-011	0.0082445	5
