EXPLAIN
TAG	EISPOT
TITLE	LABEL	Potentiostatic IDE	Test &Identifier
DATE	LABEL	9/10/2019	Date
TIME	LABEL	9:19:55	Time
NOTES	NOTES	1	&Notes...
	
PSTAT	PSTAT	REF600-11020	Potentiostat
VDC	POTEN	0.00000E+000	T	DC &Voltage (V)
FREQINIT	QUANT	1.00000E+006	Initial Fre&q. (Hz)
FREQFINAL	QUANT	1.00000E+000	Final Fre&q. (Hz)
PTSPERDEC	QUANT	1.00000E+001	Points/&decade
VAC	QUANT	2.50000E+001	AC &Voltage (mV rms)
AREA	QUANT	1.00000E-002	&Area (cm^2)
CONDIT	TWOPARAM	T	5.00000E+000	0.00000E+000	Conditionin&g	Time(s)	E(V)
DELAY	TWOPARAM	T	5.00000E+000	0.00000E+000	Init. De&lay	Time(s)	Stab.(mV/s)
SPEED	SELECTOR	1	&Optimize for:
ZGUESS	QUANT	1.00000E+007	E&stimated Z (ohms)
OCVCURVE	TABLE	19
	Pt	T	Vf	Vm	Ach	Over
	#	s	V vs. Ref.	V	V	bits
	0	0.258333	6.46288E-003	6.46288E-003	5.60832E-004	...........
	1	0.516667	6.45981E-003	6.30244E-003	5.66432E-004	...........
	2	0.775	6.44142E-003	6.17257E-003	5.70299E-004	...........
	3	1.03333	6.39110E-003	6.06432E-003	5.67766E-004	...........
	4	1.29167	6.30539E-003	5.97221E-003	5.68066E-004	...........
	5	1.55	6.19887E-003	5.88999E-003	5.65899E-004	...........
	6	1.80833	6.09041E-003	5.82031E-003	5.64999E-004	...........
	7	2.06667	5.99148E-003	5.75519E-003	5.65299E-004	...........
	8	2.325	5.90539E-003	5.70324E-003	5.68332E-004	...........
	9	2.58333	5.83096E-003	5.64053E-003	5.64766E-004	...........
	10	2.84167	5.76546E-003	5.59984E-003	5.63432E-004	...........
	11	3.1	5.70651E-003	5.55331E-003	5.66966E-004	...........
	12	3.35833	5.65289E-003	5.51018E-003	5.69632E-004	...........
	13	3.61667	5.60381E-003	5.47192E-003	5.66532E-004	...........
	14	3.875	5.55840E-003	5.43356E-003	5.70799E-004	...........
	15	4.13333	5.51590E-003	5.39721E-003	5.70399E-004	...........
	16	4.39167	5.47590E-003	5.36821E-003	5.70066E-004	...........
	17	4.65	5.43861E-003	5.35038E-003	5.71599E-004	...........
	18	4.90833	5.40480E-003	5.31097E-003	5.77466E-004	...........
EOC	QUANT	0.0054048	Open Circuit (V)
PSTATMODEL	IQUANT	4	Pstat Model
PSTATSECTION	LABEL	REF600-11020	Pstat Section
PSTATSERIALNO	LABEL	11020	Pstat Serial Number
CTRLMODE	IQUANT	1	Control Mode
IESTAB	IQUANT	0	I/E Stability
CASPEED	IQUANT	1	Control Amp Speed
CONVENTION	IQUANT	1	Current Convention
ICHRANGE	IQUANT	2	Ich Range
ICHRANGEMODE	TOGGLE	F	Ich Auto Range
ICHOFFSETENABLE	TOGGLE	T	Ich Offset Enable
ICHOFFSET	QUANT	0	Ich Offset (V)
ICHFILTER	IQUANT	3	Ich Filter
VCHRANGE	IQUANT	2	Vch Range
VCHRANGEMODE	TOGGLE	F	Vch Auto Range
VCHOFFSETENABLE	TOGGLE	T	Vch Offset Enable
VCHOFFSET	QUANT	0	Vch Offset (V)
VCHFILTER	IQUANT	3	Vch Filter
ACHRANGE	IQUANT	2	Ach Range
ACHOFFSETENABLE	TOGGLE	F	Ach Offset Enable
ACHOFFSET	QUANT	0	Ach Offset (V)
ACHFILTER	IQUANT	3	Ach Filter
IERANGELOWERLIMIT	IQUANT	1	I/E Range Lower Limit
IERANGEMODE	TOGGLE	F	I/E AutoRange
IERANGE	IQUANT	3	I/E Range
POSFEEDENABLE	TOGGLE	F	Positive Feedback IR Comp
POSFEEDRESISTANCE	QUANT	0	Positive Feedback Resistance (ohm)
ACHSELECT	IQUANT	0	Ach Select
CABLEID	IQUANT	14	Cable ID
DCCALDATE	LABEL	8/19/2019	DC Calibration Date
ACCALDATE	LABEL	8/19/2019	AC Calibration Date
THERMOSELECT	IQUANT	1	Thermo Select
FRAMEWORKVERSION	QUANT	6.33	Framework Version
INSTRUMENTVERSION	LABEL	3.50	Instrument Version
ZCURVE	TABLE
	Pt	Time	Freq	Zreal	Zimag	Zsig	Zmod	Zphz	Idc	Vdc	IERange
	#	s	Hz	ohm	ohm	V	ohm	°	A	V	#
	0	2	1000078	2582.073	-2049.218	1	3296.421	-38.43667	1.543711E-006	0.0076821	8
	1	4	794390.6	2998.782	-2013.465	1	3612.027	-33.87851	-2.121974E-006	0.0077908	8
	2	5	630984.4	3391.858	-1887.889	1	3881.859	-29.10006	3.425409E-006	0.0068139	8
	3	6	501234.4	3741.236	-1732.531	1	4122.925	-24.84841	3.186417E-006	0.0066118	8
	4	8	398109.4	3995.833	-1535.121	1	4280.57	-21.0158	-1.507567E-006	0.0075478	8
	5	9	316265.6	4219.556	-1363.131	1	4434.273	-17.9031	2.659525E-006	0.0067001	8
	6	11	251203.1	4395.709	-1185.946	1	4552.881	-15.09869	2.46913E-006	0.0066903	8
	7	12	199546.9	4523.99	-1040.445	1	4642.091	-12.95189	-6.190755E-007	0.0072472	8
	8	13	158578.1	4601.547	-914.1031	1	4691.463	-11.23561	1.134538E-007	0.0071963	8
	9	15	125953.1	4707.85	-774.1038	1	4771.067	-9.337495	-9.986712E-007	0.0093233	7
	10	16	100078.1	4763.123	-692.8487	1	4813.25	-8.276256	3.57619E-008	0.0070829	7
	11	17	79453.13	4818.836	-646.4083	1	4861.998	-7.640162	8.901758E-008	0.006993	7
	12	19	63140.62	4872.514	-612.3703	1	4910.844	-7.163291	-3.117691E-008	0.0071198	7
	13	20	50203.12	4924.792	-597.2289	1	4960.873	-6.914487	-2.239446E-008	0.0071073	7
	14	21	39890.62	4969.458	-599.1813	1	5005.451	-6.875122	-4.826988E-008	0.0072645	7
	15	23	31640.63	5024.686	-616.569	1	5062.373	-6.995677	-2.833968E-009	0.0070905	7
	16	24	25171.88	5079.923	-645.5725	1	5120.779	-7.242505	-2.280703E-008	0.0071074	7
	17	25	20015.62	5135.591	-691.4454	1	5181.93	-7.668073	6.688177E-008	0.0069737	7
	18	27	15890.62	5201.604	-753.7802	1	5255.936	-8.245507	6.629575E-008	0.0069743	7
	19	28	12609.37	5267.128	-832.3011	1	5332.482	-8.979518	-2.890317E-008	0.0071106	7
	20	29	10078.13	5338.618	-927.0002	1	5418.502	-9.85065	-4.993573E-008	0.0071929	7
	21	31	8015.625	5421.942	-1044.924	1	5521.713	-10.90838	-3.018617E-008	0.0071076	7
	22	32	6328.125	5510.674	-1198.804	1	5639.562	-12.27302	-3.578534E-008	0.0071825	7
	23	33	5015.625	5612.565	-1380.76	1	5779.913	-13.821	-4.320936E-010	0.0071046	7
	24	34	3984.375	5723.186	-1595.262	1	5941.356	-15.57511	-2.128651E-008	0.0070997	7
	25	36	3170.956	5843.433	-1855.112	1	6130.836	-17.61305	-8.170213E-009	0.0070584	7
	26	37	2527.573	5978	-2162.027	1	6356.953	-19.88323	3.47369E-008	0.0069899	7
	27	38	1976.103	6144.737	-2574.752	1	6662.367	-22.73454	3.620553E-008	0.0070016	7
	28	40	1577.524	6314.156	-3029.021	1	7003.109	-25.62792	1.087098E-008	0.0071727	7
	29	41	1265.625	6507.849	-3555.614	1	7415.827	-28.65033	-4.223407E-008	0.0071612	7
	30	42	998.264	6729.921	-4260.034	1	7964.906	-32.33377	-1.137805E-008	0.0071413	7
	31	44	796.875	6966.253	-5070.211	1	8616.016	-36.04805	1.267263E-008	0.0071748	7
	32	45	627.7902	7264.733	-6118.018	1	9497.71	-40.10252	-5.819188E-008	0.0072824	7
	33	46	505.5147	7580.357	-7255.51	1	10493.06	-43.74565	-4.738798E-009	0.0070671	6
	34	48	397.9953	7970.329	-8829.772	1	11895	-47.92853	8.680805E-010	0.0070643	6
	35	49	315.5048	8416.525	-10696.49	1	13610.76	-51.8026	8.989958E-010	0.0070607	6
	36	50	252.4038	8923.396	-12890.42	1	15677.69	-55.30707	5.234357E-010	0.0070613	6
	37	52	198.6229	9572.82	-15785.69	1	18461.5	-58.76637	7.250155E-010	0.0070621	6
	38	53	158.3615	10318.96	-19156.95	1	21759.35	-61.69071	5.441507E-010	0.0070586	6
	39	54	125.558	11257.66	-23391.37	1	25959.41	-64.2997	1.001085E-009	0.0070603	6
	40	56	100.4464	12370.15	-28355.9	1	30936.67	-66.43095	1.005339E-009	0.0070543	6
	41	57	79.00281	13839.05	-34952.86	1	37592.84	-68.39966	1.098133E-009	0.0070588	6
	42	58	63.3446	15758.83	-42593.2	1	45414.99	-69.6963	7.439231E-010	0.0070609	6
	43	60	49.86702	18035.96	-52038.57	1	55075.48	-70.88428	8.353424E-010	0.0070604	6
	44	61	39.72458	21292.28	-63518.2	1	66991.96	-71.46805	9.404324E-010	0.0070636	6
	45	63	31.6723	25282.95	-77369.52	1	81395.77	-71.90356	1.087561E-009	0.0070629	6
	46	64	24.93351	30873.47	-94620.52	1	99530	-71.92915	5.803492E-010	0.0070601	6
	47	65	19.86229	37915.98	-114420.5	1	120539.1	-71.66615	9.141954E-010	0.0070669	5
	48	67	15.83615	47430.05	-138016.9	1	145939.3	-71.03452	-1.677239E-010	0.0070622	5
	49	68	12.40079	60007.75	-168314	1	178691.2	-70.3777	5.576412E-010	0.0070586	5
	50	69	9.93114	74472.16	-199952.5	1	213370.8	-69.5722	4.903341E-010	0.0070701	5
	51	71	7.944915	93886.18	-236831.5	1	254762.2	-68.37534	4.915817E-010	0.0070576	5
	52	72	6.317385	118368.7	-280414.9	1	304374.3	-67.11443	3.310056E-010	0.0070627	5
	53	74	5.008013	149350.9	-331057.2	1	363186.7	-65.71828	3.959323E-011	0.0070645	5
	54	77	3.945707	188681.3	-389013.1	1	432356.1	-64.12543	3.398228E-010	0.0070758	5
	55	80	3.158693	232786.8	-450475	1	507067.5	-62.67196	1.877427E-011	0.0070567	5
	56	83	2.504006	289571.5	-519465.4	1	594723.4	-60.8629	5.112738E-010	0.0070613	5
	57	86	1.998082	350221.2	-593802.8	1	689388.6	-59.46816	6.623038E-011	0.0071005	5
	58	89	1.584686	424365	-678329	1	800134.9	-57.96976	2.53197E-010	0.0071109	5
	59	92	1.266892	503407.1	-766645.2	1	917149.7	-56.70964	-4.183523E-011	0.0070792	5
	60	97	0.999041	600038.4	-871192.3	1	1057838	-55.44266	3.509621E-010	0.0070795	4
