EXPLAIN
TAG	EISPOT
TITLE	LABEL	Potentiostatic EIS	Test &Identifier
DATE	LABEL	10/2/2019	Date
TIME	LABEL	10:05:41	Time
NOTES	NOTES	2	&Notes...
	
	
PSTAT	PSTAT	REF600-11020	Potentiostat
VDC	POTEN	0.00000E+000	T	DC &Voltage (V)
FREQINIT	QUANT	1.00000E+006	Initial Fre&q. (Hz)
FREQFINAL	QUANT	1.00000E+000	Final Fre&q. (Hz)
PTSPERDEC	QUANT	1.00000E+001	Points/&decade
VAC	QUANT	2.50000E+001	AC &Voltage (mV rms)
AREA	QUANT	1.00000E-002	&Area (cm^2)
CONDIT	TWOPARAM	T	5.00000E+000	0.00000E+000	Conditionin&g	Time(s)	E(V)
DELAY	TWOPARAM	T	5.00000E+000	0.00000E+000	Init. De&lay	Time(s)	Stab.(mV/s)
SPEED	SELECTOR	1	&Optimize for:
ZGUESS	QUANT	1.00000E+004	E&stimated Z (ohms)
OCVCURVE	TABLE	19
	Pt	T	Vf	Vm	Ach	Over
	#	s	V vs. Ref.	V	V	bits
	0	0.258333	7.02913E-003	7.02913E-003	5.69132E-004	...........
	1	0.516667	7.03385E-003	7.27652E-003	5.64732E-004	...........
	2	0.775	7.04604E-003	6.62960E-003	5.68866E-004	...........
	3	1.03333	7.02724E-003	6.15029E-003	5.66299E-004	...........
	4	1.29167	6.90503E-003	6.10854E-003	5.67232E-004	...........
	5	1.55	6.66971E-003	6.05240E-003	5.69199E-004	...........
	6	1.80833	6.41183E-003	6.28976E-003	5.73399E-004	...........
	7	2.06667	6.23634E-003	6.29708E-003	5.72066E-004	...........
	8	2.325	6.18117E-003	6.39930E-003	5.72899E-004	...........
	9	2.58333	6.21178E-003	6.21920E-003	5.71166E-004	...........
	10	2.84167	6.26151E-003	6.19705E-003	5.71999E-004	...........
	11	3.1	6.27891E-003	6.11397E-003	5.72466E-004	...........
	12	3.35833	6.25153E-003	6.03083E-003	5.71099E-004	...........
	13	3.61667	6.19827E-003	6.21989E-003	5.72099E-004	...........
	14	3.875	6.15275E-003	6.21830E-003	5.68266E-004	...........
	15	4.13333	6.14141E-003	6.20559E-003	5.70966E-004	...........
	16	4.39167	6.16069E-003	6.21638E-003	5.69132E-004	...........
	17	4.65	6.17778E-003	5.73066E-003	5.68799E-004	...........
	18	4.90833	6.14354E-003	5.51567E-003	5.74599E-004	...........
EOC	QUANT	0.0061435	Open Circuit (V)
PSTATMODEL	IQUANT	4	Pstat Model
PSTATSECTION	LABEL	REF600-11020	Pstat Section
PSTATSERIALNO	LABEL	11020	Pstat Serial Number
CTRLMODE	IQUANT	1	Control Mode
IESTAB	IQUANT	0	I/E Stability
CASPEED	IQUANT	1	Control Amp Speed
CONVENTION	IQUANT	1	Current Convention
ICHRANGE	IQUANT	2	Ich Range
ICHRANGEMODE	TOGGLE	F	Ich Auto Range
ICHOFFSETENABLE	TOGGLE	T	Ich Offset Enable
ICHOFFSET	QUANT	0	Ich Offset (V)
ICHFILTER	IQUANT	3	Ich Filter
VCHRANGE	IQUANT	2	Vch Range
VCHRANGEMODE	TOGGLE	F	Vch Auto Range
VCHOFFSETENABLE	TOGGLE	T	Vch Offset Enable
VCHOFFSET	QUANT	0	Vch Offset (V)
VCHFILTER	IQUANT	3	Vch Filter
ACHRANGE	IQUANT	2	Ach Range
ACHOFFSETENABLE	TOGGLE	F	Ach Offset Enable
ACHOFFSET	QUANT	0	Ach Offset (V)
ACHFILTER	IQUANT	3	Ach Filter
IERANGELOWERLIMIT	IQUANT	1	I/E Range Lower Limit
IERANGEMODE	TOGGLE	F	I/E AutoRange
IERANGE	IQUANT	6	I/E Range
POSFEEDENABLE	TOGGLE	F	Positive Feedback IR Comp
POSFEEDRESISTANCE	QUANT	0	Positive Feedback Resistance (ohm)
ACHSELECT	IQUANT	0	Ach Select
CABLEID	IQUANT	14	Cable ID
DCCALDATE	LABEL	8/19/2019	DC Calibration Date
ACCALDATE	LABEL	8/19/2019	AC Calibration Date
THERMOSELECT	IQUANT	1	Thermo Select
FRAMEWORKVERSION	QUANT	6.33	Framework Version
INSTRUMENTVERSION	LABEL	3.50	Instrument Version
ZCURVE	TABLE
	Pt	Time	Freq	Zreal	Zimag	Zsig	Zmod	Zphz	Idc	Vdc	IERange
	#	s	Hz	ohm	ohm	V	ohm	°	A	V	#
	0	1	1000078	2534.925	-1941.484	1	3192.993	-37.44829	-2.667761E-006	0.0092319	8
	1	3	794390.6	2910.749	-1870.627	1	3460.015	-32.7273	-5.591526E-007	0.0088207	8
	2	4	630984.4	3275.089	-1761.513	1	3718.755	-28.27367	4.072162E-006	0.0074194	8
	3	5	501234.4	3567.16	-1573.134	1	3898.638	-23.7977	-3.146237E-006	0.0086655	8
	4	7	398109.4	3821.813	-1401.506	1	4070.685	-20.13861	-9.357858E-007	0.0083428	8
	5	8	316265.6	3999.322	-1242.084	1	4187.762	-17.25341	4.829785E-006	0.006828	8
	6	10	251203.1	4156.344	-1075.637	1	4293.272	-14.50948	4.497281E-006	0.006829	8
	7	11	199546.9	4262.572	-914.3255	1	4359.531	-12.10654	4.833124E-007	0.0076334	8
	8	12	158578.1	4358.08	-800.7162	1	4431.027	-10.41092	8.780623E-007	0.0078414	8
	9	14	125953.1	4440.865	-673.827	1	4491.695	-8.627865	1.381686E-006	0.005141	7
	10	15	100078.1	4484.581	-610.3721	1	4525.927	-7.750596	-1.24431E-008	0.0078363	7
	11	17	79453.13	4532.278	-574.05	1	4568.487	-7.218541	1.213439E-007	0.0076342	7
	12	18	63140.62	4579.294	-550.133	1	4612.221	-6.850392	8.572337E-008	0.0076311	7
	13	19	50203.12	4622.956	-541.4426	1	4654.555	-6.680074	-6.223511E-009	0.0077918	7
	14	21	39890.62	4671.472	-546.6298	1	4703.345	-6.674084	-6.696462E-008	0.0079247	7
	15	22	31640.63	4719.137	-565.0933	1	4752.85	-6.828373	-5.015605E-008	0.007905	7
	16	23	25171.88	4771.93	-596.0497	1	4809.011	-7.119797	-5.026545E-008	0.0079089	7
	17	25	20015.62	4828.181	-639.439	1	4870.34	-7.544286	5.774613E-008	0.0077029	7
	18	26	15890.62	4891.243	-695.7066	1	4940.472	-8.095174	1.23509E-008	0.0078948	7
	19	27	12609.37	4958.496	-769.354	1	5017.827	-8.819614	8.871756E-008	0.007631	7
	20	29	10078.13	5032.93	-854.5175	1	5104.957	-9.63609	-4.014376E-008	0.0078044	7
	21	30	8015.625	5103.796	-955.377	1	5192.445	-10.60247	4.306446E-008	0.0077498	7
	22	31	6328.125	5205.292	-1086.472	1	5317.47	-11.78977	5.85181E-008	0.0077073	7
	23	33	5015.625	5304.898	-1237.095	1	5447.233	-13.1267	-7.920845E-008	0.0080326	7
	24	34	3984.375	5410.664	-1418.664	1	5593.558	-14.69211	-6.643329E-008	0.0079118	7
	25	35	3170.956	5527.191	-1632.563	1	5763.254	-16.45553	7.495523E-009	0.0077602	7
	26	37	2527.573	5651.534	-1888.964	1	5958.86	-18.48165	4.244248E-008	0.0077431	7
	27	38	1976.103	5800.731	-2225.395	1	6212.959	-20.98883	1.502656E-008	0.0078887	7
	28	39	1577.524	5952.792	-2601.827	1	6496.556	-23.60903	-8.771136E-008	0.0079107	7
	29	41	1265.625	6120.885	-3047.561	1	6837.606	-26.46851	-6.313193E-008	0.0079167	7
	30	42	998.264	6319.053	-3626.528	1	7285.749	-29.85168	-4.039538E-009	0.0077273	7
	31	43	796.875	6536.862	-4301.998	1	7825.455	-33.34946	1.075951E-007	0.0077053	7
	32	45	627.7902	6791.137	-5166.454	1	8532.982	-37.26258	1.268047E-007	0.0076122	7
	33	46	505.5147	7054.763	-6118.095	1	9338.135	-40.93277	-4.405337E-008	0.0077994	7
	34	48	397.9953	7394.33	-7420.204	1	10475.47	-45.10007	4.926611E-010	0.0077549	6
	35	49	315.5048	7764.688	-8972.538	1	11865.78	-49.12762	1.095383E-009	0.0077529	6
	36	50	252.4038	8178.256	-10803.77	1	13550.1	-52.87494	9.498565E-010	0.0077526	6
	37	52	198.6229	8700.256	-13230.03	1	15834.4	-56.67051	-1.291442E-009	0.007755	6
	38	53	158.3615	9294.626	-16062.97	1	18558.27	-59.94475	9.878921E-011	0.0077535	6
	39	54	125.558	10056.38	-19644.1	1	22068.56	-62.89079	-2.542405E-009	0.0077557	6
	40	56	100.4464	10959.08	-23868.43	1	26264.11	-65.33799	8.068887E-010	0.0077569	6
	41	57	79.00281	12260.15	-29482.28	1	31929.86	-67.42012	1.21664E-009	0.0077559	6
	42	58	63.3446	13892.02	-35629.83	1	38242.29	-68.69926	8.311223E-010	0.0077462	6
	43	60	49.86702	15841.04	-44251.18	1	47001.12	-70.30364	-1.39424E-009	0.0077494	6
	44	61	39.72458	18544.98	-53702.4	1	56814.29	-70.94874	2.128866E-009	0.0077572	6
	45	63	31.6723	22151.58	-65310.76	1	68965.13	-71.2645	5.970303E-010	0.0077503	6
	46	64	24.93351	27005	-79921.81	1	84360.93	-71.33026	1.531711E-010	0.0077499	6
	47	65	19.86229	33134.36	-96584	1	102109.5	-71.06482	9.154863E-010	0.0077464	6
	48	67	15.83615	41898.46	-116213.5	1	123535.7	-70.17425	-2.619823E-010	0.0077533	5
	49	68	12.40079	52176.68	-141743.9	1	151042.2	-69.79107	9.766937E-010	0.007762	5
	50	70	9.93114	65569.45	-167712.5	1	180074.5	-68.64632	1.323268E-010	0.0077536	5
	51	71	7.944915	81572.09	-197959.8	1	214107.6	-67.60521	-9.292447E-011	0.00776	5
	52	73	6.317385	103076.9	-233858	1	255566.8	-66.2137	3.851619E-011	0.0077448	5
	53	75	5.008013	129650.7	-274712.6	1	303770.2	-64.73502	6.84206E-010	0.0077609	5
	54	77	3.945707	163744.6	-324125.9	1	363139	-63.19762	-5.799218E-010	0.0077515	5
	55	80	3.158693	201417.2	-369278.8	1	420637.3	-61.39045	2.882057E-010	0.007757	5
	56	83	2.504006	248673	-426541.5	1	493736.7	-59.75788	1.455243E-010	0.0077669	5
	57	86	1.998082	299733.9	-482808.7	1	568282.2	-58.16745	5.233172E-010	0.0077498	5
	58	89	1.584686	361600.9	-546925.1	1	655654.1	-56.52921	6.98623E-011	0.0077058	5
	59	93	1.266892	424188.6	-614474.3	1	746669	-55.38161	3.514499E-010	0.0077578	5
	60	97	0.999041	491684.9	-687157.8	1	844949.6	-54.41498	-2.881196E-010	0.0077345	5
