EXPLAIN
TAG	EISPOT
TITLE	LABEL	Potentiostatic EIS	Test &Identifier
DATE	LABEL	11/22/2019	Date
TIME	LABEL	10:52:44	Time
NOTES	NOTES	4	&Notes...
	
	
	
	
PSTAT	PSTAT	REF600-11020	Potentiostat
VDC	POTEN	0.00000E+000	T	DC &Voltage (V)
FREQINIT	QUANT	1.00000E+006	Initial Fre&q. (Hz)
FREQFINAL	QUANT	1.00000E+000	Final Fre&q. (Hz)
PTSPERDEC	QUANT	1.00000E+001	Points/&decade
VAC	QUANT	2.50000E+001	AC &Voltage (mV rms)
AREA	QUANT	1.00000E-002	&Area (cm^2)
CONDIT	TWOPARAM	T	5.00000E+000	0.00000E+000	Conditionin&g	Time(s)	E(V)
DELAY	TWOPARAM	T	5.00000E+000	0.00000E+000	Init. De&lay	Time(s)	Stab.(mV/s)
SPEED	SELECTOR	0	&Optimize for:
ZGUESS	QUANT	1.00000E+005	E&stimated Z (ohms)
OCVCURVE	TABLE	19
	Pt	T	Vf	Vm	Ach	Over
	#	s	V vs. Ref.	V	V	bits
	0	0.258333	3.10245E-002	3.10245E-002	5.60332E-004	...........
	1	0.516667	3.10560E-002	3.26719E-002	5.62366E-004	...........
	2	0.775	3.12572E-002	3.46486E-002	5.62232E-004	...........
	3	1.03333	3.18451E-002	3.61488E-002	5.67399E-004	...........
	4	1.29167	3.29113E-002	3.73986E-002	5.55033E-004	...........
	5	1.55	3.43044E-002	3.84933E-002	5.63332E-004	...........
	6	1.80833	3.57664E-002	3.94535E-002	5.65566E-004	...........
	7	2.06667	3.71216E-002	4.06560E-002	5.63632E-004	...........
	8	2.325	3.83296E-002	4.13968E-002	5.65699E-004	...........
	9	2.58333	3.94234E-002	4.25282E-002	5.66266E-004	...........
	10	2.84167	4.04560E-002	4.39898E-002	5.66966E-004	...........
	11	3.1	4.15019E-002	4.52364E-002	5.64732E-004	...........
	12	3.35833	4.26253E-002	4.63027E-002	5.61566E-004	...........
	13	3.61667	4.38175E-002	4.73071E-002	5.61032E-004	...........
	14	3.875	4.50081E-002	4.82556E-002	5.60732E-004	...........
	15	4.13333	4.61318E-002	4.89923E-002	5.60099E-004	...........
	16	4.39167	4.71598E-002	4.98819E-002	5.56933E-004	...........
	17	4.65	4.80984E-002	5.08318E-002	5.54966E-004	...........
	18	4.90833	4.89778E-002	5.13448E-002	5.59832E-004	...........
EOC	QUANT	0.0489778	Open Circuit (V)
PSTATMODEL	IQUANT	4	Pstat Model
PSTATSECTION	LABEL	REF600-11020	Pstat Section
PSTATSERIALNO	LABEL	11020	Pstat Serial Number
CTRLMODE	IQUANT	1	Control Mode
IESTAB	IQUANT	0	I/E Stability
CASPEED	IQUANT	1	Control Amp Speed
CONVENTION	IQUANT	1	Current Convention
ICHRANGE	IQUANT	2	Ich Range
ICHRANGEMODE	TOGGLE	F	Ich Auto Range
ICHOFFSETENABLE	TOGGLE	T	Ich Offset Enable
ICHOFFSET	QUANT	0	Ich Offset (V)
ICHFILTER	IQUANT	3	Ich Filter
VCHRANGE	IQUANT	2	Vch Range
VCHRANGEMODE	TOGGLE	F	Vch Auto Range
VCHOFFSETENABLE	TOGGLE	T	Vch Offset Enable
VCHOFFSET	QUANT	0	Vch Offset (V)
VCHFILTER	IQUANT	3	Vch Filter
ACHRANGE	IQUANT	2	Ach Range
ACHOFFSETENABLE	TOGGLE	F	Ach Offset Enable
ACHOFFSET	QUANT	0	Ach Offset (V)
ACHFILTER	IQUANT	3	Ach Filter
IERANGELOWERLIMIT	IQUANT	1	I/E Range Lower Limit
IERANGEMODE	TOGGLE	F	I/E AutoRange
IERANGE	IQUANT	5	I/E Range
POSFEEDENABLE	TOGGLE	F	Positive Feedback IR Comp
POSFEEDRESISTANCE	QUANT	0	Positive Feedback Resistance (ohm)
ACHSELECT	IQUANT	0	Ach Select
CABLEID	IQUANT	14	Cable ID
DCCALDATE	LABEL	8/19/2019	DC Calibration Date
ACCALDATE	LABEL	8/19/2019	AC Calibration Date
THERMOSELECT	IQUANT	1	Thermo Select
FRAMEWORKVERSION	QUANT	6.33	Framework Version
INSTRUMENTVERSION	LABEL	3.50	Instrument Version
ZCURVE	TABLE
	Pt	Time	Freq	Zreal	Zimag	Zsig	Zmod	Zphz	Idc	Vdc	IERange
	#	s	Hz	ohm	ohm	V	ohm	°	A	V	#
	0	1	1000078	2101.864	-1571.954	1	2624.666	-36.79229	-6.802057E-006	0.0525865	8
	1	2	794390.6	2406.775	-1607.367	1	2894.166	-33.73701	-1.097561E-006	0.0516126	8
	2	2	630984.4	2696.602	-1589.068	1	3129.984	-30.51022	-6.884227E-006	0.0517841	8
	3	2	501234.4	2977.283	-1549.667	1	3356.438	-27.49685	-6.033271E-007	0.0511115	8
	4	3	398109.4	3242.088	-1480.753	1	3564.234	-24.54752	-2.173555E-006	0.050734	8
	5	3	316265.6	3465.24	-1389.642	1	3733.496	-21.85193	8.6375E-007	0.0509419	8
	6	3	251203.1	3680.752	-1321.637	1	3910.839	-19.75155	6.015801E-006	0.0493947	8
	7	4	199546.9	3862.327	-1216.19	1	4049.283	-17.47845	-3.808817E-006	0.051101	8
	8	4	158578.1	4010.751	-1151.479	1	4172.772	-16.01867	6.950786E-006	0.0497699	8
	9	4	125953.1	4190.284	-1000.302	1	4308.026	-13.42634	-1.605703E-006	0.0546183	7
	10	5	100078.1	4322.865	-949.946	1	4426.01	-12.39371	-6.336325E-007	0.0521506	7
	11	5	79453.13	4447.424	-907.8357	1	4539.135	-11.53707	4.768298E-007	0.0487785	7
	12	5	63140.62	4556.745	-893.1353	1	4643.449	-11.08956	8.771125E-007	0.0502281	7
	13	6	50203.12	4637.112	-868.7586	1	4717.791	-10.6113	-1.105004E-006	0.0510578	7
	14	6	39890.62	4740.336	-867.8414	1	4819.122	-10.37459	-7.815291E-007	0.0503601	7
	15	6	31640.63	4839.468	-880.4618	1	4918.909	-10.31125	-1.276495E-006	0.0516431	7
	16	6	25171.88	4975.086	-913.5578	1	5058.268	-10.40511	1.063718E-006	0.0497121	7
	17	7	20015.62	5085.568	-946.3564	1	5172.871	-10.54141	8.782439E-007	0.0502254	7
	18	7	15890.62	5190.163	-986.298	1	5283.046	-10.75975	4.782425E-007	0.0487664	7
	19	7	12609.37	5291.021	-1043.175	1	5392.876	-11.15335	-1.27677E-006	0.0520109	7
	20	8	10078.13	5446.249	-1122.925	1	5560.809	-11.65017	1.006752E-006	0.0487151	7
	21	8	8015.625	5541.699	-1179.934	1	5665.922	-12.01988	-1.138129E-006	0.0521783	7
	22	8	6328.125	5709.152	-1286.736	1	5852.359	-12.70118	6.520349E-007	0.0506649	7
	23	9	5015.625	5856.184	-1406.035	1	6022.609	-13.50083	1.061797E-006	0.0497092	7
	24	9	3984.375	5952.513	-1527.444	1	6145.363	-14.39186	-1.277461E-006	0.0520088	7
	25	9	3170.956	6096.903	-1695.566	1	6328.283	-15.5414	-1.279294E-006	0.0516342	7
	26	10	2527.573	6242.158	-1899.713	1	6524.833	-16.92689	-1.277683E-006	0.0520066	7
	27	10	1976.103	6407.6	-2178.05	1	6767.661	-18.77375	-1.135133E-006	0.0521756	7
	28	11	1577.524	6551.843	-2499.316	1	7012.362	-20.88024	-1.109044E-006	0.0510473	7
	29	11	1265.625	6767.233	-2899.321	1	7362.167	-23.192	1.126361E-006	0.0489333	7
	30	11	998.264	6912.799	-3376.723	1	7693.442	-26.03431	-1.273845E-006	0.0516317	7
	31	12	796.875	7122.396	-3991.126	1	8164.411	-29.26465	-2.860335E-007	0.0518776	7
	32	12	627.7902	7326.334	-4761.006	1	8737.411	-33.01776	-1.278294E-006	0.0516326	7
	33	12	505.5147	7598.866	-5706.573	1	9503.04	-36.9057	1.125293E-006	0.0489324	7
	34	13	397.9953	7876.941	-6871.981	1	10453.24	-41.10201	-2.457106E-009	0.0505059	7
	35	13	315.5048	8219.735	-8324.221	1	11698.58	-45.36185	-1.658408E-009	0.0504444	6
	36	13	252.4038	8615.891	-10044.71	1	13233.66	-49.37853	-1.957551E-009	0.0504407	6
	37	14	198.6229	9137.788	-12316.42	1	15336.02	-53.42758	-2.307196E-009	0.0504473	6
	38	14	158.3615	9755.24	-14962.08	1	17861.37	-56.89575	-2.282539E-009	0.050443	6
	39	14	125.558	10551.61	-18271.84	1	21099.68	-59.99445	-2.313899E-009	0.050453	6
	40	15	100.4464	11500.45	-22137.02	1	24946.1	-62.54758	-1.680027E-009	0.0504391	6
	41	15	79.00281	12852.03	-27161.35	1	30048.52	-64.67773	-2.352303E-009	0.0504401	6
	42	15	63.3446	14568.48	-33201.08	1	36256.76	-66.30836	-2.378974E-009	0.0504329	6
	43	16	49.86702	16711.15	-40567.9	1	43875.01	-67.61176	-1.998222E-009	0.0504332	6
	44	16	39.72458	19399.7	-48894.11	1	52602.11	-68.35832	-2.462541E-009	0.050443	6
	45	17	31.6723	22929.8	-58944.05	1	63246.96	-68.74348	-2.33147E-009	0.0504294	6
	46	17	24.93351	27575.17	-71992.77	1	77093.12	-69.04181	-1.441408E-009	0.0504267	6
	47	17	19.86229	33428.8	-86705.98	1	92926.92	-68.91625	-3.768663E-010	0.0504308	6
	48	17	15.83615	41957.25	-103644.5	1	111815	-67.96098	-3.922938E-009	0.0504398	5
	49	18	12.40079	51679.13	-125149.3	1	135399.7	-67.56232	-1.511341E-009	0.0504348	5
	50	18	9.93114	64327.63	-148362.3	1	161707.8	-66.55917	-2.555021E-009	0.0504332	5
	51	19	7.944915	79583.8	-174346	1	191651	-65.46471	-2.070842E-009	0.050429	5
	52	19	6.317385	99040.7	-203682.7	1	226485.5	-64.06866	-2.251697E-009	0.0504464	5
	53	20	5.008013	123140	-237230.3	1	267285.8	-62.56736	-2.340987E-009	0.0504253	5
	54	21	3.945707	152678.1	-275783.3	1	315225.3	-61.03037	-1.86403E-009	0.0504366	5
	55	23	3.158693	184138.3	-314376.8	1	364334.6	-59.64144	-2.085379E-009	0.0504559	5
	56	24	2.504006	221448.5	-360186	1	422816	-58.41609	-2.42402E-009	0.0504329	5
	57	25	1.998082	262292.8	-407374.1	1	484511.2	-57.22404	-1.916948E-009	0.0504612	5
	58	27	1.584686	308167.8	-465061.2	1	557897.2	-56.46999	-1.752903E-009	0.0504816	5
	59	29	1.266892	356251.1	-527200.6	1	636282.4	-55.95148	-1.785064E-009	0.0504464	5
	60	31	0.999041	412091.8	-605481.6	1	732412.3	-55.76073	-1.58061E-009	0.0504218	5
