EXPLAIN
TAG	EISPOT
TITLE	LABEL	Potentiostatic EIS	Test &Identifier
DATE	LABEL	10/24/2019	Date
TIME	LABEL	9:04:45	Time
NOTES	NOTES	1	&Notes...
	
PSTAT	PSTAT	REF600-11020	Potentiostat
VDC	POTEN	0.00000E+000	T	DC &Voltage (V)
FREQINIT	QUANT	1.00000E+006	Initial Fre&q. (Hz)
FREQFINAL	QUANT	1.00000E+000	Final Fre&q. (Hz)
PTSPERDEC	QUANT	1.00000E+001	Points/&decade
VAC	QUANT	2.50000E+001	AC &Voltage (mV rms)
AREA	QUANT	1.00000E-002	&Area (cm^2)
CONDIT	TWOPARAM	T	5.00000E+000	0.00000E+000	Conditionin&g	Time(s)	E(V)
DELAY	TWOPARAM	T	5.00000E+000	0.00000E+000	Init. De&lay	Time(s)	Stab.(mV/s)
SPEED	SELECTOR	1	&Optimize for:
ZGUESS	QUANT	1.00000E+005	E&stimated Z (ohms)
OCVCURVE	TABLE	19
	Pt	T	Vf	Vm	Ach	Over
	#	s	V vs. Ref.	V	V	bits
	0	0.258333	5.59839E-003	5.59839E-003	5.54733E-004	...........
	1	0.516667	5.59717E-003	5.53427E-003	5.57933E-004	...........
	2	0.775	5.58944E-003	5.46266E-003	5.57732E-004	...........
	3	1.03333	5.56694E-003	5.39644E-003	5.59099E-004	...........
	4	1.29167	5.52549E-003	5.32990E-003	5.59966E-004	...........
	5	1.55	5.46793E-003	5.21821E-003	5.57966E-004	...........
	6	1.80833	5.39869E-003	5.15191E-003	5.56099E-004	...........
	7	2.06667	5.32156E-003	5.09397E-003	5.57366E-004	...........
	8	2.325	5.24353E-003	5.08532E-003	5.58332E-004	...........
	9	2.58333	5.17523E-003	5.07829E-003	5.57999E-004	...........
	10	2.84167	5.12471E-003	5.04173E-003	5.52866E-004	...........
	11	3.1	5.08969E-003	4.94276E-003	5.54199E-004	...........
	12	3.35833	5.06219E-003	5.15673E-003	5.66366E-004	...........
	13	3.61667	5.04098E-003	4.84735E-003	5.64532E-004	...........
	14	3.875	5.02113E-003	4.84374E-003	5.53999E-004	...........
	15	4.13333	4.98558E-003	4.82537E-003	5.59099E-004	...........
	16	4.39167	4.93123E-003	4.80495E-003	5.64332E-004	...........
	17	4.65	4.88200E-003	5.07933E-003	5.63699E-004	...........
	18	4.90833	4.86368E-003	4.74360E-003	5.57066E-004	...........
EOC	QUANT	0.0048637	Open Circuit (V)
PSTATMODEL	IQUANT	4	Pstat Model
PSTATSECTION	LABEL	REF600-11020	Pstat Section
PSTATSERIALNO	LABEL	11020	Pstat Serial Number
CTRLMODE	IQUANT	1	Control Mode
IESTAB	IQUANT	0	I/E Stability
CASPEED	IQUANT	1	Control Amp Speed
CONVENTION	IQUANT	1	Current Convention
ICHRANGE	IQUANT	2	Ich Range
ICHRANGEMODE	TOGGLE	F	Ich Auto Range
ICHOFFSETENABLE	TOGGLE	T	Ich Offset Enable
ICHOFFSET	QUANT	0	Ich Offset (V)
ICHFILTER	IQUANT	3	Ich Filter
VCHRANGE	IQUANT	2	Vch Range
VCHRANGEMODE	TOGGLE	F	Vch Auto Range
VCHOFFSETENABLE	TOGGLE	T	Vch Offset Enable
VCHOFFSET	QUANT	0	Vch Offset (V)
VCHFILTER	IQUANT	3	Vch Filter
ACHRANGE	IQUANT	2	Ach Range
ACHOFFSETENABLE	TOGGLE	F	Ach Offset Enable
ACHOFFSET	QUANT	0	Ach Offset (V)
ACHFILTER	IQUANT	3	Ach Filter
IERANGELOWERLIMIT	IQUANT	1	I/E Range Lower Limit
IERANGEMODE	TOGGLE	F	I/E AutoRange
IERANGE	IQUANT	4	I/E Range
POSFEEDENABLE	TOGGLE	F	Positive Feedback IR Comp
POSFEEDRESISTANCE	QUANT	0	Positive Feedback Resistance (ohm)
ACHSELECT	IQUANT	0	Ach Select
CABLEID	IQUANT	14	Cable ID
DCCALDATE	LABEL	8/19/2019	DC Calibration Date
ACCALDATE	LABEL	8/19/2019	AC Calibration Date
THERMOSELECT	IQUANT	1	Thermo Select
FRAMEWORKVERSION	QUANT	6.33	Framework Version
INSTRUMENTVERSION	LABEL	3.50	Instrument Version
ZCURVE	TABLE
	Pt	Time	Freq	Zreal	Zimag	Zsig	Zmod	Zphz	Idc	Vdc	IERange
	#	s	Hz	ohm	ohm	V	ohm	°	A	V	#
	0	2	1000078	2553.922	-1620.922	1	3024.881	-32.40247	-6.944256E-006	0.0078128	8
	1	3	794390.6	2862.888	-1513	1	3238.101	-27.85588	1.411297E-006	0.0070211	8
	2	5	630984.4	3141.73	-1366.853	1	3426.187	-23.51212	-3.57017E-006	0.0072687	8
	3	6	501234.4	3341.922	-1217.528	1	3556.799	-20.01768	2.904599E-006	0.0058903	8
	4	7	398109.4	3501.499	-1041.225	1	3653.032	-16.56067	-5.660126E-009	0.0062773	8
	5	9	316265.6	3623.869	-895.4164	1	3732.854	-13.87913	5.301989E-007	0.0060659	8
	6	10	251203.1	3713.018	-772.1013	1	3792.445	-11.74693	-1.459519E-007	0.0063426	8
	7	12	199546.9	3785.718	-664.3754	1	3843.573	-9.95377	8.730096E-007	0.0061631	8
	8	13	158578.1	3838.292	-582.2602	1	3882.204	-8.625875	2.060109E-007	0.006115	8
	9	14	125953.1	3901.528	-460.8221	1	3928.648	-6.736181	4.782211E-007	0.005752	7
	10	16	100078.1	3928.962	-422.3349	1	3951.596	-6.135323	3.682295E-008	0.00623	7
	11	17	79453.13	3960.644	-397.8365	1	3980.574	-5.735974	-3.035493E-008	0.0062664	7
	12	18	63140.62	3990.878	-382.6735	1	4009.183	-5.477178	-2.985017E-008	0.0062788	7
	13	20	50203.12	4021.257	-377.3299	1	4038.921	-5.360586	-2.75311E-008	0.0062611	7
	14	21	39890.62	4052.271	-383.0157	1	4070.332	-5.399485	-3.184108E-008	0.0062795	7
	15	22	31640.63	4084.441	-398.1912	1	4103.805	-5.568156	3.542593E-008	0.0062221	7
	16	24	25171.88	4119.082	-422.3227	1	4140.675	-5.853988	-2.374311E-008	0.0062637	7
	17	25	20015.62	4151.52	-455.9997	1	4176.488	-6.268197	2.238583E-009	0.0063505	7
	18	27	15890.62	4195.536	-502.2083	1	4225.486	-6.825864	5.669443E-008	0.0061663	7
	19	28	12609.37	4238.482	-558.2242	1	4275.084	-7.502889	-4.150801E-008	0.0063972	7
	20	29	10078.13	4281.598	-628.0809	1	4327.42	-8.345375	7.235905E-008	0.0062074	7
	21	31	8015.625	4331.27	-716.2583	1	4390.094	-9.389973	3.457266E-008	0.0061472	7
	22	32	6328.125	4383.162	-828.2938	1	4460.737	-10.7011	5.612716E-008	0.0061671	7
	23	33	5015.625	4438.288	-964.354	1	4541.847	-12.25872	1.044853E-007	0.0061025	7
	24	35	3984.375	4488.151	-1132.737	1	4628.887	-14.16473	-2.98283E-008	0.0062667	7
	25	36	3170.956	4567.707	-1336.833	1	4759.314	-16.3132	7.956537E-009	0.0062021	7
	26	37	2527.573	4639.648	-1587.026	1	4903.569	-18.88364	-2.150528E-008	0.0063216	7
	27	39	1976.103	4733.216	-1922.874	1	5108.893	-22.1095	-2.351025E-008	0.006255	7
	28	40	1577.524	4856.732	-2258.109	1	5356.016	-24.9358	3.670577E-008	0.006215	7
	29	42	1265.625	4940.619	-2751.223	1	5654.993	-29.1116	8.633189E-009	0.0062034	7
	30	43	998.264	5075.817	-3348.407	1	6080.769	-33.41198	-4.200479E-008	0.006408	7
	31	44	796.875	5228.581	-4038.484	1	6606.619	-37.68201	-2.511609E-009	0.0062837	7
	32	46	627.7902	5419.332	-4938.17	1	7331.759	-42.34021	3.26686E-008	0.0061408	7
	33	47	505.5147	5623.21	-5948.183	1	8185.436	-46.60868	4.068963E-009	0.0061916	7
	34	48	397.9953	5888.466	-7314.872	1	9390.494	-51.16596	6.335955E-009	0.006276	7
	35	50	315.5048	6209.036	-8957.114	1	10898.72	-55.27045	1.393056E-009	0.0062159	6
	36	51	252.4038	6583.19	-10902.65	1	12736.02	-58.87577	2.532556E-010	0.0062135	6
	37	53	198.6229	7093.797	-13477.44	1	15230.34	-62.2401	7.902626E-010	0.006216	6
	38	54	158.3615	7709.463	-16473.83	1	18188.54	-64.92123	6.497564E-010	0.0062086	6
	39	55	125.558	8533.022	-20253.51	1	21977.65	-67.15379	8.693198E-010	0.0062128	6
	40	57	100.4464	9590.83	-24688.46	1	26485.92	-68.77013	1.145096E-009	0.006212	6
	41	58	79.00281	10963.82	-30487.87	1	32399.31	-70.22078	3.311078E-010	0.0062141	6
	42	59	63.3446	13054.63	-36696.93	1	38949.81	-70.4174	1.997905E-010	0.0062173	6
	43	61	49.86702	15625.82	-45740.75	1	48336.14	-71.13895	1.665133E-009	0.0062156	6
	44	62	39.72458	18693.13	-55281.81	1	58356.77	-71.31742	9.24413E-010	0.0062197	6
	45	64	31.6723	22710.15	-66768.55	1	70525.11	-71.21517	1.277362E-009	0.0062145	6
	46	65	24.93351	28792.95	-81301.95	1	86249.88	-70.49848	8.280072E-010	0.0062138	6
	47	67	19.86229	36266.37	-97425	1	103956.2	-69.58227	6.280286E-010	0.0062179	6
	48	68	15.83615	44504.66	-116372.5	1	124592.2	-69.0715	1.951186E-009	0.0062225	5
	49	69	12.40079	59250.9	-138099.7	1	150273.8	-66.77853	1.672318E-009	0.0062201	5
	50	71	9.93114	73609.11	-163204.8	1	179036.6	-65.72353	7.738465E-010	0.0062211	5
	51	73	7.944915	90680.81	-189741.1	1	210296.7	-64.45599	8.113183E-010	0.006218	5
	52	74	6.317385	113648.8	-219859.7	1	247496.1	-62.66486	4.804811E-010	0.0062285	5
	53	76	5.008013	140371.5	-253838.2	1	290065.5	-61.05758	3.78619E-010	0.0062186	5
	54	79	3.945707	171585.8	-292274.7	1	338919.1	-59.58407	4.429289E-010	0.0062222	5
	55	81	3.158693	205085.6	-331642.7	1	389932.1	-58.26763	-2.82351E-011	0.0062117	5
	56	85	2.504006	243200.8	-376691.9	1	448378.7	-57.1528	5.57816E-010	0.0062231	5
	57	88	1.998082	284415.4	-426199.7	1	512384.9	-56.28366	2.67797E-010	0.0062609	5
	58	91	1.584686	329297.3	-482886.8	1	584479.6	-55.70856	1.957556E-010	0.0061858	5
	59	94	1.266892	376883	-548158.4	1	665220.6	-55.48976	2.905771E-010	0.0062375	5
	60	99	0.999041	433039	-631535.1	1	765741.1	-55.56185	-1.510696E-010	0.0061906	5
