EXPLAIN
TAG	EISPOT
TITLE	LABEL	Potentiostatic EIS	Test &Identifier
DATE	LABEL	8/14/2018	Date
TIME	LABEL	5:48:51	Time
NOTES	NOTES	1	&Notes...
	
PSTAT	PSTAT	REF600-11020	Potentiostat
VDC	POTEN	0.00000E+000	T	DC &Voltage (V)
FREQINIT	QUANT	1.00000E+006	Initial Fre&q. (Hz)
FREQFINAL	QUANT	1.00000E+000	Final Fre&q. (Hz)
PTSPERDEC	QUANT	1.00000E+001	Points/&decade
VAC	QUANT	2.50000E+001	AC &Voltage (mV rms)
AREA	QUANT	1.00000E-002	&Area (cm^2)
CONDIT	TWOPARAM	T	5.00000E+000	0.00000E+000	Conditionin&g	Time(s)	E(V)
DELAY	TWOPARAM	T	5.00000E+000	0.00000E+000	Init. De&lay	Time(s)	Stab.(mV/s)
SPEED	SELECTOR	0	&Optimize for:
ZGUESS	QUANT	1.00000E+005	E&stimated Z (ohms)
OCVCURVE	TABLE	19
	Pt	T	Vf	Vm	Ach	Over
	#	s	V vs. Ref.	V	V	bits
	0	0.258333	6.53552E-002	6.53552E-002	5.39399E-004	...........
	1	0.516667	6.54410E-002	6.98481E-002	5.36299E-004	...........
	2	0.775	6.59633E-002	7.38572E-002	5.39533E-004	...........
	3	1.03333	6.74202E-002	7.74558E-002	5.37833E-004	...........
	4	1.29167	6.99711E-002	8.06896E-002	5.37166E-004	...........
	5	1.55	7.32594E-002	8.36117E-002	5.43899E-004	...........
	6	1.80833	7.67569E-002	8.62753E-002	5.40599E-004	...........
	7	2.06667	8.01002E-002	8.87172E-002	5.39733E-004	...........
	8	2.325	8.31486E-002	9.09725E-002	5.40933E-004	...........
	9	2.58333	8.59008E-002	9.31814E-002	5.36533E-004	...........
	10	2.84167	8.84100E-002	9.52076E-002	5.42599E-004	...........
	11	3.1	9.07360E-002	9.72063E-002	5.39466E-004	...........
	12	3.35833	9.29273E-002	9.92758E-002	5.39233E-004	...........
	13	3.61667	9.50256E-002	1.01188E-001	5.40033E-004	...........
	14	3.875	9.70587E-002	1.02800E-001	5.41699E-004	...........
	15	4.13333	9.90142E-002	1.04173E-001	5.41933E-004	...........
	16	4.39167	1.00842E-001	1.05490E-001	5.39033E-004	...........
	17	4.65	1.02496E-001	1.06577E-001	5.37266E-004	...........
	18	4.90833	1.03969E-001	1.07758E-001	5.42466E-004	...........
EOC	QUANT	0.1039693	Open Circuit (V)
PSTATMODEL	IQUANT	4	Pstat Model
PSTATSECTION	LABEL	REF600-11020	Pstat Section
PSTATSERIALNO	LABEL	11020	Pstat Serial Number
CTRLMODE	IQUANT	1	Control Mode
IESTAB	IQUANT	0	I/E Stability
CASPEED	IQUANT	1	Control Amp Speed
CONVENTION	IQUANT	1	Current Convention
ICHRANGE	IQUANT	2	Ich Range
ICHRANGEMODE	TOGGLE	F	Ich Auto Range
ICHOFFSETENABLE	TOGGLE	T	Ich Offset Enable
ICHOFFSET	QUANT	0	Ich Offset (V)
ICHFILTER	IQUANT	3	Ich Filter
VCHRANGE	IQUANT	2	Vch Range
VCHRANGEMODE	TOGGLE	F	Vch Auto Range
VCHOFFSETENABLE	TOGGLE	T	Vch Offset Enable
VCHOFFSET	QUANT	0	Vch Offset (V)
VCHFILTER	IQUANT	3	Vch Filter
ACHRANGE	IQUANT	2	Ach Range
ACHOFFSETENABLE	TOGGLE	F	Ach Offset Enable
ACHOFFSET	QUANT	0	Ach Offset (V)
ACHFILTER	IQUANT	3	Ach Filter
IERANGELOWERLIMIT	IQUANT	1	I/E Range Lower Limit
IERANGEMODE	TOGGLE	F	I/E AutoRange
IERANGE	IQUANT	6	I/E Range
POSFEEDENABLE	TOGGLE	F	Positive Feedback IR Comp
POSFEEDRESISTANCE	QUANT	0	Positive Feedback Resistance (ohm)
ACHSELECT	IQUANT	0	Ach Select
CABLEID	IQUANT	14	Cable ID
DCCALDATE	LABEL	8/19/2019	DC Calibration Date
ACCALDATE	LABEL	8/19/2019	AC Calibration Date
THERMOSELECT	IQUANT	1	Thermo Select
FRAMEWORKVERSION	QUANT	6.33	Framework Version
INSTRUMENTVERSION	LABEL	3.50	Instrument Version
ZCURVE	TABLE
	Pt	Time	Freq	Zreal	Zimag	Zsig	Zmod	Zphz	Idc	Vdc	IERange
	#	s	Hz	ohm	ohm	V	ohm	°	A	V	#
	0	1	1000078	2180.223	-1849.738	1	2859.179	-40.31183	1.948445E-006	0.1061084	8
	1	2	794390.6	2529.061	-1932.425	1	3182.832	-37.38301	-7.73687E-007	0.1058077	8
	2	2	630984.4	2883.922	-1947.129	1	3479.7	-34.02592	-2.590093E-008	0.1056251	8
	3	2	501234.4	3245.237	-1949.581	1	3785.82	-30.99541	-2.663293E-006	0.1062671	8
	4	3	398109.4	3611.705	-1893.537	1	4077.977	-27.66703	4.182429E-006	0.1047858	8
	5	3	316265.6	3945.344	-1809.16	1	4340.369	-24.6341	-1.363753E-007	0.1055152	8
	6	3	251203.1	4248.863	-1675.131	1	4567.154	-21.51703	3.754433E-006	0.104798	8
	7	4	199546.9	4512.715	-1540.924	1	4768.547	-18.85313	3.318231E-006	0.1049725	8
	8	4	158578.1	4712.076	-1421.946	1	4921.95	-16.79205	4.685965E-007	0.1055283	8
	9	4	125953.1	4944.315	-1165.291	1	5079.779	-13.26163	1.239111E-006	0.102712	7
	10	5	100078.1	5084.41	-1076.86	1	5197.196	-11.95833	-1.23534E-009	0.1055011	7
	11	5	79453.13	5207.223	-984.245	1	5299.425	-10.7035	-3.02721E-008	0.1055241	7
	12	5	63140.62	5311.287	-905.3936	1	5387.904	-9.67399	-4.300508E-008	0.1055344	7
	13	6	50203.12	5401.756	-843.6974	1	5467.248	-8.877273	-4.65837E-008	0.1054795	7
	14	6	39890.62	5481.162	-800.8715	1	5539.362	-8.31286	-6.700211E-008	0.1055341	7
	15	6	31640.63	5559.508	-777.3674	1	5613.593	-7.959869	-4.466157E-008	0.1054752	7
	16	6	25171.88	5633.067	-768.7664	1	5685.284	-7.771366	-5.200319E-008	0.105638	7
	17	7	20015.62	5693.153	-779.8004	1	5746.31	-7.799362	-5.026489E-009	0.105389	7
	18	7	15890.62	5783.518	-809.2551	1	5839.86	-7.965361	-4.466937E-008	0.1055701	7
	19	7	12609.37	5871.335	-855.5726	1	5933.345	-8.290802	-6.383984E-010	0.1054036	7
	20	8	10078.13	5952.668	-917.4071	1	6022.947	-8.761319	-9.30614E-010	0.105484	7
	21	8	8015.625	6038.253	-941.2279	1	6111.171	-8.859825	4.20221E-008	0.1054017	7
	22	9	6328.125	6154.548	-1085.825	1	6249.598	-10.00553	-5.694568E-009	0.1053907	7
	23	9	5015.625	6268.455	-1200.757	1	6382.424	-10.84396	-4.564861E-008	0.105477	7
	24	9	3984.375	6399.748	-1324.806	1	6535.433	-11.69555	-4.364426E-008	0.1054737	7
	25	10	3170.956	6526.701	-1491.473	1	6694.947	-12.87213	6.398465E-008	0.1053477	7
	26	10	2527.573	6668.222	-1673.182	1	6874.934	-14.08578	1.125575E-007	0.1052897	7
	27	10	1976.103	6825.338	-1900.747	1	7085.061	-15.56166	-4.337031E-008	0.1054664	7
	28	10	1577.524	6943.882	-2125.58	1	7261.927	-17.01978	-4.345737E-008	0.1054661	7
	29	11	1265.625	7139.1	-2473.896	1	7555.588	-19.11262	4.220259E-008	0.1053929	7
	30	11	998.264	7302.484	-2883.022	1	7850.993	-21.54412	-9.184397E-010	0.1054777	7
	31	11	796.875	7466.616	-3366.098	1	8190.298	-24.26679	-2.977862E-008	0.1055142	7
	32	12	627.7902	7655.528	-4000.677	1	8637.854	-27.59097	-4.310597E-008	0.1054669	7
	33	12	505.5147	7841.078	-4723.855	1	9154.088	-31.06685	-4.295182E-008	0.1054632	7
	34	12	397.9953	8083.602	-5716.815	1	9900.84	-35.26838	-2.504601E-009	0.1054134	6
	35	13	315.5048	8353.205	-6927.87	1	10852.25	-39.67118	-4.422051E-009	0.105415	6
	36	13	252.4038	8669.693	-8366.438	1	12048.27	-43.9802	-3.286076E-009	0.1054127	6
	37	13	198.6229	9096.021	-10282.25	1	13728.16	-48.50296	-3.395416E-009	0.1054095	6
	38	14	158.3615	9613.9	-12513.75	1	15780.4	-52.46611	-3.657257E-009	0.1054093	6
	39	14	125.558	10316.12	-15315.2	1	18465.58	-56.03632	-3.15549E-009	0.1054126	6
	40	14	100.4464	11203.74	-18611.29	1	21723.35	-58.95264	-2.394171E-009	0.1054107	6
	41	15	79.00281	12463.17	-22912.12	1	26082.48	-61.45578	-4.165021E-009	0.1054078	6
	42	15	63.3446	13683.19	-27757.73	1	30947.07	-63.75898	-3.111567E-009	0.1054084	6
	43	15	49.86702	15890.52	-33775.23	1	37326.6	-64.80402	-2.922166E-009	0.1054042	6
	44	16	39.72458	18813.63	-40721.65	1	44857.62	-65.2028	-2.781135E-009	0.1054057	6
	45	16	31.6723	22395.15	-48744.86	1	53643.3	-65.32423	-2.352009E-009	0.1054092	6
	46	16	24.93351	26870.99	-58829.54	1	64675.85	-65.45097	-4.426111E-009	0.105407	6
	47	17	19.86229	32378.18	-70034.82	1	77157.13	-65.18817	-5.07137E-009	0.1054074	6
	48	17	15.83615	39985.86	-83001.23	1	92130.73	-64.27754	-1.704302E-009	0.1054076	6
	49	17	12.40079	50002.8	-98563.1	1	110521.3	-63.10051	-4.10177E-009	0.1054153	5
	50	18	9.93114	59568.54	-114490.8	1	129060.3	-62.51245	-3.204045E-009	0.1054124	5
	51	18	7.944915	71653.41	-132094.1	1	150276.6	-61.52273	-4.314675E-009	0.1054166	5
	52	19	6.317385	86779.19	-151932.9	1	174969.2	-60.26638	-3.56553E-009	0.1054268	5
	53	20	5.008013	103758.3	-174779	1	203257.2	-59.30433	-3.224288E-009	0.1054207	5
	54	21	3.945707	122841.4	-201126.1	1	235672.9	-58.58475	-2.807165E-009	0.1054065	5
	55	22	3.158693	142686	-230100.5	1	270749.9	-58.19683	-3.001491E-009	0.1054111	5
	56	24	2.504006	165351.8	-265207	1	312531.5	-58.0572	-2.767713E-009	0.1054181	5
	57	25	1.998082	190427.8	-305676.7	1	360140.3	-58.07827	-2.961601E-009	0.1053638	5
	58	27	1.584686	219118.2	-355121.7	1	417281.9	-58.32446	-2.791298E-009	0.1053928	5
	59	29	1.266892	253315	-411201.1	1	482964.6	-58.3654	-2.65291E-009	0.1054295	5
	60	31	0.999041	297485.2	-482298.2	1	566664.8	-58.3334	-2.539789E-009	0.1054449	5
