EXPLAIN
TAG	EISPOT
TITLE	LABEL	Potentiostatic EIS	Test &Identifier
DATE	LABEL	11/7/2019	Date
TIME	LABEL	9:29:36	Time
NOTES	NOTES	2	&Notes...
	
	
PSTAT	PSTAT	REF600-11020	Potentiostat
VDC	POTEN	0.00000E+000	T	DC &Voltage (V)
FREQINIT	QUANT	1.00000E+006	Initial Fre&q. (Hz)
FREQFINAL	QUANT	1.00000E+000	Final Fre&q. (Hz)
PTSPERDEC	QUANT	1.00000E+001	Points/&decade
VAC	QUANT	2.50000E+001	AC &Voltage (mV rms)
AREA	QUANT	1.00000E-002	&Area (cm^2)
CONDIT	TWOPARAM	T	5.00000E+000	0.00000E+000	Conditionin&g	Time(s)	E(V)
DELAY	TWOPARAM	T	5.00000E+000	0.00000E+000	Init. De&lay	Time(s)	Stab.(mV/s)
SPEED	SELECTOR	1	&Optimize for:
ZGUESS	QUANT	1.00000E+005	E&stimated Z (ohms)
OCVCURVE	TABLE	19
	Pt	T	Vf	Vm	Ach	Over
	#	s	V vs. Ref.	V	V	bits
	0	0.258333	7.46156E-003	7.46156E-003	5.74165E-004	...........
	1	0.516667	7.46090E-003	7.42719E-003	5.72299E-004	...........
	2	0.775	7.45630E-003	7.36466E-003	5.82265E-004	...........
	3	1.03333	7.43814E-003	7.13541E-003	5.81932E-004	...........
	4	1.29167	7.39418E-003	7.24621E-003	5.82765E-004	...........
	5	1.55	7.33198E-003	7.37204E-003	5.83965E-004	...........
	6	1.80833	7.29228E-003	7.64745E-003	5.79399E-004	...........
	7	2.06667	7.31989E-003	7.75916E-003	5.77532E-004	...........
	8	2.325	7.41887E-003	7.67256E-003	5.75099E-004	...........
	9	2.58333	7.54288E-003	7.67528E-003	5.78966E-004	...........
	10	2.84167	7.63342E-003	7.54401E-003	5.81265E-004	...........
	11	3.1	7.65990E-003	7.37714E-003	5.76666E-004	...........
	12	3.35833	7.61928E-003	7.18873E-003	5.77132E-004	...........
	13	3.61667	7.52041E-003	7.03385E-003	5.80865E-004	...........
	14	3.875	7.38255E-003	7.00728E-003	5.77632E-004	...........
	15	4.13333	7.23960E-003	7.11158E-003	5.80599E-004	...........
	16	4.39167	7.13357E-003	7.19037E-003	5.80099E-004	...........
	17	4.65	7.09336E-003	7.29979E-003	5.84299E-004	...........
	18	4.90833	7.11848E-003	7.36494E-003	5.73299E-004	...........
EOC	QUANT	0.0071185	Open Circuit (V)
PSTATMODEL	IQUANT	4	Pstat Model
PSTATSECTION	LABEL	REF600-11020	Pstat Section
PSTATSERIALNO	LABEL	11020	Pstat Serial Number
CTRLMODE	IQUANT	1	Control Mode
IESTAB	IQUANT	0	I/E Stability
CASPEED	IQUANT	1	Control Amp Speed
CONVENTION	IQUANT	1	Current Convention
ICHRANGE	IQUANT	2	Ich Range
ICHRANGEMODE	TOGGLE	F	Ich Auto Range
ICHOFFSETENABLE	TOGGLE	T	Ich Offset Enable
ICHOFFSET	QUANT	0	Ich Offset (V)
ICHFILTER	IQUANT	3	Ich Filter
VCHRANGE	IQUANT	2	Vch Range
VCHRANGEMODE	TOGGLE	F	Vch Auto Range
VCHOFFSETENABLE	TOGGLE	T	Vch Offset Enable
VCHOFFSET	QUANT	0	Vch Offset (V)
VCHFILTER	IQUANT	3	Vch Filter
ACHRANGE	IQUANT	2	Ach Range
ACHOFFSETENABLE	TOGGLE	F	Ach Offset Enable
ACHOFFSET	QUANT	0	Ach Offset (V)
ACHFILTER	IQUANT	3	Ach Filter
IERANGELOWERLIMIT	IQUANT	1	I/E Range Lower Limit
IERANGEMODE	TOGGLE	F	I/E AutoRange
IERANGE	IQUANT	5	I/E Range
POSFEEDENABLE	TOGGLE	F	Positive Feedback IR Comp
POSFEEDRESISTANCE	QUANT	0	Positive Feedback Resistance (ohm)
ACHSELECT	IQUANT	0	Ach Select
CABLEID	IQUANT	14	Cable ID
DCCALDATE	LABEL	8/19/2019	DC Calibration Date
ACCALDATE	LABEL	8/19/2019	AC Calibration Date
THERMOSELECT	IQUANT	1	Thermo Select
FRAMEWORKVERSION	QUANT	6.33	Framework Version
INSTRUMENTVERSION	LABEL	3.50	Instrument Version
ZCURVE	TABLE
	Pt	Time	Freq	Zreal	Zimag	Zsig	Zmod	Zphz	Idc	Vdc	IERange
	#	s	Hz	ohm	ohm	V	ohm	°	A	V	#
	0	1	1000078	2371.119	-1470.985	1	2790.341	-31.81446	-3.357677E-006	0.0100081	8
	1	3	794390.6	2641.022	-1377.72	1	2978.776	-27.54932	-5.385497E-006	0.009314	8
	2	4	630984.4	2888.686	-1239.991	1	3143.578	-23.23181	9.198985E-006	0.0077097	8
	3	6	501234.4	3060.891	-1120.729	1	3259.615	-20.10993	1.818456E-006	0.0078904	8
	4	7	398109.4	3232.229	-982.788	1	3378.34	-16.91236	4.396758E-006	0.0085163	8
	5	9	316265.6	3337.521	-841.9341	1	3442.078	-14.15823	-3.082818E-006	0.0084426	8
	6	10	251203.1	3425.997	-729.9334	1	3502.893	-12.02744	8.951907E-007	0.0089702	8
	7	11	199546.9	3491.958	-633.9319	1	3549.033	-10.28945	4.235714E-006	0.0085019	8
	8	13	158578.1	3466.78	-506.4553	1	3503.578	-8.311438	-1.228468E-007	0.0082042	8
	9	14	125953.1	3612.412	-453.5901	1	3640.778	-7.156852	4.119225E-006	0.0036523	7
	10	16	100078.1	3632.829	-409.6004	1	3655.847	-6.432915	-7.041405E-007	0.0102901	7
	11	17	79453.13	3675.078	-401.0044	1	3696.891	-6.227167	-7.034045E-007	0.01028	7
	12	18	63140.62	3707.888	-398.8206	1	3729.275	-6.139134	-3.380563E-007	0.0100191	7
	13	20	50203.12	3744.327	-404.1034	1	3766.07	-6.159758	-1.367596E-006	0.0101105	7
	14	21	39890.62	3781.343	-422.3604	1	3804.858	-6.373284	6.730212E-008	0.0095838	7
	15	22	31640.63	3821.039	-447.6404	1	3847.17	-6.681828	-7.912633E-007	0.008285	7
	16	24	25171.88	3863.307	-480.0465	1	3893.018	-7.083148	-1.347558E-006	0.0096799	7
	17	25	20015.62	3911.055	-522.3698	1	3945.785	-7.607537	-3.159079E-007	0.007516	7
	18	27	15890.62	3964.139	-581.8695	1	4006.616	-8.350434	1.099016E-006	0.0066249	7
	19	28	12609.37	4021.341	-650.189	1	4073.564	-9.184366	1.21276E-006	0.0068898	7
	20	29	10078.13	4078.541	-725.3267	1	4142.535	-10.08404	-3.153E-007	0.0075124	7
	21	31	8015.625	4144.392	-825.1476	1	4225.737	-11.26033	-1.366918E-006	0.0101017	7
	22	32	6328.125	4220.382	-941.5392	1	4324.132	-12.57636	-1.347391E-006	0.009675	7
	23	33	5015.625	4303.793	-1081.896	1	4437.695	-14.11073	1.213915E-006	0.0068861	7
	24	35	3984.375	4385.243	-1247.816	1	4559.32	-15.88365	-1.36641E-006	0.0101026	7
	25	36	3170.956	4483.227	-1447.567	1	4711.132	-17.89449	6.707234E-007	0.0087406	7
	26	37	2527.573	4583.083	-1688.013	1	4884.06	-20.21945	-1.36711E-006	0.0101005	7
	27	39	1976.103	4704.492	-2009.532	1	5115.707	-23.12983	-7.890286E-007	0.0082744	7
	28	40	1577.524	4817.79	-2389.621	1	5377.86	-26.38138	-7.874409E-007	0.008276	7
	29	41	1265.625	4966.025	-2789.123	1	5695.666	-29.32035	-1.22514E-006	0.0102812	7
	30	43	998.264	5131.645	-3347.964	1	6127.205	-33.12104	5.615792E-007	0.006623	7
	31	44	796.875	5315.011	-3999.786	1	6651.889	-36.96312	5.615726E-007	0.0066307	7
	32	46	627.7902	5522.98	-4842.768	1	7345.455	-41.24557	1.122807E-006	0.0077248	7
	33	47	505.5147	5751.528	-5760.75	1	8140.413	-45.0459	-1.366254E-006	0.0100985	7
	34	49	397.9953	6023.476	-7033.622	1	9260.351	-49.4238	2.927392E-009	0.0085176	7
	35	50	315.5048	6339.154	-8552.915	1	10646	-53.45531	1.999693E-009	0.0084548	6
	36	51	252.4038	6692.216	-10356.92	1	12330.92	-57.13113	1.45437E-009	0.0084561	6
	37	53	198.6229	7153.707	-12756.06	1	14625.07	-60.71592	6.369261E-010	0.0084616	6
	38	54	158.3615	7688.669	-15559.01	1	17355.07	-63.70318	7.457518E-010	0.0084566	6
	39	55	125.558	8385.49	-19113.88	1	20872.39	-66.31236	5.9151E-010	0.0084583	6
	40	57	100.4464	9227.428	-23319.53	1	25078.79	-68.41152	1.742285E-009	0.0084478	6
	41	58	79.00281	10494.26	-28766.76	1	30621.17	-69.95778	-3.314731E-010	0.0084588	6
	42	59	63.3446	11605.46	-34731.22	1	36618.9	-71.52292	1.054275E-009	0.0084478	6
	43	61	49.86702	14265.48	-43174.57	1	45470.29	-71.71572	1.050602E-009	0.0084437	6
	44	62	39.72458	16632.18	-52767.76	1	55326.9	-72.50536	1.124831E-009	0.0084498	6
	45	64	31.6723	19941.93	-63900.21	1	66939.66	-72.66794	1.32346E-009	0.0084535	6
	46	65	24.93351	24691.47	-78514.17	1	82305.19	-72.54247	-3.499701E-013	0.0084589	6
	47	66	19.86229	30352.75	-94885.14	1	99621.7	-72.26108	-1.526559E-010	0.0084524	6
	48	68	15.83615	37465.54	-112938.9	1	118991	-71.64763	-7.732507E-010	0.0084475	5
	49	69	12.40079	49224.24	-138399.6	1	146892.8	-70.42118	1.388246E-009	0.0084485	5
	50	71	9.93114	60482.34	-164954.4	1	175693.1	-69.86398	7.935234E-010	0.0084568	5
	51	72	7.944915	76136.93	-196048.3	1	210313.5	-68.77592	4.95795E-010	0.0084611	5
	52	74	6.317385	93728.05	-231988.1	1	250206.7	-68.00026	-9.295027E-011	0.0084513	5
	53	76	5.008013	117525.7	-274515	1	298614.7	-66.8232	4.891357E-011	0.0084544	5
	54	78	3.945707	146977.2	-324765.9	1	356476.1	-65.65023	4.275735E-010	0.0084624	5
	55	81	3.158693	180638.2	-378753.2	1	419623.8	-64.5022	-4.608184E-011	0.008441	5
	56	84	2.504006	222817.8	-441890	1	494888.4	-63.24102	4.827012E-010	0.0084583	5
	57	87	1.998082	272096.8	-511446.1	1	579321.8	-61.98637	2.598607E-010	0.0084882	5
	58	90	1.584686	330037.8	-589375.4	1	675491.2	-60.75209	2.042296E-010	0.0084342	5
	59	94	1.266892	397300.8	-676776.8	1	784776.9	-59.585	1.534484E-010	0.00849	5
	60	98	0.999041	479422.1	-777556.1	1	913476.3	-58.34303	-1.642335E-011	0.0084121	5
