EXPLAIN
TAG	EISPOT
TITLE	LABEL	Potentiostatic EIS	Test &Identifier
DATE	LABEL	11/11/2019	Date
TIME	LABEL	12:42:06	Time
NOTES	NOTES	3	&Notes...
	
	
	
PSTAT	PSTAT	REF600-11020	Potentiostat
VDC	POTEN	0.00000E+000	T	DC &Voltage (V)
FREQINIT	QUANT	1.00000E+006	Initial Fre&q. (Hz)
FREQFINAL	QUANT	1.00000E+000	Final Fre&q. (Hz)
PTSPERDEC	QUANT	1.00000E+001	Points/&decade
VAC	QUANT	2.50000E+001	AC &Voltage (mV rms)
AREA	QUANT	1.00000E-002	&Area (cm^2)
CONDIT	TWOPARAM	T	5.00000E+000	0.00000E+000	Conditionin&g	Time(s)	E(V)
DELAY	TWOPARAM	T	5.00000E+000	0.00000E+000	Init. De&lay	Time(s)	Stab.(mV/s)
SPEED	SELECTOR	1	&Optimize for:
ZGUESS	QUANT	1.00000E+005	E&stimated Z (ohms)
OCVCURVE	TABLE	19
	Pt	T	Vf	Vm	Ach	Over
	#	s	V vs. Ref.	V	V	bits
	0	0.258333	6.88605E-003	6.88605E-003	5.40166E-004	...........
	1	0.516667	6.88444E-003	6.80224E-003	5.39899E-004	...........
	2	0.775	6.87538E-003	6.76304E-003	5.39099E-004	...........
	3	1.03333	6.85244E-003	6.73276E-003	5.34300E-004	...........
	4	1.29167	6.81711E-003	6.71166E-003	5.38566E-004	...........
	5	1.55	6.77840E-003	6.69525E-003	5.39766E-004	...........
	6	1.80833	6.74510E-003	6.71491E-003	5.39366E-004	...........
	7	2.06667	6.72171E-003	6.68123E-003	5.42466E-004	...........
	8	2.325	6.70768E-003	6.68941E-003	5.41299E-004	...........
	9	2.58333	6.69900E-003	6.68329E-003	5.39699E-004	...........
	10	2.84167	6.69264E-003	6.68044E-003	5.39366E-004	...........
	11	3.1	6.68826E-003	6.70441E-003	5.38899E-004	...........
	12	3.35833	6.68760E-003	6.72725E-003	5.37366E-004	...........
	13	3.61667	6.69302E-003	6.73365E-003	5.41299E-004	...........
	14	3.875	6.70472E-003	6.76316E-003	5.39233E-004	...........
	15	4.13333	6.72047E-003	6.77163E-003	5.37766E-004	...........
	16	4.39167	6.73811E-003	6.80158E-003	5.37933E-004	...........
	17	4.65	6.75684E-003	6.82233E-003	5.39099E-004	...........
	18	4.90833	6.77727E-003	6.86725E-003	5.42666E-004	...........
EOC	QUANT	0.0067773	Open Circuit (V)
PSTATMODEL	IQUANT	4	Pstat Model
PSTATSECTION	LABEL	REF600-11020	Pstat Section
PSTATSERIALNO	LABEL	11020	Pstat Serial Number
CTRLMODE	IQUANT	1	Control Mode
IESTAB	IQUANT	0	I/E Stability
CASPEED	IQUANT	1	Control Amp Speed
CONVENTION	IQUANT	1	Current Convention
ICHRANGE	IQUANT	2	Ich Range
ICHRANGEMODE	TOGGLE	F	Ich Auto Range
ICHOFFSETENABLE	TOGGLE	T	Ich Offset Enable
ICHOFFSET	QUANT	0	Ich Offset (V)
ICHFILTER	IQUANT	3	Ich Filter
VCHRANGE	IQUANT	2	Vch Range
VCHRANGEMODE	TOGGLE	F	Vch Auto Range
VCHOFFSETENABLE	TOGGLE	T	Vch Offset Enable
VCHOFFSET	QUANT	0	Vch Offset (V)
VCHFILTER	IQUANT	3	Vch Filter
ACHRANGE	IQUANT	2	Ach Range
ACHOFFSETENABLE	TOGGLE	F	Ach Offset Enable
ACHOFFSET	QUANT	0	Ach Offset (V)
ACHFILTER	IQUANT	3	Ach Filter
IERANGELOWERLIMIT	IQUANT	1	I/E Range Lower Limit
IERANGEMODE	TOGGLE	F	I/E AutoRange
IERANGE	IQUANT	5	I/E Range
POSFEEDENABLE	TOGGLE	F	Positive Feedback IR Comp
POSFEEDRESISTANCE	QUANT	0	Positive Feedback Resistance (ohm)
ACHSELECT	IQUANT	0	Ach Select
CABLEID	IQUANT	14	Cable ID
DCCALDATE	LABEL	8/19/2019	DC Calibration Date
ACCALDATE	LABEL	8/19/2019	AC Calibration Date
THERMOSELECT	IQUANT	1	Thermo Select
FRAMEWORKVERSION	QUANT	6.33	Framework Version
INSTRUMENTVERSION	LABEL	3.50	Instrument Version
ZCURVE	TABLE
	Pt	Time	Freq	Zreal	Zimag	Zsig	Zmod	Zphz	Idc	Vdc	IERange
	#	s	Hz	ohm	ohm	V	ohm	°	A	V	#
	0	1	1000078	2542.1	-1467.676	1	2935.361	-29.99989	-6.056219E-006	0.0094856	8
	1	2	794390.6	2807.187	-1355.176	1	3117.178	-25.76903	9.284046E-006	0.007284	8
	2	4	630984.4	3034.554	-1228.532	1	3273.807	-22.04044	4.19958E-006	0.0077264	8
	3	5	501234.4	3218.256	-1083.581	1	3395.78	-18.60829	-2.77192E-006	0.0085808	8
	4	6	398109.4	3348.698	-923.9002	1	3473.813	-15.42409	5.826022E-006	0.0076706	8
	5	8	316265.6	3462.704	-816.1658	1	3557.59	-13.26266	-2.563809E-006	0.0082381	8
	6	9	251203.1	3541.65	-707.7188	1	3611.669	-11.30043	-3.19277E-006	0.0088348	8
	7	10	199546.9	3607.912	-625.2349	1	3661.686	-9.83146	-1.396239E-007	0.0080664	8
	8	12	158578.1	3654.474	-552.7665	1	3696.043	-8.601213	-4.084524E-006	0.0086515	8
	9	13	125953.1	3733.503	-435.7046	1	3758.84	-6.656383	2.57362E-006	0.0067781	7
	10	14	100078.1	3753.82	-406.2388	1	3775.738	-6.176518	-1.092801E-006	0.0092534	7
	11	16	79453.13	3783.732	-395.8043	1	3804.377	-5.971812	-8.071514E-007	0.0097794	7
	12	17	63140.62	3818.208	-395.0299	1	3838.588	-5.906778	-5.6086E-007	0.0097114	7
	13	18	50203.12	3853.445	-405.6238	1	3874.735	-6.008976	9.737976E-007	0.0069663	7
	14	20	39890.62	3889.881	-423.5317	1	3912.871	-6.213907	8.795347E-007	0.0067615	7
	15	21	31640.63	3929.578	-449.6511	1	3955.221	-6.52781	-2.690187E-007	0.0074887	7
	16	22	25171.88	3971.888	-484.2406	1	4001.297	-6.951025	-6.50191E-007	0.0081131	7
	17	24	20015.62	4017.971	-533.3564	1	4053.217	-7.561391	3.493999E-007	0.0087468	7
	18	25	15890.62	4073.038	-589.5583	1	4115.485	-8.236166	9.136019E-007	0.0076335	7
	19	26	12609.37	4128.952	-658.5439	1	4181.139	-9.062017	6.287652E-008	0.0091353	7
	20	28	10078.13	4188.707	-739.6146	1	4253.503	-10.0137	8.870826E-007	0.006745	7
	21	29	8015.625	4258.116	-845.4282	1	4341.232	-11.22976	9.821362E-007	0.0069426	7
	22	30	6328.125	4334.833	-961.342	1	4440.153	-12.50419	7.547333E-007	0.0080605	7
	23	32	5015.625	4418.64	-1104.707	1	4554.641	-14.03682	8.891219E-007	0.0067403	7
	24	33	3984.375	4508.853	-1269.074	1	4684.048	-15.71993	6.440487E-008	0.0091276	7
	25	35	3170.956	4602.062	-1480.098	1	4834.218	-17.82864	9.196855E-007	0.0076144	7
	26	36	2527.573	4703.483	-1727.298	1	5010.62	-20.16516	3.494984E-007	0.0087375	7
	27	37	1976.103	4826.407	-2053.442	1	5245.076	-23.0478	-1.102464E-006	0.009232	7
	28	39	1577.524	4943.71	-2364.304	1	5479.982	-25.55922	6.347817E-008	0.0091325	7
	29	40	1265.625	5099.378	-2858.629	1	5845.974	-29.27429	5.511462E-007	0.0084477	7
	30	41	998.264	5270.037	-3429.087	1	6287.442	-33.05109	-8.116079E-007	0.0097756	7
	31	43	796.875	5458.552	-4089.397	1	6820.481	-36.83954	-8.110919E-007	0.0097772	7
	32	44	627.7902	5680.178	-4943.454	1	7530.084	-41.03302	-5.616346E-007	0.0097076	7
	33	45	505.5147	5903.89	-5900.152	1	8346.719	-44.98186	1.097265E-007	0.0070062	7
	34	47	397.9953	6201.757	-7183.579	1	9490.29	-49.19516	6.421544E-009	0.0082796	7
	35	48	315.5048	6532.509	-8727.062	1	10901.16	-53.18387	1.322594E-009	0.0082182	6
	36	49	252.4038	6900.882	-10558.11	1	12613.32	-56.83098	1.087045E-010	0.0082167	6
	37	51	198.6229	7378.494	-12988.76	1	14938.21	-60.4005	1.07858E-009	0.0082136	6
	38	52	158.3615	7937.836	-15838.7	1	17716.48	-63.38147	1.189114E-009	0.0082123	6
	39	53	125.558	8652.597	-19424.95	1	21264.9	-65.99003	7.232954E-010	0.0082151	6
	40	55	100.4464	9552.73	-23659.93	1	25515.62	-68.01353	8.100166E-010	0.0082233	6
	41	56	79.00281	10707.04	-29266.98	1	31164.03	-69.90546	6.65786E-010	0.0082192	6
	42	57	63.3446	12077	-35830.37	1	37810.97	-71.37308	1.059901E-009	0.0082163	6
	43	59	49.86702	14306.73	-43694.65	1	45977.22	-71.87025	2.938674E-010	0.0082097	6
	44	60	39.72458	17075.76	-53499.71	1	56158.7	-72.29823	1.232656E-009	0.0082143	6
	45	62	31.6723	20432.43	-64818.7	1	67962.84	-72.50388	7.709337E-010	0.0082215	6
	46	63	24.93351	25238.31	-79612.32	1	83517.03	-72.41059	7.582168E-010	0.0082197	6
	47	64	19.86229	31110.82	-96319.6	1	101219.3	-72.09976	1.093515E-009	0.0082245	6
	48	66	15.83615	39220.9	-116496.7	1	122921.7	-71.39318	1.757858E-009	0.0082193	5
	49	67	12.40079	48688.39	-140855.4	1	149032.9	-70.93166	3.549253E-010	0.0082131	5
	50	69	9.93114	61453.07	-167283.4	1	178213.9	-69.82873	4.670777E-010	0.0082206	5
	51	70	7.944915	75984.9	-198535.2	1	212579.2	-69.05677	4.059271E-010	0.0082117	5
	52	72	6.317385	95307.9	-234851.8	1	253454	-67.91164	3.660562E-010	0.0082038	5
	53	74	5.008013	119038.4	-277962.5	1	302379.4	-66.8168	2.121561E-011	0.0082102	5
	54	76	3.945707	149140.1	-328822.9	1	361064.1	-65.60297	9.90267E-011	0.0082226	5
	55	79	3.158693	183106.3	-382986.2	1	424507.2	-64.44746	5.048817E-011	0.008198	5
	56	82	2.504006	224852.3	-446848.3	1	500231.9	-63.28864	2.951136E-010	0.0082241	5
	57	85	1.998082	272414.9	-520004.3	1	587038.6	-62.35128	2.679117E-010	0.0082327	5
	58	88	1.584686	334756.9	-597388.3	1	684788.3	-60.73516	1.127516E-010	0.0081781	5
	59	92	1.266892	400406.2	-687497.6	1	795599.1	-59.78301	2.85591E-010	0.0082401	5
	60	96	0.999041	484606.6	-789441.8	1	926316.3	-58.45591	-1.20073E-010	0.0081771	5
