EXPLAIN
TAG	EISPOT
TITLE	LABEL	Potentiostatic EIS	Test &Identifier
DATE	LABEL	10/24/2019	Date
TIME	LABEL	8:48:02	Time
NOTES	NOTES	1	&Notes...
	
PSTAT	PSTAT	REF600-11020	Potentiostat
VDC	POTEN	0.00000E+000	T	DC &Voltage (V)
FREQINIT	QUANT	1.00000E+006	Initial Fre&q. (Hz)
FREQFINAL	QUANT	1.00000E+000	Final Fre&q. (Hz)
PTSPERDEC	QUANT	1.00000E+001	Points/&decade
VAC	QUANT	2.50000E+001	AC &Voltage (mV rms)
AREA	QUANT	1.00000E-002	&Area (cm^2)
CONDIT	TWOPARAM	T	5.00000E+000	0.00000E+000	Conditionin&g	Time(s)	E(V)
DELAY	TWOPARAM	T	5.00000E+000	0.00000E+000	Init. De&lay	Time(s)	Stab.(mV/s)
SPEED	SELECTOR	1	&Optimize for:
ZGUESS	QUANT	1.00000E+005	E&stimated Z (ohms)
OCVCURVE	TABLE	19
	Pt	T	Vf	Vm	Ach	Over
	#	s	V vs. Ref.	V	V	bits
	0	0.258333	7.07738E-003	7.07738E-003	5.85632E-004	...........
	1	0.516667	7.07803E-003	7.11157E-003	5.79632E-004	...........
	2	0.775	7.08184E-003	7.13356E-003	5.81399E-004	...........
	3	1.03333	7.09238E-003	7.17625E-003	5.83165E-004	...........
	4	1.29167	7.11170E-003	7.21479E-003	5.82232E-004	...........
	5	1.55	7.13962E-003	7.26356E-003	5.81999E-004	...........
	6	1.80833	7.17525E-003	7.33430E-003	5.81865E-004	...........
	7	2.06667	7.22072E-003	7.50566E-003	5.79066E-004	...........
	8	2.325	7.28119E-003	7.47120E-003	5.76966E-004	...........
	9	2.58333	7.35321E-003	7.50106E-003	5.76866E-004	...........
	10	2.84167	7.42006E-003	7.52299E-003	5.80099E-004	...........
	11	3.1	7.47071E-003	7.65619E-003	5.80099E-004	...........
	12	3.35833	7.51352E-003	7.67385E-003	5.78765E-004	...........
	13	3.61667	7.56142E-003	7.71639E-003	5.81065E-004	...........
	14	3.875	7.61444E-003	7.74184E-003	5.79199E-004	...........
	15	4.13333	7.66470E-003	7.80184E-003	5.77999E-004	...........
	16	4.39167	7.70971E-003	7.85897E-003	5.75632E-004	...........
	17	4.65	7.75392E-003	7.91248E-003	5.78366E-004	...........
	18	4.90833	7.80175E-003	7.96845E-003	5.78599E-004	...........
EOC	QUANT	0.0078018	Open Circuit (V)
PSTATMODEL	IQUANT	4	Pstat Model
PSTATSECTION	LABEL	REF600-11020	Pstat Section
PSTATSERIALNO	LABEL	11020	Pstat Serial Number
CTRLMODE	IQUANT	1	Control Mode
IESTAB	IQUANT	0	I/E Stability
CASPEED	IQUANT	1	Control Amp Speed
CONVENTION	IQUANT	1	Current Convention
ICHRANGE	IQUANT	2	Ich Range
ICHRANGEMODE	TOGGLE	F	Ich Auto Range
ICHOFFSETENABLE	TOGGLE	T	Ich Offset Enable
ICHOFFSET	QUANT	0	Ich Offset (V)
ICHFILTER	IQUANT	3	Ich Filter
VCHRANGE	IQUANT	2	Vch Range
VCHRANGEMODE	TOGGLE	F	Vch Auto Range
VCHOFFSETENABLE	TOGGLE	T	Vch Offset Enable
VCHOFFSET	QUANT	0	Vch Offset (V)
VCHFILTER	IQUANT	3	Vch Filter
ACHRANGE	IQUANT	2	Ach Range
ACHOFFSETENABLE	TOGGLE	F	Ach Offset Enable
ACHOFFSET	QUANT	0	Ach Offset (V)
ACHFILTER	IQUANT	3	Ach Filter
IERANGELOWERLIMIT	IQUANT	1	I/E Range Lower Limit
IERANGEMODE	TOGGLE	F	I/E AutoRange
IERANGE	IQUANT	5	I/E Range
POSFEEDENABLE	TOGGLE	F	Positive Feedback IR Comp
POSFEEDRESISTANCE	QUANT	0	Positive Feedback Resistance (ohm)
ACHSELECT	IQUANT	0	Ach Select
CABLEID	IQUANT	14	Cable ID
DCCALDATE	LABEL	8/19/2019	DC Calibration Date
ACCALDATE	LABEL	8/19/2019	AC Calibration Date
THERMOSELECT	IQUANT	1	Thermo Select
FRAMEWORKVERSION	QUANT	6.33	Framework Version
INSTRUMENTVERSION	LABEL	3.50	Instrument Version
ZCURVE	TABLE
	Pt	Time	Freq	Zreal	Zimag	Zsig	Zmod	Zphz	Idc	Vdc	IERange
	#	s	Hz	ohm	ohm	V	ohm	°	A	V	#
	0	2	1000078	2347.903	-1391.775	1	2729.412	-30.65835	2.993233E-006	0.0097454	8
	1	3	794390.6	2616.602	-1285.342	1	2915.255	-26.16146	-2.155607E-006	0.0099529	8
	2	5	630984.4	2833.959	-1145.927	1	3056.873	-22.01621	-2.368447E-006	0.0100349	8
	3	6	501234.4	3011.733	-990.044	1	3170.288	-18.1972	4.161318E-006	0.0087124	8
	4	7	398109.4	3128.292	-866.4221	1	3246.058	-15.48078	-7.737283E-007	0.009489	8
	5	9	316265.6	3228.701	-740.5031	1	3312.53	-12.9174	2.357062E-006	0.0088615	8
	6	10	251203.1	3305.574	-627.7794	1	3364.658	-10.75329	8.210731E-007	0.0092624	8
	7	11	199546.9	3346.313	-530.9274	1	3388.169	-9.015426	9.993538E-007	0.0092406	8
	8	13	158578.1	3388.603	-475.5282	1	3421.806	-7.988247	3.309169E-006	0.0086759	8
	9	14	125953.1	3441.439	-387.8934	1	3463.23	-6.430812	-6.088229E-007	0.0108904	7
	10	16	100078.1	3466.145	-340.0776	1	3482.788	-5.603588	-3.800753E-008	0.0093522	7
	11	17	79453.13	3491.988	-319.6707	1	3506.59	-5.230509	2.965171E-008	0.0092388	7
	12	18	63140.62	3517.163	-307.752	1	3530.602	-5.000648	-9.152075E-009	0.0092371	7
	13	20	50203.12	3542.889	-302.047	1	3555.741	-4.872935	2.948291E-008	0.0092372	7
	14	21	39890.62	3568.647	-304.7701	1	3581.638	-4.881338	2.960635E-008	0.0092392	7
	15	22	31640.63	3595.412	-314.279	1	3609.122	-4.995591	-2.864532E-008	0.0092963	7
	16	24	25171.88	3622.727	-331.2727	1	3637.842	-5.224763	-9.350501E-009	0.0093004	7
	17	25	20015.62	3652.496	-352.2908	1	3669.446	-5.509255	-3.146535E-009	0.0092734	7
	18	26	15890.62	3681.994	-388.8048	1	3702.465	-6.027883	-1.001622E-008	0.0093016	7
	19	28	12609.37	3712.535	-431.1258	1	3737.484	-6.623921	5.731794E-008	0.009167	7
	20	29	10078.13	3746.16	-484.1953	1	3777.322	-7.364712	-6.253181E-009	0.0092944	7
	21	30	8015.625	3784.56	-548.8242	1	3824.147	-8.25132	-4.868666E-009	0.0092953	7
	22	32	6328.125	3818.326	-640.0348	1	3871.596	-9.51556	-6.056376E-008	0.0093598	7
	23	33	5015.625	3859.322	-748.2841	1	3931.195	-10.97293	6.769749E-008	0.0091197	7
	24	35	3984.375	3903.198	-882.0234	1	4001.614	-12.73352	3.585881E-008	0.0091436	7
	25	36	3170.956	3951.281	-1047.854	1	4087.863	-14.85259	-1.103353E-008	0.0092372	7
	26	37	2527.573	4005.98	-1249.386	1	4196.29	-17.32166	-1.149922E-008	0.0092362	7
	27	39	1976.103	4075.19	-1518.459	1	4348.896	-20.43592	-2.918603E-008	0.0092743	7
	28	40	1577.524	4165.775	-1826.957	1	4548.786	-23.6805	1.338072E-008	0.009197	7
	29	41	1265.625	4227.944	-2190.866	1	4761.87	-27.3926	-2.872813E-008	0.0092844	7
	30	43	998.264	4332.704	-2674.217	1	5091.538	-31.68357	-4.826103E-009	0.0092918	7
	31	44	796.875	4446.816	-3238.187	1	5500.912	-36.06224	1.137006E-007	0.0090908	7
	32	45	627.7902	4591.773	-3976.756	1	6074.453	-40.89456	-4.163319E-008	0.0093881	7
	33	47	505.5147	4744.935	-4795.939	1	6746.513	-45.30629	-6.131105E-008	0.0093575	7
	34	48	397.9953	4953.117	-5910.689	1	7711.654	-50.03723	3.497555E-009	0.0092747	7
	35	49	315.5048	5198.887	-7254.836	1	8925.306	-54.37424	4.290218E-009	0.0092779	7
	36	51	252.4038	5493.382	-8842.188	1	10409.68	-58.14857	5.860804E-010	0.0092204	6
	37	52	198.6229	5892.394	-10949.41	1	12434.22	-61.71321	7.533109E-010	0.0092208	6
	38	54	158.3615	6380.169	-13405.93	1	14846.74	-64.54923	1.100484E-009	0.0092175	6
	39	55	125.558	7021.076	-16500.49	1	17932.14	-66.94991	6.118315E-010	0.0092189	6
	40	56	100.4464	7851.254	-20128.59	1	21605.61	-68.69149	1.378633E-009	0.0092115	6
	41	58	79.00281	8950.276	-24925.93	1	26484.13	-70.24805	1.531535E-009	0.0092132	6
	42	59	63.3446	10167.52	-30121.04	1	31790.81	-71.34761	3.14179E-010	0.0092167	6
	43	60	49.86702	12613.42	-37195.36	1	39275.86	-71.26754	1.067347E-010	0.0092106	6
	44	62	39.72458	15035.42	-45336.23	1	47764.4	-71.65228	6.159764E-010	0.0092135	6
	45	63	31.6723	18435.62	-54916.84	1	57928.67	-71.44306	5.336284E-010	0.0092147	6
	46	65	24.93351	23025.74	-66788.71	1	70646.42	-70.97812	7.054809E-010	0.0092114	6
	47	66	19.86229	28826.78	-80107.08	1	85135.94	-70.20857	1.348668E-009	0.0092183	6
	48	67	15.83615	36687.58	-95660.3	1	102454.2	-69.0172	2.030395E-009	0.0092156	6
	49	69	12.40079	46281.09	-114322.9	1	123335.5	-67.96052	-7.546174E-010	0.0092237	5
	50	70	9.93114	57508.02	-134855.4	1	146605.4	-66.90456	-1.701592E-010	0.0092292	5
	51	72	7.944915	70500.01	-157558.8	1	172612.4	-65.89378	1.209551E-009	0.0092199	5
	52	73	6.317385	87678.91	-184205.1	1	204007.6	-64.54623	7.312824E-010	0.0092226	5
	53	75	5.008013	107698.1	-214958.7	1	240429	-63.38832	4.188231E-010	0.00923	5
	54	78	3.945707	131719.4	-250653.9	1	283156.1	-62.27793	-1.410516E-010	0.0092189	5
	55	81	3.158693	157466.9	-288415.5	1	328602.1	-61.36668	2.381454E-010	0.0092364	5
	56	84	2.504006	188629.3	-333863	1	383465.2	-60.53399	-2.988455E-010	0.0092285	5
	57	87	1.998082	222977.4	-383141.3	1	443301.5	-59.8018	-4.009388E-012	0.0091799	5
	58	90	1.584686	262412.5	-440766.5	1	512967.3	-59.23234	-3.199029E-011	0.0092449	5
	59	93	1.266892	306658.6	-506809.3	1	592364	-58.82283	-2.388584E-011	0.0091787	5
	60	98	0.999041	358759.7	-586559.5	1	687575.9	-58.54863	7.600275E-011	0.0092605	5
