EXPLAIN
TAG	EISPOT
TITLE	LABEL	Potentiostatic EIS	Test &Identifier
DATE	LABEL	10/24/2019	Date
TIME	LABEL	9:44:26	Time
NOTES	NOTES	1	&Notes...
	
PSTAT	PSTAT	REF600-11020	Potentiostat
VDC	POTEN	0.00000E+000	T	DC &Voltage (V)
FREQINIT	QUANT	1.00000E+006	Initial Fre&q. (Hz)
FREQFINAL	QUANT	1.00000E+000	Final Fre&q. (Hz)
PTSPERDEC	QUANT	1.00000E+001	Points/&decade
VAC	QUANT	2.50000E+001	AC &Voltage (mV rms)
AREA	QUANT	1.00000E-002	&Area (cm^2)
CONDIT	TWOPARAM	T	5.00000E+000	0.00000E+000	Conditionin&g	Time(s)	E(V)
DELAY	TWOPARAM	T	5.00000E+000	0.00000E+000	Init. De&lay	Time(s)	Stab.(mV/s)
SPEED	SELECTOR	1	&Optimize for:
ZGUESS	QUANT	1.00000E+005	E&stimated Z (ohms)
OCVCURVE	TABLE	19
	Pt	T	Vf	Vm	Ach	Over
	#	s	V vs. Ref.	V	V	bits
	0	0.258333	6.87174E-003	6.87174E-003	5.47166E-004	...........
	1	0.516667	6.86837E-003	6.69517E-003	5.46366E-004	...........
	2	0.775	6.84801E-003	6.54643E-003	5.44966E-004	...........
	3	1.03333	6.79439E-003	6.54968E-003	5.48966E-004	...........
	4	1.29167	6.70772E-003	6.28020E-003	5.39466E-004	...........
	5	1.55	6.60211E-003	6.34347E-003	5.41433E-004	...........
	6	1.80833	6.49098E-003	6.12740E-003	5.42799E-004	...........
	7	2.06667	6.38573E-003	6.24488E-003	5.42966E-004	...........
	8	2.325	6.29527E-003	6.00145E-003	5.45933E-004	...........
	9	2.58333	6.22212E-003	6.19865E-003	5.49366E-004	...........
	10	2.84167	6.16587E-003	5.99301E-003	5.48299E-004	...........
	11	3.1	6.12515E-003	6.08453E-003	5.48599E-004	...........
	12	3.35833	6.09178E-003	5.85257E-003	5.50833E-004	...........
	13	3.61667	6.04715E-003	5.64821E-003	5.52399E-004	...........
	14	3.875	5.97102E-003	5.66977E-003	5.46199E-004	...........
	15	4.13333	5.86587E-003	5.63030E-003	5.42766E-004	...........
	16	4.39167	5.76230E-003	5.62156E-003	5.44066E-004	...........
	17	4.65	5.68724E-003	5.60614E-003	5.41966E-004	...........
	18	4.90833	5.64345E-003	5.59529E-003	5.42766E-004	...........
EOC	QUANT	0.0056435	Open Circuit (V)
PSTATMODEL	IQUANT	4	Pstat Model
PSTATSECTION	LABEL	REF600-11020	Pstat Section
PSTATSERIALNO	LABEL	11020	Pstat Serial Number
CTRLMODE	IQUANT	1	Control Mode
IESTAB	IQUANT	0	I/E Stability
CASPEED	IQUANT	1	Control Amp Speed
CONVENTION	IQUANT	1	Current Convention
ICHRANGE	IQUANT	2	Ich Range
ICHRANGEMODE	TOGGLE	F	Ich Auto Range
ICHOFFSETENABLE	TOGGLE	T	Ich Offset Enable
ICHOFFSET	QUANT	0	Ich Offset (V)
ICHFILTER	IQUANT	3	Ich Filter
VCHRANGE	IQUANT	2	Vch Range
VCHRANGEMODE	TOGGLE	F	Vch Auto Range
VCHOFFSETENABLE	TOGGLE	T	Vch Offset Enable
VCHOFFSET	QUANT	0	Vch Offset (V)
VCHFILTER	IQUANT	3	Vch Filter
ACHRANGE	IQUANT	2	Ach Range
ACHOFFSETENABLE	TOGGLE	F	Ach Offset Enable
ACHOFFSET	QUANT	0	Ach Offset (V)
ACHFILTER	IQUANT	3	Ach Filter
IERANGELOWERLIMIT	IQUANT	1	I/E Range Lower Limit
IERANGEMODE	TOGGLE	F	I/E AutoRange
IERANGE	IQUANT	5	I/E Range
POSFEEDENABLE	TOGGLE	F	Positive Feedback IR Comp
POSFEEDRESISTANCE	QUANT	0	Positive Feedback Resistance (ohm)
ACHSELECT	IQUANT	0	Ach Select
CABLEID	IQUANT	14	Cable ID
DCCALDATE	LABEL	8/19/2019	DC Calibration Date
ACCALDATE	LABEL	8/19/2019	AC Calibration Date
THERMOSELECT	IQUANT	1	Thermo Select
FRAMEWORKVERSION	QUANT	6.33	Framework Version
INSTRUMENTVERSION	LABEL	3.50	Instrument Version
ZCURVE	TABLE
	Pt	Time	Freq	Zreal	Zimag	Zsig	Zmod	Zphz	Idc	Vdc	IERange
	#	s	Hz	ohm	ohm	V	ohm	°	A	V	#
	0	1	1000078	2204.025	-1495.462	1	2663.481	-34.15744	1.020752E-006	0.0081299	8
	1	2	794390.6	2488.563	-1445.688	1	2878.013	-30.15372	9.133435E-007	0.0075	8
	2	4	630984.4	2756.001	-1335.144	1	3062.377	-25.84785	3.071227E-006	0.0068815	8
	3	5	501234.4	2977.042	-1226.166	1	3219.668	-22.38548	-2.969934E-006	0.0079758	8
	4	6	398109.4	3152.321	-1089.001	1	3335.124	-19.05798	3.172736E-006	0.0067855	8
	5	8	316265.6	3290.218	-965.353	1	3428.912	-16.35175	7.963141E-007	0.0071698	8
	6	9	251203.1	3382.786	-866.4513	1	3491.988	-14.36662	-7.220209E-007	0.007467	8
	7	10	199546.9	3472.083	-776.6271	1	3557.88	-12.60824	2.750147E-006	0.0067613	8
	8	12	158578.1	3550.305	-711.6223	1	3620.922	-11.33416	4.870189E-007	0.0073363	8
	9	13	125953.1	3640.136	-607.5787	1	3690.494	-9.475941	-6.313181E-007	0.008101	7
	10	14	100078.1	3689.928	-583.6057	1	3735.795	-8.987555	6.008132E-010	0.007264	7
	11	16	79453.13	3743.28	-574.3912	1	3787.093	-8.723762	-3.466332E-008	0.0073283	7
	12	17	63140.62	3799.011	-575.5905	1	3842.367	-8.615395	-4.666024E-008	0.0073484	7
	13	18	50203.12	3856.042	-588.3854	1	3900.674	-8.675726	5.320847E-010	0.007257	7
	14	20	39890.62	3915.644	-611.8293	1	3963.156	-8.880801	6.91383E-008	0.0072338	7
	15	21	31640.63	3979.872	-646.2574	1	4032	-9.223269	-4.281912E-008	0.0074292	7
	16	22	25171.88	4047.332	-692.1386	1	4106.087	-9.70434	-4.313012E-008	0.0074392	7
	17	24	20015.62	4109.249	-752.2444	1	4177.535	-10.37378	-1.750319E-008	0.0073275	7
	18	25	15890.62	4198.181	-820.5634	1	4277.622	-11.05942	-4.345986E-008	0.0074307	7
	19	26	12609.37	4283.653	-908.8342	1	4379.003	-11.97844	9.597791E-008	0.0071527	7
	20	28	10078.13	4373.684	-1008.71	1	4488.498	-12.98714	-2.270859E-008	0.0072835	7
	21	29	8015.625	4476.247	-1126.877	1	4615.912	-14.13035	-1.958873E-009	0.0072552	7
	22	30	6328.125	4585.155	-1277.611	1	4759.826	-15.57001	6.092231E-009	0.0072363	7
	23	32	5015.625	4701.263	-1452.515	1	4920.536	-17.16919	-3.867978E-010	0.0073158	7
	24	33	3984.375	4826.329	-1647.347	1	5099.726	-18.84606	-1.444748E-009	0.0073076	7
	25	34	3170.956	4960.861	-1905.385	1	5314.192	-21.01097	-2.290236E-008	0.0072825	7
	26	36	2527.573	5103.667	-2202.448	1	5558.615	-23.34223	3.620259E-008	0.0072358	7
	27	37	1976.103	5269.23	-2598.026	1	5874.907	-26.24588	-6.915085E-010	0.0073093	7
	28	39	1577.524	5426.703	-3052.619	1	6226.362	-29.35855	3.047836E-008	0.0071781	7
	29	40	1265.625	5619.576	-3574.438	1	6660.048	-32.45917	-2.216525E-008	0.0073439	7
	30	41	998.264	5838.86	-4269.723	1	7233.452	-36.1765	-4.853721E-009	0.0072929	7
	31	43	796.875	6078.487	-5082.58	1	7923.422	-39.90098	-2.533863E-008	0.007278	7
	32	44	627.7902	6365.669	-6140.885	1	8844.897	-43.97032	5.356033E-008	0.0071854	7
	33	45	505.5147	6674.751	-7305.294	1	9895.43	-47.58247	-5.17088E-009	0.0072526	6
	34	47	397.9953	7077.649	-8886.469	1	11360.57	-51.46435	1.172624E-009	0.00724	6
	35	48	315.5048	7540.219	-10773.84	1	13150.31	-55.01323	1.670954E-009	0.0072392	6
	36	49	252.4038	8070.371	-12986.91	1	15290.22	-58.14222	2.360884E-010	0.0072398	6
	37	51	198.6229	8763.212	-15899.78	1	18154.8	-61.1385	4.792817E-010	0.0072369	6
	38	52	158.3615	9560.58	-19271.96	1	21513.09	-63.61456	5.916375E-012	0.0072317	6
	39	54	125.558	10570.79	-23498.91	1	25767.04	-65.7798	4.565719E-010	0.0072336	6
	40	55	100.4464	11787.04	-28422.98	1	30770.12	-67.47617	1.143079E-009	0.0072317	6
	41	56	79.00281	13438.64	-34942.2	1	37437.34	-68.96344	1.45495E-009	0.0072263	6
	42	58	63.3446	15753.41	-42486.3	1	45312.87	-69.65583	1.132178E-010	0.0072288	6
	43	59	49.86702	17546.86	-52155.23	1	55027.81	-71.40524	-2.844395E-011	0.0072288	6
	44	61	39.72458	21235.08	-63375.65	1	66838.63	-71.47571	5.165511E-010	0.0072305	6
	45	62	31.6723	25669.38	-76720.74	1	80901.11	-71.50068	1.850255E-010	0.0072265	6
	46	64	24.93351	31980.86	-93980.1	1	99272.5	-71.20687	8.441336E-010	0.0072255	6
	47	65	19.86229	39917.01	-113495.5	1	120310.5	-70.62295	1.797528E-010	0.0072354	5
	48	66	15.83615	49213.32	-136716	1	145303.9	-70.20278	-1.197488E-009	0.0072373	5
	49	68	12.40079	65430.91	-164745.6	1	177263.5	-68.33884	2.787511E-010	0.0072324	5
	50	69	9.93114	82057.95	-193617.7	1	210288.7	-67.03208	1.16088E-010	0.0072301	5
	51	71	7.944915	103119.4	-226174.5	1	248573	-65.49041	9.037788E-010	0.0072281	5
	52	72	6.317385	132288.2	-262850.7	1	294262.8	-63.28468	5.799491E-010	0.0072372	5
	53	74	5.008013	164315.6	-303602.1	1	345215.6	-61.57685	5.015641E-010	0.0072413	5
	54	77	3.945707	204244.9	-348868.8	1	404259.1	-59.6532	6.792339E-011	0.0072315	5
	55	80	3.158693	244675.5	-394767.1	1	464442.8	-58.20949	1.813357E-010	0.0072509	5
	56	83	2.504006	292214.8	-446857.1	1	533920.2	-56.81799	-6.17423E-011	0.0072276	5
	57	86	1.998082	341456	-502570.2	1	607592.8	-55.80705	-5.128752E-011	0.0072632	5
	58	89	1.584686	394120.7	-569000.4	1	692165.1	-55.29142	1.624086E-010	0.0072598	5
	59	93	1.266892	453595	-643056.8	1	786937.4	-54.80188	-2.844385E-011	0.0072719	5
	60	97	0.999041	519443.1	-734265.3	1	899425.8	-54.72318	2.770943E-010	0.0072101	5
