EXPLAIN
TAG	EISPOT
TITLE	LABEL	Potentiostatic EIS	Test &Identifier
DATE	LABEL	11/22/2019	Date
TIME	LABEL	10:36:56	Time
NOTES	NOTES	4	&Notes...
	
	
	
	
PSTAT	PSTAT	REF600-11020	Potentiostat
VDC	POTEN	0.00000E+000	T	DC &Voltage (V)
FREQINIT	QUANT	1.00000E+006	Initial Fre&q. (Hz)
FREQFINAL	QUANT	1.00000E+000	Final Fre&q. (Hz)
PTSPERDEC	QUANT	1.00000E+001	Points/&decade
VAC	QUANT	2.50000E+001	AC &Voltage (mV rms)
AREA	QUANT	1.00000E-002	&Area (cm^2)
CONDIT	TWOPARAM	T	5.00000E+000	0.00000E+000	Conditionin&g	Time(s)	E(V)
DELAY	TWOPARAM	T	5.00000E+000	0.00000E+000	Init. De&lay	Time(s)	Stab.(mV/s)
SPEED	SELECTOR	0	&Optimize for:
ZGUESS	QUANT	1.00000E+005	E&stimated Z (ohms)
OCVCURVE	TABLE	19
	Pt	T	Vf	Vm	Ach	Over
	#	s	V vs. Ref.	V	V	bits
	0	0.258333	3.85295E-002	3.85295E-002	5.20633E-004	...........
	1	0.516667	3.85886E-002	4.16253E-002	5.24466E-004	...........
	2	0.775	3.89501E-002	4.44719E-002	5.20466E-004	...........
	3	1.03333	3.99654E-002	4.71130E-002	5.22066E-004	...........
	4	1.29167	4.17620E-002	4.95672E-002	5.25733E-004	...........
	5	1.55	4.41145E-002	5.18600E-002	5.18000E-004	...........
	6	1.80833	4.66716E-002	5.40046E-002	5.20300E-004	...........
	7	2.06667	4.91830E-002	5.60173E-002	5.28066E-004	...........
	8	2.325	5.15424E-002	5.79132E-002	5.28633E-004	...........
	9	2.58333	5.37340E-002	5.96984E-002	5.27466E-004	...........
	10	2.84167	5.57753E-002	6.13784E-002	5.25700E-004	...........
	11	3.1	5.76871E-002	6.29672E-002	5.26200E-004	...........
	12	3.35833	5.94850E-002	6.44693E-002	5.29466E-004	...........
	13	3.61667	6.11799E-002	6.58863E-002	5.31266E-004	...........
	14	3.875	6.27800E-002	6.72359E-002	5.29999E-004	...........
	15	4.13333	6.42922E-002	6.85118E-002	5.33033E-004	...........
	16	4.39167	6.57233E-002	6.97208E-002	5.29400E-004	...........
	17	4.65	6.70788E-002	7.08705E-002	5.23233E-004	...........
	18	4.90833	6.83636E-002	7.19666E-002	5.27166E-004	...........
EOC	QUANT	0.0683636	Open Circuit (V)
PSTATMODEL	IQUANT	4	Pstat Model
PSTATSECTION	LABEL	REF600-11020	Pstat Section
PSTATSERIALNO	LABEL	11020	Pstat Serial Number
CTRLMODE	IQUANT	1	Control Mode
IESTAB	IQUANT	0	I/E Stability
CASPEED	IQUANT	1	Control Amp Speed
CONVENTION	IQUANT	1	Current Convention
ICHRANGE	IQUANT	2	Ich Range
ICHRANGEMODE	TOGGLE	F	Ich Auto Range
ICHOFFSETENABLE	TOGGLE	T	Ich Offset Enable
ICHOFFSET	QUANT	0	Ich Offset (V)
ICHFILTER	IQUANT	3	Ich Filter
VCHRANGE	IQUANT	2	Vch Range
VCHRANGEMODE	TOGGLE	F	Vch Auto Range
VCHOFFSETENABLE	TOGGLE	T	Vch Offset Enable
VCHOFFSET	QUANT	0	Vch Offset (V)
VCHFILTER	IQUANT	3	Vch Filter
ACHRANGE	IQUANT	2	Ach Range
ACHOFFSETENABLE	TOGGLE	F	Ach Offset Enable
ACHOFFSET	QUANT	0	Ach Offset (V)
ACHFILTER	IQUANT	3	Ach Filter
IERANGELOWERLIMIT	IQUANT	1	I/E Range Lower Limit
IERANGEMODE	TOGGLE	F	I/E AutoRange
IERANGE	IQUANT	6	I/E Range
POSFEEDENABLE	TOGGLE	F	Positive Feedback IR Comp
POSFEEDRESISTANCE	QUANT	0	Positive Feedback Resistance (ohm)
ACHSELECT	IQUANT	0	Ach Select
CABLEID	IQUANT	14	Cable ID
DCCALDATE	LABEL	8/19/2019	DC Calibration Date
ACCALDATE	LABEL	8/19/2019	AC Calibration Date
THERMOSELECT	IQUANT	1	Thermo Select
FRAMEWORKVERSION	QUANT	6.33	Framework Version
INSTRUMENTVERSION	LABEL	3.50	Instrument Version
ZCURVE	TABLE
	Pt	Time	Freq	Zreal	Zimag	Zsig	Zmod	Zphz	Idc	Vdc	IERange
	#	s	Hz	ohm	ohm	V	ohm	°	A	V	#
	0	2	1000078	2180.68	-1977.064	1	2943.493	-42.1963	5.650725E-006	0.0698696	8
	1	2	794390.6	2493.735	-2100.24	1	3260.325	-40.10431	-8.197901E-006	0.0705395	8
	2	2	630984.4	2824.009	-2205.833	1	3583.396	-37.9934	-6.703511E-008	0.0696321	8
	3	3	501234.4	3202.219	-2310.272	1	3948.616	-35.80894	-5.226982E-006	0.0702542	8
	4	3	398109.4	3565.942	-2427.557	1	4313.812	-34.24553	-3.475291E-006	0.0704003	8
	5	3	316265.6	4011.37	-2489.609	1	4721.148	-31.82531	-2.56694E-006	0.0703116	8
	6	4	251203.1	4462.576	-2554.711	1	5142.094	-29.79004	1.97738E-006	0.0700588	8
	7	4	199546.9	4921.332	-2578.345	1	5555.841	-27.65058	-2.533162E-006	0.0696694	8
	8	4	158578.1	5360.997	-2395.28	1	5871.768	-24.07498	-3.874741E-007	0.0702377	8
	9	5	125953.1	5886.14	-2301.105	1	6319.947	-21.35232	-1.890659E-006	0.0735184	7
	10	5	100078.1	6295.596	-2135.453	1	6647.909	-18.73683	-8.51645E-007	0.0696183	7
	11	5	79453.13	6731.447	-1985.147	1	7018.062	-16.43113	1.081004E-006	0.0678125	7
	12	6	63140.62	7016.616	-1763.69	1	7234.881	-14.10951	8.364196E-007	0.0677381	7
	13	6	50203.12	7195.116	-1565.657	1	7363.489	-12.27619	-1.373633E-006	0.0713787	7
	14	6	39890.62	7394.799	-1355.564	1	7518.019	-10.38774	-3.99777E-007	0.0688356	7
	15	7	31640.63	7524.725	-1196.407	1	7619.244	-9.034222	-1.372432E-006	0.0713808	7
	16	7	25171.88	7696.229	-1054.569	1	7768.143	-7.802317	8.420405E-007	0.0677383	7
	17	8	20015.62	7797.096	-954.817	1	7855.341	-6.98157	9.883924E-008	0.07079	7
	18	8	15890.62	7787.292	-858.0187	1	7834.418	-6.287597	-8.620849E-007	0.0696039	7
	19	8	12609.37	7866.597	-816.6387	1	7908.871	-5.926699	-9.898357E-007	0.0716139	7
	20	9	10078.13	7988.262	-796.9951	1	8027.922	-5.697589	4.556316E-007	0.070294	7
	21	9	8015.625	8034.792	-790.1496	1	8073.551	-5.616466	1.212199E-006	0.0680414	7
	22	9	6328.125	8081.191	-838.6933	1	8124.596	-5.925137	1.155267E-006	0.0688707	7
	23	10	5015.625	8118.322	-912.1746	1	8169.408	-6.410865	7.101243E-007	0.069916	7
	24	10	3984.375	8143.808	-1027.149	1	8208.327	-7.18855	-2.99452E-007	0.0712228	7
	25	10	3170.956	8115.319	-1143.909	1	8195.544	-8.023369	-1.378299E-006	0.0709694	7
	26	11	2527.573	8206.188	-1343.218	1	8315.394	-9.295941	-6.750336E-007	0.071505	7
	27	11	1976.103	8230.254	-1605.708	1	8385.427	-11.03963	-1.371841E-006	0.0713704	7
	28	11	1577.524	8394.724	-1948.389	1	8617.865	-13.06682	1.239517E-006	0.0684037	7
	29	12	1265.625	8454.761	-2301.108	1	8762.311	-15.22524	1.078549E-006	0.0677998	7
	30	12	998.264	8560.866	-2814.517	1	9011.655	-18.19908	1.084366E-006	0.0678031	7
	31	13	796.875	8698.013	-3422.628	1	9347.182	-21.47941	1.214335E-006	0.0680433	7
	32	13	627.7902	8765.21	-4139.364	1	9693.46	-25.27899	-8.578273E-007	0.0695971	7
	33	13	505.5147	8952.984	-5010.667	1	10259.76	-29.23419	-1.372464E-006	0.0713672	7
	34	13	397.9953	9253.562	-6217.792	1	11148.51	-33.89853	-1.566343E-010	0.0697425	7
	35	14	315.5048	9587.22	-7614.554	1	12243.21	-38.458	-2.335045E-009	0.069675	6
	36	14	252.4038	9999.58	-9251.944	1	13623.14	-42.77603	-2.96685E-009	0.0696774	6
	37	14	198.6229	10581.44	-11389.74	1	15546.48	-47.10689	-2.337875E-009	0.0696778	6
	38	15	158.3615	11307.23	-13839.82	1	17871.6	-50.75095	-1.783143E-009	0.0696728	6
	39	15	125.558	12298.13	-16866.62	1	20874.07	-53.90271	-1.990068E-009	0.0696696	6
	40	15	100.4464	13533.51	-20353.74	1	24442.4	-56.37947	-3.476457E-009	0.069675	6
	41	16	79.00281	15293.87	-24830.06	1	29162.21	-58.36936	-1.407914E-009	0.0696624	6
	42	16	63.3446	17400.96	-29333.23	1	34106.18	-59.32288	-2.904976E-009	0.069674	6
	43	16	49.86702	20461.56	-35507.77	1	40981.42	-60.04705	-2.217784E-009	0.0696668	6
	44	17	39.72458	24102.05	-42395.66	1	48767.82	-60.38164	-3.684963E-009	0.0696758	6
	45	17	31.6723	28784.84	-50020.66	1	57711.64	-60.08133	-2.821711E-009	0.069659	6
	46	17	24.93351	34999.9	-58828.24	1	68452.58	-59.24944	-1.189136E-009	0.0696633	6
	47	18	19.86229	42110.75	-68247.05	1	80193.37	-58.32401	-4.46358E-011	0.06968	6
	48	18	15.83615	51396.37	-77602.04	1	93078.8	-56.48322	-5.766692E-009	0.0696606	6
	49	18	12.40079	61540.15	-90276.22	1	109256.5	-55.71824	-3.461746E-009	0.0696722	5
	50	19	9.93114	72194.3	-100910.1	1	124076	-54.41887	-6.500235E-010	0.0696815	5
	51	19	7.944915	84469.96	-112989.2	1	141073.5	-53.21846	-1.02438E-009	0.0696758	5
	52	20	6.317385	98195.9	-126842.4	1	160410.1	-52.25452	-1.537932E-009	0.0696599	5
	53	21	5.008013	113029.9	-142510.2	1	181892.5	-51.58081	-1.560028E-009	0.0696736	5
	54	22	3.945707	129078.8	-160639.6	1	206073.8	-51.21706	-2.004424E-009	0.0696668	5
	55	23	3.158693	145392.4	-180554	1	231816.1	-51.15699	-2.219104E-009	0.0696531	5
	56	24	2.504006	163747	-204851.6	1	262254.2	-51.36311	-1.83313E-009	0.0696605	5
	57	26	1.998082	183042.7	-233276.5	1	296517.4	-51.88016	-1.658873E-009	0.0696895	5
	58	27	1.584686	205287.2	-267077.3	1	336857.8	-52.45256	-1.829431E-009	0.0696529	5
	59	29	1.266892	230474.1	-306937.9	1	383834.8	-53.09778	-1.808541E-009	0.0696272	5
	60	32	0.999041	260538.2	-357771	1	442583.7	-53.93691	-1.756715E-009	0.0696331	5
