EXPLAIN
TAG	EISPOT
TITLE	LABEL	Potentiostatic EIS	Test &Identifier
DATE	LABEL	11/20/2019	Date
TIME	LABEL	11:15:01	Time
NOTES	NOTES	4	&Notes...
	
	
	
	
PSTAT	PSTAT	REF600-11020	Potentiostat
VDC	POTEN	0.00000E+000	T	DC &Voltage (V)
FREQINIT	QUANT	1.00000E+006	Initial Fre&q. (Hz)
FREQFINAL	QUANT	1.00000E+000	Final Fre&q. (Hz)
PTSPERDEC	QUANT	1.00000E+001	Points/&decade
VAC	QUANT	2.50000E+001	AC &Voltage (mV rms)
AREA	QUANT	1.00000E-002	&Area (cm^2)
CONDIT	TWOPARAM	T	5.00000E+000	0.00000E+000	Conditionin&g	Time(s)	E(V)
DELAY	TWOPARAM	T	5.00000E+000	0.00000E+000	Init. De&lay	Time(s)	Stab.(mV/s)
SPEED	SELECTOR	1	&Optimize for:
ZGUESS	QUANT	1.00000E+005	E&stimated Z (ohms)
OCVCURVE	TABLE	19
	Pt	T	Vf	Vm	Ach	Over
	#	s	V vs. Ref.	V	V	bits
	0	0.258333	3.66618E-003	3.66618E-003	5.72366E-004	...........
	1	0.516667	3.66194E-003	3.44402E-003	5.67032E-004	...........
	2	0.775	3.63590E-003	3.23467E-003	5.71799E-004	...........
	3	1.03333	3.56286E-003	3.06206E-003	5.70066E-004	...........
	4	1.29167	3.43396E-003	2.85826E-003	5.74565E-004	...........
	5	1.55	3.26463E-003	2.68893E-003	5.75432E-004	...........
	6	1.80833	3.07658E-003	2.45431E-003	5.74099E-004	...........
	7	2.06667	2.88112E-003	2.22397E-003	5.70566E-004	...........
	8	2.325	2.67811E-003	1.99933E-003	5.71199E-004	...........
	9	2.58333	2.46492E-003	1.76499E-003	5.66866E-004	...........
	10	2.84167	2.23810E-003	1.29450E-003	5.63532E-004	...........
	11	3.1	1.98321E-003	8.94213E-004	5.67499E-004	...........
	12	3.35833	1.67328E-003	1.53776E-004	5.66166E-004	...........
	13	3.61667	1.27689E-003	-6.27933E-004	5.71199E-004	...........
	14	3.875	7.85965E-004	-4.37780E-004	5.67466E-004	...........
	15	4.13333	2.78064E-004	-6.40768E-005	5.66999E-004	...........
	16	4.39167	-7.77088E-005	7.77595E-004	5.65132E-004	...........
	17	4.65	-1.22464E-004	1.78091E-003	5.73632E-004	...........
	18	4.90833	1.88611E-004	2.08861E-003	5.69399E-004	...........
EOC	QUANT	0.0001886	Open Circuit (V)
PSTATMODEL	IQUANT	4	Pstat Model
PSTATSECTION	LABEL	REF600-11020	Pstat Section
PSTATSERIALNO	LABEL	11020	Pstat Serial Number
CTRLMODE	IQUANT	1	Control Mode
IESTAB	IQUANT	0	I/E Stability
CASPEED	IQUANT	1	Control Amp Speed
CONVENTION	IQUANT	1	Current Convention
ICHRANGE	IQUANT	2	Ich Range
ICHRANGEMODE	TOGGLE	F	Ich Auto Range
ICHOFFSETENABLE	TOGGLE	T	Ich Offset Enable
ICHOFFSET	QUANT	0	Ich Offset (V)
ICHFILTER	IQUANT	3	Ich Filter
VCHRANGE	IQUANT	2	Vch Range
VCHRANGEMODE	TOGGLE	F	Vch Auto Range
VCHOFFSETENABLE	TOGGLE	T	Vch Offset Enable
VCHOFFSET	QUANT	0	Vch Offset (V)
VCHFILTER	IQUANT	3	Vch Filter
ACHRANGE	IQUANT	2	Ach Range
ACHOFFSETENABLE	TOGGLE	F	Ach Offset Enable
ACHOFFSET	QUANT	0	Ach Offset (V)
ACHFILTER	IQUANT	3	Ach Filter
IERANGELOWERLIMIT	IQUANT	1	I/E Range Lower Limit
IERANGEMODE	TOGGLE	F	I/E AutoRange
IERANGE	IQUANT	3	I/E Range
POSFEEDENABLE	TOGGLE	F	Positive Feedback IR Comp
POSFEEDRESISTANCE	QUANT	0	Positive Feedback Resistance (ohm)
ACHSELECT	IQUANT	0	Ach Select
CABLEID	IQUANT	14	Cable ID
DCCALDATE	LABEL	8/19/2019	DC Calibration Date
ACCALDATE	LABEL	8/19/2019	AC Calibration Date
THERMOSELECT	IQUANT	1	Thermo Select
FRAMEWORKVERSION	QUANT	6.33	Framework Version
INSTRUMENTVERSION	LABEL	3.50	Instrument Version
ZCURVE	TABLE
	Pt	Time	Freq	Zreal	Zimag	Zsig	Zmod	Zphz	Idc	Vdc	IERange
	#	s	Hz	ohm	ohm	V	ohm	°	A	V	#
	0	2	1000078	2327.34	-2128.697	1	3154.023	-42.44754	-9.245884E-006	0.0031258	8
	1	3	794390.6	2790.734	-2143.85	1	3519.132	-37.53157	4.120677E-006	0.0027082	8
	2	4	630984.4	3225.041	-2069.991	1	3832.199	-32.69436	-3.477237E-006	0.0019649	8
	3	6	501234.4	3616.209	-1932.061	1	4099.979	-28.11461	-9.066124E-007	0.0023712	8
	4	7	398109.4	3956.715	-1755.365	1	4328.614	-23.92408	6.720586E-006	0.0011493	8
	5	8	316265.6	4220.233	-1536.723	1	4491.313	-20.00819	6.030679E-006	0.0011484	8
	6	10	251203.1	4397.991	-1361.952	1	4604.046	-17.2065	6.076535E-006	0.0011437	8
	7	11	199546.9	4562.895	-1158.62	1	4707.697	-14.24755	4.889055E-007	0.0021765	8
	8	12	158578.1	4691.485	-1030.857	1	4803.405	-12.39263	-2.324472E-006	0.0022848	8
	9	14	125953.1	4820.718	-834.6062	1	4892.432	-9.8222	-2.961871E-006	0.005539	7
	10	15	100078.1	4871.072	-757.1649	1	4929.568	-8.835412	4.70757E-008	0.0027388	7
	11	16	79453.13	4936.085	-694.6888	1	4984.729	-8.01101	-6.86935E-007	0.0016048	7
	12	18	63140.62	4989.928	-654.3173	1	5032.645	-7.470436	4.79276E-008	0.0027285	7
	13	19	50203.12	5044.389	-631.8517	1	5083.808	-7.139589	1.049322E-006	0.0003859	7
	14	21	39890.62	5098.261	-624.2548	1	5136.337	-6.980813	-2.79267E-007	0.0009328	7
	15	22	31640.63	5151.791	-630.3319	1	5190.209	-6.975583	4.915746E-008	0.0027209	7
	16	23	25171.88	5208.11	-653.9849	1	5249.01	-7.157197	3.535974E-007	0.0023136	7
	17	25	20015.62	5264.941	-688.2583	1	5309.736	-7.447746	-1.061044E-006	0.0033271	7
	18	26	15890.62	5332.729	-744.3882	1	5384.433	-7.94649	-2.989134E-007	0.0030937	7
	19	27	12609.37	5406.94	-809.2239	1	5467.161	-8.511932	-1.061844E-006	0.0033184	7
	20	29	10078.13	5484.688	-894.7084	1	5557.185	-9.264962	9.566296E-007	0.0001466	7
	21	30	8015.625	5561.42	-993.178	1	5649.407	-10.12534	7.685742E-007	5.587261E-005	7
	22	31	6328.125	5653.15	-1123.371	1	5763.685	-11.23917	-9.974461E-007	0.0022377	7
	23	33	5015.625	5753.604	-1279.779	1	5894.216	-12.5402	-2.794076E-007	0.0009296	7
	24	34	3984.375	5835.088	-1453.761	1	6013.458	-13.98993	-6.133797E-007	0.0033129	7
	25	36	3170.956	5970.138	-1690.777	1	6204.939	-15.81242	4.875282E-007	0.0001506	7
	26	37	2527.573	6090.753	-1957.708	1	6397.647	-17.81859	4.853238E-008	0.0027181	7
	27	39	1976.103	6239.855	-2318.485	1	6656.663	-20.38309	5.725929E-007	0.0020098	7
	28	40	1577.524	6385.07	-2705.415	1	6934.579	-22.96283	9.734537E-007	0.001109	7
	29	41	1265.625	6547.744	-3203.502	1	7289.401	-26.07032	1.266725E-007	0.0004315	7
	30	43	998.264	6744.563	-3827.179	1	7754.768	-29.5726	-1.178507E-006	0.0031478	7
	31	44	796.875	6965.741	-4561.014	1	8326.127	-33.21589	-1.164892E-006	0.0027924	7
	32	46	627.7902	7218.557	-5511.384	1	9082.011	-37.36181	7.696614E-007	5.276243E-005	7
	33	47	505.5147	7512.846	-6551.945	1	9968.49	-41.09165	-1.170428E-006	0.0027873	7
	34	48	397.9953	7859.562	-7958.193	1	11185.06	-45.35726	4.234761E-009	0.0017938	7
	35	50	315.5048	8265.22	-9637.86	1	12696.54	-49.38433	5.067272E-010	0.0017323	6
	36	51	252.4038	8715.327	-11618.45	1	14523.95	-53.12539	6.632974E-010	0.0017293	6
	37	53	198.6229	9289.932	-14232.91	1	16996.43	-56.8672	7.693642E-010	0.001731	6
	38	54	158.3615	9953.93	-17282.7	1	19944.23	-60.06031	9.687637E-010	0.0017219	6
	39	55	125.558	10787.52	-21129.17	1	23723.67	-62.95337	6.769265E-010	0.0017278	6
	40	57	100.4464	11777.73	-25647.85	1	28222.81	-65.33498	-2.276346E-010	0.0017383	6
	41	58	79.00281	13126.09	-31665.54	1	34278.28	-67.48487	7.407929E-010	0.0017274	6
	42	59	63.3446	15077.6	-38630.27	1	41468.45	-68.67903	3.663743E-010	0.0017256	6
	43	61	49.86702	16937.78	-47379.55	1	50316.1	-70.32847	-3.47233E-010	0.0017246	6
	44	62	39.72458	20078.11	-57534.23	1	60937	-70.7622	2.934746E-010	0.0017402	6
	45	64	31.6723	24054.93	-69900.81	1	73924.04	-71.01015	5.664349E-010	0.0017269	6
	46	65	24.93351	29328.88	-85553.25	1	90440.82	-71.07755	7.40464E-010	0.00173	6
	47	66	19.86229	35958.53	-103152.1	1	109240	-70.78159	3.126507E-010	0.0017456	5
	48	68	15.83615	44885.09	-124282.2	1	132139.1	-70.14259	9.927122E-010	0.0017378	5
	49	69	12.40079	57504.03	-151262.7	1	161824.3	-69.1852	1.421241E-009	0.001739	5
	50	71	9.93114	71420.74	-179124.7	1	192838.3	-68.26181	1.22074E-009	0.0017311	5
	51	72	7.944915	89841.13	-211087	1	229410.5	-66.94482	2.993926E-010	0.0017312	5
	52	74	6.317385	112942.8	-249031.9	1	273446.5	-65.60441	4.62305E-010	0.0017518	5
	53	76	5.008013	142605.3	-291856.3	1	324832.9	-63.95918	5.711926E-010	0.0017453	5
	54	78	3.945707	180322.8	-341010.7	1	385752	-62.1306	3.855169E-010	0.0017276	5
	55	81	3.158693	222879.3	-390329.2	1	449479.8	-60.27348	1.09203E-010	0.0017327	5
	56	84	2.504006	273933.6	-445767.5	1	523209.6	-58.42839	5.465555E-010	0.0017326	5
	57	87	1.998082	331185.2	-501882.3	1	601306.5	-56.57973	2.962367E-011	0.0017794	5
	58	90	1.584686	394692.3	-564095.6	1	688466.4	-55.01988	3.034386E-010	0.0017297	5
	59	94	1.266892	464950.5	-629253.7	1	782393.2	-53.5396	1.727321E-010	0.0017737	5
	60	98	0.999041	543784.3	-703674.7	1	889302.8	-52.30394	-3.303198E-011	0.0016944	5
