EXPLAIN
TAG	EISPOT
TITLE	LABEL	Potentiostatic EIS	Test &Identifier
DATE	LABEL	10/10/2019	Date
TIME	LABEL	10:22:35	Time
NOTES	NOTES	1	&Notes...
	
PSTAT	PSTAT	REF600-11020	Potentiostat
VDC	POTEN	0.00000E+000	T	DC &Voltage (V)
FREQINIT	QUANT	1.00000E+006	Initial Fre&q. (Hz)
FREQFINAL	QUANT	1.00000E+000	Final Fre&q. (Hz)
PTSPERDEC	QUANT	1.00000E+001	Points/&decade
VAC	QUANT	2.50000E+001	AC &Voltage (mV rms)
AREA	QUANT	1.00000E-002	&Area (cm^2)
CONDIT	TWOPARAM	T	5.00000E+000	0.00000E+000	Conditionin&g	Time(s)	E(V)
DELAY	TWOPARAM	T	5.00000E+000	0.00000E+000	Init. De&lay	Time(s)	Stab.(mV/s)
SPEED	SELECTOR	1	&Optimize for:
ZGUESS	QUANT	1.00000E+004	E&stimated Z (ohms)
OCVCURVE	TABLE	19
	Pt	T	Vf	Vm	Ach	Over
	#	s	V vs. Ref.	V	V	bits
	0	0.258333	7.32729E-003	7.32729E-003	5.57032E-004	...........
	1	0.516667	7.32306E-003	7.10562E-003	5.61299E-004	...........
	2	0.775	7.29682E-003	6.88301E-003	5.67599E-004	...........
	3	1.03333	7.22248E-003	6.70578E-003	5.64366E-004	...........
	4	1.29167	7.09141E-003	6.55822E-003	5.66132E-004	...........
	5	1.55	6.92441E-003	6.45948E-003	5.61799E-004	...........
	6	1.80833	6.75374E-003	6.33854E-003	5.60332E-004	...........
	7	2.06667	6.60045E-003	6.22993E-003	5.62966E-004	...........
	8	2.325	6.46691E-003	6.07231E-003	5.54766E-004	...........
	9	2.58333	6.34565E-003	6.07394E-003	5.63732E-004	...........
	10	2.84167	6.23443E-003	5.97449E-003	5.61066E-004	...........
	11	3.1	6.13495E-003	5.75110E-003	5.57999E-004	...........
	12	3.35833	6.03585E-003	5.58292E-003	5.62566E-004	...........
	13	3.61667	5.91781E-003	5.48828E-003	5.68032E-004	...........
	14	3.875	5.77690E-003	5.26692E-003	5.57632E-004	...........
	15	4.13333	5.61932E-003	4.93154E-003	5.66966E-004	...........
	16	4.39167	5.43638E-003	4.56893E-003	5.63932E-004	...........
	17	4.65	5.21481E-003	4.61539E-003	5.60866E-004	...........
	18	4.90833	4.98128E-003	4.81749E-003	5.59132E-004	...........
EOC	QUANT	0.0049813	Open Circuit (V)
PSTATMODEL	IQUANT	4	Pstat Model
PSTATSECTION	LABEL	REF600-11020	Pstat Section
PSTATSERIALNO	LABEL	11020	Pstat Serial Number
CTRLMODE	IQUANT	1	Control Mode
IESTAB	IQUANT	0	I/E Stability
CASPEED	IQUANT	1	Control Amp Speed
CONVENTION	IQUANT	1	Current Convention
ICHRANGE	IQUANT	2	Ich Range
ICHRANGEMODE	TOGGLE	F	Ich Auto Range
ICHOFFSETENABLE	TOGGLE	T	Ich Offset Enable
ICHOFFSET	QUANT	0	Ich Offset (V)
ICHFILTER	IQUANT	3	Ich Filter
VCHRANGE	IQUANT	2	Vch Range
VCHRANGEMODE	TOGGLE	F	Vch Auto Range
VCHOFFSETENABLE	TOGGLE	T	Vch Offset Enable
VCHOFFSET	QUANT	0	Vch Offset (V)
VCHFILTER	IQUANT	3	Vch Filter
ACHRANGE	IQUANT	2	Ach Range
ACHOFFSETENABLE	TOGGLE	F	Ach Offset Enable
ACHOFFSET	QUANT	0	Ach Offset (V)
ACHFILTER	IQUANT	3	Ach Filter
IERANGELOWERLIMIT	IQUANT	1	I/E Range Lower Limit
IERANGEMODE	TOGGLE	F	I/E AutoRange
IERANGE	IQUANT	5	I/E Range
POSFEEDENABLE	TOGGLE	F	Positive Feedback IR Comp
POSFEEDRESISTANCE	QUANT	0	Positive Feedback Resistance (ohm)
ACHSELECT	IQUANT	0	Ach Select
CABLEID	IQUANT	14	Cable ID
DCCALDATE	LABEL	8/19/2019	DC Calibration Date
ACCALDATE	LABEL	8/19/2019	AC Calibration Date
THERMOSELECT	IQUANT	1	Thermo Select
FRAMEWORKVERSION	QUANT	6.33	Framework Version
INSTRUMENTVERSION	LABEL	3.50	Instrument Version
ZCURVE	TABLE
	Pt	Time	Freq	Zreal	Zimag	Zsig	Zmod	Zphz	Idc	Vdc	IERange
	#	s	Hz	ohm	ohm	V	ohm	°	A	V	#
	0	2	1000078	2814.678	-2216.78	1	3582.81	-38.22321	-3.583445E-006	0.0077822	8
	1	4	794390.6	3255.833	-2213.699	1	3937.12	-34.21249	3.520947E-006	0.0063135	8
	2	5	630984.4	3682.22	-2121.032	1	4249.415	-29.9428	-1.222495E-006	0.0068158	8
	3	7	501234.4	4063.717	-1965.383	1	4514.037	-25.81035	2.027027E-006	0.0065436	8
	4	8	398109.4	4379.969	-1791.723	1	4732.272	-22.2481	-3.96154E-007	0.0067732	8
	5	10	316265.6	4670.853	-1618.348	1	4943.27	-19.11008	4.41441E-006	0.0057609	8
	6	12	251203.1	4857.418	-1441.397	1	5066.768	-16.52781	-3.124065E-006	0.0071954	8
	7	13	199546.9	5040.607	-1305.333	1	5206.882	-14.51857	-1.212611E-007	0.0067097	8
	8	15	158578.1	5141.072	-1163.719	1	5271.135	-12.75438	-3.145482E-006	0.0070568	8
	9	16	125953.1	5318.867	-978.345	1	5408.096	-10.42241	-8.189548E-007	0.0086405	7
	10	18	100078.1	5385.555	-930.9636	1	5465.428	-9.8074	-9.889644E-009	0.00658	7
	11	19	79453.13	5470.807	-890.53	1	5542.813	-9.245435	-4.980446E-008	0.0065714	7
	12	20	63140.62	5549.226	-872.0645	1	5617.331	-8.931026	-2.009259E-008	0.006606	7
	13	22	50203.12	5632.569	-877.3324	1	5700.486	-8.853286	1.505135E-007	0.0063101	7
	14	23	39890.62	5710.278	-896.3995	1	5780.208	-8.921484	-1.83861E-008	0.0065057	7
	15	24	31640.63	5799.49	-940.771	1	5875.299	-9.214041	-4.731037E-008	0.006635	7
	16	26	25171.88	5890.429	-1002.412	1	5975.113	-9.65787	-4.628835E-008	0.0065662	7
	17	27	20015.62	5989.432	-1074.901	1	6085.122	-10.17435	4.429118E-008	0.0063945	7
	18	29	15890.62	6103.28	-1188.296	1	6217.884	-11.01754	-4.356568E-009	0.0065564	7
	19	30	12609.37	6230.718	-1316.351	1	6368.251	-11.92935	-1.413728E-008	0.0064943	7
	20	31	10078.13	6368.88	-1457.766	1	6533.583	-12.89229	-4.616725E-008	0.0065706	7
	21	33	8015.625	6519.614	-1611.821	1	6715.901	-13.88658	1.52858E-007	0.0063045	7
	22	34	6328.125	6698.66	-1853.307	1	6950.309	-15.46508	-1.431948E-008	0.006506	7
	23	35	5015.625	6898.588	-2097.898	1	7210.526	-16.9148	-2.242184E-008	0.0065165	7
	24	37	3984.375	7118.404	-2393.325	1	7509.973	-18.5835	-5.930029E-008	0.0067257	7
	25	38	3170.956	7367.514	-2709.953	1	7850.103	-20.19477	-3.708633E-008	0.0065492	7
	26	40	2527.573	7658.82	-3085.195	1	8256.873	-21.94101	-1.829189E-008	0.0065991	7
	27	41	1976.103	7998.309	-3560.651	1	8755.066	-23.99746	-5.966864E-008	0.0067284	7
	28	42	1577.524	8331.198	-4002.668	1	9242.847	-25.66164	-8.704735E-008	0.0066828	7
	29	44	1265.625	8772.068	-4603.252	1	9906.52	-27.6888	-8.920734E-009	0.0065634	6
	30	45	998.264	9250.841	-5293.354	1	10658.22	-29.7783	2.103034E-008	0.0061193	6
	31	46	796.875	9755.69	-6043.278	1	11475.83	-31.77663	-1.213616E-008	0.0065692	6
	32	48	627.7902	10325.99	-6964.361	1	12455.06	-33.99768	6.954399E-009	0.0063221	6
	33	49	505.5147	10886.89	-7938.234	1	13473.68	-36.09785	2.020431E-008	0.0062319	6
	34	51	397.9953	11523.44	-9223.628	1	14760.25	-38.67459	4.048614E-010	0.0064952	6
	35	52	315.5048	12158.87	-10742.28	1	16224.51	-41.46037	1.469683E-009	0.0064941	6
	36	53	252.4038	12779.86	-12529.12	1	17897.03	-44.43237	7.853804E-010	0.0064919	6
	37	55	198.6229	13472.1	-14934.2	1	20112.88	-47.94645	7.121145E-010	0.0064922	6
	38	56	158.3615	14176.56	-17786.2	1	22744.75	-51.44327	1.083758E-010	0.0064914	6
	39	57	125.558	14994.39	-21431.18	1	26155.82	-55.02132	9.658375E-010	0.0064932	6
	40	59	100.4464	15861.69	-25783.02	1	30271.39	-58.40022	3.637406E-010	0.0064865	6
	41	60	79.00281	17196.21	-31667.24	1	36035.04	-61.49678	6.577145E-010	0.0064873	6
	42	62	63.3446	18454.22	-38800.49	1	42965.52	-64.56339	1.042087E-009	0.0064812	6
	43	63	49.86702	20143.16	-46991.33	1	51126.63	-66.79727	9.841864E-010	0.0064894	6
	44	64	39.72458	22694.25	-57612.73	1	61921.37	-68.50001	5.521003E-010	0.0064917	6
	45	66	31.6723	26008.37	-70525.47	1	75168.33	-69.75704	-3.255804E-011	0.0064901	6
	46	67	24.93351	29999.19	-86669.52	1	91714.55	-70.90757	3.571336E-010	0.0064911	6
	47	69	19.86229	35272.85	-105544.3	1	111282.4	-71.5204	-1.325223E-010	0.006496	5
	48	70	15.83615	41009.45	-129321.6	1	135668.1	-72.40554	2.18846E-009	0.0064951	5
	49	71	12.40079	52592.72	-158565.9	1	167060.3	-71.65049	-8.733504E-010	0.0064971	5
	50	73	9.93114	64569.86	-189768.1	1	200452.5	-71.20879	5.599469E-010	0.0064952	5
	51	74	7.944915	79426.8	-226643.5	1	240158	-70.68708	-5.471083E-010	0.0064937	5
	52	76	6.317385	101197.1	-273320.5	1	291453.2	-69.6829	3.137169E-010	0.0064845	5
	53	78	5.008013	128515.4	-326879.5	1	351235.6	-68.53731	1.53949E-010	0.0065024	5
	54	81	3.945707	164126.4	-389818.8	1	422961.2	-67.16732	-2.918278E-011	0.0064872	5
	55	83	3.158693	206006	-456359.9	1	500702.4	-65.70504	3.376067E-010	0.0065026	5
	56	87	2.504006	258933.7	-533624.4	1	593128.8	-64.11568	-1.491533E-010	0.0064998	5
	57	89	1.998082	319614	-614945	1	693044.3	-62.53711	9.27074E-011	0.0064596	5
	58	92	1.584686	391897.2	-706292.8	1	807733.2	-60.97563	4.167528E-011	0.0065237	5
	59	96	1.266892	474836.1	-806495.8	1	935897.9	-59.51193	2.42045E-010	0.0064616	5
	60	100	0.999041	565874.4	-925301	1	1084618	-58.55183	1.95902E-010	0.0065333	4
