EXPLAIN
TAG	EISPOT
TITLE	LABEL	Potentiostatic EIS	Test &Identifier
DATE	LABEL	10/8/2019	Date
TIME	LABEL	9:19:27	Time
NOTES	NOTES	2	&Notes...
	
	
PSTAT	PSTAT	REF600-11020	Potentiostat
VDC	POTEN	0.00000E+000	T	DC &Voltage (V)
FREQINIT	QUANT	1.00000E+006	Initial Fre&q. (Hz)
FREQFINAL	QUANT	1.00000E+000	Final Fre&q. (Hz)
PTSPERDEC	QUANT	1.00000E+001	Points/&decade
VAC	QUANT	2.50000E+001	AC &Voltage (mV rms)
AREA	QUANT	1.00000E-002	&Area (cm^2)
CONDIT	TWOPARAM	T	5.00000E+000	0.00000E+000	Conditionin&g	Time(s)	E(V)
DELAY	TWOPARAM	T	5.00000E+000	0.00000E+000	Init. De&lay	Time(s)	Stab.(mV/s)
SPEED	SELECTOR	1	&Optimize for:
ZGUESS	QUANT	1.00000E+004	E&stimated Z (ohms)
OCVCURVE	TABLE	19
	Pt	T	Vf	Vm	Ach	Over
	#	s	V vs. Ref.	V	V	bits
	0	0.258333	7.68237E-003	7.68237E-003	5.32300E-004	...........
	1	0.516667	7.68335E-003	7.73380E-003	5.32500E-004	...........
	2	0.775	7.68951E-003	7.78918E-003	5.32466E-004	...........
	3	1.03333	7.70725E-003	7.83679E-003	5.34333E-004	...........
	4	1.29167	7.73966E-003	7.89873E-003	5.35766E-004	...........
	5	1.55	7.78430E-003	7.95737E-003	5.31566E-004	...........
	6	1.80833	7.83695E-003	8.02535E-003	5.40066E-004	...........
	7	2.06667	7.89472E-003	8.09057E-003	5.30333E-004	...........
	8	2.325	7.95618E-003	8.15965E-003	5.42299E-004	...........
	9	2.58333	8.02036E-003	8.22394E-003	5.42799E-004	...........
	10	2.84167	8.08596E-003	8.27750E-003	5.40999E-004	...........
	11	3.1	8.15108E-003	8.34137E-003	5.36666E-004	...........
	12	3.35833	8.21421E-003	8.39691E-003	5.38433E-004	...........
	13	3.61667	8.27543E-003	8.46966E-003	5.42766E-004	...........
	14	3.875	8.33631E-003	8.53197E-003	5.39166E-004	...........
	15	4.13333	8.39841E-003	8.59386E-003	5.36199E-004	...........
	16	4.39167	8.46124E-003	8.62571E-003	5.31300E-004	...........
	17	4.65	8.52202E-003	8.69363E-003	5.43399E-004	...........
	18	4.90833	8.57900E-003	8.75285E-003	5.35533E-004	...........
EOC	QUANT	0.008579	Open Circuit (V)
PSTATMODEL	IQUANT	4	Pstat Model
PSTATSECTION	LABEL	REF600-11020	Pstat Section
PSTATSERIALNO	LABEL	11020	Pstat Serial Number
CTRLMODE	IQUANT	1	Control Mode
IESTAB	IQUANT	0	I/E Stability
CASPEED	IQUANT	1	Control Amp Speed
CONVENTION	IQUANT	1	Current Convention
ICHRANGE	IQUANT	2	Ich Range
ICHRANGEMODE	TOGGLE	F	Ich Auto Range
ICHOFFSETENABLE	TOGGLE	T	Ich Offset Enable
ICHOFFSET	QUANT	0	Ich Offset (V)
ICHFILTER	IQUANT	3	Ich Filter
VCHRANGE	IQUANT	2	Vch Range
VCHRANGEMODE	TOGGLE	F	Vch Auto Range
VCHOFFSETENABLE	TOGGLE	T	Vch Offset Enable
VCHOFFSET	QUANT	0	Vch Offset (V)
VCHFILTER	IQUANT	3	Vch Filter
ACHRANGE	IQUANT	2	Ach Range
ACHOFFSETENABLE	TOGGLE	F	Ach Offset Enable
ACHOFFSET	QUANT	0	Ach Offset (V)
ACHFILTER	IQUANT	3	Ach Filter
IERANGELOWERLIMIT	IQUANT	1	I/E Range Lower Limit
IERANGEMODE	TOGGLE	F	I/E AutoRange
IERANGE	IQUANT	6	I/E Range
POSFEEDENABLE	TOGGLE	F	Positive Feedback IR Comp
POSFEEDRESISTANCE	QUANT	0	Positive Feedback Resistance (ohm)
ACHSELECT	IQUANT	0	Ach Select
CABLEID	IQUANT	14	Cable ID
DCCALDATE	LABEL	8/19/2019	DC Calibration Date
ACCALDATE	LABEL	8/19/2019	AC Calibration Date
THERMOSELECT	IQUANT	1	Thermo Select
FRAMEWORKVERSION	QUANT	6.33	Framework Version
INSTRUMENTVERSION	LABEL	3.50	Instrument Version
ZCURVE	TABLE
	Pt	Time	Freq	Zreal	Zimag	Zsig	Zmod	Zphz	Idc	Vdc	IERange
	#	s	Hz	ohm	ohm	V	ohm	°	A	V	#
	0	1	1000078	2562.257	-1940.265	1	3213.999	-37.13476	-1.088583E-006	0.0112006	8
	1	3	794390.6	2936.079	-1932.745	1	3515.119	-33.35587	5.48232E-007	0.0105163	8
	2	4	630984.4	3319.072	-1880.362	1	3814.708	-29.53297	-3.909455E-006	0.0111361	8
	3	5	501234.4	3650.099	-1756.097	1	4050.568	-25.69265	3.765737E-006	0.0094858	8
	4	7	398109.4	3954.547	-1601.978	1	4266.706	-22.05275	1.083028E-006	0.0096251	8
	5	8	316265.6	4182.335	-1419.891	1	4416.788	-18.75221	1.339176E-006	0.0096014	8
	6	10	251203.1	4395.39	-1298.194	1	4583.095	-16.45469	3.286108E-006	0.0093956	8
	7	12	199546.9	4548.692	-1136.68	1	4688.565	-14.03039	1.186041E-006	0.0096199	8
	8	13	158578.1	4676.304	-982.456	1	4778.393	-11.86485	-8.253672E-007	0.010378	8
	9	15	125953.1	4799.424	-826.0258	1	4869.989	-9.76547	-8.143801E-007	0.0110108	7
	10	16	100078.1	4862.919	-719.8303	1	4915.906	-8.420027	-8.139374E-009	0.0101809	7
	11	17	79453.13	4922.114	-657.6964	1	4965.861	-7.61082	-2.72592E-008	0.0101056	7
	12	19	63140.62	4979.939	-611.8738	1	5017.388	-7.004694	-3.275525E-008	0.0100201	7
	13	20	50203.12	5028.735	-582.7153	1	5062.384	-6.60979	-8.99943E-008	0.0101731	7
	14	22	39890.62	5073.802	-569.599	1	5105.674	-6.405364	6.675832E-008	0.0099178	7
	15	23	31640.63	5124.118	-571.2793	1	5155.865	-6.36154	-2.398531E-008	0.0099955	7
	16	24	25171.88	5171.307	-587.3068	1	5204.551	-6.479335	-5.952454E-008	0.0100728	7
	17	26	20015.62	5219.553	-612.9252	1	5255.417	-6.697495	-3.077374E-008	0.0100204	7
	18	27	15890.62	5271.722	-666.2444	1	5313.656	-7.2029	9.005835E-008	0.0098341	7
	19	28	12609.37	5325.815	-729.6232	1	5375.562	-7.800815	-2.672007E-008	0.0100964	7
	20	30	10078.13	5384.7	-811.9435	1	5445.571	-8.574868	1.510448E-007	0.009797	7
	21	31	8015.625	5442.583	-900.1804	1	5516.524	-9.39146	1.066153E-007	0.0099404	7
	22	32	6328.125	5513.455	-1052.873	1	5613.085	-10.81129	4.553354E-008	0.0098736	7
	23	34	5015.625	5588.349	-1218.458	1	5719.64	-12.3	5.023416E-008	0.0099672	7
	24	35	3984.375	5669.657	-1430.165	1	5847.254	-14.15746	6.824288E-008	0.0099125	7
	25	36	3170.956	5760.73	-1670.468	1	5998.04	-16.17084	1.076436E-007	0.009937	7
	26	38	2527.573	5860.813	-1971.836	1	6183.629	-18.59521	6.9531E-009	0.0099487	7
	27	39	1976.103	5984.471	-2377.801	1	6439.552	-21.66933	-5.216687E-009	0.0101592	7
	28	40	1577.524	6125.344	-2830.138	1	6747.557	-24.79871	5.197237E-008	0.009966	7
	29	42	1265.625	6273.644	-3372.752	1	7122.785	-28.26277	9.371401E-009	0.0099448	7
	30	43	998.264	6470.323	-4087.391	1	7653.225	-32.28116	-1.604952E-008	0.0099855	7
	31	44	796.875	6690.38	-4911.637	1	8299.721	-36.28366	-1.846573E-011	0.0100517	7
	32	46	627.7902	6968.157	-5977.916	1	9180.996	-40.62598	-5.86857E-008	0.0100652	7
	33	47	505.5147	7264.84	-7149.894	1	10193.08	-44.54312	5.587664E-009	0.0097294	6
	34	49	397.9953	7690.442	-8726.129	1	11631.35	-48.60989	9.064514E-010	0.0099813	6
	35	50	315.5048	8171.778	-10602.38	1	13386.13	-52.37677	2.206142E-010	0.0099788	6
	36	51	252.4038	8736.101	-12798.55	1	15495.88	-55.68314	1.129569E-009	0.0099758	6
	37	53	198.6229	9486.598	-15679.37	1	18325.89	-58.82452	5.808569E-010	0.0099757	6
	38	54	158.3615	10380.09	-19016.64	1	21665.15	-61.37241	6.566724E-010	0.0099756	6
	39	55	125.558	11541.39	-23171.95	1	25887.12	-63.52321	8.123469E-010	0.0099752	6
	40	57	100.4464	12969.15	-28025.58	1	30880.94	-65.16713	-2.598619E-012	0.0099774	6
	41	58	79.00281	15059.25	-34429.65	1	37579.01	-66.37582	1.036146E-009	0.0099709	6
	42	59	63.3446	17893.34	-41271.06	1	44983.02	-66.56054	6.045314E-010	0.0099709	6
	43	61	49.86702	21061.03	-50714.12	1	54913.47	-67.44741	1.149375E-010	0.0099676	6
	44	62	39.72458	25657.75	-60615.39	1	65822.08	-67.05766	9.261726E-010	0.0099726	6
	45	64	31.6723	31599.75	-72532.17	1	79116.75	-66.45891	8.004494E-010	0.0099754	6
	46	65	24.93351	39488.28	-86667.43	1	95239.5	-65.50457	6.805195E-010	0.0099755	6
	47	66	19.86229	49138.46	-101902.4	1	113131.3	-64.25612	4.353891E-010	0.0099875	5
	48	68	15.83615	60744.92	-119633.6	1	134172	-63.08044	8.70832E-010	0.0099813	5
	49	69	12.40079	76485.71	-138499	1	158215.1	-61.09044	2.175769E-010	0.0099762	5
	50	71	9.93114	93875.02	-158168.9	1	183929.1	-59.31039	2.441008E-010	0.0099805	5
	51	72	7.944915	113001.2	-178519.9	1	211278.6	-57.66661	1.041758E-009	0.0099801	5
	52	74	6.317385	135027.4	-202132.2	1	243084	-56.25646	-1.24145E-010	0.0099955	5
	53	76	5.008013	158916	-227672	1	277648.8	-55.08479	-1.222502E-010	0.0099731	5
	54	78	3.945707	185129.7	-256922.4	1	316673.5	-54.22474	3.040084E-010	0.0099767	5
	55	81	3.158693	210862	-288852.7	1	357629.2	-53.87061	-4.670711E-011	0.0099604	5
	56	84	2.504006	239495.8	-328136.8	1	406241.4	-53.87557	-3.399684E-011	0.0099898	5
	57	87	1.998082	269078.4	-373253.5	1	460131.9	-54.21217	2.09022E-010	0.0099404	5
	58	90	1.584686	302103.8	-429740.3	1	525303.2	-54.89311	-5.942855E-011	0.0099771	5
	59	94	1.266892	339666.3	-495017.3	1	600346	-55.54324	2.215046E-011	0.0099433	5
	60	98	0.999041	383391.2	-577789.9	1	693419.1	-56.43382	6.727104E-011	0.0100175	5
