EXPLAIN
TAG	EISPOT
TITLE	LABEL	Potentiostatic EIS	Test &Identifier
DATE	LABEL	11/5/2019	Date
TIME	LABEL	10:14:42	Time
NOTES	NOTES	2	&Notes...
	
	
PSTAT	PSTAT	REF600-11020	Potentiostat
VDC	POTEN	0.00000E+000	T	DC &Voltage (V)
FREQINIT	QUANT	1.00000E+006	Initial Fre&q. (Hz)
FREQFINAL	QUANT	1.00000E+000	Final Fre&q. (Hz)
PTSPERDEC	QUANT	1.00000E+001	Points/&decade
VAC	QUANT	2.50000E+001	AC &Voltage (mV rms)
AREA	QUANT	1.00000E-002	&Area (cm^2)
CONDIT	TWOPARAM	T	5.00000E+000	0.00000E+000	Conditionin&g	Time(s)	E(V)
DELAY	TWOPARAM	T	5.00000E+000	0.00000E+000	Init. De&lay	Time(s)	Stab.(mV/s)
SPEED	SELECTOR	1	&Optimize for:
ZGUESS	QUANT	1.00000E+005	E&stimated Z (ohms)
OCVCURVE	TABLE	19
	Pt	T	Vf	Vm	Ach	Over
	#	s	V vs. Ref.	V	V	bits
	0	0.258333	-9.46900E-003	-9.46900E-003	5.58466E-004	...........
	1	0.516667	-9.52183E-003	-1.22348E-002	5.60899E-004	...........
	2	0.775	-9.79397E-003	-1.21176E-002	5.62199E-004	...........
	3	1.03333	-1.04277E-002	-1.39834E-002	5.58999E-004	...........
	4	1.29167	-1.13331E-002	-1.28113E-002	5.61799E-004	...........
	5	1.55	-1.22048E-002	-1.23374E-002	5.63132E-004	...........
	6	1.80833	-1.27443E-002	-1.31481E-002	5.59366E-004	...........
	7	2.06667	-1.29718E-002	-1.59482E-002	5.56566E-004	...........
	8	2.325	-1.32184E-002	-1.30625E-002	5.61766E-004	...........
	9	2.58333	-1.37247E-002	-1.99161E-002	5.64966E-004	...........
	10	2.84167	-1.44657E-002	-1.19454E-002	5.59766E-004	...........
	11	3.1	-1.51495E-002	-1.62718E-002	5.59566E-004	...........
	12	3.35833	-1.54026E-002	-1.37660E-002	5.59666E-004	...........
	13	3.61667	-1.51483E-002	-1.08473E-002	5.62232E-004	...........
	14	3.875	-1.41925E-002	2.78148E-003	5.65499E-004	...........
	15	4.13333	-1.20992E-002	-1.47786E-002	5.60432E-004	...........
	16	4.39167	-9.68928E-003	-1.49749E-002	5.64466E-004	...........
	17	4.65	-8.92069E-003	-1.34250E-002	5.74066E-004	...........
	18	4.90833	-1.02414E-002	-1.48327E-002	5.64932E-004	...........
EOC	QUANT	-0.0102414	Open Circuit (V)
PSTATMODEL	IQUANT	4	Pstat Model
PSTATSECTION	LABEL	REF600-11020	Pstat Section
PSTATSERIALNO	LABEL	11020	Pstat Serial Number
CTRLMODE	IQUANT	1	Control Mode
IESTAB	IQUANT	0	I/E Stability
CASPEED	IQUANT	1	Control Amp Speed
CONVENTION	IQUANT	1	Current Convention
ICHRANGE	IQUANT	2	Ich Range
ICHRANGEMODE	TOGGLE	F	Ich Auto Range
ICHOFFSETENABLE	TOGGLE	T	Ich Offset Enable
ICHOFFSET	QUANT	0	Ich Offset (V)
ICHFILTER	IQUANT	3	Ich Filter
VCHRANGE	IQUANT	2	Vch Range
VCHRANGEMODE	TOGGLE	F	Vch Auto Range
VCHOFFSETENABLE	TOGGLE	T	Vch Offset Enable
VCHOFFSET	QUANT	0	Vch Offset (V)
VCHFILTER	IQUANT	3	Vch Filter
ACHRANGE	IQUANT	2	Ach Range
ACHOFFSETENABLE	TOGGLE	F	Ach Offset Enable
ACHOFFSET	QUANT	0	Ach Offset (V)
ACHFILTER	IQUANT	3	Ach Filter
IERANGELOWERLIMIT	IQUANT	1	I/E Range Lower Limit
IERANGEMODE	TOGGLE	F	I/E AutoRange
IERANGE	IQUANT	5	I/E Range
POSFEEDENABLE	TOGGLE	F	Positive Feedback IR Comp
POSFEEDRESISTANCE	QUANT	0	Positive Feedback Resistance (ohm)
ACHSELECT	IQUANT	0	Ach Select
CABLEID	IQUANT	14	Cable ID
DCCALDATE	LABEL	8/19/2019	DC Calibration Date
ACCALDATE	LABEL	8/19/2019	AC Calibration Date
THERMOSELECT	IQUANT	1	Thermo Select
FRAMEWORKVERSION	QUANT	6.33	Framework Version
INSTRUMENTVERSION	LABEL	3.50	Instrument Version
ZCURVE	TABLE
	Pt	Time	Freq	Zreal	Zimag	Zsig	Zmod	Zphz	Idc	Vdc	IERange
	#	s	Hz	ohm	ohm	V	ohm	°	A	V	#
	0	2	1000078	724.9687	-8590.433	1	8620.97	-85.17609	2.761478E-007	-0.0085464	8
	1	4	794390.6	894.7686	-10668.9	1	10706.35	-85.20599	5.102985E-006	-0.0082857	8
	2	6	630984.4	1074.901	-13389.79	1	13432.86	-85.41027	4.607497E-006	-0.0084804	8
	3	8	501234.4	1386.807	-16708.09	1	16765.54	-85.2552	-1.509847E-006	-0.0089021	8
	4	10	398109.4	1596.679	-20870.68	1	20931.67	-85.6252	-1.592109E-006	-0.008207	8
	5	12	316265.6	1319.861	-26275.65	1	26308.78	-87.12437	-3.299841E-006	-0.0080892	8
	6	14	251203.1	2068.48	-32408.11	1	32474.05	-86.34799	-3.149393E-006	-0.0081183	8
	7	16	199546.9	1748.432	-40305.8	1	40343.71	-87.51611	-2.543937E-006	-0.0088778	8
	8	17	158578.1	3244.23	-48845.96	1	48953.58	-86.20013	2.940211E-006	-0.0094018	8
	9	19	125953.1	3763.536	-62024.09	1	62138.16	-86.52763	-3.852734E-006	-0.0059775	7
	10	21	100078.1	4507.477	-79387.26	1	79515.12	-86.75033	-9.143791E-007	-0.0093082	7
	11	23	79453.13	6020.633	-99015	1	99197.9	-86.5204	3.760422E-007	-0.0077274	7
	12	24	63140.62	7680.187	-124262.3	1	124499.5	-86.46326	-1.409773E-006	-0.0063754	7
	13	26	50203.12	8855.934	-154274.5	1	154528.5	-86.71461	-8.349004E-008	-0.0071802	7
	14	28	39890.62	11025.38	-194163.6	1	194476.4	-86.75001	-1.413286E-006	-0.0083256	7
	15	29	31640.63	13359.33	-239187.3	1	239560.1	-86.80318	-1.406799E-006	-0.0063832	7
	16	31	25171.88	18281.04	-298403.3	1	298962.7	-86.49428	3.791539E-007	-0.0077393	7
	17	33	20015.62	32736.24	-404217.5	1	405540.9	-85.36991	-1.70999E-006	-0.007473	7
	18	35	15890.62	15995.2	-482851.6	1	483116.4	-88.10268	1.298178E-006	-0.011459	7
	19	37	12609.37	40271.67	-587602.6	1	588981	-86.07933	3.285082E-007	-0.0120652	6
	20	39	10078.13	55617.49	-756636.1	1	758677.4	-85.79596	2.643078E-007	-0.0096366	6
	21	40	8015.625	62540.83	-915693.9	1	917827.1	-86.09283	1.554991E-007	-0.0136818	6
	22	42	6328.125	92283.53	-1134842	1	1138588	-85.35103	3.279887E-007	-0.0120713	6
	23	44	5015.625	88855.03	-1434961	1	1437710	-86.45668	-3.190704E-007	-0.0033411	6
	24	46	3984.375	141021	-1713550	1	1719343	-85.2953	2.635212E-007	-0.0096392	6
	25	48	3170.956	153207.4	-2218428	1	2223712	-86.04935	8.53417E-008	-0.0065219	6
	26	49	2527.573	182030	-2736857	1	2742903	-86.19482	-1.566873E-007	-0.0103432	6
	27	51	1976.103	94725.76	-3522632	1	3523906	-88.45966	-5.021064E-008	-0.0119179	6
	28	53	1577.524	150198.6	-3136596	1	3140191	-87.25844	-3.683623E-007	-0.0038545	6
	29	55	1265.625	523436.7	-5412237	1	5437490	-84.4759	-1.118228E-008	-0.0110918	5
	30	57	998.264	698391.3	-6597409	1	6634272	-83.95727	3.27898E-008	-0.0127326	5
	31	58	796.875	1486005	-7718660	1	7860402	-79.10268	-2.14941E-008	-0.0094501	5
	32	60	627.7902	1208773	-1.051578E+007	1	1.058503E+007	-83.44272	-2.969101E-008	-0.0076476	5
	33	61	505.5147	2477614	-1.249832E+007	1	1.274153E+007	-78.7873	1.034889E-008	-0.0133642	5
	34	63	397.9953	2717510	-1.519709E+007	1	1.543815E+007	-79.86165	6.357019E-010	-0.0088269	5
	35	64	315.5048	3597694	-1.924193E+007	1	1.957537E+007	-79.40959	-6.917106E-010	-0.0088338	5
	36	66	252.4038	775251.5	-2.502202E+007	1	2.503403E+007	-88.22539	-3.905462E-010	-0.0088511	5
	37	67	198.6229	5850707	-2.331263E+007	1	2.403559E+007	-75.91161	2.175237E-011	-0.0088489	5
	38	69	158.3615	1.625404E+007	-4.076146E+007	1	4.388269E+007	-68.25986	-4.047343E-010	-0.0088337	5
	39	70	125.558	2.543869E+007	-6.251185E+007	1	6.74897E+007	-67.85654	-1.888756E-010	-0.0088261	4
	40	72	100.4464	7918079	-5.436462E+007	1	5.493822E+007	-81.71327	1.97565E-010	-0.0088369	5
	41	74	79.00281	3.009494E+007	1.889812E+007	1	3.553652E+007	32.12676	-3.336559E-010	-0.0088234	4
	42	75	63.3446	3496112	2916493	1	4552882	39.83522	-2.333831E-010	-0.0088403	4
	43	77	49.86702	3.496978E+007	1.651626E+007	1	3.867392E+007	25.28142	-8.452272E-011	-0.0088403	4
	44	79	39.72458	4.193231E+007	8185952	1	4.272386E+007	11.04625	1.738739E-010	-0.0088446	4
	45	80	31.6723	1.098947E+007	3.468129E+007	1	3.638077E+007	72.41814	4.437487E-010	-0.0088471	4
	46	82	24.93351	1.065737E+007	-8.419817E+007	1	8.486997E+007	-82.78616	1.678135E-010	-0.0088477	4
	47	84	19.86229	3.432445E+007	-5.47286E+007	1	6.460176E+007	-57.90506	-3.254859E-011	-0.0088297	5
	48	85	15.83615	-1.508603E+007	-5862208	1	1.618499E+007	-158.7646	-1.009769E-009	-0.0088267	5
	49	87	12.40079	1.588274E+007	-1.411832E+007	1	2.125061E+007	-41.6342	7.327145E-010	-0.0088453	4
	50	89	9.93114	3.226209E+007	5.606384E+007	1	6.468382E+007	60.08161	-2.231673E-010	-0.0088312	4
	51	90	7.944915	-2.950882E+007	-2.797179E+007	1	4.065946E+007	-136.5317	-3.677755E-010	-0.0088378	5
	52	92	6.317385	1.756112E+008	-5.589336E+007	1	1.842915E+008	-17.65518	5.092081E-011	-0.0088462	4
	53	95	5.008013	1.852079E+008	-6.73512E+007	1	1.97074E+008	-19.98389	5.034644E-011	-0.00883	4
	54	98	3.945707	1.156736E+008	-3892104	1	1.157391E+008	-1.927121	1.376544E-010	-0.0088371	4
	55	102	3.158693	1.970218E+008	-3.94398E+007	1	2.009305E+008	-11.31984	3.024196E-011	-0.0088326	4
	56	106	2.504006	6.361261E+008	-1.321068E+008	1	6.496989E+008	-11.73208	3.924416E-011	-0.0088532	3
	57	110	1.998082	8.22128E+008	-1.984065E+008	1	8.457302E+008	-13.56792	3.982637E-011	-0.008843	3
	58	115	1.584686	6.471482E+008	-9.485106E+007	1	6.540623E+008	-8.338343	4.601321E-011	-0.0088707	3
	59	121	1.266892	6.595953E+009	-2.149853E+009	1	6.937468E+009	-18.05261	2.886777E-012	-0.0088842	2
	60	129	0.999041	6.765155E+009	-1.885887E+009	1	7.023097E+009	-15.5766	2.960097E-012	-0.0088077	2
