EXPLAIN
TAG	EISPOT
TITLE	LABEL	Potentiostatic IDE	Test &Identifier
DATE	LABEL	9/10/2019	Date
TIME	LABEL	8:22:18	Time
NOTES	NOTES	1	&Notes...
	
PSTAT	PSTAT	REF600-11020	Potentiostat
VDC	POTEN	0.00000E+000	T	DC &Voltage (V)
FREQINIT	QUANT	1.00000E+006	Initial Fre&q. (Hz)
FREQFINAL	QUANT	1.00000E+000	Final Fre&q. (Hz)
PTSPERDEC	QUANT	1.00000E+001	Points/&decade
VAC	QUANT	2.50000E+001	AC &Voltage (mV rms)
AREA	QUANT	1.00000E-002	&Area (cm^2)
CONDIT	TWOPARAM	T	5.00000E+000	0.00000E+000	Conditionin&g	Time(s)	E(V)
DELAY	TWOPARAM	T	5.00000E+000	0.00000E+000	Init. De&lay	Time(s)	Stab.(mV/s)
SPEED	SELECTOR	1	&Optimize for:
ZGUESS	QUANT	1.00000E+007	E&stimated Z (ohms)
OCVCURVE	TABLE	19
	Pt	T	Vf	Vm	Ach	Over
	#	s	V vs. Ref.	V	V	bits
	0	0.258333	7.08279E-003	7.08279E-003	5.52033E-004	...........
	1	0.516667	7.08238E-003	7.06115E-003	5.51133E-004	...........
	2	0.775	7.08005E-003	7.05180E-003	5.47566E-004	...........
	3	1.03333	7.07449E-003	7.05877E-003	5.52432E-004	...........
	4	1.29167	7.06745E-003	7.07710E-003	5.54866E-004	...........
	5	1.55	7.06384E-003	7.10149E-003	5.54133E-004	...........
	6	1.80833	7.06801E-003	7.12766E-003	5.53133E-004	...........
	7	2.06667	7.08119E-003	7.16127E-003	5.58732E-004	...........
	8	2.325	7.10208E-003	7.19296E-003	5.55333E-004	...........
	9	2.58333	7.12862E-003	7.22829E-003	5.59532E-004	...........
	10	2.84167	7.15902E-003	7.26841E-003	5.59899E-004	...........
	11	3.1	7.19222E-003	7.30434E-003	5.58232E-004	...........
	12	3.35833	7.22754E-003	7.34104E-003	5.54633E-004	...........
	13	3.61667	7.26415E-003	7.37865E-003	5.57532E-004	...........
	14	3.875	7.30127E-003	7.41740E-003	5.60099E-004	...........
	15	4.13333	7.33867E-003	7.45655E-003	5.56999E-004	...........
	16	4.39167	7.37640E-003	7.49194E-003	5.55466E-004	...........
	17	4.65	7.41433E-003	7.52948E-003	5.54499E-004	...........
	18	4.90833	7.45205E-003	7.56529E-003	5.55666E-004	...........
EOC	QUANT	0.0074521	Open Circuit (V)
PSTATMODEL	IQUANT	4	Pstat Model
PSTATSECTION	LABEL	REF600-11020	Pstat Section
PSTATSERIALNO	LABEL	11020	Pstat Serial Number
CTRLMODE	IQUANT	1	Control Mode
IESTAB	IQUANT	0	I/E Stability
CASPEED	IQUANT	1	Control Amp Speed
CONVENTION	IQUANT	1	Current Convention
ICHRANGE	IQUANT	2	Ich Range
ICHRANGEMODE	TOGGLE	F	Ich Auto Range
ICHOFFSETENABLE	TOGGLE	T	Ich Offset Enable
ICHOFFSET	QUANT	0	Ich Offset (V)
ICHFILTER	IQUANT	3	Ich Filter
VCHRANGE	IQUANT	2	Vch Range
VCHRANGEMODE	TOGGLE	F	Vch Auto Range
VCHOFFSETENABLE	TOGGLE	T	Vch Offset Enable
VCHOFFSET	QUANT	0	Vch Offset (V)
VCHFILTER	IQUANT	3	Vch Filter
ACHRANGE	IQUANT	2	Ach Range
ACHOFFSETENABLE	TOGGLE	F	Ach Offset Enable
ACHOFFSET	QUANT	0	Ach Offset (V)
ACHFILTER	IQUANT	3	Ach Filter
IERANGELOWERLIMIT	IQUANT	1	I/E Range Lower Limit
IERANGEMODE	TOGGLE	F	I/E AutoRange
IERANGE	IQUANT	3	I/E Range
POSFEEDENABLE	TOGGLE	F	Positive Feedback IR Comp
POSFEEDRESISTANCE	QUANT	0	Positive Feedback Resistance (ohm)
ACHSELECT	IQUANT	0	Ach Select
CABLEID	IQUANT	14	Cable ID
DCCALDATE	LABEL	8/19/2019	DC Calibration Date
ACCALDATE	LABEL	8/19/2019	AC Calibration Date
THERMOSELECT	IQUANT	1	Thermo Select
FRAMEWORKVERSION	QUANT	6.33	Framework Version
INSTRUMENTVERSION	LABEL	3.50	Instrument Version
ZCURVE	TABLE
	Pt	Time	Freq	Zreal	Zimag	Zsig	Zmod	Zphz	Idc	Vdc	IERange
	#	s	Hz	ohm	ohm	V	ohm	°	A	V	#
	0	2	1000078	2413.265	-1339.033	1	2759.865	-29.0243	6.906726E-006	0.0085535	8
	1	3	794390.6	2682.95	-1229.666	1	2951.322	-24.62323	-3.236643E-006	0.0097941	8
	2	4	630984.4	2873.894	-1090.89	1	3073.973	-20.78606	3.696719E-006	0.0087856	8
	3	6	501234.4	3020.24	-955.432	1	3167.759	-17.55441	-8.769265E-007	0.009245	8
	4	7	398109.4	3137.715	-821.0397	1	3243.357	-14.6637	1.861323E-006	0.0088021	8
	5	8	316265.6	3222.248	-724.1876	1	3302.625	-12.66654	-3.600356E-006	0.0098068	8
	6	10	251203.1	3293.374	-605.5084	1	3348.574	-10.41786	-1.071242E-006	0.0093604	8
	7	11	199546.9	3344.631	-540.7578	1	3388.063	-9.184072	-1.409376E-006	0.0094422	8
	8	12	158578.1	3386.383	-474.7272	1	3419.496	-7.980124	1.821324E-006	0.0087749	8
	9	14	125953.1	3434.363	-401.8806	1	3457.796	-6.674257	-5.058351E-007	0.0104741	7
	10	15	100078.1	3462.488	-374.0088	1	3482.629	-6.165035	-1.447775E-008	0.0091344	7
	11	16	79453.13	3492.441	-362.0148	1	3511.153	-5.917954	6.242177E-008	0.0089716	7
	12	18	63140.62	3523.351	-360.206	1	3541.716	-5.837291	3.330845E-008	0.0089934	7
	13	19	50203.12	3554.616	-366.2593	1	3573.436	-5.882862	-4.27113E-008	0.0091509	7
	14	20	39890.62	3587.099	-379.5898	1	3607.128	-6.040605	-5.593717E-009	0.0090897	7
	15	22	31640.63	3623.442	-403.6097	1	3645.852	-6.35589	-5.598965E-008	0.0091701	7
	16	23	25171.88	3660.853	-435.6152	1	3686.679	-6.78588	3.555939E-009	0.0090798	7
	17	24	20015.62	3702.417	-476.7312	1	3732.983	-7.337158	-5.982869E-009	0.009085	7
	18	26	15890.62	3747.524	-528.0491	1	3784.544	-8.020523	-4.147988E-008	0.0091492	7
	19	27	12609.37	3798.652	-594.5671	1	3844.902	-8.89579	1.464808E-008	0.0090312	7
	20	28	10078.13	3851.076	-671.254	1	3909.139	-9.88749	-1.873929E-008	0.0090873	7
	21	29	8015.625	3915.788	-761.2497	1	3989.097	-11.00138	3.332095E-008	0.0090598	7
	22	31	6328.125	3983.567	-879.5209	1	4079.505	-12.45044	3.451016E-008	0.0089875	7
	23	32	5015.625	4057.701	-1013.174	1	4182.279	-14.01961	-4.796671E-008	0.0091736	7
	24	33	3984.375	4142.93	-1177.959	1	4307.14	-15.87204	-4.724318E-008	0.0091721	7
	25	35	3170.956	4231.781	-1367.135	1	4447.137	-17.90376	2.346415E-009	0.0090786	7
	26	36	2527.573	4333.242	-1599.551	1	4619.042	-20.26087	4.351354E-009	0.0090792	7
	27	37	1976.103	4452.983	-1901.003	1	4841.784	-23.1179	4.931997E-008	0.0090023	7
	28	39	1577.524	4573.571	-2239.127	1	5092.273	-26.08543	1.545286E-008	0.009033	7
	29	40	1265.625	4708.497	-2639.673	1	5397.945	-29.27582	-5.603655E-008	0.0091656	7
	30	41	998.264	4869.538	-3164.48	1	5807.438	-33.01791	7.719724E-008	0.0090288	7
	31	43	796.875	5044.489	-3773.181	1	6299.505	-36.79579	-5.645067E-008	0.0091615	7
	32	44	627.7902	5252.754	-4566.66	1	6960.302	-41.00317	-1.018135E-008	0.0091287	7
	33	45	505.5147	5467.429	-5439.138	1	7712.134	-44.85138	-2.90604E-008	0.0090835	7
	34	47	397.9953	5746.614	-6627.332	1	8771.836	-49.07117	4.376136E-009	0.0091117	7
	35	48	315.5048	6065.446	-8046.429	1	10076.44	-52.9908	1.265691E-009	0.0090546	6
	36	50	252.4038	6423.416	-9717.25	1	11648.4	-56.53401	6.605249E-010	0.0090523	6
	37	51	198.6229	6879.137	-11925.06	1	13766.98	-60.02091	7.232653E-010	0.0090543	6
	38	52	158.3615	7394.106	-14500.33	1	16276.74	-62.98174	4.731684E-010	0.0090561	6
	39	54	125.558	8027.74	-17749.12	1	19480.14	-65.66325	7.833719E-010	0.0090547	6
	40	55	100.4464	8784.205	-21569.99	1	23290.06	-67.84178	1.231957E-009	0.0090513	6
	41	56	79.00281	9804.22	-26650.91	1	28397.07	-69.80266	4.055974E-010	0.0090518	6
	42	58	63.3446	10994.36	-32593.62	1	34397.97	-71.35991	6.764128E-010	0.0090509	6
	43	59	49.86702	12592.31	-40000.4	1	41935.64	-72.52576	6.935257E-010	0.0090548	6
	44	60	39.72458	14735.91	-49063.25	1	51228.41	-73.28261	9.572303E-010	0.009058	6
	45	62	31.6723	17516.75	-59867.52	1	62377.53	-73.69096	1.697437E-010	0.0090549	6
	46	63	24.93351	21228.54	-73831.71	1	76822.99	-73.95868	5.120291E-010	0.0090519	6
	47	64	19.86229	26067.28	-89849.66	1	93554.6	-73.82144	7.803903E-010	0.0090511	6
	48	66	15.83615	32331.42	-109167.3	1	113854.4	-73.50261	3.48661E-011	0.0090528	5
	49	67	12.40079	40911.81	-133457.1	1	139587.1	-72.95687	4.58265E-011	0.009062	5
	50	68	9.93114	51718.76	-160259.6	1	168398.3	-72.11414	8.402166E-010	0.0090533	5
	51	70	7.944915	65325.89	-191446	1	202284.6	-71.15915	9.07254E-010	0.009057	5
	52	72	6.317385	83116.97	-229324.1	1	243922	-70.07729	5.4175E-010	0.0090554	5
	53	74	5.008013	106174.3	-273972.9	1	293826.7	-68.81686	1.472444E-010	0.0090616	5
	54	76	3.945707	135965.4	-326066.9	1	353279.2	-67.36454	1.810663E-010	0.0090634	5
	55	79	3.158693	169919.7	-381915.9	1	418010.1	-66.01505	-6.041424E-011	0.0090472	5
	56	82	2.504006	213849	-446848.5	1	495383.7	-64.42555	4.538545E-010	0.0090529	5
	57	85	1.998082	264257.8	-517120.3	1	580728.5	-62.93214	-5.448488E-011	0.0090845	5
	58	88	1.584686	326126.6	-598452.8	1	681545.6	-61.41184	1.789738E-010	0.0090988	5
	59	91	1.266892	394945.8	-683650.9	1	789532	-59.98493	-1.086289E-010	0.0090799	5
	60	96	0.999041	477102.4	-783864.1	1	917643.5	-58.67303	2.3332E-010	0.0090439	5
