EXPLAIN
TAG	EISPOT
TITLE	LABEL	Potentiostatic EIS	Test &Identifier
DATE	LABEL	11/3/2019	Date
TIME	LABEL	11:48:02	Time
NOTES	NOTES	1	&Notes...
	
PSTAT	PSTAT	REF600-11020	Potentiostat
VDC	POTEN	0.00000E+000	T	DC &Voltage (V)
FREQINIT	QUANT	1.00000E+006	Initial Fre&q. (Hz)
FREQFINAL	QUANT	1.00000E+000	Final Fre&q. (Hz)
PTSPERDEC	QUANT	1.00000E+001	Points/&decade
VAC	QUANT	2.50000E+001	AC &Voltage (mV rms)
AREA	QUANT	1.00000E-002	&Area (cm^2)
CONDIT	TWOPARAM	T	5.00000E+000	0.00000E+000	Conditionin&g	Time(s)	E(V)
DELAY	TWOPARAM	T	5.00000E+000	0.00000E+000	Init. De&lay	Time(s)	Stab.(mV/s)
SPEED	SELECTOR	1	&Optimize for:
ZGUESS	QUANT	1.00000E+005	E&stimated Z (ohms)
OCVCURVE	TABLE	19
	Pt	T	Vf	Vm	Ach	Over
	#	s	V vs. Ref.	V	V	bits
	0	0.258333	3.19083E-003	3.19083E-003	5.36666E-004	...........
	1	0.516667	3.18917E-003	3.10356E-003	5.35299E-004	...........
	2	0.775	3.18212E-003	3.18801E-003	5.34833E-004	...........
	3	1.03333	3.16160E-003	2.68235E-003	5.31333E-004	...........
	4	1.29167	3.10254E-003	2.51140E-003	5.24533E-004	...........
	5	1.55	2.98012E-003	2.61898E-003	5.30833E-004	...........
	6	1.80833	2.82230E-003	2.69510E-003	5.24766E-004	...........
	7	2.06667	2.70277E-003	2.86609E-003	5.33000E-004	...........
	8	2.325	2.68722E-003	3.78266E-003	5.33100E-004	...........
	9	2.58333	2.83596E-003	4.67009E-003	5.36733E-004	...........
	10	2.84167	3.19031E-003	4.52077E-003	5.28866E-004	...........
	11	3.1	3.68875E-003	5.02175E-003	5.26900E-004	...........
	12	3.35833	4.18648E-003	5.11098E-003	5.28066E-004	...........
	13	3.61667	4.58882E-003	5.38190E-003	5.29333E-004	...........
	14	3.875	4.89420E-003	5.58487E-003	5.37133E-004	...........
	15	4.13333	5.12843E-003	5.20378E-003	5.28333E-004	...........
	16	4.39167	5.27260E-003	4.54824E-003	5.32233E-004	...........
	17	4.65	5.26377E-003	4.55474E-003	5.31733E-004	...........
	18	4.90833	5.07994E-003	3.82125E-003	5.34366E-004	...........
EOC	QUANT	0.0050799	Open Circuit (V)
PSTATMODEL	IQUANT	4	Pstat Model
PSTATSECTION	LABEL	REF600-11020	Pstat Section
PSTATSERIALNO	LABEL	11020	Pstat Serial Number
CTRLMODE	IQUANT	1	Control Mode
IESTAB	IQUANT	0	I/E Stability
CASPEED	IQUANT	1	Control Amp Speed
CONVENTION	IQUANT	1	Current Convention
ICHRANGE	IQUANT	2	Ich Range
ICHRANGEMODE	TOGGLE	F	Ich Auto Range
ICHOFFSETENABLE	TOGGLE	T	Ich Offset Enable
ICHOFFSET	QUANT	0	Ich Offset (V)
ICHFILTER	IQUANT	3	Ich Filter
VCHRANGE	IQUANT	2	Vch Range
VCHRANGEMODE	TOGGLE	F	Vch Auto Range
VCHOFFSETENABLE	TOGGLE	T	Vch Offset Enable
VCHOFFSET	QUANT	0	Vch Offset (V)
VCHFILTER	IQUANT	3	Vch Filter
ACHRANGE	IQUANT	2	Ach Range
ACHOFFSETENABLE	TOGGLE	F	Ach Offset Enable
ACHOFFSET	QUANT	0	Ach Offset (V)
ACHFILTER	IQUANT	3	Ach Filter
IERANGELOWERLIMIT	IQUANT	1	I/E Range Lower Limit
IERANGEMODE	TOGGLE	F	I/E AutoRange
IERANGE	IQUANT	4	I/E Range
POSFEEDENABLE	TOGGLE	F	Positive Feedback IR Comp
POSFEEDRESISTANCE	QUANT	0	Positive Feedback Resistance (ohm)
ACHSELECT	IQUANT	0	Ach Select
CABLEID	IQUANT	14	Cable ID
DCCALDATE	LABEL	8/19/2019	DC Calibration Date
ACCALDATE	LABEL	8/19/2019	AC Calibration Date
THERMOSELECT	IQUANT	1	Thermo Select
FRAMEWORKVERSION	QUANT	6.33	Framework Version
INSTRUMENTVERSION	LABEL	3.50	Instrument Version
ZCURVE	TABLE
	Pt	Time	Freq	Zreal	Zimag	Zsig	Zmod	Zphz	Idc	Vdc	IERange
	#	s	Hz	ohm	ohm	V	ohm	°	A	V	#
	0	2	1000078	1645.936	-790.918	1	1826.104	-25.66558	-1.468015E-007	0.0077585	8
	1	3	794390.6	1765.314	-762.0488	1	1922.772	-23.34884	-3.58071E-007	0.0073881	8
	2	4	630984.4	1885.848	-725.2746	1	2020.506	-21.03615	-3.092268E-006	0.0073119	8
	3	6	501234.4	1990.671	-675.5388	1	2102.171	-18.74476	-1.406359E-006	0.0063757	8
	4	7	398109.4	2087.896	-634.6285	1	2182.215	-16.90697	-7.312737E-007	0.0070147	8
	5	8	316265.6	2175.547	-592.1276	1	2254.688	-15.22562	-7.168637E-007	0.0062531	8
	6	10	251203.1	2254.635	-554.0931	1	2321.723	-13.80723	5.940968E-006	0.0054258	8
	7	11	199546.9	2326.389	-521.2642	1	2384.072	-12.62943	1.780261E-006	0.0068122	8
	8	13	158578.1	2391.904	-479.6064	1	2439.513	-11.33816	1.885866E-006	0.0068166	8
	9	14	125953.1	2474.399	-422.9143	1	2510.28	-9.69905	2.493961E-006	0.0048825	7
	10	15	100078.1	2510.025	-397.675	1	2541.333	-9.002808	-9.639042E-007	0.0079819	7
	11	17	79453.13	2556.644	-388.1346	1	2585.938	-8.632392	-5.174872E-007	0.0079185	7
	12	18	63140.62	2605.527	-384.896	1	2633.803	-8.403125	9.788199E-007	0.0054383	7
	13	19	50203.12	2645.393	-383.5589	1	2673.054	-8.249899	-1.098219E-006	0.0078534	7
	14	21	39890.62	2690.056	-387.3917	1	2717.807	-8.194756	-1.09811E-006	0.0078458	7
	15	22	31640.63	2739.529	-397.2086	1	2768.176	-8.249912	3.870441E-007	0.0050591	7
	16	23	25171.88	2788.186	-410.859	1	2818.295	-8.382614	9.196744E-007	0.0058025	7
	17	25	20015.62	2834.011	-430.3584	1	2866.501	-8.634675	5.869761E-007	0.0065993	7
	18	26	15890.62	2882.289	-454.4854	1	2917.901	-8.960741	8.438376E-007	0.0049936	7
	19	28	12609.37	2928.134	-483.7342	1	2967.822	-9.380665	-1.099185E-006	0.0078538	7
	20	29	10078.13	2985.431	-529.3641	1	3032	-10.05494	9.197589E-007	0.005797	7
	21	30	8015.625	3035.895	-571.7004	1	3089.256	-10.66468	-5.188152E-007	0.0079065	7
	22	32	6328.125	3094.12	-628.3184	1	3157.271	-11.47888	-1.103261E-006	0.007523	7
	23	33	5015.625	3158.32	-697.8828	1	3234.505	-12.46023	-5.178666E-007	0.0079042	7
	24	34	3984.375	3221.045	-778.0546	1	3313.684	-13.57986	-9.641103E-007	0.0079689	7
	25	36	3170.956	3289.597	-879.011	1	3405.012	-14.96044	5.867917E-007	0.0065962	7
	26	37	2527.573	3351.257	-999.357	1	3497.09	-16.60477	3.884678E-007	0.0050554	7
	27	38	1976.103	3422.054	-1167.271	1	3615.657	-18.83463	7.713809E-007	0.0062276	7
	28	40	1577.524	3482.648	-1358.256	1	3738.141	-21.30611	-1.09996E-006	0.0078482	7
	29	41	1265.625	3548.277	-1584.689	1	3886.066	-24.06593	-6.829079E-007	0.0064167	7
	30	43	998.264	3629.342	-1905.85	1	4099.315	-27.70498	1.114137E-007	0.0072983	7
	31	44	796.875	3714.719	-2282.215	1	4359.775	-31.56535	3.88935E-007	0.0050485	7
	32	45	627.7902	3821.293	-2781.777	1	4726.581	-36.0534	3.87842E-007	0.0050489	7
	33	47	505.5147	3941.426	-3346.888	1	5170.735	-40.33647	7.715028E-007	0.0062204	7
	34	48	397.9953	4106.902	-4104.354	1	5806.235	-44.98222	3.296786E-009	0.0065173	7
	35	49	315.5048	4313.667	-5021.762	1	6620.107	-49.33759	2.283972E-009	0.0065157	7
	36	51	252.4038	4568.455	-6098.995	1	7620.27	-53.16494	3.113444E-009	0.0065133	7
	37	52	198.6229	4927.979	-7514.062	1	8985.884	-56.74177	5.179357E-009	0.0065127	7
	38	53	158.3615	5378.401	-9142.48	1	10607.17	-59.53226	1.255135E-009	0.0064462	6
	39	55	125.558	5978.571	-11165.53	1	12665.4	-61.83323	4.230622E-010	0.0064591	6
	40	56	100.4464	6744.547	-13505.3	1	15095.76	-63.46245	7.678613E-010	0.0064467	6
	41	58	79.00281	7838	-16502.88	1	18269.62	-64.59473	5.134681E-010	0.0064545	6
	42	59	63.3446	9138.408	-19645.23	1	21666.69	-65.05347	-8.021378E-011	0.0064517	6
	43	60	49.86702	10949.57	-24032.15	1	26409.04	-65.50497	-1.940749E-010	0.0064477	6
	44	62	39.72458	13107.16	-28582.48	1	31444.49	-65.36508	9.378905E-010	0.0064534	6
	45	63	31.6723	15825.64	-33838.74	1	37356.54	-64.93553	1.064055E-009	0.0064409	6
	46	65	24.93351	19476.43	-40315.58	1	44773.62	-64.21484	8.548743E-010	0.0064512	6
	47	66	19.86229	23713.58	-47300.48	1	52911.9	-63.3736	1.163897E-009	0.0064445	6
	48	67	15.83615	29041.68	-55127.25	1	62309.17	-62.21921	1.633879E-009	0.0064471	6
	49	69	12.40079	34939.36	-64588.09	1	73432.83	-61.58853	3.920605E-010	0.0064544	6
	50	70	9.93114	42157.2	-74218.14	1	85355.5	-60.40267	-1.096136E-009	0.0064561	6
	51	72	7.944915	50124.94	-85084.37	1	98751.5	-59.49679	7.75156E-010	0.0064604	6
	52	73	6.317385	59083.47	-97358.1	1	113883.5	-58.7478	-2.80575E-010	0.0064685	5
	53	75	5.008013	69189.44	-111414.1	1	131149.9	-58.15925	4.150544E-012	0.0064506	5
	54	78	3.945707	80127.38	-127880.6	1	150910	-57.92958	4.542807E-010	0.0064592	5
	55	81	3.158693	90930.71	-145992	1	171994.4	-58.0834	-2.37603E-010	0.0064409	5
	56	84	2.504006	102392.4	-168362.6	1	197053.7	-58.69345	4.583677E-010	0.0064593	5
	57	87	1.998082	113706.8	-194775.7	1	225536.8	-59.72433	1.411394E-010	0.0064881	5
	58	90	1.584686	125789.8	-227788.9	1	260213.1	-61.09161	-3.394117E-011	0.0064154	5
	59	94	1.266892	137644.7	-268624.7	1	301836.6	-62.86916	7.902287E-011	0.0064772	5
	60	98	0.999041	152418.4	-321991.2	1	356243.8	-64.66891	6.362025E-011	0.0064276	5
