EXPLAIN
TAG	EISPOT
TITLE	LABEL	Potentiostatic EIS	Test &Identifier
DATE	LABEL	9/26/2019	Date
TIME	LABEL	9:08:32	Time
NOTES	NOTES	2	&Notes...
	
	
PSTAT	PSTAT	REF600-11020	Potentiostat
VDC	POTEN	0.00000E+000	T	DC &Voltage (V)
FREQINIT	QUANT	1.00000E+006	Initial Fre&q. (Hz)
FREQFINAL	QUANT	1.00000E+000	Final Fre&q. (Hz)
PTSPERDEC	QUANT	1.00000E+001	Points/&decade
VAC	QUANT	2.50000E+001	AC &Voltage (mV rms)
AREA	QUANT	1.00000E-002	&Area (cm^2)
CONDIT	TWOPARAM	T	5.00000E+000	0.00000E+000	Conditionin&g	Time(s)	E(V)
DELAY	TWOPARAM	T	5.00000E+000	0.00000E+000	Init. De&lay	Time(s)	Stab.(mV/s)
SPEED	SELECTOR	1	&Optimize for:
ZGUESS	QUANT	1.00000E+004	E&stimated Z (ohms)
OCVCURVE	TABLE	19
	Pt	T	Vf	Vm	Ach	Over
	#	s	V vs. Ref.	V	V	bits
	0	0.258333	2.82187E-002	2.82187E-002	5.64166E-004	...........
	1	0.516667	2.82531E-002	3.00199E-002	5.60966E-004	...........
	2	0.775	2.84644E-002	3.17232E-002	5.58299E-004	...........
	3	1.03333	2.90610E-002	3.33239E-002	5.61432E-004	...........
	4	1.29167	3.01246E-002	3.48395E-002	5.65099E-004	...........
	5	1.55	3.15302E-002	3.62224E-002	5.62166E-004	...........
	6	1.80833	3.30731E-002	3.76068E-002	5.60832E-004	...........
	7	2.06667	3.46057E-002	3.89202E-002	5.61966E-004	...........
	8	2.325	3.60681E-002	4.01428E-002	5.64266E-004	...........
	9	2.58333	3.74514E-002	4.13029E-002	5.66099E-004	...........
	10	2.84167	3.87600E-002	4.24128E-002	5.69699E-004	...........
	11	3.1	3.99984E-002	4.34534E-002	5.61966E-004	...........
	12	3.35833	4.11705E-002	4.44348E-002	5.68332E-004	...........
	13	3.61667	4.22800E-002	4.53781E-002	5.59899E-004	...........
	14	3.875	4.33314E-002	4.63353E-002	5.67599E-004	...........
	15	4.13333	4.43352E-002	4.72918E-002	5.67799E-004	...........
	16	4.39167	4.53064E-002	4.81643E-002	5.67566E-004	...........
	17	4.65	4.62540E-002	4.90000E-002	5.71166E-004	...........
	18	4.90833	4.71740E-002	4.97571E-002	5.69566E-004	...........
EOC	QUANT	0.047174	Open Circuit (V)
PSTATMODEL	IQUANT	4	Pstat Model
PSTATSECTION	LABEL	REF600-11020	Pstat Section
PSTATSERIALNO	LABEL	11020	Pstat Serial Number
CTRLMODE	IQUANT	1	Control Mode
IESTAB	IQUANT	0	I/E Stability
CASPEED	IQUANT	1	Control Amp Speed
CONVENTION	IQUANT	1	Current Convention
ICHRANGE	IQUANT	2	Ich Range
ICHRANGEMODE	TOGGLE	F	Ich Auto Range
ICHOFFSETENABLE	TOGGLE	T	Ich Offset Enable
ICHOFFSET	QUANT	0	Ich Offset (V)
ICHFILTER	IQUANT	3	Ich Filter
VCHRANGE	IQUANT	2	Vch Range
VCHRANGEMODE	TOGGLE	F	Vch Auto Range
VCHOFFSETENABLE	TOGGLE	T	Vch Offset Enable
VCHOFFSET	QUANT	0	Vch Offset (V)
VCHFILTER	IQUANT	3	Vch Filter
ACHRANGE	IQUANT	2	Ach Range
ACHOFFSETENABLE	TOGGLE	F	Ach Offset Enable
ACHOFFSET	QUANT	0	Ach Offset (V)
ACHFILTER	IQUANT	3	Ach Filter
IERANGELOWERLIMIT	IQUANT	1	I/E Range Lower Limit
IERANGEMODE	TOGGLE	F	I/E AutoRange
IERANGE	IQUANT	6	I/E Range
POSFEEDENABLE	TOGGLE	F	Positive Feedback IR Comp
POSFEEDRESISTANCE	QUANT	0	Positive Feedback Resistance (ohm)
ACHSELECT	IQUANT	0	Ach Select
CABLEID	IQUANT	14	Cable ID
DCCALDATE	LABEL	8/19/2019	DC Calibration Date
ACCALDATE	LABEL	8/19/2019	AC Calibration Date
THERMOSELECT	IQUANT	1	Thermo Select
FRAMEWORKVERSION	QUANT	6.33	Framework Version
INSTRUMENTVERSION	LABEL	3.50	Instrument Version
ZCURVE	TABLE
	Pt	Time	Freq	Zreal	Zimag	Zsig	Zmod	Zphz	Idc	Vdc	IERange
	#	s	Hz	ohm	ohm	V	ohm	°	A	V	#
	0	1	1000078	2227.891	-1863.737	1	2904.654	-39.91409	6.178706E-006	0.04823	8
	1	3	794390.6	2600.262	-1876.085	1	3206.409	-35.81039	-2.307031E-006	0.049328	8
	2	4	630984.4	2960.006	-1828.019	1	3478.978	-31.69834	6.302282E-006	0.0480108	8
	3	6	501234.4	3303.757	-1712.261	1	3721.108	-27.39667	2.444879E-006	0.0482762	8
	4	7	398109.4	3619.135	-1581.276	1	3949.502	-23.60153	2.11645E-006	0.0483972	8
	5	9	316265.6	3881.514	-1433.881	1	4137.894	-20.27488	-3.106989E-006	0.0492968	8
	6	10	251203.1	4103.574	-1272.931	1	4296.472	-17.23392	2.346565E-006	0.0483652	8
	7	12	199546.9	4246.846	-1108.474	1	4389.125	-14.62847	1.339865E-006	0.0483743	8
	8	13	158578.1	4384.556	-990.525	1	4495.049	-12.73012	1.474073E-006	0.0484667	8
	9	15	125953.1	4511.576	-786.5507	1	4579.627	-9.88958	-6.62427E-007	0.0494482	7
	10	16	100078.1	4577.198	-689.0433	1	4628.771	-8.560923	-5.086083E-008	0.0489075	7
	11	18	79453.13	4638.87	-615.1353	1	4679.477	-7.553614	4.03438E-008	0.0487516	7
	12	19	63140.62	4691.56	-557.4269	1	4724.559	-6.775822	-3.541185E-008	0.048811	7
	13	20	50203.12	4740.57	-516.9946	1	4768.678	-6.223937	4.338637E-008	0.0486557	7
	14	22	39890.62	4778.566	-487.5778	1	4803.376	-5.825974	-3.418669E-008	0.0488137	7
	15	23	31640.63	4818.641	-470.8138	1	4841.587	-5.580472	-2.708574E-008	0.0487777	7
	16	25	25171.88	4858.118	-466.5475	1	4880.469	-5.485555	-9.545849E-009	0.0489315	7
	17	26	20015.62	4892.656	-477.7963	1	4915.93	-5.577581	-4.157211E-008	0.048839	7
	18	27	15890.62	4928.272	-501.0876	1	4953.681	-5.805661	-1.006624E-008	0.0487471	7
	19	29	12609.37	4966.346	-538.5032	1	4995.456	-6.188431	-5.518727E-009	0.0488378	7
	20	30	10078.13	5000.692	-591.6166	1	5035.566	-6.747127	-4.985856E-009	0.0488369	7
	21	31	8015.625	5037.866	-663.9813	1	5081.434	-7.508202	-5.387534E-008	0.0489708	7
	22	33	6328.125	5080.39	-763.5164	1	5137.442	-8.546845	8.537334E-008	0.0486174	7
	23	34	5015.625	5123.877	-886.7117	1	5200.036	-9.81807	-5.205944E-008	0.0489626	7
	24	35	3984.375	5173.625	-1043.689	1	5277.849	-11.40535	1.399464E-007	0.0485867	7
	25	37	3170.956	5227.41	-1238.222	1	5372.058	-13.3261	-8.025859E-008	0.0489231	7
	26	38	2527.573	5290.983	-1478.434	1	5493.658	-15.6117	-3.89639E-008	0.0488138	7
	27	40	1976.103	5371.408	-1802.625	1	5665.817	-18.55157	7.502508E-008	0.0486706	7
	28	41	1577.524	5462.608	-2161.027	1	5874.532	-21.58393	4.447245E-008	0.0487331	7
	29	42	1265.625	5565.281	-2589.117	1	6138.068	-24.9491	1.103352E-008	0.0487162	7
	30	44	998.264	5704.175	-3164.482	1	6523.155	-29.02002	8.68506E-008	0.0486164	7
	31	45	796.875	5855.916	-3825.998	1	6994.999	-33.15884	9.554346E-008	0.0487332	7
	32	46	627.7902	6055.287	-4673.734	1	7649.202	-37.66252	8.591127E-008	0.0486107	7
	33	48	505.5147	6261.915	-5617.615	1	8412.442	-41.89554	-8.126144E-009	0.0487407	7
	34	49	397.9953	6531.288	-6886.18	1	9490.9	-46.51512	4.7649E-009	0.0488018	7
	35	51	315.5048	6850.404	-8406.043	1	10843.87	-50.8221	-5.134345E-010	0.0487472	6
	36	52	252.4038	7214.755	-10198.1	1	12492.16	-54.7221	1.122304E-009	0.0487422	6
	37	53	198.6229	7695.695	-12570.74	1	14739.31	-58.5254	6.197328E-010	0.0487436	6
	38	55	158.3615	8265.801	-15330.55	1	17416.92	-61.6677	5.70736E-010	0.0487456	6
	39	56	125.558	8999.102	-18807.5	1	20849.6	-64.4296	3.850572E-010	0.0487459	6
	40	57	100.4464	9932.31	-22901.56	1	24962.61	-66.55383	-6.218978E-011	0.0487397	6
	41	59	79.00281	11201.03	-28213.07	1	30355.23	-68.34615	-8.512087E-012	0.0487399	6
	42	60	63.3446	12668.21	-33900.57	1	36190.22	-69.50993	2.322964E-010	0.0487429	6
	43	62	49.86702	14957.8	-42507.19	1	45062.14	-70.61361	-1.749428E-010	0.0487396	6
	44	63	39.72458	17468.12	-51468.03	1	54351.57	-71.25292	1.383747E-010	0.0487384	6
	45	64	31.6723	20850.58	-62617.75	1	65997.95	-71.58317	9.673898E-010	0.0487401	6
	46	66	24.93351	25509.07	-76230.56	1	80385.39	-71.49818	1.198838E-010	0.048743	6
	47	67	19.86229	31231.43	-91934.22	1	97094.3	-71.23661	6.083397E-010	0.0487454	6
	48	68	15.83615	37749.64	-111138.7	1	117374.8	-71.2393	1.497772E-009	0.0487481	5
	49	70	12.40079	47963.44	-134737.1	1	143019.5	-70.40539	-5.743788E-010	0.0487462	5
	50	71	9.93114	60509.71	-159113.2	1	170230.5	-69.17852	3.61188E-010	0.0487478	5
	51	73	7.944915	75809.59	-189665.7	1	204255.2	-68.21336	-2.851709E-010	0.0487492	5
	52	74	6.317385	94228.8	-223302.3	1	242369.5	-67.12129	5.804362E-011	0.0487528	5
	53	76	5.008013	118007.7	-264226.9	1	289381.6	-65.93375	-6.046787E-011	0.0487557	5
	54	79	3.945707	148203.5	-311583.3	1	345033.9	-64.56207	-3.940624E-010	0.0487468	5
	55	82	3.158693	182542	-361176.4	1	404685.1	-63.18753	-3.406149E-010	0.0487349	5
	56	85	2.504006	224680.4	-419260.5	1	475668.6	-61.81329	-7.120567E-011	0.0487492	5
	57	88	1.998082	273630.4	-481289.8	1	553636.6	-60.38023	-9.832973E-011	0.0487749	5
	58	91	1.584686	332838.6	-550942.3	1	643676.1	-58.86274	-2.3708E-010	0.0487182	5
	59	94	1.266892	396455.4	-628029.1	1	742696.1	-57.73705	-1.610119E-010	0.0487831	5
	60	99	0.999041	474192.2	-715037.6	1	857984.3	-56.44881	-3.415234E-010	0.048706	5
