EXPLAIN
TAG	EISPOT
TITLE	LABEL	Potentiostatic EIS	Test &Identifier
DATE	LABEL	10/14/2019	Date
TIME	LABEL	11:04:43	Time
NOTES	NOTES	1	&Notes...
	
PSTAT	PSTAT	REF600-11020	Potentiostat
VDC	POTEN	0.00000E+000	T	DC &Voltage (V)
FREQINIT	QUANT	1.00000E+006	Initial Fre&q. (Hz)
FREQFINAL	QUANT	1.00000E+000	Final Fre&q. (Hz)
PTSPERDEC	QUANT	1.00000E+001	Points/&decade
VAC	QUANT	2.50000E+001	AC &Voltage (mV rms)
AREA	QUANT	1.00000E-002	&Area (cm^2)
CONDIT	TWOPARAM	T	5.00000E+000	0.00000E+000	Conditionin&g	Time(s)	E(V)
DELAY	TWOPARAM	T	5.00000E+000	0.00000E+000	Init. De&lay	Time(s)	Stab.(mV/s)
SPEED	SELECTOR	1	&Optimize for:
ZGUESS	QUANT	1.00000E+004	E&stimated Z (ohms)
OCVCURVE	TABLE	19
	Pt	T	Vf	Vm	Ach	Over
	#	s	V vs. Ref.	V	V	bits
	0	0.258333	6.67183E-003	6.67183E-003	5.09267E-004	...........
	1	0.516667	6.66680E-003	6.40877E-003	5.06167E-004	...........
	2	0.775	6.63834E-003	6.28500E-003	5.02833E-004	...........
	3	1.03333	6.57459E-003	6.62598E-003	5.12667E-004	...........
	4	1.29167	6.50264E-003	6.34354E-003	5.09733E-004	...........
	5	1.55	6.45792E-003	6.41270E-003	5.15100E-004	...........
	6	1.80833	6.43733E-003	6.40277E-003	5.12333E-004	...........
	7	2.06667	6.41760E-003	6.13336E-003	5.07600E-004	...........
	8	2.325	6.38043E-003	6.19066E-003	5.08800E-004	...........
	9	2.58333	6.31894E-003	6.11420E-003	5.11933E-004	...........
	10	2.84167	6.24959E-003	6.26033E-003	5.04633E-004	...........
	11	3.1	6.20275E-003	6.27032E-003	5.17366E-004	...........
	12	3.35833	6.19402E-003	6.22464E-003	5.13833E-004	...........
	13	3.61667	6.21108E-003	6.24810E-003	5.13066E-004	...........
	14	3.875	6.23257E-003	6.35858E-003	5.08167E-004	...........
	15	4.13333	6.24806E-003	6.02886E-003	5.07467E-004	...........
	16	4.39167	6.24412E-003	6.02957E-003	5.18033E-004	...........
	17	4.65	6.20658E-003	6.17146E-003	5.17433E-004	...........
	18	4.90833	6.15281E-003	6.08197E-003	5.09533E-004	...........
EOC	QUANT	0.0061528	Open Circuit (V)
PSTATMODEL	IQUANT	4	Pstat Model
PSTATSECTION	LABEL	REF600-11020	Pstat Section
PSTATSERIALNO	LABEL	11020	Pstat Serial Number
CTRLMODE	IQUANT	1	Control Mode
IESTAB	IQUANT	0	I/E Stability
CASPEED	IQUANT	1	Control Amp Speed
CONVENTION	IQUANT	1	Current Convention
ICHRANGE	IQUANT	2	Ich Range
ICHRANGEMODE	TOGGLE	F	Ich Auto Range
ICHOFFSETENABLE	TOGGLE	T	Ich Offset Enable
ICHOFFSET	QUANT	0	Ich Offset (V)
ICHFILTER	IQUANT	3	Ich Filter
VCHRANGE	IQUANT	2	Vch Range
VCHRANGEMODE	TOGGLE	F	Vch Auto Range
VCHOFFSETENABLE	TOGGLE	T	Vch Offset Enable
VCHOFFSET	QUANT	0	Vch Offset (V)
VCHFILTER	IQUANT	3	Vch Filter
ACHRANGE	IQUANT	2	Ach Range
ACHOFFSETENABLE	TOGGLE	F	Ach Offset Enable
ACHOFFSET	QUANT	0	Ach Offset (V)
ACHFILTER	IQUANT	3	Ach Filter
IERANGELOWERLIMIT	IQUANT	1	I/E Range Lower Limit
IERANGEMODE	TOGGLE	F	I/E AutoRange
IERANGE	IQUANT	6	I/E Range
POSFEEDENABLE	TOGGLE	F	Positive Feedback IR Comp
POSFEEDRESISTANCE	QUANT	0	Positive Feedback Resistance (ohm)
ACHSELECT	IQUANT	0	Ach Select
CABLEID	IQUANT	14	Cable ID
DCCALDATE	LABEL	8/19/2019	DC Calibration Date
ACCALDATE	LABEL	8/19/2019	AC Calibration Date
THERMOSELECT	IQUANT	1	Thermo Select
FRAMEWORKVERSION	QUANT	6.33	Framework Version
INSTRUMENTVERSION	LABEL	3.50	Instrument Version
ZCURVE	TABLE
	Pt	Time	Freq	Zreal	Zimag	Zsig	Zmod	Zphz	Idc	Vdc	IERange
	#	s	Hz	ohm	ohm	V	ohm	°	A	V	#
	0	1	1000078	2519.582	-1830.813	1	3114.51	-36.00341	-1.730073E-006	0.0082441	8
	1	3	794390.6	2869.171	-1756.481	1	3364.129	-31.47459	1.05254E-006	0.0081678	8
	2	4	630984.4	3213.772	-1673.277	1	3623.284	-27.5041	-1.803907E-006	0.0083928	8
	3	6	501234.4	3504.296	-1519.446	1	3819.53	-23.44133	-2.262514E-006	0.0083448	8
	4	7	398109.4	3741.446	-1353.61	1	3978.778	-19.88952	3.688436E-006	0.007258	8
	5	8	316265.6	3942.979	-1193.195	1	4119.562	-16.83647	3.186536E-006	0.0072413	8
	6	10	251203.1	4090.369	-1028.889	1	4217.788	-14.11923	-5.489757E-007	0.0079543	8
	7	11	199546.9	4196.136	-893.5278	1	4290.215	-12.02105	1.157277E-006	0.0075718	8
	8	12	158578.1	4281.099	-782.0049	1	4351.936	-10.35178	-1.274877E-006	0.0080897	8
	9	14	125953.1	4363.533	-630.8026	1	4408.893	-8.225825	4.710286E-007	0.0068919	7
	10	15	100078.1	4407.774	-556.1822	1	4442.726	-7.191694	3.817628E-008	0.0076989	7
	11	16	79453.13	4451.517	-503.399	1	4479.89	-6.451874	-4.278317E-008	0.007901	7
	12	18	63140.62	4487.443	-469.9332	1	4511.982	-5.978328	-3.153008E-008	0.0078263	7
	13	19	50203.12	4523.131	-448.7236	1	4545.335	-5.66557	6.307344E-008	0.0077092	7
	14	20	39890.62	4557.01	-437.7172	1	4577.984	-5.486633	-2.574023E-008	0.0078009	7
	15	22	31640.63	4591.551	-441.7671	1	4612.754	-5.495686	-4.901997E-008	0.0079627	7
	16	23	25171.88	4625.884	-455.3774	1	4648.244	-5.622149	-4.288944E-008	0.0078479	7
	17	24	20015.62	4648.529	-481.7868	1	4673.43	-5.917171	-2.943915E-008	0.0078225	7
	18	26	15890.62	4702.051	-524.5222	1	4731.216	-6.365131	7.268409E-008	0.0076528	7
	19	27	12609.37	4743.488	-577.7921	1	4778.548	-6.94484	1.172739E-008	0.0077486	7
	20	28	10078.13	4785.361	-646.1387	1	4828.787	-7.689799	1.143164E-007	0.0076356	7
	21	30	8015.625	4829.363	-727.6528	1	4883.874	-8.568453	-3.525874E-008	0.0078769	7
	22	31	6328.125	4888.794	-847.2005	1	4961.659	-9.8314	-3.740373E-009	0.0079143	7
	23	32	5015.625	4946.793	-985.724	1	5044.048	-11.26945	-1.107263E-008	0.0078343	7
	24	34	3984.375	5007.186	-1162.153	1	5140.283	-13.06683	-2.164125E-008	0.0078685	7
	25	35	3170.956	5079.438	-1358.905	1	5258.071	-14.97762	6.37454E-008	0.0076983	7
	26	36	2527.573	5156.874	-1610.88	1	5402.618	-17.34752	-2.558083E-008	0.0077933	7
	27	38	1976.103	5254.353	-1944.875	1	5602.746	-20.3118	7.434527E-008	0.0076517	7
	28	39	1577.524	5349.867	-2343.596	1	5840.678	-23.6566	-2.696472E-009	0.0078401	7
	29	41	1265.625	5471.352	-2776.656	1	6135.594	-26.90734	-3.119984E-009	0.0078412	7
	30	42	998.264	5618.934	-3372.735	1	6553.454	-30.97406	6.231846E-008	0.0077	7
	31	43	796.875	5774.348	-4063.865	1	7061.026	-35.13708	-6.054359E-008	0.0079003	7
	32	45	627.7902	5972.614	-4955.207	1	7760.554	-39.68095	-2.90202E-008	0.0078148	7
	33	46	505.5147	6182.683	-5954.809	1	8584.015	-43.92443	3.74307E-008	0.0076749	7
	34	47	397.9953	6454.4	-7306.904	1	9749.37	-48.54491	3.756257E-009	0.0078138	7
	35	49	315.5048	6770.416	-8924.978	1	11202.4	-52.81634	1.375404E-009	0.0077535	6
	36	50	252.4038	7128.53	-10838.44	1	12972.58	-56.66675	1.286339E-010	0.0077566	6
	37	51	198.6229	7593.78	-13376.86	1	15382	-60.41728	5.980562E-010	0.0077525	6
	38	53	158.3615	8136.698	-16350.44	1	18263.15	-63.54305	7.142743E-010	0.0077534	6
	39	54	125.558	8840.826	-20097.4	1	21955.99	-66.25536	7.324988E-010	0.0077541	6
	40	55	100.4464	9679.07	-24525.83	1	26366.66	-68.46342	1.400265E-009	0.0077522	6
	41	57	79.00281	10940.49	-30426.53	1	32333.7	-70.22289	3.628038E-011	0.0077494	6
	42	58	63.3446	12524.96	-36786.4	1	38860.18	-71.19741	2.297952E-010	0.007748	6
	43	60	49.86702	14412.91	-46050.79	1	48253.57	-72.62099	7.032916E-010	0.0077463	6
	44	61	39.72458	16989.12	-56041.69	1	58560.23	-73.13525	6.583633E-010	0.0077494	6
	45	62	31.6723	20560.55	-68490.2	1	71509.74	-73.29041	1.252247E-009	0.0077472	6
	46	64	24.93351	25368.31	-83923.73	1	87674.07	-73.18108	7.513096E-010	0.0077468	6
	47	65	19.86229	31497.79	-101893.3	1	106650.6	-72.8223	3.143013E-011	0.0077511	5
	48	66	15.83615	39487.57	-121976.4	1	128208.8	-72.06161	-2.926867E-010	0.0077465	5
	49	68	12.40079	52240.4	-150219.8	1	159044.2	-70.82439	1.419183E-009	0.0077456	5
	50	69	9.93114	65674.92	-179260.7	1	190912.5	-69.87891	4.907781E-010	0.0077441	5
	51	71	7.944915	83399.88	-211745	1	227577.5	-68.50204	-4.703867E-010	0.0077488	5
	52	72	6.317385	107312.9	-251259.3	1	273216.6	-66.87267	-4.02694E-011	0.0077471	5
	53	74	5.008013	137643.2	-295279.2	1	325784.3	-65.00761	-7.628802E-011	0.0077419	5
	54	77	3.945707	175854.1	-344452	1	386745.2	-62.95419	3.616112E-010	0.0077564	5
	55	80	3.158693	220324.7	-397658.9	1	454615.9	-61.01116	-5.854082E-010	0.0077484	5
	56	83	2.504006	272090.1	-452045.3	1	527615.4	-58.95589	4.9311E-010	0.0077422	5
	57	86	1.998082	329087.8	-506456.7	1	603984.4	-56.98481	-3.736949E-011	0.0077824	5
	58	89	1.584686	393852.2	-569391.1	1	692333.6	-55.32809	2.117423E-010	0.0077782	5
	59	92	1.266892	461551.1	-632725	1	783179.6	-53.89054	-1.26794E-010	0.0077793	5
	60	97	0.999041	536445.8	-708870.4	1	888972	-52.88297	2.499072E-010	0.0077396	5
