EXPLAIN
TAG	EISPOT
TITLE	LABEL	Potentiostatic IDE	Test &Identifier
DATE	LABEL	9/16/2019	Date
TIME	LABEL	7:51:12	Time
NOTES	NOTES	1	&Notes...
	
PSTAT	PSTAT	REF600-11020	Potentiostat
VDC	POTEN	0.00000E+000	T	DC &Voltage (V)
FREQINIT	QUANT	1.00000E+006	Initial Fre&q. (Hz)
FREQFINAL	QUANT	1.00000E+000	Final Fre&q. (Hz)
PTSPERDEC	QUANT	1.00000E+001	Points/&decade
VAC	QUANT	2.50000E+001	AC &Voltage (mV rms)
AREA	QUANT	1.00000E-002	&Area (cm^2)
CONDIT	TWOPARAM	T	5.00000E+000	0.00000E+000	Conditionin&g	Time(s)	E(V)
DELAY	TWOPARAM	T	5.00000E+000	0.00000E+000	Init. De&lay	Time(s)	Stab.(mV/s)
SPEED	SELECTOR	1	&Optimize for:
ZGUESS	QUANT	1.00000E+007	E&stimated Z (ohms)
OCVCURVE	TABLE	19
	Pt	T	Vf	Vm	Ach	Over
	#	s	V vs. Ref.	V	V	bits
	0	0.258333	2.15952E-002	2.15952E-002	5.63399E-004	...........
	1	0.516667	2.16189E-002	2.28358E-002	5.67232E-004	...........
	2	0.775	2.17637E-002	2.39726E-002	5.61999E-004	...........
	3	1.03333	2.21704E-002	2.50398E-002	5.63966E-004	...........
	4	1.29167	2.28909E-002	2.60512E-002	5.57099E-004	...........
	5	1.55	2.38382E-002	2.70243E-002	5.61832E-004	...........
	6	1.80833	2.48764E-002	2.79017E-002	5.58599E-004	...........
	7	2.06667	2.59068E-002	2.87624E-002	5.60766E-004	...........
	8	2.325	2.68848E-002	2.95700E-002	5.59766E-004	...........
	9	2.58333	2.78015E-002	3.03322E-002	5.63799E-004	...........
	10	2.84167	2.86629E-002	3.10697E-002	5.66332E-004	...........
	11	3.1	2.94772E-002	3.17755E-002	5.64899E-004	...........
	12	3.35833	3.02514E-002	3.24512E-002	5.62966E-004	...........
	13	3.61667	3.09909E-002	3.31027E-002	5.62799E-004	...........
	14	3.875	3.16995E-002	3.37248E-002	5.59666E-004	...........
	15	4.13333	3.23794E-002	3.43236E-002	5.60899E-004	...........
	16	4.39167	3.30319E-002	3.49009E-002	5.66466E-004	...........
	17	4.65	3.36586E-002	3.54596E-002	5.66432E-004	...........
	18	4.90833	3.42612E-002	3.59930E-002	5.65132E-004	...........
EOC	QUANT	0.0342612	Open Circuit (V)
PSTATMODEL	IQUANT	4	Pstat Model
PSTATSECTION	LABEL	REF600-11020	Pstat Section
PSTATSERIALNO	LABEL	11020	Pstat Serial Number
CTRLMODE	IQUANT	1	Control Mode
IESTAB	IQUANT	0	I/E Stability
CASPEED	IQUANT	1	Control Amp Speed
CONVENTION	IQUANT	1	Current Convention
ICHRANGE	IQUANT	2	Ich Range
ICHRANGEMODE	TOGGLE	F	Ich Auto Range
ICHOFFSETENABLE	TOGGLE	T	Ich Offset Enable
ICHOFFSET	QUANT	0	Ich Offset (V)
ICHFILTER	IQUANT	3	Ich Filter
VCHRANGE	IQUANT	2	Vch Range
VCHRANGEMODE	TOGGLE	F	Vch Auto Range
VCHOFFSETENABLE	TOGGLE	T	Vch Offset Enable
VCHOFFSET	QUANT	0	Vch Offset (V)
VCHFILTER	IQUANT	3	Vch Filter
ACHRANGE	IQUANT	2	Ach Range
ACHOFFSETENABLE	TOGGLE	F	Ach Offset Enable
ACHOFFSET	QUANT	0	Ach Offset (V)
ACHFILTER	IQUANT	3	Ach Filter
IERANGELOWERLIMIT	IQUANT	1	I/E Range Lower Limit
IERANGEMODE	TOGGLE	F	I/E AutoRange
IERANGE	IQUANT	3	I/E Range
POSFEEDENABLE	TOGGLE	F	Positive Feedback IR Comp
POSFEEDRESISTANCE	QUANT	0	Positive Feedback Resistance (ohm)
ACHSELECT	IQUANT	0	Ach Select
CABLEID	IQUANT	14	Cable ID
DCCALDATE	LABEL	8/19/2019	DC Calibration Date
ACCALDATE	LABEL	8/19/2019	AC Calibration Date
THERMOSELECT	IQUANT	1	Thermo Select
FRAMEWORKVERSION	QUANT	6.33	Framework Version
INSTRUMENTVERSION	LABEL	3.50	Instrument Version
ZCURVE	TABLE
	Pt	Time	Freq	Zreal	Zimag	Zsig	Zmod	Zphz	Idc	Vdc	IERange
	#	s	Hz	ohm	ohm	V	ohm	°	A	V	#
	0	2	1000078	2258.078	-1250.534	1	2581.23	-28.97789	-5.686288E-006	0.036919	8
	1	3	794390.6	2478.843	-1151.582	1	2733.277	-24.91791	-3.166354E-006	0.0372374	8
	2	5	630984.4	2667.885	-1029.13	1	2859.497	-21.09399	-3.744161E-006	0.0369456	8
	3	6	501234.4	2807.573	-898.9168	1	2947.968	-17.75381	-3.846607E-006	0.0368425	8
	4	7	398109.4	2913.77	-774.8043	1	3015.025	-14.891	6.489291E-006	0.0347207	8
	5	9	316265.6	3009.761	-684.8437	1	3086.693	-12.81888	1.824685E-006	0.035205	8
	6	10	251203.1	3070.356	-615.4568	1	3131.433	-11.33479	-8.327342E-007	0.0360631	8
	7	12	199546.9	3121.91	-540.614	1	3168.373	-9.82435	-3.700421E-006	0.0366159	8
	8	13	158578.1	3160.646	-478.7599	1	3196.7	-8.613419	2.937135E-006	0.0352699	8
	9	14	125953.1	3225.41	-408.727	1	3251.204	-7.222082	-3.627214E-007	0.0357271	7
	10	16	100078.1	3257.775	-392.7065	1	3281.359	-6.87352	2.832806E-008	0.0357788	7
	11	17	79453.13	3293.203	-389.678	1	3316.178	-6.748315	-3.055913E-009	0.0357388	7
	12	18	63140.62	3330.799	-396.191	1	3354.28	-6.78333	-6.807978E-009	0.0358238	7
	13	19	50203.12	3370.385	-409.4306	1	3395.162	-6.926291	-9.563044E-009	0.0358184	7
	14	21	39890.62	3411.745	-431.1746	1	3438.883	-7.202826	7.973507E-008	0.0356451	7
	15	22	31640.63	3457.625	-460.7866	1	3488.193	-7.590898	-4.913404E-008	0.03582	7
	16	23	25171.88	3506.727	-498.1823	1	3541.938	-8.085605	-4.846676E-008	0.0358165	7
	17	25	20015.62	3560.933	-544.8472	1	3602.375	-8.699182	-2.04645E-008	0.0357722	7
	18	26	15890.62	3618.118	-599.2419	1	3667.407	-9.404105	-8.1675E-009	0.0358131	7
	19	27	12609.37	3685.984	-669.4785	1	3746.289	-10.29431	-3.874753E-009	0.0357288	7
	20	29	10078.13	3755.627	-746.1526	1	3829.031	-11.23697	-2.469946E-008	0.0359434	7
	21	30	8015.625	3836.074	-837.7823	1	3926.492	-12.31972	-4.60149E-008	0.0358461	7
	22	31	6328.125	3925.42	-949.3937	1	4038.598	-13.59634	3.146131E-008	0.0357598	7
	23	33	5015.625	4025.748	-1077.791	1	4167.527	-14.98798	2.082862E-008	0.0356974	7
	24	34	3984.375	4133.379	-1225.998	1	4311.368	-16.52083	8.148063E-008	0.0356418	7
	25	35	3170.956	4253.556	-1397.19	1	4477.151	-18.1841	1.977845E-008	0.0356963	7
	26	37	2527.573	4383.292	-1595.405	1	4664.608	-20.00019	2.069422E-008	0.0356949	7
	27	38	1976.103	4537.116	-1848.527	1	4899.232	-22.16713	-4.206747E-008	0.035813	7
	28	39	1577.524	4687.844	-2126.364	1	5147.553	-24.39861	7.90928E-008	0.0356418	7
	29	41	1265.625	4848.044	-2465.625	1	5439.011	-26.95704	-5.337478E-009	0.0358167	7
	30	42	998.264	5018.857	-2868.254	1	5780.641	-29.74777	2.22453E-008	0.0356974	7
	31	43	796.875	5194.614	-3360.218	1	6186.686	-32.89745	-5.453166E-008	0.0358941	7
	32	45	627.7902	5391.591	-4004.247	1	6715.895	-36.60067	-5.417051E-008	0.0358951	7
	33	46	505.5147	5590.133	-4728.857	1	7322	-40.22886	7.475923E-008	0.0357547	7
	34	47	397.9953	5839.806	-5723.37	1	8176.814	-44.42308	5.20214E-009	0.0358115	7
	35	49	315.5048	6125.418	-6930.636	1	9249.565	-48.52919	5.285018E-009	0.0358102	7
	36	50	252.4038	6465.644	-8361.277	1	10569.56	-52.28578	-1.130359E-010	0.0357473	6
	37	51	198.6229	6922.237	-10262.19	1	12378.61	-55.99885	-8.95531E-010	0.0357442	6
	38	53	158.3615	7477.684	-12470.88	1	14540.93	-59.05262	-1.692942E-009	0.0357412	6
	39	54	125.558	8217.375	-15237.58	1	17312.11	-61.66275	-6.157543E-010	0.0357404	6
	40	56	100.4464	9153.194	-18438.85	1	20585.72	-63.59982	1.070467E-010	0.0357387	6
	41	57	79.00281	10485.26	-22608.71	1	24921.77	-65.11952	-1.517543E-009	0.035738	6
	42	58	63.3446	11833.34	-27398.82	1	29844.99	-66.64085	-1.156003E-009	0.0357384	6
	43	60	49.86702	14283.88	-33005.58	1	35963.84	-66.5984	-1.843123E-009	0.0357369	6
	44	61	39.72458	16949.51	-39923.3	1	43372.29	-66.99625	-1.27059E-009	0.0357465	6
	45	62	31.6723	20503.24	-47624.23	1	51850.27	-66.7071	-1.916681E-009	0.0357441	6
	46	64	24.93351	25041.59	-57256.13	1	62492.77	-66.37732	-8.697182E-010	0.0357367	6
	47	65	19.86229	30431.5	-67893.92	1	74402.02	-65.85706	-7.286681E-010	0.0357443	6
	48	66	15.83615	36626.41	-80475.98	1	88418.77	-65.52866	-1.09526E-010	0.0357401	6
	49	68	12.40079	46444.8	-95674.7	1	106352.1	-64.10598	-1.805959E-009	0.0357444	5
	50	69	9.93114	56004.33	-110614.3	1	123983.9	-63.14679	-2.129643E-009	0.0357528	5
	51	71	7.944915	67686.16	-128218	1	144987.1	-62.17047	-1.707984E-009	0.0357408	5
	52	72	6.317385	81873.91	-149205.4	1	170192.8	-61.24497	-1.940743E-009	0.0357495	5
	53	74	5.008013	99077.7	-172963.9	1	199331.1	-60.19492	-1.639721E-009	0.0357435	5
	54	77	3.945707	119953.3	-200515.3	1	233656.1	-59.11108	-1.257003E-009	0.0357475	5
	55	79	3.158693	142743.9	-229079.4	1	269913.3	-58.07215	-1.431616E-009	0.0357623	5
	56	83	2.504006	170211.1	-262897.5	1	313188.3	-57.07925	-1.837271E-009	0.0357396	5
	57	85	1.998082	201151.9	-299170	1	360506.3	-56.08443	-1.831795E-009	0.0357153	5
	58	88	1.584686	236716.8	-339541.7	1	413912.3	-55.11711	-1.728734E-009	0.0357602	5
	59	92	1.266892	276826.3	-383769.7	1	473193.4	-54.19579	-1.617017E-009	0.0356998	5
	60	96	0.999041	323007.8	-435338.8	1	542083	-53.42574	-1.595128E-009	0.0357875	5
