EXPLAIN
TAG	EISPOT
TITLE	LABEL	Potentiostatic EIS	Test &Identifier
DATE	LABEL	8/16/2017	Date
TIME	LABEL	16:32:33	Time
NOTES	NOTES	1	&Notes...
	
PSTAT	PSTAT	REF600-11020	Potentiostat
VDC	POTEN	0.00000E+000	T	DC &Voltage (V)
FREQINIT	QUANT	1.00000E+006	Initial Fre&q. (Hz)
FREQFINAL	QUANT	1.00000E+000	Final Fre&q. (Hz)
PTSPERDEC	QUANT	1.00000E+001	Points/&decade
VAC	QUANT	2.50000E+001	AC &Voltage (mV rms)
AREA	QUANT	1.00000E-002	&Area (cm^2)
CONDIT	TWOPARAM	T	5.00000E+000	0.00000E+000	Conditionin&g	Time(s)	E(V)
DELAY	TWOPARAM	T	5.00000E+000	0.00000E+000	Init. De&lay	Time(s)	Stab.(mV/s)
SPEED	SELECTOR	0	&Optimize for:
ZGUESS	QUANT	1.00000E+005	E&stimated Z (ohms)
OCVCURVE	TABLE	19
	Pt	T	Vf	Vm	Ach	Over
	#	s	V vs. Ref.	V	V	bits
	0	0.258333	4.52392E-003	4.52392E-003	5.35966E-004	...........
	1	0.516667	4.39963E-003	-1.98244E-003	5.35566E-004	...........
	2	0.775	3.56142E-003	-1.20734E-002	5.37299E-004	...........
	3	1.03333	1.17824E-003	-9.34445E-003	5.35933E-004	...........
	4	1.29167	-2.57643E-003	-8.97997E-003	5.35033E-004	...........
	5	1.55	-6.18591E-003	-8.39633E-003	5.32833E-004	...........
	6	1.80833	-8.31719E-003	-7.28349E-003	5.36933E-004	...........
	7	2.06667	-8.87268E-003	-6.81893E-003	5.39999E-004	...........
	8	2.325	-8.47435E-003	-6.24338E-003	5.42633E-004	...........
	9	2.58333	-7.74267E-003	-6.30716E-003	5.43766E-004	...........
	10	2.84167	-7.05728E-003	-5.95151E-003	5.43499E-004	...........
	11	3.1	-6.55988E-003	-5.81913E-003	5.41366E-004	...........
	12	3.35833	-6.23241E-003	-5.60134E-003	5.40166E-004	...........
	13	3.61667	-5.99880E-003	-5.34430E-003	5.43699E-004	...........
	14	3.875	-5.79543E-003	-5.12700E-003	5.41366E-004	...........
	15	4.13333	-5.58948E-003	-4.93108E-003	5.41299E-004	...........
	16	4.39167	-5.37501E-003	-4.72803E-003	5.35666E-004	...........
	17	4.65	-5.16132E-003	-4.61654E-003	5.35933E-004	...........
	18	4.90833	-4.96219E-003	-4.53912E-003	5.39466E-004	...........
EOC	QUANT	-0.0049622	Open Circuit (V)
PSTATMODEL	IQUANT	4	Pstat Model
PSTATSECTION	LABEL	REF600-11020	Pstat Section
PSTATSERIALNO	LABEL	11020	Pstat Serial Number
CTRLMODE	IQUANT	1	Control Mode
IESTAB	IQUANT	0	I/E Stability
CASPEED	IQUANT	1	Control Amp Speed
CONVENTION	IQUANT	1	Current Convention
ICHRANGE	IQUANT	2	Ich Range
ICHRANGEMODE	TOGGLE	F	Ich Auto Range
ICHOFFSETENABLE	TOGGLE	T	Ich Offset Enable
ICHOFFSET	QUANT	0	Ich Offset (V)
ICHFILTER	IQUANT	3	Ich Filter
VCHRANGE	IQUANT	2	Vch Range
VCHRANGEMODE	TOGGLE	F	Vch Auto Range
VCHOFFSETENABLE	TOGGLE	T	Vch Offset Enable
VCHOFFSET	QUANT	0	Vch Offset (V)
VCHFILTER	IQUANT	3	Vch Filter
ACHRANGE	IQUANT	2	Ach Range
ACHOFFSETENABLE	TOGGLE	F	Ach Offset Enable
ACHOFFSET	QUANT	0	Ach Offset (V)
ACHFILTER	IQUANT	3	Ach Filter
IERANGELOWERLIMIT	IQUANT	1	I/E Range Lower Limit
IERANGEMODE	TOGGLE	F	I/E AutoRange
IERANGE	IQUANT	4	I/E Range
POSFEEDENABLE	TOGGLE	F	Positive Feedback IR Comp
POSFEEDRESISTANCE	QUANT	0	Positive Feedback Resistance (ohm)
ACHSELECT	IQUANT	0	Ach Select
CABLEID	IQUANT	14	Cable ID
DCCALDATE	LABEL	8/19/2019	DC Calibration Date
ACCALDATE	LABEL	8/19/2019	AC Calibration Date
THERMOSELECT	IQUANT	1	Thermo Select
FRAMEWORKVERSION	QUANT	6.33	Framework Version
INSTRUMENTVERSION	LABEL	3.50	Instrument Version
ZCURVE	TABLE
	Pt	Time	Freq	Zreal	Zimag	Zsig	Zmod	Zphz	Idc	Vdc	IERange
	#	s	Hz	ohm	ohm	V	ohm	°	A	V	#
	0	2	1000078	2146.427	-1169.12	1	2444.175	-28.57635	5.200397E-008	-0.0021742	8
	1	2	794390.6	2363.521	-1075.091	1	2596.546	-24.45927	-5.279589E-007	-0.0026017	8
	2	2	630984.4	2538.691	-956.891	1	2713.041	-20.65257	-2.530093E-007	-0.0036477	8
	3	3	501234.4	2679.773	-832.6022	1	2806.138	-17.25996	2.296048E-006	-0.0038986	8
	4	3	398109.4	2793.675	-716.4868	1	2884.09	-14.38447	6.141719E-006	-0.0041953	8
	5	3	316265.6	2858.568	-621.7562	1	2925.405	-12.27106	-3.030071E-006	-0.0029318	8
	6	3	251203.1	2919.249	-529.0489	1	2966.801	-10.2721	4.152298E-006	-0.0035071	8
	7	4	199546.9	2960.294	-459.2549	1	2995.706	-8.818471	-9.181668E-007	-0.0030363	8
	8	4	158578.1	2948.626	-410.8784	1	2977.115	-7.93284	-8.078688E-007	-0.0030264	8
	9	4	125953.1	3044.881	-314.9421	1	3061.125	-5.905293	-1.447977E-006	0.0003567	7
	10	5	100078.1	3067.918	-284.9331	1	3081.121	-5.306128	-1.040332E-006	-0.002964	7
	11	5	79453.13	3087.717	-270.1195	1	3099.509	-4.999619	-1.225404E-006	-0.0020313	7
	12	5	63140.62	3111.201	-264.7859	1	3122.448	-4.864567	-3.086225E-007	-0.0043388	7
	13	6	50203.12	3132.236	-264.143	1	3143.354	-4.820376	-7.35898E-007	-0.0036422	7
	14	6	39890.62	3155.578	-269.978	1	3167.106	-4.890078	4.801396E-007	-0.0051593	7
	15	6	31640.63	3177.165	-282.092	1	3189.663	-5.073836	1.121129E-007	-0.0048595	7
	16	7	25171.88	3198.126	-299.8044	1	3212.148	-5.355472	-1.234299E-006	-0.0020294	7
	17	7	20015.62	3221.938	-325.5991	1	3238.348	-5.770544	-8.94979E-007	-0.0018171	7
	18	7	15890.62	3247.552	-363.1555	1	3267.793	-6.380558	1.122083E-007	-0.0048577	7
	19	8	12609.37	3272.518	-411.1451	1	3298.244	-7.160876	-3.090992E-007	-0.0043417	7
	20	8	10078.13	3297.833	-468.871	1	3330.997	-8.091824	-6.177584E-007	-0.0019043	7
	21	8	8015.625	3315.729	-543.2367	1	3359.936	-9.304463	-3.110479E-007	-0.004344	7
	22	9	6328.125	3358.735	-642.5139	1	3419.638	-10.82964	6.20229E-007	-0.0033098	7
	23	9	5015.625	3391.241	-763.3521	1	3476.093	-12.68557	-1.228821E-006	-0.0020378	7
	24	9	3984.375	3429.625	-912.8348	1	3549.027	-14.9044	-6.161598E-007	-0.0019095	7
	25	9	3170.956	3479.162	-1097.473	1	3648.153	-17.50745	1.017138E-006	-0.0042261	7
	26	10	2527.573	3533.398	-1318.684	1	3771.449	-20.46585	1.098982E-006	-0.0046375	7
	27	10	1976.103	3600.427	-1615.251	1	3946.151	-24.16232	-1.052011E-006	-0.0029726	7
	28	10	1577.524	3691.854	-1953.815	1	4176.982	-27.88883	-7.342149E-007	-0.0036576	7
	29	11	1265.625	3771.07	-2347.12	1	4441.839	-31.8982	1.08189E-006	-0.0049654	7
	30	11	998.264	3885.037	-2867.031	1	4828.393	-36.42612	7.73405E-007	-0.0052664	7
	31	11	796.875	4007.814	-3473.605	1	5303.631	-40.91574	1.098616E-006	-0.0046402	7
	32	12	627.7902	4173.97	-4254.787	1	5960.306	-45.54935	-1.096985E-006	-0.0018792	7
	33	12	505.5147	4343.747	-5131.474	1	6723.106	-49.75238	-6.134122E-007	-0.0019111	7
	34	12	397.9953	4564.54	-6329.504	1	7803.695	-54.20264	3.059721E-010	-0.0034781	7
	35	13	315.5048	4834.232	-7765.944	1	9147.66	-58.0981	3.110999E-009	-0.0034897	7
	36	13	252.4038	5160.535	-9462.072	1	10777.84	-61.39232	-2.478038E-010	-0.0035504	6
	37	13	198.6229	5601.191	-11710.86	1	12981.44	-64.43867	3.335462E-010	-0.0035397	6
	38	14	158.3615	6141.434	-14332.04	1	15592.45	-66.80435	2.052837E-010	-0.0035475	6
	39	14	125.558	6854.991	-17613.6	1	18900.52	-68.73463	-2.627064E-011	-0.0035421	6
	40	14	100.4464	7734.862	-21437.16	1	22789.91	-70.15977	-3.718194E-010	-0.0035542	6
	41	15	79.00281	9095.063	-26493.71	1	28011.37	-71.05309	-1.444703E-010	-0.003547	6
	42	15	63.3446	10259.29	-32287.18	1	33877.95	-72.37228	-1.427513E-010	-0.0035503	6
	43	15	49.86702	12515.73	-39595.44	1	41526.4	-72.45876	-7.066518E-010	-0.0035503	6
	44	16	39.72458	15478.3	-47957.39	1	50393.35	-72.11246	3.587187E-010	-0.0035558	6
	45	16	31.6723	19106.88	-57915.92	1	60986.29	-71.7419	8.928263E-010	-0.0035569	6
	46	16	24.93351	23762.6	-70454.52	1	74353.88	-71.36199	-1.369916E-010	-0.0035562	6
	47	17	19.86229	29578.29	-84617.21	1	89637.87	-70.73272	8.452126E-011	-0.0035509	6
	48	17	15.83615	37294.19	-101373	1	108015.5	-69.8019	-2.067038E-010	-0.0035514	5
	49	17	12.40079	48033.73	-120761.6	1	129963.8	-68.30948	2.111687E-009	-0.0035539	5
	50	18	9.93114	58834.57	-143728.6	1	155304.3	-67.73852	-6.449289E-010	-0.003559	5
	51	18	7.944915	73024.95	-168566.4	1	183704.3	-66.57718	-1.193808E-009	-0.0035429	5
	52	19	6.317385	91568.91	-198075.7	1	218217.4	-65.18925	-7.132471E-010	-0.0035424	5
	53	20	5.008013	114018.8	-231527.2	1	258079.7	-63.78142	-4.894641E-010	-0.0035489	5
	54	21	3.945707	141992.3	-269859.5	1	304936	-62.24794	1.812464E-011	-0.0035538	5
	55	22	3.158693	171646.1	-309481.3	1	353894.1	-60.98615	-5.398273E-011	-0.0035294	5
	56	24	2.504006	208337.9	-355940.3	1	412429.6	-59.65884	-2.924423E-010	-0.0035451	5
	57	25	1.998082	247372.2	-405217.1	1	474756.7	-58.59725	-1.702423E-010	-0.0035546	5
	58	27	1.584686	294622.2	-461565.6	1	547581	-57.44948	2.027971E-010	-0.0035136	5
	59	29	1.266892	342910.8	-524716.4	1	626829.4	-56.83472	-7.79343E-012	-0.0035174	5
	60	31	0.999041	397661	-599617.8	1	719496.9	-56.44803	-1.147024E-011	-0.003539	5
