EXPLAIN
TAG	EISPOT
TITLE	LABEL	Potentiostatic EIS	Test &Identifier
DATE	LABEL	9/26/2019	Date
TIME	LABEL	10:29:50	Time
NOTES	NOTES	2	&Notes...
	
	
PSTAT	PSTAT	REF600-11020	Potentiostat
VDC	POTEN	0.00000E+000	T	DC &Voltage (V)
FREQINIT	QUANT	1.00000E+006	Initial Fre&q. (Hz)
FREQFINAL	QUANT	1.00000E+000	Final Fre&q. (Hz)
PTSPERDEC	QUANT	1.00000E+001	Points/&decade
VAC	QUANT	2.50000E+001	AC &Voltage (mV rms)
AREA	QUANT	1.00000E-002	&Area (cm^2)
CONDIT	TWOPARAM	T	5.00000E+000	0.00000E+000	Conditionin&g	Time(s)	E(V)
DELAY	TWOPARAM	T	5.00000E+000	0.00000E+000	Init. De&lay	Time(s)	Stab.(mV/s)
SPEED	SELECTOR	1	&Optimize for:
ZGUESS	QUANT	1.00000E+004	E&stimated Z (ohms)
OCVCURVE	TABLE	19
	Pt	T	Vf	Vm	Ach	Over
	#	s	V vs. Ref.	V	V	bits
	0	0.258333	5.94950E-002	5.94950E-002	5.68266E-004	...........
	1	0.516667	5.95796E-002	6.39227E-002	5.68499E-004	...........
	2	0.775	6.00914E-002	6.77228E-002	5.63432E-004	...........
	3	1.03333	6.15184E-002	7.15914E-002	5.67266E-004	...........
	4	1.29167	6.40332E-002	7.48944E-002	5.64999E-004	...........
	5	1.55	6.73176E-002	7.79419E-002	5.68799E-004	...........
	6	1.80833	7.08646E-002	8.06807E-002	5.65132E-004	...........
	7	2.06667	7.43016E-002	8.35072E-002	5.68199E-004	...........
	8	2.325	7.74858E-002	8.61472E-002	5.66299E-004	...........
	9	2.58333	8.04296E-002	8.83852E-002	5.62566E-004	...........
	10	2.84167	8.31744E-002	9.05670E-002	5.66532E-004	...........
	11	3.1	8.57310E-002	9.26198E-002	5.69199E-004	...........
	12	3.35833	8.81045E-002	9.46129E-002	5.71732E-004	...........
	13	3.61667	9.03161E-002	9.63337E-002	5.70666E-004	...........
	14	3.875	9.23877E-002	9.81108E-002	5.66899E-004	...........
	15	4.13333	9.43331E-002	9.97355E-002	5.68399E-004	...........
	16	4.39167	9.61675E-002	1.01352E-001	5.63232E-004	...........
	17	4.65	9.79090E-002	1.02830E-001	5.64399E-004	...........
	18	4.90833	9.95701E-002	1.04257E-001	5.63866E-004	...........
EOC	QUANT	0.0995701	Open Circuit (V)
PSTATMODEL	IQUANT	4	Pstat Model
PSTATSECTION	LABEL	REF600-11020	Pstat Section
PSTATSERIALNO	LABEL	11020	Pstat Serial Number
CTRLMODE	IQUANT	1	Control Mode
IESTAB	IQUANT	0	I/E Stability
CASPEED	IQUANT	1	Control Amp Speed
CONVENTION	IQUANT	1	Current Convention
ICHRANGE	IQUANT	2	Ich Range
ICHRANGEMODE	TOGGLE	F	Ich Auto Range
ICHOFFSETENABLE	TOGGLE	T	Ich Offset Enable
ICHOFFSET	QUANT	0	Ich Offset (V)
ICHFILTER	IQUANT	3	Ich Filter
VCHRANGE	IQUANT	2	Vch Range
VCHRANGEMODE	TOGGLE	F	Vch Auto Range
VCHOFFSETENABLE	TOGGLE	T	Vch Offset Enable
VCHOFFSET	QUANT	0	Vch Offset (V)
VCHFILTER	IQUANT	3	Vch Filter
ACHRANGE	IQUANT	2	Ach Range
ACHOFFSETENABLE	TOGGLE	F	Ach Offset Enable
ACHOFFSET	QUANT	0	Ach Offset (V)
ACHFILTER	IQUANT	3	Ach Filter
IERANGELOWERLIMIT	IQUANT	1	I/E Range Lower Limit
IERANGEMODE	TOGGLE	F	I/E AutoRange
IERANGE	IQUANT	7	I/E Range
POSFEEDENABLE	TOGGLE	F	Positive Feedback IR Comp
POSFEEDRESISTANCE	QUANT	0	Positive Feedback Resistance (ohm)
ACHSELECT	IQUANT	0	Ach Select
CABLEID	IQUANT	14	Cable ID
DCCALDATE	LABEL	8/19/2019	DC Calibration Date
ACCALDATE	LABEL	8/19/2019	AC Calibration Date
THERMOSELECT	IQUANT	1	Thermo Select
FRAMEWORKVERSION	QUANT	6.33	Framework Version
INSTRUMENTVERSION	LABEL	3.50	Instrument Version
ZCURVE	TABLE
	Pt	Time	Freq	Zreal	Zimag	Zsig	Zmod	Zphz	Idc	Vdc	IERange
	#	s	Hz	ohm	ohm	V	ohm	°	A	V	#
	0	1	1000078	1994.696	-1458.919	1	2471.286	-36.1817	2.25668E-006	0.1016272	8
	1	3	794390.6	2237.993	-1476.4	1	2681.114	-33.41277	-2.067969E-006	0.1016758	8
	2	4	630984.4	2489.056	-1491.454	1	2901.695	-30.93023	6.289217E-006	0.100205	8
	3	6	501234.4	2717.295	-1473.428	1	3091.065	-28.46835	8.579804E-007	0.100737	8
	4	7	398109.4	2969.988	-1470.871	1	3314.255	-26.34668	1.229952E-006	0.1008615	8
	5	8	316265.6	3198.436	-1437.236	1	3506.514	-24.19705	5.0875E-007	0.1011664	8
	6	10	251203.1	3418.042	-1432.455	1	3706.068	-22.73789	-3.023014E-006	0.1015343	8
	7	12	199546.9	3618.223	-1355.604	1	3863.832	-20.53898	-2.159132E-006	0.1015099	8
	8	13	158578.1	3848.938	-1335.696	1	4074.115	-19.13829	4.858366E-006	0.1002096	8
	9	15	125953.1	4069.177	-1243.608	1	4254.969	-16.99402	5.101376E-007	0.0999483	7
	10	16	100078.1	4235.829	-1211.788	1	4405.754	-15.96479	1.285902E-007	0.1008546	7
	11	17	79453.13	4404.188	-1186.562	1	4561.228	-15.07843	-5.187191E-008	0.1011009	7
	12	19	63140.62	4560.068	-1164.446	1	4706.395	-14.32477	-4.377863E-008	0.1010612	7
	13	20	50203.12	4709.876	-1150.516	1	4848.363	-13.72724	-1.417461E-008	0.1011712	7
	14	22	39890.62	4856.403	-1146.896	1	4989.992	-13.28761	7.184806E-008	0.1009123	7
	15	23	31640.63	4994.792	-1155.422	1	5126.69	-13.02487	-8.27694E-009	0.1010637	7
	16	24	25171.88	5134.484	-1176.274	1	5267.5	-12.9034	4.124857E-008	0.1009007	7
	17	26	20015.62	5273.418	-1214.749	1	5411.52	-12.97198	-5.430663E-008	0.1012056	7
	18	27	15890.62	5418.97	-1264.986	1	5564.659	-13.13964	-1.15258E-008	0.1009872	7
	19	28	12609.37	5568.607	-1333.874	1	5726.133	-13.47051	-8.093681E-008	0.1011617	7
	20	30	10078.13	5718.91	-1413.881	1	5891.094	-13.88672	-1.89612E-008	0.1010921	7
	21	31	8015.625	5882.706	-1520.876	1	6076.125	-14.49548	8.229559E-008	0.1009823	7
	22	33	6328.125	6052.27	-1652.384	1	6273.782	-15.27067	-4.924004E-008	0.1011263	7
	23	35	5015.625	6233.11	-1808.519	1	6490.178	-16.17994	-3.941126E-008	0.1010439	7
	24	36	3984.375	6423.558	-1998.005	1	6727.118	-17.27795	-3.938757E-008	0.1010453	7
	25	38	3170.956	6636.816	-2221.566	1	6998.763	-18.50713	-7.791568E-009	0.1010524	7
	26	39	2527.573	6862.002	-2482.592	1	7297.283	-19.88953	-1.881891E-008	0.1010925	7
	27	41	1976.103	7127.628	-2813.237	1	7662.727	-21.53889	-4.832224E-008	0.1010789	7
	28	43	1577.524	7386.016	-3174.958	1	8039.502	-23.26097	-1.16295E-008	0.1009835	7
	29	44	1265.625	7662.971	-3587.702	1	8461.249	-25.08838	-1.171865E-008	0.1011634	7
	30	46	998.264	7951.692	-4121.146	1	8956.186	-27.39648	-1.71618E-008	0.1010841	7
	31	47	796.875	8252.118	-4729.07	1	9511.13	-29.81588	-1.119211E-008	0.1010557	6
	32	49	627.7902	8576.058	-5541.027	1	10210.37	-32.86668	-1.976214E-009	0.1010283	6
	33	50	505.5147	8903.004	-6454.317	1	10996.44	-35.94059	-3.798842E-009	0.1011018	6
	34	51	397.9953	9293.681	-7706.127	1	12072.98	-39.66482	-3.310918E-009	0.1009888	6
	35	53	315.5048	9746.72	-9225.041	1	13420.13	-43.4249	-3.047453E-009	0.1009893	6
	36	54	252.4038	10263.46	-11018.35	1	15057.98	-47.03149	-3.161016E-009	0.1009881	6
	37	55	198.6229	10956.72	-13382.33	1	17295.56	-50.69126	-3.322185E-009	0.1009899	6
	38	57	158.3615	11794.9	-16117.9	1	19972.64	-53.80376	-3.552123E-009	0.1009881	6
	39	58	125.558	12881.48	-19540.97	1	23404.74	-56.60698	-3.617198E-009	0.100992	6
	40	60	100.4464	14264.76	-23493.12	1	27484.72	-58.73434	-4.497589E-009	0.1009854	6
	41	61	79.00281	16075.26	-28497.78	1	32719.07	-60.57317	-4.065282E-009	0.1009879	6
	42	62	63.3446	18274.91	-33726.92	1	38359.84	-61.54898	-4.646449E-009	0.1009841	6
	43	64	49.86702	21840.04	-41423.77	1	46828.58	-62.20026	-4.453222E-009	0.1009758	6
	44	65	39.72458	25463.64	-49367.1	1	55547.34	-62.71523	-3.409144E-009	0.1009815	6
	45	67	31.6723	30490.76	-58702.08	1	66148.47	-62.55194	-3.397004E-009	0.1009772	6
	46	68	24.93351	36849.01	-69635.74	1	78784.43	-62.11364	-3.710478E-009	0.1009887	6
	47	69	19.86229	44785.03	-81542.66	1	93031.74	-61.22344	-4.319243E-009	0.1009882	6
	48	71	15.83615	53439.06	-93867.02	1	108012.7	-60.34688	-3.003957E-009	0.1009922	5
	49	72	12.40079	66909.63	-109861.6	1	128633.1	-58.65711	-2.744485E-009	0.1009853	5
	50	74	9.93114	80510.35	-126144.3	1	149647.3	-57.45236	-3.672021E-009	0.1009926	5
	51	75	7.944915	96178.7	-142949.4	1	172293	-56.0667	-3.901232E-009	0.1009939	5
	52	77	6.317385	113303.2	-161357.2	1	197164.3	-54.9239	-3.982572E-009	0.1010061	5
	53	79	5.008013	133252.5	-181810.9	1	225414	-53.76163	-3.903622E-009	0.1009915	5
	54	81	3.945707	154583.9	-204942.2	1	256705.1	-52.97347	-3.560376E-009	0.1009946	5
	55	84	3.158693	176034.3	-229539.2	1	289268.6	-52.51529	-4.098231E-009	0.1009822	5
	56	87	2.504006	199944.8	-259617.2	1	327687.4	-52.39824	-3.474673E-009	0.1009949	5
	57	90	1.998082	223787.3	-294044.5	1	369517.2	-52.72646	-3.770865E-009	0.1010293	5
	58	93	1.584686	250398	-336758.9	1	419649.5	-53.36725	-3.679983E-009	0.1009677	5
	59	97	1.266892	280308.6	-388585.2	1	479136.1	-54.19494	-3.661105E-009	0.10102	5
	60	101	0.999041	317334.9	-453912.5	1	553839.3	-55.0422	-3.826862E-009	0.100947	5
