EXPLAIN
TAG	EISPOT
TITLE	LABEL	Potentiostatic EIS	Test &Identifier
DATE	LABEL	10/20/2019	Date
TIME	LABEL	10:23:43	Time
NOTES	NOTES	1	&Notes...
	
PSTAT	PSTAT	REF600-11020	Potentiostat
VDC	POTEN	0.00000E+000	T	DC &Voltage (V)
FREQINIT	QUANT	1.00000E+006	Initial Fre&q. (Hz)
FREQFINAL	QUANT	1.00000E+000	Final Fre&q. (Hz)
PTSPERDEC	QUANT	1.00000E+001	Points/&decade
VAC	QUANT	2.50000E+001	AC &Voltage (mV rms)
AREA	QUANT	1.00000E-002	&Area (cm^2)
CONDIT	TWOPARAM	T	5.00000E+000	0.00000E+000	Conditionin&g	Time(s)	E(V)
DELAY	TWOPARAM	T	5.00000E+000	0.00000E+000	Init. De&lay	Time(s)	Stab.(mV/s)
SPEED	SELECTOR	1	&Optimize for:
ZGUESS	QUANT	1.00000E+005	E&stimated Z (ohms)
OCVCURVE	TABLE	19
	Pt	T	Vf	Vm	Ach	Over
	#	s	V vs. Ref.	V	V	bits
	0	0.258333	4.40259E-003	4.40259E-003	5.84999E-004	...........
	1	0.516667	4.39997E-003	4.26556E-003	5.83832E-004	...........
	2	0.775	4.38437E-003	4.16041E-003	5.82599E-004	...........
	3	1.03333	4.34197E-003	4.06809E-003	5.78699E-004	...........
	4	1.29167	4.27008E-003	3.99104E-003	5.82665E-004	...........
	5	1.55	4.18093E-003	3.92230E-003	5.81299E-004	...........
	6	1.80833	4.09019E-003	3.86664E-003	5.88799E-004	...........
	7	2.06667	4.00758E-003	3.80987E-003	5.85732E-004	...........
	8	2.325	3.93569E-003	3.75871E-003	5.86165E-004	...........
	9	2.58333	3.87300E-003	3.71412E-003	5.85465E-004	...........
	10	2.84167	3.81703E-003	3.66944E-003	5.83032E-004	...........
	11	3.1	3.76616E-003	3.63512E-003	5.82899E-004	...........
	12	3.35833	3.71983E-003	3.60510E-003	5.78199E-004	...........
	13	3.61667	3.67815E-003	3.57202E-003	5.80065E-004	...........
	14	3.875	3.64096E-003	3.54404E-003	5.78466E-004	...........
	15	4.13333	3.60731E-003	3.51435E-003	5.81399E-004	...........
	16	4.39167	3.57597E-003	3.48508E-003	5.80432E-004	...........
	17	4.65	3.54618E-003	3.46818E-003	5.82832E-004	...........
	18	4.90833	3.51813E-003	3.44682E-003	5.82365E-004	...........
EOC	QUANT	0.0035181	Open Circuit (V)
PSTATMODEL	IQUANT	4	Pstat Model
PSTATSECTION	LABEL	REF600-11020	Pstat Section
PSTATSERIALNO	LABEL	11020	Pstat Serial Number
CTRLMODE	IQUANT	1	Control Mode
IESTAB	IQUANT	0	I/E Stability
CASPEED	IQUANT	1	Control Amp Speed
CONVENTION	IQUANT	1	Current Convention
ICHRANGE	IQUANT	2	Ich Range
ICHRANGEMODE	TOGGLE	F	Ich Auto Range
ICHOFFSETENABLE	TOGGLE	T	Ich Offset Enable
ICHOFFSET	QUANT	0	Ich Offset (V)
ICHFILTER	IQUANT	3	Ich Filter
VCHRANGE	IQUANT	2	Vch Range
VCHRANGEMODE	TOGGLE	F	Vch Auto Range
VCHOFFSETENABLE	TOGGLE	T	Vch Offset Enable
VCHOFFSET	QUANT	0	Vch Offset (V)
VCHFILTER	IQUANT	3	Vch Filter
ACHRANGE	IQUANT	2	Ach Range
ACHOFFSETENABLE	TOGGLE	F	Ach Offset Enable
ACHOFFSET	QUANT	0	Ach Offset (V)
ACHFILTER	IQUANT	3	Ach Filter
IERANGELOWERLIMIT	IQUANT	1	I/E Range Lower Limit
IERANGEMODE	TOGGLE	F	I/E AutoRange
IERANGE	IQUANT	4	I/E Range
POSFEEDENABLE	TOGGLE	F	Positive Feedback IR Comp
POSFEEDRESISTANCE	QUANT	0	Positive Feedback Resistance (ohm)
ACHSELECT	IQUANT	0	Ach Select
CABLEID	IQUANT	14	Cable ID
DCCALDATE	LABEL	8/19/2019	DC Calibration Date
ACCALDATE	LABEL	8/19/2019	AC Calibration Date
THERMOSELECT	IQUANT	1	Thermo Select
FRAMEWORKVERSION	QUANT	6.33	Framework Version
INSTRUMENTVERSION	LABEL	3.50	Instrument Version
ZCURVE	TABLE
	Pt	Time	Freq	Zreal	Zimag	Zsig	Zmod	Zphz	Idc	Vdc	IERange
	#	s	Hz	ohm	ohm	V	ohm	°	A	V	#
	0	2	1000078	2856.451	-1939.024	1	3452.408	-34.16956	-1.036222E-006	0.0062578	8
	1	4	794390.6	3234.3	-1853.793	1	3727.901	-29.81991	-1.751086E-006	0.0054933	8
	2	5	630984.4	3575.037	-1696.514	1	3957.151	-25.38642	-3.327365E-006	0.0059569	8
	3	7	501234.4	3827.808	-1544.79	1	4127.771	-21.97754	-3.182189E-006	0.0059067	8
	4	8	398109.4	4051.609	-1337.521	1	4266.672	-18.26914	-2.081698E-006	0.0055718	8
	5	9	316265.6	4236.755	-1163.697	1	4393.665	-15.35851	-1.928832E-006	0.0056646	8
	6	11	251203.1	4369.878	-1001.256	1	4483.119	-12.90524	4.998813E-007	0.0050781	8
	7	13	199546.9	4471.926	-866.9985	1	4555.195	-10.97215	1.091011E-006	0.0049318	8
	8	14	158578.1	4539.694	-755.6262	1	4602.151	-9.450171	-3.056942E-006	0.0056529	8
	9	16	125953.1	4646.871	-611.8053	1	4686.973	-7.500402	4.705829E-007	0.0043718	7
	10	17	100078.1	4668.471	-550.5372	1	4700.82	-6.725638	1.208735E-007	0.0048595	7
	11	18	79453.13	4711.824	-518.8917	1	4740.31	-6.2844	1.255241E-007	0.0048444	7
	12	20	63140.62	4752.489	-501.3889	1	4778.864	-6.022443	-8.289434E-009	0.0050917	7
	13	21	50203.12	4794.575	-495.9379	1	4820.156	-5.905519	1.246724E-007	0.0048463	7
	14	22	39890.62	4835.541	-502.5849	1	4861.589	-5.933766	1.158728E-007	0.0049104	7
	15	24	31640.63	4883.171	-520.9124	1	4910.876	-6.089001	-7.289666E-008	0.0051884	7
	16	25	25171.88	4932.704	-553.0683	1	4963.612	-6.397441	-7.014317E-008	0.0051284	7
	17	26	20015.62	4981	-581.0415	1	5014.775	-6.653572	9.531846E-008	0.0048215	7
	18	28	15890.62	5043.212	-650.5103	1	5084.993	-7.349845	-7.171213E-008	0.005179	7
	19	29	12609.37	5105.983	-717.9354	1	5156.209	-8.0037	-4.719003E-008	0.0050426	7
	20	30	10078.13	5174.112	-798.1943	1	5235.318	-8.769711	-4.429431E-008	0.005041	7
	21	32	8015.625	5250.25	-902.8174	1	5327.308	-9.75699	4.882929E-008	0.0048657	7
	22	33	6328.125	5330.484	-1017.358	1	5426.701	-10.80533	-5.621872E-009	0.005018	7
	23	35	5015.625	5416.036	-1162.878	1	5539.47	-12.11801	3.34272E-008	0.0050965	7
	24	36	3984.375	5502.942	-1336.817	1	5662.989	-13.65424	-9.035218E-008	0.005151	7
	25	37	3170.956	5609.792	-1548.945	1	5819.708	-15.43561	-1.665933E-008	0.0049768	7
	26	39	2527.573	5720.468	-1799.071	1	5996.7	-17.45821	-2.620904E-008	0.0050034	7
	27	40	1976.103	5843.25	-2138.055	1	6222.125	-20.09766	6.217172E-008	0.0049294	7
	28	41	1577.524	5938.679	-2513.107	1	6448.536	-22.93692	1.08044E-008	0.0049618	7
	29	43	1265.625	6121.208	-2966.636	1	6802.215	-25.85709	1.368526E-008	0.004924	7
	30	44	998.264	6302.487	-3554.277	1	7235.622	-29.42075	1.311714E-008	0.0049218	7
	31	45	796.875	6487.584	-4246.334	1	7753.715	-33.20605	1.246485E-007	0.0048367	7
	32	47	627.7902	6709.561	-5135.765	1	8449.515	-37.43188	-4.470412E-008	0.0050385	7
	33	48	505.5147	6952.271	-6124.653	1	9265.281	-41.37867	5.565772E-008	0.0049586	7
	34	50	397.9953	7252.818	-7469.432	1	10411.33	-45.84295	1.74925E-009	0.0049795	6
	35	51	315.5048	7593.547	-9083.179	1	11839.18	-50.10434	1.080214E-009	0.0049722	6
	36	52	252.4038	7975.308	-10993.53	1	13581.72	-54.04081	1.253804E-009	0.0049742	6
	37	54	198.6229	8472.645	-13533.2	1	15966.63	-57.95081	3.372773E-010	0.0049757	6
	38	55	158.3615	9053.963	-16493.05	1	18814.75	-61.23514	2.570694E-010	0.0049752	6
	39	56	125.558	9802.23	-20250.18	1	22497.86	-64.17039	1.104765E-009	0.0049739	6
	40	58	100.4464	10696.4	-24643.8	1	26865.03	-66.53722	1.930018E-009	0.0049728	6
	41	59	79.00281	11934.85	-30421.03	1	32678.43	-68.57882	1.543763E-009	0.0049665	6
	42	61	63.3446	13495.91	-36406.21	1	38827.2	-69.66008	2.182305E-010	0.0049701	6
	43	62	49.86702	16157.96	-46114.95	1	48863.77	-70.69033	-2.702698E-010	0.004968	6
	44	63	39.72458	18680.94	-55704.62	1	58753.57	-71.46076	2.653447E-010	0.0049765	6
	45	65	31.6723	22482.03	-67897.58	1	71522.88	-71.67942	1.131137E-009	0.0049693	6
	46	66	24.93351	27341.13	-83085.87	1	87468.84	-71.78513	5.640967E-010	0.0049696	6
	47	68	19.86229	33719.65	-100733.3	1	106227.1	-71.49244	2.201394E-011	0.0049765	5
	48	69	15.83615	41850.2	-119058.4	1	126199.6	-70.63292	-1.165688E-009	0.004982	5
	49	70	12.40079	53728.23	-149090	1	158475.7	-70.18213	1.840216E-009	0.0049774	5
	50	72	9.93114	66716.45	-175105.5	1	187384.7	-69.1428	4.020365E-010	0.0049802	5
	51	74	7.944915	83259.98	-207077	1	223188.5	-68.0963	-4.011864E-010	0.0049757	5
	52	75	6.317385	107940.1	-243996.9	1	266806.2	-66.1362	-1.096183E-010	0.0049722	5
	53	77	5.008013	136354.7	-286536	1	317325.5	-64.55149	-2.085497E-010	0.0049697	5
	54	80	3.945707	173410.9	-335013.5	1	377233.9	-62.63284	8.937393E-011	0.0049736	5
	55	83	3.158693	214122.7	-383915.7	1	439590.5	-60.85011	1.196323E-011	0.0049621	5
	56	86	2.504006	263752.9	-439234.9	1	512340.6	-59.01591	2.03866E-010	0.0049838	5
	57	89	1.998082	318288.6	-496548	1	589802.9	-57.34002	4.592567E-010	0.0049684	5
	58	92	1.584686	383983.4	-559506.5	1	678594.7	-55.5386	2.395492E-011	0.0049267	5
	59	96	1.266892	449792.1	-625147.1	1	770144	-54.26506	3.68653E-010	0.0049629	5
	60	100	0.999041	528055.1	-703038.9	1	879264.4	-53.08965	-2.264249E-010	0.0049832	5
