EXPLAIN
TAG	EISPOT
TITLE	LABEL	Potentiostatic EIS	Test &Identifier
DATE	LABEL	11/3/2019	Date
TIME	LABEL	11:45:52	Time
NOTES	NOTES	1	&Notes...
	
PSTAT	PSTAT	REF600-11020	Potentiostat
VDC	POTEN	0.00000E+000	T	DC &Voltage (V)
FREQINIT	QUANT	1.00000E+006	Initial Fre&q. (Hz)
FREQFINAL	QUANT	1.00000E+000	Final Fre&q. (Hz)
PTSPERDEC	QUANT	1.00000E+001	Points/&decade
VAC	QUANT	2.50000E+001	AC &Voltage (mV rms)
AREA	QUANT	1.00000E-002	&Area (cm^2)
CONDIT	TWOPARAM	T	5.00000E+000	0.00000E+000	Conditionin&g	Time(s)	E(V)
DELAY	TWOPARAM	T	5.00000E+000	0.00000E+000	Init. De&lay	Time(s)	Stab.(mV/s)
SPEED	SELECTOR	1	&Optimize for:
ZGUESS	QUANT	1.00000E+005	E&stimated Z (ohms)
OCVCURVE	TABLE	19
	Pt	T	Vf	Vm	Ach	Over
	#	s	V vs. Ref.	V	V	bits
	0	0.258333	5.39974E-003	5.39974E-003	5.52666E-004	...........
	1	0.516667	5.39883E-003	5.35210E-003	5.61532E-004	...........
	2	0.775	5.39347E-003	5.31888E-003	5.52266E-004	...........
	3	1.03333	5.37919E-003	5.29333E-003	5.50866E-004	...........
	4	1.29167	5.35594E-003	5.28544E-003	5.55066E-004	...........
	5	1.55	5.32948E-003	5.27719E-003	5.57766E-004	...........
	6	1.80833	5.30657E-003	5.27588E-003	5.57499E-004	...........
	7	2.06667	5.29065E-003	5.27934E-003	5.58232E-004	...........
	8	2.325	5.28178E-003	5.27878E-003	5.58332E-004	...........
	9	2.58333	5.27849E-003	5.29234E-003	5.55233E-004	...........
	10	2.84167	5.27941E-003	5.30097E-003	5.55533E-004	...........
	11	3.1	5.28391E-003	5.31347E-003	5.55833E-004	...........
	12	3.35833	5.29142E-003	5.32143E-003	5.60766E-004	...........
	13	3.61667	5.30092E-003	5.33736E-003	5.60899E-004	...........
	14	3.875	5.31159E-003	5.34833E-003	5.59432E-004	...........
	15	4.13333	5.32312E-003	5.36288E-003	5.54699E-004	...........
	16	4.39167	5.33541E-003	5.37587E-003	5.58499E-004	...........
	17	4.65	5.34840E-003	5.39632E-003	5.57766E-004	...........
	18	4.90833	5.36225E-003	5.40641E-003	5.57099E-004	...........
EOC	QUANT	0.0053622	Open Circuit (V)
PSTATMODEL	IQUANT	4	Pstat Model
PSTATSECTION	LABEL	REF600-11020	Pstat Section
PSTATSERIALNO	LABEL	11020	Pstat Serial Number
CTRLMODE	IQUANT	1	Control Mode
IESTAB	IQUANT	0	I/E Stability
CASPEED	IQUANT	1	Control Amp Speed
CONVENTION	IQUANT	1	Current Convention
ICHRANGE	IQUANT	2	Ich Range
ICHRANGEMODE	TOGGLE	F	Ich Auto Range
ICHOFFSETENABLE	TOGGLE	T	Ich Offset Enable
ICHOFFSET	QUANT	0	Ich Offset (V)
ICHFILTER	IQUANT	3	Ich Filter
VCHRANGE	IQUANT	2	Vch Range
VCHRANGEMODE	TOGGLE	F	Vch Auto Range
VCHOFFSETENABLE	TOGGLE	T	Vch Offset Enable
VCHOFFSET	QUANT	0	Vch Offset (V)
VCHFILTER	IQUANT	3	Vch Filter
ACHRANGE	IQUANT	2	Ach Range
ACHOFFSETENABLE	TOGGLE	F	Ach Offset Enable
ACHOFFSET	QUANT	0	Ach Offset (V)
ACHFILTER	IQUANT	3	Ach Filter
IERANGELOWERLIMIT	IQUANT	1	I/E Range Lower Limit
IERANGEMODE	TOGGLE	F	I/E AutoRange
IERANGE	IQUANT	5	I/E Range
POSFEEDENABLE	TOGGLE	F	Positive Feedback IR Comp
POSFEEDRESISTANCE	QUANT	0	Positive Feedback Resistance (ohm)
ACHSELECT	IQUANT	0	Ach Select
CABLEID	IQUANT	14	Cable ID
DCCALDATE	LABEL	8/19/2019	DC Calibration Date
ACCALDATE	LABEL	8/19/2019	AC Calibration Date
THERMOSELECT	IQUANT	1	Thermo Select
FRAMEWORKVERSION	QUANT	6.33	Framework Version
INSTRUMENTVERSION	LABEL	3.50	Instrument Version
ZCURVE	TABLE
	Pt	Time	Freq	Zreal	Zimag	Zsig	Zmod	Zphz	Idc	Vdc	IERange
	#	s	Hz	ohm	ohm	V	ohm	°	A	V	#
	0	2	1000078	2050.717	-1418.283	1	2493.384	-34.66787	-6.096576E-006	0.0081778	8
	1	3	794390.6	2336.803	-1385.898	1	2716.866	-30.6711	-1.408924E-006	0.0078891	8
	2	4	630984.4	2585.429	-1322.887	1	2904.217	-27.09747	-3.368934E-008	0.0066993	8
	3	6	501234.4	2813.415	-1230.77	1	3070.846	-23.62769	6.616741E-006	0.0061128	8
	4	7	398109.4	3009.403	-1131.17	1	3214.973	-20.60016	-6.660146E-007	0.0065304	8
	5	8	316265.6	3180.505	-1017.532	1	3339.308	-17.74091	-2.768559E-006	0.0073839	8
	6	10	251203.1	3316.899	-908.3472	1	3439.028	-15.3152	6.144464E-006	0.005691	8
	7	11	199546.9	3432.622	-797.9357	1	3524.145	-13.08637	-2.215257E-006	0.0069688	8
	8	13	158578.1	3526.383	-727.5207	1	3600.648	-11.65702	1.874453E-006	0.0071047	8
	9	14	125953.1	3616.896	-566.8344	1	3661.043	-8.90686	-1.020375E-006	0.0078851	7
	10	15	100078.1	3666.375	-501.9292	1	3700.573	-7.795371	-2.848552E-007	0.0081379	7
	11	17	79453.13	3718.614	-452.0515	1	3745.99	-6.931125	4.758734E-007	0.0051035	7
	12	18	63140.62	3759.73	-419.7658	1	3783.091	-6.370568	1.10825E-006	0.0056168	7
	13	19	50203.12	3793.898	-395.1216	1	3814.418	-5.945725	8.456035E-007	0.0065318	7
	14	21	39890.62	3813.789	-377.7144	1	3832.448	-5.65608	-1.230486E-006	0.0078767	7
	15	22	31640.63	3852.45	-375.4691	1	3870.704	-5.566604	9.817908E-007	0.0050656	7
	16	23	25171.88	3870.748	-384.5448	1	3889.803	-5.673512	-8.96959E-007	0.008462	7
	17	25	20015.62	3904.16	-402.3762	1	3924.841	-5.884325	4.048825E-007	0.0072844	7
	18	26	15890.62	3938.088	-434.0693	1	3961.938	-6.289943	1.109453E-006	0.005613	7
	19	28	12609.37	3958.09	-477.1112	1	3986.741	-6.873316	-1.102268E-006	0.0084055	7
	20	29	10078.13	3997.112	-533.8231	1	4032.601	-7.606964	1.026808E-006	0.006027	7
	21	30	8015.625	4029.637	-613.5442	1	4076.078	-8.657248	4.043793E-007	0.0072839	7
	22	32	6328.125	4058.18	-710.44	1	4119.897	-9.92979	-1.231376E-006	0.0078704	7
	23	33	5015.625	4108.961	-836.7076	1	4193.285	-11.50977	8.471834E-007	0.0065216	7
	24	34	3984.375	4155.011	-988.747	1	4271.035	-13.38543	1.111668E-006	0.0056024	7
	25	36	3170.956	4202.609	-1178.988	1	4364.852	-15.67078	4.043825E-007	0.0072739	7
	26	37	2527.573	4253.396	-1409.314	1	4480.797	-18.33203	-7.428504E-007	0.0066135	7
	27	38	1976.103	4330.334	-1721.128	1	4659.836	-21.67577	-2.816048E-007	0.0081175	7
	28	40	1577.524	4412.512	-2056	1	4867.998	-24.98306	8.474663E-007	0.0065215	7
	29	41	1265.625	4512.523	-2500.458	1	5158.988	-28.9915	1.110979E-006	0.0056039	7
	30	43	998.264	4625.589	-3051.439	1	5541.422	-33.4123	-8.950377E-007	0.0084558	7
	31	44	796.875	4763.078	-3702.177	1	6032.663	-37.8567	-1.061744E-006	0.0072929	7
	32	45	627.7902	4945.228	-4540.63	1	6713.613	-42.55766	-7.42286E-007	0.0066109	7
	33	47	505.5147	5144.125	-5474.124	1	7511.861	-46.78009	-7.478798E-007	0.0066129	7
	34	48	397.9953	5411.03	-6741.182	1	8644.233	-51.24659	3.971576E-009	0.0067875	7
	35	50	315.5048	5732.106	-8247.765	1	10044.04	-55.20112	3.117535E-009	0.0067793	7
	36	51	252.4038	6113.908	-10016.64	1	11735.11	-58.60114	9.71104E-010	0.0067191	6
	37	52	198.6229	6623.403	-12351.22	1	14015.06	-61.79734	1.103784E-009	0.0067163	6
	38	54	158.3615	7236.08	-15062.78	1	16710.72	-64.34061	1.282432E-009	0.0067145	6
	39	55	125.558	8033.198	-18470.48	1	20141.77	-66.49477	1.082894E-009	0.0067151	6
	40	56	100.4464	9057.365	-22447.12	1	24205.56	-68.02603	8.211851E-010	0.0067237	6
	41	58	79.00281	10450.78	-27762.24	1	29664.13	-69.37173	9.014929E-010	0.0067247	6
	42	59	63.3446	12345.23	-33867.82	1	36047.66	-69.97259	1.7729E-010	0.0067173	6
	43	61	49.86702	14414.95	-41141.21	1	43593.46	-70.6907	1.144757E-009	0.0067186	6
	44	62	39.72458	17810.44	-49880.61	1	52964.96	-70.35031	9.966891E-010	0.0067153	6
	45	63	31.6723	22248.52	-60115.43	1	64100.4	-69.69065	3.429804E-010	0.0067212	6
	46	65	24.93351	27938.59	-72890.79	1	78061.72	-69.02848	6.102924E-010	0.0067197	6
	47	66	19.86229	35226.6	-86936.35	1	93802.15	-67.94221	8.675878E-010	0.0067143	6
	48	67	15.83615	43479.45	-102446	1	111290.9	-67.003	-7.925866E-010	0.0067159	5
	49	69	12.40079	57005.23	-121345.7	1	134068.5	-64.83701	1.071048E-010	0.0067162	5
	50	70	9.93114	71959.84	-141663.2	1	158892	-63.07106	5.047611E-010	0.0067159	5
	51	72	7.944915	88596.4	-163013.2	1	185533.4	-61.47627	4.736909E-010	0.0067162	5
	52	74	6.317385	109469.1	-185803.3	1	215653.3	-59.49482	7.856878E-010	0.0067111	5
	53	76	5.008013	133418.4	-211377.1	1	249961.5	-57.74041	5.684959E-010	0.006724	5
	54	78	3.945707	161430.7	-239249.3	1	288617.6	-55.99094	-1.565176E-010	0.0067171	5
	55	81	3.158693	189418.4	-267341.9	1	327644.7	-54.68148	2.750173E-010	0.0067301	5
	56	84	2.504006	220969.1	-300091.8	1	372669.4	-53.63437	-3.001792E-010	0.0067125	5
	57	87	1.998082	253086.8	-335338.9	1	420125.1	-52.95744	-2.871361E-010	0.0067092	5
	58	90	1.584686	288214.9	-376034.9	1	473782.8	-52.53135	3.004077E-011	0.0067685	5
	59	94	1.266892	322104.9	-424451.6	1	532832.8	-52.80611	-3.488743E-010	0.0067145	5
	60	98	0.999041	360150.4	-485642.4	1	604612.9	-53.43952	3.002398E-010	0.0067355	5
