EXPLAIN
TAG	EISPOT
TITLE	LABEL	Potentiostatic EIS	Test &Identifier
DATE	LABEL	11/22/2019	Date
TIME	LABEL	9:36:11	Time
NOTES	NOTES	4	&Notes...
	
	
	
	
PSTAT	PSTAT	REF600-11020	Potentiostat
VDC	POTEN	0.00000E+000	T	DC &Voltage (V)
FREQINIT	QUANT	1.00000E+006	Initial Fre&q. (Hz)
FREQFINAL	QUANT	1.00000E+000	Final Fre&q. (Hz)
PTSPERDEC	QUANT	1.00000E+001	Points/&decade
VAC	QUANT	2.50000E+001	AC &Voltage (mV rms)
AREA	QUANT	1.00000E-002	&Area (cm^2)
CONDIT	TWOPARAM	T	5.00000E+000	0.00000E+000	Conditionin&g	Time(s)	E(V)
DELAY	TWOPARAM	T	5.00000E+000	0.00000E+000	Init. De&lay	Time(s)	Stab.(mV/s)
SPEED	SELECTOR	0	&Optimize for:
ZGUESS	QUANT	1.00000E+005	E&stimated Z (ohms)
OCVCURVE	TABLE	19
	Pt	T	Vf	Vm	Ach	Over
	#	s	V vs. Ref.	V	V	bits
	0	0.258333	-6.71727E-003	-6.71727E-003	5.50433E-004	...........
	1	0.516667	-6.72959E-003	-7.36234E-003	5.47999E-004	...........
	2	0.775	-6.80520E-003	-7.97045E-003	5.54199E-004	...........
	3	1.03333	-7.01863E-003	-8.54123E-003	5.51366E-004	...........
	4	1.29167	-7.39861E-003	-9.06829E-003	5.50233E-004	...........
	5	1.55	-7.89979E-003	-9.58625E-003	5.44699E-004	...........
	6	1.80833	-8.44984E-003	-1.00727E-002	5.48599E-004	...........
	7	2.06667	-8.99773E-003	-1.05475E-002	5.54633E-004	...........
	8	2.325	-9.52246E-003	-1.09975E-002	5.55333E-004	...........
	9	2.58333	-1.00211E-002	-1.14431E-002	5.53799E-004	...........
	10	2.84167	-1.04971E-002	-1.18668E-002	5.55166E-004	...........
	11	3.1	-1.09550E-002	-1.22900E-002	5.52099E-004	...........
	12	3.35833	-1.13978E-002	-1.26861E-002	5.51133E-004	...........
	13	3.61667	-1.18275E-002	-1.30870E-002	5.52866E-004	...........
	14	3.875	-1.22450E-002	-1.34669E-002	5.51733E-004	...........
	15	4.13333	-1.26511E-002	-1.38520E-002	5.58232E-004	...........
	16	4.39167	-1.30473E-002	-1.42165E-002	5.52366E-004	...........
	17	4.65	-1.34346E-002	-1.45859E-002	5.49433E-004	...........
	18	4.90833	-1.38137E-002	-1.49348E-002	5.47733E-004	...........
EOC	QUANT	-0.0138137	Open Circuit (V)
PSTATMODEL	IQUANT	4	Pstat Model
PSTATSECTION	LABEL	REF600-11020	Pstat Section
PSTATSERIALNO	LABEL	11020	Pstat Serial Number
CTRLMODE	IQUANT	1	Control Mode
IESTAB	IQUANT	0	I/E Stability
CASPEED	IQUANT	1	Control Amp Speed
CONVENTION	IQUANT	1	Current Convention
ICHRANGE	IQUANT	2	Ich Range
ICHRANGEMODE	TOGGLE	F	Ich Auto Range
ICHOFFSETENABLE	TOGGLE	T	Ich Offset Enable
ICHOFFSET	QUANT	0	Ich Offset (V)
ICHFILTER	IQUANT	3	Ich Filter
VCHRANGE	IQUANT	2	Vch Range
VCHRANGEMODE	TOGGLE	F	Vch Auto Range
VCHOFFSETENABLE	TOGGLE	T	Vch Offset Enable
VCHOFFSET	QUANT	0	Vch Offset (V)
VCHFILTER	IQUANT	3	Vch Filter
ACHRANGE	IQUANT	2	Ach Range
ACHOFFSETENABLE	TOGGLE	F	Ach Offset Enable
ACHOFFSET	QUANT	0	Ach Offset (V)
ACHFILTER	IQUANT	3	Ach Filter
IERANGELOWERLIMIT	IQUANT	1	I/E Range Lower Limit
IERANGEMODE	TOGGLE	F	I/E AutoRange
IERANGE	IQUANT	5	I/E Range
POSFEEDENABLE	TOGGLE	F	Positive Feedback IR Comp
POSFEEDRESISTANCE	QUANT	0	Positive Feedback Resistance (ohm)
ACHSELECT	IQUANT	0	Ach Select
CABLEID	IQUANT	14	Cable ID
DCCALDATE	LABEL	8/19/2019	DC Calibration Date
ACCALDATE	LABEL	8/19/2019	AC Calibration Date
THERMOSELECT	IQUANT	1	Thermo Select
FRAMEWORKVERSION	QUANT	6.33	Framework Version
INSTRUMENTVERSION	LABEL	3.50	Instrument Version
ZCURVE	TABLE
	Pt	Time	Freq	Zreal	Zimag	Zsig	Zmod	Zphz	Idc	Vdc	IERange
	#	s	Hz	ohm	ohm	V	ohm	°	A	V	#
	0	2	1000078	1276.053	-1639.428	1	2077.508	-52.1045	1.941773E-007	-0.0119223	8
	1	2	794390.6	1386.306	-1923.061	1	2370.655	-54.21273	-8.73704E-008	-0.0122197	8
	2	2	630984.4	1508.206	-2275.176	1	2729.673	-56.45974	-1.019669E-006	-0.0114558	8
	3	2	501234.4	1657.615	-2708.297	1	3175.304	-58.53125	6.795758E-006	-0.0133561	8
	4	3	398109.4	1839.083	-3239.497	1	3725.126	-60.41615	-3.284139E-006	-0.0122508	8
	5	3	316265.6	2053.038	-3890.053	1	4398.577	-62.17643	7.471423E-006	-0.0130054	8
	6	3	251203.1	2359.313	-4698.127	1	5257.257	-63.33504	-3.967175E-006	-0.0116324	8
	7	4	199546.9	2717.941	-5684.406	1	6300.768	-64.44568	-2.415589E-006	-0.0122855	8
	8	4	158578.1	3183.141	-6710.366	1	7427.072	-64.62212	-1.605405E-006	-0.012426	8
	9	4	125953.1	3995.909	-8087.835	1	9021.107	-63.70768	-4.505498E-007	-0.0084653	7
	10	5	100078.1	4765.457	-9684.98	1	10793.9	-63.80068	2.291942E-007	-0.0112103	7
	11	5	79453.13	5864.852	-11580.43	1	12980.86	-63.14029	-1.489551E-006	-0.0107627	7
	12	5	63140.62	7284.797	-13609.56	1	15436.59	-61.84116	-2.022539E-007	-0.0107208	7
	13	6	50203.12	9040.874	-16156.95	1	18514.44	-60.77012	-6.831713E-008	-0.0136667	7
	14	6	39890.62	11504.19	-18412.71	1	21711.15	-58.00301	-6.138024E-007	-0.0103825	7
	15	6	31640.63	14301.66	-21470.38	1	25797.57	-56.33196	4.01087E-007	-0.0141274	7
	16	7	25171.88	17800.2	-23671.12	1	29617.04	-53.05759	1.122249E-006	-0.0127738	7
	17	7	20015.62	21801.86	-26153.12	1	34048.59	-50.18462	-1.024525E-006	-0.0121751	7
	18	7	15890.62	26675.15	-28787.42	1	39246.39	-47.18103	1.096096E-006	-0.0143672	7
	19	8	12609.37	32236.58	-29516.45	1	43708.33	-42.47783	1.776746E-007	-0.0131799	6
	20	8	10078.13	37104.55	-30631.46	1	48114.8	-39.54119	1.166951E-008	-0.0145336	6
	21	8	8015.625	42045.31	-31639.26	1	52619.87	-36.9616	1.923184E-007	-0.0150118	6
	22	9	6328.125	47383.2	-32011.25	1	57182.93	-34.04226	7.762508E-008	-0.011252	6
	23	9	5015.625	52313.15	-32469.33	1	61570.47	-31.82673	7.746475E-008	-0.0112517	6
	24	9	3984.375	57303.82	-33136.07	1	66194.61	-30.03875	1.78362E-007	-0.0131824	6
	25	10	3170.956	61821.5	-33352.71	1	70244.59	-28.34686	7.731725E-008	-0.0112534	6
	26	10	2527.573	66765.35	-34261.87	1	75043.24	-27.16547	7.246099E-008	-0.0150552	6
	27	11	1976.103	71233.63	-34606.12	1	79194.78	-25.91102	-5.518462E-008	-0.0096633	6
	28	11	1577.524	80230.46	-38343.98	1	88922.37	-25.54421	2.007209E-007	-0.0145487	6
	29	11	1265.625	81414.73	-37305.66	1	89554.84	-24.61808	1.255904E-007	-0.015334	6
	30	12	998.264	85969.55	-38493.85	1	94194.16	-24.121	7.847321E-008	-0.0112608	6
	31	12	796.875	91434.68	-39985.66	1	99795.6	-23.62043	-5.150867E-008	-0.0137926	6
	32	13	627.7902	97406.4	-40699.7	1	105567.3	-22.67684	2.00542E-008	-0.0135343	5
	33	13	505.5147	102594.7	-42751.89	1	111145.8	-22.62182	2.16309E-008	-0.0143056	5
	34	13	397.9953	108465.4	-45227.21	1	117517	-22.63486	1.037576E-009	-0.0123152	5
	35	14	315.5048	114478.8	-47842.97	1	124073.9	-22.68103	6.429028E-010	-0.0123111	5
	36	14	252.4038	120629.4	-50899.5	1	130928.3	-22.87728	1.177095E-009	-0.0123149	5
	37	14	198.6229	127124.1	-54573.37	1	138343	-23.23347	1.119317E-009	-0.0123014	5
	38	15	158.3615	133843.8	-58463.52	1	146055.3	-23.5959	8.318118E-010	-0.0123041	5
	39	15	125.558	140795.9	-63527.42	1	154464.3	-24.285	1.068563E-009	-0.0123004	5
	40	15	100.4464	147218.4	-68877.86	1	162534.3	-25.0731	2.251529E-009	-0.0123061	5
	41	16	79.00281	156202.2	-74537.15	1	173074.9	-25.50971	1.616222E-009	-0.0123157	5
	42	16	63.3446	171352	-90139.58	1	193614.7	-27.74657	1.389193E-009	-0.0123076	5
	43	16	49.86702	177866.4	-98632.9	1	203383.6	-29.00985	1.636132E-009	-0.0123234	5
	44	17	39.72458	187435.6	-105440.7	1	215057.8	-29.35964	1.205257E-009	-0.012318	5
	45	17	31.6723	200445.2	-116791.5	1	231988.3	-30.22767	1.359219E-009	-0.0123123	5
	46	17	24.93351	214592.8	-132037.5	1	251960.3	-31.6037	1.56145E-009	-0.0123133	5
	47	18	19.86229	231504.9	-148752.5	1	275176	-32.7226	2.753089E-009	-0.012314	5
	48	18	15.83615	256568.7	-160096.1	1	302420.7	-31.96372	-8.123569E-010	-0.0123077	5
	49	18	12.40079	273967.4	-186858.5	1	331623.7	-34.29581	1.406111E-009	-0.0123206	5
	50	19	9.93114	298548.7	-202968.6	1	361009.1	-34.20986	7.671946E-010	-0.0123147	5
	51	19	7.944915	325312.8	-225289.9	1	395706.9	-34.70388	5.040675E-010	-0.0123111	5
	52	20	6.317385	354939.7	-249270.5	1	433725.7	-35.07998	5.416673E-010	-0.012301	5
	53	20	5.008013	389495.3	-274874.5	1	476720.7	-35.21136	7.152265E-010	-0.0123251	5
	54	22	3.945707	428235.9	-301365	1	523647.6	-35.13543	1.240135E-009	-0.0123147	5
	55	23	3.158693	464966.7	-329785.8	1	570046.2	-35.34684	1.216422E-009	-0.0123072	5
	56	25	2.504006	507206.5	-361829.2	1	623039.9	-35.50317	8.415162E-010	-0.0123133	5
	57	26	1.998082	547586.7	-397720.8	1	676781.3	-35.99149	8.941148E-010	-0.0123151	5
	58	27	1.584686	593610.9	-439561.4	1	738639.4	-36.51948	1.049667E-009	-0.0122727	5
	59	29	1.266892	641133	-490484.7	1	807234	-37.417	1.039325E-009	-0.0122875	5
	60	32	0.999041	695084.1	-554211.1	1	888983.6	-38.56639	1.045635E-009	-0.0123058	5
