EXPLAIN
TAG	EISPOT
TITLE	LABEL	Potentiostatic EIS	Test &Identifier
DATE	LABEL	8/16/2017	Date
TIME	LABEL	16:41:52	Time
NOTES	NOTES	1	&Notes...
	
PSTAT	PSTAT	REF600-11020	Potentiostat
VDC	POTEN	0.00000E+000	T	DC &Voltage (V)
FREQINIT	QUANT	1.00000E+006	Initial Fre&q. (Hz)
FREQFINAL	QUANT	1.00000E+000	Final Fre&q. (Hz)
PTSPERDEC	QUANT	1.00000E+001	Points/&decade
VAC	QUANT	2.50000E+001	AC &Voltage (mV rms)
AREA	QUANT	1.00000E-002	&Area (cm^2)
CONDIT	TWOPARAM	T	5.00000E+000	0.00000E+000	Conditionin&g	Time(s)	E(V)
DELAY	TWOPARAM	T	5.00000E+000	0.00000E+000	Init. De&lay	Time(s)	Stab.(mV/s)
SPEED	SELECTOR	0	&Optimize for:
ZGUESS	QUANT	1.00000E+005	E&stimated Z (ohms)
OCVCURVE	TABLE	19
	Pt	T	Vf	Vm	Ach	Over
	#	s	V vs. Ref.	V	V	bits
	0	0.258333	6.58440E-003	6.58440E-003	5.40866E-004	...........
	1	0.516667	6.58311E-003	6.51685E-003	5.38299E-004	...........
	2	0.775	6.57541E-003	6.46469E-003	5.43599E-004	...........
	3	1.03333	6.55493E-003	6.44277E-003	5.41266E-004	...........
	4	1.29167	6.52202E-003	6.41840E-003	5.42333E-004	...........
	5	1.55	6.48241E-003	6.27366E-003	5.38399E-004	...........
	6	1.80833	6.43151E-003	6.00208E-003	5.38833E-004	...........
	7	2.06667	6.34811E-003	5.81547E-003	5.38266E-004	...........
	8	2.325	6.21989E-003	5.87738E-003	5.38633E-004	...........
	9	2.58333	6.07598E-003	6.02556E-003	5.37233E-004	...........
	10	2.84167	5.97754E-003	6.23856E-003	5.37799E-004	...........
	11	3.1	5.97303E-003	6.51655E-003	5.40766E-004	...........
	12	3.35833	6.06846E-003	6.56996E-003	5.34533E-004	...........
	13	3.61667	6.22487E-003	6.51173E-003	5.35866E-004	...........
	14	3.875	6.37661E-003	6.47238E-003	5.32466E-004	...........
	15	4.13333	6.47265E-003	6.50135E-003	5.34266E-004	...........
	16	4.39167	6.50838E-003	6.52572E-003	5.34699E-004	...........
	17	4.65	6.51331E-003	6.55322E-003	5.34733E-004	...........
	18	4.90833	6.51629E-003	6.57500E-003	5.36733E-004	...........
EOC	QUANT	0.0065163	Open Circuit (V)
PSTATMODEL	IQUANT	4	Pstat Model
PSTATSECTION	LABEL	REF600-11020	Pstat Section
PSTATSERIALNO	LABEL	11020	Pstat Serial Number
CTRLMODE	IQUANT	1	Control Mode
IESTAB	IQUANT	0	I/E Stability
CASPEED	IQUANT	1	Control Amp Speed
CONVENTION	IQUANT	1	Current Convention
ICHRANGE	IQUANT	2	Ich Range
ICHRANGEMODE	TOGGLE	F	Ich Auto Range
ICHOFFSETENABLE	TOGGLE	T	Ich Offset Enable
ICHOFFSET	QUANT	0	Ich Offset (V)
ICHFILTER	IQUANT	3	Ich Filter
VCHRANGE	IQUANT	2	Vch Range
VCHRANGEMODE	TOGGLE	F	Vch Auto Range
VCHOFFSETENABLE	TOGGLE	T	Vch Offset Enable
VCHOFFSET	QUANT	0	Vch Offset (V)
VCHFILTER	IQUANT	3	Vch Filter
ACHRANGE	IQUANT	2	Ach Range
ACHOFFSETENABLE	TOGGLE	F	Ach Offset Enable
ACHOFFSET	QUANT	0	Ach Offset (V)
ACHFILTER	IQUANT	3	Ach Filter
IERANGELOWERLIMIT	IQUANT	1	I/E Range Lower Limit
IERANGEMODE	TOGGLE	F	I/E AutoRange
IERANGE	IQUANT	5	I/E Range
POSFEEDENABLE	TOGGLE	F	Positive Feedback IR Comp
POSFEEDRESISTANCE	QUANT	0	Positive Feedback Resistance (ohm)
ACHSELECT	IQUANT	0	Ach Select
CABLEID	IQUANT	14	Cable ID
DCCALDATE	LABEL	8/19/2019	DC Calibration Date
ACCALDATE	LABEL	8/19/2019	AC Calibration Date
THERMOSELECT	IQUANT	1	Thermo Select
FRAMEWORKVERSION	QUANT	6.33	Framework Version
INSTRUMENTVERSION	LABEL	3.50	Instrument Version
ZCURVE	TABLE
	Pt	Time	Freq	Zreal	Zimag	Zsig	Zmod	Zphz	Idc	Vdc	IERange
	#	s	Hz	ohm	ohm	V	ohm	°	A	V	#
	0	1	1000078	1990.557	-1223.238	1	2336.371	-31.57158	-6.497518E-006	0.0094909	8
	1	1	794390.6	2213.651	-1168.588	1	2503.167	-27.8296	-3.913368E-006	0.0089474	8
	2	2	630984.4	2416.021	-1094.527	1	2652.385	-24.3719	-3.625432E-006	0.009006	8
	3	2	501234.4	2593.089	-998.685	1	2778.755	-21.06336	5.414651E-008	0.0087392	8
	4	2	398109.4	2725.462	-908.6343	1	2872.935	-18.43773	-9.497467E-008	0.0078106	8
	5	3	316265.6	2841.25	-823.0551	1	2958.061	-16.15528	-2.171752E-006	0.0082753	8
	6	3	251203.1	2949.064	-742.2069	1	3041.027	-14.12656	-2.575807E-007	0.0078365	8
	7	3	199546.9	3023.265	-677.5078	1	3098.249	-12.63119	4.000077E-006	0.0080703	8
	8	4	158578.1	3095.565	-620.1008	1	3157.063	-11.32751	6.001558E-006	0.0069908	8
	9	4	125953.1	3183.632	-538.3593	1	3228.83	-9.59804	5.758537E-007	0.0101927	7
	10	4	100078.1	3232.363	-515.221	1	3273.167	-9.05645	8.401762E-007	0.0078187	7
	11	5	79453.13	3283.477	-502.4297	1	3321.695	-8.69978	-3.222713E-007	0.0072386	7
	12	5	63140.62	3332.484	-505.55	1	3370.613	-8.626207	-8.880015E-007	0.0097472	7
	13	5	50203.12	3391.576	-515.5923	1	3430.542	-8.644006	7.636939E-007	0.0062983	7
	14	5	39890.62	3443.419	-534.0134	1	3484.581	-8.815338	9.745619E-008	0.0067171	7
	15	6	31640.63	3500.292	-561.6171	1	3545.061	-9.115338	-2.758931E-007	0.0094094	7
	16	6	25171.88	3557.977	-597.16	1	3607.741	-9.52755	-8.896595E-007	0.0097466	7
	17	6	20015.62	3625.636	-644.3008	1	3682.439	-10.07666	6.312337E-007	0.0082291	7
	18	7	15890.62	3695.909	-702.8143	1	3762.139	-10.76682	1.101756E-006	0.0069029	7
	19	7	12609.37	3762.292	-769.7107	1	3840.221	-11.56234	-7.443288E-007	0.0079283	7
	20	7	10078.13	3840.343	-851.0191	1	3933.506	-12.49482	-1.060678E-006	0.0086003	7
	21	8	8015.625	3923.484	-951.495	1	4037.21	-13.63178	-8.877889E-007	0.0097405	7
	22	8	6328.125	4018.487	-1079.114	1	4160.856	-15.03144	1.082597E-006	0.0065823	7
	23	8	5015.625	4107.644	-1222.215	1	4285.621	-16.57019	-1.233641E-006	0.0095336	7
	24	9	3984.375	4206.147	-1393.645	1	4431.018	-18.33186	-1.060477E-006	0.0085986	7
	25	9	3170.956	4314.856	-1609.492	1	4605.263	-20.4561	4.692241E-007	0.006405	7
	26	9	2527.573	4420.082	-1864.299	1	4797.159	-22.86901	-6.075945E-007	0.0096437	7
	27	10	1976.103	4542.979	-2211.965	1	5052.866	-25.96133	7.638174E-007	0.006287	7
	28	10	1577.524	4676.378	-2594.399	1	5347.842	-29.021	-1.060358E-006	0.0085915	7
	29	10	1265.625	4797.27	-3083.164	1	5702.604	-32.7285	7.635267E-007	0.0062873	7
	30	11	998.264	4958.101	-3715.26	1	6195.637	-36.84537	9.699848E-008	0.0067063	7
	31	11	796.875	5131.359	-4468.282	1	6804.146	-41.04868	9.717004E-007	0.006357	7
	32	11	627.7902	5350.749	-5437.376	1	7628.602	-45.46007	4.129583E-007	0.0085455	7
	33	12	505.5147	5595.922	-6532.598	1	8601.696	-49.41614	9.198595E-008	0.0066952	7
	34	12	397.9953	5922.807	-8002.471	1	9955.86	-53.49403	2.401031E-009	0.0080763	7
	35	12	315.5048	6324.559	-9768.25	1	11636.96	-57.07853	-8.475314E-010	0.0080192	6
	36	13	252.4038	6796.868	-11839	1	13651.35	-60.1395	8.012077E-010	0.008012	6
	37	13	198.6229	7433.829	-14566.91	1	16354.1	-62.96374	-3.430788E-010	0.0080153	6
	38	13	158.3615	8193.36	-17720.23	1	19522.75	-65.18544	-3.412243E-010	0.0080126	6
	39	14	125.558	9173.726	-21650.8	1	23514.14	-67.037	2.406231E-011	0.0080067	6
	40	14	100.4464	10344	-26229.06	1	28195.07	-68.47713	1.37213E-009	0.008006	6
	41	14	79.00281	12042.82	-32170.46	1	34350.66	-69.47691	6.587547E-010	0.0080064	6
	42	15	63.3446	14138.48	-39549.14	1	42000.37	-70.32846	-7.649496E-011	0.0080021	6
	43	15	49.86702	16825.07	-48228.91	1	51079.46	-70.76824	-4.382595E-010	0.0080017	6
	44	15	39.72458	20497.62	-57953.75	1	61471.86	-70.52187	-2.72613E-010	0.0080133	6
	45	16	31.6723	25236.62	-69639.36	1	74071.09	-70.07999	-5.466407E-010	0.0080075	6
	46	16	24.93351	31558.61	-84827.78	1	90508	-69.59321	7.311194E-010	0.0079981	6
	47	16	19.86229	39707.15	-101607	1	109090	-68.65485	1.866107E-009	0.0080193	5
	48	17	15.83615	49247.63	-118889.3	1	128685.6	-67.49915	9.492732E-010	0.0080146	5
	49	17	12.40079	63663.25	-142861.5	1	156404.7	-65.98086	-1.369279E-009	0.0080137	5
	50	17	9.93114	81801.21	-167686.5	1	186574.9	-63.99585	-4.434767E-010	0.0080116	5
	51	18	7.944915	101472.6	-193464.5	1	218461	-62.32288	5.327082E-010	0.007998	5
	52	19	6.317385	126228.6	-221123.1	1	254615.6	-60.28002	1.745655E-010	0.008009	5
	53	19	5.008013	154956.4	-251612.4	1	295500	-58.37302	-2.509821E-010	0.0080097	5
	54	20	3.945707	187798.8	-284866.1	1	341199.4	-56.60502	1.315626E-010	0.0080057	5
	55	22	3.158693	221303.2	-318905.4	1	388169.7	-55.24143	-1.754829E-010	0.0080074	5
	56	23	2.504006	258089	-357872	1	441228.1	-54.20173	-1.727376E-010	0.0080001	5
	57	25	1.998082	296001.2	-400254.7	1	497815.7	-53.51589	8.395855E-011	0.0080462	5
	58	26	1.584686	334845.8	-452273.5	1	562737.1	-53.48518	1.727056E-011	0.0080272	5
	59	28	1.266892	375879.4	-510751.8	1	634155.1	-53.6494	-4.780154E-011	0.0079804	5
	60	31	0.999041	423620.9	-587241.4	1	724090.6	-54.19429	-9.96727E-011	0.00796	5
