EXPLAIN
TAG	EISPOT
TITLE	LABEL	Potentiostatic EIS	Test &Identifier
DATE	LABEL	11/3/2019	Date
TIME	LABEL	9:39:49	Time
NOTES	NOTES	1	&Notes...
	
PSTAT	PSTAT	REF600-11020	Potentiostat
VDC	POTEN	0.00000E+000	T	DC &Voltage (V)
FREQINIT	QUANT	1.00000E+006	Initial Fre&q. (Hz)
FREQFINAL	QUANT	1.00000E+000	Final Fre&q. (Hz)
PTSPERDEC	QUANT	1.00000E+001	Points/&decade
VAC	QUANT	2.50000E+001	AC &Voltage (mV rms)
AREA	QUANT	1.00000E-002	&Area (cm^2)
CONDIT	TWOPARAM	T	5.00000E+000	0.00000E+000	Conditionin&g	Time(s)	E(V)
DELAY	TWOPARAM	T	5.00000E+000	0.00000E+000	Init. De&lay	Time(s)	Stab.(mV/s)
SPEED	SELECTOR	1	&Optimize for:
ZGUESS	QUANT	1.00000E+005	E&stimated Z (ohms)
OCVCURVE	TABLE	19
	Pt	T	Vf	Vm	Ach	Over
	#	s	V vs. Ref.	V	V	bits
	0	0.258333	-8.23255E-003	-8.23255E-003	5.16433E-004	...........
	1	0.516667	-8.24846E-003	-9.06571E-003	5.19633E-004	...........
	2	0.775	-8.34574E-003	-9.83152E-003	5.17133E-004	...........
	3	1.03333	-8.61898E-003	-1.05434E-002	5.15600E-004	...........
	4	1.29167	-9.10271E-003	-1.12134E-002	5.21800E-004	...........
	5	1.55	-9.73739E-003	-1.18540E-002	5.20500E-004	...........
	6	1.80833	-1.04308E-002	-1.24632E-002	5.19433E-004	...........
	7	2.06667	-1.11191E-002	-1.30677E-002	5.26166E-004	...........
	8	2.325	-1.17774E-002	-1.36380E-002	5.28166E-004	...........
	9	2.58333	-1.24042E-002	-1.42172E-002	5.24766E-004	...........
	10	2.84167	-1.30055E-002	-1.47164E-002	5.21600E-004	...........
	11	3.1	-1.35834E-002	-1.52101E-002	5.18266E-004	...........
	12	3.35833	-1.41364E-002	-1.57263E-002	5.21833E-004	...........
	13	3.61667	-1.46656E-002	-1.62225E-002	5.17533E-004	...........
	14	3.875	-1.51780E-002	-1.66935E-002	5.16766E-004	...........
	15	4.13333	-1.56801E-002	-1.72101E-002	5.23366E-004	...........
	16	4.39167	-1.61762E-002	-1.76926E-002	5.25166E-004	...........
	17	4.65	-1.66694E-002	-1.81627E-002	5.19200E-004	...........
	18	4.90833	-1.71623E-002	-1.87627E-002	5.24233E-004	...........
EOC	QUANT	-0.0171623	Open Circuit (V)
PSTATMODEL	IQUANT	4	Pstat Model
PSTATSECTION	LABEL	REF600-11020	Pstat Section
PSTATSERIALNO	LABEL	11020	Pstat Serial Number
CTRLMODE	IQUANT	1	Control Mode
IESTAB	IQUANT	0	I/E Stability
CASPEED	IQUANT	1	Control Amp Speed
CONVENTION	IQUANT	1	Current Convention
ICHRANGE	IQUANT	2	Ich Range
ICHRANGEMODE	TOGGLE	F	Ich Auto Range
ICHOFFSETENABLE	TOGGLE	T	Ich Offset Enable
ICHOFFSET	QUANT	0	Ich Offset (V)
ICHFILTER	IQUANT	3	Ich Filter
VCHRANGE	IQUANT	2	Vch Range
VCHRANGEMODE	TOGGLE	F	Vch Auto Range
VCHOFFSETENABLE	TOGGLE	T	Vch Offset Enable
VCHOFFSET	QUANT	0	Vch Offset (V)
VCHFILTER	IQUANT	3	Vch Filter
ACHRANGE	IQUANT	2	Ach Range
ACHOFFSETENABLE	TOGGLE	F	Ach Offset Enable
ACHOFFSET	QUANT	0	Ach Offset (V)
ACHFILTER	IQUANT	3	Ach Filter
IERANGELOWERLIMIT	IQUANT	1	I/E Range Lower Limit
IERANGEMODE	TOGGLE	F	I/E AutoRange
IERANGE	IQUANT	5	I/E Range
POSFEEDENABLE	TOGGLE	F	Positive Feedback IR Comp
POSFEEDRESISTANCE	QUANT	0	Positive Feedback Resistance (ohm)
ACHSELECT	IQUANT	0	Ach Select
CABLEID	IQUANT	14	Cable ID
DCCALDATE	LABEL	8/19/2019	DC Calibration Date
ACCALDATE	LABEL	8/19/2019	AC Calibration Date
THERMOSELECT	IQUANT	1	Thermo Select
FRAMEWORKVERSION	QUANT	6.33	Framework Version
INSTRUMENTVERSION	LABEL	3.50	Instrument Version
ZCURVE	TABLE
	Pt	Time	Freq	Zreal	Zimag	Zsig	Zmod	Zphz	Idc	Vdc	IERange
	#	s	Hz	ohm	ohm	V	ohm	°	A	V	#
	0	2	1000078	995.548	-1472.539	1	1777.495	-55.93833	4.643847E-007	-0.0143778	8
	1	3	794390.6	1093.955	-1752.121	1	2065.591	-58.02098	7.825862E-006	-0.0168987	8
	2	4	630984.4	1208.854	-2106.087	1	2428.359	-60.145	5.441727E-006	-0.0169038	8
	3	6	501234.4	1357.58	-2531.882	1	2872.882	-61.80006	-3.840932E-006	-0.0150164	8
	4	7	398109.4	1538.447	-3042.239	1	3409.111	-63.17448	1.153884E-006	-0.0152373	8
	5	8	316265.6	1794.079	-3680.826	1	4094.777	-64.01483	-6.139956E-006	-0.0148164	8
	6	10	251203.1	2140.293	-4447.971	1	4936.122	-64.30387	-7.502109E-008	-0.0159954	8
	7	11	199546.9	2578.444	-5309.297	1	5902.289	-64.09662	7.178049E-006	-0.0165208	8
	8	13	158578.1	3223.097	-6385.683	1	7152.993	-63.21819	-5.861668E-006	-0.0148718	8
	9	14	125953.1	4072.804	-7513.963	1	8546.775	-61.54092	3.838807E-006	-0.0191916	7
	10	16	100078.1	5129.93	-8716.927	1	10114.4	-59.5231	-1.897532E-007	-0.0142066	7
	11	17	79453.13	6451.801	-10117.26	1	11999.36	-57.47424	-1.521573E-006	-0.0142177	7
	12	19	63140.62	8028.97	-11575.1	1	14087.13	-55.25321	7.895612E-007	-0.0178931	7
	13	20	50203.12	10014.88	-12765.82	1	16225.42	-51.88555	-1.838879E-007	-0.0142144	7
	14	22	39890.62	12233.48	-14166.06	1	18717.25	-49.18687	7.916022E-007	-0.0178988	7
	15	23	31640.63	14711.43	-15183.52	1	21141.56	-45.90472	1.303851E-006	-0.017735	7
	16	25	25171.88	17329.85	-15969.3	1	23565.7	-42.66029	1.38502E-006	-0.0173985	7
	17	26	20015.62	20071.69	-16695.23	1	26107.54	-39.75301	3.803471E-007	-0.0176474	7
	18	28	15890.62	22667.29	-16857.56	1	28248.6	-36.63802	6.386541E-007	-0.0152956	7
	19	29	12609.37	25670.97	-17056.03	1	30820.56	-33.60044	-2.087323E-007	-0.0141415	6
	20	31	10078.13	28144.48	-17438.86	1	33109.3	-31.78316	-1.775433E-007	-0.012404	6
	21	32	8015.625	30607.51	-17803.73	1	35408.93	-30.18565	-5.136381E-008	-0.0131952	6
	22	34	6328.125	33393.66	-18520.19	1	38185.52	-29.01284	1.900747E-007	-0.0185633	6
	23	35	5015.625	35937.96	-19074.68	1	40686.36	-27.95789	7.39897E-009	-0.0179914	6
	24	37	3984.375	38447.2	-19740.83	1	43219.07	-27.17836	8.11071E-008	-0.0148094	6
	25	38	3170.956	41218	-20618.68	1	46087.45	-26.57582	-5.723596E-008	-0.01723	6
	26	39	2527.573	43978.46	-21548.75	1	48974.01	-26.10412	-5.76465E-008	-0.0172303	6
	27	41	1976.103	47179.43	-22583.6	1	52306	-25.57926	-2.089695E-007	-0.0141435	6
	28	42	1577.524	50310.37	-24103.57	1	55786.34	-25.59896	1.901333E-007	-0.0185626	6
	29	44	1265.625	53421.32	-25476.62	1	59185.26	-25.49647	-5.76651E-008	-0.0172324	6
	30	45	998.264	57219.96	-27263.28	1	63383.05	-25.47614	1.638796E-007	-0.0188514	6
	31	47	796.875	60834.05	-28860.8	1	67332.95	-25.38053	2.021825E-007	-0.0181116	6
	32	48	627.7902	64855.57	-30414.09	1	71632.82	-25.12428	8.119491E-008	-0.0148127	6
	33	50	505.5147	68983.4	-32651.36	1	76320.52	-25.32923	1.216971E-007	-0.0188363	6
	34	51	397.9953	73184.13	-34626	1	80962.2	-25.32048	1.170891E-009	-0.0158105	6
	35	52	315.5048	77711.02	-37052.21	1	86092.22	-25.49156	7.196961E-010	-0.0158016	6
	36	54	252.4038	82060.38	-39781.82	1	91194.84	-25.86351	1.693496E-009	-0.0158137	6
	37	55	198.6229	87149.96	-42972.25	1	97168.6	-26.24717	7.137035E-010	-0.0158051	5
	38	57	158.3615	92001.35	-46921.71	1	103275.8	-27.02209	1.512664E-010	-0.0158156	5
	39	58	125.558	97427.5	-51893.97	1	110386.1	-28.04165	7.754322E-010	-0.0158134	5
	40	60	100.4464	102486.3	-57165.93	1	117351.5	-29.15238	1.074503E-009	-0.0158037	5
	41	61	79.00281	108997.1	-65317.24	1	127069.7	-30.93244	-1.492056E-010	-0.015804	5
	42	62	63.3446	120406.2	-74657.94	1	141673.8	-31.80102	7.105132E-011	-0.0158061	5
	43	64	49.86702	124653.2	-82669.41	1	149574.9	-33.55215	4.49193E-010	-0.0158106	5
	44	65	39.72458	133880.2	-93404.16	1	163242.9	-34.90232	5.953705E-010	-0.0158128	5
	45	67	31.6723	143646.8	-106712.4	1	178946.7	-36.60794	-7.610323E-011	-0.0158041	5
	46	68	24.93351	155135.7	-121253	1	196899.4	-38.01094	3.180597E-010	-0.0158077	5
	47	70	19.86229	167829.8	-137861.8	1	217192.8	-39.401	4.914799E-010	-0.0158026	5
	48	71	15.83615	179614.7	-157839.3	1	239112.3	-41.30791	1.000327E-009	-0.0158089	5
	49	72	12.40079	204395.1	-184444.4	1	275312.7	-42.06282	-2.643685E-010	-0.0158154	5
	50	74	9.93114	220825.8	-210069.4	1	304783.8	-43.57003	4.705684E-010	-0.0158141	5
	51	76	7.944915	244393.7	-236689	1	340220.4	-44.08247	-8.523559E-011	-0.0158064	5
	52	77	6.317385	271358.6	-274048.1	1	385665.5	-45.28253	7.355583E-010	-0.0158132	5
	53	79	5.008013	304520.2	-314960.2	1	438101	-45.9655	6.68202E-010	-0.0158059	5
	54	82	3.945707	344603.1	-361482.2	1	499420.3	-46.3694	1.311936E-010	-0.0158069	5
	55	84	3.158693	388200.3	-409947.9	1	564585.4	-46.56079	5.330961E-010	-0.0157943	5
	56	88	2.504006	440596.3	-466136.8	1	641411.4	-46.61345	1.226655E-010	-0.0158183	5
	57	91	1.998082	497653.4	-525103.1	1	723458.5	-46.53739	-1.838321E-012	-0.0157958	5
	58	94	1.584686	565431.6	-591975.9	1	818625.9	-46.31381	3.776624E-010	-0.0157647	5
	59	97	1.266892	635180.8	-664345.4	1	919135.1	-46.28564	3.122253E-011	-0.0157971	5
	60	102	0.999041	720578.1	-752470.1	1	1041847	-46.24028	5.724325E-010	-0.0158258	4
