EXPLAIN
TAG	EISPOT
TITLE	LABEL	Potentiostatic EIS	Test &Identifier
DATE	LABEL	11/3/2019	Date
TIME	LABEL	11:10:11	Time
NOTES	NOTES	1	&Notes...
	
PSTAT	PSTAT	REF600-11020	Potentiostat
VDC	POTEN	0.00000E+000	T	DC &Voltage (V)
FREQINIT	QUANT	1.00000E+006	Initial Fre&q. (Hz)
FREQFINAL	QUANT	1.00000E+000	Final Fre&q. (Hz)
PTSPERDEC	QUANT	1.00000E+001	Points/&decade
VAC	QUANT	2.50000E+001	AC &Voltage (mV rms)
AREA	QUANT	1.00000E-002	&Area (cm^2)
CONDIT	TWOPARAM	T	5.00000E+000	0.00000E+000	Conditionin&g	Time(s)	E(V)
DELAY	TWOPARAM	T	5.00000E+000	0.00000E+000	Init. De&lay	Time(s)	Stab.(mV/s)
SPEED	SELECTOR	1	&Optimize for:
ZGUESS	QUANT	1.00000E+005	E&stimated Z (ohms)
OCVCURVE	TABLE	19
	Pt	T	Vf	Vm	Ach	Over
	#	s	V vs. Ref.	V	V	bits
	0	0.258333	5.79104E-003	5.79104E-003	5.67099E-004	...........
	1	0.516667	5.78967E-003	5.71904E-003	5.63032E-004	...........
	2	0.775	5.78134E-003	5.65701E-003	5.64866E-004	...........
	3	1.03333	5.75844E-003	5.61115E-003	5.66899E-004	...........
	4	1.29167	5.71942E-003	5.56986E-003	5.65599E-004	...........
	5	1.55	5.67121E-003	5.53494E-003	5.68232E-004	...........
	6	1.80833	5.62263E-003	5.50212E-003	5.65466E-004	...........
	7	2.06667	5.57873E-003	5.47543E-003	5.61399E-004	...........
	8	2.325	5.54065E-003	5.44731E-003	5.66766E-004	...........
	9	2.58333	5.50758E-003	5.42667E-003	5.67066E-004	...........
	10	2.84167	5.47839E-003	5.40240E-003	5.66432E-004	...........
	11	3.1	5.45220E-003	5.38505E-003	5.66332E-004	...........
	12	3.35833	5.42837E-003	5.36352E-003	5.64866E-004	...........
	13	3.61667	5.40633E-003	5.34165E-003	5.67799E-004	...........
	14	3.875	5.38523E-003	5.31780E-003	5.66932E-004	...........
	15	4.13333	5.36421E-003	5.30187E-003	5.66932E-004	...........
	16	4.39167	5.34306E-003	5.27790E-003	5.66599E-004	...........
	17	4.65	5.32208E-003	5.26018E-003	5.68566E-004	...........
	18	4.90833	5.30139E-003	5.23615E-003	5.69632E-004	...........
EOC	QUANT	0.0053014	Open Circuit (V)
PSTATMODEL	IQUANT	4	Pstat Model
PSTATSECTION	LABEL	REF600-11020	Pstat Section
PSTATSERIALNO	LABEL	11020	Pstat Serial Number
CTRLMODE	IQUANT	1	Control Mode
IESTAB	IQUANT	0	I/E Stability
CASPEED	IQUANT	1	Control Amp Speed
CONVENTION	IQUANT	1	Current Convention
ICHRANGE	IQUANT	2	Ich Range
ICHRANGEMODE	TOGGLE	F	Ich Auto Range
ICHOFFSETENABLE	TOGGLE	T	Ich Offset Enable
ICHOFFSET	QUANT	0	Ich Offset (V)
ICHFILTER	IQUANT	3	Ich Filter
VCHRANGE	IQUANT	2	Vch Range
VCHRANGEMODE	TOGGLE	F	Vch Auto Range
VCHOFFSETENABLE	TOGGLE	T	Vch Offset Enable
VCHOFFSET	QUANT	0	Vch Offset (V)
VCHFILTER	IQUANT	3	Vch Filter
ACHRANGE	IQUANT	2	Ach Range
ACHOFFSETENABLE	TOGGLE	F	Ach Offset Enable
ACHOFFSET	QUANT	0	Ach Offset (V)
ACHFILTER	IQUANT	3	Ach Filter
IERANGELOWERLIMIT	IQUANT	1	I/E Range Lower Limit
IERANGEMODE	TOGGLE	F	I/E AutoRange
IERANGE	IQUANT	4	I/E Range
POSFEEDENABLE	TOGGLE	F	Positive Feedback IR Comp
POSFEEDRESISTANCE	QUANT	0	Positive Feedback Resistance (ohm)
ACHSELECT	IQUANT	0	Ach Select
CABLEID	IQUANT	14	Cable ID
DCCALDATE	LABEL	8/19/2019	DC Calibration Date
ACCALDATE	LABEL	8/19/2019	AC Calibration Date
THERMOSELECT	IQUANT	1	Thermo Select
FRAMEWORKVERSION	QUANT	6.33	Framework Version
INSTRUMENTVERSION	LABEL	3.50	Instrument Version
ZCURVE	TABLE
	Pt	Time	Freq	Zreal	Zimag	Zsig	Zmod	Zphz	Idc	Vdc	IERange
	#	s	Hz	ohm	ohm	V	ohm	°	A	V	#
	0	1	1000078	2176.11	-1619.566	1	2712.646	-36.6584	1.261039E-006	0.0080599	8
	1	3	794390.6	2488.768	-1580.308	1	2948.107	-32.41457	-1.613574E-006	0.0077136	8
	2	4	630984.4	2791.527	-1480.055	1	3159.618	-27.93234	8.623581E-006	0.006085	8
	3	6	501234.4	3048.41	-1358.25	1	3337.312	-24.01585	-7.997545E-006	0.0078794	8
	4	7	398109.4	3252.646	-1202.391	1	3467.773	-20.28761	4.272805E-007	0.0065468	8
	5	8	316265.6	3418.497	-1053.442	1	3577.13	-17.12718	6.141907E-006	0.0060658	8
	6	10	251203.1	3546.04	-936.0544	1	3667.506	-14.78717	5.801479E-006	0.0056881	8
	7	11	199546.9	3635.154	-803.4971	1	3722.896	-12.46398	-1.542424E-006	0.0072099	8
	8	12	158578.1	3716.292	-725.2945	1	3786.406	-11.04338	-1.89577E-006	0.0069116	8
	9	14	125953.1	3805.672	-585.7053	1	3850.479	-8.749356	5.830311E-007	0.0090697	7
	10	15	100078.1	3851.772	-532.5935	1	3888.419	-7.872502	1.107008E-006	0.0052755	7
	11	16	79453.13	3888.273	-497.9623	1	3920.03	-7.298015	-1.236619E-006	0.0078468	7
	12	18	63140.62	3935.028	-480.248	1	3964.225	-6.958217	1.322454E-007	0.0053476	7
	13	19	50203.12	3972.159	-476.094	1	4000.589	-6.834738	6.35516E-008	0.0077372	7
	14	20	39890.62	4009.791	-479.7386	1	4038.387	-6.822541	-6.408303E-007	0.0083764	7
	15	22	31640.63	4061.678	-496.2641	1	4091.883	-6.965989	1.005427E-006	0.005031	7
	16	23	25171.88	4105.309	-524.8463	1	4138.723	-7.2855	1.111705E-006	0.0052699	7
	17	25	20015.62	4151.766	-562.8973	1	4189.751	-7.721095	8.431438E-007	0.0065449	7
	18	26	15890.62	4207.58	-613.0856	1	4252.012	-8.290214	1.007005E-006	0.0050297	7
	19	27	12609.37	4251.209	-676.464	1	4304.693	-9.04126	-1.237588E-006	0.0078433	7
	20	29	10078.13	4320.102	-758.4407	1	4386.173	-9.95742	6.171098E-007	0.006967	7
	21	30	8015.625	4385.482	-849.8234	1	4467.063	-10.96691	8.034868E-007	0.004935	7
	22	31	6328.125	4451.85	-971.225	1	4556.561	-12.30694	-2.998776E-007	0.0058626	7
	23	33	5015.625	4525.021	-1113.975	1	4660.125	-13.83013	-1.059541E-006	0.0072609	7
	24	34	3984.375	4609.078	-1295.575	1	4787.704	-15.70024	6.158238E-007	0.0069689	7
	25	36	3170.956	4692.342	-1503.38	1	4927.294	-17.76494	-1.120172E-006	0.0083876	7
	26	37	2527.573	4789.947	-1764.444	1	5104.592	-20.22198	-6.391207E-007	0.008372	7
	27	38	1976.103	4911.827	-2114.374	1	5347.581	-23.29023	1.110274E-006	0.0052652	7
	28	40	1577.524	5029.321	-2507.221	1	5619.629	-26.49721	1.005877E-006	0.0050274	7
	29	41	1265.625	5158.947	-2965.572	1	5950.576	-29.89204	-1.25182E-006	0.0082203	7
	30	42	998.264	5330.418	-3588.133	1	6425.579	-33.94619	1.006176E-006	0.0050288	7
	31	44	796.875	5508.368	-4287.305	1	6980.194	-37.89454	-3.056096E-007	0.0081255	7
	32	45	627.7902	5727.798	-5224.451	1	7752.583	-42.36863	8.005621E-007	0.004941	7
	33	47	505.5147	5954.867	-6254.593	1	8635.993	-46.40625	1.032039E-006	0.0060418	7
	34	48	397.9953	6256.111	-7636.398	1	9871.85	-50.67399	3.973817E-009	0.0067715	7
	35	49	315.5048	6602.512	-9307.892	1	11411.84	-54.65018	1.419791E-009	0.0067133	6
	36	51	252.4038	6999.163	-11286.51	1	13280.57	-58.19548	9.264015E-010	0.0067128	6
	37	52	198.6229	7520.407	-13910.17	1	15812.95	-61.60253	2.120649E-010	0.0067164	6
	38	54	158.3615	8141.642	-16972.87	1	18824.58	-64.37363	1.280351E-010	0.0067061	6
	39	55	125.558	8943.433	-20826.48	1	22665.55	-66.76006	9.830444E-010	0.0067118	6
	40	56	100.4464	9930.3	-25391.25	1	27264.01	-68.63996	1.221001E-009	0.0067121	6
	41	58	79.00281	11285.22	-31383.18	1	33350.56	-70.22169	6.154413E-011	0.0067081	6
	42	59	63.3446	12665.41	-37901.4	1	39961.59	-71.52206	3.344968E-010	0.0067074	6
	43	60	49.86702	15704.02	-46783.01	1	49348.42	-71.44424	-4.484791E-011	0.0067141	6
	44	62	39.72458	18555.13	-57053.33	1	59994.8	-71.98421	8.140501E-010	0.0067051	6
	45	63	31.6723	22345	-69446.93	1	72953.24	-72.16409	9.195712E-010	0.0067089	6
	46	65	24.93351	27953.59	-84606.92	1	89105.19	-71.71677	3.713554E-010	0.0067031	6
	47	66	19.86229	34895.57	-102219.6	1	108011.8	-71.1512	5.800835E-010	0.0067072	5
	48	67	15.83615	45060.2	-122958.4	1	130954.9	-69.87378	-1.053731E-009	0.0067147	5
	49	69	12.40079	56877.45	-147506.3	1	158092.2	-68.9137	1.025835E-009	0.0067134	5
	50	70	9.93114	71146.72	-175548.7	1	189418.1	-67.93818	6.490495E-010	0.0067104	5
	51	72	7.944915	89272.34	-206536.3	1	225004	-66.62428	6.56916E-010	0.0067076	5
	52	73	6.317385	113496.6	-242002.1	1	267294.8	-64.87389	7.502008E-010	0.0067004	5
	53	76	5.008013	143393.9	-282331	1	316658.5	-63.07431	4.913515E-010	0.006724	5
	54	78	3.945707	181003	-327358	1	374065.9	-61.06089	6.152252E-011	0.0067152	5
	55	81	3.158693	221808.1	-372069.3	1	433167.8	-59.19883	2.382126E-010	0.0067358	5
	56	84	2.504006	270626.7	-422383.9	1	501644.3	-57.3518	3.807565E-011	0.0067063	5
	57	87	1.998082	322912.1	-473939.7	1	573490.3	-55.732	-1.91807E-010	0.0067206	5
	58	90	1.584686	383354.3	-531027.4	1	654943.3	-54.17408	2.617927E-010	0.0067556	5
	59	94	1.266892	443231.7	-590007.8	1	737945.5	-53.08502	-9.709612E-011	0.0067417	5
	60	98	0.999041	513561.8	-665432.6	1	840563.1	-52.34007	3.643846E-010	0.0066978	5
