EXPLAIN
TAG	EISPOT
TITLE	LABEL	Potentiostatic IDE	Test &Identifier
DATE	LABEL	9/10/2019	Date
TIME	LABEL	9:17:32	Time
NOTES	NOTES	1	&Notes...
	
PSTAT	PSTAT	REF600-11020	Potentiostat
VDC	POTEN	0.00000E+000	T	DC &Voltage (V)
FREQINIT	QUANT	1.00000E+006	Initial Fre&q. (Hz)
FREQFINAL	QUANT	1.00000E+000	Final Fre&q. (Hz)
PTSPERDEC	QUANT	1.00000E+001	Points/&decade
VAC	QUANT	2.50000E+001	AC &Voltage (mV rms)
AREA	QUANT	1.00000E-002	&Area (cm^2)
CONDIT	TWOPARAM	T	5.00000E+000	0.00000E+000	Conditionin&g	Time(s)	E(V)
DELAY	TWOPARAM	T	5.00000E+000	0.00000E+000	Init. De&lay	Time(s)	Stab.(mV/s)
SPEED	SELECTOR	1	&Optimize for:
ZGUESS	QUANT	1.00000E+007	E&stimated Z (ohms)
OCVCURVE	TABLE	19
	Pt	T	Vf	Vm	Ach	Over
	#	s	V vs. Ref.	V	V	bits
	0	0.258333	6.11613E-003	6.11613E-003	5.66799E-004	...........
	1	0.516667	6.11210E-003	5.90552E-003	5.71999E-004	...........
	2	0.775	6.08780E-003	5.72702E-003	5.73632E-004	...........
	3	1.03333	6.02090E-003	5.58188E-003	5.68999E-004	...........
	4	1.29167	5.90640E-003	5.46530E-003	5.72432E-004	...........
	5	1.55	5.76421E-003	5.36288E-003	5.77032E-004	...........
	6	1.80833	5.62059E-003	5.26582E-003	5.69166E-004	...........
	7	2.06667	5.49100E-003	5.18356E-003	5.69399E-004	...........
	8	2.325	5.37871E-003	5.10799E-003	5.70366E-004	...........
	9	2.58333	5.28120E-003	5.03590E-003	5.68232E-004	...........
	10	2.84167	5.19492E-003	4.97132E-003	5.70732E-004	...........
	11	3.1	5.11701E-003	4.91080E-003	5.73332E-004	...........
	12	3.35833	5.04544E-003	4.84607E-003	5.67432E-004	...........
	13	3.61667	4.97866E-003	4.79411E-003	5.74332E-004	...........
	14	3.875	4.91554E-003	4.73623E-003	5.77032E-004	...........
	15	4.13333	4.85550E-003	4.68748E-003	5.74565E-004	...........
	16	4.39167	4.79844E-003	4.64063E-003	5.73432E-004	...........
	17	4.65	4.74493E-003	4.62073E-003	5.70699E-004	...........
	18	4.90833	4.69629E-003	4.56039E-003	5.67332E-004	...........
EOC	QUANT	0.0046963	Open Circuit (V)
PSTATMODEL	IQUANT	4	Pstat Model
PSTATSECTION	LABEL	REF600-11020	Pstat Section
PSTATSERIALNO	LABEL	11020	Pstat Serial Number
CTRLMODE	IQUANT	1	Control Mode
IESTAB	IQUANT	0	I/E Stability
CASPEED	IQUANT	1	Control Amp Speed
CONVENTION	IQUANT	1	Current Convention
ICHRANGE	IQUANT	2	Ich Range
ICHRANGEMODE	TOGGLE	F	Ich Auto Range
ICHOFFSETENABLE	TOGGLE	T	Ich Offset Enable
ICHOFFSET	QUANT	0	Ich Offset (V)
ICHFILTER	IQUANT	3	Ich Filter
VCHRANGE	IQUANT	2	Vch Range
VCHRANGEMODE	TOGGLE	F	Vch Auto Range
VCHOFFSETENABLE	TOGGLE	T	Vch Offset Enable
VCHOFFSET	QUANT	0	Vch Offset (V)
VCHFILTER	IQUANT	3	Vch Filter
ACHRANGE	IQUANT	2	Ach Range
ACHOFFSETENABLE	TOGGLE	F	Ach Offset Enable
ACHOFFSET	QUANT	0	Ach Offset (V)
ACHFILTER	IQUANT	3	Ach Filter
IERANGELOWERLIMIT	IQUANT	1	I/E Range Lower Limit
IERANGEMODE	TOGGLE	F	I/E AutoRange
IERANGE	IQUANT	2	I/E Range
POSFEEDENABLE	TOGGLE	F	Positive Feedback IR Comp
POSFEEDRESISTANCE	QUANT	0	Positive Feedback Resistance (ohm)
ACHSELECT	IQUANT	0	Ach Select
CABLEID	IQUANT	14	Cable ID
DCCALDATE	LABEL	8/19/2019	DC Calibration Date
ACCALDATE	LABEL	8/19/2019	AC Calibration Date
THERMOSELECT	IQUANT	1	Thermo Select
FRAMEWORKVERSION	QUANT	6.33	Framework Version
INSTRUMENTVERSION	LABEL	3.50	Instrument Version
ZCURVE	TABLE
	Pt	Time	Freq	Zreal	Zimag	Zsig	Zmod	Zphz	Idc	Vdc	IERange
	#	s	Hz	ohm	ohm	V	ohm	°	A	V	#
	0	2	1000078	2595.497	-2065.068	1	3316.792	-38.50698	-2.649569E-006	0.007109	8
	1	4	794390.6	2996.001	-2012.427	1	3609.139	-33.88944	-5.224041E-007	0.0071799	8
	2	5	630984.4	3384.732	-1901.49	1	3882.277	-29.3266	1.550754E-006	0.0062688	8
	3	6	501234.4	3727.077	-1737.743	1	4112.281	-24.99721	-1.022384E-006	0.006671	8
	4	8	398109.4	4007.396	-1554.218	1	4298.235	-21.19816	1.674937E-007	0.0064795	8
	5	9	316265.6	4234.446	-1357.482	1	4446.717	-17.77486	7.352817E-009	0.0064728	8
	6	10	251203.1	4383.658	-1202.717	1	4545.656	-15.34236	1.039151E-006	0.0061636	8
	7	12	199546.9	4520.502	-1063.471	1	4643.911	-13.2384	1.005344E-006	0.0061591	8
	8	13	158578.1	4615.711	-911.6641	1	4704.883	-11.17287	-2.413609E-006	0.0069219	8
	9	14	125953.1	4718.511	-770.1671	1	4780.952	-9.270211	-8.562474E-007	0.0083984	7
	10	16	100078.1	4770.802	-698.861	1	4821.717	-8.333821	-3.508057E-008	0.0064517	7
	11	17	79453.13	4828.44	-649.9512	1	4871.989	-7.66644	-2.10521E-008	0.0064008	7
	12	18	63140.62	4883.23	-618.7933	1	4922.28	-7.221916	1.176642E-008	0.0064227	7
	13	20	50203.12	4936.156	-603.831	1	4972.952	-6.974238	-5.405816E-008	0.006424	7
	14	21	39890.62	4986.07	-601.6026	1	5022.232	-6.879861	-3.356005E-008	0.006439	7
	15	22	31640.63	5042.203	-618.6844	1	5080.018	-6.995296	-5.015546E-009	0.0063597	7
	16	24	25171.88	5092.412	-646.1383	1	5133.24	-7.231195	-3.828413E-008	0.0063989	7
	17	25	20015.62	5152.214	-689.9125	1	5198.2	-7.626881	9.017244E-008	0.0062337	7
	18	26	15890.62	5211.972	-757.1266	1	5266.677	-8.265361	-4.59977E-008	0.0064235	7
	19	28	12609.37	5281.587	-832.0801	1	5346.73	-8.952994	8.988957E-008	0.0062308	7
	20	29	10078.13	5351.214	-933.3527	1	5432.001	-9.89394	3.642604E-008	0.0063101	7
	21	30	8015.625	5438.203	-1050.971	1	5538.826	-10.93797	-4.470375E-008	0.0065058	7
	22	32	6328.125	5525.367	-1202.442	1	5654.693	-12.2774	9.616152E-009	0.0064202	7
	23	33	5015.625	5626.613	-1384.917	1	5794.547	-13.82773	-8.536341E-009	0.0063697	7
	24	34	3984.375	5740.148	-1599.983	1	5958.964	-15.57504	-2.717013E-008	0.0063605	7
	25	36	3170.956	5858.526	-1856.302	1	6145.583	-17.58106	3.597582E-008	0.0063102	7
	26	37	2527.573	5994.311	-2169.853	1	6374.953	-19.89952	-4.750964E-008	0.0065024	7
	27	38	1976.103	6160.202	-2578.633	1	6678.131	-22.71396	-3.319487E-008	0.0064404	7
	28	40	1577.524	6326.115	-3031.283	1	7014.871	-25.60233	-3.028791E-008	0.006359	7
	29	41	1265.625	6513.667	-3566.179	1	7426	-28.70034	-2.995333E-008	0.0063573	7
	30	42	998.264	6740.602	-4263.662	1	7975.872	-32.31475	-2.314545E-008	0.0063519	7
	31	44	796.875	6988.205	-5075.695	1	8636.996	-35.99177	-8.801843E-009	0.0063624	7
	32	45	627.7902	7286.83	-6135.244	1	9525.71	-40.09615	1.532978E-008	0.0062909	7
	33	46	505.5147	7587.53	-7276.329	1	10512.64	-43.80059	8.942325E-009	0.0062681	6
	34	48	397.9953	7988.28	-8849.573	1	11921.73	-47.92825	8.536664E-010	0.0063157	6
	35	49	315.5048	8435.402	-10720.82	1	13641.55	-51.80346	8.16017E-010	0.006314	6
	36	50	252.4038	8944.011	-12920.41	1	15714.08	-55.30751	1.23114E-009	0.0063096	6
	37	52	198.6229	9594.52	-15822.57	1	18504.29	-58.76813	9.943861E-010	0.0063024	6
	38	53	158.3615	10339.03	-19198.24	1	21805.23	-61.69575	5.173629E-010	0.0063095	6
	39	54	125.558	11284.55	-23446.89	1	26021.1	-64.29936	8.149497E-010	0.0063101	6
	40	56	100.4464	12375.58	-28432.14	1	31008.73	-66.47807	9.586838E-010	0.006302	6
	41	57	79.00281	13964.3	-35039.8	1	37719.88	-68.27139	7.121478E-010	0.0063027	6
	42	58	63.3446	15659.61	-42242.27	1	45051.44	-69.65977	9.617629E-010	0.0063053	6
	43	60	49.86702	18299.63	-52473.67	1	55573.04	-70.77433	9.904383E-010	0.0063061	6
	44	61	39.72458	21342.02	-63658.84	1	67141.11	-71.46596	9.910242E-010	0.0063104	6
	45	62	31.6723	25320.57	-77485.63	1	81517.81	-71.90377	7.634131E-010	0.0063051	6
	46	64	24.93351	31015.71	-94857.32	1	99799.2	-71.89369	5.762252E-010	0.0063044	6
	47	65	19.86229	38083.82	-114759.1	1	120913.3	-71.64113	7.117266E-010	0.0063128	5
	48	66	15.83615	46722.14	-138782.8	1	146436.4	-71.39385	-9.065115E-011	0.0063108	5
	49	68	12.40079	60423.95	-168760	1	179251.2	-70.30026	9.035402E-010	0.0063101	5
	50	69	9.93114	75167.84	-200373.2	1	214008.5	-69.43697	7.257471E-010	0.0063066	5
	51	71	7.944915	93787.99	-236876.1	1	254767.5	-68.39956	9.72303E-010	0.0063094	5
	52	72	6.317385	118591.5	-280907.3	1	304914.5	-67.11185	6.366644E-010	0.0063009	5
	53	74	5.008013	150146.2	-331783.7	1	364176.2	-65.65123	2.115239E-010	0.0063103	5
	54	77	3.945707	189171.5	-389647	1	433140.4	-64.10368	3.600595E-010	0.0063159	5
	55	80	3.158693	233473.3	-450385.1	1	507303.2	-62.59841	8.147924E-011	0.0063025	5
	56	83	2.504006	288088.2	-520724.9	1	595104.4	-61.04668	4.889319E-010	0.0063248	5
	57	86	1.998082	351498.5	-595232.8	1	691269.3	-59.43718	3.093865E-010	0.0063601	5
	58	89	1.584686	423364.7	-677585.3	1	798974	-58.00229	3.077718E-010	0.0063	5
	59	92	1.266892	506271.7	-767418.4	1	919370.5	-56.58686	2.198653E-010	0.0063581	5
	60	97	0.999041	602733.4	-870061.4	1	1058440	-55.28779	1.220574E-010	0.00628	4
