EXPLAIN
TAG	EISPOT
TITLE	LABEL	Potentiostatic EIS	Test &Identifier
DATE	LABEL	10/6/2019	Date
TIME	LABEL	9:39:30	Time
NOTES	NOTES	2	&Notes...
	
	
PSTAT	PSTAT	REF600-11020	Potentiostat
VDC	POTEN	0.00000E+000	T	DC &Voltage (V)
FREQINIT	QUANT	1.00000E+006	Initial Fre&q. (Hz)
FREQFINAL	QUANT	1.00000E+000	Final Fre&q. (Hz)
PTSPERDEC	QUANT	1.00000E+001	Points/&decade
VAC	QUANT	2.50000E+001	AC &Voltage (mV rms)
AREA	QUANT	1.00000E-002	&Area (cm^2)
CONDIT	TWOPARAM	T	5.00000E+000	0.00000E+000	Conditionin&g	Time(s)	E(V)
DELAY	TWOPARAM	T	5.00000E+000	0.00000E+000	Init. De&lay	Time(s)	Stab.(mV/s)
SPEED	SELECTOR	1	&Optimize for:
ZGUESS	QUANT	1.00000E+004	E&stimated Z (ohms)
OCVCURVE	TABLE	19
	Pt	T	Vf	Vm	Ach	Over
	#	s	V vs. Ref.	V	V	bits
	0	0.258333	2.35386E-003	2.35386E-003	5.46933E-004	...........
	1	0.516667	2.34569E-003	1.92607E-003	5.44266E-004	...........
	2	0.775	2.29821E-003	1.66212E-003	5.45566E-004	...........
	3	1.03333	2.17205E-003	1.36516E-003	5.43333E-004	...........
	4	1.29167	1.96032E-003	1.09233E-003	5.49766E-004	...........
	5	1.55	1.69410E-003	8.44998E-004	5.47699E-004	...........
	6	1.80833	1.41130E-003	6.12160E-004	5.46499E-004	...........
	7	2.06667	1.13666E-003	4.05834E-004	5.46899E-004	...........
	8	2.325	8.80752E-004	1.92545E-004	5.53633E-004	...........
	9	2.58333	6.44591E-004	-1.72907E-006	5.45899E-004	...........
	10	2.84167	4.24767E-004	-1.81955E-004	5.41899E-004	...........
	11	3.1	2.17993E-004	-3.57145E-004	5.53966E-004	...........
	12	3.35833	2.27361E-005	-5.20451E-004	5.42033E-004	...........
	13	3.61667	-1.61824E-004	-6.78228E-004	5.43199E-004	...........
	14	3.875	-3.36608E-004	-8.27880E-004	5.43099E-004	...........
	15	4.13333	-5.02564E-004	-9.69978E-004	5.40299E-004	...........
	16	4.39167	-6.60432E-004	-1.10420E-003	5.43199E-004	...........
	17	4.65	-8.10725E-004	-1.23820E-003	5.42499E-004	...........
	18	4.90833	-9.54086E-004	-1.36264E-003	5.42266E-004	...........
EOC	QUANT	-0.0009541	Open Circuit (V)
PSTATMODEL	IQUANT	4	Pstat Model
PSTATSECTION	LABEL	REF600-11020	Pstat Section
PSTATSERIALNO	LABEL	11020	Pstat Serial Number
CTRLMODE	IQUANT	1	Control Mode
IESTAB	IQUANT	0	I/E Stability
CASPEED	IQUANT	1	Control Amp Speed
CONVENTION	IQUANT	1	Current Convention
ICHRANGE	IQUANT	2	Ich Range
ICHRANGEMODE	TOGGLE	F	Ich Auto Range
ICHOFFSETENABLE	TOGGLE	T	Ich Offset Enable
ICHOFFSET	QUANT	0	Ich Offset (V)
ICHFILTER	IQUANT	3	Ich Filter
VCHRANGE	IQUANT	2	Vch Range
VCHRANGEMODE	TOGGLE	F	Vch Auto Range
VCHOFFSETENABLE	TOGGLE	T	Vch Offset Enable
VCHOFFSET	QUANT	0	Vch Offset (V)
VCHFILTER	IQUANT	3	Vch Filter
ACHRANGE	IQUANT	2	Ach Range
ACHOFFSETENABLE	TOGGLE	F	Ach Offset Enable
ACHOFFSET	QUANT	0	Ach Offset (V)
ACHFILTER	IQUANT	3	Ach Filter
IERANGELOWERLIMIT	IQUANT	1	I/E Range Lower Limit
IERANGEMODE	TOGGLE	F	I/E AutoRange
IERANGE	IQUANT	5	I/E Range
POSFEEDENABLE	TOGGLE	F	Positive Feedback IR Comp
POSFEEDRESISTANCE	QUANT	0	Positive Feedback Resistance (ohm)
ACHSELECT	IQUANT	0	Ach Select
CABLEID	IQUANT	14	Cable ID
DCCALDATE	LABEL	8/19/2019	DC Calibration Date
ACCALDATE	LABEL	8/19/2019	AC Calibration Date
THERMOSELECT	IQUANT	1	Thermo Select
FRAMEWORKVERSION	QUANT	6.33	Framework Version
INSTRUMENTVERSION	LABEL	3.50	Instrument Version
ZCURVE	TABLE
	Pt	Time	Freq	Zreal	Zimag	Zsig	Zmod	Zphz	Idc	Vdc	IERange
	#	s	Hz	ohm	ohm	V	ohm	°	A	V	#
	0	1	1000078	2275.534	-1875.004	1	2948.508	-39.48799	-2.735763E-006	0.0011058	8
	1	3	794390.6	2657.436	-1855.961	1	3241.382	-34.93056	4.338017E-007	0.0008223	8
	2	4	630984.4	3028.049	-1764.061	1	3504.425	-30.22394	2.410589E-006	0.0001163	8
	3	6	501234.4	3353.046	-1622.683	1	3725.052	-25.82434	6.022937E-007	0.0005879	8
	4	7	398109.4	3612.583	-1461.007	1	3896.832	-22.01947	-2.152801E-006	0.0009324	8
	5	8	316265.6	3828.881	-1280.863	1	4037.442	-18.49646	1.386902E-006	0.0004125	8
	6	10	251203.1	3997.097	-1111.997	1	4148.894	-15.54664	-5.876924E-007	0.0007088	8
	7	11	199546.9	4122.775	-943.6614	1	4229.394	-12.89234	2.348437E-006	6.681426E-005	8
	8	12	158578.1	4211.847	-824.0381	1	4291.701	-11.06995	-2.950226E-006	0.0011203	8
	9	14	125953.1	4320.902	-673.5015	1	4373.077	-8.859436	8.733862E-008	-5.70659E-005	7
	10	15	100078.1	4358.281	-587.1509	1	4397.654	-7.672733	4.468498E-008	0.0004635	7
	11	16	79453.13	4405.426	-532.8885	1	4437.539	-6.897095	-8.398411E-008	0.000612	7
	12	18	63140.62	4444.817	-492.6016	1	4472.031	-6.324058	4.546163E-008	0.0004482	7
	13	19	50203.12	4482.035	-466.2199	1	4506.217	-5.938533	-5.663349E-008	0.0005634	7
	14	21	39890.62	4514.806	-455.7277	1	4537.748	-5.763953	1.256288E-007	0.0003089	7
	15	22	31640.63	4551.282	-454.1588	1	4573.885	-5.698511	-7.207986E-009	0.000477	7
	16	23	25171.88	4584.666	-468.6039	1	4608.552	-5.836	-7.897405E-008	0.0007292	7
	17	25	20015.62	4614.111	-488.5262	1	4639.9	-6.043765	8.313867E-008	0.0003248	7
	18	26	15890.62	4657.783	-534.6595	1	4688.369	-6.548232	-1.243217E-008	0.0005287	7
	19	27	12609.37	4697.523	-589.0323	1	4734.309	-7.147136	-7.725192E-008	0.0007333	7
	20	29	10078.13	4739.304	-659.2767	1	4784.939	-7.919499	-8.30621E-008	0.0006064	7
	21	30	8015.625	4777.268	-748.2687	1	4835.514	-8.901973	4.243523E-009	0.0004743	7
	22	32	6328.125	4838.187	-870.7402	1	4915.917	-10.20244	1.243521E-007	0.0003065	7
	23	33	5015.625	4893.801	-1016.277	1	4998.21	-11.73165	-4.077979E-008	0.0004976	7
	24	34	3984.375	4944.382	-1202.2	1	5088.438	-13.66597	1.753598E-008	0.0005787	7
	25	36	3170.956	5028.813	-1413.67	1	5223.736	-15.70142	-6.231341E-009	0.0004319	7
	26	37	2527.573	5109.145	-1681.215	1	5378.647	-18.2143	4.437317E-009	0.0004706	7
	27	38	1976.103	5207.465	-2037.894	1	5592.022	-21.37244	-5.569589E-008	0.000554	7
	28	40	1577.524	5318.223	-2446.562	1	5853.987	-24.70403	-1.166643E-008	0.0005139	7
	29	41	1265.625	5433.655	-2919.77	1	6168.441	-28.25133	5.958699E-008	0.0003982	7
	30	43	998.264	5588.514	-3548.844	1	6620.104	-32.41655	-8.237435E-008	0.0006047	7
	31	44	796.875	5763.916	-4283.829	1	7181.499	-36.62029	-4.816315E-009	0.0004314	7
	32	45	627.7902	5986.662	-5228.815	1	7948.625	-41.13431	1.097209E-007	0.0003866	7
	33	47	505.5147	6210.849	-6292.547	1	8841.425	-45.37437	-6.947535E-009	0.0005429	7
	34	48	397.9953	6555.361	-7689.819	1	10104.75	-49.55331	9.488081E-010	0.0004482	6
	35	49	315.5048	6932.086	-9378.414	1	11662.27	-53.52991	5.121779E-010	0.0004496	6
	36	51	252.4038	7372.906	-11357.69	1	13540.93	-57.01016	8.738814E-010	0.0004437	6
	37	52	198.6229	7949.382	-13970.19	1	16073.54	-60.35905	8.50629E-010	0.0004464	6
	38	53	158.3615	8630.707	-17011.4	1	19075.56	-63.09912	7.72983E-010	0.0004442	6
	39	55	125.558	9510.29	-20819.96	1	22889.22	-65.44968	7.251997E-010	0.0004488	6
	40	56	100.4464	10574.04	-25301.54	1	27422.22	-67.31892	1.473037E-009	0.0004467	6
	41	58	79.00281	12174.67	-31202.53	1	33493.59	-68.68517	8.686755E-010	0.0004459	6
	42	59	63.3446	14122.53	-37573.56	1	40139.98	-69.4006	8.57686E-010	0.000443	6
	43	60	49.86702	16764.64	-46703.15	1	49620.94	-70.25381	6.603187E-010	0.0004457	6
	44	62	39.72458	20128.94	-56492.04	1	59971.04	-70.38828	1.069745E-009	0.0004514	6
	45	63	31.6723	24651.88	-68388.81	1	72696.25	-70.17746	2.021145E-010	0.0004459	6
	46	65	24.93351	31067.94	-82995.48	1	88619.78	-69.47747	8.910033E-011	0.0004459	6
	47	66	19.86229	39057.9	-99146.7	1	106562.6	-68.4985	-4.806448E-011	0.0004562	5
	48	67	15.83615	50061.88	-117057.7	1	127313.4	-66.84514	9.43413E-010	0.0004472	5
	49	69	12.40079	63453.85	-141017.1	1	154635.7	-65.77355	3.843786E-010	0.000447	5
	50	70	9.93114	79791.12	-163296.1	1	181747.7	-63.95855	3.598093E-010	0.0004484	5
	51	72	7.944915	99891.1	-188004.7	1	212894.3	-62.0173	6.532074E-010	0.000448	5
	52	74	6.317385	123321.7	-215650.4	1	248421.7	-60.23651	3.928216E-010	0.0004677	5
	53	76	5.008013	150460.5	-245471.4	1	287914.1	-58.49399	4.481819E-010	0.0004559	5
	54	78	3.945707	181147	-278652.8	1	332357.7	-56.97285	5.397272E-010	0.0004586	5
	55	81	3.158693	212582.9	-313192.7	1	378525	-55.83289	-9.644925E-012	0.0004467	5
	56	84	2.504006	247307.8	-353312.1	1	431266.3	-55.00914	6.179432E-010	0.0004604	5
	57	87	1.998082	283201.8	-398042	1	488508.6	-54.56863	4.063573E-010	0.0004782	5
	58	90	1.584686	323011.6	-450861.2	1	554628.1	-54.38096	1.967816E-010	0.0004079	5
	59	94	1.266892	363235.2	-513593.4	1	629061.2	-54.73042	3.483158E-010	0.0004608	5
	60	98	0.999041	411862.1	-593320.5	1	722260.1	-55.23299	-4.608151E-011	0.0004314	5
