EXPLAIN
TAG	EISPOT
TITLE	LABEL	Potentiostatic EIS	Test &Identifier
DATE	LABEL	9/22/2019	Date
TIME	LABEL	9:49:23	Time
NOTES	NOTES	1	&Notes...
	
PSTAT	PSTAT	REF600-11020	Potentiostat
VDC	POTEN	0.00000E+000	T	DC &Voltage (V)
FREQINIT	QUANT	1.00000E+006	Initial Fre&q. (Hz)
FREQFINAL	QUANT	1.00000E+000	Final Fre&q. (Hz)
PTSPERDEC	QUANT	1.00000E+001	Points/&decade
VAC	QUANT	2.50000E+001	AC &Voltage (mV rms)
AREA	QUANT	1.00000E-002	&Area (cm^2)
CONDIT	TWOPARAM	T	5.00000E+000	0.00000E+000	Conditionin&g	Time(s)	E(V)
DELAY	TWOPARAM	T	5.00000E+000	0.00000E+000	Init. De&lay	Time(s)	Stab.(mV/s)
SPEED	SELECTOR	1	&Optimize for:
ZGUESS	QUANT	1.00000E+004	E&stimated Z (ohms)
OCVCURVE	TABLE	19
	Pt	T	Vf	Vm	Ach	Over
	#	s	V vs. Ref.	V	V	bits
	0	0.258333	2.16410E-003	2.16410E-003	5.71532E-004	...........
	1	0.516667	2.15875E-003	1.88401E-003	5.69732E-004	...........
	2	0.775	2.12629E-003	1.63925E-003	5.71866E-004	...........
	3	1.03333	2.03611E-003	1.42208E-003	5.71932E-004	...........
	4	1.29167	1.87894E-003	1.22077E-003	5.69632E-004	...........
	5	1.55	1.67669E-003	1.02237E-003	5.69366E-004	...........
	6	1.80833	1.46010E-003	8.48651E-004	5.70699E-004	...........
	7	2.06667	1.24983E-003	7.05787E-004	5.69699E-004	...........
	8	2.325	1.05577E-003	5.69352E-004	5.65132E-004	...........
	9	2.58333	8.81116E-004	4.22393E-004	5.65099E-004	...........
	10	2.84167	7.23638E-004	2.96616E-004	5.67466E-004	...........
	11	3.1	5.78379E-004	1.81444E-004	5.68866E-004	...........
	12	3.35833	4.42074E-004	6.42349E-005	5.68932E-004	...........
	13	3.61667	3.13601E-004	-5.08153E-005	5.74932E-004	...........
	14	3.875	1.91889E-004	-1.48104E-004	5.64266E-004	...........
	15	4.13333	7.62621E-005	-2.36475E-004	5.68966E-004	...........
	16	4.39167	-3.23705E-005	-3.18548E-004	5.67799E-004	...........
	17	4.65	-1.32858E-004	-4.08341E-004	5.73266E-004	...........
	18	4.90833	-2.26067E-004	-4.95276E-004	5.66466E-004	...........
EOC	QUANT	-0.0002261	Open Circuit (V)
PSTATMODEL	IQUANT	4	Pstat Model
PSTATSECTION	LABEL	REF600-11020	Pstat Section
PSTATSERIALNO	LABEL	11020	Pstat Serial Number
CTRLMODE	IQUANT	1	Control Mode
IESTAB	IQUANT	0	I/E Stability
CASPEED	IQUANT	1	Control Amp Speed
CONVENTION	IQUANT	1	Current Convention
ICHRANGE	IQUANT	2	Ich Range
ICHRANGEMODE	TOGGLE	F	Ich Auto Range
ICHOFFSETENABLE	TOGGLE	T	Ich Offset Enable
ICHOFFSET	QUANT	0	Ich Offset (V)
ICHFILTER	IQUANT	3	Ich Filter
VCHRANGE	IQUANT	2	Vch Range
VCHRANGEMODE	TOGGLE	F	Vch Auto Range
VCHOFFSETENABLE	TOGGLE	T	Vch Offset Enable
VCHOFFSET	QUANT	0	Vch Offset (V)
VCHFILTER	IQUANT	3	Vch Filter
ACHRANGE	IQUANT	2	Ach Range
ACHOFFSETENABLE	TOGGLE	F	Ach Offset Enable
ACHOFFSET	QUANT	0	Ach Offset (V)
ACHFILTER	IQUANT	3	Ach Filter
IERANGELOWERLIMIT	IQUANT	1	I/E Range Lower Limit
IERANGEMODE	TOGGLE	F	I/E AutoRange
IERANGE	IQUANT	4	I/E Range
POSFEEDENABLE	TOGGLE	F	Positive Feedback IR Comp
POSFEEDRESISTANCE	QUANT	0	Positive Feedback Resistance (ohm)
ACHSELECT	IQUANT	0	Ach Select
CABLEID	IQUANT	14	Cable ID
DCCALDATE	LABEL	8/19/2019	DC Calibration Date
ACCALDATE	LABEL	8/19/2019	AC Calibration Date
THERMOSELECT	IQUANT	1	Thermo Select
FRAMEWORKVERSION	QUANT	6.33	Framework Version
INSTRUMENTVERSION	LABEL	3.50	Instrument Version
ZCURVE	TABLE
	Pt	Time	Freq	Zreal	Zimag	Zsig	Zmod	Zphz	Idc	Vdc	IERange
	#	s	Hz	ohm	ohm	V	ohm	°	A	V	#
	0	2	1000078	2296.944	-1703	1	2859.399	-36.55398	1.650017E-006	0.000909	8
	1	3	794390.6	2633.486	-1673.31	1	3120.13	-32.43177	2.494491E-006	0.001034	8
	2	4	630984.4	2956.474	-1579.814	1	3352.096	-28.11815	3.524092E-006	0.0007987	8
	3	6	501234.4	3222.887	-1418.118	1	3521.088	-23.75021	-1.710411E-006	0.0016679	8
	4	7	398109.4	3468.22	-1270.533	1	3693.616	-20.11959	2.667045E-006	0.0008154	8
	5	9	316265.6	3645.931	-1131.614	1	3817.507	-17.24316	1.162199E-006	0.0011053	8
	6	10	251203.1	3795.255	-979.116	1	3919.519	-14.46598	-3.524073E-006	0.0021492	8
	7	11	199546.9	3891.413	-838.3249	1	3980.689	-12.15739	-7.571839E-008	0.0013191	8
	8	13	158578.1	3974.564	-733.173	1	4041.621	-10.45165	-8.092862E-008	0.0012397	8
	9	14	125953.1	4058.044	-587.0247	1	4100.283	-8.231142	1.328136E-007	0.0009398	7
	10	15	100078.1	4092.381	-520.4211	1	4125.339	-7.247307	7.501257E-008	0.0012295	7
	11	17	79453.13	4131.191	-474.9076	1	4158.398	-6.557742	4.102823E-008	0.0011353	7
	12	18	63140.62	4165.788	-442.9194	1	4189.268	-6.069063	-1.828765E-008	0.0013054	7
	13	19	50203.12	4199.313	-425.2427	1	4220.789	-5.782335	-3.072687E-008	0.0013488	7
	14	21	39890.62	4231.222	-418.2153	1	4251.84	-5.644799	3.877636E-008	0.0012153	7
	15	22	31640.63	4265.447	-422.5912	1	4286.33	-5.658008	7.721911E-008	0.0012207	7
	16	23	25171.88	4299.046	-438.7238	1	4321.375	-5.826944	-3.788097E-008	0.0012746	7
	17	25	20015.62	4337.979	-465.6397	1	4362.898	-6.126684	-1.806576E-008	0.0012989	7
	18	26	15890.62	4377.042	-503.5575	1	4405.913	-6.562749	-3.030804E-008	0.0013515	7
	19	27	12609.37	4419.441	-556.9453	1	4454.397	-7.182644	-3.238958E-008	0.0012638	7
	20	29	10078.13	4466.93	-614.6957	1	4509.026	-7.83528	3.909047E-008	0.0012079	7
	21	30	8015.625	4520.189	-691.1379	1	4572.722	-8.69321	-4.279411E-008	0.0014118	7
	22	32	6328.125	4575.784	-790.5247	1	4643.569	-9.80182	1.412457E-008	0.0011962	7
	23	33	5015.625	4636.012	-908.98	1	4724.283	-11.09322	-4.959973E-008	0.0013093	7
	24	34	3984.375	4699.57	-1054.496	1	4816.422	-12.64664	-1.669214E-008	0.0013	7
	25	36	3170.956	4768.324	-1230.73	1	4924.593	-14.47249	-5.046078E-008	0.001309	7
	26	37	2527.573	4845.586	-1444.712	1	5056.372	-16.60195	-4.986228E-008	0.0013115	7
	27	38	1976.103	4939.689	-1732.974	1	5234.857	-19.33223	7.7877E-008	0.0012166	7
	28	40	1577.524	5038.998	-2056.654	1	5442.548	-22.2027	3.992963E-008	0.00121	7
	29	41	1265.625	5150.329	-2443.133	1	5700.42	-25.378	-3.53025E-008	0.0013345	7
	30	42	998.264	5285.221	-2946.494	1	6051.065	-29.13952	4.077883E-009	0.0011892	7
	31	44	796.875	5432.931	-3534.954	1	6481.716	-33.05017	-5.717456E-008	0.0013443	7
	32	45	627.7902	5620.242	-4294.589	1	7073.232	-37.38449	4.157623E-008	0.0012056	7
	33	47	505.5147	5811.873	-5142.192	1	7760.155	-41.50156	-3.663832E-008	0.0013221	7
	34	48	397.9953	6062.974	-6277.573	1	8727.403	-45.99626	4.001616E-009	0.0012822	7
	35	49	315.5048	6349.327	-7638.689	1	9932.95	-50.26643	1.531204E-009	0.0012181	6
	36	51	252.4038	6667.892	-9246.64	1	11400.05	-54.20406	9.738416E-010	0.0012127	6
	37	52	198.6229	7075.755	-11373.46	1	13394.84	-58.11307	9.539587E-010	0.0012166	6
	38	53	158.3615	7540.768	-13858.7	1	15777.41	-61.44859	7.345949E-010	0.0012128	6
	39	55	125.558	8125.274	-17006.54	1	18847.88	-64.46276	1.000592E-009	0.0012151	6
	40	56	100.4464	8819.474	-20736.77	1	22534.35	-66.95966	4.108737E-010	0.001217	6
	41	57	79.00281	9781.8	-25615.51	1	27419.66	-69.09962	9.4812E-010	0.0012125	6
	42	59	63.3446	10951.21	-31044.01	1	32918.98	-70.56898	9.31447E-010	0.0012158	6
	43	60	49.86702	12556.2	-38835.78	1	40815.14	-72.08319	1.205311E-009	0.0012197	6
	44	62	39.72458	14508.3	-47337.27	1	49510.68	-72.96033	8.140489E-010	0.001231	6
	45	63	31.6723	17119.06	-57711.37	1	60196.88	-73.47794	1.022308E-009	0.0012196	6
	46	64	24.93351	20852.49	-71211.36	1	74201.65	-73.67863	4.314251E-010	0.0012219	6
	47	66	19.86229	25386.98	-86716.63	1	90356.36	-73.68219	3.25371E-010	0.0012206	6
	48	67	15.83615	31392.35	-105864.1	1	110420.5	-73.48309	2.073341E-009	0.0012243	5
	49	69	12.40079	40338.37	-128520.5	1	134702.3	-72.57464	1.573422E-010	0.0012295	5
	50	70	9.93114	50512.42	-154948	1	162973.5	-71.94424	2.210922E-010	0.0012259	5
	51	72	7.944915	64165.52	-185523.2	1	196306	-70.92141	8.536103E-010	0.0012211	5
	52	73	6.317385	81785.34	-221780.8	1	236380.1	-69.75771	5.627492E-010	0.0012321	5
	53	75	5.008013	105135.3	-264566.9	1	284691.2	-68.3278	5.264283E-010	0.0012253	5
	54	78	3.945707	135391.6	-314831.3	1	342709.3	-66.73013	4.270899E-010	0.0012194	5
	55	80	3.158693	171495.5	-367198.3	1	405271.9	-64.96564	2.081351E-010	0.0012373	5
	56	84	2.504006	217156.5	-427408.2	1	479410.8	-63.0659	3.889795E-010	0.0012141	5
	57	87	1.998082	269899.7	-490548.2	1	559895.8	-61.1804	-1.420313E-011	0.0012643	5
	58	90	1.584686	333233.4	-561109.4	1	652601.2	-59.29464	3.616135E-010	0.00126	5
	59	93	1.266892	404385.1	-632076.9	1	750365.6	-57.39003	2.146804E-011	0.0012689	5
	60	98	0.999041	486152.1	-711359.1	1	861612.2	-55.65079	3.072592E-010	0.0011989	5
