EXPLAIN
TAG	EISPOT
TITLE	LABEL	Potentiostatic EIS	Test &Identifier
DATE	LABEL	10/28/2019	Date
TIME	LABEL	9:26:58	Time
NOTES	NOTES	1	&Notes...
	
PSTAT	PSTAT	REF600-11020	Potentiostat
VDC	POTEN	0.00000E+000	T	DC &Voltage (V)
FREQINIT	QUANT	1.00000E+006	Initial Fre&q. (Hz)
FREQFINAL	QUANT	1.00000E+000	Final Fre&q. (Hz)
PTSPERDEC	QUANT	1.00000E+001	Points/&decade
VAC	QUANT	2.50000E+001	AC &Voltage (mV rms)
AREA	QUANT	1.00000E-002	&Area (cm^2)
CONDIT	TWOPARAM	T	5.00000E+000	0.00000E+000	Conditionin&g	Time(s)	E(V)
DELAY	TWOPARAM	T	5.00000E+000	0.00000E+000	Init. De&lay	Time(s)	Stab.(mV/s)
SPEED	SELECTOR	1	&Optimize for:
ZGUESS	QUANT	1.00000E+005	E&stimated Z (ohms)
OCVCURVE	TABLE	19
	Pt	T	Vf	Vm	Ach	Over
	#	s	V vs. Ref.	V	V	bits
	0	0.258333	7.28358E-003	7.28358E-003	5.66799E-004	...........
	1	0.516667	7.28355E-003	7.28221E-003	5.70132E-004	...........
	2	0.775	7.28380E-003	7.30216E-003	5.73066E-004	...........
	3	1.03333	7.28601E-003	7.33005E-003	5.72066E-004	...........
	4	1.29167	7.29328E-003	7.35556E-003	5.69599E-004	...........
	5	1.55	7.30789E-003	7.39202E-003	5.69099E-004	...........
	6	1.80833	7.33009E-003	7.43982E-003	5.73299E-004	...........
	7	2.06667	7.35981E-003	7.50536E-003	5.71666E-004	...........
	8	2.325	7.39853E-003	7.58784E-003	5.74299E-004	...........
	9	2.58333	7.44799E-003	7.63755E-003	5.70132E-004	...........
	10	2.84167	7.50608E-003	7.66035E-003	5.69066E-004	...........
	11	3.1	7.56418E-003	7.65799E-003	5.72632E-004	...........
	12	3.35833	7.61094E-003	7.64239E-003	5.72999E-004	...........
	13	3.61667	7.64003E-003	7.68732E-003	5.73899E-004	...........
	14	3.875	7.65576E-003	7.72236E-003	5.72232E-004	...........
	15	4.13333	7.66996E-003	7.76682E-003	5.72266E-004	...........
	16	4.39167	7.69017E-003	7.70772E-003	5.73432E-004	...........
	17	4.65	7.71342E-003	7.82178E-003	5.73832E-004	...........
	18	4.90833	7.73731E-003	7.88351E-003	5.73666E-004	...........
EOC	QUANT	0.0077373	Open Circuit (V)
PSTATMODEL	IQUANT	4	Pstat Model
PSTATSECTION	LABEL	REF600-11020	Pstat Section
PSTATSERIALNO	LABEL	11020	Pstat Serial Number
CTRLMODE	IQUANT	1	Control Mode
IESTAB	IQUANT	0	I/E Stability
CASPEED	IQUANT	1	Control Amp Speed
CONVENTION	IQUANT	1	Current Convention
ICHRANGE	IQUANT	2	Ich Range
ICHRANGEMODE	TOGGLE	F	Ich Auto Range
ICHOFFSETENABLE	TOGGLE	T	Ich Offset Enable
ICHOFFSET	QUANT	0	Ich Offset (V)
ICHFILTER	IQUANT	3	Ich Filter
VCHRANGE	IQUANT	2	Vch Range
VCHRANGEMODE	TOGGLE	F	Vch Auto Range
VCHOFFSETENABLE	TOGGLE	T	Vch Offset Enable
VCHOFFSET	QUANT	0	Vch Offset (V)
VCHFILTER	IQUANT	3	Vch Filter
ACHRANGE	IQUANT	2	Ach Range
ACHOFFSETENABLE	TOGGLE	F	Ach Offset Enable
ACHOFFSET	QUANT	0	Ach Offset (V)
ACHFILTER	IQUANT	3	Ach Filter
IERANGELOWERLIMIT	IQUANT	1	I/E Range Lower Limit
IERANGEMODE	TOGGLE	F	I/E AutoRange
IERANGE	IQUANT	5	I/E Range
POSFEEDENABLE	TOGGLE	F	Positive Feedback IR Comp
POSFEEDRESISTANCE	QUANT	0	Positive Feedback Resistance (ohm)
ACHSELECT	IQUANT	0	Ach Select
CABLEID	IQUANT	14	Cable ID
DCCALDATE	LABEL	8/19/2019	DC Calibration Date
ACCALDATE	LABEL	8/19/2019	AC Calibration Date
THERMOSELECT	IQUANT	1	Thermo Select
FRAMEWORKVERSION	QUANT	6.33	Framework Version
INSTRUMENTVERSION	LABEL	3.50	Instrument Version
ZCURVE	TABLE
	Pt	Time	Freq	Zreal	Zimag	Zsig	Zmod	Zphz	Idc	Vdc	IERange
	#	s	Hz	ohm	ohm	V	ohm	°	A	V	#
	0	1	1000078	2425.184	-1501.358	1	2852.296	-31.76039	4.547092E-006	0.0091652	8
	1	3	794390.6	2699.232	-1394.151	1	3038.011	-27.31631	-3.243247E-006	0.0100432	8
	2	4	630984.4	2950.874	-1264.438	1	3210.367	-23.19495	-5.638141E-007	0.0098004	8
	3	6	501234.4	3133.135	-1129.512	1	3330.516	-19.8245	3.450676E-006	0.0087686	8
	4	7	398109.4	3303.777	-996.447	1	3450.775	-16.78376	-5.75075E-006	0.0106196	8
	5	9	316265.6	3406.889	-840.0721	1	3508.933	-13.85169	-9.153578E-007	0.0095819	8
	6	11	251203.1	3498.865	-732.8527	1	3574.791	-11.82983	1.179709E-006	0.0092754	8
	7	12	199546.9	3567.332	-619.0611	1	3620.648	-9.84485	1.751789E-006	0.0089549	8
	8	14	158578.1	3638.187	-542.2784	1	3678.379	-8.477628	-2.205118E-006	0.0097239	8
	9	15	125953.1	3684.192	-419.2854	1	3707.974	-6.492704	7.796634E-007	0.0077494	7
	10	16	100078.1	3715.921	-376.9315	1	3734.989	-5.792096	-5.535207E-008	0.0093805	7
	11	18	79453.13	3742.429	-354.8412	1	3759.214	-5.41635	-4.376924E-008	0.0093135	7
	12	19	63140.62	3771.612	-342.8683	1	3787.164	-5.194346	-8.359498E-008	0.0093939	7
	13	20	50203.12	3799.277	-339.8839	1	3814.45	-5.11208	4.719938E-008	0.0091091	7
	14	22	39890.62	3827.391	-341.4706	1	3842.594	-5.098292	-5.393628E-008	0.0093689	7
	15	23	31640.63	3857.162	-356.4561	1	3873.598	-5.27994	9.277748E-008	0.0090653	7
	16	24	25171.88	3887.904	-378.9583	1	3906.329	-5.567098	-1.446213E-008	0.0093163	7
	17	26	20015.62	3920.03	-415.1213	1	3941.949	-6.04495	9.234464E-008	0.009207	7
	18	27	15890.62	3958.388	-449.5391	1	3983.833	-6.479104	9.229459E-008	0.0092043	7
	19	28	12609.37	3993.994	-498.4219	1	4024.974	-7.113329	-2.257886E-008	0.0092363	7
	20	30	10078.13	4038.042	-560.9288	1	4076.815	-7.908411	4.807296E-008	0.0091025	7
	21	31	8015.625	4078.117	-642.7099	1	4128.452	-8.956132	-2.3504E-008	0.0092349	7
	22	32	6328.125	4128.271	-737.6741	1	4193.66	-10.13117	9.213206E-008	0.0090659	7
	23	34	5015.625	4178.088	-857.4706	1	4265.17	-11.59779	-4.053602E-008	0.009277	7
	24	35	3984.375	4233.387	-1007.654	1	4351.659	-13.38872	9.287749E-008	0.0092062	7
	25	36	3170.956	4285.243	-1185.685	1	4446.252	-15.46625	-7.988044E-008	0.0093791	7
	26	38	2527.573	4345.057	-1406.359	1	4566.987	-17.93514	-7.961636E-008	0.0093782	7
	27	39	1976.103	4415.671	-1704.918	1	4733.381	-21.11189	1.520902E-007	0.0090327	7
	28	40	1577.524	4481.646	-2063.753	1	4933.987	-24.7256	-5.951607E-009	0.0093041	7
	29	42	1265.625	4568.562	-2463.739	1	5190.546	-28.33714	9.144134E-008	0.0090634	7
	30	43	998.264	4671.467	-3019.576	1	5562.414	-32.87811	9.250834E-008	0.0092062	7
	31	44	796.875	4787.755	-3667.702	1	6031.139	-37.45424	4.791668E-008	0.0091027	7
	32	46	627.7902	4933.382	-4523.6	1	6693.371	-42.51886	-4.008942E-008	0.0092783	7
	33	47	505.5147	5099.84	-5477.14	1	7483.811	-47.04297	-4.126596E-008	0.0092823	7
	34	49	397.9953	5327.959	-6782.477	1	8624.914	-51.84867	5.689163E-009	0.0092768	7
	35	50	315.5048	5606.706	-8347.194	1	10055.39	-56.11124	5.382685E-009	0.0092782	7
	36	51	252.4038	5951.854	-10191.08	1	11801.81	-59.71397	1.126989E-009	0.0092101	6
	37	53	198.6229	6415.537	-12631.1	1	14167	-63.07327	1.209074E-009	0.0092095	6
	38	54	158.3615	6984.95	-15463.17	1	16967.59	-65.69058	1.64319E-009	0.0092059	6
	39	55	125.558	7733.037	-19017.79	1	20529.88	-67.8723	1.273017E-009	0.0092051	6
	40	57	100.4464	8691.768	-23210.72	1	24784.77	-69.47048	1.720854E-009	0.0092052	6
	41	58	79.00281	9982.83	-28568.5	1	30262.45	-70.7388	4.183603E-010	0.0092043	6
	42	59	63.3446	11128.46	-34615.6	1	36360.45	-72.17809	9.748873E-010	0.0092011	6
	43	61	49.86702	14070.43	-42635.49	1	44897.24	-71.73624	2.079185E-010	0.0092023	6
	44	62	39.72458	16517.95	-52099.21	1	54655.02	-72.40889	6.607093E-010	0.0092059	6
	45	64	31.6723	20167.38	-62819.15	1	65977.04	-72.20135	1.10312E-009	0.0092062	6
	46	65	24.93351	24989.1	-77019.48	1	80971.95	-72.02425	6.26012E-010	0.0092048	6
	47	66	19.86229	30859.58	-92838.8	1	97833.3	-71.61321	8.365299E-010	0.0092101	6
	48	68	15.83615	39282.09	-112700.1	1	119349.9	-70.78378	2.768326E-009	0.0092039	5
	49	69	12.40079	50007.64	-136413.7	1	145290.9	-69.86766	-1.059579E-009	0.0092067	5
	50	70	9.93114	61213.75	-159824.5	1	171146.1	-69.04285	6.887134E-010	0.009208	5
	51	72	7.944915	77008.01	-188526.4	1	203647.8	-67.7813	9.304357E-010	0.0092117	5
	52	74	6.317385	97027.7	-223184.3	1	243363.1	-66.50336	3.872905E-010	0.0092236	5
	53	76	5.008013	121497.6	-262745.4	1	289476.8	-65.18344	4.926051E-010	0.0092215	5
	54	78	3.945707	152657.8	-308865.8	1	344532.3	-63.69897	-1.922722E-010	0.009208	5
	55	81	3.158693	188288.4	-355830.3	1	402576.4	-62.11435	2.562139E-010	0.0092263	5
	56	84	2.504006	232007.8	-410340.3	1	471388.2	-60.51604	-2.194488E-010	0.0092239	5
	57	87	1.998082	279746	-466418.2	1	543878.5	-59.04572	2.280048E-010	0.0091747	5
	58	90	1.584686	335688.5	-532429.7	1	629418.9	-57.76922	-9.374307E-011	0.009187	5
	59	94	1.266892	395461.5	-598949	1	717725.4	-56.56485	1.619561E-010	0.0091787	5
	60	98	0.999041	464096.5	-681513.1	1	824527.6	-55.74594	-1.491198E-010	0.0092331	5
