EXPLAIN
TAG	EISPOT
TITLE	LABEL	Potentiostatic IDE	Test &Identifier
DATE	LABEL	9/6/2019	Date
TIME	LABEL	7:45:10	Time
NOTES	NOTES	1	&Notes...
	
PSTAT	PSTAT	REF600-11020	Potentiostat
VDC	POTEN	0.00000E+000	T	DC &Voltage (V)
FREQINIT	QUANT	1.00000E+006	Initial Fre&q. (Hz)
FREQFINAL	QUANT	1.00000E+000	Final Fre&q. (Hz)
PTSPERDEC	QUANT	1.00000E+001	Points/&decade
VAC	QUANT	2.50000E+001	AC &Voltage (mV rms)
AREA	QUANT	1.00000E-002	&Area (cm^2)
CONDIT	TWOPARAM	T	5.00000E+000	0.00000E+000	Conditionin&g	Time(s)	E(V)
DELAY	TWOPARAM	T	5.00000E+000	0.00000E+000	Init. De&lay	Time(s)	Stab.(mV/s)
SPEED	SELECTOR	1	&Optimize for:
ZGUESS	QUANT	1.00000E+007	E&stimated Z (ohms)
OCVCURVE	TABLE	19
	Pt	T	Vf	Vm	Ach	Over
	#	s	V vs. Ref.	V	V	bits
	0	0.258333	9.22528E-003	9.22528E-003	5.57032E-004	...........
	1	0.516667	9.22318E-003	9.11554E-003	5.53599E-004	...........
	2	0.775	9.21052E-003	9.02264E-003	5.58099E-004	...........
	3	1.03333	9.17706E-003	9.01969E-003	5.57299E-004	...........
	4	1.29167	9.12933E-003	9.20478E-003	5.61699E-004	...........
	5	1.55	9.09609E-003	9.17295E-003	5.57432E-004	...........
	6	1.80833	9.09773E-003	9.11840E-003	5.64532E-004	...........
	7	2.06667	9.11963E-003	9.10219E-003	5.63966E-004	...........
	8	2.325	9.13437E-003	9.15031E-003	5.61632E-004	...........
	9	2.58333	9.13600E-003	9.16669E-003	5.59232E-004	...........
	10	2.84167	9.13714E-003	9.19208E-003	5.60632E-004	...........
	11	3.1	9.14734E-003	9.22246E-003	5.65432E-004	...........
	12	3.35833	9.16619E-003	9.22622E-003	5.66366E-004	...........
	13	3.61667	9.18924E-003	9.28083E-003	5.62766E-004	...........
	14	3.875	9.21411E-003	9.30746E-003	5.64266E-004	...........
	15	4.13333	9.24159E-003	9.33916E-003	5.62399E-004	...........
	16	4.39167	9.27225E-003	9.37854E-003	5.67332E-004	...........
	17	4.65	9.30523E-003	9.41721E-003	5.65999E-004	...........
	18	4.90833	9.33978E-003	9.44580E-003	5.64399E-004	...........
EOC	QUANT	0.0093398	Open Circuit (V)
PSTATMODEL	IQUANT	4	Pstat Model
PSTATSECTION	LABEL	REF600-11020	Pstat Section
PSTATSERIALNO	LABEL	11020	Pstat Serial Number
CTRLMODE	IQUANT	1	Control Mode
IESTAB	IQUANT	0	I/E Stability
CASPEED	IQUANT	1	Control Amp Speed
CONVENTION	IQUANT	1	Current Convention
ICHRANGE	IQUANT	2	Ich Range
ICHRANGEMODE	TOGGLE	F	Ich Auto Range
ICHOFFSETENABLE	TOGGLE	T	Ich Offset Enable
ICHOFFSET	QUANT	0	Ich Offset (V)
ICHFILTER	IQUANT	3	Ich Filter
VCHRANGE	IQUANT	2	Vch Range
VCHRANGEMODE	TOGGLE	F	Vch Auto Range
VCHOFFSETENABLE	TOGGLE	T	Vch Offset Enable
VCHOFFSET	QUANT	0	Vch Offset (V)
VCHFILTER	IQUANT	3	Vch Filter
ACHRANGE	IQUANT	2	Ach Range
ACHOFFSETENABLE	TOGGLE	F	Ach Offset Enable
ACHOFFSET	QUANT	0	Ach Offset (V)
ACHFILTER	IQUANT	3	Ach Filter
IERANGELOWERLIMIT	IQUANT	1	I/E Range Lower Limit
IERANGEMODE	TOGGLE	F	I/E AutoRange
IERANGE	IQUANT	3	I/E Range
POSFEEDENABLE	TOGGLE	F	Positive Feedback IR Comp
POSFEEDRESISTANCE	QUANT	0	Positive Feedback Resistance (ohm)
ACHSELECT	IQUANT	0	Ach Select
CABLEID	IQUANT	14	Cable ID
DCCALDATE	LABEL	8/19/2019	DC Calibration Date
ACCALDATE	LABEL	8/19/2019	AC Calibration Date
THERMOSELECT	IQUANT	1	Thermo Select
FRAMEWORKVERSION	QUANT	6.33	Framework Version
INSTRUMENTVERSION	LABEL	3.50	Instrument Version
ZCURVE	TABLE
	Pt	Time	Freq	Zreal	Zimag	Zsig	Zmod	Zphz	Idc	Vdc	IERange
	#	s	Hz	ohm	ohm	V	ohm	°	A	V	#
	0	2	1000078	2468.208	-1566.817	1	2923.519	-32.40735	-4.929901E-008	0.0117583	8
	1	3	794390.6	2769.823	-1471.568	1	3136.469	-27.98108	3.236146E-006	0.0107153	8
	2	4	630984.4	3023.585	-1321.777	1	3299.873	-23.61281	-1.270612E-007	0.0109851	8
	3	6	501234.4	3207.853	-1168.401	1	3414.013	-20.01321	-3.186549E-006	0.0117396	8
	4	7	398109.4	3366.864	-1023.516	1	3519	-16.9091	-1.932487E-006	0.0114479	8
	5	9	316265.6	3482.377	-886.4086	1	3593.421	-14.28087	-5.299548E-007	0.0110974	8
	6	10	251203.1	3578.596	-772.017	1	3660.923	-12.17395	5.788497E-007	0.0107817	8
	7	11	199546.9	3642.268	-688.9216	1	3706.849	-10.71075	-3.122638E-006	0.0116037	8
	8	13	158578.1	3695.956	-616.7786	1	3747.066	-9.474176	9.718672E-007	0.0106837	8
	9	14	125953.1	3753.05	-547.9688	1	3792.842	-8.306847	1.160838E-007	0.0106584	7
	10	15	100078.1	3793.218	-522.8749	1	3829.086	-7.848459	-1.09304E-008	0.0109172	7
	11	17	79453.13	3835.15	-519.0228	1	3870.111	-7.707191	3.697922E-008	0.0108766	7
	12	18	63140.62	3878.353	-527.0245	1	3913.997	-7.738453	-2.321446E-009	0.0109013	7
	13	20	50203.12	3923.677	-546.5231	1	3961.556	-7.929624	-1.805717E-009	0.0108943	7
	14	21	39890.62	3972.896	-582.2156	1	4015.33	-8.337174	4.912777E-008	0.0107869	7
	15	22	31640.63	4026.144	-631.2949	1	4075.337	-8.911355	3.864196E-008	0.0108696	7
	16	24	25171.88	4083.897	-692.8301	1	4142.25	-9.62851	-3.16145E-008	0.0109333	7
	17	25	20015.62	4148.847	-770.9058	1	4219.861	-10.5262	-1.527566E-009	0.0108893	7
	18	26	15890.62	4220.064	-864.7762	1	4307.758	-11.58074	4.877302E-008	0.0107794	7
	19	28	12609.37	4299.984	-982.539	1	4410.81	-12.87102	-2.375875E-008	0.0108898	7
	20	29	10078.13	4387.229	-1114.915	1	4526.678	-14.25859	8.077426E-008	0.0107469	7
	21	30	8015.625	4485.73	-1278.064	1	4664.25	-15.9032	8.586873E-008	0.0107452	7
	22	32	6328.125	4602.187	-1481.571	1	4834.788	-17.8448	-5.220256E-009	0.0108855	7
	23	33	5015.625	4726.813	-1720.627	1	5030.241	-20.00222	-2.160998E-008	0.010947	7
	24	35	3984.375	4866.525	-2003.066	1	5262.637	-22.37211	-2.687946E-008	0.0108846	7
	25	36	3170.956	5026.756	-2338.841	1	5544.227	-24.95154	1.302597E-008	0.0108365	7
	26	37	2527.573	5209.565	-2742.097	1	5887.161	-27.76044	-2.102399E-008	0.0109051	7
	27	39	1976.103	5438.694	-3261.905	1	6341.878	-30.9536	2.173654E-008	0.0108618	7
	28	40	1577.524	5686.064	-3839.807	1	6861.154	-34.03121	-2.441241E-008	0.0108824	7
	29	41	1265.625	5961.47	-4503.788	1	7471.495	-37.07042	3.103263E-008	0.0107761	7
	30	43	998.264	6314.75	-5372.694	1	8291.074	-40.39169	-3.294956E-008	0.0109371	7
	31	44	796.875	6711.093	-6345.51	1	9236.03	-43.39614	4.09865E-008	0.0108579	7
	32	45	627.7902	7198.047	-7581.04	1	10453.9	-46.48446	1.651671E-009	0.0108327	6
	33	47	505.5147	7722.169	-8919.985	1	11798.22	-49.11675	-1.685305E-009	0.0107389	6
	34	48	397.9953	8391.096	-10683.14	1	13584.55	-51.85207	7.089036E-010	0.0108195	6
	35	49	315.5048	9154.539	-12739.51	1	15687.6	-54.29919	7.31161E-010	0.0108186	6
	36	51	252.4038	10008.85	-15104.97	1	18120.08	-56.47075	7.55108E-010	0.0108197	6
	37	52	198.6229	11082.76	-18164.08	1	21278.19	-58.61066	6.392522E-010	0.0108201	6
	38	53	158.3615	12273.39	-21648.82	1	24885.89	-60.44975	6.966142E-010	0.0108153	6
	39	55	125.558	13712.17	-25966.75	1	29364.87	-62.16296	6.104017E-010	0.0108143	6
	40	56	100.4464	15350.73	-30964.52	1	34560.77	-63.62997	3.862898E-010	0.0108102	6
	41	57	79.00281	17441.37	-37484.91	1	41343.93	-65.04789	7.07983E-010	0.0108135	6
	42	59	63.3446	19693.01	-44563.98	1	48721.27	-66.15916	5.960935E-010	0.0108158	6
	43	60	49.86702	22928.97	-54180.36	1	58832.38	-67.06207	6.052348E-010	0.0108122	6
	44	61	39.72458	26323.46	-65065.72	1	70188.84	-67.97336	3.257057E-010	0.0108192	6
	45	63	31.6723	30702.38	-78050.27	1	83871.8	-68.52697	5.849319E-010	0.0108218	6
	46	64	24.93351	36296.09	-94731.98	1	101447.3	-69.03591	6.794569E-010	0.0108164	6
	47	65	19.86229	42971.68	-113697	1	121546.6	-69.29597	4.082779E-010	0.0108187	5
	48	67	15.83615	51520.87	-136467.8	1	145869.4	-69.31692	-2.425321E-010	0.010819	5
	49	68	12.40079	62737.86	-165963.1	1	177425.4	-69.29225	6.784792E-010	0.0108163	5
	50	70	9.93114	74943.52	-197589.4	1	211324.7	-69.22881	3.816065E-010	0.0108067	5
	51	71	7.944915	90909.16	-234816.5	1	251800.1	-68.83611	4.459395E-010	0.0108177	5
	52	73	6.317385	111165.6	-280420.9	1	301651.5	-68.37543	3.589213E-010	0.0108253	5
	53	74	5.008013	136575	-334829.6	1	361612.4	-67.80975	-1.86497E-011	0.0108069	5
	54	77	3.945707	169539.9	-399958.1	1	434408	-67.0282	2.017223E-010	0.0108175	5
	55	79	3.158693	207765.7	-470249.2	1	514102	-66.16318	1.812769E-010	0.0108371	5
	56	83	2.504006	256792.6	-555639.6	1	612109.3	-65.19566	-3.806384E-011	0.0108097	5
	57	85	1.998082	314511.4	-649388.1	1	721541.6	-64.15818	-4.973065E-011	0.0107848	5
	58	88	1.584686	387370.3	-756444.4	1	849861.1	-62.8833	3.074223E-011	0.0108496	5
	59	92	1.266892	471227.3	-876134	1	994820	-61.72649	9.350132E-012	0.0107785	5
	60	96	0.999041	578457.3	-1015797	1	1168955	-60.34016	7.205498E-011	0.0108511	4
