EXPLAIN
TAG	EISPOT
TITLE	LABEL	Potentiostatic EIS	Test &Identifier
DATE	LABEL	10/4/2019	Date
TIME	LABEL	10:53:41	Time
NOTES	NOTES	2	&Notes...
	
	
PSTAT	PSTAT	REF600-11020	Potentiostat
VDC	POTEN	0.00000E+000	T	DC &Voltage (V)
FREQINIT	QUANT	1.00000E+006	Initial Fre&q. (Hz)
FREQFINAL	QUANT	1.00000E+000	Final Fre&q. (Hz)
PTSPERDEC	QUANT	1.00000E+001	Points/&decade
VAC	QUANT	2.50000E+001	AC &Voltage (mV rms)
AREA	QUANT	1.00000E-002	&Area (cm^2)
CONDIT	TWOPARAM	T	5.00000E+000	0.00000E+000	Conditionin&g	Time(s)	E(V)
DELAY	TWOPARAM	T	5.00000E+000	0.00000E+000	Init. De&lay	Time(s)	Stab.(mV/s)
SPEED	SELECTOR	1	&Optimize for:
ZGUESS	QUANT	1.00000E+004	E&stimated Z (ohms)
OCVCURVE	TABLE	19
	Pt	T	Vf	Vm	Ach	Over
	#	s	V vs. Ref.	V	V	bits
	0	0.258333	8.59258E-003	8.59258E-003	5.36533E-004	...........
	1	0.516667	8.58997E-003	8.45594E-003	5.36399E-004	...........
	2	0.775	8.57461E-003	8.36146E-003	5.37066E-004	...........
	3	1.03333	8.53372E-003	8.28847E-003	5.29733E-004	...........
	4	1.29167	8.46687E-003	8.24565E-003	5.24233E-004	...........
	5	1.55	8.38793E-003	8.15117E-003	5.36466E-004	...........
	6	1.80833	8.31046E-003	8.11976E-003	5.31933E-004	...........
	7	2.06667	8.24041E-003	8.09909E-003	5.30766E-004	...........
	8	2.325	8.18166E-003	8.09368E-003	5.30266E-004	...........
	9	2.58333	8.13807E-003	8.07748E-003	5.35433E-004	...........
	10	2.84167	8.10954E-003	8.06765E-003	5.33533E-004	...........
	11	3.1	8.09169E-003	8.06626E-003	5.29766E-004	...........
	12	3.35833	8.07993E-003	8.06074E-003	5.34766E-004	...........
	13	3.61667	8.07187E-003	8.06288E-003	5.34200E-004	...........
	14	3.875	8.06668E-003	8.06470E-003	5.31166E-004	...........
	15	4.13333	8.06413E-003	8.07179E-003	5.30400E-004	...........
	16	4.39167	8.06429E-003	8.08015E-003	5.35133E-004	...........
	17	4.65	8.06709E-003	8.08306E-003	5.37066E-004	...........
	18	4.90833	8.07177E-003	8.08495E-003	5.28800E-004	...........
EOC	QUANT	0.0080718	Open Circuit (V)
PSTATMODEL	IQUANT	4	Pstat Model
PSTATSECTION	LABEL	REF600-11020	Pstat Section
PSTATSERIALNO	LABEL	11020	Pstat Serial Number
CTRLMODE	IQUANT	1	Control Mode
IESTAB	IQUANT	0	I/E Stability
CASPEED	IQUANT	1	Control Amp Speed
CONVENTION	IQUANT	1	Current Convention
ICHRANGE	IQUANT	2	Ich Range
ICHRANGEMODE	TOGGLE	F	Ich Auto Range
ICHOFFSETENABLE	TOGGLE	T	Ich Offset Enable
ICHOFFSET	QUANT	0	Ich Offset (V)
ICHFILTER	IQUANT	3	Ich Filter
VCHRANGE	IQUANT	2	Vch Range
VCHRANGEMODE	TOGGLE	F	Vch Auto Range
VCHOFFSETENABLE	TOGGLE	T	Vch Offset Enable
VCHOFFSET	QUANT	0	Vch Offset (V)
VCHFILTER	IQUANT	3	Vch Filter
ACHRANGE	IQUANT	2	Ach Range
ACHOFFSETENABLE	TOGGLE	F	Ach Offset Enable
ACHOFFSET	QUANT	0	Ach Offset (V)
ACHFILTER	IQUANT	3	Ach Filter
IERANGELOWERLIMIT	IQUANT	1	I/E Range Lower Limit
IERANGEMODE	TOGGLE	F	I/E AutoRange
IERANGE	IQUANT	6	I/E Range
POSFEEDENABLE	TOGGLE	F	Positive Feedback IR Comp
POSFEEDRESISTANCE	QUANT	0	Positive Feedback Resistance (ohm)
ACHSELECT	IQUANT	0	Ach Select
CABLEID	IQUANT	14	Cable ID
DCCALDATE	LABEL	8/19/2019	DC Calibration Date
ACCALDATE	LABEL	8/19/2019	AC Calibration Date
THERMOSELECT	IQUANT	1	Thermo Select
FRAMEWORKVERSION	QUANT	6.33	Framework Version
INSTRUMENTVERSION	LABEL	3.50	Instrument Version
ZCURVE	TABLE
	Pt	Time	Freq	Zreal	Zimag	Zsig	Zmod	Zphz	Idc	Vdc	IERange
	#	s	Hz	ohm	ohm	V	ohm	°	A	V	#
	0	2	1000078	2629.357	-1953.551	1	3275.649	-36.61148	5.062332E-006	0.0092956	8
	1	3	794390.6	3029.182	-1894.467	1	3572.807	-32.02209	-3.525211E-006	0.0102262	8
	2	4	630984.4	3383.546	-1787.738	1	3826.799	-27.85029	-2.040223E-006	0.0103371	8
	3	6	501234.4	3698.106	-1625.057	1	4039.406	-23.7221	-2.949253E-006	0.0102378	8
	4	7	398109.4	3926.944	-1462.638	1	4190.489	-20.42845	-1.618753E-006	0.0100974	8
	5	9	316265.6	4153.429	-1303.568	1	4353.19	-17.42465	-6.4387E-007	0.0098556	8
	6	10	251203.1	4313.185	-1140.016	1	4461.3	-14.80526	1.062723E-006	0.0093673	8
	7	11	199546.9	4424.519	-996.142	1	4535.27	-12.68809	-3.281668E-007	0.0094693	8
	8	13	158578.1	4504.417	-894.0197	1	4592.28	-11.22596	-3.161415E-007	0.0094682	8
	9	14	125953.1	4620.412	-764.1227	1	4683.171	-9.390567	9.240943E-008	0.0095045	7
	10	15	100078.1	4683.54	-701.5256	1	4735.787	-8.518738	-4.198932E-008	0.0095778	7
	11	17	79453.13	4745.385	-665.1316	1	4791.772	-7.97882	-1.532476E-008	0.0095518	7
	12	18	63140.62	4802.783	-643.0312	1	4845.638	-7.625822	-5.693668E-008	0.009695	7
	13	19	50203.12	4861.06	-636.6217	1	4902.57	-7.461195	3.574002E-008	0.0094066	7
	14	21	39890.62	4919.826	-644.9786	1	4961.923	-7.468761	4.717125E-008	0.009444	7
	15	22	31640.63	4982.317	-668.2841	1	5026.937	-7.639553	-2.831092E-008	0.009525	7
	16	23	25171.88	5047.329	-705.5909	1	5096.409	-7.958086	6.93149E-008	0.0093814	7
	17	25	20015.62	5117.716	-758.1763	1	5173.572	-8.426927	-5.615686E-008	0.0095977	7
	18	26	15890.62	5196.669	-823.3921	1	5261.497	-9.003448	3.820441E-008	0.0094742	7
	19	27	12609.37	5286.854	-904.6716	1	5363.697	-9.71025	1.082725E-008	0.0095985	7
	20	29	10078.13	5377.723	-1002.518	1	5470.37	-10.5599	8.633775E-010	0.0094877	7
	21	30	8015.625	5486.685	-1119.119	1	5599.655	-11.52848	-5.553111E-009	0.0095558	7
	22	31	6328.125	5610.944	-1258.482	1	5750.345	-12.6417	-4.652902E-008	0.0095972	7
	23	33	5015.625	5748.88	-1419.779	1	5921.604	-13.87253	-5.496923E-008	0.0096908	7
	24	34	3984.375	5898.485	-1600.032	1	6111.646	-15.17692	-1.294899E-008	0.0094904	7
	25	35	3170.956	6067.355	-1808.362	1	6331.112	-16.59657	-3.687521E-008	0.0096067	7
	26	37	2527.573	6249.289	-2044.165	1	6575.121	-18.11311	-5.650303E-008	0.0096832	7
	27	38	1976.103	6466.419	-2342.696	1	6877.703	-19.91476	8.472746E-010	0.0094826	7
	28	39	1577.524	6674.838	-2660.785	1	7185.627	-21.73367	-5.441134E-008	0.0096797	7
	29	41	1265.625	6891.927	-3027.806	1	7527.7	-23.71715	7.00181E-008	0.0093669	7
	30	42	998.264	7135.431	-3505.168	1	7949.879	-26.16185	-4.624841E-008	0.0095903	7
	31	44	796.875	7374.116	-4053.794	1	8414.917	-28.79905	-4.765167E-008	0.009595	7
	32	45	627.7902	7632.121	-4762.825	1	8996.319	-31.96622	-2.724687E-008	0.0095142	7
	33	46	505.5147	7879.361	-5567.041	1	9647.6	-35.24253	-1.088319E-010	0.0094846	6
	34	48	397.9953	8173.619	-6672.358	1	10551.23	-39.22574	7.008562E-010	0.0094773	6
	35	49	315.5048	8487.067	-8019.742	1	11676.75	-43.37833	8.25034E-010	0.0094776	6
	36	50	252.4038	8829.53	-9629.23	1	13064.55	-47.48069	9.297222E-010	0.009478	6
	37	52	198.6229	9267.478	-11786.03	1	14993.22	-51.82166	6.166097E-010	0.0094753	6
	38	53	158.3615	9776.64	-14324.83	1	17343.11	-55.68662	6.127018E-010	0.0094764	6
	39	54	125.558	10433.57	-17538.03	1	20406.9	-59.25112	5.602531E-010	0.0094752	6
	40	56	100.4464	11240.79	-21324.76	1	24106.03	-62.2052	7.684985E-010	0.0094721	6
	41	57	79.00281	12391.22	-26369.31	1	29135.6	-64.83067	9.533241E-010	0.0094695	6
	42	58	63.3446	13883.49	-31974.42	1	34858.5	-66.52922	9.259091E-011	0.0094718	6
	43	60	49.86702	15669.55	-39469.62	1	42466.29	-68.34679	7.079805E-010	0.0094719	6
	44	61	39.72458	18137.19	-47901.8	1	51220.51	-69.2617	4.503304E-010	0.0094759	6
	45	63	31.6723	21292.16	-58133.9	1	61910.47	-69.88421	3.9745E-010	0.0094721	6
	46	64	24.93351	25586.71	-70952.13	1	75424.7	-70.16972	4.340197E-010	0.0094673	6
	47	65	19.86229	30730.32	-85549.57	1	90901.49	-70.24117	7.485131E-010	0.0094795	6
	48	67	15.83615	37594.99	-102484.4	1	109162.5	-69.85514	-2.458858E-010	0.009472	5
	49	68	12.40079	46228.21	-124616.2	1	132914.5	-69.64693	2.201827E-010	0.0094803	5
	50	69	9.93114	56118.82	-147900.9	1	158189.7	-69.22149	4.591669E-011	0.0094774	5
	51	71	7.944915	68175.98	-175357.8	1	188144.5	-68.75481	-1.38364E-010	0.0094725	5
	52	73	6.317385	82839.23	-208302.2	1	224169.9	-68.3129	1.631776E-010	0.0094683	5
	53	74	5.008013	100873.1	-247157.7	1	266950	-67.79803	2.794047E-010	0.0094828	5
	54	77	3.945707	122931.2	-294589.9	1	319210.4	-67.34942	8.322656E-011	0.0094772	5
	55	79	3.158693	146870.5	-346785.5	1	376604.8	-67.04639	2.454879E-010	0.0094909	5
	56	83	2.504006	177194.3	-411302.7	1	447847.9	-66.69303	-8.964405E-011	0.009472	5
	57	85	1.998082	212103.1	-484317.1	1	528725.6	-66.34934	9.330708E-011	0.0094291	5
	58	88	1.584686	254197.2	-572208.1	1	626129.6	-66.04734	7.107279E-011	0.009474	5
	59	92	1.266892	305098.9	-673847.7	1	739700	-65.64034	1.021268E-010	0.0094271	5
	60	96	0.999041	369597.9	-799173.1	1	880500	-65.18062	9.113261E-011	0.0095076	5
