EXPLAIN
TAG	EISPOT
TITLE	LABEL	Potentiostatic EIS	Test &Identifier
DATE	LABEL	10/24/2019	Date
TIME	LABEL	9:22:26	Time
NOTES	NOTES	1	&Notes...
	
PSTAT	PSTAT	REF600-11020	Potentiostat
VDC	POTEN	0.00000E+000	T	DC &Voltage (V)
FREQINIT	QUANT	1.00000E+006	Initial Fre&q. (Hz)
FREQFINAL	QUANT	1.00000E+000	Final Fre&q. (Hz)
PTSPERDEC	QUANT	1.00000E+001	Points/&decade
VAC	QUANT	2.50000E+001	AC &Voltage (mV rms)
AREA	QUANT	1.00000E-002	&Area (cm^2)
CONDIT	TWOPARAM	T	5.00000E+000	0.00000E+000	Conditionin&g	Time(s)	E(V)
DELAY	TWOPARAM	T	5.00000E+000	0.00000E+000	Init. De&lay	Time(s)	Stab.(mV/s)
SPEED	SELECTOR	1	&Optimize for:
ZGUESS	QUANT	1.00000E+005	E&stimated Z (ohms)
OCVCURVE	TABLE	19
	Pt	T	Vf	Vm	Ach	Over
	#	s	V vs. Ref.	V	V	bits
	0	0.258333	2.42434E-003	2.42434E-003	5.55566E-004	...........
	1	0.516667	2.41399E-003	1.88220E-003	5.55299E-004	...........
	2	0.775	2.35259E-003	1.48380E-003	5.53533E-004	...........
	3	1.03333	2.18587E-003	1.08121E-003	5.56599E-004	...........
	4	1.29167	1.90037E-003	7.09443E-004	5.57966E-004	...........
	5	1.55	1.53666E-003	3.85727E-004	5.56899E-004	...........
	6	1.80833	1.15003E-003	9.53728E-005	5.56266E-004	...........
	7	2.06667	7.79414E-004	-1.59568E-004	5.46799E-004	...........
	8	2.325	4.42630E-004	-4.03843E-004	5.54966E-004	...........
	9	2.58333	1.42120E-004	-6.26843E-004	5.49366E-004	...........
	10	2.84167	-1.27429E-004	-8.35887E-004	5.48066E-004	...........
	11	3.1	-3.72817E-004	-1.02919E-003	5.52299E-004	...........
	12	3.35833	-5.99317E-004	-1.22315E-003	5.50233E-004	...........
	13	3.61667	-8.10636E-004	-1.38961E-003	5.45766E-004	...........
	14	3.875	-1.00864E-003	-1.53207E-003	5.47999E-004	...........
	15	4.13333	-1.18932E-003	-1.50103E-003	5.48233E-004	...........
	16	4.39167	-1.34034E-003	-1.61031E-003	5.48599E-004	...........
	17	4.65	-1.45657E-003	-1.86645E-003	5.51033E-004	...........
	18	4.90833	-1.55886E-003	-1.98375E-003	5.51299E-004	...........
EOC	QUANT	-0.0015589	Open Circuit (V)
PSTATMODEL	IQUANT	4	Pstat Model
PSTATSECTION	LABEL	REF600-11020	Pstat Section
PSTATSERIALNO	LABEL	11020	Pstat Serial Number
CTRLMODE	IQUANT	1	Control Mode
IESTAB	IQUANT	0	I/E Stability
CASPEED	IQUANT	1	Control Amp Speed
CONVENTION	IQUANT	1	Current Convention
ICHRANGE	IQUANT	2	Ich Range
ICHRANGEMODE	TOGGLE	F	Ich Auto Range
ICHOFFSETENABLE	TOGGLE	T	Ich Offset Enable
ICHOFFSET	QUANT	0	Ich Offset (V)
ICHFILTER	IQUANT	3	Ich Filter
VCHRANGE	IQUANT	2	Vch Range
VCHRANGEMODE	TOGGLE	F	Vch Auto Range
VCHOFFSETENABLE	TOGGLE	T	Vch Offset Enable
VCHOFFSET	QUANT	0	Vch Offset (V)
VCHFILTER	IQUANT	3	Vch Filter
ACHRANGE	IQUANT	2	Ach Range
ACHOFFSETENABLE	TOGGLE	F	Ach Offset Enable
ACHOFFSET	QUANT	0	Ach Offset (V)
ACHFILTER	IQUANT	3	Ach Filter
IERANGELOWERLIMIT	IQUANT	1	I/E Range Lower Limit
IERANGEMODE	TOGGLE	F	I/E AutoRange
IERANGE	IQUANT	4	I/E Range
POSFEEDENABLE	TOGGLE	F	Positive Feedback IR Comp
POSFEEDRESISTANCE	QUANT	0	Positive Feedback Resistance (ohm)
ACHSELECT	IQUANT	0	Ach Select
CABLEID	IQUANT	14	Cable ID
DCCALDATE	LABEL	8/19/2019	DC Calibration Date
ACCALDATE	LABEL	8/19/2019	AC Calibration Date
THERMOSELECT	IQUANT	1	Thermo Select
FRAMEWORKVERSION	QUANT	6.33	Framework Version
INSTRUMENTVERSION	LABEL	3.50	Instrument Version
ZCURVE	TABLE
	Pt	Time	Freq	Zreal	Zimag	Zsig	Zmod	Zphz	Idc	Vdc	IERange
	#	s	Hz	ohm	ohm	V	ohm	°	A	V	#
	0	1	1000078	2264.855	-1581.726	1	2762.504	-34.92963	1.143039E-006	0.0005417	8
	1	3	794390.6	2567.219	-1504.333	1	2975.505	-30.36935	-1.4219E-006	0.0006146	8
	2	4	630984.4	2843.991	-1388.071	1	3164.652	-26.01568	1.251812E-006	-6.402297E-008	8
	3	5	501234.4	3082.552	-1271.803	1	3334.608	-22.42012	5.057306E-007	-8.443226E-007	8
	4	7	398109.4	3272.272	-1134.814	1	3463.462	-19.12639	-2.503983E-006	0.0005917	8
	5	8	316265.6	3406.113	-983.16	1	3545.167	-16.10057	-4.743123E-008	4.485874E-005	8
	6	10	251203.1	3523.486	-877.0821	1	3631.009	-13.97823	1.956164E-006	-0.0003665	8
	7	11	199546.9	3601.488	-777.2527	1	3684.405	-12.17847	3.375445E-006	-0.0005405	8
	8	12	158578.1	3678.805	-688.6964	1	3742.714	-10.60341	7.81818E-007	1.668746E-005	8
	9	14	125953.1	3746.21	-589.1603	1	3792.256	-8.937606	4.300919E-007	-0.000955	7
	10	15	100078.1	3800.97	-556.7195	1	3841.524	-8.332734	-3.005174E-008	2.45285E-005	7
	11	16	79453.13	3846.895	-541.7737	1	3884.858	-8.016472	-4.273319E-008	0.0001233	7
	12	18	63140.62	3893.915	-542.0308	1	3931.459	-7.924618	6.606131E-008	-0.0001481	7
	13	19	50203.12	3941.011	-553.0306	1	3979.625	-7.98799	6.755213E-008	-5.217349E-005	7
	14	20	39890.62	3992.934	-577.6804	1	4034.505	-8.232187	-6.614198E-009	-4.937656E-005	7
	15	22	31640.63	4047.857	-615.735	1	4094.42	-8.649177	-2.872815E-008	1.155999E-005	7
	16	23	25171.88	4107.797	-666.9619	1	4161.591	-9.222342	1.108909E-007	-0.0001827	7
	17	24	20015.62	4179.155	-720.6241	1	4240.83	-9.78347	-3.153634E-008	-3.353987E-006	7
	18	26	15890.62	4252.082	-813.4368	1	4329.189	-10.83001	-4.690513E-009	-2.666462E-006	7
	19	27	12609.37	4336.086	-907.9229	1	4430.12	-11.82617	-5.922292E-008	7.380119E-005	7
	20	29	10078.13	4429.112	-1020.176	1	4545.084	-12.97095	-1.732502E-008	-3.504084E-005	7
	21	30	8015.625	4544.673	-1140.908	1	4685.693	-14.09247	-4.12986E-008	0.000106	7
	22	31	6328.125	4661.564	-1310.345	1	4842.229	-15.70044	-3.003145E-008	-1.322873E-005	7
	23	33	5015.625	4800.122	-1492.055	1	5026.668	-17.26718	-3.083781E-008	-1.42678E-005	7
	24	34	3984.375	4961.085	-1695.439	1	5242.793	-18.86773	-3.566815E-008	-6.111815E-006	7
	25	35	3170.956	5132.241	-1943.362	1	5487.854	-20.73955	-5.076491E-009	-6.256417E-005	7
	26	37	2527.573	5329.451	-2216.467	1	5771.981	-22.58195	-1.641636E-009	6.661478E-006	7
	27	38	1976.103	5573.363	-2565.915	1	6135.658	-24.72082	-5.954728E-009	8.659006E-005	7
	28	40	1577.524	5887.598	-2909.097	1	6567.088	-26.29425	-1.457013E-008	-3.720502E-005	7
	29	41	1265.625	6101.246	-3349.177	1	6960.042	-28.76385	6.99931E-008	-6.290777E-005	7
	30	42	998.264	6431.268	-3862.14	1	7501.822	-30.98589	1.070102E-008	-7.879637E-005	7
	31	44	796.875	6769.485	-4427.686	1	8088.901	-33.18731	-2.700369E-009	1.002867E-005	7
	32	45	627.7902	7156.268	-5141.163	1	8811.567	-35.69399	-6.15145E-009	9.320623E-005	7
	33	46	505.5147	7522.828	-5882.253	1	9549.55	-38.02258	2.36678E-010	-2.159118E-005	6
	34	48	397.9953	7935.019	-6890.971	1	10509.52	-40.97187	1.300061E-009	-5.629265E-005	6
	35	49	315.5048	8337.667	-8106.071	1	11628.63	-44.19309	1.413844E-009	-5.69471E-005	6
	36	51	252.4038	8735.655	-9560.51	1	12950.49	-47.58135	6.581897E-010	-5.86483E-005	6
	37	52	198.6229	9193.498	-11518.61	1	14737.66	-51.40512	8.164526E-010	-5.790607E-005	6
	38	53	158.3615	9679.38	-13842.96	1	16891.36	-55.0377	6.817856E-012	-6.329516E-005	6
	39	55	125.558	10253.52	-16825.98	1	19704.01	-58.64245	4.190955E-010	-6.828896E-005	6
	40	56	100.4464	10906.03	-20365.25	1	23101.62	-61.82999	2.088389E-010	-6.793805E-005	6
	41	57	79.00281	11875.83	-25111.22	1	27777.85	-64.68916	8.710243E-010	-6.954343E-005	6
	42	59	63.3446	12716.24	-30775.38	1	33299.05	-67.54983	1.09778E-010	-7.210317E-005	6
	43	60	49.86702	14290.66	-37573.48	1	40199.37	-69.17624	2.122153E-010	-6.902911E-005	6
	44	61	39.72458	16288.44	-46192.68	1	48980.37	-70.57635	6.823953E-010	-6.616778E-005	6
	45	63	31.6723	18743.67	-56362.44	1	59397.39	-71.60515	8.111186E-010	-6.646491E-005	6
	46	64	24.93351	21980.48	-69538.27	1	72929.5	-72.45868	4.806176E-010	-7.090011E-005	6
	47	66	19.86229	26158.82	-84625.72	1	88576.5	-72.82299	1.42598E-009	-6.535713E-005	6
	48	67	15.83615	31611.95	-102098.7	1	106880.6	-72.79635	8.608741E-010	-6.889257E-005	5
	49	68	12.40079	39628.66	-126735.3	1	132786.6	-72.63615	8.167927E-010	-6.479103E-005	5
	50	70	9.93114	48204	-151938.1	1	159401.4	-72.39781	3.614608E-010	-6.64968E-005	5
	51	71	7.944915	59275.8	-181930.5	1	191343.4	-71.95358	-2.654618E-010	-6.421532E-005	5
	52	73	6.317385	74113.15	-219091.4	1	231287.3	-71.31061	1.048001E-011	-5.467701E-005	5
	53	75	5.008013	92616.95	-263148.1	1	278971	-70.61009	2.339494E-010	-6.620879E-005	5
	54	78	3.945707	116921.5	-316215.9	1	337139.7	-69.70802	2.818658E-010	-5.648359E-005	5
	55	80	3.158693	143786.5	-373880.7	1	400576.3	-68.96432	-6.07291E-013	-7.021032E-005	5
	56	84	2.504006	178766.9	-443929	1	478571.4	-68.06573	3.834179E-010	-6.277936E-005	5
	57	86	1.998082	219680.1	-522587.1	1	566883.2	-67.19956	9.358411E-011	-2.1768E-005	5
	58	89	1.584686	270858.1	-616350.3	1	673239.8	-66.27668	1.89362E-010	-6.98021E-005	5
	59	93	1.266892	329095.9	-722117.9	1	793573.2	-65.49949	1.37659E-010	-2.531641E-005	5
	60	97	0.999041	404964.6	-850829.2	1	942288	-64.5472	3.749634E-011	-0.0001039	5
