EXPLAIN
TAG	EISPOT
TITLE	LABEL	Potentiostatic IDE	Test &Identifier
DATE	LABEL	9/18/2019	Date
TIME	LABEL	10:04:26	Time
NOTES	NOTES	1	&Notes...
	
PSTAT	PSTAT	REF600-11020	Potentiostat
VDC	POTEN	0.00000E+000	T	DC &Voltage (V)
FREQINIT	QUANT	1.00000E+006	Initial Fre&q. (Hz)
FREQFINAL	QUANT	1.00000E+000	Final Fre&q. (Hz)
PTSPERDEC	QUANT	1.00000E+001	Points/&decade
VAC	QUANT	2.50000E+001	AC &Voltage (mV rms)
AREA	QUANT	1.00000E-002	&Area (cm^2)
CONDIT	TWOPARAM	T	5.00000E+000	0.00000E+000	Conditionin&g	Time(s)	E(V)
DELAY	TWOPARAM	T	5.00000E+000	0.00000E+000	Init. De&lay	Time(s)	Stab.(mV/s)
SPEED	SELECTOR	1	&Optimize for:
ZGUESS	QUANT	1.00000E+007	E&stimated Z (ohms)
OCVCURVE	TABLE	19
	Pt	T	Vf	Vm	Ach	Over
	#	s	V vs. Ref.	V	V	bits
	0	0.258333	5.12148E-003	5.12148E-003	5.41666E-004	...........
	1	0.516667	5.09750E-003	3.86631E-003	5.44533E-004	...........
	2	0.775	4.93403E-003	1.82717E-003	5.48866E-004	...........
	3	1.03333	4.46248E-003	2.21572E-003	5.44833E-004	...........
	4	1.29167	3.69221E-003	1.66454E-003	5.48466E-004	...........
	5	1.55	2.86612E-003	1.14742E-003	5.47233E-004	...........
	6	1.80833	2.17707E-003	3.44447E-004	5.52133E-004	...........
	7	2.06667	1.60566E-003	-7.36436E-005	5.52199E-004	...........
	8	2.325	1.07998E-003	4.01023E-004	5.50299E-004	...........
	9	2.58333	6.66296E-004	1.79700E-003	5.45233E-004	...........
	10	2.84167	5.53340E-004	2.27768E-003	5.44399E-004	...........
	11	3.1	8.25683E-004	1.87393E-003	5.46799E-004	...........
	12	3.35833	1.29079E-003	1.26312E-003	5.40633E-004	...........
	13	3.61667	1.61177E-003	4.68170E-004	5.47833E-004	...........
	14	3.875	1.56537E-003	-7.65199E-004	5.41333E-004	...........
	15	4.13333	1.13386E-003	-9.32133E-004	5.44766E-004	...........
	16	4.39167	4.71870E-004	-8.21451E-004	5.38333E-004	...........
	17	4.65	-1.72956E-004	-9.25859E-004	5.43433E-004	...........
	18	4.90833	-6.20054E-004	-1.11560E-003	5.44333E-004	...........
EOC	QUANT	-0.0006201	Open Circuit (V)
PSTATMODEL	IQUANT	4	Pstat Model
PSTATSECTION	LABEL	REF600-11020	Pstat Section
PSTATSERIALNO	LABEL	11020	Pstat Serial Number
CTRLMODE	IQUANT	1	Control Mode
IESTAB	IQUANT	0	I/E Stability
CASPEED	IQUANT	1	Control Amp Speed
CONVENTION	IQUANT	1	Current Convention
ICHRANGE	IQUANT	2	Ich Range
ICHRANGEMODE	TOGGLE	F	Ich Auto Range
ICHOFFSETENABLE	TOGGLE	T	Ich Offset Enable
ICHOFFSET	QUANT	0	Ich Offset (V)
ICHFILTER	IQUANT	3	Ich Filter
VCHRANGE	IQUANT	2	Vch Range
VCHRANGEMODE	TOGGLE	F	Vch Auto Range
VCHOFFSETENABLE	TOGGLE	T	Vch Offset Enable
VCHOFFSET	QUANT	0	Vch Offset (V)
VCHFILTER	IQUANT	3	Vch Filter
ACHRANGE	IQUANT	2	Ach Range
ACHOFFSETENABLE	TOGGLE	F	Ach Offset Enable
ACHOFFSET	QUANT	0	Ach Offset (V)
ACHFILTER	IQUANT	3	Ach Filter
IERANGELOWERLIMIT	IQUANT	1	I/E Range Lower Limit
IERANGEMODE	TOGGLE	F	I/E AutoRange
IERANGE	IQUANT	2	I/E Range
POSFEEDENABLE	TOGGLE	F	Positive Feedback IR Comp
POSFEEDRESISTANCE	QUANT	0	Positive Feedback Resistance (ohm)
ACHSELECT	IQUANT	0	Ach Select
CABLEID	IQUANT	14	Cable ID
DCCALDATE	LABEL	8/19/2019	DC Calibration Date
ACCALDATE	LABEL	8/19/2019	AC Calibration Date
THERMOSELECT	IQUANT	1	Thermo Select
FRAMEWORKVERSION	QUANT	6.33	Framework Version
INSTRUMENTVERSION	LABEL	3.50	Instrument Version
ZCURVE	TABLE
	Pt	Time	Freq	Zreal	Zimag	Zsig	Zmod	Zphz	Idc	Vdc	IERange
	#	s	Hz	ohm	ohm	V	ohm	°	A	V	#
	0	2	1000078	2201.91	-1763.504	1	2821.056	-38.69114	8.002634E-007	0.0020815	8
	1	3	794390.6	2566.273	-1719.763	1	3089.229	-33.82763	-9.320076E-007	0.001673	8
	2	5	630984.4	2899.622	-1634.849	1	3328.744	-29.41494	3.243801E-006	0.0006773	8
	3	6	501234.4	3187.097	-1492.687	1	3519.333	-25.09619	-1.319943E-006	0.0014859	8
	4	7	398109.4	3429.539	-1334.703	1	3680.104	-21.26493	1.043627E-006	0.0009947	8
	5	9	316265.6	3618.486	-1175.762	1	3804.715	-18.00064	3.13187E-006	0.0005546	8
	6	10	251203.1	3768.586	-1031.924	1	3907.315	-15.31352	3.050374E-007	0.0010255	8
	7	11	199546.9	3878.002	-900.3704	1	3981.151	-13.071	-5.235707E-007	0.0011834	8
	8	13	158578.1	3984.064	-793.6529	1	4062.346	-11.26623	-6.977492E-007	0.0013403	8
	9	14	125953.1	4042.876	-671.4783	1	4098.26	-9.430131	1.642351E-007	0.0007051	7
	10	15	100078.1	4093.246	-607.4902	1	4138.081	-8.441807	-1.81892E-008	0.0010529	7
	11	17	79453.13	4141.379	-564.5886	1	4179.687	-7.763197	-1.255648E-009	0.0010697	7
	12	18	63140.62	4187.607	-538.551	1	4222.096	-7.328349	-1.617332E-008	0.0010372	7
	13	19	50203.12	4233.237	-525.843	1	4265.772	-7.080879	-1.803763E-008	0.0010353	7
	14	21	39890.62	4277.457	-526.9806	1	4309.797	-7.02342	4.024374E-008	0.0009521	7
	15	22	31640.63	4324.333	-542.4548	1	4358.223	-7.149974	2.754049E-008	0.0009918	7
	16	23	25171.88	4372.715	-569.3369	1	4409.624	-7.418302	-3.483052E-008	0.0010877	7
	17	25	20015.62	4425.298	-609.9587	1	4467.137	-7.847884	2.447287E-008	0.0009671	7
	18	26	15890.62	4486.531	-663.2843	1	4535.296	-8.409636	-3.139414E-008	0.0011395	7
	19	27	12609.37	4547.015	-733.6481	1	4605.821	-9.165523	6.661298E-008	0.0009512	7
	20	29	10078.13	4616.323	-817.4185	1	4688.135	-10.04136	1.133512E-008	0.0009737	7
	21	30	8015.625	4692.628	-918.3279	1	4781.64	-11.07261	-3.375069E-008	0.0010853	7
	22	31	6328.125	4782.295	-1045.039	1	4895.146	-12.32665	9.872434E-009	0.0009746	7
	23	33	5015.625	4881.628	-1193.624	1	5025.439	-13.74	-1.561543E-008	0.0010274	7
	24	34	3984.375	4993.073	-1366.707	1	5176.743	-15.30808	-2.501137E-009	0.0009866	7
	25	35	3170.956	5117.361	-1571.072	1	5353.098	-17.06691	-3.509776E-008	0.0010732	7
	26	37	2527.573	5253.07	-1808.318	1	5555.606	-18.99552	-3.626981E-008	0.0010682	7
	27	38	1976.103	5417.012	-2115.637	1	5815.491	-21.33334	-3.70418E-008	0.0010665	7
	28	39	1577.524	5586.291	-2450.568	1	6100.158	-23.68587	2.421501E-008	0.0009549	7
	29	41	1265.625	5766.205	-2838.981	1	6427.203	-26.21325	4.870864E-008	0.0010054	7
	30	42	998.264	5971.558	-3342.607	1	6843.43	-29.23812	-3.558707E-008	0.0010835	7
	31	43	796.875	6189.181	-3919.061	1	7325.64	-32.34246	-1.681092E-008	0.0010268	7
	32	45	627.7902	6431.173	-4664.665	1	7944.751	-35.95416	-2.793966E-008	0.0010596	7
	33	46	505.5147	6668.344	-5485.127	1	8634.433	-39.43942	-3.479916E-008	0.0010805	7
	34	47	397.9953	6958.964	-6607.713	1	9596.3	-43.5169	4.501327E-009	0.0010518	7
	35	49	315.5048	7266.409	-7956.795	1	10775.5	-47.59663	1.455567E-009	0.0009895	6
	36	50	252.4038	7590.164	-9560.52	1	12207.13	-51.55369	9.087963E-010	0.0009848	6
	37	51	198.6229	7986.378	-11703.68	1	14168.92	-55.69108	2.630473E-010	0.0009861	6
	38	53	158.3615	8425.534	-14231.47	1	16538.57	-59.37297	1.208763E-009	0.0009884	6
	39	54	125.558	8962.658	-17447.01	1	19614.47	-62.8101	1.247672E-009	0.0009939	6
	40	55	100.4464	9595.51	-21286.32	1	23349.12	-65.73497	1.795419E-009	0.0009931	6
	41	57	79.00281	10504.53	-26383.8	1	28398.07	-68.29037	5.912988E-010	0.0009962	6
	42	58	63.3446	11411.65	-32038.51	1	34010.17	-70.39484	8.926927E-010	0.0009882	6
	43	59	49.86702	13119.23	-40005.9	1	42102.1	-71.844	7.517346E-010	0.0009815	6
	44	61	39.72458	14792.9	-49057.31	1	51239.14	-73.21967	7.073951E-010	0.0009947	6
	45	62	31.6723	17299.11	-60252.96	1	62687.15	-73.9808	4.164261E-010	0.0009905	6
	46	64	24.93351	20773.14	-74479.95	1	77322.62	-74.41573	7.326197E-010	0.0009877	6
	47	65	19.86229	25200.8	-90951.04	1	94377.81	-74.51295	1.586939E-009	0.0009901	6
	48	66	15.83615	31030.03	-110520.8	1	114794.2	-74.31728	3.480026E-010	0.0009905	5
	49	68	12.40079	39811.93	-136385.2	1	142077.2	-73.72706	2.363204E-009	0.0009942	5
	50	69	9.93114	50075.35	-164963.5	1	172396.3	-73.11411	-2.524679E-010	0.0010004	5
	51	71	7.944915	64338.43	-197755.5	1	207958.3	-71.97804	1.161232E-009	0.0009907	5
	52	72	6.317385	82379.54	-237525.7	1	251405.8	-70.87225	-3.369767E-010	0.000984	5
	53	74	5.008013	106343.1	-284234.3	1	303476.5	-69.48722	-1.784417E-010	0.0009841	5
	54	77	3.945707	136854.6	-338947.5	1	365533.3	-68.01294	3.053351E-010	0.0009948	5
	55	79	3.158693	174511.3	-396837.6	1	433513.9	-66.26227	-4.986168E-012	0.0009999	5
	56	83	2.504006	222024.2	-465898	1	516096.6	-64.51981	-1.823809E-010	0.0009785	5
	57	85	1.998082	275987.8	-539905.6	1	606355.8	-62.92489	-3.777761E-010	0.0010008	5
	58	88	1.584686	339655	-617379.9	1	704644.3	-61.18237	2.374183E-010	0.0010411	5
	59	92	1.266892	417677.6	-711773.4	1	825273.3	-59.59505	9.03418E-012	0.0009853	5
	60	96	0.999041	511709.8	-802397.8	1	951677	-57.47329	7.187089E-010	0.0010136	5
