EXPLAIN
TAG	EISPOT
TITLE	LABEL	Potentiostatic EIS	Test &Identifier
DATE	LABEL	9/26/2019	Date
TIME	LABEL	11:42:52	Time
NOTES	NOTES	2	&Notes...
	
	
PSTAT	PSTAT	REF600-11020	Potentiostat
VDC	POTEN	0.00000E+000	T	DC &Voltage (V)
FREQINIT	QUANT	1.00000E+006	Initial Fre&q. (Hz)
FREQFINAL	QUANT	1.00000E+000	Final Fre&q. (Hz)
PTSPERDEC	QUANT	1.00000E+001	Points/&decade
VAC	QUANT	2.50000E+001	AC &Voltage (mV rms)
AREA	QUANT	1.00000E-002	&Area (cm^2)
CONDIT	TWOPARAM	T	5.00000E+000	0.00000E+000	Conditionin&g	Time(s)	E(V)
DELAY	TWOPARAM	T	5.00000E+000	0.00000E+000	Init. De&lay	Time(s)	Stab.(mV/s)
SPEED	SELECTOR	1	&Optimize for:
ZGUESS	QUANT	1.00000E+004	E&stimated Z (ohms)
OCVCURVE	TABLE	19
	Pt	T	Vf	Vm	Ach	Over
	#	s	V vs. Ref.	V	V	bits
	0	0.258333	2.93182E-002	2.93182E-002	5.64699E-004	...........
	1	0.516667	2.93547E-002	3.12272E-002	5.71199E-004	...........
	2	0.775	2.95787E-002	3.30393E-002	5.65399E-004	...........
	3	1.03333	3.02123E-002	3.47707E-002	5.67632E-004	...........
	4	1.29167	3.13446E-002	3.63734E-002	5.62499E-004	...........
	5	1.55	3.28442E-002	3.78745E-002	5.65799E-004	...........
	6	1.80833	3.44928E-002	3.93138E-002	5.61832E-004	...........
	7	2.06667	3.61293E-002	4.06735E-002	5.60432E-004	...........
	8	2.325	3.76835E-002	4.19722E-002	5.55433E-004	...........
	9	2.58333	3.91443E-002	4.32173E-002	5.57833E-004	...........
	10	2.84167	4.05230E-002	4.44140E-002	5.60499E-004	...........
	11	3.1	4.18329E-002	4.55440E-002	5.56333E-004	...........
	12	3.35833	4.30832E-002	4.66374E-002	5.60899E-004	...........
	13	3.61667	4.42787E-002	4.76746E-002	5.62999E-004	...........
	14	3.875	4.54220E-002	4.86681E-002	5.68399E-004	...........
	15	4.13333	4.65149E-002	4.96096E-002	5.69532E-004	...........
	16	4.39167	4.75598E-002	5.05630E-002	5.69899E-004	...........
	17	4.65	4.85623E-002	5.14964E-002	5.68466E-004	...........
	18	4.90833	4.95320E-002	5.23707E-002	5.69032E-004	...........
EOC	QUANT	0.049532	Open Circuit (V)
PSTATMODEL	IQUANT	4	Pstat Model
PSTATSECTION	LABEL	REF600-11020	Pstat Section
PSTATSERIALNO	LABEL	11020	Pstat Serial Number
CTRLMODE	IQUANT	1	Control Mode
IESTAB	IQUANT	0	I/E Stability
CASPEED	IQUANT	1	Control Amp Speed
CONVENTION	IQUANT	1	Current Convention
ICHRANGE	IQUANT	2	Ich Range
ICHRANGEMODE	TOGGLE	F	Ich Auto Range
ICHOFFSETENABLE	TOGGLE	T	Ich Offset Enable
ICHOFFSET	QUANT	0	Ich Offset (V)
ICHFILTER	IQUANT	3	Ich Filter
VCHRANGE	IQUANT	2	Vch Range
VCHRANGEMODE	TOGGLE	F	Vch Auto Range
VCHOFFSETENABLE	TOGGLE	T	Vch Offset Enable
VCHOFFSET	QUANT	0	Vch Offset (V)
VCHFILTER	IQUANT	3	Vch Filter
ACHRANGE	IQUANT	2	Ach Range
ACHOFFSETENABLE	TOGGLE	F	Ach Offset Enable
ACHOFFSET	QUANT	0	Ach Offset (V)
ACHFILTER	IQUANT	3	Ach Filter
IERANGELOWERLIMIT	IQUANT	1	I/E Range Lower Limit
IERANGEMODE	TOGGLE	F	I/E AutoRange
IERANGE	IQUANT	6	I/E Range
POSFEEDENABLE	TOGGLE	F	Positive Feedback IR Comp
POSFEEDRESISTANCE	QUANT	0	Positive Feedback Resistance (ohm)
ACHSELECT	IQUANT	0	Ach Select
CABLEID	IQUANT	14	Cable ID
DCCALDATE	LABEL	8/19/2019	DC Calibration Date
ACCALDATE	LABEL	8/19/2019	AC Calibration Date
THERMOSELECT	IQUANT	1	Thermo Select
FRAMEWORKVERSION	QUANT	6.33	Framework Version
INSTRUMENTVERSION	LABEL	3.50	Instrument Version
ZCURVE	TABLE
	Pt	Time	Freq	Zreal	Zimag	Zsig	Zmod	Zphz	Idc	Vdc	IERange
	#	s	Hz	ohm	ohm	V	ohm	°	A	V	#
	0	2	1000078	2323.728	-2015.458	1	3076.001	-40.93634	1.154701E-006	0.0510575	8
	1	3	794390.6	2753.274	-2033.922	1	3423.063	-36.45434	-4.509695E-007	0.0515568	8
	2	5	630984.4	3167.508	-1968.255	1	3729.227	-31.85636	-2.649491E-006	0.0518441	8
	3	6	501234.4	3537.853	-1874.302	1	4003.675	-27.91398	2.16789E-008	0.0511827	8
	4	7	398109.4	3843.428	-1713.823	1	4208.221	-24.03256	-4.652147E-006	0.0522445	8
	5	9	316265.6	4128.733	-1527.461	1	4402.224	-20.30239	5.347081E-006	0.050214	8
	6	11	251203.1	4358.424	-1344.218	1	4561.007	-17.14072	-3.457352E-006	0.0518045	8
	7	12	199546.9	4529.535	-1174.313	1	4679.284	-14.53433	8.419414E-007	0.0511664	8
	8	14	158578.1	4679.358	-998.593	1	4784.723	-12.04644	3.73697E-006	0.0504304	8
	9	15	125953.1	4786.464	-814.8022	1	4855.321	-9.66088	-2.010654E-007	0.0515873	7
	10	17	100078.1	4850.427	-712.9671	1	4902.546	-8.36206	-2.868754E-008	0.0510629	7
	11	18	79453.13	4913.544	-637.2119	1	4954.69	-7.389151	-4.206746E-008	0.051116	7
	12	19	63140.62	4964.564	-579.2297	1	4998.24	-6.654773	-5.520051E-008	0.0511137	7
	13	21	50203.12	5011.715	-538.0865	1	5040.519	-6.128129	-1.163206E-008	0.0510235	7
	14	22	39890.62	5054.245	-509.9217	1	5079.902	-5.761065	-6.609505E-009	0.0511189	7
	15	24	31640.63	5093.665	-495.3389	1	5117.693	-5.554325	-4.200027E-008	0.0510909	7
	16	25	25171.88	5134.18	-496.2925	1	5158.111	-5.521308	-5.350966E-008	0.051111	7
	17	26	20015.62	5173.772	-507.8452	1	5198.637	-5.606059	-5.219852E-008	0.0511099	7
	18	28	15890.62	5216.803	-533.1155	1	5243.973	-5.834915	-3.926327E-009	0.051118	7
	19	29	12609.37	5259.779	-573.2385	1	5290.924	-6.219848	1.43611E-007	0.0508604	7
	20	30	10078.13	5304.952	-626.6968	1	5341.841	-6.73737	-9.13327E-009	0.0510201	7
	21	32	8015.625	5350.113	-696.3603	1	5395.241	-7.415817	8.722985E-008	0.0508863	7
	22	33	6328.125	5398.734	-792.4999	1	5456.591	-8.351013	-8.290426E-008	0.0511996	7
	23	35	5015.625	5452.563	-913.6284	1	5528.577	-9.51208	1.445517E-007	0.0508582	7
	24	36	3984.375	5505.969	-1060.922	1	5607.25	-10.90641	9.56591E-008	0.0510097	7
	25	37	3170.956	5568.195	-1246.713	1	5706.057	-12.62033	-4.728224E-008	0.0511722	7
	26	39	2527.573	5632.444	-1475.968	1	5822.62	-14.68405	-4.700095E-008	0.0511689	7
	27	40	1976.103	5717.174	-1782.25	1	5988.53	-17.31415	-5.331587E-008	0.0510948	7
	28	41	1577.524	5803.514	-2130.33	1	6182.159	-20.15697	-7.664813E-008	0.0511862	7
	29	43	1265.625	5910.884	-2533.193	1	6430.833	-23.19824	9.219379E-008	0.051011	7
	30	44	998.264	6038.028	-3097.854	1	6786.345	-27.16042	-5.328496E-008	0.0512371	7
	31	46	796.875	6174.543	-3737.67	1	7217.697	-31.18801	4.67426E-008	0.0509206	7
	32	47	627.7902	6356.208	-4570.019	1	7828.566	-35.71557	-4.176915E-008	0.0510837	7
	33	48	505.5147	6552.05	-5503.09	1	8556.48	-40.02702	-5.552352E-008	0.051237	7
	34	50	397.9953	6801.243	-6754.563	1	9585.46	-44.8027	4.674618E-009	0.0510828	7
	35	51	315.5048	7101.887	-8258.542	1	10892.21	-49.3063	-1.155234E-009	0.0510196	6
	36	52	252.4038	7447.576	-10037.7	1	12498.88	-53.42606	3.032675E-010	0.051016	6
	37	54	198.6229	7908.009	-12389.5	1	14698.17	-57.45059	-3.950351E-010	0.0510239	6
	38	55	158.3615	8449.953	-15126.93	1	17327.02	-60.81213	-6.675971E-010	0.0510189	6
	39	57	125.558	9166.308	-18584.25	1	20721.86	-63.74611	-4.167794E-010	0.0510185	6
	40	58	100.4464	10041.42	-22670.47	1	24794.77	-66.11005	5.593224E-010	0.0510186	6
	41	59	79.00281	11245.96	-28063.1	1	30232.59	-68.16214	5.040524E-010	0.0510168	6
	42	61	63.3446	12344.77	-34171.15	1	36332.64	-70.1371	-7.403285E-010	0.0510165	6
	43	62	49.86702	14994.15	-41623.14	1	44241.5	-70.18916	-1.592703E-009	0.0510127	6
	44	64	39.72458	17571.2	-51041.02	1	53980.85	-71.00365	-7.295061E-010	0.0510158	6
	45	65	31.6723	21121.77	-61995.1	1	65494.44	-71.18599	-5.173995E-010	0.0510194	6
	46	66	24.93351	25789.99	-75780.95	1	80049.2	-71.20539	-3.561129E-010	0.0510134	6
	47	68	19.86229	31738.95	-91396.15	1	96750.3	-70.84953	1.161263E-010	0.0510168	6
	48	69	15.83615	38050.82	-109791.9	1	116198.6	-70.8851	-2.561208E-009	0.0510301	5
	49	70	12.40079	51190.12	-133003.4	1	142514.3	-68.94936	3.943044E-010	0.0510272	5
	50	72	9.93114	63009.45	-157344.7	1	169492	-68.17612	-1.949525E-010	0.0510223	5
	51	73	7.944915	78113.48	-185302.6	1	201094	-67.14236	-9.435496E-010	0.0510234	5
	52	75	6.317385	96965.3	-217849.4	1	238454.7	-66.00605	-4.576179E-010	0.0510241	5
	53	77	5.008013	120655.6	-255453.2	1	282513.9	-64.71771	-6.510065E-010	0.0510354	5
	54	80	3.945707	149437.2	-299654.2	1	334849.4	-63.49463	-8.711063E-010	0.0510211	5
	55	82	3.158693	180829.5	-345858	1	390278.2	-62.3975	-7.324876E-010	0.0510356	5
	56	86	2.504006	218885.6	-400779.2	1	456656.2	-61.35883	-7.692961E-010	0.0510161	5
	57	88	1.998082	261322.4	-460657.5	1	529617.6	-60.43457	-9.874982E-010	0.0510478	5
	58	92	1.584686	312519.8	-531266.9	1	616370.9	-59.53366	-6.796307E-010	0.0510647	5
	59	95	1.266892	368562.6	-607942.9	1	710938.1	-58.77385	-8.859357E-010	0.0510588	5
	60	100	0.999041	435905.3	-700359.9	1	824934.8	-58.10179	-7.199897E-010	0.0509964	5
