EXPLAIN
TAG	EISPOT
TITLE	LABEL	Potentiostatic EIS	Test &Identifier
DATE	LABEL	11/27/2019	Date
TIME	LABEL	12:40:23	Time
NOTES	NOTES	3	&Notes...
	
	
	
PSTAT	PSTAT	REF600-11020	Potentiostat
VDC	POTEN	0.00000E+000	T	DC &Voltage (V)
FREQINIT	QUANT	1.00000E+006	Initial Fre&q. (Hz)
FREQFINAL	QUANT	1.00000E+000	Final Fre&q. (Hz)
PTSPERDEC	QUANT	1.00000E+001	Points/&decade
VAC	QUANT	2.50000E+001	AC &Voltage (mV rms)
AREA	QUANT	1.00000E-002	&Area (cm^2)
CONDIT	TWOPARAM	T	5.00000E+000	0.00000E+000	Conditionin&g	Time(s)	E(V)
DELAY	TWOPARAM	T	5.00000E+000	0.00000E+000	Init. De&lay	Time(s)	Stab.(mV/s)
SPEED	SELECTOR	0	&Optimize for:
ZGUESS	QUANT	1.00000E+005	E&stimated Z (ohms)
OCVCURVE	TABLE	19
	Pt	T	Vf	Vm	Ach	Over
	#	s	V vs. Ref.	V	V	bits
	0	0.258333	1.67610E-003	1.67610E-003	5.52266E-004	...........
	1	0.516667	1.66977E-003	1.34465E-003	5.53599E-004	...........
	2	0.775	1.63144E-003	1.05931E-003	5.53433E-004	...........
	3	1.03333	1.52512E-003	8.00487E-004	5.48999E-004	...........
	4	1.29167	1.33927E-003	5.29465E-004	5.51699E-004	...........
	5	1.55	1.09784E-003	3.14377E-004	5.48533E-004	...........
	6	1.80833	8.36366E-004	9.03359E-005	5.53433E-004	...........
	7	2.06667	5.80841E-004	-8.95737E-005	5.44666E-004	...........
	8	2.325	3.43103E-004	-3.05517E-004	5.46699E-004	...........
	9	2.58333	1.23496E-004	-4.97881E-004	5.48833E-004	...........
	10	2.84167	-8.37735E-005	-6.91977E-004	5.49866E-004	...........
	11	3.1	-2.83149E-004	-8.15624E-004	5.45499E-004	...........
	12	3.35833	-4.71929E-004	-9.32917E-004	5.48833E-004	...........
	13	3.61667	-6.41975E-004	-1.01946E-003	5.44266E-004	...........
	14	3.875	-7.88191E-004	-1.16572E-003	5.49833E-004	...........
	15	4.13333	-9.15225E-004	-1.28531E-003	5.49933E-004	...........
	16	4.39167	-1.03467E-003	-1.42936E-003	5.43599E-004	...........
	17	4.65	-1.15569E-003	-1.52669E-003	5.44899E-004	...........
	18	4.90833	-1.27728E-003	-1.53451E-003	5.44766E-004	...........
EOC	QUANT	-0.0012773	Open Circuit (V)
PSTATMODEL	IQUANT	4	Pstat Model
PSTATSECTION	LABEL	REF600-11020	Pstat Section
PSTATSERIALNO	LABEL	11020	Pstat Serial Number
CTRLMODE	IQUANT	1	Control Mode
IESTAB	IQUANT	0	I/E Stability
CASPEED	IQUANT	1	Control Amp Speed
CONVENTION	IQUANT	1	Current Convention
ICHRANGE	IQUANT	2	Ich Range
ICHRANGEMODE	TOGGLE	F	Ich Auto Range
ICHOFFSETENABLE	TOGGLE	T	Ich Offset Enable
ICHOFFSET	QUANT	0	Ich Offset (V)
ICHFILTER	IQUANT	3	Ich Filter
VCHRANGE	IQUANT	2	Vch Range
VCHRANGEMODE	TOGGLE	F	Vch Auto Range
VCHOFFSETENABLE	TOGGLE	T	Vch Offset Enable
VCHOFFSET	QUANT	0	Vch Offset (V)
VCHFILTER	IQUANT	3	Vch Filter
ACHRANGE	IQUANT	2	Ach Range
ACHOFFSETENABLE	TOGGLE	F	Ach Offset Enable
ACHOFFSET	QUANT	0	Ach Offset (V)
ACHFILTER	IQUANT	3	Ach Filter
IERANGELOWERLIMIT	IQUANT	1	I/E Range Lower Limit
IERANGEMODE	TOGGLE	F	I/E AutoRange
IERANGE	IQUANT	4	I/E Range
POSFEEDENABLE	TOGGLE	F	Positive Feedback IR Comp
POSFEEDRESISTANCE	QUANT	0	Positive Feedback Resistance (ohm)
ACHSELECT	IQUANT	0	Ach Select
CABLEID	IQUANT	14	Cable ID
DCCALDATE	LABEL	8/19/2019	DC Calibration Date
ACCALDATE	LABEL	8/19/2019	AC Calibration Date
THERMOSELECT	IQUANT	1	Thermo Select
FRAMEWORKVERSION	QUANT	6.33	Framework Version
INSTRUMENTVERSION	LABEL	3.50	Instrument Version
ZCURVE	TABLE
	Pt	Time	Freq	Zreal	Zimag	Zsig	Zmod	Zphz	Idc	Vdc	IERange
	#	s	Hz	ohm	ohm	V	ohm	°	A	V	#
	0	2	1000078	2130.018	-1301.18	1	2496.007	-31.41982	1.02102E-006	0.0004777	8
	1	2	794390.6	2382.847	-1252.471	1	2691.959	-27.7273	-3.221831E-006	0.0004843	8
	2	3	630984.4	2609.672	-1145.709	1	2850.095	-23.70263	-5.550984E-006	0.0013928	8
	3	3	501234.4	2778.557	-1024.033	1	2961.254	-20.2313	-2.785682E-006	0.0009262	8
	4	3	398109.4	2916.244	-905.7932	1	3053.677	-17.25493	6.784292E-006	-0.0004167	8
	5	3	316265.6	3033.398	-789.294	1	3134.405	-14.58502	-1.143725E-006	0.0006927	8
	6	4	251203.1	3109.215	-701.4907	1	3187.367	-12.71401	1.901985E-006	-0.0001596	8
	7	4	199546.9	3179.01	-615.0045	1	3237.953	-10.94906	5.079102E-006	-0.0003443	8
	8	4	158578.1	3230.739	-547.9937	1	3276.885	-9.62681	-3.806952E-007	0.0006977	8
	9	5	125953.1	3291.391	-456.3653	1	3322.878	-7.893973	-1.309579E-006	0.0036886	7
	10	5	100078.1	3335.556	-420.8124	1	3361.996	-7.190423	3.411754E-007	0.0007006	7
	11	5	79453.13	3369.427	-409.0166	1	3394.162	-6.921301	8.756264E-007	-0.0003694	7
	12	6	63140.62	3404.475	-404.457	1	3428.416	-6.775074	6.430642E-008	0.0010738	7
	13	6	50203.12	3438.018	-406.4403	1	3461.959	-6.742177	-9.110249E-007	0.0006894	7
	14	6	39890.62	3478.11	-418.3505	1	3503.179	-6.858644	6.422202E-008	0.0010726	7
	15	7	31640.63	3522.162	-440.873	1	3549.647	-7.134671	4.214536E-007	-0.0012075	7
	16	7	25171.88	3562.868	-478.2106	1	3594.818	-7.64459	8.420467E-007	-0.0012172	7
	17	7	20015.62	3608.916	-510.3942	1	3644.829	-8.049722	6.718533E-007	-0.0012932	7
	18	8	15890.62	3661.911	-567.6562	1	3705.648	-8.811648	-6.375095E-007	0.0001023	7
	19	8	12609.37	3715.859	-630.2562	1	3768.93	-9.62647	-9.513445E-007	0.0016565	7
	20	8	10078.13	3778.703	-701.0692	1	3843.188	-10.51067	6.745911E-007	-0.0012904	7
	21	9	8015.625	3842.552	-783.5664	1	3921.63	-11.52563	-9.539339E-007	0.0016518	7
	22	9	6328.125	3913.592	-892.6579	1	4014.105	-12.84888	8.871045E-007	-0.0003819	7
	23	9	5015.625	3992.991	-1025.805	1	4122.651	-14.40779	8.799988E-007	-0.0003749	7
	24	9	3984.375	4068.529	-1174.264	1	4234.599	-16.09926	-9.045069E-007	0.0006798	7
	25	10	3170.956	4160.136	-1366.308	1	4378.759	-18.18167	4.196283E-007	-0.0011972	7
	26	10	2527.573	4250.388	-1590.522	1	4538.232	-20.51616	5.274961E-007	0.000415	7
	27	10	1976.103	4356.533	-1887.459	1	4747.829	-23.42458	-6.252719E-007	9.329132E-005	7
	28	11	1577.524	4467.55	-2245.74	1	5000.235	-26.68768	4.160543E-007	-0.0011987	7
	29	11	1265.625	4596.022	-2630.648	1	5295.633	-29.78575	-1.056426E-006	0.0011738	7
	30	11	998.264	4748.086	-3167.509	1	5707.665	-33.70776	9.523599E-007	-0.0007442	7
	31	12	796.875	4913.687	-3791.402	1	6206.371	-37.65379	-7.771005E-007	0.0016886	7
	32	12	627.7902	5121.38	-4590.692	1	6877.717	-41.87234	9.527211E-007	-0.000739	7
	33	12	505.5147	5340.54	-5505.676	1	7670.322	-45.87228	8.770961E-007	-0.0003791	7
	34	13	397.9953	5616.293	-6691.962	1	8736.424	-49.99462	4.053355E-009	0.0002618	7
	35	13	315.5048	5936.72	-8133.124	1	10069.38	-53.87267	2.018108E-010	0.000203	6
	36	13	252.4038	6298.856	-9828.55	1	11673.73	-57.34527	-4.989065E-013	0.0001989	6
	37	14	198.6229	6765.792	-12077.21	1	13843.22	-60.74194	7.711186E-010	0.0001999	6
	38	14	158.3615	7304.576	-14689.57	1	16405.5	-63.56056	-4.75379E-010	0.000197	6
	39	14	125.558	7990.717	-17992.37	1	19686.97	-66.05318	1.470083E-010	0.0001973	6
	40	15	100.4464	8799.657	-21911.02	1	23612.01	-68.11918	5.792188E-011	0.0001989	6
	41	15	79.00281	9879.29	-27051.49	1	28799.02	-69.93766	-2.499533E-010	0.0001888	6
	42	15	63.3446	11521.7	-32516.86	1	34497.77	-70.48924	8.286208E-010	0.0001937	6
	43	16	49.86702	13416.26	-40291.54	1	42466.5	-71.58329	-1.854956E-010	0.0001879	6
	44	16	39.72458	15456.67	-49280.01	1	51647.15	-72.58597	4.026681E-010	0.0001882	6
	45	16	31.6723	18500.58	-59885.81	1	62678.4	-72.83246	2.088125E-010	0.0001929	6
	46	17	24.93351	22736.35	-73608.33	1	77039.78	-72.83498	9.669305E-010	0.0001907	6
	47	17	19.86229	28012.47	-89333.56	1	93622.56	-72.59006	1.473213E-009	0.0001993	6
	48	17	15.83615	35231.08	-107292	1	112928.3	-71.82156	-8.614949E-010	0.0001936	5
	49	18	12.40079	43103.31	-130905.5	1	137819.3	-71.77482	-5.810189E-010	0.0001979	5
	50	18	9.93114	55856.39	-156569	1	166234.2	-70.36601	-2.629812E-010	0.0002026	5
	51	19	7.944915	69835.69	-185407.5	1	198123.6	-69.36059	-2.747439E-010	0.0001877	5
	52	19	6.317385	88799.16	-221126.6	1	238290.3	-68.12079	-2.277447E-011	0.0002063	5
	53	20	5.008013	112747.6	-261819.5	1	285064	-66.70179	-2.358667E-011	0.0001825	5
	54	21	3.945707	143747	-309605.4	1	341348.3	-65.09498	5.406484E-010	0.0001995	5
	55	22	3.158693	178233.8	-357911.8	1	399835.2	-63.5275	1.695213E-010	0.0002127	5
	56	24	2.504006	222032.9	-415141.7	1	470787.9	-61.86051	9.052754E-011	0.0001912	5
	57	25	1.998082	271033.7	-474206.6	1	546197	-60.24979	1.942459E-010	0.0002114	5
	58	27	1.584686	330511.9	-542069.4	1	634883.8	-58.6284	3.502918E-010	0.0002418	5
	59	29	1.266892	393085.5	-613549.1	1	728669.1	-57.35333	2.940474E-010	0.0002174	5
	60	31	0.999041	467160.2	-695563	1	837882.2	-56.11355	2.755424E-010	0.0001938	5
