EXPLAIN
TAG	EISPOT
TITLE	LABEL	Potentiostatic EIS	Test &Identifier
DATE	LABEL	10/14/2019	Date
TIME	LABEL	11:45:44	Time
NOTES	NOTES	1	&Notes...
	
PSTAT	PSTAT	REF600-11020	Potentiostat
VDC	POTEN	0.00000E+000	T	DC &Voltage (V)
FREQINIT	QUANT	1.00000E+006	Initial Fre&q. (Hz)
FREQFINAL	QUANT	1.00000E+000	Final Fre&q. (Hz)
PTSPERDEC	QUANT	1.00000E+001	Points/&decade
VAC	QUANT	2.50000E+001	AC &Voltage (mV rms)
AREA	QUANT	1.00000E-002	&Area (cm^2)
CONDIT	TWOPARAM	T	5.00000E+000	0.00000E+000	Conditionin&g	Time(s)	E(V)
DELAY	TWOPARAM	T	5.00000E+000	0.00000E+000	Init. De&lay	Time(s)	Stab.(mV/s)
SPEED	SELECTOR	1	&Optimize for:
ZGUESS	QUANT	1.00000E+004	E&stimated Z (ohms)
OCVCURVE	TABLE	19
	Pt	T	Vf	Vm	Ach	Over
	#	s	V vs. Ref.	V	V	bits
	0	0.258333	4.65716E-003	4.65716E-003	5.78332E-004	...........
	1	0.516667	4.65425E-003	4.50468E-003	5.74399E-004	...........
	2	0.775	4.63657E-003	4.37074E-003	5.72866E-004	...........
	3	1.03333	4.58680E-003	4.22081E-003	5.74599E-004	...........
	4	1.29167	4.49806E-003	4.11781E-003	5.75399E-004	...........
	5	1.55	4.38253E-003	4.06759E-003	5.78999E-004	...........
	6	1.80833	4.26272E-003	3.96633E-003	5.75132E-004	...........
	7	2.06667	4.15531E-003	3.90594E-003	5.82065E-004	...........
	8	2.325	4.06359E-003	3.83383E-003	5.82065E-004	...........
	9	2.58333	3.98338E-003	3.77188E-003	5.72432E-004	...........
	10	2.84167	3.91063E-003	3.71557E-003	5.71566E-004	...........
	11	3.1	3.84325E-003	3.65908E-003	5.74366E-004	...........
	12	3.35833	3.78035E-003	3.60689E-003	5.76532E-004	...........
	13	3.61667	3.72120E-003	3.54924E-003	5.72699E-004	...........
	14	3.875	3.66467E-003	3.49925E-003	5.72899E-004	...........
	15	4.13333	3.60995E-003	3.45708E-003	5.73499E-004	...........
	16	4.39167	3.55741E-003	3.41706E-003	5.74699E-004	...........
	17	4.65	3.50834E-003	3.38349E-003	5.75265E-004	...........
	18	4.90833	3.46370E-003	3.34872E-003	5.69599E-004	...........
EOC	QUANT	0.0034637	Open Circuit (V)
PSTATMODEL	IQUANT	4	Pstat Model
PSTATSECTION	LABEL	REF600-11020	Pstat Section
PSTATSERIALNO	LABEL	11020	Pstat Serial Number
CTRLMODE	IQUANT	1	Control Mode
IESTAB	IQUANT	0	I/E Stability
CASPEED	IQUANT	1	Control Amp Speed
CONVENTION	IQUANT	1	Current Convention
ICHRANGE	IQUANT	2	Ich Range
ICHRANGEMODE	TOGGLE	F	Ich Auto Range
ICHOFFSETENABLE	TOGGLE	T	Ich Offset Enable
ICHOFFSET	QUANT	0	Ich Offset (V)
ICHFILTER	IQUANT	3	Ich Filter
VCHRANGE	IQUANT	2	Vch Range
VCHRANGEMODE	TOGGLE	F	Vch Auto Range
VCHOFFSETENABLE	TOGGLE	T	Vch Offset Enable
VCHOFFSET	QUANT	0	Vch Offset (V)
VCHFILTER	IQUANT	3	Vch Filter
ACHRANGE	IQUANT	2	Ach Range
ACHOFFSETENABLE	TOGGLE	F	Ach Offset Enable
ACHOFFSET	QUANT	0	Ach Offset (V)
ACHFILTER	IQUANT	3	Ach Filter
IERANGELOWERLIMIT	IQUANT	1	I/E Range Lower Limit
IERANGEMODE	TOGGLE	F	I/E AutoRange
IERANGE	IQUANT	5	I/E Range
POSFEEDENABLE	TOGGLE	F	Positive Feedback IR Comp
POSFEEDRESISTANCE	QUANT	0	Positive Feedback Resistance (ohm)
ACHSELECT	IQUANT	0	Ach Select
CABLEID	IQUANT	14	Cable ID
DCCALDATE	LABEL	8/19/2019	DC Calibration Date
ACCALDATE	LABEL	8/19/2019	AC Calibration Date
THERMOSELECT	IQUANT	1	Thermo Select
FRAMEWORKVERSION	QUANT	6.33	Framework Version
INSTRUMENTVERSION	LABEL	3.50	Instrument Version
ZCURVE	TABLE
	Pt	Time	Freq	Zreal	Zimag	Zsig	Zmod	Zphz	Idc	Vdc	IERange
	#	s	Hz	ohm	ohm	V	ohm	°	A	V	#
	0	1	1000078	2352.932	-1742.156	1	2927.695	-36.51697	1.072088E-006	0.005903	8
	1	3	794390.6	2716.75	-1706.688	1	3208.35	-32.13743	-1.588613E-006	0.0055319	8
	2	4	630984.4	3044.293	-1613.787	1	3445.581	-27.92817	-7.845007E-007	0.0056806	8
	3	5	501234.4	3331.304	-1473.346	1	3642.573	-23.85852	1.332499E-006	0.0050163	8
	4	7	398109.4	3571.328	-1308.104	1	3803.356	-20.11674	-8.05535E-007	0.0051339	8
	5	8	316265.6	3754.872	-1146.158	1	3925.907	-16.97458	2.048191E-006	0.004606	8
	6	9	251203.1	3895.03	-988.236	1	4018.441	-14.23651	-2.63727E-006	0.0055942	8
	7	11	199546.9	4003.982	-836.1944	1	4090.366	-11.79615	4.186299E-006	0.0041675	8
	8	12	158578.1	4084.375	-732.0464	1	4149.459	-10.16129	1.182973E-006	0.0049352	8
	9	13	125953.1	4182.879	-584.0676	1	4223.459	-7.948982	5.413885E-007	0.0039567	7
	10	15	100078.1	4210.24	-516.5201	1	4241.805	-6.994204	4.226122E-008	0.0048958	7
	11	16	79453.13	4248.232	-463.6989	1	4273.464	-6.229232	-1.699373E-008	0.0050972	7
	12	17	63140.62	4283.397	-424.7194	1	4304.402	-5.662642	1.057292E-007	0.0049255	7
	13	19	50203.12	4313.942	-398.7709	1	4332.334	-5.281282	4.895744E-008	0.004974	7
	14	20	39890.62	4343.684	-384.203	1	4360.643	-5.054712	-9.806843E-009	0.0049793	7
	15	21	31640.63	4371.457	-380.6078	1	4387.995	-4.975999	8.536084E-008	0.0048538	7
	16	23	25171.88	4401.183	-387.3882	1	4418.199	-5.03016	-4.166978E-009	0.0050214	7
	17	24	20015.62	4426.341	-396.8139	1	4444.092	-5.122775	-4.399828E-009	0.0050396	7
	18	25	15890.62	4460.592	-432.7284	1	4481.532	-5.541006	7.434593E-009	0.0050023	7
	19	27	12609.37	4493.094	-474.489	1	4518.079	-6.028324	-5.528489E-008	0.0050956	7
	20	28	10078.13	4524.136	-527.2968	1	4554.761	-6.647939	-3.926553E-008	0.0050307	7
	21	30	8015.625	4566.058	-610.1732	1	4606.647	-7.611477	2.99962E-009	0.0050045	7
	22	31	6328.125	4597.723	-691.4147	1	4649.42	-8.552169	-4.913561E-008	0.0051298	7
	23	32	5015.625	4638.541	-807.467	1	4708.297	-9.87497	-1.273064E-008	0.0050841	7
	24	34	3984.375	4687.829	-963.047	1	4785.729	-11.60907	4.542103E-008	0.0048871	7
	25	35	3170.956	4735.914	-1128.588	1	4868.53	-13.40383	-8.023047E-008	0.0052572	7
	26	36	2527.573	4794.574	-1344.02	1	4979.39	-15.6593	4.659306E-008	0.0048883	7
	27	38	1976.103	4867.727	-1633.632	1	5134.542	-18.55199	-6.66083E-008	0.0051463	7
	28	39	1577.524	4919.367	-1952.196	1	5292.564	-21.6451	-6.751309E-008	0.0051729	7
	29	40	1265.625	5034.908	-2352.03	1	5557.189	-25.03938	-3.914831E-008	0.005032	7
	30	42	998.264	5143.204	-2868.149	1	5888.873	-29.14658	1.081841E-007	0.0049221	7
	31	43	796.875	5264.124	-3470.467	1	6305.167	-33.39557	5.228757E-008	0.0049724	7
	32	44	627.7902	5414.99	-4261.289	1	6890.625	-38.20073	9.05013E-008	0.0048498	7
	33	46	505.5147	5577.044	-5136.736	1	7582.182	-42.64662	8.996693E-008	0.0048456	7
	34	47	397.9953	5792.993	-6337.408	1	8586.123	-47.56973	4.833663E-009	0.0050413	7
	35	48	315.5048	6050.99	-7781.377	1	9857.2	-52.13049	4.600251E-009	0.0050444	7
	36	50	252.4038	6361.612	-9487.784	1	11423.14	-56.15792	5.999661E-010	0.004981	6
	37	51	198.6229	6780.177	-11749.74	1	13565.66	-60.01294	1.14949E-009	0.0049813	6
	38	52	158.3615	7288.814	-14384.82	1	16126.06	-63.12858	8.861826E-010	0.0049789	6
	39	54	125.558	7958.395	-17703.95	1	19410.46	-65.79482	8.787007E-010	0.0049865	6
	40	55	100.4464	8810.1	-21591.34	1	23319.6	-67.80265	9.136112E-010	0.0049744	6
	41	57	79.00281	9953.29	-26755.02	1	28546.44	-69.59401	8.421112E-010	0.0049821	6
	42	58	63.3446	11488.26	-32646.46	1	34608.83	-70.61307	9.31757E-010	0.0049806	6
	43	59	49.86702	13316.55	-40045.02	1	42201.11	-71.606	5.57962E-010	0.0049753	6
	44	61	39.72458	16009.16	-48739.23	1	51301.12	-71.81643	3.964172E-010	0.0049773	6
	45	62	31.6723	19212.06	-59210.53	1	62249.42	-72.02329	1.340874E-009	0.0049759	6
	46	63	24.93351	23950.22	-72415.32	1	76273.14	-71.69918	8.168494E-010	0.0049773	6
	47	65	19.86229	29796.79	-87416.48	1	92355.24	-71.17781	3.449047E-010	0.0049786	6
	48	66	15.83615	37144.05	-104800.7	1	111188.4	-70.48437	3.156195E-010	0.0049836	5
	49	67	12.40079	48210.26	-126992.2	1	135835.4	-69.21166	-5.78E-010	0.0049867	5
	50	69	9.93114	60219.05	-150652.1	1	162241.8	-68.21229	-1.903428E-010	0.0049868	5
	51	70	7.944915	76076.65	-177906.1	1	193489.7	-66.84737	-9.000313E-011	0.0049791	5
	52	72	6.317385	96297	-208598	1	229752.6	-65.22011	3.499011E-010	0.0049622	5
	53	74	5.008013	121808.9	-243667.7	1	272417.6	-63.43963	-4.861936E-011	0.0049787	5
	54	77	3.945707	153118.3	-282624.3	1	321437	-61.55235	1.983571E-010	0.0049874	5
	55	79	3.158693	187165.7	-322182.3	1	372602.2	-59.84637	-1.134763E-010	0.004967	5
	56	83	2.504006	227584.6	-366542.4	1	431448.8	-58.16403	4.807766E-010	0.0049844	5
	57	85	1.998082	271751.4	-412905.5	1	494307.3	-56.64931	3.407502E-010	0.0050076	5
	58	88	1.584686	320031.5	-463403.9	1	563172.6	-55.37065	2.223142E-010	0.0049575	5
	59	92	1.266892	371314	-519926.3	1	638903.3	-54.46685	1.639915E-010	0.0050169	5
	60	96	0.999041	427459.7	-586723.6	1	725924.5	-53.92464	-3.625893E-011	0.0049363	5
