EXPLAIN
TAG	EISPOT
TITLE	LABEL	Potentiostatic EIS	Test &Identifier
DATE	LABEL	11/5/2019	Date
TIME	LABEL	10:47:51	Time
NOTES	NOTES	2	&Notes...
	
	
PSTAT	PSTAT	REF600-11020	Potentiostat
VDC	POTEN	0.00000E+000	T	DC &Voltage (V)
FREQINIT	QUANT	1.00000E+006	Initial Fre&q. (Hz)
FREQFINAL	QUANT	1.00000E+000	Final Fre&q. (Hz)
PTSPERDEC	QUANT	1.00000E+001	Points/&decade
VAC	QUANT	2.50000E+001	AC &Voltage (mV rms)
AREA	QUANT	1.00000E-002	&Area (cm^2)
CONDIT	TWOPARAM	T	5.00000E+000	0.00000E+000	Conditionin&g	Time(s)	E(V)
DELAY	TWOPARAM	T	5.00000E+000	0.00000E+000	Init. De&lay	Time(s)	Stab.(mV/s)
SPEED	SELECTOR	1	&Optimize for:
ZGUESS	QUANT	1.00000E+005	E&stimated Z (ohms)
OCVCURVE	TABLE	19
	Pt	T	Vf	Vm	Ach	Over
	#	s	V vs. Ref.	V	V	bits
	0	0.258333	2.36824E-003	2.36824E-003	5.14666E-004	...........
	1	0.516667	2.36397E-003	2.14483E-003	5.08533E-004	...........
	2	0.775	2.33800E-003	1.94546E-003	5.07900E-004	...........
	3	1.03333	2.26559E-003	1.76856E-003	5.13233E-004	...........
	4	1.29167	2.13889E-003	1.60461E-003	4.98300E-004	...........
	5	1.55	1.97543E-003	1.45487E-003	5.05633E-004	...........
	6	1.80833	1.80083E-003	1.31668E-003	5.16000E-004	...........
	7	2.06667	1.63239E-003	1.18340E-003	5.18833E-004	...........
	8	2.325	1.47659E-003	1.06652E-003	5.07600E-004	...........
	9	2.58333	1.33367E-003	9.51246E-004	5.09100E-004	...........
	10	2.84167	1.20198E-003	8.46055E-004	5.13900E-004	...........
	11	3.1	1.07978E-003	7.45854E-004	5.12267E-004	...........
	12	3.35833	9.65617E-004	6.50555E-004	4.99500E-004	...........
	13	3.61667	8.58276E-004	5.53928E-004	5.04933E-004	...........
	14	3.875	7.56536E-004	4.70479E-004	5.11367E-004	...........
	15	4.13333	6.59512E-004	3.84603E-004	5.07333E-004	...........
	16	4.39167	5.67003E-004	3.09172E-004	5.00933E-004	...........
	17	4.65	4.79044E-004	2.28783E-004	4.97433E-004	...........
	18	4.90833	3.95345E-004	1.58080E-004	5.05433E-004	...........
EOC	QUANT	0.0003953	Open Circuit (V)
PSTATMODEL	IQUANT	4	Pstat Model
PSTATSECTION	LABEL	REF600-11020	Pstat Section
PSTATSERIALNO	LABEL	11020	Pstat Serial Number
CTRLMODE	IQUANT	1	Control Mode
IESTAB	IQUANT	0	I/E Stability
CASPEED	IQUANT	1	Control Amp Speed
CONVENTION	IQUANT	1	Current Convention
ICHRANGE	IQUANT	2	Ich Range
ICHRANGEMODE	TOGGLE	F	Ich Auto Range
ICHOFFSETENABLE	TOGGLE	T	Ich Offset Enable
ICHOFFSET	QUANT	0	Ich Offset (V)
ICHFILTER	IQUANT	3	Ich Filter
VCHRANGE	IQUANT	2	Vch Range
VCHRANGEMODE	TOGGLE	F	Vch Auto Range
VCHOFFSETENABLE	TOGGLE	T	Vch Offset Enable
VCHOFFSET	QUANT	0	Vch Offset (V)
VCHFILTER	IQUANT	3	Vch Filter
ACHRANGE	IQUANT	2	Ach Range
ACHOFFSETENABLE	TOGGLE	F	Ach Offset Enable
ACHOFFSET	QUANT	0	Ach Offset (V)
ACHFILTER	IQUANT	3	Ach Filter
IERANGELOWERLIMIT	IQUANT	1	I/E Range Lower Limit
IERANGEMODE	TOGGLE	F	I/E AutoRange
IERANGE	IQUANT	3	I/E Range
POSFEEDENABLE	TOGGLE	F	Positive Feedback IR Comp
POSFEEDRESISTANCE	QUANT	0	Positive Feedback Resistance (ohm)
ACHSELECT	IQUANT	0	Ach Select
CABLEID	IQUANT	14	Cable ID
DCCALDATE	LABEL	8/19/2019	DC Calibration Date
ACCALDATE	LABEL	8/19/2019	AC Calibration Date
THERMOSELECT	IQUANT	1	Thermo Select
FRAMEWORKVERSION	QUANT	6.33	Framework Version
INSTRUMENTVERSION	LABEL	3.50	Instrument Version
ZCURVE	TABLE
	Pt	Time	Freq	Zreal	Zimag	Zsig	Zmod	Zphz	Idc	Vdc	IERange
	#	s	Hz	ohm	ohm	V	ohm	°	A	V	#
	0	2	1000078	2131.42	-1767.605	1	2769.003	-39.66922	1.92702E-006	0.0033825	8
	1	3	794390.6	2467.617	-1800.152	1	3054.453	-36.11113	4.815658E-006	0.0023863	8
	2	5	630984.4	2778.22	-1792.849	1	3306.48	-32.83508	-8.710376E-006	0.0033481	8
	3	6	501234.4	3090.352	-1790.861	1	3571.758	-30.09232	-6.447848E-007	0.0018927	8
	4	7	398109.4	3397.649	-1755.739	1	3824.479	-27.3277	4.478888E-006	0.0020637	8
	5	9	316265.6	3678.487	-1698.698	1	4051.77	-24.78714	4.032484E-006	0.0020278	8
	6	10	251203.1	3960.669	-1633.279	1	4284.215	-22.41	6.491522E-006	0.001252	8
	7	12	199546.9	4229.916	-1567.369	1	4510.968	-20.33188	1.862963E-006	0.0023459	8
	8	13	158578.1	4507.427	-1452.167	1	4735.577	-17.85749	2.819393E-006	0.0013925	8
	9	15	125953.1	4713.843	-1282.376	1	4885.162	-15.21872	-2.65806E-006	0.0029466	7
	10	16	100078.1	4910.995	-1195.729	1	5054.468	-13.68412	-3.594872E-007	0.0010378	7
	11	17	79453.13	5082.777	-1099.391	1	5200.315	-12.20491	-1.408718E-006	0.0036781	7
	12	19	63140.62	5232.601	-1000.574	1	5327.406	-10.82538	1.25857E-007	0.0004372	7
	13	20	50203.12	5361.198	-904.195	1	5436.912	-9.57315	5.499836E-007	8.190177E-005	7
	14	21	39890.62	5467.978	-827.3946	1	5530.223	-8.604514	4.517342E-007	0.0026011	7
	15	23	31640.63	5543.245	-749.6392	1	5593.704	-7.701655	-1.258696E-006	0.0038539	7
	16	24	25171.88	5610.007	-697.4072	1	5653.189	-7.086361	-1.258594E-006	0.0038558	7
	17	25	20015.62	5689.318	-663.7195	1	5727.902	-6.654084	1.271268E-006	0.0006717	7
	18	27	15890.62	5739.271	-641.2686	1	5774.985	-6.375412	4.519874E-007	0.0025988	7
	19	28	12609.37	5784.11	-636.4255	1	5819.018	-6.278996	8.917801E-007	-5.006496E-005	7
	20	30	10078.13	5825.589	-650.9223	1	5861.841	-6.375501	-3.272548E-007	0.0035433	7
	21	31	8015.625	5877.654	-695.454	1	5918.654	-6.747961	1.170746E-006	0.0011632	7
	22	32	6328.125	5919.68	-755.5617	1	5967.704	-7.273651	1.271707E-006	0.0006671	7
	23	34	5015.625	5942.566	-839.6129	1	6001.586	-8.041972	-1.204768E-006	0.0025958	7
	24	35	3984.375	6010.284	-958.69	1	6086.263	-9.062807	9.61138E-007	0.0017344	7
	25	37	3170.956	6046.216	-1113.229	1	6147.846	-10.43245	-3.274689E-007	0.0035424	7
	26	38	2527.573	6092.113	-1301.244	1	6229.533	-12.0569	-7.071347E-007	0.0038248	7
	27	40	1976.103	6152.865	-1565.734	1	6348.958	-14.27716	-7.035657E-007	0.0038218	7
	28	41	1577.524	6223.29	-1877.206	1	6500.249	-16.78552	1.254715E-006	0.0002913	7
	29	43	1265.625	6280.842	-2247.46	1	6670.836	-19.68862	-3.578371E-007	0.0010193	7
	30	44	998.264	6383.21	-2747.817	1	6949.523	-23.29071	-7.093284E-007	0.003821	7
	31	46	796.875	6481.261	-3332.479	1	7287.809	-27.21093	-3.666312E-007	0.0010246	7
	32	47	627.7902	6622.558	-4097.594	1	7787.718	-31.74644	-1.256896E-006	0.0038516	7
	33	49	505.5147	6785.896	-4984.613	1	8419.902	-36.29933	1.129219E-006	4.131638E-005	7
	34	50	397.9953	6991.123	-6145.514	1	9308.229	-41.31694	7.689081E-009	0.0020089	7
	35	51	315.5048	7252.419	-7551.823	1	10470.32	-46.1586	1.680273E-009	0.001955	6
	36	53	252.4038	7565.864	-9215.37	1	11923.31	-50.61383	1.696392E-009	0.0019484	6
	37	54	198.6229	7995.244	-11414.51	1	13936.1	-54.99084	5.867254E-010	0.0019545	6
	38	55	158.3615	8523.62	-13965.6	1	16361.23	-58.60304	9.424345E-010	0.001958	6
	39	57	125.558	9223.608	-17172.33	1	19492.66	-61.75885	2.946011E-010	0.0019545	6
	40	58	100.4464	10081.11	-20927.09	1	23228.69	-64.27871	1.777339E-009	0.0019546	6
	41	60	79.00281	11329.89	-25912.42	1	28281.08	-66.38323	1.520061E-009	0.001941	6
	42	61	63.3446	13012.48	-31651.64	1	34222.08	-67.65167	1.377439E-009	0.0019422	6
	43	62	49.86702	14743.73	-38611.3	1	41330.5	-69.10064	1.467844E-009	0.0019427	6
	44	64	39.72458	17627.49	-46744.27	1	49957.54	-69.3383	8.66009E-010	0.0019514	6
	45	65	31.6723	21194.67	-56699.13	1	60531.03	-69.50378	1.667478E-009	0.0019414	6
	46	66	24.93351	25957.56	-68765.83	1	73501.93	-69.3196	5.06309E-010	0.0019509	6
	47	68	19.86229	31944.06	-82447.02	1	88419.08	-68.82116	1.656166E-009	0.0019465	6
	48	69	15.83615	39202.7	-98310.8	1	105838.9	-68.25973	-4.259577E-011	0.0019527	5
	49	71	12.40079	50391.26	-118813.8	1	129058.1	-67.01725	1.528071E-009	0.0019455	5
	50	72	9.93114	61881.52	-139914.1	1	152987.9	-66.14105	7.339883E-010	0.0019505	5
	51	74	7.944915	76989.21	-164701.9	1	181807.7	-64.94646	3.493532E-010	0.0019419	5
	52	75	6.317385	96223.9	-191453	1	214273.8	-63.31598	2.516774E-010	0.0019391	5
	53	77	5.008013	119908	-222507.6	1	252759.8	-61.68004	-1.591533E-010	0.0019455	5
	54	80	3.945707	149622.2	-256983.6	1	297367.4	-59.79099	2.60659E-010	0.0019463	5
	55	83	3.158693	180876.3	-291932.9	1	343425.5	-58.2184	-2.805864E-010	0.0019445	5
	56	86	2.504006	218165.2	-330913.4	1	396358.1	-56.60386	7.783164E-010	0.0019522	5
	57	89	1.998082	259018.8	-371130.5	1	452579.9	-55.0881	4.278524E-010	0.0019792	5
	58	92	1.584686	303440.3	-414830.7	1	513965.5	-53.81528	2.478584E-010	0.0019145	5
	59	95	1.266892	350058.5	-463627.2	1	580939.9	-52.94563	3.406621E-010	0.0019818	5
	60	100	0.999041	402206.2	-521577.3	1	658644.6	-52.36294	-1.161955E-010	0.0019096	5
