EXPLAIN
TAG	EISPOT
TITLE	LABEL	Potentiostatic EIS	Test &Identifier
DATE	LABEL	10/16/2019	Date
TIME	LABEL	10:02:07	Time
NOTES	NOTES	1	&Notes...
	
PSTAT	PSTAT	REF600-11020	Potentiostat
VDC	POTEN	0.00000E+000	T	DC &Voltage (V)
FREQINIT	QUANT	1.00000E+006	Initial Fre&q. (Hz)
FREQFINAL	QUANT	1.00000E+000	Final Fre&q. (Hz)
PTSPERDEC	QUANT	1.00000E+001	Points/&decade
VAC	QUANT	2.50000E+001	AC &Voltage (mV rms)
AREA	QUANT	1.00000E-002	&Area (cm^2)
CONDIT	TWOPARAM	T	5.00000E+000	0.00000E+000	Conditionin&g	Time(s)	E(V)
DELAY	TWOPARAM	T	5.00000E+000	0.00000E+000	Init. De&lay	Time(s)	Stab.(mV/s)
SPEED	SELECTOR	0	&Optimize for:
ZGUESS	QUANT	1.00000E+005	E&stimated Z (ohms)
OCVCURVE	TABLE	19
	Pt	T	Vf	Vm	Ach	Over
	#	s	V vs. Ref.	V	V	bits
	0	0.258333	9.14339E-003	9.14339E-003	5.36099E-004	...........
	1	0.516667	9.17079E-003	1.05778E-002	5.30666E-004	...........
	2	0.775	9.37935E-003	1.40466E-002	5.28700E-004	...........
	3	1.03333	1.00387E-002	1.39984E-002	5.39633E-004	...........
	4	1.29167	1.11867E-002	1.34499E-002	5.31100E-004	...........
	5	1.55	1.23788E-002	1.20152E-002	5.28333E-004	...........
	6	1.80833	1.30554E-002	1.21671E-002	5.32333E-004	...........
	7	2.06667	1.30786E-002	1.22689E-002	5.30166E-004	...........
	8	2.325	1.27545E-002	1.22277E-002	5.27800E-004	...........
	9	2.58333	1.24374E-002	1.21162E-002	5.28133E-004	...........
	10	2.84167	1.22629E-002	1.23990E-002	5.27633E-004	...........
	11	3.1	1.22162E-002	1.26311E-002	5.26800E-004	...........
	12	3.35833	1.22658E-002	1.26137E-002	5.26800E-004	...........
	13	3.61667	1.23774E-002	1.26642E-002	5.28133E-004	...........
	14	3.875	1.24984E-002	1.26616E-002	5.35066E-004	...........
	15	4.13333	1.25892E-002	1.27014E-002	5.32433E-004	...........
	16	4.39167	1.26449E-002	1.27857E-002	5.35133E-004	...........
	17	4.65	1.26838E-002	1.28400E-002	5.25866E-004	...........
	18	4.90833	1.27232E-002	1.27932E-002	5.29600E-004	...........
EOC	QUANT	0.0127232	Open Circuit (V)
PSTATMODEL	IQUANT	4	Pstat Model
PSTATSECTION	LABEL	REF600-11020	Pstat Section
PSTATSERIALNO	LABEL	11020	Pstat Serial Number
CTRLMODE	IQUANT	1	Control Mode
IESTAB	IQUANT	0	I/E Stability
CASPEED	IQUANT	1	Control Amp Speed
CONVENTION	IQUANT	1	Current Convention
ICHRANGE	IQUANT	2	Ich Range
ICHRANGEMODE	TOGGLE	F	Ich Auto Range
ICHOFFSETENABLE	TOGGLE	T	Ich Offset Enable
ICHOFFSET	QUANT	0	Ich Offset (V)
ICHFILTER	IQUANT	3	Ich Filter
VCHRANGE	IQUANT	2	Vch Range
VCHRANGEMODE	TOGGLE	F	Vch Auto Range
VCHOFFSETENABLE	TOGGLE	T	Vch Offset Enable
VCHOFFSET	QUANT	0	Vch Offset (V)
VCHFILTER	IQUANT	3	Vch Filter
ACHRANGE	IQUANT	2	Ach Range
ACHOFFSETENABLE	TOGGLE	F	Ach Offset Enable
ACHOFFSET	QUANT	0	Ach Offset (V)
ACHFILTER	IQUANT	3	Ach Filter
IERANGELOWERLIMIT	IQUANT	1	I/E Range Lower Limit
IERANGEMODE	TOGGLE	F	I/E AutoRange
IERANGE	IQUANT	5	I/E Range
POSFEEDENABLE	TOGGLE	F	Positive Feedback IR Comp
POSFEEDRESISTANCE	QUANT	0	Positive Feedback Resistance (ohm)
ACHSELECT	IQUANT	0	Ach Select
CABLEID	IQUANT	14	Cable ID
DCCALDATE	LABEL	8/19/2019	DC Calibration Date
ACCALDATE	LABEL	8/19/2019	AC Calibration Date
THERMOSELECT	IQUANT	1	Thermo Select
FRAMEWORKVERSION	QUANT	6.33	Framework Version
INSTRUMENTVERSION	LABEL	3.50	Instrument Version
ZCURVE	TABLE
	Pt	Time	Freq	Zreal	Zimag	Zsig	Zmod	Zphz	Idc	Vdc	IERange
	#	s	Hz	ohm	ohm	V	ohm	°	A	V	#
	0	1	1000078	2517.27	-1807.29	1	3098.862	-35.6767	1.005167E-006	0.0148926	8
	1	2	794390.6	2874.593	-1747.778	1	3364.226	-31.29997	-2.748567E-006	0.01536	8
	2	2	630984.4	3194.994	-1627.846	1	3585.787	-26.9988	3.374406E-007	0.0145296	8
	3	2	501234.4	3481.524	-1476.952	1	3781.851	-22.98791	-2.853461E-006	0.0150421	8
	4	3	398109.4	3707.361	-1332.014	1	3939.389	-19.7628	-1.660092E-006	0.0149223	8
	5	3	316265.6	3875.049	-1148.49	1	4041.662	-16.50881	5.733899E-007	0.0142478	8
	6	3	251203.1	4029.159	-997.688	1	4150.843	-13.90766	2.690807E-006	0.0138747	8
	7	4	199546.9	4124.148	-858.4132	1	4212.538	-11.75784	-5.520355E-007	0.0143155	8
	8	4	158578.1	4177.277	-735.6924	1	4241.567	-9.98837	-2.457119E-008	0.0143368	8
	9	4	125953.1	4294.145	-605.9816	1	4336.691	-8.032433	2.945063E-007	0.0135638	7
	10	5	100078.1	4323.664	-527.054	1	4355.669	-6.950058	-2.275858E-008	0.0143901	7
	11	5	79453.13	4363.035	-484.9132	1	4389.899	-6.341897	9.678741E-008	0.0142018	7
	12	5	63140.62	4400.864	-455.7071	1	4424.396	-5.911877	-3.543375E-008	0.0144327	7
	13	6	50203.12	4435.686	-438.7237	1	4457.329	-5.648625	2.936416E-008	0.014234	7
	14	6	39890.62	4471.829	-435.1574	1	4492.952	-5.558001	3.914204E-008	0.0142815	7
	15	6	31640.63	4505.58	-440.0136	1	4527.015	-5.577801	-5.286425E-008	0.0144207	7
	16	7	25171.88	4540.236	-458.4258	1	4563.321	-5.765591	-8.745714E-009	0.014353	7
	17	7	20015.62	4561.347	-455.0993	1	4583.994	-5.697716	-3.152807E-009	0.0143657	7
	18	7	15890.62	4617.952	-530.4606	1	4648.319	-6.552802	-2.253823E-008	0.0143268	7
	19	8	12609.37	4661.421	-587.1905	1	4698.259	-7.179626	2.729668E-008	0.0142337	7
	20	8	10078.13	4704.152	-657.2604	1	4749.846	-7.953832	-3.273913E-010	0.014293	7
	21	8	8015.625	4767.406	-765.1777	1	4828.421	-9.118314	6.183418E-008	0.0141965	7
	22	8	6328.125	4800.209	-868.3778	1	4878.124	-10.25414	-5.517552E-008	0.0144243	7
	23	9	5015.625	4858.383	-1009.893	1	4962.235	-11.74263	3.618226E-008	0.0142867	7
	24	9	3984.375	4942.692	-1201.278	1	5086.578	-13.66038	-5.973705E-008	0.0144296	7
	25	9	3170.956	4988.529	-1406.11	1	5182.911	-15.74148	7.262318E-008	0.0142797	7
	26	10	2527.573	5068.424	-1671.239	1	5336.849	-18.24922	-2.811243E-008	0.0143273	7
	27	10	1976.103	5164.902	-2026.932	1	5548.393	-21.42719	-3.098088E-009	0.0142889	7
	28	10	1577.524	5295.519	-2533.396	1	5870.316	-25.56663	7.430464E-008	0.014277	7
	29	11	1265.625	5403.588	-2906.025	1	6135.45	-28.27116	-4.826674E-008	0.0144878	7
	30	11	998.264	5557.945	-3529.366	1	6583.857	-32.41607	3.88059E-008	0.0142756	7
	31	11	796.875	5739.228	-4250.543	1	7141.838	-36.52411	-3.75292E-008	0.0143619	7
	32	12	627.7902	5964.076	-5187.425	1	7904.402	-41.01605	-4.907153E-008	0.0144879	7
	33	12	505.5147	6196.138	-6215.025	1	8776.027	-45.08719	-9.317176E-010	0.0142809	7
	34	12	397.9953	6504.707	-7609.781	1	10010.99	-49.47676	1.022055E-009	0.0142849	6
	35	13	315.5048	6860.234	-9287.311	1	11546.3	-53.54792	7.09231E-010	0.0142877	6
	36	13	252.4038	7277.007	-11260.69	1	13407.38	-57.1282	9.732928E-010	0.0142802	6
	37	13	198.6229	7830.46	-13872.86	1	15930.23	-60.55768	2.866804E-010	0.0142838	6
	38	14	158.3615	8490.546	-16917.45	1	18928.54	-63.3488	6.923929E-010	0.0142812	6
	39	14	125.558	9356.854	-20727.71	1	22741.79	-65.70475	4.640565E-010	0.0142815	6
	40	14	100.4464	10462.68	-25200.21	1	27285.86	-67.45264	-6.352653E-010	0.0142751	6
	41	15	79.00281	11965.23	-30985.85	1	33215.8	-68.88586	-3.351217E-010	0.0142735	6
	42	15	63.3446	13564.05	-38047.45	1	40392.96	-70.37868	1.219673E-010	0.0142741	6
	43	15	49.86702	15973.98	-46497.63	1	49165	-71.04015	-9.469185E-010	0.0142755	6
	44	16	39.72458	19430.49	-56128.43	1	59396.5	-70.90521	2.129945E-010	0.0142829	6
	45	16	31.6723	23589.49	-67715.96	1	71707.15	-70.79374	5.816725E-011	0.0142794	6
	46	16	24.93351	29111.41	-82666.97	1	87643.04	-70.60014	-1.619323E-010	0.0142776	6
	47	17	19.86229	36073.13	-99319.9	1	105667.9	-70.03889	-4.381178E-010	0.0142801	5
	48	17	15.83615	46737.7	-118125.1	1	127035.2	-68.41314	-2.241393E-009	0.0142849	5
	49	17	12.40079	58725.17	-142695.9	1	154307.4	-67.63084	1.346941E-009	0.0142801	5
	50	18	9.93114	73130.16	-168432.9	1	183623.7	-66.53049	1.044342E-010	0.01428	5
	51	18	7.944915	91225.11	-198015.2	1	218018.4	-65.26459	-4.531714E-010	0.014284	5
	52	19	6.317385	114213.8	-229983.4	1	256782.3	-63.59019	-5.453878E-011	0.0142862	5
	53	20	5.008013	142019.3	-266257.3	1	301765.5	-61.92495	2.028715E-010	0.0142886	5
	54	21	3.945707	175917.8	-307729.8	1	354463.9	-60.24498	-3.175087E-010	0.0142724	5
	55	22	3.158693	211256.9	-348619.8	1	407633.7	-58.78493	-4.634306E-011	0.0142666	5
	56	24	2.504006	252818.7	-396327.5	1	470098.7	-57.46606	1.184458E-010	0.0142787	5
	57	25	1.998082	296876.4	-446778.2	1	536420	-56.39664	-1.471835E-010	0.0142382	5
	58	26	1.584686	345612.7	-507538.4	1	614038.6	-55.74675	-1.876778E-010	0.0142291	5
	59	28	1.266892	395129.1	-572899.8	1	695946.3	-55.40596	-1.178586E-010	0.0142685	5
	60	31	0.999041	453868.3	-653592.3	1	795725.6	-55.22307	-9.778305E-011	0.0142954	5
