EXPLAIN
TAG	EISPOT
TITLE	LABEL	Potentiostatic EIS	Test &Identifier
DATE	LABEL	11/5/2019	Date
TIME	LABEL	8:49:29	Time
NOTES	NOTES	2	&Notes...
	
	
PSTAT	PSTAT	REF600-11020	Potentiostat
VDC	POTEN	0.00000E+000	T	DC &Voltage (V)
FREQINIT	QUANT	1.00000E+006	Initial Fre&q. (Hz)
FREQFINAL	QUANT	1.00000E+000	Final Fre&q. (Hz)
PTSPERDEC	QUANT	1.00000E+001	Points/&decade
VAC	QUANT	2.50000E+001	AC &Voltage (mV rms)
AREA	QUANT	1.00000E-002	&Area (cm^2)
CONDIT	TWOPARAM	T	5.00000E+000	0.00000E+000	Conditionin&g	Time(s)	E(V)
DELAY	TWOPARAM	T	5.00000E+000	0.00000E+000	Init. De&lay	Time(s)	Stab.(mV/s)
SPEED	SELECTOR	1	&Optimize for:
ZGUESS	QUANT	1.00000E+005	E&stimated Z (ohms)
OCVCURVE	TABLE	19
	Pt	T	Vf	Vm	Ach	Over
	#	s	V vs. Ref.	V	V	bits
	0	0.258333	5.48983E-003	5.48983E-003	5.54866E-004	...........
	1	0.516667	5.48974E-003	5.48472E-003	5.55433E-004	...........
	2	0.775	5.48759E-003	5.39873E-003	5.52866E-004	...........
	3	1.03333	5.47520E-003	5.25596E-003	5.56099E-004	...........
	4	1.29167	5.43633E-003	5.02943E-003	5.58666E-004	...........
	5	1.55	5.35410E-003	4.85902E-003	5.51266E-004	...........
	6	1.80833	5.22905E-003	4.92755E-003	5.52766E-004	...........
	7	2.06667	5.09321E-003	4.95357E-003	5.52932E-004	...........
	8	2.325	4.99074E-003	4.90276E-003	5.49633E-004	...........
	9	2.58333	4.93722E-003	4.86040E-003	5.50966E-004	...........
	10	2.84167	4.91289E-003	4.84157E-003	5.54066E-004	...........
	11	3.1	4.89331E-003	4.80556E-003	5.53566E-004	...........
	12	3.35833	4.86912E-003	4.78598E-003	5.54533E-004	...........
	13	3.61667	4.84175E-003	4.76895E-003	5.55566E-004	...........
	14	3.875	4.81501E-003	4.75244E-003	5.58832E-004	...........
	15	4.13333	4.79149E-003	4.73888E-003	5.53299E-004	...........
	16	4.39167	4.77162E-003	4.71937E-003	5.56466E-004	...........
	17	4.65	4.75419E-003	4.70184E-003	5.54033E-004	...........
	18	4.90833	4.73762E-003	4.68823E-003	5.49766E-004	...........
EOC	QUANT	0.0047376	Open Circuit (V)
PSTATMODEL	IQUANT	4	Pstat Model
PSTATSECTION	LABEL	REF600-11020	Pstat Section
PSTATSERIALNO	LABEL	11020	Pstat Serial Number
CTRLMODE	IQUANT	1	Control Mode
IESTAB	IQUANT	0	I/E Stability
CASPEED	IQUANT	1	Control Amp Speed
CONVENTION	IQUANT	1	Current Convention
ICHRANGE	IQUANT	2	Ich Range
ICHRANGEMODE	TOGGLE	F	Ich Auto Range
ICHOFFSETENABLE	TOGGLE	T	Ich Offset Enable
ICHOFFSET	QUANT	0	Ich Offset (V)
ICHFILTER	IQUANT	3	Ich Filter
VCHRANGE	IQUANT	2	Vch Range
VCHRANGEMODE	TOGGLE	F	Vch Auto Range
VCHOFFSETENABLE	TOGGLE	T	Vch Offset Enable
VCHOFFSET	QUANT	0	Vch Offset (V)
VCHFILTER	IQUANT	3	Vch Filter
ACHRANGE	IQUANT	2	Ach Range
ACHOFFSETENABLE	TOGGLE	F	Ach Offset Enable
ACHOFFSET	QUANT	0	Ach Offset (V)
ACHFILTER	IQUANT	3	Ach Filter
IERANGELOWERLIMIT	IQUANT	1	I/E Range Lower Limit
IERANGEMODE	TOGGLE	F	I/E AutoRange
IERANGE	IQUANT	4	I/E Range
POSFEEDENABLE	TOGGLE	F	Positive Feedback IR Comp
POSFEEDRESISTANCE	QUANT	0	Positive Feedback Resistance (ohm)
ACHSELECT	IQUANT	0	Ach Select
CABLEID	IQUANT	14	Cable ID
DCCALDATE	LABEL	8/19/2019	DC Calibration Date
ACCALDATE	LABEL	8/19/2019	AC Calibration Date
THERMOSELECT	IQUANT	1	Thermo Select
FRAMEWORKVERSION	QUANT	6.33	Framework Version
INSTRUMENTVERSION	LABEL	3.50	Instrument Version
ZCURVE	TABLE
	Pt	Time	Freq	Zreal	Zimag	Zsig	Zmod	Zphz	Idc	Vdc	IERange
	#	s	Hz	ohm	ohm	V	ohm	°	A	V	#
	0	2	1000078	2294.157	-1653.356	1	2827.851	-35.77958	9.502126E-006	0.0058528	8
	1	3	794390.6	2612.356	-1593.442	1	3059.978	-31.38166	-8.499571E-007	0.007023	8
	2	5	630984.4	2919.566	-1480.333	1	3273.416	-26.88678	-2.255015E-006	0.0066578	8
	3	6	501234.4	3165.68	-1333.899	1	3435.232	-22.84873	8.181762E-006	0.0055604	8
	4	7	398109.4	3372.576	-1174.835	1	3571.345	-19.20576	1.286802E-006	0.0066613	8
	5	9	316265.6	3523.446	-1023.016	1	3668.955	-16.19041	-4.784928E-006	0.0066802	8
	6	10	251203.1	3653.555	-877.4064	1	3757.433	-13.50394	-1.4539E-006	0.006091	8
	7	11	199546.9	3729.182	-761.8738	1	3806.212	-11.54666	-1.574455E-006	0.0060967	8
	8	13	158578.1	3825.693	-657.1347	1	3881.72	-9.74652	-2.004991E-006	0.006447	8
	9	14	125953.1	3881.41	-515.6645	1	3915.515	-7.56771	-1.014386E-006	0.0073321	7
	10	15	100078.1	3906.151	-459.9152	1	3933.134	-6.715161	1.132255E-006	0.0047642	7
	11	17	79453.13	3947.2	-423.288	1	3969.831	-6.120867	-1.268785E-006	0.0073913	7
	12	18	63140.62	3978.613	-402.8177	1	3998.953	-5.781254	-1.268561E-006	0.0073839	7
	13	19	50203.12	4010.485	-391.3788	1	4029.536	-5.573783	-1.269469E-006	0.0073811	7
	14	21	39890.62	4042.11	-391.0003	1	4060.977	-5.52513	1.35377E-007	0.0048161	7
	15	22	31640.63	4075.747	-401.4687	1	4095.472	-5.625594	8.620682E-007	0.0060511	7
	16	23	25171.88	4110.253	-419.8885	1	4131.645	-5.832895	8.602414E-007	0.0060481	7
	17	25	20015.62	4147.457	-449.6077	1	4171.756	-6.187025	6.305836E-007	0.0064926	7
	18	26	15890.62	4186.23	-487.5799	1	4214.53	-6.643438	3.948405E-007	0.0068206	7
	19	27	12609.37	4225.489	-537.7793	1	4259.573	-7.253058	-6.581373E-007	0.0079323	7
	20	29	10078.13	4268.183	-603.8743	1	4310.69	-8.052917	-1.08798E-006	0.0067736	7
	21	30	8015.625	4318.527	-678.3486	1	4371.479	-8.927003	-7.50264E-007	0.0060699	7
	22	31	6328.125	4370.217	-779.9092	1	4439.263	-10.11849	6.407981E-008	0.0072723	7
	23	33	5015.625	4425.763	-902.9308	1	4516.931	-11.53106	5.219547E-007	0.0044971	7
	24	34	3984.375	4481.97	-1050.985	1	4603.545	-13.19695	3.959516E-007	0.0068155	7
	25	35	3170.956	4541.75	-1233.986	1	4706.402	-15.20024	-9.424261E-007	0.0079982	7
	26	37	2527.573	4604.469	-1461.168	1	4830.75	-17.60615	-1.281533E-006	0.0077619	7
	27	38	1976.103	4682.26	-1775.605	1	5007.627	-20.76771	1.032685E-006	0.0044895	7
	28	39	1577.524	4767.806	-2124.543	1	5219.737	-24.01784	-1.149657E-006	0.007938	7
	29	41	1265.625	4843.685	-2541.176	1	5469.813	-27.68316	6.46705E-008	0.007265	7
	30	42	998.264	4952.289	-3104.208	1	5844.764	-32.08043	-1.282275E-006	0.0077618	7
	31	43	796.875	5074.059	-3771.843	1	6322.41	-36.62557	3.961485E-007	0.0068127	7
	32	45	627.7902	5225.428	-4650.619	1	6995.238	-41.66901	8.675075E-007	0.0060458	7
	33	46	505.5147	5398.14	-5615.739	1	7789.509	-46.13184	-1.086746E-006	0.0067734	7
	34	47	397.9953	5632.7	-6950.866	1	8946.611	-50.98009	1.121532E-009	0.0062817	7
	35	49	315.5048	5922.69	-8545.493	1	10397.29	-55.27504	1.615896E-009	0.0062178	6
	36	50	252.4038	6270.464	-10431.59	1	12171.15	-58.98978	1.954273E-010	0.0062212	6
	37	51	198.6229	6744.077	-12924.15	1	14577.94	-62.44356	1.190119E-009	0.0062131	6
	38	53	158.3615	7318.107	-15822.83	1	17433.21	-65.17931	1.326847E-009	0.0062126	6
	39	54	125.558	8083.54	-19458.9	1	21071.13	-67.44122	1.082194E-009	0.0062184	6
	40	55	100.4464	9017.378	-23706.59	1	25363.66	-69.17447	1.888952E-009	0.0062083	6
	41	57	79.00281	10292.73	-29328.61	1	31082.27	-70.66174	1.1833E-009	0.0062125	6
	42	58	63.3446	12240.4	-35822.59	1	37856.11	-71.13495	2.163561E-010	0.0062099	6
	43	60	49.86702	13885.38	-43852.13	1	45997.96	-72.43008	1.136941E-009	0.0062142	6
	44	61	39.72458	17002.66	-53156.31	1	55809.35	-72.26253	1.489723E-009	0.0062068	6
	45	62	31.6723	20433.72	-64553.35	1	67710.2	-72.43533	2.665177E-010	0.0062166	6
	46	64	24.93351	25442.11	-78846.75	1	82849.93	-72.11625	1.876752E-010	0.0062141	6
	47	65	19.86229	31437.76	-95003.1	1	100069.6	-71.68995	1.353314E-009	0.0062165	6
	48	67	15.83615	38615.78	-114330.9	1	120676.1	-71.33737	6.92663E-010	0.0062051	5
	49	68	12.40079	50886.2	-139689.3	1	148669.1	-69.98426	1.029925E-009	0.0062147	5
	50	69	9.93114	62960.03	-164531.6	1	176166.5	-69.06004	7.655252E-010	0.0062208	5
	51	71	7.944915	77953.85	-193740.5	1	208835.3	-68.08201	-6.229027E-010	0.0062162	5
	52	73	6.317385	98509.1	-230158.4	1	250353.6	-66.82881	1.402955E-010	0.006204	5
	53	75	5.008013	123995.8	-271263.7	1	298259.8	-65.43466	4.535152E-011	0.0062172	5
	54	77	3.945707	155063.9	-318188.7	1	353961.7	-64.01849	6.253046E-010	0.0062128	5
	55	80	3.158693	192501.3	-368404.7	1	415666.7	-62.41172	-2.948334E-011	0.006206	5
	56	83	2.504006	237919.3	-424536.8	1	486659.1	-60.73282	4.765406E-010	0.0062151	5
	57	86	1.998082	287823.4	-484517.1	1	563559.4	-59.28792	-6.04817E-011	0.0062512	5
	58	89	1.584686	347504.5	-552422.8	1	652633.4	-57.82784	1.598854E-010	0.0062641	5
	59	92	1.266892	410029.7	-623208.6	1	745998.2	-56.65775	-1.611435E-010	0.0062334	5
	60	97	0.999041	483455.3	-707571	1	856963.1	-55.65675	3.047775E-010	0.0062299	5
