EXPLAIN
TAG	EISPOT
TITLE	LABEL	Potentiostatic EIS	Test &Identifier
DATE	LABEL	8/16/2017	Date
TIME	LABEL	16:36:19	Time
NOTES	NOTES	1	&Notes...
	
PSTAT	PSTAT	REF600-11020	Potentiostat
VDC	POTEN	0.00000E+000	T	DC &Voltage (V)
FREQINIT	QUANT	1.00000E+006	Initial Fre&q. (Hz)
FREQFINAL	QUANT	1.00000E+000	Final Fre&q. (Hz)
PTSPERDEC	QUANT	1.00000E+001	Points/&decade
VAC	QUANT	2.50000E+001	AC &Voltage (mV rms)
AREA	QUANT	1.00000E-002	&Area (cm^2)
CONDIT	TWOPARAM	T	5.00000E+000	0.00000E+000	Conditionin&g	Time(s)	E(V)
DELAY	TWOPARAM	T	5.00000E+000	0.00000E+000	Init. De&lay	Time(s)	Stab.(mV/s)
SPEED	SELECTOR	0	&Optimize for:
ZGUESS	QUANT	1.00000E+005	E&stimated Z (ohms)
OCVCURVE	TABLE	19
	Pt	T	Vf	Vm	Ach	Over
	#	s	V vs. Ref.	V	V	bits
	0	0.258333	5.78312E-003	5.78312E-003	5.55066E-004	...........
	1	0.516667	5.78139E-003	5.69211E-003	5.55233E-004	...........
	2	0.775	5.77184E-003	5.66505E-003	5.58866E-004	...........
	3	1.03333	5.75009E-003	5.71718E-003	5.53399E-004	...........
	4	1.29167	5.72363E-003	5.69766E-003	5.49833E-004	...........
	5	1.55	5.70452E-003	5.65537E-003	5.57599E-004	...........
	6	1.80833	5.68651E-003	5.29690E-003	5.56666E-004	...........
	7	2.06667	5.63786E-003	5.15465E-003	5.52866E-004	...........
	8	2.325	5.53642E-003	5.32140E-003	5.53866E-004	...........
	9	2.58333	5.41736E-003	5.56440E-003	5.56333E-004	...........
	10	2.84167	5.35135E-003	5.45745E-003	5.57632E-004	...........
	11	3.1	5.36588E-003	5.59511E-003	5.59966E-004	...........
	12	3.35833	5.42510E-003	5.47198E-003	5.54633E-004	...........
	13	3.61667	5.48078E-003	5.51367E-003	5.59332E-004	...........
	14	3.875	5.51050E-003	5.53702E-003	5.55933E-004	...........
	15	4.13333	5.51951E-003	5.53583E-003	5.57366E-004	...........
	16	4.39167	5.52272E-003	5.53031E-003	5.56133E-004	...........
	17	4.65	5.52803E-003	5.59865E-003	5.46399E-004	...........
	18	4.90833	5.53974E-003	5.68173E-003	5.55599E-004	...........
EOC	QUANT	0.0055397	Open Circuit (V)
PSTATMODEL	IQUANT	4	Pstat Model
PSTATSECTION	LABEL	REF600-11020	Pstat Section
PSTATSERIALNO	LABEL	11020	Pstat Serial Number
CTRLMODE	IQUANT	1	Control Mode
IESTAB	IQUANT	0	I/E Stability
CASPEED	IQUANT	1	Control Amp Speed
CONVENTION	IQUANT	1	Current Convention
ICHRANGE	IQUANT	2	Ich Range
ICHRANGEMODE	TOGGLE	F	Ich Auto Range
ICHOFFSETENABLE	TOGGLE	T	Ich Offset Enable
ICHOFFSET	QUANT	0	Ich Offset (V)
ICHFILTER	IQUANT	3	Ich Filter
VCHRANGE	IQUANT	2	Vch Range
VCHRANGEMODE	TOGGLE	F	Vch Auto Range
VCHOFFSETENABLE	TOGGLE	T	Vch Offset Enable
VCHOFFSET	QUANT	0	Vch Offset (V)
VCHFILTER	IQUANT	3	Vch Filter
ACHRANGE	IQUANT	2	Ach Range
ACHOFFSETENABLE	TOGGLE	F	Ach Offset Enable
ACHOFFSET	QUANT	0	Ach Offset (V)
ACHFILTER	IQUANT	3	Ach Filter
IERANGELOWERLIMIT	IQUANT	1	I/E Range Lower Limit
IERANGEMODE	TOGGLE	F	I/E AutoRange
IERANGE	IQUANT	5	I/E Range
POSFEEDENABLE	TOGGLE	F	Positive Feedback IR Comp
POSFEEDRESISTANCE	QUANT	0	Positive Feedback Resistance (ohm)
ACHSELECT	IQUANT	0	Ach Select
CABLEID	IQUANT	14	Cable ID
DCCALDATE	LABEL	8/19/2019	DC Calibration Date
ACCALDATE	LABEL	8/19/2019	AC Calibration Date
THERMOSELECT	IQUANT	1	Thermo Select
FRAMEWORKVERSION	QUANT	6.33	Framework Version
INSTRUMENTVERSION	LABEL	3.50	Instrument Version
ZCURVE	TABLE
	Pt	Time	Freq	Zreal	Zimag	Zsig	Zmod	Zphz	Idc	Vdc	IERange
	#	s	Hz	ohm	ohm	V	ohm	°	A	V	#
	0	2	1000078	2181.006	-1328.116	1	2553.562	-31.33919	-9.711197E-007	0.007928	8
	1	2	794390.6	2432.297	-1240.456	1	2730.348	-27.02129	9.866478E-006	0.0063908	8
	2	2	630984.4	2642.512	-1114.645	1	2867.979	-22.87063	-4.827617E-006	0.0074498	8
	3	3	501234.4	2824.071	-994.307	1	2993.998	-19.39629	-1.731029E-006	0.0073482	8
	4	3	398109.4	2949.335	-862.7104	1	3072.921	-16.30474	7.769532E-006	0.0063091	8
	5	3	316265.6	3061.842	-745.7418	1	3151.35	-13.68843	5.87729E-006	0.0059532	8
	6	4	251203.1	3136.035	-643.3302	1	3201.342	-11.59289	-1.926261E-006	0.0068774	8
	7	4	199546.9	3193.25	-562.1608	1	3242.355	-9.98442	-4.701611E-008	0.0067865	8
	8	4	158578.1	3220.931	-463.2407	1	3254.073	-8.184271	6.071733E-006	0.0063892	8
	9	4	125953.1	3302.512	-381.4974	1	3324.473	-6.58945	4.020364E-006	0.000219	7
	10	5	100078.1	3322.112	-341.3423	1	3339.602	-5.866473	8.411138E-007	0.0068291	7
	11	5	79453.13	3348.803	-317.3673	1	3363.808	-5.413772	-3.080428E-007	0.0061935	7
	12	5	63140.62	3373.947	-303.5611	1	3387.575	-5.14118	4.935681E-007	0.0053632	7
	13	6	50203.12	3398.229	-297.4822	1	3411.225	-5.00294	-3.13056E-007	0.0061832	7
	14	6	39890.62	3423.658	-300.9222	1	3436.857	-5.0231	1.029727E-006	0.0063166	7
	15	6	31640.63	3444.864	-307.979	1	3458.603	-5.108797	3.962938E-007	0.0075697	7
	16	7	25171.88	3470.771	-324.7682	1	3485.933	-5.345734	9.917812E-007	0.0053349	7
	17	7	20015.62	3489.446	-342.9283	1	3506.256	-5.61277	1.186607E-007	0.0056551	7
	18	7	15890.62	3519.904	-386.4136	1	3541.051	-6.264821	3.970986E-007	0.007566	7
	19	8	12609.37	3545.487	-432.1237	1	3571.723	-6.948933	-1.252717E-006	0.0085194	7
	20	8	10078.13	3575.154	-489.054	1	3608.448	-7.789284	-1.244638E-006	0.0081556	7
	21	8	8015.625	3606.585	-566.4832	1	3650.803	-8.926467	7.279348E-008	0.0080111	7
	22	9	6328.125	3645.808	-662.5341	1	3705.518	-10.29967	1.030315E-006	0.0063142	7
	23	9	5015.625	3680.892	-780.6777	1	3762.768	-11.97438	-2.975617E-007	0.0084139	7
	24	9	3984.375	3724.521	-927.156	1	3838.187	-13.97869	1.030805E-006	0.0063133	7
	25	10	3170.956	3769.28	-1106.354	1	3928.293	-16.35795	-1.116697E-006	0.0086843	7
	26	10	2527.573	3822.743	-1325.96	1	4046.175	-19.12967	-1.065693E-006	0.0075621	7
	27	10	1976.103	3887.419	-1619.524	1	4211.281	-22.61692	-2.95988E-007	0.0084048	7
	28	10	1577.524	3950.909	-1932.266	1	4398.106	-26.06181	1.027167E-006	0.0063098	7
	29	11	1265.625	4044.312	-2360.695	1	4682.878	-30.27243	9.925767E-007	0.0053315	7
	30	11	998.264	4145.129	-2882.778	1	5049.01	-34.81712	-1.110202E-006	0.0086605	7
	31	11	796.875	4259.677	-3502.986	1	5515.048	-39.4325	-1.24219E-006	0.0085006	7
	32	12	627.7902	4403.548	-4322.683	1	6170.642	-44.46906	6.184203E-007	0.0072305	7
	33	12	505.5147	4559.426	-5229.304	1	6937.866	-48.91486	4.024659E-007	0.0075607	7
	34	12	397.9953	4779.372	-6466.384	1	8040.928	-53.53151	3.806284E-009	0.0070544	7
	35	13	315.5048	5041.996	-7954.663	1	9417.982	-57.63178	1.071496E-009	0.0070568	7
	36	13	252.4038	5364.36	-9714.49	1	11097.2	-61.09245	-4.900222E-010	0.0070004	6
	37	13	198.6229	5801.095	-12048.96	1	13372.74	-64.29103	1.123306E-009	0.0069986	6
	38	14	158.3615	6338.574	-14767.4	1	16070.27	-66.76967	-2.93386E-011	0.0069881	6
	39	14	125.558	7061.646	-18180.17	1	19503.47	-68.77255	2.508406E-010	0.0070002	6
	40	14	100.4464	7991.832	-22173.9	1	23570.14	-70.18002	1.715724E-009	0.0069918	6
	41	15	79.00281	9348.041	-27492.75	1	29038.55	-71.22102	-1.410836E-010	0.0069977	6
	42	15	63.3446	10607.55	-33573.21	1	35209.1	-72.46593	-5.456124E-010	0.0069856	6
	43	15	49.86702	12870.28	-41087.14	1	43055.74	-72.60717	-1.020755E-009	0.006997	6
	44	16	39.72458	16096.84	-49931.23	1	52461.75	-72.13171	1.846716E-010	0.0069893	6
	45	16	31.6723	19791.17	-60325.07	1	63488.62	-71.83661	1.145983E-009	0.0069889	6
	46	16	24.93351	25253.57	-73399.96	1	77622.79	-71.014	1.086758E-009	0.0069918	6
	47	17	19.86229	31777.61	-88116.38	1	93671.3	-70.16906	2.732956E-010	0.0069965	6
	48	17	15.83615	41863.93	-104641.8	1	112705.3	-68.19519	2.219637E-009	0.007006	5
	49	17	12.40079	53516.93	-125603	1	136529	-66.92211	-2.034459E-009	0.0070018	5
	50	18	9.93114	66725.82	-147793	1	162157.7	-65.70171	7.801437E-010	0.0069961	5
	51	18	7.944915	83756.9	-171501.2	1	190860.9	-63.97027	6.177271E-010	0.0070044	5
	52	19	6.317385	104992.4	-198213.1	1	224303	-62.09007	4.459822E-010	0.0069837	5
	53	20	5.008013	130153.9	-228654.8	1	263102.8	-60.35079	3.250896E-010	0.0070117	5
	54	21	3.945707	161831.4	-261182.5	1	307255.1	-58.21722	-3.37652E-010	0.0069955	5
	55	22	3.158693	192820.8	-292551.2	1	350379.8	-56.61108	-1.111396E-010	0.0069914	5
	56	24	2.504006	228935.6	-328847.5	1	400689.6	-55.1553	2.016512E-010	0.0069874	5
	57	25	1.998082	265255.6	-366697.2	1	452578.6	-54.11937	-9.359896E-011	0.0069704	5
	58	27	1.584686	305762.7	-412306.7	1	513310.5	-53.43972	-2.136254E-010	0.0069419	5
	59	29	1.266892	344717.5	-463752.6	1	577837.9	-53.37577	-1.7364E-010	0.0069646	5
	60	31	0.999041	388585.4	-527911.4	1	655506.7	-53.64393	-1.505055E-010	0.0069855	5
