EXPLAIN
TAG	EISPOT
TITLE	LABEL	Potentiostatic EIS	Test &Identifier
DATE	LABEL	8/16/2017	Date
TIME	LABEL	16:52:16	Time
NOTES	NOTES	1	&Notes...
	
PSTAT	PSTAT	REF600-11020	Potentiostat
VDC	POTEN	0.00000E+000	T	DC &Voltage (V)
FREQINIT	QUANT	1.00000E+006	Initial Fre&q. (Hz)
FREQFINAL	QUANT	1.00000E+000	Final Fre&q. (Hz)
PTSPERDEC	QUANT	1.00000E+001	Points/&decade
VAC	QUANT	2.50000E+001	AC &Voltage (mV rms)
AREA	QUANT	1.00000E-002	&Area (cm^2)
CONDIT	TWOPARAM	T	5.00000E+000	0.00000E+000	Conditionin&g	Time(s)	E(V)
DELAY	TWOPARAM	T	5.00000E+000	0.00000E+000	Init. De&lay	Time(s)	Stab.(mV/s)
SPEED	SELECTOR	0	&Optimize for:
ZGUESS	QUANT	1.00000E+005	E&stimated Z (ohms)
OCVCURVE	TABLE	19
	Pt	T	Vf	Vm	Ach	Over
	#	s	V vs. Ref.	V	V	bits
	0	0.258333	6.63113E-003	6.63113E-003	5.70032E-004	...........
	1	0.516667	6.63058E-003	6.60239E-003	5.69932E-004	...........
	2	0.775	6.62526E-003	6.47329E-003	5.64332E-004	...........
	3	1.03333	6.60782E-003	6.56222E-003	5.67399E-004	...........
	4	1.29167	6.58164E-003	6.63782E-003	5.63832E-004	...........
	5	1.55	6.56648E-003	6.63924E-003	5.71432E-004	...........
	6	1.80833	6.57693E-003	6.70726E-003	5.66966E-004	...........
	7	2.06667	6.60996E-003	6.81640E-003	5.69232E-004	...........
	8	2.325	6.65924E-003	6.87602E-003	5.63266E-004	...........
	9	2.58333	6.72135E-003	6.89999E-003	5.60299E-004	...........
	10	2.84167	6.78801E-003	6.94455E-003	5.66632E-004	...........
	11	3.1	6.84865E-003	6.99375E-003	5.63366E-004	...........
	12	3.35833	6.90253E-003	7.16946E-003	5.61866E-004	...........
	13	3.61667	6.95818E-003	7.04589E-003	5.65566E-004	...........
	14	3.875	7.01552E-003	7.12925E-003	5.63799E-004	...........
	15	4.13333	7.06400E-003	7.21685E-003	5.63066E-004	...........
	16	4.39167	7.10460E-003	7.29107E-003	5.62532E-004	...........
	17	4.65	7.15132E-003	7.36000E-003	5.63899E-004	...........
	18	4.90833	7.21046E-003	7.38925E-003	5.69732E-004	...........
EOC	QUANT	0.0072105	Open Circuit (V)
PSTATMODEL	IQUANT	4	Pstat Model
PSTATSECTION	LABEL	REF600-11020	Pstat Section
PSTATSERIALNO	LABEL	11020	Pstat Serial Number
CTRLMODE	IQUANT	1	Control Mode
IESTAB	IQUANT	0	I/E Stability
CASPEED	IQUANT	1	Control Amp Speed
CONVENTION	IQUANT	1	Current Convention
ICHRANGE	IQUANT	2	Ich Range
ICHRANGEMODE	TOGGLE	F	Ich Auto Range
ICHOFFSETENABLE	TOGGLE	T	Ich Offset Enable
ICHOFFSET	QUANT	0	Ich Offset (V)
ICHFILTER	IQUANT	3	Ich Filter
VCHRANGE	IQUANT	2	Vch Range
VCHRANGEMODE	TOGGLE	F	Vch Auto Range
VCHOFFSETENABLE	TOGGLE	T	Vch Offset Enable
VCHOFFSET	QUANT	0	Vch Offset (V)
VCHFILTER	IQUANT	3	Vch Filter
ACHRANGE	IQUANT	2	Ach Range
ACHOFFSETENABLE	TOGGLE	F	Ach Offset Enable
ACHOFFSET	QUANT	0	Ach Offset (V)
ACHFILTER	IQUANT	3	Ach Filter
IERANGELOWERLIMIT	IQUANT	1	I/E Range Lower Limit
IERANGEMODE	TOGGLE	F	I/E AutoRange
IERANGE	IQUANT	5	I/E Range
POSFEEDENABLE	TOGGLE	F	Positive Feedback IR Comp
POSFEEDRESISTANCE	QUANT	0	Positive Feedback Resistance (ohm)
ACHSELECT	IQUANT	0	Ach Select
CABLEID	IQUANT	14	Cable ID
DCCALDATE	LABEL	8/19/2019	DC Calibration Date
ACCALDATE	LABEL	8/19/2019	AC Calibration Date
THERMOSELECT	IQUANT	1	Thermo Select
FRAMEWORKVERSION	QUANT	6.33	Framework Version
INSTRUMENTVERSION	LABEL	3.50	Instrument Version
ZCURVE	TABLE
	Pt	Time	Freq	Zreal	Zimag	Zsig	Zmod	Zphz	Idc	Vdc	IERange
	#	s	Hz	ohm	ohm	V	ohm	°	A	V	#
	0	1	1000078	2308.433	-1508.325	1	2757.519	-33.1605	4.778136E-007	0.0090401	8
	1	1	794390.6	2609.381	-1471.756	1	2995.82	-29.42408	-2.141806E-006	0.0097506	8
	2	2	630984.4	2878.69	-1336.384	1	3173.764	-24.9023	-3.262443E-007	0.008662	8
	3	2	501234.4	3089.737	-1197.679	1	3313.746	-21.18789	2.207844E-006	0.0092542	8
	4	2	398109.4	3252.389	-1051.538	1	3418.152	-17.91667	1.852671E-006	0.0091918	8
	5	3	316265.6	3395.11	-917.7943	1	3516.976	-15.12711	-4.083872E-006	0.00944	8
	6	3	251203.1	3499.727	-815.2183	1	3593.42	-13.11252	-1.909492E-006	0.0089584	8
	7	3	199546.9	3574.792	-699.1904	1	3642.528	-11.06672	-2.568839E-006	0.0087396	8
	8	4	158578.1	3633.319	-626.4926	1	3686.937	-9.7833	4.015897E-006	0.0088113	8
	9	4	125953.1	3704.682	-499.3244	1	3738.18	-7.67618	-1.293692E-006	0.0075569	7
	10	4	100078.1	3750.475	-452.3964	1	3777.661	-6.878003	-1.100301E-006	0.0093269	7
	11	4	79453.13	3783.44	-435.2354	1	3808.392	-6.562286	1.039852E-006	0.007018	7
	12	5	63140.62	3817.74	-427.0266	1	3841.548	-6.382191	6.342137E-007	0.0090269	7
	13	5	50203.12	3854.415	-424.9462	1	3877.769	-6.291406	4.004146E-007	0.0093623	7
	14	5	39890.62	3888.779	-431.8228	1	3912.681	-6.336354	-1.288604E-006	0.0099195	7
	15	6	31640.63	3935.326	-453.504	1	3961.37	-6.573725	1.149481E-006	0.0072508	7
	16	6	25171.88	3975.46	-481.3369	1	4004.494	-6.903598	5.261475E-007	0.0070155	7
	17	6	20015.62	4021.581	-521.2809	1	4055.225	-7.385551	8.658266E-007	0.0085794	7
	18	7	15890.62	4068.916	-570.4144	1	4108.704	-7.980191	-3.227651E-007	0.0102259	7
	19	7	12609.37	4126.185	-633.8563	1	4174.586	-8.733394	1.065466E-006	0.0080533	7
	20	7	10078.13	4171.775	-709.312	1	4231.646	-9.64952	6.217644E-008	0.0098124	7
	21	8	8015.625	4243.605	-801.9611	1	4318.718	-10.70161	8.337894E-007	0.0069152	7
	22	8	6328.125	4310.931	-917.4274	1	4407.471	-12.01412	1.161123E-006	0.0076052	7
	23	8	5015.625	4380.044	-1056.341	1	4505.624	-13.55917	1.413185E-007	0.007321	7
	24	9	3984.375	4453.456	-1224.875	1	4618.83	-15.37835	-7.567101E-007	0.0085917	7
	25	9	3170.956	4540.86	-1431.378	1	4761.119	-17.49599	1.150581E-006	0.0072546	7
	26	9	2527.573	4629.833	-1681.079	1	4925.584	-19.95581	8.35699E-007	0.0069115	7
	27	10	1976.103	4733.437	-2014.205	1	5144.166	-23.05106	-1.098583E-006	0.0093041	7
	28	10	1577.524	4865.718	-2402.222	1	5426.406	-26.27572	1.150464E-006	0.0072549	7
	29	10	1265.625	4971.356	-2835.152	1	5722.977	-29.696	-7.569462E-007	0.008583	7
	30	11	998.264	5125.24	-3421.721	1	6162.488	-33.72793	-3.032695E-007	0.0078535	7
	31	11	796.875	5293.214	-4105.091	1	6698.499	-37.79495	-1.167571E-006	0.010483	7
	32	11	627.7902	5489.919	-5015.737	1	7436.184	-42.41566	1.15166E-006	0.0072459	7
	33	12	505.5147	5698.903	-6002.088	1	8276.628	-46.48426	1.326515E-007	0.007308	7
	34	12	397.9953	5976.151	-7355.202	1	9476.991	-50.90591	3.560044E-009	0.0088013	7
	35	12	315.5048	6297.796	-8987.163	1	10974.12	-54.97897	-8.587012E-011	0.0087365	6
	36	13	252.4038	6665.38	-10919.44	1	12793.03	-58.59953	5.381887E-011	0.0087362	6
	37	13	198.6229	7155.319	-13486.58	1	15267.17	-62.05177	-2.350606E-010	0.0087485	6
	38	13	158.3615	7737.965	-16484.54	1	18210.33	-64.85429	-4.81014E-011	0.0087418	6
	39	14	125.558	8515.75	-20256.08	1	21973.32	-67.19789	4.490557E-011	0.0087461	6
	40	14	100.4464	9451	-24679.26	1	26427.01	-69.0455	-4.839049E-010	0.0087391	6
	41	14	79.00281	10867.7	-30497.37	1	32375.87	-70.38654	-8.169517E-010	0.0087357	6
	42	15	63.3446	12482.27	-37601.32	1	39619.01	-71.6357	8.592524E-010	0.0087304	6
	43	15	49.86702	14757.11	-46193.18	1	48493.11	-72.28313	1.246329E-009	0.0087346	6
	44	16	39.72458	17921.28	-55758.82	1	58568.06	-72.18223	5.647996E-010	0.0087369	6
	45	16	31.6723	21894.64	-67551.79	1	71011.41	-72.04164	-4.702931E-010	0.0087426	6
	46	16	24.93351	27213.76	-82605.04	1	86972.3	-71.76582	5.245113E-012	0.0087411	6
	47	17	19.86229	33895.07	-99649.6	1	105256.4	-71.21464	1.190913E-009	0.0087455	6
	48	17	15.83615	43474.82	-118576.6	1	126295.2	-69.86509	1.303739E-009	0.0087439	5
	49	17	12.40079	55903.24	-142994.3	1	153533.6	-68.64713	-2.027064E-009	0.00874	5
	50	18	9.93114	70168.88	-170814.8	1	184665.5	-67.66766	2.400644E-010	0.0087417	5
	51	18	7.944915	87884.53	-200345.8	1	218774.1	-66.31466	9.418799E-010	0.0087454	5
	52	19	6.317385	111744.3	-234841	1	260071.3	-64.55352	5.713551E-010	0.0087321	5
	53	19	5.008013	140986.2	-273224.6	1	307455.3	-62.70588	2.240443E-010	0.0087403	5
	54	21	3.945707	178514.7	-316448.8	1	363328.2	-60.57184	-2.887965E-010	0.0087418	5
	55	22	3.158693	216867.3	-359592.3	1	419926.2	-58.90615	-2.473548E-010	0.0087319	5
	56	24	2.504006	264452.4	-407230	1	485563	-57.00058	5.971522E-011	0.0087327	5
	57	25	1.998082	314020.9	-456379.8	1	553978.1	-55.46934	2.376391E-011	0.0087381	5
	58	26	1.584686	372054.8	-510206.5	1	631455	-53.89957	-1.993297E-010	0.0086945	5
	59	28	1.266892	430857.5	-569525.4	1	714141	-52.89175	-2.282843E-010	0.0086952	5
	60	31	0.999041	495253.3	-640862.5	1	809926.3	-52.30345	-2.68494E-010	0.0087093	5
