EXPLAIN
TAG	EISPOT
TITLE	LABEL	Potentiostatic EIS	Test &Identifier
DATE	LABEL	11/22/2019	Date
TIME	LABEL	1:07:11	Time
NOTES	NOTES	4	&Notes...
	
	
	
	
PSTAT	PSTAT	REF600-11020	Potentiostat
VDC	POTEN	0.00000E+000	T	DC &Voltage (V)
FREQINIT	QUANT	1.00000E+006	Initial Fre&q. (Hz)
FREQFINAL	QUANT	1.00000E+000	Final Fre&q. (Hz)
PTSPERDEC	QUANT	1.00000E+001	Points/&decade
VAC	QUANT	2.50000E+001	AC &Voltage (mV rms)
AREA	QUANT	1.00000E-002	&Area (cm^2)
CONDIT	TWOPARAM	T	5.00000E+000	0.00000E+000	Conditionin&g	Time(s)	E(V)
DELAY	TWOPARAM	T	5.00000E+000	0.00000E+000	Init. De&lay	Time(s)	Stab.(mV/s)
SPEED	SELECTOR	1	&Optimize for:
ZGUESS	QUANT	1.00000E+005	E&stimated Z (ohms)
OCVCURVE	TABLE	19
	Pt	T	Vf	Vm	Ach	Over
	#	s	V vs. Ref.	V	V	bits
	0	0.258333	5.59215E-003	5.59215E-003	6.32431E-004	...........
	1	0.516667	5.59242E-003	5.60649E-003	6.28198E-004	...........
	2	0.775	5.59448E-003	5.64012E-003	6.30031E-004	...........
	3	1.03333	5.60164E-003	5.67465E-003	6.35165E-004	...........
	4	1.29167	5.61729E-003	5.71767E-003	6.30098E-004	...........
	5	1.55	5.64245E-003	5.75560E-003	6.24365E-004	...........
	6	1.80833	5.67533E-003	5.79631E-003	6.36465E-004	...........
	7	2.06667	5.70784E-003	5.57139E-003	6.36065E-004	...........
	8	2.325	5.72113E-003	5.60848E-003	6.36065E-004	...........
	9	2.58333	5.70284E-003	5.65766E-003	6.28865E-004	...........
	10	2.84167	5.67077E-003	5.75042E-003	6.26865E-004	...........
	11	3.1	5.65855E-003	5.81219E-003	6.28131E-004	...........
	12	3.35833	5.68205E-003	5.85508E-003	6.32998E-004	...........
	13	3.61667	5.73209E-003	5.90397E-003	6.27798E-004	...........
	14	3.875	5.79093E-003	5.94842E-003	6.27798E-004	...........
	15	4.13333	5.84713E-003	5.99207E-003	6.34198E-004	...........
	16	4.39167	5.89796E-003	6.04025E-003	6.31531E-004	...........
	17	4.65	5.94403E-003	6.03101E-003	6.20665E-004	...........
	18	4.90833	5.98434E-003	6.07968E-003	6.24998E-004	...........
EOC	QUANT	0.0059843	Open Circuit (V)
PSTATMODEL	IQUANT	4	Pstat Model
PSTATSECTION	LABEL	REF600-11020	Pstat Section
PSTATSERIALNO	LABEL	11020	Pstat Serial Number
CTRLMODE	IQUANT	1	Control Mode
IESTAB	IQUANT	0	I/E Stability
CASPEED	IQUANT	1	Control Amp Speed
CONVENTION	IQUANT	1	Current Convention
ICHRANGE	IQUANT	2	Ich Range
ICHRANGEMODE	TOGGLE	F	Ich Auto Range
ICHOFFSETENABLE	TOGGLE	T	Ich Offset Enable
ICHOFFSET	QUANT	0	Ich Offset (V)
ICHFILTER	IQUANT	3	Ich Filter
VCHRANGE	IQUANT	2	Vch Range
VCHRANGEMODE	TOGGLE	F	Vch Auto Range
VCHOFFSETENABLE	TOGGLE	T	Vch Offset Enable
VCHOFFSET	QUANT	0	Vch Offset (V)
VCHFILTER	IQUANT	3	Vch Filter
ACHRANGE	IQUANT	2	Ach Range
ACHOFFSETENABLE	TOGGLE	F	Ach Offset Enable
ACHOFFSET	QUANT	0	Ach Offset (V)
ACHFILTER	IQUANT	3	Ach Filter
IERANGELOWERLIMIT	IQUANT	1	I/E Range Lower Limit
IERANGEMODE	TOGGLE	F	I/E AutoRange
IERANGE	IQUANT	5	I/E Range
POSFEEDENABLE	TOGGLE	F	Positive Feedback IR Comp
POSFEEDRESISTANCE	QUANT	0	Positive Feedback Resistance (ohm)
ACHSELECT	IQUANT	0	Ach Select
CABLEID	IQUANT	14	Cable ID
DCCALDATE	LABEL	8/19/2019	DC Calibration Date
ACCALDATE	LABEL	8/19/2019	AC Calibration Date
THERMOSELECT	IQUANT	1	Thermo Select
FRAMEWORKVERSION	QUANT	6.33	Framework Version
INSTRUMENTVERSION	LABEL	3.50	Instrument Version
ZCURVE	TABLE
	Pt	Time	Freq	Zreal	Zimag	Zsig	Zmod	Zphz	Idc	Vdc	IERange
	#	s	Hz	ohm	ohm	V	ohm	°	A	V	#
	0	1	1000078	2107.536	-1448.588	1	2557.365	-34.50219	-6.854331E-006	0.0077748	8
	1	2	794390.6	2376.99	-1410.425	1	2763.943	-30.68345	1.005746E-005	0.0069838	8
	2	4	630984.4	2620.056	-1348.264	1	2946.61	-27.23006	-3.833582E-006	0.0081929	8
	3	5	501234.4	2841.343	-1283.212	1	3117.67	-24.30496	-3.409835E-006	0.0082386	8
	4	7	398109.4	3036.518	-1211.873	1	3269.415	-21.75693	7.610553E-006	0.0067718	8
	5	8	316265.6	3197.411	-1135.163	1	3392.938	-19.54616	1.660975E-006	0.0070889	8
	6	9	251203.1	3382.891	-1060.285	1	3545.16	-17.40232	-2.720521E-007	0.0072488	8
	7	11	199546.9	3515.08	-987.098	1	3651.048	-15.68569	-1.288793E-006	0.0079207	8
	8	12	158578.1	3662.857	-918.7645	1	3776.328	-14.08114	-8.477589E-007	0.0079705	8
	9	13	125953.1	3816.57	-806.23	1	3900.796	-11.92806	2.089708E-006	0.0074654	7
	10	15	100078.1	3907.759	-752.3177	1	3979.518	-10.8972	-6.101339E-007	0.0090968	7
	11	16	79453.13	4005.09	-699.4728	1	4065.711	-9.90656	-6.082665E-007	0.0090961	7
	12	18	63140.62	4091.919	-654.7143	1	4143.966	-9.090375	4.086377E-007	0.0079993	7
	13	19	50203.12	4168.655	-614.4299	1	4213.693	-8.384617	1.023961E-006	0.0067543	7
	14	20	39890.62	4236.147	-584.3129	1	4276.256	-7.853535	1.107148E-006	0.0063294	7
	15	22	31640.63	4287.733	-562.0524	1	4324.415	-7.467968	-3.252326E-007	0.006673	7
	16	23	25171.88	4345.633	-552.7264	1	4380.643	-7.2486	6.288646E-007	0.0076696	7
	17	24	20015.62	4383.315	-549.5898	1	4417.635	-7.146578	-1.062769E-006	0.0080407	7
	18	26	15890.62	4439.904	-572.366	1	4476.646	-7.345716	9.783685E-007	0.0057925	7
	19	27	12609.37	4488.433	-606.6544	1	4529.245	-7.697423	1.111363E-006	0.0063338	7
	20	29	10078.13	4523.341	-653.7604	1	4570.341	-8.224035	-1.096306E-006	0.0091367	7
	21	30	8015.625	4565.225	-724.6921	1	4622.387	-9.019974	-6.108778E-007	0.0090954	7
	22	31	6328.125	4610.583	-818.8791	1	4682.739	-10.0712	-1.097144E-006	0.009135	7
	23	33	5015.625	4664.849	-944.2944	1	4759.465	-11.44361	1.030912E-006	0.0067462	7
	24	34	3984.375	4711.342	-1105.863	1	4839.388	-13.20954	7.704604E-007	0.0057147	7
	25	35	3170.956	4776.403	-1301.614	1	4950.578	-15.24349	1.030874E-006	0.0067532	7
	26	37	2527.573	4831.782	-1542.906	1	5072.147	-17.70955	-7.45368E-007	0.0073569	7
	27	38	1976.103	4916.459	-1870.325	1	5260.199	-20.82787	-1.22406E-006	0.0086007	7
	28	39	1577.524	5017.641	-2241.422	1	5495.516	-24.07072	-7.459728E-007	0.007353	7
	29	41	1265.625	5111.555	-2697.764	1	5779.786	-27.82409	6.345622E-007	0.0076611	7
	30	42	998.264	5246.375	-3294.042	1	6194.77	-32.12348	1.030568E-006	0.0067448	7
	31	44	796.875	5393.82	-3981.925	1	6704.403	-36.43617	-6.073273E-007	0.0090744	7
	32	45	627.7902	5587.461	-4883.848	1	7421.03	-41.15583	-1.090759E-006	0.0091185	7
	33	47	505.5147	5809.169	-5888.156	1	8271.446	-45.38689	-1.226791E-006	0.0089495	7
	34	48	397.9953	6112.353	-7255.753	1	9487.192	-49.88872	7.094044E-009	0.007503	7
	35	49	315.5048	6492.666	-8880.748	1	11001.02	-53.82967	1.022398E-009	0.0074399	6
	36	51	252.4038	6953.407	-10787.63	1	12834.44	-57.1953	1.495613E-009	0.0074403	6
	37	52	198.6229	7597.564	-13292.34	1	15310.43	-60.24881	7.623272E-010	0.0074603	6
	38	53	158.3615	8386.991	-16175.61	1	18220.64	-62.59343	5.83009E-010	0.0074454	6
	39	55	125.558	9459.708	-19756.68	1	21904.62	-64.41441	6.283183E-010	0.0074572	6
	40	56	100.4464	10809.31	-23882.16	1	26214.47	-65.64799	4.262603E-010	0.0074426	6
	41	57	79.00281	12713.25	-29225.28	1	31870.74	-66.49054	4.561312E-010	0.0074387	6
	42	59	63.3446	14859.57	-35297.72	1	38297.99	-67.16997	3.798139E-010	0.0074543	6
	43	60	49.86702	18471.72	-42314.7	1	46170.75	-66.41718	4.266157E-011	0.0074418	6
	44	62	39.72458	22722.43	-50708.38	1	55566.62	-65.86285	1.088693E-009	0.0074491	6
	45	63	31.6723	28135.34	-60138.59	1	66394.63	-64.92785	5.445668E-010	0.0074496	6
	46	64	24.93351	35175.54	-71203.66	1	79418.38	-63.71003	3.127228E-010	0.0074346	6
	47	66	19.86229	43598.34	-82788.57	1	93566.89	-62.22769	1.145204E-009	0.0074466	6
	48	67	15.83615	53667.46	-96256.5	1	110206.7	-60.85831	-1.605273E-009	0.007459	5
	49	68	12.40079	65346.09	-110866.5	1	128691.4	-59.48437	-4.721879E-012	0.0074577	5
	50	70	9.93114	79038.34	-125341.5	1	148180.8	-57.76513	-3.654274E-010	0.0074476	5
	51	71	7.944915	93262.81	-141283.5	1	169289.6	-56.57075	1.304939E-009	0.0074462	5
	52	73	6.317385	109936.1	-160064	1	194181.5	-55.51772	5.226694E-010	0.0074606	5
	53	75	5.008013	128161.8	-181307.2	1	222031	-54.7444	4.795512E-010	0.0074576	5
	54	78	3.945707	148668.3	-206345.3	1	254323.9	-54.22789	-2.998749E-010	0.00745	5
	55	80	3.158693	169856.2	-233185.4	1	288490.1	-53.92976	2.954016E-010	0.0074503	5
	56	84	2.504006	194147.9	-265795.2	1	329151.2	-53.85406	-2.897449E-010	0.0074534	5
	57	86	1.998082	219632.3	-302158.6	1	373548.1	-53.98744	2.882093E-010	0.0074099	5
	58	89	1.584686	249540.2	-347486.3	1	427804.9	-54.31676	-8.690918E-011	0.0074104	5
	59	93	1.266892	281451.3	-397100	1	486727.1	-54.67225	2.563631E-010	0.0074127	5
	60	97	0.999041	319769.3	-460637.9	1	560749.2	-55.23209	-1.904967E-010	0.0074617	5
