EXPLAIN
TAG	EISPOT
TITLE	LABEL	Potentiostatic IDE	Test &Identifier
DATE	LABEL	9/6/2019	Date
TIME	LABEL	6:54:41	Time
NOTES	NOTES	1	&Notes...
	
PSTAT	PSTAT	REF600-11020	Potentiostat
VDC	POTEN	0.00000E+000	T	DC &Voltage (V)
FREQINIT	QUANT	1.00000E+006	Initial Fre&q. (Hz)
FREQFINAL	QUANT	1.00000E+000	Final Fre&q. (Hz)
PTSPERDEC	QUANT	1.00000E+001	Points/&decade
VAC	QUANT	2.50000E+001	AC &Voltage (mV rms)
AREA	QUANT	1.00000E-002	&Area (cm^2)
CONDIT	TWOPARAM	T	5.00000E+000	0.00000E+000	Conditionin&g	Time(s)	E(V)
DELAY	TWOPARAM	T	5.00000E+000	0.00000E+000	Init. De&lay	Time(s)	Stab.(mV/s)
SPEED	SELECTOR	1	&Optimize for:
ZGUESS	QUANT	1.00000E+007	E&stimated Z (ohms)
OCVCURVE	TABLE	19
	Pt	T	Vf	Vm	Ach	Over
	#	s	V vs. Ref.	V	V	bits
	0	0.258333	9.93903E-003	9.93903E-003	5.75465E-004	...........
	1	0.516667	9.94171E-003	1.00795E-002	5.73632E-004	...........
	2	0.775	9.95795E-003	1.02007E-002	5.80132E-004	...........
	3	1.03333	1.00041E-002	1.03684E-002	5.80099E-004	...........
	4	1.29167	1.00891E-002	1.05051E-002	5.77899E-004	...........
	5	1.55	1.02063E-002	1.05856E-002	5.82332E-004	...........
	6	1.80833	1.03395E-002	1.08080E-002	5.78099E-004	...........
	7	2.06667	1.04798E-002	1.10223E-002	5.81332E-004	...........
	8	2.325	1.06320E-002	1.11502E-002	5.76799E-004	...........
	9	2.58333	1.07992E-002	1.13270E-002	5.78966E-004	...........
	10	2.84167	1.09715E-002	1.14173E-002	5.78632E-004	...........
	11	3.1	1.11354E-002	1.15601E-002	5.73166E-004	...........
	12	3.35833	1.12845E-002	1.17025E-002	5.73032E-004	...........
	13	3.61667	1.14218E-002	1.18168E-002	5.75299E-004	...........
	14	3.875	1.15531E-002	1.19266E-002	5.72932E-004	...........
	15	4.13333	1.16808E-002	1.20754E-002	5.76232E-004	...........
	16	4.39167	1.18063E-002	1.22089E-002	5.74899E-004	...........
	17	4.65	1.19331E-002	1.23440E-002	5.74532E-004	...........
	18	4.90833	1.20637E-002	1.24695E-002	5.78032E-004	...........
EOC	QUANT	0.0120637	Open Circuit (V)
PSTATMODEL	IQUANT	4	Pstat Model
PSTATSECTION	LABEL	REF600-11020	Pstat Section
PSTATSERIALNO	LABEL	11020	Pstat Serial Number
CTRLMODE	IQUANT	1	Control Mode
IESTAB	IQUANT	0	I/E Stability
CASPEED	IQUANT	1	Control Amp Speed
CONVENTION	IQUANT	1	Current Convention
ICHRANGE	IQUANT	2	Ich Range
ICHRANGEMODE	TOGGLE	F	Ich Auto Range
ICHOFFSETENABLE	TOGGLE	T	Ich Offset Enable
ICHOFFSET	QUANT	0	Ich Offset (V)
ICHFILTER	IQUANT	3	Ich Filter
VCHRANGE	IQUANT	2	Vch Range
VCHRANGEMODE	TOGGLE	F	Vch Auto Range
VCHOFFSETENABLE	TOGGLE	T	Vch Offset Enable
VCHOFFSET	QUANT	0	Vch Offset (V)
VCHFILTER	IQUANT	3	Vch Filter
ACHRANGE	IQUANT	2	Ach Range
ACHOFFSETENABLE	TOGGLE	F	Ach Offset Enable
ACHOFFSET	QUANT	0	Ach Offset (V)
ACHFILTER	IQUANT	3	Ach Filter
IERANGELOWERLIMIT	IQUANT	1	I/E Range Lower Limit
IERANGEMODE	TOGGLE	F	I/E AutoRange
IERANGE	IQUANT	3	I/E Range
POSFEEDENABLE	TOGGLE	F	Positive Feedback IR Comp
POSFEEDRESISTANCE	QUANT	0	Positive Feedback Resistance (ohm)
ACHSELECT	IQUANT	0	Ach Select
CABLEID	IQUANT	14	Cable ID
DCCALDATE	LABEL	8/19/2019	DC Calibration Date
ACCALDATE	LABEL	8/19/2019	AC Calibration Date
THERMOSELECT	IQUANT	1	Thermo Select
FRAMEWORKVERSION	QUANT	6.33	Framework Version
INSTRUMENTVERSION	LABEL	3.50	Instrument Version
ZCURVE	TABLE
	Pt	Time	Freq	Zreal	Zimag	Zsig	Zmod	Zphz	Idc	Vdc	IERange
	#	s	Hz	ohm	ohm	V	ohm	°	A	V	#
	0	2	1000078	2536.689	-1455.615	1	2924.655	-29.84827	5.410736E-006	0.0135531	8
	1	3	794390.6	2804.583	-1317.608	1	3098.673	-25.16438	-4.505619E-006	0.0145959	8
	2	4	630984.4	3013.347	-1171.021	1	3232.886	-21.23669	2.596455E-006	0.0135873	8
	3	6	501234.4	3185.404	-1017.677	1	3344.019	-17.7177	6.883589E-007	0.0135373	8
	4	7	398109.4	3296.28	-875.5892	1	3410.589	-14.87592	2.03758E-007	0.013632	8
	5	8	316265.6	3384.608	-750.881	1	3466.9	-12.50857	2.543808E-007	0.0135944	8
	6	10	251203.1	3460.145	-656.9171	1	3521.951	-10.74981	-4.410633E-007	0.0138934	8
	7	11	199546.9	3499.289	-567.6628	1	3545.033	-9.214387	-1.954628E-006	0.0140826	8
	8	12	158578.1	3545.117	-513.2639	1	3582.08	-8.238071	5.444722E-007	0.0135506	8
	9	14	125953.1	3601.755	-441.5441	1	3628.719	-6.989096	4.106203E-007	0.0125937	7
	10	15	100078.1	3631.881	-413.7737	1	3655.375	-6.499582	3.406013E-008	0.0136442	7
	11	16	79453.13	3667.493	-403.1247	1	3689.582	-6.272675	-3.676053E-008	0.0136906	7
	12	18	63140.62	3704.569	-400.9562	1	3726.205	-6.177242	4.998883E-008	0.0135334	7
	13	19	50203.12	3743.131	-405.412	1	3765.021	-6.18151	3.495239E-008	0.0136323	7
	14	20	39890.62	3783.504	-417.9524	1	3806.519	-6.303735	1.242364E-010	0.0136472	7
	15	22	31640.63	3826.327	-437.4878	1	3851.257	-6.522658	-2.064891E-008	0.0136976	7
	16	23	25171.88	3870.482	-464.0712	1	3898.204	-6.837131	5.062016E-008	0.0135253	7
	17	24	20015.62	3917.179	-499.5052	1	3948.899	-7.266942	5.134214E-008	0.0135234	7
	18	26	15890.62	3966.927	-543.5957	1	4003.998	-7.802755	-1.218371E-008	0.0136235	7
	19	27	12609.37	4018.454	-600.1577	1	4063.024	-8.494362	-3.418673E-008	0.0136831	7
	20	28	10078.13	4071.057	-666.7263	1	4125.292	-9.300893	-3.52385E-010	0.0136431	7
	21	30	8015.625	4127.042	-750.0386	1	4194.644	-10.30037	3.609943E-008	0.0136196	7
	22	31	6328.125	4188.127	-856.9321	1	4274.896	-11.56367	1.716092E-008	0.0136135	7
	23	32	5015.625	4253.286	-987.936	1	4366.516	-13.07655	-2.460415E-008	0.0136602	7
	24	34	3984.375	4322.642	-1147.461	1	4472.348	-14.86651	3.380539E-008	0.013536	7
	25	35	3170.956	4398.65	-1343.353	1	4599.208	-16.98273	-1.125702E-008	0.0136125	7
	26	36	2527.573	4482.56	-1579.645	1	4752.749	-19.41236	-7.134574E-009	0.0136628	7
	27	38	1976.103	4587.19	-1897.941	1	4964.322	-22.47723	1.449961E-008	0.013566	7
	28	39	1577.524	4699.525	-2256.577	1	5213.221	-25.64899	1.795322E-008	0.0136122	7
	29	40	1265.625	4827.143	-2683.267	1	5522.792	-29.0684	8.029296E-008	0.0135089	7
	30	42	998.264	4987.013	-3240.671	1	5947.457	-33.0167	-2.709303E-008	0.013693	7
	31	43	796.875	5169.616	-3881.403	1	6464.536	-36.89962	3.220295E-008	0.0135253	7
	32	44	627.7902	5399.961	-4717.377	1	7170.301	-41.14029	8.136239E-008	0.0135052	7
	33	46	505.5147	5659.922	-5632.4	1	7984.901	-44.86036	-2.677165E-008	0.0136952	7
	34	47	397.9953	5990.961	-6857.015	1	9105.508	-48.85635	5.586552E-009	0.0136433	7
	35	48	315.5048	6389.047	-8305.62	1	10478.7	-52.43094	9.536287E-010	0.0135822	6
	36	50	252.4038	6849.586	-9989.67	1	12112.4	-55.56285	7.984149E-010	0.0135736	6
	37	51	198.6229	7447.096	-12183.3	1	14279.08	-58.56446	1.005535E-009	0.0135753	6
	38	52	158.3615	8132.32	-14698.51	1	16798.24	-61.04534	1.062981E-009	0.0135762	6
	39	54	125.558	8978.489	-17821.22	1	19955.18	-63.26063	1.068829E-009	0.0135764	6
	40	55	100.4464	9952.73	-21446.12	1	23643.03	-65.1049	1.193558E-009	0.0135758	6
	41	56	79.00281	11223.53	-26185.48	1	28489.42	-66.79922	6.014596E-010	0.0135759	6
	42	58	63.3446	12721.88	-31490.59	1	33963.26	-68.00179	6.723511E-010	0.0135693	6
	43	59	49.86702	14472.85	-38528.76	1	41157.37	-69.41194	4.7475E-010	0.0135713	6
	44	60	39.72458	16751.58	-46602.37	1	49521.67	-70.22864	9.959082E-010	0.0135751	6
	45	62	31.6723	19429.79	-56417.19	1	59669.22	-70.99655	9.059967E-010	0.0135741	6
	46	63	24.93351	23116.18	-68957.67	1	72729.08	-71.46767	9.108291E-010	0.0135687	6
	47	64	19.86229	27537.81	-83463.24	1	87888.81	-71.74024	7.686708E-010	0.013577	6
	48	66	15.83615	33117.19	-101038.2	1	106327.2	-71.85246	-1.662335E-010	0.0135728	5
	49	67	12.40079	40994.51	-123488.4	1	130115.1	-71.63535	1.387208E-010	0.0135724	5
	50	68	9.93114	49989.4	-148025.4	1	156238.5	-71.33974	2.267302E-010	0.0135753	5
	51	70	7.944915	61637.41	-177052	1	187474.3	-70.80538	-5.297036E-011	0.013572	5
	52	71	6.317385	76970.98	-212562.9	1	226069.7	-70.09422	8.936506E-011	0.0135836	5
	53	73	5.008013	96512.4	-254242.8	1	271944.9	-69.21288	2.829789E-010	0.0135776	5
	54	76	3.945707	121849.9	-304451.2	1	327929.8	-68.18732	4.209601E-011	0.0135738	5
	55	78	3.158693	151117.7	-358386.6	1	388944.1	-67.13673	2.721943E-010	0.0135923	5
	56	81	2.504006	189327.2	-423009.3	1	463445.4	-65.88804	-1.167977E-010	0.0135807	5
	57	84	1.998082	233499	-492055.9	1	544647.4	-64.6139	2.525594E-010	0.0135389	5
	58	87	1.584686	287636.6	-575849.6	1	643690.6	-63.45789	-4.428891E-011	0.0135355	5
	59	91	1.266892	350010.3	-662050.6	1	748878	-62.13566	1.719253E-010	0.0135361	5
	60	95	0.999041	426125.5	-770075.1	1	880112.9	-61.0418	-1.655774E-010	0.0135847	5
