EXPLAIN
TAG	EISPOT
TITLE	LABEL	Potentiostatic EIS	Test &Identifier
DATE	LABEL	10/8/2019	Date
TIME	LABEL	9:17:14	Time
NOTES	NOTES	2	&Notes...
	
	
PSTAT	PSTAT	REF600-11020	Potentiostat
VDC	POTEN	0.00000E+000	T	DC &Voltage (V)
FREQINIT	QUANT	1.00000E+006	Initial Fre&q. (Hz)
FREQFINAL	QUANT	1.00000E+000	Final Fre&q. (Hz)
PTSPERDEC	QUANT	1.00000E+001	Points/&decade
VAC	QUANT	2.50000E+001	AC &Voltage (mV rms)
AREA	QUANT	1.00000E-002	&Area (cm^2)
CONDIT	TWOPARAM	T	5.00000E+000	0.00000E+000	Conditionin&g	Time(s)	E(V)
DELAY	TWOPARAM	T	5.00000E+000	0.00000E+000	Init. De&lay	Time(s)	Stab.(mV/s)
SPEED	SELECTOR	1	&Optimize for:
ZGUESS	QUANT	1.00000E+004	E&stimated Z (ohms)
OCVCURVE	TABLE	19
	Pt	T	Vf	Vm	Ach	Over
	#	s	V vs. Ref.	V	V	bits
	0	0.258333	5.28378E-003	5.28378E-003	5.55666E-004	...........
	1	0.516667	5.28121E-003	5.14917E-003	5.62099E-004	...........
	2	0.775	5.26641E-003	5.07381E-003	5.58866E-004	...........
	3	1.03333	5.22779E-003	4.99645E-003	5.51299E-004	...........
	4	1.29167	5.16484E-003	4.93066E-003	5.57799E-004	...........
	5	1.55	5.08920E-003	4.87654E-003	5.59399E-004	...........
	6	1.80833	5.01394E-003	4.84328E-003	5.53399E-004	...........
	7	2.06667	4.94728E-003	4.80238E-003	5.53566E-004	...........
	8	2.325	4.89233E-003	4.78768E-003	5.56899E-004	...........
	9	2.58333	4.84865E-003	4.75429E-003	5.53333E-004	...........
	10	2.84167	4.81448E-003	4.76271E-003	5.61266E-004	...........
	11	3.1	4.78948E-003	4.79304E-003	5.57766E-004	...........
	12	3.35833	4.77646E-003	4.82138E-003	5.65832E-004	...........
	13	3.61667	4.77676E-003	4.76581E-003	5.63566E-004	...........
	14	3.875	4.78319E-003	4.75378E-003	5.57499E-004	...........
	15	4.13333	4.78520E-003	4.79722E-003	5.57599E-004	...........
	16	4.39167	4.78263E-003	4.83231E-003	5.71032E-004	...........
	17	4.65	4.78586E-003	4.87352E-003	5.58599E-004	...........
	18	4.90833	4.80164E-003	4.86141E-003	5.63432E-004	...........
EOC	QUANT	0.0048016	Open Circuit (V)
PSTATMODEL	IQUANT	4	Pstat Model
PSTATSECTION	LABEL	REF600-11020	Pstat Section
PSTATSERIALNO	LABEL	11020	Pstat Serial Number
CTRLMODE	IQUANT	1	Control Mode
IESTAB	IQUANT	0	I/E Stability
CASPEED	IQUANT	1	Control Amp Speed
CONVENTION	IQUANT	1	Current Convention
ICHRANGE	IQUANT	2	Ich Range
ICHRANGEMODE	TOGGLE	F	Ich Auto Range
ICHOFFSETENABLE	TOGGLE	T	Ich Offset Enable
ICHOFFSET	QUANT	0	Ich Offset (V)
ICHFILTER	IQUANT	3	Ich Filter
VCHRANGE	IQUANT	2	Vch Range
VCHRANGEMODE	TOGGLE	F	Vch Auto Range
VCHOFFSETENABLE	TOGGLE	T	Vch Offset Enable
VCHOFFSET	QUANT	0	Vch Offset (V)
VCHFILTER	IQUANT	3	Vch Filter
ACHRANGE	IQUANT	2	Ach Range
ACHOFFSETENABLE	TOGGLE	F	Ach Offset Enable
ACHOFFSET	QUANT	0	Ach Offset (V)
ACHFILTER	IQUANT	3	Ach Filter
IERANGELOWERLIMIT	IQUANT	1	I/E Range Lower Limit
IERANGEMODE	TOGGLE	F	I/E AutoRange
IERANGE	IQUANT	5	I/E Range
POSFEEDENABLE	TOGGLE	F	Positive Feedback IR Comp
POSFEEDRESISTANCE	QUANT	0	Positive Feedback Resistance (ohm)
ACHSELECT	IQUANT	0	Ach Select
CABLEID	IQUANT	14	Cable ID
DCCALDATE	LABEL	8/19/2019	DC Calibration Date
ACCALDATE	LABEL	8/19/2019	AC Calibration Date
THERMOSELECT	IQUANT	1	Thermo Select
FRAMEWORKVERSION	QUANT	6.33	Framework Version
INSTRUMENTVERSION	LABEL	3.50	Instrument Version
ZCURVE	TABLE
	Pt	Time	Freq	Zreal	Zimag	Zsig	Zmod	Zphz	Idc	Vdc	IERange
	#	s	Hz	ohm	ohm	V	ohm	°	A	V	#
	0	2	1000078	2496.117	-1594.226	1	2961.782	-32.56566	-5.417029E-006	0.0079953	8
	1	4	794390.6	2816.753	-1514.736	1	3198.207	-28.26957	7.159076E-006	0.005681	8
	2	5	630984.4	3088.35	-1353.382	1	3371.876	-23.66408	-1.612942E-006	0.0066094	8
	3	6	501234.4	3286.536	-1202.196	1	3499.513	-20.09222	2.421339E-007	0.0065124	8
	4	8	398109.4	3453.364	-1044.66	1	3607.913	-16.83082	2.825256E-006	0.0057586	8
	5	9	316265.6	3580.372	-896.9532	1	3691.014	-14.06426	-3.232516E-006	0.0070263	8
	6	10	251203.1	3673.709	-771.3217	1	3753.808	-11.85743	-9.223241E-007	0.0065632	8
	7	12	199546.9	3751.347	-667.493	1	3810.269	-10.08929	1.097482E-006	0.0060785	8
	8	13	158578.1	3808.979	-574.5726	1	3852.072	-8.578213	2.670805E-006	0.0057621	8
	9	15	125953.1	3863.919	-455.0337	1	3890.62	-6.716491	5.952807E-007	0.0050022	7
	10	16	100078.1	3894.468	-412.4671	1	3916.249	-6.045717	-1.274939E-008	0.0064477	7
	11	17	79453.13	3925.275	-382.1766	1	3943.836	-5.560962	8.295581E-008	0.0061247	7
	12	19	63140.62	3954.33	-360.8023	1	3970.756	-5.213366	-3.143318E-008	0.0062963	7
	13	20	50203.12	3981.229	-349.4654	1	3996.537	-5.016468	-1.254001E-008	0.0064318	7
	14	21	39890.62	4008.527	-346.9057	1	4023.51	-4.946165	8.728517E-009	0.0062279	7
	15	23	31640.63	4037.036	-355.3251	1	4052.643	-5.030003	-3.903113E-008	0.0063187	7
	16	24	25171.88	4065.314	-370.3933	1	4082.153	-5.205881	-3.964837E-008	0.0063746	7
	17	25	20015.62	4093.491	-397.9701	1	4112.791	-5.552857	8.379967E-008	0.0061218	7
	18	27	15890.62	4125.104	-433.2001	1	4147.788	-5.994974	1.390338E-007	0.006083	7
	19	28	12609.37	4157.542	-480.9617	1	4185.269	-6.598882	-5.324952E-009	0.0063056	7
	20	29	10078.13	4194.19	-541.9731	1	4229.062	-7.362958	-5.846033E-008	0.0064766	7
	21	31	8015.625	4230.8	-616.4788	1	4275.479	-8.290343	-2.503854E-008	0.0062764	7
	22	32	6328.125	4275.473	-718.3598	1	4335.402	-9.53768	8.716031E-009	0.0062217	7
	23	34	5015.625	4320.834	-840.8834	1	4401.897	-11.01275	-7.059549E-009	0.0064239	7
	24	35	3984.375	4380.494	-983.167	1	4489.47	-12.64995	9.423548E-008	0.0062245	7
	25	36	3170.956	4427.093	-1174.406	1	4580.216	-14.85705	-4.953568E-008	0.006327	7
	26	38	2527.573	4491.393	-1397.892	1	4703.903	-17.28812	9.372134E-008	0.0062261	7
	27	39	1976.103	4570.074	-1696.987	1	4874.971	-20.37127	1.414638E-007	0.0060724	7
	28	40	1577.524	4654.289	-2038.441	1	5081.107	-23.652	6.556127E-008	0.0061726	7
	29	42	1265.625	4748.417	-2437.874	1	5337.667	-27.17632	1.083349E-008	0.0062156	7
	30	43	998.264	4867.046	-2969.502	1	5701.41	-31.38837	-1.009938E-008	0.0062505	7
	31	44	796.875	4997.914	-3589.51	1	6153.351	-35.68597	6.480177E-008	0.0061852	7
	32	46	627.7902	5158.009	-4398.827	1	6778.992	-40.45803	-2.038724E-008	0.0063449	7
	33	47	505.5147	5332.292	-5304.683	1	7521.502	-44.85128	6.394806E-008	0.0061864	7
	34	49	397.9953	5562.359	-6521.538	1	8571.481	-49.53843	5.038729E-009	0.006303	7
	35	50	315.5048	5832.48	-7994.209	1	9895.72	-53.88595	5.641477E-009	0.0062979	7
	36	51	252.4038	6154.333	-9735.96	1	11518.02	-57.70205	1.322898E-009	0.0062366	6
	37	53	198.6229	6581.412	-12044.83	1	13725.63	-61.34738	9.397056E-010	0.0062332	6
	38	54	158.3615	7094.123	-14743.59	1	16361.54	-64.3047	1.154737E-009	0.0062357	6
	39	55	125.558	7774.292	-18141.01	1	19736.66	-66.80254	9.509313E-010	0.0062351	6
	40	57	100.4464	8627.639	-22142.42	1	23763.9	-68.71198	3.387618E-010	0.0062344	6
	41	58	79.00281	9842.73	-27393.42	1	29108.05	-70.23612	1.009579E-009	0.0062369	6
	42	60	63.3446	11105.96	-33451.06	1	35246.5	-71.63352	5.573362E-010	0.0062288	6
	43	61	49.86702	13351.49	-40997.72	1	43117	-71.96143	6.275015E-010	0.0062306	6
	44	62	39.72458	15964.68	-50114.2	1	52595.66	-72.32989	8.765596E-010	0.0062325	6
	45	64	31.6723	19596.84	-60836.5	1	63914.91	-72.14505	7.37895E-010	0.0062316	6
	46	65	24.93351	24341.41	-74459.6	1	78337.33	-71.89703	8.283512E-010	0.006232	6
	47	67	19.86229	30466.08	-89779.18	1	94807.61	-71.25563	3.172458E-010	0.0062419	6
	48	68	15.83615	38956.72	-107883.4	1	114701.6	-70.14534	-9.568907E-010	0.0062363	5
	49	69	12.40079	48984.02	-130324.4	1	139226	-69.40066	2.201557E-010	0.0062357	5
	50	71	9.93114	62539.62	-154024.5	1	166237	-67.90103	9.101027E-010	0.006228	5
	51	72	7.944915	78883.39	-181546.1	1	197943.3	-66.51463	-2.904005E-010	0.0062288	5
	52	74	6.317385	99577.4	-212524.8	1	234696.5	-64.89481	5.583405E-010	0.0062166	5
	53	76	5.008013	125622.2	-247701.3	1	277735.2	-63.10807	1.158685E-010	0.006238	5
	54	79	3.945707	157579.3	-287119.1	1	327518.9	-61.24074	-1.84768E-010	0.0062307	5
	55	81	3.158693	192613.7	-326987	1	379500.4	-59.49952	3.480569E-010	0.0062496	5
	56	85	2.504006	234352.7	-372027.7	1	439688.3	-57.79181	-3.027335E-010	0.00623	5
	57	87	1.998082	278705.2	-417714	1	502156.9	-56.28818	-1.281506E-010	0.006215	5
	58	91	1.584686	328883	-468508.9	1	572420	-54.93198	3.613412E-011	0.0062796	5
	59	94	1.266892	378783.6	-525417.4	1	647719.4	-54.21144	-1.193972E-010	0.0062273	5
	60	99	0.999041	436983.5	-593558.6	1	737066.1	-53.63914	3.126986E-010	0.0062645	5
