EXPLAIN
TAG	EISPOT
TITLE	LABEL	Potentiostatic EIS	Test &Identifier
DATE	LABEL	10/4/2019	Date
TIME	LABEL	8:33:46	Time
NOTES	NOTES	2	&Notes...
	
	
PSTAT	PSTAT	REF600-11020	Potentiostat
VDC	POTEN	0.00000E+000	T	DC &Voltage (V)
FREQINIT	QUANT	1.00000E+006	Initial Fre&q. (Hz)
FREQFINAL	QUANT	1.00000E+000	Final Fre&q. (Hz)
PTSPERDEC	QUANT	1.00000E+001	Points/&decade
VAC	QUANT	2.50000E+001	AC &Voltage (mV rms)
AREA	QUANT	1.00000E-002	&Area (cm^2)
CONDIT	TWOPARAM	T	5.00000E+000	0.00000E+000	Conditionin&g	Time(s)	E(V)
DELAY	TWOPARAM	T	5.00000E+000	0.00000E+000	Init. De&lay	Time(s)	Stab.(mV/s)
SPEED	SELECTOR	1	&Optimize for:
ZGUESS	QUANT	1.00000E+004	E&stimated Z (ohms)
OCVCURVE	TABLE	19
	Pt	T	Vf	Vm	Ach	Over
	#	s	V vs. Ref.	V	V	bits
	0	0.258333	5.08469E-003	5.08469E-003	5.50299E-004	...........
	1	0.516667	5.08545E-003	5.12427E-003	5.45099E-004	...........
	2	0.775	5.09000E-003	5.15698E-003	5.48766E-004	...........
	3	1.03333	5.10293E-003	5.20745E-003	5.45366E-004	...........
	4	1.29167	5.12709E-003	5.25700E-003	5.46699E-004	...........
	5	1.55	5.16199E-003	5.30521E-003	5.45433E-004	...........
	6	1.80833	5.20486E-003	5.35750E-003	5.43799E-004	...........
	7	2.06667	5.25240E-003	5.40771E-003	5.45766E-004	...........
	8	2.325	5.30198E-003	5.44849E-003	5.45833E-004	...........
	9	2.58333	5.35097E-003	5.46446E-003	5.44433E-004	...........
	10	2.84167	5.39641E-003	5.52783E-003	5.45366E-004	...........
	11	3.1	5.43821E-003	5.58707E-003	5.49466E-004	...........
	12	3.35833	5.48081E-003	5.64227E-003	5.46033E-004	...........
	13	3.61667	5.52845E-003	5.69618E-003	5.45666E-004	...........
	14	3.875	5.58108E-003	5.75113E-003	5.46099E-004	...........
	15	4.13333	5.63608E-003	5.80448E-003	5.40899E-004	...........
	16	4.39167	5.69128E-003	5.85353E-003	5.46533E-004	...........
	17	4.65	5.75171E-003	6.22893E-003	5.46399E-004	...........
	18	4.90833	5.84669E-003	6.80285E-003	5.52232E-004	...........
EOC	QUANT	0.0058467	Open Circuit (V)
PSTATMODEL	IQUANT	4	Pstat Model
PSTATSECTION	LABEL	REF600-11020	Pstat Section
PSTATSERIALNO	LABEL	11020	Pstat Serial Number
CTRLMODE	IQUANT	1	Control Mode
IESTAB	IQUANT	0	I/E Stability
CASPEED	IQUANT	1	Control Amp Speed
CONVENTION	IQUANT	1	Current Convention
ICHRANGE	IQUANT	2	Ich Range
ICHRANGEMODE	TOGGLE	F	Ich Auto Range
ICHOFFSETENABLE	TOGGLE	T	Ich Offset Enable
ICHOFFSET	QUANT	0	Ich Offset (V)
ICHFILTER	IQUANT	3	Ich Filter
VCHRANGE	IQUANT	2	Vch Range
VCHRANGEMODE	TOGGLE	F	Vch Auto Range
VCHOFFSETENABLE	TOGGLE	T	Vch Offset Enable
VCHOFFSET	QUANT	0	Vch Offset (V)
VCHFILTER	IQUANT	3	Vch Filter
ACHRANGE	IQUANT	2	Ach Range
ACHOFFSETENABLE	TOGGLE	F	Ach Offset Enable
ACHOFFSET	QUANT	0	Ach Offset (V)
ACHFILTER	IQUANT	3	Ach Filter
IERANGELOWERLIMIT	IQUANT	1	I/E Range Lower Limit
IERANGEMODE	TOGGLE	F	I/E AutoRange
IERANGE	IQUANT	6	I/E Range
POSFEEDENABLE	TOGGLE	F	Positive Feedback IR Comp
POSFEEDRESISTANCE	QUANT	0	Positive Feedback Resistance (ohm)
ACHSELECT	IQUANT	0	Ach Select
CABLEID	IQUANT	14	Cable ID
DCCALDATE	LABEL	8/19/2019	DC Calibration Date
ACCALDATE	LABEL	8/19/2019	AC Calibration Date
THERMOSELECT	IQUANT	1	Thermo Select
FRAMEWORKVERSION	QUANT	6.33	Framework Version
INSTRUMENTVERSION	LABEL	3.50	Instrument Version
ZCURVE	TABLE
	Pt	Time	Freq	Zreal	Zimag	Zsig	Zmod	Zphz	Idc	Vdc	IERange
	#	s	Hz	ohm	ohm	V	ohm	°	A	V	#
	0	1	1000078	1729.205	-473.7699	1	1792.932	-15.32198	-5.162866E-006	0.0084195	8
	1	2	794390.6	1784.243	-410.7031	1	1830.901	-12.96275	-1.041551E-006	0.0082006	8
	2	3	630984.4	1826.25	-351.7676	1	1859.819	-10.90264	1.715599E-006	0.0073428	8
	3	5	501234.4	1858.496	-299.9151	1	1882.54	-9.167084	-7.83888E-007	0.0074288	8
	4	6	398109.4	1884.242	-258.4187	1	1901.88	-7.809244	-9.532579E-007	0.0073508	8
	5	8	316265.6	1904.941	-227.6515	1	1918.495	-6.814858	6.988752E-007	0.0073234	8
	6	9	251203.1	1924.269	-202.5264	1	1934.897	-6.008176	3.466486E-006	0.0067253	8
	7	10	199546.9	1939.128	-185.751	1	1948.004	-5.471726	-5.425076E-007	0.0073543	8
	8	12	158578.1	1956.083	-171.9211	1	1963.623	-5.022849	4.123797E-006	0.0064548	8
	9	13	125953.1	1977.574	-138.9447	1	1982.449	-4.019006	-2.042907E-007	0.0084329	7
	10	14	100078.1	1990.734	-132.8771	1	1995.164	-3.818703	8.153967E-008	0.00725	7
	11	16	79453.13	2004.44	-138.1892	1	2009.198	-3.94382	-1.528299E-008	0.0073176	7
	12	17	63140.62	2019.135	-146.0185	1	2024.408	-4.136277	-7.068582E-008	0.0074086	7
	13	18	50203.12	2035.187	-155.9272	1	2041.151	-4.381196	-2.313401E-008	0.0073734	7
	14	20	39890.62	2052.91	-167.8507	1	2059.76	-4.674239	-3.601697E-008	0.0073188	7
	15	21	31640.63	2071.162	-182.4519	1	2079.183	-5.034278	-6.048747E-008	0.0073919	7
	16	23	25171.88	2089.7	-200.2299	1	2099.271	-5.473232	-6.29263E-009	0.0072689	7
	17	24	20015.62	2108.987	-222.5564	1	2120.698	-6.023992	-2.993176E-008	0.0073106	7
	18	25	15890.62	2129.122	-250.2262	1	2143.775	-6.702969	-5.959673E-008	0.0074263	7
	19	27	12609.37	2150.256	-284.6425	1	2169.014	-7.540749	4.56801E-008	0.007221	7
	20	28	10078.13	2172.067	-325.6073	1	2196.337	-8.525534	1.038146E-007	0.0071403	7
	21	29	8015.625	2196.196	-377.4466	1	2228.394	-9.7518	2.658379E-008	0.0072824	7
	22	31	6328.125	2222.669	-443.5525	1	2266.494	-11.28561	-7.415495E-008	0.0075141	7
	23	32	5015.625	2250.905	-523.4597	1	2310.97	-13.09173	-3.478858E-008	0.0073088	7
	24	33	3984.375	2280.887	-621.1942	1	2363.965	-15.23487	-7.644738E-008	0.0075115	7
	25	35	3170.956	2312.622	-741.0104	1	2428.439	-17.7665	-2.21759E-008	0.0073674	7
	26	36	2527.573	2348.301	-888.1064	1	2510.627	-20.71617	4.9362E-008	0.0072239	7
	27	38	1976.103	2391.853	-1087.73	1	2627.568	-24.45437	-5.193788E-009	0.0072594	7
	28	39	1577.524	2436.334	-1315.091	1	2768.608	-28.3594	-2.095678E-008	0.0073686	7
	29	40	1265.625	2489.36	-1588.223	1	2952.857	-32.53806	-7.10464E-008	0.0074048	7
	30	42	998.264	2556.983	-1954.643	1	3218.508	-37.39551	-3.220661E-008	0.0073135	7
	31	43	796.875	2635.623	-2383.073	1	3553.245	-42.1192	1.064168E-007	0.0071415	7
	32	44	627.7902	2739.208	-2947.135	1	4023.539	-47.09415	-3.841228E-008	0.007384	7
	33	46	505.5147	2861.234	-3574.954	1	4578.969	-51.32778	2.761234E-008	0.0072837	7
	34	47	397.9953	3027.637	-4423.411	1	5360.331	-55.61001	3.147457E-009	0.0073334	7
	35	48	315.5048	3238.765	-5441.361	1	6332.299	-59.23837	2.441806E-009	0.007329	7
	36	50	252.4038	3499.284	-6634.509	1	7500.78	-62.19118	2.146927E-009	0.0073324	7
	37	51	198.6229	3864.76	-8202.014	1	9066.94	-64.77035	2.365487E-009	0.0073291	7
	38	53	158.3615	4316.475	-10011.74	1	10902.61	-66.67712	2.64395E-010	0.0072696	6
	39	54	125.558	4919.104	-12257.19	1	13207.44	-68.13323	3.445952E-010	0.007268	6
	40	55	100.4464	5663.145	-14855.35	1	15898.2	-69.13219	2.269321E-010	0.0072679	6
	41	57	79.00281	6729.553	-18226.86	1	19429.5	-69.73531	-4.570622E-012	0.007266	6
	42	58	63.3446	7962.61	-22035.2	1	23429.75	-70.13224	-3.43065E-010	0.0072585	6
	43	59	49.86702	9643.6	-26698.99	1	28387.23	-70.14042	-4.976404E-010	0.007258	6
	44	61	39.72458	11782.59	-32148.23	1	34239.42	-69.8717	4.561924E-010	0.0072633	6
	45	62	31.6723	14466.38	-38531.71	1	41157.86	-69.42182	5.941284E-010	0.0072627	6
	46	64	24.93351	17917.9	-46392.31	1	49732.26	-68.88216	1.257208E-010	0.0072624	6
	47	65	19.86229	22015.4	-55126.62	1	59360.11	-68.23018	1.321732E-009	0.0072699	6
	48	66	15.83615	26970.13	-65096.23	1	70462.1	-67.4952	1.958244E-010	0.0072693	6
	49	68	12.40079	33849.53	-77957.04	1	84988.77	-66.52915	1.375259E-009	0.0072627	6
	50	69	9.93114	40949.13	-91753.08	1	100476.2	-65.94893	2.748432E-010	0.0072628	6
	51	71	7.944915	49880.86	-107285.2	1	118314.1	-65.06454	-2.813794E-010	0.0072677	5
	52	72	6.317385	60696.29	-125836.8	1	139710.2	-64.25006	8.688044E-010	0.0072646	5
	53	75	5.008013	74162.95	-147597.1	1	165181.9	-63.3219	3.808926E-010	0.0072767	5
	54	77	3.945707	90734.21	-173057.3	1	195400.9	-62.33191	-4.267574E-010	0.0072616	5
	55	79	3.158693	109040	-199764.3	1	227586.3	-61.37238	3.723519E-010	0.0072911	5
	56	83	2.504006	131501.8	-231681.5	1	266400.1	-60.42088	-5.347515E-010	0.0072649	5
	57	86	1.998082	156211.3	-265892.2	1	308383.9	-59.56582	-2.550406E-010	0.007246	5
	58	89	1.584686	185348.3	-304937	1	356848.1	-58.70773	-5.939915E-011	0.0073083	5
	59	92	1.266892	215943.8	-349647.7	1	410956.5	-58.30037	-2.820111E-010	0.0072538	5
	60	97	0.999041	252744	-403644.1	1	476243.7	-57.94704	2.927265E-010	0.0072959	5
