EXPLAIN
TAG	EISPOT
TITLE	LABEL	Potentiostatic EIS	Test &Identifier
DATE	LABEL	11/27/2019	Date
TIME	LABEL	13:49:44	Time
NOTES	NOTES	3	&Notes...
	
	
	
PSTAT	PSTAT	REF600-11020	Potentiostat
VDC	POTEN	0.00000E+000	T	DC &Voltage (V)
FREQINIT	QUANT	1.00000E+006	Initial Fre&q. (Hz)
FREQFINAL	QUANT	1.00000E+000	Final Fre&q. (Hz)
PTSPERDEC	QUANT	1.00000E+001	Points/&decade
VAC	QUANT	2.50000E+001	AC &Voltage (mV rms)
AREA	QUANT	1.00000E-002	&Area (cm^2)
CONDIT	TWOPARAM	T	5.00000E+000	0.00000E+000	Conditionin&g	Time(s)	E(V)
DELAY	TWOPARAM	T	5.00000E+000	0.00000E+000	Init. De&lay	Time(s)	Stab.(mV/s)
SPEED	SELECTOR	0	&Optimize for:
ZGUESS	QUANT	1.00000E+005	E&stimated Z (ohms)
OCVCURVE	TABLE	19
	Pt	T	Vf	Vm	Ach	Over
	#	s	V vs. Ref.	V	V	bits
	0	0.258333	2.68496E-001	2.68496E-001	5.46033E-004	...........
	1	0.516667	2.68706E-001	2.79453E-001	5.48166E-004	...........
	2	0.775	2.69957E-001	2.88049E-001	5.47166E-004	...........
	3	1.03333	2.73357E-001	2.94961E-001	5.47699E-004	...........
	4	1.29167	2.79091E-001	3.00652E-001	5.48099E-004	...........
	5	1.55	2.86107E-001	3.05383E-001	5.50599E-004	...........
	6	1.80833	2.93085E-001	3.09341E-001	5.46266E-004	...........
	7	2.06667	2.99237E-001	3.12641E-001	5.46933E-004	...........
	8	2.325	3.04363E-001	3.15492E-001	5.47399E-004	...........
	9	2.58333	3.08573E-001	3.17909E-001	5.52333E-004	...........
	10	2.84167	3.12061E-001	3.20035E-001	5.51966E-004	...........
	11	3.1	3.14999E-001	3.21927E-001	5.49099E-004	...........
	12	3.35833	3.17516E-001	3.23527E-001	5.45866E-004	...........
	13	3.61667	3.19698E-001	3.24989E-001	5.48499E-004	...........
	14	3.875	3.21604E-001	3.26227E-001	5.48933E-004	...........
	15	4.13333	3.23275E-001	3.27382E-001	5.45333E-004	...........
	16	4.39167	3.24746E-001	3.28442E-001	5.40799E-004	...........
	17	4.65	3.26054E-001	3.29477E-001	5.44599E-004	...........
	18	4.90833	3.27238E-001	3.30452E-001	5.42499E-004	...........
EOC	QUANT	0.3272384	Open Circuit (V)
PSTATMODEL	IQUANT	4	Pstat Model
PSTATSECTION	LABEL	REF600-11020	Pstat Section
PSTATSERIALNO	LABEL	11020	Pstat Serial Number
CTRLMODE	IQUANT	1	Control Mode
IESTAB	IQUANT	0	I/E Stability
CASPEED	IQUANT	1	Control Amp Speed
CONVENTION	IQUANT	1	Current Convention
ICHRANGE	IQUANT	2	Ich Range
ICHRANGEMODE	TOGGLE	F	Ich Auto Range
ICHOFFSETENABLE	TOGGLE	T	Ich Offset Enable
ICHOFFSET	QUANT	0	Ich Offset (V)
ICHFILTER	IQUANT	3	Ich Filter
VCHRANGE	IQUANT	2	Vch Range
VCHRANGEMODE	TOGGLE	F	Vch Auto Range
VCHOFFSETENABLE	TOGGLE	T	Vch Offset Enable
VCHOFFSET	QUANT	0	Vch Offset (V)
VCHFILTER	IQUANT	3	Vch Filter
ACHRANGE	IQUANT	2	Ach Range
ACHOFFSETENABLE	TOGGLE	F	Ach Offset Enable
ACHOFFSET	QUANT	0	Ach Offset (V)
ACHFILTER	IQUANT	3	Ach Filter
IERANGELOWERLIMIT	IQUANT	1	I/E Range Lower Limit
IERANGEMODE	TOGGLE	F	I/E AutoRange
IERANGE	IQUANT	6	I/E Range
POSFEEDENABLE	TOGGLE	F	Positive Feedback IR Comp
POSFEEDRESISTANCE	QUANT	0	Positive Feedback Resistance (ohm)
ACHSELECT	IQUANT	0	Ach Select
CABLEID	IQUANT	14	Cable ID
DCCALDATE	LABEL	8/19/2019	DC Calibration Date
ACCALDATE	LABEL	8/19/2019	AC Calibration Date
THERMOSELECT	IQUANT	1	Thermo Select
FRAMEWORKVERSION	QUANT	6.33	Framework Version
INSTRUMENTVERSION	LABEL	3.50	Instrument Version
ZCURVE	TABLE
	Pt	Time	Freq	Zreal	Zimag	Zsig	Zmod	Zphz	Idc	Vdc	IERange
	#	s	Hz	ohm	ohm	V	ohm	°	A	V	#
	0	2	1000078	1116.3	-2494.355	1	2732.752	-65.89004	-8.490414E-006	0.3305759	8
	1	2	794390.6	1242.808	-3012.717	1	3258.993	-67.58283	2.575319E-006	0.3287409	8
	2	2	630984.4	1427.077	-3645.012	1	3914.417	-68.61891	-1.115293E-006	0.3294668	8
	3	3	501234.4	1652.804	-4447.802	1	4744.966	-69.61492	6.151518E-006	0.3281035	8
	4	3	398109.4	1967.698	-5430.666	1	5776.155	-70.08298	-3.062261E-006	0.3292885	8
	5	3	316265.6	2417.043	-6611.73	1	7039.678	-69.91916	-2.086414E-006	0.3289516	8
	6	4	251203.1	3073.816	-7995.085	1	8565.613	-68.97009	1.499445E-006	0.3283597	8
	7	4	199546.9	3895.399	-9641.92	1	10399.08	-68.00098	6.401748E-006	0.3280374	8
	8	5	158578.1	5277.46	-11546.59	1	12695.48	-65.43685	-3.380306E-006	0.3292835	8
	9	5	125953.1	7197.501	-13379.2	1	15192.33	-61.72143	-2.145292E-006	0.3329511	7
	10	6	100078.1	9109.383	-15854.58	1	18285.2	-60.12011	7.397049E-007	0.3289515	7
	11	6	79453.13	12447.91	-18126.39	1	21989.01	-55.5215	5.042062E-007	0.326764	7
	12	6	63140.62	15739.61	-19749	1	25253.88	-51.44577	8.689557E-008	0.3298613	7
	13	7	50203.12	20093.19	-20416.74	1	28645.76	-45.45761	-1.28158E-006	0.3293846	7
	14	7	39890.62	24310.29	-20749.93	1	31961.69	-40.48225	-1.054896E-006	0.3307059	7
	15	7	31640.63	28620.51	-19969.01	1	34898.35	-34.90413	-1.447954E-006	0.3304293	7
	16	8	25171.88	32862.89	-19695.05	1	38312.71	-30.93467	8.705819E-008	0.3298591	7
	17	8	20015.62	37219.64	-18602.33	1	41609.48	-26.55582	1.308071E-006	0.3273018	7
	18	8	15890.62	38687.66	-15314.74	1	41608.61	-21.59643	-4.56624E-007	0.3278005	7
	19	9	12609.37	41647.5	-13293.87	1	43717.75	-17.70307	1.990621E-007	0.3256524	6
	20	9	10078.13	42732.36	-11717.49	1	44309.75	-15.33397	-2.554192E-007	0.3321729	6
	21	9	8015.625	43736.03	-9886.7	1	44839.57	-12.73784	-2.006085E-007	0.3292197	6
	22	10	6328.125	44637.49	-8556.667	1	45450.22	-10.85153	6.706218E-008	0.3255807	6
	23	10	5015.625	45081.42	-7452.151	1	45693.21	-9.386355	-7.171047E-008	0.3269866	6
	24	10	3984.375	45604.21	-6917.141	1	46125.82	-8.62475	6.644444E-008	0.3255863	6
	25	11	3170.956	45949.09	-5996.933	1	46338.78	-7.435788	-7.225865E-008	0.3269789	6
	26	11	2527.573	46484.46	-5504.98	1	46809.29	-6.753868	6.624285E-008	0.3255812	6
	27	11	1976.103	46622.57	-5080.272	1	46898.54	-6.218753	-1.413743E-007	0.3280357	6
	28	11	1577.524	47366.76	-4768.263	1	47606.16	-5.748421	1.260925E-007	0.3252903	6
	29	12	1265.625	48380.22	-5194.517	1	48658.29	-6.128291	1.278737E-007	0.3288381	6
	30	12	998.264	47542.63	-5179.355	1	47823.92	-6.217357	-2.011334E-007	0.3292084	6
	31	12	796.875	48913.9	-5615.142	1	49235.15	-6.548685	2.039485E-007	0.3268608	6
	32	13	627.7902	49069.17	-5960.187	1	49429.82	-6.925506	-1.546618E-007	0.3321792	6
	33	13	505.5147	49203.71	-6391.135	1	49617.05	-7.400788	1.705503E-007	0.3253164	6
	34	13	397.9953	49692.81	-7161.37	1	50206.18	-8.200595	-1.496815E-008	0.3286792	6
	35	14	315.5048	50155.33	-8034.824	1	50794.84	-9.101383	-1.557628E-008	0.328681	6
	36	14	252.4038	50682.07	-9074.708	1	51488.08	-10.15133	-1.593964E-008	0.3286663	6
	37	14	198.6229	51323.07	-10489.87	1	52384.11	-11.55153	-1.529972E-008	0.3286783	6
	38	15	158.3615	51924.82	-12164.85	1	53330.77	-13.18535	-1.438122E-008	0.328665	6
	39	15	125.558	52842.36	-14259.65	1	54732.55	-15.10171	-1.549946E-008	0.3286787	6
	40	15	100.4464	53876.38	-16851.28	1	56450.25	-17.36847	-1.735034E-008	0.3286753	6
	41	16	79.00281	55128.72	-20064.04	1	58666.36	-19.99892	-1.613896E-008	0.3286625	6
	42	16	63.3446	57129.04	-22443.15	1	61379.33	-21.44739	-1.594898E-008	0.328671	6
	43	17	49.86702	59566.46	-27666.72	1	65678.09	-24.91337	-1.665145E-008	0.3286658	6
	44	17	39.72458	62281.61	-32184.85	1	70106.09	-27.32826	-1.667673E-008	0.3286695	6
	45	18	31.6723	65984.45	-37564.9	1	75928.05	-29.65283	-1.695123E-008	0.3286767	6
	46	18	24.93351	71301.45	-43337.64	1	83438.89	-31.2916	-1.84081E-008	0.3286689	6
	47	18	19.86229	77226.11	-49347.33	1	91646.23	-32.5785	-2.078712E-008	0.328663	6
	48	19	15.83615	83525.98	-55534.44	1	100302.9	-33.61899	-1.680388E-008	0.3286646	6
	49	19	12.40079	92212.92	-62465.86	1	111378.7	-34.11406	-1.406469E-008	0.3286756	5
	50	19	9.93114	102169.3	-68190.22	1	122835.1	-33.7201	-1.510144E-008	0.3286678	5
	51	20	7.944915	112226.8	-74326.2	1	134607.8	-33.51593	-1.755184E-008	0.3286882	5
	52	21	6.317385	123353.2	-80148.9	1	147105	-33.01384	-1.677205E-008	0.3286929	5
	53	21	5.008013	135165	-86015.54	1	160213.1	-32.47163	-1.430701E-008	0.3286934	5
	54	22	3.945707	147509.1	-92245.56	1	173977.5	-32.02001	-1.373288E-008	0.3286692	5
	55	24	3.158693	159749.2	-98802.5	1	187834.4	-31.73619	-1.139659E-008	0.3286757	5
	56	25	2.504006	172779.2	-106146.3	1	202779.9	-31.56433	-1.098918E-008	0.3286807	5
	57	27	1.998082	186297.9	-114388.6	1	218613.1	-31.55031	-1.099779E-008	0.3286352	5
	58	28	1.584686	199870.1	-124997.9	1	235738.3	-32.02167	-9.825829E-009	0.3286684	5
	59	30	1.266892	213512.2	-136474.4	1	253402.3	-32.58621	-7.740431E-009	0.3287035	5
	60	33	0.999041	229313.3	-150985.8	1	274556.5	-33.36193	-5.829894E-009	0.3287183	5
