EXPLAIN
TAG	EISPOT
TITLE	LABEL	Potentiostatic EIS	Test &Identifier
DATE	LABEL	9/20/2019	Date
TIME	LABEL	10:54:05	Time
NOTES	NOTES	1	&Notes...
	
PSTAT	PSTAT	REF600-11020	Potentiostat
VDC	POTEN	0.00000E+000	T	DC &Voltage (V)
FREQINIT	QUANT	1.00000E+006	Initial Fre&q. (Hz)
FREQFINAL	QUANT	1.00000E+000	Final Fre&q. (Hz)
PTSPERDEC	QUANT	1.00000E+001	Points/&decade
VAC	QUANT	2.50000E+001	AC &Voltage (mV rms)
AREA	QUANT	1.00000E-002	&Area (cm^2)
CONDIT	TWOPARAM	T	5.00000E+000	0.00000E+000	Conditionin&g	Time(s)	E(V)
DELAY	TWOPARAM	T	5.00000E+000	0.00000E+000	Init. De&lay	Time(s)	Stab.(mV/s)
SPEED	SELECTOR	1	&Optimize for:
ZGUESS	QUANT	1.00000E+004	E&stimated Z (ohms)
OCVCURVE	TABLE	19
	Pt	T	Vf	Vm	Ach	Over
	#	s	V vs. Ref.	V	V	bits
	0	0.258333	-8.01242E-003	-8.01242E-003	5.61766E-004	...........
	1	0.516667	-8.02706E-003	-8.77837E-003	5.61832E-004	...........
	2	0.775	-8.11641E-003	-9.47802E-003	5.63166E-004	...........
	3	1.03333	-8.36710E-003	-1.01290E-002	5.67232E-004	...........
	4	1.29167	-8.81021E-003	-1.07299E-002	5.69466E-004	...........
	5	1.55	-9.38984E-003	-1.13000E-002	5.68699E-004	...........
	6	1.80833	-1.00196E-002	-1.18290E-002	5.65566E-004	...........
	7	2.06667	-1.06388E-002	-1.23381E-002	5.68332E-004	...........
	8	2.325	-1.12224E-002	-1.28183E-002	5.71566E-004	...........
	9	2.58333	-1.17677E-002	-1.32726E-002	5.68499E-004	...........
	10	2.84167	-1.22796E-002	-1.37074E-002	5.69132E-004	...........
	11	3.1	-1.27633E-002	-1.41246E-002	5.67099E-004	...........
	12	3.35833	-1.32225E-002	-1.45168E-002	5.66432E-004	...........
	13	3.61667	-1.36597E-002	-1.48946E-002	5.62599E-004	...........
	14	3.875	-1.40764E-002	-1.52572E-002	5.69999E-004	...........
	15	4.13333	-1.44740E-002	-1.56049E-002	5.67466E-004	...........
	16	4.39167	-1.48541E-002	-1.59370E-002	5.72732E-004	...........
	17	4.65	-1.52181E-002	-1.62577E-002	5.71466E-004	...........
	18	4.90833	-1.55670E-002	-1.65644E-002	5.68166E-004	...........
EOC	QUANT	-0.015567	Open Circuit (V)
PSTATMODEL	IQUANT	4	Pstat Model
PSTATSECTION	LABEL	REF600-11020	Pstat Section
PSTATSERIALNO	LABEL	11020	Pstat Serial Number
CTRLMODE	IQUANT	1	Control Mode
IESTAB	IQUANT	0	I/E Stability
CASPEED	IQUANT	1	Control Amp Speed
CONVENTION	IQUANT	1	Current Convention
ICHRANGE	IQUANT	2	Ich Range
ICHRANGEMODE	TOGGLE	F	Ich Auto Range
ICHOFFSETENABLE	TOGGLE	T	Ich Offset Enable
ICHOFFSET	QUANT	0	Ich Offset (V)
ICHFILTER	IQUANT	3	Ich Filter
VCHRANGE	IQUANT	2	Vch Range
VCHRANGEMODE	TOGGLE	F	Vch Auto Range
VCHOFFSETENABLE	TOGGLE	T	Vch Offset Enable
VCHOFFSET	QUANT	0	Vch Offset (V)
VCHFILTER	IQUANT	3	Vch Filter
ACHRANGE	IQUANT	2	Ach Range
ACHOFFSETENABLE	TOGGLE	F	Ach Offset Enable
ACHOFFSET	QUANT	0	Ach Offset (V)
ACHFILTER	IQUANT	3	Ach Filter
IERANGELOWERLIMIT	IQUANT	1	I/E Range Lower Limit
IERANGEMODE	TOGGLE	F	I/E AutoRange
IERANGE	IQUANT	6	I/E Range
POSFEEDENABLE	TOGGLE	F	Positive Feedback IR Comp
POSFEEDRESISTANCE	QUANT	0	Positive Feedback Resistance (ohm)
ACHSELECT	IQUANT	0	Ach Select
CABLEID	IQUANT	14	Cable ID
DCCALDATE	LABEL	8/19/2019	DC Calibration Date
ACCALDATE	LABEL	8/19/2019	AC Calibration Date
THERMOSELECT	IQUANT	1	Thermo Select
FRAMEWORKVERSION	QUANT	6.33	Framework Version
INSTRUMENTVERSION	LABEL	3.50	Instrument Version
ZCURVE	TABLE
	Pt	Time	Freq	Zreal	Zimag	Zsig	Zmod	Zphz	Idc	Vdc	IERange
	#	s	Hz	ohm	ohm	V	ohm	°	A	V	#
	0	1	1000078	2236.916	-1798.61	1	2870.33	-38.8013	-1.060679E-006	-0.0126192	8
	1	3	794390.6	2582.857	-1769.732	1	3130.99	-34.41831	-3.077375E-006	-0.0130267	8
	2	4	630984.4	2959.819	-1713.515	1	3420.038	-30.06764	2.351476E-006	-0.0142548	8
	3	6	501234.4	3251.832	-1587.724	1	3618.739	-26.02418	-5.210013E-006	-0.0126476	8
	4	7	398109.4	3514.778	-1430.737	1	3794.822	-22.14944	3.658066E-006	-0.0145144	8
	5	8	316265.6	3734.717	-1289.174	1	3950.959	-19.04399	1.229349E-006	-0.0143025	8
	6	10	251203.1	3920.337	-1099.543	1	4071.614	-15.6673	-4.467969E-006	-0.0128676	8
	7	11	199546.9	4041.37	-974.367	1	4157.17	-13.55522	3.12819E-006	-0.0145278	8
	8	13	158578.1	4155.526	-838.2288	1	4239.225	-11.40434	9.951007E-007	-0.0141008	8
	9	14	125953.1	4239.797	-674.0443	1	4293.043	-9.033302	6.486918E-007	-0.0152592	7
	10	16	100078.1	4289.7	-589.6444	1	4330.036	-7.826594	4.136262E-008	-0.0139973	7
	11	17	79453.13	4337.734	-531.7224	1	4370.202	-6.988492	-1.143826E-008	-0.0138199	7
	12	19	63140.62	4379.518	-489.6769	1	4406.808	-6.379784	-1.039126E-008	-0.0140033	7
	13	20	50203.12	4419.094	-457.6475	1	4442.729	-5.912553	-3.682612E-008	-0.0139223	7
	14	21	39890.62	4452.611	-442.6545	1	4474.561	-5.677382	-3.641355E-008	-0.0139246	7
	15	23	31640.63	4490.587	-437.8881	1	4511.886	-5.569444	-3.650733E-008	-0.0139441	7
	16	24	25171.88	4527.177	-446.1497	1	4549.107	-5.628281	4.13908E-008	-0.0140134	7
	17	25	20015.62	4562.987	-463.4331	1	4586.46	-5.799276	-1.640088E-009	-0.0139511	7
	18	27	15890.62	4600.718	-494.6118	1	4627.229	-6.136159	4.068445E-008	-0.0140152	7
	19	28	12609.37	4640.222	-540.1082	1	4671.549	-6.639185	1.531846E-008	-0.0140464	7
	20	29	10078.13	4681.26	-595.8643	1	4719.031	-7.254008	-3.583537E-008	-0.0139478	7
	21	31	8015.625	4726.325	-672.5765	1	4773.94	-8.09906	-1.747974E-008	-0.0139931	7
	22	32	6328.125	4776.56	-768.5887	1	4838.001	-9.141019	-7.856538E-009	-0.0140122	7
	23	33	5015.625	4830.247	-888.4814	1	4911.282	-10.42255	4.159551E-008	-0.0140187	7
	24	35	3984.375	4888.786	-1035.374	1	4997.222	-11.95773	-4.209403E-008	-0.0139496	7
	25	36	3170.956	4952.968	-1216.213	1	5100.105	-13.79616	8.608438E-008	-0.0140236	7
	26	38	2527.573	5025.521	-1437.327	1	5227.023	-15.96082	1.538412E-008	-0.014053	7
	27	39	1976.103	5115.766	-1732.406	1	5401.138	-18.70818	-1.336917E-009	-0.0139501	7
	28	40	1577.524	5211.465	-2068.195	1	5606.853	-21.64589	-3.179576E-008	-0.0139602	7
	29	42	1265.625	5334.748	-2468.044	1	5877.991	-24.82694	4.247374E-008	-0.0140269	7
	30	43	998.264	5459.829	-2981.009	1	6220.623	-28.63407	-1.363287E-008	-0.0139315	7
	31	44	796.875	5613.352	-3578.195	1	6656.816	-32.51521	-5.374204E-009	-0.0139321	7
	32	46	627.7902	5802.595	-4353.894	1	7254.413	-36.8822	1.614603E-008	-0.0140567	7
	33	47	505.5147	6005.415	-5212.078	1	7951.777	-40.95459	-3.348161E-008	-0.0139359	7
	34	48	397.9953	6269.183	-6373.167	1	8939.794	-45.47125	5.487761E-009	-0.0139516	7
	35	50	315.5048	6576.865	-7760.252	1	10172.35	-49.71851	1.58448E-009	-0.0140103	6
	36	51	252.4038	6930.397	-9395.97	1	11675.39	-53.58779	2.191769E-009	-0.0140168	6
	37	53	198.6229	7394.159	-11561.02	1	13723.37	-57.39797	2.135358E-009	-0.0140155	6
	38	54	158.3615	7938.112	-14084.03	1	16167.05	-60.5933	2.023823E-009	-0.0140234	6
	39	55	125.558	8655.921	-17261.45	1	19310.17	-63.36808	1.790099E-009	-0.0140241	6
	40	57	100.4464	9547.68	-21016.83	1	23083.88	-65.5683	1.422612E-009	-0.014027	6
	41	58	79.00281	10739.82	-25899.37	1	28037.85	-67.47744	1.034584E-009	-0.0140227	6
	42	59	63.3446	12050.59	-31363.89	1	33599.27	-68.9823	1.689665E-009	-0.0140212	6
	43	61	49.86702	14675.31	-38679.69	1	41370.07	-69.22295	8.220543E-010	-0.0140225	6
	44	62	39.72458	17322.73	-47030.18	1	50119	-69.77962	1.727055E-009	-0.0140177	6
	45	64	31.6723	20857.32	-56881.3	1	60584.73	-69.86295	1.704759E-009	-0.0140158	6
	46	65	24.93351	26124.38	-69313.44	1	74073.18	-69.34847	1.447241E-009	-0.0140176	6
	47	66	19.86229	32692.25	-83263.71	1	89451.83	-68.56329	1.136215E-009	-0.0140158	6
	48	68	15.83615	41990.75	-99546.6	1	108040.5	-67.12901	2.614885E-009	-0.0140129	5
	49	69	12.40079	53511.27	-118828.1	1	130321.1	-65.75677	1.935664E-009	-0.014008	5
	50	71	9.93114	66981.41	-139213	1	154488.7	-64.30578	7.363337E-010	-0.014016	5
	51	72	7.944915	84848.85	-161160.3	1	182131.8	-62.23377	3.212985E-010	-0.0140219	5
	52	74	6.317385	106067.3	-186376	1	214444.1	-60.35563	1.243105E-009	-0.0140129	5
	53	76	5.008013	132781.2	-213538	1	251454.4	-58.12602	9.491258E-010	-0.014002	5
	54	78	3.945707	165565.6	-242265.8	1	293436	-55.65112	5.465256E-011	-0.01402	5
	55	81	3.158693	200145.4	-269598.2	1	335769.8	-53.41039	5.271928E-010	-0.0139939	5
	56	84	2.504006	240656.3	-298535.3	1	383456.4	-51.1269	-2.076553E-010	-0.0140232	5
	57	87	1.998082	283217.2	-326843.3	1	432479.5	-49.09033	-2.99917E-010	-0.0140203	5
	58	90	1.584686	330520	-355728.3	1	485578.1	-47.10373	6.164381E-011	-0.0139663	5
	59	94	1.266892	378023.3	-388092	1	541772.1	-45.75296	-4.693978E-010	-0.0140201	5
	60	98	0.999041	431376.6	-423951	1	604830.8	-44.50259	1.463995E-010	-0.0139905	5
