EXPLAIN
TAG	EISPOT
TITLE	LABEL	Potentiostatic EIS	Test &Identifier
DATE	LABEL	10/6/2019	Date
TIME	LABEL	11:17:30	Time
NOTES	NOTES	2	&Notes...
	
	
PSTAT	PSTAT	REF600-11020	Potentiostat
VDC	POTEN	0.00000E+000	T	DC &Voltage (V)
FREQINIT	QUANT	1.00000E+006	Initial Fre&q. (Hz)
FREQFINAL	QUANT	1.00000E+000	Final Fre&q. (Hz)
PTSPERDEC	QUANT	1.00000E+001	Points/&decade
VAC	QUANT	2.50000E+001	AC &Voltage (mV rms)
AREA	QUANT	1.00000E-002	&Area (cm^2)
CONDIT	TWOPARAM	T	5.00000E+000	0.00000E+000	Conditionin&g	Time(s)	E(V)
DELAY	TWOPARAM	T	5.00000E+000	0.00000E+000	Init. De&lay	Time(s)	Stab.(mV/s)
SPEED	SELECTOR	1	&Optimize for:
ZGUESS	QUANT	1.00000E+004	E&stimated Z (ohms)
OCVCURVE	TABLE	19
	Pt	T	Vf	Vm	Ach	Over
	#	s	V vs. Ref.	V	V	bits
	0	0.258333	9.01023E-003	9.01023E-003	5.56699E-004	...........
	1	0.516667	9.00972E-003	8.98358E-003	5.54666E-004	...........
	2	0.775	9.00753E-003	9.00731E-003	5.52966E-004	...........
	3	1.03333	9.00675E-003	9.15056E-003	5.51333E-004	...........
	4	1.29167	9.02190E-003	9.31373E-003	5.44133E-004	...........
	5	1.55	9.07376E-003	9.49454E-003	5.48699E-004	...........
	6	1.80833	9.17321E-003	9.68782E-003	5.54599E-004	...........
	7	2.06667	9.31534E-003	9.89741E-003	5.55199E-004	...........
	8	2.325	9.48703E-003	1.00664E-002	5.57799E-004	...........
	9	2.58333	9.67200E-003	1.01428E-002	5.60432E-004	...........
	10	2.84167	9.84917E-003	1.01871E-002	5.56266E-004	...........
	11	3.1	9.99600E-003	1.01899E-002	5.54533E-004	...........
	12	3.35833	1.00986E-002	1.01857E-002	5.56599E-004	...........
	13	3.61667	1.01564E-002	1.01404E-002	5.56099E-004	...........
	14	3.875	1.01785E-002	1.01955E-002	5.58032E-004	...........
	15	4.13333	1.01844E-002	1.03852E-002	5.61099E-004	...........
	16	4.39167	1.02053E-002	1.05367E-002	5.53599E-004	...........
	17	4.65	1.02681E-002	1.06735E-002	5.56999E-004	...........
	18	4.90833	1.03739E-002	1.07006E-002	5.58466E-004	...........
EOC	QUANT	0.0103739	Open Circuit (V)
PSTATMODEL	IQUANT	4	Pstat Model
PSTATSECTION	LABEL	REF600-11020	Pstat Section
PSTATSERIALNO	LABEL	11020	Pstat Serial Number
CTRLMODE	IQUANT	1	Control Mode
IESTAB	IQUANT	0	I/E Stability
CASPEED	IQUANT	1	Control Amp Speed
CONVENTION	IQUANT	1	Current Convention
ICHRANGE	IQUANT	2	Ich Range
ICHRANGEMODE	TOGGLE	F	Ich Auto Range
ICHOFFSETENABLE	TOGGLE	T	Ich Offset Enable
ICHOFFSET	QUANT	0	Ich Offset (V)
ICHFILTER	IQUANT	3	Ich Filter
VCHRANGE	IQUANT	2	Vch Range
VCHRANGEMODE	TOGGLE	F	Vch Auto Range
VCHOFFSETENABLE	TOGGLE	T	Vch Offset Enable
VCHOFFSET	QUANT	0	Vch Offset (V)
VCHFILTER	IQUANT	3	Vch Filter
ACHRANGE	IQUANT	2	Ach Range
ACHOFFSETENABLE	TOGGLE	F	Ach Offset Enable
ACHOFFSET	QUANT	0	Ach Offset (V)
ACHFILTER	IQUANT	3	Ach Filter
IERANGELOWERLIMIT	IQUANT	1	I/E Range Lower Limit
IERANGEMODE	TOGGLE	F	I/E AutoRange
IERANGE	IQUANT	6	I/E Range
POSFEEDENABLE	TOGGLE	F	Positive Feedback IR Comp
POSFEEDRESISTANCE	QUANT	0	Positive Feedback Resistance (ohm)
ACHSELECT	IQUANT	0	Ach Select
CABLEID	IQUANT	14	Cable ID
DCCALDATE	LABEL	8/19/2019	DC Calibration Date
ACCALDATE	LABEL	8/19/2019	AC Calibration Date
THERMOSELECT	IQUANT	1	Thermo Select
FRAMEWORKVERSION	QUANT	6.33	Framework Version
INSTRUMENTVERSION	LABEL	3.50	Instrument Version
ZCURVE	TABLE
	Pt	Time	Freq	Zreal	Zimag	Zsig	Zmod	Zphz	Idc	Vdc	IERange
	#	s	Hz	ohm	ohm	V	ohm	°	A	V	#
	0	1	1000078	2390.406	-1582.998	1	2867.041	-33.51371	-3.450021E-006	0.0129692	8
	1	3	794390.6	2691.513	-1492.737	1	3077.744	-29.01313	-1.578651E-006	0.0127211	8
	2	4	630984.4	2959.395	-1361.156	1	3257.417	-24.69979	7.948438E-007	0.0120461	8
	3	5	501234.4	3168.802	-1215.806	1	3394.038	-20.9908	1.136846E-006	0.0118128	8
	4	7	398109.4	3334.398	-1071.403	1	3502.302	-17.81315	4.891194E-006	0.0108038	8
	5	8	316265.6	3472.18	-928.8455	1	3594.271	-14.97656	-3.475667E-006	0.0124732	8
	6	9	251203.1	3576.534	-803.3698	1	3665.651	-12.65979	4.940973E-007	0.0118719	8
	7	11	199546.9	3654.292	-708.02	1	3722.249	-10.96521	-3.165393E-007	0.0117953	8
	8	12	158578.1	3705.751	-607.8655	1	3755.276	-9.315439	6.79912E-007	0.0116043	8
	9	13	125953.1	3777.177	-504.8527	1	3810.767	-7.612961	-1.43098E-006	0.014941	7
	10	15	100078.1	3810.804	-460.2368	1	3838.496	-6.886349	-3.054251E-008	0.0117942	7
	11	16	79453.13	3846.82	-436.4075	1	3871.495	-6.472323	-8.15072E-008	0.0119046	7
	12	17	63140.62	3882.866	-424.4738	1	3905.999	-6.238784	-8.009921E-008	0.0120294	7
	13	19	50203.12	3919.385	-422.4272	1	3942.084	-6.151532	1.224316E-007	0.011605	7
	14	20	39890.62	3958.736	-430.1249	1	3982.034	-6.20098	-4.010469E-008	0.0117903	7
	15	22	31640.63	3998.734	-448.9721	1	4023.86	-6.406257	-1.086946E-008	0.0117724	7
	16	23	25171.88	4042.005	-475.6895	1	4069.9	-6.712067	1.250522E-007	0.0115998	7
	17	24	20015.62	4086.408	-503.1767	1	4117.271	-7.019735	-5.797901E-008	0.0118583	7
	18	26	15890.62	4139.705	-557.7089	1	4177.104	-7.672799	8.269175E-008	0.011618	7
	19	27	12609.37	4198.471	-614.7929	1	4243.245	-8.330761	-1.205867E-008	0.011843	7
	20	28	10078.13	4257.145	-680.9686	1	4311.265	-9.087985	8.449356E-008	0.0116158	7
	21	30	8015.625	4322.043	-762.2979	1	4388.753	-10.00264	1.039868E-007	0.0116895	7
	22	31	6328.125	4394.225	-861.5975	1	4477.897	-11.09353	-2.757018E-008	0.0117732	7
	23	32	5015.625	4468.599	-979.812	1	4574.757	-12.3673	-5.860254E-008	0.0118593	7
	24	34	3984.375	4556.294	-1118.167	1	4691.494	-13.78855	-3.887329E-008	0.011782	7
	25	35	3170.956	4630.572	-1295.803	1	4808.461	-15.63356	5.931665E-008	0.0116809	7
	26	36	2527.573	4718.072	-1504.805	1	4952.236	-17.68982	-9.502076E-009	0.011766	7
	27	38	1976.103	4824.295	-1786.041	1	5144.294	-20.31546	-9.425512E-009	0.0117594	7
	28	39	1577.524	4925.938	-2106.295	1	5357.364	-23.1512	-9.28643E-009	0.0117665	7
	29	41	1265.625	5045.431	-2486.307	1	5624.775	-26.23334	-4.600707E-008	0.0118801	7
	30	42	998.264	5185.88	-2987.426	1	5984.819	-29.94492	-1.223856E-008	0.0118356	7
	31	43	796.875	5333.053	-3567.529	1	6416.285	-33.78041	5.874189E-008	0.0116809	7
	32	45	627.7902	5518.712	-4326.614	1	7012.544	-38.09609	-5.455928E-008	0.0118477	7
	33	46	505.5147	5718.282	-5183.215	1	7717.802	-42.19006	-4.699519E-008	0.0118795	7
	34	47	397.9953	5972.214	-6322.287	1	8697.049	-46.631	5.248832E-009	0.0118015	7
	35	49	315.5048	6259.976	-7694.618	1	9919.4	-50.86983	4.396786E-009	0.0117997	7
	36	50	252.4038	6590.775	-9312.633	1	11408.92	-54.71204	9.527408E-010	0.0117366	6
	37	52	198.6229	7012.372	-11455.51	1	13431.39	-58.52755	8.277659E-010	0.0117448	6
	38	53	158.3615	7498.409	-13957.89	1	15844.52	-61.75457	8.857264E-010	0.0117415	6
	39	54	125.558	8118.283	-17115.78	1	18943.51	-64.62428	1.166241E-009	0.011744	6
	40	56	100.4464	8879.646	-20842.25	1	22654.97	-66.92403	1.091097E-009	0.0117439	6
	41	57	79.00281	9873.33	-25817.53	1	27641.04	-69.07178	4.069018E-010	0.0117389	6
	42	58	63.3446	11005.51	-31524.35	1	33390.21	-70.75532	1.860366E-010	0.0117348	6
	43	60	49.86702	12746.25	-38597.63	1	40647.8	-71.72502	-6.668042E-010	0.0117331	6
	44	61	39.72458	14967.25	-47271.6	1	49584.5	-72.43105	-1.014699E-009	0.0117416	6
	45	63	31.6723	17842.29	-57672.52	1	60369.41	-72.80937	4.514716E-009	0.0117391	6
	46	64	24.93351	21639.49	-70792.59	1	74026.06	-73.00294	-1.700098E-009	0.0117395	6
	47	65	19.86229	26606.82	-85947.14	1	89971.3	-72.79894	-8.542284E-011	0.0117466	6
	48	67	15.83615	32169.04	-103928.7	1	108793.5	-72.80115	-1.647463E-009	0.0117427	5
	49	68	12.40079	42064.8	-126956.1	1	133743.4	-71.66824	8.968228E-010	0.0117439	5
	50	70	9.93114	52465.38	-151953.7	1	160756.1	-70.95163	4.276232E-010	0.0117372	5
	51	71	7.944915	65687.92	-181268	1	192803	-70.08049	-1.152385E-010	0.0117339	5
	52	73	6.317385	83352.87	-215752.5	1	231293.9	-68.87668	1.699954E-010	0.0117273	5
	53	75	5.008013	105646.7	-256429.1	1	277339.3	-67.60873	-1.979859E-010	0.0117371	5
	54	77	3.945707	134620	-303850.2	1	332336.4	-66.10439	1.197771E-011	0.0117402	5
	55	80	3.158693	168180.7	-354024.8	1	391941.7	-64.58978	1.053897E-010	0.0117366	5
	56	83	2.504006	210237.8	-411957	1	462502.4	-62.96299	-1.259416E-010	0.0117427	5
	57	86	1.998082	258393.8	-473184.3	1	539138.9	-61.36218	1.421634E-010	0.0116926	5
	58	89	1.584686	314376.3	-543107.9	1	627533.8	-59.93573	-1.091805E-010	0.0117355	5
	59	93	1.266892	379442.6	-618356.5	1	725493.9	-58.46544	9.712727E-011	0.0116913	5
	60	97	0.999041	455456.7	-701738.1	1	836586.6	-57.01478	-3.058029E-011	0.0117824	5
