EXPLAIN
TAG	EISPOT
TITLE	LABEL	Potentiostatic EIS	Test &Identifier
DATE	LABEL	11/22/2019	Date
TIME	LABEL	9:48:14	Time
NOTES	NOTES	4	&Notes...
	
	
	
	
PSTAT	PSTAT	REF600-11020	Potentiostat
VDC	POTEN	0.00000E+000	T	DC &Voltage (V)
FREQINIT	QUANT	1.00000E+006	Initial Fre&q. (Hz)
FREQFINAL	QUANT	1.00000E+000	Final Fre&q. (Hz)
PTSPERDEC	QUANT	1.00000E+001	Points/&decade
VAC	QUANT	2.50000E+001	AC &Voltage (mV rms)
AREA	QUANT	1.00000E-002	&Area (cm^2)
CONDIT	TWOPARAM	T	5.00000E+000	0.00000E+000	Conditionin&g	Time(s)	E(V)
DELAY	TWOPARAM	T	5.00000E+000	0.00000E+000	Init. De&lay	Time(s)	Stab.(mV/s)
SPEED	SELECTOR	0	&Optimize for:
ZGUESS	QUANT	1.00000E+005	E&stimated Z (ohms)
OCVCURVE	TABLE	19
	Pt	T	Vf	Vm	Ach	Over
	#	s	V vs. Ref.	V	V	bits
	0	0.258333	1.79243E-003	1.79243E-003	5.48566E-004	...........
	1	0.516667	1.78776E-003	1.54842E-003	5.38366E-004	...........
	2	0.775	1.75936E-003	1.32887E-003	5.45466E-004	...........
	3	1.03333	1.68004E-003	1.13228E-003	5.44733E-004	...........
	4	1.29167	1.54091E-003	9.52814E-004	5.51266E-004	...........
	5	1.55	1.36105E-003	7.87038E-004	5.47633E-004	...........
	6	1.80833	1.16866E-003	6.33444E-004	5.39533E-004	...........
	7	2.06667	9.82709E-004	4.80698E-004	5.38599E-004	...........
	8	2.325	8.09909E-004	3.46084E-004	5.45333E-004	...........
	9	2.58333	6.49880E-004	2.08991E-004	5.46233E-004	...........
	10	2.84167	5.00395E-004	8.76006E-005	5.47166E-004	...........
	11	3.1	3.59581E-004	-3.72462E-005	5.48433E-004	...........
	12	3.35833	2.25999E-004	-1.56203E-004	5.52566E-004	...........
	13	3.61667	9.82394E-005	-2.71376E-004	5.53166E-004	...........
	14	3.875	-2.49039E-005	-3.81782E-004	5.51566E-004	...........
	15	4.13333	-1.44015E-004	-4.89046E-004	5.52499E-004	...........
	16	4.39167	-2.59135E-004	-5.89115E-004	5.46999E-004	...........
	17	4.65	-3.70170E-004	-6.93220E-004	5.55633E-004	...........
	18	4.90833	-4.77305E-004	-7.88046E-004	5.45899E-004	...........
EOC	QUANT	-0.0004773	Open Circuit (V)
PSTATMODEL	IQUANT	4	Pstat Model
PSTATSECTION	LABEL	REF600-11020	Pstat Section
PSTATSERIALNO	LABEL	11020	Pstat Serial Number
CTRLMODE	IQUANT	1	Control Mode
IESTAB	IQUANT	0	I/E Stability
CASPEED	IQUANT	1	Control Amp Speed
CONVENTION	IQUANT	1	Current Convention
ICHRANGE	IQUANT	2	Ich Range
ICHRANGEMODE	TOGGLE	F	Ich Auto Range
ICHOFFSETENABLE	TOGGLE	T	Ich Offset Enable
ICHOFFSET	QUANT	0	Ich Offset (V)
ICHFILTER	IQUANT	3	Ich Filter
VCHRANGE	IQUANT	2	Vch Range
VCHRANGEMODE	TOGGLE	F	Vch Auto Range
VCHOFFSETENABLE	TOGGLE	T	Vch Offset Enable
VCHOFFSET	QUANT	0	Vch Offset (V)
VCHFILTER	IQUANT	3	Vch Filter
ACHRANGE	IQUANT	2	Ach Range
ACHOFFSETENABLE	TOGGLE	F	Ach Offset Enable
ACHOFFSET	QUANT	0	Ach Offset (V)
ACHFILTER	IQUANT	3	Ach Filter
IERANGELOWERLIMIT	IQUANT	1	I/E Range Lower Limit
IERANGEMODE	TOGGLE	F	I/E AutoRange
IERANGE	IQUANT	3	I/E Range
POSFEEDENABLE	TOGGLE	F	Positive Feedback IR Comp
POSFEEDRESISTANCE	QUANT	0	Positive Feedback Resistance (ohm)
ACHSELECT	IQUANT	0	Ach Select
CABLEID	IQUANT	14	Cable ID
DCCALDATE	LABEL	8/19/2019	DC Calibration Date
ACCALDATE	LABEL	8/19/2019	AC Calibration Date
THERMOSELECT	IQUANT	1	Thermo Select
FRAMEWORKVERSION	QUANT	6.33	Framework Version
INSTRUMENTVERSION	LABEL	3.50	Instrument Version
ZCURVE	TABLE
	Pt	Time	Freq	Zreal	Zimag	Zsig	Zmod	Zphz	Idc	Vdc	IERange
	#	s	Hz	ohm	ohm	V	ohm	°	A	V	#
	0	1	1000078	2020.202	-972.735	1	2242.193	-25.71099	1.097323E-005	-8.023638E-005	8
	1	1	794390.6	2199.258	-903.6941	1	2377.688	-22.33819	5.167188E-006	0.0003267	8
	2	1	630984.4	2335.196	-810.0431	1	2471.702	-19.13086	-3.082431E-006	0.0009447	8
	3	2	501234.4	2444.129	-707.8488	1	2544.566	-16.15165	-2.385098E-006	0.0016802	8
	4	2	398109.4	2533.114	-622.3079	1	2608.435	-13.80246	-1.473543E-006	0.0008441	8
	5	2	316265.6	2591.522	-541.5311	1	2647.498	-11.80283	2.040985E-006	0.0005896	8
	6	3	251203.1	2646.974	-482.1959	1	2690.536	-10.32429	-1.598702E-007	0.0007421	8
	7	3	199546.9	2688.257	-432.4234	1	2722.813	-9.138117	-3.108392E-007	0.000777	8
	8	3	158578.1	2723.484	-389.0236	1	2751.128	-8.129162	-1.295151E-006	0.0014403	8
	9	4	125953.1	2777.582	-320.236	1	2795.981	-6.57677	5.799639E-007	0.0029511	7
	10	4	100078.1	2801.118	-304.5069	1	2817.62	-6.204207	5.755932E-007	0.0011642	7
	11	4	79453.13	2829.746	-306.0429	1	2846.248	-6.172664	9.429167E-008	-0.0002294	7
	12	5	63140.62	2857.469	-312.9711	1	2874.557	-6.250543	7.711417E-007	0.0007666	7
	13	5	50203.12	2887.711	-324.4745	1	2905.883	-6.411087	-8.125772E-007	0.0025444	7
	14	5	39890.62	2921.448	-343.8335	1	2941.612	-6.712424	9.354032E-007	0.0003172	7
	15	5	31640.63	2957.141	-368.3671	1	2979.996	-7.100682	8.838837E-007	-0.0005353	7
	16	6	25171.88	2993.805	-398.6916	1	3020.236	-7.585572	8.640163E-008	0.0018611	7
	17	6	20015.62	3035.668	-437.9247	1	3067.093	-8.208841	-1.126787E-006	0.0020224	7
	18	6	15890.62	3081.787	-486.1963	1	3119.904	-8.96534	6.973395E-007	-0.0006111	7
	19	7	12609.37	3131.633	-542.9081	1	3178.344	-9.83519	-2.516242E-007	0.002235	7
	20	7	10078.13	3181.583	-611.2313	1	3239.765	-10.8749	-2.532884E-007	0.0022301	7
	21	7	8015.625	3248.255	-685.5992	1	3319.82	-11.91832	8.845151E-007	-0.0005438	7
	22	8	6328.125	3318.096	-779.803	1	3408.497	-13.22538	-1.126956E-006	0.0020189	7
	23	8	5015.625	3394.729	-890.0455	1	3509.468	-14.69139	5.776466E-007	0.0011497	7
	24	8	3984.375	3474.505	-1019.896	1	3621.101	-16.35892	-1.003736E-006	0.0024895	7
	25	9	3170.956	3562.566	-1166.166	1	3748.575	-18.12527	-2.52829E-007	0.0022232	7
	26	9	2527.573	3655.136	-1342.955	1	3894.04	-20.17413	-1.128009E-006	0.0023483	7
	27	9	1976.103	3761.437	-1578.074	1	4079.06	-22.76001	5.766012E-007	0.0011513	7
	28	10	1577.524	3873.646	-1824.915	1	4281.992	-25.22561	-2.528321E-007	0.0022231	7
	29	10	1265.625	3978.597	-2145.648	1	4520.292	-28.33788	5.778014E-007	0.0011472	7
	30	10	998.264	4107.809	-2552.829	1	4836.427	-31.8592	8.504205E-008	0.0018496	7
	31	10	796.875	4243.512	-3032.669	1	5215.791	-35.55188	-2.929907E-007	0.0002257	7
	32	11	627.7902	4399.713	-3666.358	1	5727.099	-39.80504	1.010286E-006	-6.496751E-005	7
	33	11	505.5147	4569.865	-4363.691	1	6318.66	-43.67793	-1.129583E-006	0.0023414	7
	34	11	397.9953	4778.773	-5327.697	1	7156.887	-48.10891	2.90912E-009	0.0010178	7
	35	12	315.5048	5028.443	-6488.311	1	8208.74	-52.2243	2.184307E-009	0.0010162	7
	36	12	252.4038	5323.567	-7859.917	1	9493.085	-55.88999	4.12315E-009	0.0010112	7
	37	12	198.6229	5723.916	-9675.59	1	11241.9	-59.39217	6.485955E-010	0.0009513	6
	38	13	158.3615	6208.491	-11788.34	1	13323.3	-62.22585	2.432352E-010	0.0009551	6
	39	13	125.558	6838.664	-14436.42	1	15974.28	-64.65266	7.634154E-010	0.0009505	6
	40	13	100.4464	7638.178	-17544.29	1	19134.88	-66.47335	1.205625E-009	0.0009537	6
	41	14	79.00281	8755.261	-21552.36	1	23262.82	-67.89143	8.86674E-010	0.000948	6
	42	14	63.3446	10215.05	-25951.64	1	27889.69	-68.51447	1.048025E-009	0.0009406	6
	43	14	49.86702	12116.63	-31910.52	1	34133.47	-69.2079	1.326026E-009	0.000936	6
	44	15	39.72458	14343.32	-38631.32	1	41208.13	-69.63068	3.245345E-010	0.0009415	6
	45	15	31.6723	17378.58	-46600.8	1	49735.8	-69.54828	8.506327E-010	0.0009505	6
	46	15	24.93351	21433.77	-56456.8	1	60388.55	-69.21078	6.542262E-010	0.0009516	6
	47	16	19.86229	26487.69	-67460.74	1	72474.48	-68.56312	1.382028E-009	0.0009503	6
	48	16	15.83615	33213.99	-80059.48	1	86675.77	-67.46808	2.290428E-009	0.0009515	6
	49	16	12.40079	41115.4	-95628.9	1	104093	-66.73483	2.681806E-009	0.0009494	6
	50	16	9.93114	51204.21	-112822.2	1	123898.1	-65.58914	9.294494E-010	0.0009437	5
	51	17	7.944915	62705.05	-131635.9	1	145807.9	-64.52911	1.11773E-009	0.000942	5
	52	18	6.317385	77548.77	-153359.9	1	171851.8	-63.17585	7.693085E-010	0.0009407	5
	53	18	5.008013	95327	-178201.3	1	202096.3	-61.85588	2.537584E-010	0.0009405	5
	54	19	3.945707	116764.3	-206659.7	1	237365	-60.53322	5.920452E-010	0.000943	5
	55	21	3.158693	139775.5	-236103.7	1	274375.9	-59.37408	4.160225E-010	0.0009604	5
	56	22	2.504006	167450.9	-270484.4	1	318122.1	-58.23927	2.175149E-010	0.0009483	5
	57	24	1.998082	196877.7	-307797.7	1	365376.9	-57.39567	2.402406E-010	0.0009235	5
	58	25	1.584686	231565.7	-350298	1	419918.3	-56.53317	3.717162E-010	0.0009686	5
	59	27	1.266892	269091.5	-398148.9	1	480554.7	-55.94695	3.985126E-010	0.000978	5
	60	30	0.999041	312654.8	-456826.3	1	553573.2	-55.61201	4.042604E-010	0.0009774	5
