EXPLAIN
TAG	EISPOT
TITLE	LABEL	Potentiostatic EIS	Test &Identifier
DATE	LABEL	10/26/2019	Date
TIME	LABEL	10:52:01	Time
NOTES	NOTES	1	&Notes...
	
PSTAT	PSTAT	REF600-11020	Potentiostat
VDC	POTEN	0.00000E+000	T	DC &Voltage (V)
FREQINIT	QUANT	1.00000E+006	Initial Fre&q. (Hz)
FREQFINAL	QUANT	1.00000E+000	Final Fre&q. (Hz)
PTSPERDEC	QUANT	1.00000E+001	Points/&decade
VAC	QUANT	2.50000E+001	AC &Voltage (mV rms)
AREA	QUANT	1.00000E-002	&Area (cm^2)
CONDIT	TWOPARAM	T	5.00000E+000	0.00000E+000	Conditionin&g	Time(s)	E(V)
DELAY	TWOPARAM	T	5.00000E+000	0.00000E+000	Init. De&lay	Time(s)	Stab.(mV/s)
SPEED	SELECTOR	0	&Optimize for:
ZGUESS	QUANT	1.00000E+005	E&stimated Z (ohms)
OCVCURVE	TABLE	19
	Pt	T	Vf	Vm	Ach	Over
	#	s	V vs. Ref.	V	V	bits
	0	0.258333	1.02536E-003	1.02536E-003	5.51566E-004	...........
	1	0.516667	1.01727E-003	6.01939E-004	5.56599E-004	...........
	2	0.775	9.68827E-004	2.64705E-004	5.60232E-004	...........
	3	1.03333	8.36537E-004	-2.29684E-005	5.52033E-004	...........
	4	1.29167	6.08912E-004	-3.94309E-004	5.53966E-004	...........
	5	1.55	3.15097E-004	-6.66611E-004	5.53032E-004	...........
	6	1.80833	-4.77038E-006	-8.78728E-004	5.51099E-004	...........
	7	2.06667	-3.18345E-004	-1.16065E-003	5.48966E-004	...........
	8	2.325	-6.07547E-004	-1.34046E-003	5.50366E-004	...........
	9	2.58333	-8.70101E-004	-1.59543E-003	5.51566E-004	...........
	10	2.84167	-1.11334E-003	-1.85083E-003	5.48833E-004	...........
	11	3.1	-1.34781E-003	-2.04556E-003	5.46733E-004	...........
	12	3.35833	-1.57812E-003	-2.17125E-003	5.46066E-004	...........
	13	3.61667	-1.79998E-003	-2.52531E-003	5.56966E-004	...........
	14	3.875	-1.97981E-003	-8.67574E-004	5.55466E-004	...........
	15	4.13333	-2.04175E-003	-2.41492E-003	5.57333E-004	...........
	16	4.39167	-2.00011E-003	-2.94192E-003	5.50999E-004	...........
	17	4.65	-2.03068E-003	-2.73078E-003	5.54666E-004	...........
	18	4.90833	-2.25175E-003	-3.75201E-003	5.58132E-004	...........
EOC	QUANT	-0.0022517	Open Circuit (V)
PSTATMODEL	IQUANT	4	Pstat Model
PSTATSECTION	LABEL	REF600-11020	Pstat Section
PSTATSERIALNO	LABEL	11020	Pstat Serial Number
CTRLMODE	IQUANT	1	Control Mode
IESTAB	IQUANT	0	I/E Stability
CASPEED	IQUANT	1	Control Amp Speed
CONVENTION	IQUANT	1	Current Convention
ICHRANGE	IQUANT	2	Ich Range
ICHRANGEMODE	TOGGLE	F	Ich Auto Range
ICHOFFSETENABLE	TOGGLE	T	Ich Offset Enable
ICHOFFSET	QUANT	0	Ich Offset (V)
ICHFILTER	IQUANT	3	Ich Filter
VCHRANGE	IQUANT	2	Vch Range
VCHRANGEMODE	TOGGLE	F	Vch Auto Range
VCHOFFSETENABLE	TOGGLE	T	Vch Offset Enable
VCHOFFSET	QUANT	0	Vch Offset (V)
VCHFILTER	IQUANT	3	Vch Filter
ACHRANGE	IQUANT	2	Ach Range
ACHOFFSETENABLE	TOGGLE	F	Ach Offset Enable
ACHOFFSET	QUANT	0	Ach Offset (V)
ACHFILTER	IQUANT	3	Ach Filter
IERANGELOWERLIMIT	IQUANT	1	I/E Range Lower Limit
IERANGEMODE	TOGGLE	F	I/E AutoRange
IERANGE	IQUANT	4	I/E Range
POSFEEDENABLE	TOGGLE	F	Positive Feedback IR Comp
POSFEEDRESISTANCE	QUANT	0	Positive Feedback Resistance (ohm)
ACHSELECT	IQUANT	0	Ach Select
CABLEID	IQUANT	14	Cable ID
DCCALDATE	LABEL	8/19/2019	DC Calibration Date
ACCALDATE	LABEL	8/19/2019	AC Calibration Date
THERMOSELECT	IQUANT	1	Thermo Select
FRAMEWORKVERSION	QUANT	6.33	Framework Version
INSTRUMENTVERSION	LABEL	3.50	Instrument Version
ZCURVE	TABLE
	Pt	Time	Freq	Zreal	Zimag	Zsig	Zmod	Zphz	Idc	Vdc	IERange
	#	s	Hz	ohm	ohm	V	ohm	°	A	V	#
	0	1	1000078	2203.146	-1687.851	1	2775.373	-37.45608	-2.315847E-007	-0.0001264	8
	1	2	794390.6	2527.313	-1672.422	1	3030.561	-33.49416	-4.135522E-006	0.00042	8
	2	2	630984.4	2847.776	-1623.418	1	3278.004	-29.68596	-1.861138E-006	4.634243E-005	8
	3	2	501234.4	3140.301	-1523.338	1	3490.279	-25.8777	-8.154823E-008	-0.0006077	8
	4	3	398109.4	3405.161	-1401.69	1	3682.371	-22.37388	-1.679947E-006	-0.000357	8
	5	3	316265.6	3627.359	-1266.35	1	3842.053	-19.24465	3.513871E-006	-0.001425	8
	6	3	251203.1	3793.019	-1112.524	1	3952.81	-16.34685	-2.156792E-006	-0.0001743	8
	7	4	199546.9	3930.059	-986.656	1	4052.019	-14.09306	-1.936913E-006	-0.0001892	8
	8	4	158578.1	4059.922	-835.1993	1	4144.94	-11.6246	-2.295828E-006	-0.0002482	8
	9	4	125953.1	4168.111	-702.7111	1	4226.932	-9.56963	-5.97327E-009	-0.0010352	7
	10	5	100078.1	4221.036	-597.1083	1	4263.06	-8.051645	-2.76686E-008	-0.0007398	7
	11	5	79453.13	4273.435	-533.0652	1	4306.554	-7.110308	-1.27619E-008	-0.0007199	7
	12	5	63140.62	4314.168	-482.1095	1	4341.022	-6.376364	-4.040317E-008	-0.000658	7
	13	6	50203.12	4352.096	-445.4656	1	4374.834	-5.844247	-3.179369E-009	-0.0007571	7
	14	6	39890.62	4384.51	-420.2224	1	4404.602	-5.474648	1.124604E-008	-0.0006769	7
	15	6	31640.63	4417.727	-410.3116	1	4436.741	-5.30632	-5.518174E-008	-0.0006573	7
	16	6	25171.88	4446.674	-411.796	1	4465.701	-5.290936	-4.135737E-009	-0.0007538	7
	17	7	20015.62	4482.123	-420.0469	1	4501.763	-5.353898	-2.731077E-008	-0.0007534	7
	18	7	15890.62	4509.164	-447.672	1	4531.332	-5.669774	8.223697E-008	-0.0008294	7
	19	7	12609.37	4540.59	-485.239	1	4566.444	-6.099875	-5.101498E-009	-0.0007789	7
	20	8	10078.13	4573.664	-534.9985	1	4604.848	-6.671782	-4.896763E-009	-0.0007564	7
	21	8	8015.625	4596.888	-607.8727	1	4636.905	-7.532844	3.532589E-008	-0.00087	7
	22	8	6328.125	4645.598	-692.4803	1	4696.925	-8.478176	-4.407711E-008	-0.0006976	7
	23	9	5015.625	4684.773	-808.2953	1	4753.992	-9.78924	-5.049902E-009	-0.0007572	7
	24	9	3984.375	4717.202	-941.3115	1	4810.204	-11.28507	-5.457542E-008	-0.0006659	7
	25	9	3170.956	4781.405	-1123.566	1	4911.643	-13.22383	-5.518735E-009	-0.0007825	7
	26	10	2527.573	4839.202	-1336.628	1	5020.403	-15.44059	1.089914E-008	-0.0008227	7
	27	10	1976.103	4907.858	-1622.951	1	5169.24	-18.29823	3.496179E-008	-0.000878	7
	28	10	1577.524	4976.178	-1967.799	1	5351.129	-21.57602	-6.39392E-008	-0.0006746	7
	29	11	1265.625	5067.26	-2342.151	1	5582.365	-24.80697	-5.37628E-008	-0.0006661	7
	30	11	998.264	5171.592	-2856.618	1	5908.099	-28.91482	6.716287E-008	-0.0009002	7
	31	11	796.875	5286.336	-3465.93	1	6321.235	-33.25043	1.177048E-008	-0.0008233	7
	32	12	627.7902	5427.844	-4262.769	1	6901.644	-38.14439	-1.447567E-008	-0.0007383	7
	33	12	505.5147	5590.198	-5147.917	1	7599.432	-42.64144	-4.674921E-008	-0.000707	7
	34	12	397.9953	5802.916	-6362.609	1	8611.424	-47.63412	1.500927E-009	-0.0007351	7
	35	13	315.5048	6059.19	-7821.844	1	9894.19	-52.23685	2.473238E-009	-0.0007361	7
	36	13	252.4038	6372.059	-9545.28	1	11476.74	-56.27446	-3.696985E-010	-0.000801	6
	37	13	198.6229	6795.323	-11832.33	1	13644.79	-60.13119	4.640628E-010	-0.0008047	6
	38	13	158.3615	7318.81	-14495.86	1	16238.69	-63.21127	1.635374E-010	-0.0008057	6
	39	14	125.558	8004.408	-17845.26	1	19558.21	-65.8416	2.466777E-010	-0.000802	6
	40	14	100.4464	8841.12	-21755.16	1	23483.03	-67.88358	1.463907E-009	-0.000811	6
	41	14	79.00281	10088.88	-26873.86	1	28705.22	-69.42307	1.236431E-009	-0.0008073	6
	42	15	63.3446	11713.69	-33087.57	1	35099.82	-70.50498	-3.402808E-010	-0.000805	6
	43	15	49.86702	13670.45	-40612.05	1	42851.14	-71.39622	7.196234E-011	-0.000811	6
	44	16	39.72458	16383.25	-49074.36	1	51736.87	-71.53864	3.335211E-010	-0.000805	6
	45	16	31.6723	19827.07	-59278.19	1	62506.13	-71.5062	-2.649125E-010	-0.0008088	6
	46	16	24.93351	24520.98	-72724.66	1	76747.35	-71.36715	5.31781E-010	-0.0008057	6
	47	17	19.86229	30538.26	-87774.5	1	92935.18	-70.81634	1.593777E-009	-0.0007982	6
	48	17	15.83615	39426.88	-104726.4	1	111902.2	-69.3699	-1.870048E-009	-0.0008001	5
	49	17	12.40079	49923.68	-126532.4	1	136025.1	-68.46816	1.866728E-009	-0.0008028	5
	50	18	9.93114	62531.61	-150463.7	1	162940.2	-67.43259	-3.458749E-010	-0.000802	5
	51	18	7.944915	78618.88	-176715.5	1	193414.8	-66.01622	-3.399339E-010	-0.0008017	5
	52	19	6.317385	99072.1	-206414.6	1	228959.1	-64.36055	-3.272502E-010	-0.0007883	5
	53	19	5.008013	124659.8	-239724.8	1	270200	-62.52502	-2.53582E-010	-0.0008116	5
	54	21	3.945707	156753.3	-277382.8	1	318610.8	-60.52855	3.885541E-010	-0.0008048	5
	55	22	3.158693	189900	-314047.9	1	366998.8	-58.83928	1.163999E-010	-0.0007833	5
	56	24	2.504006	229926.8	-356228.2	1	423986.8	-57.15986	-1.395335E-010	-0.0007932	5
	57	25	1.998082	271253.6	-398901.2	1	482390.6	-55.78422	8.495381E-011	-0.0007807	5
	58	26	1.584686	317736	-448623.4	1	549744.6	-54.6921	1.887935E-010	-0.0007466	5
	59	28	1.266892	363739.6	-503136.9	1	620848.8	-54.1352	1.352692E-010	-0.0007703	5
	60	31	0.999041	414869.4	-569274	1	704407.2	-53.91658	1.006804E-010	-0.0008027	5
