EXPLAIN
TAG	EISPOT
TITLE	LABEL	Potentiostatic EIS	Test &Identifier
DATE	LABEL	10/14/2019	Date
TIME	LABEL	10:16:55	Time
NOTES	NOTES	1	&Notes...
	
PSTAT	PSTAT	REF600-11020	Potentiostat
VDC	POTEN	0.00000E+000	T	DC &Voltage (V)
FREQINIT	QUANT	1.00000E+006	Initial Fre&q. (Hz)
FREQFINAL	QUANT	1.00000E+000	Final Fre&q. (Hz)
PTSPERDEC	QUANT	1.00000E+001	Points/&decade
VAC	QUANT	2.50000E+001	AC &Voltage (mV rms)
AREA	QUANT	1.00000E-002	&Area (cm^2)
CONDIT	TWOPARAM	T	5.00000E+000	0.00000E+000	Conditionin&g	Time(s)	E(V)
DELAY	TWOPARAM	T	5.00000E+000	0.00000E+000	Init. De&lay	Time(s)	Stab.(mV/s)
SPEED	SELECTOR	1	&Optimize for:
ZGUESS	QUANT	1.00000E+004	E&stimated Z (ohms)
OCVCURVE	TABLE	19
	Pt	T	Vf	Vm	Ach	Over
	#	s	V vs. Ref.	V	V	bits
	0	0.258333	6.05616E-003	6.05616E-003	5.58332E-004	...........
	1	0.516667	6.05611E-003	6.05362E-003	5.60032E-004	...........
	2	0.775	6.05625E-003	6.07402E-003	5.59032E-004	...........
	3	1.03333	6.05783E-003	6.07984E-003	5.61766E-004	...........
	4	1.29167	6.06285E-003	6.11429E-003	5.58166E-004	...........
	5	1.55	6.07311E-003	6.13845E-003	5.56799E-004	...........
	6	1.80833	6.08965E-003	6.17385E-003	5.60166E-004	...........
	7	2.06667	6.11201E-003	6.18821E-003	5.61399E-004	...........
	8	2.325	6.13806E-003	6.23102E-003	5.59432E-004	...........
	9	2.58333	6.16606E-003	6.27087E-003	5.59666E-004	...........
	10	2.84167	6.19657E-003	6.31364E-003	5.63266E-004	...........
	11	3.1	6.23191E-003	6.40506E-003	5.58066E-004	...........
	12	3.35833	6.27501E-003	6.44380E-003	5.60966E-004	...........
	13	3.61667	6.32854E-003	6.59967E-003	5.60366E-004	...........
	14	3.875	6.39458E-003	6.63157E-003	5.63899E-004	...........
	15	4.13333	6.47112E-003	6.67857E-003	5.62466E-004	...........
	16	4.39167	6.55451E-003	7.03600E-003	5.63532E-004	...........
	17	4.65	6.65778E-003	7.30807E-003	5.59832E-004	...........
	18	4.90833	6.80499E-003	7.33231E-003	5.63299E-004	...........
EOC	QUANT	0.006805	Open Circuit (V)
PSTATMODEL	IQUANT	4	Pstat Model
PSTATSECTION	LABEL	REF600-11020	Pstat Section
PSTATSERIALNO	LABEL	11020	Pstat Serial Number
CTRLMODE	IQUANT	1	Control Mode
IESTAB	IQUANT	0	I/E Stability
CASPEED	IQUANT	1	Control Amp Speed
CONVENTION	IQUANT	1	Current Convention
ICHRANGE	IQUANT	2	Ich Range
ICHRANGEMODE	TOGGLE	F	Ich Auto Range
ICHOFFSETENABLE	TOGGLE	T	Ich Offset Enable
ICHOFFSET	QUANT	0	Ich Offset (V)
ICHFILTER	IQUANT	3	Ich Filter
VCHRANGE	IQUANT	2	Vch Range
VCHRANGEMODE	TOGGLE	F	Vch Auto Range
VCHOFFSETENABLE	TOGGLE	T	Vch Offset Enable
VCHOFFSET	QUANT	0	Vch Offset (V)
VCHFILTER	IQUANT	3	Vch Filter
ACHRANGE	IQUANT	2	Ach Range
ACHOFFSETENABLE	TOGGLE	F	Ach Offset Enable
ACHOFFSET	QUANT	0	Ach Offset (V)
ACHFILTER	IQUANT	3	Ach Filter
IERANGELOWERLIMIT	IQUANT	1	I/E Range Lower Limit
IERANGEMODE	TOGGLE	F	I/E AutoRange
IERANGE	IQUANT	6	I/E Range
POSFEEDENABLE	TOGGLE	F	Positive Feedback IR Comp
POSFEEDRESISTANCE	QUANT	0	Positive Feedback Resistance (ohm)
ACHSELECT	IQUANT	0	Ach Select
CABLEID	IQUANT	14	Cable ID
DCCALDATE	LABEL	8/19/2019	DC Calibration Date
ACCALDATE	LABEL	8/19/2019	AC Calibration Date
THERMOSELECT	IQUANT	1	Thermo Select
FRAMEWORKVERSION	QUANT	6.33	Framework Version
INSTRUMENTVERSION	LABEL	3.50	Instrument Version
ZCURVE	TABLE
	Pt	Time	Freq	Zreal	Zimag	Zsig	Zmod	Zphz	Idc	Vdc	IERange
	#	s	Hz	ohm	ohm	V	ohm	°	A	V	#
	0	1	1000078	2288.246	-1667.199	1	2831.187	-36.07681	4.177129E-006	0.0079444	8
	1	3	794390.6	2612.877	-1641.924	1	3085.943	-32.14512	-1.572263E-006	0.0085899	8
	2	4	630984.4	2919.854	-1576.514	1	3318.274	-28.36589	-3.194817E-006	0.0093604	8
	3	5	501234.4	3201.528	-1505.251	1	3537.734	-25.18134	8.555561E-007	0.0084993	8
	4	7	398109.4	3448.353	-1386.717	1	3716.735	-21.90698	-2.991703E-006	0.0089559	8
	5	8	316265.6	3688.315	-1268.053	1	3900.208	-18.97312	4.832735E-007	0.0084316	8
	6	9	251203.1	3867.118	-1128.681	1	4028.464	-16.27073	-2.497006E-006	0.0088339	8
	7	11	199546.9	4012.316	-986.486	1	4131.808	-13.81302	4.209046E-007	0.0083432	8
	8	12	158578.1	4153.168	-854.6034	1	4240.184	-11.62754	4.392307E-007	0.0083747	8
	9	14	125953.1	4252.109	-710.2477	1	4311.019	-9.482811	-5.762407E-007	0.0099293	7
	10	15	100078.1	4312.455	-617.4451	1	4356.433	-8.14807	-1.200085E-008	0.0083297	7
	11	16	79453.13	4368.344	-546.2291	1	4402.363	-7.127419	1.013182E-008	0.0082309	7
	12	18	63140.62	4413.981	-491.8778	1	4441.303	-6.358597	-5.768364E-008	0.0083976	7
	13	19	50203.12	4453.896	-450.2012	1	4476.591	-5.771872	8.899726E-008	0.0082256	7
	14	20	39890.62	4486.223	-420.5792	1	4505.895	-5.355772	-6.246556E-008	0.0084068	7
	15	22	31640.63	4519.789	-403.1282	1	4537.731	-5.096828	1.171386E-007	0.0081289	7
	16	23	25171.88	4549.754	-397.2064	1	4567.06	-4.989433	9.334474E-008	0.008223	7
	17	24	20015.62	4576.299	-393.0746	1	4593.149	-4.90929	1.167776E-007	0.0081243	7
	18	26	15890.62	4609.806	-421.8765	1	4629.07	-5.228984	-1.988943E-008	0.0083366	7
	19	27	12609.37	4636.562	-451.4078	1	4658.484	-5.560695	1.196811E-007	0.0081187	7
	20	28	10078.13	4666.513	-492.8508	1	4692.467	-6.028908	-2.595278E-008	0.0082781	7
	21	30	8015.625	4706.749	-544.5989	1	4738.15	-6.600114	-1.044596E-008	0.0082552	7
	22	31	6328.125	4733.057	-633.6726	1	4775.287	-7.625546	-3.8206E-008	0.0082989	7
	23	33	5015.625	4770	-737.1255	1	4826.619	-8.784638	5.354609E-009	0.0082736	7
	24	34	3984.375	4780.576	-872.7551	1	4859.589	-10.34614	5.581213E-009	0.0082705	7
	25	35	3170.956	4856.884	-1023.921	1	4963.642	-11.90469	-7.11427E-009	0.0082444	7
	26	37	2527.573	4909.163	-1219.117	1	5058.273	-13.94642	-7.201529E-008	0.0083796	7
	27	38	1976.103	4974.356	-1481.653	1	5190.329	-16.5866	-9.714618E-009	0.0082392	7
	28	39	1577.524	5058.603	-1773.179	1	5360.376	-19.31696	4.451777E-008	0.0081545	7
	29	41	1265.625	5121.018	-2131.531	1	5546.913	-22.59864	-1.669213E-008	0.0083354	7
	30	42	998.264	5219.17	-2604.672	1	5833.014	-26.52188	7.653392E-008	0.0081299	7
	31	43	796.875	5327.533	-3148.677	1	6188.439	-30.58393	-6.985718E-008	0.0083792	7
	32	45	627.7902	5463.371	-3864.508	1	6691.999	-35.27363	-3.64502E-008	0.008291	7
	33	46	505.5147	5609.859	-4667.061	1	7297.395	-39.75839	-6.774395E-009	0.0083358	7
	34	47	397.9953	5799.714	-5754.569	1	8170.174	-44.77614	3.676929E-009	0.0082944	7
	35	49	315.5048	6028.648	-7066.611	1	9288.789	-49.53193	5.708207E-009	0.0082902	7
	36	50	252.4038	6303.063	-8619.438	1	10678.17	-53.82343	3.813735E-010	0.0082296	6
	37	51	198.6229	6670.408	-10678.89	1	12590.99	-58.00967	9.142774E-010	0.0082255	6
	38	53	158.3615	7115.474	-13080.93	1	14890.96	-61.45568	7.316996E-010	0.0082272	6
	39	54	125.558	7699.608	-16116.03	1	17860.86	-64.46336	1.046606E-009	0.008235	6
	40	56	100.4464	8415.872	-19673.58	1	21398.05	-66.83995	1.877359E-009	0.0082294	6
	41	57	79.00281	9492.69	-24421.66	1	26201.69	-68.75891	6.066764E-010	0.0082283	6
	42	58	63.3446	10818.05	-29452.67	1	31376.58	-69.83157	6.220299E-010	0.008231	6
	43	60	49.86702	12611.88	-36814.52	1	38914.89	-71.08961	1.019347E-009	0.0082362	6
	44	61	39.72458	14718.71	-44799.47	1	47155.41	-71.81224	7.368914E-010	0.0082379	6
	45	62	31.6723	17848.06	-54458.16	1	57308.33	-71.85401	1.293099E-009	0.0082378	6
	46	64	24.93351	21916.98	-66785.89	1	70290.18	-71.83183	2.238568E-010	0.0082313	6
	47	65	19.86229	27178.4	-80780.08	1	85229.61	-71.40452	1.381015E-009	0.0082286	6
	48	66	15.83615	33430.97	-97779.2	1	103336.4	-71.12431	-1.144228E-009	0.0082258	6
	49	68	12.40079	43840.84	-117647.1	1	125550.2	-69.56224	6.723884E-010	0.0082318	5
	50	69	9.93114	56153.34	-139972.3	1	150815.9	-68.14059	4.050587E-010	0.0082385	5
	51	71	7.944915	70440.5	-165370.8	1	179748.1	-66.92818	1.939191E-010	0.0082381	5
	52	72	6.317385	90177.16	-193232.9	1	213239	-64.98267	-1.492464E-010	0.0082457	5
	53	75	5.008013	113967.3	-224736.1	1	251981.9	-63.10971	3.303182E-010	0.0082344	5
	54	77	3.945707	143373.2	-260112.2	1	297008.8	-61.13655	9.044109E-011	0.0082343	5
	55	80	3.158693	174757.4	-295226.6	1	343072.7	-59.37688	2.565048E-010	0.0082477	5
	56	83	2.504006	211690	-335653.8	1	396832.6	-57.76121	-1.816674E-010	0.0082274	5
	57	86	1.998082	251026.6	-377786.1	1	453582.1	-56.39725	-2.090351E-010	0.0082185	5
	58	89	1.584686	294629.6	-423762.5	1	516121.3	-55.19025	-2.204534E-011	0.0082774	5
	59	92	1.266892	338983.5	-476860.5	1	585069.1	-54.5923	-1.508231E-010	0.0082129	5
	60	97	0.999041	389207.3	-540469.3	1	666025.1	-54.24127	2.493904E-010	0.0082695	5
