EXPLAIN
TAG	EISPOT
TITLE	LABEL	Potentiostatic IDE	Test &Identifier
DATE	LABEL	9/18/2019	Date
TIME	LABEL	8:31:47	Time
NOTES	NOTES	1	&Notes...
	
PSTAT	PSTAT	REF600-11020	Potentiostat
VDC	POTEN	0.00000E+000	T	DC &Voltage (V)
FREQINIT	QUANT	1.00000E+006	Initial Fre&q. (Hz)
FREQFINAL	QUANT	1.00000E+000	Final Fre&q. (Hz)
PTSPERDEC	QUANT	1.00000E+001	Points/&decade
VAC	QUANT	2.50000E+001	AC &Voltage (mV rms)
AREA	QUANT	1.00000E-002	&Area (cm^2)
CONDIT	TWOPARAM	T	5.00000E+000	0.00000E+000	Conditionin&g	Time(s)	E(V)
DELAY	TWOPARAM	T	5.00000E+000	0.00000E+000	Init. De&lay	Time(s)	Stab.(mV/s)
SPEED	SELECTOR	1	&Optimize for:
ZGUESS	QUANT	1.00000E+007	E&stimated Z (ohms)
OCVCURVE	TABLE	19
	Pt	T	Vf	Vm	Ach	Over
	#	s	V vs. Ref.	V	V	bits
	0	0.258333	-4.60705E-003	-4.60705E-003	5.62932E-004	...........
	1	0.516667	-4.61311E-003	-4.92447E-003	5.65699E-004	...........
	2	0.775	-4.65283E-003	-5.35512E-003	5.67866E-004	...........
	3	1.03333	-4.77089E-003	-5.63591E-003	5.64499E-004	...........
	4	1.29167	-4.98785E-003	-5.94851E-003	5.62566E-004	...........
	5	1.55	-5.27713E-003	-6.24987E-003	5.63499E-004	...........
	6	1.80833	-5.59359E-003	-6.49393E-003	5.67766E-004	...........
	7	2.06667	-5.90342E-003	-6.66026E-003	5.63432E-004	...........
	8	2.325	-6.18518E-003	-6.81027E-003	5.61999E-004	...........
	9	2.58333	-6.42621E-003	-6.95743E-003	5.65099E-004	...........
	10	2.84167	-6.62818E-003	-7.21272E-003	5.63699E-004	...........
	11	3.1	-6.81335E-003	-7.61405E-003	5.72066E-004	...........
	12	3.35833	-7.01375E-003	-7.66563E-003	5.68032E-004	...........
	13	3.61667	-7.23796E-003	-7.84705E-003	5.67532E-004	...........
	14	3.875	-7.46082E-003	-7.99076E-003	5.60866E-004	...........
	15	4.13333	-7.65838E-003	-8.17248E-003	5.65932E-004	...........
	16	4.39167	-7.83059E-003	-8.26136E-003	5.65832E-004	...........
	17	4.65	-7.98843E-003	-8.51937E-003	5.61666E-004	...........
	18	4.90833	-8.14270E-003	-8.61959E-003	5.60299E-004	...........
EOC	QUANT	-0.0081427	Open Circuit (V)
PSTATMODEL	IQUANT	4	Pstat Model
PSTATSECTION	LABEL	REF600-11020	Pstat Section
PSTATSERIALNO	LABEL	11020	Pstat Serial Number
CTRLMODE	IQUANT	1	Control Mode
IESTAB	IQUANT	0	I/E Stability
CASPEED	IQUANT	1	Control Amp Speed
CONVENTION	IQUANT	1	Current Convention
ICHRANGE	IQUANT	2	Ich Range
ICHRANGEMODE	TOGGLE	F	Ich Auto Range
ICHOFFSETENABLE	TOGGLE	T	Ich Offset Enable
ICHOFFSET	QUANT	0	Ich Offset (V)
ICHFILTER	IQUANT	3	Ich Filter
VCHRANGE	IQUANT	2	Vch Range
VCHRANGEMODE	TOGGLE	F	Vch Auto Range
VCHOFFSETENABLE	TOGGLE	T	Vch Offset Enable
VCHOFFSET	QUANT	0	Vch Offset (V)
VCHFILTER	IQUANT	3	Vch Filter
ACHRANGE	IQUANT	2	Ach Range
ACHOFFSETENABLE	TOGGLE	F	Ach Offset Enable
ACHOFFSET	QUANT	0	Ach Offset (V)
ACHFILTER	IQUANT	3	Ach Filter
IERANGELOWERLIMIT	IQUANT	1	I/E Range Lower Limit
IERANGEMODE	TOGGLE	F	I/E AutoRange
IERANGE	IQUANT	3	I/E Range
POSFEEDENABLE	TOGGLE	F	Positive Feedback IR Comp
POSFEEDRESISTANCE	QUANT	0	Positive Feedback Resistance (ohm)
ACHSELECT	IQUANT	0	Ach Select
CABLEID	IQUANT	14	Cable ID
DCCALDATE	LABEL	8/19/2019	DC Calibration Date
ACCALDATE	LABEL	8/19/2019	AC Calibration Date
THERMOSELECT	IQUANT	1	Thermo Select
FRAMEWORKVERSION	QUANT	6.33	Framework Version
INSTRUMENTVERSION	LABEL	3.50	Instrument Version
ZCURVE	TABLE
	Pt	Time	Freq	Zreal	Zimag	Zsig	Zmod	Zphz	Idc	Vdc	IERange
	#	s	Hz	ohm	ohm	V	ohm	°	A	V	#
	0	2	1000078	1364.851	-2381.217	1	2744.634	-60.17979	-3.287449E-006	-0.0050882	8
	1	3	794390.6	1517.504	-2804.184	1	3188.458	-61.57965	3.72636E-006	-0.0069951	8
	2	5	630984.4	1696.323	-3308.013	1	3717.588	-62.85161	8.13325E-007	-0.0068367	8
	3	6	501234.4	1885.044	-3931.252	1	4359.832	-64.38218	3.705717E-006	-0.0073904	8
	4	7	398109.4	2104.077	-4708.811	1	5157.523	-65.92308	6.566198E-007	-0.0066758	8
	5	9	316265.6	2387.267	-5633.312	1	6118.271	-67.0339	1.961428E-006	-0.0071174	8
	6	10	251203.1	2749.871	-6877.376	1	7406.76	-68.20634	1.142138E-006	-0.0069301	8
	7	12	199546.9	3269.269	-8290.722	1	8912.024	-68.47926	1.948801E-006	-0.0071377	8
	8	14	158578.1	3778.067	-9949.01	1	10642.21	-69.20608	-1.140388E-006	-0.0064627	8
	9	15	125953.1	4570.25	-12040.94	1	12879.11	-69.21528	1.156566E-006	-0.0089464	7
	10	17	100078.1	5535.025	-14432.44	1	15457.42	-69.01755	-2.139795E-008	-0.0066753	7
	11	18	79453.13	6813.353	-17454.82	1	18737.46	-68.6772	6.546375E-008	-0.0067565	7
	12	19	63140.62	8473.315	-20966.06	1	22613.55	-67.99418	6.670987E-008	-0.0067622	7
	13	21	50203.12	10699.79	-24955.06	1	27152.18	-66.79217	-2.415181E-008	-0.0066805	7
	14	22	39890.62	13615.1	-29442.26	1	32437.91	-65.18259	-5.192347E-009	-0.0066907	7
	15	24	31640.63	17559.2	-35014.39	1	39170.57	-63.36692	2.963857E-008	-0.006776	7
	16	25	25171.88	22420.52	-40718.16	1	46482.77	-61.16163	2.405749E-008	-0.0067043	7
	17	27	20015.62	28935.1	-46765.84	1	54993.49	-58.25397	9.850327E-008	-0.0068872	7
	18	28	15890.62	36468.75	-53485.84	1	64735.66	-55.71229	2.152551E-008	-0.0066801	7
	19	30	12609.37	46923.09	-57938.3	1	74556.18	-50.99667	8.518797E-009	-0.0068322	6
	20	31	10078.13	57585.97	-62249.46	1	84800.58	-47.22858	-2.788005E-009	-0.0067619	6
	21	33	8015.625	69415.05	-65388	1	95362.7	-43.28888	6.41644E-010	-0.0066837	6
	22	34	6328.125	82337.43	-66830.91	1	106046.3	-39.06524	-1.439668E-009	-0.0067948	6
	23	36	5015.625	94780.66	-66840.43	1	115978.5	-35.19194	6.4209E-010	-0.0068534	6
	24	38	3984.375	106415.6	-65637.41	1	125030.2	-31.6664	8.830094E-009	-0.0068564	6
	25	39	3170.956	117222.9	-63288.52	1	133216.5	-28.36456	9.74586E-010	-0.006848	6
	26	41	2527.573	127146.7	-60617.07	1	140857	-25.48944	-3.684483E-009	-0.006675	6
	27	42	1976.103	136455.4	-57706.43	1	148155.7	-22.9233	7.676769E-009	-0.0068356	6
	28	44	1577.524	144113.2	-55452.88	1	154413.9	-21.04607	1.171049E-009	-0.0068499	6
	29	45	1265.625	151631	-52246.47	1	160379.8	-19.01206	1.186623E-009	-0.0068602	5
	30	46	998.264	158649	-50561.93	1	166511.3	-17.67724	-6.576842E-010	-0.0067118	5
	31	48	796.875	164942.6	-49845.31	1	172309.6	-16.81471	5.725216E-010	-0.0067882	5
	32	49	627.7902	171300.1	-49233.88	1	178234.9	-16.03534	3.141059E-010	-0.0067881	5
	33	50	505.5147	177040.7	-49367.22	1	183794.8	-15.58095	-5.996944E-010	-0.0066386	5
	34	52	397.9953	183159.4	-49873.34	1	189828.1	-15.23205	1.060794E-010	-0.0067582	5
	35	53	315.5048	189196.7	-51198.33	1	196001.7	-15.14209	6.980427E-010	-0.0067568	5
	36	54	252.4038	194864.2	-52878.44	1	201911.4	-15.1822	8.285143E-011	-0.006755	5
	37	56	198.6229	201054.5	-55535.98	1	208583.7	-15.4414	3.465328E-010	-0.0067567	5
	38	57	158.3615	206694.5	-58770.06	1	214887.2	-15.8722	2.980858E-010	-0.0067602	5
	39	59	125.558	213458.9	-63878.5	1	222811.9	-16.66004	5.248976E-010	-0.0067591	5
	40	60	100.4464	219882.8	-69254.73	1	230531.3	-17.48244	4.551679E-010	-0.0067628	5
	41	61	79.00281	225298.6	-78822.77	1	238689.1	-19.28285	5.823297E-010	-0.0067685	5
	42	63	63.3446	243268.5	-90759.2	1	259647.5	-20.45966	8.419852E-010	-0.0067658	5
	43	64	49.86702	243408.8	-98383.1	1	262539.7	-22.00802	4.923398E-010	-0.006764	5
	44	66	39.72458	254027.9	-111529.6	1	277432.9	-23.70361	4.419668E-010	-0.0067586	5
	45	67	31.6723	265501.6	-125984.9	1	293876.3	-25.38512	3.795177E-010	-0.006763	5
	46	69	24.93351	282196.6	-145592.4	1	317540.7	-27.29036	7.445762E-010	-0.0067626	5
	47	70	19.86229	302062.1	-167203.5	1	345251.3	-28.96629	1.225336E-009	-0.0067584	5
	48	71	15.83615	322419.7	-194200.4	1	376388.4	-31.06147	4.321817E-010	-0.0067663	5
	49	73	12.40079	355952.2	-215965.6	1	416344.9	-31.24629	5.445695E-010	-0.0067527	5
	50	74	9.93114	384114	-236742.6	1	451210.1	-31.64695	8.551665E-010	-0.0067648	5
	51	76	7.944915	417377.2	-261636.1	1	492602.5	-32.08186	1.109788E-009	-0.0067675	5
	52	77	6.317385	457704.5	-284659.4	1	539003.2	-31.87865	7.269535E-010	-0.006747	5
	53	79	5.008013	499405.2	-307647.6	1	586560	-31.63424	8.736561E-010	-0.0067522	5
	54	82	3.945707	543706.2	-334344.3	1	638280.9	-31.58883	3.855837E-010	-0.0067644	5
	55	85	3.158693	587202.4	-360511.3	1	689039.2	-31.54773	1.12121E-009	-0.0067432	6
	56	88	2.504006	633082.3	-390764.2	1	743968.9	-31.68457	2.501886E-010	-0.0067711	5
	57	91	1.998082	680753.4	-423182.7	1	801566.4	-31.86669	3.368309E-010	-0.0067976	5
	58	94	1.584686	729569.3	-464231.6	1	864744.1	-32.46897	3.703812E-010	-0.0067598	5
	59	98	1.266892	779063.6	-505566.1	1	928728.8	-32.98118	5.746708E-010	-0.0068023	5
	60	102	0.999041	836183.3	-559404.8	1	1006050	-33.78244	5.601071E-010	-0.0067236	4
