EXPLAIN
TAG	EISPOT
TITLE	LABEL	Potentiostatic EIS	Test &Identifier
DATE	LABEL	11/27/2019	Date
TIME	LABEL	12:47:56	Time
NOTES	NOTES	3	&Notes...
	
	
	
PSTAT	PSTAT	REF600-11020	Potentiostat
VDC	POTEN	0.00000E+000	T	DC &Voltage (V)
FREQINIT	QUANT	1.00000E+006	Initial Fre&q. (Hz)
FREQFINAL	QUANT	1.00000E+000	Final Fre&q. (Hz)
PTSPERDEC	QUANT	1.00000E+001	Points/&decade
VAC	QUANT	2.50000E+001	AC &Voltage (mV rms)
AREA	QUANT	1.00000E-002	&Area (cm^2)
CONDIT	TWOPARAM	T	5.00000E+000	0.00000E+000	Conditionin&g	Time(s)	E(V)
DELAY	TWOPARAM	T	5.00000E+000	0.00000E+000	Init. De&lay	Time(s)	Stab.(mV/s)
SPEED	SELECTOR	0	&Optimize for:
ZGUESS	QUANT	1.00000E+005	E&stimated Z (ohms)
OCVCURVE	TABLE	19
	Pt	T	Vf	Vm	Ach	Over
	#	s	V vs. Ref.	V	V	bits
	0	0.258333	3.59780E-003	3.59780E-003	5.49633E-004	...........
	1	0.516667	3.59321E-003	3.35707E-003	5.46866E-004	...........
	2	0.775	3.56540E-003	3.15179E-003	5.47166E-004	...........
	3	1.03333	3.48835E-003	2.96228E-003	5.46233E-004	...........
	4	1.29167	3.35444E-003	2.80676E-003	5.48199E-004	...........
	5	1.55	3.18337E-003	2.64923E-003	5.41499E-004	...........
	6	1.80833	3.00312E-003	2.52151E-003	5.45366E-004	...........
	7	2.06667	2.83199E-003	2.38516E-003	5.45299E-004	...........
	8	2.325	2.67631E-003	2.28414E-003	5.38566E-004	...........
	9	2.58333	2.53592E-003	2.16565E-003	5.41099E-004	...........
	10	2.84167	2.40890E-003	2.08929E-003	5.47399E-004	...........
	11	3.1	2.29344E-003	1.97678E-003	5.42433E-004	...........
	12	3.35833	2.18769E-003	1.91025E-003	5.34466E-004	...........
	13	3.61667	2.08923E-003	1.79060E-003	5.44166E-004	...........
	14	3.875	1.99528E-003	1.73065E-003	5.45599E-004	...........
	15	4.13333	1.90399E-003	1.63344E-003	5.43399E-004	...........
	16	4.39167	1.81540E-003	1.56688E-003	5.48633E-004	...........
	17	4.65	1.72997E-003	1.46988E-003	5.45433E-004	...........
	18	4.90833	1.64704E-003	1.40643E-003	5.39299E-004	...........
EOC	QUANT	0.001647	Open Circuit (V)
PSTATMODEL	IQUANT	4	Pstat Model
PSTATSECTION	LABEL	REF600-11020	Pstat Section
PSTATSERIALNO	LABEL	11020	Pstat Serial Number
CTRLMODE	IQUANT	1	Control Mode
IESTAB	IQUANT	0	I/E Stability
CASPEED	IQUANT	1	Control Amp Speed
CONVENTION	IQUANT	1	Current Convention
ICHRANGE	IQUANT	2	Ich Range
ICHRANGEMODE	TOGGLE	F	Ich Auto Range
ICHOFFSETENABLE	TOGGLE	T	Ich Offset Enable
ICHOFFSET	QUANT	0	Ich Offset (V)
ICHFILTER	IQUANT	3	Ich Filter
VCHRANGE	IQUANT	2	Vch Range
VCHRANGEMODE	TOGGLE	F	Vch Auto Range
VCHOFFSETENABLE	TOGGLE	T	Vch Offset Enable
VCHOFFSET	QUANT	0	Vch Offset (V)
VCHFILTER	IQUANT	3	Vch Filter
ACHRANGE	IQUANT	2	Ach Range
ACHOFFSETENABLE	TOGGLE	F	Ach Offset Enable
ACHOFFSET	QUANT	0	Ach Offset (V)
ACHFILTER	IQUANT	3	Ach Filter
IERANGELOWERLIMIT	IQUANT	1	I/E Range Lower Limit
IERANGEMODE	TOGGLE	F	I/E AutoRange
IERANGE	IQUANT	4	I/E Range
POSFEEDENABLE	TOGGLE	F	Positive Feedback IR Comp
POSFEEDRESISTANCE	QUANT	0	Positive Feedback Resistance (ohm)
ACHSELECT	IQUANT	0	Ach Select
CABLEID	IQUANT	14	Cable ID
DCCALDATE	LABEL	8/19/2019	DC Calibration Date
ACCALDATE	LABEL	8/19/2019	AC Calibration Date
THERMOSELECT	IQUANT	1	Thermo Select
FRAMEWORKVERSION	QUANT	6.33	Framework Version
INSTRUMENTVERSION	LABEL	3.50	Instrument Version
ZCURVE	TABLE
	Pt	Time	Freq	Zreal	Zimag	Zsig	Zmod	Zphz	Idc	Vdc	IERange
	#	s	Hz	ohm	ohm	V	ohm	°	A	V	#
	0	1	1000078	2020.11	-1307.472	1	2406.31	-32.91207	-1.649064E-006	0.0037838	8
	1	1	794390.6	2274.314	-1210.111	1	2576.213	-28.01643	8.786147E-006	0.0027953	8
	2	2	630984.4	2489.696	-1104.454	1	2723.675	-23.92254	-2.82878E-006	0.0040129	8
	3	2	501234.4	2666.626	-973.149	1	2838.647	-20.04887	-1.781922E-006	0.0036241	8
	4	2	398109.4	2798.191	-849.8625	1	2924.405	-16.89451	-3.261404E-006	0.0039312	8
	5	3	316265.6	2898.871	-739.71	1	2991.76	-14.31479	3.042835E-008	0.0030883	8
	6	3	251203.1	2981.327	-635.3774	1	3048.281	-12.03083	-2.296839E-006	0.0038087	8
	7	3	199546.9	3039.798	-542.4349	1	3087.816	-10.11762	-5.628932E-007	0.0030817	8
	8	3	158578.1	3081.924	-471.1283	1	3117.726	-8.691422	-1.93995E-006	0.0035038	8
	9	4	125953.1	3131.313	-395.1108	1	3156.143	-7.191606	-1.969117E-006	0.0062271	7
	10	4	100078.1	3159.976	-356.5892	1	3180.032	-6.438338	9.277537E-007	0.0020396	7
	11	4	79453.13	3183.919	-335.5158	1	3201.549	-6.015527	-9.098279E-007	0.0037567	7
	12	5	63140.62	3209.925	-323.3655	1	3226.172	-5.752527	-1.056603E-006	0.0042534	7
	13	5	50203.12	3239.322	-324.135	1	3255.499	-5.714145	9.420339E-007	0.0023064	7
	14	5	39890.62	3264.426	-327.5492	1	3280.818	-5.729823	9.323544E-007	0.00203	7
	15	6	31640.63	3287.825	-339.6295	1	3305.32	-5.897686	-9.144019E-007	0.0037544	7
	16	6	25171.88	3319.782	-362.4137	1	3339.506	-6.230188	8.37815E-007	0.001842	7
	17	6	20015.62	3347.549	-390.5398	1	3370.253	-6.654297	5.333156E-007	0.0034515	7
	18	7	15890.62	3384.674	-431.8319	1	3412.11	-7.270772	6.647554E-007	0.0017642	7
	19	7	12609.37	3416.919	-482.2515	1	3450.783	-8.033456	-2.430371E-007	0.0044475	7
	20	7	10078.13	3456.779	-542.5257	1	3499.093	-8.919552	-7.689868E-007	0.0047382	7
	21	8	8015.625	3493.361	-620.53	1	3548.046	-10.07246	9.156793E-008	0.0021141	7
	22	8	6328.125	3539.531	-724.8626	1	3612.991	-11.57361	5.370364E-007	0.0034588	7
	23	8	5015.625	3586.688	-842.8982	1	3684.4	-13.22495	-5.312685E-007	0.0046645	7
	24	9	3984.375	3640.601	-990.571	1	3772.957	-15.22112	7.242901E-007	0.0030763	7
	25	9	3170.956	3699.987	-1176.458	1	3882.519	-17.63872	9.311886E-007	0.0020218	7
	26	9	2527.573	3761.797	-1394.054	1	4011.796	-20.33379	9.327263E-007	0.00202	7
	27	10	1976.103	3845.915	-1689.871	1	4200.8	-23.72038	5.315201E-007	0.0034491	7
	28	10	1577.524	3916.676	-2045.628	1	4418.704	-27.57747	7.258966E-007	0.0030756	7
	29	10	1265.625	4028.665	-2431.346	1	4705.485	-31.11147	-6.355546E-007	0.0031549	7
	30	10	998.264	4154.657	-2955.073	1	5098.395	-35.42301	-7.68932E-007	0.0047333	7
	31	11	796.875	4291.596	-3576.092	1	5586.253	-39.8037	-9.08373E-007	0.0037431	7
	32	11	627.7902	4470.527	-4361.918	1	6245.955	-44.29549	7.189427E-007	0.0030704	7
	33	11	505.5147	4655.066	-5243.105	1	7011.404	-48.39988	-6.332309E-007	0.0031548	7
	34	12	397.9953	4904.724	-6430.859	1	8087.785	-52.66776	3.523816E-009	0.0033097	7
	35	12	315.5048	5191.172	-7857.682	1	9417.613	-56.54928	3.109102E-009	0.0033071	7
	36	12	252.4038	5524.58	-9538.88	1	11023.21	-59.9221	9.169265E-011	0.0032469	6
	37	13	198.6229	5956.291	-11769.04	1	13190.44	-63.15611	6.011626E-010	0.0032482	6
	38	13	158.3615	6475.329	-14368.2	1	15759.92	-65.7403	-4.305094E-010	0.0032467	6
	39	13	125.558	7139.168	-17645.91	1	19035.38	-67.97277	3.04323E-010	0.0032401	6
	40	14	100.4464	7974.107	-21481.54	1	22913.82	-69.6347	1.934951E-009	0.0032351	6
	41	14	79.00281	9171.188	-26605.14	1	28141.5	-70.98016	6.387023E-010	0.0032409	6
	42	14	63.3446	10132.12	-32449.22	1	33994.29	-72.65927	8.206498E-012	0.0032321	6
	43	15	49.86702	12156.16	-39954.11	1	41762.46	-73.07745	-4.359157E-010	0.0032368	6
	44	15	39.72458	14957.85	-48652.7	1	50900.12	-72.91041	6.956746E-010	0.0032399	6
	45	16	31.6723	18334.07	-59038.32	1	61819.59	-72.74806	2.097044E-010	0.0032441	6
	46	16	24.93351	22801.54	-72376.1	1	75882.88	-72.51336	3.972638E-010	0.0032334	6
	47	16	19.86229	28492.38	-87476.05	1	91999.33	-71.95872	5.972419E-010	0.0032458	6
	48	16	15.83615	36707.3	-105264.9	1	111481.5	-70.77564	-9.37476E-010	0.003244	5
	49	17	12.40079	47904.83	-126801	1	135548.4	-69.30367	2.26406E-009	0.0032371	5
	50	17	9.93114	59484.11	-151069.9	1	162359.1	-68.50785	-5.15842E-010	0.0032369	5
	51	18	7.944915	75427.27	-177442.2	1	192808.2	-66.97059	-7.834662E-010	0.0032374	5
	52	18	6.317385	96237.9	-208307.6	1	229464.1	-65.20311	-3.527982E-010	0.0032525	5
	53	19	5.008013	121670.8	-242426.5	1	271246	-63.34851	-2.382383E-010	0.0032379	5
	54	20	3.945707	153652.9	-280952.8	1	320224.5	-61.32579	3.827478E-010	0.003239	5
	55	22	3.158693	186517.7	-318898.2	1	369438.6	-59.67742	1.494117E-010	0.0032579	5
	56	23	2.504006	226381.2	-362690.6	1	427542.9	-58.02875	-9.801231E-011	0.003237	5
	57	25	1.998082	267352.8	-407652.3	1	487501.7	-56.74171	9.441092E-011	0.0032504	5
	58	26	1.584686	314910	-460147.2	1	557587.4	-55.61351	2.266452E-010	0.0032833	5
	59	28	1.266892	361978.1	-518763.4	1	632569.1	-55.09378	2.003962E-010	0.0032628	5
	60	31	0.999041	415447.3	-589696.8	1	721345.1	-54.83493	1.682785E-010	0.0032407	5
