EXPLAIN
TAG	EISPOT
TITLE	LABEL	Potentiostatic EIS	Test &Identifier
DATE	LABEL	10/2/2019	Date
TIME	LABEL	10:46:40	Time
NOTES	NOTES	2	&Notes...
	
	
PSTAT	PSTAT	REF600-11020	Potentiostat
VDC	POTEN	0.00000E+000	T	DC &Voltage (V)
FREQINIT	QUANT	1.00000E+006	Initial Fre&q. (Hz)
FREQFINAL	QUANT	1.00000E+000	Final Fre&q. (Hz)
PTSPERDEC	QUANT	1.00000E+001	Points/&decade
VAC	QUANT	2.50000E+001	AC &Voltage (mV rms)
AREA	QUANT	1.00000E-002	&Area (cm^2)
CONDIT	TWOPARAM	T	5.00000E+000	0.00000E+000	Conditionin&g	Time(s)	E(V)
DELAY	TWOPARAM	T	5.00000E+000	0.00000E+000	Init. De&lay	Time(s)	Stab.(mV/s)
SPEED	SELECTOR	1	&Optimize for:
ZGUESS	QUANT	1.00000E+004	E&stimated Z (ohms)
OCVCURVE	TABLE	19
	Pt	T	Vf	Vm	Ach	Over
	#	s	V vs. Ref.	V	V	bits
	0	0.258333	1.34058E-002	1.34058E-002	5.78399E-004	...........
	1	0.516667	1.34134E-002	1.38036E-002	5.72232E-004	...........
	2	0.775	1.34606E-002	1.42062E-002	5.78666E-004	...........
	3	1.03333	1.35951E-002	1.45659E-002	5.70866E-004	...........
	4	1.29167	1.38366E-002	1.49120E-002	5.70899E-004	...........
	5	1.55	1.41575E-002	1.52524E-002	5.78599E-004	...........
	6	1.80833	1.45125E-002	1.55901E-002	5.76566E-004	...........
	7	2.06667	1.48701E-002	1.59029E-002	5.75832E-004	...........
	8	2.325	1.52181E-002	1.62567E-002	5.75899E-004	...........
	9	2.58333	1.55555E-002	1.65176E-002	5.80032E-004	...........
	10	2.84167	1.58779E-002	1.65690E-002	5.81732E-004	...........
	11	3.1	1.61682E-002	1.68655E-002	5.79866E-004	...........
	12	3.35833	1.64345E-002	1.80875E-002	5.75299E-004	...........
	13	3.61667	1.67765E-002	1.95643E-002	5.75932E-004	...........
	14	3.875	1.73442E-002	2.02323E-002	5.76032E-004	...........
	15	4.13333	1.81526E-002	1.99621E-002	5.78032E-004	...........
	16	4.39167	1.89646E-002	1.84972E-002	5.75899E-004	...........
	17	4.65	1.94220E-002	1.78655E-002	5.74066E-004	...........
	18	4.90833	1.93573E-002	1.85819E-002	5.72566E-004	...........
EOC	QUANT	0.0193573	Open Circuit (V)
PSTATMODEL	IQUANT	4	Pstat Model
PSTATSECTION	LABEL	REF600-11020	Pstat Section
PSTATSERIALNO	LABEL	11020	Pstat Serial Number
CTRLMODE	IQUANT	1	Control Mode
IESTAB	IQUANT	0	I/E Stability
CASPEED	IQUANT	1	Control Amp Speed
CONVENTION	IQUANT	1	Current Convention
ICHRANGE	IQUANT	2	Ich Range
ICHRANGEMODE	TOGGLE	F	Ich Auto Range
ICHOFFSETENABLE	TOGGLE	T	Ich Offset Enable
ICHOFFSET	QUANT	0	Ich Offset (V)
ICHFILTER	IQUANT	3	Ich Filter
VCHRANGE	IQUANT	2	Vch Range
VCHRANGEMODE	TOGGLE	F	Vch Auto Range
VCHOFFSETENABLE	TOGGLE	T	Vch Offset Enable
VCHOFFSET	QUANT	0	Vch Offset (V)
VCHFILTER	IQUANT	3	Vch Filter
ACHRANGE	IQUANT	2	Ach Range
ACHOFFSETENABLE	TOGGLE	F	Ach Offset Enable
ACHOFFSET	QUANT	0	Ach Offset (V)
ACHFILTER	IQUANT	3	Ach Filter
IERANGELOWERLIMIT	IQUANT	1	I/E Range Lower Limit
IERANGEMODE	TOGGLE	F	I/E AutoRange
IERANGE	IQUANT	6	I/E Range
POSFEEDENABLE	TOGGLE	F	Positive Feedback IR Comp
POSFEEDRESISTANCE	QUANT	0	Positive Feedback Resistance (ohm)
ACHSELECT	IQUANT	0	Ach Select
CABLEID	IQUANT	14	Cable ID
DCCALDATE	LABEL	8/19/2019	DC Calibration Date
ACCALDATE	LABEL	8/19/2019	AC Calibration Date
THERMOSELECT	IQUANT	1	Thermo Select
FRAMEWORKVERSION	QUANT	6.33	Framework Version
INSTRUMENTVERSION	LABEL	3.50	Instrument Version
ZCURVE	TABLE
	Pt	Time	Freq	Zreal	Zimag	Zsig	Zmod	Zphz	Idc	Vdc	IERange
	#	s	Hz	ohm	ohm	V	ohm	°	A	V	#
	0	1	1000078	2495.076	-2079.327	1	3247.923	-39.80689	-7.263777E-008	0.0221351	8
	1	3	794390.6	2927.178	-2066.267	1	3582.992	-35.2179	-2.949782E-006	0.0218039	8
	2	4	630984.4	3339.112	-1991.643	1	3887.97	-30.81433	-1.297487E-006	0.0214151	8
	3	5	501234.4	3727.094	-1838.956	1	4156.078	-26.26184	4.793369E-006	0.020117	8
	4	7	398109.4	4037.3	-1646.557	1	4360.154	-22.18741	-1.767687E-006	0.0212179	8
	5	8	316265.6	4290.012	-1472.182	1	4535.584	-18.94042	-8.338073E-007	0.0210394	8
	6	10	251203.1	4475.302	-1271.744	1	4652.489	-15.86353	-3.12433E-007	0.0208194	8
	7	11	199546.9	4622.278	-1092.366	1	4749.602	-13.29655	5.459854E-007	0.0206562	8
	8	12	158578.1	4731.065	-934.4618	1	4822.468	-11.17303	6.65105E-007	0.020654	8
	9	14	125953.1	4832.307	-753.513	1	4890.702	-8.862893	-1.140701E-006	0.0225782	7
	10	15	100078.1	4885.779	-659.1105	1	4930.037	-7.683039	-1.318853E-008	0.0208466	7
	11	16	79453.13	4937.595	-585.0854	1	4972.139	-6.757812	-6.209363E-008	0.0208995	7
	12	18	63140.62	4982.403	-529.835	1	5010.495	-6.070093	-1.424178E-008	0.0208399	7
	13	19	50203.12	5021.233	-489.7587	1	5045.062	-5.570867	-1.321979E-008	0.0208361	7
	14	20	39890.62	5056.666	-463.2098	1	5077.837	-5.233904	-7.626743E-008	0.021047	7
	15	22	31640.63	5093.854	-450.4769	1	5113.734	-5.053826	1.3101E-008	0.0209093	7
	16	23	25171.88	5126.194	-450.6445	1	5145.964	-5.023965	-7.99742E-008	0.020924	7
	17	24	20015.62	5160.947	-460.1388	1	5181.419	-5.094895	-5.943859E-008	0.0208945	7
	18	26	15890.62	5197.034	-483.5203	1	5219.479	-5.315368	-6.316254E-008	0.020922	7
	19	27	12609.37	5232.568	-522.4862	1	5258.589	-5.702238	-8.052741E-008	0.0209165	7
	20	28	10078.13	5268.891	-572.1582	1	5299.866	-6.197565	2.392903E-008	0.0207135	7
	21	30	8015.625	5305.895	-638.239	1	5344.144	-6.859077	-5.901508E-008	0.0208872	7
	22	31	6328.125	5350.894	-730.7153	1	5400.556	-7.776183	-5.665634E-009	0.020752	7
	23	32	5015.625	5395.092	-845.8618	1	5460.998	-8.9105	2.224497E-009	0.0207913	7
	24	34	3984.375	5443.191	-989.166	1	5532.34	-10.2997	-7.914594E-008	0.0209106	7
	25	35	3170.956	5498.444	-1166.414	1	5620.802	-11.9769	2.388526E-008	0.0207037	7
	26	36	2527.573	5558.916	-1384.518	1	5728.738	-13.98568	-8.669173E-009	0.0208651	7
	27	38	1976.103	5632.513	-1675.409	1	5876.41	-16.56528	-9.358315E-009	0.0208612	7
	28	39	1577.524	5711.883	-2007.824	1	6054.5	-19.36744	6.000581E-008	0.0207063	7
	29	41	1265.625	5797.43	-2405.636	1	6276.725	-22.53594	5.792429E-008	0.0207069	7
	30	42	998.264	5905.264	-2930.669	1	6592.493	-26.39432	1.248007E-007	0.0206205	7
	31	43	796.875	6025.495	-3549.898	1	6993.452	-30.50431	-1.075744E-008	0.0208252	7
	32	45	627.7902	6171.18	-4352.176	1	7551.483	-35.1931	5.003257E-008	0.0206578	7
	33	46	505.5147	6328.83	-5255.417	1	8226.391	-39.70601	-3.159013E-008	0.0208048	7
	34	47	397.9953	6536.734	-6491.083	1	9212.115	-44.79923	5.481671E-009	0.020823	7
	35	49	315.5048	6789.096	-7975.782	1	10474.01	-49.59511	5.318566E-010	0.0207635	6
	36	50	252.4038	7084.951	-9736.79	1	12041.66	-53.95858	1.229344E-009	0.0207562	6
	37	51	198.6229	7486.345	-12074.83	1	14207.28	-58.20126	7.176002E-010	0.0207566	6
	38	53	158.3615	7974.389	-14808.88	1	16819.44	-61.69811	1.012979E-009	0.0207555	6
	39	54	125.558	8617.452	-18258.2	1	20189.66	-64.73376	2.123478E-009	0.0207634	6
	40	55	100.4464	9432.662	-22322.99	1	24234.08	-67.09333	1.048445E-009	0.0207612	6
	41	57	79.00281	10604	-27711.53	1	29671.09	-69.06033	8.861311E-010	0.0207583	6
	42	58	63.3446	11855.47	-33899.75	1	35913.03	-70.72417	2.069798E-010	0.0207557	6
	43	60	49.86702	14060.44	-41603.61	1	43915.34	-71.3267	4.513054E-010	0.0207558	6
	44	61	39.72458	16590.23	-50935.94	1	53569.64	-71.95917	9.691469E-010	0.0207617	6
	45	62	31.6723	20142.06	-62056.32	1	65243.31	-72.01776	1.024762E-009	0.0207597	6
	46	64	24.93351	24936.17	-76062.63	1	80045.84	-71.84892	3.469457E-010	0.0207574	6
	47	65	19.86229	31179.79	-91954.52	1	97096.9	-71.26931	1.188294E-009	0.0207625	6
	48	67	15.83615	39749.56	-109978.5	1	116941.4	-70.12861	-1.024819E-010	0.0207618	5
	49	68	12.40079	50931.64	-133502.5	1	142887.8	-69.11798	6.416284E-010	0.020767	5
	50	69	9.93114	64218.01	-158096.3	1	170641.1	-67.89323	7.560608E-011	0.0207711	5
	51	71	7.944915	81088.83	-185156.5	1	202134.5	-66.34911	2.127518E-009	0.0207702	5
	52	73	6.317385	102065.1	-217064.1	1	239862.7	-64.81676	2.289584E-010	0.0207727	5
	53	75	5.008013	127262.5	-252332.8	1	282608.6	-63.23619	4.886949E-010	0.0207717	5
	54	77	3.945707	158075.3	-292500.1	1	332481.7	-61.61197	-2.417158E-011	0.0207508	5
	55	80	3.158693	190692.7	-334112.7	1	384701.3	-60.28471	3.352419E-010	0.020763	5
	56	83	2.504006	229755.2	-382911.9	1	446552.3	-59.03535	-2.164567E-010	0.020754	5
	57	86	1.998082	271640.6	-434434.5	1	512368.9	-57.98333	1.614392E-010	0.0207083	5
	58	89	1.584686	318910.5	-496136.2	1	589792.4	-57.26757	-3.278152E-012	0.0207386	5
	59	93	1.266892	370700.3	-562618.1	1	673763.9	-56.61973	1.001095E-010	0.020712	5
	60	97	0.999041	431557.6	-643891.1	1	775137.3	-56.16867	1.465205E-011	0.0207852	5
