EXPLAIN
TAG	EISPOT
TITLE	LABEL	Potentiostatic EIS	Test &Identifier
DATE	LABEL	10/18/2019	Date
TIME	LABEL	10:00:42	Time
NOTES	NOTES	1	&Notes...
	
PSTAT	PSTAT	REF600-11020	Potentiostat
VDC	POTEN	0.00000E+000	T	DC &Voltage (V)
FREQINIT	QUANT	1.00000E+006	Initial Fre&q. (Hz)
FREQFINAL	QUANT	1.00000E+000	Final Fre&q. (Hz)
PTSPERDEC	QUANT	1.00000E+001	Points/&decade
VAC	QUANT	2.50000E+001	AC &Voltage (mV rms)
AREA	QUANT	1.00000E-002	&Area (cm^2)
CONDIT	TWOPARAM	T	5.00000E+000	0.00000E+000	Conditionin&g	Time(s)	E(V)
DELAY	TWOPARAM	T	5.00000E+000	0.00000E+000	Init. De&lay	Time(s)	Stab.(mV/s)
SPEED	SELECTOR	0	&Optimize for:
ZGUESS	QUANT	1.00000E+005	E&stimated Z (ohms)
OCVCURVE	TABLE	19
	Pt	T	Vf	Vm	Ach	Over
	#	s	V vs. Ref.	V	V	bits
	0	0.258333	7.52066E-003	7.52066E-003	4.99467E-004	...........
	1	0.516667	7.51866E-003	7.41600E-003	4.99267E-004	...........
	2	0.775	7.50899E-003	7.45325E-003	5.04400E-004	...........
	3	1.03333	7.49009E-003	7.47807E-003	4.98567E-004	...........
	4	1.29167	7.47170E-003	7.47918E-003	5.07133E-004	...........
	5	1.55	7.46483E-003	7.51029E-003	5.03767E-004	...........
	6	1.80833	7.47131E-003	7.54612E-003	5.02533E-004	...........
	7	2.06667	7.48791E-003	7.56497E-003	4.99500E-004	...........
	8	2.325	7.51121E-003	7.59717E-003	4.96667E-004	...........
	9	2.58333	7.53802E-003	7.62931E-003	5.04300E-004	...........
	10	2.84167	7.56671E-003	7.67525E-003	5.01933E-004	...........
	11	3.1	7.59797E-003	7.71575E-003	4.98233E-004	...........
	12	3.35833	7.63282E-003	7.74989E-003	5.00800E-004	...........
	13	3.61667	7.67083E-003	7.80261E-003	5.02333E-004	...........
	14	3.875	7.71162E-003	7.87663E-003	5.02600E-004	...........
	15	4.13333	7.75674E-003	7.91508E-003	4.97533E-004	...........
	16	4.39167	7.80699E-003	7.96903E-003	5.02900E-004	...........
	17	4.65	7.86000E-003	8.02003E-003	5.04833E-004	...........
	18	4.90833	7.91258E-003	8.05523E-003	5.02967E-004	...........
EOC	QUANT	0.0079126	Open Circuit (V)
PSTATMODEL	IQUANT	4	Pstat Model
PSTATSECTION	LABEL	REF600-11020	Pstat Section
PSTATSERIALNO	LABEL	11020	Pstat Serial Number
CTRLMODE	IQUANT	1	Control Mode
IESTAB	IQUANT	0	I/E Stability
CASPEED	IQUANT	1	Control Amp Speed
CONVENTION	IQUANT	1	Current Convention
ICHRANGE	IQUANT	2	Ich Range
ICHRANGEMODE	TOGGLE	F	Ich Auto Range
ICHOFFSETENABLE	TOGGLE	T	Ich Offset Enable
ICHOFFSET	QUANT	0	Ich Offset (V)
ICHFILTER	IQUANT	3	Ich Filter
VCHRANGE	IQUANT	2	Vch Range
VCHRANGEMODE	TOGGLE	F	Vch Auto Range
VCHOFFSETENABLE	TOGGLE	T	Vch Offset Enable
VCHOFFSET	QUANT	0	Vch Offset (V)
VCHFILTER	IQUANT	3	Vch Filter
ACHRANGE	IQUANT	2	Ach Range
ACHOFFSETENABLE	TOGGLE	F	Ach Offset Enable
ACHOFFSET	QUANT	0	Ach Offset (V)
ACHFILTER	IQUANT	3	Ach Filter
IERANGELOWERLIMIT	IQUANT	1	I/E Range Lower Limit
IERANGEMODE	TOGGLE	F	I/E AutoRange
IERANGE	IQUANT	5	I/E Range
POSFEEDENABLE	TOGGLE	F	Positive Feedback IR Comp
POSFEEDRESISTANCE	QUANT	0	Positive Feedback Resistance (ohm)
ACHSELECT	IQUANT	0	Ach Select
CABLEID	IQUANT	14	Cable ID
DCCALDATE	LABEL	8/19/2019	DC Calibration Date
ACCALDATE	LABEL	8/19/2019	AC Calibration Date
THERMOSELECT	IQUANT	1	Thermo Select
FRAMEWORKVERSION	QUANT	6.33	Framework Version
INSTRUMENTVERSION	LABEL	3.50	Instrument Version
ZCURVE	TABLE
	Pt	Time	Freq	Zreal	Zimag	Zsig	Zmod	Zphz	Idc	Vdc	IERange
	#	s	Hz	ohm	ohm	V	ohm	°	A	V	#
	0	2	1000078	2721.627	-1982.819	1	3367.317	-36.07489	4.288695E-006	0.0100847	8
	1	2	794390.6	3105.154	-1958.51	1	3671.204	-32.24081	-5.331204E-006	0.0106888	8
	2	2	630984.4	3484.776	-1833.357	1	3937.621	-27.74907	-3.861128E-007	0.0100958	8
	3	3	501234.4	3807.106	-1661.34	1	4153.807	-23.57543	-1.442588E-006	0.009977	8
	4	3	398109.4	4066.871	-1488.195	1	4330.608	-20.09915	4.16583E-006	0.0089727	8
	5	3	316265.6	4274.918	-1318.566	1	4473.65	-17.14198	-3.152569E-006	0.0101836	8
	6	3	251203.1	4450.945	-1128.723	1	4591.833	-14.22976	5.825753E-007	0.0093193	8
	7	4	199546.9	4571.088	-970.33	1	4672.942	-11.9846	-2.919673E-006	0.0101942	8
	8	4	158578.1	4655.961	-832.4753	1	4729.798	-10.13724	-1.25891E-006	0.0098489	8
	9	4	125953.1	4778.321	-627.744	1	4819.379	-7.484277	-7.575133E-007	0.01056	7
	10	5	100078.1	4799.398	-576.9191	1	4833.948	-6.85444	-4.378958E-008	0.0095992	7
	11	5	79453.13	4846.711	-520.9277	1	4874.625	-6.134638	-4.579297E-008	0.0095955	7
	12	5	63140.62	4885.011	-479.032	1	4908.442	-5.600609	-4.120172E-008	0.0095638	7
	13	6	50203.12	4921.049	-452.0337	1	4941.767	-5.2483	-3.094875E-008	0.0096314	7
	14	6	39890.62	4954.421	-440.3857	1	4973.955	-5.079525	-2.787112E-009	0.0094871	7
	15	6	31640.63	4990.463	-435.615	1	5009.439	-4.988676	-4.008593E-008	0.0096156	7
	16	7	25171.88	5023.924	-444.7926	1	5043.576	-5.059484	8.873162E-008	0.0094816	7
	17	7	20015.62	5039.007	-458.2428	1	5059.8	-5.196135	7.934908E-008	0.0093752	7
	18	7	15890.62	5092.161	-500.3976	1	5116.688	-5.612335	-5.827749E-008	0.0095989	7
	19	8	12609.37	5129.592	-546.3706	1	5158.608	-6.079848	-4.760793E-009	0.0095774	7
	20	8	10078.13	5161.622	-611.1494	1	5197.676	-6.752532	-6.760844E-008	0.0096436	7
	21	8	8015.625	5219.207	-687.4642	1	5264.288	-7.503697	1.278104E-007	0.009348	7
	22	9	6328.125	5245.505	-805.7894	1	5307.035	-8.733235	-1.674994E-008	0.0095724	7
	23	9	5015.625	5291.068	-943.9965	1	5374.62	-10.11589	-5.718672E-008	0.0097215	7
	24	9	3984.375	5342.175	-1094.115	1	5453.065	-11.57451	8.923794E-008	0.009484	7
	25	9	3170.956	5404.196	-1328.391	1	5565.065	-13.80993	-6.229761E-009	0.0095783	7
	26	10	2527.573	5470.72	-1589.291	1	5696.896	-16.19904	4.179865E-008	0.0094955	7
	27	10	1976.103	5559.04	-1934.606	1	5886.053	-19.18844	-3.677143E-008	0.0095633	7
	28	10	1577.524	5621.451	-2289.967	1	6069.98	-22.16413	1.362287E-007	0.00933	7
	29	11	1265.625	5764.23	-2794.108	1	6405.731	-25.86096	4.145391E-008	0.0094924	7
	30	11	998.264	5898.894	-3394.336	1	6805.767	-29.91694	-4.276548E-008	0.0095662	7
	31	11	796.875	6056.182	-4106.445	1	7317.119	-34.13956	4.13231E-008	0.0094891	7
	32	12	627.7902	6241.325	-5031.87	1	8017.098	-38.8764	-4.761978E-008	0.0095688	7
	33	12	505.5147	6444.225	-6058.87	1	8845.222	-43.23466	-5.002607E-008	0.0095712	7
	34	12	397.9953	6705.282	-7456.265	1	10027.8	-48.03554	1.075405E-010	0.009503	6
	35	13	315.5048	7005.247	-9139.926	1	11515.72	-52.53183	1.526679E-009	0.0094944	6
	36	13	252.4038	7361.83	-11136.7	1	13350.01	-56.53362	3.977778E-011	0.0094885	6
	37	13	198.6229	7829.689	-13783.5	1	15852.1	-60.40135	7.162291E-010	0.0094892	6
	38	14	158.3615	8401.685	-16882.71	1	18857.73	-63.54276	-5.0285E-010	0.0094832	6
	39	14	125.558	9149.284	-20801.69	1	22724.87	-66.25849	6.3135E-011	0.0094865	6
	40	14	100.4464	10032.87	-25411.94	1	27320.79	-68.45544	1.514116E-009	0.0094864	6
	41	15	79.00281	11305.88	-31466.16	1	33435.64	-70.23649	-6.46881E-010	0.0094855	6
	42	15	63.3446	13712.47	-38588.54	1	40952.5	-70.43729	7.014186E-010	0.0094839	6
	43	15	49.86702	15810.21	-47850.3	1	50394.58	-71.71594	1.209607E-009	0.0094831	6
	44	16	39.72458	18567.26	-58043.29	1	60940.68	-72.26123	9.101543E-010	0.0094857	6
	45	16	31.6723	22805.88	-70237.73	1	73847.46	-72.01162	1.031328E-009	0.0094869	6
	46	16	24.93351	28232.04	-86365.66	1	90862.95	-71.89797	-1.84455E-011	0.0094839	6
	47	17	19.86229	35487.12	-104426.5	1	110291.5	-71.23077	-1.209945E-009	0.0094894	5
	48	17	15.83615	44334.84	-123179.4	1	130915	-70.20514	-1.168071E-009	0.0094877	5
	49	17	12.40079	57223.28	-153113.1	1	163456.8	-69.50768	1.492912E-009	0.0094909	5
	50	18	9.93114	75852.53	-177784	1	193289.3	-66.89421	3.113951E-010	0.0094913	5
	51	18	7.944915	95013.5	-207870.4	1	228555.6	-65.43578	8.823777E-010	0.0094865	5
	52	19	6.317385	119890.1	-241893.9	1	269974.7	-63.63556	6.149282E-010	0.0094721	5
	53	20	5.008013	149877	-278977.6	1	316688.5	-61.75367	2.085879E-010	0.0094913	5
	54	21	3.945707	188357.4	-321125.9	1	372290.7	-59.60612	-2.450739E-010	0.0094888	5
	55	22	3.158693	225026.3	-363238.7	1	427292.8	-58.2218	-1.324405E-010	0.0094725	5
	56	24	2.504006	269691.6	-410916.1	1	491513.6	-56.72239	1.253428E-010	0.0094791	5
	57	25	1.998082	315469.6	-462209.8	1	559606.1	-55.6855	7.622851E-011	0.0094895	5
	58	27	1.584686	368669.2	-520581.7	1	637904.6	-54.69437	-6.873745E-011	0.0094429	5
	59	29	1.266892	423505.5	-587267.1	1	724043.8	-54.20288	-1.328143E-010	0.0094445	5
	60	31	0.999041	485106.9	-668725.2	1	826148.9	-54.0421	-1.156336E-010	0.0094595	5
