EXPLAIN
TAG	EISPOT
TITLE	LABEL	Potentiostatic EIS	Test &Identifier
DATE	LABEL	11/3/2019	Date
TIME	LABEL	10:10:41	Time
NOTES	NOTES	1	&Notes...
	
PSTAT	PSTAT	REF600-11020	Potentiostat
VDC	POTEN	0.00000E+000	T	DC &Voltage (V)
FREQINIT	QUANT	1.00000E+006	Initial Fre&q. (Hz)
FREQFINAL	QUANT	1.00000E+000	Final Fre&q. (Hz)
PTSPERDEC	QUANT	1.00000E+001	Points/&decade
VAC	QUANT	2.50000E+001	AC &Voltage (mV rms)
AREA	QUANT	1.00000E-002	&Area (cm^2)
CONDIT	TWOPARAM	T	5.00000E+000	0.00000E+000	Conditionin&g	Time(s)	E(V)
DELAY	TWOPARAM	T	5.00000E+000	0.00000E+000	Init. De&lay	Time(s)	Stab.(mV/s)
SPEED	SELECTOR	1	&Optimize for:
ZGUESS	QUANT	1.00000E+005	E&stimated Z (ohms)
OCVCURVE	TABLE	19
	Pt	T	Vf	Vm	Ach	Over
	#	s	V vs. Ref.	V	V	bits
	0	0.258333	5.87547E-003	5.87547E-003	5.48733E-004	...........
	1	0.516667	5.87451E-003	5.82503E-003	5.42866E-004	...........
	2	0.775	5.86879E-003	5.78738E-003	5.50899E-004	...........
	3	1.03333	5.85358E-003	5.76874E-003	5.57699E-004	...........
	4	1.29167	5.82915E-003	5.75500E-003	5.57532E-004	...........
	5	1.55	5.80178E-003	5.74647E-003	5.58366E-004	...........
	6	1.80833	5.77812E-003	5.74465E-003	5.56466E-004	...........
	7	2.06667	5.76136E-003	5.74873E-003	5.48833E-004	...........
	8	2.325	5.75183E-003	5.75594E-003	5.43833E-004	...........
	9	2.58333	5.74879E-003	5.76806E-003	5.48233E-004	...........
	10	2.84167	5.75112E-003	5.77678E-003	5.47866E-004	...........
	11	3.1	5.75752E-003	5.79032E-003	5.51866E-004	...........
	12	3.35833	5.76668E-003	5.80527E-003	5.54533E-004	...........
	13	3.61667	5.77775E-003	5.81889E-003	5.48233E-004	...........
	14	3.875	5.79029E-003	5.83348E-003	5.43199E-004	...........
	15	4.13333	5.80384E-003	5.84753E-003	5.48966E-004	...........
	16	4.39167	5.81804E-003	5.86873E-003	5.49199E-004	...........
	17	4.65	5.83300E-003	5.88434E-003	5.46133E-004	...........
	18	4.90833	5.84904E-003	5.90375E-003	5.51499E-004	...........
EOC	QUANT	0.005849	Open Circuit (V)
PSTATMODEL	IQUANT	4	Pstat Model
PSTATSECTION	LABEL	REF600-11020	Pstat Section
PSTATSERIALNO	LABEL	11020	Pstat Serial Number
CTRLMODE	IQUANT	1	Control Mode
IESTAB	IQUANT	0	I/E Stability
CASPEED	IQUANT	1	Control Amp Speed
CONVENTION	IQUANT	1	Current Convention
ICHRANGE	IQUANT	2	Ich Range
ICHRANGEMODE	TOGGLE	F	Ich Auto Range
ICHOFFSETENABLE	TOGGLE	T	Ich Offset Enable
ICHOFFSET	QUANT	0	Ich Offset (V)
ICHFILTER	IQUANT	3	Ich Filter
VCHRANGE	IQUANT	2	Vch Range
VCHRANGEMODE	TOGGLE	F	Vch Auto Range
VCHOFFSETENABLE	TOGGLE	T	Vch Offset Enable
VCHOFFSET	QUANT	0	Vch Offset (V)
VCHFILTER	IQUANT	3	Vch Filter
ACHRANGE	IQUANT	2	Ach Range
ACHOFFSETENABLE	TOGGLE	F	Ach Offset Enable
ACHOFFSET	QUANT	0	Ach Offset (V)
ACHFILTER	IQUANT	3	Ach Filter
IERANGELOWERLIMIT	IQUANT	1	I/E Range Lower Limit
IERANGEMODE	TOGGLE	F	I/E AutoRange
IERANGE	IQUANT	5	I/E Range
POSFEEDENABLE	TOGGLE	F	Positive Feedback IR Comp
POSFEEDRESISTANCE	QUANT	0	Positive Feedback Resistance (ohm)
ACHSELECT	IQUANT	0	Ach Select
CABLEID	IQUANT	14	Cable ID
DCCALDATE	LABEL	8/19/2019	DC Calibration Date
ACCALDATE	LABEL	8/19/2019	AC Calibration Date
THERMOSELECT	IQUANT	1	Thermo Select
FRAMEWORKVERSION	QUANT	6.33	Framework Version
INSTRUMENTVERSION	LABEL	3.50	Instrument Version
ZCURVE	TABLE
	Pt	Time	Freq	Zreal	Zimag	Zsig	Zmod	Zphz	Idc	Vdc	IERange
	#	s	Hz	ohm	ohm	V	ohm	°	A	V	#
	0	1	1000078	1912.395	-1170.837	1	2242.345	-31.47647	1.811624E-006	0.0074782	8
	1	2	794390.6	2121.084	-1090.749	1	2385.106	-27.21409	-1.557889E-006	0.0071745	8
	2	4	630984.4	2318.595	-1005.748	1	2527.333	-23.44998	3.045772E-006	0.0068129	8
	3	5	501234.4	2473.733	-896.1537	1	2631.054	-19.91382	-1.214586E-006	0.0070595	8
	4	6	398109.4	2603.023	-790.0115	1	2720.266	-16.88292	-7.632322E-007	0.0077732	8
	5	8	316265.6	2701.109	-686.0718	1	2786.877	-14.25154	-1.985468E-006	0.0074342	8
	6	9	251203.1	2774.977	-594.0539	1	2837.85	-12.08323	2.348796E-006	0.0067784	8
	7	11	199546.9	2844.15	-526.7656	1	2892.52	-10.49286	-1.429303E-006	0.0077107	8
	8	12	158578.1	2911.133	-457.552	1	2946.871	-8.932283	2.289463E-006	0.0067855	8
	9	13	125953.1	2951.962	-361.1074	1	2973.966	-6.974225	3.727386E-006	0.0008957	7
	10	15	100078.1	2969.821	-326.6782	1	2987.734	-6.277258	5.778858E-007	0.0074358	7
	11	16	79453.13	2995.179	-306.1381	1	3010.783	-5.835951	7.884432E-008	0.0081372	7
	12	17	63140.62	3022.537	-292.472	1	3036.655	-5.526946	4.44352E-007	0.0057024	7
	13	19	50203.12	3044.508	-285.9836	1	3057.91	-5.366291	-9.870524E-007	0.0077565	7
	14	20	39890.62	3068.707	-287.1955	1	3082.117	-5.346648	-6.930984E-007	0.0071184	7
	15	21	31640.63	3093.315	-295.759	1	3107.422	-5.461581	-9.874182E-007	0.0077521	7
	16	23	25171.88	3119.89	-311.7581	1	3135.428	-5.706395	-2.979336E-007	0.0064675	7
	17	24	20015.62	3145.321	-333.8232	1	3162.986	-6.05831	-1.024764E-006	0.0087731	7
	18	26	15890.62	3176.486	-364.923	1	3197.379	-6.553557	3.816059E-007	0.007715	7
	19	27	12609.37	3205.02	-406.6407	1	3230.713	-7.230836	8.384502E-008	0.0081209	7
	20	28	10078.13	3230.974	-454.616	1	3262.801	-8.009254	-9.92422E-007	0.0077469	7
	21	30	8015.625	3265.927	-517.6971	1	3306.703	-9.007276	-1.025831E-006	0.0087743	7
	22	31	6328.125	3303.711	-601.5812	1	3358.036	-10.32006	-2.977992E-007	0.0064636	7
	23	32	5015.625	3346.051	-705.1311	1	3419.542	-11.90012	1.013242E-006	0.0058629	7
	24	34	3984.375	3384.784	-829.8041	1	3485.017	-13.77479	-1.02513E-006	0.0087718	7
	25	35	3170.956	3435.826	-984.935	1	3574.213	-15.99581	9.101201E-007	0.0056624	7
	26	36	2527.573	3488.902	-1171.091	1	3680.203	-18.55494	5.855806E-007	0.0074146	7
	27	38	1976.103	3556.02	-1424.035	1	3830.556	-21.82401	1.033035E-006	0.0061613	7
	28	39	1577.524	3617.295	-1706.647	1	3999.683	-25.25803	-1.154067E-006	0.0086257	7
	29	41	1265.625	3707.769	-2042.169	1	4232.967	-28.84514	7.196941E-007	0.0055842	7
	30	42	998.264	3806.24	-2483.451	1	4544.776	-33.12318	5.847907E-007	0.0074118	7
	31	43	796.875	3915.91	-2997.81	1	4931.655	-37.43573	3.854158E-007	0.0077067	7
	32	45	627.7902	4050.288	-3675.246	1	5469.21	-42.22072	7.866411E-007	0.0070188	7
	33	46	505.5147	4187.709	-4431.732	1	6097.307	-46.62165	7.184018E-007	0.0055789	7
	34	47	397.9953	4377.866	-5445.605	1	6987.154	-51.20328	4.577752E-009	0.0072657	7
	35	49	315.5048	4596.123	-6680.041	1	8108.47	-55.47054	3.399018E-009	0.0072679	7
	36	50	252.4038	4855.057	-8142.099	1	9479.733	-59.19277	6.268953E-009	0.0072614	7
	37	52	198.6229	5206.252	-10082.36	1	11347.2	-62.68941	5.235807E-010	0.0072091	6
	38	53	158.3615	5624.121	-12352.5	1	13572.58	-65.52012	7.825972E-010	0.0072113	6
	39	54	125.558	6181.737	-15210.62	1	16418.8	-67.88272	4.515691E-010	0.0072048	6
	40	56	100.4464	6858.479	-18581.52	1	19806.86	-69.74078	9.49562E-010	0.0072052	6
	41	57	79.00281	7885.533	-23061.15	1	24372.08	-71.12238	9.765205E-010	0.0071967	6
	42	58	63.3446	9050.557	-28272.45	1	29685.75	-72.24913	3.914635E-011	0.0072007	6
	43	60	49.86702	10650.16	-34566.79	1	36170.27	-72.87574	7.251728E-010	0.0071928	6
	44	61	39.72458	12943.41	-42291.86	1	44228.2	-72.98328	5.790584E-010	0.0072047	6
	45	63	31.6723	15869.22	-51380.75	1	53775.59	-72.83642	1.208713E-009	0.0071965	6
	46	64	24.93351	20091.2	-62991.77	1	66118.22	-72.30994	5.170206E-010	0.0072089	6
	47	65	19.86229	25442.62	-76079.88	1	80221.41	-71.50905	1.068241E-009	0.0071959	6
	48	67	15.83615	32982.74	-91269.21	1	97046	-70.13123	1.076367E-009	0.0072022	6
	49	68	12.40079	42214.4	-109880.2	1	117710.3	-68.98394	1.113032E-009	0.0072088	5
	50	70	9.93114	53379.54	-129754.4	1	140305.3	-67.63828	4.87435E-011	0.0072164	5
	51	71	7.944915	67508.09	-151888.1	1	166214.7	-66.03679	6.390813E-010	0.0072084	5
	52	73	6.317385	84712.95	-176837.6	1	196081.1	-64.40353	4.224374E-010	0.007215	5
	53	75	5.008013	105429.1	-204921.5	1	230452	-62.77484	3.160118E-010	0.0072029	5
	54	77	3.945707	129742.6	-236578.4	1	269819.4	-61.25907	3.636214E-010	0.0072229	5
	55	80	3.158693	155614.9	-269807.7	1	311467.8	-60.02528	-1.031194E-010	0.0072137	5
	56	83	2.504006	184894	-308262.8	1	359460.3	-59.04494	4.687153E-010	0.0072066	5
	57	86	1.998082	215910.4	-350836.5	1	411950.9	-58.39119	7.102707E-011	0.0072565	5
	58	89	1.584686	249346.9	-401164.6	1	472342	-58.13667	1.351416E-010	0.0071971	5
	59	93	1.266892	286452.2	-460285.6	1	542141.8	-58.10452	8.79227E-011	0.007247	5
	60	97	0.999041	329470.6	-533715.2	1	627218.3	-58.31233	-9.637473E-011	0.0071647	5
