EXPLAIN
TAG	EISPOT
TITLE	LABEL	Potentiostatic EIS	Test &Identifier
DATE	LABEL	11/22/2019	Date
TIME	LABEL	10:50:10	Time
NOTES	NOTES	4	&Notes...
	
	
	
	
PSTAT	PSTAT	REF600-11020	Potentiostat
VDC	POTEN	0.00000E+000	T	DC &Voltage (V)
FREQINIT	QUANT	1.00000E+006	Initial Fre&q. (Hz)
FREQFINAL	QUANT	1.00000E+000	Final Fre&q. (Hz)
PTSPERDEC	QUANT	1.00000E+001	Points/&decade
VAC	QUANT	2.50000E+001	AC &Voltage (mV rms)
AREA	QUANT	1.00000E-002	&Area (cm^2)
CONDIT	TWOPARAM	T	5.00000E+000	0.00000E+000	Conditionin&g	Time(s)	E(V)
DELAY	TWOPARAM	T	5.00000E+000	0.00000E+000	Init. De&lay	Time(s)	Stab.(mV/s)
SPEED	SELECTOR	0	&Optimize for:
ZGUESS	QUANT	1.00000E+005	E&stimated Z (ohms)
OCVCURVE	TABLE	19
	Pt	T	Vf	Vm	Ach	Over
	#	s	V vs. Ref.	V	V	bits
	0	0.258333	3.85763E-002	3.85763E-002	5.60466E-004	...........
	1	0.516667	3.86241E-002	4.10810E-002	5.59166E-004	...........
	2	0.775	3.89168E-002	4.33946E-002	5.58932E-004	...........
	3	1.03333	3.97394E-002	4.55383E-002	5.62332E-004	...........
	4	1.29167	4.11962E-002	4.75350E-002	5.62632E-004	...........
	5	1.55	4.31055E-002	4.94148E-002	5.66299E-004	...........
	6	1.80833	4.51840E-002	5.11750E-002	5.65266E-004	...........
	7	2.06667	4.72317E-002	5.29038E-002	5.59466E-004	...........
	8	2.325	4.91682E-002	5.45156E-002	5.58366E-004	...........
	9	2.58333	5.09868E-002	5.60280E-002	5.64066E-004	...........
	10	2.84167	5.27003E-002	5.74479E-002	5.63366E-004	...........
	11	3.1	5.43166E-002	5.87456E-002	5.64599E-004	...........
	12	3.35833	5.58360E-002	5.99821E-002	5.62366E-004	...........
	13	3.61667	5.72600E-002	6.12354E-002	5.61166E-004	...........
	14	3.875	5.86029E-002	6.25400E-002	5.59399E-004	...........
	15	4.13333	5.98935E-002	6.37594E-002	5.62099E-004	...........
	16	4.39167	6.11587E-002	6.49386E-002	5.56733E-004	...........
	17	4.65	6.24048E-002	6.60111E-002	5.58566E-004	...........
	18	4.90833	6.36186E-002	6.70565E-002	5.60699E-004	...........
EOC	QUANT	0.0636186	Open Circuit (V)
PSTATMODEL	IQUANT	4	Pstat Model
PSTATSECTION	LABEL	REF600-11020	Pstat Section
PSTATSERIALNO	LABEL	11020	Pstat Serial Number
CTRLMODE	IQUANT	1	Control Mode
IESTAB	IQUANT	0	I/E Stability
CASPEED	IQUANT	1	Control Amp Speed
CONVENTION	IQUANT	1	Current Convention
ICHRANGE	IQUANT	2	Ich Range
ICHRANGEMODE	TOGGLE	F	Ich Auto Range
ICHOFFSETENABLE	TOGGLE	T	Ich Offset Enable
ICHOFFSET	QUANT	0	Ich Offset (V)
ICHFILTER	IQUANT	3	Ich Filter
VCHRANGE	IQUANT	2	Vch Range
VCHRANGEMODE	TOGGLE	F	Vch Auto Range
VCHOFFSETENABLE	TOGGLE	T	Vch Offset Enable
VCHOFFSET	QUANT	0	Vch Offset (V)
VCHFILTER	IQUANT	3	Vch Filter
ACHRANGE	IQUANT	2	Ach Range
ACHOFFSETENABLE	TOGGLE	F	Ach Offset Enable
ACHOFFSET	QUANT	0	Ach Offset (V)
ACHFILTER	IQUANT	3	Ach Filter
IERANGELOWERLIMIT	IQUANT	1	I/E Range Lower Limit
IERANGEMODE	TOGGLE	F	I/E AutoRange
IERANGE	IQUANT	6	I/E Range
POSFEEDENABLE	TOGGLE	F	Positive Feedback IR Comp
POSFEEDRESISTANCE	QUANT	0	Positive Feedback Resistance (ohm)
ACHSELECT	IQUANT	0	Ach Select
CABLEID	IQUANT	14	Cable ID
DCCALDATE	LABEL	8/19/2019	DC Calibration Date
ACCALDATE	LABEL	8/19/2019	AC Calibration Date
THERMOSELECT	IQUANT	1	Thermo Select
FRAMEWORKVERSION	QUANT	6.33	Framework Version
INSTRUMENTVERSION	LABEL	3.50	Instrument Version
ZCURVE	TABLE
	Pt	Time	Freq	Zreal	Zimag	Zsig	Zmod	Zphz	Idc	Vdc	IERange
	#	s	Hz	ohm	ohm	V	ohm	°	A	V	#
	0	1	1000078	2027.309	-1139.713	1	2325.71	-29.34384	-1.790657E-006	0.0652751	8
	1	2	794390.6	2232.694	-1093.983	1	2486.307	-26.10408	8.445076E-006	0.0638327	8
	2	2	630984.4	2407.252	-1041.031	1	2622.71	-23.38637	-9.762599E-007	0.0656351	8
	3	2	501234.4	2561.704	-990.404	1	2746.493	-21.13746	7.857499E-006	0.0642604	8
	4	2	398109.4	2698.341	-912.1755	1	2848.352	-18.67785	-1.089362E-006	0.0655506	8
	5	3	316265.6	2831.54	-874.2286	1	2963.427	-17.1579	8.650224E-007	0.065428	8
	6	3	251203.1	2953.018	-829.8345	1	3067.399	-15.69602	-1.682235E-006	0.0648171	8
	7	3	199546.9	3046.767	-790.0526	1	3147.534	-14.5371	-3.602579E-006	0.0656036	8
	8	4	158578.1	3143.957	-751.1207	1	3232.436	-13.43663	-4.529239E-006	0.0654113	8
	9	4	125953.1	3251.572	-681.0782	1	3322.135	-11.83021	-2.212175E-006	0.0658434	7
	10	4	100078.1	3333.482	-678.8023	1	3401.893	-11.50986	-8.554799E-007	0.0666393	7
	11	5	79453.13	3418.334	-684.1035	1	3486.116	-11.31697	-7.335351E-007	0.0648888	7
	12	5	63140.62	3500.672	-700.9617	1	3570.161	-11.32295	-1.193277E-006	0.0664399	7
	13	5	50203.12	3595.154	-724.9461	1	3667.517	-11.40055	7.240979E-007	0.0632866	7
	14	6	39890.62	3688.732	-755.9368	1	3765.393	-11.58135	1.063999E-006	0.0638581	7
	15	6	31640.63	3784.848	-791.2443	1	3866.671	-11.80795	1.06554E-006	0.0638568	7
	16	6	25171.88	3875.027	-830.7307	1	3963.073	-12.09996	-1.036672E-006	0.0655312	7
	17	7	20015.62	3981.794	-878.2891	1	4077.508	-12.43891	-1.037017E-006	0.0655371	7
	18	7	15890.62	4091.529	-936.394	1	4197.313	-12.8908	-1.195429E-006	0.0660828	7
	19	7	12609.37	4214.994	-1007.403	1	4333.709	-13.44179	4.340427E-007	0.0634002	7
	20	8	10078.13	4331.166	-1081.506	1	4464.152	-14.02024	1.039325E-006	0.0635473	7
	21	8	8015.625	4459.906	-1168.565	1	4610.456	-14.68233	9.269943E-007	0.0633464	7
	22	8	6328.125	4593.311	-1280.007	1	4768.325	-15.57143	8.21533E-007	0.0647287	7
	23	8	5015.625	4728.595	-1409.039	1	4934.066	-16.59315	9.912234E-007	0.0642472	7
	24	9	3984.375	4855.631	-1551.41	1	5097.453	-17.71906	7.798951E-008	0.0636951	7
	25	9	3170.956	4982.976	-1736.993	1	5277.044	-19.21782	-1.058973E-006	0.0665733	7
	26	9	2527.573	5127.569	-1969.028	1	5492.635	-21.0072	6.170255E-007	0.0651373	7
	27	10	1976.103	5271.513	-2270.499	1	5739.688	-23.30208	7.608924E-008	0.0636957	7
	28	10	1577.524	5413.652	-2636.64	1	6021.586	-25.96772	-2.586735E-007	0.0662821	7
	29	10	1265.625	5561.82	-3071.319	1	6353.49	-28.90813	8.237865E-007	0.0647224	7
	30	11	998.264	5734.863	-3650.104	1	6797.934	-32.47578	1.040181E-006	0.0635411	7
	31	11	796.875	5901.947	-4335.586	1	7323.27	-36.3011	9.464959E-008	0.0658856	7
	32	12	627.7902	6107.207	-5228.426	1	8039.553	-40.56709	-1.195516E-006	0.0664228	7
	33	12	505.5147	6332.097	-6251.267	1	8897.966	-44.63197	-1.194357E-006	0.0664236	7
	34	12	397.9953	6638.597	-7658.696	1	10135.41	-49.08109	9.782664E-010	0.0650008	7
	35	12	315.5048	6996.068	-9333.837	1	11664.71	-53.14704	-1.28992E-009	0.0649413	6
	36	13	252.4038	7408.057	-11311.04	1	13521.05	-56.77759	-1.716305E-009	0.0649339	6
	37	13	198.6229	7962.339	-13926.65	1	16042.15	-60.24193	-2.336305E-009	0.0649372	6
	38	13	158.3615	8625.079	-16962.6	1	19029.5	-63.04774	-2.423854E-009	0.0649368	6
	39	14	125.558	9470.014	-20773.32	1	22830.07	-65.493	-2.242368E-009	0.0649458	6
	40	14	100.4464	10524.41	-25224.71	1	27332.2	-67.35284	-1.214135E-009	0.0649338	6
	41	14	79.00281	12008.19	-31124.39	1	33360.52	-68.90274	-2.035075E-009	0.0649416	6
	42	15	63.3446	13469.51	-38051.59	1	40365.23	-70.50705	-1.687324E-009	0.064931	6
	43	15	49.86702	15830.26	-46539.91	1	49158.53	-71.21458	-2.31506E-009	0.0649341	6
	44	15	39.72458	18941.65	-56332.68	1	59431.95	-71.41498	-1.849768E-009	0.0649348	6
	45	16	31.6723	22699.04	-68313.04	1	71985.54	-71.61939	-2.629496E-009	0.0649382	6
	46	16	24.93351	27705.97	-83357.3	1	87841.11	-71.61443	-2.149247E-009	0.0649415	6
	47	16	19.86229	33955.77	-100495.5	1	106077	-71.33073	-1.166427E-009	0.0649562	5
	48	17	15.83615	42485.88	-121277.8	1	128504.3	-70.69368	-2.710785E-009	0.0649542	5
	49	17	12.40079	54263.85	-147869.6	1	157511.8	-69.84833	-1.839297E-009	0.0649471	5
	50	17	9.93114	66927.27	-174620.4	1	187006.8	-69.02952	-2.824737E-009	0.0649465	5
	51	18	7.944915	83945.54	-207067.9	1	223436.7	-67.93232	-2.081733E-009	0.0649387	5
	52	19	6.317385	105598.5	-244851	1	266651.5	-66.67059	-2.079648E-009	0.0649394	5
	53	19	5.008013	133086	-288558.5	1	317770.2	-65.24039	-2.331559E-009	0.0649408	5
	54	20	3.945707	167940.2	-338445.5	1	377821.7	-63.60891	-1.966863E-009	0.06494	5
	55	22	3.158693	207380.7	-390466.8	1	442121.2	-62.02679	-2.033588E-009	0.064952	5
	56	23	2.504006	255892.3	-450657.7	1	518240.5	-60.41124	-2.165888E-009	0.0649492	5
	57	25	1.998082	309645.7	-511073.8	1	597559.1	-58.78947	-1.796861E-009	0.0649746	5
	58	26	1.584686	374421.3	-584568.1	1	694198.2	-57.36006	-1.765112E-009	0.0649914	5
	59	28	1.266892	442116.2	-659643.1	1	794100.6	-56.1686	-1.744279E-009	0.0649561	5
	60	31	0.999041	524006.7	-746896.1	1	912379.8	-54.9473	-1.6921E-009	0.0649259	5
