EXPLAIN
TAG	EISPOT
TITLE	LABEL	Potentiostatic EIS	Test &Identifier
DATE	LABEL	8/14/2018	Date
TIME	LABEL	5:12:45	Time
NOTES	NOTES	1	&Notes...
	
PSTAT	PSTAT	REF600-11020	Potentiostat
VDC	POTEN	0.00000E+000	T	DC &Voltage (V)
FREQINIT	QUANT	1.00000E+006	Initial Fre&q. (Hz)
FREQFINAL	QUANT	1.00000E+000	Final Fre&q. (Hz)
PTSPERDEC	QUANT	1.00000E+001	Points/&decade
VAC	QUANT	2.50000E+001	AC &Voltage (mV rms)
AREA	QUANT	1.00000E-002	&Area (cm^2)
CONDIT	TWOPARAM	T	5.00000E+000	0.00000E+000	Conditionin&g	Time(s)	E(V)
DELAY	TWOPARAM	T	5.00000E+000	0.00000E+000	Init. De&lay	Time(s)	Stab.(mV/s)
SPEED	SELECTOR	0	&Optimize for:
ZGUESS	QUANT	1.00000E+005	E&stimated Z (ohms)
OCVCURVE	TABLE	19
	Pt	T	Vf	Vm	Ach	Over
	#	s	V vs. Ref.	V	V	bits
	0	0.258333	2.26509E-003	2.26509E-003	5.61732E-004	...........
	1	0.516667	2.26177E-003	2.09137E-003	5.67499E-004	...........
	2	0.775	2.24200E-003	1.95822E-003	5.67066E-004	...........
	3	1.03333	2.18836E-003	1.84671E-003	5.59066E-004	...........
	4	1.29167	2.09678E-003	1.69508E-003	5.58566E-004	...........
	5	1.55	1.97892E-003	1.56899E-003	5.60366E-004	...........
	6	1.80833	1.84886E-003	1.45440E-003	5.58332E-004	...........
	7	2.06667	1.71675E-003	1.34648E-003	5.64366E-004	...........
	8	2.325	1.58940E-003	1.24245E-003	5.59532E-004	...........
	9	2.58333	1.47016E-003	1.15022E-003	5.55066E-004	...........
	10	2.84167	1.35935E-003	1.05340E-003	5.58899E-004	...........
	11	3.1	1.25588E-003	9.69350E-004	5.56299E-004	...........
	12	3.35833	1.15835E-003	8.82652E-004	5.59166E-004	...........
	13	3.61667	1.06567E-003	8.02050E-004	5.55433E-004	...........
	14	3.875	9.77119E-004	7.23893E-004	5.61166E-004	...........
	15	4.13333	8.92239E-004	6.51389E-004	5.61032E-004	...........
	16	4.39167	8.10886E-004	5.78180E-004	5.59899E-004	...........
	17	4.65	7.32928E-004	5.08446E-004	5.59332E-004	...........
	18	4.90833	6.57896E-004	4.36510E-004	5.59099E-004	...........
EOC	QUANT	0.0006579	Open Circuit (V)
PSTATMODEL	IQUANT	4	Pstat Model
PSTATSECTION	LABEL	REF600-11020	Pstat Section
PSTATSERIALNO	LABEL	11020	Pstat Serial Number
CTRLMODE	IQUANT	1	Control Mode
IESTAB	IQUANT	0	I/E Stability
CASPEED	IQUANT	1	Control Amp Speed
CONVENTION	IQUANT	1	Current Convention
ICHRANGE	IQUANT	2	Ich Range
ICHRANGEMODE	TOGGLE	F	Ich Auto Range
ICHOFFSETENABLE	TOGGLE	T	Ich Offset Enable
ICHOFFSET	QUANT	0	Ich Offset (V)
ICHFILTER	IQUANT	3	Ich Filter
VCHRANGE	IQUANT	2	Vch Range
VCHRANGEMODE	TOGGLE	F	Vch Auto Range
VCHOFFSETENABLE	TOGGLE	T	Vch Offset Enable
VCHOFFSET	QUANT	0	Vch Offset (V)
VCHFILTER	IQUANT	3	Vch Filter
ACHRANGE	IQUANT	2	Ach Range
ACHOFFSETENABLE	TOGGLE	F	Ach Offset Enable
ACHOFFSET	QUANT	0	Ach Offset (V)
ACHFILTER	IQUANT	3	Ach Filter
IERANGELOWERLIMIT	IQUANT	1	I/E Range Lower Limit
IERANGEMODE	TOGGLE	F	I/E AutoRange
IERANGE	IQUANT	4	I/E Range
POSFEEDENABLE	TOGGLE	F	Positive Feedback IR Comp
POSFEEDRESISTANCE	QUANT	0	Positive Feedback Resistance (ohm)
ACHSELECT	IQUANT	0	Ach Select
CABLEID	IQUANT	14	Cable ID
DCCALDATE	LABEL	8/19/2019	DC Calibration Date
ACCALDATE	LABEL	8/19/2019	AC Calibration Date
THERMOSELECT	IQUANT	1	Thermo Select
FRAMEWORKVERSION	QUANT	6.33	Framework Version
INSTRUMENTVERSION	LABEL	3.50	Instrument Version
ZCURVE	TABLE
	Pt	Time	Freq	Zreal	Zimag	Zsig	Zmod	Zphz	Idc	Vdc	IERange
	#	s	Hz	ohm	ohm	V	ohm	°	A	V	#
	0	2	1000078	1798.279	-637.0281	1	1907.776	-19.50635	3.583056E-006	0.0023407	8
	1	2	794390.6	1883.454	-566.0145	1	1966.665	-16.72654	5.173335E-007	0.0021647	8
	2	2	630984.4	1950.369	-498.8719	1	2013.16	-14.34769	2.284735E-006	0.0020122	8
	3	3	501234.4	2021.688	-431.1797	1	2067.157	-12.03949	-2.521028E-006	0.002705	8
	4	3	398109.4	2066.195	-377.1502	1	2100.334	-10.34453	-7.870527E-007	0.0027167	8
	5	3	316265.6	2104.428	-335.2096	1	2130.958	-9.050481	-1.093753E-006	0.0025281	8
	6	4	251203.1	2139.652	-295.7527	1	2159.995	-7.869825	1.826181E-006	0.0019812	8
	7	4	199546.9	2167.707	-260.1321	1	2183.259	-6.842964	1.272668E-006	0.0020637	8
	8	4	158578.1	2192.545	-236.269	1	2205.239	-6.150469	-5.799868E-007	0.0024847	8
	9	4	125953.1	2221.202	-182.3378	1	2228.674	-4.692871	-1.936763E-007	0.0026987	7
	10	5	100078.1	2234.737	-161.2428	1	2240.546	-4.126907	-1.73257E-009	0.0022418	7
	11	5	79453.13	2249.925	-162.4307	1	2255.781	-4.129237	-3.439328E-008	0.0024023	7
	12	5	63140.62	2264.965	-165.0921	1	2270.974	-4.168887	-4.331169E-008	0.0023222	7
	13	6	50203.12	2280.814	-169.212	1	2287.082	-4.24296	6.481553E-008	0.0021653	7
	14	6	39890.62	2297.23	-175.7934	1	2303.946	-4.375979	6.397326E-008	0.0021551	7
	15	6	31640.63	2313.965	-186.2218	1	2321.446	-4.601096	3.57413E-008	0.002168	7
	16	7	25171.88	2331.239	-200.3159	1	2339.829	-4.911181	6.48828E-008	0.0021637	7
	17	7	20015.62	2349.213	-217.7645	1	2359.284	-5.296	-1.259025E-008	0.0023235	7
	18	7	15890.62	2368.115	-241.8492	1	2380.433	-5.831246	-3.394159E-008	0.002404	7
	19	8	12609.37	2386.679	-272.7806	1	2402.217	-6.520212	2.068146E-008	0.0022671	7
	20	8	10078.13	2407.461	-309.6814	1	2427.298	-7.329934	-3.420878E-008	0.0023992	7
	21	8	8015.625	2430.832	-353.798	1	2456.444	-8.281028	1.108235E-007	0.0021218	7
	22	9	6328.125	2456.252	-411.4762	1	2490.479	-9.51	6.463279E-008	0.0021447	7
	23	9	5015.625	2483.445	-482.0198	1	2529.791	-10.98415	3.654464E-008	0.0021571	7
	24	9	3984.375	2512.736	-568.9569	1	2576.345	-12.7583	1.086342E-007	0.0021214	7
	25	10	3170.956	2544.612	-673.6345	1	2632.268	-14.82775	-1.521703E-008	0.0023223	7
	26	10	2527.573	2580.109	-801.3436	1	2701.688	-17.25402	-3.090658E-008	0.0022893	7
	27	10	1976.103	2622.518	-973.472	1	2797.364	-20.36479	1.065262E-007	0.0021234	7
	28	10	1577.524	2662.53	-1170.305	1	2908.381	-23.72771	-4.721347E-008	0.0023397	7
	29	11	1265.625	2717.772	-1404.391	1	3059.183	-27.32737	-3.974374E-008	0.0022925	7
	30	11	998.264	2782.753	-1717.395	1	3270.039	-31.6811	-1.651518E-008	0.0023186	7
	31	11	796.875	2856.897	-2083.927	1	3536.187	-36.10841	-3.055186E-008	0.0022899	7
	32	12	627.7902	2952.28	-2563.997	1	3910.248	-40.97367	-5.163978E-008	0.0023553	7
	33	12	505.5147	3059.684	-3097.387	1	4353.788	-45.35085	-1.266607E-009	0.0022247	7
	34	12	397.9953	3210.527	-3822.984	1	4992.263	-49.97659	1.753168E-009	0.0022996	7
	35	13	315.5048	3396.604	-4690.011	1	5790.779	-54.08716	2.237096E-009	0.0022995	7
	36	13	252.4038	3625.753	-5708.163	1	6762.338	-57.5768	8.142453E-010	0.0022985	7
	37	13	198.6229	3943.811	-7042.162	1	8071.288	-60.74994	1.333126E-009	0.0022988	7
	38	14	158.3615	4334.321	-8581.54	1	9614.01	-63.2028	7.135227E-010	0.0022937	7
	39	14	125.558	4857.18	-10492.27	1	11562	-65.15919	3.638477E-010	0.0022355	6
	40	14	100.4464	5505.037	-12716.79	1	13857.21	-66.59245	1.597879E-009	0.0022372	6
	41	15	79.00281	6392.531	-15580.69	1	16841.09	-67.69237	1.19377E-009	0.0022323	6
	42	15	63.3446	7610.341	-18682.79	1	20173.35	-67.83672	-2.955487E-010	0.0022297	6
	43	15	49.86702	9111.914	-22782.28	1	24536.9	-68.20075	-1.147307E-009	0.0022269	6
	44	16	39.72458	10838.56	-27383.08	1	29450.09	-68.40574	2.352054E-011	0.0022322	6
	45	16	31.6723	13109.59	-32728.78	1	35256.69	-68.17132	1.972008E-010	0.0022319	6
	46	16	24.93351	16232.81	-39405.32	1	42617.88	-67.61105	3.607507E-010	0.0022305	6
	47	17	19.86229	19892.68	-46766.69	1	50821.66	-66.95704	-9.133194E-010	0.0022314	6
	48	17	15.83615	24227.15	-54989.1	1	60089.57	-66.22263	1.921415E-009	0.0022292	6
	49	17	12.40079	30220.32	-65162.06	1	71828.7	-65.11947	4.264091E-009	0.0022258	6
	50	18	9.93114	36550.62	-76542.41	1	84821.51	-64.47454	1.746569E-009	0.0022299	6
	51	18	7.944915	44169.75	-89232.48	1	99566.1	-63.66476	1.573914E-009	0.0022292	6
	52	19	6.317385	53177.05	-103958.7	1	116769.9	-62.9093	1.285002E-009	0.0022236	5
	53	19	5.008013	64221.04	-121248.6	1	137206.3	-62.09143	1.063417E-009	0.00224	5
	54	21	3.945707	77491.33	-141124.3	1	160999.9	-61.22882	2.294883E-010	0.0022379	5
	55	22	3.158693	91668.98	-162241.1	1	186347.4	-60.53281	-5.33677E-011	0.00222	5
	56	24	2.504006	108528.1	-187197.1	1	216381.9	-59.89686	3.981492E-010	0.002223	5
	57	25	1.998082	125987.2	-214773	1	248998.4	-59.60385	2.202692E-010	0.0022367	5
	58	26	1.584686	146645.1	-247399	1	287595.3	-59.34277	-2.435833E-011	0.0021912	5
	59	28	1.266892	167678.9	-285360.9	1	330978.9	-59.56138	-2.41162E-011	0.0021888	5
	60	31	0.999041	191351.8	-332892.3	1	383969.8	-60.10902	-1.775494E-011	0.0021992	5
