EXPLAIN
TAG	EISPOT
TITLE	LABEL	Potentiostatic IDE	Test &Identifier
DATE	LABEL	9/8/2019	Date
TIME	LABEL	10:12:57	Time
NOTES	NOTES	1	&Notes...
	
PSTAT	PSTAT	REF600-11020	Potentiostat
VDC	POTEN	0.00000E+000	T	DC &Voltage (V)
FREQINIT	QUANT	1.00000E+006	Initial Fre&q. (Hz)
FREQFINAL	QUANT	1.00000E+000	Final Fre&q. (Hz)
PTSPERDEC	QUANT	1.00000E+001	Points/&decade
VAC	QUANT	2.50000E+001	AC &Voltage (mV rms)
AREA	QUANT	1.00000E-002	&Area (cm^2)
CONDIT	TWOPARAM	T	5.00000E+000	0.00000E+000	Conditionin&g	Time(s)	E(V)
DELAY	TWOPARAM	T	5.00000E+000	0.00000E+000	Init. De&lay	Time(s)	Stab.(mV/s)
SPEED	SELECTOR	1	&Optimize for:
ZGUESS	QUANT	1.00000E+007	E&stimated Z (ohms)
OCVCURVE	TABLE	19
	Pt	T	Vf	Vm	Ach	Over
	#	s	V vs. Ref.	V	V	bits
	0	0.258333	9.52468E-003	9.52468E-003	5.63999E-004	...........
	1	0.516667	9.52577E-003	9.58152E-003	5.69499E-004	...........
	2	0.775	9.53284E-003	9.65638E-003	5.67166E-004	...........
	3	1.03333	9.55434E-003	9.73748E-003	5.68266E-004	...........
	4	1.29167	9.59644E-003	9.82916E-003	5.68599E-004	...........
	5	1.55	9.65853E-003	9.91379E-003	5.62466E-004	...........
	6	1.80833	9.73533E-003	1.00179E-002	5.67999E-004	...........
	7	2.06667	9.82132E-003	1.01119E-002	5.65366E-004	...........
	8	2.325	9.91293E-003	1.02080E-002	5.60899E-004	...........
	9	2.58333	1.00076E-002	1.02970E-002	5.64632E-004	...........
	10	2.84167	1.01031E-002	1.03934E-002	5.60099E-004	...........
	11	3.1	1.01978E-002	1.04838E-002	5.68732E-004	...........
	12	3.35833	1.02915E-002	1.05740E-002	5.66132E-004	...........
	13	3.61667	1.03842E-002	1.06646E-002	5.69066E-004	...........
	14	3.875	1.04759E-002	1.07520E-002	5.63999E-004	...........
	15	4.13333	1.05666E-002	1.08403E-002	5.66366E-004	...........
	16	4.39167	1.06562E-002	1.09221E-002	5.66132E-004	...........
	17	4.65	1.07444E-002	1.10079E-002	5.66332E-004	...........
	18	4.90833	1.08309E-002	1.10850E-002	5.69966E-004	...........
EOC	QUANT	0.0108309	Open Circuit (V)
PSTATMODEL	IQUANT	4	Pstat Model
PSTATSECTION	LABEL	REF600-11020	Pstat Section
PSTATSERIALNO	LABEL	11020	Pstat Serial Number
CTRLMODE	IQUANT	1	Control Mode
IESTAB	IQUANT	0	I/E Stability
CASPEED	IQUANT	1	Control Amp Speed
CONVENTION	IQUANT	1	Current Convention
ICHRANGE	IQUANT	2	Ich Range
ICHRANGEMODE	TOGGLE	F	Ich Auto Range
ICHOFFSETENABLE	TOGGLE	T	Ich Offset Enable
ICHOFFSET	QUANT	0	Ich Offset (V)
ICHFILTER	IQUANT	3	Ich Filter
VCHRANGE	IQUANT	2	Vch Range
VCHRANGEMODE	TOGGLE	F	Vch Auto Range
VCHOFFSETENABLE	TOGGLE	T	Vch Offset Enable
VCHOFFSET	QUANT	0	Vch Offset (V)
VCHFILTER	IQUANT	3	Vch Filter
ACHRANGE	IQUANT	2	Ach Range
ACHOFFSETENABLE	TOGGLE	F	Ach Offset Enable
ACHOFFSET	QUANT	0	Ach Offset (V)
ACHFILTER	IQUANT	3	Ach Filter
IERANGELOWERLIMIT	IQUANT	1	I/E Range Lower Limit
IERANGEMODE	TOGGLE	F	I/E AutoRange
IERANGE	IQUANT	3	I/E Range
POSFEEDENABLE	TOGGLE	F	Positive Feedback IR Comp
POSFEEDRESISTANCE	QUANT	0	Positive Feedback Resistance (ohm)
ACHSELECT	IQUANT	0	Ach Select
CABLEID	IQUANT	14	Cable ID
DCCALDATE	LABEL	8/19/2019	DC Calibration Date
ACCALDATE	LABEL	8/19/2019	AC Calibration Date
THERMOSELECT	IQUANT	1	Thermo Select
FRAMEWORKVERSION	QUANT	6.33	Framework Version
INSTRUMENTVERSION	LABEL	3.50	Instrument Version
ZCURVE	TABLE
	Pt	Time	Freq	Zreal	Zimag	Zsig	Zmod	Zphz	Idc	Vdc	IERange
	#	s	Hz	ohm	ohm	V	ohm	°	A	V	#
	0	2	1000078	2754.885	-1827.666	1	3306.017	-33.56138	2.306006E-006	0.0122776	8
	1	4	794390.6	3099.323	-1730.201	1	3549.563	-29.17249	-5.290351E-006	0.0136885	8
	2	5	630984.4	3405.549	-1588.87	1	3757.961	-25.01156	3.25811E-006	0.0120508	8
	3	7	501234.4	3664.85	-1418.071	1	3929.637	-21.15336	-5.936508E-006	0.0137502	8
	4	8	398109.4	3857.362	-1226.803	1	4047.751	-17.64284	-1.62558E-006	0.0126977	8
	5	10	316265.6	4024.083	-1094.846	1	4170.364	-15.22025	8.847857E-007	0.0122216	8
	6	11	251203.1	4125.509	-948.3397	1	4233.104	-12.94581	-1.011565E-006	0.0127029	8
	7	12	199546.9	4209.434	-830.7078	1	4290.619	-11.16355	-3.710519E-006	0.0131908	8
	8	14	158578.1	4285.952	-736.2651	1	4348.732	-9.74745	-9.421171E-007	0.0126878	8
	9	15	125953.1	4353.964	-605.3071	1	4395.839	-7.914779	-1.052695E-006	0.0154548	7
	10	17	100078.1	4409.723	-565.1171	1	4445.786	-7.302794	-2.383376E-008	0.0125461	7
	11	18	79453.13	4457.421	-542.403	1	4490.301	-6.937949	-1.338544E-008	0.0124234	7
	12	19	63140.62	4503.015	-534.2507	1	4534.596	-6.766108	-4.409898E-008	0.0125236	7
	13	21	50203.12	4549.844	-534.4502	1	4581.126	-6.699582	-4.677123E-008	0.0124172	7
	14	22	39890.62	4602.58	-553.5307	1	4635.746	-6.857758	-5.688825E-008	0.012493	7
	15	23	31640.63	4649.528	-576.3871	1	4685.118	-7.066721	-1.306663E-008	0.0124147	7
	16	25	25171.88	4703.136	-615.9193	1	4743.294	-7.460955	-2.575585E-008	0.012369	7
	17	26	20015.62	4759.044	-669.6091	1	4805.921	-8.00908	7.509849E-008	0.0123564	7
	18	27	15890.62	4822.484	-733.8871	1	4878.006	-8.652899	-4.150177E-008	0.0124301	7
	19	29	12609.37	4887.981	-822.6697	1	4956.727	-9.55361	7.642992E-008	0.0123514	7
	20	30	10078.13	4958.498	-925.0199	1	5044.042	-10.5672	-2.148498E-008	0.0123609	7
	21	31	8015.625	5036.667	-1050.904	1	5145.135	-11.78571	-4.34114E-008	0.0125128	7
	22	33	6328.125	5127.512	-1208.978	1	5268.113	-13.26704	9.47293E-008	0.0121808	7
	23	34	5015.625	5227.943	-1400.589	1	5412.305	-14.99761	-3.17598E-008	0.0123652	7
	24	35	3984.375	5333.772	-1627.531	1	5576.557	-16.96889	9.572006E-008	0.0122053	7
	25	37	3170.956	5456.053	-1899.678	1	5777.308	-19.197	-1.227277E-008	0.0124163	7
	26	38	2527.573	5591.84	-2227.311	1	6019.102	-21.71811	-4.307698E-008	0.0124048	7
	27	39	1976.103	5759.834	-2655.895	1	6342.671	-24.75472	-4.63937E-008	0.0124095	7
	28	41	1577.524	5939.683	-3133.913	1	6715.746	-27.81716	-4.163742E-008	0.0124343	7
	29	42	1265.625	6132.122	-3700.252	1	7162.038	-31.10767	-4.274882E-008	0.0124016	7
	30	43	998.264	6381.606	-4436.21	1	7772.057	-34.80532	-5.720754E-008	0.0124773	7
	31	45	796.875	6651.525	-5278.189	1	8491.293	-38.43308	-4.296837E-008	0.0123964	7
	32	46	627.7902	6983.586	-6362.934	1	9447.614	-42.3375	8.392159E-008	0.0122184	7
	33	47	505.5147	7357.991	-7551.367	1	10543.39	-45.74309	-1.701219E-009	0.0122319	6
	34	49	397.9953	7801.546	-9151.477	1	12025.54	-49.55273	7.21702E-010	0.0123272	6
	35	50	315.5048	8325.206	-11048.08	1	13833.62	-53.00039	1.40562E-009	0.0123291	6
	36	51	252.4038	8924.226	-13262.32	1	15985.33	-56.06335	4.859324E-010	0.0123198	6
	37	53	198.6229	9695.15	-16156.96	1	18842.59	-59.03369	1.122525E-009	0.0123194	6
	38	54	158.3615	10576.62	-19504.14	1	22187.3	-61.5301	1.600762E-009	0.0123189	6
	39	55	125.558	11660.22	-23667.8	1	26384.19	-63.7723	1.27751E-009	0.0123261	6
	40	57	100.4464	12959.77	-28547.83	1	31351.78	-65.58353	1.796067E-009	0.0123189	6
	41	58	79.00281	14680.49	-34824.99	1	37792.81	-67.14212	1.337486E-009	0.0123127	6
	42	59	63.3446	16161.74	-41877.27	1	44887.72	-68.89685	1.234609E-009	0.012316	6
	43	61	49.86702	19425.39	-51359.72	1	54910.53	-69.28226	5.325653E-010	0.0123166	6
	44	62	39.72458	22089.11	-62148.52	1	65957.31	-70.43353	6.978219E-010	0.0123237	6
	45	64	31.6723	26026.28	-75368.16	1	79735.35	-70.94908	5.346797E-010	0.0123237	6
	46	65	24.93351	31045.06	-91969.47	1	97067.9	-71.34746	7.689354E-010	0.0123186	6
	47	66	19.86229	37055.09	-111112.8	1	117128.7	-71.55694	2.86866E-010	0.0123217	5
	48	68	15.83615	44682.54	-132579.3	1	139906.4	-71.3749	1.502808E-009	0.0123195	5
	49	69	12.40079	56064.34	-165284.1	1	174533.8	-71.26308	-1.790271E-010	0.012323	5
	50	70	9.93114	68353.16	-196132.3	1	207701.8	-70.78628	2.684763E-010	0.0123232	5
	51	72	7.944915	83938.1	-235039.1	1	249577.6	-70.34714	8.013792E-010	0.012326	5
	52	74	6.317385	106384	-280154.3	1	299673.1	-69.20656	3.024445E-010	0.0123195	5
	53	76	5.008013	133848.1	-334750.3	1	360517.8	-68.20627	-5.18571E-012	0.0123207	5
	54	78	3.945707	170018.5	-398930.5	1	433649.4	-66.91698	3.360667E-010	0.0123238	5
	55	81	3.158693	212647.1	-467050.3	1	513181	-65.52032	1.898369E-010	0.0123367	5
	56	84	2.504006	266495.3	-548375.9	1	609701.5	-64.08155	-4.222806E-012	0.0123139	5
	57	87	1.998082	330572.2	-635160.9	1	716035.8	-62.50508	2.740154E-011	0.0122833	5
	58	90	1.584686	408448.1	-731398.8	1	837719.5	-60.81892	2.09956E-011	0.0123308	5
	59	93	1.266892	498183.5	-835214.9	1	972507	-59.18504	-4.944494E-011	0.012281	5
	60	98	0.999041	617959.5	-947367.5	1	1131096	-56.88394	2.090997E-010	0.0123593	4
