EXPLAIN
TAG	EISPOT
TITLE	LABEL	Potentiostatic EIS	Test &Identifier
DATE	LABEL	10/12/2019	Date
TIME	LABEL	9:47:10	Time
NOTES	NOTES	1	&Notes...
	
PSTAT	PSTAT	REF600-11020	Potentiostat
VDC	POTEN	0.00000E+000	T	DC &Voltage (V)
FREQINIT	QUANT	1.00000E+006	Initial Fre&q. (Hz)
FREQFINAL	QUANT	1.00000E+000	Final Fre&q. (Hz)
PTSPERDEC	QUANT	1.00000E+001	Points/&decade
VAC	QUANT	2.50000E+001	AC &Voltage (mV rms)
AREA	QUANT	1.00000E-002	&Area (cm^2)
CONDIT	TWOPARAM	T	5.00000E+000	0.00000E+000	Conditionin&g	Time(s)	E(V)
DELAY	TWOPARAM	T	5.00000E+000	0.00000E+000	Init. De&lay	Time(s)	Stab.(mV/s)
SPEED	SELECTOR	1	&Optimize for:
ZGUESS	QUANT	1.00000E+004	E&stimated Z (ohms)
OCVCURVE	TABLE	19
	Pt	T	Vf	Vm	Ach	Over
	#	s	V vs. Ref.	V	V	bits
	0	0.258333	3.67985E-003	3.67985E-003	5.64566E-004	...........
	1	0.516667	3.67660E-003	3.50988E-003	5.63699E-004	...........
	2	0.775	3.65729E-003	3.38188E-003	5.67666E-004	...........
	3	1.03333	3.60309E-003	3.17050E-003	5.70599E-004	...........
	4	1.29167	3.50538E-003	3.10245E-003	5.67199E-004	...........
	5	1.55	3.37658E-003	3.00345E-003	5.63232E-004	...........
	6	1.80833	3.24133E-003	2.88040E-003	5.61532E-004	...........
	7	2.06667	3.11788E-003	2.86889E-003	5.65699E-004	...........
	8	2.325	3.01182E-003	2.72847E-003	5.63166E-004	...........
	9	2.58333	2.92122E-003	2.71279E-003	5.59566E-004	...........
	10	2.84167	2.84187E-003	2.65077E-003	5.66266E-004	...........
	11	3.1	2.77141E-003	2.57451E-003	5.60299E-004	...........
	12	3.35833	2.70819E-003	2.54805E-003	5.67199E-004	...........
	13	3.61667	2.64924E-003	2.45753E-003	5.68632E-004	...........
	14	3.875	2.59223E-003	2.44100E-003	5.67366E-004	...........
	15	4.13333	2.53722E-003	2.40064E-003	5.70666E-004	...........
	16	4.39167	2.48609E-003	2.33153E-003	5.68866E-004	...........
	17	4.65	2.43965E-003	2.34725E-003	5.68932E-004	...........
	18	4.90833	2.39772E-003	2.27653E-003	5.69399E-004	...........
EOC	QUANT	0.0023977	Open Circuit (V)
PSTATMODEL	IQUANT	4	Pstat Model
PSTATSECTION	LABEL	REF600-11020	Pstat Section
PSTATSERIALNO	LABEL	11020	Pstat Serial Number
CTRLMODE	IQUANT	1	Control Mode
IESTAB	IQUANT	0	I/E Stability
CASPEED	IQUANT	1	Control Amp Speed
CONVENTION	IQUANT	1	Current Convention
ICHRANGE	IQUANT	2	Ich Range
ICHRANGEMODE	TOGGLE	F	Ich Auto Range
ICHOFFSETENABLE	TOGGLE	T	Ich Offset Enable
ICHOFFSET	QUANT	0	Ich Offset (V)
ICHFILTER	IQUANT	3	Ich Filter
VCHRANGE	IQUANT	2	Vch Range
VCHRANGEMODE	TOGGLE	F	Vch Auto Range
VCHOFFSETENABLE	TOGGLE	T	Vch Offset Enable
VCHOFFSET	QUANT	0	Vch Offset (V)
VCHFILTER	IQUANT	3	Vch Filter
ACHRANGE	IQUANT	2	Ach Range
ACHOFFSETENABLE	TOGGLE	F	Ach Offset Enable
ACHOFFSET	QUANT	0	Ach Offset (V)
ACHFILTER	IQUANT	3	Ach Filter
IERANGELOWERLIMIT	IQUANT	1	I/E Range Lower Limit
IERANGEMODE	TOGGLE	F	I/E AutoRange
IERANGE	IQUANT	5	I/E Range
POSFEEDENABLE	TOGGLE	F	Positive Feedback IR Comp
POSFEEDRESISTANCE	QUANT	0	Positive Feedback Resistance (ohm)
ACHSELECT	IQUANT	0	Ach Select
CABLEID	IQUANT	14	Cable ID
DCCALDATE	LABEL	8/19/2019	DC Calibration Date
ACCALDATE	LABEL	8/19/2019	AC Calibration Date
THERMOSELECT	IQUANT	1	Thermo Select
FRAMEWORKVERSION	QUANT	6.33	Framework Version
INSTRUMENTVERSION	LABEL	3.50	Instrument Version
ZCURVE	TABLE
	Pt	Time	Freq	Zreal	Zimag	Zsig	Zmod	Zphz	Idc	Vdc	IERange
	#	s	Hz	ohm	ohm	V	ohm	°	A	V	#
	0	1	1000078	2628.041	-1467.408	1	3009.964	-29.17748	1.447649E-006	0.0048539	8
	1	3	794390.6	2876.134	-1349.181	1	3176.86	-25.13104	-6.5615E-007	0.00436	8
	2	4	630984.4	3103.881	-1208.321	1	3330.783	-21.27065	-8.109714E-007	0.0045627	8
	3	5	501234.4	3267.96	-1058.217	1	3435.023	-17.94277	-4.834028E-008	0.0040979	8
	4	7	398109.4	3410.835	-925.4977	1	3534.168	-15.18114	-4.179483E-007	0.0041168	8
	5	8	316265.6	3505.374	-783.9926	1	3591.976	-12.60698	4.222977E-006	0.0033891	8
	6	10	251203.1	3578.427	-674.5101	1	3641.443	-10.67463	-1.459354E-006	0.0042868	8
	7	11	199546.9	3629.314	-581.902	1	3675.667	-9.10893	-7.876081E-007	0.004015	8
	8	12	158578.1	3675.88	-513.1803	1	3711.529	-7.947552	5.555293E-007	0.0039108	8
	9	14	125953.1	3736.451	-420.2146	1	3760.006	-6.416725	-7.584031E-007	0.0055535	7
	10	15	100078.1	3762.014	-383.6945	1	3781.531	-5.82356	-1.235561E-008	0.0040497	7
	11	17	79453.13	3792.509	-366.6915	1	3810.195	-5.522668	-5.465045E-008	0.0041094	7
	12	18	63140.62	3822.793	-359.9674	1	3839.703	-5.379307	4.535224E-008	0.0039082	7
	13	19	50203.12	3853.509	-359.4693	1	3870.239	-5.329336	1.587952E-008	0.0039644	7
	14	21	39890.62	3885.749	-368.16	1	3903.151	-5.412402	4.305036E-008	0.0039904	7
	15	22	31640.63	3920.093	-385.4247	1	3938.995	-5.61529	6.049027E-008	0.0039362	7
	16	23	25171.88	3956.043	-409.7053	1	3977.202	-5.912725	-7.629244E-008	0.0042661	7
	17	25	20015.62	3991.927	-453.2381	1	4017.574	-6.477549	-4.071726E-008	0.0041239	7
	18	26	15890.62	4039.191	-486.3573	1	4068.367	-6.865905	6.085283E-008	0.0039296	7
	19	27	12609.37	4088.266	-540.6744	1	4123.864	-7.533665	1.404486E-008	0.0039995	7
	20	29	10078.13	4135.887	-601.0674	1	4179.335	-8.268891	-2.084895E-008	0.0040085	7
	21	30	8015.625	4186.178	-690.0677	1	4242.674	-9.360702	8.037736E-008	0.003867	7
	22	32	6328.125	4251.717	-772.902	1	4321.397	-10.30305	-7.708162E-008	0.0042523	7
	23	33	5015.625	4315.432	-884.4844	1	4405.141	-11.58284	1.814854E-008	0.0039534	7
	24	34	3984.375	4379.812	-1033.599	1	4500.12	-13.27838	-5.290487E-008	0.0040934	7
	25	36	3170.956	4455.711	-1185.358	1	4610.687	-14.89741	-7.544388E-008	0.0042575	7
	26	37	2527.573	4533.427	-1384.679	1	4740.179	-16.98464	6.092626E-008	0.0039269	7
	27	38	1976.103	4627.915	-1652.553	1	4914.115	-19.65082	1.237895E-007	0.0038419	7
	28	40	1577.524	4745.364	-1968.361	1	5137.404	-22.52851	-1.264315E-008	0.0040607	7
	29	41	1265.625	4822.858	-2308.96	1	5347.08	-25.58293	1.003269E-007	0.0039423	7
	30	42	998.264	4947.485	-2782.787	1	5676.399	-29.35623	-8.675597E-009	0.0040851	7
	31	44	796.875	5073.766	-3339.197	1	6073.988	-33.35011	1.069911E-008	0.0041218	7
	32	45	627.7902	5234.101	-4061.542	1	6625.099	-37.81064	-5.182297E-008	0.0040911	7
	33	47	505.5147	5399.75	-4882.255	1	7279.678	-42.11873	-1.183242E-008	0.0040787	7
	34	48	397.9953	5622.158	-5994.94	1	8218.757	-46.83794	6.830126E-009	0.0040349	7
	35	49	315.5048	5889.862	-7335.969	1	9407.812	-51.23991	6.330955E-009	0.0040325	7
	36	51	252.4038	6214.131	-8919.672	1	10870.88	-55.13596	1.692474E-009	0.0039729	6
	37	52	198.6229	6655.1	-11019.47	1	12873.19	-58.87053	1.029524E-009	0.0039711	6
	38	53	158.3615	7198.294	-13460.78	1	15264.6	-61.86389	3.939267E-010	0.0039725	6
	39	55	125.558	7920.897	-16528.79	1	18328.71	-64.39542	1.411061E-009	0.0039758	6
	40	56	100.4464	8826.759	-20126.24	1	21976.75	-66.31921	2.73134E-010	0.0039778	6
	41	58	79.00281	10168.09	-24766.9	1	26772.93	-67.67932	3.485687E-010	0.0039736	6
	42	59	63.3446	11965.3	-29846.13	1	32155.25	-68.15417	2.591745E-010	0.003975	6
	43	60	49.86702	14126.26	-37022.12	1	39625.61	-69.11502	8.130721E-010	0.0039737	6
	44	62	39.72458	17071.9	-44551.33	1	47710.28	-69.03336	1.235782E-009	0.0039747	6
	45	63	31.6723	20968.01	-53413.86	1	57382.03	-68.56714	1.454728E-009	0.0039705	6
	46	64	24.93351	26425.82	-64646.36	1	69838.92	-67.76648	1.240548E-009	0.0039722	6
	47	65	19.86229	32958.99	-76770.29	1	83546.23	-66.76521	9.737417E-011	0.0039712	6
	48	66	15.83615	41870.09	-90476.41	1	99695	-65.16655	3.001728E-010	0.0039729	6
	49	68	12.40079	52119.02	-107041.5	1	119055.7	-64.03832	8.979505E-012	0.0039813	5
	50	69	9.93114	65045.77	-123526.2	1	139605.4	-62.22984	1.113641E-009	0.0039694	5
	51	71	7.944915	79352.05	-141320.5	1	162074.8	-60.68562	-6.965513E-010	0.0039771	5
	52	73	6.317385	96929.5	-161604.9	1	188444.9	-59.04494	9.250844E-011	0.0039658	5
	53	75	5.008013	116379.3	-183507.5	1	217299.6	-57.61737	-2.433559E-011	0.0039798	5
	54	77	3.945707	138428.2	-208499.6	1	250268.8	-56.4188	-1.71564E-010	0.0039677	5
	55	80	3.158693	160433.8	-234619.6	1	284227.6	-55.63552	3.373392E-010	0.0039828	5
	56	83	2.504006	184665	-265938.9	1	323766.4	-55.22431	-2.885039E-010	0.0039772	5
	57	86	1.998082	209337.6	-301175	1	366781.4	-55.198	4.018727E-011	0.0039335	5
	58	89	1.584686	236076.6	-344083.8	1	417283.9	-55.54591	1.014117E-010	0.0040085	5
	59	93	1.266892	263918.5	-396115.1	1	475983.4	-56.32578	-2.515809E-011	0.0039525	5
	60	97	0.999041	297561.3	-462484	1	549940.2	-57.24285	3.46451E-010	0.0040078	5
