EXPLAIN
TAG	EISPOT
TITLE	LABEL	Potentiostatic EIS	Test &Identifier
DATE	LABEL	11/5/2019	Date
TIME	LABEL	8:28:19	Time
NOTES	NOTES	2	&Notes...
	
	
PSTAT	PSTAT	REF600-11020	Potentiostat
VDC	POTEN	0.00000E+000	T	DC &Voltage (V)
FREQINIT	QUANT	1.00000E+006	Initial Fre&q. (Hz)
FREQFINAL	QUANT	1.00000E+000	Final Fre&q. (Hz)
PTSPERDEC	QUANT	1.00000E+001	Points/&decade
VAC	QUANT	2.50000E+001	AC &Voltage (mV rms)
AREA	QUANT	1.00000E-002	&Area (cm^2)
CONDIT	TWOPARAM	T	5.00000E+000	0.00000E+000	Conditionin&g	Time(s)	E(V)
DELAY	TWOPARAM	T	5.00000E+000	0.00000E+000	Init. De&lay	Time(s)	Stab.(mV/s)
SPEED	SELECTOR	1	&Optimize for:
ZGUESS	QUANT	1.00000E+005	E&stimated Z (ohms)
OCVCURVE	TABLE	19
	Pt	T	Vf	Vm	Ach	Over
	#	s	V vs. Ref.	V	V	bits
	0	0.258333	3.15105E-003	3.15105E-003	5.60332E-004	...........
	1	0.516667	3.14709E-003	2.94382E-003	5.60966E-004	...........
	2	0.775	3.12331E-003	2.77483E-003	5.49799E-004	...........
	3	1.03333	3.06011E-003	2.73564E-003	5.57866E-004	...........
	4	1.29167	2.95918E-003	2.62016E-003	5.57432E-004	...........
	5	1.55	2.84223E-003	2.43290E-003	5.55199E-004	...........
	6	1.80833	2.72176E-003	2.30179E-003	5.51466E-004	...........
	7	2.06667	2.59445E-003	2.17042E-003	5.60232E-004	...........
	8	2.325	2.45913E-003	2.05909E-003	5.60032E-004	...........
	9	2.58333	2.32315E-003	1.96253E-003	5.53399E-004	...........
	10	2.84167	2.19553E-003	1.89466E-003	5.54166E-004	...........
	11	3.1	2.07931E-003	1.66296E-003	5.59599E-004	...........
	12	3.35833	1.96650E-003	1.58483E-003	5.55799E-004	...........
	13	3.61667	1.84877E-003	1.58788E-003	5.51499E-004	...........
	14	3.875	1.73476E-003	1.49262E-003	5.55366E-004	...........
	15	4.13333	1.63936E-003	1.40850E-003	5.57099E-004	...........
	16	4.39167	1.56143E-003	1.32098E-003	5.55899E-004	...........
	17	4.65	1.48802E-003	1.23568E-003	5.54566E-004	...........
	18	4.90833	1.40899E-003	1.06696E-003	5.66766E-004	...........
EOC	QUANT	0.001409	Open Circuit (V)
PSTATMODEL	IQUANT	4	Pstat Model
PSTATSECTION	LABEL	REF600-11020	Pstat Section
PSTATSERIALNO	LABEL	11020	Pstat Serial Number
CTRLMODE	IQUANT	1	Control Mode
IESTAB	IQUANT	0	I/E Stability
CASPEED	IQUANT	1	Control Amp Speed
CONVENTION	IQUANT	1	Current Convention
ICHRANGE	IQUANT	2	Ich Range
ICHRANGEMODE	TOGGLE	F	Ich Auto Range
ICHOFFSETENABLE	TOGGLE	T	Ich Offset Enable
ICHOFFSET	QUANT	0	Ich Offset (V)
ICHFILTER	IQUANT	3	Ich Filter
VCHRANGE	IQUANT	2	Vch Range
VCHRANGEMODE	TOGGLE	F	Vch Auto Range
VCHOFFSETENABLE	TOGGLE	T	Vch Offset Enable
VCHOFFSET	QUANT	0	Vch Offset (V)
VCHFILTER	IQUANT	3	Vch Filter
ACHRANGE	IQUANT	2	Ach Range
ACHOFFSETENABLE	TOGGLE	F	Ach Offset Enable
ACHOFFSET	QUANT	0	Ach Offset (V)
ACHFILTER	IQUANT	3	Ach Filter
IERANGELOWERLIMIT	IQUANT	1	I/E Range Lower Limit
IERANGEMODE	TOGGLE	F	I/E AutoRange
IERANGE	IQUANT	4	I/E Range
POSFEEDENABLE	TOGGLE	F	Positive Feedback IR Comp
POSFEEDRESISTANCE	QUANT	0	Positive Feedback Resistance (ohm)
ACHSELECT	IQUANT	0	Ach Select
CABLEID	IQUANT	14	Cable ID
DCCALDATE	LABEL	8/19/2019	DC Calibration Date
ACCALDATE	LABEL	8/19/2019	AC Calibration Date
THERMOSELECT	IQUANT	1	Thermo Select
FRAMEWORKVERSION	QUANT	6.33	Framework Version
INSTRUMENTVERSION	LABEL	3.50	Instrument Version
ZCURVE	TABLE
	Pt	Time	Freq	Zreal	Zimag	Zsig	Zmod	Zphz	Idc	Vdc	IERange
	#	s	Hz	ohm	ohm	V	ohm	°	A	V	#
	0	1	1000078	2101.872	-1480.281	1	2570.816	-35.1558	9.116355E-006	0.0036061	8
	1	2	794390.6	2388.985	-1437.784	1	2788.274	-31.04116	-7.08055E-006	0.0041014	8
	2	4	630984.4	2659.455	-1362.464	1	2988.145	-27.1265	-2.83686E-006	0.003881	8
	3	5	501234.4	2897.627	-1254.49	1	3157.529	-23.40956	7.061343E-008	0.0028109	8
	4	6	398109.4	3090.479	-1134.243	1	3292.046	-20.15375	7.52953E-007	0.0034811	8
	5	8	316265.6	3259.656	-1017.87	1	3414.882	-17.34165	4.006687E-006	0.0030232	8
	6	9	251203.1	3383.128	-908.4342	1	3502.971	-15.03046	6.123144E-006	0.0022935	8
	7	10	199546.9	3489.875	-802.3701	1	3580.926	-12.94807	-3.83328E-006	0.003595	8
	8	12	158578.1	3576.699	-695.7288	1	3643.737	-11.00755	-4.474235E-006	0.003378	8
	9	13	125953.1	3672.592	-574.3157	1	3717.226	-8.887867	-2.417004E-006	0.0066012	7
	10	14	100078.1	3721.638	-521.403	1	3757.985	-7.975254	6.642855E-008	0.0040047	7
	11	16	79453.13	3767.146	-482.1188	1	3797.872	-7.29306	-6.460544E-007	0.0046476	7
	12	17	63140.62	3815.208	-456.6686	1	3842.441	-6.825655	8.518418E-007	0.0027791	7
	13	18	50203.12	3854.87	-436.6435	1	3879.521	-6.462385	-7.451414E-007	0.0028205	7
	14	20	39890.62	3896.75	-432.0699	1	3920.631	-6.327086	6.288396E-007	0.0032049	7
	15	21	31640.63	3935.762	-433.1917	1	3959.531	-6.281006	5.066354E-007	0.0012696	7
	16	22	25171.88	3970.507	-444.5607	1	3995.317	-6.388556	-1.273237E-006	0.0044946	7
	17	24	20015.62	4015.617	-468.1726	1	4042.817	-6.649975	1.043902E-006	0.0022646	7
	18	25	15890.62	4057.494	-500.6162	1	4088.26	-7.033643	1.046387E-006	0.0022638	7
	19	26	12609.37	4093.723	-541.2598	1	4129.35	-7.531791	-1.08145E-006	0.0035175	7
	20	28	10078.13	4138.988	-600.2653	1	4182.289	-8.251906	4.007429E-007	0.0035332	7
	21	29	8015.625	4181.351	-673.053	1	4235.174	-9.144203	-6.450684E-007	0.0046329	7
	22	30	6328.125	4233.698	-769.7887	1	4303.112	-10.30518	1.262602E-007	0.0015593	7
	23	31	5015.625	4284.562	-891.8735	1	4376.403	-11.75876	1.253694E-007	0.0015668	7
	24	33	3984.375	4343.879	-1039.45	1	4466.514	-13.4573	1.280776E-007	0.0015654	7
	25	34	3170.956	4402.458	-1223.283	1	4569.251	-15.52868	-3.079552E-007	0.0020954	7
	26	36	2527.573	4470.008	-1445.523	1	4697.926	-17.92031	-9.25852E-007	0.004713	7
	27	37	1976.103	4554.982	-1744.302	1	4877.546	-20.95403	-3.025217E-007	0.0043794	7
	28	38	1577.524	4648.643	-2082.227	1	5093.677	-24.12863	-6.422383E-007	0.004632	7
	29	40	1265.625	4751.157	-2491.656	1	5364.871	-27.67393	8.059559E-007	0.0011524	7
	30	41	998.264	4877.294	-3021.908	1	5737.589	-31.78181	1.270877E-007	0.0015628	7
	31	42	796.875	5009.839	-3642.636	1	6194.133	-36.02076	1.013133E-006	0.0012423	7
	32	44	627.7902	5184.262	-4440.833	1	6826.242	-40.58332	-7.410549E-007	0.0028046	7
	33	45	505.5147	5354.239	-5356.771	1	7573.828	-45.01354	5.01002E-007	0.0012598	7
	34	46	397.9953	5583.2	-6577.401	1	8627.533	-49.67388	4.903812E-009	0.0030028	7
	35	48	315.5048	5852.876	-8060.197	1	9961.07	-54.01489	5.935104E-009	0.0030024	7
	36	49	252.4038	6175.915	-9813.62	1	11595.22	-57.81694	6.282866E-010	0.0029476	6
	37	50	198.6229	6606.532	-12144.73	1	13825.37	-61.45455	8.395029E-010	0.0029512	6
	38	52	158.3615	7126.913	-14865.08	1	16485.25	-64.38507	1.12594E-009	0.0029485	6
	39	53	125.558	7818.695	-18295.16	1	19895.85	-66.85988	2.209737E-010	0.0029507	6
	40	54	100.4464	8701.536	-22316.99	1	23953.38	-68.69887	-4.053045E-011	0.0029513	6
	41	56	79.00281	9949	-27681.04	1	29414.66	-70.23077	1.870809E-010	0.0029497	6
	42	57	63.3446	11044.61	-33594.76	1	35363.7	-71.80121	1.219607E-009	0.0029375	6
	43	58	49.86702	13589.55	-41195.14	1	43378.74	-71.74319	1.138895E-009	0.0029361	6
	44	60	39.72458	16245.68	-50467.55	1	53017.88	-72.15646	7.65996E-010	0.0029434	6
	45	61	31.6723	19845.51	-61104.82	1	64246.74	-72.00734	6.834221E-010	0.0029489	6
	46	63	24.93351	24543.49	-74869.36	1	78789.62	-71.84995	3.400368E-010	0.002941	6
	47	64	19.86229	30661.98	-90270.09	1	95335.4	-71.23895	5.013696E-010	0.0029399	6
	48	65	15.83615	38482.57	-109153.2	1	115738.2	-70.57962	1.453357E-009	0.0029537	5
	49	67	12.40079	49279.89	-132014.7	1	140912.7	-69.52985	7.972343E-010	0.0029655	5
	50	68	9.93114	62826.17	-155642.3	1	167844.1	-68.01817	1.103847E-010	0.0029394	5
	51	70	7.944915	79988.22	-182180.4	1	198966.9	-66.29562	-3.268813E-010	0.0029483	5
	52	71	6.317385	101713.7	-214077	1	237011.9	-64.58636	2.251365E-010	0.0029435	5
	53	73	5.008013	128603.2	-249086.1	1	280326	-62.69268	-5.629344E-011	0.0029367	5
	54	76	3.945707	161576	-287377.9	1	329686	-60.65348	5.44365E-010	0.0029467	5
	55	79	3.158693	197961.8	-326473.7	1	381803.6	-58.76889	3.513268E-010	0.002958	5
	56	82	2.504006	240582.2	-369974	1	441316.8	-56.96534	1.037488E-010	0.0029375	5
	57	85	1.998082	286442.9	-415466.1	1	504640	-55.4157	-5.031499E-011	0.0029219	5
	58	88	1.584686	337790.4	-464175.5	1	574074.2	-53.95582	1.090661E-010	0.0029847	5
	59	91	1.266892	392371.5	-519643.4	1	651141.1	-52.94434	1.722421E-010	0.0029131	5
	60	96	0.999041	453561.1	-582968	1	738626.7	-52.11635	3.779914E-010	0.0029886	5
