EXPLAIN
TAG	EISPOT
TITLE	LABEL	Potentiostatic EIS	Test &Identifier
DATE	LABEL	11/15/2019	Date
TIME	LABEL	11:56:25	Time
NOTES	NOTES	4	&Notes...
	
	
	
	
PSTAT	PSTAT	REF600-11020	Potentiostat
VDC	POTEN	0.00000E+000	T	DC &Voltage (V)
FREQINIT	QUANT	1.00000E+006	Initial Fre&q. (Hz)
FREQFINAL	QUANT	1.00000E+000	Final Fre&q. (Hz)
PTSPERDEC	QUANT	1.00000E+001	Points/&decade
VAC	QUANT	2.50000E+001	AC &Voltage (mV rms)
AREA	QUANT	1.00000E-002	&Area (cm^2)
CONDIT	TWOPARAM	T	5.00000E+000	0.00000E+000	Conditionin&g	Time(s)	E(V)
DELAY	TWOPARAM	T	5.00000E+000	0.00000E+000	Init. De&lay	Time(s)	Stab.(mV/s)
SPEED	SELECTOR	0	&Optimize for:
ZGUESS	QUANT	1.00000E+005	E&stimated Z (ohms)
OCVCURVE	TABLE	19
	Pt	T	Vf	Vm	Ach	Over
	#	s	V vs. Ref.	V	V	bits
	0	0.258333	5.68834E-003	5.68834E-003	5.46266E-004	...........
	1	0.516667	5.68660E-003	5.59719E-003	5.48099E-004	...........
	2	0.775	5.67613E-003	5.52244E-003	5.52499E-004	...........
	3	1.03333	5.64771E-003	5.47480E-003	5.53399E-004	...........
	4	1.29167	5.60074E-003	5.45172E-003	5.53166E-004	...........
	5	1.55	5.54656E-003	5.43910E-003	5.54166E-004	...........
	6	1.80833	5.49908E-003	5.43465E-003	5.56633E-004	...........
	7	2.06667	5.46498E-003	5.39751E-003	5.55499E-004	...........
	8	2.325	5.44207E-003	5.40011E-003	5.51533E-004	...........
	9	2.58333	5.42539E-003	5.41163E-003	5.53399E-004	...........
	10	2.84167	5.41388E-003	5.42042E-003	5.54233E-004	...........
	11	3.1	5.41012E-003	5.46640E-003	5.56999E-004	...........
	12	3.35833	5.41646E-003	5.48301E-003	5.56133E-004	...........
	13	3.61667	5.43069E-003	5.40189E-003	5.57166E-004	...........
	14	3.875	5.44152E-003	5.35119E-003	5.55499E-004	...........
	15	4.13333	5.43496E-003	5.33232E-003	5.55333E-004	...........
	16	4.39167	5.39583E-003	4.62732E-003	5.54733E-004	...........
	17	4.65	5.29255E-003	4.57168E-003	5.55333E-004	...........
	18	4.90833	5.10075E-003	4.29301E-003	5.55833E-004	...........
EOC	QUANT	0.0051008	Open Circuit (V)
PSTATMODEL	IQUANT	4	Pstat Model
PSTATSECTION	LABEL	REF600-11020	Pstat Section
PSTATSERIALNO	LABEL	11020	Pstat Serial Number
CTRLMODE	IQUANT	1	Control Mode
IESTAB	IQUANT	0	I/E Stability
CASPEED	IQUANT	1	Control Amp Speed
CONVENTION	IQUANT	1	Current Convention
ICHRANGE	IQUANT	2	Ich Range
ICHRANGEMODE	TOGGLE	F	Ich Auto Range
ICHOFFSETENABLE	TOGGLE	T	Ich Offset Enable
ICHOFFSET	QUANT	0	Ich Offset (V)
ICHFILTER	IQUANT	3	Ich Filter
VCHRANGE	IQUANT	2	Vch Range
VCHRANGEMODE	TOGGLE	F	Vch Auto Range
VCHOFFSETENABLE	TOGGLE	T	Vch Offset Enable
VCHOFFSET	QUANT	0	Vch Offset (V)
VCHFILTER	IQUANT	3	Vch Filter
ACHRANGE	IQUANT	2	Ach Range
ACHOFFSETENABLE	TOGGLE	F	Ach Offset Enable
ACHOFFSET	QUANT	0	Ach Offset (V)
ACHFILTER	IQUANT	3	Ach Filter
IERANGELOWERLIMIT	IQUANT	1	I/E Range Lower Limit
IERANGEMODE	TOGGLE	F	I/E AutoRange
IERANGE	IQUANT	4	I/E Range
POSFEEDENABLE	TOGGLE	F	Positive Feedback IR Comp
POSFEEDRESISTANCE	QUANT	0	Positive Feedback Resistance (ohm)
ACHSELECT	IQUANT	0	Ach Select
CABLEID	IQUANT	14	Cable ID
DCCALDATE	LABEL	8/19/2019	DC Calibration Date
ACCALDATE	LABEL	8/19/2019	AC Calibration Date
THERMOSELECT	IQUANT	1	Thermo Select
FRAMEWORKVERSION	QUANT	6.33	Framework Version
INSTRUMENTVERSION	LABEL	3.50	Instrument Version
ZCURVE	TABLE
	Pt	Time	Freq	Zreal	Zimag	Zsig	Zmod	Zphz	Idc	Vdc	IERange
	#	s	Hz	ohm	ohm	V	ohm	°	A	V	#
	0	1	1000078	2243.588	-1591.919	1	2750.981	-35.35728	1.614638E-005	0.0059092	8
	1	1	794390.6	2531.011	-1543.667	1	2964.612	-31.37907	-6.949005E-006	0.0074206	8
	2	1	630984.4	2818.622	-1457.082	1	3172.966	-27.33662	6.305408E-006	0.0066588	8
	3	2	501234.4	3073.308	-1351.549	1	3357.366	-23.73846	5.909346E-006	0.0053922	8
	4	2	398109.4	3277.858	-1222.053	1	3498.252	-20.4465	-7.515342E-007	0.0062678	8
	5	2	316265.6	3442.2	-1096.089	1	3612.499	-17.66287	-9.189076E-007	0.007026	8
	6	3	251203.1	3586.98	-977.444	1	3717.771	-15.24289	-2.638359E-006	0.0064931	8
	7	3	199546.9	3698.507	-866.6992	1	3798.7	-13.18858	7.138506E-007	0.0069659	8
	8	3	158578.1	3779.349	-738.5181	1	3850.83	-11.05677	6.024737E-006	0.0054785	8
	9	4	125953.1	3889.436	-657.7454	1	3944.66	-9.59852	-4.865272E-007	0.0044232	7
	10	4	100078.1	3948.808	-604.3116	1	3994.781	-8.700839	-3.165549E-007	0.0079583	7
	11	4	79453.13	4001.942	-564.1384	1	4041.509	-8.023896	-1.286887E-006	0.0080482	7
	12	5	63140.62	4059.547	-541.1025	1	4095.45	-7.59228	-7.520549E-007	0.0063414	7
	13	5	50203.12	4115.327	-529.0193	1	4149.19	-7.325117	1.348098E-007	0.0050819	7
	14	5	39890.62	4171.157	-529.3748	1	4204.615	-7.232922	1.151866E-006	0.0053518	7
	15	6	31640.63	4224.774	-538.2125	1	4258.919	-7.260053	1.15205E-006	0.005349	7
	16	6	25171.88	4277.435	-553.9494	1	4313.155	-7.379024	8.261321E-007	0.0046622	7
	17	6	20015.62	4332.502	-582.5703	1	4371.495	-7.658346	6.269081E-007	0.0067521	7
	18	7	15890.62	4390.178	-620.858	1	4433.861	-8.049378	5.852907E-008	0.0075389	7
	19	7	12609.37	4449.251	-667.2096	1	4499	-8.528523	-1.274931E-006	0.0076377	7
	20	7	10078.13	4520.375	-723.3028	1	4577.877	-9.090805	1.138437E-006	0.0050004	7
	21	7	8015.625	4586.369	-805.256	1	4656.524	-9.95826	-3.181035E-007	0.0079414	7
	22	8	6328.125	4669.815	-901.3712	1	4756.011	-10.92492	1.053358E-006	0.0057951	7
	23	8	5015.625	4747.518	-1014.76	1	4854.757	-12.06515	1.051369E-006	0.0057945	7
	24	8	3984.375	4818.025	-1153.682	1	4954.225	-13.46601	-9.459688E-007	0.0082747	7
	25	9	3170.956	4905.202	-1325.665	1	5081.181	-15.1233	-3.055956E-007	0.0056056	7
	26	9	2527.573	4996.651	-1533.972	1	5226.815	-17.06649	5.226673E-007	0.0047682	7
	27	9	1976.103	5100.867	-1815.569	1	5414.345	-19.59234	8.259711E-007	0.0046625	7
	28	10	1577.524	5196.361	-2129.584	1	5615.808	-22.2849	1.366663E-007	0.0050653	7
	29	10	1265.625	5303.901	-2523.182	1	5873.484	-25.44146	8.561768E-007	0.0063117	7
	30	10	998.264	5429.618	-3035.825	1	6220.69	-29.21057	3.959316E-007	0.00708	7
	31	11	796.875	5571.21	-3637.373	1	6653.485	-33.14002	8.577676E-007	0.0063085	7
	32	11	627.7902	5737.701	-4437	1	7253.15	-37.715	6.275257E-007	0.0067487	7
	33	12	505.5147	5921.792	-5308.304	1	7952.717	-41.8731	-6.580393E-007	0.0081872	7
	34	12	397.9953	6163.048	-6530.957	1	8979.786	-46.66013	3.59722E-009	0.0065326	7
	35	12	315.5048	6458.065	-7991.655	1	10274.88	-51.05828	5.140461E-010	0.0064685	6
	36	12	252.4038	6806.995	-9716.75	1	11863.83	-54.98714	-9.353838E-010	0.006475	6
	37	13	198.6229	7279.94	-11999.37	1	14035.04	-58.75507	2.64808E-010	0.0064783	6
	38	13	158.3615	7862.596	-14651.28	1	16627.7	-61.77981	3.412376E-010	0.0064737	6
	39	13	125.558	8633.711	-17973.05	1	19939.19	-64.34177	-5.624554E-010	0.0064805	6
	40	14	100.4464	9580.73	-21837.2	1	23846.46	-66.31129	1.050235E-009	0.0064784	6
	41	14	79.00281	10956.25	-26869.85	1	29017.72	-67.8167	6.381789E-010	0.0064628	6
	42	14	63.3446	12566.42	-32925.62	1	35242.19	-69.1101	-1.283765E-010	0.0064606	6
	43	15	49.86702	14832.07	-40222.65	1	42870.18	-69.75859	-5.195167E-010	0.0064609	6
	44	15	39.72458	17700.12	-48386.36	1	51522.18	-69.90707	4.528713E-010	0.006472	6
	45	16	31.6723	21368.1	-58266.69	1	62061.28	-69.86053	3.331571E-010	0.006475	6
	46	16	24.93351	26139.78	-70930.2	1	75593.53	-69.76973	-6.117394E-010	0.0064704	6
	47	16	19.86229	32061.07	-85293.03	1	91119.77	-69.3991	-1.647263E-009	0.0064679	6
	48	16	15.83615	39863.11	-101178.4	1	108748.1	-68.49614	9.141193E-010	0.0064766	5
	49	17	12.40079	50160.74	-123470.3	1	133270.4	-67.89017	-1.551947E-010	0.00648	5
	50	17	9.93114	62831.27	-143830.5	1	156955.3	-66.40224	8.354775E-010	0.0064749	5
	51	18	7.944915	78132.03	-168023.8	1	185301.4	-65.0613	9.236764E-010	0.006475	5
	52	18	6.317385	97439	-196520.5	1	219350.6	-63.62681	3.870064E-010	0.006463	5
	53	19	5.008013	120649.3	-227970.8	1	257928.2	-62.11079	3.507327E-010	0.0064752	5
	54	20	3.945707	148942	-264180.9	1	303274.2	-60.58622	-3.225483E-010	0.0064753	5
	55	22	3.158693	177828.9	-299975.2	1	348723.8	-59.34003	-7.139993E-011	0.006462	5
	56	23	2.504006	211848.7	-342620.1	1	402825.5	-58.27069	1.927399E-010	0.0064651	5
	57	24	1.998082	247424.6	-388242.1	1	460381.3	-57.49086	-6.931168E-011	0.0064403	5
	58	26	1.584686	288176.6	-444005.2	1	529326.3	-57.01487	-1.378626E-010	0.0064141	5
	59	28	1.266892	329464	-506276.2	1	604038.1	-56.94555	-1.098158E-010	0.0064382	5
	60	30	0.999041	378376.6	-583009.6	1	695031.8	-57.0162	-8.752581E-011	0.0064648	5
