EXPLAIN
TAG	EISPOT
TITLE	LABEL	Potentiostatic EIS	Test &Identifier
DATE	LABEL	10/18/2019	Date
TIME	LABEL	9:20:03	Time
NOTES	NOTES	1	&Notes...
	
PSTAT	PSTAT	REF600-11020	Potentiostat
VDC	POTEN	0.00000E+000	T	DC &Voltage (V)
FREQINIT	QUANT	1.00000E+006	Initial Fre&q. (Hz)
FREQFINAL	QUANT	1.00000E+000	Final Fre&q. (Hz)
PTSPERDEC	QUANT	1.00000E+001	Points/&decade
VAC	QUANT	2.50000E+001	AC &Voltage (mV rms)
AREA	QUANT	1.00000E-002	&Area (cm^2)
CONDIT	TWOPARAM	T	5.00000E+000	0.00000E+000	Conditionin&g	Time(s)	E(V)
DELAY	TWOPARAM	T	5.00000E+000	0.00000E+000	Init. De&lay	Time(s)	Stab.(mV/s)
SPEED	SELECTOR	0	&Optimize for:
ZGUESS	QUANT	1.00000E+005	E&stimated Z (ohms)
OCVCURVE	TABLE	19
	Pt	T	Vf	Vm	Ach	Over
	#	s	V vs. Ref.	V	V	bits
	0	0.258333	3.03484E-003	3.03485E-003	5.40933E-004	...........
	1	0.516667	3.03512E-003	3.04926E-003	5.32166E-004	...........
	2	0.775	3.02785E-003	2.59365E-003	5.41433E-004	...........
	3	1.03333	2.96609E-003	1.56046E-003	5.39966E-004	...........
	4	1.29167	2.75592E-003	9.71674E-004	5.38399E-004	...........
	5	1.55	2.34929E-003	1.12424E-003	5.35166E-004	...........
	6	1.80833	1.84482E-003	9.86337E-004	5.36833E-004	...........
	7	2.06667	1.41305E-003	8.69175E-004	5.41566E-004	...........
	8	2.325	1.14611E-003	1.39841E-003	5.33433E-004	...........
	9	2.58333	1.04275E-003	1.08185E-003	5.35066E-004	...........
	10	2.84167	1.04934E-003	8.71968E-004	5.41433E-004	...........
	11	3.1	1.07495E-003	9.84748E-004	5.38766E-004	...........
	12	3.35833	1.06192E-003	1.12673E-003	5.27866E-004	...........
	13	3.61667	1.03704E-003	1.24422E-003	5.34600E-004	...........
	14	3.875	1.04438E-003	9.41808E-004	5.36499E-004	...........
	15	4.13333	1.07416E-003	1.16537E-003	5.38166E-004	...........
	16	4.39167	1.09664E-003	1.25928E-003	5.34699E-004	...........
	17	4.65	1.12494E-003	1.63486E-003	5.35166E-004	...........
	18	4.90833	1.19917E-003	1.59628E-003	5.35699E-004	...........
EOC	QUANT	0.0011992	Open Circuit (V)
PSTATMODEL	IQUANT	4	Pstat Model
PSTATSECTION	LABEL	REF600-11020	Pstat Section
PSTATSERIALNO	LABEL	11020	Pstat Serial Number
CTRLMODE	IQUANT	1	Control Mode
IESTAB	IQUANT	0	I/E Stability
CASPEED	IQUANT	1	Control Amp Speed
CONVENTION	IQUANT	1	Current Convention
ICHRANGE	IQUANT	2	Ich Range
ICHRANGEMODE	TOGGLE	F	Ich Auto Range
ICHOFFSETENABLE	TOGGLE	T	Ich Offset Enable
ICHOFFSET	QUANT	0	Ich Offset (V)
ICHFILTER	IQUANT	3	Ich Filter
VCHRANGE	IQUANT	2	Vch Range
VCHRANGEMODE	TOGGLE	F	Vch Auto Range
VCHOFFSETENABLE	TOGGLE	T	Vch Offset Enable
VCHOFFSET	QUANT	0	Vch Offset (V)
VCHFILTER	IQUANT	3	Vch Filter
ACHRANGE	IQUANT	2	Ach Range
ACHOFFSETENABLE	TOGGLE	F	Ach Offset Enable
ACHOFFSET	QUANT	0	Ach Offset (V)
ACHFILTER	IQUANT	3	Ach Filter
IERANGELOWERLIMIT	IQUANT	1	I/E Range Lower Limit
IERANGEMODE	TOGGLE	F	I/E AutoRange
IERANGE	IQUANT	4	I/E Range
POSFEEDENABLE	TOGGLE	F	Positive Feedback IR Comp
POSFEEDRESISTANCE	QUANT	0	Positive Feedback Resistance (ohm)
ACHSELECT	IQUANT	0	Ach Select
CABLEID	IQUANT	14	Cable ID
DCCALDATE	LABEL	8/19/2019	DC Calibration Date
ACCALDATE	LABEL	8/19/2019	AC Calibration Date
THERMOSELECT	IQUANT	1	Thermo Select
FRAMEWORKVERSION	QUANT	6.33	Framework Version
INSTRUMENTVERSION	LABEL	3.50	Instrument Version
ZCURVE	TABLE
	Pt	Time	Freq	Zreal	Zimag	Zsig	Zmod	Zphz	Idc	Vdc	IERange
	#	s	Hz	ohm	ohm	V	ohm	°	A	V	#
	0	1	1000078	2117.064	-920.2469	1	2308.422	-23.49366	2.04905E-006	0.0031757	8
	1	1	794390.6	2270.309	-816.1852	1	2412.563	-19.77372	-2.389951E-006	0.0035759	8
	2	1	630984.4	2390.935	-724.5538	1	2498.309	-16.85901	3.963042E-006	0.0023879	8
	3	2	501234.4	2472.282	-628.4424	1	2550.906	-14.26225	-3.819388E-006	0.0036571	8
	4	2	398109.4	2546.523	-533.5031	1	2601.808	-11.83248	-4.181458E-006	0.0039691	8
	5	2	316265.6	2604.811	-468.9465	1	2646.686	-10.20569	1.374015E-006	0.0026253	8
	6	3	251203.1	2644.755	-403.2953	1	2675.327	-8.670172	-2.939717E-006	0.0034892	8
	7	3	199546.9	2669.898	-364.5552	1	2694.672	-7.77524	-3.03435E-006	0.0034987	8
	8	3	158578.1	2697.001	-325.0266	1	2716.516	-6.871807	1.553472E-006	0.0024044	8
	9	4	125953.1	2745.567	-267.9703	1	2758.613	-5.574474	1.153868E-006	0.0002609	7
	10	4	100078.1	2762.558	-248.5343	1	2773.715	-5.140791	1.109601E-008	0.0027689	7
	11	4	79453.13	2783.523	-250.0917	1	2794.736	-5.134078	-2.16476E-008	0.0029734	7
	12	5	63140.62	2806.635	-256.611	1	2818.341	-5.224036	1.225909E-007	0.0026358	7
	13	5	50203.12	2831.853	-266.5153	1	2844.366	-5.376465	-1.074756E-008	0.0028673	7
	14	5	39890.62	2859.653	-282.2383	1	2873.548	-5.636648	-4.074384E-008	0.0028502	7
	15	6	31640.63	2887.768	-302.7338	1	2903.593	-5.984638	-5.158437E-008	0.0029727	7
	16	6	25171.88	2919.936	-328.7463	1	2938.384	-6.4237	7.658311E-008	0.0027779	7
	17	6	20015.62	2957.691	-357.0853	1	2979.169	-6.884065	-1.23712E-008	0.0028731	7
	18	7	15890.62	2993.607	-398.6907	1	3020.039	-7.586052	-1.235873E-008	0.0027936	7
	19	7	12609.37	3034.912	-444.5474	1	3067.297	-8.333301	2.678725E-008	0.0027978	7
	20	7	10078.13	3082.023	-496.4727	1	3121.755	-9.15097	6.064968E-008	0.0027228	7
	21	7	8015.625	3128.265	-564.3742	1	3178.767	-10.22679	7.376866E-008	0.0026633	7
	22	8	6328.125	3186.857	-631.0757	1	3248.74	-11.20106	3.114569E-008	0.0027952	7
	23	8	5015.625	3244.167	-717.7124	1	3322.609	-12.47471	7.667527E-008	0.0026573	7
	24	8	3984.375	3303.831	-818.3309	1	3403.67	-13.91169	-1.010061E-008	0.0028659	7
	25	9	3170.956	3367.256	-944.343	1	3497.169	-15.66609	-3.689023E-008	0.0028576	7
	26	9	2527.573	3431.365	-1093.617	1	3601.425	-17.67771	-3.404763E-008	0.0028424	7
	27	9	1976.103	3505.478	-1293.223	1	3736.415	-20.24977	3.795125E-008	0.002695	7
	28	10	1577.524	3551.601	-1503.017	1	3856.544	-22.9378	-3.615415E-008	0.002862	7
	29	10	1265.625	3654.662	-1796.858	1	4072.5	-26.18159	3.612288E-008	0.0026943	7
	30	10	998.264	3748.1	-2163.841	1	4327.87	-29.99856	-3.750067E-008	0.0028356	7
	31	11	796.875	3845.421	-2598.521	1	4641.075	-34.04863	-3.537124E-008	0.0028344	7
	32	11	627.7902	3963.762	-3168.493	1	5074.521	-38.63762	7.867485E-008	0.0027727	7
	33	11	505.5147	4096.537	-3807.467	1	5592.711	-42.90548	-1.959411E-008	0.0029522	7
	34	12	397.9953	4276.248	-4678.601	1	6338.423	-47.57265	3.43397E-009	0.0028353	7
	35	12	315.5048	4490.958	-5725.626	1	7276.778	-51.89074	1.944271E-009	0.0028341	7
	36	12	252.4038	4753.693	-6961.275	1	8429.528	-55.67174	3.428521E-009	0.0028312	7
	37	13	198.6229	5111.244	-8589.595	1	9995.3	-59.24521	3.322451E-009	0.0028368	7
	38	13	158.3615	5554.302	-10475.59	1	11856.99	-62.06685	1.605862E-009	0.0027707	6
	39	13	125.558	6133.846	-12834.5	1	14224.92	-64.45599	1.006162E-009	0.002773	6
	40	14	100.4464	6842.89	-15567.67	1	17005.22	-66.27174	-1.125471E-009	0.0027743	6
	41	14	79.00281	7864.196	-19103.02	1	20658.44	-67.62436	-1.134934E-011	0.0027742	6
	42	14	63.3446	9136.266	-23381.38	1	25102.99	-68.65694	8.48013E-010	0.0027696	6
	43	15	49.86702	10765.05	-28492.05	1	30457.9	-69.30212	1.582311E-009	0.002765	6
	44	15	39.72458	12810.88	-34191.4	1	36512.61	-69.45996	6.25549E-010	0.0027678	6
	45	15	31.6723	15504.46	-41042.79	1	43873.67	-69.30527	5.405498E-010	0.002769	6
	46	16	24.93351	18893.21	-49762.27	1	53228.16	-69.20977	-1.59007E-010	0.0027646	6
	47	16	19.86229	23056.76	-59579.53	1	63885.32	-68.84399	-1.516522E-009	0.0027657	6
	48	16	15.83615	29114.51	-70888.99	1	76634.88	-67.67177	3.325833E-009	0.0027719	6
	49	16	12.40079	35745.99	-85125.78	1	92326.45	-67.2215	3.345786E-010	0.0027688	6
	50	17	9.93114	43167.86	-100234.4	1	109134.8	-66.69995	1.162973E-010	0.0027784	5
	51	17	7.944915	52374.79	-117400.8	1	128553.8	-65.95742	1.404946E-009	0.0027661	5
	52	18	6.317385	64427.2	-137558.4	1	151898.6	-64.90337	7.506823E-010	0.0027581	5
	53	19	5.008013	78760.63	-161255.3	1	179461.7	-63.96809	2.621051E-010	0.0027635	5
	54	20	3.945707	95932.8	-188983.3	1	211938.2	-63.08646	2.524091E-010	0.0027699	5
	55	21	3.158693	114625.9	-218975	1	247162.2	-62.36947	-1.237743E-010	0.0027691	5
	56	23	2.504006	137119.7	-254365.9	1	288970.3	-61.67247	1.33054E-010	0.0027605	5
	57	24	1.998082	161975.3	-293827.3	1	335515.3	-61.1338	3.465386E-010	0.0028029	5
	58	26	1.584686	191113.9	-340449	1	390422.9	-60.69196	1.137644E-010	0.0027636	5
	59	28	1.266892	223621.3	-392771.3	1	451968.7	-60.34531	5.428932E-011	0.0027312	5
	60	30	0.999041	262926.2	-459234.3	1	529175.1	-60.2075	4.326488E-011	0.0027276	5
