EXPLAIN
TAG	EISPOT
TITLE	LABEL	Potentiostatic EIS	Test &Identifier
DATE	LABEL	11/3/2019	Date
TIME	LABEL	9:45:25	Time
NOTES	NOTES	1	&Notes...
	
PSTAT	PSTAT	REF600-11020	Potentiostat
VDC	POTEN	0.00000E+000	T	DC &Voltage (V)
FREQINIT	QUANT	1.00000E+006	Initial Fre&q. (Hz)
FREQFINAL	QUANT	1.00000E+000	Final Fre&q. (Hz)
PTSPERDEC	QUANT	1.00000E+001	Points/&decade
VAC	QUANT	2.50000E+001	AC &Voltage (mV rms)
AREA	QUANT	1.00000E-002	&Area (cm^2)
CONDIT	TWOPARAM	T	5.00000E+000	0.00000E+000	Conditionin&g	Time(s)	E(V)
DELAY	TWOPARAM	T	5.00000E+000	0.00000E+000	Init. De&lay	Time(s)	Stab.(mV/s)
SPEED	SELECTOR	1	&Optimize for:
ZGUESS	QUANT	1.00000E+005	E&stimated Z (ohms)
OCVCURVE	TABLE	19
	Pt	T	Vf	Vm	Ach	Over
	#	s	V vs. Ref.	V	V	bits
	0	0.258333	-5.59009E-004	-5.59009E-004	5.52532E-004	...........
	1	0.516667	-5.65583E-004	-9.03140E-004	5.55833E-004	...........
	2	0.775	-6.04345E-004	-1.14517E-003	5.61699E-004	...........
	3	1.03333	-7.12012E-004	-1.55325E-003	5.59799E-004	...........
	4	1.29167	-9.11013E-004	-2.05293E-003	5.57399E-004	...........
	5	1.55	-1.19999E-003	-2.32884E-003	5.57466E-004	...........
	6	1.80833	-1.54493E-003	-2.22218E-003	5.55733E-004	...........
	7	2.06667	-1.86494E-003	-1.96831E-003	5.57933E-004	...........
	8	2.325	-2.07454E-003	-2.36220E-003	5.49233E-004	...........
	9	2.58333	-2.18549E-003	-3.26210E-003	5.55233E-004	...........
	10	2.84167	-2.33097E-003	-3.70724E-003	5.58099E-004	...........
	11	3.1	-2.62745E-003	-3.86115E-003	5.57999E-004	...........
	12	3.35833	-3.04728E-003	-4.23886E-003	5.57966E-004	...........
	13	3.61667	-3.47623E-003	-4.29124E-003	5.61899E-004	...........
	14	3.875	-3.83618E-003	-4.59707E-003	5.54566E-004	...........
	15	4.13333	-4.11995E-003	-4.89784E-003	5.52699E-004	...........
	16	4.39167	-4.36225E-003	-5.05555E-003	5.56866E-004	...........
	17	4.65	-4.59474E-003	-5.24964E-003	5.62199E-004	...........
	18	4.90833	-4.82197E-003	-5.46893E-003	5.59766E-004	...........
EOC	QUANT	-0.004822	Open Circuit (V)
PSTATMODEL	IQUANT	4	Pstat Model
PSTATSECTION	LABEL	REF600-11020	Pstat Section
PSTATSERIALNO	LABEL	11020	Pstat Serial Number
CTRLMODE	IQUANT	1	Control Mode
IESTAB	IQUANT	0	I/E Stability
CASPEED	IQUANT	1	Control Amp Speed
CONVENTION	IQUANT	1	Current Convention
ICHRANGE	IQUANT	2	Ich Range
ICHRANGEMODE	TOGGLE	F	Ich Auto Range
ICHOFFSETENABLE	TOGGLE	T	Ich Offset Enable
ICHOFFSET	QUANT	0	Ich Offset (V)
ICHFILTER	IQUANT	3	Ich Filter
VCHRANGE	IQUANT	2	Vch Range
VCHRANGEMODE	TOGGLE	F	Vch Auto Range
VCHOFFSETENABLE	TOGGLE	T	Vch Offset Enable
VCHOFFSET	QUANT	0	Vch Offset (V)
VCHFILTER	IQUANT	3	Vch Filter
ACHRANGE	IQUANT	2	Ach Range
ACHOFFSETENABLE	TOGGLE	F	Ach Offset Enable
ACHOFFSET	QUANT	0	Ach Offset (V)
ACHFILTER	IQUANT	3	Ach Filter
IERANGELOWERLIMIT	IQUANT	1	I/E Range Lower Limit
IERANGEMODE	TOGGLE	F	I/E AutoRange
IERANGE	IQUANT	4	I/E Range
POSFEEDENABLE	TOGGLE	F	Positive Feedback IR Comp
POSFEEDRESISTANCE	QUANT	0	Positive Feedback Resistance (ohm)
ACHSELECT	IQUANT	0	Ach Select
CABLEID	IQUANT	14	Cable ID
DCCALDATE	LABEL	8/19/2019	DC Calibration Date
ACCALDATE	LABEL	8/19/2019	AC Calibration Date
THERMOSELECT	IQUANT	1	Thermo Select
FRAMEWORKVERSION	QUANT	6.33	Framework Version
INSTRUMENTVERSION	LABEL	3.50	Instrument Version
ZCURVE	TABLE
	Pt	Time	Freq	Zreal	Zimag	Zsig	Zmod	Zphz	Idc	Vdc	IERange
	#	s	Hz	ohm	ohm	V	ohm	°	A	V	#
	0	1	1000078	1556.233	-523.3275	1	1641.869	-18.58667	1.332968E-006	-0.0021406	8
	1	3	794390.6	1629.436	-452.3497	1	1691.06	-15.51525	7.182891E-006	-0.0043037	8
	2	4	630984.4	1685.591	-393.7896	1	1730.978	-13.14966	6.483667E-006	-0.0039191	8
	3	5	501234.4	1728.519	-335.7769	1	1760.831	-10.99319	5.536781E-006	-0.0043273	8
	4	7	398109.4	1759.197	-292.9249	1	1783.418	-9.453621	-3.143846E-006	-0.0032456	8
	5	8	316265.6	1783.336	-256.7062	1	1801.717	-8.1913	-2.393903E-006	-0.0032687	8
	6	10	251203.1	1806.148	-226.3382	1	1820.275	-7.142809	-5.884915E-006	-0.0023392	8
	7	11	199546.9	1824.752	-207.4361	1	1836.505	-6.48549	2.202851E-006	-0.0036929	8
	8	12	158578.1	1842.753	-190.8011	1	1852.604	-5.911418	-1.631856E-006	-0.0034145	8
	9	14	125953.1	1867.074	-150.654	1	1873.142	-4.613197	3.317346E-006	-0.0088385	7
	10	15	100078.1	1879.377	-144.5417	1	1884.927	-4.397923	-8.767395E-007	-0.0019296	7
	11	16	79453.13	1892.936	-148.5483	1	1898.756	-4.487094	-8.545036E-007	-0.0028093	7
	12	18	63140.62	1907.583	-155.9813	1	1913.95	-4.674621	-9.983701E-007	-0.0020457	7
	13	19	50203.12	1924.035	-166.5789	1	1931.233	-4.948209	8.838333E-007	-0.0041984	7
	14	20	39890.62	1941.494	-178.7834	1	1949.709	-5.26127	8.840162E-007	-0.0041996	7
	15	22	31640.63	1959.267	-193.3829	1	1968.787	-5.636932	-2.137193E-007	-0.0021835	7
	16	23	25171.88	1977.971	-212.5555	1	1989.359	-6.133545	8.249566E-007	-0.0038779	7
	17	25	20015.62	1999.141	-238.9182	1	2013.367	-6.81512	-4.839843E-007	-0.0019879	7
	18	26	15890.62	2017.336	-265.675	1	2034.755	-7.50245	-2.136834E-007	-0.0021902	7
	19	27	12609.37	2037.884	-303.2783	1	2060.328	-8.464642	3.753219E-007	-0.0045829	7
	20	29	10078.13	2059.361	-347.2495	1	2088.433	-9.57118	-2.55986E-007	-0.0039405	7
	21	30	8015.625	2081.198	-405.3333	1	2120.302	-11.02094	3.498325E-007	-0.0028956	7
	22	31	6328.125	2110.076	-476.6436	1	2163.24	-12.72887	6.882474E-007	-0.0034872	7
	23	33	5015.625	2138.879	-564.653	1	2212.157	-14.7884	6.904086E-007	-0.0034861	7
	24	34	3984.375	2168.598	-674.5654	1	2271.092	-17.27886	5.211247E-007	-0.003156	7
	25	36	3170.956	2202.875	-804.1821	1	2345.073	-20.05513	-9.98462E-007	-0.0023562	7
	26	37	2527.573	2241.302	-966.888	1	2440.964	-23.33517	7.764267E-007	-0.0046184	7
	27	38	1976.103	2287.942	-1185.407	1	2576.794	-27.38916	8.342449E-008	-0.0043489	7
	28	40	1577.524	2340.979	-1435.274	1	2745.942	-31.51281	-2.535385E-007	-0.003945	7
	29	41	1265.625	2393.261	-1733.668	1	2955.217	-35.9194	-8.633982E-007	-0.0028251	7
	30	42	998.264	2466.609	-2132.598	1	3260.695	-40.84626	-8.845171E-007	-0.0019385	7
	31	44	796.875	2550.251	-2604.338	1	3645.046	-45.60118	7.805243E-007	-0.0046245	7
	32	45	627.7902	2664.214	-3214.761	1	4175.251	-50.34996	-2.541187E-007	-0.0039553	7
	33	46	505.5147	2795.397	-3899.834	1	4798.224	-54.36708	8.617031E-008	-0.00253	7
	34	48	397.9953	2972.696	-4828.912	1	5670.565	-58.3834	7.269554E-009	-0.0032488	7
	35	49	315.5048	3198.026	-5940.976	1	6747.041	-61.70643	5.285961E-009	-0.0032464	7
	36	51	252.4038	3475.503	-7245.697	1	8036.121	-64.37462	6.4059E-009	-0.0032455	7
	37	52	198.6229	3863.317	-8961.996	1	9759.23	-66.6802	4.073721E-009	-0.0032481	7
	38	53	158.3615	4345.109	-10944.06	1	11775.08	-68.3455	5.184547E-010	-0.0033057	6
	39	55	125.558	4986.455	-13413.91	1	14310.76	-69.60801	1.455165E-009	-0.0033136	6
	40	56	100.4464	5791.808	-16286.27	1	17285.47	-70.42333	-4.965575E-011	-0.0033073	6
	41	57	79.00281	6894.561	-20013.81	1	21168.08	-70.99168	1.473997E-009	-0.0033158	6
	42	59	63.3446	8275.776	-23939.06	1	25329.17	-70.92963	8.43955E-010	-0.0033148	6
	43	60	49.86702	10277.42	-29471.59	1	31212.18	-70.77518	-8.127582E-012	-0.003318	6
	44	62	39.72458	12492.91	-35419.89	1	37558.51	-70.5718	1.023255E-009	-0.0033076	6
	45	63	31.6723	15344.41	-42401.25	1	45092.32	-70.10552	1.010251E-009	-0.0033111	6
	46	64	24.93351	19313.74	-51113.43	1	54640.68	-69.30041	1.410882E-009	-0.0033185	6
	47	66	19.86229	23988.59	-60804.77	1	65365.68	-68.46986	1.486207E-009	-0.0033142	6
	48	67	15.83615	30068.54	-71852.45	1	77890.26	-67.29185	1.654449E-009	-0.0033073	6
	49	69	12.40079	37468.8	-85518.8	1	93366.88	-66.34008	2.223649E-009	-0.003311	6
	50	70	9.93114	45335.5	-100345.9	1	110111.8	-65.68692	-4.488618E-010	-0.0033052	5
	51	72	7.944915	55406.39	-117335.7	1	129759.5	-64.72314	1.584266E-009	-0.0033068	5
	52	73	6.317385	67625.1	-137288.8	1	153040.4	-63.77626	1.407918E-010	-0.0032888	5
	53	75	5.008013	82600.04	-160155.7	1	180201.6	-62.71766	9.537097E-010	-0.0033179	5
	54	78	3.945707	100370.2	-186715.3	1	211983	-61.73941	4.265408E-010	-0.0033051	5
	55	81	3.158693	119977.4	-215342.6	1	246509.7	-60.87578	2.393796E-011	-0.0033182	5
	56	84	2.504006	143213.3	-248670.4	1	286961.7	-60.06166	8.795831E-010	-0.0033065	5
	57	87	1.998082	169274	-285475	1	331888	-59.33395	2.646799E-010	-0.0032718	5
	58	90	1.584686	197901.3	-327887.4	1	382981.9	-58.8863	3.838861E-010	-0.0033358	5
	59	93	1.266892	229940.8	-376935.7	1	441535.2	-58.6157	3.954202E-010	-0.0032806	5
	60	98	0.999041	267734.1	-436656	1	512201.1	-58.4856	5.497858E-011	-0.00335	5
