EXPLAIN
TAG	EISPOT
TITLE	LABEL	Potentiostatic EIS	Test &Identifier
DATE	LABEL	10/24/2019	Date
TIME	LABEL	9:31:56	Time
NOTES	NOTES	1	&Notes...
	
PSTAT	PSTAT	REF600-11020	Potentiostat
VDC	POTEN	0.00000E+000	T	DC &Voltage (V)
FREQINIT	QUANT	1.00000E+006	Initial Fre&q. (Hz)
FREQFINAL	QUANT	1.00000E+000	Final Fre&q. (Hz)
PTSPERDEC	QUANT	1.00000E+001	Points/&decade
VAC	QUANT	2.50000E+001	AC &Voltage (mV rms)
AREA	QUANT	1.00000E-002	&Area (cm^2)
CONDIT	TWOPARAM	T	5.00000E+000	0.00000E+000	Conditionin&g	Time(s)	E(V)
DELAY	TWOPARAM	T	5.00000E+000	0.00000E+000	Init. De&lay	Time(s)	Stab.(mV/s)
SPEED	SELECTOR	1	&Optimize for:
ZGUESS	QUANT	1.00000E+005	E&stimated Z (ohms)
OCVCURVE	TABLE	19
	Pt	T	Vf	Vm	Ach	Over
	#	s	V vs. Ref.	V	V	bits
	0	0.258333	5.56824E-003	5.56824E-003	5.58332E-004	...........
	1	0.516667	5.56622E-003	5.46212E-003	5.62999E-004	...........
	2	0.775	5.55419E-003	5.38381E-003	5.58766E-004	...........
	3	1.03333	5.52179E-003	5.31875E-003	5.61232E-004	...........
	4	1.29167	5.46756E-003	5.26523E-003	5.61566E-004	...........
	5	1.55	5.40147E-003	5.21534E-003	5.58466E-004	...........
	6	1.80833	5.33538E-003	5.17219E-003	5.57066E-004	...........
	7	2.06667	5.27575E-003	5.13304E-003	5.60432E-004	...........
	8	2.325	5.22394E-003	5.10218E-003	5.57032E-004	...........
	9	2.58333	5.17904E-003	5.06378E-003	5.63132E-004	...........
	10	2.84167	5.13970E-003	5.05190E-003	5.65032E-004	...........
	11	3.1	5.10555E-003	5.03568E-003	5.66166E-004	...........
	12	3.35833	5.07717E-003	5.01487E-003	5.56299E-004	...........
	13	3.61667	5.05351E-003	4.95872E-003	5.63766E-004	...........
	14	3.875	5.03247E-003	5.06242E-003	5.62832E-004	...........
	15	4.13333	5.01856E-003	5.08294E-003	5.65266E-004	...........
	16	4.39167	5.01970E-003	5.02006E-003	5.65132E-004	...........
	17	4.65	5.03087E-003	4.99483E-003	5.61499E-004	...........
	18	4.90833	5.03553E-003	4.97797E-003	5.62899E-004	...........
EOC	QUANT	0.0050355	Open Circuit (V)
PSTATMODEL	IQUANT	4	Pstat Model
PSTATSECTION	LABEL	REF600-11020	Pstat Section
PSTATSERIALNO	LABEL	11020	Pstat Serial Number
CTRLMODE	IQUANT	1	Control Mode
IESTAB	IQUANT	0	I/E Stability
CASPEED	IQUANT	1	Control Amp Speed
CONVENTION	IQUANT	1	Current Convention
ICHRANGE	IQUANT	2	Ich Range
ICHRANGEMODE	TOGGLE	F	Ich Auto Range
ICHOFFSETENABLE	TOGGLE	T	Ich Offset Enable
ICHOFFSET	QUANT	0	Ich Offset (V)
ICHFILTER	IQUANT	3	Ich Filter
VCHRANGE	IQUANT	2	Vch Range
VCHRANGEMODE	TOGGLE	F	Vch Auto Range
VCHOFFSETENABLE	TOGGLE	T	Vch Offset Enable
VCHOFFSET	QUANT	0	Vch Offset (V)
VCHFILTER	IQUANT	3	Vch Filter
ACHRANGE	IQUANT	2	Ach Range
ACHOFFSETENABLE	TOGGLE	F	Ach Offset Enable
ACHOFFSET	QUANT	0	Ach Offset (V)
ACHFILTER	IQUANT	3	Ach Filter
IERANGELOWERLIMIT	IQUANT	1	I/E Range Lower Limit
IERANGEMODE	TOGGLE	F	I/E AutoRange
IERANGE	IQUANT	4	I/E Range
POSFEEDENABLE	TOGGLE	F	Positive Feedback IR Comp
POSFEEDRESISTANCE	QUANT	0	Positive Feedback Resistance (ohm)
ACHSELECT	IQUANT	0	Ach Select
CABLEID	IQUANT	14	Cable ID
DCCALDATE	LABEL	8/19/2019	DC Calibration Date
ACCALDATE	LABEL	8/19/2019	AC Calibration Date
THERMOSELECT	IQUANT	1	Thermo Select
FRAMEWORKVERSION	QUANT	6.33	Framework Version
INSTRUMENTVERSION	LABEL	3.50	Instrument Version
ZCURVE	TABLE
	Pt	Time	Freq	Zreal	Zimag	Zsig	Zmod	Zphz	Idc	Vdc	IERange
	#	s	Hz	ohm	ohm	V	ohm	°	A	V	#
	0	2	1000078	2367.961	-1630.967	1	2875.29	-34.55769	-2.392133E-006	0.0078274	8
	1	4	794390.6	2687.302	-1559.544	1	3107.052	-30.12823	1.329465E-006	0.0065144	8
	2	5	630984.4	2966.095	-1432.983	1	3294.11	-25.78617	-2.494893E-006	0.0072683	8
	3	6	501234.4	3198.686	-1291.19	1	3449.458	-21.98209	1.435179E-006	0.0064329	8
	4	8	398109.4	3396.286	-1125.689	1	3577.979	-18.33763	-2.13749E-006	0.0070854	8
	5	9	316265.6	3547.868	-970.503	1	3678.212	-15.29874	1.151475E-006	0.0063653	8
	6	11	251203.1	3653.996	-838.6669	1	3749.007	-12.92667	-1.853741E-006	0.0070239	8
	7	12	199546.9	3731.684	-718.1667	1	3800.162	-10.89345	-4.830989E-007	0.006647	8
	8	13	158578.1	3803.912	-594.7023	1	3850.119	-8.885675	-2.925599E-007	0.0066713	8
	9	15	125953.1	3872.87	-488.4072	1	3903.545	-7.187622	-5.806507E-007	0.0071611	7
	10	16	100078.1	3889.564	-434.3515	1	3913.741	-6.371878	9.758908E-008	0.0063844	7
	11	17	79453.13	3921.4	-398.0471	1	3941.55	-5.796035	6.599257E-008	0.0063789	7
	12	19	63140.62	3950.291	-372.4981	1	3967.814	-5.386856	-5.219227E-008	0.0065971	7
	13	20	50203.12	3978.695	-358.0888	1	3994.777	-5.142854	3.508214E-008	0.0064694	7
	14	21	39890.62	4005.802	-351.7179	1	4021.213	-5.017823	2.238588E-009	0.0065957	7
	15	23	31640.63	4033.13	-355.8582	1	4048.799	-5.042363	-4.351294E-008	0.0065563	7
	16	24	25171.88	4061.074	-368.8409	1	4077.789	-5.189565	-1.645931E-008	0.0065612	7
	17	25	20015.62	4091.149	-391.9924	1	4109.885	-5.473073	-1.850331E-008	0.006502	7
	18	27	15890.62	4123.6	-425.1289	1	4145.457	-5.886202	2.804207E-008	0.0064096	7
	19	28	12609.37	4155.969	-469.1487	1	4182.365	-6.440598	6.44533E-008	0.0063643	7
	20	30	10078.13	4191.25	-524.6122	1	4223.955	-7.134519	4.0982E-009	0.0065923	7
	21	31	8015.625	4229.216	-592.9736	1	4270.583	-7.981348	1.257185E-009	0.0064752	7
	22	32	6328.125	4269.558	-689.0427	1	4324.801	-9.167636	-4.891995E-008	0.0066639	7
	23	34	5015.625	4313.657	-802.6266	1	4387.693	-10.54029	6.560815E-008	0.006366	7
	24	35	3984.375	4340.295	-959.16	1	4445.014	-12.46149	-4.268629E-008	0.0065489	7
	25	36	3170.956	4414.057	-1118.353	1	4553.527	-14.21738	-4.433184E-008	0.0065489	7
	26	38	2527.573	4472.243	-1330.43	1	4665.94	-16.567	-2.296956E-008	0.0064987	7
	27	39	1976.103	4549.261	-1618.712	1	4828.665	-19.58651	1.010395E-007	0.0063615	7
	28	41	1577.524	4672.95	-1904.401	1	5046.108	-22.17273	1.013708E-007	0.0063601	7
	29	42	1265.625	4721.85	-2321.789	1	5261.803	-26.18388	3.659951E-008	0.0064579	7
	30	43	998.264	4838.645	-2828.659	1	5604.801	-30.31044	-4.610429E-008	0.0065544	7
	31	45	796.875	4967.084	-3416.115	1	6028.413	-34.51827	-4.851835E-008	0.0066574	7
	32	46	627.7902	5127.37	-4178.052	1	6614.079	-39.17497	-5.043301E-008	0.0065826	7
	33	47	505.5147	5299.16	-5025.417	1	7303.144	-43.48123	-2.454994E-008	0.0064968	7
	34	49	397.9953	5522.822	-6180.566	1	8288.604	-48.21671	5.740924E-009	0.0065257	7
	35	50	315.5048	5785.392	-7567.561	1	9525.69	-52.60213	5.181422E-009	0.0065238	7
	36	51	252.4038	6093.138	-9205.678	1	11039.51	-56.49986	9.906252E-010	0.0064622	6
	37	53	198.6229	6504.746	-11377.96	1	13106.09	-60.24353	1.053566E-009	0.0064631	6
	38	54	158.3615	6992.442	-13917.57	1	15575.4	-63.32421	6.104731E-010	0.0064618	6
	39	56	125.558	7635.917	-17106.32	1	18733.22	-65.94498	8.918966E-010	0.0064615	6
	40	57	100.4464	8423.557	-20847.01	1	22484.53	-67.99806	4.874454E-010	0.0064619	6
	41	58	79.00281	9523.56	-25787.95	1	27490.3	-69.73067	1.189031E-009	0.0064573	6
	42	60	63.3446	10975.03	-31118.52	1	32997.17	-70.57303	7.551714E-010	0.0064527	6
	43	61	49.86702	12973.48	-38914.45	1	41020.07	-71.5624	7.021206E-010	0.0064474	6
	44	63	39.72458	15359.84	-47273.98	1	49706.68	-72.00045	5.108842E-010	0.0064506	6
	45	64	31.6723	18401.14	-57353.67	1	60233.26	-72.21188	-9.993492E-011	0.0064499	6
	46	65	24.93351	23110.7	-70246.39	1	73950.38	-71.78906	3.009703E-010	0.006448	6
	47	67	19.86229	28928.04	-84798	1	89596.5	-71.16341	4.995344E-010	0.0064522	6
	48	68	15.83615	35424.87	-102191.2	1	108157.1	-70.88099	-1.151857E-009	0.0064559	5
	49	70	12.40079	45990.25	-122902.2	1	131225.2	-69.48405	1.389992E-009	0.0064541	5
	50	71	9.93114	59257.62	-146010.5	1	157577	-67.91048	-2.949035E-010	0.0064626	5
	51	73	7.944915	74741.65	-170706.9	1	186352.2	-66.35445	7.227094E-010	0.0064643	5
	52	74	6.317385	94666.11	-200094.8	1	221358.5	-64.68087	4.318179E-010	0.0064755	5
	53	76	5.008013	119070.2	-232546.7	1	261257.9	-62.88633	5.154685E-010	0.0064621	5
	54	79	3.945707	148478.3	-269520.2	1	307712.4	-61.1497	2.332929E-010	0.0064564	5
	55	81	3.158693	180112.4	-306389.1	1	355407.8	-59.55065	3.130648E-010	0.0064719	5
	56	85	2.504006	221173.5	-346853.4	1	411369.7	-57.47609	3.360678E-009	0.0064507	5
	57	88	1.998082	256723.2	-392871.4	1	469313	-56.83725	-4.817306E-010	0.0064932	5
	58	91	1.584686	300287	-444574.2	1	536487.3	-55.963	3.487626E-011	0.0064775	5
	59	94	1.266892	347417.5	-500959.8	1	609639	-55.25854	-2.807816E-010	0.0065009	5
	60	99	0.999041	379983.2	-576060.6	1	690096.4	-56.59021	7.502332E-010	0.0064289	5
