EXPLAIN
TAG	EISPOT
TITLE	LABEL	Potentiostatic EIS	Test &Identifier
DATE	LABEL	9/22/2019	Date
TIME	LABEL	9:09:37	Time
NOTES	NOTES	1	&Notes...
	
PSTAT	PSTAT	REF600-11020	Potentiostat
VDC	POTEN	0.00000E+000	T	DC &Voltage (V)
FREQINIT	QUANT	1.00000E+006	Initial Fre&q. (Hz)
FREQFINAL	QUANT	1.00000E+000	Final Fre&q. (Hz)
PTSPERDEC	QUANT	1.00000E+001	Points/&decade
VAC	QUANT	2.50000E+001	AC &Voltage (mV rms)
AREA	QUANT	1.00000E-002	&Area (cm^2)
CONDIT	TWOPARAM	T	5.00000E+000	0.00000E+000	Conditionin&g	Time(s)	E(V)
DELAY	TWOPARAM	T	5.00000E+000	0.00000E+000	Init. De&lay	Time(s)	Stab.(mV/s)
SPEED	SELECTOR	1	&Optimize for:
ZGUESS	QUANT	1.00000E+004	E&stimated Z (ohms)
OCVCURVE	TABLE	19
	Pt	T	Vf	Vm	Ach	Over
	#	s	V vs. Ref.	V	V	bits
	0	0.258333	1.66377E-002	1.66377E-002	5.76866E-004	...........
	1	0.516667	1.66506E-002	1.73144E-002	5.80932E-004	...........
	2	0.775	1.67297E-002	1.79381E-002	5.80832E-004	...........
	3	1.03333	1.69517E-002	1.85140E-002	5.77032E-004	...........
	4	1.29167	1.73447E-002	1.90548E-002	5.75432E-004	...........
	5	1.55	1.78595E-002	1.95576E-002	5.72866E-004	...........
	6	1.80833	1.84196E-002	2.00346E-002	5.73599E-004	...........
	7	2.06667	1.89710E-002	2.04827E-002	5.71566E-004	...........
	8	2.325	1.94908E-002	2.09056E-002	5.69999E-004	...........
	9	2.58333	1.99758E-002	2.13043E-002	5.67232E-004	...........
	10	2.84167	2.04294E-002	2.16846E-002	5.71799E-004	...........
	11	3.1	2.08560E-002	2.20414E-002	5.69432E-004	...........
	12	3.35833	2.12587E-002	2.23849E-002	5.72666E-004	...........
	13	3.61667	2.16401E-002	2.27143E-002	5.72099E-004	...........
	14	3.875	2.20025E-002	2.30291E-002	5.73699E-004	...........
	15	4.13333	2.23479E-002	2.33260E-002	5.73399E-004	...........
	16	4.39167	2.26779E-002	2.36159E-002	5.78132E-004	...........
	17	4.65	2.29932E-002	2.38835E-002	5.74966E-004	...........
	18	4.90833	2.32942E-002	2.41471E-002	5.77566E-004	...........
EOC	QUANT	0.0232942	Open Circuit (V)
PSTATMODEL	IQUANT	4	Pstat Model
PSTATSECTION	LABEL	REF600-11020	Pstat Section
PSTATSERIALNO	LABEL	11020	Pstat Serial Number
CTRLMODE	IQUANT	1	Control Mode
IESTAB	IQUANT	0	I/E Stability
CASPEED	IQUANT	1	Control Amp Speed
CONVENTION	IQUANT	1	Current Convention
ICHRANGE	IQUANT	2	Ich Range
ICHRANGEMODE	TOGGLE	F	Ich Auto Range
ICHOFFSETENABLE	TOGGLE	T	Ich Offset Enable
ICHOFFSET	QUANT	0	Ich Offset (V)
ICHFILTER	IQUANT	3	Ich Filter
VCHRANGE	IQUANT	2	Vch Range
VCHRANGEMODE	TOGGLE	F	Vch Auto Range
VCHOFFSETENABLE	TOGGLE	T	Vch Offset Enable
VCHOFFSET	QUANT	0	Vch Offset (V)
VCHFILTER	IQUANT	3	Vch Filter
ACHRANGE	IQUANT	2	Ach Range
ACHOFFSETENABLE	TOGGLE	F	Ach Offset Enable
ACHOFFSET	QUANT	0	Ach Offset (V)
ACHFILTER	IQUANT	3	Ach Filter
IERANGELOWERLIMIT	IQUANT	1	I/E Range Lower Limit
IERANGEMODE	TOGGLE	F	I/E AutoRange
IERANGE	IQUANT	6	I/E Range
POSFEEDENABLE	TOGGLE	F	Positive Feedback IR Comp
POSFEEDRESISTANCE	QUANT	0	Positive Feedback Resistance (ohm)
ACHSELECT	IQUANT	0	Ach Select
CABLEID	IQUANT	14	Cable ID
DCCALDATE	LABEL	8/19/2019	DC Calibration Date
ACCALDATE	LABEL	8/19/2019	AC Calibration Date
THERMOSELECT	IQUANT	1	Thermo Select
FRAMEWORKVERSION	QUANT	6.33	Framework Version
INSTRUMENTVERSION	LABEL	3.50	Instrument Version
ZCURVE	TABLE
	Pt	Time	Freq	Zreal	Zimag	Zsig	Zmod	Zphz	Idc	Vdc	IERange
	#	s	Hz	ohm	ohm	V	ohm	°	A	V	#
	0	1	1000078	2225.249	-1706.444	1	2804.226	-37.48299	3.058048E-006	0.0249905	8
	1	3	794390.6	2547.375	-1682.67	1	3052.949	-33.44678	4.828372E-006	0.02413	8
	2	5	630984.4	2882.463	-1609.703	1	3301.475	-29.18104	-1.16754E-006	0.024979	8
	3	6	501234.4	3192.732	-1521.275	1	3536.639	-25.47689	1.318678E-006	0.024745	8
	4	7	398109.4	3420.711	-1350.43	1	3677.625	-21.54314	1.21412E-006	0.0246293	8
	5	9	316265.6	3646.26	-1225.476	1	3846.687	-18.57705	-3.59172E-006	0.0256486	8
	6	10	251203.1	3787.06	-1064.271	1	3933.763	-15.69686	-2.324784E-007	0.0248327	8
	7	12	199546.9	3916.505	-924.7455	1	4024.197	-13.28508	-4.509012E-006	0.0259234	8
	8	13	158578.1	4031.74	-820.6306	1	4114.409	-11.50496	-4.39667E-006	0.0259091	8
	9	15	125953.1	4112.981	-663.5362	1	4166.161	-9.164412	-5.840305E-007	0.0254552	7
	10	16	100078.1	4171.765	-581.4425	1	4212.089	-7.934524	8.095085E-008	0.0247757	7
	11	17	79453.13	4221.037	-528.7184	1	4254.021	-7.139568	-4.658995E-008	0.0249217	7
	12	19	63140.62	4264.172	-489.7956	1	4292.21	-6.552449	1.288105E-007	0.0246168	7
	13	20	50203.12	4302.657	-462.7788	1	4327.473	-6.138934	-4.703532E-008	0.0249096	7
	14	22	39890.62	4341.802	-448.9846	1	4364.955	-5.903957	7.927252E-008	0.0246409	7
	15	23	31640.63	4379.414	-446.9975	1	4402.167	-5.827878	-1.539821E-008	0.0247791	7
	16	24	25171.88	4416.922	-456.752	1	4440.475	-5.903947	9.984929E-009	0.0247401	7
	17	26	20015.62	4456.213	-477.8252	1	4481.757	-6.120255	7.989448E-008	0.0246424	7
	18	27	15890.62	4497.706	-509.4393	1	4526.465	-6.46215	-4.162676E-008	0.0248301	7
	19	28	12609.37	4545.452	-553.9876	1	4579.087	-6.948786	1.133199E-008	0.0247322	7
	20	30	10078.13	4593.284	-611.5975	1	4633.822	-7.584344	8.293708E-008	0.0247657	7
	21	31	8015.625	4644.145	-684.2799	1	4694.286	-8.381795	3.849508E-008	0.0246864	7
	22	32	6328.125	4699.178	-779.1818	1	4763.339	-9.41469	-4.531105E-009	0.0248263	7
	23	34	5015.625	4759.814	-892.9114	1	4842.843	-10.62484	-4.732754E-008	0.0248477	7
	24	35	3984.375	4825.399	-1033.183	1	4934.769	-12.08532	1.314484E-007	0.0246127	7
	25	37	3170.956	4895.391	-1205.234	1	5041.571	-13.83102	-4.75479E-008	0.0249009	7
	26	38	2527.573	4972.56	-1413.789	1	5169.637	-15.87141	6.355944E-008	0.0246987	7
	27	39	1976.103	5067.918	-1691.947	1	5342.891	-18.46182	1.223215E-008	0.0247338	7
	28	41	1577.524	5168.747	-2009.74	1	5545.719	-21.24734	-7.678469E-008	0.024939	7
	29	42	1265.625	5281.819	-2382.101	1	5794.137	-24.27538	-7.69863E-008	0.024932	7
	30	43	998.264	5416.598	-2873.229	1	6131.475	-27.94367	-5.382584E-008	0.0249671	7
	31	45	796.875	5566.515	-3443.26	1	6545.389	-31.73955	8.505094E-008	0.0247601	7
	32	46	627.7902	5749.438	-4183.422	1	7110.349	-36.04049	-4.365327E-008	0.0249009	7
	33	47	505.5147	5945.875	-5007.616	1	7773.65	-40.10409	-7.752404E-008	0.0249343	7
	34	49	397.9953	6210.6	-6121.155	1	8720.097	-44.58443	2.414419E-009	0.0248249	7
	35	50	315.5048	6522.326	-7458.202	1	9907.85	-48.82975	-7.056525E-010	0.0247704	6
	36	52	252.4038	6891.579	-9035.519	1	11363.73	-52.66648	-1.581175E-009	0.024767	6
	37	53	198.6229	7392.403	-11112.99	1	13347.14	-56.368	-1.331293E-009	0.0247745	6
	38	54	158.3615	8004.43	-13520.54	1	15712.29	-59.37362	-1.994552E-009	0.0247689	6
	39	56	125.558	8814.77	-16525.45	1	18729.41	-61.92429	-1.513964E-009	0.0247716	6
	40	57	100.4464	9838.55	-20022.79	1	22309.4	-63.83199	-8.020061E-010	0.024767	6
	41	59	79.00281	11232.98	-24541.25	1	26989.87	-65.40557	-9.805127E-010	0.0247646	6
	42	60	63.3446	13037.38	-29374.41	1	32137.67	-66.0667	-1.668261E-009	0.0247698	6
	43	61	49.86702	15480.25	-36173.29	1	39346.47	-66.83164	-1.573946E-009	0.0247706	6
	44	63	39.72458	18477.69	-43355.2	1	47128.53	-66.91663	-1.993535E-009	0.0247711	6
	45	64	31.6723	22252.7	-51974.37	1	56537.75	-66.82193	-6.660764E-010	0.0247702	6
	46	66	24.93351	27520.21	-62387.7	1	68187.88	-66.19695	-1.992675E-009	0.0247705	6
	47	67	19.86229	33837.51	-73918.71	1	81295.47	-65.40328	-1.188375E-009	0.0247687	6
	48	68	15.83615	42365.8	-86898.56	1	96675.9	-64.0093	-3.416588E-009	0.024767	6
	49	70	12.40079	52267.45	-103169.3	1	115653.7	-63.13239	-2.398296E-009	0.0247803	5
	50	71	9.93114	64487.24	-119565.1	1	135847	-61.65987	-2.218477E-009	0.0247802	5
	51	73	7.944915	79059.47	-137667.7	1	158753.8	-60.13221	-1.184372E-009	0.0247795	5
	52	74	6.317385	96819.2	-158157.7	1	185439.5	-58.52633	-1.899502E-009	0.0247877	5
	53	76	5.008013	118613.2	-180505.8	1	215989.4	-56.69044	-1.595547E-009	0.0247838	5
	54	79	3.945707	144221.1	-205123.2	1	250749.4	-54.88914	-2.199209E-009	0.0247713	5
	55	81	3.158693	171860.1	-229314.1	1	286567.3	-53.15017	-1.629293E-009	0.0247975	5
	56	85	2.504006	205296.9	-256024.4	1	328169.6	-51.27511	-2.509315E-009	0.0247747	5
	57	88	1.998082	240599.2	-282655	1	371189.8	-49.59518	-2.339269E-009	0.0247564	5
	58	91	1.584686	281165.6	-310101.2	1	418589.1	-47.80172	-2.038172E-009	0.0248198	5
	59	94	1.266892	323724.5	-339933.9	1	469417.3	-46.39913	-2.39286E-009	0.0247729	5
	60	99	0.999041	372818.7	-371811	1	526533.2	-44.92247	-1.430401E-009	0.0247911	5
