EXPLAIN
TAG	EISPOT
TITLE	LABEL	Potentiostatic EIS	Test &Identifier
DATE	LABEL	11/5/2019	Date
TIME	LABEL	10:45:35	Time
NOTES	NOTES	2	&Notes...
	
	
PSTAT	PSTAT	REF600-11020	Potentiostat
VDC	POTEN	0.00000E+000	T	DC &Voltage (V)
FREQINIT	QUANT	1.00000E+006	Initial Fre&q. (Hz)
FREQFINAL	QUANT	1.00000E+000	Final Fre&q. (Hz)
PTSPERDEC	QUANT	1.00000E+001	Points/&decade
VAC	QUANT	2.50000E+001	AC &Voltage (mV rms)
AREA	QUANT	1.00000E-002	&Area (cm^2)
CONDIT	TWOPARAM	T	5.00000E+000	0.00000E+000	Conditionin&g	Time(s)	E(V)
DELAY	TWOPARAM	T	5.00000E+000	0.00000E+000	Init. De&lay	Time(s)	Stab.(mV/s)
SPEED	SELECTOR	1	&Optimize for:
ZGUESS	QUANT	1.00000E+005	E&stimated Z (ohms)
OCVCURVE	TABLE	19
	Pt	T	Vf	Vm	Ach	Over
	#	s	V vs. Ref.	V	V	bits
	0	0.258333	4.47087E-003	4.47087E-003	5.46566E-004	...........
	1	0.516667	4.46783E-003	4.31176E-003	5.49033E-004	...........
	2	0.775	4.44956E-003	4.18147E-003	5.41699E-004	...........
	3	1.03333	4.39939E-003	4.06785E-003	5.45299E-004	...........
	4	1.29167	4.31337E-003	3.97265E-003	5.48899E-004	...........
	5	1.55	4.20542E-003	3.88461E-003	5.50066E-004	...........
	6	1.80833	4.09422E-003	3.81201E-003	5.51166E-004	...........
	7	2.06667	3.99161E-003	3.74367E-003	5.47299E-004	...........
	8	2.325	3.90141E-003	3.68281E-003	5.50333E-004	...........
	9	2.58333	3.82268E-003	3.62143E-003	5.48066E-004	...........
	10	2.84167	3.75273E-003	3.57038E-003	5.48199E-004	...........
	11	3.1	3.68912E-003	3.51712E-003	5.55099E-004	...........
	12	3.35833	3.63048E-003	3.47850E-003	5.49933E-004	...........
	13	3.61667	3.57645E-003	3.43215E-003	5.52166E-004	...........
	14	3.875	3.52692E-003	3.39795E-003	5.49666E-004	...........
	15	4.13333	3.48151E-003	3.35789E-003	5.49099E-004	...........
	16	4.39167	3.43959E-003	3.32760E-003	5.48333E-004	...........
	17	4.65	3.40061E-003	3.29227E-003	5.47966E-004	...........
	18	4.90833	3.36407E-003	3.26106E-003	5.47466E-004	...........
EOC	QUANT	0.0033641	Open Circuit (V)
PSTATMODEL	IQUANT	4	Pstat Model
PSTATSECTION	LABEL	REF600-11020	Pstat Section
PSTATSERIALNO	LABEL	11020	Pstat Serial Number
CTRLMODE	IQUANT	1	Control Mode
IESTAB	IQUANT	0	I/E Stability
CASPEED	IQUANT	1	Control Amp Speed
CONVENTION	IQUANT	1	Current Convention
ICHRANGE	IQUANT	2	Ich Range
ICHRANGEMODE	TOGGLE	F	Ich Auto Range
ICHOFFSETENABLE	TOGGLE	T	Ich Offset Enable
ICHOFFSET	QUANT	0	Ich Offset (V)
ICHFILTER	IQUANT	3	Ich Filter
VCHRANGE	IQUANT	2	Vch Range
VCHRANGEMODE	TOGGLE	F	Vch Auto Range
VCHOFFSETENABLE	TOGGLE	T	Vch Offset Enable
VCHOFFSET	QUANT	0	Vch Offset (V)
VCHFILTER	IQUANT	3	Vch Filter
ACHRANGE	IQUANT	2	Ach Range
ACHOFFSETENABLE	TOGGLE	F	Ach Offset Enable
ACHOFFSET	QUANT	0	Ach Offset (V)
ACHFILTER	IQUANT	3	Ach Filter
IERANGELOWERLIMIT	IQUANT	1	I/E Range Lower Limit
IERANGEMODE	TOGGLE	F	I/E AutoRange
IERANGE	IQUANT	4	I/E Range
POSFEEDENABLE	TOGGLE	F	Positive Feedback IR Comp
POSFEEDRESISTANCE	QUANT	0	Positive Feedback Resistance (ohm)
ACHSELECT	IQUANT	0	Ach Select
CABLEID	IQUANT	14	Cable ID
DCCALDATE	LABEL	8/19/2019	DC Calibration Date
ACCALDATE	LABEL	8/19/2019	AC Calibration Date
THERMOSELECT	IQUANT	1	Thermo Select
FRAMEWORKVERSION	QUANT	6.33	Framework Version
INSTRUMENTVERSION	LABEL	3.50	Instrument Version
ZCURVE	TABLE
	Pt	Time	Freq	Zreal	Zimag	Zsig	Zmod	Zphz	Idc	Vdc	IERange
	#	s	Hz	ohm	ohm	V	ohm	°	A	V	#
	0	2	1000078	1859.215	-792.6387	1	2021.128	-23.08999	9.874949E-007	0.0061249	8
	1	3	794390.6	1989.908	-738.1954	1	2122.42	-20.35332	-2.65159E-006	0.0048412	8
	2	4	630984.4	2093.861	-672.8556	1	2199.315	-17.81464	3.093945E-006	0.0053306	8
	3	6	501234.4	2181.842	-610.6945	1	2265.697	-15.63686	-7.512228E-006	0.005919	8
	4	7	398109.4	2251.546	-557.9307	1	2319.644	-13.91749	2.90055E-006	0.0051324	8
	5	8	316265.6	2310.965	-524.2857	1	2369.691	-12.78225	2.692767E-006	0.0041357	8
	6	10	251203.1	2365.38	-478.1514	1	2413.224	-11.4281	1.989571E-006	0.0050816	8
	7	11	199546.9	2414.419	-448.1842	1	2455.665	-10.51602	-6.379947E-006	0.005712	8
	8	12	158578.1	2465.389	-449.8547	1	2506.095	-10.34089	-6.515777E-007	0.0044945	8
	9	14	125953.1	2522.88	-402.4567	1	2554.779	-9.06361	1.973515E-006	0.0047666	7
	10	15	100078.1	2563.299	-401.4216	1	2594.541	-8.900428	9.362782E-007	0.0031222	7
	11	17	79453.13	2607.626	-422.3664	1	2641.611	-9.200494	1.066487E-006	0.0036325	7
	12	18	63140.62	2655.502	-448.1705	1	2693.055	-9.57957	-8.58582E-007	0.0063851	7
	13	19	50203.12	2709.734	-479.8207	1	2751.888	-10.04145	-3.018436E-007	0.0039289	7
	14	21	39890.62	2766.847	-515.2219	1	2814.408	-10.54839	6.170943E-007	0.0049052	7
	15	22	31640.63	2827.976	-556.8184	1	2882.273	-11.13885	-1.062985E-006	0.006332	7
	16	23	25171.88	2893.538	-604.287	1	2955.965	-11.79612	-5.893546E-007	0.0062932	7
	17	25	20015.62	2965.43	-665.1677	1	3039.115	-12.6426	-7.136527E-007	0.0046058	7
	18	26	15890.62	3037.932	-726.4502	1	3123.582	-13.4484	4.590368E-007	0.0031542	7
	19	27	12609.37	3116.98	-802.4816	1	3218.624	-14.43754	4.578507E-007	0.0031532	7
	20	29	10078.13	3197.851	-890.5838	1	3319.546	-15.56223	9.083188E-008	0.0056543	7
	21	30	8015.625	3291.826	-999.949	1	3440.352	-16.89706	9.898372E-007	0.0040341	7
	22	31	6328.125	3393.417	-1133.19	1	3577.625	-18.46612	8.176513E-007	0.0045099	7
	23	33	5015.625	3503.263	-1285.921	1	3731.815	-20.15636	-1.062553E-006	0.0063334	7
	24	34	3984.375	3623.233	-1457.624	1	3905.443	-21.91489	1.048576E-006	0.0033191	7
	25	36	3170.956	3754.555	-1676.262	1	4111.756	-24.05889	-7.116478E-007	0.0045866	7
	26	37	2527.573	3895.984	-1922.924	1	4344.69	-26.26937	-8.611087E-007	0.0063772	7
	27	38	1976.103	4059.84	-2244.531	1	4638.989	-28.93653	-8.599211E-007	0.006378	7
	28	40	1577.524	4202.624	-2586.298	1	4934.672	-31.60817	9.8744E-007	0.0040311	7
	29	41	1265.625	4384.991	-3031.64	1	5330.947	-34.65872	1.070165E-006	0.0036223	7
	30	42	998.264	4568.89	-3593.324	1	5812.635	-38.18422	1.071602E-006	0.0036259	7
	31	44	796.875	4762.973	-4249.63	1	6383.202	-41.74005	8.977553E-008	0.0056432	7
	32	45	627.7902	4995.514	-5130.032	1	7160.474	-45.76114	1.049446E-006	0.0033212	7
	33	47	505.5147	5248.232	-6108.77	1	8053.633	-49.33311	4.523737E-007	0.0031426	7
	34	48	397.9953	5578.209	-7438.272	1	9297.543	-53.13254	5.837273E-009	0.0047656	7
	35	49	315.5048	5984.829	-9043.05	1	10844.12	-56.5028	7.978238E-010	0.0047098	6
	36	51	252.4038	6472.08	-10932.54	1	12704.66	-59.37441	9.541609E-011	0.0047131	6
	37	52	198.6229	7146.119	-13414.6	1	15199.29	-61.95524	1.047129E-009	0.0047033	6
	38	53	158.3615	7980.616	-16270.98	1	18122.78	-63.87291	1.568289E-010	0.0046987	6
	39	55	125.558	9094.769	-19814.06	1	21801.65	-65.3446	8.517821E-010	0.0047026	6
	40	56	100.4464	10472.83	-23888.82	1	26083.63	-66.32742	2.342717E-010	0.0047012	6
	41	57	79.00281	12458.98	-29228.63	1	31773.24	-66.91341	1.878657E-010	0.0046942	6
	42	59	63.3446	15073.31	-35275.16	1	38360.67	-66.86266	6.276574E-010	0.0046954	6
	43	60	49.86702	17947.49	-42267.18	1	45919.79	-66.99295	6.501625E-010	0.0046967	6
	44	62	39.72458	22276.69	-50212.71	1	54932.39	-66.0757	8.560472E-010	0.0046977	6
	45	63	31.6723	27494.86	-59271.53	1	65338.21	-65.11437	1.631574E-010	0.004691	6
	46	65	24.93351	34440.64	-70451.33	1	78419.05	-63.94797	4.554898E-010	0.0046922	6
	47	66	19.86229	42672.49	-82020.11	1	92456.69	-62.51345	2.694263E-010	0.0046936	6
	48	67	15.83615	52094.16	-94606.24	1	108000.7	-61.16098	1.091078E-009	0.0046976	5
	49	69	12.40079	65019.24	-110620.8	1	128313.9	-59.5544	1.209178E-009	0.0047102	5
	50	70	9.93114	77571.95	-124517.6	1	146703.9	-58.07793	-9.08452E-011	0.0047115	5
	51	72	7.944915	92201.51	-140950.4	1	168428.4	-56.80963	1.831998E-010	0.0047109	5
	52	73	6.317385	108058.7	-157947.2	1	191374	-55.62224	-1.747887E-010	0.0047181	5
	53	76	5.008013	125348.2	-178484.1	1	218102.6	-54.91988	6.374522E-011	0.0046954	5
	54	78	3.945707	143618.3	-202749.2	1	248462.2	-54.68798	4.689032E-010	0.0047075	5
	55	81	3.158693	161725.7	-230212.1	1	281341.1	-54.91167	-1.277706E-010	0.0047076	5
	56	84	2.504006	181681.1	-264321.2	1	320739.3	-55.49732	5.034358E-010	0.0047028	5
	57	87	1.998082	202119.4	-303952.1	1	365019.3	-56.37723	2.870336E-010	0.0047477	5
	58	90	1.584686	226384	-354703.5	1	420790.1	-57.45257	1.920705E-010	0.0046995	5
	59	94	1.266892	254260	-414759.5	1	486491.1	-58.49046	1.173247E-010	0.0047452	5
	60	98	0.999041	288629.7	-490516	1	569133.6	-59.52657	2.396086E-011	0.0046645	5
