EXPLAIN
TAG	EISPOT
TITLE	LABEL	Potentiostatic EIS	Test &Identifier
DATE	LABEL	10/12/2019	Date
TIME	LABEL	10:18:23	Time
NOTES	NOTES	1	&Notes...
	
PSTAT	PSTAT	REF600-11020	Potentiostat
VDC	POTEN	0.00000E+000	T	DC &Voltage (V)
FREQINIT	QUANT	1.00000E+006	Initial Fre&q. (Hz)
FREQFINAL	QUANT	1.00000E+000	Final Fre&q. (Hz)
PTSPERDEC	QUANT	1.00000E+001	Points/&decade
VAC	QUANT	2.50000E+001	AC &Voltage (mV rms)
AREA	QUANT	1.00000E-002	&Area (cm^2)
CONDIT	TWOPARAM	T	5.00000E+000	0.00000E+000	Conditionin&g	Time(s)	E(V)
DELAY	TWOPARAM	T	5.00000E+000	0.00000E+000	Init. De&lay	Time(s)	Stab.(mV/s)
SPEED	SELECTOR	1	&Optimize for:
ZGUESS	QUANT	1.00000E+004	E&stimated Z (ohms)
OCVCURVE	TABLE	19
	Pt	T	Vf	Vm	Ach	Over
	#	s	V vs. Ref.	V	V	bits
	0	0.258333	6.49140E-003	6.49140E-003	5.40766E-004	...........
	1	0.516667	6.48784E-003	6.30512E-003	5.48366E-004	...........
	2	0.775	6.46667E-003	6.16417E-003	5.47166E-004	...........
	3	1.03333	6.40893E-003	6.02335E-003	5.45966E-004	...........
	4	1.29167	6.30978E-003	5.90028E-003	5.46633E-004	...........
	5	1.55	6.18352E-003	5.78494E-003	5.47999E-004	...........
	6	1.80833	6.04921E-003	5.66006E-003	5.46399E-004	...........
	7	2.06667	5.91840E-003	5.55583E-003	5.47199E-004	...........
	8	2.325	5.79520E-003	5.48666E-003	5.46499E-004	...........
	9	2.58333	5.68208E-003	5.39955E-003	5.44866E-004	...........
	10	2.84167	5.58116E-003	5.32806E-003	5.44599E-004	...........
	11	3.1	5.49178E-003	5.26233E-003	5.48933E-004	...........
	12	3.35833	5.41253E-003	5.25862E-003	5.42566E-004	...........
	13	3.61667	5.34406E-003	5.15278E-003	5.43299E-004	...........
	14	3.875	5.28678E-003	5.21088E-003	5.47299E-004	...........
	15	4.13333	5.24065E-003	5.14504E-003	5.47199E-004	...........
	16	4.39167	5.20541E-003	5.10726E-003	5.46233E-004	...........
	17	4.65	5.17671E-003	5.09838E-003	5.49333E-004	...........
	18	4.90833	5.14970E-003	5.10084E-003	5.48933E-004	...........
EOC	QUANT	0.0051497	Open Circuit (V)
PSTATMODEL	IQUANT	4	Pstat Model
PSTATSECTION	LABEL	REF600-11020	Pstat Section
PSTATSERIALNO	LABEL	11020	Pstat Serial Number
CTRLMODE	IQUANT	1	Control Mode
IESTAB	IQUANT	0	I/E Stability
CASPEED	IQUANT	1	Control Amp Speed
CONVENTION	IQUANT	1	Current Convention
ICHRANGE	IQUANT	2	Ich Range
ICHRANGEMODE	TOGGLE	F	Ich Auto Range
ICHOFFSETENABLE	TOGGLE	T	Ich Offset Enable
ICHOFFSET	QUANT	0	Ich Offset (V)
ICHFILTER	IQUANT	3	Ich Filter
VCHRANGE	IQUANT	2	Vch Range
VCHRANGEMODE	TOGGLE	F	Vch Auto Range
VCHOFFSETENABLE	TOGGLE	T	Vch Offset Enable
VCHOFFSET	QUANT	0	Vch Offset (V)
VCHFILTER	IQUANT	3	Vch Filter
ACHRANGE	IQUANT	2	Ach Range
ACHOFFSETENABLE	TOGGLE	F	Ach Offset Enable
ACHOFFSET	QUANT	0	Ach Offset (V)
ACHFILTER	IQUANT	3	Ach Filter
IERANGELOWERLIMIT	IQUANT	1	I/E Range Lower Limit
IERANGEMODE	TOGGLE	F	I/E AutoRange
IERANGE	IQUANT	5	I/E Range
POSFEEDENABLE	TOGGLE	F	Positive Feedback IR Comp
POSFEEDRESISTANCE	QUANT	0	Positive Feedback Resistance (ohm)
ACHSELECT	IQUANT	0	Ach Select
CABLEID	IQUANT	14	Cable ID
DCCALDATE	LABEL	8/19/2019	DC Calibration Date
ACCALDATE	LABEL	8/19/2019	AC Calibration Date
THERMOSELECT	IQUANT	1	Thermo Select
FRAMEWORKVERSION	QUANT	6.33	Framework Version
INSTRUMENTVERSION	LABEL	3.50	Instrument Version
ZCURVE	TABLE
	Pt	Time	Freq	Zreal	Zimag	Zsig	Zmod	Zphz	Idc	Vdc	IERange
	#	s	Hz	ohm	ohm	V	ohm	°	A	V	#
	0	1	1000078	2277.054	-1525.191	1	2740.654	-33.81453	2.227912E-006	0.0078231	8
	1	3	794390.6	2581.32	-1469.262	1	2970.176	-29.64812	-1.565842E-006	0.0074445	8
	2	4	630984.4	2842.813	-1355.796	1	3149.567	-25.49744	1.028382E-007	0.0069865	8
	3	5	501234.4	3072.248	-1227.65	1	3308.448	-21.78132	-1.998947E-006	0.0074709	8
	4	7	398109.4	3229.788	-1093.401	1	3409.847	-18.70283	6.377449E-007	0.0067258	8
	5	8	316265.6	3373.54	-966.753	1	3509.328	-15.99068	-1.635359E-006	0.0071761	8
	6	9	251203.1	3480.227	-864.4788	1	3585.987	-13.94978	-1.692957E-006	0.0073143	8
	7	11	199546.9	3565.969	-770.8882	1	3648.343	-12.19844	2.030164E-006	0.0064295	8
	8	12	158578.1	3640.245	-716.4882	1	3710.086	-11.13486	-2.772289E-006	0.007385	8
	9	14	125953.1	3730.337	-612.3483	1	3780.263	-9.322168	2.31629E-009	0.0075771	7
	10	15	100078.1	3771.763	-585.5084	1	3816.938	-8.823862	-9.991197E-009	0.0067892	7
	11	16	79453.13	3826.179	-575.6853	1	3869.245	-8.556518	9.166326E-008	0.0067086	7
	12	18	63140.62	3881.213	-576.4911	1	3923.794	-8.448586	7.169806E-008	0.0066376	7
	13	19	50203.12	3937.955	-588.2692	1	3981.652	-8.496269	3.983743E-008	0.0066637	7
	14	20	39890.62	3999.253	-611.0928	1	4045.672	-8.687696	-4.73267E-009	0.0067445	7
	15	22	31640.63	4061.961	-645.7159	1	4112.965	-9.032533	-5.776491E-008	0.0068902	7
	16	23	25171.88	4129.153	-690.2691	1	4186.452	-9.490359	-4.535697E-008	0.0068431	7
	17	24	20015.62	4198.32	-746.325	1	4264.141	-10.08003	-6.565661E-008	0.0068762	7
	18	26	15890.62	4279.611	-818.9094	1	4357.257	-10.83268	-9.783379E-009	0.0068146	7
	19	27	12609.37	4364.429	-905.8346	1	4457.441	-11.72523	1.041155E-008	0.0067594	7
	20	29	10078.13	4452.829	-1005.86	1	4565.023	-12.72904	-6.506436E-008	0.006874	7
	21	30	8015.625	4554.318	-1123.611	1	4690.875	-13.85887	4.896837E-008	0.0067056	7
	22	31	6328.125	4660.898	-1277.113	1	4832.7	-15.32328	1.43293E-008	0.0067178	7
	23	33	5015.625	4778.167	-1453.642	1	4994.392	-16.92111	-5.58709E-008	0.0068856	7
	24	34	3984.375	4904.356	-1644.225	1	5172.639	-18.53414	1.590761E-008	0.0068589	7
	25	35	3170.956	5038.036	-1913.271	1	5389.102	-20.79504	-5.639756E-008	0.0068847	7
	26	37	2527.573	5181.148	-2212.029	1	5633.592	-23.11947	9.938073E-009	0.0067572	7
	27	38	1976.103	5350.839	-2609.739	1	5953.337	-25.99965	-8.816063E-009	0.0068053	7
	28	39	1577.524	5507.056	-3021.088	1	6281.293	-28.74851	-6.649942E-008	0.0069787	7
	29	41	1265.625	5701.13	-3583.852	1	6734.009	-32.15435	3.097202E-010	0.0067186	7
	30	42	998.264	5926.774	-4277.248	1	7309.001	-35.81731	1.42897E-008	0.0067091	7
	31	44	796.875	6170.64	-5101.041	1	8006.086	-39.57928	-8.008455E-009	0.0068003	7
	32	45	627.7902	6475.526	-6152.716	1	8932.433	-43.53569	7.283275E-008	0.0066276	7
	33	46	505.5147	6785.666	-7323.047	1	9983.6	-47.18126	-8.612569E-009	0.0068028	6
	34	48	397.9953	7198.764	-8892.936	1	11441.44	-51.01009	5.022212E-010	0.0067275	6
	35	49	315.5048	7675.148	-10768.98	1	13224.17	-54.52218	6.06597E-010	0.0067349	6
	36	50	252.4038	8217.567	-12965.74	1	15350.53	-57.63385	1.593302E-009	0.0067266	6
	37	52	198.6229	8920.099	-15853.78	1	18190.95	-60.6358	9.953598E-010	0.0067285	6
	38	53	158.3615	9726.98	-19198.23	1	21521.76	-63.13049	1.308312E-009	0.0067226	6
	39	55	125.558	10731.99	-23384.47	1	25729.54	-65.34787	1.079917E-009	0.0067248	6
	40	56	100.4464	11910.43	-28328.54	1	30730.52	-67.19621	8.254034E-010	0.0067226	6
	41	57	79.00281	13466.52	-34759.46	1	37276.9	-68.82263	1.40983E-010	0.0067178	6
	42	59	63.3446	15567.71	-41665.11	1	44478.48	-69.51234	3.807513E-010	0.0067215	6
	43	60	49.86702	18231.67	-51984.27	1	55088.63	-70.67346	2.676929E-010	0.0067221	6
	44	62	39.72458	21364.31	-62983.27	1	66508.09	-71.26276	1.013879E-009	0.0067249	6
	45	63	31.6723	25611.21	-76452.19	1	80627.98	-71.47933	3.548457E-010	0.0067217	6
	46	65	24.93351	31790.67	-93343.02	1	98608.1	-71.19224	4.823057E-010	0.006719	6
	47	66	19.86229	39489.72	-112567.9	1	119293.6	-70.66872	-1.917053E-010	0.0067254	5
	48	67	15.83615	49580.33	-134664	1	143501.2	-69.78739	4.701131E-010	0.0067221	5
	49	69	12.40079	64020.41	-164611.8	1	176623	-68.74807	9.325775E-010	0.006727	5
	50	70	9.93114	81186.2	-193151.2	1	209519.9	-67.20179	2.639715E-010	0.0067307	5
	51	72	7.944915	101844.5	-226109.5	1	247987.5	-65.75219	-1.948766E-010	0.0067304	5
	52	73	6.317385	130225.9	-263482.7	1	293908	-63.69919	6.296571E-011	0.0067155	5
	53	75	5.008013	163333.3	-304845.2	1	345844.4	-61.81799	-7.49563E-011	0.0067264	5
	54	78	3.945707	203287.4	-350804.7	1	405450	-59.90818	-1.637209E-011	0.006727	5
	55	81	3.158693	245398	-396192.9	1	466035.4	-58.22634	1.269999E-010	0.0067265	5
	56	84	2.504006	293512.5	-448033.5	1	535615.1	-56.77068	-1.410169E-011	0.0067398	5
	57	87	1.998082	343504	-502509.3	1	608695.8	-55.64437	2.583073E-010	0.0066959	5
	58	90	1.584686	398624.3	-567867.3	1	693811.6	-54.9324	-3.292641E-011	0.0067149	5
	59	94	1.266892	456604.1	-638648.1	1	785085.2	-54.43697	9.651561E-011	0.0066842	5
	60	98	0.999041	521531.8	-728006.2	1	895538.1	-54.3828	6.368612E-011	0.0067671	5
