EXPLAIN
TAG	EISPOT
TITLE	LABEL	Potentiostatic IDE	Test &Identifier
DATE	LABEL	9/10/2019	Date
TIME	LABEL	8:24:25	Time
NOTES	NOTES	1	&Notes...
	
PSTAT	PSTAT	REF600-11020	Potentiostat
VDC	POTEN	0.00000E+000	T	DC &Voltage (V)
FREQINIT	QUANT	1.00000E+006	Initial Fre&q. (Hz)
FREQFINAL	QUANT	1.00000E+000	Final Fre&q. (Hz)
PTSPERDEC	QUANT	1.00000E+001	Points/&decade
VAC	QUANT	2.50000E+001	AC &Voltage (mV rms)
AREA	QUANT	1.00000E-002	&Area (cm^2)
CONDIT	TWOPARAM	T	5.00000E+000	0.00000E+000	Conditionin&g	Time(s)	E(V)
DELAY	TWOPARAM	T	5.00000E+000	0.00000E+000	Init. De&lay	Time(s)	Stab.(mV/s)
SPEED	SELECTOR	1	&Optimize for:
ZGUESS	QUANT	1.00000E+007	E&stimated Z (ohms)
OCVCURVE	TABLE	19
	Pt	T	Vf	Vm	Ach	Over
	#	s	V vs. Ref.	V	V	bits
	0	0.258333	4.26999E-003	4.26999E-003	5.67166E-004	...........
	1	0.516667	4.26653E-003	4.08878E-003	5.65632E-004	...........
	2	0.775	4.24590E-003	3.94987E-003	5.63599E-004	...........
	3	1.03333	4.19054E-003	3.86442E-003	5.63432E-004	...........
	4	1.29167	4.09907E-003	3.75890E-003	5.67599E-004	...........
	5	1.55	3.98965E-003	3.70622E-003	5.63099E-004	...........
	6	1.80833	3.88282E-003	3.63010E-003	5.62232E-004	...........
	7	2.06667	3.78886E-003	3.55039E-003	5.64099E-004	...........
	8	2.325	3.70711E-003	3.48484E-003	5.67699E-004	...........
	9	2.58333	3.63198E-003	3.40370E-003	5.65666E-004	...........
	10	2.84167	3.55910E-003	3.34466E-003	5.62166E-004	...........
	11	3.1	3.48777E-003	3.30539E-003	5.66366E-004	...........
	12	3.35833	3.42066E-003	3.25643E-003	5.65799E-004	...........
	13	3.61667	3.36023E-003	3.18147E-003	5.66966E-004	...........
	14	3.875	3.30409E-003	3.10672E-003	5.70832E-004	...........
	15	4.13333	3.24644E-003	3.05119E-003	5.68399E-004	...........
	16	4.39167	3.18472E-003	3.00198E-003	5.73366E-004	...........
	17	4.65	3.12184E-003	2.94576E-003	5.67832E-004	...........
	18	4.90833	3.06155E-003	2.89194E-003	5.71232E-004	...........
EOC	QUANT	0.0030615	Open Circuit (V)
PSTATMODEL	IQUANT	4	Pstat Model
PSTATSECTION	LABEL	REF600-11020	Pstat Section
PSTATSERIALNO	LABEL	11020	Pstat Serial Number
CTRLMODE	IQUANT	1	Control Mode
IESTAB	IQUANT	0	I/E Stability
CASPEED	IQUANT	1	Control Amp Speed
CONVENTION	IQUANT	1	Current Convention
ICHRANGE	IQUANT	2	Ich Range
ICHRANGEMODE	TOGGLE	F	Ich Auto Range
ICHOFFSETENABLE	TOGGLE	T	Ich Offset Enable
ICHOFFSET	QUANT	0	Ich Offset (V)
ICHFILTER	IQUANT	3	Ich Filter
VCHRANGE	IQUANT	2	Vch Range
VCHRANGEMODE	TOGGLE	F	Vch Auto Range
VCHOFFSETENABLE	TOGGLE	T	Vch Offset Enable
VCHOFFSET	QUANT	0	Vch Offset (V)
VCHFILTER	IQUANT	3	Vch Filter
ACHRANGE	IQUANT	2	Ach Range
ACHOFFSETENABLE	TOGGLE	F	Ach Offset Enable
ACHOFFSET	QUANT	0	Ach Offset (V)
ACHFILTER	IQUANT	3	Ach Filter
IERANGELOWERLIMIT	IQUANT	1	I/E Range Lower Limit
IERANGEMODE	TOGGLE	F	I/E AutoRange
IERANGE	IQUANT	2	I/E Range
POSFEEDENABLE	TOGGLE	F	Positive Feedback IR Comp
POSFEEDRESISTANCE	QUANT	0	Positive Feedback Resistance (ohm)
ACHSELECT	IQUANT	0	Ach Select
CABLEID	IQUANT	14	Cable ID
DCCALDATE	LABEL	8/19/2019	DC Calibration Date
ACCALDATE	LABEL	8/19/2019	AC Calibration Date
THERMOSELECT	IQUANT	1	Thermo Select
FRAMEWORKVERSION	QUANT	6.33	Framework Version
INSTRUMENTVERSION	LABEL	3.50	Instrument Version
ZCURVE	TABLE
	Pt	Time	Freq	Zreal	Zimag	Zsig	Zmod	Zphz	Idc	Vdc	IERange
	#	s	Hz	ohm	ohm	V	ohm	°	A	V	#
	0	2	1000078	2444.908	-1322.541	1	2779.693	-28.41059	-2.08211E-006	0.0055934	8
	1	3	794390.6	2691.119	-1200.608	1	2946.792	-24.04342	5.854102E-006	0.0038559	8
	2	5	630984.4	2873.106	-1063.911	1	3063.763	-20.31959	-2.834833E-006	0.0051354	8
	3	6	501234.4	3021.846	-926.7461	1	3160.761	-17.04984	-1.012472E-006	0.0050224	8
	4	7	398109.4	3136.835	-796.0961	1	3236.279	-14.24042	2.089611E-006	0.0042728	8
	5	9	316265.6	3219.566	-681.5414	1	3290.912	-11.95234	-7.348083E-008	0.0047827	8
	6	10	251203.1	3284.714	-595.551	1	3338.267	-10.27665	-1.253687E-006	0.0048775	8
	7	11	199546.9	3326.536	-519.7933	1	3366.902	-8.881028	3.924776E-006	0.0038116	8
	8	13	158578.1	3377.373	-450.8981	1	3407.339	-7.604339	-3.556017E-006	0.005316	8
	9	14	125953.1	3418.7	-380.067	1	3439.762	-6.343693	-2.176564E-007	0.0048429	7
	10	15	100078.1	3441.529	-346.4868	1	3458.927	-5.749062	-3.57782E-009	0.0045717	7
	11	17	79453.13	3468.61	-335.2108	1	3484.77	-5.519993	1.321505E-008	0.0045501	7
	12	18	63140.62	3496.627	-330.593	1	3512.221	-5.401045	-4.358328E-008	0.0046604	7
	13	19	50203.12	3525.626	-333.2744	1	3541.343	-5.400075	-6.382666E-008	0.0047892	7
	14	21	39890.62	3555.584	-344.6795	1	3572.251	-5.536972	7.381238E-008	0.0045411	7
	15	22	31640.63	3588.239	-361.4687	1	3606.4	-5.752403	6.345784E-008	0.0044793	7
	16	23	25171.88	3621.443	-387.1251	1	3642.075	-6.101634	8.9788E-008	0.0044722	7
	17	25	20015.62	3658.292	-422.0952	1	3682.562	-6.581707	6.195764E-008	0.0044686	7
	18	26	15890.62	3700.049	-466.7581	1	3729.374	-7.189837	-1.167581E-008	0.0046425	7
	19	27	12609.37	3743.471	-519.8829	1	3779.399	-7.906506	-1.515597E-008	0.0046319	7
	20	29	10078.13	3789.832	-584.0558	1	3834.573	-8.761002	-4.212839E-008	0.0046527	7
	21	30	8015.625	3843.179	-661.9403	1	3899.768	-9.77261	-4.452094E-008	0.0046773	7
	22	31	6328.125	3901.008	-760.1831	1	3974.385	-11.02694	-1.614204E-008	0.0046348	7
	23	33	5015.625	3965.625	-877.0295	1	4061.448	-12.47069	-9.724015E-009	0.0045697	7
	24	34	3984.375	4034.751	-1017.637	1	4161.106	-14.15579	-2.859379E-008	0.0045989	7
	25	35	3170.956	4111.845	-1182.528	1	4278.509	-16.04474	-4.447717E-008	0.0046428	7
	26	37	2527.573	4190.546	-1382.449	1	4412.691	-18.25757	-6.734523E-009	0.0045493	7
	27	38	1976.103	4289.417	-1647.902	1	4595.071	-21.01571	1.248374E-008	0.0045273	7
	28	39	1577.524	4393.754	-1947.978	1	4806.214	-23.91018	-2.429474E-008	0.0045967	7
	29	41	1265.625	4503.633	-2302.289	1	5057.988	-27.07644	1.069127E-008	0.0046693	7
	30	42	998.264	4638.598	-2767.388	1	5401.392	-30.8203	6.800153E-008	0.0045495	7
	31	43	796.875	4783.05	-3310.62	1	5817.024	-34.6893	-2.614656E-008	0.0046073	7
	32	45	627.7902	4960.519	-4015.056	1	6381.804	-38.98679	1.49509E-008	0.0045438	7
	33	46	505.5147	5135.937	-4806.284	1	7034.075	-43.10094	-5.139831E-008	0.0047751	7
	34	47	397.9953	5379.707	-5862.796	1	7956.986	-47.46048	4.35619E-009	0.0046241	7
	35	49	315.5048	5654.931	-7134.558	1	9103.854	-51.59926	4.375845E-009	0.0046235	7
	36	50	252.4038	5972.031	-8630.742	1	10495.47	-55.31875	1.139471E-009	0.004559	6
	37	51	198.6229	6377.517	-10607.37	1	12376.95	-58.98426	1.184808E-009	0.0045548	6
	38	53	158.3615	6842.137	-12907.71	1	14609.03	-62.07276	9.096235E-010	0.0045524	6
	39	54	125.558	7425.544	-15804.05	1	17461.58	-64.83348	1.095402E-009	0.0045575	6
	40	55	100.4464	8123.472	-19230.62	1	20876.01	-67.09965	1.119894E-009	0.0045566	6
	41	57	79.00281	9063.436	-23776.9	1	25445.76	-69.13383	7.681609E-010	0.0045537	6
	42	58	63.3446	10113.19	-28981.77	1	30695.59	-70.76357	5.37962E-010	0.0045539	6
	43	59	49.86702	11635.98	-35589.11	1	37443.04	-71.89468	7.779111E-010	0.0045517	6
	44	61	39.72458	13584.74	-43598.36	1	45665.77	-72.69357	9.627011E-010	0.004557	6
	45	62	31.6723	16130.57	-53187.05	1	55579.3	-73.1285	3.62178E-010	0.0045538	6
	46	64	24.93351	19567.04	-65435.57	1	68298.49	-73.35188	7.604864E-010	0.0045533	6
	47	65	19.86229	23924.64	-79590.3	1	83108.39	-73.26936	5.455945E-010	0.004555	6
	48	66	15.83615	29801.41	-96017.8	1	100536.3	-72.75703	4.122977E-010	0.0045552	6
	49	68	12.40079	37561.91	-117939.2	1	123776.2	-72.33409	6.912966E-010	0.0045614	5
	50	69	9.93114	47594.97	-141414.9	1	149209.4	-71.39869	9.317824E-010	0.0045575	5
	51	71	7.944915	60039.73	-168784.8	1	179145.4	-70.41862	7.685913E-010	0.0045614	5
	52	72	6.317385	76157.2	-201156.7	1	215090.5	-69.26351	6.74629E-010	0.0045552	5
	53	74	5.008013	96923.5	-239590.2	1	258452.4	-67.97476	4.611361E-010	0.0045662	5
	54	77	3.945707	123875.7	-284152	1	309979.9	-66.44527	2.52287E-010	0.0045663	5
	55	79	3.158693	154234.4	-331435.2	1	365564.7	-65.04494	-5.105793E-012	0.0045459	5
	56	83	2.504006	193000.3	-386452.7	1	431966.3	-63.46176	6.161375E-010	0.0045606	5
	57	85	1.998082	237785.2	-445934.3	1	505370.3	-61.93216	3.29919E-010	0.0046006	5
	58	88	1.584686	290628.4	-511738.3	1	588507.4	-60.40672	2.771277E-010	0.0045424	5
	59	92	1.266892	351616.4	-584759.3	1	682332.4	-58.98146	2.195398E-010	0.0046038	5
	60	96	0.999041	423641.5	-667360.9	1	790469.9	-57.59257	7.11313E-011	0.0045179	5
