EXPLAIN
TAG	EISPOT
TITLE	LABEL	Potentiostatic EIS	Test &Identifier
DATE	LABEL	10/20/2019	Date
TIME	LABEL	9:11:13	Time
NOTES	NOTES	1	&Notes...
	
PSTAT	PSTAT	REF600-11020	Potentiostat
VDC	POTEN	0.00000E+000	T	DC &Voltage (V)
FREQINIT	QUANT	1.00000E+006	Initial Fre&q. (Hz)
FREQFINAL	QUANT	1.00000E+000	Final Fre&q. (Hz)
PTSPERDEC	QUANT	1.00000E+001	Points/&decade
VAC	QUANT	2.50000E+001	AC &Voltage (mV rms)
AREA	QUANT	1.00000E-002	&Area (cm^2)
CONDIT	TWOPARAM	T	5.00000E+000	0.00000E+000	Conditionin&g	Time(s)	E(V)
DELAY	TWOPARAM	T	5.00000E+000	0.00000E+000	Init. De&lay	Time(s)	Stab.(mV/s)
SPEED	SELECTOR	1	&Optimize for:
ZGUESS	QUANT	1.00000E+005	E&stimated Z (ohms)
OCVCURVE	TABLE	19
	Pt	T	Vf	Vm	Ach	Over
	#	s	V vs. Ref.	V	V	bits
	0	0.258333	5.05993E-003	5.05993E-003	5.57732E-004	...........
	1	0.516667	5.05871E-003	4.99635E-003	5.59966E-004	...........
	2	0.775	5.05205E-003	4.97773E-003	5.57933E-004	...........
	3	1.03333	5.03615E-003	4.97558E-003	5.64299E-004	...........
	4	1.29167	5.01356E-003	4.94404E-003	5.64332E-004	...........
	5	1.55	4.99018E-003	4.92325E-003	5.64932E-004	...........
	6	1.80833	4.96833E-003	4.90635E-003	5.69499E-004	...........
	7	2.06667	4.94761E-003	4.89768E-003	5.62966E-004	...........
	8	2.325	4.92870E-003	4.89577E-003	5.68099E-004	...........
	9	2.58333	4.91353E-003	4.89698E-003	5.63099E-004	...........
	10	2.84167	4.90361E-003	4.90338E-003	5.63932E-004	...........
	11	3.1	4.89922E-003	4.90929E-003	5.70632E-004	...........
	12	3.35833	4.89956E-003	4.91517E-003	5.67066E-004	...........
	13	3.61667	4.90320E-003	4.92393E-003	5.70166E-004	...........
	14	3.875	4.90887E-003	4.93351E-003	5.71032E-004	...........
	15	4.13333	4.91602E-003	4.94959E-003	5.68432E-004	...........
	16	4.39167	4.92476E-003	4.95910E-003	5.71532E-004	...........
	17	4.65	4.93516E-003	4.97254E-003	5.66766E-004	...........
	18	4.90833	4.94666E-003	4.97898E-003	5.65066E-004	...........
EOC	QUANT	0.0049467	Open Circuit (V)
PSTATMODEL	IQUANT	4	Pstat Model
PSTATSECTION	LABEL	REF600-11020	Pstat Section
PSTATSERIALNO	LABEL	11020	Pstat Serial Number
CTRLMODE	IQUANT	1	Control Mode
IESTAB	IQUANT	0	I/E Stability
CASPEED	IQUANT	1	Control Amp Speed
CONVENTION	IQUANT	1	Current Convention
ICHRANGE	IQUANT	2	Ich Range
ICHRANGEMODE	TOGGLE	F	Ich Auto Range
ICHOFFSETENABLE	TOGGLE	T	Ich Offset Enable
ICHOFFSET	QUANT	0	Ich Offset (V)
ICHFILTER	IQUANT	3	Ich Filter
VCHRANGE	IQUANT	2	Vch Range
VCHRANGEMODE	TOGGLE	F	Vch Auto Range
VCHOFFSETENABLE	TOGGLE	T	Vch Offset Enable
VCHOFFSET	QUANT	0	Vch Offset (V)
VCHFILTER	IQUANT	3	Vch Filter
ACHRANGE	IQUANT	2	Ach Range
ACHOFFSETENABLE	TOGGLE	F	Ach Offset Enable
ACHOFFSET	QUANT	0	Ach Offset (V)
ACHFILTER	IQUANT	3	Ach Filter
IERANGELOWERLIMIT	IQUANT	1	I/E Range Lower Limit
IERANGEMODE	TOGGLE	F	I/E AutoRange
IERANGE	IQUANT	4	I/E Range
POSFEEDENABLE	TOGGLE	F	Positive Feedback IR Comp
POSFEEDRESISTANCE	QUANT	0	Positive Feedback Resistance (ohm)
ACHSELECT	IQUANT	0	Ach Select
CABLEID	IQUANT	14	Cable ID
DCCALDATE	LABEL	8/19/2019	DC Calibration Date
ACCALDATE	LABEL	8/19/2019	AC Calibration Date
THERMOSELECT	IQUANT	1	Thermo Select
FRAMEWORKVERSION	QUANT	6.33	Framework Version
INSTRUMENTVERSION	LABEL	3.50	Instrument Version
ZCURVE	TABLE
	Pt	Time	Freq	Zreal	Zimag	Zsig	Zmod	Zphz	Idc	Vdc	IERange
	#	s	Hz	ohm	ohm	V	ohm	°	A	V	#
	0	2	1000078	2471.998	-1256.932	1	2773.202	-26.95188	-2.107212E-006	0.0076175	8
	1	4	794390.6	2697.82	-1129.773	1	2924.828	-22.7226	-3.83728E-007	0.0074234	8
	2	5	630984.4	2885.928	-1013.615	1	3058.758	-19.35263	-2.157567E-007	0.006792	8
	3	7	501234.4	3029.436	-860.9135	1	3149.39	-15.86424	4.508363E-006	0.0058679	8
	4	8	398109.4	3129.096	-757.9614	1	3219.588	-13.61649	-3.494135E-006	0.0070756	8
	5	9	316265.6	3205.976	-651.7667	1	3271.557	-11.49148	1.038988E-006	0.0065966	8
	6	11	251203.1	3259.677	-557.9623	1	3307.085	-9.71324	-4.022383E-006	0.0072988	8
	7	12	199546.9	3312.442	-489.5367	1	3348.421	-8.406733	1.978887E-006	0.006216	8
	8	14	158578.1	3359.042	-439.2943	1	3387.646	-7.450835	-1.161024E-006	0.0067911	8
	9	15	125953.1	3402.656	-339.8701	1	3419.588	-5.703998	9.141217E-007	0.0044852	7
	10	16	100078.1	3430.068	-317.8301	1	3444.762	-5.29391	4.402551E-008	0.0064132	7
	11	18	79453.13	3455.097	-309.0135	1	3468.888	-5.110764	-3.951713E-008	0.0065543	7
	12	19	63140.62	3482.557	-309.5645	1	3496.289	-5.079671	-5.645326E-009	0.0065626	7
	13	20	50203.12	3511.568	-314.9763	1	3525.666	-5.125531	-9.823991E-009	0.0065953	7
	14	22	39890.62	3541.279	-326.7791	1	3556.324	-5.272161	-6.72412E-008	0.0067714	7
	15	23	31640.63	3573.701	-347.7154	1	3590.578	-5.557295	8.247138E-008	0.0063802	7
	16	24	25171.88	3607.393	-374.5747	1	3626.788	-5.92808	8.340275E-008	0.0063814	7
	17	26	20015.62	3645.575	-408.7871	1	3668.422	-6.397988	-5.890724E-008	0.0067237	7
	18	27	15890.62	3687.277	-453.8021	1	3715.098	-7.016247	-5.202197E-008	0.0065924	7
	19	28	12609.37	3729.348	-506.1549	1	3763.54	-7.729075	-3.198954E-008	0.00656	7
	20	30	10078.13	3775.081	-568.8575	1	3817.7	-8.569285	-3.903425E-008	0.0065667	7
	21	31	8015.625	3820.773	-643.6489	1	3874.609	-9.56229	-5.733673E-008	0.0067218	7
	22	32	6328.125	3879.816	-741.5869	1	3950.054	-10.82098	-4.348252E-009	0.0064988	7
	23	34	5015.625	3936.972	-857.2592	1	4029.224	-12.28417	6.987747E-008	0.0064212	7
	24	35	3984.375	3997.752	-999.384	1	4120.775	-14.03552	-4.004461E-009	0.0064931	7
	25	37	3170.956	4065.275	-1167.27	1	4229.537	-16.02045	-4.643366E-008	0.0066363	7
	26	38	2527.573	4138.708	-1371.809	1	4360.133	-18.33821	8.170561E-008	0.0063761	7
	27	39	1976.103	4222.01	-1650.818	1	4533.274	-21.35565	-4.869181E-008	0.0066464	7
	28	41	1577.524	4307.943	-1958.301	1	4732.158	-24.44555	6.949462E-008	0.0064153	7
	29	42	1265.625	4404.319	-2339.273	1	4987.005	-27.97418	1.291814E-008	0.0064558	7
	30	43	998.264	4519.292	-2840.217	1	5337.68	-32.14793	8.45003E-008	0.0064888	7
	31	45	796.875	4642.478	-3423.62	1	5768.342	-36.40711	-4.135331E-008	0.0065471	7
	32	46	627.7902	4798.359	-4192.351	1	6371.817	-41.14388	-1.596999E-008	0.006671	7
	33	48	505.5147	4964.381	-5052.193	1	7083.06	-45.50228	3.848975E-008	0.0064911	7
	34	49	397.9953	5191.134	-6224.518	1	8105.091	-50.17251	4.037382E-009	0.0065483	7
	35	50	315.5048	5465.32	-7638.384	1	9392.265	-54.416	5.894958E-009	0.0065446	7
	36	52	252.4038	5805.169	-9306.132	1	10968.32	-58.04407	-3.040661E-010	0.0064788	6
	37	53	198.6229	6267.15	-11511.92	1	13107.3	-61.43589	8.681744E-010	0.0064811	6
	38	54	158.3615	6836.08	-14080.17	1	15651.94	-64.10291	1.611269E-009	0.0064842	6
	39	56	125.558	7610.703	-17287.01	1	18888.18	-66.23824	6.840576E-010	0.0064829	6
	40	57	100.4464	8594.951	-21058.01	1	22744.51	-67.79688	-9.413079E-010	0.006482	6
	41	58	79.00281	10025.58	-26004.56	1	27870.23	-68.91679	-4.054869E-011	0.0064837	6
	42	60	63.3446	11298.21	-31117.38	1	33105	-70.04486	-5.299903E-010	0.0064821	6
	43	61	49.86702	14389.95	-38718.25	1	41305.86	-69.61201	1.644428E-009	0.006479	6
	44	63	39.72458	17253.51	-46579.2	1	49671.98	-69.67475	1.363533E-009	0.0064833	6
	45	64	31.6723	21370.7	-56016.31	1	59954.43	-69.11772	4.994719E-010	0.0064825	6
	46	65	24.93351	26819.42	-67777.42	1	72890.74	-68.41137	5.417213E-010	0.0064872	6
	47	67	19.86229	33509.91	-80610.82	1	87298.45	-67.42735	1.893814E-009	0.0064913	6
	48	68	15.83615	42303.59	-94613.84	1	103640.6	-65.9097	9.431864E-010	0.0064821	6
	49	69	12.40079	53057.68	-113354.1	1	125157	-64.91711	1.113056E-009	0.0065	5
	50	71	9.93114	67166.7	-129937.7	1	146270.9	-62.6649	7.255394E-010	0.0064908	5
	51	73	7.944915	82846.16	-148959.7	1	170447.9	-60.91873	-7.198547E-010	0.0064909	5
	52	74	6.317385	101648.4	-170703.9	1	198676.2	-59.22765	3.91264E-010	0.0064771	5
	53	76	5.008013	123045.5	-193956.7	1	229694.2	-57.60908	7.720364E-011	0.006495	5
	54	79	3.945707	147199.3	-220058.3	1	264751.3	-56.22102	-2.804618E-010	0.0064824	5
	55	81	3.158693	171571.6	-246968.9	1	300716.6	-55.21194	3.486708E-010	0.0065046	5
	56	85	2.504006	198783.3	-278872.4	1	342468.4	-54.51832	-3.644668E-010	0.0064901	5
	57	88	1.998082	226433.3	-314342.7	1	387405.9	-54.23332	-3.168273E-011	0.0064572	5
	58	91	1.584686	256236.8	-356969.2	1	439413.6	-54.32876	1.093953E-011	0.006519	5
	59	94	1.266892	287631.7	-408445.1	1	499559.2	-54.84636	-7.557208E-011	0.0064607	5
	60	99	0.999041	325039.6	-473563.7	1	574380.8	-55.53549	2.819391E-010	0.0065259	5
