EXPLAIN
TAG	EISPOT
TITLE	LABEL	Potentiostatic EIS	Test &Identifier
DATE	LABEL	10/10/2019	Date
TIME	LABEL	9:07:14	Time
NOTES	NOTES	1	&Notes...
	
PSTAT	PSTAT	REF600-11020	Potentiostat
VDC	POTEN	0.00000E+000	T	DC &Voltage (V)
FREQINIT	QUANT	1.00000E+006	Initial Fre&q. (Hz)
FREQFINAL	QUANT	1.00000E+000	Final Fre&q. (Hz)
PTSPERDEC	QUANT	1.00000E+001	Points/&decade
VAC	QUANT	2.50000E+001	AC &Voltage (mV rms)
AREA	QUANT	1.00000E-002	&Area (cm^2)
CONDIT	TWOPARAM	T	5.00000E+000	0.00000E+000	Conditionin&g	Time(s)	E(V)
DELAY	TWOPARAM	T	5.00000E+000	0.00000E+000	Init. De&lay	Time(s)	Stab.(mV/s)
SPEED	SELECTOR	1	&Optimize for:
ZGUESS	QUANT	1.00000E+004	E&stimated Z (ohms)
OCVCURVE	TABLE	19
	Pt	T	Vf	Vm	Ach	Over
	#	s	V vs. Ref.	V	V	bits
	0	0.258333	3.08255E-003	3.08255E-003	5.60566E-004	...........
	1	0.516667	3.08055E-003	2.97753E-003	5.60366E-004	...........
	2	0.775	3.06671E-003	2.79877E-003	5.63532E-004	...........
	3	1.03333	3.02393E-003	2.69933E-003	5.54566E-004	...........
	4	1.29167	2.94359E-003	2.60043E-003	5.57399E-004	...........
	5	1.55	2.83647E-003	2.48309E-003	5.61799E-004	...........
	6	1.80833	2.72029E-003	2.36061E-003	5.61499E-004	...........
	7	2.06667	2.60409E-003	2.25158E-003	5.62466E-004	...........
	8	2.325	2.48780E-003	2.08446E-003	5.58866E-004	...........
	9	2.58333	2.36873E-003	2.02158E-003	5.56333E-004	...........
	10	2.84167	2.24871E-003	1.95085E-003	5.64132E-004	...........
	11	3.1	2.13622E-003	1.86480E-003	5.58599E-004	...........
	12	3.35833	2.03761E-003	1.77766E-003	5.64666E-004	...........
	13	3.61667	1.95138E-003	1.75941E-003	5.60799E-004	...........
	14	3.875	1.87519E-003	1.69715E-003	5.57233E-004	...........
	15	4.13333	1.80899E-003	1.61703E-003	5.61199E-004	...........
	16	4.39167	1.74883E-003	1.53463E-003	5.64966E-004	...........
	17	4.65	1.68736E-003	1.49380E-003	5.61599E-004	...........
	18	4.90833	1.62304E-003	1.47300E-003	5.62966E-004	...........
EOC	QUANT	0.001623	Open Circuit (V)
PSTATMODEL	IQUANT	4	Pstat Model
PSTATSECTION	LABEL	REF600-11020	Pstat Section
PSTATSERIALNO	LABEL	11020	Pstat Serial Number
CTRLMODE	IQUANT	1	Control Mode
IESTAB	IQUANT	0	I/E Stability
CASPEED	IQUANT	1	Control Amp Speed
CONVENTION	IQUANT	1	Current Convention
ICHRANGE	IQUANT	2	Ich Range
ICHRANGEMODE	TOGGLE	F	Ich Auto Range
ICHOFFSETENABLE	TOGGLE	T	Ich Offset Enable
ICHOFFSET	QUANT	0	Ich Offset (V)
ICHFILTER	IQUANT	3	Ich Filter
VCHRANGE	IQUANT	2	Vch Range
VCHRANGEMODE	TOGGLE	F	Vch Auto Range
VCHOFFSETENABLE	TOGGLE	T	Vch Offset Enable
VCHOFFSET	QUANT	0	Vch Offset (V)
VCHFILTER	IQUANT	3	Vch Filter
ACHRANGE	IQUANT	2	Ach Range
ACHOFFSETENABLE	TOGGLE	F	Ach Offset Enable
ACHOFFSET	QUANT	0	Ach Offset (V)
ACHFILTER	IQUANT	3	Ach Filter
IERANGELOWERLIMIT	IQUANT	1	I/E Range Lower Limit
IERANGEMODE	TOGGLE	F	I/E AutoRange
IERANGE	IQUANT	5	I/E Range
POSFEEDENABLE	TOGGLE	F	Positive Feedback IR Comp
POSFEEDRESISTANCE	QUANT	0	Positive Feedback Resistance (ohm)
ACHSELECT	IQUANT	0	Ach Select
CABLEID	IQUANT	14	Cable ID
DCCALDATE	LABEL	8/19/2019	DC Calibration Date
ACCALDATE	LABEL	8/19/2019	AC Calibration Date
THERMOSELECT	IQUANT	1	Thermo Select
FRAMEWORKVERSION	QUANT	6.33	Framework Version
INSTRUMENTVERSION	LABEL	3.50	Instrument Version
ZCURVE	TABLE
	Pt	Time	Freq	Zreal	Zimag	Zsig	Zmod	Zphz	Idc	Vdc	IERange
	#	s	Hz	ohm	ohm	V	ohm	°	A	V	#
	0	1	1000078	2837.188	-1204.784	1	3082.392	-23.00803	-1.074884E-006	0.0031383	8
	1	3	794390.6	3026.237	-1087.413	1	3215.677	-19.76481	1.073174E-006	0.0033911	8
	2	4	630984.4	3169.34	-955.661	1	3310.287	-16.7798	7.017307E-007	0.0031323	8
	3	6	501234.4	3281.63	-813.9857	1	3381.075	-13.93067	-3.456201E-006	0.0040138	8
	4	7	398109.4	3396.792	-701.9728	1	3468.568	-11.67624	4.508396E-006	0.0024175	8
	5	9	316265.6	3455.679	-596.2159	1	3506.735	-9.78899	-3.161456E-006	0.003701	8
	6	10	251203.1	3512.2	-506.1831	1	3548.489	-8.201076	-3.163974E-006	0.0036432	8
	7	12	199546.9	3552.632	-430.4517	1	3578.614	-6.908521	3.231449E-006	0.0024046	8
	8	13	158578.1	3580.751	-387.449	1	3601.651	-6.175565	8.053877E-007	0.0029834	8
	9	14	125953.1	3621.727	-283.7808	1	3632.828	-4.480263	7.457451E-007	0.0013058	7
	10	16	100078.1	3645.442	-255.1597	1	3654.361	-4.003839	8.605784E-008	0.0028904	7
	11	17	79453.13	3664.174	-236.1953	1	3671.779	-3.688224	5.156191E-009	0.0031665	7
	12	18	63140.62	3681.761	-223.8618	1	3688.561	-3.479466	-3.730743E-008	0.0031502	7
	13	20	50203.12	3699.14	-216.094	1	3705.446	-3.343269	-6.418298E-008	0.003256	7
	14	21	39890.62	3718.075	-213.7895	1	3724.216	-3.290887	-3.275998E-008	0.0031103	7
	15	22	31640.63	3733.272	-216.4979	1	3739.545	-3.318948	-6.471584E-008	0.0032586	7
	16	24	25171.88	3750.609	-224.2221	1	3757.305	-3.421233	8.651255E-008	0.0028754	7
	17	25	20015.62	3769.636	-238.8157	1	3777.194	-3.624984	-8.414458E-009	0.0031017	7
	18	26	15890.62	3783.989	-261.5923	1	3793.02	-3.954644	-4.117044E-008	0.0031539	7
	19	28	12609.37	3802.319	-289.1306	1	3813.296	-4.348437	-4.071882E-008	0.0030704	7
	20	29	10078.13	3819.371	-327.5865	1	3833.393	-4.902247	-4.967323E-008	0.0031194	7
	21	31	8015.625	3838.888	-382.5031	1	3857.897	-5.690114	-5.024361E-008	0.003121	7
	22	32	6328.125	3861.182	-441.5707	1	3886.35	-6.52409	8.989115E-008	0.0028715	7
	23	33	5015.625	3886.952	-522.9671	1	3921.975	-7.662803	-5.115552E-009	0.0030715	7
	24	35	3984.375	3915.122	-622.6689	1	3964.328	-9.036751	8.591715E-008	0.0028772	7
	25	36	3170.956	3945.798	-741.923	1	4014.944	-10.64891	-3.777935E-008	0.0031523	7
	26	37	2527.573	3984.324	-889.167	1	4082.335	-12.58034	-3.756214E-008	0.0030574	7
	27	39	1976.103	4030.305	-1086.616	1	4174.218	-15.08882	4.554132E-008	0.0029131	7
	28	40	1577.524	4080.407	-1302.17	1	4283.149	-17.69931	4.645398E-008	0.0030077	7
	29	42	1265.625	4137.912	-1574.804	1	4427.451	-20.8358	5.253046E-009	0.0031609	7
	30	43	998.264	4210.422	-1922.246	1	4628.464	-24.53882	-5.45642E-009	0.0031041	7
	31	44	796.875	4288.471	-2332.447	1	4881.73	-28.54123	-3.595413E-008	0.0030601	7
	32	46	627.7902	4390.459	-2864.02	1	5242.017	-33.11754	-2.784487E-008	0.0031046	7
	33	47	505.5147	4492.41	-3461.555	1	5671.341	-37.61548	7.95967E-009	0.0029996	7
	34	48	397.9953	4637.374	-4273.718	1	6306.338	-42.6631	6.826776E-009	0.0030669	7
	35	50	315.5048	4805.446	-5248.864	1	7116.382	-47.52524	6.328475E-009	0.0030643	7
	36	51	252.4038	5006.233	-6403.965	1	8128.539	-51.98385	6.409029E-009	0.0030665	7
	37	53	198.6229	5277.69	-7935.744	1	9530.48	-56.37399	5.83177E-009	0.0030663	7
	38	54	158.3615	5605.568	-9721.72	1	11222.04	-60.03215	1.291978E-009	0.0030063	6
	39	55	125.558	6037.825	-11970.54	1	13407.06	-63.23406	1.197502E-009	0.0030079	6
	40	57	100.4464	6569.702	-14615.41	1	16024.08	-65.79584	1.806602E-009	0.0030017	6
	41	58	79.00281	7297.617	-18122.61	1	19536.74	-68.06633	5.165909E-010	0.0030048	6
	42	59	63.3446	8078.925	-22092.94	1	23523.75	-69.91359	3.432723E-010	0.0030018	6
	43	61	49.86702	9591.68	-27145.26	1	28790.03	-70.53932	-2.229951E-010	0.0030049	6
	44	62	39.72458	11186.47	-33240.65	1	35072.46	-71.40038	1.781169E-009	0.0030104	6
	45	64	31.6723	13321.5	-40539.93	1	42672.57	-71.80938	1.556751E-009	0.0030039	6
	46	65	24.93351	16325.73	-49669.54	1	52283.77	-71.80498	1.343686E-009	0.0030029	6
	47	66	19.86229	20113.87	-60054.8	1	63333.62	-71.48301	1.877661E-009	0.0030005	6
	48	68	15.83615	25406.48	-72069.58	1	76416.71	-70.58106	1.848841E-010	0.0030032	6
	49	69	12.40079	31810.21	-88238.05	1	93796.82	-70.17554	1.158122E-009	0.003007	6
	50	71	9.93114	40349.98	-104589.8	1	112103.3	-68.90376	1.330218E-010	0.0030132	5
	51	72	7.944915	50749.84	-123591.6	1	133605.5	-67.67571	1.991516E-010	0.0030119	5
	52	74	6.317385	63886.12	-145700.2	1	159091.1	-66.32367	6.584992E-011	0.003003	5
	53	76	5.008013	80406.53	-171043.2	1	189000	-64.82202	-2.007867E-010	0.0030059	5
	54	78	3.945707	100901.2	-199780.8	1	223815.6	-63.2035	6.227526E-010	0.0030134	5
	55	81	3.158693	123659.5	-229796	1	260955.7	-61.7141	-1.111484E-010	0.0029947	5
	56	84	2.504006	150850.2	-264000.7	1	304059.5	-60.25632	5.09949E-010	0.0030105	5
	57	87	1.998082	180641.9	-300459.3	1	350581.3	-58.9849	5.835232E-010	0.0030055	5
	58	90	1.584686	216083.5	-342149.1	1	404670.3	-57.72564	6.134918E-011	0.0029594	5
	59	94	1.266892	251445.9	-386349	1	460967	-56.94289	3.962328E-010	0.0029921	5
	60	98	0.999041	293129.7	-441643.5	1	530069.8	-56.42678	-1.938534E-010	0.0030109	5
