EXPLAIN
TAG	EISPOT
TITLE	LABEL	Potentiostatic EIS	Test &Identifier
DATE	LABEL	11/20/2019	Date
TIME	LABEL	10:59:29	Time
NOTES	NOTES	4	&Notes...
	
	
	
	
PSTAT	PSTAT	REF600-11020	Potentiostat
VDC	POTEN	0.00000E+000	T	DC &Voltage (V)
FREQINIT	QUANT	1.00000E+006	Initial Fre&q. (Hz)
FREQFINAL	QUANT	1.00000E+000	Final Fre&q. (Hz)
PTSPERDEC	QUANT	1.00000E+001	Points/&decade
VAC	QUANT	2.50000E+001	AC &Voltage (mV rms)
AREA	QUANT	1.00000E-002	&Area (cm^2)
CONDIT	TWOPARAM	T	5.00000E+000	0.00000E+000	Conditionin&g	Time(s)	E(V)
DELAY	TWOPARAM	T	5.00000E+000	0.00000E+000	Init. De&lay	Time(s)	Stab.(mV/s)
SPEED	SELECTOR	1	&Optimize for:
ZGUESS	QUANT	1.00000E+005	E&stimated Z (ohms)
OCVCURVE	TABLE	19
	Pt	T	Vf	Vm	Ach	Over
	#	s	V vs. Ref.	V	V	bits
	0	0.258333	4.84540E-003	4.84540E-003	5.69632E-004	...........
	1	0.516667	4.84152E-003	4.64247E-003	5.78332E-004	...........
	2	0.775	4.81870E-003	4.50145E-003	5.73766E-004	...........
	3	1.03333	4.75868E-003	4.43350E-003	5.78199E-004	...........
	4	1.29167	4.66448E-003	4.43458E-003	5.84032E-004	...........
	5	1.55	4.56285E-003	4.31843E-003	5.77832E-004	...........
	6	1.80833	4.47351E-003	4.16657E-003	5.76532E-004	...........
	7	2.06667	4.39038E-003	4.08751E-003	5.75132E-004	...........
	8	2.325	4.30006E-003	4.01960E-003	5.77166E-004	...........
	9	2.58333	4.20381E-003	3.95745E-003	5.75599E-004	...........
	10	2.84167	4.11303E-003	3.91673E-003	5.72599E-004	...........
	11	3.1	4.03507E-003	3.83916E-003	5.75032E-004	...........
	12	3.35833	3.96818E-003	3.75933E-003	5.77399E-004	...........
	13	3.61667	3.90541E-003	3.72406E-003	5.71799E-004	...........
	14	3.875	3.84382E-003	3.71994E-003	5.67832E-004	...........
	15	4.13333	3.78948E-003	3.72927E-003	5.73366E-004	...........
	16	4.39167	3.75065E-003	3.69551E-003	5.71132E-004	...........
	17	4.65	3.72642E-003	3.62253E-003	5.68499E-004	...........
	18	4.90833	3.70405E-003	3.53058E-003	5.74432E-004	...........
EOC	QUANT	0.0037041	Open Circuit (V)
PSTATMODEL	IQUANT	4	Pstat Model
PSTATSECTION	LABEL	REF600-11020	Pstat Section
PSTATSERIALNO	LABEL	11020	Pstat Serial Number
CTRLMODE	IQUANT	1	Control Mode
IESTAB	IQUANT	0	I/E Stability
CASPEED	IQUANT	1	Control Amp Speed
CONVENTION	IQUANT	1	Current Convention
ICHRANGE	IQUANT	2	Ich Range
ICHRANGEMODE	TOGGLE	F	Ich Auto Range
ICHOFFSETENABLE	TOGGLE	T	Ich Offset Enable
ICHOFFSET	QUANT	0	Ich Offset (V)
ICHFILTER	IQUANT	3	Ich Filter
VCHRANGE	IQUANT	2	Vch Range
VCHRANGEMODE	TOGGLE	F	Vch Auto Range
VCHOFFSETENABLE	TOGGLE	T	Vch Offset Enable
VCHOFFSET	QUANT	0	Vch Offset (V)
VCHFILTER	IQUANT	3	Vch Filter
ACHRANGE	IQUANT	2	Ach Range
ACHOFFSETENABLE	TOGGLE	F	Ach Offset Enable
ACHOFFSET	QUANT	0	Ach Offset (V)
ACHFILTER	IQUANT	3	Ach Filter
IERANGELOWERLIMIT	IQUANT	1	I/E Range Lower Limit
IERANGEMODE	TOGGLE	F	I/E AutoRange
IERANGE	IQUANT	4	I/E Range
POSFEEDENABLE	TOGGLE	F	Positive Feedback IR Comp
POSFEEDRESISTANCE	QUANT	0	Positive Feedback Resistance (ohm)
ACHSELECT	IQUANT	0	Ach Select
CABLEID	IQUANT	14	Cable ID
DCCALDATE	LABEL	8/19/2019	DC Calibration Date
ACCALDATE	LABEL	8/19/2019	AC Calibration Date
THERMOSELECT	IQUANT	1	Thermo Select
FRAMEWORKVERSION	QUANT	6.33	Framework Version
INSTRUMENTVERSION	LABEL	3.50	Instrument Version
ZCURVE	TABLE
	Pt	Time	Freq	Zreal	Zimag	Zsig	Zmod	Zphz	Idc	Vdc	IERange
	#	s	Hz	ohm	ohm	V	ohm	°	A	V	#
	0	2	1000078	2271.375	-2066.021	1	3070.438	-42.28935	1.050173E-006	0.0065681	8
	1	3	794390.6	2693.34	-2091.166	1	3409.846	-37.82652	-1.961941E-006	0.0061688	8
	2	5	630984.4	3106.354	-2049.073	1	3721.308	-33.41042	-1.244739E-006	0.0053016	8
	3	6	501234.4	3482.314	-1946.925	1	3989.615	-29.2091	-1.984894E-006	0.0055879	8
	4	7	398109.4	3802.306	-1845.5	1	4226.512	-25.89023	5.734039E-006	0.004676	8
	5	9	316265.6	4077.597	-1684.103	1	4411.689	-22.44128	-2.576957E-006	0.0052312	8
	6	10	251203.1	4311.733	-1547.933	1	4581.172	-19.74838	-5.267423E-006	0.0060911	8
	7	11	199546.9	4515.451	-1424.47	1	4734.809	-17.5087	6.366886E-006	0.0046153	8
	8	13	158578.1	4678.485	-1322.604	1	4861.841	-15.78556	-2.219051E-006	0.005208	8
	9	14	125953.1	4870.679	-1174.787	1	5010.353	-13.5605	2.018054E-006	0.0052935	7
	10	16	100078.1	4970.128	-1131.079	1	5097.207	-12.82076	-1.005375E-006	0.0057655	7
	11	17	79453.13	5084.292	-1109.281	1	5203.896	-12.30781	9.775324E-007	0.004583	7
	12	18	63140.62	5200.168	-1103.926	1	5316.051	-11.9852	3.69437E-007	0.0057894	7
	13	20	50203.12	5312.836	-1121.051	1	5429.823	-11.91508	-2.845599E-007	0.0065695	7
	14	21	39890.62	5430.17	-1161.14	1	5552.927	-12.06986	8.038353E-007	0.0050467	7
	15	22	31640.63	5557.595	-1220.776	1	5690.093	-12.38878	8.043854E-007	0.0050459	7
	16	24	25171.88	5681.364	-1298.736	1	5827.917	-12.87633	-6.022501E-007	0.0067929	7
	17	25	20015.62	5825.692	-1407.771	1	5993.372	-13.58502	-8.65514E-007	0.0068759	7
	18	26	15890.62	5977.015	-1533.136	1	6170.512	-14.38651	-6.000919E-007	0.0068019	7
	19	28	12609.37	6138.924	-1686.901	1	6366.477	-15.36495	-2.773035E-007	0.0065598	7
	20	29	10078.13	6324.088	-1867.761	1	6594.136	-16.45402	4.741248E-007	0.0036419	7
	21	31	8015.625	6520.288	-2095.304	1	6848.682	-17.81488	4.741701E-007	0.00364	7
	22	32	6328.125	6754.908	-2352.918	1	7152.972	-19.20462	4.668083E-007	0.0036381	7
	23	34	5015.625	7008.256	-2654.261	1	7494.048	-20.74335	-1.057414E-006	0.0068092	7
	24	35	3984.375	7300.138	-3003.896	1	7894.011	-22.36642	-2.787336E-007	0.006561	7
	25	37	3170.956	7630.036	-3414.326	1	8359.131	-24.10779	7.023284E-008	0.006183	7
	26	38	2527.573	8010.598	-3883.762	1	8902.432	-25.86541	8.107946E-007	0.0050397	7
	27	39	1976.103	8478.785	-4460.009	1	9580.27	-27.74526	-1.012097E-006	0.0057431	7
	28	41	1577.524	8961.977	-5022.672	1	10273.47	-29.26812	-1.178346E-006	0.0066421	7
	29	42	1265.625	9560.12	-5694.001	1	11127.34	-30.77799	7.315457E-008	0.0061823	7
	30	44	998.264	10249.12	-6461.675	1	12116.01	-32.22985	1.705362E-007	0.0027406	6
	31	45	796.875	10946.74	-7264.125	1	13137.68	-33.56776	7.603202E-009	0.0031795	6
	32	46	627.7902	11736.3	-8234.155	1	14336.73	-35.0534	-4.251496E-008	0.0074499	6
	33	48	505.5147	12491.2	-9230.867	1	15531.87	-36.46402	-1.904215E-007	0.0081007	6
	34	49	397.9953	13334.04	-10539.98	1	16996.71	-38.32484	3.515594E-010	0.0052102	6
	35	50	315.5048	14165.91	-12073.99	1	18613.29	-40.44185	7.29427E-010	0.0052151	6
	36	52	252.4038	14973.42	-13883.75	1	20419.64	-42.8375	2.485793E-010	0.0052062	6
	37	53	198.6229	15853.51	-16309.48	1	22744.96	-45.81222	5.197028E-010	0.005203	6
	38	54	158.3615	16738.94	-19191.95	1	25466.11	-48.90553	9.002089E-010	0.0052062	6
	39	56	125.558	17713.8	-22884.79	1	28939.46	-52.25861	4.749656E-010	0.0052043	6
	40	57	100.4464	18813.28	-27312.51	1	33164.93	-55.44033	-1.160071E-010	0.0052126	6
	41	58	79.00281	20136.31	-33213.5	1	38840.8	-58.77287	1.003331E-009	0.005204	6
	42	60	63.3446	21537.66	-39708.43	1	45173.34	-61.52481	9.126954E-010	0.0052011	6
	43	61	49.86702	24097.3	-49345.96	1	54915.42	-63.97218	-5.023287E-010	0.005213	6
	44	63	39.72458	26388.87	-60022.71	1	65567.52	-66.2674	3.415283E-010	0.0052099	6
	45	64	31.6723	29877.07	-72820.96	1	78711.7	-67.69258	-2.2352E-010	0.0052162	6
	46	65	24.93351	34387.92	-89702.85	1	96068.4	-69.02549	7.277344E-012	0.005217	6
	47	67	19.86229	40261.17	-108809.4	1	116019.1	-69.69474	3.521432E-010	0.0052144	5
	48	68	15.83615	48412.18	-131809.9	1	140419.3	-69.83233	-4.633993E-010	0.005216	5
	49	69	12.40079	59218.79	-162432.1	1	172890.3	-69.96938	-5.973753E-010	0.0052213	5
	50	71	9.93114	71841.05	-193996.9	1	206871.8	-69.67937	1.719492E-010	0.0052102	5
	51	72	7.944915	88775.45	-231763.4	1	248184.1	-69.04099	3.71759E-010	0.0052125	5
	52	74	6.317385	110552	-276912.9	1	298165.2	-68.23663	1.501058E-010	0.0052303	5
	53	76	5.008013	138910.7	-329841.4	1	357898.8	-67.1619	2.786995E-010	0.0052237	5
	54	79	3.945707	175980.3	-392325.8	1	429986.7	-65.84106	6.956035E-011	0.0052044	5
	55	81	3.158693	218672.8	-457955.1	1	507484.6	-64.47561	2.6316E-010	0.0052236	5
	56	85	2.504006	273529.9	-535135.2	1	600989.4	-62.92653	-1.2774E-010	0.0052127	5
	57	87	1.998082	337097.5	-616552.1	1	702688.6	-61.33253	-1.4991E-012	0.0051839	5
	58	90	1.584686	414152.8	-705942.3	1	818460.1	-59.60127	3.779544E-011	0.0052458	5
	59	94	1.266892	499885.5	-803232.1	1	946080	-58.10424	8.353897E-012	0.00518	5
	60	98	0.999041	604053.1	-914359.9	1	1095872	-56.55007	2.117551E-010	0.005254	4
