EXPLAIN
TAG	EISPOT
TITLE	LABEL	Potentiostatic EIS	Test &Identifier
DATE	LABEL	11/11/2019	Date
TIME	LABEL	11:02:48	Time
NOTES	NOTES	3	&Notes...
	
	
	
PSTAT	PSTAT	REF600-11020	Potentiostat
VDC	POTEN	0.00000E+000	T	DC &Voltage (V)
FREQINIT	QUANT	1.00000E+006	Initial Fre&q. (Hz)
FREQFINAL	QUANT	1.00000E+000	Final Fre&q. (Hz)
PTSPERDEC	QUANT	1.00000E+001	Points/&decade
VAC	QUANT	2.50000E+001	AC &Voltage (mV rms)
AREA	QUANT	1.00000E-002	&Area (cm^2)
CONDIT	TWOPARAM	T	5.00000E+000	0.00000E+000	Conditionin&g	Time(s)	E(V)
DELAY	TWOPARAM	T	5.00000E+000	0.00000E+000	Init. De&lay	Time(s)	Stab.(mV/s)
SPEED	SELECTOR	1	&Optimize for:
ZGUESS	QUANT	1.00000E+005	E&stimated Z (ohms)
OCVCURVE	TABLE	19
	Pt	T	Vf	Vm	Ach	Over
	#	s	V vs. Ref.	V	V	bits
	0	0.258333	-4.05043E-003	-4.05043E-003	5.44799E-004	...........
	1	0.516667	-4.07091E-003	-5.12286E-003	5.45833E-004	...........
	2	0.775	-4.19901E-003	-6.25952E-003	5.46166E-004	...........
	3	1.03333	-4.56508E-003	-7.14380E-003	5.40666E-004	...........
	4	1.29167	-5.21183E-003	-7.69191E-003	5.48466E-004	...........
	5	1.55	-6.02566E-003	-8.16029E-003	5.47199E-004	...........
	6	1.80833	-6.83308E-003	-8.66197E-003	5.45199E-004	...........
	7	2.06667	-7.53064E-003	-9.13776E-003	5.38333E-004	...........
	8	2.325	-8.11510E-003	-9.66307E-003	5.49766E-004	...........
	9	2.58333	-8.63363E-003	-1.01943E-002	5.51232E-004	...........
	10	2.84167	-9.13216E-003	-1.06887E-002	5.46099E-004	...........
	11	3.1	-9.63218E-003	-1.11169E-002	5.45399E-004	...........
	12	3.35833	-1.01283E-002	-1.14584E-002	5.45533E-004	...........
	13	3.61667	-1.05997E-002	-1.17966E-002	5.47033E-004	...........
	14	3.875	-1.10362E-002	-1.25155E-002	5.49599E-004	...........
	15	4.13333	-1.14612E-002	-1.29101E-002	5.50599E-004	...........
	16	4.39167	-1.19051E-002	-1.31594E-002	5.51033E-004	...........
	17	4.65	-1.23550E-002	-1.34465E-002	5.47999E-004	...........
	18	4.90833	-1.27690E-002	-1.38396E-002	5.54833E-004	...........
EOC	QUANT	-0.012769	Open Circuit (V)
PSTATMODEL	IQUANT	4	Pstat Model
PSTATSECTION	LABEL	REF600-11020	Pstat Section
PSTATSERIALNO	LABEL	11020	Pstat Serial Number
CTRLMODE	IQUANT	1	Control Mode
IESTAB	IQUANT	0	I/E Stability
CASPEED	IQUANT	1	Control Amp Speed
CONVENTION	IQUANT	1	Current Convention
ICHRANGE	IQUANT	2	Ich Range
ICHRANGEMODE	TOGGLE	F	Ich Auto Range
ICHOFFSETENABLE	TOGGLE	T	Ich Offset Enable
ICHOFFSET	QUANT	0	Ich Offset (V)
ICHFILTER	IQUANT	3	Ich Filter
VCHRANGE	IQUANT	2	Vch Range
VCHRANGEMODE	TOGGLE	F	Vch Auto Range
VCHOFFSETENABLE	TOGGLE	T	Vch Offset Enable
VCHOFFSET	QUANT	0	Vch Offset (V)
VCHFILTER	IQUANT	3	Vch Filter
ACHRANGE	IQUANT	2	Ach Range
ACHOFFSETENABLE	TOGGLE	F	Ach Offset Enable
ACHOFFSET	QUANT	0	Ach Offset (V)
ACHFILTER	IQUANT	3	Ach Filter
IERANGELOWERLIMIT	IQUANT	1	I/E Range Lower Limit
IERANGEMODE	TOGGLE	F	I/E AutoRange
IERANGE	IQUANT	5	I/E Range
POSFEEDENABLE	TOGGLE	F	Positive Feedback IR Comp
POSFEEDRESISTANCE	QUANT	0	Positive Feedback Resistance (ohm)
ACHSELECT	IQUANT	0	Ach Select
CABLEID	IQUANT	14	Cable ID
DCCALDATE	LABEL	8/19/2019	DC Calibration Date
ACCALDATE	LABEL	8/19/2019	AC Calibration Date
THERMOSELECT	IQUANT	1	Thermo Select
FRAMEWORKVERSION	QUANT	6.33	Framework Version
INSTRUMENTVERSION	LABEL	3.50	Instrument Version
ZCURVE	TABLE
	Pt	Time	Freq	Zreal	Zimag	Zsig	Zmod	Zphz	Idc	Vdc	IERange
	#	s	Hz	ohm	ohm	V	ohm	°	A	V	#
	0	1	1000078	2527.801	-1733.023	1	3064.824	-34.43396	1.845681E-006	-0.0109549	8
	1	2	794390.6	2864.146	-1689.992	1	3325.569	-30.54277	-1.059594E-006	-0.0103476	8
	2	4	630984.4	3176.117	-1600.906	1	3556.771	-26.75016	2.233003E-006	-0.0107466	8
	3	5	501234.4	3452.828	-1480.979	1	3757.036	-23.21535	1.581154E-006	-0.0115745	8
	4	6	398109.4	3684.871	-1348.593	1	3923.898	-20.10167	5.342049E-006	-0.0118617	8
	5	8	316265.6	3887.728	-1207.701	1	4070.992	-17.25712	-6.186486E-007	-0.0108148	8
	6	9	251203.1	4042.768	-1071.757	1	4182.42	-14.84783	-3.991373E-006	-0.010931	8
	7	10	199546.9	4167.797	-940.2311	1	4272.536	-12.71279	3.595411E-006	-0.0112842	8
	8	12	158578.1	4258.764	-843.6451	1	4341.521	-11.20501	3.420988E-006	-0.0112823	8
	9	13	125953.1	4385.43	-670.9778	1	4436.463	-8.698886	1.086838E-006	-0.0098703	7
	10	15	100078.1	4425.239	-614.3275	1	4467.677	-7.90349	1.008926E-006	-0.0126244	7
	11	16	79453.13	4468.627	-574.9417	1	4505.462	-7.331501	-2.74757E-007	-0.010024	7
	12	17	63140.62	4513.244	-548.6447	1	4546.469	-6.931054	-6.68434E-007	-0.0114414	7
	13	19	50203.12	4555.502	-537.3397	1	4587.083	-6.727182	-1.125304E-006	-0.0102887	7
	14	20	39890.62	4599.143	-541.4116	1	4630.9	-6.713965	-9.638634E-007	-0.0108147	7
	15	21	31640.63	4644.487	-559.25	1	4678.036	-6.866019	-1.014622E-006	-0.0097911	7
	16	23	25171.88	4702.73	-593.2524	1	4740.002	-7.189919	9.164694E-007	-0.012857	7
	17	24	20015.62	4756.587	-636.5447	1	4798.99	-7.622255	-2.77523E-007	-0.0120886	7
	18	25	15890.62	4814.568	-696.5132	1	4864.688	-8.231748	1.023104E-006	-0.012342	7
	19	27	12609.37	4868.061	-769.0591	1	4928.435	-8.977425	-2.74946E-007	-0.0120943	7
	20	28	10078.13	4936.088	-857.2978	1	5009.983	-9.85282	-8.298763E-007	-0.0097397	7
	21	30	8015.625	5004.468	-973.233	1	5098.224	-11.00511	-1.011603E-006	-0.0097987	7
	22	31	6328.125	5094.821	-1096.339	1	5211.445	-12.14412	-1.123573E-006	-0.0102969	7
	23	32	5015.625	5182.43	-1256.2	1	5332.506	-13.62546	-1.122347E-006	-0.0102989	7
	24	34	3984.375	5293.898	-1457.681	1	5490.919	-15.39496	7.28736E-007	-0.0129427	7
	25	35	3170.956	5381.689	-1680.981	1	5638.109	-17.3463	-2.750523E-007	-0.0120939	7
	26	36	2527.573	5496.953	-1965.554	1	5837.799	-19.6756	1.021149E-006	-0.0123414	7
	27	38	1976.103	5620.704	-2340.826	1	6088.66	-22.61001	-6.669057E-007	-0.0114525	7
	28	39	1577.524	5752.745	-2790.571	1	6393.853	-25.87734	-1.126112E-006	-0.0099659	7
	29	41	1265.625	5906.84	-3279.934	1	6756.384	-29.04242	4.571677E-007	-0.0128431	7
	30	42	998.264	6092.443	-3948.649	1	7260.144	-32.94818	7.738732E-007	-0.0114914	7
	31	43	796.875	6289.809	-4718.635	1	7863.028	-36.87735	-6.708166E-007	-0.0114539	7
	32	45	627.7902	6531.382	-5731.042	1	8689.292	-41.26574	5.638646E-007	-0.0110923	7
	33	46	505.5147	6792.063	-6831.494	1	9633.35	-45.16583	-1.119345E-006	-0.0102927	7
	34	48	397.9953	7107.443	-8362.712	1	10975	-49.63889	5.814498E-009	-0.011269	7
	35	49	315.5048	7479.901	-10186.83	1	12638.05	-53.71121	1.358394E-009	-0.0113227	6
	36	50	252.4038	7897.74	-12348.66	1	14658.23	-57.39854	1.37296E-009	-0.0113286	6
	37	52	198.6229	8449.177	-15218.16	1	17406.35	-60.96081	9.816923E-010	-0.0113283	6
	38	53	158.3615	9097.674	-18571.21	1	20679.88	-63.90066	1.098683E-009	-0.0113412	6
	39	54	125.558	9936.13	-22807.47	1	24877.85	-66.45953	1.305995E-009	-0.0113352	6
	40	56	100.4464	10948.85	-27794.11	1	29872.9	-68.49918	9.073363E-010	-0.0113305	6
	41	57	79.00281	12392.49	-34374.64	1	36540.25	-70.17513	6.222911E-010	-0.0113342	6
	42	59	63.3446	14221.01	-41590	1	43954.13	-71.12273	8.367456E-010	-0.0113366	6
	43	60	49.86702	16879.32	-51869.01	1	54546.36	-71.97396	5.513194E-010	-0.0113322	6
	44	61	39.72458	19964.12	-63166.52	1	66246.33	-72.46058	1.134402E-009	-0.0113317	6
	45	63	31.6723	24107.96	-76698.83	1	80398.41	-72.55103	8.431331E-010	-0.0113352	6
	46	64	24.93351	30347	-94209.69	1	98976.8	-72.14512	9.159544E-010	-0.0113366	6
	47	66	19.86229	38061.97	-113778.6	1	119976.1	-71.50353	2.876875E-010	-0.0113281	5
	48	67	15.83615	48081.79	-136213.1	1	144450.2	-70.5575	7.602025E-010	-0.011323	5
	49	68	12.40079	62461.79	-165406.3	1	176807	-69.31213	5.853502E-010	-0.0113339	5
	50	70	9.93114	80701.77	-195178.9	1	211205	-67.53608	1.040655E-009	-0.0113352	5
	51	71	7.944915	102564.4	-229433.1	1	251314.6	-65.91373	2.211811E-010	-0.0113318	5
	52	73	6.317385	129923.4	-266743.7	1	296702.3	-64.03059	7.650901E-010	-0.0113425	5
	53	75	5.008013	163425.7	-308689.2	1	349280.7	-62.10244	7.964272E-010	-0.0113292	5
	54	78	3.945707	204176	-354859.5	1	409405.8	-60.08511	3.292659E-010	-0.011339	5
	55	80	3.158693	246678.3	-401002.4	1	470800.5	-58.40207	4.72009E-010	-0.0113262	5
	56	84	2.504006	295618.5	-453954	1	541723.7	-56.9275	4.659309E-010	-0.0113388	5
	57	86	1.998082	346960	-510019.1	1	616847.4	-55.77301	1.962468E-010	-0.0112962	5
	58	90	1.584686	402886.7	-576713.9	1	703503.1	-55.06223	5.121775E-010	-0.0113161	5
	59	93	1.266892	464205.8	-649190.4	1	798082.2	-54.4332	3.031316E-010	-0.0112897	5
	60	98	0.999041	533381.8	-739750.3	1	911990.4	-54.20728	3.441803E-010	-0.0113678	5
