EXPLAIN
TAG	EISPOT
TITLE	LABEL	Potentiostatic EIS	Test &Identifier
DATE	LABEL	10/8/2019	Date
TIME	LABEL	10:33:56	Time
NOTES	NOTES	2	&Notes...
	
	
PSTAT	PSTAT	REF600-11020	Potentiostat
VDC	POTEN	0.00000E+000	T	DC &Voltage (V)
FREQINIT	QUANT	1.00000E+006	Initial Fre&q. (Hz)
FREQFINAL	QUANT	1.00000E+000	Final Fre&q. (Hz)
PTSPERDEC	QUANT	1.00000E+001	Points/&decade
VAC	QUANT	2.50000E+001	AC &Voltage (mV rms)
AREA	QUANT	1.00000E-002	&Area (cm^2)
CONDIT	TWOPARAM	T	5.00000E+000	0.00000E+000	Conditionin&g	Time(s)	E(V)
DELAY	TWOPARAM	T	5.00000E+000	0.00000E+000	Init. De&lay	Time(s)	Stab.(mV/s)
SPEED	SELECTOR	1	&Optimize for:
ZGUESS	QUANT	1.00000E+004	E&stimated Z (ohms)
OCVCURVE	TABLE	19
	Pt	T	Vf	Vm	Ach	Over
	#	s	V vs. Ref.	V	V	bits
	0	0.258333	6.78595E-003	6.78595E-003	5.48866E-004	...........
	1	0.516667	6.78652E-003	6.81577E-003	5.52466E-004	...........
	2	0.775	6.78766E-003	6.72090E-003	5.55533E-004	...........
	3	1.03333	6.77914E-003	6.42319E-003	5.52532E-004	...........
	4	1.29167	6.73343E-003	6.23739E-003	5.46133E-004	...........
	5	1.55	6.62627E-003	6.05920E-003	5.50733E-004	...........
	6	1.80833	6.46531E-003	5.95258E-003	5.48133E-004	...........
	7	2.06667	6.28425E-003	5.80847E-003	5.47533E-004	...........
	8	2.325	6.11400E-003	5.74879E-003	5.49699E-004	...........
	9	2.58333	5.96748E-003	5.59207E-003	5.48599E-004	...........
	10	2.84167	5.84192E-003	5.50580E-003	5.49366E-004	...........
	11	3.1	5.73025E-003	5.52535E-003	5.48299E-004	...........
	12	3.35833	5.63670E-003	5.59497E-003	5.53399E-004	...........
	13	3.61667	5.57907E-003	5.69945E-003	5.51333E-004	...........
	14	3.875	5.56973E-003	5.67277E-003	5.50633E-004	...........
	15	4.13333	5.59814E-003	5.69257E-003	5.50033E-004	...........
	16	4.39167	5.63706E-003	5.65782E-003	5.47299E-004	...........
	17	4.65	5.66315E-003	5.60841E-003	5.50099E-004	...........
	18	4.90833	5.66460E-003	5.46650E-003	5.45033E-004	...........
EOC	QUANT	0.0056646	Open Circuit (V)
PSTATMODEL	IQUANT	4	Pstat Model
PSTATSECTION	LABEL	REF600-11020	Pstat Section
PSTATSERIALNO	LABEL	11020	Pstat Serial Number
CTRLMODE	IQUANT	1	Control Mode
IESTAB	IQUANT	0	I/E Stability
CASPEED	IQUANT	1	Control Amp Speed
CONVENTION	IQUANT	1	Current Convention
ICHRANGE	IQUANT	2	Ich Range
ICHRANGEMODE	TOGGLE	F	Ich Auto Range
ICHOFFSETENABLE	TOGGLE	T	Ich Offset Enable
ICHOFFSET	QUANT	0	Ich Offset (V)
ICHFILTER	IQUANT	3	Ich Filter
VCHRANGE	IQUANT	2	Vch Range
VCHRANGEMODE	TOGGLE	F	Vch Auto Range
VCHOFFSETENABLE	TOGGLE	T	Vch Offset Enable
VCHOFFSET	QUANT	0	Vch Offset (V)
VCHFILTER	IQUANT	3	Vch Filter
ACHRANGE	IQUANT	2	Ach Range
ACHOFFSETENABLE	TOGGLE	F	Ach Offset Enable
ACHOFFSET	QUANT	0	Ach Offset (V)
ACHFILTER	IQUANT	3	Ach Filter
IERANGELOWERLIMIT	IQUANT	1	I/E Range Lower Limit
IERANGEMODE	TOGGLE	F	I/E AutoRange
IERANGE	IQUANT	6	I/E Range
POSFEEDENABLE	TOGGLE	F	Positive Feedback IR Comp
POSFEEDRESISTANCE	QUANT	0	Positive Feedback Resistance (ohm)
ACHSELECT	IQUANT	0	Ach Select
CABLEID	IQUANT	14	Cable ID
DCCALDATE	LABEL	8/19/2019	DC Calibration Date
ACCALDATE	LABEL	8/19/2019	AC Calibration Date
THERMOSELECT	IQUANT	1	Thermo Select
FRAMEWORKVERSION	QUANT	6.33	Framework Version
INSTRUMENTVERSION	LABEL	3.50	Instrument Version
ZCURVE	TABLE
	Pt	Time	Freq	Zreal	Zimag	Zsig	Zmod	Zphz	Idc	Vdc	IERange
	#	s	Hz	ohm	ohm	V	ohm	°	A	V	#
	0	2	1000078	2611.82	-1836.632	1	3192.933	-35.11489	4.993085E-006	0.0070678	8
	1	4	794390.6	2970.684	-1762.976	1	3454.424	-30.68735	3.738539E-006	0.0068328	8
	2	5	630984.4	3298.812	-1642.138	1	3684.939	-26.46397	-1.587994E-006	0.0076439	8
	3	6	501234.4	3573.715	-1511.006	1	3880.023	-22.91918	3.506372E-007	0.0075443	8
	4	8	398109.4	3824.789	-1346.708	1	4054.952	-19.39716	1.364997E-006	0.0068994	8
	5	9	316265.6	3973.363	-1195.339	1	4149.271	-16.74329	-1.383609E-006	0.007659	8
	6	11	251203.1	4112.143	-1064.376	1	4247.66	-14.5118	1.60193E-007	0.0074361	8
	7	12	199546.9	4238.332	-936.139	1	4340.485	-12.4552	9.029558E-007	0.0070972	8
	8	13	158578.1	4332.619	-852.7899	1	4415.749	-11.13519	-2.466514E-006	0.0078449	8
	9	15	125953.1	4445.525	-722.7405	1	4503.893	-9.234188	-6.564732E-007	0.0093124	7
	10	16	100078.1	4493.991	-680.6392	1	4545.242	-8.612302	-3.491493E-008	0.0073195	7
	11	18	79453.13	4554.69	-653.6953	1	4601.36	-8.167395	-3.789814E-008	0.0073211	7
	12	19	63140.62	4616.944	-646.4841	1	4661.986	-7.970972	4.81933E-008	0.0072519	7
	13	20	50203.12	4676.393	-650.4827	1	4721.417	-7.918986	6.714586E-008	0.0071988	7
	14	22	39890.62	4738.179	-665.9188	1	4784.745	-8.000133	-3.491649E-008	0.0073104	7
	15	23	31640.63	4806.676	-699.1763	1	4857.26	-8.276166	4.741972E-008	0.0072551	7
	16	24	25171.88	4876.582	-745.7552	1	4933.274	-8.694643	-2.887661E-008	0.0073789	7
	17	26	20015.62	4958.317	-800.9241	1	5022.588	-9.175811	-4.045161E-008	0.0073842	7
	18	27	15890.62	5039.697	-880.6414	1	5116.061	-9.91184	-2.044732E-008	0.007273	7
	19	29	12609.37	5131.683	-972.971	1	5223.107	-10.73589	-9.434491E-008	0.0074593	7
	20	30	10078.13	5234.808	-1080.591	1	5345.175	-11.66341	-7.270131E-008	0.0075154	7
	21	31	8015.625	5347.069	-1205.375	1	5481.248	-12.70368	7.06307E-008	0.0071945	7
	22	33	6328.125	5485.407	-1365.363	1	5652.778	-13.97736	-3.401324E-008	0.0073075	7
	23	34	5015.625	5634.033	-1546.047	1	5842.31	-15.34493	-9.086318E-008	0.0074506	7
	24	35	3984.375	5810.681	-1746.895	1	6067.59	-16.73263	9.065531E-008	0.0071136	7
	25	37	3170.956	5990.274	-1979.054	1	6308.727	-18.28241	1.089522E-007	0.0072202	7
	26	38	2527.573	6195.173	-2245.983	1	6589.735	-19.92748	-8.333653E-009	0.0074503	7
	27	39	1976.103	6441.589	-2569.404	1	6935.122	-21.74594	-2.344464E-008	0.0072695	7
	28	41	1577.524	6688.161	-2904.448	1	7291.592	-23.47372	-6.580167E-008	0.0075057	7
	29	42	1265.625	6946.567	-3305.13	1	7692.768	-25.44479	-1.784903E-008	0.0072704	7
	30	43	998.264	7239.025	-3806.569	1	8178.841	-27.73719	-2.457603E-008	0.0073708	7
	31	45	796.875	7532.464	-4364.436	1	8705.534	-30.08872	4.725736E-008	0.0071475	7
	32	46	627.7902	7855.328	-5098.035	1	9364.621	-32.9832	8.66359E-009	0.0072281	7
	33	47	505.5147	8159.125	-5901.032	1	10069.43	-35.87608	4.022783E-009	0.007111	6
	34	49	397.9953	8510.283	-7006.575	1	11023.48	-39.46486	8.899438E-010	0.0072647	6
	35	50	315.5048	8875.326	-8347.847	1	12184.33	-43.2458	9.642808E-010	0.0072597	6
	36	52	252.4038	9259.333	-9950.47	1	13592.17	-47.06053	-6.902645E-012	0.0072603	6
	37	53	198.6229	9734.53	-12098.78	1	15528.73	-51.18028	5.072241E-010	0.007259	6
	38	54	158.3615	10269.37	-14635.68	1	17879.12	-54.94392	-3.582358E-011	0.0072563	6
	39	56	125.558	10936.06	-17853.43	1	20936.63	-58.51058	6.916924E-010	0.0072578	6
	40	57	100.4464	11740.49	-21677.7	1	24652.82	-61.56034	-2.711434E-010	0.00726	6
	41	58	79.00281	12841.94	-26747.41	1	29670.51	-64.35345	8.003631E-011	0.0072559	6
	42	60	63.3446	14324.73	-32220.52	1	35261.3	-66.03082	6.614138E-010	0.0072566	6
	43	61	49.86702	16208.34	-40113.05	1	43263.93	-67.99802	6.462529E-010	0.0072574	6
	44	63	39.72458	18527.42	-48684.94	1	52091.16	-69.1653	2.565572E-010	0.0072577	6
	45	64	31.6723	21554.4	-59111.91	1	62919.07	-69.96626	3.820467E-010	0.007259	6
	46	65	24.93351	25836.02	-72253.74	1	76733.98	-70.3243	1.493568E-010	0.0072543	6
	47	67	19.86229	31145.23	-87377.34	1	92762.2	-70.38164	5.30203E-010	0.0072599	6
	48	68	15.83615	37184.79	-105560.5	1	111918.4	-70.59466	-7.037151E-010	0.0072599	5
	49	69	12.40079	46310.64	-127832.2	1	135962.3	-70.08572	9.239243E-011	0.0072672	5
	50	71	9.93114	56957.55	-151637.3	1	161981.6	-69.41297	-1.083744E-010	0.0072607	5
	51	72	7.944915	69787.82	-179998.3	1	193053.7	-68.80801	2.816515E-010	0.0072612	5
	52	74	6.317385	85311.19	-213552.7	1	229962.5	-68.22401	3.552142E-010	0.0072718	5
	53	76	5.008013	104308	-253729.7	1	274333.6	-67.6525	3.417917E-010	0.0072739	5
	54	79	3.945707	127438.1	-301678.5	1	327491	-67.09933	-4.594474E-011	0.0072572	5
	55	81	3.158693	153302.9	-354458.3	1	386189.7	-66.61156	1.697762E-010	0.0072638	5
	56	85	2.504006	185165.5	-418610.4	1	457734.6	-66.13857	-1.103011E-011	0.007264	5
	57	87	1.998082	220941.9	-490826	1	538261.6	-65.76544	2.000393E-010	0.0072173	5
	58	90	1.584686	263028.7	-580800.3	1	637583.8	-65.63552	6.472543E-011	0.0072391	5
	59	94	1.266892	315477.2	-681160.9	1	750670.4	-65.14896	9.109023E-011	0.0072153	5
	60	98	0.999041	378247.5	-807443.9	1	891648.4	-64.89924	1.374011E-011	0.007284	5
