EXPLAIN
TAG	EISPOT
TITLE	LABEL	Potentiostatic EIS	Test &Identifier
DATE	LABEL	10/26/2019	Date
TIME	LABEL	9:59:43	Time
NOTES	NOTES	1	&Notes...
	
PSTAT	PSTAT	REF600-11020	Potentiostat
VDC	POTEN	0.00000E+000	T	DC &Voltage (V)
FREQINIT	QUANT	1.00000E+006	Initial Fre&q. (Hz)
FREQFINAL	QUANT	1.00000E+000	Final Fre&q. (Hz)
PTSPERDEC	QUANT	1.00000E+001	Points/&decade
VAC	QUANT	2.50000E+001	AC &Voltage (mV rms)
AREA	QUANT	1.00000E-002	&Area (cm^2)
CONDIT	TWOPARAM	T	5.00000E+000	0.00000E+000	Conditionin&g	Time(s)	E(V)
DELAY	TWOPARAM	T	5.00000E+000	0.00000E+000	Init. De&lay	Time(s)	Stab.(mV/s)
SPEED	SELECTOR	0	&Optimize for:
ZGUESS	QUANT	1.00000E+005	E&stimated Z (ohms)
OCVCURVE	TABLE	19
	Pt	T	Vf	Vm	Ach	Over
	#	s	V vs. Ref.	V	V	bits
	0	0.258333	8.22136E-003	8.22136E-003	5.58766E-004	...........
	1	0.516667	8.22411E-003	8.36532E-003	5.53199E-004	...........
	2	0.775	8.24117E-003	8.51042E-003	5.53032E-004	...........
	3	1.03333	8.29016E-003	8.66067E-003	5.59699E-004	...........
	4	1.29167	8.37989E-003	8.80898E-003	5.55733E-004	...........
	5	1.55	8.50304E-003	8.95635E-003	5.54099E-004	...........
	6	1.80833	8.64484E-003	9.10060E-003	5.53833E-004	...........
	7	2.06667	8.79318E-003	9.24510E-003	5.58199E-004	...........
	8	2.325	8.94163E-003	9.38559E-003	5.60566E-004	...........
	9	2.58333	9.08797E-003	9.52587E-003	5.64699E-004	...........
	10	2.84167	9.23187E-003	9.66108E-003	5.55733E-004	...........
	11	3.1	9.37333E-003	9.79379E-003	5.57466E-004	...........
	12	3.35833	9.51216E-003	9.92145E-003	5.57466E-004	...........
	13	3.61667	9.64801E-003	1.00504E-002	5.54199E-004	...........
	14	3.875	9.78069E-003	1.01695E-002	5.58299E-004	...........
	15	4.13333	9.91018E-003	1.02940E-002	5.60132E-004	...........
	16	4.39167	1.00367E-002	1.04117E-002	5.53599E-004	...........
	17	4.65	1.01605E-002	1.05306E-002	5.54833E-004	...........
	18	4.90833	1.02821E-002	1.06430E-002	5.55266E-004	...........
EOC	QUANT	0.0102821	Open Circuit (V)
PSTATMODEL	IQUANT	4	Pstat Model
PSTATSECTION	LABEL	REF600-11020	Pstat Section
PSTATSERIALNO	LABEL	11020	Pstat Serial Number
CTRLMODE	IQUANT	1	Control Mode
IESTAB	IQUANT	0	I/E Stability
CASPEED	IQUANT	1	Control Amp Speed
CONVENTION	IQUANT	1	Current Convention
ICHRANGE	IQUANT	2	Ich Range
ICHRANGEMODE	TOGGLE	F	Ich Auto Range
ICHOFFSETENABLE	TOGGLE	T	Ich Offset Enable
ICHOFFSET	QUANT	0	Ich Offset (V)
ICHFILTER	IQUANT	3	Ich Filter
VCHRANGE	IQUANT	2	Vch Range
VCHRANGEMODE	TOGGLE	F	Vch Auto Range
VCHOFFSETENABLE	TOGGLE	T	Vch Offset Enable
VCHOFFSET	QUANT	0	Vch Offset (V)
VCHFILTER	IQUANT	3	Vch Filter
ACHRANGE	IQUANT	2	Ach Range
ACHOFFSETENABLE	TOGGLE	F	Ach Offset Enable
ACHOFFSET	QUANT	0	Ach Offset (V)
ACHFILTER	IQUANT	3	Ach Filter
IERANGELOWERLIMIT	IQUANT	1	I/E Range Lower Limit
IERANGEMODE	TOGGLE	F	I/E AutoRange
IERANGE	IQUANT	5	I/E Range
POSFEEDENABLE	TOGGLE	F	Positive Feedback IR Comp
POSFEEDRESISTANCE	QUANT	0	Positive Feedback Resistance (ohm)
ACHSELECT	IQUANT	0	Ach Select
CABLEID	IQUANT	14	Cable ID
DCCALDATE	LABEL	8/19/2019	DC Calibration Date
ACCALDATE	LABEL	8/19/2019	AC Calibration Date
THERMOSELECT	IQUANT	1	Thermo Select
FRAMEWORKVERSION	QUANT	6.33	Framework Version
INSTRUMENTVERSION	LABEL	3.50	Instrument Version
ZCURVE	TABLE
	Pt	Time	Freq	Zreal	Zimag	Zsig	Zmod	Zphz	Idc	Vdc	IERange
	#	s	Hz	ohm	ohm	V	ohm	°	A	V	#
	0	2	1000078	2177.347	-1075.75	1	2428.595	-26.29235	3.470835E-007	0.0120842	8
	1	2	794390.6	2365	-964.978	1	2554.292	-22.19666	-4.111079E-006	0.0128226	8
	2	2	630984.4	2512.289	-839.3475	1	2648.792	-18.4743	-2.754681E-006	0.0126375	8
	3	3	501234.4	2617.174	-737.5637	1	2719.118	-15.73873	3.774994E-006	0.0113611	8
	4	3	398109.4	2702.322	-620.7524	1	2772.702	-12.93703	-2.17001E-006	0.012232	8
	5	3	316265.6	2762.417	-533.3734	1	2813.438	-10.92831	-2.775631E-007	0.0117292	8
	6	4	251203.1	2809.522	-455.1313	1	2846.148	-9.20175	7.151497E-007	0.0116169	8
	7	4	199546.9	2843.373	-399.0661	1	2871.24	-7.989253	-1.188043E-006	0.012089	8
	8	4	158578.1	2873.767	-347.2006	1	2894.665	-6.888928	-1.773107E-007	0.011807	8
	9	5	125953.1	2915.046	-271.235	1	2927.637	-5.31587	3.276154E-007	0.0116516	7
	10	5	100078.1	2928.267	-255.7561	1	2939.415	-4.991571	4.574451E-008	0.0117192	7
	11	5	79453.13	2947.417	-245.6797	1	2957.639	-4.76483	-1.155629E-009	0.0117869	7
	12	6	63140.62	2967.672	-243.5571	1	2977.649	-4.691755	-1.410114E-008	0.0118318	7
	13	6	50203.12	2988.637	-245.3946	1	2998.695	-4.69398	-6.052937E-008	0.0118619	7
	14	6	39890.62	3010.479	-252.3511	1	3021.037	-4.791574	-6.011368E-008	0.0118641	7
	15	6	31640.63	3032.195	-265.4487	1	3043.792	-5.003114	2.731073E-008	0.011758	7
	16	7	25171.88	3055.931	-285.1439	1	3069.205	-5.33074	-5.9412E-008	0.01186	7
	17	7	20015.62	3084.378	-312.4161	1	3100.16	-5.783754	1.941661E-009	0.0118645	7
	18	7	15890.62	3105.067	-343.8289	1	3124.046	-6.318709	4.682279E-008	0.0117051	7
	19	8	12609.37	3132.18	-386.5535	1	3155.943	-7.035501	-5.776961E-008	0.0118567	7
	20	8	10078.13	3159.918	-438.8844	1	3190.251	-7.907285	4.602422E-008	0.0116982	7
	21	8	8015.625	3185.392	-505.2521	1	3225.214	-9.012906	-5.22673E-008	0.0118718	7
	22	9	6328.125	3221.183	-592.0514	1	3275.141	-10.41469	1.313444E-009	0.0117677	7
	23	9	5015.625	3256.405	-696.1011	1	3329.974	-12.06616	-2.754828E-008	0.0117795	7
	24	9	3984.375	3292.948	-824.0356	1	3394.487	-14.04932	4.58836E-008	0.0116953	7
	25	10	3170.956	3338.457	-986.243	1	3481.087	-16.45813	-6.459477E-009	0.0117596	7
	26	10	2527.573	3387.981	-1181.287	1	3588.016	-19.22212	-5.114059E-008	0.0118657	7
	27	10	1976.103	3449.369	-1442.194	1	3738.726	-22.68999	-2.801556E-008	0.0117715	7
	28	11	1577.524	3503.915	-1739.253	1	3911.831	-26.39862	1.738494E-009	0.0117615	7
	29	11	1265.625	3590.686	-2091.368	1	4155.339	-30.21834	-7.708093E-009	0.0117422	7
	30	11	998.264	3685.504	-2556.903	1	4485.609	-34.75187	-2.590189E-008	0.0117758	7
	31	12	796.875	3792.18	-3103.64	1	4900.328	-39.29798	-6.553248E-009	0.0117395	7
	32	12	627.7902	3920.96	-3817.959	1	5472.727	-44.23747	-1.35304E-008	0.0117987	7
	33	12	505.5147	4073.667	-4614.495	1	6155.349	-48.562	9.376044E-008	0.0116363	7
	34	13	397.9953	4269.415	-5699.752	1	7121.452	-53.16486	2.728543E-009	0.0118012	7
	35	13	315.5048	4513.062	-7005.872	1	8333.665	-57.21106	1.774107E-009	0.0118001	7
	36	13	252.4038	4808.11	-8550.147	1	9809.33	-60.64911	1.33722E-009	0.0117976	7
	37	14	198.6229	5218.208	-10591.2	1	11806.91	-63.77085	6.611023E-011	0.0117385	6
	38	14	158.3615	5725.125	-12965.78	1	14173.51	-66.17583	9.739116E-010	0.0117376	6
	39	14	125.558	6403.962	-15943.62	1	17181.67	-68.1165	6.135701E-010	0.0117391	6
	40	14	100.4464	7239.471	-19426.45	1	20731.54	-69.56156	-5.506199E-010	0.0117384	6
	41	15	79.00281	8441.959	-23983.81	1	25426.17	-70.60867	8.423883E-010	0.0117329	6
	42	15	63.3446	10306.03	-28974.31	1	30752.64	-70.41976	-4.302889E-010	0.0117322	6
	43	16	49.86702	12373.5	-35630.37	1	37717.72	-70.84922	-4.870923E-010	0.0117271	6
	44	16	39.72458	14874.72	-43073.01	1	45569.09	-70.94829	-2.55421E-010	0.0117277	6
	45	16	31.6723	18213.38	-51858.73	1	54964.12	-70.64814	-5.336945E-010	0.0117269	6
	46	17	24.93351	23181.86	-62872.84	1	67010.39	-69.76056	-4.971726E-010	0.011728	6
	47	17	19.86229	29161.07	-74922.16	1	80397.13	-68.7331	-3.555339E-010	0.011729	6
	48	17	15.83615	36143.75	-88088.3	1	95215.1	-67.69103	-1.383399E-009	0.0117233	6
	49	17	12.40079	45529.66	-104902.3	1	114356.7	-66.53822	1.618963E-009	0.0117317	5
	50	18	9.93114	56948.37	-123127.7	1	135659.7	-65.17876	1.422301E-010	0.0117263	5
	51	18	7.944915	69758.07	-143258	1	159339.4	-64.03669	-7.729181E-010	0.0117349	5
	52	19	6.317385	84582.1	-166624.1	1	186862.8	-63.08664	-8.693245E-010	0.0117459	5
	53	20	5.008013	102645.6	-193373.9	1	218928.3	-62.03999	-4.606691E-010	0.0117298	5
	54	21	3.945707	124194.8	-224310.9	1	256397.6	-61.0279	-2.148283E-010	0.0117291	5
	55	22	3.158693	146646.5	-257900.8	1	296678.3	-60.37674	-3.116189E-011	0.0117415	5
	56	24	2.504006	173778.6	-297737.4	1	344741.3	-59.72943	-2.653373E-010	0.0117413	5
	57	25	1.998082	203178.8	-342585.6	1	398304.5	-59.3289	-3.447098E-010	0.0117073	5
	58	27	1.584686	237731.3	-394296.6	1	460419.3	-58.91317	-1.717817E-010	0.0117528	5
	59	29	1.266892	276340.3	-453598.9	1	531145.9	-58.64951	-1.299333E-010	0.0117654	5
	60	31	0.999041	321606.6	-527434.2	1	617752.1	-58.62696	-8.955539E-011	0.0117687	5
