EXPLAIN
TAG	EISPOT
TITLE	LABEL	Potentiostatic IDE	Test &Identifier
DATE	LABEL	9/8/2019	Date
TIME	LABEL	9:21:51	Time
NOTES	NOTES	1	&Notes...
	
PSTAT	PSTAT	REF600-11020	Potentiostat
VDC	POTEN	0.00000E+000	T	DC &Voltage (V)
FREQINIT	QUANT	1.00000E+006	Initial Fre&q. (Hz)
FREQFINAL	QUANT	1.00000E+000	Final Fre&q. (Hz)
PTSPERDEC	QUANT	1.00000E+001	Points/&decade
VAC	QUANT	2.50000E+001	AC &Voltage (mV rms)
AREA	QUANT	1.00000E-002	&Area (cm^2)
CONDIT	TWOPARAM	T	5.00000E+000	0.00000E+000	Conditionin&g	Time(s)	E(V)
DELAY	TWOPARAM	T	5.00000E+000	0.00000E+000	Init. De&lay	Time(s)	Stab.(mV/s)
SPEED	SELECTOR	1	&Optimize for:
ZGUESS	QUANT	1.00000E+007	E&stimated Z (ohms)
OCVCURVE	TABLE	19
	Pt	T	Vf	Vm	Ach	Over
	#	s	V vs. Ref.	V	V	bits
	0	0.258333	7.12499E-003	7.12499E-003	5.34099E-004	...........
	1	0.516667	7.12456E-003	7.10219E-003	5.31466E-004	...........
	2	0.775	7.12208E-003	7.09084E-003	5.36199E-004	...........
	3	1.03333	7.11592E-003	7.09061E-003	5.32100E-004	...........
	4	1.29167	7.10729E-003	7.10240E-003	5.35366E-004	...........
	5	1.55	7.10052E-003	7.12166E-003	5.33200E-004	...........
	6	1.80833	7.10002E-003	7.14107E-003	5.34800E-004	...........
	7	2.06667	7.10750E-003	7.16533E-003	5.36266E-004	...........
	8	2.325	7.12210E-003	7.19603E-003	5.38133E-004	...........
	9	2.58333	7.14218E-003	7.22355E-003	5.40966E-004	...........
	10	2.84167	7.16634E-003	7.25310E-003	5.35200E-004	...........
	11	3.1	7.19328E-003	7.28490E-003	5.34366E-004	...........
	12	3.35833	7.22198E-003	7.31708E-003	5.36899E-004	...........
	13	3.61667	7.25202E-003	7.35285E-003	5.33333E-004	...........
	14	3.875	7.28340E-003	7.38758E-003	5.34266E-004	...........
	15	4.13333	7.31621E-003	7.42379E-003	5.33066E-004	...........
	16	4.39167	7.35030E-003	7.45957E-003	5.38433E-004	...........
	17	4.65	7.38526E-003	7.49220E-003	5.38666E-004	...........
	18	4.90833	7.42052E-003	7.52812E-003	5.35533E-004	...........
EOC	QUANT	0.0074205	Open Circuit (V)
PSTATMODEL	IQUANT	4	Pstat Model
PSTATSECTION	LABEL	REF600-11020	Pstat Section
PSTATSERIALNO	LABEL	11020	Pstat Serial Number
CTRLMODE	IQUANT	1	Control Mode
IESTAB	IQUANT	0	I/E Stability
CASPEED	IQUANT	1	Control Amp Speed
CONVENTION	IQUANT	1	Current Convention
ICHRANGE	IQUANT	2	Ich Range
ICHRANGEMODE	TOGGLE	F	Ich Auto Range
ICHOFFSETENABLE	TOGGLE	T	Ich Offset Enable
ICHOFFSET	QUANT	0	Ich Offset (V)
ICHFILTER	IQUANT	3	Ich Filter
VCHRANGE	IQUANT	2	Vch Range
VCHRANGEMODE	TOGGLE	F	Vch Auto Range
VCHOFFSETENABLE	TOGGLE	T	Vch Offset Enable
VCHOFFSET	QUANT	0	Vch Offset (V)
VCHFILTER	IQUANT	3	Vch Filter
ACHRANGE	IQUANT	2	Ach Range
ACHOFFSETENABLE	TOGGLE	F	Ach Offset Enable
ACHOFFSET	QUANT	0	Ach Offset (V)
ACHFILTER	IQUANT	3	Ach Filter
IERANGELOWERLIMIT	IQUANT	1	I/E Range Lower Limit
IERANGEMODE	TOGGLE	F	I/E AutoRange
IERANGE	IQUANT	3	I/E Range
POSFEEDENABLE	TOGGLE	F	Positive Feedback IR Comp
POSFEEDRESISTANCE	QUANT	0	Positive Feedback Resistance (ohm)
ACHSELECT	IQUANT	0	Ach Select
CABLEID	IQUANT	14	Cable ID
DCCALDATE	LABEL	8/19/2019	DC Calibration Date
ACCALDATE	LABEL	8/19/2019	AC Calibration Date
THERMOSELECT	IQUANT	1	Thermo Select
FRAMEWORKVERSION	QUANT	6.33	Framework Version
INSTRUMENTVERSION	LABEL	3.50	Instrument Version
ZCURVE	TABLE
	Pt	Time	Freq	Zreal	Zimag	Zsig	Zmod	Zphz	Idc	Vdc	IERange
	#	s	Hz	ohm	ohm	V	ohm	°	A	V	#
	0	3	1000078	2557.366	-1740.632	1	3093.529	-34.24056	-7.893721E-006	0.0111667	8
	1	4	794390.6	2884.673	-1649.011	1	3322.737	-29.75427	3.215038E-006	0.0092311	8
	2	5	630984.4	3190.766	-1503.12	1	3527.089	-25.2244	-5.279076E-006	0.0102698	8
	3	7	501234.4	3441.784	-1353.426	1	3698.329	-21.46643	3.450985E-006	0.008722	8
	4	8	398109.4	3621.106	-1167.738	1	3804.737	-17.87353	2.275615E-006	0.0086821	8
	5	9	316265.6	3747.34	-1014.759	1	3882.305	-15.15199	-1.450941E-006	0.0096279	8
	6	11	251203.1	3877.214	-871.6018	1	3973.975	-12.66953	9.703826E-007	0.0089219	8
	7	12	199546.9	3940.959	-732.0625	1	4008.375	-10.52318	-5.398661E-006	0.0103387	8
	8	14	158578.1	4029.52	-658.9457	1	4083.043	-9.287352	-9.669568E-007	0.0091661	8
	9	15	125953.1	4093.649	-503.3113	1	4124.474	-7.0093	1.096629E-007	0.0090052	7
	10	17	100078.1	4121.522	-464.0176	1	4147.56	-6.423542	3.352409E-008	0.0090965	7
	11	18	79453.13	4155.106	-434.0768	1	4177.718	-5.963959	-3.464772E-008	0.0091267	7
	12	19	63140.62	4188.11	-415.393	1	4208.66	-5.664292	-6.45924E-008	0.0092311	7
	13	21	50203.12	4219.054	-408.7078	1	4238.804	-5.533087	-1.305414E-008	0.0091636	7
	14	22	39890.62	4255.768	-410.9476	1	4275.563	-5.515523	-2.55871E-008	0.0091762	7
	15	23	31640.63	4285.378	-426.9456	1	4306.594	-5.689515	-6.393298E-008	0.0091974	7
	16	25	25171.88	4320.449	-452.7422	1	4344.105	-5.982223	3.9591E-009	0.0090387	7
	17	26	20015.62	4357.44	-489.9858	1	4384.902	-6.41585	-1.632957E-008	0.0091604	7
	18	27	15890.62	4393.737	-541.3023	1	4426.956	-7.023369	5.351489E-009	0.0090339	7
	19	28	12609.37	4442.631	-606.8499	1	4483.887	-7.778289	9.526688E-008	0.0089254	7
	20	30	10078.13	4490.321	-683.5208	1	4542.046	-8.655175	3.166133E-008	0.0090912	7
	21	31	8015.625	4545.441	-784.1342	1	4612.581	-9.78776	2.961105E-008	0.0090116	7
	22	32	6328.125	4609.153	-911.4645	1	4698.411	-11.18598	-3.873889E-008	0.0092471	7
	23	34	5015.625	4679.513	-1059.938	1	4798.053	-12.76249	9.510592E-008	0.0089193	7
	24	35	3984.375	4761.815	-1240.654	1	4920.783	-14.60332	-2.539173E-008	0.0090995	7
	25	36	3170.956	4851.561	-1456.672	1	5065.524	-16.71228	-2.372902E-008	0.0092724	7
	26	38	2527.573	4958.224	-1713.951	1	5246.104	-19.06916	-7.451875E-008	0.009228	7
	27	39	1976.103	5091.112	-2052.811	1	5489.395	-21.96002	-6.465336E-008	0.0092242	7
	28	40	1577.524	5228.869	-2423.904	1	5763.366	-24.87064	-5.920358E-009	0.0091425	7
	29	42	1265.625	5389.834	-2856.7	1	6100.085	-27.92432	-1.440432E-008	0.0091695	7
	30	43	998.264	5585.934	-3417.514	1	6548.439	-31.4586	3.969317E-008	0.0090849	7
	31	44	796.875	5801.481	-4058.353	1	7080.072	-34.97422	-5.057661E-008	0.0091394	7
	32	46	627.7902	6055.195	-4881.594	1	7777.875	-38.87516	2.895802E-008	0.0090018	7
	33	47	505.5147	6323.042	-5779.51	1	8566.423	-42.42855	-4.908485E-008	0.0091304	7
	34	48	397.9953	6660.878	-6998.886	1	9661.87	-46.41748	7.104971E-009	0.0091192	7
	35	50	315.5048	7038.955	-8437.805	1	10988.33	-50.16458	1.620118E-009	0.0090606	6
	36	51	252.4038	7454.816	-10128.5	1	12576.2	-53.64605	1.408862E-009	0.0090583	6
	37	52	198.6229	7973.439	-12357.78	1	14706.82	-57.16925	1.289159E-009	0.0090573	6
	38	54	158.3615	8548.224	-14951.94	1	17223.03	-60.24282	8.613857E-010	0.0090569	6
	39	55	125.558	9250.084	-18204.68	1	20419.95	-63.06416	1.309137E-009	0.0090559	6
	40	56	100.4464	10047.18	-22068.47	1	24247.95	-65.5215	1.347371E-009	0.0090631	6
	41	58	79.00281	11114.95	-27189.88	1	29374	-67.76575	3.217313E-010	0.0090611	6
	42	59	63.3446	12044.32	-32886.58	1	35022.75	-69.88535	2.598003E-010	0.0090566	6
	43	61	49.86702	14248.12	-40539.2	1	42970.16	-70.6352	1.371347E-009	0.0090536	6
	44	62	39.72458	16007.81	-49470.75	1	51996.2	-72.06939	6.140257E-010	0.0090609	6
	45	63	31.6723	18769.25	-60569.81	1	63411.25	-72.78294	1.175042E-010	0.0090555	6
	46	65	24.93351	22275.84	-74485.08	1	77744.71	-73.34995	1.090352E-009	0.0090546	6
	47	66	19.86229	26825.98	-90883.2	1	94759.64	-73.55499	1.49564E-009	0.0090575	6
	48	67	15.83615	32811.23	-109441	1	114253.7	-73.31087	1.262725E-009	0.0090564	5
	49	69	12.40079	42189.99	-134981.5	1	141421.4	-72.64278	1.818861E-009	0.0090571	5
	50	70	9.93114	51754.81	-163491.7	1	171487.9	-72.43433	4.86832E-010	0.0090701	5
	51	72	7.944915	65805.24	-195518.9	1	206295.8	-71.39845	8.957171E-011	0.0090556	5
	52	73	6.317385	82757.03	-235340	1	249466.7	-70.62584	3.597732E-010	0.0090493	5
	53	75	5.008013	105983.3	-281809.9	1	301080.2	-69.38967	3.496835E-011	0.0090582	5
	54	78	3.945707	136475.4	-336654.4	1	363265.3	-67.93298	3.175696E-010	0.0090623	5
	55	80	3.158693	172320.7	-394461.3	1	430458	-66.40186	1.926382E-010	0.009074	5
	56	84	2.504006	217875.5	-463030.4	1	511729.3	-64.80102	-6.502452E-011	0.009051	5
	57	86	1.998082	271565.3	-536279.5	1	601118.4	-63.14291	1.826898E-011	0.0090242	5
	58	89	1.584686	336101	-617697	1	703216.5	-61.44852	3.466989E-012	0.0090639	5
	59	93	1.266892	409957.4	-704443.1	1	815049.2	-59.80233	1.177457E-010	0.0090105	5
	60	97	0.999041	500276.2	-799056.7	1	942744.9	-57.95	2.639985E-010	0.0090985	5
