EXPLAIN
TAG	EISPOT
TITLE	LABEL	Potentiostatic IDE	Test &Identifier
DATE	LABEL	9/16/2019	Date
TIME	LABEL	8:56:56	Time
NOTES	NOTES	1	&Notes...
	
PSTAT	PSTAT	REF600-11020	Potentiostat
VDC	POTEN	0.00000E+000	T	DC &Voltage (V)
FREQINIT	QUANT	1.00000E+006	Initial Fre&q. (Hz)
FREQFINAL	QUANT	1.00000E+000	Final Fre&q. (Hz)
PTSPERDEC	QUANT	1.00000E+001	Points/&decade
VAC	QUANT	2.50000E+001	AC &Voltage (mV rms)
AREA	QUANT	1.00000E-002	&Area (cm^2)
CONDIT	TWOPARAM	T	5.00000E+000	0.00000E+000	Conditionin&g	Time(s)	E(V)
DELAY	TWOPARAM	T	5.00000E+000	0.00000E+000	Init. De&lay	Time(s)	Stab.(mV/s)
SPEED	SELECTOR	1	&Optimize for:
ZGUESS	QUANT	1.00000E+007	E&stimated Z (ohms)
OCVCURVE	TABLE	19
	Pt	T	Vf	Vm	Ach	Over
	#	s	V vs. Ref.	V	V	bits
	0	0.258333	-2.45154E-003	-2.45154E-003	5.58932E-004	...........
	1	0.516667	-2.46202E-003	-3.00040E-003	5.63966E-004	...........
	2	0.775	-2.52782E-003	-3.59472E-003	5.59332E-004	...........
	3	1.03333	-2.72340E-003	-4.41260E-003	5.66232E-004	...........
	4	1.29167	-3.11560E-003	-5.85466E-003	5.60832E-004	...........
	5	1.55	-3.74626E-003	-6.87380E-003	5.62599E-004	...........
	6	1.80833	-4.60523E-003	-7.55159E-003	5.67366E-004	...........
	7	2.06667	-5.56619E-003	-6.97990E-003	5.65132E-004	...........
	8	2.325	-6.37144E-003	-5.82795E-003	5.60199E-004	...........
	9	2.58333	-6.76063E-003	-5.86800E-003	5.62132E-004	...........
	10	2.84167	-6.71857E-003	-7.34759E-003	5.62032E-004	...........
	11	3.1	-6.56811E-003	-8.06242E-003	5.63266E-004	...........
	12	3.35833	-6.67217E-003	-8.03023E-003	5.58199E-004	...........
	13	3.61667	-7.07711E-003	-8.30593E-003	5.58999E-004	...........
	14	3.875	-7.57371E-003	-8.68534E-003	5.62432E-004	...........
	15	4.13333	-8.00494E-003	-9.21639E-003	5.62666E-004	...........
	16	4.39167	-8.37252E-003	-9.41402E-003	5.65166E-004	...........
	17	4.65	-8.72314E-003	-9.65919E-003	5.61766E-004	...........
	18	4.90833	-9.06031E-003	-9.89387E-003	5.61766E-004	...........
EOC	QUANT	-0.0090603	Open Circuit (V)
PSTATMODEL	IQUANT	4	Pstat Model
PSTATSECTION	LABEL	REF600-11020	Pstat Section
PSTATSERIALNO	LABEL	11020	Pstat Serial Number
CTRLMODE	IQUANT	1	Control Mode
IESTAB	IQUANT	0	I/E Stability
CASPEED	IQUANT	1	Control Amp Speed
CONVENTION	IQUANT	1	Current Convention
ICHRANGE	IQUANT	2	Ich Range
ICHRANGEMODE	TOGGLE	F	Ich Auto Range
ICHOFFSETENABLE	TOGGLE	T	Ich Offset Enable
ICHOFFSET	QUANT	0	Ich Offset (V)
ICHFILTER	IQUANT	3	Ich Filter
VCHRANGE	IQUANT	2	Vch Range
VCHRANGEMODE	TOGGLE	F	Vch Auto Range
VCHOFFSETENABLE	TOGGLE	T	Vch Offset Enable
VCHOFFSET	QUANT	0	Vch Offset (V)
VCHFILTER	IQUANT	3	Vch Filter
ACHRANGE	IQUANT	2	Ach Range
ACHOFFSETENABLE	TOGGLE	F	Ach Offset Enable
ACHOFFSET	QUANT	0	Ach Offset (V)
ACHFILTER	IQUANT	3	Ach Filter
IERANGELOWERLIMIT	IQUANT	1	I/E Range Lower Limit
IERANGEMODE	TOGGLE	F	I/E AutoRange
IERANGE	IQUANT	3	I/E Range
POSFEEDENABLE	TOGGLE	F	Positive Feedback IR Comp
POSFEEDRESISTANCE	QUANT	0	Positive Feedback Resistance (ohm)
ACHSELECT	IQUANT	0	Ach Select
CABLEID	IQUANT	14	Cable ID
DCCALDATE	LABEL	8/19/2019	DC Calibration Date
ACCALDATE	LABEL	8/19/2019	AC Calibration Date
THERMOSELECT	IQUANT	1	Thermo Select
FRAMEWORKVERSION	QUANT	6.33	Framework Version
INSTRUMENTVERSION	LABEL	3.50	Instrument Version
ZCURVE	TABLE
	Pt	Time	Freq	Zreal	Zimag	Zsig	Zmod	Zphz	Idc	Vdc	IERange
	#	s	Hz	ohm	ohm	V	ohm	°	A	V	#
	0	1	1000078	2452.479	-1961.955	1	3140.687	-38.65941	-2.520394E-006	-0.0061451	8
	1	3	794390.6	2858.785	-1940.2	1	3455.001	-34.16395	-1.575479E-006	-0.006514	8
	2	4	630984.4	3245.909	-1862.174	1	3742.141	-29.84283	-8.036458E-007	-0.0067981	8
	3	6	501234.4	3587.609	-1710.741	1	3974.616	-25.49401	2.291252E-006	-0.0078949	8
	4	7	398109.4	3888.95	-1554.455	1	4188.11	-21.78712	2.711583E-006	-0.0079085	8
	5	9	316265.6	4090.419	-1372.785	1	4314.634	-18.55226	1.977911E-006	-0.0077943	8
	6	10	251203.1	4276.251	-1187.481	1	4438.067	-15.51955	3.833281E-006	-0.008116	8
	7	12	199546.9	4396.259	-985.694	1	4505.406	-12.6374	-8.836706E-007	-0.0070665	8
	8	13	158578.1	4527.395	-898.4532	1	4615.682	-11.22441	1.909841E-006	-0.0077859	8
	9	15	125953.1	4614.206	-716.2411	1	4669.464	-8.823333	-9.017533E-007	-0.0057086	7
	10	16	100078.1	4652.346	-644.1983	1	4696.734	-7.88347	2.059264E-008	-0.0075259	7
	11	17	79453.13	4704.103	-590.5058	1	4741.021	-7.154912	-4.644306E-008	-0.0072959	7
	12	19	63140.62	4749.744	-552.9407	1	4781.821	-6.64019	2.171153E-008	-0.0075297	7
	13	20	50203.12	4792.356	-530.4444	1	4821.624	-6.316103	-3.684175E-008	-0.0073983	7
	14	21	39890.62	4839.434	-521.7246	1	4867.475	-6.153119	1.392682E-007	-0.0076416	7
	15	23	31640.63	4874.72	-530.0951	1	4903.457	-6.206169	-3.84404E-008	-0.0074189	7
	16	24	25171.88	4918.095	-551.1821	1	4948.885	-6.394585	2.244914E-008	-0.0075243	7
	17	25	20015.62	4961.374	-585.6462	1	4995.82	-6.732106	-3.519778E-008	-0.0073952	7
	18	27	15890.62	5016.827	-640.6796	1	5057.571	-7.27763	-4.206747E-008	-0.0074099	7
	19	28	12609.37	5062.075	-706.9804	1	5111.206	-7.950626	-1.86799E-008	-0.0074644	7
	20	29	10078.13	5117.817	-790.8577	1	5178.562	-8.784451	-3.71668E-008	-0.007392	7
	21	31	8015.625	5179.089	-899.9256	1	5256.693	-9.85737	-7.111986E-008	-0.0073377	7
	22	32	6328.125	5251.769	-1036.141	1	5353.005	-11.16076	-7.673715E-009	-0.0074143	7
	23	33	5015.625	5329.802	-1201.624	1	5463.579	-12.70513	-9.770869E-009	-0.0073921	7
	24	34	3984.375	5418.749	-1404.546	1	5597.82	-14.53134	-6.525132E-009	-0.0073957	7
	25	36	3170.956	5515.584	-1644.766	1	5755.6	-16.60476	-4.824643E-008	-0.007279	7
	26	37	2527.573	5627.393	-1935.444	1	5950.923	-18.97976	-5.30049E-008	-0.007391	7
	27	38	1976.103	5762.043	-2315.495	1	6209.884	-21.89288	4.511097E-008	-0.0075912	7
	28	40	1577.524	5907.05	-2742.753	1	6512.751	-24.90631	4.378688E-008	-0.0075055	7
	29	41	1265.625	6056.196	-3243.476	1	6870.054	-28.17186	8.339556E-008	-0.007504	7
	30	42	998.264	6263.61	-3902.805	1	7380.021	-31.9267	1.278981E-007	-0.0076349	7
	31	44	796.875	6483.619	-4665.325	1	7987.651	-35.73712	-4.422857E-008	-0.0073672	7
	32	45	627.7902	6744.008	-5644.974	1	8794.736	-39.93053	4.722023E-008	-0.0076009	7
	33	46	505.5147	7023.938	-6739.009	1	9733.96	-43.814	7.690061E-008	-0.0075904	7
	34	48	397.9953	7385.896	-8198.777	1	11035.01	-47.98578	1.484122E-009	-0.0074952	6
	35	49	315.5048	7798.352	-9951.22	1	12642.82	-51.91569	1.456061E-009	-0.0074928	6
	36	50	252.4038	8270.352	-12007.24	1	14579.87	-55.44169	1.882001E-009	-0.0075006	6
	37	52	198.6229	8880.52	-14714.79	1	17186.88	-58.88861	1.335259E-009	-0.0075028	6
	38	53	158.3615	9572.03	-17853.54	1	20257.66	-61.80238	1.500523E-009	-0.0075038	6
	39	54	125.558	10441.28	-21791.74	1	24164.03	-64.39909	1.456364E-009	-0.0074983	6
	40	56	100.4464	11431.58	-26426.9	1	28793.44	-66.60796	6.008247E-010	-0.0074973	6
	41	57	79.00281	12862.86	-32463.24	1	34918.7	-68.38512	1.33827E-009	-0.0074938	6
	42	58	63.3446	13981.66	-39430.81	1	41836.3	-70.47614	5.448338E-010	-0.0075009	6
	43	60	49.86702	16706.22	-48333.14	1	51138.94	-70.93243	1.018959E-009	-0.0074999	6
	44	61	39.72458	19125.81	-59307.29	1	62314.93	-72.12617	8.904261E-010	-0.0074963	6
	45	63	31.6723	22685.3	-72305.84	1	75780.98	-72.58122	5.812021E-010	-0.0075069	6
	46	64	24.93351	27391.73	-88775.38	1	92905.19	-72.85234	6.698927E-010	-0.0075025	6
	47	65	19.86229	33556.18	-108030.3	1	113121.9	-72.74426	8.27044E-010	-0.0074924	5
	48	67	15.83615	41048.54	-131270.9	1	137539.2	-72.63548	1.213505E-010	-0.0074934	5
	49	68	12.40079	53139.34	-159754	1	168360.2	-71.60121	2.351807E-010	-0.0075014	5
	50	69	9.93114	67271.79	-192040.7	1	203482.5	-70.69466	2.974754E-010	-0.0074938	5
	51	71	7.944915	86868.32	-228366.1	1	244330	-69.17365	3.556959E-010	-0.0074986	5
	52	73	6.317385	110573.3	-272165.9	1	293769.9	-67.88948	9.412849E-010	-0.0075035	5
	53	75	5.008013	142658.5	-321813	1	352015.8	-66.09247	8.080858E-010	-0.0074856	5
	54	77	3.945707	184269.1	-378370.4	1	420855.4	-64.03358	2.732153E-010	-0.0074979	5
	55	80	3.158693	231974.1	-435046.1	1	493028.4	-61.93269	3.961484E-010	-0.0075046	5
	56	83	2.504006	289930.4	-497848.4	1	576118.6	-59.7849	5.072052E-010	-0.0074897	5
	57	86	1.998082	354862.6	-562426.4	1	665019.4	-57.75015	6.800963E-010	-0.0074756	5
	58	89	1.584686	428456.2	-630014.3	1	761900.7	-55.78141	4.852205E-010	-0.007527	5
	59	92	1.266892	507796.6	-703190.6	1	867372.1	-54.16574	4.515826E-010	-0.0074533	5
	60	97	0.999041	596079.3	-784423.3	1	985206	-52.76899	3.101867E-010	-0.0075351	5
