EXPLAIN
TAG	EISPOT
TITLE	LABEL	Potentiostatic EIS	Test &Identifier
DATE	LABEL	10/4/2019	Date
TIME	LABEL	9:00:00	Time
NOTES	NOTES	2	&Notes...
	
	
PSTAT	PSTAT	REF600-11020	Potentiostat
VDC	POTEN	0.00000E+000	T	DC &Voltage (V)
FREQINIT	QUANT	1.00000E+006	Initial Fre&q. (Hz)
FREQFINAL	QUANT	1.00000E+000	Final Fre&q. (Hz)
PTSPERDEC	QUANT	1.00000E+001	Points/&decade
VAC	QUANT	2.50000E+001	AC &Voltage (mV rms)
AREA	QUANT	1.00000E-002	&Area (cm^2)
CONDIT	TWOPARAM	T	5.00000E+000	0.00000E+000	Conditionin&g	Time(s)	E(V)
DELAY	TWOPARAM	T	5.00000E+000	0.00000E+000	Init. De&lay	Time(s)	Stab.(mV/s)
SPEED	SELECTOR	1	&Optimize for:
ZGUESS	QUANT	1.00000E+004	E&stimated Z (ohms)
OCVCURVE	TABLE	19
	Pt	T	Vf	Vm	Ach	Over
	#	s	V vs. Ref.	V	V	bits
	0	0.258333	5.36765E-003	5.36765E-003	5.76932E-004	...........
	1	0.516667	5.36725E-003	5.34693E-003	5.78966E-004	...........
	2	0.775	5.36469E-003	5.32033E-003	5.77566E-004	...........
	3	1.03333	5.35690E-003	5.28963E-003	5.79699E-004	...........
	4	1.29167	5.34168E-003	5.26057E-003	5.73732E-004	...........
	5	1.55	5.31995E-003	5.25789E-003	5.71899E-004	...........
	6	1.80833	5.29636E-003	5.26201E-003	5.70466E-004	...........
	7	2.06667	5.27678E-003	5.24593E-003	5.76832E-004	...........
	8	2.325	5.26372E-003	5.24043E-003	5.79399E-004	...........
	9	2.58333	5.25536E-003	5.24759E-003	5.81165E-004	...........
	10	2.84167	5.24937E-003	5.22787E-003	5.75632E-004	...........
	11	3.1	5.24541E-003	5.28119E-003	5.74732E-004	...........
	12	3.35833	5.24565E-003	5.28072E-003	5.77232E-004	...........
	13	3.61667	5.25204E-003	5.26419E-003	5.78165E-004	...........
	14	3.875	5.26135E-003	5.26586E-003	5.80065E-004	...........
	15	4.13333	5.26954E-003	5.36705E-003	5.79965E-004	...........
	16	4.39167	5.28084E-003	5.35795E-003	5.75232E-004	...........
	17	4.65	5.30050E-003	5.32212E-003	5.75365E-004	...........
	18	4.90833	5.32144E-003	5.30329E-003	5.78966E-004	...........
EOC	QUANT	0.0053214	Open Circuit (V)
PSTATMODEL	IQUANT	4	Pstat Model
PSTATSECTION	LABEL	REF600-11020	Pstat Section
PSTATSERIALNO	LABEL	11020	Pstat Serial Number
CTRLMODE	IQUANT	1	Control Mode
IESTAB	IQUANT	0	I/E Stability
CASPEED	IQUANT	1	Control Amp Speed
CONVENTION	IQUANT	1	Current Convention
ICHRANGE	IQUANT	2	Ich Range
ICHRANGEMODE	TOGGLE	F	Ich Auto Range
ICHOFFSETENABLE	TOGGLE	T	Ich Offset Enable
ICHOFFSET	QUANT	0	Ich Offset (V)
ICHFILTER	IQUANT	3	Ich Filter
VCHRANGE	IQUANT	2	Vch Range
VCHRANGEMODE	TOGGLE	F	Vch Auto Range
VCHOFFSETENABLE	TOGGLE	T	Vch Offset Enable
VCHOFFSET	QUANT	0	Vch Offset (V)
VCHFILTER	IQUANT	3	Vch Filter
ACHRANGE	IQUANT	2	Ach Range
ACHOFFSETENABLE	TOGGLE	F	Ach Offset Enable
ACHOFFSET	QUANT	0	Ach Offset (V)
ACHFILTER	IQUANT	3	Ach Filter
IERANGELOWERLIMIT	IQUANT	1	I/E Range Lower Limit
IERANGEMODE	TOGGLE	F	I/E AutoRange
IERANGE	IQUANT	5	I/E Range
POSFEEDENABLE	TOGGLE	F	Positive Feedback IR Comp
POSFEEDRESISTANCE	QUANT	0	Positive Feedback Resistance (ohm)
ACHSELECT	IQUANT	0	Ach Select
CABLEID	IQUANT	14	Cable ID
DCCALDATE	LABEL	8/19/2019	DC Calibration Date
ACCALDATE	LABEL	8/19/2019	AC Calibration Date
THERMOSELECT	IQUANT	1	Thermo Select
FRAMEWORKVERSION	QUANT	6.33	Framework Version
INSTRUMENTVERSION	LABEL	3.50	Instrument Version
ZCURVE	TABLE
	Pt	Time	Freq	Zreal	Zimag	Zsig	Zmod	Zphz	Idc	Vdc	IERange
	#	s	Hz	ohm	ohm	V	ohm	°	A	V	#
	0	2	1000078	2311.895	-1268.433	1	2637.002	-28.75161	2.71564E-006	0.0069177	8
	1	3	794390.6	2539.394	-1175.76	1	2798.38	-24.84451	1.125743E-006	0.0066589	8
	2	4	630984.4	2739.71	-1061.852	1	2938.288	-21.18525	8.154374E-007	0.0068356	8
	3	6	501234.4	2895.91	-931.3515	1	3041.991	-17.82827	-7.77975E-007	0.0069702	8
	4	7	398109.4	3015.013	-815.478	1	3123.349	-15.1348	-2.912469E-006	0.0074944	8
	5	8	316265.6	3115.614	-698.6388	1	3192.984	-12.63882	-6.855912E-007	0.0071857	8
	6	10	251203.1	3178.69	-596.4376	1	3234.163	-10.6272	-2.821185E-006	0.0074202	8
	7	11	199546.9	3226.942	-520.2144	1	3268.605	-9.157844	-2.713708E-006	0.0074078	8
	8	12	158578.1	3273.354	-451.4775	1	3304.342	-7.852977	-9.292617E-008	0.0068272	8
	9	14	125953.1	3325.113	-370.4139	1	3345.681	-6.356478	2.938903E-007	0.0063201	7
	10	15	100078.1	3347.575	-324.973	1	3363.312	-5.544737	3.930613E-008	0.006665	7
	11	16	79453.13	3372.903	-304.9866	1	3386.664	-5.166781	-5.844157E-008	0.0069793	7
	12	18	63140.62	3397.908	-294.144	1	3410.616	-4.947544	8.721265E-008	0.0067151	7
	13	19	50203.12	3423.713	-289.7809	1	3435.954	-4.837947	6.704794E-009	0.0067143	7
	14	20	39890.62	3448.788	-291.4849	1	3461.084	-4.831047	7.835048E-008	0.0066123	7
	15	22	31640.63	3475.764	-299.7881	1	3488.668	-4.929619	-2.109274E-008	0.0067585	7
	16	23	25171.88	3502.205	-315.4582	1	3516.383	-5.146981	-7.7534E-009	0.0068232	7
	17	25	20015.62	3530.763	-337.2595	1	3546.834	-5.456355	-8.464441E-009	0.0067914	7
	18	26	15890.62	3561.459	-369.0726	1	3580.531	-5.91642	3.432515E-009	0.0067352	7
	19	27	12609.37	3593.164	-409.2315	1	3616.393	-6.497516	5.665537E-008	0.0066862	7
	20	29	10078.13	3626.308	-457.3884	1	3655.04	-7.188789	-1.780008E-008	0.0068141	7
	21	30	8015.625	3660.82	-519.1573	1	3697.449	-8.071548	1.103507E-008	0.0068658	7
	22	31	6328.125	3700.79	-597.6689	1	3748.74	-9.173925	-5.608186E-008	0.0068781	7
	23	33	5015.625	3741.932	-694.9214	1	3805.913	-10.52065	-2.116457E-008	0.0067545	7
	24	34	3984.375	3786.978	-811.7401	1	3873	-12.0983	1.168823E-007	0.0066045	7
	25	35	3170.956	3837.238	-959.67	1	3955.422	-14.04131	1.074756E-008	0.006705	7
	26	37	2527.573	3892.981	-1137.496	1	4055.761	-16.28792	1.301976E-008	0.0068654	7
	27	38	1976.103	3962.48	-1373.063	1	4193.632	-19.11203	4.424428E-008	0.0067312	7
	28	39	1577.524	4035.547	-1639.914	1	4356.025	-22.11522	1.176231E-007	0.0066047	7
	29	41	1265.625	4116.698	-1956.59	1	4558.009	-25.42087	-4.897467E-008	0.0068389	7
	30	42	998.264	4215.309	-2373.002	1	4837.351	-29.37728	-4.777987E-008	0.0068409	7
	31	43	796.875	4321.895	-2858.582	1	5181.724	-33.48139	4.220495E-008	0.0066442	7
	32	45	627.7902	4451.761	-3493.253	1	5658.71	-38.12093	5.672393E-008	0.0066826	7
	33	46	505.5147	4577.944	-4204.599	1	6215.805	-42.56583	-5.47692E-008	0.0068758	7
	34	47	397.9953	4768.588	-5171.898	1	7034.769	-47.32336	4.519589E-009	0.0068049	7
	35	49	315.5048	4979.03	-6339.011	1	8060.633	-51.85183	4.298204E-009	0.0067982	7
	36	50	252.4038	5226.734	-7720.231	1	9323.129	-55.9013	4.195236E-009	0.0067992	7
	37	51	198.6229	5562.41	-9554.17	1	11055.43	-59.79216	1.210973E-009	0.0067436	6
	38	53	158.3615	5962.937	-11696.56	1	13128.83	-62.98739	1.229056E-009	0.0067422	6
	39	54	125.558	6491.833	-14399.44	1	15795.18	-65.73228	6.173982E-010	0.0067425	6
	40	56	100.4464	7141.494	-17574.31	1	18969.91	-67.88515	3.086405E-010	0.0067391	6
	41	57	79.00281	8099.234	-21786.85	1	23243.59	-69.60744	9.747065E-010	0.0067397	6
	42	58	63.3446	9270.061	-26397.53	1	27977.91	-70.65018	8.995662E-010	0.0067394	6
	43	60	49.86702	10848.69	-32818.54	1	34565.16	-71.70786	7.130581E-010	0.006735	6
	44	61	39.72458	12851.31	-39946.83	1	41963.14	-72.16647	7.683416E-010	0.0067405	6
	45	62	31.6723	15609.9	-48612.29	1	51057.07	-72.19765	1.402041E-009	0.0067381	6
	46	64	24.93351	19426.98	-59521.64	1	62611.77	-71.92409	3.882501E-010	0.0067379	6
	47	65	19.86229	24246.5	-71840.88	1	75822.2	-71.35032	5.499722E-010	0.0067362	6
	48	66	15.83615	30424.45	-86483.67	1	91679.19	-70.61842	-4.173397E-010	0.006738	6
	49	68	12.40079	39034.84	-104468.7	1	111523.2	-69.51173	2.061242E-010	0.006743	5
	50	69	9.93114	49764.36	-123678.6	1	133315	-68.0817	-1.711599E-010	0.0067491	5
	51	71	7.944915	62844.25	-144974.4	1	158009.4	-66.56398	9.985062E-010	0.0067411	5
	52	72	6.317385	78970.27	-169683.9	1	187160.2	-65.04291	7.902418E-010	0.0067366	5
	53	75	5.008013	98774.5	-197850.4	1	221136.1	-63.46987	4.66273E-010	0.0067515	5
	54	77	3.945707	122775.7	-229612.2	1	260375.9	-61.86619	-1.471702E-010	0.0067379	5
	55	80	3.158693	148598.1	-262214.3	1	301393	-60.45956	3.042529E-010	0.0067497	5
	56	83	2.504006	178771.3	-299884.5	1	349127.3	-59.19939	-1.247645E-010	0.0067467	5
	57	86	1.998082	210549	-340147.6	1	400039.1	-58.24278	2.59492E-010	0.0067003	5
	58	89	1.584686	246001.5	-388660.3	1	459971.3	-57.66834	-1.854792E-010	0.0067156	5
	59	92	1.266892	283857.8	-441444.9	1	524832.2	-57.25818	1.912203E-010	0.0067046	5
	60	97	0.999041	326915.5	-508784.9	1	604760.9	-57.27756	-5.400745E-011	0.0067688	5
