EXPLAIN
TAG	EISPOT
TITLE	LABEL	Potentiostatic IDE	Test &Identifier
DATE	LABEL	9/16/2019	Date
TIME	LABEL	8:21:13	Time
NOTES	NOTES	1	&Notes...
	
PSTAT	PSTAT	REF600-11020	Potentiostat
VDC	POTEN	0.00000E+000	T	DC &Voltage (V)
FREQINIT	QUANT	1.00000E+006	Initial Fre&q. (Hz)
FREQFINAL	QUANT	1.00000E+000	Final Fre&q. (Hz)
PTSPERDEC	QUANT	1.00000E+001	Points/&decade
VAC	QUANT	2.50000E+001	AC &Voltage (mV rms)
AREA	QUANT	1.00000E-002	&Area (cm^2)
CONDIT	TWOPARAM	T	5.00000E+000	0.00000E+000	Conditionin&g	Time(s)	E(V)
DELAY	TWOPARAM	T	5.00000E+000	0.00000E+000	Init. De&lay	Time(s)	Stab.(mV/s)
SPEED	SELECTOR	1	&Optimize for:
ZGUESS	QUANT	1.00000E+007	E&stimated Z (ohms)
OCVCURVE	TABLE	19
	Pt	T	Vf	Vm	Ach	Over
	#	s	V vs. Ref.	V	V	bits
	0	0.258333	-7.25241E-003	-7.25241E-003	5.65366E-004	...........
	1	0.516667	-7.26986E-003	-8.16587E-003	5.64199E-004	...........
	2	0.775	-7.37658E-003	-9.00857E-003	5.62166E-004	...........
	3	1.03333	-7.67750E-003	-9.84395E-003	5.65366E-004	...........
	4	1.29167	-8.21486E-003	-1.06243E-002	5.60566E-004	...........
	5	1.55	-8.92913E-003	-1.13752E-002	5.63632E-004	...........
	6	1.80833	-9.72142E-003	-1.21030E-002	5.66832E-004	...........
	7	2.06667	-1.05187E-002	-1.28006E-002	5.73099E-004	...........
	8	2.325	-1.12889E-002	-1.34934E-002	5.69299E-004	...........
	9	2.58333	-1.20264E-002	-1.41469E-002	5.67032E-004	...........
	10	2.84167	-1.27350E-002	-1.47704E-002	5.68332E-004	...........
	11	3.1	-1.34178E-002	-1.53893E-002	5.62099E-004	...........
	12	3.35833	-1.40769E-002	-1.60295E-002	5.67966E-004	...........
	13	3.61667	-1.47190E-002	-1.67037E-002	5.72266E-004	...........
	14	3.875	-1.53525E-002	-1.71718E-002	5.69399E-004	...........
	15	4.13333	-1.59742E-002	-1.77065E-002	5.74899E-004	...........
	16	4.39167	-1.65704E-002	-1.82892E-002	5.66532E-004	...........
	17	4.65	-1.71334E-002	-1.85833E-002	5.66266E-004	...........
	18	4.90833	-1.76611E-002	-1.91393E-002	5.64766E-004	...........
EOC	QUANT	-0.0176611	Open Circuit (V)
PSTATMODEL	IQUANT	4	Pstat Model
PSTATSECTION	LABEL	REF600-11020	Pstat Section
PSTATSERIALNO	LABEL	11020	Pstat Serial Number
CTRLMODE	IQUANT	1	Control Mode
IESTAB	IQUANT	0	I/E Stability
CASPEED	IQUANT	1	Control Amp Speed
CONVENTION	IQUANT	1	Current Convention
ICHRANGE	IQUANT	2	Ich Range
ICHRANGEMODE	TOGGLE	F	Ich Auto Range
ICHOFFSETENABLE	TOGGLE	T	Ich Offset Enable
ICHOFFSET	QUANT	0	Ich Offset (V)
ICHFILTER	IQUANT	3	Ich Filter
VCHRANGE	IQUANT	2	Vch Range
VCHRANGEMODE	TOGGLE	F	Vch Auto Range
VCHOFFSETENABLE	TOGGLE	T	Vch Offset Enable
VCHOFFSET	QUANT	0	Vch Offset (V)
VCHFILTER	IQUANT	3	Vch Filter
ACHRANGE	IQUANT	2	Ach Range
ACHOFFSETENABLE	TOGGLE	F	Ach Offset Enable
ACHOFFSET	QUANT	0	Ach Offset (V)
ACHFILTER	IQUANT	3	Ach Filter
IERANGELOWERLIMIT	IQUANT	1	I/E Range Lower Limit
IERANGEMODE	TOGGLE	F	I/E AutoRange
IERANGE	IQUANT	3	I/E Range
POSFEEDENABLE	TOGGLE	F	Positive Feedback IR Comp
POSFEEDRESISTANCE	QUANT	0	Positive Feedback Resistance (ohm)
ACHSELECT	IQUANT	0	Ach Select
CABLEID	IQUANT	14	Cable ID
DCCALDATE	LABEL	8/19/2019	DC Calibration Date
ACCALDATE	LABEL	8/19/2019	AC Calibration Date
THERMOSELECT	IQUANT	1	Thermo Select
FRAMEWORKVERSION	QUANT	6.33	Framework Version
INSTRUMENTVERSION	LABEL	3.50	Instrument Version
ZCURVE	TABLE
	Pt	Time	Freq	Zreal	Zimag	Zsig	Zmod	Zphz	Idc	Vdc	IERange
	#	s	Hz	ohm	ohm	V	ohm	°	A	V	#
	0	2	1000078	2122.226	-874.2134	1	2295.232	-22.38835	4.314045E-006	-0.016211	8
	1	3	794390.6	2258.302	-771.1035	1	2386.321	-18.85261	-2.308117E-006	-0.0157781	8
	2	4	630984.4	2368.382	-668.2272	1	2460.845	-15.75615	-1.764401E-006	-0.0155614	8
	3	6	501234.4	2442.703	-573.7281	1	2509.176	-13.21772	-2.336746E-006	-0.0154509	8
	4	7	398109.4	2506.464	-485.0213	1	2552.96	-10.95184	-9.280505E-007	-0.0159201	8
	5	8	316265.6	2547.236	-426.413	1	2582.68	-9.50332	9.104103E-007	-0.0163245	8
	6	10	251203.1	2572.13	-374.1755	1	2599.203	-8.27693	-8.742846E-007	-0.0160294	8
	7	11	199546.9	2614.485	-314.8502	1	2633.375	-6.866796	1.209443E-006	-0.0163602	8
	8	12	158578.1	2632.882	-288.7918	1	2648.673	-6.259555	3.181384E-007	-0.0162854	8
	9	14	125953.1	2672.066	-235.0176	1	2682.382	-5.02643	-1.65601E-007	-0.0158783	7
	10	15	100078.1	2686.991	-214.5518	1	2695.543	-4.565288	-4.332711E-008	-0.0161683	7
	11	16	79453.13	2705.433	-211.0957	1	2713.656	-4.461555	-2.201805E-008	-0.016187	7
	12	18	63140.62	2724.8	-212.3003	1	2733.058	-4.455147	4.037955E-008	-0.0162957	7
	13	19	50203.12	2745.49	-216.3886	1	2754.004	-4.506509	-2.181478E-008	-0.0161933	7
	14	20	39890.62	2766.561	-223.2954	1	2775.558	-4.614469	-1.30635E-008	-0.016151	7
	15	22	31640.63	2789.869	-234.8034	1	2799.732	-4.810841	1.254936E-008	-0.0162318	7
	16	23	25171.88	2813.183	-250.4301	1	2824.308	-5.087072	-3.65339E-008	-0.0161699	7
	17	24	20015.62	2838.378	-271.0902	1	2851.294	-5.455705	2.011758E-008	-0.0163044	7
	18	26	15890.62	2866.829	-299.326	1	2882.413	-5.960663	-2.086771E-008	-0.0161933	7
	19	27	12609.37	2891.849	-329.3609	1	2910.545	-6.497581	2.921462E-009	-0.0161658	7
	20	28	10078.13	2920.629	-368.1225	1	2943.738	-7.183802	-2.968366E-009	-0.016243	7
	21	30	8015.625	2952.082	-416.3747	1	2981.301	-8.028293	7.670501E-008	-0.0162987	7
	22	31	6328.125	2986.748	-477.5829	1	3024.689	-9.084726	-1.868245E-009	-0.0162433	7
	23	32	5015.625	3022.937	-551.1465	1	3072.77	-10.33276	1.246184E-008	-0.016249	7
	24	34	3984.375	3062.859	-641.3295	1	3129.283	-11.82625	-5.64288E-008	-0.016151	7
	25	35	3170.956	3106.752	-750.1158	1	3196.026	-13.5741	-4.220496E-008	-0.0161791	7
	26	36	2527.573	3154.261	-881.7216	1	3275.179	-15.61745	-2.166721E-009	-0.0162409	7
	27	38	1976.103	3212.291	-1057.271	1	3381.809	-18.21808	2.333912E-009	-0.0161709	7
	28	39	1577.524	3272.376	-1254.344	1	3504.544	-20.97247	-9.853688E-009	-0.0161544	7
	29	40	1265.625	3340.878	-1491.449	1	3658.673	-24.05715	2.66716E-008	-0.0161925	7
	30	42	998.264	3415.545	-1799.585	1	3860.628	-27.78389	1.119167E-008	-0.0162519	7
	31	43	796.875	3502.059	-2161.998	1	4115.66	-31.68913	-9.333315E-009	-0.0162692	7
	32	44	627.7902	3608.162	-2635.399	1	4468.127	-36.14436	2.218451E-008	-0.0163178	7
	33	46	505.5147	3719.458	-3165.231	1	4883.959	-40.39754	1.014708E-007	-0.0164074	7
	34	47	397.9953	3866.792	-3883.996	1	5480.648	-45.12718	8.04568E-009	-0.0162073	7
	35	48	315.5048	4042.521	-4748.926	1	6236.527	-49.59393	8.116019E-009	-0.0162061	7
	36	50	252.4038	4251.106	-5769.661	1	7166.651	-53.61708	7.305235E-009	-0.0162106	7
	37	51	198.6229	4535.31	-7118.25	1	8440.292	-57.49723	7.485936E-009	-0.0162098	7
	38	52	158.3615	4878.733	-8687.696	1	9963.84	-60.68282	6.504263E-009	-0.0162116	7
	39	54	125.558	5332.658	-10653.51	1	11913.63	-63.40956	3.184334E-009	-0.0162729	6
	40	55	100.4464	5890.891	-12945.63	1	14222.94	-65.53216	3.620234E-009	-0.0162709	6
	41	56	79.00281	6676.755	-15983.01	1	17321.54	-67.32772	3.252354E-009	-0.0162722	6
	42	58	63.3446	7580.851	-19241.59	1	20681.11	-68.49643	3.09144E-009	-0.0162737	6
	43	59	49.86702	9049.94	-23734.18	1	25401.04	-69.12794	1.942917E-009	-0.0162722	6
	44	60	39.72458	10635.08	-28743.87	1	30648.25	-69.69579	3.449738E-009	-0.0162692	6
	45	62	31.6723	12722.16	-34645.4	1	36907.41	-69.83623	2.983046E-009	-0.0162692	6
	46	63	24.93351	15695.94	-42116.34	1	44946.06	-69.56056	2.303808E-009	-0.0162714	6
	47	64	19.86229	19249.97	-50460.01	1	54007.16	-69.11866	3.82322E-009	-0.0162667	6
	48	66	15.83615	23919.24	-60198.76	1	64776.7	-68.33021	4.386964E-009	-0.0162777	6
	49	67	12.40079	29761.26	-72158.53	1	78055.02	-67.58666	1.789164E-009	-0.0162719	6
	50	69	9.93114	36578.62	-85283.63	1	92797.05	-66.78524	3.22108E-009	-0.0162713	6
	51	70	7.944915	44911.58	-99952.7	1	109579.1	-65.80426	2.796502E-009	-0.016257	5
	52	72	6.317385	55120.59	-117344.7	1	129645.9	-64.83905	3.023541E-009	-0.0162734	5
	53	74	5.008013	67731.33	-137746.3	1	153497.8	-63.81615	2.551788E-009	-0.0162615	5
	54	76	3.945707	83313.82	-161465	1	181692.4	-62.70686	1.962048E-009	-0.0162712	5
	55	79	3.158693	100486.9	-186421.5	1	211779.6	-61.67397	1.961499E-009	-0.016279	5
	56	82	2.504006	121525.1	-216054.9	1	247887.2	-60.6434	2.76814E-009	-0.0162646	5
	57	85	1.998082	146015.2	-248353.6	1	288097.2	-59.54734	2.404707E-009	-0.0162356	5
	58	88	1.584686	173775.7	-284856.9	1	333678.6	-58.6149	2.417469E-009	-0.0162656	5
	59	92	1.266892	206194.7	-324651	1	384596.6	-57.57927	1.885815E-009	-0.0162235	5
	60	96	0.999041	243541.1	-371262.7	1	444013.8	-56.7359	2.046674E-009	-0.0162985	5
