EXPLAIN
TAG	EISPOT
TITLE	LABEL	Potentiostatic IDE	Test &Identifier
DATE	LABEL	9/12/2019	Date
TIME	LABEL	10:50:43	Time
NOTES	NOTES	1	&Notes...
	
PSTAT	PSTAT	REF600-11020	Potentiostat
VDC	POTEN	0.00000E+000	T	DC &Voltage (V)
FREQINIT	QUANT	1.00000E+006	Initial Fre&q. (Hz)
FREQFINAL	QUANT	1.00000E+000	Final Fre&q. (Hz)
PTSPERDEC	QUANT	1.00000E+001	Points/&decade
VAC	QUANT	2.50000E+001	AC &Voltage (mV rms)
AREA	QUANT	1.00000E-002	&Area (cm^2)
CONDIT	TWOPARAM	T	5.00000E+000	0.00000E+000	Conditionin&g	Time(s)	E(V)
DELAY	TWOPARAM	T	5.00000E+000	0.00000E+000	Init. De&lay	Time(s)	Stab.(mV/s)
SPEED	SELECTOR	1	&Optimize for:
ZGUESS	QUANT	1.00000E+007	E&stimated Z (ohms)
OCVCURVE	TABLE	18
	Pt	T	Vf	Vm	Ach	Over
	#	s	V vs. Ref.	V	V	bits
	0	0.258333	1.84445E-002	1.84445E-002	5.45166E-004	...........
	1	0.516667	1.84505E-002	1.87591E-002	5.46266E-004	...........
	2	0.775	1.84878E-002	1.90817E-002	5.52066E-004	...........
	3	1.03333	1.85954E-002	1.94077E-002	5.50699E-004	...........
	4	1.29167	1.87925E-002	1.97329E-002	5.52733E-004	...........
	5	1.55	1.90626E-002	2.00459E-002	5.45766E-004	...........
	6	1.80833	1.93724E-002	2.03571E-002	5.51299E-004	...........
	7	2.06667	1.96943E-002	2.06592E-002	5.48733E-004	...........
	8	2.325	2.00140E-002	2.09547E-002	5.50233E-004	...........
	9	2.58333	2.03261E-002	2.12410E-002	5.46899E-004	...........
	10	2.84167	2.06298E-002	2.15137E-002	5.46233E-004	...........
	11	3.1	2.09245E-002	2.17746E-002	5.52599E-004	...........
	12	3.35833	2.12095E-002	2.20357E-002	5.49599E-004	...........
	13	3.61667	2.14848E-002	2.22851E-002	5.45366E-004	...........
	14	3.875	2.17510E-002	2.25277E-002	5.48333E-004	...........
	15	4.13333	2.20093E-002	2.27630E-002	5.44699E-004	...........
	16	4.39167	2.22601E-002	2.29949E-002	5.45966E-004	...........
	17	4.65	2.25038E-002	2.32147E-002	5.50166E-004	...........
EOC	QUANT	0.0227405	Open Circuit (V)
PSTATMODEL	IQUANT	4	Pstat Model
PSTATSECTION	LABEL	REF600-11020	Pstat Section
PSTATSERIALNO	LABEL	11020	Pstat Serial Number
CTRLMODE	IQUANT	1	Control Mode
IESTAB	IQUANT	0	I/E Stability
CASPEED	IQUANT	1	Control Amp Speed
CONVENTION	IQUANT	1	Current Convention
ICHRANGE	IQUANT	2	Ich Range
ICHRANGEMODE	TOGGLE	F	Ich Auto Range
ICHOFFSETENABLE	TOGGLE	T	Ich Offset Enable
ICHOFFSET	QUANT	0	Ich Offset (V)
ICHFILTER	IQUANT	3	Ich Filter
VCHRANGE	IQUANT	2	Vch Range
VCHRANGEMODE	TOGGLE	F	Vch Auto Range
VCHOFFSETENABLE	TOGGLE	T	Vch Offset Enable
VCHOFFSET	QUANT	0	Vch Offset (V)
VCHFILTER	IQUANT	3	Vch Filter
ACHRANGE	IQUANT	2	Ach Range
ACHOFFSETENABLE	TOGGLE	F	Ach Offset Enable
ACHOFFSET	QUANT	0	Ach Offset (V)
ACHFILTER	IQUANT	3	Ach Filter
IERANGELOWERLIMIT	IQUANT	1	I/E Range Lower Limit
IERANGEMODE	TOGGLE	F	I/E AutoRange
IERANGE	IQUANT	3	I/E Range
POSFEEDENABLE	TOGGLE	F	Positive Feedback IR Comp
POSFEEDRESISTANCE	QUANT	0	Positive Feedback Resistance (ohm)
ACHSELECT	IQUANT	0	Ach Select
CABLEID	IQUANT	14	Cable ID
DCCALDATE	LABEL	8/19/2019	DC Calibration Date
ACCALDATE	LABEL	8/19/2019	AC Calibration Date
THERMOSELECT	IQUANT	1	Thermo Select
FRAMEWORKVERSION	QUANT	6.33	Framework Version
INSTRUMENTVERSION	LABEL	3.50	Instrument Version
ZCURVE	TABLE
	Pt	Time	Freq	Zreal	Zimag	Zsig	Zmod	Zphz	Idc	Vdc	IERange
	#	s	Hz	ohm	ohm	V	ohm	°	A	V	#
	0	2	1000078	2712.182	-1930.297	1	3328.96	-35.43998	-9.289221E-007	0.0253507	8
	1	3	794390.6	3103.897	-1870.449	1	3623.915	-31.07372	-4.481878E-006	0.0257749	8
	2	5	630984.4	3446.363	-1747.336	1	3864.014	-26.8854	3.707449E-006	0.0241198	8
	3	6	501234.4	3704.695	-1577.666	1	4026.636	-23.06702	-2.379018E-006	0.024838	8
	4	8	398109.4	3964.537	-1413.106	1	4208.851	-19.61793	2.612937E-006	0.0240138	8
	5	9	316265.6	4149.771	-1238.612	1	4330.676	-16.61916	-3.953391E-006	0.0251809	8
	6	11	251203.1	4287.326	-1122.228	1	4431.767	-14.66835	-8.536348E-007	0.0246835	8
	7	12	199546.9	4392.703	-1003.038	1	4505.766	-12.8625	2.274398E-006	0.0239538	8
	8	14	158578.1	4479.676	-900.524	1	4569.293	-11.36636	-3.639797E-006	0.0251675	8
	9	15	125953.1	4602.502	-783.8802	1	4668.778	-9.66565	-3.301103E-007	0.0248275	7
	10	16	100078.1	4660.699	-737.641	1	4718.71	-8.99351	-3.670892E-008	0.0243808	7
	11	18	79453.13	4727.799	-722.0281	1	4782.616	-8.683104	-4.319417E-008	0.0244252	7
	12	19	63140.62	4794.944	-723.9489	1	4849.288	-8.585768	-4.338326E-008	0.0244249	7
	13	20	50203.12	4863.662	-741.6627	1	4919.885	-8.670274	-1.251344E-008	0.0244157	7
	14	22	39890.62	4928.437	-778.8737	1	4989.602	-8.98056	-6.531369E-009	0.024404	7
	15	23	31640.63	5016.36	-824.7465	1	5083.707	-9.336548	8.011166E-008	0.0243339	7
	16	24	25171.88	5101.76	-887.1794	1	5178.324	-9.8649	3.745899E-008	0.0243334	7
	17	26	20015.62	5195.564	-969.581	1	5285.26	-10.57078	-7.537826E-008	0.0244768	7
	18	27	15890.62	5298.767	-1060.755	1	5403.899	-11.32034	-1.163518E-008	0.0244011	7
	19	28	12609.37	5417.928	-1187.96	1	5546.638	-12.36723	-2.184128E-008	0.0243496	7
	20	30	10078.13	5544.794	-1322.246	1	5700.27	-13.41262	-7.554545E-008	0.0244755	7
	21	31	8015.625	5689.303	-1483.177	1	5879.454	-14.61155	8.062113E-008	0.024332	7
	22	32	6328.125	5856.533	-1676.399	1	6091.74	-15.97347	8.221977E-008	0.0243356	7
	23	34	5015.625	6043.389	-1893.869	1	6333.19	-17.39988	3.802266E-008	0.0243312	7
	24	35	3984.375	6254.253	-2146.036	1	6612.198	-18.93875	-2.225415E-008	0.024348	7
	25	36	3170.956	6491.024	-2434.268	1	6932.464	-20.55708	-5.293187E-010	0.0242959	7
	26	38	2527.573	6758.007	-2752.151	1	7296.917	-22.15827	-3.990204E-008	0.0244108	7
	27	39	1976.103	7096.597	-3156.341	1	7766.864	-23.97798	-7.726557E-008	0.0244659	7
	28	40	1577.524	7439.625	-3561.24	1	8248.057	-25.57976	8.212397E-008	0.0242184	7
	29	42	1265.625	7810.124	-4009.266	1	8779.08	-27.17334	-1.628738E-010	0.0242937	7
	30	43	998.264	8252.903	-4550.44	1	9424.272	-28.87122	7.13483E-009	0.024116	6
	31	44	796.875	8685.453	-5136.556	1	10090.65	-30.59997	1.671083E-009	0.0243439	6
	32	46	627.7902	9150.03	-5859.575	1	10865.43	-32.63503	8.125235E-009	0.0241154	6
	33	47	505.5147	9560.19	-6656.257	1	11649.16	-34.84746	-2.088006E-009	0.0242335	6
	34	48	397.9953	10013.69	-7718.114	1	12642.91	-37.62347	1.666123E-010	0.024307	6
	35	50	315.5048	10440.49	-9034.228	1	13806.56	-40.86985	9.73374E-010	0.0243051	6
	36	51	252.4038	10849.28	-10626.82	1	15186.71	-44.40652	-4.108187E-011	0.0243053	6
	37	52	198.6229	11315.88	-12794.6	1	17080.71	-48.50961	6.285208E-010	0.0243097	6
	38	54	158.3615	11802.88	-15395.69	1	19399.36	-52.52496	5.436282E-011	0.0242993	6
	39	55	125.558	12385.66	-18734.15	1	22458.25	-56.53021	5.100669E-010	0.0243006	6
	40	56	100.4464	13052.75	-22741.6	1	26221.26	-60.14594	1.630652E-009	0.0242989	6
	41	58	79.00281	13932.16	-28108.06	1	31371.46	-63.63404	-2.176587E-010	0.0243006	6
	42	59	63.3446	15206.78	-33870.33	1	37127.42	-65.82133	4.398195E-010	0.0242959	6
	43	60	49.86702	16532.55	-42661.39	1	45752.8	-68.81717	1.299069E-009	0.0243011	6
	44	62	39.72458	18582.85	-51898.53	1	55125.13	-70.29952	7.220446E-010	0.024299	6
	45	63	31.6723	21053.32	-63676.32	1	67066.5	-71.70455	1.96533E-010	0.0242997	6
	46	65	24.93351	24445.8	-78516.77	1	82234.3	-72.70628	6.184179E-010	0.0243003	6
	47	66	19.86229	28690.7	-95909.6	1	100109	-73.34581	1.092775E-009	0.0243085	6
	48	67	15.83615	34012.56	-116728.5	1	121582.9	-73.75484	9.864894E-012	0.0243054	5
	49	69	12.40079	41845.52	-143877.4	1	149839.1	-73.78338	2.856262E-010	0.0243064	5
	50	70	9.93114	51579.12	-173988.5	1	181472.9	-73.48747	2.363006E-010	0.0243043	5
	51	72	7.944915	62760.55	-209790.4	1	218976.9	-73.34501	1.586677E-010	0.0243054	5
	52	73	6.317385	77797.2	-252745.1	1	264447.5	-72.89117	-9.598711E-013	0.0243048	5
	53	75	5.008013	96659.3	-305379.4	1	320311.7	-72.43628	-2.981514E-011	0.0243053	5
	54	78	3.945707	121311.5	-369361.6	1	388773.1	-71.81798	1.534692E-010	0.0243136	5
	55	81	3.158693	149484.7	-440011.6	1	464710.5	-71.23589	-1.387823E-010	0.0242951	5
	56	84	2.504006	185370.9	-527676.1	1	559289.3	-70.64379	2.927411E-010	0.0243107	5
	57	87	1.998082	227355.6	-626893.5	1	666847.8	-70.0658	1.511812E-010	0.0243347	5
	58	90	1.584686	280656.2	-745352.5	1	796441	-69.36656	8.937581E-011	0.0242854	5
	59	93	1.266892	343500	-884305.9	1	948677.6	-68.77183	8.976361E-011	0.0243504	5
	60	98	0.999041	424748	-1054917	1	1137216	-68.06848	1.419166E-011	0.0242702	4
