EXPLAIN
TAG	EISPOT
TITLE	LABEL	Potentiostatic EIS	Test &Identifier
DATE	LABEL	10/22/2019	Date
TIME	LABEL	8:55:33	Time
NOTES	NOTES	1	&Notes...
	
PSTAT	PSTAT	REF600-11020	Potentiostat
VDC	POTEN	0.00000E+000	T	DC &Voltage (V)
FREQINIT	QUANT	1.00000E+006	Initial Fre&q. (Hz)
FREQFINAL	QUANT	1.00000E+000	Final Fre&q. (Hz)
PTSPERDEC	QUANT	1.00000E+001	Points/&decade
VAC	QUANT	2.50000E+001	AC &Voltage (mV rms)
AREA	QUANT	1.00000E-002	&Area (cm^2)
CONDIT	TWOPARAM	T	5.00000E+000	0.00000E+000	Conditionin&g	Time(s)	E(V)
DELAY	TWOPARAM	T	5.00000E+000	0.00000E+000	Init. De&lay	Time(s)	Stab.(mV/s)
SPEED	SELECTOR	1	&Optimize for:
ZGUESS	QUANT	1.00000E+005	E&stimated Z (ohms)
OCVCURVE	TABLE	19
	Pt	T	Vf	Vm	Ach	Over
	#	s	V vs. Ref.	V	V	bits
	0	0.258333	7.95435E-003	7.95435E-003	6.08365E-004	...........
	1	0.516667	7.95613E-003	8.04727E-003	6.02165E-004	...........
	2	0.775	7.96750E-003	8.15986E-003	6.02265E-004	...........
	3	1.03333	8.00156E-003	8.28591E-003	6.14498E-004	...........
	4	1.29167	8.06700E-003	8.40627E-003	6.07965E-004	...........
	5	1.55	8.16040E-003	8.49120E-003	6.13032E-004	...........
	6	1.80833	8.26705E-003	8.50010E-003	6.09265E-004	...........
	7	2.06667	8.36412E-003	8.39827E-003	6.16565E-004	...........
	8	2.325	8.42942E-003	8.50748E-003	6.19132E-004	...........
	9	2.58333	8.46277E-003	8.66838E-003	6.02698E-004	...........
	10	2.84167	8.48933E-003	8.53208E-003	6.09432E-004	...........
	11	3.1	8.52741E-003	8.75851E-003	6.25165E-004	...........
	12	3.35833	8.57905E-003	8.91882E-003	6.23832E-004	...........
	13	3.61667	8.65324E-003	9.05714E-003	6.14565E-004	...........
	14	3.875	8.75994E-003	9.17070E-003	6.06998E-004	...........
	15	4.13333	8.89441E-003	9.49946E-003	6.18931E-004	...........
	16	4.39167	9.05713E-003	9.93376E-003	6.23665E-004	...........
	17	4.65	9.26567E-003	1.00854E-002	6.09432E-004	...........
	18	4.90833	9.51514E-003	9.92555E-003	6.18565E-004	...........
EOC	QUANT	0.0095151	Open Circuit (V)
PSTATMODEL	IQUANT	4	Pstat Model
PSTATSECTION	LABEL	REF600-11020	Pstat Section
PSTATSERIALNO	LABEL	11020	Pstat Serial Number
CTRLMODE	IQUANT	1	Control Mode
IESTAB	IQUANT	0	I/E Stability
CASPEED	IQUANT	1	Control Amp Speed
CONVENTION	IQUANT	1	Current Convention
ICHRANGE	IQUANT	2	Ich Range
ICHRANGEMODE	TOGGLE	F	Ich Auto Range
ICHOFFSETENABLE	TOGGLE	T	Ich Offset Enable
ICHOFFSET	QUANT	0	Ich Offset (V)
ICHFILTER	IQUANT	3	Ich Filter
VCHRANGE	IQUANT	2	Vch Range
VCHRANGEMODE	TOGGLE	F	Vch Auto Range
VCHOFFSETENABLE	TOGGLE	T	Vch Offset Enable
VCHOFFSET	QUANT	0	Vch Offset (V)
VCHFILTER	IQUANT	3	Vch Filter
ACHRANGE	IQUANT	2	Ach Range
ACHOFFSETENABLE	TOGGLE	F	Ach Offset Enable
ACHOFFSET	QUANT	0	Ach Offset (V)
ACHFILTER	IQUANT	3	Ach Filter
IERANGELOWERLIMIT	IQUANT	1	I/E Range Lower Limit
IERANGEMODE	TOGGLE	F	I/E AutoRange
IERANGE	IQUANT	5	I/E Range
POSFEEDENABLE	TOGGLE	F	Positive Feedback IR Comp
POSFEEDRESISTANCE	QUANT	0	Positive Feedback Resistance (ohm)
ACHSELECT	IQUANT	0	Ach Select
CABLEID	IQUANT	14	Cable ID
DCCALDATE	LABEL	8/19/2019	DC Calibration Date
ACCALDATE	LABEL	8/19/2019	AC Calibration Date
THERMOSELECT	IQUANT	1	Thermo Select
FRAMEWORKVERSION	QUANT	6.33	Framework Version
INSTRUMENTVERSION	LABEL	3.50	Instrument Version
ZCURVE	TABLE
	Pt	Time	Freq	Zreal	Zimag	Zsig	Zmod	Zphz	Idc	Vdc	IERange
	#	s	Hz	ohm	ohm	V	ohm	°	A	V	#
	0	2	1000078	2545.91	-1671.713	1	3045.699	-33.28997	3.056332E-006	0.0106332	8
	1	3	794390.6	2877.664	-1586.892	1	3286.21	-28.87461	1.130679E-006	0.0111556	8
	2	5	630984.4	3161.254	-1447.397	1	3476.85	-24.60093	-3.737619E-006	0.0120508	8
	3	6	501234.4	3388.826	-1288.235	1	3625.423	-20.8139	4.658802E-006	0.0103903	8
	4	7	398109.4	3570.894	-1125.186	1	3743.972	-17.4896	-3.472482E-006	0.0118139	8
	5	9	316265.6	3722.803	-973.594	1	3848.006	-14.65585	-2.77981E-006	0.0117769	8
	6	10	251203.1	3827.746	-825.8245	1	3915.818	-12.17478	3.178442E-006	0.0104664	8
	7	12	199546.9	3887.287	-710.9711	1	3951.769	-10.36464	-2.818197E-006	0.0116562	8
	8	13	158578.1	3954.672	-628.7648	1	4004.345	-9.034006	-3.046038E-006	0.0115511	8
	9	14	125953.1	4022.657	-489.3985	1	4052.318	-6.936544	-8.090684E-007	0.0127993	7
	10	16	100078.1	4048.721	-428.0907	1	4071.29	-6.035732	5.881973E-008	0.0109615	7
	11	17	79453.13	4081.682	-393.1347	1	4100.571	-5.501578	-2.419629E-008	0.0111128	7
	12	18	63140.62	4111.386	-371.0871	1	4128.099	-5.157449	3.870759E-008	0.0109182	7
	13	20	50203.12	4138.954	-358.1379	1	4154.419	-4.945406	-2.209128E-008	0.0111101	7
	14	21	39890.62	4167.152	-353.908	1	4182.153	-4.854369	-3.739493E-008	0.0110654	7
	15	23	31640.63	4197.08	-359.124	1	4212.416	-4.890613	7.189246E-009	0.0109778	7
	16	24	25171.88	4225.717	-374.3965	1	4242.271	-5.063158	-4.91403E-008	0.0110754	7
	17	25	20015.62	4243.138	-410.6642	1	4262.964	-5.528049	-2.318274E-009	0.0110483	7
	18	27	15890.62	4289.015	-433.5938	1	4310.876	-5.77265	7.182982E-009	0.0109744	7
	19	28	12609.37	4323.39	-480.0771	1	4349.963	-6.33627	-1.568107E-008	0.0110082	7
	20	29	10078.13	4360.147	-538.2952	1	4393.25	-7.038011	-2.03543E-009	0.0110487	7
	21	31	8015.625	4400.771	-609.7335	1	4442.811	-7.888197	-7.729257E-008	0.0111653	7
	22	32	6328.125	4441.14	-708.9547	1	4497.371	-9.069799	8.914262E-008	0.0109763	7
	23	33	5015.625	4486.362	-827.2671	1	4561.997	-10.44775	6.305467E-008	0.0109399	7
	24	35	3984.375	4531.703	-973.384	1	4635.063	-12.12261	-3.804816E-008	0.0110575	7
	25	36	3170.956	4592.831	-1150.651	1	4734.775	-14.06492	-1.696314E-009	0.0110489	7
	26	38	2527.573	4654.266	-1367.799	1	4851.089	-16.37705	6.344224E-008	0.0109443	7
	27	39	1976.103	4731.07	-1661.538	1	5014.353	-19.35113	-3.681987E-008	0.0111158	7
	28	40	1577.524	4785.932	-2025.825	1	5197.029	-22.94233	-1.608831E-009	0.0110741	7
	29	42	1265.625	4904.314	-2381.595	1	5452	-25.90178	-1.405741E-008	0.0110069	7
	30	43	998.264	5019.67	-2904	1	5799.165	-30.05041	-2.920443E-008	0.0110413	7
	31	44	796.875	5145.082	-3507.641	1	6226.991	-34.28407	-1.444809E-008	0.011012	7
	32	46	627.7902	5303.866	-4298.697	1	6827.136	-39.0242	-1.543344E-008	0.011009	7
	33	47	505.5147	5468.857	-5180.215	1	7532.797	-43.44738	7.873695E-008	0.0108718	7
	34	49	397.9953	5693.307	-6384.308	1	8554.13	-48.27451	5.332528E-009	0.0110568	7
	35	50	315.5048	5955.916	-7828.832	1	9836.85	-52.73732	5.841822E-009	0.0110548	7
	36	51	252.4038	6268.85	-9537.98	1	11413.66	-56.68504	1.290085E-009	0.0109957	6
	37	53	198.6229	6686.103	-11805.87	1	13567.7	-60.4755	7.013836E-010	0.0109968	6
	38	54	158.3615	7190.091	-14457.42	1	16146.65	-63.55752	1.193804E-009	0.0109896	6
	39	55	125.558	7851.212	-17790.08	1	19445.53	-66.18692	1.291078E-009	0.0109964	6
	40	57	100.4464	8679.172	-21699.79	1	23371.11	-68.20028	1.321477E-009	0.0109942	6
	41	58	79.00281	9816.07	-26871.52	1	28608.28	-69.93293	4.272133E-010	0.0109923	6
	42	60	63.3446	11112.18	-32914.39	1	34739.56	-71.34488	1.193982E-009	0.0109938	6
	43	61	49.86702	13273.45	-40163.5	1	42300.01	-71.71204	1.377596E-009	0.0109868	6
	44	62	39.72458	15886.98	-49156.28	1	51659.81	-72.08952	9.185548E-010	0.0109977	6
	45	64	31.6723	19341.04	-59685.88	1	62741.38	-72.04523	3.544779E-010	0.0109934	6
	46	65	24.93351	24151.37	-73151.38	1	77035.14	-71.72905	9.946532E-010	0.0109914	6
	47	67	19.86229	30127.87	-88243.78	1	93245.13	-71.14926	1.387656E-009	0.0109999	6
	48	68	15.83615	38688.45	-105811.9	1	112663	-69.91586	1.298781E-009	0.0109924	5
	49	69	12.40079	48942.29	-127720.4	1	136776.6	-69.03323	4.636035E-010	0.0109994	5
	50	71	9.93114	61623.23	-151565.3	1	163613.8	-67.87439	3.21473E-010	0.0109996	5
	51	73	7.944915	78898.34	-178190.5	1	194876.4	-66.11742	4.18803E-010	0.0109952	5
	52	74	6.317385	99124.2	-208822.3	1	231154.4	-64.60715	2.040194E-011	0.0109803	5
	53	76	5.008013	125304.2	-243242.2	1	273620	-62.74512	-5.744747E-011	0.0109993	5
	54	79	3.945707	157067.5	-281126	1	322027.9	-60.80754	-3.319389E-010	0.0109876	5
	55	82	3.158693	191800.1	-319054	1	372267	-58.98771	2.843696E-010	0.0110088	5
	56	85	2.504006	233235.6	-362172.9	1	430776.2	-57.21888	-4.227466E-010	0.0109925	5
	57	88	1.998082	277205.4	-405702.1	1	491362.4	-55.65625	-1.494717E-010	0.0109598	5
	58	91	1.584686	325535.1	-453604.7	1	558328.1	-54.33442	-8.3369E-011	0.0110355	5
	59	94	1.266892	374724.5	-507985.2	1	631242.8	-53.58499	-2.073511E-010	0.0109748	5
	60	99	0.999041	429968.4	-572760.9	1	716189.9	-53.10465	2.333387E-010	0.0110231	5
