EXPLAIN
TAG	EISPOT
TITLE	LABEL	Potentiostatic IDE	Test &Identifier
DATE	LABEL	9/8/2019	Date
TIME	LABEL	7:51:20	Time
NOTES	NOTES	1	&Notes...
	
PSTAT	PSTAT	REF600-11020	Potentiostat
VDC	POTEN	0.00000E+000	T	DC &Voltage (V)
FREQINIT	QUANT	1.00000E+006	Initial Fre&q. (Hz)
FREQFINAL	QUANT	1.00000E+000	Final Fre&q. (Hz)
PTSPERDEC	QUANT	1.00000E+001	Points/&decade
VAC	QUANT	2.50000E+001	AC &Voltage (mV rms)
AREA	QUANT	1.00000E-002	&Area (cm^2)
CONDIT	TWOPARAM	T	5.00000E+000	0.00000E+000	Conditionin&g	Time(s)	E(V)
DELAY	TWOPARAM	T	5.00000E+000	0.00000E+000	Init. De&lay	Time(s)	Stab.(mV/s)
SPEED	SELECTOR	1	&Optimize for:
ZGUESS	QUANT	1.00000E+007	E&stimated Z (ohms)
OCVCURVE	TABLE	19
	Pt	T	Vf	Vm	Ach	Over
	#	s	V vs. Ref.	V	V	bits
	0	0.258333	-7.13619E-003	-7.13619E-003	5.58332E-004	...........
	1	0.516667	-7.14713E-003	-7.70886E-003	5.61899E-004	...........
	2	0.775	-7.21430E-003	-8.25141E-003	5.58799E-004	...........
	3	1.03333	-7.40382E-003	-8.74638E-003	5.58999E-004	...........
	4	1.29167	-7.74096E-003	-9.23386E-003	5.56933E-004	...........
	5	1.55	-8.18403E-003	-9.59116E-003	5.59366E-004	...........
	6	1.80833	-8.66252E-003	-9.95454E-003	5.55633E-004	...........
	7	2.06667	-9.12106E-003	-1.02915E-002	5.54999E-004	...........
	8	2.325	-9.53648E-003	-1.06120E-002	5.54233E-004	...........
	9	2.58333	-9.91088E-003	-1.09175E-002	5.56399E-004	...........
	10	2.84167	-1.02549E-002	-1.12064E-002	5.52866E-004	...........
	11	3.1	-1.05773E-002	-1.14755E-002	5.55633E-004	...........
	12	3.35833	-1.08822E-002	-1.17318E-002	5.57399E-004	...........
	13	3.61667	-1.11713E-002	-1.19964E-002	5.55866E-004	...........
	14	3.875	-1.14469E-002	-1.22529E-002	5.60999E-004	...........
	15	4.13333	-1.17130E-002	-1.24979E-002	5.59199E-004	...........
	16	4.39167	-1.19726E-002	-1.27381E-002	5.57766E-004	...........
	17	4.65	-1.22260E-002	-1.29528E-002	5.54099E-004	...........
	18	4.90833	-1.24702E-002	-1.31111E-002	5.56899E-004	...........
EOC	QUANT	-0.0124702	Open Circuit (V)
PSTATMODEL	IQUANT	4	Pstat Model
PSTATSECTION	LABEL	REF600-11020	Pstat Section
PSTATSERIALNO	LABEL	11020	Pstat Serial Number
CTRLMODE	IQUANT	1	Control Mode
IESTAB	IQUANT	0	I/E Stability
CASPEED	IQUANT	1	Control Amp Speed
CONVENTION	IQUANT	1	Current Convention
ICHRANGE	IQUANT	2	Ich Range
ICHRANGEMODE	TOGGLE	F	Ich Auto Range
ICHOFFSETENABLE	TOGGLE	T	Ich Offset Enable
ICHOFFSET	QUANT	0	Ich Offset (V)
ICHFILTER	IQUANT	3	Ich Filter
VCHRANGE	IQUANT	2	Vch Range
VCHRANGEMODE	TOGGLE	F	Vch Auto Range
VCHOFFSETENABLE	TOGGLE	T	Vch Offset Enable
VCHOFFSET	QUANT	0	Vch Offset (V)
VCHFILTER	IQUANT	3	Vch Filter
ACHRANGE	IQUANT	2	Ach Range
ACHOFFSETENABLE	TOGGLE	F	Ach Offset Enable
ACHOFFSET	QUANT	0	Ach Offset (V)
ACHFILTER	IQUANT	3	Ach Filter
IERANGELOWERLIMIT	IQUANT	1	I/E Range Lower Limit
IERANGEMODE	TOGGLE	F	I/E AutoRange
IERANGE	IQUANT	3	I/E Range
POSFEEDENABLE	TOGGLE	F	Positive Feedback IR Comp
POSFEEDRESISTANCE	QUANT	0	Positive Feedback Resistance (ohm)
ACHSELECT	IQUANT	0	Ach Select
CABLEID	IQUANT	14	Cable ID
DCCALDATE	LABEL	8/19/2019	DC Calibration Date
ACCALDATE	LABEL	8/19/2019	AC Calibration Date
THERMOSELECT	IQUANT	1	Thermo Select
FRAMEWORKVERSION	QUANT	6.33	Framework Version
INSTRUMENTVERSION	LABEL	3.50	Instrument Version
ZCURVE	TABLE
	Pt	Time	Freq	Zreal	Zimag	Zsig	Zmod	Zphz	Idc	Vdc	IERange
	#	s	Hz	ohm	ohm	V	ohm	°	A	V	#
	0	1	1000078	2463.814	-1351.804	1	2810.294	-28.75196	-3.133533E-006	-0.0097912	8
	1	3	794390.6	2680.411	-1231.756	1	2949.886	-24.68068	9.311284E-006	-0.01207	8
	2	4	630984.4	2901.83	-1111.401	1	3107.383	-20.95684	5.363994E-006	-0.0120834	8
	3	6	501234.4	3050.581	-968.522	1	3200.637	-17.614	-1.081818E-006	-0.010439	8
	4	8	398109.4	3175.559	-837.168	1	3284.056	-14.76878	-1.051368E-006	-0.0104154	8
	5	9	316265.6	3268.976	-718.6584	1	3347.04	-12.39879	2.756501E-006	-0.0113796	8
	6	11	251203.1	3330.239	-626.6895	1	3388.692	-10.65737	-1.259267E-006	-0.0105566	8
	7	12	199546.9	3374.766	-535.7772	1	3417.031	-9.02098	-2.236754E-006	-0.010647	8
	8	14	158578.1	3428.102	-482.4326	1	3461.881	-8.010559	-4.158676E-006	-0.0100226	8
	9	15	125953.1	3481.387	-416.9818	1	3506.27	-6.830043	-3.806819E-007	-0.0099343	7
	10	16	100078.1	3507.368	-388.5981	1	3528.829	-6.322289	-7.349987E-008	-0.0108111	7
	11	18	79453.13	3537.737	-385.3587	1	3558.663	-6.216606	-1.828141E-008	-0.0108653	7
	12	19	63140.62	3571.469	-390.5214	1	3592.756	-6.240202	-4.501474E-008	-0.010889	7
	13	20	50203.12	3606.067	-404.5397	1	3628.687	-6.400856	-5.896351E-008	-0.0108109	7
	14	22	39890.62	3642.814	-426.8265	1	3667.734	-6.682843	3.771606E-009	-0.0109996	7
	15	23	31640.63	3684.914	-462.5094	1	3713.826	-7.154029	-2.293829E-008	-0.0109439	7
	16	24	25171.88	3729.379	-506.3935	1	3763.602	-7.732612	-4.566013E-008	-0.0108995	7
	17	26	20015.62	3778.32	-560.6946	1	3819.697	-8.440969	-5.837594E-008	-0.0108114	7
	18	27	15890.62	3832.356	-625.7904	1	3883.113	-9.274052	-4.297068E-008	-0.0108977	7
	19	28	12609.37	3897.086	-709.1917	1	3961.09	-10.31382	-4.372237E-008	-0.010899	7
	20	30	10078.13	3965.094	-802.5127	1	4045.491	-11.44178	-2.574497E-008	-0.0109398	7
	21	31	8015.625	4044.519	-915.1879	1	4146.77	-12.75009	-1.026312E-008	-0.0108909	7
	22	32	6328.125	4136.959	-1052.215	1	4268.675	-14.27031	-1.880962E-008	-0.0107851	7
	23	34	5015.625	4241.215	-1210.585	1	4410.604	-15.93052	1.553173E-007	-0.0111526	7
	24	35	3984.375	4358.147	-1394.191	1	4575.72	-17.73971	1.007614E-007	-0.0111331	7
	25	36	3170.956	4491.846	-1610.091	1	4771.695	-19.72009	-1.082258E-008	-0.0108999	7
	26	38	2527.573	4640.1	-1855.057	1	4997.176	-21.79095	5.899944E-008	-0.0111042	7
	27	39	1976.103	4825.157	-2173.571	1	5292.122	-24.24996	-2.577703E-009	-0.010907	7
	28	40	1577.524	5014.001	-2516.563	1	5610.107	-26.6524	-9.166111E-009	-0.0109028	7
	29	42	1265.625	5225.992	-2905.137	1	5979.198	-29.06975	9.291968E-008	-0.0111035	7
	30	43	998.264	5477.6	-3399.748	1	6446.89	-31.82638	1.037092E-007	-0.0111394	7
	31	44	796.875	5746.023	-3967.385	1	6982.616	-34.62343	-2.334383E-008	-0.0109479	7
	32	46	627.7902	6063.655	-4682.218	1	7661.011	-37.67451	5.777914E-008	-0.0111099	7
	33	47	505.5147	6387.564	-5473.654	1	8412.007	-40.59405	1.605734E-007	-0.0111648	7
	34	48	397.9953	6818.351	-6511.625	1	9428.212	-43.68185	8.379981E-009	-0.0109238	7
	35	50	315.5048	7303.97	-7740.354	1	10642.42	-46.66149	3.000607E-009	-0.0109862	6
	36	51	252.4038	7853.885	-9166.273	1	12070.79	-49.40923	2.181221E-009	-0.0109831	6
	37	52	198.6229	8573.953	-11011.91	1	13956.17	-52.09541	2.271707E-009	-0.0109819	6
	38	53	158.3615	9408.358	-13112.84	1	16138.89	-54.34086	2.558928E-009	-0.0109901	6
	39	55	125.558	10457.34	-15681.45	1	18848.44	-56.30225	1.707801E-009	-0.0109874	6
	40	56	100.4464	11723.09	-18620.05	1	22003.11	-57.80568	1.139981E-009	-0.0109919	6
	41	57	79.00281	13426.72	-22373.03	1	26092.71	-59.03078	2.013888E-009	-0.0109874	6
	42	59	63.3446	15103.22	-26629.13	1	30614.02	-60.43943	1.368691E-009	-0.0109891	6
	43	60	49.86702	18026.34	-31479.22	1	36275.2	-60.20271	8.001799E-010	-0.0109927	6
	44	62	39.72458	21080.99	-37408.98	1	42939.95	-60.59754	2.211688E-009	-0.0109883	6
	45	63	31.6723	25071.37	-43838.7	1	50501.53	-60.23474	6.896744E-010	-0.0109893	6
	46	64	24.93351	30145.11	-51785.34	1	59920.36	-59.7956	2.127538E-009	-0.0109908	6
	47	66	19.86229	36000.45	-60232.23	1	70170.88	-59.13349	2.59445E-009	-0.010983	6
	48	67	15.83615	43708.3	-69208.59	1	81855.02	-57.72577	4.054208E-009	-0.0109911	6
	49	68	12.40079	52707.98	-80786.68	1	96460.5	-56.8782	2.148532E-009	-0.0109898	6
	50	70	9.93114	61733.23	-91413.55	1	110306.1	-55.96813	2.081507E-009	-0.0109915	5
	51	71	7.944915	72704.41	-104012.3	1	126903.5	-55.04652	5.642582E-010	-0.0109823	5
	52	73	6.317385	85489.26	-117433.3	1	145254.9	-53.94608	9.596905E-010	-0.0109811	5
	53	75	5.008013	100151.6	-132753.1	1	166294.1	-52.96836	1.106832E-009	-0.0109823	5
	54	77	3.945707	116799.9	-150412.8	1	190436.9	-52.16962	2.907609E-010	-0.0109876	5
	55	80	3.158693	134152.6	-168829.5	1	215639.3	-51.52921	1.083668E-009	-0.0109711	5
	56	83	2.504006	154518.6	-190645	1	245400.7	-50.97507	7.662106E-011	-0.0109872	5
	57	86	1.998082	176478.3	-214284.8	1	277601.5	-50.5262	1.494176E-010	-0.0110029	5
	58	89	1.584686	201649.2	-241292.3	1	314458.9	-50.11433	4.927365E-010	-0.0109572	5
	59	93	1.266892	229777.6	-272122.2	1	356157.6	-49.82254	4.455003E-010	-0.0110243	5
	60	97	0.999041	263116.4	-308196.4	1	405234.8	-49.51163	7.917408E-010	-0.0109478	5
