EXPLAIN
TAG	EISPOT
TITLE	LABEL	Potentiostatic IDE	Test &Identifier
DATE	LABEL	9/12/2019	Date
TIME	LABEL	9:02:40	Time
NOTES	NOTES	1	&Notes...
	
PSTAT	PSTAT	REF600-11020	Potentiostat
VDC	POTEN	0.00000E+000	T	DC &Voltage (V)
FREQINIT	QUANT	1.00000E+006	Initial Fre&q. (Hz)
FREQFINAL	QUANT	1.00000E+000	Final Fre&q. (Hz)
PTSPERDEC	QUANT	1.00000E+001	Points/&decade
VAC	QUANT	2.50000E+001	AC &Voltage (mV rms)
AREA	QUANT	1.00000E-002	&Area (cm^2)
CONDIT	TWOPARAM	T	5.00000E+000	0.00000E+000	Conditionin&g	Time(s)	E(V)
DELAY	TWOPARAM	T	5.00000E+000	0.00000E+000	Init. De&lay	Time(s)	Stab.(mV/s)
SPEED	SELECTOR	1	&Optimize for:
ZGUESS	QUANT	1.00000E+007	E&stimated Z (ohms)
OCVCURVE	TABLE	18
	Pt	T	Vf	Vm	Ach	Over
	#	s	V vs. Ref.	V	V	bits
	0	0.258333	4.12796E-003	4.12796E-003	5.66199E-004	...........
	1	0.516667	4.12457E-003	3.95073E-003	5.66032E-004	...........
	2	0.775	4.10463E-003	3.82747E-003	5.70732E-004	...........
	3	1.03333	4.05111E-003	3.71062E-003	5.66432E-004	...........
	4	1.29167	3.96103E-003	3.60199E-003	5.63866E-004	...........
	5	1.55	3.84881E-003	3.50688E-003	5.65532E-004	...........
	6	1.80833	3.73221E-003	3.42375E-003	5.60132E-004	...........
	7	2.06667	3.62234E-003	3.34128E-003	5.65066E-004	...........
	8	2.325	3.52312E-003	3.27343E-003	5.62799E-004	...........
	9	2.58333	3.43425E-003	3.20352E-003	5.62566E-004	...........
	10	2.84167	3.35388E-003	3.13512E-003	5.60166E-004	...........
	11	3.1	3.27980E-003	3.07553E-003	5.62799E-004	...........
	12	3.35833	3.21025E-003	3.01716E-003	5.61632E-004	...........
	13	3.61667	3.14455E-003	2.96294E-003	5.60399E-004	...........
	14	3.875	3.08262E-003	2.91267E-003	5.58966E-004	...........
	15	4.13333	3.02435E-003	2.86026E-003	5.64899E-004	...........
	16	4.39167	2.96934E-003	2.81611E-003	5.60632E-004	...........
	17	4.65	2.91723E-003	2.77444E-003	5.59799E-004	...........
EOC	QUANT	0.0028679	Open Circuit (V)
PSTATMODEL	IQUANT	4	Pstat Model
PSTATSECTION	LABEL	REF600-11020	Pstat Section
PSTATSERIALNO	LABEL	11020	Pstat Serial Number
CTRLMODE	IQUANT	1	Control Mode
IESTAB	IQUANT	0	I/E Stability
CASPEED	IQUANT	1	Control Amp Speed
CONVENTION	IQUANT	1	Current Convention
ICHRANGE	IQUANT	2	Ich Range
ICHRANGEMODE	TOGGLE	F	Ich Auto Range
ICHOFFSETENABLE	TOGGLE	T	Ich Offset Enable
ICHOFFSET	QUANT	0	Ich Offset (V)
ICHFILTER	IQUANT	3	Ich Filter
VCHRANGE	IQUANT	2	Vch Range
VCHRANGEMODE	TOGGLE	F	Vch Auto Range
VCHOFFSETENABLE	TOGGLE	T	Vch Offset Enable
VCHOFFSET	QUANT	0	Vch Offset (V)
VCHFILTER	IQUANT	3	Vch Filter
ACHRANGE	IQUANT	2	Ach Range
ACHOFFSETENABLE	TOGGLE	F	Ach Offset Enable
ACHOFFSET	QUANT	0	Ach Offset (V)
ACHFILTER	IQUANT	3	Ach Filter
IERANGELOWERLIMIT	IQUANT	1	I/E Range Lower Limit
IERANGEMODE	TOGGLE	F	I/E AutoRange
IERANGE	IQUANT	2	I/E Range
POSFEEDENABLE	TOGGLE	F	Positive Feedback IR Comp
POSFEEDRESISTANCE	QUANT	0	Positive Feedback Resistance (ohm)
ACHSELECT	IQUANT	0	Ach Select
CABLEID	IQUANT	14	Cable ID
DCCALDATE	LABEL	8/19/2019	DC Calibration Date
ACCALDATE	LABEL	8/19/2019	AC Calibration Date
THERMOSELECT	IQUANT	1	Thermo Select
FRAMEWORKVERSION	QUANT	6.33	Framework Version
INSTRUMENTVERSION	LABEL	3.50	Instrument Version
ZCURVE	TABLE
	Pt	Time	Freq	Zreal	Zimag	Zsig	Zmod	Zphz	Idc	Vdc	IERange
	#	s	Hz	ohm	ohm	V	ohm	°	A	V	#
	0	2	1000078	2440.242	-1414.435	1	2820.533	-30.09783	-4.776267E-006	0.0062182	8
	1	4	794390.6	2715.063	-1290.985	1	3006.362	-25.43062	-3.026249E-006	0.0057688	8
	2	5	630984.4	2915.227	-1131.739	1	3127.2	-21.21703	3.49217E-007	0.0049523	8
	3	6	501234.4	3080.067	-1007.578	1	3240.683	-18.1144	-4.014435E-006	0.0053226	8
	4	8	398109.4	3216.741	-852.8256	1	3327.873	-14.8487	2.533614E-006	0.0038489	8
	5	9	316265.6	3312.719	-743.7623	1	3395.186	-12.65405	1.698268E-006	0.0039504	8
	6	11	251203.1	3377.673	-639.2145	1	3437.626	-10.71632	2.022406E-006	0.0038353	8
	7	12	199546.9	3432.646	-543.4009	1	3475.391	-8.995492	-2.213482E-006	0.0046673	8
	8	14	158578.1	3481.15	-490.7939	1	3515.577	-8.025019	2.024275E-006	0.0040145	8
	9	15	125953.1	3526.553	-388.5252	1	3547.891	-6.287	3.190266E-007	0.0036747	7
	10	16	100078.1	3541.435	-353.4226	1	3559.027	-5.699045	-2.604026E-008	0.0043748	7
	11	17	79453.13	3568.225	-339.3909	1	3584.329	-5.43333	-6.771781E-008	0.0044778	7
	12	19	63140.62	3595.991	-333.1731	1	3611.392	-5.293415	-4.760415E-008	0.0044051	7
	13	20	50203.12	3625.055	-335.3335	1	3640.532	-5.28507	4.970286E-008	0.0042198	7
	14	21	39890.62	3653.334	-345.7104	1	3669.655	-5.40573	-3.954213E-008	0.0045033	7
	15	23	31640.63	3686.142	-360.3956	1	3703.718	-5.584084	-6.694742E-008	0.0044715	7
	16	24	25171.88	3719.485	-385.6355	1	3739.423	-5.919266	8.175409E-008	0.0042195	7
	17	25	20015.62	3755.974	-417.8813	1	3779.149	-6.348492	3.056117E-008	0.0043416	7
	18	27	15890.62	3794.671	-456.3668	1	3822.015	-6.857751	2.30889E-009	0.0042974	7
	19	28	12609.37	3840.647	-513.0942	1	3874.769	-7.609417	7.002906E-008	0.0043538	7
	20	30	10078.13	3885.227	-575.1036	1	3927.56	-8.419962	-1.831108E-008	0.0045087	7
	21	31	8015.625	3936.227	-652.0049	1	3989.861	-9.405196	8.302775E-008	0.004193	7
	22	32	6328.125	3991.726	-747.9572	1	4061.197	-10.61284	-4.653529E-008	0.00439	7
	23	34	5015.625	4052.466	-862.4823	1	4143.23	-12.01493	4.926687E-008	0.0042081	7
	24	35	3984.375	4119.375	-1000.742	1	4239.19	-13.65466	-3.801694E-008	0.0044935	7
	25	36	3170.956	4190.298	-1166.236	1	4349.564	-15.55285	-4.282849E-008	0.0043902	7
	26	38	2527.573	4268.473	-1366.817	1	4481.97	-17.7557	-6.423299E-008	0.0044662	7
	27	39	1976.103	4361.674	-1634.151	1	4657.752	-20.53904	-4.993412E-008	0.0044681	7
	28	40	1577.524	4458.697	-1933.412	1	4859.841	-23.44287	-4.063446E-008	0.0043909	7
	29	42	1265.625	4559.243	-2287.62	1	5100.971	-26.64541	2.032853E-008	0.0042836	7
	30	43	998.264	4687.349	-2757.741	1	5438.417	-30.46987	8.531985E-008	0.0042183	7
	31	44	796.875	4828.021	-3304.398	1	5850.542	-34.38855	7.076043E-008	0.0043461	7
	32	45	627.7902	4993.236	-4017.791	1	6408.982	-38.82178	-3.672803E-008	0.0044922	7
	33	47	505.5147	5174.438	-4806.252	1	7062.215	-42.88733	4.799389E-009	0.0042911	7
	34	48	397.9953	5400.364	-5877.17	1	7981.545	-47.42099	6.434242E-009	0.0043686	7
	35	49	315.5048	5662.457	-7160.921	1	9129.195	-51.66502	6.650692E-009	0.0043735	7
	36	51	252.4038	5962.228	-8672.884	1	10524.59	-55.49318	1.83996E-009	0.0043092	6
	37	52	198.6229	6341.667	-10675.91	1	12417.4	-59.28898	1.137543E-009	0.0043152	6
	38	53	158.3615	6777.635	-13018.27	1	14676.91	-62.49739	1.72222E-009	0.0043085	6
	39	55	125.558	7316.151	-15973.79	1	17569.52	-65.39177	1.352382E-009	0.0043165	6
	40	56	100.4464	7977.87	-19472.81	1	21043.69	-67.72144	1.936294E-009	0.0043093	6
	41	57	79.00281	8847.292	-24075.49	1	25649.64	-69.82257	1.755263E-009	0.0043007	6
	42	59	63.3446	10096.52	-29512.27	1	31191.57	-71.11353	1.037087E-009	0.0043062	6
	43	60	49.86702	11152.94	-36373.52	1	38044.99	-72.95328	9.071224E-011	0.004308	6
	44	62	39.72458	13238.79	-44568.41	1	46493.1	-73.45625	1.053144E-009	0.0043106	6
	45	63	31.6723	15577.65	-54579.11	1	56758.63	-74.07051	5.269293E-010	0.0043101	6
	46	64	24.93351	19041.74	-67171.88	1	69818.69	-74.17314	1.237111E-009	0.0043044	6
	47	66	19.86229	23277.44	-81797.34	1	85044.95	-74.115	1.340033E-009	0.0043094	6
	48	67	15.83615	29469.97	-100144.3	1	104390.4	-73.60216	2.715247E-009	0.0043051	6
	49	68	12.40079	37959.31	-122554.9	1	128298.9	-72.79052	1.877979E-009	0.0043157	5
	50	70	9.93114	46961.08	-146425.7	1	153772	-72.21812	1.086569E-009	0.0043078	5
	51	71	7.944915	59591.62	-175697.7	1	185528.5	-71.26453	5.822772E-010	0.0043144	5
	52	73	6.317385	75928.64	-210003.8	1	223308.6	-70.12212	2.500079E-011	0.0043252	5
	53	75	5.008013	97592	-250165	1	268526.9	-68.68871	4.838281E-010	0.0043168	5
	54	77	3.945707	125542.5	-297816.5	1	323195.9	-67.14247	1.822679E-010	0.0043093	5
	55	80	3.158693	157542.1	-347679.6	1	381707.5	-65.62356	4.258406E-010	0.0043261	5
	56	83	2.504006	198714.9	-406910.3	1	452839.5	-63.9714	-3.955278E-011	0.0043025	5
	57	86	1.998082	246292.7	-469806.2	1	530450.7	-62.33453	-8.906573E-012	0.0042872	5
	58	89	1.584686	305212.1	-538959.8	1	619380.4	-60.47719	1.539672E-010	0.0043491	5
	59	93	1.266892	369663.5	-615057.3	1	717597.8	-58.99317	-9.146777E-012	0.0042791	5
	60	97	0.999041	449346.3	-699329.7	1	831248.5	-57.27769	3.401778E-010	0.0043524	5
