EXPLAIN
TAG	EISPOT
TITLE	LABEL	Potentiostatic EIS	Test &Identifier
DATE	LABEL	10/26/2019	Date
TIME	LABEL	10:11:07	Time
NOTES	NOTES	1	&Notes...
	
PSTAT	PSTAT	REF600-11020	Potentiostat
VDC	POTEN	0.00000E+000	T	DC &Voltage (V)
FREQINIT	QUANT	1.00000E+006	Initial Fre&q. (Hz)
FREQFINAL	QUANT	1.00000E+000	Final Fre&q. (Hz)
PTSPERDEC	QUANT	1.00000E+001	Points/&decade
VAC	QUANT	2.50000E+001	AC &Voltage (mV rms)
AREA	QUANT	1.00000E-002	&Area (cm^2)
CONDIT	TWOPARAM	T	5.00000E+000	0.00000E+000	Conditionin&g	Time(s)	E(V)
DELAY	TWOPARAM	T	5.00000E+000	0.00000E+000	Init. De&lay	Time(s)	Stab.(mV/s)
SPEED	SELECTOR	0	&Optimize for:
ZGUESS	QUANT	1.00000E+005	E&stimated Z (ohms)
OCVCURVE	TABLE	19
	Pt	T	Vf	Vm	Ach	Over
	#	s	V vs. Ref.	V	V	bits
	0	0.258333	5.57687E-003	5.57687E-003	5.49766E-004	...........
	1	0.516667	5.57671E-003	5.56840E-003	5.53799E-004	...........
	2	0.775	5.57601E-003	5.57574E-003	5.52033E-004	...........
	3	1.03333	5.57512E-003	5.58885E-003	5.58766E-004	...........
	4	1.29167	5.57613E-003	5.61210E-003	5.54399E-004	...........
	5	1.55	5.58207E-003	5.64322E-003	5.58399E-004	...........
	6	1.80833	5.59515E-003	5.67598E-003	5.56832E-004	...........
	7	2.06667	5.61586E-003	5.71160E-003	5.50133E-004	...........
	8	2.325	5.64300E-003	5.74678E-003	5.54699E-004	...........
	9	2.58333	5.67462E-003	5.78500E-003	5.51133E-004	...........
	10	2.84167	5.70912E-003	5.82856E-003	5.51299E-004	...........
	11	3.1	5.74583E-003	5.87107E-003	5.50033E-004	...........
	12	3.35833	5.78447E-003	5.89990E-003	5.55566E-004	...........
	13	3.61667	5.82329E-003	5.90917E-003	5.55733E-004	...........
	14	3.875	5.85878E-003	5.94085E-003	5.50333E-004	...........
	15	4.13333	5.88894E-003	5.97579E-003	5.54999E-004	...........
	16	4.39167	5.91806E-003	6.11938E-003	5.52432E-004	...........
	17	4.65	5.95694E-003	6.16462E-003	5.55233E-004	...........
	18	4.90833	6.01347E-003	6.23906E-003	5.48933E-004	...........
EOC	QUANT	0.0060135	Open Circuit (V)
PSTATMODEL	IQUANT	4	Pstat Model
PSTATSECTION	LABEL	REF600-11020	Pstat Section
PSTATSERIALNO	LABEL	11020	Pstat Serial Number
CTRLMODE	IQUANT	1	Control Mode
IESTAB	IQUANT	0	I/E Stability
CASPEED	IQUANT	1	Control Amp Speed
CONVENTION	IQUANT	1	Current Convention
ICHRANGE	IQUANT	2	Ich Range
ICHRANGEMODE	TOGGLE	F	Ich Auto Range
ICHOFFSETENABLE	TOGGLE	T	Ich Offset Enable
ICHOFFSET	QUANT	0	Ich Offset (V)
ICHFILTER	IQUANT	3	Ich Filter
VCHRANGE	IQUANT	2	Vch Range
VCHRANGEMODE	TOGGLE	F	Vch Auto Range
VCHOFFSETENABLE	TOGGLE	T	Vch Offset Enable
VCHOFFSET	QUANT	0	Vch Offset (V)
VCHFILTER	IQUANT	3	Vch Filter
ACHRANGE	IQUANT	2	Ach Range
ACHOFFSETENABLE	TOGGLE	F	Ach Offset Enable
ACHOFFSET	QUANT	0	Ach Offset (V)
ACHFILTER	IQUANT	3	Ach Filter
IERANGELOWERLIMIT	IQUANT	1	I/E Range Lower Limit
IERANGEMODE	TOGGLE	F	I/E AutoRange
IERANGE	IQUANT	5	I/E Range
POSFEEDENABLE	TOGGLE	F	Positive Feedback IR Comp
POSFEEDRESISTANCE	QUANT	0	Positive Feedback Resistance (ohm)
ACHSELECT	IQUANT	0	Ach Select
CABLEID	IQUANT	14	Cable ID
DCCALDATE	LABEL	8/19/2019	DC Calibration Date
ACCALDATE	LABEL	8/19/2019	AC Calibration Date
THERMOSELECT	IQUANT	1	Thermo Select
FRAMEWORKVERSION	QUANT	6.33	Framework Version
INSTRUMENTVERSION	LABEL	3.50	Instrument Version
ZCURVE	TABLE
	Pt	Time	Freq	Zreal	Zimag	Zsig	Zmod	Zphz	Idc	Vdc	IERange
	#	s	Hz	ohm	ohm	V	ohm	°	A	V	#
	0	1	1000078	2369.284	-1107.949	1	2615.541	-25.06222	-5.780871E-006	0.0089701	8
	1	1	794390.6	2557.622	-984.261	1	2740.475	-21.04843	1.264528E-006	0.0082625	8
	2	2	630984.4	2706.072	-863.0215	1	2840.358	-17.68854	-3.410049E-006	0.008309	8
	3	2	501234.4	2803.656	-754.4839	1	2903.4	-15.06188	-2.147954E-006	0.0082137	8
	4	2	398109.4	2905.531	-646.5745	1	2976.603	-12.54574	-2.611485E-006	0.0081038	8
	5	3	316265.6	2954.988	-558.6638	1	3007.334	-10.70586	3.158544E-006	0.007034	8
	6	3	251203.1	3004.833	-494.5407	1	3045.257	-9.346057	6.078352E-007	0.0075408	8
	7	3	199546.9	3048.048	-420.0395	1	3076.854	-7.846287	-2.688796E-006	0.0080534	8
	8	4	158578.1	3074.021	-381.1788	1	3097.564	-7.068598	2.910474E-006	0.0070496	8
	9	4	125953.1	3122.331	-308.6661	1	3137.551	-5.645778	9.051735E-008	0.0074544	7
	10	4	100078.1	3138.378	-287.6162	1	3151.53	-5.236238	6.753495E-008	0.0075034	7
	11	5	79453.13	3161.433	-283.2851	1	3174.1	-5.120402	-3.951087E-008	0.0075903	7
	12	5	63140.62	3185.276	-284.7039	1	3197.974	-5.107595	-9.731821E-009	0.0075777	7
	13	5	50203.12	3212.283	-292.24	1	3225.549	-5.198219	6.60004E-008	0.0074921	7
	14	6	39890.62	3238.592	-306.5624	1	3253.069	-5.407459	-2.506044E-008	0.0075909	7
	15	6	31640.63	3268.637	-326.0649	1	3284.86	-5.696729	-2.564178E-008	0.0075838	7
	16	6	25171.88	3299.832	-353.6632	1	3318.73	-6.117388	2.736701E-008	0.0074365	7
	17	7	20015.62	3335.682	-388.6492	1	3358.247	-6.64572	-2.690602E-008	0.0075356	7
	18	7	15890.62	3372.504	-427.9349	1	3399.545	-7.23158	-2.956107E-008	0.007545	7
	19	7	12609.37	3414.741	-479.3072	1	3448.215	-7.990072	-3.939833E-008	0.0075796	7
	20	7	10078.13	3457.305	-536.6886	1	3498.713	-8.823782	2.953134E-008	0.0075037	7
	21	8	8015.625	3499.833	-610.098	1	3552.612	-9.88855	9.455237E-011	0.0075023	7
	22	8	6328.125	3556.071	-697.3773	1	3623.807	-11.0954	3.02924E-008	0.0075051	7
	23	8	5015.625	3611.144	-803.4982	1	3699.456	-12.54426	9.597011E-008	0.0073998	7
	24	9	3984.375	3659.539	-938.5554	1	3777.978	-14.38451	-3.738087E-008	0.0075829	7
	25	9	3170.956	3729.254	-1088.554	1	3884.879	-16.27231	2.902033E-008	0.0074338	7
	26	9	2527.573	3795.242	-1278.992	1	4004.957	-18.62376	-2.685134E-008	0.007603	7
	27	10	1976.103	3871.92	-1535.007	1	4165.095	-21.62565	-2.581993E-008	0.0075355	7
	28	10	1577.524	3943.169	-1805.248	1	4336.761	-24.59909	9.327601E-008	0.0073977	7
	29	10	1265.625	4033.444	-2176.441	1	4583.183	-28.35124	9.389326E-008	0.007393	7
	30	11	998.264	4134.609	-2641.406	1	4906.325	-32.57258	9.296847E-008	0.0073941	7
	31	11	796.875	4249.218	-3188.868	1	5312.696	-36.88676	6.042618E-008	0.0074023	7
	32	11	627.7902	4393.303	-3910.171	1	5881.373	-41.67004	-4.633696E-008	0.0075862	7
	33	12	505.5147	4553.753	-4718.157	1	6557.261	-46.01583	-1.886274E-008	0.0075227	7
	34	12	397.9953	4769.572	-5815.479	1	7521.211	-50.64307	9.783079E-010	0.0075562	7
	35	12	315.5048	5040.593	-7137.085	1	8737.595	-54.76821	2.717808E-009	0.007554	7
	36	13	252.4038	5375.475	-8693.549	1	10221.23	-58.27029	1.233428E-009	0.0074937	6
	37	13	198.6229	5842.188	-10746.97	1	12232.27	-61.47094	5.542642E-010	0.0074961	6
	38	13	158.3615	6426.26	-13130.6	1	14618.81	-63.92237	-7.327725E-010	0.0074896	6
	39	14	125.558	7215.743	-16096.48	1	17639.83	-65.85422	-2.089306E-010	0.0074968	6
	40	14	100.4464	8238.267	-19525.15	1	21191.99	-67.1236	1.074801E-009	0.0074946	6
	41	14	79.00281	9736.5	-23990.55	1	25891.04	-67.91035	-6.512937E-010	0.007492	6
	42	15	63.3446	11242.4	-29173.28	1	31264.55	-68.92501	-7.774618E-011	0.0074914	6
	43	15	49.86702	13853.55	-35391.77	1	38006.56	-68.62292	-5.95703E-010	0.0074892	6
	44	15	39.72458	17270.34	-42377.5	1	45761.52	-67.82735	5.692897E-010	0.0074893	6
	45	16	31.6723	21583.98	-50448.06	1	54871.44	-66.83656	1.29444E-009	0.007491	6
	46	16	24.93351	26983.84	-60214.3	1	65984.01	-65.86142	-1.019426E-009	0.0074906	6
	47	16	19.86229	33506.18	-70750.48	1	78283.43	-64.65859	-2.338444E-009	0.0074889	6
	48	17	15.83615	42119.41	-83018.13	1	93091.65	-63.09895	2.357585E-009	0.007489	6
	49	17	12.40079	52245.41	-96393.7	1	109641.8	-61.5423	-1.062303E-010	0.0074988	5
	50	17	9.93114	63342.5	-110240.2	1	127142.3	-60.11892	3.289772E-010	0.0074891	5
	51	18	7.944915	75712.43	-125182.1	1	146297.4	-58.83368	-1.309547E-009	0.0074956	5
	52	18	6.317385	90483.81	-141951.7	1	168337.8	-57.48547	-7.721112E-010	0.0075056	5
	53	19	5.008013	106638.4	-160916.7	1	193043.8	-56.46782	-2.441295E-010	0.0074977	5
	54	20	3.945707	124181.4	-182995.7	1	221152.5	-55.83907	-2.598302E-010	0.0074869	5
	55	22	3.158693	141501.1	-206989.2	1	250733.1	-55.64286	4.670082E-011	0.0074923	5
	56	23	2.504006	160581	-236505.5	1	285869.1	-55.82453	-8.728345E-011	0.007494	5
	57	25	1.998082	180216.7	-271317.6	1	325716.6	-56.40678	-2.625773E-010	0.0074527	5
	58	26	1.584686	201654.7	-314008	1	373183.2	-57.29158	-1.040052E-010	0.0074888	5
	59	28	1.266892	226191.4	-364854.6	1	429280.1	-58.20317	-3.409472E-011	0.0075171	5
	60	31	0.999041	255834.1	-431578.1	1	501707.8	-59.34107	-1.330035E-011	0.0075232	5
