EXPLAIN
TAG	EISPOT
TITLE	LABEL	Potentiostatic EIS	Test &Identifier
DATE	LABEL	11/22/2019	Date
TIME	LABEL	10:21:35	Time
NOTES	NOTES	4	&Notes...
	
	
	
	
PSTAT	PSTAT	REF600-11020	Potentiostat
VDC	POTEN	0.00000E+000	T	DC &Voltage (V)
FREQINIT	QUANT	1.00000E+006	Initial Fre&q. (Hz)
FREQFINAL	QUANT	1.00000E+000	Final Fre&q. (Hz)
PTSPERDEC	QUANT	1.00000E+001	Points/&decade
VAC	QUANT	2.50000E+001	AC &Voltage (mV rms)
AREA	QUANT	1.00000E-002	&Area (cm^2)
CONDIT	TWOPARAM	T	5.00000E+000	0.00000E+000	Conditionin&g	Time(s)	E(V)
DELAY	TWOPARAM	T	5.00000E+000	0.00000E+000	Init. De&lay	Time(s)	Stab.(mV/s)
SPEED	SELECTOR	0	&Optimize for:
ZGUESS	QUANT	1.00000E+005	E&stimated Z (ohms)
OCVCURVE	TABLE	19
	Pt	T	Vf	Vm	Ach	Over
	#	s	V vs. Ref.	V	V	bits
	0	0.258333	3.29501E-003	3.29501E-003	5.51533E-004	...........
	1	0.516667	3.29101E-003	3.08528E-003	5.49766E-004	...........
	2	0.775	3.26665E-003	2.89924E-003	5.50566E-004	...........
	3	1.03333	3.19885E-003	2.73653E-003	5.49399E-004	...........
	4	1.29167	3.08048E-003	2.58279E-003	5.49366E-004	...........
	5	1.55	2.92819E-003	2.44696E-003	5.50299E-004	...........
	6	1.80833	2.76592E-003	2.31462E-003	5.53966E-004	...........
	7	2.06667	2.60970E-003	2.19913E-003	5.49866E-004	...........
	8	2.325	2.46553E-003	2.08428E-003	5.54933E-004	...........
	9	2.58333	2.33369E-003	1.98671E-003	5.50899E-004	...........
	10	2.84167	2.21259E-003	1.88287E-003	5.56566E-004	...........
	11	3.1	2.10044E-003	1.79553E-003	5.48799E-004	...........
	12	3.35833	1.99562E-003	1.70172E-003	5.49866E-004	...........
	13	3.61667	1.89678E-003	1.61949E-003	5.46999E-004	...........
	14	3.875	1.80281E-003	1.53147E-003	5.46033E-004	...........
	15	4.13333	1.71283E-003	1.45748E-003	5.51066E-004	...........
	16	4.39167	1.62634E-003	1.37615E-003	5.50199E-004	...........
	17	4.65	1.54310E-003	1.30151E-003	5.49633E-004	...........
	18	4.90833	1.46263E-003	1.22496E-003	5.47999E-004	...........
EOC	QUANT	0.0014626	Open Circuit (V)
PSTATMODEL	IQUANT	4	Pstat Model
PSTATSECTION	LABEL	REF600-11020	Pstat Section
PSTATSERIALNO	LABEL	11020	Pstat Serial Number
CTRLMODE	IQUANT	1	Control Mode
IESTAB	IQUANT	0	I/E Stability
CASPEED	IQUANT	1	Control Amp Speed
CONVENTION	IQUANT	1	Current Convention
ICHRANGE	IQUANT	2	Ich Range
ICHRANGEMODE	TOGGLE	F	Ich Auto Range
ICHOFFSETENABLE	TOGGLE	T	Ich Offset Enable
ICHOFFSET	QUANT	0	Ich Offset (V)
ICHFILTER	IQUANT	3	Ich Filter
VCHRANGE	IQUANT	2	Vch Range
VCHRANGEMODE	TOGGLE	F	Vch Auto Range
VCHOFFSETENABLE	TOGGLE	T	Vch Offset Enable
VCHOFFSET	QUANT	0	Vch Offset (V)
VCHFILTER	IQUANT	3	Vch Filter
ACHRANGE	IQUANT	2	Ach Range
ACHOFFSETENABLE	TOGGLE	F	Ach Offset Enable
ACHOFFSET	QUANT	0	Ach Offset (V)
ACHFILTER	IQUANT	3	Ach Filter
IERANGELOWERLIMIT	IQUANT	1	I/E Range Lower Limit
IERANGEMODE	TOGGLE	F	I/E AutoRange
IERANGE	IQUANT	4	I/E Range
POSFEEDENABLE	TOGGLE	F	Positive Feedback IR Comp
POSFEEDRESISTANCE	QUANT	0	Positive Feedback Resistance (ohm)
ACHSELECT	IQUANT	0	Ach Select
CABLEID	IQUANT	14	Cable ID
DCCALDATE	LABEL	8/19/2019	DC Calibration Date
ACCALDATE	LABEL	8/19/2019	AC Calibration Date
THERMOSELECT	IQUANT	1	Thermo Select
FRAMEWORKVERSION	QUANT	6.33	Framework Version
INSTRUMENTVERSION	LABEL	3.50	Instrument Version
ZCURVE	TABLE
	Pt	Time	Freq	Zreal	Zimag	Zsig	Zmod	Zphz	Idc	Vdc	IERange
	#	s	Hz	ohm	ohm	V	ohm	°	A	V	#
	0	1	1000078	2278.01	-1772.467	1	2886.342	-37.88567	-1.71905E-006	0.0042965	8
	1	2	794390.6	2660.749	-1740.763	1	3179.597	-33.19423	1.044505E-007	0.0039636	8
	2	2	630984.4	2997.513	-1639.917	1	3416.784	-28.68274	-7.879157E-007	0.0028668	8
	3	2	501234.4	3290.784	-1506.431	1	3619.198	-24.59701	-3.155014E-007	0.0036508	8
	4	3	398109.4	3540.687	-1378.097	1	3799.423	-21.26685	-2.293973E-006	0.0032651	8
	5	3	316265.6	3718.83	-1203.698	1	3908.783	-17.93555	-4.641307E-006	0.003451	8
	6	3	251203.1	3876.47	-1038.137	1	4013.072	-14.99228	-3.523732E-006	0.003633	8
	7	4	199546.9	4010.56	-913.3867	1	4113.254	-12.83002	-5.613709E-007	0.0027642	8
	8	4	158578.1	4083.722	-851.5129	1	4171.554	-11.7782	-8.024849E-007	0.0034807	8
	9	4	125953.1	4188.735	-622.101	1	4234.679	-8.447683	-2.343759E-006	0.0038199	7
	10	4	100078.1	4252.066	-557.3449	1	4288.438	-7.467544	8.038978E-007	0.00119	7
	11	5	79453.13	4293.229	-503.4993	1	4322.653	-6.688952	-7.591777E-007	0.0028676	7
	12	5	63140.62	4337.058	-469.0395	1	4362.347	-6.172374	6.323244E-007	0.003232	7
	13	5	50203.12	4373.56	-440.0848	1	4395.646	-5.745986	7.176834E-008	0.0040155	7
	14	6	39890.62	4406.154	-423.7032	1	4426.479	-5.492769	-1.136496E-006	0.0046959	7
	15	6	31640.63	4445.46	-422.6804	1	4465.509	-5.431432	1.013925E-006	0.0012613	7
	16	6	25171.88	4476.752	-430.3307	1	4497.387	-5.490724	8.638185E-007	0.0027805	7
	17	7	20015.62	4510.507	-451.6141	1	4533.06	-5.71768	1.124552E-006	0.0014958	7
	18	7	15890.62	4539.45	-479.0876	1	4564.661	-6.024619	-1.263412E-006	0.004136	7
	19	7	12609.37	4579.974	-527.7245	1	4610.277	-6.572884	7.319201E-008	0.0040074	7
	20	8	10078.13	4614.445	-577.8835	1	4650.489	-7.138194	-6.439198E-007	0.00467	7
	21	8	8015.625	4662.614	-660.9636	1	4709.229	-8.068385	8.643279E-007	0.0027784	7
	22	8	6328.125	4702.209	-761.1066	1	4763.408	-9.19424	5.001705E-007	0.001284	7
	23	9	5015.625	4747.898	-885.3961	1	4829.748	-10.56328	1.159619E-007	0.0015968	7
	24	9	3984.375	4801.259	-1039.138	1	4912.423	-12.21219	8.635309E-007	0.0027815	7
	25	9	3170.956	4854.623	-1229.268	1	5007.84	-14.20954	-3.027061E-007	0.0044123	7
	26	10	2527.573	4916.917	-1463.596	1	5130.125	-16.57645	-1.086841E-006	0.0035477	7
	27	10	1976.103	5002.489	-1783.366	1	5310.866	-19.62093	1.140894E-006	0.0018329	7
	28	10	1577.524	5099.646	-2109.953	1	5518.903	-22.47709	8.660438E-007	0.0027742	7
	29	10	1265.625	5177.333	-2557.321	1	5774.484	-26.28687	-1.267581E-006	0.0045059	7
	30	11	998.264	5300.156	-3121.809	1	6151.207	-30.49822	-1.085027E-006	0.003548	7
	31	11	796.875	5433.127	-3780.787	1	6619.155	-34.83316	7.161052E-008	0.0040024	7
	32	12	627.7902	5606.562	-4646.287	1	7281.587	-39.64933	1.125215E-006	0.0014931	7
	33	12	505.5147	5791.348	-5604.676	1	8059.287	-44.06155	1.139567E-006	0.0018282	7
	34	12	397.9953	6050.043	-6888.299	1	9167.971	-48.70692	-2.732832E-010	0.0030336	7
	35	12	315.5048	6353.893	-8439.834	1	10564.22	-53.02589	-2.105883E-010	0.0029733	6
	36	13	252.4038	6708.61	-10273.62	1	12269.99	-56.85571	1.461795E-009	0.0029623	6
	37	13	198.6229	7188.025	-12696.58	1	14590.09	-60.48412	6.660331E-010	0.0029703	6
	38	13	158.3615	7759.821	-15518.75	1	17350.69	-63.43364	1.221035E-009	0.0029651	6
	39	14	125.558	8514.236	-19068.67	1	20883.16	-65.93905	7.759032E-010	0.0029603	6
	40	14	100.4464	9469.43	-23217.4	1	25074.25	-67.81146	7.379133E-010	0.0029717	6
	41	14	79.00281	10806.7	-28667.26	1	30636.52	-69.34505	5.962447E-010	0.0029638	6
	42	15	63.3446	12425	-35244.24	1	37370.27	-70.58041	9.070698E-010	0.0029615	6
	43	15	49.86702	14634.41	-43254.35	1	45662.95	-71.30758	-1.142255E-009	0.0029651	6
	44	16	39.72458	17720.13	-52270.98	1	55192.92	-71.27307	-3.039376E-011	0.0029675	6
	45	16	31.6723	21582.48	-63198.07	1	66781.73	-71.14469	5.854204E-010	0.0029591	6
	46	16	24.93351	26945.11	-77255.5	1	81819.63	-70.77229	-2.605384E-010	0.0029691	6
	47	16	19.86229	33638.01	-92994.41	1	98891.2	-70.11389	-1.087737E-009	0.002967	6
	48	17	15.83615	43019.26	-111610.9	1	119614.6	-68.92137	1.046231E-009	0.0029691	5
	49	17	12.40079	55175.75	-132980.3	1	143972.7	-67.46562	1.686668E-009	0.0029671	5
	50	17	9.93114	69308.13	-157610.3	1	172176.1	-66.26281	-1.78945E-011	0.0029585	5
	51	18	7.944915	87210.62	-183624.8	1	203282.4	-64.59512	-9.369258E-010	0.0029673	5
	52	19	6.317385	110665.1	-213034.5	1	240063.4	-62.54946	-5.25595E-010	0.0029909	5
	53	19	5.008013	139048.5	-245270.5	1	281943.4	-60.45027	-6.17343E-011	0.0029631	5
	54	20	3.945707	172601.6	-279876.6	1	328819.4	-58.33761	5.197597E-011	0.0029611	5
	55	22	3.158693	208260.9	-314865.7	1	377509	-56.51824	3.964604E-010	0.0029553	5
	56	23	2.504006	248923	-352879	1	431840.6	-54.80062	2.498345E-010	0.00297	5
	57	25	1.998082	291985.3	-392873.5	1	489494.6	-53.38011	-1.305254E-011	0.0029236	5
	58	26	1.584686	336990.8	-437946.4	1	552593.8	-52.42245	7.811339E-011	0.0029519	5
	59	28	1.266892	385037.7	-486455.9	1	620397.8	-51.63782	2.559178E-010	0.0029877	5
	60	31	0.999041	436207.3	-548136.3	1	700521.4	-51.4872	3.053185E-010	0.0030023	5
