EXPLAIN
TAG	EISPOT
TITLE	LABEL	Potentiostatic EIS	Test &Identifier
DATE	LABEL	10/26/2019	Date
TIME	LABEL	9:55:55	Time
NOTES	NOTES	1	&Notes...
	
PSTAT	PSTAT	REF600-11020	Potentiostat
VDC	POTEN	0.00000E+000	T	DC &Voltage (V)
FREQINIT	QUANT	1.00000E+006	Initial Fre&q. (Hz)
FREQFINAL	QUANT	1.00000E+000	Final Fre&q. (Hz)
PTSPERDEC	QUANT	1.00000E+001	Points/&decade
VAC	QUANT	2.50000E+001	AC &Voltage (mV rms)
AREA	QUANT	1.00000E-002	&Area (cm^2)
CONDIT	TWOPARAM	T	5.00000E+000	0.00000E+000	Conditionin&g	Time(s)	E(V)
DELAY	TWOPARAM	T	5.00000E+000	0.00000E+000	Init. De&lay	Time(s)	Stab.(mV/s)
SPEED	SELECTOR	0	&Optimize for:
ZGUESS	QUANT	1.00000E+005	E&stimated Z (ohms)
OCVCURVE	TABLE	19
	Pt	T	Vf	Vm	Ach	Over
	#	s	V vs. Ref.	V	V	bits
	0	0.258333	5.11957E-003	5.11957E-003	5.78499E-004	...........
	1	0.516667	5.11955E-003	5.11859E-003	5.83699E-004	...........
	2	0.775	5.11943E-003	5.11742E-003	5.83899E-004	...........
	3	1.03333	5.11973E-003	5.15069E-003	5.84799E-004	...........
	4	1.29167	5.12296E-003	5.17448E-003	5.80232E-004	...........
	5	1.55	5.13268E-003	5.20413E-003	5.83365E-004	...........
	6	1.80833	5.15052E-003	5.24573E-003	5.85632E-004	...........
	7	2.06667	5.17571E-003	5.28067E-003	5.83565E-004	...........
	8	2.325	5.20679E-003	5.32698E-003	5.88632E-004	...........
	9	2.58333	5.24237E-003	5.36589E-003	5.83865E-004	...........
	10	2.84167	5.28120E-003	5.41236E-003	5.85865E-004	...........
	11	3.1	5.32234E-003	5.45985E-003	5.82699E-004	...........
	12	3.35833	5.36539E-003	5.50864E-003	5.82899E-004	...........
	13	3.61667	5.41025E-003	5.55250E-003	5.73965E-004	...........
	14	3.875	5.45644E-003	5.60084E-003	5.80299E-004	...........
	15	4.13333	5.50316E-003	5.64606E-003	5.83232E-004	...........
	16	4.39167	5.55018E-003	5.70945E-003	5.85399E-004	...........
	17	4.65	5.59830E-003	5.75233E-003	5.81565E-004	...........
	18	4.90833	5.64770E-003	5.78061E-003	5.84699E-004	...........
EOC	QUANT	0.0056477	Open Circuit (V)
PSTATMODEL	IQUANT	4	Pstat Model
PSTATSECTION	LABEL	REF600-11020	Pstat Section
PSTATSERIALNO	LABEL	11020	Pstat Serial Number
CTRLMODE	IQUANT	1	Control Mode
IESTAB	IQUANT	0	I/E Stability
CASPEED	IQUANT	1	Control Amp Speed
CONVENTION	IQUANT	1	Current Convention
ICHRANGE	IQUANT	2	Ich Range
ICHRANGEMODE	TOGGLE	F	Ich Auto Range
ICHOFFSETENABLE	TOGGLE	T	Ich Offset Enable
ICHOFFSET	QUANT	0	Ich Offset (V)
ICHFILTER	IQUANT	3	Ich Filter
VCHRANGE	IQUANT	2	Vch Range
VCHRANGEMODE	TOGGLE	F	Vch Auto Range
VCHOFFSETENABLE	TOGGLE	T	Vch Offset Enable
VCHOFFSET	QUANT	0	Vch Offset (V)
VCHFILTER	IQUANT	3	Vch Filter
ACHRANGE	IQUANT	2	Ach Range
ACHOFFSETENABLE	TOGGLE	F	Ach Offset Enable
ACHOFFSET	QUANT	0	Ach Offset (V)
ACHFILTER	IQUANT	3	Ach Filter
IERANGELOWERLIMIT	IQUANT	1	I/E Range Lower Limit
IERANGEMODE	TOGGLE	F	I/E AutoRange
IERANGE	IQUANT	5	I/E Range
POSFEEDENABLE	TOGGLE	F	Positive Feedback IR Comp
POSFEEDRESISTANCE	QUANT	0	Positive Feedback Resistance (ohm)
ACHSELECT	IQUANT	0	Ach Select
CABLEID	IQUANT	14	Cable ID
DCCALDATE	LABEL	8/19/2019	DC Calibration Date
ACCALDATE	LABEL	8/19/2019	AC Calibration Date
THERMOSELECT	IQUANT	1	Thermo Select
FRAMEWORKVERSION	QUANT	6.33	Framework Version
INSTRUMENTVERSION	LABEL	3.50	Instrument Version
ZCURVE	TABLE
	Pt	Time	Freq	Zreal	Zimag	Zsig	Zmod	Zphz	Idc	Vdc	IERange
	#	s	Hz	ohm	ohm	V	ohm	°	A	V	#
	0	1	1000078	1966.241	-1040.414	1	2224.537	-27.88504	-3.208444E-006	0.0086304	8
	1	2	794390.6	2153.532	-959.712	1	2357.7	-24.01993	6.993922E-009	0.0081276	8
	2	2	630984.4	2308.793	-870.8112	1	2467.557	-20.66505	-2.591958E-007	0.0075358	8
	3	2	501234.4	2439.536	-776.1835	1	2560.039	-17.64943	-4.057437E-007	0.0074825	8
	4	3	398109.4	2543.433	-688.6495	1	2635.013	-15.14993	3.425874E-006	0.0066661	8
	5	3	316265.6	2619.994	-603.9857	1	2688.711	-12.98157	-1.977126E-007	0.0074018	8
	6	3	251203.1	2687.225	-538.2166	1	2740.594	-11.32575	-3.058457E-006	0.0078907	8
	7	4	199546.9	2737.269	-475.4594	1	2778.255	-9.85387	3.033221E-006	0.0068653	8
	8	4	158578.1	2776.486	-428.2071	1	2809.312	-8.767437	3.127765E-006	0.0066682	8
	9	4	125953.1	2833.297	-349.2857	1	2854.745	-7.0279	-8.831029E-007	0.0091839	7
	10	5	100078.1	2862.047	-320.8907	1	2879.98	-6.397245	5.579661E-009	0.0073772	7
	11	5	79453.13	2890.624	-308.6577	1	2907.056	-6.094887	-2.377128E-008	0.0072933	7
	12	5	63140.62	2919.222	-302.551	1	2934.859	-5.917064	-2.967982E-008	0.0072952	7
	13	6	50203.12	2947.647	-302.167	1	2963.094	-5.853018	-1.195554E-008	0.0073333	7
	14	6	39890.62	2976.051	-307.1538	1	2991.859	-5.89255	3.255366E-008	0.0071866	7
	15	6	31640.63	3004.734	-319.4133	1	3021.664	-6.067945	-4.580077E-008	0.0073518	7
	16	7	25171.88	3033.668	-338.0742	1	3052.448	-6.358848	-2.578712E-008	0.0072935	7
	17	7	20015.62	3063.858	-363.2281	1	3085.313	-6.761003	-3.009707E-008	0.0072971	7
	18	7	15890.62	3095.407	-397.8268	1	3120.867	-7.3236	7.216219E-008	0.0072348	7
	19	8	12609.37	3127.872	-442.8923	1	3159.072	-8.059243	-5.21704E-008	0.0073871	7
	20	8	10078.13	3161.422	-498.382	1	3200.465	-8.958658	-5.077023E-008	0.0073824	7
	21	8	8015.625	3197.292	-568.4625	1	3247.433	-10.08155	-5.805559E-008	0.0073675	7
	22	8	6328.125	3237.398	-660.0747	1	3304.005	-11.52411	-9.963075E-009	0.0072638	7
	23	9	5015.625	3280.307	-772.9089	1	3370.134	-13.25826	-9.695876E-009	0.0073266	7
	24	9	3984.375	3327.917	-911.4131	1	3450.464	-15.31599	2.776706E-008	0.0072608	7
	25	9	3170.956	3379.596	-1078.768	1	3547.592	-17.7031	-9.761528E-009	0.0073335	7
	26	10	2527.573	3439.139	-1282.743	1	3670.573	-20.4547	4.637583E-008	0.0072159	7
	27	10	1976.103	3511.557	-1554.755	1	3840.351	-23.88154	3.443672E-008	0.0071876	7
	28	10	1577.524	3572.619	-1872.103	1	4033.407	-27.65517	-1.303227E-008	0.0073211	7
	29	11	1265.625	3671.583	-2232.341	1	4296.96	-31.29981	-2.747329E-008	0.0072944	7
	30	11	998.264	3776.255	-2722.575	1	4655.375	-35.79055	-5.780033E-008	0.0074554	7
	31	11	796.875	3888.225	-3292.106	1	5094.728	-40.25413	-1.070381E-008	0.0073295	7
	32	12	627.7902	4031.244	-4043.47	1	5709.691	-45.08675	3.155868E-009	0.0072833	7
	33	12	505.5147	4188.698	-4879.814	1	6431.001	-49.35812	-8.712921E-009	0.007262	7
	34	12	397.9953	4396.341	-6024.989	1	7458.438	-53.88235	2.205033E-009	0.0073143	7
	35	13	315.5048	4650.528	-7402.311	1	8741.946	-57.86076	2.675132E-009	0.0073121	7
	36	13	252.4038	4965.586	-9032.146	1	10307.12	-61.19941	4.512909E-010	0.0072523	6
	37	13	198.6229	5397.614	-11187.31	1	12421.36	-64.24378	3.138044E-010	0.0072493	6
	38	14	158.3615	5934.899	-13694.87	1	14925.56	-66.5697	2.492601E-010	0.0072444	6
	39	14	125.558	6652.294	-16836.41	1	18102.98	-68.44035	1.072558E-010	0.0072488	6
	40	14	100.4464	7540.883	-20528.32	1	21869.54	-69.82967	9.000012E-010	0.0072447	6
	41	15	79.00281	8790.871	-25297.45	1	26781.34	-70.83765	9.166109E-010	0.0072428	6
	42	15	63.3446	10722.81	-30595.24	1	32419.86	-70.68581	-4.537332E-010	0.0072386	6
	43	15	49.86702	12923.95	-37661.64	1	39817.43	-71.05986	-1.259454E-009	0.0072392	6
	44	16	39.72458	15447.05	-45514.45	1	48064.3	-71.25341	-3.075773E-010	0.0072478	6
	45	16	31.6723	18904.79	-54983.57	1	58142.79	-71.02569	-6.386215E-010	0.0072427	6
	46	16	24.93351	24132.36	-66724.66	1	70954.57	-70.11642	-7.225145E-010	0.0072424	6
	47	17	19.86229	30323.02	-79903.28	1	85463.56	-69.21842	-2.001212E-009	0.0072425	6
	48	17	15.83615	38796.83	-94549.84	1	102200.1	-67.69009	1.525406E-009	0.0072407	6
	49	17	12.40079	48350.34	-113390.8	1	123268.9	-66.90638	3.442512E-010	0.0072494	5
	50	18	9.93114	62162.7	-132533.6	1	146387.7	-64.87185	6.02598E-010	0.0072478	5
	51	18	7.944915	77384.43	-154073.5	1	172415.2	-63.33162	-3.164645E-010	0.0072529	5
	52	19	6.317385	96294.3	-177352.6	1	201808.2	-61.50008	-1.167511E-010	0.0072519	5
	53	20	5.008013	118789.1	-203518	1	235649	-59.72881	2.82705E-010	0.0072582	5
	54	21	3.945707	145561	-231949.8	1	273840.7	-57.88952	-2.479856E-010	0.0072421	5
	55	22	3.158693	174061.8	-261329.8	1	313991.7	-56.33393	2.341902E-011	0.0072373	5
	56	24	2.504006	205984.9	-294578	1	359452.3	-55.03667	1.494528E-010	0.0072423	5
	57	25	1.998082	240061.9	-329583.6	1	407743.8	-53.93117	-2.339476E-010	0.0072041	5
	58	27	1.584686	276807.1	-371666.2	1	463419.8	-53.32224	-2.590422E-010	0.0072082	5
	59	29	1.266892	314729.7	-416559.9	1	522089	-52.92732	-1.425075E-010	0.0072433	5
	60	31	0.999041	359004.5	-472901.2	1	593733.8	-52.79593	-8.362137E-011	0.0072667	5
