EXPLAIN
TAG	EISPOT
TITLE	LABEL	Potentiostatic EIS	Test &Identifier
DATE	LABEL	9/20/2019	Date
TIME	LABEL	11:11:48	Time
NOTES	NOTES	1	&Notes...
	
PSTAT	PSTAT	REF600-11020	Potentiostat
VDC	POTEN	0.00000E+000	T	DC &Voltage (V)
FREQINIT	QUANT	1.00000E+006	Initial Fre&q. (Hz)
FREQFINAL	QUANT	1.00000E+000	Final Fre&q. (Hz)
PTSPERDEC	QUANT	1.00000E+001	Points/&decade
VAC	QUANT	2.50000E+001	AC &Voltage (mV rms)
AREA	QUANT	1.00000E-002	&Area (cm^2)
CONDIT	TWOPARAM	T	5.00000E+000	0.00000E+000	Conditionin&g	Time(s)	E(V)
DELAY	TWOPARAM	T	5.00000E+000	0.00000E+000	Init. De&lay	Time(s)	Stab.(mV/s)
SPEED	SELECTOR	1	&Optimize for:
ZGUESS	QUANT	1.00000E+004	E&stimated Z (ohms)
OCVCURVE	TABLE	19
	Pt	T	Vf	Vm	Ach	Over
	#	s	V vs. Ref.	V	V	bits
	0	0.258333	1.37376E-002	1.37376E-002	5.27200E-004	...........
	1	0.516667	1.37449E-002	1.41223E-002	5.23966E-004	...........
	2	0.775	1.37903E-002	1.45016E-002	5.18233E-004	...........
	3	1.03333	1.39196E-002	1.48594E-002	5.28066E-004	...........
	4	1.29167	1.41540E-002	1.52973E-002	5.29733E-004	...........
	5	1.55	1.44747E-002	1.56654E-002	5.24066E-004	...........
	6	1.80833	1.48459E-002	1.60337E-002	5.27166E-004	...........
	7	2.06667	1.52339E-002	1.63263E-002	5.26666E-004	...........
	8	2.325	1.56140E-002	1.66990E-002	5.28500E-004	...........
	9	2.58333	1.59730E-002	1.68803E-002	5.26566E-004	...........
	10	2.84167	1.63027E-002	1.70502E-002	5.19800E-004	...........
	11	3.1	1.65929E-002	1.73128E-002	5.32266E-004	...........
	12	3.35833	1.68442E-002	1.75654E-002	5.24566E-004	...........
	13	3.61667	1.70793E-002	1.80198E-002	5.27466E-004	...........
	14	3.875	1.73281E-002	1.80975E-002	5.28200E-004	...........
	15	4.13333	1.75893E-002	1.79715E-002	5.22333E-004	...........
	16	4.39167	1.78136E-002	1.79936E-002	5.28166E-004	...........
	17	4.65	1.79571E-002	1.83050E-002	5.28533E-004	...........
	18	4.90833	1.80469E-002	1.86272E-002	5.30633E-004	...........
EOC	QUANT	0.0180469	Open Circuit (V)
PSTATMODEL	IQUANT	4	Pstat Model
PSTATSECTION	LABEL	REF600-11020	Pstat Section
PSTATSERIALNO	LABEL	11020	Pstat Serial Number
CTRLMODE	IQUANT	1	Control Mode
IESTAB	IQUANT	0	I/E Stability
CASPEED	IQUANT	1	Control Amp Speed
CONVENTION	IQUANT	1	Current Convention
ICHRANGE	IQUANT	2	Ich Range
ICHRANGEMODE	TOGGLE	F	Ich Auto Range
ICHOFFSETENABLE	TOGGLE	T	Ich Offset Enable
ICHOFFSET	QUANT	0	Ich Offset (V)
ICHFILTER	IQUANT	3	Ich Filter
VCHRANGE	IQUANT	2	Vch Range
VCHRANGEMODE	TOGGLE	F	Vch Auto Range
VCHOFFSETENABLE	TOGGLE	T	Vch Offset Enable
VCHOFFSET	QUANT	0	Vch Offset (V)
VCHFILTER	IQUANT	3	Vch Filter
ACHRANGE	IQUANT	2	Ach Range
ACHOFFSETENABLE	TOGGLE	F	Ach Offset Enable
ACHOFFSET	QUANT	0	Ach Offset (V)
ACHFILTER	IQUANT	3	Ach Filter
IERANGELOWERLIMIT	IQUANT	1	I/E Range Lower Limit
IERANGEMODE	TOGGLE	F	I/E AutoRange
IERANGE	IQUANT	6	I/E Range
POSFEEDENABLE	TOGGLE	F	Positive Feedback IR Comp
POSFEEDRESISTANCE	QUANT	0	Positive Feedback Resistance (ohm)
ACHSELECT	IQUANT	0	Ach Select
CABLEID	IQUANT	14	Cable ID
DCCALDATE	LABEL	8/19/2019	DC Calibration Date
ACCALDATE	LABEL	8/19/2019	AC Calibration Date
THERMOSELECT	IQUANT	1	Thermo Select
FRAMEWORKVERSION	QUANT	6.33	Framework Version
INSTRUMENTVERSION	LABEL	3.50	Instrument Version
ZCURVE	TABLE
	Pt	Time	Freq	Zreal	Zimag	Zsig	Zmod	Zphz	Idc	Vdc	IERange
	#	s	Hz	ohm	ohm	V	ohm	°	A	V	#
	0	1	1000078	2455.912	-2016.975	1	3178.001	-39.39536	5.354324E-006	0.0197031	8
	1	3	794390.6	2866.409	-1994.579	1	3492.083	-34.83197	-6.567331E-006	0.0209892	8
	2	4	630984.4	3256.143	-1913.89	1	3776.962	-30.44609	1.01181E-006	0.0197838	8
	3	5	501234.4	3621.515	-1766.613	1	4029.428	-26.0036	8.092348E-007	0.0195338	8
	4	7	398109.4	3903.448	-1592.215	1	4215.691	-22.19053	3.775205E-006	0.0189461	8
	5	8	316265.6	4148.344	-1425.73	1	4386.51	-18.96716	9.142579E-007	0.019396	8
	6	10	251203.1	4347.147	-1224.182	1	4516.228	-15.72753	-7.809087E-007	0.019791	8
	7	11	199546.9	4484.163	-1092.195	1	4615.258	-13.68883	1.065104E-006	0.019591	8
	8	13	158578.1	4612.585	-946.1198	1	4708.618	-11.59156	1.100285E-006	0.019388	8
	9	14	125953.1	4702.82	-769.0046	1	4765.279	-9.286809	-1.05826E-007	0.0198792	7
	10	15	100078.1	4762.226	-681.3708	1	4810.723	-8.142516	-4.201435E-008	0.0196157	7
	11	17	79453.13	4817.481	-618.5425	1	4857.028	-7.316486	-7.625181E-008	0.0196874	7
	12	18	63140.62	4867.817	-572.4208	1	4901.358	-6.706776	-2.887348E-008	0.0195509	7
	13	19	50203.12	4913.084	-541.9575	1	4942.885	-6.294792	9.274E-008	0.0194973	7
	14	21	39890.62	4956.492	-527.4691	1	4984.48	-6.074545	-5.320648E-008	0.0196016	7
	15	22	31640.63	4999.767	-525.5909	1	5027.317	-6.001068	-4.404505E-009	0.0196027	7
	16	23	25171.88	5042.875	-537.2469	1	5071.413	-6.081116	8.795807E-008	0.0193819	7
	17	25	20015.62	5086.918	-562.4564	1	5117.919	-6.309518	9.531221E-008	0.0194966	7
	18	26	15890.62	5134.262	-601.4483	1	5169.37	-6.681409	1.389932E-007	0.0193528	7
	19	27	12609.37	5185.037	-658.1597	1	5226.642	-7.23412	9.509967E-008	0.0194927	7
	20	29	10078.13	5236.467	-727.6421	1	5286.78	-7.910974	8.672353E-008	0.0193744	7
	21	30	8015.625	5293.427	-817.2291	1	5356.14	-8.776355	1.387712E-007	0.0193512	7
	22	32	6328.125	5357.045	-935.4984	1	5438.114	-9.90565	-7.346394E-008	0.0196691	7
	23	33	5015.625	5426.293	-1078.196	1	5532.374	-11.23821	7.010877E-008	0.0194407	7
	24	34	3984.375	5500.397	-1252.299	1	5641.155	-12.82614	-6.045362E-009	0.0195039	7
	25	36	3170.956	5581.741	-1467.58	1	5771.449	-14.73109	-2.058901E-009	0.0196752	7
	26	37	2527.573	5672.991	-1727.405	1	5930.156	-16.9353	-7.481881E-008	0.0196648	7
	27	38	1976.103	5782.414	-2070.377	1	6141.886	-19.69976	-3.965686E-008	0.0195727	7
	28	40	1577.524	5902.531	-2462.455	1	6395.589	-22.64523	-4.159366E-008	0.0195687	7
	29	41	1265.625	6020.828	-2927.254	1	6694.713	-25.92846	1.387245E-007	0.019347	7
	30	42	998.264	6190.831	-3535.834	1	7129.412	-29.73244	-3.933758E-008	0.0196422	7
	31	44	796.875	6369.615	-4246.11	1	7655.159	-33.6882	7.972713E-010	0.0196829	7
	32	45	627.7902	6583.249	-5157.736	1	8363.098	-38.07741	4.33593E-008	0.0194133	7
	33	47	505.5147	6811.995	-6180.586	1	9197.984	-42.21775	1.398461E-007	0.0193486	7
	34	48	397.9953	7108.049	-7553.409	1	10372	-46.73989	1.086101E-009	0.0195199	6
	35	49	315.5048	7442.961	-9208.763	1	11840.56	-51.0532	5.418732E-010	0.0195177	6
	36	51	252.4038	7822.93	-11164.2	1	13632.23	-54.98047	6.541196E-010	0.0195125	6
	37	52	198.6229	8317.36	-13755.69	1	16074.75	-58.8408	8.052987E-010	0.0195127	6
	38	53	158.3615	8889.758	-16784.73	1	18993.55	-62.09281	8.895169E-010	0.0195057	6
	39	55	125.558	9631.92	-20612.2	1	22751.63	-64.95368	6.934251E-010	0.0195122	6
	40	56	100.4464	10521.56	-25113.17	1	27228.19	-67.26799	9.819028E-010	0.019514	6
	41	57	79.00281	11752.62	-31089.06	1	33236.33	-69.29187	5.07435E-010	0.0195125	6
	42	59	63.3446	13049.52	-37855	1	40041.12	-70.97971	9.405118E-010	0.0195126	6
	43	60	49.86702	15643.36	-46621.98	1	49176.45	-71.45153	9.50592E-010	0.0195054	6
	44	62	39.72458	18242.38	-57062.81	1	59907.84	-72.27148	8.421788E-010	0.0195062	6
	45	63	31.6723	21772.05	-69609.32	1	72934.77	-72.63163	9.222731E-010	0.0195067	6
	46	64	24.93351	26800.08	-85360.27	1	89468.55	-72.56957	5.022463E-010	0.0195056	6
	47	66	19.86229	33150.58	-103240.2	1	108432	-72.1981	7.009073E-010	0.0195145	5
	48	67	15.83615	41265.68	-124096	1	130777.2	-71.60647	6.076979E-010	0.019514	5
	49	69	12.40079	52174.63	-152801.8	1	161463.9	-71.14738	-1.463172E-010	0.0195124	5
	50	70	9.93114	65956.26	-181259.5	1	192886.6	-70.00469	4.276496E-010	0.0195074	5
	51	72	7.944915	82932.16	-214240	1	229731.4	-68.83861	-2.876352E-010	0.0195189	5
	52	73	6.317385	105195.7	-254401.8	1	275293.3	-67.53481	1.868706E-010	0.0195084	5
	53	75	5.008013	133235	-300694.7	1	328890.4	-66.10232	-8.087982E-011	0.0195144	5
	54	78	3.945707	168620.5	-354416.7	1	392484.4	-64.55634	6.202534E-011	0.0195179	5
	55	80	3.158693	209050.1	-410597.6	1	460751.9	-63.01771	4.895775E-011	0.0195082	5
	56	84	2.504006	259418.2	-475572.2	1	541725.6	-61.38813	1.627943E-010	0.0195277	5
	57	87	1.998082	317340.8	-544315.4	1	630067.1	-59.75743	3.839959E-010	0.0195175	5
	58	90	1.584686	389988.3	-621961.2	1	734116.2	-57.91106	-3.476711E-012	0.0194729	5
	59	93	1.266892	467019.8	-700123.8	1	841594.2	-56.29461	2.816284E-010	0.0195061	5
	60	98	0.999041	562237.4	-793000.4	1	972091	-54.66335	-2.491524E-010	0.0195224	5
