EXPLAIN
TAG	EISPOT
TITLE	LABEL	Potentiostatic EIS	Test &Identifier
DATE	LABEL	11/5/2019	Date
TIME	LABEL	8:23:53	Time
NOTES	NOTES	2	&Notes...
	
	
PSTAT	PSTAT	REF600-11020	Potentiostat
VDC	POTEN	0.00000E+000	T	DC &Voltage (V)
FREQINIT	QUANT	1.00000E+006	Initial Fre&q. (Hz)
FREQFINAL	QUANT	1.00000E+000	Final Fre&q. (Hz)
PTSPERDEC	QUANT	1.00000E+001	Points/&decade
VAC	QUANT	2.50000E+001	AC &Voltage (mV rms)
AREA	QUANT	1.00000E-002	&Area (cm^2)
CONDIT	TWOPARAM	T	5.00000E+000	0.00000E+000	Conditionin&g	Time(s)	E(V)
DELAY	TWOPARAM	T	5.00000E+000	0.00000E+000	Init. De&lay	Time(s)	Stab.(mV/s)
SPEED	SELECTOR	1	&Optimize for:
ZGUESS	QUANT	1.00000E+005	E&stimated Z (ohms)
OCVCURVE	TABLE	19
	Pt	T	Vf	Vm	Ach	Over
	#	s	V vs. Ref.	V	V	bits
	0	0.258333	8.00250E-004	8.00250E-004	5.79899E-004	...........
	1	0.516667	7.93581E-004	4.51172E-004	5.74832E-004	...........
	2	0.775	7.52902E-004	1.34434E-004	5.72599E-004	...........
	3	1.03333	6.39330E-004	-1.37699E-004	5.69599E-004	...........
	4	1.29167	4.40766E-004	-3.86388E-004	5.72799E-004	...........
	5	1.55	1.85401E-004	-6.30304E-004	5.73632E-004	...........
	6	1.80833	-8.63921E-005	-8.28986E-004	5.74599E-004	...........
	7	2.06667	-3.46264E-004	-9.63877E-004	5.76932E-004	...........
	8	2.325	-5.70963E-004	-7.03349E-004	5.70966E-004	...........
	9	2.58333	-7.30313E-004	-8.73219E-004	5.74199E-004	...........
	10	2.84167	-8.15493E-004	-1.11777E-003	5.74932E-004	...........
	11	3.1	-8.71872E-004	-1.32623E-003	5.80332E-004	...........
	12	3.35833	-9.62459E-004	-1.52175E-003	5.76632E-004	...........
	13	3.61667	-1.10916E-003	-1.68684E-003	5.78066E-004	...........
	14	3.875	-1.29165E-003	-1.84419E-003	5.75465E-004	...........
	15	4.13333	-1.48225E-003	-2.06168E-003	5.76066E-004	...........
	16	4.39167	-1.67482E-003	-2.55925E-003	5.72332E-004	...........
	17	4.65	-1.88872E-003	-2.64050E-003	5.76566E-004	...........
	18	4.90833	-2.13510E-003	-2.87501E-003	5.81099E-004	...........
EOC	QUANT	-0.0021351	Open Circuit (V)
PSTATMODEL	IQUANT	4	Pstat Model
PSTATSECTION	LABEL	REF600-11020	Pstat Section
PSTATSERIALNO	LABEL	11020	Pstat Serial Number
CTRLMODE	IQUANT	1	Control Mode
IESTAB	IQUANT	0	I/E Stability
CASPEED	IQUANT	1	Control Amp Speed
CONVENTION	IQUANT	1	Current Convention
ICHRANGE	IQUANT	2	Ich Range
ICHRANGEMODE	TOGGLE	F	Ich Auto Range
ICHOFFSETENABLE	TOGGLE	T	Ich Offset Enable
ICHOFFSET	QUANT	0	Ich Offset (V)
ICHFILTER	IQUANT	3	Ich Filter
VCHRANGE	IQUANT	2	Vch Range
VCHRANGEMODE	TOGGLE	F	Vch Auto Range
VCHOFFSETENABLE	TOGGLE	T	Vch Offset Enable
VCHOFFSET	QUANT	0	Vch Offset (V)
VCHFILTER	IQUANT	3	Vch Filter
ACHRANGE	IQUANT	2	Ach Range
ACHOFFSETENABLE	TOGGLE	F	Ach Offset Enable
ACHOFFSET	QUANT	0	Ach Offset (V)
ACHFILTER	IQUANT	3	Ach Filter
IERANGELOWERLIMIT	IQUANT	1	I/E Range Lower Limit
IERANGEMODE	TOGGLE	F	I/E AutoRange
IERANGE	IQUANT	4	I/E Range
POSFEEDENABLE	TOGGLE	F	Positive Feedback IR Comp
POSFEEDRESISTANCE	QUANT	0	Positive Feedback Resistance (ohm)
ACHSELECT	IQUANT	0	Ach Select
CABLEID	IQUANT	14	Cable ID
DCCALDATE	LABEL	8/19/2019	DC Calibration Date
ACCALDATE	LABEL	8/19/2019	AC Calibration Date
THERMOSELECT	IQUANT	1	Thermo Select
FRAMEWORKVERSION	QUANT	6.33	Framework Version
INSTRUMENTVERSION	LABEL	3.50	Instrument Version
ZCURVE	TABLE
	Pt	Time	Freq	Zreal	Zimag	Zsig	Zmod	Zphz	Idc	Vdc	IERange
	#	s	Hz	ohm	ohm	V	ohm	°	A	V	#
	0	1	1000078	2273.155	-1441.277	1	2691.563	-32.37643	-3.017749E-006	-0.000594	8
	1	3	794390.6	2554.667	-1354.481	1	2891.529	-27.93247	-1.483578E-006	-0.0003708	8
	2	4	630984.4	2790.188	-1240.711	1	3053.607	-23.97325	-5.071938E-006	-0.0002352	8
	3	5	501234.4	2988.346	-1106.91	1	3186.764	-20.32508	-8.88521E-007	-0.0002261	8
	4	7	398109.4	3145.246	-963.584	1	3289.539	-17.03307	6.598231E-006	-0.0015175	8
	5	8	316265.6	3262.787	-845.8185	1	3370.636	-14.53299	-6.531156E-007	-0.0010423	8
	6	10	251203.1	3348.442	-732.2186	1	3427.565	-12.33496	-8.789351E-007	-0.0003147	8
	7	11	199546.9	3416.147	-636.8339	1	3474.999	-10.5598	-6.013723E-006	0.0001145	8
	8	12	158578.1	3479.877	-560.5538	1	3524.736	-9.150846	6.956717E-006	-0.0014777	8
	9	14	125953.1	3552.207	-448.3879	1	3580.394	-7.194282	2.794472E-006	-0.0024731	7
	10	15	100078.1	3577.917	-402.3795	1	3600.472	-6.416635	9.996168E-007	-0.0024871	7
	11	16	79453.13	3609.78	-388.0441	1	3630.577	-6.13562	8.030212E-007	-0.0025902	7
	12	18	63140.62	3641.397	-378.1497	1	3660.979	-5.928767	3.821498E-007	-0.0002406	7
	13	19	50203.12	3675.63	-376.7447	1	3694.887	-5.852266	1.020459E-006	-0.0014921	7
	14	21	39890.62	3706.794	-382.8274	1	3726.51	-5.896444	-7.195567E-007	-0.0009904	7
	15	22	31640.63	3744.285	-398.1579	1	3765.395	-6.06988	1.115398E-006	-0.0019288	7
	16	23	25171.88	3780.164	-422.9743	1	3803.755	-6.384447	-9.200152E-007	0.0009085	7
	17	25	20015.62	3822.006	-457.2337	1	3849.259	-6.82198	1.411122E-007	-0.0021996	7
	18	26	15890.62	3863.761	-499.9563	1	3895.973	-7.372895	-6.426743E-007	0.0008353	7
	19	27	12609.37	3909.311	-553.2269	1	3948.262	-8.054738	-1.232272E-006	0.0002802	7
	20	29	10078.13	3961.36	-621.9952	1	4009.894	-8.923473	5.669757E-008	0.0001916	7
	21	30	8015.625	4017.08	-701.0328	1	4077.791	-9.89917	1.410684E-007	-0.0022034	7
	22	31	6328.125	4077.129	-799.582	1	4154.794	-11.09568	-1.252336E-006	0.0006739	7
	23	33	5015.625	4137.542	-920.9056	1	4238.788	-12.54796	5.911975E-008	0.0001944	7
	24	34	3984.375	4203.733	-1068.124	1	4337.31	-14.25655	5.895413E-008	0.0001984	7
	25	36	3170.956	4274.664	-1246.561	1	4452.715	-16.25754	-1.252679E-006	0.0006793	7
	26	37	2527.573	4353.401	-1464.13	1	4593.014	-18.58875	1.417732E-007	-0.0022075	7
	27	38	1976.103	4442.304	-1753.323	1	4775.793	-21.53855	-7.188472E-007	-0.0009943	7
	28	40	1577.524	4533.986	-2077.734	1	4987.385	-24.61998	-1.052326E-006	-0.0002967	7
	29	41	1265.625	4646.972	-2475.131	1	5265.037	-28.04124	-7.216616E-007	-0.0010035	7
	30	42	998.264	4767.561	-2996.09	1	5630.825	-32.14658	-2.890975E-007	-0.0017022	7
	31	44	796.875	4900.846	-3604.554	1	6083.675	-36.33434	1.425952E-007	-0.002215	7
	32	45	627.7902	5068.991	-4404.375	1	6715.146	-40.98692	-7.216339E-007	-0.000999	7
	33	47	505.5147	5251.573	-5293.147	1	7456.301	-45.22589	-1.253933E-006	0.0006644	7
	34	48	397.9953	5484.723	-6518.822	1	8519.227	-49.92384	4.564752E-009	-0.00078	7
	35	49	315.5048	5772.506	-7988.42	1	9855.79	-54.14778	6.388923E-009	-0.0007832	7
	36	51	252.4038	6120.963	-9721.16	1	11487.7	-57.80328	6.845418E-010	-0.000843	6
	37	52	198.6229	6594.592	-12019.75	1	13709.96	-61.24879	3.646272E-010	-0.0008299	6
	38	53	158.3615	7172.933	-14688.97	1	16346.77	-63.97278	2.311444E-011	-0.0008423	6
	39	55	125.558	7951.542	-18042.64	1	19717.1	-66.21651	8.833892E-010	-0.0008449	6
	40	56	100.4464	8902.426	-21971.81	1	23706.83	-67.94345	3.291624E-010	-0.0008451	6
	41	57	79.00281	10277.69	-27065.46	1	28951.17	-69.20651	2.537557E-010	-0.0008482	6
	42	59	63.3446	11742.17	-32619.14	1	34668.24	-70.20225	8.161192E-010	-0.0008459	6
	43	60	49.86702	14549.33	-40075.83	1	42635.14	-70.04682	-1.327505E-010	-0.0008537	6
	44	62	39.72458	17492.64	-48871.14	1	51907.42	-70.30598	7.226305E-010	-0.0008414	6
	45	63	31.6723	21481.21	-58959.07	1	62750.41	-69.98124	1.190408E-009	-0.0008404	6
	46	65	24.93351	27242.94	-71355.09	1	76378.84	-69.10345	3.220992E-010	-0.0008318	6
	47	66	19.86229	34347.49	-85104.53	1	91774.35	-68.0214	2.252438E-010	-0.0008484	6
	48	67	15.83615	42676.99	-101569.5	1	110171.2	-67.20907	2.394562E-009	-0.0008365	5
	49	69	12.40079	54626.16	-120224.1	1	132052.5	-65.56441	7.080138E-010	-0.0008295	5
	50	70	9.93114	69829.67	-139377.8	1	155892.1	-63.38867	8.907136E-010	-0.0008331	5
	51	72	7.944915	86841.98	-160408.6	1	182407.4	-61.56978	7.818581E-010	-0.0008337	5
	52	73	6.317385	106228.4	-183490	1	212021.3	-59.93204	9.470443E-010	-0.0008449	5
	53	75	5.008013	129572.9	-208927.7	1	245845.3	-58.1936	5.819861E-010	-0.0008181	5
	54	78	3.945707	156193.9	-237122.2	1	283942.8	-56.62685	1.291977E-010	-0.0008347	5
	55	81	3.158693	183025.9	-265773.4	1	322697.9	-55.44661	4.104857E-010	-0.0008138	5
	56	84	2.504006	212899	-299713.9	1	367633.5	-54.61227	5.536948E-011	-0.0008379	5
	57	87	1.998082	243209.5	-337440.3	1	415952.9	-54.21789	-8.123388E-011	-0.000837	5
	58	90	1.584686	276814.1	-382169.8	1	471889.6	-54.08335	2.614432E-010	-0.0007808	5
	59	93	1.266892	310298.7	-435145.9	1	534450.4	-54.50767	5.90795E-012	-0.0008229	5
	60	98	0.999041	351008.5	-503234.7	1	613556.9	-55.10405	5.086509E-010	-0.0008313	5
