EXPLAIN
TAG	EISPOT
TITLE	LABEL	Potentiostatic EIS	Test &Identifier
DATE	LABEL	8/16/2017	Date
TIME	LABEL	16:54:36	Time
NOTES	NOTES	1	&Notes...
	
PSTAT	PSTAT	REF600-11020	Potentiostat
VDC	POTEN	0.00000E+000	T	DC &Voltage (V)
FREQINIT	QUANT	1.00000E+006	Initial Fre&q. (Hz)
FREQFINAL	QUANT	1.00000E+000	Final Fre&q. (Hz)
PTSPERDEC	QUANT	1.00000E+001	Points/&decade
VAC	QUANT	2.50000E+001	AC &Voltage (mV rms)
AREA	QUANT	1.00000E-002	&Area (cm^2)
CONDIT	TWOPARAM	T	5.00000E+000	0.00000E+000	Conditionin&g	Time(s)	E(V)
DELAY	TWOPARAM	T	5.00000E+000	0.00000E+000	Init. De&lay	Time(s)	Stab.(mV/s)
SPEED	SELECTOR	0	&Optimize for:
ZGUESS	QUANT	1.00000E+005	E&stimated Z (ohms)
OCVCURVE	TABLE	19
	Pt	T	Vf	Vm	Ach	Over
	#	s	V vs. Ref.	V	V	bits
	0	0.258333	5.20297E-003	5.20297E-003	6.12865E-004	...........
	1	0.516667	5.20616E-003	5.37004E-003	6.11232E-004	...........
	2	0.775	5.22622E-003	5.55269E-003	6.11498E-004	...........
	3	1.03333	5.28456E-003	5.73019E-003	6.00332E-004	...........
	4	1.29167	5.39157E-003	5.87210E-003	6.07032E-004	...........
	5	1.55	5.53596E-003	6.03378E-003	6.01698E-004	...........
	6	1.80833	5.69651E-003	6.17545E-003	6.09065E-004	...........
	7	2.06667	5.85721E-003	6.29695E-003	6.12998E-004	...........
	8	2.325	6.01030E-003	6.42897E-003	6.06365E-004	...........
	9	2.58333	6.15358E-003	6.56083E-003	6.12532E-004	...........
	10	2.84167	6.28903E-003	6.68936E-003	6.11932E-004	...........
	11	3.1	6.42016E-003	6.80943E-003	6.10532E-004	...........
	12	3.35833	6.54848E-003	6.90952E-003	6.11632E-004	...........
	13	3.61667	6.67251E-003	7.01827E-003	6.13532E-004	...........
	14	3.875	6.79047E-003	7.13545E-003	6.16565E-004	...........
	15	4.13333	6.90320E-003	7.23332E-003	6.17332E-004	...........
	16	4.39167	7.01276E-003	7.33378E-003	6.05432E-004	...........
	17	4.65	7.11962E-003	7.42547E-003	6.09098E-004	...........
	18	4.90833	7.22317E-003	7.53512E-003	6.07298E-004	...........
EOC	QUANT	0.0072232	Open Circuit (V)
PSTATMODEL	IQUANT	4	Pstat Model
PSTATSECTION	LABEL	REF600-11020	Pstat Section
PSTATSERIALNO	LABEL	11020	Pstat Serial Number
CTRLMODE	IQUANT	1	Control Mode
IESTAB	IQUANT	0	I/E Stability
CASPEED	IQUANT	1	Control Amp Speed
CONVENTION	IQUANT	1	Current Convention
ICHRANGE	IQUANT	2	Ich Range
ICHRANGEMODE	TOGGLE	F	Ich Auto Range
ICHOFFSETENABLE	TOGGLE	T	Ich Offset Enable
ICHOFFSET	QUANT	0	Ich Offset (V)
ICHFILTER	IQUANT	3	Ich Filter
VCHRANGE	IQUANT	2	Vch Range
VCHRANGEMODE	TOGGLE	F	Vch Auto Range
VCHOFFSETENABLE	TOGGLE	T	Vch Offset Enable
VCHOFFSET	QUANT	0	Vch Offset (V)
VCHFILTER	IQUANT	3	Vch Filter
ACHRANGE	IQUANT	2	Ach Range
ACHOFFSETENABLE	TOGGLE	F	Ach Offset Enable
ACHOFFSET	QUANT	0	Ach Offset (V)
ACHFILTER	IQUANT	3	Ach Filter
IERANGELOWERLIMIT	IQUANT	1	I/E Range Lower Limit
IERANGEMODE	TOGGLE	F	I/E AutoRange
IERANGE	IQUANT	5	I/E Range
POSFEEDENABLE	TOGGLE	F	Positive Feedback IR Comp
POSFEEDRESISTANCE	QUANT	0	Positive Feedback Resistance (ohm)
ACHSELECT	IQUANT	0	Ach Select
CABLEID	IQUANT	14	Cable ID
DCCALDATE	LABEL	8/19/2019	DC Calibration Date
ACCALDATE	LABEL	8/19/2019	AC Calibration Date
THERMOSELECT	IQUANT	1	Thermo Select
FRAMEWORKVERSION	QUANT	6.33	Framework Version
INSTRUMENTVERSION	LABEL	3.50	Instrument Version
ZCURVE	TABLE
	Pt	Time	Freq	Zreal	Zimag	Zsig	Zmod	Zphz	Idc	Vdc	IERange
	#	s	Hz	ohm	ohm	V	ohm	°	A	V	#
	0	1	1000078	1694.965	-773.8165	1	1863.25	-24.53851	1.986091E-006	0.0096848	8
	1	2	794390.6	1803.516	-741.4587	1	1949.983	-22.34846	-1.158715E-006	0.0097669	8
	2	2	630984.4	1913.955	-705.5361	1	2039.854	-20.23526	-4.042749E-006	0.0096797	8
	3	2	501234.4	2015.134	-669.4505	1	2123.424	-18.37708	-4.376544E-006	0.0093004	8
	4	3	398109.4	2113.379	-628.4651	1	2204.844	-16.56114	-4.355975E-006	0.009231	8
	5	3	316265.6	2200.771	-592.0782	1	2279.024	-15.05787	-3.462673E-006	0.009413	8
	6	3	251203.1	2282.674	-561.0677	1	2350.616	-13.80921	4.001402E-006	0.0087937	8
	7	4	199546.9	2358.685	-526.3582	1	2416.702	-12.57986	-8.856122E-007	0.00925	8
	8	4	158578.1	2407.909	-491.7046	1	2457.6	-11.54135	-2.686803E-006	0.0093663	8
	9	4	125953.1	2507.303	-433.3922	1	2544.484	-9.80678	-4.828629E-007	0.0115943	7
	10	5	100078.1	2559.899	-414.2777	1	2593.204	-9.192685	3.871909E-007	0.0092043	7
	11	5	79453.13	2607.664	-402.4638	1	2638.539	-8.773735	6.826453E-008	0.0076322	7
	12	5	63140.62	2652.262	-399.0815	1	2682.119	-8.557006	-9.509415E-007	0.0092974	7
	13	5	50203.12	2705.742	-401.4109	1	2735.355	-8.438578	9.73463E-007	0.0077355	7
	14	6	39890.62	2749.438	-405.0042	1	2779.107	-8.379657	6.702082E-008	0.0076217	7
	15	6	31640.63	2801.101	-415.661	1	2831.773	-8.44064	5.773794E-007	0.0089011	7
	16	6	25171.88	2845.529	-427.7897	1	2877.506	-8.549675	-7.786522E-007	0.0102884	7
	17	7	20015.62	2894.807	-447.039	1	2929.122	-8.77872	-1.09683E-006	0.0097999	7
	18	7	15890.62	2947.611	-472.1545	1	2985.187	-9.10045	-3.03303E-007	0.0080803	7
	19	7	12609.37	3006.909	-507.7411	1	3049.476	-9.58445	5.767997E-007	0.0088982	7
	20	8	10078.13	3057.009	-545.4957	1	3105.297	-10.11743	3.947233E-007	0.007349	7
	21	8	8015.625	3119.988	-591.4434	1	3175.552	-10.73396	6.562746E-007	0.007234	7
	22	8	6328.125	3186.728	-649.1135	1	3252.166	-11.51323	8.432313E-007	0.0072875	7
	23	9	5015.625	3248.343	-715.2233	1	3326.15	-12.41731	-7.786116E-007	0.0102791	7
	24	9	3984.375	3316.378	-794.5928	1	3410.241	-13.47387	-2.997244E-007	0.0080732	7
	25	9	3170.956	3391.539	-891.0165	1	3506.629	-14.71996	5.766121E-007	0.0088933	7
	26	10	2527.573	3457.06	-1005.681	1	3600.369	-16.22005	1.003879E-007	0.0095969	7
	27	10	1976.103	3528.818	-1163.388	1	3715.647	-18.24646	-5.227752E-007	0.0101885	7
	28	10	1577.524	3597.272	-1341.291	1	3839.196	-20.44864	9.106733E-007	0.008099	7
	29	11	1265.625	3667.111	-1571.036	1	3989.468	-23.19089	3.886678E-007	0.0091883	7
	30	11	998.264	3739.502	-1870.181	1	4181.083	-26.57032	-1.097084E-006	0.0101227	7
	31	11	796.875	3831.68	-2244.015	1	4440.425	-30.35528	9.505381E-007	0.0074666	7
	32	11	627.7902	3934.48	-2725.225	1	4786.124	-34.70848	9.959609E-008	0.0095949	7
	33	12	505.5147	4045.616	-3264.98	1	5198.76	-38.90497	6.943367E-008	0.0076186	7
	34	12	397.9953	4208.824	-4010.796	1	5813.836	-43.61989	5.113008E-009	0.0088063	7
	35	12	315.5048	4406.177	-4905.895	1	6594.104	-48.07175	4.807756E-009	0.0088079	7
	36	13	252.4038	4650.298	-5958.359	1	7558.261	-52.02916	7.099979E-010	0.0088059	7
	37	13	198.6229	4995.264	-7343.222	1	8881.192	-55.7743	4.877106E-010	0.0088089	7
	38	13	158.3615	5425.701	-8941.425	1	10458.84	-58.75042	9.83237E-010	0.0087513	6
	39	14	125.558	6005.228	-10923.55	1	12465.42	-61.20018	5.084972E-010	0.008743	6
	40	14	100.4464	6732.884	-13204.91	1	14822.33	-62.984	1.43022E-009	0.0087397	6
	41	14	79.00281	7785.573	-16141.73	1	17921.24	-64.25079	1.173265E-010	0.0087384	6
	42	15	63.3446	8987.049	-19552.48	1	21518.98	-65.31473	-6.209122E-010	0.0087423	6
	43	15	49.86702	10720.55	-23613.88	1	25933.48	-65.58224	-1.273117E-009	0.0087391	6
	44	16	39.72458	12928.98	-28102.79	1	30934.21	-65.29472	-7.122392E-011	0.0087409	6
	45	16	31.6723	15631.65	-33275.73	1	36764.42	-64.83768	8.687147E-010	0.0087346	6
	46	16	24.93351	19084.26	-39712.96	1	44060.5	-64.33316	-1.120062E-009	0.0087325	6
	47	16	19.86229	23243.31	-46692.19	1	52157.57	-63.53594	-2.758088E-009	0.008739	6
	48	17	15.83615	28092.24	-54991.14	1	61751.11	-62.93977	-2.812779E-009	0.0087357	6
	49	17	12.40079	34567.44	-63721.26	1	72493.49	-61.5211	1.57458E-009	0.008742	6
	50	17	9.93114	41347.76	-73696.79	1	84503.57	-60.70529	1.996153E-010	0.0087309	6
	51	18	7.944915	49069.69	-84373.21	1	97604.7	-59.81861	-1.42125E-009	0.0087439	6
	52	19	6.317385	58149.77	-96627.1	1	112774.9	-58.96064	-9.758971E-010	0.008753	5
	53	19	5.008013	68272.16	-110651.2	1	130018.4	-58.32528	-2.72933E-010	0.0087416	5
	54	20	3.945707	79476.52	-126890.5	1	149725.5	-57.93946	-1.493803E-010	0.0087329	5
	55	22	3.158693	90224.45	-145001.4	1	170780.2	-58.10883	7.419867E-011	0.0087401	5
	56	23	2.504006	101852.2	-167036.8	1	195640.5	-58.62687	-2.051932E-010	0.0087375	5
	57	25	1.998082	113290.3	-193266.9	1	224024.1	-59.62177	-3.118086E-010	0.0086997	5
	58	26	1.584686	125319.9	-225787.7	1	258234.7	-60.96823	-8.43429E-011	0.0087462	5
	59	28	1.266892	138413.7	-265660	1	299555.7	-62.47966	-6.314239E-011	0.0087689	5
	60	31	0.999041	153231.5	-318886	1	353791.1	-64.33472	-8.575284E-011	0.0087787	5
