EXPLAIN
TAG	EISPOT
TITLE	LABEL	Potentiostatic EIS	Test &Identifier
DATE	LABEL	10/18/2019	Date
TIME	LABEL	10:05:02	Time
NOTES	NOTES	1	&Notes...
	
PSTAT	PSTAT	REF600-11020	Potentiostat
VDC	POTEN	0.00000E+000	T	DC &Voltage (V)
FREQINIT	QUANT	1.00000E+006	Initial Fre&q. (Hz)
FREQFINAL	QUANT	1.00000E+000	Final Fre&q. (Hz)
PTSPERDEC	QUANT	1.00000E+001	Points/&decade
VAC	QUANT	2.50000E+001	AC &Voltage (mV rms)
AREA	QUANT	1.00000E-002	&Area (cm^2)
CONDIT	TWOPARAM	T	5.00000E+000	0.00000E+000	Conditionin&g	Time(s)	E(V)
DELAY	TWOPARAM	T	5.00000E+000	0.00000E+000	Init. De&lay	Time(s)	Stab.(mV/s)
SPEED	SELECTOR	0	&Optimize for:
ZGUESS	QUANT	1.00000E+005	E&stimated Z (ohms)
OCVCURVE	TABLE	19
	Pt	T	Vf	Vm	Ach	Over
	#	s	V vs. Ref.	V	V	bits
	0	0.258333	6.58346E-003	6.58346E-003	5.08700E-004	...........
	1	0.516667	6.58352E-003	6.58669E-003	5.06567E-004	...........
	2	0.775	6.58398E-003	6.59379E-003	5.14833E-004	...........
	3	1.03333	6.58623E-003	6.63733E-003	5.13967E-004	...........
	4	1.29167	6.59347E-003	6.66148E-003	5.11133E-004	...........
	5	1.55	6.60919E-003	6.71528E-003	5.14300E-004	...........
	6	1.80833	6.63458E-003	6.74941E-003	5.13100E-004	...........
	7	2.06667	6.66824E-003	6.79980E-003	5.10900E-004	...........
	8	2.325	6.70755E-003	6.84218E-003	5.16100E-004	...........
	9	2.58333	6.75022E-003	6.89272E-003	5.15266E-004	...........
	10	2.84167	6.79510E-003	6.94852E-003	5.10433E-004	...........
	11	3.1	6.84187E-003	6.98208E-003	5.13233E-004	...........
	12	3.35833	6.88998E-003	7.05145E-003	5.21133E-004	...........
	13	3.61667	6.93877E-003	7.08249E-003	5.20733E-004	...........
	14	3.875	6.98793E-003	7.14263E-003	5.15700E-004	...........
	15	4.13333	7.03673E-003	7.16745E-003	5.18166E-004	...........
	16	4.39167	7.08399E-003	7.22518E-003	5.14200E-004	...........
	17	4.65	7.12954E-003	7.27694E-003	5.19266E-004	...........
	18	4.90833	7.17489E-003	7.31582E-003	5.16333E-004	...........
EOC	QUANT	0.0071749	Open Circuit (V)
PSTATMODEL	IQUANT	4	Pstat Model
PSTATSECTION	LABEL	REF600-11020	Pstat Section
PSTATSERIALNO	LABEL	11020	Pstat Serial Number
CTRLMODE	IQUANT	1	Control Mode
IESTAB	IQUANT	0	I/E Stability
CASPEED	IQUANT	1	Control Amp Speed
CONVENTION	IQUANT	1	Current Convention
ICHRANGE	IQUANT	2	Ich Range
ICHRANGEMODE	TOGGLE	F	Ich Auto Range
ICHOFFSETENABLE	TOGGLE	T	Ich Offset Enable
ICHOFFSET	QUANT	0	Ich Offset (V)
ICHFILTER	IQUANT	3	Ich Filter
VCHRANGE	IQUANT	2	Vch Range
VCHRANGEMODE	TOGGLE	F	Vch Auto Range
VCHOFFSETENABLE	TOGGLE	T	Vch Offset Enable
VCHOFFSET	QUANT	0	Vch Offset (V)
VCHFILTER	IQUANT	3	Vch Filter
ACHRANGE	IQUANT	2	Ach Range
ACHOFFSETENABLE	TOGGLE	F	Ach Offset Enable
ACHOFFSET	QUANT	0	Ach Offset (V)
ACHFILTER	IQUANT	3	Ach Filter
IERANGELOWERLIMIT	IQUANT	1	I/E Range Lower Limit
IERANGEMODE	TOGGLE	F	I/E AutoRange
IERANGE	IQUANT	5	I/E Range
POSFEEDENABLE	TOGGLE	F	Positive Feedback IR Comp
POSFEEDRESISTANCE	QUANT	0	Positive Feedback Resistance (ohm)
ACHSELECT	IQUANT	0	Ach Select
CABLEID	IQUANT	14	Cable ID
DCCALDATE	LABEL	8/19/2019	DC Calibration Date
ACCALDATE	LABEL	8/19/2019	AC Calibration Date
THERMOSELECT	IQUANT	1	Thermo Select
FRAMEWORKVERSION	QUANT	6.33	Framework Version
INSTRUMENTVERSION	LABEL	3.50	Instrument Version
ZCURVE	TABLE
	Pt	Time	Freq	Zreal	Zimag	Zsig	Zmod	Zphz	Idc	Vdc	IERange
	#	s	Hz	ohm	ohm	V	ohm	°	A	V	#
	0	1	1000078	2405.462	-1382.115	1	2774.255	-29.88054	4.889832E-006	0.0087036	8
	1	1	794390.6	2637.077	-1302.281	1	2941.107	-26.28177	-3.469066E-007	0.0091213	8
	2	2	630984.4	2874.081	-1200.245	1	3114.632	-22.6659	-1.451293E-006	0.0094164	8
	3	2	501234.4	3062.874	-1079.192	1	3247.438	-19.40971	-2.389683E-006	0.0094932	8
	4	2	398109.4	3211.161	-947.9102	1	3348.147	-16.4462	4.990516E-007	0.0089174	8
	5	2	316265.6	3340.569	-825.7336	1	3441.109	-13.88426	1.355805E-006	0.0086191	8
	6	3	251203.1	3432.694	-722.6742	1	3507.94	-11.88869	-8.281384E-007	0.0091868	8
	7	3	199546.9	3496.861	-621.0833	1	3551.588	-10.07137	-3.98466E-007	0.0088684	8
	8	3	158578.1	3558.633	-539.7482	1	3599.333	-8.624484	2.637478E-007	0.0088764	8
	9	4	125953.1	3631.277	-441.1144	1	3657.972	-6.926147	5.922764E-008	0.0089005	7
	10	4	100078.1	3652.118	-383.4931	1	3672.197	-5.994415	-3.593381E-008	0.0088445	7
	11	4	79453.13	3681.75	-362.0156	1	3699.505	-5.615674	5.653188E-008	0.008742	7
	12	5	63140.62	3713.115	-344.9966	1	3729.107	-5.308282	-4.554915E-008	0.0089432	7
	13	5	50203.12	3743.119	-335.7622	1	3758.148	-5.12578	-2.264296E-008	0.0088667	7
	14	5	39890.62	3774.54	-336.0492	1	3789.469	-5.087659	6.775121E-009	0.0087589	7
	15	6	31640.63	3806.539	-343.4666	1	3822.003	-5.155875	7.524853E-008	0.0086646	7
	16	6	25171.88	3840.112	-358.5051	1	3856.81	-5.333559	-5.648974E-008	0.0088973	7
	17	6	20015.62	3882.264	-400.039	1	3902.821	-5.883148	-2.210538E-008	0.0088043	7
	18	7	15890.62	3919.28	-406.7216	1	3940.327	-5.924638	6.528238E-009	0.008757	7
	19	7	12609.37	3964.811	-439.2089	1	3989.064	-6.321267	7.389053E-008	0.0086672	7
	20	7	10078.13	4012.642	-476.7516	1	4040.865	-6.775685	9.292905E-008	0.0087454	7
	21	8	8015.625	4078.201	-527.0146	1	4112.113	-7.363367	-8.397273E-009	0.0088658	7
	22	8	6328.125	4120.406	-577.1506	1	4160.631	-7.973616	-2.988712E-009	0.0087867	7
	23	8	5015.625	4175.133	-640.8892	1	4224.036	-8.726871	9.306739E-009	0.0087463	7
	24	8	3984.375	4254.21	-721.1062	1	4314.893	-9.62043	1.14532E-007	0.0086498	7
	25	9	3170.956	4284.741	-811.7878	1	4360.963	-10.72811	-4.272379E-008	0.0088283	7
	26	9	2527.573	4337.272	-928.3477	1	4435.511	-12.08127	4.175178E-008	0.0087756	7
	27	9	1976.103	4394.783	-1087.488	1	4527.333	-13.89864	-2.19991E-008	0.0088576	7
	28	10	1577.524	4473.319	-1291.233	1	4655.95	-16.10089	-6.728811E-008	0.0090231	7
	29	10	1265.625	4507.886	-1505.331	1	4752.584	-18.46585	-6.849137E-008	0.0089091	7
	30	10	998.264	4575.026	-1813.416	1	4921.315	-21.62203	7.652004E-008	0.0086595	7
	31	11	796.875	4647.331	-2181.974	1	5134.072	-25.15059	7.49063E-008	0.0086577	7
	32	11	627.7902	4737.93	-2669.053	1	5437.999	-29.39419	-3.962251E-008	0.0088327	7
	33	11	505.5147	4837.108	-3215.376	1	5808.292	-33.61322	8.767589E-009	0.0087451	7
	34	12	397.9953	4968.591	-3963.447	1	6355.769	-38.57938	1.956343E-009	0.0088381	7
	35	12	315.5048	5128.766	-4865.645	1	7069.564	-43.49193	3.063965E-009	0.008839	7
	36	12	252.4038	5324.096	-5933.091	1	7971.673	-48.09658	9.061203E-010	0.0088357	7
	37	13	198.6229	5593.87	-7345.567	1	9233.024	-52.70964	2.169772E-009	0.0088365	7
	38	13	158.3615	5921.214	-8986.822	1	10762.14	-56.62002	-4.299032E-010	0.0087733	6
	39	13	125.558	6360.314	-11042.6	1	12743.34	-60.05893	3.828864E-011	0.0087734	6
	40	14	100.4464	6899.785	-13433.54	1	15101.89	-62.81389	-1.351604E-009	0.0087769	6
	41	14	79.00281	7668.094	-16598.66	1	18284.29	-65.20445	-1.728162E-010	0.008774	6
	42	14	63.3446	8285.91	-20105.55	1	21746.02	-67.60243	8.595966E-010	0.008767	6
	43	15	49.86702	9489.729	-24669.82	1	26432.08	-68.95979	1.152186E-009	0.0087659	6
	44	15	39.72458	11024.54	-30019.06	1	31979.44	-69.83418	9.802831E-010	0.0087694	6
	45	15	31.6723	12801	-36506.04	1	38685.35	-70.67657	1.19755E-009	0.0087704	6
	46	16	24.93351	15159.64	-44577.86	1	47085.04	-71.21832	2.791751E-010	0.008768	6
	47	16	19.86229	17971.97	-53998.86	1	56911.06	-71.59146	1.622159E-009	0.0087732	6
	48	16	15.83615	21305.87	-65096.4	1	68494.39	-71.87688	-1.093107E-010	0.008767	6
	49	17	12.40079	26303.75	-79436.01	1	83677.76	-71.67867	1.704597E-009	0.0087665	6
	50	17	9.93114	31745.52	-95867.5	1	100986.9	-71.67826	2.452461E-010	0.0087648	6
	51	18	7.944915	39014.37	-114663.5	1	121119.2	-71.20908	-1.483765E-010	0.008777	5
	52	18	6.317385	47827.54	-137983.6	1	146037.5	-70.88279	-3.496156E-010	0.008785	5
	53	19	5.008013	59341.26	-165874.9	1	176170	-70.31548	-5.839405E-012	0.0087766	5
	54	20	3.945707	74547.06	-199288.2	1	212774.7	-69.49086	-1.408516E-010	0.0087657	5
	55	21	3.158693	91853.32	-236315.4	1	253539	-68.75941	8.535794E-011	0.0087719	5
	56	23	2.504006	114174.9	-280752	1	303080.2	-67.86964	3.849776E-011	0.0087687	5
	57	24	1.998082	140764.9	-330675.8	1	359390.1	-66.9411	-1.790481E-010	0.0087229	5
	58	26	1.584686	172665	-389223.2	1	425802.6	-66.07724	-9.414689E-011	0.0087486	5
	59	28	1.266892	211009.6	-453960.8	1	500605.1	-65.0701	-2.008149E-011	0.0087883	5
	60	30	0.999041	259271.6	-534062.8	1	593670.6	-64.1048	4.428949E-012	0.0088063	5
