EXPLAIN
TAG	EISPOT
TITLE	LABEL	Potentiostatic EIS	Test &Identifier
DATE	LABEL	11/21/2019	Date
TIME	LABEL	23:24:15	Time
NOTES	NOTES	4	&Notes...
	
	
	
	
PSTAT	PSTAT	REF600-11020	Potentiostat
VDC	POTEN	0.00000E+000	T	DC &Voltage (V)
FREQINIT	QUANT	1.00000E+006	Initial Fre&q. (Hz)
FREQFINAL	QUANT	1.00000E+000	Final Fre&q. (Hz)
PTSPERDEC	QUANT	1.00000E+001	Points/&decade
VAC	QUANT	2.50000E+001	AC &Voltage (mV rms)
AREA	QUANT	1.00000E-002	&Area (cm^2)
CONDIT	TWOPARAM	T	5.00000E+000	0.00000E+000	Conditionin&g	Time(s)	E(V)
DELAY	TWOPARAM	T	5.00000E+000	0.00000E+000	Init. De&lay	Time(s)	Stab.(mV/s)
SPEED	SELECTOR	1	&Optimize for:
ZGUESS	QUANT	1.00000E+005	E&stimated Z (ohms)
OCVCURVE	TABLE	19
	Pt	T	Vf	Vm	Ach	Over
	#	s	V vs. Ref.	V	V	bits
	0	0.258333	5.54656E-004	5.54656E-004	5.42233E-004	...........
	1	0.516667	5.47289E-004	1.69053E-004	5.47299E-004	...........
	2	0.775	5.02274E-004	-1.84965E-004	5.38166E-004	...........
	3	1.03333	3.75898E-004	-5.12310E-004	5.41799E-004	...........
	4	1.29167	1.52466E-004	-8.14618E-004	5.50933E-004	...........
	5	1.55	-1.39650E-004	-1.09710E-003	5.47433E-004	...........
	6	1.80833	-4.56502E-004	-1.36305E-003	5.48299E-004	...........
	7	2.06667	-7.67170E-004	-1.61504E-003	5.44933E-004	...........
	8	2.325	-1.05913E-003	-1.85372E-003	5.46466E-004	...........
	9	2.58333	-1.33130E-003	-2.08450E-003	5.44666E-004	...........
	10	2.84167	-1.58664E-003	-2.30056E-003	5.41299E-004	...........
	11	3.1	-1.82822E-003	-2.50970E-003	5.38366E-004	...........
	12	3.35833	-2.05807E-003	-2.71087E-003	5.42633E-004	...........
	13	3.61667	-2.27755E-003	-2.90456E-003	5.40399E-004	...........
	14	3.875	-2.48782E-003	-3.09115E-003	5.46133E-004	...........
	15	4.13333	-2.68991E-003	-3.27370E-003	5.43599E-004	...........
	16	4.39167	-2.88465E-003	-3.44789E-003	5.45599E-004	...........
	17	4.65	-3.07269E-003	-3.61593E-003	5.49866E-004	...........
	18	4.90833	-3.25425E-003	-3.77655E-003	5.50666E-004	...........
EOC	QUANT	-0.0032543	Open Circuit (V)
PSTATMODEL	IQUANT	4	Pstat Model
PSTATSECTION	LABEL	REF600-11020	Pstat Section
PSTATSERIALNO	LABEL	11020	Pstat Serial Number
CTRLMODE	IQUANT	1	Control Mode
IESTAB	IQUANT	0	I/E Stability
CASPEED	IQUANT	1	Control Amp Speed
CONVENTION	IQUANT	1	Current Convention
ICHRANGE	IQUANT	2	Ich Range
ICHRANGEMODE	TOGGLE	F	Ich Auto Range
ICHOFFSETENABLE	TOGGLE	T	Ich Offset Enable
ICHOFFSET	QUANT	0	Ich Offset (V)
ICHFILTER	IQUANT	3	Ich Filter
VCHRANGE	IQUANT	2	Vch Range
VCHRANGEMODE	TOGGLE	F	Vch Auto Range
VCHOFFSETENABLE	TOGGLE	T	Vch Offset Enable
VCHOFFSET	QUANT	0	Vch Offset (V)
VCHFILTER	IQUANT	3	Vch Filter
ACHRANGE	IQUANT	2	Ach Range
ACHOFFSETENABLE	TOGGLE	F	Ach Offset Enable
ACHOFFSET	QUANT	0	Ach Offset (V)
ACHFILTER	IQUANT	3	Ach Filter
IERANGELOWERLIMIT	IQUANT	1	I/E Range Lower Limit
IERANGEMODE	TOGGLE	F	I/E AutoRange
IERANGE	IQUANT	4	I/E Range
POSFEEDENABLE	TOGGLE	F	Positive Feedback IR Comp
POSFEEDRESISTANCE	QUANT	0	Positive Feedback Resistance (ohm)
ACHSELECT	IQUANT	0	Ach Select
CABLEID	IQUANT	14	Cable ID
DCCALDATE	LABEL	8/19/2019	DC Calibration Date
ACCALDATE	LABEL	8/19/2019	AC Calibration Date
THERMOSELECT	IQUANT	1	Thermo Select
FRAMEWORKVERSION	QUANT	6.33	Framework Version
INSTRUMENTVERSION	LABEL	3.50	Instrument Version
ZCURVE	TABLE
	Pt	Time	Freq	Zreal	Zimag	Zsig	Zmod	Zphz	Idc	Vdc	IERange
	#	s	Hz	ohm	ohm	V	ohm	°	A	V	#
	0	2	1000078	2182.823	-1539.776	1	2671.259	-35.19936	-1.070314E-007	-0.0015588	8
	1	3	794390.6	2488.768	-1491.554	1	2901.5	-30.93485	-2.367624E-007	-0.0017791	8
	2	5	630984.4	2762.693	-1394.079	1	3094.5	-26.7759	-3.117465E-006	-0.0009259	8
	3	6	501234.4	3002.238	-1261.394	1	3256.462	-22.78977	4.804837E-006	-0.0016924	8
	4	7	398109.4	3194.107	-1137.865	1	3390.731	-19.60787	-1.116068E-006	-0.0019889	8
	5	9	316265.6	3343.729	-1013.007	1	3493.809	-16.85457	-4.495726E-006	-0.001371	8
	6	10	251203.1	3466.088	-895.5937	1	3579.924	-14.48764	-4.302839E-006	-0.0013897	8
	7	12	199546.9	3564.387	-786.6771	1	3650.167	-12.44593	-9.187585E-008	-0.0020142	8
	8	13	158578.1	3629.211	-695.8956	1	3695.327	-10.85462	-3.365219E-007	-0.0013001	8
	9	14	125953.1	3732.087	-584.4337	1	3777.57	-8.900067	5.487788E-007	0.0005002	7
	10	16	100078.1	3768.946	-538.9245	1	3807.281	-8.137607	-1.090084E-006	-0.0001589	7
	11	17	79453.13	3823.372	-516.1059	1	3858.048	-7.687723	8.300826E-007	-0.0020079	7
	12	18	63140.62	3865.158	-496.1315	1	3896.87	-7.314486	-1.041876E-006	-0.001265	7
	13	20	50203.12	3914.744	-492.2545	1	3945.572	-7.166969	1.16501E-007	-0.0031492	7
	14	21	39890.62	3964.427	-499.1801	1	3995.731	-7.176619	1.097419E-006	-0.0029207	7
	15	22	31640.63	4006.698	-514.8716	1	4039.643	-7.322536	7.595642E-008	-0.0008317	7
	16	24	25171.88	4052.676	-540.7075	1	4088.587	-7.599514	-1.089506E-006	-0.0001697	7
	17	25	20015.62	4107.573	-585.2609	1	4149.058	-8.109115	1.179434E-007	-0.0031425	7
	18	27	15890.62	4166.249	-628.7878	1	4213.432	-8.582546	-7.257934E-007	-0.0019488	7
	19	28	12609.37	4227.677	-693.0664	1	4284.109	-9.310001	-8.944555E-007	-0.0001112	7
	20	29	10078.13	4296.063	-763.2276	1	4363.333	-10.07392	-1.221334E-006	-0.0003435	7
	21	31	8015.625	4371.633	-857.7319	1	4454.984	-11.10065	-1.212969E-006	-0.0007018	7
	22	32	6328.125	4469.311	-966.476	1	4572.616	-12.20217	1.014714E-006	-0.0025047	7
	23	33	5015.625	4564.186	-1094.198	1	4693.513	-13.48141	4.856061E-007	-0.0034428	7
	24	35	3984.375	4657.269	-1238.973	1	4819.254	-14.89735	-6.137266E-007	-0.0001942	7
	25	36	3170.956	4773.845	-1418.16	1	4980.037	-16.54504	7.563765E-008	-0.0008369	7
	26	37	2527.573	4894.785	-1623.602	1	5157.034	-18.3507	3.933356E-007	-0.0012678	7
	27	39	1976.103	5037.373	-1890.716	1	5380.514	-20.57301	7.630491E-008	-0.0008346	7
	28	40	1577.524	5219.104	-2188.514	1	5659.386	-22.74965	9.789951E-007	-0.0034693	7
	29	42	1265.625	5315.93	-2536.418	1	5890.037	-25.50746	-1.213511E-006	-0.0007054	7
	30	43	998.264	5481.493	-3002.448	1	6249.917	-28.71141	-7.240682E-007	-0.0019439	7
	31	44	796.875	5658.833	-3539.257	1	6674.484	-32.02348	-7.306166E-007	-0.0019464	7
	32	46	627.7902	5857.327	-4245.976	1	7234.403	-35.93835	9.790198E-007	-0.0034641	7
	33	47	505.5147	6060.775	-5021.236	1	7870.566	-39.6411	-3.102831E-007	-0.0026329	7
	34	49	397.9953	6313.006	-6086.289	1	8769.091	-43.95248	5.395556E-009	-0.0017575	7
	35	50	315.5048	6596.222	-7371.308	1	9891.73	-48.1762	8.875148E-010	-0.0018211	6
	36	51	252.4038	6912.476	-8897.354	1	11267	-52.15588	2.268683E-010	-0.0018207	6
	37	53	198.6229	7319.351	-10927.54	1	13152.33	-56.18551	1.231308E-009	-0.0018188	6
	38	54	158.3615	7793.396	-13306.36	1	15420.64	-59.64294	5.452795E-010	-0.0018269	6
	39	55	125.558	8402.253	-16304.87	1	18342.48	-62.73697	1.128565E-009	-0.0018255	6
	40	57	100.4464	9138.271	-19855.04	1	21857.05	-65.28577	2.700091E-010	-0.0018194	6
	41	58	79.00281	10197.25	-24498.86	1	26536.35	-67.40128	2.561105E-010	-0.0018226	6
	42	60	63.3446	11654.55	-29890.56	1	32082.3	-68.69881	5.204587E-010	-0.0018254	6
	43	61	49.86702	13108.84	-36895.43	1	39155.01	-70.44003	6.876639E-010	-0.0018251	6
	44	62	39.72458	15489.37	-44905.68	1	47502.01	-70.96909	1.352007E-009	-0.0018262	6
	45	64	31.6723	18504.96	-54412.54	1	57473.11	-71.21754	4.740552E-011	-0.0018214	6
	46	65	24.93351	22624.01	-66833	1	70558.45	-71.29824	1.251801E-009	-0.0018333	6
	47	67	19.86229	27854.83	-80926.96	1	85586.59	-71.00668	8.357884E-010	-0.0018353	6
	48	68	15.83615	35244.23	-97854.7	1	104008.2	-70.19255	8.632544E-010	-0.0018324	6
	49	69	12.40079	44980.07	-118043.6	1	126323	-69.14084	2.39443E-009	-0.0018225	5
	50	71	9.93114	55882.04	-140082.7	1	150817.7	-68.25187	4.762066E-010	-0.0018116	5
	51	72	7.944915	70406.2	-165091.5	1	179477.7	-66.90332	1.129386E-009	-0.0018174	5
	52	74	6.317385	88949.81	-194103.5	1	213514	-65.37991	2.04805E-011	-0.0017952	5
	53	76	5.008013	112072.6	-226605	1	252804.5	-63.68428	3.378764E-010	-0.0018145	5
	54	79	3.945707	140434.8	-263510.9	1	298596.6	-61.94517	7.147936E-010	-0.0018109	5
	55	81	3.158693	171843.2	-301315.3	1	346873.2	-60.30344	4.605107E-011	-0.0018204	5
	56	85	2.504006	209050.1	-344141.6	1	402660.4	-58.72326	7.535582E-010	-0.0018257	5
	57	87	1.998082	249517.9	-389009.9	1	462155.7	-57.32317	3.09399E-010	-0.0017811	5
	58	90	1.584686	294324.5	-439977.1	1	529345.6	-56.21929	4.550254E-010	-0.001842	5
	59	94	1.266892	343687.8	-496386	1	603755.2	-55.30204	3.817966E-010	-0.0017924	5
	60	98	0.999041	400099	-563288	1	690921.6	-54.61412	1.434273E-010	-0.0018694	5
