EXPLAIN
TAG	EISPOT
TITLE	LABEL	Potentiostatic EIS	Test &Identifier
DATE	LABEL	10/8/2019	Date
TIME	LABEL	8:15:06	Time
NOTES	NOTES	2	&Notes...
	
	
PSTAT	PSTAT	REF600-11020	Potentiostat
VDC	POTEN	0.00000E+000	T	DC &Voltage (V)
FREQINIT	QUANT	1.00000E+006	Initial Fre&q. (Hz)
FREQFINAL	QUANT	1.00000E+000	Final Fre&q. (Hz)
PTSPERDEC	QUANT	1.00000E+001	Points/&decade
VAC	QUANT	2.50000E+001	AC &Voltage (mV rms)
AREA	QUANT	1.00000E-002	&Area (cm^2)
CONDIT	TWOPARAM	T	5.00000E+000	0.00000E+000	Conditionin&g	Time(s)	E(V)
DELAY	TWOPARAM	T	5.00000E+000	0.00000E+000	Init. De&lay	Time(s)	Stab.(mV/s)
SPEED	SELECTOR	1	&Optimize for:
ZGUESS	QUANT	1.00000E+004	E&stimated Z (ohms)
OCVCURVE	TABLE	19
	Pt	T	Vf	Vm	Ach	Over
	#	s	V vs. Ref.	V	V	bits
	0	0.258333	7.24024E-003	7.24024E-003	5.79866E-004	...........
	1	0.516667	7.24176E-003	7.32008E-003	5.82799E-004	...........
	2	0.775	7.25134E-003	7.40681E-003	5.84299E-004	...........
	3	1.03333	7.27943E-003	7.50563E-003	5.82432E-004	...........
	4	1.29167	7.33244E-003	7.60502E-003	5.84432E-004	...........
	5	1.55	7.40801E-003	7.70878E-003	5.85899E-004	...........
	6	1.80833	7.49880E-003	7.81348E-003	5.79999E-004	...........
	7	2.06667	7.59779E-003	7.91641E-003	5.88399E-004	...........
	8	2.325	7.70050E-003	8.02359E-003	5.84299E-004	...........
	9	2.58333	7.80472E-003	8.12951E-003	5.86465E-004	...........
	10	2.84167	7.90973E-003	8.23655E-003	5.87599E-004	...........
	11	3.1	8.01533E-003	8.33954E-003	5.82465E-004	...........
	12	3.35833	8.12109E-003	8.44208E-003	5.87965E-004	...........
	13	3.61667	8.22634E-003	8.54439E-003	5.84765E-004	...........
	14	3.875	8.33052E-003	8.64324E-003	5.81732E-004	...........
	15	4.13333	8.43536E-003	8.84586E-003	5.81265E-004	...........
	16	4.39167	8.54465E-003	8.81550E-003	5.86599E-004	...........
	17	4.65	8.65518E-003	8.92753E-003	5.83665E-004	...........
	18	4.90833	8.75697E-003	9.06646E-003	5.81465E-004	...........
EOC	QUANT	0.008757	Open Circuit (V)
PSTATMODEL	IQUANT	4	Pstat Model
PSTATSECTION	LABEL	REF600-11020	Pstat Section
PSTATSERIALNO	LABEL	11020	Pstat Serial Number
CTRLMODE	IQUANT	1	Control Mode
IESTAB	IQUANT	0	I/E Stability
CASPEED	IQUANT	1	Control Amp Speed
CONVENTION	IQUANT	1	Current Convention
ICHRANGE	IQUANT	2	Ich Range
ICHRANGEMODE	TOGGLE	F	Ich Auto Range
ICHOFFSETENABLE	TOGGLE	T	Ich Offset Enable
ICHOFFSET	QUANT	0	Ich Offset (V)
ICHFILTER	IQUANT	3	Ich Filter
VCHRANGE	IQUANT	2	Vch Range
VCHRANGEMODE	TOGGLE	F	Vch Auto Range
VCHOFFSETENABLE	TOGGLE	T	Vch Offset Enable
VCHOFFSET	QUANT	0	Vch Offset (V)
VCHFILTER	IQUANT	3	Vch Filter
ACHRANGE	IQUANT	2	Ach Range
ACHOFFSETENABLE	TOGGLE	F	Ach Offset Enable
ACHOFFSET	QUANT	0	Ach Offset (V)
ACHFILTER	IQUANT	3	Ach Filter
IERANGELOWERLIMIT	IQUANT	1	I/E Range Lower Limit
IERANGEMODE	TOGGLE	F	I/E AutoRange
IERANGE	IQUANT	6	I/E Range
POSFEEDENABLE	TOGGLE	F	Positive Feedback IR Comp
POSFEEDRESISTANCE	QUANT	0	Positive Feedback Resistance (ohm)
ACHSELECT	IQUANT	0	Ach Select
CABLEID	IQUANT	14	Cable ID
DCCALDATE	LABEL	8/19/2019	DC Calibration Date
ACCALDATE	LABEL	8/19/2019	AC Calibration Date
THERMOSELECT	IQUANT	1	Thermo Select
FRAMEWORKVERSION	QUANT	6.33	Framework Version
INSTRUMENTVERSION	LABEL	3.50	Instrument Version
ZCURVE	TABLE
	Pt	Time	Freq	Zreal	Zimag	Zsig	Zmod	Zphz	Idc	Vdc	IERange
	#	s	Hz	ohm	ohm	V	ohm	°	A	V	#
	0	1	1000078	2208.34	-1069.98	1	2453.899	-25.85102	-9.348731E-007	0.0112254	8
	1	2	794390.6	2395.224	-969.553	1	2584.014	-22.03741	2.186194E-006	0.0102038	8
	2	4	630984.4	2536.979	-864.0648	1	2680.087	-18.80824	-3.354051E-006	0.0108645	8
	3	5	501234.4	2650.419	-753.2406	1	2755.375	-15.86498	1.310323E-006	0.0102165	8
	4	6	398109.4	2739.607	-653.3939	1	2816.446	-13.4144	-1.142219E-006	0.0106948	8
	5	8	316265.6	2813.178	-572.8826	1	2870.917	-11.51046	-3.914945E-007	0.0103583	8
	6	9	251203.1	2864.823	-492.3255	1	2906.818	-9.75115	-3.267012E-007	0.0104632	8
	7	11	199546.9	2910.61	-430.6426	1	2942.296	-8.416203	-5.028125E-007	0.0104816	8
	8	12	158578.1	2951.947	-395.1805	1	2978.281	-7.624917	-7.786768E-007	0.0104893	8
	9	13	125953.1	2993.363	-332.2177	1	3011.742	-6.33304	4.787807E-007	0.0093077	7
	10	15	100078.1	3016.41	-313.1154	1	3032.618	-5.926306	-1.38605E-008	0.0103344	7
	11	16	79453.13	3044.473	-308.6962	1	3060.083	-5.789753	1.245245E-008	0.0102147	7
	12	17	63140.62	3073.056	-311.0667	1	3088.76	-5.780014	-4.44787E-008	0.0103327	7
	13	19	50203.12	3104.035	-319.6913	1	3120.455	-5.880282	-4.926687E-008	0.0103778	7
	14	20	39890.62	3135.655	-335.0722	1	3153.507	-6.09941	-8.94886E-009	0.0103181	7
	15	21	31640.63	3170.651	-355.4646	1	3190.514	-6.396771	-3.9228E-008	0.0102978	7
	16	23	25171.88	3207.136	-383.7946	1	3230.019	-6.824073	-1.065538E-008	0.0103206	7
	17	24	20015.62	3247.704	-419.0626	1	3274.629	-7.352449	-5.404628E-009	0.0102972	7
	18	25	15890.62	3292.908	-463.581	1	3325.38	-8.013529	-6.885863E-008	0.0103867	7
	19	27	12609.37	3341.437	-517.0458	1	3381.203	-8.79605	-4.33114E-008	0.0103245	7
	20	28	10078.13	3395.06	-576.7831	1	3443.706	-9.64186	7.345138E-008	0.0102428	7
	21	30	8015.625	3451.733	-646.3563	1	3511.729	-10.60612	4.611487E-008	0.0101351	7
	22	31	6328.125	3522.674	-737.4454	1	3599.036	-11.82369	-3.648547E-008	0.010304	7
	23	32	5015.625	3595.569	-838.3354	1	3692.008	-13.12449	-6.400107E-009	0.0102381	7
	24	34	3984.375	3671.713	-948.9617	1	3792.361	-14.49111	1.330376E-007	0.0100855	7
	25	35	3170.956	3755.583	-1095.219	1	3912.021	-16.25796	-3.700428E-008	0.0102963	7
	26	36	2527.573	3843.309	-1260.759	1	4044.816	-18.16156	-4.235735E-009	0.0102937	7
	27	38	1976.103	3944.168	-1475.557	1	4211.144	-20.51137	7.191839E-008	0.0101517	7
	28	39	1577.524	4044.72	-1716.472	1	4393.863	-22.99509	-3.594943E-008	0.010294	7
	29	40	1265.625	4143.777	-2008.923	1	4605.069	-25.86433	-3.470551E-008	0.0102911	7
	30	42	998.264	4261.082	-2392.611	1	4886.86	-29.31435	-9.05583E-009	0.0103131	7
	31	43	796.875	4382.317	-2842.493	1	5223.454	-32.96856	-4.101107E-008	0.0103223	7
	32	45	627.7902	4516.961	-3438.691	1	5676.93	-37.28145	1.327725E-007	0.0100747	7
	33	46	505.5147	4665.288	-4105.41	1	6214.443	-41.34748	7.270287E-008	0.0101528	7
	34	47	397.9953	4850.55	-5022.679	1	6982.488	-45.99879	5.079385E-009	0.0102863	7
	35	49	315.5048	5065.419	-6130.874	1	7952.741	-50.43597	4.379144E-009	0.01029	7
	36	50	252.4038	5317.077	-7445.34	1	9149.011	-54.46753	5.066062E-009	0.0102805	7
	37	51	198.6229	5657.504	-9192.361	1	10793.83	-58.38948	5.388206E-010	0.0102301	6
	38	53	158.3615	6067.869	-11233.85	1	12767.86	-61.62467	7.64255E-010	0.0102314	6
	39	54	125.558	6607.052	-13801.82	1	15301.74	-64.41916	8.629136E-010	0.010226	6
	40	56	100.4464	7284.417	-16815.14	1	18325.16	-66.57745	1.255834E-010	0.0102215	6
	41	57	79.00281	8241.07	-20806.81	1	22379.42	-68.39268	9.122031E-010	0.0102238	6
	42	58	63.3446	9462.49	-25311.91	1	27022.8	-69.50247	7.264248E-010	0.0102242	6
	43	60	49.86702	10914.63	-31041.02	1	32904.01	-70.62733	6.943034E-010	0.0102165	6
	44	61	39.72458	13052.02	-37823.11	1	40011.79	-70.96144	5.124484E-010	0.0102237	6
	45	62	31.6723	15672.1	-45789.48	1	48397.23	-71.10576	6.599849E-010	0.0102188	6
	46	64	24.93351	19370.94	-55957.62	1	59215.61	-70.90559	5.682743E-010	0.0102185	6
	47	65	19.86229	23933.19	-67331	1	71458.11	-70.43195	-4.373454E-011	0.010224	6
	48	67	15.83615	29810.43	-80610.45	1	85945.95	-69.70518	2.3247E-010	0.0102261	6
	49	68	12.40079	37547.32	-97542.3	1	104519.4	-68.94659	8.228184E-010	0.0102263	6
	50	69	9.93114	46768.37	-115061.5	1	124203.2	-67.88003	-2.900031E-010	0.0102277	5
	51	71	7.944915	58148.94	-135486.8	1	147438	-66.77171	-3.984203E-010	0.0102244	5
	52	73	6.317385	72062.66	-158960.6	1	174532.2	-65.61347	4.305402E-010	0.0102179	5
	53	75	5.008013	89275.95	-186223.5	1	206517.3	-64.38685	-2.553467E-010	0.0102274	5
	54	77	3.945707	109883	-217878.7	1	244019.3	-63.23678	-7.877625E-011	0.0102311	5
	55	80	3.158693	132409.4	-251314.8	1	284062.3	-62.21676	-6.764053E-011	0.0102256	5
	56	83	2.504006	158998.4	-291051.5	1	331649.6	-61.35268	-2.394279E-010	0.0102372	5
	57	86	1.998082	188067.1	-334571	1	383805.9	-60.65905	1.281849E-010	0.0101887	5
	58	89	1.584686	221258.5	-387333.7	1	446074.8	-60.26348	-1.977999E-010	0.0102151	5
	59	93	1.266892	258907.2	-445691.5	1	515435.6	-59.84721	-1.11961E-011	0.0101852	5
	60	97	0.999041	303268.6	-518223.6	1	600439.4	-59.66349	-1.457243E-010	0.0102657	5
