EXPLAIN
TAG	EISPOT
TITLE	LABEL	Potentiostatic EIS	Test &Identifier
DATE	LABEL	10/4/2019	Date
TIME	LABEL	8:36:15	Time
NOTES	NOTES	2	&Notes...
	
	
PSTAT	PSTAT	REF600-11020	Potentiostat
VDC	POTEN	0.00000E+000	T	DC &Voltage (V)
FREQINIT	QUANT	1.00000E+006	Initial Fre&q. (Hz)
FREQFINAL	QUANT	1.00000E+000	Final Fre&q. (Hz)
PTSPERDEC	QUANT	1.00000E+001	Points/&decade
VAC	QUANT	2.50000E+001	AC &Voltage (mV rms)
AREA	QUANT	1.00000E-002	&Area (cm^2)
CONDIT	TWOPARAM	T	5.00000E+000	0.00000E+000	Conditionin&g	Time(s)	E(V)
DELAY	TWOPARAM	T	5.00000E+000	0.00000E+000	Init. De&lay	Time(s)	Stab.(mV/s)
SPEED	SELECTOR	1	&Optimize for:
ZGUESS	QUANT	1.00000E+004	E&stimated Z (ohms)
OCVCURVE	TABLE	19
	Pt	T	Vf	Vm	Ach	Over
	#	s	V vs. Ref.	V	V	bits
	0	0.258333	4.16129E-003	4.16129E-003	5.64766E-004	...........
	1	0.516667	4.15506E-003	3.83546E-003	5.68699E-004	...........
	2	0.775	4.11804E-003	3.58921E-003	5.67299E-004	...........
	3	1.03333	4.01790E-003	3.38616E-003	5.64799E-004	...........
	4	1.29167	3.84968E-003	3.21544E-003	5.63232E-004	...........
	5	1.55	3.64470E-003	3.10955E-003	5.69032E-004	...........
	6	1.80833	3.44226E-003	2.94683E-003	5.68499E-004	...........
	7	2.06667	3.26419E-003	2.86852E-003	5.55166E-004	...........
	8	2.325	3.10992E-003	2.57762E-003	5.54599E-004	...........
	9	2.58333	2.96043E-003	2.32397E-003	5.66232E-004	...........
	10	2.84167	2.78756E-003	1.98534E-003	5.62966E-004	...........
	11	3.1	2.57455E-003	1.85818E-003	5.57666E-004	...........
	12	3.35833	2.33663E-003	1.84249E-003	5.52699E-004	...........
	13	3.61667	2.11702E-003	1.77791E-003	5.61866E-004	...........
	14	3.875	1.95250E-003	1.71441E-003	5.64666E-004	...........
	15	4.13333	1.84525E-003	1.65161E-003	5.58266E-004	...........
	16	4.39167	1.77278E-003	1.59658E-003	5.68232E-004	...........
	17	4.65	1.71352E-003	1.53904E-003	5.61299E-004	...........
	18	4.90833	1.65706E-003	1.48491E-003	5.61599E-004	...........
EOC	QUANT	0.0016571	Open Circuit (V)
PSTATMODEL	IQUANT	4	Pstat Model
PSTATSECTION	LABEL	REF600-11020	Pstat Section
PSTATSERIALNO	LABEL	11020	Pstat Serial Number
CTRLMODE	IQUANT	1	Control Mode
IESTAB	IQUANT	0	I/E Stability
CASPEED	IQUANT	1	Control Amp Speed
CONVENTION	IQUANT	1	Current Convention
ICHRANGE	IQUANT	2	Ich Range
ICHRANGEMODE	TOGGLE	F	Ich Auto Range
ICHOFFSETENABLE	TOGGLE	T	Ich Offset Enable
ICHOFFSET	QUANT	0	Ich Offset (V)
ICHFILTER	IQUANT	3	Ich Filter
VCHRANGE	IQUANT	2	Vch Range
VCHRANGEMODE	TOGGLE	F	Vch Auto Range
VCHOFFSETENABLE	TOGGLE	T	Vch Offset Enable
VCHOFFSET	QUANT	0	Vch Offset (V)
VCHFILTER	IQUANT	3	Vch Filter
ACHRANGE	IQUANT	2	Ach Range
ACHOFFSETENABLE	TOGGLE	F	Ach Offset Enable
ACHOFFSET	QUANT	0	Ach Offset (V)
ACHFILTER	IQUANT	3	Ach Filter
IERANGELOWERLIMIT	IQUANT	1	I/E Range Lower Limit
IERANGEMODE	TOGGLE	F	I/E AutoRange
IERANGE	IQUANT	5	I/E Range
POSFEEDENABLE	TOGGLE	F	Positive Feedback IR Comp
POSFEEDRESISTANCE	QUANT	0	Positive Feedback Resistance (ohm)
ACHSELECT	IQUANT	0	Ach Select
CABLEID	IQUANT	14	Cable ID
DCCALDATE	LABEL	8/19/2019	DC Calibration Date
ACCALDATE	LABEL	8/19/2019	AC Calibration Date
THERMOSELECT	IQUANT	1	Thermo Select
FRAMEWORKVERSION	QUANT	6.33	Framework Version
INSTRUMENTVERSION	LABEL	3.50	Instrument Version
ZCURVE	TABLE
	Pt	Time	Freq	Zreal	Zimag	Zsig	Zmod	Zphz	Idc	Vdc	IERange
	#	s	Hz	ohm	ohm	V	ohm	°	A	V	#
	0	1	1000078	2045.152	-744.0748	1	2176.303	-19.99259	-3.8361E-006	0.0046448	8
	1	2	794390.6	2146.579	-648.7743	1	2242.478	-16.81673	3.874754E-006	0.0031753	8
	2	4	630984.4	2232.634	-551.2932	1	2299.691	-13.8703	4.163893E-006	0.002485	8
	3	5	501234.4	2288.345	-478.4229	1	2337.822	-11.8087	-1.297359E-006	0.0035623	8
	4	6	398109.4	2334.021	-410.6776	1	2369.875	-9.97921	2.286519E-006	0.0029774	8
	5	8	316265.6	2373.746	-358.4028	1	2400.651	-8.586017	5.471765E-007	0.0033433	8
	6	9	251203.1	2397.5	-318.8117	1	2418.605	-7.574566	1.083996E-006	0.0032758	8
	7	10	199546.9	2418.965	-285.2885	1	2435.73	-6.726294	2.061839E-006	0.0029444	8
	8	12	158578.1	2446.022	-267.2141	1	2460.574	-6.234519	1.883908E-006	0.0029104	8
	9	13	125953.1	2477.051	-224.2262	1	2487.179	-5.172399	-5.481613E-008	0.0035417	7
	10	14	100078.1	2492.415	-215.848	1	2501.743	-4.949577	-3.015041E-008	0.003317	7
	11	16	79453.13	2511.792	-223.4742	1	2521.714	-5.084219	4.468787E-008	0.0031796	7
	12	17	63140.62	2533.96	-235.4423	1	2544.874	-5.308383	-7.524092E-008	0.0035313	7
	13	18	50203.12	2558.674	-252.7484	1	2571.127	-5.641432	9.542493E-009	0.0032834	7
	14	20	39890.62	2584.493	-273.8149	1	2598.957	-6.047659	8.751798E-009	0.003401	7
	15	21	31640.63	2614.119	-300.1478	1	2631.294	-6.549901	-3.56542E-008	0.0033175	7
	16	22	25171.88	2644.032	-331.894	1	2664.781	-7.154673	-5.393815E-009	0.0033336	7
	17	24	20015.62	2677.622	-370.8589	1	2703.182	-7.885476	-5.796187E-008	0.0033879	7
	18	25	15890.62	2713.888	-417.1508	1	2745.76	-8.738523	-5.885257E-008	0.0034285	7
	19	27	12609.37	2752.889	-472.6318	1	2793.167	-9.74189	-1.175705E-008	0.0033048	7
	20	28	10078.13	2791.852	-539.2484	1	2843.453	-10.9321	-4.269411E-008	0.0033972	7
	21	29	8015.625	2834.887	-621.1458	1	2902.139	-12.35865	8.673848E-009	0.0033939	7
	22	31	6328.125	2883.656	-723.8228	1	2973.111	-14.09063	-5.79227E-008	0.0033865	7
	23	32	5015.625	2934.91	-848.6465	1	3055.143	-16.12753	-5.867286E-008	0.0034215	7
	24	33	3984.375	2989.923	-1000.58	1	3152.904	-18.50285	-7.319669E-008	0.0034072	7
	25	35	3170.956	3050.939	-1182.781	1	3272.186	-21.1902	5.018416E-008	0.0032157	7
	26	36	2527.573	3118.362	-1405.043	1	3420.282	-24.25494	7.606739E-008	0.0031557	7
	27	37	1976.103	3199.851	-1704.398	1	3625.468	-28.04196	-3.165298E-009	0.0033318	7
	28	39	1577.524	3283.004	-2041.004	1	3865.723	-31.86871	9.358854E-008	0.0032232	7
	29	40	1265.625	3375.196	-2442.939	1	4166.521	-35.89671	-7.501567E-008	0.0035193	7
	30	41	998.264	3490.371	-2979.586	1	4589.185	-40.48602	-2.745954E-009	0.0032508	7
	31	43	796.875	3614.412	-3610.934	1	5109.092	-44.97242	-4.220341E-008	0.0033899	7
	32	44	627.7902	3774.053	-4435.916	1	5824.159	-49.60904	1.138203E-007	0.0031254	7
	33	45	505.5147	3967.01	-5364.414	1	6671.889	-53.5169	4.834486E-008	0.0031627	7
	34	47	397.9953	4194.803	-6621.508	1	7838.415	-57.64526	5.271418E-009	0.0033208	7
	35	48	315.5048	4495.786	-8135.907	1	9295.434	-61.07559	4.886383E-009	0.0033238	7
	36	49	252.4038	4869.792	-9918.86	1	11049.82	-63.85067	6.384326E-010	0.00326	6
	37	51	198.6229	5385.372	-12269.54	1	13399.4	-66.30228	8.010163E-010	0.003264	6
	38	52	158.3615	6022.129	-14993.75	1	16157.93	-68.1175	4.461581E-010	0.0032618	6
	39	54	125.558	6876.953	-18388.74	1	19632.58	-69.4954	1.05997E-009	0.0032624	6
	40	55	100.4464	7950.264	-22360.02	1	23731.36	-70.4268	5.861125E-010	0.0032612	6
	41	56	79.00281	9472.748	-27468.49	1	29056	-70.9728	4.266929E-010	0.0032596	6
	42	58	63.3446	11102.27	-33119.25	1	34930.57	-71.46776	5.288939E-010	0.0032546	6
	43	59	49.86702	13995.63	-40511.96	1	42861.36	-70.94155	4.773999E-011	0.0032599	6
	44	60	39.72458	17111.29	-49010.47	1	51911.68	-70.7541	3.839151E-010	0.0032635	6
	45	62	31.6723	21219.52	-58781.56	1	62494.32	-70.15096	8.059854E-010	0.0032563	6
	46	63	24.93351	26808.15	-71053.05	1	75942.17	-69.32862	8.834816E-010	0.0032543	6
	47	64	19.86229	33609.21	-84516.1	1	90953.56	-68.31395	8.818112E-010	0.0032665	6
	48	66	15.83615	42103.09	-100498.7	1	108961.7	-67.26917	2.056974E-009	0.0032616	5
	49	67	12.40079	53588.98	-119265.7	1	130752	-65.80447	3.085722E-010	0.0032671	5
	50	69	9.93114	66532.98	-138640.7	1	153778.6	-64.36388	7.099901E-010	0.0032682	5
	51	70	7.944915	82126.73	-160506.3	1	180297.2	-62.9024	1.080338E-009	0.0032711	5
	52	72	6.317385	100763.5	-185737.3	1	211309.3	-61.51993	4.690799E-010	0.0032796	5
	53	74	5.008013	122721.9	-213928.7	1	246629.6	-60.15893	6.631869E-010	0.0032742	5
	54	76	3.945707	148951.6	-246404	1	287926.2	-58.84697	-4.27917E-011	0.0032563	5
	55	79	3.158693	176608.4	-280032.7	1	331072.3	-57.76157	4.646753E-010	0.0032765	5
	56	82	2.504006	209245.4	-319646.4	1	382043.8	-56.79063	-2.417886E-010	0.0032646	5
	57	85	1.998082	243991.8	-361914.6	1	436479.3	-56.01336	2.245727E-010	0.0032169	5
	58	88	1.584686	282993.7	-412864.1	1	500541.8	-55.57169	1.085086E-012	0.0032458	5
	59	92	1.266892	326275.8	-468128.3	1	570613.8	-55.1243	2.240992E-010	0.003215	5
	60	96	0.999041	375745.4	-536884.3	1	655308.6	-55.01325	2.829383E-011	0.0032871	5
