EXPLAIN
TAG	EISPOT
TITLE	LABEL	Potentiostatic EIS	Test &Identifier
DATE	LABEL	9/22/2019	Date
TIME	LABEL	10:56:04	Time
NOTES	NOTES	1	&Notes...
	
PSTAT	PSTAT	REF600-11020	Potentiostat
VDC	POTEN	0.00000E+000	T	DC &Voltage (V)
FREQINIT	QUANT	1.00000E+006	Initial Fre&q. (Hz)
FREQFINAL	QUANT	1.00000E+000	Final Fre&q. (Hz)
PTSPERDEC	QUANT	1.00000E+001	Points/&decade
VAC	QUANT	2.50000E+001	AC &Voltage (mV rms)
AREA	QUANT	1.00000E-002	&Area (cm^2)
CONDIT	TWOPARAM	T	5.00000E+000	0.00000E+000	Conditionin&g	Time(s)	E(V)
DELAY	TWOPARAM	T	5.00000E+000	0.00000E+000	Init. De&lay	Time(s)	Stab.(mV/s)
SPEED	SELECTOR	1	&Optimize for:
ZGUESS	QUANT	1.00000E+004	E&stimated Z (ohms)
OCVCURVE	TABLE	19
	Pt	T	Vf	Vm	Ach	Over
	#	s	V vs. Ref.	V	V	bits
	0	0.258333	5.72315E-003	5.72315E-003	5.63699E-004	...........
	1	0.516667	5.72230E-003	5.67851E-003	5.66832E-004	...........
	2	0.775	5.71740E-003	5.65385E-003	5.68766E-004	...........
	3	1.03333	5.70492E-003	5.64390E-003	5.65699E-004	...........
	4	1.29167	5.68601E-003	5.63955E-003	5.71499E-004	...........
	5	1.55	5.66617E-003	5.61948E-003	5.70732E-004	...........
	6	1.80833	5.64922E-003	5.60445E-003	5.72899E-004	...........
	7	2.06667	5.63481E-003	5.59912E-003	5.71266E-004	...........
	8	2.325	5.62152E-003	5.58130E-003	5.70699E-004	...........
	9	2.58333	5.60927E-003	5.59514E-003	5.65799E-004	...........
	10	2.84167	5.59957E-003	5.59890E-003	5.65899E-004	...........
	11	3.1	5.59431E-003	5.59601E-003	5.68566E-004	...........
	12	3.35833	5.59341E-003	5.59467E-003	5.66666E-004	...........
	13	3.61667	5.59469E-003	5.60788E-003	5.65666E-004	...........
	14	3.875	5.59691E-003	5.61411E-003	5.67066E-004	...........
	15	4.13333	5.60541E-003	5.87071E-003	5.70799E-004	...........
	16	4.39167	5.63010E-003	5.58032E-003	5.72466E-004	...........
	17	4.65	5.66250E-003	5.59018E-003	5.68066E-004	...........
	18	4.90833	5.67375E-003	5.59547E-003	5.75866E-004	...........
EOC	QUANT	0.0056738	Open Circuit (V)
PSTATMODEL	IQUANT	4	Pstat Model
PSTATSECTION	LABEL	REF600-11020	Pstat Section
PSTATSERIALNO	LABEL	11020	Pstat Serial Number
CTRLMODE	IQUANT	1	Control Mode
IESTAB	IQUANT	0	I/E Stability
CASPEED	IQUANT	1	Control Amp Speed
CONVENTION	IQUANT	1	Current Convention
ICHRANGE	IQUANT	2	Ich Range
ICHRANGEMODE	TOGGLE	F	Ich Auto Range
ICHOFFSETENABLE	TOGGLE	T	Ich Offset Enable
ICHOFFSET	QUANT	0	Ich Offset (V)
ICHFILTER	IQUANT	3	Ich Filter
VCHRANGE	IQUANT	2	Vch Range
VCHRANGEMODE	TOGGLE	F	Vch Auto Range
VCHOFFSETENABLE	TOGGLE	T	Vch Offset Enable
VCHOFFSET	QUANT	0	Vch Offset (V)
VCHFILTER	IQUANT	3	Vch Filter
ACHRANGE	IQUANT	2	Ach Range
ACHOFFSETENABLE	TOGGLE	F	Ach Offset Enable
ACHOFFSET	QUANT	0	Ach Offset (V)
ACHFILTER	IQUANT	3	Ach Filter
IERANGELOWERLIMIT	IQUANT	1	I/E Range Lower Limit
IERANGEMODE	TOGGLE	F	I/E AutoRange
IERANGE	IQUANT	6	I/E Range
POSFEEDENABLE	TOGGLE	F	Positive Feedback IR Comp
POSFEEDRESISTANCE	QUANT	0	Positive Feedback Resistance (ohm)
ACHSELECT	IQUANT	0	Ach Select
CABLEID	IQUANT	14	Cable ID
DCCALDATE	LABEL	8/19/2019	DC Calibration Date
ACCALDATE	LABEL	8/19/2019	AC Calibration Date
THERMOSELECT	IQUANT	1	Thermo Select
FRAMEWORKVERSION	QUANT	6.33	Framework Version
INSTRUMENTVERSION	LABEL	3.50	Instrument Version
ZCURVE	TABLE
	Pt	Time	Freq	Zreal	Zimag	Zsig	Zmod	Zphz	Idc	Vdc	IERange
	#	s	Hz	ohm	ohm	V	ohm	°	A	V	#
	0	2	1000078	2398.843	-1660.318	1	2917.379	-34.68838	-1.154707E-006	0.0080839	8
	1	3	794390.6	2726.993	-1609.679	1	3166.632	-30.55234	3.101174E-006	0.0070646	8
	2	4	630984.4	3023.116	-1487.98	1	3369.469	-26.20644	1.583204E-007	0.007639	8
	3	6	501234.4	3287.751	-1352.71	1	3555.156	-22.36419	3.797494E-006	0.0068027	8
	4	7	398109.4	3490.67	-1204.402	1	3692.609	-19.0362	3.856702E-006	0.0066441	8
	5	9	316265.6	3659.933	-1045.251	1	3806.265	-15.93897	1.902615E-006	0.0068376	8
	6	10	251203.1	3772.889	-904.7769	1	3879.86	-13.48545	3.405456E-006	0.0067514	8
	7	11	199546.9	3873.447	-760.47	1	3947.392	-11.10755	-2.696811E-006	0.0077988	8
	8	13	158578.1	3933.98	-662.9081	1	3989.442	-9.56495	7.207213E-007	0.0071781	8
	9	14	125953.1	4006.105	-533.0697	1	4041.415	-7.5795	1.266955E-006	0.0049364	7
	10	15	100078.1	4045.98	-470.2391	1	4073.215	-6.629388	1.185185E-007	0.0071541	7
	11	17	79453.13	4079.577	-428.7441	1	4102.045	-5.99949	-6.207019E-008	0.0073932	7
	12	18	63140.62	4111.609	-400.0607	1	4131.026	-5.557401	8.831594E-008	0.0072544	7
	13	19	50203.12	4141.521	-382.5551	1	4159.152	-5.277474	8.104621E-008	0.0071531	7
	14	21	39890.62	4170.332	-375.4114	1	4187.195	-5.143876	-5.722108E-008	0.0075035	7
	15	22	31640.63	4199.325	-379.5636	1	4216.444	-5.164748	6.520967E-008	0.007216	7
	16	24	25171.88	4230.005	-392.8074	1	4248.204	-5.305394	7.3502E-009	0.0072472	7
	17	25	20015.62	4261.615	-416.6104	1	4281.93	-5.583426	-6.230146E-008	0.0073875	7
	18	26	15890.62	4295.765	-452.0824	1	4319.488	-6.007642	-3.746056E-008	0.0073269	7
	19	28	12609.37	4333.458	-498.1972	1	4362.002	-6.558232	1.025998E-008	0.007412	7
	20	29	10078.13	4373.729	-555.3713	1	4408.848	-7.236628	-5.620063E-008	0.0075023	7
	21	30	8015.625	4417.261	-627.8242	1	4461.654	-8.089254	-4.127676E-008	0.00742	7
	22	32	6328.125	4468.669	-720.5168	1	4526.384	-9.159393	-4.190337E-008	0.0073316	7
	23	33	5015.625	4522.479	-833.0648	1	4598.567	-10.43719	1.193936E-007	0.0071378	7
	24	34	3984.375	4581.718	-968.289	1	4682.918	-11.93316	4.428963E-008	0.0072593	7
	25	36	3170.956	4649.051	-1133.742	1	4785.294	-13.70495	-3.903579E-008	0.0074195	7
	26	37	2527.573	4722.805	-1332.262	1	4907.118	-15.75329	-5.631471E-008	0.0074979	7
	27	39	1976.103	4810.901	-1594.758	1	5068.335	-18.33976	-3.908892E-008	0.0074143	7
	28	40	1577.524	4907.059	-1890.921	1	5258.784	-21.07402	4.31582E-008	0.0071756	7
	29	41	1265.625	5003.925	-2234.21	1	5480.051	-24.06036	-3.656985E-008	0.0073157	7
	30	43	998.264	5142.17	-2704.625	1	5810.069	-27.74301	-5.224749E-008	0.0073809	7
	31	44	796.875	5285.929	-3239.597	1	6199.681	-31.50296	1.214908E-007	0.0071325	7
	32	45	627.7902	5464.514	-3928.927	1	6730.333	-35.71574	6.398205E-008	0.0072079	7
	33	47	505.5147	5650.048	-4692.766	1	7344.732	-39.71204	-6.139106E-008	0.0073851	7
	34	48	397.9953	5899.817	-5719.566	1	8217.133	-44.11124	3.657666E-009	0.0073324	7
	35	49	315.5048	6180.075	-6944.467	1	9296.18	-48.33322	4.463202E-009	0.0073362	7
	36	51	252.4038	6500.449	-8382.979	1	10608.02	-52.20877	1.053133E-009	0.0072729	6
	37	52	198.6229	6902.784	-10281.1	1	12383.43	-56.12237	7.78709E-010	0.0072728	6
	38	54	158.3615	7358.059	-12493.86	1	14499.57	-59.50471	1.133086E-009	0.0072727	6
	39	55	125.558	7929.787	-15279.39	1	17214.56	-62.57132	9.630895E-010	0.0072683	6
	40	56	100.4464	8609.56	-18562.43	1	20461.87	-65.11735	2.838534E-010	0.007272	6
	41	58	79.00281	9485.951	-22947.06	1	24830.44	-67.54057	4.767183E-010	0.0072718	6
	42	59	63.3446	10560.77	-27700.47	1	29645.33	-69.13072	9.470745E-010	0.007272	6
	43	61	49.86702	12158.98	-34542.21	1	36619.73	-70.60776	1.155304E-009	0.0072688	6
	44	62	39.72458	13975.29	-42013.93	1	44277.3	-71.60109	1.367244E-009	0.0072754	6
	45	63	31.6723	16561.95	-51267.74	1	53876.52	-72.09705	3.5526E-010	0.007274	6
	46	65	24.93351	19969.41	-62996.18	1	66085.52	-72.4117	1.019896E-009	0.0072713	6
	47	66	19.86229	24399.58	-76540.06	1	80335.05	-72.31866	1.241505E-009	0.0072739	6
	48	67	15.83615	29980.05	-92468.8	1	97207.4	-72.03638	7.981263E-010	0.0072742	6
	49	69	12.40079	38245.49	-113284.8	1	119566.5	-71.34507	4.349598E-010	0.0072762	5
	50	70	9.93114	48369.8	-135337.2	1	143721.3	-70.33301	1.01365E-009	0.0072698	5
	51	72	7.944915	60764.45	-161349.1	1	172411.9	-69.36351	5.096444E-010	0.0072735	5
	52	73	6.317385	77669.84	-191368.1	1	206529.3	-67.90944	9.287459E-010	0.0072757	5
	53	76	5.008013	99394.4	-226396.5	1	247254.1	-66.29719	6.056843E-010	0.0072846	5
	54	78	3.945707	126751.6	-266953.2	1	295516.5	-64.60126	4.051828E-011	0.0072713	5
	55	81	3.158693	158380.4	-308286.3	1	346590.3	-62.80842	3.119409E-010	0.0072786	5
	56	84	2.504006	197210	-355118.8	1	406203.3	-60.95504	1.798959E-011	0.0072869	5
	57	87	1.998082	240247.6	-403275.3	1	469414.4	-59.21601	4.415872E-010	0.0072384	5
	58	90	1.584686	290132.9	-458800.9	1	542840.1	-57.69188	1.004263E-011	0.0072518	5
	59	94	1.266892	344381.5	-514617.3	1	619216.9	-56.2096	1.655651E-010	0.0072314	5
	60	98	0.999041	406104	-581921.6	1	709614.8	-55.09007	1.70264E-010	0.0073137	5
