EXPLAIN
TAG	EISPOT
TITLE	LABEL	Potentiostatic EIS	Test &Identifier
DATE	LABEL	8/14/2018	Date
TIME	LABEL	5:15:02	Time
NOTES	NOTES	1	&Notes...
	
PSTAT	PSTAT	REF600-11020	Potentiostat
VDC	POTEN	0.00000E+000	T	DC &Voltage (V)
FREQINIT	QUANT	1.00000E+006	Initial Fre&q. (Hz)
FREQFINAL	QUANT	1.00000E+000	Final Fre&q. (Hz)
PTSPERDEC	QUANT	1.00000E+001	Points/&decade
VAC	QUANT	2.50000E+001	AC &Voltage (mV rms)
AREA	QUANT	1.00000E-002	&Area (cm^2)
CONDIT	TWOPARAM	T	5.00000E+000	0.00000E+000	Conditionin&g	Time(s)	E(V)
DELAY	TWOPARAM	T	5.00000E+000	0.00000E+000	Init. De&lay	Time(s)	Stab.(mV/s)
SPEED	SELECTOR	0	&Optimize for:
ZGUESS	QUANT	1.00000E+005	E&stimated Z (ohms)
OCVCURVE	TABLE	19
	Pt	T	Vf	Vm	Ach	Over
	#	s	V vs. Ref.	V	V	bits
	0	0.258333	5.28708E-003	5.28708E-003	5.71299E-004	...........
	1	0.516667	5.28633E-003	5.24787E-003	5.70199E-004	...........
	2	0.775	5.28203E-003	5.22655E-003	5.73266E-004	...........
	3	1.03333	5.27107E-003	5.21609E-003	5.71099E-004	...........
	4	1.29167	5.25435E-003	5.21119E-003	5.69466E-004	...........
	5	1.55	5.23691E-003	5.21323E-003	5.70666E-004	...........
	6	1.80833	5.22366E-003	5.21772E-003	5.70432E-004	...........
	7	2.06667	5.21676E-003	5.22909E-003	5.70099E-004	...........
	8	2.325	5.21616E-003	5.24257E-003	5.73332E-004	...........
	9	2.58333	5.22103E-003	5.25930E-003	5.68066E-004	...........
	10	2.84167	5.23037E-003	5.27478E-003	5.67899E-004	...........
	11	3.1	5.24307E-003	5.29320E-003	5.73166E-004	...........
	12	3.35833	5.25803E-003	5.31009E-003	5.66266E-004	...........
	13	3.61667	5.27440E-003	5.32958E-003	5.70399E-004	...........
	14	3.875	5.29162E-003	5.34563E-003	5.70432E-004	...........
	15	4.13333	5.30930E-003	5.36447E-003	5.66232E-004	...........
	16	4.39167	5.32710E-003	5.38074E-003	5.67432E-004	...........
	17	4.65	5.34492E-003	5.40414E-003	5.70232E-004	...........
	18	4.90833	5.36302E-003	5.42092E-003	5.67432E-004	...........
EOC	QUANT	0.005363	Open Circuit (V)
PSTATMODEL	IQUANT	4	Pstat Model
PSTATSECTION	LABEL	REF600-11020	Pstat Section
PSTATSERIALNO	LABEL	11020	Pstat Serial Number
CTRLMODE	IQUANT	1	Control Mode
IESTAB	IQUANT	0	I/E Stability
CASPEED	IQUANT	1	Control Amp Speed
CONVENTION	IQUANT	1	Current Convention
ICHRANGE	IQUANT	2	Ich Range
ICHRANGEMODE	TOGGLE	F	Ich Auto Range
ICHOFFSETENABLE	TOGGLE	T	Ich Offset Enable
ICHOFFSET	QUANT	0	Ich Offset (V)
ICHFILTER	IQUANT	3	Ich Filter
VCHRANGE	IQUANT	2	Vch Range
VCHRANGEMODE	TOGGLE	F	Vch Auto Range
VCHOFFSETENABLE	TOGGLE	T	Vch Offset Enable
VCHOFFSET	QUANT	0	Vch Offset (V)
VCHFILTER	IQUANT	3	Vch Filter
ACHRANGE	IQUANT	2	Ach Range
ACHOFFSETENABLE	TOGGLE	F	Ach Offset Enable
ACHOFFSET	QUANT	0	Ach Offset (V)
ACHFILTER	IQUANT	3	Ach Filter
IERANGELOWERLIMIT	IQUANT	1	I/E Range Lower Limit
IERANGEMODE	TOGGLE	F	I/E AutoRange
IERANGE	IQUANT	5	I/E Range
POSFEEDENABLE	TOGGLE	F	Positive Feedback IR Comp
POSFEEDRESISTANCE	QUANT	0	Positive Feedback Resistance (ohm)
ACHSELECT	IQUANT	0	Ach Select
CABLEID	IQUANT	14	Cable ID
DCCALDATE	LABEL	8/19/2019	DC Calibration Date
ACCALDATE	LABEL	8/19/2019	AC Calibration Date
THERMOSELECT	IQUANT	1	Thermo Select
FRAMEWORKVERSION	QUANT	6.33	Framework Version
INSTRUMENTVERSION	LABEL	3.50	Instrument Version
ZCURVE	TABLE
	Pt	Time	Freq	Zreal	Zimag	Zsig	Zmod	Zphz	Idc	Vdc	IERange
	#	s	Hz	ohm	ohm	V	ohm	°	A	V	#
	0	1	1000078	2151.927	-930.86	1	2344.63	-23.39189	-5.199072E-006	0.0082364	8
	1	1	794390.6	2287.552	-815.3133	1	2428.503	-19.61673	2.248688E-006	0.0071176	8
	2	2	630984.4	2405.792	-715.2784	1	2509.872	-16.55801	3.806088E-006	0.0062003	8
	3	2	501234.4	2487.125	-616.6073	1	2562.419	-13.92401	6.90639E-007	0.006721	8
	4	2	398109.4	2557.797	-530.0991	1	2612.15	-11.7087	4.509143E-008	0.0068303	8
	5	3	316265.6	2609.317	-460.0376	1	2649.561	-9.99882	3.436691E-006	0.0062978	8
	6	3	251203.1	2643.385	-401.9061	1	2673.764	-8.645164	9.95248E-007	0.0066429	8
	7	3	199546.9	2677.395	-355.7663	1	2700.928	-7.568997	-9.377317E-008	0.0068709	8
	8	4	158578.1	2699.43	-325.3509	1	2718.966	-6.872469	3.666577E-007	0.0067827	8
	9	4	125953.1	2742.894	-246.255	1	2753.926	-5.13022	-5.624429E-007	0.0074353	7
	10	4	100078.1	2760.804	-240.4642	1	2771.257	-4.977862	7.375457E-008	0.0067511	7
	11	5	79453.13	2780.019	-243.5793	1	2790.67	-5.007345	-5.725159E-009	0.0068305	7
	12	5	63140.62	2801.392	-252.4905	1	2812.747	-5.150174	-4.934818E-008	0.006851	7
	13	5	50203.12	2824.807	-267.1443	1	2837.411	-5.402441	-3.59541E-008	0.0068059	7
	14	6	39890.62	2849.157	-286.775	1	2863.553	-5.747612	-3.7745E-008	0.0068027	7
	15	6	31640.63	2877.802	-312.3748	1	2894.706	-6.194991	-5.096712E-008	0.0068468	7
	16	6	25171.88	2907.873	-344.2144	1	2928.175	-6.750874	-5.162813E-008	0.0068457	7
	17	6	20015.62	2936.773	-380.0345	1	2961.26	-7.37341	7.381708E-008	0.0067367	7
	18	7	15890.62	2980.664	-431.4789	1	3011.732	-8.236881	-3.116754E-008	0.0067929	7
	19	7	12609.37	3024.733	-487.2881	1	3063.733	-9.151784	3.25521E-008	0.0066679	7
	20	7	10078.13	3071.628	-551.2946	1	3120.709	-10.17509	-3.605724E-008	0.0067978	7
	21	8	8015.625	3122.545	-626.5479	1	3184.784	-11.3459	6.668172E-008	0.0066395	7
	22	8	6328.125	3186.155	-720.3546	1	3266.573	-12.73976	6.269837E-008	0.006672	7
	23	8	5015.625	3251.997	-827.2006	1	3355.554	-14.27149	-4.893616E-009	0.0068154	7
	24	9	3984.375	3327.281	-954.643	1	3461.523	-16.00892	-4.72838E-008	0.0068398	7
	25	9	3170.956	3400.24	-1101.008	1	3574.052	-17.94211	-3.687769E-008	0.0067962	7
	26	9	2527.573	3480.955	-1276.581	1	3707.655	-20.13965	3.345687E-008	0.0066648	7
	27	10	1976.103	3576.488	-1508.022	1	3881.417	-22.86267	-2.983142E-008	0.0068409	7
	28	10	1577.524	3622.685	-1750.356	1	4023.381	-25.78823	1.048369E-007	0.0066323	7
	29	10	1265.625	3766.45	-2081.833	1	4303.507	-28.93078	-4.802767E-008	0.0068372	7
	30	11	998.264	3881.191	-2493.129	1	4612.953	-32.71514	2.890213E-009	0.0067187	7
	31	11	796.875	3999.981	-2975.733	1	4985.462	-36.64692	3.412887E-008	0.0067411	7
	32	11	627.7902	4142.037	-3611.726	1	5495.547	-41.08741	2.782583E-009	0.0067359	7
	33	12	505.5147	4290.375	-4330.568	1	6095.993	-45.26713	-5.149531E-008	0.0068651	7
	34	12	397.9953	4481.583	-5303.398	1	6943.387	-49.80086	1.33026E-009	0.0068036	7
	35	12	315.5048	4709.657	-6484.773	1	8014.559	-54.01044	-8.928364E-011	0.0067982	7
	36	12	252.4038	4982.179	-7886.265	1	9328.198	-57.71719	1.348556E-009	0.0067978	7
	37	13	198.6229	5357.504	-9742.33	1	11118.26	-61.19271	2.001593E-011	0.0067371	6
	38	13	158.3615	5814.067	-11904.89	1	13248.76	-63.97021	3.278386E-010	0.0067348	6
	39	13	125.558	6422.708	-14627.94	1	15975.85	-66.29511	7.600934E-011	0.0067402	6
	40	14	100.4464	7194.116	-17837.21	1	19233.34	-68.03477	6.555597E-010	0.0067318	6
	41	14	79.00281	8248.729	-22037.59	1	23530.76	-69.47899	9.971026E-010	0.0067301	6
	42	14	63.3446	9666.42	-26438.4	1	28150.11	-69.91655	-5.078037E-010	0.0067289	6
	43	15	49.86702	11623.17	-32591.73	1	34602.3	-70.37228	-1.128976E-009	0.0067313	6
	44	15	39.72458	13890.6	-39734.33	1	42092.35	-70.73104	-5.861281E-010	0.0067382	6
	45	16	31.6723	17022.54	-48129.18	1	51050.8	-70.52211	-8.614155E-010	0.0067339	6
	46	16	24.93351	21584.51	-58276.89	1	62145.69	-69.67645	-3.534031E-010	0.0067315	6
	47	16	19.86229	27004.15	-69576.04	1	74632.77	-68.78756	-1.609522E-009	0.0067361	6
	48	16	15.83615	33081.36	-82751.56	1	89119.01	-68.21009	-7.482421E-010	0.0067359	6
	49	17	12.40079	43793.75	-98929.6	1	108189.5	-66.12219	-5.306766E-010	0.0067404	5
	50	17	9.93114	53981.09	-114937	1	126982.2	-64.84252	7.614342E-010	0.0067416	5
	51	18	7.944915	66466.42	-132840.4	1	148540.7	-63.41899	1.431993E-009	0.0067348	5
	52	18	6.317385	82093.96	-153503.8	1	174077.1	-61.8621	8.089417E-010	0.0067167	5
	53	19	5.008013	100136.6	-176710.9	1	203111	-60.46111	3.958299E-010	0.0067325	5
	54	20	3.945707	120475.2	-202892.1	1	235965	-59.29861	4.894253E-011	0.0067369	5
	55	22	3.158693	141670.6	-230467.4	1	270528.7	-58.42053	-2.222573E-010	0.0067248	5
	56	23	2.504006	165860.2	-263179.2	1	311083.4	-57.78015	8.898579E-011	0.0067243	5
	57	24	1.998082	190453.9	-300210.3	1	355526.3	-57.6089	8.96812E-011	0.0067484	5
	58	26	1.584686	219053.3	-344303.8	1	408080.2	-57.53462	-1.096301E-010	0.0066993	5
	59	28	1.266892	249515.3	-396647.8	1	468601.5	-57.82764	-1.446918E-010	0.0066901	5
	60	31	0.999041	284985.2	-462982.3	1	543662.8	-58.38594	-1.331135E-010	0.0066951	5
