EXPLAIN
TAG	EISPOT
TITLE	LABEL	Potentiostatic EIS	Test &Identifier
DATE	LABEL	10/18/2019	Date
TIME	LABEL	9:24:40	Time
NOTES	NOTES	1	&Notes...
	
PSTAT	PSTAT	REF600-11020	Potentiostat
VDC	POTEN	0.00000E+000	T	DC &Voltage (V)
FREQINIT	QUANT	1.00000E+006	Initial Fre&q. (Hz)
FREQFINAL	QUANT	1.00000E+000	Final Fre&q. (Hz)
PTSPERDEC	QUANT	1.00000E+001	Points/&decade
VAC	QUANT	2.50000E+001	AC &Voltage (mV rms)
AREA	QUANT	1.00000E-002	&Area (cm^2)
CONDIT	TWOPARAM	T	5.00000E+000	0.00000E+000	Conditionin&g	Time(s)	E(V)
DELAY	TWOPARAM	T	5.00000E+000	0.00000E+000	Init. De&lay	Time(s)	Stab.(mV/s)
SPEED	SELECTOR	0	&Optimize for:
ZGUESS	QUANT	1.00000E+005	E&stimated Z (ohms)
OCVCURVE	TABLE	19
	Pt	T	Vf	Vm	Ach	Over
	#	s	V vs. Ref.	V	V	bits
	0	0.258333	5.81061E-003	5.81061E-003	5.16633E-004	...........
	1	0.516667	5.81090E-003	5.82571E-003	5.17966E-004	...........
	2	0.775	5.81323E-003	5.86956E-003	5.18366E-004	...........
	3	1.03333	5.82062E-003	5.85464E-003	5.18433E-004	...........
	4	1.29167	5.83229E-003	5.81720E-003	5.23733E-004	...........
	5	1.55	5.83920E-003	5.73093E-003	5.18233E-004	...........
	6	1.80833	5.82985E-003	5.72895E-003	5.22000E-004	...........
	7	2.06667	5.80346E-003	5.75828E-003	5.21733E-004	...........
	8	2.325	5.77454E-003	5.79763E-003	5.15666E-004	...........
	9	2.58333	5.76093E-003	5.84359E-003	5.17000E-004	...........
	10	2.84167	5.76996E-003	5.87554E-003	5.14700E-004	...........
	11	3.1	5.79737E-003	5.92861E-003	5.17766E-004	...........
	12	3.35833	5.83506E-003	5.96572E-003	5.14733E-004	...........
	13	3.61667	5.87684E-003	5.99730E-003	5.15100E-004	...........
	14	3.875	5.91875E-003	6.03503E-003	5.13466E-004	...........
	15	4.13333	5.95845E-003	6.06590E-003	5.17333E-004	...........
	16	4.39167	5.99515E-003	6.08496E-003	5.15800E-004	...........
	17	4.65	6.02877E-003	6.12683E-003	5.21100E-004	...........
	18	4.90833	6.06000E-003	6.15542E-003	5.20166E-004	...........
EOC	QUANT	0.00606	Open Circuit (V)
PSTATMODEL	IQUANT	4	Pstat Model
PSTATSECTION	LABEL	REF600-11020	Pstat Section
PSTATSERIALNO	LABEL	11020	Pstat Serial Number
CTRLMODE	IQUANT	1	Control Mode
IESTAB	IQUANT	0	I/E Stability
CASPEED	IQUANT	1	Control Amp Speed
CONVENTION	IQUANT	1	Current Convention
ICHRANGE	IQUANT	2	Ich Range
ICHRANGEMODE	TOGGLE	F	Ich Auto Range
ICHOFFSETENABLE	TOGGLE	T	Ich Offset Enable
ICHOFFSET	QUANT	0	Ich Offset (V)
ICHFILTER	IQUANT	3	Ich Filter
VCHRANGE	IQUANT	2	Vch Range
VCHRANGEMODE	TOGGLE	F	Vch Auto Range
VCHOFFSETENABLE	TOGGLE	T	Vch Offset Enable
VCHOFFSET	QUANT	0	Vch Offset (V)
VCHFILTER	IQUANT	3	Vch Filter
ACHRANGE	IQUANT	2	Ach Range
ACHOFFSETENABLE	TOGGLE	F	Ach Offset Enable
ACHOFFSET	QUANT	0	Ach Offset (V)
ACHFILTER	IQUANT	3	Ach Filter
IERANGELOWERLIMIT	IQUANT	1	I/E Range Lower Limit
IERANGEMODE	TOGGLE	F	I/E AutoRange
IERANGE	IQUANT	5	I/E Range
POSFEEDENABLE	TOGGLE	F	Positive Feedback IR Comp
POSFEEDRESISTANCE	QUANT	0	Positive Feedback Resistance (ohm)
ACHSELECT	IQUANT	0	Ach Select
CABLEID	IQUANT	14	Cable ID
DCCALDATE	LABEL	8/19/2019	DC Calibration Date
ACCALDATE	LABEL	8/19/2019	AC Calibration Date
THERMOSELECT	IQUANT	1	Thermo Select
FRAMEWORKVERSION	QUANT	6.33	Framework Version
INSTRUMENTVERSION	LABEL	3.50	Instrument Version
ZCURVE	TABLE
	Pt	Time	Freq	Zreal	Zimag	Zsig	Zmod	Zphz	Idc	Vdc	IERange
	#	s	Hz	ohm	ohm	V	ohm	°	A	V	#
	0	1	1000078	2323.884	-1089.666	1	2566.673	-25.12181	6.651039E-006	0.0072236	8
	1	1	794390.6	2498.262	-961.667	1	2676.96	-21.05342	-6.074281E-006	0.008772	8
	2	2	630984.4	2638.271	-845.2466	1	2770.364	-17.76436	1.247719E-006	0.0079193	8
	3	2	501234.4	2734.638	-722.3881	1	2828.443	-14.79737	2.977328E-006	0.007089	8
	4	2	398109.4	2816.802	-621.2139	1	2884.49	-12.43686	1.053929E-006	0.0072181	8
	5	3	316265.6	2879.708	-528.5596	1	2927.814	-10.40066	2.848576E-006	0.0070499	8
	6	3	251203.1	2922.662	-450.7774	1	2957.221	-8.767936	9.841232E-007	0.0073763	8
	7	3	199546.9	2956.71	-397.7357	1	2983.342	-7.661419	1.430714E-006	0.0074899	8
	8	4	158578.1	2989.159	-340.7262	1	3008.516	-6.502923	-2.800977E-006	0.0082208	8
	9	4	125953.1	3031.199	-263.3188	1	3042.615	-4.964793	6.808624E-007	0.0067092	7
	10	4	100078.1	3043.168	-244.7909	1	3052.998	-4.598942	-5.359871E-008	0.0077546	7
	11	5	79453.13	3063.585	-239.0328	1	3072.896	-4.461401	-1.38261E-008	0.0077203	7
	12	5	63140.62	3082.875	-238.6017	1	3092.095	-4.425631	-4.073759E-008	0.0076135	7
	13	5	50203.12	3104.486	-242.364	1	3113.932	-4.463969	-3.646513E-008	0.0076206	7
	14	5	39890.62	3126.122	-251.7761	1	3136.244	-4.60463	-1.629052E-008	0.0076341	7
	15	6	31640.63	3148.455	-265.5725	1	3159.635	-4.821492	-5.520521E-008	0.0077435	7
	16	6	25171.88	3172.295	-285.7823	1	3185.141	-5.147705	-8.745766E-009	0.0076206	7
	17	6	20015.62	3203.052	-315.8407	1	3218.586	-5.631514	-1.602955E-008	0.0075596	7
	18	7	15890.62	3224.112	-347.1646	1	3242.749	-6.145793	-6.9915E-008	0.0077072	7
	19	7	12609.37	3251.484	-389.823	1	3274.768	-6.836607	-1.435431E-008	0.0077168	7
	20	7	10078.13	3279.943	-440.9723	1	3309.453	-7.657222	-5.596865E-009	0.0075989	7
	21	8	8015.625	3304.041	-508.8605	1	3342.997	-8.75542	-4.157672E-008	0.0076114	7
	22	8	6328.125	3345.595	-593.4294	1	3397.817	-10.0583	-4.254407E-008	0.0076112	7
	23	8	5015.625	3381.351	-698.2724	1	3452.697	-11.66796	-5.527239E-008	0.0077409	7
	24	9	3984.375	3417.862	-809.7374	1	3512.471	-13.3284	-9.075469E-009	0.0076195	7
	25	9	3170.956	3467.254	-984.251	1	3604.248	-15.84768	-7.819054E-009	0.0076187	7
	26	9	2527.573	3518.843	-1175.279	1	3709.924	-18.46911	3.443046E-008	0.0075452	7
	27	10	1976.103	3582.958	-1434.285	1	3859.373	-21.8166	-5.343932E-008	0.0077338	7
	28	10	1577.524	3631.247	-1735.44	1	4024.637	-25.544	3.64886E-008	0.0074562	7
	29	10	1265.625	3728.409	-2068.765	1	4263.898	-29.02438	-8.270685E-009	0.007618	7
	30	11	998.264	3824.975	-2528.533	1	4585.184	-33.46705	-3.381478E-009	0.0075859	7
	31	11	796.875	3934.189	-3061.523	1	4985.054	-37.88948	6.149977E-008	0.0074715	7
	32	11	627.7902	4071.729	-3761.666	1	5543.384	-42.73329	-7.109408E-009	0.0076152	7
	33	11	505.5147	4220.394	-4544.573	1	6202.005	-47.11816	-3.789035E-008	0.0076611	7
	34	12	397.9953	4424.104	-5604.459	1	7140.215	-51.71279	3.453117E-009	0.0075958	7
	35	12	315.5048	4672.575	-6880.017	1	8316.705	-55.81755	4.212089E-009	0.0075953	7
	36	12	252.4038	4973.694	-8385.11	1	9749.24	-59.32537	4.515976E-009	0.0075902	7
	37	13	198.6229	5394.894	-10374.47	1	11693.36	-62.52484	1.155253E-010	0.0075338	6
	38	13	158.3615	5909.485	-12687.85	1	13996.55	-65.0258	-7.175918E-010	0.0075294	6
	39	13	125.558	6599.285	-15579.21	1	16919.29	-67.0427	8.607813E-011	0.0075293	6
	40	14	100.4464	7443.619	-18940.65	1	20350.82	-68.54533	-3.608702E-010	0.0075353	6
	41	14	79.00281	8701.369	-23295.21	1	24867.26	-69.51803	-8.099024E-010	0.007535	6
	42	14	63.3446	10432.33	-28551.34	1	30397.57	-69.92828	1.16648E-009	0.0075319	6
	43	15	49.86702	12463.75	-34891.82	1	37051.1	-70.34271	1.464325E-009	0.0075271	6
	44	15	39.72458	15138.97	-41776.32	1	44434.78	-70.08041	5.581565E-010	0.0075315	6
	45	15	31.6723	18602.92	-49993.32	1	53342.29	-69.58936	-3.965885E-011	0.0075285	6
	46	16	24.93351	23232.92	-60603.57	1	64904.25	-69.02523	1.3791E-010	0.0075275	6
	47	16	19.86229	28949.3	-72010.31	1	77611.52	-68.09908	3.119736E-010	0.0075206	6
	48	16	15.83615	35466.36	-85249.2	1	92332.48	-67.41114	6.030246E-010	0.0075269	6
	49	17	12.40079	45678.5	-100966.1	1	110818.3	-65.65734	-1.116893E-009	0.0075395	5
	50	17	9.93114	55051.87	-118025.9	1	130233.7	-64.99382	1.376107E-009	0.0075347	5
	51	18	7.944915	68029.49	-137268.5	1	153201.3	-63.63724	4.857852E-010	0.0075284	5
	52	18	6.317385	81917.88	-159408.9	1	179225.4	-62.80204	6.977877E-010	0.0075184	5
	53	19	5.008013	98999.4	-185317.8	1	210103.7	-61.88824	3.851221E-010	0.0075318	5
	54	20	3.945707	119102.3	-215434.2	1	246165.1	-61.06409	-9.504293E-012	0.0075354	5
	55	21	3.158693	140738.8	-247869.2	1	285037.8	-60.41233	-2.031268E-010	0.0075131	5
	56	23	2.504006	166718.3	-286376.8	1	331370.8	-59.79357	1.233016E-010	0.0075202	5
	57	24	1.998082	194430.5	-329387.7	1	382491.1	-59.44756	4.061051E-011	0.0075275	5
	58	26	1.584686	228572.3	-380328.3	1	443728.4	-58.99468	-1.303633E-010	0.007484	5
	59	28	1.266892	265225.4	-438762.2	1	512695.6	-58.84765	-1.326489E-010	0.0074779	5
	60	30	0.999041	308588.4	-510162.7	1	596232.1	-58.831	-1.396727E-010	0.0074983	5
