EXPLAIN
TAG	EISPOT
TITLE	LABEL	Potentiostatic EIS	Test &Identifier
DATE	LABEL	11/15/2019	Date
TIME	LABEL	12:25:16	Time
NOTES	NOTES	4	&Notes...
	
	
	
	
PSTAT	PSTAT	REF600-11020	Potentiostat
VDC	POTEN	0.00000E+000	T	DC &Voltage (V)
FREQINIT	QUANT	1.00000E+006	Initial Fre&q. (Hz)
FREQFINAL	QUANT	1.00000E+000	Final Fre&q. (Hz)
PTSPERDEC	QUANT	1.00000E+001	Points/&decade
VAC	QUANT	2.50000E+001	AC &Voltage (mV rms)
AREA	QUANT	1.00000E-002	&Area (cm^2)
CONDIT	TWOPARAM	T	5.00000E+000	0.00000E+000	Conditionin&g	Time(s)	E(V)
DELAY	TWOPARAM	T	5.00000E+000	0.00000E+000	Init. De&lay	Time(s)	Stab.(mV/s)
SPEED	SELECTOR	0	&Optimize for:
ZGUESS	QUANT	1.00000E+005	E&stimated Z (ohms)
OCVCURVE	TABLE	19
	Pt	T	Vf	Vm	Ach	Over
	#	s	V vs. Ref.	V	V	bits
	0	0.258333	5.87047E-003	5.87047E-003	5.46299E-004	...........
	1	0.516667	5.87248E-003	5.97599E-003	5.47733E-004	...........
	2	0.775	5.88527E-003	6.09769E-003	5.51733E-004	...........
	3	1.03333	5.92288E-003	6.21675E-003	5.46366E-004	...........
	4	1.29167	5.99301E-003	6.33017E-003	5.51399E-004	...........
	5	1.55	6.09019E-003	6.44932E-003	5.52399E-004	...........
	6	1.80833	6.20261E-003	6.57741E-003	5.52499E-004	...........
	7	2.06667	6.32129E-003	6.68862E-003	5.46266E-004	...........
	8	2.325	6.44180E-003	6.80916E-003	5.51033E-004	...........
	9	2.58333	6.56194E-003	6.92302E-003	5.46799E-004	...........
	10	2.84167	6.68052E-003	7.02855E-003	5.51599E-004	...........
	11	3.1	6.79660E-003	7.13275E-003	5.50599E-004	...........
	12	3.35833	6.90925E-003	7.23681E-003	5.51866E-004	...........
	13	3.61667	7.01826E-003	7.34204E-003	5.48866E-004	...........
	14	3.875	7.12435E-003	7.43627E-003	5.49866E-004	...........
	15	4.13333	7.22810E-003	7.53268E-003	5.45666E-004	...........
	16	4.39167	7.32950E-003	7.63498E-003	5.45533E-004	...........
	17	4.65	7.42904E-003	7.73602E-003	5.48233E-004	...........
	18	4.90833	7.52817E-003	7.84181E-003	5.49333E-004	...........
EOC	QUANT	0.0075282	Open Circuit (V)
PSTATMODEL	IQUANT	4	Pstat Model
PSTATSECTION	LABEL	REF600-11020	Pstat Section
PSTATSERIALNO	LABEL	11020	Pstat Serial Number
CTRLMODE	IQUANT	1	Control Mode
IESTAB	IQUANT	0	I/E Stability
CASPEED	IQUANT	1	Control Amp Speed
CONVENTION	IQUANT	1	Current Convention
ICHRANGE	IQUANT	2	Ich Range
ICHRANGEMODE	TOGGLE	F	Ich Auto Range
ICHOFFSETENABLE	TOGGLE	T	Ich Offset Enable
ICHOFFSET	QUANT	0	Ich Offset (V)
ICHFILTER	IQUANT	3	Ich Filter
VCHRANGE	IQUANT	2	Vch Range
VCHRANGEMODE	TOGGLE	F	Vch Auto Range
VCHOFFSETENABLE	TOGGLE	T	Vch Offset Enable
VCHOFFSET	QUANT	0	Vch Offset (V)
VCHFILTER	IQUANT	3	Vch Filter
ACHRANGE	IQUANT	2	Ach Range
ACHOFFSETENABLE	TOGGLE	F	Ach Offset Enable
ACHOFFSET	QUANT	0	Ach Offset (V)
ACHFILTER	IQUANT	3	Ach Filter
IERANGELOWERLIMIT	IQUANT	1	I/E Range Lower Limit
IERANGEMODE	TOGGLE	F	I/E AutoRange
IERANGE	IQUANT	5	I/E Range
POSFEEDENABLE	TOGGLE	F	Positive Feedback IR Comp
POSFEEDRESISTANCE	QUANT	0	Positive Feedback Resistance (ohm)
ACHSELECT	IQUANT	0	Ach Select
CABLEID	IQUANT	14	Cable ID
DCCALDATE	LABEL	8/19/2019	DC Calibration Date
ACCALDATE	LABEL	8/19/2019	AC Calibration Date
THERMOSELECT	IQUANT	1	Thermo Select
FRAMEWORKVERSION	QUANT	6.33	Framework Version
INSTRUMENTVERSION	LABEL	3.50	Instrument Version
ZCURVE	TABLE
	Pt	Time	Freq	Zreal	Zimag	Zsig	Zmod	Zphz	Idc	Vdc	IERange
	#	s	Hz	ohm	ohm	V	ohm	°	A	V	#
	0	1	1000078	2222.373	-1756.275	1	2832.569	-38.31826	-4.696747E-007	0.0092213	8
	1	1	794390.6	2555.069	-1761.557	1	3103.459	-34.58377	8.293163E-006	0.0078795	8
	2	1	630984.4	2887.165	-1738.115	1	3369.979	-31.04855	-7.30378E-006	0.0096222	8
	3	2	501234.4	3200.662	-1678.288	1	3613.985	-27.67056	-6.02487E-006	0.0101923	8
	4	2	398109.4	3488.479	-1595.306	1	3835.946	-24.57495	-2.528204E-006	0.0096978	8
	5	2	316265.6	3757.7	-1483.234	1	4039.838	-21.54008	6.501611E-006	0.0079113	8
	6	3	251203.1	3997.042	-1359.639	1	4221.962	-18.78631	-2.56617E-007	0.0087454	8
	7	3	199546.9	4205.219	-1207.901	1	4375.259	-16.02611	-2.664134E-006	0.0090082	8
	8	3	158578.1	4368.727	-1075.862	1	4499.25	-13.83463	-3.60884E-006	0.009624	8
	9	4	125953.1	4532.536	-879.0836	1	4616.998	-10.97622	4.364235E-006	0.0016506	7
	10	4	100078.1	4613.61	-762.3261	1	4676.167	-9.382447	-1.189949E-006	0.0107841	7
	11	4	79453.13	4692.948	-667.372	1	4740.164	-8.093616	-6.777713E-007	0.0107549	7
	12	4	63140.62	4759.525	-587.6964	1	4795.672	-7.039135	4.134227E-007	0.0096083	7
	13	5	50203.12	4804.488	-516.8085	1	4832.204	-6.139577	8.43311E-007	0.0071033	7
	14	5	39890.62	4834.052	-466.2825	1	4856.488	-5.509585	-1.327541E-006	0.0105965	7
	15	5	31640.63	4866.073	-428.857	1	4884.935	-5.036581	-1.31894E-006	0.0101937	7
	16	6	25171.88	4901.316	-409.8837	1	4918.425	-4.780366	5.26921E-007	0.0072209	7
	17	6	20015.62	4927.763	-408.7824	1	4944.689	-4.742112	1.192851E-006	0.0077927	7
	18	6	15890.62	4959.453	-409.671	1	4976.344	-4.722144	1.192554E-006	0.0077921	7
	19	7	12609.37	4971.497	-428.0674	1	4989.892	-4.921278	-1.190505E-006	0.010777	7
	20	7	10078.13	5000.524	-462.4681	1	5021.864	-5.283908	5.282697E-007	0.0072166	7
	21	7	8015.625	5027.799	-512.9557	1	5053.898	-5.825383	4.136478E-007	0.0096011	7
	22	8	6328.125	5044.514	-580.758	1	5077.834	-6.567358	-1.131586E-006	0.0095742	7
	23	8	5015.625	5086.598	-677.5273	1	5131.522	-7.587054	4.140088E-007	0.0096046	7
	24	8	3984.375	5120.96	-797.0486	1	5182.617	-8.846784	-3.199928E-007	0.0104849	7
	25	9	3170.956	5146.352	-945.1365	1	5232.42	-10.40651	1.262727E-007	0.0075412	7
	26	9	2527.573	5183.857	-1130.137	1	5305.618	-12.29866	-1.189663E-006	0.0107723	7
	27	9	1976.103	5243.363	-1387.055	1	5423.724	-14.81735	6.882733E-008	0.0100669	7
	28	10	1577.524	5295.388	-1680.391	1	5555.614	-17.60585	1.093614E-006	0.0082559	7
	29	10	1265.625	5365.061	-2024.202	1	5734.219	-20.67116	-3.195959E-007	0.0104809	7
	30	10	998.264	5461.114	-2495.949	1	6004.459	-24.56231	1.193665E-006	0.0077861	7
	31	11	796.875	5552.62	-3023.769	1	6322.561	-28.57122	-1.191834E-006	0.0107661	7
	32	11	627.7902	5700.892	-3741.991	1	6819.286	-33.28037	-3.19968E-007	0.0104807	7
	33	11	505.5147	5851.196	-4516.016	1	7391.271	-37.66135	-1.188458E-006	0.010761	7
	34	12	397.9953	6083.269	-5601.129	1	8269.147	-42.63711	2.798163E-009	0.0090387	7
	35	12	315.5048	6372.32	-6880.759	1	9378.236	-47.19701	3.218495E-009	0.0090347	7
	36	12	252.4038	6739.125	-8379.016	1	10752.85	-51.19077	-6.082102E-010	0.0089826	6
	37	13	198.6229	7251.316	-10341.51	1	12630.46	-54.96242	-1.536355E-010	0.008984	6
	38	13	158.3615	7903.591	-12597.53	1	14871.6	-57.89616	-4.15097E-010	0.0089776	6
	39	13	125.558	8776.692	-15380.9	1	17708.82	-60.28993	2.770608E-010	0.0089683	6
	40	14	100.4464	9905.06	-18597.88	1	21071.1	-61.96065	-4.166827E-010	0.0089741	6
	41	14	79.00281	11459.84	-22718.62	1	25445.3	-63.23249	-5.963354E-010	0.0089651	6
	42	14	63.3446	13418.82	-26903.66	1	30064.46	-63.49122	-6.828209E-010	0.0089658	6
	43	15	49.86702	16187.24	-32579.62	1	36379.36	-63.57944	-9.680096E-010	0.0089746	6
	44	15	39.72458	19481.21	-38961.16	1	43560.19	-63.43421	3.133305E-011	0.0089675	6
	45	15	31.6723	23707.1	-45920.83	1	51679.3	-62.69449	-8.748098E-010	0.0089652	6
	46	16	24.93351	29411.56	-54214.28	1	61678.43	-61.51991	4.220066E-010	0.0089725	6
	47	16	19.86229	35883.41	-62773.94	1	72306.2	-60.24646	2.799241E-009	0.0089778	6
	48	16	15.83615	43516.97	-72230.17	1	84326.3	-58.93203	-1.647106E-009	0.008972	6
	49	16	12.40079	53952.26	-82603.36	1	98661.9	-56.8495	-3.372038E-009	0.0089876	6
	50	17	9.93114	63261.98	-93350.81	1	112767.3	-55.87529	1.379526E-009	0.0089762	5
	51	17	7.944915	74461.03	-104569.8	1	128371.7	-54.54647	1.244862E-009	0.0089657	5
	52	18	6.317385	86708.45	-117453.7	1	145992.2	-53.56395	6.73792E-010	0.0089718	5
	53	19	5.008013	99809	-132113.2	1	165577	-52.92966	3.669826E-010	0.0089803	5
	54	20	3.945707	113985.3	-149391.3	1	187910.6	-52.65642	-4.665172E-010	0.0089727	5
	55	21	3.158693	127854.8	-168205.4	1	211281.5	-52.76112	-2.766407E-010	0.008953	5
	56	23	2.504006	143250.2	-191987.1	1	239540.5	-53.27173	7.103509E-011	0.008967	5
	57	24	1.998082	158829.3	-219135.7	1	270642.2	-54.06545	-3.349094E-010	0.0089426	5
	58	26	1.584686	176785.4	-253884.5	1	309371.1	-55.14965	-4.001424E-010	0.0089197	5
	59	28	1.266892	194797.9	-294432	1	353038.9	-56.51115	-3.653491E-010	0.0089411	5
	60	30	0.999041	216435.8	-346156.8	1	408251.2	-57.98417	-1.872411E-010	0.0089693	5
