EXPLAIN
TAG	EISPOT
TITLE	LABEL	Potentiostatic IDE	Test &Identifier
DATE	LABEL	9/18/2019	Date
TIME	LABEL	9:08:19	Time
NOTES	NOTES	1	&Notes...
	
PSTAT	PSTAT	REF600-11020	Potentiostat
VDC	POTEN	0.00000E+000	T	DC &Voltage (V)
FREQINIT	QUANT	1.00000E+006	Initial Fre&q. (Hz)
FREQFINAL	QUANT	1.00000E+000	Final Fre&q. (Hz)
PTSPERDEC	QUANT	1.00000E+001	Points/&decade
VAC	QUANT	2.50000E+001	AC &Voltage (mV rms)
AREA	QUANT	1.00000E-002	&Area (cm^2)
CONDIT	TWOPARAM	T	5.00000E+000	0.00000E+000	Conditionin&g	Time(s)	E(V)
DELAY	TWOPARAM	T	5.00000E+000	0.00000E+000	Init. De&lay	Time(s)	Stab.(mV/s)
SPEED	SELECTOR	1	&Optimize for:
ZGUESS	QUANT	1.00000E+007	E&stimated Z (ohms)
OCVCURVE	TABLE	19
	Pt	T	Vf	Vm	Ach	Over
	#	s	V vs. Ref.	V	V	bits
	0	0.258333	1.05106E-002	1.05106E-002	5.70599E-004	...........
	1	0.516667	1.05122E-002	1.05922E-002	5.70432E-004	...........
	2	0.775	1.05245E-002	1.08146E-002	5.66066E-004	...........
	3	1.03333	1.05695E-002	1.10737E-002	5.67999E-004	...........
	4	1.29167	1.06715E-002	1.13133E-002	5.69232E-004	...........
	5	1.55	1.08349E-002	1.14434E-002	5.67332E-004	...........
	6	1.80833	1.10342E-002	1.15455E-002	5.70066E-004	...........
	7	2.06667	1.12332E-002	1.18066E-002	5.71032E-004	...........
	8	2.325	1.14169E-002	1.20056E-002	5.67966E-004	...........
	9	2.58333	1.15962E-002	1.21658E-002	5.71866E-004	...........
	10	2.84167	1.17809E-002	1.23268E-002	5.72166E-004	...........
	11	3.1	1.19639E-002	1.23713E-002	5.70632E-004	...........
	12	3.35833	1.21300E-002	1.25235E-002	5.75265E-004	...........
	13	3.61667	1.22726E-002	1.26962E-002	5.73532E-004	...........
	14	3.875	1.24025E-002	1.28426E-002	5.71666E-004	...........
	15	4.13333	1.25356E-002	1.29747E-002	5.69699E-004	...........
	16	4.39167	1.26768E-002	1.31167E-002	5.71566E-004	...........
	17	4.65	1.28204E-002	1.32134E-002	5.70766E-004	...........
	18	4.90833	1.29597E-002	1.33743E-002	5.71199E-004	...........
EOC	QUANT	0.0129597	Open Circuit (V)
PSTATMODEL	IQUANT	4	Pstat Model
PSTATSECTION	LABEL	REF600-11020	Pstat Section
PSTATSERIALNO	LABEL	11020	Pstat Serial Number
CTRLMODE	IQUANT	1	Control Mode
IESTAB	IQUANT	0	I/E Stability
CASPEED	IQUANT	1	Control Amp Speed
CONVENTION	IQUANT	1	Current Convention
ICHRANGE	IQUANT	2	Ich Range
ICHRANGEMODE	TOGGLE	F	Ich Auto Range
ICHOFFSETENABLE	TOGGLE	T	Ich Offset Enable
ICHOFFSET	QUANT	0	Ich Offset (V)
ICHFILTER	IQUANT	3	Ich Filter
VCHRANGE	IQUANT	2	Vch Range
VCHRANGEMODE	TOGGLE	F	Vch Auto Range
VCHOFFSETENABLE	TOGGLE	T	Vch Offset Enable
VCHOFFSET	QUANT	0	Vch Offset (V)
VCHFILTER	IQUANT	3	Vch Filter
ACHRANGE	IQUANT	2	Ach Range
ACHOFFSETENABLE	TOGGLE	F	Ach Offset Enable
ACHOFFSET	QUANT	0	Ach Offset (V)
ACHFILTER	IQUANT	3	Ach Filter
IERANGELOWERLIMIT	IQUANT	1	I/E Range Lower Limit
IERANGEMODE	TOGGLE	F	I/E AutoRange
IERANGE	IQUANT	3	I/E Range
POSFEEDENABLE	TOGGLE	F	Positive Feedback IR Comp
POSFEEDRESISTANCE	QUANT	0	Positive Feedback Resistance (ohm)
ACHSELECT	IQUANT	0	Ach Select
CABLEID	IQUANT	14	Cable ID
DCCALDATE	LABEL	8/19/2019	DC Calibration Date
ACCALDATE	LABEL	8/19/2019	AC Calibration Date
THERMOSELECT	IQUANT	1	Thermo Select
FRAMEWORKVERSION	QUANT	6.33	Framework Version
INSTRUMENTVERSION	LABEL	3.50	Instrument Version
ZCURVE	TABLE
	Pt	Time	Freq	Zreal	Zimag	Zsig	Zmod	Zphz	Idc	Vdc	IERange
	#	s	Hz	ohm	ohm	V	ohm	°	A	V	#
	0	2	1000078	2259.648	-1698.591	1	2826.874	-36.9324	1.7877E-006	0.0154049	8
	1	4	794390.6	2610.856	-1628.245	1	3076.972	-31.94949	6.686426E-008	0.014914	8
	2	5	630984.4	2920.134	-1496.893	1	3281.443	-27.14018	-5.756698E-007	0.0150087	8
	3	6	501234.4	3164.727	-1339.982	1	3436.721	-22.94836	-2.759859E-006	0.0153553	8
	4	8	398109.4	3349.546	-1162.672	1	3545.598	-19.14256	-5.813354E-007	0.0148505	8
	5	9	316265.6	3512.467	-1013.27	1	3655.7	-16.09169	-5.853983E-009	0.0146436	8
	6	10	251203.1	3632.62	-878.4801	1	3737.333	-13.59488	4.887742E-008	0.0145553	8
	7	12	199546.9	3703.708	-743.0668	1	3777.512	-11.34452	3.931666E-006	0.013784	8
	8	13	158578.1	3766.867	-646.7911	1	3821.992	-9.74298	5.376351E-007	0.0145004	8
	9	14	125953.1	3830.389	-546.4975	1	3869.178	-8.119828	-1.121444E-006	0.0170106	7
	10	16	100078.1	3867.127	-487.9976	1	3897.796	-7.192209	-3.054314E-009	0.0146173	7
	11	17	79453.13	3903.013	-451.3596	1	3929.025	-6.596603	1.884084E-008	0.0145328	7
	12	18	63140.62	3936.73	-428.0167	1	3959.93	-6.205048	-1.485361E-009	0.0145786	7
	13	20	50203.12	3971.272	-417.1404	1	3993.12	-5.99633	5.079604E-009	0.0145387	7
	14	21	39890.62	4005.413	-412.9764	1	4026.646	-5.886656	7.306002E-010	0.0146123	7
	15	22	31640.63	4039.975	-425.7606	1	4062.348	-6.01602	1.082189E-009	0.0146082	7
	16	24	25171.88	4077.068	-447.215	1	4101.522	-6.259768	-2.113336E-008	0.0145999	7
	17	25	20015.62	4116.516	-478.1564	1	4144.193	-6.625535	-2.739669E-008	0.0145964	7
	18	26	15890.62	4160.767	-524.2432	1	4193.664	-7.181241	-1.932217E-008	0.0145976	7
	19	27	12609.37	4204.122	-576.0239	1	4243.4	-7.801751	8.086734E-010	0.0146131	7
	20	29	10078.13	4250.986	-642.8912	1	4299.324	-8.599869	-2.967828E-008	0.0145923	7
	21	30	8015.625	4304.703	-728.3549	1	4365.887	-9.60348	-2.546985E-008	0.0146241	7
	22	31	6328.125	4364.036	-834.5852	1	4443.123	-10.82661	-7.712213E-010	0.0146169	7
	23	33	5015.625	4428.208	-963.658	1	4531.85	-12.27717	-2.585118E-008	0.0145958	7
	24	34	3984.375	4497.937	-1120.878	1	4635.494	-13.993	5.312205E-008	0.0145208	7
	25	35	3170.956	4573.208	-1309.697	1	4757.052	-15.9809	-1.88815E-008	0.0145861	7
	26	37	2527.573	4656.982	-1538.723	1	4904.605	-18.28417	1.971597E-008	0.0145324	7
	27	38	1976.103	4757.735	-1845.311	1	5103.06	-21.19903	5.518642E-008	0.0145207	7
	28	39	1577.524	4864.776	-2189.778	1	5334.902	-24.2339	6.792313E-009	0.0145337	7
	29	41	1265.625	4980.553	-2595.371	1	5616.214	-27.52406	7.625242E-009	0.0145301	7
	30	42	998.264	5124.767	-3133.469	1	6006.817	-31.44313	5.604158E-008	0.0144286	7
	31	43	796.875	5283.509	-3760.505	1	6485.126	-35.44113	-1.617004E-008	0.0145568	7
	32	45	627.7902	5474.064	-4567.838	1	7129.553	-39.84334	5.597871E-008	0.0144321	7
	33	46	505.5147	5673.046	-5473.779	1	7883.255	-43.97586	-1.961175E-008	0.0146358	7
	34	47	397.9953	5932.596	-6688.325	1	8940.323	-48.42673	5.983309E-009	0.0145886	7
	35	49	315.5048	6227.042	-8149.898	1	10256.55	-52.61786	5.523316E-010	0.0145294	6
	36	50	252.4038	6557.745	-9875.73	1	11854.71	-56.4148	1.000604E-009	0.014524	6
	37	52	198.6229	6980.711	-12167.06	1	14027.39	-60.15545	1.117653E-009	0.0145255	6
	38	53	158.3615	7467.67	-14844.89	1	16617.36	-63.29547	1.027707E-009	0.0145209	6
	39	54	125.558	8084.226	-18237.06	1	19948.56	-66.09298	1.131511E-009	0.0145238	6
	40	56	100.4464	8836.092	-22261.26	1	23950.79	-68.35054	1.425956E-009	0.014516	6
	41	57	79.00281	9897.21	-27561.01	1	29284.19	-70.24669	1.163252E-009	0.0145269	6
	42	58	63.3446	10895.25	-33599.58	1	35321.92	-72.03381	9.648909E-010	0.014516	6
	43	60	49.86702	13012.79	-41565.74	1	43555.06	-72.61647	1.044741E-009	0.0145221	6
	44	61	39.72458	15049.44	-50926.77	1	53103.87	-73.53699	1.034777E-009	0.0145234	6
	45	62	31.6723	17988.46	-62075.59	1	64629.43	-73.8393	5.405472E-010	0.0145225	6
	46	64	24.93351	22057.65	-76555.18	1	79669.54	-73.92686	1.059754E-009	0.0145205	6
	47	65	19.86229	27317.86	-93263.75	1	97182.3	-73.67418	6.357237E-010	0.0145296	6
	48	66	15.83615	33515.21	-113477.3	1	118323.2	-73.54564	1.203855E-009	0.0145247	5
	49	68	12.40079	44269.75	-138928.3	1	145811.1	-72.32542	-8.295628E-011	0.0145283	5
	50	69	9.93114	55084.38	-165968.1	1	174870.6	-71.63913	1.915466E-010	0.0145303	5
	51	71	7.944915	69831.94	-198462.6	1	210389.9	-70.61484	6.342277E-010	0.0145194	5
	52	72	6.317385	89864.42	-235962.6	1	252495.5	-69.15108	1.478731E-010	0.0145219	5
	53	74	5.008013	115389.2	-280832.2	1	303613.9	-67.66306	-7.871715E-012	0.0145206	5
	54	77	3.945707	148581.6	-332328.6	1	364031.3	-65.91093	3.339503E-010	0.0145261	5
	55	79	3.158693	186771.2	-385885.5	1	428708.6	-64.1727	2.619625E-010	0.0145419	5
	56	83	2.504006	235822.2	-448766.8	1	506955.3	-62.27855	-2.427452E-010	0.0145242	5
	57	85	1.998082	291963.3	-512043.9	1	589433.3	-60.30856	1.610822E-010	0.0144781	5
	58	88	1.584686	358265.7	-584457.5	1	685525.3	-58.49218	-8.10387E-011	0.0144955	5
	59	92	1.266892	431855.7	-655547.3	1	785010.5	-56.62426	1.452132E-010	0.0144821	5
	60	96	0.999041	517606.3	-739655	1	902776.7	-55.0159	-1.125875E-010	0.014551	5
