EXPLAIN
TAG	EISPOT
TITLE	LABEL	Potentiostatic EIS	Test &Identifier
DATE	LABEL	8/14/2018	Date
TIME	LABEL	4:55:59	Time
NOTES	NOTES	1	&Notes...
	
PSTAT	PSTAT	REF600-11020	Potentiostat
VDC	POTEN	0.00000E+000	T	DC &Voltage (V)
FREQINIT	QUANT	1.00000E+006	Initial Fre&q. (Hz)
FREQFINAL	QUANT	1.00000E+000	Final Fre&q. (Hz)
PTSPERDEC	QUANT	1.00000E+001	Points/&decade
VAC	QUANT	2.50000E+001	AC &Voltage (mV rms)
AREA	QUANT	1.00000E-002	&Area (cm^2)
CONDIT	TWOPARAM	T	5.00000E+000	0.00000E+000	Conditionin&g	Time(s)	E(V)
DELAY	TWOPARAM	T	5.00000E+000	0.00000E+000	Init. De&lay	Time(s)	Stab.(mV/s)
SPEED	SELECTOR	0	&Optimize for:
ZGUESS	QUANT	1.00000E+005	E&stimated Z (ohms)
OCVCURVE	TABLE	19
	Pt	T	Vf	Vm	Ach	Over
	#	s	V vs. Ref.	V	V	bits
	0	0.258333	4.98711E-003	4.98711E-003	5.57432E-004	...........
	1	0.516667	4.98698E-003	4.98005E-003	5.63399E-004	...........
	2	0.775	4.98693E-003	5.01397E-003	5.60032E-004	...........
	3	1.03333	4.98945E-003	5.05157E-003	5.62499E-004	...........
	4	1.29167	4.99904E-003	5.06945E-003	5.62132E-004	...........
	5	1.55	5.01773E-003	5.11039E-003	5.62166E-004	...........
	6	1.80833	5.04367E-003	5.15084E-003	5.58066E-004	...........
	7	2.06667	5.07456E-003	5.18492E-003	5.57199E-004	...........
	8	2.325	5.10916E-003	5.23201E-003	5.59832E-004	...........
	9	2.58333	5.14661E-003	5.27487E-003	5.56199E-004	...........
	10	2.84167	5.18660E-003	5.32544E-003	5.64432E-004	...........
	11	3.1	5.22910E-003	5.36829E-003	5.60366E-004	...........
	12	3.35833	5.27371E-003	5.41687E-003	5.63066E-004	...........
	13	3.61667	5.31947E-003	5.45715E-003	5.61666E-004	...........
	14	3.875	5.36527E-003	5.50048E-003	5.60799E-004	...........
	15	4.13333	5.41031E-003	5.54768E-003	5.57466E-004	...........
	16	4.39167	5.45478E-003	5.59855E-003	5.55133E-004	...........
	17	4.65	5.49978E-003	5.64630E-003	5.61399E-004	...........
	18	4.90833	5.54614E-003	5.69157E-003	5.56133E-004	...........
EOC	QUANT	0.0055461	Open Circuit (V)
PSTATMODEL	IQUANT	4	Pstat Model
PSTATSECTION	LABEL	REF600-11020	Pstat Section
PSTATSERIALNO	LABEL	11020	Pstat Serial Number
CTRLMODE	IQUANT	1	Control Mode
IESTAB	IQUANT	0	I/E Stability
CASPEED	IQUANT	1	Control Amp Speed
CONVENTION	IQUANT	1	Current Convention
ICHRANGE	IQUANT	2	Ich Range
ICHRANGEMODE	TOGGLE	F	Ich Auto Range
ICHOFFSETENABLE	TOGGLE	T	Ich Offset Enable
ICHOFFSET	QUANT	0	Ich Offset (V)
ICHFILTER	IQUANT	3	Ich Filter
VCHRANGE	IQUANT	2	Vch Range
VCHRANGEMODE	TOGGLE	F	Vch Auto Range
VCHOFFSETENABLE	TOGGLE	T	Vch Offset Enable
VCHOFFSET	QUANT	0	Vch Offset (V)
VCHFILTER	IQUANT	3	Vch Filter
ACHRANGE	IQUANT	2	Ach Range
ACHOFFSETENABLE	TOGGLE	F	Ach Offset Enable
ACHOFFSET	QUANT	0	Ach Offset (V)
ACHFILTER	IQUANT	3	Ach Filter
IERANGELOWERLIMIT	IQUANT	1	I/E Range Lower Limit
IERANGEMODE	TOGGLE	F	I/E AutoRange
IERANGE	IQUANT	5	I/E Range
POSFEEDENABLE	TOGGLE	F	Positive Feedback IR Comp
POSFEEDRESISTANCE	QUANT	0	Positive Feedback Resistance (ohm)
ACHSELECT	IQUANT	0	Ach Select
CABLEID	IQUANT	14	Cable ID
DCCALDATE	LABEL	8/19/2019	DC Calibration Date
ACCALDATE	LABEL	8/19/2019	AC Calibration Date
THERMOSELECT	IQUANT	1	Thermo Select
FRAMEWORKVERSION	QUANT	6.33	Framework Version
INSTRUMENTVERSION	LABEL	3.50	Instrument Version
ZCURVE	TABLE
	Pt	Time	Freq	Zreal	Zimag	Zsig	Zmod	Zphz	Idc	Vdc	IERange
	#	s	Hz	ohm	ohm	V	ohm	°	A	V	#
	0	1	1000078	1303.481	-2079.053	1	2453.879	-57.91396	-4.745214E-006	0.0085303	8
	1	1	794390.6	1460.859	-2438.046	1	2842.214	-59.07027	1.767394E-006	0.0071355	8
	2	1	630984.4	1681.007	-2897.923	1	3350.186	-59.88313	4.008061E-006	0.0064219	8
	3	2	501234.4	1965.428	-3406.169	1	3932.543	-60.01419	-3.638843E-006	0.0077841	8
	4	2	398109.4	2337.44	-4046.756	1	4673.314	-59.98891	6.333124E-007	0.0071152	8
	5	2	316265.6	2831.833	-4761.319	1	5539.805	-59.2576	-3.121308E-007	0.0071264	8
	6	3	251203.1	3375.849	-5533.79	1	6482.221	-58.61502	1.215123E-006	0.0068891	8
	7	3	199546.9	4071.901	-6366.882	1	7557.617	-57.3993	-2.753634E-006	0.0076467	8
	8	3	158578.1	4989.15	-7117.706	1	8692.144	-54.97149	-2.700216E-006	0.0076405	8
	9	4	125953.1	6198.046	-8196.118	1	10275.8	-52.9028	5.66707E-007	0.0059574	7
	10	4	100078.1	7180.885	-9232.319	1	11696.19	-52.12427	-5.208399E-009	0.0069811	7
	11	5	79453.13	8441.281	-10432.04	1	13419.49	-51.02129	-3.569646E-008	0.0071624	7
	12	5	63140.62	9928.45	-11677.35	1	15327.58	-49.62775	-4.704924E-008	0.0070887	7
	13	5	50203.12	11636.55	-13065.08	1	17495.87	-48.30981	-4.573531E-008	0.0071314	7
	14	6	39890.62	13682.81	-14540.53	1	19966.12	-46.74071	-2.9775E-008	0.0071127	7
	15	6	31640.63	16166.38	-15975.68	1	22728.27	-44.66006	-3.687346E-008	0.0072123	7
	16	6	25171.88	19049.12	-17280.3	1	25719.21	-42.21257	-2.992642E-008	0.0071125	7
	17	7	20015.62	22505.48	-18021.67	1	28831.88	-38.68663	-5.120389E-009	0.0069662	7
	18	7	15890.62	25748.14	-19079.78	1	32046.91	-36.53903	-3.480646E-008	0.0071536	7
	19	7	12609.37	29944.68	-18823.86	1	35369.79	-32.15434	-7.466978E-009	0.0071166	6
	20	8	10078.13	33338.31	-18474.24	1	38114.83	-28.99279	-1.04097E-008	0.0070982	6
	21	8	8015.625	36781.87	-17753.77	1	40842.41	-25.76555	-1.102837E-008	0.0070978	6
	22	8	6328.125	39743.89	-16679.01	1	43101.81	-22.76596	2.955435E-009	0.0070281	6
	23	8	5015.625	42284.86	-15506.63	1	45038.48	-20.1389	1.337727E-009	0.0068616	6
	24	9	3984.375	44498.32	-14232.15	1	46718.89	-17.73613	3.715842E-009	0.0070345	6
	25	9	3170.956	46073.95	-13139.94	1	47911.03	-15.91774	-6.344504E-009	0.007007	6
	26	9	2527.573	47576.92	-12300.85	1	49141.37	-14.49619	7.743228E-009	0.0067831	6
	27	10	1976.103	49004.61	-11883.29	1	50424.84	-13.63073	3.288598E-009	0.0070332	6
	28	10	1577.524	48422.1	-10388.05	1	49523.85	-12.10821	1.689958E-009	0.0068606	6
	29	10	1265.625	51095.32	-11176.05	1	52303.3	-12.33796	2.71696E-009	0.0068046	6
	30	11	998.264	52048.89	-11335.92	1	53269.03	-12.28679	8.387388E-009	0.0067817	6
	31	11	796.875	52940.36	-11837.95	1	54247.75	-12.60451	1.279574E-008	0.0068889	6
	32	11	627.7902	53989.7	-12642.03	1	55450.05	-13.17874	1.694173E-009	0.006806	6
	33	12	505.5147	54848.91	-13807.14	1	56560.06	-14.12952	8.016228E-009	0.0067777	6
	34	12	397.9953	56067.52	-15456.69	1	58159.06	-15.41246	-2.911047E-010	0.0069888	6
	35	12	315.5048	57526.76	-17485.91	1	60125.58	-16.90724	9.078509E-010	0.0069861	6
	36	13	252.4038	59116.88	-19945.65	1	62390.98	-18.64406	-2.745669E-010	0.0069871	6
	37	13	198.6229	60950.78	-23076.03	1	65172.85	-20.73672	2.348745E-010	0.0069885	6
	38	13	158.3615	63027.54	-26716.76	1	68456.23	-22.97161	7.410731E-011	0.0069832	6
	39	14	125.558	65866.8	-30941.56	1	72772.35	-25.16224	1.352315E-010	0.0069857	6
	40	14	100.4464	68775.78	-35509.29	1	77401.66	-27.30754	-1.162904E-009	0.0069857	6
	41	14	79.00281	73082.98	-40914.47	1	83756.28	-29.24166	-2.533342E-010	0.0069796	6
	42	15	63.3446	78089.86	-50309.71	1	92892.91	-32.79182	1.445764E-010	0.0069811	6
	43	15	49.86702	82918.51	-56746.12	1	100476.9	-34.38618	1.748341E-010	0.0069853	5
	44	15	39.72458	89121.45	-63708.02	1	109550.6	-35.55889	5.277759E-010	0.0069917	5
	45	16	31.6723	96697.7	-72483.48	1	120848.2	-36.85482	5.329867E-010	0.0069878	5
	46	16	24.93351	104797.4	-83408.02	1	133938	-38.5162	-7.331344E-010	0.0069895	5
	47	16	19.86229	113966.2	-95260.4	1	148535.7	-39.89108	-1.867864E-009	0.0069897	5
	48	17	15.83615	123393	-109960.2	1	165278.8	-41.70546	-5.219955E-010	0.0069909	5
	49	17	12.40079	140052.8	-125497.3	1	188054.2	-41.86262	2.929184E-010	0.0069918	5
	50	17	9.93114	150612.1	-141617.2	1	206735.2	-43.23697	1.056411E-011	0.0069944	5
	51	18	7.944915	165575.3	-160255.3	1	230427.7	-44.06458	7.264814E-010	0.0069869	5
	52	19	6.317385	182899.3	-183417.9	1	259025.6	-45.08112	5.878846E-010	0.0069799	5
	53	19	5.008013	203498.9	-210143.2	1	292526.8	-45.92025	2.057923E-010	0.0069903	5
	54	20	3.945707	226226.3	-241915.9	1	331212.3	-46.91953	2.876491E-011	0.006993	5
	55	22	3.158693	251626.3	-276115.2	1	373571.1	-47.6568	-3.165541E-010	0.0069782	5
	56	23	2.504006	281122.7	-316668.3	1	423448.7	-48.4029	-8.038164E-011	0.0069719	5
	57	25	1.998082	313613	-362686.3	1	479473.1	-49.15019	6.741912E-011	0.0070104	5
	58	26	1.584686	351126.7	-415669.6	1	544124.2	-49.81137	-1.037877E-010	0.0069667	5
	59	28	1.266892	393986.4	-475818.8	1	617761.1	-50.37464	-1.778418E-010	0.0069377	5
	60	31	0.999041	444681.8	-550486.3	1	707656	-51.06878	-2.261027E-010	0.0069369	5
