EXPLAIN
TAG	EISPOT
TITLE	LABEL	Potentiostatic IDE	Test &Identifier
DATE	LABEL	9/8/2019	Date
TIME	LABEL	10:47:34	Time
NOTES	NOTES	1	&Notes...
	
PSTAT	PSTAT	REF600-11020	Potentiostat
VDC	POTEN	0.00000E+000	T	DC &Voltage (V)
FREQINIT	QUANT	1.00000E+006	Initial Fre&q. (Hz)
FREQFINAL	QUANT	1.00000E+000	Final Fre&q. (Hz)
PTSPERDEC	QUANT	1.00000E+001	Points/&decade
VAC	QUANT	2.50000E+001	AC &Voltage (mV rms)
AREA	QUANT	1.00000E-002	&Area (cm^2)
CONDIT	TWOPARAM	T	5.00000E+000	0.00000E+000	Conditionin&g	Time(s)	E(V)
DELAY	TWOPARAM	T	5.00000E+000	0.00000E+000	Init. De&lay	Time(s)	Stab.(mV/s)
SPEED	SELECTOR	1	&Optimize for:
ZGUESS	QUANT	1.00000E+007	E&stimated Z (ohms)
OCVCURVE	TABLE	19
	Pt	T	Vf	Vm	Ach	Over
	#	s	V vs. Ref.	V	V	bits
	0	0.258333	4.35992E-003	4.35992E-003	6.25865E-004	...........
	1	0.516667	4.35796E-003	4.25729E-003	6.28465E-004	...........
	2	0.775	4.34384E-003	4.05096E-003	6.25498E-004	...........
	3	1.03333	4.29759E-003	3.88610E-003	6.21465E-004	...........
	4	1.29167	4.20437E-003	3.73584E-003	6.22232E-004	...........
	5	1.55	4.07040E-003	3.60800E-003	6.21798E-004	...........
	6	1.80833	3.91692E-003	3.43887E-003	6.23165E-004	...........
	7	2.06667	3.76117E-003	3.30559E-003	6.21532E-004	...........
	8	2.325	3.61006E-003	3.21396E-003	6.20898E-004	...........
	9	2.58333	3.46755E-003	3.09955E-003	6.27265E-004	...........
	10	2.84167	3.33658E-003	2.95001E-003	6.16998E-004	...........
	11	3.1	3.21426E-003	2.85429E-003	6.15998E-004	...........
	12	3.35833	3.09527E-003	2.76012E-003	6.30431E-004	...........
	13	3.61667	2.97942E-003	2.65396E-003	6.20998E-004	...........
	14	3.875	2.86929E-003	2.55734E-003	6.19431E-004	...........
	15	4.13333	2.76514E-003	2.47633E-003	6.27865E-004	...........
	16	4.39167	2.66597E-003	2.38031E-003	6.26331E-004	...........
	17	4.65	2.57108E-003	2.29268E-003	6.25531E-004	...........
	18	4.90833	2.47954E-003	2.21859E-003	6.24498E-004	...........
EOC	QUANT	0.0024795	Open Circuit (V)
PSTATMODEL	IQUANT	4	Pstat Model
PSTATSECTION	LABEL	REF600-11020	Pstat Section
PSTATSERIALNO	LABEL	11020	Pstat Serial Number
CTRLMODE	IQUANT	1	Control Mode
IESTAB	IQUANT	0	I/E Stability
CASPEED	IQUANT	1	Control Amp Speed
CONVENTION	IQUANT	1	Current Convention
ICHRANGE	IQUANT	2	Ich Range
ICHRANGEMODE	TOGGLE	F	Ich Auto Range
ICHOFFSETENABLE	TOGGLE	T	Ich Offset Enable
ICHOFFSET	QUANT	0	Ich Offset (V)
ICHFILTER	IQUANT	3	Ich Filter
VCHRANGE	IQUANT	2	Vch Range
VCHRANGEMODE	TOGGLE	F	Vch Auto Range
VCHOFFSETENABLE	TOGGLE	T	Vch Offset Enable
VCHOFFSET	QUANT	0	Vch Offset (V)
VCHFILTER	IQUANT	3	Vch Filter
ACHRANGE	IQUANT	2	Ach Range
ACHOFFSETENABLE	TOGGLE	F	Ach Offset Enable
ACHOFFSET	QUANT	0	Ach Offset (V)
ACHFILTER	IQUANT	3	Ach Filter
IERANGELOWERLIMIT	IQUANT	1	I/E Range Lower Limit
IERANGEMODE	TOGGLE	F	I/E AutoRange
IERANGE	IQUANT	2	I/E Range
POSFEEDENABLE	TOGGLE	F	Positive Feedback IR Comp
POSFEEDRESISTANCE	QUANT	0	Positive Feedback Resistance (ohm)
ACHSELECT	IQUANT	0	Ach Select
CABLEID	IQUANT	14	Cable ID
DCCALDATE	LABEL	8/19/2019	DC Calibration Date
ACCALDATE	LABEL	8/19/2019	AC Calibration Date
THERMOSELECT	IQUANT	1	Thermo Select
FRAMEWORKVERSION	QUANT	6.33	Framework Version
INSTRUMENTVERSION	LABEL	3.50	Instrument Version
ZCURVE	TABLE
	Pt	Time	Freq	Zreal	Zimag	Zsig	Zmod	Zphz	Idc	Vdc	IERange
	#	s	Hz	ohm	ohm	V	ohm	°	A	V	#
	0	2	1000078	2800.36	-1831.127	1	3345.9	-33.18026	2.756944E-006	0.0043918	8
	1	4	794390.6	3153.011	-1772.414	1	3617.033	-29.34182	-2.053265E-006	0.004812	8
	2	5	630984.4	3465.695	-1613.099	1	3822.713	-24.9595	-1.817459E-007	0.0046429	8
	3	7	501234.4	3717.455	-1424.669	1	3981.099	-20.96872	-8.633395E-007	0.0046486	8
	4	8	398109.4	3917.38	-1278.494	1	4120.73	-18.07485	7.539808E-008	0.0044458	8
	5	10	316265.6	4090.475	-1093.747	1	4234.179	-14.97004	5.071867E-007	0.0040414	8
	6	11	251203.1	4216.852	-966.893	1	4326.282	-12.91427	8.086761E-007	0.0040261	8
	7	12	199546.9	4308.405	-845.373	1	4390.56	-11.10125	-2.052474E-008	0.004384	8
	8	14	158578.1	4393.911	-714.5112	1	4451.627	-9.236247	-3.485586E-006	0.0049396	8
	9	15	125953.1	4470.632	-586.1435	1	4508.893	-7.469431	-8.40525E-007	0.0065596	7
	10	17	100078.1	4499.654	-526.0859	1	4530.304	-6.668574	4.697906E-008	0.0040029	7
	11	18	79453.13	4540.895	-491.6302	1	4567.431	-6.179189	-5.14156E-008	0.0042418	7
	12	19	63140.62	4577.373	-466.4973	1	4601.083	-5.819138	-3.93077E-008	0.0041652	7
	13	21	50203.12	4613.672	-456.3988	1	4636.191	-5.649496	7.791921E-008	0.0041066	7
	14	22	39890.62	4647.21	-458.4326	1	4669.767	-5.633821	-3.954838E-008	0.0041669	7
	15	23	31640.63	4687.523	-473.7169	1	4711.399	-5.770669	-3.846228E-008	0.0041609	7
	16	25	25171.88	4725.777	-501.2036	1	4752.281	-6.05401	-1.717188E-008	0.0042734	7
	17	26	20015.62	4766.243	-541.2366	1	4796.875	-6.478541	-3.842164E-008	0.0041598	7
	18	27	15890.62	4812.649	-593.9509	1	4849.162	-7.035557	-3.548375E-008	0.0041425	7
	19	29	12609.37	4858.496	-667.3059	1	4904.108	-7.820543	-4.222842E-008	0.004158	7
	20	30	10078.13	4912.353	-754.7781	1	4970	-8.735128	-2.326122E-009	0.0040814	7
	21	31	8015.625	4969.019	-863.517	1	5043.492	-9.85842	-7.171055E-008	0.0042375	7
	22	33	6328.125	5036.061	-1003.232	1	5135.016	-11.26639	1.422451E-007	0.0039256	7
	23	34	5015.625	5111.671	-1169.306	1	5243.707	-12.88485	-4.170336E-008	0.0041597	7
	24	35	3984.375	5198.022	-1371.372	1	5375.881	-14.77935	-3.729025E-008	0.0041556	7
	25	36	3170.956	5296.521	-1614.38	1	5537.09	-16.95123	4.071259E-008	0.0040908	7
	26	38	2527.573	5409.683	-1905.408	1	5735.438	-19.40337	-1.13961E-008	0.0041675	7
	27	39	1976.103	5551.095	-2283.377	1	6002.372	-22.35923	5.087959E-008	0.0039775	7
	28	40	1577.524	5707.561	-2706.548	1	6316.775	-25.3705	2.452362E-008	0.004031	7
	29	42	1265.625	5879.596	-3197.423	1	6692.77	-28.53809	9.051605E-008	0.0039486	7
	30	43	998.264	6095.804	-3836.535	1	7202.626	-32.18521	8.984827E-008	0.0039454	7
	31	44	796.875	6338.809	-4566.697	1	7812.504	-35.77028	2.358069E-008	0.0040327	7
	32	46	627.7902	6627.573	-5503.397	1	8614.645	-39.70553	-4.854909E-008	0.0042327	7
	33	47	505.5147	6926.488	-6535.979	1	9523.41	-43.33848	-5.328729E-009	0.0040736	7
	34	48	397.9953	7331.503	-7899.816	1	10777.66	-47.13683	1.705494E-009	0.0040871	6
	35	50	315.5048	7776.243	-9530.85	1	12300.69	-50.78891	7.523748E-010	0.0040865	6
	36	51	252.4038	8275.46	-11437.75	1	14117.55	-54.11344	1.4259E-009	0.0040813	6
	37	52	198.6229	8912.134	-13938.59	1	16544.2	-57.40574	1.145969E-009	0.0040833	6
	38	54	158.3615	9633.61	-16829.09	1	19391.36	-60.21155	1.126154E-009	0.0040803	6
	39	55	125.558	10519.81	-20452.93	1	22999.75	-62.78132	9.594295E-010	0.0040785	6
	40	56	100.4464	11573.66	-24682.12	1	27260.9	-64.87771	1.546707E-009	0.0040762	6
	41	58	79.00281	12892.97	-30239.04	1	32872.91	-66.90813	1.505741E-009	0.0040784	6
	42	59	63.3446	14614.32	-36801.66	1	39597.23	-68.34146	1.206479E-009	0.0040741	6
	43	60	49.86702	16546.95	-44583.65	1	47555.27	-69.6379	6.357034E-010	0.0040807	6
	44	62	39.72458	19042	-54406.09	1	57642.18	-70.71008	1.137528E-009	0.0040831	6
	45	63	31.6723	22205.45	-65848.97	1	69492.22	-71.36497	5.851974E-010	0.0040777	6
	46	65	24.93351	26390.98	-80859.02	1	85056.84	-71.92422	1.031126E-009	0.0040767	6
	47	66	19.86229	31397.21	-98117.3	1	103018.4	-72.25549	1.35558E-009	0.0040868	6
	48	67	15.83615	37130.65	-118156.5	1	123853.3	-72.55468	-9.037449E-011	0.0040773	5
	49	69	12.40079	47958.89	-145012.5	1	152737.3	-71.69979	1.545959E-009	0.0040792	5
	50	70	9.93114	58633.2	-174720.7	1	184296.4	-71.44915	7.838606E-010	0.0040777	5
	51	72	7.944915	72777.42	-208995	1	221304	-70.80057	1.819293E-010	0.0040786	5
	52	73	6.317385	91332.49	-251246.7	1	267332.2	-70.02293	1.417124E-010	0.0040868	5
	53	75	5.008013	116187.6	-300692.4	1	322359.2	-68.87347	1.145466E-010	0.0040769	5
	54	78	3.945707	147947.9	-358872.3	1	388172.6	-67.59571	4.430648E-010	0.004086	5
	55	80	3.158693	186167.3	-421507.1	1	460789	-66.17036	8.493931E-011	0.0040853	5
	56	84	2.504006	233664.3	-494542.2	1	546965.3	-64.70992	1.677483E-010	0.0040735	5
	57	86	1.998082	289055.9	-572985.4	1	641767.6	-63.23027	-2.297153E-011	0.0040717	5
	58	90	1.584686	358470.9	-660457.4	1	751468.9	-61.50859	1.097192E-010	0.004118	5
	59	93	1.266892	434923.3	-757433.4	1	873420.7	-60.13527	2.261852E-011	0.0040444	5
	60	97	0.999041	530609.4	-867323.2	1	1016758	-58.54262	1.819026E-010	0.0041196	4
