EXPLAIN
TAG	EISPOT
TITLE	LABEL	Potentiostatic EIS	Test &Identifier
DATE	LABEL	11/22/2019	Date
TIME	LABEL	11:01:53	Time
NOTES	NOTES	4	&Notes...
	
	
	
	
PSTAT	PSTAT	REF600-11020	Potentiostat
VDC	POTEN	0.00000E+000	T	DC &Voltage (V)
FREQINIT	QUANT	1.00000E+006	Initial Fre&q. (Hz)
FREQFINAL	QUANT	1.00000E+000	Final Fre&q. (Hz)
PTSPERDEC	QUANT	1.00000E+001	Points/&decade
VAC	QUANT	2.50000E+001	AC &Voltage (mV rms)
AREA	QUANT	1.00000E-002	&Area (cm^2)
CONDIT	TWOPARAM	T	5.00000E+000	0.00000E+000	Conditionin&g	Time(s)	E(V)
DELAY	TWOPARAM	T	5.00000E+000	0.00000E+000	Init. De&lay	Time(s)	Stab.(mV/s)
SPEED	SELECTOR	0	&Optimize for:
ZGUESS	QUANT	1.00000E+005	E&stimated Z (ohms)
OCVCURVE	TABLE	19
	Pt	T	Vf	Vm	Ach	Over
	#	s	V vs. Ref.	V	V	bits
	0	0.258333	1.82039E-002	1.82039E-002	5.29100E-004	...........
	1	0.516667	1.82190E-002	1.89986E-002	5.26133E-004	...........
	2	0.775	1.83133E-002	1.98029E-002	5.26933E-004	...........
	3	1.03333	1.85819E-002	2.05176E-002	5.25933E-004	...........
	4	1.29167	1.90652E-002	2.12622E-002	5.29933E-004	...........
	5	1.55	1.97112E-002	2.19697E-002	5.27333E-004	...........
	6	1.80833	2.04313E-002	2.25154E-002	5.30066E-004	...........
	7	2.06667	2.11516E-002	2.30810E-002	5.30066E-004	...........
	8	2.325	2.18293E-002	2.36616E-002	5.22300E-004	...........
	9	2.58333	2.24549E-002	2.42064E-002	5.30600E-004	...........
	10	2.84167	2.30421E-002	2.47431E-002	5.25166E-004	...........
	11	3.1	2.36065E-002	2.52736E-002	5.27566E-004	...........
	12	3.35833	2.41567E-002	2.57921E-002	5.28500E-004	...........
	13	3.61667	2.46951E-002	2.62686E-002	5.29466E-004	...........
	14	3.875	2.52208E-002	2.67541E-002	5.31466E-004	...........
	15	4.13333	2.57309E-002	2.71973E-002	5.31966E-004	...........
	16	4.39167	2.62235E-002	2.76522E-002	5.33866E-004	...........
	17	4.65	2.66995E-002	2.81086E-002	5.30933E-004	...........
	18	4.90833	2.71620E-002	2.85154E-002	5.31200E-004	...........
EOC	QUANT	0.027162	Open Circuit (V)
PSTATMODEL	IQUANT	4	Pstat Model
PSTATSECTION	LABEL	REF600-11020	Pstat Section
PSTATSERIALNO	LABEL	11020	Pstat Serial Number
CTRLMODE	IQUANT	1	Control Mode
IESTAB	IQUANT	0	I/E Stability
CASPEED	IQUANT	1	Control Amp Speed
CONVENTION	IQUANT	1	Current Convention
ICHRANGE	IQUANT	2	Ich Range
ICHRANGEMODE	TOGGLE	F	Ich Auto Range
ICHOFFSETENABLE	TOGGLE	T	Ich Offset Enable
ICHOFFSET	QUANT	0	Ich Offset (V)
ICHFILTER	IQUANT	3	Ich Filter
VCHRANGE	IQUANT	2	Vch Range
VCHRANGEMODE	TOGGLE	F	Vch Auto Range
VCHOFFSETENABLE	TOGGLE	T	Vch Offset Enable
VCHOFFSET	QUANT	0	Vch Offset (V)
VCHFILTER	IQUANT	3	Vch Filter
ACHRANGE	IQUANT	2	Ach Range
ACHOFFSETENABLE	TOGGLE	F	Ach Offset Enable
ACHOFFSET	QUANT	0	Ach Offset (V)
ACHFILTER	IQUANT	3	Ach Filter
IERANGELOWERLIMIT	IQUANT	1	I/E Range Lower Limit
IERANGEMODE	TOGGLE	F	I/E AutoRange
IERANGE	IQUANT	5	I/E Range
POSFEEDENABLE	TOGGLE	F	Positive Feedback IR Comp
POSFEEDRESISTANCE	QUANT	0	Positive Feedback Resistance (ohm)
ACHSELECT	IQUANT	0	Ach Select
CABLEID	IQUANT	14	Cable ID
DCCALDATE	LABEL	8/19/2019	DC Calibration Date
ACCALDATE	LABEL	8/19/2019	AC Calibration Date
THERMOSELECT	IQUANT	1	Thermo Select
FRAMEWORKVERSION	QUANT	6.33	Framework Version
INSTRUMENTVERSION	LABEL	3.50	Instrument Version
ZCURVE	TABLE
	Pt	Time	Freq	Zreal	Zimag	Zsig	Zmod	Zphz	Idc	Vdc	IERange
	#	s	Hz	ohm	ohm	V	ohm	°	A	V	#
	0	1	1000078	2258.957	-1542.646	1	2735.441	-34.32924	-2.071957E-006	0.0300577	8
	1	2	794390.6	2538.419	-1514.191	1	2955.73	-30.81647	-1.503519E-006	0.0287942	8
	2	2	630984.4	2817.646	-1441.632	1	3165.032	-27.09629	-5.43625E-006	0.0294153	8
	3	2	501234.4	3054.608	-1346.972	1	3338.407	-23.79574	3.41627E-007	0.0293888	8
	4	3	398109.4	3273.953	-1243.384	1	3502.11	-20.79581	8.334183E-007	0.0292104	8
	5	3	316265.6	3456.07	-1134.047	1	3637.373	-18.16631	-1.501369E-006	0.0292141	8
	6	3	251203.1	3589.727	-1043.175	1	3738.229	-16.20386	-1.875062E-007	0.028458	8
	7	4	199546.9	3724.82	-957.156	1	3845.833	-14.41133	4.171243E-006	0.0286828	8
	8	4	158578.1	3811.979	-859.343	1	3907.64	-12.70395	-4.836174E-006	0.0291625	8
	9	4	125953.1	3935.947	-738.8798	1	4004.7	-10.63217	-3.252929E-006	0.0329738	7
	10	5	100078.1	4047.079	-711.8311	1	4109.203	-9.97558	8.889641E-007	0.0284634	7
	11	5	79453.13	4130.321	-684.8283	1	4186.71	-9.414287	1.15818E-006	0.0275027	7
	12	5	63140.62	4182.15	-669.6539	1	4235.424	-9.097089	-6.388941E-007	0.030404	7
	13	6	50203.12	4268.448	-660.312	1	4319.22	-8.793726	9.343225E-008	0.0273103	7
	14	6	39890.62	4346.327	-673.9424	1	4398.268	-8.814102	6.564683E-007	0.0289068	7
	15	6	31640.63	4423.685	-681.7693	1	4475.913	-8.761375	9.213676E-008	0.0273141	7
	16	6	25171.88	4515.623	-709.4131	1	4571.008	-8.928302	1.073889E-006	0.0279397	7
	17	7	20015.62	4596.64	-743.5215	1	4656.385	-9.188196	8.868263E-007	0.0284521	7
	18	7	15890.62	4673.613	-770.467	1	4736.695	-9.361279	9.13601E-008	0.0273083	7
	19	7	12609.37	4773.721	-820.6281	1	4843.743	-9.75411	1.015972E-006	0.026934	7
	20	8	10078.13	4860.015	-862.6519	1	4935.982	-10.06516	-9.297572E-007	0.0304804	7
	21	8	8015.625	4948.867	-948.5464	1	5038.951	-10.85026	7.997098E-007	0.026846	7
	22	8	6328.125	5033.543	-1036.552	1	5139.164	-11.63619	9.240554E-008	0.0272997	7
	23	9	5015.625	5141.499	-1152.734	1	5269.137	-12.63686	8.004817E-007	0.0268487	7
	24	9	3984.375	5222.751	-1266.69	1	5374.163	-13.63288	-1.291694E-006	0.0302653	7
	25	9	3170.956	5316.65	-1458.019	1	5512.947	-15.33557	-9.331295E-007	0.0304866	7
	26	10	2527.573	5437.145	-1668.313	1	5687.337	-17.05791	-3.521675E-007	0.0278582	7
	27	10	1976.103	5548.306	-1945.552	1	5879.53	-19.32358	-1.294208E-006	0.0298856	7
	28	10	1577.524	5741.098	-2304.106	1	6186.204	-21.86734	1.075116E-006	0.0279329	7
	29	11	1265.625	5842.187	-2660.509	1	6419.459	-24.48434	1.077671E-006	0.0279327	7
	30	11	998.264	5965.473	-3154.142	1	6747.999	-27.86688	-1.118806E-006	0.0292932	7
	31	11	796.875	6168.294	-3773.907	1	7231.198	-31.45928	1.160026E-006	0.027488	7
	32	12	627.7902	6375.055	-4556.262	1	7835.87	-35.55345	1.137232E-006	0.0271538	7
	33	12	505.5147	6577.98	-5414.022	1	8519.476	-39.45617	6.60666E-007	0.0289032	7
	34	13	397.9953	6856.202	-6576.106	1	9500.14	-43.80542	1.491532E-009	0.0287351	7
	35	13	315.5048	7188.463	-7980.846	1	10740.95	-47.99018	1.577418E-010	0.0286726	6
	36	13	252.4038	7568.895	-9638.43	1	12255.1	-51.85806	-4.060207E-010	0.0286736	6
	37	14	198.6229	8067.852	-11825.05	1	14315.1	-55.69553	-4.757164E-010	0.0286685	6
	38	14	158.3615	8655.39	-14365.18	1	16771.23	-58.92996	-1.40832E-009	0.0286626	6
	39	14	125.558	9413.374	-17559.7	1	19923.72	-61.80521	-1.364121E-009	0.0286756	6
	40	15	100.4464	10323.14	-21318.7	1	23686.59	-64.16237	-6.325687E-010	0.0286741	6
	41	15	79.00281	11591.12	-26206.71	1	28655.64	-66.1404	-5.533751E-010	0.0286738	6
	42	15	63.3446	13478.1	-31673.55	1	34421.98	-66.94871	-1.303209E-009	0.02866	6
	43	16	49.86702	15602.15	-38895.96	1	41908.51	-68.14304	-2.130661E-009	0.0286681	6
	44	16	39.72458	18141.94	-47059.33	1	50435.21	-68.91775	-9.244537E-010	0.0286641	6
	45	16	31.6723	21526.08	-56760.54	1	60705.29	-69.23108	-9.904497E-010	0.028669	6
	46	17	24.93351	26436.46	-69039.8	1	73928.21	-69.04735	-4.548124E-010	0.0286585	6
	47	17	19.86229	32308.89	-82677.18	1	88765.88	-68.65526	7.969555E-010	0.0286696	6
	48	17	15.83615	39707.21	-98175.1	1	105901	-67.97899	-1.092204E-009	0.0286744	5
	49	18	12.40079	49480.73	-118556.1	1	128467.5	-67.34622	-1.212838E-009	0.0286683	5
	50	18	9.93114	60382.18	-138912.2	1	151468.2	-66.50644	-1.984568E-009	0.0286787	5
	51	18	7.944915	73838.04	-162667.2	1	178641.2	-65.58571	-1.596403E-009	0.0286779	5
	52	19	6.317385	90175.51	-191242.3	1	211436.2	-64.75496	-1.238802E-009	0.0286821	5
	53	20	5.008013	109939.6	-223920.9	1	249453.9	-63.85012	-1.275512E-009	0.0286682	5
	54	21	3.945707	133730.6	-263068.9	1	295108.6	-63.05358	-8.892038E-010	0.0286757	5
	55	22	3.158693	159852.5	-303908.4	1	343384.8	-62.25612	-1.153686E-009	0.0286821	5
	56	24	2.504006	190959.1	-353678.5	1	401937.7	-61.63437	-1.220299E-009	0.0286705	5
	57	25	1.998082	226383.8	-408988.6	1	467462.7	-61.03455	-9.877426E-010	0.0287049	5
	58	27	1.584686	268091.7	-476118.8	1	546408.5	-60.61713	-9.650265E-010	0.0287147	5
	59	29	1.266892	314272.6	-549213.8	1	632774.1	-60.22083	-1.016294E-009	0.028679	5
	60	31	0.999041	373473.1	-639429.2	1	740507.8	-59.71197	-1.04952E-009	0.0286536	5
