EXPLAIN
TAG	EISPOT
TITLE	LABEL	Potentiostatic EIS	Test &Identifier
DATE	LABEL	10/18/2019	Date
TIME	LABEL	10:25:28	Time
NOTES	NOTES	1	&Notes...
	
PSTAT	PSTAT	REF600-11020	Potentiostat
VDC	POTEN	0.00000E+000	T	DC &Voltage (V)
FREQINIT	QUANT	1.00000E+006	Initial Fre&q. (Hz)
FREQFINAL	QUANT	1.00000E+000	Final Fre&q. (Hz)
PTSPERDEC	QUANT	1.00000E+001	Points/&decade
VAC	QUANT	2.50000E+001	AC &Voltage (mV rms)
AREA	QUANT	1.00000E-002	&Area (cm^2)
CONDIT	TWOPARAM	T	5.00000E+000	0.00000E+000	Conditionin&g	Time(s)	E(V)
DELAY	TWOPARAM	T	5.00000E+000	0.00000E+000	Init. De&lay	Time(s)	Stab.(mV/s)
SPEED	SELECTOR	0	&Optimize for:
ZGUESS	QUANT	1.00000E+005	E&stimated Z (ohms)
OCVCURVE	TABLE	19
	Pt	T	Vf	Vm	Ach	Over
	#	s	V vs. Ref.	V	V	bits
	0	0.258333	7.66492E-003	7.66492E-003	5.55499E-004	...........
	1	0.516667	7.66136E-003	7.47880E-003	5.57466E-004	...........
	2	0.775	7.64041E-003	7.34840E-003	5.52766E-004	...........
	3	1.03333	7.58436E-003	7.23932E-003	5.54266E-004	...........
	4	1.29167	7.49086E-003	7.12321E-003	5.48666E-004	...........
	5	1.55	7.37566E-003	7.02922E-003	5.53166E-004	...........
	6	1.80833	7.25740E-003	6.96684E-003	5.56266E-004	...........
	7	2.06667	7.14906E-003	6.92795E-003	5.46433E-004	...........
	8	2.325	7.05862E-003	6.89428E-003	5.52133E-004	...........
	9	2.58333	6.98908E-003	6.87081E-003	5.54433E-004	...........
	10	2.84167	6.93831E-003	6.84312E-003	5.55299E-004	...........
	11	3.1	6.90079E-003	6.81002E-003	5.53199E-004	...........
	12	3.35833	6.87072E-003	6.80791E-003	5.51232E-004	...........
	13	3.61667	6.84520E-003	6.79891E-003	5.58899E-004	...........
	14	3.875	6.82450E-003	6.77742E-003	5.59499E-004	...........
	15	4.13333	6.80828E-003	6.76528E-003	5.46099E-004	...........
	16	4.39167	6.79500E-003	6.79226E-003	5.48299E-004	...........
	17	4.65	6.78577E-003	6.80621E-003	5.55233E-004	...........
	18	4.90833	6.78423E-003	6.82595E-003	5.51166E-004	...........
EOC	QUANT	0.0067842	Open Circuit (V)
PSTATMODEL	IQUANT	4	Pstat Model
PSTATSECTION	LABEL	REF600-11020	Pstat Section
PSTATSERIALNO	LABEL	11020	Pstat Serial Number
CTRLMODE	IQUANT	1	Control Mode
IESTAB	IQUANT	0	I/E Stability
CASPEED	IQUANT	1	Control Amp Speed
CONVENTION	IQUANT	1	Current Convention
ICHRANGE	IQUANT	2	Ich Range
ICHRANGEMODE	TOGGLE	F	Ich Auto Range
ICHOFFSETENABLE	TOGGLE	T	Ich Offset Enable
ICHOFFSET	QUANT	0	Ich Offset (V)
ICHFILTER	IQUANT	3	Ich Filter
VCHRANGE	IQUANT	2	Vch Range
VCHRANGEMODE	TOGGLE	F	Vch Auto Range
VCHOFFSETENABLE	TOGGLE	T	Vch Offset Enable
VCHOFFSET	QUANT	0	Vch Offset (V)
VCHFILTER	IQUANT	3	Vch Filter
ACHRANGE	IQUANT	2	Ach Range
ACHOFFSETENABLE	TOGGLE	F	Ach Offset Enable
ACHOFFSET	QUANT	0	Ach Offset (V)
ACHFILTER	IQUANT	3	Ach Filter
IERANGELOWERLIMIT	IQUANT	1	I/E Range Lower Limit
IERANGEMODE	TOGGLE	F	I/E AutoRange
IERANGE	IQUANT	5	I/E Range
POSFEEDENABLE	TOGGLE	F	Positive Feedback IR Comp
POSFEEDRESISTANCE	QUANT	0	Positive Feedback Resistance (ohm)
ACHSELECT	IQUANT	0	Ach Select
CABLEID	IQUANT	14	Cable ID
DCCALDATE	LABEL	8/19/2019	DC Calibration Date
ACCALDATE	LABEL	8/19/2019	AC Calibration Date
THERMOSELECT	IQUANT	1	Thermo Select
FRAMEWORKVERSION	QUANT	6.33	Framework Version
INSTRUMENTVERSION	LABEL	3.50	Instrument Version
ZCURVE	TABLE
	Pt	Time	Freq	Zreal	Zimag	Zsig	Zmod	Zphz	Idc	Vdc	IERange
	#	s	Hz	ohm	ohm	V	ohm	°	A	V	#
	0	1	1000078	2771.88	-1955.833	1	3392.433	-35.20671	-6.315137E-006	0.009761	8
	1	1	794390.6	3174.879	-1918.794	1	3709.667	-31.1474	7.364312E-006	0.0077232	8
	2	2	630984.4	3532.996	-1811.781	1	3970.468	-27.14952	-5.449218E-006	0.0091336	8
	3	2	501234.4	3847.467	-1647.578	1	4185.393	-23.18177	1.956997E-008	0.0087839	8
	4	2	398109.4	4081.076	-1479.114	1	4340.847	-19.92215	1.280004E-006	0.008132	8
	5	3	316265.6	4303.354	-1307.157	1	4497.501	-16.89631	-1.528893E-006	0.0086795	8
	6	3	251203.1	4448.881	-1165.222	1	4598.944	-14.67687	1.300086E-006	0.0081128	8
	7	3	199546.9	4569.126	-1032.153	1	4684.256	-12.72931	7.770435E-007	0.0081367	8
	8	4	158578.1	4675.907	-909.7107	1	4763.579	-11.00952	-7.172005E-007	0.0086619	8
	9	4	125953.1	4788.748	-721.0773	1	4842.732	-8.563119	1.665273E-009	0.0084082	7
	10	4	100078.1	4844.658	-708.0644	1	4896.128	-8.315114	-1.840642E-008	0.008313	7
	11	5	79453.13	4909.579	-681.2958	1	4956.625	-7.900405	-1.870648E-008	0.0083095	7
	12	5	63140.62	4971.677	-666.5894	1	5016.165	-7.636526	-1.505288E-008	0.0084828	7
	13	5	50203.12	5031.397	-667.5711	1	5075.491	-7.557921	-1.695467E-008	0.0083092	7
	14	5	39890.62	5096.586	-681.4169	1	5141.937	-7.615321	-6.143836E-009	0.0083514	7
	15	6	31640.63	5162.207	-711.1689	1	5210.964	-7.84395	-4.440373E-008	0.0083579	7
	16	6	25171.88	5237.232	-758.3757	1	5291.855	-8.239427	-8.613908E-008	0.0084666	7
	17	6	20015.62	5285.422	-813.0427	1	5347.591	-8.745112	3.734493E-008	0.0081971	7
	18	7	15890.62	5404.325	-892.5563	1	5477.534	-9.378083	-3.732777E-008	0.0083413	7
	19	7	12609.37	5496.946	-984.058	1	5584.334	-10.14952	-3.707303E-008	0.0083457	7
	20	7	10078.13	5601.015	-1090.343	1	5706.156	-11.01593	-2.153028E-008	0.0083868	7
	21	8	8015.625	5733.586	-1193.402	1	5856.468	-11.7578	-4.140333E-008	0.0083505	7
	22	8	6328.125	5857.071	-1368.768	1	6014.882	-13.15367	-5.172503E-008	0.0083522	7
	23	8	5015.625	6008.664	-1544.094	1	6203.892	-14.41191	-4.914469E-008	0.008349	7
	24	9	3984.375	6159.788	-1711.657	1	6393.18	-15.52934	-4.657607E-008	0.0083454	7
	25	9	3170.956	6361.816	-1968.48	1	6659.401	-17.19317	-5.293879E-009	0.0083432	7
	26	9	2527.573	6568.189	-2224.257	1	6934.582	-18.7082	-6.641111E-009	0.0083388	7
	27	10	1976.103	6811.699	-2541.153	1	7270.261	-20.45839	-3.856216E-008	0.0083449	7
	28	10	1577.524	7089.294	-2919.415	1	7666.881	-22.38217	-2.019232E-008	0.0082913	7
	29	10	1265.625	7293.028	-3273.174	1	7993.869	-24.17096	8.100694E-008	0.0081491	7
	30	11	998.264	7570.278	-3772.47	1	8458.17	-26.48829	-2.046156E-008	0.0083807	7
	31	11	796.875	7857.493	-4335.779	1	8974.362	-28.88999	-3.990415E-009	0.008338	7
	32	11	627.7902	8165.146	-5065.794	1	9608.95	-31.81616	-9.074995E-010	0.0082451	6
	33	11	505.5147	8450.153	-5881.327	1	10295.39	-34.83801	1.782766E-008	0.0080374	6
	34	12	397.9953	8786.571	-7007.37	1	11238.64	-38.57268	4.548156E-010	0.0082803	6
	35	12	315.5048	9136.135	-8372.729	1	12392.4	-42.50342	-9.117365E-011	0.0082765	6
	36	12	252.4038	9507.16	-10002.89	1	13800.14	-46.45553	8.592256E-010	0.0082735	6
	37	13	198.6229	9973.28	-12193.96	1	15753.06	-50.72073	7.67017E-011	0.0082753	6
	38	13	158.3615	10497.64	-14766.78	1	18117.9	-54.59113	3.472591E-010	0.0082698	6
	39	13	125.558	11165.21	-18047.14	1	21221.71	-58.2562	-4.104143E-011	0.0082761	6
	40	14	100.4464	12010.26	-21937.47	1	25009.98	-61.30032	1.816621E-009	0.0082693	6
	41	14	79.00281	13045.77	-27165.28	1	30135.44	-64.34795	1.119755E-009	0.0082732	6
	42	14	63.3446	14773.02	-32382.93	1	35593.48	-65.47764	1.443705E-009	0.0082722	6
	43	15	49.86702	16681.04	-40197.52	1	43521.24	-67.46268	9.892664E-010	0.0082705	6
	44	15	39.72458	18767.55	-49268.74	1	52722.19	-69.14706	-2.171384E-010	0.0082762	6
	45	15	31.6723	21728.19	-60060.3	1	63869.82	-70.11124	-5.642797E-010	0.0082692	6
	46	16	24.93351	26352.82	-73401.34	1	77988.64	-70.25066	-6.039264E-010	0.0082695	6
	47	16	19.86229	31645.25	-88887.45	1	94352.53	-70.40351	-1.420045E-009	0.0082692	6
	48	16	15.83615	40048.09	-105423.5	1	112773.9	-69.1993	2.700239E-009	0.0082706	5
	49	17	12.40079	48693.26	-127961.8	1	136913.3	-69.16669	-2.467208E-009	0.0082832	5
	50	17	9.93114	57598.86	-153956.5	1	164378.3	-69.48796	2.426634E-010	0.0082757	5
	51	18	7.944915	71637.34	-182416.2	1	195978.5	-68.55938	-1.036746E-010	0.0082636	5
	52	18	6.317385	86590.71	-216789.2	1	233442.7	-68.22707	5.004083E-011	0.0082602	5
	53	19	5.008013	105931.5	-257440.5	1	278383	-67.63383	5.665358E-010	0.0082682	5
	54	20	3.945707	129406.4	-306035	1	332270.2	-67.07901	1.706838E-010	0.0082694	5
	55	21	3.158693	155845.2	-359793.2	1	392095.5	-66.58004	-9.642025E-011	0.0082605	5
	56	23	2.504006	188304.6	-424778.9	1	464645.8	-66.09229	2.977447E-011	0.0082606	5
	57	24	1.998082	224760.6	-498934.3	1	547222.8	-65.74932	5.581985E-011	0.0082922	5
	58	26	1.584686	269739	-587042.3	1	646047.9	-65.32178	-1.518469E-010	0.0082442	5
	59	28	1.266892	324126	-689445.1	1	761834.8	-64.82056	-3.600768E-011	0.0082203	5
	60	30	0.999041	386973.5	-816716.3	1	903755.4	-64.64764	-2.263174E-010	0.0082236	5
