EXPLAIN
TAG	EISPOT
TITLE	LABEL	Potentiostatic IDE	Test &Identifier
DATE	LABEL	9/18/2019	Date
TIME	LABEL	7:57:39	Time
NOTES	NOTES	1	&Notes...
	
PSTAT	PSTAT	REF600-11020	Potentiostat
VDC	POTEN	0.00000E+000	T	DC &Voltage (V)
FREQINIT	QUANT	1.00000E+006	Initial Fre&q. (Hz)
FREQFINAL	QUANT	1.00000E+000	Final Fre&q. (Hz)
PTSPERDEC	QUANT	1.00000E+001	Points/&decade
VAC	QUANT	2.50000E+001	AC &Voltage (mV rms)
AREA	QUANT	1.00000E-002	&Area (cm^2)
CONDIT	TWOPARAM	T	5.00000E+000	0.00000E+000	Conditionin&g	Time(s)	E(V)
DELAY	TWOPARAM	T	5.00000E+000	0.00000E+000	Init. De&lay	Time(s)	Stab.(mV/s)
SPEED	SELECTOR	1	&Optimize for:
ZGUESS	QUANT	1.00000E+007	E&stimated Z (ohms)
OCVCURVE	TABLE	19
	Pt	T	Vf	Vm	Ach	Over
	#	s	V vs. Ref.	V	V	bits
	0	0.258333	2.10654E-002	2.10654E-002	5.69232E-004	...........
	1	0.516667	2.10840E-002	2.20381E-002	5.73599E-004	...........
	2	0.775	2.11969E-002	2.28993E-002	5.68099E-004	...........
	3	1.03333	2.15110E-002	2.36429E-002	5.65299E-004	...........
	4	1.29167	2.20597E-002	2.44204E-002	5.75399E-004	...........
	5	1.55	2.27711E-002	2.51318E-002	5.71732E-004	...........
	6	1.80833	2.35436E-002	2.58018E-002	5.68832E-004	...........
	7	2.06667	2.43089E-002	2.64421E-002	5.72132E-004	...........
	8	2.325	2.50380E-002	2.70805E-002	5.72766E-004	...........
	9	2.58333	2.57237E-002	2.75079E-002	5.74499E-004	...........
	10	2.84167	2.63632E-002	2.81291E-002	5.69699E-004	...........
	11	3.1	2.69558E-002	2.85632E-002	5.71132E-004	...........
	12	3.35833	2.75072E-002	2.89668E-002	5.72066E-004	...........
	13	3.61667	2.80218E-002	2.94812E-002	5.71032E-004	...........
	14	3.875	2.85046E-002	2.98962E-002	5.74665E-004	...........
	15	4.13333	2.89675E-002	3.03549E-002	5.71599E-004	...........
	16	4.39167	2.94211E-002	3.07947E-002	5.70566E-004	...........
	17	4.65	2.98693E-002	3.12036E-002	5.76332E-004	...........
	18	4.90833	3.03110E-002	3.15920E-002	5.69566E-004	...........
EOC	QUANT	0.030311	Open Circuit (V)
PSTATMODEL	IQUANT	4	Pstat Model
PSTATSECTION	LABEL	REF600-11020	Pstat Section
PSTATSERIALNO	LABEL	11020	Pstat Serial Number
CTRLMODE	IQUANT	1	Control Mode
IESTAB	IQUANT	0	I/E Stability
CASPEED	IQUANT	1	Control Amp Speed
CONVENTION	IQUANT	1	Current Convention
ICHRANGE	IQUANT	2	Ich Range
ICHRANGEMODE	TOGGLE	F	Ich Auto Range
ICHOFFSETENABLE	TOGGLE	T	Ich Offset Enable
ICHOFFSET	QUANT	0	Ich Offset (V)
ICHFILTER	IQUANT	3	Ich Filter
VCHRANGE	IQUANT	2	Vch Range
VCHRANGEMODE	TOGGLE	F	Vch Auto Range
VCHOFFSETENABLE	TOGGLE	T	Vch Offset Enable
VCHOFFSET	QUANT	0	Vch Offset (V)
VCHFILTER	IQUANT	3	Vch Filter
ACHRANGE	IQUANT	2	Ach Range
ACHOFFSETENABLE	TOGGLE	F	Ach Offset Enable
ACHOFFSET	QUANT	0	Ach Offset (V)
ACHFILTER	IQUANT	3	Ach Filter
IERANGELOWERLIMIT	IQUANT	1	I/E Range Lower Limit
IERANGEMODE	TOGGLE	F	I/E AutoRange
IERANGE	IQUANT	3	I/E Range
POSFEEDENABLE	TOGGLE	F	Positive Feedback IR Comp
POSFEEDRESISTANCE	QUANT	0	Positive Feedback Resistance (ohm)
ACHSELECT	IQUANT	0	Ach Select
CABLEID	IQUANT	14	Cable ID
DCCALDATE	LABEL	8/19/2019	DC Calibration Date
ACCALDATE	LABEL	8/19/2019	AC Calibration Date
THERMOSELECT	IQUANT	1	Thermo Select
FRAMEWORKVERSION	QUANT	6.33	Framework Version
INSTRUMENTVERSION	LABEL	3.50	Instrument Version
ZCURVE	TABLE
	Pt	Time	Freq	Zreal	Zimag	Zsig	Zmod	Zphz	Idc	Vdc	IERange
	#	s	Hz	ohm	ohm	V	ohm	°	A	V	#
	0	2	1000078	2177.662	-1442.044	1	2611.839	-33.51246	2.193581E-006	0.0321613	8
	1	3	794390.6	2457.214	-1345.463	1	2801.459	-28.7032	-6.510406E-007	0.0321207	8
	2	5	630984.4	2698.958	-1214.198	1	2959.502	-24.22186	-1.65092E-006	0.0324416	8
	3	6	501234.4	2881.009	-1079.992	1	3076.783	-20.54931	-9.698638E-007	0.0321677	8
	4	7	398109.4	3021.373	-940.6819	1	3164.424	-17.29358	-4.377865E-007	0.0318866	8
	5	9	316265.6	3140.024	-808.6426	1	3242.476	-14.44144	-6.090978E-007	0.0320234	8
	6	10	251203.1	3223.328	-703.6085	1	3299.229	-12.31373	2.466587E-007	0.0317797	8
	7	11	199546.9	3288.13	-617.6463	1	3345.637	-10.63854	-1.092913E-006	0.032058	8
	8	13	158578.1	3333.858	-547.3335	1	3378.488	-9.323318	1.079411E-007	0.0318241	8
	9	14	125953.1	3389.606	-463.0618	1	3421.09	-7.779151	1.460167E-007	0.0314706	7
	10	15	100078.1	3422.374	-427.7973	1	3449.007	-7.125026	2.32524E-008	0.0317404	7
	11	17	79453.13	3455.987	-409.7503	1	3480.192	-6.761564	-1.25822E-008	0.0318182	7
	12	18	63140.62	3491.723	-401.0217	1	3514.676	-6.55167	-1.288481E-009	0.0317477	7
	13	19	50203.12	3527.177	-402.749	1	3550.096	-6.514078	-1.329794E-008	0.0317989	7
	14	21	39890.62	3565.261	-410.6518	1	3588.833	-6.570454	-1.935412E-009	0.0317888	7
	15	22	31640.63	3604.538	-431.2806	1	3630.247	-6.822967	-1.166958E-008	0.0318071	7
	16	23	25171.88	3646.294	-458.799	1	3675.045	-7.171615	-1.741411E-008	0.031765	7
	17	25	20015.62	3692.418	-495.7245	1	3725.546	-7.646506	-2.345397E-008	0.0318133	7
	18	26	15890.62	3743.718	-538.1461	1	3782.198	-8.18003	6.173261E-008	0.0316912	7
	19	27	12609.37	3797.635	-601.9159	1	3845.04	-9.006323	6.330158E-008	0.0316905	7
	20	29	10078.13	3856.887	-669.2316	1	3914.518	-9.84372	-2.905896E-009	0.0317297	7
	21	30	8015.625	3920.63	-752.6107	1	3992.213	-10.86641	-2.128652E-008	0.031768	7
	22	31	6328.125	3994.586	-854.8983	1	4085.042	-12.07989	-4.179083E-008	0.0318237	7
	23	33	5015.625	4072.676	-974.717	1	4187.691	-13.45948	3.868732E-008	0.0316838	7
	24	34	3984.375	4157.155	-1119.344	1	4305.214	-15.0699	-2.022228E-008	0.0317717	7
	25	35	3170.956	4248.105	-1287.37	1	4438.888	-16.85921	-5.926611E-009	0.0317157	7
	26	37	2527.573	4347.095	-1490.376	1	4595.482	-18.92397	-1.654678E-008	0.0317573	7
	27	38	1976.103	4462.49	-1758.29	1	4796.395	-21.50521	5.681162E-008	0.0316653	7
	28	39	1577.524	4579.201	-2057.75	1	5020.3	-24.19766	-2.042233E-008	0.0317664	7
	29	41	1265.625	4704.51	-2408.15	1	5285.035	-27.10705	1.281502E-008	0.0316979	7
	30	42	998.264	4848.243	-2874.737	1	5636.451	-30.66557	3.948376E-008	0.0316802	7
	31	43	796.875	4999.215	-3418.494	1	6056.257	-34.36456	1.294628E-008	0.0316951	7
	32	45	627.7902	5176.238	-4126.504	1	6619.779	-38.5619	-5.300476E-009	0.0317173	7
	33	46	505.5147	5356.654	-4925.264	1	7276.81	-42.59749	-1.110325E-008	0.0317845	7
	34	47	397.9953	5587.825	-6010.736	1	8206.871	-47.08822	4.261202E-009	0.0317753	7
	35	49	315.5048	5853.734	-7324.383	1	9376.182	-51.36774	4.712757E-009	0.0317756	7
	36	50	252.4038	6165.529	-8882.675	1	10812.75	-55.2352	-1.209069E-009	0.0317135	6
	37	51	198.6229	6582.585	-10953.65	1	12779.39	-58.99627	-8.066455E-010	0.0317197	6
	38	53	158.3615	7089.328	-13373.87	1	15136.67	-62.07246	-9.167295E-010	0.0317111	6
	39	54	125.558	7756.209	-16415.24	1	18155.41	-64.70924	-8.355764E-010	0.0317174	6
	40	55	100.4464	8583.426	-19993.88	1	21758.46	-66.76603	-1.394709E-009	0.0317158	6
	41	57	79.00281	9753.9	-24687.65	1	26544.66	-68.44141	-4.614326E-010	0.0317122	6
	42	58	63.3446	11344.94	-29811.31	1	31897.05	-69.16526	-1.151635E-009	0.0317162	6
	43	60	49.86702	13266.09	-36926.55	1	39237.22	-70.23886	-1.00005E-009	0.031715	6
	44	61	39.72458	15891.44	-44656.79	1	47400.07	-70.41153	-3.21641E-010	0.0317145	6
	45	62	31.6723	19346.17	-54018.17	1	57378.02	-70.29543	-9.283892E-010	0.0317123	6
	46	64	24.93351	24041.2	-65798.26	1	70052.77	-69.92883	-1.327904E-009	0.0317156	6
	47	65	19.86229	29886.59	-79001.76	1	84465.88	-69.27823	-1.577762E-009	0.0317123	6
	48	66	15.83615	37556.76	-94464.42	1	101656.5	-68.31844	-5.631395E-010	0.031715	6
	49	68	12.40079	48256.83	-113140	1	123001.5	-66.90063	-2.851993E-010	0.0317161	5
	50	69	9.93114	60370.12	-132950.6	1	146015.1	-65.57818	-7.858858E-010	0.0317166	5
	51	71	7.944915	75620.99	-155096.8	1	172550.1	-64.00739	-7.027287E-010	0.0317254	5
	52	72	6.317385	94358.05	-180116.1	1	203335.3	-62.35115	-8.118601E-010	0.0317162	5
	53	74	5.008013	118009.1	-208290.7	1	239397.5	-60.46585	-1.585815E-009	0.0317208	5
	54	77	3.945707	146546	-239134.4	1	280465.7	-58.49925	-1.135076E-009	0.0317284	5
	55	79	3.158693	177888	-270333.4	1	323611.3	-56.6538	-1.76913E-009	0.0317069	5
	56	83	2.504006	215081.6	-304338.6	1	372668.8	-54.75046	-9.919037E-010	0.0317276	5
	57	85	1.998082	256113.9	-339274.2	1	425089.8	-52.9513	-1.091871E-009	0.0317534	5
	58	88	1.584686	301280	-376323.9	1	482067.7	-51.31969	-1.239543E-009	0.0317018	5
	59	92	1.266892	350856.8	-416016.5	1	544215.3	-49.85664	-1.25628E-009	0.0317528	5
	60	96	0.999041	406889.6	-460307.3	1	614363.1	-48.52486	-1.562674E-009	0.0316768	5
