EXPLAIN
TAG	EISPOT
TITLE	LABEL	Potentiostatic EIS	Test &Identifier
DATE	LABEL	8/16/2017	Date
TIME	LABEL	16:47:37	Time
NOTES	NOTES	1	&Notes...
	
PSTAT	PSTAT	REF600-11020	Potentiostat
VDC	POTEN	0.00000E+000	T	DC &Voltage (V)
FREQINIT	QUANT	1.00000E+006	Initial Fre&q. (Hz)
FREQFINAL	QUANT	1.00000E+000	Final Fre&q. (Hz)
PTSPERDEC	QUANT	1.00000E+001	Points/&decade
VAC	QUANT	2.50000E+001	AC &Voltage (mV rms)
AREA	QUANT	1.00000E-002	&Area (cm^2)
CONDIT	TWOPARAM	T	5.00000E+000	0.00000E+000	Conditionin&g	Time(s)	E(V)
DELAY	TWOPARAM	T	5.00000E+000	0.00000E+000	Init. De&lay	Time(s)	Stab.(mV/s)
SPEED	SELECTOR	0	&Optimize for:
ZGUESS	QUANT	1.00000E+005	E&stimated Z (ohms)
OCVCURVE	TABLE	19
	Pt	T	Vf	Vm	Ach	Over
	#	s	V vs. Ref.	V	V	bits
	0	0.258333	5.55878E-003	5.55878E-003	5.55233E-004	...........
	1	0.516667	5.55956E-003	5.59957E-003	5.51633E-004	...........
	2	0.775	5.56495E-003	5.66989E-003	5.55999E-004	...........
	3	1.03333	5.58310E-003	5.78395E-003	5.53766E-004	...........
	4	1.29167	5.62541E-003	6.00184E-003	5.54599E-004	...........
	5	1.55	5.70307E-003	6.11950E-003	5.49999E-004	...........
	6	1.80833	5.81718E-003	6.22518E-003	5.48466E-004	...........
	7	2.06667	5.95107E-003	6.28106E-003	5.53999E-004	...........
	8	2.325	6.08044E-003	6.38063E-003	5.55766E-004	...........
	9	2.58333	6.19157E-003	6.45819E-003	5.62899E-004	...........
	10	2.84167	6.28571E-003	6.52624E-003	5.54699E-004	...........
	11	3.1	6.36968E-003	6.60817E-003	5.54699E-004	...........
	12	3.35833	6.44858E-003	6.68864E-003	5.52199E-004	...........
	13	3.61667	6.52433E-003	6.69218E-003	5.58332E-004	...........
	14	3.875	6.59389E-003	6.73987E-003	5.55899E-004	...........
	15	4.13333	6.65206E-003	6.78253E-003	5.60632E-004	...........
	16	4.39167	6.69880E-003	6.81395E-003	5.54733E-004	...........
	17	4.65	6.73870E-003	6.84057E-003	5.55233E-004	...........
	18	4.90833	6.77260E-003	6.75000E-003	5.60132E-004	...........
EOC	QUANT	0.0067726	Open Circuit (V)
PSTATMODEL	IQUANT	4	Pstat Model
PSTATSECTION	LABEL	REF600-11020	Pstat Section
PSTATSERIALNO	LABEL	11020	Pstat Serial Number
CTRLMODE	IQUANT	1	Control Mode
IESTAB	IQUANT	0	I/E Stability
CASPEED	IQUANT	1	Control Amp Speed
CONVENTION	IQUANT	1	Current Convention
ICHRANGE	IQUANT	2	Ich Range
ICHRANGEMODE	TOGGLE	F	Ich Auto Range
ICHOFFSETENABLE	TOGGLE	T	Ich Offset Enable
ICHOFFSET	QUANT	0	Ich Offset (V)
ICHFILTER	IQUANT	3	Ich Filter
VCHRANGE	IQUANT	2	Vch Range
VCHRANGEMODE	TOGGLE	F	Vch Auto Range
VCHOFFSETENABLE	TOGGLE	T	Vch Offset Enable
VCHOFFSET	QUANT	0	Vch Offset (V)
VCHFILTER	IQUANT	3	Vch Filter
ACHRANGE	IQUANT	2	Ach Range
ACHOFFSETENABLE	TOGGLE	F	Ach Offset Enable
ACHOFFSET	QUANT	0	Ach Offset (V)
ACHFILTER	IQUANT	3	Ach Filter
IERANGELOWERLIMIT	IQUANT	1	I/E Range Lower Limit
IERANGEMODE	TOGGLE	F	I/E AutoRange
IERANGE	IQUANT	5	I/E Range
POSFEEDENABLE	TOGGLE	F	Positive Feedback IR Comp
POSFEEDRESISTANCE	QUANT	0	Positive Feedback Resistance (ohm)
ACHSELECT	IQUANT	0	Ach Select
CABLEID	IQUANT	14	Cable ID
DCCALDATE	LABEL	8/19/2019	DC Calibration Date
ACCALDATE	LABEL	8/19/2019	AC Calibration Date
THERMOSELECT	IQUANT	1	Thermo Select
FRAMEWORKVERSION	QUANT	6.33	Framework Version
INSTRUMENTVERSION	LABEL	3.50	Instrument Version
ZCURVE	TABLE
	Pt	Time	Freq	Zreal	Zimag	Zsig	Zmod	Zphz	Idc	Vdc	IERange
	#	s	Hz	ohm	ohm	V	ohm	°	A	V	#
	0	2	1000078	2214.392	-1635.797	1	2753.064	-36.4537	-1.641064E-006	0.0098822	8
	1	2	794390.6	2535.465	-1617.203	1	3007.312	-32.53108	-2.212135E-006	0.0088359	8
	2	2	630984.4	2813.489	-1554.819	1	3214.527	-28.92637	2.842536E-006	0.0088661	8
	3	3	501234.4	3083.703	-1462.879	1	3413.098	-25.37921	-5.642394E-006	0.0088302	8
	4	3	398109.4	3319.457	-1362.304	1	3588.128	-22.31323	-4.203569E-007	0.0088534	8
	5	3	316265.6	3536.73	-1246.328	1	3749.906	-19.41224	6.489687E-006	0.0075769	8
	6	4	251203.1	3702.753	-1135.825	1	3873.045	-17.05347	-2.987745E-007	0.0080265	8
	7	4	199546.9	3840.624	-1033.559	1	3977.264	-15.06215	3.985396E-006	0.008324	8
	8	4	158578.1	3994.308	-938.8456	1	4103.161	-13.22704	-2.616912E-006	0.0082516	8
	9	5	125953.1	4122.141	-785.1819	1	4196.255	-10.78446	4.278395E-006	0.0011413	7
	10	5	100078.1	4178.517	-714.4819	1	4239.162	-9.70313	-1.30881E-006	0.0094812	7
	11	5	79453.13	4256.946	-668.8522	1	4309.17	-8.929323	-3.290847E-007	0.0073996	7
	12	6	63140.62	4322.754	-641.0283	1	4370.025	-8.435014	-6.671323E-007	0.0100148	7
	13	6	50203.12	4383.187	-617.9456	1	4426.531	-8.024724	-9.621053E-007	0.0101049	7
	14	6	39890.62	4440.614	-609.6504	1	4482.268	-7.817248	-1.309353E-006	0.0094589	7
	15	6	31640.63	4496.303	-615.8919	1	4538.289	-7.799688	-1.124538E-006	0.0088486	7
	16	7	25171.88	4559.378	-638.9573	1	4603.933	-7.977552	-3.124996E-007	0.009751	7
	17	7	20015.62	4613.959	-664.3353	1	4661.541	-8.193354	5.212374E-007	0.0065118	7
	18	7	15890.62	4691.13	-724.1593	1	4746.695	-8.775355	1.088279E-006	0.0075337	7
	19	8	12609.37	4756.663	-791.606	1	4822.083	-9.448596	1.1666E-006	0.006724	7
	20	8	10078.13	4826.533	-875.4886	1	4905.293	-10.28114	1.167541E-006	0.0067281	7
	21	8	8015.625	4890.521	-980.469	1	4987.837	-11.33657	-6.69006E-007	0.0100063	7
	22	9	6328.125	4985.649	-1111.37	1	5108.018	-12.56656	1.241927E-007	0.0068297	7
	23	9	5015.625	5075.636	-1268.332	1	5231.706	-14.03011	-1.318177E-006	0.0098594	7
	24	9	3984.375	5190.048	-1457.564	1	5390.834	-15.68677	8.375868E-007	0.0063908	7
	25	10	3170.956	5299.756	-1679.696	1	5559.568	-17.58541	-7.822121E-007	0.0081153	7
	26	10	2527.573	5421.861	-1950.573	1	5762.059	-19.78675	-1.319626E-006	0.0098521	7
	27	10	1976.103	5580.354	-2311.05	1	6039.975	-22.49642	-3.143265E-007	0.0097418	7
	28	11	1577.524	5753.684	-2736.73	1	6371.387	-25.43802	-1.17849E-006	0.0100187	7
	29	11	1265.625	5892.191	-3170.318	1	6690.951	-28.28266	-1.177703E-006	0.0100237	7
	30	11	998.264	6097.113	-3780.868	1	7174.242	-31.80338	-3.136651E-007	0.0097388	7
	31	12	796.875	6316.402	-4508.345	1	7760.291	-35.51743	8.324001E-007	0.0063868	7
	32	12	627.7902	6571.801	-5441.313	1	8532.084	-39.62404	1.168388E-006	0.0067214	7
	33	12	505.5147	6831.897	-6446.679	1	9393.321	-43.33829	-6.641886E-007	0.0099983	7
	34	13	397.9953	7162.476	-7853.654	1	10629.25	-47.63541	-8.960176E-010	0.0083189	7
	35	13	315.5048	7545.571	-9526.56	1	12152.82	-51.61879	1.04585E-009	0.0082514	6
	36	13	252.4038	7977.924	-11502.59	1	13998.46	-55.25574	4.134642E-010	0.008254	6
	37	14	198.6229	8541.011	-14129.68	1	16510.51	-58.84818	6.613464E-010	0.0082476	6
	38	14	158.3615	9200.304	-17190.59	1	19497.75	-61.84457	6.437242E-010	0.008257	6
	39	14	125.558	10066.01	-21054.01	1	23336.58	-64.44733	1.24776E-010	0.0082584	6
	40	15	100.4464	11084.6	-25606.53	1	27902.73	-66.59309	-6.337096E-010	0.0082526	6
	41	15	79.00281	12553.12	-31511.05	1	33919.42	-68.27905	-5.400956E-010	0.0082466	6
	42	15	63.3446	14818.99	-38599.02	1	41345.95	-68.99714	4.510741E-010	0.0082514	6
	43	16	49.86702	17207.06	-47485.34	1	50506.84	-70.08121	6.446935E-010	0.0082485	6
	44	16	39.72458	20258.95	-57242.3	1	60721.55	-70.51032	2.928879E-010	0.0082495	6
	45	16	31.6723	24368.03	-69225.84	1	73389.5	-70.60754	-2.241223E-010	0.008249	6
	46	17	24.93351	30476.18	-84697.34	1	90013.54	-70.21002	-1.513682E-010	0.0082406	6
	47	17	19.86229	38103.77	-101973	1	108859.5	-69.51104	-1.553473E-009	0.0082575	5
	48	17	15.83615	46375.93	-120538.5	1	129152.1	-68.9563	-1.136626E-009	0.0082458	5
	49	18	12.40079	60438.59	-146016	1	158030.1	-67.51448	8.31688E-010	0.0082482	5
	50	18	9.93114	78624.93	-171795.8	1	188933	-65.40809	4.364202E-010	0.008253	5
	51	19	7.944915	98457.6	-200071.7	1	222985.6	-63.79765	-2.733692E-010	0.0082556	5
	52	19	6.317385	123652.9	-230823.2	1	261857.5	-61.82187	-1.034803E-010	0.0082408	5
	53	20	5.008013	153587.9	-265358.8	1	306601.5	-59.93803	2.43368E-010	0.0082528	5
	54	21	3.945707	190301.6	-301916.3	1	356886.8	-57.77626	-3.375487E-010	0.0082386	5
	55	22	3.158693	228323.9	-339021.3	1	408738.6	-56.04055	-5.693341E-010	0.008236	5
	56	24	2.504006	271003.3	-380361.4	1	467030.6	-54.53055	-2.457345E-010	0.0082441	5
	57	25	1.998082	316245.4	-423111.5	1	528237.2	-53.22453	-3.808677E-010	0.0082005	5
	58	27	1.584686	366557.4	-473238.1	1	598597.3	-52.2396	-9.575021E-010	0.0082062	5
	59	29	1.266892	418609.3	-531386.4	1	676465.3	-51.77008	7.108003E-010	0.0082386	5
	60	31	0.999041	472595.8	-597394.5	1	761726.3	-51.65265	3.440395E-010	0.0082647	5
