EXPLAIN
TAG	EISPOT
TITLE	LABEL	Potentiostatic EIS	Test &Identifier
DATE	LABEL	10/12/2019	Date
TIME	LABEL	10:01:29	Time
NOTES	NOTES	1	&Notes...
	
PSTAT	PSTAT	REF600-11020	Potentiostat
VDC	POTEN	0.00000E+000	T	DC &Voltage (V)
FREQINIT	QUANT	1.00000E+006	Initial Fre&q. (Hz)
FREQFINAL	QUANT	1.00000E+000	Final Fre&q. (Hz)
PTSPERDEC	QUANT	1.00000E+001	Points/&decade
VAC	QUANT	2.50000E+001	AC &Voltage (mV rms)
AREA	QUANT	1.00000E-002	&Area (cm^2)
CONDIT	TWOPARAM	T	5.00000E+000	0.00000E+000	Conditionin&g	Time(s)	E(V)
DELAY	TWOPARAM	T	5.00000E+000	0.00000E+000	Init. De&lay	Time(s)	Stab.(mV/s)
SPEED	SELECTOR	1	&Optimize for:
ZGUESS	QUANT	1.00000E+004	E&stimated Z (ohms)
OCVCURVE	TABLE	19
	Pt	T	Vf	Vm	Ach	Over
	#	s	V vs. Ref.	V	V	bits
	0	0.258333	8.20674E-003	8.20674E-003	5.30099E-004	...........
	1	0.516667	8.20826E-003	8.28639E-003	5.29966E-004	...........
	2	0.775	8.21779E-003	8.37195E-003	5.22366E-004	...........
	3	1.03333	8.24546E-003	8.45686E-003	5.30900E-004	...........
	4	1.29167	8.29653E-003	8.54308E-003	5.32266E-004	...........
	5	1.55	8.36706E-003	8.63087E-003	5.34966E-004	...........
	6	1.80833	8.44881E-003	8.71526E-003	5.29033E-004	...........
	7	2.06667	8.53513E-003	8.80622E-003	5.27866E-004	...........
	8	2.325	8.62287E-003	8.90413E-003	5.35399E-004	...........
	9	2.58333	8.71211E-003	9.01097E-003	5.33400E-004	...........
	10	2.84167	8.80467E-003	9.11649E-003	5.31633E-004	...........
	11	3.1	8.89968E-003	9.10389E-003	5.31966E-004	...........
	12	3.35833	8.98209E-003	8.81793E-003	5.30066E-004	...........
	13	3.61667	9.01859E-003	8.76889E-003	5.29700E-004	...........
	14	3.875	8.99282E-003	9.04176E-003	5.25000E-004	...........
	15	4.13333	8.94700E-003	9.20466E-003	5.30333E-004	...........
	16	4.39167	8.95023E-003	9.30113E-003	5.33633E-004	...........
	17	4.65	9.03434E-003	9.81055E-003	5.25300E-004	...........
	18	4.90833	9.19626E-003	1.00010E-002	5.21900E-004	...........
EOC	QUANT	0.0091963	Open Circuit (V)
PSTATMODEL	IQUANT	4	Pstat Model
PSTATSECTION	LABEL	REF600-11020	Pstat Section
PSTATSERIALNO	LABEL	11020	Pstat Serial Number
CTRLMODE	IQUANT	1	Control Mode
IESTAB	IQUANT	0	I/E Stability
CASPEED	IQUANT	1	Control Amp Speed
CONVENTION	IQUANT	1	Current Convention
ICHRANGE	IQUANT	2	Ich Range
ICHRANGEMODE	TOGGLE	F	Ich Auto Range
ICHOFFSETENABLE	TOGGLE	T	Ich Offset Enable
ICHOFFSET	QUANT	0	Ich Offset (V)
ICHFILTER	IQUANT	3	Ich Filter
VCHRANGE	IQUANT	2	Vch Range
VCHRANGEMODE	TOGGLE	F	Vch Auto Range
VCHOFFSETENABLE	TOGGLE	T	Vch Offset Enable
VCHOFFSET	QUANT	0	Vch Offset (V)
VCHFILTER	IQUANT	3	Vch Filter
ACHRANGE	IQUANT	2	Ach Range
ACHOFFSETENABLE	TOGGLE	F	Ach Offset Enable
ACHOFFSET	QUANT	0	Ach Offset (V)
ACHFILTER	IQUANT	3	Ach Filter
IERANGELOWERLIMIT	IQUANT	1	I/E Range Lower Limit
IERANGEMODE	TOGGLE	F	I/E AutoRange
IERANGE	IQUANT	6	I/E Range
POSFEEDENABLE	TOGGLE	F	Positive Feedback IR Comp
POSFEEDRESISTANCE	QUANT	0	Positive Feedback Resistance (ohm)
ACHSELECT	IQUANT	0	Ach Select
CABLEID	IQUANT	14	Cable ID
DCCALDATE	LABEL	8/19/2019	DC Calibration Date
ACCALDATE	LABEL	8/19/2019	AC Calibration Date
THERMOSELECT	IQUANT	1	Thermo Select
FRAMEWORKVERSION	QUANT	6.33	Framework Version
INSTRUMENTVERSION	LABEL	3.50	Instrument Version
ZCURVE	TABLE
	Pt	Time	Freq	Zreal	Zimag	Zsig	Zmod	Zphz	Idc	Vdc	IERange
	#	s	Hz	ohm	ohm	V	ohm	°	A	V	#
	0	1	1000078	2368.422	-1569.519	1	2841.269	-33.53186	6.816143E-006	0.0106025	8
	1	3	794390.6	2676.728	-1485.126	1	3061.122	-29.02278	-2.805743E-007	0.0107366	8
	2	4	630984.4	2941.545	-1350.161	1	3236.607	-24.65499	-3.013307E-007	0.0110085	8
	3	6	501234.4	3168.237	-1201.983	1	3388.582	-20.77602	-8.57643E-007	0.0112032	8
	4	7	398109.4	3325.322	-1051.019	1	3487.465	-17.53994	5.223383E-006	0.0097692	8
	5	8	316265.6	3462.124	-890.7763	1	3574.882	-14.42878	-2.353353E-006	0.0112861	8
	6	10	251203.1	3561.157	-752.8694	1	3639.87	-11.93721	-6.253593E-007	0.011138	8
	7	11	199546.9	3620.526	-657.0671	1	3679.666	-10.2863	5.780902E-007	0.0106767	8
	8	12	158578.1	3683.108	-560.0538	1	3725.446	-8.646169	-2.958231E-006	0.0114344	8
	9	14	125953.1	3740.392	-450.7783	1	3767.457	-6.871934	1.306064E-006	0.0083318	7
	10	15	100078.1	3760.676	-403.0573	1	3782.213	-6.117427	-7.125426E-008	0.0109042	7
	11	16	79453.13	3787.083	-373.5024	1	3805.457	-5.632601	-1.388393E-008	0.0108422	7
	12	18	63140.62	3814.676	-355.9008	1	3831.242	-5.330139	-1.527943E-008	0.0108354	7
	13	19	50203.12	3841.182	-347.5384	1	3856.872	-5.169869	4.292692E-008	0.0106687	7
	14	21	39890.62	3868.754	-348.6508	1	3884.433	-5.149564	4.323477E-008	0.0106685	7
	15	22	31640.63	3895.599	-360.716	1	3912.264	-5.290262	-1.000842E-008	0.0108497	7
	16	23	25171.88	3926.393	-380.4947	1	3944.786	-5.535075	-4.945128E-008	0.010851	7
	17	25	20015.62	3961.183	-413.1646	1	3982.672	-5.954611	-3.931867E-008	0.010887	7
	18	26	15890.62	3993.923	-450.7478	1	4019.278	-6.439064	9.724213E-008	0.010715	7
	19	27	12609.37	4031.534	-501.6709	1	4062.627	-7.093238	4.649461E-008	0.0107443	7
	20	29	10078.13	4073.184	-563.0282	1	4111.913	-7.870012	9.59873E-008	0.010711	7
	21	30	8015.625	4112.269	-642.4781	1	4162.155	-8.87979	-2.54645E-009	0.0107453	7
	22	31	6328.125	4166.426	-736.7694	1	4231.067	-10.02822	-7.162932E-008	0.0110096	7
	23	33	5015.625	4219.043	-855.8481	1	4304.974	-11.46706	7.562198E-008	0.0106377	7
	24	34	3984.375	4277.577	-993.076	1	4391.339	-13.07017	5.443633E-008	0.0107073	7
	25	35	3170.956	4334.715	-1178.47	1	4492.053	-15.20928	7.5597E-008	0.0106405	7
	26	37	2527.573	4402.613	-1394.447	1	4618.168	-17.57464	4.431305E-008	0.0106654	7
	27	38	1976.103	4482.985	-1687.662	1	4790.131	-20.62932	-3.115816E-008	0.0107909	7
	28	39	1577.524	4578.881	-2013.995	1	5002.232	-23.74202	-7.067292E-008	0.0108856	7
	29	41	1265.625	4671.988	-2407.845	1	5255.967	-27.26564	-1.061944E-008	0.0108441	7
	30	42	998.264	4794.984	-2927.258	1	5617.892	-31.40337	1.238285E-008	0.0108757	7
	31	44	796.875	4938.403	-3530.028	1	6070.332	-35.55762	-6.324064E-008	0.0109104	7
	32	45	627.7902	5117.739	-4305.557	1	6687.979	-40.07393	-2.050151E-008	0.010772	7
	33	46	505.5147	5303.747	-5170.801	1	7407.221	-44.27283	1.297972E-008	0.0107148	7
	34	48	397.9953	5545.862	-6338.864	1	8422.457	-48.81737	5.385152E-009	0.0108083	7
	35	49	315.5048	5827.662	-7739.299	1	9688.05	-53.02039	5.483811E-009	0.0108036	7
	36	50	252.4038	6155.28	-9388.262	1	11226.17	-56.74972	9.150345E-010	0.0107444	6
	37	52	198.6229	6578.579	-11576.86	1	13315.46	-60.3925	1.22449E-009	0.0107439	6
	38	53	158.3615	7071.147	-14131.36	1	15801.79	-63.41722	1.228188E-009	0.0107422	6
	39	54	125.558	7713.291	-17348.62	1	18986.04	-66.02982	1.05928E-009	0.0107443	6
	40	56	100.4464	8502.347	-21135.6	1	22781.65	-68.08625	9.033163E-012	0.0107468	6
	41	57	79.00281	9532.92	-26183.63	1	27865.02	-69.99448	2.982491E-009	0.0107401	6
	42	58	63.3446	10907.51	-32102.38	1	33904.81	-71.23365	2.495394E-009	0.0107415	6
	43	60	49.86702	12571.53	-39156.14	1	41124.77	-72.20017	6.677419E-010	0.0107418	6
	44	61	39.72458	15067.87	-47904.4	1	50218.25	-72.53953	-1.951342E-009	0.0107444	6
	45	63	31.6723	18014.12	-58325.3	1	61043.83	-72.83638	9.805614E-010	0.010741	6
	46	64	24.93351	22434.63	-71645.31	1	75075.72	-72.61285	2.118858E-009	0.0107403	6
	47	65	19.86229	27778.45	-86833.01	1	91168.05	-72.26019	1.082461E-009	0.0107433	6
	48	67	15.83615	33876.2	-104266	1	109631.1	-72.00092	1.988846E-009	0.0107349	5
	49	68	12.40079	45449.89	-128482.5	1	136284.5	-70.51909	1.897433E-009	0.0107417	5
	50	69	9.93114	56783.74	-151736.3	1	162013.3	-69.48283	-2.126391E-009	0.0107424	5
	51	71	7.944915	72277.1	-179304.1	1	193323.4	-68.04575	8.921537E-010	0.0107351	5
	52	73	6.317385	92317.49	-211453.1	1	230727	-66.41459	8.065811E-010	0.0107301	5
	53	75	5.008013	117815.5	-248326.1	1	274856.9	-64.61854	-2.374024E-010	0.0107471	5
	54	77	3.945707	149212.8	-289539.8	1	325726.6	-62.73592	3.767444E-010	0.0107418	5
	55	80	3.158693	183876.3	-331136.8	1	378763.8	-60.95712	1.566379E-010	0.0107306	5
	56	83	2.504006	225405	-378054.5	1	440150.7	-59.1956	3.621175E-010	0.0107461	5
	57	86	1.998082	270500.2	-427348.7	1	505764	-57.66729	4.889558E-010	0.0107458	5
	58	89	1.584686	323035.7	-481579.8	1	579888.9	-56.14695	1.507648E-010	0.0106935	5
	59	93	1.266892	375463.6	-541194.7	1	658684	-55.24833	3.284965E-010	0.0107437	5
	60	97	0.999041	437640.6	-613486.1	1	753587.8	-54.4972	-2.268774E-010	0.0107093	5
