EXPLAIN
TAG	EISPOT
TITLE	LABEL	Potentiostatic EIS	Test &Identifier
DATE	LABEL	10/26/2019	Date
TIME	LABEL	10:15:25	Time
NOTES	NOTES	1	&Notes...
	
PSTAT	PSTAT	REF600-11020	Potentiostat
VDC	POTEN	0.00000E+000	T	DC &Voltage (V)
FREQINIT	QUANT	1.00000E+006	Initial Fre&q. (Hz)
FREQFINAL	QUANT	1.00000E+000	Final Fre&q. (Hz)
PTSPERDEC	QUANT	1.00000E+001	Points/&decade
VAC	QUANT	2.50000E+001	AC &Voltage (mV rms)
AREA	QUANT	1.00000E-002	&Area (cm^2)
CONDIT	TWOPARAM	T	5.00000E+000	0.00000E+000	Conditionin&g	Time(s)	E(V)
DELAY	TWOPARAM	T	5.00000E+000	0.00000E+000	Init. De&lay	Time(s)	Stab.(mV/s)
SPEED	SELECTOR	0	&Optimize for:
ZGUESS	QUANT	1.00000E+005	E&stimated Z (ohms)
OCVCURVE	TABLE	19
	Pt	T	Vf	Vm	Ach	Over
	#	s	V vs. Ref.	V	V	bits
	0	0.258333	4.74074E-003	4.74074E-003	5.65632E-004	...........
	1	0.516667	4.73476E-003	4.42774E-003	5.60666E-004	...........
	2	0.775	4.69887E-003	4.17432E-003	5.57132E-004	...........
	3	1.03333	4.60010E-003	3.93172E-003	5.67266E-004	...........
	4	1.29167	4.42941E-003	3.73376E-003	5.65666E-004	...........
	5	1.55	4.21234E-003	3.54669E-003	5.64666E-004	...........
	6	1.80833	3.98501E-003	3.39447E-003	5.65632E-004	...........
	7	2.06667	3.77283E-003	3.28863E-003	5.65066E-004	...........
	8	2.325	3.58833E-003	3.20116E-003	5.69932E-004	...........
	9	2.58333	3.43556E-003	3.10410E-003	5.59066E-004	...........
	10	2.84167	3.31136E-003	3.02439E-003	5.65099E-004	...........
	11	3.1	3.20749E-003	2.93916E-003	5.65766E-004	...........
	12	3.35833	3.11547E-003	2.85788E-003	5.68832E-004	...........
	13	3.61667	3.02988E-003	2.79769E-003	5.66966E-004	...........
	14	3.875	2.95033E-003	2.79918E-003	5.68099E-004	...........
	15	4.13333	2.88166E-003	2.74193E-003	5.70966E-004	...........
	16	4.39167	2.82694E-003	2.67375E-003	5.64966E-004	...........
	17	4.65	2.78095E-003	2.64325E-003	5.58832E-004	...........
	18	4.90833	2.73544E-003	2.56443E-003	5.64432E-004	...........
EOC	QUANT	0.0027354	Open Circuit (V)
PSTATMODEL	IQUANT	4	Pstat Model
PSTATSECTION	LABEL	REF600-11020	Pstat Section
PSTATSERIALNO	LABEL	11020	Pstat Serial Number
CTRLMODE	IQUANT	1	Control Mode
IESTAB	IQUANT	0	I/E Stability
CASPEED	IQUANT	1	Control Amp Speed
CONVENTION	IQUANT	1	Current Convention
ICHRANGE	IQUANT	2	Ich Range
ICHRANGEMODE	TOGGLE	F	Ich Auto Range
ICHOFFSETENABLE	TOGGLE	T	Ich Offset Enable
ICHOFFSET	QUANT	0	Ich Offset (V)
ICHFILTER	IQUANT	3	Ich Filter
VCHRANGE	IQUANT	2	Vch Range
VCHRANGEMODE	TOGGLE	F	Vch Auto Range
VCHOFFSETENABLE	TOGGLE	T	Vch Offset Enable
VCHOFFSET	QUANT	0	Vch Offset (V)
VCHFILTER	IQUANT	3	Vch Filter
ACHRANGE	IQUANT	2	Ach Range
ACHOFFSETENABLE	TOGGLE	F	Ach Offset Enable
ACHOFFSET	QUANT	0	Ach Offset (V)
ACHFILTER	IQUANT	3	Ach Filter
IERANGELOWERLIMIT	IQUANT	1	I/E Range Lower Limit
IERANGEMODE	TOGGLE	F	I/E AutoRange
IERANGE	IQUANT	4	I/E Range
POSFEEDENABLE	TOGGLE	F	Positive Feedback IR Comp
POSFEEDRESISTANCE	QUANT	0	Positive Feedback Resistance (ohm)
ACHSELECT	IQUANT	0	Ach Select
CABLEID	IQUANT	14	Cable ID
DCCALDATE	LABEL	8/19/2019	DC Calibration Date
ACCALDATE	LABEL	8/19/2019	AC Calibration Date
THERMOSELECT	IQUANT	1	Thermo Select
FRAMEWORKVERSION	QUANT	6.33	Framework Version
INSTRUMENTVERSION	LABEL	3.50	Instrument Version
ZCURVE	TABLE
	Pt	Time	Freq	Zreal	Zimag	Zsig	Zmod	Zphz	Idc	Vdc	IERange
	#	s	Hz	ohm	ohm	V	ohm	°	A	V	#
	0	1	1000078	2161.494	-1288.403	1	2516.354	-30.79792	-5.743232E-006	0.0056583	8
	1	1	794390.6	2394.861	-1213.947	1	2684.963	-26.8803	3.012688E-006	0.0044038	8
	2	2	630984.4	2609.626	-1107.394	1	2834.867	-22.99392	9.424938E-007	0.0041197	8
	3	2	501234.4	2777.202	-983.361	1	2946.159	-19.49821	9.139782E-007	0.0042438	8
	4	2	398109.4	2911.666	-873.7682	1	3039.946	-16.70409	1.002395E-006	0.0042547	8
	5	3	316265.6	3013.021	-773.3696	1	3110.691	-14.39567	-2.372233E-007	0.0043511	8
	6	3	251203.1	3087.88	-682.0903	1	3162.317	-12.4562	-7.782784E-007	0.004641	8
	7	3	199546.9	3154.964	-609.2063	1	3213.243	-10.929	2.953769E-006	0.0038067	8
	8	3	158578.1	3213.723	-537.0837	1	3258.293	-9.487701	9.588227E-007	0.0042401	8
	9	4	125953.1	3274.44	-465.3197	1	3307.337	-8.087957	-1.592444E-007	0.0044074	7
	10	4	100078.1	3302.677	-447.7917	1	3332.896	-7.721333	3.245209E-008	0.0042791	7
	11	4	79453.13	3339.171	-445.2487	1	3368.725	-7.59508	9.316344E-008	0.0041679	7
	12	5	63140.62	3379.166	-452.2776	1	3409.299	-7.623332	-4.903401E-008	0.0043876	7
	13	5	50203.12	3421.077	-470.5672	1	3453.289	-7.831855	-2.97939E-008	0.0043091	7
	14	5	39890.62	3465.216	-497.8911	1	3500.803	-8.176443	-4.21065E-008	0.0043513	7
	15	6	31640.63	3514.545	-537.2916	1	3555.377	-8.691887	-2.617625E-010	0.0042744	7
	16	6	25171.88	3567.588	-587.4243	1	3615.626	-9.350189	8.172183E-009	0.0043766	7
	17	6	20015.62	3624.472	-649.1235	1	3682.141	-10.15372	9.511685E-008	0.0041623	7
	18	7	15890.62	3694.69	-723.735	1	3764.907	-11.08306	5.823432E-009	0.0042465	7
	19	7	12609.37	3772.173	-813.2873	1	3858.85	-12.16683	-1.479499E-008	0.0042845	7
	20	7	10078.13	3854.612	-915.8288	1	3961.915	-13.36526	-1.536693E-008	0.00433	7
	21	8	8015.625	3949.443	-1035.502	1	4082.936	-14.69165	5.632757E-009	0.0042465	7
	22	8	6328.125	4062.309	-1182.393	1	4230.887	-16.22839	7.756484E-009	0.0043714	7
	23	8	5015.625	4188.031	-1348.54	1	4399.791	-17.84849	9.344631E-008	0.0041574	7
	24	9	3984.375	4326.247	-1539.758	1	4592.087	-19.59119	9.359476E-008	0.0041572	7
	25	9	3170.956	4483.596	-1758.029	1	4815.942	-21.41027	3.237547E-008	0.0041891	7
	26	9	2527.573	4660.896	-2011.758	1	5076.527	-23.34623	-2.996893E-008	0.0043021	7
	27	10	1976.103	4876.958	-2331.662	1	5405.679	-25.55235	-5.446446E-008	0.0043646	7
	28	10	1577.524	5148.681	-2674.746	1	5801.998	-27.45193	3.144568E-008	0.0042562	7
	29	10	1265.625	5341.61	-3046.63	1	6149.37	-29.69862	-1.511849E-008	0.0042741	7
	30	10	998.264	5626.205	-3516.271	1	6634.632	-32.0046	4.040019E-009	0.0042374	7
	31	11	796.875	5912.112	-4046.727	1	7164.43	-34.39089	-5.443605E-008	0.0043634	7
	32	11	627.7902	6225.715	-4710.768	1	7807.103	-37.11345	8.258835E-009	0.0043669	7
	33	11	505.5147	6513.639	-5440.697	1	8486.972	-39.87125	-6.06726E-009	0.0042968	7
	34	12	397.9953	6835.132	-6434.432	1	9387.275	-43.27037	1.040615E-009	0.0043206	7
	35	12	315.5048	7162.865	-7646.648	1	10477.49	-46.87102	1.242883E-009	0.0042604	6
	36	12	252.4038	7496.223	-9106.326	1	11794.85	-50.53918	6.58178E-010	0.0042601	6
	37	13	198.6229	7899.451	-11070.23	1	13599.68	-54.48927	3.183258E-010	0.0042598	6
	38	13	158.3615	8344.463	-13398.31	1	15784.32	-58.08537	1.18004E-010	0.0042554	6
	39	13	125.558	8906.493	-16367.33	1	18633.71	-61.44661	4.074607E-010	0.0042584	6
	40	14	100.4464	9568.28	-19909.66	1	22089.51	-64.33178	1.566154E-009	0.0042599	6
	41	14	79.00281	10449.42	-24573.28	1	26702.74	-66.9631	4.136809E-010	0.0042541	6
	42	14	63.3446	11941.72	-29979.98	1	32270.79	-68.28146	2.91486E-011	0.0042499	6
	43	15	49.86702	13405.67	-37088.55	1	39436.94	-70.12759	5.047347E-011	0.0042542	6
	44	15	39.72458	15164.97	-45115.14	1	47595.72	-71.42048	1.59015E-011	0.0042559	6
	45	15	31.6723	17548.79	-55030.21	1	57760.57	-72.31284	-2.767428E-010	0.0042508	6
	46	16	24.93351	21252.18	-67806.7	1	71059.16	-72.59781	-7.961935E-011	0.0042475	6
	47	16	19.86229	25673.33	-82298.69	1	86210.17	-72.67453	-6.027535E-010	0.0042476	6
	48	16	15.83615	30933.39	-98887.3	1	103612.6	-72.62955	-6.854198E-010	0.0042519	6
	49	17	12.40079	38257.05	-121117.8	1	127016.2	-72.47042	1.457236E-009	0.0042598	5
	50	17	9.93114	48413.96	-145969.8	1	153789.1	-71.65081	4.228063E-010	0.0042529	5
	51	18	7.944915	59617.5	-174743.2	1	184633.2	-71.16179	-3.149011E-010	0.0042605	5
	52	18	6.317385	74377.23	-208906.8	1	221752.1	-70.40271	-1.946559E-010	0.0042669	5
	53	19	5.008013	92619.85	-249729.8	1	266352	-69.65118	4.704108E-011	0.0042579	5
	54	20	3.945707	116628.1	-298273.8	1	320264.6	-68.64399	3.670814E-011	0.0042443	5
	55	21	3.158693	143003.2	-352644.2	1	380536.2	-67.92661	1.697944E-010	0.0042598	5
	56	23	2.504006	176298.6	-417039.6	1	452772.8	-67.08435	6.211964E-011	0.0042599	5
	57	24	1.998082	215494.2	-490275.6	1	535544.4	-66.27274	-3.681957E-011	0.0042101	5
	58	26	1.584686	262990.9	-575890.5	1	633098.8	-65.45532	2.452815E-011	0.0042516	5
	59	28	1.266892	320282.1	-672036.8	1	744455.5	-64.51827	6.217908E-011	0.004275	5
	60	30	0.999041	391790	-791158.6	1	882854.1	-63.65491	5.207109E-011	0.0042862	5
