EXPLAIN
TAG	EISPOT
TITLE	LABEL	Potentiostatic EIS	Test &Identifier
DATE	LABEL	11/15/2019	Date
TIME	LABEL	9:28:35	Time
NOTES	NOTES	4	&Notes...
	
	
	
	
PSTAT	PSTAT	REF600-11020	Potentiostat
VDC	POTEN	0.00000E+000	T	DC &Voltage (V)
FREQINIT	QUANT	1.00000E+006	Initial Fre&q. (Hz)
FREQFINAL	QUANT	1.00000E+000	Final Fre&q. (Hz)
PTSPERDEC	QUANT	1.00000E+001	Points/&decade
VAC	QUANT	2.50000E+001	AC &Voltage (mV rms)
AREA	QUANT	1.00000E-002	&Area (cm^2)
CONDIT	TWOPARAM	T	5.00000E+000	0.00000E+000	Conditionin&g	Time(s)	E(V)
DELAY	TWOPARAM	T	5.00000E+000	0.00000E+000	Init. De&lay	Time(s)	Stab.(mV/s)
SPEED	SELECTOR	0	&Optimize for:
ZGUESS	QUANT	1.00000E+005	E&stimated Z (ohms)
OCVCURVE	TABLE	19
	Pt	T	Vf	Vm	Ach	Over
	#	s	V vs. Ref.	V	V	bits
	0	0.258333	1.04249E-003	1.04249E-003	5.73965E-004	...........
	1	0.516667	1.03901E-003	8.60242E-004	5.76466E-004	...........
	2	0.775	1.01794E-003	7.03554E-004	5.70432E-004	...........
	3	1.03333	9.59487E-004	5.60646E-004	5.68032E-004	...........
	4	1.29167	8.57524E-004	4.24211E-004	5.68099E-004	...........
	5	1.55	7.25814E-004	2.98942E-004	5.71799E-004	...........
	6	1.80833	5.84230E-004	1.87650E-004	5.71399E-004	...........
	7	2.06667	4.46604E-004	8.07573E-005	5.73732E-004	...........
	8	2.325	3.18705E-004	-2.83323E-005	5.69199E-004	...........
	9	2.58333	2.00379E-004	-1.35422E-004	5.67666E-004	...........
	10	2.84167	8.87362E-005	-2.32150E-004	5.67332E-004	...........
	11	3.1	-1.86008E-005	-3.27980E-004	5.65199E-004	...........
	12	3.35833	-1.22150E-004	-4.14985E-004	5.65766E-004	...........
	13	3.61667	-2.21505E-004	-5.06752E-004	5.66432E-004	...........
	14	3.875	-3.16604E-004	-5.87982E-004	5.68666E-004	...........
	15	4.13333	-4.07955E-004	-6.75382E-004	5.69732E-004	...........
	16	4.39167	-4.96248E-004	-7.53751E-004	5.69532E-004	...........
	17	4.65	-5.82094E-004	-8.38010E-004	5.66899E-004	...........
	18	4.90833	-6.66059E-004	-9.18265E-004	5.66666E-004	...........
EOC	QUANT	-0.0006661	Open Circuit (V)
PSTATMODEL	IQUANT	4	Pstat Model
PSTATSECTION	LABEL	REF600-11020	Pstat Section
PSTATSERIALNO	LABEL	11020	Pstat Serial Number
CTRLMODE	IQUANT	1	Control Mode
IESTAB	IQUANT	0	I/E Stability
CASPEED	IQUANT	1	Control Amp Speed
CONVENTION	IQUANT	1	Current Convention
ICHRANGE	IQUANT	2	Ich Range
ICHRANGEMODE	TOGGLE	F	Ich Auto Range
ICHOFFSETENABLE	TOGGLE	T	Ich Offset Enable
ICHOFFSET	QUANT	0	Ich Offset (V)
ICHFILTER	IQUANT	3	Ich Filter
VCHRANGE	IQUANT	2	Vch Range
VCHRANGEMODE	TOGGLE	F	Vch Auto Range
VCHOFFSETENABLE	TOGGLE	T	Vch Offset Enable
VCHOFFSET	QUANT	0	Vch Offset (V)
VCHFILTER	IQUANT	3	Vch Filter
ACHRANGE	IQUANT	2	Ach Range
ACHOFFSETENABLE	TOGGLE	F	Ach Offset Enable
ACHOFFSET	QUANT	0	Ach Offset (V)
ACHFILTER	IQUANT	3	Ach Filter
IERANGELOWERLIMIT	IQUANT	1	I/E Range Lower Limit
IERANGEMODE	TOGGLE	F	I/E AutoRange
IERANGE	IQUANT	4	I/E Range
POSFEEDENABLE	TOGGLE	F	Positive Feedback IR Comp
POSFEEDRESISTANCE	QUANT	0	Positive Feedback Resistance (ohm)
ACHSELECT	IQUANT	0	Ach Select
CABLEID	IQUANT	14	Cable ID
DCCALDATE	LABEL	8/19/2019	DC Calibration Date
ACCALDATE	LABEL	8/19/2019	AC Calibration Date
THERMOSELECT	IQUANT	1	Thermo Select
FRAMEWORKVERSION	QUANT	6.33	Framework Version
INSTRUMENTVERSION	LABEL	3.50	Instrument Version
ZCURVE	TABLE
	Pt	Time	Freq	Zreal	Zimag	Zsig	Zmod	Zphz	Idc	Vdc	IERange
	#	s	Hz	ohm	ohm	V	ohm	°	A	V	#
	0	2	1000078	1114.902	-1494.799	1	1864.787	-53.28242	5.575482E-006	0.0002949	8
	1	2	794390.6	1205.693	-1764.781	1	2137.323	-55.65923	-5.49751E-006	0.0010863	8
	2	2	630984.4	1321.856	-2101.969	1	2483.058	-57.83562	8.479646E-006	0.0001436	8
	3	3	501234.4	1447.264	-2518.426	1	2904.658	-60.1153	-4.426533E-006	0.0015413	8
	4	3	398109.4	1622.348	-3038.608	1	3444.583	-61.90173	6.839137E-006	8.557754E-005	8
	5	3	316265.6	1828.042	-3657.271	1	4088.688	-63.44239	-5.013674E-006	0.001171	8
	6	3	251203.1	2100.258	-4420.825	1	4894.362	-64.58841	-1.371866E-006	0.000581	8
	7	4	199546.9	2480.347	-5336.513	1	5884.768	-65.07156	6.070299E-006	-0.000274	8
	8	4	158578.1	2952.2	-6376.498	1	7026.75	-65.15674	-2.653435E-006	0.0007601	8
	9	5	125953.1	3752.252	-7702.216	1	8567.586	-64.02627	-2.381795E-006	0.0008976	7
	10	5	100078.1	4622.092	-9163.517	1	10263.22	-63.23355	-7.242028E-008	-0.0006439	7
	11	5	79453.13	5829.895	-10720.39	1	12203.05	-61.46206	2.322588E-007	0.0018149	7
	12	6	63140.62	7293.249	-12642.33	1	14595.21	-60.01973	8.053922E-007	-0.0013608	7
	13	6	50203.12	9274.853	-14374.77	1	17107.22	-57.16919	6.158313E-007	0.001256	7
	14	6	39890.62	11655.29	-16203.81	1	19960.19	-54.27278	-2.067493E-007	0.0023141	7
	15	6	31640.63	14490.91	-17966.11	1	23081.75	-51.11142	2.316263E-007	0.0018088	7
	16	7	25171.88	17593.09	-19778.74	1	26471.04	-48.34707	1.375358E-006	-0.000839	7
	17	7	20015.62	21232.7	-21267.33	1	30052.06	-45.04669	-7.167215E-008	-0.0006622	7
	18	7	15890.62	24667.53	-21854.91	1	32956.4	-41.54027	1.136578E-006	0.0002408	7
	19	8	12609.37	28728.82	-22366.23	1	36408.7	-37.90181	-1.240081E-007	0.0039032	6
	20	8	10078.13	32240.59	-22835.4	1	39508.37	-35.30922	-1.803818E-007	0.0041149	6
	21	8	8015.625	35810.97	-23288.11	1	42717.23	-33.03621	-1.144611E-007	0.0002041	6
	22	9	6328.125	39506.13	-23769.06	1	46105.34	-31.03343	-5.419996E-008	-0.0007431	6
	23	9	5015.625	42753.89	-24074.89	1	49066.24	-29.38403	-5.529245E-008	0.0033547	6
	24	9	3984.375	46088.97	-24670.79	1	52276.58	-28.15953	7.702641E-008	0.0017594	6
	25	10	3170.956	49611.68	-25423.69	1	55746.59	-27.13304	-5.396229E-008	-0.0007416	6
	26	10	2527.573	52951.5	-26069.45	1	59020.99	-26.21227	-1.681295E-007	0.0012547	6
	27	10	1976.103	56843.07	-27381.23	1	63094.11	-25.72006	1.998541E-007	-0.000997	6
	28	11	1577.524	61067.14	-28705.56	1	67477.44	-25.1766	-2.072733E-007	0.0023229	6
	29	11	1265.625	64149.63	-29473.31	1	70596.39	-24.67624	1.265931E-008	0.0026309	6
	30	11	998.264	68062.27	-30831.51	1	74719.84	-24.37004	-2.158104E-007	0.0038958	6
	31	12	796.875	72677.66	-32814.86	1	79742.45	-24.29976	-5.35327E-008	-0.0007505	6
	32	12	627.7902	77411.95	-34613.79	1	84798.14	-24.09121	1.33404E-007	0.0007878	6
	33	13	505.5147	82057.91	-36845.46	1	89950.48	-24.18093	2.002333E-007	-0.0015383	6
	34	13	397.9953	86937.05	-38686.96	1	95156.4	-23.98905	1.164463E-009	0.0007122	6
	35	14	315.5048	92200.52	-40661.44	1	100768.5	-23.798	-9.771453E-011	0.0007184	5
	36	14	252.4038	97195.3	-43438.66	1	106460.5	-24.0809	-4.837726E-011	0.0007145	5
	37	14	198.6229	102368.8	-46766.64	1	112545.5	-24.55304	2.420428E-010	0.0007163	5
	38	15	158.3615	108132.6	-50340.77	1	119276.4	-24.96417	1.377256E-010	0.0007193	5
	39	15	125.558	113935.4	-55651.83	1	126800.7	-26.03322	3.383479E-010	0.0007217	5
	40	15	100.4464	119287.6	-60445.47	1	133728	-26.87226	2.741352E-010	0.0007131	5
	41	16	79.00281	127255.6	-66424.66	1	143548.7	-27.56357	7.999947E-010	0.000718	5
	42	16	63.3446	136899.3	-81222.49	1	159180.7	-30.68071	-2.738057E-010	0.0007148	5
	43	16	49.86702	143218.9	-88661.11	1	168441.2	-31.76	3.693145E-011	0.0007147	5
	44	17	39.72458	154168.1	-95597.4	1	181402	-31.80245	2.907694E-010	0.0007187	5
	45	17	31.6723	165197.1	-105963	1	196260.6	-32.6775	-1.558373E-010	0.0007204	5
	46	17	24.93351	178263.7	-121342.3	1	215643	-34.24273	6.481026E-010	0.0007108	5
	47	18	19.86229	192631.8	-137189.3	1	236490.8	-35.45786	1.145137E-009	0.000709	5
	48	18	15.83615	210855	-159716.2	1	264516.7	-37.14281	8.864171E-010	0.0007164	5
	49	18	12.40079	233627.1	-179194.2	1	294435.4	-37.48854	1.282241E-010	0.000714	5
	50	19	9.93114	253408.3	-194088.4	1	319196	-37.44894	-1.214325E-010	0.0007057	5
	51	19	7.944915	279836.9	-216249.8	1	353656.2	-37.6958	-3.558713E-010	0.0007191	5
	52	20	6.317385	307141.4	-242021.8	1	391037.6	-38.23746	-4.680914E-010	0.000729	5
	53	21	5.008013	341071.5	-269384.6	1	434623.8	-38.30233	-2.539976E-010	0.0006977	5
	54	22	3.945707	377075.8	-298075.2	1	480661	-38.32607	2.872795E-010	0.0007096	5
	55	23	3.158693	414697.3	-327004.4	1	528115.3	-38.25711	3.567023E-010	0.0007284	5
	56	25	2.504006	456027.1	-360259.8	1	581160.8	-38.30862	7.45256E-011	0.0007099	5
	57	26	1.998082	496206.1	-397748.3	1	635943.6	-38.71493	1.473962E-010	0.0007089	5
	58	28	1.584686	541964.1	-441421.7	1	698983.8	-39.1623	3.569839E-010	0.0007541	5
	59	30	1.266892	589427.2	-494483.5	1	769375.3	-39.99403	6.232878E-010	0.0007407	5
	60	32	0.999041	644399.9	-559532.4	1	853421.2	-40.96778	6.218534E-010	0.000717	5
