EXPLAIN
TAG	EISPOT
TITLE	LABEL	Potentiostatic EIS	Test &Identifier
DATE	LABEL	8/14/2018	Date
TIME	LABEL	5:18:04	Time
NOTES	NOTES	1	&Notes...
	
PSTAT	PSTAT	REF600-11020	Potentiostat
VDC	POTEN	0.00000E+000	T	DC &Voltage (V)
FREQINIT	QUANT	1.00000E+006	Initial Fre&q. (Hz)
FREQFINAL	QUANT	1.00000E+000	Final Fre&q. (Hz)
PTSPERDEC	QUANT	1.00000E+001	Points/&decade
VAC	QUANT	2.50000E+001	AC &Voltage (mV rms)
AREA	QUANT	1.00000E-002	&Area (cm^2)
CONDIT	TWOPARAM	T	5.00000E+000	0.00000E+000	Conditionin&g	Time(s)	E(V)
DELAY	TWOPARAM	T	5.00000E+000	0.00000E+000	Init. De&lay	Time(s)	Stab.(mV/s)
SPEED	SELECTOR	0	&Optimize for:
ZGUESS	QUANT	1.00000E+005	E&stimated Z (ohms)
OCVCURVE	TABLE	19
	Pt	T	Vf	Vm	Ach	Over
	#	s	V vs. Ref.	V	V	bits
	0	0.258333	6.13530E-003	6.13530E-003	5.44633E-004	...........
	1	0.516667	6.13408E-003	6.07154E-003	5.45966E-004	...........
	2	0.775	6.12695E-003	6.02920E-003	5.52966E-004	...........
	3	1.03333	6.10810E-003	5.99800E-003	5.43099E-004	...........
	4	1.29167	6.07761E-003	5.98002E-003	5.40199E-004	...........
	5	1.55	6.04285E-003	5.97606E-003	5.47433E-004	...........
	6	1.80833	6.01255E-003	5.97401E-003	5.44399E-004	...........
	7	2.06667	5.99161E-003	5.97680E-003	5.41766E-004	...........
	8	2.325	5.98036E-003	5.98137E-003	5.46799E-004	...........
	9	2.58333	5.97667E-003	5.99221E-003	5.49799E-004	...........
	10	2.84167	5.97832E-003	6.00394E-003	5.42899E-004	...........
	11	3.1	5.98396E-003	6.01715E-003	5.44166E-004	...........
	12	3.35833	5.99268E-003	6.02796E-003	5.47866E-004	...........
	13	3.61667	6.00356E-003	6.04596E-003	5.48333E-004	...........
	14	3.875	6.01598E-003	6.06372E-003	5.40966E-004	...........
	15	4.13333	6.02991E-003	6.07955E-003	5.40599E-004	...........
	16	4.39167	6.04532E-003	6.09810E-003	5.41966E-004	...........
	17	4.65	6.06188E-003	6.11867E-003	5.47599E-004	...........
	18	4.90833	6.07928E-003	6.13266E-003	5.48933E-004	...........
EOC	QUANT	0.0060793	Open Circuit (V)
PSTATMODEL	IQUANT	4	Pstat Model
PSTATSECTION	LABEL	REF600-11020	Pstat Section
PSTATSERIALNO	LABEL	11020	Pstat Serial Number
CTRLMODE	IQUANT	1	Control Mode
IESTAB	IQUANT	0	I/E Stability
CASPEED	IQUANT	1	Control Amp Speed
CONVENTION	IQUANT	1	Current Convention
ICHRANGE	IQUANT	2	Ich Range
ICHRANGEMODE	TOGGLE	F	Ich Auto Range
ICHOFFSETENABLE	TOGGLE	T	Ich Offset Enable
ICHOFFSET	QUANT	0	Ich Offset (V)
ICHFILTER	IQUANT	3	Ich Filter
VCHRANGE	IQUANT	2	Vch Range
VCHRANGEMODE	TOGGLE	F	Vch Auto Range
VCHOFFSETENABLE	TOGGLE	T	Vch Offset Enable
VCHOFFSET	QUANT	0	Vch Offset (V)
VCHFILTER	IQUANT	3	Vch Filter
ACHRANGE	IQUANT	2	Ach Range
ACHOFFSETENABLE	TOGGLE	F	Ach Offset Enable
ACHOFFSET	QUANT	0	Ach Offset (V)
ACHFILTER	IQUANT	3	Ach Filter
IERANGELOWERLIMIT	IQUANT	1	I/E Range Lower Limit
IERANGEMODE	TOGGLE	F	I/E AutoRange
IERANGE	IQUANT	5	I/E Range
POSFEEDENABLE	TOGGLE	F	Positive Feedback IR Comp
POSFEEDRESISTANCE	QUANT	0	Positive Feedback Resistance (ohm)
ACHSELECT	IQUANT	0	Ach Select
CABLEID	IQUANT	14	Cable ID
DCCALDATE	LABEL	8/19/2019	DC Calibration Date
ACCALDATE	LABEL	8/19/2019	AC Calibration Date
THERMOSELECT	IQUANT	1	Thermo Select
FRAMEWORKVERSION	QUANT	6.33	Framework Version
INSTRUMENTVERSION	LABEL	3.50	Instrument Version
ZCURVE	TABLE
	Pt	Time	Freq	Zreal	Zimag	Zsig	Zmod	Zphz	Idc	Vdc	IERange
	#	s	Hz	ohm	ohm	V	ohm	°	A	V	#
	0	1	1000078	2286.737	-1124.582	1	2548.303	-26.18724	-6.842231E-006	0.0090205	8
	1	1	794390.6	2471.956	-1007.877	1	2669.529	-22.18192	-1.260561E-006	0.0085474	8
	2	2	630984.4	2618.927	-889.8635	1	2765.978	-18.76682	3.218621E-006	0.0071235	8
	3	2	501234.4	2731.058	-771.219	1	2837.861	-15.76906	-1.137033E-007	0.0076743	8
	4	2	398109.4	2820.277	-658.3309	1	2896.094	-13.13915	3.708458E-006	0.0070154	8
	5	3	316265.6	2892.428	-575.951	1	2949.213	-11.26165	4.606862E-007	0.0076001	8
	6	3	251203.1	2926.314	-505.6158	1	2969.674	-9.80292	3.536123E-006	0.0070063	8
	7	3	199546.9	2982.519	-436.4618	1	3014.286	-8.325568	-2.791543E-006	0.0081433	8
	8	4	158578.1	3040.115	-384.66	1	3064.353	-7.211208	-7.521103E-007	0.0077249	8
	9	4	125953.1	3070.993	-310.8118	1	3086.682	-5.779163	2.195964E-007	0.0066162	7
	10	4	100078.1	3085.941	-291.1152	1	3099.642	-5.389102	3.587756E-008	0.0074263	7
	11	5	79453.13	3104.03	-295.3268	1	3118.047	-5.434934	-3.751214E-008	0.0075665	7
	12	5	63140.62	3129.971	-303.6862	1	3144.669	-5.541791	3.488676E-008	0.0074218	7
	13	5	50203.12	3157.512	-315.1436	1	3173.2	-5.699677	7.670345E-008	0.0074875	7
	14	6	39890.62	3186.556	-335.3414	1	3204.153	-6.007484	-5.192125E-009	0.0075774	7
	15	6	31640.63	3219.539	-361.5042	1	3239.771	-6.406591	1.102502E-007	0.0073776	7
	16	6	25171.88	3254.856	-396.4685	1	3278.914	-6.944889	-4.020628E-008	0.0075601	7
	17	6	20015.62	3289.693	-416.1417	1	3315.909	-7.209546	3.87788E-009	0.0076326	7
	18	7	15890.62	3335.405	-490.1272	1	3371.224	-8.359605	-5.798994E-008	0.0076246	7
	19	7	12609.37	3380.395	-550.5687	1	3424.938	-9.250601	-2.740214E-009	0.0074762	7
	20	7	10078.13	3431.454	-620.1289	1	3487.038	-10.24387	3.559625E-008	0.0074173	7
	21	8	8015.625	3483.854	-704.5319	1	3554.378	-11.43261	-2.133494E-008	0.0075848	7
	22	8	6328.125	3546.449	-815.0544	1	3638.903	-12.94312	6.968897E-009	0.0074878	7
	23	8	5015.625	3611.375	-943.1558	1	3732.503	-14.63659	6.930238E-008	0.0073903	7
	24	9	3984.375	3682.743	-1098.128	1	3842.978	-16.60364	2.429237E-009	0.0076323	7
	25	9	3170.956	3754.965	-1283.557	1	3968.284	-18.87194	6.796625E-008	0.0074206	7
	26	9	2527.573	3837.897	-1507.874	1	4123.486	-21.4494	3.287868E-008	0.007499	7
	27	10	1976.103	3936.628	-1807.727	1	4331.849	-24.66492	6.927895E-008	0.0073871	7
	28	10	1577.524	4038.083	-2131.706	1	4566.212	-27.8296	-2.431503E-008	0.0076152	7
	29	10	1265.625	4151.052	-2546.248	1	4869.765	-31.52488	1.10658E-007	0.0073747	7
	30	11	998.264	4294.203	-3070.296	1	5278.911	-35.56424	-3.85998E-008	0.0075604	7
	31	11	796.875	4439.438	-3685.096	1	5769.623	-39.69545	-3.962279E-009	0.0075731	7
	32	11	627.7902	4613.476	-4486.958	1	6435.601	-44.2035	-1.785738E-008	0.007585	7
	33	12	505.5147	4797.016	-5382.617	1	7209.988	-48.29241	7.120357E-008	0.0074964	7
	34	12	397.9953	5036.803	-6597.593	1	8300.459	-52.64079	9.421672E-010	0.0075573	7
	35	12	315.5048	5313.759	-8069.25	1	9661.72	-56.63432	1.975672E-009	0.0075588	7
	36	13	252.4038	5642.331	-9811.92	1	11318.55	-60.09899	1.185388E-009	0.0074932	6
	37	13	198.6229	6082.234	-12129.75	1	13569.25	-63.3694	4.142388E-010	0.0074954	6
	38	13	158.3615	6609.9	-14835.05	1	16240.98	-65.98418	-3.767139E-010	0.0074949	6
	39	13	125.558	7316.546	-18240.58	1	19653.26	-68.1436	-5.475193E-011	0.0074942	6
	40	14	100.4464	8214.735	-22259.01	1	23726.47	-69.74331	1.227268E-009	0.0074925	6
	41	14	79.00281	9442.147	-27594.28	1	29165.02	-71.1102	1.633806E-010	0.0074889	6
	42	14	63.3446	10854.19	-33040.13	1	34777.35	-71.81386	-2.915205E-010	0.0074847	6
	43	15	49.86702	13105.17	-40862.01	1	42912.11	-72.21804	-2.339335E-010	0.0074829	6
	44	15	39.72458	15829.27	-49973.08	1	52420.17	-72.4241	-1.696693E-010	0.0074878	6
	45	16	31.6723	19224.46	-60543.85	1	63522.73	-72.38382	5.43611E-012	0.0074883	6
	46	16	24.93351	24216.22	-73940.16	1	77804.71	-71.86581	-4.860453E-011	0.0074869	6
	47	16	19.86229	30346.41	-88959.21	1	93992.8	-71.16409	-2.880275E-010	0.0074901	6
	48	16	15.83615	37724.39	-105733.5	1	112261.7	-70.36423	8.43452E-010	0.0074893	5
	49	17	12.40079	48060.3	-128773.8	1	137450	-69.53368	-2.177767E-010	0.0074886	5
	50	17	9.93114	59809.06	-151611.2	1	162981.9	-68.47128	-7.385854E-010	0.0074969	5
	51	18	7.944915	74416.02	-178587.1	1	193471.2	-67.37885	-1.584581E-010	0.0074857	5
	52	18	6.317385	92343.27	-210651.9	1	230003.2	-66.32884	2.353263E-011	0.0074914	5
	53	19	5.008013	114621.3	-247844.6	1	273065.9	-65.18077	-2.304086E-010	0.007481	5
	54	20	3.945707	142373.7	-290540	1	323548.7	-63.8937	5.958276E-011	0.0074931	5
	55	22	3.158693	173685.3	-336992.7	1	379118.3	-62.73351	-1.968597E-010	0.0074991	5
	56	23	2.504006	211200.9	-391235.2	1	444601.8	-61.63845	-1.992922E-010	0.0074903	5
	57	24	1.998082	254664.9	-449597.6	1	516712.9	-60.47155	6.925743E-011	0.0075319	5
	58	26	1.584686	304675	-518083.3	1	601030.1	-59.54102	4.342982E-011	0.0075147	5
	59	28	1.266892	361325.8	-590461.8	1	692243.8	-58.53597	-3.19802E-011	0.0074756	5
	60	31	0.999041	430756.3	-678061.1	1	803316.8	-57.57316	-7.895517E-011	0.0074535	5
