EXPLAIN
TAG	EISPOT
TITLE	LABEL	Potentiostatic EIS	Test &Identifier
DATE	LABEL	11/27/2019	Date
TIME	LABEL	12:30:02	Time
NOTES	NOTES	3	&Notes...
	
	
	
PSTAT	PSTAT	REF600-11020	Potentiostat
VDC	POTEN	0.00000E+000	T	DC &Voltage (V)
FREQINIT	QUANT	1.00000E+006	Initial Fre&q. (Hz)
FREQFINAL	QUANT	1.00000E+000	Final Fre&q. (Hz)
PTSPERDEC	QUANT	1.00000E+001	Points/&decade
VAC	QUANT	2.50000E+001	AC &Voltage (mV rms)
AREA	QUANT	1.00000E-002	&Area (cm^2)
CONDIT	TWOPARAM	T	5.00000E+000	0.00000E+000	Conditionin&g	Time(s)	E(V)
DELAY	TWOPARAM	T	5.00000E+000	0.00000E+000	Init. De&lay	Time(s)	Stab.(mV/s)
SPEED	SELECTOR	0	&Optimize for:
ZGUESS	QUANT	1.00000E+005	E&stimated Z (ohms)
OCVCURVE	TABLE	19
	Pt	T	Vf	Vm	Ach	Over
	#	s	V vs. Ref.	V	V	bits
	0	0.258333	1.08673E-003	1.08673E-003	5.47333E-004	...........
	1	0.516667	1.08089E-003	7.81177E-004	5.42199E-004	...........
	2	0.775	1.04505E-003	4.91713E-004	5.42333E-004	...........
	3	1.03333	9.44125E-004	2.37546E-004	5.41066E-004	...........
	4	1.29167	7.65242E-004	-2.19614E-005	5.34099E-004	...........
	5	1.55	5.30458E-004	-2.45679E-004	5.48033E-004	...........
	6	1.80833	2.74197E-004	-4.69629E-004	5.44999E-004	...........
	7	2.06667	2.02872E-005	-7.20853E-004	5.41199E-004	...........
	8	2.325	-2.24031E-004	-9.49628E-004	5.40366E-004	...........
	9	2.58333	-4.66050E-004	-1.40246E-003	5.38133E-004	...........
	10	2.84167	-7.21038E-004	-1.52528E-003	5.39833E-004	...........
	11	3.1	-9.91442E-004	-1.69162E-003	5.36899E-004	...........
	12	3.35833	-1.26512E-003	-2.45311E-003	5.39799E-004	...........
	13	3.61667	-1.55472E-003	-2.70305E-003	5.46499E-004	...........
	14	3.875	-1.90542E-003	-3.77077E-003	5.37999E-004	...........
	15	4.13333	-2.34012E-003	-3.32850E-003	5.40166E-004	...........
	16	4.39167	-2.78919E-003	-2.92521E-003	5.49799E-004	...........
	17	4.65	-3.09217E-003	-2.44777E-003	5.49299E-004	...........
	18	4.90833	-3.14456E-003	-3.03950E-003	5.43033E-004	...........
EOC	QUANT	-0.0031446	Open Circuit (V)
PSTATMODEL	IQUANT	4	Pstat Model
PSTATSECTION	LABEL	REF600-11020	Pstat Section
PSTATSERIALNO	LABEL	11020	Pstat Serial Number
CTRLMODE	IQUANT	1	Control Mode
IESTAB	IQUANT	0	I/E Stability
CASPEED	IQUANT	1	Control Amp Speed
CONVENTION	IQUANT	1	Current Convention
ICHRANGE	IQUANT	2	Ich Range
ICHRANGEMODE	TOGGLE	F	Ich Auto Range
ICHOFFSETENABLE	TOGGLE	T	Ich Offset Enable
ICHOFFSET	QUANT	0	Ich Offset (V)
ICHFILTER	IQUANT	3	Ich Filter
VCHRANGE	IQUANT	2	Vch Range
VCHRANGEMODE	TOGGLE	F	Vch Auto Range
VCHOFFSETENABLE	TOGGLE	T	Vch Offset Enable
VCHOFFSET	QUANT	0	Vch Offset (V)
VCHFILTER	IQUANT	3	Vch Filter
ACHRANGE	IQUANT	2	Ach Range
ACHOFFSETENABLE	TOGGLE	F	Ach Offset Enable
ACHOFFSET	QUANT	0	Ach Offset (V)
ACHFILTER	IQUANT	3	Ach Filter
IERANGELOWERLIMIT	IQUANT	1	I/E Range Lower Limit
IERANGEMODE	TOGGLE	F	I/E AutoRange
IERANGE	IQUANT	4	I/E Range
POSFEEDENABLE	TOGGLE	F	Positive Feedback IR Comp
POSFEEDRESISTANCE	QUANT	0	Positive Feedback Resistance (ohm)
ACHSELECT	IQUANT	0	Ach Select
CABLEID	IQUANT	14	Cable ID
DCCALDATE	LABEL	8/19/2019	DC Calibration Date
ACCALDATE	LABEL	8/19/2019	AC Calibration Date
THERMOSELECT	IQUANT	1	Thermo Select
FRAMEWORKVERSION	QUANT	6.33	Framework Version
INSTRUMENTVERSION	LABEL	3.50	Instrument Version
ZCURVE	TABLE
	Pt	Time	Freq	Zreal	Zimag	Zsig	Zmod	Zphz	Idc	Vdc	IERange
	#	s	Hz	ohm	ohm	V	ohm	°	A	V	#
	0	2	1000078	1798.143	-885.4396	1	2004.326	-26.21651	1.706634E-006	-0.000534	8
	1	2	794390.6	1947.077	-822.6533	1	2113.733	-22.90439	-1.585019E-006	-0.0008653	8
	2	2	630984.4	2079.281	-765.7736	1	2215.811	-20.21813	-1.498384E-006	-0.0017943	8
	3	3	501234.4	2198.938	-700.7986	1	2307.91	-17.67701	-6.559459E-007	-0.0011753	8
	4	3	398109.4	2292.724	-634.4787	1	2378.896	-15.46867	-2.501308E-006	-0.0017746	8
	5	3	316265.6	2384.449	-576.0259	1	2453.039	-13.58109	-2.313509E-006	-0.0018017	8
	6	4	251203.1	2451.027	-510.3412	1	2503.594	-11.7618	-2.419109E-006	-0.0012069	8
	7	4	199546.9	2509.479	-455.7323	1	2550.524	-10.29299	6.602517E-006	-0.0024317	8
	8	4	158578.1	2561.761	-418.4924	1	2595.719	-9.277954	1.803811E-006	-0.0021695	8
	9	5	125953.1	2621.303	-335.8759	1	2642.734	-7.301704	-4.903254E-007	-0.0033717	7
	10	5	100078.1	2653.491	-298.4968	1	2670.228	-6.41834	-5.162993E-007	-0.0003738	7
	11	5	79453.13	2681.762	-276.6623	1	2695.995	-5.890048	-6.479924E-007	-0.0018593	7
	12	6	63140.62	2702.443	-263.34	1	2715.243	-5.565626	-7.685556E-007	-0.0002851	7
	13	6	50203.12	2729.17	-253.2754	1	2740.897	-5.30204	-9.162882E-007	-0.001282	7
	14	6	39890.62	2750.995	-245.8617	1	2761.959	-5.107065	6.636286E-008	-0.002915	7
	15	6	31640.63	2773.028	-249.2771	1	2784.21	-5.13671	-2.29082E-007	-0.0005956	7
	16	7	25171.88	2792.835	-253.3099	1	2804.299	-5.182541	-7.651832E-007	-0.0002898	7
	17	7	20015.62	2812.805	-266.2044	1	2825.374	-5.406381	-1.070884E-006	-0.0007802	7
	18	7	15890.62	2834.662	-284.9255	1	2848.946	-5.739797	8.820709E-007	-0.0024089	7
	19	8	12609.37	2866.208	-313.4868	1	2883.3	-6.241822	7.345571E-007	-0.0019878	7
	20	8	10078.13	2886.566	-349.0192	1	2907.59	-6.894255	9.562764E-007	-0.0027718	7
	21	8	8015.625	2905.542	-396.9052	1	2932.526	-7.77862	-2.26788E-007	-0.0006042	7
	22	9	6328.125	2941.23	-451.5487	1	2975.69	-8.728116	8.603126E-008	-0.0009588	7
	23	9	5015.625	2968.215	-522.1371	1	3013.789	-9.9768	3.956187E-007	-0.0031856	7
	24	9	3984.375	2998.851	-613.2714	1	3060.916	-11.55775	9.307199E-007	-0.0030475	7
	25	10	3170.956	3035.853	-719.856	1	3120.032	-13.33951	6.531789E-007	-0.0032981	7
	26	10	2527.573	3068.621	-855.1694	1	3185.553	-15.5722	8.887069E-008	-0.000973	7
	27	10	1976.103	3121.702	-1039.98	1	3290.377	-18.42524	8.865528E-007	-0.0024268	7
	28	11	1577.524	3176.378	-1245.237	1	3411.744	-21.40669	6.518052E-007	-0.0033024	7
	29	11	1265.625	3226.048	-1485.954	1	3551.823	-24.73133	7.120423E-008	-0.002935	7
	30	11	998.264	3300.243	-1815.861	1	3766.823	-28.82049	5.557121E-007	-0.0016432	7
	31	12	796.875	3389.276	-2194.855	1	4037.893	-32.92662	7.595178E-008	-0.0029286	7
	32	12	627.7902	3478.746	-2693.054	1	4399.342	-37.74508	-9.214996E-007	-0.0013036	7
	33	12	505.5147	3608.601	-3259.794	1	4862.948	-42.09277	8.272119E-007	-0.003232	7
	34	13	397.9953	3756.198	-4006.1	1	5491.617	-46.84396	2.150791E-009	-0.0017475	7
	35	13	315.5048	3951.132	-4908.6	1	6301.254	-51.168	2.687156E-009	-0.0017553	7
	36	13	252.4038	4190.366	-5967.825	1	7292.058	-54.92502	3.142172E-009	-0.0017562	7
	37	14	198.6229	4517.178	-7362.582	1	8637.854	-58.46956	1.441145E-009	-0.0017505	7
	38	14	158.3615	4926.562	-8969.502	1	10233.42	-61.2219	4.739517E-009	-0.0017581	7
	39	14	125.558	5469.883	-10967.54	1	12255.88	-63.49302	1.16586E-009	-0.0018162	6
	40	14	100.4464	6150.418	-13304.32	1	14657.17	-65.18949	3.591049E-010	-0.0018189	6
	41	15	79.00281	7071.162	-16341.88	1	17806.13	-66.60177	-8.249851E-010	-0.0018119	6
	42	15	63.3446	8193.808	-19447.04	1	21102.75	-67.15238	1.473736E-009	-0.0018182	6
	43	16	49.86702	9824.49	-23766.6	1	25717.15	-67.54108	1.438946E-009	-0.0018183	6
	44	16	39.72458	11757.09	-28763.34	1	31073.44	-67.76759	8.708891E-010	-0.0018118	6
	45	16	31.6723	14278.78	-34467.95	1	37308.48	-67.4976	1.26006E-009	-0.0018256	6
	46	17	24.93351	17678.3	-41344.77	1	44965.68	-66.8493	-9.650446E-010	-0.0018147	6
	47	17	19.86229	21712.21	-48940.88	1	53540.92	-66.07594	-9.703593E-010	-0.0018144	6
	48	17	15.83615	26262.02	-57321.75	1	63051.38	-65.38506	-5.468676E-010	-0.0018225	6
	49	17	12.40079	32732.78	-68144.42	1	75598.26	-64.34297	2.158459E-009	-0.0018141	6
	50	18	9.93114	40276.11	-79585.28	1	89196.31	-63.15717	1.47964E-009	-0.0018249	6
	51	18	7.944915	48442.27	-92060.45	1	104027.8	-62.24662	-4.171657E-010	-0.0018147	5
	52	19	6.317385	58511.15	-106115	1	121177.4	-61.12794	-2.571796E-011	-0.0017947	5
	53	20	5.008013	70335.56	-122270.9	1	141057.7	-60.09061	3.257589E-010	-0.0017996	5
	54	21	3.945707	83756.95	-140948.4	1	163956.3	-59.27959	1.35104E-010	-0.0018211	5
	55	22	3.158693	97838.9	-160727	1	188163.8	-58.66997	6.316025E-010	-0.0018152	5
	56	24	2.504006	113391.9	-184236.3	1	216334.8	-58.38895	4.919246E-010	-0.0018039	5
	57	25	1.998082	129704.2	-210998.8	1	247676.6	-58.42033	1.089807E-010	-0.0018506	5
	58	27	1.584686	146366.7	-243583.4	1	284176.1	-58.99879	3.066455E-010	-0.0018245	5
	59	29	1.266892	164568.3	-281272.8	1	325879	-59.66877	3.999385E-010	-0.0017885	5
	60	31	0.999041	185783.8	-331368.9	1	379896	-60.72259	3.908479E-010	-0.0017669	5
