EXPLAIN
TAG	EISPOT
TITLE	LABEL	Potentiostatic EIS	Test &Identifier
DATE	LABEL	10/8/2019	Date
TIME	LABEL	9:35:05	Time
NOTES	NOTES	2	&Notes...
	
	
PSTAT	PSTAT	REF600-11020	Potentiostat
VDC	POTEN	0.00000E+000	T	DC &Voltage (V)
FREQINIT	QUANT	1.00000E+006	Initial Fre&q. (Hz)
FREQFINAL	QUANT	1.00000E+000	Final Fre&q. (Hz)
PTSPERDEC	QUANT	1.00000E+001	Points/&decade
VAC	QUANT	2.50000E+001	AC &Voltage (mV rms)
AREA	QUANT	1.00000E-002	&Area (cm^2)
CONDIT	TWOPARAM	T	5.00000E+000	0.00000E+000	Conditionin&g	Time(s)	E(V)
DELAY	TWOPARAM	T	5.00000E+000	0.00000E+000	Init. De&lay	Time(s)	Stab.(mV/s)
SPEED	SELECTOR	1	&Optimize for:
ZGUESS	QUANT	1.00000E+004	E&stimated Z (ohms)
OCVCURVE	TABLE	19
	Pt	T	Vf	Vm	Ach	Over
	#	s	V vs. Ref.	V	V	bits
	0	0.258333	5.59579E-003	5.59579E-003	5.17300E-004	...........
	1	0.516667	5.59394E-003	5.49858E-003	5.10967E-004	...........
	2	0.775	5.58446E-003	5.50741E-003	5.14433E-004	...........
	3	1.03333	5.56440E-003	5.53333E-003	5.12900E-004	...........
	4	1.29167	5.54109E-003	5.49046E-003	5.15400E-004	...........
	5	1.55	5.52224E-003	5.43622E-003	5.15300E-004	...........
	6	1.80833	5.50843E-003	5.62980E-003	5.13433E-004	...........
	7	2.06667	5.50628E-003	5.62461E-003	5.13333E-004	...........
	8	2.325	5.52689E-003	5.63205E-003	5.16433E-004	...........
	9	2.58333	5.56851E-003	5.83842E-003	5.16533E-004	...........
	10	2.84167	5.62619E-003	5.92608E-003	5.17266E-004	...........
	11	3.1	5.70174E-003	5.89645E-003	5.20133E-004	...........
	12	3.35833	5.78500E-003	5.90907E-003	5.17700E-004	...........
	13	3.61667	5.85306E-003	5.94102E-003	5.27633E-004	...........
	14	3.875	5.89719E-003	6.04384E-003	5.19933E-004	...........
	15	4.13333	5.92968E-003	6.00826E-003	5.20733E-004	...........
	16	4.39167	5.96357E-003	6.11197E-003	5.22933E-004	...........
	17	4.65	6.00179E-003	6.13348E-003	5.17933E-004	...........
	18	4.90833	6.04352E-003	6.17183E-003	5.19633E-004	...........
EOC	QUANT	0.0060435	Open Circuit (V)
PSTATMODEL	IQUANT	4	Pstat Model
PSTATSECTION	LABEL	REF600-11020	Pstat Section
PSTATSERIALNO	LABEL	11020	Pstat Serial Number
CTRLMODE	IQUANT	1	Control Mode
IESTAB	IQUANT	0	I/E Stability
CASPEED	IQUANT	1	Control Amp Speed
CONVENTION	IQUANT	1	Current Convention
ICHRANGE	IQUANT	2	Ich Range
ICHRANGEMODE	TOGGLE	F	Ich Auto Range
ICHOFFSETENABLE	TOGGLE	T	Ich Offset Enable
ICHOFFSET	QUANT	0	Ich Offset (V)
ICHFILTER	IQUANT	3	Ich Filter
VCHRANGE	IQUANT	2	Vch Range
VCHRANGEMODE	TOGGLE	F	Vch Auto Range
VCHOFFSETENABLE	TOGGLE	T	Vch Offset Enable
VCHOFFSET	QUANT	0	Vch Offset (V)
VCHFILTER	IQUANT	3	Vch Filter
ACHRANGE	IQUANT	2	Ach Range
ACHOFFSETENABLE	TOGGLE	F	Ach Offset Enable
ACHOFFSET	QUANT	0	Ach Offset (V)
ACHFILTER	IQUANT	3	Ach Filter
IERANGELOWERLIMIT	IQUANT	1	I/E Range Lower Limit
IERANGEMODE	TOGGLE	F	I/E AutoRange
IERANGE	IQUANT	6	I/E Range
POSFEEDENABLE	TOGGLE	F	Positive Feedback IR Comp
POSFEEDRESISTANCE	QUANT	0	Positive Feedback Resistance (ohm)
ACHSELECT	IQUANT	0	Ach Select
CABLEID	IQUANT	14	Cable ID
DCCALDATE	LABEL	8/19/2019	DC Calibration Date
ACCALDATE	LABEL	8/19/2019	AC Calibration Date
THERMOSELECT	IQUANT	1	Thermo Select
FRAMEWORKVERSION	QUANT	6.33	Framework Version
INSTRUMENTVERSION	LABEL	3.50	Instrument Version
ZCURVE	TABLE
	Pt	Time	Freq	Zreal	Zimag	Zsig	Zmod	Zphz	Idc	Vdc	IERange
	#	s	Hz	ohm	ohm	V	ohm	°	A	V	#
	0	2	1000078	2208.962	-1028.021	1	2436.461	-24.95662	8.100522E-007	0.0073801	8
	1	3	794390.6	2387.16	-965.447	1	2574.999	-22.02006	-3.99707E-007	0.0081156	8
	2	5	630984.4	2541.181	-871.8107	1	2686.569	-18.93571	-3.529899E-006	0.0085901	8
	3	6	501234.4	2656.706	-776.0771	1	2767.739	-16.28415	1.511311E-006	0.0074623	8
	4	7	398109.4	2757.909	-696.2626	1	2844.44	-14.16884	-5.046018E-006	0.0087956	8
	5	9	316265.6	2826.92	-626.829	1	2895.581	-12.50224	2.332574E-007	0.0077166	8
	6	10	251203.1	2890.007	-559.2933	1	2943.628	-10.95286	4.093108E-006	0.0068406	8
	7	11	199546.9	2937.331	-520.7679	1	2983.138	-10.05366	1.011156E-006	0.0073257	8
	8	13	158578.1	2995.228	-493.7035	1	3035.644	-9.359904	4.44886E-006	0.0068437	8
	9	14	125953.1	3057.927	-415.0954	1	3085.972	-7.730311	1.289289E-006	0.0046724	7
	10	15	100078.1	3092.22	-419.8403	1	3120.592	-7.731946	7.484581E-009	0.0075108	7
	11	17	79453.13	3135.15	-426.6248	1	3164.044	-7.749095	7.036192E-008	0.0074502	7
	12	18	63140.62	3182.953	-439.5504	1	3213.159	-7.862541	-1.649679E-008	0.0077108	7
	13	19	50203.12	3233.573	-457.6	1	3265.791	-8.054743	-3.908269E-008	0.0075822	7
	14	21	39890.62	3286.428	-481.6976	1	3321.542	-8.338569	-8.210726E-008	0.0076979	7
	15	22	31640.63	3345.46	-509.7003	1	3384.066	-8.662727	-3.971244E-008	0.0075797	7
	16	23	25171.88	3406.021	-544.4092	1	3449.255	-9.081188	-8.20104E-008	0.0077004	7
	17	25	20015.62	3475.002	-585.0482	1	3523.907	-9.55664	-1.538881E-008	0.0077006	7
	18	26	15890.62	3540.735	-634.5264	1	3597.142	-10.15999	-1.717659E-008	0.0075248	7
	19	27	12609.37	3612.7	-690.6742	1	3678.129	-10.82318	-9.541168E-009	0.0075953	7
	20	29	10078.13	3688.61	-754.1933	1	3764.924	-11.55573	8.33106E-008	0.0073867	7
	21	30	8015.625	3771.705	-827.8235	1	3861.483	-12.37914	-9.875572E-009	0.0076011	7
	22	31	6328.125	3861.507	-922.986	1	3970.282	-13.44275	-4.728846E-008	0.0075947	7
	23	33	5015.625	3953.629	-1028.843	1	4085.303	-14.58643	-4.144862E-008	0.0075963	7
	24	34	3984.375	4046.696	-1158.013	1	4209.126	-15.96914	-3.94374E-008	0.0075966	7
	25	36	3170.956	4140.995	-1304.72	1	4341.674	-17.48829	-8.631661E-009	0.0075153	7
	26	37	2527.573	4234.902	-1489.459	1	4489.197	-19.3773	-3.943586E-008	0.0075907	7
	27	38	1976.103	4336.983	-1742.069	1	4673.781	-21.88422	-7.992106E-008	0.0076865	7
	28	40	1577.524	4439.433	-2037.335	1	4884.598	-24.65124	-4.589455E-008	0.0075844	7
	29	41	1265.625	4538.682	-2393.605	1	5131.178	-27.80622	7.071821E-008	0.0074325	7
	30	42	998.264	4665.663	-2877.503	1	5481.646	-31.66382	8.506809E-008	0.0073725	7
	31	44	796.875	4810.583	-3456.824	1	5923.795	-35.70054	3.240274E-009	0.0075464	7
	32	45	627.7902	5003.672	-4207.208	1	6537.38	-40.05793	8.483474E-008	0.007376	7
	33	46	505.5147	5223.578	-5057.266	1	7270.605	-44.07322	-1.422651E-008	0.0075878	7
	34	48	397.9953	5536.318	-6184.787	1	8300.748	-48.16665	5.450588E-009	0.0075622	7
	35	49	315.5048	5934.566	-7529.671	1	9587.23	-51.75633	5.70227E-009	0.0075609	7
	36	50	252.4038	6432.285	-9087.361	1	11133.48	-54.70809	9.447364E-010	0.0074988	6
	37	52	198.6229	7128.619	-11103.87	1	13195.19	-57.29978	8.531504E-010	0.0074978	6
	38	53	158.3615	7993.511	-13383.18	1	15588.64	-59.15095	1.045123E-009	0.0074968	6
	39	54	125.558	9142.763	-16145.91	1	18554.8	-60.47892	9.071762E-010	0.0074994	6
	40	56	100.4464	10564.17	-19269.37	1	21975.22	-61.26685	1.458554E-009	0.0075017	6
	41	57	79.00281	12533.66	-23176.07	1	26348.11	-61.59539	2.292832E-010	0.0075013	6
	42	58	63.3446	14973.01	-27409.07	1	31232.16	-61.35314	9.898938E-010	0.0075031	6
	43	60	49.86702	17927.58	-32186.11	1	36842.14	-60.88231	2.856615E-010	0.0074975	6
	44	61	39.72458	21680.73	-37562.61	1	43370.54	-60.00692	7.586785E-011	0.0075023	6
	45	62	31.6723	25912.89	-43385.04	1	50534.54	-59.15109	2.37433E-011	0.0074948	6
	46	64	24.93351	31057.43	-49951.74	1	58819.56	-58.12877	6.714139E-010	0.0074965	6
	47	65	19.86229	36398.62	-57018.65	1	67646.03	-57.44733	7.911929E-010	0.0075034	6
	48	66	15.83615	41978.5	-64858.46	1	77258.1	-57.08775	-1.539845E-010	0.0074971	6
	49	68	12.40079	48806.49	-74888.34	1	89388.69	-56.90677	-2.530961E-011	0.0075009	6
	50	69	9.93114	55181.32	-85235.7	1	101538.7	-57.08111	1.270589E-011	0.0075012	5
	51	71	7.944915	61772.95	-98005.8	1	115849.2	-57.77682	-6.949282E-010	0.0075054	5
	52	72	6.317385	69415.38	-114089.8	1	133547.6	-58.68251	-3.96537E-011	0.0075207	5
	53	74	5.008013	78103.13	-133878.2	1	154995.1	-59.74117	2.389546E-010	0.0075122	5
	54	77	3.945707	88322.04	-158957.1	1	181846.5	-60.94195	-2.029566E-010	0.0074959	5
	55	79	3.158693	99850.8	-187290.6	1	212245	-61.93645	1.735102E-010	0.0075072	5
	56	83	2.504006	114400.1	-222777.5	1	250434	-62.81872	-2.928223E-010	0.0075031	5
	57	85	1.998082	131197.2	-263349.9	1	294220.8	-63.51815	1.107081E-010	0.0074689	5
	58	88	1.584686	152208.6	-314402.8	1	349308.7	-64.16746	-9.217058E-011	0.0074559	5
	59	92	1.266892	177072.5	-370505.8	1	410644.8	-64.45589	1.606054E-010	0.0074809	5
	60	96	0.999041	208384	-443807.7	1	490294.9	-64.84822	-2.63758E-010	0.007491	5
