EXPLAIN
TAG	EISPOT
TITLE	LABEL	Potentiostatic EIS	Test &Identifier
DATE	LABEL	9/22/2019	Date
TIME	LABEL	9:30:48	Time
NOTES	NOTES	1	&Notes...
	
PSTAT	PSTAT	REF600-11020	Potentiostat
VDC	POTEN	0.00000E+000	T	DC &Voltage (V)
FREQINIT	QUANT	1.00000E+006	Initial Fre&q. (Hz)
FREQFINAL	QUANT	1.00000E+000	Final Fre&q. (Hz)
PTSPERDEC	QUANT	1.00000E+001	Points/&decade
VAC	QUANT	2.50000E+001	AC &Voltage (mV rms)
AREA	QUANT	1.00000E-002	&Area (cm^2)
CONDIT	TWOPARAM	T	5.00000E+000	0.00000E+000	Conditionin&g	Time(s)	E(V)
DELAY	TWOPARAM	T	5.00000E+000	0.00000E+000	Init. De&lay	Time(s)	Stab.(mV/s)
SPEED	SELECTOR	1	&Optimize for:
ZGUESS	QUANT	1.00000E+004	E&stimated Z (ohms)
OCVCURVE	TABLE	19
	Pt	T	Vf	Vm	Ach	Over
	#	s	V vs. Ref.	V	V	bits
	0	0.258333	1.11138E-002	1.11138E-002	5.63032E-004	...........
	1	0.516667	1.11220E-002	1.15423E-002	5.50966E-004	...........
	2	0.775	1.11722E-002	1.19490E-002	5.60999E-004	...........
	3	1.03333	1.13146E-002	1.23451E-002	5.65332E-004	...........
	4	1.29167	1.15698E-002	1.27174E-002	5.48299E-004	...........
	5	1.55	1.19096E-002	1.30739E-002	5.55933E-004	...........
	6	1.80833	1.22866E-002	1.34040E-002	5.63066E-004	...........
	7	2.06667	1.26645E-002	1.37306E-002	5.59599E-004	...........
	8	2.325	1.30265E-002	1.40419E-002	5.55966E-004	...........
	9	2.58333	1.33696E-002	1.43397E-002	5.59299E-004	...........
	10	2.84167	1.36961E-002	1.46243E-002	5.68032E-004	...........
	11	3.1	1.40082E-002	1.49017E-002	5.66966E-004	...........
	12	3.35833	1.43087E-002	1.52225E-002	5.60966E-004	...........
	13	3.61667	1.46013E-002	1.54467E-002	5.61132E-004	...........
	14	3.875	1.48865E-002	1.56458E-002	5.63332E-004	...........
	15	4.13333	1.51572E-002	1.58980E-002	5.66532E-004	...........
	16	4.39167	1.54089E-002	1.61326E-002	5.56066E-004	...........
	17	4.65	1.56466E-002	1.63464E-002	5.63832E-004	...........
	18	4.90833	1.58778E-002	1.65639E-002	5.58799E-004	...........
EOC	QUANT	0.0158778	Open Circuit (V)
PSTATMODEL	IQUANT	4	Pstat Model
PSTATSECTION	LABEL	REF600-11020	Pstat Section
PSTATSERIALNO	LABEL	11020	Pstat Serial Number
CTRLMODE	IQUANT	1	Control Mode
IESTAB	IQUANT	0	I/E Stability
CASPEED	IQUANT	1	Control Amp Speed
CONVENTION	IQUANT	1	Current Convention
ICHRANGE	IQUANT	2	Ich Range
ICHRANGEMODE	TOGGLE	F	Ich Auto Range
ICHOFFSETENABLE	TOGGLE	T	Ich Offset Enable
ICHOFFSET	QUANT	0	Ich Offset (V)
ICHFILTER	IQUANT	3	Ich Filter
VCHRANGE	IQUANT	2	Vch Range
VCHRANGEMODE	TOGGLE	F	Vch Auto Range
VCHOFFSETENABLE	TOGGLE	T	Vch Offset Enable
VCHOFFSET	QUANT	0	Vch Offset (V)
VCHFILTER	IQUANT	3	Vch Filter
ACHRANGE	IQUANT	2	Ach Range
ACHOFFSETENABLE	TOGGLE	F	Ach Offset Enable
ACHOFFSET	QUANT	0	Ach Offset (V)
ACHFILTER	IQUANT	3	Ach Filter
IERANGELOWERLIMIT	IQUANT	1	I/E Range Lower Limit
IERANGEMODE	TOGGLE	F	I/E AutoRange
IERANGE	IQUANT	6	I/E Range
POSFEEDENABLE	TOGGLE	F	Positive Feedback IR Comp
POSFEEDRESISTANCE	QUANT	0	Positive Feedback Resistance (ohm)
ACHSELECT	IQUANT	0	Ach Select
CABLEID	IQUANT	14	Cable ID
DCCALDATE	LABEL	8/19/2019	DC Calibration Date
ACCALDATE	LABEL	8/19/2019	AC Calibration Date
THERMOSELECT	IQUANT	1	Thermo Select
FRAMEWORKVERSION	QUANT	6.33	Framework Version
INSTRUMENTVERSION	LABEL	3.50	Instrument Version
ZCURVE	TABLE
	Pt	Time	Freq	Zreal	Zimag	Zsig	Zmod	Zphz	Idc	Vdc	IERange
	#	s	Hz	ohm	ohm	V	ohm	°	A	V	#
	0	2	1000078	2397.498	-1466.796	1	2810.603	-31.4584	1.073733E-006	0.0175951	8
	1	3	794390.6	2658.426	-1357.541	1	2984.987	-27.05139	4.384857E-006	0.0170654	8
	2	5	630984.4	2879.168	-1219.577	1	3126.816	-22.95686	1.555988E-007	0.017588	8
	3	6	501234.4	3080.66	-1094.677	1	3269.371	-19.56209	-6.487152E-007	0.0179135	8
	4	7	398109.4	3215.732	-953.508	1	3354.119	-16.51579	4.816367E-006	0.0167429	8
	5	9	316265.6	3333.426	-814.8051	1	3431.564	-13.73574	3.448172E-006	0.0169176	8
	6	10	251203.1	3416.506	-704.9481	1	3488.476	-11.65856	1.247185E-006	0.0171464	8
	7	12	199546.9	3488.538	-607.5223	1	3541.042	-9.87888	-5.798104E-007	0.0177766	8
	8	13	158578.1	3524.393	-527.967	1	3563.719	-8.519764	-1.989274E-006	0.0178266	8
	9	15	125953.1	3594.559	-433.866	1	3620.648	-6.88235	3.965539E-007	0.0167945	7
	10	16	100078.1	3621.573	-387.8801	1	3642.285	-6.113227	-4.200026E-008	0.017612	7
	11	17	79453.13	3650.882	-364.0602	1	3668.989	-5.69462	-4.35958E-008	0.017604	7
	12	19	63140.62	3680.924	-351.7386	1	3697.691	-5.458448	-9.111368E-009	0.0175765	7
	13	20	50203.12	3708.713	-345.3112	1	3724.754	-5.319365	-8.96297E-009	0.0174984	7
	14	21	39890.62	3739.942	-349.8173	1	3756.267	-5.34364	-9.00358E-009	0.0174997	7
	15	23	31640.63	3771.49	-361.2483	1	3788.751	-5.471327	7.858024E-008	0.0173786	7
	16	24	25171.88	3805.281	-380.6684	1	3824.274	-5.712685	-4.256599E-008	0.0175716	7
	17	26	20015.62	3842.174	-410.0516	1	3863.993	-6.091768	-7.572123E-009	0.0175676	7
	18	27	15890.62	3881.985	-444.6323	1	3907.366	-6.534032	-9.739634E-009	0.0174995	7
	19	28	12609.37	3926.808	-490.9352	1	3957.378	-7.126226	-6.0094E-009	0.0175682	7
	20	30	10078.13	3973.295	-544.5026	1	4010.431	-7.803238	-6.813506E-008	0.0176504	7
	21	31	8015.625	4024.674	-610.1486	1	4070.661	-8.620512	4.141424E-008	0.0174009	7
	22	32	6328.125	4081.801	-690.9404	1	4139.867	-9.60758	-3.748869E-008	0.0175572	7
	23	34	5015.625	4142.544	-786.5919	1	4216.562	-10.75141	3.409449E-008	0.0175007	7
	24	35	3984.375	4208.142	-902.5317	1	4303.838	-12.105	-6.735216E-008	0.0176424	7
	25	36	3170.956	4275.778	-1040.452	1	4400.547	-13.67634	-9.609905E-009	0.0174896	7
	26	38	2527.573	4350.22	-1208.074	1	4514.848	-15.52019	6.896955E-008	0.0174163	7
	27	39	1976.103	4437.878	-1431.198	1	4662.949	-17.8743	-1.281661E-008	0.0175805	7
	28	41	1577.524	4528.83	-1681.246	1	4830.827	-20.36653	-4.124547E-008	0.0175921	7
	29	42	1265.625	4622.419	-1972.611	1	5025.729	-23.1103	-7.364296E-009	0.0174944	7
	30	43	998.264	4737.605	-2371.639	1	5298.072	-26.59249	-6.361033E-009	0.017571	7
	31	45	796.875	4862.325	-2826.971	1	5624.408	-30.17386	4.295974E-008	0.0174043	7
	32	46	627.7902	5009.069	-3425.614	1	6068.411	-34.36753	-3.767779E-008	0.0175671	7
	33	47	505.5147	5160.548	-4092.105	1	6586.09	-38.41298	-2.422661E-008	0.0175357	7
	34	49	397.9953	5360.86	-4996.15	1	7328.051	-42.98323	2.857194E-009	0.0175655	7
	35	50	315.5048	5590.623	-6085.914	1	8263.983	-47.42889	4.112069E-009	0.0175589	7
	36	51	252.4038	5858.155	-7374.747	1	9418.327	-51.53801	3.079265E-009	0.0175672	7
	37	53	198.6229	6217.663	-9079.53	1	11004.42	-55.59666	5.642159E-010	0.0175036	6
	38	54	158.3615	6642.183	-11066.86	1	12907.13	-59.02837	4.831994E-010	0.0175026	6
	39	56	125.558	7201.334	-13563.48	1	15356.66	-62.03457	9.465997E-010	0.0175	6
	40	57	100.4464	7888.177	-16485.05	1	18275.13	-64.42866	1.566099E-010	0.0175058	6
	41	58	79.00281	8864.482	-20360.92	1	22206.9	-66.47326	-7.359539E-011	0.0175023	6
	42	60	63.3446	9997.97	-24501.82	1	26463.15	-67.80208	5.867183E-010	0.0175006	6
	43	61	49.86702	11719.8	-30324.43	1	32510.38	-68.86945	2.286224E-010	0.0174926	6
	44	63	39.72458	13684.73	-36773.55	1	39237.3	-69.58801	8.158089E-010	0.0175028	6
	45	64	31.6723	16221.96	-44487.47	1	47352.79	-69.96606	8.019649E-010	0.0175018	6
	46	65	24.93351	19854.9	-54224.76	1	57745.49	-69.88933	1.210331E-010	0.0174998	6
	47	67	19.86229	24274.69	-65213.8	1	69585.2	-69.58311	1.467845E-009	0.0175144	6
	48	68	15.83615	29844.78	-77671.12	1	83207.65	-68.98095	3.584621E-010	0.0175065	6
	49	69	12.40079	38115.01	-94366.03	1	101772.8	-68.00592	1.947154E-009	0.0174985	6
	50	71	9.93114	46593.16	-111685.7	1	121014.9	-67.35502	-1.210431E-011	0.0175099	5
	51	72	7.944915	57853.38	-131289	1	143470.6	-66.219	7.505288E-010	0.017504	5
	52	74	6.317385	71786.17	-154490.3	1	170354.1	-65.07738	5.741741E-011	0.0175191	5
	53	76	5.008013	89336.29	-181255.8	1	202075.9	-63.76251	3.151004E-010	0.0175068	5
	54	79	3.945707	110897.8	-212155.5	1	239391.4	-62.40305	3.402106E-010	0.0175109	5
	55	81	3.158693	135426	-244921.4	1	279869.1	-61.06019	-3.136206E-010	0.0175018	5
	56	85	2.504006	165531.7	-282187.1	1	327154.8	-59.60399	6.141683E-010	0.0175091	5
	57	87	1.998082	199884.9	-322285.9	1	379238.9	-58.1924	1.593818E-010	0.0175455	5
	58	90	1.584686	239857.5	-365598.9	1	437257.6	-56.73243	1.129603E-010	0.0174764	5
	59	94	1.266892	285312.2	-413998.5	1	502790	-55.42685	1.537257E-010	0.0175362	5
	60	98	0.999041	339220.5	-469515.8	1	579237.1	-54.15226	-3.302303E-010	0.0174681	5
