EXPLAIN
TAG	EISPOT
TITLE	LABEL	Potentiostatic EIS	Test &Identifier
DATE	LABEL	11/27/2019	Date
TIME	LABEL	11:58:45	Time
NOTES	NOTES	3	&Notes...
	
	
	
PSTAT	PSTAT	REF600-11020	Potentiostat
VDC	POTEN	0.00000E+000	T	DC &Voltage (V)
FREQINIT	QUANT	1.00000E+006	Initial Fre&q. (Hz)
FREQFINAL	QUANT	1.00000E+000	Final Fre&q. (Hz)
PTSPERDEC	QUANT	1.00000E+001	Points/&decade
VAC	QUANT	2.50000E+001	AC &Voltage (mV rms)
AREA	QUANT	1.00000E-002	&Area (cm^2)
CONDIT	TWOPARAM	T	5.00000E+000	0.00000E+000	Conditionin&g	Time(s)	E(V)
DELAY	TWOPARAM	T	5.00000E+000	0.00000E+000	Init. De&lay	Time(s)	Stab.(mV/s)
SPEED	SELECTOR	0	&Optimize for:
ZGUESS	QUANT	1.00000E+005	E&stimated Z (ohms)
OCVCURVE	TABLE	19
	Pt	T	Vf	Vm	Ach	Over
	#	s	V vs. Ref.	V	V	bits
	0	0.258333	6.88114E-004	6.88114E-004	5.51499E-004	...........
	1	0.516667	6.81069E-004	3.19314E-004	5.52333E-004	...........
	2	0.775	6.37900E-004	-2.53384E-005	5.56633E-004	...........
	3	1.03333	5.16428E-004	-3.38510E-004	5.52799E-004	...........
	4	1.29167	3.01208E-004	-6.36980E-004	5.59166E-004	...........
	5	1.55	1.90866E-005	-9.12606E-004	5.61666E-004	...........
	6	1.80833	-2.88196E-004	-1.18051E-003	5.53366E-004	...........
	7	2.06667	-5.91311E-004	-1.42607E-003	5.62766E-004	...........
	8	2.325	-8.78179E-004	-1.67064E-003	5.57933E-004	...........
	9	2.58333	-1.14716E-003	-1.88610E-003	5.59366E-004	...........
	10	2.84167	-1.40021E-003	-2.11526E-003	5.66599E-004	...........
	11	3.1	-1.63980E-003	-2.31478E-003	5.60599E-004	...........
	12	3.35833	-1.86829E-003	-2.53053E-003	5.53433E-004	...........
	13	3.61667	-2.08762E-003	-2.71266E-003	5.56033E-004	...........
	14	3.875	-2.29894E-003	-2.91668E-003	5.59899E-004	...........
	15	4.13333	-2.50289E-003	-3.08777E-003	5.57799E-004	...........
	16	4.39167	-2.70000E-003	-3.27816E-003	5.64699E-004	...........
	17	4.65	-2.89075E-003	-3.44005E-003	5.51232E-004	...........
	18	4.90833	-3.07549E-003	-3.61787E-003	5.55766E-004	...........
EOC	QUANT	-0.0030755	Open Circuit (V)
PSTATMODEL	IQUANT	4	Pstat Model
PSTATSECTION	LABEL	REF600-11020	Pstat Section
PSTATSERIALNO	LABEL	11020	Pstat Serial Number
CTRLMODE	IQUANT	1	Control Mode
IESTAB	IQUANT	0	I/E Stability
CASPEED	IQUANT	1	Control Amp Speed
CONVENTION	IQUANT	1	Current Convention
ICHRANGE	IQUANT	2	Ich Range
ICHRANGEMODE	TOGGLE	F	Ich Auto Range
ICHOFFSETENABLE	TOGGLE	T	Ich Offset Enable
ICHOFFSET	QUANT	0	Ich Offset (V)
ICHFILTER	IQUANT	3	Ich Filter
VCHRANGE	IQUANT	2	Vch Range
VCHRANGEMODE	TOGGLE	F	Vch Auto Range
VCHOFFSETENABLE	TOGGLE	T	Vch Offset Enable
VCHOFFSET	QUANT	0	Vch Offset (V)
VCHFILTER	IQUANT	3	Vch Filter
ACHRANGE	IQUANT	2	Ach Range
ACHOFFSETENABLE	TOGGLE	F	Ach Offset Enable
ACHOFFSET	QUANT	0	Ach Offset (V)
ACHFILTER	IQUANT	3	Ach Filter
IERANGELOWERLIMIT	IQUANT	1	I/E Range Lower Limit
IERANGEMODE	TOGGLE	F	I/E AutoRange
IERANGE	IQUANT	4	I/E Range
POSFEEDENABLE	TOGGLE	F	Positive Feedback IR Comp
POSFEEDRESISTANCE	QUANT	0	Positive Feedback Resistance (ohm)
ACHSELECT	IQUANT	0	Ach Select
CABLEID	IQUANT	14	Cable ID
DCCALDATE	LABEL	8/19/2019	DC Calibration Date
ACCALDATE	LABEL	8/19/2019	AC Calibration Date
THERMOSELECT	IQUANT	1	Thermo Select
FRAMEWORKVERSION	QUANT	6.33	Framework Version
INSTRUMENTVERSION	LABEL	3.50	Instrument Version
ZCURVE	TABLE
	Pt	Time	Freq	Zreal	Zimag	Zsig	Zmod	Zphz	Idc	Vdc	IERange
	#	s	Hz	ohm	ohm	V	ohm	°	A	V	#
	0	2	1000078	1967.48	-1089.604	1	2249.048	-28.97798	2.829287E-006	-0.0013423	8
	1	2	794390.6	2147.009	-1000.566	1	2368.709	-24.98683	-1.284344E-006	-0.0013999	8
	2	2	630984.4	2306.009	-902.8563	1	2476.454	-21.3815	-1.420693E-006	-0.0014742	8
	3	3	501234.4	2435.545	-800.0775	1	2563.592	-18.18537	6.149869E-006	-0.0024929	8
	4	3	398109.4	2541.318	-702.1526	1	2636.534	-15.44519	-1.818761E-006	-0.0010238	8
	5	3	316265.6	2617.603	-611.5071	1	2688.082	-13.14924	1.801315E-006	-0.0011689	8
	6	3	251203.1	2676.264	-531.2689	1	2728.486	-11.2279	6.793752E-007	-0.0011144	8
	7	4	199546.9	2723.859	-478.1549	1	2765.509	-9.95644	1.646598E-006	-0.0011935	8
	8	4	158578.1	2772.393	-451.2826	1	2808.882	-9.245364	-6.045663E-007	-0.0017144	8
	9	4	125953.1	2816.521	-359.6556	1	2839.391	-7.277002	5.226885E-007	0.0003034	7
	10	5	100078.1	2841.683	-334.6931	1	2861.325	-6.717343	5.245284E-007	-0.0013484	7
	11	5	79453.13	2871.873	-330.2241	1	2890.796	-6.559383	-9.169071E-007	-0.0001274	7
	12	5	63140.62	2898.781	-328.5441	1	2917.34	-6.466235	-2.292742E-007	-0.0003701	7
	13	6	50203.12	2935.493	-339.4876	1	2955.059	-6.596907	6.452028E-007	-0.0029818	7
	14	6	39890.62	2965.094	-351.1623	1	2985.816	-6.754197	3.970189E-007	-0.002893	7
	15	6	31640.63	3002.813	-370.9778	1	3025.642	-7.04283	8.110644E-007	-0.0029194	7
	16	7	25171.88	3036.346	-399.7516	1	3062.548	-7.500167	-9.191526E-007	-0.000133	7
	17	7	20015.62	3077.094	-436.3503	1	3107.878	-8.071072	7.862401E-008	-0.0007226	7
	18	7	15890.62	3122.688	-482.3491	1	3159.722	-8.780851	-6.217808E-007	-0.0016265	7
	19	8	12609.37	3170.823	-533.8121	1	3215.443	-9.55621	5.238847E-007	-0.0013557	7
	20	8	10078.13	3229.318	-598.1153	1	3284.241	-10.49308	9.014158E-007	-0.0027393	7
	21	8	8015.625	3284.595	-673.7734	1	3352.989	-11.59235	-8.885797E-007	-0.0010592	7
	22	9	6328.125	3352.423	-760.8915	1	3437.688	-12.78764	-6.205869E-007	-0.0016292	7
	23	9	5015.625	3426.609	-866.3286	1	3534.427	-14.18842	9.037349E-007	-0.002739	7
	24	9	3984.375	3506.767	-992.224	1	3644.438	-15.79862	8.176528E-007	-0.0029241	7
	25	9	3170.956	3584.872	-1137.261	1	3760.94	-17.60105	-2.658042E-007	-0.0022158	7
	26	10	2527.573	3671.333	-1312.642	1	3898.938	-19.67391	6.379971E-007	-0.0029906	7
	27	10	1976.103	3772.454	-1541.842	1	4075.376	-22.23036	3.522487E-007	-0.0010955	7
	28	10	1577.524	3868.649	-1802.354	1	4267.895	-24.98021	-2.285366E-007	-0.0003839	7
	29	11	1265.625	3970.78	-2112.968	1	4497.969	-28.01875	-2.288116E-007	-0.0003889	7
	30	11	998.264	4082.617	-2526.188	1	4800.978	-31.74785	8.570726E-007	-0.0021364	7
	31	11	796.875	4202.24	-3008.755	1	5168.31	-35.60222	6.423008E-007	-0.0029934	7
	32	12	627.7902	4358.542	-3641.881	1	5679.805	-39.88123	-1.029278E-006	-0.0002858	7
	33	12	505.5147	4517.349	-4349.544	1	6270.963	-43.91582	-9.221937E-007	-0.0001433	7
	34	12	397.9953	4707.315	-5327.626	1	7109.319	-48.53724	2.10779E-009	-0.001488	7
	35	13	315.5048	4938.023	-6504.654	1	8166.676	-52.79597	1.650022E-009	-0.0014874	7
	36	13	252.4038	5210.345	-7898.173	1	9461.968	-56.58757	6.030823E-009	-0.0014905	7
	37	13	198.6229	5579.647	-9750.77	1	11234.32	-60.22067	7.120809E-010	-0.0015518	6
	38	14	158.3615	6027.513	-11906.89	1	13345.6	-63.15054	2.003046E-009	-0.0015586	6
	39	14	125.558	6614.432	-14620.41	1	16047.03	-65.65749	1.125615E-009	-0.0015514	6
	40	14	100.4464	7346.412	-17792.67	1	19249.64	-67.56477	7.040383E-012	-0.0015607	6
	41	15	79.00281	8413.735	-21954.98	1	23511.95	-69.03183	3.350412E-010	-0.0015533	6
	42	15	63.3446	9577.45	-26921.15	1	28574.04	-70.41652	1.22117E-009	-0.0015609	6
	43	15	49.86702	11332.38	-32958.69	1	34852.52	-71.02518	7.329836E-010	-0.0015628	6
	44	16	39.72458	13726.87	-39891.71	1	42187.38	-71.01148	8.117059E-010	-0.0015481	6
	45	16	31.6723	16731.46	-48122.63	1	50948.3	-70.82827	1.35293E-009	-0.0015596	6
	46	16	24.93351	20651.32	-58720.02	1	62245.62	-70.62366	-4.049736E-010	-0.0015603	6
	47	17	19.86229	25622.38	-70635.3	1	75138.88	-70.06217	-9.981932E-010	-0.0015568	6
	48	17	15.83615	32805.27	-84466.81	1	90613.62	-68.7748	3.1973E-009	-0.0015571	6
	49	17	12.40079	41373.75	-101575.1	1	109678.1	-67.83786	-6.668782E-010	-0.0015481	5
	50	18	9.93114	51310.05	-119390.4	1	129949.2	-66.74358	1.496246E-009	-0.0015506	5
	51	18	7.944915	63732.93	-139729.2	1	153577.8	-65.48145	6.506505E-010	-0.0015487	5
	52	19	6.317385	79242.09	-163179.9	1	181402.9	-64.09824	6.630437E-010	-0.001563	5
	53	20	5.008013	98293.6	-189567	1	213535.2	-62.59251	8.153718E-010	-0.0015531	5
	54	21	3.945707	121400.6	-220290.1	1	251527	-61.14111	1.472382E-010	-0.0015689	5
	55	22	3.158693	146037.8	-251278.7	1	290633.8	-59.83577	4.838019E-010	-0.0015701	5
	56	24	2.504006	175360.4	-287234.1	1	336533.3	-58.59536	7.132885E-010	-0.0015635	5
	57	25	1.998082	206550.5	-326082.8	1	385996.3	-57.64862	4.206382E-010	-0.0016012	5
	58	27	1.584686	242020.9	-372557.4	1	444266.9	-56.99142	3.350341E-010	-0.001608	5
	59	29	1.266892	277822.9	-422464.9	1	505630.5	-56.67014	2.899637E-010	-0.0015789	5
	60	31	0.999041	322240.8	-485071.9	1	582352	-56.4033	4.488545E-010	-0.0015463	5
