EXPLAIN
TAG	EISPOT
TITLE	LABEL	Potentiostatic EIS	Test &Identifier
DATE	LABEL	10/18/2019	Date
TIME	LABEL	10:06:02	Time
NOTES	NOTES	1	&Notes...
	
PSTAT	PSTAT	REF600-11020	Potentiostat
VDC	POTEN	0.00000E+000	T	DC &Voltage (V)
FREQINIT	QUANT	1.00000E+006	Initial Fre&q. (Hz)
FREQFINAL	QUANT	1.00000E+000	Final Fre&q. (Hz)
PTSPERDEC	QUANT	1.00000E+001	Points/&decade
VAC	QUANT	2.50000E+001	AC &Voltage (mV rms)
AREA	QUANT	1.00000E-002	&Area (cm^2)
CONDIT	TWOPARAM	T	5.00000E+000	0.00000E+000	Conditionin&g	Time(s)	E(V)
DELAY	TWOPARAM	T	5.00000E+000	0.00000E+000	Init. De&lay	Time(s)	Stab.(mV/s)
SPEED	SELECTOR	0	&Optimize for:
ZGUESS	QUANT	1.00000E+005	E&stimated Z (ohms)
OCVCURVE	TABLE	19
	Pt	T	Vf	Vm	Ach	Over
	#	s	V vs. Ref.	V	V	bits
	0	0.258333	5.29056E-003	5.29056E-003	5.24366E-004	...........
	1	0.516667	5.27938E-003	4.70523E-003	5.23233E-004	...........
	2	0.775	5.21736E-003	4.49812E-003	5.27966E-004	...........
	3	1.03333	5.06246E-003	4.21986E-003	5.29566E-004	...........
	4	1.29167	4.81862E-003	3.80430E-003	5.24600E-004	...........
	5	1.55	4.51800E-003	3.29876E-003	5.26933E-004	...........
	6	1.80833	4.17396E-003	2.91602E-003	5.23200E-004	...........
	7	2.06667	3.78908E-003	2.55218E-003	5.24766E-004	...........
	8	2.325	3.39366E-003	2.80967E-003	5.23500E-004	...........
	9	2.58333	3.07296E-003	3.57626E-003	5.26233E-004	...........
	10	2.84167	2.96678E-003	4.91351E-003	5.25533E-004	...........
	11	3.1	3.20948E-003	5.88759E-003	5.31633E-004	...........
	12	3.35833	3.81309E-003	5.97819E-003	5.25500E-004	...........
	13	3.61667	4.59579E-003	5.86719E-003	5.30433E-004	...........
	14	3.875	5.27937E-003	5.73098E-003	5.30900E-004	...........
	15	4.13333	5.68445E-003	5.58952E-003	5.25766E-004	...........
	16	4.39167	5.80908E-003	5.37614E-003	5.25600E-004	...........
	17	4.65	5.74721E-003	5.12740E-003	5.25233E-004	...........
	18	4.90833	5.58593E-003	4.81522E-003	5.31100E-004	...........
EOC	QUANT	0.0055859	Open Circuit (V)
PSTATMODEL	IQUANT	4	Pstat Model
PSTATSECTION	LABEL	REF600-11020	Pstat Section
PSTATSERIALNO	LABEL	11020	Pstat Serial Number
CTRLMODE	IQUANT	1	Control Mode
IESTAB	IQUANT	0	I/E Stability
CASPEED	IQUANT	1	Control Amp Speed
CONVENTION	IQUANT	1	Current Convention
ICHRANGE	IQUANT	2	Ich Range
ICHRANGEMODE	TOGGLE	F	Ich Auto Range
ICHOFFSETENABLE	TOGGLE	T	Ich Offset Enable
ICHOFFSET	QUANT	0	Ich Offset (V)
ICHFILTER	IQUANT	3	Ich Filter
VCHRANGE	IQUANT	2	Vch Range
VCHRANGEMODE	TOGGLE	F	Vch Auto Range
VCHOFFSETENABLE	TOGGLE	T	Vch Offset Enable
VCHOFFSET	QUANT	0	Vch Offset (V)
VCHFILTER	IQUANT	3	Vch Filter
ACHRANGE	IQUANT	2	Ach Range
ACHOFFSETENABLE	TOGGLE	F	Ach Offset Enable
ACHOFFSET	QUANT	0	Ach Offset (V)
ACHFILTER	IQUANT	3	Ach Filter
IERANGELOWERLIMIT	IQUANT	1	I/E Range Lower Limit
IERANGEMODE	TOGGLE	F	I/E AutoRange
IERANGE	IQUANT	5	I/E Range
POSFEEDENABLE	TOGGLE	F	Positive Feedback IR Comp
POSFEEDRESISTANCE	QUANT	0	Positive Feedback Resistance (ohm)
ACHSELECT	IQUANT	0	Ach Select
CABLEID	IQUANT	14	Cable ID
DCCALDATE	LABEL	8/19/2019	DC Calibration Date
ACCALDATE	LABEL	8/19/2019	AC Calibration Date
THERMOSELECT	IQUANT	1	Thermo Select
FRAMEWORKVERSION	QUANT	6.33	Framework Version
INSTRUMENTVERSION	LABEL	3.50	Instrument Version
ZCURVE	TABLE
	Pt	Time	Freq	Zreal	Zimag	Zsig	Zmod	Zphz	Idc	Vdc	IERange
	#	s	Hz	ohm	ohm	V	ohm	°	A	V	#
	0	1	1000078	2727.44	-1958.505	1	3357.778	-35.68117	-5.826855E-006	0.0082121	8
	1	2	794390.6	3118.603	-1897.457	1	3650.483	-31.31766	2.030625E-007	0.0078267	8
	2	2	630984.4	3473.233	-1772.127	1	3899.202	-27.03177	-1.753854E-006	0.0076604	8
	3	2	501234.4	3786.1	-1618.745	1	4117.631	-23.1491	6.499783E-007	0.0071895	8
	4	3	398109.4	4026.12	-1450.368	1	4279.394	-19.81103	2.058617E-006	0.0066525	8
	5	3	316265.6	4228.422	-1251.396	1	4409.71	-16.48605	5.719338E-007	0.0068932	8
	6	3	251203.1	4384.239	-1089.281	1	4517.531	-13.95284	-3.788736E-006	0.0077758	8
	7	3	199546.9	4497.381	-937.4924	1	4594.054	-11.77486	4.35847E-007	0.0071046	8
	8	4	158578.1	4566.75	-781.7215	1	4633.174	-9.71356	3.556363E-007	0.0071118	8
	9	4	125953.1	4665.378	-648.132	1	4710.183	-7.909125	9.403879E-007	0.0048577	7
	10	4	100078.1	4726.278	-571.1373	1	4760.662	-6.890379	-7.451407E-008	0.0073075	7
	11	5	79453.13	4773.579	-523.5685	1	4802.206	-6.25921	-6.894926E-008	0.0071944	7
	12	5	63140.62	4814.886	-490.761	1	4839.832	-5.819819	5.797585E-008	0.006985	7
	13	5	50203.12	4852.399	-470.0395	1	4875.111	-5.532834	-1.984099E-008	0.0071062	7
	14	6	39890.62	4891.413	-460.7592	1	4913.066	-5.381245	1.136012E-008	0.0069873	7
	15	6	31640.63	4928.635	-461.3961	1	4950.185	-5.34818	-7.389835E-008	0.0072948	7
	16	6	25171.88	4966.118	-477.1159	1	4988.984	-5.487805	-5.195254E-009	0.0070395	7
	17	7	20015.62	5013.427	-503.755	1	5038.673	-5.737887	-5.250326E-008	0.0071854	7
	18	7	15890.62	5044.813	-543.8286	1	5074.041	-6.1527	4.580858E-008	0.0070124	7
	19	7	12609.37	5087.122	-601.8951	1	5122.605	-6.747718	-5.344087E-008	0.0071863	7
	20	8	10078.13	5130.5	-672.5784	1	5174.398	-7.46855	1.213423E-007	0.0068865	7
	21	8	8015.625	5177.792	-753.6187	1	5232.348	-8.281153	-4.776433E-009	0.0070293	7
	22	8	6328.125	5225.973	-881.1092	1	5299.73	-9.57018	-5.079522E-008	0.0071885	7
	23	9	5015.625	5281.081	-1030.106	1	5380.607	-11.03729	-7.727383E-008	0.0071663	7
	24	9	3984.375	5337.267	-1217.536	1	5474.378	-12.85041	-1.86299E-008	0.0070985	7
	25	9	3170.956	5405.413	-1436.596	1	5593.058	-14.88344	-7.574705E-008	0.0072875	7
	26	9	2527.573	5480.491	-1711.2	1	5741.427	-17.34018	-7.360458E-008	0.0072893	7
	27	10	1976.103	5572.235	-2083.937	1	5949.168	-20.50508	1.213017E-007	0.0068841	7
	28	10	1577.524	5676.655	-2535.936	1	6217.345	-24.07178	-1.815173E-008	0.0070966	7
	29	11	1265.625	5783.32	-3006.637	1	6518.179	-27.46905	-6.655641E-009	0.0070676	7
	30	11	998.264	5923.613	-3665.277	1	6965.877	-31.74744	1.219839E-007	0.0068796	7
	31	11	796.875	6079.031	-4438.026	1	7526.666	-36.13149	-7.146502E-010	0.0070329	7
	32	12	627.7902	6285.753	-5452.209	1	8320.895	-40.9381	-7.043231E-009	0.0070626	7
	33	12	505.5147	6510.405	-6586.47	1	9261.046	-45.33276	-6.803459E-009	0.007108	7
	34	12	397.9953	6827.972	-8120.441	1	10609.56	-49.94162	5.822601E-010	0.0070218	6
	35	13	315.5048	7210.702	-9964.13	1	12299.52	-54.10802	7.947776E-011	0.00702	6
	36	13	252.4038	7681.349	-12142.05	1	14367.76	-57.68158	1.672993E-009	0.0070165	6
	37	13	198.6229	8338.368	-15013.9	1	17173.98	-60.95322	2.09128E-010	0.0070191	6
	38	14	158.3615	9164.592	-18352.34	1	20513.37	-63.46388	1.401184E-009	0.0070183	6
	39	14	125.558	10284.43	-22508.65	1	24746.9	-65.44386	8.305865E-010	0.0070186	6
	40	14	100.4464	11742.75	-27281.84	1	29701.7	-66.71181	-9.420074E-010	0.0070154	6
	41	15	79.00281	13944.44	-33495.16	1	36281.85	-67.39745	7.428815E-010	0.007016	6
	42	15	63.3446	16421.44	-41345.1	1	44486.86	-68.33802	-6.003102E-010	0.0070071	6
	43	15	49.86702	20201.13	-50026.36	1	53951.11	-68.01067	-1.048101E-009	0.0070087	6
	44	16	39.72458	25231.63	-59212.82	1	64364.54	-66.92029	4.182947E-010	0.0070159	6
	45	16	31.6723	31337.03	-69962.41	1	76659.95	-65.8718	-1.913505E-010	0.0070119	6
	46	16	24.93351	40002.16	-83607.94	1	92684.73	-64.43125	-1.118004E-010	0.0070085	6
	47	17	19.86229	50404.23	-97409.2	1	109677.5	-62.64078	1.926843E-010	0.0070187	5
	48	17	15.83615	64061.76	-114078.2	1	130834.8	-60.68318	2.385457E-009	0.0070168	5
	49	17	12.40079	80211.96	-129811.9	1	152594.5	-58.2877	-1.108409E-009	0.0070192	5
	50	18	9.93114	93985.02	-144812.3	1	172637.8	-57.01592	3.935455E-010	0.00702	5
	51	18	7.944915	111230	-161881.7	1	196412.3	-55.50678	-5.956777E-010	0.0070264	5
	52	19	6.317385	130046	-181689.9	1	223435	-54.40652	-5.181169E-010	0.0070315	5
	53	20	5.008013	150690.1	-203872.4	1	253518.2	-53.53045	-1.925861E-010	0.00702	5
	54	21	3.945707	171911	-230908.9	1	287875.5	-53.33242	-1.769713E-010	0.0070113	5
	55	22	3.158693	193324.4	-260412.5	1	324328.5	-53.41064	1.436133E-010	0.007012	5
	56	24	2.504006	217133.2	-297756.4	1	368518.3	-53.89931	1.019859E-010	0.0070172	5
	57	25	1.998082	243039	-341408.2	1	419079.3	-54.55399	-1.205301E-010	0.0069693	5
	58	27	1.584686	271369.3	-395704.8	1	479816.3	-55.55817	-4.392928E-011	0.0069952	5
	59	29	1.266892	303921.7	-457710	1	549424.1	-56.41564	3.367751E-011	0.0070288	5
	60	31	0.999041	341679.7	-536789.5	1	636308.1	-57.52225	-1.918284E-010	0.0070492	5
