EXPLAIN
TAG	EISPOT
TITLE	LABEL	Potentiostatic EIS	Test &Identifier
DATE	LABEL	10/22/2019	Date
TIME	LABEL	9:49:44	Time
NOTES	NOTES	1	&Notes...
	
PSTAT	PSTAT	REF600-11020	Potentiostat
VDC	POTEN	0.00000E+000	T	DC &Voltage (V)
FREQINIT	QUANT	1.00000E+006	Initial Fre&q. (Hz)
FREQFINAL	QUANT	1.00000E+000	Final Fre&q. (Hz)
PTSPERDEC	QUANT	1.00000E+001	Points/&decade
VAC	QUANT	2.50000E+001	AC &Voltage (mV rms)
AREA	QUANT	1.00000E-002	&Area (cm^2)
CONDIT	TWOPARAM	T	5.00000E+000	0.00000E+000	Conditionin&g	Time(s)	E(V)
DELAY	TWOPARAM	T	5.00000E+000	0.00000E+000	Init. De&lay	Time(s)	Stab.(mV/s)
SPEED	SELECTOR	1	&Optimize for:
ZGUESS	QUANT	1.00000E+005	E&stimated Z (ohms)
OCVCURVE	TABLE	19
	Pt	T	Vf	Vm	Ach	Over
	#	s	V vs. Ref.	V	V	bits
	0	0.258333	3.56393E-003	3.56393E-003	5.54266E-004	...........
	1	0.516667	3.55998E-003	3.35696E-003	5.56366E-004	...........
	2	0.775	3.53687E-003	3.22208E-003	5.59099E-004	...........
	3	1.03333	3.47599E-003	3.12405E-003	5.54699E-004	...........
	4	1.29167	3.37322E-003	2.82000E-003	5.55899E-004	...........
	5	1.55	3.23480E-003	2.66835E-003	5.58199E-004	...........
	6	1.80833	3.06757E-003	2.53584E-003	5.61032E-004	...........
	7	2.06667	2.88801E-003	2.47855E-003	5.51599E-004	...........
	8	2.325	2.72180E-003	2.36757E-003	5.55499E-004	...........
	9	2.58333	2.58394E-003	2.24674E-003	5.58332E-004	...........
	10	2.84167	2.47057E-003	2.21704E-003	5.57132E-004	...........
	11	3.1	2.37295E-003	2.14964E-003	5.57933E-004	...........
	12	3.35833	2.28993E-003	2.14947E-003	5.57499E-004	...........
	13	3.61667	2.22350E-003	2.05326E-003	5.54999E-004	...........
	14	3.875	2.16973E-003	2.00598E-003	5.52599E-004	...........
	15	4.13333	2.11875E-003	1.91421E-003	5.56266E-004	...........
	16	4.39167	2.06297E-003	1.89413E-003	5.55633E-004	...........
	17	4.65	2.00371E-003	1.86885E-003	5.60399E-004	...........
	18	4.90833	1.94872E-003	1.82842E-003	5.55266E-004	...........
EOC	QUANT	0.0019487	Open Circuit (V)
PSTATMODEL	IQUANT	4	Pstat Model
PSTATSECTION	LABEL	REF600-11020	Pstat Section
PSTATSERIALNO	LABEL	11020	Pstat Serial Number
CTRLMODE	IQUANT	1	Control Mode
IESTAB	IQUANT	0	I/E Stability
CASPEED	IQUANT	1	Control Amp Speed
CONVENTION	IQUANT	1	Current Convention
ICHRANGE	IQUANT	2	Ich Range
ICHRANGEMODE	TOGGLE	F	Ich Auto Range
ICHOFFSETENABLE	TOGGLE	T	Ich Offset Enable
ICHOFFSET	QUANT	0	Ich Offset (V)
ICHFILTER	IQUANT	3	Ich Filter
VCHRANGE	IQUANT	2	Vch Range
VCHRANGEMODE	TOGGLE	F	Vch Auto Range
VCHOFFSETENABLE	TOGGLE	T	Vch Offset Enable
VCHOFFSET	QUANT	0	Vch Offset (V)
VCHFILTER	IQUANT	3	Vch Filter
ACHRANGE	IQUANT	2	Ach Range
ACHOFFSETENABLE	TOGGLE	F	Ach Offset Enable
ACHOFFSET	QUANT	0	Ach Offset (V)
ACHFILTER	IQUANT	3	Ach Filter
IERANGELOWERLIMIT	IQUANT	1	I/E Range Lower Limit
IERANGEMODE	TOGGLE	F	I/E AutoRange
IERANGE	IQUANT	4	I/E Range
POSFEEDENABLE	TOGGLE	F	Positive Feedback IR Comp
POSFEEDRESISTANCE	QUANT	0	Positive Feedback Resistance (ohm)
ACHSELECT	IQUANT	0	Ach Select
CABLEID	IQUANT	14	Cable ID
DCCALDATE	LABEL	8/19/2019	DC Calibration Date
ACCALDATE	LABEL	8/19/2019	AC Calibration Date
THERMOSELECT	IQUANT	1	Thermo Select
FRAMEWORKVERSION	QUANT	6.33	Framework Version
INSTRUMENTVERSION	LABEL	3.50	Instrument Version
ZCURVE	TABLE
	Pt	Time	Freq	Zreal	Zimag	Zsig	Zmod	Zphz	Idc	Vdc	IERange
	#	s	Hz	ohm	ohm	V	ohm	°	A	V	#
	0	2	1000078	2557.764	-1731.413	1	3088.68	-34.09504	4.689347E-006	0.0033166	8
	1	4	794390.6	2888.617	-1646.979	1	3325.154	-29.69013	-5.662251E-006	0.0045144	8
	2	5	630984.4	3186.443	-1521.873	1	3531.22	-25.52954	-2.275533E-007	0.004078	8
	3	7	501234.4	3428.551	-1403.509	1	3704.699	-22.26219	-3.310065E-006	0.0041625	8
	4	9	398109.4	3649.215	-1257.957	1	3859.952	-19.02009	2.509161E-007	0.0037085	8
	5	10	316265.6	3814.914	-1112.882	1	3973.924	-16.26296	-2.609546E-007	0.0035518	8
	6	11	251203.1	3956.43	-988.424	1	4078.029	-14.02693	-1.895159E-007	0.0037027	8
	7	13	199546.9	4074.854	-857.3139	1	4164.063	-11.88125	-1.20418E-006	0.0038267	8
	8	14	158578.1	4152.92	-747.5353	1	4219.663	-10.2041	-4.173916E-006	0.0045456	8
	9	16	125953.1	4261.85	-590.9694	1	4302.628	-7.894578	-5.36736E-007	0.0055615	7
	10	17	100078.1	4299.826	-526.7972	1	4331.976	-6.984837	-3.523061E-008	0.0035627	7
	11	18	79453.13	4344.021	-477.8568	1	4370.226	-6.277486	-3.662211E-009	0.0035364	7
	12	20	63140.62	4383.569	-440.8247	1	4405.678	-5.742528	8.288392E-008	0.003353	7
	13	21	50203.12	4417.359	-414.9544	1	4436.806	-5.366458	-1.34448E-008	0.0034896	7
	14	22	39890.62	4450.024	-401.0782	1	4468.062	-5.150121	-7.937255E-008	0.0036509	7
	15	24	31640.63	4480.776	-399.0022	1	4498.506	-5.088628	3.816225E-008	0.0033864	7
	16	25	25171.88	4510.812	-406.7254	1	4529.111	-5.152244	-3.720584E-008	0.0035347	7
	17	27	20015.62	4550.914	-422.7776	1	4570.509	-5.307515	3.98812E-008	0.0034735	7
	18	28	15890.62	4576.646	-459.4462	1	4599.65	-5.732676	8.935826E-008	0.003461	7
	19	29	12609.37	4608.769	-504.3643	1	4636.284	-6.245357	-7.805986E-008	0.0036437	7
	20	31	10078.13	4645.293	-561.0724	1	4679.055	-6.886995	8.928637E-008	0.0034536	7
	21	32	8015.625	4668.851	-644.8458	1	4713.172	-7.863747	-4.13158E-008	0.0035978	7
	22	33	6328.125	4725.012	-737.1371	1	4782.166	-8.867093	1.361021E-007	0.0033112	7
	23	35	5015.625	4771.142	-860.64	1	4848.144	-10.22531	-3.700272E-008	0.003533	7
	24	36	3984.375	4808.344	-1015.255	1	4914.358	-11.92257	-4.077664E-008	0.0036005	7
	25	37	3170.956	4875.914	-1199.856	1	5021.373	-13.82456	4.052503E-008	0.0034633	7
	26	39	2527.573	4939.025	-1430.653	1	5142.056	-16.15435	-7.696597E-010	0.0035176	7
	27	40	1976.103	5019.3	-1741.984	1	5312.992	-19.1397	-4.63618E-008	0.0035469	7
	28	41	1577.524	5094.501	-2076.453	1	5501.418	-22.17518	-3.810677E-009	0.003551	7
	29	43	1265.625	5201.695	-2507.219	1	5774.407	-25.73408	-7.856307E-008	0.0036436	7
	30	44	998.264	5326.313	-3059.634	1	6142.554	-29.87468	-5.725166E-008	0.0036887	7
	31	45	796.875	5470.433	-3697.367	1	6602.738	-34.05405	9.106802E-008	0.0034535	7
	32	47	627.7902	5661.471	-4521.799	1	7245.614	-38.61425	9.105084E-008	0.0034527	7
	33	48	505.5147	5855.936	-5453.286	1	8001.894	-42.96092	-1.112436E-008	0.0036542	7
	34	49	397.9953	6126.532	-6690.724	1	9071.944	-47.52043	3.975908E-009	0.0035342	7
	35	51	315.5048	6446.432	-8173.777	1	10409.95	-51.73814	1.438067E-009	0.0034751	6
	36	52	252.4038	6818.414	-9919.04	1	12036.53	-55.49511	3.554088E-010	0.0034712	6
	37	54	198.6229	7312.897	-12220.25	1	14241.24	-59.10265	1.049673E-009	0.0034762	6
	38	55	158.3615	7898.447	-14892.42	1	16857.33	-62.06	4.829965E-010	0.0034723	6
	39	56	125.558	8656.154	-18259.38	1	20207.27	-64.63595	6.812834E-010	0.0034729	6
	40	58	100.4464	9596.98	-22187.28	1	24173.89	-66.60938	2.237883E-010	0.0034746	6
	41	59	79.00281	10954.34	-27381.18	1	29491.13	-68.19521	2.933468E-010	0.0034667	6
	42	60	63.3446	12396.03	-32990.33	1	35242.36	-69.40643	7.386092E-010	0.0034644	6
	43	62	49.86702	15047.11	-40939.99	1	43617.64	-69.81956	1.043182E-009	0.0034661	6
	44	63	39.72458	17805.8	-49716.35	1	52808.73	-70.29513	1.019936E-009	0.0034675	6
	45	64	31.6723	21762.2	-59962.46	1	63789.42	-70.05263	7.385644E-010	0.003463	6
	46	66	24.93351	27154.58	-73126.48	1	78005.47	-69.62817	8.499154E-010	0.0034682	6
	47	67	19.86229	33967.66	-87604.97	1	93959.74	-68.80686	6.226749E-010	0.0034783	6
	48	69	15.83615	43244.29	-104600	1	113186.7	-67.53856	1.901576E-009	0.0034682	5
	49	70	12.40079	55074.04	-124424.8	1	136068.6	-66.12442	9.696635E-010	0.0034701	5
	50	71	9.93114	69227.88	-145453.9	1	161088	-64.54817	8.221568E-010	0.0034687	5
	51	73	7.944915	85580.38	-168720.2	1	189183.8	-63.10439	-2.972126E-010	0.0034727	5
	52	75	6.317385	106929.6	-194230.4	1	221719.2	-61.16592	-3.511405E-010	0.0034694	5
	53	77	5.008013	131667.2	-222752.8	1	258756.8	-59.41305	-2.322899E-010	0.0034656	5
	54	79	3.945707	160606.3	-254078.4	1	300583.1	-57.70248	5.101695E-010	0.0034781	5
	55	82	3.158693	191185.2	-286262.8	1	344235.7	-56.26239	-4.171728E-010	0.0034702	5
	56	85	2.504006	226880.4	-322743.9	1	394510.3	-54.8938	4.258407E-010	0.0034673	5
	57	88	1.998082	263206	-360644.6	1	446477.3	-53.87725	-6.684256E-011	0.0035116	5
	58	91	1.584686	303163.9	-406274.2	1	506919.2	-53.2695	2.439016E-010	0.0034982	5
	59	95	1.266892	345597	-454836.5	1	571238.6	-52.77145	-3.509099E-011	0.0035126	5
	60	99	0.999041	391016.1	-515826.9	1	647279.6	-52.83651	1.576564E-010	0.003446	5
