EXPLAIN
TAG	EISPOT
TITLE	LABEL	Potentiostatic IDE	Test &Identifier
DATE	LABEL	9/4/2019	Date
TIME	LABEL	16:00:56	Time
NOTES	NOTES	1	&Notes...
	
PSTAT	PSTAT	REF600-11020	Potentiostat
VDC	POTEN	0.00000E+000	T	DC &Voltage (V)
FREQINIT	QUANT	1.00000E+006	Initial Fre&q. (Hz)
FREQFINAL	QUANT	1.00000E+000	Final Fre&q. (Hz)
PTSPERDEC	QUANT	1.00000E+001	Points/&decade
VAC	QUANT	2.50000E+001	AC &Voltage (mV rms)
AREA	QUANT	1.00000E-002	&Area (cm^2)
CONDIT	TWOPARAM	T	5.00000E+000	0.00000E+000	Conditionin&g	Time(s)	E(V)
DELAY	TWOPARAM	T	5.00000E+000	0.00000E+000	Init. De&lay	Time(s)	Stab.(mV/s)
SPEED	SELECTOR	1	&Optimize for:
ZGUESS	QUANT	1.00000E+007	E&stimated Z (ohms)
OCVCURVE	TABLE	19
	Pt	T	Vf	Vm	Ach	Over
	#	s	V vs. Ref.	V	V	bits
	0	0.258333	3.73020E-002	3.73020E-002	5.69166E-004	...........
	1	0.516667	3.73181E-002	3.81497E-002	5.65999E-004	...........
	2	0.775	3.74115E-002	3.86320E-002	5.69366E-004	...........
	3	1.03333	3.76567E-002	3.91830E-002	5.68566E-004	...........
	4	1.29167	3.80655E-002	3.98224E-002	5.66932E-004	...........
	5	1.55	3.85851E-002	4.04076E-002	5.72066E-004	...........
	6	1.80833	3.91578E-002	4.09034E-002	5.65666E-004	...........
	7	2.06667	3.97424E-002	4.14121E-002	5.68799E-004	...........
	8	2.325	4.03090E-002	4.18256E-002	5.70799E-004	...........
	9	2.58333	4.08427E-002	4.24016E-002	5.68532E-004	...........
	10	2.84167	4.13485E-002	4.28641E-002	5.64932E-004	...........
	11	3.1	4.18395E-002	4.31896E-002	5.69432E-004	...........
	12	3.35833	4.23163E-002	4.37069E-002	5.70099E-004	...........
	13	3.61667	4.27730E-002	4.41163E-002	5.64866E-004	...........
	14	3.875	4.32157E-002	4.46153E-002	5.65732E-004	...........
	15	4.13333	4.36578E-002	4.50325E-002	5.70132E-004	...........
	16	4.39167	4.41040E-002	4.54333E-002	5.69699E-004	...........
	17	4.65	4.45470E-002	4.57902E-002	5.68632E-004	...........
	18	4.90833	4.49721E-002	4.60641E-002	5.68366E-004	...........
EOC	QUANT	0.0449721	Open Circuit (V)
PSTATMODEL	IQUANT	4	Pstat Model
PSTATSECTION	LABEL	REF600-11020	Pstat Section
PSTATSERIALNO	LABEL	11020	Pstat Serial Number
CTRLMODE	IQUANT	1	Control Mode
IESTAB	IQUANT	0	I/E Stability
CASPEED	IQUANT	1	Control Amp Speed
CONVENTION	IQUANT	1	Current Convention
ICHRANGE	IQUANT	2	Ich Range
ICHRANGEMODE	TOGGLE	F	Ich Auto Range
ICHOFFSETENABLE	TOGGLE	T	Ich Offset Enable
ICHOFFSET	QUANT	0	Ich Offset (V)
ICHFILTER	IQUANT	3	Ich Filter
VCHRANGE	IQUANT	2	Vch Range
VCHRANGEMODE	TOGGLE	F	Vch Auto Range
VCHOFFSETENABLE	TOGGLE	T	Vch Offset Enable
VCHOFFSET	QUANT	0	Vch Offset (V)
VCHFILTER	IQUANT	3	Vch Filter
ACHRANGE	IQUANT	2	Ach Range
ACHOFFSETENABLE	TOGGLE	F	Ach Offset Enable
ACHOFFSET	QUANT	0	Ach Offset (V)
ACHFILTER	IQUANT	3	Ach Filter
IERANGELOWERLIMIT	IQUANT	1	I/E Range Lower Limit
IERANGEMODE	TOGGLE	F	I/E AutoRange
IERANGE	IQUANT	3	I/E Range
POSFEEDENABLE	TOGGLE	F	Positive Feedback IR Comp
POSFEEDRESISTANCE	QUANT	0	Positive Feedback Resistance (ohm)
ACHSELECT	IQUANT	0	Ach Select
CABLEID	IQUANT	14	Cable ID
DCCALDATE	LABEL	8/19/2019	DC Calibration Date
ACCALDATE	LABEL	8/19/2019	AC Calibration Date
THERMOSELECT	IQUANT	1	Thermo Select
FRAMEWORKVERSION	QUANT	6.33	Framework Version
INSTRUMENTVERSION	LABEL	3.50	Instrument Version
ZCURVE	TABLE
	Pt	Time	Freq	Zreal	Zimag	Zsig	Zmod	Zphz	Idc	Vdc	IERange
	#	s	Hz	ohm	ohm	V	ohm	°	A	V	#
	0	2	1000078	-92.63848	-3041.646	1	3043.056	-91.7445	7.235086E-006	0.0516177	8
	1	4	794390.6	9.008982	-3861.659	1	3861.67	-89.86633	2.300816E-006	0.050696	8
	2	5	630984.4	148.5941	-4855.953	1	4858.226	-88.24728	-9.801588E-007	0.045603	8
	3	6	501234.4	390.3415	-6113.673	1	6126.122	-86.34678	-1.72229E-006	0.0416807	8
	4	8	398109.4	762.8281	-7593.371	1	7631.592	-84.26333	2.553105E-006	0.0492231	8
	5	10	316265.6	1231.768	-9376.92	1	9457.478	-82.51637	1.413074E-006	0.0472278	8
	6	11	251203.1	2048.547	-11575.71	1	11755.57	-79.96429	4.632193E-007	0.0475715	8
	7	13	199546.9	3187.457	-14095.39	1	14451.3	-77.25775	-1.019444E-006	0.0473941	8
	8	15	158578.1	4940.047	-17163.13	1	17859.93	-73.94264	-4.681992E-007	0.0455493	8
	9	16	125953.1	7320.238	-20604.23	1	21865.96	-70.44097	1.689681E-007	0.0471655	7
	10	17	100078.1	10297.71	-24249.77	1	26345.67	-66.99142	-2.409064E-008	0.0466514	7
	11	19	79453.13	14437.91	-28195.49	1	31677.1	-62.88463	-2.280295E-008	0.0466846	7
	12	20	63140.62	19588.25	-31963.27	1	37488	-58.49853	1.056409E-008	0.0465042	7
	13	22	50203.12	25909.71	-35082.73	1	43613.2	-53.55296	-2.400484E-008	0.046629	7
	14	23	39890.62	33285.83	-37198.95	1	49917.02	-48.17764	-3.127426E-008	0.0466769	7
	15	24	31640.63	40910.61	-38345.89	1	56072.14	-43.14657	-1.417376E-009	0.0465472	7
	16	26	25171.88	48532.88	-37978.34	1	61626.25	-38.04417	3.878966E-008	0.0467713	7
	17	27	20015.62	55880.52	-36650.79	1	66827.48	-33.25998	7.401727E-008	0.0465854	7
	18	28	15890.62	62180.77	-34525.25	1	71122.71	-29.04079	7.706046E-008	0.0467066	7
	19	30	12609.37	68050.33	-31055.46	1	74801.66	-24.53007	1.043907E-008	0.0462792	6
	20	31	10078.13	72493.98	-28783.55	1	77999.17	-21.65543	3.867083E-009	0.0463325	6
	21	32	8015.625	76056.2	-26006.98	1	80379.77	-18.87783	-9.38765E-009	0.0466464	6
	22	34	6328.125	79267.73	-23717.69	1	82739.96	-16.6577	1.321135E-009	0.046582	6
	23	35	5015.625	81940.2	-21861.41	1	84806.36	-14.9384	-9.568532E-009	0.0466418	6
	24	37	3984.375	84238.68	-20497.44	1	86696.59	-13.67577	-3.592147E-009	0.0466684	6
	25	38	3170.956	86358.89	-19480.68	1	88528.84	-12.71191	9.579342E-009	0.046276	6
	26	39	2527.573	88238.55	-18870.71	1	90233.84	-12.07145	6.029195E-010	0.0465654	6
	27	41	1976.103	90208.2	-18628.66	1	92111.59	-11.66799	8.326971E-010	0.0465744	6
	28	42	1577.524	92003.77	-18784.93	1	93901.91	-11.53979	2.865505E-009	0.0466479	6
	29	43	1265.625	94173.78	-17890.17	1	95858	-10.75629	1.466769E-010	0.0465558	5
	30	45	998.264	95933.5	-19149.56	1	97826.1	-11.2886	-2.889378E-010	0.0465522	5
	31	46	796.875	97884.1	-20560.81	1	100020.2	-11.86267	-1.259453E-009	0.046531	5
	32	47	627.7902	99976	-22545.27	1	102486.5	-12.70802	1.223393E-009	0.0463442	5
	33	49	505.5147	102141.3	-24765.49	1	105100.8	-13.62909	-9.949898E-010	0.046538	5
	34	50	397.9953	104562.9	-27703.22	1	108170.5	-14.83919	-5.199276E-011	0.0465902	5
	35	52	315.5048	107206.4	-31200.14	1	111654.2	-16.22652	1.195942E-011	0.0465831	5
	36	53	252.4038	109942.5	-35214.08	1	115444.3	-17.76002	5.027635E-011	0.0465831	5
	37	54	198.6229	113140.7	-40421.93	1	120144.7	-19.66036	1.129105E-011	0.0465853	5
	38	56	158.3615	116494.7	-46345.59	1	125375.2	-21.69436	4.843689E-011	0.0465867	5
	39	57	125.558	120162	-53677.95	1	131606.3	-24.07096	-1.564188E-011	0.0465858	5
	40	58	100.4464	124139.6	-62172.24	1	138838.1	-26.60286	-8.038885E-011	0.0465825	5
	41	60	79.00281	128594.4	-73096.2	1	147917.4	-29.61496	-5.532479E-011	0.0465825	5
	42	61	63.3446	133173.6	-86348.09	1	158717.4	-32.95886	-6.042386E-011	0.0465756	5
	43	63	49.86702	138723.6	-101810.2	1	172074.3	-36.2752	1.411765E-011	0.0465775	5
	44	64	39.72458	144662.4	-121496.4	1	188914.2	-40.02561	5.867037E-011	0.046583	5
	45	65	31.6723	151260.2	-144823	1	209411.9	-43.75451	7.821142E-011	0.0465845	5
	46	67	24.93351	159672.7	-175694.1	1	237410.6	-47.7351	5.70815E-011	0.0465799	5
	47	68	19.86229	169199.3	-211588.9	1	270921.1	-51.35206	1.349378E-011	0.04658	5
	48	69	15.83615	181061.9	-255071.1	1	312801.4	-54.63101	2.087354E-010	0.0465797	5
	49	71	12.40079	196559.3	-312485.3	1	369164.8	-57.82932	3.856823E-010	0.046574	5
	50	72	9.93114	211854.7	-378926	1	434128.2	-60.79077	-7.547243E-010	0.04658	5
	51	74	7.944915	234207.9	-452848.3	1	509828.3	-62.65252	1.028415E-011	0.0465755	5
	52	76	6.317385	260847	-547467.1	1	606433.4	-64.524	1.57056E-010	0.0465838	5
	53	77	5.008013	293998.5	-665339.4	1	727400.6	-66.16044	5.110397E-010	0.0465816	5
	54	80	3.945707	336922.9	-809594.6	1	876903.9	-67.40475	-3.458186E-011	0.0465857	5
	55	82	3.158693	381601.3	-974291	1	1046357	-68.61118	8.435713E-011	0.0465763	4
	56	86	2.504006	440192.1	-1181097	1	1260460	-69.55969	9.517212E-012	0.0465971	4
	57	88	1.998082	526791.6	-1421028	1	1515530	-69.65967	-6.414874E-012	0.0465696	4
	58	92	1.584686	1235362	-4274111	1	4449061	-73.87892	9.878487E-010	0.0465259	4
	59	97	1.266892	710059.9	-2076676	1	2194714	-71.12334	-1.037559E-011	0.0465613	4
	60	101	0.999041	750032.8	-2675626	1	2778763	-74.34073	-2.635935E-010	0.046593	4
EXPERIMENTABORTED	TOGGLE	T	Experiment Aborted
