EXPLAIN
TAG	EISPOT
TITLE	LABEL	Potentiostatic IDE	Test &Identifier
DATE	LABEL	9/14/2019	Date
TIME	LABEL	9:07:52	Time
NOTES	NOTES	1	&Notes...
	
PSTAT	PSTAT	REF600-11020	Potentiostat
VDC	POTEN	0.00000E+000	T	DC &Voltage (V)
FREQINIT	QUANT	1.00000E+006	Initial Fre&q. (Hz)
FREQFINAL	QUANT	1.00000E+000	Final Fre&q. (Hz)
PTSPERDEC	QUANT	1.00000E+001	Points/&decade
VAC	QUANT	2.50000E+001	AC &Voltage (mV rms)
AREA	QUANT	1.00000E-002	&Area (cm^2)
CONDIT	TWOPARAM	T	5.00000E+000	0.00000E+000	Conditionin&g	Time(s)	E(V)
DELAY	TWOPARAM	T	5.00000E+000	0.00000E+000	Init. De&lay	Time(s)	Stab.(mV/s)
SPEED	SELECTOR	1	&Optimize for:
ZGUESS	QUANT	1.00000E+007	E&stimated Z (ohms)
OCVCURVE	TABLE	19
	Pt	T	Vf	Vm	Ach	Over
	#	s	V vs. Ref.	V	V	bits
	0	0.258333	9.29125E-003	9.29125E-003	5.61932E-004	...........
	1	0.516667	9.29230E-003	9.34588E-003	5.62532E-004	...........
	2	0.775	9.30129E-003	9.53320E-003	5.61866E-004	...........
	3	1.03333	9.33654E-003	9.77515E-003	5.62366E-004	...........
	4	1.29167	9.42388E-003	1.01348E-002	5.62899E-004	...........
	5	1.55	9.57988E-003	1.02777E-002	5.58566E-004	...........
	6	1.80833	9.79007E-003	1.03285E-002	5.61866E-004	...........
	7	2.06667	1.00092E-002	1.05061E-002	5.62932E-004	...........
	8	2.325	1.01993E-002	1.06686E-002	5.65799E-004	...........
	9	2.58333	1.03570E-002	1.07244E-002	5.68932E-004	...........
	10	2.84167	1.04934E-002	1.07672E-002	5.65832E-004	...........
	11	3.1	1.06090E-002	1.08594E-002	5.65699E-004	...........
	12	3.35833	1.07060E-002	1.11225E-002	5.66366E-004	...........
	13	3.61667	1.08056E-002	1.13241E-002	5.63032E-004	...........
	14	3.875	1.09324E-002	1.13479E-002	5.60332E-004	...........
	15	4.13333	1.10798E-002	1.13395E-002	5.63199E-004	...........
	16	4.39167	1.12117E-002	1.13888E-002	5.64999E-004	...........
	17	4.65	1.13025E-002	1.14434E-002	5.64432E-004	...........
	18	4.90833	1.13580E-002	1.14710E-002	5.59466E-004	...........
EOC	QUANT	0.011358	Open Circuit (V)
PSTATMODEL	IQUANT	4	Pstat Model
PSTATSECTION	LABEL	REF600-11020	Pstat Section
PSTATSERIALNO	LABEL	11020	Pstat Serial Number
CTRLMODE	IQUANT	1	Control Mode
IESTAB	IQUANT	0	I/E Stability
CASPEED	IQUANT	1	Control Amp Speed
CONVENTION	IQUANT	1	Current Convention
ICHRANGE	IQUANT	2	Ich Range
ICHRANGEMODE	TOGGLE	F	Ich Auto Range
ICHOFFSETENABLE	TOGGLE	T	Ich Offset Enable
ICHOFFSET	QUANT	0	Ich Offset (V)
ICHFILTER	IQUANT	3	Ich Filter
VCHRANGE	IQUANT	2	Vch Range
VCHRANGEMODE	TOGGLE	F	Vch Auto Range
VCHOFFSETENABLE	TOGGLE	T	Vch Offset Enable
VCHOFFSET	QUANT	0	Vch Offset (V)
VCHFILTER	IQUANT	3	Vch Filter
ACHRANGE	IQUANT	2	Ach Range
ACHOFFSETENABLE	TOGGLE	F	Ach Offset Enable
ACHOFFSET	QUANT	0	Ach Offset (V)
ACHFILTER	IQUANT	3	Ach Filter
IERANGELOWERLIMIT	IQUANT	1	I/E Range Lower Limit
IERANGEMODE	TOGGLE	F	I/E AutoRange
IERANGE	IQUANT	3	I/E Range
POSFEEDENABLE	TOGGLE	F	Positive Feedback IR Comp
POSFEEDRESISTANCE	QUANT	0	Positive Feedback Resistance (ohm)
ACHSELECT	IQUANT	0	Ach Select
CABLEID	IQUANT	14	Cable ID
DCCALDATE	LABEL	8/19/2019	DC Calibration Date
ACCALDATE	LABEL	8/19/2019	AC Calibration Date
THERMOSELECT	IQUANT	1	Thermo Select
FRAMEWORKVERSION	QUANT	6.33	Framework Version
INSTRUMENTVERSION	LABEL	3.50	Instrument Version
ZCURVE	TABLE
	Pt	Time	Freq	Zreal	Zimag	Zsig	Zmod	Zphz	Idc	Vdc	IERange
	#	s	Hz	ohm	ohm	V	ohm	°	A	V	#
	0	2	1000078	1671.068	-1879.305	1	2514.807	-48.35667	-1.357879E-006	0.0133303	8
	1	3	794390.6	1781.403	-2117.105	1	2766.863	-49.92163	-1.877047E-007	0.0133675	8
	2	4	630984.4	1917.514	-2465.647	1	3123.503	-52.12808	-2.131932E-006	0.0135193	8
	3	6	501234.4	2060.017	-2892.692	1	3551.245	-54.54362	-6.426838E-007	0.0129045	8
	4	7	398109.4	2225.605	-3469.765	1	4122.206	-57.32275	5.938728E-006	0.0116193	8
	5	9	316265.6	2418.856	-4200.471	1	4847.146	-60.06436	-3.920222E-008	0.0130677	8
	6	10	251203.1	2739.991	-5076.705	1	5768.924	-61.64345	-1.64548E-006	0.0132971	8
	7	11	199546.9	3181.307	-6160.68	1	6933.591	-62.68867	4.707803E-006	0.0120265	8
	8	13	158578.1	3845.979	-7499.79	1	8428.428	-62.85073	-8.305857E-008	0.0127792	8
	9	15	125953.1	4884.605	-8975.095	1	10218.2	-61.4432	5.812967E-007	0.0124248	7
	10	16	100078.1	6211.453	-10637.06	1	12317.84	-59.71745	-2.33501E-008	0.0128253	7
	11	17	79453.13	7938.79	-12441.96	1	14758.96	-57.45945	-4.535027E-008	0.0129885	7
	12	19	63140.62	10222.08	-14163.71	1	17467.16	-54.18167	1.462729E-007	0.0126574	7
	13	20	50203.12	12963.27	-15616.9	1	20296.16	-50.30462	8.994188E-009	0.0127695	7
	14	21	39890.62	16343.09	-16789.18	1	23430.18	-45.77138	-2.823619E-008	0.0129306	7
	15	23	31640.63	19693.42	-17293.06	1	26208.41	-41.28681	8.417461E-008	0.0127182	7
	16	24	25171.88	23115.06	-17273.09	1	28855.94	-36.76949	8.375735E-008	0.0127246	7
	17	26	20015.62	26346.38	-16797.97	1	31245.85	-32.52084	6.848497E-010	0.0128656	7
	18	27	15890.62	29252.63	-15933.71	1	33310.65	-28.57683	-2.685296E-008	0.0129222	7
	19	29	12609.37	32058.79	-14495.31	1	35183.52	-24.32999	-8.924352E-009	0.0129313	6
	20	30	10078.13	34183.04	-13560.92	1	36774.7	-21.63897	2.854645E-009	0.012661	6
	21	31	8015.625	35859.91	-12669.73	1	38032.3	-19.45892	5.515451E-009	0.0127714	6
	22	33	6328.125	37438.96	-11915.42	1	39289.35	-17.65433	7.795744E-009	0.0125929	6
	23	34	5015.625	38870.27	-11321.54	1	40485.5	-16.23898	-4.250009E-009	0.0127906	6
	24	35	3984.375	40176.4	-10937.26	1	41638.52	-15.22864	-1.22504E-008	0.0128726	6
	25	37	3170.956	41384.24	-10632.62	1	42728.3	-14.40903	2.961688E-009	0.0128828	6
	26	38	2527.573	42572.67	-10523.09	1	43853.94	-13.88404	-4.314552E-009	0.01279	6
	27	39	1976.103	43712.61	-10567.91	1	44971.91	-13.59098	-3.829959E-009	0.0127021	6
	28	41	1577.524	44882.17	-10807.18	1	46164.97	-13.53853	1.471545E-008	0.0126821	6
	29	42	1265.625	46132.45	-11177.22	1	47467.18	-13.61949	-5.223735E-009	0.0129713	6
	30	44	998.264	47110.46	-11837.4	1	48574.89	-14.10465	4.625972E-009	0.0125789	6
	31	45	796.875	48193.76	-12743.16	1	49850.04	-14.81091	1.408262E-008	0.0126797	6
	32	46	627.7902	49488.47	-13833.92	1	51385.66	-15.61771	2.574496E-009	0.0128677	6
	33	48	505.5147	50841.59	-15143.94	1	53049.09	-16.58697	2.357226E-009	0.0129297	6
	34	49	397.9953	51957.67	-17074.47	1	54691.29	-18.1917	1.145016E-009	0.0128042	6
	35	50	315.5048	53345.47	-19403.68	1	56764.79	-19.98816	1.139911E-009	0.0128055	6
	36	51	252.4038	54785.56	-22145.47	1	59092.13	-22.00959	-2.589394E-010	0.0128043	6
	37	53	198.6229	56572.32	-25834.75	1	62192.13	-24.54465	3.368327E-009	0.0128595	7
	38	54	158.3615	58473.31	-30143.86	1	65785.87	-27.27177	9.09415E-010	0.0128005	6
	39	56	125.558	60763.23	-35479.7	1	70363.2	-30.28069	1.571427E-010	0.0128063	6
	40	57	100.4464	63188.15	-41613.05	1	75659.69	-33.36721	1.459038E-009	0.012798	6
	41	58	79.00281	67181.36	-49557.63	1	83482.3	-36.41505	1.054255E-009	0.0127976	6
	42	60	63.3446	69436.43	-60788.35	1	92285.65	-41.20063	6.069779E-010	0.0127963	6
	43	61	49.86702	75664.13	-68296.99	1	101929.1	-42.07047	6.685631E-010	0.0127974	5
	44	63	39.72458	80917.35	-83436.92	1	116229.7	-45.87828	-6.435382E-010	0.0127972	5
	45	64	31.6723	88254.69	-97909.7	1	131815	-47.96886	-7.896539E-010	0.0127981	5
	46	66	24.93351	97355.3	-117824.1	1	152841.7	-50.43389	-3.364002E-011	0.0127947	5
	47	67	19.86229	107932.8	-139520.1	1	176395.4	-52.27445	1.120916E-010	0.0127979	5
	48	68	15.83615	123358.5	-162550.6	1	204058.9	-52.8054	1.162208E-009	0.012791	5
	49	70	12.40079	140467	-198830.4	1	243443	-54.76007	-6.810501E-010	0.0127881	5
	50	71	9.93114	160106.8	-227994	1	278595.5	-54.92188	-5.186231E-010	0.0128038	5
	51	73	7.944915	181577.1	-267334.1	1	323168.3	-55.8151	4.912966E-010	0.0127978	5
	52	74	6.317385	213532.9	-309314.5	1	375861.4	-55.38103	1.077949E-010	0.0127967	5
	53	76	5.008013	250023.9	-359764.8	1	438112.6	-55.20206	1.599077E-010	0.0128075	5
	54	79	3.945707	294589	-415700.2	1	509499.1	-54.67642	-2.753191E-010	0.0127952	5
	55	81	3.158693	343784.3	-475684.3	1	586909.9	-54.14378	3.773131E-011	0.012812	5
	56	85	2.504006	404393.6	-544565.8	1	678296.5	-53.40248	-3.43457E-010	0.0128053	5
	57	87	1.998082	471606.2	-617524.8	1	777013.1	-52.63088	1.566789E-010	0.0127805	5
	58	90	1.584686	554588.8	-700537	1	893488	-51.63267	-1.476307E-010	0.012758	5
	59	94	1.266892	645326.9	-787626.3	1	1018235	-50.67116	1.80705E-010	0.0127837	4
	60	98	0.999041	756073.1	-885831.3	1	1164622	-49.51864	-3.697887E-010	0.0127881	4
