EXPLAIN
TAG	EISPOT
TITLE	LABEL	Potentiostatic EIS	Test &Identifier
DATE	LABEL	10/16/2019	Date
TIME	LABEL	9:30:23	Time
NOTES	NOTES	1	&Notes...
	
PSTAT	PSTAT	REF600-11020	Potentiostat
VDC	POTEN	0.00000E+000	T	DC &Voltage (V)
FREQINIT	QUANT	1.00000E+006	Initial Fre&q. (Hz)
FREQFINAL	QUANT	1.00000E+000	Final Fre&q. (Hz)
PTSPERDEC	QUANT	1.00000E+001	Points/&decade
VAC	QUANT	2.50000E+001	AC &Voltage (mV rms)
AREA	QUANT	1.00000E-002	&Area (cm^2)
CONDIT	TWOPARAM	T	5.00000E+000	0.00000E+000	Conditionin&g	Time(s)	E(V)
DELAY	TWOPARAM	T	5.00000E+000	0.00000E+000	Init. De&lay	Time(s)	Stab.(mV/s)
SPEED	SELECTOR	0	&Optimize for:
ZGUESS	QUANT	1.00000E+005	E&stimated Z (ohms)
OCVCURVE	TABLE	19
	Pt	T	Vf	Vm	Ach	Over
	#	s	V vs. Ref.	V	V	bits
	0	0.258333	4.54078E-003	4.54078E-003	5.96399E-004	...........
	1	0.516667	4.53739E-003	4.36358E-003	5.97298E-004	...........
	2	0.775	4.51679E-003	4.20529E-003	5.85932E-004	...........
	3	1.03333	4.45882E-003	4.03727E-003	5.84199E-004	...........
	4	1.29167	4.35525E-003	3.89216E-003	5.96399E-004	...........
	5	1.55	4.21858E-003	3.80630E-003	5.97065E-004	...........
	6	1.80833	4.07301E-003	3.73361E-003	5.90465E-004	...........
	7	2.06667	3.94058E-003	3.66216E-003	5.83832E-004	...........
	8	2.325	3.83138E-003	3.59333E-003	5.95365E-004	...........
	9	2.58333	3.74306E-003	3.53081E-003	5.97132E-004	...........
	10	2.84167	3.66781E-003	3.45307E-003	5.80365E-004	...........
	11	3.1	3.59981E-003	3.46310E-003	5.84865E-004	...........
	12	3.35833	3.53966E-003	3.42444E-003	5.98832E-004	...........
	13	3.61667	3.49100E-003	3.37066E-003	6.02198E-004	...........
	14	3.875	3.45132E-003	3.30278E-003	5.91065E-004	...........
	15	4.13333	3.41191E-003	3.27074E-003	5.97598E-004	...........
	16	4.39167	3.36730E-003	3.20998E-003	6.02732E-004	...........
	17	4.65	3.31902E-003	3.19258E-003	5.95032E-004	...........
	18	4.90833	3.27199E-003	3.16792E-003	5.94765E-004	...........
EOC	QUANT	0.003272	Open Circuit (V)
PSTATMODEL	IQUANT	4	Pstat Model
PSTATSECTION	LABEL	REF600-11020	Pstat Section
PSTATSERIALNO	LABEL	11020	Pstat Serial Number
CTRLMODE	IQUANT	1	Control Mode
IESTAB	IQUANT	0	I/E Stability
CASPEED	IQUANT	1	Control Amp Speed
CONVENTION	IQUANT	1	Current Convention
ICHRANGE	IQUANT	2	Ich Range
ICHRANGEMODE	TOGGLE	F	Ich Auto Range
ICHOFFSETENABLE	TOGGLE	T	Ich Offset Enable
ICHOFFSET	QUANT	0	Ich Offset (V)
ICHFILTER	IQUANT	3	Ich Filter
VCHRANGE	IQUANT	2	Vch Range
VCHRANGEMODE	TOGGLE	F	Vch Auto Range
VCHOFFSETENABLE	TOGGLE	T	Vch Offset Enable
VCHOFFSET	QUANT	0	Vch Offset (V)
VCHFILTER	IQUANT	3	Vch Filter
ACHRANGE	IQUANT	2	Ach Range
ACHOFFSETENABLE	TOGGLE	F	Ach Offset Enable
ACHOFFSET	QUANT	0	Ach Offset (V)
ACHFILTER	IQUANT	3	Ach Filter
IERANGELOWERLIMIT	IQUANT	1	I/E Range Lower Limit
IERANGEMODE	TOGGLE	F	I/E AutoRange
IERANGE	IQUANT	4	I/E Range
POSFEEDENABLE	TOGGLE	F	Positive Feedback IR Comp
POSFEEDRESISTANCE	QUANT	0	Positive Feedback Resistance (ohm)
ACHSELECT	IQUANT	0	Ach Select
CABLEID	IQUANT	14	Cable ID
DCCALDATE	LABEL	8/19/2019	DC Calibration Date
ACCALDATE	LABEL	8/19/2019	AC Calibration Date
THERMOSELECT	IQUANT	1	Thermo Select
FRAMEWORKVERSION	QUANT	6.33	Framework Version
INSTRUMENTVERSION	LABEL	3.50	Instrument Version
ZCURVE	TABLE
	Pt	Time	Freq	Zreal	Zimag	Zsig	Zmod	Zphz	Idc	Vdc	IERange
	#	s	Hz	ohm	ohm	V	ohm	°	A	V	#
	0	1	1000078	2326.974	-1442.896	1	2738.02	-31.80197	5.611964E-006	0.004442	8
	1	2	794390.6	2605.141	-1377.352	1	2946.839	-27.86565	2.383289E-006	0.0045126	8
	2	2	630984.4	2855.259	-1246.79	1	3115.604	-23.58918	1.501303E-006	0.004595	8
	3	2	501234.4	3045.577	-1106.867	1	3240.478	-19.97287	1.414481E-006	0.0046451	8
	4	3	398109.4	3200.66	-962.051	1	3342.12	-16.72967	-8.516641E-007	0.0048568	8
	5	3	316265.6	3312.64	-826.7446	1	3414.249	-14.0132	3.430287E-007	0.0048924	8
	6	3	251203.1	3403.344	-714.4182	1	3477.52	-11.8552	-1.449246E-006	0.0051651	8
	7	4	199546.9	3473.16	-614.0477	1	3527.023	-10.02617	-2.335636E-006	0.0053446	8
	8	4	158578.1	3522.315	-526.3611	1	3561.427	-8.499167	-2.290692E-006	0.0053329	8
	9	4	125953.1	3571.007	-408.5991	1	3594.307	-6.527468	3.820588E-007	0.0041911	7
	10	5	100078.1	3603.996	-373.7368	1	3623.323	-5.920448	-6.08044E-008	0.0049113	7
	11	5	79453.13	3630.156	-348.1398	1	3646.811	-5.478035	-6.010899E-008	0.0050025	7
	12	5	63140.62	3657.063	-333.325	1	3672.222	-5.207867	-8.276912E-009	0.004812	7
	13	6	50203.12	3682.958	-326.0022	1	3697.358	-5.058433	3.055017E-010	0.0048135	7
	14	6	39890.62	3707.443	-326.4751	1	3721.79	-5.032448	1.04397E-008	0.0048981	7
	15	6	31640.63	3734.856	-338.0301	1	3750.122	-5.17157	-3.023147E-008	0.0048259	7
	16	7	25171.88	3762.575	-356.7796	1	3779.452	-5.416777	1.083666E-008	0.0047581	7
	17	7	20015.62	3785.97	-397.7487	1	3806.806	-5.997414	1.005535E-007	0.0046724	7
	18	7	15890.62	3822.733	-423.5157	1	3846.122	-6.321944	-6.607914E-009	0.0048072	7
	19	8	12609.37	3857.407	-473.1415	1	3886.316	-6.992852	9.922991E-008	0.0046698	7
	20	8	10078.13	3890.745	-533.5949	1	3927.164	-7.809095	-9.538043E-009	0.0047825	7
	21	8	8015.625	3921.993	-627.1371	1	3971.817	-9.084839	-3.538061E-008	0.0048997	7
	22	8	6328.125	3971.296	-709.503	1	4034.178	-10.12947	-1.083041E-008	0.0047888	7
	23	9	5015.625	4016.678	-830.4229	1	4101.623	-11.68097	-5.518332E-008	0.0049157	7
	24	9	3984.375	4062.92	-974.811	1	4178.226	-13.49187	3.299587E-008	0.0047791	7
	25	9	3170.956	4122.847	-1162.025	1	4283.477	-15.7405	-4.633523E-008	0.0048788	7
	26	10	2527.573	4186.12	-1385.482	1	4409.44	-18.31302	-5.7107E-008	0.0049163	7
	27	10	1976.103	4265.896	-1680.805	1	4585.082	-21.50492	6.024022E-008	0.0046854	7
	28	10	1577.524	4356.567	-2009.087	1	4797.51	-24.7574	9.796882E-008	0.0046685	7
	29	11	1265.625	4451.224	-2417.541	1	5065.362	-28.50719	-5.371122E-008	0.0049073	7
	30	11	998.264	4578.355	-2938.055	1	5439.991	-32.6894	-8.050489E-009	0.004855	7
	31	11	796.875	4714.77	-3544.734	1	5898.66	-36.93717	3.304119E-008	0.0047712	7
	32	12	627.7902	4896.975	-4332.508	1	6538.424	-41.5002	-7.085619E-009	0.0048596	7
	33	12	505.5147	5068.144	-5210.714	1	7268.949	-45.79465	-1.640665E-008	0.0048464	7
	34	12	397.9953	5311.625	-6393.823	1	8312.3	-50.28213	2.049611E-009	0.0048318	7
	35	13	315.5048	5589.097	-7816.128	1	9608.84	-54.43249	2.145065E-009	0.0048291	7
	36	13	252.4038	5912.994	-9496.105	1	11186.58	-58.09048	-2.642144E-010	0.0047665	6
	37	13	198.6229	6339.406	-11725.32	1	13329.34	-61.60171	2.862919E-010	0.0047631	6
	38	14	158.3615	6843.899	-14328.4	1	15878.98	-64.46873	-2.472221E-010	0.0047605	6
	39	14	125.558	7507.554	-17606.97	1	19140.76	-66.90676	2.445901E-010	0.0047661	6
	40	14	100.4464	8333.093	-21482.04	1	23041.67	-68.79824	1.434661E-009	0.004766	6
	41	15	79.00281	9487.199	-26502.26	1	28149.19	-70.3038	7.324621E-010	0.0047637	6
	42	15	63.3446	10944.05	-32598.13	1	34386.2	-71.44175	-9.149734E-011	0.0047636	6
	43	15	49.86702	12869.44	-40083.76	1	42099.05	-72.20007	-8.484675E-010	0.0047617	6
	44	16	39.72458	15351.61	-48480.63	1	50853.16	-72.42937	2.600734E-010	0.0047663	6
	45	16	31.6723	18595.29	-58793.77	1	61664.35	-72.44888	7.497275E-010	0.0047604	6
	46	16	24.93351	22956	-72095.5	1	75662.01	-72.33795	-4.358102E-010	0.0047601	6
	47	17	19.86229	28725.83	-87209.24	1	91818.44	-71.76865	-8.97714E-010	0.0047696	6
	48	17	15.83615	35523.62	-104072.9	1	109968.6	-71.15349	3.676924E-010	0.0047656	5
	49	17	12.40079	45578.81	-126967	1	134900.1	-70.2528	-1.169921E-009	0.0047688	5
	50	18	9.93114	58100.84	-151314.7	1	162086	-68.99454	-4.680087E-010	0.004771	5
	51	18	7.944915	73052.05	-178345.4	1	192727	-67.72551	-5.961932E-010	0.0047662	5
	52	19	6.317385	93385.25	-210591.3	1	230368.2	-66.08544	-4.986515E-010	0.0047783	5
	53	20	5.008013	118429.6	-246671	1	273627.8	-64.35381	-3.326301E-010	0.0047571	5
	54	21	3.945707	150508.5	-287606.3	1	324607.8	-62.37629	2.828043E-010	0.0047621	5
	55	22	3.158693	184292.6	-328287.9	1	376479.4	-60.69124	5.159871E-011	0.0047789	5
	56	24	2.504006	226010.9	-374977.7	1	437823.2	-58.9213	-2.172356E-010	0.0047637	5
	57	25	1.998082	269844.6	-422468.4	1	501294	-57.43228	-1.010363E-011	0.0047748	5
	58	26	1.584686	320845.5	-476758.1	1	574665.2	-56.06049	1.168969E-010	0.0048058	5
	59	28	1.266892	371261.8	-536461.8	1	652400.6	-55.31458	7.784325E-011	0.0047919	5
	60	31	0.999041	428579.2	-607298.8	1	743298.1	-54.78885	6.933774E-011	0.0047646	5
