EXPLAIN
TAG	EISPOT
TITLE	LABEL	Potentiostatic EIS	Test &Identifier
DATE	LABEL	11/22/2019	Date
TIME	LABEL	0:25:30	Time
NOTES	NOTES	4	&Notes...
	
	
	
	
PSTAT	PSTAT	REF600-11020	Potentiostat
VDC	POTEN	0.00000E+000	T	DC &Voltage (V)
FREQINIT	QUANT	1.00000E+006	Initial Fre&q. (Hz)
FREQFINAL	QUANT	1.00000E+000	Final Fre&q. (Hz)
PTSPERDEC	QUANT	1.00000E+001	Points/&decade
VAC	QUANT	2.50000E+001	AC &Voltage (mV rms)
AREA	QUANT	1.00000E-002	&Area (cm^2)
CONDIT	TWOPARAM	T	5.00000E+000	0.00000E+000	Conditionin&g	Time(s)	E(V)
DELAY	TWOPARAM	T	5.00000E+000	0.00000E+000	Init. De&lay	Time(s)	Stab.(mV/s)
SPEED	SELECTOR	1	&Optimize for:
ZGUESS	QUANT	1.00000E+005	E&stimated Z (ohms)
OCVCURVE	TABLE	19
	Pt	T	Vf	Vm	Ach	Over
	#	s	V vs. Ref.	V	V	bits
	0	0.258333	4.33913E-003	4.33913E-003	5.45766E-004	...........
	1	0.516667	4.33617E-003	4.18426E-003	5.38733E-004	...........
	2	0.775	4.31820E-003	4.04760E-003	5.36533E-004	...........
	3	1.03333	4.26844E-003	3.93962E-003	5.37333E-004	...........
	4	1.29167	4.18258E-003	3.83533E-003	5.36999E-004	...........
	5	1.55	4.07430E-003	3.75494E-003	5.46033E-004	...........
	6	1.80833	3.96241E-003	3.67714E-003	5.40399E-004	...........
	7	2.06667	3.85923E-003	3.61490E-003	5.38966E-004	...........
	8	2.325	3.76883E-003	3.54408E-003	5.43299E-004	...........
	9	2.58333	3.69011E-003	3.49914E-003	5.45199E-004	...........
	10	2.84167	3.62085E-003	3.45550E-003	5.47733E-004	...........
	11	3.1	3.56007E-003	3.41496E-003	5.41766E-004	...........
	12	3.35833	3.50725E-003	3.37534E-003	5.44766E-004	...........
	13	3.61667	3.46085E-003	3.33821E-003	5.45733E-004	...........
	14	3.875	3.41884E-003	3.30524E-003	5.43633E-004	...........
	15	4.13333	3.37986E-003	3.27350E-003	5.47033E-004	...........
	16	4.39167	3.34344E-003	3.24651E-003	5.45766E-004	...........
	17	4.65	3.30959E-003	3.21847E-003	5.36566E-004	...........
	18	4.90833	3.27831E-003	3.19533E-003	5.36233E-004	...........
EOC	QUANT	0.0032783	Open Circuit (V)
PSTATMODEL	IQUANT	4	Pstat Model
PSTATSECTION	LABEL	REF600-11020	Pstat Section
PSTATSERIALNO	LABEL	11020	Pstat Serial Number
CTRLMODE	IQUANT	1	Control Mode
IESTAB	IQUANT	0	I/E Stability
CASPEED	IQUANT	1	Control Amp Speed
CONVENTION	IQUANT	1	Current Convention
ICHRANGE	IQUANT	2	Ich Range
ICHRANGEMODE	TOGGLE	F	Ich Auto Range
ICHOFFSETENABLE	TOGGLE	T	Ich Offset Enable
ICHOFFSET	QUANT	0	Ich Offset (V)
ICHFILTER	IQUANT	3	Ich Filter
VCHRANGE	IQUANT	2	Vch Range
VCHRANGEMODE	TOGGLE	F	Vch Auto Range
VCHOFFSETENABLE	TOGGLE	T	Vch Offset Enable
VCHOFFSET	QUANT	0	Vch Offset (V)
VCHFILTER	IQUANT	3	Vch Filter
ACHRANGE	IQUANT	2	Ach Range
ACHOFFSETENABLE	TOGGLE	F	Ach Offset Enable
ACHOFFSET	QUANT	0	Ach Offset (V)
ACHFILTER	IQUANT	3	Ach Filter
IERANGELOWERLIMIT	IQUANT	1	I/E Range Lower Limit
IERANGEMODE	TOGGLE	F	I/E AutoRange
IERANGE	IQUANT	4	I/E Range
POSFEEDENABLE	TOGGLE	F	Positive Feedback IR Comp
POSFEEDRESISTANCE	QUANT	0	Positive Feedback Resistance (ohm)
ACHSELECT	IQUANT	0	Ach Select
CABLEID	IQUANT	14	Cable ID
DCCALDATE	LABEL	8/19/2019	DC Calibration Date
ACCALDATE	LABEL	8/19/2019	AC Calibration Date
THERMOSELECT	IQUANT	1	Thermo Select
FRAMEWORKVERSION	QUANT	6.33	Framework Version
INSTRUMENTVERSION	LABEL	3.50	Instrument Version
ZCURVE	TABLE
	Pt	Time	Freq	Zreal	Zimag	Zsig	Zmod	Zphz	Idc	Vdc	IERange
	#	s	Hz	ohm	ohm	V	ohm	°	A	V	#
	0	2	1000078	2154.937	-1843.344	1	2835.784	-40.54385	4.531873E-006	0.0061629	8
	1	3	794390.6	2510.235	-1866.255	1	3127.969	-36.62927	-2.763638E-006	0.0057453	8
	2	4	630984.4	2872.233	-1850.612	1	3416.795	-32.79414	5.320297E-006	0.0049724	8
	3	6	501234.4	3196.603	-1784.251	1	3660.85	-29.16898	-2.172557E-006	0.0053418	8
	4	7	398109.4	3501.828	-1691.465	1	3888.939	-25.78163	6.370077E-006	0.0041232	8
	5	8	316265.6	3776.974	-1597.656	1	4100.98	-22.92831	-3.709426E-007	0.004504	8
	6	10	251203.1	4042.49	-1476.673	1	4303.753	-20.06664	1.818089E-008	0.0045045	8
	7	11	199546.9	4251.499	-1345.296	1	4459.267	-17.55886	-1.260668E-006	0.0051858	8
	8	12	158578.1	4443.047	-1216	1	4606.443	-15.30624	-4.395968E-006	0.0051452	8
	9	14	125953.1	4606.566	-1048.541	1	4724.393	-12.82312	-4.794272E-007	0.0027871	7
	10	15	100078.1	4734.308	-941.4761	1	4827.013	-11.24725	-1.150229E-006	0.0064831	7
	11	16	79453.13	4852.236	-863.7979	1	4928.523	-10.09408	1.143141E-006	0.0032069	7
	12	18	63140.62	4929.762	-795.152	1	4993.478	-9.162676	-6.448308E-007	0.0064363	7
	13	19	50203.12	5001.1	-740.455	1	5055.618	-8.421938	-1.11076E-006	0.0053198	7
	14	21	39890.62	5078.625	-709.9372	1	5128.005	-7.957768	4.203877E-007	0.0053038	7
	15	22	31640.63	5144.976	-694.631	1	5191.655	-7.689097	6.562902E-007	0.0049593	7
	16	23	25171.88	5194.892	-692.2673	1	5240.814	-7.590472	1.081546E-007	0.0033205	7
	17	25	20015.62	5255.569	-707.8785	1	5303.027	-7.671066	6.572903E-007	0.0049534	7
	18	26	15890.62	5318.477	-748.0706	1	5370.829	-8.006417	1.031037E-006	0.0029589	7
	19	27	12609.37	5364.878	-806.979	1	5425.231	-8.554236	-1.287253E-006	0.0062925	7
	20	29	10078.13	5436.556	-884.0848	1	5507.971	-9.236504	5.008393E-007	0.0030031	7
	21	30	8015.625	5502.357	-989.326	1	5590.59	-10.19289	-6.441635E-007	0.006433	7
	22	31	6328.125	5579.22	-1124.034	1	5691.322	-11.39078	8.142852E-007	0.0028797	7
	23	33	5015.625	5652.847	-1292.96	1	5798.829	-12.88349	8.561086E-008	0.0057585	7
	24	34	3984.375	5726.928	-1498.619	1	5919.761	-14.66431	-7.794367E-007	0.0046033	7
	25	36	3170.956	5839.511	-1760.986	1	6099.259	-16.78142	6.570654E-007	0.0049523	7
	26	37	2527.573	5942.084	-2073.919	1	6293.608	-19.24012	4.25057E-007	0.0052969	7
	27	38	1976.103	6074.128	-2499.501	1	6568.298	-22.36714	6.585971E-007	0.0049516	7
	28	40	1577.524	6194.398	-2982.704	1	6875.107	-25.71157	1.168103E-006	0.0035361	7
	29	41	1265.625	6372.188	-3545.939	1	7292.356	-29.09468	1.028894E-006	0.0029608	7
	30	43	998.264	6569.573	-4291.546	1	7847.08	-33.15441	1.082641E-006	0.0039775	7
	31	44	796.875	6799.593	-5160.33	1	8536.01	-37.1955	8.115625E-007	0.0028762	7
	32	45	627.7902	7085.439	-6266.128	1	9458.742	-41.48848	-3.448088E-007	0.0038721	7
	33	47	505.5147	7413.965	-7508.156	1	10551.74	-45.36166	4.254316E-007	0.0052993	7
	34	48	397.9953	7850.751	-9167.319	1	12069.55	-49.42376	1.178194E-009	0.0047156	6
	35	49	315.5048	8365.356	-11142.09	1	13932.88	-53.10118	4.658067E-010	0.0047124	6
	36	51	252.4038	8974.498	-13449.66	1	16168.95	-56.28618	4.993202E-011	0.0047102	6
	37	52	198.6229	9785.92	-16473.11	1	19160.57	-59.28738	4.023176E-010	0.004714	6
	38	53	158.3615	10750.75	-19959.35	1	22670.56	-61.69167	9.220996E-010	0.004704	6
	39	55	125.558	12027.36	-24310.95	1	27123.41	-63.677	1.14016E-009	0.0046999	6
	40	56	100.4464	13588.28	-29406.54	1	32394.23	-65.1991	1.172551E-009	0.0047105	6
	41	58	79.00281	15832.48	-35895.6	1	39232.14	-66.19915	1.437762E-009	0.0047023	6
	42	59	63.3446	19022.66	-43302.26	1	47296.38	-66.28413	5.313978E-010	0.0047071	6
	43	60	49.86702	22176.39	-52836.87	1	57302.07	-67.23151	9.064449E-010	0.0046998	6
	44	62	39.72458	27245.36	-63074.25	1	68707.13	-66.63773	5.720249E-010	0.0047125	6
	45	63	31.6723	33529.57	-74966.86	1	82123.45	-65.90302	1.029072E-009	0.0047057	6
	46	65	24.93351	42247.42	-89572.82	1	99036	-64.74889	8.775444E-010	0.0047134	6
	47	66	19.86229	52701.86	-105033.3	1	117513.8	-63.35419	7.643854E-010	0.0047083	5
	48	68	15.83615	64928.02	-122698.5	1	138818.5	-62.11369	1.546834E-009	0.0047203	5
	49	69	12.40079	81964.34	-141886.1	1	163859.1	-59.98595	1.26844E-010	0.0047279	5
	50	70	9.93114	99544.5	-161720.2	1	189901.4	-58.38624	-3.423402E-010	0.004728	5
	51	72	7.944915	119795.5	-182860.7	1	218607	-56.77043	6.541868E-010	0.0047182	5
	52	74	6.317385	143035.7	-205587.4	1	250450.3	-55.17207	-1.35836E-010	0.00472	5
	53	76	5.008013	169323	-230712.3	1	286179.1	-53.72453	5.91017E-011	0.0047036	5
	54	78	3.945707	198422.3	-258542.7	1	325907.6	-52.49505	4.804953E-010	0.0047262	5
	55	81	3.158693	227481.4	-287865.2	1	366898.1	-51.68295	-1.08471E-010	0.0047004	5
	56	84	2.504006	259587.5	-322704.6	1	414154.5	-51.18637	4.71511E-010	0.0047135	5
	57	87	1.998082	292483.8	-361523.9	1	465022.8	-51.02609	3.799434E-010	0.0047204	5
	58	90	1.584686	328674.9	-407598.8	1	523606.7	-51.11839	1.15472E-010	0.0046632	5
	59	94	1.266892	365294.1	-463084.3	1	589819.3	-51.73262	2.887202E-010	0.0047207	5
	60	98	0.999041	408971.8	-533041.9	1	671856.8	-52.50309	-1.811069E-010	0.0046876	5
