EXPLAIN
TAG	EISPOT
TITLE	LABEL	Potentiostatic EIS	Test &Identifier
DATE	LABEL	10/6/2019	Date
TIME	LABEL	9:50:36	Time
NOTES	NOTES	2	&Notes...
	
	
PSTAT	PSTAT	REF600-11020	Potentiostat
VDC	POTEN	0.00000E+000	T	DC &Voltage (V)
FREQINIT	QUANT	1.00000E+006	Initial Fre&q. (Hz)
FREQFINAL	QUANT	1.00000E+000	Final Fre&q. (Hz)
PTSPERDEC	QUANT	1.00000E+001	Points/&decade
VAC	QUANT	2.50000E+001	AC &Voltage (mV rms)
AREA	QUANT	1.00000E-002	&Area (cm^2)
CONDIT	TWOPARAM	T	5.00000E+000	0.00000E+000	Conditionin&g	Time(s)	E(V)
DELAY	TWOPARAM	T	5.00000E+000	0.00000E+000	Init. De&lay	Time(s)	Stab.(mV/s)
SPEED	SELECTOR	1	&Optimize for:
ZGUESS	QUANT	1.00000E+004	E&stimated Z (ohms)
OCVCURVE	TABLE	19
	Pt	T	Vf	Vm	Ach	Over
	#	s	V vs. Ref.	V	V	bits
	0	0.258333	4.68689E-003	4.68689E-003	5.57933E-004	...........
	1	0.516667	4.68471E-003	4.57270E-003	5.60232E-004	...........
	2	0.775	4.67135E-003	4.46639E-003	5.61732E-004	...........
	3	1.03333	4.63415E-003	4.38901E-003	5.55099E-004	...........
	4	1.29167	4.57002E-003	4.32151E-003	5.60266E-004	...........
	5	1.55	4.49015E-003	4.26637E-003	5.61132E-004	...........
	6	1.80833	4.40983E-003	4.22514E-003	5.59866E-004	...........
	7	2.06667	4.33884E-003	4.18658E-003	5.55166E-004	...........
	8	2.325	4.28012E-003	4.15419E-003	5.53766E-004	...........
	9	2.58333	4.23235E-003	4.12458E-003	5.55733E-004	...........
	10	2.84167	4.19276E-003	4.10110E-003	5.58332E-004	...........
	11	3.1	4.15917E-003	4.08203E-003	5.53433E-004	...........
	12	3.35833	4.13045E-003	4.06600E-003	5.57032E-004	...........
	13	3.61667	4.10612E-003	4.04961E-003	5.58332E-004	...........
	14	3.875	4.08561E-003	4.04072E-003	5.48433E-004	...........
	15	4.13333	4.06839E-003	4.03188E-003	5.54533E-004	...........
	16	4.39167	4.05421E-003	4.02612E-003	5.50399E-004	...........
	17	4.65	4.04284E-003	4.01747E-003	5.53466E-004	...........
	18	4.90833	4.03373E-003	4.01474E-003	5.50066E-004	...........
EOC	QUANT	0.0040337	Open Circuit (V)
PSTATMODEL	IQUANT	4	Pstat Model
PSTATSECTION	LABEL	REF600-11020	Pstat Section
PSTATSERIALNO	LABEL	11020	Pstat Serial Number
CTRLMODE	IQUANT	1	Control Mode
IESTAB	IQUANT	0	I/E Stability
CASPEED	IQUANT	1	Control Amp Speed
CONVENTION	IQUANT	1	Current Convention
ICHRANGE	IQUANT	2	Ich Range
ICHRANGEMODE	TOGGLE	F	Ich Auto Range
ICHOFFSETENABLE	TOGGLE	T	Ich Offset Enable
ICHOFFSET	QUANT	0	Ich Offset (V)
ICHFILTER	IQUANT	3	Ich Filter
VCHRANGE	IQUANT	2	Vch Range
VCHRANGEMODE	TOGGLE	F	Vch Auto Range
VCHOFFSETENABLE	TOGGLE	T	Vch Offset Enable
VCHOFFSET	QUANT	0	Vch Offset (V)
VCHFILTER	IQUANT	3	Vch Filter
ACHRANGE	IQUANT	2	Ach Range
ACHOFFSETENABLE	TOGGLE	F	Ach Offset Enable
ACHOFFSET	QUANT	0	Ach Offset (V)
ACHFILTER	IQUANT	3	Ach Filter
IERANGELOWERLIMIT	IQUANT	1	I/E Range Lower Limit
IERANGEMODE	TOGGLE	F	I/E AutoRange
IERANGE	IQUANT	5	I/E Range
POSFEEDENABLE	TOGGLE	F	Positive Feedback IR Comp
POSFEEDRESISTANCE	QUANT	0	Positive Feedback Resistance (ohm)
ACHSELECT	IQUANT	0	Ach Select
CABLEID	IQUANT	14	Cable ID
DCCALDATE	LABEL	8/19/2019	DC Calibration Date
ACCALDATE	LABEL	8/19/2019	AC Calibration Date
THERMOSELECT	IQUANT	1	Thermo Select
FRAMEWORKVERSION	QUANT	6.33	Framework Version
INSTRUMENTVERSION	LABEL	3.50	Instrument Version
ZCURVE	TABLE
	Pt	Time	Freq	Zreal	Zimag	Zsig	Zmod	Zphz	Idc	Vdc	IERange
	#	s	Hz	ohm	ohm	V	ohm	°	A	V	#
	0	1	1000078	2402.404	-1758.426	1	2977.181	-36.20205	5.005991E-006	0.0053356	8
	1	2	794390.6	2749.674	-1700.613	1	3233.078	-31.73588	-1.281146E-006	0.0056709	8
	2	4	630984.4	3080.452	-1574.313	1	3459.429	-27.07	4.540754E-006	0.0050298	8
	3	5	501234.4	3336.012	-1413.556	1	3623.136	-22.96364	1.767551E-006	0.0051511	8
	4	7	398109.4	3541.721	-1253.24	1	3756.913	-19.48636	3.327979E-007	0.0055893	8
	5	8	316265.6	3710.53	-1084.123	1	3865.664	-16.28703	-4.477752E-006	0.0063573	8
	6	9	251203.1	3835.391	-940.8235	1	3949.098	-13.78255	1.11804E-006	0.0054967	8
	7	11	199546.9	3928.806	-811.9925	1	4011.839	-11.67729	5.165936E-007	0.005331	8
	8	12	158578.1	3994.947	-697.7429	1	4055.422	-9.90714	4.44687E-006	0.0045838	8
	9	14	125953.1	4076.717	-559.8122	1	4114.974	-7.81892	4.819955E-007	0.0041032	7
	10	15	100078.1	4119.908	-501.7863	1	4150.354	-6.944167	-8.38419E-008	0.0056226	7
	11	16	79453.13	4158.08	-463.9961	1	4183.888	-6.367239	5.503637E-008	0.0054115	7
	12	18	63140.62	4193.886	-437.4212	1	4216.636	-5.954406	1.246343E-008	0.0054213	7
	13	19	50203.12	4227.991	-423.4341	1	4249.141	-5.719113	1.216033E-007	0.0053164	7
	14	20	39890.62	4262.218	-419.4344	1	4282.806	-5.620242	-6.798067E-011	0.0054909	7
	15	22	31640.63	4297.478	-427.4195	1	4318.681	-5.679856	1.217908E-007	0.005318	7
	16	23	25171.88	4333.142	-446.0785	1	4356.042	-5.877651	1.211376E-007	0.0053163	7
	17	24	20015.62	4373.15	-475.9889	1	4398.978	-6.211819	1.476684E-008	0.0054173	7
	18	26	15890.62	4414.206	-514.2861	1	4444.063	-6.645402	-8.689477E-009	0.0055468	7
	19	27	12609.37	4460.732	-567.2921	1	4496.66	-7.247665	-5.527083E-008	0.0055655	7
	20	28	10078.13	4506.428	-631.4227	1	4550.449	-7.976129	1.075732E-007	0.0053979	7
	21	30	8015.625	4556.966	-712.4869	1	4612.329	-8.886317	-3.146758E-008	0.0054964	7
	22	31	6328.125	4616.527	-817.7343	1	4688.391	-10.04472	-8.466024E-009	0.0054375	7
	23	33	5015.625	4677.634	-943.8734	1	4771.913	-11.4082	-4.487328E-009	0.0054684	7
	24	34	3984.375	4742.952	-1095.066	1	4867.727	-13.0008	1.102799E-007	0.0053919	7
	25	35	3170.956	4815.552	-1283.973	1	4983.786	-14.92948	-8.176508E-008	0.0056073	7
	26	37	2527.573	4893.744	-1511.371	1	5121.813	-17.16264	-4.430995E-008	0.0055046	7
	27	38	1976.103	4989.61	-1816.856	1	5310.101	-20.00797	-4.433496E-008	0.0054989	7
	28	39	1577.524	5088.312	-2158.571	1	5527.237	-22.9877	3.038691E-009	0.0054756	7
	29	41	1265.625	5205.198	-2567.695	1	5804.063	-26.25686	4.919185E-008	0.005433	7
	30	42	998.264	5346.072	-3103.399	1	6181.55	-30.1352	-6.34261E-008	0.0056101	7
	31	43	796.875	5499.384	-3729.236	1	6644.579	-34.14194	2.251944E-008	0.0055751	7
	32	45	627.7902	5693.69	-4536.39	1	7279.9	-38.54573	4.762758E-008	0.0054438	7
	33	46	505.5147	5876.907	-5431.183	1	8002.236	-42.74277	2.395103E-008	0.0055798	7
	34	48	397.9953	6159.002	-6653.871	1	9066.824	-47.21182	5.502856E-009	0.0055153	7
	35	49	315.5048	6465.587	-8111.161	1	10372.79	-51.44087	7.046981E-010	0.00546	6
	36	50	252.4038	6814.637	-9835.06	1	11965.27	-55.28222	1.321534E-009	0.0054612	6
	37	52	198.6229	7275.729	-12119.25	1	14135.5	-59.02171	1.032289E-009	0.0054593	6
	38	53	158.3615	7820.15	-14785.04	1	16725.79	-62.1246	8.861662E-010	0.0054594	6
	39	54	125.558	8525.586	-18135.08	1	20039.13	-64.82105	5.541771E-010	0.0054616	6
	40	56	100.4464	9392.917	-22074.03	1	23989.36	-66.94933	1.492029E-009	0.0054519	6
	41	57	79.00281	10650.58	-27315.76	1	29318.69	-68.69889	1.263521E-009	0.0054536	6
	42	59	63.3446	12021.6	-33357.23	1	35457.35	-70.18136	3.916934E-010	0.0054494	6
	43	60	49.86702	14167.06	-40661.29	1	43058.64	-70.79083	-1.339234E-010	0.0054496	6
	44	61	39.72458	16860.43	-49660.06	1	52444.21	-71.24678	5.438991E-010	0.005459	6
	45	63	31.6723	20507.53	-60333.26	1	63723.32	-71.22689	1.744319E-010	0.005453	6
	46	64	24.93351	25278.74	-73686.62	1	77902.07	-71.06509	3.060969E-010	0.0054527	6
	47	66	19.86229	31441.25	-88758.84	1	94163.07	-70.49421	1.099259E-009	0.0054587	6
	48	67	15.83615	39524.03	-106099.6	1	113222.2	-69.56872	2.160064E-010	0.0054603	5
	49	68	12.40079	50309.05	-128473.5	1	137972.6	-68.61515	5.569906E-010	0.005459	5
	50	70	9.93114	63425.31	-151639.6	1	164369.5	-67.30223	9.123938E-010	0.0054571	5
	51	71	7.944915	79416	-177963.6	1	194879.3	-65.95125	-5.780992E-010	0.0054606	5
	52	73	6.317385	100260.7	-208548	1	231396.8	-64.32379	6.865781E-011	0.0054462	5
	53	75	5.008013	125892.7	-242832.6	1	273526.3	-62.59623	1.589062E-011	0.0054585	5
	54	78	3.945707	156968.5	-281073.6	1	321934	-60.81838	-7.330202E-011	0.0054564	5
	55	80	3.158693	190842.7	-319542.4	1	372193.9	-59.15277	1.179029E-010	0.0054585	5
	56	84	2.504006	230533.5	-363020.3	1	430034.3	-57.5827	1.383473E-011	0.0054622	5
	57	86	1.998082	272380.5	-408837.9	1	491263.3	-56.32722	3.871765E-010	0.0054464	5
	58	89	1.584686	321413.8	-460906.3	1	561908.8	-55.10995	4.858256E-011	0.0054055	5
	59	93	1.266892	369673.6	-518145.3	1	636500.7	-54.49384	2.816059E-010	0.0054582	5
	60	97	0.999041	427313.1	-588947.5	1	727637.1	-54.03709	-2.179831E-010	0.0054298	5
