EXPLAIN
TAG	EISPOT
TITLE	LABEL	Potentiostatic EIS	Test &Identifier
DATE	LABEL	10/10/2019	Date
TIME	LABEL	10:50:09	Time
NOTES	NOTES	1	&Notes...
	
PSTAT	PSTAT	REF600-11020	Potentiostat
VDC	POTEN	0.00000E+000	T	DC &Voltage (V)
FREQINIT	QUANT	1.00000E+006	Initial Fre&q. (Hz)
FREQFINAL	QUANT	1.00000E+000	Final Fre&q. (Hz)
PTSPERDEC	QUANT	1.00000E+001	Points/&decade
VAC	QUANT	2.50000E+001	AC &Voltage (mV rms)
AREA	QUANT	1.00000E-002	&Area (cm^2)
CONDIT	TWOPARAM	T	5.00000E+000	0.00000E+000	Conditionin&g	Time(s)	E(V)
DELAY	TWOPARAM	T	5.00000E+000	0.00000E+000	Init. De&lay	Time(s)	Stab.(mV/s)
SPEED	SELECTOR	1	&Optimize for:
ZGUESS	QUANT	1.00000E+004	E&stimated Z (ohms)
OCVCURVE	TABLE	19
	Pt	T	Vf	Vm	Ach	Over
	#	s	V vs. Ref.	V	V	bits
	0	0.258333	3.84389E-003	3.84389E-003	5.34633E-004	...........
	1	0.516667	3.83529E-003	3.39362E-003	5.50666E-004	...........
	2	0.775	3.78051E-003	2.86414E-003	5.41933E-004	...........
	3	1.03333	3.62186E-003	2.50463E-003	5.37233E-004	...........
	4	1.29167	3.34172E-003	2.36626E-003	5.38133E-004	...........
	5	1.55	3.00364E-003	2.50653E-003	5.44533E-004	...........
	6	1.80833	2.71582E-003	2.60744E-003	5.44466E-004	...........
	7	2.06667	2.54799E-003	2.30849E-003	5.32433E-004	...........
	8	2.325	2.47011E-003	1.84672E-003	5.36899E-004	...........
	9	2.58333	2.43399E-003	4.45599E-003	5.46433E-004	...........
	10	2.84167	2.70193E-003	1.27274E-002	5.39033E-004	...........
	11	3.1	3.99956E-003	1.66216E-002	5.33700E-004	...........
	12	3.35833	6.80778E-003	1.68439E-002	5.36433E-004	...........
	13	3.61667	1.04893E-002	1.61678E-002	5.42499E-004	...........
	14	3.875	1.36765E-002	1.50499E-002	5.41066E-004	...........
	15	4.13333	1.54496E-002	1.40204E-002	5.34066E-004	...........
	16	4.39167	1.57920E-002	1.26541E-002	5.39533E-004	...........
	17	4.65	1.51592E-002	1.02413E-002	5.42599E-004	...........
	18	4.90833	1.39737E-002	9.70767E-003	5.37499E-004	...........
EOC	QUANT	0.0139737	Open Circuit (V)
PSTATMODEL	IQUANT	4	Pstat Model
PSTATSECTION	LABEL	REF600-11020	Pstat Section
PSTATSERIALNO	LABEL	11020	Pstat Serial Number
CTRLMODE	IQUANT	1	Control Mode
IESTAB	IQUANT	0	I/E Stability
CASPEED	IQUANT	1	Control Amp Speed
CONVENTION	IQUANT	1	Current Convention
ICHRANGE	IQUANT	2	Ich Range
ICHRANGEMODE	TOGGLE	F	Ich Auto Range
ICHOFFSETENABLE	TOGGLE	T	Ich Offset Enable
ICHOFFSET	QUANT	0	Ich Offset (V)
ICHFILTER	IQUANT	3	Ich Filter
VCHRANGE	IQUANT	2	Vch Range
VCHRANGEMODE	TOGGLE	F	Vch Auto Range
VCHOFFSETENABLE	TOGGLE	T	Vch Offset Enable
VCHOFFSET	QUANT	0	Vch Offset (V)
VCHFILTER	IQUANT	3	Vch Filter
ACHRANGE	IQUANT	2	Ach Range
ACHOFFSETENABLE	TOGGLE	F	Ach Offset Enable
ACHOFFSET	QUANT	0	Ach Offset (V)
ACHFILTER	IQUANT	3	Ach Filter
IERANGELOWERLIMIT	IQUANT	1	I/E Range Lower Limit
IERANGEMODE	TOGGLE	F	I/E AutoRange
IERANGE	IQUANT	6	I/E Range
POSFEEDENABLE	TOGGLE	F	Positive Feedback IR Comp
POSFEEDRESISTANCE	QUANT	0	Positive Feedback Resistance (ohm)
ACHSELECT	IQUANT	0	Ach Select
CABLEID	IQUANT	14	Cable ID
DCCALDATE	LABEL	8/19/2019	DC Calibration Date
ACCALDATE	LABEL	8/19/2019	AC Calibration Date
THERMOSELECT	IQUANT	1	Thermo Select
FRAMEWORKVERSION	QUANT	6.33	Framework Version
INSTRUMENTVERSION	LABEL	3.50	Instrument Version
ZCURVE	TABLE
	Pt	Time	Freq	Zreal	Zimag	Zsig	Zmod	Zphz	Idc	Vdc	IERange
	#	s	Hz	ohm	ohm	V	ohm	°	A	V	#
	0	2	1000078	2739.251	-2075.825	1	3436.939	-37.15513	-3.44985E-007	0.0162109	8
	1	4	794390.6	3146.017	-2012.05	1	3734.403	-32.60114	-2.258879E-006	0.0164248	8
	2	5	630984.4	3539.169	-1891.609	1	4012.967	-28.12353	1.09E-006	0.0157679	8
	3	6	501234.4	3860.491	-1731.698	1	4231.096	-24.15954	-6.778483E-007	0.015644	8
	4	8	398109.4	4125.79	-1548.48	1	4406.806	-20.57198	-8.507074E-007	0.0159708	8
	5	9	316265.6	4338.949	-1390.126	1	4556.197	-17.76458	2.269433E-006	0.0151181	8
	6	11	251203.1	4519.958	-1202.728	1	4677.241	-14.90071	-2.251312E-006	0.0161555	8
	7	12	199546.9	4641.95	-1058.595	1	4761.126	-12.84659	-1.660857E-006	0.0158662	8
	8	13	158578.1	4733.716	-947.4528	1	4827.601	-11.31819	7.361231E-007	0.0155831	8
	9	15	125953.1	4870.81	-832.1754	1	4941.387	-9.69534	3.707356E-007	0.01474	7
	10	16	100078.1	4917.884	-744.8645	1	4973.973	-8.612579	-2.885785E-008	0.01553	7
	11	18	79453.13	4987.136	-707.0128	1	5037.002	-8.068899	-1.029751E-008	0.0155685	7
	12	19	63140.62	5047.758	-689.4487	1	5094.625	-7.777624	-1.281505E-008	0.0154752	7
	13	20	50203.12	5111.114	-685.6759	1	5156.902	-7.640833	5.668507E-008	0.0154744	7
	14	22	39890.62	5170.83	-698.4866	1	5217.793	-7.693069	1.650995E-009	0.0155168	7
	15	23	31640.63	5242.183	-723.7073	1	5291.903	-7.860259	1.564509E-008	0.0154486	7
	16	24	25171.88	5314.659	-765.2181	1	5369.466	-8.193283	2.061138E-008	0.0154463	7
	17	26	20015.62	5386.708	-813.7781	1	5447.831	-8.590797	6.148885E-008	0.015439	7
	18	27	15890.62	5476.767	-895.0045	1	5549.416	-9.281145	-7.201772E-009	0.0154815	7
	19	28	12609.37	5573.047	-987.267	1	5659.819	-10.04575	1.346519E-007	0.0153273	7
	20	30	10078.13	5673.659	-1090.728	1	5777.551	-10.88202	-6.457933E-009	0.0154712	7
	21	31	8015.625	5800.096	-1239.161	1	5930.989	-12.05965	-9.381752E-009	0.0155096	7
	22	32	6328.125	5925.704	-1373.859	1	6082.882	-13.05325	2.074889E-008	0.0156244	7
	23	34	5015.625	6076.861	-1548.475	1	6271.045	-14.2956	-6.882831E-008	0.0156572	7
	24	35	3984.375	6255.295	-1750.633	1	6495.647	-15.63503	8.599185E-008	0.0153474	7
	25	37	3170.956	6430.67	-1980.39	1	6728.705	-17.11675	-8.390069E-008	0.0156465	7
	26	38	2527.573	6635.992	-2239.684	1	7003.754	-18.64982	4.500706E-008	0.0153815	7
	27	39	1976.103	6886.144	-2567.191	1	7349.112	-20.44572	6.054823E-008	0.0154314	7
	28	41	1577.524	7134.015	-2905.927	1	7703.154	-22.16273	2.397526E-008	0.0156179	7
	29	42	1265.625	7389.125	-3308.94	1	8096.188	-24.12342	1.196077E-007	0.0154226	7
	30	43	998.264	7685.715	-3803.19	1	8575.224	-26.32799	1.173867E-007	0.0154249	7
	31	45	796.875	7985.426	-4365.168	1	9100.644	-28.66286	-1.378018E-008	0.0155629	7
	32	46	627.7902	8309.557	-5080.56	1	9739.65	-31.4421	-1.934372E-009	0.0156306	6
	33	48	505.5147	8618.209	-5875.88	1	10430.7	-34.2861	6.231503E-009	0.0153264	6
	34	49	397.9953	8976.574	-6970.776	1	11365.33	-37.8312	1.822871E-009	0.0154829	6
	35	50	315.5048	9343.001	-8292.658	1	12492.39	-41.59161	1.142427E-009	0.0154845	6
	36	52	252.4038	9731.28	-9874.94	1	13864.07	-45.4198	1.323345E-009	0.0154823	6
	37	53	198.6229	10206.72	-11999.88	1	15753.54	-49.61656	4.906169E-010	0.0154782	6
	38	54	158.3615	10736.78	-14495.28	1	18038.61	-53.47235	1.261219E-009	0.015474	6
	39	56	125.558	11401.29	-17681.75	1	21038.87	-57.18586	7.640971E-010	0.0154807	6
	40	57	100.4464	12211.62	-21465.32	1	24695.82	-60.36444	1.066751E-009	0.0154766	6
	41	59	79.00281	13252.6	-26469.44	1	29601.73	-63.404	-2.905849E-010	0.0154794	6
	42	60	63.3446	14452.78	-32393.09	1	35471.04	-65.95508	7.307913E-010	0.0154803	6
	43	61	49.86702	16303.71	-39356.18	1	42599.53	-67.4977	-4.445804E-011	0.0154767	6
	44	63	39.72458	18750.31	-48109.79	1	51634.54	-68.70715	7.183336E-010	0.0154808	6
	45	64	31.6723	21921.07	-58434.91	1	62411.32	-69.4371	5.235812E-010	0.0154785	6
	46	65	24.93351	25945.17	-71603.33	1	76158.97	-70.08222	1.386062E-010	0.0154779	6
	47	67	19.86229	31149.67	-86674.79	1	92102.23	-70.23229	5.150841E-010	0.0154799	6
	48	68	15.83615	36858.59	-103622.5	1	109982.7	-70.4195	1.270734E-009	0.0154891	5
	49	70	12.40079	45860.14	-126911.6	1	134943.3	-70.13242	2.847157E-010	0.0154898	5
	50	71	9.93114	56288.61	-150576.4	1	160753.4	-69.5032	6.2629E-010	0.0154817	5
	51	73	7.944915	68758.01	-178579.6	1	191359.2	-68.94194	-2.569208E-010	0.0154872	5
	52	74	6.317385	84105.55	-212966.2	1	228972.4	-68.44973	4.195134E-010	0.0154766	5
	53	76	5.008013	102952.6	-253084.9	1	273223.7	-67.86397	2.71404E-010	0.0154885	5
	54	79	3.945707	125980.6	-301292.6	1	326570.5	-67.30855	2.690657E-011	0.0154787	5
	55	82	3.158693	151430.9	-354119.3	1	385138.7	-66.84715	2.971757E-010	0.0154947	5
	56	85	2.504006	182849.2	-418852.5	1	457024.3	-66.41643	-4.071275E-011	0.0154825	5
	57	88	1.998082	218323.9	-492220.6	1	538466.8	-66.08038	1.335464E-010	0.0154464	5
	58	91	1.584686	262102.1	-579138.2	1	635687.4	-65.6498	-1.641498E-010	0.0155162	5
	59	94	1.266892	311212.5	-683246.1	1	750785.2	-65.51115	-3.500236E-011	0.0154568	5
	60	99	0.999041	375826.5	-809823.2	1	892781.7	-65.10471	2.301904E-010	0.0155253	5
