EXPLAIN
TAG	EISPOT
TITLE	LABEL	Potentiostatic EIS	Test &Identifier
DATE	LABEL	10/26/2019	Date
TIME	LABEL	10:20:56	Time
NOTES	NOTES	1	&Notes...
	
PSTAT	PSTAT	REF600-11020	Potentiostat
VDC	POTEN	0.00000E+000	T	DC &Voltage (V)
FREQINIT	QUANT	1.00000E+006	Initial Fre&q. (Hz)
FREQFINAL	QUANT	1.00000E+000	Final Fre&q. (Hz)
PTSPERDEC	QUANT	1.00000E+001	Points/&decade
VAC	QUANT	2.50000E+001	AC &Voltage (mV rms)
AREA	QUANT	1.00000E-002	&Area (cm^2)
CONDIT	TWOPARAM	T	5.00000E+000	0.00000E+000	Conditionin&g	Time(s)	E(V)
DELAY	TWOPARAM	T	5.00000E+000	0.00000E+000	Init. De&lay	Time(s)	Stab.(mV/s)
SPEED	SELECTOR	0	&Optimize for:
ZGUESS	QUANT	1.00000E+005	E&stimated Z (ohms)
OCVCURVE	TABLE	19
	Pt	T	Vf	Vm	Ach	Over
	#	s	V vs. Ref.	V	V	bits
	0	0.258333	5.81408E-003	5.81408E-003	5.83665E-004	...........
	1	0.516667	5.81305E-003	5.76005E-003	5.86865E-004	...........
	2	0.775	5.80699E-003	5.72377E-003	5.83165E-004	...........
	3	1.03333	5.79116E-003	5.70684E-003	5.83932E-004	...........
	4	1.29167	5.76633E-003	5.69959E-003	5.83932E-004	...........
	5	1.55	5.73968E-003	5.69732E-003	5.88599E-004	...........
	6	1.80833	5.71843E-003	5.69593E-003	5.88199E-004	...........
	7	2.06667	5.70537E-003	5.70429E-003	5.88932E-004	...........
	8	2.325	5.69980E-003	5.71144E-003	5.86765E-004	...........
	9	2.58333	5.70016E-003	5.72655E-003	5.78099E-004	...........
	10	2.84167	5.70523E-003	5.74064E-003	5.78132E-004	...........
	11	3.1	5.71422E-003	5.75957E-003	5.74599E-004	...........
	12	3.35833	5.72642E-003	5.77234E-003	5.79199E-004	...........
	13	3.61667	5.74080E-003	5.78917E-003	5.77766E-004	...........
	14	3.875	5.75633E-003	5.80934E-003	5.83232E-004	...........
	15	4.13333	5.77266E-003	5.83317E-003	5.76999E-004	...........
	16	4.39167	5.79043E-003	5.85821E-003	5.87999E-004	...........
	17	4.65	5.81034E-003	5.88231E-003	5.80432E-004	...........
	18	4.90833	5.83234E-003	5.90298E-003	5.85732E-004	...........
EOC	QUANT	0.0058323	Open Circuit (V)
PSTATMODEL	IQUANT	4	Pstat Model
PSTATSECTION	LABEL	REF600-11020	Pstat Section
PSTATSERIALNO	LABEL	11020	Pstat Serial Number
CTRLMODE	IQUANT	1	Control Mode
IESTAB	IQUANT	0	I/E Stability
CASPEED	IQUANT	1	Control Amp Speed
CONVENTION	IQUANT	1	Current Convention
ICHRANGE	IQUANT	2	Ich Range
ICHRANGEMODE	TOGGLE	F	Ich Auto Range
ICHOFFSETENABLE	TOGGLE	T	Ich Offset Enable
ICHOFFSET	QUANT	0	Ich Offset (V)
ICHFILTER	IQUANT	3	Ich Filter
VCHRANGE	IQUANT	2	Vch Range
VCHRANGEMODE	TOGGLE	F	Vch Auto Range
VCHOFFSETENABLE	TOGGLE	T	Vch Offset Enable
VCHOFFSET	QUANT	0	Vch Offset (V)
VCHFILTER	IQUANT	3	Vch Filter
ACHRANGE	IQUANT	2	Ach Range
ACHOFFSETENABLE	TOGGLE	F	Ach Offset Enable
ACHOFFSET	QUANT	0	Ach Offset (V)
ACHFILTER	IQUANT	3	Ach Filter
IERANGELOWERLIMIT	IQUANT	1	I/E Range Lower Limit
IERANGEMODE	TOGGLE	F	I/E AutoRange
IERANGE	IQUANT	5	I/E Range
POSFEEDENABLE	TOGGLE	F	Positive Feedback IR Comp
POSFEEDRESISTANCE	QUANT	0	Positive Feedback Resistance (ohm)
ACHSELECT	IQUANT	0	Ach Select
CABLEID	IQUANT	14	Cable ID
DCCALDATE	LABEL	8/19/2019	DC Calibration Date
ACCALDATE	LABEL	8/19/2019	AC Calibration Date
THERMOSELECT	IQUANT	1	Thermo Select
FRAMEWORKVERSION	QUANT	6.33	Framework Version
INSTRUMENTVERSION	LABEL	3.50	Instrument Version
ZCURVE	TABLE
	Pt	Time	Freq	Zreal	Zimag	Zsig	Zmod	Zphz	Idc	Vdc	IERange
	#	s	Hz	ohm	ohm	V	ohm	°	A	V	#
	0	2	1000078	2332.658	-1621.552	1	2840.902	-34.80518	2.345254E-007	0.0077091	8
	1	2	794390.6	2653.528	-1551.185	1	3073.66	-30.30947	1.267406E-006	0.007363	8
	2	2	630984.4	2946.02	-1429.434	1	3274.495	-25.88305	1.472035E-006	0.0070579	8
	3	3	501234.4	3188.614	-1292.334	1	3440.55	-22.06253	4.724497E-007	0.0073577	8
	4	3	398109.4	3379.767	-1132.421	1	3564.436	-18.52389	-2.297401E-006	0.0079447	8
	5	3	316265.6	3530.237	-990.015	1	3666.429	-15.66555	3.424634E-007	0.007359	8
	6	4	251203.1	3640.693	-858.0053	1	3740.431	-13.26097	-2.349827E-006	0.0078177	8
	7	4	199546.9	3724.513	-738.3021	1	3796.984	-11.21227	-9.824208E-007	0.0075802	8
	8	4	158578.1	3802.923	-636.0726	1	3855.75	-9.495332	-2.617905E-007	0.0073444	8
	9	5	125953.1	3869.005	-518.7761	1	3903.63	-7.636963	-1.73417E-007	0.0074476	7
	10	5	100078.1	3897.328	-455.8029	1	3923.892	-6.670591	-5.727579E-008	0.007483	7
	11	5	79453.13	3933.36	-417.8463	1	3955.491	-6.063869	-1.706248E-008	0.0072853	7
	12	6	63140.62	3963.727	-393.6531	1	3983.227	-5.671668	7.499692E-008	0.0072433	7
	13	6	50203.12	3992.673	-377.1208	1	4010.444	-5.395762	3.340374E-008	0.0072667	7
	14	6	39890.62	4023.042	-373.0682	1	4040.303	-5.298049	-3.084563E-008	0.0073088	7
	15	7	31640.63	4051.35	-379.3243	1	4069.069	-5.34896	-3.77825E-008	0.0073909	7
	16	7	25171.88	4080.834	-394.8412	1	4099.892	-5.526451	-1.840124E-009	0.0072734	7
	17	7	20015.62	4111.66	-423.2266	1	4133.384	-5.876945	3.484617E-008	0.0072649	7
	18	8	15890.62	4141.042	-461.4967	1	4166.679	-6.359064	-4.633618E-010	0.0072775	7
	19	8	12609.37	4173.825	-513.3853	1	4205.28	-7.012225	-5.620533E-008	0.0074778	7
	20	8	10078.13	4207.355	-579.7333	1	4247.108	-7.845407	3.560875E-008	0.0071954	7
	21	8	8015.625	4237.099	-661.4394	1	4288.416	-8.872643	-5.776577E-009	0.0073118	7
	22	9	6328.125	4287.029	-778.8749	1	4357.208	-10.29728	-1.387611E-008	0.0072799	7
	23	9	5015.625	4331.489	-915.7593	1	4427.235	-11.93763	8.616005E-009	0.0072411	7
	24	9	3984.375	4387.727	-1081.364	1	4519.015	-13.84476	-3.007051E-008	0.0073004	7
	25	10	3170.956	4436.509	-1295.928	1	4621.909	-16.28337	9.622327E-008	0.0071541	7
	26	10	2527.573	4500.268	-1554.01	1	4761.025	-19.05056	-5.918796E-009	0.0073321	7
	27	10	1976.103	4580.517	-1901.349	1	4959.462	-22.54309	9.743903E-008	0.007152	7
	28	11	1577.524	4665.092	-2296.503	1	5199.712	-26.20982	-3.483053E-008	0.0073772	7
	29	11	1265.625	4778.487	-2757.692	1	5517.137	-29.98949	4.847615E-008	0.0072192	7
	30	11	998.264	4919.052	-3373.272	1	5964.565	-34.44064	-3.258511E-008	0.0072992	7
	31	12	796.875	5073.746	-4085.275	1	6514.013	-38.8403	-5.748052E-008	0.0073604	7
	32	12	627.7902	5275.561	-5006.163	1	7272.771	-43.4991	3.354684E-008	0.0072501	7
	33	12	505.5147	5494.996	-6032.75	1	8160.212	-47.67084	9.702444E-008	0.0071502	7
	34	13	397.9953	5791.176	-7422.788	1	9414.643	-52.03904	1.846461E-009	0.0073165	7
	35	13	315.5048	6145.75	-9079.824	1	10964.19	-55.90759	-4.718685E-010	0.0072566	6
	36	13	252.4038	6563.781	-11032.36	1	12837.3	-59.24918	-2.646375E-011	0.0072551	6
	37	14	198.6229	7129.441	-13614.58	1	15368.34	-62.36065	1.087344E-010	0.0072562	6
	38	14	158.3615	7812.517	-16616.45	1	18361.42	-64.8186	1.508116E-010	0.0072532	6
	39	14	125.558	8737.084	-20382	1	22175.72	-66.7968	3.341811E-010	0.0072549	6
	40	15	100.4464	9937.77	-24823.4	1	26738.74	-68.18186	9.165003E-010	0.0072553	6
	41	15	79.00281	11562.62	-30656.7	1	32764.72	-69.33531	1.255184E-009	0.0072525	6
	42	15	63.3446	13741.01	-36525.56	1	39024.76	-69.38358	-2.183862E-010	0.007247	6
	43	16	49.86702	16922.16	-44972.26	1	48050.64	-69.37968	-7.472809E-010	0.0072445	6
	44	16	39.72458	20538.6	-54688.76	1	58418.27	-69.41611	-1.936974E-010	0.0072507	6
	45	16	31.6723	25591.96	-65895.23	1	70690.38	-68.77515	-8.089541E-010	0.0072489	6
	46	17	24.93351	32923.23	-78958.9	1	85547.92	-67.36549	-2.559758E-010	0.0072463	6
	47	17	19.86229	41500.7	-93196.71	1	102019.3	-65.99648	-1.286903E-009	0.0072465	6
	48	17	15.83615	53487.43	-110454.2	1	122723.4	-64.16141	2.999388E-009	0.0072516	5
	49	18	12.40079	67725.5	-128448.6	1	145209.5	-62.19922	-6.82664E-010	0.0072541	5
	50	18	9.93114	82294.34	-146224.5	1	167791.5	-60.62944	1.021793E-009	0.0072521	5
	51	19	7.944915	100434.6	-166156.7	1	194152.4	-58.84882	-1.547393E-010	0.0072615	5
	52	19	6.317385	121351.8	-188814.3	1	224448.4	-57.27097	-3.610462E-010	0.0072573	5
	53	20	5.008013	145321.8	-212871.1	1	257745.1	-55.67963	5.786154E-011	0.0072641	5
	54	21	3.945707	171750.1	-240109.4	1	295212.8	-54.42387	-2.52216E-010	0.0072524	5
	55	22	3.158693	199045.6	-268166	1	333964.3	-53.41543	1.419449E-010	0.0072512	5
	56	24	2.504006	228212.6	-301387.7	1	378041.7	-52.86677	1.01461E-010	0.0072536	5
	57	25	1.998082	258853.8	-338358.1	1	426018.2	-52.58296	-1.897476E-010	0.0072079	5
	58	27	1.584686	290657.8	-383894.3	1	481515.1	-52.86956	-1.379062E-010	0.0072304	5
	59	29	1.266892	324149.1	-435203.8	1	542655.5	-53.32047	-2.34867E-011	0.0072653	5
	60	31	0.999041	363589	-502268.3	1	620056.8	-54.09945	1.59816E-011	0.0072861	5
