EXPLAIN
TAG	EISPOT
TITLE	LABEL	Potentiostatic IDE	Test &Identifier
DATE	LABEL	9/6/2019	Date
TIME	LABEL	8:58:00	Time
NOTES	NOTES	1	&Notes...
	
PSTAT	PSTAT	REF600-11020	Potentiostat
VDC	POTEN	0.00000E+000	T	DC &Voltage (V)
FREQINIT	QUANT	1.00000E+006	Initial Fre&q. (Hz)
FREQFINAL	QUANT	1.00000E+000	Final Fre&q. (Hz)
PTSPERDEC	QUANT	1.00000E+001	Points/&decade
VAC	QUANT	2.50000E+001	AC &Voltage (mV rms)
AREA	QUANT	1.00000E-002	&Area (cm^2)
CONDIT	TWOPARAM	T	5.00000E+000	0.00000E+000	Conditionin&g	Time(s)	E(V)
DELAY	TWOPARAM	T	5.00000E+000	0.00000E+000	Init. De&lay	Time(s)	Stab.(mV/s)
SPEED	SELECTOR	1	&Optimize for:
ZGUESS	QUANT	1.00000E+007	E&stimated Z (ohms)
OCVCURVE	TABLE	19
	Pt	T	Vf	Vm	Ach	Over
	#	s	V vs. Ref.	V	V	bits
	0	0.258333	2.02677E-003	2.02677E-003	5.71832E-004	...........
	1	0.516667	2.01741E-003	1.53655E-003	5.71666E-004	...........
	2	0.775	1.96068E-003	1.11237E-003	5.73766E-004	...........
	3	1.03333	1.80302E-003	7.19087E-004	5.76399E-004	...........
	4	1.29167	1.52745E-003	3.61439E-004	5.77766E-004	...........
	5	1.55	1.17143E-003	2.68668E-005	5.77599E-004	...........
	6	1.80833	7.89571E-004	-2.85068E-004	5.77366E-004	...........
	7	2.06667	4.18879E-004	-5.75518E-004	5.80299E-004	...........
	8	2.325	7.36905E-005	-8.50360E-004	5.76399E-004	...........
	9	2.58333	-2.44926E-004	-1.10231E-003	5.78699E-004	...........
	10	2.84167	-5.40197E-004	-1.34585E-003	5.82132E-004	...........
	11	3.1	-8.15592E-004	-1.57626E-003	5.80032E-004	...........
	12	3.35833	-1.07423E-003	-1.79891E-003	5.75332E-004	...........
	13	3.61667	-1.31883E-003	-2.00608E-003	5.77732E-004	...........
	14	3.875	-1.55133E-003	-2.20886E-003	5.81399E-004	...........
	15	4.13333	-1.77286E-003	-2.40030E-003	5.80865E-004	...........
	16	4.39167	-1.98426E-003	-2.58504E-003	5.76566E-004	...........
	17	4.65	-2.18637E-003	-2.76356E-003	5.81265E-004	...........
	18	4.90833	-2.38005E-003	-2.93823E-003	5.76599E-004	...........
EOC	QUANT	-0.0023801	Open Circuit (V)
PSTATMODEL	IQUANT	4	Pstat Model
PSTATSECTION	LABEL	REF600-11020	Pstat Section
PSTATSERIALNO	LABEL	11020	Pstat Serial Number
CTRLMODE	IQUANT	1	Control Mode
IESTAB	IQUANT	0	I/E Stability
CASPEED	IQUANT	1	Control Amp Speed
CONVENTION	IQUANT	1	Current Convention
ICHRANGE	IQUANT	2	Ich Range
ICHRANGEMODE	TOGGLE	F	Ich Auto Range
ICHOFFSETENABLE	TOGGLE	T	Ich Offset Enable
ICHOFFSET	QUANT	0	Ich Offset (V)
ICHFILTER	IQUANT	3	Ich Filter
VCHRANGE	IQUANT	2	Vch Range
VCHRANGEMODE	TOGGLE	F	Vch Auto Range
VCHOFFSETENABLE	TOGGLE	T	Vch Offset Enable
VCHOFFSET	QUANT	0	Vch Offset (V)
VCHFILTER	IQUANT	3	Vch Filter
ACHRANGE	IQUANT	2	Ach Range
ACHOFFSETENABLE	TOGGLE	F	Ach Offset Enable
ACHOFFSET	QUANT	0	Ach Offset (V)
ACHFILTER	IQUANT	3	Ach Filter
IERANGELOWERLIMIT	IQUANT	1	I/E Range Lower Limit
IERANGEMODE	TOGGLE	F	I/E AutoRange
IERANGE	IQUANT	2	I/E Range
POSFEEDENABLE	TOGGLE	F	Positive Feedback IR Comp
POSFEEDRESISTANCE	QUANT	0	Positive Feedback Resistance (ohm)
ACHSELECT	IQUANT	0	Ach Select
CABLEID	IQUANT	14	Cable ID
DCCALDATE	LABEL	8/19/2019	DC Calibration Date
ACCALDATE	LABEL	8/19/2019	AC Calibration Date
THERMOSELECT	IQUANT	1	Thermo Select
FRAMEWORKVERSION	QUANT	6.33	Framework Version
INSTRUMENTVERSION	LABEL	3.50	Instrument Version
ZCURVE	TABLE
	Pt	Time	Freq	Zreal	Zimag	Zsig	Zmod	Zphz	Idc	Vdc	IERange
	#	s	Hz	ohm	ohm	V	ohm	°	A	V	#
	0	2	1000078	2421.842	-1551.359	1	2876.115	-32.64241	-4.440886E-006	0.0006727	8
	1	4	794390.6	2717.167	-1455.614	1	3082.501	-28.1784	2.652609E-006	-0.0008184	8
	2	5	630984.4	2981.847	-1312.771	1	3258.033	-23.7617	8.585481E-007	-0.0009684	8
	3	6	501234.4	3176.535	-1156.162	1	3380.397	-19.99997	-2.284855E-006	-0.0003356	8
	4	8	398109.4	3334.293	-1009.136	1	3483.657	-16.83864	4.927091E-007	-0.0009178	8
	5	9	316265.6	3448.371	-863.9534	1	3554.951	-14.06534	3.199248E-006	-0.0014153	8
	6	10	251203.1	3529.027	-742.1977	1	3606.229	-11.87692	3.067974E-006	-0.001423	8
	7	11	199546.9	3607.082	-640.2454	1	3663.462	-10.06499	9.159169E-008	-0.0009497	8
	8	13	158578.1	3646.351	-572.5139	1	3691.022	-8.923166	5.110513E-007	-0.0010055	8
	9	14	125953.1	3701.211	-488.4625	1	3733.304	-7.518088	7.072638E-007	-0.0021465	7
	10	15	100078.1	3726.39	-448.0464	1	3753.229	-6.856105	2.789211E-008	-0.0010006	7
	11	17	79453.13	3758.564	-428.9702	1	3782.965	-6.511075	-2.5859E-008	-0.0009082	7
	12	18	63140.62	3790.991	-422.3941	1	3814.45	-6.357701	7.478129E-008	-0.0010346	7
	13	19	50203.12	3821.207	-427.3663	1	3845.031	-6.381479	2.949857E-008	-0.0010096	7
	14	21	39890.62	3855.101	-445.8458	1	3880.797	-6.597	-6.021927E-009	-0.0009011	7
	15	22	31640.63	3889.433	-474.475	1	3918.267	-6.955192	1.766606E-009	-0.0009573	7
	16	23	25171.88	3926.025	-516.9736	1	3959.916	-7.501473	1.572324E-008	-0.0009357	7
	17	25	20015.62	3965.764	-573.7144	1	4007.048	-8.231689	-3.594944E-008	-0.0008638	7
	18	26	15890.62	4010	-648.5516	1	4062.107	-9.187099	4.6754E-008	-0.000999	7
	19	27	12609.37	4059.459	-741.6024	1	4126.643	-10.35292	4.630551E-008	-0.0009987	7
	20	29	10078.13	4114.774	-850.238	1	4201.699	-11.67475	2.996736E-008	-0.0010101	7
	21	30	8015.625	4177.734	-991.179	1	4293.705	-13.34681	-1.230655E-009	-0.0009017	7
	22	31	6328.125	4250.962	-1165.211	1	4407.766	-15.32858	-7.4846E-009	-0.0008919	7
	23	33	5015.625	4338.184	-1375.222	1	4550.942	-17.58883	-2.078643E-008	-0.0008984	7
	24	34	3984.375	4437.444	-1625.016	1	4725.631	-20.113	-2.106617E-008	-0.0008551	7
	25	35	3170.956	4554.605	-1924.511	1	4944.509	-22.9061	1.687651E-008	-0.0009679	7
	26	37	2527.573	4688.524	-2282.308	1	5214.517	-25.95617	3.822785E-008	-0.0009302	7
	27	38	1976.103	4867.026	-2752.332	1	5591.357	-29.48842	-6.543879E-009	-0.0009174	7
	28	39	1577.524	5059.143	-3268.372	1	6023.054	-32.86378	4.617581E-008	-0.0010114	7
	29	41	1265.625	5284.211	-3866.651	1	6547.815	-36.1943	3.15494E-009	-0.0009621	7
	30	42	998.264	5564.193	-4641.224	1	7245.771	-39.83228	-1.649992E-008	-0.0009358	7
	31	43	796.875	5888.034	-5520.936	1	8071.535	-43.15707	-2.11598E-008	-0.0008545	7
	32	45	627.7902	6295.249	-6626.705	1	9140.207	-46.46935	5.158229E-008	-0.0010232	7
	33	46	505.5147	6728.291	-7837.512	1	10329.4	-49.3548	6.115707E-009	-0.0010798	6
	34	47	397.9953	7289.766	-9427.085	1	11916.82	-52.28597	8.342139E-010	-0.0009662	6
	35	49	315.5048	7931.166	-11293.2	1	13800	-54.91981	7.302232E-010	-0.000966	6
	36	50	252.4038	8654.852	-13447.67	1	15992.07	-57.23488	9.283779E-010	-0.0009706	6
	37	51	198.6229	9573.77	-16239.66	1	18851.63	-59.47936	8.455386E-010	-0.0009765	6
	38	53	158.3615	10610.6	-19435.84	1	22143.55	-61.36857	8.624976E-010	-0.0009729	6
	39	54	125.558	11879.3	-23390.3	1	26234.02	-63.07522	8.08524E-010	-0.0009704	6
	40	55	100.4464	13351.26	-27981	1	31003.11	-64.49165	5.914499E-010	-0.0009713	6
	41	57	79.00281	15305.52	-33933.36	1	37225.42	-65.7224	5.975535E-010	-0.0009749	6
	42	58	63.3446	17361	-40462.17	1	44029.44	-66.7774	5.413981E-010	-0.0009751	6
	43	59	49.86702	20439.73	-49165.07	1	53244.59	-67.42555	7.560326E-010	-0.0009796	6
	44	61	39.72458	23698.88	-59008.55	1	63589.67	-68.11873	7.798651E-010	-0.0009682	6
	45	62	31.6723	27935.28	-70757.95	1	76072.77	-68.45586	2.820578E-010	-0.0009818	6
	46	64	24.93351	33308.45	-85644.76	1	91893.84	-68.74824	7.25962E-010	-0.0009771	6
	47	65	19.86229	39676.42	-102457.7	1	109871.8	-68.83127	9.463077E-010	-0.0009659	5
	48	66	15.83615	47283.67	-122232.3	1	131059	-68.85181	4.428087E-010	-0.0009694	5
	49	67	12.40079	57853.83	-148369.8	1	159250.3	-68.6977	5.433956E-010	-0.0009686	5
	50	69	9.93114	69949.73	-175678.8	1	189092.6	-68.28912	6.340636E-010	-0.0009715	5
	51	70	7.944915	84548.75	-208230.2	1	224740.5	-67.90112	5.612092E-010	-0.0009701	5
	52	72	6.317385	102497.2	-247084.4	1	267500.3	-67.47002	5.714219E-010	-0.0009667	5
	53	74	5.008013	125112.8	-294255.4	1	319749.1	-66.96556	1.332134E-010	-0.0009718	5
	54	76	3.945707	153501.3	-350354.8	1	382506.3	-66.34028	3.534252E-010	-0.0009623	5
	55	79	3.158693	186090.2	-411339.5	1	451475.1	-65.65797	2.476295E-010	-0.0009543	5
	56	82	2.504006	227017.3	-486169.9	1	536561.3	-64.96975	2.85937E-011	-0.0009721	5
	57	85	1.998082	275957.6	-569085.3	1	632464	-64.13059	1.285084E-010	-0.0010097	5
	58	88	1.584686	335394.3	-665506.5	1	745243.8	-63.25334	8.321424E-011	-0.0009704	5
	59	91	1.266892	408583.8	-771681.3	1	873174	-62.10002	1.604417E-010	-0.0010101	5
	60	96	0.999041	497064.6	-899038.3	1	1027299	-61.06247	7.454495E-011	-0.000938	5
