EXPLAIN
TAG	EISPOT
TITLE	LABEL	Potentiostatic IDE	Test &Identifier
DATE	LABEL	9/18/2019	Date
TIME	LABEL	9:56:58	Time
NOTES	NOTES	1	&Notes...
	
PSTAT	PSTAT	REF600-11020	Potentiostat
VDC	POTEN	0.00000E+000	T	DC &Voltage (V)
FREQINIT	QUANT	1.00000E+006	Initial Fre&q. (Hz)
FREQFINAL	QUANT	1.00000E+000	Final Fre&q. (Hz)
PTSPERDEC	QUANT	1.00000E+001	Points/&decade
VAC	QUANT	2.50000E+001	AC &Voltage (mV rms)
AREA	QUANT	1.00000E-002	&Area (cm^2)
CONDIT	TWOPARAM	T	5.00000E+000	0.00000E+000	Conditionin&g	Time(s)	E(V)
DELAY	TWOPARAM	T	5.00000E+000	0.00000E+000	Init. De&lay	Time(s)	Stab.(mV/s)
SPEED	SELECTOR	1	&Optimize for:
ZGUESS	QUANT	1.00000E+007	E&stimated Z (ohms)
OCVCURVE	TABLE	19
	Pt	T	Vf	Vm	Ach	Over
	#	s	V vs. Ref.	V	V	bits
	0	0.258333	4.66253E-003	4.66253E-003	5.31633E-004	...........
	1	0.516667	4.66134E-003	4.60034E-003	5.33400E-004	...........
	2	0.775	4.65618E-003	4.65308E-003	5.28000E-004	...........
	3	1.03333	4.64700E-003	4.61653E-003	5.34400E-004	...........
	4	1.29167	4.63868E-003	4.66642E-003	5.33100E-004	...........
	5	1.55	4.63471E-003	4.58189E-003	5.34433E-004	...........
	6	1.80833	4.63129E-003	4.57753E-003	5.28200E-004	...........
	7	2.06667	4.62176E-003	4.58450E-003	5.35799E-004	...........
	8	2.325	4.60628E-003	4.56644E-003	5.32666E-004	...........
	9	2.58333	4.58726E-003	4.36975E-003	5.32333E-004	...........
	10	2.84167	4.55217E-003	4.14762E-003	5.27800E-004	...........
	11	3.1	4.47566E-003	3.94913E-003	5.29600E-004	...........
	12	3.35833	4.35034E-003	4.05492E-003	5.34566E-004	...........
	13	3.61667	4.20731E-003	3.93014E-003	5.30800E-004	...........
	14	3.875	4.09191E-003	4.08128E-003	5.33866E-004	...........
	15	4.13333	4.02845E-003	4.06477E-003	5.33666E-004	...........
	16	4.39167	4.01104E-003	3.90309E-003	5.32500E-004	...........
	17	4.65	4.01403E-003	4.14877E-003	5.35766E-004	...........
	18	4.90833	4.02359E-003	4.22450E-003	5.35600E-004	...........
EOC	QUANT	0.0040236	Open Circuit (V)
PSTATMODEL	IQUANT	4	Pstat Model
PSTATSECTION	LABEL	REF600-11020	Pstat Section
PSTATSERIALNO	LABEL	11020	Pstat Serial Number
CTRLMODE	IQUANT	1	Control Mode
IESTAB	IQUANT	0	I/E Stability
CASPEED	IQUANT	1	Control Amp Speed
CONVENTION	IQUANT	1	Current Convention
ICHRANGE	IQUANT	2	Ich Range
ICHRANGEMODE	TOGGLE	F	Ich Auto Range
ICHOFFSETENABLE	TOGGLE	T	Ich Offset Enable
ICHOFFSET	QUANT	0	Ich Offset (V)
ICHFILTER	IQUANT	3	Ich Filter
VCHRANGE	IQUANT	2	Vch Range
VCHRANGEMODE	TOGGLE	F	Vch Auto Range
VCHOFFSETENABLE	TOGGLE	T	Vch Offset Enable
VCHOFFSET	QUANT	0	Vch Offset (V)
VCHFILTER	IQUANT	3	Vch Filter
ACHRANGE	IQUANT	2	Ach Range
ACHOFFSETENABLE	TOGGLE	F	Ach Offset Enable
ACHOFFSET	QUANT	0	Ach Offset (V)
ACHFILTER	IQUANT	3	Ach Filter
IERANGELOWERLIMIT	IQUANT	1	I/E Range Lower Limit
IERANGEMODE	TOGGLE	F	I/E AutoRange
IERANGE	IQUANT	2	I/E Range
POSFEEDENABLE	TOGGLE	F	Positive Feedback IR Comp
POSFEEDRESISTANCE	QUANT	0	Positive Feedback Resistance (ohm)
ACHSELECT	IQUANT	0	Ach Select
CABLEID	IQUANT	14	Cable ID
DCCALDATE	LABEL	8/19/2019	DC Calibration Date
ACCALDATE	LABEL	8/19/2019	AC Calibration Date
THERMOSELECT	IQUANT	1	Thermo Select
FRAMEWORKVERSION	QUANT	6.33	Framework Version
INSTRUMENTVERSION	LABEL	3.50	Instrument Version
ZCURVE	TABLE
	Pt	Time	Freq	Zreal	Zimag	Zsig	Zmod	Zphz	Idc	Vdc	IERange
	#	s	Hz	ohm	ohm	V	ohm	°	A	V	#
	0	2	1000078	2219.357	-1473.423	1	2663.929	-33.58003	4.832209E-006	0.005506	8
	1	3	794390.6	2508.92	-1391.817	1	2869.117	-29.01921	-1.16193E-006	0.0058215	8
	2	5	630984.4	2753.583	-1257.312	1	3027.053	-24.54189	-3.382315E-007	0.0058402	8
	3	6	501234.4	2959.34	-1108.812	1	3160.247	-20.54008	-3.472239E-007	0.0057421	8
	4	7	398109.4	3105.294	-959.195	1	3250.063	-17.16541	-1.021255E-006	0.005872	8
	5	9	316265.6	3217.481	-829.1146	1	3322.591	-14.45021	1.083386E-007	0.0056097	8
	6	10	251203.1	3309.414	-709.4903	1	3384.612	-12.10022	4.471235E-008	0.0056025	8
	7	11	199546.9	3372.734	-605.3723	1	3426.632	-10.17567	-1.894616E-006	0.0059917	8
	8	13	158578.1	3417.481	-531.9933	1	3458.64	-8.848121	3.56503E-007	0.0055264	8
	9	14	125953.1	3468.494	-443.0927	1	3496.681	-7.279984	1.969701E-007	0.005434	7
	10	15	100078.1	3492.95	-390.3335	1	3514.692	-6.376288	5.477134E-010	0.0055314	7
	11	17	79453.13	3519.288	-364.6855	1	3538.133	-5.916147	5.422532E-008	0.0054652	7
	12	18	63140.62	3546.564	-347.3026	1	3563.528	-5.592943	-3.239741E-008	0.0056034	7
	13	19	50203.12	3573.516	-339.2552	1	3589.583	-5.423176	-3.79091E-008	0.0056034	7
	14	21	39890.62	3599.126	-340.5404	1	3615.201	-5.405093	-9.267682E-009	0.0055826	7
	15	22	31640.63	3627.65	-350.7592	1	3644.568	-5.522787	-9.12237E-009	0.0055819	7
	16	23	25171.88	3655.994	-370.1689	1	3674.686	-5.781487	-2.952356E-008	0.0056484	7
	17	25	20015.62	3688.013	-398.0213	1	3709.429	-6.159688	1.02928E-008	0.0054926	7
	18	26	15890.62	3722.223	-436.8874	1	3747.775	-6.694331	2.554801E-008	0.0054711	7
	19	27	12609.37	3758.938	-486.971	1	3790.351	-7.381565	-3.549629E-008	0.0055968	7
	20	29	10078.13	3797.026	-547.108	1	3836.24	-8.199234	-2.770144E-008	0.0055651	7
	21	30	8015.625	3842.731	-623.3302	1	3892.958	-9.21371	2.395716E-008	0.0054741	7
	22	31	6328.125	3892.739	-718.0344	1	3958.407	-10.45101	-1.806263E-008	0.0055402	7
	23	33	5015.625	3947.417	-832.4357	1	4034.235	-11.90812	-6.276667E-009	0.0055053	7
	24	34	3984.375	4009.274	-971.133	1	4125.213	-13.61603	-1.405115E-008	0.005537	7
	25	35	3170.956	4074.831	-1137.993	1	4230.753	-15.60365	-3.046431E-008	0.0055916	7
	26	37	2527.573	4148.323	-1338.211	1	4358.829	-17.87922	5.353152E-008	0.0054508	7
	27	38	1976.103	4239.87	-1603.63	1	4533.004	-20.71793	2.523841E-010	0.0055086	7
	28	39	1577.524	4335.842	-1904.926	1	4735.85	-23.71799	-2.907195E-008	0.0056451	7
	29	41	1265.625	4443.599	-2266.352	1	4988.178	-27.02277	-8.352733E-010	0.0055557	7
	30	42	998.264	4571.843	-2722.327	1	5320.979	-30.7719	1.233768E-008	0.0054862	7
	31	43	796.875	4715.411	-3263.173	1	5734.405	-34.68413	7.409593E-009	0.0055896	7
	32	45	627.7902	4888.672	-3959.944	1	6291.286	-39.00832	6.62235E-008	0.0054555	7
	33	46	505.5147	5073.282	-4728.889	1	6935.458	-42.98778	2.8091E-008	0.005508	7
	34	47	397.9953	5314.769	-5771.604	1	7845.902	-47.35965	5.356678E-009	0.0055608	7
	35	49	315.5048	5586.085	-7014.351	1	8966.909	-51.4669	6.72945E-009	0.0055609	7
	36	50	252.4038	5893.172	-8476.182	1	10323.52	-55.19056	1.668642E-009	0.005501	6
	37	51	198.6229	6281.038	-10409.02	1	12157.27	-58.89227	1.186955E-009	0.0055	6
	38	53	158.3615	6720.965	-12665.02	1	14337.85	-62.04638	-3.892692E-012	0.0054963	6
	39	54	125.558	7265.776	-15513.79	1	17130.94	-64.90429	1.573409E-009	0.005497	6
	40	55	100.4464	7907.662	-18875.64	1	20465.12	-67.2695	5.566561E-010	0.0055	6
	41	57	79.00281	8816.853	-23373.19	1	24980.85	-69.33248	8.98911E-010	0.0054916	6
	42	58	63.3446	9701.07	-28503.86	1	30109.48	-71.20438	3.57626E-010	0.0054959	6
	43	59	49.86702	11378.54	-35092.9	1	36891.5	-72.03521	1.801787E-010	0.0054954	6
	44	61	39.72458	13168.42	-43061.2	1	45029.71	-72.99599	1.709279E-009	0.0055054	6
	45	62	31.6723	15482.3	-52531.99	1	54765.97	-73.57863	1.115623E-009	0.005501	6
	46	63	24.93351	18975.8	-64798.2	1	67519.54	-73.67761	7.820523E-010	0.0055012	6
	47	65	19.86229	23324.63	-78946	1	82319.55	-73.5402	2.509883E-010	0.0054972	6
	48	66	15.83615	28902.49	-95663.7	1	99934.4	-73.18906	1.398321E-009	0.0055006	6
	49	68	12.40079	37360.24	-117543.7	1	123338.2	-72.3676	1.591666E-010	0.0055055	5
	50	69	9.93114	47362.71	-140687.4	1	148445.8	-71.39408	8.10213E-011	0.0055046	5
	51	71	7.944915	60323	-167651.9	1	178174.1	-70.21071	1.416882E-009	0.0055015	5
	52	72	6.317385	77393.7	-200292.9	1	214725.4	-68.87334	5.155665E-010	0.0054885	5
	53	74	5.008013	100075.4	-238029	1	258211	-67.19648	7.243813E-010	0.0055035	5
	54	77	3.945707	128986.7	-280720.8	1	308936.5	-65.32198	-3.088465E-011	0.005504	5
	55	79	3.158693	161949.7	-325161.2	1	363259.6	-63.52395	-1.129184E-010	0.0054907	5
	56	83	2.504006	203852.7	-374239.6	1	426158.7	-61.42235	7.657325E-010	0.0055054	5
	57	85	1.998082	249716.3	-426621.6	1	494332.1	-59.65809	6.272985E-010	0.0055428	5
	58	88	1.584686	303624	-484027.1	1	571375.3	-57.90048	1.679639E-010	0.0055318	5
	59	92	1.266892	361929.8	-540851.1	1	650778.8	-56.21012	1.082939E-010	0.005541	5
	60	96	0.999041	426644.1	-612724.4	1	746630	-55.15025	5.351447E-010	0.0055013	5
