EXPLAIN
TAG	EISPOT
TITLE	LABEL	Potentiostatic EIS	Test &Identifier
DATE	LABEL	10/18/2019	Date
TIME	LABEL	10:02:49	Time
NOTES	NOTES	1	&Notes...
	
PSTAT	PSTAT	REF600-11020	Potentiostat
VDC	POTEN	0.00000E+000	T	DC &Voltage (V)
FREQINIT	QUANT	1.00000E+006	Initial Fre&q. (Hz)
FREQFINAL	QUANT	1.00000E+000	Final Fre&q. (Hz)
PTSPERDEC	QUANT	1.00000E+001	Points/&decade
VAC	QUANT	2.50000E+001	AC &Voltage (mV rms)
AREA	QUANT	1.00000E-002	&Area (cm^2)
CONDIT	TWOPARAM	T	5.00000E+000	0.00000E+000	Conditionin&g	Time(s)	E(V)
DELAY	TWOPARAM	T	5.00000E+000	0.00000E+000	Init. De&lay	Time(s)	Stab.(mV/s)
SPEED	SELECTOR	0	&Optimize for:
ZGUESS	QUANT	1.00000E+005	E&stimated Z (ohms)
OCVCURVE	TABLE	19
	Pt	T	Vf	Vm	Ach	Over
	#	s	V vs. Ref.	V	V	bits
	0	0.258333	7.32204E-003	7.32204E-003	6.08398E-004	...........
	1	0.516667	7.31997E-003	7.21346E-003	6.04865E-004	...........
	2	0.775	7.30765E-003	7.13281E-003	5.98532E-004	...........
	3	1.03333	7.27425E-003	7.05618E-003	6.09532E-004	...........
	4	1.29167	7.21760E-003	6.99834E-003	6.10698E-004	...........
	5	1.55	7.14833E-003	7.00082E-003	6.05632E-004	...........
	6	1.80833	7.08350E-003	7.01290E-003	6.07265E-004	...........
	7	2.06667	7.03880E-003	7.08306E-003	6.04365E-004	...........
	8	2.325	7.02181E-003	7.03846E-003	6.08098E-004	...........
	9	2.58333	7.02534E-003	6.98394E-003	6.06098E-004	...........
	10	2.84167	7.03027E-003	6.97310E-003	6.02732E-004	...........
	11	3.1	7.02226E-003	6.95231E-003	6.00365E-004	...........
	12	3.35833	7.00232E-003	6.93533E-003	6.04598E-004	...........
	13	3.61667	6.97897E-003	6.93249E-003	5.96299E-004	...........
	14	3.875	6.95864E-003	6.93078E-003	5.96965E-004	...........
	15	4.13333	6.94421E-003	6.93475E-003	5.96498E-004	...........
	16	4.39167	6.93643E-003	6.94880E-003	6.02498E-004	...........
	17	4.65	6.93454E-003	6.93392E-003	5.95965E-004	...........
	18	4.90833	6.93640E-003	6.95443E-003	6.03798E-004	...........
EOC	QUANT	0.0069364	Open Circuit (V)
PSTATMODEL	IQUANT	4	Pstat Model
PSTATSECTION	LABEL	REF600-11020	Pstat Section
PSTATSERIALNO	LABEL	11020	Pstat Serial Number
CTRLMODE	IQUANT	1	Control Mode
IESTAB	IQUANT	0	I/E Stability
CASPEED	IQUANT	1	Control Amp Speed
CONVENTION	IQUANT	1	Current Convention
ICHRANGE	IQUANT	2	Ich Range
ICHRANGEMODE	TOGGLE	F	Ich Auto Range
ICHOFFSETENABLE	TOGGLE	T	Ich Offset Enable
ICHOFFSET	QUANT	0	Ich Offset (V)
ICHFILTER	IQUANT	3	Ich Filter
VCHRANGE	IQUANT	2	Vch Range
VCHRANGEMODE	TOGGLE	F	Vch Auto Range
VCHOFFSETENABLE	TOGGLE	T	Vch Offset Enable
VCHOFFSET	QUANT	0	Vch Offset (V)
VCHFILTER	IQUANT	3	Vch Filter
ACHRANGE	IQUANT	2	Ach Range
ACHOFFSETENABLE	TOGGLE	F	Ach Offset Enable
ACHOFFSET	QUANT	0	Ach Offset (V)
ACHFILTER	IQUANT	3	Ach Filter
IERANGELOWERLIMIT	IQUANT	1	I/E Range Lower Limit
IERANGEMODE	TOGGLE	F	I/E AutoRange
IERANGE	IQUANT	5	I/E Range
POSFEEDENABLE	TOGGLE	F	Positive Feedback IR Comp
POSFEEDRESISTANCE	QUANT	0	Positive Feedback Resistance (ohm)
ACHSELECT	IQUANT	0	Ach Select
CABLEID	IQUANT	14	Cable ID
DCCALDATE	LABEL	8/19/2019	DC Calibration Date
ACCALDATE	LABEL	8/19/2019	AC Calibration Date
THERMOSELECT	IQUANT	1	Thermo Select
FRAMEWORKVERSION	QUANT	6.33	Framework Version
INSTRUMENTVERSION	LABEL	3.50	Instrument Version
ZCURVE	TABLE
	Pt	Time	Freq	Zreal	Zimag	Zsig	Zmod	Zphz	Idc	Vdc	IERange
	#	s	Hz	ohm	ohm	V	ohm	°	A	V	#
	0	1	1000078	2213.562	-961.042	1	2413.184	-23.46861	3.266991E-006	0.0095717	8
	1	1	794390.6	2390.767	-856.2474	1	2539.474	-19.70486	8.782051E-007	0.0083734	8
	2	2	630984.4	2508.776	-774.4472	1	2625.591	-17.15521	-3.665569E-006	0.0095934	8
	3	2	501234.4	2604.008	-691.8875	1	2694.358	-14.87975	3.495217E-006	0.0081035	8
	4	2	398109.4	2681.004	-619.2599	1	2751.593	-13.00611	-3.602475E-006	0.0091607	8
	5	3	316265.6	2741.115	-553.9159	1	2796.521	-11.42431	-1.945327E-006	0.0090436	8
	6	3	251203.1	2791.497	-518.2272	1	2839.192	-10.51694	-3.065935E-006	0.0090898	8
	7	3	199546.9	2833.829	-473.3797	1	2873.095	-9.483466	2.639455E-006	0.0080701	8
	8	4	158578.1	2874.145	-456.8723	1	2910.23	-9.032134	2.729392E-006	0.0080722	8
	9	4	125953.1	2945.856	-403.8869	1	2973.414	-7.806775	4.45552E-009	0.008556	7
	10	4	100078.1	2980.537	-403.4771	1	3007.722	-7.709302	-1.524505E-008	0.0086309	7
	11	5	79453.13	3023.167	-422.0972	1	3052.491	-7.948304	7.08926E-009	0.0085091	7
	12	5	63140.62	3070.57	-447.9638	1	3103.074	-8.300294	-2.50426E-009	0.0085864	7
	13	5	50203.12	3122.388	-477.8224	1	3158.737	-8.700536	-3.616508E-008	0.0085996	7
	14	6	39890.62	3180.007	-513.9498	1	3221.272	-9.180704	-1.979193E-009	0.0085833	7
	15	6	31640.63	3241.827	-556.0683	1	3289.173	-9.73318	-1.186805E-008	0.0086123	7
	16	6	25171.88	3308.854	-603.8773	1	3363.507	-10.34285	8.909794E-009	0.0085037	7
	17	6	20015.62	3380.452	-662.6347	1	3444.784	-11.09048	-3.566501E-008	0.0085904	7
	18	7	15890.62	3460.509	-722.4144	1	3535.11	-11.79169	-5.204696E-008	0.0087269	7
	19	7	12609.37	3544.152	-793.209	1	3631.831	-12.61535	-3.738242E-008	0.0085931	7
	20	7	10078.13	3632.044	-874.3024	1	3735.792	-13.53469	-4.070323E-008	0.0085917	7
	21	8	8015.625	3713.459	-979.777	1	3840.539	-14.78036	-7.33233E-008	0.0086854	7
	22	8	6328.125	3826.827	-1081.591	1	3976.738	-15.78209	3.271149E-008	0.0085374	7
	23	8	5015.625	3932.198	-1213.562	1	4115.206	-17.15137	-4.077668E-008	0.0085906	7
	24	9	3984.375	4039.387	-1355.879	1	4260.875	-18.55508	-7.392649E-008	0.0086864	7
	25	9	3170.956	4146.786	-1557.518	1	4429.638	-20.586	-1.417149E-008	0.008611	7
	26	9	2527.573	4257.466	-1786.363	1	4617.045	-22.76212	-1.58014E-008	0.0087064	7
	27	10	1976.103	4380.61	-2095.15	1	4855.863	-25.56077	-4.546479E-008	0.0086532	7
	28	10	1577.524	4543.726	-2482.775	1	5177.8	-28.653	-4.252377E-008	0.0086573	7
	29	10	1265.625	4613.92	-2886.096	1	5442.225	-32.02678	-3.83732E-008	0.0086038	7
	30	11	998.264	4752.103	-3468.624	1	5883.352	-36.12621	7.666242E-008	0.0085205	7
	31	11	796.875	4901.828	-4156.589	1	6426.909	-40.29685	3.388977E-008	0.0085349	7
	32	11	627.7902	5084.475	-5072.575	1	7182.124	-44.93287	-1.61794E-008	0.0087022	7
	33	12	505.5147	5277.066	-6085.525	1	8054.877	-49.06979	1.269338E-007	0.0083745	7
	34	12	397.9953	5541.13	-7485.396	1	9313.177	-53.48898	2.810124E-009	0.0085885	7
	35	12	315.5048	5856.762	-9167.356	1	10878.51	-57.42665	4.696652E-010	0.0085265	6
	36	13	252.4038	6228.456	-11161.68	1	12781.89	-60.83755	1.449111E-009	0.0085213	6
	37	13	198.6229	6732.824	-13799.24	1	15354.15	-63.99166	6.974865E-010	0.0085252	6
	38	13	158.3615	7339.8	-16862.66	1	18390.81	-66.47798	-1.72934E-011	0.0085192	6
	39	14	125.558	8131.468	-20734.26	1	22271.74	-68.58611	7.017599E-010	0.0085215	6
	40	14	100.4464	9158.054	-25252.5	1	26861.84	-70.06635	-1.285127E-009	0.0085179	6
	41	14	79.00281	10544.2	-31106.33	1	32844.85	-71.27473	-2.218231E-010	0.0085158	6
	42	14	63.3446	12188.34	-38611.37	1	40489.43	-72.48081	4.051277E-010	0.0085164	6
	43	15	49.86702	14305.71	-47220.46	1	49339.9	-73.14552	5.306155E-010	0.0085153	6
	44	15	39.72458	17504.24	-56939.25	1	59569.09	-72.91155	4.788507E-010	0.0085194	6
	45	16	31.6723	21371.72	-68698.73	1	71946.27	-72.71943	1.121472E-009	0.0085112	6
	46	16	24.93351	26214.87	-84486.77	1	88460.34	-72.76173	-3.227658E-010	0.0085136	6
	47	16	19.86229	33023.23	-101979	1	107192.6	-72.05682	-5.865642E-010	0.0085296	5
	48	16	15.83615	40613.54	-124003.3	1	130484.8	-71.86536	-1.542265E-009	0.0085232	5
	49	17	12.40079	52214.21	-149059.4	1	157939.9	-70.69508	-1.002234E-009	0.0085233	5
	50	17	9.93114	66513.13	-176706.1	1	188809.5	-69.37339	-8.160105E-010	0.008525	5
	51	18	7.944915	83593.23	-208902.7	1	225007	-68.19099	-7.591053E-010	0.0085211	5
	52	18	6.317385	106938	-246848	1	269016.1	-66.57706	-5.053146E-010	0.0085413	5
	53	19	5.008013	135302.9	-289876.3	1	319898.7	-64.97868	-3.649057E-010	0.0085227	5
	54	20	3.945707	169326.3	-337999.1	1	378040.7	-63.39065	-2.506914E-011	0.0085118	5
	55	22	3.158693	207664.4	-387965.1	1	440047	-61.84138	6.523186E-011	0.0085331	5
	56	23	2.504006	253551.4	-446144.9	1	513160.4	-60.38972	-1.235246E-010	0.0085191	5
	57	24	1.998082	302124.7	-508255.4	1	591272.3	-59.27127	-5.967695E-011	0.0085096	5
	58	26	1.584686	360128.1	-578767.1	1	681662.4	-58.10876	5.275089E-011	0.008555	5
	59	28	1.266892	420603	-658352.7	1	781239.5	-57.42664	6.39352E-011	0.0085469	5
	60	30	0.999041	489771.8	-753922.6	1	899041.6	-56.99098	7.091339E-011	0.0085365	5
