EXPLAIN
TAG	EISPOT
TITLE	LABEL	Potentiostatic EIS	Test &Identifier
DATE	LABEL	11/9/2019	Date
TIME	LABEL	11:09:57	Time
NOTES	NOTES	2	&Notes...
	
	
PSTAT	PSTAT	REF600-11020	Potentiostat
VDC	POTEN	0.00000E+000	T	DC &Voltage (V)
FREQINIT	QUANT	1.00000E+006	Initial Fre&q. (Hz)
FREQFINAL	QUANT	1.00000E+000	Final Fre&q. (Hz)
PTSPERDEC	QUANT	1.00000E+001	Points/&decade
VAC	QUANT	2.50000E+001	AC &Voltage (mV rms)
AREA	QUANT	1.00000E-002	&Area (cm^2)
CONDIT	TWOPARAM	T	5.00000E+000	0.00000E+000	Conditionin&g	Time(s)	E(V)
DELAY	TWOPARAM	T	5.00000E+000	0.00000E+000	Init. De&lay	Time(s)	Stab.(mV/s)
SPEED	SELECTOR	0	&Optimize for:
ZGUESS	QUANT	1.00000E+005	E&stimated Z (ohms)
OCVCURVE	TABLE	19
	Pt	T	Vf	Vm	Ach	Over
	#	s	V vs. Ref.	V	V	bits
	0	0.258333	1.68293E-002	1.68293E-002	5.45166E-004	...........
	1	0.516667	1.68407E-002	1.74269E-002	5.50599E-004	...........
	2	0.775	1.69093E-002	1.79127E-002	5.46366E-004	...........
	3	1.03333	1.70995E-002	1.84530E-002	5.41866E-004	...........
	4	1.29167	1.74346E-002	1.88881E-002	5.45666E-004	...........
	5	1.55	1.78754E-002	1.94075E-002	5.47833E-004	...........
	6	1.80833	1.83619E-002	1.97999E-002	5.48766E-004	...........
	7	2.06667	1.88508E-002	2.02416E-002	5.49833E-004	...........
	8	2.325	1.93205E-002	2.06141E-002	5.48499E-004	...........
	9	2.58333	1.97649E-002	2.10381E-002	5.51033E-004	...........
	10	2.84167	2.01867E-002	2.13846E-002	5.44399E-004	...........
	11	3.1	2.05916E-002	2.17829E-002	5.41833E-004	...........
	12	3.35833	2.09830E-002	2.21046E-002	5.47766E-004	...........
	13	3.61667	2.13614E-002	2.24406E-002	5.49399E-004	...........
	14	3.875	2.17256E-002	2.27869E-002	5.40466E-004	...........
	15	4.13333	2.20754E-002	2.30525E-002	5.47433E-004	...........
	16	4.39167	2.24115E-002	2.34057E-002	5.49999E-004	...........
	17	4.65	2.27350E-002	2.36506E-002	5.45699E-004	...........
	18	4.90833	2.30480E-002	2.40007E-002	5.46099E-004	...........
EOC	QUANT	0.023048	Open Circuit (V)
PSTATMODEL	IQUANT	4	Pstat Model
PSTATSECTION	LABEL	REF600-11020	Pstat Section
PSTATSERIALNO	LABEL	11020	Pstat Serial Number
CTRLMODE	IQUANT	1	Control Mode
IESTAB	IQUANT	0	I/E Stability
CASPEED	IQUANT	1	Control Amp Speed
CONVENTION	IQUANT	1	Current Convention
ICHRANGE	IQUANT	2	Ich Range
ICHRANGEMODE	TOGGLE	F	Ich Auto Range
ICHOFFSETENABLE	TOGGLE	T	Ich Offset Enable
ICHOFFSET	QUANT	0	Ich Offset (V)
ICHFILTER	IQUANT	3	Ich Filter
VCHRANGE	IQUANT	2	Vch Range
VCHRANGEMODE	TOGGLE	F	Vch Auto Range
VCHOFFSETENABLE	TOGGLE	T	Vch Offset Enable
VCHOFFSET	QUANT	0	Vch Offset (V)
VCHFILTER	IQUANT	3	Vch Filter
ACHRANGE	IQUANT	2	Ach Range
ACHOFFSETENABLE	TOGGLE	F	Ach Offset Enable
ACHOFFSET	QUANT	0	Ach Offset (V)
ACHFILTER	IQUANT	3	Ach Filter
IERANGELOWERLIMIT	IQUANT	1	I/E Range Lower Limit
IERANGEMODE	TOGGLE	F	I/E AutoRange
IERANGE	IQUANT	5	I/E Range
POSFEEDENABLE	TOGGLE	F	Positive Feedback IR Comp
POSFEEDRESISTANCE	QUANT	0	Positive Feedback Resistance (ohm)
ACHSELECT	IQUANT	0	Ach Select
CABLEID	IQUANT	14	Cable ID
DCCALDATE	LABEL	8/19/2019	DC Calibration Date
ACCALDATE	LABEL	8/19/2019	AC Calibration Date
THERMOSELECT	IQUANT	1	Thermo Select
FRAMEWORKVERSION	QUANT	6.33	Framework Version
INSTRUMENTVERSION	LABEL	3.50	Instrument Version
ZCURVE	TABLE
	Pt	Time	Freq	Zreal	Zimag	Zsig	Zmod	Zphz	Idc	Vdc	IERange
	#	s	Hz	ohm	ohm	V	ohm	°	A	V	#
	0	2	1000078	1937.937	-892.1371	1	2133.426	-24.71917	1.194647E-006	0.024594	8
	1	2	794390.6	2086.85	-837.6415	1	2248.686	-21.87005	-4.489853E-006	0.024737	8
	2	2	630984.4	2212.846	-766.1511	1	2341.724	-19.09733	5.430358E-007	0.0243649	8
	3	3	501234.4	2317.823	-705.9249	1	2422.938	-16.93884	-1.891784E-006	0.0252105	8
	4	3	398109.4	2404.969	-639.8194	1	2488.624	-14.89792	-4.495431E-006	0.025344	8
	5	3	316265.6	2487.857	-601.8214	1	2559.614	-13.59881	-1.41161E-006	0.0251056	8
	6	4	251203.1	2547.177	-555.4164	1	2607.029	-12.3009	-2.522924E-006	0.0247804	8
	7	4	199546.9	2607.705	-531.0856	1	2661.236	-11.51144	-3.166933E-006	0.0252399	8
	8	4	158578.1	2684.704	-512.7124	1	2733.223	-10.8119	-7.11961E-006	0.025646	8
	9	5	125953.1	2740.274	-459.019	1	2778.453	-9.50924	-3.113882E-006	0.0272307	7
	10	5	100078.1	2796.476	-461.6599	1	2834.326	-9.374201	8.446877E-007	0.0225897	7
	11	5	79453.13	2843.095	-470.2218	1	2881.718	-9.391182	1.043399E-007	0.0256078	7
	12	6	63140.62	2902.144	-495.4827	1	2944.137	-9.68869	1.233109E-006	0.0232451	7
	13	6	50203.12	2964.54	-518.3239	1	3009.511	-9.91742	1.209692E-006	0.0228999	7
	14	6	39890.62	3022.637	-548.162	1	3071.94	-10.279	8.494103E-007	0.0225882	7
	15	7	31640.63	3090.257	-586.4738	1	3145.416	-10.74589	-3.696605E-007	0.0236259	7
	16	7	25171.88	3158.57	-622.9032	1	3219.406	-11.15617	4.775346E-007	0.0250928	7
	17	7	20015.62	3229.857	-677.0089	1	3300.048	-11.83835	1.098423E-007	0.0256032	7
	18	8	15890.62	3309.673	-731.1281	1	3389.467	-12.45695	-1.227049E-006	0.0263949	7
	19	8	12609.37	3395.266	-798.9077	1	3487.992	-13.24086	5.198451E-007	0.0227051	7
	20	8	10078.13	3489.541	-870.0295	1	3596.366	-13.99984	-8.355522E-007	0.024396	7
	21	8	8015.625	3568.325	-963.417	1	3696.095	-15.10912	9.715776E-008	0.0230447	7
	22	9	6328.125	3672.106	-1080.223	1	3827.695	-16.39229	9.557841E-007	0.0242582	7
	23	9	5015.625	3774.749	-1203.91	1	3962.086	-17.68945	7.17247E-007	0.0247273	7
	24	9	3984.375	3869.448	-1360.154	1	4101.542	-19.36714	-9.83452E-007	0.0264328	7
	25	10	3170.956	3968.471	-1547.224	1	4259.42	-21.29978	-3.053127E-007	0.0260459	7
	26	10	2527.573	4072.556	-1781.389	1	4445.116	-23.6252	-1.380225E-006	0.0257981	7
	27	10	1976.103	4197.08	-2116.769	1	4700.659	-26.76378	8.492556E-007	0.0225708	7
	28	11	1577.524	4280.897	-2483.182	1	4948.967	-30.11636	-9.989292E-007	0.0264395	7
	29	11	1265.625	4408.188	-2929.119	1	5292.624	-33.60294	-1.375091E-006	0.0257972	7
	30	11	998.264	4554.225	-3551.88	1	5775.536	-37.95098	8.419177E-007	0.0225705	7
	31	12	796.875	4707.329	-4252.575	1	6343.764	-42.09448	-1.388332E-006	0.0262189	7
	32	12	627.7902	4889.664	-5207.62	1	7143.397	-46.8036	1.000093E-007	0.0230279	7
	33	12	505.5147	5125.488	-6271.437	1	8099.479	-50.74173	5.147583E-007	0.0226939	7
	34	13	397.9953	5376.696	-7708.331	1	9398.256	-55.10355	2.818251E-010	0.0245683	7
	35	13	315.5048	5718.405	-9444.35	1	11040.65	-58.80575	1.345092E-009	0.0245087	6
	36	13	252.4038	6117.868	-11492.05	1	13019.05	-61.97111	1.746808E-009	0.0244983	6
	37	14	198.6229	6667.328	-14197.99	1	15685.54	-64.8454	-1.218529E-011	0.0245048	6
	38	14	158.3615	7303.965	-17357.49	1	18831.63	-67.17883	2.646598E-010	0.0245058	6
	39	14	125.558	8169.668	-21291.22	1	22804.81	-69.00766	-6.865489E-011	0.0245042	6
	40	15	100.4464	9308.977	-25878.01	1	27501.42	-70.21505	-8.904284E-010	0.0245078	6
	41	15	79.00281	10710.98	-32139.19	1	33877.02	-71.56839	-1.78739E-009	0.0245012	6
	42	15	63.3446	12158.82	-37983.93	1	39882.52	-72.24991	9.551999E-010	0.0244918	6
	43	16	49.86702	14824.64	-46941.86	1	49227.11	-72.47344	1.170931E-009	0.0244886	6
	44	16	39.72458	17931.73	-58007.57	1	60715.94	-72.82218	3.128132E-010	0.0244993	6
	45	16	31.6723	22094.97	-70583.81	1	73961.22	-72.61823	-4.041616E-011	0.0244971	6
	46	17	24.93351	27649.1	-85829.14	1	90172.69	-72.14412	-9.949457E-010	0.024503	6
	47	17	19.86229	34571.12	-103219.2	1	108854.8	-71.4828	-1.098848E-009	0.0245006	5
	48	17	15.83615	42716.75	-127432.5	1	134401.5	-71.46829	2.68676E-009	0.0245056	5
	49	18	12.40079	56817.93	-153398.6	1	163583	-69.67567	-2.01412E-009	0.0245025	5
	50	18	9.93114	70447.18	-177427.3	1	190901.2	-68.34454	-3.738055E-010	0.024505	5
	51	19	7.944915	89308.91	-208638.3	1	226949.4	-66.82635	-8.200295E-010	0.0245118	5
	52	19	6.317385	111621	-245298	1	269500.2	-65.53246	-9.114459E-010	0.0245118	5
	53	20	5.008013	140491	-286733.1	1	319301.7	-63.89647	-6.815452E-010	0.0244984	5
	54	21	3.945707	173486.7	-334640.2	1	376937.2	-62.59653	-7.611228E-010	0.0245026	5
	55	22	3.158693	211842.1	-381687.9	1	436534.9	-60.96912	-2.718371E-010	0.0244943	5
	56	24	2.504006	256165.3	-437757.7	1	507200.6	-59.66485	-3.755223E-010	0.0245002	5
	57	25	1.998082	304933	-499059.3	1	584845.6	-58.57442	-5.317833E-010	0.024459	5
	58	27	1.584686	359049.1	-568467.1	1	672362.3	-57.72312	-4.348344E-010	0.0244897	5
	59	29	1.266892	419116.4	-644709.4	1	768966	-56.97268	-3.58066E-010	0.0245184	5
	60	31	0.999041	489385	-739804.8	1	887022.4	-56.51514	-3.150167E-010	0.0245349	5
