EXPLAIN
TAG	EISPOT
TITLE	LABEL	Potentiostatic EIS	Test &Identifier
DATE	LABEL	10/22/2019	Date
TIME	LABEL	8:32:56	Time
NOTES	NOTES	1	&Notes...
	
PSTAT	PSTAT	REF600-11020	Potentiostat
VDC	POTEN	0.00000E+000	T	DC &Voltage (V)
FREQINIT	QUANT	1.00000E+006	Initial Fre&q. (Hz)
FREQFINAL	QUANT	1.00000E+000	Final Fre&q. (Hz)
PTSPERDEC	QUANT	1.00000E+001	Points/&decade
VAC	QUANT	2.50000E+001	AC &Voltage (mV rms)
AREA	QUANT	1.00000E-002	&Area (cm^2)
CONDIT	TWOPARAM	T	5.00000E+000	0.00000E+000	Conditionin&g	Time(s)	E(V)
DELAY	TWOPARAM	T	5.00000E+000	0.00000E+000	Init. De&lay	Time(s)	Stab.(mV/s)
SPEED	SELECTOR	1	&Optimize for:
ZGUESS	QUANT	1.00000E+005	E&stimated Z (ohms)
OCVCURVE	TABLE	19
	Pt	T	Vf	Vm	Ach	Over
	#	s	V vs. Ref.	V	V	bits
	0	0.258333	4.65577E-003	4.65577E-003	5.51866E-004	...........
	1	0.516667	4.64913E-003	4.30820E-003	5.54299E-004	...........
	2	0.775	4.60988E-003	4.05829E-003	5.51232E-004	...........
	3	1.03333	4.50454E-003	3.85301E-003	5.48433E-004	...........
	4	1.29167	4.32906E-003	3.67241E-003	5.53032E-004	...........
	5	1.55	4.11653E-003	3.55581E-003	5.48799E-004	...........
	6	1.80833	3.90727E-003	3.41981E-003	5.49333E-004	...........
	7	2.06667	3.72416E-003	3.30590E-003	5.56966E-004	...........
	8	2.325	3.56992E-003	3.19382E-003	5.50466E-004	...........
	9	2.58333	3.43726E-003	3.10407E-003	5.54433E-004	...........
	10	2.84167	3.31921E-003	3.01135E-003	5.52899E-004	...........
	11	3.1	3.21232E-003	2.93949E-003	5.54066E-004	...........
	12	3.35833	3.11602E-003	2.90096E-003	5.50633E-004	...........
	13	3.61667	3.03200E-003	2.84634E-003	5.53866E-004	...........
	14	3.875	2.96094E-003	2.76398E-003	5.48366E-004	...........
	15	4.13333	2.89877E-003	2.72396E-003	5.46366E-004	...........
	16	4.39167	2.83989E-003	2.67306E-003	5.50766E-004	...........
	17	4.65	2.78313E-003	2.64088E-003	5.54166E-004	...........
	18	4.90833	2.73100E-003	2.61295E-003	5.54133E-004	...........
EOC	QUANT	0.002731	Open Circuit (V)
PSTATMODEL	IQUANT	4	Pstat Model
PSTATSECTION	LABEL	REF600-11020	Pstat Section
PSTATSERIALNO	LABEL	11020	Pstat Serial Number
CTRLMODE	IQUANT	1	Control Mode
IESTAB	IQUANT	0	I/E Stability
CASPEED	IQUANT	1	Control Amp Speed
CONVENTION	IQUANT	1	Current Convention
ICHRANGE	IQUANT	2	Ich Range
ICHRANGEMODE	TOGGLE	F	Ich Auto Range
ICHOFFSETENABLE	TOGGLE	T	Ich Offset Enable
ICHOFFSET	QUANT	0	Ich Offset (V)
ICHFILTER	IQUANT	3	Ich Filter
VCHRANGE	IQUANT	2	Vch Range
VCHRANGEMODE	TOGGLE	F	Vch Auto Range
VCHOFFSETENABLE	TOGGLE	T	Vch Offset Enable
VCHOFFSET	QUANT	0	Vch Offset (V)
VCHFILTER	IQUANT	3	Vch Filter
ACHRANGE	IQUANT	2	Ach Range
ACHOFFSETENABLE	TOGGLE	F	Ach Offset Enable
ACHOFFSET	QUANT	0	Ach Offset (V)
ACHFILTER	IQUANT	3	Ach Filter
IERANGELOWERLIMIT	IQUANT	1	I/E Range Lower Limit
IERANGEMODE	TOGGLE	F	I/E AutoRange
IERANGE	IQUANT	4	I/E Range
POSFEEDENABLE	TOGGLE	F	Positive Feedback IR Comp
POSFEEDRESISTANCE	QUANT	0	Positive Feedback Resistance (ohm)
ACHSELECT	IQUANT	0	Ach Select
CABLEID	IQUANT	14	Cable ID
DCCALDATE	LABEL	8/19/2019	DC Calibration Date
ACCALDATE	LABEL	8/19/2019	AC Calibration Date
THERMOSELECT	IQUANT	1	Thermo Select
FRAMEWORKVERSION	QUANT	6.33	Framework Version
INSTRUMENTVERSION	LABEL	3.50	Instrument Version
ZCURVE	TABLE
	Pt	Time	Freq	Zreal	Zimag	Zsig	Zmod	Zphz	Idc	Vdc	IERange
	#	s	Hz	ohm	ohm	V	ohm	°	A	V	#
	0	2	1000078	2638.65	-1555.503	1	3063.015	-30.51966	-1.946029E-006	0.0059778	8
	1	4	794390.6	2914.393	-1441.511	1	3251.406	-26.31783	-5.81026E-008	0.0047341	8
	2	5	630984.4	3158.555	-1280.191	1	3408.132	-22.06315	4.352964E-006	0.0037057	8
	3	6	501234.4	3342.874	-1108.646	1	3521.917	-18.34782	2.232928E-007	0.0041695	8
	4	8	398109.4	3489.935	-966.398	1	3621.266	-15.47794	9.421497E-007	0.0041754	8
	5	9	316265.6	3598.195	-832.137	1	3693.163	-13.02159	-4.170836E-006	0.0053101	8
	6	10	251203.1	3679.83	-725.7469	1	3750.714	-11.15686	1.333004E-006	0.0039127	8
	7	12	199546.9	3739.223	-626.0129	1	3791.263	-9.5042	-3.998741E-006	0.0052697	8
	8	13	158578.1	3774.263	-544.2802	1	3813.306	-8.205958	1.279078E-006	0.0039069	8
	9	15	125953.1	3855.585	-439.3589	1	3880.538	-6.501032	4.204917E-007	0.003419	7
	10	16	100078.1	3876.996	-414.7961	1	3899.122	-6.106791	-4.823238E-008	0.0043383	7
	11	17	79453.13	3908.833	-399.4886	1	3929.195	-5.835453	-1.768289E-008	0.0042785	7
	12	19	63140.62	3941.85	-394.2192	1	3961.513	-5.711086	7.782074E-008	0.0041312	7
	13	20	50203.12	3975.412	-398.7763	1	3995.362	-5.728219	-3.790437E-008	0.0043797	7
	14	22	39890.62	4011.26	-412.2131	1	4032.385	-5.867347	-3.513762E-009	0.004331	7
	15	23	31640.63	4049.75	-435.0222	1	4073.047	-6.131176	-9.444253E-009	0.0044243	7
	16	24	25171.88	4091.55	-467.3141	1	4118.15	-6.515772	-1.484813E-008	0.0042632	7
	17	26	20015.62	4146.299	-510.9606	1	4177.664	-7.025306	-3.039086E-008	0.0043019	7
	18	27	15890.62	4186.244	-562.2047	1	4223.827	-7.64895	-1.500906E-008	0.0042662	7
	19	28	12609.37	4241.786	-629.0172	1	4288.171	-8.434958	3.984841E-008	0.0042513	7
	20	30	10078.13	4299.779	-704.9219	1	4357.179	-9.310461	-1.447778E-008	0.0042593	7
	21	31	8015.625	4358.052	-800.2477	1	4430.916	-10.40503	8.528506E-009	0.004224	7
	22	32	6328.125	4438.059	-909.2369	1	4530.24	-11.57812	-3.04612E-008	0.0043151	7
	23	34	5015.625	4516.377	-1044.411	1	4635.564	-13.02075	6.400011E-008	0.0041792	7
	24	35	3984.375	4597.952	-1216.016	1	4756.034	-14.81379	6.281558E-008	0.0041872	7
	25	37	3170.956	4689.536	-1397.795	1	4893.422	-16.59758	-1.469028E-008	0.0042596	7
	26	38	2527.573	4785.754	-1631	1	5056.046	-18.81927	-1.130388E-008	0.0044229	7
	27	39	1976.103	4905.866	-1941.102	1	5275.926	-21.5872	8.225319E-009	0.0042162	7
	28	41	1577.524	5069.916	-2283.535	1	5560.448	-24.24722	1.534193E-008	0.0042101	7
	29	42	1265.625	5155.271	-2695.856	1	5817.599	-27.60651	4.180801E-008	0.0042462	7
	30	43	998.264	5315.917	-3235.89	1	6223.34	-31.32959	-4.023909E-009	0.0043259	7
	31	45	796.875	5485.365	-3863.608	1	6709.448	-35.15889	-5.245997E-008	0.0044492	7
	32	46	627.7902	5691.9	-4675.613	1	7366.077	-39.40141	-1.2378E-008	0.0042501	7
	33	47	505.5147	5901.743	-5577.545	1	8120.319	-43.38228	-4.052415E-008	0.0043024	7
	34	49	397.9953	6162.586	-6809.023	1	9183.696	-47.85296	4.353056E-009	0.0043042	7
	35	50	315.5048	6464.189	-8287.223	1	10510.18	-52.0451	1.172682E-010	0.0042483	6
	36	52	252.4038	6801.98	-10043.27	1	12129.89	-55.89149	5.028855E-010	0.0042457	6
	37	53	198.6229	7245.084	-12375.81	1	14340.57	-59.65432	6.791193E-010	0.0042453	6
	38	54	158.3615	7763.922	-15110.95	1	16988.8	-62.80616	5.879191E-010	0.0042516	6
	39	56	125.558	8443.742	-18559.04	1	20389.57	-65.53605	4.675349E-010	0.004253	6
	40	57	100.4464	9261.996	-22611.68	1	24435.07	-67.72545	6.008422E-010	0.0042476	6
	41	59	79.00281	10420.06	-28046.74	1	29919.84	-69.61872	9.488965E-010	0.0042492	6
	42	60	63.3446	11907.48	-33741.54	1	35781	-70.56192	3.357424E-010	0.0042484	6
	43	61	49.86702	14063.43	-42158.58	1	44442.39	-71.55212	6.650095E-010	0.0042476	6
	44	63	39.72458	16495.71	-51225.97	1	53816.43	-72.15049	4.450579E-010	0.0042487	6
	45	64	31.6723	19879.5	-62255.63	1	65352.56	-72.29065	3.25567E-010	0.0042471	6
	46	66	24.93351	24293.79	-76262	1	80038	-72.33036	5.724736E-010	0.0042464	6
	47	67	19.86229	30146.11	-92315.76	1	97113.3	-71.91533	5.132087E-010	0.0042511	6
	48	68	15.83615	36889.3	-110488.4	1	116483.9	-71.53713	-3.653451E-010	0.0042551	5
	49	70	12.40079	47262.21	-134370.3	1	142439.8	-70.62164	1.578878E-010	0.0042526	5
	50	71	9.93114	59341.37	-160507.1	1	171125.5	-69.71005	1.947115E-010	0.0042491	5
	51	73	7.944915	72946.38	-189366.9	1	202931	-68.93272	-3.63831E-010	0.0042563	5
	52	74	6.317385	91956.73	-224856.2	1	242932.8	-67.75751	3.340522E-010	0.0042391	5
	53	77	5.008013	114953.6	-265841	1	289630.4	-66.61562	2.750181E-010	0.0042597	5
	54	79	3.945707	143819.6	-314179.7	1	345532.9	-65.40349	-8.856832E-011	0.004246	5
	55	82	3.158693	176262.3	-365187.6	1	405500.1	-64.23515	1.598408E-010	0.0042658	5
	56	85	2.504006	216397.2	-426314.4	1	478091.8	-63.08765	-1.150218E-013	0.0042427	5
	57	88	1.998082	261978.6	-492779.5	1	558090	-62.00335	-1.570409E-010	0.0042684	5
	58	91	1.584686	318351.1	-570674.8	1	653465.5	-60.84502	1.303332E-010	0.0042947	5
	59	95	1.266892	380586.3	-653559.5	1	756297.5	-59.78654	-1.110639E-010	0.004285	5
	60	99	0.999041	455807.9	-751325.8	1	878778.3	-58.75601	1.126559E-010	0.0042245	5
