EXPLAIN
TAG	EISPOT
TITLE	LABEL	Potentiostatic EIS	Test &Identifier
DATE	LABEL	11/7/2019	Date
TIME	LABEL	9:08:18	Time
NOTES	NOTES	2	&Notes...
	
	
PSTAT	PSTAT	REF600-11020	Potentiostat
VDC	POTEN	0.00000E+000	T	DC &Voltage (V)
FREQINIT	QUANT	1.00000E+006	Initial Fre&q. (Hz)
FREQFINAL	QUANT	1.00000E+000	Final Fre&q. (Hz)
PTSPERDEC	QUANT	1.00000E+001	Points/&decade
VAC	QUANT	2.50000E+001	AC &Voltage (mV rms)
AREA	QUANT	1.00000E-002	&Area (cm^2)
CONDIT	TWOPARAM	T	5.00000E+000	0.00000E+000	Conditionin&g	Time(s)	E(V)
DELAY	TWOPARAM	T	5.00000E+000	0.00000E+000	Init. De&lay	Time(s)	Stab.(mV/s)
SPEED	SELECTOR	1	&Optimize for:
ZGUESS	QUANT	1.00000E+005	E&stimated Z (ohms)
OCVCURVE	TABLE	19
	Pt	T	Vf	Vm	Ach	Over
	#	s	V vs. Ref.	V	V	bits
	0	0.258333	5.00557E-003	5.00557E-003	5.55499E-004	...........
	1	0.516667	5.00457E-003	4.95309E-003	5.59899E-004	...........
	2	0.775	4.99903E-003	4.93564E-003	5.62166E-004	...........
	3	1.03333	4.98828E-003	5.06901E-003	5.65332E-004	...........
	4	1.29167	4.98086E-003	4.95298E-003	5.54299E-004	...........
	5	1.55	4.98126E-003	4.90510E-003	5.47833E-004	...........
	6	1.80833	4.97859E-003	4.95252E-003	5.54766E-004	...........
	7	2.06667	4.96831E-003	5.07889E-003	5.63199E-004	...........
	8	2.325	4.96723E-003	5.07853E-003	5.55066E-004	...........
	9	2.58333	4.98839E-003	5.02806E-003	5.55133E-004	...........
	10	2.84167	5.01806E-003	4.96680E-003	5.60466E-004	...........
	11	3.1	5.03204E-003	4.99199E-003	5.55433E-004	...........
	12	3.35833	5.02391E-003	4.97970E-003	5.55599E-004	...........
	13	3.61667	5.00583E-003	4.96171E-003	5.59199E-004	...........
	14	3.875	4.98892E-003	4.93723E-003	5.65499E-004	...........
	15	4.13333	4.97426E-003	4.92900E-003	5.55766E-004	...........
	16	4.39167	4.95955E-003	4.91743E-003	5.61066E-004	...........
	17	4.65	4.94483E-003	4.91200E-003	5.58766E-004	...........
	18	4.90833	4.93181E-003	4.91113E-003	5.59799E-004	...........
EOC	QUANT	0.0049318	Open Circuit (V)
PSTATMODEL	IQUANT	4	Pstat Model
PSTATSECTION	LABEL	REF600-11020	Pstat Section
PSTATSERIALNO	LABEL	11020	Pstat Serial Number
CTRLMODE	IQUANT	1	Control Mode
IESTAB	IQUANT	0	I/E Stability
CASPEED	IQUANT	1	Control Amp Speed
CONVENTION	IQUANT	1	Current Convention
ICHRANGE	IQUANT	2	Ich Range
ICHRANGEMODE	TOGGLE	F	Ich Auto Range
ICHOFFSETENABLE	TOGGLE	T	Ich Offset Enable
ICHOFFSET	QUANT	0	Ich Offset (V)
ICHFILTER	IQUANT	3	Ich Filter
VCHRANGE	IQUANT	2	Vch Range
VCHRANGEMODE	TOGGLE	F	Vch Auto Range
VCHOFFSETENABLE	TOGGLE	T	Vch Offset Enable
VCHOFFSET	QUANT	0	Vch Offset (V)
VCHFILTER	IQUANT	3	Vch Filter
ACHRANGE	IQUANT	2	Ach Range
ACHOFFSETENABLE	TOGGLE	F	Ach Offset Enable
ACHOFFSET	QUANT	0	Ach Offset (V)
ACHFILTER	IQUANT	3	Ach Filter
IERANGELOWERLIMIT	IQUANT	1	I/E Range Lower Limit
IERANGEMODE	TOGGLE	F	I/E AutoRange
IERANGE	IQUANT	4	I/E Range
POSFEEDENABLE	TOGGLE	F	Positive Feedback IR Comp
POSFEEDRESISTANCE	QUANT	0	Positive Feedback Resistance (ohm)
ACHSELECT	IQUANT	0	Ach Select
CABLEID	IQUANT	14	Cable ID
DCCALDATE	LABEL	8/19/2019	DC Calibration Date
ACCALDATE	LABEL	8/19/2019	AC Calibration Date
THERMOSELECT	IQUANT	1	Thermo Select
FRAMEWORKVERSION	QUANT	6.33	Framework Version
INSTRUMENTVERSION	LABEL	3.50	Instrument Version
ZCURVE	TABLE
	Pt	Time	Freq	Zreal	Zimag	Zsig	Zmod	Zphz	Idc	Vdc	IERange
	#	s	Hz	ohm	ohm	V	ohm	°	A	V	#
	0	2	1000078	2220.427	-1758.39	1	2832.354	-38.37624	-7.756486E-006	0.0087787	8
	1	3	794390.6	2594.871	-1731.559	1	3119.559	-33.71521	-3.743769E-006	0.0074543	8
	2	5	630984.4	2935.22	-1630.088	1	3357.485	-29.0458	-3.387775E-008	0.0064014	8
	3	6	501234.4	3221.249	-1483.777	1	3546.553	-24.73182	-4.425895E-006	0.0073418	8
	4	7	398109.4	3471.769	-1333.005	1	3718.882	-21.00457	1.227824E-006	0.0070554	8
	5	9	316265.6	3654.65	-1163.982	1	3835.534	-17.66633	-1.82695E-006	0.0063105	8
	6	10	251203.1	3799.663	-1024.494	1	3935.356	-15.08968	4.368518E-006	0.0065235	8
	7	12	199546.9	3909.211	-882.4993	1	4007.585	-12.72121	6.391134E-006	0.0053614	8
	8	13	158578.1	3999.822	-762.2552	1	4071.806	-10.78961	-5.172572E-007	0.0070565	8
	9	15	125953.1	4123.339	-596.4589	1	4166.256	-8.23099	4.252189E-006	0.0014468	7
	10	16	100078.1	4143.667	-521.848	1	4176.397	-7.177966	-3.363951E-007	0.0055198	7
	11	18	79453.13	4182.142	-475.0411	1	4209.035	-6.480337	-1.25329E-006	0.0083408	7
	12	19	63140.62	4220.879	-439.2048	1	4243.668	-5.94055	-1.181929E-006	0.0070648	7
	13	20	50203.12	4258.046	-417.9268	1	4278.506	-5.605621	1.129339E-006	0.0045634	7
	14	22	39890.62	4285.97	-403.37	1	4304.909	-5.376501	-1.253526E-006	0.0083299	7
	15	23	31640.63	4317.908	-398.8225	1	4336.287	-5.277138	-1.251848E-006	0.0083258	7
	16	25	25171.88	4355.113	-406.3523	1	4374.029	-5.330529	1.12948E-006	0.0045592	7
	17	26	20015.62	4388.046	-421.3348	1	4408.228	-5.484657	1.259018E-006	0.0051969	7
	18	27	15890.62	4414.812	-454.3715	1	4438.132	-5.876179	6.89762E-007	0.0067373	7
	19	29	12609.37	4437.29	-500.0593	1	4465.378	-6.429805	-1.251454E-006	0.0083208	7
	20	30	10078.13	4472.748	-559.4132	1	4507.596	-7.129049	-1.383131E-006	0.0077037	7
	21	31	8015.625	4498.272	-640.5336	1	4543.648	-8.104177	1.248629E-006	0.0048153	7
	22	33	6328.125	4542.655	-742.8896	1	4602.999	-9.287732	-1.025337E-006	0.0084055	7
	23	34	5015.625	4582.132	-873.3566	1	4664.621	-10.79117	-1.398591E-006	0.008135	7
	24	35	3984.375	4623.17	-1035.019	1	4737.612	-12.6191	6.898651E-007	0.0067345	7
	25	37	3170.956	4680.086	-1239.567	1	4841.459	-14.83472	1.259669E-006	0.0051977	7
	26	38	2527.573	4733.378	-1486.932	1	4961.435	-17.43947	7.476877E-008	0.0075936	7
	27	40	1976.103	4809.623	-1821.051	1	5142.83	-20.738	-3.381594E-007	0.0054972	7
	28	41	1577.524	4886.648	-2197.642	1	5358.074	-24.21459	1.157163E-006	0.0056865	7
	29	42	1265.625	4973.584	-2651.539	1	5636.239	-28.06316	-1.398724E-006	0.0081328	7
	30	44	998.264	5089.842	-3257.326	1	6042.902	-32.61786	1.260753E-006	0.0051911	7
	31	45	796.875	5218.001	-3968.416	1	6555.598	-37.25387	1.129373E-006	0.0045497	7
	32	47	627.7902	5385.684	-4886.643	1	7272.198	-42.2187	1.246852E-006	0.004815	7
	33	48	505.5147	5570.669	-5916.294	1	8126.186	-46.72342	1.157975E-006	0.0056831	7
	34	49	397.9953	5836.164	-7300.993	1	9346.94	-51.36236	6.508538E-009	0.0065064	7
	35	51	315.5048	6155.144	-8976.945	1	10884.45	-55.56308	2.164421E-009	0.0064385	6
	36	52	252.4038	6540.267	-10953.65	1	12757.65	-59.15918	1.462981E-009	0.0064454	6
	37	53	198.6229	7070.059	-13569.25	1	15300.67	-62.4789	1.504801E-009	0.0064495	6
	38	55	158.3615	7726.626	-16619.1	1	18327.45	-65.06513	1.12526E-009	0.0064393	6
	39	56	125.558	8607.527	-20430.56	1	22169.74	-67.154	8.05421E-010	0.0064453	6
	40	58	100.4464	9734.82	-24916.32	1	26750.51	-68.65939	-8.117629E-011	0.0064409	6
	41	59	79.00281	11430.51	-30711.29	1	32769.49	-69.58511	5.30876E-010	0.0064355	6
	42	60	63.3446	13825.67	-37372.3	1	39847.69	-69.69834	7.842391E-010	0.0064427	6
	43	62	49.86702	16052.02	-45937.47	1	48661.26	-70.73895	5.97811E-010	0.0064447	6
	44	63	39.72458	19952.42	-55350.26	1	58836.64	-70.177	1.263521E-009	0.0064389	6
	45	65	31.6723	24760.1	-66683.4	1	71131.84	-69.62962	1.143304E-009	0.0064443	6
	46	66	24.93351	31638.03	-80157.34	1	86175.2	-68.4609	9.245499E-010	0.0064354	6
	47	67	19.86229	39953.79	-94943.34	1	103007.5	-67.1778	1.479738E-009	0.006435	6
	48	69	15.83615	50235.34	-111232.6	1	122050.3	-65.69492	6.535598E-010	0.0064422	5
	49	70	12.40079	62730.87	-131257.3	1	145477.3	-64.4558	2.130472E-010	0.0064474	5
	50	72	9.93114	77950.31	-152210.1	1	171009.3	-62.88197	-1.655501E-010	0.0064443	5
	51	73	7.944915	95261.8	-174325.4	1	198655.9	-61.34516	1.091047E-009	0.0064468	5
	52	75	6.317385	113992.9	-201346.5	1	231375.9	-60.4835	-2.424089E-010	0.0064501	5
	53	77	5.008013	136723	-231526.1	1	268882	-59.43691	-3.226702E-011	0.0064423	5
	54	79	3.945707	163005.3	-267012.9	1	312836.4	-58.59689	-8.895299E-011	0.0064421	5
	55	82	3.158693	191126.1	-304347	1	359383.2	-57.87169	1.870106E-010	0.006457	5
	56	85	2.504006	224165.3	-349832.8	1	415491.3	-57.34914	-1.865605E-010	0.0064508	5
	57	88	1.998082	260949.8	-398159.7	1	476052.5	-56.75957	2.176142E-010	0.0064002	5
	58	91	1.584686	302495	-458571.3	1	549355	-56.5893	2.722222E-011	0.0064425	5
	59	95	1.266892	348686.7	-522542.5	1	628198.3	-56.28527	3.528597E-011	0.0064038	5
	60	99	0.999041	403438.8	-600737.6	1	723635.6	-56.11578	1.540287E-010	0.0064924	5
