EXPLAIN
TAG	EISPOT
TITLE	LABEL	Potentiostatic EIS	Test &Identifier
DATE	LABEL	11/22/2019	Date
TIME	LABEL	9:44:42	Time
NOTES	NOTES	4	&Notes...
	
	
	
	
PSTAT	PSTAT	REF600-11020	Potentiostat
VDC	POTEN	0.00000E+000	T	DC &Voltage (V)
FREQINIT	QUANT	1.00000E+006	Initial Fre&q. (Hz)
FREQFINAL	QUANT	1.00000E+000	Final Fre&q. (Hz)
PTSPERDEC	QUANT	1.00000E+001	Points/&decade
VAC	QUANT	2.50000E+001	AC &Voltage (mV rms)
AREA	QUANT	1.00000E-002	&Area (cm^2)
CONDIT	TWOPARAM	T	5.00000E+000	0.00000E+000	Conditionin&g	Time(s)	E(V)
DELAY	TWOPARAM	T	5.00000E+000	0.00000E+000	Init. De&lay	Time(s)	Stab.(mV/s)
SPEED	SELECTOR	0	&Optimize for:
ZGUESS	QUANT	1.00000E+005	E&stimated Z (ohms)
OCVCURVE	TABLE	19
	Pt	T	Vf	Vm	Ach	Over
	#	s	V vs. Ref.	V	V	bits
	0	0.258333	-1.16277E-003	-1.16277E-003	5.37933E-004	...........
	1	0.516667	-1.17020E-003	-1.55193E-003	5.37533E-004	...........
	2	0.775	-1.20684E-003	-1.44912E-003	5.42499E-004	...........
	3	1.03333	-1.28503E-003	-1.58516E-003	5.31600E-004	...........
	4	1.29167	-1.38211E-003	-1.48633E-003	5.31200E-004	...........
	5	1.55	-1.46550E-003	-1.73616E-003	5.29899E-004	...........
	6	1.80833	-1.52645E-003	-1.51108E-003	5.36066E-004	...........
	7	2.06667	-1.57003E-003	-1.68868E-003	5.31266E-004	...........
	8	2.325	-1.60039E-003	-1.72029E-003	5.31533E-004	...........
	9	2.58333	-1.63112E-003	-1.91358E-003	5.40266E-004	...........
	10	2.84167	-1.68530E-003	-2.08697E-003	5.35433E-004	...........
	11	3.1	-1.77564E-003	-2.09611E-003	5.38099E-004	...........
	12	3.35833	-1.89213E-003	-2.27636E-003	5.33233E-004	...........
	13	3.61667	-2.00985E-003	-2.12648E-003	5.40566E-004	...........
	14	3.875	-2.10083E-003	-2.05802E-003	5.35633E-004	...........
	15	4.13333	-2.14575E-003	-2.22201E-003	5.36399E-004	...........
	16	4.39167	-2.15819E-003	-2.39771E-003	5.36566E-004	...........
	17	4.65	-2.17753E-003	-2.19682E-003	5.30733E-004	...........
	18	4.90833	-2.21882E-003	-2.42716E-003	5.35233E-004	...........
EOC	QUANT	-0.0022188	Open Circuit (V)
PSTATMODEL	IQUANT	4	Pstat Model
PSTATSECTION	LABEL	REF600-11020	Pstat Section
PSTATSERIALNO	LABEL	11020	Pstat Serial Number
CTRLMODE	IQUANT	1	Control Mode
IESTAB	IQUANT	0	I/E Stability
CASPEED	IQUANT	1	Control Amp Speed
CONVENTION	IQUANT	1	Current Convention
ICHRANGE	IQUANT	2	Ich Range
ICHRANGEMODE	TOGGLE	F	Ich Auto Range
ICHOFFSETENABLE	TOGGLE	T	Ich Offset Enable
ICHOFFSET	QUANT	0	Ich Offset (V)
ICHFILTER	IQUANT	3	Ich Filter
VCHRANGE	IQUANT	2	Vch Range
VCHRANGEMODE	TOGGLE	F	Vch Auto Range
VCHOFFSETENABLE	TOGGLE	T	Vch Offset Enable
VCHOFFSET	QUANT	0	Vch Offset (V)
VCHFILTER	IQUANT	3	Vch Filter
ACHRANGE	IQUANT	2	Ach Range
ACHOFFSETENABLE	TOGGLE	F	Ach Offset Enable
ACHOFFSET	QUANT	0	Ach Offset (V)
ACHFILTER	IQUANT	3	Ach Filter
IERANGELOWERLIMIT	IQUANT	1	I/E Range Lower Limit
IERANGEMODE	TOGGLE	F	I/E AutoRange
IERANGE	IQUANT	4	I/E Range
POSFEEDENABLE	TOGGLE	F	Positive Feedback IR Comp
POSFEEDRESISTANCE	QUANT	0	Positive Feedback Resistance (ohm)
ACHSELECT	IQUANT	0	Ach Select
CABLEID	IQUANT	14	Cable ID
DCCALDATE	LABEL	8/19/2019	DC Calibration Date
ACCALDATE	LABEL	8/19/2019	AC Calibration Date
THERMOSELECT	IQUANT	1	Thermo Select
FRAMEWORKVERSION	QUANT	6.33	Framework Version
INSTRUMENTVERSION	LABEL	3.50	Instrument Version
ZCURVE	TABLE
	Pt	Time	Freq	Zreal	Zimag	Zsig	Zmod	Zphz	Idc	Vdc	IERange
	#	s	Hz	ohm	ohm	V	ohm	°	A	V	#
	0	1	1000078	1445.277	-8731.357	1	8850.165	-80.60121	-8.101983E-006	-0.0001702	8
	1	2	794390.6	1658.235	-10727.18	1	10854.59	-81.21262	2.407387E-006	0.0001406	8
	2	2	630984.4	2353.885	-13314.08	1	13520.56	-79.9739	7.673476E-006	-0.001871	8
	3	3	501234.4	2916.516	-16341.05	1	16599.27	-79.88052	-1.8547E-006	-0.0008352	8
	4	3	398109.4	4170.737	-19893.05	1	20325.56	-78.15899	-1.341404E-006	-0.0002125	8
	5	3	316265.6	4587.748	-24402.53	1	24830.04	-79.35251	7.058795E-006	-0.0014865	8
	6	4	251203.1	5699.183	-29929.69	1	30467.48	-79.21886	-3.671982E-006	-0.0001216	8
	7	5	199546.9	7106.412	-36346.82	1	37035.02	-78.93727	-1.477352E-006	-0.0009527	8
	8	5	158578.1	6877.147	-45736.27	1	46250.42	-81.44877	-2.350092E-006	-0.0008359	8
	9	6	125953.1	10313.13	-54673.32	1	55637.51	-79.31771	5.433153E-006	-0.0095837	7
	10	6	100078.1	12351.87	-66243.87	1	67385.59	-79.43789	-1.274426E-006	0.0014735	7
	11	7	79453.13	14993.43	-81940.41	1	83300.86	-79.63075	-1.62387E-006	0.0010243	7
	12	7	63140.62	17013.29	-100698	1	102125.2	-80.41023	7.768518E-007	-0.0031087	7
	13	7	50203.12	20556.19	-124113.5	1	125804.2	-80.5958	1.154058E-006	-0.0031893	7
	14	8	39890.62	25284.84	-154399.4	1	156456.1	-80.69965	-1.502579E-006	0.0013215	7
	15	8	31640.63	30270.17	-190226.7	1	192620.1	-80.95851	-2.963257E-007	-0.0020769	7
	16	9	25171.88	39026.11	-232121	1	235378.8	-80.45621	1.153882E-006	-0.0031891	7
	17	9	20015.62	37191.5	-307224.4	1	309467.3	-83.09756	-8.782067E-007	-0.0011688	7
	18	10	15890.62	63930.82	-359693.9	1	365331.2	-79.92168	1.494216E-006	-0.0026323	7
	19	10	12609.37	81674.89	-441739.4	1	449226.6	-79.52467	-3.380047E-007	0.0027072	6
	20	11	10078.13	108385.8	-535474.4	1	546333.6	-78.55731	2.673686E-007	-0.005255	6
	21	11	8015.625	139538.9	-644285.1	1	659222.6	-77.77965	8.304325E-008	0.0012478	6
	22	12	6328.125	194253.7	-815115.9	1	837942.9	-76.59563	-1.141557E-007	0.0034043	6
	23	12	5015.625	249253.3	-1003563	1	1034053	-76.05178	1.362482E-007	-0.0051749	6
	24	13	3984.375	337414.2	-1217302	1	1263199	-74.50758	-1.422965E-008	0.002453	6
	25	13	3170.956	447910.5	-1480944	1	1547197	-73.1721	-2.093174E-007	0.0040211	6
	26	13	2527.573	566098.8	-1823063	1	1908933	-72.74935	-3.021434E-007	0.0011884	6
	27	14	1976.103	822876.9	-2367116	1	2506066	-70.83109	2.432378E-007	-0.0016032	6
	28	14	1577.524	560940	-1863048	1	1945662	-73.24362	-1.49628E-008	0.0024498	6
	29	15	1265.625	1494514	-2987372	1	3340354	-63.42225	-7.822793E-010	-0.0040095	5
	30	15	998.264	1920871	-3494623	1	3987748	-61.20395	-3.294722E-008	0.0019701	5
	31	16	796.875	2369947	-4017038	1	4664037	-59.46051	2.154499E-008	-0.0009387	5
	32	17	627.7902	3280180	-4287537	1	5398385	-52.58221	2.170435E-008	-0.0009338	5
	33	17	505.5147	4141916	-4802547	1	6341919	-49.22415	3.959962E-009	0.0018917	5
	34	18	397.9953	4931718	-4933746	1	6975937	-45.01178	-4.281036E-010	-0.0008084	5
	35	18	315.5048	5809404	-4685487	1	7463442	-38.88739	-4.525721E-010	-0.0007934	5
	36	19	252.4038	6776309	-4549524	1	8161895	-33.87689	-3.464352E-010	-0.0007961	5
	37	19	198.6229	8356877	-5115679	1	9.798345E+006	-31.47297	1.299418E-010	-0.0008079	5
	38	19	158.3615	9276809	-5264113	1	1.066631E+007	-29.57269	-5.024613E-010	-0.0007972	5
	39	20	125.558	9284230	-3270971	1	9.843586E+006	-19.40811	1.995263E-010	-0.0008127	4
	40	20	100.4464	6863440	-2930072	1	7462716	-23.11812	-4.694992E-011	-0.000814	4
	41	21	79.00281	2.075776E+007	3839621	1	2.110989E+007	10.47971	-5.713604E-010	-0.0008002	5
	42	21	63.3446	2415750	-3457589	1	4217910	-55.05875	4.620373E-010	-0.0008094	4
	43	22	49.86702	1.446954E+007	-5245199	1	1.539089E+007	-19.92555	1.636762E-010	-0.000814	4
	44	22	39.72458	1.039904E+007	-206729.5	1	1.04011E+007	-1.138871	-1.176022E-010	-0.0008114	4
	45	23	31.6723	1.076671E+007	3505154	1	1.13229E+007	18.03291	6.572579E-010	-0.0008122	4
	46	23	24.93351	1.184423E+007	-2487299	1	1.210258E+007	-11.85983	3.596621E-011	-0.0008064	4
	47	24	19.86229	1.336114E+007	-3573683	1	1.383081E+007	-14.97429	1.989959E-010	-0.0007976	4
	48	24	15.83615	6810012	-461041.8	1	6825600	-3.873048	1.284846E-009	-0.0008285	4
	49	24	12.40079	9.506295E+006	-1274407	1	9.591338E+006	-7.635508	-3.484746E-010	-0.0008105	5
	50	25	9.93114	1.54434E+007	-3722341	1	1.588567E+007	-13.55158	3.193444E-010	-0.0008079	4
	51	26	7.944915	1.219062E+007	-2205384	1	1.23885E+007	-10.25438	-6.024368E-011	-0.0008093	4
	52	27	6.317385	1.412951E+007	-1791534	1	1.424263E+007	-7.226191	1.010597E-010	-0.0007899	4
	53	28	5.008013	1.411623E+007	-2087505	1	1.426974E+007	-8.411924	7.753294E-011	-0.0008059	4
	54	29	3.945707	1.450525E+007	-1603680	1	1.459363E+007	-6.308921	1.009936E-010	-0.0008308	4
	55	31	3.158693	1.475786E+007	-1740218	1	1.486011E+007	-6.725151	1.156249E-010	-0.0008124	4
	56	33	2.504006	3.909626E+007	-4457795	1	3.934958E+007	-6.50483	7.082874E-011	-0.0008293	3
	57	35	1.998082	3.952765E+007	-4449775	1	3.977733E+007	-6.422958	6.898158E-011	-0.0008696	3
	58	38	1.584686	4.050367E+007	-4787530	1	4.078563E+007	-6.741078	6.775672E-011	-0.000835	3
	59	40	1.266892	4.114261E+007	-4942808	1	4.143846E+007	-6.850592	7.03068E-011	-0.0008041	3
	60	42	0.999041	4.18519E+007	-5317856	1	4.21884E+007	-7.241406	7.178341E-011	-0.0007956	3
