EXPLAIN
TAG	EISPOT
TITLE	LABEL	Potentiostatic EIS	Test &Identifier
DATE	LABEL	10/18/2019	Date
TIME	LABEL	10:01:49	Time
NOTES	NOTES	1	&Notes...
	
PSTAT	PSTAT	REF600-11020	Potentiostat
VDC	POTEN	0.00000E+000	T	DC &Voltage (V)
FREQINIT	QUANT	1.00000E+006	Initial Fre&q. (Hz)
FREQFINAL	QUANT	1.00000E+000	Final Fre&q. (Hz)
PTSPERDEC	QUANT	1.00000E+001	Points/&decade
VAC	QUANT	2.50000E+001	AC &Voltage (mV rms)
AREA	QUANT	1.00000E-002	&Area (cm^2)
CONDIT	TWOPARAM	T	5.00000E+000	0.00000E+000	Conditionin&g	Time(s)	E(V)
DELAY	TWOPARAM	T	5.00000E+000	0.00000E+000	Init. De&lay	Time(s)	Stab.(mV/s)
SPEED	SELECTOR	0	&Optimize for:
ZGUESS	QUANT	1.00000E+005	E&stimated Z (ohms)
OCVCURVE	TABLE	19
	Pt	T	Vf	Vm	Ach	Over
	#	s	V vs. Ref.	V	V	bits
	0	0.258333	6.17020E-003	6.17020E-003	5.11167E-004	...........
	1	0.516667	6.13190E-003	4.16567E-003	5.14166E-004	...........
	2	0.775	5.93235E-003	4.12902E-003	5.09233E-004	...........
	3	1.03333	5.49812E-003	4.72009E-003	5.08433E-004	...........
	4	1.29167	5.00513E-003	5.42303E-003	5.14933E-004	...........
	5	1.55	4.79950E-003	8.17847E-003	5.13267E-004	...........
	6	1.80833	5.08880E-003	5.52633E-003	5.13400E-004	...........
	7	2.06667	5.62281E-003	3.13675E-003	5.13400E-004	...........
	8	2.325	5.80252E-003	4.19660E-003	5.09667E-004	...........
	9	2.58333	5.38988E-003	4.67662E-003	5.04600E-004	...........
	10	2.84167	4.81740E-003	5.91935E-003	5.13200E-004	...........
	11	3.1	4.60918E-003	5.88082E-003	5.10767E-004	...........
	12	3.35833	4.83791E-003	5.02417E-003	5.09533E-004	...........
	13	3.61667	5.19848E-003	5.54831E-003	5.08700E-004	...........
	14	3.875	5.39898E-003	4.59023E-003	5.07600E-004	...........
	15	4.13333	5.36991E-003	4.67577E-003	5.05467E-004	...........
	16	4.39167	5.18260E-003	4.62409E-003	5.05633E-004	...........
	17	4.65	4.96217E-003	5.33870E-003	5.07433E-004	...........
	18	4.90833	4.85246E-003	5.51703E-003	5.10667E-004	...........
EOC	QUANT	0.0048525	Open Circuit (V)
PSTATMODEL	IQUANT	4	Pstat Model
PSTATSECTION	LABEL	REF600-11020	Pstat Section
PSTATSERIALNO	LABEL	11020	Pstat Serial Number
CTRLMODE	IQUANT	1	Control Mode
IESTAB	IQUANT	0	I/E Stability
CASPEED	IQUANT	1	Control Amp Speed
CONVENTION	IQUANT	1	Current Convention
ICHRANGE	IQUANT	2	Ich Range
ICHRANGEMODE	TOGGLE	F	Ich Auto Range
ICHOFFSETENABLE	TOGGLE	T	Ich Offset Enable
ICHOFFSET	QUANT	0	Ich Offset (V)
ICHFILTER	IQUANT	3	Ich Filter
VCHRANGE	IQUANT	2	Vch Range
VCHRANGEMODE	TOGGLE	F	Vch Auto Range
VCHOFFSETENABLE	TOGGLE	T	Vch Offset Enable
VCHOFFSET	QUANT	0	Vch Offset (V)
VCHFILTER	IQUANT	3	Vch Filter
ACHRANGE	IQUANT	2	Ach Range
ACHOFFSETENABLE	TOGGLE	F	Ach Offset Enable
ACHOFFSET	QUANT	0	Ach Offset (V)
ACHFILTER	IQUANT	3	Ach Filter
IERANGELOWERLIMIT	IQUANT	1	I/E Range Lower Limit
IERANGEMODE	TOGGLE	F	I/E AutoRange
IERANGE	IQUANT	4	I/E Range
POSFEEDENABLE	TOGGLE	F	Positive Feedback IR Comp
POSFEEDRESISTANCE	QUANT	0	Positive Feedback Resistance (ohm)
ACHSELECT	IQUANT	0	Ach Select
CABLEID	IQUANT	14	Cable ID
DCCALDATE	LABEL	8/19/2019	DC Calibration Date
ACCALDATE	LABEL	8/19/2019	AC Calibration Date
THERMOSELECT	IQUANT	1	Thermo Select
FRAMEWORKVERSION	QUANT	6.33	Framework Version
INSTRUMENTVERSION	LABEL	3.50	Instrument Version
ZCURVE	TABLE
	Pt	Time	Freq	Zreal	Zimag	Zsig	Zmod	Zphz	Idc	Vdc	IERange
	#	s	Hz	ohm	ohm	V	ohm	°	A	V	#
	0	1	1000078	2692.106	-1823.725	1	3251.678	-34.11506	1.73629E-006	0.0070368	8
	1	2	794390.6	3045.141	-1786.396	1	3530.452	-30.39751	-8.83053E-007	0.0066546	8
	2	2	630984.4	3378.334	-1674.007	1	3770.337	-26.359	-1.104185E-006	0.0068139	8
	3	2	501234.4	3674.059	-1507.982	1	3971.489	-22.31522	-3.10611E-006	0.0069372	8
	4	3	398109.4	3906.206	-1351.348	1	4133.351	-19.08301	-2.854029E-006	0.0068685	8
	5	3	316265.6	4096.127	-1155.077	1	4255.874	-15.74806	4.270763E-006	0.0057096	8
	6	3	251203.1	4204.682	-1015.581	1	4325.593	-13.5789	-3.59474E-007	0.0064864	8
	7	4	199546.9	4326.334	-855.1727	1	4410.044	-11.18134	9.680705E-007	0.006149	8
	8	4	158578.1	4375.813	-759.9615	1	4441.316	-9.85247	2.240537E-006	0.0058848	8
	9	4	125953.1	4528.303	-595.9687	1	4567.352	-7.497591	5.446356E-007	0.0046093	7
	10	5	100078.1	4534.814	-525.5404	1	4565.165	-6.610529	7.129862E-009	0.0062639	7
	11	5	79453.13	4574.328	-481.8817	1	4599.64	-6.013632	3.715741E-008	0.0062044	7
	12	5	63140.62	4610.619	-451.95	1	4632.717	-5.598459	-2.093489E-008	0.0062987	7
	13	6	50203.12	4645.215	-433.9604	1	4665.441	-5.337136	-8.398828E-009	0.0063505	7
	14	6	39890.62	4677.877	-427.8669	1	4697.404	-5.226078	3.734022E-008	0.0061932	7
	15	6	31640.63	4711.962	-433.8485	1	4731.893	-5.26061	-8.302619E-008	0.0064515	7
	16	6	25171.88	4748.124	-453.5832	1	4769.74	-5.456845	6.458301E-008	0.006217	7
	17	7	20015.62	4774.643	-471.0636	1	4797.824	-5.634535	4.065787E-008	0.00628	7
	18	7	15890.62	4824.944	-522.3285	1	4853.135	-6.178543	-4.341295E-008	0.006351	7
	19	7	12609.37	4863.078	-578.1127	1	4897.32	-6.779388	-1.607016E-008	0.0062892	7
	20	8	10078.13	4913.526	-647.5591	1	4956.014	-7.507808	-3.707928E-008	0.0063544	7
	21	8	8015.625	4957.011	-725.8488	1	5009.872	-8.330545	-8.30121E-008	0.0064515	7
	22	8	6328.125	5015.421	-852.0676	1	5087.285	-9.64189	-2.076769E-008	0.0063826	7
	23	9	5015.625	5074.688	-988.861	1	5170.135	-11.02656	-4.664464E-008	0.006413	7
	24	9	3984.375	5111.675	-1169.361	1	5243.723	-12.88542	4.018126E-008	0.0062744	7
	25	9	3170.956	5208.517	-1362.235	1	5383.709	-14.65683	-1.97019E-008	0.0063827	7
	26	10	2527.573	5289.512	-1611.555	1	5529.561	-16.9444	-1.696874E-008	0.0064603	7
	27	10	1976.103	5388.992	-1945.434	1	5729.393	-19.84966	-8.235732E-008	0.0064519	7
	28	10	1577.524	5393.507	-2336.954	1	5878.033	-23.42662	-3.790128E-008	0.006339	7
	29	11	1265.625	5608.401	-2779.178	1	6259.233	-26.36018	8.818466E-008	0.006262	7
	30	11	998.264	5753.943	-3362.377	1	6664.341	-30.30033	1.362758E-007	0.0061152	7
	31	11	796.875	5913.29	-4054.002	1	7169.514	-34.43355	-7.170539E-009	0.0063594	7
	32	12	627.7902	6113.406	-4945.196	1	7863.123	-38.96975	-4.469647E-008	0.0063475	7
	33	12	505.5147	6319.973	-5939.695	1	8673.064	-43.22334	8.865926E-008	0.0062604	7
	34	12	397.9953	6589.537	-7280.077	1	9819.45	-47.85029	2.75161E-009	0.006341	7
	35	13	315.5048	6902.679	-8891.23	1	11256.15	-52.17614	-7.800204E-010	0.0062787	6
	36	13	252.4038	7258.377	-10801.01	1	13013.3	-56.09854	-1.126044E-010	0.006278	6
	37	13	198.6229	7719.052	-13333.14	1	15406.38	-59.93186	6.94696E-011	0.0062795	6
	38	13	158.3615	8260.853	-16303.25	1	18276.69	-63.12867	-6.865732E-010	0.0062749	6
	39	14	125.558	8971.727	-20040.11	1	21956.73	-65.88249	1.159235E-010	0.0062832	6
	40	14	100.4464	9832.91	-24518.92	1	26417.11	-68.14756	1.135946E-009	0.0062776	6
	41	14	79.00281	10940.9	-30384.78	1	32294.56	-70.19715	1.137982E-009	0.0062715	6
	42	15	63.3446	12933.79	-36461.57	1	38687.58	-70.46918	-4.25287E-010	0.006271	6
	43	15	49.86702	15073.31	-45331.58	1	47771.92	-71.6074	-1.241878E-009	0.0062682	6
	44	16	39.72458	17212.08	-55747.56	1	58344.2	-72.8419	-7.004831E-011	0.0062737	6
	45	16	31.6723	20578.95	-68165.58	1	71204.21	-73.20112	-3.73631E-010	0.0062704	6
	46	16	24.93351	25818.22	-83635.62	1	87529.98	-72.8446	9.075647E-011	0.0062714	6
	47	17	19.86229	31924.37	-101355.5	1	106264.3	-72.51692	4.615247E-010	0.0062787	5
	48	17	15.83615	40503.97	-120543.8	1	127166.7	-71.42711	1.181079E-009	0.0062727	5
	49	17	12.40079	52967.92	-149179.5	1	158303.9	-70.452	-3.138957E-011	0.0062751	5
	50	18	9.93114	66924.26	-178169.3	1	190323.8	-69.41273	-1.209454E-010	0.0062765	5
	51	18	7.944915	84067.95	-210386.1	1	226560.6	-68.21889	-6.162091E-010	0.0062773	5
	52	19	6.317385	108216.9	-248308.4	1	270865.2	-66.45162	-6.22194E-010	0.0062865	5
	53	19	5.008013	138223.4	-290762.1	1	321944.6	-64.57438	-1.9887E-010	0.0062704	5
	54	20	3.945707	178365.4	-338473.5	1	382594.5	-62.21212	1.270924E-010	0.0062663	5
	55	22	3.158693	219274.2	-387266.7	1	445035.5	-60.48103	1.293053E-010	0.0062861	5
	56	23	2.504006	271124.3	-440584.9	1	517323.3	-58.39296	-1.17921E-010	0.0062783	5
	57	25	1.998082	326442.5	-495803.8	1	593621.2	-56.63867	-1.600542E-010	0.0062516	5
	58	26	1.584686	389808	-553805.3	1	677237.4	-54.85936	-2.197315E-012	0.0063073	5
	59	28	1.266892	456409.8	-616935.9	1	767411.1	-53.50592	5.642797E-011	0.0063093	5
	60	31	0.999041	529498.8	-691985.1	1	871327.9	-52.57721	1.027481E-010	0.0063069	5
