EXPLAIN
TAG	EISPOT
TITLE	LABEL	Potentiostatic EIS	Test &Identifier
DATE	LABEL	10/24/2019	Date
TIME	LABEL	8:53:12	Time
NOTES	NOTES	1	&Notes...
	
PSTAT	PSTAT	REF600-11020	Potentiostat
VDC	POTEN	0.00000E+000	T	DC &Voltage (V)
FREQINIT	QUANT	1.00000E+006	Initial Fre&q. (Hz)
FREQFINAL	QUANT	1.00000E+000	Final Fre&q. (Hz)
PTSPERDEC	QUANT	1.00000E+001	Points/&decade
VAC	QUANT	2.50000E+001	AC &Voltage (mV rms)
AREA	QUANT	1.00000E-002	&Area (cm^2)
CONDIT	TWOPARAM	T	5.00000E+000	0.00000E+000	Conditionin&g	Time(s)	E(V)
DELAY	TWOPARAM	T	5.00000E+000	0.00000E+000	Init. De&lay	Time(s)	Stab.(mV/s)
SPEED	SELECTOR	1	&Optimize for:
ZGUESS	QUANT	1.00000E+005	E&stimated Z (ohms)
OCVCURVE	TABLE	19
	Pt	T	Vf	Vm	Ach	Over
	#	s	V vs. Ref.	V	V	bits
	0	0.258333	5.88135E-003	5.88135E-003	5.88799E-004	...........
	1	0.516667	5.88115E-003	5.87104E-003	5.87699E-004	...........
	2	0.775	5.87986E-003	5.85694E-003	5.81599E-004	...........
	3	1.03333	5.87583E-003	5.83797E-003	5.93532E-004	...........
	4	1.29167	5.86855E-003	5.86805E-003	5.89432E-004	...........
	5	1.55	5.86273E-003	5.95203E-003	5.86565E-004	...........
	6	1.80833	5.86818E-003	5.96072E-003	5.85965E-004	...........
	7	2.06667	5.89013E-003	5.99338E-003	5.84799E-004	...........
	8	2.325	5.92290E-003	6.02225E-003	5.89832E-004	...........
	9	2.58333	5.95755E-003	6.05326E-003	5.87865E-004	...........
	10	2.84167	5.99033E-003	6.09359E-003	5.89499E-004	...........
	11	3.1	6.02236E-003	6.13471E-003	5.89432E-004	...........
	12	3.35833	6.05604E-003	6.17620E-003	5.86465E-004	...........
	13	3.61667	6.09234E-003	6.20031E-003	5.84332E-004	...........
	14	3.875	6.12967E-003	6.23076E-003	5.90365E-004	...........
	15	4.13333	6.16561E-003	6.27446E-003	5.92832E-004	...........
	16	4.39167	6.19996E-003	6.31231E-003	5.86499E-004	...........
	17	4.65	6.23466E-003	6.34941E-003	5.88465E-004	...........
	18	4.90833	6.27058E-003	6.36788E-003	5.97098E-004	...........
EOC	QUANT	0.0062706	Open Circuit (V)
PSTATMODEL	IQUANT	4	Pstat Model
PSTATSECTION	LABEL	REF600-11020	Pstat Section
PSTATSERIALNO	LABEL	11020	Pstat Serial Number
CTRLMODE	IQUANT	1	Control Mode
IESTAB	IQUANT	0	I/E Stability
CASPEED	IQUANT	1	Control Amp Speed
CONVENTION	IQUANT	1	Current Convention
ICHRANGE	IQUANT	2	Ich Range
ICHRANGEMODE	TOGGLE	F	Ich Auto Range
ICHOFFSETENABLE	TOGGLE	T	Ich Offset Enable
ICHOFFSET	QUANT	0	Ich Offset (V)
ICHFILTER	IQUANT	3	Ich Filter
VCHRANGE	IQUANT	2	Vch Range
VCHRANGEMODE	TOGGLE	F	Vch Auto Range
VCHOFFSETENABLE	TOGGLE	T	Vch Offset Enable
VCHOFFSET	QUANT	0	Vch Offset (V)
VCHFILTER	IQUANT	3	Vch Filter
ACHRANGE	IQUANT	2	Ach Range
ACHOFFSETENABLE	TOGGLE	F	Ach Offset Enable
ACHOFFSET	QUANT	0	Ach Offset (V)
ACHFILTER	IQUANT	3	Ach Filter
IERANGELOWERLIMIT	IQUANT	1	I/E Range Lower Limit
IERANGEMODE	TOGGLE	F	I/E AutoRange
IERANGE	IQUANT	5	I/E Range
POSFEEDENABLE	TOGGLE	F	Positive Feedback IR Comp
POSFEEDRESISTANCE	QUANT	0	Positive Feedback Resistance (ohm)
ACHSELECT	IQUANT	0	Ach Select
CABLEID	IQUANT	14	Cable ID
DCCALDATE	LABEL	8/19/2019	DC Calibration Date
ACCALDATE	LABEL	8/19/2019	AC Calibration Date
THERMOSELECT	IQUANT	1	Thermo Select
FRAMEWORKVERSION	QUANT	6.33	Framework Version
INSTRUMENTVERSION	LABEL	3.50	Instrument Version
ZCURVE	TABLE
	Pt	Time	Freq	Zreal	Zimag	Zsig	Zmod	Zphz	Idc	Vdc	IERange
	#	s	Hz	ohm	ohm	V	ohm	°	A	V	#
	0	2	1000078	2278.391	-1697.192	1	2841.043	-36.68273	2.15133E-006	0.0074404	8
	1	3	794390.6	2635.467	-1642.739	1	3105.524	-31.93611	1.900025E-006	0.0075723	8
	2	5	630984.4	2952.185	-1530.382	1	3325.277	-27.40175	-2.421362E-006	0.0083759	8
	3	6	501234.4	3225.096	-1383.919	1	3509.484	-23.22463	2.840339E-006	0.0074266	8
	4	7	398109.4	3435.785	-1218.455	1	3645.442	-19.52637	7.048523E-007	0.0076031	8
	5	9	316265.6	3617.915	-1050.831	1	3767.433	-16.19605	-9.738818E-007	0.0080249	8
	6	10	251203.1	3744.534	-891.4706	1	3849.188	-13.39127	1.032773E-006	0.0077664	8
	7	12	199546.9	3847.49	-767.0494	1	3923.206	-11.27487	7.642034E-007	0.007662	8
	8	13	158578.1	3896.967	-638.9636	1	3949.003	-9.311609	-3.707392E-007	0.0079709	8
	9	15	125953.1	3960.147	-505.0083	1	3992.217	-7.267284	4.342453E-007	0.0068853	7
	10	16	100078.1	3999.06	-430.866	1	4022.204	-6.149431	-1.13961E-008	0.0077614	7
	11	17	79453.13	4027.605	-380.967	1	4045.583	-5.403471	-3.3696E-008	0.0078083	7
	12	19	63140.62	4054.784	-340.0258	1	4069.016	-4.793491	3.187072E-008	0.0077512	7
	13	20	50203.12	4076.014	-309.6456	1	4087.758	-4.344287	-4.298634E-008	0.0079162	7
	14	21	39890.62	4097.317	-289.9846	1	4107.566	-4.048316	-1.399956E-008	0.0077607	7
	15	23	31640.63	4116.41	-278.2079	1	4125.8	-3.866461	-4.231071E-009	0.007816	7
	16	24	25171.88	4134.306	-276.3439	1	4143.531	-3.824057	-4.224815E-009	0.0078173	7
	17	25	20015.62	4148.195	-280.45	1	4157.664	-3.867751	1.270248E-008	0.0077159	7
	18	27	15890.62	4167.916	-300.5568	1	4178.739	-4.124575	-3.347566E-008	0.0077947	7
	19	28	12609.37	4181.972	-327.9893	1	4194.814	-4.484491	1.137522E-007	0.0076091	7
	20	30	10078.13	4198.305	-366.2331	1	4214.249	-4.985495	3.556811E-008	0.0076631	7
	21	31	8015.625	4217.594	-418.8773	1	4238.343	-5.671825	-4.141268E-008	0.0079173	7
	22	32	6328.125	4235.429	-493.6391	1	4264.099	-6.647828	-3.490343E-009	0.0078186	7
	23	34	5015.625	4255.522	-586.5605	1	4295.756	-7.847922	-2.93557E-009	0.0078169	7
	24	35	3984.375	4288.238	-704.9995	1	4345.803	-9.336086	-4.474824E-009	0.0077952	7
	25	36	3170.956	4307.501	-849.9595	1	4390.558	-11.16225	-4.12861E-008	0.0079108	7
	26	38	2527.573	4341.66	-1027.691	1	4461.632	-13.31708	-6.387825E-008	0.0078779	7
	27	39	1976.103	4386.895	-1272.116	1	4567.617	-16.17116	-1.404801E-008	0.0077547	7
	28	40	1577.524	4444.339	-1543.78	1	4704.828	-19.15511	5.771645E-008	0.0076785	7
	29	42	1265.625	4496.143	-1876.819	1	4872.141	-22.65706	-1.230873E-008	0.0077572	7
	30	43	998.264	4577.685	-2319.083	1	5131.602	-26.86705	-5.487655E-009	0.0077372	7
	31	44	796.875	4674.706	-2836.676	1	5468.053	-31.24996	-7.898751E-009	0.0078118	7
	32	46	627.7902	4807.244	-3506.053	1	5949.958	-36.10428	1.266934E-008	0.0077159	7
	33	47	505.5147	4958.453	-4258.157	1	6535.913	-40.65491	-1.234404E-008	0.0078914	7
	34	48	397.9953	5178.586	-5263.75	1	7384.092	-45.46727	4.391954E-009	0.0077987	7
	35	50	315.5048	5459.126	-6467.867	1	8463.768	-49.83436	5.920759E-009	0.0077998	7
	36	51	252.4038	5811.547	-7873.201	1	9785.77	-53.56738	4.838278E-009	0.0078012	7
	37	52	198.6229	6311.321	-9706.5	1	11577.95	-56.96742	1.026581E-009	0.0077401	6
	38	54	158.3615	6934.382	-11805.23	1	13691.2	-59.57005	5.542178E-010	0.0077388	6
	39	55	125.558	7776	-14393.03	1	16359.26	-61.61935	9.288829E-010	0.007739	6
	40	56	100.4464	8843.281	-17352.06	1	19475.56	-62.99485	1.908615E-009	0.0077367	6
	41	58	79.00281	10304.29	-21159.03	1	23534.72	-64.03427	1.538581E-009	0.007732	6
	42	59	63.3446	12204.12	-25371.67	1	28154.26	-64.31181	8.251826E-010	0.0077283	6
	43	61	49.86702	14381.62	-30256.12	1	33500.2	-64.57689	1.19281E-009	0.0077273	6
	44	62	39.72458	17463.25	-35916.2	1	39936.68	-64.06995	6.890344E-010	0.0077328	6
	45	63	31.6723	21010.62	-42326.61	1	47254.5	-63.60054	1.627515E-009	0.0077294	6
	46	65	24.93351	25359.29	-49835.44	1	55916.59	-63.03025	1.262426E-009	0.0077289	6
	47	66	19.86229	30228.46	-58069.32	1	65466.07	-62.5004	3.466034E-010	0.007719	6
	48	67	15.83615	35589.29	-67141.63	1	75990.76	-62.07359	1.030737E-009	0.0077227	6
	49	69	12.40079	42375.57	-79099	1	89734.84	-61.82079	2.182103E-010	0.0077351	6
	50	70	9.93114	49020.34	-91736.2	1	104012.1	-61.88165	1.472165E-010	0.0077349	5
	51	72	7.944915	56464.27	-106623.4	1	120651.4	-62.09577	-5.117653E-010	0.0077376	5
	52	73	6.317385	65487.77	-124960.3	1	141080.6	-62.34238	-2.072616E-010	0.0077508	5
	53	75	5.008013	75955.55	-147072.6	1	165528.3	-62.68594	1.759325E-010	0.007742	5
	54	78	3.945707	88374.73	-174445.5	1	195553.9	-63.13307	4.61062E-010	0.0077404	5
	55	80	3.158693	102142.4	-204713.6	1	228780.9	-63.48298	1.700599E-010	0.0077552	5
	56	84	2.504006	119520.1	-242792.2	1	270616.1	-63.79022	-1.81408E-010	0.0077385	5
	57	86	1.998082	139663.2	-286074.4	1	318346.3	-63.97809	-5.965337E-011	0.0077158	5
	58	90	1.584686	164462.5	-337306.9	1	375265.1	-64.00727	2.069165E-011	0.0077721	5
	59	93	1.266892	193086.2	-397251.6	1	441691.2	-64.07769	-2.97282E-011	0.0077075	5
	60	97	0.999041	229225.1	-470321	1	523207.4	-64.01632	1.372918E-010	0.0077815	5
