EXPLAIN
TAG	EISPOT
TITLE	LABEL	Potentiostatic EIS	Test &Identifier
DATE	LABEL	9/22/2019	Date
TIME	LABEL	9:44:50	Time
NOTES	NOTES	1	&Notes...
	
PSTAT	PSTAT	REF600-11020	Potentiostat
VDC	POTEN	0.00000E+000	T	DC &Voltage (V)
FREQINIT	QUANT	1.00000E+006	Initial Fre&q. (Hz)
FREQFINAL	QUANT	1.00000E+000	Final Fre&q. (Hz)
PTSPERDEC	QUANT	1.00000E+001	Points/&decade
VAC	QUANT	2.50000E+001	AC &Voltage (mV rms)
AREA	QUANT	1.00000E-002	&Area (cm^2)
CONDIT	TWOPARAM	T	5.00000E+000	0.00000E+000	Conditionin&g	Time(s)	E(V)
DELAY	TWOPARAM	T	5.00000E+000	0.00000E+000	Init. De&lay	Time(s)	Stab.(mV/s)
SPEED	SELECTOR	1	&Optimize for:
ZGUESS	QUANT	1.00000E+004	E&stimated Z (ohms)
OCVCURVE	TABLE	19
	Pt	T	Vf	Vm	Ach	Over
	#	s	V vs. Ref.	V	V	bits
	0	0.258333	3.76928E-002	3.76928E-002	5.68532E-004	...........
	1	0.516667	3.77339E-002	3.98456E-002	5.66499E-004	...........
	2	0.775	3.79895E-002	4.20468E-002	5.68632E-004	...........
	3	1.03333	3.87208E-002	4.40570E-002	5.72132E-004	...........
	4	1.29167	4.00398E-002	4.59482E-002	5.70066E-004	...........
	5	1.55	4.17970E-002	4.77039E-002	5.67432E-004	...........
	6	1.80833	4.37317E-002	4.93042E-002	5.71166E-004	...........
	7	2.06667	4.56442E-002	5.08374E-002	5.66266E-004	...........
	8	2.325	4.74400E-002	5.22004E-002	5.60666E-004	...........
	9	2.58333	4.90973E-002	5.35305E-002	5.62399E-004	...........
	10	2.84167	5.06254E-002	5.47405E-002	5.61399E-004	...........
	11	3.1	5.20426E-002	5.59587E-002	5.63766E-004	...........
	12	3.35833	5.33670E-002	5.69570E-002	5.69032E-004	...........
	13	3.61667	5.46093E-002	5.80478E-002	5.67966E-004	...........
	14	3.875	5.57746E-002	5.89735E-002	5.64299E-004	...........
	15	4.13333	5.68684E-002	5.98615E-002	5.70499E-004	...........
	16	4.39167	5.78955E-002	6.07429E-002	5.64466E-004	...........
	17	4.65	5.88613E-002	6.15600E-002	5.66032E-004	...........
	18	4.90833	5.97741E-002	6.23492E-002	5.63999E-004	...........
EOC	QUANT	0.0597741	Open Circuit (V)
PSTATMODEL	IQUANT	4	Pstat Model
PSTATSECTION	LABEL	REF600-11020	Pstat Section
PSTATSERIALNO	LABEL	11020	Pstat Serial Number
CTRLMODE	IQUANT	1	Control Mode
IESTAB	IQUANT	0	I/E Stability
CASPEED	IQUANT	1	Control Amp Speed
CONVENTION	IQUANT	1	Current Convention
ICHRANGE	IQUANT	2	Ich Range
ICHRANGEMODE	TOGGLE	F	Ich Auto Range
ICHOFFSETENABLE	TOGGLE	T	Ich Offset Enable
ICHOFFSET	QUANT	0	Ich Offset (V)
ICHFILTER	IQUANT	3	Ich Filter
VCHRANGE	IQUANT	2	Vch Range
VCHRANGEMODE	TOGGLE	F	Vch Auto Range
VCHOFFSETENABLE	TOGGLE	T	Vch Offset Enable
VCHOFFSET	QUANT	0	Vch Offset (V)
VCHFILTER	IQUANT	3	Vch Filter
ACHRANGE	IQUANT	2	Ach Range
ACHOFFSETENABLE	TOGGLE	F	Ach Offset Enable
ACHOFFSET	QUANT	0	Ach Offset (V)
ACHFILTER	IQUANT	3	Ach Filter
IERANGELOWERLIMIT	IQUANT	1	I/E Range Lower Limit
IERANGEMODE	TOGGLE	F	I/E AutoRange
IERANGE	IQUANT	7	I/E Range
POSFEEDENABLE	TOGGLE	F	Positive Feedback IR Comp
POSFEEDRESISTANCE	QUANT	0	Positive Feedback Resistance (ohm)
ACHSELECT	IQUANT	0	Ach Select
CABLEID	IQUANT	14	Cable ID
DCCALDATE	LABEL	8/19/2019	DC Calibration Date
ACCALDATE	LABEL	8/19/2019	AC Calibration Date
THERMOSELECT	IQUANT	1	Thermo Select
FRAMEWORKVERSION	QUANT	6.33	Framework Version
INSTRUMENTVERSION	LABEL	3.50	Instrument Version
ZCURVE	TABLE
	Pt	Time	Freq	Zreal	Zimag	Zsig	Zmod	Zphz	Idc	Vdc	IERange
	#	s	Hz	ohm	ohm	V	ohm	°	A	V	#
	0	2	1000078	2183.734	-1626.858	1	2723.115	-36.68571	5.754278E-006	0.0606915	8
	1	3	794390.6	2523.539	-1579.379	1	2977.027	-32.04075	-2.258324E-006	0.0618684	8
	2	5	630984.4	2818.271	-1483.2	1	3184.735	-27.75694	-2.535673E-006	0.0619716	8
	3	6	501234.4	3087.878	-1352.635	1	3371.144	-23.65566	4.143879E-006	0.0607416	8
	4	8	398109.4	3280.348	-1198.81	1	3492.539	-20.07493	-3.821938E-006	0.0620949	8
	5	9	316265.6	3446.02	-1062.734	1	3606.169	-17.13948	8.549208E-007	0.0614249	8
	6	11	251203.1	3584.419	-951.988	1	3708.685	-14.87385	4.738567E-006	0.0604027	8
	7	12	199546.9	3692.577	-847.0995	1	3788.496	-12.92044	-7.118616E-007	0.0615434	8
	8	13	158578.1	3752.963	-756.1278	1	3828.375	-11.39116	-2.504328E-006	0.0616601	8
	9	15	125953.1	3840.861	-639.8251	1	3893.789	-9.4577	4.763915E-007	0.0603702	7
	10	16	100078.1	3889.448	-598.2939	1	3935.196	-8.744972	-1.528569E-008	0.061315	7
	11	18	79453.13	3941.013	-578.5497	1	3983.253	-8.351498	-4.309106E-008	0.0613133	7
	12	19	63140.62	3992.395	-572.5198	1	4033.237	-8.160728	1.285902E-007	0.061081	7
	13	20	50203.12	4043.71	-580.2882	1	4085.135	-8.166415	-4.386772E-008	0.0612966	7
	14	22	39890.62	4096.434	-601.7422	1	4140.395	-8.35665	-4.25535E-008	0.0613155	7
	15	23	31640.63	4156.66	-635.6854	1	4204.987	-8.694977	3.372568E-008	0.0612292	7
	16	24	25171.88	4222.233	-682.5615	1	4277.049	-9.182926	-4.621645E-008	0.0613584	7
	17	26	20015.62	4292.77	-744.211	1	4356.802	-9.83526	-2.203818E-008	0.0612487	7
	18	27	15890.62	4371.32	-819.9542	1	4447.557	-10.62385	6.949929E-008	0.0611416	7
	19	28	12609.37	4460.035	-910.9045	1	4552.104	-11.54317	1.314202E-007	0.061072	7
	20	30	10078.13	4556.569	-1014.198	1	4668.075	-12.54831	7.761761E-008	0.0612267	7
	21	31	8015.625	4666.318	-1137.322	1	4802.919	-13.69764	7.049476E-008	0.0611449	7
	22	32	6328.125	4794.644	-1285.332	1	4963.938	-15.00681	1.231339E-008	0.0611934	7
	23	34	5015.625	4935.86	-1457.328	1	5146.506	-16.44939	-7.404837E-008	0.0613805	7
	24	35	3984.375	5093.367	-1649.969	1	5353.951	-17.94946	4.279723E-008	0.0611281	7
	25	36	3170.956	5265.811	-1872.038	1	5588.675	-19.57071	-4.677278E-008	0.0613553	7
	26	38	2527.573	5460.403	-2127.929	1	5860.383	-21.29095	-4.760103E-008	0.0613551	7
	27	39	1976.103	5699.121	-2448.261	1	6202.739	-23.24767	-4.70744E-008	0.0613595	7
	28	40	1577.524	5945.854	-2782.009	1	6564.507	-25.07445	-4.873573E-008	0.0614087	7
	29	42	1265.625	6203.038	-3156.007	1	6959.746	-26.96627	-4.347813E-008	0.0612861	7
	30	43	998.264	6515.425	-3634.088	1	7460.386	-29.15133	-6.28811E-009	0.0612847	7
	31	44	796.875	6833.023	-4156.539	1	7997.939	-31.31222	-7.22291E-008	0.0613711	7
	32	45	627.7902	7186.713	-4810.386	1	8648.044	-33.79615	-1.440919E-008	0.0613137	7
	33	47	505.5147	7521.012	-5512.23	1	9324.715	-36.23809	-6.006E-009	0.0612197	7
	34	48	397.9953	7892.197	-6461.032	1	10199.59	-39.30584	7.602375E-010	0.0612234	6
	35	49	315.5048	8261.985	-7607.456	1	11230.93	-42.6382	8.81118E-010	0.0612272	6
	36	51	252.4038	8629.038	-8976.741	1	12451.59	-46.13141	7.163961E-010	0.0612286	6
	37	52	198.6229	9050.706	-10822.25	1	14108.03	-50.09409	4.033097E-010	0.061227	6
	38	53	158.3615	9493.757	-13012.06	1	16107.3	-53.88506	6.37925E-010	0.0612255	6
	39	55	125.558	10019.51	-15817.74	1	18724.09	-57.6484	2.19415E-010	0.0612238	6
	40	56	100.4464	10610.16	-19160.03	1	21901.65	-61.02383	1.039165E-010	0.0612216	6
	41	57	79.00281	11433.71	-23682.13	1	26297.77	-64.2288	1.701649E-010	0.0612228	6
	42	59	63.3446	12209.2	-28714	1	31201.9	-66.96479	5.170229E-010	0.0612221	6
	43	60	49.86702	13779.99	-35422.77	1	38008.69	-68.74321	4.020828E-010	0.0612218	6
	44	62	39.72458	15365.08	-43566.47	1	46196.57	-70.57321	1.125936E-010	0.0612253	6
	45	63	31.6723	17387.58	-53217.78	1	55986.25	-71.90649	5.401027E-010	0.0612188	6
	46	64	24.93351	20459.19	-65781.37	1	68889.52	-72.72337	1.320562E-011	0.0612177	6
	47	66	19.86229	24172.92	-80220.52	1	83783.42	-73.23082	5.897826E-010	0.0612242	6
	48	67	15.83615	29478.13	-98294.3	1	102619.3	-73.30618	1.53283E-009	0.0612217	6
	49	68	12.40079	36520.32	-120185.5	1	125611.7	-73.09775	-8.0686E-010	0.0612263	5
	50	70	9.93114	44277.73	-145404.5	1	151996.7	-73.06377	-8.04813E-011	0.0612239	5
	51	71	7.944915	55168.61	-174865.5	1	183361.7	-72.48994	-9.609662E-011	0.0612269	5
	52	73	6.317385	68823.71	-210632.8	1	221591.7	-71.90533	-1.371154E-010	0.0612434	5
	53	75	5.008013	86948.9	-253204.5	1	267717.4	-71.04784	8.224707E-011	0.0612279	5
	54	77	3.945707	110235.2	-304665.8	1	323995.5	-70.10869	-1.36755E-010	0.0612158	5
	55	80	3.158693	137147.7	-360744.5	1	385935.3	-69.18422	4.983849E-011	0.0612294	5
	56	83	2.504006	171937.1	-428028.5	1	461270.8	-68.1149	-2.197964E-010	0.06123	5
	57	86	1.998082	211740.5	-501917.5	1	544752.4	-67.12691	7.87532E-011	0.0612014	5
	58	89	1.584686	262628.3	-591934.4	1	647580.1	-66.07419	-8.321457E-011	0.0611662	5
	59	93	1.266892	318546.8	-692456.7	1	762212.8	-65.29643	7.390855E-011	0.0612357	5
	60	97	0.999041	392984.4	-812316.9	1	902383.2	-64.18314	-1.647911E-010	0.0611831	5
