EXPLAIN
TAG	EISPOT
TITLE	LABEL	Potentiostatic EIS	Test &Identifier
DATE	LABEL	10/12/2019	Date
TIME	LABEL	9:37:41	Time
NOTES	NOTES	1	&Notes...
	
PSTAT	PSTAT	REF600-11020	Potentiostat
VDC	POTEN	0.00000E+000	T	DC &Voltage (V)
FREQINIT	QUANT	1.00000E+006	Initial Fre&q. (Hz)
FREQFINAL	QUANT	1.00000E+000	Final Fre&q. (Hz)
PTSPERDEC	QUANT	1.00000E+001	Points/&decade
VAC	QUANT	2.50000E+001	AC &Voltage (mV rms)
AREA	QUANT	1.00000E-002	&Area (cm^2)
CONDIT	TWOPARAM	T	5.00000E+000	0.00000E+000	Conditionin&g	Time(s)	E(V)
DELAY	TWOPARAM	T	5.00000E+000	0.00000E+000	Init. De&lay	Time(s)	Stab.(mV/s)
SPEED	SELECTOR	1	&Optimize for:
ZGUESS	QUANT	1.00000E+004	E&stimated Z (ohms)
OCVCURVE	TABLE	19
	Pt	T	Vf	Vm	Ach	Over
	#	s	V vs. Ref.	V	V	bits
	0	0.258333	5.30353E-003	5.30353E-003	5.59999E-004	...........
	1	0.516667	5.31005E-003	5.64479E-003	5.60566E-004	...........
	2	0.775	5.35310E-003	6.12623E-003	5.58799E-004	...........
	3	1.03333	5.48414E-003	6.54783E-003	5.62566E-004	...........
	4	1.29167	5.72938E-003	6.67673E-003	5.55366E-004	...........
	5	1.55	6.04451E-003	6.64239E-003	5.57233E-004	...........
	6	1.80833	6.33513E-003	6.60203E-003	5.55033E-004	...........
	7	2.06667	6.52613E-003	6.54446E-003	5.60132E-004	...........
	8	2.325	6.60404E-003	6.47822E-003	5.55166E-004	...........
	9	2.58333	6.59949E-003	6.38191E-003	5.53099E-004	...........
	10	2.84167	6.54647E-003	6.17072E-003	5.53999E-004	...........
	11	3.1	6.45851E-003	5.96315E-003	5.51099E-004	...........
	12	3.35833	6.33517E-003	5.86462E-003	5.54199E-004	...........
	13	3.61667	6.19247E-003	6.15372E-003	5.61799E-004	...........
	14	3.875	6.08999E-003	6.70906E-003	5.53899E-004	...........
	15	4.13333	6.11540E-003	7.24375E-003	5.53533E-004	...........
	16	4.39167	6.32057E-003	7.54586E-003	5.58966E-004	...........
	17	4.65	6.66891E-003	7.70094E-003	5.60766E-004	...........
	18	4.90833	7.05380E-003	7.64233E-003	5.56899E-004	...........
EOC	QUANT	0.0070538	Open Circuit (V)
PSTATMODEL	IQUANT	4	Pstat Model
PSTATSECTION	LABEL	REF600-11020	Pstat Section
PSTATSERIALNO	LABEL	11020	Pstat Serial Number
CTRLMODE	IQUANT	1	Control Mode
IESTAB	IQUANT	0	I/E Stability
CASPEED	IQUANT	1	Control Amp Speed
CONVENTION	IQUANT	1	Current Convention
ICHRANGE	IQUANT	2	Ich Range
ICHRANGEMODE	TOGGLE	F	Ich Auto Range
ICHOFFSETENABLE	TOGGLE	T	Ich Offset Enable
ICHOFFSET	QUANT	0	Ich Offset (V)
ICHFILTER	IQUANT	3	Ich Filter
VCHRANGE	IQUANT	2	Vch Range
VCHRANGEMODE	TOGGLE	F	Vch Auto Range
VCHOFFSETENABLE	TOGGLE	T	Vch Offset Enable
VCHOFFSET	QUANT	0	Vch Offset (V)
VCHFILTER	IQUANT	3	Vch Filter
ACHRANGE	IQUANT	2	Ach Range
ACHOFFSETENABLE	TOGGLE	F	Ach Offset Enable
ACHOFFSET	QUANT	0	Ach Offset (V)
ACHFILTER	IQUANT	3	Ach Filter
IERANGELOWERLIMIT	IQUANT	1	I/E Range Lower Limit
IERANGEMODE	TOGGLE	F	I/E AutoRange
IERANGE	IQUANT	6	I/E Range
POSFEEDENABLE	TOGGLE	F	Positive Feedback IR Comp
POSFEEDRESISTANCE	QUANT	0	Positive Feedback Resistance (ohm)
ACHSELECT	IQUANT	0	Ach Select
CABLEID	IQUANT	14	Cable ID
DCCALDATE	LABEL	8/19/2019	DC Calibration Date
ACCALDATE	LABEL	8/19/2019	AC Calibration Date
THERMOSELECT	IQUANT	1	Thermo Select
FRAMEWORKVERSION	QUANT	6.33	Framework Version
INSTRUMENTVERSION	LABEL	3.50	Instrument Version
ZCURVE	TABLE
	Pt	Time	Freq	Zreal	Zimag	Zsig	Zmod	Zphz	Idc	Vdc	IERange
	#	s	Hz	ohm	ohm	V	ohm	°	A	V	#
	0	2	1000078	2088.066	-853.5994	1	2255.804	-22.2347	-5.583198E-006	0.0102428	8
	1	3	794390.6	2218.678	-761.4487	1	2345.706	-18.94218	7.574208E-007	0.0087964	8
	2	5	630984.4	2327.722	-661.1061	1	2419.783	-15.8553	-1.817751E-006	0.0090639	8
	3	6	501234.4	2406.897	-574.8903	1	2474.601	-13.43348	7.94162E-007	0.0086516	8
	4	7	398109.4	2467.223	-492.556	1	2515.909	-11.29009	5.536349E-007	0.0084054	8
	5	9	316265.6	2513.125	-417.7743	1	2547.614	-9.438365	2.084404E-006	0.0081571	8
	6	10	251203.1	2549.152	-368.628	1	2575.667	-8.228393	-2.077775E-006	0.0090977	8
	7	11	199546.9	2576.826	-317.6364	1	2596.33	-7.027202	-2.045497E-006	0.0089973	8
	8	13	158578.1	2593.31	-290.0622	1	2609.481	-6.382019	5.814366E-007	0.0086223	8
	9	14	125953.1	2623.887	-222.0237	1	2633.264	-4.836637	-6.659413E-007	0.0102597	7
	10	15	100078.1	2650.005	-208.4081	1	2658.187	-4.496737	1.565747E-008	0.0085117	7
	11	17	79453.13	2666.439	-202.6791	1	2674.131	-4.346759	-6.784463E-008	0.0086267	7
	12	18	63140.62	2684.879	-202.6192	1	2692.514	-4.315749	-6.723201E-008	0.0086254	7
	13	20	50203.12	2704.079	-205.5042	1	2711.877	-4.346002	3.621459E-009	0.0086325	7
	14	21	39890.62	2723.874	-211.9128	1	2732.104	-4.448555	-2.894696E-008	0.0085354	7
	15	22	31640.63	2744.825	-222.7431	1	2753.848	-4.639398	6.984467E-008	0.0084041	7
	16	24	25171.88	2766.11	-236.9064	1	2776.237	-4.895211	-7.229033E-008	0.0087489	7
	17	25	20015.62	2788.488	-258.4743	1	2800.442	-5.295806	-1.624674E-008	0.008545	7
	18	26	15890.62	2812.664	-281.7044	1	2826.736	-5.719427	-1.291036E-008	0.0085741	7
	19	28	12609.37	2839.432	-313.0765	1	2856.64	-6.29203	-2.529247E-009	0.0084977	7
	20	29	10078.13	2865.075	-350.4839	1	2886.433	-6.974327	3.038655E-009	0.008635	7
	21	30	8015.625	2894.56	-395.2502	1	2921.421	-7.775609	-6.791785E-008	0.0086283	7
	22	32	6328.125	2925.25	-457.0217	1	2960.736	-8.87973	4.460685E-008	0.0084083	7
	23	33	5015.625	2958.186	-529.6176	1	3005.222	-10.15039	3.404918E-008	0.0085019	7
	24	34	3984.375	2991.395	-620.9341	1	3055.16	-11.72655	1.789697E-008	0.0084688	7
	25	36	3170.956	3034.334	-726.0687	1	3119.993	-13.45696	-5.389095E-008	0.0086038	7
	26	37	2527.573	3078.025	-857.088	1	3195.127	-15.56007	-6.428454E-008	0.0086523	7
	27	38	1976.103	3130.568	-1031.052	1	3295.986	-18.22928	1.492315E-008	0.0084983	7
	28	40	1577.524	3183.082	-1226.698	1	3411.275	-21.0757	-1.441527E-008	0.0085889	7
	29	41	1265.625	3244.714	-1462.932	1	3559.261	-24.26901	1.170714E-007	0.0083573	7
	30	42	998.264	3317.771	-1774.756	1	3762.627	-28.1434	-1.297304E-008	0.0085906	7
	31	44	796.875	3400.241	-2138.826	1	4016.991	-32.17079	1.399173E-008	0.0084664	7
	32	45	627.7902	3499.272	-2615.802	1	4368.904	-36.77913	-1.377004E-008	0.0085874	7
	33	46	505.5147	3605.392	-3150.035	1	4787.647	-41.14375	-7.201842E-008	0.0087323	7
	34	48	397.9953	3752.109	-3872.673	1	5392.209	-45.90589	5.583535E-009	0.0085439	7
	35	49	315.5048	3926.671	-4743.483	1	6157.871	-50.38193	7.664391E-009	0.0085401	7
	36	51	252.4038	4135.459	-5769.271	1	7098.345	-54.36674	5.616173E-009	0.0085397	7
	37	52	198.6229	4421.143	-7124.576	1	8384.872	-58.1784	6.024787E-009	0.0085432	7
	38	53	158.3615	4768.131	-8699.798	1	9920.76	-61.27401	5.881643E-009	0.0085403	7
	39	55	125.558	5231.179	-10668.2	1	11881.74	-63.87885	9.269333E-010	0.0084855	6
	40	56	100.4464	5796.453	-12968.33	1	14204.8	-65.9168	-5.122078E-011	0.008478	6
	41	57	79.00281	6590.026	-15991.24	1	17295.9	-67.60333	1.136785E-010	0.0084831	6
	42	59	63.3446	7473.342	-19397.51	1	20787.36	-68.92966	3.730197E-011	0.0084802	6
	43	60	49.86702	8935.163	-23604.99	1	25239.51	-69.26691	-4.730097E-010	0.0084787	6
	44	62	39.72458	10604.39	-28672.74	1	30570.89	-69.70348	9.333994E-010	0.0084832	6
	45	63	31.6723	12726.18	-34534.12	1	36804.36	-69.77065	3.597211E-010	0.0084778	6
	46	64	24.93351	15612.66	-41956.81	1	44767.5	-69.58913	1.298371E-009	0.0084769	6
	47	66	19.86229	19101.42	-50230.9	1	53740.19	-69.17958	4.59122E-010	0.0084759	6
	48	67	15.83615	23071.64	-59924.59	1	64212.6	-68.94273	-5.79686E-010	0.0084764	6
	49	68	12.40079	29165.23	-71695.83	1	77400.92	-67.86394	1.6666E-009	0.0084772	6
	50	70	9.93114	35609.46	-84800.02	1	91973.24	-67.22135	1.213196E-009	0.0084721	6
	51	71	7.944915	43388.43	-99787.3	1	108812	-66.50015	2.336761E-011	0.0084869	5
	52	73	6.317385	52863.84	-117435.3	1	128785.2	-65.76496	-7.468345E-010	0.0084848	5
	53	75	5.008013	64526.79	-138253	1	152570	-64.98014	-3.908052E-010	0.00848	5
	54	78	3.945707	78700.6	-162825.4	1	180847.8	-64.20351	4.288397E-010	0.0084896	5
	55	80	3.158693	94696.3	-189727.6	1	212047	-63.47543	-2.394867E-010	0.0084763	5
	56	84	2.504006	114257.7	-221354.2	1	249103.4	-62.6983	4.421351E-010	0.0084726	5
	57	86	1.998082	136353.3	-256277.4	1	290293.5	-61.98462	-1.98189E-010	0.0085185	5
	58	89	1.584686	162013.3	-297810.4	1	339027.1	-61.45315	1.490835E-010	0.0085097	5
	59	93	1.266892	191357.6	-342846.4	1	392633.9	-60.8322	-1.603737E-010	0.0085217	5
	60	97	0.999041	225105.7	-398118.5	1	457352.1	-60.51514	1.411768E-010	0.008461	5
