EXPLAIN
TAG	EISPOT
TITLE	LABEL	Potentiostatic IDE	Test &Identifier
DATE	LABEL	9/12/2019	Date
TIME	LABEL	8:45:31	Time
NOTES	NOTES	1	&Notes...
	
PSTAT	PSTAT	REF600-11020	Potentiostat
VDC	POTEN	0.00000E+000	T	DC &Voltage (V)
FREQINIT	QUANT	1.00000E+006	Initial Fre&q. (Hz)
FREQFINAL	QUANT	1.00000E+000	Final Fre&q. (Hz)
PTSPERDEC	QUANT	1.00000E+001	Points/&decade
VAC	QUANT	2.50000E+001	AC &Voltage (mV rms)
AREA	QUANT	1.00000E-002	&Area (cm^2)
CONDIT	TWOPARAM	T	5.00000E+000	0.00000E+000	Conditionin&g	Time(s)	E(V)
DELAY	TWOPARAM	T	5.00000E+000	0.00000E+000	Init. De&lay	Time(s)	Stab.(mV/s)
SPEED	SELECTOR	1	&Optimize for:
ZGUESS	QUANT	1.00000E+007	E&stimated Z (ohms)
OCVCURVE	TABLE	19
	Pt	T	Vf	Vm	Ach	Over
	#	s	V vs. Ref.	V	V	bits
	0	0.258333	5.47111E-003	5.47111E-003	5.84265E-004	...........
	1	0.516667	5.46856E-003	5.33756E-003	5.75599E-004	...........
	2	0.775	5.45329E-003	5.23183E-003	5.81865E-004	...........
	3	1.03333	5.41165E-003	5.14204E-003	5.85065E-004	...........
	4	1.29167	5.34081E-003	5.06259E-003	5.78566E-004	...........
	5	1.55	5.25265E-003	4.99749E-003	5.80199E-004	...........
	6	1.80833	5.16275E-003	4.94148E-003	5.85032E-004	...........
	7	2.06667	5.08107E-003	4.89510E-003	5.85532E-004	...........
	8	2.325	5.01081E-003	4.83772E-003	5.82365E-004	...........
	9	2.58333	4.95033E-003	4.79468E-003	5.79032E-004	...........
	10	2.84167	4.89647E-003	4.75914E-003	5.80999E-004	...........
	11	3.1	4.84767E-003	4.73238E-003	5.78099E-004	...........
	12	3.35833	4.80446E-003	4.70496E-003	5.77932E-004	...........
	13	3.61667	4.76743E-003	4.67978E-003	5.82932E-004	...........
	14	3.875	4.73579E-003	4.65594E-003	5.83899E-004	...........
	15	4.13333	4.70794E-003	4.63401E-003	5.82565E-004	...........
	16	4.39167	4.68252E-003	4.61237E-003	5.82365E-004	...........
	17	4.65	4.65876E-003	4.59261E-003	5.78765E-004	...........
	18	4.90833	4.63636E-003	4.57625E-003	5.82399E-004	...........
EOC	QUANT	0.0046364	Open Circuit (V)
PSTATMODEL	IQUANT	4	Pstat Model
PSTATSECTION	LABEL	REF600-11020	Pstat Section
PSTATSERIALNO	LABEL	11020	Pstat Serial Number
CTRLMODE	IQUANT	1	Control Mode
IESTAB	IQUANT	0	I/E Stability
CASPEED	IQUANT	1	Control Amp Speed
CONVENTION	IQUANT	1	Current Convention
ICHRANGE	IQUANT	2	Ich Range
ICHRANGEMODE	TOGGLE	F	Ich Auto Range
ICHOFFSETENABLE	TOGGLE	T	Ich Offset Enable
ICHOFFSET	QUANT	0	Ich Offset (V)
ICHFILTER	IQUANT	3	Ich Filter
VCHRANGE	IQUANT	2	Vch Range
VCHRANGEMODE	TOGGLE	F	Vch Auto Range
VCHOFFSETENABLE	TOGGLE	T	Vch Offset Enable
VCHOFFSET	QUANT	0	Vch Offset (V)
VCHFILTER	IQUANT	3	Vch Filter
ACHRANGE	IQUANT	2	Ach Range
ACHOFFSETENABLE	TOGGLE	F	Ach Offset Enable
ACHOFFSET	QUANT	0	Ach Offset (V)
ACHFILTER	IQUANT	3	Ach Filter
IERANGELOWERLIMIT	IQUANT	1	I/E Range Lower Limit
IERANGEMODE	TOGGLE	F	I/E AutoRange
IERANGE	IQUANT	2	I/E Range
POSFEEDENABLE	TOGGLE	F	Positive Feedback IR Comp
POSFEEDRESISTANCE	QUANT	0	Positive Feedback Resistance (ohm)
ACHSELECT	IQUANT	0	Ach Select
CABLEID	IQUANT	14	Cable ID
DCCALDATE	LABEL	8/19/2019	DC Calibration Date
ACCALDATE	LABEL	8/19/2019	AC Calibration Date
THERMOSELECT	IQUANT	1	Thermo Select
FRAMEWORKVERSION	QUANT	6.33	Framework Version
INSTRUMENTVERSION	LABEL	3.50	Instrument Version
ZCURVE	TABLE
	Pt	Time	Freq	Zreal	Zimag	Zsig	Zmod	Zphz	Idc	Vdc	IERange
	#	s	Hz	ohm	ohm	V	ohm	°	A	V	#
	0	2	1000078	2186.137	-948.1356	1	2382.888	-23.44656	-2.361407E-007	0.007647	8
	1	3	794390.6	2338.465	-839.2981	1	2484.52	-19.74356	2.703067E-006	0.0062391	8
	2	4	630984.4	2452.274	-722.4731	1	2556.485	-16.41569	-1.840286E-006	0.0070309	8
	3	6	501234.4	2525.045	-627.9078	1	2601.945	-13.96461	-2.155994E-006	0.0067871	8
	4	7	398109.4	2585.897	-550.2747	1	2643.798	-12.01326	-3.613853E-006	0.0072329	8
	5	8	316265.6	2639.408	-477.8812	1	2682.321	-10.26258	-6.80551E-007	0.0066614	8
	6	10	251203.1	2690.559	-431.8056	1	2724.989	-9.117602	1.96712E-006	0.0060161	8
	7	11	199546.9	2719.702	-372.581	1	2745.104	-7.800582	-1.025934E-006	0.0066757	8
	8	12	158578.1	2762.531	-343.7774	1	2783.839	-7.093588	-1.672582E-006	0.0067003	8
	9	14	125953.1	2793.43	-287.4174	1	2808.177	-5.87452	1.702184E-007	0.0061297	7
	10	15	100078.1	2814.68	-276.7913	1	2828.257	-5.616321	8.251202E-008	0.0062068	7
	11	16	79453.13	2839.244	-280.9166	1	2853.107	-5.65049	-7.519129E-009	0.0063982	7
	12	18	63140.62	2866.477	-290.4167	1	2881.151	-5.785174	-4.633996E-008	0.0064301	7
	13	19	50203.12	2896.561	-305.7545	1	2912.654	-6.0257	-2.233192E-008	0.0065065	7
	14	20	39890.62	2932.324	-327.7426	1	2950.583	-6.377418	-3.879987E-008	0.0064856	7
	15	22	31640.63	2963.741	-352.1637	1	2984.591	-6.776343	-3.741682E-008	0.0064846	7
	16	23	25171.88	3001.976	-383.9248	1	3026.427	-7.288034	2.720135E-008	0.0063464	7
	17	24	20015.62	3044.222	-423.2404	1	3073.503	-7.915135	-4.153146E-008	0.006388	7
	18	26	15890.62	3095.158	-469.658	1	3130.588	-8.62822	7.86975E-008	0.0062161	7
	19	27	12609.37	3143.176	-524.8004	1	3186.687	-9.478951	-1.694214E-008	0.0064144	7
	20	28	10078.13	3200.121	-586.8497	1	3253.485	-10.39164	1.31575E-007	0.0061649	7
	21	30	8015.625	3264.044	-660.6129	1	3330.224	-11.44159	-3.999374E-008	0.0063897	7
	22	31	6328.125	3336.796	-749.103	1	3419.848	-12.65299	-4.963568E-008	0.0064573	7
	23	32	5015.625	3415.875	-848.9921	1	3519.8	-13.95765	-2.047548E-008	0.0064976	7
	24	34	3984.375	3504.073	-963.621	1	3634.156	-15.37627	-4.481473E-008	0.0063859	7
	25	35	3170.956	3598.889	-1095.953	1	3762.062	-16.93683	-2.290859E-008	0.0064907	7
	26	37	2527.573	3700.185	-1248.901	1	3905.269	-18.65076	-1.785007E-008	0.0063534	7
	27	38	1976.103	3817.96	-1443.747	1	4081.816	-20.71393	-4.729631E-008	0.0064646	7
	28	39	1577.524	3931.213	-1657.591	1	4266.385	-22.86265	6.659735E-008	0.0063373	7
	29	41	1265.625	4051.356	-1907.782	1	4478.071	-25.21572	8.274483E-008	0.0061818	7
	30	42	998.264	4180.935	-2240.474	1	4743.41	-28.18591	-3.181783E-009	0.0063879	7
	31	43	796.875	4311.27	-2624.155	1	5047.102	-31.32776	-1.993946E-008	0.0063453	7
	32	45	627.7902	4459.542	-3129.813	1	5448.233	-35.06209	7.973055E-008	0.0062123	7
	33	46	505.5147	4606.114	-3696.829	1	5906.169	-38.75024	2.392903E-008	0.0062766	7
	34	47	397.9953	4778.15	-4476.878	1	6547.76	-43.13556	6.24257E-009	0.0063607	7
	35	49	315.5048	4972.034	-5423.646	1	7357.79	-47.4875	6.113603E-009	0.0063609	7
	36	50	252.4038	5188.395	-6551.494	1	8357.123	-51.62287	5.556549E-009	0.0063576	7
	37	51	198.6229	5465.746	-8054.062	1	9733.57	-55.83792	6.767255E-009	0.0063582	7
	38	53	158.3615	5789.11	-9815.81	1	11395.79	-59.469	9.488584E-010	0.0062979	6
	39	54	125.558	6199.81	-12048.95	1	13550.45	-62.77182	1.331545E-009	0.0063003	6
	40	55	100.4464	6694.196	-14677.72	1	16132.19	-65.48328	4.992987E-010	0.0062974	6
	41	56	79.00281	7356.662	-18200.14	1	19630.73	-67.99099	4.658056E-010	0.0063014	6
	42	58	63.3446	8197.693	-21995.55	1	23473.52	-69.55968	1.230885E-009	0.0062984	6
	43	59	49.86702	9379.131	-27450.7	1	29008.78	-71.13615	4.485771E-010	0.0062923	6
	44	61	39.72458	10703.74	-33440.48	1	35111.76	-72.25099	6.224228E-010	0.0062998	6
	45	62	31.6723	12581.65	-40852.13	1	42745.7	-72.8822	1.391549E-009	0.0062942	6
	46	63	24.93351	15000.06	-50330.25	1	52517.96	-73.40422	6.692273E-010	0.0062902	6
	47	65	19.86229	18051.9	-61194.74	1	63801.78	-73.56441	3.790313E-010	0.0062934	6
	48	66	15.83615	22173.96	-74227.29	1	77468.54	-73.36751	-7.174716E-011	0.006296	6
	49	67	12.40079	27536.07	-91338.28	1	95398.7	-73.22334	1.079024E-009	0.0062976	6
	50	69	9.93114	34111.78	-109644.9	1	114828.6	-72.71848	5.142185E-010	0.0063005	5
	51	70	7.944915	42293.34	-131496.5	1	138130.6	-72.17061	7.117156E-010	0.0063007	5
	52	72	6.317385	52514.23	-157769.7	1	166280	-71.58979	6.688187E-010	0.006299	5
	53	74	5.008013	65823.95	-189632.6	1	200732	-70.85744	3.495893E-010	0.0063064	5
	54	76	3.945707	83005.21	-227936.7	1	242579.9	-69.99045	3.200912E-010	0.0063021	5
	55	79	3.158693	102668	-269920	1	288786.3	-69.17496	1.224305E-010	0.0062822	5
	56	82	2.504006	127717.6	-320862.4	1	345346.9	-68.29524	2.547287E-010	0.0063026	5
	57	85	1.998082	156746.8	-378104.8	1	409307.7	-67.48311	4.232619E-010	0.00632	5
	58	88	1.584686	194540.6	-446543	1	487079.8	-66.45921	1.248306E-010	0.0062475	5
	59	92	1.266892	236388.8	-521582.9	1	572650.3	-65.61929	2.976589E-010	0.0062748	5
	60	96	0.999041	290083.7	-616327.4	1	681181.3	-64.79527	-4.17989E-011	0.0063049	5
