EXPLAIN
TAG	EISPOT
TITLE	LABEL	Potentiostatic IDE	Test &Identifier
DATE	LABEL	9/16/2019	Date
TIME	LABEL	9:27:42	Time
NOTES	NOTES	1	&Notes...
	
PSTAT	PSTAT	REF600-11020	Potentiostat
VDC	POTEN	0.00000E+000	T	DC &Voltage (V)
FREQINIT	QUANT	1.00000E+006	Initial Fre&q. (Hz)
FREQFINAL	QUANT	1.00000E+000	Final Fre&q. (Hz)
PTSPERDEC	QUANT	1.00000E+001	Points/&decade
VAC	QUANT	2.50000E+001	AC &Voltage (mV rms)
AREA	QUANT	1.00000E-002	&Area (cm^2)
CONDIT	TWOPARAM	T	5.00000E+000	0.00000E+000	Conditionin&g	Time(s)	E(V)
DELAY	TWOPARAM	T	5.00000E+000	0.00000E+000	Init. De&lay	Time(s)	Stab.(mV/s)
SPEED	SELECTOR	1	&Optimize for:
ZGUESS	QUANT	1.00000E+007	E&stimated Z (ohms)
OCVCURVE	TABLE	19
	Pt	T	Vf	Vm	Ach	Over
	#	s	V vs. Ref.	V	V	bits
	0	0.258333	9.70466E-004	9.70466E-004	5.41766E-004	...........
	1	0.516667	9.62409E-004	5.48710E-004	5.40199E-004	...........
	2	0.775	9.12482E-004	1.25301E-004	5.40199E-004	...........
	3	1.03333	7.71454E-004	-1.91522E-004	5.37733E-004	...........
	4	1.29167	5.17692E-004	-8.09509E-004	5.42866E-004	...........
	5	1.55	1.64989E-004	-1.31329E-003	5.44533E-004	...........
	6	1.80833	-2.55416E-004	-1.31826E-003	5.45033E-004	...........
	7	2.06667	-6.86027E-004	-1.65645E-003	5.40799E-004	...........
	8	2.325	-1.05922E-003	-1.69531E-003	5.47866E-004	...........
	9	2.58333	-1.34632E-003	-1.95349E-003	5.48366E-004	...........
	10	2.84167	-1.56654E-003	-2.18911E-003	5.48266E-004	...........
	11	3.1	-1.76057E-003	-2.46630E-003	5.50333E-004	...........
	12	3.35833	-1.96243E-003	-2.62484E-003	5.51066E-004	...........
	13	3.61667	-2.18091E-003	-2.88685E-003	5.48466E-004	...........
	14	3.875	-2.40625E-003	-3.05908E-003	5.49299E-004	...........
	15	4.13333	-2.62692E-003	-3.19473E-003	5.47666E-004	...........
	16	4.39167	-2.83436E-003	-3.40871E-003	5.47499E-004	...........
	17	4.65	-3.02671E-003	-3.61647E-003	5.44466E-004	...........
	18	4.90833	-3.21199E-003	-3.78536E-003	5.45999E-004	...........
EOC	QUANT	-0.003212	Open Circuit (V)
PSTATMODEL	IQUANT	4	Pstat Model
PSTATSECTION	LABEL	REF600-11020	Pstat Section
PSTATSERIALNO	LABEL	11020	Pstat Serial Number
CTRLMODE	IQUANT	1	Control Mode
IESTAB	IQUANT	0	I/E Stability
CASPEED	IQUANT	1	Control Amp Speed
CONVENTION	IQUANT	1	Current Convention
ICHRANGE	IQUANT	2	Ich Range
ICHRANGEMODE	TOGGLE	F	Ich Auto Range
ICHOFFSETENABLE	TOGGLE	T	Ich Offset Enable
ICHOFFSET	QUANT	0	Ich Offset (V)
ICHFILTER	IQUANT	3	Ich Filter
VCHRANGE	IQUANT	2	Vch Range
VCHRANGEMODE	TOGGLE	F	Vch Auto Range
VCHOFFSETENABLE	TOGGLE	T	Vch Offset Enable
VCHOFFSET	QUANT	0	Vch Offset (V)
VCHFILTER	IQUANT	3	Vch Filter
ACHRANGE	IQUANT	2	Ach Range
ACHOFFSETENABLE	TOGGLE	F	Ach Offset Enable
ACHOFFSET	QUANT	0	Ach Offset (V)
ACHFILTER	IQUANT	3	Ach Filter
IERANGELOWERLIMIT	IQUANT	1	I/E Range Lower Limit
IERANGEMODE	TOGGLE	F	I/E AutoRange
IERANGE	IQUANT	2	I/E Range
POSFEEDENABLE	TOGGLE	F	Positive Feedback IR Comp
POSFEEDRESISTANCE	QUANT	0	Positive Feedback Resistance (ohm)
ACHSELECT	IQUANT	0	Ach Select
CABLEID	IQUANT	14	Cable ID
DCCALDATE	LABEL	8/19/2019	DC Calibration Date
ACCALDATE	LABEL	8/19/2019	AC Calibration Date
THERMOSELECT	IQUANT	1	Thermo Select
FRAMEWORKVERSION	QUANT	6.33	Framework Version
INSTRUMENTVERSION	LABEL	3.50	Instrument Version
ZCURVE	TABLE
	Pt	Time	Freq	Zreal	Zimag	Zsig	Zmod	Zphz	Idc	Vdc	IERange
	#	s	Hz	ohm	ohm	V	ohm	°	A	V	#
	0	2	1000078	2457.058	-1927.577	1	3122.929	-38.1144	3.680267E-006	-0.0013318	8
	1	4	794390.6	2836.718	-1886.939	1	3406.979	-33.63121	-4.252367E-006	-0.0007622	8
	2	5	630984.4	3227.104	-1796.644	1	3693.526	-29.10625	3.220782E-007	-0.0011198	8
	3	7	501234.4	3534.841	-1655.819	1	3903.439	-25.09971	-4.286587E-006	-0.0006222	8
	4	8	398109.4	3811.667	-1498.161	1	4095.521	-21.45712	6.247264E-006	-0.0026901	8
	5	10	316265.6	4054.205	-1318.021	1	4263.068	-18.00933	8.756122E-007	-0.0019967	8
	6	11	251203.1	4198.468	-1129.151	1	4347.657	-15.05315	1.904533E-006	-0.0020565	8
	7	12	199546.9	4331.921	-986.657	1	4442.863	-12.83105	-5.844902E-007	-0.0013635	8
	8	14	158578.1	4426.426	-856.5385	1	4508.537	-10.9517	1.167031E-006	-0.0018723	8
	9	16	125953.1	4533.255	-702.8397	1	4587.416	-8.813019	-9.277115E-007	0.0008969	7
	10	17	100078.1	4584.548	-613.479	1	4625.413	-7.621728	-8.259016E-008	-0.0015518	7
	11	18	79453.13	4633.503	-558.7043	1	4667.066	-6.875488	-4.113922E-008	-0.0016708	7
	12	20	63140.62	4675.892	-519.744	1	4704.689	-6.342618	1.506822E-007	-0.0019167	7
	13	21	50203.12	4715.65	-494.9673	1	4741.556	-5.991979	-1.76235E-008	-0.0015315	7
	14	22	39890.62	4753.782	-482.5896	1	4778.215	-5.796636	-2.06958E-008	-0.001716	7
	15	24	31640.63	4793.995	-489.2419	1	4818.894	-5.827037	9.664206E-008	-0.0018912	7
	16	25	25171.88	4830.748	-504.5433	1	4857.025	-5.96259	-2.026294E-008	-0.0017175	7
	17	26	20015.62	4872.802	-534.1575	1	4901.992	-6.255797	4.766977E-008	-0.0018452	7
	18	28	15890.62	4917.566	-574.8571	1	4951.052	-6.667541	2.40728E-008	-0.001791	7
	19	29	12609.37	4967.335	-635.7199	1	5007.85	-7.293073	-4.084074E-008	-0.0016697	7
	20	30	10078.13	5018.285	-704.2574	1	5067.461	-7.988618	4.67884E-008	-0.0018461	7
	21	32	8015.625	5074.164	-794.3134	1	5135.959	-8.89692	4.236123E-008	-0.0017418	7
	22	33	6328.125	5139.333	-911.1296	1	5219.473	-10.05326	-6.24227E-009	-0.0016724	7
	23	34	5015.625	5206.603	-1050.8	1	5311.582	-11.4102	-1.783135E-008	-0.001542	7
	24	36	3984.375	5281.224	-1220.998	1	5420.531	-13.01784	-4.031254E-008	-0.0016798	7
	25	37	3170.956	5364.29	-1425.861	1	5550.558	-14.88538	-3.989843E-008	-0.0016548	7
	26	38	2527.573	5454.15	-1673.683	1	5705.17	-17.05937	-7.840906E-009	-0.0017432	7
	27	40	1976.103	5568.104	-2005.809	1	5918.366	-19.81063	-5.535677E-008	-0.0015793	7
	28	41	1577.524	5676.95	-2378.313	1	6155.009	-22.73086	-4.029925E-008	-0.0016539	7
	29	42	1265.625	5828.815	-2821.171	1	6475.653	-25.82718	-8.00252E-009	-0.0016699	7
	30	44	998.264	5959.838	-3399.408	1	6861.169	-29.69983	-4.699402E-008	-0.001668	7
	31	45	796.875	6130.157	-4078.296	1	7362.834	-33.63519	-8.129877E-008	-0.0015802	7
	32	46	627.7902	6332.215	-4960.082	1	8043.591	-38.07192	-5.279298E-009	-0.0016695	7
	33	48	505.5147	6548.325	-5932.846	1	8836.245	-42.17688	9.571411E-008	-0.0019047	7
	34	49	397.9953	6819.472	-7265.387	1	9964.49	-46.81333	5.39675E-009	-0.0016806	7
	35	50	315.5048	7137.774	-8855.121	1	11373.7	-51.12904	2.014245E-009	-0.0017439	6
	36	52	252.4038	7491.191	-10735.04	1	13090.42	-55.09166	1.053756E-009	-0.0017462	6
	37	53	198.6229	7949.964	-13227.51	1	15432.72	-58.9934	1.434293E-009	-0.0017465	6
	38	54	158.3615	8474.106	-16147.84	1	18236.32	-62.31029	1.511922E-009	-0.0017471	6
	39	56	125.558	9135.095	-19825.84	1	21829.2	-65.26131	9.010933E-010	-0.0017482	6
	40	57	100.4464	9921.82	-24221.56	1	26174.92	-67.72464	1.345575E-009	-0.0017447	6
	41	58	79.00281	10983.34	-30057.65	1	32001.5	-69.92722	7.660558E-010	-0.0017483	6
	42	60	63.3446	12480.51	-36185.27	1	38277.11	-70.97038	5.901519E-010	-0.0017515	6
	43	61	49.86702	14181.69	-45576.5	1	47731.94	-72.71583	9.095686E-010	-0.0017486	6
	44	62	39.72458	16423.54	-55396.38	1	57779.68	-73.48632	7.857245E-010	-0.0017469	6
	45	64	31.6723	19495.41	-67638.24	1	70391.78	-73.9214	6.163385E-010	-0.0017456	6
	46	65	24.93351	23805.72	-83612.92	1	86935.8	-74.10764	7.692502E-010	-0.0017488	6
	47	67	19.86229	29329.73	-101875.7	1	106013.6	-73.93904	1.141138E-009	-0.0017432	6
	48	68	15.83615	37078.49	-124486.3	1	129890.9	-73.41373	1.948568E-009	-0.0017428	5
	49	69	12.40079	47388.95	-151633.9	1	158866.5	-72.64482	-4.636574E-011	-0.0017409	5
	50	71	9.93114	59414.98	-183115	1	192513	-72.02341	5.564044E-010	-0.0017381	5
	51	72	7.944915	75339.27	-218527.6	1	231150	-70.97793	8.597468E-010	-0.0017316	5
	52	74	6.317385	96845.8	-261090.4	1	278473.1	-69.64877	8.161136E-010	-0.0017418	5
	53	76	5.008013	125038.8	-311355.3	1	335524.8	-68.11983	2.705741E-010	-0.0017387	5
	54	79	3.945707	162336.5	-369618.4	1	403696.5	-66.28891	2.790335E-010	-0.0017418	5
	55	81	3.158693	205769.9	-430082.3	1	476772.5	-64.43154	1.574082E-010	-0.0017565	5
	56	84	2.504006	261193.4	-498740	1	562995.1	-62.35865	6.525553E-010	-0.0017403	5
	57	87	1.998082	326507.5	-570583.4	1	657398.3	-60.22032	5.123225E-010	-0.0017108	5
	58	90	1.584686	402115.8	-646907.9	1	761700	-58.13505	4.659945E-010	-0.0017487	5
	59	94	1.266892	489595.3	-724912.1	1	874757.7	-55.96547	2.405833E-010	-0.0017057	5
	60	98	0.999041	586018.3	-810703.2	1	1000329	-54.13865	3.62669E-010	-0.0017705	5
