EXPLAIN
TAG	EISPOT
TITLE	LABEL	Potentiostatic EIS	Test &Identifier
DATE	LABEL	8/16/2017	Date
TIME	LABEL	17:01:19	Time
NOTES	NOTES	1	&Notes...
	
PSTAT	PSTAT	REF600-11020	Potentiostat
VDC	POTEN	0.00000E+000	T	DC &Voltage (V)
FREQINIT	QUANT	1.00000E+006	Initial Fre&q. (Hz)
FREQFINAL	QUANT	1.00000E+000	Final Fre&q. (Hz)
PTSPERDEC	QUANT	1.00000E+001	Points/&decade
VAC	QUANT	2.50000E+001	AC &Voltage (mV rms)
AREA	QUANT	1.00000E-002	&Area (cm^2)
CONDIT	TWOPARAM	T	5.00000E+000	0.00000E+000	Conditionin&g	Time(s)	E(V)
DELAY	TWOPARAM	T	5.00000E+000	0.00000E+000	Init. De&lay	Time(s)	Stab.(mV/s)
SPEED	SELECTOR	0	&Optimize for:
ZGUESS	QUANT	1.00000E+005	E&stimated Z (ohms)
OCVCURVE	TABLE	19
	Pt	T	Vf	Vm	Ach	Over
	#	s	V vs. Ref.	V	V	bits
	0	0.258333	6.28261E-003	6.28261E-003	5.47033E-004	...........
	1	0.516667	6.28299E-003	6.30283E-003	5.47099E-004	...........
	2	0.775	6.28586E-003	6.34813E-003	5.50899E-004	...........
	3	1.03333	6.29581E-003	6.40000E-003	5.44799E-004	...........
	4	1.29167	6.31757E-003	6.45295E-003	5.41466E-004	...........
	5	1.55	6.35242E-003	6.50787E-003	5.44233E-004	...........
	6	1.80833	6.39764E-003	6.56514E-003	5.42799E-004	...........
	7	2.06667	6.44925E-003	6.62351E-003	5.45666E-004	...........
	8	2.325	6.50427E-003	6.67988E-003	5.41033E-004	...........
	9	2.58333	6.56088E-003	6.73531E-003	5.43433E-004	...........
	10	2.84167	6.61780E-003	6.78542E-003	5.38033E-004	...........
	11	3.1	6.67396E-003	6.84032E-003	5.36366E-004	...........
	12	3.35833	6.72880E-003	6.89163E-003	5.41933E-004	...........
	13	3.61667	6.78232E-003	6.93815E-003	5.39999E-004	...........
	14	3.875	6.83384E-003	6.94977E-003	5.45966E-004	...........
	15	4.13333	6.88062E-003	6.98374E-003	5.46233E-004	...........
	16	4.39167	6.92141E-003	7.08451E-003	5.45666E-004	...........
	17	4.65	6.96239E-003	7.16679E-003	5.45133E-004	...........
	18	4.90833	7.01374E-003	7.23620E-003	5.52632E-004	...........
EOC	QUANT	0.0070137	Open Circuit (V)
PSTATMODEL	IQUANT	4	Pstat Model
PSTATSECTION	LABEL	REF600-11020	Pstat Section
PSTATSERIALNO	LABEL	11020	Pstat Serial Number
CTRLMODE	IQUANT	1	Control Mode
IESTAB	IQUANT	0	I/E Stability
CASPEED	IQUANT	1	Control Amp Speed
CONVENTION	IQUANT	1	Current Convention
ICHRANGE	IQUANT	2	Ich Range
ICHRANGEMODE	TOGGLE	F	Ich Auto Range
ICHOFFSETENABLE	TOGGLE	T	Ich Offset Enable
ICHOFFSET	QUANT	0	Ich Offset (V)
ICHFILTER	IQUANT	3	Ich Filter
VCHRANGE	IQUANT	2	Vch Range
VCHRANGEMODE	TOGGLE	F	Vch Auto Range
VCHOFFSETENABLE	TOGGLE	T	Vch Offset Enable
VCHOFFSET	QUANT	0	Vch Offset (V)
VCHFILTER	IQUANT	3	Vch Filter
ACHRANGE	IQUANT	2	Ach Range
ACHOFFSETENABLE	TOGGLE	F	Ach Offset Enable
ACHOFFSET	QUANT	0	Ach Offset (V)
ACHFILTER	IQUANT	3	Ach Filter
IERANGELOWERLIMIT	IQUANT	1	I/E Range Lower Limit
IERANGEMODE	TOGGLE	F	I/E AutoRange
IERANGE	IQUANT	5	I/E Range
POSFEEDENABLE	TOGGLE	F	Positive Feedback IR Comp
POSFEEDRESISTANCE	QUANT	0	Positive Feedback Resistance (ohm)
ACHSELECT	IQUANT	0	Ach Select
CABLEID	IQUANT	14	Cable ID
DCCALDATE	LABEL	8/19/2019	DC Calibration Date
ACCALDATE	LABEL	8/19/2019	AC Calibration Date
THERMOSELECT	IQUANT	1	Thermo Select
FRAMEWORKVERSION	QUANT	6.33	Framework Version
INSTRUMENTVERSION	LABEL	3.50	Instrument Version
ZCURVE	TABLE
	Pt	Time	Freq	Zreal	Zimag	Zsig	Zmod	Zphz	Idc	Vdc	IERange
	#	s	Hz	ohm	ohm	V	ohm	°	A	V	#
	0	1	1000078	2174.455	-1519.225	1	2652.602	-34.94082	-8.654773E-006	0.0096349	8
	1	1	794390.6	2473.727	-1465.948	1	2875.47	-30.65127	5.608175E-006	0.0092127	8
	2	2	630984.4	2742.422	-1392.4	1	3075.655	-26.9181	-4.70033E-006	0.0093798	8
	3	2	501234.4	2983.113	-1281.395	1	3246.68	-23.24592	7.514603E-006	0.0078267	8
	4	2	398109.4	3185.031	-1151.833	1	3386.908	-19.882	-1.157115E-006	0.0090906	8
	5	3	316265.6	3354.368	-1022.31	1	3506.694	-16.94964	8.046297E-007	0.0089676	8
	6	3	251203.1	3491.05	-907.0651	1	3606.965	-14.56487	-9.514741E-008	0.0082584	8
	7	3	199546.9	3591.052	-796.8422	1	3678.398	-12.51103	-7.360862E-008	0.0082616	8
	8	4	158578.1	3649.549	-713.0515	1	3718.555	-11.05522	3.915435E-006	0.0085406	8
	9	4	125953.1	3754.499	-551.7562	1	3794.825	-8.36027	-1.741314E-006	0.0118174	7
	10	4	100078.1	3811.606	-483.6671	1	3842.171	-7.231798	3.971783E-007	0.0090954	7
	11	4	79453.13	3854.735	-451.9948	1	3881.145	-6.687793	1.046889E-006	0.0078075	7
	12	5	63140.62	3884.112	-421.5341	1	3906.919	-6.193943	-9.383084E-007	0.0102798	7
	13	5	50203.12	3928.667	-404.6227	1	3949.448	-5.880294	1.049424E-006	0.0078082	7
	14	5	39890.62	3962.124	-393.9771	1	3981.663	-5.678588	5.118455E-007	0.0067954	7
	15	6	31640.63	3993.61	-395.9003	1	4013.186	-5.66143	-6.514177E-007	0.0101889	7
	16	6	25171.88	4037.949	-406.0236	1	4058.311	-5.741902	1.144752E-006	0.0073543	7
	17	6	20015.62	4068.693	-420.3183	1	4090.346	-5.898047	-3.111651E-007	0.0076303	7
	18	7	15890.62	4116.541	-447.3939	1	4140.781	-6.202675	1.023373E-006	0.0067724	7
	19	7	12609.37	4152.984	-481.4693	1	4180.8	-6.612968	-3.101227E-007	0.0099379	7
	20	7	10078.13	4185.229	-522.925	1	4217.771	-7.121934	-3.112354E-007	0.0076297	7
	21	8	8015.625	4234.667	-583.614	1	4274.694	-7.846967	-6.527804E-007	0.0101827	7
	22	8	6328.125	4285.894	-653.6873	1	4335.458	-8.671958	1.04795E-006	0.0077963	7
	23	8	5015.625	4331.208	-747.835	1	4395.296	-9.79622	1.144308E-006	0.0073508	7
	24	9	3984.375	4370.527	-862.6324	1	4454.845	-11.16524	-7.49892E-007	0.0083427	7
	25	9	3170.956	4420.298	-1010.496	1	4534.329	-12.87676	6.304101E-007	0.008743	7
	26	9	2527.573	4465.818	-1187.009	1	4620.879	-14.88498	-7.501765E-007	0.0083376	7
	27	10	1976.103	4531.126	-1434.262	1	4752.706	-17.56443	1.311061E-007	0.0070923	7
	28	10	1577.524	4627.214	-1727.876	1	4939.298	-20.47644	8.157713E-007	0.0066769	7
	29	10	1265.625	4669.863	-2065.971	1	5106.452	-23.86484	5.111954E-007	0.0067829	7
	30	11	998.264	4765.358	-2523.842	1	5392.441	-27.90671	6.2809E-007	0.0087414	7
	31	11	796.875	4870.598	-3049.664	1	5746.579	-32.05223	-1.280136E-006	0.0100328	7
	32	11	627.7902	5012.61	-3767.553	1	6270.624	-36.92907	1.023357E-006	0.0067723	7
	33	11	505.5147	5172.875	-4543.253	1	6884.75	-41.29232	4.00049E-007	0.0090735	7
	34	12	397.9953	5396.682	-5598.314	1	7775.943	-46.0506	-3.597326E-010	0.0085461	7
	35	12	315.5048	5674.229	-6863.423	1	8905.248	-50.41829	2.609248E-010	0.008542	7
	36	13	252.4038	6020.247	-8346.447	1	10291.09	-54.19729	-5.293054E-010	0.0084842	6
	37	13	198.6229	6494.558	-10288.11	1	12166.53	-57.73708	4.380378E-010	0.0084802	6
	38	13	158.3615	7072.728	-12522.11	1	14381.47	-60.54141	5.595732E-010	0.00848	6
	39	14	125.558	7842.536	-15292.3	1	17186.03	-62.84933	4.546892E-010	0.0084757	6
	40	14	100.4464	8766.635	-18495.25	1	20467.74	-64.63934	-6.664889E-010	0.008467	6
	41	14	79.00281	10072.71	-22679.19	1	24815.42	-66.05214	4.032736E-010	0.0084736	6
	42	14	63.3446	11514.06	-26953.44	1	29309.75	-66.86864	2.116691E-010	0.008471	6
	43	15	49.86702	13657.53	-32899.2	1	35621.41	-67.45506	9.767623E-010	0.0084656	6
	44	15	39.72458	16092.58	-39816.88	1	42945.95	-67.99317	-2.070268E-012	0.0084778	6
	45	16	31.6723	19141.39	-47874.2	1	51559.01	-68.20715	-3.115655E-010	0.00848	6
	46	16	24.93351	23486.73	-57828.74	1	62416.26	-67.89583	-5.524922E-010	0.0084682	6
	47	16	19.86229	28501.91	-69094.48	1	74742.27	-67.58354	-1.218769E-009	0.0084705	6
	48	16	15.83615	35196.42	-82843.82	1	90010.48	-66.98166	-2.156701E-009	0.0084761	6
	49	17	12.40079	44159.17	-98571	1	108010.5	-65.86794	-3.353826E-010	0.0084733	5
	50	17	9.93114	54085.8	-114918.6	1	127010	-64.79623	-8.074524E-010	0.0084784	5
	51	18	7.944915	66310.36	-134001.9	1	149511.1	-63.67165	-1.2566E-010	0.0084732	5
	52	18	6.317385	81170.46	-155537.8	1	175444.2	-62.44131	-5.00616E-010	0.0084936	5
	53	19	5.008013	98779.6	-180053	1	205369.2	-61.2502	-5.599823E-010	0.0084674	5
	54	20	3.945707	119401.2	-207603.3	1	239490.7	-60.09502	-3.704773E-011	0.0084775	5
	55	22	3.158693	140799.3	-236609.2	1	275333.2	-59.24435	-1.805227E-010	0.0084967	5
	56	23	2.504006	165210.1	-271721.8	1	318004.8	-58.6999	-3.831628E-010	0.0084759	5
	57	24	1.998082	190152.6	-309854.8	1	363549.2	-58.46326	-4.875429E-011	0.0084945	5
	58	26	1.584686	217631.2	-359531.2	1	420269	-58.81267	-9.798897E-011	0.0085242	5
	59	28	1.266892	247882.5	-412723	1	481441.7	-59.01086	-1.529774E-010	0.0084949	5
	60	30	0.999041	283319.4	-482314.1	1	559371.8	-59.56931	-1.026537E-010	0.0084702	5
