EXPLAIN
TAG	EISPOT
TITLE	LABEL	Potentiostatic EIS	Test &Identifier
DATE	LABEL	11/5/2019	Date
TIME	LABEL	9:17:43	Time
NOTES	NOTES	2	&Notes...
	
	
PSTAT	PSTAT	REF600-11020	Potentiostat
VDC	POTEN	0.00000E+000	T	DC &Voltage (V)
FREQINIT	QUANT	1.00000E+006	Initial Fre&q. (Hz)
FREQFINAL	QUANT	1.00000E+000	Final Fre&q. (Hz)
PTSPERDEC	QUANT	1.00000E+001	Points/&decade
VAC	QUANT	2.50000E+001	AC &Voltage (mV rms)
AREA	QUANT	1.00000E-002	&Area (cm^2)
CONDIT	TWOPARAM	T	5.00000E+000	0.00000E+000	Conditionin&g	Time(s)	E(V)
DELAY	TWOPARAM	T	5.00000E+000	0.00000E+000	Init. De&lay	Time(s)	Stab.(mV/s)
SPEED	SELECTOR	1	&Optimize for:
ZGUESS	QUANT	1.00000E+005	E&stimated Z (ohms)
OCVCURVE	TABLE	19
	Pt	T	Vf	Vm	Ach	Over
	#	s	V vs. Ref.	V	V	bits
	0	0.258333	5.21037E-004	5.21037E-004	5.69766E-004	...........
	1	0.516667	4.68573E-004	-2.22529E-003	5.66532E-004	...........
	2	0.775	1.83157E-004	-2.90474E-003	5.62332E-004	...........
	3	1.03333	-4.41383E-004	-3.77696E-004	5.66199E-004	...........
	4	1.29167	-1.10905E-003	-6.64172E-004	5.67432E-004	...........
	5	1.55	-1.37367E-003	-1.69479E-004	5.66566E-004	...........
	6	1.80833	-1.17571E-003	-3.48199E-004	5.70032E-004	...........
	7	2.06667	-8.09090E-004	-7.19609E-004	5.74032E-004	...........
	8	2.325	-5.61757E-004	-1.33133E-003	5.68499E-004	...........
	9	2.58333	-5.58691E-004	-1.31733E-003	5.69399E-004	...........
	10	2.84167	-7.62632E-004	-1.62187E-003	5.72666E-004	...........
	11	3.1	-1.05387E-003	-1.95366E-003	5.69632E-004	...........
	12	3.35833	-1.34616E-003	-2.08327E-003	5.69466E-004	...........
	13	3.61667	-1.61471E-003	-2.24734E-003	5.72332E-004	...........
	14	3.875	-1.85398E-003	-2.47127E-003	5.72499E-004	...........
	15	4.13333	-2.06432E-003	-2.62449E-003	5.76499E-004	...........
	16	4.39167	-2.25547E-003	-2.78671E-003	5.70732E-004	...........
	17	4.65	-2.43534E-003	-2.92561E-003	5.76266E-004	...........
	18	4.90833	-2.60495E-003	-3.07184E-003	5.77199E-004	...........
EOC	QUANT	-0.0026049	Open Circuit (V)
PSTATMODEL	IQUANT	4	Pstat Model
PSTATSECTION	LABEL	REF600-11020	Pstat Section
PSTATSERIALNO	LABEL	11020	Pstat Serial Number
CTRLMODE	IQUANT	1	Control Mode
IESTAB	IQUANT	0	I/E Stability
CASPEED	IQUANT	1	Control Amp Speed
CONVENTION	IQUANT	1	Current Convention
ICHRANGE	IQUANT	2	Ich Range
ICHRANGEMODE	TOGGLE	F	Ich Auto Range
ICHOFFSETENABLE	TOGGLE	T	Ich Offset Enable
ICHOFFSET	QUANT	0	Ich Offset (V)
ICHFILTER	IQUANT	3	Ich Filter
VCHRANGE	IQUANT	2	Vch Range
VCHRANGEMODE	TOGGLE	F	Vch Auto Range
VCHOFFSETENABLE	TOGGLE	T	Vch Offset Enable
VCHOFFSET	QUANT	0	Vch Offset (V)
VCHFILTER	IQUANT	3	Vch Filter
ACHRANGE	IQUANT	2	Ach Range
ACHOFFSETENABLE	TOGGLE	F	Ach Offset Enable
ACHOFFSET	QUANT	0	Ach Offset (V)
ACHFILTER	IQUANT	3	Ach Filter
IERANGELOWERLIMIT	IQUANT	1	I/E Range Lower Limit
IERANGEMODE	TOGGLE	F	I/E AutoRange
IERANGE	IQUANT	4	I/E Range
POSFEEDENABLE	TOGGLE	F	Positive Feedback IR Comp
POSFEEDRESISTANCE	QUANT	0	Positive Feedback Resistance (ohm)
ACHSELECT	IQUANT	0	Ach Select
CABLEID	IQUANT	14	Cable ID
DCCALDATE	LABEL	8/19/2019	DC Calibration Date
ACCALDATE	LABEL	8/19/2019	AC Calibration Date
THERMOSELECT	IQUANT	1	Thermo Select
FRAMEWORKVERSION	QUANT	6.33	Framework Version
INSTRUMENTVERSION	LABEL	3.50	Instrument Version
ZCURVE	TABLE
	Pt	Time	Freq	Zreal	Zimag	Zsig	Zmod	Zphz	Idc	Vdc	IERange
	#	s	Hz	ohm	ohm	V	ohm	°	A	V	#
	0	1	1000078	2110.342	-1612.37	1	2655.801	-37.38102	-1.740452E-006	0.0004737	8
	1	2	794390.6	2445.606	-1593.756	1	2919.083	-33.09155	8.871697E-006	-0.0015471	8
	2	3	630984.4	2738.655	-1498.385	1	3121.76	-28.68414	2.776642E-007	-0.0003922	8
	3	5	501234.4	3003.206	-1373.171	1	3302.248	-24.57154	-1.838217E-006	-0.0011013	8
	4	6	398109.4	3224.608	-1236.97	1	3453.722	-20.98698	-1.522283E-007	-0.0012305	8
	5	7	316265.6	3387.025	-1099.717	1	3561.084	-17.98785	-4.708997E-006	-0.0006168	8
	6	9	251203.1	3516.012	-974.334	1	3648.516	-15.48877	6.305746E-006	-0.0020978	8
	7	10	199546.9	3623.75	-860.9943	1	3724.631	-13.36551	6.896631E-006	-0.0017338	8
	8	12	158578.1	3702.056	-781.1697	1	3783.576	-11.91518	-7.615893E-007	-0.0012809	8
	9	13	125953.1	3807.666	-661.1547	1	3864.64	-9.8505	2.99064E-006	-0.0028874	7
	10	14	100078.1	3851.954	-623.7993	1	3902.137	-9.198824	6.347123E-007	-0.0008076	7
	11	16	79453.13	3907.753	-600.9901	1	3953.697	-8.743259	1.149285E-006	-0.002222	7
	12	17	63140.62	3958.254	-596.6348	1	4002.967	-8.571769	-1.270529E-006	8.802496E-005	7
	13	18	50203.12	4013.498	-612.1412	1	4059.912	-8.671956	6.387691E-007	-0.0008238	7
	14	20	39890.62	4071.444	-638.5423	1	4121.213	-8.913339	8.179857E-007	-0.002899	7
	15	21	31640.63	4129.42	-677.6846	1	4184.658	-9.319811	-1.285057E-006	0.0004727	7
	16	22	25171.88	4197.32	-733.4653	1	4260.923	-9.91213	-3.088773E-007	0.0003773	7
	17	24	20015.62	4270.711	-803.3779	1	4345.618	-10.6536	7.005249E-008	-3.790286E-005	7
	18	25	15890.62	4352.138	-894.2531	1	4443.062	-11.61121	-3.135545E-007	-0.0019455	7
	19	26	12609.37	4449.946	-996.922	1	4560.25	-12.62748	1.139009E-006	-0.0025729	7
	20	28	10078.13	4542.034	-1121.971	1	4678.556	-13.87541	6.398036E-007	-0.0008289	7
	21	29	8015.625	4665.483	-1265.403	1	4834.044	-15.17505	8.195437E-007	-0.0029003	7
	22	31	6328.125	4798.807	-1441.289	1	5010.575	-16.71729	-9.385443E-007	0.0007091	7
	23	32	5015.625	4955.954	-1645.38	1	5221.949	-18.3662	6.393395E-007	-0.0008313	7
	24	33	3984.375	5130.322	-1880.246	1	5464.021	-20.12771	1.138817E-006	-0.0025782	7
	25	35	3170.956	5320.034	-2140.668	1	5734.564	-21.9188	-6.497878E-007	0.0006232	7
	26	36	2527.573	5538.984	-2447.82	1	6055.755	-23.84188	-6.503207E-007	0.0006249	7
	27	37	1976.103	5806.793	-2834.922	1	6461.859	-26.02199	-6.506692E-007	0.0006245	7
	28	39	1577.524	6094.857	-3255.733	1	6909.926	-28.11011	-1.093417E-006	-0.000512	7
	29	40	1265.625	6409.154	-3698.9	1	7399.94	-29.99043	1.030491E-006	-0.002811	7
	30	42	998.264	6784.988	-4268.212	1	8015.84	-32.17264	6.408879E-007	-0.0008293	7
	31	43	796.875	7182.985	-4887.1	1	8687.866	-34.23026	7.588609E-008	-3.92622E-005	7
	32	45	627.7902	7645.756	-5637.319	1	9499.313	-36.40185	-6.467826E-007	0.000622	7
	33	46	505.5147	8085.975	-6443.289	1	10339.2	-38.5495	-1.28328E-006	0.0004693	7
	34	47	397.9953	8584.544	-7505.062	1	11402.65	-41.16167	2.925037E-009	-0.0010235	7
	35	49	315.5048	9084.381	-8756.02	1	12617.21	-43.94556	-2.252421E-010	-0.0010789	6
	36	50	252.4038	9565.09	-10243.34	1	14014.89	-46.96106	9.936134E-010	-0.0010816	6
	37	51	198.6229	10104.38	-12244.06	1	15875	-50.46893	7.109517E-010	-0.0010893	6
	38	53	158.3615	10653.79	-14622.34	1	18091.88	-53.92303	8.395168E-010	-0.0010885	6
	39	54	125.558	11287.25	-17672.94	1	20969.86	-57.43469	1.119356E-009	-0.0010914	6
	40	56	100.4464	12012.2	-21308.96	1	24461.49	-60.58934	-4.521628E-011	-0.0010971	6
	41	57	79.00281	12973.65	-26176.26	1	29214.93	-63.63575	-4.898312E-010	-0.0010861	6
	42	58	63.3446	14357	-31745.13	1	34840.73	-65.66474	7.220456E-010	-0.0010907	6
	43	60	49.86702	15525.49	-39502.75	1	42444.18	-68.54402	4.149775E-010	-0.0010858	6
	44	61	39.72458	17509.38	-48062.59	1	51152.62	-69.98312	6.523085E-010	-0.0010914	6
	45	63	31.6723	19897.99	-58736.64	1	62015.5	-71.28535	6.619929E-010	-0.0010802	6
	46	64	24.93351	23427.67	-72317.16	1	76017.28	-72.04989	2.783436E-010	-0.0010806	6
	47	65	19.86229	27654.17	-88221.69	1	92454.41	-72.59576	3.312718E-010	-0.0010845	6
	48	67	15.83615	32659.74	-107151.4	1	112018.2	-73.04877	-6.465656E-010	-0.0010786	5
	49	68	12.40079	39994.21	-131158	1	137120.3	-73.04189	-4.766145E-010	-0.0010789	5
	50	70	9.93114	50373.17	-158115.8	1	165946	-72.32896	-1.210689E-010	-0.0010708	5
	51	71	7.944915	62206.99	-191314.1	1	201173.5	-71.98773	1.056033E-010	-0.0010744	5
	52	73	6.317385	77241.87	-228885.5	1	241567.5	-71.35204	4.007986E-011	-0.0010688	5
	53	75	5.008013	97034	-274918.4	1	291540.2	-70.55923	8.249364E-011	-0.0010822	5
	54	78	3.945707	122226.1	-330542.4	1	352416.7	-69.7069	2.56953E-010	-0.0010701	5
	55	80	3.158693	151405.7	-391157.7	1	419437.7	-68.84003	1.512472E-010	-0.001089	5
	56	84	2.504006	188888.7	-464659.3	1	501584.7	-67.87776	1.271878E-010	-0.0010699	5
	57	86	1.998082	233387	-546348.8	1	594109.8	-66.869	2.691274E-010	-0.0011206	5
	58	89	1.584686	287129.3	-644294.9	1	705378.8	-65.9799	1.03169E-010	-0.0010906	5
	59	93	1.266892	353032.8	-752567.7	1	831258.3	-64.86852	1.697251E-010	-0.0011234	5
	60	97	0.999041	435439	-883527.1	1	985001	-63.764	1.789777E-010	-0.0010338	5
