EXPLAIN
TAG	EISPOT
TITLE	LABEL	Potentiostatic EIS	Test &Identifier
DATE	LABEL	11/13/2019	Date
TIME	LABEL	0:33:26	Time
NOTES	NOTES	3	&Notes...
	
	
	
PSTAT	PSTAT	REF600-11020	Potentiostat
VDC	POTEN	0.00000E+000	T	DC &Voltage (V)
FREQINIT	QUANT	1.00000E+006	Initial Fre&q. (Hz)
FREQFINAL	QUANT	1.00000E+000	Final Fre&q. (Hz)
PTSPERDEC	QUANT	1.00000E+001	Points/&decade
VAC	QUANT	2.50000E+001	AC &Voltage (mV rms)
AREA	QUANT	1.00000E-002	&Area (cm^2)
CONDIT	TWOPARAM	T	5.00000E+000	0.00000E+000	Conditionin&g	Time(s)	E(V)
DELAY	TWOPARAM	T	5.00000E+000	0.00000E+000	Init. De&lay	Time(s)	Stab.(mV/s)
SPEED	SELECTOR	1	&Optimize for:
ZGUESS	QUANT	1.00000E+005	E&stimated Z (ohms)
OCVCURVE	TABLE	19
	Pt	T	Vf	Vm	Ach	Over
	#	s	V vs. Ref.	V	V	bits
	0	0.258333	7.11076E-003	7.11076E-003	5.33000E-004	...........
	1	0.516667	7.11137E-003	7.14231E-003	5.38433E-004	...........
	2	0.775	7.11496E-003	7.16638E-003	5.37333E-004	...........
	3	1.03333	7.12524E-003	7.21571E-003	5.38799E-004	...........
	4	1.29167	7.14529E-003	7.27260E-003	5.36733E-004	...........
	5	1.55	7.17653E-003	7.32369E-003	5.42566E-004	...........
	6	1.80833	7.21811E-003	7.37801E-003	5.33866E-004	...........
	7	2.06667	7.26691E-003	7.43057E-003	5.36799E-004	...........
	8	2.325	7.31938E-003	7.48855E-003	5.42199E-004	...........
	9	2.58333	7.37327E-003	7.53820E-003	5.37766E-004	...........
	10	2.84167	7.42773E-003	7.60347E-003	5.44299E-004	...........
	11	3.1	7.48284E-003	7.65822E-003	5.38099E-004	...........
	12	3.35833	7.53899E-003	7.71274E-003	5.41833E-004	...........
	13	3.61667	7.59610E-003	7.78199E-003	5.43099E-004	...........
	14	3.875	7.65439E-003	7.85131E-003	5.35166E-004	...........
	15	4.13333	7.71474E-003	7.90248E-003	5.42599E-004	...........
	16	4.39167	7.77669E-003	7.95431E-003	5.42333E-004	...........
	17	4.65	7.83747E-003	7.99716E-003	5.41333E-004	...........
	18	4.90833	7.89424E-003	8.04451E-003	5.41666E-004	...........
EOC	QUANT	0.0078942	Open Circuit (V)
PSTATMODEL	IQUANT	4	Pstat Model
PSTATSECTION	LABEL	REF600-11020	Pstat Section
PSTATSERIALNO	LABEL	11020	Pstat Serial Number
CTRLMODE	IQUANT	1	Control Mode
IESTAB	IQUANT	0	I/E Stability
CASPEED	IQUANT	1	Control Amp Speed
CONVENTION	IQUANT	1	Current Convention
ICHRANGE	IQUANT	2	Ich Range
ICHRANGEMODE	TOGGLE	F	Ich Auto Range
ICHOFFSETENABLE	TOGGLE	T	Ich Offset Enable
ICHOFFSET	QUANT	0	Ich Offset (V)
ICHFILTER	IQUANT	3	Ich Filter
VCHRANGE	IQUANT	2	Vch Range
VCHRANGEMODE	TOGGLE	F	Vch Auto Range
VCHOFFSETENABLE	TOGGLE	T	Vch Offset Enable
VCHOFFSET	QUANT	0	Vch Offset (V)
VCHFILTER	IQUANT	3	Vch Filter
ACHRANGE	IQUANT	2	Ach Range
ACHOFFSETENABLE	TOGGLE	F	Ach Offset Enable
ACHOFFSET	QUANT	0	Ach Offset (V)
ACHFILTER	IQUANT	3	Ach Filter
IERANGELOWERLIMIT	IQUANT	1	I/E Range Lower Limit
IERANGEMODE	TOGGLE	F	I/E AutoRange
IERANGE	IQUANT	5	I/E Range
POSFEEDENABLE	TOGGLE	F	Positive Feedback IR Comp
POSFEEDRESISTANCE	QUANT	0	Positive Feedback Resistance (ohm)
ACHSELECT	IQUANT	0	Ach Select
CABLEID	IQUANT	14	Cable ID
DCCALDATE	LABEL	8/19/2019	DC Calibration Date
ACCALDATE	LABEL	8/19/2019	AC Calibration Date
THERMOSELECT	IQUANT	1	Thermo Select
FRAMEWORKVERSION	QUANT	6.33	Framework Version
INSTRUMENTVERSION	LABEL	3.50	Instrument Version
ZCURVE	TABLE
	Pt	Time	Freq	Zreal	Zimag	Zsig	Zmod	Zphz	Idc	Vdc	IERange
	#	s	Hz	ohm	ohm	V	ohm	°	A	V	#
	0	1	1000078	1713.683	-977.106	1	1972.675	-29.69087	-1.243211E-006	0.0104513	8
	1	3	794390.6	1896.606	-967.931	1	2129.32	-27.03746	-6.743487E-006	0.0108809	8
	2	4	630984.4	2058.588	-936.6808	1	2261.671	-24.46607	-1.358868E-006	0.0096089	8
	3	5	501234.4	2218.791	-895.4427	1	2392.666	-21.97764	8.914619E-008	0.0092879	8
	4	7	398109.4	2353.634	-845.7064	1	2500.963	-19.76435	5.993296E-006	0.0084451	8
	5	8	316265.6	2473.413	-801.389	1	2599.999	-17.95239	1.460944E-006	0.0091015	8
	6	10	251203.1	2584.045	-750.8716	1	2690.929	-16.2028	-4.496081E-006	0.0098929	8
	7	11	199546.9	2678.791	-712.6725	1	2771.971	-14.89803	-5.782681E-007	0.0092604	8
	8	12	158578.1	2759.494	-684.6398	1	2843.156	-13.93392	5.480696E-006	0.0088544	8
	9	14	125953.1	2863.679	-619.7899	1	2929.982	-12.21224	5.826629E-007	0.0112752	7
	10	15	100078.1	2932.131	-602.7877	1	2993.45	-11.61702	5.859056E-007	0.0096044	7
	11	16	79453.13	3000.896	-597.8063	1	3059.861	-11.26636	3.821779E-007	0.008054	7
	12	18	63140.62	3072.794	-612.6694	1	3133.277	-11.27605	9.226437E-007	0.0087802	7
	13	19	50203.12	3137.29	-627.2671	1	3199.383	-11.30658	-5.145084E-007	0.0108969	7
	14	20	39890.62	3212.721	-649.0349	1	3277.625	-11.42119	-3.21643E-007	0.008798	7
	15	22	31640.63	3292.253	-678.814	1	3361.505	-11.65028	-6.91209E-007	0.0094136	7
	16	23	25171.88	3386.987	-723.0556	1	3463.306	-12.05064	7.759377E-007	0.0091971	7
	17	25	20015.62	3469.373	-765.0512	1	3552.724	-12.4356	5.242509E-008	0.0083205	7
	18	26	15890.62	3567.758	-818.5306	1	3660.45	-12.92143	1.134053E-007	0.0102762	7
	19	27	12609.37	3679.478	-881.3485	1	3783.561	-13.47032	9.531682E-007	0.0081454	7
	20	29	10078.13	3785.801	-947.65	1	3902.606	-14.05333	9.841771E-007	0.0084084	7
	21	30	8015.625	3890.13	-1021.692	1	4022.06	-14.71564	5.204067E-008	0.0083202	7
	22	31	6328.125	4021.618	-1117.144	1	4173.897	-15.52448	9.533479E-007	0.0081439	7
	23	33	5015.625	4126.475	-1214.036	1	4301.358	-16.39423	-1.103481E-006	0.0105097	7
	24	34	3984.375	4264.375	-1340.656	1	4470.152	-17.45237	-2.132877E-007	0.0106528	7
	25	36	3170.956	4391.154	-1490.392	1	4637.187	-18.74762	1.140913E-007	0.0102739	7
	26	37	2527.573	4511.568	-1662.208	1	4808.033	-20.22543	-1.101987E-006	0.01051	7
	27	38	1976.103	4659.815	-1901.923	1	5033.01	-22.20304	-1.102357E-006	0.0105075	7
	28	40	1577.524	4791.624	-2166.3	1	5258.565	-24.32779	-9.603879E-007	0.0109492	7
	29	41	1265.625	4971.842	-2509.357	1	5569.209	-26.78071	9.849568E-007	0.0084047	7
	30	42	998.264	5114.418	-2917.427	1	5888.009	-29.70181	-1.102102E-006	0.010505	7
	31	44	796.875	5289.39	-3425.504	1	6301.724	-32.92782	-7.689915E-007	0.0109736	7
	32	45	627.7902	5489.261	-4098.657	1	6850.618	-36.74753	5.300121E-008	0.0083091	7
	33	47	505.5147	5695.824	-4854.905	1	7484.15	-40.44302	3.782282E-007	0.0080269	7
	34	48	397.9953	5946.626	-5873.419	1	8358.194	-44.64515	2.090579E-009	0.0094966	7
	35	49	315.5048	6244.914	-7110.506	1	9463.521	-48.70827	5.199858E-009	0.0094961	7
	36	51	252.4038	6598.999	-8572.23	1	10818.04	-52.41052	4.446678E-010	0.0094325	6
	37	52	198.6229	7071.931	-10504.02	1	12662.81	-56.04922	3.112606E-010	0.0094326	6
	38	53	158.3615	7639.07	-12741.31	1	14855.86	-59.05515	4.859053E-010	0.009432	6
	39	55	125.558	8375.188	-15533.04	1	17647.07	-61.66711	6.611446E-010	0.0094359	6
	40	56	100.4464	9268.565	-18783.58	1	20945.87	-63.73644	5.334381E-010	0.0094345	6
	41	58	79.00281	10514.24	-22989.73	1	25279.97	-65.42324	-1.712768E-010	0.0094357	6
	42	59	63.3446	12006.71	-27525.09	1	30029.85	-66.43271	2.629257E-010	0.0094308	6
	43	60	49.86702	14138.05	-33814.96	1	36651.55	-67.31017	7.404049E-010	0.0094356	6
	44	62	39.72458	16493.6	-40678.93	1	43895.49	-67.9295	2.758948E-010	0.0094306	6
	45	63	31.6723	19494.65	-48923.89	1	52664.86	-68.27425	3.222176E-010	0.0094269	6
	46	65	24.93351	23589.35	-59087.81	1	63622.53	-68.23686	-1.069121E-009	0.0094334	6
	47	66	19.86229	28460.47	-70539.97	1	76065.01	-68.0276	1.672495E-009	0.0094331	6
	48	67	15.83615	34060.2	-84074.59	1	90711.81	-67.94621	-4.384356E-010	0.0094335	6
	49	69	12.40079	42032.2	-101503.9	1	109862.4	-67.50582	-2.660038E-010	0.0094399	5
	50	70	9.93114	50936.29	-119181.4	1	129609.9	-66.85889	4.636946E-010	0.0094316	5
	51	72	7.944915	61832.69	-140194.7	1	153224.8	-66.20018	-2.264611E-010	0.0094387	5
	52	73	6.317385	74760.44	-165330.1	1	181447.4	-65.66805	5.073627E-010	0.0094339	5
	53	75	5.008013	90758.09	-195082.2	1	215160.6	-65.05074	2.394646E-010	0.0094415	5
	54	78	3.945707	110404.7	-230532.1	1	255605.6	-64.40966	-1.602281E-010	0.0094309	5
	55	81	3.158693	132197.1	-268692.5	1	299452.4	-63.80274	2.389247E-010	0.009464	5
	56	84	2.504006	159328.2	-315078.5	1	353072.1	-63.17528	-3.056687E-010	0.009442	5
	57	87	1.998082	190120.2	-366117.8	1	412538.4	-62.55774	-1.05374E-010	0.0094145	5
	58	90	1.584686	227813.1	-425373.3	1	482536.2	-61.82826	1.464178E-011	0.0094815	5
	59	94	1.266892	268705.7	-491784.4	1	560405.8	-61.34829	-9.580725E-011	0.0094206	5
	60	98	0.999041	319105.9	-576083.5	1	658559.6	-61.01692	1.79549E-010	0.0094605	5
