EXPLAIN
TAG	EISPOT
TITLE	LABEL	Potentiostatic IDE	Test &Identifier
DATE	LABEL	9/12/2019	Date
TIME	LABEL	8:51:13	Time
NOTES	NOTES	1	&Notes...
	
PSTAT	PSTAT	REF600-11020	Potentiostat
VDC	POTEN	0.00000E+000	T	DC &Voltage (V)
FREQINIT	QUANT	1.00000E+006	Initial Fre&q. (Hz)
FREQFINAL	QUANT	1.00000E+000	Final Fre&q. (Hz)
PTSPERDEC	QUANT	1.00000E+001	Points/&decade
VAC	QUANT	2.50000E+001	AC &Voltage (mV rms)
AREA	QUANT	1.00000E-002	&Area (cm^2)
CONDIT	TWOPARAM	T	5.00000E+000	0.00000E+000	Conditionin&g	Time(s)	E(V)
DELAY	TWOPARAM	T	5.00000E+000	0.00000E+000	Init. De&lay	Time(s)	Stab.(mV/s)
SPEED	SELECTOR	1	&Optimize for:
ZGUESS	QUANT	1.00000E+007	E&stimated Z (ohms)
OCVCURVE	TABLE	18
	Pt	T	Vf	Vm	Ach	Over
	#	s	V vs. Ref.	V	V	bits
	0	0.258333	4.36966E-003	4.36966E-003	5.70966E-004	...........
	1	0.516667	4.36663E-003	4.21079E-003	5.68766E-004	...........
	2	0.775	4.34836E-003	4.07969E-003	5.69232E-004	...........
	3	1.03333	4.29815E-003	3.96533E-003	5.68799E-004	...........
	4	1.29167	4.21188E-003	3.86696E-003	5.66366E-004	...........
	5	1.55	4.10327E-003	3.77774E-003	5.62499E-004	...........
	6	1.80833	3.99079E-003	3.70007E-003	5.67766E-004	...........
	7	2.06667	3.88622E-003	3.62812E-003	5.67199E-004	...........
	8	2.325	3.79330E-003	3.56273E-003	5.67232E-004	...........
	9	2.58333	3.71124E-003	3.50272E-003	5.69899E-004	...........
	10	2.84167	3.63799E-003	3.45080E-003	5.70099E-004	...........
	11	3.1	3.57190E-003	3.40026E-003	5.74699E-004	...........
	12	3.35833	3.51187E-003	3.35120E-003	5.73432E-004	...........
	13	3.61667	3.45670E-003	3.30247E-003	5.69732E-004	...........
	14	3.875	3.40513E-003	3.26571E-003	5.68266E-004	...........
	15	4.13333	3.35658E-003	3.22391E-003	5.70699E-004	...........
	16	4.39167	3.31110E-003	3.18379E-003	5.70232E-004	...........
	17	4.65	3.26833E-003	3.14591E-003	5.67399E-004	...........
EOC	QUANT	0.0032274	Open Circuit (V)
PSTATMODEL	IQUANT	4	Pstat Model
PSTATSECTION	LABEL	REF600-11020	Pstat Section
PSTATSERIALNO	LABEL	11020	Pstat Serial Number
CTRLMODE	IQUANT	1	Control Mode
IESTAB	IQUANT	0	I/E Stability
CASPEED	IQUANT	1	Control Amp Speed
CONVENTION	IQUANT	1	Current Convention
ICHRANGE	IQUANT	2	Ich Range
ICHRANGEMODE	TOGGLE	F	Ich Auto Range
ICHOFFSETENABLE	TOGGLE	T	Ich Offset Enable
ICHOFFSET	QUANT	0	Ich Offset (V)
ICHFILTER	IQUANT	3	Ich Filter
VCHRANGE	IQUANT	2	Vch Range
VCHRANGEMODE	TOGGLE	F	Vch Auto Range
VCHOFFSETENABLE	TOGGLE	T	Vch Offset Enable
VCHOFFSET	QUANT	0	Vch Offset (V)
VCHFILTER	IQUANT	3	Vch Filter
ACHRANGE	IQUANT	2	Ach Range
ACHOFFSETENABLE	TOGGLE	F	Ach Offset Enable
ACHOFFSET	QUANT	0	Ach Offset (V)
ACHFILTER	IQUANT	3	Ach Filter
IERANGELOWERLIMIT	IQUANT	1	I/E Range Lower Limit
IERANGEMODE	TOGGLE	F	I/E AutoRange
IERANGE	IQUANT	2	I/E Range
POSFEEDENABLE	TOGGLE	F	Positive Feedback IR Comp
POSFEEDRESISTANCE	QUANT	0	Positive Feedback Resistance (ohm)
ACHSELECT	IQUANT	0	Ach Select
CABLEID	IQUANT	14	Cable ID
DCCALDATE	LABEL	8/19/2019	DC Calibration Date
ACCALDATE	LABEL	8/19/2019	AC Calibration Date
THERMOSELECT	IQUANT	1	Thermo Select
FRAMEWORKVERSION	QUANT	6.33	Framework Version
INSTRUMENTVERSION	LABEL	3.50	Instrument Version
ZCURVE	TABLE
	Pt	Time	Freq	Zreal	Zimag	Zsig	Zmod	Zphz	Idc	Vdc	IERange
	#	s	Hz	ohm	ohm	V	ohm	°	A	V	#
	0	2	1000078	2273.879	-1278.775	1	2608.792	-29.35236	-2.51957E-006	0.0061959	8
	1	4	794390.6	2515.272	-1175.472	1	2776.387	-25.04829	-9.245431E-008	0.0056229	8
	2	5	630984.4	2704.355	-1051.563	1	2901.606	-21.24809	5.918982E-008	0.0050183	8
	3	6	501234.4	2859.959	-917.6432	1	3003.571	-17.7893	8.033972E-007	0.0048797	8
	4	8	398109.4	2964.789	-799.4312	1	3070.678	-15.09045	6.630304E-007	0.004828	8
	5	10	316265.6	3051.028	-686.0798	1	3127.215	-12.67321	2.55885E-006	0.0044364	8
	6	11	251203.1	3120.179	-601.5617	1	3177.64	-10.91257	2.477773E-006	0.0044276	8
	7	12	199546.9	3160.914	-524.9615	1	3204.21	-9.429562	2.027808E-006	0.0045087	8
	8	14	158578.1	3221.181	-467.0156	1	3254.859	-8.249419	-4.599403E-006	0.0059596	8
	9	15	125953.1	3267.884	-383.8544	1	3290.351	-6.699418	-2.639891E-007	0.00526	7
	10	16	100078.1	3294.329	-350.7964	1	3312.954	-6.078232	-6.979313E-008	0.0049994	7
	11	18	79453.13	3323.944	-345.1124	1	3341.812	-5.927563	-2.21991E-008	0.0048751	7
	12	19	63140.62	3353.921	-345.5603	1	3371.676	-5.882525	-4.106889E-008	0.0049167	7
	13	20	50203.12	3386.236	-353.3335	1	3404.62	-5.956915	-2.047389E-008	0.004875	7
	14	22	39890.62	3420.033	-368.3502	1	3439.812	-6.147271	-6.83429E-008	0.0049917	7
	15	23	31640.63	3457.454	-391.262	1	3479.522	-6.456396	1.340675E-007	0.0046906	7
	16	24	25171.88	3497.679	-421.6604	1	3523.004	-6.874081	-4.039068E-008	0.0049159	7
	17	26	20015.62	3542.111	-459.4653	1	3571.786	-7.390861	-4.545697E-008	0.0049142	7
	18	27	15890.62	3592.409	-504.0624	1	3627.6	-7.987209	-4.499755E-008	0.0049122	7
	19	28	12609.37	3646.732	-562.3018	1	3689.829	-8.765594	-2.074425E-008	0.0048744	7
	20	30	10078.13	3704.654	-627.6747	1	3757.451	-9.61623	-8.145645E-009	0.0049113	7
	21	31	8015.625	3770.95	-701.7725	1	3835.694	-10.54213	8.369341E-008	0.0047087	7
	22	32	6328.125	3846.137	-792.9174	1	3927.021	-11.64886	-6.587649E-009	0.0049138	7
	23	34	5015.625	3926.068	-898.8814	1	4027.654	-12.89573	-6.765534E-008	0.0049853	7
	24	35	3984.375	4013.58	-1020.805	1	4141.36	-14.26992	-4.125484E-008	0.0050159	7
	25	36	3170.956	4106.876	-1162.664	1	4268.28	-15.80692	-1.979724E-008	0.0050151	7
	26	38	2527.573	4205.836	-1330.51	1	4411.271	-17.55469	-5.172972E-008	0.0049769	7
	27	39	1976.103	4320.354	-1550.012	1	4589.989	-19.73644	-2.979319E-009	0.0049192	7
	28	40	1577.524	4431.748	-1792.439	1	4780.505	-22.02107	-6.826166E-008	0.0049832	7
	29	42	1265.625	4549.111	-2078.094	1	5001.289	-24.55154	2.089737E-008	0.0047916	7
	30	43	998.264	4682.648	-2455.611	1	5287.458	-27.67281	-4.314904E-008	0.0049091	7
	31	44	796.875	4821.908	-2900.146	1	5626.868	-31.02489	-2.593323E-009	0.0048236	7
	32	46	627.7902	4979.427	-3477.998	1	6073.809	-34.93328	-3.984476E-008	0.0049292	7
	33	47	505.5147	5133.092	-4125.204	1	6585.283	-38.78706	-1.110935E-008	0.0049333	7
	34	48	397.9953	5331.925	-5012.002	1	7317.759	-43.22849	5.925143E-009	0.0048855	7
	35	50	315.5048	5547.016	-6080.973	1	8230.894	-47.62917	6.293924E-009	0.0048884	7
	36	51	252.4038	5785.816	-7350.721	1	9354.611	-51.79341	5.829437E-009	0.0048806	7
	37	52	198.6229	6094.07	-9044.249	1	10905.78	-56.02767	1.184022E-009	0.0048179	6
	38	54	158.3615	6444.968	-11035.21	1	12779.42	-59.71351	1.693394E-009	0.0048159	6
	39	55	125.558	6889.562	-13557.08	1	15207.25	-63.06081	9.8411E-010	0.0048171	6
	40	56	100.4464	7424.549	-16543.61	1	18133.25	-65.8301	2.112444E-009	0.0048183	6
	41	58	79.00281	8165.186	-20502.76	1	22068.84	-68.28518	3.235865E-010	0.0048165	6
	42	59	63.3446	9230.075	-25135.38	1	26776.52	-69.83604	6.99547E-010	0.0048194	6
	43	61	49.86702	10309.93	-30853.71	1	32530.7	-71.52267	2.411255E-010	0.0048191	6
	44	62	39.72458	11994.98	-37954.77	1	39805.08	-72.46172	9.437535E-010	0.004822	6
	45	63	31.6723	14054.84	-46277.16	1	48364.38	-73.10593	1.100887E-009	0.0048163	6
	46	65	24.93351	17032.66	-57087.79	1	59574.55	-73.38705	4.642025E-010	0.0048188	6
	47	66	19.86229	20855.49	-69470.8	1	72533.74	-73.28998	8.753232E-010	0.0048145	6
	48	67	15.83615	24990.29	-84164.66	1	87796.38	-73.46272	1.787591E-009	0.0048155	6
	49	69	12.40079	32085.99	-103131.6	1	108007.6	-72.7182	1.724772E-010	0.0048255	5
	50	70	9.93114	40702.2	-123997.3	1	130506.7	-71.82754	7.135744E-010	0.0048201	5
	51	72	7.944915	51034.86	-147958.2	1	156512.6	-70.96928	8.042448E-010	0.0048227	5
	52	73	6.317385	64150.15	-176795	1	188073.7	-70.05666	7.917588E-010	0.0048139	5
	53	75	5.008013	81378.52	-211270.7	1	226401.8	-68.93401	2.61713E-010	0.0048184	5
	54	78	3.945707	103002.6	-251649.5	1	271913.6	-67.74024	4.99002E-010	0.0048241	5
	55	80	3.158693	128185.2	-295717.2	1	322304.3	-66.56461	5.345072E-011	0.0048112	5
	56	84	2.504006	160463.4	-347367.6	1	382639.2	-65.20584	5.533452E-010	0.0048143	5
	57	86	1.998082	197578.6	-404070.9	1	449789.5	-63.94275	1.757667E-011	0.0048475	5
	58	89	1.584686	244184.5	-470456.7	1	530052.4	-62.56901	2.873409E-010	0.0048698	5
	59	93	1.266892	295344.9	-541787.8	1	617059.7	-61.40387	-7.22097E-011	0.0048244	5
	60	97	0.999041	360261.8	-625616.3	1	721930.9	-60.06446	4.635705E-010	0.0048493	5
