EXPLAIN
TAG	EISPOT
TITLE	LABEL	Potentiostatic IDE	Test &Identifier
DATE	LABEL	9/4/2019	Date
TIME	LABEL	10:35:51	Time
NOTES	NOTES	1	&Notes...
	
PSTAT	PSTAT	REF600-11020	Potentiostat
VDC	POTEN	0.00000E+000	T	DC &Voltage (V)
FREQINIT	QUANT	1.00000E+006	Initial Fre&q. (Hz)
FREQFINAL	QUANT	1.00000E+000	Final Fre&q. (Hz)
PTSPERDEC	QUANT	1.00000E+001	Points/&decade
VAC	QUANT	2.50000E+001	AC &Voltage (mV rms)
AREA	QUANT	1.00000E-002	&Area (cm^2)
CONDIT	TWOPARAM	T	5.00000E+000	0.00000E+000	Conditionin&g	Time(s)	E(V)
DELAY	TWOPARAM	T	5.00000E+000	0.00000E+000	Init. De&lay	Time(s)	Stab.(mV/s)
SPEED	SELECTOR	1	&Optimize for:
ZGUESS	QUANT	1.00000E+007	E&stimated Z (ohms)
OCVCURVE	TABLE	18
	Pt	T	Vf	Vm	Ach	Over
	#	s	V vs. Ref.	V	V	bits
	0	0.258333	7.61763E-002	7.61763E-002	6.11807E-004	...........
	1	0.516667	7.62220E-002	7.85663E-002	6.07073E-004	...........
	2	0.775	7.65014E-002	8.07840E-002	5.96107E-004	...........
	3	1.03333	7.72958E-002	8.32738E-002	6.10773E-004	...........
	4	1.29167	7.87192E-002	8.45017E-002	6.13673E-004	...........
	5	1.55	8.05717E-002	8.61411E-002	5.99140E-004	...........
	6	1.80833	8.25159E-002	8.78110E-002	6.02240E-004	...........
	7	2.06667	8.43442E-002	8.93096E-002	6.03874E-004	...........
	8	2.325	8.60337E-002	9.07616E-002	6.03674E-004	...........
	9	2.58333	8.76302E-002	9.23854E-002	5.94907E-004	...........
	10	2.84167	8.91748E-002	9.37647E-002	5.93107E-004	...........
	11	3.1	9.06865E-002	9.49468E-002	6.05973E-004	...........
	12	3.35833	9.21481E-002	9.61096E-002	6.06507E-004	...........
	13	3.61667	9.35226E-002	9.71421E-002	5.94840E-004	...........
	14	3.875	9.47901E-002	9.82296E-002	6.04407E-004	...........
	15	4.13333	9.59614E-002	9.92297E-002	6.13340E-004	...........
	16	4.39167	9.70617E-002	1.00177E-001	6.09540E-004	...........
	17	4.65	9.81102E-002	1.01090E-001	6.04107E-004	...........
EOC	QUANT	0.0991135	Open Circuit (V)
PSTATMODEL	IQUANT	4	Pstat Model
PSTATSECTION	LABEL	REF600-11020	Pstat Section
PSTATSERIALNO	LABEL	11020	Pstat Serial Number
CTRLMODE	IQUANT	1	Control Mode
IESTAB	IQUANT	0	I/E Stability
CASPEED	IQUANT	1	Control Amp Speed
CONVENTION	IQUANT	1	Current Convention
ICHRANGE	IQUANT	2	Ich Range
ICHRANGEMODE	TOGGLE	F	Ich Auto Range
ICHOFFSETENABLE	TOGGLE	T	Ich Offset Enable
ICHOFFSET	QUANT	0	Ich Offset (V)
ICHFILTER	IQUANT	3	Ich Filter
VCHRANGE	IQUANT	2	Vch Range
VCHRANGEMODE	TOGGLE	F	Vch Auto Range
VCHOFFSETENABLE	TOGGLE	T	Vch Offset Enable
VCHOFFSET	QUANT	0	Vch Offset (V)
VCHFILTER	IQUANT	3	Vch Filter
ACHRANGE	IQUANT	2	Ach Range
ACHOFFSETENABLE	TOGGLE	F	Ach Offset Enable
ACHOFFSET	QUANT	0	Ach Offset (V)
ACHFILTER	IQUANT	2	Ach Filter
IERANGELOWERLIMIT	IQUANT	1	I/E Range Lower Limit
IERANGEMODE	TOGGLE	F	I/E AutoRange
IERANGE	IQUANT	4	I/E Range
POSFEEDENABLE	TOGGLE	F	Positive Feedback IR Comp
POSFEEDRESISTANCE	QUANT	0	Positive Feedback Resistance (ohm)
ACHSELECT	IQUANT	0	Ach Select
CABLEID	IQUANT	14	Cable ID
DCCALDATE	LABEL	8/19/2019	DC Calibration Date
ACCALDATE	LABEL	8/19/2019	AC Calibration Date
THERMOSELECT	IQUANT	1	Thermo Select
FRAMEWORKVERSION	QUANT	6.33	Framework Version
INSTRUMENTVERSION	LABEL	3.50	Instrument Version
ZCURVE	TABLE
	Pt	Time	Freq	Zreal	Zimag	Zsig	Zmod	Zphz	Idc	Vdc	IERange
	#	s	Hz	ohm	ohm	V	ohm	°	A	V	#
	0	1	1000078	2481.205	-1581.493	1	2942.363	-32.51299	9.179405E-006	0.1005956	8
	1	3	794390.6	2717.81	-1455.066	1	3082.808	-28.16379	1.433423E-005	0.0995523	8
	2	5	630984.4	2954.403	-1342.546	1	3245.139	-24.4381	9.604092E-006	0.1002236	8
	3	6	501234.4	3100.775	-1242.174	1	3340.329	-21.83109	1.252629E-005	0.0999035	8
	4	8	398109.4	3290.252	-1111.251	1	3472.843	-18.6619	1.208451E-005	0.0997688	8
	5	9	316265.6	3398.194	-1017.574	1	3547.278	-16.6701	1.255794E-005	0.0997263	8
	6	11	251203.1	3495.593	-941.8391	1	3620.253	-15.07946	1.135182E-005	0.1000257	8
	7	12	199546.9	3578.083	-875.0074	1	3683.519	-13.74178	1.045684E-005	0.1001641	8
	8	14	158578.1	3662.685	-852.955	1	3760.691	-13.10922	1.015885E-005	0.1003069	8
	9	15	125953.1	3795.286	-919.4943	1	3905.082	-13.6188	5.50672E-007	0.1001294	7
	10	17	100078.1	3815.946	-850.5426	1	3909.586	-12.56535	9.552513E-007	0.1003516	7
	11	18	79453.13	3888.703	-894.6605	1	3990.292	-12.95638	9.603035E-007	0.1003921	7
	12	20	63140.62	3967.677	-960.499	1	4082.282	-13.60842	1.007593E-006	0.1002392	7
	13	21	50203.12	4050.894	-1047.491	1	4184.134	-14.49812	9.925533E-007	0.1003221	7
	14	22	39890.62	4146.863	-1161.333	1	4306.41	-15.64495	9.687594E-007	0.1003358	7
	15	24	31640.63	4250.436	-1309.165	1	4447.484	-17.11922	1.00458E-006	0.1002691	7
	16	25	25171.88	4366.692	-1483.606	1	4611.842	-18.76545	1.031348E-006	0.1002267	7
	17	26	20015.62	4499.063	-1697.04	1	4808.483	-20.6664	9.67542E-007	0.1003479	7
	18	28	15890.62	4650.375	-1947.805	1	5041.819	-22.72632	9.538761E-007	0.10032	7
	19	29	12609.37	4827.685	-2261.197	1	5330.999	-25.09751	9.631726E-007	0.1003112	7
	20	30	10078.13	5024.814	-2618.761	1	5666.274	-27.52698	9.593768E-007	0.1003839	7
	21	32	8015.625	5256.949	-3045.218	1	6075.267	-30.08263	9.532853E-007	0.100383	7
	22	33	6328.125	5539.155	-3562.937	1	6586.103	-32.75024	9.546524E-007	0.1003265	7
	23	34	5015.625	5860.484	-4167.566	1	7191.237	-35.41777	9.602735E-007	0.1002963	7
	24	36	3984.375	6246.146	-4887.525	1	7931.094	-38.0427	1.024361E-006	0.1002394	7
	25	37	3170.956	6682.57	-5715.185	1	8793.184	-40.5383	1.034234E-006	0.1002193	7
	26	38	2527.573	7193.669	-6675.529	1	9813.85	-42.86048	9.65331E-007	0.1003075	7
	27	40	1976.103	7849.146	-7919.449	1	11150.19	-45.25545	9.38925E-007	0.1003896	7
	28	41	1577.524	8584.569	-9232.604	1	12606.97	-47.083	9.49316E-007	0.1004047	7
	29	42	1265.625	9417.586	-10744.96	1	14287.93	-48.76655	8.901197E-008	0.100339	6
	30	44	998.264	10488.29	-12637.23	1	16422.66	-50.30897	9.509596E-008	0.1002777	6
	31	45	796.875	11679.1	-14720.5	1	18790.81	-51.57185	9.379072E-008	0.1002832	6
	32	46	627.7902	13194.09	-17301.32	1	21758.21	-52.67064	1.019222E-007	0.0999309	6
	33	48	505.5147	14819.91	-20006.84	1	24897.86	-53.4711	9.265981E-008	0.1003031	6
	34	49	397.9953	16912.23	-23450.21	1	28912.55	-54.20096	9.783041E-008	0.0998946	6
	35	50	315.5048	19329.13	-27316.83	1	33463.78	-54.71712	9.795238E-008	0.0998951	6
	36	52	252.4038	22045.33	-31581.56	1	38514.82	-55.08325	9.784925E-008	0.0998892	6
	37	53	198.6229	25436.42	-36841.95	1	44769.87	-55.37803	9.770294E-008	0.0998918	6
	38	54	158.3615	29189.42	-42567.34	1	51613.96	-55.56066	9.787079E-008	0.0998869	6
	39	56	125.558	33588.14	-49301.35	1	59655.56	-55.73409	9.735587E-008	0.0998918	6
	40	57	100.4464	38477.16	-56642.61	1	68475.38	-55.81184	9.705124E-008	0.0998925	6
	41	58	79.00281	44268.55	-65790.57	1	79297.56	-56.06454	9.710647E-008	0.0998901	6
	42	60	63.3446	50610.72	-76637.13	1	91840.59	-56.55945	9.73004E-008	0.0998914	6
	43	61	49.86702	58104.6	-87147.05	1	104741.4	-56.30695	9.778472E-008	0.0998906	6
	44	62	39.72458	66385.93	-101671.4	1	121425.6	-56.85764	9.72685E-008	0.0998914	6
	45	64	31.6723	75596.75	-116846.8	1	139169.1	-57.09821	9.902104E-009	0.0998987	5
	46	65	24.93351	86304.33	-137148.3	1	162043.5	-57.81873	1.03984E-008	0.0998913	5
	47	66	19.86229	97990.6	-159579.1	1	187263.6	-58.44772	1.035513E-008	0.0998987	5
	48	68	15.83615	110340.9	-186152.3	1	216397.3	-59.34286	1.047525E-008	0.0998968	5
	49	69	12.40079	126694.4	-220039.2	1	253906.9	-60.06747	1.01943E-008	0.0999094	5
	50	71	9.93114	144181.7	-257897.2	1	295464.6	-60.7919	1.031458E-008	0.0999011	5
	51	72	7.944915	162976.2	-303081.3	1	344121.4	-61.7317	1.038401E-008	0.0998948	5
	52	74	6.317385	186354.1	-357357.1	1	403028.5	-62.45892	1.020344E-008	0.0998893	5
	53	76	5.008013	214301.8	-425243.4	1	476190.3	-63.25414	1.011768E-008	0.0998887	5
	54	78	3.945707	249433.4	-507533.3	1	565514.9	-63.82763	1.027003E-008	0.0999006	5
	55	81	3.158693	288731.3	-600777.8	1	666558.1	-64.33125	1.010114E-008	0.099885	5
	56	84	2.504006	338893.6	-715583.4	1	791775.6	-64.6582	1.019227E-008	0.1001872	5
	57	87	1.998082	399312.1	-846936.1	1	936349.8	-64.75713	1.003952E-008	0.1002295	5
	58	90	1.584686	471930.6	-1006225	1	1111399	-64.87291	1.000382E-008	0.1001973	5
	59	94	1.266892	563877.3	-1187517	1	1314593	-64.59989	9.914584E-009	0.1002287	5
	60	98	0.999041	679198.9	-1411976	1	1566840	-64.31118	1.211988E-009	0.1001468	4
