EXPLAIN
TAG	EISPOT
TITLE	LABEL	Potentiostatic EIS	Test &Identifier
DATE	LABEL	11/9/2019	Date
TIME	LABEL	11:24:04	Time
NOTES	NOTES	2	&Notes...
	
	
PSTAT	PSTAT	REF600-11020	Potentiostat
VDC	POTEN	0.00000E+000	T	DC &Voltage (V)
FREQINIT	QUANT	1.00000E+006	Initial Fre&q. (Hz)
FREQFINAL	QUANT	1.00000E+000	Final Fre&q. (Hz)
PTSPERDEC	QUANT	1.00000E+001	Points/&decade
VAC	QUANT	2.50000E+001	AC &Voltage (mV rms)
AREA	QUANT	1.00000E-002	&Area (cm^2)
CONDIT	TWOPARAM	T	5.00000E+000	0.00000E+000	Conditionin&g	Time(s)	E(V)
DELAY	TWOPARAM	T	5.00000E+000	0.00000E+000	Init. De&lay	Time(s)	Stab.(mV/s)
SPEED	SELECTOR	0	&Optimize for:
ZGUESS	QUANT	1.00000E+005	E&stimated Z (ohms)
OCVCURVE	TABLE	19
	Pt	T	Vf	Vm	Ach	Over
	#	s	V vs. Ref.	V	V	bits
	0	0.258333	7.91002E-002	7.91002E-002	5.58099E-004	...........
	1	0.516667	7.91940E-002	8.40069E-002	5.60166E-004	...........
	2	0.775	7.97645E-002	8.83897E-002	5.62466E-004	...........
	3	1.03333	8.13559E-002	9.23153E-002	5.61499E-004	...........
	4	1.29167	8.41413E-002	9.57972E-002	5.62299E-004	...........
	5	1.55	8.77242E-002	9.88018E-002	5.68832E-004	...........
	6	1.80833	9.15135E-002	1.01677E-001	5.61999E-004	...........
	7	2.06667	9.51034E-002	1.04209E-001	5.61566E-004	...........
	8	2.325	9.83474E-002	1.06611E-001	5.63266E-004	...........
	9	2.58333	1.01255E-001	1.08742E-001	5.73565E-004	...........
	10	2.84167	1.03881E-001	1.10818E-001	5.73366E-004	...........
	11	3.1	1.06280E-001	1.12674E-001	5.70699E-004	...........
	12	3.35833	1.08490E-001	1.14454E-001	5.64866E-004	...........
	13	3.61667	1.10540E-001	1.16087E-001	5.70999E-004	...........
	14	3.875	1.12448E-001	1.17663E-001	5.64599E-004	...........
	15	4.13333	1.14229E-001	1.19125E-001	5.63366E-004	...........
	16	4.39167	1.15900E-001	1.20541E-001	5.63099E-004	...........
	17	4.65	1.17474E-001	1.21831E-001	5.65366E-004	...........
	18	4.90833	1.18960E-001	1.23136E-001	5.69099E-004	...........
EOC	QUANT	0.1189601	Open Circuit (V)
PSTATMODEL	IQUANT	4	Pstat Model
PSTATSECTION	LABEL	REF600-11020	Pstat Section
PSTATSERIALNO	LABEL	11020	Pstat Serial Number
CTRLMODE	IQUANT	1	Control Mode
IESTAB	IQUANT	0	I/E Stability
CASPEED	IQUANT	1	Control Amp Speed
CONVENTION	IQUANT	1	Current Convention
ICHRANGE	IQUANT	2	Ich Range
ICHRANGEMODE	TOGGLE	F	Ich Auto Range
ICHOFFSETENABLE	TOGGLE	T	Ich Offset Enable
ICHOFFSET	QUANT	0	Ich Offset (V)
ICHFILTER	IQUANT	3	Ich Filter
VCHRANGE	IQUANT	2	Vch Range
VCHRANGEMODE	TOGGLE	F	Vch Auto Range
VCHOFFSETENABLE	TOGGLE	T	Vch Offset Enable
VCHOFFSET	QUANT	0	Vch Offset (V)
VCHFILTER	IQUANT	3	Vch Filter
ACHRANGE	IQUANT	2	Ach Range
ACHOFFSETENABLE	TOGGLE	F	Ach Offset Enable
ACHOFFSET	QUANT	0	Ach Offset (V)
ACHFILTER	IQUANT	3	Ach Filter
IERANGELOWERLIMIT	IQUANT	1	I/E Range Lower Limit
IERANGEMODE	TOGGLE	F	I/E AutoRange
IERANGE	IQUANT	6	I/E Range
POSFEEDENABLE	TOGGLE	F	Positive Feedback IR Comp
POSFEEDRESISTANCE	QUANT	0	Positive Feedback Resistance (ohm)
ACHSELECT	IQUANT	0	Ach Select
CABLEID	IQUANT	14	Cable ID
DCCALDATE	LABEL	8/19/2019	DC Calibration Date
ACCALDATE	LABEL	8/19/2019	AC Calibration Date
THERMOSELECT	IQUANT	1	Thermo Select
FRAMEWORKVERSION	QUANT	6.33	Framework Version
INSTRUMENTVERSION	LABEL	3.50	Instrument Version
ZCURVE	TABLE
	Pt	Time	Freq	Zreal	Zimag	Zsig	Zmod	Zphz	Idc	Vdc	IERange
	#	s	Hz	ohm	ohm	V	ohm	°	A	V	#
	0	2	1000078	2328.382	-2371.52	1	3323.472	-45.52588	-3.137921E-006	0.1206559	8
	1	2	794390.6	2747.391	-2581.645	1	3770.02	-43.21854	1.09097E-005	0.119671	8
	2	2	630984.4	3298.761	-2634.436	1	4221.621	-38.61135	-3.433599E-006	0.1202637	8
	3	3	501234.4	3857.515	-2615.375	1	4660.538	-34.13707	-7.654461E-007	0.1212264	8
	4	3	398109.4	4343.883	-2566.987	1	5045.665	-30.58066	7.957314E-006	0.1195803	8
	5	3	316265.6	4805.69	-2362.941	1	5355.198	-26.18318	7.209784E-006	0.1190801	8
	6	3	251203.1	5238.182	-2148.936	1	5661.843	-22.30562	-2.799626E-006	0.1206665	8
	7	4	199546.9	5525.689	-1935.598	1	5854.894	-19.30488	-7.658203E-007	0.1201406	8
	8	4	158578.1	5840.792	-1717.618	1	6088.109	-16.38717	7.342708E-006	0.1191275	8
	9	4	125953.1	6017.061	-1411.979	1	6180.51	-13.20623	-1.106021E-006	0.1252103	7
	10	5	100078.1	6219.074	-1204.037	1	6334.555	-10.95713	-4.084268E-007	0.1192428	7
	11	5	79453.13	6442.354	-1123.18	1	6539.53	-9.88972	1.403292E-006	0.1195146	7
	12	6	63140.62	6449.887	-942.1503	1	6518.334	-8.310555	-4.124476E-007	0.1192377	7
	13	6	50203.12	6530.284	-872.8846	1	6588.363	-7.613436	-4.337177E-007	0.1223784	7
	14	7	39890.62	6704.678	-779.4953	1	6749.839	-6.631516	1.529765E-006	0.1184143	7
	15	7	31640.63	6753.916	-718.4088	1	6792.016	-6.071677	1.54877E-006	0.1188952	7
	16	8	25171.88	6804.15	-682.5511	1	6838.299	-5.728403	1.524943E-006	0.1184324	7
	17	8	20015.62	6716.625	-639.517	1	6747.002	-5.438965	-1.724347E-006	0.1224637	7
	18	8	15890.62	6758.646	-663.2931	1	6791.116	-5.605055	-1.452446E-006	0.1211277	7
	19	9	12609.37	6800.596	-684.0709	1	6834.915	-5.744052	-1.701569E-006	0.1219296	7
	20	9	10078.13	6922.22	-747.0885	1	6962.418	-6.159869	4.965012E-007	0.1212628	7
	21	9	8015.625	6960.862	-807.3804	1	7007.529	-6.616091	6.173262E-008	0.1218484	7
	22	10	6328.125	6985.892	-874.0321	1	7040.356	-7.131442	-4.239255E-007	0.1192244	7
	23	10	5015.625	7123.485	-1019.845	1	7196.119	-8.147474	1.113485E-006	0.1179472	7
	24	11	3984.375	7138.431	-1168.2	1	7233.387	-9.294036	1.79216E-007	0.1184998	7
	25	11	3170.956	7245.715	-1414.335	1	7382.461	-11.04503	1.535741E-006	0.118896	7
	26	11	2527.573	7328.769	-1661.012	1	7514.64	-12.76994	1.52974E-006	0.1184084	7
	27	12	1976.103	7395.699	-1998.708	1	7661.018	-15.12307	1.113985E-006	0.1179448	7
	28	12	1577.524	7439.618	-2399.235	1	7816.92	-17.87422	1.778142E-007	0.118495	7
	29	12	1265.625	7518.032	-2873.377	1	8048.423	-20.91676	6.473974E-008	0.1218406	7
	30	13	998.264	7614.897	-3495.251	1	8378.75	-24.65521	-8.894066E-007	0.1226794	7
	31	13	796.875	7785.356	-4160.143	1	8827.149	-28.11804	-1.267919E-006	0.122788	7
	32	13	627.7902	7986.75	-5137.743	1	9496.557	-32.7525	-1.005539E-006	0.120176	7
	33	14	505.5147	8245.014	-6151.285	1	10286.81	-36.72519	-4.412234E-007	0.1223592	7
	34	14	397.9953	8579.633	-7587.171	1	11453.18	-41.48709	-3.494285E-009	0.1204077	6
	35	15	315.5048	8943.311	-9275.027	1	12884.45	-46.04312	-3.212799E-009	0.1204235	6
	36	15	252.4038	9372.247	-11252.43	1	14644.32	-50.20879	-2.701774E-009	0.1204048	6
	37	15	198.6229	9956.86	-13884.21	1	17085.38	-54.35437	-2.893017E-009	0.120411	6
	38	15	158.3615	10662.38	-16918.03	1	19997.65	-57.77933	-3.234676E-009	0.1204127	6
	39	16	125.558	11607.09	-20724.6	1	23753.6	-60.74841	-2.99229E-009	0.1204069	6
	40	16	100.4464	12847.72	-25141.67	1	28234.16	-62.93238	-1.380673E-009	0.1204071	6
	41	16	79.00281	14712.01	-30988.72	1	34303.71	-64.60379	-3.608715E-009	0.1204143	6
	42	17	63.3446	16995.33	-38323.12	1	41922.58	-66.08393	-4.653951E-009	0.1204214	6
	43	17	49.86702	19801.68	-46566.47	1	50601.8	-66.96312	-5.533828E-009	0.1204139	6
	44	18	39.72458	23478.01	-55092.01	1	59886.11	-66.91824	-3.250139E-009	0.1204028	6
	45	18	31.6723	27987.97	-65834.95	1	71537.17	-66.96852	-3.06482E-009	0.1204031	6
	46	19	24.93351	34616.36	-79615.3	1	86815.26	-66.50082	-2.896936E-009	0.1203995	6
	47	19	19.86229	42323.46	-94216.87	1	103286.5	-65.80975	-3.17402E-009	0.1204058	6
	48	19	15.83615	52774.75	-110719.9	1	122654.3	-64.51514	-3.012398E-009	0.1204041	5
	49	19	12.40079	66334.03	-132425.1	1	148110.2	-63.39292	-4.425225E-009	0.1204211	5
	50	20	9.93114	78740.03	-153308.3	1	172346.9	-62.81471	-3.49025E-009	0.1204063	5
	51	20	7.944915	95159	-177043.6	1	200996.6	-61.74246	-3.626431E-009	0.1204075	5
	52	21	6.317385	113283.8	-204518	1	233796.6	-61.01765	-3.094039E-009	0.1204033	5
	53	22	5.008013	135751.7	-236431.3	1	272632.2	-60.13686	-3.198649E-009	0.1204151	5
	54	23	3.945707	163695.9	-274533.7	1	319632.8	-59.1937	-3.475762E-009	0.1204125	5
	55	24	3.158693	191989.7	-314613.9	1	368567.4	-58.60683	-3.43619E-009	0.120402	5
	56	26	2.504006	227338.2	-362311.4	1	427729.1	-57.89311	-3.156334E-009	0.1203968	5
	57	27	1.998082	265605.7	-414901.2	1	492635.1	-57.374	-3.228077E-009	0.1203989	5
	58	29	1.584686	313365.2	-477291.9	1	570968.8	-56.71317	-3.345668E-009	0.1203599	5
	59	31	1.266892	364933.2	-547504.5	1	657979.8	-56.31499	-3.274672E-009	0.1203691	5
	60	33	0.999041	429776.1	-631094.4	1	763536.3	-55.74509	-3.260849E-009	0.1203885	5
