EXPLAIN
TAG	EISPOT
TITLE	LABEL	Potentiostatic EIS	Test &Identifier
DATE	LABEL	11/22/2019	Date
TIME	LABEL	11:02:59	Time
NOTES	NOTES	4	&Notes...
	
	
	
	
PSTAT	PSTAT	REF600-11020	Potentiostat
VDC	POTEN	0.00000E+000	T	DC &Voltage (V)
FREQINIT	QUANT	1.00000E+006	Initial Fre&q. (Hz)
FREQFINAL	QUANT	1.00000E+000	Final Fre&q. (Hz)
PTSPERDEC	QUANT	1.00000E+001	Points/&decade
VAC	QUANT	2.50000E+001	AC &Voltage (mV rms)
AREA	QUANT	1.00000E-002	&Area (cm^2)
CONDIT	TWOPARAM	T	5.00000E+000	0.00000E+000	Conditionin&g	Time(s)	E(V)
DELAY	TWOPARAM	T	5.00000E+000	0.00000E+000	Init. De&lay	Time(s)	Stab.(mV/s)
SPEED	SELECTOR	0	&Optimize for:
ZGUESS	QUANT	1.00000E+005	E&stimated Z (ohms)
OCVCURVE	TABLE	19
	Pt	T	Vf	Vm	Ach	Over
	#	s	V vs. Ref.	V	V	bits
	0	0.258333	2.54412E-002	2.54412E-002	5.72399E-004	...........
	1	0.516667	2.54676E-002	2.68259E-002	5.74432E-004	...........
	2	0.775	2.56302E-002	2.81465E-002	5.77566E-004	...........
	3	1.03333	2.60904E-002	2.94014E-002	5.71432E-004	...........
	4	1.29167	2.69137E-002	3.06002E-002	5.77532E-004	...........
	5	1.55	2.80076E-002	3.17420E-002	5.76132E-004	...........
	6	1.80833	2.92187E-002	3.28363E-002	5.72332E-004	...........
	7	2.06667	3.04342E-002	3.38848E-002	5.71032E-004	...........
	8	2.325	3.16030E-002	3.48901E-002	5.68032E-004	...........
	9	2.58333	3.27141E-002	3.58569E-002	5.78599E-004	...........
	10	2.84167	3.37721E-002	3.67876E-002	5.78199E-004	...........
	11	3.1	3.47841E-002	3.76839E-002	5.77699E-004	...........
	12	3.35833	3.57556E-002	3.85444E-002	5.75666E-004	...........
	13	3.61667	3.66899E-002	3.93788E-002	5.75566E-004	...........
	14	3.875	3.75894E-002	4.01853E-002	5.73832E-004	...........
	15	4.13333	3.84566E-002	4.09634E-002	5.77766E-004	...........
	16	4.39167	3.92936E-002	4.17133E-002	5.73432E-004	...........
	17	4.65	4.01020E-002	4.24451E-002	5.67499E-004	...........
	18	4.90833	4.08831E-002	4.31418E-002	5.66766E-004	...........
EOC	QUANT	0.0408831	Open Circuit (V)
PSTATMODEL	IQUANT	4	Pstat Model
PSTATSECTION	LABEL	REF600-11020	Pstat Section
PSTATSERIALNO	LABEL	11020	Pstat Serial Number
CTRLMODE	IQUANT	1	Control Mode
IESTAB	IQUANT	0	I/E Stability
CASPEED	IQUANT	1	Control Amp Speed
CONVENTION	IQUANT	1	Current Convention
ICHRANGE	IQUANT	2	Ich Range
ICHRANGEMODE	TOGGLE	F	Ich Auto Range
ICHOFFSETENABLE	TOGGLE	T	Ich Offset Enable
ICHOFFSET	QUANT	0	Ich Offset (V)
ICHFILTER	IQUANT	3	Ich Filter
VCHRANGE	IQUANT	2	Vch Range
VCHRANGEMODE	TOGGLE	F	Vch Auto Range
VCHOFFSETENABLE	TOGGLE	T	Vch Offset Enable
VCHOFFSET	QUANT	0	Vch Offset (V)
VCHFILTER	IQUANT	3	Vch Filter
ACHRANGE	IQUANT	2	Ach Range
ACHOFFSETENABLE	TOGGLE	F	Ach Offset Enable
ACHOFFSET	QUANT	0	Ach Offset (V)
ACHFILTER	IQUANT	3	Ach Filter
IERANGELOWERLIMIT	IQUANT	1	I/E Range Lower Limit
IERANGEMODE	TOGGLE	F	I/E AutoRange
IERANGE	IQUANT	5	I/E Range
POSFEEDENABLE	TOGGLE	F	Positive Feedback IR Comp
POSFEEDRESISTANCE	QUANT	0	Positive Feedback Resistance (ohm)
ACHSELECT	IQUANT	0	Ach Select
CABLEID	IQUANT	14	Cable ID
DCCALDATE	LABEL	8/19/2019	DC Calibration Date
ACCALDATE	LABEL	8/19/2019	AC Calibration Date
THERMOSELECT	IQUANT	1	Thermo Select
FRAMEWORKVERSION	QUANT	6.33	Framework Version
INSTRUMENTVERSION	LABEL	3.50	Instrument Version
ZCURVE	TABLE
	Pt	Time	Freq	Zreal	Zimag	Zsig	Zmod	Zphz	Idc	Vdc	IERange
	#	s	Hz	ohm	ohm	V	ohm	°	A	V	#
	0	2	1000078	1675.396	-870.3071	1	1887.958	-27.45024	8.227124E-006	0.0414933	8
	1	2	794390.6	1816.143	-860.0297	1	2009.484	-25.33977	-6.330819E-006	0.0427653	8
	2	2	630984.4	1965.23	-849.0975	1	2140.816	-23.36725	1.034444E-006	0.0423893	8
	3	3	501234.4	2095.534	-825.0997	1	2252.122	-21.49164	1.921963E-006	0.0421065	8
	4	3	398109.4	2224.601	-803.7772	1	2365.356	-19.86544	1.909993E-006	0.0428359	8
	5	3	316265.6	2342.746	-778.6623	1	2468.76	-18.38534	-3.883285E-006	0.0431183	8
	6	4	251203.1	2455.252	-751.0821	1	2567.564	-17.00931	-1.680149E-007	0.0422289	8
	7	4	199546.9	2550.224	-729.186	1	2652.424	-15.95683	5.860946E-006	0.0413793	8
	8	4	158578.1	2652.036	-710.9826	1	2745.686	-15.00749	-8.376989E-007	0.0422251	8
	9	5	125953.1	2764.483	-663.4659	1	2842.983	-13.49554	2.015857E-006	0.0421768	7
	10	5	100078.1	2817.766	-645.8736	1	2890.84	-12.91003	-7.304675E-007	0.0424356	7
	11	5	79453.13	2899.198	-676.3107	1	2977.036	-13.13086	3.762473E-007	0.0409885	7
	12	5	63140.62	2979.266	-709.3334	1	3062.545	-13.39221	8.615025E-007	0.0408909	7
	13	6	50203.12	3050.975	-745.5709	1	3140.752	-13.73232	-7.337289E-007	0.0424305	7
	14	6	39890.62	3134.714	-796.4151	1	3234.302	-14.25514	-9.934128E-007	0.044012	7
	15	6	31640.63	3236.803	-862.062	1	3349.634	-14.91348	6.239562E-007	0.0425516	7
	16	7	25171.88	3326.363	-933.4876	1	3454.865	-15.67588	-2.079416E-007	0.0436701	7
	17	7	20015.62	3421.003	-1021.287	1	3570.194	-16.62218	-7.9204E-007	0.0440252	7
	18	7	15890.62	3531.099	-1129.985	1	3707.496	-17.74517	-1.137601E-006	0.0438778	7
	19	8	12609.37	3658.646	-1265.687	1	3871.389	-19.08276	-7.911149E-007	0.0440284	7
	20	8	10078.13	3806.749	-1422.983	1	4064.015	-20.49601	9.82927E-007	0.0410639	7
	21	8	8015.625	3968.358	-1618.759	1	4285.819	-22.19136	1.019674E-006	0.041338	7
	22	9	6328.125	4165.724	-1842.265	1	4554.909	-23.8571	1.021256E-006	0.0413411	7
	23	9	5015.625	4390.255	-2089.845	1	4862.283	-25.45534	6.217027E-007	0.0425499	7
	24	9	3984.375	4660.553	-2362.153	1	5224.99	-26.8777	4.261463E-007	0.042859	7
	25	10	3170.956	4971.383	-2658.21	1	5637.44	-28.13352	9.628538E-007	0.0417076	7
	26	10	2527.573	5300.907	-2939.502	1	6061.376	-29.0096	-7.906241E-007	0.0440235	7
	27	10	1976.103	5724.91	-3287.234	1	6601.553	-29.86437	3.219108E-008	0.0412874	7
	28	11	1577.524	6104.138	-3532.656	1	7052.67	-30.05931	-3.597852E-007	0.0417743	7
	29	11	1265.625	6548.826	-3957.154	1	7651.548	-31.14263	-3.606311E-007	0.0417714	7
	30	11	998.264	6988.278	-4349.295	1	8231.185	-31.8969	-1.135578E-006	0.0438704	7
	31	12	796.875	7403.489	-4804.456	1	8825.782	-32.98135	-1.151544E-006	0.0435508	7
	32	12	627.7902	7876.885	-5451.741	1	9579.5	-34.68784	8.145049E-007	0.0421433	7
	33	12	505.5147	8253.83	-6137.349	1	10285.56	-36.6336	9.823499E-007	0.041058	7
	34	13	397.9953	8645.854	-7050.077	1	11155.91	-39.19479	-1.035577E-009	0.0424862	7
	35	13	315.5048	9071.465	-8228.431	1	12247.39	-42.21015	-2.327082E-009	0.0424238	6
	36	13	252.4038	9513.65	-9660.51	1	13558.58	-45.43882	-1.85363E-009	0.0424248	6
	37	14	198.6229	10067.21	-11593.33	1	15354.28	-49.03019	-1.428178E-009	0.0424163	6
	38	14	158.3615	10699	-13863.72	1	17512.03	-52.34167	-1.907044E-009	0.0424175	6
	39	14	125.558	11491.67	-16731.14	1	20297.53	-55.51704	-1.595401E-009	0.0424163	6
	40	15	100.4464	12467.29	-20102.32	1	23654.53	-58.19316	-1.746323E-009	0.0424147	6
	41	15	79.00281	13770.49	-24546.82	1	28145.56	-60.70807	-2.034815E-009	0.0424074	6
	42	15	63.3446	14997.35	-29532.76	1	33122.56	-63.07759	-1.824841E-009	0.0424117	6
	43	16	49.86702	17089.56	-35900.05	1	39760.12	-64.54408	-1.902116E-009	0.0424036	6
	44	16	39.72458	19777.71	-43238.02	1	47546.65	-65.41994	-1.001807E-009	0.0424116	6
	45	16	31.6723	22819.03	-51964.32	1	56753.84	-66.29234	-1.101399E-009	0.0424169	6
	46	17	24.93351	27034	-62942.55	1	68502.56	-66.75634	-9.237899E-010	0.0424072	6
	47	17	19.86229	32022.36	-75333.2	1	81856.73	-66.9708	-5.639194E-010	0.042422	6
	48	17	15.83615	38030.3	-89658.95	1	97391.1	-67.01498	-1.539202E-009	0.0424176	6
	49	17	12.40079	46952.83	-108676.1	1	118385.2	-66.63354	-2.319859E-009	0.0424208	5
	50	18	9.93114	55589.63	-128646.7	1	140143.4	-66.63029	-1.185495E-009	0.0424163	5
	51	18	7.944915	66566.12	-151827	1	165778.4	-66.32572	-2.000496E-009	0.0424187	5
	52	19	6.317385	80825.82	-179186.5	1	196572.2	-65.72125	-1.73516E-009	0.0424267	5
	53	20	5.008013	98294.2	-211759.9	1	233460.9	-65.10033	-1.428818E-009	0.0424179	5
	54	21	3.945707	119464.8	-250817.7	1	277815.3	-64.53147	-1.521848E-009	0.0424037	5
	55	22	3.158693	143656.1	-292909.4	1	326240.8	-63.87457	-1.334564E-009	0.0424061	5
	56	24	2.504006	173537.4	-343666.4	1	384995.9	-63.2081	-1.170353E-009	0.04241	5
	57	25	1.998082	208496.3	-399509.3	1	450642.3	-62.4408	-1.401063E-009	0.0423678	5
	58	27	1.584686	249621.2	-466405.7	1	529003.9	-61.84423	-1.368728E-009	0.0423698	5
	59	29	1.266892	296313.6	-538217.2	1	614393.6	-61.16517	-1.261033E-009	0.0424067	5
	60	31	0.999041	354870.6	-625651.7	1	719286.6	-60.43802	-1.210514E-009	0.0424354	5
