EXPLAIN
TAG	EISPOT
TITLE	LABEL	Potentiostatic EIS	Test &Identifier
DATE	LABEL	11/5/2019	Date
TIME	LABEL	9:31:02	Time
NOTES	NOTES	2	&Notes...
	
	
PSTAT	PSTAT	REF600-11020	Potentiostat
VDC	POTEN	0.00000E+000	T	DC &Voltage (V)
FREQINIT	QUANT	1.00000E+006	Initial Fre&q. (Hz)
FREQFINAL	QUANT	1.00000E+000	Final Fre&q. (Hz)
PTSPERDEC	QUANT	1.00000E+001	Points/&decade
VAC	QUANT	2.50000E+001	AC &Voltage (mV rms)
AREA	QUANT	1.00000E-002	&Area (cm^2)
CONDIT	TWOPARAM	T	5.00000E+000	0.00000E+000	Conditionin&g	Time(s)	E(V)
DELAY	TWOPARAM	T	5.00000E+000	0.00000E+000	Init. De&lay	Time(s)	Stab.(mV/s)
SPEED	SELECTOR	1	&Optimize for:
ZGUESS	QUANT	1.00000E+005	E&stimated Z (ohms)
OCVCURVE	TABLE	19
	Pt	T	Vf	Vm	Ach	Over
	#	s	V vs. Ref.	V	V	bits
	0	0.258333	5.16228E-003	5.16228E-003	5.65432E-004	...........
	1	0.516667	5.15502E-003	4.78209E-003	5.58899E-004	...........
	2	0.775	5.10740E-003	4.26390E-003	5.66266E-004	...........
	3	1.03333	4.97773E-003	4.55383E-003	5.62266E-004	...........
	4	1.29167	4.78072E-003	4.24499E-003	5.67266E-004	...........
	5	1.55	4.58562E-003	4.27672E-003	5.69032E-004	...........
	6	1.80833	4.43663E-003	4.14993E-003	5.69566E-004	...........
	7	2.06667	4.32934E-003	4.10212E-003	5.68032E-004	...........
	8	2.325	4.24572E-003	4.04467E-003	5.66899E-004	...........
	9	2.58333	4.17387E-003	3.98308E-003	5.62632E-004	...........
	10	2.84167	4.10895E-003	3.94305E-003	5.66099E-004	...........
	11	3.1	4.04987E-003	3.90416E-003	5.63666E-004	...........
	12	3.35833	3.99647E-003	3.84682E-003	5.58799E-004	...........
	13	3.61667	3.94799E-003	3.82529E-003	5.62766E-004	...........
	14	3.875	3.90373E-003	3.80788E-003	5.64999E-004	...........
	15	4.13333	3.86501E-003	3.77986E-003	5.62899E-004	...........
	16	4.39167	3.83292E-003	3.75143E-003	5.67832E-004	...........
	17	4.65	3.80525E-003	3.70987E-003	5.62432E-004	...........
	18	4.90833	3.77872E-003	3.72535E-003	5.61232E-004	...........
EOC	QUANT	0.0037787	Open Circuit (V)
PSTATMODEL	IQUANT	4	Pstat Model
PSTATSECTION	LABEL	REF600-11020	Pstat Section
PSTATSERIALNO	LABEL	11020	Pstat Serial Number
CTRLMODE	IQUANT	1	Control Mode
IESTAB	IQUANT	0	I/E Stability
CASPEED	IQUANT	1	Control Amp Speed
CONVENTION	IQUANT	1	Current Convention
ICHRANGE	IQUANT	2	Ich Range
ICHRANGEMODE	TOGGLE	F	Ich Auto Range
ICHOFFSETENABLE	TOGGLE	T	Ich Offset Enable
ICHOFFSET	QUANT	0	Ich Offset (V)
ICHFILTER	IQUANT	3	Ich Filter
VCHRANGE	IQUANT	2	Vch Range
VCHRANGEMODE	TOGGLE	F	Vch Auto Range
VCHOFFSETENABLE	TOGGLE	T	Vch Offset Enable
VCHOFFSET	QUANT	0	Vch Offset (V)
VCHFILTER	IQUANT	3	Vch Filter
ACHRANGE	IQUANT	2	Ach Range
ACHOFFSETENABLE	TOGGLE	F	Ach Offset Enable
ACHOFFSET	QUANT	0	Ach Offset (V)
ACHFILTER	IQUANT	3	Ach Filter
IERANGELOWERLIMIT	IQUANT	1	I/E Range Lower Limit
IERANGEMODE	TOGGLE	F	I/E AutoRange
IERANGE	IQUANT	4	I/E Range
POSFEEDENABLE	TOGGLE	F	Positive Feedback IR Comp
POSFEEDRESISTANCE	QUANT	0	Positive Feedback Resistance (ohm)
ACHSELECT	IQUANT	0	Ach Select
CABLEID	IQUANT	14	Cable ID
DCCALDATE	LABEL	8/19/2019	DC Calibration Date
ACCALDATE	LABEL	8/19/2019	AC Calibration Date
THERMOSELECT	IQUANT	1	Thermo Select
FRAMEWORKVERSION	QUANT	6.33	Framework Version
INSTRUMENTVERSION	LABEL	3.50	Instrument Version
ZCURVE	TABLE
	Pt	Time	Freq	Zreal	Zimag	Zsig	Zmod	Zphz	Idc	Vdc	IERange
	#	s	Hz	ohm	ohm	V	ohm	°	A	V	#
	0	1	1000078	2342.806	-1746.43	1	2922.116	-36.70245	-6.547536E-007	0.0056523	8
	1	2	794390.6	2698.365	-1702.661	1	3190.648	-32.25182	-6.82396E-007	0.0052699	8
	2	4	630984.4	3023.581	-1577.351	1	3410.29	-27.55028	-2.381481E-006	0.0056373	8
	3	5	501234.4	3303.941	-1452.083	1	3608.958	-23.72551	-4.470924E-007	0.0050697	8
	4	7	398109.4	3522.753	-1269.693	1	3744.584	-19.8205	7.186738E-006	0.0041022	8
	5	8	316265.6	3698.957	-1116.823	1	3863.881	-16.8006	1.656694E-006	0.0056183	8
	6	9	251203.1	3856.884	-968.505	1	3976.626	-14.09613	6.871498E-006	0.0045227	8
	7	11	199546.9	3935.012	-849.7888	1	4025.725	-12.18622	-2.276884E-006	0.0054026	8
	8	12	158578.1	4022.473	-728.786	1	4087.96	-10.26937	-6.477551E-007	0.0049944	8
	9	14	125953.1	4113.107	-557.7282	1	4150.749	-7.722082	-3.173793E-008	0.0083107	7
	10	15	100078.1	4151.113	-495.286	1	4180.556	-6.804024	1.759248E-007	0.0036332	7
	11	16	79453.13	4185.54	-447.8485	1	4209.431	-6.107354	-1.281196E-006	0.0070912	7
	12	18	63140.62	4221.003	-421.117	1	4241.958	-5.697377	1.268727E-006	0.0035691	7
	13	19	50203.12	4252.663	-400.1854	1	4271.45	-5.375834	9.40707E-007	0.0050324	7
	14	20	39890.62	4280.771	-387.7122	1	4298.293	-5.175196	-1.431965E-006	0.0068953	7
	15	22	31640.63	4314.286	-390.0342	1	4331.88	-5.165799	1.751387E-007	0.0036277	7
	16	23	25171.88	4345.983	-402.6776	1	4364.598	-5.293633	1.262567E-006	0.0039729	7
	17	25	20015.62	4375.979	-424.6011	1	4396.531	-5.542058	4.686498E-008	0.0063688	7
	18	26	15890.62	4405.928	-454.2256	1	4429.28	-5.886068	-1.185951E-006	0.0057828	7
	19	27	12609.37	4447.896	-499.5098	1	4475.857	-6.407611	1.266269E-006	0.0035797	7
	20	29	10078.13	4481.133	-562.6226	1	4516.315	-7.156248	4.190516E-007	0.0058824	7
	21	30	8015.625	4518.983	-636.1829	1	4563.544	-8.013443	6.051973E-007	0.0032841	7
	22	31	6328.125	4561.611	-735.9811	1	4620.603	-9.165253	6.054927E-007	0.0032893	7
	23	33	5015.625	4608.798	-858.9822	1	4688.163	-10.55758	9.41354E-007	0.0031772	7
	24	34	3984.375	4657.171	-1010.259	1	4765.487	-12.23928	-1.065476E-006	0.0071714	7
	25	35	3170.956	4709.442	-1194.73	1	4858.624	-14.23495	-7.505859E-007	0.0070829	7
	26	37	2527.573	4772.295	-1422.483	1	4979.785	-16.59779	-1.286482E-006	0.0070799	7
	27	38	1976.103	4852.172	-1729.382	1	5151.149	-19.61678	1.270049E-006	0.0035695	7
	28	40	1577.524	4930.761	-2077.099	1	5350.396	-22.84342	4.185094E-007	0.0058829	7
	29	41	1265.625	5025.71	-2490.657	1	5609.022	-26.36224	9.366128E-007	0.0031814	7
	30	42	998.264	5142.172	-3039.316	1	5973.222	-30.58551	9.390682E-007	0.0031809	7
	31	44	796.875	5266.359	-3674.668	1	6421.66	-34.90589	4.570856E-008	0.0063757	7
	32	45	627.7902	5431.888	-4514.068	1	7062.735	-39.72764	-3.736038E-007	0.0068275	7
	33	47	505.5147	5601.478	-5448.076	1	7813.967	-44.20461	4.228459E-007	0.005886	7
	34	49	397.9953	5830.272	-6716.279	1	8893.846	-49.03938	5.628054E-009	0.0052603	7
	35	50	315.5048	6106.959	-8242.148	1	10258.07	-53.46368	-6.634848E-011	0.0051952	6
	36	51	252.4038	6430.615	-10050.43	1	11931.63	-57.38746	3.839215E-010	0.0051961	6
	37	53	198.6229	6865.544	-12448.61	1	14216.31	-61.12278	1.127423E-009	0.0051887	6
	38	54	158.3615	7394.997	-15248.58	1	16947.13	-64.12834	1.64832E-009	0.0051899	6
	39	56	125.558	8090.439	-18774.64	1	20443.64	-66.68764	3.965157E-010	0.0052018	6
	40	57	100.4464	8945.955	-22919.2	1	24603.25	-68.67802	1.940074E-009	0.0051845	6
	41	58	79.00281	10261.72	-28401.25	1	30198.24	-70.13459	1.22471E-009	0.0051823	6
	42	60	63.3446	11997.84	-34672.37	1	36689.53	-70.91261	2.554219E-010	0.0051863	6
	43	61	49.86702	13677.3	-42791.77	1	44924.43	-72.27485	9.236332E-010	0.0051857	6
	44	63	39.72458	16671.67	-52015.33	1	54621.79	-72.22859	9.789138E-010	0.0051976	6
	45	64	31.6723	20211.4	-63255.46	1	66405.98	-72.28027	3.582706E-010	0.0051884	6
	46	66	24.93351	25329.17	-77189.11	1	81238.7	-71.83305	3.163473E-010	0.005193	6
	47	67	19.86229	31719.65	-93190.88	1	98441.2	-71.20282	1.118715E-009	0.0051922	6
	48	68	15.83615	40132.93	-110698	1	117748.5	-70.07217	-1.035778E-010	0.0051869	5
	49	70	12.40079	52624.91	-136422.2	1	146220.4	-68.90587	-1.051845E-009	0.0051875	5
	50	71	9.93114	65948.52	-160006.8	1	173064.6	-67.60046	8.73368E-010	0.0051962	5
	51	73	7.944915	82516.47	-187253.9	1	204628.9	-66.21854	1.105526E-009	0.0051954	5
	52	74	6.317385	106061.8	-219680.1	1	243943.5	-64.22871	3.543543E-010	0.0052117	5
	53	76	5.008013	134298.3	-255242.1	1	288417.3	-62.24842	3.34092E-010	0.0051845	5
	54	79	3.945707	168195.9	-293588	1	338354.5	-60.1917	5.558444E-010	0.0051966	5
	55	82	3.158693	205467.9	-332525.1	1	390883.6	-58.288	-7.973829E-011	0.0051727	5
	56	85	2.504006	248476.3	-374955.9	1	449813.8	-56.4683	5.500355E-010	0.0052006	5
	57	88	1.998082	294229.3	-418695.7	1	511739.2	-54.90319	4.883446E-010	0.0051825	5
	58	91	1.584686	346102.4	-467946.2	1	582031.4	-53.51263	3.462752E-011	0.0051451	5
	59	95	1.266892	395854.4	-520382.2	1	653833.6	-52.73978	3.52568E-010	0.0051726	5
	60	99	0.999041	453215.3	-586915.6	1	741534.9	-52.32474	-1.939539E-010	0.0051932	5
