EXPLAIN
TAG	EISPOT
TITLE	LABEL	Potentiostatic EIS	Test &Identifier
DATE	LABEL	10/24/2019	Date
TIME	LABEL	9:07:03	Time
NOTES	NOTES	1	&Notes...
	
PSTAT	PSTAT	REF600-11020	Potentiostat
VDC	POTEN	0.00000E+000	T	DC &Voltage (V)
FREQINIT	QUANT	1.00000E+006	Initial Fre&q. (Hz)
FREQFINAL	QUANT	1.00000E+000	Final Fre&q. (Hz)
PTSPERDEC	QUANT	1.00000E+001	Points/&decade
VAC	QUANT	2.50000E+001	AC &Voltage (mV rms)
AREA	QUANT	1.00000E-002	&Area (cm^2)
CONDIT	TWOPARAM	T	5.00000E+000	0.00000E+000	Conditionin&g	Time(s)	E(V)
DELAY	TWOPARAM	T	5.00000E+000	0.00000E+000	Init. De&lay	Time(s)	Stab.(mV/s)
SPEED	SELECTOR	1	&Optimize for:
ZGUESS	QUANT	1.00000E+005	E&stimated Z (ohms)
OCVCURVE	TABLE	19
	Pt	T	Vf	Vm	Ach	Over
	#	s	V vs. Ref.	V	V	bits
	0	0.258333	3.81593E-003	3.81593E-003	5.54799E-004	...........
	1	0.516667	3.81297E-003	3.66089E-003	5.55799E-004	...........
	2	0.775	3.79513E-003	3.53188E-003	5.56866E-004	...........
	3	1.03333	3.74599E-003	3.41857E-003	5.57266E-004	...........
	4	1.29167	3.66089E-003	3.29605E-003	5.58366E-004	...........
	5	1.55	3.55202E-003	3.23175E-003	5.55533E-004	...........
	6	1.80833	3.43803E-003	3.15965E-003	5.52999E-004	...........
	7	2.06667	3.33351E-003	3.09138E-003	5.55533E-004	...........
	8	2.325	3.24401E-003	3.02889E-003	5.51366E-004	...........
	9	2.58333	3.16721E-003	2.96561E-003	5.51799E-004	...........
	10	2.84167	3.09837E-003	2.90718E-003	5.50733E-004	...........
	11	3.1	3.03749E-003	3.03199E-003	5.54366E-004	...........
	12	3.35833	2.99051E-003	2.79494E-003	5.47666E-004	...........
	13	3.61667	2.95300E-003	2.72836E-003	5.54833E-004	...........
	14	3.875	2.90511E-003	2.68927E-003	5.51299E-004	...........
	15	4.13333	2.83821E-003	2.63968E-003	5.55566E-004	...........
	16	4.39167	2.76542E-003	2.59679E-003	5.61299E-004	...........
	17	4.65	2.70079E-003	2.56252E-003	5.52932E-004	...........
	18	4.90833	2.64789E-003	2.53543E-003	5.56133E-004	...........
EOC	QUANT	0.0026479	Open Circuit (V)
PSTATMODEL	IQUANT	4	Pstat Model
PSTATSECTION	LABEL	REF600-11020	Pstat Section
PSTATSERIALNO	LABEL	11020	Pstat Serial Number
CTRLMODE	IQUANT	1	Control Mode
IESTAB	IQUANT	0	I/E Stability
CASPEED	IQUANT	1	Control Amp Speed
CONVENTION	IQUANT	1	Current Convention
ICHRANGE	IQUANT	2	Ich Range
ICHRANGEMODE	TOGGLE	F	Ich Auto Range
ICHOFFSETENABLE	TOGGLE	T	Ich Offset Enable
ICHOFFSET	QUANT	0	Ich Offset (V)
ICHFILTER	IQUANT	3	Ich Filter
VCHRANGE	IQUANT	2	Vch Range
VCHRANGEMODE	TOGGLE	F	Vch Auto Range
VCHOFFSETENABLE	TOGGLE	T	Vch Offset Enable
VCHOFFSET	QUANT	0	Vch Offset (V)
VCHFILTER	IQUANT	3	Vch Filter
ACHRANGE	IQUANT	2	Ach Range
ACHOFFSETENABLE	TOGGLE	F	Ach Offset Enable
ACHOFFSET	QUANT	0	Ach Offset (V)
ACHFILTER	IQUANT	3	Ach Filter
IERANGELOWERLIMIT	IQUANT	1	I/E Range Lower Limit
IERANGEMODE	TOGGLE	F	I/E AutoRange
IERANGE	IQUANT	4	I/E Range
POSFEEDENABLE	TOGGLE	F	Positive Feedback IR Comp
POSFEEDRESISTANCE	QUANT	0	Positive Feedback Resistance (ohm)
ACHSELECT	IQUANT	0	Ach Select
CABLEID	IQUANT	14	Cable ID
DCCALDATE	LABEL	8/19/2019	DC Calibration Date
ACCALDATE	LABEL	8/19/2019	AC Calibration Date
THERMOSELECT	IQUANT	1	Thermo Select
FRAMEWORKVERSION	QUANT	6.33	Framework Version
INSTRUMENTVERSION	LABEL	3.50	Instrument Version
ZCURVE	TABLE
	Pt	Time	Freq	Zreal	Zimag	Zsig	Zmod	Zphz	Idc	Vdc	IERange
	#	s	Hz	ohm	ohm	V	ohm	°	A	V	#
	0	2	1000078	2408.35	-1278.767	1	2726.792	-27.96706	-3.922638E-006	0.0055438	8
	1	3	794390.6	2624.353	-1158.628	1	2868.736	-23.82103	2.747895E-006	0.0042825	8
	2	5	630984.4	2807.251	-1032.592	1	2991.138	-20.19505	6.097737E-007	0.0042943	8
	3	6	501234.4	2946.615	-897.8511	1	3080.37	-16.94629	3.938997E-007	0.0041756	8
	4	8	398109.4	3048.281	-782.2807	1	3147.059	-14.39321	2.072504E-006	0.0039336	8
	5	9	316265.6	3134.828	-661.0726	1	3203.773	-11.90806	-2.441636E-006	0.0047214	8
	6	10	251203.1	3198.653	-575.7093	1	3250.049	-10.20314	-6.46541E-008	0.0043909	8
	7	12	199546.9	3241.054	-497.5593	1	3279.023	-8.72778	-2.199388E-006	0.0047791	8
	8	13	158578.1	3302.186	-459.7558	1	3334.038	-7.926208	-2.122995E-006	0.0047702	8
	9	14	125953.1	3328.869	-362.44	1	3348.541	-6.213765	-4.521109E-007	0.0056596	7
	10	16	100078.1	3345.453	-335.7323	1	3362.257	-5.730721	-3.13222E-008	0.0043032	7
	11	17	79453.13	3371.948	-326.7948	1	3387.747	-5.535574	-3.077843E-008	0.0043048	7
	12	18	63140.62	3398.731	-325.9877	1	3414.329	-5.478738	-3.565357E-009	0.0043148	7
	13	20	50203.12	3425.68	-332.593	1	3441.788	-5.545362	4.507624E-009	0.0043645	7
	14	21	39890.62	3455.244	-347.7861	1	3472.703	-5.747724	9.309842E-009	0.0042388	7
	15	23	31640.63	3487.557	-369.9663	1	3507.125	-6.055393	6.436425E-008	0.0041465	7
	16	24	25171.88	3522.638	-401.5748	1	3545.453	-6.503546	-4.548198E-008	0.0043603	7
	17	25	20015.62	3556.917	-447.2965	1	3584.931	-7.167549	3.69034E-009	0.0042286	7
	18	27	15890.62	3604.552	-490.6598	1	3637.794	-7.751587	-2.430411E-008	0.0043269	7
	19	28	12609.37	3653.83	-549.8807	1	3694.975	-8.558463	9.841734E-008	0.0041352	7
	20	29	10078.13	3707.574	-618.8934	1	3758.875	-9.476821	8.948892E-009	0.004236	7
	21	31	8015.625	3758.832	-712.4664	1	3825.758	-10.73278	-3.034866E-008	0.0042892	7
	22	32	6328.125	3838.448	-803.1563	1	3921.574	-11.81806	-2.296641E-008	0.00428	7
	23	33	5015.625	3916.246	-918.6068	1	4022.539	-13.20083	-3.631824E-008	0.0044154	7
	24	35	3984.375	4009.04	-1055.79	1	4145.731	-14.75398	-3.344755E-008	0.0043179	7
	25	36	3170.956	4091.601	-1210.859	1	4267.01	-16.48548	-2.376653E-008	0.004329	7
	26	38	2527.573	4190.737	-1395.487	1	4416.974	-18.41741	6.376411E-008	0.0041475	7
	27	39	1976.103	4306.066	-1638.07	1	4607.112	-20.82731	-1.843922E-008	0.0043368	7
	28	40	1577.524	4416.114	-1923.804	1	4816.958	-23.53952	-2.09349E-008	0.0043379	7
	29	42	1265.625	4541.318	-2220.747	1	5055.224	-26.05907	-4.579142E-008	0.0043465	7
	30	43	998.264	4681.422	-2633.833	1	5371.479	-29.3627	4.218525E-009	0.0042244	7
	31	44	796.875	4822.554	-3122.583	1	5745.22	-32.92288	-2.238823E-008	0.0043344	7
	32	46	627.7902	4987.24	-3751.987	1	6240.991	-36.95478	-2.097937E-008	0.0042736	7
	33	47	505.5147	5154.381	-4463.06	1	6818.104	-40.88853	-2.495655E-008	0.004276	7
	34	48	397.9953	5362.798	-5436.945	1	7636.751	-45.39336	4.688518E-009	0.0042972	7
	35	50	315.5048	5600.817	-6613.325	1	8666.327	-49.73878	5.284111E-009	0.0042978	7
	36	51	252.4038	5876.733	-8010.873	1	9935.29	-53.73643	5.629804E-009	0.0042951	7
	37	53	198.6229	6243.346	-9870.63	1	11679.41	-57.68592	1.109981E-009	0.0042348	6
	38	54	158.3615	6678.558	-12046.16	1	13773.64	-60.9954	2.463645E-010	0.004236	6
	39	55	125.558	7254.908	-14790	1	16473.55	-63.87076	9.594519E-010	0.0042355	6
	40	57	100.4464	7973.921	-17997.36	1	19684.73	-66.10376	5.613472E-010	0.0042394	6
	41	58	79.00281	8993.569	-22307.65	1	24052.35	-68.04264	4.384369E-010	0.0042352	6
	42	59	63.3446	10183.34	-27270.13	1	29109.46	-69.52312	6.014057E-010	0.0042371	6
	43	61	49.86702	11869.98	-33170.63	1	35230.49	-70.31045	1.319001E-009	0.0042399	6
	44	62	39.72458	14157.79	-40521.84	1	42923.91	-70.74126	6.409794E-010	0.0042424	6
	45	64	31.6723	17079.98	-49229.48	1	52108.23	-70.86597	5.977009E-010	0.0042405	6
	46	65	24.93351	21253.21	-60044.29	1	63694.7	-70.50813	5.995294E-010	0.0042341	6
	47	66	19.86229	26446.96	-72159.8	1	76853.62	-69.87184	1.120623E-010	0.004234	6
	48	68	15.83615	33030.69	-86101.95	1	92220.23	-69.01203	5.837635E-010	0.0042376	6
	49	69	12.40079	43019.41	-103777.1	1	112340.3	-67.4842	2.056557E-009	0.0042417	5
	50	71	9.93114	53263.21	-122318.7	1	133412.3	-66.46947	-6.822464E-010	0.0042465	5
	51	72	7.944915	66308.14	-142399.7	1	157081	-65.03105	1.183092E-009	0.0042433	5
	52	74	6.317385	82344.13	-166512.2	1	185760.3	-63.68655	-1.934618E-010	0.0042513	5
	53	76	5.008013	101870.4	-193070.2	1	218297.3	-62.18234	5.065112E-011	0.00424	5
	54	78	3.945707	124763.2	-222776.4	1	255333.5	-60.74953	5.673473E-010	0.0042479	5
	55	81	3.158693	149171.2	-253927	1	294501.2	-59.56759	-1.048697E-010	0.004229	5
	56	84	2.504006	177112.8	-290123	1	339912.2	-58.59698	5.253897E-010	0.0042484	5
	57	87	1.998082	206565.5	-329895.9	1	389230.8	-57.94712	4.224122E-010	0.0042528	5
	58	90	1.584686	240488.6	-376831	1	447030.6	-57.45452	7.170693E-011	0.004193	5
	59	94	1.266892	274055.5	-430571.6	1	510390.3	-57.52356	3.452856E-010	0.0042424	5
	60	98	0.999041	313470.2	-499400.9	1	589631.1	-57.88382	-1.876722E-010	0.0042276	5
