EXPLAIN
TAG	EISPOT
TITLE	LABEL	Potentiostatic EIS	Test &Identifier
DATE	LABEL	11/12/2019	Date
TIME	LABEL	21:45:27	Time
NOTES	NOTES	3	&Notes...
	
	
	
PSTAT	PSTAT	REF600-11020	Potentiostat
VDC	POTEN	0.00000E+000	T	DC &Voltage (V)
FREQINIT	QUANT	1.00000E+006	Initial Fre&q. (Hz)
FREQFINAL	QUANT	1.00000E+000	Final Fre&q. (Hz)
PTSPERDEC	QUANT	1.00000E+001	Points/&decade
VAC	QUANT	2.50000E+001	AC &Voltage (mV rms)
AREA	QUANT	1.00000E-002	&Area (cm^2)
CONDIT	TWOPARAM	T	5.00000E+000	0.00000E+000	Conditionin&g	Time(s)	E(V)
DELAY	TWOPARAM	T	5.00000E+000	0.00000E+000	Init. De&lay	Time(s)	Stab.(mV/s)
SPEED	SELECTOR	1	&Optimize for:
ZGUESS	QUANT	1.00000E+005	E&stimated Z (ohms)
OCVCURVE	TABLE	19
	Pt	T	Vf	Vm	Ach	Over
	#	s	V vs. Ref.	V	V	bits
	0	0.258333	3.32143E-003	3.32143E-003	5.62832E-004	...........
	1	0.516667	3.31831E-003	3.15825E-003	5.67432E-004	...........
	2	0.775	3.29985E-003	3.03950E-003	5.69332E-004	...........
	3	1.03333	3.25005E-003	2.93196E-003	5.61199E-004	...........
	4	1.29167	3.16610E-003	2.83985E-003	5.62199E-004	...........
	5	1.55	3.06228E-003	2.76089E-003	5.63666E-004	...........
	6	1.80833	2.95636E-003	2.68467E-003	5.65299E-004	...........
	7	2.06667	2.85881E-003	2.61466E-003	5.69499E-004	...........
	8	2.325	2.77255E-003	2.57811E-003	5.66266E-004	...........
	9	2.58333	2.69737E-003	2.50412E-003	5.70099E-004	...........
	10	2.84167	2.63240E-003	2.50065E-003	5.66966E-004	...........
	11	3.1	2.57668E-003	2.43010E-003	5.68166E-004	...........
	12	3.35833	2.52828E-003	2.38618E-003	5.71632E-004	...........
	13	3.61667	2.48325E-003	2.34721E-003	5.69732E-004	...........
	14	3.875	2.43830E-003	2.29735E-003	5.63999E-004	...........
	15	4.13333	2.39326E-003	2.26990E-003	5.64232E-004	...........
	16	4.39167	2.34991E-003	2.24513E-003	5.68766E-004	...........
	17	4.65	2.31054E-003	2.21748E-003	5.70532E-004	...........
	18	4.90833	2.27652E-003	2.19628E-003	5.66666E-004	...........
EOC	QUANT	0.0022765	Open Circuit (V)
PSTATMODEL	IQUANT	4	Pstat Model
PSTATSECTION	LABEL	REF600-11020	Pstat Section
PSTATSERIALNO	LABEL	11020	Pstat Serial Number
CTRLMODE	IQUANT	1	Control Mode
IESTAB	IQUANT	0	I/E Stability
CASPEED	IQUANT	1	Control Amp Speed
CONVENTION	IQUANT	1	Current Convention
ICHRANGE	IQUANT	2	Ich Range
ICHRANGEMODE	TOGGLE	F	Ich Auto Range
ICHOFFSETENABLE	TOGGLE	T	Ich Offset Enable
ICHOFFSET	QUANT	0	Ich Offset (V)
ICHFILTER	IQUANT	3	Ich Filter
VCHRANGE	IQUANT	2	Vch Range
VCHRANGEMODE	TOGGLE	F	Vch Auto Range
VCHOFFSETENABLE	TOGGLE	T	Vch Offset Enable
VCHOFFSET	QUANT	0	Vch Offset (V)
VCHFILTER	IQUANT	3	Vch Filter
ACHRANGE	IQUANT	2	Ach Range
ACHOFFSETENABLE	TOGGLE	F	Ach Offset Enable
ACHOFFSET	QUANT	0	Ach Offset (V)
ACHFILTER	IQUANT	3	Ach Filter
IERANGELOWERLIMIT	IQUANT	1	I/E Range Lower Limit
IERANGEMODE	TOGGLE	F	I/E AutoRange
IERANGE	IQUANT	4	I/E Range
POSFEEDENABLE	TOGGLE	F	Positive Feedback IR Comp
POSFEEDRESISTANCE	QUANT	0	Positive Feedback Resistance (ohm)
ACHSELECT	IQUANT	0	Ach Select
CABLEID	IQUANT	14	Cable ID
DCCALDATE	LABEL	8/19/2019	DC Calibration Date
ACCALDATE	LABEL	8/19/2019	AC Calibration Date
THERMOSELECT	IQUANT	1	Thermo Select
FRAMEWORKVERSION	QUANT	6.33	Framework Version
INSTRUMENTVERSION	LABEL	3.50	Instrument Version
ZCURVE	TABLE
	Pt	Time	Freq	Zreal	Zimag	Zsig	Zmod	Zphz	Idc	Vdc	IERange
	#	s	Hz	ohm	ohm	V	ohm	°	A	V	#
	0	1	1000078	1936.377	-1429.092	1	2406.628	-36.4282	-4.942903E-006	0.0055039	8
	1	3	794390.6	2215.122	-1407.083	1	2624.243	-32.4244	9.729916E-007	0.003758	8
	2	4	630984.4	2485.967	-1350.421	1	2829.075	-28.51159	-4.512907E-007	0.0036727	8
	3	5	501234.4	2723.744	-1258.244	1	3000.327	-24.79477	-1.210708E-006	0.0042786	8
	4	7	398109.4	2927.968	-1147.818	1	3144.914	-21.40611	-2.500462E-007	0.0042744	8
	5	8	316265.6	3102.337	-1039.886	1	3271.981	-18.53086	1.74702E-006	0.0040703	8
	6	10	251203.1	3235.432	-922.8546	1	3364.473	-15.91994	-4.143132E-006	0.0041379	8
	7	11	199546.9	3357.783	-823.3885	1	3457.265	-13.77808	-1.8462E-006	0.0039675	8
	8	12	158578.1	3456.174	-722.592	1	3530.903	-11.80889	-1.092679E-006	0.0041604	8
	9	14	125953.1	3547.712	-619.2122	1	3601.345	-9.90058	3.238439E-006	-0.000152	7
	10	15	100078.1	3602.064	-552.0324	1	3644.12	-8.713041	4.001912E-007	0.0023489	7
	11	17	79453.13	3639.914	-507.772	1	3675.161	-7.941573	-9.169507E-007	0.0042496	7
	12	18	63140.62	3687.778	-476.6847	1	3718.459	-7.365252	-6.527648E-007	0.0036622	7
	13	19	50203.12	3731.337	-457.1097	1	3759.232	-6.984255	-7.698495E-007	0.0052395	7
	14	21	39890.62	3776.982	-446.209	1	3803.248	-6.737639	4.041168E-007	0.0023354	7
	15	22	31640.63	3814.884	-446.0371	1	3840.871	-6.668758	-2.349844E-007	0.0049297	7
	16	23	25171.88	3854.694	-454.6604	1	3881.415	-6.726946	7.92366E-008	0.0025952	7
	17	25	20015.62	3893.427	-476.4963	1	3922.477	-6.977434	-5.212296E-007	0.0051319	7
	18	26	15890.62	3938.013	-507.9659	1	3970.64	-7.350019	6.603986E-007	0.0022321	7
	19	28	12609.37	3981.034	-552.9702	1	4019.255	-7.907852	8.393761E-007	0.0022954	7
	20	29	10078.13	4016.797	-606.8245	1	4062.376	-8.590811	-1.060908E-006	0.0050365	7
	21	30	8015.625	4058.455	-683.3369	1	4115.581	-9.55746	-1.067646E-006	0.0050431	7
	22	32	6328.125	4107.435	-782.889	1	4181.38	-10.7913	-9.261879E-007	0.004243	7
	23	33	5015.625	4157.547	-907.5807	1	4255.455	-12.31433	-1.06741E-006	0.0047327	7
	24	34	3984.375	4212.088	-1060.3	1	4343.492	-14.12938	7.446866E-007	0.0035281	7
	25	36	3170.956	4279.574	-1254.648	1	4459.696	-16.33962	4.054326E-007	0.002316	7
	26	37	2527.573	4350.888	-1488.863	1	4598.581	-18.89082	9.45053E-007	0.002472	7
	27	39	1976.103	4439.306	-1801.495	1	4790.911	-22.08759	8.967527E-007	0.0031043	7
	28	40	1577.524	4520.398	-2142.424	1	5002.397	-25.35842	8.515769E-008	0.0045737	7
	29	41	1265.625	4636.828	-2573.028	1	5302.89	-29.02638	-2.870071E-007	0.0030468	7
	30	43	998.264	4768.414	-3120.975	1	5698.97	-33.20515	-1.065094E-006	0.0050348	7
	31	44	796.875	4918.601	-3760.379	1	6191.372	-37.39871	-7.677742E-007	0.0052214	7
	32	46	627.7902	5103.378	-4588.443	1	6862.819	-41.95868	-1.070359E-006	0.0047258	7
	33	47	505.5147	5298.145	-5514.669	1	7647.347	-46.14718	-6.587524E-007	0.003643	7
	34	48	397.9953	5544.082	-6777.66	1	8756.341	-50.71706	5.367068E-009	0.0037804	7
	35	50	315.5048	5836.707	-8289.698	1	10138.36	-54.85094	1.064727E-009	0.0037229	6
	36	51	252.4038	6175.447	-10079.96	1	11821.25	-58.50646	5.943003E-010	0.0037117	6
	37	53	198.6229	6629.315	-12455.65	1	14109.96	-61.97659	1.146758E-009	0.0037144	6
	38	54	158.3615	7174.511	-15232.87	1	16837.87	-64.78008	8.174165E-010	0.0037136	6
	39	55	125.558	7898.287	-18723.34	1	20321.08	-67.12795	7.200008E-010	0.0037067	6
	40	57	100.4464	8805.14	-22822.64	1	24462.28	-68.90302	1.030807E-009	0.003713	6
	41	58	79.00281	10054.32	-28216.83	1	29954.62	-70.38783	7.374142E-010	0.0037096	6
	42	60	63.3446	11649.48	-34547.42	1	36458.67	-71.36576	1.533398E-009	0.0037057	6
	43	61	49.86702	13802.81	-42122.57	1	44326.38	-71.85695	-6.047533E-011	0.0037042	6
	44	62	39.72458	16651.15	-51459.79	1	54086.69	-72.06966	8.583886E-010	0.0037126	6
	45	64	31.6723	20209.19	-62361.24	1	65554.06	-72.04423	2.242125E-010	0.0037127	6
	46	65	24.93351	25385.83	-76335.84	1	80446.26	-71.60522	8.322575E-010	0.0037023	6
	47	67	19.86229	31785.35	-91912.67	1	97253.5	-70.92353	1.607683E-009	0.0037074	6
	48	68	15.83615	39954.31	-110240.8	1	117257.8	-70.07809	6.103871E-011	0.0037119	5
	49	69	12.40079	51722.33	-133902.8	1	143544.9	-68.88006	5.542047E-010	0.0037091	5
	50	71	9.93114	65996.13	-157393.3	1	170669.7	-67.25135	8.63278E-010	0.0037017	5
	51	72	7.944915	83894.5	-184718.9	1	202877.7	-65.57369	6.745883E-010	0.0037115	5
	52	74	6.317385	106039.7	-215379.7	1	240068.4	-63.7872	-1.155737E-010	0.0037136	5
	53	76	5.008013	134164.3	-249646.2	1	283413.7	-61.74562	-3.82805E-011	0.0037052	5
	54	79	3.945707	168059.1	-287175	1	332736.1	-59.6632	2.414687E-010	0.0037067	5
	55	81	3.158693	204519.5	-324577.3	1	383638.7	-57.78455	6.116639E-012	0.0036942	5
	56	85	2.504006	247475.8	-365679.4	1	441549.2	-55.91158	5.32639E-010	0.0037196	5
	57	88	1.998082	293588.4	-407934.3	1	502597.8	-54.25761	5.257552E-010	0.00369	5
	58	91	1.584686	346474.7	-455962.9	1	572666.5	-52.76972	8.949844E-011	0.0036739	5
	59	94	1.266892	402138.6	-500513.8	1	642050.9	-51.21981	4.032686E-010	0.0036684	5
	60	99	0.999041	460335.2	-565332.8	1	729047.1	-50.84501	-5.373425E-011	0.0037391	5
