EXPLAIN
TAG	EISPOT
TITLE	LABEL	Potentiostatic EIS	Test &Identifier
DATE	LABEL	10/18/2019	Date
TIME	LABEL	9:40:27	Time
NOTES	NOTES	1	&Notes...
	
PSTAT	PSTAT	REF600-11020	Potentiostat
VDC	POTEN	0.00000E+000	T	DC &Voltage (V)
FREQINIT	QUANT	1.00000E+006	Initial Fre&q. (Hz)
FREQFINAL	QUANT	1.00000E+000	Final Fre&q. (Hz)
PTSPERDEC	QUANT	1.00000E+001	Points/&decade
VAC	QUANT	2.50000E+001	AC &Voltage (mV rms)
AREA	QUANT	1.00000E-002	&Area (cm^2)
CONDIT	TWOPARAM	T	5.00000E+000	0.00000E+000	Conditionin&g	Time(s)	E(V)
DELAY	TWOPARAM	T	5.00000E+000	0.00000E+000	Init. De&lay	Time(s)	Stab.(mV/s)
SPEED	SELECTOR	0	&Optimize for:
ZGUESS	QUANT	1.00000E+005	E&stimated Z (ohms)
OCVCURVE	TABLE	19
	Pt	T	Vf	Vm	Ach	Over
	#	s	V vs. Ref.	V	V	bits
	0	0.258333	6.21774E-003	6.21774E-003	5.22066E-004	...........
	1	0.516667	6.23142E-003	6.93419E-003	5.21466E-004	...........
	2	0.775	6.30713E-003	7.17674E-003	5.26066E-004	...........
	3	1.03333	6.49129E-003	7.28991E-003	5.26000E-004	...........
	4	1.29167	6.76150E-003	7.62690E-003	5.26766E-004	...........
	5	1.55	7.04313E-003	7.40179E-003	5.29166E-004	...........
	6	1.80833	7.27338E-003	7.67784E-003	5.24933E-004	...........
	7	2.06667	7.42886E-003	7.56740E-003	5.30400E-004	...........
	8	2.325	7.51935E-003	7.51990E-003	5.26400E-004	...........
	9	2.58333	7.56129E-003	7.54597E-003	5.25066E-004	...........
	10	2.84167	7.56745E-003	7.51478E-003	5.33866E-004	...........
	11	3.1	7.55628E-003	7.58810E-003	5.29533E-004	...........
	12	3.35833	7.55078E-003	7.76024E-003	5.28400E-004	...........
	13	3.61667	7.57574E-003	7.98986E-003	5.26566E-004	...........
	14	3.875	7.65174E-003	8.11911E-003	5.26766E-004	...........
	15	4.13333	7.77717E-003	8.17584E-003	5.29499E-004	...........
	16	4.39167	7.92233E-003	8.21363E-003	5.26433E-004	...........
	17	4.65	8.05066E-003	8.24607E-003	5.31733E-004	...........
	18	4.90833	8.14362E-003	8.27705E-003	5.29200E-004	...........
EOC	QUANT	0.0081436	Open Circuit (V)
PSTATMODEL	IQUANT	4	Pstat Model
PSTATSECTION	LABEL	REF600-11020	Pstat Section
PSTATSERIALNO	LABEL	11020	Pstat Serial Number
CTRLMODE	IQUANT	1	Control Mode
IESTAB	IQUANT	0	I/E Stability
CASPEED	IQUANT	1	Control Amp Speed
CONVENTION	IQUANT	1	Current Convention
ICHRANGE	IQUANT	2	Ich Range
ICHRANGEMODE	TOGGLE	F	Ich Auto Range
ICHOFFSETENABLE	TOGGLE	T	Ich Offset Enable
ICHOFFSET	QUANT	0	Ich Offset (V)
ICHFILTER	IQUANT	3	Ich Filter
VCHRANGE	IQUANT	2	Vch Range
VCHRANGEMODE	TOGGLE	F	Vch Auto Range
VCHOFFSETENABLE	TOGGLE	T	Vch Offset Enable
VCHOFFSET	QUANT	0	Vch Offset (V)
VCHFILTER	IQUANT	3	Vch Filter
ACHRANGE	IQUANT	2	Ach Range
ACHOFFSETENABLE	TOGGLE	F	Ach Offset Enable
ACHOFFSET	QUANT	0	Ach Offset (V)
ACHFILTER	IQUANT	3	Ach Filter
IERANGELOWERLIMIT	IQUANT	1	I/E Range Lower Limit
IERANGEMODE	TOGGLE	F	I/E AutoRange
IERANGE	IQUANT	5	I/E Range
POSFEEDENABLE	TOGGLE	F	Positive Feedback IR Comp
POSFEEDRESISTANCE	QUANT	0	Positive Feedback Resistance (ohm)
ACHSELECT	IQUANT	0	Ach Select
CABLEID	IQUANT	14	Cable ID
DCCALDATE	LABEL	8/19/2019	DC Calibration Date
ACCALDATE	LABEL	8/19/2019	AC Calibration Date
THERMOSELECT	IQUANT	1	Thermo Select
FRAMEWORKVERSION	QUANT	6.33	Framework Version
INSTRUMENTVERSION	LABEL	3.50	Instrument Version
ZCURVE	TABLE
	Pt	Time	Freq	Zreal	Zimag	Zsig	Zmod	Zphz	Idc	Vdc	IERange
	#	s	Hz	ohm	ohm	V	ohm	°	A	V	#
	0	1	1000078	2444.471	-1487.746	1	2861.613	-31.3254	4.723918E-006	0.0096426	8
	1	1	794390.6	2722.934	-1459.448	1	3089.394	-28.19059	3.533821E-006	0.0092894	8
	2	2	630984.4	2983.726	-1393.151	1	3292.946	-25.02865	-1.113376E-006	0.0100671	8
	3	2	501234.4	3205.921	-1280.147	1	3452.058	-21.76718	-3.34673E-006	0.0107268	8
	4	2	398109.4	3421.802	-1169.638	1	3616.184	-18.87141	3.11593E-006	0.009317	8
	5	3	316265.6	3592.482	-1036.109	1	3738.911	-16.08811	-2.304034E-006	0.0102722	8
	6	3	251203.1	3753.26	-943.7263	1	3870.088	-14.11396	-1.26236E-006	0.0101307	8
	7	3	199546.9	3842.379	-799.4397	1	3924.663	-11.7532	-3.103125E-006	0.0105252	8
	8	4	158578.1	3945.979	-694.1837	1	4006.575	-9.97748	-3.808014E-007	0.0100232	8
	9	4	125953.1	4025.105	-541.8123	1	4061.407	-7.666401	6.917248E-007	0.0083837	7
	10	4	100078.1	4069.452	-480.3007	1	4097.698	-6.731245	-4.49632E-008	0.0098473	7
	11	4	79453.13	4108.107	-431.3843	1	4130.695	-5.994549	-9.756792E-009	0.0098549	7
	12	5	63140.62	4145.113	-395.756	1	4163.963	-5.453802	-1.580609E-008	0.0097774	7
	13	5	50203.12	4176.446	-368.7277	1	4192.692	-5.045415	6.385478E-008	0.0096981	7
	14	5	39890.62	4205.04	-351.6938	1	4219.721	-4.780879	-2.018009E-008	0.0099562	7
	15	6	31640.63	4232.673	-345.4802	1	4246.75	-4.666265	-4.87762E-008	0.0099065	7
	16	6	25171.88	4257.913	-348.8733	1	4272.182	-4.684082	-8.095642E-009	0.0098303	7
	17	6	20015.62	4277.157	-367.6023	1	4292.925	-4.912241	-7.97007E-008	0.0099333	7
	18	7	15890.62	4310.818	-382.5773	1	4327.762	-5.071609	-3.934679E-008	0.0098347	7
	19	7	12609.37	4336.528	-415.4758	1	4356.386	-5.472713	-3.639169E-008	0.0098415	7
	20	7	10078.13	4367.298	-462.8238	1	4391.754	-6.049333	-7.903971E-008	0.009934	7
	21	8	8015.625	4411.19	-501.5673	1	4439.613	-6.486866	-4.93966E-008	0.0098997	7
	22	8	6328.125	4432.619	-603.6992	1	4473.541	-7.755663	1.342597E-007	0.0095978	7
	23	8	5015.625	4469.063	-702.2797	1	4523.906	-8.930569	-7.025207E-009	0.0098476	7
	24	9	3984.375	4496.646	-830.0346	1	4572.612	-10.45849	-4.148926E-008	0.0098232	7
	25	9	3170.956	4551.963	-980.294	1	4656.323	-12.1534	6.596132E-008	0.0096902	7
	26	9	2527.573	4601.514	-1168.331	1	4747.518	-14.24644	6.68099E-008	0.0096904	7
	27	10	1976.103	4664.292	-1420.145	1	4875.698	-16.934	-1.348233E-008	0.0098473	7
	28	10	1577.524	4737.126	-1719.686	1	5039.611	-19.95206	-2.002226E-008	0.0097763	7
	29	10	1265.625	4803.147	-2048.138	1	5221.598	-23.09417	1.34605E-007	0.009592	7
	30	10	998.264	4895.771	-2501.459	1	5497.806	-27.06444	-1.921173E-008	0.0099473	7
	31	11	796.875	4997.238	-3033.084	1	5845.681	-31.25575	-5.479732E-008	0.00996	7
	32	11	627.7902	5128.89	-3727.552	1	6340.359	-36.00874	3.931183E-008	0.0096649	7
	33	11	505.5147	5264.345	-4501.421	1	6926.479	-40.533	-1.744414E-008	0.0097683	7
	34	12	397.9953	5454.96	-5558.438	1	7787.992	-45.53831	1.483047E-009	0.009816	7
	35	12	315.5048	5681.127	-6832.193	1	8885.61	-50.25569	3.276314E-009	0.0098134	7
	36	12	252.4038	5957.343	-8333.87	1	10244.19	-54.44148	-5.679796E-010	0.0097502	6
	37	13	198.6229	6328.587	-10328.46	1	12113.14	-58.50282	2.729806E-010	0.0097542	6
	38	13	158.3615	6783.48	-12648.43	1	14352.64	-61.7949	-8.517629E-010	0.0097523	6
	39	13	125.558	7390.433	-15572.28	1	17237.01	-64.6115	2.779404E-010	0.0097562	6
	40	14	100.4464	8121.28	-18994	1	20657.38	-66.84986	1.976704E-009	0.0097541	6
	41	14	79.00281	9175.37	-23441.84	1	25173.54	-68.62413	7.637325E-010	0.0097549	6
	42	14	63.3446	10823.86	-28795.13	1	30762.24	-69.39915	-7.681442E-010	0.0097516	6
	43	15	49.86702	12553.96	-35452.25	1	37609.36	-70.50049	-1.446982E-009	0.0097512	6
	44	15	39.72458	14752.88	-42817.81	1	45288.11	-70.9886	-1.548241E-010	0.0097535	6
	45	15	31.6723	17768.93	-51745.36	1	54711.21	-71.04795	7.486102E-010	0.0097482	6
	46	16	24.93351	22028.73	-63524.99	1	67236.07	-70.87486	-2.921467E-010	0.0097479	6
	47	16	19.86229	27406.48	-76467.99	1	81230.96	-70.28209	-2.053586E-010	0.0097545	6
	48	16	15.83615	34659.34	-92689.8	1	98957.9	-69.4978	-2.51585E-009	0.0097475	6
	49	17	12.40079	45433.52	-109776.3	1	118806.7	-67.51662	1.330306E-009	0.0097517	5
	50	17	9.93114	56270.52	-130510.4	1	142124.4	-66.67635	-1.082854E-009	0.0097557	5
	51	18	7.944915	70483.65	-153044.3	1	168494.9	-65.27185	-2.857816E-011	0.0097496	5
	52	18	6.317385	88394.34	-177450.5	1	198247.9	-63.52049	-3.374966E-010	0.0097579	5
	53	19	5.008013	110400.3	-205552.3	1	233323.7	-61.76015	-5.5349E-010	0.0097418	5
	54	20	3.945707	136880.9	-236000.4	1	272823.3	-59.88615	1.394654E-012	0.0097531	5
	55	21	3.158693	165655.4	-267665.1	1	314779.8	-58.24702	-2.42682E-010	0.0097672	5
	56	23	2.504006	198490.8	-303398.9	1	362559.7	-56.80634	-4.049643E-010	0.009756	5
	57	24	1.998082	233249.2	-340247.8	1	412521.3	-55.5683	-1.504971E-010	0.0097867	5
	58	26	1.584686	270838.3	-384381.4	1	470215.3	-54.83117	-1.406598E-010	0.0097935	5
	59	28	1.266892	308942.8	-431996.1	1	531099.1	-54.42947	-1.629812E-010	0.0097536	5
	60	30	0.999041	353219.1	-491073.8	1	604910.9	-54.27333	-1.668716E-010	0.0097254	5
