EXPLAIN
TAG	EISPOT
TITLE	LABEL	Potentiostatic EIS	Test &Identifier
DATE	LABEL	11/12/2019	Date
TIME	LABEL	21:12:26	Time
NOTES	NOTES	3	&Notes...
	
	
	
PSTAT	PSTAT	REF600-11020	Potentiostat
VDC	POTEN	0.00000E+000	T	DC &Voltage (V)
FREQINIT	QUANT	1.00000E+006	Initial Fre&q. (Hz)
FREQFINAL	QUANT	1.00000E+000	Final Fre&q. (Hz)
PTSPERDEC	QUANT	1.00000E+001	Points/&decade
VAC	QUANT	2.50000E+001	AC &Voltage (mV rms)
AREA	QUANT	1.00000E-002	&Area (cm^2)
CONDIT	TWOPARAM	T	5.00000E+000	0.00000E+000	Conditionin&g	Time(s)	E(V)
DELAY	TWOPARAM	T	5.00000E+000	0.00000E+000	Init. De&lay	Time(s)	Stab.(mV/s)
SPEED	SELECTOR	1	&Optimize for:
ZGUESS	QUANT	1.00000E+005	E&stimated Z (ohms)
OCVCURVE	TABLE	19
	Pt	T	Vf	Vm	Ach	Over
	#	s	V vs. Ref.	V	V	bits
	0	0.258333	4.40953E-003	4.40953E-003	5.50833E-004	...........
	1	0.516667	4.41900E-003	4.90521E-003	5.48599E-004	...........
	2	0.775	4.47364E-003	5.19168E-003	5.59199E-004	...........
	3	1.03333	4.63675E-003	6.52204E-003	5.50566E-004	...........
	4	1.29167	4.96302E-003	6.17772E-003	5.66532E-004	...........
	5	1.55	5.41101E-003	6.09753E-003	5.59266E-004	...........
	6	1.80833	5.82180E-003	6.12487E-003	5.52932E-004	...........
	7	2.06667	6.06579E-003	6.15760E-003	5.56466E-004	...........
	8	2.325	6.15409E-003	6.18816E-003	5.51399E-004	...........
	9	2.58333	6.17048E-003	6.23452E-003	5.48799E-004	...........
	10	2.84167	6.17743E-003	6.27667E-003	5.50166E-004	...........
	11	3.1	6.19769E-003	6.32483E-003	5.48433E-004	...........
	12	3.35833	6.23162E-003	6.36257E-003	5.55733E-004	...........
	13	3.61667	6.27265E-003	6.38485E-003	5.50933E-004	...........
	14	3.875	6.31412E-003	6.42491E-003	5.48533E-004	...........
	15	4.13333	6.35329E-003	6.50567E-003	5.44799E-004	...........
	16	4.39167	6.39404E-003	6.57973E-003	5.54633E-004	...........
	17	4.65	6.44710E-003	6.85252E-003	5.51566E-004	...........
	18	4.90833	6.53010E-003	7.06429E-003	5.50766E-004	...........
EOC	QUANT	0.0065301	Open Circuit (V)
PSTATMODEL	IQUANT	4	Pstat Model
PSTATSECTION	LABEL	REF600-11020	Pstat Section
PSTATSERIALNO	LABEL	11020	Pstat Serial Number
CTRLMODE	IQUANT	1	Control Mode
IESTAB	IQUANT	0	I/E Stability
CASPEED	IQUANT	1	Control Amp Speed
CONVENTION	IQUANT	1	Current Convention
ICHRANGE	IQUANT	2	Ich Range
ICHRANGEMODE	TOGGLE	F	Ich Auto Range
ICHOFFSETENABLE	TOGGLE	T	Ich Offset Enable
ICHOFFSET	QUANT	0	Ich Offset (V)
ICHFILTER	IQUANT	3	Ich Filter
VCHRANGE	IQUANT	2	Vch Range
VCHRANGEMODE	TOGGLE	F	Vch Auto Range
VCHOFFSETENABLE	TOGGLE	T	Vch Offset Enable
VCHOFFSET	QUANT	0	Vch Offset (V)
VCHFILTER	IQUANT	3	Vch Filter
ACHRANGE	IQUANT	2	Ach Range
ACHOFFSETENABLE	TOGGLE	F	Ach Offset Enable
ACHOFFSET	QUANT	0	Ach Offset (V)
ACHFILTER	IQUANT	3	Ach Filter
IERANGELOWERLIMIT	IQUANT	1	I/E Range Lower Limit
IERANGEMODE	TOGGLE	F	I/E AutoRange
IERANGE	IQUANT	5	I/E Range
POSFEEDENABLE	TOGGLE	F	Positive Feedback IR Comp
POSFEEDRESISTANCE	QUANT	0	Positive Feedback Resistance (ohm)
ACHSELECT	IQUANT	0	Ach Select
CABLEID	IQUANT	14	Cable ID
DCCALDATE	LABEL	8/19/2019	DC Calibration Date
ACCALDATE	LABEL	8/19/2019	AC Calibration Date
THERMOSELECT	IQUANT	1	Thermo Select
FRAMEWORKVERSION	QUANT	6.33	Framework Version
INSTRUMENTVERSION	LABEL	3.50	Instrument Version
ZCURVE	TABLE
	Pt	Time	Freq	Zreal	Zimag	Zsig	Zmod	Zphz	Idc	Vdc	IERange
	#	s	Hz	ohm	ohm	V	ohm	°	A	V	#
	0	2	1000078	1903.85	-892.168	1	2102.525	-25.10838	1.100127E-005	0.0078106	8
	1	3	794390.6	2045.704	-804.3142	1	2198.141	-21.46338	6.771265E-007	0.0084051	8
	2	4	630984.4	2160.291	-712.8513	1	2274.865	-18.26182	-9.363001E-007	0.0087378	8
	3	6	501234.4	2256.97	-625.2568	1	2341.978	-15.48453	6.711334E-008	0.0078889	8
	4	7	398109.4	2328.658	-543.6583	1	2391.279	-13.14113	-7.644091E-008	0.0078386	8
	5	9	316265.6	2383.391	-473.5405	1	2429.978	-11.23739	6.187076E-006	0.007412	8
	6	10	251203.1	2428.871	-422.4619	1	2465.338	-9.86694	1.465938E-006	0.008322	8
	7	11	199546.9	2465.51	-376.5394	1	2494.098	-8.683271	-2.368236E-007	0.0078501	8
	8	13	158578.1	2497.271	-345.7401	1	2521.091	-7.882329	-1.814665E-006	0.0082213	8
	9	14	125953.1	2532.869	-293.96	1	2549.87	-6.620023	-1.264587E-006	0.0106044	7
	10	15	100078.1	2556.42	-281.504	1	2571.872	-6.283893	-9.679403E-007	0.0089196	7
	11	17	79453.13	2581.846	-284.4524	1	2597.468	-6.287151	-9.700379E-007	0.0089143	7
	12	18	63140.62	2607.86	-295.0362	1	2624.497	-6.454624	-5.794221E-007	0.0079124	7
	13	19	50203.12	2636.431	-311.5372	1	2654.774	-6.739177	-2.452422E-007	0.00736	7
	14	21	39890.62	2666.191	-333.0332	1	2686.91	-7.119924	-9.756151E-007	0.0091992	7
	15	22	31640.63	2700.773	-363.1724	1	2725.081	-7.658611	-2.457671E-007	0.0073546	7
	16	24	25171.88	2737.746	-399.8368	1	2766.789	-8.309075	3.301286E-007	0.0084073	7
	17	25	20015.62	2776.922	-443.9243	1	2812.182	-9.082566	-8.388042E-007	0.0084485	7
	18	26	15890.62	2820.874	-498.5127	1	2864.584	-10.02199	-8.371602E-007	0.0084472	7
	19	28	12609.37	2869.457	-563.3193	1	2924.228	-11.10681	8.712102E-007	0.0071145	7
	20	29	10078.13	2917.498	-639.1107	1	2986.68	-12.3561	-4.824649E-007	0.0092834	7
	21	31	8015.625	2971.118	-731.3597	1	3059.809	-13.82879	-8.66708E-007	0.0093179	7
	22	32	6328.125	3032.034	-847.7587	1	3148.321	-15.62103	6.713548E-007	0.0078257	7
	23	33	5015.625	3094.54	-986.406	1	3247.949	-17.68003	-7.022886E-007	0.0093525	7
	24	35	3984.375	3162.395	-1156.021	1	3367.064	-20.08001	-8.665814E-007	0.0093121	7
	25	36	3170.956	3238.673	-1362.288	1	3513.521	-22.81315	5.009925E-007	0.0081475	7
	26	37	2527.573	3322.316	-1611.411	1	3692.483	-25.8746	6.71747E-007	0.0078135	7
	27	39	1976.103	3422.356	-1943.198	1	3935.548	-29.58771	-2.459046E-007	0.0073428	7
	28	40	1577.524	3530.816	-2317.354	1	4223.363	-33.27779	6.088447E-007	0.0066167	7
	29	42	1265.625	3643.704	-2760.573	1	4571.361	-37.14861	-7.050047E-007	0.0093474	7
	30	43	998.264	3784.64	-3349.506	1	5053.977	-41.50967	-8.679403E-007	0.0093172	7
	31	44	796.875	3939.495	-4043.401	1	5645.238	-45.74572	5.027568E-007	0.0081536	7
	32	46	627.7902	4133.595	-4939.672	1	6441.038	-50.07688	-9.776949E-007	0.0091868	7
	33	47	505.5147	4335.515	-5961.623	1	7371.407	-53.97395	8.144805E-007	0.0074204	7
	34	49	397.9953	4621.705	-7327.415	1	8663.208	-57.75867	3.120429E-009	0.0080375	7
	35	50	315.5048	4963.264	-8978.835	1	10259.31	-61.06734	6.814603E-009	0.0080362	7
	36	51	252.4038	5381.904	-10926.31	1	12179.87	-63.77681	7.945205E-010	0.0079726	6
	37	53	198.6229	5958.392	-13498.64	1	14755.19	-66.18301	5.832104E-010	0.0079703	6
	38	54	158.3615	6666.813	-16479.02	1	17776.51	-67.97353	3.798541E-010	0.007969	6
	39	56	125.558	7618.606	-20206.28	1	21594.84	-69.34148	4.939215E-010	0.0079706	6
	40	57	100.4464	8804.404	-24553.53	1	26084.35	-70.27318	5.474815E-010	0.0079747	6
	41	58	79.00281	10538.99	-30176.99	1	31964.38	-70.7488	5.665572E-010	0.0079696	6
	42	60	63.3446	12678.89	-36742.96	1	38869	-70.96199	4.785767E-010	0.007964	6
	43	61	49.86702	15459.3	-44617.68	1	47219.98	-70.88963	2.786287E-010	0.0079587	6
	44	63	39.72458	19409.88	-53812.81	1	57206.32	-70.166	1.221523E-009	0.0079672	6
	45	64	31.6723	24423.03	-64369.97	1	68847.49	-69.22243	-1.153394E-010	0.0079711	6
	46	65	24.93351	31164.87	-77501.96	1	83533.24	-68.09409	3.492576E-010	0.0079693	6
	47	67	19.86229	39394.1	-91814.39	1	99908.8	-66.77765	-2.57476E-010	0.007969	6
	48	68	15.83615	49669.75	-108411	1	119247.8	-65.38457	-5.145681E-010	0.0079722	5
	49	70	12.40079	63109.22	-126587.5	1	141446.7	-63.50181	6.691034E-010	0.007977	5
	50	71	9.93114	78471.69	-145705.1	1	165492.6	-61.69465	7.201986E-010	0.0079716	5
	51	73	7.944915	96085.5	-166292.1	1	192055.9	-59.98018	-7.126762E-011	0.0079702	5
	52	74	6.317385	116096.7	-189472.9	1	222212.5	-58.50274	3.999532E-010	0.0079663	5
	53	77	5.008013	139131.2	-214983.7	1	256077.1	-57.09023	3.919577E-010	0.0079812	5
	54	79	3.945707	165358.5	-244265.2	1	294972.8	-55.90346	3.853812E-011	0.0079807	5
	55	82	3.158693	191764.3	-274940.2	1	335209.8	-55.10514	8.259824E-011	0.0079851	5
	56	85	2.504006	221719.4	-312225.3	1	382941.4	-54.62044	2.313313E-010	0.0079605	5
	57	88	1.998082	253485.4	-354181.6	1	435545	-54.40895	-8.385588E-011	0.0080091	5
	58	91	1.584686	288813.6	-404188.6	1	496771.3	-54.45224	1.556383E-010	0.0079381	5
	59	95	1.266892	328676.2	-463466.9	1	568181	-54.65693	8.629863E-011	0.0080008	5
	60	99	0.999041	380115.5	-537761.9	1	658540.5	-54.74553	-1.246809E-010	0.0079338	5
