EXPLAIN
TAG	EISPOT
TITLE	LABEL	Potentiostatic EIS	Test &Identifier
DATE	LABEL	11/13/2019	Date
TIME	LABEL	8:11:23	Time
NOTES	NOTES	4	&Notes...
	
	
	
	
PSTAT	PSTAT	REF600-11020	Potentiostat
VDC	POTEN	0.00000E+000	T	DC &Voltage (V)
FREQINIT	QUANT	1.00000E+006	Initial Fre&q. (Hz)
FREQFINAL	QUANT	1.00000E+000	Final Fre&q. (Hz)
PTSPERDEC	QUANT	1.00000E+001	Points/&decade
VAC	QUANT	2.50000E+001	AC &Voltage (mV rms)
AREA	QUANT	1.00000E-002	&Area (cm^2)
CONDIT	TWOPARAM	T	5.00000E+000	0.00000E+000	Conditionin&g	Time(s)	E(V)
DELAY	TWOPARAM	T	5.00000E+000	0.00000E+000	Init. De&lay	Time(s)	Stab.(mV/s)
SPEED	SELECTOR	0	&Optimize for:
ZGUESS	QUANT	1.00000E+005	E&stimated Z (ohms)
OCVCURVE	TABLE	19
	Pt	T	Vf	Vm	Ach	Over
	#	s	V vs. Ref.	V	V	bits
	0	0.258333	3.19352E-003	3.19352E-003	5.39099E-004	...........
	1	0.516667	3.18925E-003	2.97002E-003	5.43199E-004	...........
	2	0.775	3.16347E-003	2.78089E-003	5.41333E-004	...........
	3	1.03333	3.09222E-003	2.61247E-003	5.36766E-004	...........
	4	1.29167	2.96892E-003	2.46601E-003	5.46966E-004	...........
	5	1.55	2.81217E-003	2.33092E-003	5.46833E-004	...........
	6	1.80833	2.64783E-003	2.20933E-003	5.44966E-004	...........
	7	2.06667	2.49271E-003	2.09932E-003	5.41233E-004	...........
	8	2.325	2.35273E-003	2.00323E-003	5.44833E-004	...........
	9	2.58333	2.22778E-003	1.90482E-003	5.42233E-004	...........
	10	2.84167	2.11537E-003	1.81491E-003	5.43199E-004	...........
	11	3.1	2.01237E-003	1.73038E-003	5.44233E-004	...........
	12	3.35833	1.91629E-003	1.65186E-003	5.37099E-004	...........
	13	3.61667	1.82587E-003	1.57141E-003	5.38699E-004	...........
	14	3.875	1.74038E-003	1.50145E-003	5.39933E-004	...........
	15	4.13333	1.65913E-003	1.42614E-003	5.41599E-004	...........
	16	4.39167	1.58158E-003	1.36413E-003	5.40466E-004	...........
	17	4.65	1.50741E-003	1.29303E-003	5.39099E-004	...........
	18	4.90833	1.43638E-003	1.23503E-003	5.33633E-004	...........
EOC	QUANT	0.0014364	Open Circuit (V)
PSTATMODEL	IQUANT	4	Pstat Model
PSTATSECTION	LABEL	REF600-11020	Pstat Section
PSTATSERIALNO	LABEL	11020	Pstat Serial Number
CTRLMODE	IQUANT	1	Control Mode
IESTAB	IQUANT	0	I/E Stability
CASPEED	IQUANT	1	Control Amp Speed
CONVENTION	IQUANT	1	Current Convention
ICHRANGE	IQUANT	2	Ich Range
ICHRANGEMODE	TOGGLE	F	Ich Auto Range
ICHOFFSETENABLE	TOGGLE	T	Ich Offset Enable
ICHOFFSET	QUANT	0	Ich Offset (V)
ICHFILTER	IQUANT	3	Ich Filter
VCHRANGE	IQUANT	2	Vch Range
VCHRANGEMODE	TOGGLE	F	Vch Auto Range
VCHOFFSETENABLE	TOGGLE	T	Vch Offset Enable
VCHOFFSET	QUANT	0	Vch Offset (V)
VCHFILTER	IQUANT	3	Vch Filter
ACHRANGE	IQUANT	2	Ach Range
ACHOFFSETENABLE	TOGGLE	F	Ach Offset Enable
ACHOFFSET	QUANT	0	Ach Offset (V)
ACHFILTER	IQUANT	3	Ach Filter
IERANGELOWERLIMIT	IQUANT	1	I/E Range Lower Limit
IERANGEMODE	TOGGLE	F	I/E AutoRange
IERANGE	IQUANT	4	I/E Range
POSFEEDENABLE	TOGGLE	F	Positive Feedback IR Comp
POSFEEDRESISTANCE	QUANT	0	Positive Feedback Resistance (ohm)
ACHSELECT	IQUANT	0	Ach Select
CABLEID	IQUANT	14	Cable ID
DCCALDATE	LABEL	8/19/2019	DC Calibration Date
ACCALDATE	LABEL	8/19/2019	AC Calibration Date
THERMOSELECT	IQUANT	1	Thermo Select
FRAMEWORKVERSION	QUANT	6.33	Framework Version
INSTRUMENTVERSION	LABEL	3.50	Instrument Version
ZCURVE	TABLE
	Pt	Time	Freq	Zreal	Zimag	Zsig	Zmod	Zphz	Idc	Vdc	IERange
	#	s	Hz	ohm	ohm	V	ohm	°	A	V	#
	0	1	1000078	2316.605	-1819.316	1	2945.602	-38.14385	8.250504E-007	0.0033751	8
	1	1	794390.6	2688.515	-1780.767	1	3224.786	-33.51893	-5.702051E-006	0.0038239	8
	2	2	630984.4	3044.734	-1687.695	1	3481.195	-28.99959	-4.925913E-006	0.0041486	8
	3	2	501234.4	3327.032	-1551.023	1	3670.806	-24.99438	2.494685E-006	0.002754	8
	4	2	398109.4	3606.997	-1395.79	1	3867.642	-21.1548	-6.058935E-007	0.0035401	8
	5	3	316265.6	3783.42	-1223.416	1	3976.307	-17.91926	-7.097375E-007	0.0034686	8
	6	3	251203.1	3937.989	-1076.455	1	4082.464	-15.2884	4.574478E-008	0.0028023	8
	7	3	199546.9	4056.667	-932.5411	1	4162.473	-12.94616	5.136047E-006	0.0024522	8
	8	4	158578.1	4153.68	-806.6669	1	4231.284	-10.99034	5.020329E-006	0.0024546	8
	9	4	125953.1	4232.093	-672.4003	1	4285.176	-9.027768	-1.632947E-006	0.0061482	7
	10	4	100078.1	4284.841	-599.1066	1	4326.522	-7.959496	5.526198E-007	0.0032516	7
	11	5	79453.13	4337.059	-550.5864	1	4371.868	-7.234955	-8.293341E-007	0.0045868	7
	12	5	63140.62	4382.318	-519.5684	1	4413.011	-6.761435	-6.673401E-007	0.00289	7
	13	5	50203.12	4426.037	-501.4278	1	4454.35	-6.463507	1.119738E-007	0.0017774	7
	14	6	39890.62	4468.783	-495.6584	1	4496.187	-6.329134	1.008019E-006	0.0020092	7
	15	6	31640.63	4509.645	-500.4334	1	4537.326	-6.332182	-5.789609E-007	0.0045067	7
	16	6	25171.88	4555.254	-518.9052	1	4584.714	-6.498753	5.850094E-008	0.0039274	7
	17	6	20015.62	4595.762	-558.8265	1	4629.613	-6.932904	5.545248E-007	0.0032395	7
	18	7	15890.62	4652.621	-593.5157	1	4690.325	-7.269723	-8.29131E-007	0.0045796	7
	19	7	12609.37	4711.003	-649.9276	1	4755.624	-7.854913	1.008307E-006	0.0019982	7
	20	7	10078.13	4766.314	-715.3994	1	4819.704	-8.536082	3.498187E-007	0.0035367	7
	21	8	8015.625	4831.94	-801.8019	1	4898.013	-9.42169	1.136241E-007	0.0017704	7
	22	8	6328.125	4901.667	-907.759	1	4985.014	-10.49196	-5.773967E-007	0.0045036	7
	23	8	5015.625	4977.164	-1036.869	1	5084.02	-11.76785	9.28182E-007	0.002384	7
	24	9	3984.375	5050.347	-1190.405	1	5188.744	-13.26296	-5.781546E-007	0.0044995	7
	25	9	3170.956	5143.341	-1382.77	1	5325.975	-15.04797	1.005991E-006	0.0020034	7
	26	9	2527.573	5234.602	-1611.759	1	5477.118	-17.11385	9.027019E-007	0.001494	7
	27	10	1976.103	5346.931	-1916.109	1	5679.89	-19.71548	5.705854E-008	0.0039187	7
	28	10	1577.524	5455.621	-2286.022	1	5915.209	-22.73473	-6.644569E-007	0.0028815	7
	29	10	1265.625	5577.733	-2674.311	1	6185.713	-25.61594	1.142413E-007	0.0017747	7
	30	11	998.264	5724.914	-3218.551	1	6567.625	-29.34473	4.482961E-007	0.0015057	7
	31	11	796.875	5885.221	-3849.161	1	7032.202	-33.18623	-1.118513E-006	0.0043515	7
	32	11	627.7902	6074.021	-4674.714	1	7664.638	-37.58275	-1.115568E-006	0.0043463	7
	33	12	505.5147	6278.054	-5609.347	1	8418.951	-41.78031	4.460846E-007	0.0015068	7
	34	12	397.9953	6539.608	-6858.357	1	9476.473	-46.36286	1.768482E-009	0.0030545	7
	35	12	315.5048	6847.113	-8371.971	1	10815.4	-50.72158	5.460754E-011	0.0029922	6
	36	13	252.4038	7205.352	-10165.32	1	12459.97	-54.67033	-6.269385E-010	0.0029947	6
	37	13	198.6229	7685.915	-12541.7	1	14709.44	-58.49884	6.787268E-010	0.0029922	6
	38	13	158.3615	8262.119	-15314	1	17400.61	-61.65251	3.328892E-009	0.0029945	6
	39	14	125.558	9030.685	-18796.95	1	20853.74	-64.33881	1.593544E-009	0.0029887	6
	40	14	100.4464	9976.66	-22903.35	1	24981.94	-66.46214	1.430187E-009	0.0029993	6
	41	14	79.00281	11296.35	-28269.25	1	30442.7	-68.21842	1.951631E-009	0.0029931	6
	42	15	63.3446	13220.19	-34261.69	1	36723.79	-68.90043	1.222734E-009	0.0029897	6
	43	15	49.86702	15568.81	-42244.6	1	45022.15	-69.76915	-3.234868E-011	0.0029803	6
	44	15	39.72458	18374.12	-51247.23	1	54441.59	-70.27527	3.376217E-010	0.0029827	6
	45	16	31.6723	22291.94	-62098.55	1	65978.48	-70.25304	6.372114E-010	0.002983	6
	46	16	24.93351	27987.38	-75606.12	1	80619.96	-69.68679	-6.695127E-011	0.0029835	6
	47	16	19.86229	35128.82	-90687.75	1	97253.8	-68.82562	5.146982E-011	0.0029851	6
	48	17	15.83615	43672.35	-108674.2	1	117121.2	-68.10654	9.677907E-010	0.0029786	5
	49	17	12.40079	56593.27	-130118.6	1	141893	-66.49403	-3.953097E-010	0.0029946	5
	50	17	9.93114	71784.99	-150750.3	1	166969.3	-64.53693	7.75905E-010	0.0029858	5
	51	18	7.944915	90015.51	-174742.2	1	196564.5	-62.7455	6.503689E-010	0.002992	5
	52	19	6.317385	111594.4	-201064.6	1	229957.1	-60.96895	6.09771E-010	0.0029857	5
	53	19	5.008013	137730	-230171.9	1	268232.4	-59.10459	5.54465E-010	0.0029962	5
	54	20	3.945707	167945.3	-261417.6	1	310716.5	-57.28167	6.066845E-011	0.0029864	5
	55	22	3.158693	199283.9	-292959.3	1	354315.1	-55.77472	4.874814E-012	0.0029741	5
	56	23	2.504006	234685.2	-329105.4	1	404212.2	-54.50732	3.12237E-010	0.0029802	5
	57	25	1.998082	269792.3	-367927.8	1	456244.2	-53.74833	1.513621E-010	0.0029777	5
	58	26	1.584686	309940	-414458	1	517530.9	-53.21013	-3.256369E-012	0.0029357	5
	59	28	1.266892	349646.9	-468688.4	1	584740.8	-53.27664	7.059357E-012	0.0029452	5
	60	31	0.999041	395922	-535941.4	1	666323.8	-53.54519	-3.788576E-011	0.0029701	5
