EXPLAIN
TAG	EISPOT
TITLE	LABEL	Potentiostatic IDE	Test &Identifier
DATE	LABEL	9/4/2019	Date
TIME	LABEL	12:37:18	Time
NOTES	NOTES	1	&Notes...
	
PSTAT	PSTAT	REF600-11020	Potentiostat
VDC	POTEN	0.00000E+000	T	DC &Voltage (V)
FREQINIT	QUANT	1.00000E+006	Initial Fre&q. (Hz)
FREQFINAL	QUANT	1.00000E+000	Final Fre&q. (Hz)
PTSPERDEC	QUANT	1.00000E+001	Points/&decade
VAC	QUANT	2.50000E+001	AC &Voltage (mV rms)
AREA	QUANT	1.00000E-002	&Area (cm^2)
CONDIT	TWOPARAM	T	5.00000E+000	0.00000E+000	Conditionin&g	Time(s)	E(V)
DELAY	TWOPARAM	T	5.00000E+000	0.00000E+000	Init. De&lay	Time(s)	Stab.(mV/s)
SPEED	SELECTOR	1	&Optimize for:
ZGUESS	QUANT	1.00000E+007	E&stimated Z (ohms)
OCVCURVE	TABLE	19
	Pt	T	Vf	Vm	Ach	Over
	#	s	V vs. Ref.	V	V	bits
	0	0.258333	5.97145E-002	5.97145E-002	5.94299E-004	...........
	1	0.516667	5.97226E-002	6.01406E-002	5.89865E-004	...........
	2	0.775	5.97741E-002	6.06215E-002	5.88299E-004	...........
	3	1.03333	5.99241E-002	6.10612E-002	5.91699E-004	...........
	4	1.29167	6.02015E-002	6.15491E-002	5.90899E-004	...........
	5	1.55	6.05849E-002	6.20300E-002	5.90299E-004	...........
	6	1.80833	6.10307E-002	6.24952E-002	5.90699E-004	...........
	7	2.06667	6.15027E-002	6.29528E-002	5.91365E-004	...........
	8	2.325	6.19787E-002	6.33810E-002	5.93765E-004	...........
	9	2.58333	6.24464E-002	6.38007E-002	5.89465E-004	...........
	10	2.84167	6.28996E-002	6.41966E-002	5.92265E-004	...........
	11	3.1	6.33356E-002	6.45838E-002	5.94199E-004	...........
	12	3.35833	6.37540E-002	6.49478E-002	5.92465E-004	...........
	13	3.61667	6.41556E-002	6.53116E-002	5.92665E-004	...........
	14	3.875	6.45413E-002	6.56449E-002	5.94732E-004	...........
	15	4.13333	6.49122E-002	6.59711E-002	5.88465E-004	...........
	16	4.39167	6.52681E-002	6.62801E-002	5.92865E-004	...........
	17	4.65	6.56090E-002	6.65832E-002	5.88732E-004	...........
	18	4.90833	6.59357E-002	6.68777E-002	5.89332E-004	...........
EOC	QUANT	0.0659357	Open Circuit (V)
PSTATMODEL	IQUANT	4	Pstat Model
PSTATSECTION	LABEL	REF600-11020	Pstat Section
PSTATSERIALNO	LABEL	11020	Pstat Serial Number
CTRLMODE	IQUANT	1	Control Mode
IESTAB	IQUANT	0	I/E Stability
CASPEED	IQUANT	1	Control Amp Speed
CONVENTION	IQUANT	1	Current Convention
ICHRANGE	IQUANT	2	Ich Range
ICHRANGEMODE	TOGGLE	F	Ich Auto Range
ICHOFFSETENABLE	TOGGLE	T	Ich Offset Enable
ICHOFFSET	QUANT	0	Ich Offset (V)
ICHFILTER	IQUANT	3	Ich Filter
VCHRANGE	IQUANT	2	Vch Range
VCHRANGEMODE	TOGGLE	F	Vch Auto Range
VCHOFFSETENABLE	TOGGLE	T	Vch Offset Enable
VCHOFFSET	QUANT	0	Vch Offset (V)
VCHFILTER	IQUANT	3	Vch Filter
ACHRANGE	IQUANT	2	Ach Range
ACHOFFSETENABLE	TOGGLE	F	Ach Offset Enable
ACHOFFSET	QUANT	0	Ach Offset (V)
ACHFILTER	IQUANT	3	Ach Filter
IERANGELOWERLIMIT	IQUANT	1	I/E Range Lower Limit
IERANGEMODE	TOGGLE	F	I/E AutoRange
IERANGE	IQUANT	4	I/E Range
POSFEEDENABLE	TOGGLE	F	Positive Feedback IR Comp
POSFEEDRESISTANCE	QUANT	0	Positive Feedback Resistance (ohm)
ACHSELECT	IQUANT	0	Ach Select
CABLEID	IQUANT	14	Cable ID
DCCALDATE	LABEL	8/19/2019	DC Calibration Date
ACCALDATE	LABEL	8/19/2019	AC Calibration Date
THERMOSELECT	IQUANT	1	Thermo Select
FRAMEWORKVERSION	QUANT	6.33	Framework Version
INSTRUMENTVERSION	LABEL	3.50	Instrument Version
ZCURVE	TABLE
	Pt	Time	Freq	Zreal	Zimag	Zsig	Zmod	Zphz	Idc	Vdc	IERange
	#	s	Hz	ohm	ohm	V	ohm	°	A	V	#
	0	2	1000078	2357.134	-2058.482	1	3129.445	-41.13068	1.335569E-005	0.0669003	8
	1	3	794390.6	2764.072	-2005.616	1	3415.053	-35.96471	1.064813E-005	0.0668211	8
	2	5	630984.4	3135.475	-1866.507	1	3648.979	-30.76479	7.86681E-006	0.067475	8
	3	6	501234.4	3460.073	-1724.87	1	3866.172	-26.49657	8.650451E-006	0.0669772	8
	4	8	398109.4	3723.083	-1541.643	1	4029.641	-22.49333	1.049892E-005	0.0668795	8
	5	10	316265.6	3928.589	-1387.882	1	4166.537	-19.45716	8.718031E-006	0.0672552	8
	6	11	251203.1	4072.11	-1232.662	1	4254.589	-16.8415	1.149505E-005	0.0667191	8
	7	13	199546.9	4202.382	-1117.528	1	4348.435	-14.89186	1.014572E-005	0.0670326	8
	8	14	158578.1	4350.378	-1044.355	1	4473.977	-13.49902	1.07648E-005	0.0669758	8
	9	16	125953.1	4387.592	-964.207	1	4492.289	-12.39418	4.974768E-007	0.0673806	7
	10	17	100078.1	4455.858	-916.9109	1	4549.22	-11.62782	8.827992E-007	0.0672605	7
	11	19	79453.13	4530.742	-911.3714	1	4621.495	-11.37343	9.10167E-007	0.067207	7
	12	20	63140.62	4601.289	-935.1946	1	4695.364	-11.48866	8.625699E-007	0.0672864	7
	13	21	50203.12	4674.404	-987.483	1	4777.57	-11.92853	8.696818E-007	0.0673359	7
	14	23	39890.62	4753.42	-1061.907	1	4870.59	-12.59302	8.399855E-007	0.0673464	7
	15	24	31640.63	4842.896	-1170.966	1	4982.45	-13.5927	8.594648E-007	0.0673221	7
	16	25	25171.88	4938.634	-1311.273	1	5109.75	-14.86971	9.383864E-007	0.0671808	7
	17	27	20015.62	5044.556	-1486.93	1	5259.136	-16.42337	9.39746E-007	0.0671872	7
	18	28	15890.62	5177.289	-1705.149	1	5450.858	-18.22939	9.365174E-007	0.0671934	7
	19	29	12609.37	5316.367	-1965.263	1	5667.981	-20.28748	9.224093E-007	0.0671579	7
	20	31	10078.13	5485.211	-2268.089	1	5935.636	-22.46469	8.640466E-007	0.0672731	7
	21	32	8015.625	5676.309	-2641.303	1	6260.748	-24.95353	8.444208E-007	0.0673328	7
	22	33	6328.125	5901.271	-3096.835	1	6664.487	-27.68933	9.229145E-007	0.0671569	7
	23	35	5015.625	6169.565	-3634.988	1	7160.773	-30.50577	8.423327E-007	0.0673387	7
	24	36	3984.375	6470.257	-4260.165	1	7746.82	-33.36182	8.509141E-007	0.0672923	7
	25	37	3170.956	6830.383	-5008.206	1	8469.726	-36.24979	8.853457E-007	0.0673073	7
	26	39	2527.573	7231.916	-5882.968	1	9322.549	-39.12742	8.544338E-007	0.067293	7
	27	40	1976.103	7752.037	-7011.689	1	10452.65	-42.12923	8.620697E-007	0.0673634	7
	28	41	1577.524	8307.346	-8242.053	1	11702.28	-44.77395	8.527857E-007	0.0672876	7
	29	43	1265.625	8957.413	-9633.04	1	13154.12	-47.08138	8.63504E-008	0.0672694	6
	30	44	998.264	9783.04	-11459.96	1	15067.8	-49.51356	8.491688E-008	0.0672626	6
	31	45	796.875	10694.76	-13506.98	1	17228.36	-51.62798	8.4535E-008	0.0672603	6
	32	47	627.7902	11866.99	-16059.92	1	19968.64	-53.53857	8.834198E-008	0.0670865	6
	33	48	505.5147	13068.77	-18835.05	1	22924.92	-55.24501	8.175138E-008	0.0673327	6
	34	49	397.9953	14707.09	-22375.99	1	26776.55	-56.68424	8.790345E-008	0.0668522	6
	35	51	315.5048	16563.8	-26510.76	1	31259.88	-58.00305	8.769999E-008	0.066847	6
	36	52	252.4038	18681.28	-31203.63	1	36368.34	-59.09149	8.795053E-008	0.0668481	6
	37	53	198.6229	21372.72	-37183.32	1	42888.14	-60.11	8.77044E-008	0.0668496	6
	38	55	158.3615	24423.34	-43865.04	1	50205.99	-60.89165	8.746991E-008	0.0668519	6
	39	56	125.558	28075.67	-51967.65	1	59066.74	-61.61974	8.754212E-008	0.0668506	6
	40	57	100.4464	32332.67	-61139	1	69161.98	-62.12838	8.723867E-008	0.0668435	6
	41	59	79.00281	37760.26	-72867.49	1	82070.14	-62.60661	8.797593E-008	0.0668433	6
	42	60	63.3446	43330.82	-84381.45	1	94856.67	-62.81899	8.750818E-008	0.0668405	6
	43	61	49.86702	51226.56	-102147.1	1	114272.4	-63.36633	8.771582E-008	0.0668421	6
	44	63	39.72458	58964.87	-119403.9	1	133169.6	-63.71859	8.790151E-009	0.0668534	5
	45	64	31.6723	68640.74	-140524.2	1	156392.4	-63.96624	8.837556E-009	0.0668466	5
	46	66	24.93351	80321.55	-167544.7	1	185803.1	-64.38677	8.860096E-009	0.0668482	5
	47	67	19.86229	93208.66	-197766.9	1	218631.2	-64.76523	9.141373E-009	0.0668575	5
	48	68	15.83615	110862	-233526.3	1	258505.2	-64.6049	8.267982E-009	0.0668511	5
	49	70	12.40079	130124.4	-280372.2	1	309096.9	-65.10337	9.41917E-009	0.0668537	5
	50	71	9.93114	148509.1	-329446	1	361371.8	-65.7349	8.828199E-009	0.0668579	5
	51	73	7.944915	172803.9	-389005.3	1	425659.9	-66.04826	8.70206E-009	0.0668527	5
	52	74	6.317385	202921.1	-463486.9	1	505961.5	-66.35552	8.835197E-009	0.0668569	5
	53	76	5.008013	239666.8	-552722.2	1	602446.7	-66.55788	8.904331E-009	0.066847	5
	54	79	3.945707	285178.6	-664183.1	1	722818.1	-66.76289	8.754746E-008	0.0668532	6
	55	82	3.158693	338753.4	-785552.9	1	855480.7	-66.67288	8.851728E-009	0.0668457	5
	56	85	2.504006	405728	-936728.4	1	1020821	-66.58097	8.795205E-009	0.0671415	5
	57	88	1.998082	485299.9	-1111109	1	1212468	-66.4057	8.87234E-009	0.0671598	5
	58	91	1.584686	593167.4	-1317714	1	1445067	-65.76516	8.964977E-010	0.0671019	4
	59	95	1.266892	718068.7	-1557099	1	1714696	-65.24284	9.656204E-010	0.0671694	4
	60	99	0.999041	887295.3	-1846270	1	2048416	-64.33162	8.795187E-010	0.0670941	4
