EXPLAIN
TAG	EISPOT
TITLE	LABEL	Potentiostatic EIS	Test &Identifier
DATE	LABEL	11/20/2019	Date
TIME	LABEL	11:36:04	Time
NOTES	NOTES	4	&Notes...
	
	
	
	
PSTAT	PSTAT	REF600-11020	Potentiostat
VDC	POTEN	0.00000E+000	T	DC &Voltage (V)
FREQINIT	QUANT	1.00000E+006	Initial Fre&q. (Hz)
FREQFINAL	QUANT	1.00000E+000	Final Fre&q. (Hz)
PTSPERDEC	QUANT	1.00000E+001	Points/&decade
VAC	QUANT	2.50000E+001	AC &Voltage (mV rms)
AREA	QUANT	1.00000E-002	&Area (cm^2)
CONDIT	TWOPARAM	T	5.00000E+000	0.00000E+000	Conditionin&g	Time(s)	E(V)
DELAY	TWOPARAM	T	5.00000E+000	0.00000E+000	Init. De&lay	Time(s)	Stab.(mV/s)
SPEED	SELECTOR	1	&Optimize for:
ZGUESS	QUANT	1.00000E+005	E&stimated Z (ohms)
OCVCURVE	TABLE	19
	Pt	T	Vf	Vm	Ach	Over
	#	s	V vs. Ref.	V	V	bits
	0	0.258333	-9.26380E-003	-9.26380E-003	5.30433E-004	...........
	1	0.516667	-9.29363E-003	-1.08253E-002	5.34600E-004	...........
	2	0.775	-9.47191E-003	-1.20489E-002	5.36033E-004	...........
	3	1.03333	-9.95575E-003	-1.30032E-002	5.37133E-004	...........
	4	1.29167	-1.07734E-002	-1.40160E-002	5.38166E-004	...........
	5	1.55	-1.17934E-002	-1.50667E-002	5.34266E-004	...........
	6	1.80833	-1.28733E-002	-1.62927E-002	5.39566E-004	...........
	7	2.06667	-1.39614E-002	-1.74792E-002	5.41866E-004	...........
	8	2.325	-1.50669E-002	-1.85181E-002	5.36933E-004	...........
	9	2.58333	-1.61876E-002	-1.93215E-002	5.37333E-004	...........
	10	2.84167	-1.72804E-002	-2.01029E-002	5.41333E-004	...........
	11	3.1	-1.82935E-002	-2.09680E-002	5.37399E-004	...........
	12	3.35833	-1.92124E-002	-2.16702E-002	5.37666E-004	...........
	13	3.61667	-2.00535E-002	-2.22173E-002	5.35233E-004	...........
	14	3.875	-2.08276E-002	-2.28753E-002	5.36133E-004	...........
	15	4.13333	-2.15390E-002	-2.36173E-002	5.40933E-004	...........
	16	4.39167	-2.22124E-002	-2.43842E-002	5.42633E-004	...........
	17	4.65	-2.28862E-002	-2.50361E-002	5.33200E-004	...........
	18	4.90833	-2.35754E-002	-2.55465E-002	5.37833E-004	...........
EOC	QUANT	-0.0235754	Open Circuit (V)
PSTATMODEL	IQUANT	4	Pstat Model
PSTATSECTION	LABEL	REF600-11020	Pstat Section
PSTATSERIALNO	LABEL	11020	Pstat Serial Number
CTRLMODE	IQUANT	1	Control Mode
IESTAB	IQUANT	0	I/E Stability
CASPEED	IQUANT	1	Control Amp Speed
CONVENTION	IQUANT	1	Current Convention
ICHRANGE	IQUANT	2	Ich Range
ICHRANGEMODE	TOGGLE	F	Ich Auto Range
ICHOFFSETENABLE	TOGGLE	T	Ich Offset Enable
ICHOFFSET	QUANT	0	Ich Offset (V)
ICHFILTER	IQUANT	3	Ich Filter
VCHRANGE	IQUANT	2	Vch Range
VCHRANGEMODE	TOGGLE	F	Vch Auto Range
VCHOFFSETENABLE	TOGGLE	T	Vch Offset Enable
VCHOFFSET	QUANT	0	Vch Offset (V)
VCHFILTER	IQUANT	3	Vch Filter
ACHRANGE	IQUANT	2	Ach Range
ACHOFFSETENABLE	TOGGLE	F	Ach Offset Enable
ACHOFFSET	QUANT	0	Ach Offset (V)
ACHFILTER	IQUANT	3	Ach Filter
IERANGELOWERLIMIT	IQUANT	1	I/E Range Lower Limit
IERANGEMODE	TOGGLE	F	I/E AutoRange
IERANGE	IQUANT	5	I/E Range
POSFEEDENABLE	TOGGLE	F	Positive Feedback IR Comp
POSFEEDRESISTANCE	QUANT	0	Positive Feedback Resistance (ohm)
ACHSELECT	IQUANT	0	Ach Select
CABLEID	IQUANT	14	Cable ID
DCCALDATE	LABEL	8/19/2019	DC Calibration Date
ACCALDATE	LABEL	8/19/2019	AC Calibration Date
THERMOSELECT	IQUANT	1	Thermo Select
FRAMEWORKVERSION	QUANT	6.33	Framework Version
INSTRUMENTVERSION	LABEL	3.50	Instrument Version
ZCURVE	TABLE
	Pt	Time	Freq	Zreal	Zimag	Zsig	Zmod	Zphz	Idc	Vdc	IERange
	#	s	Hz	ohm	ohm	V	ohm	°	A	V	#
	0	2	1000078	2282.744	-2407.01	1	3317.321	-46.51783	-6.089499E-006	-0.0201315	8
	1	3	794390.6	2761.327	-2543.841	1	3754.471	-42.65247	1.828283E-006	-0.0219936	8
	2	5	630984.4	3271.664	-2596.299	1	4176.668	-38.43451	6.242146E-006	-0.0230736	8
	3	6	501234.4	3783.938	-2582.89	1	4581.431	-34.31718	-1.768069E-006	-0.0214721	8
	4	7	398109.4	4279.213	-2488.337	1	4950.099	-30.17775	-2.188159E-006	-0.0220754	8
	5	9	316265.6	4705.231	-2383.678	1	5274.573	-26.86686	1.921689E-006	-0.0224121	8
	6	10	251203.1	5080.571	-2222.354	1	5545.364	-23.62564	5.367781E-006	-0.0226843	8
	7	12	199546.9	5433.213	-2032.032	1	5800.772	-20.50589	-3.463672E-007	-0.0222745	8
	8	13	158578.1	5691.03	-1840.413	1	5981.216	-17.9206	-2.184823E-006	-0.0221136	8
	9	15	125953.1	5949.288	-1607.989	1	6162.763	-15.12466	-2.316048E-006	-0.0213079	7
	10	16	100078.1	6126.795	-1490.196	1	6305.418	-13.67038	1.038159E-006	-0.0227648	7
	11	18	79453.13	6273.691	-1393.366	1	6426.56	-12.52195	-3.104634E-007	-0.0206473	7
	12	19	63140.62	6409.352	-1327.209	1	6545.325	-11.69911	-1.125279E-006	-0.0204081	7
	13	20	50203.12	6534.621	-1295.725	1	6661.845	-11.21548	-6.423484E-007	-0.0204172	7
	14	22	39890.62	6666.479	-1290.016	1	6790.146	-10.95182	3.811449E-007	-0.0214842	7
	15	23	31640.63	6792.983	-1318.477	1	6919.754	-10.98419	8.535221E-007	-0.0222669	7
	16	25	25171.88	6920.341	-1366.239	1	7053.916	-11.16793	5.093593E-007	-0.0237837	7
	17	26	20015.62	7061.771	-1447.476	1	7208.592	-11.58367	1.040693E-006	-0.0227772	7
	18	28	15890.62	7193.816	-1551.178	1	7359.154	-12.16819	1.212601E-007	-0.023472	7
	19	29	12609.37	7360.09	-1695.245	1	7552.8	-12.97069	1.042765E-006	-0.0227774	7
	20	30	10078.13	7517.517	-1858.379	1	7743.813	-13.8855	-3.153319E-007	-0.0229441	7
	21	32	8015.625	7710.241	-2080.233	1	7985.937	-15.09896	5.039577E-007	-0.0237844	7
	22	33	6328.125	7937.441	-2318.882	1	8269.231	-16.28545	-3.062946E-007	-0.0206651	7
	23	34	5015.625	8197.528	-2611.61	1	8603.486	-17.6711	8.546224E-007	-0.0222754	7
	24	36	3984.375	8499.683	-2957.38	1	8999.483	-19.18483	1.013342E-006	-0.0237958	7
	25	37	3170.956	8791.976	-3358.928	1	9411.761	-20.90909	1.131063E-006	-0.0232187	7
	26	39	2527.573	9127.075	-3816.397	1	9892.85	-22.69177	3.852584E-007	-0.0214953	7
	27	40	1976.103	9574.68	-4374.077	1	10526.49	-24.55271	-2.138382E-007	-0.0202058	6
	28	41	1577.524	10044.31	-5000.408	1	11220.17	-26.46572	-1.586737E-007	-0.0189264	6
	29	43	1265.625	10576.12	-5670.912	1	12000.56	-28.2002	8.535967E-008	-0.0213012	6
	30	44	998.264	11212.62	-6492.979	1	12956.92	-30.07418	-2.209076E-007	-0.0194014	6
	31	45	796.875	11923.67	-7382.357	1	14024.02	-31.76308	1.371817E-007	-0.0222395	6
	32	47	627.7902	12751.76	-8432.92	1	15287.95	-33.47723	1.718439E-007	-0.0230766	6
	33	48	505.5147	13570.31	-9495.827	1	16562.73	-34.98242	1.92465E-007	-0.024331	6
	34	50	397.9953	14506.64	-10832.33	1	18104.75	-36.74927	3.682226E-010	-0.0220985	6
	35	51	315.5048	15435.16	-12366.59	1	19778.19	-38.70159	6.201938E-010	-0.0221064	6
	36	52	252.4038	16328.59	-14137.77	1	21598.6	-40.88698	1.545813E-009	-0.0221099	6
	37	54	198.6229	17288.02	-16503.65	1	23900.76	-43.67028	3.716324E-010	-0.0221082	6
	38	55	158.3615	18214.23	-19325.72	1	26556.39	-46.69592	3.061513E-010	-0.022112	6
	39	56	125.558	19239.44	-22946.49	1	29944.91	-50.0219	6.93742E-010	-0.022112	6
	40	58	100.4464	20363.63	-27340.25	1	34090.56	-53.32044	1.2393E-009	-0.0221082	6
	41	59	79.00281	21812.45	-33186.66	1	39713.19	-56.68446	9.983803E-010	-0.0221124	6
	42	60	63.3446	23087.59	-39600.22	1	45839	-59.7571	9.936429E-010	-0.0221163	6
	43	62	49.86702	25876.99	-49004.36	1	55417.02	-62.16349	7.954909E-010	-0.022107	6
	44	63	39.72458	28313.47	-59604.89	1	65987.84	-64.59138	8.064298E-010	-0.0221031	6
	45	65	31.6723	31845.19	-72210.48	1	78920.65	-66.20227	6.775545E-010	-0.0221185	6
	46	66	24.93351	36987.36	-88806.46	1	96201.1	-67.38857	4.249875E-010	-0.0221138	6
	47	67	19.86229	43299.65	-107692.4	1	116071.2	-68.09653	3.065572E-010	-0.0221081	5
	48	69	15.83615	52182.42	-130918.9	1	140935.3	-68.26847	1.760981E-009	-0.0221073	5
	49	70	12.40079	62826.73	-158856.2	1	170828.9	-68.42149	2.569801E-010	-0.0220998	5
	50	72	9.93114	78721.98	-188711.7	1	204473.1	-67.35632	8.506478E-010	-0.0221046	5
	51	73	7.944915	97463.5	-224341.3	1	244598	-66.51781	3.626762E-010	-0.022115	5
	52	75	6.317385	120927	-263833.5	1	290226.6	-65.37584	2.461197E-010	-0.0221093	5
	53	77	5.008013	150337	-309599.8	1	344170.4	-64.09949	2.572666E-010	-0.0221174	5
	54	79	3.945707	186467.6	-361446.2	1	406710.6	-62.7111	5.216277E-010	-0.0220977	5
	55	82	3.158693	225139.9	-415263.3	1	472368.1	-61.53515	2.301731E-010	-0.0221082	5
	56	85	2.504006	270556.6	-478006	1	549263.8	-60.48967	6.007793E-010	-0.022107	5
	57	88	1.998082	318405.5	-545877.9	1	631953.1	-59.74539	3.558315E-010	-0.0220626	5
	58	91	1.584686	369841.5	-627561.8	1	728434.3	-59.48785	4.227927E-010	-0.0220904	5
	59	95	1.266892	427604.4	-720594.2	1	837915	-59.31488	3.298472E-010	-0.0220584	5
	60	99	0.999041	492831.5	-838475.1	1	972586	-59.55421	3.540033E-010	-0.0221379	5
