EXPLAIN
TAG	EISPOT
TITLE	LABEL	Potentiostatic EIS	Test &Identifier
DATE	LABEL	11/11/2019	Date
TIME	LABEL	12:24:16	Time
NOTES	NOTES	3	&Notes...
	
	
	
PSTAT	PSTAT	REF600-11020	Potentiostat
VDC	POTEN	0.00000E+000	T	DC &Voltage (V)
FREQINIT	QUANT	1.00000E+006	Initial Fre&q. (Hz)
FREQFINAL	QUANT	1.00000E+000	Final Fre&q. (Hz)
PTSPERDEC	QUANT	1.00000E+001	Points/&decade
VAC	QUANT	2.50000E+001	AC &Voltage (mV rms)
AREA	QUANT	1.00000E-002	&Area (cm^2)
CONDIT	TWOPARAM	T	5.00000E+000	0.00000E+000	Conditionin&g	Time(s)	E(V)
DELAY	TWOPARAM	T	5.00000E+000	0.00000E+000	Init. De&lay	Time(s)	Stab.(mV/s)
SPEED	SELECTOR	1	&Optimize for:
ZGUESS	QUANT	1.00000E+005	E&stimated Z (ohms)
OCVCURVE	TABLE	19
	Pt	T	Vf	Vm	Ach	Over
	#	s	V vs. Ref.	V	V	bits
	0	0.258333	3.59385E-003	3.59385E-003	5.47899E-004	...........
	1	0.516667	3.59217E-003	3.50587E-003	5.49299E-004	...........
	2	0.775	3.58228E-003	3.44510E-003	5.47099E-004	...........
	3	1.03333	3.55624E-003	3.41246E-003	5.46799E-004	...........
	4	1.29167	3.51426E-003	3.36543E-003	5.49566E-004	...........
	5	1.55	3.46572E-003	3.35902E-003	5.43999E-004	...........
	6	1.80833	3.41979E-003	3.27784E-003	5.47899E-004	...........
	7	2.06667	3.37831E-003	3.25751E-003	5.45333E-004	...........
	8	2.325	3.33835E-003	3.22683E-003	5.54499E-004	...........
	9	2.58333	3.29953E-003	3.21669E-003	5.50099E-004	...........
	10	2.84167	3.26511E-003	3.19078E-003	5.54733E-004	...........
	11	3.1	3.23716E-003	3.17845E-003	5.49766E-004	...........
	12	3.35833	3.21468E-003	3.15969E-003	5.52499E-004	...........
	13	3.61667	3.19552E-003	3.14155E-003	5.53399E-004	...........
	14	3.875	3.17797E-003	3.12965E-003	5.53933E-004	...........
	15	4.13333	3.16165E-003	3.13654E-003	5.54966E-004	...........
	16	4.39167	3.14763E-003	3.10734E-003	5.56599E-004	...........
	17	4.65	3.13604E-003	3.10004E-003	5.54599E-004	...........
	18	4.90833	3.12511E-003	3.09161E-003	5.52799E-004	...........
EOC	QUANT	0.0031251	Open Circuit (V)
PSTATMODEL	IQUANT	4	Pstat Model
PSTATSECTION	LABEL	REF600-11020	Pstat Section
PSTATSERIALNO	LABEL	11020	Pstat Serial Number
CTRLMODE	IQUANT	1	Control Mode
IESTAB	IQUANT	0	I/E Stability
CASPEED	IQUANT	1	Control Amp Speed
CONVENTION	IQUANT	1	Current Convention
ICHRANGE	IQUANT	2	Ich Range
ICHRANGEMODE	TOGGLE	F	Ich Auto Range
ICHOFFSETENABLE	TOGGLE	T	Ich Offset Enable
ICHOFFSET	QUANT	0	Ich Offset (V)
ICHFILTER	IQUANT	3	Ich Filter
VCHRANGE	IQUANT	2	Vch Range
VCHRANGEMODE	TOGGLE	F	Vch Auto Range
VCHOFFSETENABLE	TOGGLE	T	Vch Offset Enable
VCHOFFSET	QUANT	0	Vch Offset (V)
VCHFILTER	IQUANT	3	Vch Filter
ACHRANGE	IQUANT	2	Ach Range
ACHOFFSETENABLE	TOGGLE	F	Ach Offset Enable
ACHOFFSET	QUANT	0	Ach Offset (V)
ACHFILTER	IQUANT	3	Ach Filter
IERANGELOWERLIMIT	IQUANT	1	I/E Range Lower Limit
IERANGEMODE	TOGGLE	F	I/E AutoRange
IERANGE	IQUANT	4	I/E Range
POSFEEDENABLE	TOGGLE	F	Positive Feedback IR Comp
POSFEEDRESISTANCE	QUANT	0	Positive Feedback Resistance (ohm)
ACHSELECT	IQUANT	0	Ach Select
CABLEID	IQUANT	14	Cable ID
DCCALDATE	LABEL	8/19/2019	DC Calibration Date
ACCALDATE	LABEL	8/19/2019	AC Calibration Date
THERMOSELECT	IQUANT	1	Thermo Select
FRAMEWORKVERSION	QUANT	6.33	Framework Version
INSTRUMENTVERSION	LABEL	3.50	Instrument Version
ZCURVE	TABLE
	Pt	Time	Freq	Zreal	Zimag	Zsig	Zmod	Zphz	Idc	Vdc	IERange
	#	s	Hz	ohm	ohm	V	ohm	°	A	V	#
	0	1	1000078	2383.025	-1188.793	1	2663.088	-26.51272	5.310123E-006	0.0059339	8
	1	3	794390.6	2538.134	-1159.861	1	2790.592	-24.55917	-5.286338E-006	0.005875	8
	2	4	630984.4	2695.722	-1140.875	1	2927.202	-22.9389	8.005294E-006	0.004184	8
	3	5	501234.4	2843.868	-1147.781	1	3066.755	-21.97893	-2.868252E-006	0.0046817	8
	4	7	398109.4	2988.299	-1130.837	1	3195.109	-20.72773	2.481626E-006	0.0043321	8
	5	8	316265.6	3153.124	-1183.411	1	3367.885	-20.57181	6.491999E-007	0.0052036	8
	6	9	251203.1	3319.027	-1217.953	1	3535.442	-20.15117	-5.72299E-006	0.0056635	8
	7	11	199546.9	3507.303	-1256.741	1	3725.664	-19.71368	9.088916E-007	0.0051724	8
	8	12	158578.1	3691.304	-1252.037	1	3897.861	-18.73619	1.860734E-006	0.0050745	8
	9	13	125953.1	3993.869	-1235.609	1	4180.636	-17.19083	-1.763784E-006	0.0045536	7
	10	15	100078.1	4219.602	-1229.59	1	4395.103	-16.2461	9.368065E-007	0.0031197	7
	11	16	79453.13	4442.803	-1200.298	1	4602.088	-15.11849	-5.792547E-007	0.0063235	7
	12	18	63140.62	4653.878	-1134.365	1	4790.132	-13.69851	-1.198352E-006	0.0058676	7
	13	19	50203.12	4850.152	-1053.04	1	4963.151	-12.24965	9.375004E-007	0.0031072	7
	14	20	39890.62	5010.168	-958.731	1	5101.073	-10.833	-2.521195E-007	0.0060704	7
	15	22	31640.63	5133.275	-858.4609	1	5204.563	-9.493976	-8.531327E-007	0.0064136	7
	16	23	25171.88	5244.446	-772.4891	1	5301.033	-8.379222	6.302288E-007	0.0049081	7
	17	24	20015.62	5318.159	-698.7355	1	5363.865	-7.485032	4.185672E-007	0.0052262	7
	18	26	15890.62	5370.827	-637.6689	1	5408.549	-6.770932	4.418938E-007	0.0031586	7
	19	27	12609.37	5413.333	-597.8239	1	5446.243	-6.30195	-7.371411E-007	0.0046493	7
	20	29	10078.13	5464.922	-582.5507	1	5495.884	-6.084647	-2.508663E-007	0.0060614	7
	21	30	8015.625	5492.706	-576.0549	1	5522.831	-5.987085	7.329225E-007	0.0030309	7
	22	32	6328.125	5535.239	-610.6553	1	5568.822	-6.295492	6.31329E-007	0.0049031	7
	23	33	5015.625	5563.321	-662.7783	1	5602.661	-6.793831	1.054479E-006	0.0032956	7
	24	34	3984.375	5585.851	-734.6758	1	5633.958	-7.492787	-8.55158E-007	0.0063964	7
	25	36	3170.956	5631.803	-842.6512	1	5694.494	-8.509679	1.010126E-006	0.0039992	7
	26	37	2527.573	5650.739	-976.077	1	5734.42	-9.80024	-3.293394E-007	0.0039612	7
	27	38	1976.103	5699.719	-1170.482	1	5818.662	-11.6048	-1.060339E-006	0.0063579	7
	28	40	1577.524	5761.996	-1369.125	1	5922.423	-13.36635	6.321432E-007	0.0049019	7
	29	41	1265.625	5819.547	-1664.299	1	6052.852	-15.9597	4.206316E-007	0.0052209	7
	30	43	998.264	5868.118	-2015.204	1	6204.503	-18.95328	-1.039814E-006	0.0053026	7
	31	44	796.875	5957.044	-2446.114	1	6439.708	-22.3243	4.427002E-007	0.0031513	7
	32	46	627.7902	6072.374	-3013.494	1	6779.002	-26.3935	1.014242E-006	0.0040005	7
	33	47	505.5147	6164.708	-3628.976	1	7153.537	-30.48403	7.55909E-008	0.0034531	7
	34	48	397.9953	6322.253	-4481.174	1	7749.31	-35.32878	4.944778E-009	0.0047822	7
	35	50	315.5048	6502.898	-5504.676	1	8519.926	-40.24778	6.781497E-009	0.0047765	7
	36	51	252.4038	6721.878	-6714.433	1	9500.91	-44.96825	6.557844E-009	0.0047719	7
	37	53	198.6229	7023.944	-8314.454	1	10884.21	-49.80931	8.952999E-010	0.0047194	6
	38	54	158.3615	7385.23	-10181.13	1	12577.64	-54.04346	1.410762E-009	0.0047194	6
	39	55	125.558	7870.017	-12528.55	1	14795.33	-57.86433	1.427215E-009	0.004706	6
	40	57	100.4464	8477.835	-15288	1	17481.32	-60.9898	1.863079E-009	0.0047138	6
	41	58	79.00281	9304.695	-18942.91	1	21104.77	-63.83988	7.280661E-010	0.0047143	6
	42	59	63.3446	10269.77	-22852.48	1	25054.02	-65.80113	7.723818E-010	0.0047112	6
	43	61	49.86702	11955.43	-28355.72	1	30773.03	-67.13858	9.056597E-010	0.0047135	6
	44	62	39.72458	13739.38	-34537.1	1	37169.64	-68.30659	8.767555E-010	0.0047163	6
	45	64	31.6723	16145.63	-41906.85	1	44909.52	-68.92961	2.088109E-010	0.0047162	6
	46	65	24.93351	19675.26	-51172.5	1	54824.64	-68.9688	7.432975E-010	0.0047184	6
	47	66	19.86229	23996.14	-61662.54	1	66167.09	-68.73637	8.66983E-010	0.0047098	6
	48	68	15.83615	29820.72	-73803.66	1	79600.6	-67.9986	1.305692E-009	0.00472	6
	49	69	12.40079	37251.56	-89375.23	1	96827.7	-67.37364	1.416488E-009	0.0047153	6
	50	71	9.93114	46820.62	-104700	1	114692	-65.90636	4.86302E-010	0.0047157	5
	51	72	7.944915	58150.4	-122599.6	1	135691.3	-64.62447	-3.826994E-010	0.0047258	5
	52	74	6.317385	72908.34	-142900.9	1	160425.3	-62.96922	-3.473126E-010	0.0047175	5
	53	76	5.008013	90510.14	-165571.4	1	188695.5	-61.33664	-3.513882E-010	0.0047228	5
	54	78	3.945707	111949.1	-190924	1	221324.6	-59.61459	-1.031981E-010	0.0047204	5
	55	81	3.158693	134831.8	-216491.7	1	255045.6	-58.0852	2.561353E-010	0.004722	5
	56	84	2.504006	161689.7	-245393.5	1	293873.3	-56.61914	-5.086044E-010	0.0047164	5
	57	87	1.998082	189347.1	-274939.2	1	333832.2	-55.44531	3.517985E-010	0.0046824	5
	58	90	1.584686	220244	-310289.5	1	380508.8	-54.6328	-2.024184E-010	0.0047011	5
	59	94	1.266892	251934.8	-347550.6	1	429258.2	-54.06215	9.25698E-011	0.0046731	5
	60	98	0.999041	286523.8	-394194.5	1	487324.5	-53.98814	1.525894E-011	0.0047515	5
