EXPLAIN
TAG	EISPOT
TITLE	LABEL	Potentiostatic EIS	Test &Identifier
DATE	LABEL	6/20/2000	Date
TIME	LABEL	9:32:33	Time
NOTES	NOTES	2	&Notes...
	
	
PSTAT	PSTAT	REF600-11020	Potentiostat
VDC	POTEN	0.00000E+000	T	DC &Voltage (V)
FREQINIT	QUANT	1.00000E+006	Initial Fre&q. (Hz)
FREQFINAL	QUANT	1.00000E+000	Final Fre&q. (Hz)
PTSPERDEC	QUANT	1.00000E+001	Points/&decade
VAC	QUANT	2.50000E+001	AC &Voltage (mV rms)
AREA	QUANT	1.00000E-002	&Area (cm^2)
CONDIT	TWOPARAM	T	5.00000E+000	0.00000E+000	Conditionin&g	Time(s)	E(V)
DELAY	TWOPARAM	T	5.00000E+000	0.00000E+000	Init. De&lay	Time(s)	Stab.(mV/s)
SPEED	SELECTOR	0	&Optimize for:
ZGUESS	QUANT	1.00000E+005	E&stimated Z (ohms)
OCVCURVE	TABLE	19
	Pt	T	Vf	Vm	Ach	Over
	#	s	V vs. Ref.	V	V	bits
	0	0.258333	6.05709E-003	6.05709E-003	5.55399E-004	...........
	1	0.516667	6.05411E-003	5.90079E-003	5.52966E-004	...........
	2	0.775	6.03811E-003	5.87520E-003	5.50033E-004	...........
	3	1.03333	5.99866E-003	5.74635E-003	5.42366E-004	...........
	4	1.29167	5.93698E-003	5.75529E-003	5.52632E-004	...........
	5	1.55	5.86538E-003	5.64928E-003	5.59332E-004	...........
	6	1.80833	5.79663E-003	5.66861E-003	5.50733E-004	...........
	7	2.06667	5.73736E-003	5.58800E-003	5.49133E-004	...........
	8	2.325	5.68859E-003	5.59812E-003	5.53666E-004	...........
	9	2.58333	5.64842E-003	5.53959E-003	5.50599E-004	...........
	10	2.84167	5.61443E-003	5.54734E-003	5.38999E-004	...........
	11	3.1	5.58510E-003	5.50471E-003	5.39433E-004	...........
	12	3.35833	5.55983E-003	5.51383E-003	5.53633E-004	...........
	13	3.61667	5.53860E-003	5.49389E-003	5.51999E-004	...........
	14	3.875	5.52172E-003	5.49080E-003	5.42099E-004	...........
	15	4.13333	5.50865E-003	5.47395E-003	5.39866E-004	...........
	16	4.39167	5.49800E-003	5.47857E-003	5.50099E-004	...........
	17	4.65	5.48881E-003	5.46313E-003	5.47799E-004	...........
	18	4.90833	5.48095E-003	5.46690E-003	5.47766E-004	...........
EOC	QUANT	0.0054809	Open Circuit (V)
PSTATMODEL	IQUANT	4	Pstat Model
PSTATSECTION	LABEL	REF600-11020	Pstat Section
PSTATSERIALNO	LABEL	11020	Pstat Serial Number
CTRLMODE	IQUANT	1	Control Mode
IESTAB	IQUANT	0	I/E Stability
CASPEED	IQUANT	1	Control Amp Speed
CONVENTION	IQUANT	1	Current Convention
ICHRANGE	IQUANT	2	Ich Range
ICHRANGEMODE	TOGGLE	F	Ich Auto Range
ICHOFFSETENABLE	TOGGLE	T	Ich Offset Enable
ICHOFFSET	QUANT	0	Ich Offset (V)
ICHFILTER	IQUANT	3	Ich Filter
VCHRANGE	IQUANT	2	Vch Range
VCHRANGEMODE	TOGGLE	F	Vch Auto Range
VCHOFFSETENABLE	TOGGLE	T	Vch Offset Enable
VCHOFFSET	QUANT	0	Vch Offset (V)
VCHFILTER	IQUANT	3	Vch Filter
ACHRANGE	IQUANT	2	Ach Range
ACHOFFSETENABLE	TOGGLE	F	Ach Offset Enable
ACHOFFSET	QUANT	0	Ach Offset (V)
ACHFILTER	IQUANT	3	Ach Filter
IERANGELOWERLIMIT	IQUANT	1	I/E Range Lower Limit
IERANGEMODE	TOGGLE	F	I/E AutoRange
IERANGE	IQUANT	5	I/E Range
POSFEEDENABLE	TOGGLE	F	Positive Feedback IR Comp
POSFEEDRESISTANCE	QUANT	0	Positive Feedback Resistance (ohm)
ACHSELECT	IQUANT	0	Ach Select
CABLEID	IQUANT	14	Cable ID
DCCALDATE	LABEL	8/19/2019	DC Calibration Date
ACCALDATE	LABEL	8/19/2019	AC Calibration Date
THERMOSELECT	IQUANT	1	Thermo Select
FRAMEWORKVERSION	QUANT	6.33	Framework Version
INSTRUMENTVERSION	LABEL	3.50	Instrument Version
ZCURVE	TABLE
	Pt	Time	Freq	Zreal	Zimag	Zsig	Zmod	Zphz	Idc	Vdc	IERange
	#	s	Hz	ohm	ohm	V	ohm	°	A	V	#
	0	1	1000078	2159.659	-1226.402	1	2483.584	-29.59087	-1.187346E-005	0.007525	8
	1	1	794390.6	2402.62	-1144.4	1	2661.247	-25.46909	-3.156787E-006	0.0079561	8
	2	2	630984.4	2587.07	-1037.679	1	2787.42	-21.85583	-5.967543E-006	0.0077675	8
	3	2	501234.4	2752.585	-917.249	1	2901.391	-18.42972	4.680776E-007	0.0067901	8
	4	2	398109.4	2881.349	-800.64	1	2990.517	-15.52901	-1.829666E-006	0.0076459	8
	5	2	316265.6	2968.433	-697.6328	1	3049.309	-13.22549	9.753117E-007	0.0075851	8
	6	3	251203.1	3032.308	-589.9681	1	3089.167	-11.00996	-5.040533E-007	0.0076567	8
	7	3	199546.9	3103.019	-510.9902	1	3144.812	-9.351265	7.1992E-006	0.0061959	8
	8	3	158578.1	3134.975	-424.4154	1	3163.573	-7.709875	7.09615E-006	0.0057156	8
	9	4	125953.1	3193.947	-348.8445	1	3212.94	-6.233168	-1.869192E-006	0.0117762	7
	10	4	100078.1	3214.78	-309.1222	1	3229.608	-5.492478	9.310933E-007	0.0049391	7
	11	4	79453.13	3237.363	-299.4107	1	3251.179	-5.284025	-1.312186E-006	0.0089892	7
	12	5	63140.62	3260.817	-287.6551	1	3273.48	-5.041334	-3.529817E-007	0.0086673	7
	13	5	50203.12	3286.824	-284.6716	1	3299.128	-4.950031	5.836147E-007	0.0050605	7
	14	5	39890.62	3307.429	-287.7856	1	3319.926	-4.972888	-8.681363E-007	0.0068468	7
	15	6	31640.63	3332.021	-302.3891	1	3345.715	-5.185527	1.340737E-007	0.005405	7
	16	6	25171.88	3360.419	-320.9307	1	3375.709	-5.455384	8.24151E-008	0.0081943	7
	17	6	20015.62	3385.158	-351.1581	1	3403.323	-5.922372	9.242017E-007	0.0049355	7
	18	7	15890.62	3410.736	-386.7372	1	3432.592	-6.469035	1.309782E-006	0.0056947	7
	19	7	12609.37	3436.179	-432.9019	1	3463.341	-7.180494	-1.251392E-006	0.0076557	7
	20	7	10078.13	3469.32	-487.6518	1	3503.425	-8.001143	7.92819E-008	0.008189	7
	21	8	8015.625	3505.969	-566.241	1	3551.401	-9.174487	7.482814E-008	0.0081892	7
	22	8	6328.125	3542.623	-667.0216	1	3604.871	-10.66308	1.285457E-006	0.0053094	7
	23	8	5015.625	3576.808	-777.8953	1	3660.421	-12.26979	-1.472619E-006	0.008787	7
	24	9	3984.375	3622.08	-926.6233	1	3738.729	-14.35	1.311928E-006	0.0056865	7
	25	9	3170.956	3680.513	-1104.091	1	3842.551	-16.69835	7.354604E-007	0.0072778	7
	26	9	2527.573	3735.383	-1322.864	1	3962.708	-19.50131	1.314774E-006	0.0056849	7
	27	9	1976.103	3798.804	-1615.07	1	4127.876	-23.03288	1.312094E-006	0.0056828	7
	28	10	1577.524	3885.278	-1930.874	1	4338.624	-26.42608	-1.072664E-006	0.0090327	7
	29	10	1265.625	3964.494	-2316.776	1	4591.804	-30.30121	-1.248263E-006	0.0076518	7
	30	10	998.264	4091.01	-2830.724	1	4974.873	-34.68082	-1.304064E-006	0.0089614	7
	31	11	796.875	4214.83	-3426.875	1	5432.15	-39.1129	-1.243808E-006	0.0076352	7
	32	11	627.7902	4360.667	-4211.012	1	6062.016	-43.99976	-7.418432E-007	0.0089402	7
	33	11	505.5147	4539.826	-5054.787	1	6794.181	-48.07222	-3.580371E-007	0.0060034	7
	34	12	397.9953	4767.995	-6226.56	1	7842.437	-52.55687	-1.124641E-010	0.0070614	7
	35	12	315.5048	5035.783	-7630.11	1	9142.083	-56.57566	6.319561E-009	0.0070516	7
	36	12	252.4038	5356.323	-9288.998	1	10722.67	-60.03093	1.765715E-009	0.0069882	6
	37	13	198.6229	5782.405	-11483	1	12856.73	-63.2719	5.491887E-010	0.0069974	6
	38	13	158.3615	6305.351	-14051.05	1	15400.95	-65.83203	1.796333E-009	0.0069935	6
	39	13	125.558	6988.912	-17269.58	1	18630.17	-67.96706	1.195583E-009	0.0069926	6
	40	14	100.4464	7871.992	-21060.88	1	22483.97	-69.50561	-1.542496E-009	0.0069912	6
	41	14	79.00281	9044.845	-26136.97	1	27657.73	-70.91153	-5.663976E-010	0.00699	6
	42	14	63.3446	10401.54	-31034.89	1	32731.58	-71.47109	7.692377E-010	0.0069959	6
	43	15	49.86702	12672.1	-38391.51	1	40428.83	-71.7332	1.789368E-009	0.0069901	6
	44	15	39.72458	15220.81	-47311.38	1	49699.5	-72.16621	4.475955E-010	0.0070018	6
	45	16	31.6723	18841.18	-57677.7	1	60677.07	-71.90969	2.193438E-009	0.006988	6
	46	6.11802E+008	24.93351	23879.73	-69882.27	1	73849.67	-71.134	-4.285283E-010	0.0069926	6
	47	6.11802E+008	19.86229	29872.16	-84224.87	1	89365.4	-70.47186	-7.592585E-010	0.006992	6
	48	6.11802E+008	15.83615	37716.05	-98373.9	1	105356.2	-69.02344	3.228932E-009	0.0069943	5
	49	6.11802E+008	12.40079	47225.68	-121576.2	1	130426.4	-68.77158	-2.138708E-009	0.0069841	5
	50	6.11802E+008	9.93114	61799.46	-141275.6	1	154201.1	-66.37356	-6.669402E-010	0.0069927	5
	51	6.11802E+008	7.944915	78024.08	-164375.9	1	181953.8	-64.60777	-1.434885E-010	0.0069884	5
	52	6.11802E+008	6.317385	97379.9	-190913.3	1	214314.6	-62.97506	6.613536E-011	0.0069933	5
	53	6.11802E+008	5.008013	121345.3	-220765.1	1	251916.5	-61.20427	3.744533E-010	0.00699	5
	54	6.11802E+008	3.945707	147757.6	-253286.4	1	293234.3	-59.74235	3.02205E-010	0.0069954	5
	55	6.11802E+008	3.158693	177843.7	-285998.4	1	336784	-58.12522	-1.048839E-010	0.0069827	5
	56	6.11802E+008	2.504006	211084	-323971.9	1	386670.8	-56.91373	-4.249856E-011	0.0069791	5
	57	6.11802E+008	1.998082	246165.3	-365349.7	1	440542.6	-56.02871	1.527004E-010	0.0070248	5
	58	6.11802E+008	1.584686	283225	-414278.6	1	501839.8	-55.64121	6.688339E-011	0.0070103	5
	59	6.11802E+008	1.266892	322358.8	-468596.4	1	568768.7	-55.47498	1.977719E-011	0.0069746	5
	60	6.11802E+008	0.999041	367712.4	-537759.8	1	651458.3	-55.63624	3.471091E-012	0.006947	5
