EXPLAIN
TAG	EISPOT
TITLE	LABEL	Potentiostatic EIS	Test &Identifier
DATE	LABEL	11/3/2019	Date
TIME	LABEL	11:27:58	Time
NOTES	NOTES	1	&Notes...
	
PSTAT	PSTAT	REF600-11020	Potentiostat
VDC	POTEN	0.00000E+000	T	DC &Voltage (V)
FREQINIT	QUANT	1.00000E+006	Initial Fre&q. (Hz)
FREQFINAL	QUANT	1.00000E+000	Final Fre&q. (Hz)
PTSPERDEC	QUANT	1.00000E+001	Points/&decade
VAC	QUANT	2.50000E+001	AC &Voltage (mV rms)
AREA	QUANT	1.00000E-002	&Area (cm^2)
CONDIT	TWOPARAM	T	5.00000E+000	0.00000E+000	Conditionin&g	Time(s)	E(V)
DELAY	TWOPARAM	T	5.00000E+000	0.00000E+000	Init. De&lay	Time(s)	Stab.(mV/s)
SPEED	SELECTOR	1	&Optimize for:
ZGUESS	QUANT	1.00000E+005	E&stimated Z (ohms)
OCVCURVE	TABLE	19
	Pt	T	Vf	Vm	Ach	Over
	#	s	V vs. Ref.	V	V	bits
	0	0.258333	5.57252E-003	5.57252E-003	5.78132E-004	...........
	1	0.516667	5.56956E-003	5.41757E-003	5.76199E-004	...........
	2	0.775	5.55182E-003	5.29355E-003	5.68966E-004	...........
	3	1.03333	5.50353E-003	5.19779E-003	5.72799E-004	...........
	4	1.29167	5.42204E-003	5.11393E-003	5.71632E-004	...........
	5	1.55	5.32197E-003	5.03352E-003	5.74432E-004	...........
	6	1.80833	5.22075E-003	4.95314E-003	5.73299E-004	...........
	7	2.06667	5.12700E-003	4.87787E-003	5.73532E-004	...........
	8	2.325	5.04114E-003	4.79641E-003	5.77566E-004	...........
	9	2.58333	4.96038E-003	4.72593E-003	5.77932E-004	...........
	10	2.84167	4.88269E-003	4.66889E-003	5.74565E-004	...........
	11	3.1	4.80838E-003	4.60723E-003	5.73499E-004	...........
	12	3.35833	4.73882E-003	4.55003E-003	5.76499E-004	...........
	13	3.61667	4.67414E-003	4.48977E-003	5.72799E-004	...........
	14	3.875	4.61289E-003	4.43044E-003	5.75632E-004	...........
	15	4.13333	4.55354E-003	4.38304E-003	5.71399E-004	...........
	16	4.39167	4.49565E-003	4.32740E-003	5.74266E-004	...........
	17	4.65	4.43970E-003	4.28003E-003	5.77732E-004	...........
	18	4.90833	4.38584E-003	4.22563E-003	5.74699E-004	...........
EOC	QUANT	0.0043858	Open Circuit (V)
PSTATMODEL	IQUANT	4	Pstat Model
PSTATSECTION	LABEL	REF600-11020	Pstat Section
PSTATSERIALNO	LABEL	11020	Pstat Serial Number
CTRLMODE	IQUANT	1	Control Mode
IESTAB	IQUANT	0	I/E Stability
CASPEED	IQUANT	1	Control Amp Speed
CONVENTION	IQUANT	1	Current Convention
ICHRANGE	IQUANT	2	Ich Range
ICHRANGEMODE	TOGGLE	F	Ich Auto Range
ICHOFFSETENABLE	TOGGLE	T	Ich Offset Enable
ICHOFFSET	QUANT	0	Ich Offset (V)
ICHFILTER	IQUANT	3	Ich Filter
VCHRANGE	IQUANT	2	Vch Range
VCHRANGEMODE	TOGGLE	F	Vch Auto Range
VCHOFFSETENABLE	TOGGLE	T	Vch Offset Enable
VCHOFFSET	QUANT	0	Vch Offset (V)
VCHFILTER	IQUANT	3	Vch Filter
ACHRANGE	IQUANT	2	Ach Range
ACHOFFSETENABLE	TOGGLE	F	Ach Offset Enable
ACHOFFSET	QUANT	0	Ach Offset (V)
ACHFILTER	IQUANT	3	Ach Filter
IERANGELOWERLIMIT	IQUANT	1	I/E Range Lower Limit
IERANGEMODE	TOGGLE	F	I/E AutoRange
IERANGE	IQUANT	4	I/E Range
POSFEEDENABLE	TOGGLE	F	Positive Feedback IR Comp
POSFEEDRESISTANCE	QUANT	0	Positive Feedback Resistance (ohm)
ACHSELECT	IQUANT	0	Ach Select
CABLEID	IQUANT	14	Cable ID
DCCALDATE	LABEL	8/19/2019	DC Calibration Date
ACCALDATE	LABEL	8/19/2019	AC Calibration Date
THERMOSELECT	IQUANT	1	Thermo Select
FRAMEWORKVERSION	QUANT	6.33	Framework Version
INSTRUMENTVERSION	LABEL	3.50	Instrument Version
ZCURVE	TABLE
	Pt	Time	Freq	Zreal	Zimag	Zsig	Zmod	Zphz	Idc	Vdc	IERange
	#	s	Hz	ohm	ohm	V	ohm	°	A	V	#
	0	2	1000078	2257.268	-1563.654	1	2745.956	-34.7111	8.900163E-006	0.0055907	8
	1	3	794390.6	2566.249	-1448.112	1	2946.636	-29.43567	-5.108784E-006	0.0069711	8
	2	5	630984.4	2836.559	-1327.945	1	3132.013	-25.08681	3.360374E-006	0.0066147	8
	3	6	501234.4	3043.603	-1173.373	1	3261.95	-21.0827	-5.358101E-007	0.0057985	8
	4	7	398109.4	3219.606	-1032.87	1	3381.225	-17.78656	-1.736838E-008	0.0057531	8
	5	9	316265.6	3350.909	-889.8758	1	3467.055	-14.87234	7.246001E-006	0.0052826	8
	6	10	251203.1	3442.618	-769.6105	1	3527.594	-12.60149	-5.345079E-007	0.0057604	8
	7	11	199546.9	3526.69	-653.3359	1	3586.697	-10.49533	6.116672E-006	0.0053017	8
	8	13	158578.1	3578.557	-595.4303	1	3627.756	-9.446807	5.873826E-007	0.0064278	8
	9	14	125953.1	3628.37	-445.2115	1	3655.582	-6.99539	-9.80025E-007	0.0069385	7
	10	16	100078.1	3663.804	-402.7135	1	3685.87	-6.272587	-3.184442E-007	0.0074134	7
	11	17	79453.13	3700.657	-374.2543	1	3719.533	-5.774795	1.032592E-006	0.0052895	7
	12	18	63140.62	3730.41	-354.4389	1	3747.211	-5.427573	1.019819E-006	0.0042641	7
	13	20	50203.12	3754.285	-344.8257	1	3770.088	-5.247812	1.455815E-007	0.0045557	7
	14	21	39890.62	3775.126	-343.1142	1	3790.687	-5.193239	-1.065232E-006	0.0064919	7
	15	22	31640.63	3805.917	-353.4484	1	3822.294	-5.305734	-2.900403E-007	0.0050817	7
	16	24	25171.88	3830.097	-372.9603	1	3848.213	-5.561709	-6.566028E-007	0.0076437	7
	17	25	20015.62	3860.787	-399.6974	1	3881.421	-5.910629	-7.29658E-007	0.0057797	7
	18	26	15890.62	3897.227	-441.519	1	3922.157	-6.463513	1.02374E-006	0.0042606	7
	19	28	12609.37	3926	-494.4706	1	3957.016	-7.178474	-3.179394E-007	0.0073981	7
	20	29	10078.13	3966.2	-560.6481	1	4005.63	-8.045822	6.164645E-007	0.0062247	7
	21	30	8015.625	3992.124	-640.0176	1	4043.102	-9.108158	-6.560371E-007	0.0076423	7
	22	32	6328.125	4037.38	-750.7405	1	4106.585	-10.5337	-3.159892E-007	0.0074016	7
	23	33	5015.625	4083.986	-883.1445	1	4178.383	-12.20208	3.850236E-007	0.0065513	7
	24	35	3984.375	4140.601	-1046.494	1	4270.799	-14.18388	1.132446E-006	0.0048422	7
	25	36	3170.956	4191.431	-1243.753	1	4372.072	-16.52758	-3.171081E-007	0.0073954	7
	26	37	2527.573	4261.461	-1487.181	1	4513.508	-19.23816	1.035448E-006	0.0052895	7
	27	39	1976.103	4344.677	-1817.405	1	4709.478	-22.69985	1.133161E-006	0.0048402	7
	28	40	1577.524	4438.713	-2202.482	1	4955.109	-26.39053	1.021445E-006	0.0042588	7
	29	41	1265.625	4535.083	-2619.165	1	5237.08	-30.0079	6.139235E-007	0.0062192	7
	30	43	998.264	4666.796	-3185.75	1	5650.485	-34.31908	-1.247449E-006	0.0070709	7
	31	44	796.875	4821.657	-3859.71	1	6176.224	-38.67708	1.494883E-007	0.0045477	7
	32	45	627.7902	5010.882	-4718.81	1	6883.03	-43.28057	-3.09868E-007	0.0073926	7
	33	47	505.5147	5216.334	-5688.653	1	7718.219	-47.48006	1.401474E-007	0.0045451	7
	34	48	397.9953	5496.169	-6985.432	1	8888.428	-51.80417	6.615164E-009	0.0060067	7
	35	49	315.5048	5830.764	-8544.13	1	10344.08	-55.68923	4.176198E-010	0.0059476	6
	36	51	252.4038	6226.45	-10380.74	1	12104.9	-59.04434	9.474546E-012	0.0059483	6
	37	52	198.6229	6761.747	-12809.57	1	14484.69	-62.17192	5.451167E-010	0.0059546	6
	38	53	158.3615	7417.598	-15626.07	1	17297.25	-64.6066	3.055176E-010	0.0059432	6
	39	55	125.558	8295.962	-19161.47	1	20880.25	-66.5898	7.583634E-010	0.005943	6
	40	56	100.4464	9431.217	-23282.9	1	25120.54	-67.94859	1.648522E-009	0.0059408	6
	41	58	79.00281	10931.71	-28626.54	1	30642.79	-69.09949	4.780012E-010	0.0059551	6
	42	59	63.3446	12709.79	-34923.15	1	37164.03	-70.00174	7.754885E-010	0.0059498	6
	43	60	49.86702	15604.44	-42053.09	1	44854.89	-69.64186	-8.313696E-011	0.0059446	6
	44	62	39.72458	19228.38	-50913.21	1	54423.21	-69.30996	2.258867E-010	0.0059559	6
	45	63	31.6723	23542.38	-61002.16	1	65387.36	-68.89706	1.342467E-010	0.0059523	6
	46	64	24.93351	29709.47	-73357.04	1	79144.85	-67.95214	1.21765E-009	0.0059391	6
	47	66	19.86229	36922.62	-86743.82	1	94274.97	-66.94291	4.531637E-010	0.0059502	6
	48	67	15.83615	46717.56	-102137.8	1	112315	-65.42077	2.123186E-009	0.0059527	5
	49	69	12.40079	56731.7	-121716.8	1	134288.7	-65.00996	-1.472272E-010	0.0059393	5
	50	70	9.93114	68723.51	-139980.4	1	155940.5	-63.85123	1.017242E-009	0.0059449	5
	51	72	7.944915	83292.28	-162438.3	1	182548.1	-62.85295	6.673428E-010	0.0059471	5
	52	73	6.317385	99467.6	-188499.8	1	213133.7	-62.18028	-1.201032E-011	0.0059479	5
	53	75	5.008013	118878	-219043.6	1	249223	-61.5107	9.397546E-011	0.0059465	5
	54	78	3.945707	141716.3	-254655.6	1	291432.6	-60.904	4.733863E-010	0.0059518	5
	55	80	3.158693	166640	-293577.1	1	337574.2	-60.41993	1.61398E-010	0.0059509	5
	56	84	2.504006	195804.7	-340160.8	1	392490.6	-60.07424	4.289713E-010	0.0059417	5
	57	86	1.998082	227635.9	-392413.5	1	453659	-59.88232	7.123378E-011	0.0059827	5
	58	90	1.584686	265152.4	-456048.7	1	527528.4	-59.82575	3.051649E-010	0.005989	5
	59	93	1.266892	306332.6	-526133.8	1	608815.6	-59.79061	1.259352E-010	0.0059789	5
	60	97	0.999041	354921.7	-616607	1	711458.8	-60.07508	2.424482E-010	0.005938	5
