EXPLAIN
TAG	EISPOT
TITLE	LABEL	Potentiostatic IDE	Test &Identifier
DATE	LABEL	9/4/2019	Date
TIME	LABEL	12:21:12	Time
NOTES	NOTES	1	&Notes...
	
PSTAT	PSTAT	REF600-11020	Potentiostat
VDC	POTEN	0.00000E+000	T	DC &Voltage (V)
FREQINIT	QUANT	1.00000E+006	Initial Fre&q. (Hz)
FREQFINAL	QUANT	1.00000E+000	Final Fre&q. (Hz)
PTSPERDEC	QUANT	1.00000E+001	Points/&decade
VAC	QUANT	2.50000E+001	AC &Voltage (mV rms)
AREA	QUANT	1.00000E-002	&Area (cm^2)
CONDIT	TWOPARAM	T	5.00000E+000	0.00000E+000	Conditionin&g	Time(s)	E(V)
DELAY	TWOPARAM	T	5.00000E+000	0.00000E+000	Init. De&lay	Time(s)	Stab.(mV/s)
SPEED	SELECTOR	1	&Optimize for:
ZGUESS	QUANT	1.00000E+007	E&stimated Z (ohms)
OCVCURVE	TABLE	19
	Pt	T	Vf	Vm	Ach	Over
	#	s	V vs. Ref.	V	V	bits
	0	0.258333	5.51162E-002	5.51162E-002	5.70432E-004	...........
	1	0.516667	5.51309E-002	5.58896E-002	5.64999E-004	...........
	2	0.775	5.52222E-002	5.66486E-002	5.64332E-004	...........
	3	1.03333	5.54822E-002	5.73955E-002	5.64799E-004	...........
	4	1.29167	5.59522E-002	5.81085E-002	5.64566E-004	...........
	5	1.55	5.65845E-002	5.87973E-002	5.66666E-004	...........
	6	1.80833	5.72941E-002	5.94546E-002	5.66566E-004	...........
	7	2.06667	5.80143E-002	6.00714E-002	5.67099E-004	...........
	8	2.325	5.87119E-002	6.06895E-002	5.65332E-004	...........
	9	2.58333	5.93788E-002	6.13435E-002	5.63832E-004	...........
	10	2.84167	6.00217E-002	6.19083E-002	5.67166E-004	...........
	11	3.1	6.06473E-002	6.24231E-002	5.66666E-004	...........
	12	3.35833	6.12527E-002	6.29841E-002	5.72266E-004	...........
	13	3.61667	6.18305E-002	6.33918E-002	5.69332E-004	...........
	14	3.875	6.23747E-002	6.38364E-002	5.72799E-004	...........
	15	4.13333	6.28825E-002	6.43248E-002	5.70832E-004	...........
	16	4.39167	6.33600E-002	6.47594E-002	5.70332E-004	...........
	17	4.65	6.38195E-002	6.51407E-002	5.65899E-004	...........
	18	4.90833	6.42660E-002	6.55405E-002	5.69332E-004	...........
EOC	QUANT	0.064266	Open Circuit (V)
PSTATMODEL	IQUANT	4	Pstat Model
PSTATSECTION	LABEL	REF600-11020	Pstat Section
PSTATSERIALNO	LABEL	11020	Pstat Serial Number
CTRLMODE	IQUANT	1	Control Mode
IESTAB	IQUANT	0	I/E Stability
CASPEED	IQUANT	1	Control Amp Speed
CONVENTION	IQUANT	1	Current Convention
ICHRANGE	IQUANT	2	Ich Range
ICHRANGEMODE	TOGGLE	F	Ich Auto Range
ICHOFFSETENABLE	TOGGLE	T	Ich Offset Enable
ICHOFFSET	QUANT	0	Ich Offset (V)
ICHFILTER	IQUANT	3	Ich Filter
VCHRANGE	IQUANT	2	Vch Range
VCHRANGEMODE	TOGGLE	F	Vch Auto Range
VCHOFFSETENABLE	TOGGLE	T	Vch Offset Enable
VCHOFFSET	QUANT	0	Vch Offset (V)
VCHFILTER	IQUANT	3	Vch Filter
ACHRANGE	IQUANT	2	Ach Range
ACHOFFSETENABLE	TOGGLE	F	Ach Offset Enable
ACHOFFSET	QUANT	0	Ach Offset (V)
ACHFILTER	IQUANT	3	Ach Filter
IERANGELOWERLIMIT	IQUANT	1	I/E Range Lower Limit
IERANGEMODE	TOGGLE	F	I/E AutoRange
IERANGE	IQUANT	4	I/E Range
POSFEEDENABLE	TOGGLE	F	Positive Feedback IR Comp
POSFEEDRESISTANCE	QUANT	0	Positive Feedback Resistance (ohm)
ACHSELECT	IQUANT	0	Ach Select
CABLEID	IQUANT	14	Cable ID
DCCALDATE	LABEL	8/19/2019	DC Calibration Date
ACCALDATE	LABEL	8/19/2019	AC Calibration Date
THERMOSELECT	IQUANT	1	Thermo Select
FRAMEWORKVERSION	QUANT	6.33	Framework Version
INSTRUMENTVERSION	LABEL	3.50	Instrument Version
ZCURVE	TABLE
	Pt	Time	Freq	Zreal	Zimag	Zsig	Zmod	Zphz	Idc	Vdc	IERange
	#	s	Hz	ohm	ohm	V	ohm	°	A	V	#
	0	1	1000078	2147.373	-1436.374	1	2583.482	-33.77849	1.155385E-005	0.0651081	8
	1	3	794390.6	2434.499	-1358.99	1	2788.125	-29.1712	8.938056E-006	0.0655885	8
	2	5	630984.4	2661.748	-1232.877	1	2933.409	-24.85278	1.046549E-005	0.0653282	8
	3	6	501234.4	2835.273	-1102.939	1	3042.244	-21.25634	9.763233E-006	0.0654825	8
	4	8	398109.4	2984.979	-969.702	1	3138.538	-17.99693	1.177246E-005	0.0649385	8
	5	9	316265.6	3101.946	-839.9327	1	3213.651	-15.15101	1.157032E-005	0.0649428	8
	6	11	251203.1	3185.608	-738.5425	1	3270.099	-13.0527	8.468957E-006	0.0655301	8
	7	12	199546.9	3232.574	-662.5845	1	3299.781	-11.58354	9.477914E-006	0.0655316	8
	8	14	158578.1	3300.179	-595.2313	1	3353.428	-10.22414	9.446485E-006	0.0655279	8
	9	15	125953.1	3351.208	-542.0342	1	3394.76	-9.187621	6.667264E-007	0.0655299	7
	10	17	100078.1	3387.097	-505.8825	1	3424.667	-8.494663	8.719852E-007	0.065593	7
	11	18	79453.13	3422.057	-500.0872	1	3458.404	-8.31415	8.857262E-007	0.06561	7
	12	20	63140.62	3456.674	-508.308	1	3493.848	-8.365456	8.938054E-007	0.065576	7
	13	21	50203.12	3496.854	-530.7847	1	3536.908	-8.631	9.636993E-007	0.0654575	7
	14	22	39890.62	3534.658	-570.7748	1	3580.446	-9.172912	9.065509E-007	0.0655952	7
	15	24	31640.63	3579.18	-626.4028	1	3633.581	-9.92696	8.783346E-007	0.0655633	7
	16	25	25171.88	3632.489	-698.466	1	3699.031	-10.88416	9.051788E-007	0.0655012	7
	17	26	20015.62	3687.355	-790.4539	1	3771.128	-12.09931	8.609775E-007	0.0656222	7
	18	28	15890.62	3754.38	-903.343	1	3861.528	-13.5288	8.977059E-007	0.0655689	7
	19	29	12609.37	3826.658	-1045.168	1	3966.823	-15.27649	9.389756E-007	0.0654443	7
	20	30	10078.13	3913.769	-1207.975	1	4095.948	-17.15271	9.020065E-007	0.0655298	7
	21	32	8015.625	4013.066	-1411.495	1	4254.059	-19.37803	8.984138E-007	0.0655754	7
	22	33	6328.125	4131.186	-1654.56	1	4450.199	-21.82634	8.861027E-007	0.0655474	7
	23	34	5015.625	4269.616	-1945.43	1	4691.942	-24.49616	9.617459E-007	0.0654464	7
	24	36	3984.375	4428.86	-2290.586	1	4986.14	-27.3478	9.555856E-007	0.0654761	7
	25	37	3170.956	4615.599	-2698.051	1	5346.329	-30.30844	8.807755E-007	0.0656266	7
	26	38	2527.573	4838.375	-3169.861	1	5784.279	-33.23081	8.915332E-007	0.0655272	7
	27	40	1976.103	5117.789	-3789.449	1	6368.02	-36.51797	8.819709E-007	0.0656603	7
	28	41	1577.524	5421.211	-4456.77	1	7018	-39.42357	9.01311E-007	0.065577	7
	29	42	1265.625	5782.854	-5222.186	1	7791.831	-42.0835	8.764377E-007	0.0655881	7
	30	44	998.264	6234.583	-6200.601	1	8793.036	-44.84342	8.684299E-007	0.0655284	7
	31	45	796.875	6735.789	-7297.781	1	9931.19	-47.29326	9.055389E-007	0.0654938	7
	32	46	627.7902	7380.211	-8672.235	1	11387.5	-49.60168	9.081492E-007	0.0655024	7
	33	48	505.5147	8059.521	-10143.34	1	12955.43	-51.53065	8.886916E-008	0.0654733	6
	34	49	397.9953	8949.512	-12055	1	15013.88	-53.41016	8.993205E-008	0.0651435	6
	35	50	315.5048	9972.39	-14252.22	1	17394.67	-55.01922	8.974654E-008	0.0651428	6
	36	52	252.4038	11125.69	-16739.28	1	20099.37	-56.39017	8.993948E-008	0.0651393	6
	37	53	198.6229	12581.85	-19892.18	1	23537.24	-57.68657	8.986544E-008	0.0651428	6
	38	54	158.3615	14196.9	-23424.82	1	27391.14	-58.78152	8.991599E-008	0.0651395	6
	39	56	125.558	16134.36	-27686.32	1	32044.5	-59.76826	8.996135E-008	0.0651334	6
	40	57	100.4464	18332.67	-32526.39	1	37337.02	-60.59332	9.014302E-008	0.0651375	6
	41	58	79.00281	21059.15	-38771.53	1	44121.64	-61.49096	8.941432E-008	0.0651342	6
	42	60	63.3446	23975.16	-45747.95	1	51649.63	-62.34228	8.9794E-008	0.0651327	6
	43	61	49.86702	27734.93	-53948.05	1	60659.86	-62.7921	8.98744E-008	0.0651349	6
	44	62	39.72458	31840.42	-64006.17	1	71488.47	-63.55156	8.964269E-008	0.0651417	6
	45	64	31.6723	36711.23	-75523.88	1	83973.63	-64.07619	8.996923E-008	0.065136	6
	46	65	24.93351	42627.5	-90338.66	1	99890.8	-64.7391	8.954463E-008	0.0651332	6
	47	67	19.86229	49374.7	-107079.8	1	117915	-65.24549	8.970733E-008	0.0651437	6
	48	68	15.83615	57436.37	-126401.5	1	138839	-65.56313	8.825346E-009	0.0651405	5
	49	69	12.40079	67466.12	-153158.9	1	167359.9	-66.22663	8.565075E-009	0.0651423	5
	50	71	9.93114	77639.05	-180972.4	1	196923.4	-66.78016	9.120512E-009	0.0651429	5
	51	72	7.944915	90447.33	-214762	1	233031	-67.16154	9.524746E-009	0.0651421	5
	52	74	6.317385	106123.8	-256390.1	1	277485.4	-67.5146	9.208731E-009	0.0651565	5
	53	76	5.008013	125293.2	-306802.4	1	331400.3	-67.78568	9.32342E-009	0.0651551	5
	54	78	3.945707	149507.4	-369379.1	1	398488.9	-67.9642	9.104846E-009	0.0651352	5
	55	81	3.158693	177265.7	-438850.7	1	473300.2	-68.00465	9.232907E-009	0.0651595	5
	56	84	2.504006	213169.8	-526058.1	1	567607.6	-67.94117	8.88581E-009	0.0654243	5
	57	87	1.998082	256378.6	-625520.4	1	676022.1	-67.71302	8.967957E-009	0.0653905	5
	58	90	1.584686	311262.5	-744557.7	1	807000.9	-67.31262	8.96588E-009	0.0654351	5
	59	94	1.266892	379631.7	-881790.6	1	960039	-66.70698	8.987393E-009	0.0653842	5
	60	98	0.999041	468206.8	-1049473	1	1149179	-65.95667	8.950731E-009	0.0654625	5
