EXPLAIN
TAG	EISPOT
TITLE	LABEL	Potentiostatic IDE	Test &Identifier
DATE	LABEL	9/8/2019	Date
TIME	LABEL	9:37:25	Time
NOTES	NOTES	1	&Notes...
	
PSTAT	PSTAT	REF600-11020	Potentiostat
VDC	POTEN	0.00000E+000	T	DC &Voltage (V)
FREQINIT	QUANT	1.00000E+006	Initial Fre&q. (Hz)
FREQFINAL	QUANT	1.00000E+000	Final Fre&q. (Hz)
PTSPERDEC	QUANT	1.00000E+001	Points/&decade
VAC	QUANT	2.50000E+001	AC &Voltage (mV rms)
AREA	QUANT	1.00000E-002	&Area (cm^2)
CONDIT	TWOPARAM	T	5.00000E+000	0.00000E+000	Conditionin&g	Time(s)	E(V)
DELAY	TWOPARAM	T	5.00000E+000	0.00000E+000	Init. De&lay	Time(s)	Stab.(mV/s)
SPEED	SELECTOR	1	&Optimize for:
ZGUESS	QUANT	1.00000E+007	E&stimated Z (ohms)
OCVCURVE	TABLE	19
	Pt	T	Vf	Vm	Ach	Over
	#	s	V vs. Ref.	V	V	bits
	0	0.258333	2.04970E-003	2.04970E-003	5.78299E-004	...........
	1	0.516667	2.03712E-003	1.39111E-003	5.77366E-004	...........
	2	0.775	1.96017E-003	7.83227E-004	5.79066E-004	...........
	3	1.03333	1.74409E-003	2.28448E-004	5.74266E-004	...........
	4	1.29167	1.36236E-003	-2.78955E-004	5.74532E-004	...........
	5	1.55	8.64358E-004	-7.62520E-004	5.77366E-004	...........
	6	1.80833	3.25657E-004	-1.20974E-003	5.78332E-004	...........
	7	2.06667	-2.01430E-004	-1.63932E-003	5.83399E-004	...........
	8	2.325	-6.96354E-004	-2.04504E-003	5.81599E-004	...........
	9	2.58333	-1.15839E-003	-2.46623E-003	5.82299E-004	...........
	10	2.84167	-1.59467E-003	-2.83559E-003	5.81599E-004	...........
	11	3.1	-2.01031E-003	-3.11990E-003	5.80432E-004	...........
	12	3.35833	-2.40313E-003	-3.49854E-003	5.81099E-004	...........
	13	3.61667	-2.77152E-003	-3.84282E-003	5.86165E-004	...........
	14	3.875	-3.12245E-003	-4.14337E-003	5.78765E-004	...........
	15	4.13333	-3.46368E-003	-4.46591E-003	5.82099E-004	...........
	16	4.39167	-3.79648E-003	-4.77538E-003	5.83765E-004	...........
	17	4.65	-4.11921E-003	-5.01380E-003	5.84399E-004	...........
	18	4.90833	-4.43318E-003	-5.52320E-003	5.84965E-004	...........
EOC	QUANT	-0.0044332	Open Circuit (V)
PSTATMODEL	IQUANT	4	Pstat Model
PSTATSECTION	LABEL	REF600-11020	Pstat Section
PSTATSERIALNO	LABEL	11020	Pstat Serial Number
CTRLMODE	IQUANT	1	Control Mode
IESTAB	IQUANT	0	I/E Stability
CASPEED	IQUANT	1	Control Amp Speed
CONVENTION	IQUANT	1	Current Convention
ICHRANGE	IQUANT	2	Ich Range
ICHRANGEMODE	TOGGLE	F	Ich Auto Range
ICHOFFSETENABLE	TOGGLE	T	Ich Offset Enable
ICHOFFSET	QUANT	0	Ich Offset (V)
ICHFILTER	IQUANT	3	Ich Filter
VCHRANGE	IQUANT	2	Vch Range
VCHRANGEMODE	TOGGLE	F	Vch Auto Range
VCHOFFSETENABLE	TOGGLE	T	Vch Offset Enable
VCHOFFSET	QUANT	0	Vch Offset (V)
VCHFILTER	IQUANT	3	Vch Filter
ACHRANGE	IQUANT	2	Ach Range
ACHOFFSETENABLE	TOGGLE	F	Ach Offset Enable
ACHOFFSET	QUANT	0	Ach Offset (V)
ACHFILTER	IQUANT	3	Ach Filter
IERANGELOWERLIMIT	IQUANT	1	I/E Range Lower Limit
IERANGEMODE	TOGGLE	F	I/E AutoRange
IERANGE	IQUANT	2	I/E Range
POSFEEDENABLE	TOGGLE	F	Positive Feedback IR Comp
POSFEEDRESISTANCE	QUANT	0	Positive Feedback Resistance (ohm)
ACHSELECT	IQUANT	0	Ach Select
CABLEID	IQUANT	14	Cable ID
DCCALDATE	LABEL	8/19/2019	DC Calibration Date
ACCALDATE	LABEL	8/19/2019	AC Calibration Date
THERMOSELECT	IQUANT	1	Thermo Select
FRAMEWORKVERSION	QUANT	6.33	Framework Version
INSTRUMENTVERSION	LABEL	3.50	Instrument Version
ZCURVE	TABLE
	Pt	Time	Freq	Zreal	Zimag	Zsig	Zmod	Zphz	Idc	Vdc	IERange
	#	s	Hz	ohm	ohm	V	ohm	°	A	V	#
	0	2	1000078	2667.923	-2031.736	1	3353.471	-37.29081	2.907438E-006	-0.0025275	8
	1	3	794390.6	3065.305	-1970.132	1	3643.833	-32.72966	-6.563519E-006	-0.0013493	8
	2	5	630984.4	3453.223	-1850.009	1	3917.561	-28.17946	2.201728E-006	-0.0029645	8
	3	6	501234.4	3765.34	-1690.694	1	4127.497	-24.1808	-5.286819E-006	-0.0017356	8
	4	8	398109.4	4039.488	-1525.697	1	4318.011	-20.69133	-1.981221E-007	-0.0024074	8
	5	9	316265.6	4223.875	-1305.576	1	4421.046	-17.17609	-5.772186E-006	-0.0015809	8
	6	11	251203.1	4346.188	-1171.01	1	4501.179	-15.07934	-1.009085E-006	-0.0025343	8
	7	12	199546.9	4475.184	-1021.617	1	4590.313	-12.8594	4.481769E-006	-0.0036551	8
	8	13	158578.1	4590.663	-916.9802	1	4681.35	-11.2961	-8.320812E-007	-0.0029173	8
	9	15	125953.1	4673.635	-754.8563	1	4734.203	-9.174823	-6.346179E-007	-0.0016059	7
	10	16	100078.1	4737.177	-700.8533	1	4788.741	-8.415717	-2.853593E-008	-0.0028964	7
	11	18	79453.13	4792.701	-674.3516	1	4839.91	-8.00916	-1.56873E-008	-0.0027542	7
	12	19	63140.62	4846.657	-668.5857	1	4892.555	-7.854256	3.854422E-009	-0.0029836	7
	13	20	50203.12	4903.948	-678.965	1	4950.727	-7.882644	9.712338E-008	-0.0030708	7
	14	22	39890.62	4956.645	-705.8364	1	5006.648	-8.104548	1.072294E-007	-0.003113	7
	15	23	31640.63	5022.546	-753.3063	1	5078.725	-8.529922	-2.545738E-008	-0.0029172	7
	16	24	25171.88	5089.761	-817.7787	1	5155.04	-9.127777	6.082782E-008	-0.0030785	7
	17	26	20015.62	5162.653	-900.2628	1	5240.56	-9.89177	1.068497E-007	-0.0031158	7
	18	27	15890.62	5244.831	-1005.502	1	5340.345	-10.85266	-4.608209E-008	-0.0028752	7
	19	28	12609.37	5333.197	-1137.242	1	5453.101	-12.03737	4.396926E-008	-0.0029463	7
	20	30	10078.13	5432.359	-1290.133	1	5583.455	-13.3597	6.082936E-008	-0.003091	7
	21	31	8015.625	5546.375	-1476.994	1	5739.668	-14.91175	1.074091E-007	-0.0031206	7
	22	32	6328.125	5680.836	-1713.823	1	5933.725	-16.78777	1.064871E-007	-0.0031223	7
	23	34	5015.625	5828.51	-1990.558	1	6159.046	-18.85611	-4.818024E-009	-0.0028776	7
	24	35	3984.375	5994.239	-2315.649	1	6425.973	-21.12217	4.337871E-008	-0.0029529	7
	25	36	3170.956	6183.563	-2699.79	1	6747.245	-23.58644	8.685651E-008	-0.002952	7
	26	38	2527.573	6402.584	-3159.749	1	7139.825	-26.26687	-2.127496E-008	-0.0027516	7
	27	39	1976.103	6676.57	-3749.879	1	7657.557	-29.32063	4.290409E-009	-0.0029819	7
	28	40	1577.524	6963.819	-4406.377	1	8240.809	-32.3237	3.313948E-008	-0.003024	7
	29	42	1265.625	7287.201	-5158.504	1	8928.239	-35.29413	-5.080835E-008	-0.0028805	7
	30	43	998.264	7710.034	-6118.111	1	9842.56	-38.43291	-1.177503E-008	-0.0028704	6
	31	44	796.875	8155.66	-7211.208	1	10886.52	-41.48301	2.188879E-008	-0.0033509	6
	32	46	627.7902	8707.576	-8599.466	1	12238.17	-44.6421	8.183029E-009	-0.0029237	6
	33	47	505.5147	9287.657	-10103.35	1	13723.64	-47.40877	-1.329681E-009	-0.0029508	6
	34	48	397.9953	10003.36	-12087.99	1	15690.34	-50.39069	1.80643E-009	-0.0029575	6
	35	50	315.5048	10807.35	-14422.39	1	18022.33	-53.15411	6.741168E-010	-0.0029647	6
	36	51	252.4038	11695.2	-17134.14	1	20745.04	-55.68385	1.249102E-009	-0.0029638	6
	37	52	198.6229	12792.11	-20666.86	1	24305.49	-58.24384	1.501853E-009	-0.0029624	6
	38	53	158.3615	14002.3	-24741.62	1	28429.07	-60.4927	1.82018E-009	-0.0029708	6
	39	55	125.558	15499.25	-29825.09	1	33611.95	-62.54039	1.332191E-009	-0.0029666	6
	40	56	100.4464	17144.08	-35713.72	1	39615.52	-64.35705	5.559531E-010	-0.0029709	6
	41	57	79.00281	19377.57	-43698.57	1	47802.25	-66.08572	7.605929E-010	-0.0029736	6
	42	59	63.3446	21613.79	-51521.94	1	55871.88	-67.24164	1.485889E-009	-0.0029779	6
	43	60	49.86702	25884.75	-63968.68	1	69007.34	-67.96941	2.71207E-010	-0.0029692	6
	44	62	39.72458	29216.48	-76802.23	1	82171.69	-69.17259	1.190638E-009	-0.0029629	6
	45	63	31.6723	34605.27	-93018.36	1	99246.9	-69.59348	4.31898E-010	-0.0029721	6
	46	64	24.93351	40926.61	-113022.6	1	120204.4	-70.09418	6.160752E-010	-0.0029698	5
	47	66	19.86229	48633.8	-136219.9	1	144641.3	-70.35221	1.121466E-009	-0.0029557	5
	48	67	15.83615	57230.2	-161673.8	1	171504.3	-70.50677	-5.966076E-010	-0.0029657	5
	49	68	12.40079	70689.48	-200607.8	1	212698.1	-70.58874	1.28108E-009	-0.0029594	5
	50	70	9.93114	88943.48	-238253.4	1	254314	-69.52866	5.297371E-010	-0.0029682	5
	51	71	7.944915	108142.7	-281201.1	1	301278.8	-68.96455	9.551469E-010	-0.0029646	5
	52	73	6.317385	134763.3	-336457.5	1	362442.8	-68.17213	6.029079E-010	-0.002971	5
	53	75	5.008013	168145.9	-400180.6	1	434070.9	-67.20907	4.478641E-010	-0.0029541	5
	54	78	3.945707	209403.6	-478014	1	521869	-66.34322	1.050644E-010	-0.0029618	5
	55	80	3.158693	259491.9	-557230	1	614687.9	-65.02946	2.809617E-010	-0.0029677	5
	56	84	2.504006	321186.8	-653793.3	1	728427.5	-63.83666	3.027896E-010	-0.0029488	5
	57	86	1.998082	393300.8	-757730.5	1	853721.9	-62.56838	4.249847E-010	-0.0029445	5
	58	89	1.584686	485487.7	-876343.2	1	1001836	-61.01387	2.840165E-010	-0.0029921	5
	59	93	1.266892	586078.1	-1008814	1	1166702	-59.84523	2.372241E-010	-0.0029309	4
	60	97	0.999041	712080.8	-1158066	1	1359477	-58.41315	7.259077E-011	-0.0030083	4
