EXPLAIN
TAG	EISPOT
TITLE	LABEL	Potentiostatic EIS	Test &Identifier
DATE	LABEL	10/10/2019	Date
TIME	LABEL	7:51:09	Time
NOTES	NOTES	1	&Notes...
	
PSTAT	PSTAT	REF600-11020	Potentiostat
VDC	POTEN	0.00000E+000	T	DC &Voltage (V)
FREQINIT	QUANT	1.00000E+006	Initial Fre&q. (Hz)
FREQFINAL	QUANT	1.00000E+000	Final Fre&q. (Hz)
PTSPERDEC	QUANT	1.00000E+001	Points/&decade
VAC	QUANT	2.50000E+001	AC &Voltage (mV rms)
AREA	QUANT	1.00000E-002	&Area (cm^2)
CONDIT	TWOPARAM	T	5.00000E+000	0.00000E+000	Conditionin&g	Time(s)	E(V)
DELAY	TWOPARAM	T	5.00000E+000	0.00000E+000	Init. De&lay	Time(s)	Stab.(mV/s)
SPEED	SELECTOR	1	&Optimize for:
ZGUESS	QUANT	1.00000E+004	E&stimated Z (ohms)
OCVCURVE	TABLE	19
	Pt	T	Vf	Vm	Ach	Over
	#	s	V vs. Ref.	V	V	bits
	0	0.258333	5.53004E-003	5.53004E-003	5.37566E-004	...........
	1	0.516667	5.52905E-003	5.47797E-003	5.36999E-004	...........
	2	0.775	5.52376E-003	5.47161E-003	5.37533E-004	...........
	3	1.03333	5.51006E-003	5.38840E-003	5.34833E-004	...........
	4	1.29167	5.48337E-003	5.25440E-003	5.37999E-004	...........
	5	1.55	5.43812E-003	5.24348E-003	5.33566E-004	...........
	6	1.80833	5.37629E-003	5.22655E-003	5.42599E-004	...........
	7	2.06667	5.31364E-003	5.24393E-003	5.45866E-004	...........
	8	2.325	5.26736E-003	5.21513E-003	5.46099E-004	...........
	9	2.58333	5.24160E-003	5.22463E-003	5.42633E-004	...........
	10	2.84167	5.22967E-003	5.21728E-003	5.31300E-004	...........
	11	3.1	5.22421E-003	5.22277E-003	5.42533E-004	...........
	12	3.35833	5.22129E-003	5.20128E-003	5.42066E-004	...........
	13	3.61667	5.21850E-003	5.20463E-003	5.43599E-004	...........
	14	3.875	5.21429E-003	5.19656E-003	5.47333E-004	...........
	15	4.13333	5.20918E-003	5.20950E-003	5.43366E-004	...........
	16	4.39167	5.21032E-003	5.47192E-003	5.41666E-004	...........
	17	4.65	5.23085E-003	5.23753E-003	5.45799E-004	...........
	18	4.90833	5.26605E-003	5.19985E-003	5.43133E-004	...........
EOC	QUANT	0.0052661	Open Circuit (V)
PSTATMODEL	IQUANT	4	Pstat Model
PSTATSECTION	LABEL	REF600-11020	Pstat Section
PSTATSERIALNO	LABEL	11020	Pstat Serial Number
CTRLMODE	IQUANT	1	Control Mode
IESTAB	IQUANT	0	I/E Stability
CASPEED	IQUANT	1	Control Amp Speed
CONVENTION	IQUANT	1	Current Convention
ICHRANGE	IQUANT	2	Ich Range
ICHRANGEMODE	TOGGLE	F	Ich Auto Range
ICHOFFSETENABLE	TOGGLE	T	Ich Offset Enable
ICHOFFSET	QUANT	0	Ich Offset (V)
ICHFILTER	IQUANT	3	Ich Filter
VCHRANGE	IQUANT	2	Vch Range
VCHRANGEMODE	TOGGLE	F	Vch Auto Range
VCHOFFSETENABLE	TOGGLE	T	Vch Offset Enable
VCHOFFSET	QUANT	0	Vch Offset (V)
VCHFILTER	IQUANT	3	Vch Filter
ACHRANGE	IQUANT	2	Ach Range
ACHOFFSETENABLE	TOGGLE	F	Ach Offset Enable
ACHOFFSET	QUANT	0	Ach Offset (V)
ACHFILTER	IQUANT	3	Ach Filter
IERANGELOWERLIMIT	IQUANT	1	I/E Range Lower Limit
IERANGEMODE	TOGGLE	F	I/E AutoRange
IERANGE	IQUANT	5	I/E Range
POSFEEDENABLE	TOGGLE	F	Positive Feedback IR Comp
POSFEEDRESISTANCE	QUANT	0	Positive Feedback Resistance (ohm)
ACHSELECT	IQUANT	0	Ach Select
CABLEID	IQUANT	14	Cable ID
DCCALDATE	LABEL	8/19/2019	DC Calibration Date
ACCALDATE	LABEL	8/19/2019	AC Calibration Date
THERMOSELECT	IQUANT	1	Thermo Select
FRAMEWORKVERSION	QUANT	6.33	Framework Version
INSTRUMENTVERSION	LABEL	3.50	Instrument Version
ZCURVE	TABLE
	Pt	Time	Freq	Zreal	Zimag	Zsig	Zmod	Zphz	Idc	Vdc	IERange
	#	s	Hz	ohm	ohm	V	ohm	°	A	V	#
	0	1	1000078	1618.691	-1805.298	1	2424.719	-48.11953	1.529254E-006	0.0076043	8
	1	2	794390.6	1726.036	-2090.863	1	2711.256	-50.45985	-2.548069E-006	0.0077225	8
	2	4	630984.4	1850.398	-2464.49	1	3081.832	-53.0999	-4.214291E-007	0.0075005	8
	3	5	501234.4	1991.157	-2924.683	1	3538.146	-55.75253	-7.939688E-007	0.0073571	8
	4	7	398109.4	2187.376	-3507.563	1	4133.716	-58.05164	-1.507842E-006	0.0072834	8
	5	8	316265.6	2390.027	-4219.664	1	4849.515	-60.47269	-1.983191E-006	0.0074722	8
	6	9	251203.1	2699.331	-5090.004	1	5761.47	-62.0621	4.103361E-006	0.0062153	8
	7	11	199546.9	3132.453	-6161.421	1	6911.973	-63.05132	4.978181E-007	0.0066817	8
	8	13	158578.1	3693.966	-7451.884	1	8317.209	-63.63197	8.670406E-007	0.0068526	8
	9	14	125953.1	4572.277	-8899.495	1	10005.33	-62.80735	4.986621E-007	0.0058766	7
	10	16	100078.1	5515.833	-10602.26	1	11951.25	-62.51427	-6.037591E-008	0.0070762	7
	11	17	79453.13	6835.8	-12558.06	1	14298.01	-61.43897	8.138732E-008	0.0066697	7
	12	19	63140.62	8543.793	-14750.05	1	17045.83	-59.91894	5.216634E-009	0.0068675	7
	13	20	50203.12	10703.39	-17072.1	1	20149.92	-57.91426	-4.318902E-008	0.0069616	7
	14	22	39890.62	13400.25	-19437.76	1	23609.17	-55.41791	-7.437778E-008	0.006973	7
	15	23	31640.63	16725.35	-21793.18	1	27471.44	-52.49528	1.394745E-007	0.0066356	7
	16	25	25171.88	20439.38	-23882.08	1	31434.41	-49.44157	3.989996E-008	0.0068995	7
	17	26	20015.62	24633.63	-25680.88	1	35585.44	-46.19239	5.982463E-008	0.0067506	7
	18	28	15890.62	29209.56	-27136.79	1	39869.83	-42.89325	4.639912E-008	0.0066815	7
	19	29	12609.37	34180.64	-27863.87	1	44098.88	-39.18672	-1.149625E-008	0.0069001	6
	20	31	10078.13	38582.28	-28659.62	1	48062.11	-36.60564	-1.200108E-008	0.0069086	6
	21	32	8015.625	43083.26	-29193.2	1	52042.39	-34.12155	-8.685896E-009	0.0069777	6
	22	34	6328.125	47545.5	-29839.84	1	56133.68	-32.11263	1.694947E-008	0.0064405	6
	23	35	5015.625	51864.79	-30500.55	1	60168.43	-30.45886	2.05212E-008	0.0064752	6
	24	37	3984.375	54862.34	-31566.42	1	63295.45	-29.91505	7.281648E-008	0.0067038	7
	25	39	3170.956	60402.61	-32222.83	1	68460.1	-28.07848	-4.132509E-009	0.0069277	6
	26	40	2527.573	64633.24	-33564.18	1	72828.63	-27.44295	5.761254E-008	0.0067461	7
	27	42	1976.103	69165.42	-35258.39	1	77633.81	-27.01108	-5.950239E-009	0.0068307	6
	28	44	1577.524	73652.08	-36698.14	1	82288.41	-26.4854	-8.231424E-009	0.0068995	6
	29	45	1265.625	78640.71	-38875.98	1	87725.16	-26.30546	1.975242E-008	0.0064761	6
	30	47	998.264	83889.48	-41261.93	1	93487.93	-26.19075	6.383201E-009	0.006598	6
	31	48	796.875	89973.88	-42980.94	1	99712.9	-25.53402	-1.045945E-009	0.0069711	5
	32	49	627.7902	96086.4	-46120.22	1	106581.7	-25.6404	5.958705E-010	0.0068712	5
	33	51	505.5147	102253.4	-49291.13	1	113513.8	-25.73634	4.160318E-010	0.0067926	5
	34	52	397.9953	109331.4	-52898.97	1	121456.4	-25.81958	-4.621846E-010	0.0067772	5
	35	54	315.5048	116849.3	-56453.21	1	129771.8	-25.7865	3.324221E-010	0.0067764	5
	36	55	252.4038	124064.3	-60258.38	1	137924	-25.90597	1.906305E-010	0.0067721	5
	37	56	198.6229	132322.4	-64965.85	1	147410.3	-26.14948	-4.760323E-011	0.0067701	5
	38	58	158.3615	140116.6	-69956.26	1	156609.5	-26.53166	-1.312052E-010	0.0067693	5
	39	59	125.558	148250.4	-75805.91	1	166507.4	-27.08234	-1.376453E-010	0.0067731	5
	40	61	100.4464	157015.9	-82473.64	1	177358.1	-27.711	1.986729E-010	0.0067696	5
	41	62	79.00281	167891.7	-91293.97	1	191107.9	-28.53588	1.033273E-010	0.0067711	5
	42	64	63.3446	186612	-99555.9	1	211507.5	-28.07954	2.401192E-010	0.006773	5
	43	65	49.86702	189090.9	-114518.1	1	221065.1	-31.20014	2.593228E-010	0.006768	5
	44	67	39.72458	200811.7	-128452.4	1	238380.7	-32.60565	7.937439E-011	0.0067729	5
	45	68	31.6723	214656	-142140.2	1	257451	-33.5116	1.300551E-010	0.0067686	5
	46	70	24.93351	231279.3	-162894.3	1	282886.3	-35.15775	6.705046E-011	0.0067632	5
	47	71	19.86229	249260.4	-185489.2	1	310704	-36.65508	3.384666E-010	0.006773	5
	48	72	15.83615	264973	-212273.9	1	339515.7	-38.69875	-5.378544E-010	0.006768	5
	49	74	12.40079	298194.9	-245970.2	1	386550.9	-39.51799	1.171156E-009	0.0067661	5
	50	75	9.93114	315802.3	-275190.9	1	418880.8	-41.06897	2.515761E-010	0.0067721	5
	51	77	7.944915	349418.5	-313098.1	1	469173.4	-41.86208	5.820734E-011	0.0067734	5
	52	79	6.317385	380507.5	-357936.9	1	522402.9	-43.24929	1.285606E-010	0.0067854	5
	53	81	5.008013	422537.1	-411730.4	1	589965.6	-44.25786	1.608165E-010	0.0067727	5
	54	83	3.945707	473109.2	-476320	1	671351.7	-45.19377	7.013617E-010	0.006773	6
	55	86	3.158693	529620	-543002.5	1	758517.7	-45.71481	6.091378E-010	0.0067864	6
	56	90	2.504006	600313.1	-618496.9	1	861924.7	-45.85475	-1.730514E-010	0.0067714	5
	57	93	1.998082	678929.8	-700260.2	1	975351	-45.88606	5.550993E-011	0.0067281	5
	58	96	1.584686	771548.5	-789839.1	1	1104144	-45.67115	-2.697895E-011	0.0067972	4
	59	99	1.266892	875115.4	-884031.3	1	1243921	-45.29039	-9.848821E-012	0.0067382	4
	60	104	0.999041	994622	-989117	1	1402721	-44.841	1.514279E-010	0.0068151	4
