EXPLAIN
TAG	EISPOT
TITLE	LABEL	Potentiostatic EIS	Test &Identifier
DATE	LABEL	10/12/2019	Date
TIME	LABEL	9:54:32	Time
NOTES	NOTES	1	&Notes...
	
PSTAT	PSTAT	REF600-11020	Potentiostat
VDC	POTEN	0.00000E+000	T	DC &Voltage (V)
FREQINIT	QUANT	1.00000E+006	Initial Fre&q. (Hz)
FREQFINAL	QUANT	1.00000E+000	Final Fre&q. (Hz)
PTSPERDEC	QUANT	1.00000E+001	Points/&decade
VAC	QUANT	2.50000E+001	AC &Voltage (mV rms)
AREA	QUANT	1.00000E-002	&Area (cm^2)
CONDIT	TWOPARAM	T	5.00000E+000	0.00000E+000	Conditionin&g	Time(s)	E(V)
DELAY	TWOPARAM	T	5.00000E+000	0.00000E+000	Init. De&lay	Time(s)	Stab.(mV/s)
SPEED	SELECTOR	1	&Optimize for:
ZGUESS	QUANT	1.00000E+004	E&stimated Z (ohms)
OCVCURVE	TABLE	19
	Pt	T	Vf	Vm	Ach	Over
	#	s	V vs. Ref.	V	V	bits
	0	0.258333	4.24918E-003	4.24918E-003	5.38466E-004	...........
	1	0.516667	4.22926E-003	3.20654E-003	5.42433E-004	...........
	2	0.775	3.99177E-003	-3.81102E-003	5.39999E-004	...........
	3	1.03333	2.66680E-003	-2.46959E-002	5.35399E-004	...........
	4	1.29167	-1.24946E-003	-2.51037E-002	5.38499E-004	...........
	5	1.55	-7.98971E-003	-2.05424E-002	5.42766E-004	...........
	6	1.80833	-1.50560E-002	-1.68761E-002	5.52832E-004	...........
	7	2.06667	-1.92871E-002	-1.25302E-002	5.43566E-004	...........
	8	2.325	-1.96305E-002	-7.28160E-003	5.44666E-004	...........
	9	2.58333	-1.69620E-002	6.59210E-004	5.46799E-004	...........
	10	2.84167	-1.23690E-002	9.59796E-003	5.50333E-004	...........
	11	3.1	-6.44836E-003	1.36554E-002	5.36899E-004	...........
	12	3.35833	1.04140E-004	1.21242E-002	5.38333E-004	...........
	13	3.61667	5.88741E-003	6.87814E-003	5.43766E-004	...........
	14	3.875	9.34201E-003	6.18752E-003	5.46099E-004	...........
	15	4.13333	1.00335E-002	6.87567E-003	5.39633E-004	...........
	16	4.39167	9.00701E-003	5.91582E-003	5.45799E-004	...........
	17	4.65	7.66405E-003	5.65767E-003	5.44733E-004	...........
	18	4.90833	6.58846E-003	3.68989E-004	5.38833E-004	...........
EOC	QUANT	0.0065885	Open Circuit (V)
PSTATMODEL	IQUANT	4	Pstat Model
PSTATSECTION	LABEL	REF600-11020	Pstat Section
PSTATSERIALNO	LABEL	11020	Pstat Serial Number
CTRLMODE	IQUANT	1	Control Mode
IESTAB	IQUANT	0	I/E Stability
CASPEED	IQUANT	1	Control Amp Speed
CONVENTION	IQUANT	1	Current Convention
ICHRANGE	IQUANT	2	Ich Range
ICHRANGEMODE	TOGGLE	F	Ich Auto Range
ICHOFFSETENABLE	TOGGLE	T	Ich Offset Enable
ICHOFFSET	QUANT	0	Ich Offset (V)
ICHFILTER	IQUANT	3	Ich Filter
VCHRANGE	IQUANT	2	Vch Range
VCHRANGEMODE	TOGGLE	F	Vch Auto Range
VCHOFFSETENABLE	TOGGLE	T	Vch Offset Enable
VCHOFFSET	QUANT	0	Vch Offset (V)
VCHFILTER	IQUANT	3	Vch Filter
ACHRANGE	IQUANT	2	Ach Range
ACHOFFSETENABLE	TOGGLE	F	Ach Offset Enable
ACHOFFSET	QUANT	0	Ach Offset (V)
ACHFILTER	IQUANT	3	Ach Filter
IERANGELOWERLIMIT	IQUANT	1	I/E Range Lower Limit
IERANGEMODE	TOGGLE	F	I/E AutoRange
IERANGE	IQUANT	6	I/E Range
POSFEEDENABLE	TOGGLE	F	Positive Feedback IR Comp
POSFEEDRESISTANCE	QUANT	0	Positive Feedback Resistance (ohm)
ACHSELECT	IQUANT	0	Ach Select
CABLEID	IQUANT	14	Cable ID
DCCALDATE	LABEL	8/19/2019	DC Calibration Date
ACCALDATE	LABEL	8/19/2019	AC Calibration Date
THERMOSELECT	IQUANT	1	Thermo Select
FRAMEWORKVERSION	QUANT	6.33	Framework Version
INSTRUMENTVERSION	LABEL	3.50	Instrument Version
ZCURVE	TABLE
	Pt	Time	Freq	Zreal	Zimag	Zsig	Zmod	Zphz	Idc	Vdc	IERange
	#	s	Hz	ohm	ohm	V	ohm	°	A	V	#
	0	1	1000078	2325.791	-1701.93	1	2881.99	-36.19532	2.996131E-006	0.0088081	8
	1	3	794390.6	2654.892	-1704.67	1	3155.052	-32.70396	8.301723E-007	0.0080646	8
	2	4	630984.4	2976.212	-1632.606	1	3394.59	-28.74704	-1.122875E-006	0.00861	8
	3	6	501234.4	3259.397	-1548.949	1	3608.727	-25.41826	-6.432069E-007	0.0085691	8
	4	7	398109.4	3515.234	-1430.724	1	3795.239	-22.14665	6.211615E-007	0.0082381	8
	5	8	316265.6	3743.669	-1295.418	1	3961.46	-19.0871	7.940305E-007	0.0081153	8
	6	10	251203.1	3942.869	-1127.516	1	4100.916	-15.95858	-1.893764E-006	0.0086265	8
	7	11	199546.9	4086.84	-999.886	1	4207.378	-13.74793	5.737969E-007	0.0080958	8
	8	13	158578.1	4200.462	-882.6481	1	4292.197	-11.86698	1.408952E-006	0.0077873	8
	9	14	125953.1	4317.663	-711.3083	1	4375.862	-9.355096	-3.926341E-008	0.0089105	7
	10	16	100078.1	4378.854	-620.9861	1	4422.667	-8.071566	-1.319478E-008	0.0081187	7
	11	17	79453.13	4431.725	-549.7416	1	4465.691	-7.07124	-6.051684E-008	0.0081903	7
	12	18	63140.62	4479.951	-494.7375	1	4507.186	-6.301849	7.390459E-008	0.0079229	7
	13	20	50203.12	4519.177	-452.2444	1	4541.749	-5.714694	4.307695E-008	0.0080204	7
	14	21	39890.62	4553.947	-422.8549	1	4573.537	-5.304965	-1.743443E-008	0.0081161	7
	15	22	31640.63	4585.649	-406.4239	1	4603.625	-5.064863	7.658619E-008	0.0079189	7
	16	24	25171.88	4615.654	-401.8013	1	4633.11	-4.975163	4.387238E-008	0.0079429	7
	17	25	20015.62	4658.76	-409.094	1	4676.687	-5.018372	6.0509E-008	0.0079779	7
	18	26	15890.62	4677.012	-427.9217	1	4696.548	-5.227704	1.172495E-007	0.0078984	7
	19	28	12609.37	4703.549	-458.2016	1	4725.815	-5.563978	-1.337448E-008	0.0081058	7
	20	29	10078.13	4733.926	-499.943	1	4760.251	-6.028578	5.95339E-008	0.0079758	7
	21	30	8015.625	4769.696	-568.0503	1	4803.403	-6.791691	-7.235597E-008	0.0081609	7
	22	32	6328.125	4801.491	-641.9571	1	4844.215	-7.615258	1.281034E-008	0.0079992	7
	23	33	5015.625	4839.996	-745.9291	1	4897.139	-8.761361	-1.248218E-008	0.008104	7
	24	34	3984.375	4884.083	-866.4728	1	4960.347	-10.06003	8.59568E-009	0.0080048	7
	25	36	3170.956	4929.183	-1034.745	1	5036.62	-11.85552	1.710778E-008	0.0081462	7
	26	37	2527.573	4981.671	-1230.05	1	5131.283	-13.86977	-4.212058E-008	0.0081665	7
	27	39	1976.103	5046.416	-1490.475	1	5261.923	-16.45468	-2.047078E-008	0.0080459	7
	28	40	1577.524	5106.65	-1758.688	1	5401.005	-19.00328	1.688589E-008	0.00815	7
	29	41	1265.625	5199.721	-2143.94	1	5624.373	-22.40725	-9.603667E-009	0.0081149	7
	30	43	998.264	5297.305	-2613.051	1	5906.731	-26.25617	-6.425433E-008	0.0081866	7
	31	44	796.875	5408.323	-3164.323	1	6266.011	-30.33121	1.193456E-007	0.0078868	7
	32	45	627.7902	5547.638	-3880.196	1	6769.949	-34.97018	1.038642E-007	0.0079797	7
	33	47	505.5147	5691.446	-4685.71	1	7372.139	-39.46429	-7.400418E-008	0.0082905	7
	34	48	397.9953	5888.711	-5773.64	1	8246.93	-44.43468	7.194062E-009	0.0080784	7
	35	49	315.5048	6118.868	-7088.153	1	9363.892	-49.19751	7.008236E-009	0.0080766	7
	36	51	252.4038	6395.17	-8641.71	1	10750.69	-53.49725	4.413431E-010	0.008013	6
	37	52	198.6229	6765.933	-10703.19	1	12662.39	-57.70132	1.26608E-009	0.008015	6
	38	53	158.3615	7215.432	-13108.72	1	14963.33	-61.1703	1.074145E-009	0.0080093	6
	39	55	125.558	7798.028	-16145.16	1	17929.73	-64.2197	9.399952E-010	0.0080144	6
	40	56	100.4464	8542.075	-19700.78	1	21472.95	-66.55889	2.89436E-010	0.0080133	6
	41	57	79.00281	9604.63	-24449.38	1	26268.25	-68.55324	5.655292E-010	0.0080187	6
	42	59	63.3446	10875.23	-29481.35	1	31423.25	-69.75173	3.423067E-010	0.0080079	6
	43	60	49.86702	12754.47	-36848.68	1	38993.61	-70.90768	1.413929E-009	0.008009	6
	44	62	39.72458	14813.85	-44835.93	1	47219.81	-71.71638	7.868988E-010	0.0080133	6
	45	63	31.6723	17886.2	-54492.3	1	57352.66	-71.82843	7.512911E-010	0.0080081	6
	46	64	24.93351	21972.63	-66872.3	1	70389.64	-71.81072	8.855033E-010	0.0080074	6
	47	66	19.86229	27217.33	-80855.03	1	85313.06	-71.3958	6.335356E-010	0.0080162	6
	48	67	15.83615	33779.2	-97438	1	103127.1	-70.87991	1.102191E-009	0.008015	6
	49	68	12.40079	44329.56	-117452.4	1	125539.6	-69.3222	-6.435729E-010	0.0080239	5
	50	70	9.93114	55865.03	-140309	1	151021.6	-68.28968	6.031863E-012	0.0080182	5
	51	71	7.944915	69862.16	-165077.5	1	179252.1	-67.06152	1.086724E-009	0.0080162	5
	52	73	6.317385	89882.95	-193532.9	1	213386.8	-65.08832	7.94404E-010	0.0080259	5
	53	75	5.008013	113517.9	-225896.3	1	252815	-63.31946	5.256413E-010	0.0080249	5
	54	78	3.945707	142872.3	-261635.7	1	298103.5	-61.36222	-1.385965E-010	0.0080111	5
	55	80	3.158693	174843.2	-297695.3	1	345242.9	-59.57333	3.411069E-010	0.0080197	5
	56	84	2.504006	212529.7	-338112.6	1	399360.7	-57.84748	-1.828628E-010	0.0080175	5
	57	86	1.998082	251798	-379279.4	1	455252.8	-56.4204	3.469597E-010	0.0079758	5
	58	89	1.584686	296176	-428053.3	1	520528.5	-55.32011	1.792782E-012	0.0079728	5
	59	93	1.266892	340810.6	-478624.3	1	587565.3	-54.54674	2.949659E-010	0.0079745	5
	60	97	0.999041	392245.7	-543671	1	670399	-54.19044	-2.616494E-011	0.0080232	5
