EXPLAIN
TAG	EISPOT
TITLE	LABEL	Potentiostatic EIS	Test &Identifier
DATE	LABEL	11/9/2019	Date
TIME	LABEL	9:45:07	Time
NOTES	NOTES	2	&Notes...
	
	
PSTAT	PSTAT	REF600-11020	Potentiostat
VDC	POTEN	0.00000E+000	T	DC &Voltage (V)
FREQINIT	QUANT	1.00000E+006	Initial Fre&q. (Hz)
FREQFINAL	QUANT	1.00000E+000	Final Fre&q. (Hz)
PTSPERDEC	QUANT	1.00000E+001	Points/&decade
VAC	QUANT	2.50000E+001	AC &Voltage (mV rms)
AREA	QUANT	1.00000E-002	&Area (cm^2)
CONDIT	TWOPARAM	T	5.00000E+000	0.00000E+000	Conditionin&g	Time(s)	E(V)
DELAY	TWOPARAM	T	5.00000E+000	0.00000E+000	Init. De&lay	Time(s)	Stab.(mV/s)
SPEED	SELECTOR	0	&Optimize for:
ZGUESS	QUANT	1.00000E+005	E&stimated Z (ohms)
OCVCURVE	TABLE	19
	Pt	T	Vf	Vm	Ach	Over
	#	s	V vs. Ref.	V	V	bits
	0	0.258333	4.20599E-003	4.20599E-003	5.66732E-004	...........
	1	0.516667	4.20638E-003	4.22660E-003	5.61232E-004	...........
	2	0.775	4.20724E-003	4.16443E-003	5.71699E-004	...........
	3	1.03333	4.20607E-003	4.18852E-003	5.69832E-004	...........
	4	1.29167	4.19979E-003	4.15214E-003	5.65266E-004	...........
	5	1.55	4.18923E-003	4.17329E-003	5.65332E-004	...........
	6	1.80833	4.17837E-003	4.16003E-003	5.68166E-004	...........
	7	2.06667	4.17058E-003	4.17390E-003	5.66866E-004	...........
	8	2.325	4.16716E-003	4.17635E-003	5.67066E-004	...........
	9	2.58333	4.16801E-003	4.19512E-003	5.67666E-004	...........
	10	2.84167	4.17267E-003	4.19713E-003	5.67666E-004	...........
	11	3.1	4.18047E-003	4.22166E-003	5.66566E-004	...........
	12	3.35833	4.19054E-003	4.22168E-003	5.68166E-004	...........
	13	3.61667	4.20217E-003	4.25269E-003	5.70532E-004	...........
	14	3.875	4.21481E-003	4.24108E-003	5.67766E-004	...........
	15	4.13333	4.22782E-003	4.28261E-003	5.71732E-004	...........
	16	4.39167	4.24075E-003	4.26284E-003	5.68366E-004	...........
	17	4.65	4.25352E-003	4.31014E-003	5.65332E-004	...........
	18	4.90833	4.26615E-003	4.28546E-003	5.62332E-004	...........
EOC	QUANT	0.0042661	Open Circuit (V)
PSTATMODEL	IQUANT	4	Pstat Model
PSTATSECTION	LABEL	REF600-11020	Pstat Section
PSTATSERIALNO	LABEL	11020	Pstat Serial Number
CTRLMODE	IQUANT	1	Control Mode
IESTAB	IQUANT	0	I/E Stability
CASPEED	IQUANT	1	Control Amp Speed
CONVENTION	IQUANT	1	Current Convention
ICHRANGE	IQUANT	2	Ich Range
ICHRANGEMODE	TOGGLE	F	Ich Auto Range
ICHOFFSETENABLE	TOGGLE	T	Ich Offset Enable
ICHOFFSET	QUANT	0	Ich Offset (V)
ICHFILTER	IQUANT	3	Ich Filter
VCHRANGE	IQUANT	2	Vch Range
VCHRANGEMODE	TOGGLE	F	Vch Auto Range
VCHOFFSETENABLE	TOGGLE	T	Vch Offset Enable
VCHOFFSET	QUANT	0	Vch Offset (V)
VCHFILTER	IQUANT	3	Vch Filter
ACHRANGE	IQUANT	2	Ach Range
ACHOFFSETENABLE	TOGGLE	F	Ach Offset Enable
ACHOFFSET	QUANT	0	Ach Offset (V)
ACHFILTER	IQUANT	3	Ach Filter
IERANGELOWERLIMIT	IQUANT	1	I/E Range Lower Limit
IERANGEMODE	TOGGLE	F	I/E AutoRange
IERANGE	IQUANT	4	I/E Range
POSFEEDENABLE	TOGGLE	F	Positive Feedback IR Comp
POSFEEDRESISTANCE	QUANT	0	Positive Feedback Resistance (ohm)
ACHSELECT	IQUANT	0	Ach Select
CABLEID	IQUANT	14	Cable ID
DCCALDATE	LABEL	8/19/2019	DC Calibration Date
ACCALDATE	LABEL	8/19/2019	AC Calibration Date
THERMOSELECT	IQUANT	1	Thermo Select
FRAMEWORKVERSION	QUANT	6.33	Framework Version
INSTRUMENTVERSION	LABEL	3.50	Instrument Version
ZCURVE	TABLE
	Pt	Time	Freq	Zreal	Zimag	Zsig	Zmod	Zphz	Idc	Vdc	IERange
	#	s	Hz	ohm	ohm	V	ohm	°	A	V	#
	0	1	1000078	2159.895	-1297.445	1	2519.625	-30.99316	-4.767893E-006	0.0062198	8
	1	1	794390.6	2441.118	-1267.155	1	2750.407	-27.43329	-8.079222E-006	0.0075239	8
	2	2	630984.4	2638.827	-1200.252	1	2898.968	-24.45809	-4.827061E-006	0.006477	8
	3	2	501234.4	2846.202	-1125.396	1	3060.618	-21.57397	1.014831E-005	0.0048571	8
	4	2	398109.4	2996.607	-1041.978	1	3172.597	-19.17355	1.507816E-006	0.0062241	8
	5	2	316265.6	3159.546	-972.335	1	3305.778	-17.10549	8.692292E-006	0.0048649	8
	6	3	251203.1	3282.313	-891.1412	1	3401.134	-15.18954	-3.826877E-006	0.0065126	8
	7	3	199546.9	3424.811	-825.4615	1	3522.884	-13.5512	-1.682643E-006	0.0063359	8
	8	3	158578.1	3523.637	-773.0701	1	3607.444	-12.37438	-7.639733E-008	0.005447	8
	9	4	125953.1	3606.707	-626.6156	1	3660.735	-9.85597	-3.859052E-006	0.0106928	7
	10	4	100078.1	3691.934	-578.7175	1	3737.016	-8.908727	9.484691E-007	0.00361	7
	11	4	79453.13	3761.657	-529.1003	1	3798.685	-8.006481	-1.355982E-006	0.0077872	7
	12	5	63140.62	3827.176	-504.4182	1	3860.274	-7.508254	1.021995E-006	0.0055113	7
	13	5	50203.12	3875.458	-477.2713	1	3904.736	-7.020752	-1.104281E-006	0.0078505	7
	14	5	39890.62	3920.031	-466.1088	1	3947.645	-6.780882	-1.100957E-006	0.0078531	7
	15	6	31640.63	3971.483	-448.6416	1	3996.743	-6.445138	5.891857E-007	0.0037255	7
	16	6	25171.88	4004.621	-455.3993	1	4030.432	-6.487716	-7.55985E-007	0.0077498	7
	17	6	20015.62	4045.154	-459.5539	1	4071.175	-6.481358	-1.101267E-006	0.0078455	7
	18	7	15890.62	4087.545	-496.1569	1	4117.547	-6.920854	-1.288694E-006	0.0064073	7
	19	7	12609.37	4116.738	-527.958	1	4150.454	-7.308103	-1.51985E-006	0.0075773	7
	20	7	10078.13	4151.803	-578.3908	1	4191.897	-7.930875	5.866604E-007	0.0037259	7
	21	8	8015.625	4186.765	-651.5202	1	4237.155	-8.845097	-1.518608E-006	0.0075699	7
	22	8	6328.125	4228.084	-759.0104	1	4295.672	-10.17713	1.370163E-007	0.0040844	7
	23	8	5015.625	4273.083	-880.9424	1	4362.946	-11.64894	-1.513476E-006	0.0075624	7
	24	8	3984.375	4319.412	-1035.951	1	4441.904	-13.48686	-7.591714E-007	0.0077459	7
	25	9	3170.956	4373.409	-1222.07	1	4540.942	-15.61206	5.90339E-007	0.0037337	7
	26	9	2527.573	4435.474	-1473.565	1	4673.844	-18.37766	1.239996E-006	0.0049026	7
	27	9	1976.103	4506.45	-1785.598	1	4847.314	-21.61503	-1.353768E-006	0.0077694	7
	28	10	1577.524	4586.66	-2147.445	1	5064.481	-25.08869	1.337716E-006	0.0039758	7
	29	10	1265.625	4682.883	-2572.84	1	5343.117	-28.785	8.979264E-008	0.0069425	7
	30	10	998.264	4796.709	-3158.445	1	5743.187	-33.36334	-7.629485E-007	0.0077303	7
	31	11	796.875	4966.495	-3834.575	1	6274.555	-37.67133	-3.737002E-007	0.0047175	7
	32	11	627.7902	5125.229	-4735.943	1	6978.333	-42.73933	1.196888E-006	0.0036953	7
	33	11	505.5147	5335.813	-5692.197	1	7802.052	-46.85094	9.243836E-008	0.0069532	7
	34	12	397.9953	5626.647	-7027.716	1	9002.664	-51.31796	1.545027E-009	0.0057991	7
	35	12	315.5048	5991.211	-8617.31	1	10495.36	-55.19092	-1.799568E-010	0.0057276	6
	36	12	252.4038	6445.059	-10476.26	1	12300.04	-58.39993	1.73664E-009	0.0057319	6
	37	13	198.6229	7078.01	-12922.63	1	14734.06	-61.28951	8.490179E-011	0.0057321	6
	38	13	158.3615	7856.823	-15727.48	1	17580.76	-63.45511	1.261441E-009	0.0057369	6
	39	13	125.558	8925.836	-19237.97	1	21207.78	-65.11012	-1.712668E-010	0.0057354	6
	40	14	100.4464	10231.48	-23207.91	1	25363.17	-66.20914	1.246012E-009	0.0057298	6
	41	14	79.00281	12224.11	-28276.75	1	30805.89	-66.62106	-1.629615E-010	0.0057303	6
	42	14	63.3446	14887.32	-34787.19	1	37838.88	-66.8313	7.636133E-010	0.0057302	6
	43	15	49.86702	17977.4	-41806.08	1	45507.53	-66.73138	5.509314E-010	0.0057261	6
	44	15	39.72458	22281.76	-49087.14	1	53907.55	-65.58563	1.030285E-009	0.0057188	6
	45	16	31.6723	27592.96	-58343.98	1	64539.84	-64.68885	2.137225E-010	0.0057323	6
	46	16	24.93351	34341.91	-68438.02	1	76571.07	-63.3527	3.027847E-010	0.0057147	6
	47	16	19.86229	42223.53	-79442.98	1	89966.74	-62.00959	1.926866E-009	0.0057223	6
	48	16	15.83615	51490.1	-92560.08	1	105917.9	-60.91332	7.709507E-011	0.0057198	5
	49	17	12.40079	65865.04	-104812.3	1	123789.4	-57.85436	3.100526E-009	0.0057169	5
	50	17	9.93114	76268.35	-119594.9	1	141844.3	-57.47343	-1.170376E-009	0.0057296	5
	51	18	7.944915	90033.3	-134651.2	1	161978.2	-56.23169	-6.951488E-010	0.005733	5
	52	18	6.317385	105772.9	-152543.7	1	185627.3	-55.26279	-3.182538E-010	0.005728	5
	53	19	5.008013	123032.1	-173131.7	1	212394.7	-54.60137	-6.015903E-010	0.0057192	5
	54	20	3.945707	141972.4	-196355	1	242304.4	-54.13158	-2.031833E-011	0.0057249	5
	55	22	3.158693	162138.6	-221834.6	1	274771.8	-53.83698	5.21503E-011	0.0057498	5
	56	23	2.504006	185119.2	-253258.2	1	313701.8	-53.83504	-2.728157E-010	0.0057259	5
	57	24	1.998082	208861.7	-288269.3	1	355980.9	-54.07529	-3.683478E-011	0.0057328	5
	58	26	1.584686	237598.4	-331187.3	1	407600.3	-54.34381	1.573278E-010	0.0057717	5
	59	28	1.266892	267392.3	-380631.4	1	465165.5	-54.91209	1.272756E-010	0.0057494	5
	60	30	0.999041	303136.8	-441371.7	1	535444.6	-55.51847	1.114299E-010	0.0057316	5
