EXPLAIN
TAG	EISPOT
TITLE	LABEL	Potentiostatic EIS	Test &Identifier
DATE	LABEL	9/24/2019	Date
TIME	LABEL	8:25:45	Time
NOTES	NOTES	1	&Notes...
	
PSTAT	PSTAT	REF600-11020	Potentiostat
VDC	POTEN	0.00000E+000	T	DC &Voltage (V)
FREQINIT	QUANT	1.00000E+006	Initial Fre&q. (Hz)
FREQFINAL	QUANT	1.00000E+000	Final Fre&q. (Hz)
PTSPERDEC	QUANT	1.00000E+001	Points/&decade
VAC	QUANT	2.50000E+001	AC &Voltage (mV rms)
AREA	QUANT	1.00000E-002	&Area (cm^2)
CONDIT	TWOPARAM	T	5.00000E+000	0.00000E+000	Conditionin&g	Time(s)	E(V)
DELAY	TWOPARAM	T	5.00000E+000	0.00000E+000	Init. De&lay	Time(s)	Stab.(mV/s)
SPEED	SELECTOR	1	&Optimize for:
ZGUESS	QUANT	1.00000E+004	E&stimated Z (ohms)
OCVCURVE	TABLE	19
	Pt	T	Vf	Vm	Ach	Over
	#	s	V vs. Ref.	V	V	bits
	0	0.258333	1.10961E-002	1.10961E-002	5.70199E-004	...........
	1	0.516667	1.11068E-002	1.16595E-002	5.73632E-004	...........
	2	0.775	1.11614E-002	1.15889E-002	5.71099E-004	...........
	3	1.03333	1.12835E-002	1.18467E-002	5.74665E-004	...........
	4	1.29167	1.14550E-002	1.21072E-002	5.68899E-004	...........
	5	1.55	1.16487E-002	1.23529E-002	5.66232E-004	...........
	6	1.80833	1.18637E-002	1.28050E-002	5.68799E-004	...........
	7	2.06667	1.21087E-002	1.28000E-002	5.66966E-004	...........
	8	2.325	1.23705E-002	1.30297E-002	5.69699E-004	...........
	9	2.58333	1.26170E-002	1.32533E-002	5.67532E-004	...........
	10	2.84167	1.28341E-002	1.34605E-002	5.68599E-004	...........
	11	3.1	1.30358E-002	1.36629E-002	5.65932E-004	...........
	12	3.35833	1.32387E-002	1.39532E-002	5.64932E-004	...........
	13	3.61667	1.34485E-002	1.40175E-002	5.64032E-004	...........
	14	3.875	1.36586E-002	1.42153E-002	5.62266E-004	...........
	15	4.13333	1.38555E-002	1.43952E-002	5.71532E-004	...........
	16	4.39167	1.40362E-002	1.45806E-002	5.70432E-004	...........
	17	4.65	1.42097E-002	1.47358E-002	5.69399E-004	...........
	18	4.90833	1.43832E-002	1.49296E-002	5.64799E-004	...........
EOC	QUANT	0.0143832	Open Circuit (V)
PSTATMODEL	IQUANT	4	Pstat Model
PSTATSECTION	LABEL	REF600-11020	Pstat Section
PSTATSERIALNO	LABEL	11020	Pstat Serial Number
CTRLMODE	IQUANT	1	Control Mode
IESTAB	IQUANT	0	I/E Stability
CASPEED	IQUANT	1	Control Amp Speed
CONVENTION	IQUANT	1	Current Convention
ICHRANGE	IQUANT	2	Ich Range
ICHRANGEMODE	TOGGLE	F	Ich Auto Range
ICHOFFSETENABLE	TOGGLE	T	Ich Offset Enable
ICHOFFSET	QUANT	0	Ich Offset (V)
ICHFILTER	IQUANT	3	Ich Filter
VCHRANGE	IQUANT	2	Vch Range
VCHRANGEMODE	TOGGLE	F	Vch Auto Range
VCHOFFSETENABLE	TOGGLE	T	Vch Offset Enable
VCHOFFSET	QUANT	0	Vch Offset (V)
VCHFILTER	IQUANT	3	Vch Filter
ACHRANGE	IQUANT	2	Ach Range
ACHOFFSETENABLE	TOGGLE	F	Ach Offset Enable
ACHOFFSET	QUANT	0	Ach Offset (V)
ACHFILTER	IQUANT	3	Ach Filter
IERANGELOWERLIMIT	IQUANT	1	I/E Range Lower Limit
IERANGEMODE	TOGGLE	F	I/E AutoRange
IERANGE	IQUANT	6	I/E Range
POSFEEDENABLE	TOGGLE	F	Positive Feedback IR Comp
POSFEEDRESISTANCE	QUANT	0	Positive Feedback Resistance (ohm)
ACHSELECT	IQUANT	0	Ach Select
CABLEID	IQUANT	14	Cable ID
DCCALDATE	LABEL	8/19/2019	DC Calibration Date
ACCALDATE	LABEL	8/19/2019	AC Calibration Date
THERMOSELECT	IQUANT	1	Thermo Select
FRAMEWORKVERSION	QUANT	6.33	Framework Version
INSTRUMENTVERSION	LABEL	3.50	Instrument Version
ZCURVE	TABLE
	Pt	Time	Freq	Zreal	Zimag	Zsig	Zmod	Zphz	Idc	Vdc	IERange
	#	s	Hz	ohm	ohm	V	ohm	°	A	V	#
	0	1	1000078	2208.728	-1506.324	1	2673.479	-34.2935	-1.652705E-006	0.0176411	8
	1	3	794390.6	2508.611	-1428.462	1	2886.803	-29.6582	3.076552E-006	0.0158934	8
	2	4	630984.4	2769.38	-1331.313	1	3072.76	-25.6748	-3.818998E-006	0.0169419	8
	3	5	501234.4	2986.595	-1221.542	1	3226.75	-22.24496	1.307035E-006	0.0160386	8
	4	7	398109.4	3172.13	-1062.15	1	3345.231	-18.51251	2.431645E-008	0.016226	8
	5	8	316265.6	3310.777	-934.5413	1	3440.147	-15.76291	2.018298E-006	0.0156379	8
	6	9	251203.1	3418.404	-824.2209	1	3516.366	-13.556	-2.784252E-006	0.0167763	8
	7	11	199546.9	3504.329	-714.4153	1	3576.41	-11.52279	3.843019E-007	0.0160814	8
	8	12	158578.1	3570.244	-642.978	1	3627.68	-10.20917	-2.738028E-006	0.0166932	8
	9	13	125953.1	3642.154	-530.6324	1	3680.605	-8.289212	-1.157155E-007	0.0160002	7
	10	15	100078.1	3679.39	-481.9348	1	3710.818	-7.462249	7.769262E-008	0.0160152	7
	11	16	79453.13	3720.02	-456.4291	1	3747.916	-6.994965	7.492191E-008	0.0159104	7
	12	17	63140.62	3758.581	-442.6899	1	3784.562	-6.717413	4.132514E-008	0.016006	7
	13	19	50203.12	3799.666	-439.46	1	3824.995	-6.597376	-4.883246E-008	0.016129	7
	14	20	39890.62	3839.386	-447.152	1	3865.337	-6.642995	4.280191E-008	0.0159285	7
	15	22	31640.63	3882.985	-464.4703	1	3910.666	-6.82113	7.741135E-008	0.0158967	7
	16	23	25171.88	3926.379	-491.796	1	3957.059	-7.139363	-5.027797E-008	0.0161231	7
	17	24	20015.62	3976.615	-528.896	1	4011.632	-7.575966	-5.950733E-008	0.0161293	7
	18	26	15890.62	4028.688	-578.5435	1	4070.017	-8.172141	-1.704146E-009	0.0160559	7
	19	27	12609.37	4083.532	-638.8948	1	4133.209	-8.892204	-6.0209E-008	0.0161344	7
	20	28	10078.13	4144.177	-710.8658	1	4204.704	-9.73343	-5.434102E-008	0.0162302	7
	21	30	8015.625	4206.503	-800.5353	1	4282	-10.77505	-4.116988E-009	0.0160917	7
	22	31	6328.125	4275.75	-913.0332	1	4372.147	-12.05377	-3.579163E-008	0.0160588	7
	23	32	5015.625	4347.729	-1049.653	1	4472.642	-13.57294	2.145526E-008	0.0159623	7
	24	34	3984.375	4425.186	-1216.701	1	4589.404	-15.37354	-4.905125E-008	0.0161157	7
	25	35	3170.956	4508.134	-1420.626	1	4726.674	-17.49095	1.960498E-008	0.0159618	7
	26	36	2527.573	4597.941	-1669.251	1	4891.57	-19.95308	-3.807555E-009	0.0160815	7
	27	38	1976.103	4707.706	-2001.073	1	5115.349	-23.02857	-5.837439E-008	0.0161198	7
	28	39	1577.524	4821.645	-2374.708	1	5374.709	-26.22071	-5.150468E-008	0.0162251	7
	29	40	1265.625	4959.835	-2815.666	1	5703.327	-29.58329	-4.799328E-008	0.0161313	7
	30	42	998.264	5099.025	-3403.364	1	6130.493	-33.72128	-1.571648E-008	0.0160209	7
	31	43	796.875	5259.996	-4085.668	1	6660.348	-37.83804	-1.845921E-009	0.0160801	7
	32	45	627.7902	5456.496	-4981.062	1	7388.121	-42.39196	1.13196E-007	0.0158886	7
	33	46	505.5147	5665.06	-5978.933	1	8236.537	-46.54408	8.046501E-008	0.0159858	7
	34	47	397.9953	5931.418	-7330.487	1	9429.622	-51.02216	8.384833E-009	0.0160623	7
	35	49	315.5048	6245.513	-8964.151	1	10925.31	-55.13426	1.07899E-010	0.0160031	6
	36	50	252.4038	6609.956	-10900.25	1	12747.82	-58.7672	1.565347E-009	0.0160006	6
	37	51	198.6229	7101.351	-13469.18	1	15226.55	-62.20047	7.31471E-010	0.0160019	6
	38	53	158.3615	7689.966	-16464.35	1	18171.69	-64.96424	1.554337E-009	0.0159967	6
	39	54	125.558	8459.979	-20235.22	1	21932.52	-67.31107	1.103724E-009	0.0160003	6
	40	55	100.4464	9414.564	-24703.38	1	26436.54	-69.13794	1.499834E-009	0.0160027	6
	41	57	79.00281	10811.83	-30551.09	1	32407.79	-70.51147	1.459638E-009	0.016001	6
	42	58	63.3446	12749.02	-37234.89	1	39357.01	-71.09908	1.168041E-009	0.0159982	6
	43	59	49.86702	14347.37	-45858.2	1	48050.19	-72.62699	1.095921E-009	0.016	6
	44	61	39.72458	17460.79	-55573.53	1	58252.01	-72.55767	8.689391E-010	0.0160004	6
	45	62	31.6723	21262.45	-67534.45	1	70802.49	-72.52399	2.556915E-010	0.0160047	6
	46	64	24.93351	26307.21	-82716.45	1	86799.08	-72.35721	1.983958E-010	0.016	6
	47	65	19.86229	32608.17	-99958.1	1	105142.4	-71.93272	8.20083E-010	0.0160073	6
	48	67	15.83615	39638.05	-119911.5	1	126293.1	-71.70814	-1.264091E-009	0.0160057	5
	49	68	12.40079	52684.36	-145227.4	1	154488.3	-70.06067	5.144878E-010	0.016001	5
	50	69	9.93114	66210.41	-172939.2	1	185180.4	-69.05047	-5.28688E-010	0.016006	5
	51	71	7.944915	83228.76	-204063.4	1	220383.5	-67.81155	-5.68005E-010	0.0160008	5
	52	73	6.317385	105245.3	-241942.6	1	263842.4	-66.49091	1.055791E-010	0.0159975	5
	53	75	5.008013	132920.3	-284582.2	1	314093.7	-64.96405	-3.404096E-010	0.0159942	5
	54	77	3.945707	167664.8	-333340.6	1	373131.9	-63.29836	9.450604E-011	0.0160068	5
	55	80	3.158693	207503.2	-384558.2	1	436969.8	-61.6492	-3.057862E-010	0.0159998	5
	56	83	2.504006	255593.4	-442219.9	1	510770.4	-59.97303	2.020428E-010	0.0159962	5
	57	86	1.998082	309969.7	-503405.4	1	591183.8	-58.37749	-1.70642E-010	0.0160445	5
	58	89	1.584686	372431.8	-571668.8	1	682283.4	-56.91649	-1.843122E-011	0.0160153	5
	59	92	1.266892	443604.3	-643226.1	1	781360.7	-55.4077	-2.486267E-010	0.0160432	5
	60	97	0.999041	524078.2	-726619.1	1	895898.1	-54.19876	-4.542104E-011	0.0159802	5
