EXPLAIN
TAG	EISPOT
TITLE	LABEL	Potentiostatic EIS	Test &Identifier
DATE	LABEL	10/20/2019	Date
TIME	LABEL	9:01:26	Time
NOTES	NOTES	1	&Notes...
	
PSTAT	PSTAT	REF600-11020	Potentiostat
VDC	POTEN	0.00000E+000	T	DC &Voltage (V)
FREQINIT	QUANT	1.00000E+006	Initial Fre&q. (Hz)
FREQFINAL	QUANT	1.00000E+000	Final Fre&q. (Hz)
PTSPERDEC	QUANT	1.00000E+001	Points/&decade
VAC	QUANT	2.50000E+001	AC &Voltage (mV rms)
AREA	QUANT	1.00000E-002	&Area (cm^2)
CONDIT	TWOPARAM	T	5.00000E+000	0.00000E+000	Conditionin&g	Time(s)	E(V)
DELAY	TWOPARAM	T	5.00000E+000	0.00000E+000	Init. De&lay	Time(s)	Stab.(mV/s)
SPEED	SELECTOR	1	&Optimize for:
ZGUESS	QUANT	1.00000E+005	E&stimated Z (ohms)
OCVCURVE	TABLE	19
	Pt	T	Vf	Vm	Ach	Over
	#	s	V vs. Ref.	V	V	bits
	0	0.258333	7.39645E-003	7.39645E-003	5.13700E-004	...........
	1	0.516667	7.39755E-003	7.45386E-003	5.14766E-004	...........
	2	0.775	7.40489E-003	7.54003E-003	5.14500E-004	...........
	3	1.03333	7.42748E-003	7.61301E-003	5.14800E-004	...........
	4	1.29167	7.47200E-003	7.73496E-003	5.17666E-004	...........
	5	1.55	7.53942E-003	7.86327E-003	5.15900E-004	...........
	6	1.80833	7.62638E-003	7.90590E-003	5.17300E-004	...........
	7	2.06667	7.72400E-003	8.00469E-003	5.09467E-004	...........
	8	2.325	7.82145E-003	8.12627E-003	5.15733E-004	...........
	9	2.58333	7.91575E-003	8.21159E-003	5.15000E-004	...........
	10	2.84167	8.01038E-003	8.29726E-003	5.12567E-004	...........
	11	3.1	8.10612E-003	8.39527E-003	5.14833E-004	...........
	12	3.35833	8.20116E-003	8.49949E-003	5.21933E-004	...........
	13	3.61667	8.29529E-003	8.56624E-003	5.14766E-004	...........
	14	3.875	8.38798E-003	8.64361E-003	5.18733E-004	...........
	15	4.13333	8.47681E-003	8.73117E-003	5.19233E-004	...........
	16	4.39167	8.56100E-003	8.81315E-003	5.16866E-004	...........
	17	4.65	8.64265E-003	8.88976E-003	5.18866E-004	...........
	18	4.90833	8.72371E-003	8.97158E-003	5.23566E-004	...........
EOC	QUANT	0.0087237	Open Circuit (V)
PSTATMODEL	IQUANT	4	Pstat Model
PSTATSECTION	LABEL	REF600-11020	Pstat Section
PSTATSERIALNO	LABEL	11020	Pstat Serial Number
CTRLMODE	IQUANT	1	Control Mode
IESTAB	IQUANT	0	I/E Stability
CASPEED	IQUANT	1	Control Amp Speed
CONVENTION	IQUANT	1	Current Convention
ICHRANGE	IQUANT	2	Ich Range
ICHRANGEMODE	TOGGLE	F	Ich Auto Range
ICHOFFSETENABLE	TOGGLE	T	Ich Offset Enable
ICHOFFSET	QUANT	0	Ich Offset (V)
ICHFILTER	IQUANT	3	Ich Filter
VCHRANGE	IQUANT	2	Vch Range
VCHRANGEMODE	TOGGLE	F	Vch Auto Range
VCHOFFSETENABLE	TOGGLE	T	Vch Offset Enable
VCHOFFSET	QUANT	0	Vch Offset (V)
VCHFILTER	IQUANT	3	Vch Filter
ACHRANGE	IQUANT	2	Ach Range
ACHOFFSETENABLE	TOGGLE	F	Ach Offset Enable
ACHOFFSET	QUANT	0	Ach Offset (V)
ACHFILTER	IQUANT	3	Ach Filter
IERANGELOWERLIMIT	IQUANT	1	I/E Range Lower Limit
IERANGEMODE	TOGGLE	F	I/E AutoRange
IERANGE	IQUANT	5	I/E Range
POSFEEDENABLE	TOGGLE	F	Positive Feedback IR Comp
POSFEEDRESISTANCE	QUANT	0	Positive Feedback Resistance (ohm)
ACHSELECT	IQUANT	0	Ach Select
CABLEID	IQUANT	14	Cable ID
DCCALDATE	LABEL	8/19/2019	DC Calibration Date
ACCALDATE	LABEL	8/19/2019	AC Calibration Date
THERMOSELECT	IQUANT	1	Thermo Select
FRAMEWORKVERSION	QUANT	6.33	Framework Version
INSTRUMENTVERSION	LABEL	3.50	Instrument Version
ZCURVE	TABLE
	Pt	Time	Freq	Zreal	Zimag	Zsig	Zmod	Zphz	Idc	Vdc	IERange
	#	s	Hz	ohm	ohm	V	ohm	°	A	V	#
	0	2	1000078	2253.419	-837.4338	1	2403.995	-20.38648	2.287654E-006	0.0101158	8
	1	3	794390.6	2369.515	-737.1295	1	2481.524	-17.28033	-1.800682E-006	0.0110613	8
	2	5	630984.4	2465.287	-644.9088	1	2548.244	-14.65983	2.129869E-006	0.00995	8
	3	6	501234.4	2536.177	-548.2358	1	2594.756	-12.19773	2.917291E-006	0.0097909	8
	4	7	398109.4	2592.831	-483.8899	1	2637.598	-10.57128	1.267355E-006	0.0098734	8
	5	9	316265.6	2637.017	-409.4132	1	2668.61	-8.825067	-1.270824E-006	0.0106015	8
	6	10	251203.1	2671.531	-363.0025	1	2696.08	-7.737853	-1.996503E-006	0.0107305	8
	7	11	199546.9	2701.856	-327.1303	1	2721.588	-6.903548	1.515157E-006	0.0098644	8
	8	13	158578.1	2728.437	-297.7657	1	2744.637	-6.22828	-2.392902E-007	0.0104587	8
	9	14	125953.1	2753.299	-227.3438	1	2762.669	-4.720285	6.746599E-007	0.008417	7
	10	15	100078.1	2786.361	-233.338	1	2796.114	-4.786947	-1.657176E-008	0.0104435	7
	11	17	79453.13	2808.022	-242.6134	1	2818.483	-4.938097	4.307059E-008	0.0101652	7
	12	18	63140.62	2831.441	-255.4102	1	2842.937	-5.154418	6.951802E-008	0.0101826	7
	13	20	50203.12	2858.185	-271.5676	1	2871.057	-5.427608	-1.263691E-008	0.0102615	7
	14	21	39890.62	2886.668	-293.4946	1	2901.55	-5.805451	7.760354E-008	0.0101336	7
	15	22	31640.63	2918.758	-322.5262	1	2936.523	-6.30567	-1.612957E-008	0.0103466	7
	16	24	25171.88	2951.719	-356.1086	1	2973.123	-6.87917	-1.695777E-008	0.010274	7
	17	25	20015.62	2986.238	-390.8982	1	3011.713	-7.457611	-4.278941E-008	0.0103812	7
	18	26	15890.62	3026.818	-445.5191	1	3059.43	-8.373275	6.591759E-008	0.0101785	7
	19	28	12609.37	3070.127	-505.2994	1	3111.432	-9.34628	-3.594788E-008	0.0103107	7
	20	29	10078.13	3113.765	-574.7784	1	3166.371	-10.45865	8.02242E-008	0.0102402	7
	21	30	8015.625	3166.053	-666.5714	1	3235.461	-11.88925	3.571347E-008	0.0102588	7
	22	32	6328.125	3213.792	-767.6958	1	3304.212	-13.43479	8.060704E-008	0.0101259	7
	23	33	5015.625	3270.105	-898.2195	1	3391.222	-15.35899	-1.242907E-008	0.0103301	7
	24	35	3984.375	3341.741	-1046.696	1	3501.828	-17.39153	1.327136E-008	0.0102236	7
	25	36	3170.956	3395.474	-1247.004	1	3617.218	-20.166	-9.017645E-009	0.0102577	7
	26	37	2527.573	3467.205	-1480.264	1	3769.972	-23.11923	1.329642E-007	0.0100822	7
	27	39	1976.103	3553.225	-1791.112	1	3979.132	-26.75179	1.320438E-007	0.0100795	7
	28	40	1577.524	3635.654	-2164.865	1	4231.385	-30.77186	-3.200046E-008	0.0103033	7
	29	41	1265.625	3744.344	-2564.479	1	4538.355	-34.40702	-7.171055E-008	0.0104029	7
	30	43	998.264	3864.72	-3120.786	1	4967.431	-38.92109	1.35705E-008	0.0102151	7
	31	44	796.875	3994.916	-3779.78	1	5499.644	-43.41496	-7.124174E-008	0.0104105	7
	32	46	627.7902	4163.823	-4639.354	1	6233.861	-48.092	-3.707009E-008	0.0103287	7
	33	47	505.5147	4335.36	-5603.808	1	7085.056	-52.27284	3.503006E-008	0.0102532	7
	34	48	397.9953	4586.521	-6924.931	1	8306.072	-56.48269	6.650073E-009	0.0103021	7
	35	50	315.5048	4889.239	-8510.981	1	9815.37	-60.12425	7.227325E-009	0.0102975	7
	36	51	252.4038	5263.407	-10380.96	1	11639.06	-63.11385	1.385218E-009	0.0102361	6
	37	52	198.6229	5776.192	-12857.29	1	14095.19	-65.80779	1.229972E-009	0.0102352	6
	38	54	158.3615	6410.112	-15733.3	1	16989.01	-67.83288	-1.14406E-010	0.0102367	6
	39	55	125.558	7253.542	-19325.98	1	20642.37	-69.42758	5.666804E-010	0.0102384	6
	40	56	100.4464	8367.558	-23557.05	1	24999.01	-70.44476	2.358418E-010	0.01023	6
	41	58	79.00281	9903.7	-29118.83	1	30756.95	-71.21615	7.926248E-010	0.0102348	6
	42	59	63.3446	11678.65	-35738.92	1	37598.69	-71.9038	3.410598E-010	0.010235	6
	43	61	49.86702	13955.37	-42845.5	1	45060.95	-71.95886	1.43112E-009	0.0102327	6
	44	62	39.72458	17557.13	-52219.14	1	55091.66	-71.41631	1.135691E-010	0.0102378	6
	45	63	31.6723	21946.85	-62964.7	1	66679.96	-70.78359	1.45411E-010	0.0102323	6
	46	65	24.93351	27829.5	-75971.66	1	80908.43	-69.88149	8.145991E-010	0.0102325	6
	47	66	19.86229	35195.21	-90659.01	1	97251	-68.78303	1.423425E-010	0.0102271	6
	48	68	15.83615	43386.48	-108487.5	1	116841.5	-68.20247	-1.781218E-009	0.0102342	5
	49	69	12.40079	56311.6	-128037.5	1	139873.5	-66.25984	6.540009E-010	0.0102354	5
	50	71	9.93114	71330.45	-149612.1	1	165746.2	-64.50963	9.152731E-010	0.0102355	5
	51	72	7.944915	88841.88	-173302.2	1	194747.3	-62.85844	-8.941533E-011	0.0102364	5
	52	74	6.317385	107889	-199560.2	1	226857.5	-61.60284	6.3177E-010	0.0102309	5
	53	76	5.008013	132021.7	-229612	1	264861.1	-60.10207	4.010983E-010	0.0102394	5
	54	79	3.945707	159757.6	-264004.2	1	308578.5	-58.82048	-1.447799E-010	0.0102353	5
	55	81	3.158693	190090.4	-299341.5	1	354597.9	-57.58329	9.354E-011	0.0102514	5
	56	85	2.504006	224475.6	-341287.8	1	408493.2	-56.66584	1.243252E-010	0.0102218	5
	57	88	1.998082	261004	-387038.3	1	466820.9	-56.00575	-2.342057E-010	0.0102685	5
	58	91	1.584686	302677.8	-441917.5	1	535635	-55.59201	1.852542E-010	0.0102653	5
	59	94	1.266892	348351.8	-501762.7	1	610831.3	-55.22945	-7.710428E-011	0.0102797	5
	60	99	0.999041	400702.4	-576285.5	1	701902.7	-55.18837	2.411794E-011	0.0102005	5
