EXPLAIN
TAG	EISPOT
TITLE	LABEL	Potentiostatic EIS	Test &Identifier
DATE	LABEL	11/7/2019	Date
TIME	LABEL	11:06:26	Time
NOTES	NOTES	2	&Notes...
	
	
PSTAT	PSTAT	REF600-11020	Potentiostat
VDC	POTEN	0.00000E+000	T	DC &Voltage (V)
FREQINIT	QUANT	1.00000E+006	Initial Fre&q. (Hz)
FREQFINAL	QUANT	1.00000E+000	Final Fre&q. (Hz)
PTSPERDEC	QUANT	1.00000E+001	Points/&decade
VAC	QUANT	2.50000E+001	AC &Voltage (mV rms)
AREA	QUANT	1.00000E-002	&Area (cm^2)
CONDIT	TWOPARAM	T	5.00000E+000	0.00000E+000	Conditionin&g	Time(s)	E(V)
DELAY	TWOPARAM	T	5.00000E+000	0.00000E+000	Init. De&lay	Time(s)	Stab.(mV/s)
SPEED	SELECTOR	1	&Optimize for:
ZGUESS	QUANT	1.00000E+005	E&stimated Z (ohms)
OCVCURVE	TABLE	19
	Pt	T	Vf	Vm	Ach	Over
	#	s	V vs. Ref.	V	V	bits
	0	0.258333	2.48297E-003	2.48297E-003	5.73799E-004	...........
	1	0.516667	2.47569E-003	2.10171E-003	5.80499E-004	...........
	2	0.775	2.43122E-003	1.75360E-003	5.78966E-004	...........
	3	1.03333	2.30646E-003	1.43042E-003	5.79632E-004	...........
	4	1.29167	2.08602E-003	1.13160E-003	5.77866E-004	...........
	5	1.55	1.79803E-003	8.62328E-004	5.81265E-004	...........
	6	1.80833	1.48536E-003	5.48787E-004	5.80932E-004	...........
	7	2.06667	1.17674E-003	3.51633E-004	5.81899E-004	...........
	8	2.325	8.85070E-004	1.18343E-004	5.80399E-004	...........
	9	2.58333	6.16525E-004	-7.86456E-005	5.82432E-004	...........
	10	2.84167	3.72405E-004	-2.76892E-004	5.82765E-004	...........
	11	3.1	1.48928E-004	-4.65389E-004	5.81265E-004	...........
	12	3.35833	-5.93213E-005	-6.45692E-004	5.75132E-004	...........
	13	3.61667	-2.56470E-004	-8.11852E-004	5.75632E-004	...........
	14	3.875	-4.44445E-004	-9.76902E-004	5.80565E-004	...........
	15	4.13333	-6.23783E-004	-1.13213E-003	5.76266E-004	...........
	16	4.39167	-7.94978E-004	-1.28257E-003	5.85199E-004	...........
	17	4.65	-9.58642E-004	-1.42074E-003	5.83532E-004	...........
	18	4.90833	-1.11503E-003	-1.55725E-003	5.81532E-004	...........
EOC	QUANT	-0.001115	Open Circuit (V)
PSTATMODEL	IQUANT	4	Pstat Model
PSTATSECTION	LABEL	REF600-11020	Pstat Section
PSTATSERIALNO	LABEL	11020	Pstat Serial Number
CTRLMODE	IQUANT	1	Control Mode
IESTAB	IQUANT	0	I/E Stability
CASPEED	IQUANT	1	Control Amp Speed
CONVENTION	IQUANT	1	Current Convention
ICHRANGE	IQUANT	2	Ich Range
ICHRANGEMODE	TOGGLE	F	Ich Auto Range
ICHOFFSETENABLE	TOGGLE	T	Ich Offset Enable
ICHOFFSET	QUANT	0	Ich Offset (V)
ICHFILTER	IQUANT	3	Ich Filter
VCHRANGE	IQUANT	2	Vch Range
VCHRANGEMODE	TOGGLE	F	Vch Auto Range
VCHOFFSETENABLE	TOGGLE	T	Vch Offset Enable
VCHOFFSET	QUANT	0	Vch Offset (V)
VCHFILTER	IQUANT	3	Vch Filter
ACHRANGE	IQUANT	2	Ach Range
ACHOFFSETENABLE	TOGGLE	F	Ach Offset Enable
ACHOFFSET	QUANT	0	Ach Offset (V)
ACHFILTER	IQUANT	3	Ach Filter
IERANGELOWERLIMIT	IQUANT	1	I/E Range Lower Limit
IERANGEMODE	TOGGLE	F	I/E AutoRange
IERANGE	IQUANT	4	I/E Range
POSFEEDENABLE	TOGGLE	F	Positive Feedback IR Comp
POSFEEDRESISTANCE	QUANT	0	Positive Feedback Resistance (ohm)
ACHSELECT	IQUANT	0	Ach Select
CABLEID	IQUANT	14	Cable ID
DCCALDATE	LABEL	8/19/2019	DC Calibration Date
ACCALDATE	LABEL	8/19/2019	AC Calibration Date
THERMOSELECT	IQUANT	1	Thermo Select
FRAMEWORKVERSION	QUANT	6.33	Framework Version
INSTRUMENTVERSION	LABEL	3.50	Instrument Version
ZCURVE	TABLE
	Pt	Time	Freq	Zreal	Zimag	Zsig	Zmod	Zphz	Idc	Vdc	IERange
	#	s	Hz	ohm	ohm	V	ohm	°	A	V	#
	0	1	1000078	2417.219	-2006.624	1	3141.573	-39.69734	5.769111E-006	0.0020067	8
	1	3	794390.6	2853.966	-2007.207	1	3489.126	-35.11889	8.156486E-006	-0.0001884	8
	2	4	630984.4	3263.097	-1963.277	1	3808.183	-31.03367	-9.91057E-006	0.0018873	8
	3	6	501234.4	3627.16	-1852.817	1	4072.986	-27.05874	1.372418E-006	0.0002414	8
	4	8	398109.4	3953.163	-1695.59	1	4301.456	-23.21545	-5.5087E-006	0.0009666	8
	5	9	316265.6	4204.885	-1500.903	1	4464.725	-19.64365	-1.681231E-007	0.0010648	8
	6	11	251203.1	4427.378	-1326.084	1	4621.707	-16.67396	4.378118E-006	0.0004817	8
	7	12	199546.9	4604.996	-1154.373	1	4747.479	-14.07283	7.604142E-006	-0.0003107	8
	8	14	158578.1	4655.935	-917.4839	1	4745.472	-11.1477	-2.200728E-006	0.0006274	8
	9	15	125953.1	4905.528	-823.5074	1	4974.17	-9.52958	3.483723E-006	-0.001645	7
	10	17	100078.1	4932.118	-680.1772	1	4978.798	-7.852003	9.682842E-007	-0.0016817	7
	11	18	79453.13	4974.056	-621.7012	1	5012.758	-7.124383	4.40953E-007	0.0011607	7
	12	20	63140.62	5018.496	-548.1015	1	5048.338	-6.232928	-8.535359E-007	0.0002171	7
	13	21	50203.12	5075.497	-511.7204	1	5101.228	-5.757205	6.16377E-007	-0.0015799	7
	14	22	39890.62	5117.728	-482.5118	1	5140.423	-5.386064	6.18321E-007	-0.0015833	7
	15	24	31640.63	5151.049	-473.2246	1	5172.741	-5.249004	9.890996E-007	0.0002504	7
	16	25	25171.88	5188.813	-468.3481	1	5209.907	-5.157605	9.689796E-007	-0.0016962	7
	17	26	20015.62	5229.379	-480.8687	1	5251.441	-5.25387	9.697673E-007	-0.0016971	7
	18	28	15890.62	5261.188	-506.9334	1	5285.553	-5.503654	1.337216E-006	-0.0008862	7
	19	29	12609.37	5303.725	-544.2723	1	5331.579	-5.859226	1.334168E-006	-0.0008882	7
	20	31	10078.13	5289.429	-568.8687	1	5319.932	-6.138464	-1.485858E-006	0.0021933	7
	21	32	8015.625	5376.645	-656.6099	1	5416.59	-6.962633	9.703894E-007	-0.0017015	7
	22	33	6328.125	5404.488	-767.635	1	5458.732	-8.084023	4.423126E-007	0.0011456	7
	23	35	5015.625	5443.505	-893.6804	1	5516.377	-9.32329	-3.426303E-007	-0.0006168	7
	24	36	3984.375	5501.364	-1051.17	1	5600.89	-10.81737	7.190831E-007	0.0007478	7
	25	37	3170.956	5562.463	-1244.708	1	5700.026	-12.61325	1.208722E-006	-0.0015873	7
	26	39	2527.573	5622.968	-1484.778	1	5815.697	-14.79167	1.33568E-006	-0.0008875	7
	27	40	1976.103	5679.095	-1794.308	1	5955.809	-17.53391	-7.728748E-007	0.0024013	7
	28	41	1577.524	5763.167	-2205.825	1	6170.88	-20.94411	1.096506E-006	0.0004883	8
	29	43	1265.625	5851.197	-2587.085	1	6397.618	-23.85244	-1.485903E-006	0.0021896	7
	30	45	998.264	5969.667	-3153.847	1	6751.569	-27.84803	-1.464971E-006	0.0017197	7
	31	46	796.875	6096.912	-3817.979	1	7193.698	-32.05542	-1.102156E-006	0.0024826	7
	32	48	627.7902	6268.271	-4709.23	1	7840.158	-36.91682	-3.385973E-007	-0.0006224	7
	33	49	505.5147	6442.636	-5699.464	1	8601.828	-41.49751	7.191765E-007	0.0007473	7
	34	50	397.9953	6678.84	-7014.078	1	9685.26	-46.40247	4.776947E-009	0.000477	7
	35	52	315.5048	6962.596	-8617.841	1	11079.03	-51.06428	7.376672E-010	0.0004092	6
	36	53	252.4038	7295.099	-10515.25	1	12798	-55.24848	1.321949E-009	0.0004213	6
	37	55	198.6229	7745.799	-13038.17	1	15165.47	-59.28604	6.20524E-010	0.0004237	6
	38	56	158.3615	8296.882	-15982.74	1	18007.95	-62.5655	8.951005E-010	0.0004284	6
	39	57	125.558	9024.827	-19690.86	1	21660.5	-65.37679	1.100597E-009	0.0004164	6
	40	59	100.4464	9929.87	-24078.46	1	26045.63	-67.58892	2.230508E-009	0.0004216	6
	41	60	79.00281	11201.89	-29741.33	1	31780.96	-69.36143	1.61617E-009	0.0004164	6
	42	61	63.3446	12972.13	-35791.33	1	38069.61	-70.07757	6.085941E-010	0.0004041	6
	43	63	49.86702	15534.71	-45079.8	1	47681.4	-70.98582	-4.253707E-010	0.0004223	6
	44	64	39.72458	18339.11	-54610.25	1	57607.31	-71.43702	7.144274E-010	0.0004178	6
	45	66	31.6723	22249.69	-66571.16	1	70190.94	-71.51913	1.570591E-009	0.0004172	6
	46	67	24.93351	27902.01	-80880.91	1	85558.42	-70.96677	1.172831E-009	0.0004151	6
	47	68	19.86229	34875.61	-97620.8	1	103663.6	-70.34044	1.267366E-009	0.0004118	6
	48	70	15.83615	43770.54	-116796.1	1	124728.5	-69.456	-2.766314E-010	0.0004145	5
	49	71	12.40079	56807.01	-140495.5	1	151545.4	-67.98487	1.227511E-009	0.0004269	5
	50	73	9.93114	71297.52	-164124	1	178941.4	-66.51926	2.754311E-011	0.0004182	5
	51	74	7.944915	89111.68	-192220.5	1	211871.7	-65.12799	3.825304E-010	0.0004163	5
	52	76	6.317385	110503.5	-222403.5	1	248343.1	-63.57904	-5.535941E-011	0.0004194	5
	53	78	5.008013	136060.4	-257718.5	1	291429.7	-62.16856	7.473942E-011	0.000407	5
	54	80	3.945707	166338.4	-297234.5	1	340612.4	-60.76774	4.02217E-010	0.0004308	5
	55	83	3.158693	197929.1	-339709.1	1	393164.3	-59.77308	4.634608E-012	0.0004166	5
	56	86	2.504006	234795.9	-389486.8	1	454784.6	-58.917	4.178256E-010	0.0004252	5
	57	89	1.998082	274582.1	-444583.8	1	522541.9	-58.29986	4.087198E-010	0.0004196	5
	58	92	1.584686	322177.2	-510199.7	1	603408.5	-57.72871	1.152678E-010	0.0003685	5
	59	96	1.266892	370808.1	-582532.8	1	690538.3	-57.52143	2.948901E-010	0.0004042	5
	60	100	0.999041	431027.1	-674523.3	1	800478.6	-57.42101	-8.314163E-011	0.0004201	5
