EXPLAIN
TAG	EISPOT
TITLE	LABEL	Potentiostatic EIS	Test &Identifier
DATE	LABEL	10/22/2019	Date
TIME	LABEL	9:34:37	Time
NOTES	NOTES	1	&Notes...
	
PSTAT	PSTAT	REF600-11020	Potentiostat
VDC	POTEN	0.00000E+000	T	DC &Voltage (V)
FREQINIT	QUANT	1.00000E+006	Initial Fre&q. (Hz)
FREQFINAL	QUANT	1.00000E+000	Final Fre&q. (Hz)
PTSPERDEC	QUANT	1.00000E+001	Points/&decade
VAC	QUANT	2.50000E+001	AC &Voltage (mV rms)
AREA	QUANT	1.00000E-002	&Area (cm^2)
CONDIT	TWOPARAM	T	5.00000E+000	0.00000E+000	Conditionin&g	Time(s)	E(V)
DELAY	TWOPARAM	T	5.00000E+000	0.00000E+000	Init. De&lay	Time(s)	Stab.(mV/s)
SPEED	SELECTOR	1	&Optimize for:
ZGUESS	QUANT	1.00000E+005	E&stimated Z (ohms)
OCVCURVE	TABLE	19
	Pt	T	Vf	Vm	Ach	Over
	#	s	V vs. Ref.	V	V	bits
	0	0.258333	4.42138E-003	4.42138E-003	5.63066E-004	...........
	1	0.516667	4.41814E-003	4.25149E-003	5.62699E-004	...........
	2	0.775	4.39712E-003	4.03345E-003	5.61999E-004	...........
	3	1.03333	4.33217E-003	3.72656E-003	5.63299E-004	...........
	4	1.29167	4.20464E-003	3.63153E-003	5.66466E-004	...........
	5	1.55	4.02682E-003	3.51747E-003	5.57966E-004	...........
	6	1.80833	3.83721E-003	3.38020E-003	5.59032E-004	...........
	7	2.06667	3.66772E-003	3.29084E-003	5.62966E-004	...........
	8	2.325	3.52640E-003	3.22364E-003	5.54999E-004	...........
	9	2.58333	3.40891E-003	3.12067E-003	5.56766E-004	...........
	10	2.84167	3.30913E-003	3.06202E-003	5.61699E-004	...........
	11	3.1	3.22114E-003	2.99292E-003	5.59299E-004	...........
	12	3.35833	3.14152E-003	2.93959E-003	5.59932E-004	...........
	13	3.61667	3.06890E-003	2.85454E-003	5.57532E-004	...........
	14	3.875	3.00023E-003	2.76663E-003	5.60299E-004	...........
	15	4.13333	2.93048E-003	2.69994E-003	5.62132E-004	...........
	16	4.39167	2.85661E-003	2.60800E-003	5.64066E-004	...........
	17	4.65	2.77931E-003	2.54541E-003	5.57566E-004	...........
	18	4.90833	2.70120E-003	2.47988E-003	5.63899E-004	...........
EOC	QUANT	0.0027012	Open Circuit (V)
PSTATMODEL	IQUANT	4	Pstat Model
PSTATSECTION	LABEL	REF600-11020	Pstat Section
PSTATSERIALNO	LABEL	11020	Pstat Serial Number
CTRLMODE	IQUANT	1	Control Mode
IESTAB	IQUANT	0	I/E Stability
CASPEED	IQUANT	1	Control Amp Speed
CONVENTION	IQUANT	1	Current Convention
ICHRANGE	IQUANT	2	Ich Range
ICHRANGEMODE	TOGGLE	F	Ich Auto Range
ICHOFFSETENABLE	TOGGLE	T	Ich Offset Enable
ICHOFFSET	QUANT	0	Ich Offset (V)
ICHFILTER	IQUANT	3	Ich Filter
VCHRANGE	IQUANT	2	Vch Range
VCHRANGEMODE	TOGGLE	F	Vch Auto Range
VCHOFFSETENABLE	TOGGLE	T	Vch Offset Enable
VCHOFFSET	QUANT	0	Vch Offset (V)
VCHFILTER	IQUANT	3	Vch Filter
ACHRANGE	IQUANT	2	Ach Range
ACHOFFSETENABLE	TOGGLE	F	Ach Offset Enable
ACHOFFSET	QUANT	0	Ach Offset (V)
ACHFILTER	IQUANT	3	Ach Filter
IERANGELOWERLIMIT	IQUANT	1	I/E Range Lower Limit
IERANGEMODE	TOGGLE	F	I/E AutoRange
IERANGE	IQUANT	4	I/E Range
POSFEEDENABLE	TOGGLE	F	Positive Feedback IR Comp
POSFEEDRESISTANCE	QUANT	0	Positive Feedback Resistance (ohm)
ACHSELECT	IQUANT	0	Ach Select
CABLEID	IQUANT	14	Cable ID
DCCALDATE	LABEL	8/19/2019	DC Calibration Date
ACCALDATE	LABEL	8/19/2019	AC Calibration Date
THERMOSELECT	IQUANT	1	Thermo Select
FRAMEWORKVERSION	QUANT	6.33	Framework Version
INSTRUMENTVERSION	LABEL	3.50	Instrument Version
ZCURVE	TABLE
	Pt	Time	Freq	Zreal	Zimag	Zsig	Zmod	Zphz	Idc	Vdc	IERange
	#	s	Hz	ohm	ohm	V	ohm	°	A	V	#
	0	2	1000078	2694.23	-1816.971	1	3249.655	-33.99547	9.932062E-006	0.0038703	8
	1	3	794390.6	3063.302	-1698.339	1	3502.595	-29.00462	-6.360186E-006	0.0052298	8
	2	5	630984.4	3374.671	-1549.92	1	3713.577	-24.66839	5.990029E-006	0.0036416	8
	3	6	501234.4	3614.85	-1363.031	1	3863.288	-20.65967	-4.217456E-006	0.0049169	8
	4	8	398109.4	3815.979	-1202.952	1	4001.099	-17.49697	1.497206E-006	0.0041353	8
	5	9	316265.6	3963.435	-1037.905	1	4097.08	-14.67453	-3.096713E-007	0.0044872	8
	6	10	251203.1	4080.126	-892.9302	1	4176.691	-12.34448	-3.002633E-006	0.0049566	8
	7	12	199546.9	4147.844	-747.7704	1	4214.709	-10.21947	1.737194E-008	0.004437	8
	8	13	158578.1	4206.503	-660.4396	1	4258.033	-8.92285	-7.908592E-007	0.0046447	8
	9	14	125953.1	4280.173	-535.6212	1	4313.557	-7.132918	-1.539735E-006	0.0075002	7
	10	16	100078.1	4318.458	-459.19	1	4342.803	-6.069564	-2.258354E-008	0.0043493	7
	11	17	79453.13	4352.612	-422.9386	1	4373.112	-5.549945	8.431611E-009	0.0042194	7
	12	18	63140.62	4384.278	-397.672	1	4402.276	-5.18278	-5.658976E-008	0.0044589	7
	13	20	50203.12	4414.706	-385.2764	1	4431.485	-4.987631	-8.212137E-008	0.0044218	7
	14	21	39890.62	4445.774	-380.4175	1	4462.02	-4.890792	9.236179E-008	0.0042231	7
	15	23	31640.63	4474.904	-388.044	1	4491.697	-4.95604	-4.245344E-008	0.0043737	7
	16	24	25171.88	4506.359	-404.835	1	4524.507	-5.133466	-4.128142E-008	0.0043088	7
	17	25	20015.62	4538.64	-430.7981	1	4559.039	-5.42215	-1.182583E-008	0.004253	7
	18	27	15890.62	4574.737	-471.6563	1	4598.987	-5.886408	4.324261E-008	0.0041456	7
	19	28	12609.37	4611.561	-523.2086	1	4641.146	-6.472863	-1.410272E-008	0.0042476	7
	20	29	10078.13	4650.25	-587.4476	1	4687.208	-7.199811	8.556243E-008	0.0041059	7
	21	31	8015.625	4687.611	-668.7987	1	4735.081	-8.119801	-1.774383E-008	0.0042541	7
	22	32	6328.125	4741.417	-773.6157	1	4804.114	-9.266798	-5.192122E-009	0.0043177	7
	23	33	5015.625	4794.273	-902.3028	1	4878.443	-10.65863	-1.208682E-008	0.004239	7
	24	35	3984.375	4856.625	-1075.023	1	4974.181	-12.48128	-4.958411E-008	0.0043035	7
	25	36	3170.956	4911.655	-1252.089	1	5068.735	-14.30135	4.269565E-008	0.0042286	7
	26	38	2527.573	4981.816	-1488.149	1	5199.334	-16.63173	1.403402E-007	0.0040659	7
	27	39	1976.103	5069.906	-1802.794	1	5380.893	-19.57474	-1.438495E-009	0.0042845	7
	28	40	1577.524	5203.821	-2185.758	1	5644.226	-22.78384	-1.244726E-009	0.0042831	7
	29	42	1265.625	5272.918	-2584.681	1	5872.329	-26.11319	-1.234624E-008	0.0044185	7
	30	43	998.264	5408.077	-3134.717	1	6250.899	-30.09813	8.53025E-008	0.0041015	7
	31	44	796.875	5563.835	-3784.653	1	6729.031	-34.22446	1.400022E-007	0.0040654	7
	32	46	627.7902	5757.171	-4620.053	1	7381.728	-38.74658	-1.395564E-008	0.0042384	7
	33	47	505.5147	5963.303	-5546.957	1	8144.306	-42.92841	8.505017E-008	0.0041003	7
	34	48	397.9953	6236.245	-6805.632	1	9230.784	-47.49986	5.568327E-009	0.0042956	7
	35	50	315.5048	6560.88	-8309.882	1	10587.69	-51.70794	5.216967E-010	0.0042356	6
	36	51	252.4038	6937.732	-10085.62	1	12241.4	-55.47657	1.416865E-009	0.0042357	6
	37	53	198.6229	7444.574	-12432.63	1	14491.1	-59.08711	8.48869E-010	0.004236	6
	38	54	158.3615	8058.326	-15163.42	1	17171.66	-62.01241	4.731728E-010	0.0042369	6
	39	55	125.558	8865.586	-18592.92	1	20598.43	-64.50698	8.467481E-010	0.0042386	6
	40	57	100.4464	9890.48	-22592.96	1	24663	-66.35773	1.331965E-009	0.0042342	6
	41	58	79.00281	11273.5	-27854.9	1	30049.75	-67.96574	5.649931E-010	0.0042281	6
	42	59	63.3446	12988.22	-33470.11	1	35901.84	-68.79104	6.939126E-010	0.0042275	6
	43	61	49.86702	15831.51	-41460.05	1	44379.87	-69.10066	2.798028E-010	0.0042275	6
	44	62	39.72458	18895.44	-49993.63	1	53445.3	-69.29556	5.083449E-010	0.0042353	6
	45	64	31.6723	22889.64	-60245.51	1	64447.32	-69.19624	1.701898E-010	0.0042317	6
	46	65	24.93351	28622.33	-72561.49	1	78002.62	-68.47294	8.384461E-010	0.0042329	6
	47	66	19.86229	35453.04	-86496.71	1	93480.48	-67.71239	7.321047E-010	0.0042317	6
	48	68	15.83615	44579.89	-102366.1	1	111652.1	-66.46713	1.882436E-009	0.0042391	5
	49	69	12.40079	55633.64	-121149.9	1	133313.1	-65.33478	1.812924E-009	0.0042398	5
	50	71	9.93114	66566.09	-141332.1	1	156223.6	-64.78001	3.121625E-010	0.0042363	5
	51	72	7.944915	80736	-164185.2	1	182962	-63.81493	2.403062E-010	0.0042375	5
	52	74	6.317385	97420.2	-190855.1	1	214281	-62.95839	6.783958E-010	0.0042448	5
	53	76	5.008013	116883.8	-222241.7	1	251103.9	-62.25872	4.873039E-010	0.0042485	5
	54	78	3.945707	140120.1	-259568.9	1	294973.9	-61.63901	7.702246E-011	0.0042355	5
	55	81	3.158693	165034.7	-299459.9	1	341925	-61.1405	2.302938E-010	0.0042566	5
	56	84	2.504006	195068.1	-348330.3	1	399231.3	-60.75078	1.032301E-010	0.0042263	5
	57	87	1.998082	228179.4	-402610.2	1	462775.2	-60.4576	-7.357012E-011	0.0042571	5
	58	90	1.584686	267893.1	-468321	1	539528.8	-60.2292	2.032593E-010	0.0042821	5
	59	94	1.266892	311716.6	-540374.1	1	623836	-60.02136	-4.778605E-011	0.0042745	5
	60	98	0.999041	364213.2	-630568.1	1	728194.6	-59.98947	1.997752E-010	0.0042237	5
