EXPLAIN
TAG	EISPOT
TITLE	LABEL	Potentiostatic IDE	Test &Identifier
DATE	LABEL	9/8/2019	Date
TIME	LABEL	7:39:48	Time
NOTES	NOTES	1	&Notes...
	
PSTAT	PSTAT	REF600-11020	Potentiostat
VDC	POTEN	0.00000E+000	T	DC &Voltage (V)
FREQINIT	QUANT	1.00000E+006	Initial Fre&q. (Hz)
FREQFINAL	QUANT	1.00000E+000	Final Fre&q. (Hz)
PTSPERDEC	QUANT	1.00000E+001	Points/&decade
VAC	QUANT	2.50000E+001	AC &Voltage (mV rms)
AREA	QUANT	1.00000E-002	&Area (cm^2)
CONDIT	TWOPARAM	T	5.00000E+000	0.00000E+000	Conditionin&g	Time(s)	E(V)
DELAY	TWOPARAM	T	5.00000E+000	0.00000E+000	Init. De&lay	Time(s)	Stab.(mV/s)
SPEED	SELECTOR	1	&Optimize for:
ZGUESS	QUANT	1.00000E+007	E&stimated Z (ohms)
OCVCURVE	TABLE	18
	Pt	T	Vf	Vm	Ach	Over
	#	s	V vs. Ref.	V	V	bits
	0	0.258333	3.01171E-002	3.01171E-002	5.63099E-004	...........
	1	0.516667	3.01555E-002	3.21277E-002	5.59866E-004	...........
	2	0.775	3.03897E-002	3.39463E-002	5.67299E-004	...........
	3	1.03333	3.10451E-002	3.56058E-002	5.67932E-004	...........
	4	1.29167	3.21979E-002	3.71024E-002	5.63799E-004	...........
	5	1.55	3.36932E-002	3.84770E-002	5.62299E-004	...........
	6	1.80833	3.52964E-002	3.97423E-002	5.65432E-004	...........
	7	2.06667	3.68441E-002	4.09337E-002	5.68532E-004	...........
	8	2.325	3.82730E-002	4.20502E-002	5.68832E-004	...........
	9	2.58333	3.95821E-002	4.31117E-002	5.64699E-004	...........
	10	2.84167	4.07920E-002	4.41167E-002	5.69166E-004	...........
	11	3.1	4.19238E-002	4.50820E-002	5.66532E-004	...........
	12	3.35833	4.29922E-002	4.59951E-002	5.71866E-004	...........
	13	3.61667	4.40069E-002	4.68776E-002	5.69432E-004	...........
	14	3.875	4.49739E-002	4.77263E-002	5.71766E-004	...........
	15	4.13333	4.58987E-002	4.85507E-002	5.69099E-004	...........
	16	4.39167	4.67865E-002	4.93634E-002	5.66532E-004	...........
	17	4.65	4.76440E-002	5.01776E-002	5.68799E-004	...........
EOC	QUANT	0.0484789	Open Circuit (V)
PSTATMODEL	IQUANT	4	Pstat Model
PSTATSECTION	LABEL	REF600-11020	Pstat Section
PSTATSERIALNO	LABEL	11020	Pstat Serial Number
CTRLMODE	IQUANT	1	Control Mode
IESTAB	IQUANT	0	I/E Stability
CASPEED	IQUANT	1	Control Amp Speed
CONVENTION	IQUANT	1	Current Convention
ICHRANGE	IQUANT	2	Ich Range
ICHRANGEMODE	TOGGLE	F	Ich Auto Range
ICHOFFSETENABLE	TOGGLE	T	Ich Offset Enable
ICHOFFSET	QUANT	0	Ich Offset (V)
ICHFILTER	IQUANT	3	Ich Filter
VCHRANGE	IQUANT	2	Vch Range
VCHRANGEMODE	TOGGLE	F	Vch Auto Range
VCHOFFSETENABLE	TOGGLE	T	Vch Offset Enable
VCHOFFSET	QUANT	0	Vch Offset (V)
VCHFILTER	IQUANT	3	Vch Filter
ACHRANGE	IQUANT	2	Ach Range
ACHOFFSETENABLE	TOGGLE	F	Ach Offset Enable
ACHOFFSET	QUANT	0	Ach Offset (V)
ACHFILTER	IQUANT	3	Ach Filter
IERANGELOWERLIMIT	IQUANT	1	I/E Range Lower Limit
IERANGEMODE	TOGGLE	F	I/E AutoRange
IERANGE	IQUANT	3	I/E Range
POSFEEDENABLE	TOGGLE	F	Positive Feedback IR Comp
POSFEEDRESISTANCE	QUANT	0	Positive Feedback Resistance (ohm)
ACHSELECT	IQUANT	0	Ach Select
CABLEID	IQUANT	14	Cable ID
DCCALDATE	LABEL	8/19/2019	DC Calibration Date
ACCALDATE	LABEL	8/19/2019	AC Calibration Date
THERMOSELECT	IQUANT	1	Thermo Select
FRAMEWORKVERSION	QUANT	6.33	Framework Version
INSTRUMENTVERSION	LABEL	3.50	Instrument Version
ZCURVE	TABLE
	Pt	Time	Freq	Zreal	Zimag	Zsig	Zmod	Zphz	Idc	Vdc	IERange
	#	s	Hz	ohm	ohm	V	ohm	°	A	V	#
	0	2	1000078	2036.577	-735.41	1	2165.288	-19.8547	-2.514113E-006	0.0514107	8
	1	3	794390.6	2146.264	-652.1774	1	2243.164	-16.90226	-3.023056E-006	0.0513973	8
	2	5	630984.4	2224.622	-568.8599	1	2296.202	-14.34379	2.334564E-006	0.0499215	8
	3	6	501234.4	2284.117	-488.2284	1	2335.713	-12.06537	-5.132714E-007	0.0502976	8
	4	7	398109.4	2327.817	-432.7993	1	2367.709	-10.53245	2.694274E-007	0.0501708	8
	5	9	316265.6	2361.177	-374.5666	1	2390.702	-9.014034	-3.946013E-006	0.0510466	8
	6	10	251203.1	2394.98	-336.1396	1	2418.454	-7.989377	-2.11996E-008	0.0501857	8
	7	11	199546.9	2428.364	-308.2939	1	2447.855	-7.235301	1.761309E-006	0.049738	8
	8	13	158578.1	2443.248	-285.2042	1	2459.838	-6.658093	-3.797647E-006	0.0509962	8
	9	14	125953.1	2486.5	-251.6141	1	2499.198	-5.778211	9.37659E-007	0.0486018	7
	10	15	100078.1	2503.48	-249.7165	1	2515.904	-5.696282	-4.399763E-008	0.0501754	7
	11	17	79453.13	2526.966	-260.8553	1	2540.394	-5.893691	3.988879E-008	0.0499846	7
	12	18	63140.62	2553.266	-275.7783	1	2568.116	-6.164618	-1.281214E-008	0.0501375	7
	13	19	50203.12	2582.371	-295.7798	1	2599.255	-6.534073	1.709667E-008	0.0500436	7
	14	21	39890.62	2614.16	-320.4929	1	2633.733	-6.989514	6.032132E-008	0.0499807	7
	15	22	31640.63	2649.167	-352.0245	1	2672.454	-7.569189	1.619351E-008	0.0500957	7
	16	23	25171.88	2688.355	-389.1733	1	2716.378	-8.237067	-3.46305E-008	0.0501284	7
	17	25	20015.62	2731.008	-433.8065	1	2765.248	-9.02573	1.464497E-008	0.0500373	7
	18	26	15890.62	2779.851	-486.2493	1	2822.058	-9.92175	-2.223977E-008	0.0501034	7
	19	27	12609.37	2834.443	-549.3265	1	2887.183	-10.96818	-5.137426E-009	0.0501262	7
	20	29	10078.13	2893.584	-618.9531	1	2959.042	-12.07392	-4.184714E-008	0.0501781	7
	21	30	8015.625	2961.413	-701.67	1	3043.404	-13.32971	-4.42287E-008	0.0501643	7
	22	31	6328.125	3039.837	-801.222	1	3143.655	-14.76586	6.45799E-008	0.0499772	7
	23	33	5015.625	3127.236	-912.8658	1	3257.749	-16.27296	4.271439E-008	0.0499739	7
	24	34	3984.375	3225.181	-1041.633	1	3389.217	-17.89884	-2.02317E-008	0.0501011	7
	25	35	3170.956	3332.986	-1187.586	1	3538.242	-19.61165	6.326567E-008	0.0499727	7
	26	37	2527.573	3453.013	-1354.062	1	3709.014	-21.41209	4.060726E-009	0.0500383	7
	27	38	1976.103	3596.199	-1564.351	1	3921.714	-23.5091	-2.9858E-008	0.050186	7
	28	39	1577.524	3738.867	-1787.715	1	4144.279	-25.55449	-2.200536E-008	0.0500941	7
	29	41	1265.625	3888.547	-2045.554	1	4393.756	-27.74643	-4.117516E-008	0.0501706	7
	30	42	998.264	4061.043	-2373.807	1	4703.937	-30.30762	1.618891E-008	0.0500313	7
	31	43	796.875	4237.06	-2753.454	1	5053.137	-33.01783	-2.191161E-008	0.0501044	7
	32	45	627.7902	4436.862	-3243.529	1	5496.019	-36.16834	-2.458053E-008	0.0501771	7
	33	46	505.5147	4631.967	-3784.617	1	5981.509	-39.25105	-1.792824E-008	0.050102	7
	34	47	397.9953	4884.066	-4511.975	1	6649.212	-42.73222	2.228279E-009	0.050122	7
	35	49	315.5048	5158.183	-5388.106	1	7459.125	-46.24892	3.23649E-009	0.0501162	7
	36	50	252.4038	5463.658	-6421.091	1	8431.012	-49.60579	4.234116E-009	0.0501204	7
	37	51	198.6229	5853.324	-7784.58	1	9739.67	-53.06003	3.008349E-009	0.0501144	7
	38	53	158.3615	6305.443	-9368.59	1	11292.88	-56.05784	-1.708619E-009	0.0500563	6
	39	54	125.558	6880.183	-11355.52	1	13277.23	-58.7888	-2.18628E-009	0.0500574	6
	40	55	100.4464	7582.736	-13677.92	1	15639.16	-60.99697	-1.699863E-009	0.050058	6
	41	57	79.00281	8538.402	-16712.88	1	18767.64	-62.93807	-2.929425E-009	0.050054	6
	42	58	63.3446	9628.35	-20035.79	1	22229.21	-64.33305	-2.899321E-009	0.0500525	6
	43	59	49.86702	11353.25	-24441.65	1	26949.78	-65.08494	-3.268688E-009	0.0500539	6
	44	61	39.72458	13291.72	-29284.05	1	32159.37	-65.5872	-2.034358E-009	0.0500561	6
	45	62	31.6723	15751.1	-34969.88	1	38353.48	-65.7523	-2.5498E-009	0.0500564	6
	46	64	24.93351	19078.32	-41989.11	1	46120.15	-65.56468	-2.550872E-009	0.0500527	6
	47	65	19.86229	22932.19	-49729.94	1	54762.69	-65.24394	-1.317278E-009	0.0500594	6
	48	66	15.83615	27606.08	-58757.21	1	64919.22	-64.83431	-2.079483E-009	0.0500583	6
	49	68	12.40079	33664.86	-69776.79	1	77473.37	-64.24432	-3.184097E-009	0.0500611	6
	50	69	9.93114	40243.33	-81429.41	1	90831.02	-63.7009	-2.237077E-009	0.0500646	6
	51	71	7.944915	48037.43	-94747.47	1	106229.4	-63.11477	-2.011005E-009	0.0500722	5
	52	72	6.317385	57245.88	-110864.5	1	124771.9	-62.69002	-3.389897E-009	0.050078	5
	53	74	5.008013	68522.11	-129626.5	1	146623	-62.13853	-2.39079E-009	0.0500694	5
	54	77	3.945707	82176.79	-152190.3	1	172959.3	-61.63269	-3.152196E-009	0.0500568	5
	55	79	3.158693	97462.5	-176517.2	1	201636.5	-61.09508	-2.995125E-009	0.0500484	5
	56	82	2.504006	116145.9	-206044.4	1	236525.2	-60.59033	-2.686183E-009	0.0500707	5
	57	85	1.998082	137749.7	-238746.3	1	275635.2	-60.0163	-2.890895E-009	0.0500855	5
	58	88	1.584686	164434.9	-276458.8	1	321664.9	-59.25624	-3.251275E-009	0.05004	5
	59	92	1.266892	195180.4	-319509	1	374408.1	-58.58025	-3.298188E-009	0.0500917	5
	60	96	0.999041	234878	-370301.1	1	438509.5	-57.61349	-3.697795E-009	0.0500211	5
