EXPLAIN
TAG	EISPOT
TITLE	LABEL	Potentiostatic EIS	Test &Identifier
DATE	LABEL	10/8/2019	Date
TIME	LABEL	8:36:59	Time
NOTES	NOTES	2	&Notes...
	
	
PSTAT	PSTAT	REF600-11020	Potentiostat
VDC	POTEN	0.00000E+000	T	DC &Voltage (V)
FREQINIT	QUANT	1.00000E+006	Initial Fre&q. (Hz)
FREQFINAL	QUANT	1.00000E+000	Final Fre&q. (Hz)
PTSPERDEC	QUANT	1.00000E+001	Points/&decade
VAC	QUANT	2.50000E+001	AC &Voltage (mV rms)
AREA	QUANT	1.00000E-002	&Area (cm^2)
CONDIT	TWOPARAM	T	5.00000E+000	0.00000E+000	Conditionin&g	Time(s)	E(V)
DELAY	TWOPARAM	T	5.00000E+000	0.00000E+000	Init. De&lay	Time(s)	Stab.(mV/s)
SPEED	SELECTOR	1	&Optimize for:
ZGUESS	QUANT	1.00000E+004	E&stimated Z (ohms)
OCVCURVE	TABLE	19
	Pt	T	Vf	Vm	Ach	Over
	#	s	V vs. Ref.	V	V	bits
	0	0.258333	6.45317E-003	6.45317E-003	5.20900E-004	...........
	1	0.516667	6.45240E-003	6.41290E-003	5.25666E-004	...........
	2	0.775	6.44817E-003	6.40045E-003	5.31833E-004	...........
	3	1.03333	6.43787E-003	6.39095E-003	5.25366E-004	...........
	4	1.29167	6.42296E-003	6.38897E-003	5.22366E-004	...........
	5	1.55	6.40844E-003	6.40090E-003	5.16533E-004	...........
	6	1.80833	6.39910E-003	6.41369E-003	5.23966E-004	...........
	7	2.06667	6.39904E-003	6.51836E-003	5.18000E-004	...........
	8	2.325	6.41148E-003	6.42991E-003	5.20433E-004	...........
	9	2.58333	6.43193E-003	6.45469E-003	5.22500E-004	...........
	10	2.84167	6.44907E-003	6.49093E-003	5.26200E-004	...........
	11	3.1	6.45960E-003	6.51130E-003	5.28800E-004	...........
	12	3.35833	6.47067E-003	6.53503E-003	5.20600E-004	...........
	13	3.61667	6.48749E-003	6.56138E-003	5.30166E-004	...........
	14	3.875	6.50936E-003	6.59255E-003	5.24600E-004	...........
	15	4.13333	6.53432E-003	6.61963E-003	5.20700E-004	...........
	16	4.39167	6.56115E-003	6.64662E-003	5.17166E-004	...........
	17	4.65	6.58891E-003	6.67377E-003	5.27666E-004	...........
	18	4.90833	6.61672E-003	6.69769E-003	5.32000E-004	...........
EOC	QUANT	0.0066167	Open Circuit (V)
PSTATMODEL	IQUANT	4	Pstat Model
PSTATSECTION	LABEL	REF600-11020	Pstat Section
PSTATSERIALNO	LABEL	11020	Pstat Serial Number
CTRLMODE	IQUANT	1	Control Mode
IESTAB	IQUANT	0	I/E Stability
CASPEED	IQUANT	1	Control Amp Speed
CONVENTION	IQUANT	1	Current Convention
ICHRANGE	IQUANT	2	Ich Range
ICHRANGEMODE	TOGGLE	F	Ich Auto Range
ICHOFFSETENABLE	TOGGLE	T	Ich Offset Enable
ICHOFFSET	QUANT	0	Ich Offset (V)
ICHFILTER	IQUANT	3	Ich Filter
VCHRANGE	IQUANT	2	Vch Range
VCHRANGEMODE	TOGGLE	F	Vch Auto Range
VCHOFFSETENABLE	TOGGLE	T	Vch Offset Enable
VCHOFFSET	QUANT	0	Vch Offset (V)
VCHFILTER	IQUANT	3	Vch Filter
ACHRANGE	IQUANT	2	Ach Range
ACHOFFSETENABLE	TOGGLE	F	Ach Offset Enable
ACHOFFSET	QUANT	0	Ach Offset (V)
ACHFILTER	IQUANT	3	Ach Filter
IERANGELOWERLIMIT	IQUANT	1	I/E Range Lower Limit
IERANGEMODE	TOGGLE	F	I/E AutoRange
IERANGE	IQUANT	6	I/E Range
POSFEEDENABLE	TOGGLE	F	Positive Feedback IR Comp
POSFEEDRESISTANCE	QUANT	0	Positive Feedback Resistance (ohm)
ACHSELECT	IQUANT	0	Ach Select
CABLEID	IQUANT	14	Cable ID
DCCALDATE	LABEL	8/19/2019	DC Calibration Date
ACCALDATE	LABEL	8/19/2019	AC Calibration Date
THERMOSELECT	IQUANT	1	Thermo Select
FRAMEWORKVERSION	QUANT	6.33	Framework Version
INSTRUMENTVERSION	LABEL	3.50	Instrument Version
ZCURVE	TABLE
	Pt	Time	Freq	Zreal	Zimag	Zsig	Zmod	Zphz	Idc	Vdc	IERange
	#	s	Hz	ohm	ohm	V	ohm	°	A	V	#
	0	2	1000078	2531.129	-1721.555	1	3061.105	-34.22169	1.667289E-009	0.0087663	8
	1	4	794390.6	2868.066	-1613.389	1	3290.719	-29.3593	-1.212128E-007	0.0084876	8
	2	5	630984.4	3161.073	-1491.688	1	3495.357	-25.26229	-5.017584E-007	0.0082536	8
	3	6	501234.4	3399.609	-1320.438	1	3647.039	-21.22661	-4.826456E-006	0.0092969	8
	4	8	398109.4	3594.536	-1160.612	1	3777.262	-17.89435	-3.032617E-007	0.0081829	8
	5	9	316265.6	3740.91	-1008.692	1	3874.515	-15.09025	-2.270799E-006	0.0085451	8
	6	11	251203.1	3836.674	-845.135	1	3928.653	-12.42261	-3.04878E-006	0.0085346	8
	7	12	199546.9	3923.256	-751.7288	1	3994.626	-10.84688	-2.137141E-006	0.0085259	8
	8	14	158578.1	3982.842	-630.0935	1	4032.375	-8.989802	1.002915E-006	0.007906	8
	9	15	125953.1	4050.298	-506.2901	1	4081.819	-7.125056	-5.85951E-007	0.0100986	7
	10	16	100078.1	4085.292	-452.7924	1	4110.308	-6.324551	1.409512E-007	0.0078419	7
	11	18	79453.13	4117.697	-417.0388	1	4138.762	-5.783175	-1.429336E-008	0.0080214	7
	12	19	63140.62	4151.317	-390.7865	1	4169.67	-5.377722	-3.338192E-008	0.0080639	7
	13	20	50203.12	4182.218	-376.4288	1	4199.124	-5.143161	1.355817E-007	0.007846	7
	14	22	39890.62	4212.379	-370.3708	1	4228.63	-5.024774	9.3376E-008	0.0079961	7
	15	23	31640.63	4243.64	-375.8397	1	4260.25	-5.061219	8.148063E-008	0.0078819	7
	16	24	25171.88	4274.684	-389.3604	1	4292.38	-5.204435	-1.532472E-008	0.0080207	7
	17	26	20015.62	4305.501	-415.1174	1	4325.467	-5.507183	-1.31807E-008	0.0080175	7
	18	27	15890.62	4339.266	-448.2455	1	4362.356	-5.897726	4.549135E-008	0.0079072	7
	19	29	12609.37	4372.385	-494.8775	1	4400.301	-6.457401	-4.145021E-008	0.00814	7
	20	30	10078.13	4406.768	-555.6014	1	4441.655	-7.185886	-3.005333E-008	0.0080584	7
	21	31	8015.625	4442.344	-631.4235	1	4486.994	-8.089687	-3.766531E-008	0.0080636	7
	22	33	6328.125	4482.503	-736.3657	1	4542.584	-9.328972	-3.777868E-009	0.0080604	7
	23	34	5015.625	4524.292	-864.6167	1	4606.167	-10.81909	8.108056E-008	0.0078796	7
	24	35	3984.375	4572.54	-1026.431	1	4686.33	-12.65187	9.187955E-009	0.0079791	7
	25	37	3170.956	4625.707	-1220.258	1	4783.951	-14.77793	-4.943253E-008	0.0080813	7
	26	38	2527.573	4687.595	-1460.619	1	4909.884	-17.30663	-1.948938E-008	0.0080084	7
	27	39	1976.103	4760.222	-1782.223	1	5082.916	-20.52585	-1.308225E-008	0.008189	7
	28	41	1577.524	4840.709	-2143.029	1	5293.868	-23.87944	6.776624E-008	0.0079375	7
	29	42	1265.625	4937.68	-2577.898	1	5570.12	-27.56847	-1.120701E-008	0.0080061	7
	30	44	998.264	5055.533	-3154.634	1	5959.038	-31.96401	-3.117691E-008	0.0080501	7
	31	45	796.875	5187.279	-3828.461	1	6447.09	-36.42911	-6.082301E-008	0.0082253	7
	32	46	627.7902	5353.063	-4710.144	1	7130.27	-41.34445	9.131477E-008	0.0079888	7
	33	48	505.5147	5534.93	-5681.449	1	7931.854	-45.74841	-1.673403E-008	0.0080127	7
	34	49	397.9953	5787.338	-7015.981	1	9094.904	-50.48148	4.449075E-009	0.0080676	7
	35	50	315.5048	6090.038	-8615.871	1	10550.92	-54.74582	5.384195E-010	0.0080006	6
	36	52	252.4038	6452.286	-10506.88	1	12329.9	-58.44586	5.417676E-010	0.0080003	6
	37	53	198.6229	6947.674	-13010.36	1	14749.23	-61.8973	6.802952E-010	0.0080005	6
	38	54	158.3615	7556.338	-15926.39	1	17628.05	-64.61781	3.642277E-010	0.0079895	6
	39	56	125.558	8375.563	-19586.35	1	21302	-66.84736	4.715235E-010	0.0079997	6
	40	57	100.4464	9416.328	-23861.36	1	25652.13	-68.46449	5.934745E-010	0.0079953	6
	41	59	79.00281	10926.29	-29496.6	1	31455.26	-69.6741	3.094932E-010	0.0079949	6
	42	60	63.3446	12618.03	-36007.61	1	38154.46	-70.68817	1.072089E-009	0.0079937	6
	43	62	49.86702	15436.78	-43830.18	1	46469.12	-70.59798	8.892511E-010	0.0079921	6
	44	63	39.72458	18829.53	-53332.29	1	56558.68	-70.55388	1.163898E-009	0.0079972	6
	45	64	31.6723	23306.38	-64272.9	1	68368.07	-70.06854	5.180029E-010	0.0079922	6
	46	66	24.93351	29501.05	-77915.35	1	83313.34	-69.26186	2.688735E-010	0.007997	6
	47	67	19.86229	37183.81	-92836.31	1	100006.1	-68.17237	1.069723E-009	0.0080056	6
	48	68	15.83615	47531.79	-109140.4	1	119041.6	-66.46637	6.972355E-010	0.0080028	5
	49	70	12.40079	60157.52	-129717.1	1	142987.6	-65.12004	1.202717E-009	0.0080011	5
	50	71	9.93114	74466.54	-150750.3	1	168139.6	-63.71188	5.053211E-010	0.0080006	5
	51	73	7.944915	91241.77	-173702.2	1	196207.8	-62.28809	-2.034126E-010	0.008001	5
	52	75	6.317385	110581.7	-199385.2	1	227997.3	-60.98667	5.183781E-010	0.0079882	5
	53	77	5.008013	133251.1	-229073.2	1	265010.2	-59.81357	-1.492848E-011	0.0080002	5
	54	79	3.945707	158605.6	-263274.4	1	307358.4	-58.93379	-2.198152E-010	0.007993	5
	55	82	3.158693	184763.9	-299947.3	1	352286.9	-58.36744	2.684843E-010	0.0080146	5
	56	85	2.504006	215609.9	-344846.5	1	406702.3	-57.98496	-1.745897E-010	0.0079896	5
	57	88	1.998082	248652	-395625.6	1	467276.6	-57.8505	-2.08113E-010	0.0079929	5
	58	91	1.584686	288725.9	-455138.4	1	538993.1	-57.6102	1.908594E-011	0.0080484	5
	59	95	1.266892	330507.4	-524515.1	1	619960.6	-57.78416	-1.543382E-010	0.0080057	5
	60	99	0.999041	383277.1	-609440.1	1	719943.5	-57.8342	2.063197E-010	0.008018	5
