EXPLAIN
TAG	EISPOT
TITLE	LABEL	Potentiostatic IDE	Test &Identifier
DATE	LABEL	9/6/2019	Date
TIME	LABEL	9:07:14	Time
NOTES	NOTES	1	&Notes...
	
PSTAT	PSTAT	REF600-11020	Potentiostat
VDC	POTEN	0.00000E+000	T	DC &Voltage (V)
FREQINIT	QUANT	1.00000E+006	Initial Fre&q. (Hz)
FREQFINAL	QUANT	1.00000E+000	Final Fre&q. (Hz)
PTSPERDEC	QUANT	1.00000E+001	Points/&decade
VAC	QUANT	2.50000E+001	AC &Voltage (mV rms)
AREA	QUANT	1.00000E-002	&Area (cm^2)
CONDIT	TWOPARAM	T	5.00000E+000	0.00000E+000	Conditionin&g	Time(s)	E(V)
DELAY	TWOPARAM	T	5.00000E+000	0.00000E+000	Init. De&lay	Time(s)	Stab.(mV/s)
SPEED	SELECTOR	1	&Optimize for:
ZGUESS	QUANT	1.00000E+007	E&stimated Z (ohms)
OCVCURVE	TABLE	19
	Pt	T	Vf	Vm	Ach	Over
	#	s	V vs. Ref.	V	V	bits
	0	0.258333	7.84967E-003	7.84967E-003	5.78899E-004	...........
	1	0.516667	7.84619E-003	7.66713E-003	5.75365E-004	...........
	2	0.775	7.82532E-003	7.52264E-003	5.78932E-004	...........
	3	1.03333	7.76845E-003	7.40249E-003	5.80699E-004	...........
	4	1.29167	7.67194E-003	7.29716E-003	5.77399E-004	...........
	5	1.55	7.55231E-003	7.20613E-003	5.76799E-004	...........
	6	1.80833	7.43038E-003	7.11477E-003	5.76632E-004	...........
	7	2.06667	7.31797E-003	7.03334E-003	5.78032E-004	...........
	8	2.325	7.21742E-003	6.95835E-003	5.80732E-004	...........
	9	2.58333	7.12688E-003	6.88980E-003	5.79666E-004	...........
	10	2.84167	7.04432E-003	6.82439E-003	5.79999E-004	...........
	11	3.1	6.96905E-003	6.79893E-003	5.75532E-004	...........
	12	3.35833	6.90144E-003	6.70263E-003	5.76566E-004	...........
	13	3.61667	6.83965E-003	6.64337E-003	5.79666E-004	...........
	14	3.875	6.77880E-003	6.58859E-003	5.82899E-004	...........
	15	4.13333	6.71648E-003	6.53692E-003	5.81065E-004	...........
	16	4.39167	6.65479E-003	6.48135E-003	5.83665E-004	...........
	17	4.65	6.59644E-003	6.44977E-003	5.81132E-004	...........
	18	4.90833	6.54564E-003	6.55235E-003	5.81465E-004	...........
EOC	QUANT	0.0065456	Open Circuit (V)
PSTATMODEL	IQUANT	4	Pstat Model
PSTATSECTION	LABEL	REF600-11020	Pstat Section
PSTATSERIALNO	LABEL	11020	Pstat Serial Number
CTRLMODE	IQUANT	1	Control Mode
IESTAB	IQUANT	0	I/E Stability
CASPEED	IQUANT	1	Control Amp Speed
CONVENTION	IQUANT	1	Current Convention
ICHRANGE	IQUANT	2	Ich Range
ICHRANGEMODE	TOGGLE	F	Ich Auto Range
ICHOFFSETENABLE	TOGGLE	T	Ich Offset Enable
ICHOFFSET	QUANT	0	Ich Offset (V)
ICHFILTER	IQUANT	3	Ich Filter
VCHRANGE	IQUANT	2	Vch Range
VCHRANGEMODE	TOGGLE	F	Vch Auto Range
VCHOFFSETENABLE	TOGGLE	T	Vch Offset Enable
VCHOFFSET	QUANT	0	Vch Offset (V)
VCHFILTER	IQUANT	3	Vch Filter
ACHRANGE	IQUANT	2	Ach Range
ACHOFFSETENABLE	TOGGLE	F	Ach Offset Enable
ACHOFFSET	QUANT	0	Ach Offset (V)
ACHFILTER	IQUANT	3	Ach Filter
IERANGELOWERLIMIT	IQUANT	1	I/E Range Lower Limit
IERANGEMODE	TOGGLE	F	I/E AutoRange
IERANGE	IQUANT	3	I/E Range
POSFEEDENABLE	TOGGLE	F	Positive Feedback IR Comp
POSFEEDRESISTANCE	QUANT	0	Positive Feedback Resistance (ohm)
ACHSELECT	IQUANT	0	Ach Select
CABLEID	IQUANT	14	Cable ID
DCCALDATE	LABEL	8/19/2019	DC Calibration Date
ACCALDATE	LABEL	8/19/2019	AC Calibration Date
THERMOSELECT	IQUANT	1	Thermo Select
FRAMEWORKVERSION	QUANT	6.33	Framework Version
INSTRUMENTVERSION	LABEL	3.50	Instrument Version
ZCURVE	TABLE
	Pt	Time	Freq	Zreal	Zimag	Zsig	Zmod	Zphz	Idc	Vdc	IERange
	#	s	Hz	ohm	ohm	V	ohm	°	A	V	#
	0	2	1000078	2603.822	-1965.594	1	3262.43	-37.04872	5.601537E-007	0.0088751	8
	1	4	794390.6	3003.252	-1878.607	1	3542.413	-32.02698	8.414927E-007	0.0083711	8
	2	5	630984.4	3356.659	-1722.653	1	3772.889	-27.16711	3.374977E-006	0.0078292	8
	3	6	501234.4	3629.478	-1553.026	1	3947.784	-23.16572	-1.854762E-007	0.0082449	8
	4	8	398109.4	3846.868	-1354.882	1	4078.492	-19.40246	-3.247188E-007	0.0084203	8
	5	9	316265.6	4028.492	-1193.587	1	4201.594	-16.50383	2.930084E-007	0.0081441	8
	6	10	251203.1	4151.273	-1064.862	1	4285.673	-14.387	1.120542E-006	0.0079761	8
	7	12	199546.9	4253.547	-938.0005	1	4355.744	-12.43594	-2.599493E-006	0.0087658	8
	8	13	158578.1	4324.879	-843.3793	1	4406.344	-11.03456	-2.499689E-006	0.0087599	8
	9	14	125953.1	4415.702	-734.0272	1	4476.295	-9.438042	8.199733E-007	0.0063872	7
	10	15	100078.1	4470.254	-696.6113	1	4524.206	-8.857312	-8.906689E-009	0.0081918	7
	11	17	79453.13	4525.514	-679.4745	1	4576.239	-8.538781	4.658059E-008	0.0080763	7
	12	18	63140.62	4585.952	-679.4233	1	4636.008	-8.427252	7.438123E-008	0.0080388	7
	13	19	50203.12	4642.388	-693.5114	1	4693.903	-8.496402	5.062954E-008	0.0080493	7
	14	21	39890.62	4703.989	-726.0347	1	4759.689	-8.774052	-3.633229E-008	0.0082062	7
	15	22	31640.63	4770.237	-776.4904	1	4833.021	-9.245413	2.004169E-009	0.0081081	7
	16	23	25171.88	4838.959	-844.6697	1	4912.127	-9.90156	-2.226632E-008	0.0081735	7
	17	25	20015.62	4912.341	-931.8413	1	4999.942	-10.74104	4.982945E-008	0.008048	7
	18	26	15890.62	4998.89	-1044.536	1	5106.854	-11.80235	-2.144121E-008	0.0081783	7
	19	27	12609.37	5087.854	-1183.311	1	5223.646	-13.09285	-2.295235E-008	0.0082178	7
	20	29	10078.13	5185.005	-1346.303	1	5356.94	-14.5556	1.420739E-008	0.0080911	7
	21	30	8015.625	5293.77	-1550.226	1	5516.086	-16.32213	-3.552594E-008	0.0081995	7
	22	31	6328.125	5421.833	-1802.262	1	5713.529	-18.38724	-5.875033E-009	0.0081763	7
	23	33	5015.625	5568.255	-2106.817	1	5953.499	-20.72475	-2.936885E-008	0.0082082	7
	24	34	3984.375	5732.184	-2470.855	1	6242.04	-23.31844	-1.964673E-009	0.0081698	7
	25	35	3170.956	5923.226	-2900.167	1	6595.117	-26.08759	5.189267E-008	0.0080462	7
	26	37	2527.573	6140.802	-3415.211	1	7026.601	-29.08065	-3.458932E-009	0.0081584	7
	27	38	1976.103	6422.083	-4083.619	1	7610.46	-32.45112	8.218242E-008	0.0080478	7
	28	39	1577.524	6729.704	-4820.668	1	8278.149	-35.61505	-3.582071E-008	0.0082	7
	29	41	1265.625	7073.994	-5670.5	1	9066.198	-38.71559	-6.409802E-009	0.0081637	7
	30	42	998.264	7528.151	-6764.127	1	10120.6	-41.94004	1.087507E-008	0.0079112	6
	31	43	796.875	8029.512	-8007.04	1	11339.57	-44.91971	-2.699487E-009	0.0081145	6
	32	45	627.7902	8651.494	-9571.39	1	12901.94	-47.88987	-2.976734E-009	0.0081139	6
	33	46	505.5147	9292.981	-11265.33	1	14603.67	-50.48015	1.600072E-009	0.0081431	6
	34	47	397.9953	10159.7	-13489.16	1	16887.18	-53.01384	7.717489E-010	0.0080991	6
	35	49	315.5048	11123.29	-16088.55	1	19559.37	-55.34081	6.917645E-010	0.0080947	6
	36	50	252.4038	12201.62	-19083.67	1	22650.96	-57.40617	6.052648E-010	0.0080954	6
	37	51	198.6229	13559.31	-22957.96	1	26663.14	-59.43327	7.693234E-010	0.0080932	6
	38	53	158.3615	15078	-27386.86	1	31263.18	-61.16475	7.829922E-010	0.0080936	6
	39	54	125.558	16933.97	-32865.22	1	36971.37	-62.73998	8.852593E-010	0.0080962	6
	40	55	100.4464	19072.29	-39197.52	1	43591.25	-64.05389	6.91015E-010	0.0080976	6
	41	57	79.00281	21871.72	-47432.65	1	52232.45	-65.24506	9.877048E-010	0.0080952	6
	42	58	63.3446	25049.25	-56844.58	1	62119.01	-66.21873	5.59838E-010	0.0080936	6
	43	59	49.86702	28983.63	-68473.56	1	74355.09	-67.05793	6.370532E-010	0.0080879	6
	44	61	39.72458	34103.49	-82169.15	1	88965.26	-67.45959	7.937514E-010	0.0080914	6
	45	62	31.6723	40030.84	-98431.1	1	106259.8	-67.86897	6.798019E-010	0.0080976	5
	46	63	24.93351	48025.05	-118776.7	1	128118.3	-67.98501	2.734668E-010	0.0080989	5
	47	65	19.86229	57463.91	-141967.8	1	153156.6	-67.96351	6.145703E-010	0.0081022	5
	48	66	15.83615	69399.24	-169726.3	1	183366.5	-67.76089	9.379417E-010	0.0080965	5
	49	67	12.40079	84592.58	-204317.9	1	221137.3	-67.50926	4.423253E-010	0.0081039	5
	50	69	9.93114	103176.8	-241903.6	1	262988.2	-66.90076	2.36992E-010	0.0080989	5
	51	70	7.944915	125661.4	-285478.6	1	311911.6	-66.24196	9.12079E-011	0.0080993	5
	52	72	6.317385	153935.8	-337170.6	1	370648.4	-65.46085	6.994187E-011	0.008106	5
	53	74	5.008013	190302.7	-397393.3	1	440609.3	-64.41129	3.380799E-010	0.0081013	5
	54	76	3.945707	235352.9	-468408.1	1	524211	-63.32264	1.346404E-010	0.0080921	5
	55	79	3.158693	287107.9	-543334.8	1	614527.2	-62.14722	2.9466E-010	0.0081048	5
	56	82	2.504006	351961.5	-630837.8	1	722380.3	-60.84166	-5.333653E-011	0.0081022	5
	57	85	1.998082	425967.7	-721499.3	1	837860.2	-59.44272	2.774209E-010	0.0080571	5
	58	88	1.584686	513812.7	-828534.8	1	974922	-58.19504	4.394974E-011	0.0080846	5
	59	92	1.266892	615038.9	-938995.8	1	1122491	-56.77534	9.817588E-011	0.0080519	4
	60	96	0.999041	732864.6	-1065287	1	1293030	-55.47396	9.985032E-011	0.0081349	4
