EXPLAIN
TAG	EISPOT
TITLE	LABEL	Potentiostatic EIS	Test &Identifier
DATE	LABEL	10/26/2019	Date
TIME	LABEL	10:12:15	Time
NOTES	NOTES	1	&Notes...
	
PSTAT	PSTAT	REF600-11020	Potentiostat
VDC	POTEN	0.00000E+000	T	DC &Voltage (V)
FREQINIT	QUANT	1.00000E+006	Initial Fre&q. (Hz)
FREQFINAL	QUANT	1.00000E+000	Final Fre&q. (Hz)
PTSPERDEC	QUANT	1.00000E+001	Points/&decade
VAC	QUANT	2.50000E+001	AC &Voltage (mV rms)
AREA	QUANT	1.00000E-002	&Area (cm^2)
CONDIT	TWOPARAM	T	5.00000E+000	0.00000E+000	Conditionin&g	Time(s)	E(V)
DELAY	TWOPARAM	T	5.00000E+000	0.00000E+000	Init. De&lay	Time(s)	Stab.(mV/s)
SPEED	SELECTOR	0	&Optimize for:
ZGUESS	QUANT	1.00000E+005	E&stimated Z (ohms)
OCVCURVE	TABLE	19
	Pt	T	Vf	Vm	Ach	Over
	#	s	V vs. Ref.	V	V	bits
	0	0.258333	6.46075E-003	6.46075E-003	5.91465E-004	...........
	1	0.516667	6.45944E-003	6.39198E-003	5.88665E-004	...........
	2	0.775	6.45172E-003	6.34487E-003	5.90399E-004	...........
	3	1.03333	6.43127E-003	6.31261E-003	5.92632E-004	...........
	4	1.29167	6.39830E-003	6.29824E-003	5.91965E-004	...........
	5	1.55	6.36088E-003	6.27601E-003	5.87532E-004	...........
	6	1.80833	6.32747E-003	6.26795E-003	5.84032E-004	...........
	7	2.06667	6.30181E-003	6.26781E-003	5.88265E-004	...........
	8	2.325	6.28434E-003	6.27382E-003	5.92499E-004	...........
	9	2.58333	6.27465E-003	6.27795E-003	5.91432E-004	...........
	10	2.84167	6.27173E-003	6.28788E-003	5.93099E-004	...........
	11	3.1	6.27403E-003	6.30320E-003	5.98365E-004	...........
	12	3.35833	6.28040E-003	6.31992E-003	5.92799E-004	...........
	13	3.61667	6.29031E-003	6.33271E-003	5.89632E-004	...........
	14	3.875	6.30297E-003	6.34700E-003	5.92565E-004	...........
	15	4.13333	6.31708E-003	6.36245E-003	5.87632E-004	...........
	16	4.39167	6.33172E-003	6.38051E-003	5.93932E-004	...........
	17	4.65	6.34662E-003	6.38812E-003	5.86365E-004	...........
	18	4.90833	6.36157E-003	6.41055E-003	5.88399E-004	...........
EOC	QUANT	0.0063616	Open Circuit (V)
PSTATMODEL	IQUANT	4	Pstat Model
PSTATSECTION	LABEL	REF600-11020	Pstat Section
PSTATSERIALNO	LABEL	11020	Pstat Serial Number
CTRLMODE	IQUANT	1	Control Mode
IESTAB	IQUANT	0	I/E Stability
CASPEED	IQUANT	1	Control Amp Speed
CONVENTION	IQUANT	1	Current Convention
ICHRANGE	IQUANT	2	Ich Range
ICHRANGEMODE	TOGGLE	F	Ich Auto Range
ICHOFFSETENABLE	TOGGLE	T	Ich Offset Enable
ICHOFFSET	QUANT	0	Ich Offset (V)
ICHFILTER	IQUANT	3	Ich Filter
VCHRANGE	IQUANT	2	Vch Range
VCHRANGEMODE	TOGGLE	F	Vch Auto Range
VCHOFFSETENABLE	TOGGLE	T	Vch Offset Enable
VCHOFFSET	QUANT	0	Vch Offset (V)
VCHFILTER	IQUANT	3	Vch Filter
ACHRANGE	IQUANT	2	Ach Range
ACHOFFSETENABLE	TOGGLE	F	Ach Offset Enable
ACHOFFSET	QUANT	0	Ach Offset (V)
ACHFILTER	IQUANT	3	Ach Filter
IERANGELOWERLIMIT	IQUANT	1	I/E Range Lower Limit
IERANGEMODE	TOGGLE	F	I/E AutoRange
IERANGE	IQUANT	5	I/E Range
POSFEEDENABLE	TOGGLE	F	Positive Feedback IR Comp
POSFEEDRESISTANCE	QUANT	0	Positive Feedback Resistance (ohm)
ACHSELECT	IQUANT	0	Ach Select
CABLEID	IQUANT	14	Cable ID
DCCALDATE	LABEL	8/19/2019	DC Calibration Date
ACCALDATE	LABEL	8/19/2019	AC Calibration Date
THERMOSELECT	IQUANT	1	Thermo Select
FRAMEWORKVERSION	QUANT	6.33	Framework Version
INSTRUMENTVERSION	LABEL	3.50	Instrument Version
ZCURVE	TABLE
	Pt	Time	Freq	Zreal	Zimag	Zsig	Zmod	Zphz	Idc	Vdc	IERange
	#	s	Hz	ohm	ohm	V	ohm	°	A	V	#
	0	2	1000078	2357.223	-1244.986	1	2665.801	-27.84113	-2.580127E-006	0.008927	8
	1	2	794390.6	2574.793	-1117.725	1	2806.932	-23.4658	5.109381E-006	0.0072517	8
	2	2	630984.4	2753.677	-989.563	1	2926.085	-19.76643	2.340468E-006	0.007377	8
	3	3	501234.4	2888.998	-852.2821	1	3012.092	-16.43656	-2.539894E-006	0.0085128	8
	4	3	398109.4	2985.629	-746.3467	1	3077.501	-14.03515	5.274449E-007	0.0078856	8
	5	3	316265.6	3058.939	-643.0273	1	3125.795	-11.87144	2.592361E-007	0.0078648	8
	6	4	251203.1	3112.591	-556.0261	1	3161.864	-10.12835	1.131493E-006	0.0077224	8
	7	4	199546.9	3163.134	-484.501	1	3200.024	-8.708382	1.49584E-006	0.007491	8
	8	4	158578.1	3203.887	-435.9825	1	3233.415	-7.749166	-1.904108E-006	0.00826	8
	9	5	125953.1	3243.618	-362.8321	1	3263.848	-6.38259	3.81318E-007	0.0076053	7
	10	5	100078.1	3265.05	-334.3029	1	3282.12	-5.846045	-1.400957E-009	0.0078124	7
	11	5	79453.13	3291.818	-327.443	1	3308.063	-5.680626	-5.41558E-009	0.0077962	7
	12	6	63140.62	3318.734	-329.8336	1	3335.084	-5.675725	-4.623519E-008	0.0078687	7
	13	6	50203.12	3348.084	-339.3305	1	3365.236	-5.787203	8.805078E-009	0.0077591	7
	14	6	39890.62	3379.704	-356.3051	1	3398.433	-6.018175	-5.29893E-008	0.0079013	7
	15	7	31640.63	3413.074	-380.9392	1	3434.267	-6.368525	4.38958E-008	0.0077368	7
	16	7	25171.88	3449.725	-412.8664	1	3474.344	-6.824752	-4.580391E-008	0.0078682	7
	17	7	20015.62	3489.71	-453.4716	1	3519.05	-7.403833	-3.727149E-008	0.007894	7
	18	8	15890.62	3533.268	-504.0921	1	3569.046	-8.119608	-4.50663E-008	0.0078662	7
	19	8	12609.37	3582.144	-564.2535	1	3626.312	-8.951586	-1.021626E-008	0.0078297	7
	20	8	10078.13	3629.186	-635.6751	1	3684.437	-9.93494	-5.003016E-009	0.0077875	7
	21	8	8015.625	3688.222	-723.7018	1	3758.554	-11.10152	-3.756367E-008	0.0078835	7
	22	9	6328.125	3751.764	-831.5145	1	3842.805	-12.49663	-7.018963E-009	0.0077649	7
	23	9	5015.625	3818.891	-958.546	1	3937.352	-14.09021	6.53909E-008	0.0076688	7
	24	9	3984.375	3890.2	-1116.781	1	4047.327	-16.01747	-3.433984E-008	0.0078828	7
	25	10	3170.956	3968.354	-1298.696	1	4175.458	-18.12136	-4.481785E-008	0.0078607	7
	26	10	2527.573	4052.804	-1523.98	1	4329.866	-20.60782	-2.685289E-008	0.0078075	7
	27	10	1976.103	4155.227	-1824.95	1	4538.321	-23.71079	-4.523821E-008	0.0078595	7
	28	11	1577.524	4270.9	-2159.148	1	4785.657	-26.81882	-3.226961E-010	0.0077945	7
	29	11	1265.625	4375.951	-2560.879	1	5070.211	-30.33688	-2.584494E-008	0.0078011	7
	30	11	998.264	4517.652	-3081.816	1	5468.708	-34.30071	-8.515824E-009	0.0077648	7
	31	12	796.875	4665.971	-3696.203	1	5952.58	-38.38491	-3.630264E-008	0.0078847	7
	32	12	627.7902	4846.608	-4492.329	1	6608.375	-42.82748	-4.545611E-008	0.0078597	7
	33	12	505.5147	5027.154	-5382.682	1	7365.157	-46.95607	4.288925E-008	0.0077233	7
	34	13	397.9953	5268.028	-6600.862	1	8445.324	-51.40727	1.415661E-009	0.0078277	7
	35	13	315.5048	5545.647	-8070.062	1	9791.84	-55.50363	3.526978E-009	0.0078265	7
	36	13	252.4038	5872.463	-9810.99	1	11434.21	-59.09695	1.318221E-009	0.0077649	6
	37	14	198.6229	6308.556	-12123.28	1	13666.45	-62.50902	7.074408E-010	0.0077681	6
	38	14	158.3615	6841.788	-14828.96	1	16331.2	-65.23233	1.244671E-010	0.0077656	6
	39	14	125.558	7537.967	-18231.26	1	19728.14	-67.53667	6.201564E-010	0.007766	6
	40	15	100.4464	8378.143	-22248.46	1	23773.67	-69.36504	-1.894328E-010	0.0077633	6
	41	15	79.00281	9600.88	-27459.41	1	29089.45	-70.72839	-5.807271E-010	0.007762	6
	42	15	63.3446	11476.43	-33592.83	1	35499.11	-71.13812	7.626736E-010	0.0077653	6
	43	16	49.86702	13487.27	-41421.21	1	43561.71	-71.9641	9.673889E-010	0.0077601	6
	44	16	39.72458	16018.88	-50008.41	1	52511.39	-72.2385	5.640146E-010	0.0077601	6
	45	16	31.6723	19393.1	-60526.23	1	63557.2	-72.23412	4.34063E-010	0.0077588	6
	46	17	24.93351	24261.63	-73998.35	1	77874.15	-71.84738	4.980578E-010	0.0077546	6
	47	17	19.86229	30159.9	-89079.11	1	94046.3	-71.29522	1.250998E-009	0.007763	6
	48	17	15.83615	37732.3	-105918.5	1	112438.6	-70.39211	5.289876E-010	0.0077662	5
	49	18	12.40079	47547.04	-128293.7	1	136821	-69.66475	-1.153618E-009	0.0077675	5
	50	18	9.93114	59983.79	-152406.9	1	163786.2	-68.51656	-2.191916E-010	0.0077713	5
	51	19	7.944915	74029.85	-179806.5	1	194450	-67.62209	6.850415E-010	0.0077589	5
	52	19	6.317385	92275.63	-211980	1	231193.3	-66.47634	5.197573E-010	0.0077511	5
	53	20	5.008013	114740.6	-249340.1	1	274473.8	-65.2892	1.06105E-010	0.0077653	5
	54	21	3.945707	143184.5	-292750.8	1	325890.8	-63.93674	-2.706486E-011	0.0077729	5
	55	22	3.158693	173622	-339421.8	1	381250.3	-62.90922	-1.789989E-010	0.007755	5
	56	24	2.504006	211891.7	-393727.5	1	447123.5	-61.71227	-1.649465E-011	0.0077556	5
	57	25	1.998082	254671.8	-453573.4	1	520179.4	-60.68671	6.694737E-011	0.0077894	5
	58	27	1.584686	305867.6	-520857.5	1	604026.1	-59.5769	-3.883617E-011	0.0077447	5
	59	29	1.266892	363752.8	-595845.7	1	698103.3	-58.59671	-5.645978E-011	0.0077174	5
	60	31	0.999041	433438.1	-685875.1	1	811352.8	-57.70921	-1.156315E-010	0.0077152	5
