EXPLAIN
TAG	EISPOT
TITLE	LABEL	Potentiostatic EIS	Test &Identifier
DATE	LABEL	11/12/2019	Date
TIME	LABEL	22:15:05	Time
NOTES	NOTES	3	&Notes...
	
	
	
PSTAT	PSTAT	REF600-11020	Potentiostat
VDC	POTEN	0.00000E+000	T	DC &Voltage (V)
FREQINIT	QUANT	1.00000E+006	Initial Fre&q. (Hz)
FREQFINAL	QUANT	1.00000E+000	Final Fre&q. (Hz)
PTSPERDEC	QUANT	1.00000E+001	Points/&decade
VAC	QUANT	2.50000E+001	AC &Voltage (mV rms)
AREA	QUANT	1.00000E-002	&Area (cm^2)
CONDIT	TWOPARAM	T	5.00000E+000	0.00000E+000	Conditionin&g	Time(s)	E(V)
DELAY	TWOPARAM	T	5.00000E+000	0.00000E+000	Init. De&lay	Time(s)	Stab.(mV/s)
SPEED	SELECTOR	1	&Optimize for:
ZGUESS	QUANT	1.00000E+005	E&stimated Z (ohms)
OCVCURVE	TABLE	19
	Pt	T	Vf	Vm	Ach	Over
	#	s	V vs. Ref.	V	V	bits
	0	0.258333	8.45112E-003	8.45112E-003	5.89999E-004	...........
	1	0.516667	8.45194E-003	8.49399E-003	5.95932E-004	...........
	2	0.775	8.45736E-003	8.55496E-003	6.10532E-004	...........
	3	1.03333	8.47422E-003	8.62618E-003	6.09332E-004	...........
	4	1.29167	8.50810E-003	8.70293E-003	5.96299E-004	...........
	5	1.55	8.55929E-003	8.77377E-003	5.88799E-004	...........
	6	1.80833	8.62294E-003	8.82908E-003	6.01999E-004	...........
	7	2.06667	8.69235E-003	8.92098E-003	6.04265E-004	...........
	8	2.325	8.76345E-003	8.99107E-003	5.87865E-004	...........
	9	2.58333	8.83563E-003	9.05037E-003	5.88932E-004	...........
	10	2.84167	8.90851E-003	9.13923E-003	5.98399E-004	...........
	11	3.1	8.98099E-003	9.19006E-003	6.07065E-004	...........
	12	3.35833	9.05244E-003	9.26704E-003	5.78732E-004	...........
	13	3.61667	9.12268E-003	9.34171E-003	5.94465E-004	...........
	14	3.875	9.19302E-003	9.44169E-003	6.04932E-004	...........
	15	4.13333	9.26672E-003	9.52542E-003	5.99399E-004	...........
	16	4.39167	9.31677E-003	8.06999E-003	5.90265E-004	...........
	17	4.65	9.22510E-003	6.94234E-003	5.98732E-004	...........
	18	4.90833	8.86557E-003	7.76189E-003	5.98032E-004	...........
EOC	QUANT	0.0088656	Open Circuit (V)
PSTATMODEL	IQUANT	4	Pstat Model
PSTATSECTION	LABEL	REF600-11020	Pstat Section
PSTATSERIALNO	LABEL	11020	Pstat Serial Number
CTRLMODE	IQUANT	1	Control Mode
IESTAB	IQUANT	0	I/E Stability
CASPEED	IQUANT	1	Control Amp Speed
CONVENTION	IQUANT	1	Current Convention
ICHRANGE	IQUANT	2	Ich Range
ICHRANGEMODE	TOGGLE	F	Ich Auto Range
ICHOFFSETENABLE	TOGGLE	T	Ich Offset Enable
ICHOFFSET	QUANT	0	Ich Offset (V)
ICHFILTER	IQUANT	3	Ich Filter
VCHRANGE	IQUANT	2	Vch Range
VCHRANGEMODE	TOGGLE	F	Vch Auto Range
VCHOFFSETENABLE	TOGGLE	T	Vch Offset Enable
VCHOFFSET	QUANT	0	Vch Offset (V)
VCHFILTER	IQUANT	3	Vch Filter
ACHRANGE	IQUANT	2	Ach Range
ACHOFFSETENABLE	TOGGLE	F	Ach Offset Enable
ACHOFFSET	QUANT	0	Ach Offset (V)
ACHFILTER	IQUANT	3	Ach Filter
IERANGELOWERLIMIT	IQUANT	1	I/E Range Lower Limit
IERANGEMODE	TOGGLE	F	I/E AutoRange
IERANGE	IQUANT	5	I/E Range
POSFEEDENABLE	TOGGLE	F	Positive Feedback IR Comp
POSFEEDRESISTANCE	QUANT	0	Positive Feedback Resistance (ohm)
ACHSELECT	IQUANT	0	Ach Select
CABLEID	IQUANT	14	Cable ID
DCCALDATE	LABEL	8/19/2019	DC Calibration Date
ACCALDATE	LABEL	8/19/2019	AC Calibration Date
THERMOSELECT	IQUANT	1	Thermo Select
FRAMEWORKVERSION	QUANT	6.33	Framework Version
INSTRUMENTVERSION	LABEL	3.50	Instrument Version
ZCURVE	TABLE
	Pt	Time	Freq	Zreal	Zimag	Zsig	Zmod	Zphz	Idc	Vdc	IERange
	#	s	Hz	ohm	ohm	V	ohm	°	A	V	#
	0	2	1000078	2083.3	-1631.857	1	2646.336	-38.07174	5.440596E-006	0.0109074	8
	1	3	794390.6	2401.48	-1571.432	1	2869.931	-33.19912	2.629262E-006	0.0105834	8
	2	5	630984.4	2705.926	-1488.248	1	3088.19	-28.81061	-3.252157E-006	0.0110112	8
	3	6	501234.4	2974.464	-1355.395	1	3268.72	-24.49766	7.159633E-008	0.0108467	8
	4	7	398109.4	3185.768	-1207.554	1	3406.95	-20.75904	5.533434E-006	0.0093057	8
	5	9	316265.6	3363.456	-1065.882	1	3528.305	-17.58345	-1.717669E-006	0.0101115	8
	6	10	251203.1	3499.389	-913.28	1	3616.601	-14.62694	-1.80925E-006	0.0104409	8
	7	11	199546.9	3592.28	-798.0248	1	3679.853	-12.52486	-2.089043E-006	0.0102178	8
	8	13	158578.1	3652.304	-690.7468	1	3717.05	-10.70964	-1.264793E-007	0.0100545	8
	9	14	125953.1	3749.709	-576.4777	1	3793.764	-8.740182	1.070006E-006	0.0115861	7
	10	15	100078.1	3784.994	-504.77	1	3818.504	-7.596191	-1.073169E-006	0.0112228	7
	11	17	79453.13	3826.796	-464.4465	1	3854.877	-6.91997	-1.073335E-006	0.0112225	7
	12	18	63140.62	3866.509	-436.234	1	3891.04	-6.437103	1.044853E-007	0.0090484	7
	13	19	50203.12	3900.38	-419.9601	1	3922.924	-6.145453	5.412574E-007	0.0104371	7
	14	21	39890.62	3932.374	-412.2732	1	3953.927	-5.98507	-9.251285E-007	0.0107096	7
	15	22	31640.63	3969.667	-418.668	1	3991.684	-6.020544	6.886634E-007	0.0086859	7
	16	23	25171.88	3999.484	-432.9719	1	4022.852	-6.178604	-1.080101E-006	0.0115292	7
	17	25	20015.62	4038.368	-456.9343	1	4064.136	-6.455463	-9.674123E-007	0.0116837	7
	18	26	15890.62	4076.575	-498.6812	1	4106.963	-6.974255	-5.453673E-007	0.0116574	7
	19	27	12609.37	4118.122	-548.1541	1	4154.444	-7.581946	-7.896944E-007	0.0117317	7
	20	29	10078.13	4158.952	-610.6902	1	4203.549	-8.353475	-5.466925E-007	0.0116511	7
	21	30	8015.625	4207.042	-698.1691	1	4264.581	-9.422503	9.005423E-007	0.0096106	7
	22	31	6328.125	4263.991	-796.0651	1	4337.665	-10.57508	9.611864E-007	0.0089427	7
	23	33	5015.625	4317.355	-922.3772	1	4414.786	-12.0596	8.685676E-007	0.008743	7
	24	34	3984.375	4366.077	-1079.623	1	4497.579	-13.88922	-9.241439E-007	0.0106958	7
	25	35	3170.956	4433.033	-1266.169	1	4610.311	-15.94047	5.438171E-007	0.0104199	7
	26	37	2527.573	4494.672	-1499.422	1	4738.18	-18.44869	-6.432041E-007	0.0100999	7
	27	38	1976.103	4572.923	-1814.135	1	4919.625	-21.63884	-5.45422E-007	0.0116514	7
	28	39	1577.524	4656.481	-2171.846	1	5138.067	-25.00499	-9.234844E-007	0.0107044	7
	29	41	1265.625	4744.946	-2612.113	1	5416.424	-28.83298	3.479154E-007	0.010704	7
	30	42	998.264	4856.252	-3193.021	1	5811.933	-33.32521	3.478591E-007	0.0107091	7
	31	44	796.875	4984.77	-3868.019	1	6309.477	-37.8103	-1.079256E-006	0.0115174	7
	32	45	627.7902	5145.562	-4778.694	1	7022.302	-42.88292	4.315302E-007	0.0087627	7
	33	46	505.5147	5319.213	-5788.716	1	7861.505	-47.4203	9.617696E-007	0.0089497	7
	34	48	397.9953	5569.826	-7130.562	1	9048.087	-52.00589	7.053582E-009	0.0102704	7
	35	49	315.5048	5872.338	-8764.905	1	10550.26	-56.17859	8.476767E-010	0.0102112	6
	36	50	252.4038	6233.275	-10691.93	1	12376.23	-59.7583	1.458288E-009	0.0102071	6
	37	52	198.6229	6729.376	-13238.03	1	14850.25	-63.0541	7.363519E-010	0.0102126	6
	38	53	158.3615	7328.939	-16198.9	1	17779.7	-65.65637	1.322162E-009	0.0102014	6
	39	55	125.558	8119.135	-19907.25	1	21499.28	-67.812	4.152705E-010	0.0102124	6
	40	56	100.4464	9093.196	-24264.78	1	25912.65	-69.45657	1.333295E-009	0.0102072	6
	41	57	79.00281	10459.61	-29997.71	1	31768.95	-70.77735	7.243912E-010	0.0102095	6
	42	59	63.3446	12164	-36577.71	1	38547.27	-71.60534	-2.518287E-010	0.01021	6
	43	60	49.86702	14252.24	-44653.38	1	46872.7	-72.29822	6.09531E-010	0.0101953	6
	44	61	39.72458	17274.09	-54306.96	1	56988.07	-72.35504	7.16771E-010	0.0101985	6
	45	63	31.6723	20906.86	-65765.98	1	69009.13	-72.36465	6.106468E-010	0.0102055	6
	46	64	24.93351	26035.83	-80413.23	1	84523.09	-72.05932	8.756066E-010	0.0101946	6
	47	66	19.86229	32255.16	-96897.5	1	102125	-71.58847	1.133125E-010	0.0102053	6
	48	67	15.83615	39434.27	-116030.8	1	122548.8	-71.22914	1.201707E-009	0.0102087	5
	49	68	12.40079	51560.25	-141031.3	1	150160.8	-69.91787	5.988407E-010	0.0102029	5
	50	70	9.93114	64362.13	-167730.3	1	179655.1	-69.007	1.490705E-010	0.0102023	5
	51	71	7.944915	80588.84	-198078.9	1	213845.3	-67.86095	4.217509E-010	0.0102109	5
	52	73	6.317385	101068.3	-234009.9	1	254902.8	-66.6406	-2.434858E-010	0.0102141	5
	53	75	5.008013	127383.4	-275681.4	1	303688.6	-65.19987	-3.891452E-011	0.0101884	5
	54	77	3.945707	160585.9	-323297.6	1	360983.6	-63.58585	2.098124E-010	0.0101959	5
	55	80	3.158693	198122.9	-372447.6	1	421864.8	-61.98933	1.046885E-010	0.0102066	5
	56	83	2.504006	243996.6	-429176.3	1	493686.8	-60.38077	7.441925E-011	0.0101906	5
	57	86	1.998082	295024	-489190.5	1	571267.5	-58.9064	-2.183613E-010	0.0102159	5
	58	89	1.584686	356543.1	-556215.4	1	660680.4	-57.33947	7.647336E-011	0.0102463	5
	59	93	1.266892	420227	-626275.1	1	754195.8	-56.13861	-2.09645E-010	0.0102175	5
	60	97	0.999041	494710.7	-709949.4	1	865313.1	-55.13025	2.211887E-010	0.0101997	5
