EXPLAIN
TAG	EISPOT
TITLE	LABEL	Potentiostatic EIS	Test &Identifier
DATE	LABEL	11/5/2019	Date
TIME	LABEL	8:21:16	Time
NOTES	NOTES	2	&Notes...
	
	
PSTAT	PSTAT	REF600-11020	Potentiostat
VDC	POTEN	0.00000E+000	T	DC &Voltage (V)
FREQINIT	QUANT	1.00000E+006	Initial Fre&q. (Hz)
FREQFINAL	QUANT	1.00000E+000	Final Fre&q. (Hz)
PTSPERDEC	QUANT	1.00000E+001	Points/&decade
VAC	QUANT	2.50000E+001	AC &Voltage (mV rms)
AREA	QUANT	1.00000E-002	&Area (cm^2)
CONDIT	TWOPARAM	T	5.00000E+000	0.00000E+000	Conditionin&g	Time(s)	E(V)
DELAY	TWOPARAM	T	5.00000E+000	0.00000E+000	Init. De&lay	Time(s)	Stab.(mV/s)
SPEED	SELECTOR	1	&Optimize for:
ZGUESS	QUANT	1.00000E+005	E&stimated Z (ohms)
OCVCURVE	TABLE	19
	Pt	T	Vf	Vm	Ach	Over
	#	s	V vs. Ref.	V	V	bits
	0	0.258333	-7.52372E-002	-7.52372E-002	5.60232E-004	...........
	1	0.516667	-7.52837E-002	-7.76745E-002	5.62166E-004	...........
	2	0.775	-7.55322E-002	-7.80217E-002	5.63432E-004	...........
	3	1.03333	-7.61449E-002	-8.01681E-002	5.63099E-004	...........
	4	1.29167	-7.71011E-002	-7.96184E-002	5.58832E-004	...........
	5	1.55	-7.81949E-002	-8.13897E-002	5.61166E-004	...........
	6	1.80833	-7.92196E-002	-8.13344E-002	5.63332E-004	...........
	7	2.06667	-8.00996E-002	-8.23331E-002	5.61732E-004	...........
	8	2.325	-8.08329E-002	-8.15808E-002	5.57333E-004	...........
	9	2.58333	-8.13845E-002	-8.19990E-002	5.61366E-004	...........
	10	2.84167	-8.17179E-002	-8.20183E-002	5.64466E-004	...........
	11	3.1	-8.18779E-002	-8.20791E-002	5.58599E-004	...........
	12	3.35833	-8.19852E-002	-8.35633E-002	5.60799E-004	...........
	13	3.61667	-8.21628E-002	-8.23738E-002	5.52899E-004	...........
	14	3.875	-8.24302E-002	-8.34495E-002	5.57399E-004	...........
	15	4.13333	-8.27040E-002	-8.31857E-002	5.53133E-004	...........
	16	4.39167	-8.29383E-002	-8.38602E-002	5.53399E-004	...........
	17	4.65	-8.31536E-002	-8.33655E-002	5.62166E-004	...........
	18	4.90833	-8.33718E-002	-8.50341E-002	5.62699E-004	...........
EOC	QUANT	-0.0833718	Open Circuit (V)
PSTATMODEL	IQUANT	4	Pstat Model
PSTATSECTION	LABEL	REF600-11020	Pstat Section
PSTATSERIALNO	LABEL	11020	Pstat Serial Number
CTRLMODE	IQUANT	1	Control Mode
IESTAB	IQUANT	0	I/E Stability
CASPEED	IQUANT	1	Control Amp Speed
CONVENTION	IQUANT	1	Current Convention
ICHRANGE	IQUANT	2	Ich Range
ICHRANGEMODE	TOGGLE	F	Ich Auto Range
ICHOFFSETENABLE	TOGGLE	T	Ich Offset Enable
ICHOFFSET	QUANT	0	Ich Offset (V)
ICHFILTER	IQUANT	3	Ich Filter
VCHRANGE	IQUANT	2	Vch Range
VCHRANGEMODE	TOGGLE	F	Vch Auto Range
VCHOFFSETENABLE	TOGGLE	T	Vch Offset Enable
VCHOFFSET	QUANT	0	Vch Offset (V)
VCHFILTER	IQUANT	3	Vch Filter
ACHRANGE	IQUANT	2	Ach Range
ACHOFFSETENABLE	TOGGLE	F	Ach Offset Enable
ACHOFFSET	QUANT	0	Ach Offset (V)
ACHFILTER	IQUANT	3	Ach Filter
IERANGELOWERLIMIT	IQUANT	1	I/E Range Lower Limit
IERANGEMODE	TOGGLE	F	I/E AutoRange
IERANGE	IQUANT	6	I/E Range
POSFEEDENABLE	TOGGLE	F	Positive Feedback IR Comp
POSFEEDRESISTANCE	QUANT	0	Positive Feedback Resistance (ohm)
ACHSELECT	IQUANT	0	Ach Select
CABLEID	IQUANT	14	Cable ID
DCCALDATE	LABEL	8/19/2019	DC Calibration Date
ACCALDATE	LABEL	8/19/2019	AC Calibration Date
THERMOSELECT	IQUANT	1	Thermo Select
FRAMEWORKVERSION	QUANT	6.33	Framework Version
INSTRUMENTVERSION	LABEL	3.50	Instrument Version
ZCURVE	TABLE
	Pt	Time	Freq	Zreal	Zimag	Zsig	Zmod	Zphz	Idc	Vdc	IERange
	#	s	Hz	ohm	ohm	V	ohm	°	A	V	#
	0	2	1000078	838.7188	-8537.856	1	8578.953	-84.38953	-5.822253E-007	-0.0803259	8
	1	4	794390.6	1012.35	-10602.54	1	10650.76	-84.54583	-4.036136E-007	-0.0807566	8
	2	6	630984.4	1107.762	-13240.34	1	13286.6	-85.21745	-1.418091E-006	-0.0809674	8
	3	8	501234.4	1380.113	-16359.98	1	16418.09	-85.17799	-5.933056E-006	-0.0812411	8
	4	10	398109.4	1774.971	-20812.54	1	20888.09	-85.1254	-1.657254E-008	-0.082019	8
	5	12	316265.6	1904.662	-25793.95	1	25864.18	-85.77686	1.777587E-006	-0.0813674	8
	6	14	251203.1	2158.903	-31235.05	1	31309.58	-86.04612	-1.555693E-006	-0.081968	8
	7	17	199546.9	3146.198	-40187.82	1	40310.79	-85.5236	8.721907E-008	-0.0820488	8
	8	18	158578.1	4198.672	-51120.42	1	51292.55	-85.30466	6.279409E-007	-0.081323	8
	9	20	125953.1	6791.7	-62294.47	1	62663.61	-83.77786	-1.440322E-006	-0.0767704	7
	10	22	100078.1	7878.513	-77448.66	1	77848.35	-84.19153	1.338855E-006	-0.0824737	7
	11	23	79453.13	11287.21	-95793.1	1	96455.8	-83.27988	-8.675031E-007	-0.0822608	7
	12	25	63140.62	14434.38	-119398.2	1	120267.5	-83.1068	1.34129E-006	-0.082486	7
	13	27	50203.12	19681.89	-146182.6	1	147501.7	-82.33186	3.434217E-007	-0.0838869	7
	14	28	39890.62	25843.96	-182918.7	1	184735.3	-81.9581	6.904663E-007	-0.0811858	7
	15	30	31640.63	32250.05	-226096.7	1	228385.1	-81.88219	-9.957986E-007	-0.0795094	7
	16	32	25171.88	47108.71	-276717.2	1	280698.4	-80.33852	1.2348E-006	-0.0843011	7
	17	34	20015.62	41858.18	-335304.7	1	337907.3	-82.88422	-8.021322E-008	-0.0802361	7
	18	36	15890.62	63556.01	-420318.8	1	425096.8	-81.4015	8.527281E-007	-0.0842391	7
	19	38	12609.37	79149.5	-504874.3	1	511040.8	-81.09022	5.463064E-008	-0.0857631	6
	20	39	10078.13	91665.99	-614354.3	1	621155.2	-81.51367	-1.470744E-007	-0.0832492	6
	21	42	8015.625	128248.2	-771436.6	1	782024.3	-80.56113	-3.53434E-007	-0.0782027	6
	22	43	6328.125	148219.5	-955139	1	966571	-81.17914	-2.004142E-008	-0.0783473	6
	23	45	5015.625	180842.1	-1170600	1	1184486	-81.21799	-2.24038E-007	-0.0767146	6
	24	47	3984.375	244412.3	-1441812	1	1462382	-80.37883	-1.244371E-007	-0.0773682	6
	25	48	3170.956	299003.8	-1796224	1	1820940	-80.54906	1.479102E-007	-0.0864261	6
	26	50	2527.573	322855.7	-2235285	1	2258481	-81.78127	2.515954E-007	-0.0825642	6
	27	52	1976.103	515380.5	-2602927	1	2653459	-78.80028	1.760534E-007	-0.0810537	6
	28	54	1577.524	947706.9	-2894676	1	3045866	-71.87173	1.760135E-007	-0.0810622	6
	29	56	1265.625	819915.9	-4110577	1	4191552	-78.71955	3.447199E-009	-0.0789307	5
	30	57	998.264	942046.9	-5120338	1	5206277	-79.57523	2.317557E-008	-0.0818912	5
	31	59	796.875	1474431	-6208006	1	6380696	-76.63952	-9.924651E-009	-0.0839616	5
	32	61	627.7902	1532630	-8024908	1	8169952	-79.18762	-3.389075E-008	-0.0789715	5
	33	62	505.5147	2289699	-9190885	1	9471805	-76.01083	2.579096E-008	-0.0866615	5
	34	64	397.9953	2954425	-1.153335E+007	1	1.190575E+007	-75.63187	-1.798324E-010	-0.0818156	5
	35	66	315.5048	3294608	-1.354349E+007	1	1.393845E+007	-76.32771	2.67161E-010	-0.0817986	5
	36	67	252.4038	3404034	-1.58654E+007	1	1.622647E+007	-77.89038	2.241231E-010	-0.0818154	5
	37	69	198.6229	7829189	-2.362354E+007	1	2.48871E+007	-71.66405	2.831078E-010	-0.0818104	5
	38	70	158.3615	1.635322E+007	-2.699615E+007	1	3.156295E+007	-58.79416	-1.816501E-010	-0.0818214	5
	39	72	125.558	1.386208E+007	-2.551268E+007	1	2.903539E+007	-61.48297	3.113814E-010	-0.0818095	4
	40	73	100.4464	1.2687E+007	-3.014998E+007	1	3.271057E+007	-67.17882	1.417181E-010	-0.0818171	4
	41	75	79.00281	7411836	-1.744548E+007	1	1.895469E+007	-66.98145	-2.35005E-010	-0.0818205	4
	42	77	63.3446	874141.4	5136870	1	5210715	80.34248	6.097919E-012	-0.0818193	4
	43	79	49.86702	5.811005E+007	4.09534E+007	1	7.10912E+007	35.1745	4.724992E-011	-0.0818265	4
	44	80	39.72458	2.544053E+007	-8204544	1	2.673079E+007	-17.87445	-9.280862E-011	-0.0818187	5
	45	82	31.6723	-5.394802E+007	1.456201E+007	1	5.58788E+007	164.8943	-3.425236E-010	-0.0818172	4
	46	84	24.93351	6.83249E+007	-1.247007E+007	1	6.945354E+007	-10.34329	2.360801E-011	-0.0818157	4
	47	85	19.86229	4.945388E+007	-1.01996E+007	1	5.049474E+007	-11.65355	-6.358093E-011	-0.0818028	5
	48	87	15.83615	-9477642	2.195319E+007	1	2.391167E+007	113.3508	-7.175391E-010	-0.0818013	4
	49	89	12.40079	2.068353E+007	-2.0959E+007	1	2.944636E+007	-45.37901	-2.702539E-010	-0.0818171	4
	50	90	9.93114	7.97591E+007	-6742975	1	8.004362E+007	-4.832396	7.952274E-011	-0.0818335	4
	51	92	7.944915	-1.88228E+007	-4.69787E+007	1	5.060925E+007	-111.8343	6.847969E-010	-0.0818275	5
	52	94	6.317385	8.392402E+007	-2.211684E+007	1	8.678937E+007	-14.76372	-1.393869E-010	-0.0818068	4
	53	97	5.008013	8.884315E+007	-1.363757E+007	1	8.988375E+007	-8.726877	2.113507E-010	-0.0818187	5
	54	100	3.945707	7.619327E+007	-5.265858E+007	1	9.261934E+007	-34.64907	7.375978E-011	-0.0818275	4
	55	104	3.158693	9.312369E+007	-1.29979E+007	1	9.402642E+007	-7.945825	2.982897E-011	-0.0817903	4
	56	108	2.504006	2.578935E+008	-4.095954E+007	1	2.611259E+008	-9.024538	3.426084E-011	-0.0818304	3
	57	112	1.998082	2.999409E+008	-5.510194E+007	1	3.049603E+008	-10.4097	3.517324E-011	-0.0818486	3
	58	116	1.584686	3.604363E+008	8.113362E+007	1	3.694549E+008	12.68575	5.834407E-011	-0.0817913	3
	59	122	1.266892	2.572549E+009	-8.485493E+008	1	2.708883E+009	-18.25502	3.318751E-012	-0.0818514	2
	60	129	0.999041	1.911373E+009	-4.403312E+008	1	1.961438E+009	-12.97313	4.433113E-012	-0.0817843	2
