EXPLAIN
TAG	EISPOT
TITLE	LABEL	Potentiostatic EIS	Test &Identifier
DATE	LABEL	10/22/2019	Date
TIME	LABEL	8:17:05	Time
NOTES	NOTES	1	&Notes...
	
PSTAT	PSTAT	REF600-11020	Potentiostat
VDC	POTEN	0.00000E+000	T	DC &Voltage (V)
FREQINIT	QUANT	1.00000E+006	Initial Fre&q. (Hz)
FREQFINAL	QUANT	1.00000E+000	Final Fre&q. (Hz)
PTSPERDEC	QUANT	1.00000E+001	Points/&decade
VAC	QUANT	2.50000E+001	AC &Voltage (mV rms)
AREA	QUANT	1.00000E-002	&Area (cm^2)
CONDIT	TWOPARAM	T	5.00000E+000	0.00000E+000	Conditionin&g	Time(s)	E(V)
DELAY	TWOPARAM	T	5.00000E+000	0.00000E+000	Init. De&lay	Time(s)	Stab.(mV/s)
SPEED	SELECTOR	1	&Optimize for:
ZGUESS	QUANT	1.00000E+005	E&stimated Z (ohms)
OCVCURVE	TABLE	19
	Pt	T	Vf	Vm	Ach	Over
	#	s	V vs. Ref.	V	V	bits
	0	0.258333	5.53127E-003	5.53127E-003	5.48166E-004	...........
	1	0.516667	5.53207E-003	5.57336E-003	5.53566E-004	...........
	2	0.775	5.53947E-003	5.74210E-003	5.54299E-004	...........
	3	1.03333	5.56209E-003	5.56407E-003	5.55066E-004	...........
	4	1.29167	5.58573E-003	5.16647E-003	5.59866E-004	...........
	5	1.55	5.57677E-003	5.86951E-003	5.53933E-004	...........
	6	1.80833	5.54939E-003	5.72020E-003	5.52799E-004	...........
	7	2.06667	5.55634E-003	5.43969E-003	5.55799E-004	...........
	8	2.325	5.58897E-003	5.49097E-003	5.54599E-004	...........
	9	2.58333	5.59274E-003	5.50580E-003	5.58132E-004	...........
	10	2.84167	5.56043E-003	5.50421E-003	5.53766E-004	...........
	11	3.1	5.52524E-003	5.50527E-003	5.61166E-004	...........
	12	3.35833	5.50677E-003	5.52694E-003	5.55699E-004	...........
	13	3.61667	5.50365E-003	5.51545E-003	5.57399E-004	...........
	14	3.875	5.50814E-003	5.51660E-003	5.47266E-004	...........
	15	4.13333	5.51339E-003	5.51212E-003	5.47366E-004	...........
	16	4.39167	5.51613E-003	5.52371E-003	5.57632E-004	...........
	17	4.65	5.51725E-003	5.53373E-003	5.50499E-004	...........
	18	4.90833	5.51963E-003	5.54508E-003	5.49066E-004	...........
EOC	QUANT	0.0055196	Open Circuit (V)
PSTATMODEL	IQUANT	4	Pstat Model
PSTATSECTION	LABEL	REF600-11020	Pstat Section
PSTATSERIALNO	LABEL	11020	Pstat Serial Number
CTRLMODE	IQUANT	1	Control Mode
IESTAB	IQUANT	0	I/E Stability
CASPEED	IQUANT	1	Control Amp Speed
CONVENTION	IQUANT	1	Current Convention
ICHRANGE	IQUANT	2	Ich Range
ICHRANGEMODE	TOGGLE	F	Ich Auto Range
ICHOFFSETENABLE	TOGGLE	T	Ich Offset Enable
ICHOFFSET	QUANT	0	Ich Offset (V)
ICHFILTER	IQUANT	3	Ich Filter
VCHRANGE	IQUANT	2	Vch Range
VCHRANGEMODE	TOGGLE	F	Vch Auto Range
VCHOFFSETENABLE	TOGGLE	T	Vch Offset Enable
VCHOFFSET	QUANT	0	Vch Offset (V)
VCHFILTER	IQUANT	3	Vch Filter
ACHRANGE	IQUANT	2	Ach Range
ACHOFFSETENABLE	TOGGLE	F	Ach Offset Enable
ACHOFFSET	QUANT	0	Ach Offset (V)
ACHFILTER	IQUANT	3	Ach Filter
IERANGELOWERLIMIT	IQUANT	1	I/E Range Lower Limit
IERANGEMODE	TOGGLE	F	I/E AutoRange
IERANGE	IQUANT	5	I/E Range
POSFEEDENABLE	TOGGLE	F	Positive Feedback IR Comp
POSFEEDRESISTANCE	QUANT	0	Positive Feedback Resistance (ohm)
ACHSELECT	IQUANT	0	Ach Select
CABLEID	IQUANT	14	Cable ID
DCCALDATE	LABEL	8/19/2019	DC Calibration Date
ACCALDATE	LABEL	8/19/2019	AC Calibration Date
THERMOSELECT	IQUANT	1	Thermo Select
FRAMEWORKVERSION	QUANT	6.33	Framework Version
INSTRUMENTVERSION	LABEL	3.50	Instrument Version
ZCURVE	TABLE
	Pt	Time	Freq	Zreal	Zimag	Zsig	Zmod	Zphz	Idc	Vdc	IERange
	#	s	Hz	ohm	ohm	V	ohm	°	A	V	#
	0	2	1000078	2541.326	-1828.049	1	3130.512	-35.72855	-1.709247E-006	0.0081331	8
	1	4	794390.6	2902.679	-1721.215	1	3374.63	-30.66687	5.446249E-006	0.0064819	8
	2	5	630984.4	3224.145	-1599.723	1	3599.197	-26.38921	1.966378E-006	0.0065745	8
	3	6	501234.4	3489.561	-1429.817	1	3771.129	-22.28093	2.426766E-007	0.007048	8
	4	8	398109.4	3711.014	-1258.52	1	3918.61	-18.7334	6.251484E-007	0.0067943	8
	5	9	316265.6	3855.951	-1093.871	1	4008.106	-15.83778	7.077248E-008	0.0071451	8
	6	10	251203.1	3993.138	-936.8401	1	4101.563	-13.20351	4.445586E-007	0.0069764	8
	7	12	199546.9	4067.029	-793.3936	1	4143.694	-11.03859	5.770227E-007	0.0067851	8
	8	13	158578.1	4150.903	-688.0566	1	4207.543	-9.411809	1.821591E-007	0.0068624	8
	9	14	125953.1	4236.876	-545.6011	1	4271.862	-7.337845	2.44837E-009	0.0068287	7
	10	16	100078.1	4260.293	-479.7679	1	4287.223	-6.425226	-1.794385E-008	0.0070802	7
	11	17	79453.13	4296.513	-438.099	1	4318.791	-5.82211	4.253781E-008	0.0069931	7
	12	19	63140.62	4329.622	-408.1609	1	4348.818	-5.385456	6.250616E-008	0.0069378	7
	13	20	50203.12	4362.124	-389.1977	1	4379.452	-5.098548	1.979162E-009	0.0069675	7
	14	21	39890.62	4393.545	-380.6865	1	4410.007	-4.952126	4.308944E-008	0.0069803	7
	15	23	31640.63	4425.096	-381.7986	1	4441.537	-4.931285	-6.130446E-008	0.007129	7
	16	24	25171.88	4454.721	-392.6934	1	4471.996	-5.037726	-3.74856E-008	0.0070512	7
	17	25	20015.62	4496.535	-405.6201	1	4514.793	-5.154543	-5.506613E-008	0.0070932	7
	18	27	15890.62	4516.715	-444.8674	1	4538.57	-5.625124	6.700136E-009	0.006976	7
	19	28	12609.37	4548.026	-489.2949	1	4574.271	-6.140492	1.204688E-007	0.006857	7
	20	29	10078.13	4581.573	-548.3788	1	4614.274	-6.825391	6.473304E-008	0.0069322	7
	21	31	8015.625	4621.962	-607.7457	1	4661.748	-7.490895	-2.843435E-008	0.0070326	7
	22	32	6328.125	4653.277	-728.7327	1	4709.993	-8.900589	8.737516E-008	0.0069655	7
	23	34	5015.625	4694.265	-855.9398	1	4771.662	-10.33364	8.111263E-009	0.006965	7
	24	35	3984.375	4736.82	-1029.777	1	4847.463	-12.26516	2.414237E-010	0.0070557	7
	25	36	3170.956	4788.928	-1211.416	1	4939.773	-14.19585	8.018202E-008	0.0068566	7
	26	38	2527.573	4847.158	-1449.818	1	5059.339	-16.65229	-3.578379E-008	0.0070601	7
	27	39	1976.103	4917.566	-1773.348	1	5227.544	-19.83006	-3.278026E-008	0.0070576	7
	28	40	1577.524	4953.438	-2177.515	1	5410.926	-23.73013	-1.626081E-008	0.0069979	7
	29	42	1265.625	5083.861	-2580.542	1	5701.302	-26.91212	-1.685153E-008	0.0070009	7
	30	43	998.264	5200.622	-3166.189	1	6088.614	-31.33347	-3.31375E-009	0.0070403	7
	31	44	796.875	5329.506	-3841.499	1	6569.685	-35.784	-3.985235E-008	0.0070527	7
	32	46	627.7902	5498.742	-4735.029	1	7256.491	-40.73211	-7.898796E-008	0.0071593	7
	33	47	505.5147	5675.37	-5730.703	1	8065.407	-45.27795	-9.559601E-009	0.0071686	7
	34	49	397.9953	5929.047	-7083.786	1	9237.619	-50.07106	4.758142E-009	0.0070553	7
	35	50	315.5048	6240.77	-8707.337	1	10712.84	-54.36987	1.530735E-009	0.0069902	6
	36	51	252.4038	6617.466	-10624.05	1	12516.44	-58.08222	9.220837E-010	0.0069939	6
	37	53	198.6229	7136.778	-13158.39	1	14969.2	-61.52572	1.086403E-009	0.0069901	6
	38	54	158.3615	7776.38	-16107.94	1	17886.8	-64.23029	4.528517E-010	0.0069872	6
	39	55	125.558	8644.36	-19795.42	1	21600.55	-66.40984	1.170918E-009	0.0069887	6
	40	57	100.4464	9722.29	-24092.73	1	25980.43	-68.02415	8.258659E-010	0.0069832	6
	41	58	79.00281	11346.6	-29707.32	1	31800.48	-69.09584	6.514643E-010	0.006985	6
	42	60	63.3446	13164.4	-36381.53	1	38690.01	-70.1077	7.01732E-010	0.0069805	6
	43	61	49.86702	16007.28	-43997.54	1	46818.98	-70.00749	5.579619E-010	0.0069831	6
	44	62	39.72458	19719.08	-53399.04	1	56923.63	-69.73193	1.183042E-009	0.006988	6
	45	64	31.6723	24291.33	-64174.22	1	68617.78	-69.26726	6.644479E-010	0.0069894	6
	46	65	24.93351	30872	-77495.33	1	83418.27	-68.27902	8.80067E-011	0.0069804	6
	47	67	19.86229	38847.33	-91960.16	1	99828.8	-67.09903	9.891283E-010	0.0069818	6
	48	68	15.83615	47568.84	-107561.9	1	117611	-66.14277	-1.045565E-009	0.0069899	5
	49	69	12.40079	61278.57	-126749.6	1	140785.4	-64.19801	-2.349135E-010	0.0069901	5
	50	71	9.93114	75238.08	-147620.2	1	165687.9	-62.99327	2.256496E-010	0.0069914	5
	51	72	7.944915	91419.38	-169758.2	1	192809.1	-61.69634	-2.928169E-010	0.0069867	5
	52	74	6.317385	110584.4	-195223.1	1	224368	-60.47055	3.610841E-010	0.006972	5
	53	76	5.008013	132557.5	-224677	1	260866.3	-59.45976	2.450978E-010	0.0069951	5
	54	79	3.945707	157772.4	-258520.2	1	302861	-58.60468	-1.934672E-010	0.0069846	5
	55	81	3.158693	184459.6	-294667.5	1	347641	-57.95375	2.942843E-010	0.0070074	5
	56	85	2.504006	216211.7	-338929.5	1	402020.8	-57.46517	-2.044636E-010	0.0069834	5
	57	87	1.998082	250818.8	-387619.3	1	461691.2	-57.0941	-1.624888E-010	0.006979	5
	58	91	1.584686	292118.8	-443990.2	1	531470.3	-56.65749	6.916285E-011	0.0070379	5
	59	94	1.266892	334996.7	-508479.6	1	608912.4	-56.6223	-1.35216E-010	0.0069854	5
	60	99	0.999041	386960.4	-586854.1	1	702948.1	-56.5999	2.835102E-010	0.0070088	5
