EXPLAIN
TAG	EISPOT
TITLE	LABEL	Potentiostatic IDE	Test &Identifier
DATE	LABEL	9/10/2019	Date
TIME	LABEL	9:26:20	Time
NOTES	NOTES	1	&Notes...
	
PSTAT	PSTAT	REF600-11020	Potentiostat
VDC	POTEN	0.00000E+000	T	DC &Voltage (V)
FREQINIT	QUANT	1.00000E+006	Initial Fre&q. (Hz)
FREQFINAL	QUANT	1.00000E+000	Final Fre&q. (Hz)
PTSPERDEC	QUANT	1.00000E+001	Points/&decade
VAC	QUANT	2.50000E+001	AC &Voltage (mV rms)
AREA	QUANT	1.00000E-002	&Area (cm^2)
CONDIT	TWOPARAM	T	5.00000E+000	0.00000E+000	Conditionin&g	Time(s)	E(V)
DELAY	TWOPARAM	T	5.00000E+000	0.00000E+000	Init. De&lay	Time(s)	Stab.(mV/s)
SPEED	SELECTOR	1	&Optimize for:
ZGUESS	QUANT	1.00000E+007	E&stimated Z (ohms)
OCVCURVE	TABLE	19
	Pt	T	Vf	Vm	Ach	Over
	#	s	V vs. Ref.	V	V	bits
	0	0.258333	3.22915E-003	3.22915E-003	5.65332E-004	...........
	1	0.516667	3.22297E-003	2.90571E-003	5.60832E-004	...........
	2	0.775	3.18549E-003	2.62321E-003	5.67332E-004	...........
	3	1.03333	3.08112E-003	2.35938E-003	5.68599E-004	...........
	4	1.29167	2.89818E-003	2.11743E-003	5.63732E-004	...........
	5	1.55	2.66089E-003	1.89059E-003	5.71399E-004	...........
	6	1.80833	2.40513E-003	1.67987E-003	5.64532E-004	...........
	7	2.06667	2.15558E-003	1.47847E-003	5.67932E-004	...........
	8	2.325	1.92189E-003	1.28604E-003	5.61232E-004	...........
	9	2.58333	1.70449E-003	1.10563E-003	5.68399E-004	...........
	10	2.84167	1.50077E-003	9.33042E-004	5.66366E-004	...........
	11	3.1	1.30828E-003	7.63155E-004	5.66799E-004	...........
	12	3.35833	1.12518E-003	6.02804E-004	5.70166E-004	...........
	13	3.61667	9.49943E-004	4.47384E-004	5.67566E-004	...........
	14	3.875	7.81578E-004	2.97390E-004	5.68966E-004	...........
	15	4.13333	6.19450E-004	1.47686E-004	5.71432E-004	...........
	16	4.39167	4.62985E-004	1.50433E-005	5.71066E-004	...........
	17	4.65	3.11950E-004	-1.24843E-004	5.70066E-004	...........
	18	4.90833	1.66372E-004	-2.54404E-004	5.67066E-004	...........
EOC	QUANT	0.0001664	Open Circuit (V)
PSTATMODEL	IQUANT	4	Pstat Model
PSTATSECTION	LABEL	REF600-11020	Pstat Section
PSTATSERIALNO	LABEL	11020	Pstat Serial Number
CTRLMODE	IQUANT	1	Control Mode
IESTAB	IQUANT	0	I/E Stability
CASPEED	IQUANT	1	Control Amp Speed
CONVENTION	IQUANT	1	Current Convention
ICHRANGE	IQUANT	2	Ich Range
ICHRANGEMODE	TOGGLE	F	Ich Auto Range
ICHOFFSETENABLE	TOGGLE	T	Ich Offset Enable
ICHOFFSET	QUANT	0	Ich Offset (V)
ICHFILTER	IQUANT	3	Ich Filter
VCHRANGE	IQUANT	2	Vch Range
VCHRANGEMODE	TOGGLE	F	Vch Auto Range
VCHOFFSETENABLE	TOGGLE	T	Vch Offset Enable
VCHOFFSET	QUANT	0	Vch Offset (V)
VCHFILTER	IQUANT	3	Vch Filter
ACHRANGE	IQUANT	2	Ach Range
ACHOFFSETENABLE	TOGGLE	F	Ach Offset Enable
ACHOFFSET	QUANT	0	Ach Offset (V)
ACHFILTER	IQUANT	3	Ach Filter
IERANGELOWERLIMIT	IQUANT	1	I/E Range Lower Limit
IERANGEMODE	TOGGLE	F	I/E AutoRange
IERANGE	IQUANT	1	I/E Range
POSFEEDENABLE	TOGGLE	F	Positive Feedback IR Comp
POSFEEDRESISTANCE	QUANT	0	Positive Feedback Resistance (ohm)
ACHSELECT	IQUANT	0	Ach Select
CABLEID	IQUANT	14	Cable ID
DCCALDATE	LABEL	8/19/2019	DC Calibration Date
ACCALDATE	LABEL	8/19/2019	AC Calibration Date
THERMOSELECT	IQUANT	1	Thermo Select
FRAMEWORKVERSION	QUANT	6.33	Framework Version
INSTRUMENTVERSION	LABEL	3.50	Instrument Version
ZCURVE	TABLE
	Pt	Time	Freq	Zreal	Zimag	Zsig	Zmod	Zphz	Idc	Vdc	IERange
	#	s	Hz	ohm	ohm	V	ohm	°	A	V	#
	0	2	1000078	2656.333	-2007.17	1	3329.389	-37.07531	3.794493E-006	0.0023131	8
	1	3	794390.6	3067.033	-1928.448	1	3622.927	-32.16032	-2.562046E-006	0.0026261	8
	2	4	630984.4	3436.97	-1787.817	1	3874.152	-27.48221	-1.001123E-007	0.002463	8
	3	6	501234.4	3748.003	-1613.733	1	4080.645	-23.29469	6.477966E-008	0.0019755	8
	4	7	398109.4	3994.02	-1433.547	1	4243.495	-19.74424	5.143057E-008	0.0020373	8
	5	8	316265.6	4175.729	-1223.196	1	4351.198	-16.32689	1.579318E-006	0.0016277	8
	6	10	251203.1	4326.381	-1069.522	1	4456.619	-13.88565	-1.330996E-006	0.0021817	8
	7	11	199546.9	4450.367	-918.9603	1	4544.255	-11.66708	3.592406E-006	0.0011497	8
	8	12	158578.1	4517.554	-790.2386	1	4586.15	-9.92214	3.487796E-006	0.00115	8
	9	14	125953.1	4593.986	-643.8892	1	4638.89	-7.978554	3.624278E-007	0.0008588	7
	10	15	100078.1	4639.136	-576.7561	1	4674.851	-7.086879	-4.717054E-009	0.0018649	7
	11	16	79453.13	4682.753	-522.7899	1	4711.846	-6.370212	7.369207E-008	0.0018163	7
	12	18	63140.62	4722.599	-487.2527	1	4747.668	-5.890632	7.14238E-009	0.0019508	7
	13	19	50203.12	4759.708	-461.8882	1	4782.067	-5.542701	-5.901665E-008	0.0019449	7
	14	20	39890.62	4793.413	-453.3403	1	4814.803	-5.402717	-3.110659E-008	0.0018713	7
	15	22	31640.63	4831.939	-453.4483	1	4853.169	-5.361162	6.606133E-008	0.0017383	7
	16	23	25171.88	4866.785	-466.162	1	4889.059	-5.47135	9.323223E-008	0.0017441	7
	17	24	20015.62	4902.323	-490.8436	1	4926.834	-5.717667	-8.297238E-009	0.0019131	7
	18	25	15890.62	4938.35	-529.7408	1	4966.681	-6.122752	3.52118E-008	0.0018283	7
	19	27	12609.37	4980.012	-584.5214	1	5014.199	-6.694376	-4.482566E-008	0.0019298	7
	20	28	10078.13	5017.858	-655.601	1	5060.505	-7.443732	-1.741878E-008	0.0018956	7
	21	30	8015.625	5063.485	-745.1153	1	5118.015	-8.371259	-2.187878E-008	0.0018522	7
	22	31	6328.125	5115.801	-863.9828	1	5188.245	-9.58595	7.770595E-009	0.0019407	7
	23	32	5015.625	5171.838	-1012.377	1	5269.992	-11.0755	-9.167682E-009	0.0019114	7
	24	34	3984.375	5232.859	-1193.768	1	5367.298	-12.85092	9.266341E-008	0.0017364	7
	25	35	3170.956	5304.817	-1411.807	1	5489.47	-14.90307	-5.709366E-009	0.0018278	7
	26	36	2527.573	5386.677	-1678.405	1	5642.104	-17.30622	7.384573E-009	0.0019354	7
	27	38	1976.103	5491.265	-2037.098	1	5856.941	-20.35337	-5.167503E-008	0.0019407	7
	28	39	1577.524	5603.736	-2436.378	1	6110.466	-23.49831	1.76563E-008	0.0017881	7
	29	40	1265.625	5729.579	-2910.601	1	6426.482	-26.93037	-3.341599E-008	0.0019428	7
	30	42	998.264	5896.892	-3529.753	1	6872.59	-30.90384	-3.507259E-008	0.0019391	7
	31	43	796.875	6082.566	-4242.649	1	7416.042	-34.89615	3.447936E-008	0.0018168	7
	32	44	627.7902	6312.521	-5163.923	1	8155.613	-39.28469	9.120931E-009	0.0019456	7
	33	46	505.5147	6560.818	-6177.979	1	9011.757	-43.27861	-7.278842E-009	0.0018236	7
	34	47	397.9953	6872.896	-7543.896	1	10205.25	-47.66479	1.203168E-009	0.0018278	6
	35	48	315.5048	7228.512	-9174.454	1	11679.98	-51.76558	1.409944E-009	0.0018238	6
	36	50	252.4038	7627.047	-11091.73	1	13460.99	-55.48627	8.582484E-010	0.001824	6
	37	51	198.6229	8132.603	-13624.13	1	15866.83	-59.16592	1.022717E-009	0.0018224	6
	38	52	158.3615	8701.252	-16582.93	1	18727.13	-62.31349	8.553603E-010	0.0018211	6
	39	54	125.558	9407.646	-20315	1	22387.56	-65.15168	9.255714E-010	0.0018216	6
	40	55	100.4464	10257.1	-24721.61	1	26765.01	-67.46623	1.300024E-009	0.0018202	6
	41	56	79.00281	11361.74	-30597.93	1	32639.28	-69.62885	1.097093E-009	0.0018194	6
	42	58	63.3446	12717.3	-37092.5	1	39212.03	-71.07552	6.139065E-010	0.0018208	6
	43	59	49.86702	14677.74	-46246.92	1	48520.24	-72.39172	7.204825E-010	0.0018205	6
	44	60	39.72458	17073.11	-56399.66	1	58927.18	-73.15807	1.256291E-009	0.0018186	6
	45	62	31.6723	20162.11	-68893.3	1	71782.98	-73.68752	9.5654E-010	0.001817	6
	46	63	24.93351	24664.82	-84984.45	1	88491.3	-73.81582	5.99134E-010	0.0018118	6
	47	64	19.86229	30322.66	-103516.4	1	107866.2	-73.67332	3.380041E-010	0.0018196	5
	48	66	15.83615	38064.95	-125431.9	1	131080.5	-73.11847	5.648434E-010	0.001823	5
	49	67	12.40079	48647.98	-153777.3	1	161288.8	-72.44505	6.356125E-010	0.0018268	5
	50	69	9.93114	61473.42	-184260.8	1	194244.7	-71.55018	1.011148E-009	0.0018272	5
	51	70	7.944915	78026.67	-220604.8	1	233997.1	-70.5216	3.01653E-010	0.0018215	5
	52	72	6.317385	99911.1	-262813.3	1	281163.8	-69.18519	6.354092E-010	0.0018169	5
	53	74	5.008013	128351.5	-312557	1	337884.6	-67.67451	2.447486E-010	0.0018285	5
	54	76	3.945707	165061	-369687.9	1	404863.3	-65.93983	4.514802E-010	0.0018367	5
	55	79	3.158693	207320.7	-430177.3	1	477529.4	-64.26862	8.970896E-011	0.0018098	5
	56	82	2.504006	260860	-498990.7	1	563062.8	-62.40055	6.145705E-010	0.0018312	5
	57	85	1.998082	323592.5	-571451.3	1	656710.4	-60.47867	2.686065E-010	0.0018733	5
	58	88	1.584686	395471.4	-651539.7	1	762169	-58.7431	3.875724E-010	0.0018457	5
	59	92	1.266892	477532.1	-733855.4	1	875545.9	-56.94727	6.603105E-011	0.0018595	5
	60	96	0.999041	570572.3	-828485.3	1	1005953	-55.44507	3.3121E-010	0.0017982	4
