EXPLAIN
TAG	EISPOT
TITLE	LABEL	Potentiostatic EIS	Test &Identifier
DATE	LABEL	11/15/2019	Date
TIME	LABEL	11:55:10	Time
NOTES	NOTES	4	&Notes...
	
	
	
	
PSTAT	PSTAT	REF600-11020	Potentiostat
VDC	POTEN	0.00000E+000	T	DC &Voltage (V)
FREQINIT	QUANT	1.00000E+006	Initial Fre&q. (Hz)
FREQFINAL	QUANT	1.00000E+000	Final Fre&q. (Hz)
PTSPERDEC	QUANT	1.00000E+001	Points/&decade
VAC	QUANT	2.50000E+001	AC &Voltage (mV rms)
AREA	QUANT	1.00000E-002	&Area (cm^2)
CONDIT	TWOPARAM	T	5.00000E+000	0.00000E+000	Conditionin&g	Time(s)	E(V)
DELAY	TWOPARAM	T	5.00000E+000	0.00000E+000	Init. De&lay	Time(s)	Stab.(mV/s)
SPEED	SELECTOR	0	&Optimize for:
ZGUESS	QUANT	1.00000E+005	E&stimated Z (ohms)
OCVCURVE	TABLE	19
	Pt	T	Vf	Vm	Ach	Over
	#	s	V vs. Ref.	V	V	bits
	0	0.258333	8.29871E-003	8.29871E-003	5.62799E-004	...........
	1	0.516667	8.29772E-003	8.24678E-003	5.59699E-004	...........
	2	0.775	8.29190E-003	8.21186E-003	5.61299E-004	...........
	3	1.03333	8.27654E-003	8.18861E-003	5.60899E-004	...........
	4	1.29167	8.25197E-003	8.18117E-003	5.61599E-004	...........
	5	1.55	8.22480E-003	8.18126E-003	5.64099E-004	...........
	6	1.80833	8.20288E-003	8.19739E-003	5.62832E-004	...........
	7	2.06667	8.19021E-003	8.17136E-003	5.63632E-004	...........
	8	2.325	8.18428E-003	8.14043E-003	5.61466E-004	...........
	9	2.58333	8.18093E-003	8.28952E-003	5.60766E-004	...........
	10	2.84167	8.18543E-003	8.30076E-003	5.63899E-004	...........
	11	3.1	8.20779E-003	8.32632E-003	5.63332E-004	...........
	12	3.35833	8.24567E-003	8.35617E-003	5.63932E-004	...........
	13	3.61667	8.28648E-003	8.38082E-003	5.63699E-004	...........
	14	3.875	8.32231E-003	8.41096E-003	5.58299E-004	...........
	15	4.13333	8.35297E-003	8.43598E-003	5.62266E-004	...........
	16	4.39167	8.38104E-003	8.47192E-003	5.62632E-004	...........
	17	4.65	8.40880E-003	8.49786E-003	5.68632E-004	...........
	18	4.90833	8.43747E-003	8.53252E-003	5.63899E-004	...........
EOC	QUANT	0.0084375	Open Circuit (V)
PSTATMODEL	IQUANT	4	Pstat Model
PSTATSECTION	LABEL	REF600-11020	Pstat Section
PSTATSERIALNO	LABEL	11020	Pstat Serial Number
CTRLMODE	IQUANT	1	Control Mode
IESTAB	IQUANT	0	I/E Stability
CASPEED	IQUANT	1	Control Amp Speed
CONVENTION	IQUANT	1	Current Convention
ICHRANGE	IQUANT	2	Ich Range
ICHRANGEMODE	TOGGLE	F	Ich Auto Range
ICHOFFSETENABLE	TOGGLE	T	Ich Offset Enable
ICHOFFSET	QUANT	0	Ich Offset (V)
ICHFILTER	IQUANT	3	Ich Filter
VCHRANGE	IQUANT	2	Vch Range
VCHRANGEMODE	TOGGLE	F	Vch Auto Range
VCHOFFSETENABLE	TOGGLE	T	Vch Offset Enable
VCHOFFSET	QUANT	0	Vch Offset (V)
VCHFILTER	IQUANT	3	Vch Filter
ACHRANGE	IQUANT	2	Ach Range
ACHOFFSETENABLE	TOGGLE	F	Ach Offset Enable
ACHOFFSET	QUANT	0	Ach Offset (V)
ACHFILTER	IQUANT	3	Ach Filter
IERANGELOWERLIMIT	IQUANT	1	I/E Range Lower Limit
IERANGEMODE	TOGGLE	F	I/E AutoRange
IERANGE	IQUANT	5	I/E Range
POSFEEDENABLE	TOGGLE	F	Positive Feedback IR Comp
POSFEEDRESISTANCE	QUANT	0	Positive Feedback Resistance (ohm)
ACHSELECT	IQUANT	0	Ach Select
CABLEID	IQUANT	14	Cable ID
DCCALDATE	LABEL	8/19/2019	DC Calibration Date
ACCALDATE	LABEL	8/19/2019	AC Calibration Date
THERMOSELECT	IQUANT	1	Thermo Select
FRAMEWORKVERSION	QUANT	6.33	Framework Version
INSTRUMENTVERSION	LABEL	3.50	Instrument Version
ZCURVE	TABLE
	Pt	Time	Freq	Zreal	Zimag	Zsig	Zmod	Zphz	Idc	Vdc	IERange
	#	s	Hz	ohm	ohm	V	ohm	°	A	V	#
	0	1	1000078	1948.015	-1003.975	1	2191.513	-27.26583	4.049458E-006	0.0090996	8
	1	2	794390.6	2118.538	-949.4194	1	2321.551	-24.13946	-1.513753E-006	0.0100067	8
	2	2	630984.4	2270.087	-883.7742	1	2436.053	-21.2716	-3.998069E-006	0.0109191	8
	3	2	501234.4	2394.998	-814.3782	1	2529.669	-18.77973	-4.222462E-007	0.0106624	8
	4	3	398109.4	2497.654	-755.8137	1	2609.508	-16.83631	6.377376E-006	0.0093488	8
	5	3	316265.6	2590.448	-697.2133	1	2682.634	-15.06406	-4.236096E-007	0.0097514	8
	6	3	251203.1	2672.388	-647.9677	1	2749.822	-13.62934	-7.182906E-007	0.0097773	8
	7	3	199546.9	2751.059	-618.536	1	2819.736	-12.67142	2.279377E-006	0.0095482	8
	8	4	158578.1	2814.844	-596.3423	1	2877.32	-11.96161	-8.830892E-008	0.0097577	8
	9	4	125953.1	2897.141	-540.8508	1	2947.192	-10.5745	-1.21071E-006	0.0090061	7
	10	4	100078.1	2954.954	-534.8349	1	3002.965	-10.25924	9.281429E-007	0.0084128	7
	11	5	79453.13	3016.522	-545.1958	1	3065.395	-10.24484	-7.04828E-007	0.0098872	7
	12	5	63140.62	3083.034	-563.2265	1	3134.059	-10.35296	7.341165E-007	0.0083361	7
	13	5	50203.12	3151.203	-586.475	1	3205.313	-10.54278	3.939795E-007	0.0104947	7
	14	6	39890.62	3223.176	-613.5011	1	3281.043	-10.7768	1.05616E-006	0.008915	7
	15	6	31640.63	3300.32	-647.7813	1	3363.292	-11.10475	1.056179E-006	0.0089134	7
	16	6	25171.88	3375.893	-686.4671	1	3444.98	-11.49403	-5.878387E-007	0.0115431	7
	17	7	20015.62	3459.593	-732.6198	1	3536.313	-11.95659	-5.865885E-007	0.0115472	7
	18	7	15890.62	3550.873	-789.6159	1	3637.608	-12.537	1.037123E-006	0.0086096	7
	19	7	12609.37	3639.647	-854.5054	1	3738.611	-13.21244	-3.025905E-007	0.0092092	7
	20	8	10078.13	3731.918	-925.925	1	3845.068	-13.93426	-1.015269E-006	0.0105351	7
	21	8	8015.625	3830.366	-1013.657	1	3962.222	-14.8228	-8.557158E-007	0.0116269	7
	22	8	6328.125	3936.707	-1122.909	1	4093.725	-15.92031	-8.545782E-007	0.0116338	7
	23	9	5015.625	4045.467	-1251.6	1	4234.655	-17.19119	-7.046843E-007	0.0098722	7
	24	9	3984.375	4157.554	-1409.445	1	4389.964	-18.72708	7.34579E-007	0.0083252	7
	25	9	3170.956	4260.073	-1590.381	1	4547.256	-20.47174	-1.054838E-006	0.0115806	7
	26	10	2527.573	4375.092	-1827.6	1	4741.471	-22.67168	1.05716E-006	0.0089112	7
	27	10	1976.103	4494.604	-2141.38	1	4978.651	-25.4747	4.535485E-007	0.0084304	7
	28	10	1577.524	4605.835	-2518.134	1	5249.258	-28.66662	9.745617E-007	0.0093116	7
	29	10	1265.625	4728.421	-2949.488	1	5572.921	-31.95503	1.035039E-007	0.0087098	7
	30	11	998.264	4871.353	-3544.631	1	6024.491	-36.04144	-2.660266E-007	0.0112936	7
	31	11	796.875	5029.356	-4250.262	1	6584.767	-40.20084	-5.871402E-007	0.0115351	7
	32	12	627.7902	5224.991	-5194.92	1	7368.021	-44.83465	8.045394E-007	0.0097778	7
	33	12	505.5147	5427.835	-6243.044	1	8272.665	-48.99561	1.035732E-006	0.0085976	7
	34	12	397.9953	5709.597	-7649.366	1	9545.28	-53.26181	-4.951857E-010	0.0100348	7
	35	13	315.5048	6046.142	-9361.606	1	11144.3	-57.14383	7.315783E-010	0.0099666	6
	36	13	252.4038	6446.062	-11383.63	1	13082	-60.47898	-4.630442E-010	0.0099689	6
	37	13	198.6229	6990.716	-14056.01	1	15698.46	-63.55668	7.047076E-010	0.0099619	6
	38	14	158.3615	7632.993	-17168.66	1	18788.97	-66.03062	-1.999062E-010	0.0099696	6
	39	14	125.558	8494.669	-21057.18	1	22706.04	-68.03037	7.227728E-010	0.0099586	6
	40	14	100.4464	9523.11	-25601.01	1	27314.86	-69.59572	-5.069037E-010	0.0099535	6
	41	15	79.00281	11035.73	-31541.95	1	33416.79	-70.71635	-3.348592E-010	0.0099602	6
	42	15	63.3446	12761.06	-38735.55	1	40783.43	-71.76601	5.357718E-010	0.0099547	6
	43	15	49.86702	15083.5	-47469.06	1	49807.86	-72.37212	9.548857E-010	0.0099509	6
	44	16	39.72458	18313.52	-57245.99	1	60103.98	-72.26005	3.964186E-010	0.0099598	6
	45	16	31.6723	22195.06	-69101.68	1	72578.66	-72.19328	5.396794E-010	0.0099565	6
	46	16	24.93351	27459	-84681.7	1	89022.4	-72.03413	3.441952E-010	0.0099489	6
	47	17	19.86229	34132.26	-102156.6	1	107707.8	-71.52464	4.090221E-010	0.0099635	5
	48	17	15.83615	43732.24	-122851.1	1	130402.8	-70.4054	-1.706958E-009	0.0099673	5
	49	17	12.40079	55450.84	-148496	1	158511.4	-69.52355	7.515034E-010	0.0099628	5
	50	18	9.93114	68294.13	-175610.2	1	188422.5	-68.74914	-8.766567E-010	0.0099575	5
	51	18	7.944915	86247.04	-206872.3	1	224131	-67.36828	-6.674147E-010	0.0099659	5
	52	19	6.317385	108628	-243795.7	1	266901.5	-65.9837	-4.374882E-010	0.0099714	5
	53	20	5.008013	136343.3	-285645.4	1	316516.6	-64.48408	-2.444927E-010	0.0099581	5
	54	21	3.945707	169844.4	-333199.6	1	373990.8	-62.99035	-1.033389E-010	0.0099676	5
	55	22	3.158693	207079.4	-382837.2	1	435254.2	-61.59072	7.779406E-011	0.0099722	5
	56	24	2.504006	252063.5	-440329.7	1	507371.9	-60.21134	-1.573455E-010	0.0099633	5
	57	25	1.998082	300159.3	-502556.7	1	585370.8	-59.15162	-1.409365E-010	0.0099432	5
	58	27	1.584686	357440.8	-572583.2	1	674992.9	-58.02512	-1.370035E-011	0.0099895	5
	59	28	1.266892	418710.3	-651430.8	1	774390.3	-57.26892	1.631583E-011	0.0099978	5
	60	31	0.999041	491501.6	-745786.4	1	893180.4	-56.6136	-1.408152E-011	0.0099853	5
