EXPLAIN
TAG	EISPOT
TITLE	LABEL	Potentiostatic EIS	Test &Identifier
DATE	LABEL	9/22/2019	Date
TIME	LABEL	11:00:41	Time
NOTES	NOTES	1	&Notes...
	
PSTAT	PSTAT	REF600-11020	Potentiostat
VDC	POTEN	0.00000E+000	T	DC &Voltage (V)
FREQINIT	QUANT	1.00000E+006	Initial Fre&q. (Hz)
FREQFINAL	QUANT	1.00000E+000	Final Fre&q. (Hz)
PTSPERDEC	QUANT	1.00000E+001	Points/&decade
VAC	QUANT	2.50000E+001	AC &Voltage (mV rms)
AREA	QUANT	1.00000E-002	&Area (cm^2)
CONDIT	TWOPARAM	T	5.00000E+000	0.00000E+000	Conditionin&g	Time(s)	E(V)
DELAY	TWOPARAM	T	5.00000E+000	0.00000E+000	Init. De&lay	Time(s)	Stab.(mV/s)
SPEED	SELECTOR	1	&Optimize for:
ZGUESS	QUANT	1.00000E+004	E&stimated Z (ohms)
OCVCURVE	TABLE	19
	Pt	T	Vf	Vm	Ach	Over
	#	s	V vs. Ref.	V	V	bits
	0	0.258333	1.88815E-003	1.88815E-003	5.58899E-004	...........
	1	0.516667	1.87944E-003	1.43218E-003	5.56899E-004	...........
	2	0.775	1.82676E-003	1.04230E-003	5.56899E-004	...........
	3	1.03333	1.68117E-003	7.07738E-004	5.62866E-004	...........
	4	1.29167	1.42996E-003	4.25733E-004	5.59432E-004	...........
	5	1.55	1.12276E-003	6.76567E-004	5.57566E-004	...........
	6	1.80833	8.33402E-004	-1.80027E-004	5.50833E-004	...........
	7	2.06667	5.77823E-004	-4.56387E-004	5.54166E-004	...........
	8	2.325	3.02804E-004	-7.10087E-004	5.53499E-004	...........
	9	2.58333	-1.90229E-005	-9.50409E-004	5.58399E-004	...........
	10	2.84167	-3.51265E-004	-1.17599E-003	5.55799E-004	...........
	11	3.1	-6.54049E-004	-1.40157E-003	5.51333E-004	...........
	12	3.35833	-9.19559E-004	-1.62303E-003	5.45433E-004	...........
	13	3.61667	-1.15877E-003	-1.83266E-003	5.52199E-004	...........
	14	3.875	-1.38384E-003	-2.04169E-003	5.50299E-004	...........
	15	4.13333	-1.60057E-003	-2.19830E-003	5.52099E-004	...........
	16	4.39167	-1.80734E-003	-2.33720E-003	5.51266E-004	...........
	17	4.65	-1.99962E-003	-2.55474E-003	5.57866E-004	...........
	18	4.90833	-2.17929E-003	-2.73786E-003	5.52666E-004	...........
EOC	QUANT	-0.0021793	Open Circuit (V)
PSTATMODEL	IQUANT	4	Pstat Model
PSTATSECTION	LABEL	REF600-11020	Pstat Section
PSTATSERIALNO	LABEL	11020	Pstat Serial Number
CTRLMODE	IQUANT	1	Control Mode
IESTAB	IQUANT	0	I/E Stability
CASPEED	IQUANT	1	Control Amp Speed
CONVENTION	IQUANT	1	Current Convention
ICHRANGE	IQUANT	2	Ich Range
ICHRANGEMODE	TOGGLE	F	Ich Auto Range
ICHOFFSETENABLE	TOGGLE	T	Ich Offset Enable
ICHOFFSET	QUANT	0	Ich Offset (V)
ICHFILTER	IQUANT	3	Ich Filter
VCHRANGE	IQUANT	2	Vch Range
VCHRANGEMODE	TOGGLE	F	Vch Auto Range
VCHOFFSETENABLE	TOGGLE	T	Vch Offset Enable
VCHOFFSET	QUANT	0	Vch Offset (V)
VCHFILTER	IQUANT	3	Vch Filter
ACHRANGE	IQUANT	2	Ach Range
ACHOFFSETENABLE	TOGGLE	F	Ach Offset Enable
ACHOFFSET	QUANT	0	Ach Offset (V)
ACHFILTER	IQUANT	3	Ach Filter
IERANGELOWERLIMIT	IQUANT	1	I/E Range Lower Limit
IERANGEMODE	TOGGLE	F	I/E AutoRange
IERANGE	IQUANT	5	I/E Range
POSFEEDENABLE	TOGGLE	F	Positive Feedback IR Comp
POSFEEDRESISTANCE	QUANT	0	Positive Feedback Resistance (ohm)
ACHSELECT	IQUANT	0	Ach Select
CABLEID	IQUANT	14	Cable ID
DCCALDATE	LABEL	8/19/2019	DC Calibration Date
ACCALDATE	LABEL	8/19/2019	AC Calibration Date
THERMOSELECT	IQUANT	1	Thermo Select
FRAMEWORKVERSION	QUANT	6.33	Framework Version
INSTRUMENTVERSION	LABEL	3.50	Instrument Version
ZCURVE	TABLE
	Pt	Time	Freq	Zreal	Zimag	Zsig	Zmod	Zphz	Idc	Vdc	IERange
	#	s	Hz	ohm	ohm	V	ohm	°	A	V	#
	0	2	1000078	2460.389	-1970.928	1	3152.47	-38.69695	-2.722186E-006	0.0003619	8
	1	3	794390.6	2851.41	-1967.66	1	3464.423	-34.60823	6.249366E-007	-0.0004812	8
	2	4	630984.4	3236.431	-1886.796	1	3746.262	-30.24162	-4.493012E-007	-0.00059	8
	3	6	501234.4	3610.048	-1755.535	1	4014.268	-25.93325	3.619529E-006	-0.0014204	8
	4	7	398109.4	3890.686	-1595.389	1	4205.081	-22.29625	-7.841277E-007	-0.0007429	8
	5	8	316265.6	4126.399	-1420.758	1	4364.141	-18.99907	5.527332E-007	-0.0005889	8
	6	10	251203.1	4332.163	-1241.485	1	4506.542	-15.99093	-2.963357E-006	4.892479E-005	8
	7	12	199546.9	4486.018	-1082.406	1	4614.754	-13.5653	5.498739E-007	-0.0005857	8
	8	13	158578.1	4591.721	-916.7388	1	4682.341	-11.29067	4.086958E-006	-0.0014454	8
	9	15	125953.1	4709.124	-757.7011	1	4769.692	-9.140585	-7.055782E-007	0.0012191	7
	10	16	100078.1	4768.09	-666.457	1	4814.442	-7.956933	-5.184304E-009	-0.0006622	7
	11	17	79453.13	4823.7	-598.9755	1	4860.746	-7.078383	-5.243295E-008	-0.0006359	7
	12	19	63140.62	4871.041	-546.8507	1	4901.641	-6.405529	-4.375364E-008	-0.0006086	7
	13	20	50203.12	4915.939	-511.0659	1	4942.434	-5.935205	8.927386E-008	-0.000784	7
	14	21	39890.62	4959.734	-489.0376	1	4983.786	-5.631251	-6.28109E-008	-0.000652	7
	15	23	31640.63	4994.532	-478.1004	1	5017.363	-5.467964	-4.248783E-008	-0.0006173	7
	16	24	25171.88	5032.819	-481.1377	1	5055.766	-5.460883	1.169142E-008	-0.000623	7
	17	26	20015.62	5071.477	-494.9011	1	5095.567	-5.573573	-6.436582E-008	-0.0006483	7
	18	27	15890.62	5110.509	-528.4443	1	5137.758	-5.903601	-3.611351E-008	-0.0007201	7
	19	28	12609.37	5151.271	-564.8467	1	5182.146	-6.257593	-2.862032E-008	-0.0006674	7
	20	30	10078.13	5192.795	-619.4257	1	5229.609	-6.802418	8.961924E-008	-0.0007838	7
	21	31	8015.625	5239.001	-693.2274	1	5284.666	-7.537621	-3.586818E-008	-0.0007201	7
	22	32	6328.125	5290.31	-792.0619	1	5349.275	-8.515039	1.102882E-008	-0.0006306	7
	23	34	5015.625	5343.662	-913.2838	1	5421.145	-9.6987	8.363092E-008	-0.0008919	7
	24	35	3984.375	5402.154	-1063.026	1	5505.751	-11.13233	1.236473E-007	-0.0008992	7
	25	36	3170.956	5467.381	-1247.937	1	5607.995	-12.85757	6.92274E-008	-0.0008327	7
	26	38	2527.573	5541.15	-1473.372	1	5733.688	-14.89021	-2.777803E-008	-0.0006673	7
	27	39	1976.103	5631.461	-1772.795	1	5903.911	-17.47411	8.308707E-008	-0.000895	7
	28	40	1577.524	5724.216	-2110.173	1	6100.777	-20.23589	4.740315E-008	-0.0007777	7
	29	42	1265.625	5841.079	-2510.292	1	6357.654	-23.25634	-3.786817E-008	-0.0007179	7
	30	43	998.264	5961.541	-3041.365	1	6692.523	-27.02905	1.046694E-008	-0.0007797	7
	31	44	796.875	6099.845	-3654.972	1	7111.042	-30.92966	-5.173396E-008	-0.000652	7
	32	46	627.7902	6270.582	-4459.267	1	7694.495	-35.41819	-4.371684E-008	-0.0007114	7
	33	47	505.5147	6447.67	-5356.212	1	8382.211	-39.71711	4.690949E-008	-0.0007842	7
	34	48	397.9953	6680.308	-6574.755	1	9373.042	-44.54375	3.973998E-009	-0.000711	7
	35	50	315.5048	6947.922	-8041.728	1	10627.46	-49.17352	1.422437E-009	-0.0007698	6
	36	51	252.4038	7252.092	-9780.69	1	12175.99	-53.44415	6.615062E-010	-0.000772	6
	37	53	198.6229	7654.125	-12091.59	1	14310.56	-57.66569	1.021547E-009	-0.0007662	6
	38	54	158.3615	8126.16	-14796.51	1	16881.09	-61.22465	7.272251E-010	-0.0007659	6
	39	55	125.558	8745.408	-18214.81	1	20205.48	-64.35312	1.008579E-009	-0.0007628	6
	40	57	100.4464	9489.824	-22259.76	1	24198.22	-66.91039	1.396704E-009	-0.000766	6
	41	58	79.00281	10585.2	-27648.37	1	29605.38	-69.05062	1.535955E-009	-0.000763	6
	42	59	63.3446	11612.4	-33668.83	1	35615.13	-70.97066	9.795805E-010	-0.0007642	6
	43	61	49.86702	13818.8	-41450.19	1	43692.99	-71.56248	1.4823E-009	-0.0007719	6
	44	62	39.72458	16084.14	-50876.5	1	53358.39	-72.45612	7.271231E-010	-0.0007692	6
	45	64	31.6723	19179.96	-62000.46	1	64899.36	-72.81045	9.193895E-010	-0.0007679	6
	46	65	24.93351	23396.08	-76313.66	1	79819.5	-72.95562	1.136296E-009	-0.000768	6
	47	66	19.86229	28718	-92785.09	1	97127.7	-72.80213	9.913537E-010	-0.0007682	6
	48	68	15.83615	35720.19	-112443.9	1	117981.2	-72.37644	3.865494E-011	-0.0007531	5
	49	69	12.40079	46681.93	-137002.9	1	144737.7	-71.18414	1.66974E-009	-0.0007632	5
	50	71	9.93114	57689.09	-163439.7	1	173322.1	-70.55856	1.051241E-009	-0.000768	5
	51	72	7.944915	71884.09	-194225.7	1	207101.3	-69.69019	-1.707388E-010	-0.0007577	5
	52	74	6.317385	92357.47	-231028.5	1	248805.3	-68.21012	1.61077E-010	-0.00076	5
	53	76	5.008013	117434	-273590.9	1	297729.3	-66.76943	1.178103E-010	-0.0007664	5
	54	78	3.945707	149484.1	-322276.3	1	355256.9	-65.11633	5.644024E-010	-0.0007582	5
	55	81	3.158693	185581.4	-373914.3	1	417435.4	-63.60384	1.315091E-010	-0.0007754	5
	56	84	2.504006	230454.3	-432740.3	1	490278.9	-61.96263	7.068241E-010	-0.000759	5
	57	87	1.998082	281486	-495819.9	1	570150.6	-60.41563	5.151305E-010	-0.0007403	5
	58	90	1.584686	342284.1	-565373.3	1	660912.6	-58.80876	3.217448E-010	-0.0008084	5
	59	94	1.266892	406581.1	-640886.1	1	758975.1	-57.60877	4.628736E-010	-0.000761	5
	60	98	0.999041	485718.7	-731101.1	1	877742.3	-56.40129	-3.245524E-012	-0.0007841	5
