EXPLAIN
TAG	EISPOT
TITLE	LABEL	Potentiostatic EIS	Test &Identifier
DATE	LABEL	9/24/2019	Date
TIME	LABEL	10:16:22	Time
NOTES	NOTES	1	&Notes...
	
PSTAT	PSTAT	REF600-11020	Potentiostat
VDC	POTEN	0.00000E+000	T	DC &Voltage (V)
FREQINIT	QUANT	1.00000E+006	Initial Fre&q. (Hz)
FREQFINAL	QUANT	1.00000E+000	Final Fre&q. (Hz)
PTSPERDEC	QUANT	1.00000E+001	Points/&decade
VAC	QUANT	2.50000E+001	AC &Voltage (mV rms)
AREA	QUANT	1.00000E-002	&Area (cm^2)
CONDIT	TWOPARAM	T	5.00000E+000	0.00000E+000	Conditionin&g	Time(s)	E(V)
DELAY	TWOPARAM	T	5.00000E+000	0.00000E+000	Init. De&lay	Time(s)	Stab.(mV/s)
SPEED	SELECTOR	1	&Optimize for:
ZGUESS	QUANT	1.00000E+004	E&stimated Z (ohms)
OCVCURVE	TABLE	19
	Pt	T	Vf	Vm	Ach	Over
	#	s	V vs. Ref.	V	V	bits
	0	0.258333	-3.98963E-003	-3.98963E-003	5.65466E-004	...........
	1	0.516667	-4.00379E-003	-4.73081E-003	5.61932E-004	...........
	2	0.775	-4.09055E-003	-5.42361E-003	5.69132E-004	...........
	3	1.03333	-4.33500E-003	-6.06959E-003	5.65299E-004	...........
	4	1.29167	-4.76943E-003	-6.68085E-003	5.64632E-004	...........
	5	1.55	-5.34175E-003	-7.26100E-003	5.69066E-004	...........
	6	1.80833	-5.96925E-003	-7.80949E-003	5.69766E-004	...........
	7	2.06667	-6.59261E-003	-8.32952E-003	5.68666E-004	...........
	8	2.325	-7.18600E-003	-8.82861E-003	5.71766E-004	...........
	9	2.58333	-7.74476E-003	-9.30311E-003	5.71399E-004	...........
	10	2.84167	-8.27245E-003	-9.76040E-003	5.74632E-004	...........
	11	3.1	-8.77391E-003	-1.02004E-002	5.73066E-004	...........
	12	3.35833	-9.25300E-003	-1.06235E-002	5.66932E-004	...........
	13	3.61667	-9.71239E-003	-1.10272E-002	5.74765E-004	...........
	14	3.875	-1.01537E-002	-1.14212E-002	5.70632E-004	...........
	15	4.13333	-1.05779E-002	-1.17981E-002	5.66432E-004	...........
	16	4.39167	-1.09863E-002	-1.21664E-002	5.66299E-004	...........
	17	4.65	-1.13801E-002	-1.25191E-002	5.71066E-004	...........
	18	4.90833	-1.17605E-002	-1.28651E-002	5.69332E-004	...........
EOC	QUANT	-0.0117605	Open Circuit (V)
PSTATMODEL	IQUANT	4	Pstat Model
PSTATSECTION	LABEL	REF600-11020	Pstat Section
PSTATSERIALNO	LABEL	11020	Pstat Serial Number
CTRLMODE	IQUANT	1	Control Mode
IESTAB	IQUANT	0	I/E Stability
CASPEED	IQUANT	1	Control Amp Speed
CONVENTION	IQUANT	1	Current Convention
ICHRANGE	IQUANT	2	Ich Range
ICHRANGEMODE	TOGGLE	F	Ich Auto Range
ICHOFFSETENABLE	TOGGLE	T	Ich Offset Enable
ICHOFFSET	QUANT	0	Ich Offset (V)
ICHFILTER	IQUANT	3	Ich Filter
VCHRANGE	IQUANT	2	Vch Range
VCHRANGEMODE	TOGGLE	F	Vch Auto Range
VCHOFFSETENABLE	TOGGLE	T	Vch Offset Enable
VCHOFFSET	QUANT	0	Vch Offset (V)
VCHFILTER	IQUANT	3	Vch Filter
ACHRANGE	IQUANT	2	Ach Range
ACHOFFSETENABLE	TOGGLE	F	Ach Offset Enable
ACHOFFSET	QUANT	0	Ach Offset (V)
ACHFILTER	IQUANT	3	Ach Filter
IERANGELOWERLIMIT	IQUANT	1	I/E Range Lower Limit
IERANGEMODE	TOGGLE	F	I/E AutoRange
IERANGE	IQUANT	6	I/E Range
POSFEEDENABLE	TOGGLE	F	Positive Feedback IR Comp
POSFEEDRESISTANCE	QUANT	0	Positive Feedback Resistance (ohm)
ACHSELECT	IQUANT	0	Ach Select
CABLEID	IQUANT	14	Cable ID
DCCALDATE	LABEL	8/19/2019	DC Calibration Date
ACCALDATE	LABEL	8/19/2019	AC Calibration Date
THERMOSELECT	IQUANT	1	Thermo Select
FRAMEWORKVERSION	QUANT	6.33	Framework Version
INSTRUMENTVERSION	LABEL	3.50	Instrument Version
ZCURVE	TABLE
	Pt	Time	Freq	Zreal	Zimag	Zsig	Zmod	Zphz	Idc	Vdc	IERange
	#	s	Hz	ohm	ohm	V	ohm	°	A	V	#
	0	1	1000078	2205.008	-1957.655	1	2948.639	-41.59938	5.72981E-007	-0.0096979	8
	1	3	794390.6	2581.47	-1994.244	1	3262.054	-37.68689	1.25465E-006	-0.0101464	8
	2	4	630984.4	2989.294	-1963.928	1	3576.715	-33.30441	-1.214477E-006	-0.0096514	8
	3	6	501234.4	3382.14	-1851.478	1	3855.754	-28.69754	4.638224E-007	-0.0099556	8
	4	7	398109.4	3703.686	-1755.216	1	4098.545	-25.35677	1.210655E-006	-0.0103809	8
	5	8	316265.6	4005.693	-1595.086	1	4311.598	-21.71268	-8.452249E-007	-0.0098582	8
	6	10	251203.1	4232.482	-1415.991	1	4463.063	-18.49784	-1.15738E-007	-0.0101153	8
	7	11	199546.9	4425.113	-1249.747	1	4598.206	-15.77082	-2.254412E-006	-0.0098606	8
	8	13	158578.1	4579.457	-1099.114	1	4709.509	-13.49626	7.631922E-008	-0.0102547	8
	9	14	125953.1	4707.21	-899.866	1	4792.451	-10.82252	-1.000454E-006	-0.0078638	7
	10	15	100078.1	4795.401	-780.4839	1	4858.501	-9.244217	4.041096E-008	-0.0102752	7
	11	17	79453.13	4863.239	-695.1484	1	4912.669	-8.134721	-1.099605E-008	-0.0101957	7
	12	18	63140.62	4919.877	-627.8563	1	4959.778	-7.272562	-1.763516E-009	-0.0101127	7
	13	19	50203.12	4965.379	-575.8977	1	4998.665	-6.615756	-3.834666E-008	-0.010183	7
	14	21	39890.62	5008.319	-543.6848	1	5037.743	-6.195558	4.294725E-008	-0.0102822	7
	15	22	31640.63	5048.08	-526.1684	1	5075.427	-5.950532	4.244406E-008	-0.0102843	7
	16	24	25171.88	5085.057	-526.3972	1	5112.23	-5.910119	-1.015218E-008	-0.0101943	7
	17	25	20015.62	5123.551	-541.3185	1	5152.068	-6.031096	1.272322E-007	-0.0104165	7
	18	26	15890.62	5161.126	-570.7273	1	5192.586	-6.31024	-3.844666E-008	-0.0101855	7
	19	28	12609.37	5203.567	-616.8576	1	5240.002	-6.760585	-3.931709E-008	-0.0101925	7
	20	29	10078.13	5242.437	-683.3456	1	5286.786	-7.426567	1.292356E-007	-0.0104206	7
	21	30	8015.625	5288.909	-769.4852	1	5344.592	-8.277903	8.199162E-008	-0.010402	7
	22	32	6328.125	5338.929	-884.8398	1	5411.756	-9.410296	-2.715449E-008	-0.0102364	7
	23	33	5015.625	5392.348	-1027.859	1	5489.437	-10.79194	-1.772352E-008	-0.0101749	7
	24	34	3984.375	5449.535	-1206.801	1	5581.559	-12.48665	-3.196296E-008	-0.0102315	7
	25	36	3170.956	5517.403	-1425.597	1	5698.602	-14.48734	-6.365477E-008	-0.0101407	7
	26	37	2527.573	5593.929	-1693.903	1	5844.771	-16.84689	-3.187545E-008	-0.0102299	7
	27	39	1976.103	5692.609	-2056.232	1	6052.593	-19.86027	-2.608559E-008	-0.0102481	7
	28	40	1577.524	5793.272	-2465.711	1	6296.168	-23.0554	8.289033E-008	-0.0104094	7
	29	41	1265.625	5928.245	-2924.754	1	6610.467	-26.25985	2.168848E-009	-0.0101301	7
	30	43	998.264	6070.303	-3594.383	1	7054.656	-30.63087	1.312623E-007	-0.0104231	7
	31	44	796.875	6247.42	-4341.987	1	7608.095	-34.79949	4.522612E-008	-0.0102916	7
	32	45	627.7902	6475.835	-5306.061	1	8372.02	-39.32993	-3.504671E-008	-0.0102224	7
	33	47	505.5147	6731.975	-6385.824	1	9278.913	-43.48844	1.303968E-007	-0.0104293	7
	34	48	397.9953	7072.165	-7819.419	1	10543.19	-47.87267	2.270495E-009	-0.0102793	6
	35	49	315.5048	7484.144	-9539.54	1	12124.98	-51.88441	1.630301E-009	-0.0102868	6
	36	51	252.4038	7974.367	-11553.14	1	14038.01	-55.38527	8.953621E-010	-0.0102869	6
	37	52	198.6229	8642.154	-14196.38	1	16619.99	-58.66871	1.750343E-009	-0.0102878	6
	38	53	158.3615	9442.079	-17246.98	1	19662.43	-61.30094	1.65747E-009	-0.0102873	6
	39	55	125.558	10510.18	-21058.53	1	23535.63	-63.47652	1.999146E-009	-0.0102849	6
	40	56	100.4464	11814.23	-25472.07	1	28078.5	-65.1176	2.380072E-009	-0.0102837	6
	41	58	79.00281	13789.58	-31198.04	1	34109.68	-66.1545	1.635446E-009	-0.0102856	6
	42	59	63.3446	16433.23	-37756.61	1	41177.82	-66.47934	2.257864E-009	-0.0102895	6
	43	60	49.86702	19101.46	-46145.58	1	49942.77	-67.51343	1.058418E-009	-0.0102947	6
	44	62	39.72458	23389.5	-55180.52	1	59932.95	-67.02925	1.371347E-009	-0.0102913	6
	45	63	31.6723	28636.73	-65843.17	1	71801.02	-66.49465	1.812276E-009	-0.0102886	6
	46	65	24.93351	36225.6	-78806.98	1	86734.27	-65.31294	1.899925E-009	-0.0102844	6
	47	66	19.86229	45235.75	-92761.9	1	103203.9	-64.00362	2.422202E-009	-0.0102821	6
	48	67	15.83615	56451.98	-109421.5	1	123125.5	-62.7102	-1.375382E-009	-0.0102799	5
	49	69	12.40079	71792.7	-124756.2	1	143938.5	-60.08112	2.295885E-009	-0.0102845	5
	50	70	9.93114	87911.5	-143412.9	1	168213.2	-58.49188	1.337345E-009	-0.0102846	5
	51	72	7.944915	106825.4	-161607.5	1	193723.1	-56.5346	4.120213E-010	-0.010275	5
	52	74	6.317385	128063.4	-181578.2	1	222195.6	-54.80547	1.581696E-010	-0.0102724	5
	53	76	5.008013	152491.6	-202894.6	1	253810.8	-53.0722	6.286016E-010	-0.0102787	5
	54	78	3.945707	179115.7	-225904.2	1	288297	-51.58969	7.541134E-010	-0.0102746	5
	55	81	3.158693	204972.4	-249503.6	1	322902.1	-50.59618	9.024335E-010	-0.0102694	5
	56	84	2.504006	234302	-277840.1	1	363445.4	-49.85913	1.476414E-010	-0.0102728	5
	57	87	1.998082	262709.3	-307744	1	404626.4	-49.51387	7.489512E-010	-0.01032	5
	58	90	1.584686	293276.7	-346183.1	1	453711.3	-49.72966	4.072622E-010	-0.0102934	5
	59	93	1.266892	325185.4	-388699.5	1	506786.8	-50.0842	6.663671E-010	-0.01032	5
	60	98	0.999041	360240	-445144.6	1	572648.8	-51.01796	4.327332E-010	-0.0102562	5
