EXPLAIN
TAG	EISPOT
TITLE	LABEL	Potentiostatic EIS	Test &Identifier
DATE	LABEL	10/12/2019	Date
TIME	LABEL	9:30:49	Time
NOTES	NOTES	1	&Notes...
	
PSTAT	PSTAT	REF600-11020	Potentiostat
VDC	POTEN	0.00000E+000	T	DC &Voltage (V)
FREQINIT	QUANT	1.00000E+006	Initial Fre&q. (Hz)
FREQFINAL	QUANT	1.00000E+000	Final Fre&q. (Hz)
PTSPERDEC	QUANT	1.00000E+001	Points/&decade
VAC	QUANT	2.50000E+001	AC &Voltage (mV rms)
AREA	QUANT	1.00000E-002	&Area (cm^2)
CONDIT	TWOPARAM	T	5.00000E+000	0.00000E+000	Conditionin&g	Time(s)	E(V)
DELAY	TWOPARAM	T	5.00000E+000	0.00000E+000	Init. De&lay	Time(s)	Stab.(mV/s)
SPEED	SELECTOR	1	&Optimize for:
ZGUESS	QUANT	1.00000E+004	E&stimated Z (ohms)
OCVCURVE	TABLE	19
	Pt	T	Vf	Vm	Ach	Over
	#	s	V vs. Ref.	V	V	bits
	0	0.258333	1.13841E-002	1.13841E-002	5.48333E-004	...........
	1	0.516667	1.13860E-002	1.14805E-002	5.53032E-004	...........
	2	0.775	1.13946E-002	1.14330E-002	5.47766E-004	...........
	3	1.03333	1.14170E-002	1.17377E-002	5.49333E-004	...........
	4	1.29167	1.14717E-002	1.21659E-002	5.53499E-004	...........
	5	1.55	1.15940E-002	1.23913E-002	5.50766E-004	...........
	6	1.80833	1.17986E-002	1.24994E-002	5.57199E-004	...........
	7	2.06667	1.20482E-002	1.26947E-002	5.54166E-004	...........
	8	2.325	1.22917E-002	1.30226E-002	5.47499E-004	...........
	9	2.58333	1.25157E-002	1.31901E-002	5.47266E-004	...........
	10	2.84167	1.27339E-002	1.33467E-002	5.49433E-004	...........
	11	3.1	1.29492E-002	1.35530E-002	5.51832E-004	...........
	12	3.35833	1.31545E-002	1.37533E-002	5.52733E-004	...........
	13	3.61667	1.33495E-002	1.39225E-002	5.50899E-004	...........
	14	3.875	1.35399E-002	1.41217E-002	5.55299E-004	...........
	15	4.13333	1.37279E-002	1.42736E-002	5.55199E-004	...........
	16	4.39167	1.39119E-002	1.44306E-002	5.49466E-004	...........
	17	4.65	1.40885E-002	1.45730E-002	5.51899E-004	...........
	18	4.90833	1.42552E-002	1.47217E-002	5.48533E-004	...........
EOC	QUANT	0.0142552	Open Circuit (V)
PSTATMODEL	IQUANT	4	Pstat Model
PSTATSECTION	LABEL	REF600-11020	Pstat Section
PSTATSERIALNO	LABEL	11020	Pstat Serial Number
CTRLMODE	IQUANT	1	Control Mode
IESTAB	IQUANT	0	I/E Stability
CASPEED	IQUANT	1	Control Amp Speed
CONVENTION	IQUANT	1	Current Convention
ICHRANGE	IQUANT	2	Ich Range
ICHRANGEMODE	TOGGLE	F	Ich Auto Range
ICHOFFSETENABLE	TOGGLE	T	Ich Offset Enable
ICHOFFSET	QUANT	0	Ich Offset (V)
ICHFILTER	IQUANT	3	Ich Filter
VCHRANGE	IQUANT	2	Vch Range
VCHRANGEMODE	TOGGLE	F	Vch Auto Range
VCHOFFSETENABLE	TOGGLE	T	Vch Offset Enable
VCHOFFSET	QUANT	0	Vch Offset (V)
VCHFILTER	IQUANT	3	Vch Filter
ACHRANGE	IQUANT	2	Ach Range
ACHOFFSETENABLE	TOGGLE	F	Ach Offset Enable
ACHOFFSET	QUANT	0	Ach Offset (V)
ACHFILTER	IQUANT	3	Ach Filter
IERANGELOWERLIMIT	IQUANT	1	I/E Range Lower Limit
IERANGEMODE	TOGGLE	F	I/E AutoRange
IERANGE	IQUANT	6	I/E Range
POSFEEDENABLE	TOGGLE	F	Positive Feedback IR Comp
POSFEEDRESISTANCE	QUANT	0	Positive Feedback Resistance (ohm)
ACHSELECT	IQUANT	0	Ach Select
CABLEID	IQUANT	14	Cable ID
DCCALDATE	LABEL	8/19/2019	DC Calibration Date
ACCALDATE	LABEL	8/19/2019	AC Calibration Date
THERMOSELECT	IQUANT	1	Thermo Select
FRAMEWORKVERSION	QUANT	6.33	Framework Version
INSTRUMENTVERSION	LABEL	3.50	Instrument Version
ZCURVE	TABLE
	Pt	Time	Freq	Zreal	Zimag	Zsig	Zmod	Zphz	Idc	Vdc	IERange
	#	s	Hz	ohm	ohm	V	ohm	°	A	V	#
	0	2	1000078	2350.818	-1637.74	1	2865.055	-34.8637	3.784969E-007	0.016519	8
	1	3	794390.6	2675.115	-1571.446	1	3102.528	-30.43131	-6.606433E-007	0.0161231	8
	2	5	630984.4	2960.998	-1437.979	1	3291.7	-25.90306	1.065852E-006	0.0159813	8
	3	6	501234.4	3204.481	-1289.87	1	3454.34	-21.92581	-1.64262E-006	0.0161512	8
	4	7	398109.4	3397.763	-1122.621	1	3578.418	-18.28355	-1.395007E-006	0.0161793	8
	5	9	316265.6	3536.49	-980.779	1	3669.971	-15.50035	-7.06644E-007	0.0160636	8
	6	10	251203.1	3647.463	-833.5883	1	3741.505	-12.87325	2.120567E-006	0.0154019	8
	7	11	199546.9	3735.636	-712.6223	1	3803	-10.80017	-2.189387E-007	0.0157633	8
	8	13	158578.1	3774.699	-631.2883	1	3827.124	-9.494392	-2.951895E-006	0.0164326	8
	9	14	125953.1	3860.013	-492.3622	1	3891.288	-7.269083	1.298609E-006	0.013327	7
	10	15	100078.1	3885.279	-440.8742	1	3910.213	-6.473832	-6.834135E-008	0.0159317	7
	11	17	79453.13	3916.225	-408.1694	1	3937.438	-5.950182	-7.599395E-008	0.0160174	7
	12	18	63140.62	3948.063	-386.1432	1	3966.901	-5.586089	-3.526966E-008	0.015794	7
	13	19	50203.12	3977.839	-374.0896	1	3995.39	-5.372491	5.978865E-008	0.0157065	7
	14	21	39890.62	4008.676	-371.2414	1	4025.829	-5.291041	-2.196471E-008	0.0157795	7
	15	22	31640.63	4039.124	-379.3272	1	4056.896	-5.365097	-1.108045E-008	0.0158301	7
	16	23	25171.88	4071.761	-397.5996	1	4091.127	-5.577141	-7.154645E-008	0.015896	7
	17	25	20015.62	4105.37	-417.2708	1	4126.521	-5.803627	1.217423E-007	0.015614	7
	18	26	15890.62	4142.594	-462.4903	1	4168.331	-6.370275	5.837434E-008	0.0157012	7
	19	28	12609.37	4183.498	-510.5871	1	4214.541	-6.958416	-1.415056E-009	0.0157375	7
	20	29	10078.13	4224.47	-568.267	1	4262.52	-7.661321	4.566013E-008	0.0157369	7
	21	30	8015.625	4271.801	-646.2541	1	4320.409	-8.602687	-4.29926E-008	0.0158857	7
	22	32	6328.125	4321.715	-737.6299	1	4384.212	-9.6859	5.548331E-008	0.0157029	7
	23	33	5015.625	4374.272	-853.4397	1	4456.75	-11.03997	-7.088859E-008	0.0158807	7
	24	34	3984.375	4426.438	-998.409	1	4537.64	-12.71069	-6.355788E-008	0.0159087	7
	25	36	3170.956	4487.476	-1165.4	1	4636.334	-14.55814	-7.232315E-008	0.0160144	7
	26	37	2527.573	4550.951	-1376	1	4754.422	-16.82292	-1.665091E-009	0.0157366	7
	27	38	1976.103	4624.39	-1659.242	1	4913.051	-19.73811	-9.868762E-010	0.0157364	7
	28	40	1577.524	4694.869	-1978.919	1	5094.891	-22.85575	-2.078801E-008	0.0157692	7
	29	41	1265.625	4782.716	-2379.706	1	5342.038	-26.45327	-6.141541E-008	0.0159034	7
	30	42	998.264	4889.145	-2901.369	1	5685.216	-30.6862	-4.056362E-008	0.0158848	7
	31	44	796.875	5001.737	-3521.04	1	6116.788	-35.14415	-7.095421E-008	0.0158843	7
	32	45	627.7902	5149.605	-4334.004	1	6730.678	-40.08459	-1.470969E-009	0.0157333	7
	33	46	505.5147	5307.493	-5238.394	1	7457.228	-44.62459	-6.383154E-008	0.0159037	7
	34	48	397.9953	5526.068	-6470.61	1	8509.185	-49.50182	6.27744E-009	0.0158017	7
	35	49	315.5048	5793.684	-7954.65	1	9840.9	-53.93268	5.856508E-009	0.0158064	7
	36	50	252.4038	6119.639	-9707.44	1	11475.38	-57.77238	2.315497E-010	0.0157377	6
	37	52	198.6229	6565.595	-12025.17	1	13700.8	-61.36601	1.108864E-009	0.0157416	6
	38	53	158.3615	7104.705	-14721.6	1	16346.33	-64.23786	1.433788E-009	0.0157351	6
	39	55	125.558	7823.242	-18099.24	1	19717.65	-66.62399	1.278581E-009	0.0157404	6
	40	56	100.4464	8727.882	-22079.68	1	23742.12	-68.43159	1.104708E-009	0.0157402	6
	41	57	79.00281	9992.75	-27294.06	1	29065.8	-69.8916	1.550015E-009	0.0157398	6
	42	59	63.3446	11691.19	-32910.27	1	34925.2	-70.4427	1.197413E-009	0.0157366	6
	43	60	49.86702	13474.56	-40942.72	1	43103.02	-71.78323	-4.220353E-012	0.0157356	6
	44	62	39.72458	16113.94	-49481.92	1	52039.59	-71.962	7.54273E-010	0.015738	6
	45	63	31.6723	19537.42	-60033.3	1	63132.46	-71.97289	9.408214E-010	0.0157388	6
	46	64	24.93351	24123.68	-73192.26	1	77065.29	-71.75813	4.614291E-010	0.0157409	6
	47	66	19.86229	29938.17	-88211.46	1	93153.4	-71.25326	6.13845E-010	0.0157381	6
	48	67	15.83615	37293.04	-106431.5	1	112776	-70.6898	1.554533E-009	0.0157376	5
	49	68	12.40079	47349.91	-128773.5	1	137202.9	-69.81157	-1.043608E-010	0.0157403	5
	50	70	9.93114	58960.18	-152274.5	1	163290.6	-68.83376	-6.982926E-011	0.0157434	5
	51	71	7.944915	72971.32	-180409.2	1	194608	-67.97781	3.4155E-010	0.0157453	5
	52	73	6.317385	91521.86	-212507.8	1	231378.1	-66.69965	2.684753E-010	0.015756	5
	53	75	5.008013	114154.1	-250210	1	275020.4	-65.47595	4.644038E-010	0.0157511	5
	54	77	3.945707	143120.5	-294381.6	1	327328.6	-64.0722	-1.388998E-010	0.0157368	5
	55	80	3.158693	175269.1	-340493.8	1	382955.9	-62.76287	2.292053E-010	0.0157555	5
	56	83	2.504006	215366.6	-394737	1	449666.6	-61.38333	-3.052023E-010	0.0157438	5
	57	86	1.998082	260326	-451353.6	1	521046.7	-60.02506	7.845852E-011	0.0156988	5
	58	89	1.584686	312083	-517335.5	1	604178.6	-58.89949	-1.170861E-010	0.0157252	5
	59	93	1.266892	369928.4	-586102.5	1	693082.4	-57.74124	6.17147E-011	0.0156995	5
	60	97	0.999041	436510	-669330.9	1	799090	-56.88927	-7.851692E-011	0.0157766	5
