EXPLAIN
TAG	EISPOT
TITLE	LABEL	Potentiostatic EIS	Test &Identifier
DATE	LABEL	10/18/2019	Date
TIME	LABEL	9:41:43	Time
NOTES	NOTES	1	&Notes...
	
PSTAT	PSTAT	REF600-11020	Potentiostat
VDC	POTEN	0.00000E+000	T	DC &Voltage (V)
FREQINIT	QUANT	1.00000E+006	Initial Fre&q. (Hz)
FREQFINAL	QUANT	1.00000E+000	Final Fre&q. (Hz)
PTSPERDEC	QUANT	1.00000E+001	Points/&decade
VAC	QUANT	2.50000E+001	AC &Voltage (mV rms)
AREA	QUANT	1.00000E-002	&Area (cm^2)
CONDIT	TWOPARAM	T	5.00000E+000	0.00000E+000	Conditionin&g	Time(s)	E(V)
DELAY	TWOPARAM	T	5.00000E+000	0.00000E+000	Init. De&lay	Time(s)	Stab.(mV/s)
SPEED	SELECTOR	0	&Optimize for:
ZGUESS	QUANT	1.00000E+005	E&stimated Z (ohms)
OCVCURVE	TABLE	19
	Pt	T	Vf	Vm	Ach	Over
	#	s	V vs. Ref.	V	V	bits
	0	0.258333	3.32529E-003	3.32529E-003	5.45399E-004	...........
	1	0.516667	3.31700E-003	2.89130E-003	5.36099E-004	...........
	2	0.775	3.26569E-003	2.45887E-003	5.39533E-004	...........
	3	1.03333	3.12088E-003	2.13208E-003	5.37966E-004	...........
	4	1.29167	2.86759E-003	1.87284E-003	5.39733E-004	...........
	5	1.55	2.54802E-003	1.62978E-003	5.43366E-004	...........
	6	1.80833	2.22294E-003	1.44995E-003	5.45166E-004	...........
	7	2.06667	1.93168E-003	1.28953E-003	5.43966E-004	...........
	8	2.325	1.68589E-003	1.11274E-003	5.49166E-004	...........
	9	2.58333	1.47855E-003	9.19918E-004	5.43599E-004	...........
	10	2.84167	1.29389E-003	7.71877E-004	5.44233E-004	...........
	11	3.1	1.11910E-003	6.18782E-004	5.38766E-004	...........
	12	3.35833	9.50708E-004	4.88877E-004	5.40266E-004	...........
	13	3.61667	7.92047E-004	4.13989E-004	5.42233E-004	...........
	14	3.875	6.48597E-004	2.97877E-004	5.39899E-004	...........
	15	4.13333	5.23000E-004	1.98739E-004	5.46566E-004	...........
	16	4.39167	4.12252E-004	1.36061E-004	5.47966E-004	...........
	17	4.65	3.12293E-004	5.40691E-005	5.43733E-004	...........
	18	4.90833	2.21159E-004	-4.78220E-005	5.37733E-004	...........
EOC	QUANT	0.0002212	Open Circuit (V)
PSTATMODEL	IQUANT	4	Pstat Model
PSTATSECTION	LABEL	REF600-11020	Pstat Section
PSTATSERIALNO	LABEL	11020	Pstat Serial Number
CTRLMODE	IQUANT	1	Control Mode
IESTAB	IQUANT	0	I/E Stability
CASPEED	IQUANT	1	Control Amp Speed
CONVENTION	IQUANT	1	Current Convention
ICHRANGE	IQUANT	2	Ich Range
ICHRANGEMODE	TOGGLE	F	Ich Auto Range
ICHOFFSETENABLE	TOGGLE	T	Ich Offset Enable
ICHOFFSET	QUANT	0	Ich Offset (V)
ICHFILTER	IQUANT	3	Ich Filter
VCHRANGE	IQUANT	2	Vch Range
VCHRANGEMODE	TOGGLE	F	Vch Auto Range
VCHOFFSETENABLE	TOGGLE	T	Vch Offset Enable
VCHOFFSET	QUANT	0	Vch Offset (V)
VCHFILTER	IQUANT	3	Vch Filter
ACHRANGE	IQUANT	2	Ach Range
ACHOFFSETENABLE	TOGGLE	F	Ach Offset Enable
ACHOFFSET	QUANT	0	Ach Offset (V)
ACHFILTER	IQUANT	3	Ach Filter
IERANGELOWERLIMIT	IQUANT	1	I/E Range Lower Limit
IERANGEMODE	TOGGLE	F	I/E AutoRange
IERANGE	IQUANT	3	I/E Range
POSFEEDENABLE	TOGGLE	F	Positive Feedback IR Comp
POSFEEDRESISTANCE	QUANT	0	Positive Feedback Resistance (ohm)
ACHSELECT	IQUANT	0	Ach Select
CABLEID	IQUANT	14	Cable ID
DCCALDATE	LABEL	8/19/2019	DC Calibration Date
ACCALDATE	LABEL	8/19/2019	AC Calibration Date
THERMOSELECT	IQUANT	1	Thermo Select
FRAMEWORKVERSION	QUANT	6.33	Framework Version
INSTRUMENTVERSION	LABEL	3.50	Instrument Version
ZCURVE	TABLE
	Pt	Time	Freq	Zreal	Zimag	Zsig	Zmod	Zphz	Idc	Vdc	IERange
	#	s	Hz	ohm	ohm	V	ohm	°	A	V	#
	0	2	1000078	2372.175	-1394.389	1	2751.642	-30.44746	-1.447236E-006	0.0024213	8
	1	2	794390.6	2647.918	-1310.139	1	2954.308	-26.32533	3.771306E-007	0.0020824	8
	2	2	630984.4	2860.489	-1186.183	1	3096.68	-22.52273	-5.392507E-006	0.0032621	8
	3	3	501234.4	3035.913	-1068.044	1	3218.304	-19.38204	-4.219851E-006	0.0031057	8
	4	3	398109.4	3186.11	-921.7828	1	3316.773	-16.13584	-8.824652E-008	0.0020768	8
	5	3	316265.6	3309.593	-807.0916	1	3406.582	-13.7049	-2.941171E-006	0.0022902	8
	6	4	251203.1	3373.006	-708.1689	1	3446.545	-11.85714	-1.989762E-006	0.0022564	8
	7	4	199546.9	3442.045	-618.9375	1	3497.25	-10.19381	-2.771021E-006	0.002267	8
	8	4	158578.1	3496.357	-573.7527	1	3543.12	-9.319187	-3.105055E-006	0.002506	8
	9	5	125953.1	3566.675	-472.8174	1	3597.878	-7.551404	-7.560158E-007	0.0034555	7
	10	5	100078.1	3593.576	-453.0337	1	3622.02	-7.18524	-1.443088E-008	0.001811	7
	11	5	79453.13	3630.152	-451.8591	1	3658.167	-7.095334	-3.44035E-009	0.0018532	7
	12	6	63140.62	3671.183	-458.3011	1	3699.679	-7.115845	1.084598E-008	0.0017647	7
	13	6	50203.12	3713.093	-475.5559	1	3743.422	-7.298448	-4.792451E-008	0.0019244	7
	14	6	39890.62	3757.621	-504.2929	1	3791.309	-7.643729	3.781221E-008	0.0017878	7
	15	6	31640.63	3808.147	-542.8443	1	3846.643	-8.112752	-4.641962E-008	0.0018631	7
	16	7	25171.88	3861.332	-593.4839	1	3906.674	-8.737943	8.228696E-008	0.0016542	7
	17	7	20015.62	3943.007	-658.8885	1	3997.679	-9.48665	8.329337E-008	0.0017819	7
	18	7	15890.62	3992.248	-729.3932	1	4058.332	-10.35388	1.42824E-008	0.0017526	7
	19	8	12609.37	4068.708	-820.7843	1	4150.671	-11.40526	-3.61995E-008	0.001855	7
	20	8	10078.13	4154.55	-922.3232	1	4255.698	-12.51685	-1.694839E-008	0.0019671	7
	21	8	8015.625	4225.301	-1034.916	1	4350.197	-13.76268	-1.452935E-008	0.0018691	7
	22	9	6328.125	4366.29	-1189.213	1	4525.341	-15.23566	-1.70797E-008	0.0017981	7
	23	9	5015.625	4492.335	-1354.538	1	4692.104	-16.77922	-5.285802E-008	0.0019823	7
	24	9	3984.375	4645.63	-1516.19	1	4886.789	-18.07508	-9.534889E-009	0.001866	7
	25	10	3170.956	4793.281	-1764.413	1	5107.709	-20.20873	-1.601707E-008	0.0018039	7
	26	10	2527.573	4971.819	-2014.465	1	5364.425	-22.05664	3.904516E-008	0.0016886	7
	27	10	1976.103	5192.714	-2332.192	1	5692.398	-24.18618	-4.042505E-008	0.0018408	7
	28	11	1577.524	5489.111	-2612.63	1	6079.159	-25.45286	-7.582675E-008	0.0019415	7
	29	11	1265.625	5661.035	-3043.015	1	6427.072	-28.25967	-1.554434E-008	0.0018587	7
	30	11	998.264	5954.416	-3510.432	1	6912.178	-30.52152	7.860628E-008	0.0016482	7
	31	12	796.875	6237.961	-4030.93	1	7427.015	-32.87028	6.470457E-008	0.001706	7
	32	12	627.7902	6552.617	-4683.263	1	8054.175	-35.55402	-1.841042E-008	0.0017912	7
	33	12	505.5147	6850.395	-5401.65	1	8723.86	-38.25637	-3.832541E-008	0.0018498	7
	34	12	397.9953	7182.026	-6381.473	1	9607.53	-41.62217	2.4705E-009	0.001836	7
	35	13	315.5048	7517.252	-7569.807	1	10668.23	-45.19958	6.071817E-010	0.0017772	6
	36	13	252.4038	7859.494	-8999.687	1	11948.47	-48.86904	1.653426E-009	0.0017737	6
	37	13	198.6229	8269.071	-10925.69	1	13702.13	-52.87987	3.468575E-010	0.0017726	6
	38	14	158.3615	8713.356	-13204.95	1	15820.66	-56.58097	1.223042E-009	0.0017659	6
	39	14	125.558	9274.062	-16111.89	1	18590.35	-60.07511	5.552252E-010	0.0017689	6
	40	14	100.4464	9944.68	-19601.61	1	21979.98	-63.09949	-9.165217E-010	0.0017672	6
	41	15	79.00281	10808	-24169.49	1	26475.97	-65.90697	-9.281578E-010	0.0017702	6
	42	15	63.3446	12384.96	-29247.21	1	31761.4	-67.04939	8.295654E-010	0.0017658	6
	43	15	49.86702	13856.68	-36265.66	1	38822.75	-69.08874	1.250239E-009	0.0017649	6
	44	16	39.72458	15472.37	-44258.58	1	46885.14	-70.73087	4.362664E-010	0.001766	6
	45	16	31.6723	17690.02	-54059.3	1	56880.1	-71.88017	1.296226E-009	0.001766	6
	46	17	24.93351	21452.44	-66473.29	1	69849.16	-72.11393	4.588869E-010	0.0017621	6
	47	17	19.86229	25690.6	-80856.11	1	84839.36	-72.37327	1.796382E-009	0.001771	6
	48	17	15.83615	32590.53	-97054.3	1	102380	-71.4381	-2.274683E-009	0.0017686	6
	49	17	12.40079	39926.87	-118510.9	1	125055.9	-71.38108	2.238956E-009	0.0017674	5
	50	18	9.93114	47921.27	-143315.7	1	151115.3	-71.51132	-7.848176E-011	0.0017707	5
	51	18	7.944915	59614.84	-171209.3	1	181291.3	-70.80195	9.333221E-011	0.0017758	5
	52	19	6.317385	73177.57	-204743	1	217427.4	-70.33251	-2.409857E-010	0.0017901	5
	53	20	5.008013	91263.47	-245088.9	1	261529.3	-69.57623	-1.688267E-010	0.0017718	5
	54	21	3.945707	112963.9	-292757.4	1	313795.7	-68.90031	-3.595364E-011	0.0017649	5
	55	22	3.158693	138996.6	-345275.1	1	372202.9	-68.07188	1.611311E-010	0.001777	5
	56	24	2.504006	171157.8	-408962	1	443333.8	-67.28983	9.820907E-012	0.0017697	5
	57	25	1.998082	207229.6	-480811.6	1	523568.5	-66.68398	1.101789E-011	0.0017546	5
	58	27	1.584686	253976.8	-566020.6	1	620389.8	-65.83395	1.553792E-010	0.0018077	5
	59	29	1.266892	306529.8	-664204.4	1	731524.4	-65.22671	1.28942E-010	0.0018076	5
	60	31	0.999041	372073.8	-784445.4	1	868212.9	-64.62434	1.087614E-010	0.0017979	5
