EXPLAIN
TAG	EISPOT
TITLE	LABEL	Potentiostatic EIS	Test &Identifier
DATE	LABEL	11/7/2019	Date
TIME	LABEL	9:58:26	Time
NOTES	NOTES	2	&Notes...
	
	
PSTAT	PSTAT	REF600-11020	Potentiostat
VDC	POTEN	0.00000E+000	T	DC &Voltage (V)
FREQINIT	QUANT	1.00000E+006	Initial Fre&q. (Hz)
FREQFINAL	QUANT	1.00000E+000	Final Fre&q. (Hz)
PTSPERDEC	QUANT	1.00000E+001	Points/&decade
VAC	QUANT	2.50000E+001	AC &Voltage (mV rms)
AREA	QUANT	1.00000E-002	&Area (cm^2)
CONDIT	TWOPARAM	T	5.00000E+000	0.00000E+000	Conditionin&g	Time(s)	E(V)
DELAY	TWOPARAM	T	5.00000E+000	0.00000E+000	Init. De&lay	Time(s)	Stab.(mV/s)
SPEED	SELECTOR	1	&Optimize for:
ZGUESS	QUANT	1.00000E+005	E&stimated Z (ohms)
OCVCURVE	TABLE	19
	Pt	T	Vf	Vm	Ach	Over
	#	s	V vs. Ref.	V	V	bits
	0	0.258333	1.25618E-003	1.25618E-003	6.01765E-004	...........
	1	0.516667	1.25157E-003	1.01518E-003	6.01632E-004	...........
	2	0.775	1.22043E-003	6.36301E-004	6.08598E-004	...........
	3	1.03333	1.12019E-003	1.37432E-004	6.09432E-004	...........
	4	1.29167	9.08788E-004	-4.60686E-004	6.12498E-004	...........
	5	1.55	5.78967E-004	-5.32102E-004	5.92865E-004	...........
	6	1.80833	1.83363E-004	-7.40038E-004	6.00732E-004	...........
	7	2.06667	-2.20580E-004	-2.47420E-003	5.92965E-004	...........
	8	2.325	-8.16453E-004	-1.00966E-002	5.99165E-004	...........
	9	2.58333	-2.14925E-003	-1.13923E-002	6.02232E-004	...........
	10	2.84167	-4.65359E-003	-1.83101E-002	5.99799E-004	...........
	11	3.1	-8.10771E-003	-1.56470E-002	5.99999E-004	...........
	12	3.35833	-1.15981E-002	-1.30624E-002	5.98165E-004	...........
	13	3.61667	-1.39939E-002	-1.43958E-002	5.95599E-004	...........
	14	3.875	-1.47028E-002	-6.07497E-003	5.90799E-004	...........
	15	4.13333	-1.38072E-002	-6.75606E-003	5.98932E-004	...........
	16	4.39167	-1.16209E-002	1.29730E-003	5.94465E-004	...........
	17	4.65	-8.40672E-003	7.44597E-003	5.95499E-004	...........
	18	4.90833	-4.30455E-003	8.68038E-003	5.96965E-004	...........
EOC	QUANT	-0.0043046	Open Circuit (V)
PSTATMODEL	IQUANT	4	Pstat Model
PSTATSECTION	LABEL	REF600-11020	Pstat Section
PSTATSERIALNO	LABEL	11020	Pstat Serial Number
CTRLMODE	IQUANT	1	Control Mode
IESTAB	IQUANT	0	I/E Stability
CASPEED	IQUANT	1	Control Amp Speed
CONVENTION	IQUANT	1	Current Convention
ICHRANGE	IQUANT	2	Ich Range
ICHRANGEMODE	TOGGLE	F	Ich Auto Range
ICHOFFSETENABLE	TOGGLE	T	Ich Offset Enable
ICHOFFSET	QUANT	0	Ich Offset (V)
ICHFILTER	IQUANT	3	Ich Filter
VCHRANGE	IQUANT	2	Vch Range
VCHRANGEMODE	TOGGLE	F	Vch Auto Range
VCHOFFSETENABLE	TOGGLE	T	Vch Offset Enable
VCHOFFSET	QUANT	0	Vch Offset (V)
VCHFILTER	IQUANT	3	Vch Filter
ACHRANGE	IQUANT	2	Ach Range
ACHOFFSETENABLE	TOGGLE	F	Ach Offset Enable
ACHOFFSET	QUANT	0	Ach Offset (V)
ACHFILTER	IQUANT	3	Ach Filter
IERANGELOWERLIMIT	IQUANT	1	I/E Range Lower Limit
IERANGEMODE	TOGGLE	F	I/E AutoRange
IERANGE	IQUANT	4	I/E Range
POSFEEDENABLE	TOGGLE	F	Positive Feedback IR Comp
POSFEEDRESISTANCE	QUANT	0	Positive Feedback Resistance (ohm)
ACHSELECT	IQUANT	0	Ach Select
CABLEID	IQUANT	14	Cable ID
DCCALDATE	LABEL	8/19/2019	DC Calibration Date
ACCALDATE	LABEL	8/19/2019	AC Calibration Date
THERMOSELECT	IQUANT	1	Thermo Select
FRAMEWORKVERSION	QUANT	6.33	Framework Version
INSTRUMENTVERSION	LABEL	3.50	Instrument Version
ZCURVE	TABLE
	Pt	Time	Freq	Zreal	Zimag	Zsig	Zmod	Zphz	Idc	Vdc	IERange
	#	s	Hz	ohm	ohm	V	ohm	°	A	V	#
	0	1	1000078	2341.495	-1964.207	1	3056.258	-39.99224	9.461621E-006	-0.0020499	8
	1	3	794390.6	2723.732	-1961.621	1	3356.587	-35.76129	-4.66721E-006	-0.0016755	8
	2	5	630984.4	3105.891	-1918.415	1	3650.599	-31.70238	-7.070402E-006	-0.0013253	8
	3	6	501234.4	3466.85	-1845.081	1	3927.26	-28.02221	-6.573875E-006	-0.0015034	8
	4	8	398109.4	3772.68	-1697.718	1	4137.072	-24.22789	-1.305275E-006	-0.0029363	8
	5	9	316265.6	4039.21	-1550.154	1	4326.453	-20.99562	4.654102E-006	-0.0027456	8
	6	11	251203.1	4261.406	-1404.149	1	4486.782	-18.23724	4.312888E-006	-0.0027523	8
	7	12	199546.9	4458.077	-1255.028	1	4631.366	-15.72285	6.765567E-006	-0.0035552	8
	8	14	158578.1	4553.329	-1185.49	1	4705.124	-14.59336	-8.073796E-007	-0.0030594	8
	9	16	125953.1	4793.942	-920.6976	1	4881.554	-10.87153	6.929557E-007	-7.745188E-006	7
	10	17	100078.1	4868.803	-834.3796	1	4939.78	-9.72447	1.343776E-006	-0.004135	7
	11	18	79453.13	4952.298	-755.2029	1	5009.55	-8.670546	1.345159E-006	-0.0041455	7
	12	20	63140.62	5018.3	-699.4034	1	5066.804	-7.934238	7.715816E-008	-0.0015791	7
	13	21	50203.12	5073.466	-658.8227	1	5116.063	-7.398829	-1.096047E-006	-0.0007207	7
	14	22	39890.62	5138.842	-637.9835	1	5178.293	-7.077018	7.572827E-008	-0.0015834	7
	15	24	31640.63	5186.196	-628.2892	1	5224.115	-6.907518	-3.614766E-007	-0.0038195	7
	16	25	25171.88	5235.298	-641.8148	1	5274.492	-6.98923	-1.098415E-006	-0.0007202	7
	17	26	20015.62	5284.555	-670.8654	1	5326.968	-7.234902	-1.336308E-006	-0.0007989	7
	18	28	15890.62	5349.058	-709.3845	1	5395.892	-7.554403	-3.638426E-007	-0.0038161	7
	19	29	12609.37	5414.906	-772.1711	1	5469.686	-8.11572	-7.61578E-007	-0.0008212	7
	20	31	10078.13	5454.202	-866.5417	1	5522.609	-9.027472	-3.648896E-007	-0.0038256	7
	21	32	8015.625	5526.499	-947.5978	1	5607.15	-9.72957	1.516121E-007	-0.0044589	7
	22	33	6328.125	5606.082	-1087.452	1	5710.578	-10.97774	-7.60953E-007	-0.0008263	7
	23	35	5015.625	5681.709	-1250.026	1	5817.592	-12.4079	-3.608625E-007	-0.0011186	7
	24	36	3984.375	5764.61	-1457.988	1	5946.129	-14.19362	-1.478558E-006	-0.001472	7
	25	37	3170.956	5852.255	-1701.117	1	6094.48	-16.20794	-1.477102E-006	-0.0014761	7
	26	39	2527.573	5965.064	-2005.248	1	6293.092	-18.58086	1.013815E-006	-0.0030324	7
	27	40	1976.103	6085.449	-2424.064	1	6550.479	-21.71926	1.208825E-006	-0.0048442	7
	28	42	1577.524	6412.498	-2709.667	1	6961.496	-22.90699	-3.610297E-007	-0.0011148	7
	29	43	1265.625	6370.017	-3422.271	1	7231.118	-28.24677	8.341915E-008	-0.0015894	7
	30	45	998.264	6565.393	-4133.49	1	7758.229	-32.19401	-7.62563E-007	-0.0008313	7
	31	46	796.875	6787.542	-4969.555	1	8412.324	-36.21003	7.424098E-007	-0.0025106	7
	32	48	627.7902	7062.485	-6051.917	1	9300.774	-40.59362	4.676063E-007	-0.002115	7
	33	49	505.5147	7361.439	-7259.294	1	10338.67	-44.59972	1.203315E-006	-0.0048412	7
	34	51	397.9953	7769.521	-8848.924	1	11775.78	-48.71626	9.967135E-009	-0.0027557	7
	35	52	315.5048	8254.37	-10759.71	1	13561.19	-52.50618	3.720543E-010	-0.0028103	6
	36	53	252.4038	8814.009	-13000.25	1	15706.47	-55.8632	8.013998E-010	-0.0028214	6
	37	55	198.6229	9562.09	-15946.41	1	18593.59	-59.05144	7.150504E-010	-0.0028209	6
	38	56	158.3615	10468.86	-19367.28	1	22015.64	-61.60684	9.647423E-010	-0.0028123	6
	39	57	125.558	11638.96	-23625.98	1	26337.28	-63.77357	1.1926E-009	-0.0028156	6
	40	59	100.4464	13166.49	-28589.92	1	31476.02	-65.27254	2.721404E-009	-0.0028168	6
	41	60	79.00281	15305.29	-34988.23	1	38189.37	-66.37345	1.895372E-009	-0.0028146	6
	42	61	63.3446	17934.69	-41597.28	1	45298.86	-66.67669	3.426247E-010	-0.0028277	6
	43	63	49.86702	21897.32	-51953.91	1	56379.97	-67.14575	1.192337E-010	-0.0028253	6
	44	64	39.72458	26178.36	-61878.91	1	67188.59	-67.06882	8.173698E-010	-0.0028223	6
	45	66	31.6723	32664.59	-73829.01	1	80732.26	-66.13369	4.361344E-011	-0.0028152	6
	46	67	24.93351	40542.67	-88069.2	1	96953	-65.28101	-6.110561E-011	-0.0028116	6
	47	68	19.86229	50539.8	-103651.4	1	115316.4	-64.00641	-3.156544E-010	-0.0028068	5
	48	70	15.83615	60833.62	-121151.5	1	135567	-63.33747	-1.871613E-009	-0.0027972	5
	49	71	12.40079	78079.45	-138524.2	1	159013.7	-60.59213	1.382073E-009	-0.0028058	5
	50	73	9.93114	95774.6	-159633.8	1	186160.5	-59.03773	1.007085E-009	-0.0028153	5
	51	74	7.944915	115367.7	-181093.5	1	214719.7	-57.50037	-1.582394E-010	-0.0028078	5
	52	76	6.317385	137715.9	-204857.7	1	246844.8	-56.08897	-7.778204E-011	-0.0028209	5
	53	78	5.008013	162617.7	-231370.4	1	282801.6	-54.89869	-1.020095E-010	-0.002831	5
	54	80	3.945707	190961.9	-261008.2	1	323406.5	-53.80961	4.102452E-010	-0.0028176	5
	55	83	3.158693	219086.4	-292637.3	1	365561.8	-53.1792	-3.565327E-011	-0.0028266	5
	56	86	2.504006	250842.5	-330573.5	1	414970.8	-52.8084	5.652612E-010	-0.0028143	5
	57	89	1.998082	284305.6	-373087.3	1	469066.9	-52.69132	4.551294E-010	-0.0027944	5
	58	92	1.584686	321340.4	-422995.7	1	531210.9	-52.77687	2.631085E-010	-0.00286	5
	59	96	1.266892	360216.5	-482707.1	1	602297.3	-53.26814	3.706827E-010	-0.0028016	5
	60	100	0.999041	406983.3	-556863.7	1	689733.7	-53.83883	-2.864575E-011	-0.0028535	5
