EXPLAIN
TAG	EISPOT
TITLE	LABEL	Potentiostatic EIS	Test &Identifier
DATE	LABEL	10/8/2019	Date
TIME	LABEL	8:46:03	Time
NOTES	NOTES	2	&Notes...
	
	
PSTAT	PSTAT	REF600-11020	Potentiostat
VDC	POTEN	0.00000E+000	T	DC &Voltage (V)
FREQINIT	QUANT	1.00000E+006	Initial Fre&q. (Hz)
FREQFINAL	QUANT	1.00000E+000	Final Fre&q. (Hz)
PTSPERDEC	QUANT	1.00000E+001	Points/&decade
VAC	QUANT	2.50000E+001	AC &Voltage (mV rms)
AREA	QUANT	1.00000E-002	&Area (cm^2)
CONDIT	TWOPARAM	T	5.00000E+000	0.00000E+000	Conditionin&g	Time(s)	E(V)
DELAY	TWOPARAM	T	5.00000E+000	0.00000E+000	Init. De&lay	Time(s)	Stab.(mV/s)
SPEED	SELECTOR	1	&Optimize for:
ZGUESS	QUANT	1.00000E+004	E&stimated Z (ohms)
OCVCURVE	TABLE	19
	Pt	T	Vf	Vm	Ach	Over
	#	s	V vs. Ref.	V	V	bits
	0	0.258333	6.00373E-003	6.00373E-003	5.54433E-004	...........
	1	0.516667	6.00304E-003	5.96753E-003	5.55699E-004	...........
	2	0.775	5.99911E-003	5.95025E-003	5.49266E-004	...........
	3	1.03333	5.98926E-003	5.94204E-003	5.52299E-004	...........
	4	1.29167	5.97470E-003	5.94805E-003	5.53466E-004	...........
	5	1.55	5.96076E-003	5.95662E-003	5.57132E-004	...........
	6	1.80833	5.95271E-003	5.97443E-003	5.55599E-004	...........
	7	2.06667	5.95282E-003	5.99021E-003	5.52766E-004	...........
	8	2.325	5.96055E-003	6.01592E-003	5.48833E-004	...........
	9	2.58333	5.97433E-003	6.03937E-003	5.51999E-004	...........
	10	2.84167	5.99277E-003	6.06948E-003	5.52932E-004	...........
	11	3.1	6.01490E-003	6.09681E-003	5.55533E-004	...........
	12	3.35833	6.04000E-003	6.13196E-003	5.50699E-004	...........
	13	3.61667	6.06752E-003	6.15863E-003	5.49433E-004	...........
	14	3.875	6.09678E-003	6.18968E-003	5.51166E-004	...........
	15	4.13333	6.12683E-003	6.21782E-003	5.59466E-004	...........
	16	4.39167	6.15685E-003	6.24786E-003	5.50099E-004	...........
	17	4.65	6.18659E-003	6.27776E-003	5.50366E-004	...........
	18	4.90833	6.21621E-003	6.31085E-003	5.57233E-004	...........
EOC	QUANT	0.0062162	Open Circuit (V)
PSTATMODEL	IQUANT	4	Pstat Model
PSTATSECTION	LABEL	REF600-11020	Pstat Section
PSTATSERIALNO	LABEL	11020	Pstat Serial Number
CTRLMODE	IQUANT	1	Control Mode
IESTAB	IQUANT	0	I/E Stability
CASPEED	IQUANT	1	Control Amp Speed
CONVENTION	IQUANT	1	Current Convention
ICHRANGE	IQUANT	2	Ich Range
ICHRANGEMODE	TOGGLE	F	Ich Auto Range
ICHOFFSETENABLE	TOGGLE	T	Ich Offset Enable
ICHOFFSET	QUANT	0	Ich Offset (V)
ICHFILTER	IQUANT	3	Ich Filter
VCHRANGE	IQUANT	2	Vch Range
VCHRANGEMODE	TOGGLE	F	Vch Auto Range
VCHOFFSETENABLE	TOGGLE	T	Vch Offset Enable
VCHOFFSET	QUANT	0	Vch Offset (V)
VCHFILTER	IQUANT	3	Vch Filter
ACHRANGE	IQUANT	2	Ach Range
ACHOFFSETENABLE	TOGGLE	F	Ach Offset Enable
ACHOFFSET	QUANT	0	Ach Offset (V)
ACHFILTER	IQUANT	3	Ach Filter
IERANGELOWERLIMIT	IQUANT	1	I/E Range Lower Limit
IERANGEMODE	TOGGLE	F	I/E AutoRange
IERANGE	IQUANT	6	I/E Range
POSFEEDENABLE	TOGGLE	F	Positive Feedback IR Comp
POSFEEDRESISTANCE	QUANT	0	Positive Feedback Resistance (ohm)
ACHSELECT	IQUANT	0	Ach Select
CABLEID	IQUANT	14	Cable ID
DCCALDATE	LABEL	8/19/2019	DC Calibration Date
ACCALDATE	LABEL	8/19/2019	AC Calibration Date
THERMOSELECT	IQUANT	1	Thermo Select
FRAMEWORKVERSION	QUANT	6.33	Framework Version
INSTRUMENTVERSION	LABEL	3.50	Instrument Version
ZCURVE	TABLE
	Pt	Time	Freq	Zreal	Zimag	Zsig	Zmod	Zphz	Idc	Vdc	IERange
	#	s	Hz	ohm	ohm	V	ohm	°	A	V	#
	0	1	1000078	2454.455	-1191.566	1	2728.402	-25.89522	-9.44183E-007	0.0090837	8
	1	3	794390.6	2652.87	-1083.499	1	2865.605	-22.21634	5.394953E-006	0.0071831	8
	2	4	630984.4	2816.531	-956.016	1	2974.359	-18.74876	-2.513581E-006	0.0084224	8
	3	6	501234.4	2941.204	-833.2216	1	3056.949	-15.81704	2.748737E-007	0.0080356	8
	4	7	398109.4	3037.236	-713.4527	1	3119.906	-13.21923	1.585845E-006	0.0073646	8
	5	8	316265.6	3104.505	-596.3657	1	3161.266	-10.87388	2.969679E-006	0.007242	8
	6	10	251203.1	3153.403	-535.3086	1	3198.516	-9.63445	2.553621E-006	0.0072775	8
	7	11	199546.9	3209.088	-463.1958	1	3242.344	-8.213279	-4.665431E-007	0.0078597	8
	8	12	158578.1	3236.164	-396.9425	1	3260.417	-6.992876	-2.139693E-006	0.0082668	8
	9	14	125953.1	3277.993	-348.2304	1	3296.438	-6.063949	-5.405643E-007	0.0082615	7
	10	15	100078.1	3300.984	-318.39	1	3316.303	-5.509312	-4.727129E-008	0.007838	7
	11	16	79453.13	3324.052	-311.9826	1	3338.66	-5.361852	-1.732347E-008	0.0079442	7
	12	18	63140.62	3351.623	-314.386	1	3366.336	-5.358727	7.295504E-009	0.0077396	7
	13	19	50203.12	3378.358	-323.01	1	3393.764	-5.461536	-7.637369E-008	0.0079301	7
	14	21	39890.62	3407.236	-340.3174	1	3424.189	-5.70383	-1.485353E-009	0.0078053	7
	15	22	31640.63	3439.458	-364.328	1	3458.7	-6.046565	1.365678E-007	0.0075959	7
	16	23	25171.88	3474.068	-396.5192	1	3496.623	-6.511384	5.060841E-009	0.0077422	7
	17	25	20015.62	3514.228	-437.0471	1	3541.3	-7.089193	8.643912E-008	0.0077426	7
	18	26	15890.62	3556.329	-488.0299	1	3589.658	-7.813812	-4.102667E-008	0.007884	7
	19	27	12609.37	3604.436	-548.3799	1	3645.913	-8.650659	3.572124E-008	0.0077604	7
	20	29	10078.13	3657.1	-618.6804	1	3709.063	-9.60195	-7.89334E-008	0.0079275	7
	21	30	8015.625	3715.702	-700.5099	1	3781.158	-10.67649	-5.983548E-008	0.00797	7
	22	31	6328.125	3786.838	-805.8809	1	3871.638	-12.01395	-7.901625E-008	0.007922	7
	23	33	5015.625	3863.914	-924.4323	1	3972.959	-13.45497	-3.954679E-008	0.0078791	7
	24	34	3984.375	3950.898	-1062.6	1	4091.297	-15.05357	-3.142695E-008	0.0078069	7
	25	36	3170.956	4041.26	-1225.245	1	4222.915	-16.86646	7.670582E-009	0.0077279	7
	26	37	2527.573	4143.299	-1417.037	1	4378.918	-18.88105	-3.923583E-008	0.0078713	7
	27	38	1976.103	4262.969	-1665.112	1	4576.626	-21.33558	3.683706E-008	0.0077511	7
	28	40	1577.524	4387.007	-1937.144	1	4795.66	-23.82453	-7.721913E-008	0.0079201	7
	29	41	1265.625	4514.565	-2255.202	1	5046.508	-26.54393	-3.597602E-008	0.0078117	7
	30	42	998.264	4664.699	-2674.361	1	5376.953	-29.82648	-1.595957E-008	0.0077604	7
	31	44	796.875	4821.965	-3159.019	1	5764.612	-33.23005	-3.957181E-008	0.0078814	7
	32	45	627.7902	5001.217	-3786.331	1	6272.836	-37.1287	6.706738E-008	0.0076889	7
	33	46	505.5147	5177.81	-4491.013	1	6854.116	-40.93699	-1.725473E-008	0.0078399	7
	34	48	397.9953	5407.879	-5438.316	1	7669.448	-45.16078	4.293346E-009	0.0078114	7
	35	49	315.5048	5658.484	-6590.979	1	8686.74	-49.35327	5.146271E-009	0.0078188	7
	36	51	252.4038	5941.8	-7959.354	1	9932.59	-53.258	5.573735E-009	0.0078144	7
	37	52	198.6229	6314.458	-9781.45	1	11642.56	-57.15556	7.648386E-010	0.0077549	6
	38	53	158.3615	6750.534	-11914.13	1	13693.66	-60.46416	9.444577E-010	0.0077529	6
	39	55	125.558	7316.819	-14604.7	1	16335.03	-63.38956	5.956837E-010	0.007751	6
	40	56	100.4464	8012.367	-17786.06	1	19507.49	-65.74911	7.553463E-010	0.007746	6
	41	57	79.00281	9017.951	-21946.28	1	23726.84	-67.66174	6.103374E-010	0.007739	6
	42	59	63.3446	10314.85	-26676.82	1	28601.55	-68.86052	8.067406E-010	0.0077435	6
	43	60	49.86702	11783.46	-32914.36	1	34960.05	-70.30245	4.344371E-011	0.00774	6
	44	62	39.72458	14028.95	-39996.3	1	42385.32	-70.67137	3.118366E-010	0.0077494	6
	45	63	31.6723	16823.92	-48539.53	1	51372.46	-70.88356	9.325615E-010	0.0077486	6
	46	65	24.93351	20748.36	-59268.55	1	62795.34	-70.70619	4.466964E-010	0.0077468	6
	47	66	19.86229	25685.35	-71467.55	1	75943.05	-70.23163	4.056174E-010	0.0077548	6
	48	67	15.83615	31758.93	-85770.09	1	91461.13	-69.68143	-9.18691E-010	0.0077435	6
	49	69	12.40079	41230.07	-103192.4	1	111124.2	-68.22104	9.546418E-010	0.0077463	5
	50	70	9.93114	51138.05	-121826.7	1	132124.4	-67.22926	4.394758E-010	0.007746	5
	51	72	7.944915	63853.94	-142512.9	1	156164.2	-65.86489	9.661312E-010	0.0077515	5
	52	73	6.317385	79961.52	-166612.3	1	184806.7	-64.36246	5.967345E-010	0.0077551	5
	53	75	5.008013	99175.7	-193844.2	1	217741.6	-62.90454	3.67681E-010	0.0077544	5
	54	78	3.945707	121964.6	-225019.1	1	255947.2	-61.54147	4.795439E-010	0.0077559	5
	55	80	3.158693	146449.5	-257024.9	1	295819.6	-60.32607	-8.227231E-011	0.0077454	5
	56	84	2.504006	174891.3	-294321.3	1	342362.4	-59.28041	4.557256E-010	0.007751	5
	57	86	1.998082	204993.5	-335463.9	1	393139.1	-58.57195	1.363716E-010	0.007784	5
	58	90	1.584686	233605	-388443.1	1	453276.3	-58.9778	2.199269E-009	0.0077178	5
	59	93	1.266892	273747.6	-439070.8	1	517417.5	-58.05769	-2.293885E-011	0.0077722	5
	60	98	0.999041	315717.5	-508741.8	1	598745.1	-58.17688	-2.565286E-010	0.007709	5
