EXPLAIN
TAG	EISPOT
TITLE	LABEL	Potentiostatic EIS	Test &Identifier
DATE	LABEL	11/15/2019	Date
TIME	LABEL	9:31:39	Time
NOTES	NOTES	4	&Notes...
	
	
	
	
PSTAT	PSTAT	REF600-11020	Potentiostat
VDC	POTEN	0.00000E+000	T	DC &Voltage (V)
FREQINIT	QUANT	1.00000E+006	Initial Fre&q. (Hz)
FREQFINAL	QUANT	1.00000E+000	Final Fre&q. (Hz)
PTSPERDEC	QUANT	1.00000E+001	Points/&decade
VAC	QUANT	2.50000E+001	AC &Voltage (mV rms)
AREA	QUANT	1.00000E-002	&Area (cm^2)
CONDIT	TWOPARAM	T	5.00000E+000	0.00000E+000	Conditionin&g	Time(s)	E(V)
DELAY	TWOPARAM	T	5.00000E+000	0.00000E+000	Init. De&lay	Time(s)	Stab.(mV/s)
SPEED	SELECTOR	0	&Optimize for:
ZGUESS	QUANT	1.00000E+005	E&stimated Z (ohms)
OCVCURVE	TABLE	19
	Pt	T	Vf	Vm	Ach	Over
	#	s	V vs. Ref.	V	V	bits
	0	0.258333	3.07202E-003	3.07202E-003	5.42899E-004	...........
	1	0.516667	3.06998E-003	2.96525E-003	5.46366E-004	...........
	2	0.775	3.05766E-003	2.87493E-003	5.46733E-004	...........
	3	1.03333	3.02373E-003	2.79953E-003	5.55266E-004	...........
	4	1.29167	2.96529E-003	2.72748E-003	5.47733E-004	...........
	5	1.55	2.89146E-003	2.66980E-003	5.49066E-004	...........
	6	1.80833	2.81453E-003	2.60867E-003	5.48966E-004	...........
	7	2.06667	2.74227E-003	2.56025E-003	5.46633E-004	...........
	8	2.325	2.67713E-003	2.51120E-003	5.51299E-004	...........
	9	2.58333	2.61862E-003	2.46056E-003	5.48766E-004	...........
	10	2.84167	2.56493E-003	2.40778E-003	5.50799E-004	...........
	11	3.1	2.51418E-003	2.38275E-003	5.50633E-004	...........
	12	3.35833	2.46528E-003	2.29029E-003	5.50066E-004	...........
	13	3.61667	2.41612E-003	2.24670E-003	5.46466E-004	...........
	14	3.875	2.36361E-003	2.18513E-003	5.42166E-004	...........
	15	4.13333	2.30789E-003	2.16229E-003	5.53399E-004	...........
	16	4.39167	2.25386E-003	2.14420E-003	5.53233E-004	...........
	17	4.65	2.20754E-003	2.11585E-003	5.51499E-004	...........
	18	4.90833	2.17098E-003	2.07670E-003	5.49599E-004	...........
EOC	QUANT	0.002171	Open Circuit (V)
PSTATMODEL	IQUANT	4	Pstat Model
PSTATSECTION	LABEL	REF600-11020	Pstat Section
PSTATSERIALNO	LABEL	11020	Pstat Serial Number
CTRLMODE	IQUANT	1	Control Mode
IESTAB	IQUANT	0	I/E Stability
CASPEED	IQUANT	1	Control Amp Speed
CONVENTION	IQUANT	1	Current Convention
ICHRANGE	IQUANT	2	Ich Range
ICHRANGEMODE	TOGGLE	F	Ich Auto Range
ICHOFFSETENABLE	TOGGLE	T	Ich Offset Enable
ICHOFFSET	QUANT	0	Ich Offset (V)
ICHFILTER	IQUANT	3	Ich Filter
VCHRANGE	IQUANT	2	Vch Range
VCHRANGEMODE	TOGGLE	F	Vch Auto Range
VCHOFFSETENABLE	TOGGLE	T	Vch Offset Enable
VCHOFFSET	QUANT	0	Vch Offset (V)
VCHFILTER	IQUANT	3	Vch Filter
ACHRANGE	IQUANT	2	Ach Range
ACHOFFSETENABLE	TOGGLE	F	Ach Offset Enable
ACHOFFSET	QUANT	0	Ach Offset (V)
ACHFILTER	IQUANT	3	Ach Filter
IERANGELOWERLIMIT	IQUANT	1	I/E Range Lower Limit
IERANGEMODE	TOGGLE	F	I/E AutoRange
IERANGE	IQUANT	4	I/E Range
POSFEEDENABLE	TOGGLE	F	Positive Feedback IR Comp
POSFEEDRESISTANCE	QUANT	0	Positive Feedback Resistance (ohm)
ACHSELECT	IQUANT	0	Ach Select
CABLEID	IQUANT	14	Cable ID
DCCALDATE	LABEL	8/19/2019	DC Calibration Date
ACCALDATE	LABEL	8/19/2019	AC Calibration Date
THERMOSELECT	IQUANT	1	Thermo Select
FRAMEWORKVERSION	QUANT	6.33	Framework Version
INSTRUMENTVERSION	LABEL	3.50	Instrument Version
ZCURVE	TABLE
	Pt	Time	Freq	Zreal	Zimag	Zsig	Zmod	Zphz	Idc	Vdc	IERange
	#	s	Hz	ohm	ohm	V	ohm	°	A	V	#
	0	1	1000078	1628.53	-570.4541	1	1725.552	-19.30473	-7.576175E-006	0.005201	8
	1	1	794390.6	1713.713	-497.3779	1	1784.432	-16.18453	6.583346E-007	0.0039678	8
	2	2	630984.4	1774.152	-429.5001	1	1825.4	-13.60878	2.166906E-006	0.0043538	8
	3	2	501234.4	1820.758	-373.4592	1	1858.664	-11.59128	-4.008064E-007	0.0036264	8
	4	2	398109.4	1855.972	-321.0159	1	1883.529	-9.81301	-3.609349E-006	0.0044458	8
	5	3	316265.6	1885.361	-280.2988	1	1906.083	-8.456291	-4.196427E-006	0.0041785	8
	6	3	251203.1	1907.593	-249.6195	1	1923.856	-7.455123	-2.619003E-006	0.0043871	8
	7	3	199546.9	1925.46	-220.2153	1	1938.012	-6.524582	-2.664495E-006	0.004371	8
	8	4	158578.1	1946.821	-195.9926	1	1956.662	-5.748775	-2.445666E-007	0.0042564	8
	9	4	125953.1	1969.434	-170.0583	1	1976.762	-4.935183	-6.178059E-007	0.0043812	7
	10	4	100078.1	1984.608	-159.6441	1	1991.019	-4.599032	-2.405543E-007	0.0031077	7
	11	5	79453.13	1998.475	-162.3222	1	2005.056	-4.643544	-1.008793E-006	0.005003	7
	12	5	63140.62	2014.13	-169.2353	1	2021.227	-4.80294	9.480237E-008	0.0026889	7
	13	5	50203.12	2030.86	-178.7955	1	2038.715	-5.031308	7.804974E-007	0.0024386	7
	14	5	39890.62	2049.184	-191.1227	1	2058.077	-5.328433	8.210482E-007	0.0032006	7
	15	6	31640.63	2068.221	-205.2915	1	2078.385	-5.668608	-7.275096E-007	0.0051536	7
	16	6	25171.88	2088.243	-223.8995	1	2100.211	-6.119821	-5.919427E-007	0.0036587	7
	17	6	20015.62	2109	-247.5869	1	2123.483	-6.695616	-2.452642E-007	0.0030924	7
	18	7	15890.62	2130.217	-276.4283	1	2148.077	-7.39369	-2.273899E-007	0.0048754	7
	19	7	12609.37	2153.311	-313.7427	1	2176.048	-8.289801	8.222063E-007	0.0031953	7
	20	7	10078.13	2175.707	-356.9333	1	2204.791	-9.316607	-1.011255E-006	0.0049926	7
	21	8	8015.625	2200.143	-412.1797	1	2238.419	-10.61092	-5.91577E-007	0.0036513	7
	22	8	6328.125	2227.978	-482.3916	1	2279.603	-12.21684	-1.010715E-006	0.0049933	7
	23	8	5015.625	2257.44	-569.1703	1	2328.088	-14.15109	5.114812E-007	0.0039134	7
	24	9	3984.375	2287.985	-674.3785	1	2385.301	-16.42276	-7.285722E-007	0.0051463	7
	25	9	3170.956	2322.276	-804.1567	1	2457.567	-19.09992	-9.995919E-007	0.0046748	7
	26	9	2527.573	2360.267	-964.728	1	2549.816	-22.23165	8.906158E-007	0.0028486	7
	27	9	1976.103	2405.724	-1178.721	1	2678.972	-26.10325	-8.572818E-007	0.0042084	7
	28	10	1577.524	2455.609	-1424.858	1	2839.056	-30.12429	5.104235E-007	0.0039115	7
	29	10	1265.625	2512.152	-1722.518	1	3045.977	-34.43742	7.835872E-007	0.002427	7
	30	10	998.264	2586.964	-2115.599	1	3341.877	-39.27604	-5.905726E-007	0.003647	7
	31	11	796.875	2672.912	-2579.611	1	3714.68	-43.98236	8.795175E-007	0.0025936	7
	32	11	627.7902	2788.198	-3183.634	1	4231.97	-48.78841	8.969739E-007	0.0028471	7
	33	11	505.5147	2924.736	-3853.342	1	4837.595	-52.80104	-4.973873E-007	0.0050748	7
	34	12	397.9953	3109.788	-4765.561	1	5690.461	-56.87337	5.75894E-009	0.003796	7
	35	12	315.5048	3345.126	-5854.632	1	6742.892	-60.25791	4.910906E-009	0.0037996	7
	36	12	252.4038	3635.556	-7128.445	1	8002	-62.97811	6.910482E-010	0.0037977	7
	37	13	198.6229	4043.395	-8798.072	1	9682.72	-65.31756	4.57106E-009	0.0038002	7
	38	13	158.3615	4545.941	-10720.35	1	11644.38	-67.02073	1.312078E-009	0.0037404	6
	39	13	125.558	5210.406	-13099.44	1	14097.65	-68.30942	4.562639E-010	0.0037412	6
	40	14	100.4464	6030.075	-15857.23	1	16965.07	-69.17955	1.445593E-010	0.0037419	6
	41	14	79.00281	7191.616	-19436.1	1	20723.93	-69.69485	6.673924E-010	0.0037377	6
	42	14	63.3446	8410.185	-23249.75	1	24724.12	-70.11331	1.085467E-010	0.0037343	6
	43	15	49.86702	10361.29	-28230.82	1	30072.17	-69.84583	1.052168E-009	0.0037264	6
	44	15	39.72458	12651.61	-33973.75	1	36252.98	-69.57499	5.985907E-010	0.003735	6
	45	15	31.6723	15440.05	-40612.27	1	43448.27	-69.1841	7.776328E-010	0.0037337	6
	46	16	24.93351	19160.81	-48809.5	1	52435.71	-68.56686	7.195433E-010	0.0037331	6
	47	16	19.86229	23446.22	-57918.22	1	62483.96	-67.96111	2.839502E-009	0.0037344	6
	48	16	15.83615	28425.8	-68949.53	1	74579.24	-67.59513	9.245512E-010	0.0037348	6
	49	16	12.40079	35797.02	-81440.63	1	88960.68	-66.27224	-2.512345E-009	0.0037313	6
	50	17	9.93114	43351.81	-96125.5	1	105449	-65.72503	-6.816628E-010	0.0037375	5
	51	17	7.944915	52725.87	-112450.6	1	124198.1	-64.87905	-5.142174E-010	0.0037438	5
	52	18	6.317385	64210.7	-131794.3	1	146604.1	-64.02448	-2.083954E-010	0.0037459	5
	53	19	5.008013	78331.7	-154259.5	1	173008.3	-63.07892	4.919487E-010	0.0037423	5
	54	20	3.945707	95904.3	-180719.5	1	204590.3	-62.04598	-9.694364E-011	0.0037258	5
	55	21	3.158693	115063.2	-208096.9	1	237789.6	-61.06044	1.799088E-010	0.0037218	5
	56	23	2.504006	138414.9	-240708.6	1	277667.6	-60.09977	4.579099E-010	0.0037294	5
	57	24	1.998082	163977.5	-275591.9	1	320686	-59.2473	1.418334E-010	0.0037081	5
	58	25	1.584686	194749.5	-317235.6	1	372244.3	-58.45443	-2.364089E-011	0.003676	5
	59	27	1.266892	226887.3	-363126.3	1	428180.5	-58.00218	1.478744E-012	0.0036919	5
	60	30	0.999041	265076	-418451.3	1	495345.1	-57.647	-3.43906E-012	0.0037186	5
