EXPLAIN
TAG	EISPOT
TITLE	LABEL	Potentiostatic EIS	Test &Identifier
DATE	LABEL	11/3/2019	Date
TIME	LABEL	10:15:16	Time
NOTES	NOTES	1	&Notes...
	
PSTAT	PSTAT	REF600-11020	Potentiostat
VDC	POTEN	0.00000E+000	T	DC &Voltage (V)
FREQINIT	QUANT	1.00000E+006	Initial Fre&q. (Hz)
FREQFINAL	QUANT	1.00000E+000	Final Fre&q. (Hz)
PTSPERDEC	QUANT	1.00000E+001	Points/&decade
VAC	QUANT	2.50000E+001	AC &Voltage (mV rms)
AREA	QUANT	1.00000E-002	&Area (cm^2)
CONDIT	TWOPARAM	T	5.00000E+000	0.00000E+000	Conditionin&g	Time(s)	E(V)
DELAY	TWOPARAM	T	5.00000E+000	0.00000E+000	Init. De&lay	Time(s)	Stab.(mV/s)
SPEED	SELECTOR	1	&Optimize for:
ZGUESS	QUANT	1.00000E+005	E&stimated Z (ohms)
OCVCURVE	TABLE	19
	Pt	T	Vf	Vm	Ach	Over
	#	s	V vs. Ref.	V	V	bits
	0	0.258333	6.75153E-003	6.75153E-003	5.65066E-004	...........
	1	0.516667	6.75008E-003	6.67579E-003	5.69599E-004	...........
	2	0.775	6.74161E-003	6.62567E-003	5.67732E-004	...........
	3	1.03333	6.71931E-003	6.59251E-003	5.68266E-004	...........
	4	1.29167	6.68360E-003	6.57557E-003	5.62999E-004	...........
	5	1.55	6.64343E-003	6.55854E-003	5.67232E-004	...........
	6	1.80833	6.60833E-003	6.55721E-003	5.64366E-004	...........
	7	2.06667	6.58279E-003	6.55128E-003	5.65499E-004	...........
	8	2.325	6.56680E-003	6.55696E-003	5.61566E-004	...........
	9	2.58333	6.55840E-003	6.55566E-003	5.68132E-004	...........
	10	2.84167	6.55538E-003	6.56860E-003	5.66166E-004	...........
	11	3.1	6.55628E-003	6.57441E-003	5.63099E-004	...........
	12	3.35833	6.56048E-003	6.59304E-003	5.62866E-004	...........
	13	3.61667	6.56772E-003	6.59948E-003	5.62832E-004	...........
	14	3.875	6.57750E-003	6.61737E-003	5.61499E-004	...........
	15	4.13333	6.58908E-003	6.63186E-003	5.55799E-004	...........
	16	4.39167	6.60205E-003	6.65096E-003	5.58666E-004	...........
	17	4.65	6.61646E-003	6.66789E-003	5.63366E-004	...........
	18	4.90833	6.63229E-003	6.68575E-003	5.66032E-004	...........
EOC	QUANT	0.0066323	Open Circuit (V)
PSTATMODEL	IQUANT	4	Pstat Model
PSTATSECTION	LABEL	REF600-11020	Pstat Section
PSTATSERIALNO	LABEL	11020	Pstat Serial Number
CTRLMODE	IQUANT	1	Control Mode
IESTAB	IQUANT	0	I/E Stability
CASPEED	IQUANT	1	Control Amp Speed
CONVENTION	IQUANT	1	Current Convention
ICHRANGE	IQUANT	2	Ich Range
ICHRANGEMODE	TOGGLE	F	Ich Auto Range
ICHOFFSETENABLE	TOGGLE	T	Ich Offset Enable
ICHOFFSET	QUANT	0	Ich Offset (V)
ICHFILTER	IQUANT	3	Ich Filter
VCHRANGE	IQUANT	2	Vch Range
VCHRANGEMODE	TOGGLE	F	Vch Auto Range
VCHOFFSETENABLE	TOGGLE	T	Vch Offset Enable
VCHOFFSET	QUANT	0	Vch Offset (V)
VCHFILTER	IQUANT	3	Vch Filter
ACHRANGE	IQUANT	2	Ach Range
ACHOFFSETENABLE	TOGGLE	F	Ach Offset Enable
ACHOFFSET	QUANT	0	Ach Offset (V)
ACHFILTER	IQUANT	3	Ach Filter
IERANGELOWERLIMIT	IQUANT	1	I/E Range Lower Limit
IERANGEMODE	TOGGLE	F	I/E AutoRange
IERANGE	IQUANT	5	I/E Range
POSFEEDENABLE	TOGGLE	F	Positive Feedback IR Comp
POSFEEDRESISTANCE	QUANT	0	Positive Feedback Resistance (ohm)
ACHSELECT	IQUANT	0	Ach Select
CABLEID	IQUANT	14	Cable ID
DCCALDATE	LABEL	8/19/2019	DC Calibration Date
ACCALDATE	LABEL	8/19/2019	AC Calibration Date
THERMOSELECT	IQUANT	1	Thermo Select
FRAMEWORKVERSION	QUANT	6.33	Framework Version
INSTRUMENTVERSION	LABEL	3.50	Instrument Version
ZCURVE	TABLE
	Pt	Time	Freq	Zreal	Zimag	Zsig	Zmod	Zphz	Idc	Vdc	IERange
	#	s	Hz	ohm	ohm	V	ohm	°	A	V	#
	0	2	1000078	2020.243	-1263.102	1	2382.605	-32.01456	-2.015947E-006	0.0097247	8
	1	3	794390.6	2270.16	-1200.517	1	2568.047	-27.87099	-3.749524E-007	0.0091898	8
	2	4	630984.4	2483.547	-1082.211	1	2709.094	-23.54527	-1.493662E-006	0.008961	8
	3	6	501234.4	2655.18	-970.45	1	2826.969	-20.07702	-3.758799E-006	0.0090153	8
	4	7	398109.4	2790.223	-848.5347	1	2916.395	-16.91504	-2.289316E-006	0.0082632	8
	5	8	316265.6	2893.475	-733.3309	1	2984.958	-14.22176	-1.243946E-006	0.0087273	8
	6	10	251203.1	2971.573	-635.3691	1	3038.74	-12.06901	-2.465544E-006	0.0082276	8
	7	11	199546.9	3032.371	-551.517	1	3082.117	-10.30808	5.93046E-006	0.0071997	8
	8	12	158578.1	3086.247	-481.916	1	3123.646	-8.875039	5.606593E-006	0.007621	8
	9	14	125953.1	3126.384	-383.8464	1	3149.86	-6.999543	-2.240072E-006	0.009047	7
	10	15	100078.1	3152.763	-347.7432	1	3171.883	-6.294162	1.050979E-007	0.0069773	7
	11	17	79453.13	3181.16	-328.5795	1	3198.085	-5.897123	7.953186E-007	0.008044	7
	12	18	63140.62	3207.557	-320.6385	1	3223.543	-5.708521	9.694454E-007	0.0075689	7
	13	19	50203.12	3231.832	-315.7096	1	3247.216	-5.579379	-8.514371E-007	0.0098678	7
	14	21	39890.62	3259.827	-322.1577	1	3275.707	-5.644022	3.820513E-007	0.0087504	7
	15	22	31640.63	3286.052	-335.4525	1	3303.13	-5.828775	-8.50662E-007	0.0098691	7
	16	23	25171.88	3315.673	-356.9934	1	3334.836	-6.145274	7.48438E-008	0.0091608	7
	17	25	20015.62	3349.539	-389.6675	1	3372.129	-6.635658	-2.966803E-007	0.0074574	7
	18	26	15890.62	3378.51	-426.7367	1	3405.354	-7.198859	-1.173856E-006	0.0096556	7
	19	27	12609.37	3412.387	-478.7314	1	3445.804	-7.986032	-1.167061E-006	0.0093144	7
	20	29	10078.13	3457.711	-539.2842	1	3499.513	-8.864757	1.033257E-006	0.006865	7
	21	30	8015.625	3493.649	-617.7042	1	3547.836	-10.02671	9.717004E-007	0.0075696	7
	22	32	6328.125	3534.005	-714.627	1	3605.535	-11.43188	-7.020058E-007	0.0081156	7
	23	33	5015.625	3578.807	-834.607	1	3674.837	-13.12722	-5.854228E-007	0.009783	7
	24	34	3984.375	3627.287	-984.261	1	3758.454	-15.18159	-6.989054E-007	0.0081219	7
	25	36	3170.956	3675.592	-1165.191	1	3855.859	-17.58901	-1.167447E-006	0.0093125	7
	26	37	2527.573	3734.821	-1393.342	1	3986.263	-20.45893	7.378295E-007	0.0065758	7
	27	38	1976.103	3802.805	-1700.282	1	4165.607	-24.09002	7.379186E-007	0.006576	7
	28	40	1577.524	3864.671	-2029.642	1	4365.218	-27.70749	9.326326E-007	0.0066549	7
	29	41	1265.625	3950.922	-2463.319	1	4655.934	-31.94269	7.59408E-008	0.0091703	7
	30	42	998.264	4054.051	-3021.004	1	5055.867	-36.6928	3.842721E-007	0.0087488	7
	31	44	796.875	4169.825	-3676.406	1	5559.083	-41.40163	7.692376E-008	0.0091659	7
	32	45	627.7902	4323.44	-4534.859	1	6265.547	-46.36721	-6.984797E-007	0.0081142	7
	33	47	505.5147	4502.953	-5489.239	1	7099.882	-50.63716	-1.166575E-006	0.0093045	7
	34	48	397.9953	4729.518	-6804.878	1	8287.021	-55.19997	6.284044E-009	0.0082847	7
	35	49	315.5048	5019.598	-8370.346	1	9760.07	-59.04938	3.549168E-009	0.008289	7
	36	51	252.4038	5377.927	-10215.72	1	11544.83	-62.23604	2.565516E-010	0.0082297	6
	37	52	198.6229	5864.776	-12651.01	1	13944.31	-65.12843	4.468668E-010	0.0082267	6
	38	54	158.3615	6461.682	-15474.53	1	16769.45	-67.3361	1.288669E-009	0.0082159	6
	39	55	125.558	7248.253	-19015.34	1	20349.95	-69.13419	1.801723E-010	0.0082267	6
	40	56	100.4464	8246.584	-23164.21	1	24588.35	-70.404	8.868177E-010	0.0082271	6
	41	58	79.00281	9540.11	-28571.19	1	30121.86	-71.53548	5.04307E-010	0.0082274	6
	42	59	63.3446	11308.24	-34300.4	1	36116.39	-71.75352	-1.930675E-010	0.008227	6
	43	60	49.86702	13705.52	-42729.72	1	44873.94	-72.21641	9.89266E-010	0.0082117	6
	44	62	39.72458	16428.75	-51635.78	1	54186.32	-72.35069	4.968194E-010	0.0082244	6
	45	63	31.6723	20159.17	-62313.96	1	65493.68	-72.0731	8.115519E-012	0.0082277	6
	46	65	24.93351	25215.54	-76032.39	1	80104.6	-71.65231	2.704353E-010	0.0082313	6
	47	66	19.86229	31288.65	-91298.4	1	96511	-71.08303	2.66235E-011	0.0082195	6
	48	68	15.83615	39118.05	-108933.7	1	115744.5	-70.24681	7.015322E-010	0.008219	5
	49	69	12.40079	49629.41	-132868.8	1	141835.1	-69.51823	1.029222E-009	0.008219	5
	50	70	9.93114	62673.73	-156274.9	1	168374.1	-68.14685	2.931363E-011	0.0082281	5
	51	72	7.944915	78797.23	-183657.7	1	199847.8	-66.77854	5.816106E-010	0.0082325	5
	52	74	6.317385	98241.8	-215827.7	1	237135.1	-65.52563	-2.837225E-010	0.008219	5
	53	76	5.008013	122684.4	-252871.2	1	281061	-64.11893	-2.385685E-010	0.0082171	5
	54	78	3.945707	153463.2	-294795.8	1	332348.5	-62.49966	1.914274E-010	0.0082273	5
	55	81	3.158693	187240.6	-338407.1	1	386753.6	-61.04425	-9.219766E-011	0.0082054	5
	56	84	2.504006	227479.5	-388206.8	1	449946.1	-59.63077	1.85673E-010	0.0082335	5
	57	87	1.998082	271452.5	-440948.7	1	517805.2	-58.38313	3.43663E-010	0.0082162	5
	58	90	1.584686	323607.1	-501899.7	1	597180.8	-57.18752	-3.056177E-011	0.0081778	5
	59	94	1.266892	375481.8	-565619.7	1	678905.2	-56.42214	2.057384E-010	0.0082022	5
	60	98	0.999041	436492	-645990.1	1	779633.5	-55.95332	-1.675941E-010	0.0082315	5
