EXPLAIN
TAG	EISPOT
TITLE	LABEL	Potentiostatic EIS	Test &Identifier
DATE	LABEL	6/20/2000	Date
TIME	LABEL	9:06:09	Time
NOTES	NOTES	2	&Notes...
	
	
PSTAT	PSTAT	REF600-11020	Potentiostat
VDC	POTEN	0.00000E+000	T	DC &Voltage (V)
FREQINIT	QUANT	1.00000E+006	Initial Fre&q. (Hz)
FREQFINAL	QUANT	1.00000E+000	Final Fre&q. (Hz)
PTSPERDEC	QUANT	1.00000E+001	Points/&decade
VAC	QUANT	2.50000E+001	AC &Voltage (mV rms)
AREA	QUANT	1.00000E-002	&Area (cm^2)
CONDIT	TWOPARAM	T	5.00000E+000	0.00000E+000	Conditionin&g	Time(s)	E(V)
DELAY	TWOPARAM	T	5.00000E+000	0.00000E+000	Init. De&lay	Time(s)	Stab.(mV/s)
SPEED	SELECTOR	0	&Optimize for:
ZGUESS	QUANT	1.00000E+005	E&stimated Z (ohms)
OCVCURVE	TABLE	19
	Pt	T	Vf	Vm	Ach	Over
	#	s	V vs. Ref.	V	V	bits
	0	0.258333	3.98042E-003	3.98042E-003	5.39999E-004	...........
	1	0.516667	3.97840E-003	3.87486E-003	5.43866E-004	...........
	2	0.775	3.96639E-003	3.79404E-003	5.45099E-004	...........
	3	1.03333	3.93365E-003	3.71815E-003	5.39399E-004	...........
	4	1.29167	3.87790E-003	3.66196E-003	5.34200E-004	...........
	5	1.55	3.80859E-003	3.61217E-003	5.44299E-004	...........
	6	1.80833	3.73846E-003	3.57113E-003	5.38099E-004	...........
	7	2.06667	3.67561E-003	3.53149E-003	5.41133E-004	...........
	8	2.325	3.62225E-003	3.50227E-003	5.43533E-004	...........
	9	2.58333	3.57724E-003	3.46652E-003	5.39833E-004	...........
	10	2.84167	3.53843E-003	3.44006E-003	5.38366E-004	...........
	11	3.1	3.50397E-003	3.41899E-003	5.39533E-004	...........
	12	3.35833	3.47308E-003	3.39676E-003	5.35666E-004	...........
	13	3.61667	3.44565E-003	3.37626E-003	5.40466E-004	...........
	14	3.875	3.42142E-003	3.36411E-003	5.36299E-004	...........
	15	4.13333	3.40004E-003	3.34820E-003	5.42033E-004	...........
	16	4.39167	3.38130E-003	3.33286E-003	5.41166E-004	...........
	17	4.65	3.36468E-003	3.32015E-003	5.46533E-004	...........
	18	4.90833	3.34941E-003	3.30697E-003	5.43433E-004	...........
EOC	QUANT	0.0033494	Open Circuit (V)
PSTATMODEL	IQUANT	4	Pstat Model
PSTATSECTION	LABEL	REF600-11020	Pstat Section
PSTATSERIALNO	LABEL	11020	Pstat Serial Number
CTRLMODE	IQUANT	1	Control Mode
IESTAB	IQUANT	0	I/E Stability
CASPEED	IQUANT	1	Control Amp Speed
CONVENTION	IQUANT	1	Current Convention
ICHRANGE	IQUANT	2	Ich Range
ICHRANGEMODE	TOGGLE	F	Ich Auto Range
ICHOFFSETENABLE	TOGGLE	T	Ich Offset Enable
ICHOFFSET	QUANT	0	Ich Offset (V)
ICHFILTER	IQUANT	3	Ich Filter
VCHRANGE	IQUANT	2	Vch Range
VCHRANGEMODE	TOGGLE	F	Vch Auto Range
VCHOFFSETENABLE	TOGGLE	T	Vch Offset Enable
VCHOFFSET	QUANT	0	Vch Offset (V)
VCHFILTER	IQUANT	3	Vch Filter
ACHRANGE	IQUANT	2	Ach Range
ACHOFFSETENABLE	TOGGLE	F	Ach Offset Enable
ACHOFFSET	QUANT	0	Ach Offset (V)
ACHFILTER	IQUANT	3	Ach Filter
IERANGELOWERLIMIT	IQUANT	1	I/E Range Lower Limit
IERANGEMODE	TOGGLE	F	I/E AutoRange
IERANGE	IQUANT	4	I/E Range
POSFEEDENABLE	TOGGLE	F	Positive Feedback IR Comp
POSFEEDRESISTANCE	QUANT	0	Positive Feedback Resistance (ohm)
ACHSELECT	IQUANT	0	Ach Select
CABLEID	IQUANT	14	Cable ID
DCCALDATE	LABEL	8/19/2019	DC Calibration Date
ACCALDATE	LABEL	8/19/2019	AC Calibration Date
THERMOSELECT	IQUANT	1	Thermo Select
FRAMEWORKVERSION	QUANT	6.33	Framework Version
INSTRUMENTVERSION	LABEL	3.50	Instrument Version
ZCURVE	TABLE
	Pt	Time	Freq	Zreal	Zimag	Zsig	Zmod	Zphz	Idc	Vdc	IERange
	#	s	Hz	ohm	ohm	V	ohm	°	A	V	#
	0	1	1000078	1634.918	-621.2347	1	1748.968	-20.80575	-1.73796E-008	0.0054243	8
	1	2	794390.6	1728.81	-550.9672	1	1814.483	-17.67694	-3.530511E-006	0.0050947	8
	2	2	630984.4	1806.835	-478.6605	1	1869.163	-14.83776	-6.592595E-006	0.0061183	8
	3	2	501234.4	1855.702	-418.5466	1	1902.317	-12.71017	-5.934503E-006	0.005947	8
	4	3	398109.4	1901.373	-361.4185	1	1935.418	-10.76255	2.698318E-006	0.0051811	8
	5	3	316265.6	1933.354	-316.8837	1	1959.152	-9.308218	6.177384E-006	0.0036508	8
	6	3	251203.1	1961.883	-279.1804	1	1981.647	-8.098944	-5.47984E-007	0.0045827	8
	7	4	199546.9	1985.852	-255.8977	1	2002.272	-7.342694	-8.064009E-007	0.0053024	8
	8	4	158578.1	2013.062	-232.3011	1	2026.421	-6.58264	-1.352835E-006	0.0052753	8
	9	4	125953.1	2033.469	-191.2074	1	2042.439	-5.371735	-1.579364E-006	0.0046321	7
	10	5	100078.1	2048.299	-184.2219	1	2056.567	-5.139296	-2.290058E-007	0.0059867	7
	11	5	79453.13	2064.622	-188.2962	1	2073.191	-5.211032	4.012394E-007	0.0033777	7
	12	5	63140.62	2081.669	-197.8452	1	2091.05	-5.429174	8.043013E-008	0.0036361	7
	13	6	50203.12	2101.162	-210.2533	1	2111.656	-5.714294	-1.087757E-006	0.0061277	7
	14	6	39890.62	2122.5	-227.5535	1	2134.663	-6.119316	7.459224E-007	0.0045677	7
	15	6	31640.63	2146.245	-247.6669	1	2160.488	-6.582556	7.455458E-007	0.0045678	7
	16	7	25171.88	2171.917	-272.093	1	2188.894	-7.140688	8.980682E-007	0.0041354	7
	17	7	20015.62	2198.548	-301.9925	1	2219.191	-7.821203	-2.302872E-007	0.0059804	7
	18	7	15890.62	2230.13	-337.4793	1	2255.52	-8.605121	-7.76596E-007	0.0062937	7
	19	8	12609.37	2265.413	-380.7708	1	2297.19	-9.5411	9.531816E-008	0.005611	7
	20	8	10078.13	2305.235	-431.3917	1	2345.252	-10.59949	-2.895061E-007	0.0040828	7
	21	8	8015.625	2343.148	-488.8802	1	2393.606	-11.78526	-2.898092E-007	0.0040869	7
	22	8	6328.125	2388.516	-559.9901	1	2453.283	-13.19474	-1.090229E-006	0.005806	7
	23	9	5015.625	2438.87	-643.7247	1	2522.393	-14.78567	-9.418855E-007	0.0053002	7
	24	9	3984.375	2495.713	-743.3979	1	2604.078	-16.58722	7.992093E-008	0.0036296	7
	25	9	3170.956	2554.435	-859.5698	1	2695.181	-18.59813	-6.606643E-007	0.0046951	7
	26	10	2527.573	2618.562	-998.708	1	2802.549	-20.87664	7.47801E-007	0.0045599	7
	27	10	1976.103	2693.921	-1180.101	1	2941.063	-23.65634	-5.271179E-007	0.0061945	7
	28	10	1577.524	2767.976	-1380.517	1	3093.14	-26.50755	-9.400867E-007	0.0052939	7
	29	11	1265.625	2844.452	-1624.265	1	3275.537	-29.72762	9.703743E-008	0.0056012	7
	30	11	998.264	2933.867	-1943.161	1	3519.012	-33.51733	-9.587286E-007	0.0062492	7
	31	11	796.875	3023.064	-2323.816	1	3813.009	-37.54932	9.428308E-007	0.0034971	7
	32	12	627.7902	3131.814	-2817.412	1	4212.608	-41.97487	3.814609E-007	0.0051969	7
	33	12	505.5147	3242.289	-3374.85	1	4679.962	-46.14765	-2.303978E-007	0.0059653	7
	34	12	397.9953	3386.738	-4142.527	1	5350.75	-50.73216	2.755035E-009	0.0048193	7
	35	13	315.5048	3557.514	-5068.082	1	6192.04	-54.93326	2.427744E-009	0.0048256	7
	36	13	252.4038	3760.121	-6165.522	1	7221.646	-58.62255	1.699797E-009	0.0048167	7
	37	13	198.6229	4035.318	-7621.61	1	8623.962	-62.10069	2.001002E-009	0.0048194	7
	38	14	158.3615	4367.253	-9320.828	1	10293.24	-64.89466	4.426528E-009	0.0048128	7
	39	14	125.558	4808.505	-11457.69	1	12425.8	-67.23343	-4.123468E-011	0.0047537	6
	40	14	100.4464	5346.385	-13953.26	1	14942.46	-69.03497	4.986282E-010	0.0047469	6
	41	15	79.00281	6119.64	-17235.68	1	18289.85	-70.45226	-1.887093E-010	0.0047451	6
	42	15	63.3446	7003.286	-21075.35	1	22208.47	-71.61848	4.89859E-010	0.0047493	6
	43	15	49.86702	8244.979	-25884.4	1	27165.82	-72.33173	3.85282E-010	0.0047498	6
	44	16	39.72458	9889.09	-31392.04	1	32912.83	-72.51458	1.36422E-010	0.0047536	6
	45	16	31.6723	11911.96	-37997	1	39820.43	-72.59394	5.85421E-010	0.004751	6
	46	16	24.93351	14589.84	-46532.87	1	48766.5	-72.5918	-2.836523E-011	0.0047476	6
	47	17	19.86229	17913.21	-56296.96	1	59078.17	-72.34937	-1.428232E-009	0.0047524	6
	48	17	15.83615	22334.4	-67520.35	1	71118.38	-71.6968	1.289598E-009	0.0047487	6
	49	17	12.40079	28511.52	-82198.25	1	87002.64	-70.87024	2.347231E-009	0.0047447	6
	50	18	9.93114	34754.3	-97966.1	1	103948.1	-70.46742	1.347669E-009	0.0047461	6
	51	18	7.944915	42997.97	-116430.5	1	124116.4	-69.73072	4.272321E-011	0.0047582	5
	52	19	6.317385	53512.71	-138419	1	148402.9	-68.86353	6.141437E-011	0.0047577	5
	53	19	5.008013	66612.55	-164485.3	1	177461.7	-67.95325	3.26287E-010	0.0047611	5
	54	21	3.945707	83248.73	-195159.4	1	212173.4	-66.89846	4.401717E-012	0.0047438	5
	55	22	3.158693	102116.1	-228748.5	1	250506.6	-65.94344	1.905764E-010	0.0047503	5
	56	24	2.504006	125293.4	-268664.8	1	296444.3	-64.99774	2.454238E-010	0.0047508	5
	57	25	1.998082	152142	-312892.9	1	347921.3	-64.06898	-7.524693E-011	0.0047044	5
	58	26	1.584686	183484.2	-365437	1	408914	-63.33899	-3.549727E-011	0.0047185	5
	59	28	1.266892	219879.8	-422126.3	1	475959.8	-62.48561	4.924915E-011	0.0047558	5
	60	31	0.999041	265396.6	-493469.1	1	560309.8	-61.72783	7.896663E-011	0.0047828	5
