EXPLAIN
TAG	EISPOT
TITLE	LABEL	Potentiostatic EIS	Test &Identifier
DATE	LABEL	11/15/2019	Date
TIME	LABEL	10:15:08	Time
NOTES	NOTES	4	&Notes...
	
	
	
	
PSTAT	PSTAT	REF600-11020	Potentiostat
VDC	POTEN	0.00000E+000	T	DC &Voltage (V)
FREQINIT	QUANT	1.00000E+006	Initial Fre&q. (Hz)
FREQFINAL	QUANT	1.00000E+000	Final Fre&q. (Hz)
PTSPERDEC	QUANT	1.00000E+001	Points/&decade
VAC	QUANT	2.50000E+001	AC &Voltage (mV rms)
AREA	QUANT	1.00000E-002	&Area (cm^2)
CONDIT	TWOPARAM	T	5.00000E+000	0.00000E+000	Conditionin&g	Time(s)	E(V)
DELAY	TWOPARAM	T	5.00000E+000	0.00000E+000	Init. De&lay	Time(s)	Stab.(mV/s)
SPEED	SELECTOR	0	&Optimize for:
ZGUESS	QUANT	1.00000E+005	E&stimated Z (ohms)
OCVCURVE	TABLE	19
	Pt	T	Vf	Vm	Ach	Over
	#	s	V vs. Ref.	V	V	bits
	0	0.258333	4.92635E-003	4.92635E-003	5.55066E-004	...........
	1	0.516667	4.92374E-003	4.78976E-003	5.56233E-004	...........
	2	0.775	4.90809E-003	4.67983E-003	5.57432E-004	...........
	3	1.03333	4.86526E-003	4.58473E-003	5.61699E-004	...........
	4	1.29167	4.79208E-003	4.50304E-003	5.59666E-004	...........
	5	1.55	4.70064E-003	4.43552E-003	5.57499E-004	...........
	6	1.80833	4.60709E-003	4.37298E-003	5.66599E-004	...........
	7	2.06667	4.52166E-003	4.32030E-003	5.64399E-004	...........
	8	2.325	4.44744E-003	4.26998E-003	5.60566E-004	...........
	9	2.58333	4.38346E-003	4.22971E-003	5.59766E-004	...........
	10	2.84167	4.32777E-003	4.19091E-003	5.62566E-004	...........
	11	3.1	4.27887E-003	4.16071E-003	5.58499E-004	...........
	12	3.35833	4.23583E-003	4.12769E-003	5.57466E-004	...........
	13	3.61667	4.19767E-003	4.09661E-003	5.58899E-004	...........
	14	3.875	4.16313E-003	4.07006E-003	5.52466E-004	...........
	15	4.13333	4.13114E-003	4.04443E-003	5.55166E-004	...........
	16	4.39167	4.10121E-003	4.01660E-003	5.50199E-004	...........
	17	4.65	4.07332E-003	4.01022E-003	5.53032E-004	...........
	18	4.90833	4.04816E-003	3.98841E-003	5.53499E-004	...........
EOC	QUANT	0.0040482	Open Circuit (V)
PSTATMODEL	IQUANT	4	Pstat Model
PSTATSECTION	LABEL	REF600-11020	Pstat Section
PSTATSERIALNO	LABEL	11020	Pstat Serial Number
CTRLMODE	IQUANT	1	Control Mode
IESTAB	IQUANT	0	I/E Stability
CASPEED	IQUANT	1	Control Amp Speed
CONVENTION	IQUANT	1	Current Convention
ICHRANGE	IQUANT	2	Ich Range
ICHRANGEMODE	TOGGLE	F	Ich Auto Range
ICHOFFSETENABLE	TOGGLE	T	Ich Offset Enable
ICHOFFSET	QUANT	0	Ich Offset (V)
ICHFILTER	IQUANT	3	Ich Filter
VCHRANGE	IQUANT	2	Vch Range
VCHRANGEMODE	TOGGLE	F	Vch Auto Range
VCHOFFSETENABLE	TOGGLE	T	Vch Offset Enable
VCHOFFSET	QUANT	0	Vch Offset (V)
VCHFILTER	IQUANT	3	Vch Filter
ACHRANGE	IQUANT	2	Ach Range
ACHOFFSETENABLE	TOGGLE	F	Ach Offset Enable
ACHOFFSET	QUANT	0	Ach Offset (V)
ACHFILTER	IQUANT	3	Ach Filter
IERANGELOWERLIMIT	IQUANT	1	I/E Range Lower Limit
IERANGEMODE	TOGGLE	F	I/E AutoRange
IERANGE	IQUANT	4	I/E Range
POSFEEDENABLE	TOGGLE	F	Positive Feedback IR Comp
POSFEEDRESISTANCE	QUANT	0	Positive Feedback Resistance (ohm)
ACHSELECT	IQUANT	0	Ach Select
CABLEID	IQUANT	14	Cable ID
DCCALDATE	LABEL	8/19/2019	DC Calibration Date
ACCALDATE	LABEL	8/19/2019	AC Calibration Date
THERMOSELECT	IQUANT	1	Thermo Select
FRAMEWORKVERSION	QUANT	6.33	Framework Version
INSTRUMENTVERSION	LABEL	3.50	Instrument Version
ZCURVE	TABLE
	Pt	Time	Freq	Zreal	Zimag	Zsig	Zmod	Zphz	Idc	Vdc	IERange
	#	s	Hz	ohm	ohm	V	ohm	°	A	V	#
	0	1	1000078	2135.362	-1428.184	1	2568.945	-33.7756	9.098959E-006	0.0049681	8
	1	2	794390.6	2410.243	-1365.059	1	2769.956	-29.52536	-3.694174E-006	0.0064819	8
	2	2	630984.4	2662.224	-1266.26	1	2948.025	-25.43764	-7.694974E-007	0.0061998	8
	3	2	501234.4	2874.586	-1155.237	1	3098.035	-21.89417	6.837582E-008	0.0052877	8
	4	2	398109.4	3044.408	-1020.269	1	3210.821	-18.52748	6.499465E-006	0.004391	8
	5	3	316265.6	3185.147	-906.7866	1	3311.71	-15.89124	-1.753341E-006	0.0059688	8
	6	3	251203.1	3295.517	-790.7683	1	3389.063	-13.49317	-8.766419E-008	0.0052476	8
	7	3	199546.9	3385.376	-681.429	1	3453.276	-11.38077	-6.860765E-007	0.0052665	8
	8	4	158578.1	3464.902	-598.0844	1	3516.142	-9.79345	7.030078E-006	0.0047644	8
	9	4	125953.1	3520.12	-486.025	1	3553.515	-7.861159	4.923958E-007	0.007828	7
	10	4	100078.1	3552.304	-430.2536	1	3578.265	-6.906002	-1.111491E-006	0.0071684	7
	11	5	79453.13	3588.656	-398.805	1	3610.748	-6.341224	3.925027E-007	0.0060447	7
	12	5	63140.62	3620.082	-371.5786	1	3639.102	-5.860526	-1.243981E-006	0.0069903	7
	13	5	50203.12	3651.385	-358.2497	1	3668.917	-5.603549	-2.956661E-007	0.0068802	7
	14	6	39890.62	3682.909	-352.5371	1	3699.743	-5.467834	4.946697E-007	0.0038186	7
	15	6	31640.63	3709.433	-354.9929	1	3726.38	-5.46656	-9.093685E-007	0.0072102	7
	16	6	25171.88	3743.341	-367.6382	1	3761.35	-5.609103	6.172255E-007	0.0057254	7
	17	7	20015.62	3774.983	-387.0625	1	3794.774	-5.854284	1.025397E-006	0.004788	7
	18	7	15890.62	3805.004	-417.6768	1	3827.859	-6.264301	-2.967178E-007	0.0068758	7
	19	7	12609.37	3839.094	-457.908	1	3866.306	-6.801821	-9.111921E-007	0.0072073	7
	20	8	10078.13	3878.038	-510.261	1	3911.463	-7.495754	1.026112E-006	0.0047911	7
	21	8	8015.625	3911.202	-575.5641	1	3953.324	-8.371441	-9.098716E-007	0.0072071	7
	22	8	6328.125	3952.721	-662.2222	1	4007.811	-9.51077	-7.347353E-007	0.0053395	7
	23	9	5015.625	3996.061	-766.5511	1	4068.919	-10.85895	-1.113876E-006	0.0071497	7
	24	9	3984.375	4046.447	-898.7392	1	4145.053	-12.52245	1.218893E-007	0.0041175	7
	25	9	3170.956	4100.285	-1059.677	1	4235.003	-14.49046	8.390651E-007	0.0052837	7
	26	9	2527.573	4155.486	-1255.641	1	4341.048	-16.81296	-1.23563E-006	0.0066064	7
	27	10	1976.103	4235.832	-1522.663	1	4501.197	-19.77209	9.942675E-007	0.0037935	7
	28	10	1577.524	4319.747	-1824.025	1	4689.059	-22.89203	1.025406E-006	0.0047851	7
	29	10	1265.625	4401.582	-2172.458	1	4908.513	-26.26924	1.222346E-007	0.0041149	7
	30	11	998.264	4514.889	-2634.258	1	5227.192	-30.26186	-2.973798E-007	0.0068705	7
	31	11	796.875	4641.902	-3174.919	1	5623.821	-34.37093	1.025792E-006	0.0047883	7
	32	11	627.7902	4792.912	-3875.037	1	6163.434	-38.9553	-3.04709E-007	0.0046363	7
	33	12	505.5147	4955.424	-4652.588	1	6797.265	-43.19469	-3.13539E-007	0.0046349	7
	34	12	397.9953	5159.121	-5711.737	1	7696.783	-47.91011	4.998295E-009	0.0055237	7
	35	12	315.5048	5397.786	-6986.574	1	8828.834	-52.31054	3.646216E-009	0.0055197	7
	36	13	252.4038	5677.589	-8494.783	1	10217.45	-56.24274	1.280898E-009	0.0054652	6
	37	13	198.6229	6045.651	-10494.34	1	12111.2	-60.05433	9.293071E-010	0.0054593	6
	38	13	158.3615	6480.888	-12844.71	1	14387.1	-63.22646	1.505869E-010	0.0054673	6
	39	14	125.558	7055.99	-15795.87	1	17300.19	-65.92976	5.880441E-010	0.0054566	6
	40	14	100.4464	7743.992	-19292.28	1	20788.49	-68.12929	1.091769E-009	0.0054601	6
	41	14	79.00281	8708.35	-23893.25	1	25430.74	-69.97476	-3.297922E-011	0.0054542	6
	42	15	63.3446	9791.6	-28889.82	1	30504.05	-71.27699	8.179926E-010	0.0054631	6
	43	15	49.86702	11618.23	-35736.39	1	37577.56	-71.99017	1.199839E-009	0.005456	6
	44	15	39.72458	13869.48	-43880.3	1	46020.03	-72.45954	7.138416E-010	0.0054558	6
	45	16	31.6723	16800.01	-53311.38	1	55895.82	-72.5088	-5.66736E-010	0.0054607	6
	46	16	24.93351	20979.73	-65443.35	1	68723.95	-72.22527	1.07905E-010	0.0054489	6
	47	16	19.86229	26321.15	-79269.07	1	83524.78	-71.63135	-1.383009E-009	0.0054635	6
	48	17	15.83615	32156.1	-95356.2	1	100632.1	-71.36481	1.245879E-009	0.0054492	6
	49	17	12.40079	43159.33	-115484.8	1	123286.1	-69.50813	2.689882E-010	0.0054639	5
	50	17	9.93114	54331.9	-135983.8	1	146436.2	-68.22099	3.591324E-010	0.0054583	5
	51	18	7.944915	68149.19	-160507	1	174375.5	-66.99456	-5.850685E-010	0.0054666	5
	52	18	6.317385	86058.37	-187711.6	1	206498.6	-65.37041	-2.013528E-010	0.0054626	5
	53	19	5.008013	107675.5	-218782.6	1	243843.9	-63.79555	2.000196E-010	0.0054727	5
	54	20	3.945707	133668.4	-253963.8	1	286992.7	-62.24089	2.147728E-011	0.0054527	5
	55	22	3.158693	161776.6	-290599	1	332595	-60.89529	-1.72156E-011	0.0054355	5
	56	23	2.504006	194939.8	-333152.4	1	385994.9	-59.66652	1.394918E-010	0.005443	5
	57	24	1.998082	229612.6	-379440.6	1	443505.5	-58.82042	1.161097E-010	0.0054525	5
	58	26	1.584686	271179.5	-433563.5	1	511386	-57.97539	-4.905552E-011	0.005405	5
	59	28	1.266892	314436.6	-495348.2	1	586719.9	-57.59348	-5.529934E-011	0.0054076	5
	60	31	0.999041	364632.4	-570492.1	1	677065.8	-57.41515	-3.767861E-011	0.0054256	5
