EXPLAIN
TAG	EISPOT
TITLE	LABEL	Potentiostatic EIS	Test &Identifier
DATE	LABEL	11/11/2019	Date
TIME	LABEL	12:00:59	Time
NOTES	NOTES	3	&Notes...
	
	
	
PSTAT	PSTAT	REF600-11020	Potentiostat
VDC	POTEN	0.00000E+000	T	DC &Voltage (V)
FREQINIT	QUANT	1.00000E+006	Initial Fre&q. (Hz)
FREQFINAL	QUANT	1.00000E+000	Final Fre&q. (Hz)
PTSPERDEC	QUANT	1.00000E+001	Points/&decade
VAC	QUANT	2.50000E+001	AC &Voltage (mV rms)
AREA	QUANT	1.00000E-002	&Area (cm^2)
CONDIT	TWOPARAM	T	5.00000E+000	0.00000E+000	Conditionin&g	Time(s)	E(V)
DELAY	TWOPARAM	T	5.00000E+000	0.00000E+000	Init. De&lay	Time(s)	Stab.(mV/s)
SPEED	SELECTOR	1	&Optimize for:
ZGUESS	QUANT	1.00000E+005	E&stimated Z (ohms)
OCVCURVE	TABLE	19
	Pt	T	Vf	Vm	Ach	Over
	#	s	V vs. Ref.	V	V	bits
	0	0.258333	6.07200E-003	6.07200E-003	5.95246E-004	...........
	1	0.516667	6.06907E-003	5.91846E-003	6.02179E-004	...........
	2	0.775	6.05278E-003	5.86316E-003	6.00145E-004	...........
	3	1.03333	6.01121E-003	5.74616E-003	5.99112E-004	...........
	4	1.29167	5.94330E-003	5.67009E-003	6.06379E-004	...........
	5	1.55	5.85753E-003	5.52682E-003	6.00845E-004	...........
	6	1.80833	5.76168E-003	5.45991E-003	5.96345E-004	...........
	7	2.06667	5.66232E-003	5.43937E-003	6.00612E-004	...........
	8	2.325	5.57032E-003	5.39752E-003	6.02079E-004	...........
	9	2.58333	5.49597E-003	5.34247E-003	6.03345E-004	...........
	10	2.84167	5.43901E-003	5.28696E-003	6.04945E-004	...........
	11	3.1	5.39072E-003	5.25145E-003	6.04412E-004	...........
	12	3.35833	5.34444E-003	5.21657E-003	5.97812E-004	...........
	13	3.61667	5.29516E-003	4.94603E-003	6.05745E-004	...........
	14	3.875	5.23048E-003	4.92510E-003	6.05012E-004	...........
	15	4.13333	5.14606E-003	5.11403E-003	6.04512E-004	...........
	16	4.39167	5.07099E-003	5.13272E-003	6.03612E-004	...........
	17	4.65	5.03923E-003	4.95724E-003	6.01812E-004	...........
	18	4.90833	5.03895E-003	4.92209E-003	6.03379E-004	...........
EOC	QUANT	0.005039	Open Circuit (V)
PSTATMODEL	IQUANT	4	Pstat Model
PSTATSECTION	LABEL	REF600-11020	Pstat Section
PSTATSERIALNO	LABEL	11020	Pstat Serial Number
CTRLMODE	IQUANT	1	Control Mode
IESTAB	IQUANT	0	I/E Stability
CASPEED	IQUANT	1	Control Amp Speed
CONVENTION	IQUANT	1	Current Convention
ICHRANGE	IQUANT	2	Ich Range
ICHRANGEMODE	TOGGLE	F	Ich Auto Range
ICHOFFSETENABLE	TOGGLE	T	Ich Offset Enable
ICHOFFSET	QUANT	0	Ich Offset (V)
ICHFILTER	IQUANT	3	Ich Filter
VCHRANGE	IQUANT	2	Vch Range
VCHRANGEMODE	TOGGLE	F	Vch Auto Range
VCHOFFSETENABLE	TOGGLE	T	Vch Offset Enable
VCHOFFSET	QUANT	0	Vch Offset (V)
VCHFILTER	IQUANT	3	Vch Filter
ACHRANGE	IQUANT	2	Ach Range
ACHOFFSETENABLE	TOGGLE	F	Ach Offset Enable
ACHOFFSET	QUANT	0	Ach Offset (V)
ACHFILTER	IQUANT	1	Ach Filter
IERANGELOWERLIMIT	IQUANT	1	I/E Range Lower Limit
IERANGEMODE	TOGGLE	F	I/E AutoRange
IERANGE	IQUANT	4	I/E Range
POSFEEDENABLE	TOGGLE	F	Positive Feedback IR Comp
POSFEEDRESISTANCE	QUANT	0	Positive Feedback Resistance (ohm)
ACHSELECT	IQUANT	0	Ach Select
CABLEID	IQUANT	14	Cable ID
DCCALDATE	LABEL	8/19/2019	DC Calibration Date
ACCALDATE	LABEL	8/19/2019	AC Calibration Date
THERMOSELECT	IQUANT	1	Thermo Select
FRAMEWORKVERSION	QUANT	6.33	Framework Version
INSTRUMENTVERSION	LABEL	3.50	Instrument Version
ZCURVE	TABLE
	Pt	Time	Freq	Zreal	Zimag	Zsig	Zmod	Zphz	Idc	Vdc	IERange
	#	s	Hz	ohm	ohm	V	ohm	°	A	V	#
	0	2	1000078	2505.62	-1572.773	1	2958.335	-32.11642	-5.23291E-006	0.0078282	8
	1	3	794390.6	2815.108	-1473.116	1	3177.248	-27.62259	9.352356E-006	0.0058765	8
	2	4	630984.4	3078.611	-1338.936	1	3357.171	-23.50498	-2.513641E-006	0.0072189	8
	3	6	501234.4	3299.467	-1193.08	1	3508.55	-19.87989	4.539839E-006	0.0065597	8
	4	7	398109.4	3458.675	-1037.605	1	3610.963	-16.69929	-6.655528E-007	0.0062759	8
	5	8	316265.6	3586.239	-889.3591	1	3694.87	-13.92792	-5.774495E-006	0.0074061	8
	6	10	251203.1	3675.155	-768.3657	1	3754.617	-11.80875	4.015168E-006	0.0064893	8
	7	11	199546.9	3756.082	-662.7296	1	3814.101	-10.00638	-1.258852E-007	0.0062431	8
	8	12	158578.1	3789.208	-576.5922	1	3832.826	-8.652153	5.588985E-006	0.0058421	8
	9	14	125953.1	3863.24	-450.7482	1	3889.446	-6.654965	4.73305E-007	0.0087079	7
	10	15	100078.1	3897.247	-394.3105	1	3917.144	-5.777337	-1.011284E-006	0.0069922	7
	11	16	79453.13	3929.505	-369.0439	1	3946.796	-5.36526	1.258492E-007	0.0051535	7
	12	18	63140.62	3956.915	-354.4241	1	3972.756	-5.118372	5.869792E-007	0.0067064	7
	13	19	50203.12	3985.291	-348.3797	1	4000.489	-4.995889	5.89231E-007	0.006701	7
	14	20	39890.62	4012.135	-347.1188	1	4027.123	-4.944759	-2.896809E-007	0.0078136	7
	15	22	31640.63	4043.985	-356.8291	1	4059.697	-5.042549	4.847918E-007	0.0048543	7
	16	23	25171.88	4072.827	-374.9033	1	4090.046	-5.259249	1.253913E-007	0.0051369	7
	17	25	20015.62	4105.546	-402.4026	1	4125.22	-5.59793	-8.748747E-007	0.0081204	7
	18	26	15890.62	4139.729	-436.6851	1	4162.698	-6.021656	6.470646E-008	0.0074285	7
	19	27	12609.37	4171.742	-481.626	1	4199.452	-6.58562	-8.750388E-007	0.0081179	7
	20	29	10078.13	4206.963	-542.7418	1	4241.828	-7.351145	-1.067607E-006	0.0080581	7
	21	30	8015.625	4247.818	-621.1841	1	4292.998	-8.319736	7.645222E-007	0.0047551	7
	22	31	6328.125	4292.445	-714.0924	1	4351.438	-9.445241	6.462988E-008	0.0074209	7
	23	33	5015.625	4339.684	-833.8377	1	4419.065	-10.8764	4.841199E-007	0.0048507	7
	24	34	3984.375	4386.215	-979.94	1	4494.348	-12.59384	5.912173E-007	0.0066915	7
	25	35	3170.956	4443.006	-1160.494	1	4592.064	-14.63837	7.672647E-007	0.0047539	7
	26	37	2527.573	4501.221	-1379.146	1	4707.763	-17.03473	-2.865977E-007	0.0056331	7
	27	38	1976.103	4576.557	-1677.373	1	4874.265	-20.1286	-2.871634E-007	0.0078008	7
	28	39	1577.524	4656.534	-2030.716	1	5080.071	-23.56203	-8.727948E-007	0.0081114	7
	29	41	1265.625	4752.54	-2416.573	1	5331.647	-26.95244	7.690696E-007	0.0047502	7
	30	42	998.264	4871.72	-2944.646	1	5692.504	-31.1503	-2.855883E-007	0.0056344	7
	31	43	796.875	5004.758	-3561.384	1	6142.562	-35.43564	4.839511E-007	0.0048452	7
	32	45	627.7902	5168.837	-4357.394	1	6760.455	-40.1313	5.90986E-007	0.0066935	7
	33	46	505.5147	5343.303	-5255.283	1	7494.59	-44.52418	1.058689E-006	0.0050611	7
	34	48	397.9953	5584.779	-6452.345	1	8533.61	-49.12242	7.255886E-009	0.0064986	7
	35	49	315.5048	5862.141	-7900.41	1	9837.74	-53.42441	3.370852E-009	0.0065058	7
	36	50	252.4038	6190.702	-9608.64	1	11430.25	-57.20691	1.17835E-009	0.0064314	6
	37	52	198.6229	6626.074	-11874.55	1	13598.15	-60.8382	9.430168E-010	0.0064472	6
	38	53	158.3615	7142.054	-14520.3	1	16181.72	-63.80895	1.541836E-009	0.0064357	6
	39	54	125.558	7825.617	-17846.45	1	19486.81	-66.32269	8.523091E-010	0.0064438	6
	40	56	100.4464	8684.203	-21775.01	1	23442.84	-68.25714	1.490474E-009	0.0064455	6
	41	57	79.00281	9889.69	-26972.13	1	28728.07	-69.86387	-4.49762E-011	0.0064435	6
	42	58	63.3446	11559.25	-32598.83	1	34587.57	-70.47596	-2.965206E-010	0.0064413	6
	43	60	49.86702	13301.86	-40578.82	1	42703.39	-71.85069	7.267345E-010	0.0064315	6
	44	61	39.72458	15975	-49137.52	1	51669.11	-71.99024	4.569759E-010	0.0064472	6
	45	63	31.6723	19489.46	-59692.3	1	62793.38	-71.91821	1.034586E-009	0.0064363	6
	46	64	24.93351	24286.08	-72737.38	1	76684.68	-71.5365	4.129845E-010	0.0064433	6
	47	65	19.86229	30155.61	-87591.73	1	92637.31	-71.00272	2.220767E-010	0.0064413	6
	48	67	15.83615	37465.54	-104081.8	1	110619.6	-70.20303	1.088618E-009	0.0064475	5
	49	68	12.40079	48043.66	-127526.3	1	136276	-69.35683	8.880456E-010	0.0064489	5
	50	69	9.93114	60395.75	-149088.2	1	160856.9	-67.94709	-2.352672E-010	0.0064564	5
	51	71	7.944915	75691.6	-175333	1	190973.5	-66.65005	3.545498E-010	0.006445	5
	52	73	6.317385	93178.15	-205580.7	1	225711.3	-65.61789	6.254811E-010	0.0064402	5
	53	75	5.008013	115343.6	-240955.9	1	267140.2	-64.41995	3.381858E-010	0.0064495	5
	54	77	3.945707	142040.8	-281681.2	1	315467.8	-63.23998	9.210008E-011	0.0064453	5
	55	80	3.158693	171216.4	-325069.3	1	367403.2	-62.2239	2.474932E-010	0.0064517	5
	56	83	2.504006	206012.5	-375870.4	1	428625.4	-61.27309	1.648043E-010	0.0064599	5
	57	86	1.998082	242459.3	-432456.4	1	495787.3	-60.72257	3.389115E-010	0.0064346	5
	58	89	1.584686	290665.1	-498745.7	1	577263.8	-59.7667	8.103537E-011	0.0063961	5
	59	93	1.266892	338492.8	-571693.6	1	664387.7	-59.37074	3.213904E-010	0.0064426	5
	60	97	0.999041	399242.6	-664641.6	1	775334.3	-59.00724	-4.888652E-011	0.0064346	5
