EXPLAIN
TAG	EISPOT
TITLE	LABEL	Potentiostatic EIS	Test &Identifier
DATE	LABEL	10/14/2019	Date
TIME	LABEL	10:53:21	Time
NOTES	NOTES	1	&Notes...
	
PSTAT	PSTAT	REF600-11020	Potentiostat
VDC	POTEN	0.00000E+000	T	DC &Voltage (V)
FREQINIT	QUANT	1.00000E+006	Initial Fre&q. (Hz)
FREQFINAL	QUANT	1.00000E+000	Final Fre&q. (Hz)
PTSPERDEC	QUANT	1.00000E+001	Points/&decade
VAC	QUANT	2.50000E+001	AC &Voltage (mV rms)
AREA	QUANT	1.00000E-002	&Area (cm^2)
CONDIT	TWOPARAM	T	5.00000E+000	0.00000E+000	Conditionin&g	Time(s)	E(V)
DELAY	TWOPARAM	T	5.00000E+000	0.00000E+000	Init. De&lay	Time(s)	Stab.(mV/s)
SPEED	SELECTOR	1	&Optimize for:
ZGUESS	QUANT	1.00000E+004	E&stimated Z (ohms)
OCVCURVE	TABLE	19
	Pt	T	Vf	Vm	Ach	Over
	#	s	V vs. Ref.	V	V	bits
	0	0.258333	7.11767E-003	7.11767E-003	5.50699E-004	...........
	1	0.516667	7.11955E-003	7.21603E-003	5.51166E-004	...........
	2	0.775	7.12759E-003	7.12621E-003	5.50766E-004	...........
	3	1.03333	7.14245E-003	7.23567E-003	5.43599E-004	...........
	4	1.29167	7.16262E-003	7.32885E-003	5.44166E-004	...........
	5	1.55	7.19499E-003	7.43147E-003	5.49499E-004	...........
	6	1.80833	7.24790E-003	7.42416E-003	5.48899E-004	...........
	7	2.06667	7.31426E-003	7.46365E-003	5.50266E-004	...........
	8	2.325	7.37692E-003	7.51604E-003	5.48833E-004	...........
	9	2.58333	7.42766E-003	7.55683E-003	5.50233E-004	...........
	10	2.84167	7.47031E-003	7.58290E-003	5.46266E-004	...........
	11	3.1	7.51036E-003	7.64849E-003	5.41099E-004	...........
	12	3.35833	7.55034E-003	7.66752E-003	5.44933E-004	...........
	13	3.61667	7.59247E-003	7.79498E-003	5.39899E-004	...........
	14	3.875	7.64090E-003	7.83309E-003	5.41333E-004	...........
	15	4.13333	7.69866E-003	7.88983E-003	5.38466E-004	...........
	16	4.39167	7.76221E-003	7.93893E-003	5.47766E-004	...........
	17	4.65	7.82454E-003	7.99209E-003	5.45499E-004	...........
	18	4.90833	7.88224E-003	8.04355E-003	5.45033E-004	...........
EOC	QUANT	0.0078822	Open Circuit (V)
PSTATMODEL	IQUANT	4	Pstat Model
PSTATSECTION	LABEL	REF600-11020	Pstat Section
PSTATSERIALNO	LABEL	11020	Pstat Serial Number
CTRLMODE	IQUANT	1	Control Mode
IESTAB	IQUANT	0	I/E Stability
CASPEED	IQUANT	1	Control Amp Speed
CONVENTION	IQUANT	1	Current Convention
ICHRANGE	IQUANT	2	Ich Range
ICHRANGEMODE	TOGGLE	F	Ich Auto Range
ICHOFFSETENABLE	TOGGLE	T	Ich Offset Enable
ICHOFFSET	QUANT	0	Ich Offset (V)
ICHFILTER	IQUANT	3	Ich Filter
VCHRANGE	IQUANT	2	Vch Range
VCHRANGEMODE	TOGGLE	F	Vch Auto Range
VCHOFFSETENABLE	TOGGLE	T	Vch Offset Enable
VCHOFFSET	QUANT	0	Vch Offset (V)
VCHFILTER	IQUANT	3	Vch Filter
ACHRANGE	IQUANT	2	Ach Range
ACHOFFSETENABLE	TOGGLE	F	Ach Offset Enable
ACHOFFSET	QUANT	0	Ach Offset (V)
ACHFILTER	IQUANT	3	Ach Filter
IERANGELOWERLIMIT	IQUANT	1	I/E Range Lower Limit
IERANGEMODE	TOGGLE	F	I/E AutoRange
IERANGE	IQUANT	6	I/E Range
POSFEEDENABLE	TOGGLE	F	Positive Feedback IR Comp
POSFEEDRESISTANCE	QUANT	0	Positive Feedback Resistance (ohm)
ACHSELECT	IQUANT	0	Ach Select
CABLEID	IQUANT	14	Cable ID
DCCALDATE	LABEL	8/19/2019	DC Calibration Date
ACCALDATE	LABEL	8/19/2019	AC Calibration Date
THERMOSELECT	IQUANT	1	Thermo Select
FRAMEWORKVERSION	QUANT	6.33	Framework Version
INSTRUMENTVERSION	LABEL	3.50	Instrument Version
ZCURVE	TABLE
	Pt	Time	Freq	Zreal	Zimag	Zsig	Zmod	Zphz	Idc	Vdc	IERange
	#	s	Hz	ohm	ohm	V	ohm	°	A	V	#
	0	1	1000078	2496.813	-1961.044	1	3174.865	-38.14676	-4.461193E-007	0.0102583	8
	1	3	794390.6	2887.98	-1968.183	1	3494.878	-34.27477	7.148209E-007	0.0099232	8
	2	4	630984.4	3262.308	-1893.977	1	3772.241	-30.13789	3.793773E-006	0.009151	8
	3	6	501234.4	3602.583	-1778.428	1	4017.638	-26.27341	-2.877656E-006	0.0102529	8
	4	7	398109.4	3895.643	-1640.821	1	4227.094	-22.84052	-1.204865E-008	0.0096129	8
	5	9	316265.6	4154.113	-1482.183	1	4410.614	-19.63635	2.639938E-007	0.0095914	8
	6	10	251203.1	4344.074	-1320.947	1	4540.472	-16.91348	-5.326148E-007	0.0094996	8
	7	11	199546.9	4529.683	-1154.001	1	4674.371	-14.29286	3.325607E-006	0.0088648	8
	8	13	158578.1	4660.797	-1032.295	1	4773.748	-12.48853	3.305531E-006	0.0090427	8
	9	14	125953.1	4772.369	-884.5168	1	4853.646	-10.50012	1.311344E-007	0.0093083	7
	10	16	100078.1	4862.555	-805.5506	1	4928.829	-9.40642	5.243604E-008	0.0094693	7
	11	17	79453.13	4936.368	-745.9614	1	4992.413	-8.593259	-1.812512E-008	0.0095765	7
	12	18	63140.62	5003.81	-703.3259	1	5052.997	-8.00097	-5.402222E-008	0.0096315	7
	13	20	50203.12	5065.261	-677.7977	1	5110.409	-7.621644	-1.721566E-008	0.0095671	7
	14	21	39890.62	5123.376	-666.2883	1	5166.52	-7.409654	-3.610416E-008	0.0095393	7
	15	22	31640.63	5184.57	-675.3276	1	5228.369	-7.421403	-5.715658E-009	0.0095379	7
	16	24	25171.88	5244.911	-698.8564	1	5291.266	-7.589652	3.976244E-008	0.0094116	7
	17	25	20015.62	5304.777	-726.5076	1	5354.295	-7.79834	-5.385502E-008	0.0096268	7
	18	26	15890.62	5376.024	-793.2249	1	5434.229	-8.393353	-2.711386E-008	0.0095339	7
	19	28	12609.37	5451.397	-869.5618	1	5520.314	-9.062997	-2.527612E-008	0.0095302	7
	20	29	10078.13	5530.475	-961.966	1	5613.513	-9.86726	4.421306E-008	0.0094819	7
	21	30	8015.625	5627.103	-1051.586	1	5724.519	-10.58526	2.523578E-010	0.0094929	7
	22	32	6328.125	5721.182	-1223.92	1	5850.632	-12.07516	-3.175044E-008	0.0095333	7
	23	33	5015.625	5831.491	-1396.762	1	5996.435	-13.46976	-5.470357E-008	0.009622	7
	24	34	3984.375	5971.247	-1600.719	1	6182.078	-15.00652	-4.023754E-008	0.0096238	7
	25	36	3170.956	6090.025	-1845.101	1	6363.396	-16.85529	7.296367E-008	0.0093696	7
	26	37	2527.573	6239.072	-2133.325	1	6593.716	-18.87709	9.643177E-009	0.0094569	7
	27	39	1976.103	6425.524	-2513.438	1	6899.618	-21.36369	1.090862E-007	0.0093589	7
	28	40	1577.524	6589.53	-2870.869	1	7187.753	-23.54137	-3.36929E-008	0.0095266	7
	29	41	1265.625	6812.449	-3404.172	1	7615.632	-26.55124	4.435273E-008	0.0094713	7
	30	43	998.264	7051.57	-4027.734	1	8120.793	-29.73425	-3.284779E-008	0.0095367	7
	31	44	796.875	7309.166	-4747.894	1	8715.871	-33.00698	3.885011E-008	0.0094064	7
	32	45	627.7902	7604.506	-5689.372	1	9497.234	-36.8023	-5.222787E-008	0.0096313	7
	33	47	505.5147	7917.221	-6715.439	1	10381.69	-40.30483	-2.529446E-009	0.0093737	6
	34	48	397.9953	8297.915	-8105.482	1	11599.75	-44.32788	2.107022E-010	0.0094775	6
	35	49	315.5048	8720.7	-9771.26	1	13096.88	-48.25158	1.322151E-009	0.0094745	6
	36	51	252.4038	9190.292	-11732.08	1	14903.12	-51.92672	1.241884E-009	0.0094728	6
	37	52	198.6229	9782.67	-14330.43	1	17351.14	-55.6806	-1.32122E-010	0.0094722	6
	38	53	158.3615	10452.81	-17363.93	1	20267.39	-58.95273	3.229243E-010	0.0094731	6
	39	55	125.558	11303.78	-21196.71	1	24022.41	-61.9299	6.321266E-010	0.0094717	6
	40	56	100.4464	12294.91	-25721.25	1	28508.73	-64.45193	3.061461E-010	0.0094701	6
	41	58	79.00281	13791.52	-31669.4	1	34542.11	-66.46764	9.072235E-010	0.0094639	6
	42	59	63.3446	15411.67	-38037.18	1	41040.79	-67.9435	6.470346E-010	0.0094634	6
	43	60	49.86702	18022.03	-47387.25	1	50698.57	-69.17749	7.927579E-010	0.0094618	6
	44	62	39.72458	20739.88	-57694.99	1	61309.5	-70.22778	6.796586E-010	0.0094689	6
	45	63	31.6723	24794.13	-69952.79	1	74216.85	-70.48359	4.843381E-010	0.0094682	6
	46	64	24.93351	30154.39	-85737.34	1	90885.53	-70.62289	7.012903E-011	0.0094656	6
	47	66	19.86229	37292.71	-103497.1	1	110010.8	-70.18458	7.83136E-010	0.0094662	5
	48	67	15.83615	46952.63	-125430.3	1	133930.2	-69.47749	9.75366E-010	0.0094638	5
	49	68	12.40079	59630.93	-150005.6	1	161423.4	-68.32095	1.110084E-009	0.0094689	5
	50	70	9.93114	74987.05	-178349.6	1	193472.5	-67.19569	1.467012E-010	0.0094709	5
	51	71	7.944915	94926.26	-210116.3	1	230564.2	-65.68752	2.873705E-010	0.0094726	5
	52	73	6.317385	120385.1	-245222.9	1	273179.2	-63.8526	4.264592E-011	0.0094823	5
	53	75	5.008013	151678	-284440.9	1	322355.1	-61.93124	3.913592E-010	0.009481	5
	54	78	3.945707	190697.9	-327674.8	1	379125.9	-59.80174	-1.932232E-010	0.009463	5
	55	80	3.158693	232477.5	-370710.3	1	437575	-57.90762	2.349035E-010	0.0094821	5
	56	84	2.504006	282259.9	-418356.7	1	504671.2	-55.99296	-3.893713E-010	0.009467	5
	57	86	1.998082	334960.1	-465738.2	1	573681.4	-54.27622	-6.97913E-012	0.0094249	5
	58	89	1.584686	391754.3	-519496.8	1	650652.3	-52.97993	-1.48343E-010	0.0094588	5
	59	93	1.266892	451504	-575511.4	1	731484.3	-51.88487	9.069828E-011	0.0094265	5
	60	97	0.999041	516560.9	-644613.6	1	826052	-51.29307	-9.65503E-011	0.0094997	5
