EXPLAIN
TAG	EISPOT
TITLE	LABEL	Potentiostatic EIS	Test &Identifier
DATE	LABEL	9/26/2019	Date
TIME	LABEL	8:42:48	Time
NOTES	NOTES	2	&Notes...
	
	
PSTAT	PSTAT	REF600-11020	Potentiostat
VDC	POTEN	0.00000E+000	T	DC &Voltage (V)
FREQINIT	QUANT	1.00000E+006	Initial Fre&q. (Hz)
FREQFINAL	QUANT	1.00000E+000	Final Fre&q. (Hz)
PTSPERDEC	QUANT	1.00000E+001	Points/&decade
VAC	QUANT	2.50000E+001	AC &Voltage (mV rms)
AREA	QUANT	1.00000E-002	&Area (cm^2)
CONDIT	TWOPARAM	T	5.00000E+000	0.00000E+000	Conditionin&g	Time(s)	E(V)
DELAY	TWOPARAM	T	5.00000E+000	0.00000E+000	Init. De&lay	Time(s)	Stab.(mV/s)
SPEED	SELECTOR	1	&Optimize for:
ZGUESS	QUANT	1.00000E+004	E&stimated Z (ohms)
OCVCURVE	TABLE	19
	Pt	T	Vf	Vm	Ach	Over
	#	s	V vs. Ref.	V	V	bits
	0	0.258333	3.38874E-002	3.38874E-002	5.67666E-004	...........
	1	0.516667	3.39336E-002	3.63086E-002	5.67666E-004	...........
	2	0.775	3.42161E-002	3.85190E-002	5.70166E-004	...........
	3	1.03333	3.50069E-002	4.05004E-002	5.69732E-004	...........
	4	1.29167	3.63981E-002	4.23124E-002	5.65799E-004	...........
	5	1.55	3.82024E-002	4.40021E-002	5.67532E-004	...........
	6	1.80833	4.01391E-002	4.55610E-002	5.69632E-004	...........
	7	2.06667	4.20155E-002	4.70035E-002	5.69866E-004	...........
	8	2.325	4.37552E-002	4.83413E-002	5.74099E-004	...........
	9	2.58333	4.53501E-002	4.95881E-002	5.66532E-004	...........
	10	2.84167	4.68161E-002	5.07512E-002	5.66832E-004	...........
	11	3.1	4.81716E-002	5.18389E-002	5.68966E-004	...........
	12	3.35833	4.94314E-002	5.28604E-002	5.69532E-004	...........
	13	3.61667	5.06064E-002	5.38161E-002	5.66099E-004	...........
	14	3.875	5.17051E-002	5.47190E-002	5.68599E-004	...........
	15	4.13333	5.27347E-002	5.55660E-002	5.69332E-004	...........
	16	4.39167	5.37010E-002	5.63640E-002	5.70266E-004	...........
	17	4.65	5.46091E-002	5.71092E-002	5.66466E-004	...........
	18	4.90833	5.54640E-002	5.78784E-002	5.69566E-004	...........
EOC	QUANT	0.055464	Open Circuit (V)
PSTATMODEL	IQUANT	4	Pstat Model
PSTATSECTION	LABEL	REF600-11020	Pstat Section
PSTATSERIALNO	LABEL	11020	Pstat Serial Number
CTRLMODE	IQUANT	1	Control Mode
IESTAB	IQUANT	0	I/E Stability
CASPEED	IQUANT	1	Control Amp Speed
CONVENTION	IQUANT	1	Current Convention
ICHRANGE	IQUANT	2	Ich Range
ICHRANGEMODE	TOGGLE	F	Ich Auto Range
ICHOFFSETENABLE	TOGGLE	T	Ich Offset Enable
ICHOFFSET	QUANT	0	Ich Offset (V)
ICHFILTER	IQUANT	3	Ich Filter
VCHRANGE	IQUANT	2	Vch Range
VCHRANGEMODE	TOGGLE	F	Vch Auto Range
VCHOFFSETENABLE	TOGGLE	T	Vch Offset Enable
VCHOFFSET	QUANT	0	Vch Offset (V)
VCHFILTER	IQUANT	3	Vch Filter
ACHRANGE	IQUANT	2	Ach Range
ACHOFFSETENABLE	TOGGLE	F	Ach Offset Enable
ACHOFFSET	QUANT	0	Ach Offset (V)
ACHFILTER	IQUANT	3	Ach Filter
IERANGELOWERLIMIT	IQUANT	1	I/E Range Lower Limit
IERANGEMODE	TOGGLE	F	I/E AutoRange
IERANGE	IQUANT	7	I/E Range
POSFEEDENABLE	TOGGLE	F	Positive Feedback IR Comp
POSFEEDRESISTANCE	QUANT	0	Positive Feedback Resistance (ohm)
ACHSELECT	IQUANT	0	Ach Select
CABLEID	IQUANT	14	Cable ID
DCCALDATE	LABEL	8/19/2019	DC Calibration Date
ACCALDATE	LABEL	8/19/2019	AC Calibration Date
THERMOSELECT	IQUANT	1	Thermo Select
FRAMEWORKVERSION	QUANT	6.33	Framework Version
INSTRUMENTVERSION	LABEL	3.50	Instrument Version
ZCURVE	TABLE
	Pt	Time	Freq	Zreal	Zimag	Zsig	Zmod	Zphz	Idc	Vdc	IERange
	#	s	Hz	ohm	ohm	V	ohm	°	A	V	#
	0	2	1000078	2030.931	-897.1879	1	2220.277	-23.83401	-7.918234E-007	0.0580091	8
	1	3	794390.6	2165.991	-813.6362	1	2313.767	-20.58827	2.599627E-006	0.0568223	8
	2	5	630984.4	2278.407	-717.437	1	2388.693	-17.47845	-1.64531E-006	0.0576388	8
	3	6	501234.4	2385.42	-625.3096	1	2466.017	-14.6889	1.860089E-006	0.0566833	8
	4	7	398109.4	2442.675	-547.1699	1	2503.209	-12.62608	5.005423E-006	0.0561969	8
	5	9	316265.6	2509.352	-477.06	1	2554.297	-10.7642	4.684639E-006	0.0562099	8
	6	10	251203.1	2545.751	-415.3727	1	2579.415	-9.2669	1.639161E-006	0.0567291	8
	7	11	199546.9	2575.067	-360.58	1	2600.19	-7.971149	6.539038E-007	0.0569514	8
	8	13	158578.1	2622.246	-321.3246	1	2641.859	-6.986079	-2.030395E-006	0.0574715	8
	9	14	125953.1	2656.714	-248.948	1	2668.352	-5.353284	-7.437916E-007	0.0585341	7
	10	15	100078.1	2676.809	-227.825	1	2686.487	-4.864757	1.319462E-008	0.0569763	7
	11	17	79453.13	2695.517	-219.6992	1	2704.456	-4.659614	-6.381544E-009	0.0569883	7
	12	18	63140.62	2716.228	-217.5441	1	2724.926	-4.579075	2.625889E-008	0.0570181	7
	13	19	50203.12	2737.003	-218.4256	1	2745.705	-4.5628	-9.180247E-009	0.0570704	7
	14	21	39890.62	2757.649	-222.5497	1	2766.615	-4.613925	-4.228156E-008	0.0570635	7
	15	22	31640.63	2779.829	-232.6559	1	2789.548	-4.784181	4.194243E-008	0.056899	7
	16	23	25171.88	2802.059	-245.5419	1	2812.797	-5.007985	-4.947784E-008	0.0571082	7
	17	25	20015.62	2825.655	-264.7195	1	2838.028	-5.352092	7.300916E-008	0.0569123	7
	18	26	15890.62	2850.293	-288.8479	1	2864.892	-5.786582	-5.075458E-008	0.0571428	7
	19	27	12609.37	2876.015	-320.3852	1	2893.805	-6.356484	-5.092958E-008	0.057142	7
	20	29	10078.13	2902.351	-358.3633	1	2924.392	-7.038881	2.713108E-008	0.0570096	7
	21	30	8015.625	2931.194	-407.0679	1	2959.325	-7.906349	-4.178774E-008	0.0571685	7
	22	32	6328.125	2962.562	-469.2775	1	2999.499	-9.001015	-1.113354E-008	0.057078	7
	23	33	5015.625	2996.165	-544.4434	1	3045.229	-10.29904	-4.131265E-008	0.0570618	7
	24	34	3984.375	3032.76	-637.352	1	3099.008	-11.86833	-4.323012E-008	0.057169	7
	25	36	3170.956	3073.778	-749.3848	1	3163.81	-13.70138	7.442964E-008	0.0569105	7
	26	37	2527.573	3118.297	-885.9822	1	3241.719	-15.86111	1.541382E-008	0.0569637	7
	27	38	1976.103	3173.869	-1068.614	1	3348.938	-18.60792	1.221185E-008	0.056956	7
	28	40	1577.524	3231	-1273.629	1	3472.966	-21.51388	1.279401E-007	0.0568499	7
	29	41	1265.625	3292.816	-1522	1	3627.551	-24.80724	-2.646845E-008	0.0570351	7
	30	42	998.264	3372.814	-1841.831	1	3842.944	-28.63812	-1.017059E-008	0.0570863	7
	31	44	796.875	3459.445	-2220.845	1	4110.951	-32.69908	-4.021567E-008	0.0570638	7
	32	45	627.7902	3567.386	-2714.878	1	4482.946	-37.27212	-1.081479E-008	0.0570802	7
	33	46	505.5147	3682.604	-3262.94	1	4920.199	-41.54228	4.590389E-008	0.056894	7
	34	48	397.9953	3838.494	-4011.556	1	5552.173	-46.26294	3.661401E-009	0.0570559	7
	35	49	315.5048	4024.914	-4907.672	1	6347.06	-50.6439	3.838875E-009	0.0570569	7
	36	50	252.4038	4248.051	-5963.203	1	7321.593	-54.53479	3.819622E-009	0.0570486	7
	37	52	198.6229	4552.454	-7354.347	1	8649.35	-58.24185	3.883084E-009	0.0570549	7
	38	53	158.3615	4918.508	-8968.187	1	10228.4	-61.25789	4.24525E-009	0.0570487	7
	39	55	125.558	5403.396	-10987.38	1	12244.15	-63.81288	-9.713872E-010	0.0569934	6
	40	56	100.4464	5992.594	-13332.43	1	14617.28	-65.79727	-5.898961E-010	0.0569918	6
	41	57	79.00281	6855.133	-16410.74	1	17784.98	-67.32862	-4.848377E-010	0.0569932	6
	42	59	63.3446	7931.597	-19766.96	1	21298.9	-68.13662	-2.112038E-009	0.0569902	6
	43	60	49.86702	9219.753	-24414	1	26096.88	-69.31136	-1.386418E-009	0.0569873	6
	44	61	39.72458	10877.38	-29432.58	1	31378.25	-69.71723	-9.787567E-010	0.056995	6
	45	63	31.6723	13053.4	-35565.93	1	37885.71	-69.84587	-2.427909E-009	0.0569891	6
	46	64	24.93351	15981.11	-43087.4	1	45955.63	-69.65019	-1.920791E-009	0.0569929	6
	47	65	19.86229	19471.69	-51721	1	55264.89	-69.36988	-1.764207E-009	0.0569859	6
	48	67	15.83615	24054.24	-61255.81	1	65809.43	-68.56081	-4.003655E-010	0.0569917	6
	49	68	12.40079	30258.84	-74560.7	1	80466.73	-67.91129	-3.282418E-009	0.0569976	6
	50	70	9.93114	36672.3	-87764.34	1	95118	-67.3224	-2.049019E-009	0.0569938	6
	51	71	7.944915	45050.34	-103202.6	1	112606.9	-66.41762	-9.299991E-010	0.0569914	5
	52	73	6.317385	55166.19	-121505.9	1	133442.8	-65.58097	-9.031129E-010	0.0570002	5
	53	75	5.008013	67912.63	-143065	1	158365.8	-64.60641	-1.518919E-009	0.0570004	5
	54	77	3.945707	83702.73	-168358.4	1	188017.8	-63.56482	-1.765586E-009	0.0569933	5
	55	80	3.158693	101575.3	-195212.8	1	220058.2	-62.51065	-1.466313E-009	0.0569903	5
	56	83	2.504006	123383.3	-226889.7	1	258268	-61.46252	-1.562743E-009	0.0570083	5
	57	86	1.998082	147905.2	-261326.4	1	300279	-60.49105	-1.088026E-009	0.0569913	5
	58	89	1.584686	178684.7	-301642.9	1	350594.8	-59.35871	-1.534492E-009	0.0569521	5
	59	93	1.266892	211244.6	-344934.8	1	404480.3	-58.51591	-1.131906E-009	0.0569945	5
	60	97	0.999041	252402.2	-397735.5	1	471063	-57.60086	-1.760521E-009	0.0569875	5
