EXPLAIN
TAG	EISPOT
TITLE	LABEL	Potentiostatic EIS	Test &Identifier
DATE	LABEL	10/6/2019	Date
TIME	LABEL	10:44:59	Time
NOTES	NOTES	2	&Notes...
	
	
PSTAT	PSTAT	REF600-11020	Potentiostat
VDC	POTEN	0.00000E+000	T	DC &Voltage (V)
FREQINIT	QUANT	1.00000E+006	Initial Fre&q. (Hz)
FREQFINAL	QUANT	1.00000E+000	Final Fre&q. (Hz)
PTSPERDEC	QUANT	1.00000E+001	Points/&decade
VAC	QUANT	2.50000E+001	AC &Voltage (mV rms)
AREA	QUANT	1.00000E-002	&Area (cm^2)
CONDIT	TWOPARAM	T	5.00000E+000	0.00000E+000	Conditionin&g	Time(s)	E(V)
DELAY	TWOPARAM	T	5.00000E+000	0.00000E+000	Init. De&lay	Time(s)	Stab.(mV/s)
SPEED	SELECTOR	1	&Optimize for:
ZGUESS	QUANT	1.00000E+004	E&stimated Z (ohms)
OCVCURVE	TABLE	19
	Pt	T	Vf	Vm	Ach	Over
	#	s	V vs. Ref.	V	V	bits
	0	0.258333	3.46694E-003	3.46694E-003	5.48566E-004	...........
	1	0.516667	3.46294E-003	3.25746E-003	5.47533E-004	...........
	2	0.775	3.43802E-003	3.04062E-003	5.43933E-004	...........
	3	1.03333	3.36703E-003	2.86825E-003	5.41433E-004	...........
	4	1.29167	3.24262E-003	2.80008E-003	5.38033E-004	...........
	5	1.55	3.08899E-003	2.70612E-003	5.46633E-004	...........
	6	1.80833	2.94034E-003	2.58114E-003	5.44033E-004	...........
	7	2.06667	2.81334E-003	2.53838E-003	5.50933E-004	...........
	8	2.325	2.70537E-003	2.37726E-003	5.45433E-004	...........
	9	2.58333	2.60306E-003	2.11560E-003	5.46466E-004	...........
	10	2.84167	2.48573E-003	1.98356E-003	5.47699E-004	...........
	11	3.1	2.34454E-003	2.05862E-003	5.52499E-004	...........
	12	3.35833	2.20458E-003	2.05678E-003	5.46799E-004	...........
	13	3.61667	2.10250E-003	1.93894E-003	5.48233E-004	...........
	14	3.875	2.04378E-003	1.93803E-003	5.50366E-004	...........
	15	4.13333	2.00451E-003	1.83638E-003	5.52932E-004	...........
	16	4.39167	1.96335E-003	1.79619E-003	5.52399E-004	...........
	17	4.65	1.91494E-003	1.80757E-003	5.54233E-004	...........
	18	4.90833	1.86593E-003	1.75577E-003	5.50299E-004	...........
EOC	QUANT	0.0018659	Open Circuit (V)
PSTATMODEL	IQUANT	4	Pstat Model
PSTATSECTION	LABEL	REF600-11020	Pstat Section
PSTATSERIALNO	LABEL	11020	Pstat Serial Number
CTRLMODE	IQUANT	1	Control Mode
IESTAB	IQUANT	0	I/E Stability
CASPEED	IQUANT	1	Control Amp Speed
CONVENTION	IQUANT	1	Current Convention
ICHRANGE	IQUANT	2	Ich Range
ICHRANGEMODE	TOGGLE	F	Ich Auto Range
ICHOFFSETENABLE	TOGGLE	T	Ich Offset Enable
ICHOFFSET	QUANT	0	Ich Offset (V)
ICHFILTER	IQUANT	3	Ich Filter
VCHRANGE	IQUANT	2	Vch Range
VCHRANGEMODE	TOGGLE	F	Vch Auto Range
VCHOFFSETENABLE	TOGGLE	T	Vch Offset Enable
VCHOFFSET	QUANT	0	Vch Offset (V)
VCHFILTER	IQUANT	3	Vch Filter
ACHRANGE	IQUANT	2	Ach Range
ACHOFFSETENABLE	TOGGLE	F	Ach Offset Enable
ACHOFFSET	QUANT	0	Ach Offset (V)
ACHFILTER	IQUANT	3	Ach Filter
IERANGELOWERLIMIT	IQUANT	1	I/E Range Lower Limit
IERANGEMODE	TOGGLE	F	I/E AutoRange
IERANGE	IQUANT	5	I/E Range
POSFEEDENABLE	TOGGLE	F	Positive Feedback IR Comp
POSFEEDRESISTANCE	QUANT	0	Positive Feedback Resistance (ohm)
ACHSELECT	IQUANT	0	Ach Select
CABLEID	IQUANT	14	Cable ID
DCCALDATE	LABEL	8/19/2019	DC Calibration Date
ACCALDATE	LABEL	8/19/2019	AC Calibration Date
THERMOSELECT	IQUANT	1	Thermo Select
FRAMEWORKVERSION	QUANT	6.33	Framework Version
INSTRUMENTVERSION	LABEL	3.50	Instrument Version
ZCURVE	TABLE
	Pt	Time	Freq	Zreal	Zimag	Zsig	Zmod	Zphz	Idc	Vdc	IERange
	#	s	Hz	ohm	ohm	V	ohm	°	A	V	#
	0	2	1000078	2047.616	-962.776	1	2262.669	-25.18261	-5.22993E-006	0.0043804	8
	1	3	794390.6	2203.503	-884.9025	1	2374.548	-21.87985	1.360473E-006	0.0036083	8
	2	4	630984.4	2332.339	-796.5684	1	2464.615	-18.85668	-3.770455E-006	0.0041608	8
	3	6	501234.4	2446.242	-703.9094	1	2545.503	-16.05324	-4.472945E-006	0.0043103	8
	4	7	398109.4	2522.643	-639.4434	1	2602.425	-14.22383	1.028287E-006	0.0031201	8
	5	8	316265.6	2589.782	-572.9047	1	2652.393	-12.47393	1.328857E-006	0.003176	8
	6	10	251203.1	2642.801	-525.1301	1	2694.468	-11.23841	-4.610737E-006	0.0041525	8
	7	11	199546.9	2697.727	-485.4651	1	2741.059	-10.20139	4.833049E-007	0.0033699	8
	8	12	158578.1	2740.394	-455.3154	1	2777.962	-9.433495	4.599588E-006	0.0023524	8
	9	14	125953.1	2800.32	-396.6878	1	2828.277	-8.062762	-7.044122E-008	0.0034761	7
	10	15	100078.1	2831.841	-396.2019	1	2859.423	-7.964533	-5.75055E-008	0.0033712	7
	11	17	79453.13	2870.876	-407.4381	1	2899.644	-8.077542	-8.002426E-008	0.0035239	7
	12	18	63140.62	2914.814	-426.5765	1	2945.863	-8.326004	1.116319E-008	0.0032665	7
	13	19	50203.12	2962.486	-450.5541	1	2996.552	-8.647646	-7.656904E-008	0.0033999	7
	14	21	39890.62	3014.66	-481.6003	1	3052.886	-9.076466	3.749028E-008	0.0032503	7
	15	22	31640.63	3070.583	-517.3984	1	3113.869	-9.56459	1.007708E-007	0.003197	7
	16	23	25171.88	3131.777	-559.9811	1	3181.448	-10.1377	1.308229E-008	0.0032211	7
	17	25	20015.62	3196.898	-608.6183	1	3254.316	-10.77886	-2.790246E-009	0.0032332	7
	18	26	15890.62	3266.853	-667.1848	1	3334.286	-11.5427	1.143515E-008	0.0032578	7
	19	28	12609.37	3341.415	-733.6737	1	3421.013	-12.3839	-6.240307E-008	0.0034103	7
	20	29	10078.13	3418.629	-809.4601	1	3513.154	-13.32111	-6.995462E-009	0.0033144	7
	21	30	8015.625	3502.699	-902.5131	1	3617.102	-14.44868	1.010708E-007	0.0031961	7
	22	32	6328.125	3595.154	-1012.885	1	3735.113	-15.73446	7.957409E-008	0.003131	7
	23	33	5015.625	3693.867	-1144.731	1	3867.178	-17.21823	1.026116E-007	0.003195	7
	24	34	3984.375	3799.501	-1296.792	1	4014.708	-18.84508	-2.602154E-008	0.0032813	7
	25	36	3170.956	3908.082	-1480.246	1	4179.023	-20.74495	-3.498835E-008	0.0032872	7
	26	37	2527.573	4023.042	-1697.323	1	4366.437	-22.8749	-6.515767E-009	0.0033098	7
	27	38	1976.103	4151.891	-1986.652	1	4602.715	-25.5708	-7.44672E-008	0.0033942	7
	28	40	1577.524	4271.114	-2314.516	1	4857.921	-28.45326	1.005692E-007	0.0031941	7
	29	41	1265.625	4398.844	-2702.896	1	5162.895	-31.5689	-5.615062E-008	0.0033572	7
	30	43	998.264	4548.248	-3232.934	1	5580.181	-35.40554	1.236547E-008	0.0033769	7
	31	44	796.875	4710.742	-3856.151	1	6087.774	-39.3033	1.455432E-008	0.0032237	7
	32	45	627.7902	4904.078	-4684.781	1	6782.12	-43.68988	1.624896E-008	0.0033755	7
	33	47	505.5147	5121.307	-5602.514	1	7590.517	-47.5693	1.00985E-007	0.003193	7
	34	48	397.9953	5419.502	-6866.041	1	8747.2	-51.71527	5.546967E-009	0.0033137	7
	35	49	315.5048	5787.219	-8375.943	1	10180.78	-55.35811	1.230691E-009	0.0032453	6
	36	51	252.4038	6234.657	-10148.34	1	11910.49	-58.43542	1.274471E-009	0.0032496	6
	37	52	198.6229	6858.112	-12474.06	1	14235.02	-61.19845	1.032883E-009	0.0032488	6
	38	53	158.3615	7628.419	-15152.26	1	16964.19	-63.27699	1.178397E-009	0.0032484	6
	39	55	125.558	8667.277	-18467.7	1	20400.44	-64.85836	9.319998E-010	0.0032512	6
	40	56	100.4464	9958.43	-22293.32	1	24416.44	-65.92967	1.339333E-009	0.0032487	6
	41	58	79.00281	11797.96	-27236.98	1	29682.4	-66.57968	4.735767E-010	0.0032446	6
	42	59	63.3446	13834.59	-32452.16	1	35278.02	-66.91109	2.460457E-010	0.0032449	6
	43	60	49.86702	17316.36	-39246.06	1	42896.5	-66.1917	-1.79244E-010	0.0032419	6
	44	62	39.72458	20973.15	-46887.58	1	51364.56	-65.90069	9.830156E-010	0.0032499	6
	45	63	31.6723	25713.87	-55420.51	1	61095.3	-65.10976	1.323014E-009	0.003246	6
	46	65	24.93351	32243.48	-65715.48	1	73199.49	-63.86499	8.309762E-010	0.0032445	6
	47	66	19.86229	39687.89	-76698.68	1	86358.65	-62.6406	-4.06988E-010	0.0032423	6
	48	67	15.83615	49079.45	-88156.84	1	100898.1	-60.89405	1.086291E-009	0.0032462	6
	49	69	12.40079	60578.61	-102755	1	119282.6	-59.47877	1.449164E-009	0.0032492	5
	50	70	9.93114	72221.51	-116472.1	1	137046.3	-58.19795	-1.910186E-010	0.0032522	5
	51	72	7.944915	85796.36	-131506.2	1	157018.8	-56.87904	1.055368E-009	0.0032595	5
	52	73	6.317385	100390.4	-148698.2	1	179414	-55.97558	-2.727062E-010	0.0032564	5
	53	75	5.008013	116485.2	-168217.1	1	204611.3	-55.29859	-1.005609E-010	0.0032477	5
	54	78	3.945707	133707.3	-191593	1	233635.4	-55.08991	9.997256E-011	0.0032471	5
	55	81	3.158693	150596.2	-217321.8	1	264401.2	-55.27943	5.621698E-011	0.0032313	5
	56	84	2.504006	169606.8	-249865.8	1	301992.4	-55.83167	3.202432E-010	0.0032535	5
	57	87	1.998082	189011.6	-288506.3	1	344907.6	-56.76965	3.680172E-010	0.0032642	5
	58	90	1.584686	212017	-335567	1	396933.7	-57.7146	1.616794E-010	0.0032084	5
	59	93	1.266892	237252.4	-392744.5	1	458843	-58.86432	2.455869E-010	0.0032686	5
	60	98	0.999041	269657.7	-464939.3	1	537479.2	-59.88692	2.28839E-011	0.0032021	5
