EXPLAIN
TAG	EISPOT
TITLE	LABEL	Potentiostatic EIS	Test &Identifier
DATE	LABEL	10/20/2019	Date
TIME	LABEL	10:30:20	Time
NOTES	NOTES	1	&Notes...
	
PSTAT	PSTAT	REF600-11020	Potentiostat
VDC	POTEN	0.00000E+000	T	DC &Voltage (V)
FREQINIT	QUANT	1.00000E+006	Initial Fre&q. (Hz)
FREQFINAL	QUANT	1.00000E+000	Final Fre&q. (Hz)
PTSPERDEC	QUANT	1.00000E+001	Points/&decade
VAC	QUANT	2.50000E+001	AC &Voltage (mV rms)
AREA	QUANT	1.00000E-002	&Area (cm^2)
CONDIT	TWOPARAM	T	5.00000E+000	0.00000E+000	Conditionin&g	Time(s)	E(V)
DELAY	TWOPARAM	T	5.00000E+000	0.00000E+000	Init. De&lay	Time(s)	Stab.(mV/s)
SPEED	SELECTOR	1	&Optimize for:
ZGUESS	QUANT	1.00000E+005	E&stimated Z (ohms)
OCVCURVE	TABLE	19
	Pt	T	Vf	Vm	Ach	Over
	#	s	V vs. Ref.	V	V	bits
	0	0.258333	6.67386E-003	6.67386E-003	5.72399E-004	...........
	1	0.516667	6.67041E-003	6.49355E-003	5.74765E-004	...........
	2	0.775	6.64975E-003	6.34847E-003	5.80399E-004	...........
	3	1.03333	6.59382E-003	6.25461E-003	5.75265E-004	...........
	4	1.29167	6.50061E-003	6.15942E-003	5.78466E-004	...........
	5	1.55	6.38795E-003	6.05958E-003	5.73666E-004	...........
	6	1.80833	6.27575E-003	6.01684E-003	5.70166E-004	...........
	7	2.06667	6.17586E-003	5.98320E-003	5.71132E-004	...........
	8	2.325	6.09550E-003	5.99867E-003	5.64399E-004	...........
	9	2.58333	6.04386E-003	6.21713E-003	5.65799E-004	...........
	10	2.84167	6.04892E-003	6.96469E-003	5.73799E-004	...........
	11	3.1	6.15336E-003	6.65114E-003	5.73399E-004	...........
	12	3.35833	6.34337E-003	6.51698E-003	5.70732E-004	...........
	13	3.61667	6.51980E-003	6.56663E-003	5.75499E-004	...........
	14	3.875	6.59859E-003	6.32782E-003	5.75099E-004	...........
	15	4.13333	6.57646E-003	6.15032E-003	5.73266E-004	...........
	16	4.39167	6.48575E-003	6.13689E-003	5.73132E-004	...........
	17	4.65	6.36301E-003	6.11421E-003	5.70066E-004	...........
	18	4.90833	6.24732E-003	6.03332E-003	5.68199E-004	...........
EOC	QUANT	0.0062473	Open Circuit (V)
PSTATMODEL	IQUANT	4	Pstat Model
PSTATSECTION	LABEL	REF600-11020	Pstat Section
PSTATSERIALNO	LABEL	11020	Pstat Serial Number
CTRLMODE	IQUANT	1	Control Mode
IESTAB	IQUANT	0	I/E Stability
CASPEED	IQUANT	1	Control Amp Speed
CONVENTION	IQUANT	1	Current Convention
ICHRANGE	IQUANT	2	Ich Range
ICHRANGEMODE	TOGGLE	F	Ich Auto Range
ICHOFFSETENABLE	TOGGLE	T	Ich Offset Enable
ICHOFFSET	QUANT	0	Ich Offset (V)
ICHFILTER	IQUANT	3	Ich Filter
VCHRANGE	IQUANT	2	Vch Range
VCHRANGEMODE	TOGGLE	F	Vch Auto Range
VCHOFFSETENABLE	TOGGLE	T	Vch Offset Enable
VCHOFFSET	QUANT	0	Vch Offset (V)
VCHFILTER	IQUANT	3	Vch Filter
ACHRANGE	IQUANT	2	Ach Range
ACHOFFSETENABLE	TOGGLE	F	Ach Offset Enable
ACHOFFSET	QUANT	0	Ach Offset (V)
ACHFILTER	IQUANT	3	Ach Filter
IERANGELOWERLIMIT	IQUANT	1	I/E Range Lower Limit
IERANGEMODE	TOGGLE	F	I/E AutoRange
IERANGE	IQUANT	5	I/E Range
POSFEEDENABLE	TOGGLE	F	Positive Feedback IR Comp
POSFEEDRESISTANCE	QUANT	0	Positive Feedback Resistance (ohm)
ACHSELECT	IQUANT	0	Ach Select
CABLEID	IQUANT	14	Cable ID
DCCALDATE	LABEL	8/19/2019	DC Calibration Date
ACCALDATE	LABEL	8/19/2019	AC Calibration Date
THERMOSELECT	IQUANT	1	Thermo Select
FRAMEWORKVERSION	QUANT	6.33	Framework Version
INSTRUMENTVERSION	LABEL	3.50	Instrument Version
ZCURVE	TABLE
	Pt	Time	Freq	Zreal	Zimag	Zsig	Zmod	Zphz	Idc	Vdc	IERange
	#	s	Hz	ohm	ohm	V	ohm	°	A	V	#
	0	2	1000078	2331.592	-1037.333	1	2551.937	-23.98443	3.033003E-006	0.0075842	8
	1	3	794390.6	2491.957	-940.5274	1	2663.54	-20.67777	-1.43033E-006	0.008123	8
	2	5	630984.4	2627.231	-844.8641	1	2759.735	-17.82673	2.008975E-006	0.0074596	8
	3	6	501234.4	2730.512	-752.4252	1	2832.285	-15.40618	-3.935216E-006	0.0086808	8
	4	8	398109.4	2816.95	-656.7278	1	2892.49	-13.12321	1.787998E-006	0.0075895	8
	5	9	316265.6	2893.295	-588.3699	1	2952.513	-11.49472	1.301568E-006	0.0075602	8
	6	10	251203.1	2936.85	-550.1589	1	2987.937	-10.61022	-4.627928E-006	0.0089318	8
	7	12	199546.9	2992.637	-506.2916	1	3035.162	-9.60233	-3.117607E-006	0.008516	8
	8	13	158578.1	3039.921	-481.2102	1	3077.773	-8.995108	3.103286E-006	0.0072516	8
	9	14	125953.1	3097.341	-447.7442	1	3129.536	-8.225561	-1.111701E-009	0.0078242	7
	10	16	100078.1	3134.573	-418.7906	1	3162.425	-7.609864	3.906236E-008	0.0077026	7
	11	17	79453.13	3177.382	-436.1838	1	3207.181	-7.816578	-1.642334E-008	0.007872	7
	12	19	63140.62	3224.889	-459.5629	1	3257.47	-8.11033	-7.976793E-008	0.007948	7
	13	20	50203.12	3277.874	-490.2989	1	3314.34	-8.507136	-4.39599E-008	0.0078409	7
	14	21	39890.62	3335.742	-526.3112	1	3377.008	-8.966175	-1.466219E-008	0.0079517	7
	15	23	31640.63	3398.329	-569.7584	1	3445.761	-9.5176	1.227902E-008	0.0077447	7
	16	24	25171.88	3466.648	-619.9417	1	3521.644	-10.13904	-1.349792E-008	0.0078654	7
	17	25	20015.62	3542.583	-682.074	1	3607.647	-10.89813	8.860505E-008	0.0077522	7
	18	27	15890.62	3621.225	-739.7643	1	3696.015	-11.54584	-4.484128E-008	0.0078429	7
	19	28	12609.37	3707.701	-815.7598	1	3796.382	-12.40838	8.364967E-008	0.0076414	7
	20	29	10078.13	3797.786	-897.7465	1	3902.451	-13.29983	8.332465E-008	0.007642	7
	21	31	8015.625	3891.628	-991.547	1	4015.96	-14.29423	7.02791E-008	0.0076989	7
	22	32	6328.125	3999.688	-1110.827	1	4151.077	-15.52149	-4.134237E-008	0.0079008	7
	23	33	5015.625	4108.365	-1246.388	1	4293.268	-16.87665	-3.163792E-008	0.0078314	7
	24	35	3984.375	4226.712	-1405.49	1	4454.267	-18.39329	-3.18739E-008	0.0078311	7
	25	36	3170.956	4332.572	-1598.492	1	4618.047	-20.25142	-2.123182E-008	0.0078766	7
	26	38	2527.573	4444.682	-1831.215	1	4807.135	-22.39173	2.418899E-011	0.0078243	7
	27	39	1976.103	4574.388	-2146.091	1	5052.794	-25.13379	-5.523428E-009	0.0078543	7
	28	40	1577.524	4683.201	-2528.313	1	5322.099	-28.36321	4.009374E-008	0.0077727	7
	29	42	1265.625	4813.125	-2947.361	1	5643.855	-31.4816	8.936294E-008	0.0077482	7
	30	43	998.264	4961.491	-3534.536	1	6091.744	-35.46584	-3.811885E-008	0.0078307	7
	31	44	796.875	5112.914	-4236.36	1	6639.927	-39.64381	1.338627E-007	0.0076073	7
	32	46	627.7902	5294.303	-5155.163	1	7389.543	-44.23712	1.346792E-007	0.0076042	7
	33	47	505.5147	5502.143	-6192.268	1	8283.584	-48.37729	-3.772939E-008	0.0078533	7
	34	48	397.9953	5764.554	-7612.144	1	9548.55	-52.86394	4.862486E-009	0.0078271	7
	35	50	315.5048	6081.668	-9317.764	1	11126.88	-56.86767	9.281627E-010	0.0077632	6
	36	51	252.4038	6453.979	-11342.29	1	13049.96	-60.3593	-1.926892E-010	0.0077615	6
	37	53	198.6229	6958.373	-14021.03	1	15652.74	-63.60566	6.47673E-010	0.0077623	6
	38	54	158.3615	7556.364	-17144.41	1	18735.78	-66.21461	-2.746925E-010	0.007761	6
	39	55	125.558	8356.699	-21074.4	1	22670.79	-68.37003	2.940672E-010	0.0077616	6
	40	57	100.4464	9339.809	-25646.41	1	27294.14	-69.98959	1.672396E-009	0.0077618	6
	41	58	79.00281	10711.59	-31918.13	1	33667.57	-71.44847	1.148922E-009	0.007763	6
	42	60	63.3446	11653.05	-38894.45	1	40602.61	-73.32141	5.545228E-010	0.0077623	6
	43	61	49.86702	14779.36	-47070.89	1	49336.59	-72.5687	1.518632E-009	0.0077597	6
	44	62	39.72458	17501.56	-57891.77	1	60479.43	-73.17913	7.423603E-010	0.0077594	6
	45	64	31.6723	21531.57	-70389.83	1	73609.35	-72.99163	9.364931E-010	0.0077573	6
	46	65	24.93351	26371.74	-86444.9	1	90378.03	-73.03463	3.101587E-010	0.0077573	6
	47	67	19.86229	32790.03	-104533	1	109555.1	-72.58434	-2.150436E-011	0.0077628	5
	48	68	15.83615	41880.98	-126773.4	1	133512.2	-71.71846	-7.874315E-010	0.0077596	5
	49	69	12.40079	52100.58	-155351.8	1	163855.6	-71.46001	1.673594E-009	0.0077686	5
	50	71	9.93114	68019.19	-182076	1	194366.4	-69.51553	8.202293E-010	0.0077687	5
	51	72	7.944915	86963.74	-216570.7	1	233378.6	-68.12212	6.027887E-010	0.0077749	5
	52	74	6.317385	107996.4	-254934.5	1	276866.1	-67.04131	-3.178072E-011	0.0077685	5
	53	76	5.008013	136427.7	-300203.7	1	329749.6	-65.56055	-1.618547E-010	0.0077683	5
	54	79	3.945707	173164.2	-350206.8	1	390679.7	-63.68932	2.911858E-010	0.0077704	5
	55	82	3.158693	211944.3	-403677.1	1	455933.7	-62.29898	-5.081997E-011	0.007755	5
	56	85	2.504006	259087.7	-464272.2	1	531672	-60.83625	2.74954E-010	0.0077764	5
	57	88	1.998082	310836.6	-528694.1	1	613299.9	-59.54733	3.866227E-010	0.0077506	5
	58	91	1.584686	371885.6	-604451.9	1	709690.8	-58.39833	-3.063956E-011	0.0077212	5
	59	94	1.266892	434497	-684329	1	810613.3	-57.58755	2.306893E-010	0.0077468	5
	60	99	0.999041	508869	-784077.7	1	934732.9	-57.0163	-8.076701E-011	0.0077759	5
