EXPLAIN
TAG	EISPOT
TITLE	LABEL	Potentiostatic EIS	Test &Identifier
DATE	LABEL	9/26/2019	Date
TIME	LABEL	9:45:37	Time
NOTES	NOTES	2	&Notes...
	
	
PSTAT	PSTAT	REF600-11020	Potentiostat
VDC	POTEN	0.00000E+000	T	DC &Voltage (V)
FREQINIT	QUANT	1.00000E+006	Initial Fre&q. (Hz)
FREQFINAL	QUANT	1.00000E+000	Final Fre&q. (Hz)
PTSPERDEC	QUANT	1.00000E+001	Points/&decade
VAC	QUANT	2.50000E+001	AC &Voltage (mV rms)
AREA	QUANT	1.00000E-002	&Area (cm^2)
CONDIT	TWOPARAM	T	5.00000E+000	0.00000E+000	Conditionin&g	Time(s)	E(V)
DELAY	TWOPARAM	T	5.00000E+000	0.00000E+000	Init. De&lay	Time(s)	Stab.(mV/s)
SPEED	SELECTOR	1	&Optimize for:
ZGUESS	QUANT	1.00000E+004	E&stimated Z (ohms)
OCVCURVE	TABLE	19
	Pt	T	Vf	Vm	Ach	Over
	#	s	V vs. Ref.	V	V	bits
	0	0.258333	1.36546E-001	1.36546E-001	5.55999E-004	...........
	1	0.516667	1.37083E-001	1.64659E-001	5.52333E-004	...........
	2	0.775	1.39516E-001	1.46008E-001	5.49033E-004	...........
	3	1.03333	1.44271E-001	1.67363E-001	5.54233E-004	...........
	4	1.29167	1.50379E-001	1.82525E-001	5.52499E-004	...........
	5	1.55	1.57819E-001	1.89134E-001	5.55866E-004	...........
	6	1.80833	1.67019E-001	1.89674E-001	5.54099E-004	...........
	7	2.06667	1.76183E-001	1.74562E-001	5.49299E-004	...........
	8	2.325	1.82156E-001	1.83468E-001	5.53166E-004	...........
	9	2.58333	1.83879E-001	1.83796E-001	5.49066E-004	...........
	10	2.84167	1.83674E-001	2.00472E-001	5.47633E-004	...........
	11	3.1	1.85031E-001	2.09129E-001	5.51866E-004	...........
	12	3.35833	1.89817E-001	2.13983E-001	5.51633E-004	...........
	13	3.61667	1.97274E-001	2.17410E-001	5.52999E-004	...........
	14	3.875	2.05135E-001	2.20283E-001	5.52799E-004	...........
	15	4.13333	2.11658E-001	2.23060E-001	5.46499E-004	...........
	16	4.39167	2.16459E-001	2.25469E-001	5.52999E-004	...........
	17	4.65	2.19982E-001	2.27772E-001	5.50133E-004	...........
	18	4.90833	2.22792E-001	2.29962E-001	5.50066E-004	...........
EOC	QUANT	0.2227919	Open Circuit (V)
PSTATMODEL	IQUANT	4	Pstat Model
PSTATSECTION	LABEL	REF600-11020	Pstat Section
PSTATSERIALNO	LABEL	11020	Pstat Serial Number
CTRLMODE	IQUANT	1	Control Mode
IESTAB	IQUANT	0	I/E Stability
CASPEED	IQUANT	1	Control Amp Speed
CONVENTION	IQUANT	1	Current Convention
ICHRANGE	IQUANT	2	Ich Range
ICHRANGEMODE	TOGGLE	F	Ich Auto Range
ICHOFFSETENABLE	TOGGLE	T	Ich Offset Enable
ICHOFFSET	QUANT	0	Ich Offset (V)
ICHFILTER	IQUANT	3	Ich Filter
VCHRANGE	IQUANT	2	Vch Range
VCHRANGEMODE	TOGGLE	F	Vch Auto Range
VCHOFFSETENABLE	TOGGLE	T	Vch Offset Enable
VCHOFFSET	QUANT	0	Vch Offset (V)
VCHFILTER	IQUANT	3	Vch Filter
ACHRANGE	IQUANT	2	Ach Range
ACHOFFSETENABLE	TOGGLE	F	Ach Offset Enable
ACHOFFSET	QUANT	0	Ach Offset (V)
ACHFILTER	IQUANT	3	Ach Filter
IERANGELOWERLIMIT	IQUANT	1	I/E Range Lower Limit
IERANGEMODE	TOGGLE	F	I/E AutoRange
IERANGE	IQUANT	7	I/E Range
POSFEEDENABLE	TOGGLE	F	Positive Feedback IR Comp
POSFEEDRESISTANCE	QUANT	0	Positive Feedback Resistance (ohm)
ACHSELECT	IQUANT	0	Ach Select
CABLEID	IQUANT	14	Cable ID
DCCALDATE	LABEL	8/19/2019	DC Calibration Date
ACCALDATE	LABEL	8/19/2019	AC Calibration Date
THERMOSELECT	IQUANT	1	Thermo Select
FRAMEWORKVERSION	QUANT	6.33	Framework Version
INSTRUMENTVERSION	LABEL	3.50	Instrument Version
ZCURVE	TABLE
	Pt	Time	Freq	Zreal	Zimag	Zsig	Zmod	Zphz	Idc	Vdc	IERange
	#	s	Hz	ohm	ohm	V	ohm	°	A	V	#
	0	1	1000078	1859.435	-2474.846	1	3095.539	-53.08124	-2.715417E-006	0.2253392	8
	1	3	794390.6	2270.441	-2778.535	1	3588.197	-50.74651	8.743369E-007	0.2247913	8
	2	4	630984.4	2802.568	-3029.913	1	4127.319	-47.2322	-6.786489E-007	0.2245172	8
	3	6	501234.4	3359.635	-3248.524	1	4673.334	-44.0367	-3.495105E-006	0.22519	8
	4	7	398109.4	4006.908	-3379.625	1	5241.868	-40.14595	2.214162E-007	0.2244839	8
	5	9	316265.6	4664.084	-3408.651	1	5776.901	-36.16045	3.232298E-006	0.2236648	8
	6	10	251203.1	5332.444	-3359.938	1	6302.709	-32.21476	-3.336257E-006	0.2249925	8
	7	12	199546.9	5988.672	-3141.713	1	6762.733	-27.68192	-4.269261E-006	0.2253172	8
	8	14	158578.1	6492.252	-2989.76	1	7147.587	-24.72663	1.023576E-006	0.2240871	8
	9	15	125953.1	7034.288	-2583.421	1	7493.682	-20.16632	1.467984E-006	0.2215336	7
	10	17	100078.1	7391.732	-2322.631	1	7748.053	-17.44377	-3.539699E-010	0.2242099	7
	11	19	79453.13	7692.392	-2076.889	1	7967.833	-15.10918	-9.281855E-008	0.2244218	7
	12	20	63140.62	7922.609	-1841.677	1	8133.85	-13.08647	-3.978007E-008	0.2242663	7
	13	22	50203.12	8115.35	-1642.095	1	8279.817	-11.43903	-5.10906E-008	0.2242964	7
	14	23	39890.62	8270.559	-1469.737	1	8400.135	-10.07667	7.800396E-008	0.2240938	7
	15	25	31640.63	8397.161	-1337.552	1	8503.021	-9.050395	-7.717568E-009	0.2243088	7
	16	27	25171.88	8496.356	-1231.198	1	8585.099	-8.245276	1.162643E-009	0.2241905	7
	17	28	20015.62	8592.757	-1165.599	1	8671.452	-7.724962	9.697241E-008	0.2241929	7
	18	30	15890.62	8673.734	-1128.494	1	8746.838	-7.412816	-8.365788E-009	0.2243072	7
	19	31	12609.37	8785.56	-1005.736	1	8842.938	-6.530568	-1.872634E-008	0.2243011	6
	20	33	10078.13	8855.82	-1043.821	1	8917.125	-6.722343	-4.896602E-009	0.2243303	6
	21	34	8015.625	8921.025	-1112.306	1	8990.102	-7.107167	-1.717537E-008	0.2242916	6
	22	36	6328.125	8993.605	-1212.986	1	9075.036	-7.681247	-3.11053E-009	0.2240771	6
	23	37	5015.625	9074.299	-1346.543	1	9173.662	-8.440577	-5.360899E-009	0.2243259	6
	24	39	3984.375	9158.159	-1516.505	1	9282.869	-9.402326	-1.544929E-008	0.2243671	6
	25	41	3170.956	9251.843	-1728.989	1	9412.014	-10.58536	1.208812E-008	0.2239518	6
	26	42	2527.573	9353.23	-1992.63	1	9563.13	-12.0266	-1.478686E-008	0.224256	6
	27	44	1976.103	9481.418	-2350.253	1	9768.37	-13.92186	-9.04333E-009	0.2243277	6
	28	45	1577.524	9609.5	-2755.204	1	9996.68	-15.99849	-1.65264E-008	0.2243101	6
	29	47	1265.625	9756.25	-3233.602	1	10278.16	-18.33722	6.437594E-010	0.2240421	6
	30	48	998.264	9941.86	-3866.163	1	10667.13	-21.24993	-1.162034E-008	0.2241162	6
	31	50	796.875	10143.13	-4599.172	1	11137.12	-24.39083	-3.688359E-009	0.2242794	6
	32	51	627.7902	10396.78	-5545.147	1	11783.11	-28.07333	-1.353396E-008	0.224301	6
	33	53	505.5147	10661.95	-6597.334	1	12538.02	-31.74813	-1.532001E-008	0.2244239	6
	34	54	397.9953	11018.97	-8002.351	1	13618.2	-35.98844	-6.079817E-009	0.2242286	6
	35	55	315.5048	11420.66	-9684.25	1	14973.85	-40.29656	-5.819985E-009	0.2242245	6
	36	57	252.4038	11877.1	-11661.67	1	16645.12	-44.47564	-6.908181E-009	0.2242266	6
	37	58	198.6229	12471.95	-14266	1	18949.1	-48.83864	-6.444065E-009	0.224231	6
	38	59	158.3615	13158.1	-17289.78	1	21727.21	-52.72765	-6.942293E-009	0.2242252	6
	39	61	125.558	14025.98	-21099.65	1	25336.21	-56.38605	-5.889196E-009	0.2242265	6
	40	62	100.4464	15108.63	-25582.8	1	29711.12	-59.43485	-6.549861E-009	0.2242274	6
	41	63	79.00281	16484.87	-31395.79	1	35460.49	-62.29754	-5.160736E-009	0.2242302	6
	42	65	63.3446	18423.53	-37643.24	1	41909.9	-63.92173	-6.034752E-009	0.2242256	6
	43	66	49.86702	20607.16	-47366.13	1	51654.68	-66.48801	-5.289657E-009	0.2242248	6
	44	68	39.72458	23485.71	-57063.05	1	61707.13	-67.62917	-5.930949E-009	0.2242273	6
	45	69	31.6723	27437.91	-69353.46	1	74583.79	-68.41505	-5.962219E-009	0.224226	6
	46	70	24.93351	32851.26	-84573.77	1	90729.98	-68.77218	-5.952263E-009	0.2242236	6
	47	72	19.86229	39936.45	-102044	1	109580.6	-68.62637	-5.672651E-009	0.2242274	5
	48	73	15.83615	46930.89	-121839	1	130565.1	-68.93392	-4.271235E-009	0.2242327	5
	49	74	12.40079	61916.05	-147886.5	1	160324.7	-67.28226	-6.697682E-009	0.2242402	5
	50	76	9.93114	75869.64	-175898.6	1	191563.3	-66.66821	-6.124236E-009	0.2242424	5
	51	77	7.944915	94566.23	-208311.8	1	228771.9	-65.58363	-5.684049E-009	0.2242275	5
	52	79	6.317385	119668.4	-244452.8	1	272172.2	-63.9166	-5.541161E-009	0.2242199	5
	53	81	5.008013	151651.5	-285636.6	1	323398.3	-62.03507	-5.823363E-009	0.2242331	5
	54	84	3.945707	191567	-331548.6	1	382913	-59.9809	-5.646565E-009	0.2242341	5
	55	86	3.158693	236855.7	-376893.1	1	445139.3	-57.853	-5.70761E-009	0.2242217	5
	56	90	2.504006	292598.4	-426557	1	517266.5	-55.55167	-5.196683E-009	0.2242398	5
	57	92	1.998082	354972.2	-475202.6	1	593146.5	-53.24059	-5.04911E-009	0.224254	5
	58	95	1.584686	427050.3	-522811.3	1	675058.3	-50.75686	-5.235895E-009	0.2241895	5
	59	99	1.266892	502955.1	-572163.3	1	761796.9	-48.6832	-4.889364E-009	0.2242455	5
	60	103	0.999041	589067.5	-622205.4	1	856819.8	-46.5671	-5.463504E-009	0.2242006	5
