EXPLAIN
TAG	EISPOT
TITLE	LABEL	Potentiostatic EIS	Test &Identifier
DATE	LABEL	11/12/2019	Date
TIME	LABEL	23:25:31	Time
NOTES	NOTES	3	&Notes...
	
	
	
PSTAT	PSTAT	REF600-11020	Potentiostat
VDC	POTEN	0.00000E+000	T	DC &Voltage (V)
FREQINIT	QUANT	1.00000E+006	Initial Fre&q. (Hz)
FREQFINAL	QUANT	1.00000E+000	Final Fre&q. (Hz)
PTSPERDEC	QUANT	1.00000E+001	Points/&decade
VAC	QUANT	2.50000E+001	AC &Voltage (mV rms)
AREA	QUANT	1.00000E-002	&Area (cm^2)
CONDIT	TWOPARAM	T	5.00000E+000	0.00000E+000	Conditionin&g	Time(s)	E(V)
DELAY	TWOPARAM	T	5.00000E+000	0.00000E+000	Init. De&lay	Time(s)	Stab.(mV/s)
SPEED	SELECTOR	1	&Optimize for:
ZGUESS	QUANT	1.00000E+005	E&stimated Z (ohms)
OCVCURVE	TABLE	19
	Pt	T	Vf	Vm	Ach	Over
	#	s	V vs. Ref.	V	V	bits
	0	0.258333	9.04456E-003	9.04456E-003	5.55466E-004	...........
	1	0.516667	9.05808E-003	9.75205E-003	5.58966E-004	...........
	2	0.775	9.10128E-003	8.33995E-003	5.59199E-004	...........
	3	1.03333	9.13005E-003	9.01456E-003	5.58366E-004	...........
	4	1.29167	9.08284E-003	9.04481E-003	5.54999E-004	...........
	5	1.55	9.00286E-003	9.17585E-003	5.51199E-004	...........
	6	1.80833	8.98108E-003	9.20346E-003	5.59966E-004	...........
	7	2.06667	9.03335E-003	9.34224E-003	5.60366E-004	...........
	8	2.325	9.12672E-003	9.63470E-003	5.62132E-004	...........
	9	2.58333	9.24872E-003	9.84778E-003	5.58332E-004	...........
	10	2.84167	9.40671E-003	9.99520E-003	5.50166E-004	...........
	11	3.1	9.59133E-003	9.98656E-003	5.56399E-004	...........
	12	3.35833	9.76888E-003	1.01415E-002	5.60466E-004	...........
	13	3.61667	9.90596E-003	9.85241E-003	5.48533E-004	...........
	14	3.875	9.97976E-003	9.81477E-003	5.49066E-004	...........
	15	4.13333	9.98438E-003	9.97680E-003	5.48299E-004	...........
	16	4.39167	9.95662E-003	1.02714E-002	5.53566E-004	...........
	17	4.65	9.96730E-003	1.04828E-002	5.57432E-004	...........
	18	4.90833	1.00606E-002	1.05661E-002	5.51266E-004	...........
EOC	QUANT	0.0100606	Open Circuit (V)
PSTATMODEL	IQUANT	4	Pstat Model
PSTATSECTION	LABEL	REF600-11020	Pstat Section
PSTATSERIALNO	LABEL	11020	Pstat Serial Number
CTRLMODE	IQUANT	1	Control Mode
IESTAB	IQUANT	0	I/E Stability
CASPEED	IQUANT	1	Control Amp Speed
CONVENTION	IQUANT	1	Current Convention
ICHRANGE	IQUANT	2	Ich Range
ICHRANGEMODE	TOGGLE	F	Ich Auto Range
ICHOFFSETENABLE	TOGGLE	T	Ich Offset Enable
ICHOFFSET	QUANT	0	Ich Offset (V)
ICHFILTER	IQUANT	3	Ich Filter
VCHRANGE	IQUANT	2	Vch Range
VCHRANGEMODE	TOGGLE	F	Vch Auto Range
VCHOFFSETENABLE	TOGGLE	T	Vch Offset Enable
VCHOFFSET	QUANT	0	Vch Offset (V)
VCHFILTER	IQUANT	3	Vch Filter
ACHRANGE	IQUANT	2	Ach Range
ACHOFFSETENABLE	TOGGLE	F	Ach Offset Enable
ACHOFFSET	QUANT	0	Ach Offset (V)
ACHFILTER	IQUANT	3	Ach Filter
IERANGELOWERLIMIT	IQUANT	1	I/E Range Lower Limit
IERANGEMODE	TOGGLE	F	I/E AutoRange
IERANGE	IQUANT	5	I/E Range
POSFEEDENABLE	TOGGLE	F	Positive Feedback IR Comp
POSFEEDRESISTANCE	QUANT	0	Positive Feedback Resistance (ohm)
ACHSELECT	IQUANT	0	Ach Select
CABLEID	IQUANT	14	Cable ID
DCCALDATE	LABEL	8/19/2019	DC Calibration Date
ACCALDATE	LABEL	8/19/2019	AC Calibration Date
THERMOSELECT	IQUANT	1	Thermo Select
FRAMEWORKVERSION	QUANT	6.33	Framework Version
INSTRUMENTVERSION	LABEL	3.50	Instrument Version
ZCURVE	TABLE
	Pt	Time	Freq	Zreal	Zimag	Zsig	Zmod	Zphz	Idc	Vdc	IERange
	#	s	Hz	ohm	ohm	V	ohm	°	A	V	#
	0	2	1000078	2172.606	-1553.555	1	2670.908	-35.56723	7.445639E-007	0.0128018	8
	1	3	794390.6	2493.705	-1499.535	1	2909.84	-31.01967	-4.587844E-006	0.0125595	8
	2	4	630984.4	2775.041	-1400.277	1	3108.316	-26.77538	7.426279E-007	0.0114294	8
	3	6	501234.4	3010.414	-1266.864	1	3266.119	-22.82268	-5.892278E-006	0.0124759	8
	4	7	398109.4	3185.623	-1117.323	1	3375.885	-19.32777	2.760636E-007	0.0113143	8
	5	9	316265.6	3339.459	-995.112	1	3484.572	-16.59332	-1.258922E-006	0.0119233	8
	6	10	251203.1	3462.921	-880.503	1	3573.109	-14.26606	-1.40428E-006	0.011336	8
	7	11	199546.9	3548.265	-780.5769	1	3633.109	-12.40678	3.591787E-006	0.0115007	8
	8	13	158578.1	3633.318	-706.4069	1	3701.352	-11.00245	-1.474369E-006	0.0113331	8
	9	14	125953.1	3709.086	-571.7172	1	3752.89	-8.762587	-9.380373E-007	0.0125596	7
	10	15	100078.1	3759.815	-523.2729	1	3796.054	-7.923255	9.293508E-007	0.010845	7
	11	17	79453.13	3807.332	-491.6054	1	3838.939	-7.357363	7.111946E-007	0.0098733	7
	12	18	63140.62	3852.042	-471.3785	1	3880.776	-6.97666	1.005342E-006	0.0104481	7
	13	20	50203.12	3892.21	-457.2393	1	3918.975	-6.70014	-5.681376E-007	0.0129564	7
	14	21	39890.62	3932.962	-455.8017	1	3959.286	-6.610672	-8.202829E-007	0.0130309	7
	15	22	31640.63	3977.738	-467.375	1	4005.102	-6.701396	8.972339E-007	0.0099408	7
	16	24	25171.88	4019.222	-485.9985	1	4048.499	-6.89465	4.4363E-007	0.009963	7
	17	25	20015.62	4064.56	-516.8683	1	4097.292	-7.247101	1.008913E-006	0.0104432	7
	18	26	15890.62	4108.535	-559.5877	1	4146.468	-7.756034	7.128089E-007	0.0098615	7
	19	28	12609.37	4156.915	-615.0798	1	4202.173	-8.416726	3.587372E-007	0.0119726	7
	20	29	10078.13	4209.506	-686.3633	1	4265.095	-9.26063	8.966824E-007	0.0099391	7
	21	31	8015.625	4265.746	-776.6439	1	4335.87	-10.31855	5.643683E-007	0.0116724	7
	22	32	6328.125	4327.135	-887.0303	1	4417.117	-11.58472	7.680601E-007	0.0112749	7
	23	33	5015.625	4389.798	-1022.731	1	4507.362	-13.11477	-2.645837E-007	0.0127289	7
	24	35	3984.375	4466.144	-1177.806	1	4618.839	-14.77362	6.763809E-008	0.0123683	7
	25	36	3170.956	4536.993	-1392.719	1	4745.943	-17.06489	-2.647994E-007	0.0127314	7
	26	38	2527.573	4626.43	-1643.465	1	4909.667	-19.55677	1.008815E-006	0.0104449	7
	27	39	1976.103	4729.126	-1974.367	1	5124.721	-22.66009	8.976903E-007	0.0099321	7
	28	40	1577.524	4819.842	-2369.339	1	5370.721	-26.17782	6.907112E-008	0.0123561	7
	29	42	1265.625	4958.98	-2793.304	1	5691.576	-29.39178	-1.12298E-006	0.0128081	7
	30	43	998.264	5116.22	-3379.495	1	6131.614	-33.44657	5.634406E-007	0.0116609	7
	31	44	796.875	5285.391	-4062.343	1	6666.183	-37.54582	-6.698937E-007	0.0113259	7
	32	46	627.7902	5504.793	-4944.5	1	7399.381	-41.93073	3.608696E-007	0.0119662	7
	33	47	505.5147	5723.449	-5929.293	1	8241.019	-46.01202	4.429525E-007	0.0099568	7
	34	49	397.9953	6027.08	-7245.397	1	9424.515	-50.24464	1.784456E-009	0.0115106	7
	35	50	315.5048	6374.849	-8825.908	1	10887.39	-54.15987	9.636301E-010	0.0114487	6
	36	52	252.4038	6772.498	-10687.31	1	12652.48	-57.63775	-1.071754E-012	0.0114463	6
	37	53	198.6229	7293.678	-13149.4	1	15036.77	-60.98386	2.726233E-010	0.0114502	6
	38	54	158.3615	7906.421	-16018.55	1	17863.52	-63.73002	-4.260494E-010	0.0114414	6
	39	56	125.558	8694.8	-19631.52	1	21470.82	-66.11144	-3.357553E-011	0.0114446	6
	40	57	100.4464	9649.15	-23869.38	1	25745.94	-67.98908	-2.291744E-010	0.0114508	6
	41	59	79.00281	11026.11	-29526.54	1	31518.12	-69.52284	9.210255E-010	0.0114396	6
	42	60	63.3446	12523.14	-35534.3	1	37676.46	-70.58632	-4.206013E-010	0.0114482	6
	43	61	49.86702	15264.94	-43908.45	1	46486.24	-70.8298	-5.671797E-010	0.0114363	6
	44	63	39.72458	18060.83	-53478.24	1	56445.69	-71.33899	4.422581E-011	0.011449	6
	45	64	31.6723	21992.7	-64717.21	1	68352.01	-71.23081	-9.266032E-010	0.0114498	6
	46	66	24.93351	27539.46	-79212.22	1	83862.97	-70.82913	4.03983E-010	0.0114475	6
	47	67	19.86229	34468.14	-95397.7	1	101433.6	-70.1347	-3.611226E-010	0.0114561	6
	48	68	15.83615	43414.81	-114179.9	1	122155.2	-69.1816	-5.483972E-010	0.011447	5
	49	70	12.40079	56263.23	-137505.6	1	148571	-67.74708	7.618941E-010	0.0114536	5
	50	71	9.93114	71457.14	-161378.7	1	176491.4	-66.11664	-4.456771E-010	0.0114536	5
	51	73	7.944915	90828.7	-188256.9	1	209022.8	-64.24399	2.413587E-010	0.0114557	5
	52	75	6.317385	113562.5	-218471.7	1	246224.1	-62.5344	-8.471344E-011	0.0114439	5
	53	77	5.008013	142172.8	-251844	1	289203.2	-60.55409	-2.041141E-011	0.0114549	5
	54	79	3.945707	176601.8	-287771.8	1	337640	-58.46311	-4.911662E-010	0.0114382	5
	55	82	3.158693	213103.6	-323339.2	1	387248.5	-56.61226	4.118513E-011	0.0114632	5
	56	85	2.504006	255665	-363309.9	1	444250.7	-54.86555	-3.00173E-010	0.0114391	5
	57	88	1.998082	300003.7	-404683.2	1	503756.6	-53.44936	-5.228347E-010	0.0114726	5
	58	91	1.584686	349733.7	-452362.9	1	571791.8	-52.29145	2.249334E-011	0.0114802	5
	59	95	1.266892	401995.5	-502848.4	1	643783.3	-51.35987	-2.206206E-010	0.0114904	5
	60	99	0.999041	458319.3	-563255.3	1	726163.3	-50.86485	6.612957E-011	0.0114083	5
