EXPLAIN
TAG	EISPOT
TITLE	LABEL	Potentiostatic EIS	Test &Identifier
DATE	LABEL	10/20/2019	Date
TIME	LABEL	9:28:41	Time
NOTES	NOTES	1	&Notes...
	
PSTAT	PSTAT	REF600-11020	Potentiostat
VDC	POTEN	0.00000E+000	T	DC &Voltage (V)
FREQINIT	QUANT	1.00000E+006	Initial Fre&q. (Hz)
FREQFINAL	QUANT	1.00000E+000	Final Fre&q. (Hz)
PTSPERDEC	QUANT	1.00000E+001	Points/&decade
VAC	QUANT	2.50000E+001	AC &Voltage (mV rms)
AREA	QUANT	1.00000E-002	&Area (cm^2)
CONDIT	TWOPARAM	T	5.00000E+000	0.00000E+000	Conditionin&g	Time(s)	E(V)
DELAY	TWOPARAM	T	5.00000E+000	0.00000E+000	Init. De&lay	Time(s)	Stab.(mV/s)
SPEED	SELECTOR	1	&Optimize for:
ZGUESS	QUANT	1.00000E+005	E&stimated Z (ohms)
OCVCURVE	TABLE	19
	Pt	T	Vf	Vm	Ach	Over
	#	s	V vs. Ref.	V	V	bits
	0	0.258333	7.49311E-003	7.49311E-003	5.74366E-004	...........
	1	0.516667	7.49306E-003	7.49061E-003	5.77599E-004	...........
	2	0.775	7.49308E-003	7.50470E-003	5.81099E-004	...........
	3	1.03333	7.49430E-003	7.52419E-003	5.82132E-004	...........
	4	1.29167	7.49928E-003	7.55739E-003	5.78999E-004	...........
	5	1.55	7.51099E-003	7.59725E-003	5.73699E-004	...........
	6	1.80833	7.53107E-003	7.62591E-003	5.71632E-004	...........
	7	2.06667	7.55871E-003	7.66870E-003	5.71532E-004	...........
	8	2.325	7.59166E-003	7.71643E-003	5.79899E-004	...........
	9	2.58333	7.62864E-003	7.76579E-003	5.75232E-004	...........
	10	2.84167	7.66955E-003	7.80900E-003	5.75532E-004	...........
	11	3.1	7.71372E-003	7.85554E-003	5.75432E-004	...........
	12	3.35833	7.75957E-003	7.90174E-003	5.79465E-004	...........
	13	3.61667	7.80588E-003	7.95138E-003	5.73466E-004	...........
	14	3.875	7.85228E-003	7.99002E-003	5.75032E-004	...........
	15	4.13333	7.89854E-003	8.04063E-003	5.75232E-004	...........
	16	4.39167	7.94436E-003	8.08269E-003	5.75432E-004	...........
	17	4.65	7.98980E-003	8.12981E-003	5.74765E-004	...........
	18	4.90833	8.03514E-003	8.17640E-003	5.70199E-004	...........
EOC	QUANT	0.0080351	Open Circuit (V)
PSTATMODEL	IQUANT	4	Pstat Model
PSTATSECTION	LABEL	REF600-11020	Pstat Section
PSTATSERIALNO	LABEL	11020	Pstat Serial Number
CTRLMODE	IQUANT	1	Control Mode
IESTAB	IQUANT	0	I/E Stability
CASPEED	IQUANT	1	Control Amp Speed
CONVENTION	IQUANT	1	Current Convention
ICHRANGE	IQUANT	2	Ich Range
ICHRANGEMODE	TOGGLE	F	Ich Auto Range
ICHOFFSETENABLE	TOGGLE	T	Ich Offset Enable
ICHOFFSET	QUANT	0	Ich Offset (V)
ICHFILTER	IQUANT	3	Ich Filter
VCHRANGE	IQUANT	2	Vch Range
VCHRANGEMODE	TOGGLE	F	Vch Auto Range
VCHOFFSETENABLE	TOGGLE	T	Vch Offset Enable
VCHOFFSET	QUANT	0	Vch Offset (V)
VCHFILTER	IQUANT	3	Vch Filter
ACHRANGE	IQUANT	2	Ach Range
ACHOFFSETENABLE	TOGGLE	F	Ach Offset Enable
ACHOFFSET	QUANT	0	Ach Offset (V)
ACHFILTER	IQUANT	3	Ach Filter
IERANGELOWERLIMIT	IQUANT	1	I/E Range Lower Limit
IERANGEMODE	TOGGLE	F	I/E AutoRange
IERANGE	IQUANT	5	I/E Range
POSFEEDENABLE	TOGGLE	F	Positive Feedback IR Comp
POSFEEDRESISTANCE	QUANT	0	Positive Feedback Resistance (ohm)
ACHSELECT	IQUANT	0	Ach Select
CABLEID	IQUANT	14	Cable ID
DCCALDATE	LABEL	8/19/2019	DC Calibration Date
ACCALDATE	LABEL	8/19/2019	AC Calibration Date
THERMOSELECT	IQUANT	1	Thermo Select
FRAMEWORKVERSION	QUANT	6.33	Framework Version
INSTRUMENTVERSION	LABEL	3.50	Instrument Version
ZCURVE	TABLE
	Pt	Time	Freq	Zreal	Zimag	Zsig	Zmod	Zphz	Idc	Vdc	IERange
	#	s	Hz	ohm	ohm	V	ohm	°	A	V	#
	0	2	1000078	2633.185	-1561.028	1	3061.123	-30.66068	-3.138418E-006	0.0112076	8
	1	3	794390.6	2925.27	-1445.923	1	3263.112	-26.30259	-3.007601E-006	0.0104993	8
	2	5	630984.4	3189.616	-1318.245	1	3451.292	-22.45494	1.999576E-006	0.0094537	8
	3	6	501234.4	3368.087	-1158.599	1	3561.792	-18.98287	2.807451E-006	0.009005	8
	4	7	398109.4	3520.446	-992.794	1	3657.756	-15.74888	-3.989864E-007	0.0095342	8
	5	9	316265.6	3643.659	-862.4676	1	3744.343	-13.31702	1.020014E-006	0.0092948	8
	6	10	251203.1	3725.651	-735.1198	1	3797.483	-11.16183	2.965649E-006	0.0089695	8
	7	12	199546.9	3791.775	-627.7128	1	3843.381	-9.399832	-3.345875E-007	0.0096957	8
	8	14	158578.1	3833.971	-541.2015	1	3871.981	-8.034758	-2.914674E-007	0.009701	8
	9	15	125953.1	3908.115	-424.3699	1	3931.088	-6.197287	-8.682558E-007	0.0116145	7
	10	16	100078.1	3934.014	-387.6072	1	3953.063	-5.627028	8.517486E-008	0.0093462	7
	11	18	79453.13	3960.647	-364.8009	1	3977.412	-5.26246	6.827884E-008	0.0094041	7
	12	19	63140.62	3990.057	-351.0066	1	4005.467	-5.027386	-1.727969E-008	0.0096701	7
	13	21	50203.12	4019.378	-347.6378	1	4034.384	-4.943236	1.22462E-008	0.0094464	7
	14	22	39890.62	4047.611	-350.6324	1	4062.77	-4.951001	1.233996E-008	0.009441	7
	15	23	31640.63	4078.937	-364.9668	1	4095.233	-5.112978	-1.799696E-008	0.0094854	7
	16	25	25171.88	4111.137	-387.5481	1	4129.363	-5.385236	-1.877211E-008	0.0095745	7
	17	26	20015.62	4149.226	-413.0755	1	4169.737	-5.685338	-1.975035E-008	0.0095711	7
	18	27	15890.62	4184.353	-458.9367	1	4209.445	-6.25914	-7.465852E-009	0.0095565	7
	19	29	12609.37	4226.784	-510.4087	1	4257.49	-6.885459	-5.526546E-009	0.0095619	7
	20	30	10078.13	4268.259	-573.7667	1	4306.651	-7.656168	-3.643701E-008	0.0095337	7
	21	32	8015.625	4318.297	-648.4155	1	4366.708	-8.539472	-8.210105E-008	0.0096496	7
	22	33	6328.125	4366.042	-746.5816	1	4429.414	-9.70358	3.992026E-008	0.0094698	7
	23	34	5015.625	4420.75	-863.573	1	4504.307	-11.05327	4.064696E-008	0.0094712	7
	24	36	3984.375	4471.153	-1006.654	1	4583.074	-12.68825	1.450362E-007	0.0092945	7
	25	37	3170.956	4534.887	-1184.413	1	4687.007	-14.63743	4.100479E-008	0.0094687	7
	26	38	2527.573	4598.365	-1399.784	1	4806.699	-16.93072	4.382549E-008	0.0093728	7
	27	40	1976.103	4674.985	-1694.09	1	4972.467	-19.91917	-4.113608E-008	0.0095409	7
	28	41	1577.524	4725.294	-2041.386	1	5147.394	-23.36495	-3.726212E-008	0.0095323	7
	29	43	1265.625	4832.369	-2430.45	1	5409.148	-26.7002	4.106105E-008	0.0094731	7
	30	44	998.264	4932.082	-2971.052	1	5757.828	-31.06447	-5.746002E-008	0.0096871	7
	31	45	796.875	5053.961	-3600.382	1	6205.262	-35.46562	9.099598E-008	0.0094536	7
	32	47	627.7902	5200.717	-4428.679	1	6830.861	-40.41611	1.458383E-008	0.0094349	7
	33	48	505.5147	5365.98	-5357.783	1	7582.848	-44.95621	-3.539157E-008	0.0095318	7
	34	49	397.9953	5590.464	-6626.69	1	8669.851	-49.84807	4.096764E-009	0.0095275	7
	35	51	315.5048	5864.29	-8150.444	1	10040.9	-54.26477	4.647902E-009	0.0095297	7
	36	52	252.4038	6197.066	-9948.17	1	11720.48	-58.07976	1.364708E-009	0.0094649	6
	37	54	198.6229	6655.633	-12322.98	1	14005.48	-61.62656	1.160047E-009	0.009464	6
	38	55	158.3615	7211.791	-15083.12	1	16718.57	-64.44584	1.682933E-009	0.0094607	6
	39	56	125.558	7944.07	-18556.61	1	20185.54	-66.82427	1.21624E-009	0.0094592	6
	40	58	100.4464	8816.816	-22609.4	1	24267.7	-68.69609	4.501591E-010	0.0094627	6
	41	59	79.00281	10075.41	-28026.92	1	29782.91	-70.22697	6.254191E-010	0.0094602	6
	42	60	63.3446	11486.95	-34419.25	1	36285.46	-71.54427	1.007927E-011	0.0094609	6
	43	62	49.86702	13551.74	-41377.13	1	43539.83	-71.86547	-8.687853E-010	0.0094604	6
	44	63	39.72458	16468.74	-50644.84	1	53255.23	-71.98646	7.071993E-010	0.0094653	6
	45	65	31.6723	20063.95	-61299.74	1	64499.77	-71.87627	5.627619E-010	0.0094616	6
	46	66	24.93351	24792.46	-75044.65	1	79033.95	-71.71803	4.521461E-010	0.0094604	6
	47	68	19.86229	30789.86	-90547.49	1	95639.2	-71.21986	7.392524E-010	0.0094639	6
	48	69	15.83615	37526.54	-108570.9	1	114873.3	-70.93276	8.446633E-010	0.0094672	5
	49	70	12.40079	49780.33	-130121.7	1	139318.8	-69.06477	2.529643E-009	0.009464	5
	50	72	9.93114	60814.44	-155492.2	1	166961.7	-68.63907	1.118053E-009	0.0094661	5
	51	73	7.944915	73759.55	-183419.5	1	197694.6	-68.09317	-7.996698E-010	0.009476	5
	52	75	6.317385	94101.35	-217602.4	1	237077.8	-66.61411	-2.007156E-010	0.0094763	5
	53	77	5.008013	118116.3	-256088.8	1	282015.8	-65.23936	-6.476805E-012	0.0094619	5
	54	79	3.945707	148475.5	-300377.1	1	335069.2	-63.69695	2.565252E-010	0.0094739	5
	55	82	3.158693	181729.9	-348379.9	1	392930.4	-62.45153	-1.346822E-010	0.009461	5
	56	86	2.504006	223625.6	-402273.2	1	460252.3	-60.9301	4.591666E-010	0.009468	5
	57	88	1.998082	270786.9	-459659.6	1	533490.8	-59.49752	-5.022974E-012	0.0095111	5
	58	92	1.584686	324359.4	-524718.1	1	616877.7	-58.27733	1.824649E-010	0.0094821	5
	59	95	1.266892	384848.6	-593500.8	1	707355.4	-57.03908	2.128159E-011	0.0095109	5
	60	99	0.999041	453558	-674362.5	1	812699	-56.07629	1.13556E-010	0.0094411	5
