EXPLAIN
TAG	EISPOT
TITLE	LABEL	Potentiostatic EIS	Test &Identifier
DATE	LABEL	10/6/2019	Date
TIME	LABEL	10:49:14	Time
NOTES	NOTES	2	&Notes...
	
	
PSTAT	PSTAT	REF600-11020	Potentiostat
VDC	POTEN	0.00000E+000	T	DC &Voltage (V)
FREQINIT	QUANT	1.00000E+006	Initial Fre&q. (Hz)
FREQFINAL	QUANT	1.00000E+000	Final Fre&q. (Hz)
PTSPERDEC	QUANT	1.00000E+001	Points/&decade
VAC	QUANT	2.50000E+001	AC &Voltage (mV rms)
AREA	QUANT	1.00000E-002	&Area (cm^2)
CONDIT	TWOPARAM	T	5.00000E+000	0.00000E+000	Conditionin&g	Time(s)	E(V)
DELAY	TWOPARAM	T	5.00000E+000	0.00000E+000	Init. De&lay	Time(s)	Stab.(mV/s)
SPEED	SELECTOR	1	&Optimize for:
ZGUESS	QUANT	1.00000E+004	E&stimated Z (ohms)
OCVCURVE	TABLE	19
	Pt	T	Vf	Vm	Ach	Over
	#	s	V vs. Ref.	V	V	bits
	0	0.258333	4.26489E-003	4.26489E-003	6.14465E-004	...........
	1	0.516667	4.26024E-003	4.02169E-003	6.09265E-004	...........
	2	0.775	4.23193E-003	3.80245E-003	6.04365E-004	...........
	3	1.03333	4.15302E-003	3.61655E-003	6.06965E-004	...........
	4	1.29167	4.01577E-003	3.46486E-003	6.11065E-004	...........
	5	1.55	3.84272E-003	3.37361E-003	6.10898E-004	...........
	6	1.80833	3.66820E-003	3.28391E-003	6.05465E-004	...........
	7	2.06667	3.51442E-003	3.09076E-003	6.21732E-004	...........
	8	2.325	3.38078E-003	3.00005E-003	6.13065E-004	...........
	9	2.58333	3.25659E-003	2.97459E-003	6.03065E-004	...........
	10	2.84167	3.14195E-003	2.88815E-003	6.07998E-004	...........
	11	3.1	3.04427E-003	2.80183E-003	6.08965E-004	...........
	12	3.35833	2.96193E-003	2.72156E-003	6.14832E-004	...........
	13	3.61667	2.88451E-003	2.59956E-003	6.04865E-004	...........
	14	3.875	2.80262E-003	2.50500E-003	6.12965E-004	...........
	15	4.13333	2.71309E-003	2.45135E-003	6.19098E-004	...........
	16	4.39167	2.62082E-003	2.38281E-003	6.13132E-004	...........
	17	4.65	2.53481E-003	2.34487E-003	6.05098E-004	...........
	18	4.90833	2.46104E-003	2.30454E-003	6.09632E-004	...........
EOC	QUANT	0.002461	Open Circuit (V)
PSTATMODEL	IQUANT	4	Pstat Model
PSTATSECTION	LABEL	REF600-11020	Pstat Section
PSTATSERIALNO	LABEL	11020	Pstat Serial Number
CTRLMODE	IQUANT	1	Control Mode
IESTAB	IQUANT	0	I/E Stability
CASPEED	IQUANT	1	Control Amp Speed
CONVENTION	IQUANT	1	Current Convention
ICHRANGE	IQUANT	2	Ich Range
ICHRANGEMODE	TOGGLE	F	Ich Auto Range
ICHOFFSETENABLE	TOGGLE	T	Ich Offset Enable
ICHOFFSET	QUANT	0	Ich Offset (V)
ICHFILTER	IQUANT	3	Ich Filter
VCHRANGE	IQUANT	2	Vch Range
VCHRANGEMODE	TOGGLE	F	Vch Auto Range
VCHOFFSETENABLE	TOGGLE	T	Vch Offset Enable
VCHOFFSET	QUANT	0	Vch Offset (V)
VCHFILTER	IQUANT	3	Vch Filter
ACHRANGE	IQUANT	2	Ach Range
ACHOFFSETENABLE	TOGGLE	F	Ach Offset Enable
ACHOFFSET	QUANT	0	Ach Offset (V)
ACHFILTER	IQUANT	3	Ach Filter
IERANGELOWERLIMIT	IQUANT	1	I/E Range Lower Limit
IERANGEMODE	TOGGLE	F	I/E AutoRange
IERANGE	IQUANT	5	I/E Range
POSFEEDENABLE	TOGGLE	F	Positive Feedback IR Comp
POSFEEDRESISTANCE	QUANT	0	Positive Feedback Resistance (ohm)
ACHSELECT	IQUANT	0	Ach Select
CABLEID	IQUANT	14	Cable ID
DCCALDATE	LABEL	8/19/2019	DC Calibration Date
ACCALDATE	LABEL	8/19/2019	AC Calibration Date
THERMOSELECT	IQUANT	1	Thermo Select
FRAMEWORKVERSION	QUANT	6.33	Framework Version
INSTRUMENTVERSION	LABEL	3.50	Instrument Version
ZCURVE	TABLE
	Pt	Time	Freq	Zreal	Zimag	Zsig	Zmod	Zphz	Idc	Vdc	IERange
	#	s	Hz	ohm	ohm	V	ohm	°	A	V	#
	0	1	1000078	2293.693	-1603.661	1	2798.706	-34.95975	-2.872166E-006	0.0057339	8
	1	3	794390.6	2618.789	-1547.478	1	3041.832	-30.57942	2.716753E-006	0.0042989	8
	2	4	630984.4	2899.711	-1444.675	1	3239.662	-26.4831	-3.28093E-006	0.0050331	8
	3	5	501234.4	3144.349	-1319.998	1	3410.18	-22.77267	5.777035E-006	0.0030609	8
	4	7	398109.4	3344.2	-1179.651	1	3546.16	-19.43006	-2.883072E-006	0.0046307	8
	5	8	316265.6	3503.111	-1032.693	1	3652.156	-16.42515	-1.978573E-006	0.0045002	8
	6	9	251203.1	3621.502	-913.2584	1	3734.878	-14.15356	4.923825E-006	0.0030527	8
	7	11	199546.9	3721.392	-798.8683	1	3806.172	-12.11577	7.103523E-007	0.004079	8
	8	12	158578.1	3801.584	-714.0459	1	3868.062	-10.63784	-1.183475E-006	0.0044956	8
	9	13	125953.1	3870.72	-593.2473	1	3915.919	-8.713651	-7.868185E-009	0.0042379	7
	10	15	100078.1	3921.36	-537.3336	1	3958.004	-7.802496	5.628659E-008	0.0039586	7
	11	16	79453.13	3968.099	-507.9705	1	4000.48	-7.29496	-1.094134E-008	0.0041024	7
	12	18	63140.62	4013.498	-490.8456	1	4043.401	-6.972574	-1.241498E-008	0.0040752	7
	13	19	50203.12	4058.506	-484.4404	1	4087.316	-6.806861	5.942922E-008	0.0039487	7
	14	20	39890.62	4103.084	-489.2285	1	4132.147	-6.799523	1.533723E-008	0.0041294	7
	15	22	31640.63	4151.512	-503.1855	1	4181.896	-6.910844	-5.894162E-008	0.0041167	7
	16	23	25171.88	4201.88	-527.552	1	4234.868	-7.156122	-9.295823E-009	0.0040244	7
	17	24	20015.62	4257.182	-558.7831	1	4293.697	-7.477701	4.488189E-008	0.00399	7
	18	26	15890.62	4315.24	-606.6036	1	4357.667	-8.001773	-4.074696E-008	0.0040414	7
	19	27	12609.37	4380.823	-664.5773	1	4430.945	-8.626084	1.228284E-007	0.0038567	7
	20	29	10078.13	4451.859	-729.8122	1	4511.283	-9.30993	-6.777878E-008	0.0041673	7
	21	30	8015.625	4533.169	-807.9993	1	4604.616	-10.10636	-2.805618E-008	0.0040274	7
	22	31	6328.125	4622.638	-900.5781	1	4709.545	-11.02422	-2.563867E-008	0.0040196	7
	23	33	5015.625	4722.24	-1008.278	1	4828.683	-12.05264	1.615142E-008	0.0041233	7
	24	34	3984.375	4825.14	-1128.786	1	4955.414	-13.1669	-1.092885E-008	0.0040589	7
	25	35	3170.956	4938.515	-1270.282	1	5099.27	-14.42489	4.92731E-008	0.0038878	7
	26	37	2527.573	5059.384	-1435.899	1	5259.199	-15.84442	-1.199774E-008	0.0040623	7
	27	38	1976.103	5192.484	-1645.012	1	5446.83	-17.57853	-7.872089E-008	0.0042725	7
	28	39	1577.524	5323.539	-1876.016	1	5644.422	-19.41247	-4.893872E-008	0.0041444	7
	29	41	1265.625	5444.96	-2148.964	1	5853.686	-21.53768	-3.088157E-008	0.0040257	7
	30	42	998.264	5582.571	-2516.338	1	6123.484	-24.26342	4.669481E-008	0.0039839	7
	31	44	796.875	5715.198	-2950.89	1	6432.048	-27.30836	-1.195681E-008	0.0040913	7
	32	45	627.7902	5871.587	-3530.747	1	6851.402	-31.01965	-5.028334E-008	0.0041448	7
	33	46	505.5147	6025.878	-4186.768	1	7337.59	-34.79149	-6.775661E-008	0.0041591	7
	34	48	397.9953	6223.202	-5090.056	1	8039.708	-39.28028	3.21454E-009	0.0040602	7
	35	49	315.5048	6452.202	-6187.875	1	8939.838	-43.80202	4.267712E-009	0.004058	7
	36	50	252.4038	6724.642	-7492.335	1	10067.57	-48.09087	9.675747E-010	0.0039933	6
	37	52	198.6229	7094.019	-9227.148	1	11638.96	-52.44619	5.98406E-010	0.00399	6
	38	53	158.3615	7546.104	-11250.67	1	13547	-56.14925	9.303723E-010	0.0039945	6
	39	54	125.558	8148.77	-13782.74	1	16011.45	-59.40715	6.111409E-010	0.0039955	6
	40	56	100.4464	8908.053	-16755.32	1	18976.15	-62.00243	-2.242397E-010	0.0039939	6
	41	57	79.00281	9990.61	-20600.46	1	22895.23	-64.12799	7.999476E-010	0.0039885	6
	42	59	63.3446	11341.05	-24812.11	1	27281.13	-65.43594	5.773397E-010	0.0039891	6
	43	60	49.86702	13092.59	-30595.8	1	33279.41	-66.83289	2.598743E-010	0.0039915	6
	44	61	39.72458	15283.56	-36854.41	1	39897.81	-67.47617	7.687306E-010	0.0039975	6
	45	63	31.6723	18139.68	-44434.64	1	47994.64	-67.7931	2.530126E-010	0.0039925	6
	46	64	24.93351	22043.6	-53798.58	1	58139.55	-67.71897	1.464328E-009	0.0039913	6
	47	65	19.86229	26838.34	-64333.39	1	69707.11	-67.35528	1.165461E-009	0.0039901	6
	48	67	15.83615	32754.54	-76285.67	1	83020.26	-66.76292	1.054372E-009	0.0039876	6
	49	68	12.40079	40504.98	-91532.88	1	100094.6	-66.12973	6.013042E-010	0.0039937	6
	50	70	9.93114	49602.2	-106929.9	1	117874.4	-65.11455	-1.70559E-010	0.003996	5
	51	71	7.944915	60251.67	-124674.9	1	138470.5	-64.2069	6.633078E-010	0.0039942	5
	52	73	6.317385	72640.3	-145098	1	162265.3	-63.40611	-8.252042E-011	0.0040088	5
	53	75	5.008013	87097.33	-168804.9	1	189950.1	-62.70787	-7.494311E-012	0.0039908	5
	54	77	3.945707	103489.5	-196581.8	1	222158.6	-62.23566	3.294978E-010	0.0040012	5
	55	80	3.158693	120452.4	-226978.5	1	256959.1	-62.04611	2.269164E-011	0.0040021	5
	56	83	2.504006	139476	-264468.8	1	298993.8	-62.19366	1.728271E-010	0.0039879	5
	57	86	1.998082	159612.5	-307862.5	1	346778.8	-62.59534	-1.333565E-011	0.0040172	5
	58	89	1.584686	183287.9	-363147.8	1	406781	-63.21901	1.871741E-010	0.0040476	5
	59	93	1.266892	209736.6	-425847	1	474694.7	-63.779	-3.332008E-011	0.004024	5
	60	97	0.999041	242021.1	-507945.9	1	562657.3	-64.52359	2.136793E-010	0.0039978	5
