EXPLAIN
TAG	EISPOT
TITLE	LABEL	Potentiostatic EIS	Test &Identifier
DATE	LABEL	10/22/2019	Date
TIME	LABEL	8:05:10	Time
NOTES	NOTES	1	&Notes...
	
PSTAT	PSTAT	REF600-11020	Potentiostat
VDC	POTEN	0.00000E+000	T	DC &Voltage (V)
FREQINIT	QUANT	1.00000E+006	Initial Fre&q. (Hz)
FREQFINAL	QUANT	1.00000E+000	Final Fre&q. (Hz)
PTSPERDEC	QUANT	1.00000E+001	Points/&decade
VAC	QUANT	2.50000E+001	AC &Voltage (mV rms)
AREA	QUANT	1.00000E-002	&Area (cm^2)
CONDIT	TWOPARAM	T	5.00000E+000	0.00000E+000	Conditionin&g	Time(s)	E(V)
DELAY	TWOPARAM	T	5.00000E+000	0.00000E+000	Init. De&lay	Time(s)	Stab.(mV/s)
SPEED	SELECTOR	1	&Optimize for:
ZGUESS	QUANT	1.00000E+005	E&stimated Z (ohms)
OCVCURVE	TABLE	19
	Pt	T	Vf	Vm	Ach	Over
	#	s	V vs. Ref.	V	V	bits
	0	0.258333	6.48254E-003	6.48254E-003	5.72666E-004	...........
	1	0.516667	6.48081E-003	6.39183E-003	5.72266E-004	...........
	2	0.775	6.47087E-003	6.34301E-003	5.74132E-004	...........
	3	1.03333	6.44541E-003	6.31018E-003	5.68599E-004	...........
	4	1.29167	6.40555E-003	6.27711E-003	5.70099E-004	...........
	5	1.55	6.36087E-003	6.26025E-003	5.70566E-004	...........
	6	1.80833	6.32059E-003	6.24876E-003	5.75932E-004	...........
	7	2.06667	6.28928E-003	6.24846E-003	5.70199E-004	...........
	8	2.325	6.26796E-003	6.24820E-003	5.71832E-004	...........
	9	2.58333	6.25557E-003	6.24842E-003	5.69132E-004	...........
	10	2.84167	6.25005E-003	6.26019E-003	5.74399E-004	...........
	11	3.1	6.24979E-003	6.28295E-003	5.67266E-004	...........
	12	3.35833	6.25463E-003	6.29120E-003	5.68266E-004	...........
	13	3.61667	6.26433E-003	6.30836E-003	5.71466E-004	...........
	14	3.875	6.27746E-003	6.33063E-003	5.69632E-004	...........
	15	4.13333	6.29269E-003	6.34723E-003	5.69599E-004	...........
	16	4.39167	6.30969E-003	6.37374E-003	5.69399E-004	...........
	17	4.65	6.32842E-003	6.39172E-003	5.74732E-004	...........
	18	4.90833	6.34865E-003	6.41699E-003	5.74266E-004	...........
EOC	QUANT	0.0063486	Open Circuit (V)
PSTATMODEL	IQUANT	4	Pstat Model
PSTATSECTION	LABEL	REF600-11020	Pstat Section
PSTATSERIALNO	LABEL	11020	Pstat Serial Number
CTRLMODE	IQUANT	1	Control Mode
IESTAB	IQUANT	0	I/E Stability
CASPEED	IQUANT	1	Control Amp Speed
CONVENTION	IQUANT	1	Current Convention
ICHRANGE	IQUANT	2	Ich Range
ICHRANGEMODE	TOGGLE	F	Ich Auto Range
ICHOFFSETENABLE	TOGGLE	T	Ich Offset Enable
ICHOFFSET	QUANT	0	Ich Offset (V)
ICHFILTER	IQUANT	3	Ich Filter
VCHRANGE	IQUANT	2	Vch Range
VCHRANGEMODE	TOGGLE	F	Vch Auto Range
VCHOFFSETENABLE	TOGGLE	T	Vch Offset Enable
VCHOFFSET	QUANT	0	Vch Offset (V)
VCHFILTER	IQUANT	3	Vch Filter
ACHRANGE	IQUANT	2	Ach Range
ACHOFFSETENABLE	TOGGLE	F	Ach Offset Enable
ACHOFFSET	QUANT	0	Ach Offset (V)
ACHFILTER	IQUANT	3	Ach Filter
IERANGELOWERLIMIT	IQUANT	1	I/E Range Lower Limit
IERANGEMODE	TOGGLE	F	I/E AutoRange
IERANGE	IQUANT	5	I/E Range
POSFEEDENABLE	TOGGLE	F	Positive Feedback IR Comp
POSFEEDRESISTANCE	QUANT	0	Positive Feedback Resistance (ohm)
ACHSELECT	IQUANT	0	Ach Select
CABLEID	IQUANT	14	Cable ID
DCCALDATE	LABEL	8/19/2019	DC Calibration Date
ACCALDATE	LABEL	8/19/2019	AC Calibration Date
THERMOSELECT	IQUANT	1	Thermo Select
FRAMEWORKVERSION	QUANT	6.33	Framework Version
INSTRUMENTVERSION	LABEL	3.50	Instrument Version
ZCURVE	TABLE
	Pt	Time	Freq	Zreal	Zimag	Zsig	Zmod	Zphz	Idc	Vdc	IERange
	#	s	Hz	ohm	ohm	V	ohm	°	A	V	#
	0	1	1000078	2411.924	-1318.922	1	2748.987	-28.67133	1.924629E-006	0.0075323	8
	1	3	794390.6	2661.352	-1220.304	1	2927.786	-24.63277	-7.267857E-007	0.0082513	8
	2	4	630984.4	2853.338	-1080.137	1	3050.94	-20.73427	-3.261492E-006	0.0087404	8
	3	6	501234.4	3003.729	-946.7025	1	3149.386	-17.49359	2.045817E-006	0.0073768	8
	4	7	398109.4	3130.53	-808.5605	1	3233.262	-14.482	2.537226E-006	0.0072646	8
	5	8	316265.6	3217.245	-706.4113	1	3293.886	-12.38393	-3.092321E-006	0.0084423	8
	6	10	251203.1	3282	-604.5823	1	3337.221	-10.43753	-2.787433E-006	0.0084686	8
	7	11	199546.9	3324.593	-515.8314	1	3364.372	-8.819476	3.754776E-006	0.0071845	8
	8	13	158578.1	3372.046	-458.8089	1	3403.116	-7.748225	-7.420749E-007	0.0081166	8
	9	14	125953.1	3418.552	-370.4434	1	3438.565	-6.18459	-5.202016E-007	0.0087235	7
	10	15	100078.1	3440.469	-332.306	1	3456.48	-5.516937	6.459461E-009	0.0077356	7
	11	17	79453.13	3465.448	-319.6566	1	3480.16	-5.270111	-9.699015E-009	0.0079115	7
	12	18	63140.62	3490.731	-315.2095	1	3504.934	-5.159757	-3.907017E-008	0.0078039	7
	13	19	50203.12	3518.732	-317.4566	1	3533.023	-5.155213	7.769018E-009	0.0077207	7
	14	21	39890.62	3545.846	-327.4621	1	3560.934	-5.276351	7.65034E-008	0.0076195	7
	15	22	31640.63	3575.652	-345.6301	1	3592.317	-5.521179	8.223541E-008	0.0077265	7
	16	23	25171.88	3606.222	-371.4196	1	3625.299	-5.880394	-1.358235E-008	0.0077533	7
	17	25	20015.62	3648.367	-418.9996	1	3672.348	-6.551476	-1.07835E-008	0.0077487	7
	18	26	15890.62	3677.186	-451.7781	1	3704.835	-7.004242	-1.939094E-008	0.0077552	7
	19	27	12609.37	3716.314	-505.7854	1	3750.574	-7.750262	-1.808139E-008	0.0077597	7
	20	29	10078.13	3759.162	-573.0543	1	3802.59	-8.667556	-6.712639E-009	0.0078217	7
	21	30	8015.625	3806.29	-658.212	1	3862.782	-9.81098	-5.397847E-008	0.0079495	7
	22	32	6328.125	3857.971	-758.8755	1	3931.899	-11.12819	7.656483E-009	0.0077205	7
	23	33	5015.625	3912.233	-884.6375	1	4011.004	-12.7415	-1.154069E-009	0.0077931	7
	24	34	3984.375	3971.532	-1054.37	1	4109.108	-14.86802	3.743086E-008	0.007738	7
	25	36	3170.956	4037.932	-1219.904	1	4218.182	-16.81015	3.773092E-008	0.0077447	7
	26	37	2527.573	4111.201	-1445.932	1	4358.061	-19.37705	-1.368166E-009	0.0077857	7
	27	38	1976.103	4200.977	-1744.501	1	4548.79	-22.5512	-7.310294E-008	0.0079016	7
	28	40	1577.524	4296.883	-2099.305	1	4782.289	-26.0385	-1.310104E-008	0.0077515	7
	29	41	1265.625	4397.797	-2480.565	1	5049.14	-29.42505	7.926E-008	0.0076193	7
	30	42	998.264	4524.08	-3004.642	1	5430.945	-33.5899	7.708784E-008	0.0076197	7
	31	44	796.875	4660.273	-3623.448	1	5903.179	-37.86573	-3.665891E-008	0.0078572	7
	32	45	627.7902	4829.689	-4424.566	1	6550.014	-42.49337	9.072489E-009	0.0077166	7
	33	47	505.5147	4999.559	-5325.171	1	7304.316	-46.80634	-3.734106E-008	0.0078594	7
	34	48	397.9953	5226.069	-6544.241	1	8374.896	-51.39	4.498555E-009	0.0077993	7
	35	49	315.5048	5489.078	-8020.358	1	9718.85	-55.61253	4.150808E-009	0.0077994	7
	36	51	252.4038	5802.938	-9768.72	1	11362.31	-59.28832	8.990221E-010	0.0077375	6
	37	52	198.6229	6218.913	-12093.23	1	13598.57	-62.78563	1.030341E-009	0.0077385	6
	38	53	158.3615	6723.432	-14809.38	1	16264.14	-65.58204	1.027479E-009	0.0077366	6
	39	55	125.558	7382.135	-18233.25	1	19670.98	-67.95835	9.370388E-010	0.0077424	6
	40	56	100.4464	8217.618	-22253.28	1	23722.09	-69.73199	1.44091E-009	0.0077367	6
	41	58	79.00281	9404.372	-27620.75	1	29177.87	-71.19721	-1.168633E-010	0.0077373	6
	42	59	63.3446	10508.23	-33594.81	1	35199.92	-72.63068	3.516867E-012	0.0077402	6
	43	60	49.86702	12961.1	-41340.94	1	43325.09	-72.59289	-3.831428E-012	0.007739	6
	44	62	39.72458	15355.12	-50565.79	1	52845.8	-73.10823	9.289063E-010	0.0077387	6
	45	63	31.6723	18604.6	-61302.83	1	64063.78	-73.11765	8.709474E-010	0.0077387	6
	46	64	24.93351	23177.69	-75363.91	1	78847.48	-72.90506	5.424389E-010	0.0077381	6
	47	66	19.86229	28932.29	-91041.09	1	95527.8	-72.37006	6.591253E-010	0.00774	6
	48	67	15.83615	36999.36	-109494.4	1	115576.7	-71.32932	-4.744098E-010	0.007741	5
	49	69	12.40079	46720.6	-133141.4	1	141100.9	-70.66354	-1.396753E-010	0.0077481	5
	50	70	9.93114	59048.3	-158446.7	1	169091.9	-69.5611	2.065346E-010	0.0077445	5
	51	72	7.944915	74358.4	-187355	1	201571.5	-68.35262	1.983989E-010	0.0077498	5
	52	73	6.317385	93690.15	-221070.8	1	240104.5	-67.0327	-2.672927E-010	0.0077516	5
	53	75	5.008013	117804	-260149.6	1	285579.4	-65.63747	-2.631443E-010	0.0077399	5
	54	78	3.945707	148328.8	-305007.1	1	339161.9	-64.06575	3.860364E-011	0.0077452	5
	55	81	3.158693	181816.9	-352029.4	1	396209.7	-62.68445	-7.577407E-011	0.0077325	5
	56	84	2.504006	222029.1	-406706.6	1	463365	-61.36901	4.997021E-011	0.0077491	5
	57	87	1.998082	266554.8	-465255.3	1	536203.3	-60.19068	2.344926E-010	0.0077249	5
	58	90	1.584686	320038.9	-535004.2	1	623421.5	-59.11219	-1.16391E-010	0.0076974	5
	59	93	1.266892	377086.8	-608448.1	1	715823.7	-58.21136	1.254137E-010	0.0077179	5
	60	98	0.999041	443817.8	-701032.8	1	829711.6	-57.66245	-2.107817E-010	0.0077628	5
