EXPLAIN
TAG	EISPOT
TITLE	LABEL	Potentiostatic EIS	Test &Identifier
DATE	LABEL	10/8/2019	Date
TIME	LABEL	8:22:25	Time
NOTES	NOTES	2	&Notes...
	
	
PSTAT	PSTAT	REF600-11020	Potentiostat
VDC	POTEN	0.00000E+000	T	DC &Voltage (V)
FREQINIT	QUANT	1.00000E+006	Initial Fre&q. (Hz)
FREQFINAL	QUANT	1.00000E+000	Final Fre&q. (Hz)
PTSPERDEC	QUANT	1.00000E+001	Points/&decade
VAC	QUANT	2.50000E+001	AC &Voltage (mV rms)
AREA	QUANT	1.00000E-002	&Area (cm^2)
CONDIT	TWOPARAM	T	5.00000E+000	0.00000E+000	Conditionin&g	Time(s)	E(V)
DELAY	TWOPARAM	T	5.00000E+000	0.00000E+000	Init. De&lay	Time(s)	Stab.(mV/s)
SPEED	SELECTOR	1	&Optimize for:
ZGUESS	QUANT	1.00000E+004	E&stimated Z (ohms)
OCVCURVE	TABLE	19
	Pt	T	Vf	Vm	Ach	Over
	#	s	V vs. Ref.	V	V	bits
	0	0.258333	9.91893E-003	9.91893E-003	5.57333E-004	...........
	1	0.516667	9.92271E-003	1.01168E-002	5.60599E-004	...........
	2	0.775	9.94623E-003	1.03204E-002	5.71566E-004	...........
	3	1.03333	1.00137E-002	1.05127E-002	5.73232E-004	...........
	4	1.29167	1.01364E-002	1.07068E-002	5.59966E-004	...........
	5	1.55	1.03024E-002	1.08936E-002	5.60866E-004	...........
	6	1.80833	1.04903E-002	1.10755E-002	5.73632E-004	...........
	7	2.06667	1.06831E-002	1.12460E-002	5.66666E-004	...........
	8	2.325	1.08723E-002	1.14171E-002	5.63166E-004	...........
	9	2.58333	1.10545E-002	1.15749E-002	5.71732E-004	...........
	10	2.84167	1.12309E-002	1.18039E-002	5.65099E-004	...........
	11	3.1	1.14048E-002	1.18849E-002	5.63666E-004	...........
	12	3.35833	1.15753E-002	1.20089E-002	5.57532E-004	...........
	13	3.61667	1.17343E-002	1.21581E-002	5.59866E-004	...........
	14	3.875	1.18784E-002	1.23011E-002	5.66599E-004	...........
	15	4.13333	1.20144E-002	1.24378E-002	5.63799E-004	...........
	16	4.39167	1.21501E-002	1.25742E-002	5.69032E-004	...........
	17	4.65	1.22873E-002	1.26985E-002	5.66399E-004	...........
	18	4.90833	1.24239E-002	1.28260E-002	5.68732E-004	...........
EOC	QUANT	0.0124239	Open Circuit (V)
PSTATMODEL	IQUANT	4	Pstat Model
PSTATSECTION	LABEL	REF600-11020	Pstat Section
PSTATSERIALNO	LABEL	11020	Pstat Serial Number
CTRLMODE	IQUANT	1	Control Mode
IESTAB	IQUANT	0	I/E Stability
CASPEED	IQUANT	1	Control Amp Speed
CONVENTION	IQUANT	1	Current Convention
ICHRANGE	IQUANT	2	Ich Range
ICHRANGEMODE	TOGGLE	F	Ich Auto Range
ICHOFFSETENABLE	TOGGLE	T	Ich Offset Enable
ICHOFFSET	QUANT	0	Ich Offset (V)
ICHFILTER	IQUANT	3	Ich Filter
VCHRANGE	IQUANT	2	Vch Range
VCHRANGEMODE	TOGGLE	F	Vch Auto Range
VCHOFFSETENABLE	TOGGLE	T	Vch Offset Enable
VCHOFFSET	QUANT	0	Vch Offset (V)
VCHFILTER	IQUANT	3	Vch Filter
ACHRANGE	IQUANT	2	Ach Range
ACHOFFSETENABLE	TOGGLE	F	Ach Offset Enable
ACHOFFSET	QUANT	0	Ach Offset (V)
ACHFILTER	IQUANT	3	Ach Filter
IERANGELOWERLIMIT	IQUANT	1	I/E Range Lower Limit
IERANGEMODE	TOGGLE	F	I/E AutoRange
IERANGE	IQUANT	6	I/E Range
POSFEEDENABLE	TOGGLE	F	Positive Feedback IR Comp
POSFEEDRESISTANCE	QUANT	0	Positive Feedback Resistance (ohm)
ACHSELECT	IQUANT	0	Ach Select
CABLEID	IQUANT	14	Cable ID
DCCALDATE	LABEL	8/19/2019	DC Calibration Date
ACCALDATE	LABEL	8/19/2019	AC Calibration Date
THERMOSELECT	IQUANT	1	Thermo Select
FRAMEWORKVERSION	QUANT	6.33	Framework Version
INSTRUMENTVERSION	LABEL	3.50	Instrument Version
ZCURVE	TABLE
	Pt	Time	Freq	Zreal	Zimag	Zsig	Zmod	Zphz	Idc	Vdc	IERange
	#	s	Hz	ohm	ohm	V	ohm	°	A	V	#
	0	2	1000078	2028.062	-930.524	1	2231.347	-24.64681	6.585107E-007	0.0145003	8
	1	4	794390.6	2198.413	-834.4741	1	2351.461	-20.78577	8.52988E-007	0.0142178	8
	2	5	630984.4	2318.797	-731.5885	1	2431.469	-17.51066	4.362094E-006	0.0134542	8
	3	6	501234.4	2413.23	-629.5175	1	2493.987	-14.62041	-1.213038E-006	0.0143951	8
	4	8	398109.4	2485.951	-550.3094	1	2546.133	-12.48215	2.900034E-006	0.0135934	8
	5	9	316265.6	2535.372	-476.6581	1	2579.79	-10.6475	-9.491097E-007	0.0142749	8
	6	10	251203.1	2574.794	-420.5739	1	2608.917	-9.276924	-7.270336E-007	0.0142471	8
	7	12	199546.9	2612.684	-365.8847	1	2638.179	-7.971953	-3.359261E-006	0.0148389	8
	8	13	158578.1	2635.461	-327.1009	1	2655.682	-7.075099	9.280815E-007	0.013889	8
	9	14	125953.1	2679.662	-282.0659	1	2694.466	-6.008927	6.410074E-007	0.0127404	7
	10	16	100078.1	2697.743	-257.9417	1	2710.047	-5.461667	1.412136E-008	0.0139861	7
	11	17	79453.13	2718.752	-255.7752	1	2730.757	-5.374463	-3.699508E-008	0.0140755	7
	12	18	63140.62	2742.285	-260.4696	1	2754.627	-5.42583	-3.980477E-008	0.0140718	7
	13	20	50203.12	2767.351	-269.6769	1	2780.46	-5.565869	6.699427E-008	0.0139399	7
	14	21	39890.62	2794.673	-282.8464	1	2808.95	-5.779176	3.487898E-008	0.0140161	7
	15	22	31640.63	2824.465	-302.6982	1	2840.639	-6.117045	-1.651865E-008	0.0140313	7
	16	24	25171.88	2855.808	-326.8103	1	2874.446	-6.528363	-4.253473E-008	0.0141812	7
	17	25	20015.62	2890.358	-357.6849	1	2912.406	-7.054548	4.133474E-010	0.0140536	7
	18	26	15890.62	2927.783	-395.0313	1	2954.313	-7.68423	7.501725E-008	0.0140075	7
	19	28	12609.37	2969.409	-439.8928	1	3001.815	-8.4266	-3.922176E-008	0.0140857	7
	20	29	10078.13	3013.988	-491.7804	1	3053.846	-9.26706	-4.214249E-008	0.0141271	7
	21	30	8015.625	3060.761	-554.717	1	3110.622	-10.2725	-4.256441E-008	0.0141762	7
	22	32	6328.125	3120.408	-630.6615	1	3183.501	-11.42606	-1.961754E-008	0.0140246	7
	23	33	5015.625	3181.156	-718.7353	1	3261.34	-12.73138	-9.075449E-009	0.0140803	7
	24	34	3984.375	3251.263	-821.6203	1	3353.472	-14.18218	-3.759811E-008	0.0140612	7
	25	36	3170.956	3319.861	-943.402	1	3451.302	-15.86351	-1.103353E-008	0.0141704	7
	26	37	2527.573	3398.332	-1086.894	1	3567.912	-17.73591	-3.499148E-008	0.014065	7
	27	38	1976.103	3490.079	-1272.042	1	3714.666	-20.02547	-1.138984E-008	0.0141621	7
	28	40	1577.524	3577.179	-1476.161	1	3869.789	-22.42401	6.760221E-008	0.0139331	7
	29	41	1265.625	3677.093	-1718.214	1	4058.728	-25.04551	1.556072E-008	0.0139696	7
	30	42	998.264	3783.645	-2036.833	1	4297.052	-28.29471	7.572825E-008	0.0138905	7
	31	44	796.875	3891.323	-2405.646	1	4574.88	-31.72468	1.292653E-007	0.0138491	7
	32	45	627.7902	4011.811	-2889.283	1	4943.944	-35.76121	3.609789E-008	0.01401	7
	33	46	505.5147	4132.816	-3441.192	1	5377.915	-39.78248	-1.72047E-008	0.0140252	7
	34	48	397.9953	4279.904	-4194.388	1	5992.535	-44.42184	6.224283E-009	0.0140562	7
	35	49	315.5048	4444.859	-5108.708	1	6771.682	-48.97493	6.905584E-009	0.0140523	7
	36	50	252.4038	4633.005	-6199.791	1	7739.648	-53.22982	6.833116E-009	0.0140503	7
	37	52	198.6229	4879.849	-7656.25	1	9079.157	-57.48787	6.027119E-009	0.014052	7
	38	53	158.3615	5175.006	-9365.259	1	10699.94	-61.07607	3.39192E-010	0.0139908	6
	39	54	125.558	5554.606	-11527.19	1	12795.69	-64.27198	6.586943E-010	0.0139932	6
	40	56	100.4464	6015.366	-14078.98	1	15310.2	-66.86498	3.309696E-010	0.0139914	6
	41	57	79.00281	6684.958	-17461.87	1	18697.74	-69.05157	5.496661E-010	0.0139928	6
	42	59	63.3446	7363.125	-21302.92	1	22539.52	-70.93284	7.073862E-010	0.0139876	6
	43	60	49.86702	8557.978	-26283.14	1	27641.32	-71.96438	-7.039508E-013	0.0139881	6
	44	61	39.72458	9880.63	-32241.06	1	33721.1	-72.96174	7.904136E-010	0.0139912	6
	45	63	31.6723	11622.41	-39356.89	1	41037.12	-73.5477	9.120248E-010	0.0139862	6
	46	64	24.93351	14086.86	-48490.12	1	50494.87	-73.8009	8.429976E-010	0.013991	6
	47	65	19.86229	17102.31	-58999.27	1	61428.03	-73.83453	3.876297E-010	0.0139965	6
	48	67	15.83615	20806.22	-71498.82	1	74464.63	-73.77496	1.0171E-009	0.0139923	6
	49	68	12.40079	26389.79	-87888.15	1	91764.63	-73.2868	1.00659E-009	0.0139967	6
	50	69	9.93114	32898.26	-105585.3	1	110591.8	-72.69402	-1.941773E-010	0.0140006	5
	51	71	7.944915	40948.57	-126282	1	132755.2	-72.03404	-6.451151E-010	0.0140002	5
	52	73	6.317385	51449.83	-151711	1	160197.7	-71.26663	-2.935768E-010	0.014009	5
	53	75	5.008013	64965.61	-181883.6	1	193137.7	-70.34417	-5.487327E-011	0.0139959	5
	54	77	3.945707	82338.53	-218039.4	1	233068.3	-69.31189	1.133355E-010	0.0139972	5
	55	80	3.158693	102221.8	-257060.9	1	276639.8	-68.31446	8.380971E-011	0.0140149	5
	56	83	2.504006	127420.9	-304427.3	1	330018.2	-67.2878	-3.183769E-010	0.0139964	5
	57	86	1.998082	157307.2	-357366.7	1	390456.8	-66.24166	-1.563679E-010	0.0139595	5
	58	89	1.584686	193116.7	-418353.3	1	460775	-65.22141	-1.30599E-010	0.0140039	5
	59	92	1.266892	235777.5	-487268	1	541314.3	-64.17876	-2.818936E-011	0.013958	5
	60	97	0.999041	287797.8	-570284.9	1	638789.9	-63.22193	-1.112412E-010	0.0140372	5
