EXPLAIN
TAG	EISPOT
TITLE	LABEL	Potentiostatic EIS	Test &Identifier
DATE	LABEL	9/22/2019	Date
TIME	LABEL	10:17:09	Time
NOTES	NOTES	1	&Notes...
	
PSTAT	PSTAT	REF600-11020	Potentiostat
VDC	POTEN	0.00000E+000	T	DC &Voltage (V)
FREQINIT	QUANT	1.00000E+006	Initial Fre&q. (Hz)
FREQFINAL	QUANT	1.00000E+000	Final Fre&q. (Hz)
PTSPERDEC	QUANT	1.00000E+001	Points/&decade
VAC	QUANT	2.50000E+001	AC &Voltage (mV rms)
AREA	QUANT	1.00000E-002	&Area (cm^2)
CONDIT	TWOPARAM	T	5.00000E+000	0.00000E+000	Conditionin&g	Time(s)	E(V)
DELAY	TWOPARAM	T	5.00000E+000	0.00000E+000	Init. De&lay	Time(s)	Stab.(mV/s)
SPEED	SELECTOR	1	&Optimize for:
ZGUESS	QUANT	1.00000E+004	E&stimated Z (ohms)
OCVCURVE	TABLE	19
	Pt	T	Vf	Vm	Ach	Over
	#	s	V vs. Ref.	V	V	bits
	0	0.258333	-6.08051E-004	-6.08051E-004	5.62299E-004	...........
	1	0.516667	-6.19216E-004	-1.19247E-003	5.57366E-004	...........
	2	0.775	-6.87056E-004	-1.70890E-003	5.63432E-004	...........
	3	1.03333	-8.76876E-004	-2.21969E-003	5.60166E-004	...........
	4	1.29167	-1.21291E-003	-2.69803E-003	5.66299E-004	...........
	5	1.55	-1.65535E-003	-3.12933E-003	5.64266E-004	...........
	6	1.80833	-2.14026E-003	-3.55083E-003	5.64566E-004	...........
	7	2.06667	-2.62056E-003	-3.95891E-003	5.67566E-004	...........
	8	2.325	-3.07626E-003	-4.33368E-003	5.64166E-004	...........
	9	2.58333	-3.50457E-003	-4.68057E-003	5.70266E-004	...........
	10	2.84167	-3.90799E-003	-5.06037E-003	5.64266E-004	...........
	11	3.1	-4.29103E-003	-5.39556E-003	5.67266E-004	...........
	12	3.35833	-4.65904E-003	-5.71600E-003	5.66366E-004	...........
	13	3.61667	-5.01433E-003	-6.03401E-003	5.64299E-004	...........
	14	3.875	-5.35607E-003	-6.32798E-003	5.64266E-004	...........
	15	4.13333	-5.68343E-003	-6.60870E-003	5.62666E-004	...........
	16	4.39167	-5.99919E-003	-7.04036E-003	5.63632E-004	...........
	17	4.65	-6.30834E-003	-7.04255E-003	5.66499E-004	...........
	18	4.90833	-6.60230E-003	-7.27287E-003	5.71766E-004	...........
EOC	QUANT	-0.0066023	Open Circuit (V)
PSTATMODEL	IQUANT	4	Pstat Model
PSTATSECTION	LABEL	REF600-11020	Pstat Section
PSTATSERIALNO	LABEL	11020	Pstat Serial Number
CTRLMODE	IQUANT	1	Control Mode
IESTAB	IQUANT	0	I/E Stability
CASPEED	IQUANT	1	Control Amp Speed
CONVENTION	IQUANT	1	Current Convention
ICHRANGE	IQUANT	2	Ich Range
ICHRANGEMODE	TOGGLE	F	Ich Auto Range
ICHOFFSETENABLE	TOGGLE	T	Ich Offset Enable
ICHOFFSET	QUANT	0	Ich Offset (V)
ICHFILTER	IQUANT	3	Ich Filter
VCHRANGE	IQUANT	2	Vch Range
VCHRANGEMODE	TOGGLE	F	Vch Auto Range
VCHOFFSETENABLE	TOGGLE	T	Vch Offset Enable
VCHOFFSET	QUANT	0	Vch Offset (V)
VCHFILTER	IQUANT	3	Vch Filter
ACHRANGE	IQUANT	2	Ach Range
ACHOFFSETENABLE	TOGGLE	F	Ach Offset Enable
ACHOFFSET	QUANT	0	Ach Offset (V)
ACHFILTER	IQUANT	3	Ach Filter
IERANGELOWERLIMIT	IQUANT	1	I/E Range Lower Limit
IERANGEMODE	TOGGLE	F	I/E AutoRange
IERANGE	IQUANT	6	I/E Range
POSFEEDENABLE	TOGGLE	F	Positive Feedback IR Comp
POSFEEDRESISTANCE	QUANT	0	Positive Feedback Resistance (ohm)
ACHSELECT	IQUANT	0	Ach Select
CABLEID	IQUANT	14	Cable ID
DCCALDATE	LABEL	8/19/2019	DC Calibration Date
ACCALDATE	LABEL	8/19/2019	AC Calibration Date
THERMOSELECT	IQUANT	1	Thermo Select
FRAMEWORKVERSION	QUANT	6.33	Framework Version
INSTRUMENTVERSION	LABEL	3.50	Instrument Version
ZCURVE	TABLE
	Pt	Time	Freq	Zreal	Zimag	Zsig	Zmod	Zphz	Idc	Vdc	IERange
	#	s	Hz	ohm	ohm	V	ohm	°	A	V	#
	0	1	1000078	2562.369	-2292.864	1	3438.453	-41.82288	-2.601044E-006	-0.0033655	8
	1	3	794390.6	3006.601	-2309.727	1	3791.37	-37.53214	1.849987E-006	-0.0045706	8
	2	4	630984.4	3476.252	-2248.158	1	4139.872	-32.89151	3.871951E-008	-0.004674	8
	3	5	501234.4	3916.335	-2135.22	1	4460.588	-28.5996	8.382964E-007	-0.0048296	8
	4	7	398109.4	4276.703	-1915.246	1	4685.974	-24.12438	-3.009249E-006	-0.0043537	8
	5	8	316265.6	4570.826	-1719.102	1	4883.417	-20.61143	-9.521515E-007	-0.0046943	8
	6	10	251203.1	4818.642	-1530.015	1	5055.715	-17.61569	3.549788E-006	-0.0055289	8
	7	11	199546.9	4988.527	-1340.854	1	5165.587	-15.04481	-6.818667E-007	-0.0049679	8
	8	12	158578.1	5163.838	-1179.931	1	5296.929	-12.87105	-1.234704E-006	-0.0046102	8
	9	14	125953.1	5315.383	-974.204	1	5403.922	-10.38591	2.719311E-007	-0.0056942	7
	10	15	100078.1	5380.526	-868.0833	1	5450.104	-9.165009	-2.608247E-008	-0.0049667	7
	11	16	79453.13	5457.045	-795.2745	1	5514.69	-8.291546	-4.802766E-008	-0.0048394	7
	12	18	63140.62	5522.759	-736.3681	1	5571.634	-7.594646	1.25821E-007	-0.005141	7
	13	19	50203.12	5586.491	-701.7753	1	5630.396	-7.159994	5.101239E-008	-0.0050228	7
	14	20	39890.62	5643.481	-682.1881	1	5684.563	-6.892514	-3.933429E-008	-0.0049543	7
	15	22	31640.63	5700.477	-682.9912	1	5741.247	-6.832211	8.846596E-008	-0.0051437	7
	16	23	25171.88	5755.755	-698.9449	1	5798.038	-6.92376	-4.608989E-008	-0.0049454	7
	17	24	20015.62	5818.609	-731.1862	1	5864.371	-7.162438	-4.659152E-008	-0.004947	7
	18	26	15890.62	5883.239	-781.1666	1	5934.874	-7.563396	6.590506E-008	-0.005068	7
	19	27	12609.37	5948.287	-851.5311	1	6008.928	-8.146866	1.036496E-008	-0.0050437	7
	20	29	10078.13	6018.485	-942.7708	1	6091.878	-8.902799	4.426146E-008	-0.005106	7
	21	30	8015.625	6094.27	-1054.764	1	6184.873	-9.81918	-3.871531E-008	-0.0049555	7
	22	31	6328.125	6177.802	-1203.295	1	6293.898	-11.02191	1.030483E-008	-0.0050484	7
	23	33	5015.625	6268.983	-1380.39	1	6419.161	-12.418	-6.075299E-008	-0.0047617	7
	24	34	3984.375	6366.114	-1597.842	1	6563.574	-14.08971	-4.705442E-008	-0.0048476	7
	25	35	3170.956	6473.229	-1864.956	1	6736.524	-16.07185	9.951786E-009	-0.0050595	7
	26	37	2527.573	6590.673	-2187.569	1	6944.237	-18.36198	-2.503515E-008	-0.0049134	7
	27	38	1976.103	6728.031	-2624.499	1	7221.8	-21.30998	-1.655726E-009	-0.0049202	7
	28	39	1577.524	6885.208	-3113.588	1	7556.488	-24.33315	-4.69705E-008	-0.0048462	7
	29	41	1265.625	7046.492	-3690.833	1	7954.577	-27.64478	-6.753453E-008	-0.0048823	7
	30	42	998.264	7250.224	-4459.741	1	8512.053	-31.59641	-2.875663E-009	-0.0049266	7
	31	44	796.875	7485.984	-5346.735	1	9199.322	-35.53567	1.1021E-008	-0.0050538	7
	32	45	627.7902	7770.795	-6502.603	1	10132.58	-39.9226	1.818704E-009	-0.0048816	6
	33	46	505.5147	8080.179	-7794.922	1	11227.2	-43.97057	-6.318854E-009	-0.0048655	6
	34	48	397.9953	8480.148	-9518.94	1	12748.46	-48.30307	1.623918E-009	-0.0050123	6
	35	49	315.5048	8950.646	-11588.88	1	14642.96	-52.31937	8.281993E-010	-0.005009	6
	36	50	252.4038	9503.06	-14018.97	1	16936.34	-55.86776	9.471159E-010	-0.0050152	6
	37	52	198.6229	10224.93	-17219.29	1	20026.31	-59.29789	1.312979E-009	-0.0050152	6
	38	53	158.3615	11076.4	-20929.53	1	23679.78	-62.11114	1.369253E-009	-0.0050096	6
	39	55	125.558	12167.1	-25594.84	1	28339.62	-64.57485	1.098133E-009	-0.0050085	6
	40	56	100.4464	13500.88	-31075.03	1	33881.13	-66.51695	1.795845E-009	-0.0050183	6
	41	57	79.00281	15411.13	-38241.26	1	41229.81	-68.05069	1.685447E-009	-0.0050194	6
	42	59	63.3446	17503.02	-46754.46	1	49923.29	-69.47609	7.16418E-010	-0.0050155	6
	43	60	49.86702	20338.77	-56566.48	1	60111.84	-70.22369	1.181868E-009	-0.0050186	6
	44	62	39.72458	24494.86	-68859.84	1	73086.77	-70.41848	1.253225E-009	-0.0050097	6
	45	63	31.6723	29343.23	-83264.84	1	88283.96	-70.58711	7.067776E-010	-0.0050198	6
	46	64	24.93351	36447.14	-101747.5	1	108078.5	-70.29189	1.039436E-009	-0.0050132	5
	47	66	19.86229	45184.79	-122340.6	1	130418.2	-69.729	6.972333E-010	-0.0050054	5
	48	67	15.83615	57365.04	-148147.6	1	158866.1	-68.83282	-5.374253E-010	-0.0050156	5
	49	69	12.40079	74319.91	-177685.9	1	192602.5	-67.30212	-5.957871E-010	-0.0050097	5
	50	70	9.93114	91737.95	-208922.1	1	228176	-66.29366	8.87042E-010	-0.0050224	5
	51	72	7.944915	114342.4	-243535.5	1	269042.2	-64.84947	-7.379858E-011	-0.0050106	5
	52	73	6.317385	146004.9	-283954.8	1	319292.5	-62.78852	6.99853E-010	-0.0050225	5
	53	75	5.008013	184315.8	-328336.1	1	376532.8	-60.69175	5.381594E-010	-0.0050074	5
	54	78	3.945707	230587	-376359.7	1	441380.8	-58.50515	1.598704E-010	-0.0050174	5
	55	81	3.158693	280955.8	-422609.2	1	507478.8	-56.38355	6.769888E-010	-0.0049956	5
	56	84	2.504006	340263	-473863.8	1	583374.5	-54.31936	6.450929E-011	-0.0050145	5
	57	87	1.998082	402974.3	-523563.7	1	660687	-52.41539	2.271853E-010	-0.0050333	5
	58	90	1.584686	470813.4	-575927	1	743879.8	-50.73442	3.126589E-010	-0.0049801	5
	59	93	1.266892	540835.8	-633717.2	1	833127.1	-49.52143	2.475465E-010	-0.0050381	5
	60	98	0.999041	617299.2	-700307.5	1	933535.7	-48.60483	6.396065E-010	-0.0049836	5
