EXPLAIN
TAG	EISPOT
TITLE	LABEL	Potentiostatic EIS	Test &Identifier
DATE	LABEL	6/20/2000	Date
TIME	LABEL	9:17:19	Time
NOTES	NOTES	2	&Notes...
	
	
PSTAT	PSTAT	REF600-11020	Potentiostat
VDC	POTEN	0.00000E+000	T	DC &Voltage (V)
FREQINIT	QUANT	1.00000E+006	Initial Fre&q. (Hz)
FREQFINAL	QUANT	1.00000E+000	Final Fre&q. (Hz)
PTSPERDEC	QUANT	1.00000E+001	Points/&decade
VAC	QUANT	2.50000E+001	AC &Voltage (mV rms)
AREA	QUANT	1.00000E-002	&Area (cm^2)
CONDIT	TWOPARAM	T	5.00000E+000	0.00000E+000	Conditionin&g	Time(s)	E(V)
DELAY	TWOPARAM	T	5.00000E+000	0.00000E+000	Init. De&lay	Time(s)	Stab.(mV/s)
SPEED	SELECTOR	0	&Optimize for:
ZGUESS	QUANT	1.00000E+005	E&stimated Z (ohms)
OCVCURVE	TABLE	19
	Pt	T	Vf	Vm	Ach	Over
	#	s	V vs. Ref.	V	V	bits
	0	0.258333	9.40283E-003	9.40283E-003	5.59866E-004	...........
	1	0.516667	9.40617E-003	9.57758E-003	5.65166E-004	...........
	2	0.775	9.42673E-003	9.74600E-003	5.61099E-004	...........
	3	1.03333	9.48524E-003	9.91805E-003	5.59432E-004	...........
	4	1.29167	9.59116E-003	1.00838E-002	5.62566E-004	...........
	5	1.55	9.73449E-003	1.02463E-002	5.60332E-004	...........
	6	1.80833	9.89696E-003	1.04058E-002	5.66766E-004	...........
	7	2.06667	1.00642E-002	1.05565E-002	5.65632E-004	...........
	8	2.325	1.02287E-002	1.07068E-002	5.62199E-004	...........
	9	2.58333	1.03882E-002	1.08504E-002	5.62499E-004	...........
	10	2.84167	1.05423E-002	1.09883E-002	5.61266E-004	...........
	11	3.1	1.06913E-002	1.11239E-002	5.63099E-004	...........
	12	3.35833	1.08353E-002	1.12518E-002	5.60532E-004	...........
	13	3.61667	1.09747E-002	1.13808E-002	5.60832E-004	...........
	14	3.875	1.11095E-002	1.15000E-002	5.54799E-004	...........
	15	4.13333	1.12400E-002	1.16210E-002	5.62866E-004	...........
	16	4.39167	1.13665E-002	1.17313E-002	5.61366E-004	...........
	17	4.65	1.14888E-002	1.18415E-002	5.58099E-004	...........
	18	4.90833	1.16067E-002	1.19449E-002	5.57366E-004	...........
EOC	QUANT	0.0116067	Open Circuit (V)
PSTATMODEL	IQUANT	4	Pstat Model
PSTATSECTION	LABEL	REF600-11020	Pstat Section
PSTATSERIALNO	LABEL	11020	Pstat Serial Number
CTRLMODE	IQUANT	1	Control Mode
IESTAB	IQUANT	0	I/E Stability
CASPEED	IQUANT	1	Control Amp Speed
CONVENTION	IQUANT	1	Current Convention
ICHRANGE	IQUANT	2	Ich Range
ICHRANGEMODE	TOGGLE	F	Ich Auto Range
ICHOFFSETENABLE	TOGGLE	T	Ich Offset Enable
ICHOFFSET	QUANT	0	Ich Offset (V)
ICHFILTER	IQUANT	3	Ich Filter
VCHRANGE	IQUANT	2	Vch Range
VCHRANGEMODE	TOGGLE	F	Vch Auto Range
VCHOFFSETENABLE	TOGGLE	T	Vch Offset Enable
VCHOFFSET	QUANT	0	Vch Offset (V)
VCHFILTER	IQUANT	3	Vch Filter
ACHRANGE	IQUANT	2	Ach Range
ACHOFFSETENABLE	TOGGLE	F	Ach Offset Enable
ACHOFFSET	QUANT	0	Ach Offset (V)
ACHFILTER	IQUANT	3	Ach Filter
IERANGELOWERLIMIT	IQUANT	1	I/E Range Lower Limit
IERANGEMODE	TOGGLE	F	I/E AutoRange
IERANGE	IQUANT	5	I/E Range
POSFEEDENABLE	TOGGLE	F	Positive Feedback IR Comp
POSFEEDRESISTANCE	QUANT	0	Positive Feedback Resistance (ohm)
ACHSELECT	IQUANT	0	Ach Select
CABLEID	IQUANT	14	Cable ID
DCCALDATE	LABEL	8/19/2019	DC Calibration Date
ACCALDATE	LABEL	8/19/2019	AC Calibration Date
THERMOSELECT	IQUANT	1	Thermo Select
FRAMEWORKVERSION	QUANT	6.33	Framework Version
INSTRUMENTVERSION	LABEL	3.50	Instrument Version
ZCURVE	TABLE
	Pt	Time	Freq	Zreal	Zimag	Zsig	Zmod	Zphz	Idc	Vdc	IERange
	#	s	Hz	ohm	ohm	V	ohm	°	A	V	#
	0	1	1000078	2244.988	-1169.856	1	2531.509	-27.52388	4.691757E-006	0.0142711	8
	1	2	794390.6	2467.103	-1060.885	1	2685.531	-23.2683	6.677383E-006	0.0123381	8
	2	2	630984.4	2627.702	-944.7293	1	2792.371	-19.77487	-6.371652E-007	0.0136978	8
	3	2	501234.4	2757.225	-818.7023	1	2876.206	-16.53773	-4.134743E-006	0.013781	8
	4	3	398109.4	2861.98	-709.1115	1	2948.52	-13.9159	-1.221829E-006	0.0135544	8
	5	3	316265.6	2937.592	-625.2114	1	3003.387	-12.01506	-2.309469E-007	0.0127742	8
	6	3	251203.1	2995.551	-529.8309	1	3042.046	-10.03032	-2.590233E-006	0.0129535	8
	7	4	199546.9	3045.971	-467.3734	1	3081.619	-8.723421	4.060099E-006	0.0130273	8
	8	4	158578.1	3096.651	-442.8635	1	3128.159	-8.138891	7.045027E-006	0.0122953	8
	9	4	125953.1	3128.7	-332.1679	1	3146.283	-6.060278	1.708714E-006	0.007341	7
	10	5	100078.1	3153.036	-306.6522	1	3167.913	-5.554897	1.010554E-006	0.0123345	7
	11	5	79453.13	3169.909	-295.9803	1	3183.698	-5.334346	-1.248744E-006	0.0144944	7
	12	5	63140.62	3194.656	-295.2565	1	3208.271	-5.28039	-1.046711E-006	0.0135124	7
	13	5	50203.12	3219.223	-301.1999	1	3233.283	-5.345198	-6.449278E-007	0.0146429	7
	14	6	39890.62	3247.323	-314.3496	1	3262.502	-5.529157	9.935846E-007	0.0113244	7
	15	6	31640.63	3273.847	-333.3302	1	3290.772	-5.813597	-3.148937E-007	0.0144011	7
	16	6	25171.88	3303.102	-360.4987	1	3322.716	-6.228577	3.836328E-007	0.0135675	7
	17	7	20015.62	3336.774	-397.7825	1	3360.401	-6.798244	-7.156218E-007	0.0128126	7
	18	7	15890.62	3370.456	-442.686	1	3399.403	-7.482573	1.107986E-006	0.0119007	7
	19	7	12609.37	3406.105	-498.9418	1	3442.455	-8.333676	8.24421E-007	0.0128286	7
	20	8	10078.13	3448.644	-574.0907	1	3496.101	-9.451278	-1.119364E-006	0.0146481	7
	21	8	8015.625	3482.854	-653.637	1	3543.658	-10.62922	1.42728E-007	0.0116063	7
	22	8	6328.125	3527.545	-762.798	1	3609.077	-12.2018	6.048519E-007	0.0132419	7
	23	9	5015.625	3576.385	-896.3698	1	3687.006	-14.07052	1.014892E-006	0.0123295	7
	24	9	3984.375	3627.185	-1057.564	1	3778.216	-16.25489	-1.230087E-006	0.0140905	7
	25	9	3170.956	3684.06	-1258.416	1	3893.059	-18.85934	-1.121271E-006	0.0146473	7
	26	10	2527.573	3750.277	-1505.411	1	4041.144	-21.87118	8.020616E-007	0.0112274	7
	27	10	1976.103	3829.953	-1834.064	1	4246.45	-25.58854	1.099258E-006	0.011563	7
	28	10	1577.524	3919.33	-2202.704	1	4495.893	-29.33643	-1.119803E-006	0.0146453	7
	29	11	1265.625	4008.653	-2645	1	4802.637	-33.41773	-1.250762E-006	0.0144781	7
	30	11	998.264	4129.372	-3238.195	1	5247.629	-38.10304	3.844162E-007	0.0135577	7
	31	11	796.875	4263.04	-3927.388	1	5796.368	-42.65327	-7.140872E-007	0.012801	7
	32	12	627.7902	4437.102	-4826.93	1	6556.457	-47.40957	-9.206662E-007	0.0147116	7
	33	12	505.5147	4627.886	-5835.176	1	7447.591	-51.58202	-3.08994E-007	0.0143937	7
	34	12	397.9953	4881.728	-7216.797	1	8712.831	-55.92402	9.166479E-010	0.0130416	7
	35	12	315.5048	5202.648	-8866.592	1	10280.27	-59.59687	-6.409515E-010	0.0129778	6
	36	13	252.4038	5592.151	-10814.08	1	12174.42	-62.65572	6.691276E-010	0.0129766	6
	37	13	198.6229	6129.428	-13386.28	1	14722.85	-65.39748	6.045098E-010	0.012969	6
	38	13	158.3615	6797.674	-16375.46	1	17730.32	-67.45601	5.834475E-010	0.0129725	6
	39	14	125.558	7689.979	-20115.92	1	21535.69	-69.07899	4.746517E-010	0.0129715	6
	40	14	100.4464	8789.075	-24473.96	1	26004.28	-70.2458	-2.791876E-010	0.0129735	6
	41	14	79.00281	10472.99	-30111.76	1	31881.05	-70.82211	-8.430949E-011	0.012977	6
	42	15	63.3446	12374.12	-36897.47	1	38917.12	-71.46034	3.191814E-010	0.0129628	6
	43	15	49.86702	15194.15	-45000.62	1	47496.51	-71.34309	5.216287E-010	0.0129642	6
	44	16	39.72458	18907.39	-54029.81	1	57242.55	-70.71282	-2.243644E-010	0.0129785	6
	45	16	31.6723	23523.74	-64788.04	1	68926.46	-70.04466	6.370314E-011	0.0129715	6
	46	16	24.93351	29874.24	-78299.89	1	83805.39	-69.11634	4.412693E-010	0.012969	6
	47	17	19.86229	37673.52	-93112.83	1	100445.5	-67.9717	1.043313E-009	0.0129619	6
	48	17	15.83615	46917.53	-109744.8	1	119353.1	-66.85257	3.591977E-011	0.0129755	5
	49	17	12.40079	60597.93	-129655.4	1	143117.6	-64.94971	-1.471052E-009	0.012971	5
	50	18	9.93114	75332.46	-150771.3	1	168543.7	-63.45112	3.362591E-010	0.0129768	5
	51	18	7.944915	92450.59	-173753.5	1	196818.2	-61.9835	5.525372E-010	0.0129692	5
	52	19	6.317385	112362.5	-199593.5	1	229047.8	-60.62236	4.559156E-010	0.0129577	5
	53	19	5.008013	136046.6	-229110	1	266458.4	-59.29796	3.545658E-010	0.0129742	5
	54	21	3.945707	163266.7	-262218.6	1	308892.6	-58.09212	-1.160426E-010	0.0129642	5
	55	22	3.158693	191920	-297072.4	1	353674	-57.13601	-2.238053E-010	0.0129597	5
	56	24	2.504006	225002	-338220.1	1	406225	-56.36604	1.094345E-010	0.0129604	5
	57	25	1.998082	259120.2	-383242.8	1	462621.1	-55.93637	-7.668631E-011	0.0129512	5
	58	26	1.584686	299432.2	-437808.8	1	530411.4	-55.63046	-2.061949E-010	0.0129186	5
	59	28	1.266892	340399	-499909.8	1	604798.5	-55.74824	-1.804838E-010	0.0129318	5
	60	31	0.999041	388229.7	-576176.3	1	694767.2	-56.02777	-1.587709E-010	0.0129531	5
