EXPLAIN
TAG	EISPOT
TITLE	LABEL	Potentiostatic EIS	Test &Identifier
DATE	LABEL	10/24/2019	Date
TIME	LABEL	9:35:12	Time
NOTES	NOTES	1	&Notes...
	
PSTAT	PSTAT	REF600-11020	Potentiostat
VDC	POTEN	0.00000E+000	T	DC &Voltage (V)
FREQINIT	QUANT	1.00000E+006	Initial Fre&q. (Hz)
FREQFINAL	QUANT	1.00000E+000	Final Fre&q. (Hz)
PTSPERDEC	QUANT	1.00000E+001	Points/&decade
VAC	QUANT	2.50000E+001	AC &Voltage (mV rms)
AREA	QUANT	1.00000E-002	&Area (cm^2)
CONDIT	TWOPARAM	T	5.00000E+000	0.00000E+000	Conditionin&g	Time(s)	E(V)
DELAY	TWOPARAM	T	5.00000E+000	0.00000E+000	Init. De&lay	Time(s)	Stab.(mV/s)
SPEED	SELECTOR	1	&Optimize for:
ZGUESS	QUANT	1.00000E+005	E&stimated Z (ohms)
OCVCURVE	TABLE	19
	Pt	T	Vf	Vm	Ach	Over
	#	s	V vs. Ref.	V	V	bits
	0	0.258333	4.19102E-003	4.19102E-003	5.51866E-004	...........
	1	0.516667	4.18778E-003	4.02156E-003	5.50833E-004	...........
	2	0.775	4.16797E-003	3.86414E-003	5.53299E-004	...........
	3	1.03333	4.11264E-003	3.74110E-003	5.58299E-004	...........
	4	1.29167	4.01569E-003	3.58625E-003	5.52866E-004	...........
	5	1.55	3.88859E-003	3.42971E-003	5.51966E-004	...........
	6	1.80833	3.74738E-003	3.35086E-003	5.52232E-004	...........
	7	2.06667	3.60629E-003	3.26597E-003	5.54699E-004	...........
	8	2.325	3.47954E-003	3.26960E-003	5.54399E-004	...........
	9	2.58333	3.37811E-003	3.17702E-003	5.54033E-004	...........
	10	2.84167	3.30073E-003	3.03642E-003	5.55766E-004	...........
	11	3.1	3.23068E-003	2.93233E-003	5.54266E-004	...........
	12	3.35833	3.15076E-003	2.89659E-003	5.58166E-004	...........
	13	3.61667	3.06122E-003	2.82657E-003	5.60899E-004	...........
	14	3.875	2.97456E-003	2.75765E-003	5.57399E-004	...........
	15	4.13333	2.89801E-003	2.70135E-003	5.54966E-004	...........
	16	4.39167	2.82997E-003	2.64754E-003	5.57466E-004	...........
	17	4.65	2.76734E-003	2.59774E-003	5.52333E-004	...........
	18	4.90833	2.70900E-003	2.55256E-003	5.50399E-004	...........
EOC	QUANT	0.002709	Open Circuit (V)
PSTATMODEL	IQUANT	4	Pstat Model
PSTATSECTION	LABEL	REF600-11020	Pstat Section
PSTATSERIALNO	LABEL	11020	Pstat Serial Number
CTRLMODE	IQUANT	1	Control Mode
IESTAB	IQUANT	0	I/E Stability
CASPEED	IQUANT	1	Control Amp Speed
CONVENTION	IQUANT	1	Current Convention
ICHRANGE	IQUANT	2	Ich Range
ICHRANGEMODE	TOGGLE	F	Ich Auto Range
ICHOFFSETENABLE	TOGGLE	T	Ich Offset Enable
ICHOFFSET	QUANT	0	Ich Offset (V)
ICHFILTER	IQUANT	3	Ich Filter
VCHRANGE	IQUANT	2	Vch Range
VCHRANGEMODE	TOGGLE	F	Vch Auto Range
VCHOFFSETENABLE	TOGGLE	T	Vch Offset Enable
VCHOFFSET	QUANT	0	Vch Offset (V)
VCHFILTER	IQUANT	3	Vch Filter
ACHRANGE	IQUANT	2	Ach Range
ACHOFFSETENABLE	TOGGLE	F	Ach Offset Enable
ACHOFFSET	QUANT	0	Ach Offset (V)
ACHFILTER	IQUANT	3	Ach Filter
IERANGELOWERLIMIT	IQUANT	1	I/E Range Lower Limit
IERANGEMODE	TOGGLE	F	I/E AutoRange
IERANGE	IQUANT	4	I/E Range
POSFEEDENABLE	TOGGLE	F	Positive Feedback IR Comp
POSFEEDRESISTANCE	QUANT	0	Positive Feedback Resistance (ohm)
ACHSELECT	IQUANT	0	Ach Select
CABLEID	IQUANT	14	Cable ID
DCCALDATE	LABEL	8/19/2019	DC Calibration Date
ACCALDATE	LABEL	8/19/2019	AC Calibration Date
THERMOSELECT	IQUANT	1	Thermo Select
FRAMEWORKVERSION	QUANT	6.33	Framework Version
INSTRUMENTVERSION	LABEL	3.50	Instrument Version
ZCURVE	TABLE
	Pt	Time	Freq	Zreal	Zimag	Zsig	Zmod	Zphz	Idc	Vdc	IERange
	#	s	Hz	ohm	ohm	V	ohm	°	A	V	#
	0	2	1000078	2395.298	-1878.303	1	3043.925	-38.10221	-2.529376E-006	0.0057488	8
	1	4	794390.6	2778.311	-1842.702	1	3333.851	-33.55414	-2.577046E-006	0.0053745	8
	2	5	630984.4	3142.309	-1741.097	1	3592.426	-28.99005	-1.04128E-007	0.0047651	8
	3	6	501234.4	3446.714	-1598.184	1	3799.214	-24.87638	6.929456E-008	0.0043271	8
	4	8	398109.4	3706.816	-1414.116	1	3967.393	-20.88138	4.213847E-007	0.0044027	8
	5	9	316265.6	3911.119	-1242.825	1	4103.835	-17.62854	5.329115E-007	0.0041795	8
	6	10	251203.1	4066.864	-1073.431	1	4206.143	-14.78577	3.127758E-006	0.0037255	8
	7	12	199546.9	4177.432	-925.63	1	4278.753	-12.49367	4.518319E-008	0.0043424	8
	8	13	158578.1	4260.429	-812.8278	1	4337.273	-10.8014	8.363116E-008	0.00428	8
	9	15	125953.1	4371.321	-650.9368	1	4419.521	-8.469722	5.027259E-008	0.0043072	7
	10	16	100078.1	4405.348	-565.6978	1	4441.521	-7.317397	1.315723E-008	0.0043651	7
	11	17	79453.13	4447.767	-512.961	1	4477.25	-6.578857	8.146033E-008	0.0042185	7
	12	19	63140.62	4486.524	-474.4294	1	4511.539	-6.036333	-2.513235E-008	0.0042752	7
	13	20	50203.12	4522.123	-447.7476	1	4544.235	-5.65458	-2.617622E-008	0.0042827	7
	14	21	39890.62	4554.473	-435.8358	1	4575.279	-5.466219	-5.265014E-008	0.0043401	7
	15	23	31640.63	4587.644	-434.4841	1	4608.172	-5.4102	2.912038E-008	0.0041784	7
	16	24	25171.88	4620.479	-446.0171	1	4641.956	-5.513706	3.418824E-008	0.0041685	7
	17	25	20015.62	4645.563	-460.1956	1	4668.302	-5.657338	6.941644E-008	0.0041292	7
	18	27	15890.62	4689.985	-506.302	1	4717.235	-6.161439	3.954209E-008	0.0042236	7
	19	28	12609.37	4725.103	-559.0818	1	4758.063	-6.747956	-2.593404E-008	0.004274	7
	20	30	10078.13	4766.771	-623.42	1	4807.365	-7.451113	5.812274E-008	0.0041739	7
	21	31	8015.625	4824.059	-720.7925	1	4877.611	-8.498049	6.983063E-008	0.0041206	7
	22	32	6328.125	4852.041	-824.7623	1	4921.639	-9.64707	5.501919E-008	0.0041775	7
	23	34	5015.625	4901.328	-965.375	1	4995.494	-11.14246	-4.574847E-009	0.004278	7
	24	35	3984.375	4961.374	-1147.365	1	5092.315	-13.02128	-2.925791E-008	0.0042675	7
	25	36	3170.956	5014.768	-1352.518	1	5193.958	-15.09392	-2.605433E-008	0.0042657	7
	26	38	2527.573	5082.48	-1612.571	1	5332.165	-17.6032	6.966494E-008	0.0041221	7
	27	39	1976.103	5174.589	-1968.65	1	5536.421	-20.8291	-4.964346E-008	0.0043536	7
	28	40	1577.524	5268.405	-2369.258	1	5776.632	-24.21396	-5.556773E-008	0.0044436	7
	29	42	1265.625	5375.216	-2847.806	1	6083.005	-27.91479	-5.008105E-008	0.0044315	7
	30	43	998.264	5516.249	-3477.882	1	6521.094	-32.23059	-5.195423E-008	0.0043259	7
	31	44	796.875	5681.771	-4210.078	1	7071.582	-36.5377	-2.19173E-009	0.0042988	7
	32	46	627.7902	5890.211	-5156.87	1	7828.659	-41.20209	-1.809358E-009	0.0042972	7
	33	47	505.5147	6122.694	-6212.494	1	8722.525	-45.4171	1.378935E-008	0.0043432	7
	34	49	397.9953	6429.019	-7626.363	1	9974.65	-49.86914	6.973705E-009	0.0042874	7
	35	50	315.5048	6796.828	-9320.364	1	11535.43	-53.89879	1.782966E-009	0.0042253	6
	36	51	252.4038	7226.168	-11311.64	1	13422.77	-57.42852	1.38564E-009	0.0042221	6
	37	53	198.6229	7797.668	-13942.19	1	15974.61	-60.78233	1.28291E-009	0.004226	6
	38	54	158.3615	8475.041	-17002.13	1	18997.34	-63.50515	7.783435E-010	0.0042206	6
	39	55	125.558	9381.44	-20848.12	1	22861.66	-65.77274	9.821757E-010	0.0042241	6
	40	57	100.4464	10508.44	-25332.75	1	27425.82	-67.47053	1.557871E-009	0.0042209	6
	41	58	79.00281	12066.29	-31254.39	1	33502.72	-68.89006	1.485424E-009	0.0042201	6
	42	60	63.3446	13862.01	-37555.54	1	40032.16	-69.74055	2.84802E-010	0.0042168	6
	43	61	49.86702	17321.68	-46461.07	1	49585	-69.55347	-2.343276E-010	0.0042148	6
	44	62	39.72458	20640.01	-56349.51	1	60010.64	-69.88295	1.033607E-009	0.0042235	6
	45	64	31.6723	25608.02	-67828.09	1	72501.18	-69.31632	5.666702E-010	0.0042207	6
	46	65	24.93351	32549.12	-82231.84	1	88439.37	-68.40528	1.136609E-009	0.0042212	6
	47	67	19.86229	41056.73	-97646.6	1	105926.9	-67.19508	1.275695E-009	0.0042251	5
	48	68	15.83615	52042.05	-115992.5	1	127132.3	-65.83578	1.194515E-009	0.0042254	5
	49	69	12.40079	66269.77	-137679	1	152797.9	-64.29685	1.213656E-009	0.0042288	5
	50	71	9.93114	82866.62	-157127.9	1	177640.2	-62.19358	7.198601E-010	0.0042264	5
	51	72	7.944915	102486.4	-180040.7	1	207166.8	-60.34974	-3.778819E-010	0.0042242	5
	52	74	6.317385	125454.5	-205203.2	1	240514.4	-58.55975	-8.02931E-011	0.004222	5
	53	76	5.008013	151937	-232455.7	1	277705.8	-56.83068	-1.033226E-010	0.004224	5
	54	79	3.945707	181785.5	-262531.3	1	319325.3	-55.29997	1.58784E-010	0.0042231	5
	55	81	3.158693	212338	-293151.8	1	361974.3	-54.08313	5.063461E-011	0.0042108	5
	56	85	2.504006	245787.6	-328858.3	1	410559.8	-53.22569	3.64082E-010	0.00423	5
	57	87	1.998082	278941.7	-367491.4	1	461365.8	-52.79995	4.077792E-010	0.0042137	5
	58	90	1.584686	318504.4	-414941	1	523088	-52.49053	3.575668E-011	0.004175	5
	59	94	1.266892	354115.7	-468457.1	1	587239.3	-52.91367	3.271913E-010	0.0041968	5
	60	98	0.999041	396877.3	-536784.6	1	667569.8	-53.52224	1.686046E-010	0.0042345	5
