EXPLAIN
TAG	EISPOT
TITLE	LABEL	Potentiostatic EIS	Test &Identifier
DATE	LABEL	11/21/2019	Date
TIME	LABEL	23:39:14	Time
NOTES	NOTES	4	&Notes...
	
	
	
	
PSTAT	PSTAT	REF600-11020	Potentiostat
VDC	POTEN	0.00000E+000	T	DC &Voltage (V)
FREQINIT	QUANT	1.00000E+006	Initial Fre&q. (Hz)
FREQFINAL	QUANT	1.00000E+000	Final Fre&q. (Hz)
PTSPERDEC	QUANT	1.00000E+001	Points/&decade
VAC	QUANT	2.50000E+001	AC &Voltage (mV rms)
AREA	QUANT	1.00000E-002	&Area (cm^2)
CONDIT	TWOPARAM	T	5.00000E+000	0.00000E+000	Conditionin&g	Time(s)	E(V)
DELAY	TWOPARAM	T	5.00000E+000	0.00000E+000	Init. De&lay	Time(s)	Stab.(mV/s)
SPEED	SELECTOR	1	&Optimize for:
ZGUESS	QUANT	1.00000E+005	E&stimated Z (ohms)
OCVCURVE	TABLE	19
	Pt	T	Vf	Vm	Ach	Over
	#	s	V vs. Ref.	V	V	bits
	0	0.258333	5.73854E-003	5.73854E-003	5.57066E-004	...........
	1	0.516667	5.73779E-003	5.69923E-003	5.58832E-004	...........
	2	0.775	5.73342E-003	5.67491E-003	5.59366E-004	...........
	3	1.03333	5.72212E-003	5.66319E-003	5.54999E-004	...........
	4	1.29167	5.70457E-003	5.65752E-003	5.58499E-004	...........
	5	1.55	5.68604E-003	5.66608E-003	5.57532E-004	...........
	6	1.80833	5.67214E-003	5.66543E-003	5.48066E-004	...........
	7	2.06667	5.66518E-003	5.67056E-003	5.49066E-004	...........
	8	2.325	5.66417E-003	5.68292E-003	5.59299E-004	...........
	9	2.58333	5.66741E-003	5.69975E-003	5.56999E-004	...........
	10	2.84167	5.67428E-003	5.70911E-003	5.58432E-004	...........
	11	3.1	5.68425E-003	5.72135E-003	5.51766E-004	...........
	12	3.35833	5.69599E-003	5.73318E-003	5.58632E-004	...........
	13	3.61667	5.70826E-003	5.74775E-003	5.56366E-004	...........
	14	3.875	5.72087E-003	5.77169E-003	5.54066E-004	...........
	15	4.13333	5.73496E-003	5.80171E-003	5.51499E-004	...........
	16	4.39167	5.75222E-003	5.82235E-003	5.48399E-004	...........
	17	4.65	5.77303E-003	5.84047E-003	5.55466E-004	...........
	18	4.90833	5.79569E-003	5.86145E-003	5.55466E-004	...........
EOC	QUANT	0.0057957	Open Circuit (V)
PSTATMODEL	IQUANT	4	Pstat Model
PSTATSECTION	LABEL	REF600-11020	Pstat Section
PSTATSERIALNO	LABEL	11020	Pstat Serial Number
CTRLMODE	IQUANT	1	Control Mode
IESTAB	IQUANT	0	I/E Stability
CASPEED	IQUANT	1	Control Amp Speed
CONVENTION	IQUANT	1	Current Convention
ICHRANGE	IQUANT	2	Ich Range
ICHRANGEMODE	TOGGLE	F	Ich Auto Range
ICHOFFSETENABLE	TOGGLE	T	Ich Offset Enable
ICHOFFSET	QUANT	0	Ich Offset (V)
ICHFILTER	IQUANT	3	Ich Filter
VCHRANGE	IQUANT	2	Vch Range
VCHRANGEMODE	TOGGLE	F	Vch Auto Range
VCHOFFSETENABLE	TOGGLE	T	Vch Offset Enable
VCHOFFSET	QUANT	0	Vch Offset (V)
VCHFILTER	IQUANT	3	Vch Filter
ACHRANGE	IQUANT	2	Ach Range
ACHOFFSETENABLE	TOGGLE	F	Ach Offset Enable
ACHOFFSET	QUANT	0	Ach Offset (V)
ACHFILTER	IQUANT	3	Ach Filter
IERANGELOWERLIMIT	IQUANT	1	I/E Range Lower Limit
IERANGEMODE	TOGGLE	F	I/E AutoRange
IERANGE	IQUANT	5	I/E Range
POSFEEDENABLE	TOGGLE	F	Positive Feedback IR Comp
POSFEEDRESISTANCE	QUANT	0	Positive Feedback Resistance (ohm)
ACHSELECT	IQUANT	0	Ach Select
CABLEID	IQUANT	14	Cable ID
DCCALDATE	LABEL	8/19/2019	DC Calibration Date
ACCALDATE	LABEL	8/19/2019	AC Calibration Date
THERMOSELECT	IQUANT	1	Thermo Select
FRAMEWORKVERSION	QUANT	6.33	Framework Version
INSTRUMENTVERSION	LABEL	3.50	Instrument Version
ZCURVE	TABLE
	Pt	Time	Freq	Zreal	Zimag	Zsig	Zmod	Zphz	Idc	Vdc	IERange
	#	s	Hz	ohm	ohm	V	ohm	°	A	V	#
	0	2	1000078	1814.179	-1956.247	1	2667.986	-47.15786	6.618039E-007	0.0075692	8
	1	4	794390.6	2133.491	-2140.151	1	3021.925	-45.08929	-3.072533E-006	0.007893	8
	2	5	630984.4	2479.419	-2308.862	1	3387.974	-42.96	3.074758E-006	0.0069909	8
	3	6	501234.4	2889.361	-2509.51	1	3827.015	-40.97545	1.799106E-006	0.0069179	8
	4	8	398109.4	3339.191	-2656.441	1	4266.952	-38.50345	-8.369943E-007	0.0070472	8
	5	9	316265.6	3844.443	-2748.46	1	4725.862	-35.56165	6.178593E-006	0.0061809	8
	6	11	251203.1	4397.648	-2807.544	1	5217.434	-32.55495	4.680283E-007	0.0076952	8
	7	12	199546.9	4941.405	-2765.014	1	5662.401	-29.22964	-2.125527E-006	0.007456	8
	8	13	158578.1	5494.557	-2649.864	1	6100.158	-25.74665	-5.843526E-007	0.0070137	8
	9	15	125953.1	5996.007	-2384.388	1	6452.706	-21.68587	-7.12461E-007	0.0108727	7
	10	17	100078.1	6377.419	-2166.374	1	6735.329	-18.76233	-2.918553E-007	0.0087502	7
	11	18	79453.13	6693.369	-1899.927	1	6957.794	-15.84671	-6.622001E-007	0.0090192	7
	12	20	63140.62	6984.745	-1669.416	1	7181.477	-13.44203	4.574912E-007	0.0078154	7
	13	21	50203.12	7200.277	-1421.664	1	7339.286	-11.16914	1.212274E-006	0.0055688	7
	14	23	39890.62	7349.368	-1227.14	1	7451.112	-9.47935	1.241615E-006	0.0059204	7
	15	25	31640.63	7452.886	-1054.731	1	7527.149	-8.054997	1.241492E-006	0.0059248	7
	16	26	25171.88	7441.206	-903.4079	1	7495.845	-6.922181	-1.362397E-006	0.0084866	7
	17	28	20015.62	7586.667	-814.9465	1	7630.312	-6.131103	7.138942E-007	0.0074313	7
	18	29	15890.62	7628.827	-734.4012	1	7664.095	-5.498725	1.083464E-006	0.0053328	7
	19	31	12609.37	7635.407	-684.3228	1	7666.012	-5.121446	4.978982E-007	0.0054087	7
	20	33	10078.13	7711.25	-667.7627	1	7740.109	-4.949233	1.242847E-006	0.0059175	7
	21	34	8015.625	7704.219	-681.0553	1	7734.263	-5.051832	4.610448E-007	0.0078124	7
	22	36	6328.125	7694.939	-706.8406	1	7727.335	-5.248339	-3.981952E-007	0.0063721	7
	23	38	5015.625	7707.935	-772.6673	1	7746.565	-5.724383	-1.357764E-006	0.0088855	7
	24	39	3984.375	7748.911	-873.1498	1	7797.949	-6.428989	-1.206751E-006	0.0090681	7
	25	41	3170.956	7845.811	-1022.243	1	7912.125	-7.423341	4.592274E-007	0.0078143	7
	26	42	2527.573	7872.926	-1192.341	1	7962.704	-8.611903	8.392543E-007	0.0052636	7
	27	44	1976.103	7961.088	-1450.639	1	8092.174	-10.32691	1.242472E-006	0.005922	7
	28	46	1577.524	8013.857	-1742.781	1	8201.17	-12.26913	7.160901E-007	0.0074344	7
	29	47	1265.625	8029.853	-2077.774	1	8294.316	-14.50744	-2.892729E-007	0.0087323	7
	30	49	998.264	8067.254	-2512.631	1	8449.491	-17.29975	-1.191351E-006	0.0078699	7
	31	50	796.875	8182.458	-3062.853	1	8736.915	-20.52185	-1.358386E-006	0.0088792	7
	32	52	627.7902	8320.947	-3769.003	1	9134.744	-24.36832	-1.184112E-006	0.0078658	7
	33	53	505.5147	8501.071	-4574.534	1	9653.73	-28.28526	-1.20717E-006	0.0090605	7
	34	54	397.9953	8775.689	-5686.704	1	10457.12	-32.9435	6.912394E-009	0.0072678	7
	35	56	315.5048	9085.812	-6970.739	1	11451.78	-37.49583	8.917485E-010	0.0072053	6
	36	57	252.4038	9466.092	-8472.175	1	12703.73	-41.82862	1.848764E-009	0.0072062	6
	37	58	198.6229	10003.72	-10429.46	1	14451.58	-46.19363	8.256259E-010	0.007216	6
	38	60	158.3615	10671.68	-12669.52	1	16565.07	-49.89217	1.308773E-009	0.0071922	6
	39	61	125.558	11575.48	-15424.35	1	19284.77	-53.11295	4.27779E-010	0.0072104	6
	40	63	100.4464	12694.07	-18562.15	1	22487.62	-55.63301	5.796466E-010	0.007203	6
	41	64	79.00281	14325.75	-22633.42	1	26786.17	-57.66837	7.548715E-010	0.0071931	6
	42	65	63.3446	16375.18	-26809.01	1	31414.48	-58.58305	4.170034E-010	0.0071899	6
	43	67	49.86702	18756.42	-32526.74	1	37547.2	-60.03027	9.955149E-010	0.0071922	6
	44	68	39.72458	21811.89	-38324.71	1	44096.96	-60.35434	1.217029E-009	0.0071936	6
	45	70	31.6723	25446.98	-45175.83	1	51849.82	-60.60799	1.841386E-009	0.0071999	6
	46	71	24.93351	30154.24	-53227.91	1	61175.88	-60.46794	1.139599E-009	0.0071937	6
	47	72	19.86229	35149	-62054.73	1	71317.89	-60.47194	9.577578E-010	0.0072018	6
	48	74	15.83615	41331.44	-71895.13	1	82928.87	-60.10604	-1.834032E-010	0.0071961	6
	49	75	12.40079	47872.54	-85144.71	1	97680.1	-60.65317	6.68972E-010	0.0071981	6
	50	76	9.93114	54938.65	-98559.9	1	112837.5	-60.8641	7.980071E-010	0.0072069	5
	51	78	7.944915	62857.33	-114962.2	1	131024.2	-61.3317	1.005837E-010	0.0072117	5
	52	80	6.317385	72265.68	-134901.1	1	153038	-61.82233	-2.274877E-010	0.0072193	5
	53	82	5.008013	83374.51	-159213.3	1	179722.5	-62.36049	-1.091687E-010	0.0072004	5
	54	84	3.945707	96779.1	-189044.1	1	212376.7	-62.89032	3.235343E-010	0.0072244	5
	55	87	3.158693	112073.1	-222674.7	1	249287.8	-63.2837	-9.809328E-011	0.0072067	5
	56	90	2.504006	131050.6	-263721.3	1	294488	-63.5759	3.589474E-010	0.0072073	5
	57	93	1.998082	153311.7	-310545.1	1	346327.5	-63.72511	-3.601946E-011	0.0072497	5
	58	96	1.584686	180135.3	-367827.8	1	409568.1	-63.90775	1.33575E-010	0.0072425	5
	59	100	1.266892	212285.6	-431337.4	1	480746.5	-63.79559	-7.007797E-011	0.0072378	5
	60	104	0.999041	251445	-510719.8	1	569262.1	-63.78738	1.793198E-010	0.0071862	5
