EXPLAIN
TAG	EISPOT
TITLE	LABEL	Potentiostatic EIS	Test &Identifier
DATE	LABEL	11/5/2019	Date
TIME	LABEL	10:31:44	Time
NOTES	NOTES	2	&Notes...
	
	
PSTAT	PSTAT	REF600-11020	Potentiostat
VDC	POTEN	0.00000E+000	T	DC &Voltage (V)
FREQINIT	QUANT	1.00000E+006	Initial Fre&q. (Hz)
FREQFINAL	QUANT	1.00000E+000	Final Fre&q. (Hz)
PTSPERDEC	QUANT	1.00000E+001	Points/&decade
VAC	QUANT	2.50000E+001	AC &Voltage (mV rms)
AREA	QUANT	1.00000E-002	&Area (cm^2)
CONDIT	TWOPARAM	T	5.00000E+000	0.00000E+000	Conditionin&g	Time(s)	E(V)
DELAY	TWOPARAM	T	5.00000E+000	0.00000E+000	Init. De&lay	Time(s)	Stab.(mV/s)
SPEED	SELECTOR	1	&Optimize for:
ZGUESS	QUANT	1.00000E+005	E&stimated Z (ohms)
OCVCURVE	TABLE	19
	Pt	T	Vf	Vm	Ach	Over
	#	s	V vs. Ref.	V	V	bits
	0	0.258333	6.51869E-003	6.51869E-003	6.38065E-004	...........
	1	0.516667	6.51793E-003	6.47900E-003	6.41398E-004	...........
	2	0.775	6.51395E-003	6.47689E-003	6.34431E-004	...........
	3	1.03333	6.50492E-003	6.47322E-003	6.37465E-004	...........
	4	1.29167	6.49342E-003	6.49152E-003	6.35598E-004	...........
	5	1.55	6.48523E-003	6.50533E-003	6.35031E-004	...........
	6	1.80833	6.48482E-003	6.53226E-003	6.34431E-004	...........
	7	2.06667	6.49325E-003	6.55583E-003	6.32031E-004	...........
	8	2.325	6.50930E-003	6.58837E-003	6.39365E-004	...........
	9	2.58333	6.53117E-003	6.62160E-003	6.40531E-004	...........
	10	2.84167	6.55749E-003	6.65450E-003	6.39964E-004	...........
	11	3.1	6.58721E-003	6.69135E-003	6.37298E-004	...........
	12	3.35833	6.61936E-003	6.72503E-003	6.38931E-004	...........
	13	3.61667	6.65317E-003	6.76452E-003	6.35865E-004	...........
	14	3.875	6.68807E-003	6.79473E-003	6.38631E-004	...........
	15	4.13333	6.72346E-003	6.83165E-003	6.41331E-004	...........
	16	4.39167	6.75856E-003	6.85627E-003	6.36198E-004	...........
	17	4.65	6.79265E-003	6.89540E-003	6.36398E-004	...........
	18	4.90833	6.82476E-003	6.87766E-003	6.36431E-004	...........
EOC	QUANT	0.0068248	Open Circuit (V)
PSTATMODEL	IQUANT	4	Pstat Model
PSTATSECTION	LABEL	REF600-11020	Pstat Section
PSTATSERIALNO	LABEL	11020	Pstat Serial Number
CTRLMODE	IQUANT	1	Control Mode
IESTAB	IQUANT	0	I/E Stability
CASPEED	IQUANT	1	Control Amp Speed
CONVENTION	IQUANT	1	Current Convention
ICHRANGE	IQUANT	2	Ich Range
ICHRANGEMODE	TOGGLE	F	Ich Auto Range
ICHOFFSETENABLE	TOGGLE	T	Ich Offset Enable
ICHOFFSET	QUANT	0	Ich Offset (V)
ICHFILTER	IQUANT	3	Ich Filter
VCHRANGE	IQUANT	2	Vch Range
VCHRANGEMODE	TOGGLE	F	Vch Auto Range
VCHOFFSETENABLE	TOGGLE	T	Vch Offset Enable
VCHOFFSET	QUANT	0	Vch Offset (V)
VCHFILTER	IQUANT	3	Vch Filter
ACHRANGE	IQUANT	2	Ach Range
ACHOFFSETENABLE	TOGGLE	F	Ach Offset Enable
ACHOFFSET	QUANT	0	Ach Offset (V)
ACHFILTER	IQUANT	3	Ach Filter
IERANGELOWERLIMIT	IQUANT	1	I/E Range Lower Limit
IERANGEMODE	TOGGLE	F	I/E AutoRange
IERANGE	IQUANT	5	I/E Range
POSFEEDENABLE	TOGGLE	F	Positive Feedback IR Comp
POSFEEDRESISTANCE	QUANT	0	Positive Feedback Resistance (ohm)
ACHSELECT	IQUANT	0	Ach Select
CABLEID	IQUANT	14	Cable ID
DCCALDATE	LABEL	8/19/2019	DC Calibration Date
ACCALDATE	LABEL	8/19/2019	AC Calibration Date
THERMOSELECT	IQUANT	1	Thermo Select
FRAMEWORKVERSION	QUANT	6.33	Framework Version
INSTRUMENTVERSION	LABEL	3.50	Instrument Version
ZCURVE	TABLE
	Pt	Time	Freq	Zreal	Zimag	Zsig	Zmod	Zphz	Idc	Vdc	IERange
	#	s	Hz	ohm	ohm	V	ohm	°	A	V	#
	0	2	1000078	2337.472	-2020.655	1	3089.793	-40.84216	-8.673193E-006	0.0084405	8
	1	4	794390.6	2744.964	-2046.385	1	3423.817	-36.70472	4.063058E-006	0.0091653	8
	2	5	630984.4	3142.255	-2004.163	1	3726.987	-32.53015	5.847214E-009	0.0089571	8
	3	6	501234.4	3513.573	-1902.343	1	3995.51	-28.43231	-5.352963E-007	0.0089474	8
	4	8	398109.4	3831.927	-1797.858	1	4232.724	-25.13496	-1.744044E-006	0.0080715	8
	5	9	316265.6	4122.326	-1657.693	1	4443.143	-21.90633	-1.630714E-006	0.0080453	8
	6	10	251203.1	4363.509	-1504.899	1	4615.727	-19.02843	4.266375E-006	0.0082698	8
	7	12	199546.9	4539.366	-1377.475	1	4743.762	-16.88047	-2.12869E-006	0.0083928	8
	8	13	158578.1	4775.642	-1330.658	1	4957.56	-15.56966	7.043572E-009	0.0079474	8
	9	15	125953.1	4912.838	-1092.837	1	5032.919	-12.54098	3.354599E-006	0.0061814	7
	10	16	100078.1	5008.706	-988.388	1	5105.296	-11.16298	-8.309125E-007	0.0080284	7
	11	17	79453.13	5104.165	-950.669	1	5191.942	-10.55066	-1.289094E-006	0.0101314	7
	12	19	63140.62	5199.318	-925.0681	1	5280.971	-10.08856	4.33663E-007	0.0089052	7
	13	20	50203.12	5288.804	-913.1308	1	5367.053	-9.79575	-3.374734E-007	0.0072186	7
	14	21	39890.62	5373.935	-926.226	1	5453.171	-9.77915	-1.287617E-006	0.0101195	7
	15	23	31640.63	5471.785	-958.426	1	5555.089	-9.93502	1.578348E-007	0.0066156	7
	16	24	25171.88	5569.666	-1011.204	1	5660.716	-10.29028	1.283713E-006	0.0065349	7
	17	26	20015.62	5663.668	-1073.149	1	5764.441	-10.72918	1.18018E-006	0.0074385	7
	18	27	15890.62	5784.349	-1176.299	1	5902.743	-11.49486	1.165124E-006	0.0062598	7
	19	28	12609.37	5899.316	-1290.778	1	6038.877	-12.34189	-7.417285E-007	0.0101156	7
	20	30	10078.13	6032.177	-1430.655	1	6199.51	-13.34235	6.093874E-008	0.0093872	7
	21	31	8015.625	6194.968	-1594.61	1	6396.907	-14.43481	6.673954E-008	0.0093876	7
	22	33	6328.125	6360.777	-1801.112	1	6610.861	-15.80995	-3.543107E-007	0.0098413	7
	23	34	5015.625	6553.711	-2034.665	1	6862.288	-17.24748	-1.288805E-006	0.0101186	7
	24	35	3984.375	6782.844	-2311.789	1	7165.985	-18.82059	-3.358528E-007	0.007211	7
	25	37	3170.956	7035.667	-2612.759	1	7505.14	-20.37293	1.521253E-007	0.0066114	7
	26	38	2527.573	7307.053	-2955.313	1	7882.062	-22.02071	-1.208439E-006	0.0088099	7
	27	40	1976.103	7653.089	-3386.977	1	8369.073	-23.87243	-7.368511E-007	0.0101072	7
	28	41	1577.524	7937.697	-3821.522	1	8809.714	-25.70801	6.066216E-008	0.0093887	7
	29	43	1265.625	8383.497	-4331.532	1	9436.376	-27.32421	6.704474E-008	0.0093861	7
	30	44	998.264	8819.668	-4936.701	1	10107.3	-29.23738	-1.252181E-007	0.0114515	6
	31	46	796.875	9250.67	-5625.001	1	10826.61	-31.30229	1.359918E-007	0.0048997	6
	32	47	627.7902	9724.26	-6485.596	1	11688.63	-33.70131	2.124915E-007	0.0058728	6
	33	49	505.5147	10149.5	-7434.167	1	12580.91	-36.22152	-1.867475E-007	0.0117437	6
	34	50	397.9953	10643.21	-8728.431	1	13764.57	-39.35496	-9.41535E-011	0.0082141	6
	35	51	315.5048	11133.8	-10292.23	1	15162.17	-42.75069	-5.488462E-011	0.0082078	6
	36	53	252.4038	11632.78	-12164.27	1	16831.25	-46.27943	6.126977E-010	0.0081993	6
	37	54	198.6229	12226.47	-14689.96	1	19112.34	-50.22936	4.085715E-010	0.0081973	6
	38	55	158.3615	12862.91	-17673.32	1	21858.65	-53.9523	1.310098E-009	0.0081987	6
	39	57	125.558	13650.29	-21500.15	1	25467.37	-57.58883	1.813641E-010	0.0082074	6
	40	58	100.4464	14547.06	-26067.88	1	29852.15	-60.8365	1.678862E-009	0.008194	6
	41	59	79.00281	15731.06	-32070.24	1	35720.68	-63.87117	-5.083174E-010	0.0082007	6
	42	61	63.3446	16804.76	-39073.93	1	42534.36	-66.72862	3.773145E-010	0.0082024	6
	43	62	49.86702	19420.12	-47762.2	1	51559.37	-67.87333	2.622217E-010	0.0081848	6
	44	64	39.72458	21931.43	-58770.63	1	62729.37	-69.53594	1.458007E-010	0.0082058	6
	45	65	31.6723	25592.89	-71597.24	1	76033.95	-70.33025	-1.731998E-010	0.0082029	6
	46	67	24.93351	30454.98	-88264.51	1	93370.92	-70.9634	1.690479E-010	0.0082051	6
	47	68	19.86229	36702.87	-107120.8	1	113234.1	-71.08697	6.571152E-010	0.0082089	5
	48	69	15.83615	43690.23	-130062.8	1	137204.8	-71.43195	1.653205E-009	0.0082064	5
	49	71	12.40079	56204.2	-160282.5	1	169851	-70.67641	8.227022E-010	0.0082095	5
	50	72	9.93114	72388.7	-190730.4	1	204005.5	-69.21654	-6.91273E-011	0.0082046	5
	51	74	7.944915	91242.79	-226843.4	1	244506	-68.08862	-8.360128E-011	0.0081925	5
	52	76	6.317385	117461.1	-267587.7	1	292233.3	-66.30029	4.819657E-010	0.0082107	5
	53	78	5.008013	151299	-315076.4	1	349520.5	-64.34978	3.359175E-010	0.0082059	5
	54	80	3.945707	194603.8	-368462	1	416695.3	-62.15915	3.078773E-010	0.0082051	5
	55	83	3.158693	243048.4	-419331.7	1	484676.8	-59.90303	1.638202E-010	0.0082103	5
	56	86	2.504006	301607.5	-475666.5	1	563227.9	-57.62231	3.488499E-012	0.0081874	5
	57	89	1.998082	367246.5	-527900.2	1	643077.4	-55.17467	-2.423907E-010	0.008209	5
	58	92	1.584686	438650.4	-590910.8	1	735927.8	-53.41241	1.867154E-010	0.0082444	5
	59	96	1.266892	511023.6	-650722	1	827396.1	-51.85682	-2.118013E-010	0.0082185	5
	60	100	0.999041	592487.6	-721669.8	1	933728.4	-50.61416	2.697096E-010	0.0081852	5
