EXPLAIN
TAG	EISPOT
TITLE	LABEL	Potentiostatic EIS	Test &Identifier
DATE	LABEL	11/27/2019	Date
TIME	LABEL	13:52:03	Time
NOTES	NOTES	3	&Notes...
	
	
	
PSTAT	PSTAT	REF600-11020	Potentiostat
VDC	POTEN	0.00000E+000	T	DC &Voltage (V)
FREQINIT	QUANT	1.00000E+006	Initial Fre&q. (Hz)
FREQFINAL	QUANT	1.00000E+000	Final Fre&q. (Hz)
PTSPERDEC	QUANT	1.00000E+001	Points/&decade
VAC	QUANT	2.50000E+001	AC &Voltage (mV rms)
AREA	QUANT	1.00000E-002	&Area (cm^2)
CONDIT	TWOPARAM	T	5.00000E+000	0.00000E+000	Conditionin&g	Time(s)	E(V)
DELAY	TWOPARAM	T	5.00000E+000	0.00000E+000	Init. De&lay	Time(s)	Stab.(mV/s)
SPEED	SELECTOR	0	&Optimize for:
ZGUESS	QUANT	1.00000E+005	E&stimated Z (ohms)
OCVCURVE	TABLE	19
	Pt	T	Vf	Vm	Ach	Over
	#	s	V vs. Ref.	V	V	bits
	0	0.258333	4.30022E-002	4.30022E-002	5.30066E-004	...........
	1	0.516667	4.30573E-002	4.58851E-002	5.43566E-004	...........
	2	0.775	4.33944E-002	4.85593E-002	5.41666E-004	...........
	3	1.03333	4.43432E-002	5.10739E-002	5.30400E-004	...........
	4	1.29167	4.60289E-002	5.34652E-002	5.31533E-004	...........
	5	1.55	4.82508E-002	5.57103E-002	5.41199E-004	...........
	6	1.80833	5.06894E-002	5.78406E-002	5.45999E-004	...........
	7	2.06667	5.31129E-002	5.98613E-002	5.36233E-004	...........
	8	2.325	5.54190E-002	6.17877E-002	5.31700E-004	...........
	9	2.58333	5.75885E-002	6.36266E-002	5.48066E-004	...........
	10	2.84167	5.96347E-002	6.53780E-002	5.41433E-004	...........
	11	3.1	6.15749E-002	6.70488E-002	5.30033E-004	...........
	12	3.35833	6.34208E-002	6.85991E-002	5.40433E-004	...........
	13	3.61667	6.51770E-002	7.01071E-002	5.46966E-004	...........
	14	3.875	6.68468E-002	7.16116E-002	5.42599E-004	...........
	15	4.13333	6.84408E-002	7.30533E-002	5.33733E-004	...........
	16	4.39167	6.99741E-002	7.43831E-002	5.35966E-004	...........
	17	4.65	7.14542E-002	7.57059E-002	5.43433E-004	...........
	18	4.90833	7.28791E-002	7.69292E-002	5.37899E-004	...........
EOC	QUANT	0.0728791	Open Circuit (V)
PSTATMODEL	IQUANT	4	Pstat Model
PSTATSECTION	LABEL	REF600-11020	Pstat Section
PSTATSERIALNO	LABEL	11020	Pstat Serial Number
CTRLMODE	IQUANT	1	Control Mode
IESTAB	IQUANT	0	I/E Stability
CASPEED	IQUANT	1	Control Amp Speed
CONVENTION	IQUANT	1	Current Convention
ICHRANGE	IQUANT	2	Ich Range
ICHRANGEMODE	TOGGLE	F	Ich Auto Range
ICHOFFSETENABLE	TOGGLE	T	Ich Offset Enable
ICHOFFSET	QUANT	0	Ich Offset (V)
ICHFILTER	IQUANT	3	Ich Filter
VCHRANGE	IQUANT	2	Vch Range
VCHRANGEMODE	TOGGLE	F	Vch Auto Range
VCHOFFSETENABLE	TOGGLE	T	Vch Offset Enable
VCHOFFSET	QUANT	0	Vch Offset (V)
VCHFILTER	IQUANT	3	Vch Filter
ACHRANGE	IQUANT	2	Ach Range
ACHOFFSETENABLE	TOGGLE	F	Ach Offset Enable
ACHOFFSET	QUANT	0	Ach Offset (V)
ACHFILTER	IQUANT	3	Ach Filter
IERANGELOWERLIMIT	IQUANT	1	I/E Range Lower Limit
IERANGEMODE	TOGGLE	F	I/E AutoRange
IERANGE	IQUANT	6	I/E Range
POSFEEDENABLE	TOGGLE	F	Positive Feedback IR Comp
POSFEEDRESISTANCE	QUANT	0	Positive Feedback Resistance (ohm)
ACHSELECT	IQUANT	0	Ach Select
CABLEID	IQUANT	14	Cable ID
DCCALDATE	LABEL	8/19/2019	DC Calibration Date
ACCALDATE	LABEL	8/19/2019	AC Calibration Date
THERMOSELECT	IQUANT	1	Thermo Select
FRAMEWORKVERSION	QUANT	6.33	Framework Version
INSTRUMENTVERSION	LABEL	3.50	Instrument Version
ZCURVE	TABLE
	Pt	Time	Freq	Zreal	Zimag	Zsig	Zmod	Zphz	Idc	Vdc	IERange
	#	s	Hz	ohm	ohm	V	ohm	°	A	V	#
	0	1	1000078	1539.147	-1220.837	1	1964.54	-38.42112	-4.972256E-006	0.0749287	8
	1	1	794390.6	1725.526	-1306.689	1	2164.458	-37.13556	1.012567E-005	0.0740039	8
	2	1	630984.4	1920.726	-1392.764	1	2372.547	-35.94676	-3.382598E-007	0.074292	8
	3	2	501234.4	2150.893	-1483.299	1	2612.76	-34.59093	5.992418E-006	0.0735039	8
	4	2	398109.4	2391.04	-1556.576	1	2853.069	-33.06428	6.209516E-006	0.0738433	8
	5	2	316265.6	2647.385	-1621.247	1	3104.366	-31.48312	-4.722132E-006	0.07494	8
	6	3	251203.1	2911.083	-1665.624	1	3353.909	-29.77675	5.59203E-006	0.0735057	8
	7	3	199546.9	3183.824	-1701.267	1	3609.854	-28.11769	-2.451568E-006	0.0744824	8
	8	3	158578.1	3452.917	-1707.823	1	3852.18	-26.31713	7.48766E-007	0.0748941	8
	9	4	125953.1	3738.953	-1663.853	1	4092.453	-23.98931	-2.239863E-006	0.0755278	7
	10	4	100078.1	3982.536	-1705.651	1	4332.417	-23.18461	-5.103672E-007	0.0759698	7
	11	4	79453.13	4240.852	-1726.119	1	4578.68	-22.1474	-1.953165E-007	0.0757098	7
	12	5	63140.62	4494.462	-1743.82	1	4820.902	-21.20591	1.410059E-007	0.0753146	7
	13	5	50203.12	4759.313	-1762.93	1	5075.33	-20.32548	1.018599E-006	0.0733492	7
	14	5	39890.62	4958.173	-1757.449	1	5260.429	-19.51712	-1.030763E-006	0.075124	7
	15	5	31640.63	5221.182	-1795.244	1	5521.2	-18.97495	-7.168968E-009	0.0733581	7
	16	6	25171.88	5437.338	-1826.592	1	5735.947	-18.569	-1.152425E-006	0.075611	7
	17	6	20015.62	5723.355	-1910.089	1	6033.675	-18.4557	8.46377E-007	0.0729095	7
	18	6	15890.62	5975.809	-1980.832	1	6295.553	-18.33908	9.674779E-007	0.0737104	7
	19	7	12609.37	6206.951	-2057.307	1	6539.018	-18.33789	1.421045E-007	0.0753005	7
	20	7	10078.13	6472.314	-2147.013	1	6819.128	-18.35185	3.441133E-007	0.0730291	7
	21	8	8015.625	6743.458	-2260.231	1	7112.163	-18.52981	3.396781E-007	0.0730279	7
	22	8	6328.125	7095.17	-2433.209	1	7500.796	-18.92883	1.01949E-006	0.0733369	7
	23	9	5015.625	7426.331	-2586.649	1	7863.914	-19.20362	9.731565E-007	0.0730685	7
	24	9	3984.375	7784.677	-2756.74	1	8258.378	-19.50027	8.223753E-007	0.0741412	7
	25	9	3170.956	8091.713	-2869.043	1	8585.292	-19.52275	-3.956912E-007	0.0738487	7
	26	10	2527.573	8465.908	-3039.708	1	8995.078	-19.75082	-7.767154E-007	0.0760465	7
	27	10	1976.103	8965.327	-3298.778	1	9552.96	-20.20101	8.262304E-007	0.0741445	7
	28	10	1577.524	9292.289	-3517.52	1	9935.77	-20.73375	6.316762E-007	0.0728756	7
	29	11	1265.625	9618.21	-3661.179	1	10291.46	-20.83937	-1.154864E-006	0.0755988	7
	30	11	998.264	10163.46	-4061.775	1	10945.04	-21.78387	9.703042E-007	0.0736987	7
	31	11	796.875	10426.61	-4338.278	1	11293.13	-22.5911	-1.15509E-006	0.0755914	7
	32	12	627.7902	10907.78	-4850.261	1	11937.53	-23.97284	-9.321651E-009	0.073341	7
	33	12	505.5147	11300.5	-5369.423	1	12511.27	-25.4147	-1.771431E-007	0.0759883	6
	34	12	397.9953	11828.51	-6107.08	1	13312.03	-27.30738	-5.479059E-009	0.0744507	6
	35	13	315.5048	12314.08	-6963.825	1	14146.78	-29.4889	-4.286201E-009	0.0744581	6
	36	13	252.4038	12809.5	-7981.817	1	15092.8	-31.92773	-4.259789E-009	0.0744433	6
	37	13	198.6229	13386.38	-9341.568	1	16323.6	-34.90893	-5.444321E-009	0.0744505	6
	38	14	158.3615	14011.36	-10941.88	1	17777.6	-37.98732	-5.832099E-009	0.0744417	6
	39	14	125.558	14765.81	-12969.82	1	19653.13	-41.29506	-6.401047E-009	0.074449	6
	40	14	100.4464	15633.69	-15354.83	1	21913.08	-44.48443	-6.883352E-009	0.0744456	6
	41	15	79.00281	16811.35	-18437.04	1	24950.86	-47.64067	-5.859242E-009	0.0744452	6
	42	15	63.3446	18497.45	-22052.32	1	28782.99	-50.01014	-5.708147E-009	0.0744377	6
	43	15	49.86702	20355.16	-26496.58	1	33412.59	-52.46786	-5.689708E-009	0.0744488	6
	44	16	39.72458	22706.93	-31353.23	1	38712.14	-54.08685	-5.362714E-009	0.0744433	6
	45	16	31.6723	25706.69	-37047.67	1	45092.84	-55.24393	-4.942291E-009	0.074444	6
	46	16	24.93351	29829.98	-44197.03	1	53321.71	-55.98334	-6.110388E-009	0.0744398	6
	47	17	19.86229	34787.16	-51953.54	1	62524.53	-56.19444	-8.220501E-009	0.0744385	6
	48	17	15.83615	40899.9	-60078.77	1	72679.16	-55.75409	-3.005561E-009	0.0744461	6
	49	17	12.40079	49166.97	-70208.55	1	85712.49	-54.99649	-2.599102E-009	0.074444	6
	50	18	9.93114	57468.99	-80709.8	1	99079.5	-54.54743	-6.813211E-009	0.0744473	6
	51	18	7.944915	67868.44	-91539.84	1	113954.7	-53.44644	-6.66018E-009	0.0744487	5
	52	19	6.317385	80552.73	-103707.6	1	131316.4	-52.16246	-5.76831E-009	0.0744532	5
	53	19	5.008013	94890.37	-116576.4	1	150313.8	-50.85523	-5.572244E-009	0.0744396	5
	54	21	3.945707	111870.1	-130498	1	171885.6	-49.39501	-3.756939E-009	0.0744482	5
	55	22	3.158693	128919.6	-144082.8	1	193339.4	-48.17909	-4.155588E-009	0.0744636	5
	56	24	2.504006	148566.1	-159666.2	1	218094.4	-47.06244	-4.646813E-009	0.0744485	5
	57	25	1.998082	168615.2	-175413.1	1	243312.2	-46.132	-3.785367E-009	0.0744788	5
	58	26	1.584686	191645.8	-194322.2	1	272927.2	-45.3973	-3.169669E-009	0.0744977	5
	59	28	1.266892	214728	-214883	1	303780.8	-45.02068	-3.070438E-009	0.0744638	5
	60	31	0.999041	241508.6	-238981.5	1	339762.5	-44.69867	-3.00591E-009	0.0744354	5
