EXPLAIN
TAG	EISPOT
TITLE	LABEL	Potentiostatic IDE	Test &Identifier
DATE	LABEL	9/16/2019	Date
TIME	LABEL	8:48:44	Time
NOTES	NOTES	1	&Notes...
	
PSTAT	PSTAT	REF600-11020	Potentiostat
VDC	POTEN	0.00000E+000	T	DC &Voltage (V)
FREQINIT	QUANT	1.00000E+006	Initial Fre&q. (Hz)
FREQFINAL	QUANT	1.00000E+000	Final Fre&q. (Hz)
PTSPERDEC	QUANT	1.00000E+001	Points/&decade
VAC	QUANT	2.50000E+001	AC &Voltage (mV rms)
AREA	QUANT	1.00000E-002	&Area (cm^2)
CONDIT	TWOPARAM	T	5.00000E+000	0.00000E+000	Conditionin&g	Time(s)	E(V)
DELAY	TWOPARAM	T	5.00000E+000	0.00000E+000	Init. De&lay	Time(s)	Stab.(mV/s)
SPEED	SELECTOR	1	&Optimize for:
ZGUESS	QUANT	1.00000E+007	E&stimated Z (ohms)
OCVCURVE	TABLE	19
	Pt	T	Vf	Vm	Ach	Over
	#	s	V vs. Ref.	V	V	bits
	0	0.258333	2.69697E-004	2.69697E-004	5.72866E-004	...........
	1	0.516667	2.63994E-004	-2.88387E-005	5.68499E-004	...........
	2	0.775	2.28490E-004	-3.37085E-004	5.68332E-004	...........
	3	1.03333	1.24932E-004	-7.12373E-004	5.70399E-004	...........
	4	1.29167	-6.92116E-005	-1.02714E-003	5.71299E-004	...........
	5	1.55	-3.40777E-004	-1.30057E-003	5.72366E-004	...........
	6	1.80833	-6.51666E-004	-1.55155E-003	5.67766E-004	...........
	7	2.06667	-9.63252E-004	-1.78303E-003	5.72066E-004	...........
	8	2.325	-1.25323E-003	-2.00892E-003	5.69732E-004	...........
	9	2.58333	-1.51680E-003	-2.22054E-003	5.69132E-004	...........
	10	2.84167	-1.75838E-003	-2.41934E-003	5.71099E-004	...........
	11	3.1	-1.98352E-003	-2.60778E-003	5.70466E-004	...........
	12	3.35833	-2.19557E-003	-2.78663E-003	5.66032E-004	...........
	13	3.61667	-2.39613E-003	-2.95780E-003	5.65866E-004	...........
	14	3.875	-2.58627E-003	-3.12348E-003	5.64832E-004	...........
	15	4.13333	-2.76709E-003	-3.27770E-003	5.67166E-004	...........
	16	4.39167	-2.93958E-003	-3.43156E-003	5.68532E-004	...........
	17	4.65	-3.10452E-003	-3.57573E-003	5.68432E-004	...........
	18	4.90833	-3.26268E-003	-3.71652E-003	5.70199E-004	...........
EOC	QUANT	-0.0032627	Open Circuit (V)
PSTATMODEL	IQUANT	4	Pstat Model
PSTATSECTION	LABEL	REF600-11020	Pstat Section
PSTATSERIALNO	LABEL	11020	Pstat Serial Number
CTRLMODE	IQUANT	1	Control Mode
IESTAB	IQUANT	0	I/E Stability
CASPEED	IQUANT	1	Control Amp Speed
CONVENTION	IQUANT	1	Current Convention
ICHRANGE	IQUANT	2	Ich Range
ICHRANGEMODE	TOGGLE	F	Ich Auto Range
ICHOFFSETENABLE	TOGGLE	T	Ich Offset Enable
ICHOFFSET	QUANT	0	Ich Offset (V)
ICHFILTER	IQUANT	3	Ich Filter
VCHRANGE	IQUANT	2	Vch Range
VCHRANGEMODE	TOGGLE	F	Vch Auto Range
VCHOFFSETENABLE	TOGGLE	T	Vch Offset Enable
VCHOFFSET	QUANT	0	Vch Offset (V)
VCHFILTER	IQUANT	3	Vch Filter
ACHRANGE	IQUANT	2	Ach Range
ACHOFFSETENABLE	TOGGLE	F	Ach Offset Enable
ACHOFFSET	QUANT	0	Ach Offset (V)
ACHFILTER	IQUANT	3	Ach Filter
IERANGELOWERLIMIT	IQUANT	1	I/E Range Lower Limit
IERANGEMODE	TOGGLE	F	I/E AutoRange
IERANGE	IQUANT	2	I/E Range
POSFEEDENABLE	TOGGLE	F	Positive Feedback IR Comp
POSFEEDRESISTANCE	QUANT	0	Positive Feedback Resistance (ohm)
ACHSELECT	IQUANT	0	Ach Select
CABLEID	IQUANT	14	Cable ID
DCCALDATE	LABEL	8/19/2019	DC Calibration Date
ACCALDATE	LABEL	8/19/2019	AC Calibration Date
THERMOSELECT	IQUANT	1	Thermo Select
FRAMEWORKVERSION	QUANT	6.33	Framework Version
INSTRUMENTVERSION	LABEL	3.50	Instrument Version
ZCURVE	TABLE
	Pt	Time	Freq	Zreal	Zimag	Zsig	Zmod	Zphz	Idc	Vdc	IERange
	#	s	Hz	ohm	ohm	V	ohm	°	A	V	#
	0	2	1000078	2425.829	-1649.449	1	2933.484	-34.21386	1.074545E-005	-0.0024209	8
	1	3	794390.6	2743.897	-1565.286	1	3158.97	-29.70307	-5.182016E-006	-0.0010525	8
	2	4	630984.4	3002.029	-1420.625	1	3321.198	-25.32453	3.426914E-006	-0.0021253	8
	3	6	501234.4	3247.42	-1268.826	1	3486.496	-21.3415	-1.211426E-006	-0.001352	8
	4	7	398109.4	3439.691	-1129.296	1	3620.329	-18.17569	1.047494E-006	-0.0018036	8
	5	9	316265.6	3589.939	-955.615	1	3714.951	-14.90605	4.225606E-008	-0.0014385	8
	6	10	251203.1	3691.573	-817.244	1	3780.952	-12.48287	2.75569E-006	-0.0021952	8
	7	12	199546.9	3781.926	-707.0041	1	3847.443	-10.58882	1.981271E-006	-0.0020704	8
	8	13	158578.1	3834.932	-616.1566	1	3884.116	-9.127673	3.794783E-006	-0.0023792	8
	9	14	125953.1	3903.082	-496.9688	1	3934.593	-7.256271	-9.169283E-007	0.000744	7
	10	16	100078.1	3927.251	-445.5114	1	3952.44	-6.472024	-5.242155E-009	-0.0017457	7
	11	17	79453.13	3958.044	-413.2063	1	3979.554	-5.959896	-3.951552E-008	-0.0016784	7
	12	18	63140.62	3988.187	-393.851	1	4007.587	-5.639923	-6.933682E-008	-0.0016006	7
	13	20	50203.12	4016.429	-385.4027	1	4034.878	-5.481124	6.971651E-008	-0.001829	7
	14	21	39890.62	4050.636	-389.031	1	4069.274	-5.485972	-1.460124E-008	-0.0016504	7
	15	22	31640.63	4081.06	-399.6776	1	4100.584	-5.593412	-1.87502E-008	-0.0017256	7
	16	24	25171.88	4115.565	-422.9731	1	4137.243	-5.867915	-3.419763E-008	-0.0016993	7
	17	25	20015.62	4152.324	-454.8349	1	4177.16	-6.251111	-5.083269E-008	-0.001603	7
	18	26	15890.62	4195.909	-503.0916	1	4225.961	-6.837154	2.177564E-008	-0.0017931	7
	19	28	12609.37	4238.88	-553.2611	1	4274.833	-7.436242	8.656882E-008	-0.0018826	7
	20	29	10078.13	4284.115	-618.3464	1	4328.51	-8.213048	-3.73465E-008	-0.0016789	7
	21	30	8015.625	4337.465	-699.2752	1	4393.472	-9.158279	1.320453E-007	-0.0019043	7
	22	32	6328.125	4395.465	-800.796	1	4467.817	-10.32529	1.329783E-007	-0.001906	7
	23	33	5015.625	4458.187	-923.4638	1	4552.825	-11.70268	-3.570567E-008	-0.0016675	7
	24	34	3984.375	4524.75	-1072.1	1	4650.028	-13.32991	-4.402929E-009	-0.0017655	7
	25	36	3170.956	4599.082	-1253.066	1	4766.731	-15.24087	7.002438E-008	-0.0018485	7
	26	37	2527.573	4678.188	-1470.544	1	4903.871	-17.45004	-1.418398E-008	-0.0017264	7
	27	38	1976.103	4774.291	-1763.13	1	5089.448	-20.26902	1.342941E-007	-0.001913	7
	28	40	1577.524	4874.131	-2092.386	1	5304.266	-23.23307	-6.840072E-008	-0.0016107	7
	29	41	1265.625	4993.552	-2463.256	1	5568.051	-26.25654	-3.717462E-008	-0.0016883	7
	30	42	998.264	5126.841	-2995.995	1	5938.054	-30.30092	-6.549236E-008	-0.0015952	7
	31	44	796.875	5278.212	-3591.842	1	6384.423	-34.23543	-5.56782E-009	-0.0017618	7
	32	45	627.7902	5465.66	-4366.344	1	6995.599	-38.62025	-6.673611E-008	-0.0016051	7
	33	46	505.5147	5663.772	-5228.44	1	7708.106	-42.71126	-6.794699E-009	-0.0016943	7
	34	48	397.9953	5918.772	-6382.74	1	8704.667	-47.15996	6.435796E-009	-0.0016942	7
	35	49	315.5048	6209.842	-7769.211	1	9945.99	-51.36505	7.12823E-009	-0.0016946	7
	36	50	252.4038	6541.685	-9402.686	1	11454.44	-55.1727	1.159603E-009	-0.0017567	6
	37	52	198.6229	6962.335	-11560.75	1	13495.37	-58.94199	1.444835E-009	-0.001753	6
	38	53	158.3615	7442.454	-14084.37	1	15929.83	-62.14716	7.482039E-010	-0.0017552	6
	39	54	125.558	8036.572	-17263.69	1	19042.63	-65.03714	1.350292E-009	-0.0017537	6
	40	56	100.4464	8723.559	-21024.7	1	22762.66	-67.46548	7.9284E-010	-0.0017589	6
	41	57	79.00281	9720.03	-26068.41	1	27821.6	-69.55122	7.546029E-010	-0.0017582	6
	42	58	63.3446	10685.59	-31474.55	1	33238.97	-71.24767	1.2768E-009	-0.0017591	6
	43	60	49.86702	12638.68	-39246.41	1	41231.26	-72.14968	2.575339E-010	-0.0017581	6
	44	61	39.72458	14374.56	-47974.68	1	50081.91	-73.3203	1.073653E-009	-0.0017543	6
	45	62	31.6723	17121.91	-58774.52	1	61217.68	-73.75836	4.04593E-010	-0.0017564	6
	46	64	24.93351	20666.27	-72392.35	1	75284.45	-74.06723	1.178239E-009	-0.0017591	6
	47	65	19.86229	25167.47	-88069.91	1	91595.37	-74.05182	1.354682E-009	-0.0017524	6
	48	66	15.83615	31712.01	-107866.1	1	112431.1	-73.61697	2.361516E-009	-0.0017517	5
	49	68	12.40079	39131.4	-131127.6	1	136842	-73.38373	1.406633E-009	-0.0017477	5
	50	69	9.93114	50294.95	-157937.8	1	165752.6	-72.33604	1.07182E-010	-0.0017412	5
	51	71	7.944915	63646.39	-189149.6	1	199570.6	-71.40258	2.80172E-010	-0.0017503	5
	52	72	6.317385	81446.2	-227095.1	1	241258.5	-70.26995	2.854572E-010	-0.0017509	5
	53	74	5.008013	104900	-271799.5	1	291340	-68.89609	1.775749E-010	-0.0017595	5
	54	77	3.945707	135946.4	-323685.5	1	351075.1	-67.21782	5.189792E-010	-0.0017559	5
	55	80	3.158693	172636.8	-378262.1	1	415795.3	-65.4683	2.324875E-010	-0.0017417	5
	56	83	2.504006	219453.7	-441242	1	492802.6	-63.55634	3.015515E-010	-0.0017593	5
	57	86	1.998082	273703.1	-508465.2	1	577451.5	-61.70675	-3.326388E-012	-0.0017719	5
	58	89	1.584686	341059.7	-579799	1	672672.7	-59.53435	1.711608E-010	-0.0017172	5
	59	92	1.266892	414872	-656339.1	1	776466.2	-57.70301	7.873695E-011	-0.0017863	5
	60	96	0.999041	503395	-738604.1	1	893835.8	-55.72365	3.287507E-010	-0.0017061	5
