EXPLAIN
TAG	EISPOT
TITLE	LABEL	Potentiostatic EIS	Test &Identifier
DATE	LABEL	11/5/2019	Date
TIME	LABEL	9:42:00	Time
NOTES	NOTES	2	&Notes...
	
	
PSTAT	PSTAT	REF600-11020	Potentiostat
VDC	POTEN	0.00000E+000	T	DC &Voltage (V)
FREQINIT	QUANT	1.00000E+006	Initial Fre&q. (Hz)
FREQFINAL	QUANT	1.00000E+000	Final Fre&q. (Hz)
PTSPERDEC	QUANT	1.00000E+001	Points/&decade
VAC	QUANT	2.50000E+001	AC &Voltage (mV rms)
AREA	QUANT	1.00000E-002	&Area (cm^2)
CONDIT	TWOPARAM	T	5.00000E+000	0.00000E+000	Conditionin&g	Time(s)	E(V)
DELAY	TWOPARAM	T	5.00000E+000	0.00000E+000	Init. De&lay	Time(s)	Stab.(mV/s)
SPEED	SELECTOR	1	&Optimize for:
ZGUESS	QUANT	1.00000E+005	E&stimated Z (ohms)
OCVCURVE	TABLE	19
	Pt	T	Vf	Vm	Ach	Over
	#	s	V vs. Ref.	V	V	bits
	0	0.258333	4.39543E-003	4.39543E-003	5.71332E-004	...........
	1	0.516667	4.39205E-003	4.21828E-003	5.68699E-004	...........
	2	0.775	4.37444E-003	4.21634E-003	5.67332E-004	...........
	3	1.03333	4.31696E-003	3.26158E-003	5.69332E-004	...........
	4	1.29167	4.16373E-003	2.79777E-003	5.69732E-004	...........
	5	1.55	3.87796E-003	3.36566E-003	5.63966E-004	...........
	6	1.80833	3.54104E-003	3.17274E-003	5.62966E-004	...........
	7	2.06667	3.29637E-003	3.15050E-003	5.73666E-004	...........
	8	2.325	3.18395E-003	2.92812E-003	5.72266E-004	...........
	9	2.58333	3.13009E-003	2.78277E-003	5.75465E-004	...........
	10	2.84167	3.06914E-003	3.19084E-003	5.68966E-004	...........
	11	3.1	3.01528E-003	3.24589E-003	5.70432E-004	...........
	12	3.35833	3.03068E-003	3.83397E-003	5.69066E-004	...........
	13	3.61667	3.16015E-003	4.14079E-003	5.66266E-004	...........
	14	3.875	3.39053E-003	3.69160E-003	5.66666E-004	...........
	15	4.13333	3.62765E-003	3.49437E-003	5.66699E-004	...........
	16	4.39167	3.74940E-003	3.43243E-003	5.64566E-004	...........
	17	4.65	3.71955E-003	3.31290E-003	5.66299E-004	...........
	18	4.90833	3.59993E-003	3.23054E-003	5.67032E-004	...........
EOC	QUANT	0.0035999	Open Circuit (V)
PSTATMODEL	IQUANT	4	Pstat Model
PSTATSECTION	LABEL	REF600-11020	Pstat Section
PSTATSERIALNO	LABEL	11020	Pstat Serial Number
CTRLMODE	IQUANT	1	Control Mode
IESTAB	IQUANT	0	I/E Stability
CASPEED	IQUANT	1	Control Amp Speed
CONVENTION	IQUANT	1	Current Convention
ICHRANGE	IQUANT	2	Ich Range
ICHRANGEMODE	TOGGLE	F	Ich Auto Range
ICHOFFSETENABLE	TOGGLE	T	Ich Offset Enable
ICHOFFSET	QUANT	0	Ich Offset (V)
ICHFILTER	IQUANT	3	Ich Filter
VCHRANGE	IQUANT	2	Vch Range
VCHRANGEMODE	TOGGLE	F	Vch Auto Range
VCHOFFSETENABLE	TOGGLE	T	Vch Offset Enable
VCHOFFSET	QUANT	0	Vch Offset (V)
VCHFILTER	IQUANT	3	Vch Filter
ACHRANGE	IQUANT	2	Ach Range
ACHOFFSETENABLE	TOGGLE	F	Ach Offset Enable
ACHOFFSET	QUANT	0	Ach Offset (V)
ACHFILTER	IQUANT	3	Ach Filter
IERANGELOWERLIMIT	IQUANT	1	I/E Range Lower Limit
IERANGEMODE	TOGGLE	F	I/E AutoRange
IERANGE	IQUANT	4	I/E Range
POSFEEDENABLE	TOGGLE	F	Positive Feedback IR Comp
POSFEEDRESISTANCE	QUANT	0	Positive Feedback Resistance (ohm)
ACHSELECT	IQUANT	0	Ach Select
CABLEID	IQUANT	14	Cable ID
DCCALDATE	LABEL	8/19/2019	DC Calibration Date
ACCALDATE	LABEL	8/19/2019	AC Calibration Date
THERMOSELECT	IQUANT	1	Thermo Select
FRAMEWORKVERSION	QUANT	6.33	Framework Version
INSTRUMENTVERSION	LABEL	3.50	Instrument Version
ZCURVE	TABLE
	Pt	Time	Freq	Zreal	Zimag	Zsig	Zmod	Zphz	Idc	Vdc	IERange
	#	s	Hz	ohm	ohm	V	ohm	°	A	V	#
	0	2	1000078	2320.998	-1777.615	1	2923.516	-37.44792	-6.214143E-006	0.0052514	8
	1	3	794390.6	2704.277	-1713.433	1	3201.4	-32.35839	-3.071379E-006	0.0061349	8
	2	4	630984.4	3020.93	-1601.843	1	3419.344	-27.93469	4.147107E-006	0.0044089	8
	3	6	501234.4	3311.885	-1452.06	1	3616.221	-23.67453	-3.668495E-006	0.0049964	8
	4	7	398109.4	3510.43	-1281.848	1	3737.145	-20.05987	-6.651227E-006	0.0060733	8
	5	9	316265.6	3699.518	-1135.264	1	3869.788	-17.05958	-4.69091E-006	0.0054048	8
	6	10	251203.1	3811.792	-993.12	1	3939.041	-14.60313	6.890794E-006	0.0042279	8
	7	12	199546.9	3934.562	-850.3503	1	4025.404	-12.19538	-1.132124E-006	0.0055088	8
	8	13	158578.1	4043.046	-731.071	1	4108.611	-10.24958	-6.878789E-007	0.0047202	8
	9	14	125953.1	4107.097	-593.361	1	4149.737	-8.220762	-2.695413E-006	0.0088902	7
	10	16	100078.1	4152.853	-534.4153	1	4187.097	-7.332882	-1.26112E-006	0.0068372	7
	11	17	79453.13	4195.549	-496.7834	1	4224.858	-6.752794	-1.405666E-006	0.0066436	7
	12	18	63140.62	4236.766	-472.593	1	4263.042	-6.364787	-1.407319E-006	0.0066375	7
	13	20	50203.12	4277.897	-460.2401	1	4302.584	-6.140582	-1.037864E-006	0.0069105	7
	14	21	39890.62	4317.255	-459.2599	1	4341.614	-6.07216	-1.386988E-006	0.0062001	7
	15	22	31640.63	4359.764	-466.7311	1	4384.676	-6.110483	-7.265373E-007	0.0068226	7
	16	24	25171.88	4401.341	-485.3668	1	4428.022	-6.292981	-7.266311E-007	0.0068183	7
	17	25	20015.62	4446.562	-513.8804	1	4476.157	-6.592316	1.151336E-006	0.0042095	7
	18	27	15890.62	4494.131	-558.1646	1	4528.66	-7.079798	1.135674E-006	0.0030552	7
	19	28	12609.37	4543.9	-609.0963	1	4584.542	-7.634818	-8.129928E-007	0.0047568	7
	20	29	10078.13	4592.282	-680.5346	1	4642.433	-8.429368	4.263995E-007	0.0056174	7
	21	31	8015.625	4650.866	-762.0352	1	4712.882	-9.305119	1.251115E-006	0.0033154	7
	22	32	6328.125	4713.519	-866.7039	1	4792.539	-10.41895	1.151975E-006	0.0042002	7
	23	33	5015.625	4777.685	-1002.941	1	4881.82	-11.8555	1.251209E-006	0.0033173	7
	24	35	3984.375	4845.691	-1161.247	1	4982.893	-13.47652	-7.272046E-007	0.006815	7
	25	36	3170.956	4919.253	-1357.462	1	5103.112	-15.42677	-1.182024E-006	0.0055344	7
	26	38	2527.573	5004.402	-1597.078	1	5253.065	-17.69969	-3.265781E-007	0.00397	7
	27	39	1976.103	5102.91	-1919.301	1	5451.918	-20.61223	-1.262173E-006	0.0068201	7
	28	40	1577.524	5208.312	-2280.11	1	5685.544	-23.64299	6.088406E-008	0.0061035	7
	29	42	1265.625	5330.575	-2716.813	1	5982.984	-27.00639	6.830563E-007	0.0052489	7
	30	43	998.264	5476.717	-3278.639	1	6383.096	-30.90687	6.136343E-008	0.0061045	7
	31	44	796.875	5639.51	-3940.505	1	6879.8	-34.94323	-3.334569E-007	0.003967	7
	32	46	627.7902	5838.683	-4796.304	1	7556.106	-39.40208	4.265209E-007	0.0056134	7
	33	48	505.5147	6045.167	-5754.063	1	8345.855	-43.58672	1.260361E-006	0.0037009	7
	34	49	397.9953	6324.358	-7036.975	1	9461.317	-48.05293	7.356222E-009	0.0050016	7
	35	50	315.5048	6647.16	-8580.28	1	10853.84	-52.23499	6.845268E-010	0.0049473	6
	36	52	252.4038	7011.907	-10408.04	1	12549.66	-56.0318	-2.565818E-010	0.0049449	6
	37	53	198.6229	7493.539	-12829.51	1	14857.64	-59.71139	4.835884E-010	0.0049411	6
	38	54	158.3615	8066.515	-15652.47	1	17608.76	-62.73565	1.693195E-009	0.0049378	6
	39	56	125.558	8807.493	-19211.15	1	21133.86	-65.37056	5.807429E-010	0.0049481	6
	40	57	100.4464	9708.67	-23371.64	1	25307.94	-67.44181	1.485328E-009	0.0049351	6
	41	59	79.00281	10924.63	-28932.69	1	30926.5	-69.31407	1.371347E-009	0.0049302	6
	42	60	63.3446	12207.19	-34966.77	1	37036.34	-70.75548	1.263052E-009	0.0049266	6
	43	61	49.86702	15058.16	-43341.59	1	45882.91	-70.84125	1.126002E-009	0.0049325	6
	44	63	39.72458	17570.94	-52677.62	1	55530.8	-71.55357	2.889823E-010	0.0049471	6
	45	64	31.6723	21272.93	-64194.6	1	67627.54	-71.66573	-3.497422E-010	0.0049376	6
	46	66	24.93351	26301.66	-78305.02	1	82604.2	-71.43345	2.559966E-010	0.0049391	6
	47	67	19.86229	32860.59	-94460.85	1	100013.4	-70.81848	4.013949E-010	0.0049385	6
	48	68	15.83615	41713.64	-112182.8	1	119687.1	-69.60304	1.21022E-009	0.0049483	5
	49	70	12.40079	52168.81	-138298.4	1	147810.8	-69.33256	-4.272905E-010	0.0049455	5
	50	71	9.93114	66677.12	-162356.3	1	175514.7	-67.67284	6.73491E-010	0.0049329	5
	51	73	7.944915	84790.91	-190366.9	1	208396.4	-65.99143	-1.375514E-010	0.0049433	5
	52	75	6.317385	106439.3	-222504	1	246652.3	-64.43495	6.248049E-010	0.0049435	5
	53	77	5.008013	134108.8	-258596.4	1	291302.8	-62.58862	3.937379E-010	0.0049642	5
	54	79	3.945707	167641.5	-299280.3	1	343034.1	-60.74469	1.332866E-012	0.0049556	5
	55	82	3.158693	203589.3	-339696.9	1	396033.6	-59.06464	2.942318E-010	0.0049742	5
	56	85	2.504006	246182.9	-385724.4	1	457590.8	-57.45255	4.176713E-011	0.0049353	5
	57	88	1.998082	290947.7	-434227.8	1	522689.5	-56.17654	-2.705697E-010	0.0049382	5
	58	91	1.584686	342296.2	-488225.3	1	596263.9	-54.96559	2.097379E-010	0.0049948	5
	59	95	1.266892	392638.6	-549553.3	1	675406.5	-54.45538	-1.169257E-010	0.0049396	5
	60	99	0.999041	452702.3	-624206.8	1	771085.9	-54.04872	3.725711E-010	0.0049737	5
