EXPLAIN
TAG	EISPOT
TITLE	LABEL	Potentiostatic EIS	Test &Identifier
DATE	LABEL	10/22/2019	Date
TIME	LABEL	9:25:38	Time
NOTES	NOTES	1	&Notes...
	
PSTAT	PSTAT	REF600-11020	Potentiostat
VDC	POTEN	0.00000E+000	T	DC &Voltage (V)
FREQINIT	QUANT	1.00000E+006	Initial Fre&q. (Hz)
FREQFINAL	QUANT	1.00000E+000	Final Fre&q. (Hz)
PTSPERDEC	QUANT	1.00000E+001	Points/&decade
VAC	QUANT	2.50000E+001	AC &Voltage (mV rms)
AREA	QUANT	1.00000E-002	&Area (cm^2)
CONDIT	TWOPARAM	T	5.00000E+000	0.00000E+000	Conditionin&g	Time(s)	E(V)
DELAY	TWOPARAM	T	5.00000E+000	0.00000E+000	Init. De&lay	Time(s)	Stab.(mV/s)
SPEED	SELECTOR	1	&Optimize for:
ZGUESS	QUANT	1.00000E+005	E&stimated Z (ohms)
OCVCURVE	TABLE	19
	Pt	T	Vf	Vm	Ach	Over
	#	s	V vs. Ref.	V	V	bits
	0	0.258333	4.45284E-003	4.45284E-003	5.51899E-004	...........
	1	0.516667	4.45012E-003	4.31034E-003	5.54866E-004	...........
	2	0.775	4.43458E-003	4.23669E-003	5.54199E-004	...........
	3	1.03333	4.39263E-003	4.06767E-003	5.54599E-004	...........
	4	1.29167	4.31737E-003	3.92811E-003	5.53499E-004	...........
	5	1.55	4.21187E-003	3.81964E-003	5.54399E-004	...........
	6	1.80833	4.09005E-003	3.84618E-003	5.50966E-004	...........
	7	2.06667	3.98297E-003	4.15908E-003	5.57299E-004	...........
	8	2.325	3.92810E-003	3.85850E-003	5.57333E-004	...........
	9	2.58333	3.92495E-003	3.79274E-003	5.53366E-004	...........
	10	2.84167	3.92414E-003	3.71214E-003	5.52899E-004	...........
	11	3.1	3.88788E-003	3.74929E-003	5.53166E-004	...........
	12	3.35833	3.82766E-003	3.69725E-003	5.54266E-004	...........
	13	3.61667	3.76868E-003	3.50561E-003	5.51199E-004	...........
	14	3.875	3.71005E-003	3.40491E-003	5.56866E-004	...........
	15	4.13333	3.63546E-003	3.38329E-003	5.65566E-004	...........
	16	4.39167	3.54626E-003	3.35279E-003	5.56533E-004	...........
	17	4.65	3.46305E-003	3.33583E-003	5.52366E-004	...........
	18	4.90833	3.40146E-003	3.31719E-003	5.53299E-004	...........
EOC	QUANT	0.0034015	Open Circuit (V)
PSTATMODEL	IQUANT	4	Pstat Model
PSTATSECTION	LABEL	REF600-11020	Pstat Section
PSTATSERIALNO	LABEL	11020	Pstat Serial Number
CTRLMODE	IQUANT	1	Control Mode
IESTAB	IQUANT	0	I/E Stability
CASPEED	IQUANT	1	Control Amp Speed
CONVENTION	IQUANT	1	Current Convention
ICHRANGE	IQUANT	2	Ich Range
ICHRANGEMODE	TOGGLE	F	Ich Auto Range
ICHOFFSETENABLE	TOGGLE	T	Ich Offset Enable
ICHOFFSET	QUANT	0	Ich Offset (V)
ICHFILTER	IQUANT	3	Ich Filter
VCHRANGE	IQUANT	2	Vch Range
VCHRANGEMODE	TOGGLE	F	Vch Auto Range
VCHOFFSETENABLE	TOGGLE	T	Vch Offset Enable
VCHOFFSET	QUANT	0	Vch Offset (V)
VCHFILTER	IQUANT	3	Vch Filter
ACHRANGE	IQUANT	2	Ach Range
ACHOFFSETENABLE	TOGGLE	F	Ach Offset Enable
ACHOFFSET	QUANT	0	Ach Offset (V)
ACHFILTER	IQUANT	3	Ach Filter
IERANGELOWERLIMIT	IQUANT	1	I/E Range Lower Limit
IERANGEMODE	TOGGLE	F	I/E AutoRange
IERANGE	IQUANT	4	I/E Range
POSFEEDENABLE	TOGGLE	F	Positive Feedback IR Comp
POSFEEDRESISTANCE	QUANT	0	Positive Feedback Resistance (ohm)
ACHSELECT	IQUANT	0	Ach Select
CABLEID	IQUANT	14	Cable ID
DCCALDATE	LABEL	8/19/2019	DC Calibration Date
ACCALDATE	LABEL	8/19/2019	AC Calibration Date
THERMOSELECT	IQUANT	1	Thermo Select
FRAMEWORKVERSION	QUANT	6.33	Framework Version
INSTRUMENTVERSION	LABEL	3.50	Instrument Version
ZCURVE	TABLE
	Pt	Time	Freq	Zreal	Zimag	Zsig	Zmod	Zphz	Idc	Vdc	IERange
	#	s	Hz	ohm	ohm	V	ohm	°	A	V	#
	0	2	1000078	2444.002	-1623.158	1	2933.904	-33.5897	-8.635434E-007	0.006089	8
	1	3	794390.6	2752.72	-1556.59	1	3162.347	-29.48701	1.695122E-007	0.0055262	8
	2	5	630984.4	3029.556	-1440.533	1	3354.6	-25.43077	-4.9506E-006	0.006386	8
	3	6	501234.4	3270.725	-1291.002	1	3516.295	-21.53985	3.240038E-007	0.0051414	8
	4	8	398109.4	3449.968	-1126.492	1	3629.224	-18.08302	-7.701375E-007	0.0054053	8
	5	9	316265.6	3592.511	-1000.811	1	3729.311	-15.56691	1.068454E-006	0.0048505	8
	6	10	251203.1	3720.03	-877.2312	1	3822.062	-13.26868	1.113114E-006	0.0048208	8
	7	12	199546.9	3786.23	-763.8845	1	3862.519	-11.4065	-3.127908E-006	0.0055384	8
	8	13	158578.1	3860.908	-672.0131	1	3918.956	-9.87374	-4.029449E-006	0.0060254	8
	9	15	125953.1	3957.518	-556.3604	1	3996.434	-8.002378	6.734421E-007	0.0031367	7
	10	16	100078.1	3992.172	-509.0229	1	4024.493	-7.266305	-4.040003E-008	0.0051178	7
	11	17	79453.13	4035.289	-483.0269	1	4064.095	-6.825869	1.305342E-007	0.0048227	7
	12	19	63140.62	4078.33	-467.0782	1	4104.989	-6.533439	-1.604985E-008	0.0049896	7
	13	20	50203.12	4121.429	-461.3577	1	4147.171	-6.387168	-3.430079E-008	0.0050482	7
	14	21	39890.62	4164.678	-465.9849	1	4190.667	-6.384258	8.834876E-008	0.0049586	7
	15	23	31640.63	4209.888	-480.7403	1	4237.248	-6.514565	-4.685819E-009	0.0050605	7
	16	24	25171.88	4257.05	-504.361	1	4286.823	-6.756715	7.953663E-008	0.004857	7
	17	26	20015.62	4306.294	-545.3258	1	4340.686	-7.217212	-1.212902E-008	0.0051571	7
	18	27	15890.62	4361.294	-582.6692	1	4400.044	-7.609658	-1.683745E-008	0.0049883	7
	19	28	12609.37	4418.627	-639.5472	1	4464.671	-8.235735	-7.920534E-008	0.0051551	7
	20	30	10078.13	4480.631	-704.3525	1	4535.655	-8.933752	-3.039869E-008	0.0050333	7
	21	31	8015.625	4525.232	-784.9736	1	4592.811	-9.84094	-9.415411E-010	0.0050295	7
	22	32	6328.125	4614.757	-892.6143	1	4700.292	-10.94731	-2.979235E-008	0.0050306	7
	23	34	5015.625	4689.312	-1017.209	1	4798.371	-12.23902	3.994528E-008	0.0049699	7
	24	35	3984.375	4766.122	-1173.757	1	4908.526	-13.83498	-7.648932E-008	0.0051505	7
	25	37	3170.956	4849.547	-1352.472	1	5034.609	-15.58306	-5.590527E-008	0.0051921	7
	26	38	2527.573	4940.108	-1577.324	1	5185.809	-17.70774	-7.855838E-008	0.0051518	7
	27	39	1976.103	5044.696	-1880.447	1	5383.775	-20.4433	-5.638035E-008	0.0051881	7
	28	41	1577.524	5115.563	-2208.318	1	5571.863	-23.34919	-1.599672E-008	0.0049846	7
	29	42	1265.625	5275.737	-2624.237	1	5892.369	-26.44649	1.348488E-007	0.0048183	7
	30	43	998.264	5424.454	-3160.352	1	6277.94	-30.22559	7.986878E-008	0.0048497	7
	31	45	796.875	5585.96	-3784.169	1	6747.065	-34.1154	-7.778642E-008	0.0051437	7
	32	46	627.7902	5784.344	-4591.571	1	7385.199	-38.4423	-5.628208E-008	0.0051906	7
	33	48	505.5147	5983.324	-5490.656	1	8120.804	-42.54135	9.099207E-008	0.0049518	7
	34	49	397.9953	6253.555	-6707.203	1	9170.252	-47.00463	4.576507E-009	0.0050344	7
	35	50	315.5048	6559.802	-8170.798	1	10478.21	-51.24129	1.390399E-009	0.0049778	6
	36	52	252.4038	6907.339	-9903.89	1	12074.7	-55.10667	6.906081E-010	0.0049718	6
	37	53	198.6229	7361.331	-12199.94	1	14248.78	-58.8936	9.518131E-010	0.0049824	6
	38	54	158.3615	7902.078	-14888.59	1	16855.65	-62.043	5.45054E-010	0.0049759	6
	39	56	125.558	8601.835	-18274.11	1	20197.39	-64.79309	8.151508E-010	0.0049747	6
	40	57	100.4464	9467.692	-22240.79	1	24172.09	-66.94101	8.138185E-010	0.0049744	6
	41	59	79.00281	10723.71	-27511.39	1	29527.52	-68.70457	2.855333E-010	0.0049751	6
	42	60	63.3446	12277.58	-33711.52	1	35877.64	-69.9886	4.370129E-010	0.0049773	6
	43	61	49.86702	14058.48	-41189.73	1	43522.8	-71.15469	1.122876E-009	0.0049693	6
	44	63	39.72458	16923.8	-50256.56	1	53029.59	-71.38914	5.722204E-010	0.0049759	6
	45	64	31.6723	20368.04	-60937.8	1	64251.63	-71.51816	1.245996E-009	0.0049711	6
	46	66	24.93351	25435.8	-74589.95	1	78807.62	-71.1702	8.724186E-010	0.004978	6
	47	67	19.86229	31643.37	-89969.05	1	95371.5	-70.62252	4.119065E-010	0.004981	6
	48	68	15.83615	38926.04	-107812.5	1	114624.5	-70.14772	-1.042986E-009	0.0049805	5
	49	70	12.40079	50653.37	-129751.6	1	139288.3	-68.67496	2.541423E-010	0.004979	5
	50	71	9.93114	64586.08	-153764.5	1	166778	-67.21602	-1.662531E-010	0.0049833	5
	51	73	7.944915	81259.44	-179746.7	1	197261.2	-65.67334	8.577776E-010	0.0049802	5
	52	74	6.317385	102169	-210264.4	1	233772.6	-64.08456	-2.15972E-012	0.0049941	5
	53	77	5.008013	127698.9	-243892.5	1	275300.8	-62.36403	-5.357032E-011	0.0049732	5
	54	79	3.945707	158278.2	-280843.3	1	322374	-60.59518	4.056173E-010	0.004981	5
	55	82	3.158693	190742.4	-319009.5	1	371685	-59.12391	-4.852091E-011	0.0049673	5
	56	85	2.504006	227782.1	-362336.4	1	427986.4	-57.84455	1.835316E-010	0.0049906	5
	57	88	1.998082	266354.9	-409461.6	1	488470.8	-56.95599	2.698191E-010	0.0049492	5
	58	91	1.584686	310149.6	-466276.4	1	560005.8	-56.36964	-6.291048E-011	0.0049376	5
	59	95	1.266892	353330.6	-526781.3	1	634303.6	-56.14886	2.843479E-010	0.0049418	5
	60	99	0.999041	406191	-607714.9	1	730964.1	-56.2416	-9.498567E-011	0.0050037	5
