EXPLAIN
TAG	EISPOT
TITLE	LABEL	Potentiostatic EIS	Test &Identifier
DATE	LABEL	10/8/2019	Date
TIME	LABEL	9:26:13	Time
NOTES	NOTES	2	&Notes...
	
	
PSTAT	PSTAT	REF600-11020	Potentiostat
VDC	POTEN	0.00000E+000	T	DC &Voltage (V)
FREQINIT	QUANT	1.00000E+006	Initial Fre&q. (Hz)
FREQFINAL	QUANT	1.00000E+000	Final Fre&q. (Hz)
PTSPERDEC	QUANT	1.00000E+001	Points/&decade
VAC	QUANT	2.50000E+001	AC &Voltage (mV rms)
AREA	QUANT	1.00000E-002	&Area (cm^2)
CONDIT	TWOPARAM	T	5.00000E+000	0.00000E+000	Conditionin&g	Time(s)	E(V)
DELAY	TWOPARAM	T	5.00000E+000	0.00000E+000	Init. De&lay	Time(s)	Stab.(mV/s)
SPEED	SELECTOR	1	&Optimize for:
ZGUESS	QUANT	1.00000E+004	E&stimated Z (ohms)
OCVCURVE	TABLE	19
	Pt	T	Vf	Vm	Ach	Over
	#	s	V vs. Ref.	V	V	bits
	0	0.258333	7.02423E-003	7.02423E-003	5.45233E-004	...........
	1	0.516667	7.02457E-003	7.04228E-003	5.45266E-004	...........
	2	0.775	7.02676E-003	7.06335E-003	5.43066E-004	...........
	3	1.03333	7.03346E-003	7.09627E-003	5.44466E-004	...........
	4	1.29167	7.04592E-003	7.07155E-003	5.43233E-004	...........
	5	1.55	7.06349E-003	7.22193E-003	5.41366E-004	...........
	6	1.80833	7.08852E-003	7.19580E-003	5.39966E-004	...........
	7	2.06667	7.12408E-003	7.25640E-003	5.43366E-004	...........
	8	2.325	7.16654E-003	7.30370E-003	5.41366E-004	...........
	9	2.58333	7.21056E-003	7.36384E-003	5.38633E-004	...........
	10	2.84167	7.25629E-003	7.41979E-003	5.42399E-004	...........
	11	3.1	7.30559E-003	7.46426E-003	5.41933E-004	...........
	12	3.35833	7.35787E-003	7.52664E-003	5.38866E-004	...........
	13	3.61667	7.41154E-003	7.58474E-003	5.43599E-004	...........
	14	3.875	7.46616E-003	7.63687E-003	5.40899E-004	...........
	15	4.13333	7.52179E-003	7.69530E-003	5.46266E-004	...........
	16	4.39167	7.57782E-003	7.74490E-003	5.40133E-004	...........
	17	4.65	7.63565E-003	7.91696E-003	5.42499E-004	...........
	18	4.90833	7.70140E-003	7.93992E-003	5.34166E-004	...........
EOC	QUANT	0.0077014	Open Circuit (V)
PSTATMODEL	IQUANT	4	Pstat Model
PSTATSECTION	LABEL	REF600-11020	Pstat Section
PSTATSERIALNO	LABEL	11020	Pstat Serial Number
CTRLMODE	IQUANT	1	Control Mode
IESTAB	IQUANT	0	I/E Stability
CASPEED	IQUANT	1	Control Amp Speed
CONVENTION	IQUANT	1	Current Convention
ICHRANGE	IQUANT	2	Ich Range
ICHRANGEMODE	TOGGLE	F	Ich Auto Range
ICHOFFSETENABLE	TOGGLE	T	Ich Offset Enable
ICHOFFSET	QUANT	0	Ich Offset (V)
ICHFILTER	IQUANT	3	Ich Filter
VCHRANGE	IQUANT	2	Vch Range
VCHRANGEMODE	TOGGLE	F	Vch Auto Range
VCHOFFSETENABLE	TOGGLE	T	Vch Offset Enable
VCHOFFSET	QUANT	0	Vch Offset (V)
VCHFILTER	IQUANT	3	Vch Filter
ACHRANGE	IQUANT	2	Ach Range
ACHOFFSETENABLE	TOGGLE	F	Ach Offset Enable
ACHOFFSET	QUANT	0	Ach Offset (V)
ACHFILTER	IQUANT	3	Ach Filter
IERANGELOWERLIMIT	IQUANT	1	I/E Range Lower Limit
IERANGEMODE	TOGGLE	F	I/E AutoRange
IERANGE	IQUANT	6	I/E Range
POSFEEDENABLE	TOGGLE	F	Positive Feedback IR Comp
POSFEEDRESISTANCE	QUANT	0	Positive Feedback Resistance (ohm)
ACHSELECT	IQUANT	0	Ach Select
CABLEID	IQUANT	14	Cable ID
DCCALDATE	LABEL	8/19/2019	DC Calibration Date
ACCALDATE	LABEL	8/19/2019	AC Calibration Date
THERMOSELECT	IQUANT	1	Thermo Select
FRAMEWORKVERSION	QUANT	6.33	Framework Version
INSTRUMENTVERSION	LABEL	3.50	Instrument Version
ZCURVE	TABLE
	Pt	Time	Freq	Zreal	Zimag	Zsig	Zmod	Zphz	Idc	Vdc	IERange
	#	s	Hz	ohm	ohm	V	ohm	°	A	V	#
	0	2	1000078	2554.122	-1677.389	1	3055.678	-33.29443	-3.227642E-006	0.0108917	8
	1	3	794390.6	2919.089	-1607.887	1	3332.624	-28.84677	2.90332E-006	0.0091457	8
	2	5	630984.4	3206.37	-1446.283	1	3517.463	-24.2785	-2.101635E-006	0.0098925	8
	3	6	501234.4	3432.768	-1301.221	1	3671.113	-20.75965	-7.82446E-007	0.0098488	8
	4	8	398109.4	3602.059	-1140.849	1	3778.408	-17.57411	1.033915E-006	0.0091376	8
	5	9	316265.6	3761.949	-973.14	1	3885.777	-14.50334	-9.564575E-007	0.0094569	8
	6	10	251203.1	3866.538	-849.7036	1	3958.802	-12.39421	1.431322E-006	0.0088797	8
	7	12	199546.9	3962.021	-711.7383	1	4025.442	-10.18401	9.707286E-008	0.0094246	8
	8	13	158578.1	4002.032	-634.8422	1	4052.072	-9.013722	1.571979E-006	0.0091672	8
	9	14	125953.1	4082.311	-511.4512	1	4114.225	-7.141078	-6.983756E-007	0.0112806	7
	10	16	100078.1	4102.41	-463.5474	1	4128.516	-6.446731	4.767042E-009	0.0092493	7
	11	17	79453.13	4136.322	-431.3044	1	4158.748	-5.952858	-4.414275E-008	0.0093333	7
	12	18	63140.62	4171.323	-413.6858	1	4191.786	-5.663718	-4.313948E-008	0.0093917	7
	13	20	50203.12	4205.011	-405.5829	1	4224.525	-5.509267	-4.409182E-009	0.0093136	7
	14	21	39890.62	4237.639	-407.6827	1	4257.204	-5.495237	-1.505753E-008	0.0092671	7
	15	23	31640.63	4272.569	-420.8524	1	4293.246	-5.625546	-4.11071E-009	0.0093139	7
	16	24	25171.88	4309.163	-443.7769	1	4331.954	-5.879847	4.304411E-008	0.0092547	7
	17	25	20015.62	4356.257	-480.4152	1	4382.667	-6.293242	-2.430412E-008	0.0093632	7
	18	27	15890.62	4391.256	-523.7829	1	4422.384	-6.802024	8.597969E-008	0.0091164	7
	19	28	12609.37	4436.34	-580.4611	1	4474.154	-7.454367	-4.203778E-008	0.0093282	7
	20	29	10078.13	4485.867	-651.2421	1	4532.893	-8.260286	-2.570741E-008	0.0093608	7
	21	31	8015.625	4536.315	-736.9944	1	4595.793	-9.227957	4.884285E-009	0.0092325	7
	22	32	6328.125	4598.626	-847.928	1	4676.146	-10.44727	7.387715E-009	0.0092227	7
	23	34	5015.625	4663.871	-982.211	1	4766.176	-11.8927	-2.37259E-008	0.009361	7
	24	35	3984.375	4743.486	-1130.96	1	4876.447	-13.41031	4.521944E-008	0.0092385	7
	25	36	3170.956	4809.344	-1338.126	1	4992.031	-15.54841	-4.154707E-008	0.0093127	7
	26	38	2527.573	4893.329	-1577.542	1	5141.333	-17.8686	-3.835678E-009	0.0093328	7
	27	39	1976.103	4994.644	-1891.747	1	5340.896	-20.74444	6.896799E-008	0.0091827	7
	28	40	1577.524	5099.783	-2247.096	1	5572.901	-23.77952	6.949149E-008	0.0091791	7
	29	42	1265.625	5224.504	-2671.079	1	5867.717	-27.07883	-3.240677E-008	0.0093	7
	30	43	998.264	5374.638	-3226.842	1	6268.911	-30.97989	-3.410613E-008	0.0092977	7
	31	45	796.875	5538.362	-3873.682	1	6758.614	-34.97	-2.090836E-008	0.0092569	7
	32	46	627.7902	5744.537	-4715.295	1	7431.938	-39.38021	-1.452188E-008	0.0092591	7
	33	47	505.5147	5953.688	-5630.366	1	8194.354	-43.40123	-8.656669E-008	0.0094419	7
	34	49	397.9953	6237.455	-6892.315	1	9295.69	-47.85532	4.705873E-009	0.0093132	7
	35	50	315.5048	6561.296	-8392.841	1	10653.19	-51.98267	2.354181E-010	0.0092494	6
	36	51	252.4038	6928.386	-10164.94	1	12301.56	-55.72179	2.921329E-010	0.0092486	6
	37	53	198.6229	7407.639	-12509.79	1	14538.5	-59.36822	8.30113E-010	0.0092453	6
	38	54	158.3615	7971.367	-15245.92	1	17204.09	-62.39706	6.598074E-010	0.0092422	6
	39	56	125.558	8690.935	-18694.27	1	20615.72	-65.06637	8.778228E-010	0.0092483	6
	40	57	100.4464	9576.96	-22771.17	1	24703.13	-67.18964	1.252494E-009	0.0092447	6
	41	58	79.00281	10774.53	-28112.81	1	30106.82	-69.03014	6.709936E-010	0.0092444	6
	42	60	63.3446	12212.37	-33941.15	1	36071.37	-70.21076	6.064073E-010	0.0092452	6
	43	61	49.86702	14648.42	-42108.08	1	44583.26	-70.81841	-1.393906E-010	0.0092469	6
	44	62	39.72458	17111.51	-51298.61	1	54077.27	-71.55302	1.169563E-009	0.0092476	6
	45	64	31.6723	20834.06	-62180.74	1	65578.22	-71.47624	3.550331E-010	0.0092449	6
	46	65	24.93351	25663.56	-76082.71	1	80294.45	-71.36016	8.170672E-010	0.0092439	6
	47	67	19.86229	31880.55	-91961.92	1	97331.2	-70.88004	-2.992004E-010	0.0092414	6
	48	68	15.83615	40259.64	-110123	1	117251.5	-69.9182	8.93023E-010	0.0092461	5
	49	69	12.40079	51324.28	-132568.5	1	142156.9	-68.83595	1.509683E-009	0.0092493	5
	50	71	9.93114	64816.66	-157510.3	1	170325.3	-67.63248	9.453625E-010	0.0092473	5
	51	72	7.944915	80752.98	-185870.5	1	202654.6	-66.51706	1.551162E-010	0.0092429	5
	52	74	6.317385	102288.1	-216798.8	1	239717.7	-64.74154	6.048887E-010	0.0092518	5
	53	76	5.008013	128546.4	-252552	1	283384.3	-63.02438	3.875373E-010	0.0092582	5
	54	79	3.945707	160385	-293208	1	334206.9	-61.3213	-2.007176E-010	0.0092438	5
	55	81	3.158693	195307.2	-334189.7	1	387075.8	-59.69712	2.274627E-010	0.009254	5
	56	84	2.504006	236740.5	-380180.7	1	447865.4	-58.08926	-1.263354E-010	0.0092633	5
	57	87	1.998082	280134.8	-428018.2	1	511541.9	-56.79554	2.174529E-010	0.0092105	5
	58	90	1.584686	328846.7	-484982.9	1	585959.5	-55.86044	-1.328861E-010	0.0092394	5
	59	94	1.266892	380599	-545564.1	1	665203.6	-55.09942	8.049453E-011	0.0092033	5
	60	98	0.999041	438519.9	-620354.3	1	759696.7	-54.74404	-4.825707E-011	0.0092893	5
