EXPLAIN
TAG	EISPOT
TITLE	LABEL	Potentiostatic EIS	Test &Identifier
DATE	LABEL	9/20/2019	Date
TIME	LABEL	10:03:35	Time
NOTES	NOTES	1	&Notes...
	
PSTAT	PSTAT	REF600-11020	Potentiostat
VDC	POTEN	0.00000E+000	T	DC &Voltage (V)
FREQINIT	QUANT	1.00000E+006	Initial Fre&q. (Hz)
FREQFINAL	QUANT	1.00000E+000	Final Fre&q. (Hz)
PTSPERDEC	QUANT	1.00000E+001	Points/&decade
VAC	QUANT	2.50000E+001	AC &Voltage (mV rms)
AREA	QUANT	1.00000E-002	&Area (cm^2)
CONDIT	TWOPARAM	T	5.00000E+000	0.00000E+000	Conditionin&g	Time(s)	E(V)
DELAY	TWOPARAM	T	5.00000E+000	0.00000E+000	Init. De&lay	Time(s)	Stab.(mV/s)
SPEED	SELECTOR	1	&Optimize for:
ZGUESS	QUANT	1.00000E+004	E&stimated Z (ohms)
OCVCURVE	TABLE	19
	Pt	T	Vf	Vm	Ach	Over
	#	s	V vs. Ref.	V	V	bits
	0	0.258333	7.05850E-002	7.05850E-002	5.40299E-004	...........
	1	0.516667	7.06585E-002	7.44365E-002	5.38266E-004	...........
	2	0.775	7.11051E-002	7.78138E-002	5.35833E-004	...........
	3	1.03333	7.23469E-002	8.08338E-002	5.38666E-004	...........
	4	1.29167	7.45127E-002	8.35311E-002	5.45199E-004	...........
	5	1.55	7.72920E-002	8.59701E-002	5.47266E-004	...........
	6	1.80833	8.02350E-002	8.82047E-002	5.38666E-004	...........
	7	2.06667	8.30383E-002	9.02595E-002	5.39299E-004	...........
	8	2.325	8.55909E-002	9.21640E-002	5.47766E-004	...........
	9	2.58333	8.78957E-002	9.39283E-002	5.45866E-004	...........
	10	2.84167	8.99927E-002	9.55692E-002	5.44099E-004	...........
	11	3.1	9.19198E-002	9.70997E-002	5.51333E-004	...........
	12	3.35833	9.37036E-002	9.85352E-002	5.58666E-004	...........
	13	3.61667	9.53627E-002	9.98854E-002	5.49499E-004	...........
	14	3.875	9.69114E-002	1.01160E-001	5.51133E-004	...........
	15	4.13333	9.83621E-002	1.02368E-001	5.48033E-004	...........
	16	4.39167	9.97257E-002	1.03508E-001	5.47233E-004	...........
	17	4.65	1.01011E-001	1.04585E-001	5.42666E-004	...........
	18	4.90833	1.02225E-001	1.05602E-001	5.46866E-004	...........
EOC	QUANT	0.1022253	Open Circuit (V)
PSTATMODEL	IQUANT	4	Pstat Model
PSTATSECTION	LABEL	REF600-11020	Pstat Section
PSTATSERIALNO	LABEL	11020	Pstat Serial Number
CTRLMODE	IQUANT	1	Control Mode
IESTAB	IQUANT	0	I/E Stability
CASPEED	IQUANT	1	Control Amp Speed
CONVENTION	IQUANT	1	Current Convention
ICHRANGE	IQUANT	2	Ich Range
ICHRANGEMODE	TOGGLE	F	Ich Auto Range
ICHOFFSETENABLE	TOGGLE	T	Ich Offset Enable
ICHOFFSET	QUANT	0	Ich Offset (V)
ICHFILTER	IQUANT	3	Ich Filter
VCHRANGE	IQUANT	2	Vch Range
VCHRANGEMODE	TOGGLE	F	Vch Auto Range
VCHOFFSETENABLE	TOGGLE	T	Vch Offset Enable
VCHOFFSET	QUANT	0	Vch Offset (V)
VCHFILTER	IQUANT	3	Vch Filter
ACHRANGE	IQUANT	2	Ach Range
ACHOFFSETENABLE	TOGGLE	F	Ach Offset Enable
ACHOFFSET	QUANT	0	Ach Offset (V)
ACHFILTER	IQUANT	3	Ach Filter
IERANGELOWERLIMIT	IQUANT	1	I/E Range Lower Limit
IERANGEMODE	TOGGLE	F	I/E AutoRange
IERANGE	IQUANT	7	I/E Range
POSFEEDENABLE	TOGGLE	F	Positive Feedback IR Comp
POSFEEDRESISTANCE	QUANT	0	Positive Feedback Resistance (ohm)
ACHSELECT	IQUANT	0	Ach Select
CABLEID	IQUANT	14	Cable ID
DCCALDATE	LABEL	8/19/2019	DC Calibration Date
ACCALDATE	LABEL	8/19/2019	AC Calibration Date
THERMOSELECT	IQUANT	1	Thermo Select
FRAMEWORKVERSION	QUANT	6.33	Framework Version
INSTRUMENTVERSION	LABEL	3.50	Instrument Version
ZCURVE	TABLE
	Pt	Time	Freq	Zreal	Zimag	Zsig	Zmod	Zphz	Idc	Vdc	IERange
	#	s	Hz	ohm	ohm	V	ohm	°	A	V	#
	0	2	1000078	2278.451	-1419.131	1	2684.264	-31.91668	4.161037E-006	0.1034906	8
	1	3	794390.6	2532.603	-1322.285	1	2857.011	-27.5693	-1.922501E-006	0.1041221	8
	2	4	630984.4	2766.51	-1208.961	1	3019.133	-23.60525	4.555118E-006	0.1032542	8
	3	6	501234.4	2959.53	-1065.481	1	3145.483	-19.79973	-4.152958E-006	0.1046885	8
	4	7	398109.4	3116.538	-925.1419	1	3250.953	-16.53348	-2.955721E-006	0.1046066	8
	5	8	316265.6	3197.068	-816.3643	1	3299.651	-14.32426	1.551573E-006	0.1033873	8
	6	10	251203.1	3305.104	-701.1383	1	3378.655	-11.97705	-5.511604E-007	0.1040591	8
	7	11	199546.9	3377.456	-624.356	1	3434.681	-10.47345	-1.208751E-007	0.103958	8
	8	12	158578.1	3426.261	-548.0616	1	3469.818	-9.087991	-2.613151E-006	0.1042291	8
	9	14	125953.1	3492.092	-451.7778	1	3521.195	-7.371507	3.939319E-007	0.1030536	7
	10	15	100078.1	3523.057	-410.6824	1	3546.913	-6.648954	1.07878E-007	0.1036287	7
	11	17	79453.13	3558.499	-389.5112	1	3579.753	-6.246693	-3.648701E-008	0.1037899	7
	12	18	63140.62	3592.427	-377.9092	1	3612.25	-6.005205	1.096829E-007	0.1036206	7
	13	19	50203.12	3628.068	-373.4353	1	3647.237	-5.876731	-6.085752E-008	0.1038368	7
	14	21	39890.62	3662.929	-377.4686	1	3682.327	-5.883621	-2.312115E-008	0.1038181	7
	15	22	31640.63	3701.224	-389.4678	1	3721.659	-6.006944	-5.96933E-008	0.1038252	7
	16	23	25171.88	3740.519	-408.4914	1	3762.758	-6.232411	-6.115443E-008	0.1038313	7
	17	25	20015.62	3783.886	-435.2084	1	3808.832	-6.561116	-7.026978E-008	0.103964	7
	18	26	15890.62	3833.465	-471.4043	1	3862.341	-7.010511	1.079717E-007	0.103608	7
	19	27	12609.37	3882.323	-512.297	1	3915.977	-7.51711	-2.106617E-008	0.1038203	7
	20	29	10078.13	3935.854	-561.802	1	3975.748	-8.123498	-3.818723E-008	0.1037744	7
	21	30	8015.625	3994.402	-622.7482	1	4042.655	-8.861377	-3.40992E-008	0.1039346	7
	22	31	6328.125	4060.396	-695.9945	1	4119.615	-9.72657	-3.388042E-008	0.1039409	7
	23	33	5015.625	4129.919	-780.8407	1	4203.087	-10.70649	5.792583E-008	0.1036343	7
	24	34	3984.375	4203.436	-884.5787	1	4295.504	-11.88402	-3.351472E-008	0.1039375	7
	25	35	3170.956	4282.09	-1004.293	1	4398.284	-13.19921	1.667805E-008	0.1037611	7
	26	37	2527.573	4363.621	-1148.48	1	4512.227	-14.74551	-2.226632E-008	0.1038044	7
	27	38	1976.103	4459.486	-1335.613	1	4655.199	-16.67293	-5.855407E-008	0.1038288	7
	28	40	1577.524	4555.493	-1551.684	1	4812.509	-18.80977	-5.202196E-008	0.1038189	7
	29	41	1265.625	4658.2	-1802.993	1	4994.959	-21.15932	-5.378E-008	0.1038109	7
	30	42	998.264	4779.489	-2137.245	1	5235.583	-24.09277	-9.034991E-008	0.1039225	7
	31	44	796.875	4907.643	-2523.01	1	5518.201	-27.20761	-8.33163E-009	0.1037266	7
	32	45	627.7902	5063.177	-3033.459	1	5902.341	-30.92674	-3.359565E-008	0.1039336	7
	33	46	505.5147	5228.692	-3598.363	1	6347.238	-34.53558	1.812604E-008	0.1036674	7
	34	48	397.9953	5453.009	-4373.695	1	6990.315	-38.73206	-1.733669E-008	0.1038205	7
	35	49	315.5048	5723.868	-5298.373	1	7799.707	-42.78929	-1.802111E-008	0.1038186	7
	36	50	252.4038	6056.581	-6382.645	1	8798.882	-46.50153	-1.771459E-008	0.1038125	7
	37	52	198.6229	6529.894	-7801.505	1	10173.64	-50.07052	-2.198008E-008	0.1037577	6
	38	53	158.3615	7124.742	-9423.139	1	11813.45	-52.90743	-2.145867E-008	0.1037565	6
	39	54	125.558	7936.13	-11407.92	1	13896.86	-55.17489	-2.257254E-008	0.1037617	6
	40	56	100.4464	8972.67	-13656.36	1	16340.29	-56.69379	-2.139478E-008	0.1037577	6
	41	57	79.00281	10430.83	-16451.61	1	19479.68	-57.62404	-2.199201E-008	0.1037532	6
	42	59	63.3446	12102.59	-19390.28	1	22857.29	-58.02934	-2.256589E-008	0.1037544	6
	43	60	49.86702	14741.05	-22875.92	1	27214.08	-57.20261	-2.193513E-008	0.1037565	6
	44	61	39.72458	17620.2	-26673.1	1	31967.57	-56.55132	-2.175562E-008	0.1037587	6
	45	63	31.6723	21180.91	-30585.66	1	37203.68	-55.29697	-2.313456E-008	0.103757	6
	46	64	24.93351	25565.23	-35025.48	1	43363.18	-53.87415	-2.247653E-008	0.1037592	6
	47	65	19.86229	30359.77	-39394.01	1	49735.34	-52.37965	-2.37631E-008	0.1037598	6
	48	67	15.83615	35967.84	-44001.07	1	56831.15	-50.73637	-1.96157E-008	0.1037561	6
	49	68	12.40079	42479.96	-49168.91	1	64977.91	-49.1743	-2.432203E-008	0.1037592	6
	50	70	9.93114	48732.49	-54025.47	1	72757.18	-47.94865	-2.353708E-008	0.1037601	6
	51	71	7.944915	55667.34	-59329.14	1	81356	-46.82383	-2.020372E-008	0.1037563	6
	52	73	6.317385	63299.82	-65304.71	1	90948.2	-45.89315	-2.089666E-008	0.1037603	6
	53	75	5.008013	72055.05	-72196.08	1	102001	-45.05602	-2.347868E-008	0.1037455	6
	54	77	3.945707	81682.64	-79829.63	1	114213.9	-44.34268	-2.15451E-008	0.1037731	5
	55	79	3.158693	91751.75	-87905.98	1	127066.3	-43.77371	-2.326743E-008	0.1037624	5
	56	83	2.504006	103372.3	-97168	1	141871.3	-43.22795	-2.097216E-008	0.1037708	5
	57	85	1.998082	115574.9	-106945.8	1	157464.1	-42.77924	-2.235083E-008	0.1038139	5
	58	89	1.584686	129553.9	-118563	1	175617.2	-42.4636	-2.124222E-008	0.1037898	5
	59	92	1.266892	144676.2	-130555.4	1	194874	-42.063	-2.235431E-008	0.1038059	5
	60	96	0.999041	162428.3	-144995.3	1	217730.5	-41.75441	-2.134495E-008	0.1037479	5
