EXPLAIN
TAG	EISPOT
TITLE	LABEL	Potentiostatic IDE	Test &Identifier
DATE	LABEL	9/6/2019	Date
TIME	LABEL	8:43:27	Time
NOTES	NOTES	1	&Notes...
	
PSTAT	PSTAT	REF600-11020	Potentiostat
VDC	POTEN	0.00000E+000	T	DC &Voltage (V)
FREQINIT	QUANT	1.00000E+006	Initial Fre&q. (Hz)
FREQFINAL	QUANT	1.00000E+000	Final Fre&q. (Hz)
PTSPERDEC	QUANT	1.00000E+001	Points/&decade
VAC	QUANT	2.50000E+001	AC &Voltage (mV rms)
AREA	QUANT	1.00000E-002	&Area (cm^2)
CONDIT	TWOPARAM	T	5.00000E+000	0.00000E+000	Conditionin&g	Time(s)	E(V)
DELAY	TWOPARAM	T	5.00000E+000	0.00000E+000	Init. De&lay	Time(s)	Stab.(mV/s)
SPEED	SELECTOR	1	&Optimize for:
ZGUESS	QUANT	1.00000E+007	E&stimated Z (ohms)
OCVCURVE	TABLE	19
	Pt	T	Vf	Vm	Ach	Over
	#	s	V vs. Ref.	V	V	bits
	0	0.258333	1.15796E-002	1.15796E-002	5.30166E-004	...........
	1	0.516667	1.15816E-002	1.16881E-002	5.31633E-004	...........
	2	0.775	1.15951E-002	1.18268E-002	5.35399E-004	...........
	3	1.03333	1.16347E-002	1.19307E-002	5.32400E-004	...........
	4	1.29167	1.17083E-002	1.20650E-002	5.38266E-004	...........
	5	1.55	1.18096E-002	1.21823E-002	5.36566E-004	...........
	6	1.80833	1.19274E-002	1.23648E-002	5.38966E-004	...........
	7	2.06667	1.20563E-002	1.25069E-002	5.40966E-004	...........
	8	2.325	1.21958E-002	1.26705E-002	5.40266E-004	...........
	9	2.58333	1.23438E-002	1.27935E-002	5.39333E-004	...........
	10	2.84167	1.24954E-002	1.29691E-002	5.40366E-004	...........
	11	3.1	1.26449E-002	1.30167E-002	5.33766E-004	...........
	12	3.35833	1.27862E-002	1.31510E-002	5.44833E-004	...........
	13	3.61667	1.29147E-002	1.32888E-002	5.39866E-004	...........
	14	3.875	1.30345E-002	1.34307E-002	5.35533E-004	...........
	15	4.13333	1.31556E-002	1.35751E-002	5.43733E-004	...........
	16	4.39167	1.32843E-002	1.37029E-002	5.38066E-004	...........
	17	4.65	1.34193E-002	1.38300E-002	5.39799E-004	...........
	18	4.90833	1.35555E-002	1.39571E-002	5.40599E-004	...........
EOC	QUANT	0.0135555	Open Circuit (V)
PSTATMODEL	IQUANT	4	Pstat Model
PSTATSECTION	LABEL	REF600-11020	Pstat Section
PSTATSERIALNO	LABEL	11020	Pstat Serial Number
CTRLMODE	IQUANT	1	Control Mode
IESTAB	IQUANT	0	I/E Stability
CASPEED	IQUANT	1	Control Amp Speed
CONVENTION	IQUANT	1	Current Convention
ICHRANGE	IQUANT	2	Ich Range
ICHRANGEMODE	TOGGLE	F	Ich Auto Range
ICHOFFSETENABLE	TOGGLE	T	Ich Offset Enable
ICHOFFSET	QUANT	0	Ich Offset (V)
ICHFILTER	IQUANT	3	Ich Filter
VCHRANGE	IQUANT	2	Vch Range
VCHRANGEMODE	TOGGLE	F	Vch Auto Range
VCHOFFSETENABLE	TOGGLE	T	Vch Offset Enable
VCHOFFSET	QUANT	0	Vch Offset (V)
VCHFILTER	IQUANT	3	Vch Filter
ACHRANGE	IQUANT	2	Ach Range
ACHOFFSETENABLE	TOGGLE	F	Ach Offset Enable
ACHOFFSET	QUANT	0	Ach Offset (V)
ACHFILTER	IQUANT	3	Ach Filter
IERANGELOWERLIMIT	IQUANT	1	I/E Range Lower Limit
IERANGEMODE	TOGGLE	F	I/E AutoRange
IERANGE	IQUANT	3	I/E Range
POSFEEDENABLE	TOGGLE	F	Positive Feedback IR Comp
POSFEEDRESISTANCE	QUANT	0	Positive Feedback Resistance (ohm)
ACHSELECT	IQUANT	0	Ach Select
CABLEID	IQUANT	14	Cable ID
DCCALDATE	LABEL	8/19/2019	DC Calibration Date
ACCALDATE	LABEL	8/19/2019	AC Calibration Date
THERMOSELECT	IQUANT	1	Thermo Select
FRAMEWORKVERSION	QUANT	6.33	Framework Version
INSTRUMENTVERSION	LABEL	3.50	Instrument Version
ZCURVE	TABLE
	Pt	Time	Freq	Zreal	Zimag	Zsig	Zmod	Zphz	Idc	Vdc	IERange
	#	s	Hz	ohm	ohm	V	ohm	°	A	V	#
	0	1	1000078	2650.768	-1827.495	1	3219.675	-34.5832	-2.347018E-006	0.01575	8
	1	3	794390.6	3016.175	-1725.265	1	3474.745	-29.76974	-2.682938E-006	0.0163022	8
	2	4	630984.4	3324.01	-1573.222	1	3677.509	-25.32775	-1.909182E-008	0.0155309	8
	3	5	501234.4	3577.455	-1409.54	1	3845.125	-21.50476	3.531337E-007	0.0151874	8
	4	7	398109.4	3773.712	-1210.895	1	3963.227	-17.79021	2.445069E-006	0.0147629	8
	5	8	316265.6	3919.337	-1063.81	1	4061.144	-15.1857	1.943164E-007	0.0151138	8
	6	9	251203.1	4024.453	-903.8608	1	4124.705	-12.65814	-2.704166E-006	0.0157786	8
	7	11	199546.9	4106.348	-775.0027	1	4178.842	-10.68788	-6.045078E-007	0.0153799	8
	8	12	158578.1	4170.069	-702.6011	1	4228.844	-9.56375	-1.068287E-006	0.0152905	8
	9	13	125953.1	4241.953	-586.6783	1	4282.331	-7.874273	4.378764E-007	0.0145541	7
	10	15	100078.1	4274.447	-533.1493	1	4307.569	-7.109751	-3.864824E-008	0.015192	7
	11	16	79453.13	4312.611	-504.6276	1	4342.035	-6.673949	2.827494E-008	0.0150485	7
	12	17	63140.62	4353.145	-489.1748	1	4380.543	-6.411586	4.811045E-008	0.0150316	7
	13	19	50203.12	4391.336	-488.1934	1	4418.389	-6.343635	-2.637074E-009	0.0151566	7
	14	20	39890.62	4430.953	-500.1854	1	4459.095	-6.440534	-2.546054E-008	0.0151538	7
	15	21	31640.63	4471.473	-523.8466	1	4502.054	-6.681915	-8.766044E-009	0.0151663	7
	16	23	25171.88	4517.204	-560.0893	1	4551.794	-7.068046	-3.621353E-008	0.0151856	7
	17	24	20015.62	4562.411	-610.8542	1	4603.122	-7.625893	2.993925E-008	0.015043	7
	18	25	15890.62	4614.216	-679.5005	1	4663.98	-8.377303	2.563625E-009	0.0150969	7
	19	27	12609.37	4669.709	-766.1527	1	4732.143	-9.317427	-1.368859E-008	0.0151287	7
	20	28	10078.13	4730.687	-871.2823	1	4810.253	-10.4356	-3.632545E-009	0.0151523	7
	21	29	8015.625	4797.923	-999.139	1	4900.852	-11.76338	-1.203993E-008	0.0152155	7
	22	31	6328.125	4878.478	-1162.794	1	5015.141	-13.40641	-2.131463E-008	0.0151989	7
	23	32	5015.625	4967.911	-1358.202	1	5150.229	-15.29072	-1.092259E-008	0.0151245	7
	24	33	3984.375	5068.74	-1594.518	1	5313.625	-17.46247	5.186565E-008	0.0150309	7
	25	35	3170.956	5183.983	-1875.273	1	5512.743	-19.88727	-2.431816E-008	0.0151528	7
	26	36	2527.573	5316.995	-2211.746	1	5758.667	-22.58617	-3.621665E-008	0.0151772	7
	27	37	1976.103	5486.704	-2654.162	1	6094.957	-25.81511	4.204556E-008	0.0150391	7
	28	39	1577.524	5662.803	-3142.815	1	6476.467	-29.02996	-2.280876E-008	0.0151485	7
	29	40	1265.625	5868.503	-3714.082	1	6945.051	-32.32907	-8.10254E-009	0.0151565	7
	30	41	998.264	6119.66	-4457.02	1	7570.685	-36.06628	4.114406E-008	0.0150398	7
	31	43	796.875	6422.816	-5312.888	1	8335.427	-39.59721	4.584934E-008	0.0150372	7
	32	44	627.7902	6769.071	-6397.142	1	9313.632	-43.3819	4.573253E-008	0.01504	7
	33	45	505.5147	7146.622	-7586.335	1	10422.41	-46.70952	4.224053E-009	0.0149348	6
	34	47	397.9953	7653.174	-9176.463	1	11949	-50.17188	7.835187E-010	0.0150818	6
	35	48	315.5048	8232.996	-11048.3	1	13778.5	-53.30717	8.886835E-010	0.0150799	6
	36	49	252.4038	8897.63	-13217.85	1	15933.59	-56.05343	9.555192E-010	0.0150723	6
	37	51	198.6229	9756.44	-16036.81	1	18771.45	-58.68459	8.242459E-010	0.0150776	6
	38	52	158.3615	10734.42	-19261.49	1	22050.69	-60.86908	5.885744E-010	0.0150782	6
	39	53	125.558	11946.06	-23252.65	1	26141.81	-62.80814	7.197994E-010	0.015073	6
	40	55	100.4464	13339.06	-27868.6	1	30896.42	-64.4223	9.334525E-010	0.0150722	6
	41	56	79.00281	15136.72	-33877.43	1	37105.26	-65.9245	4.915474E-010	0.0150687	6
	42	57	63.3446	17256.01	-40451.69	1	43978.5	-66.89773	5.388979E-010	0.0150696	6
	43	59	49.86702	19757.42	-49356.87	1	53164.43	-68.18391	4.263055E-010	0.0150718	6
	44	60	39.72458	22811.23	-59344.74	1	63577.91	-68.97398	6.53678E-010	0.0150764	6
	45	61	31.6723	26548.94	-71512.47	1	76281.58	-69.6326	5.232048E-010	0.015072	6
	46	63	24.93351	31384.49	-87078.5	1	92561.61	-70.18002	8.546976E-010	0.0150714	6
	47	64	19.86229	37195.88	-105041	1	111432.3	-70.50053	5.779652E-011	0.0150757	5
	48	65	15.83615	44221	-126555.1	1	134058.5	-70.73951	3.816332E-010	0.0150811	5
	49	67	12.40079	54742.91	-154360.4	1	163780.1	-70.47327	4.752426E-010	0.0150776	5
	50	68	9.93114	66399.11	-184591.9	1	196170.8	-70.21595	5.184476E-010	0.0150835	5
	51	70	7.944915	81372.63	-220145.2	1	234702.8	-69.71409	3.81093E-010	0.0150843	5
	52	71	6.317385	100537.5	-263861.9	1	282366.6	-69.14201	9.503476E-011	0.0150889	5
	53	73	5.008013	125539.8	-315157.6	1	339241.2	-68.28064	1.408441E-010	0.0150833	5
	54	76	3.945707	157816.4	-376024.8	1	407799.8	-67.23235	1.372847E-010	0.0150826	5
	55	78	3.158693	194969.2	-441571.5	1	482699.1	-66.17686	3.450386E-011	0.0150671	5
	56	81	2.504006	242281.1	-519450.7	1	573174.6	-64.99481	2.632235E-010	0.015082	5
	57	84	1.998082	298540.9	-604944.4	1	674599.4	-63.7336	2.225768E-010	0.0151134	5
	58	87	1.584686	366313.9	-700916.1	1	790866.2	-62.40746	1.394218E-010	0.0150596	5
	59	91	1.266892	445551	-808087.3	1	922778.9	-61.1292	9.250289E-011	0.0151213	5
	60	95	0.999041	541283.9	-931752	1	1077567	-59.84636	-1.847605E-011	0.0150386	4
