EXPLAIN
TAG	EISPOT
TITLE	LABEL	Potentiostatic EIS	Test &Identifier
DATE	LABEL	11/5/2019	Date
TIME	LABEL	9:33:18	Time
NOTES	NOTES	2	&Notes...
	
	
PSTAT	PSTAT	REF600-11020	Potentiostat
VDC	POTEN	0.00000E+000	T	DC &Voltage (V)
FREQINIT	QUANT	1.00000E+006	Initial Fre&q. (Hz)
FREQFINAL	QUANT	1.00000E+000	Final Fre&q. (Hz)
PTSPERDEC	QUANT	1.00000E+001	Points/&decade
VAC	QUANT	2.50000E+001	AC &Voltage (mV rms)
AREA	QUANT	1.00000E-002	&Area (cm^2)
CONDIT	TWOPARAM	T	5.00000E+000	0.00000E+000	Conditionin&g	Time(s)	E(V)
DELAY	TWOPARAM	T	5.00000E+000	0.00000E+000	Init. De&lay	Time(s)	Stab.(mV/s)
SPEED	SELECTOR	1	&Optimize for:
ZGUESS	QUANT	1.00000E+005	E&stimated Z (ohms)
OCVCURVE	TABLE	19
	Pt	T	Vf	Vm	Ach	Over
	#	s	V vs. Ref.	V	V	bits
	0	0.258333	2.92980E-003	2.92980E-003	5.77766E-004	...........
	1	0.516667	2.92428E-003	2.64090E-003	5.82465E-004	...........
	2	0.775	2.89079E-003	2.38787E-003	5.80932E-004	...........
	3	1.03333	2.79777E-003	2.16657E-003	5.83665E-004	...........
	4	1.29167	2.63578E-003	1.95766E-003	5.80832E-004	...........
	5	1.55	2.42795E-003	1.77810E-003	5.84865E-004	...........
	6	1.80833	2.20762E-003	1.61121E-003	5.78832E-004	...........
	7	2.06667	1.99746E-003	1.45318E-003	5.80699E-004	...........
	8	2.325	1.80590E-003	1.31113E-003	5.83365E-004	...........
	9	2.58333	1.63267E-003	1.18135E-003	5.87399E-004	...........
	10	2.84167	1.47502E-003	1.05729E-003	5.85232E-004	...........
	11	3.1	1.33037E-003	9.37525E-004	5.85665E-004	...........
	12	3.35833	1.19638E-003	8.32262E-004	5.85565E-004	...........
	13	3.61667	1.07119E-003	7.24368E-004	5.87065E-004	...........
	14	3.875	9.53599E-004	6.27832E-004	5.85899E-004	...........
	15	4.13333	8.42710E-004	5.32299E-004	5.82865E-004	...........
	16	4.39167	7.37667E-004	4.39240E-004	5.84365E-004	...........
	17	4.65	6.37643E-004	3.53996E-004	5.82765E-004	...........
	18	4.90833	5.42070E-004	2.73470E-004	5.79132E-004	...........
EOC	QUANT	0.0005421	Open Circuit (V)
PSTATMODEL	IQUANT	4	Pstat Model
PSTATSECTION	LABEL	REF600-11020	Pstat Section
PSTATSERIALNO	LABEL	11020	Pstat Serial Number
CTRLMODE	IQUANT	1	Control Mode
IESTAB	IQUANT	0	I/E Stability
CASPEED	IQUANT	1	Control Amp Speed
CONVENTION	IQUANT	1	Current Convention
ICHRANGE	IQUANT	2	Ich Range
ICHRANGEMODE	TOGGLE	F	Ich Auto Range
ICHOFFSETENABLE	TOGGLE	T	Ich Offset Enable
ICHOFFSET	QUANT	0	Ich Offset (V)
ICHFILTER	IQUANT	3	Ich Filter
VCHRANGE	IQUANT	2	Vch Range
VCHRANGEMODE	TOGGLE	F	Vch Auto Range
VCHOFFSETENABLE	TOGGLE	T	Vch Offset Enable
VCHOFFSET	QUANT	0	Vch Offset (V)
VCHFILTER	IQUANT	3	Vch Filter
ACHRANGE	IQUANT	2	Ach Range
ACHOFFSETENABLE	TOGGLE	F	Ach Offset Enable
ACHOFFSET	QUANT	0	Ach Offset (V)
ACHFILTER	IQUANT	3	Ach Filter
IERANGELOWERLIMIT	IQUANT	1	I/E Range Lower Limit
IERANGEMODE	TOGGLE	F	I/E AutoRange
IERANGE	IQUANT	4	I/E Range
POSFEEDENABLE	TOGGLE	F	Positive Feedback IR Comp
POSFEEDRESISTANCE	QUANT	0	Positive Feedback Resistance (ohm)
ACHSELECT	IQUANT	0	Ach Select
CABLEID	IQUANT	14	Cable ID
DCCALDATE	LABEL	8/19/2019	DC Calibration Date
ACCALDATE	LABEL	8/19/2019	AC Calibration Date
THERMOSELECT	IQUANT	1	Thermo Select
FRAMEWORKVERSION	QUANT	6.33	Framework Version
INSTRUMENTVERSION	LABEL	3.50	Instrument Version
ZCURVE	TABLE
	Pt	Time	Freq	Zreal	Zimag	Zsig	Zmod	Zphz	Idc	Vdc	IERange
	#	s	Hz	ohm	ohm	V	ohm	°	A	V	#
	0	1	1000078	2276.513	-2065.874	1	3074.142	-42.22288	-3.898536E-006	0.0033038	8
	1	3	794390.6	2719.774	-2103.219	1	3438.124	-37.71501	5.083725E-006	0.0015689	8
	2	4	630984.4	3140.482	-2094.304	1	3774.75	-33.69827	6.870239E-006	0.0012895	8
	3	6	501234.4	3535.729	-1985.919	1	4055.275	-29.32169	-4.519851E-006	0.0028411	8
	4	7	398109.4	3885.946	-1830.842	1	4295.644	-25.22721	-3.356785E-007	0.0017488	8
	5	9	316265.6	4187	-1664.494	1	4505.719	-21.67973	-2.6863E-008	0.0017063	8
	6	10	251203.1	4429.885	-1489.284	1	4673.526	-18.58214	-5.013912E-007	0.0025747	8
	7	12	199546.9	4622.486	-1302.509	1	4802.49	-15.7366	6.582262E-006	0.0008461	8
	8	13	158578.1	4749.748	-1187.797	1	4896.016	-14.04033	2.71191E-006	0.001413	8
	9	15	125953.1	4959.612	-948.1881	1	5049.437	-10.82331	3.421926E-006	-0.000152	7
	10	16	100078.1	5014.456	-837.0142	1	5083.833	-9.476459	1.584083E-007	0.0003502	7
	11	17	79453.13	5100.44	-764.9079	1	5157.477	-8.529029	7.110805E-007	0.0022858	7
	12	19	63140.62	5167.426	-704.0967	1	5215.175	-7.759154	1.186028E-006	-1.756541E-005	7
	13	20	50203.12	5229.472	-666.5632	1	5271.782	-7.263912	1.31821E-006	0.0006612	7
	14	22	39890.62	5281.062	-639.1515	1	5319.598	-6.900779	9.523337E-007	-0.0001359	7
	15	23	31640.63	5326.118	-629.1336	1	5363.147	-6.736696	-1.447464E-006	0.0032594	7
	16	24	25171.88	5379.886	-642.374	1	5418.101	-6.809045	1.596037E-007	0.0003344	7
	17	26	20015.62	5446.579	-669.2364	1	5487.54	-7.004981	9.809407E-007	0.00177	7
	18	27	15890.62	5489.433	-707.4079	1	5534.826	-7.343078	-1.318965E-006	0.0039263	7
	19	28	12609.37	5547.958	-764.0257	1	5600.318	-7.841052	-1.46702E-006	0.0037197	7
	20	30	10078.13	5617.942	-843.1771	1	5680.864	-8.535611	9.800702E-007	0.0017727	7
	21	31	8015.625	5689.237	-946.3004	1	5767.4	-9.443647	1.188383E-006	-3.333091E-005	7
	22	32	6328.125	5748.721	-1075.114	1	5848.39	-10.59297	-1.316321E-006	0.0039106	7
	23	34	5015.625	5823.895	-1233.756	1	5953.142	-11.96092	-1.235239E-006	0.0025748	7
	24	35	3984.375	5915.365	-1438.268	1	6087.706	-13.66578	6.138101E-008	0.0031698	7
	25	37	3170.956	5997.943	-1675.91	1	6227.68	-15.61112	-8.512129E-007	0.0017653	7
	26	38	2527.573	6105.148	-1977.479	1	6417.418	-17.94732	6.034143E-007	-2.362792E-005	7
	27	40	1976.103	6234.75	-2378.441	1	6673.012	-20.88092	9.82766E-007	0.0017641	7
	28	41	1577.524	6352.426	-2841.333	1	6958.914	-24.09816	7.170499E-007	0.0022736	7
	29	43	1265.625	6501.077	-3370.587	1	7322.9	-27.4052	1.563155E-007	0.0003258	7
	30	44	998.264	6696.344	-4078.615	1	7840.671	-31.3448	4.482973E-007	0.0026628	7
	31	45	796.875	6908.999	-4904.183	1	8472.619	-35.3681	1.204913E-006	0.0011702	7
	32	47	627.7902	7178.893	-5978.207	1	9342.134	-39.78576	1.190825E-006	-2.683087E-005	7
	33	49	505.5147	7457.767	-7155.568	1	10335.4	-43.81531	7.19474E-007	0.002278	7
	34	50	397.9953	7851.059	-8737.229	1	11746.42	-48.05792	3.758568E-009	0.0020193	7
	35	51	315.5048	8307.752	-10632.77	1	13493.5	-51.99826	2.653131E-010	0.0019579	6
	36	53	252.4038	8838.595	-12865.42	1	15608.97	-55.51078	3.347386E-010	0.0019557	6
	37	54	198.6229	9555.57	-15807.91	1	18471.57	-58.84787	6.812642E-010	0.0019544	6
	38	55	158.3615	10409.21	-19220.36	1	21858.04	-61.56125	1.372155E-009	0.0019558	6
	39	57	125.558	11551.17	-23502.63	1	26187.85	-63.82662	5.263731E-010	0.0019474	6
	40	58	100.4464	12979.23	-28538.62	1	31351.44	-65.54419	1.17813E-009	0.0019586	6
	41	60	79.00281	15153.47	-35031.7	1	38168.67	-66.6084	-4.932137E-010	0.0019571	6
	42	61	63.3446	18153.31	-42088.64	1	45836.63	-66.66891	1.405568E-009	0.0019472	6
	43	62	49.86702	21040.47	-51959.04	1	56057.5	-67.95483	2.742503E-011	0.0019373	6
	44	64	39.72458	25829.2	-62010.83	1	67175.07	-67.38694	1.973697E-010	0.0019551	6
	45	65	31.6723	31936.48	-74084.48	1	80674.95	-66.68	5.797174E-010	0.0019437	6
	46	67	24.93351	39937.8	-88651.38	1	97232.2	-65.74825	6.948648E-010	0.0019411	6
	47	68	19.86229	50121.27	-104129.9	1	115564.6	-64.29691	8.221994E-010	0.0019573	5
	48	70	15.83615	62183.1	-120254	1	135380.1	-62.65661	1.292411E-009	0.0019483	5
	49	71	12.40079	79279.09	-140739.2	1	161532.4	-60.60723	1.640729E-009	0.0019392	5
	50	72	9.93114	95231.4	-161884.4	1	187818	-59.53307	-1.611997E-010	0.0019601	5
	51	74	7.944915	113463	-183509.4	1	215753.4	-58.27169	1.133662E-009	0.0019487	5
	52	76	6.317385	137239	-207788.4	1	249019.2	-56.55624	3.47831E-010	0.0019668	5
	53	78	5.008013	162039.7	-235130.5	1	285557.7	-55.42741	1.308209E-010	0.0019544	5
	54	80	3.945707	189217	-265634	1	326135.7	-54.53689	4.440363E-010	0.0019585	5
	55	83	3.158693	216890.8	-299151.3	1	369503.8	-54.05712	1.889437E-012	0.0019427	5
	56	86	2.504006	247776.4	-339769.1	1	420518.9	-53.89862	5.715958E-010	0.0019524	5
	57	89	1.998082	280793.4	-385799.8	1	477165	-53.95207	3.308199E-010	0.0019846	5
	58	92	1.584686	317406.3	-441055.9	1	543394	-54.25929	2.426217E-010	0.0019201	5
	59	96	1.266892	358337.9	-506508.1	1	620448.6	-54.72184	2.582236E-010	0.0019754	5
	60	100	0.999041	407949.8	-588442.6	1	716022.1	-55.26758	-7.072419E-011	0.0019197	5
