EXPLAIN
TAG	EISPOT
TITLE	LABEL	Potentiostatic EIS	Test &Identifier
DATE	LABEL	11/9/2019	Date
TIME	LABEL	11:07:06	Time
NOTES	NOTES	2	&Notes...
	
	
PSTAT	PSTAT	REF600-11020	Potentiostat
VDC	POTEN	0.00000E+000	T	DC &Voltage (V)
FREQINIT	QUANT	1.00000E+006	Initial Fre&q. (Hz)
FREQFINAL	QUANT	1.00000E+000	Final Fre&q. (Hz)
PTSPERDEC	QUANT	1.00000E+001	Points/&decade
VAC	QUANT	2.50000E+001	AC &Voltage (mV rms)
AREA	QUANT	1.00000E-002	&Area (cm^2)
CONDIT	TWOPARAM	T	5.00000E+000	0.00000E+000	Conditionin&g	Time(s)	E(V)
DELAY	TWOPARAM	T	5.00000E+000	0.00000E+000	Init. De&lay	Time(s)	Stab.(mV/s)
SPEED	SELECTOR	0	&Optimize for:
ZGUESS	QUANT	1.00000E+005	E&stimated Z (ohms)
OCVCURVE	TABLE	19
	Pt	T	Vf	Vm	Ach	Over
	#	s	V vs. Ref.	V	V	bits
	0	0.258333	1.25703E-002	1.25703E-002	5.04767E-004	...........
	1	0.516667	1.25776E-002	1.29519E-002	5.09000E-004	...........
	2	0.775	1.26218E-002	1.32858E-002	5.05233E-004	...........
	3	1.03333	1.27460E-002	1.36496E-002	5.05133E-004	...........
	4	1.29167	1.29677E-002	1.39637E-002	5.04067E-004	...........
	5	1.55	1.32611E-002	1.41682E-002	5.03133E-004	...........
	6	1.80833	1.35777E-002	1.44208E-002	5.05633E-004	...........
	7	2.06667	1.38801E-002	1.47506E-002	5.06267E-004	...........
	8	2.325	1.41680E-002	1.53363E-002	5.06533E-004	...........
	9	2.58333	1.44738E-002	1.55829E-002	5.05733E-004	...........
	10	2.84167	1.48183E-002	1.58577E-002	5.08467E-004	...........
	11	3.1	1.51759E-002	1.59560E-002	5.06333E-004	...........
	12	3.35833	1.54995E-002	1.62421E-002	5.07900E-004	...........
	13	3.61667	1.57687E-002	1.64317E-002	5.01100E-004	...........
	14	3.875	1.59994E-002	1.67153E-002	5.03167E-004	...........
	15	4.13333	1.62190E-002	1.69093E-002	5.01933E-004	...........
	16	4.39167	1.64437E-002	1.72011E-002	5.04033E-004	...........
	17	4.65	1.66767E-002	1.74025E-002	4.98700E-004	...........
	18	4.90833	1.69147E-002	1.76157E-002	5.05900E-004	...........
EOC	QUANT	0.0169147	Open Circuit (V)
PSTATMODEL	IQUANT	4	Pstat Model
PSTATSECTION	LABEL	REF600-11020	Pstat Section
PSTATSERIALNO	LABEL	11020	Pstat Serial Number
CTRLMODE	IQUANT	1	Control Mode
IESTAB	IQUANT	0	I/E Stability
CASPEED	IQUANT	1	Control Amp Speed
CONVENTION	IQUANT	1	Current Convention
ICHRANGE	IQUANT	2	Ich Range
ICHRANGEMODE	TOGGLE	F	Ich Auto Range
ICHOFFSETENABLE	TOGGLE	T	Ich Offset Enable
ICHOFFSET	QUANT	0	Ich Offset (V)
ICHFILTER	IQUANT	3	Ich Filter
VCHRANGE	IQUANT	2	Vch Range
VCHRANGEMODE	TOGGLE	F	Vch Auto Range
VCHOFFSETENABLE	TOGGLE	T	Vch Offset Enable
VCHOFFSET	QUANT	0	Vch Offset (V)
VCHFILTER	IQUANT	3	Vch Filter
ACHRANGE	IQUANT	2	Ach Range
ACHOFFSETENABLE	TOGGLE	F	Ach Offset Enable
ACHOFFSET	QUANT	0	Ach Offset (V)
ACHFILTER	IQUANT	3	Ach Filter
IERANGELOWERLIMIT	IQUANT	1	I/E Range Lower Limit
IERANGEMODE	TOGGLE	F	I/E AutoRange
IERANGE	IQUANT	5	I/E Range
POSFEEDENABLE	TOGGLE	F	Positive Feedback IR Comp
POSFEEDRESISTANCE	QUANT	0	Positive Feedback Resistance (ohm)
ACHSELECT	IQUANT	0	Ach Select
CABLEID	IQUANT	14	Cable ID
DCCALDATE	LABEL	8/19/2019	DC Calibration Date
ACCALDATE	LABEL	8/19/2019	AC Calibration Date
THERMOSELECT	IQUANT	1	Thermo Select
FRAMEWORKVERSION	QUANT	6.33	Framework Version
INSTRUMENTVERSION	LABEL	3.50	Instrument Version
ZCURVE	TABLE
	Pt	Time	Freq	Zreal	Zimag	Zsig	Zmod	Zphz	Idc	Vdc	IERange
	#	s	Hz	ohm	ohm	V	ohm	°	A	V	#
	0	2	1000078	2306.317	-1623.813	1	2820.615	-35.1483	-1.105893E-006	0.0200941	8
	1	2	794390.6	2635.252	-1607.371	1	3086.777	-31.38109	-3.933283E-006	0.0198357	8
	2	2	630984.4	2947.706	-1538.335	1	3324.973	-27.55895	9.632468E-006	0.0171246	8
	3	3	501234.4	3231.372	-1422.298	1	3530.538	-23.75683	-6.325605E-006	0.0194568	8
	4	3	398109.4	3455.008	-1303.864	1	3692.85	-20.6757	-2.891433E-006	0.0193147	8
	5	3	316265.6	3641.501	-1152.879	1	3819.641	-17.5675	-9.315125E-007	0.0191479	8
	6	4	251203.1	3810.605	-1025.958	1	3946.302	-15.06885	7.436202E-006	0.0171699	8
	7	4	199546.9	3917.014	-896.3452	1	4018.262	-12.88929	-5.014207E-007	0.0182499	8
	8	4	158578.1	3976.075	-886.5682	1	4073.718	-12.56994	-1.889529E-006	0.0183007	8
	9	4	125953.1	4105.996	-633.3168	1	4154.551	-8.768313	-3.512477E-006	0.0214318	7
	10	5	100078.1	4159.939	-555.9298	1	4196.921	-7.611846	-9.170101E-007	0.0183342	7
	11	5	79453.13	4223.306	-520.2021	1	4255.223	-7.02199	-1.331343E-006	0.0191831	7
	12	5	63140.62	4285.49	-479.4434	1	4312.226	-6.383477	1.237249E-006	0.0163928	7
	13	6	50203.12	4301.459	-449.8659	1	4324.92	-5.970544	-1.321392E-006	0.0191731	7
	14	6	39890.62	4354.948	-443.77	1	4377.5	-5.818367	1.378221E-006	0.0166738	7
	15	6	31640.63	4374.362	-452.137	1	4397.667	-5.901175	-1.319943E-006	0.0191694	7
	16	7	25171.88	4430.001	-457.1602	1	4453.528	-5.891863	6.250422E-007	0.0164089	7
	17	7	20015.62	4466.73	-492.6754	1	4493.819	-6.294219	1.282807E-006	0.0176212	7
	18	7	15890.62	4503.727	-532.2368	1	4535.066	-6.739783	9.853491E-007	0.0162769	7
	19	8	12609.37	4524.489	-578.6499	1	4561.342	-7.288157	-1.543546E-006	0.0198866	7
	20	8	10078.13	4569.616	-652.825	1	4616.012	-8.130382	-1.544268E-006	0.0198922	7
	21	8	8015.625	4629.563	-745.2758	1	4689.167	-9.145122	1.397268E-006	0.017087	7
	22	9	6328.125	4663.05	-860.5015	1	4741.782	-10.45552	-9.165211E-007	0.0183144	7
	23	9	5015.625	4729	-1003.102	1	4834.217	-11.97591	7.055883E-008	0.0197438	7
	24	9	3984.375	4782.296	-1187.39	1	4927.5	-13.94392	-1.137781E-006	0.0206445	7
	25	10	3170.956	4862.181	-1400.478	1	5059.855	-16.06825	1.378321E-006	0.0166622	7
	26	10	2527.573	4948.458	-1673.991	1	5223.934	-18.68993	4.834276E-007	0.0192009	7
	27	10	1976.103	5044.699	-2019.862	1	5434.043	-21.82082	1.40006E-006	0.0170778	7
	28	11	1577.524	5138.089	-2409.02	1	5674.798	-25.11977	1.284101E-006	0.0176102	7
	29	11	1265.625	5261.31	-2898.888	1	6007.074	-28.85398	4.910786E-007	0.0191877	7
	30	11	998.264	5407.463	-3496.171	1	6439.244	-32.88451	-1.541114E-006	0.0198833	7
	31	12	796.875	5578.493	-4252.302	1	7014.39	-37.31709	-3.87091E-007	0.0174323	7
	32	12	627.7902	5800.587	-5183.342	1	7779.064	-41.78363	-1.551004E-006	0.0203572	7
	33	12	505.5147	6023.063	-6221.041	1	8659.021	-45.92635	-1.139436E-006	0.0206448	7
	34	13	397.9953	6295.632	-7648.187	1	9906.05	-50.54037	3.030809E-009	0.0185397	7
	35	13	315.5048	6631.931	-9340.997	1	11455.86	-54.62597	-1.057241E-009	0.0184843	6
	36	14	252.4038	7015.882	-11349.1	1	13342.59	-58.27613	-1.619814E-009	0.0184843	6
	37	14	198.6229	7517.735	-13990.52	1	15882.41	-61.74886	2.505489E-010	0.0184795	6
	38	14	158.3615	8092.607	-17105.4	1	18923.13	-64.68105	-1.15896E-009	0.0184716	6
	39	14	125.558	8848.729	-21008.61	1	22796.09	-67.1594	-2.771861E-010	0.0184673	6
	40	15	100.4464	9809.9	-25692.13	1	27501.26	-69.10189	1.34222E-009	0.0184791	6
	41	15	79.00281	10954.97	-31852.58	1	33683.79	-71.02052	1.735715E-009	0.018467	6
	42	15	63.3446	13056.27	-37840.81	1	40029.91	-70.96395	-6.650074E-010	0.0184774	6
	43	16	49.86702	15440.82	-47267.68	1	49725.78	-71.90946	-1.88219E-009	0.0184757	6
	44	16	39.72458	17750.86	-58177.5	1	60825.27	-73.03224	6.159774E-010	0.0184723	6
	45	17	31.6723	21186.98	-71286.48	1	74368.34	-73.44758	-9.946227E-010	0.0184785	6
	46	17	24.93351	26842.36	-87364.84	1	91395.45	-72.92072	-3.51331E-010	0.0184727	6
	47	17	19.86229	33553.36	-105395.6	1	110607.6	-72.34079	-4.998415E-010	0.0184679	5
	48	17	15.83615	40683.46	-127985	1	134295.6	-72.36575	-1.122171E-009	0.0184684	5
	49	18	12.40079	56046.89	-154318.7	1	164181.3	-70.03952	-1.630825E-009	0.0184757	5
	50	18	9.93114	69105.44	-185221	1	197692.7	-69.5396	4.622216E-010	0.0184889	5
	51	19	7.944915	87961.2	-217586.1	1	234693.2	-67.98853	1.068432E-009	0.0184682	5
	52	19	6.317385	115569.3	-256764.2	1	281574.3	-65.76755	1.776464E-010	0.0184649	5
	53	20	5.008013	147882	-299781.2	1	334272.1	-63.74289	-2.003202E-010	0.0184808	5
	54	21	3.945707	190555.7	-347756.1	1	396542.2	-61.27911	-6.180991E-010	0.0184878	5
	55	23	3.158693	233041.5	-395712.5	1	459234.9	-59.50549	-5.321316E-010	0.0184644	5
	56	24	2.504006	286778.4	-447637.3	1	531621.1	-57.35439	-2.630649E-010	0.0184711	5
	57	25	1.998082	342722.2	-500840.3	1	606876.8	-55.61638	-2.89648E-010	0.0184851	5
	58	27	1.584686	407661.3	-557977.3	1	691032.8	-53.84793	-4.563332E-010	0.0184366	5
	59	29	1.266892	473828.8	-620914.9	1	781056.4	-52.65224	-4.771522E-010	0.018433	5
	60	32	0.999041	546591.6	-694750.5	1	883991.3	-51.80627	-4.783373E-010	0.0184496	5
