EXPLAIN
TAG	EISPOT
TITLE	LABEL	Potentiostatic EIS	Test &Identifier
DATE	LABEL	10/28/2019	Date
TIME	LABEL	10:55:44	Time
NOTES	NOTES	1	&Notes...
	
PSTAT	PSTAT	REF600-11020	Potentiostat
VDC	POTEN	0.00000E+000	T	DC &Voltage (V)
FREQINIT	QUANT	1.00000E+006	Initial Fre&q. (Hz)
FREQFINAL	QUANT	1.00000E+000	Final Fre&q. (Hz)
PTSPERDEC	QUANT	1.00000E+001	Points/&decade
VAC	QUANT	2.50000E+001	AC &Voltage (mV rms)
AREA	QUANT	1.00000E-002	&Area (cm^2)
CONDIT	TWOPARAM	T	5.00000E+000	0.00000E+000	Conditionin&g	Time(s)	E(V)
DELAY	TWOPARAM	T	5.00000E+000	0.00000E+000	Init. De&lay	Time(s)	Stab.(mV/s)
SPEED	SELECTOR	1	&Optimize for:
ZGUESS	QUANT	1.00000E+005	E&stimated Z (ohms)
OCVCURVE	TABLE	19
	Pt	T	Vf	Vm	Ach	Over
	#	s	V vs. Ref.	V	V	bits
	0	0.258333	6.87472E-003	6.87472E-003	6.29698E-004	...........
	1	0.516667	6.87419E-003	6.84729E-003	6.27798E-004	...........
	2	0.775	6.87132E-003	6.83913E-003	6.32131E-004	...........
	3	1.03333	6.86450E-003	6.84103E-003	6.32531E-004	...........
	4	1.29167	6.85556E-003	6.85635E-003	6.35998E-004	...........
	5	1.55	6.84940E-003	6.87239E-003	6.31765E-004	...........
	6	1.80833	6.85021E-003	6.89744E-003	6.29065E-004	...........
	7	2.06667	6.85917E-003	6.92110E-003	6.31965E-004	...........
	8	2.325	6.87520E-003	6.95074E-003	6.30231E-004	...........
	9	2.58333	6.89649E-003	6.97971E-003	6.31398E-004	...........
	10	2.84167	6.92157E-003	7.01674E-003	6.30331E-004	...........
	11	3.1	6.94965E-003	7.04575E-003	6.32798E-004	...........
	12	3.35833	6.97970E-003	7.06168E-003	6.30065E-004	...........
	13	3.61667	7.00986E-003	7.10192E-003	6.33131E-004	...........
	14	3.875	7.03949E-003	7.15659E-003	6.28565E-004	...........
	15	4.13333	7.07103E-003	7.19026E-003	6.33131E-004	...........
	16	4.39167	7.10641E-003	7.20191E-003	6.33165E-004	...........
	17	4.65	7.14298E-003	7.23915E-003	6.36498E-004	...........
	18	4.90833	7.17698E-003	7.27901E-003	6.29398E-004	...........
EOC	QUANT	0.007177	Open Circuit (V)
PSTATMODEL	IQUANT	4	Pstat Model
PSTATSECTION	LABEL	REF600-11020	Pstat Section
PSTATSERIALNO	LABEL	11020	Pstat Serial Number
CTRLMODE	IQUANT	1	Control Mode
IESTAB	IQUANT	0	I/E Stability
CASPEED	IQUANT	1	Control Amp Speed
CONVENTION	IQUANT	1	Current Convention
ICHRANGE	IQUANT	2	Ich Range
ICHRANGEMODE	TOGGLE	F	Ich Auto Range
ICHOFFSETENABLE	TOGGLE	T	Ich Offset Enable
ICHOFFSET	QUANT	0	Ich Offset (V)
ICHFILTER	IQUANT	3	Ich Filter
VCHRANGE	IQUANT	2	Vch Range
VCHRANGEMODE	TOGGLE	F	Vch Auto Range
VCHOFFSETENABLE	TOGGLE	T	Vch Offset Enable
VCHOFFSET	QUANT	0	Vch Offset (V)
VCHFILTER	IQUANT	3	Vch Filter
ACHRANGE	IQUANT	2	Ach Range
ACHOFFSETENABLE	TOGGLE	F	Ach Offset Enable
ACHOFFSET	QUANT	0	Ach Offset (V)
ACHFILTER	IQUANT	3	Ach Filter
IERANGELOWERLIMIT	IQUANT	1	I/E Range Lower Limit
IERANGEMODE	TOGGLE	F	I/E AutoRange
IERANGE	IQUANT	5	I/E Range
POSFEEDENABLE	TOGGLE	F	Positive Feedback IR Comp
POSFEEDRESISTANCE	QUANT	0	Positive Feedback Resistance (ohm)
ACHSELECT	IQUANT	0	Ach Select
CABLEID	IQUANT	14	Cable ID
DCCALDATE	LABEL	8/19/2019	DC Calibration Date
ACCALDATE	LABEL	8/19/2019	AC Calibration Date
THERMOSELECT	IQUANT	1	Thermo Select
FRAMEWORKVERSION	QUANT	6.33	Framework Version
INSTRUMENTVERSION	LABEL	3.50	Instrument Version
ZCURVE	TABLE
	Pt	Time	Freq	Zreal	Zimag	Zsig	Zmod	Zphz	Idc	Vdc	IERange
	#	s	Hz	ohm	ohm	V	ohm	°	A	V	#
	0	2	1000078	2426.012	-1837.242	1	3043.188	-37.13699	-4.015844E-006	0.0096202	8
	1	4	794390.6	2789.991	-1816.848	1	3329.412	-33.07226	-1.777093E-007	0.0094715	8
	2	6	630984.4	3156.094	-1734.538	1	3601.326	-28.79248	-7.920041E-008	0.0089799	8
	3	7	501234.4	3450.669	-1597.81	1	3802.646	-24.84619	1.198772E-006	0.0086134	8
	4	8	398109.4	3714.961	-1452.769	1	3988.919	-21.35843	-3.304354E-006	0.0094906	8
	5	10	316265.6	3925.355	-1285.876	1	4130.604	-18.13787	5.554672E-007	0.0089145	8
	6	11	251203.1	4106.951	-1116.542	1	4256.021	-15.2092	4.041668E-006	0.0080377	8
	7	13	199546.9	4218.376	-963.792	1	4327.077	-12.86974	6.28822E-007	0.0086892	8
	8	15	158578.1	4300.5	-800.6116	1	4374.39	-10.54586	1.126339E-006	0.0085299	8
	9	16	125953.1	4440.698	-662.7786	1	4489.886	-8.488791	-1.178835E-006	0.0114468	7
	10	17	100078.1	4494.563	-589.4467	1	4533.05	-7.471508	-3.596603E-009	0.0088121	7
	11	19	79453.13	4532.721	-532.3259	1	4563.873	-6.698174	-3.54947E-008	0.0088561	7
	12	20	63140.62	4576.259	-494.8362	1	4602.935	-6.171481	-1.922918E-009	0.0088003	7
	13	21	50203.12	4615.616	-471.6268	1	4639.649	-5.834273	-6.728654E-008	0.0088289	7
	14	23	39890.62	4653.126	-457.0594	1	4675.52	-5.609956	-7.169493E-008	0.0088694	7
	15	24	31640.63	4690.004	-458.2046	1	4712.334	-5.579981	-1.102417E-008	0.0089034	7
	16	25	25171.88	4726.453	-470.2205	1	4749.786	-5.681489	-1.623581E-008	0.0088019	7
	17	27	20015.62	4777.838	-475.5375	1	4801.445	-5.683921	-5.32018E-008	0.0087908	7
	18	28	15890.62	4801.709	-536.2348	1	4831.559	-6.37215	-1.096948E-008	0.0086941	7
	19	29	12609.37	4837.082	-589.714	1	4872.897	-6.950926	4.140329E-008	0.0087066	7
	20	31	10078.13	4881.262	-657.9691	1	4925.408	-7.676906	8.835969E-008	0.0086065	7
	21	32	8015.625	4917	-748.4742	1	4973.641	-8.655219	4.954502E-008	0.0085932	7
	22	33	6328.125	4967.711	-872.145	1	5043.688	-9.95753	-7.508065E-009	0.0088056	7
	23	35	5015.625	5017.529	-1022.981	1	5120.751	-11.52361	-3.030334E-008	0.0087476	7
	24	36	3984.375	5084.843	-1197.418	1	5223.929	-13.25103	-4.779793E-008	0.0088109	7
	25	38	3170.956	5137.444	-1433.758	1	5333.759	-15.59335	-8.07846E-009	0.0088084	7
	26	39	2527.573	5209.704	-1714.593	1	5484.6	-18.21716	-6.487838E-008	0.0088837	7
	27	40	1976.103	5300.288	-2092.915	1	5698.539	-21.54748	-1.527318E-008	0.008795	7
	28	42	1577.524	5396.434	-2514.503	1	5953.505	-24.98347	1.580145E-007	0.0085149	7
	29	43	1265.625	5498.071	-3023.217	1	6274.443	-28.80502	-4.29379E-008	0.0087683	7
	30	45	998.264	5634.122	-3701.569	1	6741.287	-33.30456	-8.177741E-008	0.008869	7
	31	46	796.875	5795.331	-4499.982	1	7337.281	-37.82877	-1.416682E-008	0.0087976	7
	32	48	627.7902	6000.847	-5528.565	1	8159.363	-42.65429	1.580638E-007	0.0085189	7
	33	49	505.5147	6221.903	-6691.591	1	9137.257	-47.08304	4.5897E-008	0.0087056	7
	34	50	397.9953	6543.503	-8250.612	1	10530.43	-51.58231	1.344512E-009	0.0087072	6
	35	52	315.5048	6929.602	-10135.68	1	12278.09	-55.64022	1.773755E-009	0.0087138	6
	36	53	252.4038	7407.461	-12358.67	1	14408.58	-59.06264	1.696635E-009	0.0087068	6
	37	54	198.6229	8076.276	-15287.67	1	17289.86	-62.15309	6.359495E-010	0.0087121	6
	38	56	158.3615	8931.946	-18679.85	1	20705.47	-64.44476	2.220213E-010	0.0087092	6
	39	57	125.558	10074.57	-22924.7	1	25040.74	-66.27628	3.78442E-010	0.0087129	6
	40	58	100.4464	11537.95	-27842.75	1	30138.73	-67.49103	2.157493E-009	0.0087077	6
	41	60	79.00281	13885.83	-34335.11	1	37036.69	-67.98058	2.040088E-010	0.0087021	6
	42	61	63.3446	17201.11	-41161.78	1	44611.33	-67.32042	1.84787E-010	0.0087039	6
	43	63	49.86702	20111.21	-50747.32	1	54587.09	-68.38153	-4.206761E-010	0.0087065	6
	44	64	39.72458	25503.6	-60085.69	1	65274.21	-67.00102	1.107642E-009	0.0087115	6
	45	65	31.6723	32150.84	-71593.42	1	78481.17	-65.81633	6.05079E-010	0.0087069	6
	46	67	24.93351	40904.64	-84652.57	1	94017.27	-64.20988	9.466471E-010	0.0087027	6
	47	68	19.86229	51624.81	-98485.7	1	111196	-62.3371	4.479679E-010	0.0087167	5
	48	70	15.83615	63131.49	-113800.7	1	130139.1	-60.98047	2.207837E-009	0.0087118	5
	49	71	12.40079	78605.73	-128655.1	1	150768	-58.57589	1.096573E-010	0.0087173	5
	50	72	9.93114	95038.2	-144888.2	1	173276.8	-56.73745	-2.815438E-010	0.008711	5
	51	74	7.944915	112470.3	-161945.5	1	197169.8	-55.22024	4.172299E-010	0.0087152	5
	52	76	6.317385	130640	-181600.4	1	223708.6	-54.26945	6.170149E-010	0.0087125	5
	53	78	5.008013	150280.8	-204833	1	254048.9	-53.73345	2.991098E-010	0.0087187	5
	54	80	3.945707	171102.9	-232125.6	1	288372.1	-53.60557	-1.459778E-010	0.0087112	5
	55	83	3.158693	191912.2	-262840	1	325446.1	-53.86502	1.67105E-010	0.008716	5
	56	86	2.504006	215772.1	-301803.1	1	371002.3	-54.43738	-2.024035E-010	0.0087169	5
	57	89	1.998082	240754.9	-346506.2	1	421935.4	-55.20815	1.826979E-010	0.0086779	5
	58	92	1.584686	269890.7	-403828.2	1	485714.2	-56.24398	-6.51063E-011	0.0086868	5
	59	96	1.266892	303092.6	-468358.8	1	557875.5	-57.09158	1.181116E-010	0.0086701	5
	60	100	0.999041	343348.8	-551320.5	1	649494.2	-58.08637	-5.492604E-011	0.0087398	5
