EXPLAIN
TAG	EISPOT
TITLE	LABEL	Potentiostatic IDE	Test &Identifier
DATE	LABEL	9/8/2019	Date
TIME	LABEL	11:12:29	Time
NOTES	NOTES	1	&Notes...
	
PSTAT	PSTAT	REF600-11020	Potentiostat
VDC	POTEN	0.00000E+000	T	DC &Voltage (V)
FREQINIT	QUANT	1.00000E+006	Initial Fre&q. (Hz)
FREQFINAL	QUANT	1.00000E+000	Final Fre&q. (Hz)
PTSPERDEC	QUANT	1.00000E+001	Points/&decade
VAC	QUANT	2.50000E+001	AC &Voltage (mV rms)
AREA	QUANT	1.00000E-002	&Area (cm^2)
CONDIT	TWOPARAM	T	5.00000E+000	0.00000E+000	Conditionin&g	Time(s)	E(V)
DELAY	TWOPARAM	T	5.00000E+000	0.00000E+000	Init. De&lay	Time(s)	Stab.(mV/s)
SPEED	SELECTOR	1	&Optimize for:
ZGUESS	QUANT	1.00000E+007	E&stimated Z (ohms)
OCVCURVE	TABLE	19
	Pt	T	Vf	Vm	Ach	Over
	#	s	V vs. Ref.	V	V	bits
	0	0.258333	1.02703E-002	1.02703E-002	5.60632E-004	...........
	1	0.516667	1.02723E-002	1.03784E-002	5.61099E-004	...........
	2	0.775	1.02855E-002	1.05045E-002	5.61599E-004	...........
	3	1.03333	1.03245E-002	1.06442E-002	5.63232E-004	...........
	4	1.29167	1.03987E-002	1.07782E-002	5.66399E-004	...........
	5	1.55	1.05047E-002	1.09177E-002	5.70366E-004	...........
	6	1.80833	1.06310E-002	1.10588E-002	5.66999E-004	...........
	7	2.06667	1.07669E-002	1.11956E-002	5.64199E-004	...........
	8	2.325	1.09062E-002	1.13375E-002	5.59199E-004	...........
	9	2.58333	1.10461E-002	1.14705E-002	5.59732E-004	...........
	10	2.84167	1.11853E-002	1.16071E-002	5.60466E-004	...........
	11	3.1	1.13233E-002	1.17370E-002	5.63499E-004	...........
	12	3.35833	1.14597E-002	1.18724E-002	5.62432E-004	...........
	13	3.61667	1.15944E-002	1.20008E-002	5.61199E-004	...........
	14	3.875	1.17277E-002	1.21296E-002	5.60099E-004	...........
	15	4.13333	1.18595E-002	1.22592E-002	5.64532E-004	...........
	16	4.39167	1.19899E-002	1.23767E-002	5.65632E-004	...........
	17	4.65	1.21183E-002	1.24947E-002	5.68399E-004	...........
	18	4.90833	1.22437E-002	1.26135E-002	5.61432E-004	...........
EOC	QUANT	0.0122437	Open Circuit (V)
PSTATMODEL	IQUANT	4	Pstat Model
PSTATSECTION	LABEL	REF600-11020	Pstat Section
PSTATSERIALNO	LABEL	11020	Pstat Serial Number
CTRLMODE	IQUANT	1	Control Mode
IESTAB	IQUANT	0	I/E Stability
CASPEED	IQUANT	1	Control Amp Speed
CONVENTION	IQUANT	1	Current Convention
ICHRANGE	IQUANT	2	Ich Range
ICHRANGEMODE	TOGGLE	F	Ich Auto Range
ICHOFFSETENABLE	TOGGLE	T	Ich Offset Enable
ICHOFFSET	QUANT	0	Ich Offset (V)
ICHFILTER	IQUANT	3	Ich Filter
VCHRANGE	IQUANT	2	Vch Range
VCHRANGEMODE	TOGGLE	F	Vch Auto Range
VCHOFFSETENABLE	TOGGLE	T	Vch Offset Enable
VCHOFFSET	QUANT	0	Vch Offset (V)
VCHFILTER	IQUANT	3	Vch Filter
ACHRANGE	IQUANT	2	Ach Range
ACHOFFSETENABLE	TOGGLE	F	Ach Offset Enable
ACHOFFSET	QUANT	0	Ach Offset (V)
ACHFILTER	IQUANT	3	Ach Filter
IERANGELOWERLIMIT	IQUANT	1	I/E Range Lower Limit
IERANGEMODE	TOGGLE	F	I/E AutoRange
IERANGE	IQUANT	3	I/E Range
POSFEEDENABLE	TOGGLE	F	Positive Feedback IR Comp
POSFEEDRESISTANCE	QUANT	0	Positive Feedback Resistance (ohm)
ACHSELECT	IQUANT	0	Ach Select
CABLEID	IQUANT	14	Cable ID
DCCALDATE	LABEL	8/19/2019	DC Calibration Date
ACCALDATE	LABEL	8/19/2019	AC Calibration Date
THERMOSELECT	IQUANT	1	Thermo Select
FRAMEWORKVERSION	QUANT	6.33	Framework Version
INSTRUMENTVERSION	LABEL	3.50	Instrument Version
ZCURVE	TABLE
	Pt	Time	Freq	Zreal	Zimag	Zsig	Zmod	Zphz	Idc	Vdc	IERange
	#	s	Hz	ohm	ohm	V	ohm	°	A	V	#
	0	2	1000078	2722.088	-1767.998	1	3245.856	-33.00376	2.153062E-006	0.0139271	8
	1	4	794390.6	3058.306	-1648.881	1	3474.485	-28.33126	1.693825E-006	0.0135801	8
	2	5	630984.4	3340.659	-1536.12	1	3676.91	-24.69416	-2.5784E-006	0.0145198	8
	3	7	501234.4	3599.255	-1361.595	1	3848.191	-20.72158	9.447988E-007	0.0138416	8
	4	8	398109.4	3821.135	-1202.913	1	4006.005	-17.47427	-2.048725E-006	0.0143304	8
	5	10	316265.6	3973.103	-1056.734	1	4111.233	-14.89426	-7.056551E-007	0.0141727	8
	6	11	251203.1	4065.61	-892.6839	1	4162.459	-12.38389	2.36747E-006	0.0134781	8
	7	12	199546.9	4171.847	-790.8345	1	4246.143	-10.73389	2.265429E-006	0.0134828	8
	8	14	158578.1	4230.634	-690.8556	1	4286.67	-9.274446	5.050516E-006	0.0130077	8
	9	16	125953.1	4316.316	-568.3567	1	4353.575	-7.501342	4.550722E-007	0.0126538	7
	10	17	100078.1	4353.792	-507.6401	1	4383.286	-6.650501	6.810694E-008	0.0138751	7
	11	18	79453.13	4397.646	-464.7708	1	4422.137	-6.032983	4.739474E-008	0.013747	7
	12	20	63140.62	4433.72	-441.6803	1	4455.666	-5.688948	-5.140153E-008	0.0139893	7
	13	21	50203.12	4470.586	-429.6844	1	4491.188	-5.490044	-2.216785E-008	0.0140253	7
	14	22	39890.62	4504.07	-425.814	1	4524.154	-5.400681	-1.362454E-008	0.0139361	7
	15	24	31640.63	4540.297	-435.2176	1	4561.109	-5.475451	-2.075675E-008	0.0140205	7
	16	25	25171.88	4576.23	-454.8052	1	4598.775	-5.675661	-3.904361E-008	0.0139063	7
	17	26	20015.62	4612.562	-487.537	1	4638.256	-6.033627	-4.074383E-008	0.0139152	7
	18	28	15890.62	4654.165	-530.9678	1	4684.354	-6.508419	2.253196E-008	0.0138034	7
	19	29	12609.37	4696.006	-590.8329	1	4733.028	-7.171048	1.330986E-007	0.0136825	7
	20	30	10078.13	4740.831	-663.4432	1	4787.027	-7.966373	1.327001E-007	0.0136862	7
	21	32	8015.625	4791.613	-756.5446	1	4850.97	-8.972324	-3.237863E-008	0.0138796	7
	22	33	6328.125	4850.387	-876.0031	1	4928.857	-10.23753	4.805731E-008	0.0137313	7
	23	34	5015.625	4915.363	-1020.418	1	5020.164	-11.72788	-8.989515E-009	0.0139142	7
	24	36	3984.375	4985.938	-1196.036	1	5127.385	-13.48934	-9.15361E-009	0.0139126	7
	25	37	3170.956	5066.124	-1405.646	1	5257.513	-15.50719	-9.330195E-009	0.0139082	7
	26	38	2527.573	5157.702	-1659.538	1	5418.114	-17.83606	8.555148E-008	0.0136997	7
	27	40	1976.103	5271.155	-1996.219	1	5636.485	-20.74198	-4.092044E-008	0.0138964	7
	28	41	1577.524	5391.885	-2369.648	1	5889.623	-23.72473	3.304434E-008	0.0138425	7
	29	42	1265.625	5526.841	-2816.966	1	6203.327	-27.0074	-4.097981E-008	0.0140067	7
	30	44	998.264	5688.958	-3392.522	1	6623.704	-30.80909	-4.397275E-008	0.0140083	7
	31	45	796.875	5870.755	-4060.863	1	7138.374	-34.67201	3.562638E-008	0.0138436	7
	32	46	627.7902	6091.342	-4927.2	1	7834.65	-38.9689	7.677705E-008	0.0137346	7
	33	48	505.5147	6327.146	-5888.236	1	8643.153	-42.94219	2.417655E-008	0.0137945	7
	34	49	397.9953	6617.178	-7179.137	1	9763.56	-47.33252	6.249482E-009	0.0138958	7
	35	50	315.5048	6953.366	-8727.649	1	11158.91	-51.45548	8.265874E-010	0.0138352	6
	36	52	252.4038	7331.318	-10552.16	1	12848.98	-55.20961	1.412191E-009	0.0138314	6
	37	53	198.6229	7813.166	-12963.33	1	15135.83	-58.92208	8.426121E-010	0.0138373	6
	38	54	158.3615	8361.566	-15773.96	1	17853.11	-62.07253	1.375512E-009	0.0138326	6
	39	56	125.558	9044.478	-19320.01	1	21332.26	-64.9138	1.002151E-009	0.013836	6
	40	57	100.4464	9857.24	-23478.97	1	25464.23	-67.22575	8.073416E-010	0.0138299	6
	41	58	79.00281	10884.09	-29050.74	1	31022.72	-69.46114	9.046192E-010	0.0138327	6
	42	60	63.3446	12132.22	-35078.44	1	37117.21	-70.92156	1.104905E-009	0.0138309	6
	43	61	49.86702	13937.87	-43847.19	1	46009.13	-72.36591	4.884199E-010	0.0138268	6
	44	63	39.72458	16106.13	-53396.16	1	55772.38	-73.21487	9.744204E-010	0.0138314	6
	45	64	31.6723	18745.65	-65336.25	1	67972.23	-73.99126	1.175451E-009	0.0138342	6
	46	65	24.93351	22626.99	-80528.06	1	83646.58	-74.30556	6.42046E-010	0.0138297	6
	47	67	19.86229	27470.04	-98370.5	1	102134	-74.39756	5.368442E-010	0.0138266	6
	48	68	15.83615	33312.43	-119866.2	1	124409.1	-74.46867	7.814935E-010	0.0138265	5
	49	69	12.40079	42611.73	-147471.7	1	153504.6	-73.88342	5.259729E-010	0.0138362	5
	50	71	9.93114	53804.09	-177255.3	1	185241.2	-73.11485	-5.204191E-011	0.0138344	5
	51	72	7.944915	68412.04	-213521.6	1	224213.5	-72.23461	1.75794E-010	0.0138301	5
	52	74	6.317385	87273.29	-256223.6	1	270679.1	-71.19045	2.728617E-010	0.0138199	5
	53	76	5.008013	112061.5	-307364.8	1	327155.8	-69.96877	-1.678886E-011	0.0138263	5
	54	78	3.945707	144949.1	-367178.4	1	394753.4	-68.45764	3.267736E-010	0.013836	5
	55	81	3.158693	183266.9	-431993	1	469259.7	-67.0116	-8.325764E-011	0.0138204	5
	56	84	2.504006	233155.8	-506724	1	557791	-65.29171	4.119937E-010	0.0138254	5
	57	87	1.998082	291409.9	-587526.8	1	655825.8	-63.61885	-1.754977E-011	0.0138697	5
	58	90	1.584686	361996.7	-680074.3	1	770417.1	-61.97408	1.81177E-010	0.0138679	5
	59	94	1.266892	442001.7	-776823.6	1	893767.6	-60.36073	-1.230703E-010	0.0138587	5
	60	98	0.999041	539157.3	-890192.9	1	1040737	-58.79824	2.206534E-010	0.0138324	4
