EXPLAIN
TAG	EISPOT
TITLE	LABEL	Potentiostatic EIS	Test &Identifier
DATE	LABEL	11/7/2019	Date
TIME	LABEL	11:09:05	Time
NOTES	NOTES	2	&Notes...
	
	
PSTAT	PSTAT	REF600-11020	Potentiostat
VDC	POTEN	0.00000E+000	T	DC &Voltage (V)
FREQINIT	QUANT	1.00000E+006	Initial Fre&q. (Hz)
FREQFINAL	QUANT	1.00000E+000	Final Fre&q. (Hz)
PTSPERDEC	QUANT	1.00000E+001	Points/&decade
VAC	QUANT	2.50000E+001	AC &Voltage (mV rms)
AREA	QUANT	1.00000E-002	&Area (cm^2)
CONDIT	TWOPARAM	T	5.00000E+000	0.00000E+000	Conditionin&g	Time(s)	E(V)
DELAY	TWOPARAM	T	5.00000E+000	0.00000E+000	Init. De&lay	Time(s)	Stab.(mV/s)
SPEED	SELECTOR	1	&Optimize for:
ZGUESS	QUANT	1.00000E+005	E&stimated Z (ohms)
OCVCURVE	TABLE	19
	Pt	T	Vf	Vm	Ach	Over
	#	s	V vs. Ref.	V	V	bits
	0	0.258333	4.89928E-003	4.89928E-003	5.71766E-004	...........
	1	0.516667	4.89700E-003	4.77974E-003	5.69532E-004	...........
	2	0.775	4.88313E-003	4.67478E-003	5.66932E-004	...........
	3	1.03333	4.84695E-003	4.70533E-003	5.70099E-004	...........
	4	1.29167	4.79727E-003	4.89572E-003	5.76732E-004	...........
	5	1.55	4.77086E-003	5.09772E-003	5.69466E-004	...........
	6	1.80833	4.80309E-003	5.08579E-003	5.69499E-004	...........
	7	2.06667	4.88359E-003	4.84740E-003	5.74799E-004	...........
	8	2.325	4.95300E-003	4.77330E-003	5.69399E-004	...........
	9	2.58333	4.95797E-003	4.69751E-003	5.72266E-004	...........
	10	2.84167	4.90020E-003	4.74027E-003	5.72766E-004	...........
	11	3.1	4.82214E-003	4.69718E-003	5.77232E-004	...........
	12	3.35833	4.75934E-003	4.63290E-003	5.70466E-004	...........
	13	3.61667	4.71755E-003	4.65787E-003	5.71932E-004	...........
	14	3.875	4.68633E-003	4.55827E-003	5.67966E-004	...........
	15	4.13333	4.59084E-003	1.12043E-003	5.71166E-004	...........
	16	4.39167	4.12160E-003	-3.91976E-003	5.72132E-004	...........
	17	4.65	2.77393E-003	-7.03395E-003	5.66866E-004	...........
	18	4.90833	3.55757E-004	-8.13938E-003	5.68566E-004	...........
EOC	QUANT	0.0003558	Open Circuit (V)
PSTATMODEL	IQUANT	4	Pstat Model
PSTATSECTION	LABEL	REF600-11020	Pstat Section
PSTATSERIALNO	LABEL	11020	Pstat Serial Number
CTRLMODE	IQUANT	1	Control Mode
IESTAB	IQUANT	0	I/E Stability
CASPEED	IQUANT	1	Control Amp Speed
CONVENTION	IQUANT	1	Current Convention
ICHRANGE	IQUANT	2	Ich Range
ICHRANGEMODE	TOGGLE	F	Ich Auto Range
ICHOFFSETENABLE	TOGGLE	T	Ich Offset Enable
ICHOFFSET	QUANT	0	Ich Offset (V)
ICHFILTER	IQUANT	3	Ich Filter
VCHRANGE	IQUANT	2	Vch Range
VCHRANGEMODE	TOGGLE	F	Vch Auto Range
VCHOFFSETENABLE	TOGGLE	T	Vch Offset Enable
VCHOFFSET	QUANT	0	Vch Offset (V)
VCHFILTER	IQUANT	3	Vch Filter
ACHRANGE	IQUANT	2	Ach Range
ACHOFFSETENABLE	TOGGLE	F	Ach Offset Enable
ACHOFFSET	QUANT	0	Ach Offset (V)
ACHFILTER	IQUANT	3	Ach Filter
IERANGELOWERLIMIT	IQUANT	1	I/E Range Lower Limit
IERANGEMODE	TOGGLE	F	I/E AutoRange
IERANGE	IQUANT	3	I/E Range
POSFEEDENABLE	TOGGLE	F	Positive Feedback IR Comp
POSFEEDRESISTANCE	QUANT	0	Positive Feedback Resistance (ohm)
ACHSELECT	IQUANT	0	Ach Select
CABLEID	IQUANT	14	Cable ID
DCCALDATE	LABEL	8/19/2019	DC Calibration Date
ACCALDATE	LABEL	8/19/2019	AC Calibration Date
THERMOSELECT	IQUANT	1	Thermo Select
FRAMEWORKVERSION	QUANT	6.33	Framework Version
INSTRUMENTVERSION	LABEL	3.50	Instrument Version
ZCURVE	TABLE
	Pt	Time	Freq	Zreal	Zimag	Zsig	Zmod	Zphz	Idc	Vdc	IERange
	#	s	Hz	ohm	ohm	V	ohm	°	A	V	#
	0	2	1000078	1870.996	-771.466	1	2023.805	-22.40778	9.220137E-006	0.0005734	8
	1	3	794390.6	1962.756	-702.4211	1	2084.66	-19.69102	-3.859209E-006	0.0017386	8
	2	4	630984.4	2059.151	-636.5052	1	2155.283	-17.17693	-7.140437E-006	0.0031066	8
	3	6	501234.4	2148.291	-588.7039	1	2227.493	-15.32476	-2.509779E-006	0.0025787	8
	4	7	398109.4	2214.877	-531.8645	1	2277.841	-13.50292	-3.992184E-006	0.0024753	8
	5	8	316265.6	2276.414	-503.1446	1	2331.355	-12.46343	-1.678051E-006	0.0015664	8
	6	10	251203.1	2328.642	-468.3844	1	2375.28	-11.37276	-4.98717E-006	0.0021869	8
	7	11	199546.9	2381.05	-442.4154	1	2421.803	-10.52591	2.254152E-006	0.0021038	8
	8	13	158578.1	2443.777	-438.3704	1	2482.784	-10.16969	-2.05437E-006	0.0019212	8
	9	14	125953.1	2491.597	-386.9022	1	2521.458	-8.826555	2.046905E-006	0.0017908	7
	10	15	100078.1	2515.746	-400.0251	1	2547.351	-9.034881	-2.709504E-007	0.0031168	7
	11	17	79453.13	2566.645	-415.0644	1	2599.989	-9.186049	1.103254E-006	0.0006038	7
	12	18	63140.62	2613.364	-441.9283	1	2650.467	-9.5981	9.580111E-008	0.0027033	7
	13	19	50203.12	2666.737	-474.059	1	2708.546	-10.08002	1.022162E-006	0.0010185	7
	14	21	39890.62	2722.654	-509.5186	1	2769.919	-10.59975	-7.374404E-007	0.0016122	7
	15	22	31640.63	2785.188	-552.7775	1	2839.513	-11.22564	4.229506E-007	0.0022417	7
	16	23	25171.88	2850.082	-599.9659	1	2912.547	-11.88767	1.024554E-007	0.0004077	7
	17	25	20015.62	2916.695	-657.9389	1	2989.982	-12.71184	-6.08343E-007	0.0033591	7
	18	26	15890.62	2991.426	-721.5222	1	3077.21	-13.56055	-1.242553E-006	0.003259	7
	19	27	12609.37	3069.314	-799.0972	1	3171.631	-14.59302	4.24307E-007	0.0022309	7
	20	29	10078.13	3152.861	-895.8358	1	3277.66	-15.86166	1.041525E-007	0.0004064	7
	21	30	8015.625	3238.702	-1000.09	1	3389.598	-17.16035	4.229146E-007	0.0022423	7
	22	32	6328.125	3340.733	-1131.286	1	3527.081	-18.70785	-1.231742E-006	0.0028709	7
	23	33	5015.625	3453.445	-1290.259	1	3686.604	-20.48644	9.692344E-007	6.472233E-005	7
	24	34	3984.375	3570.136	-1468.212	1	3860.249	-22.35482	1.012333E-007	0.0026954	7
	25	36	3170.956	3697.899	-1683.835	1	4063.22	-24.4821	-1.098361E-006	0.0033919	7
	26	37	2527.573	3836.526	-1934.721	1	4296.752	-26.76134	-8.905847E-007	0.0034468	7
	27	38	1976.103	3997.146	-2265.035	1	4594.296	-29.53862	1.060152E-007	0.0004002	7
	28	40	1577.524	4159.646	-2639.622	1	4926.486	-32.39833	6.417835E-007	0.0019097	7
	29	41	1265.625	4315.783	-3070.718	1	5296.725	-35.43219	7.665052E-007	-1.451867E-005	7
	30	42	998.264	4501.614	-3646.158	1	5793.013	-39.00633	4.691187E-007	9.490312E-005	7
	31	44	796.875	4700.042	-4319.21	1	6383.258	-42.58216	-8.878781E-007	0.0034474	7
	32	45	627.7902	4933.248	-5227.096	1	7187.452	-46.65659	1.107638E-006	0.0005907	7
	33	47	505.5147	5180.544	-6235.122	1	8106.465	-50.278	9.699485E-007	6.687857E-005	7
	34	48	397.9953	5526.118	-7586.27	1	9385.599	-53.92903	7.808544E-009	0.0017733	7
	35	49	315.5048	5943.098	-9225.855	1	10974.37	-57.21124	5.256079E-010	0.0017152	6
	36	51	252.4038	6446.688	-11157.28	1	12885.83	-59.98063	5.225588E-011	0.0017089	6
	37	52	198.6229	7144.077	-13694.45	1	15445.9	-62.45	8.355809E-010	0.0017028	6
	38	53	158.3615	8001.374	-16617.08	1	18443.14	-64.28848	-5.412442E-010	0.0017118	6
	39	55	125.558	9158.187	-20223.78	1	22200.76	-65.63696	5.150196E-011	0.001709	6
	40	56	100.4464	10618.91	-24347.55	1	26562.46	-66.43611	1.242432E-009	0.0017097	6
	41	58	79.00281	12603.05	-29653.47	1	32220.57	-66.97398	1.066017E-010	0.0017053	6
	42	59	63.3446	14626.76	-35559.82	1	38450.52	-67.64125	1.463475E-010	0.0017029	6
	43	60	49.86702	18766.01	-42554.75	1	46508.82	-66.20323	1.708107E-009	0.0016936	6
	44	62	39.72458	22965.49	-51023.98	1	55954.09	-65.76786	8.781191E-010	0.0017125	6
	45	63	31.6723	28090.72	-60273.47	1	66497.97	-65.01192	9.080074E-010	0.0017087	6
	46	65	24.93351	35475.48	-71309.58	1	79646.5	-63.55032	5.174051E-010	0.001705	6
	47	66	19.86229	43804.17	-83017.15	1	93865.07	-62.18154	-7.744163E-010	0.0016977	6
	48	67	15.83615	53739.55	-94590.98	1	108790.6	-60.39799	-1.168181E-010	0.001711	5
	49	69	12.40079	65955.51	-110949	1	129072.9	-59.26992	3.346414E-010	0.0017155	5
	50	70	9.93114	79048.92	-125082.4	1	147967.4	-57.70815	3.68286E-010	0.0017034	5
	51	72	7.944915	93666.59	-141450.7	1	169651.8	-56.48805	3.562384E-010	0.0017156	5
	52	73	6.317385	109088.4	-158261.7	1	192216.1	-55.42185	4.80704E-010	0.0017085	5
	53	76	5.008013	125723.6	-178841.5	1	218610.9	-54.8932	3.759638E-011	0.0017142	5
	54	78	3.945707	143564.3	-203831.9	1	249315.3	-54.84192	-1.238315E-010	0.0017086	5
	55	81	3.158693	161180	-231592	1	282159.3	-55.16341	1.040872E-010	0.0017144	5
	56	84	2.504006	180651.8	-266855.3	1	322252.7	-55.90336	-4.729113E-011	0.0017198	5
	57	87	1.998082	201146.6	-308071.5	1	367923.9	-56.85861	2.772576E-010	0.0016807	5
	58	90	1.584686	225355.8	-361205	1	425739.7	-58.03996	1.238203E-011	0.0016748	5
	59	93	1.266892	252295.6	-421509.6	1	491246.8	-59.09726	2.331188E-010	0.0016875	5
	60	98	0.999041	286011.7	-500699.9	1	576630.9	-60.26397	-8.725426E-011	0.0017247	5
