EXPLAIN
TAG	EISPOT
TITLE	LABEL	Potentiostatic IDE	Test &Identifier
DATE	LABEL	9/14/2019	Date
TIME	LABEL	12:30:28	Time
NOTES	NOTES	1	&Notes...
	
PSTAT	PSTAT	REF600-11020	Potentiostat
VDC	POTEN	0.00000E+000	T	DC &Voltage (V)
FREQINIT	QUANT	1.00000E+006	Initial Fre&q. (Hz)
FREQFINAL	QUANT	1.00000E+000	Final Fre&q. (Hz)
PTSPERDEC	QUANT	1.00000E+001	Points/&decade
VAC	QUANT	2.50000E+001	AC &Voltage (mV rms)
AREA	QUANT	1.00000E-002	&Area (cm^2)
CONDIT	TWOPARAM	T	5.00000E+000	0.00000E+000	Conditionin&g	Time(s)	E(V)
DELAY	TWOPARAM	T	5.00000E+000	0.00000E+000	Init. De&lay	Time(s)	Stab.(mV/s)
SPEED	SELECTOR	1	&Optimize for:
ZGUESS	QUANT	1.00000E+007	E&stimated Z (ohms)
OCVCURVE	TABLE	19
	Pt	T	Vf	Vm	Ach	Over
	#	s	V vs. Ref.	V	V	bits
	0	0.258333	-2.63504E-003	-2.63504E-003	5.71866E-004	...........
	1	0.516667	-2.64882E-003	-3.35686E-003	5.70399E-004	...........
	2	0.775	-2.73308E-003	-4.01930E-003	5.71366E-004	...........
	3	1.03333	-2.96978E-003	-4.63982E-003	5.72832E-004	...........
	4	1.29167	-3.38896E-003	-5.21708E-003	5.74466E-004	...........
	5	1.55	-3.93898E-003	-5.76863E-003	5.75332E-004	...........
	6	1.80833	-4.53939E-003	-6.28912E-003	5.74732E-004	...........
	7	2.06667	-5.13348E-003	-6.78268E-003	5.78999E-004	...........
	8	2.325	-5.69744E-003	-7.25360E-003	5.76532E-004	...........
	9	2.58333	-6.22759E-003	-7.70456E-003	5.73266E-004	...........
	10	2.84167	-6.72774E-003	-8.13636E-003	5.75766E-004	...........
	11	3.1	-7.20266E-003	-8.54957E-003	5.73499E-004	...........
	12	3.35833	-7.65590E-003	-8.94890E-003	5.73899E-004	...........
	13	3.61667	-8.08989E-003	-9.33232E-003	5.79632E-004	...........
	14	3.875	-8.50641E-003	-9.70291E-003	5.72399E-004	...........
	15	4.13333	-8.90694E-003	-1.00612E-002	5.74199E-004	...........
	16	4.39167	-9.29270E-003	-1.04033E-002	5.75699E-004	...........
	17	4.65	-9.66453E-003	-1.07380E-002	5.73266E-004	...........
	18	4.90833	-1.00231E-002	-1.10610E-002	5.74799E-004	...........
EOC	QUANT	-0.0100231	Open Circuit (V)
PSTATMODEL	IQUANT	4	Pstat Model
PSTATSECTION	LABEL	REF600-11020	Pstat Section
PSTATSERIALNO	LABEL	11020	Pstat Serial Number
CTRLMODE	IQUANT	1	Control Mode
IESTAB	IQUANT	0	I/E Stability
CASPEED	IQUANT	1	Control Amp Speed
CONVENTION	IQUANT	1	Current Convention
ICHRANGE	IQUANT	2	Ich Range
ICHRANGEMODE	TOGGLE	F	Ich Auto Range
ICHOFFSETENABLE	TOGGLE	T	Ich Offset Enable
ICHOFFSET	QUANT	0	Ich Offset (V)
ICHFILTER	IQUANT	3	Ich Filter
VCHRANGE	IQUANT	2	Vch Range
VCHRANGEMODE	TOGGLE	F	Vch Auto Range
VCHOFFSETENABLE	TOGGLE	T	Vch Offset Enable
VCHOFFSET	QUANT	0	Vch Offset (V)
VCHFILTER	IQUANT	3	Vch Filter
ACHRANGE	IQUANT	2	Ach Range
ACHOFFSETENABLE	TOGGLE	F	Ach Offset Enable
ACHOFFSET	QUANT	0	Ach Offset (V)
ACHFILTER	IQUANT	3	Ach Filter
IERANGELOWERLIMIT	IQUANT	1	I/E Range Lower Limit
IERANGEMODE	TOGGLE	F	I/E AutoRange
IERANGE	IQUANT	3	I/E Range
POSFEEDENABLE	TOGGLE	F	Positive Feedback IR Comp
POSFEEDRESISTANCE	QUANT	0	Positive Feedback Resistance (ohm)
ACHSELECT	IQUANT	0	Ach Select
CABLEID	IQUANT	14	Cable ID
DCCALDATE	LABEL	8/19/2019	DC Calibration Date
ACCALDATE	LABEL	8/19/2019	AC Calibration Date
THERMOSELECT	IQUANT	1	Thermo Select
FRAMEWORKVERSION	QUANT	6.33	Framework Version
INSTRUMENTVERSION	LABEL	3.50	Instrument Version
ZCURVE	TABLE
	Pt	Time	Freq	Zreal	Zimag	Zsig	Zmod	Zphz	Idc	Vdc	IERange
	#	s	Hz	ohm	ohm	V	ohm	°	A	V	#
	0	2	1000078	2353.271	-2005.793	1	3092.102	-40.44237	8.009533E-007	-0.0072395	8
	1	4	794390.6	2768.45	-1993.594	1	3411.559	-35.75812	3.124475E-006	-0.0086978	8
	2	5	630984.4	3163.063	-1902.158	1	3690.958	-31.02127	-5.691392E-006	-0.0070215	8
	3	6	501234.4	3543.433	-1736.929	1	3946.243	-26.11329	2.573997E-006	-0.0088002	8
	4	8	398109.4	3807.967	-1538.276	1	4106.933	-21.99686	2.492078E-006	-0.0088741	8
	5	9	316265.6	4043.453	-1370.615	1	4269.437	-18.72519	-1.698765E-006	-0.0080763	8
	6	11	251203.1	4201.631	-1180.047	1	4364.197	-15.68763	1.746616E-006	-0.0087164	8
	7	12	199546.9	4324.267	-1044.139	1	4448.541	-13.57483	1.785794E-006	-0.0087395	8
	8	14	158578.1	4437.602	-927.777	1	4533.55	-11.80883	-3.409445E-006	-0.0076702	8
	9	15	125953.1	4541.998	-730.3672	1	4600.346	-9.135136	-2.045995E-007	-0.0078218	7
	10	16	100078.1	4594.891	-654.3673	1	4641.251	-8.105103	-1.383081E-008	-0.0083805	7
	11	18	79453.13	4647.815	-601.0558	1	4686.519	-7.368599	4.941373E-008	-0.0085706	7
	12	19	63140.62	4693.664	-565.5909	1	4727.618	-6.871066	4.976538E-008	-0.0085777	7
	13	20	50203.12	4737.011	-544.2537	1	4768.174	-6.554197	-3.627292E-008	-0.0084133	7
	14	22	39890.62	4779.856	-538.9885	1	4810.149	-6.433639	4.866989E-008	-0.0085814	7
	15	23	31640.63	4825.629	-546.8817	1	4856.519	-6.465664	8.216666E-008	-0.0085695	7
	16	25	25171.88	4869.328	-569.3634	1	4902.502	-6.669228	-4.048912E-008	-0.0082872	7
	17	26	20015.62	4917.44	-605.6909	1	4954.602	-7.021867	-2.316022E-008	-0.0084441	7
	18	27	15890.62	4965.28	-657.952	1	5008.684	-7.54832	-4.023127E-008	-0.0083861	7
	19	29	12609.37	5020.083	-728.7615	1	5072.704	-8.259884	1.350239E-007	-0.0086261	7
	20	30	10078.13	5075.93	-818.4827	1	5141.496	-9.159974	8.258078E-008	-0.0085808	7
	21	31	8015.625	5138.994	-929.2728	1	5222.337	-10.24991	-4.803702E-008	-0.0083403	7
	22	33	6328.125	5208.165	-1073.581	1	5317.665	-11.64748	1.353942E-007	-0.0086275	7
	23	34	5015.625	5287.346	-1249.643	1	5433.014	-13.29761	-2.286953E-008	-0.0084467	7
	24	35	3984.375	5371.639	-1465.007	1	5567.832	-15.25527	-9.478651E-009	-0.0083071	7
	25	37	3170.956	5470.456	-1721.697	1	5734.992	-17.47017	8.77893E-008	-0.0086188	7
	26	38	2527.573	5579.342	-2035.162	1	5938.935	-20.04032	1.370882E-007	-0.0086227	7
	27	39	1976.103	5715.496	-2450.071	1	6218.5	-23.20344	-7.627477E-009	-0.0083012	7
	28	41	1577.524	5863.954	-2914.198	1	6548.167	-26.42591	-3.949479E-008	-0.008387	7
	29	42	1265.625	6017.946	-3456.008	1	6939.716	-29.86805	4.703202E-008	-0.0085832	7
	30	43	998.264	6237.638	-4181.985	1	7509.802	-33.83963	7.965345E-008	-0.008469	7
	31	45	796.875	6472.023	-5005.693	1	8181.934	-37.71965	8.908712E-008	-0.0086114	7
	32	46	627.7902	6758.179	-6083.225	1	9092.777	-41.99126	7.93232E-008	-0.0084683	7
	33	47	505.5147	7076.606	-7255.61	1	10135.2	-45.71556	-7.786225E-009	-0.0084309	6
	34	49	397.9953	7483.143	-8844.063	1	11585.12	-49.76476	1.207525E-009	-0.0084839	6
	35	50	315.5048	7957.264	-10731.98	1	13360.14	-53.44479	2.244157E-009	-0.008481	6
	36	51	252.4038	8504.473	-12937.15	1	15482.11	-56.68034	1.29697E-009	-0.0084842	6
	37	53	198.6229	9216.206	-15838.13	1	18324.43	-59.80488	1.645644E-009	-0.0084873	6
	38	54	158.3615	10040.01	-19181.25	1	21649.99	-62.37116	1.251831E-009	-0.0084854	6
	39	55	125.558	11075.36	-23385.03	1	25875.15	-64.65735	1.007163E-009	-0.0084859	6
	40	57	100.4464	12265.76	-28298.88	1	30842.75	-66.56635	1.895855E-009	-0.0084898	6
	41	58	79.00281	13898.35	-34734.27	1	37411.68	-68.19199	7.559058E-010	-0.0084934	6
	42	59	63.3446	15940.32	-42582.64	1	45468.39	-69.4772	1.389631E-009	-0.0084871	6
	43	61	49.86702	18532.42	-51288.53	1	54534.06	-70.13336	8.544836E-010	-0.0084892	6
	44	62	39.72458	22285.5	-62724.34	1	66565.65	-70.44025	1.086155E-009	-0.0084797	6
	45	64	31.6723	26727.03	-75715.73	1	80294.5	-70.55739	1.245819E-009	-0.008484	6
	46	65	24.93351	33298.91	-92527.03	1	98336.5	-70.20705	6.138234E-010	-0.0084841	6
	47	66	19.86229	41461.21	-111025.2	1	118514.3	-69.52238	1.262177E-009	-0.0084786	5
	48	68	15.83615	54021.3	-132258.1	1	142865.4	-67.78226	2.838249E-009	-0.0084849	5
	49	69	12.40079	66158.56	-161712.5	1	174722.3	-67.74993	1.195659E-009	-0.0084782	5
	50	70	9.93114	85054.01	-187852.7	1	206210.7	-65.64043	8.784479E-010	-0.0084927	5
	51	72	7.944915	104529.2	-218603	1	242309	-64.44431	-3.125582E-010	-0.0084829	5
	52	73	6.317385	132954.2	-253870.8	1	286578.4	-62.35859	1.362719E-010	-0.0084651	5
	53	75	5.008013	165198.9	-291979.7	1	335474.1	-60.49929	5.803689E-010	-0.008484	5
	54	78	3.945707	203705	-334777.1	1	391881.9	-58.68034	2.225512E-010	-0.008494	5
	55	81	3.158693	243926.2	-377320.8	1	449300.6	-57.11858	5.599693E-010	-0.0084683	5
	56	84	2.504006	291077.6	-427066.2	1	516828.5	-55.72264	1.040591E-010	-0.0084912	5
	57	87	1.998082	341294.3	-479665.1	1	588693.8	-54.56715	1.524474E-010	-0.0085225	5
	58	90	1.584686	397052.4	-538311.6	1	668902	-53.58794	2.650635E-010	-0.0084485	5
	59	93	1.266892	456167.8	-606092.7	1	758575.9	-53.03352	1.386982E-010	-0.008518	5
	60	98	0.999041	525511.2	-685471.6	1	863732.3	-52.52472	4.386481E-010	-0.0084453	5
