EXPLAIN
TAG	EISPOT
TITLE	LABEL	Potentiostatic EIS	Test &Identifier
DATE	LABEL	11/22/2019	Date
TIME	LABEL	10:22:40	Time
NOTES	NOTES	4	&Notes...
	
	
	
	
PSTAT	PSTAT	REF600-11020	Potentiostat
VDC	POTEN	0.00000E+000	T	DC &Voltage (V)
FREQINIT	QUANT	1.00000E+006	Initial Fre&q. (Hz)
FREQFINAL	QUANT	1.00000E+000	Final Fre&q. (Hz)
PTSPERDEC	QUANT	1.00000E+001	Points/&decade
VAC	QUANT	2.50000E+001	AC &Voltage (mV rms)
AREA	QUANT	1.00000E-002	&Area (cm^2)
CONDIT	TWOPARAM	T	5.00000E+000	0.00000E+000	Conditionin&g	Time(s)	E(V)
DELAY	TWOPARAM	T	5.00000E+000	0.00000E+000	Init. De&lay	Time(s)	Stab.(mV/s)
SPEED	SELECTOR	0	&Optimize for:
ZGUESS	QUANT	1.00000E+005	E&stimated Z (ohms)
OCVCURVE	TABLE	19
	Pt	T	Vf	Vm	Ach	Over
	#	s	V vs. Ref.	V	V	bits
	0	0.258333	5.84060E-003	5.84060E-003	5.49933E-004	...........
	1	0.516667	5.83764E-003	5.68559E-003	5.46333E-004	...........
	2	0.775	5.82004E-003	5.56967E-003	5.42933E-004	...........
	3	1.03333	5.77400E-003	5.54999E-003	5.44699E-004	...........
	4	1.29167	5.70392E-003	5.57632E-003	5.48933E-004	...........
	5	1.55	5.63587E-003	5.60399E-003	5.49366E-004	...........
	6	1.80833	5.59411E-003	5.60260E-003	5.44299E-004	...........
	7	2.06667	5.58206E-003	5.60185E-003	5.48099E-004	...........
	8	2.325	5.58717E-003	5.61854E-003	5.35633E-004	...........
	9	2.58333	5.59606E-003	5.57757E-003	5.39166E-004	...........
	10	2.84167	5.60331E-003	5.70832E-003	5.48533E-004	...........
	11	3.1	5.61432E-003	5.73237E-003	5.42033E-004	...........
	12	3.35833	5.63712E-003	5.67579E-003	5.44766E-004	...........
	13	3.61667	5.66651E-003	5.71049E-003	5.44366E-004	...........
	14	3.875	5.68938E-003	5.73311E-003	5.41899E-004	...........
	15	4.13333	5.70351E-003	5.75503E-003	5.50733E-004	...........
	16	4.39167	5.71651E-003	5.78392E-003	5.42199E-004	...........
	17	4.65	5.73371E-003	5.80507E-003	5.47433E-004	...........
	18	4.90833	5.75516E-003	5.82580E-003	5.48366E-004	...........
EOC	QUANT	0.0057552	Open Circuit (V)
PSTATMODEL	IQUANT	4	Pstat Model
PSTATSECTION	LABEL	REF600-11020	Pstat Section
PSTATSERIALNO	LABEL	11020	Pstat Serial Number
CTRLMODE	IQUANT	1	Control Mode
IESTAB	IQUANT	0	I/E Stability
CASPEED	IQUANT	1	Control Amp Speed
CONVENTION	IQUANT	1	Current Convention
ICHRANGE	IQUANT	2	Ich Range
ICHRANGEMODE	TOGGLE	F	Ich Auto Range
ICHOFFSETENABLE	TOGGLE	T	Ich Offset Enable
ICHOFFSET	QUANT	0	Ich Offset (V)
ICHFILTER	IQUANT	3	Ich Filter
VCHRANGE	IQUANT	2	Vch Range
VCHRANGEMODE	TOGGLE	F	Vch Auto Range
VCHOFFSETENABLE	TOGGLE	T	Vch Offset Enable
VCHOFFSET	QUANT	0	Vch Offset (V)
VCHFILTER	IQUANT	3	Vch Filter
ACHRANGE	IQUANT	2	Ach Range
ACHOFFSETENABLE	TOGGLE	F	Ach Offset Enable
ACHOFFSET	QUANT	0	Ach Offset (V)
ACHFILTER	IQUANT	3	Ach Filter
IERANGELOWERLIMIT	IQUANT	1	I/E Range Lower Limit
IERANGEMODE	TOGGLE	F	I/E AutoRange
IERANGE	IQUANT	5	I/E Range
POSFEEDENABLE	TOGGLE	F	Positive Feedback IR Comp
POSFEEDRESISTANCE	QUANT	0	Positive Feedback Resistance (ohm)
ACHSELECT	IQUANT	0	Ach Select
CABLEID	IQUANT	14	Cable ID
DCCALDATE	LABEL	8/19/2019	DC Calibration Date
ACCALDATE	LABEL	8/19/2019	AC Calibration Date
THERMOSELECT	IQUANT	1	Thermo Select
FRAMEWORKVERSION	QUANT	6.33	Framework Version
INSTRUMENTVERSION	LABEL	3.50	Instrument Version
ZCURVE	TABLE
	Pt	Time	Freq	Zreal	Zimag	Zsig	Zmod	Zphz	Idc	Vdc	IERange
	#	s	Hz	ohm	ohm	V	ohm	°	A	V	#
	0	2	1000078	2385.788	-1880.559	1	3037.843	-38.24637	-3.686596E-006	0.0088239	8
	1	2	794390.6	2748.941	-1876.152	1	3328.156	-34.31354	3.731014E-006	0.008084	8
	2	2	630984.4	3121.352	-1832.894	1	3619.715	-30.42195	1.451885E-006	0.0069872	8
	3	3	501234.4	3421.168	-1722.571	1	3830.358	-26.72542	-3.115195E-006	0.0079939	8
	4	3	398109.4	3701.991	-1565.095	1	4019.236	-22.91724	-3.651449E-006	0.0079736	8
	5	3	316265.6	3975.009	-1468.59	1	4237.624	-20.27705	-4.674787E-007	0.0070225	8
	6	4	251203.1	4176.444	-1334.774	1	4384.553	-17.72366	-2.486471E-006	0.0072158	8
	7	4	199546.9	4352.347	-1183.894	1	4510.491	-15.21701	-2.521639E-007	0.0070423	8
	8	4	158578.1	4531.658	-1083.937	1	4659.49	-13.45196	-8.463362E-007	0.0077419	8
	9	5	125953.1	4660.44	-881.7775	1	4743.125	-10.71399	4.240253E-006	8.800755E-005	7
	10	5	100078.1	4748.334	-797.5037	1	4814.841	-9.53409	1.15536E-006	0.0057114	7
	11	5	79453.13	4820.72	-729.2373	1	4875.564	-8.601997	-1.30628E-006	0.0088225	7
	12	5	63140.62	4893.169	-680.504	1	4940.262	-7.91747	-3.127153E-007	0.0087255	7
	13	6	50203.12	4953.613	-647.725	1	4995.781	-7.449621	-6.650399E-007	0.0089815	7
	14	6	39890.62	5016.507	-630.507	1	5055.975	-7.163738	1.085702E-006	0.0065054	7
	15	6	31640.63	5067.665	-625.8515	1	5106.165	-7.040323	5.129363E-007	0.0054909	7
	16	7	25171.88	5115.264	-636.0888	1	5154.662	-7.088407	-1.120527E-006	0.0078272	7
	17	7	20015.62	5176.309	-667.7216	1	5219.198	-7.35032	1.158657E-006	0.0057027	7
	18	7	15890.62	5223.334	-707.3515	1	5271.012	-7.712161	-1.307474E-006	0.008818	7
	19	8	12609.37	5286.172	-779.0417	1	5343.269	-8.383533	-1.122058E-006	0.0078264	7
	20	8	10078.13	5348.069	-857.7764	1	5416.421	-9.112059	-1.302383E-006	0.0084316	7
	21	8	8015.625	5416.572	-942.4632	1	5497.953	-9.87043	-7.837951E-007	0.0071046	7
	22	9	6328.125	5498.204	-1101.234	1	5607.402	-11.3259	1.158743E-006	0.0057039	7
	23	9	5015.625	5571.642	-1269.405	1	5714.418	-12.8348	7.34389E-008	0.0082963	7
	24	9	3984.375	5618.471	-1482.375	1	5810.736	-14.78008	-3.145906E-007	0.00872	7
	25	10	3170.956	5753.459	-1728.154	1	6007.396	-16.71857	-6.646648E-007	0.0089715	7
	26	10	2527.573	5862.529	-2037.722	1	6206.574	-19.16664	4.105395E-007	0.0078389	7
	27	10	1976.103	5995.964	-2448.912	1	6476.786	-22.21642	7.328106E-008	0.0082976	7
	28	11	1577.524	6075.055	-2857.193	1	6713.408	-25.18834	8.906705E-007	0.007024	7
	29	11	1265.625	6295.44	-3468.79	1	7187.842	-28.85478	8.25134E-007	0.0053689	7
	30	11	998.264	6496.379	-4195.267	1	7733.253	-32.85378	1.109852E-007	0.0058008	7
	31	12	796.875	6729.232	-5035.904	1	8404.933	-36.8098	1.15804E-006	0.0056907	7
	32	12	627.7902	7019.46	-6130.045	1	9319.35	-41.13049	1.158783E-006	0.0056978	7
	33	12	505.5147	7332.228	-7321.954	1	10362.07	-44.95983	-3.391571E-007	0.0063527	7
	34	13	397.9953	7770.966	-8927.688	1	11836.03	-48.96257	5.374751E-010	0.007217	6
	35	13	315.5048	8274.598	-10841.09	1	13638.12	-52.64687	5.370708E-010	0.007216	6
	36	13	252.4038	8867.638	-13075.67	1	15799	-55.85573	7.425985E-010	0.007219	6
	37	14	198.6229	9659.04	-16011.08	1	18698.98	-58.89861	2.618692E-010	0.0072231	6
	38	14	158.3615	10595.97	-19401.76	1	22106.63	-61.35951	-2.409917E-010	0.0072138	6
	39	14	125.558	11833.7	-23623.38	1	26421.59	-63.39226	3.793025E-010	0.0072297	6
	40	15	100.4464	13408.75	-28504.21	1	31500.55	-64.80709	5.39654E-010	0.0072173	6
	41	15	79.00281	15653.01	-34925.93	1	38273.2	-65.85915	-3.606456E-010	0.0072254	6
	42	15	63.3446	17776.99	-42206.73	1	45797.7	-67.15974	2.247948E-010	0.0072221	6
	43	16	49.86702	21644.85	-51116.09	1	55509.95	-67.05002	3.930981E-010	0.0072197	6
	44	16	39.72458	26837.58	-61193.14	1	66819.59	-66.3191	1.870156E-010	0.0072146	6
	45	16	31.6723	33154.19	-72634.07	1	79843.02	-65.46543	5.597498E-010	0.007212	6
	46	17	24.93351	41305.84	-86635.19	1	95978.3	-64.50918	-3.968368E-010	0.0072231	6
	47	17	19.86229	51073.99	-101468.9	1	113598	-63.28178	-1.075955E-009	0.0072181	5
	48	17	15.83615	62869.02	-116484.2	1	132367.3	-61.64332	1.586797E-009	0.0072201	5
	49	18	12.40079	79192.34	-138465.2	1	159511.8	-60.23348	-5.986532E-010	0.0072267	5
	50	18	9.93114	96426.1	-155793.3	1	183219.9	-58.24512	4.229619E-010	0.007223	5
	51	19	7.944915	115978.2	-176338.2	1	211059.5	-56.66694	8.386263E-010	0.0072159	5
	52	19	6.317385	137597.7	-199098.7	1	242019.5	-55.35153	7.149539E-010	0.0072042	5
	53	20	5.008013	162758.8	-224110.1	1	276976.1	-54.01115	3.168168E-010	0.0072283	5
	54	21	3.945707	191252.9	-251529.1	1	315981.9	-52.75206	1.078435E-011	0.0072335	5
	55	22	3.158693	219315.2	-280973.8	1	356434.3	-52.02604	8.955747E-011	0.0072174	5
	56	24	2.504006	250524.3	-315259.1	1	402679.5	-51.52718	1.635767E-010	0.0072098	5
	57	25	1.998082	282323.6	-354386.6	1	453096.6	-51.45727	1.948249E-010	0.0072337	5
	58	27	1.584686	317242.1	-400094.2	1	510605.5	-51.58845	-3.993356E-011	0.007194	5
	59	29	1.266892	354946.6	-454155.8	1	576406.6	-51.99051	-1.079534E-010	0.0071754	5
	60	31	0.999041	398014.5	-523893.1	1	657935.8	-52.77517	-1.394655E-010	0.0071739	5
