EXPLAIN
TAG	EISPOT
TITLE	LABEL	Potentiostatic IDE	Test &Identifier
DATE	LABEL	9/10/2019	Date
TIME	LABEL	9:03:44	Time
NOTES	NOTES	1	&Notes...
	
PSTAT	PSTAT	REF600-11020	Potentiostat
VDC	POTEN	0.00000E+000	T	DC &Voltage (V)
FREQINIT	QUANT	1.00000E+006	Initial Fre&q. (Hz)
FREQFINAL	QUANT	1.00000E+000	Final Fre&q. (Hz)
PTSPERDEC	QUANT	1.00000E+001	Points/&decade
VAC	QUANT	2.50000E+001	AC &Voltage (mV rms)
AREA	QUANT	1.00000E-002	&Area (cm^2)
CONDIT	TWOPARAM	T	5.00000E+000	0.00000E+000	Conditionin&g	Time(s)	E(V)
DELAY	TWOPARAM	T	5.00000E+000	0.00000E+000	Init. De&lay	Time(s)	Stab.(mV/s)
SPEED	SELECTOR	1	&Optimize for:
ZGUESS	QUANT	1.00000E+007	E&stimated Z (ohms)
OCVCURVE	TABLE	19
	Pt	T	Vf	Vm	Ach	Over
	#	s	V vs. Ref.	V	V	bits
	0	0.258333	6.06573E-003	6.06573E-003	5.57466E-004	...........
	1	0.516667	6.06354E-003	5.95078E-003	5.67666E-004	...........
	2	0.775	6.05039E-003	5.85956E-003	5.67732E-004	...........
	3	1.03333	6.01452E-003	5.78193E-003	5.63699E-004	...........
	4	1.29167	5.95359E-003	5.72047E-003	5.62266E-004	...........
	5	1.55	5.87826E-003	5.66378E-003	5.66932E-004	...........
	6	1.80833	5.80224E-003	5.61849E-003	5.71499E-004	...........
	7	2.06667	5.73392E-003	5.57927E-003	5.65332E-004	...........
	8	2.325	5.67568E-003	5.54101E-003	5.67232E-004	...........
	9	2.58333	5.62634E-003	5.50184E-003	5.69766E-004	...........
	10	2.84167	5.58323E-003	5.46796E-003	5.69766E-004	...........
	11	3.1	5.54394E-003	5.43897E-003	5.63699E-004	...........
	12	3.35833	5.50756E-003	5.41807E-003	5.64499E-004	...........
	13	3.61667	5.47465E-003	5.39756E-003	5.68799E-004	...........
	14	3.875	5.44589E-003	5.37407E-003	5.68866E-004	...........
	15	4.13333	5.42085E-003	5.35522E-003	5.66532E-004	...........
	16	4.39167	5.39838E-003	5.34094E-003	5.68166E-004	...........
	17	4.65	5.37784E-003	5.32547E-003	5.72432E-004	...........
	18	4.90833	5.35904E-003	5.30109E-003	5.68432E-004	...........
EOC	QUANT	0.005359	Open Circuit (V)
PSTATMODEL	IQUANT	4	Pstat Model
PSTATSECTION	LABEL	REF600-11020	Pstat Section
PSTATSERIALNO	LABEL	11020	Pstat Serial Number
CTRLMODE	IQUANT	1	Control Mode
IESTAB	IQUANT	0	I/E Stability
CASPEED	IQUANT	1	Control Amp Speed
CONVENTION	IQUANT	1	Current Convention
ICHRANGE	IQUANT	2	Ich Range
ICHRANGEMODE	TOGGLE	F	Ich Auto Range
ICHOFFSETENABLE	TOGGLE	T	Ich Offset Enable
ICHOFFSET	QUANT	0	Ich Offset (V)
ICHFILTER	IQUANT	3	Ich Filter
VCHRANGE	IQUANT	2	Vch Range
VCHRANGEMODE	TOGGLE	F	Vch Auto Range
VCHOFFSETENABLE	TOGGLE	T	Vch Offset Enable
VCHOFFSET	QUANT	0	Vch Offset (V)
VCHFILTER	IQUANT	3	Vch Filter
ACHRANGE	IQUANT	2	Ach Range
ACHOFFSETENABLE	TOGGLE	F	Ach Offset Enable
ACHOFFSET	QUANT	0	Ach Offset (V)
ACHFILTER	IQUANT	3	Ach Filter
IERANGELOWERLIMIT	IQUANT	1	I/E Range Lower Limit
IERANGEMODE	TOGGLE	F	I/E AutoRange
IERANGE	IQUANT	3	I/E Range
POSFEEDENABLE	TOGGLE	F	Positive Feedback IR Comp
POSFEEDRESISTANCE	QUANT	0	Positive Feedback Resistance (ohm)
ACHSELECT	IQUANT	0	Ach Select
CABLEID	IQUANT	14	Cable ID
DCCALDATE	LABEL	8/19/2019	DC Calibration Date
ACCALDATE	LABEL	8/19/2019	AC Calibration Date
THERMOSELECT	IQUANT	1	Thermo Select
FRAMEWORKVERSION	QUANT	6.33	Framework Version
INSTRUMENTVERSION	LABEL	3.50	Instrument Version
ZCURVE	TABLE
	Pt	Time	Freq	Zreal	Zimag	Zsig	Zmod	Zphz	Idc	Vdc	IERange
	#	s	Hz	ohm	ohm	V	ohm	°	A	V	#
	0	2	1000078	2507.56	-1645.044	1	2999.005	-33.26623	1.837158E-007	0.007868	8
	1	3	794390.6	2833.841	-1541.1	1	3225.778	-28.53824	-6.935841E-007	0.0071658	8
	2	5	630984.4	3115.276	-1403.756	1	3416.939	-24.25651	5.555328E-007	0.0069725	8
	3	6	501234.4	3336.122	-1248.546	1	3562.103	-20.51839	-7.014175E-007	0.0072672	8
	4	8	398109.4	3509.221	-1087.956	1	3674	-17.22489	4.387439E-007	0.0068027	8
	5	9	316265.6	3640.865	-928.4938	1	3757.392	-14.30664	1.175808E-007	0.0069638	8
	6	10	251203.1	3739.244	-804.4881	1	3824.807	-12.14194	1.255759E-007	0.006958	8
	7	12	199546.9	3807.427	-693.263	1	3870.028	-10.31946	-1.150902E-006	0.007223	8
	8	13	158578.1	3867.845	-605.7262	1	3914.988	-8.900547	-3.894462E-008	0.0069506	8
	9	14	125953.1	3929.613	-499.9742	1	3961.292	-7.250923	3.867855E-007	0.0055206	7
	10	16	100078.1	3956.396	-447.0298	1	3981.57	-6.446462	-3.517276E-008	0.006926	7
	11	17	79453.13	3988.224	-419.4784	1	4010.224	-6.00425	1.771327E-009	0.0068325	7
	12	18	63140.62	4022.216	-402.9584	1	4042.351	-5.720984	-3.355694E-008	0.0069248	7
	13	20	50203.12	4053.232	-392.2049	1	4072.163	-5.526933	-2.867816E-008	0.0068431	7
	14	21	39890.62	4084.444	-397.5021	1	4103.741	-5.558577	-7.362733E-009	0.0068327	7
	15	22	31640.63	4117.548	-410.4722	1	4137.957	-5.692922	8.76893E-008	0.0067169	7
	16	24	25171.88	4153.082	-434.4382	1	4175.743	-5.971776	9.054281E-008	0.0067202	7
	17	25	20015.62	4189.472	-466.9284	1	4215.412	-6.35953	3.265367E-008	0.0068038	7
	18	26	15890.62	4230.536	-514.0977	1	4261.658	-6.928652	-8.766059E-009	0.0068894	7
	19	28	12609.37	4272.562	-572.7338	1	4310.778	-7.634943	7.342172E-008	0.0067824	7
	20	29	10078.13	4320.62	-644.6617	1	4368.449	-8.486259	-9.500517E-009	0.0068895	7
	21	30	8015.625	4374.905	-731.0692	1	4435.567	-9.486765	-1.848301E-008	0.0068335	7
	22	32	6328.125	4433.739	-843.9233	1	4513.341	-10.77684	-1.444025E-008	0.0068748	7
	23	33	5015.625	4500.647	-981.469	1	4606.42	-12.30205	-9.381762E-009	0.0068887	7
	24	34	3984.375	4573.647	-1141.369	1	4713.913	-14.01215	-1.941906E-008	0.0068293	7
	25	35	3170.956	4651.777	-1338.352	1	4840.477	-16.05093	-1.549822E-008	0.006873	7
	26	37	2527.573	4748.555	-1575.163	1	5002.99	-18.35141	7.647994E-008	0.0067947	7
	27	38	1976.103	4862.166	-1884.846	1	5214.719	-21.1891	-4.626336E-008	0.006927	7
	28	39	1577.524	4981.69	-2229.626	1	5457.881	-24.11158	-5.738362E-008	0.0070201	7
	29	41	1265.625	5117.556	-2634.507	1	5755.867	-27.23931	-1.319947E-008	0.0068738	7
	30	42	998.264	5279.653	-3165.697	1	6156.003	-30.94704	8.996633E-008	0.0067203	7
	31	43	796.875	5463.449	-3778.039	1	6642.503	-34.66431	9.123286E-008	0.0067194	7
	32	45	627.7902	5688.284	-4570.212	1	7296.809	-38.7799	5.162082E-008	0.0067596	7
	33	46	505.5147	5914.91	-5431.989	1	8030.732	-42.56298	1.898179E-008	0.0067763	7
	34	47	397.9953	6230.732	-6610.16	1	9083.845	-46.6925	5.31411E-009	0.0068719	7
	35	49	315.5048	6583.054	-8002.367	1	10362.17	-50.55798	1.268206E-009	0.0068037	6
	36	50	252.4038	6979.475	-9633.12	1	11895.8	-54.07558	1.170943E-009	0.0067989	6
	37	51	198.6229	7487.287	-11774.01	1	13953.02	-57.54704	9.199762E-010	0.0067995	6
	38	53	158.3615	8063.288	-14254.36	1	16376.92	-60.50439	1.305193E-009	0.0068016	6
	39	54	125.558	8767.282	-17363.73	1	19451.59	-63.20992	1.019688E-009	0.0068015	6
	40	55	100.4464	9582.79	-21000.39	1	23083.46	-65.47209	1.342464E-009	0.0067989	6
	41	57	79.00281	10655.92	-25847.63	1	27957.98	-67.59565	1.214558E-009	0.0068011	6
	42	58	63.3446	11988.34	-31152.85	1	33379.94	-68.95213	7.620504E-010	0.0067978	6
	43	59	49.86702	13583.71	-38590.18	1	40911.11	-70.60798	1.187338E-009	0.0068	6
	44	61	39.72458	15619.19	-46853.97	1	49388.8	-71.56373	9.837976E-010	0.0067996	6
	45	62	31.6723	18193.82	-57151.58	1	59977.64	-72.34148	5.32735E-010	0.0067976	6
	46	63	24.93351	21809.76	-70184.2	1	73494.8	-72.73736	9.015786E-010	0.0067963	6
	47	65	19.86229	26216.49	-85318.42	1	89255.46	-72.91895	1.409417E-009	0.0068067	6
	48	66	15.83615	32569.41	-103315	1	108327.1	-72.50286	1.550627E-009	0.0068047	5
	49	68	12.40079	40771.44	-127201.1	1	133575.5	-72.22792	1.193759E-009	0.0068011	5
	50	69	9.93114	50176.07	-152211	1	160268	-71.75529	7.840943E-010	0.0068022	5
	51	71	7.944915	62752.33	-181971.8	1	192487.9	-70.97343	4.150177E-011	0.0067994	5
	52	72	6.317385	79058.64	-217946.5	1	231842.5	-70.0621	7.145832E-011	0.0068173	5
	53	74	5.008013	100307.5	-260064.5	1	278738.5	-68.90826	4.465895E-010	0.006809	5
	54	77	3.945707	127523.8	-310470.1	1	335639.7	-67.66988	4.297603E-010	0.0068021	5
	55	79	3.158693	158928.3	-363788	1	396988.6	-66.40089	3.192888E-010	0.0068245	5
	56	83	2.504006	199038.9	-427825.4	1	471859.1	-65.05054	1.211021E-010	0.0067906	5
	57	85	1.998082	245606.5	-497757.7	1	555054.3	-63.73708	-2.804666E-013	0.0067824	5
	58	88	1.584686	303671.8	-575938.6	1	651092.8	-62.19893	9.823604E-011	0.0068329	5
	59	92	1.266892	369780.1	-662413.3	1	758636	-60.82836	9.26492E-011	0.0067637	5
	60	96	0.999041	451331.8	-760943.6	1	884723.4	-59.32692	2.012432E-010	0.0068431	5
