EXPLAIN
TAG	EISPOT
TITLE	LABEL	Potentiostatic EIS	Test &Identifier
DATE	LABEL	10/20/2019	Date
TIME	LABEL	11:04:07	Time
NOTES	NOTES	1	&Notes...
	
PSTAT	PSTAT	REF600-11020	Potentiostat
VDC	POTEN	0.00000E+000	T	DC &Voltage (V)
FREQINIT	QUANT	1.00000E+006	Initial Fre&q. (Hz)
FREQFINAL	QUANT	1.00000E+000	Final Fre&q. (Hz)
PTSPERDEC	QUANT	1.00000E+001	Points/&decade
VAC	QUANT	2.50000E+001	AC &Voltage (mV rms)
AREA	QUANT	1.00000E-002	&Area (cm^2)
CONDIT	TWOPARAM	T	5.00000E+000	0.00000E+000	Conditionin&g	Time(s)	E(V)
DELAY	TWOPARAM	T	5.00000E+000	0.00000E+000	Init. De&lay	Time(s)	Stab.(mV/s)
SPEED	SELECTOR	1	&Optimize for:
ZGUESS	QUANT	1.00000E+005	E&stimated Z (ohms)
OCVCURVE	TABLE	19
	Pt	T	Vf	Vm	Ach	Over
	#	s	V vs. Ref.	V	V	bits
	0	0.258333	6.47292E-003	6.47292E-003	5.67699E-004	...........
	1	0.516667	6.47288E-003	6.47046E-003	5.66566E-004	...........
	2	0.775	6.47293E-003	6.48586E-003	5.63799E-004	...........
	3	1.03333	6.47462E-003	6.52308E-003	5.63566E-004	...........
	4	1.29167	6.48048E-003	6.49456E-003	5.61032E-004	...........
	5	1.55	6.49031E-003	6.53224E-003	5.60366E-004	...........
	6	1.80833	6.50202E-003	6.57315E-003	5.59766E-004	...........
	7	2.06667	6.51733E-003	6.61389E-003	5.62099E-004	...........
	8	2.325	6.54018E-003	6.63986E-003	5.65632E-004	...........
	9	2.58333	6.57031E-003	6.66743E-003	5.66099E-004	...........
	10	2.84167	6.60326E-003	6.69480E-003	5.70432E-004	...........
	11	3.1	6.63528E-003	6.73030E-003	5.66932E-004	...........
	12	3.35833	6.66585E-003	6.76357E-003	5.67899E-004	...........
	13	3.61667	6.69645E-003	6.79733E-003	5.67832E-004	...........
	14	3.875	6.72817E-003	6.83080E-003	5.59832E-004	...........
	15	4.13333	6.76112E-003	6.86942E-003	5.61999E-004	...........
	16	4.39167	6.79514E-003	6.90717E-003	5.69932E-004	...........
	17	4.65	6.83025E-003	6.93794E-003	5.72699E-004	...........
	18	4.90833	6.86587E-003	6.96836E-003	5.64432E-004	...........
EOC	QUANT	0.0068659	Open Circuit (V)
PSTATMODEL	IQUANT	4	Pstat Model
PSTATSECTION	LABEL	REF600-11020	Pstat Section
PSTATSERIALNO	LABEL	11020	Pstat Serial Number
CTRLMODE	IQUANT	1	Control Mode
IESTAB	IQUANT	0	I/E Stability
CASPEED	IQUANT	1	Control Amp Speed
CONVENTION	IQUANT	1	Current Convention
ICHRANGE	IQUANT	2	Ich Range
ICHRANGEMODE	TOGGLE	F	Ich Auto Range
ICHOFFSETENABLE	TOGGLE	T	Ich Offset Enable
ICHOFFSET	QUANT	0	Ich Offset (V)
ICHFILTER	IQUANT	3	Ich Filter
VCHRANGE	IQUANT	2	Vch Range
VCHRANGEMODE	TOGGLE	F	Vch Auto Range
VCHOFFSETENABLE	TOGGLE	T	Vch Offset Enable
VCHOFFSET	QUANT	0	Vch Offset (V)
VCHFILTER	IQUANT	3	Vch Filter
ACHRANGE	IQUANT	2	Ach Range
ACHOFFSETENABLE	TOGGLE	F	Ach Offset Enable
ACHOFFSET	QUANT	0	Ach Offset (V)
ACHFILTER	IQUANT	3	Ach Filter
IERANGELOWERLIMIT	IQUANT	1	I/E Range Lower Limit
IERANGEMODE	TOGGLE	F	I/E AutoRange
IERANGE	IQUANT	5	I/E Range
POSFEEDENABLE	TOGGLE	F	Positive Feedback IR Comp
POSFEEDRESISTANCE	QUANT	0	Positive Feedback Resistance (ohm)
ACHSELECT	IQUANT	0	Ach Select
CABLEID	IQUANT	14	Cable ID
DCCALDATE	LABEL	8/19/2019	DC Calibration Date
ACCALDATE	LABEL	8/19/2019	AC Calibration Date
THERMOSELECT	IQUANT	1	Thermo Select
FRAMEWORKVERSION	QUANT	6.33	Framework Version
INSTRUMENTVERSION	LABEL	3.50	Instrument Version
ZCURVE	TABLE
	Pt	Time	Freq	Zreal	Zimag	Zsig	Zmod	Zphz	Idc	Vdc	IERange
	#	s	Hz	ohm	ohm	V	ohm	°	A	V	#
	0	2	1000078	2534.865	-1860.259	1	3144.218	-36.27379	3.759033E-006	0.0081256	8
	1	3	794390.6	2916.785	-1835.267	1	3446.134	-32.17847	-1.892816E-006	0.0089061	8
	2	5	630984.4	3262.615	-1744.067	1	3699.517	-28.12722	-1.303947E-006	0.0088815	8
	3	6	501234.4	3576.239	-1623.369	1	3927.444	-24.41481	1.153296E-007	0.0083469	8
	4	8	398109.4	3835.666	-1457.651	1	4103.301	-20.80807	-3.277009E-006	0.0088392	8
	5	9	316265.6	4075.566	-1293.068	1	4275.777	-17.60284	-3.214059E-006	0.0090682	8
	6	11	251203.1	4240.612	-1116.541	1	4385.14	-14.75102	4.697721E-006	0.0075611	8
	7	12	199546.9	4380.547	-969.543	1	4486.558	-12.48004	-9.348439E-007	0.0086621	8
	8	14	158578.1	4451.934	-828.7636	1	4528.417	-10.54536	1.021614E-006	0.0081223	8
	9	15	125953.1	4573.641	-673.8407	1	4623.014	-8.381169	-7.130663E-007	0.0106783	7
	10	17	100078.1	4615.703	-570.1904	1	4650.789	-7.042227	1.438094E-007	0.0080985	7
	11	18	79453.13	4660.49	-508.9168	1	4688.194	-6.2319	8.703608E-008	0.0081201	7
	12	20	63140.62	4698.954	-463.3947	1	4721.748	-5.632102	-1.695466E-008	0.0084554	7
	13	21	50203.12	4731.673	-434.4832	1	4751.579	-5.246439	-5.399409E-008	0.0084038	7
	14	22	39890.62	4765.669	-415.4977	1	4783.748	-4.982768	-4.369581E-008	0.0083234	7
	15	24	31640.63	4797.401	-410.0893	1	4814.897	-4.885855	1.322602E-008	0.0082189	7
	16	25	25171.88	4830.627	-415.6936	1	4848.48	-4.918399	-4.046414E-008	0.0083196	7
	17	27	20015.62	4842.437	-435.1685	1	4861.951	-5.135125	-5.75602E-008	0.0084776	7
	18	28	15890.62	4894.864	-459.8934	1	4916.421	-5.367428	-1.525755E-008	0.0084537	7
	19	29	12609.37	4931.198	-499.556	1	4956.438	-5.784625	-3.912251E-009	0.0083152	7
	20	31	10078.13	4966.575	-550.2378	1	4996.962	-6.321914	-1.644521E-008	0.0082579	7
	21	32	8015.625	5016.31	-625.4668	1	5055.153	-7.107338	-1.858771E-008	0.0082656	7
	22	33	6328.125	5048.565	-715.3394	1	5098.992	-8.064648	-1.755474E-008	0.0083595	7
	23	35	5015.625	5091.433	-830.7453	1	5158.762	-9.267021	8.956923E-008	0.0081135	7
	24	36	3984.375	5142.156	-997.844	1	5238.078	-10.98186	1.242121E-008	0.0082192	7
	25	37	3170.956	5196.067	-1150.442	1	5321.901	-12.48425	-1.281662E-008	0.0082538	7
	26	39	2527.573	5258.557	-1365.681	1	5433.001	-14.55846	-1.428865E-008	0.0082565	7
	27	40	1976.103	5332.903	-1652.362	1	5583.023	-17.21522	-1.808764E-008	0.0083485	7
	28	42	1577.524	5390.784	-1935.127	1	5727.588	-19.74659	-8.824563E-008	0.0084325	7
	29	43	1265.625	5502.364	-2373.299	1	5992.375	-23.33167	-3.954473E-009	0.0083128	7
	30	44	998.264	5611.19	-2895.002	1	6313.992	-27.29074	4.386456E-008	0.0082459	7
	31	46	796.875	5736.028	-3492.471	1	6715.607	-31.3358	9.549984E-008	0.0082359	7
	32	47	627.7902	5885.954	-4297.393	1	7287.801	-36.13354	-5.770901E-008	0.0084748	7
	33	48	505.5147	6049.472	-5174.297	1	7960.494	-40.54137	4.307084E-008	0.0082476	7
	34	50	397.9953	6266.221	-6378.97	1	8941.855	-45.51085	5.494526E-009	0.0083051	7
	35	51	315.5048	6526.784	-7828.633	1	10192.47	-50.18181	1.949384E-009	0.0082506	6
	36	53	252.4038	6831.776	-9548.04	1	11740.46	-54.41568	2.022801E-009	0.0082456	6
	37	54	198.6229	7247.105	-11824.65	1	13868.78	-58.49666	8.857907E-010	0.0082411	6
	38	55	158.3615	7751.353	-14487.95	1	16431.2	-61.8523	-3.289351E-010	0.0082444	6
	39	57	125.558	8405.901	-17827.19	1	19709.59	-64.75513	1.037745E-009	0.0082448	6
	40	58	100.4464	9224.278	-21808.5	1	23679.06	-67.07323	7.98198E-010	0.0082432	6
	41	59	79.00281	10341.83	-26885.98	1	28806.42	-68.9605	1.730245E-009	0.008241	6
	42	61	63.3446	12133.52	-32348.58	1	34549.28	-69.43961	9.733288E-010	0.0082404	6
	43	62	49.86702	13925.43	-40849.2	1	43157.55	-71.17584	1.71983E-009	0.0082352	6
	44	64	39.72458	16326.24	-49379.15	1	52008.14	-71.70456	5.339364E-010	0.0082405	6
	45	65	31.6723	19429.43	-59672.32	1	62755.78	-71.96464	-9.033308E-011	0.0082377	6
	46	66	24.93351	24221.32	-73244.86	1	77145.84	-71.70148	6.872174E-011	0.0082354	6
	47	68	19.86229	29786.54	-88442.37	1	93323.58	-71.38697	-3.093576E-010	0.0082422	6
	48	69	15.83615	35506.64	-107002.4	1	112739.7	-71.64259	3.340458E-009	0.0082413	5
	49	71	12.40079	49049.49	-129216.8	1	138213	-69.21371	-8.663162E-010	0.0082468	5
	50	72	9.93114	59958.9	-153419.7	1	164720	-68.65364	5.850124E-010	0.0082437	5
	51	74	7.944915	76916.96	-180424	1	196135.3	-66.91086	1.162393E-009	0.0082471	5
	52	75	6.317385	96732.1	-213495.6	1	234387.4	-65.62534	1.954303E-011	0.0082602	5
	53	77	5.008013	122564.6	-249467.8	1	277950.1	-63.83492	5.609796E-011	0.0082376	5
	54	80	3.945707	154460.4	-290051.5	1	328615.1	-61.96347	4.755777E-010	0.0082471	5
	55	83	3.158693	189834.8	-331576.8	1	382073.8	-60.20794	-1.370691E-010	0.0082251	5
	56	86	2.504006	231902.4	-377287.7	1	442859.7	-58.42276	3.846851E-010	0.0082481	5
	57	89	1.998082	277272.8	-424755.8	1	507245.2	-56.86423	4.27656E-010	0.0082407	5
	58	92	1.584686	330007.7	-478026	1	580873.4	-55.38054	1.549808E-011	0.0081904	5
	59	95	1.266892	380649.1	-534222.3	1	655962.8	-54.52901	2.718236E-010	0.0082214	5
	60	100	0.999041	440153.6	-603830.3	1	747225.7	-53.91035	-1.958348E-010	0.008251	5
