EXPLAIN
TAG	EISPOT
TITLE	LABEL	Potentiostatic EIS	Test &Identifier
DATE	LABEL	10/4/2019	Date
TIME	LABEL	10:21:49	Time
NOTES	NOTES	2	&Notes...
	
	
PSTAT	PSTAT	REF600-11020	Potentiostat
VDC	POTEN	0.00000E+000	T	DC &Voltage (V)
FREQINIT	QUANT	1.00000E+006	Initial Fre&q. (Hz)
FREQFINAL	QUANT	1.00000E+000	Final Fre&q. (Hz)
PTSPERDEC	QUANT	1.00000E+001	Points/&decade
VAC	QUANT	2.50000E+001	AC &Voltage (mV rms)
AREA	QUANT	1.00000E-002	&Area (cm^2)
CONDIT	TWOPARAM	T	5.00000E+000	0.00000E+000	Conditionin&g	Time(s)	E(V)
DELAY	TWOPARAM	T	5.00000E+000	0.00000E+000	Init. De&lay	Time(s)	Stab.(mV/s)
SPEED	SELECTOR	1	&Optimize for:
ZGUESS	QUANT	1.00000E+004	E&stimated Z (ohms)
OCVCURVE	TABLE	19
	Pt	T	Vf	Vm	Ach	Over
	#	s	V vs. Ref.	V	V	bits
	0	0.258333	-4.35844E-005	-4.35844E-005	6.19731E-004	...........
	1	0.516667	-4.36092E-005	-4.48801E-005	6.19965E-004	...........
	2	0.775	-4.37115E-005	-4.35084E-005	6.06165E-004	...........
	3	1.03333	-4.38695E-005	-4.39501E-005	6.06598E-004	...........
	4	1.29167	-4.38979E-005	-4.01285E-005	6.08398E-004	...........
	5	1.55	-4.36147E-005	-4.48361E-005	6.17365E-004	...........
	6	1.80833	-4.31582E-005	-4.19541E-005	5.99899E-004	...........
	7	2.06667	-4.28866E-005	-4.45831E-005	6.06898E-004	...........
	8	2.325	-4.29420E-005	-4.32491E-005	6.13865E-004	...........
	9	2.58333	-4.32100E-005	-4.48271E-005	6.14265E-004	...........
	10	2.84167	-4.35395E-005	-4.32928E-005	6.13398E-004	...........
	11	3.1	-4.37970E-005	-4.39254E-005	6.19932E-004	...........
	12	3.35833	-4.39003E-005	-4.37941E-005	6.19698E-004	...........
	13	3.61667	-4.38887E-005	-4.40954E-005	6.12965E-004	...........
	14	3.875	-4.38561E-005	-4.32141E-005	6.13565E-004	...........
	15	4.13333	-4.38693E-005	-4.64960E-005	6.15532E-004	...........
	16	4.39167	-4.39840E-005	-4.18675E-005	6.11932E-004	...........
	17	4.65	-4.40612E-005	-4.15421E-005	6.05798E-004	...........
	18	4.90833	-4.37991E-005	-4.35938E-005	6.10232E-004	...........
EOC	QUANT	-4.37991E-005	Open Circuit (V)
PSTATMODEL	IQUANT	4	Pstat Model
PSTATSECTION	LABEL	REF600-11020	Pstat Section
PSTATSERIALNO	LABEL	11020	Pstat Serial Number
CTRLMODE	IQUANT	1	Control Mode
IESTAB	IQUANT	0	I/E Stability
CASPEED	IQUANT	1	Control Amp Speed
CONVENTION	IQUANT	1	Current Convention
ICHRANGE	IQUANT	2	Ich Range
ICHRANGEMODE	TOGGLE	F	Ich Auto Range
ICHOFFSETENABLE	TOGGLE	T	Ich Offset Enable
ICHOFFSET	QUANT	0	Ich Offset (V)
ICHFILTER	IQUANT	3	Ich Filter
VCHRANGE	IQUANT	2	Vch Range
VCHRANGEMODE	TOGGLE	F	Vch Auto Range
VCHOFFSETENABLE	TOGGLE	T	Vch Offset Enable
VCHOFFSET	QUANT	0	Vch Offset (V)
VCHFILTER	IQUANT	3	Vch Filter
ACHRANGE	IQUANT	2	Ach Range
ACHOFFSETENABLE	TOGGLE	F	Ach Offset Enable
ACHOFFSET	QUANT	0	Ach Offset (V)
ACHFILTER	IQUANT	3	Ach Filter
IERANGELOWERLIMIT	IQUANT	1	I/E Range Lower Limit
IERANGEMODE	TOGGLE	F	I/E AutoRange
IERANGE	IQUANT	3	I/E Range
POSFEEDENABLE	TOGGLE	F	Positive Feedback IR Comp
POSFEEDRESISTANCE	QUANT	0	Positive Feedback Resistance (ohm)
ACHSELECT	IQUANT	0	Ach Select
CABLEID	IQUANT	14	Cable ID
DCCALDATE	LABEL	8/19/2019	DC Calibration Date
ACCALDATE	LABEL	8/19/2019	AC Calibration Date
THERMOSELECT	IQUANT	1	Thermo Select
FRAMEWORKVERSION	QUANT	6.33	Framework Version
INSTRUMENTVERSION	LABEL	3.50	Instrument Version
ZCURVE	TABLE
	Pt	Time	Freq	Zreal	Zimag	Zsig	Zmod	Zphz	Idc	Vdc	IERange
	#	s	Hz	ohm	ohm	V	ohm	°	A	V	#
	0	2	1000078	37.69802	-9075.431	1	9075.509	-89.762	6.830472E-007	0.0029738	8
	1	3	794390.6	-287.1884	-11442.64	1	11446.24	-91.43771	5.652328E-007	0.0022095	8
	2	5	630984.4	-643.1318	-14249.15	1	14263.66	-92.58427	4.623927E-009	0.0019552	8
	3	7	501234.4	-1526.545	-18169.72	1	18233.73	-94.80247	-2.734378E-007	0.0018784	8
	4	8	398109.4	-2407.066	-23166.93	1	23291.64	-95.9318	-1.874271E-006	0.0022258	8
	5	10	316265.6	-4160.173	-29807.01	1	30095.93	-97.9455	2.987149E-007	0.0017033	8
	6	12	251203.1	-7163.431	-38496.06	1	39156.88	-100.5412	-2.129098E-006	0.0021295	8
	7	13	199546.9	-9253.41	-50136.93	1	50983.7	-100.457	9.980213E-007	0.0011338	8
	8	15	158578.1	-12054.27	-68446.79	1	69500.13	-99.988	8.123662E-007	0.0012974	8
	9	16	125953.1	4157.802	-67612.83	1	67740.55	-86.48107	-2.971395E-007	0.0020128	7
	10	18	100078.1	3195.607	-84653.39	1	84713.69	-87.83815	8.634745E-010	0.0014952	7
	11	20	79453.13	4282.799	-106161.6	1	106247.9	-87.68981	-4.158371E-008	0.0014692	7
	12	22	63140.62	5675.778	-133625.2	1	133745.7	-87.5678	-1.736245E-008	0.0015278	7
	13	23	50203.12	7406.631	-165885.6	1	166050.8	-87.4435	-6.735316E-008	0.0015812	7
	14	25	39890.62	10354.82	-208430.3	1	208687.3	-87.15588	1.002799E-007	0.0013362	7
	15	26	31640.63	13115.27	-260694	1	261023.7	-87.11993	4.888598E-008	0.0014119	7
	16	28	25171.88	18797.76	-324985.2	1	325528.4	-86.68959	2.214204E-008	0.0015139	7
	17	29	20015.62	17406.7	-405335.9	1	405709.5	-87.54101	1.112831E-007	0.0013188	7
	18	31	15890.62	27688.32	-504396.2	1	505155.5	-86.85796	1.022455E-007	0.0013668	7
	19	33	12609.37	41846.32	-618787.2	1	620200.5	-86.13119	5.089835E-009	0.001438	6
	20	34	10078.13	46768.37	-767428.3	1	768852	-86.51261	-1.146331E-008	0.0016766	6
	21	36	8015.625	71424.68	-950751	1	953430	-85.70375	4.244862E-009	0.0013756	6
	22	38	6328.125	87017.43	-1228819	1	1231896	-85.94942	-3.974957E-009	0.0015717	6
	23	39	5015.625	128219.4	-1531858	1	1537214	-85.21539	-1.298555E-008	0.0016865	6
	24	41	3984.375	183656	-1984875	1	1993354	-84.7136	-5.157342E-009	0.00159	6
	25	43	3170.956	241785.5	-2308753	1	2321379	-84.02146	1.500856E-008	0.0012353	6
	26	44	2527.573	325964.8	-2846547	1	2865150	-83.46738	1.3648E-009	0.001453	6
	27	46	1976.103	517215.1	-3663760	1	3700088	-81.96462	-9.305393E-009	0.0016858	6
	28	48	1577.524	797981.3	-4436236	1	4507434	-79.8028	2.107E-008	0.0011001	6
	29	50	1265.625	997852	-5569040	1	5657731	-79.84163	1.572653E-009	0.0011967	5
	30	51	998.264	1671206	-7148375	1	7341131	-76.84126	-4.680918E-010	0.0015868	5
	31	53	796.875	2358834	-8561070	1	8880091	-74.5955	-7.402662E-010	0.0015697	5
	32	54	627.7902	2590835	-1.013733E+007	1	1.046317E+007	-75.6636	1.649602E-009	0.0012081	5
	33	56	505.5147	4189687	-1.216276E+007	1	1.286415E+007	-70.99279	-1.015486E-010	0.0014883	5
	34	57	397.9953	6482796	-1.459094E+007	1	1.596628E+007	-66.04429	5.098934E-010	0.0015111	5
	35	59	315.5048	9056297	-1.778763E+007	1	1.996037E+007	-63.01779	9.13535E-010	0.0015102	5
	36	60	252.4038	1.178153E+007	-1.921637E+007	1	2.254049E+007	-58.48759	1.020635E-010	0.0015045	5
	37	61	198.6229	1.62452E+007	-2.250806E+007	1	2.775823E+007	-54.18011	5.386347E-010	0.001506	5
	38	63	158.3615	2.22093E+007	-2.457846E+007	1	3.312633E+007	-47.89876	3.836234E-011	0.0015069	5
	39	65	125.558	2.557946E+007	-2.216723E+007	1	3.384812E+007	-40.9123	8.415057E-010	0.0015018	4
	40	66	100.4464	2.716044E+007	-2.230154E+007	1	3.514325E+007	-39.38955	-9.301145E-010	0.0015083	4
	41	68	79.00281	1.919971E+007	-2.062494E+007	1	2.817831E+007	-47.0496	-7.644978E-012	0.0015023	4
	42	70	63.3446	864809.1	1.590278E+007	1	1.592627E+007	86.88726	2.188403E-010	0.0015016	4
	43	71	49.86702	4.039928E+007	-3.634397E+007	1	5.434138E+007	-41.97515	5.544535E-011	0.0015037	4
	44	73	39.72458	3.465384E+007	-7002558	1	3.535428E+007	-11.42402	1.179966E-010	0.0015096	4
	45	75	31.6723	3.179132E+007	1205795	1	3.181418E+007	2.172098	2.882023E-010	0.0015105	4
	46	76	24.93351	3.920526E+007	-7164879	1	3.985458E+007	-10.35668	1.734495E-010	0.0015092	4
	47	78	19.86229	6.534248E+007	-4069544	1	6.546908E+007	-3.563791	-1.120513E-010	0.0015044	4
	48	80	15.83615	6.078415E+007	-5.026514E+007	1	7.88752E+007	-39.58887	5.559576E-010	0.0015107	5
	49	81	12.40079	2171699	3.833965E+007	1	3.84011E+007	86.75802	5.189119E-010	0.0015129	5
	50	83	9.93114	3.872412E+007	-1.041565E+007	1	4.010041E+007	-15.05459	-5.399779E-010	0.00152	4
	51	85	7.944915	3.798768E+007	-1.862132E+007	1	4.230623E+007	-26.1138	-1.824393E-009	0.0015245	4
	52	87	6.317385	5.095559E+007	-4185301	1	5.112718E+007	-4.69552	4.793007E-011	0.001502	4
	53	90	5.008013	4.924469E+007	-2450735	1	4.930563E+007	-2.849059	6.764873E-011	0.0015201	4
	54	93	3.945707	4.692444E+007	-1851841	1	4.696096E+007	-2.259966	7.264338E-011	0.0015128	4
	55	96	3.158693	5.571413E+007	-1264509	1	5.572848E+007	-1.300183	3.187364E-011	0.0015104	4
	56	100	2.504006	5.600965E+007	-6810759	1	5.642222E+007	-6.933113	4.661627E-011	0.0015021	3
	57	104	1.998082	4.483032E+007	-1266771	1	4.484821E+007	-1.618577	1.914268E-010	0.0014508	3
	58	108	1.584686	5.536084E+007	-3807124	1	5.54916E+007	-3.933994	-4.954323E-011	0.0015179	3
	59	114	1.266892	5.380491E+007	-23144.6	1	5.380491E+007	-0.0246462	-1.421925E-011	0.0014672	3
	60	120	0.999041	5.652403E+007	-1.054842E+007	1	5.749987E+007	-10.57085	1.630057E-010	0.0015449	3
