EXPLAIN
TAG	EISPOT
TITLE	LABEL	Potentiostatic EIS	Test &Identifier
DATE	LABEL	10/24/2019	Date
TIME	LABEL	9:56:12	Time
NOTES	NOTES	1	&Notes...
	
PSTAT	PSTAT	REF600-11020	Potentiostat
VDC	POTEN	0.00000E+000	T	DC &Voltage (V)
FREQINIT	QUANT	1.00000E+006	Initial Fre&q. (Hz)
FREQFINAL	QUANT	1.00000E+000	Final Fre&q. (Hz)
PTSPERDEC	QUANT	1.00000E+001	Points/&decade
VAC	QUANT	2.50000E+001	AC &Voltage (mV rms)
AREA	QUANT	1.00000E-002	&Area (cm^2)
CONDIT	TWOPARAM	T	5.00000E+000	0.00000E+000	Conditionin&g	Time(s)	E(V)
DELAY	TWOPARAM	T	5.00000E+000	0.00000E+000	Init. De&lay	Time(s)	Stab.(mV/s)
SPEED	SELECTOR	1	&Optimize for:
ZGUESS	QUANT	1.00000E+005	E&stimated Z (ohms)
OCVCURVE	TABLE	19
	Pt	T	Vf	Vm	Ach	Over
	#	s	V vs. Ref.	V	V	bits
	0	0.258333	5.05644E-003	5.05644E-003	5.57999E-004	...........
	1	0.516667	5.05431E-003	4.94501E-003	5.50699E-004	...........
	2	0.775	5.04189E-003	4.87359E-003	5.51866E-004	...........
	3	1.03333	5.00914E-003	4.81578E-003	5.52466E-004	...........
	4	1.29167	4.95579E-003	4.76833E-003	5.56799E-004	...........
	5	1.55	4.89306E-003	4.74062E-003	5.53066E-004	...........
	6	1.80833	4.83373E-003	4.71427E-003	5.49266E-004	...........
	7	2.06667	4.78478E-003	4.68582E-003	5.51899E-004	...........
	8	2.325	4.74670E-003	4.67008E-003	5.51366E-004	...........
	9	2.58333	4.71682E-003	4.65400E-003	5.55199E-004	...........
	10	2.84167	4.69270E-003	4.63834E-003	5.55233E-004	...........
	11	3.1	4.67282E-003	4.62937E-003	5.57032E-004	...........
	12	3.35833	4.65797E-003	4.71082E-003	5.56766E-004	...........
	13	3.61667	4.65295E-003	4.69165E-003	5.59499E-004	...........
	14	3.875	4.65729E-003	4.52005E-003	5.53566E-004	...........
	15	4.13333	4.65620E-003	4.61979E-003	5.52266E-004	...........
	16	4.39167	4.63906E-003	4.59523E-003	5.54299E-004	...........
	17	4.65	4.61608E-003	4.58316E-003	5.57933E-004	...........
	18	4.90833	4.60033E-003	4.59099E-003	5.53933E-004	...........
EOC	QUANT	0.0046003	Open Circuit (V)
PSTATMODEL	IQUANT	4	Pstat Model
PSTATSECTION	LABEL	REF600-11020	Pstat Section
PSTATSERIALNO	LABEL	11020	Pstat Serial Number
CTRLMODE	IQUANT	1	Control Mode
IESTAB	IQUANT	0	I/E Stability
CASPEED	IQUANT	1	Control Amp Speed
CONVENTION	IQUANT	1	Current Convention
ICHRANGE	IQUANT	2	Ich Range
ICHRANGEMODE	TOGGLE	F	Ich Auto Range
ICHOFFSETENABLE	TOGGLE	T	Ich Offset Enable
ICHOFFSET	QUANT	0	Ich Offset (V)
ICHFILTER	IQUANT	3	Ich Filter
VCHRANGE	IQUANT	2	Vch Range
VCHRANGEMODE	TOGGLE	F	Vch Auto Range
VCHOFFSETENABLE	TOGGLE	T	Vch Offset Enable
VCHOFFSET	QUANT	0	Vch Offset (V)
VCHFILTER	IQUANT	3	Vch Filter
ACHRANGE	IQUANT	2	Ach Range
ACHOFFSETENABLE	TOGGLE	F	Ach Offset Enable
ACHOFFSET	QUANT	0	Ach Offset (V)
ACHFILTER	IQUANT	3	Ach Filter
IERANGELOWERLIMIT	IQUANT	1	I/E Range Lower Limit
IERANGEMODE	TOGGLE	F	I/E AutoRange
IERANGE	IQUANT	4	I/E Range
POSFEEDENABLE	TOGGLE	F	Positive Feedback IR Comp
POSFEEDRESISTANCE	QUANT	0	Positive Feedback Resistance (ohm)
ACHSELECT	IQUANT	0	Ach Select
CABLEID	IQUANT	14	Cable ID
DCCALDATE	LABEL	8/19/2019	DC Calibration Date
ACCALDATE	LABEL	8/19/2019	AC Calibration Date
THERMOSELECT	IQUANT	1	Thermo Select
FRAMEWORKVERSION	QUANT	6.33	Framework Version
INSTRUMENTVERSION	LABEL	3.50	Instrument Version
ZCURVE	TABLE
	Pt	Time	Freq	Zreal	Zimag	Zsig	Zmod	Zphz	Idc	Vdc	IERange
	#	s	Hz	ohm	ohm	V	ohm	°	A	V	#
	0	1	1000078	2485.751	-1884.416	1	3119.292	-37.1653	-5.265688E-007	0.0067687	8
	1	3	794390.6	2899.697	-1832.114	1	3429.998	-32.2859	8.454364E-007	0.0062018	8
	2	4	630984.4	3256.167	-1697.009	1	3671.847	-27.52708	-9.675945E-007	0.0065218	8
	3	5	501234.4	3529.497	-1533.397	1	3848.202	-23.48264	-1.668843E-006	0.0066161	8
	4	7	398109.4	3768.656	-1363.022	1	4007.567	-19.88371	-2.464529E-006	0.0066175	8
	5	8	316265.6	3954.493	-1181.473	1	4127.214	-16.63441	7.873964E-007	0.0058691	8
	6	10	251203.1	4086.198	-1036.975	1	4215.724	-14.23964	3.166208E-006	0.0055304	8
	7	11	199546.9	4197.76	-891.6492	1	4291.414	-11.992	2.671098E-006	0.0055711	8
	8	13	158578.1	4263.05	-777.1717	1	4333.312	-10.3318	2.720147E-006	0.0055633	8
	9	14	125953.1	4349.762	-624.3004	1	4394.335	-8.167609	-1.169251E-007	0.0069306	7
	10	15	100078.1	4399.738	-579.9167	1	4437.792	-7.508707	-2.193972E-008	0.0060242	7
	11	17	79453.13	4444.564	-541.477	1	4477.427	-6.946059	-3.367101E-008	0.0060623	7
	12	18	63140.62	4489.075	-518.0591	1	4518.869	-6.583066	-2.084738E-008	0.0060219	7
	13	19	50203.12	4531.723	-505.9621	1	4559.881	-6.370629	-2.094271E-008	0.0060901	7
	14	21	39890.62	4573.743	-509.9432	1	4602.083	-6.36184	-2.787333E-008	0.0060826	7
	15	22	31640.63	4619.67	-523.7811	1	4649.269	-6.468606	7.117608E-008	0.0059773	7
	16	23	25171.88	4668.159	-549.4684	1	4700.386	-6.713144	-2.537142E-008	0.0060207	7
	17	25	20015.62	4719.613	-602.538	1	4757.919	-7.275414	-4.585235E-008	0.0060712	7
	18	26	15890.62	4775.993	-639.5543	1	4818.625	-7.627116	-5.264701E-008	0.0061036	7
	19	27	12609.37	4836.901	-706.524	1	4888.229	-8.310398	-4.726347E-008	0.0061749	7
	20	29	10078.13	4900.652	-781.9965	1	4962.652	-9.066247	3.721591E-009	0.0060066	7
	21	30	8015.625	4965.086	-869.4681	1	5040.64	-9.93272	1.045822E-007	0.0058644	7
	22	32	6328.125	5052.587	-996.509	1	5149.919	-11.15711	-1.044596E-008	0.0060452	7
	23	33	5015.625	5133.044	-1139.255	1	5257.951	-12.51368	-1.215871E-008	0.0060463	7
	24	34	3984.375	5233.229	-1287.98	1	5389.396	-13.82659	1.227746E-008	0.0059487	7
	25	36	3170.956	5317.485	-1516.813	1	5529.59	-15.9208	-2.073645E-008	0.0060028	7
	26	37	2527.573	5420.912	-1771.88	1	5703.143	-18.10051	-1.529036E-008	0.0060434	7
	27	38	1976.103	5540.981	-2106.04	1	5927.721	-20.81101	3.783092E-008	0.0059706	7
	28	40	1577.524	5653.409	-2559.612	1	6205.855	-24.3589	1.23068E-008	0.0059456	7
	29	41	1265.625	5808.055	-2935.277	1	6507.638	-26.81113	-7.815617E-009	0.0060079	7
	30	43	998.264	5978.959	-3526.344	1	6941.401	-30.53178	1.27876E-008	0.0059513	7
	31	44	796.875	6159.829	-4219.061	1	7466.188	-34.40847	7.028728E-009	0.0059979	7
	32	45	627.7902	6381.109	-5111.895	1	8176.187	-38.69815	6.854553E-008	0.0058753	7
	33	47	505.5147	6605.143	-6109.618	1	8997.519	-42.76817	-6.322505E-008	0.0060974	7
	34	48	397.9953	6900.794	-7453.828	1	10157.78	-47.20632	1.437746E-009	0.0059783	6
	35	49	315.5048	7231.654	-9079.585	1	11607.57	-51.46359	7.923562E-010	0.0059758	6
	36	51	252.4038	7606.428	-11001.84	1	13375.29	-55.34089	1.262786E-009	0.0059716	6
	37	52	198.6229	8100.772	-13554.61	1	15790.82	-59.13578	8.986839E-010	0.0059811	6
	38	53	158.3615	8676.815	-16541.08	1	18678.72	-62.32022	7.185089E-010	0.005977	6
	39	55	125.558	9434.185	-20307.96	1	22392.35	-65.0825	9.611665E-010	0.0059783	6
	40	56	100.4464	10396.85	-24769.52	1	26863.05	-67.23009	6.124389E-010	0.0059758	6
	41	58	79.00281	11628.31	-30682.63	1	32812.21	-69.24396	2.585847E-011	0.0059706	6
	42	59	63.3446	12945.71	-36975.42	1	39176.18	-70.70399	2.669889E-010	0.0059694	6
	43	60	49.86702	15684.79	-45750.57	1	48364.53	-71.07661	5.567888E-010	0.0059711	6
	44	62	39.72458	18293.23	-55984.54	1	58897.46	-71.90494	4.663488E-010	0.0059733	6
	45	63	31.6723	22207.29	-68191.88	1	71716.78	-71.9617	1.030568E-009	0.0059715	6
	46	65	24.93351	27193.79	-83476.12	1	87793.88	-71.95609	3.367568E-010	0.0059668	6
	47	66	19.86229	33840.47	-100816.5	1	106344.5	-71.44495	-2.193155E-011	0.0059792	5
	48	67	15.83615	41610.18	-120231.4	1	127228.1	-70.91007	-5.92971E-010	0.0059798	5
	49	69	12.40079	54010.83	-148658.4	1	158166	-70.03281	-6.038866E-010	0.005977	5
	50	70	9.93114	67902.77	-174919.7	1	187637.1	-68.78409	3.054312E-010	0.0059759	5
	51	72	7.944915	87489.16	-205997.7	1	223806.6	-66.98862	-2.004599E-010	0.0059763	5
	52	73	6.317385	109635.6	-243035.5	1	266620	-65.71941	5.618687E-010	0.0059879	5
	53	76	5.008013	138621.1	-284687.8	1	316643.3	-64.03748	4.460957E-010	0.0059854	5
	54	78	3.945707	176017.4	-332543.5	1	376254.3	-62.10744	3.777274E-010	0.0059807	5
	55	81	3.158693	216915	-379783.7	1	437364.6	-60.26697	-9.553112E-012	0.0059783	5
	56	84	2.504006	266921.2	-433327.4	1	508939.6	-58.36774	5.144473E-010	0.005975	5
	57	87	1.998082	322323.3	-488236	1	585035.7	-56.56803	1.626923E-010	0.006021	5
	58	90	1.584686	384553.1	-548331.1	1	669737.3	-54.95742	1.469752E-010	0.0059484	5
	59	94	1.266892	450718.5	-610947.9	1	759213.1	-53.58246	2.744099E-010	0.0060019	5
	60	98	0.999041	527489.8	-685276.9	1	864783.2	-52.41284	-1.922132E-010	0.0059452	5
