EXPLAIN
TAG	EISPOT
TITLE	LABEL	Potentiostatic EIS	Test &Identifier
DATE	LABEL	10/18/2019	Date
TIME	LABEL	10:12:54	Time
NOTES	NOTES	1	&Notes...
	
PSTAT	PSTAT	REF600-11020	Potentiostat
VDC	POTEN	0.00000E+000	T	DC &Voltage (V)
FREQINIT	QUANT	1.00000E+006	Initial Fre&q. (Hz)
FREQFINAL	QUANT	1.00000E+000	Final Fre&q. (Hz)
PTSPERDEC	QUANT	1.00000E+001	Points/&decade
VAC	QUANT	2.50000E+001	AC &Voltage (mV rms)
AREA	QUANT	1.00000E-002	&Area (cm^2)
CONDIT	TWOPARAM	T	5.00000E+000	0.00000E+000	Conditionin&g	Time(s)	E(V)
DELAY	TWOPARAM	T	5.00000E+000	0.00000E+000	Init. De&lay	Time(s)	Stab.(mV/s)
SPEED	SELECTOR	0	&Optimize for:
ZGUESS	QUANT	1.00000E+005	E&stimated Z (ohms)
OCVCURVE	TABLE	19
	Pt	T	Vf	Vm	Ach	Over
	#	s	V vs. Ref.	V	V	bits
	0	0.258333	6.28124E-003	6.28124E-003	5.36866E-004	...........
	1	0.516667	6.28141E-003	6.28991E-003	5.35766E-004	...........
	2	0.775	6.28237E-003	6.29512E-003	5.37866E-004	...........
	3	1.03333	6.28498E-003	6.30485E-003	5.44099E-004	...........
	4	1.29167	6.29010E-003	6.33592E-003	5.43666E-004	...........
	5	1.55	6.29918E-003	6.36046E-003	5.37699E-004	...........
	6	1.80833	6.31382E-003	6.38335E-003	5.34099E-004	...........
	7	2.06667	6.33422E-003	6.42990E-003	5.34333E-004	...........
	8	2.325	6.35972E-003	6.46193E-003	5.38066E-004	...........
	9	2.58333	6.38990E-003	6.49768E-003	5.34266E-004	...........
	10	2.84167	6.42427E-003	6.56919E-003	5.38433E-004	...........
	11	3.1	6.46383E-003	6.63812E-003	5.37866E-004	...........
	12	3.35833	6.51111E-003	6.68892E-003	5.33133E-004	...........
	13	3.61667	6.56621E-003	6.75201E-003	5.41133E-004	...........
	14	3.875	6.62578E-003	6.81643E-003	5.31233E-004	...........
	15	4.13333	6.68637E-003	6.85210E-003	5.33466E-004	...........
	16	4.39167	6.74534E-003	6.90549E-003	5.32666E-004	...........
	17	4.65	6.80073E-003	6.95879E-003	5.31800E-004	...........
	18	4.90833	6.85240E-003	6.98831E-003	5.28566E-004	...........
EOC	QUANT	0.0068524	Open Circuit (V)
PSTATMODEL	IQUANT	4	Pstat Model
PSTATSECTION	LABEL	REF600-11020	Pstat Section
PSTATSERIALNO	LABEL	11020	Pstat Serial Number
CTRLMODE	IQUANT	1	Control Mode
IESTAB	IQUANT	0	I/E Stability
CASPEED	IQUANT	1	Control Amp Speed
CONVENTION	IQUANT	1	Current Convention
ICHRANGE	IQUANT	2	Ich Range
ICHRANGEMODE	TOGGLE	F	Ich Auto Range
ICHOFFSETENABLE	TOGGLE	T	Ich Offset Enable
ICHOFFSET	QUANT	0	Ich Offset (V)
ICHFILTER	IQUANT	3	Ich Filter
VCHRANGE	IQUANT	2	Vch Range
VCHRANGEMODE	TOGGLE	F	Vch Auto Range
VCHOFFSETENABLE	TOGGLE	T	Vch Offset Enable
VCHOFFSET	QUANT	0	Vch Offset (V)
VCHFILTER	IQUANT	3	Vch Filter
ACHRANGE	IQUANT	2	Ach Range
ACHOFFSETENABLE	TOGGLE	F	Ach Offset Enable
ACHOFFSET	QUANT	0	Ach Offset (V)
ACHFILTER	IQUANT	3	Ach Filter
IERANGELOWERLIMIT	IQUANT	1	I/E Range Lower Limit
IERANGEMODE	TOGGLE	F	I/E AutoRange
IERANGE	IQUANT	5	I/E Range
POSFEEDENABLE	TOGGLE	F	Positive Feedback IR Comp
POSFEEDRESISTANCE	QUANT	0	Positive Feedback Resistance (ohm)
ACHSELECT	IQUANT	0	Ach Select
CABLEID	IQUANT	14	Cable ID
DCCALDATE	LABEL	8/19/2019	DC Calibration Date
ACCALDATE	LABEL	8/19/2019	AC Calibration Date
THERMOSELECT	IQUANT	1	Thermo Select
FRAMEWORKVERSION	QUANT	6.33	Framework Version
INSTRUMENTVERSION	LABEL	3.50	Instrument Version
ZCURVE	TABLE
	Pt	Time	Freq	Zreal	Zimag	Zsig	Zmod	Zphz	Idc	Vdc	IERange
	#	s	Hz	ohm	ohm	V	ohm	°	A	V	#
	0	1	1000078	2573.111	-1132.4	1	2811.268	-23.75381	4.9805E-006	0.0078998	8
	1	1	794390.6	2749.813	-1031.348	1	2936.861	-20.55911	3.322925E-006	0.0077181	8
	2	2	630984.4	2898.547	-906.6392	1	3037.033	-17.36921	8.781463E-007	0.0079957	8
	3	2	501234.4	3010.293	-804.4712	1	3115.933	-14.96209	-4.137397E-007	0.0085927	8
	4	2	398109.4	3113.571	-695.0527	1	3190.207	-12.584	-3.133146E-006	0.0090345	8
	5	3	316265.6	3191.212	-619.3782	1	3250.763	-10.9839	3.087666E-006	0.0077908	8
	6	3	251203.1	3235.374	-539.6952	1	3280.078	-9.470355	2.268845E-006	0.0078595	8
	7	3	199546.9	3281.29	-483.1064	1	3316.664	-8.375521	9.715745E-007	0.0080874	8
	8	4	158578.1	3324.269	-449.5228	1	3354.524	-7.701084	-2.994674E-006	0.0090031	8
	9	4	125953.1	3373.84	-368.8192	1	3393.939	-6.23865	4.791486E-007	0.0071128	7
	10	4	100078.1	3410.932	-356.3792	1	3429.499	-5.964706	-5.879691E-009	0.0083536	7
	11	5	79453.13	3446.847	-357.5146	1	3465.339	-5.92167	-3.778564E-008	0.0083651	7
	12	5	63140.62	3485.114	-364.9113	1	3504.166	-5.977414	-3.59807E-008	0.0083423	7
	13	5	50203.12	3525.896	-374.7697	1	3545.757	-6.067225	-3.985776E-008	0.008361	7
	14	6	39890.62	3569.326	-389.6763	1	3590.534	-6.230513	-9.700512E-009	0.0083594	7
	15	6	31640.63	3614.127	-409.3654	1	3637.237	-6.462243	-1.203838E-008	0.0084518	7
	16	6	25171.88	3661.673	-435.2629	1	3687.452	-6.778937	3.537747E-008	0.0082825	7
	17	7	20015.62	3722.683	-453.6788	1	3750.226	-6.948303	-1.380265E-008	0.008454	7
	18	7	15890.62	3759.508	-500.5733	1	3792.687	-7.584245	-1.64468E-008	0.008365	7
	19	7	12609.37	3812.685	-548.728	1	3851.969	-8.189866	-4.526788E-008	0.008342	7
	20	7	10078.13	3866.207	-601.672	1	3912.744	-8.845605	-4.047196E-008	0.0083389	7
	21	8	8015.625	3930.699	-660.2794	1	3985.77	-9.53553	4.129235E-008	0.008181	7
	22	8	6328.125	3982.995	-752.177	1	4053.396	-10.6942	-2.032231E-008	0.008369	7
	23	8	5015.625	4045.546	-854.4817	1	4134.801	-11.92646	-1.031471E-008	0.0083569	7
	24	9	3984.375	4101.319	-967.653	1	4213.926	-13.27542	3.915298E-008	0.0081862	7
	25	9	3170.956	4178.228	-1128.998	1	4328.074	-15.12077	-1.212432E-008	0.0084379	7
	26	9	2527.573	4247.448	-1313.138	1	4445.801	-17.17948	4.072977E-008	0.0081747	7
	27	10	1976.103	4332.906	-1564.158	1	4606.589	-19.84933	-3.469146E-008	0.0083229	7
	28	10	1577.524	4411.867	-1813.824	1	4770.17	-22.34874	-1.873303E-008	0.0083658	7
	29	10	1265.625	4491.971	-2195.903	1	4999.979	-26.05173	-9.314556E-009	0.0083284	7
	30	11	998.264	4596.898	-2660.123	1	5311.095	-30.05702	-9.003765E-009	0.0083265	7
	31	11	796.875	4709.132	-3205.632	1	5696.666	-34.24416	-9.772463E-009	0.0083503	7
	32	11	627.7902	4855.246	-3922.518	1	6241.759	-38.93449	-2.327306E-008	0.0082888	7
	33	12	505.5147	5012.203	-4728.477	1	6890.622	-43.33156	1.262187E-007	0.008103	7
	34	12	397.9953	5229.779	-5820.512	1	7824.893	-48.06004	2.036247E-009	0.0083208	7
	35	12	315.5048	5494.465	-7136.364	1	9006.488	-52.40643	3.138797E-009	0.0083185	7
	36	13	252.4038	5814.944	-8683.48	1	10450.67	-56.19152	1.690126E-009	0.0082578	6
	37	13	198.6229	6255.938	-10729.13	1	12419.78	-59.7544	1.026395E-009	0.0082589	6
	38	13	158.3615	6791.665	-13104.97	1	14760.32	-62.60451	1.402763E-009	0.0082567	6
	39	14	125.558	7515.794	-16077.34	1	17747.34	-64.94497	4.255226E-010	0.0082594	6
	40	14	100.4464	8379.74	-19562.21	1	21281.46	-66.81147	-6.495228E-010	0.0082589	6
	41	14	79.00281	9648.22	-24039.29	1	25903.2	-68.13184	-8.89869E-010	0.0082608	6
	42	15	63.3446	11602.25	-29368.74	1	31577.44	-68.44328	6.901666E-010	0.0082571	6
	43	15	49.86702	13674.04	-36003.83	1	38513.05	-69.20351	8.849566E-010	0.008252	6
	44	15	39.72458	16405.51	-43169.17	1	46181.36	-69.19178	5.595227E-010	0.0082562	6
	45	16	31.6723	19972.29	-51750.77	1	55471.02	-68.89679	8.787591E-010	0.008254	6
	46	16	24.93351	25219.19	-62883.68	1	67752.23	-68.147	1.963536E-010	0.0082529	6
	47	16	19.86229	31526.31	-74800.15	1	81172.48	-67.14585	1.497631E-010	0.0082574	6
	48	16	15.83615	40394.05	-89427.58	1	98127.3	-65.69151	-2.950317E-009	0.0082536	6
	49	17	12.40079	51882.93	-105052.4	1	117165.9	-63.71632	9.584947E-010	0.0082565	5
	50	17	9.93114	62521.13	-120549.8	1	135798.2	-62.58725	2.530749E-010	0.0082645	5
	51	18	7.944915	76682.7	-137747.9	1	157653.8	-60.8958	8.591904E-010	0.0082534	5
	52	18	6.317385	93068.03	-156944.8	1	182464.5	-59.33212	3.52407E-010	0.0082505	5
	53	19	5.008013	111181.8	-178383.8	1	210195.6	-58.06584	-1.840178E-010	0.0082528	5
	54	20	3.945707	131208.9	-203009.9	1	241720.5	-57.12469	1.683719E-010	0.0082642	5
	55	22	3.158693	151036.3	-229657.5	1	274871.9	-56.66872	-1.710139E-010	0.0082624	5
	56	23	2.504006	172790.7	-262364.1	1	314152.1	-56.63145	-1.925091E-010	0.0082558	5
	57	25	1.998082	195690.2	-299962.9	1	358151.3	-56.88031	1.140982E-010	0.0083	5
	58	26	1.584686	220195.8	-347200.2	1	411137.7	-57.61696	2.547756E-011	0.0082806	5
	59	28	1.266892	247822.7	-401443.1	1	471776.1	-58.31174	-7.904964E-011	0.0082355	5
	60	31	0.999041	282119.3	-472069.9	1	549946.6	-59.13653	-8.10939E-011	0.0082193	5
