EXPLAIN
TAG	EISPOT
TITLE	LABEL	Potentiostatic EIS	Test &Identifier
DATE	LABEL	10/4/2019	Date
TIME	LABEL	10:10:03	Time
NOTES	NOTES	2	&Notes...
	
	
PSTAT	PSTAT	REF600-11020	Potentiostat
VDC	POTEN	0.00000E+000	T	DC &Voltage (V)
FREQINIT	QUANT	1.00000E+006	Initial Fre&q. (Hz)
FREQFINAL	QUANT	1.00000E+000	Final Fre&q. (Hz)
PTSPERDEC	QUANT	1.00000E+001	Points/&decade
VAC	QUANT	2.50000E+001	AC &Voltage (mV rms)
AREA	QUANT	1.00000E-002	&Area (cm^2)
CONDIT	TWOPARAM	T	5.00000E+000	0.00000E+000	Conditionin&g	Time(s)	E(V)
DELAY	TWOPARAM	T	5.00000E+000	0.00000E+000	Init. De&lay	Time(s)	Stab.(mV/s)
SPEED	SELECTOR	1	&Optimize for:
ZGUESS	QUANT	1.00000E+004	E&stimated Z (ohms)
OCVCURVE	TABLE	19
	Pt	T	Vf	Vm	Ach	Over
	#	s	V vs. Ref.	V	V	bits
	0	0.258333	-4.41093E-003	-4.41093E-003	5.63766E-004	...........
	1	0.516667	-4.38791E-003	-3.20620E-003	5.68032E-004	...........
	2	0.775	-4.25160E-003	-2.32659E-003	5.65999E-004	...........
	3	1.03333	-3.90259E-003	-2.52670E-003	5.72032E-004	...........
	4	1.29167	-3.38591E-003	-2.11395E-003	5.67232E-004	...........
	5	1.55	-2.86812E-003	-1.73529E-003	5.72466E-004	...........
	6	1.80833	-2.45027E-003	-1.66248E-003	5.66266E-004	...........
	7	2.06667	-2.12501E-003	-1.41709E-003	5.63599E-004	...........
	8	2.325	-1.86339E-003	-1.28981E-003	5.63899E-004	...........
	9	2.58333	-1.64963E-003	-1.23892E-003	5.66766E-004	...........
	10	2.84167	-1.47844E-003	-1.23079E-003	5.61166E-004	...........
	11	3.1	-1.35163E-003	-1.11291E-003	5.63766E-004	...........
	12	3.35833	-1.26001E-003	-9.10382E-004	5.66732E-004	...........
	13	3.61667	-1.17621E-003	-8.48555E-004	5.69999E-004	...........
	14	3.875	-1.07834E-003	-7.44575E-004	5.71399E-004	...........
	15	4.13333	-9.69429E-004	-7.05402E-004	5.69266E-004	...........
	16	4.39167	-8.65999E-004	-6.44293E-004	5.64466E-004	...........
	17	4.65	-7.78312E-004	-5.54165E-004	5.64266E-004	...........
	18	4.90833	-7.04766E-004	-5.26033E-004	5.66799E-004	...........
EOC	QUANT	-0.0007048	Open Circuit (V)
PSTATMODEL	IQUANT	4	Pstat Model
PSTATSECTION	LABEL	REF600-11020	Pstat Section
PSTATSERIALNO	LABEL	11020	Pstat Serial Number
CTRLMODE	IQUANT	1	Control Mode
IESTAB	IQUANT	0	I/E Stability
CASPEED	IQUANT	1	Control Amp Speed
CONVENTION	IQUANT	1	Current Convention
ICHRANGE	IQUANT	2	Ich Range
ICHRANGEMODE	TOGGLE	F	Ich Auto Range
ICHOFFSETENABLE	TOGGLE	T	Ich Offset Enable
ICHOFFSET	QUANT	0	Ich Offset (V)
ICHFILTER	IQUANT	3	Ich Filter
VCHRANGE	IQUANT	2	Vch Range
VCHRANGEMODE	TOGGLE	F	Vch Auto Range
VCHOFFSETENABLE	TOGGLE	T	Vch Offset Enable
VCHOFFSET	QUANT	0	Vch Offset (V)
VCHFILTER	IQUANT	3	Vch Filter
ACHRANGE	IQUANT	2	Ach Range
ACHOFFSETENABLE	TOGGLE	F	Ach Offset Enable
ACHOFFSET	QUANT	0	Ach Offset (V)
ACHFILTER	IQUANT	3	Ach Filter
IERANGELOWERLIMIT	IQUANT	1	I/E Range Lower Limit
IERANGEMODE	TOGGLE	F	I/E AutoRange
IERANGE	IQUANT	5	I/E Range
POSFEEDENABLE	TOGGLE	F	Positive Feedback IR Comp
POSFEEDRESISTANCE	QUANT	0	Positive Feedback Resistance (ohm)
ACHSELECT	IQUANT	0	Ach Select
CABLEID	IQUANT	14	Cable ID
DCCALDATE	LABEL	8/19/2019	DC Calibration Date
ACCALDATE	LABEL	8/19/2019	AC Calibration Date
THERMOSELECT	IQUANT	1	Thermo Select
FRAMEWORKVERSION	QUANT	6.33	Framework Version
INSTRUMENTVERSION	LABEL	3.50	Instrument Version
ZCURVE	TABLE
	Pt	Time	Freq	Zreal	Zimag	Zsig	Zmod	Zphz	Idc	Vdc	IERange
	#	s	Hz	ohm	ohm	V	ohm	°	A	V	#
	0	2	1000078	2269.082	-1062.139	1	2505.369	-25.08391	1.373348E-006	0.001053	8
	1	3	794390.6	2437.228	-971.937	1	2623.879	-21.74151	-5.098063E-006	0.0020203	8
	2	4	630984.4	2581.128	-869.1818	1	2723.545	-18.61069	2.046537E-006	0.0009695	8
	3	6	501234.4	2701.112	-775.313	1	2810.18	-16.01532	1.440097E-006	0.0005688	8
	4	7	398109.4	2787.824	-691.2495	1	2872.244	-13.92581	-9.625772E-007	0.0011851	8
	5	8	316265.6	2863.61	-616.6767	1	2929.258	-12.15301	3.368397E-006	0.0002086	8
	6	10	251203.1	2922.402	-558.9673	1	2975.379	-10.82817	-1.799936E-006	0.0011325	8
	7	11	199546.9	2973.519	-514.3127	1	3017.67	-9.81304	7.491643E-007	0.0007979	8
	8	12	158578.1	3014.683	-479.679	1	3052.606	-9.040787	7.324535E-007	0.0007776	8
	9	14	125953.1	3077.345	-432.1188	1	3107.536	-7.993176	-9.016137E-007	0.0020868	7
	10	15	100078.1	3114.034	-421.638	1	3142.449	-7.710915	-4.808859E-008	0.0008426	7
	11	16	79453.13	3156.453	-431.7691	1	3185.847	-7.78911	3.75231E-008	0.000655	7
	12	18	63140.62	3202.799	-448.8101	1	3234.092	-7.976947	-3.764032E-008	0.0008524	7
	13	19	50203.12	3251.62	-471.2267	1	3285.587	-8.245932	8.855141E-009	0.000845	7
	14	21	39890.62	3305.488	-501.1635	1	3343.264	-8.621274	-6.010975E-009	0.0007588	7
	15	22	31640.63	3362.975	-538.1637	1	3405.763	-9.091733	4.858708E-008	0.0006882	7
	16	23	25171.88	3425.723	-581.2251	1	3474.68	-9.62938	8.109311E-008	0.0006968	7
	17	25	20015.62	3494.69	-632.5614	1	3551.477	-10.25982	-6.127476E-008	0.0008516	7
	18	26	15890.62	3567.257	-691.6678	1	3633.693	-10.97312	-6.16826E-008	0.0008461	7
	19	27	12609.37	3647.049	-760.7544	1	3725.549	-11.78263	4.140361E-009	0.0007484	7
	20	29	10078.13	3727.656	-837.1313	1	3820.498	-12.6571	-7.312729E-009	0.0007178	7
	21	30	8015.625	3814.997	-927.9517	1	3926.232	-13.67102	7.163242E-008	0.0006174	7
	22	31	6328.125	3909.822	-1041.339	1	4046.121	-14.9139	1.012833E-007	0.000612	7
	23	33	5015.625	4009.089	-1173.087	1	4177.191	-16.30983	-6.182641E-008	0.0008428	7
	24	34	3984.375	4112.814	-1328.44	1	4322.036	-17.90047	2.905855E-009	0.0007403	7
	25	35	3170.956	4218.745	-1514.007	1	4482.189	-19.74185	-7.64715E-009	0.0007431	7
	26	37	2527.573	4328.84	-1738.251	1	4664.801	-21.87799	3.504147E-008	0.0007186	7
	27	38	1976.103	4453.078	-2040.943	1	4898.505	-24.62302	1.675618E-008	0.0006817	7
	28	39	1577.524	4567.048	-2383.11	1	5151.421	-27.55579	4.932158E-008	0.0006758	7
	29	41	1265.625	4691.505	-2798.291	1	5462.66	-30.81435	1.827824E-008	0.0006847	7
	30	42	998.264	4831.226	-3354.823	1	5881.801	-34.77627	1.033206E-007	0.0006175	7
	31	43	796.875	4978.577	-4015.438	1	6396.09	-38.88768	-4.796982E-008	0.0008495	7
	32	45	627.7902	5156.225	-4886.007	1	7103.5	-43.45865	-3.57034E-008	0.0008405	7
	33	46	505.5147	5351.286	-5866.395	1	7940.457	-47.62914	5.740771E-009	0.0007413	7
	34	47	397.9953	5605.56	-7200.125	1	9124.917	-52.09794	4.868042E-009	0.0007843	7
	35	49	315.5048	5910.871	-8810.374	1	10609.48	-56.14238	9.675332E-010	0.0007203	6
	36	50	252.4038	6269.485	-10714.72	1	12414.17	-59.66689	5.991877E-010	0.0007256	6
	37	52	198.6229	6751.883	-13239.27	1	14861.57	-62.97892	8.529724E-010	0.0007203	6
	38	53	158.3615	7329.446	-16179.89	1	17762.59	-65.62961	5.008529E-010	0.0007174	6
	39	54	125.558	8085.665	-19873.87	1	21455.73	-67.86109	8.557755E-010	0.0007206	6
	40	56	100.4464	9028.218	-24210.91	1	25839.45	-69.54958	7.64923E-010	0.000717	6
	41	57	79.00281	10297.72	-29954.47	1	31675.13	-71.0281	8.559161E-010	0.0007172	6
	42	58	63.3446	11809.44	-36496.81	1	38359.88	-72.06974	5.270187E-010	0.0007163	6
	43	60	49.86702	13926.07	-44737.81	1	46855.17	-72.70958	4.57949E-010	0.0007189	6
	44	61	39.72458	16723.94	-54516.84	1	57024.35	-72.94574	4.079428E-010	0.0007209	6
	45	63	31.6723	20106.05	-66289.38	1	69271.45	-73.12706	8.691632E-010	0.0007171	6
	46	64	24.93351	24950.64	-81191.13	1	84938.41	-72.91741	5.886637E-010	0.0007157	6
	47	65	19.86229	30899.14	-98186.3	1	102933.5	-72.53126	1.955511E-010	0.0007244	6
	48	67	15.83615	38107.5	-118242.3	1	124231.4	-72.13674	3.318558E-011	0.000723	5
	49	68	12.40079	49455.64	-144014.4	1	152269.5	-71.04713	-2.695774E-010	0.0007258	5
	50	69	9.93114	61883.73	-171831.9	1	182635.7	-70.19396	-2.532252E-011	0.0007273	5
	51	71	7.944915	77997.25	-204056.7	1	218455.3	-69.08148	1.272869E-010	0.0007195	5
	52	73	6.317385	98819.8	-241411.1	1	260853.7	-67.73863	4.233747E-010	0.0007143	5
	53	75	5.008013	125192.1	-285019.6	1	311302.5	-66.28697	1.999463E-010	0.0007295	5
	54	77	3.945707	158120.5	-334970.3	1	370415	-64.73065	6.936071E-011	0.0007225	5
	55	80	3.158693	195271.3	-384704	1	431425.7	-63.08817	3.68054E-010	0.0007137	5
	56	83	2.504006	240085.5	-460173.9	1	519038.6	-62.4477	-1.189762E-009	0.0007294	5
	57	86	1.998082	273852.8	-501745.5	1	571615.1	-61.37428	2.077939E-009	0.0007118	5
	58	90	1.584686	336239.4	-594755.4	1	683221	-60.51876	1.024972E-010	0.0006718	5
	59	95	1.266892	402675.1	-661840.8	1	774713.2	-58.68296	2.350545E-011	0.0007132	5
	60	100	0.999041	472000.7	-769766.3	1	902953.4	-58.48446	-5.558861E-011	0.0006982	5
