EXPLAIN
TAG	EISPOT
TITLE	LABEL	Potentiostatic EIS	Test &Identifier
DATE	LABEL	10/24/2019	Date
TIME	LABEL	8:51:00	Time
NOTES	NOTES	1	&Notes...
	
PSTAT	PSTAT	REF600-11020	Potentiostat
VDC	POTEN	0.00000E+000	T	DC &Voltage (V)
FREQINIT	QUANT	1.00000E+006	Initial Fre&q. (Hz)
FREQFINAL	QUANT	1.00000E+000	Final Fre&q. (Hz)
PTSPERDEC	QUANT	1.00000E+001	Points/&decade
VAC	QUANT	2.50000E+001	AC &Voltage (mV rms)
AREA	QUANT	1.00000E-002	&Area (cm^2)
CONDIT	TWOPARAM	T	5.00000E+000	0.00000E+000	Conditionin&g	Time(s)	E(V)
DELAY	TWOPARAM	T	5.00000E+000	0.00000E+000	Init. De&lay	Time(s)	Stab.(mV/s)
SPEED	SELECTOR	1	&Optimize for:
ZGUESS	QUANT	1.00000E+005	E&stimated Z (ohms)
OCVCURVE	TABLE	19
	Pt	T	Vf	Vm	Ach	Over
	#	s	V vs. Ref.	V	V	bits
	0	0.258333	5.80865E-003	5.80865E-003	5.59099E-004	...........
	1	0.516667	5.80809E-003	5.77955E-003	5.62232E-004	...........
	2	0.775	5.80522E-003	5.78055E-003	5.67366E-004	...........
	3	1.03333	5.79832E-003	5.74946E-003	5.63732E-004	...........
	4	1.29167	5.78509E-003	5.63009E-003	5.63466E-004	...........
	5	1.55	5.75726E-003	5.47784E-003	5.66466E-004	...........
	6	1.80833	5.70568E-003	5.57257E-003	5.67899E-004	...........
	7	2.06667	5.64124E-003	5.62418E-003	5.66366E-004	...........
	8	2.325	5.59395E-003	5.60451E-003	5.66299E-004	...........
	9	2.58333	5.58018E-003	5.61948E-003	5.66899E-004	...........
	10	2.84167	5.58897E-003	5.61777E-003	5.71132E-004	...........
	11	3.1	5.60299E-003	5.64085E-003	5.64699E-004	...........
	12	3.35833	5.61505E-003	5.64865E-003	5.67499E-004	...........
	13	3.61667	5.62560E-003	5.65223E-003	5.66032E-004	...........
	14	3.875	5.63576E-003	5.66585E-003	5.68932E-004	...........
	15	4.13333	5.64543E-003	5.67354E-003	5.64532E-004	...........
	16	4.39167	5.65465E-003	5.68024E-003	5.59699E-004	...........
	17	4.65	5.66375E-003	5.69978E-003	5.58966E-004	...........
	18	4.90833	5.67345E-003	5.71328E-003	5.62332E-004	...........
EOC	QUANT	0.0056734	Open Circuit (V)
PSTATMODEL	IQUANT	4	Pstat Model
PSTATSECTION	LABEL	REF600-11020	Pstat Section
PSTATSERIALNO	LABEL	11020	Pstat Serial Number
CTRLMODE	IQUANT	1	Control Mode
IESTAB	IQUANT	0	I/E Stability
CASPEED	IQUANT	1	Control Amp Speed
CONVENTION	IQUANT	1	Current Convention
ICHRANGE	IQUANT	2	Ich Range
ICHRANGEMODE	TOGGLE	F	Ich Auto Range
ICHOFFSETENABLE	TOGGLE	T	Ich Offset Enable
ICHOFFSET	QUANT	0	Ich Offset (V)
ICHFILTER	IQUANT	3	Ich Filter
VCHRANGE	IQUANT	2	Vch Range
VCHRANGEMODE	TOGGLE	F	Vch Auto Range
VCHOFFSETENABLE	TOGGLE	T	Vch Offset Enable
VCHOFFSET	QUANT	0	Vch Offset (V)
VCHFILTER	IQUANT	3	Vch Filter
ACHRANGE	IQUANT	2	Ach Range
ACHOFFSETENABLE	TOGGLE	F	Ach Offset Enable
ACHOFFSET	QUANT	0	Ach Offset (V)
ACHFILTER	IQUANT	3	Ach Filter
IERANGELOWERLIMIT	IQUANT	1	I/E Range Lower Limit
IERANGEMODE	TOGGLE	F	I/E AutoRange
IERANGE	IQUANT	5	I/E Range
POSFEEDENABLE	TOGGLE	F	Positive Feedback IR Comp
POSFEEDRESISTANCE	QUANT	0	Positive Feedback Resistance (ohm)
ACHSELECT	IQUANT	0	Ach Select
CABLEID	IQUANT	14	Cable ID
DCCALDATE	LABEL	8/19/2019	DC Calibration Date
ACCALDATE	LABEL	8/19/2019	AC Calibration Date
THERMOSELECT	IQUANT	1	Thermo Select
FRAMEWORKVERSION	QUANT	6.33	Framework Version
INSTRUMENTVERSION	LABEL	3.50	Instrument Version
ZCURVE	TABLE
	Pt	Time	Freq	Zreal	Zimag	Zsig	Zmod	Zphz	Idc	Vdc	IERange
	#	s	Hz	ohm	ohm	V	ohm	°	A	V	#
	0	2	1000078	2281.247	-1389.693	1	2671.205	-31.349	6.2377E-006	0.0071551	8
	1	3	794390.6	2534.111	-1289.303	1	2843.242	-26.96605	-4.411782E-006	0.0081544	8
	2	5	630984.4	2757.67	-1173.208	1	2996.858	-23.04657	3.6657E-006	0.0070424	8
	3	6	501234.4	2938.479	-1039.353	1	3116.875	-19.47892	-4.693769E-006	0.0084245	8
	4	8	398109.4	3077.934	-900.295	1	3206.9	-16.30419	2.097413E-006	0.0068936	8
	5	9	316265.6	3187.647	-779.3449	1	3281.535	-13.73868	1.178171E-006	0.0070905	8
	6	10	251203.1	3269.707	-669.806	1	3337.607	-11.57699	-2.576925E-006	0.0078722	8
	7	12	199546.9	3337.498	-584.9965	1	3388.379	-9.94181	-3.816291E-007	0.0074913	8
	8	13	158578.1	3375.722	-503.8319	1	3413.114	-8.488824	-1.619242E-006	0.0076346	8
	9	14	125953.1	3422.684	-402.7103	1	3446.293	-6.710524	6.67662E-007	0.005907	7
	10	16	100078.1	3458.898	-360.9953	1	3477.685	-5.958225	-6.279055E-008	0.0073963	7
	11	17	79453.13	3486.883	-337.1691	1	3503.147	-5.523126	5.540836E-008	0.0071876	7
	12	18	63140.62	3514.002	-321.1057	1	3528.642	-5.221128	-8.1519E-009	0.0072484	7
	13	20	50203.12	3540.631	-312.5565	1	3554.4	-5.044826	-6.123258E-008	0.0073823	7
	14	21	39890.62	3567.781	-311.7668	1	3581.376	-4.994047	-6.270934E-008	0.0073871	7
	15	23	31640.63	3594.582	-319.7404	1	3608.775	-5.083119	-7.45648E-009	0.0072479	7
	16	24	25171.88	3623.088	-333.8824	1	3638.439	-5.26517	6.563315E-008	0.0072438	7
	17	25	20015.62	3655.366	-356.2179	1	3672.682	-5.565938	-4.232689E-008	0.007403	7
	18	27	15890.62	3683.52	-387.8197	1	3703.88	-6.010247	-1.28072E-008	0.0072481	7
	19	28	12609.37	3716.992	-427.2076	1	3741.462	-6.556446	3.631041E-008	0.00716	7
	20	29	10078.13	3752.598	-476.7262	1	3782.759	-7.240014	3.382257E-008	0.0071565	7
	21	31	8015.625	3786.366	-533.5784	1	3823.778	-8.021358	1.126474E-007	0.0071024	7
	22	32	6328.125	3829.501	-620.9913	1	3879.524	-9.210897	-2.782173E-008	0.0073028	7
	23	33	5015.625	3872.523	-720.9521	1	3939.062	-10.54609	2.929851E-008	0.0072397	7
	24	35	3984.375	3921.233	-844.6793	1	4011.178	-12.15642	-1.338075E-008	0.0073921	7
	25	36	3170.956	3969.401	-995.235	1	4092.265	-14.07543	-4.219719E-008	0.0074003	7
	26	38	2527.573	4027.736	-1178.634	1	4196.646	-16.31103	-8.683247E-009	0.0073075	7
	27	39	1976.103	4098.087	-1423.331	1	4338.224	-19.15292	-5.326518E-009	0.0073091	7
	28	40	1577.524	4181.495	-1695.14	1	4512.029	-22.06719	6.783034E-008	0.0071305	7
	29	42	1265.625	4256.622	-2029.51	1	4715.691	-25.49129	-3.190202E-008	0.0072904	7
	30	43	998.264	4361.924	-2462.401	1	5008.972	-29.44567	-4.171483E-008	0.0074031	7
	31	44	796.875	4472.915	-2963.938	1	5365.809	-33.5301	-3.219737E-008	0.007289	7
	32	46	627.7902	4611.703	-3621.193	1	5863.518	-38.13965	-2.823207E-008	0.0073017	7
	33	47	505.5147	4755.392	-4357.181	1	6449.711	-42.49782	-2.79515E-008	0.0073004	7
	34	49	397.9953	4938.38	-5356.377	1	7285.49	-47.3251	4.934739E-009	0.0072959	7
	35	50	315.5048	5155.181	-6562.001	1	8344.804	-51.84643	4.303811E-009	0.0072897	7
	36	51	252.4038	5407.222	-7990.717	1	9648.3	-55.91426	5.974184E-009	0.0072853	7
	37	53	198.6229	5745.382	-9889.45	1	11437.25	-59.8451	1.13538E-009	0.0072286	6
	38	54	158.3615	6152.347	-12109.1	1	13582.4	-63.06595	1.347176E-009	0.0072259	6
	39	55	125.558	6681.853	-14912.87	1	16341.39	-65.86478	6.305862E-010	0.0072296	6
	40	57	100.4464	7333.339	-18206.66	1	19628.05	-68.06124	-1.132911E-010	0.0072268	6
	41	58	79.00281	8231.604	-22600.52	1	24052.92	-69.98727	3.381624E-010	0.0072226	6
	42	60	63.3446	9201.303	-27414.82	1	28917.75	-71.44658	8.352556E-011	0.007226	6
	43	61	49.86702	11148.28	-33886.7	1	35673.41	-71.78947	-2.038543E-010	0.0072218	6
	44	62	39.72458	13170.26	-41549.89	1	43587.25	-72.41271	1.838931E-010	0.0072305	6
	45	64	31.6723	15921.48	-50518.09	1	52967.64	-72.50703	5.843046E-010	0.0072293	6
	46	65	24.93351	19797.72	-62091.91	1	65171.73	-72.31536	4.707625E-010	0.007231	6
	47	66	19.86229	24763.36	-75052.81	1	79032.58	-71.73991	4.668339E-010	0.0072259	6
	48	68	15.83615	31102.5	-90590.61	1	95781.1	-71.0511	1.611714E-010	0.007233	6
	49	69	12.40079	40705.09	-109127.8	1	116472.2	-69.54429	1.572709E-009	0.0072254	5
	50	70	9.93114	51415	-129608.6	1	139434.2	-68.36205	7.565814E-010	0.0072276	5
	51	72	7.944915	65228.1	-152274.6	1	165657.1	-66.81172	4.007082E-010	0.0072317	5
	52	74	6.317385	81976.12	-178416.9	1	196348.4	-65.32294	3.468092E-010	0.0072467	5
	53	76	5.008013	102814.6	-207766.5	1	231814.1	-63.67119	3.5472E-010	0.0072357	5
	54	78	3.945707	127541.5	-240997.3	1	272665.7	-62.11114	4.555926E-010	0.0072371	5
	55	81	3.158693	154405.7	-275874.3	1	316145.2	-60.76444	-1.360873E-010	0.0072249	5
	56	84	2.504006	185371.3	-315616.3	1	366027.5	-59.57294	5.494651E-010	0.0072308	5
	57	87	1.998082	218812.1	-359231.9	1	420626.1	-58.65395	1.811201E-010	0.0072682	5
	58	90	1.584686	255022	-409864.4	1	482726.7	-58.10969	2.087958E-010	0.007223	5
	59	94	1.266892	295391.5	-468796.8	1	554099.8	-57.78473	1.218277E-010	0.0072717	5
	60	98	0.999041	341928.6	-540294.9	1	639401.1	-57.6721	-4.963548E-011	0.0071914	5
