EXPLAIN
TAG	EISPOT
TITLE	LABEL	Potentiostatic EIS	Test &Identifier
DATE	LABEL	10/6/2019	Date
TIME	LABEL	10:07:23	Time
NOTES	NOTES	2	&Notes...
	
	
PSTAT	PSTAT	REF600-11020	Potentiostat
VDC	POTEN	0.00000E+000	T	DC &Voltage (V)
FREQINIT	QUANT	1.00000E+006	Initial Fre&q. (Hz)
FREQFINAL	QUANT	1.00000E+000	Final Fre&q. (Hz)
PTSPERDEC	QUANT	1.00000E+001	Points/&decade
VAC	QUANT	2.50000E+001	AC &Voltage (mV rms)
AREA	QUANT	1.00000E-002	&Area (cm^2)
CONDIT	TWOPARAM	T	5.00000E+000	0.00000E+000	Conditionin&g	Time(s)	E(V)
DELAY	TWOPARAM	T	5.00000E+000	0.00000E+000	Init. De&lay	Time(s)	Stab.(mV/s)
SPEED	SELECTOR	1	&Optimize for:
ZGUESS	QUANT	1.00000E+004	E&stimated Z (ohms)
OCVCURVE	TABLE	19
	Pt	T	Vf	Vm	Ach	Over
	#	s	V vs. Ref.	V	V	bits
	0	0.258333	3.87726E-003	3.87726E-003	5.47999E-004	...........
	1	0.516667	3.87001E-003	3.49741E-003	5.53866E-004	...........
	2	0.775	3.82616E-003	3.17471E-003	5.49366E-004	...........
	3	1.03333	3.70423E-003	2.85092E-003	5.45833E-004	...........
	4	1.29167	3.49016E-003	2.57524E-003	5.42733E-004	...........
	5	1.55	3.21173E-003	2.30730E-003	5.46833E-004	...........
	6	1.80833	2.91144E-003	2.07061E-003	5.53066E-004	...........
	7	2.06667	2.61958E-003	1.84134E-003	5.51333E-004	...........
	8	2.325	2.34881E-003	1.63732E-003	5.47833E-004	...........
	9	2.58333	2.10057E-003	1.43424E-003	5.47599E-004	...........
	10	2.84167	1.87168E-003	1.24027E-003	5.52866E-004	...........
	11	3.1	1.65797E-003	1.06623E-003	5.47466E-004	...........
	12	3.35833	1.45663E-003	9.06637E-004	5.48799E-004	...........
	13	3.61667	1.26698E-003	7.36542E-004	5.48966E-004	...........
	14	3.875	1.08819E-003	5.77461E-004	5.47399E-004	...........
	15	4.13333	9.17700E-004	4.17818E-004	5.53399E-004	...........
	16	4.39167	7.52752E-004	2.71574E-004	5.49199E-004	...........
	17	4.65	5.92399E-004	1.32563E-004	5.51899E-004	...........
	18	4.90833	4.37629E-004	5.94715E-006	5.59199E-004	...........
EOC	QUANT	0.0004376	Open Circuit (V)
PSTATMODEL	IQUANT	4	Pstat Model
PSTATSECTION	LABEL	REF600-11020	Pstat Section
PSTATSERIALNO	LABEL	11020	Pstat Serial Number
CTRLMODE	IQUANT	1	Control Mode
IESTAB	IQUANT	0	I/E Stability
CASPEED	IQUANT	1	Control Amp Speed
CONVENTION	IQUANT	1	Current Convention
ICHRANGE	IQUANT	2	Ich Range
ICHRANGEMODE	TOGGLE	F	Ich Auto Range
ICHOFFSETENABLE	TOGGLE	T	Ich Offset Enable
ICHOFFSET	QUANT	0	Ich Offset (V)
ICHFILTER	IQUANT	3	Ich Filter
VCHRANGE	IQUANT	2	Vch Range
VCHRANGEMODE	TOGGLE	F	Vch Auto Range
VCHOFFSETENABLE	TOGGLE	T	Vch Offset Enable
VCHOFFSET	QUANT	0	Vch Offset (V)
VCHFILTER	IQUANT	3	Vch Filter
ACHRANGE	IQUANT	2	Ach Range
ACHOFFSETENABLE	TOGGLE	F	Ach Offset Enable
ACHOFFSET	QUANT	0	Ach Offset (V)
ACHFILTER	IQUANT	3	Ach Filter
IERANGELOWERLIMIT	IQUANT	1	I/E Range Lower Limit
IERANGEMODE	TOGGLE	F	I/E AutoRange
IERANGE	IQUANT	4	I/E Range
POSFEEDENABLE	TOGGLE	F	Positive Feedback IR Comp
POSFEEDRESISTANCE	QUANT	0	Positive Feedback Resistance (ohm)
ACHSELECT	IQUANT	0	Ach Select
CABLEID	IQUANT	14	Cable ID
DCCALDATE	LABEL	8/19/2019	DC Calibration Date
ACCALDATE	LABEL	8/19/2019	AC Calibration Date
THERMOSELECT	IQUANT	1	Thermo Select
FRAMEWORKVERSION	QUANT	6.33	Framework Version
INSTRUMENTVERSION	LABEL	3.50	Instrument Version
ZCURVE	TABLE
	Pt	Time	Freq	Zreal	Zimag	Zsig	Zmod	Zphz	Idc	Vdc	IERange
	#	s	Hz	ohm	ohm	V	ohm	°	A	V	#
	0	1	1000078	2123.276	-1114.781	1	2398.133	-27.70077	-8.562571E-007	0.0029808	8
	1	3	794390.6	2303.193	-1032.1	1	2523.872	-24.13797	5.09233E-006	0.0016969	8
	2	4	630984.4	2472.412	-934.7986	1	2643.231	-20.71119	-4.140707E-006	0.0029524	8
	3	5	501234.4	2595.597	-842.768	1	2728.99	-17.98816	4.45972E-006	0.0014739	8
	4	7	398109.4	2702.734	-741.5447	1	2802.616	-15.3426	1.043835E-006	0.0017847	8
	5	8	316265.6	2779.3	-663.2303	1	2857.338	-13.42161	-2.612188E-006	0.0026559	8
	6	10	251203.1	2854.5	-599.8283	1	2916.842	-11.86715	-1.514474E-009	0.0022216	8
	7	11	199546.9	2908.349	-554.0483	1	2960.653	-10.78576	-6.837116E-007	0.0023824	8
	8	12	158578.1	2960.444	-512.1002	1	3004.409	-9.81396	-3.034365E-006	0.0026976	8
	9	14	125953.1	3021.144	-450.3182	1	3054.521	-8.477836	-9.859034E-007	0.0043637	7
	10	15	100078.1	3063.779	-441.7268	1	3095.459	-8.204205	3.620574E-008	0.0019201	7
	11	16	79453.13	3108.081	-447.995	1	3140.202	-8.202052	-3.662248E-009	0.002002	7
	12	18	63140.62	3155.075	-462.6288	1	3188.812	-8.341839	-6.313749E-008	0.0021163	7
	13	19	50203.12	3205.63	-483.3936	1	3241.872	-8.575317	-2.920633E-008	0.0020369	7
	14	20	39890.62	3259.854	-511.0705	1	3299.673	-8.910139	-3.026114E-008	0.0020395	7
	15	22	31640.63	3319.463	-545.2595	1	3363.948	-9.328179	-3.619635E-008	0.0020464	7
	16	23	25171.88	3382.342	-587.0212	1	3432.905	-9.84587	8.605002E-008	0.0019741	7
	17	25	20015.62	3446.155	-635.491	1	3504.259	-10.4483	2.269823E-009	0.0019838	7
	18	26	15890.62	3523.862	-693.5488	1	3591.464	-11.13436	-2.682163E-008	0.0020982	7
	19	27	12609.37	3602.826	-760.0693	1	3682.127	-11.91271	-1.949096E-008	0.0020241	7
	20	29	10078.13	3682.057	-835.8481	1	3775.736	-12.78972	8.340969E-009	0.0021249	7
	21	30	8015.625	3769.131	-921.7034	1	3880.191	-13.74144	-3.180512E-008	0.0020392	7
	22	31	6328.125	3862.785	-1037.552	1	3999.703	-15.03489	3.922018E-008	0.0019117	7
	23	33	5015.625	3960.334	-1168.537	1	4129.131	-16.43924	8.796743E-008	0.0019643	7
	24	34	3984.375	4061.797	-1325.899	1	4272.728	-18.07832	-6.10685E-008	0.002223	7
	25	35	3170.956	4166.685	-1510.569	1	4432.052	-19.92735	-1.796421E-008	0.0020166	7
	26	37	2527.573	4274.729	-1733.818	1	4612.963	-22.07734	-4.726189E-008	0.0020808	7
	27	38	1976.103	4396.352	-2039.735	1	4846.486	-24.88945	8.64563E-008	0.0019581	7
	28	40	1577.524	4507.269	-2384.788	1	5099.283	-27.88324	7.721442E-008	0.0018651	7
	29	41	1265.625	4626.931	-2804.783	1	5410.665	-31.22368	-6.248588E-008	0.0022115	7
	30	42	998.264	4766.095	-3366.615	1	5835.217	-35.23614	1.193158E-007	0.0018562	7
	31	44	796.875	4914.604	-4030.72	1	6356.102	-39.35695	4.020156E-008	0.0019751	7
	32	45	627.7902	5089.06	-4913.436	1	7073.923	-43.9941	-8.143576E-009	0.0020694	7
	33	46	505.5147	5274.736	-5893.585	1	7909.31	-48.17158	2.193549E-009	0.0019691	7
	34	48	397.9953	5536.225	-7247.729	1	9120.272	-52.62536	4.036503E-009	0.0020495	7
	35	49	315.5048	5841.452	-8873.312	1	10623.47	-56.64241	3.823099E-010	0.0019889	6
	36	51	252.4038	6199.67	-10795.51	1	12449.06	-60.13202	5.888425E-010	0.0019902	6
	37	52	198.6229	6683.417	-13344.73	1	14924.81	-63.397	8.207398E-010	0.0019929	6
	38	53	158.3615	7263.425	-16310.2	1	17854.41	-65.99515	9.95557E-010	0.0019876	6
	39	55	125.558	8018.192	-20044.45	1	21588.69	-68.19758	7.448265E-010	0.0019846	6
	40	56	100.4464	8965.854	-24441.08	1	26033.69	-69.85517	1.281055E-009	0.001988	6
	41	57	79.00281	10244.42	-30158.86	1	31851.29	-71.23831	4.003864E-010	0.0019881	6
	42	59	63.3446	11891.1	-36433.05	1	38324.47	-71.92424	2.41672E-010	0.0019847	6
	43	60	49.86702	14092.76	-45402.46	1	47539.35	-72.75585	7.251701E-010	0.0019796	6
	44	62	39.72458	16739.2	-55135.54	1	57620.56	-73.11166	2.544068E-010	0.0019855	6
	45	63	31.6723	20127.54	-66804.75	1	69771	-73.23302	2.829278E-010	0.0019844	6
	46	64	24.93351	25057	-82007.2	1	85749.84	-73.00966	3.223797E-010	0.001981	6
	47	66	19.86229	31051.32	-99229.2	1	103974.1	-72.62378	1.030852E-009	0.0019873	6
	48	67	15.83615	38907.65	-120474.2	1	126601.1	-72.10191	-1.035724E-009	0.0019848	5
	49	69	12.40079	50174.74	-144725.4	1	153176.2	-70.87912	9.914588E-010	0.0019825	5
	50	70	9.93114	62940.87	-173449.6	1	184516.5	-70.05534	5.27796E-010	0.0019833	5
	51	72	7.944915	79818.14	-205340.8	1	220308.3	-68.75837	-7.826809E-011	0.0019824	5
	52	73	6.317385	100884.4	-242904.2	1	263021.2	-67.44563	5.273857E-010	0.0019766	5
	53	75	5.008013	127741.9	-285979.9	1	313213.2	-65.93058	2.814104E-010	0.0019967	5
	54	78	3.945707	161086.4	-335662.7	1	372314.8	-64.36339	-5.982306E-011	0.0019833	5
	55	80	3.158693	197928.8	-387012	1	434688.5	-62.91353	3.363452E-010	0.002005	5
	56	84	2.504006	242215.9	-446409.1	1	507887.4	-61.51631	-1.491714E-010	0.0019894	5
	57	87	1.998082	291442.3	-510455.8	1	587795.6	-60.276	1.163934E-010	0.0019457	5
	58	90	1.584686	346325.5	-583319.5	1	678382.6	-59.30177	6.024632E-011	0.0020093	5
	59	93	1.266892	406331	-665584.6	1	779812.6	-58.59646	6.872578E-011	0.001959	5
	60	98	0.999041	476569.5	-764530.7	1	900902.7	-58.06269	2.329488E-010	0.0020372	5
