EXPLAIN
TAG	EISPOT
TITLE	LABEL	Potentiostatic EIS	Test &Identifier
DATE	LABEL	10/8/2019	Date
TIME	LABEL	9:03:45	Time
NOTES	NOTES	2	&Notes...
	
	
PSTAT	PSTAT	REF600-11020	Potentiostat
VDC	POTEN	0.00000E+000	T	DC &Voltage (V)
FREQINIT	QUANT	1.00000E+006	Initial Fre&q. (Hz)
FREQFINAL	QUANT	1.00000E+000	Final Fre&q. (Hz)
PTSPERDEC	QUANT	1.00000E+001	Points/&decade
VAC	QUANT	2.50000E+001	AC &Voltage (mV rms)
AREA	QUANT	1.00000E-002	&Area (cm^2)
CONDIT	TWOPARAM	T	5.00000E+000	0.00000E+000	Conditionin&g	Time(s)	E(V)
DELAY	TWOPARAM	T	5.00000E+000	0.00000E+000	Init. De&lay	Time(s)	Stab.(mV/s)
SPEED	SELECTOR	1	&Optimize for:
ZGUESS	QUANT	1.00000E+004	E&stimated Z (ohms)
OCVCURVE	TABLE	19
	Pt	T	Vf	Vm	Ach	Over
	#	s	V vs. Ref.	V	V	bits
	0	0.258333	6.72041E-003	6.72041E-003	5.56299E-004	...........
	1	0.516667	6.71555E-003	6.46620E-003	5.57466E-004	...........
	2	0.775	6.68694E-003	6.28865E-003	5.57066E-004	...........
	3	1.03333	6.61032E-003	6.13285E-003	5.55066E-004	...........
	4	1.29167	6.48279E-003	6.01246E-003	5.56466E-004	...........
	5	1.55	6.32984E-003	5.98634E-003	5.53133E-004	...........
	6	1.80833	6.18291E-003	5.78614E-003	5.57032E-004	...........
	7	2.06667	6.05476E-003	5.70830E-003	5.57399E-004	...........
	8	2.325	5.93912E-003	5.63868E-003	5.57966E-004	...........
	9	2.58333	5.83088E-003	5.56833E-003	5.62666E-004	...........
	10	2.84167	5.73363E-003	5.50937E-003	5.62132E-004	...........
	11	3.1	5.65051E-003	5.46612E-003	5.57966E-004	...........
	12	3.35833	5.58068E-003	5.42204E-003	5.63699E-004	...........
	13	3.61667	5.52202E-003	5.38734E-003	5.61832E-004	...........
	14	3.875	5.47243E-003	5.35908E-003	5.58632E-004	...........
	15	4.13333	5.43016E-003	5.32852E-003	5.60632E-004	...........
	16	4.39167	5.39367E-003	5.29918E-003	5.60466E-004	...........
	17	4.65	5.36122E-003	5.27411E-003	5.55466E-004	...........
	18	4.90833	5.33121E-003	5.24220E-003	5.54399E-004	...........
EOC	QUANT	0.0053312	Open Circuit (V)
PSTATMODEL	IQUANT	4	Pstat Model
PSTATSECTION	LABEL	REF600-11020	Pstat Section
PSTATSERIALNO	LABEL	11020	Pstat Serial Number
CTRLMODE	IQUANT	1	Control Mode
IESTAB	IQUANT	0	I/E Stability
CASPEED	IQUANT	1	Control Amp Speed
CONVENTION	IQUANT	1	Current Convention
ICHRANGE	IQUANT	2	Ich Range
ICHRANGEMODE	TOGGLE	F	Ich Auto Range
ICHOFFSETENABLE	TOGGLE	T	Ich Offset Enable
ICHOFFSET	QUANT	0	Ich Offset (V)
ICHFILTER	IQUANT	3	Ich Filter
VCHRANGE	IQUANT	2	Vch Range
VCHRANGEMODE	TOGGLE	F	Vch Auto Range
VCHOFFSETENABLE	TOGGLE	T	Vch Offset Enable
VCHOFFSET	QUANT	0	Vch Offset (V)
VCHFILTER	IQUANT	3	Vch Filter
ACHRANGE	IQUANT	2	Ach Range
ACHOFFSETENABLE	TOGGLE	F	Ach Offset Enable
ACHOFFSET	QUANT	0	Ach Offset (V)
ACHFILTER	IQUANT	3	Ach Filter
IERANGELOWERLIMIT	IQUANT	1	I/E Range Lower Limit
IERANGEMODE	TOGGLE	F	I/E AutoRange
IERANGE	IQUANT	6	I/E Range
POSFEEDENABLE	TOGGLE	F	Positive Feedback IR Comp
POSFEEDRESISTANCE	QUANT	0	Positive Feedback Resistance (ohm)
ACHSELECT	IQUANT	0	Ach Select
CABLEID	IQUANT	14	Cable ID
DCCALDATE	LABEL	8/19/2019	DC Calibration Date
ACCALDATE	LABEL	8/19/2019	AC Calibration Date
THERMOSELECT	IQUANT	1	Thermo Select
FRAMEWORKVERSION	QUANT	6.33	Framework Version
INSTRUMENTVERSION	LABEL	3.50	Instrument Version
ZCURVE	TABLE
	Pt	Time	Freq	Zreal	Zimag	Zsig	Zmod	Zphz	Idc	Vdc	IERange
	#	s	Hz	ohm	ohm	V	ohm	°	A	V	#
	0	1	1000078	2329.989	-1479.844	1	2760.215	-32.42082	5.03186E-006	0.0066734	8
	1	2	794390.6	2627.483	-1406.113	1	2980.071	-28.15373	3.512646E-006	0.0063253	8
	2	4	630984.4	2858.649	-1303.011	1	3141.61	-24.50414	8.617043E-007	0.0068684	8
	3	5	501234.4	3072.31	-1178.289	1	3290.51	-20.98277	-1.376596E-006	0.0072093	8
	4	7	398109.4	3238.936	-1053.258	1	3405.886	-18.01382	3.359908E-006	0.0062283	8
	5	8	316265.6	3365.605	-923.395	1	3489.979	-15.34228	-2.480022E-006	0.007296	8
	6	9	251203.1	3478.51	-805.5106	1	3570.557	-13.03805	-3.027528E-006	0.0072836	8
	7	11	199546.9	3570.84	-728.092	1	3644.313	-11.5246	2.798654E-006	0.006253	8
	8	12	158578.1	3621.632	-644.6196	1	3678.553	-10.09247	8.974911E-007	0.006652	8
	9	14	125953.1	3685.145	-565.7711	1	3728.323	-8.728325	-1.692303E-007	0.0073122	7
	10	15	100078.1	3731.766	-534.1034	1	3769.793	-8.145059	-3.223641E-008	0.0068192	7
	11	17	79453.13	3777.988	-526.4185	1	3814.487	-7.932423	3.600413E-008	0.0067614	7
	12	18	63140.62	3823.531	-529.5398	1	3860.026	-7.885018	-5.807903E-008	0.0069672	7
	13	19	50203.12	3872.358	-545.1156	1	3910.538	-8.01293	-5.689295E-008	0.0069663	7
	14	21	39890.62	3923.913	-571.9084	1	3965.371	-8.292444	-8.375125E-008	0.0069375	7
	15	22	31640.63	3979.961	-612.861	1	4026.871	-8.754028	4.538196E-008	0.0066578	7
	16	23	25171.88	4041.424	-666.3746	1	4095.993	-9.363032	1.362381E-007	0.0065976	7
	17	25	20015.62	4108.115	-730.8483	1	4172.619	-10.08759	-3.817941E-008	0.0068157	7
	18	26	15890.62	4185.813	-813.6653	1	4264.163	-11.00034	4.001089E-008	0.006758	7
	19	28	12609.37	4271.653	-911.1915	1	4367.755	-12.04136	-3.707146E-008	0.0068112	7
	20	29	10078.13	4365.953	-1021.993	1	4483.973	-13.17472	-1.222901E-008	0.006763	7
	21	30	8015.625	4475.425	-1152.035	1	4621.321	-14.43532	-1.211181E-008	0.0067602	7
	22	32	6328.125	4599.885	-1314.566	1	4784.039	-15.94901	-1.107262E-008	0.0067609	7
	23	33	5015.625	4740.579	-1497.429	1	4971.457	-17.53001	-7.951322E-008	0.0069282	7
	24	34	3984.375	4901.119	-1709.782	1	5190.792	-19.2316	-3.993902E-008	0.006875	7
	25	36	3170.956	5074.71	-1946.745	1	5435.301	-20.98767	4.000464E-008	0.0067518	7
	26	37	2527.573	5273.162	-2223.74	1	5722.872	-22.86559	8.165097E-008	0.0066257	7
	27	38	1976.103	5519.178	-2573.62	1	6089.733	-24.99987	-9.934968E-009	0.0067535	7
	28	40	1577.524	5769.514	-2940.506	1	6475.636	-27.00624	1.35555E-007	0.0065878	7
	29	41	1265.625	6049.998	-3352.068	1	6916.563	-28.98913	-1.764228E-008	0.0067667	7
	30	43	998.264	6387.739	-3871.758	1	7469.519	-31.22103	-5.765727E-008	0.0069619	7
	31	44	796.875	6735.335	-4428.162	1	8060.605	-33.32301	-4.598316E-009	0.0068301	7
	32	45	627.7902	7129.606	-5128.605	1	8782.59	-35.72895	-4.883157E-008	0.0068283	7
	33	47	505.5147	7493.815	-5879.758	1	9525.17	-38.11825	-4.610497E-009	0.0068287	7
	34	48	397.9953	7923.644	-6862.381	1	10482.19	-40.89465	3.548126E-010	0.0067472	6
	35	50	315.5048	8334.807	-8056.621	1	11592.16	-44.0277	7.573583E-010	0.0067452	6
	36	51	252.4038	8741.78	-9484.063	1	12898.3	-47.33219	7.933751E-010	0.0067427	6
	37	52	198.6229	9203.229	-11407.59	1	14657.17	-51.10468	5.236328E-010	0.0067426	6
	38	54	158.3615	9689.1	-13692.89	1	16774.21	-54.71674	2.19347E-010	0.0067406	6
	39	55	125.558	10263.22	-16620.24	1	19533.72	-58.3041	7.832005E-010	0.0067453	6
	40	56	100.4464	10936.41	-20131.89	1	22910.65	-61.48751	4.66909E-010	0.0067441	6
	41	58	79.00281	11815.66	-24773.08	1	27446.59	-64.50093	9.452477E-010	0.0067407	6
	42	59	63.3446	12696.02	-30094.53	1	32662.97	-67.12652	4.135693E-010	0.0067392	6
	43	61	49.86702	14433.77	-37156.93	1	39861.9	-68.77113	-9.016741E-011	0.0067409	6
	44	62	39.72458	16121.4	-45511.77	1	48282.72	-70.4946	3.282425E-010	0.0067486	6
	45	63	31.6723	18458.31	-55530	1	58517.43	-71.61307	-5.725455E-012	0.0067453	6
	46	65	24.93351	21803.64	-68612.45	1	71993.52	-72.3708	6.479727E-010	0.0067456	6
	47	66	19.86229	25931.08	-83535.25	1	87467.48	-72.75457	4.319867E-010	0.0067435	6
	48	67	15.83615	31273.49	-100813.8	1	105553	-72.76556	-3.395607E-010	0.0067449	5
	49	69	12.40079	38384.37	-125257.2	1	131006.6	-72.96262	7.623897E-010	0.0067517	5
	50	70	9.93114	47481.26	-150111.8	1	157442.1	-72.44753	-6.39964E-011	0.0067525	5
	51	72	7.944915	58302.72	-180178.2	1	189376.3	-72.06927	1.412591E-011	0.0067517	5
	52	74	6.317385	72866.62	-216575.7	1	228505.1	-71.40455	-1.044567E-010	0.0067532	5
	53	76	5.008013	91150.04	-260132.1	1	275639.3	-70.68959	-5.010969E-011	0.0067391	5
	54	78	3.945707	114767.5	-312458.6	1	332869.2	-69.83147	1.30939E-010	0.0067491	5
	55	81	3.158693	141742.1	-369519.2	1	395771.7	-69.01392	2.720023E-011	0.0067388	5
	56	84	2.504006	175430.6	-438896.9	1	472658.9	-68.21301	7.448869E-011	0.0067585	5
	57	87	1.998082	214725.6	-516084.6	1	558972.6	-67.40943	1.954224E-010	0.0067218	5
	58	90	1.584686	262633.6	-610997.7	1	665052.3	-66.73985	2.195963E-011	0.0067164	5
	59	94	1.266892	319934.1	-715378.3	1	783660.6	-65.90468	1.031146E-010	0.0066978	5
	60	98	0.999041	391058.1	-844687.1	1	930818.3	-65.15765	2.484913E-011	0.0067815	5
