EXPLAIN
TAG	EISPOT
TITLE	LABEL	Potentiostatic EIS	Test &Identifier
DATE	LABEL	11/22/2019	Date
TIME	LABEL	0:57:16	Time
NOTES	NOTES	4	&Notes...
	
	
	
	
PSTAT	PSTAT	REF600-11020	Potentiostat
VDC	POTEN	0.00000E+000	T	DC &Voltage (V)
FREQINIT	QUANT	1.00000E+006	Initial Fre&q. (Hz)
FREQFINAL	QUANT	1.00000E+000	Final Fre&q. (Hz)
PTSPERDEC	QUANT	1.00000E+001	Points/&decade
VAC	QUANT	2.50000E+001	AC &Voltage (mV rms)
AREA	QUANT	1.00000E-002	&Area (cm^2)
CONDIT	TWOPARAM	T	5.00000E+000	0.00000E+000	Conditionin&g	Time(s)	E(V)
DELAY	TWOPARAM	T	5.00000E+000	0.00000E+000	Init. De&lay	Time(s)	Stab.(mV/s)
SPEED	SELECTOR	1	&Optimize for:
ZGUESS	QUANT	1.00000E+005	E&stimated Z (ohms)
OCVCURVE	TABLE	19
	Pt	T	Vf	Vm	Ach	Over
	#	s	V vs. Ref.	V	V	bits
	0	0.258333	-1.82667E-002	-1.82667E-002	5.89865E-004	...........
	1	0.516667	-1.82945E-002	-1.97202E-002	5.88499E-004	...........
	2	0.775	-1.86708E-002	-3.18711E-002	5.86799E-004	.........v.
	3	1.03333	-1.99610E-002	-1.95413E-002	5.80732E-004	...........
	4	1.29167	-2.16578E-002	-1.10293E-002	5.86665E-004	...........
	5	1.55	-2.19543E-002	-1.92903E-002	5.84999E-004	...........
	6	1.80833	-2.04272E-002	-2.25471E-002	5.81732E-004	...........
	7	2.06667	-1.89392E-002	-1.96352E-002	5.81565E-004	...........
	8	2.325	-1.88761E-002	-2.37389E-002	5.87465E-004	...........
	9	2.58333	-1.99715E-002	-2.84092E-002	5.92232E-004	.........v.
	10	2.84167	-2.18802E-002	-3.49389E-002	5.82232E-004	...........
	11	3.1	-2.46057E-002	-2.71611E-002	5.82232E-004	...........
	12	3.35833	-2.73869E-002	-2.67977E-002	5.81499E-004	...........
	13	3.61667	-2.88516E-002	-2.39745E-002	5.82199E-004	...........
	14	3.875	-2.84981E-002	-2.41331E-002	5.82565E-004	...........
	15	4.13333	-2.70684E-002	-2.43181E-002	5.84265E-004	...........
	16	4.39167	-2.55825E-002	-2.32616E-002	5.84965E-004	...........
	17	4.65	-2.45409E-002	-2.28564E-002	5.85199E-004	...........
	18	4.90833	-2.38712E-002	-2.19260E-002	5.83265E-004	...........
EOC	QUANT	-0.0238712	Open Circuit (V)
PSTATMODEL	IQUANT	4	Pstat Model
PSTATSECTION	LABEL	REF600-11020	Pstat Section
PSTATSERIALNO	LABEL	11020	Pstat Serial Number
CTRLMODE	IQUANT	1	Control Mode
IESTAB	IQUANT	0	I/E Stability
CASPEED	IQUANT	1	Control Amp Speed
CONVENTION	IQUANT	1	Current Convention
ICHRANGE	IQUANT	2	Ich Range
ICHRANGEMODE	TOGGLE	F	Ich Auto Range
ICHOFFSETENABLE	TOGGLE	T	Ich Offset Enable
ICHOFFSET	QUANT	0	Ich Offset (V)
ICHFILTER	IQUANT	3	Ich Filter
VCHRANGE	IQUANT	2	Vch Range
VCHRANGEMODE	TOGGLE	F	Vch Auto Range
VCHOFFSETENABLE	TOGGLE	T	Vch Offset Enable
VCHOFFSET	QUANT	0	Vch Offset (V)
VCHFILTER	IQUANT	3	Vch Filter
ACHRANGE	IQUANT	2	Ach Range
ACHOFFSETENABLE	TOGGLE	F	Ach Offset Enable
ACHOFFSET	QUANT	0	Ach Offset (V)
ACHFILTER	IQUANT	3	Ach Filter
IERANGELOWERLIMIT	IQUANT	1	I/E Range Lower Limit
IERANGEMODE	TOGGLE	F	I/E AutoRange
IERANGE	IQUANT	5	I/E Range
POSFEEDENABLE	TOGGLE	F	Positive Feedback IR Comp
POSFEEDRESISTANCE	QUANT	0	Positive Feedback Resistance (ohm)
ACHSELECT	IQUANT	0	Ach Select
CABLEID	IQUANT	14	Cable ID
DCCALDATE	LABEL	8/19/2019	DC Calibration Date
ACCALDATE	LABEL	8/19/2019	AC Calibration Date
THERMOSELECT	IQUANT	1	Thermo Select
FRAMEWORKVERSION	QUANT	6.33	Framework Version
INSTRUMENTVERSION	LABEL	3.50	Instrument Version
ZCURVE	TABLE
	Pt	Time	Freq	Zreal	Zimag	Zsig	Zmod	Zphz	Idc	Vdc	IERange
	#	s	Hz	ohm	ohm	V	ohm	°	A	V	#
	0	2	1000078	744.4751	-8787.112	1	8818.593	-85.15726	-6.304265E-006	-0.0206919	8
	1	4	794390.6	1018.587	-10860.14	1	10907.8	-84.64182	-3.68697E-006	-0.0216443	8
	2	5	630984.4	1085.276	-13641.33	1	13684.44	-85.45125	-1.766242E-006	-0.0218318	8
	3	7	501234.4	1326.979	-16869.73	1	16921.84	-85.50236	-1.361205E-006	-0.0224318	8
	4	9	398109.4	1866.179	-21099.05	1	21181.42	-84.94543	1.89642E-007	-0.0225417	8
	5	10	316265.6	1521.114	-26369.75	1	26413.58	-86.69861	-6.009128E-007	-0.0225704	8
	6	12	251203.1	2119.194	-32569.48	1	32638.35	-86.27719	8.013031E-008	-0.022592	8
	7	14	199546.9	2112.373	-41250.66	1	41304.71	-87.06855	-5.790833E-007	-0.0225724	8
	8	15	158578.1	4101.496	-52128.56	1	52289.66	-85.50121	-3.579022E-008	-0.022594	8
	9	17	125953.1	5289.135	-65204.73	1	65418.89	-85.36256	-1.936226E-006	-0.0233941	7
	10	19	100078.1	5598.893	-79639.74	1	79836.3	-85.97857	-1.622334E-006	-0.0205569	7
	11	20	79453.13	7296.182	-100093.6	1	100359.1	-85.83088	-5.30155E-007	-0.0204057	7
	12	22	63140.62	8457.372	-124625.5	1	124912.1	-86.11773	1.175325E-006	-0.0247543	7
	13	24	50203.12	10453.85	-156019.8	1	156369.6	-86.16672	-9.482894E-007	-0.0201532	7
	14	25	39890.62	14463.82	-194726	1	195262.4	-85.752	-9.499434E-007	-0.0201533	7
	15	27	31640.63	15830.78	-242022.2	1	242539.4	-86.25759	-1.62085E-006	-0.0205747	7
	16	29	25171.88	19704.19	-301720.6	1	302363.3	-86.26354	8.062821E-007	-0.0247053	7
	17	31	20015.62	23989.9	-376380.7	1	377144.4	-86.35299	1.301961E-006	-0.0230572	7
	18	33	15890.62	37890.83	-480869.5	1	482360	-85.4946	1.184115E-006	-0.0247706	7
	19	34	12609.37	56737.01	-589209.1	1	591934.4	-84.49975	-1.192234E-007	-0.0180828	6
	20	36	10078.13	55625.99	-717262.6	1	719416.3	-85.56541	-2.933416E-007	-0.0172703	6
	21	38	8015.625	59861.66	-932691.1	1	934610.2	-86.3277	1.746968E-007	-0.0217017	6
	22	40	6328.125	102579.9	-1140196	1	1144802	-84.85912	3.044617E-007	-0.025415	6
	23	41	5015.625	126696.6	-1418357	1	1424004	-84.89552	2.912073E-007	-0.0244547	6
	24	43	3984.375	112260.1	-1792415	1	1795927	-86.41621	2.163541E-007	-0.0270909	6
	25	45	3170.956	191613	-2253042	1	2261176	-85.1389	1.395723E-007	-0.0268385	6
	26	47	2527.573	232175.6	-2766535	1	2776260	-85.20281	2.166999E-007	-0.0270888	6
	27	49	1976.103	639845.5	-3409847	1	3469360	-79.37224	3.043718E-007	-0.0254069	6
	28	51	1577.524	1596195	-1945475	1	2516488	-50.63232	-2.564842E-007	-0.0220544	6
	29	52	1265.625	993860	-5379972	1	5471001	-79.53355	1.869617E-008	-0.0271554	5
	30	54	998.264	1155441	-6350573	1	6454830	-79.68824	1.948799E-010	-0.0256306	5
	31	56	796.875	1578729	-7734662	1	7894136	-78.46377	-3.278219E-008	-0.0173039	5
	32	58	627.7902	2090101	-9.940266E+006	1	1.015763E+007	-78.12562	1.78686E-008	-0.0270306	5
	33	60	505.5147	2708400	-1.194579E+007	1	1.224898E+007	-77.22562	3.143555E-008	-0.0252057	5
	34	62	397.9953	4141422	-1.586151E+007	1	1.639325E+007	-75.36682	2.120246E-010	-0.022371	5
	35	63	315.5048	5630699	-1.717817E+007	1	1.807745E+007	-71.85178	-4.693243E-010	-0.0223693	5
	36	65	252.4038	4872945	-1.929847E+007	1	1.990418E+007	-75.8288	-1.707569E-010	-0.0223706	5
	37	66	198.6229	1.027456E+007	-2.53318E+007	1	2.733618E+007	-67.92256	-5.051027E-011	-0.0223542	5
	38	68	158.3615	2.509485E+007	-3.200799E+007	1	4.067263E+007	-51.90291	-1.286717E-010	-0.0223743	5
	39	70	125.558	2.391722E+007	-3.105808E+007	1	3.919996E+007	-52.40084	-1.535221E-010	-0.0223725	4
	40	71	100.4464	1.656734E+007	-4.708761E+007	1	4.991713E+007	-70.61606	7.495306E-011	-0.0223608	4
	41	73	79.00281	-2277067	-2.972608E+007	1	2.981316E+007	-94.3804	-2.704064E-010	-0.0223717	4
	42	74	63.3446	-6298106	2075409	1	6631249	161.7614	1.885907E-010	-0.0223744	4
	43	76	49.86702	1.663156E+007	-2.460769E+007	1	2.970096E+007	-55.94649	3.489913E-011	-0.0223818	5
	44	78	39.72458	3.545422E+007	-7761540	1	3.629384E+007	-12.34823	1.576192E-010	-0.0223816	4
	45	80	31.6723	-4.71395E+007	-1.998201E+007	1	5.119974E+007	-157.0284	3.901582E-010	-0.0223643	4
	46	81	24.93351	7.079582E+007	-1.167704E+007	1	7.175236E+007	-9.366024	-4.620583E-011	-0.0223796	4
	47	83	19.86229	4.42751E+007	-1.745709E+007	1	4.759238E+007	-21.51866	-5.480338E-011	-0.022375	5
	48	85	15.83615	-5085287	1.619005E+007	1	1.696991E+007	107.4375	-1.03504E-009	-0.0223623	4
	49	86	12.40079	385047.7	2.72895E+007	1	2.729221E+007	89.19163	7.130911E-010	-0.0223808	4
	50	88	9.93114	2.039029E+007	2.619558E+008	1	2.627482E+008	85.54915	-1.48188E-010	-0.0223693	4
	51	90	7.944915	-1.702279E+007	-5.276282E+007	1	5.544087E+007	-107.8812	3.820678E-010	-0.0223598	4
	52	92	6.317385	1.112E+008	-2.697068E+007	1	1.144241E+008	-13.63337	3.425057E-011	-0.0223437	4
	53	95	5.008013	1.126833E+008	-2.33778E+007	1	1.150828E+008	-11.72058	2.984782E-011	-0.0223656	4
	54	98	3.945707	1.07478E+008	-6.711162E+007	1	1.267103E+008	-31.98156	-2.1253E-011	-0.0223708	4
	55	101	3.158693	1.269498E+008	-3.09407E+007	1	1.306659E+008	-13.69731	1.95024E-011	-0.0223859	4
	56	106	2.504006	2.989642E+008	-4.45225E+007	1	3.022612E+008	-8.470379	2.77186E-011	-0.022368	3
	57	110	1.998082	3.097357E+008	-4.467716E+007	1	3.129413E+008	-8.207895	3.11708E-011	-0.022407	3
	58	114	1.584686	3.066073E+008	-3.117767E+007	1	3.081884E+008	-5.806221	2.383988E-011	-0.0224028	3
	59	120	1.266892	8.038707E+008	-2.003691E+008	1	8.284659E+008	-13.99609	-1.463888E-012	-0.0224129	2
	60	124	0.999041	8.334103E+008	-1.626683E+008	1	8.49137E+008	-11.04436	-2.203846E-012	-0.022336	2
