EXPLAIN
TAG	EISPOT
TITLE	LABEL	Potentiostatic EIS	Test &Identifier
DATE	LABEL	11/3/2019	Date
TIME	LABEL	10:41:41	Time
NOTES	NOTES	1	&Notes...
	
PSTAT	PSTAT	REF600-11020	Potentiostat
VDC	POTEN	0.00000E+000	T	DC &Voltage (V)
FREQINIT	QUANT	1.00000E+006	Initial Fre&q. (Hz)
FREQFINAL	QUANT	1.00000E+000	Final Fre&q. (Hz)
PTSPERDEC	QUANT	1.00000E+001	Points/&decade
VAC	QUANT	2.50000E+001	AC &Voltage (mV rms)
AREA	QUANT	1.00000E-002	&Area (cm^2)
CONDIT	TWOPARAM	T	5.00000E+000	0.00000E+000	Conditionin&g	Time(s)	E(V)
DELAY	TWOPARAM	T	5.00000E+000	0.00000E+000	Init. De&lay	Time(s)	Stab.(mV/s)
SPEED	SELECTOR	1	&Optimize for:
ZGUESS	QUANT	1.00000E+005	E&stimated Z (ohms)
OCVCURVE	TABLE	19
	Pt	T	Vf	Vm	Ach	Over
	#	s	V vs. Ref.	V	V	bits
	0	0.258333	3.87672E-003	3.87672E-003	5.75265E-004	...........
	1	0.516667	3.87329E-003	3.69739E-003	5.76666E-004	...........
	2	0.775	3.85229E-003	3.52935E-003	5.75432E-004	...........
	3	1.03333	3.79334E-003	3.38547E-003	5.79765E-004	...........
	4	1.29167	3.69360E-003	3.45908E-003	5.77166E-004	...........
	5	1.55	3.58808E-003	3.75613E-003	5.78266E-004	...........
	6	1.80833	3.53374E-003	3.72316E-003	5.74999E-004	...........
	7	2.06667	3.55335E-003	3.58905E-003	5.74832E-004	...........
	8	2.325	3.60447E-003	3.51925E-003	5.77999E-004	...........
	9	2.58333	3.62469E-003	3.35944E-003	5.76166E-004	...........
	10	2.84167	3.58606E-003	3.20639E-003	5.76632E-004	...........
	11	3.1	3.49595E-003	3.12510E-003	5.73799E-004	...........
	12	3.35833	3.37735E-003	3.04368E-003	5.75799E-004	...........
	13	3.61667	3.25679E-003	3.02103E-003	5.75632E-004	...........
	14	3.875	3.15339E-003	2.92630E-003	5.77399E-004	...........
	15	4.13333	3.06905E-003	2.76129E-003	5.80799E-004	...........
	16	4.39167	2.98907E-003	2.68562E-003	5.74632E-004	...........
	17	4.65	2.89945E-003	2.61655E-003	5.80232E-004	...........
	18	4.90833	2.80189E-003	2.51793E-003	5.78066E-004	...........
EOC	QUANT	0.0028019	Open Circuit (V)
PSTATMODEL	IQUANT	4	Pstat Model
PSTATSECTION	LABEL	REF600-11020	Pstat Section
PSTATSERIALNO	LABEL	11020	Pstat Serial Number
CTRLMODE	IQUANT	1	Control Mode
IESTAB	IQUANT	0	I/E Stability
CASPEED	IQUANT	1	Control Amp Speed
CONVENTION	IQUANT	1	Current Convention
ICHRANGE	IQUANT	2	Ich Range
ICHRANGEMODE	TOGGLE	F	Ich Auto Range
ICHOFFSETENABLE	TOGGLE	T	Ich Offset Enable
ICHOFFSET	QUANT	0	Ich Offset (V)
ICHFILTER	IQUANT	3	Ich Filter
VCHRANGE	IQUANT	2	Vch Range
VCHRANGEMODE	TOGGLE	F	Vch Auto Range
VCHOFFSETENABLE	TOGGLE	T	Vch Offset Enable
VCHOFFSET	QUANT	0	Vch Offset (V)
VCHFILTER	IQUANT	3	Vch Filter
ACHRANGE	IQUANT	2	Ach Range
ACHOFFSETENABLE	TOGGLE	F	Ach Offset Enable
ACHOFFSET	QUANT	0	Ach Offset (V)
ACHFILTER	IQUANT	3	Ach Filter
IERANGELOWERLIMIT	IQUANT	1	I/E Range Lower Limit
IERANGEMODE	TOGGLE	F	I/E AutoRange
IERANGE	IQUANT	4	I/E Range
POSFEEDENABLE	TOGGLE	F	Positive Feedback IR Comp
POSFEEDRESISTANCE	QUANT	0	Positive Feedback Resistance (ohm)
ACHSELECT	IQUANT	0	Ach Select
CABLEID	IQUANT	14	Cable ID
DCCALDATE	LABEL	8/19/2019	DC Calibration Date
ACCALDATE	LABEL	8/19/2019	AC Calibration Date
THERMOSELECT	IQUANT	1	Thermo Select
FRAMEWORKVERSION	QUANT	6.33	Framework Version
INSTRUMENTVERSION	LABEL	3.50	Instrument Version
ZCURVE	TABLE
	Pt	Time	Freq	Zreal	Zimag	Zsig	Zmod	Zphz	Idc	Vdc	IERange
	#	s	Hz	ohm	ohm	V	ohm	°	A	V	#
	0	1	1000078	1975.917	-1355.057	1	2395.919	-34.44181	8.893736E-006	0.0048795	8
	1	2	794390.6	2243.75	-1307.162	1	2596.745	-30.22419	-3.658444E-006	0.0052242	8
	2	4	630984.4	2498.063	-1210.227	1	2775.782	-25.84862	3.846181E-006	0.0037896	8
	3	5	501234.4	2698.263	-1109.726	1	2917.553	-22.3561	-2.305647E-006	0.0041525	8
	4	7	398109.4	2866.63	-985.207	1	3031.205	-18.96688	-4.552644E-006	0.0046984	8
	5	8	316265.6	3006.064	-854.524	1	3125.161	-15.86869	-1.361451E-006	0.0040825	8
	6	9	251203.1	3106.725	-733.0759	1	3192.043	-13.27689	7.327874E-007	0.0046957	8
	7	11	199546.9	3189.469	-627.2408	1	3250.561	-11.1258	-1.588274E-006	0.0040868	8
	8	12	158578.1	3269.851	-553.787	1	3316.414	-9.61249	-2.330209E-007	0.0040394	8
	9	13	125953.1	3314.996	-409.906	1	3340.243	-7.04896	-3.583437E-007	0.0021669	7
	10	15	100078.1	3342.313	-352.6537	1	3360.865	-6.0231	4.828572E-007	0.0026341	7
	11	16	79453.13	3367.337	-316.8004	1	3382.206	-5.37459	1.073735E-006	0.0031573	7
	12	17	63140.62	3387.971	-285.5223	1	3399.981	-4.817237	-2.875759E-007	0.0034115	7
	13	19	50203.12	3406.928	-263.9265	1	3417.135	-4.42972	-2.918937E-007	0.0055822	7
	14	20	39890.62	3427.498	-250.0079	1	3436.604	-4.17187	1.076573E-006	0.0031467	7
	15	22	31640.63	3438.792	-241.8845	1	3447.289	-4.023555	-1.022849E-006	0.0047483	7
	16	23	25171.88	3459.004	-245.0798	1	3467.675	-4.052788	1.079631E-006	0.0031459	7
	17	24	20015.62	3471.173	-260.2601	1	3480.916	-4.287875	-1.020534E-006	0.0047499	7
	18	26	15890.62	3480.994	-272.1572	1	3491.617	-4.470505	-8.834009E-007	0.005895	7
	19	27	12609.37	3502.198	-300.9354	1	3515.104	-4.911224	1.077999E-006	0.0031416	7
	20	28	10078.13	3513.667	-339.539	1	3530.035	-5.51957	-6.142939E-007	0.0058112	7
	21	30	8015.625	3530.9	-389.6791	1	3552.338	-6.297822	5.943068E-007	0.0044495	7
	22	31	6328.125	3550.233	-459.9189	1	3579.9	-7.381337	7.679773E-007	0.002516	7
	23	32	5015.625	3565.556	-545.2004	1	3606.998	-8.693622	-1.207184E-006	0.0056756	7
	24	34	3984.375	3584.858	-661.9872	1	3645.468	-10.46249	1.077127E-006	0.0031421	7
	25	35	3170.956	3619.342	-791.4946	1	3704.875	-12.33551	9.868743E-007	0.0035663	7
	26	37	2527.573	3645	-957.359	1	3768.629	-14.71634	-6.131562E-007	0.0058194	7
	27	38	1976.103	3682.137	-1182.377	1	3867.318	-17.80242	-1.078146E-006	0.0058286	7
	28	39	1577.524	3711.577	-1445.29	1	3983.047	-21.27597	3.781273E-007	0.0047723	7
	29	41	1265.625	3786.968	-1757.193	1	4174.788	-24.8918	1.076637E-006	0.003139	7
	30	42	998.264	3855.644	-2167.01	1	4422.886	-29.33755	3.783615E-007	0.0047662	7
	31	43	796.875	3942.755	-2654.209	1	4752.909	-33.9479	9.614099E-007	0.0026029	7
	32	45	627.7902	4059.504	-3272.815	1	5214.489	-38.87613	-1.079146E-006	0.0058275	7
	33	46	505.5147	4196.034	-3990.568	1	5790.625	-43.56231	9.870087E-007	0.0035692	7
	34	47	397.9953	4392.321	-4929.614	1	6602.543	-48.29874	5.288385E-009	0.004273	7
	35	49	315.5048	4639.454	-6059.592	1	7631.722	-52.56096	3.394486E-009	0.0042747	7
	36	50	252.4038	4947.49	-7381.826	1	8886.451	-56.16899	5.525876E-009	0.0042692	7
	37	52	198.6229	5383.036	-9110.745	1	10582.19	-59.4235	1.106456E-009	0.004212	6
	38	53	158.3615	5917.951	-11100.12	1	12579.14	-61.93599	1.111622E-009	0.0042116	6
	39	54	125.558	6631.298	-13559.1	1	15093.81	-63.9383	8.467718E-010	0.0042155	6
	40	56	100.4464	7513.302	-16404.17	1	18042.91	-65.39166	3.544062E-010	0.0042066	6
	41	57	79.00281	8789.711	-20045.28	1	21887.72	-66.3229	1.503891E-010	0.0042088	6
	42	59	63.3446	10435.26	-24175.64	1	26331.66	-66.65287	2.82935E-010	0.0042111	6
	43	60	49.86702	12249.41	-29305.31	1	31762.39	-67.31543	-7.649419E-011	0.004206	6
	44	61	39.72458	14905.91	-35024.56	1	38064.5	-66.94614	1.876019E-010	0.0042136	6
	45	63	31.6723	18219.66	-41620.58	1	45433.79	-66.35831	4.849608E-010	0.0042071	6
	46	64	24.93351	22511.54	-49806.73	1	54657.84	-65.67809	-3.212127E-010	0.0042107	6
	47	65	19.86229	27629.29	-58625.95	1	64810.34	-64.7664	6.107027E-010	0.0042088	6
	48	67	15.83615	33681.49	-68399.9	1	76242.96	-63.78344	1.523018E-010	0.0042103	6
	49	68	12.40079	41519.72	-80836.52	1	90875.91	-62.8138	2.176626E-010	0.0042093	6
	50	70	9.93114	49949.94	-92500.59	1	105125.4	-61.63113	4.021075E-010	0.0042212	5
	51	71	7.944915	59504.58	-106064.6	1	121616.2	-60.70661	8.181292E-010	0.0042202	5
	52	73	6.317385	69962.6	-121988.6	1	140627.2	-60.16498	5.751457E-010	0.0042311	5
	53	75	5.008013	81542.68	-140682.7	1	162606.4	-59.90251	5.686822E-010	0.0042209	5
	54	78	3.945707	94634.28	-163466.4	1	188883.3	-59.93251	2.294743E-010	0.0042119	5
	55	80	3.158693	107979.4	-188579.9	1	217306.1	-60.20487	1.810252E-010	0.0042295	5
	56	84	2.504006	123325	-220165.7	1	252352.9	-60.74479	2.366208E-010	0.0042031	5
	57	86	1.998082	139966.2	-256802.7	1	292469.1	-61.40812	-3.778406E-011	0.0042459	5
	58	89	1.584686	159266.3	-302875.2	1	342197.5	-62.26245	2.194671E-010	0.0042503	5
	59	93	1.266892	182036.9	-355638.8	1	399520.2	-62.89396	5.728079E-011	0.0042571	5
	60	97	0.999041	209106.1	-422903.8	1	471776.4	-63.68977	1.189141E-010	0.0041773	5
