EXPLAIN
TAG	EISPOT
TITLE	LABEL	Potentiostatic IDE	Test &Identifier
DATE	LABEL	9/8/2019	Date
TIME	LABEL	8:53:00	Time
NOTES	NOTES	1	&Notes...
	
PSTAT	PSTAT	REF600-11020	Potentiostat
VDC	POTEN	0.00000E+000	T	DC &Voltage (V)
FREQINIT	QUANT	1.00000E+006	Initial Fre&q. (Hz)
FREQFINAL	QUANT	1.00000E+000	Final Fre&q. (Hz)
PTSPERDEC	QUANT	1.00000E+001	Points/&decade
VAC	QUANT	2.50000E+001	AC &Voltage (mV rms)
AREA	QUANT	1.00000E-002	&Area (cm^2)
CONDIT	TWOPARAM	T	5.00000E+000	0.00000E+000	Conditionin&g	Time(s)	E(V)
DELAY	TWOPARAM	T	5.00000E+000	0.00000E+000	Init. De&lay	Time(s)	Stab.(mV/s)
SPEED	SELECTOR	1	&Optimize for:
ZGUESS	QUANT	1.00000E+007	E&stimated Z (ohms)
OCVCURVE	TABLE	19
	Pt	T	Vf	Vm	Ach	Over
	#	s	V vs. Ref.	V	V	bits
	0	0.258333	-7.58021E-004	-7.58021E-004	5.61632E-004	...........
	1	0.516667	-7.63435E-004	-1.04146E-003	5.61766E-004	...........
	2	0.775	-7.96610E-004	-1.30618E-003	5.60866E-004	...........
	3	1.03333	-8.89937E-004	-1.54613E-003	5.64099E-004	...........
	4	1.29167	-1.05520E-003	-1.77372E-003	5.58332E-004	...........
	5	1.55	-1.27156E-003	-1.98174E-003	5.60099E-004	...........
	6	1.80833	-1.50665E-003	-2.18467E-003	5.60699E-004	...........
	7	2.06667	-1.73780E-003	-2.37350E-003	5.60532E-004	...........
	8	2.325	-1.95601E-003	-2.55880E-003	5.60166E-004	...........
	9	2.58333	-2.16075E-003	-2.73398E-003	5.56633E-004	...........
	10	2.84167	-2.35430E-003	-2.90374E-003	5.53933E-004	...........
	11	3.1	-2.53879E-003	-3.06369E-003	5.59099E-004	...........
	12	3.35833	-2.71536E-003	-3.21746E-003	5.56499E-004	...........
	13	3.61667	-2.88438E-003	-3.36413E-003	5.57566E-004	...........
	14	3.875	-3.04576E-003	-3.49241E-003	5.57966E-004	...........
	15	4.13333	-3.19844E-003	-3.59834E-003	5.62366E-004	...........
	16	4.39167	-3.34012E-003	-3.70449E-003	5.60132E-004	...........
	17	4.65	-3.46901E-003	-3.80761E-003	5.63499E-004	...........
	18	4.90833	-3.58619E-003	-3.90864E-003	5.61666E-004	...........
EOC	QUANT	-0.0035862	Open Circuit (V)
PSTATMODEL	IQUANT	4	Pstat Model
PSTATSECTION	LABEL	REF600-11020	Pstat Section
PSTATSERIALNO	LABEL	11020	Pstat Serial Number
CTRLMODE	IQUANT	1	Control Mode
IESTAB	IQUANT	0	I/E Stability
CASPEED	IQUANT	1	Control Amp Speed
CONVENTION	IQUANT	1	Current Convention
ICHRANGE	IQUANT	2	Ich Range
ICHRANGEMODE	TOGGLE	F	Ich Auto Range
ICHOFFSETENABLE	TOGGLE	T	Ich Offset Enable
ICHOFFSET	QUANT	0	Ich Offset (V)
ICHFILTER	IQUANT	3	Ich Filter
VCHRANGE	IQUANT	2	Vch Range
VCHRANGEMODE	TOGGLE	F	Vch Auto Range
VCHOFFSETENABLE	TOGGLE	T	Vch Offset Enable
VCHOFFSET	QUANT	0	Vch Offset (V)
VCHFILTER	IQUANT	3	Vch Filter
ACHRANGE	IQUANT	2	Ach Range
ACHOFFSETENABLE	TOGGLE	F	Ach Offset Enable
ACHOFFSET	QUANT	0	Ach Offset (V)
ACHFILTER	IQUANT	3	Ach Filter
IERANGELOWERLIMIT	IQUANT	1	I/E Range Lower Limit
IERANGEMODE	TOGGLE	F	I/E AutoRange
IERANGE	IQUANT	2	I/E Range
POSFEEDENABLE	TOGGLE	F	Positive Feedback IR Comp
POSFEEDRESISTANCE	QUANT	0	Positive Feedback Resistance (ohm)
ACHSELECT	IQUANT	0	Ach Select
CABLEID	IQUANT	14	Cable ID
DCCALDATE	LABEL	8/19/2019	DC Calibration Date
ACCALDATE	LABEL	8/19/2019	AC Calibration Date
THERMOSELECT	IQUANT	1	Thermo Select
FRAMEWORKVERSION	QUANT	6.33	Framework Version
INSTRUMENTVERSION	LABEL	3.50	Instrument Version
ZCURVE	TABLE
	Pt	Time	Freq	Zreal	Zimag	Zsig	Zmod	Zphz	Idc	Vdc	IERange
	#	s	Hz	ohm	ohm	V	ohm	°	A	V	#
	0	2	1000078	2590.963	-1510.964	1	2999.35	-30.24932	6.589189E-007	-0.0013625	8
	1	3	794390.6	2873.645	-1396.089	1	3194.824	-25.91164	4.753461E-007	-0.0015614	8
	2	5	630984.4	3094.959	-1244.615	1	3335.841	-21.90716	6.474902E-006	-0.0028093	8
	3	6	501234.4	3284.603	-1116.488	1	3469.173	-18.7737	-6.747676E-008	-0.001898	8
	4	8	398109.4	3413.923	-974.529	1	3550.292	-15.93178	1.558098E-006	-0.0020888	8
	5	9	316265.6	3544.769	-828.2849	1	3640.253	-13.15199	-1.728282E-006	-0.0015472	8
	6	10	251203.1	3623.095	-718.5269	1	3693.657	-11.21727	-5.181398E-006	-0.0006934	8
	7	12	199546.9	3696.586	-638.6408	1	3751.348	-9.80195	-1.05928E-006	-0.0014487	8
	8	13	158578.1	3720.186	-560.8636	1	3762.227	-8.573472	9.843392E-007	-0.0021059	8
	9	15	125953.1	3810.369	-460.8621	1	3838.138	-6.896395	5.40587E-007	-0.003245	7
	10	16	100078.1	3822.049	-431.7192	1	3846.354	-6.444524	-1.430433E-008	-0.001843	7
	11	17	79453.13	3857.391	-421.2757	1	3880.327	-6.23272	8.80081E-008	-0.0020595	7
	12	19	63140.62	3893.596	-420.823	1	3916.272	-6.168629	5.152809E-008	-0.0020765	7
	13	20	50203.12	3929.834	-431.0323	1	3953.402	-6.259299	1.479709E-007	-0.0021228	7
	14	21	39890.62	3965.546	-453.5027	1	3991.393	-6.524044	3.333973E-008	-0.0019346	7
	15	23	31640.63	4012.071	-481.9805	1	4040.918	-6.850263	-5.917603E-008	-0.0018016	7
	16	24	25171.88	4058.032	-522.9227	1	4091.586	-7.342735	-4.684621E-008	-0.0018807	7
	17	25	20015.62	4109.336	-575.245	1	4149.403	-7.968762	-1.216494E-008	-0.001864	7
	18	27	15890.62	4166.664	-639.1688	1	4215.403	-8.721223	-4.535228E-008	-0.0018826	7
	19	28	12609.37	4231.771	-717.433	1	4292.155	-9.62215	-7.604957E-009	-0.0018677	7
	20	29	10078.13	4303.134	-808.3769	1	4378.406	-10.63945	9.449489E-008	-0.0020755	7
	21	31	8015.625	4377.71	-914.2012	1	4472.148	-11.79561	-6.043402E-008	-0.0018303	7
	22	32	6328.125	4463.953	-1046.042	1	4584.875	-13.18821	5.984332E-008	-0.002082	7
	23	33	5015.625	4561.433	-1202.845	1	4717.362	-14.77255	-6.282904E-009	-0.0018689	7
	24	35	3984.375	4665.876	-1385.637	1	4867.278	-16.53997	-3.166603E-008	-0.0019102	7
	25	36	3170.956	4782.145	-1603.357	1	5043.775	-18.53527	3.125816E-008	-0.002027	7
	26	37	2527.573	4911.91	-1862.515	1	5253.173	-20.7659	-1.435899E-008	-0.0017912	7
	27	39	1976.103	5067.917	-2200.591	1	5525.068	-23.47145	-2.971578E-008	-0.0017945	7
	28	40	1577.524	5234.436	-2571.984	1	5832.188	-26.16759	-4.758542E-008	-0.0018866	7
	29	41	1265.625	5418.439	-3007.666	1	6197.22	-29.03377	-4.608052E-008	-0.0018902	7
	30	43	998.264	5640.375	-3570.505	1	6675.503	-32.33488	-4.223311E-008	-0.0018882	7
	31	44	796.875	5883.001	-4216.149	1	7237.791	-35.6279	-1.306994E-008	-0.0017878	7
	32	46	627.7902	6180.846	-5033.827	1	7971.341	-39.16019	-4.870551E-008	-0.0018466	7
	33	47	505.5147	6478.14	-5955.849	1	8799.91	-42.5947	-5.794716E-008	-0.001814	7
	34	48	397.9953	6878.824	-7146.609	1	9919.29	-46.09381	6.842268E-009	-0.0019041	7
	35	49	315.5048	7325.957	-8570.448	1	11274.85	-49.47642	2.29037E-009	-0.0019651	6
	36	51	252.4038	7823.468	-10234.4	1	12882.14	-52.60467	1.456141E-009	-0.0019685	6
	37	52	198.6229	8453.542	-12412.3	1	15017.57	-55.74272	1.870674E-009	-0.0019607	6
	38	53	158.3615	9163.992	-14926.71	1	17515.29	-58.45288	1.341811E-009	-0.0019683	6
	39	55	125.558	10055.05	-18065.03	1	20674.84	-60.89955	1.864932E-009	-0.0019653	6
	40	56	100.4464	11089.24	-21746.94	1	24411.08	-62.98196	2.278514E-009	-0.0019722	6
	41	57	79.00281	12524.38	-26501.55	1	29311.98	-64.70502	2.110762E-009	-0.0019694	6
	42	59	63.3446	14180.69	-32186.31	1	35171.73	-66.2226	1.660288E-009	-0.0019692	6
	43	60	49.86702	16044.01	-38856.47	1	42038.5	-67.56404	1.961656E-009	-0.0019697	6
	44	62	39.72458	19092.83	-46728.92	1	50478.98	-67.77571	1.72159E-009	-0.0019693	6
	45	63	31.6723	22327.06	-56322.68	1	60586.65	-68.37596	1.644262E-009	-0.0019655	6
	46	64	24.93351	26989.12	-68404.55	1	73536.36	-68.46822	1.263E-009	-0.0019698	6
	47	66	19.86229	32648.31	-82189.54	1	88436.6	-68.33544	2.120562E-009	-0.0019643	6
	48	67	15.83615	39245	-97806.3	1	105386.1	-68.13676	1.665162E-009	-0.0019691	5
	49	68	12.40079	49356.33	-118497.6	1	128365.6	-67.38742	1.849047E-009	-0.0019668	5
	50	70	9.93114	60435.09	-140571.9	1	153012.6	-66.73602	1.20855E-009	-0.0019619	5
	51	71	7.944915	74079.7	-165357.1	1	181192.6	-65.8677	1.894296E-009	-0.0019651	5
	52	73	6.317385	92791.99	-195253	1	216180.7	-64.58108	1.132346E-009	-0.0019549	5
	53	75	5.008013	115473.5	-229444.3	1	256863.4	-63.28504	1.182011E-009	-0.0019585	5
	54	77	3.945707	144275.9	-269276.2	1	305491.8	-61.81798	5.365677E-010	-0.0019708	5
	55	80	3.158693	177543.1	-310253.2	1	357461.3	-60.21955	8.434969E-010	-0.0019687	5
	56	83	2.504006	218342.4	-356789.2	1	418296.5	-58.53484	7.528E-010	-0.0019629	5
	57	86	1.998082	264411.6	-405580.4	1	484158	-56.89831	1.13169E-009	-0.0019554	5
	58	89	1.584686	320842.7	-459006.4	1	560024	-55.04669	8.094408E-010	-0.002012	5
	59	93	1.266892	382318.5	-516178	1	642345.1	-53.47369	9.694255E-010	-0.0019586	5
	60	97	0.999041	456452.3	-578356.1	1	736779.8	-51.71867	2.616365E-010	-0.0020023	5
