EXPLAIN
TAG	EISPOT
TITLE	LABEL	Potentiostatic EIS	Test &Identifier
DATE	LABEL	9/26/2019	Date
TIME	LABEL	9:59:11	Time
NOTES	NOTES	2	&Notes...
	
	
PSTAT	PSTAT	REF600-11020	Potentiostat
VDC	POTEN	0.00000E+000	T	DC &Voltage (V)
FREQINIT	QUANT	1.00000E+006	Initial Fre&q. (Hz)
FREQFINAL	QUANT	1.00000E+000	Final Fre&q. (Hz)
PTSPERDEC	QUANT	1.00000E+001	Points/&decade
VAC	QUANT	2.50000E+001	AC &Voltage (mV rms)
AREA	QUANT	1.00000E-002	&Area (cm^2)
CONDIT	TWOPARAM	T	5.00000E+000	0.00000E+000	Conditionin&g	Time(s)	E(V)
DELAY	TWOPARAM	T	5.00000E+000	0.00000E+000	Init. De&lay	Time(s)	Stab.(mV/s)
SPEED	SELECTOR	1	&Optimize for:
ZGUESS	QUANT	1.00000E+004	E&stimated Z (ohms)
OCVCURVE	TABLE	19
	Pt	T	Vf	Vm	Ach	Over
	#	s	V vs. Ref.	V	V	bits
	0	0.258333	6.65810E-002	6.65810E-002	5.74499E-004	...........
	1	0.516667	6.66725E-002	7.13740E-002	5.70366E-004	...........
	2	0.775	6.72310E-002	7.57184E-002	5.72332E-004	...........
	3	1.03333	6.87953E-002	7.97371E-002	5.75966E-004	...........
	4	1.29167	7.15548E-002	8.34719E-002	5.77366E-004	...........
	5	1.55	7.51576E-002	8.70226E-002	5.76399E-004	...........
	6	1.80833	7.90692E-002	9.03640E-002	5.72599E-004	...........
	7	2.06667	8.29191E-002	9.35237E-002	5.73799E-004	...........
	8	2.325	8.65565E-002	9.65128E-002	5.71532E-004	...........
	9	2.58333	8.99611E-002	9.93769E-002	5.72332E-004	...........
	10	2.84167	9.31599E-002	1.02119E-001	5.72632E-004	...........
	11	3.1	9.61865E-002	1.04734E-001	5.73299E-004	...........
	12	3.35833	9.90669E-002	1.07237E-001	5.74132E-004	...........
	13	3.61667	1.01816E-001	1.09586E-001	5.73232E-004	...........
	14	3.875	1.04441E-001	1.11832E-001	5.68532E-004	...........
	15	4.13333	1.06945E-001	1.14195E-001	5.67999E-004	...........
	16	4.39167	1.09345E-001	1.16291E-001	5.73432E-004	...........
	17	4.65	1.11663E-001	1.18337E-001	5.75699E-004	...........
	18	4.90833	1.13903E-001	1.20312E-001	5.74399E-004	...........
EOC	QUANT	0.1139029	Open Circuit (V)
PSTATMODEL	IQUANT	4	Pstat Model
PSTATSECTION	LABEL	REF600-11020	Pstat Section
PSTATSERIALNO	LABEL	11020	Pstat Serial Number
CTRLMODE	IQUANT	1	Control Mode
IESTAB	IQUANT	0	I/E Stability
CASPEED	IQUANT	1	Control Amp Speed
CONVENTION	IQUANT	1	Current Convention
ICHRANGE	IQUANT	2	Ich Range
ICHRANGEMODE	TOGGLE	F	Ich Auto Range
ICHOFFSETENABLE	TOGGLE	T	Ich Offset Enable
ICHOFFSET	QUANT	0	Ich Offset (V)
ICHFILTER	IQUANT	3	Ich Filter
VCHRANGE	IQUANT	2	Vch Range
VCHRANGEMODE	TOGGLE	F	Vch Auto Range
VCHOFFSETENABLE	TOGGLE	T	Vch Offset Enable
VCHOFFSET	QUANT	0	Vch Offset (V)
VCHFILTER	IQUANT	3	Vch Filter
ACHRANGE	IQUANT	2	Ach Range
ACHOFFSETENABLE	TOGGLE	F	Ach Offset Enable
ACHOFFSET	QUANT	0	Ach Offset (V)
ACHFILTER	IQUANT	3	Ach Filter
IERANGELOWERLIMIT	IQUANT	1	I/E Range Lower Limit
IERANGEMODE	TOGGLE	F	I/E AutoRange
IERANGE	IQUANT	7	I/E Range
POSFEEDENABLE	TOGGLE	F	Positive Feedback IR Comp
POSFEEDRESISTANCE	QUANT	0	Positive Feedback Resistance (ohm)
ACHSELECT	IQUANT	0	Ach Select
CABLEID	IQUANT	14	Cable ID
DCCALDATE	LABEL	8/19/2019	DC Calibration Date
ACCALDATE	LABEL	8/19/2019	AC Calibration Date
THERMOSELECT	IQUANT	1	Thermo Select
FRAMEWORKVERSION	QUANT	6.33	Framework Version
INSTRUMENTVERSION	LABEL	3.50	Instrument Version
ZCURVE	TABLE
	Pt	Time	Freq	Zreal	Zimag	Zsig	Zmod	Zphz	Idc	Vdc	IERange
	#	s	Hz	ohm	ohm	V	ohm	°	A	V	#
	0	1	1000078	1433.256	-1012.185	1	1754.634	-35.23026	4.748934E-007	0.1161966	8
	1	2	794390.6	1618.463	-1020.612	1	1913.392	-32.23575	6.703675E-007	0.1156369	8
	2	4	630984.4	1799.684	-996.438	1	2057.122	-28.97216	-3.570771E-006	0.1162089	8
	3	5	501234.4	1981.319	-960.036	1	2201.657	-25.85223	-5.071859E-007	0.1158451	8
	4	7	398109.4	2148.993	-909.4844	1	2333.524	-22.93877	1.56655E-006	0.11518	8
	5	8	316265.6	2290.451	-852.5962	1	2443.99	-20.41725	-1.040966E-007	0.1155905	8
	6	9	251203.1	2427.247	-786.6633	1	2551.542	-17.95735	6.392809E-007	0.115373	8
	7	11	199546.9	2531.627	-724.7827	1	2633.333	-15.97596	2.074256E-006	0.1150794	8
	8	12	158578.1	2625.086	-670.8334	1	2709.445	-14.33499	6.759349E-007	0.1155563	8
	9	13	125953.1	2737.028	-582.2123	1	2798.266	-12.00879	-7.076346E-007	0.1168867	7
	10	15	100078.1	2809.765	-528.6769	1	2859.069	-10.65602	5.844936E-008	0.1153435	7
	11	16	79453.13	2874.439	-492.9575	1	2916.403	-9.73138	5.78399E-008	0.1153381	7
	12	18	63140.62	2929.935	-463.6013	1	2966.385	-8.991325	1.119051E-007	0.1153025	7
	13	19	50203.12	2982.903	-438.8546	1	3015.013	-8.369503	-1.811267E-008	0.1155234	7
	14	20	39890.62	3029.137	-419.4467	1	3058.04	-7.883655	-4.754567E-009	0.1154236	7
	15	22	31640.63	3071.331	-410.0923	1	3098.588	-7.605303	-5.030142E-008	0.1156164	7
	16	23	25171.88	3111.76	-407.7865	1	3138.366	-7.465889	1.132396E-007	0.1152964	7
	17	24	20015.62	3149.798	-414.9117	1	3177.008	-7.504164	-4.387867E-008	0.1154943	7
	18	26	15890.62	3188.211	-431.5632	1	3217.288	-7.708826	1.129271E-007	0.1152969	7
	19	27	12609.37	3229.503	-459.2454	1	3261.993	-8.093375	-1.348703E-008	0.1155093	7
	20	29	10078.13	3269.466	-496.4519	1	3306.943	-8.63412	-4.56195E-008	0.1154879	7
	21	30	8015.625	3312.111	-545.9796	1	3356.81	-9.360649	-1.614049E-008	0.1155896	7
	22	31	6328.125	3359.821	-612.6632	1	3415.224	-10.33434	-4.901058E-008	0.1155076	7
	23	33	5015.625	3411.003	-693.9367	1	3480.875	-11.49936	5.898379E-008	0.1153591	7
	24	34	3984.375	3467.598	-794.2402	1	3557.394	-12.90085	-7.912812E-009	0.1154888	7
	25	35	3170.956	3528.924	-916.1066	1	3645.895	-14.55272	-4.747286E-008	0.1155599	7
	26	37	2527.573	3595.857	-1062.001	1	3749.405	-16.45399	-1.435743E-008	0.1155093	7
	27	38	1976.103	3678.468	-1255.179	1	3886.721	-18.84084	2.589489E-008	0.1154317	7
	28	40	1577.524	3766.7	-1474.002	1	4044.837	-21.37162	1.167182E-007	0.1152903	7
	29	41	1265.625	3863.523	-1727.525	1	4232.157	-24.0912	6.015739E-008	0.1153599	7
	30	42	998.264	3983.378	-2060.447	1	4484.723	-27.35077	7.004174E-008	0.1154291	7
	31	44	796.875	4114.905	-2438.122	1	4782.978	-30.64716	-4.852459E-008	0.115518	7
	32	45	627.7902	4276.751	-2926.168	1	5181.994	-34.38007	6.281158E-008	0.1153242	7
	33	46	505.5147	4443.399	-3461.615	1	5632.634	-37.92025	6.09966E-008	0.1153594	7
	34	48	397.9953	4653.306	-4177.316	1	6253.257	-41.91462	-2.770008E-009	0.115495	7
	35	49	315.5048	4887.111	-5026.254	1	7010.499	-45.80415	-2.023464E-009	0.1154973	7
	36	51	252.4038	5146.833	-6023.247	1	7922.714	-49.48628	-3.180742E-009	0.1154851	7
	37	52	198.6229	5472.45	-7339.56	1	9155.154	-53.29142	-3.276686E-009	0.115492	7
	38	53	158.3615	5845.698	-8876.488	1	10628.46	-56.63271	-6.467492E-009	0.115427	6
	39	55	125.558	6317.126	-10810.35	1	12520.77	-59.69972	-6.596572E-009	0.1154259	6
	40	56	100.4464	6880.473	-13080.3	1	14779.55	-62.25483	-6.010686E-009	0.1154298	6
	41	57	79.00281	7667.794	-16079.68	1	17814.35	-64.50528	-7.166931E-009	0.1154304	6
	42	59	63.3446	8766.824	-19475.11	1	21357.37	-65.76485	-6.40008E-009	0.1154269	6
	43	60	49.86702	9900.75	-23949.69	1	25915.49	-67.53989	-6.342908E-009	0.1154283	6
	44	62	39.72458	11706.35	-29011.51	1	31284.28	-68.02558	-5.365056E-009	0.115427	6
	45	63	31.6723	13942.91	-35052.11	1	37723.4	-68.30849	-6.554327E-009	0.1154256	6
	46	65	24.93351	17185.15	-42627.09	1	45960.83	-68.04313	-6.661083E-009	0.115429	6
	47	66	19.86229	21166.85	-51039.13	1	55254.21	-67.47533	-5.258794E-009	0.1154228	6
	48	67	15.83615	26085.49	-60630.37	1	66003.74	-66.72079	-5.878794E-009	0.1154241	6
	49	69	12.40079	33155.06	-72963.84	1	80143.5	-65.56277	-5.248684E-009	0.1154338	6
	50	70	9.93114	41733.66	-84798.81	1	94512.1	-63.79594	-5.884544E-009	0.1154264	6
	51	72	7.944915	51395.83	-98013.6	1	110671.5	-62.32862	-6.710088E-009	0.1154334	5
	52	73	6.317385	63759.2	-113008	1	129753.8	-60.56828	-5.566641E-009	0.115419	5
	53	75	5.008013	78126.38	-129422.9	1	151175.5	-58.88265	-5.82679E-009	0.1154342	5
	54	78	3.945707	94522.33	-147621.4	1	175289.9	-57.36847	-5.896507E-009	0.1154369	5
	55	81	3.158693	111811.4	-166174.7	1	200289.4	-56.06518	-5.440153E-009	0.1154273	5
	56	84	2.504006	131258.3	-188125.1	1	229390	-55.09583	-5.233854E-009	0.115444	5
	57	87	1.998082	152077.7	-212113.5	1	260997.6	-54.36085	-4.617981E-009	0.115407	5
	58	90	1.584686	175798.2	-241538.4	1	298740.4	-53.95186	-5.267189E-009	0.1154123	5
	59	94	1.266892	202746.9	-273519.8	1	340469.3	-53.45226	-4.719359E-009	0.1153913	5
	60	98	0.999041	234022.8	-313678	1	391357.3	-53.27482	-4.941447E-009	0.1154638	5
