EXPLAIN
TAG	EISPOT
TITLE	LABEL	Potentiostatic IDE	Test &Identifier
DATE	LABEL	9/8/2019	Date
TIME	LABEL	7:37:27	Time
NOTES	NOTES	1	&Notes...
	
PSTAT	PSTAT	REF600-11020	Potentiostat
VDC	POTEN	0.00000E+000	T	DC &Voltage (V)
FREQINIT	QUANT	1.00000E+006	Initial Fre&q. (Hz)
FREQFINAL	QUANT	1.00000E+000	Final Fre&q. (Hz)
PTSPERDEC	QUANT	1.00000E+001	Points/&decade
VAC	QUANT	2.50000E+001	AC &Voltage (mV rms)
AREA	QUANT	1.00000E-002	&Area (cm^2)
CONDIT	TWOPARAM	T	5.00000E+000	0.00000E+000	Conditionin&g	Time(s)	E(V)
DELAY	TWOPARAM	T	5.00000E+000	0.00000E+000	Init. De&lay	Time(s)	Stab.(mV/s)
SPEED	SELECTOR	1	&Optimize for:
ZGUESS	QUANT	1.00000E+007	E&stimated Z (ohms)
OCVCURVE	TABLE	19
	Pt	T	Vf	Vm	Ach	Over
	#	s	V vs. Ref.	V	V	bits
	0	0.258333	3.58884E-002	3.58884E-002	5.67166E-004	...........
	1	0.516667	3.59362E-002	3.83918E-002	5.70966E-004	...........
	2	0.775	3.62292E-002	4.07285E-002	5.66499E-004	...........
	3	1.03333	3.70545E-002	4.29096E-002	5.68566E-004	...........
	4	1.29167	3.85204E-002	4.49434E-002	5.72032E-004	...........
	5	1.55	4.04484E-002	4.68534E-002	5.69032E-004	...........
	6	1.80833	4.25553E-002	4.87072E-002	5.65466E-004	...........
	7	2.06667	4.46397E-002	5.04046E-002	5.66232E-004	...........
	8	2.325	4.66164E-002	5.20380E-002	5.73732E-004	...........
	9	2.58333	4.84732E-002	5.37564E-002	5.69699E-004	...........
	10	2.84167	5.02294E-002	5.51658E-002	5.72766E-004	...........
	11	3.1	5.19042E-002	5.65957E-002	5.72132E-004	...........
	12	3.35833	5.34953E-002	5.77726E-002	5.70532E-004	...........
	13	3.61667	5.49902E-002	5.91853E-002	5.72399E-004	...........
	14	3.875	5.63907E-002	6.02459E-002	5.72599E-004	...........
	15	4.13333	5.77137E-002	6.15177E-002	5.70232E-004	...........
	16	4.39167	5.89785E-002	6.27204E-002	5.70199E-004	...........
	17	4.65	6.02059E-002	6.39059E-002	5.70732E-004	...........
	18	4.90833	6.14134E-002	6.49853E-002	5.71866E-004	...........
EOC	QUANT	0.0614134	Open Circuit (V)
PSTATMODEL	IQUANT	4	Pstat Model
PSTATSECTION	LABEL	REF600-11020	Pstat Section
PSTATSERIALNO	LABEL	11020	Pstat Serial Number
CTRLMODE	IQUANT	1	Control Mode
IESTAB	IQUANT	0	I/E Stability
CASPEED	IQUANT	1	Control Amp Speed
CONVENTION	IQUANT	1	Current Convention
ICHRANGE	IQUANT	2	Ich Range
ICHRANGEMODE	TOGGLE	F	Ich Auto Range
ICHOFFSETENABLE	TOGGLE	T	Ich Offset Enable
ICHOFFSET	QUANT	0	Ich Offset (V)
ICHFILTER	IQUANT	3	Ich Filter
VCHRANGE	IQUANT	2	Vch Range
VCHRANGEMODE	TOGGLE	F	Vch Auto Range
VCHOFFSETENABLE	TOGGLE	T	Vch Offset Enable
VCHOFFSET	QUANT	0	Vch Offset (V)
VCHFILTER	IQUANT	3	Vch Filter
ACHRANGE	IQUANT	2	Ach Range
ACHOFFSETENABLE	TOGGLE	F	Ach Offset Enable
ACHOFFSET	QUANT	0	Ach Offset (V)
ACHFILTER	IQUANT	3	Ach Filter
IERANGELOWERLIMIT	IQUANT	1	I/E Range Lower Limit
IERANGEMODE	TOGGLE	F	I/E AutoRange
IERANGE	IQUANT	4	I/E Range
POSFEEDENABLE	TOGGLE	F	Positive Feedback IR Comp
POSFEEDRESISTANCE	QUANT	0	Positive Feedback Resistance (ohm)
ACHSELECT	IQUANT	0	Ach Select
CABLEID	IQUANT	14	Cable ID
DCCALDATE	LABEL	8/19/2019	DC Calibration Date
ACCALDATE	LABEL	8/19/2019	AC Calibration Date
THERMOSELECT	IQUANT	1	Thermo Select
FRAMEWORKVERSION	QUANT	6.33	Framework Version
INSTRUMENTVERSION	LABEL	3.50	Instrument Version
ZCURVE	TABLE
	Pt	Time	Freq	Zreal	Zimag	Zsig	Zmod	Zphz	Idc	Vdc	IERange
	#	s	Hz	ohm	ohm	V	ohm	°	A	V	#
	0	2	1000078	2255.167	-911.0256	1	2432.23	-21.99736	-3.914795E-006	0.0642613	8
	1	4	794390.6	2404.813	-799.1014	1	2534.104	-18.38127	2.867313E-006	0.0631055	8
	2	5	630984.4	2492.762	-693.9217	1	2587.546	-15.55585	-2.915531E-006	0.0636121	8
	3	6	501234.4	2570.213	-597.9384	1	2638.849	-13.09643	-3.594393E-007	0.0635324	8
	4	8	398109.4	2634.955	-515.4607	1	2684.9	-11.06865	-7.066182E-007	0.0633284	8
	5	9	316265.6	2670.608	-458.7112	1	2709.717	-9.74618	1.849292E-006	0.0628119	8
	6	10	251203.1	2710.789	-408.9295	1	2741.46	-8.578533	-7.681841E-007	0.0634027	8
	7	12	199546.9	2744.386	-363.1686	1	2768.311	-7.538235	5.5928E-007	0.0629863	8
	8	13	158578.1	2774.515	-334.6556	1	2794.625	-6.877659	5.381244E-007	0.0629892	8
	9	14	125953.1	2811.909	-291.4044	1	2826.969	-5.916569	-1.19386E-006	0.0654294	7
	10	16	100078.1	2830.572	-288.1018	1	2845.196	-5.811676	-3.957182E-008	0.0631644	7
	11	17	79453.13	2854.984	-299.4705	1	2870.648	-5.988081	-3.788102E-008	0.0631322	7
	12	18	63140.62	2884.625	-317.6137	1	2902.058	-6.283283	-8.228479E-009	0.0631256	7
	13	20	50203.12	2915.614	-341.5785	1	2935.555	-6.682022	-2.389777E-008	0.0632173	7
	14	21	39890.62	2949.968	-371.1584	1	2973.226	-7.171144	-3.725897E-008	0.0631453	7
	15	22	31640.63	2990.489	-410.3658	1	3018.514	-7.813536	-3.826383E-008	0.0631274	7
	16	24	25171.88	3034.197	-457.1972	1	3068.449	-8.568947	1.653115E-008	0.0630278	7
	17	25	20015.62	3083.127	-512.7379	1	3125.472	-9.44213	-3.843494E-009	0.0631171	7
	18	26	15890.62	3138.095	-579.337	1	3191.124	-10.45984	-2.049481E-009	0.0630456	7
	19	28	12609.37	3199.927	-654.5803	1	3266.192	-11.56098	1.700779E-008	0.0630215	7
	20	29	10078.13	3265.24	-741.2205	1	3348.313	-12.78959	6.68177E-008	0.0629517	7
	21	30	8015.625	3341.155	-844.4819	1	3446.225	-14.18452	-5.619125E-008	0.0631719	7
	22	32	6328.125	3426.049	-968.91	1	3560.421	-15.79127	1.0925E-007	0.0629265	7
	23	33	5015.625	3518.614	-1113.56	1	3690.618	-17.56137	-3.705895E-008	0.0631231	7
	24	34	3984.375	3619.913	-1283.386	1	3840.684	-19.52121	5.251265E-008	0.0630777	7
	25	36	3170.956	3730.453	-1483.604	1	4014.644	-21.68775	-2.196472E-008	0.0630938	7
	26	37	2527.573	3850.37	-1720.886	1	4217.439	-24.0818	-5.657803E-009	0.0631134	7
	27	39	1976.103	3995.847	-2031.111	1	4482.433	-26.94448	-5.489266E-008	0.0631715	7
	28	40	1577.524	4143.336	-2374.56	1	4775.539	-29.81717	6.279369E-008	0.0629745	7
	29	41	1265.625	4305.206	-2779.372	1	5124.422	-32.84565	-4.31254E-008	0.0631708	7
	30	42	998.264	4502.775	-3307.526	1	5587.013	-36.29925	-3.354703E-008	0.0631244	7
	31	44	796.875	4715.845	-3917.553	1	6130.776	-39.71714	-1.661871E-008	0.063135	7
	32	45	627.7902	4981.754	-4709.915	1	6855.74	-43.39335	-5.319103E-008	0.0631689	7
	33	46	505.5147	5273.506	-5568.491	1	7669.286	-46.5585	1.587762E-008	0.0630206	7
	34	48	397.9953	5639.868	-6741.509	1	8789.542	-50.08454	3.251866E-009	0.0631083	7
	35	49	315.5048	6087.283	-8120.241	1	10148.56	-53.14319	-2.701993E-009	0.0630528	6
	36	50	252.4038	6612.41	-9723.39	1	11758.75	-55.78225	-2.419364E-009	0.0630508	6
	37	52	198.6229	7312.402	-11802.83	1	13884.45	-58.21985	-2.172607E-009	0.0630502	6
	38	53	158.3615	8146.243	-14175.14	1	16349.19	-60.11466	-2.115098E-009	0.0630501	6
	39	54	125.558	9216.355	-17086.7	1	19413.82	-61.65812	-2.32657E-009	0.0630503	6
	40	56	100.4464	10527.2	-20408.29	1	22963.46	-62.71399	-2.773016E-009	0.0630519	6
	41	57	79.00281	12313.71	-24641.14	1	27546.56	-63.44772	-2.300221E-009	0.063049	6
	42	58	63.3446	14345.11	-29396.65	1	32710.02	-63.98834	-2.824029E-009	0.06305	6
	43	60	49.86702	17077.88	-34899.4	1	38853.86	-63.92537	-3.005384E-009	0.0630412	6
	44	61	39.72458	20361.98	-41323.49	1	46067.79	-63.76841	-2.284978E-009	0.06305	6
	45	63	31.6723	24095.17	-48562.66	1	54211.7	-63.61093	-2.50448E-009	0.0630455	6
	46	64	24.93351	28836.01	-57449.49	1	64280.32	-63.34624	-2.492116E-009	0.0630476	6
	47	65	19.86229	33971.27	-67280.16	1	75370.2	-63.20976	-2.111266E-009	0.0630553	6
	48	67	15.83615	39578.95	-78746.32	1	88133.28	-63.31529	-2.462796E-009	0.0630483	6
	49	68	12.40079	47772.4	-93385.99	1	104895.9	-62.9076	-3.971143E-009	0.0630554	5
	50	69	9.93114	55580.11	-109487.4	1	122786.9	-63.08585	-3.480266E-009	0.0630576	5
	51	71	7.944915	65012.1	-127939.1	1	143509.6	-63.06266	-2.363854E-009	0.0630521	5
	52	73	6.317385	77122.17	-150727.4	1	169312	-62.90269	-2.989051E-009	0.0630402	5
	53	75	5.008013	91870.9	-177877.8	1	200201.8	-62.6844	-3.68614E-009	0.0630469	5
	54	77	3.945707	110535.7	-210066.1	1	237372.9	-62.24689	-3.155001E-009	0.0630576	5
	55	80	3.158693	131890.3	-245342	1	278545.8	-61.73853	-3.635785E-009	0.0630391	5
	56	83	2.504006	159420.9	-286751.3	1	328087.4	-60.92791	-2.975021E-009	0.063052	5
	57	86	1.998082	191210.3	-332237.9	1	383332	-60.07861	-3.48753E-009	0.0630926	5
	58	89	1.584686	229336.7	-385526.8	1	448582.5	-59.25303	-3.189634E-009	0.0630826	5
	59	92	1.266892	273457.6	-442531.4	1	520204.8	-58.28645	-3.483102E-009	0.0630858	5
	60	97	0.999041	327641.4	-510077.7	1	606241	-57.2859	-3.044734E-009	0.0630507	5
