EXPLAIN
TAG	EISPOT
TITLE	LABEL	Potentiostatic EIS	Test &Identifier
DATE	LABEL	9/26/2019	Date
TIME	LABEL	8:40:35	Time
NOTES	NOTES	2	&Notes...
	
	
PSTAT	PSTAT	REF600-11020	Potentiostat
VDC	POTEN	0.00000E+000	T	DC &Voltage (V)
FREQINIT	QUANT	1.00000E+006	Initial Fre&q. (Hz)
FREQFINAL	QUANT	1.00000E+000	Final Fre&q. (Hz)
PTSPERDEC	QUANT	1.00000E+001	Points/&decade
VAC	QUANT	2.50000E+001	AC &Voltage (mV rms)
AREA	QUANT	1.00000E-002	&Area (cm^2)
CONDIT	TWOPARAM	T	5.00000E+000	0.00000E+000	Conditionin&g	Time(s)	E(V)
DELAY	TWOPARAM	T	5.00000E+000	0.00000E+000	Init. De&lay	Time(s)	Stab.(mV/s)
SPEED	SELECTOR	1	&Optimize for:
ZGUESS	QUANT	1.00000E+004	E&stimated Z (ohms)
OCVCURVE	TABLE	19
	Pt	T	Vf	Vm	Ach	Over
	#	s	V vs. Ref.	V	V	bits
	0	0.258333	3.08785E-002	3.08785E-002	5.31280E-004	...........
	1	0.516667	3.09137E-002	3.27205E-002	5.40346E-004	...........
	2	0.775	3.11273E-002	3.43362E-002	5.41180E-004	...........
	3	1.03333	3.17227E-002	3.58556E-002	5.32246E-004	...........
	4	1.29167	3.27674E-002	3.72192E-002	5.38580E-004	...........
	5	1.55	3.41226E-002	3.84882E-002	5.47479E-004	...........
	6	1.80833	3.55794E-002	3.96635E-002	5.45980E-004	...........
	7	2.06667	3.69925E-002	4.07439E-002	5.33546E-004	...........
	8	2.325	3.83021E-002	4.17347E-002	5.40846E-004	...........
	9	2.58333	3.94992E-002	4.26071E-002	5.45813E-004	...........
	10	2.84167	4.05904E-002	4.34300E-002	5.38213E-004	...........
	11	3.1	4.15846E-002	4.42044E-002	5.36213E-004	...........
	12	3.35833	4.24928E-002	4.48968E-002	5.43246E-004	...........
	13	3.61667	4.33279E-002	4.55953E-002	5.37713E-004	...........
	14	3.875	4.41018E-002	4.62049E-002	5.36913E-004	...........
	15	4.13333	4.48245E-002	4.68374E-002	5.34080E-004	...........
	16	4.39167	4.55048E-002	4.74257E-002	5.43446E-004	...........
	17	4.65	4.61489E-002	4.78888E-002	5.42813E-004	...........
	18	4.90833	4.67599E-002	4.86069E-002	5.30580E-004	...........
EOC	QUANT	0.0467599	Open Circuit (V)
PSTATMODEL	IQUANT	4	Pstat Model
PSTATSECTION	LABEL	REF600-11020	Pstat Section
PSTATSERIALNO	LABEL	11020	Pstat Serial Number
CTRLMODE	IQUANT	1	Control Mode
IESTAB	IQUANT	0	I/E Stability
CASPEED	IQUANT	1	Control Amp Speed
CONVENTION	IQUANT	1	Current Convention
ICHRANGE	IQUANT	2	Ich Range
ICHRANGEMODE	TOGGLE	F	Ich Auto Range
ICHOFFSETENABLE	TOGGLE	T	Ich Offset Enable
ICHOFFSET	QUANT	0	Ich Offset (V)
ICHFILTER	IQUANT	3	Ich Filter
VCHRANGE	IQUANT	2	Vch Range
VCHRANGEMODE	TOGGLE	F	Vch Auto Range
VCHOFFSETENABLE	TOGGLE	T	Vch Offset Enable
VCHOFFSET	QUANT	0	Vch Offset (V)
VCHFILTER	IQUANT	3	Vch Filter
ACHRANGE	IQUANT	2	Ach Range
ACHOFFSETENABLE	TOGGLE	F	Ach Offset Enable
ACHOFFSET	QUANT	0	Ach Offset (V)
ACHFILTER	IQUANT	1	Ach Filter
IERANGELOWERLIMIT	IQUANT	1	I/E Range Lower Limit
IERANGEMODE	TOGGLE	F	I/E AutoRange
IERANGE	IQUANT	6	I/E Range
POSFEEDENABLE	TOGGLE	F	Positive Feedback IR Comp
POSFEEDRESISTANCE	QUANT	0	Positive Feedback Resistance (ohm)
ACHSELECT	IQUANT	0	Ach Select
CABLEID	IQUANT	14	Cable ID
DCCALDATE	LABEL	8/19/2019	DC Calibration Date
ACCALDATE	LABEL	8/19/2019	AC Calibration Date
THERMOSELECT	IQUANT	1	Thermo Select
FRAMEWORKVERSION	QUANT	6.33	Framework Version
INSTRUMENTVERSION	LABEL	3.50	Instrument Version
ZCURVE	TABLE
	Pt	Time	Freq	Zreal	Zimag	Zsig	Zmod	Zphz	Idc	Vdc	IERange
	#	s	Hz	ohm	ohm	V	ohm	°	A	V	#
	0	2	1000078	2367.611	-1087.604	1	2605.468	-24.67251	2.319747E-006	0.0484276	8
	1	3	794390.6	2541.598	-978.736	1	2723.536	-21.06104	-1.311327E-006	0.0489041	8
	2	5	630984.4	2691.064	-878.168	1	2830.726	-18.07292	-4.398859E-007	0.0486947	8
	3	6	501234.4	2804.469	-757.2876	1	2904.915	-15.11112	-4.174855E-007	0.0486399	8
	4	7	398109.4	2895.346	-693.5456	1	2977.252	-13.47071	2.132076E-006	0.0478759	8
	5	9	316265.6	2964.276	-576.3612	1	3019.789	-11.00306	5.015233E-006	0.0474361	8
	6	10	251203.1	3040.883	-489.4102	1	3080.015	-9.142977	1.657935E-006	0.0479714	8
	7	12	199546.9	3075.075	-437.5256	1	3106.045	-8.097765	-3.025627E-006	0.0489712	8
	8	13	158578.1	3126.181	-377.5342	1	3148.895	-6.885995	4.4059E-007	0.0482025	8
	9	14	125953.1	3171.109	-289.7788	1	3184.322	-5.221238	4.124442E-007	0.0472242	7
	10	16	100078.1	3186.327	-254.6365	1	3196.486	-4.569103	-3.330064E-008	0.0483256	7
	11	17	79453.13	3207.246	-237.1725	1	3216.003	-4.229265	4.95247E-008	0.0481567	7
	12	18	63140.62	3227.206	-225.639	1	3235.084	-3.999485	-7.132144E-008	0.0484228	7
	13	20	50203.12	3246.715	-217.3782	1	3253.984	-3.830424	-3.14082E-008	0.0483113	7
	14	21	39890.62	3265.059	-213.6651	1	3272.043	-3.744091	-1.356667E-008	0.0483432	7
	15	22	31640.63	3282.117	-216.74	1	3289.266	-3.778135	-3.659484E-008	0.0483143	7
	16	24	25171.88	3299.128	-226.2471	1	3306.877	-3.923079	1.375336E-007	0.0480977	7
	17	25	20015.62	3316.595	-241.9865	1	3325.411	-4.173038	3.904983E-008	0.0482599	7
	18	26	15890.62	3333.449	-263.7072	1	3343.864	-4.523216	7.796609E-008	0.0481685	7
	19	28	12609.37	3351.593	-294.8582	1	3364.538	-5.027684	-4.802139E-008	0.0484625	7
	20	29	10078.13	3370.964	-335.5664	1	3387.625	-5.684844	3.699332E-008	0.0482621	7
	21	30	8015.625	3391.589	-388.0956	1	3413.722	-6.527895	3.742616E-008	0.0482589	7
	22	32	6328.125	3415.324	-456.8316	1	3445.741	-7.618626	-7.061353E-008	0.048418	7
	23	33	5015.625	3442.992	-541.1597	1	3485.262	-8.932508	1.200924E-009	0.0483067	7
	24	34	3984.375	3473.161	-644.6788	1	3532.486	-10.51541	7.703005E-008	0.0481656	7
	25	36	3170.956	3508.906	-770.52	1	3592.509	-12.385	-4.846522E-008	0.0484633	7
	26	37	2527.573	3549.604	-922.0438	1	3667.405	-14.56131	5.100772E-008	0.0481446	7
	27	39	1976.103	3601.462	-1124.199	1	3772.844	-17.33579	7.626275E-008	0.0481605	7
	28	40	1577.524	3657.497	-1357.176	1	3901.181	-20.35822	-5.116402E-008	0.0484576	7
	29	41	1265.625	3719.758	-1624.257	1	4058.917	-23.58881	-3.72632E-009	0.0482506	7
	30	43	998.264	3795.615	-1985.296	1	4283.468	-27.61182	-1.296784E-008	0.0483385	7
	31	44	796.875	3883.787	-2404.713	1	4567.98	-31.76443	-1.09976E-008	0.0483318	7
	32	45	627.7902	3990.468	-2950.147	1	4962.58	-36.47546	-6.494723E-009	0.0483441	7
	33	47	505.5147	4106.636	-3561.849	1	5436.104	-40.9364	1.397042E-007	0.0480814	7
	34	48	397.9953	4258.199	-4387.159	1	6113.872	-45.8546	6.802481E-009	0.0483114	7
	35	49	315.5048	4437.426	-5381.812	1	6975.288	-50.49364	7.417671E-009	0.0483132	7
	36	51	252.4038	4650.681	-6559.258	1	8040.69	-54.66239	5.509096E-009	0.0483094	7
	37	52	198.6229	4937.498	-8117.479	1	9501.18	-58.68973	7.712893E-009	0.0483088	7
	38	53	158.3615	5284.46	-9934.11	1	11252.2	-61.9892	-5.01332E-010	0.0482459	6
	39	55	125.558	5730.251	-12226.5	1	13502.7	-64.88869	2.598752E-010	0.048245	6
	40	56	100.4464	6270.487	-14926.55	1	16190.15	-67.21324	-3.358535E-010	0.0482485	6
	41	57	79.00281	7051.735	-18444.57	1	19746.63	-69.07713	2.863462E-010	0.0482425	6
	42	59	63.3446	7903.084	-22640.35	1	23980.08	-70.7574	-8.090635E-010	0.0482355	6
	43	60	49.86702	9214.858	-27663.68	1	29158.07	-71.57693	1.415031E-010	0.0482443	6
	44	62	39.72458	10981.31	-33842.44	1	35579.49	-72.02261	-2.788634E-010	0.0482502	6
	45	63	31.6723	13064.86	-41240.11	1	43260.12	-72.42181	6.392211E-010	0.048245	6
	46	64	24.93351	16173.04	-50533.93	1	53058.88	-72.25309	-7.662695E-010	0.0482476	6
	47	66	19.86229	20002.96	-61297.2	1	64478.41	-71.92707	-3.507482E-010	0.0482428	6
	48	67	15.83615	24845.26	-73607.75	1	77687.76	-71.34861	-4.899259E-010	0.048236	6
	49	68	12.40079	32071.9	-89260.7	1	94847.66	-70.23634	-1.818585E-009	0.0482481	6
	50	70	9.93114	40107.79	-106762	1	114047.2	-69.41006	-1.088533E-009	0.0482472	5
	51	71	7.944915	50820.48	-126905.7	1	136703.2	-68.17593	-7.187282E-010	0.048245	5
	52	73	6.317385	64512.74	-149500.1	1	162825.6	-66.65868	-2.210851E-010	0.0482354	5
	53	75	5.008013	81833.7	-175906.6	1	194010	-65.05162	-8.321621E-010	0.0482499	5
	54	78	3.945707	103715.9	-206137.9	1	230759.2	-63.29128	-9.162504E-010	0.0482466	5
	55	80	3.158693	128451.9	-237154.4	1	269707.4	-61.55833	-7.719864E-010	0.048238	5
	56	84	2.504006	158481.9	-272482.8	1	315219.6	-59.8168	-6.397201E-010	0.0482583	5
	57	86	1.998082	192023	-309750.1	1	364441.9	-58.20403	-2.815203E-010	0.0482506	5
	58	89	1.584686	232637.5	-350607.4	1	420768	-56.43465	-6.439289E-010	0.0482006	5
	59	93	1.266892	275280.1	-394768.3	1	481270.4	-55.11114	-3.74449E-010	0.0482602	5
	60	97	0.999041	327203.9	-446005.1	1	553157.3	-53.73501	-9.818102E-010	0.0482123	5
