EXPLAIN
TAG	EISPOT
TITLE	LABEL	Potentiostatic EIS	Test &Identifier
DATE	LABEL	10/12/2019	Date
TIME	LABEL	10:10:46	Time
NOTES	NOTES	1	&Notes...
	
PSTAT	PSTAT	REF600-11020	Potentiostat
VDC	POTEN	0.00000E+000	T	DC &Voltage (V)
FREQINIT	QUANT	1.00000E+006	Initial Fre&q. (Hz)
FREQFINAL	QUANT	1.00000E+000	Final Fre&q. (Hz)
PTSPERDEC	QUANT	1.00000E+001	Points/&decade
VAC	QUANT	2.50000E+001	AC &Voltage (mV rms)
AREA	QUANT	1.00000E-002	&Area (cm^2)
CONDIT	TWOPARAM	T	5.00000E+000	0.00000E+000	Conditionin&g	Time(s)	E(V)
DELAY	TWOPARAM	T	5.00000E+000	0.00000E+000	Init. De&lay	Time(s)	Stab.(mV/s)
SPEED	SELECTOR	1	&Optimize for:
ZGUESS	QUANT	1.00000E+004	E&stimated Z (ohms)
OCVCURVE	TABLE	19
	Pt	T	Vf	Vm	Ach	Over
	#	s	V vs. Ref.	V	V	bits
	0	0.258333	6.60092E-003	6.60092E-003	5.50466E-004	...........
	1	0.516667	6.60061E-003	6.58465E-003	5.46433E-004	...........
	2	0.775	6.59932E-003	6.60169E-003	5.49599E-004	...........
	3	1.03333	6.59859E-003	6.66268E-003	5.42166E-004	...........
	4	1.29167	6.60384E-003	6.66106E-003	5.47733E-004	...........
	5	1.55	6.61926E-003	6.71486E-003	5.46999E-004	...........
	6	1.80833	6.64255E-003	6.69087E-003	5.44133E-004	...........
	7	2.06667	6.66103E-003	6.40023E-003	5.47399E-004	...........
	8	2.325	6.65137E-003	6.49424E-003	5.57032E-004	...........
	9	2.58333	6.60420E-003	6.47150E-003	5.50533E-004	...........
	10	2.84167	6.54511E-003	6.56095E-003	5.49133E-004	...........
	11	3.1	6.51044E-003	6.62553E-003	5.49299E-004	...........
	12	3.35833	6.51445E-003	6.60657E-003	5.48199E-004	...........
	13	3.61667	6.54380E-003	6.55415E-003	5.54733E-004	...........
	14	3.875	6.57020E-003	6.47124E-003	5.56699E-004	...........
	15	4.13333	6.55776E-003	5.75591E-003	5.55499E-004	...........
	16	4.39167	6.47610E-003	6.48130E-003	5.53066E-004	...........
	17	4.65	6.35769E-003	6.51735E-003	5.49933E-004	...........
	18	4.90833	6.29963E-003	6.66978E-003	5.52899E-004	...........
EOC	QUANT	0.0062996	Open Circuit (V)
PSTATMODEL	IQUANT	4	Pstat Model
PSTATSECTION	LABEL	REF600-11020	Pstat Section
PSTATSERIALNO	LABEL	11020	Pstat Serial Number
CTRLMODE	IQUANT	1	Control Mode
IESTAB	IQUANT	0	I/E Stability
CASPEED	IQUANT	1	Control Amp Speed
CONVENTION	IQUANT	1	Current Convention
ICHRANGE	IQUANT	2	Ich Range
ICHRANGEMODE	TOGGLE	F	Ich Auto Range
ICHOFFSETENABLE	TOGGLE	T	Ich Offset Enable
ICHOFFSET	QUANT	0	Ich Offset (V)
ICHFILTER	IQUANT	3	Ich Filter
VCHRANGE	IQUANT	2	Vch Range
VCHRANGEMODE	TOGGLE	F	Vch Auto Range
VCHOFFSETENABLE	TOGGLE	T	Vch Offset Enable
VCHOFFSET	QUANT	0	Vch Offset (V)
VCHFILTER	IQUANT	3	Vch Filter
ACHRANGE	IQUANT	2	Ach Range
ACHOFFSETENABLE	TOGGLE	F	Ach Offset Enable
ACHOFFSET	QUANT	0	Ach Offset (V)
ACHFILTER	IQUANT	3	Ach Filter
IERANGELOWERLIMIT	IQUANT	1	I/E Range Lower Limit
IERANGEMODE	TOGGLE	F	I/E AutoRange
IERANGE	IQUANT	6	I/E Range
POSFEEDENABLE	TOGGLE	F	Positive Feedback IR Comp
POSFEEDRESISTANCE	QUANT	0	Positive Feedback Resistance (ohm)
ACHSELECT	IQUANT	0	Ach Select
CABLEID	IQUANT	14	Cable ID
DCCALDATE	LABEL	8/19/2019	DC Calibration Date
ACCALDATE	LABEL	8/19/2019	AC Calibration Date
THERMOSELECT	IQUANT	1	Thermo Select
FRAMEWORKVERSION	QUANT	6.33	Framework Version
INSTRUMENTVERSION	LABEL	3.50	Instrument Version
ZCURVE	TABLE
	Pt	Time	Freq	Zreal	Zimag	Zsig	Zmod	Zphz	Idc	Vdc	IERange
	#	s	Hz	ohm	ohm	V	ohm	°	A	V	#
	0	1	1000078	2403.107	-1713.782	1	2951.605	-35.49466	2.121909E-006	0.0085003	8
	1	3	794390.6	2720.813	-1648.955	1	3181.489	-31.21805	-1.702143E-006	0.0085554	8
	2	4	630984.4	3032.009	-1523.659	1	3393.32	-26.68065	6.236834E-006	0.0067522	8
	3	5	501234.4	3276.629	-1360.482	1	3547.845	-22.54861	3.454329E-006	0.0072234	8
	4	7	398109.4	3499.49	-1190.812	1	3696.547	-18.79249	1.233355E-007	0.0079742	8
	5	8	316265.6	3654.029	-1029.155	1	3796.194	-15.72984	5.532961E-007	0.0076832	8
	6	10	251203.1	3768.233	-888.3614	1	3871.532	-13.26528	5.620037E-007	0.0076754	8
	7	11	199546.9	3859.717	-753.2513	1	3932.532	-11.04288	-3.566752E-007	0.0078394	8
	8	12	158578.1	3924.477	-665.381	1	3980.484	-9.62278	-2.959373E-006	0.0084548	8
	9	14	125953.1	4000.644	-516.6927	1	4033.872	-7.359149	-7.105214E-007	0.0093198	7
	10	15	100078.1	4027.71	-464.1481	1	4054.366	-6.573694	9.464337E-008	0.0077449	7
	11	16	79453.13	4063.029	-424.5508	1	4085.15	-5.965256	7.62299E-008	0.0076598	7
	12	18	63140.62	4093.263	-394.9382	1	4112.272	-5.51112	-7.670656E-008	0.008038	7
	13	19	50203.12	4122.929	-376.7997	1	4140.111	-5.221828	-5.614438E-008	0.0078792	7
	14	21	39890.62	4151.802	-369.0599	1	4168.173	-5.079756	1.170386E-007	0.0076389	7
	15	22	31640.63	4181.662	-371.4398	1	4198.126	-5.076027	-2.563621E-009	0.0077624	7
	16	23	25171.88	4211.478	-383.955	1	4228.944	-5.209181	-7.420154E-008	0.0079096	7
	17	25	20015.62	4255.479	-396.282	1	4273.89	-5.320199	-7.970614E-009	0.0078683	7
	18	26	15890.62	4275.131	-441.002	1	4297.817	-5.889527	-1.824392E-008	0.0078521	7
	19	27	12609.37	4311.614	-485.2798	1	4338.837	-6.421716	-6.012463E-008	0.0078754	7
	20	29	10078.13	4346.926	-542.8892	1	4380.695	-7.118832	-1.932059E-008	0.0077935	7
	21	30	8015.625	4391.484	-616.5349	1	4434.551	-7.99171	-6.963369E-008	0.0079037	7
	22	31	6328.125	4426.992	-712.345	1	4483.937	-9.14108	1.21286E-007	0.007636	7
	23	33	5015.625	4473.199	-830.6304	1	4549.665	-10.51947	-2.057704E-008	0.0077877	7
	24	34	3984.375	4508.833	-979.901	1	4614.085	-12.26138	-1.173365E-008	0.0078653	7
	25	35	3170.956	4579.732	-1154.422	1	4722.99	-14.14792	7.773012E-008	0.0076577	7
	26	37	2527.573	4643.904	-1371.871	1	4842.3	-16.45784	4.488188E-008	0.0077621	7
	27	38	1976.103	4721.608	-1664.095	1	5006.276	-19.41462	-2.169836E-009	0.0077569	7
	28	40	1577.524	4816.355	-1990.509	1	5211.469	-22.45438	-6.460491E-008	0.0079255	7
	29	41	1265.625	4896.73	-2388.668	1	5448.275	-26.00352	1.016934E-008	0.0077817	7
	30	42	998.264	5013.082	-2906.386	1	5794.659	-30.10346	9.952319E-008	0.0077221	7
	31	44	796.875	5139.969	-3509.359	1	6223.736	-34.32365	-5.507804E-009	0.0078592	7
	32	45	627.7902	5305.954	-4300.187	1	6829.697	-39.02288	-7.245842E-008	0.0080348	7
	33	46	505.5147	5473.143	-5178.13	1	7534.476	-43.41346	-5.109902E-008	0.0078702	7
	34	48	397.9953	5695.396	-6375.8	1	8549.173	-48.22611	6.06336E-009	0.0078255	7
	35	49	315.5048	5959.789	-7814.61	1	9827.88	-52.66915	5.352528E-009	0.0078271	7
	36	50	252.4038	6274.064	-9515.45	1	11397.7	-56.60091	1.577825E-009	0.0077622	6
	37	52	198.6229	6690.819	-11772.71	1	13541.19	-60.38901	1.305757E-009	0.0077641	6
	38	53	158.3615	7192.951	-14412.78	1	16107.97	-63.4777	1.212999E-009	0.007758	6
	39	54	125.558	7851.809	-17726.91	1	19387.99	-66.10993	9.215871E-010	0.0077594	6
	40	56	100.4464	8679.465	-21621.53	1	23298.57	-68.12814	1.77756E-009	0.0077505	6
	41	57	79.00281	9821.95	-26744.07	1	28490.63	-69.83389	8.603404E-010	0.0077487	6
	42	59	63.3446	10961.88	-32693.61	1	34482.39	-71.46415	2.294805E-010	0.0077514	6
	43	60	49.86702	13285.03	-39984.83	1	42134.05	-71.62084	1.574104E-009	0.0077518	6
	44	61	39.72458	15880.02	-48976.88	1	51486.99	-72.03549	1.420376E-009	0.0077554	6
	45	63	31.6723	19171.96	-59704.2	1	62706.91	-72.19735	5.241405E-010	0.0077563	6
	46	64	24.93351	23965.5	-72873.42	1	76712.98	-71.79578	2.594261E-009	0.0077575	6
	47	66	19.86229	29895.62	-87962.07	1	92903.57	-71.22867	-1.764034E-009	0.0077576	6
	48	67	15.83615	38262.19	-105872.7	1	112574.5	-70.13024	9.130635E-010	0.0077595	5
	49	68	12.40079	48754.09	-127808.3	1	136791.6	-69.12003	3.270354E-010	0.0077586	5
	50	70	9.93114	61045.6	-151093.4	1	162959.5	-68.00004	1.212301E-009	0.0077606	5
	51	71	7.944915	77086.66	-178163.1	1	194124.8	-66.60308	-5.253685E-010	0.007762	5
	52	73	6.317385	97417.8	-208864.5	1	230466	-64.99489	-2.953295E-010	0.0077525	5
	53	75	5.008013	122704.6	-243849	1	272981.3	-63.28849	-3.023497E-010	0.0077529	5
	54	78	3.945707	154350.7	-282379	1	321810.6	-61.33862	3.256079E-010	0.0077607	5
	55	80	3.158693	189020.4	-322073.7	1	373443.7	-59.59195	-1.555079E-010	0.0077419	5
	56	84	2.504006	230506.6	-366176.9	1	432687.9	-57.80978	6.513498E-010	0.0077637	5
	57	86	1.998082	274438.3	-412291.8	1	495278.6	-56.35064	4.223592E-010	0.0077709	5
	58	90	1.584686	324717.4	-462097.9	1	564779.5	-54.90419	1.126046E-010	0.0077127	5
	59	93	1.266892	373939.1	-519852.5	1	640372.6	-54.27187	-2.037938E-010	0.0077732	5
	60	97	0.999041	433481.2	-582106.7	1	725778.3	-53.32581	-2.625656E-010	0.0077292	5
