EXPLAIN
TAG	EISPOT
TITLE	LABEL	Potentiostatic EIS	Test &Identifier
DATE	LABEL	9/24/2019	Date
TIME	LABEL	9:02:45	Time
NOTES	NOTES	1	&Notes...
	
PSTAT	PSTAT	REF600-11020	Potentiostat
VDC	POTEN	0.00000E+000	T	DC &Voltage (V)
FREQINIT	QUANT	1.00000E+006	Initial Fre&q. (Hz)
FREQFINAL	QUANT	1.00000E+000	Final Fre&q. (Hz)
PTSPERDEC	QUANT	1.00000E+001	Points/&decade
VAC	QUANT	2.50000E+001	AC &Voltage (mV rms)
AREA	QUANT	1.00000E-002	&Area (cm^2)
CONDIT	TWOPARAM	T	5.00000E+000	0.00000E+000	Conditionin&g	Time(s)	E(V)
DELAY	TWOPARAM	T	5.00000E+000	0.00000E+000	Init. De&lay	Time(s)	Stab.(mV/s)
SPEED	SELECTOR	1	&Optimize for:
ZGUESS	QUANT	1.00000E+004	E&stimated Z (ohms)
OCVCURVE	TABLE	19
	Pt	T	Vf	Vm	Ach	Over
	#	s	V vs. Ref.	V	V	bits
	0	0.258333	2.52860E-003	2.52860E-003	5.63566E-004	...........
	1	0.516667	2.52204E-003	2.18544E-003	5.65099E-004	...........
	2	0.775	2.48220E-003	1.88160E-003	5.70432E-004	...........
	3	1.03333	2.37101E-003	1.59925E-003	5.68999E-004	...........
	4	1.29167	2.17534E-003	1.32003E-003	5.67632E-004	...........
	5	1.55	1.91941E-003	1.06635E-003	5.70899E-004	...........
	6	1.80833	1.63994E-003	8.28352E-004	5.68099E-004	...........
	7	2.06667	1.36341E-003	6.06009E-004	5.69132E-004	...........
	8	2.325	1.10208E-003	3.90149E-004	5.72799E-004	...........
	9	2.58333	8.58328E-004	1.86691E-004	5.68832E-004	...........
	10	2.84167	6.29952E-004	-9.91994E-006	5.73032E-004	...........
	11	3.1	4.13968E-004	-1.98047E-004	5.73332E-004	...........
	12	3.35833	2.08086E-004	-3.81483E-004	5.70632E-004	...........
	13	3.61667	1.06483E-005	-5.61638E-004	5.66366E-004	...........
	14	3.875	-1.79803E-004	-7.36977E-004	5.73099E-004	...........
	15	4.13333	-3.64506E-004	-9.04381E-004	5.69532E-004	...........
	16	4.39167	-5.44118E-004	-1.07021E-003	5.66399E-004	...........
	17	4.65	-7.18747E-004	-1.22811E-003	5.64332E-004	...........
	18	4.90833	-8.88375E-004	-1.38399E-003	5.72266E-004	...........
EOC	QUANT	-0.0008884	Open Circuit (V)
PSTATMODEL	IQUANT	4	Pstat Model
PSTATSECTION	LABEL	REF600-11020	Pstat Section
PSTATSERIALNO	LABEL	11020	Pstat Serial Number
CTRLMODE	IQUANT	1	Control Mode
IESTAB	IQUANT	0	I/E Stability
CASPEED	IQUANT	1	Control Amp Speed
CONVENTION	IQUANT	1	Current Convention
ICHRANGE	IQUANT	2	Ich Range
ICHRANGEMODE	TOGGLE	F	Ich Auto Range
ICHOFFSETENABLE	TOGGLE	T	Ich Offset Enable
ICHOFFSET	QUANT	0	Ich Offset (V)
ICHFILTER	IQUANT	3	Ich Filter
VCHRANGE	IQUANT	2	Vch Range
VCHRANGEMODE	TOGGLE	F	Vch Auto Range
VCHOFFSETENABLE	TOGGLE	T	Vch Offset Enable
VCHOFFSET	QUANT	0	Vch Offset (V)
VCHFILTER	IQUANT	3	Vch Filter
ACHRANGE	IQUANT	2	Ach Range
ACHOFFSETENABLE	TOGGLE	F	Ach Offset Enable
ACHOFFSET	QUANT	0	Ach Offset (V)
ACHFILTER	IQUANT	3	Ach Filter
IERANGELOWERLIMIT	IQUANT	1	I/E Range Lower Limit
IERANGEMODE	TOGGLE	F	I/E AutoRange
IERANGE	IQUANT	5	I/E Range
POSFEEDENABLE	TOGGLE	F	Positive Feedback IR Comp
POSFEEDRESISTANCE	QUANT	0	Positive Feedback Resistance (ohm)
ACHSELECT	IQUANT	0	Ach Select
CABLEID	IQUANT	14	Cable ID
DCCALDATE	LABEL	8/19/2019	DC Calibration Date
ACCALDATE	LABEL	8/19/2019	AC Calibration Date
THERMOSELECT	IQUANT	1	Thermo Select
FRAMEWORKVERSION	QUANT	6.33	Framework Version
INSTRUMENTVERSION	LABEL	3.50	Instrument Version
ZCURVE	TABLE
	Pt	Time	Freq	Zreal	Zimag	Zsig	Zmod	Zphz	Idc	Vdc	IERange
	#	s	Hz	ohm	ohm	V	ohm	°	A	V	#
	0	2	1000078	2293.992	-1867.172	1	2957.825	-39.14353	5.930161E-006	0.0004558	8
	1	3	794390.6	2651.875	-1833.743	1	3224.136	-34.66344	-7.657526E-006	0.0021516	8
	2	5	630984.4	3007.875	-1757.293	1	3483.588	-30.29479	-3.302461E-006	0.0019025	8
	3	6	501234.4	3349.882	-1601.388	1	3712.971	-25.54981	2.983217E-007	0.0005662	8
	4	7	398109.4	3602.018	-1458.202	1	3885.986	-22.03953	-7.324654E-007	0.0008498	8
	5	9	316265.6	3825.325	-1280.047	1	4033.811	-18.5015	5.787987E-007	0.0006957	8
	6	10	251203.1	3982.915	-1109.026	1	4134.435	-15.55964	-3.101921E-006	0.0012201	8
	7	12	199546.9	4101.987	-947.2984	1	4209.949	-13.00371	-2.325547E-006	0.0009128	8
	8	13	158578.1	4199.676	-832.9821	1	4281.488	-11.21869	3.723765E-007	0.0004256	8
	9	15	125953.1	4299.565	-686.6641	1	4354.052	-9.073822	-5.634672E-007	0.0017877	7
	10	16	100078.1	4340.212	-601.8896	1	4381.748	-7.895279	-3.501805E-008	0.000559	7
	11	18	79453.13	4387.117	-549.5842	1	4421.407	-7.140378	-5.600018E-009	0.0005579	7
	12	19	63140.62	4428.692	-511.0708	1	4458.083	-6.582811	1.326267E-007	0.0003434	7
	13	20	50203.12	4467.343	-490.0469	1	4494.141	-6.260053	-3.765907E-008	0.0005514	7
	14	22	39890.62	4506.819	-478.0638	1	4532.104	-6.055045	-1.833143E-008	0.0005096	7
	15	23	31640.63	4542.395	-483.6762	1	4568.073	-6.077978	4.22581E-008	0.0003951	7
	16	24	25171.88	4581.459	-500.4439	1	4608.71	-6.233842	1.702811E-008	0.0004534	7
	17	26	20015.62	4623.959	-526.2034	1	4653.804	-6.49229	1.319531E-007	0.0003329	7
	18	27	15890.62	4667.259	-570.7238	1	4702.024	-6.971656	8.248232E-008	0.000359	7
	19	28	12609.37	4714.691	-626.3544	1	4756.116	-7.567523	1.835329E-008	0.0004524	7
	20	30	10078.13	4767.118	-697.7393	1	4817.909	-8.326972	-4.242001E-009	0.000474	7
	21	31	8015.625	4819.964	-784.4511	1	4883.381	-9.243864	8.164471E-008	0.0003578	7
	22	33	6328.125	4878.725	-898.7678	1	4960.821	-10.4381	-4.468814E-008	0.0006742	7
	23	34	5015.625	4943.49	-1037.395	1	5051.166	-11.85159	-4.547574E-008	0.0006201	7
	24	35	3984.375	5012.071	-1210.452	1	5156.167	-13.57737	-1.079446E-008	0.0005718	7
	25	37	3170.956	5086.087	-1416.88	1	5279.757	-15.56676	-3.319751E-008	0.0005393	7
	26	38	2527.573	5171.728	-1673.528	1	5435.758	-17.93114	-2.008008E-008	0.0005051	7
	27	39	1976.103	5273.575	-2016.418	1	5645.931	-20.92499	-4.221123E-008	0.0006708	7
	28	41	1577.524	5383.826	-2403.646	1	5896.024	-24.0587	-1.090541E-008	0.0006492	7
	29	42	1265.625	5513.643	-2865.398	1	6213.756	-27.46056	4.479029E-008	0.0003848	7
	30	43	998.264	5666.559	-3458.208	1	6638.456	-31.39503	-4.352738E-008	0.0006209	7
	31	45	796.875	5839.194	-4151.969	1	7164.847	-35.4148	-3.767377E-008	0.0005363	7
	32	46	627.7902	6052.292	-5054.091	1	7885.054	-39.86427	-3.392937E-008	0.0005404	7
	33	47	505.5147	6277.672	-6061.283	1	8726.301	-43.9953	-5.61205E-009	0.0004765	7
	34	49	397.9953	6559.716	-7410.879	1	9897.02	-48.48645	1.88989E-009	0.0004825	6
	35	50	315.5048	6886.202	-9039.422	1	11363.58	-52.69997	2.140193E-009	0.0004816	6
	36	52	252.4038	7262.485	-10963.57	1	13150.8	-56.47871	6.501933E-010	0.0004788	6
	37	53	198.6229	7755.289	-13518.35	1	15584.93	-60.1577	1.096553E-009	0.0004745	6
	38	54	158.3615	8335.57	-16502.81	1	18488.49	-63.20166	1.924918E-009	0.0004775	6
	39	56	125.558	9093.501	-20255.67	1	22203.24	-65.82297	1.428413E-009	0.0004766	6
	40	57	100.4464	10039.34	-24679.9	1	26643.68	-67.86438	4.490246E-010	0.0004767	6
	41	58	79.00281	11373.31	-30515.54	1	32566.1	-69.5593	2.12613E-009	0.0004751	6
	42	60	63.3446	13324.57	-37138.93	1	39456.86	-70.26321	1.398693E-009	0.0004736	6
	43	61	49.86702	14887.58	-46057.33	1	48403.7	-72.08708	8.919892E-010	0.0004769	6
	44	63	39.72458	17844.81	-55927.78	1	58705.66	-72.30374	1.354743E-009	0.0004746	6
	45	64	31.6723	21561.7	-67768.52	1	71115.96	-72.35065	1.344892E-009	0.0004764	6
	46	65	24.93351	26688.32	-83318.41	1	87488.41	-72.23885	9.906514E-010	0.0004745	6
	47	67	19.86229	33191.1	-100502.5	1	105841.4	-71.72411	1.5768E-009	0.0004833	5
	48	68	15.83615	42286.77	-119793.1	1	127037.6	-70.55705	-1.167841E-010	0.0004759	5
	49	69	12.40079	53351.64	-146499.7	1	155912	-69.9896	4.789663E-010	0.0004803	5
	50	71	9.93114	67606.79	-174987.8	1	187593.7	-68.87589	6.539862E-010	0.0004834	5
	51	72	7.944915	85834.73	-204898.5	1	222150.9	-67.27054	1.735362E-009	0.0004825	5
	52	74	6.317385	108730.9	-242965.5	1	266185.3	-65.89072	5.876558E-010	0.0004944	5
	53	76	5.008013	137750.2	-284712.5	1	316285.2	-64.18127	6.529601E-010	0.0004812	5
	54	79	3.945707	173404.9	-331145.7	1	373800.3	-62.36114	1.019368E-009	0.0004902	5
	55	81	3.158693	213375.3	-379251.3	1	435155.7	-60.63691	4.177024E-010	0.0004665	5
	56	85	2.504006	261271	-433177.8	1	505871.1	-58.90374	9.510064E-010	0.0004859	5
	57	88	1.998082	313939.4	-489973.8	1	581921.2	-57.35122	9.180333E-010	0.0004866	5
	58	91	1.584686	375958.3	-552919.1	1	668628.6	-55.78619	6.004656E-010	0.0004295	5
	59	94	1.266892	438589.8	-619802.2	1	759286.3	-54.71568	8.079771E-010	0.0004627	5
	60	99	0.999041	513689.3	-701599.1	1	869550.4	-53.78956	3.357741E-010	0.0004695	5
