EXPLAIN
TAG	EISPOT
TITLE	LABEL	Potentiostatic EIS	Test &Identifier
DATE	LABEL	10/20/2019	Date
TIME	LABEL	9:22:06	Time
NOTES	NOTES	1	&Notes...
	
PSTAT	PSTAT	REF600-11020	Potentiostat
VDC	POTEN	0.00000E+000	T	DC &Voltage (V)
FREQINIT	QUANT	1.00000E+006	Initial Fre&q. (Hz)
FREQFINAL	QUANT	1.00000E+000	Final Fre&q. (Hz)
PTSPERDEC	QUANT	1.00000E+001	Points/&decade
VAC	QUANT	2.50000E+001	AC &Voltage (mV rms)
AREA	QUANT	1.00000E-002	&Area (cm^2)
CONDIT	TWOPARAM	T	5.00000E+000	0.00000E+000	Conditionin&g	Time(s)	E(V)
DELAY	TWOPARAM	T	5.00000E+000	0.00000E+000	Init. De&lay	Time(s)	Stab.(mV/s)
SPEED	SELECTOR	1	&Optimize for:
ZGUESS	QUANT	1.00000E+005	E&stimated Z (ohms)
OCVCURVE	TABLE	19
	Pt	T	Vf	Vm	Ach	Over
	#	s	V vs. Ref.	V	V	bits
	0	0.258333	7.17671E-003	7.17671E-003	5.51832E-004	...........
	1	0.516667	7.17743E-003	7.21403E-003	5.57399E-004	...........
	2	0.775	7.18177E-003	7.24749E-003	5.49066E-004	...........
	3	1.03333	7.19479E-003	7.32477E-003	5.49133E-004	...........
	4	1.29167	7.22121E-003	7.37739E-003	5.48933E-004	...........
	5	1.55	7.26225E-003	7.43722E-003	5.56866E-004	...........
	6	1.80833	7.31478E-003	7.51545E-003	5.53333E-004	...........
	7	2.06667	7.37638E-003	7.67497E-003	5.52366E-004	...........
	8	2.325	7.45021E-003	7.74119E-003	5.50133E-004	...........
	9	2.58333	7.53804E-003	7.80221E-003	5.53733E-004	...........
	10	2.84167	7.63100E-003	7.84180E-003	5.55899E-004	...........
	11	3.1	7.71545E-003	7.90115E-003	5.52166E-004	...........
	12	3.35833	7.78540E-003	7.95527E-003	5.48366E-004	...........
	13	3.61667	7.84455E-003	8.02055E-003	5.51499E-004	...........
	14	3.875	7.89992E-003	8.07945E-003	5.49666E-004	...........
	15	4.13333	7.95630E-003	8.14247E-003	5.51433E-004	...........
	16	4.39167	8.01498E-003	8.20043E-003	5.52466E-004	...........
	17	4.65	8.07513E-003	8.25710E-003	5.53566E-004	...........
	18	4.90833	8.13518E-003	8.30866E-003	5.55433E-004	...........
EOC	QUANT	0.0081352	Open Circuit (V)
PSTATMODEL	IQUANT	4	Pstat Model
PSTATSECTION	LABEL	REF600-11020	Pstat Section
PSTATSERIALNO	LABEL	11020	Pstat Serial Number
CTRLMODE	IQUANT	1	Control Mode
IESTAB	IQUANT	0	I/E Stability
CASPEED	IQUANT	1	Control Amp Speed
CONVENTION	IQUANT	1	Current Convention
ICHRANGE	IQUANT	2	Ich Range
ICHRANGEMODE	TOGGLE	F	Ich Auto Range
ICHOFFSETENABLE	TOGGLE	T	Ich Offset Enable
ICHOFFSET	QUANT	0	Ich Offset (V)
ICHFILTER	IQUANT	3	Ich Filter
VCHRANGE	IQUANT	2	Vch Range
VCHRANGEMODE	TOGGLE	F	Vch Auto Range
VCHOFFSETENABLE	TOGGLE	T	Vch Offset Enable
VCHOFFSET	QUANT	0	Vch Offset (V)
VCHFILTER	IQUANT	3	Vch Filter
ACHRANGE	IQUANT	2	Ach Range
ACHOFFSETENABLE	TOGGLE	F	Ach Offset Enable
ACHOFFSET	QUANT	0	Ach Offset (V)
ACHFILTER	IQUANT	3	Ach Filter
IERANGELOWERLIMIT	IQUANT	1	I/E Range Lower Limit
IERANGEMODE	TOGGLE	F	I/E AutoRange
IERANGE	IQUANT	5	I/E Range
POSFEEDENABLE	TOGGLE	F	Positive Feedback IR Comp
POSFEEDRESISTANCE	QUANT	0	Positive Feedback Resistance (ohm)
ACHSELECT	IQUANT	0	Ach Select
CABLEID	IQUANT	14	Cable ID
DCCALDATE	LABEL	8/19/2019	DC Calibration Date
ACCALDATE	LABEL	8/19/2019	AC Calibration Date
THERMOSELECT	IQUANT	1	Thermo Select
FRAMEWORKVERSION	QUANT	6.33	Framework Version
INSTRUMENTVERSION	LABEL	3.50	Instrument Version
ZCURVE	TABLE
	Pt	Time	Freq	Zreal	Zimag	Zsig	Zmod	Zphz	Idc	Vdc	IERange
	#	s	Hz	ohm	ohm	V	ohm	°	A	V	#
	0	2	1000078	2621.574	-1384.219	1	2964.576	-27.83453	2.860582E-007	0.0100677	8
	1	3	794390.6	2873.214	-1259.61	1	3137.192	-23.67253	-4.223862E-006	0.0108755	8
	2	5	630984.4	3065.698	-1126.951	1	3266.271	-20.18344	-1.377985E-006	0.0105248	8
	3	6	501234.4	3219.56	-971.702	1	3363	-16.79445	1.195201E-006	0.0096776	8
	4	8	398109.4	3338.496	-831.9803	1	3440.602	-13.99354	-1.366551E-006	0.0101584	8
	5	9	316265.6	3425.538	-714.6542	1	3499.292	-11.78433	1.476919E-006	0.0097229	8
	6	11	251203.1	3497.847	-605.504	1	3549.869	-9.82101	1.002163E-006	0.0095611	8
	7	12	199546.9	3549.171	-525.8432	1	3587.914	-8.427603	2.297878E-006	0.0093335	8
	8	14	158578.1	3599.443	-459.4748	1	3628.651	-7.274557	-3.101734E-006	0.0104616	8
	9	15	125953.1	3639.882	-327.8022	1	3654.613	-5.146087	7.588611E-007	0.0087915	7
	10	16	100078.1	3664.432	-319.5153	1	3678.335	-4.983227	9.020524E-008	0.0097323	7
	11	18	79453.13	3689.383	-304.1802	1	3701.902	-4.71323	-7.772702E-008	0.0099178	7
	12	19	63140.62	3714.218	-296.2043	1	3726.01	-4.559617	-1.039439E-008	0.0099235	7
	13	20	50203.12	3739.658	-294.7059	1	3751.252	-4.505915	-7.755978E-008	0.0099135	7
	14	22	39890.62	3765.845	-300.5878	1	3777.822	-4.563644	-4.303009E-008	0.0098041	7
	15	23	31640.63	3793.592	-311.6583	1	3806.373	-4.696524	-7.585644E-008	0.0099142	7
	16	24	25171.88	3821.8	-330.9061	1	3836.098	-4.948547	-1.505909E-008	0.0097504	7
	17	26	20015.62	3840.623	-355.915	1	3857.079	-5.294545	6.677394E-008	0.0096783	7
	18	27	15890.62	3883.395	-393.7307	1	3903.304	-5.789336	6.669111E-008	0.009672	7
	19	28	12609.37	3916.693	-438.1107	1	3941.12	-6.382419	6.896332E-008	0.0096668	7
	20	30	10078.13	3949.838	-491.366	1	3980.284	-7.091252	4.215493E-008	0.0097403	7
	21	31	8015.625	3989.135	-564.6639	1	4028.901	-8.056719	8.512176E-008	0.0096073	7
	22	32	6328.125	4027.376	-650.0009	1	4079.493	-9.168227	-1.935032E-008	0.0097563	7
	23	34	5015.625	4068.861	-759.8394	1	4139.201	-10.57786	-2.2732E-008	0.0098416	7
	24	35	3984.375	4080.401	-894.1635	1	4177.225	-12.3602	6.668485E-008	0.0096707	7
	25	36	3170.956	4165.623	-1061.238	1	4298.679	-14.2927	-1.691091E-008	0.0097486	7
	26	38	2527.573	4221.563	-1264.719	1	4406.939	-16.67745	-5.761958E-008	0.0099539	7
	27	39	1976.103	4294.17	-1539.923	1	4561.937	-19.72823	1.075381E-008	0.0097084	7
	28	41	1577.524	4431.807	-1874.369	1	4811.878	-22.92523	-3.314436E-008	0.0097965	7
	29	42	1265.625	4452.714	-2213.112	1	4972.377	-26.42854	-3.442423E-008	0.0097962	7
	30	43	998.264	4562.384	-2697.498	1	5300.174	-30.59359	9.330186E-008	0.0097234	7
	31	45	796.875	4677.543	-3266.243	1	5705.064	-34.9259	1.424804E-008	0.009695	7
	32	46	627.7902	4827.953	-4000.96	1	6270.312	-39.64879	8.696592E-008	0.009604	7
	33	47	505.5147	4983.778	-4830.895	1	6940.864	-44.10757	-1.765963E-008	0.0098312	7
	34	49	397.9953	5193.86	-5946.513	1	7895.391	-48.86508	4.102485E-009	0.0097939	7
	35	50	315.5048	5443.02	-7294.242	1	9101.232	-53.26941	6.15499E-009	0.0097849	7
	36	51	252.4038	5745.467	-8887.161	1	10582.63	-57.11771	2.070259E-009	0.0097292	6
	37	53	198.6229	6146.138	-10998.87	1	12599.61	-60.80367	1.166653E-009	0.0097301	6
	38	54	158.3615	6637.323	-13466.74	1	15013.56	-63.76279	1.824244E-009	0.0097198	6
	39	55	125.558	7282.728	-16567.17	1	18097.22	-66.27029	6.837145E-010	0.0097258	6
	40	57	100.4464	8101.958	-20237.9	1	21799.41	-68.182	1.571959E-009	0.0097256	6
	41	58	79.00281	9311.04	-25051.63	1	26726.01	-69.61121	1.756299E-009	0.0097285	6
	42	59	63.3446	10721.98	-29948.07	1	31809.56	-70.30167	-7.524425E-011	0.0097268	6
	43	61	49.86702	12853.05	-37673.06	1	39805.28	-71.16172	2.898853E-011	0.0097251	6
	44	62	39.72458	15209.89	-45519.46	1	47993.36	-71.52345	8.421778E-010	0.0097289	6
	45	64	31.6723	18822.89	-55201.65	1	58322.58	-71.17143	-2.367814E-010	0.009732	6
	46	65	24.93351	23287.43	-67065.6	1	70993.66	-70.85128	7.232966E-010	0.0097305	6
	47	66	19.86229	29004.18	-80379.45	1	85452.32	-70.15849	5.189947E-011	0.0097334	6
	48	68	15.83615	37012.82	-97446.1	1	104238.7	-69.2018	3.52781E-009	0.009733	6
	49	69	12.40079	45207.35	-115939.2	1	124441.2	-68.69805	-3.090028E-010	0.0097383	5
	50	71	9.93114	57613.17	-135927.4	1	147633.1	-67.03022	6.262116E-010	0.0097385	5
	51	72	7.944915	71864.54	-158652	1	174169.4	-65.63092	6.562709E-010	0.0097464	5
	52	74	6.317385	87924.95	-185808.7	1	205561.8	-64.67641	-9.712391E-011	0.0097548	5
	53	76	5.008013	108167.5	-216816	1	242300.2	-63.48581	1.560154E-010	0.0097383	5
	54	78	3.945707	132162.1	-252871.5	1	285325.8	-62.40639	3.414478E-010	0.009739	5
	55	81	3.158693	158305.8	-290932.3	1	331213.4	-61.44793	1.156633E-010	0.0097507	5
	56	84	2.504006	189242.3	-336643.8	1	386188.7	-60.65775	3.446135E-012	0.0097353	5
	57	87	1.998082	223235.7	-387263.4	1	446997.9	-60.03896	-1.832234E-010	0.0097412	5
	58	90	1.584686	264609.4	-446523.8	1	519039.2	-59.34908	9.261938E-011	0.0097821	5
	59	94	1.266892	307544.6	-512692.5	1	597860.6	-59.04207	-1.600152E-010	0.0097385	5
	60	98	0.999041	360529.1	-594335.8	1	695137.6	-58.75865	2.605206E-010	0.0097585	5
