EXPLAIN
TAG	EISPOT
TITLE	LABEL	Potentiostatic EIS	Test &Identifier
DATE	LABEL	10/4/2019	Date
TIME	LABEL	8:41:01	Time
NOTES	NOTES	2	&Notes...
	
	
PSTAT	PSTAT	REF600-11020	Potentiostat
VDC	POTEN	0.00000E+000	T	DC &Voltage (V)
FREQINIT	QUANT	1.00000E+006	Initial Fre&q. (Hz)
FREQFINAL	QUANT	1.00000E+000	Final Fre&q. (Hz)
PTSPERDEC	QUANT	1.00000E+001	Points/&decade
VAC	QUANT	2.50000E+001	AC &Voltage (mV rms)
AREA	QUANT	1.00000E-002	&Area (cm^2)
CONDIT	TWOPARAM	T	5.00000E+000	0.00000E+000	Conditionin&g	Time(s)	E(V)
DELAY	TWOPARAM	T	5.00000E+000	0.00000E+000	Init. De&lay	Time(s)	Stab.(mV/s)
SPEED	SELECTOR	1	&Optimize for:
ZGUESS	QUANT	1.00000E+004	E&stimated Z (ohms)
OCVCURVE	TABLE	19
	Pt	T	Vf	Vm	Ach	Over
	#	s	V vs. Ref.	V	V	bits
	0	0.258333	3.48411E-003	3.48411E-003	5.66799E-004	...........
	1	0.516667	3.48325E-003	3.43878E-003	5.62232E-004	...........
	2	0.775	3.47831E-003	3.41583E-003	5.62799E-004	...........
	3	1.03333	3.46567E-003	3.39659E-003	5.66666E-004	...........
	4	1.29167	3.44565E-003	3.37239E-003	5.65199E-004	...........
	5	1.55	3.42235E-003	3.36494E-003	5.67599E-004	...........
	6	1.80833	3.40013E-003	3.35707E-003	5.69432E-004	...........
	7	2.06667	3.38194E-003	3.35943E-003	5.65599E-004	...........
	8	2.325	3.36947E-003	3.36638E-003	5.59532E-004	...........
	9	2.58333	3.36325E-003	3.37371E-003	5.62599E-004	...........
	10	2.84167	3.36289E-003	3.38702E-003	5.62999E-004	...........
	11	3.1	3.36741E-003	3.40055E-003	5.64632E-004	...........
	12	3.35833	3.37570E-003	3.41377E-003	5.67766E-004	...........
	13	3.61667	3.38680E-003	3.43252E-003	5.65132E-004	...........
	14	3.875	3.39992E-003	3.44654E-003	5.62166E-004	...........
	15	4.13333	3.41447E-003	3.46193E-003	5.62632E-004	...........
	16	4.39167	3.42970E-003	3.47263E-003	5.62832E-004	...........
	17	4.65	3.44435E-003	3.46683E-003	5.59532E-004	...........
	18	4.90833	3.45850E-003	3.57797E-003	5.61032E-004	...........
EOC	QUANT	0.0034585	Open Circuit (V)
PSTATMODEL	IQUANT	4	Pstat Model
PSTATSECTION	LABEL	REF600-11020	Pstat Section
PSTATSERIALNO	LABEL	11020	Pstat Serial Number
CTRLMODE	IQUANT	1	Control Mode
IESTAB	IQUANT	0	I/E Stability
CASPEED	IQUANT	1	Control Amp Speed
CONVENTION	IQUANT	1	Current Convention
ICHRANGE	IQUANT	2	Ich Range
ICHRANGEMODE	TOGGLE	F	Ich Auto Range
ICHOFFSETENABLE	TOGGLE	T	Ich Offset Enable
ICHOFFSET	QUANT	0	Ich Offset (V)
ICHFILTER	IQUANT	3	Ich Filter
VCHRANGE	IQUANT	2	Vch Range
VCHRANGEMODE	TOGGLE	F	Vch Auto Range
VCHOFFSETENABLE	TOGGLE	T	Vch Offset Enable
VCHOFFSET	QUANT	0	Vch Offset (V)
VCHFILTER	IQUANT	3	Vch Filter
ACHRANGE	IQUANT	2	Ach Range
ACHOFFSETENABLE	TOGGLE	F	Ach Offset Enable
ACHOFFSET	QUANT	0	Ach Offset (V)
ACHFILTER	IQUANT	3	Ach Filter
IERANGELOWERLIMIT	IQUANT	1	I/E Range Lower Limit
IERANGEMODE	TOGGLE	F	I/E AutoRange
IERANGE	IQUANT	5	I/E Range
POSFEEDENABLE	TOGGLE	F	Positive Feedback IR Comp
POSFEEDRESISTANCE	QUANT	0	Positive Feedback Resistance (ohm)
ACHSELECT	IQUANT	0	Ach Select
CABLEID	IQUANT	14	Cable ID
DCCALDATE	LABEL	8/19/2019	DC Calibration Date
ACCALDATE	LABEL	8/19/2019	AC Calibration Date
THERMOSELECT	IQUANT	1	Thermo Select
FRAMEWORKVERSION	QUANT	6.33	Framework Version
INSTRUMENTVERSION	LABEL	3.50	Instrument Version
ZCURVE	TABLE
	Pt	Time	Freq	Zreal	Zimag	Zsig	Zmod	Zphz	Idc	Vdc	IERange
	#	s	Hz	ohm	ohm	V	ohm	°	A	V	#
	0	1	1000078	1406.197	-1971.64	1	2421.725	-54.50308	-6.34817E-006	0.006332	8
	1	3	794390.6	1575.065	-2311.451	1	2797.077	-55.72876	2.876707E-006	0.0051496	8
	2	4	630984.4	1748.637	-2724.232	1	3237.155	-57.30431	8.642833E-007	0.0051103	8
	3	5	501234.4	1989.649	-3229.004	1	3792.779	-58.35944	-8.723259E-007	0.0052858	8
	4	7	398109.4	2287.1	-3831.707	1	4462.377	-59.16753	1.40441E-006	0.0049918	8
	5	8	316265.6	2677.277	-4550.374	1	5279.556	-59.52897	-1.030518E-006	0.0054699	8
	6	9	251203.1	3191.123	-5347.812	1	6227.548	-59.17481	3.715178E-006	0.0044197	8
	7	11	199546.9	3895.216	-6313.504	1	7418.426	-58.32684	-6.748553E-007	0.0051859	8
	8	13	158578.1	4695.628	-7377.506	1	8745.086	-57.5241	1.389302E-006	0.004942	8
	9	14	125953.1	5926.437	-8499.778	1	10361.9	-55.11402	5.843916E-007	0.0044661	7
	10	16	100078.1	7333.065	-9629.45	1	12103.72	-52.70982	-2.053205E-008	0.0051039	7
	11	17	79453.13	9092.753	-10779.19	1	14102.09	-49.85079	5.980438E-008	0.0049544	7
	12	18	63140.62	11160.8	-11740.8	1	16199.07	-46.45073	6.121567E-008	0.0049549	7
	13	20	50203.12	13510.91	-12413.22	1	18347.55	-42.57539	3.952553E-008	0.0048991	7
	14	21	39890.62	16001.06	-12722.73	1	20442.64	-38.48883	-2.358322E-008	0.0050047	7
	15	23	31640.63	18547.28	-12682.78	1	22468.97	-34.36464	3.587412E-008	0.0051013	7
	16	24	25171.88	20891.71	-12247.66	1	24217.11	-30.38076	-7.634947E-009	0.0050015	7
	17	25	20015.62	22950.97	-11652.39	1	25739.57	-26.91726	-7.252085E-009	0.0050582	7
	18	27	15890.62	24841.25	-10874.54	1	27117.21	-23.64195	1.268592E-007	0.0048498	7
	19	28	12609.37	26556.44	-9837.33	1	28319.91	-20.3262	1.371759E-008	0.00487	6
	20	29	10078.13	27818.36	-9117.698	1	29274.46	-18.14698	-6.038671E-009	0.005042	6
	21	31	8015.625	28945.14	-8506.461	1	30169.2	-16.37712	-7.046925E-009	0.0050451	6
	22	32	6328.125	29978.44	-8013.611	1	31031.03	-14.96596	-4.161246E-009	0.0049784	6
	23	34	5015.625	30885.4	-7645.445	1	31817.62	-13.90364	-7.153033E-009	0.0050438	6
	24	35	3984.375	31714.33	-7409.481	1	32568.38	-13.15025	3.057486E-009	0.0047843	6
	25	36	3170.956	32528.21	-7313.674	1	33340.28	-12.67171	1.28976E-009	0.0050765	6
	26	38	2527.573	33303.54	-7312.214	1	34096.84	-12.38352	1.383823E-008	0.0048666	6
	27	39	1976.103	34123.22	-7480.899	1	34933.62	-12.36544	1.361851E-008	0.0048675	6
	28	40	1577.524	34866.7	-7747.215	1	35717.03	-12.52734	2.77698E-009	0.0048517	6
	29	42	1265.625	35607.82	-8178.127	1	36534.9	-12.93493	1.392418E-008	0.0048677	6
	30	43	998.264	36405.73	-8791.754	1	37452.27	-13.57663	3.198199E-009	0.0050082	6
	31	44	796.875	37167.37	-9605.41	1	38388.51	-14.49029	-9.282211E-009	0.005117	6
	32	46	627.7902	38074.02	-10691.99	1	39546.8	-15.68587	1.968137E-008	0.0046825	6
	33	47	505.5147	38961.13	-11968.51	1	40758	-17.07649	-5.275922E-009	0.0049979	6
	34	49	397.9953	40046.81	-13706.41	1	42327.45	-18.89402	6.484245E-010	0.0049965	6
	35	50	315.5048	41260.9	-15794.86	1	44180.76	-20.94707	7.737704E-010	0.0049909	6
	36	51	252.4038	42602.36	-18216.46	1	46333.58	-23.15121	1.629247E-011	0.0049881	6
	37	53	198.6229	44319.05	-21365.22	1	49200.11	-25.73767	4.675206E-010	0.0049868	6
	38	54	158.3615	46250.91	-24900.43	1	52527.87	-28.29701	4.925508E-010	0.004988	6
	39	55	125.558	48683.42	-29162.09	1	56749.48	-30.92223	7.960228E-011	0.0049918	6
	40	57	100.4464	51308.65	-33918.25	1	61506.3	-33.46721	1.724214E-010	0.0049899	6
	41	58	79.00281	55168.87	-39884.41	1	68076.21	-35.8651	2.6733E-010	0.00499	6
	42	60	63.3446	59820.77	-46449.36	1	75736.83	-37.82846	4.292979E-010	0.0049881	6
	43	61	49.86702	63710.6	-54808.09	1	84041.46	-40.7043	1.681879E-011	0.0049906	6
	44	63	39.72458	69798.55	-63179.67	1	94146.21	-42.1505	1.525773E-010	0.004994	6
	45	64	31.6723	76445.41	-73157.57	1	105810.8	-43.741	3.640326E-010	0.0049947	5
	46	65	24.93351	85047.2	-84890.94	1	120164.5	-44.94732	2.629047E-010	0.0049937	5
	47	67	19.86229	94514.53	-97886.3	1	136068.8	-46.00399	8.066121E-010	0.0050017	5
	48	68	15.83615	105581.1	-111595.1	1	153625.7	-46.5862	1.141214E-010	0.0049893	5
	49	69	12.40079	120502.8	-129589	1	176958.3	-47.08074	-5.952411E-010	0.0049948	5
	50	71	9.93114	134372.2	-146763.2	1	198985.7	-47.52368	6.466413E-010	0.004989	5
	51	72	7.944915	150256.7	-167158.9	1	224764.7	-48.04809	1.945546E-010	0.0049842	5
	52	74	6.317385	169207.1	-189379.3	1	253959.7	-48.21977	3.451356E-010	0.0049992	5
	53	76	5.008013	190242.4	-215881	1	287744.3	-48.61229	3.849095E-010	0.0049989	5
	54	79	3.945707	214954	-247420	1	327752.8	-49.01648	2.106522E-010	0.0049945	5
	55	81	3.158693	240470.6	-281474.2	1	370207.8	-49.49189	-1.276462E-010	0.0049962	5
	56	85	2.504006	270718.8	-322848.8	1	421331.2	-50.01912	3.794358E-010	0.0049949	5
	57	87	1.998082	304023.1	-369083.2	1	478176.2	-50.52085	4.395469E-011	0.0050315	5
	58	91	1.584686	342838.3	-423660.5	1	545001.2	-51.01921	1.127852E-010	0.0049656	5
	59	94	1.266892	387268.7	-486860.4	1	622101.3	-51.49982	1.827701E-010	0.0050172	5
	60	99	0.999041	443179.3	-562989.6	1	716495.1	-51.79056	-2.566561E-010	0.0049586	5
