EXPLAIN
TAG	EISPOT
TITLE	LABEL	Potentiostatic EIS	Test &Identifier
DATE	LABEL	9/26/2019	Date
TIME	LABEL	10:11:25	Time
NOTES	NOTES	2	&Notes...
	
	
PSTAT	PSTAT	REF600-11020	Potentiostat
VDC	POTEN	0.00000E+000	T	DC &Voltage (V)
FREQINIT	QUANT	1.00000E+006	Initial Fre&q. (Hz)
FREQFINAL	QUANT	1.00000E+000	Final Fre&q. (Hz)
PTSPERDEC	QUANT	1.00000E+001	Points/&decade
VAC	QUANT	2.50000E+001	AC &Voltage (mV rms)
AREA	QUANT	1.00000E-002	&Area (cm^2)
CONDIT	TWOPARAM	T	5.00000E+000	0.00000E+000	Conditionin&g	Time(s)	E(V)
DELAY	TWOPARAM	T	5.00000E+000	0.00000E+000	Init. De&lay	Time(s)	Stab.(mV/s)
SPEED	SELECTOR	1	&Optimize for:
ZGUESS	QUANT	1.00000E+004	E&stimated Z (ohms)
OCVCURVE	TABLE	19
	Pt	T	Vf	Vm	Ach	Over
	#	s	V vs. Ref.	V	V	bits
	0	0.258333	8.46137E-002	8.46137E-002	5.66632E-004	...........
	1	0.516667	8.47283E-002	9.06130E-002	5.72632E-004	...........
	2	0.775	8.54156E-002	9.54405E-002	5.67299E-004	...........
	3	1.03333	8.73073E-002	1.00165E-001	5.66399E-004	...........
	4	1.29167	9.05825E-002	1.04108E-001	5.66532E-004	...........
	5	1.55	9.47761E-002	1.08217E-001	5.66066E-004	...........
	6	1.80833	9.92445E-002	1.11792E-001	5.66899E-004	...........
	7	2.06667	1.03571E-001	1.15122E-001	5.68699E-004	...........
	8	2.325	1.07595E-001	1.18234E-001	5.64932E-004	...........
	9	2.58333	1.11294E-001	1.21173E-001	5.65066E-004	...........
	10	2.84167	1.14702E-001	1.23961E-001	5.69966E-004	...........
	11	3.1	1.17868E-001	1.26577E-001	5.66299E-004	...........
	12	3.35833	1.20809E-001	1.27719E-001	5.68766E-004	...........
	13	3.61667	1.23480E-001	1.30512E-001	5.66899E-004	...........
	14	3.875	1.25888E-001	1.33694E-001	5.62632E-004	...........
	15	4.13333	1.28208E-001	1.35852E-001	5.63832E-004	...........
	16	4.39167	1.30610E-001	1.37747E-001	5.58766E-004	...........
	17	4.65	1.33055E-001	1.39750E-001	5.65966E-004	...........
	18	4.90833	1.35390E-001	1.41673E-001	5.63032E-004	...........
EOC	QUANT	0.1353904	Open Circuit (V)
PSTATMODEL	IQUANT	4	Pstat Model
PSTATSECTION	LABEL	REF600-11020	Pstat Section
PSTATSERIALNO	LABEL	11020	Pstat Serial Number
CTRLMODE	IQUANT	1	Control Mode
IESTAB	IQUANT	0	I/E Stability
CASPEED	IQUANT	1	Control Amp Speed
CONVENTION	IQUANT	1	Current Convention
ICHRANGE	IQUANT	2	Ich Range
ICHRANGEMODE	TOGGLE	F	Ich Auto Range
ICHOFFSETENABLE	TOGGLE	T	Ich Offset Enable
ICHOFFSET	QUANT	0	Ich Offset (V)
ICHFILTER	IQUANT	3	Ich Filter
VCHRANGE	IQUANT	2	Vch Range
VCHRANGEMODE	TOGGLE	F	Vch Auto Range
VCHOFFSETENABLE	TOGGLE	T	Vch Offset Enable
VCHOFFSET	QUANT	0	Vch Offset (V)
VCHFILTER	IQUANT	3	Vch Filter
ACHRANGE	IQUANT	2	Ach Range
ACHOFFSETENABLE	TOGGLE	F	Ach Offset Enable
ACHOFFSET	QUANT	0	Ach Offset (V)
ACHFILTER	IQUANT	3	Ach Filter
IERANGELOWERLIMIT	IQUANT	1	I/E Range Lower Limit
IERANGEMODE	TOGGLE	F	I/E AutoRange
IERANGE	IQUANT	7	I/E Range
POSFEEDENABLE	TOGGLE	F	Positive Feedback IR Comp
POSFEEDRESISTANCE	QUANT	0	Positive Feedback Resistance (ohm)
ACHSELECT	IQUANT	0	Ach Select
CABLEID	IQUANT	14	Cable ID
DCCALDATE	LABEL	8/19/2019	DC Calibration Date
ACCALDATE	LABEL	8/19/2019	AC Calibration Date
THERMOSELECT	IQUANT	1	Thermo Select
FRAMEWORKVERSION	QUANT	6.33	Framework Version
INSTRUMENTVERSION	LABEL	3.50	Instrument Version
ZCURVE	TABLE
	Pt	Time	Freq	Zreal	Zimag	Zsig	Zmod	Zphz	Idc	Vdc	IERange
	#	s	Hz	ohm	ohm	V	ohm	°	A	V	#
	0	1	1000078	2301.892	-2085.405	1	3106.062	-42.17509	-2.847962E-006	0.1380825	8
	1	3	794390.6	2690.292	-2151.749	1	3444.952	-38.6535	1.282779E-006	0.1372833	8
	2	4	630984.4	3066.667	-2179.35	1	3762.182	-35.39979	9.934172E-007	0.1371805	8
	3	5	501234.4	3491.912	-2159.175	1	4105.543	-31.73	-2.771181E-006	0.1376592	8
	4	7	398109.4	3858.616	-2094.42	1	4390.389	-28.49269	-6.364874E-007	0.1374555	8
	5	8	316265.6	4269.194	-2022.83	1	4724.178	-25.35253	4.524203E-006	0.1362492	8
	6	10	251203.1	4582.8	-1849.084	1	4941.778	-21.97326	-1.15193E-006	0.1369961	8
	7	11	199546.9	4891.164	-1709.648	1	5181.349	-19.26647	-1.806365E-006	0.1373657	8
	8	13	158578.1	5109.75	-1554.336	1	5340.928	-16.91925	-9.420602E-007	0.1371859	8
	9	14	125953.1	5400.466	-1296.325	1	5553.872	-13.49787	4.042945E-007	0.136185	7
	10	16	100078.1	5544.007	-1144.906	1	5660.992	-11.66826	-4.786202E-008	0.1370004	7
	11	17	79453.13	5666.63	-1013.708	1	5756.588	-10.14241	-2.4862E-008	0.1370129	7
	12	18	63140.62	5784.22	-899.6202	1	5853.761	-8.840389	-5.257983E-008	0.1369892	7
	13	20	50203.12	5860.911	-805.3763	1	5915.987	-7.82429	4.274878E-008	0.1368406	7
	14	21	39890.62	5924.531	-728.366	1	5969.136	-7.008814	-1.747036E-008	0.1370142	7
	15	23	31640.63	5992.755	-669.0501	1	6029.987	-6.370303	-4.967104E-009	0.1370963	7
	16	24	25171.88	6058.704	-635.1492	1	6091.905	-5.984601	-4.800734E-008	0.1369916	7
	17	26	20015.62	6111.515	-615.5494	1	6142.436	-5.751412	4.540538E-008	0.1369132	7
	18	27	15890.62	6125.609	-600.0302	1	6154.927	-5.594525	-5.157052E-008	0.1369948	7
	19	29	12609.37	6206.72	-623.5031	1	6237.958	-5.736468	-9.051333E-008	0.1371037	7
	20	30	10078.13	6249.549	-656.9136	1	6283.979	-6.00054	-1.493801E-008	0.1369278	7
	21	32	8015.625	6260.832	-689.4399	1	6298.678	-6.284065	-3.053607E-008	0.137052	7
	22	33	6328.125	6339.896	-788.9983	1	6388.803	-7.093971	-4.923673E-009	0.1369013	7
	23	34	5015.625	6361.118	-866.4501	1	6419.856	-7.756544	-7.341301E-008	0.1370485	7
	24	36	3984.375	6403.891	-994.538	1	6480.657	-8.827634	-4.221046E-008	0.1369737	7
	25	37	3170.956	6486.964	-1203.211	1	6597.607	-10.50788	-3.80396E-008	0.1369737	7
	26	39	2527.573	6517.057	-1417.764	1	6669.489	-12.27327	9.328486E-008	0.1369136	7
	27	40	1976.103	6637.093	-1712.916	1	6854.567	-14.47124	-1.859943E-008	0.1369315	7
	28	41	1577.524	6689.825	-1971.326	1	6974.23	-16.41895	-3.677904E-008	0.1369651	7
	29	43	1265.625	6847.27	-2402.372	1	7256.479	-19.33348	-5.06638E-008	0.1369832	7
	30	44	998.264	6979.016	-2940.214	1	7573.079	-22.84537	-2.333871E-008	0.1370068	7
	31	46	796.875	7106.79	-3598.685	1	7965.99	-26.85641	-4.220048E-008	0.1369777	7
	32	47	627.7902	7326.436	-4382.83	1	8537.321	-30.88876	-6.458477E-008	0.1370232	7
	33	48	505.5147	7566.279	-5270.368	1	9220.92	-34.85953	3.419995E-008	0.1369205	7
	34	50	397.9953	7823.811	-6464.444	1	10148.94	-39.56531	-6.065809E-009	0.1369333	6
	35	51	315.5048	8185.174	-7554.549	1	11138.59	-42.70562	-8.078763E-009	0.1369353	6
	36	53	252.4038	8660.217	-9117.463	1	12574.87	-46.47334	-8.782273E-009	0.1369336	6
	37	54	198.6229	9355.573	-11351.74	1	14710.16	-50.50625	-6.954661E-009	0.1369325	6
	38	55	158.3615	10126.76	-14030.47	1	17303.33	-54.17942	-6.820162E-009	0.1369336	6
	39	57	125.558	11079.72	-16266.49	1	19681.43	-55.73974	-7.905751E-009	0.1369351	6
	40	58	100.4464	12123.86	-19447.94	1	22917.47	-58.06055	-6.415222E-009	0.1369309	6
	41	60	79.00281	13741.29	-23579.71	1	27291.5	-59.76811	-7.585781E-009	0.1369287	6
	42	61	63.3446	15652.23	-27777.79	1	31884.13	-60.5996	-8.132205E-009	0.1369307	6
	43	62	49.86702	17855.42	-34098.47	1	38490.54	-62.36151	-8.377159E-009	0.1369249	6
	44	64	39.72458	21057.42	-40548.86	1	45690.54	-62.55671	-7.781772E-009	0.1369343	6
	45	65	31.6723	23889.81	-48234.21	1	53826.23	-63.65136	-7.151279E-009	0.1369301	6
	46	67	24.93351	28453.29	-57865.6	1	64482.69	-63.81604	-7.007063E-009	0.1369294	6
	47	68	19.86229	33841.74	-68697.56	1	76580.8	-63.77426	-6.379935E-009	0.1369361	6
	48	69	15.83615	40478.17	-80865.67	1	90430.85	-63.40926	-7.600678E-009	0.1369276	6
	49	71	12.40079	50413.62	-96727.8	1	109077	-62.47189	-8.449094E-009	0.1369436	5
	50	72	9.93114	61561.84	-113148.8	1	128812	-61.45034	-7.626631E-009	0.1369371	5
	51	74	7.944915	75358.91	-131172.5	1	151278.5	-60.12254	-7.62113E-009	0.1369348	5
	52	75	6.317385	91442.41	-150664.9	1	176243.1	-58.74536	-7.667798E-009	0.1369242	5
	53	77	5.008013	111636.4	-172276.7	1	205285	-57.05651	-7.705486E-009	0.1369317	5
	54	80	3.945707	134782.2	-195965.5	1	237841.7	-55.48038	-7.538302E-009	0.1369316	5
	55	83	3.158693	159384.6	-219411.4	1	271191.4	-54.00463	-7.251731E-009	0.1369289	5
	56	86	2.504006	187209.3	-246071.1	1	309189.8	-52.73637	-7.496562E-009	0.1369427	5
	57	89	1.998082	216034.1	-274366.6	1	349210.2	-51.78339	-6.893492E-009	0.1368938	5
	58	92	1.584686	247812.1	-308251.5	1	395512.1	-51.20321	-7.278201E-009	0.1369264	5
	59	95	1.266892	282833.9	-345603.1	1	446583.1	-50.70387	-6.97276E-009	0.1368875	5
	60	100	0.999041	323367.1	-391556.6	1	507821.7	-50.44839	-6.844856E-009	0.1369755	5
