EXPLAIN
TAG	EISPOT
TITLE	LABEL	Potentiostatic EIS	Test &Identifier
DATE	LABEL	9/26/2019	Date
TIME	LABEL	8:05:43	Time
NOTES	NOTES	2	&Notes...
	
	
PSTAT	PSTAT	REF600-11020	Potentiostat
VDC	POTEN	0.00000E+000	T	DC &Voltage (V)
FREQINIT	QUANT	1.00000E+006	Initial Fre&q. (Hz)
FREQFINAL	QUANT	1.00000E+000	Final Fre&q. (Hz)
PTSPERDEC	QUANT	1.00000E+001	Points/&decade
VAC	QUANT	2.50000E+001	AC &Voltage (mV rms)
AREA	QUANT	1.00000E-002	&Area (cm^2)
CONDIT	TWOPARAM	T	5.00000E+000	0.00000E+000	Conditionin&g	Time(s)	E(V)
DELAY	TWOPARAM	T	5.00000E+000	0.00000E+000	Init. De&lay	Time(s)	Stab.(mV/s)
SPEED	SELECTOR	1	&Optimize for:
ZGUESS	QUANT	1.00000E+004	E&stimated Z (ohms)
OCVCURVE	TABLE	19
	Pt	T	Vf	Vm	Ach	Over
	#	s	V vs. Ref.	V	V	bits
	0	0.258333	-1.82460E-002	-1.82460E-002	5.87399E-004	...........
	1	0.516667	-1.82805E-002	-2.00536E-002	5.84665E-004	...........
	2	0.775	-1.84923E-002	-2.17525E-002	5.87865E-004	...........
	3	1.03333	-1.90898E-002	-2.33489E-002	5.86199E-004	...........
	4	1.29167	-2.01541E-002	-2.48734E-002	5.87765E-004	...........
	5	1.55	-2.15609E-002	-2.63175E-002	5.85865E-004	...........
	6	1.80833	-2.31104E-002	-2.76983E-002	5.85332E-004	...........
	7	2.06667	-2.46574E-002	-2.90089E-002	5.83865E-004	...........
	8	2.325	-2.61378E-002	-3.02756E-002	5.83899E-004	...........
	9	2.58333	-2.75394E-002	-3.14885E-002	5.86332E-004	...........
	10	2.84167	-2.88705E-002	-3.26622E-002	5.84499E-004	...........
	11	3.1	-3.01422E-002	-3.37788E-002	5.86399E-004	...........
	12	3.35833	-3.13622E-002	-3.48612E-002	5.82799E-004	...........
	13	3.61667	-3.25349E-002	-3.59126E-002	5.84099E-004	...........
	14	3.875	-3.36639E-002	-3.69263E-002	5.84432E-004	...........
	15	4.13333	-3.47524E-002	-3.78809E-002	5.85132E-004	...........
	16	4.39167	-3.58020E-002	-3.88256E-002	5.84365E-004	...........
	17	4.65	-3.68139E-002	-3.97708E-002	5.79932E-004	...........
	18	4.90833	-3.77981E-002	-4.09407E-002	5.83132E-004	...........
EOC	QUANT	-0.0377981	Open Circuit (V)
PSTATMODEL	IQUANT	4	Pstat Model
PSTATSECTION	LABEL	REF600-11020	Pstat Section
PSTATSERIALNO	LABEL	11020	Pstat Serial Number
CTRLMODE	IQUANT	1	Control Mode
IESTAB	IQUANT	0	I/E Stability
CASPEED	IQUANT	1	Control Amp Speed
CONVENTION	IQUANT	1	Current Convention
ICHRANGE	IQUANT	2	Ich Range
ICHRANGEMODE	TOGGLE	F	Ich Auto Range
ICHOFFSETENABLE	TOGGLE	T	Ich Offset Enable
ICHOFFSET	QUANT	0	Ich Offset (V)
ICHFILTER	IQUANT	3	Ich Filter
VCHRANGE	IQUANT	2	Vch Range
VCHRANGEMODE	TOGGLE	F	Vch Auto Range
VCHOFFSETENABLE	TOGGLE	T	Vch Offset Enable
VCHOFFSET	QUANT	0	Vch Offset (V)
VCHFILTER	IQUANT	3	Vch Filter
ACHRANGE	IQUANT	2	Ach Range
ACHOFFSETENABLE	TOGGLE	F	Ach Offset Enable
ACHOFFSET	QUANT	0	Ach Offset (V)
ACHFILTER	IQUANT	3	Ach Filter
IERANGELOWERLIMIT	IQUANT	1	I/E Range Lower Limit
IERANGEMODE	TOGGLE	F	I/E AutoRange
IERANGE	IQUANT	6	I/E Range
POSFEEDENABLE	TOGGLE	F	Positive Feedback IR Comp
POSFEEDRESISTANCE	QUANT	0	Positive Feedback Resistance (ohm)
ACHSELECT	IQUANT	0	Ach Select
CABLEID	IQUANT	14	Cable ID
DCCALDATE	LABEL	8/19/2019	DC Calibration Date
ACCALDATE	LABEL	8/19/2019	AC Calibration Date
THERMOSELECT	IQUANT	1	Thermo Select
FRAMEWORKVERSION	QUANT	6.33	Framework Version
INSTRUMENTVERSION	LABEL	3.50	Instrument Version
ZCURVE	TABLE
	Pt	Time	Freq	Zreal	Zimag	Zsig	Zmod	Zphz	Idc	Vdc	IERange
	#	s	Hz	ohm	ohm	V	ohm	°	A	V	#
	0	1	1000078	2027.455	-1832.578	1	2732.931	-42.10983	-1.450913E-006	-0.0362497	8
	1	3	794390.6	2325.385	-1923.962	1	3018.12	-39.60345	3.025265E-006	-0.0363461	8
	2	4	630984.4	2673.585	-1994.557	1	3335.613	-36.7238	1.619425E-006	-0.0364567	8
	3	6	501234.4	3013.397	-2018.955	1	3627.222	-33.82181	1.811346E-006	-0.0365826	8
	4	7	398109.4	3369.666	-2042.688	1	3940.46	-31.22421	2.564959E-006	-0.0366778	8
	5	8	316265.6	3774.327	-2036.111	1	4288.507	-28.34523	-8.987648E-007	-0.0360081	8
	6	10	251203.1	4115.678	-1989.009	1	4571.101	-25.79338	3.697349E-006	-0.0368333	8
	7	12	199546.9	4448.529	-1877.728	1	4828.589	-22.88465	-2.141098E-006	-0.0357763	8
	8	13	158578.1	4777.904	-1744.664	1	5086.474	-20.05979	6.711901E-007	-0.0362863	8
	9	15	125953.1	5099.588	-1551.693	1	5330.437	-16.92386	-8.057127E-007	-0.0345808	7
	10	16	100078.1	5316.98	-1391.264	1	5495.989	-14.6635	-5.299958E-009	-0.0362544	7
	11	17	79453.13	5515.546	-1249.28	1	5655.259	-12.76225	-4.348261E-009	-0.0360822	7
	12	19	63140.62	5662.335	-1109.52	1	5770.015	-11.08649	-6.978998E-008	-0.0360962	7
	13	20	50203.12	5782.657	-988.094	1	5866.469	-9.6966	8.321599E-008	-0.036347	7
	14	22	39890.62	5876.706	-883.7792	1	5942.789	-8.552442	5.059363E-008	-0.0363605	7
	15	24	31640.63	5955.449	-801.2901	1	6009.113	-7.662977	-2.713887E-008	-0.0362116	7
	16	25	25171.88	6025.32	-740.9379	1	6070.706	-7.010507	8.554835E-008	-0.0363826	7
	17	27	20015.62	6080.478	-703.8787	1	6121.083	-6.603193	-6.905162E-008	-0.0361044	7
	18	29	15890.62	6137.155	-679.4599	1	6174.653	-6.317631	-9.962348E-010	-0.0361816	7
	19	31	12609.37	6185.061	-681.614	1	6222.506	-6.288806	-1.88279E-009	-0.0360984	7
	20	33	10078.13	6227.311	-695.7148	1	6266.053	-6.374648	-5.109184E-008	-0.0361129	7
	21	34	8015.625	6276.545	-736.3272	1	6319.588	-6.691019	-6.647482E-010	-0.0361893	7
	22	36	6328.125	6326.626	-796.4399	1	6376.56	-7.17505	8.514859E-008	-0.0363959	7
	23	37	5015.625	6372.137	-882.1793	1	6432.913	-7.882111	-3.56233E-009	-0.0362803	7
	24	39	3984.375	6428.872	-999.511	1	6506.106	-8.837153	1.43413E-007	-0.0364272	7
	25	40	3170.956	6485.802	-1146.956	1	6586.436	-10.02856	-8.131886E-010	-0.0361843	7
	26	42	2527.573	6544.399	-1333.327	1	6678.841	-11.51559	-3.689185E-009	-0.0362759	7
	27	44	1976.103	6619.729	-1587.086	1	6807.324	-13.48224	1.964624E-008	-0.0363075	7
	28	45	1577.524	6700.956	-1879.539	1	6959.56	-15.66818	1.467425E-007	-0.0364282	7
	29	46	1265.625	6791.406	-2229.369	1	7147.956	-18.17311	8.275799E-008	-0.03636	7
	30	48	998.264	6912.708	-2687.636	1	7416.8	-21.2459	-5.931985E-009	-0.0361716	7
	31	49	796.875	7034.697	-3215.843	1	7734.895	-24.56705	8.56093E-008	-0.0363937	7
	32	50	627.7902	7189.809	-3914.512	1	8186.376	-28.56621	-1.654658E-009	-0.0361809	7
	33	52	505.5147	7353.127	-4682.558	1	8717.501	-32.48947	-4.09003E-008	-0.0361952	7
	34	53	397.9953	7567.946	-5726.66	1	9490.439	-37.11477	6.834628E-009	-0.0362075	7
	35	55	315.5048	7816.003	-6980.305	1	10479.24	-41.76736	2.132376E-009	-0.0362624	6
	36	56	252.4038	8095.294	-8469.292	1	11715.92	-46.29342	2.358779E-009	-0.0362659	6
	37	57	198.6229	8462.563	-10440.38	1	13439.36	-50.97313	2.234973E-009	-0.0362614	6
	38	59	158.3615	8891.379	-12745.78	1	15540.64	-55.10061	1.989227E-009	-0.036265	6
	39	60	125.558	9452.642	-15654.31	1	18286.88	-58.87489	2.400598E-009	-0.0362674	6
	40	61	100.4464	10108.83	-19075.11	1	21588.15	-62.07871	1.873789E-009	-0.036268	6
	41	63	79.00281	11132.9	-23603.18	1	26096.96	-64.74818	2.322521E-009	-0.0362667	6
	42	64	63.3446	12345.34	-28521.46	1	31078.63	-66.59491	1.922511E-009	-0.0362651	6
	43	65	49.86702	13733.19	-35749.07	1	38296.17	-68.98547	1.552618E-009	-0.0362677	6
	44	67	39.72458	15778.28	-43424.23	1	46201.93	-70.03128	2.166368E-009	-0.0362679	6
	45	68	31.6723	18495.36	-52825.6	1	55969.83	-70.70377	1.774187E-009	-0.036266	6
	46	70	24.93351	22213.26	-65067.22	1	68754.43	-71.15064	2.003769E-009	-0.0362598	6
	47	71	19.86229	27094.28	-79024.52	1	83540.26	-71.07525	2.225732E-009	-0.0362598	6
	48	72	15.83615	33437.38	-96426	1	102058.9	-70.87513	3.481878E-010	-0.0362663	6
	49	74	12.40079	42739.81	-116947.8	1	124512.9	-69.92463	8.001796E-010	-0.0362642	5
	50	75	9.93114	53072.11	-138886.4	1	148681.2	-69.08685	2.42904E-009	-0.0362652	5
	51	77	7.944915	67152.92	-164870.5	1	178021.9	-67.83858	2.176306E-009	-0.0362598	5
	52	78	6.317385	85073.28	-194957	1	212710.4	-66.42501	1.49097E-009	-0.0362487	5
	53	80	5.008013	108050.3	-229211.8	1	253402.7	-64.76085	1.66448E-009	-0.0362664	5
	54	83	3.945707	137050.5	-267571.3	1	300628.1	-62.87839	2.113721E-009	-0.0362579	5
	55	86	3.158693	169457.9	-307133.9	1	350780.9	-61.11274	1.363338E-009	-0.036277	5
	56	89	2.504006	208400.8	-351148.8	1	408333.7	-59.3116	2.098093E-009	-0.0362539	5
	57	92	1.998082	250880.8	-397069.5	1	469686.5	-57.71404	2.008052E-009	-0.0362513	5
	58	95	1.584686	300914.2	-447740.3	1	539463.4	-56.09602	1.621019E-009	-0.0363085	5
	59	99	1.266892	351501.2	-503534.8	1	614084.9	-55.08237	1.862301E-009	-0.0362604	5
	60	103	0.999041	410121.3	-569217.4	1	701575.3	-54.22724	1.252803E-009	-0.03628	5
