EXPLAIN
TAG	EISPOT
TITLE	LABEL	Potentiostatic IDE	Test &Identifier
DATE	LABEL	9/18/2019	Date
TIME	LABEL	10:01:50	Time
NOTES	NOTES	1	&Notes...
	
PSTAT	PSTAT	REF600-11020	Potentiostat
VDC	POTEN	0.00000E+000	T	DC &Voltage (V)
FREQINIT	QUANT	1.00000E+006	Initial Fre&q. (Hz)
FREQFINAL	QUANT	1.00000E+000	Final Fre&q. (Hz)
PTSPERDEC	QUANT	1.00000E+001	Points/&decade
VAC	QUANT	2.50000E+001	AC &Voltage (mV rms)
AREA	QUANT	1.00000E-002	&Area (cm^2)
CONDIT	TWOPARAM	T	5.00000E+000	0.00000E+000	Conditionin&g	Time(s)	E(V)
DELAY	TWOPARAM	T	5.00000E+000	0.00000E+000	Init. De&lay	Time(s)	Stab.(mV/s)
SPEED	SELECTOR	1	&Optimize for:
ZGUESS	QUANT	1.00000E+007	E&stimated Z (ohms)
OCVCURVE	TABLE	19
	Pt	T	Vf	Vm	Ach	Over
	#	s	V vs. Ref.	V	V	bits
	0	0.258333	6.46626E-003	6.46626E-003	5.59399E-004	...........
	1	0.516667	6.45609E-003	5.93401E-003	5.57166E-004	...........
	2	0.775	6.40448E-003	5.99623E-003	5.61899E-004	...........
	3	1.03333	6.30363E-003	6.53555E-003	5.57099E-004	...........
	4	1.29167	6.24948E-003	7.92438E-003	5.59166E-004	...........
	5	1.55	6.42620E-003	9.06298E-003	5.63766E-004	...........
	6	1.80833	6.95779E-003	9.77526E-003	5.62199E-004	...........
	7	2.06667	7.76892E-003	9.70694E-003	5.65799E-004	...........
	8	2.325	8.60801E-003	9.53590E-003	5.63666E-004	...........
	9	2.58333	9.22256E-003	9.44968E-003	5.67099E-004	...........
	10	2.84167	9.52117E-003	9.43617E-003	5.70032E-004	...........
	11	3.1	9.57618E-003	9.16585E-003	5.73699E-004	...........
	12	3.35833	9.50394E-003	9.10502E-003	5.70432E-004	...........
	13	3.61667	9.38026E-003	8.96418E-003	5.69532E-004	...........
	14	3.875	9.23968E-003	8.71268E-003	5.69099E-004	...........
	15	4.13333	9.09195E-003	8.62336E-003	5.67666E-004	...........
	16	4.39167	8.93850E-003	8.56016E-003	5.68432E-004	...........
	17	4.65	8.79560E-003	8.70255E-003	5.64832E-004	...........
	18	4.90833	8.69409E-003	8.68851E-003	5.61799E-004	...........
EOC	QUANT	0.0086941	Open Circuit (V)
PSTATMODEL	IQUANT	4	Pstat Model
PSTATSECTION	LABEL	REF600-11020	Pstat Section
PSTATSERIALNO	LABEL	11020	Pstat Serial Number
CTRLMODE	IQUANT	1	Control Mode
IESTAB	IQUANT	0	I/E Stability
CASPEED	IQUANT	1	Control Amp Speed
CONVENTION	IQUANT	1	Current Convention
ICHRANGE	IQUANT	2	Ich Range
ICHRANGEMODE	TOGGLE	F	Ich Auto Range
ICHOFFSETENABLE	TOGGLE	T	Ich Offset Enable
ICHOFFSET	QUANT	0	Ich Offset (V)
ICHFILTER	IQUANT	3	Ich Filter
VCHRANGE	IQUANT	2	Vch Range
VCHRANGEMODE	TOGGLE	F	Vch Auto Range
VCHOFFSETENABLE	TOGGLE	T	Vch Offset Enable
VCHOFFSET	QUANT	0	Vch Offset (V)
VCHFILTER	IQUANT	3	Vch Filter
ACHRANGE	IQUANT	2	Ach Range
ACHOFFSETENABLE	TOGGLE	F	Ach Offset Enable
ACHOFFSET	QUANT	0	Ach Offset (V)
ACHFILTER	IQUANT	3	Ach Filter
IERANGELOWERLIMIT	IQUANT	1	I/E Range Lower Limit
IERANGEMODE	TOGGLE	F	I/E AutoRange
IERANGE	IQUANT	3	I/E Range
POSFEEDENABLE	TOGGLE	F	Positive Feedback IR Comp
POSFEEDRESISTANCE	QUANT	0	Positive Feedback Resistance (ohm)
ACHSELECT	IQUANT	0	Ach Select
CABLEID	IQUANT	14	Cable ID
DCCALDATE	LABEL	8/19/2019	DC Calibration Date
ACCALDATE	LABEL	8/19/2019	AC Calibration Date
THERMOSELECT	IQUANT	1	Thermo Select
FRAMEWORKVERSION	QUANT	6.33	Framework Version
INSTRUMENTVERSION	LABEL	3.50	Instrument Version
ZCURVE	TABLE
	Pt	Time	Freq	Zreal	Zimag	Zsig	Zmod	Zphz	Idc	Vdc	IERange
	#	s	Hz	ohm	ohm	V	ohm	°	A	V	#
	0	2	1000078	2276.526	-1731.248	1	2860.033	-37.25219	1.240449E-006	0.0108895	8
	1	4	794390.6	2633.216	-1669.436	1	3117.827	-32.37434	2.86546E-006	0.0099695	8
	2	5	630984.4	2951.856	-1555.115	1	3336.44	-27.78143	-5.96519E-008	0.0104467	8
	3	6	501234.4	3207.316	-1403.113	1	3500.8	-23.62806	-4.975026E-007	0.0105551	8
	4	8	398109.4	3445.716	-1243.083	1	3663.088	-19.83751	-9.648892E-007	0.0105341	8
	5	9	316265.6	3593.468	-1078.671	1	3751.872	-16.70847	-3.873386E-007	0.0104518	8
	6	10	251203.1	3733.522	-929.2573	1	3847.428	-13.97667	-2.301671E-007	0.0105152	8
	7	12	199546.9	3818.765	-813.9962	1	3904.556	-12.03291	-7.243331E-007	0.0105782	8
	8	13	158578.1	3901.573	-710.8954	1	3965.81	-10.32643	-1.684139E-006	0.010719	8
	9	14	125953.1	3966.985	-594.1417	1	4011.231	-8.517967	3.66255E-008	0.0102094	7
	10	16	100078.1	4007.819	-524.1005	1	4041.942	-7.450264	-3.823414E-008	0.0103784	7
	11	17	79453.13	4051.128	-481.0617	1	4079.59	-6.772025	-2.029731E-008	0.0103174	7
	12	18	63140.62	4089.393	-450.4702	1	4114.129	-6.286118	-2.471512E-008	0.0103688	7
	13	20	50203.12	4126.451	-431.0853	1	4148.907	-5.963987	-2.886408E-008	0.0103399	7
	14	21	39890.62	4161.116	-423.1247	1	4182.574	-5.806186	-1.28224E-009	0.0103345	7
	15	22	31640.63	4196.865	-424.8452	1	4218.313	-5.780315	4.371704E-009	0.0103774	7
	16	24	25171.88	4231.923	-437.7376	1	4254.502	-5.905504	-1.808919E-008	0.010319	7
	17	25	20015.62	4268.332	-461.0632	1	4293.162	-6.165158	4.180492E-008	0.0102368	7
	18	26	15890.62	4307.183	-495.2109	1	4335.558	-6.558684	-1.113979E-008	0.0103402	7
	19	28	12609.37	4347.947	-544.4088	1	4381.897	-7.136893	2.20418E-009	0.0102831	7
	20	29	10078.13	4388.802	-605.6088	1	4430.389	-7.856604	-2.796479E-009	0.0102759	7
	21	30	8015.625	4435.573	-682.3482	1	4487.75	-8.745562	-3.562215E-009	0.0102766	7
	22	32	6328.125	4485.058	-784.6204	1	4553.171	-9.92297	5.765239E-008	0.0102163	7
	23	33	5015.625	4540.073	-909.2102	1	4630.219	-11.32444	-3.57838E-008	0.010362	7
	24	34	3984.375	4600.236	-1061.743	1	4721.173	-12.99639	1.098976E-008	0.0102561	7
	25	36	3170.956	4665.304	-1248.469	1	4829.465	-14.98171	-3.438204E-008	0.0103656	7
	26	37	2527.573	4739.963	-1476.099	1	4964.486	-17.29741	-3.530091E-008	0.0103538	7
	27	38	1976.103	4831.497	-1777.599	1	5148.128	-20.19953	-1.043659E-008	0.0103332	7
	28	40	1577.524	4923.733	-2118.536	1	5360.163	-23.28077	-1.010686E-008	0.0103335	7
	29	41	1265.625	5026.913	-2521.004	1	5623.639	-26.63383	-7.320531E-009	0.0103447	7
	30	42	998.264	5152.283	-3055.905	1	5990.374	-30.67289	-1.812652E-008	0.0103031	7
	31	44	796.875	5288.835	-3675.911	1	6440.815	-34.80055	3.992553E-009	0.010278	7
	32	45	627.7902	5449.442	-4494.216	1	7063.597	-39.51279	-8.287688E-009	0.010344	7
	33	46	505.5147	5619.946	-5394.992	1	7790.361	-43.83003	2.3308E-008	0.010225	7
	34	48	397.9953	5831.517	-6636.515	1	8834.587	-48.69417	6.041473E-009	0.0103235	7
	35	49	315.5048	6075.333	-8131.913	1	10150.75	-53.23668	9.270541E-010	0.010267	6
	36	50	252.4038	6352.451	-9910.35	1	11771.52	-57.34048	1.478201E-009	0.0102704	6
	37	52	198.6229	6715.576	-12281.01	1	13997.22	-61.32902	8.740722E-010	0.0102688	6
	38	53	158.3615	7145.19	-15065.93	1	16674.41	-64.62682	7.457533E-010	0.0102657	6
	39	54	125.558	7700.594	-18598.85	1	20129.98	-67.50867	1.107897E-009	0.0102671	6
	40	56	100.4464	8377.655	-22768.04	1	24260.44	-69.79857	1.007815E-009	0.0102663	6
	41	57	79.00281	9320.65	-28386.55	1	29877.6	-71.82254	7.457476E-010	0.0102642	6
	42	58	63.3446	10717.77	-34610.82	1	36232.3	-72.79406	6.567227E-010	0.010259	6
	43	60	49.86702	12074.42	-43149.45	1	44806.99	-74.36691	9.396514E-010	0.0102611	6
	44	61	39.72458	14351.62	-52850.34	1	54764.29	-74.80757	6.228141E-010	0.0102636	6
	45	62	31.6723	17184.29	-64845.54	1	67083.85	-75.15759	4.021389E-010	0.0102616	6
	46	64	24.93351	21287.3	-80008.03	1	82791.51	-75.1008	1.281533E-009	0.0102633	6
	47	65	19.86229	26524.31	-97694.1	1	101230.8	-74.81015	1.400118E-009	0.0102645	6
	48	66	15.83615	33366.62	-117980.4	1	122608	-74.20831	8.822415E-010	0.0102704	5
	49	68	12.40079	42429.32	-145594.4	1	151650.8	-73.75275	8.397784E-011	0.0102727	5
	50	69	9.93114	55240.15	-174935.8	1	183450.3	-72.47524	7.133625E-010	0.010275	5
	51	71	7.944915	70791.86	-209387.7	1	221031	-71.32013	9.833289E-011	0.0102779	5
	52	72	6.317385	90869.59	-250099.9	1	266096.3	-70.03223	1.415953E-010	0.010289	5
	53	74	5.008013	117261.3	-297390.3	1	319673.6	-68.48063	3.535568E-010	0.0102781	5
	54	77	3.945707	151763.2	-353476.7	1	384678.8	-66.76402	-5.283991E-011	0.0102633	5
	55	80	3.158693	191418.6	-411757.1	1	454076	-65.06712	3.764287E-010	0.0102672	5
	56	83	2.504006	241383.4	-478027.8	1	535515.2	-63.20819	-1.36152E-010	0.0102642	5
	57	86	1.998082	299273.2	-548557.4	1	624883.7	-61.38471	3.086058E-010	0.0102281	5
	58	89	1.584686	368806.1	-630113.3	1	730110	-59.65951	-1.016503E-010	0.0102144	5
	59	92	1.266892	444083.9	-710755.1	1	838083.1	-58.00262	2.963651E-010	0.0102406	5
	60	97	0.999041	540958.6	-812503.7	1	976114	-56.34464	-2.207655E-011	0.0102496	5
