EXPLAIN
TAG	EISPOT
TITLE	LABEL	Potentiostatic EIS	Test &Identifier
DATE	LABEL	11/21/2019	Date
TIME	LABEL	23:51:31	Time
NOTES	NOTES	4	&Notes...
	
	
	
	
PSTAT	PSTAT	REF600-11020	Potentiostat
VDC	POTEN	0.00000E+000	T	DC &Voltage (V)
FREQINIT	QUANT	1.00000E+006	Initial Fre&q. (Hz)
FREQFINAL	QUANT	1.00000E+000	Final Fre&q. (Hz)
PTSPERDEC	QUANT	1.00000E+001	Points/&decade
VAC	QUANT	2.50000E+001	AC &Voltage (mV rms)
AREA	QUANT	1.00000E-002	&Area (cm^2)
CONDIT	TWOPARAM	T	5.00000E+000	0.00000E+000	Conditionin&g	Time(s)	E(V)
DELAY	TWOPARAM	T	5.00000E+000	0.00000E+000	Init. De&lay	Time(s)	Stab.(mV/s)
SPEED	SELECTOR	1	&Optimize for:
ZGUESS	QUANT	1.00000E+005	E&stimated Z (ohms)
OCVCURVE	TABLE	19
	Pt	T	Vf	Vm	Ach	Over
	#	s	V vs. Ref.	V	V	bits
	0	0.258333	7.85521E-003	7.85521E-003	5.63899E-004	...........
	1	0.516667	7.85515E-003	7.85210E-003	5.59032E-004	...........
	2	0.775	7.85547E-003	7.88507E-003	5.59599E-004	...........
	3	1.03333	7.85896E-003	7.93270E-003	5.56566E-004	...........
	4	1.29167	7.87105E-003	7.98258E-003	5.52766E-004	...........
	5	1.55	7.89579E-003	8.02614E-003	5.57632E-004	...........
	6	1.80833	7.93245E-003	8.08445E-003	5.55033E-004	...........
	7	2.06667	7.97739E-003	8.14528E-003	5.58732E-004	...........
	8	2.325	8.02796E-003	8.20818E-003	5.60266E-004	...........
	9	2.58333	8.08307E-003	8.26783E-003	5.62532E-004	...........
	10	2.84167	8.14131E-003	8.31400E-003	5.60966E-004	...........
	11	3.1	8.20014E-003	8.37007E-003	5.57899E-004	...........
	12	3.35833	8.25709E-003	8.41529E-003	5.64966E-004	...........
	13	3.61667	8.31127E-003	8.47022E-003	5.61966E-004	...........
	14	3.875	8.36326E-003	8.51670E-003	5.62432E-004	...........
	15	4.13333	8.41401E-003	8.56859E-003	5.59399E-004	...........
	16	4.39167	8.46411E-003	8.61244E-003	5.60232E-004	...........
	17	4.65	8.51371E-003	8.66991E-003	5.63232E-004	...........
	18	4.90833	8.56310E-003	8.71436E-003	5.63299E-004	...........
EOC	QUANT	0.0085631	Open Circuit (V)
PSTATMODEL	IQUANT	4	Pstat Model
PSTATSECTION	LABEL	REF600-11020	Pstat Section
PSTATSERIALNO	LABEL	11020	Pstat Serial Number
CTRLMODE	IQUANT	1	Control Mode
IESTAB	IQUANT	0	I/E Stability
CASPEED	IQUANT	1	Control Amp Speed
CONVENTION	IQUANT	1	Current Convention
ICHRANGE	IQUANT	2	Ich Range
ICHRANGEMODE	TOGGLE	F	Ich Auto Range
ICHOFFSETENABLE	TOGGLE	T	Ich Offset Enable
ICHOFFSET	QUANT	0	Ich Offset (V)
ICHFILTER	IQUANT	3	Ich Filter
VCHRANGE	IQUANT	2	Vch Range
VCHRANGEMODE	TOGGLE	F	Vch Auto Range
VCHOFFSETENABLE	TOGGLE	T	Vch Offset Enable
VCHOFFSET	QUANT	0	Vch Offset (V)
VCHFILTER	IQUANT	3	Vch Filter
ACHRANGE	IQUANT	2	Ach Range
ACHOFFSETENABLE	TOGGLE	F	Ach Offset Enable
ACHOFFSET	QUANT	0	Ach Offset (V)
ACHFILTER	IQUANT	3	Ach Filter
IERANGELOWERLIMIT	IQUANT	1	I/E Range Lower Limit
IERANGEMODE	TOGGLE	F	I/E AutoRange
IERANGE	IQUANT	5	I/E Range
POSFEEDENABLE	TOGGLE	F	Positive Feedback IR Comp
POSFEEDRESISTANCE	QUANT	0	Positive Feedback Resistance (ohm)
ACHSELECT	IQUANT	0	Ach Select
CABLEID	IQUANT	14	Cable ID
DCCALDATE	LABEL	8/19/2019	DC Calibration Date
ACCALDATE	LABEL	8/19/2019	AC Calibration Date
THERMOSELECT	IQUANT	1	Thermo Select
FRAMEWORKVERSION	QUANT	6.33	Framework Version
INSTRUMENTVERSION	LABEL	3.50	Instrument Version
ZCURVE	TABLE
	Pt	Time	Freq	Zreal	Zimag	Zsig	Zmod	Zphz	Idc	Vdc	IERange
	#	s	Hz	ohm	ohm	V	ohm	°	A	V	#
	0	2	1000078	2332.565	-1637.356	1	2849.876	-35.06714	-4.05272E-006	0.0102415	8
	1	3	794390.6	2665.072	-1572.3	1	3094.307	-30.53912	1.060387E-005	0.0093713	8
	2	4	630984.4	2958.864	-1456.281	1	3297.822	-26.20529	-4.19256E-006	0.0099537	8
	3	6	501234.4	3199.599	-1316.604	1	3459.896	-22.36669	-8.374334E-007	0.0105576	8
	4	7	398109.4	3386.592	-1159.374	1	3579.546	-18.89825	-6.253957E-007	0.0097619	8
	5	8	316265.6	3559.755	-1021.049	1	3703.296	-16.00455	-6.486343E-007	0.0097412	8
	6	10	251203.1	3666.163	-891.8953	1	3773.093	-13.67316	6.095107E-006	0.0088983	8
	7	11	199546.9	3759.276	-773.0826	1	3837.944	-11.62068	1.942431E-006	0.0095538	8
	8	13	158578.1	3827.378	-634.1454	1	3879.557	-9.40768	5.904141E-006	0.0089273	8
	9	14	125953.1	3910.995	-559.9284	1	3950.873	-8.147544	-3.234448E-006	0.0139791	7
	10	15	100078.1	3954.257	-496.7793	1	3985.341	-7.160639	6.170036E-007	0.0102021	7
	11	17	79453.13	3994.095	-462.7726	1	4020.815	-6.609061	-3.081131E-007	0.0113651	7
	12	18	63140.62	4034.887	-441.8115	1	4059.004	-6.248869	1.117161E-006	0.0084792	7
	13	19	50203.12	4071.092	-430.8781	1	4093.831	-6.041604	8.095033E-007	0.0081431	7
	14	21	39890.62	4101.649	-430.63	1	4124.193	-5.993497	-1.068945E-006	0.0104839	7
	15	22	31640.63	4142.047	-445.3931	1	4165.925	-6.137416	8.493399E-007	0.0097488	7
	16	23	25171.88	4179.761	-465.6013	1	4205.613	-6.356216	3.92198E-007	0.0105124	7
	17	25	20015.62	4224.697	-499.5791	1	4254.133	-6.744024	-1.247215E-006	0.0110601	7
	18	26	15890.62	4265.723	-545.8916	1	4300.511	-7.292598	1.013969E-006	0.0082323	7
	19	27	12609.37	4304.858	-604.7061	1	4347.123	-7.996055	-9.260348E-007	0.0116804	7
	20	29	10078.13	4357.575	-678.0325	1	4410.01	-8.844223	1.132118E-006	0.0088092	7
	21	30	8015.625	4404.668	-770.8766	1	4471.616	-9.927	-7.362792E-007	0.0097786	7
	22	32	6328.125	4465.853	-887.9885	1	4553.28	-11.24599	1.117942E-006	0.008471	7
	23	33	5015.625	4523.065	-1034.535	1	4639.868	-12.88332	1.039841E-006	0.0092465	7
	24	34	3984.375	4577.113	-1210.515	1	4734.48	-14.81392	-1.257719E-006	0.0114404	7
	25	36	3170.956	4654.856	-1427.633	1	4868.863	-17.05065	3.929621E-007	0.0105136	7
	26	37	2527.573	4734.852	-1697.441	1	5029.923	-19.72272	8.105612E-007	0.0081372	7
	27	38	1976.103	4827.215	-2052.241	1	5245.351	-23.03228	-1.066926E-006	0.0104732	7
	28	40	1577.524	4934.921	-2460.75	1	5514.412	-26.50269	6.20862E-007	0.0101844	7
	29	41	1265.625	5051.441	-2950.823	1	5850.164	-30.29153	1.118633E-006	0.00847	7
	30	42	998.264	5199.922	-3591.59	1	6319.708	-34.63287	8.117852E-007	0.0081377	7
	31	44	796.875	5367.699	-4335.431	1	6899.867	-38.92743	5.087041E-007	0.0082386	7
	32	45	627.7902	5575.736	-5305.775	1	7696.758	-43.57883	1.280708E-007	0.0085438	7
	33	46	505.5147	5799.816	-6387.441	1	8627.704	-47.76046	8.067037E-007	0.0081405	7
	34	48	397.9953	6104.309	-7835.807	1	9932.9	-52.08043	4.781214E-009	0.0099892	7
	35	49	315.5048	6464.644	-9584.83	1	11561.16	-56.00166	1.67529E-009	0.0099189	6
	36	50	252.4038	6885.6	-11647.58	1	13530.62	-59.41006	2.450772E-010	0.009926	6
	37	52	198.6229	7452.76	-14374.78	1	16191.91	-62.59503	1.276259E-009	0.0099203	6
	38	53	158.3615	8136.131	-17553.94	1	19347.8	-65.1326	9.408574E-010	0.0099096	6
	39	55	125.558	9031.5	-21533.63	1	23350.91	-67.24615	8.019475E-010	0.0099259	6
	40	56	100.4464	10170.13	-26234.52	1	28136.84	-68.81058	4.304883E-010	0.0099233	6
	41	57	79.00281	11799.65	-32363.78	1	34447.73	-69.96844	-2.611538E-010	0.0099307	6
	42	59	63.3446	14067.96	-39130.99	1	41582.95	-70.22601	5.689006E-010	0.0099291	6
	43	60	49.86702	16305.64	-48466.78	1	51136.12	-71.40556	1.114219E-010	0.0099158	6
	44	62	39.72458	19894.81	-58503.63	1	61793.84	-71.21883	1.033805E-009	0.009925	6
	45	63	31.6723	24677.99	-70407.45	1	74607.05	-70.6843	6.466313E-011	0.0099276	6
	46	64	24.93351	30898.38	-85737.98	1	91135.67	-70.18178	-3.110131E-010	0.0099325	6
	47	66	19.86229	38849.64	-102746.7	1	109846.1	-69.28784	1.802231E-010	0.0099357	5
	48	67	15.83615	49452.27	-121941.6	1	131587.5	-67.92545	3.002041E-011	0.0099311	5
	49	68	12.40079	62891.47	-147407.5	1	160263.2	-66.89446	1.418272E-009	0.0099284	5
	50	70	9.93114	78351.04	-171456.3	1	188510.4	-65.44084	1.770154E-010	0.0099375	5
	51	71	7.944915	98248	-198898.2	1	221840.4	-63.7124	3.736861E-010	0.0099185	5
	52	73	6.317385	120786.3	-230051	1	259832.2	-62.29867	4.620925E-010	0.0099299	5
	53	75	5.008013	148841.9	-265202.1	1	304115.2	-60.69713	3.680454E-010	0.0099288	5
	54	78	3.945707	181947.9	-305205.4	1	355324.4	-59.19876	1.23479E-010	0.0099269	5
	55	80	3.158693	217286.7	-345759.1	1	408366	-57.85336	2.732199E-010	0.0099404	5
	56	84	2.504006	258588.4	-393323.5	1	470713.6	-56.6773	-1.288958E-010	0.0099171	5
	57	86	1.998082	302650.5	-443995.8	1	537335.6	-55.71964	-1.703206E-010	0.0099212	5
	58	89	1.584686	353588.7	-501393.6	1	613531.2	-54.80806	7.332682E-011	0.0099774	5
	59	93	1.266892	404565.1	-566387	1	696036.8	-54.46212	-1.38378E-010	0.0099263	5
	60	97	0.999041	464433	-645928.3	1	795563.5	-54.28325	2.696793E-010	0.0099426	5
