EXPLAIN
TAG	EISPOT
TITLE	LABEL	Potentiostatic EIS	Test &Identifier
DATE	LABEL	11/22/2019	Date
TIME	LABEL	1:09:23	Time
NOTES	NOTES	4	&Notes...
	
	
	
	
PSTAT	PSTAT	REF600-11020	Potentiostat
VDC	POTEN	0.00000E+000	T	DC &Voltage (V)
FREQINIT	QUANT	1.00000E+006	Initial Fre&q. (Hz)
FREQFINAL	QUANT	1.00000E+000	Final Fre&q. (Hz)
PTSPERDEC	QUANT	1.00000E+001	Points/&decade
VAC	QUANT	2.50000E+001	AC &Voltage (mV rms)
AREA	QUANT	1.00000E-002	&Area (cm^2)
CONDIT	TWOPARAM	T	5.00000E+000	0.00000E+000	Conditionin&g	Time(s)	E(V)
DELAY	TWOPARAM	T	5.00000E+000	0.00000E+000	Init. De&lay	Time(s)	Stab.(mV/s)
SPEED	SELECTOR	1	&Optimize for:
ZGUESS	QUANT	1.00000E+005	E&stimated Z (ohms)
OCVCURVE	TABLE	19
	Pt	T	Vf	Vm	Ach	Over
	#	s	V vs. Ref.	V	V	bits
	0	0.258333	4.36528E-003	4.36528E-003	5.64799E-004	...........
	1	0.516667	4.36259E-003	4.22496E-003	5.61299E-004	...........
	2	0.775	4.34646E-003	4.10877E-003	5.61066E-004	...........
	3	1.03333	4.30202E-003	4.00514E-003	5.61532E-004	...........
	4	1.29167	4.22550E-003	3.91946E-003	5.57166E-004	...........
	5	1.55	4.12909E-003	3.84518E-003	5.62766E-004	...........
	6	1.80833	4.02957E-003	3.77285E-003	5.59399E-004	...........
	7	2.06667	3.93713E-003	3.68815E-003	5.57732E-004	...........
	8	2.325	3.85339E-003	3.63361E-003	5.66366E-004	...........
	9	2.58333	3.77679E-003	3.59166E-003	5.63732E-004	...........
	10	2.84167	3.70766E-003	3.53997E-003	5.68366E-004	...........
	11	3.1	3.64719E-003	3.50154E-003	5.69132E-004	...........
	12	3.35833	3.59468E-003	3.46326E-003	5.64099E-004	...........
	13	3.61667	3.54821E-003	3.42628E-003	5.63432E-004	...........
	14	3.875	3.50611E-003	3.39162E-003	5.65599E-004	...........
	15	4.13333	3.46706E-003	3.35573E-003	5.67132E-004	...........
	16	4.39167	3.43002E-003	3.32306E-003	5.64032E-004	...........
	17	4.65	3.39440E-003	3.29302E-003	5.59632E-004	...........
	18	4.90833	3.36011E-003	3.26350E-003	5.61699E-004	...........
EOC	QUANT	0.0033601	Open Circuit (V)
PSTATMODEL	IQUANT	4	Pstat Model
PSTATSECTION	LABEL	REF600-11020	Pstat Section
PSTATSERIALNO	LABEL	11020	Pstat Serial Number
CTRLMODE	IQUANT	1	Control Mode
IESTAB	IQUANT	0	I/E Stability
CASPEED	IQUANT	1	Control Amp Speed
CONVENTION	IQUANT	1	Current Convention
ICHRANGE	IQUANT	2	Ich Range
ICHRANGEMODE	TOGGLE	F	Ich Auto Range
ICHOFFSETENABLE	TOGGLE	T	Ich Offset Enable
ICHOFFSET	QUANT	0	Ich Offset (V)
ICHFILTER	IQUANT	3	Ich Filter
VCHRANGE	IQUANT	2	Vch Range
VCHRANGEMODE	TOGGLE	F	Vch Auto Range
VCHOFFSETENABLE	TOGGLE	T	Vch Offset Enable
VCHOFFSET	QUANT	0	Vch Offset (V)
VCHFILTER	IQUANT	3	Vch Filter
ACHRANGE	IQUANT	2	Ach Range
ACHOFFSETENABLE	TOGGLE	F	Ach Offset Enable
ACHOFFSET	QUANT	0	Ach Offset (V)
ACHFILTER	IQUANT	3	Ach Filter
IERANGELOWERLIMIT	IQUANT	1	I/E Range Lower Limit
IERANGEMODE	TOGGLE	F	I/E AutoRange
IERANGE	IQUANT	4	I/E Range
POSFEEDENABLE	TOGGLE	F	Positive Feedback IR Comp
POSFEEDRESISTANCE	QUANT	0	Positive Feedback Resistance (ohm)
ACHSELECT	IQUANT	0	Ach Select
CABLEID	IQUANT	14	Cable ID
DCCALDATE	LABEL	8/19/2019	DC Calibration Date
ACCALDATE	LABEL	8/19/2019	AC Calibration Date
THERMOSELECT	IQUANT	1	Thermo Select
FRAMEWORKVERSION	QUANT	6.33	Framework Version
INSTRUMENTVERSION	LABEL	3.50	Instrument Version
ZCURVE	TABLE
	Pt	Time	Freq	Zreal	Zimag	Zsig	Zmod	Zphz	Idc	Vdc	IERange
	#	s	Hz	ohm	ohm	V	ohm	°	A	V	#
	0	1	1000078	2063.919	-1088.973	1	2333.585	-27.81719	-1.631086E-006	0.0053744	8
	1	3	794390.6	2264.856	-1027.221	1	2486.917	-24.39657	-2.922763E-006	0.0058403	8
	2	4	630984.4	2428.083	-952.84	1	2608.35	-21.42627	-4.596213E-006	0.0053894	8
	3	5	501234.4	2572.82	-867.96	1	2715.282	-18.6422	2.988003E-007	0.0053856	8
	4	7	398109.4	2685.611	-783.1153	1	2797.459	-16.25651	-2.728587E-006	0.0047736	8
	5	8	316265.6	2789.966	-712.5349	1	2879.516	-14.32664	-5.532265E-007	0.0045351	8
	6	9	251203.1	2873.985	-641.3481	1	2944.676	-12.5798	-8.251854E-007	0.0052327	8
	7	11	199546.9	2945.233	-586.2539	1	3003.013	-11.25769	3.883243E-006	0.0047579	8
	8	12	158578.1	3010.74	-540.1196	1	3058.804	-10.17054	-1.308515E-006	0.0051816	8
	9	13	125953.1	3079.884	-461.7389	1	3114.304	-8.526333	1.081767E-007	0.0071118	7
	10	15	100078.1	3125.872	-428.372	1	3155.088	-7.803253	1.017372E-006	0.0033759	7
	11	16	79453.13	3170.85	-424.8	1	3199.179	-7.630503	8.007577E-008	0.0056453	7
	12	17	63140.62	3217.255	-419.942	1	3244.546	-7.436661	-9.963803E-007	0.0052586	7
	13	19	50203.12	3266.827	-421.5375	1	3293.911	-7.352577	1.040116E-006	0.0036636	7
	14	20	39890.62	3311.038	-425.2878	1	3338.24	-7.319306	-9.967788E-007	0.0052581	7
	15	21	31640.63	3360.479	-436.8752	1	3388.758	-7.407127	3.859737E-007	0.005221	7
	16	23	25171.88	3408.114	-455.0843	1	3438.363	-7.605696	3.888881E-007	0.0052246	7
	17	24	20015.62	3455.691	-475.5844	1	3488.263	-7.836023	9.185135E-007	0.0031574	7
	18	25	15890.62	3502.944	-508.9681	1	3539.726	-8.267068	-1.034473E-006	0.0062868	7
	19	27	12609.37	3553.696	-552.5291	1	3596.393	-8.837594	-1.156832E-006	0.005796	7
	20	28	10078.13	3606.299	-601.7017	1	3656.15	-9.4724	4.498777E-007	0.0031924	7
	21	29	8015.625	3661.049	-667.2233	1	3721.353	-10.32875	8.402628E-008	0.0056398	7
	22	31	6328.125	3719.148	-751.3356	1	3794.281	-11.42107	4.490229E-007	0.003184	7
	23	32	5015.625	3774.11	-851.7981	1	3869.039	-12.71828	-1.162861E-006	0.0061269	7
	24	34	3984.375	3837.201	-977.003	1	3959.627	-14.28475	-6.953409E-007	0.0046088	7
	25	35	3170.956	3898.118	-1131.184	1	4058.928	-16.18205	-5.755182E-007	0.0062459	7
	26	36	2527.573	3961.266	-1320.548	1	4175.581	-18.43659	-8.397824E-007	0.0063279	7
	27	38	1976.103	4037.13	-1580.645	1	4335.534	-21.38168	-1.033051E-006	0.0062805	7
	28	39	1577.524	4122.068	-1886.463	1	4533.231	-24.59118	7.268201E-007	0.003077	7
	29	40	1265.625	4194.793	-2244.859	1	4757.697	-28.15363	4.482525E-007	0.0031727	7
	30	42	998.264	4300.709	-2731.92	1	5095.045	-32.42475	1.042619E-006	0.0036523	7
	31	43	796.875	4417.494	-3299.564	1	5513.744	-36.7572	8.371219E-008	0.0056239	7
	32	44	627.7902	4567.09	-4051.487	1	6105.15	-41.57639	4.510607E-007	0.0031786	7
	33	46	505.5147	4730.984	-4885.711	1	6800.911	-45.92178	4.452213E-007	0.0031782	7
	34	47	397.9953	4964.082	-6016.101	1	7799.716	-50.47285	4.45811E-009	0.0047615	7
	35	48	315.5048	5248.849	-7374.961	1	9052.097	-54.56008	6.472077E-009	0.0047662	7
	36	50	252.4038	5598.134	-8972.258	1	10575.47	-58.03839	1.106656E-009	0.0047094	6
	37	51	198.6229	6074.725	-11076.29	1	12632.75	-61.2577	5.179421E-010	0.0047088	6
	38	52	158.3615	6659.479	-13509.81	1	15061.99	-63.75963	1.133752E-009	0.0047027	6
	39	54	125.558	7443.714	-16553.16	1	18149.82	-65.78725	4.020758E-010	0.0047111	6
	40	55	100.4464	8419.762	-20079.29	1	21773.16	-67.25045	1.726446E-009	0.0047001	6
	41	57	79.00281	9782.15	-24699.06	1	26565.66	-68.39378	1.377863E-009	0.004698	6
	42	58	63.3446	11523.85	-30070.94	1	32203.42	-69.03206	8.454982E-010	0.0046966	6
	43	59	49.86702	13799.45	-36389.72	1	38918.33	-69.23262	8.869121E-010	0.0047037	6
	44	61	39.72458	16998.52	-43945.25	1	47118.3	-68.85297	1.116043E-009	0.0047054	6
	45	62	31.6723	20869.85	-52742.14	1	56721.11	-68.4115	1.131695E-009	0.0047004	6
	46	63	24.93351	26526.5	-63466.86	1	68787.33	-67.31711	1.404103E-010	0.0046952	6
	47	65	19.86229	33304.07	-75090.21	1	82144.39	-66.08172	-5.522558E-011	0.0046955	6
	48	66	15.83615	41964.15	-87546.84	1	97084.7	-64.39003	9.846738E-010	0.0046925	6
	49	67	12.40079	53239.64	-103868.9	1	116718.5	-62.86189	-9.961089E-010	0.0047001	5
	50	69	9.93114	64832.37	-118659.9	1	135216.2	-61.34908	-4.279806E-010	0.0047104	5
	51	70	7.944915	78115.58	-134980.9	1	155954.7	-59.94135	1.326426E-009	0.0047064	5
	52	72	6.317385	93710.78	-153984	1	180257.5	-58.67635	5.99325E-010	0.0047141	5
	53	74	5.008013	110696.9	-175314.8	1	207338.1	-57.73096	4.076119E-010	0.0047092	5
	54	77	3.945707	129498.8	-200411	1	238609.5	-57.13084	-1.772031E-010	0.0047079	5
	55	79	3.158693	148490	-227621.2	1	271773.2	-56.88134	2.544438E-010	0.0047146	5
	56	83	2.504006	169886.5	-261262.9	1	311640.4	-56.96602	-1.429365E-010	0.0047087	5
	57	85	1.998082	192235.1	-299695	1	356049.7	-57.32244	2.940718E-010	0.0046615	5
	58	88	1.584686	218310.4	-348566	1	411287.8	-57.94067	2.17245E-011	0.0046575	5
	59	92	1.266892	246690.3	-403322	1	472784.1	-58.54813	2.737983E-010	0.0046706	5
	60	96	0.999041	281415.1	-474612	1	551770.8	-59.33473	-8.998537E-011	0.004718	5
