EXPLAIN
TAG	EISPOT
TITLE	LABEL	Potentiostatic EIS	Test &Identifier
DATE	LABEL	11/5/2019	Date
TIME	LABEL	9:28:55	Time
NOTES	NOTES	2	&Notes...
	
	
PSTAT	PSTAT	REF600-11020	Potentiostat
VDC	POTEN	0.00000E+000	T	DC &Voltage (V)
FREQINIT	QUANT	1.00000E+006	Initial Fre&q. (Hz)
FREQFINAL	QUANT	1.00000E+000	Final Fre&q. (Hz)
PTSPERDEC	QUANT	1.00000E+001	Points/&decade
VAC	QUANT	2.50000E+001	AC &Voltage (mV rms)
AREA	QUANT	1.00000E-002	&Area (cm^2)
CONDIT	TWOPARAM	T	5.00000E+000	0.00000E+000	Conditionin&g	Time(s)	E(V)
DELAY	TWOPARAM	T	5.00000E+000	0.00000E+000	Init. De&lay	Time(s)	Stab.(mV/s)
SPEED	SELECTOR	1	&Optimize for:
ZGUESS	QUANT	1.00000E+005	E&stimated Z (ohms)
OCVCURVE	TABLE	19
	Pt	T	Vf	Vm	Ach	Over
	#	s	V vs. Ref.	V	V	bits
	0	0.258333	4.24889E-003	4.24889E-003	5.67666E-004	...........
	1	0.516667	4.24666E-003	4.13208E-003	5.67599E-004	...........
	2	0.775	4.23182E-003	3.96220E-003	5.68399E-004	...........
	3	1.03333	4.18765E-003	3.87985E-003	5.70066E-004	...........
	4	1.29167	4.10786E-003	3.79034E-003	5.66599E-004	...........
	5	1.55	4.00684E-003	3.75519E-003	5.66899E-004	...........
	6	1.80833	3.90465E-003	3.55228E-003	5.68032E-004	...........
	7	2.06667	3.80560E-003	3.44403E-003	5.71699E-004	...........
	8	2.325	3.70366E-003	3.52118E-003	5.70132E-004	...........
	9	2.58333	3.60574E-003	3.39080E-003	5.70166E-004	...........
	10	2.84167	3.52640E-003	3.35936E-003	5.68366E-004	...........
	11	3.1	3.46443E-003	3.25782E-003	5.68799E-004	...........
	12	3.35833	3.40894E-003	3.33844E-003	5.70032E-004	...........
	13	3.61667	3.35625E-003	3.09109E-003	5.68399E-004	...........
	14	3.875	3.30652E-003	3.30578E-003	5.69332E-004	...........
	15	4.13333	3.26291E-003	3.17303E-003	5.70232E-004	...........
	16	4.39167	3.23246E-003	3.17639E-003	5.72066E-004	...........
	17	4.65	3.21288E-003	3.13393E-003	5.69899E-004	...........
	18	4.90833	3.19301E-003	3.08725E-003	5.67399E-004	...........
EOC	QUANT	0.003193	Open Circuit (V)
PSTATMODEL	IQUANT	4	Pstat Model
PSTATSECTION	LABEL	REF600-11020	Pstat Section
PSTATSERIALNO	LABEL	11020	Pstat Serial Number
CTRLMODE	IQUANT	1	Control Mode
IESTAB	IQUANT	0	I/E Stability
CASPEED	IQUANT	1	Control Amp Speed
CONVENTION	IQUANT	1	Current Convention
ICHRANGE	IQUANT	2	Ich Range
ICHRANGEMODE	TOGGLE	F	Ich Auto Range
ICHOFFSETENABLE	TOGGLE	T	Ich Offset Enable
ICHOFFSET	QUANT	0	Ich Offset (V)
ICHFILTER	IQUANT	3	Ich Filter
VCHRANGE	IQUANT	2	Vch Range
VCHRANGEMODE	TOGGLE	F	Vch Auto Range
VCHOFFSETENABLE	TOGGLE	T	Vch Offset Enable
VCHOFFSET	QUANT	0	Vch Offset (V)
VCHFILTER	IQUANT	3	Vch Filter
ACHRANGE	IQUANT	2	Ach Range
ACHOFFSETENABLE	TOGGLE	F	Ach Offset Enable
ACHOFFSET	QUANT	0	Ach Offset (V)
ACHFILTER	IQUANT	3	Ach Filter
IERANGELOWERLIMIT	IQUANT	1	I/E Range Lower Limit
IERANGEMODE	TOGGLE	F	I/E AutoRange
IERANGE	IQUANT	4	I/E Range
POSFEEDENABLE	TOGGLE	F	Positive Feedback IR Comp
POSFEEDRESISTANCE	QUANT	0	Positive Feedback Resistance (ohm)
ACHSELECT	IQUANT	0	Ach Select
CABLEID	IQUANT	14	Cable ID
DCCALDATE	LABEL	8/19/2019	DC Calibration Date
ACCALDATE	LABEL	8/19/2019	AC Calibration Date
THERMOSELECT	IQUANT	1	Thermo Select
FRAMEWORKVERSION	QUANT	6.33	Framework Version
INSTRUMENTVERSION	LABEL	3.50	Instrument Version
ZCURVE	TABLE
	Pt	Time	Freq	Zreal	Zimag	Zsig	Zmod	Zphz	Idc	Vdc	IERange
	#	s	Hz	ohm	ohm	V	ohm	°	A	V	#
	0	1	1000078	2256.292	-1869.093	1	2929.908	-39.63805	-3.613396E-006	0.0061664	8
	1	3	794390.6	2657.984	-1881.19	1	3256.341	-35.28898	9.252554E-007	0.0047675	8
	2	4	630984.4	3037.171	-1798.236	1	3529.598	-30.62876	8.257702E-006	0.0041041	8
	3	6	501234.4	3365.242	-1647.094	1	3746.701	-26.07911	-5.329214E-006	0.0055316	8
	4	7	398109.4	3644.559	-1481.704	1	3934.242	-22.12432	1.206319E-006	0.0052556	8
	5	8	316265.6	3866.096	-1312.699	1	4082.876	-18.75447	-2.725823E-006	0.004714	8
	6	10	251203.1	4019.864	-1135.433	1	4177.142	-15.77262	6.255309E-006	0.003677	8
	7	11	199546.9	4152.788	-989.263	1	4268.992	-13.39908	-1.630953E-006	0.0052203	8
	8	12	158578.1	4272.715	-849.0584	1	4356.259	-11.2392	-2.436797E-007	0.004514	8
	9	14	125953.1	4349.614	-667.4473	1	4400.526	-8.723974	-1.08612E-006	0.0058479	7
	10	15	100078.1	4401.42	-581.1711	1	4439.624	-7.52192	-6.922201E-007	0.0064954	7
	11	16	79453.13	4451.478	-533.522	1	4483.335	-6.834459	-3.070504E-007	0.0038069	7
	12	18	63140.62	4491.947	-491.5237	1	4518.759	-6.244649	-6.899417E-007	0.0064919	7
	13	19	50203.12	4529.104	-462.2919	1	4552.636	-5.828075	-1.30852E-006	0.0058927	7
	14	21	39890.62	4564.506	-451.2876	1	4586.761	-5.646419	8.85262E-007	0.0045554	7
	15	22	31640.63	4596.536	-447.0521	1	4618.225	-5.555028	-1.12043E-006	0.0052766	7
	16	23	25171.88	4634.061	-458.2283	1	4656.661	-5.647202	5.487334E-007	0.0029263	7
	17	25	20015.62	4663.174	-483.936	1	4688.218	-5.924846	-3.087397E-007	0.0037961	7
	18	26	15890.62	4701.505	-518.7672	1	4730.04	-6.296583	-1.195936E-006	0.006489	7
	19	27	12609.37	4739.585	-565.2724	1	4773.175	-6.801324	-1.309481E-006	0.0058874	7
	20	29	10078.13	4780.177	-636.7229	1	4822.396	-7.587177	1.50415E-007	0.0032386	7
	21	30	8015.625	4819.418	-724.495	1	4873.57	-8.549161	-1.307962E-006	0.0058849	7
	22	31	6328.125	4867.101	-840.4824	1	4939.137	-9.79758	4.009945E-007	0.0053489	7
	23	33	5015.625	4914.194	-983.721	1	5011.687	-11.31982	-9.81569E-007	0.0065598	7
	24	34	3984.375	4968.627	-1160.684	1	5102.396	-13.14865	-1.328193E-006	0.0063004	7
	25	36	3170.956	5029.433	-1380.577	1	5215.476	-15.34959	-1.32859E-006	0.0062975	7
	26	37	2527.573	5098.056	-1649.1	1	5358.144	-17.92516	-1.194545E-006	0.006482	7
	27	38	1976.103	5190.35	-2011.165	1	5566.374	-21.18043	-1.194282E-006	0.0064834	7
	28	40	1577.524	5276.594	-2420.458	1	5805.262	-24.64168	4.014821E-007	0.0053454	7
	29	41	1265.625	5398.499	-2915.419	1	6135.427	-28.37093	1.18618E-006	0.0031784	7
	30	42	998.264	5540.763	-3557.17	1	6584.338	-32.70047	-1.32657E-006	0.0062907	7
	31	44	796.875	5710.88	-4312.865	1	7156.462	-37.06015	1.183967E-006	0.0031731	7
	32	45	627.7902	5921.749	-5285.997	1	7937.813	-41.75341	1.193873E-006	0.0035364	7
	33	47	505.5147	6156.925	-6368.238	1	8857.888	-45.96655	1.192654E-006	0.0035373	7
	34	48	397.9953	6473.868	-7808.753	1	10143.35	-50.33948	3.410885E-009	0.0047623	7
	35	50	315.5048	6848.958	-9541.02	1	11744.75	-54.32757	1.288521E-010	0.0047093	6
	36	51	252.4038	7286.051	-11584.95	1	13685.67	-57.83323	1.820083E-009	0.0047008	6
	37	52	198.6229	7869.716	-14280.63	1	16305.49	-61.14189	1.252241E-009	0.0046959	6
	38	54	158.3615	8567.229	-17420.51	1	19413.18	-63.81251	1.31077E-009	0.004703	6
	39	55	125.558	9487.382	-21365.05	1	23376.82	-66.05587	7.331818E-010	0.0047127	6
	40	56	100.4464	10625.27	-26006.64	1	28093.45	-67.77704	-2.055293E-010	0.0047029	6
	41	58	79.00281	12345.64	-32139.26	1	34428.87	-68.98673	1.857001E-011	0.0047101	6
	42	59	63.3446	14799.2	-38928.61	1	41646.76	-69.18507	6.879764E-010	0.0046972	6
	43	61	49.86702	17160.45	-48074.36	1	51045.32	-70.35566	1.057635E-009	0.0047042	6
	44	62	39.72458	21129.17	-57876.53	1	61612.78	-69.94421	9.498073E-010	0.0046988	6
	45	63	31.6723	25964.57	-69530.07	1	74219.88	-69.52289	2.873934E-010	0.0046987	6
	46	65	24.93351	33351.14	-84177.5	1	90543.63	-68.38652	6.076358E-010	0.0046986	6
	47	66	19.86229	42109.41	-100175.8	1	108666.5	-67.20031	-5.156218E-010	0.0047082	5
	48	68	15.83615	54643.67	-118502.4	1	130494.2	-65.24468	-1.027676E-009	0.0047126	5
	49	69	12.40079	68830.98	-138021.9	1	154232.8	-63.49475	1.163602E-009	0.0047061	5
	50	70	9.93114	84576.02	-160322	1	181262.9	-62.18663	5.945772E-011	0.0047171	5
	51	72	7.944915	104680.8	-182832.3	1	210679.2	-60.20667	1.210864E-009	0.0047127	5
	52	74	6.317385	127262.9	-209438.8	1	245072.3	-58.71557	-3.122722E-010	0.0047262	5
	53	76	5.008013	154204.5	-237161.9	1	282886.6	-56.96777	5.001352E-011	0.0047081	5
	54	78	3.945707	184368.1	-268785.4	1	325940.5	-55.55259	5.226184E-010	0.004712	5
	55	81	3.158693	215543.3	-301186.8	1	370367.9	-54.41072	5.054789E-012	0.0046923	5
	56	84	2.504006	250472.3	-338883	1	421400.1	-53.53148	4.929353E-010	0.0047194	5
	57	87	1.998082	286799.9	-379895.4	1	475998.7	-52.94922	3.907272E-010	0.0047323	5
	58	90	1.584686	327172.3	-427629.5	1	538431.7	-52.58099	1.350546E-010	0.0046678	5
	59	94	1.266892	367163.4	-483527.2	1	607130.6	-52.789	3.350961E-010	0.0047126	5
	60	98	0.999041	414946.9	-553540.3	1	691800.4	-53.1439	-2.154622E-010	0.0046954	5
