EXPLAIN
TAG	EISPOT
TITLE	LABEL	Potentiostatic EIS	Test &Identifier
DATE	LABEL	10/14/2019	Date
TIME	LABEL	10:38:46	Time
NOTES	NOTES	1	&Notes...
	
PSTAT	PSTAT	REF600-11020	Potentiostat
VDC	POTEN	0.00000E+000	T	DC &Voltage (V)
FREQINIT	QUANT	1.00000E+006	Initial Fre&q. (Hz)
FREQFINAL	QUANT	1.00000E+000	Final Fre&q. (Hz)
PTSPERDEC	QUANT	1.00000E+001	Points/&decade
VAC	QUANT	2.50000E+001	AC &Voltage (mV rms)
AREA	QUANT	1.00000E-002	&Area (cm^2)
CONDIT	TWOPARAM	T	5.00000E+000	0.00000E+000	Conditionin&g	Time(s)	E(V)
DELAY	TWOPARAM	T	5.00000E+000	0.00000E+000	Init. De&lay	Time(s)	Stab.(mV/s)
SPEED	SELECTOR	1	&Optimize for:
ZGUESS	QUANT	1.00000E+004	E&stimated Z (ohms)
OCVCURVE	TABLE	19
	Pt	T	Vf	Vm	Ach	Over
	#	s	V vs. Ref.	V	V	bits
	0	0.258333	6.59414E-003	6.59414E-003	5.56533E-004	...........
	1	0.516667	6.59265E-003	6.51635E-003	5.56066E-004	...........
	2	0.775	6.58538E-003	6.53960E-003	5.51666E-004	...........
	3	1.03333	6.56995E-003	6.50862E-003	5.55999E-004	...........
	4	1.29167	6.55256E-003	6.62246E-003	5.56133E-004	...........
	5	1.55	6.54418E-003	6.52206E-003	5.50466E-004	...........
	6	1.80833	6.54877E-003	6.64497E-003	5.52832E-004	...........
	7	2.06667	6.55328E-003	6.13763E-003	5.51933E-004	...........
	8	2.325	6.52377E-003	6.10622E-003	5.54099E-004	...........
	9	2.58333	6.43281E-003	6.06783E-003	5.50233E-004	...........
	10	2.84167	6.29951E-003	5.96980E-003	5.43266E-004	...........
	11	3.1	6.17134E-003	6.00505E-003	5.49233E-004	...........
	12	3.35833	6.07877E-003	6.04260E-003	5.58032E-004	...........
	13	3.61667	6.03012E-003	6.09124E-003	5.60566E-004	...........
	14	3.875	6.02170E-003	6.09497E-003	5.53066E-004	...........
	15	4.13333	6.03946E-003	6.10475E-003	5.52466E-004	...........
	16	4.39167	6.06504E-003	6.09888E-003	5.49733E-004	...........
	17	4.65	6.08537E-003	6.09674E-003	5.53166E-004	...........
	18	4.90833	6.09636E-003	6.10459E-003	5.53499E-004	...........
EOC	QUANT	0.0060964	Open Circuit (V)
PSTATMODEL	IQUANT	4	Pstat Model
PSTATSECTION	LABEL	REF600-11020	Pstat Section
PSTATSERIALNO	LABEL	11020	Pstat Serial Number
CTRLMODE	IQUANT	1	Control Mode
IESTAB	IQUANT	0	I/E Stability
CASPEED	IQUANT	1	Control Amp Speed
CONVENTION	IQUANT	1	Current Convention
ICHRANGE	IQUANT	2	Ich Range
ICHRANGEMODE	TOGGLE	F	Ich Auto Range
ICHOFFSETENABLE	TOGGLE	T	Ich Offset Enable
ICHOFFSET	QUANT	0	Ich Offset (V)
ICHFILTER	IQUANT	3	Ich Filter
VCHRANGE	IQUANT	2	Vch Range
VCHRANGEMODE	TOGGLE	F	Vch Auto Range
VCHOFFSETENABLE	TOGGLE	T	Vch Offset Enable
VCHOFFSET	QUANT	0	Vch Offset (V)
VCHFILTER	IQUANT	3	Vch Filter
ACHRANGE	IQUANT	2	Ach Range
ACHOFFSETENABLE	TOGGLE	F	Ach Offset Enable
ACHOFFSET	QUANT	0	Ach Offset (V)
ACHFILTER	IQUANT	3	Ach Filter
IERANGELOWERLIMIT	IQUANT	1	I/E Range Lower Limit
IERANGEMODE	TOGGLE	F	I/E AutoRange
IERANGE	IQUANT	6	I/E Range
POSFEEDENABLE	TOGGLE	F	Positive Feedback IR Comp
POSFEEDRESISTANCE	QUANT	0	Positive Feedback Resistance (ohm)
ACHSELECT	IQUANT	0	Ach Select
CABLEID	IQUANT	14	Cable ID
DCCALDATE	LABEL	8/19/2019	DC Calibration Date
ACCALDATE	LABEL	8/19/2019	AC Calibration Date
THERMOSELECT	IQUANT	1	Thermo Select
FRAMEWORKVERSION	QUANT	6.33	Framework Version
INSTRUMENTVERSION	LABEL	3.50	Instrument Version
ZCURVE	TABLE
	Pt	Time	Freq	Zreal	Zimag	Zsig	Zmod	Zphz	Idc	Vdc	IERange
	#	s	Hz	ohm	ohm	V	ohm	°	A	V	#
	0	2	1000078	2474.503	-2064.042	1	3222.333	-39.83229	-2.393989E-006	0.0090344	8
	1	3	794390.6	2886.264	-2066.634	1	3549.858	-35.60357	6.013431E-007	0.0079245	8
	2	5	630984.4	3277.348	-2027.368	1	3853.729	-31.74095	4.462523E-006	0.0070325	8
	3	6	501234.4	3643.494	-1922.619	1	4119.649	-27.81996	3.694663E-006	0.0069715	8
	4	8	398109.4	3994.798	-1801.426	1	4382.186	-24.27266	1.500415E-006	0.0071183	8
	5	9	316265.6	4273.552	-1611.088	1	4567.149	-20.65596	-5.770865E-007	0.0077726	8
	6	11	251203.1	4536.546	-1431.992	1	4757.189	-17.51867	1.396832E-006	0.007324	8
	7	12	199546.9	4694.984	-1273.974	1	4864.76	-15.18153	1.669541E-006	0.0071108	8
	8	14	158578.1	4869.034	-1126.828	1	4997.723	-13.03041	-2.167291E-007	0.0076519	8
	9	15	125953.1	4984.146	-932.8874	1	5070.7	-10.60144	5.150038E-007	0.0069859	7
	10	17	100078.1	5086.712	-832.1749	1	5154.334	-9.291157	-2.949699E-008	0.0075698	7
	11	18	79453.13	5160.98	-751.7378	1	5215.441	-8.287305	3.319977E-009	0.007498	7
	12	19	63140.62	5225.31	-690.3188	1	5270.712	-7.525799	4.096634E-009	0.0076503	7
	13	21	50203.12	5282.286	-648.7022	1	5321.969	-7.001273	-2.499567E-009	0.0075927	7
	14	22	39890.62	5335.697	-624.8456	1	5372.16	-6.679294	7.021502E-008	0.0074128	7
	15	23	31640.63	5386.38	-617.5363	1	5421.664	-6.540276	-3.08675E-008	0.007638	7
	16	25	25171.88	5437.042	-625.7196	1	5472.929	-6.564978	6.445393E-009	0.007643	7
	17	26	20015.62	5494.832	-659.3493	1	5534.25	-6.84246	5.235858E-009	0.0075064	7
	18	27	15890.62	5543.938	-691.3427	1	5586.878	-7.10823	1.081733E-007	0.0074028	7
	19	29	12609.37	5599.543	-752.4686	1	5649.876	-7.653577	-2.817652E-008	0.0075554	7
	20	30	10078.13	5656.53	-827.9126	1	5716.797	-8.326918	5.484323E-009	0.0074851	7
	21	31	8015.625	5749.595	-912.5099	1	5821.557	-9.018115	-2.892036E-008	0.0076082	7
	22	33	6328.125	5793.838	-1057.612	1	5889.576	-10.34492	8.308148E-009	0.0074986	7
	23	34	5015.625	5871.282	-1219.337	1	5996.561	-11.73231	1.090031E-007	0.0073933	7
	24	36	3984.375	5953.472	-1416.303	1	6119.619	-13.38166	-2.974235E-008	0.0076107	7
	25	37	3170.956	6041.44	-1658.958	1	6265.073	-15.35475	6.065041E-008	0.0074607	7
	26	39	2527.573	6141.501	-1954.621	1	6445.043	-17.65442	-1.147299E-008	0.0075765	7
	27	40	1976.103	6263.183	-2353.222	1	6690.673	-20.59236	-4.994404E-008	0.0075988	7
	28	41	1577.524	6387.748	-2791.342	1	6971.005	-23.60454	-4.690361E-008	0.0077047	7
	29	43	1265.625	6547.682	-3333.372	1	7347.347	-26.98028	7.620302E-008	0.0075033	7
	30	44	998.264	6737.102	-4031.706	1	7851.318	-30.8977	-3.193051E-008	0.0075552	7
	31	45	796.875	6954.837	-4846.199	1	8476.757	-34.86916	-3.153544E-008	0.007631	7
	32	47	627.7902	7218.848	-5894.619	1	9319.78	-39.23368	-5.490186E-008	0.0076413	7
	33	48	505.5147	7519.091	-7051.377	1	10308.18	-43.16143	1.458148E-008	0.0073052	6
	34	49	397.9953	7911.43	-8610.37	1	11693.13	-47.4224	6.286385E-010	0.0075019	6
	35	51	315.5048	8370.271	-10469.85	1	13404.45	-51.35891	1.216991E-009	0.0074988	6
	36	52	252.4038	8905.449	-12651.56	1	15471.55	-54.85823	1.108658E-009	0.0074931	6
	37	53	198.6229	9616.23	-15519.7	1	18257.41	-58.21704	6.123065E-010	0.0074959	6
	38	55	158.3615	10469.27	-18847.5	1	21560	-60.94904	2.974708E-010	0.007495	6
	39	56	125.558	11573.59	-23014.36	1	25760.6	-63.30284	8.196392E-010	0.0074916	6
	40	57	100.4464	12972.21	-27857.22	1	30729.52	-65.03011	2.293454E-010	0.007492	6
	41	59	79.00281	14871.12	-34304.16	1	37388.85	-66.56289	4.790446E-010	0.00749	6
	42	60	63.3446	17483.27	-41715.64	1	45231.18	-67.26115	1.017087E-012	0.0074938	6
	43	62	49.86702	20505.93	-50416.69	1	54427.34	-67.867	-1.54238E-010	0.00749	6
	44	63	39.72458	25284.63	-60675.07	1	65732.62	-67.37744	1.319321E-010	0.0074956	6
	45	64	31.6723	30815.77	-72536.73	1	78811.1	-66.98277	1.97672E-010	0.0074901	6
	46	66	24.93351	38918.68	-87168.76	1	95462.3	-65.94043	6.628919E-010	0.0074875	6
	47	67	19.86229	48647.09	-102853.6	1	113777.9	-64.68707	8.365358E-010	0.0074951	5
	48	68	15.83615	60844.07	-120303	1	134814	-63.17168	1.960028E-010	0.0074931	5
	49	70	12.40079	76118.42	-140869.5	1	160119.5	-61.61557	1.074419E-010	0.0074908	5
	50	71	9.93114	93509.7	-160894.3	1	186094.1	-59.83539	-2.563986E-010	0.0074956	5
	51	73	7.944915	112850.2	-183267	1	215225.4	-58.37651	2.053724E-011	0.0074959	5
	52	74	6.317385	135212.1	-206244.8	1	246615.5	-56.75153	8.337109E-012	0.0075067	5
	53	76	5.008013	159540.3	-232598.9	1	282055.6	-55.55365	4.269224E-010	0.0075025	5
	54	79	3.945707	186749.3	-262954.2	1	322521.7	-54.61774	-6.51212E-012	0.0074923	5
	55	82	3.158693	212921.6	-295801.6	1	364464.3	-54.2532	2.647184E-010	0.007505	5
	56	85	2.504006	242687.7	-336404.9	1	414807.8	-54.19274	-2.493782E-010	0.0074911	5
	57	88	1.998082	273604.8	-382475.2	1	470262.6	-54.42185	2.678353E-012	0.0074557	5
	58	91	1.584686	307707.7	-439046.9	1	536140.1	-54.97516	-7.392894E-012	0.0075097	5
	59	94	1.266892	346438.5	-506221.4	1	613416.4	-55.61376	1.760949E-011	0.0074475	5
	60	99	0.999041	392475.3	-590862.2	1	709334.2	-56.40623	9.742312E-011	0.0075368	5
