EXPLAIN
TAG	EISPOT
TITLE	LABEL	Potentiostatic EIS	Test &Identifier
DATE	LABEL	10/4/2019	Date
TIME	LABEL	9:11:46	Time
NOTES	NOTES	2	&Notes...
	
	
PSTAT	PSTAT	REF600-11020	Potentiostat
VDC	POTEN	0.00000E+000	T	DC &Voltage (V)
FREQINIT	QUANT	1.00000E+006	Initial Fre&q. (Hz)
FREQFINAL	QUANT	1.00000E+000	Final Fre&q. (Hz)
PTSPERDEC	QUANT	1.00000E+001	Points/&decade
VAC	QUANT	2.50000E+001	AC &Voltage (mV rms)
AREA	QUANT	1.00000E-002	&Area (cm^2)
CONDIT	TWOPARAM	T	5.00000E+000	0.00000E+000	Conditionin&g	Time(s)	E(V)
DELAY	TWOPARAM	T	5.00000E+000	0.00000E+000	Init. De&lay	Time(s)	Stab.(mV/s)
SPEED	SELECTOR	1	&Optimize for:
ZGUESS	QUANT	1.00000E+004	E&stimated Z (ohms)
OCVCURVE	TABLE	19
	Pt	T	Vf	Vm	Ach	Over
	#	s	V vs. Ref.	V	V	bits
	0	0.258333	3.59564E-003	3.59564E-003	5.33966E-004	...........
	1	0.516667	3.59045E-003	3.32379E-003	5.33833E-004	...........
	2	0.775	3.56145E-003	3.21716E-003	5.36833E-004	...........
	3	1.03333	3.48567E-003	2.94157E-003	5.32533E-004	...........
	4	1.29167	3.35687E-003	2.81471E-003	5.32233E-004	...........
	5	1.55	3.19204E-003	2.75756E-003	5.39666E-004	...........
	6	1.80833	3.02431E-003	2.72949E-003	5.43666E-004	...........
	7	2.06667	2.88691E-003	2.71522E-003	5.42599E-004	...........
	8	2.325	2.79502E-003	2.70723E-003	5.46499E-004	...........
	9	2.58333	2.74368E-003	2.71007E-003	5.45566E-004	...........
	10	2.84167	2.71942E-003	2.70511E-003	5.35166E-004	...........
	11	3.1	2.71003E-003	2.71611E-003	5.44833E-004	...........
	12	3.35833	2.70805E-003	2.72120E-003	5.46666E-004	...........
	13	3.61667	2.71010E-003	2.72742E-003	5.40366E-004	...........
	14	3.875	2.71443E-003	2.72337E-003	5.36866E-004	...........
	15	4.13333	2.71906E-003	2.72000E-003	5.35600E-004	...........
	16	4.39167	2.72182E-003	2.71090E-003	5.38666E-004	...........
	17	4.65	2.72141E-003	2.70330E-003	5.42166E-004	...........
	18	4.90833	2.71763E-003	2.69083E-003	5.40233E-004	...........
EOC	QUANT	0.0027176	Open Circuit (V)
PSTATMODEL	IQUANT	4	Pstat Model
PSTATSECTION	LABEL	REF600-11020	Pstat Section
PSTATSERIALNO	LABEL	11020	Pstat Serial Number
CTRLMODE	IQUANT	1	Control Mode
IESTAB	IQUANT	0	I/E Stability
CASPEED	IQUANT	1	Control Amp Speed
CONVENTION	IQUANT	1	Current Convention
ICHRANGE	IQUANT	2	Ich Range
ICHRANGEMODE	TOGGLE	F	Ich Auto Range
ICHOFFSETENABLE	TOGGLE	T	Ich Offset Enable
ICHOFFSET	QUANT	0	Ich Offset (V)
ICHFILTER	IQUANT	3	Ich Filter
VCHRANGE	IQUANT	2	Vch Range
VCHRANGEMODE	TOGGLE	F	Vch Auto Range
VCHOFFSETENABLE	TOGGLE	T	Vch Offset Enable
VCHOFFSET	QUANT	0	Vch Offset (V)
VCHFILTER	IQUANT	3	Vch Filter
ACHRANGE	IQUANT	2	Ach Range
ACHOFFSETENABLE	TOGGLE	F	Ach Offset Enable
ACHOFFSET	QUANT	0	Ach Offset (V)
ACHFILTER	IQUANT	3	Ach Filter
IERANGELOWERLIMIT	IQUANT	1	I/E Range Lower Limit
IERANGEMODE	TOGGLE	F	I/E AutoRange
IERANGE	IQUANT	5	I/E Range
POSFEEDENABLE	TOGGLE	F	Positive Feedback IR Comp
POSFEEDRESISTANCE	QUANT	0	Positive Feedback Resistance (ohm)
ACHSELECT	IQUANT	0	Ach Select
CABLEID	IQUANT	14	Cable ID
DCCALDATE	LABEL	8/19/2019	DC Calibration Date
ACCALDATE	LABEL	8/19/2019	AC Calibration Date
THERMOSELECT	IQUANT	1	Thermo Select
FRAMEWORKVERSION	QUANT	6.33	Framework Version
INSTRUMENTVERSION	LABEL	3.50	Instrument Version
ZCURVE	TABLE
	Pt	Time	Freq	Zreal	Zimag	Zsig	Zmod	Zphz	Idc	Vdc	IERange
	#	s	Hz	ohm	ohm	V	ohm	°	A	V	#
	0	1	1000078	2068.504	-721.3516	1	2190.675	-19.22525	-2.313171E-006	0.0054164	8
	1	3	794390.6	2164.083	-621.3009	1	2251.504	-16.01859	1.498775E-006	0.004631	8
	2	4	630984.4	2245.164	-540.1798	1	2309.232	-13.52807	-3.279362E-006	0.0051384	8
	3	5	501234.4	2301.824	-461.3792	1	2347.608	-11.33421	-2.320721E-006	0.0050093	8
	4	7	398109.4	2341.987	-396.5242	1	2375.317	-9.60968	-7.565886E-007	0.004761	8
	5	8	316265.6	2378.145	-341.3348	1	2402.516	-8.16787	-5.351762E-007	0.004454	8
	6	9	251203.1	2407.128	-300.1208	1	2425.766	-7.106966	5.244578E-007	0.0043099	8
	7	11	199546.9	2428.336	-265.0385	1	2442.757	-6.228841	-1.63641E-006	0.0046484	8
	8	12	158578.1	2448.689	-240.0392	1	2460.426	-5.598682	-4.033969E-007	0.0043444	8
	9	14	125953.1	2477.847	-187.691	1	2484.945	-4.331746	-7.838246E-007	0.0058993	7
	10	15	100078.1	2490.505	-176.3103	1	2496.738	-4.049383	4.297671E-008	0.004176	7
	11	16	79453.13	2505.238	-176.4646	1	2511.445	-4.029161	8.45026E-008	0.0042419	7
	12	18	63140.62	2522.071	-180.4628	1	2528.519	-4.092734	-1.412951E-008	0.0043368	7
	13	19	50203.12	2540.216	-186.473	1	2547.051	-4.198456	-5.683841E-008	0.0044057	7
	14	20	39890.62	2559.061	-195.7071	1	2566.533	-4.373247	-1.396538E-008	0.0042755	7
	15	22	31640.63	2579.127	-208.2833	1	2587.523	-4.617033	-6.39034E-008	0.00439	7
	16	23	25171.88	2599.143	-224.0354	1	2608.781	-4.926483	8.295409E-008	0.0042366	7
	17	24	20015.62	2621.077	-244.8725	1	2632.491	-5.337331	1.301492E-008	0.004223	7
	18	26	15890.62	2643.956	-270.8543	1	2657.793	-5.849138	3.606652E-008	0.0042672	7
	19	27	12609.37	2668.515	-302.5735	1	2685.614	-6.468939	7.678936E-008	0.0041493	7
	20	29	10078.13	2694.296	-340.3236	1	2715.704	-7.199056	8.38122E-008	0.0042298	7
	21	30	8015.625	2721.597	-387.7917	1	2749.086	-8.109307	-3.308184E-008	0.0043004	7
	22	31	6328.125	2752.173	-448.5496	1	2788.485	-9.256688	-1.384954E-008	0.0042655	7
	23	33	5015.625	2784.41	-521.7068	1	2832.864	-10.6123	-3.781062E-008	0.0043753	7
	24	34	3984.375	2819.105	-610.4928	1	2884.45	-12.21904	-1.509034E-008	0.0043214	7
	25	35	3170.956	2857.755	-718.1064	1	2946.598	-14.10543	5.722265E-008	0.0041956	7
	26	37	2527.573	2899.921	-848.7486	1	3021.575	-16.31369	-5.678511E-008	0.0043702	7
	27	38	1976.103	2951.176	-1022.854	1	3123.407	-19.1159	7.520321E-008	0.004137	7
	28	39	1577.524	3003.25	-1219.887	1	3241.548	-22.10646	-1.100957E-009	0.0042698	7
	29	41	1265.625	3061.159	-1456.255	1	3389.893	-25.44137	1.516533E-008	0.0042132	7
	30	42	998.264	3133.296	-1768.295	1	3597.834	-29.43848	-2.97236E-008	0.0043011	7
	31	44	796.875	3210.077	-2135.734	1	3855.64	-33.63669	4.518349E-008	0.0041572	7
	32	45	627.7902	3306.17	-2616.688	1	4216.375	-38.36007	-6.288785E-008	0.0043819	7
	33	46	505.5147	3413.172	-3148.743	1	4643.74	-42.69237	1.485352E-009	0.0042918	7
	34	48	397.9953	3554.807	-3883.621	1	5264.9	-47.5311	5.286627E-009	0.0043235	7
	35	49	315.5048	3727.487	-4762.098	1	6047.457	-51.94827	5.414087E-009	0.0043229	7
	36	50	252.4038	3934.764	-5796.955	1	7006.215	-55.83275	5.154937E-009	0.0043211	7
	37	52	198.6229	4220.369	-7164.621	1	8315.245	-59.4995	4.775598E-009	0.0043279	7
	38	53	158.3615	4569.363	-8752.992	1	9873.9	-62.43389	3.785142E-009	0.0043229	7
	39	54	125.558	5033.755	-10739.05	1	11860.26	-64.88593	9.661771E-010	0.0042613	6
	40	56	100.4464	5604.223	-13058.95	1	14210.68	-66.77351	1.202733E-009	0.0042565	6
	41	57	79.00281	6409.24	-16103.07	1	17331.69	-68.29678	9.57278E-010	0.004257	6
	42	59	63.3446	7325.354	-19482.06	1	20813.73	-69.39349	7.180181E-010	0.0042544	6
	43	60	49.86702	8785.341	-23823.83	1	25392.07	-69.7579	6.083736E-010	0.0042531	6
	44	61	39.72458	10458.39	-28893.87	1	30728.38	-70.10182	7.089571E-010	0.0042627	6
	45	63	31.6723	12657.34	-34800.99	1	37031.3	-70.01335	7.30305E-010	0.0042597	6
	46	64	24.93351	15551.15	-42254	1	45024.87	-69.79438	2.65736E-010	0.0042553	6
	47	65	19.86229	19067.28	-50595.02	1	54068.64	-69.35054	3.942679E-010	0.0042584	6
	48	67	15.83615	23594.15	-60048.71	1	64517.69	-68.5493	1.385022E-009	0.0042595	6
	49	68	12.40079	29332.25	-72265.21	1	77991.29	-67.90791	8.838147E-010	0.0042593	6
	50	70	9.93114	35954.56	-85322.64	1	92588.79	-67.14967	7.115934E-010	0.0042603	6
	51	71	7.944915	43897.86	-100156.7	1	109354.4	-66.33256	5.681201E-010	0.0042649	5
	52	73	6.317385	53780.64	-117701.7	1	129406.5	-65.44324	1.404782E-010	0.0042825	5
	53	75	5.008013	65537.17	-138477	1	153202.5	-64.67315	6.326818E-011	0.0042653	5
	54	77	3.945707	80064.87	-162929.7	1	181539.2	-63.83016	-1.055586E-010	0.0042562	5
	55	80	3.158693	96322.2	-189000.1	1	212129.7	-62.99474	1.985425E-010	0.0042515	5
	56	83	2.504006	115986.9	-220142.4	1	248828.5	-62.2165	-5.422587E-011	0.0042656	5
	57	86	1.998082	137792.5	-253944.1	1	288919.4	-61.51532	4.803695E-010	0.004232	5
	58	89	1.584686	164021.7	-295188.6	1	337697.3	-60.94124	-3.746443E-011	0.0042249	5
	59	93	1.266892	192895.2	-338871.5	1	389926.2	-60.35025	2.813376E-010	0.0042199	5
	60	97	0.999041	226623.8	-393419.4	1	454023.3	-60.05651	-4.721471E-011	0.0042919	5
