EXPLAIN
TAG	EISPOT
TITLE	LABEL	Potentiostatic EIS	Test &Identifier
DATE	LABEL	10/20/2019	Date
TIME	LABEL	9:48:24	Time
NOTES	NOTES	1	&Notes...
	
PSTAT	PSTAT	REF600-11020	Potentiostat
VDC	POTEN	0.00000E+000	T	DC &Voltage (V)
FREQINIT	QUANT	1.00000E+006	Initial Fre&q. (Hz)
FREQFINAL	QUANT	1.00000E+000	Final Fre&q. (Hz)
PTSPERDEC	QUANT	1.00000E+001	Points/&decade
VAC	QUANT	2.50000E+001	AC &Voltage (mV rms)
AREA	QUANT	1.00000E-002	&Area (cm^2)
CONDIT	TWOPARAM	T	5.00000E+000	0.00000E+000	Conditionin&g	Time(s)	E(V)
DELAY	TWOPARAM	T	5.00000E+000	0.00000E+000	Init. De&lay	Time(s)	Stab.(mV/s)
SPEED	SELECTOR	1	&Optimize for:
ZGUESS	QUANT	1.00000E+005	E&stimated Z (ohms)
OCVCURVE	TABLE	19
	Pt	T	Vf	Vm	Ach	Over
	#	s	V vs. Ref.	V	V	bits
	0	0.258333	7.42684E-003	7.42684E-003	5.37499E-004	...........
	1	0.516667	7.42497E-003	7.32892E-003	5.36299E-004	...........
	2	0.775	7.40688E-003	6.89063E-003	5.40633E-004	...........
	3	1.03333	7.33132E-003	6.34095E-003	5.42699E-004	...........
	4	1.29167	7.14085E-003	5.70660E-003	5.39033E-004	...........
	5	1.55	6.81217E-003	5.65930E-003	5.44866E-004	...........
	6	1.80833	6.40716E-003	5.77309E-003	5.42999E-004	...........
	7	2.06667	6.06895E-003	6.70443E-003	5.36433E-004	...........
	8	2.325	5.95374E-003	7.17717E-003	5.40933E-004	...........
	9	2.58333	6.12412E-003	7.21275E-003	5.39066E-004	...........
	10	2.84167	6.48253E-003	7.25245E-003	5.41799E-004	...........
	11	3.1	6.84081E-003	6.94852E-003	5.39333E-004	...........
	12	3.35833	7.05535E-003	6.72203E-003	5.41199E-004	...........
	13	3.61667	7.08982E-003	6.79378E-003	5.38633E-004	...........
	14	3.875	7.00405E-003	6.82516E-003	5.35933E-004	...........
	15	4.13333	6.89158E-003	6.54632E-003	5.36766E-004	...........
	16	4.39167	6.79309E-003	6.27105E-003	5.39366E-004	...........
	17	4.65	6.68530E-003	6.34348E-003	5.37266E-004	...........
	18	4.90833	6.55636E-003	6.34495E-003	5.39433E-004	...........
EOC	QUANT	0.0065564	Open Circuit (V)
PSTATMODEL	IQUANT	4	Pstat Model
PSTATSECTION	LABEL	REF600-11020	Pstat Section
PSTATSERIALNO	LABEL	11020	Pstat Serial Number
CTRLMODE	IQUANT	1	Control Mode
IESTAB	IQUANT	0	I/E Stability
CASPEED	IQUANT	1	Control Amp Speed
CONVENTION	IQUANT	1	Current Convention
ICHRANGE	IQUANT	2	Ich Range
ICHRANGEMODE	TOGGLE	F	Ich Auto Range
ICHOFFSETENABLE	TOGGLE	T	Ich Offset Enable
ICHOFFSET	QUANT	0	Ich Offset (V)
ICHFILTER	IQUANT	3	Ich Filter
VCHRANGE	IQUANT	2	Vch Range
VCHRANGEMODE	TOGGLE	F	Vch Auto Range
VCHOFFSETENABLE	TOGGLE	T	Vch Offset Enable
VCHOFFSET	QUANT	0	Vch Offset (V)
VCHFILTER	IQUANT	3	Vch Filter
ACHRANGE	IQUANT	2	Ach Range
ACHOFFSETENABLE	TOGGLE	F	Ach Offset Enable
ACHOFFSET	QUANT	0	Ach Offset (V)
ACHFILTER	IQUANT	3	Ach Filter
IERANGELOWERLIMIT	IQUANT	1	I/E Range Lower Limit
IERANGEMODE	TOGGLE	F	I/E AutoRange
IERANGE	IQUANT	5	I/E Range
POSFEEDENABLE	TOGGLE	F	Positive Feedback IR Comp
POSFEEDRESISTANCE	QUANT	0	Positive Feedback Resistance (ohm)
ACHSELECT	IQUANT	0	Ach Select
CABLEID	IQUANT	14	Cable ID
DCCALDATE	LABEL	8/19/2019	DC Calibration Date
ACCALDATE	LABEL	8/19/2019	AC Calibration Date
THERMOSELECT	IQUANT	1	Thermo Select
FRAMEWORKVERSION	QUANT	6.33	Framework Version
INSTRUMENTVERSION	LABEL	3.50	Instrument Version
ZCURVE	TABLE
	Pt	Time	Freq	Zreal	Zimag	Zsig	Zmod	Zphz	Idc	Vdc	IERange
	#	s	Hz	ohm	ohm	V	ohm	°	A	V	#
	0	2	1000078	2767.344	-1554.01	1	3173.821	-29.31651	-2.769966E-006	0.009006	8
	1	4	794390.6	3035.317	-1424.134	1	3352.806	-25.1354	3.353658E-006	0.0079389	8
	2	5	630984.4	3272.426	-1282.997	1	3514.947	-21.4083	-1.976336E-006	0.0085691	8
	3	7	501234.4	3447.87	-1133.718	1	3629.48	-18.20174	-1.930305E-006	0.0086165	8
	4	8	398109.4	3607.969	-992.474	1	3741.984	-15.38043	3.117325E-006	0.0074913	8
	5	9	316265.6	3733.5	-863.7024	1	3832.102	-13.02558	3.900105E-007	0.0080795	8
	6	11	251203.1	3812.571	-754.5826	1	3886.527	-11.19527	-3.463015E-006	0.0089555	8
	7	12	199546.9	3876.357	-630.3434	1	3927.274	-9.236156	4.33919E-007	0.0079071	8
	8	14	158578.1	3932.056	-576.9705	1	3974.162	-8.347727	-2.765308E-006	0.0085734	8
	9	15	125953.1	4003.364	-467.4101	1	4030.558	-6.65938	1.199771E-006	0.0058658	7
	10	17	100078.1	4032.334	-426.3224	1	4054.808	-6.035231	-5.125936E-008	0.00812	7
	11	18	79453.13	4064.63	-411.8392	1	4085.441	-5.785617	-3.250991E-008	0.0080941	7
	12	19	63140.62	4101.764	-409.2002	1	4122.125	-5.697091	-4.223154E-008	0.0080902	7
	13	21	50203.12	4136.995	-414.3289	1	4157.691	-5.719223	-4.607113E-008	0.0081676	7
	14	22	39890.62	4176.177	-428.9474	1	4198.148	-5.864452	-4.739784E-008	0.0081079	7
	15	23	31640.63	4217.264	-453.6524	1	4241.594	-6.139716	-5.492187E-009	0.0080757	7
	16	25	25171.88	4262.758	-487.4275	1	4290.535	-6.523187	1.729155E-009	0.008134	7
	17	26	20015.62	4317.48	-529.7462	1	4349.858	-6.995114	1.094844E-007	0.0078629	7
	18	27	15890.62	4370.358	-580.4944	1	4408.742	-7.566044	-4.988101E-008	0.0081438	7
	19	29	12609.37	4430.155	-644.7806	1	4476.831	-8.280889	-1.211906E-009	0.0080996	7
	20	30	10078.13	4494.37	-717.1003	1	4551.219	-9.065428	-4.298234E-009	0.0081161	7
	21	32	8015.625	4560.748	-798.9908	1	4630.206	-9.93673	-1.044667E-009	0.0080949	7
	22	33	6328.125	4643.245	-911.8854	1	4731.94	-11.1109	-5.055925E-008	0.0081471	7
	23	34	5015.625	4725.795	-1036.244	1	4838.072	-12.36773	-4.771748E-009	0.0080742	7
	24	36	3984.375	4795.046	-1192.088	1	4941.006	-13.96117	-4.274203E-010	0.0081007	7
	25	37	3170.956	4906.194	-1363.262	1	5092.074	-15.52878	-4.686341E-008	0.0081107	7
	26	38	2527.573	5004.146	-1579.619	1	5247.54	-17.51892	1.70062E-008	0.0079883	7
	27	40	1976.103	5120.09	-1867.779	1	5450.13	-20.04167	-4.637429E-008	0.0080976	7
	28	41	1577.524	5246.714	-2174.487	1	5679.472	-22.51143	6.456581E-008	0.0079309	7
	29	43	1265.625	5359.474	-2579.622	1	5947.975	-25.70244	-4.589925E-008	0.008176	7
	30	44	998.264	5507.354	-3087.158	1	6313.595	-29.2729	6.677845E-008	0.0079357	7
	31	45	796.875	5669.994	-3684.423	1	6761.938	-33.01624	-4.865134E-008	0.0081425	7
	32	47	627.7902	5865.469	-4458.089	1	7367.38	-37.2369	1.079021E-007	0.0079239	7
	33	48	505.5147	6071.537	-5317.47	1	8070.876	-41.21197	-4.527604E-008	0.0080968	7
	34	49	397.9953	6328.561	-6484.622	1	9060.96	-45.69781	3.51473E-009	0.008074	7
	35	51	315.5048	6624.564	-7883.794	1	10297.53	-49.96047	1.156313E-009	0.0080135	6
	36	52	252.4038	6955.558	-9533.9	1	11801.49	-53.887	8.079859E-010	0.0080102	6
	37	54	198.6229	7377.152	-11731.67	1	13858.37	-57.83736	1.11394E-009	0.0080113	6
	38	55	158.3615	7862.098	-14303.06	1	16321.46	-61.20331	1.775805E-009	0.0080112	6
	39	56	125.558	8475.018	-17547.68	1	19487.09	-64.22081	9.252297E-010	0.0080131	6
	40	58	100.4464	9233.762	-21356.41	1	23267.11	-66.61803	2.174263E-009	0.0080085	6
	41	59	79.00281	10223.75	-26556.16	1	28456.19	-68.94401	6.441035E-011	0.0080112	6
	42	60	63.3446	10991.84	-32136.89	1	33964.7	-71.11768	-3.384008E-010	0.0080099	6
	43	62	49.86702	13407.04	-39509.41	1	41722.21	-71.25597	-3.000451E-011	0.0080064	6
	44	63	39.72458	15409.97	-48556.05	1	50942.69	-72.3924	5.632368E-010	0.0080072	6
	45	65	31.6723	18177.4	-59182.21	1	61910.84	-72.92603	1.255389E-010	0.008007	6
	46	66	24.93351	22176.54	-72885.02	1	76184.16	-73.0767	4.598034E-010	0.0080089	6
	47	68	19.86229	27204.32	-88720.8	1	92797.92	-72.95297	6.169336E-010	0.0080141	6
	48	69	15.83615	35409.03	-106759.9	1	112478.8	-71.65088	2.532538E-009	0.0080087	5
	49	70	12.40079	43788.11	-129772.6	1	136961.1	-71.35448	2.071007E-009	0.0080119	5
	50	72	9.93114	53239.61	-157019	1	165799.4	-71.27002	4.859591E-010	0.0080049	5
	51	73	7.944915	66554.24	-186026.9	1	197574	-70.31448	-8.051703E-010	0.0080131	5
	52	75	6.317385	85239.16	-223683.9	1	239374.6	-69.13967	1.176769E-010	0.0080003	5
	53	77	5.008013	108620.7	-266480.9	1	287768.2	-67.82362	6.805458E-011	0.0080114	5
	54	80	3.945707	138111.9	-316947.1	1	345731.7	-66.45451	-2.883154E-010	0.0079988	5
	55	83	3.158693	173073.1	-367954	1	406625.6	-64.8093	4.162121E-010	0.0080115	5
	56	86	2.504006	217040.9	-429117	1	480882.7	-63.1704	-1.397933E-010	0.0080131	5
	57	89	1.998082	267257.7	-492998.2	1	560779.8	-61.53757	1.702331E-010	0.007968	5
	58	92	1.584686	326246.5	-565699.7	1	653033.6	-60.02738	-4.644785E-011	0.0080059	5
	59	95	1.266892	393676.6	-642655.6	1	753649.4	-58.50929	6.661995E-011	0.0079608	5
	60	100	0.999041	473032	-732661.5	1	872096.4	-57.15229	9.97176E-011	0.0080471	5
