EXPLAIN
TAG	EISPOT
TITLE	LABEL	Potentiostatic IDE	Test &Identifier
DATE	LABEL	9/6/2019	Date
TIME	LABEL	8:16:28	Time
NOTES	NOTES	1	&Notes...
	
PSTAT	PSTAT	REF600-11020	Potentiostat
VDC	POTEN	0.00000E+000	T	DC &Voltage (V)
FREQINIT	QUANT	1.00000E+006	Initial Fre&q. (Hz)
FREQFINAL	QUANT	1.00000E+000	Final Fre&q. (Hz)
PTSPERDEC	QUANT	1.00000E+001	Points/&decade
VAC	QUANT	2.50000E+001	AC &Voltage (mV rms)
AREA	QUANT	1.00000E-002	&Area (cm^2)
CONDIT	TWOPARAM	T	5.00000E+000	0.00000E+000	Conditionin&g	Time(s)	E(V)
DELAY	TWOPARAM	T	5.00000E+000	0.00000E+000	Init. De&lay	Time(s)	Stab.(mV/s)
SPEED	SELECTOR	1	&Optimize for:
ZGUESS	QUANT	1.00000E+007	E&stimated Z (ohms)
OCVCURVE	TABLE	19
	Pt	T	Vf	Vm	Ach	Over
	#	s	V vs. Ref.	V	V	bits
	0	0.258333	5.05727E-003	5.05727E-003	5.80299E-004	...........
	1	0.516667	5.05186E-003	4.77412E-003	5.77999E-004	...........
	2	0.775	5.01920E-003	4.53499E-003	5.78865E-004	...........
	3	1.03333	4.92895E-003	4.31999E-003	5.79732E-004	...........
	4	1.29167	4.77262E-003	4.13069E-003	5.81532E-004	...........
	5	1.55	4.57340E-003	3.95771E-003	5.82099E-004	...........
	6	1.80833	4.36379E-003	3.80058E-003	5.75032E-004	...........
	7	2.06667	4.16507E-003	3.65400E-003	5.81365E-004	...........
	8	2.325	3.98456E-003	3.51886E-003	5.80399E-004	...........
	9	2.58333	3.82143E-003	3.38819E-003	5.74966E-004	...........
	10	2.84167	3.67227E-003	3.26876E-003	5.76132E-004	...........
	11	3.1	3.53397E-003	3.15526E-003	5.82532E-004	...........
	12	3.35833	3.40461E-003	3.04898E-003	5.85699E-004	...........
	13	3.61667	3.28316E-003	2.94732E-003	5.82665E-004	...........
	14	3.875	3.16886E-003	2.84941E-003	5.78999E-004	...........
	15	4.13333	3.06076E-003	2.75337E-003	5.79465E-004	...........
	16	4.39167	2.95784E-003	2.66628E-003	5.84365E-004	...........
	17	4.65	2.85943E-003	2.58091E-003	5.78099E-004	...........
	18	4.90833	2.76539E-003	2.49880E-003	5.83532E-004	...........
EOC	QUANT	0.0027654	Open Circuit (V)
PSTATMODEL	IQUANT	4	Pstat Model
PSTATSECTION	LABEL	REF600-11020	Pstat Section
PSTATSERIALNO	LABEL	11020	Pstat Serial Number
CTRLMODE	IQUANT	1	Control Mode
IESTAB	IQUANT	0	I/E Stability
CASPEED	IQUANT	1	Control Amp Speed
CONVENTION	IQUANT	1	Current Convention
ICHRANGE	IQUANT	2	Ich Range
ICHRANGEMODE	TOGGLE	F	Ich Auto Range
ICHOFFSETENABLE	TOGGLE	T	Ich Offset Enable
ICHOFFSET	QUANT	0	Ich Offset (V)
ICHFILTER	IQUANT	3	Ich Filter
VCHRANGE	IQUANT	2	Vch Range
VCHRANGEMODE	TOGGLE	F	Vch Auto Range
VCHOFFSETENABLE	TOGGLE	T	Vch Offset Enable
VCHOFFSET	QUANT	0	Vch Offset (V)
VCHFILTER	IQUANT	3	Vch Filter
ACHRANGE	IQUANT	2	Ach Range
ACHOFFSETENABLE	TOGGLE	F	Ach Offset Enable
ACHOFFSET	QUANT	0	Ach Offset (V)
ACHFILTER	IQUANT	3	Ach Filter
IERANGELOWERLIMIT	IQUANT	1	I/E Range Lower Limit
IERANGEMODE	TOGGLE	F	I/E AutoRange
IERANGE	IQUANT	2	I/E Range
POSFEEDENABLE	TOGGLE	F	Positive Feedback IR Comp
POSFEEDRESISTANCE	QUANT	0	Positive Feedback Resistance (ohm)
ACHSELECT	IQUANT	0	Ach Select
CABLEID	IQUANT	14	Cable ID
DCCALDATE	LABEL	8/19/2019	DC Calibration Date
ACCALDATE	LABEL	8/19/2019	AC Calibration Date
THERMOSELECT	IQUANT	1	Thermo Select
FRAMEWORKVERSION	QUANT	6.33	Framework Version
INSTRUMENTVERSION	LABEL	3.50	Instrument Version
ZCURVE	TABLE
	Pt	Time	Freq	Zreal	Zimag	Zsig	Zmod	Zphz	Idc	Vdc	IERange
	#	s	Hz	ohm	ohm	V	ohm	°	A	V	#
	0	2	1000078	2477.89	-1928.883	1	3140.148	-37.89853	-4.941653E-006	0.0060268	8
	1	3	794390.6	2881.253	-1842.572	1	3420.043	-32.59907	1.227388E-006	0.0050353	8
	2	5	630984.4	3226.222	-1722.017	1	3657.027	-28.09136	8.043878E-007	0.0043974	8
	3	6	501234.4	3529.872	-1542.845	1	3852.32	-23.60929	-7.28942E-007	0.0046919	8
	4	7	398109.4	3755.623	-1367.249	1	3996.758	-20.00423	-1.939546E-006	0.0049029	8
	5	9	316265.6	3930.03	-1187.696	1	4105.577	-16.81537	-1.810347E-006	0.0048555	8
	6	10	251203.1	4056.197	-1043.328	1	4188.229	-14.42483	3.180461E-007	0.0043579	8
	7	11	199546.9	4167.395	-901.8069	1	4263.853	-12.2103	1.077811E-006	0.0042373	8
	8	13	158578.1	4243.878	-804.4164	1	4319.443	-10.73294	-5.846506E-007	0.0045708	8
	9	14	125953.1	4334.48	-684.4575	1	4388.188	-8.973477	4.407854E-008	0.0043964	7
	10	15	100078.1	4377.039	-629.8005	1	4422.117	-8.187939	1.266558E-009	0.0043663	7
	11	17	79453.13	4427.917	-593.9061	1	4467.569	-7.639353	-8.281619E-009	0.004429	7
	12	18	63140.62	4476.408	-574.2711	1	4513.094	-7.310452	-7.865943E-009	0.0044172	7
	13	19	50203.12	4525.608	-572.4321	1	4561.667	-7.208908	-3.723866E-008	0.0044477	7
	14	21	39890.62	4574.737	-582.1308	1	4611.626	-7.251857	-1.59983E-008	0.0043918	7
	15	22	31640.63	4623.235	-606.49	1	4662.846	-7.473558	1.290409E-008	0.0043394	7
	16	23	25171.88	4674.566	-645.709	1	4718.952	-7.864635	-2.37431E-008	0.0044108	7
	17	25	20015.62	4729.763	-703.1427	1	4781.743	-8.455854	3.52712E-008	0.0043895	7
	18	26	15890.62	4791.048	-775.0128	1	4853.328	-9.188723	3.187143E-009	0.0043498	7
	19	28	12609.37	4853.932	-870.7209	1	4931.41	-10.16982	7.703941E-008	0.0042837	7
	20	29	10078.13	4922.769	-986.586	1	5020.658	-11.33268	-1.137266E-008	0.0043875	7
	21	30	8015.625	5001.977	-1127.845	1	5127.554	-12.70655	-2.487918E-008	0.0044072	7
	22	31	6328.125	5091.775	-1309.67	1	5257.51	-14.42453	4.678996E-008	0.0043103	7
	23	33	5015.625	5193.101	-1529.823	1	5413.747	-16.41432	3.052055E-008	0.0043012	7
	24	34	3984.375	5308.665	-1793.042	1	5603.295	-18.66279	-1.308071E-008	0.0044756	7
	25	35	3170.956	5441.276	-2107.215	1	5835.053	-21.16963	-1.055693E-008	0.0043978	7
	26	37	2527.573	5593.907	-2481.369	1	6119.558	-23.92132	-2.279924E-008	0.004406	7
	27	38	1976.103	5786.558	-2974.053	1	6506.093	-27.2013	1.839999E-008	0.0043467	7
	28	39	1577.524	5995.634	-3518.329	1	6951.709	-30.40506	5.067782E-008	0.0042874	7
	29	41	1265.625	6234.276	-4148.528	1	7488.423	-33.64133	-2.358482E-008	0.0044006	7
	30	42	998.264	6533.57	-4963.46	1	8205.088	-37.22342	3.231542E-008	0.0042986	7
	31	43	796.875	6869.629	-5895.167	1	9052.337	-40.63452	-2.459666E-008	0.0044004	7
	32	45	627.7902	7280.944	-7082.575	1	10157.51	-44.20876	-4.39736E-009	0.0043657	6
	33	46	505.5147	7707.46	-8379.263	1	11384.95	-47.39136	3.95401E-009	0.0042084	6
	34	47	397.9953	8270.314	-10102.16	1	13055.71	-50.6939	9.514471E-010	0.0043348	6
	35	49	315.5048	8906.571	-12135.36	1	15053.04	-53.72373	1.002909E-009	0.0043297	6
	36	50	252.4038	9626.41	-14497.98	1	17402.85	-56.41652	9.715311E-010	0.0043324	6
	37	51	198.6229	10542.2	-17578.53	1	20497.38	-59.04803	9.008128E-010	0.004341	6
	38	53	158.3615	11580.92	-21121.94	1	24088.47	-61.26455	9.051306E-010	0.0043403	6
	39	54	125.558	12867.28	-25523.21	1	28583.23	-63.24548	7.671916E-010	0.0043423	6
	40	55	100.4464	14348.44	-30648.5	1	33840.93	-64.91282	6.94363E-010	0.0043358	6
	41	57	79.00281	16342.36	-37368.64	1	40785.88	-66.37888	6.743821E-010	0.0043365	6
	42	58	63.3446	18494.13	-44669.64	1	48346.77	-67.50947	7.248581E-010	0.0043366	6
	43	59	49.86702	21667.93	-54601.51	1	58743.71	-68.35496	4.778737E-010	0.0043323	6
	44	61	39.72458	25095.2	-65782.5	1	70406.72	-69.11877	9.543001E-010	0.0043405	6
	45	62	31.6723	29608.36	-79245.64	1	84596.26	-69.51292	9.876386E-010	0.0043373	6
	46	64	24.93351	35379.71	-96310.8	1	102603.6	-69.82923	3.802618E-010	0.0043323	6
	47	65	19.86229	42428.89	-115740.1	1	123272	-69.86768	3.528451E-010	0.0043368	5
	48	66	15.83615	51404.2	-139045.8	1	148243.5	-69.71102	2.724495E-011	0.0043387	5
	49	68	12.40079	63510.79	-169005.4	1	180544.8	-69.40421	4.024007E-010	0.0043322	5
	50	69	9.93114	77216.06	-200728.2	1	215067.8	-68.95928	1.389412E-010	0.0043445	5
	51	71	7.944915	94735	-237980.3	1	256143.2	-68.29353	8.013275E-010	0.0043433	5
	52	72	6.317385	117018.5	-283119.4	1	306349.4	-67.54379	5.631076E-010	0.0043379	5
	53	74	5.008013	145502.1	-336424.5	1	366541	-66.61173	1.023705E-010	0.0043376	5
	54	77	3.945707	181615	-398995	1	438384.6	-65.52587	2.773968E-010	0.0043439	5
	55	79	3.158693	223156.4	-466532.2	1	517156.7	-64.43681	1.788737E-011	0.0043295	5
	56	82	2.504006	276194.1	-545235.8	1	611199.9	-63.13509	4.799242E-010	0.0043464	5
	57	85	1.998082	338749.7	-630938.7	1	716124.9	-61.76874	1.970109E-010	0.0043828	5
	58	88	1.584686	412210.3	-727235.1	1	835935.6	-60.45463	2.448426E-010	0.0043384	5
	59	92	1.266892	499767.3	-832246.6	1	970774	-59.01502	1.165E-010	0.0043832	5
	60	96	0.999041	603180.6	-952354	1	1127300	-57.65158	1.312398E-010	0.0043073	4
