EXPLAIN
TAG	EISPOT
TITLE	LABEL	Potentiostatic IDE	Test &Identifier
DATE	LABEL	9/10/2019	Date
TIME	LABEL	9:46:55	Time
NOTES	NOTES	1	&Notes...
	
PSTAT	PSTAT	REF600-11020	Potentiostat
VDC	POTEN	0.00000E+000	T	DC &Voltage (V)
FREQINIT	QUANT	1.00000E+006	Initial Fre&q. (Hz)
FREQFINAL	QUANT	1.00000E+000	Final Fre&q. (Hz)
PTSPERDEC	QUANT	1.00000E+001	Points/&decade
VAC	QUANT	2.50000E+001	AC &Voltage (mV rms)
AREA	QUANT	1.00000E-002	&Area (cm^2)
CONDIT	TWOPARAM	T	5.00000E+000	0.00000E+000	Conditionin&g	Time(s)	E(V)
DELAY	TWOPARAM	T	5.00000E+000	0.00000E+000	Init. De&lay	Time(s)	Stab.(mV/s)
SPEED	SELECTOR	1	&Optimize for:
ZGUESS	QUANT	1.00000E+007	E&stimated Z (ohms)
OCVCURVE	TABLE	19
	Pt	T	Vf	Vm	Ach	Over
	#	s	V vs. Ref.	V	V	bits
	0	0.258333	-6.24939E-004	-6.24939E-004	5.63599E-004	...........
	1	0.516667	-6.31432E-004	-9.64823E-004	5.61566E-004	...........
	2	0.775	-6.68890E-004	-1.16065E-003	5.62632E-004	...........
	3	1.03333	-7.67795E-004	-1.39901E-003	5.59199E-004	...........
	4	1.29167	-9.33267E-004	-1.61976E-003	5.69332E-004	...........
	5	1.55	-1.13969E-003	-1.70283E-003	5.61999E-004	...........
	6	1.80833	-1.35231E-003	-1.92661E-003	5.69299E-004	...........
	7	2.06667	-1.54653E-003	-1.94467E-003	5.72466E-004	...........
	8	2.325	-1.71482E-003	-2.20983E-003	5.64166E-004	...........
	9	2.58333	-1.86172E-003	-2.15487E-003	5.66666E-004	...........
	10	2.84167	-1.99444E-003	-2.46445E-003	5.65232E-004	...........
	11	3.1	-2.11842E-003	-2.36824E-003	5.70232E-004	...........
	12	3.35833	-2.23646E-003	-2.66104E-003	5.69299E-004	...........
	13	3.61667	-2.34772E-003	-2.51738E-003	5.67066E-004	...........
	14	3.875	-2.44917E-003	-2.81588E-003	5.67499E-004	...........
	15	4.13333	-2.54107E-003	-2.73949E-003	5.68032E-004	...........
	16	4.39167	-2.62619E-003	-2.82916E-003	5.69099E-004	...........
	17	4.65	-2.70265E-003	-2.89651E-003	5.63532E-004	...........
	18	4.90833	-2.76759E-003	-2.89935E-003	5.72466E-004	...........
EOC	QUANT	-0.0027676	Open Circuit (V)
PSTATMODEL	IQUANT	4	Pstat Model
PSTATSECTION	LABEL	REF600-11020	Pstat Section
PSTATSERIALNO	LABEL	11020	Pstat Serial Number
CTRLMODE	IQUANT	1	Control Mode
IESTAB	IQUANT	0	I/E Stability
CASPEED	IQUANT	1	Control Amp Speed
CONVENTION	IQUANT	1	Current Convention
ICHRANGE	IQUANT	2	Ich Range
ICHRANGEMODE	TOGGLE	F	Ich Auto Range
ICHOFFSETENABLE	TOGGLE	T	Ich Offset Enable
ICHOFFSET	QUANT	0	Ich Offset (V)
ICHFILTER	IQUANT	3	Ich Filter
VCHRANGE	IQUANT	2	Vch Range
VCHRANGEMODE	TOGGLE	F	Vch Auto Range
VCHOFFSETENABLE	TOGGLE	T	Vch Offset Enable
VCHOFFSET	QUANT	0	Vch Offset (V)
VCHFILTER	IQUANT	3	Vch Filter
ACHRANGE	IQUANT	2	Ach Range
ACHOFFSETENABLE	TOGGLE	F	Ach Offset Enable
ACHOFFSET	QUANT	0	Ach Offset (V)
ACHFILTER	IQUANT	3	Ach Filter
IERANGELOWERLIMIT	IQUANT	1	I/E Range Lower Limit
IERANGEMODE	TOGGLE	F	I/E AutoRange
IERANGE	IQUANT	2	I/E Range
POSFEEDENABLE	TOGGLE	F	Positive Feedback IR Comp
POSFEEDRESISTANCE	QUANT	0	Positive Feedback Resistance (ohm)
ACHSELECT	IQUANT	0	Ach Select
CABLEID	IQUANT	14	Cable ID
DCCALDATE	LABEL	8/19/2019	DC Calibration Date
ACCALDATE	LABEL	8/19/2019	AC Calibration Date
THERMOSELECT	IQUANT	1	Thermo Select
FRAMEWORKVERSION	QUANT	6.33	Framework Version
INSTRUMENTVERSION	LABEL	3.50	Instrument Version
ZCURVE	TABLE
	Pt	Time	Freq	Zreal	Zimag	Zsig	Zmod	Zphz	Idc	Vdc	IERange
	#	s	Hz	ohm	ohm	V	ohm	°	A	V	#
	0	2	1000078	1219.312	-9855.1	1	9930.24	-82.94698	3.46214E-006	-0.0011162	8
	1	4	794390.6	1398.221	-12131.08	1	12211.39	-83.42513	3.29387E-006	-0.0015304	8
	2	5	630984.4	1504.509	-15288.95	1	15362.79	-84.3799	-2.071897E-007	-0.0006552	8
	3	7	501234.4	2065.622	-18653.88	1	18767.9	-83.68114	-2.958963E-007	-0.0007877	8
	4	9	398109.4	1859.023	-23702.59	1	23775.38	-85.5154	-7.791024E-007	-0.0009106	8
	5	10	316265.6	2162.085	-29148.88	1	29228.95	-85.75792	1.206447E-006	-0.0013592	8
	6	12	251203.1	2562.318	-37221.79	1	37309.88	-86.06202	3.290394E-007	-0.0011536	8
	7	13	199546.9	4765.488	-46128.77	1	46374.28	-84.10179	-6.48249E-007	-0.0009949	8
	8	15	158578.1	3515.225	-57327.36	1	57435.03	-86.4911	1.808969E-007	-0.0012143	8
	9	16	125953.1	4618.374	-72981.98	1	73127.97	-86.3791	-1.151877E-006	0.0013966	7
	10	18	100078.1	7638.623	-88482.2	1	88811.31	-85.06592	-7.448256E-008	-0.001086	7
	11	20	79453.13	8178.619	-111191	1	111491.4	-85.79321	-7.216332E-008	-0.0010901	7
	12	21	63140.62	9885.08	-137925.4	1	138279.1	-85.90063	1.567867E-008	-0.0010989	7
	13	23	50203.12	12051.48	-173210.8	1	173629.5	-86.01995	-5.222677E-008	-0.0010696	7
	14	24	39890.62	13273.54	-220443.9	1	220843.2	-86.55422	1.016338E-008	-0.0012311	7
	15	26	31640.63	21850.93	-269909.2	1	270792.3	-85.37163	-6.847045E-008	-0.0011036	7
	16	27	25171.88	23458.95	-338476.5	1	339288.5	-86.03532	5.428356E-008	-0.0012471	7
	17	29	20015.62	28711.56	-421324.7	1	422301.8	-86.10155	-5.3365E-008	-0.0010718	7
	18	30	15890.62	41345.49	-511447.7	1	513116.2	-85.37825	9.138503E-008	-0.0012608	7
	19	32	12609.37	52721.14	-653914.4	1	656036.3	-85.39056	8.029045E-009	-0.0014345	6
	20	33	10078.13	33468.22	-768238.3	1	768966.9	-87.50549	8.09293E-009	-0.0014334	6
	21	35	8015.625	95500.6	-988857	1	993457	-84.48367	3.307258E-009	-0.0011959	6
	22	37	6328.125	132937.5	-1264287	1	1271257	-83.99751	-1.131327E-008	-0.0011707	6
	23	38	5015.625	204965.2	-1545615	1	1559146	-82.44604	-3.586587E-009	-0.0013354	6
	24	40	3984.375	220263.4	-1977010	1	1989242	-83.64275	4.841696E-009	-0.0014081	6
	25	42	3170.956	258764.3	-2471355	1	2484865	-84.0226	-1.010096E-008	-0.0010943	6
	26	43	2527.573	438837.3	-3009987	1	3041808	-81.70507	-1.061766E-008	-0.0010977	6
	27	45	1976.103	635776	-4071983	1	4121317	-81.12582	-4.987719E-009	-0.0010776	6
	28	47	1577.524	834697.1	-4970595	1	5040192	-80.46743	3.257096E-009	-0.0011952	6
	29	48	1265.625	1349448	-5760880	1	5916819	-76.81654	1.844936E-009	-0.0015636	5
	30	50	998.264	1987722	-7109259	1	7381911	-74.3792	3.503188E-010	-0.0011527	5
	31	51	796.875	2500469	-8716702	1	9068254	-73.99396	4.052234E-010	-0.0013945	5
	32	53	627.7902	4126627	-1.020732E+007	1	1.100992E+007	-67.98744	2.600451E-010	-0.0011625	5
	33	54	505.5147	5916479	-1.245228E+007	1	1.378637E+007	-64.58611	-8.677303E-011	-0.0012755	5
	34	56	397.9953	7850836	-1.297837E+007	1	1.516818E+007	-58.82955	2.66341E-010	-0.0012269	5
	35	57	315.5048	1.18708E+007	-1.465683E+007	1	1.886103E+007	-50.99545	3.347947E-010	-0.001234	5
	36	59	252.4038	1.194695E+007	-1.614624E+007	1	2.008558E+007	-53.50146	1.787835E-010	-0.0012321	5
	37	60	198.6229	1.759754E+007	-1.530021E+007	1	2.331887E+007	-41.00538	2.044915E-010	-0.0012345	5
	38	61	158.3615	2.395524E+007	-1.512604E+007	1	2.833109E+007	-32.2695	1.511067E-010	-0.0012391	5
	39	63	125.558	2.042261E+007	-1.643061E+007	1	2.62116E+007	-38.81773	-6.054477E-011	-0.0012347	4
	40	64	100.4464	3.146366E+007	-1.333619E+007	1	3.417332E+007	-22.97015	8.157478E-011	-0.0012346	4
	41	66	79.00281	3.398739E+007	8484000	1	3.503029E+007	14.01586	5.965821E-011	-0.0012358	4
	42	68	63.3446	6560026	7410778	1	9.89715E+006	48.48472	-1.167071E-010	-0.0012379	4
	43	70	49.86702	2.423484E+007	-8847455	1	2.579932E+007	-20.05571	7.769797E-011	-0.0012402	4
	44	71	39.72458	2.676458E+007	-460718.7	1	2.676855E+007	-0.986178	1.423078E-010	-0.0012379	4
	45	73	31.6723	5.431319E+007	1.05604E+007	1	5.533032E+007	11.00303	-1.138211E-010	-0.0012386	4
	46	74	24.93351	3.370237E+007	-9.858379E+006	1	3.511463E+007	-16.30488	-1.131609E-015	-0.0012412	4
	47	76	19.86229	2.847393E+007	305450.2	1	2.847557E+007	0.6146091	2.160666E-010	-0.001248	4
	48	78	15.83615	1.437781E+007	2.233691E+007	1	2.656424E+007	57.23145	6.415555E-010	-0.0012456	4
	49	79	12.40079	4.815825E+007	-4228488	1	4.834354E+007	-5.01793	-2.300254E-011	-0.0012377	4
	50	81	9.93114	4.131794E+007	5462352	1	4.167745E+007	7.530996	-5.873177E-011	-0.0012405	4
	51	82	7.944915	3.17431E+007	-4262647	1	3.202803E+007	-7.648254	1.181711E-010	-0.001239	4
	52	84	6.317385	3.61122E+007	-2398280	1	3.619174E+007	-3.799542	5.754336E-011	-0.0012404	4
	53	87	5.008013	3.554493E+007	-1020615	1	3.555958E+007	-1.644704	8.273644E-011	-0.0012399	4
	54	90	3.945707	3.955071E+007	-2148629	1	3.960903E+007	-3.10959	2.119639E-011	-0.0012446	4
	55	93	3.158693	3.681739E+007	-2214465	1	3.688393E+007	-3.442037	6.48537E-011	-0.0012238	4
	56	97	2.504006	3.824303E+007	-2273730	1	3.831056E+007	-3.4025	4.229418E-011	-0.0012578	3
	57	100	1.998082	3.530692E+007	-4346194	1	3.557342E+007	-7.017662	6.919935E-011	-0.0012981	3
	58	105	1.584686	3.895048E+007	-2779517	1	3.904952E+007	-4.081724	4.194494E-011	-0.001262	3
	59	111	1.266892	3.911165E+007	-2935459	1	3.922165E+007	-4.292192	5.361375E-011	-0.0012902	3
	60	115	0.999041	3.938924E+007	-3269922	1	3.952474E+007	-4.745563	4.162764E-011	-0.0012317	3
