EXPLAIN
TAG	EISPOT
TITLE	LABEL	Potentiostatic EIS	Test &Identifier
DATE	LABEL	11/3/2019	Date
TIME	LABEL	9:50:01	Time
NOTES	NOTES	1	&Notes...
	
PSTAT	PSTAT	REF600-11020	Potentiostat
VDC	POTEN	0.00000E+000	T	DC &Voltage (V)
FREQINIT	QUANT	1.00000E+006	Initial Fre&q. (Hz)
FREQFINAL	QUANT	1.00000E+000	Final Fre&q. (Hz)
PTSPERDEC	QUANT	1.00000E+001	Points/&decade
VAC	QUANT	2.50000E+001	AC &Voltage (mV rms)
AREA	QUANT	1.00000E-002	&Area (cm^2)
CONDIT	TWOPARAM	T	5.00000E+000	0.00000E+000	Conditionin&g	Time(s)	E(V)
DELAY	TWOPARAM	T	5.00000E+000	0.00000E+000	Init. De&lay	Time(s)	Stab.(mV/s)
SPEED	SELECTOR	1	&Optimize for:
ZGUESS	QUANT	1.00000E+005	E&stimated Z (ohms)
OCVCURVE	TABLE	19
	Pt	T	Vf	Vm	Ach	Over
	#	s	V vs. Ref.	V	V	bits
	0	0.258333	2.88661E-003	2.88661E-003	5.44199E-004	...........
	1	0.516667	2.88040E-003	2.56139E-003	5.48666E-004	...........
	2	0.775	2.84192E-003	2.23628E-003	5.49733E-004	...........
	3	1.03333	2.73486E-003	2.07279E-003	5.48533E-004	...........
	4	1.29167	2.55166E-003	1.81409E-003	5.43266E-004	...........
	5	1.55	2.32366E-003	1.64331E-003	5.48266E-004	...........
	6	1.80833	2.08906E-003	1.49286E-003	5.55499E-004	...........
	7	2.06667	1.87024E-003	1.28551E-003	5.51999E-004	...........
	8	2.325	1.67270E-003	1.15902E-003	5.46766E-004	...........
	9	2.58333	1.49284E-003	1.02783E-003	5.49266E-004	...........
	10	2.84167	1.32832E-003	9.10094E-004	5.47533E-004	...........
	11	3.1	1.17938E-003	7.84280E-004	5.45233E-004	...........
	12	3.35833	1.04503E-003	7.23217E-004	5.45799E-004	...........
	13	3.61667	9.23967E-004	5.99663E-004	5.49166E-004	...........
	14	3.875	8.14273E-004	4.92948E-004	5.51832E-004	...........
	15	4.13333	7.10886E-004	4.01128E-004	5.47766E-004	...........
	16	4.39167	6.09206E-004	3.11775E-004	5.51399E-004	...........
	17	4.65	5.09206E-004	2.25190E-004	5.48199E-004	...........
	18	4.90833	4.13054E-004	1.45822E-004	5.50033E-004	...........
EOC	QUANT	0.0004131	Open Circuit (V)
PSTATMODEL	IQUANT	4	Pstat Model
PSTATSECTION	LABEL	REF600-11020	Pstat Section
PSTATSERIALNO	LABEL	11020	Pstat Serial Number
CTRLMODE	IQUANT	1	Control Mode
IESTAB	IQUANT	0	I/E Stability
CASPEED	IQUANT	1	Control Amp Speed
CONVENTION	IQUANT	1	Current Convention
ICHRANGE	IQUANT	2	Ich Range
ICHRANGEMODE	TOGGLE	F	Ich Auto Range
ICHOFFSETENABLE	TOGGLE	T	Ich Offset Enable
ICHOFFSET	QUANT	0	Ich Offset (V)
ICHFILTER	IQUANT	3	Ich Filter
VCHRANGE	IQUANT	2	Vch Range
VCHRANGEMODE	TOGGLE	F	Vch Auto Range
VCHOFFSETENABLE	TOGGLE	T	Vch Offset Enable
VCHOFFSET	QUANT	0	Vch Offset (V)
VCHFILTER	IQUANT	3	Vch Filter
ACHRANGE	IQUANT	2	Ach Range
ACHOFFSETENABLE	TOGGLE	F	Ach Offset Enable
ACHOFFSET	QUANT	0	Ach Offset (V)
ACHFILTER	IQUANT	3	Ach Filter
IERANGELOWERLIMIT	IQUANT	1	I/E Range Lower Limit
IERANGEMODE	TOGGLE	F	I/E AutoRange
IERANGE	IQUANT	3	I/E Range
POSFEEDENABLE	TOGGLE	F	Positive Feedback IR Comp
POSFEEDRESISTANCE	QUANT	0	Positive Feedback Resistance (ohm)
ACHSELECT	IQUANT	0	Ach Select
CABLEID	IQUANT	14	Cable ID
DCCALDATE	LABEL	8/19/2019	DC Calibration Date
ACCALDATE	LABEL	8/19/2019	AC Calibration Date
THERMOSELECT	IQUANT	1	Thermo Select
FRAMEWORKVERSION	QUANT	6.33	Framework Version
INSTRUMENTVERSION	LABEL	3.50	Instrument Version
ZCURVE	TABLE
	Pt	Time	Freq	Zreal	Zimag	Zsig	Zmod	Zphz	Idc	Vdc	IERange
	#	s	Hz	ohm	ohm	V	ohm	°	A	V	#
	0	1	1000078	1640.062	-588.6547	1	1742.503	-19.74419	-3.953261E-006	0.00358	8
	1	3	794390.6	1723.021	-519.1407	1	1799.53	-16.76739	-6.515129E-006	0.0035846	8
	2	4	630984.4	1789.497	-453.2642	1	1846.008	-14.2136	-2.776873E-006	0.0029317	8
	3	5	501234.4	1839.799	-395.4475	1	1881.818	-12.13063	-1.865776E-006	0.0023313	8
	4	7	398109.4	1879.879	-341.2209	1	1910.596	-10.28787	-1.566876E-006	0.0018897	8
	5	8	316265.6	1908.166	-303.7665	1	1932.194	-9.045182	-3.58008E-006	0.0026547	8
	6	10	251203.1	1931.484	-273.1681	1	1950.705	-8.049904	-1.790565E-007	0.0018165	8
	7	11	199546.9	1954.137	-248.1782	1	1969.833	-7.2379	-7.279343E-007	0.0017889	8
	8	12	158578.1	1975.806	-230.1714	1	1989.168	-6.644717	-2.836481E-007	0.0018171	8
	9	14	125953.1	2007.353	-188.7355	1	2016.206	-5.371276	3.393458E-006	-0.0037071	7
	10	15	100078.1	2019.579	-188.3983	1	2028.347	-5.329467	8.873464E-007	0.0008074	7
	11	16	79453.13	2036.278	-196.9727	1	2045.782	-5.52513	-1.029309E-006	0.0032615	7
	12	18	63140.62	2056.193	-209.9918	1	2066.888	-5.8312	7.938382E-007	0.0006266	7
	13	19	50203.12	2078.343	-226.4665	1	2090.645	-6.218694	3.879845E-007	0.0006484	7
	14	20	39890.62	2101.305	-246.1084	1	2115.668	-6.680144	-8.805632E-007	0.0024668	7
	15	22	31640.63	2128.904	-271.4543	1	2146.141	-7.266513	9.094118E-007	0.0010509	7
	16	23	25171.88	2158.238	-300.571	1	2179.067	-7.928407	8.91125E-007	0.0007979	7
	17	25	20015.62	2190.656	-334.1108	1	2215.988	-8.671717	5.320902E-007	0.0021406	7
	18	26	15890.62	2225.047	-376.6702	1	2256.705	-9.6083	-2.27007E-007	0.0031323	7
	19	27	12609.37	2265.741	-425.1391	1	2305.282	-10.62729	8.688262E-008	0.0008851	7
	20	29	10078.13	2309.757	-480.537	1	2359.215	-11.75254	7.015149E-007	0.001793	7
	21	30	8015.625	2362.141	-539.9878	1	2423.075	-12.87661	7.981124E-007	0.0006187	7
	22	31	6328.125	2414.143	-624.4377	1	2493.594	-14.50218	-9.131754E-007	0.0033688	7
	23	33	5015.625	2474.791	-716.1098	1	2576.316	-16.13842	-2.263224E-007	0.0031199	7
	24	34	3984.375	2539.541	-821.1198	1	2668.99	-17.91778	-8.844574E-007	0.0024576	7
	25	35	3170.956	2609.304	-949.3832	1	2776.652	-19.99368	9.140549E-007	0.0010492	7
	26	37	2527.573	2682.34	-1098.992	1	2898.746	-22.2796	8.66579E-008	0.0008833	7
	27	38	1976.103	2765.858	-1294.538	1	3053.817	-25.08156	3.548851E-007	0.0023927	7
	28	40	1577.524	2841.404	-1496.928	1	3211.599	-27.78146	3.553976E-007	0.0023891	7
	29	41	1265.625	2933.139	-1782.826	1	3432.459	-31.29215	6.32287E-007	0.0005437	7
	30	42	998.264	3031.369	-2131.331	1	3705.64	-35.11074	-7.411157E-007	0.0034133	7
	31	44	796.875	3135.426	-2546.614	1	4039.324	-39.08373	-8.842056E-007	0.0024569	7
	32	45	627.7902	3258.439	-3092.642	1	4492.423	-43.50462	-8.848853E-007	0.0024542	7
	33	46	505.5147	3390.582	-3705.273	1	5022.459	-47.53932	-7.399047E-007	0.0034093	7
	34	48	397.9953	3556.037	-4549.529	1	5774.393	-51.98783	3.605861E-009	0.0020366	7
	35	49	315.5048	3757.526	-5561.903	1	6712.21	-55.95772	5.498488E-009	0.002037	7
	36	50	252.4038	3996.207	-6758.236	1	7851.333	-59.40378	3.157604E-009	0.0020315	7
	37	52	198.6229	4319.686	-8341.563	1	9393.688	-62.62258	4.743554E-009	0.0020315	7
	38	53	158.3615	4709.166	-10182.23	1	11218.47	-65.17999	1.31565E-009	0.0019622	6
	39	55	125.558	5218.73	-12492.32	1	13538.58	-67.32702	8.959053E-010	0.0019709	6
	40	56	100.4464	5847.166	-15190.26	1	16276.78	-68.94686	-3.912141E-010	0.001961	6
	41	57	79.00281	6730.637	-18767.41	1	19937.83	-70.27042	4.996547E-010	0.0019688	6
	42	59	63.3446	7603.768	-22763.23	1	23999.63	-71.52876	4.895422E-010	0.0019677	6
	43	60	49.86702	9204.046	-27787.52	1	29272.18	-71.67361	-4.187263E-010	0.0019653	6
	44	62	39.72458	10907.15	-33841.27	1	35555.56	-72.13571	4.550189E-010	0.001975	6
	45	63	31.6723	13141.71	-41082.3	1	43133.05	-72.26118	-1.235995E-010	0.0019708	6
	46	64	24.93351	16121.34	-50035.52	1	52568.53	-72.14116	8.755026E-010	0.0019673	6
	47	66	19.86229	19722.1	-60348.58	1	63489.47	-71.90245	7.505646E-010	0.0019663	6
	48	67	15.83615	23850.82	-72602.06	1	76419.38	-71.8139	1.744811E-009	0.0019702	6
	49	69	12.40079	30347.78	-88090.03	1	93171.03	-70.99072	-1.923099E-010	0.0019766	6
	50	70	9.93114	37253.76	-104719.3	1	111148.5	-70.41705	-2.130859E-010	0.0019808	5
	51	72	7.944915	45560.6	-124678.2	1	132742	-69.92641	6.157283E-010	0.0019778	5
	52	73	6.317385	56117.43	-148380	1	158637.3	-69.28334	6.361142E-011	0.0019875	5
	53	75	5.008013	69237.88	-176697.5	1	189778.6	-68.60257	2.393885E-010	0.0019753	5
	54	78	3.945707	85597.16	-210845.1	1	227557.8	-67.90424	4.454561E-010	0.0019816	5
	55	80	3.158693	104191.5	-248531.9	1	269488.4	-67.2552	-3.615349E-011	0.0019687	5
	56	84	2.504006	127330.2	-293813.4	1	320217.6	-66.5695	5.30899E-010	0.0019749	5
	57	87	1.998082	154244.8	-345168.8	1	378064.8	-65.92168	2.110749E-010	0.0020139	5
	58	90	1.584686	186868.1	-405410.5	1	446405	-65.25335	1.939615E-010	0.0019483	5
	59	93	1.266892	224091.2	-475416.5	1	525583.3	-64.76279	2.362373E-010	0.0020029	5
	60	98	0.999041	271874.8	-560532.4	1	622986.8	-64.12524	4.778129E-011	0.0019419	5
