EXPLAIN
TAG	EISPOT
TITLE	LABEL	Potentiostatic IDE	Test &Identifier
DATE	LABEL	9/4/2019	Date
TIME	LABEL	12:59:45	Time
NOTES	NOTES	1	&Notes...
	
PSTAT	PSTAT	REF600-11020	Potentiostat
VDC	POTEN	0.00000E+000	T	DC &Voltage (V)
FREQINIT	QUANT	1.00000E+006	Initial Fre&q. (Hz)
FREQFINAL	QUANT	1.00000E+000	Final Fre&q. (Hz)
PTSPERDEC	QUANT	1.00000E+001	Points/&decade
VAC	QUANT	2.50000E+001	AC &Voltage (mV rms)
AREA	QUANT	1.00000E-002	&Area (cm^2)
CONDIT	TWOPARAM	T	5.00000E+000	0.00000E+000	Conditionin&g	Time(s)	E(V)
DELAY	TWOPARAM	T	5.00000E+000	0.00000E+000	Init. De&lay	Time(s)	Stab.(mV/s)
SPEED	SELECTOR	1	&Optimize for:
ZGUESS	QUANT	1.00000E+007	E&stimated Z (ohms)
OCVCURVE	TABLE	19
	Pt	T	Vf	Vm	Ach	Over
	#	s	V vs. Ref.	V	V	bits
	0	0.258333	4.72632E-002	4.72632E-002	5.79099E-004	...........
	1	0.516667	4.72600E-002	4.70911E-002	5.80032E-004	...........
	2	0.775	4.72415E-002	4.70191E-002	5.80065E-004	...........
	3	1.03333	4.71963E-002	4.70111E-002	5.83532E-004	...........
	4	1.29167	4.71320E-002	4.70256E-002	5.78732E-004	...........
	5	1.55	4.70740E-002	4.70696E-002	5.77132E-004	...........
	6	1.80833	4.70435E-002	4.71305E-002	5.75132E-004	...........
	7	2.06667	4.70465E-002	4.72008E-002	5.80399E-004	...........
	8	2.325	4.70794E-002	4.73160E-002	5.77932E-004	...........
	9	2.58333	4.71366E-002	4.74060E-002	5.78999E-004	...........
	10	2.84167	4.72130E-002	4.75043E-002	5.80932E-004	...........
	11	3.1	4.73022E-002	4.75949E-002	5.80599E-004	...........
	12	3.35833	4.73974E-002	4.76979E-002	5.79965E-004	...........
	13	3.61667	4.74925E-002	4.77094E-002	5.77999E-004	...........
	14	3.875	4.75819E-002	4.78393E-002	5.77532E-004	...........
	15	4.13333	4.76647E-002	4.79783E-002	5.81399E-004	...........
	16	4.39167	4.77500E-002	4.80723E-002	5.79099E-004	...........
	17	4.65	4.78464E-002	4.81664E-002	5.75299E-004	...........
	18	4.90833	4.79510E-002	4.82507E-002	5.77899E-004	...........
EOC	QUANT	0.047951	Open Circuit (V)
PSTATMODEL	IQUANT	4	Pstat Model
PSTATSECTION	LABEL	REF600-11020	Pstat Section
PSTATSERIALNO	LABEL	11020	Pstat Serial Number
CTRLMODE	IQUANT	1	Control Mode
IESTAB	IQUANT	0	I/E Stability
CASPEED	IQUANT	1	Control Amp Speed
CONVENTION	IQUANT	1	Current Convention
ICHRANGE	IQUANT	2	Ich Range
ICHRANGEMODE	TOGGLE	F	Ich Auto Range
ICHOFFSETENABLE	TOGGLE	T	Ich Offset Enable
ICHOFFSET	QUANT	0	Ich Offset (V)
ICHFILTER	IQUANT	3	Ich Filter
VCHRANGE	IQUANT	2	Vch Range
VCHRANGEMODE	TOGGLE	F	Vch Auto Range
VCHOFFSETENABLE	TOGGLE	T	Vch Offset Enable
VCHOFFSET	QUANT	0	Vch Offset (V)
VCHFILTER	IQUANT	3	Vch Filter
ACHRANGE	IQUANT	2	Ach Range
ACHOFFSETENABLE	TOGGLE	F	Ach Offset Enable
ACHOFFSET	QUANT	0	Ach Offset (V)
ACHFILTER	IQUANT	3	Ach Filter
IERANGELOWERLIMIT	IQUANT	1	I/E Range Lower Limit
IERANGEMODE	TOGGLE	F	I/E AutoRange
IERANGE	IQUANT	3	I/E Range
POSFEEDENABLE	TOGGLE	F	Positive Feedback IR Comp
POSFEEDRESISTANCE	QUANT	0	Positive Feedback Resistance (ohm)
ACHSELECT	IQUANT	0	Ach Select
CABLEID	IQUANT	14	Cable ID
DCCALDATE	LABEL	8/19/2019	DC Calibration Date
ACCALDATE	LABEL	8/19/2019	AC Calibration Date
THERMOSELECT	IQUANT	1	Thermo Select
FRAMEWORKVERSION	QUANT	6.33	Framework Version
INSTRUMENTVERSION	LABEL	3.50	Instrument Version
ZCURVE	TABLE
	Pt	Time	Freq	Zreal	Zimag	Zsig	Zmod	Zphz	Idc	Vdc	IERange
	#	s	Hz	ohm	ohm	V	ohm	°	A	V	#
	0	1	1000078	2278.618	-1774.718	1	2888.204	-37.91349	1.389052E-005	0.0490174	8
	1	3	794390.6	2633.243	-1686.2	1	3126.858	-32.6335	1.272592E-005	0.048979	8
	2	4	630984.4	2927.184	-1560.921	1	3317.36	-28.06877	1.373619E-005	0.0486515	8
	3	6	501234.4	3183.079	-1414.103	1	3483.056	-23.95349	1.266185E-005	0.0487136	8
	4	8	398109.4	3377.511	-1257.672	1	3604.07	-20.42365	1.26556E-005	0.0487208	8
	5	9	316265.6	3534.226	-1108.033	1	3703.848	-17.40699	1.166454E-005	0.0488568	8
	6	11	251203.1	3657.589	-989.782	1	3789.146	-15.14218	1.054072E-005	0.0491638	8
	7	12	199546.9	3746.055	-879.9534	1	3848.018	-13.21919	1.199216E-005	0.0490146	8
	8	14	158578.1	3828.883	-798.3822	1	3911.235	-11.7783	1.055877E-005	0.0491497	8
	9	15	125953.1	3906.337	-757.6506	1	3979.134	-10.97647	8.860226E-007	0.0491694	7
	10	17	100078.1	3958.269	-695.5495	1	4018.916	-9.9663	1.010267E-006	0.0492785	7
	11	18	79453.13	4015.6	-682.552	1	4073.196	-9.64666	9.853069E-007	0.0493959	7
	12	19	63140.62	4071.257	-687.589	1	4128.912	-9.58614	1.017219E-006	0.0493358	7
	13	21	50203.12	4129.091	-707.545	1	4189.274	-9.72355	9.874369E-007	0.0493418	7
	14	22	39890.62	4190.136	-748.9066	1	4256.536	-10.13352	9.877884E-007	0.0493021	7
	15	23	31640.63	4250.44	-807.4067	1	4326.447	-10.75567	9.84063E-007	0.0492939	7
	16	25	25171.88	4321.467	-891.8527	1	4412.537	-11.66084	9.799046E-007	0.0493125	7
	17	26	20015.62	4397.325	-994.806	1	4508.449	-12.74744	1.038717E-006	0.0492163	7
	18	27	15890.62	4481.474	-1119.406	1	4619.165	-14.02467	1.012692E-006	0.0492652	7
	19	29	12609.37	4572.884	-1282.121	1	4749.221	-15.66216	9.907061E-007	0.0493031	7
	20	30	10078.13	4679.238	-1471.247	1	4905.083	-17.4542	1.027542E-006	0.049281	7
	21	31	8015.625	4796.734	-1708.636	1	5091.964	-19.60632	1.075355E-006	0.0491848	7
	22	33	6328.125	4939.61	-2000.096	1	5329.177	-22.04351	1.018635E-006	0.0493268	7
	23	34	5015.625	5099.053	-2339.294	1	5610.048	-24.64425	1.016966E-006	0.0492311	7
	24	35	3984.375	5290.622	-2755.604	1	5965.235	-27.51261	1.006505E-006	0.0492979	7
	25	37	3170.956	5500.929	-3241.073	1	6384.73	-30.50602	9.98152E-007	0.049351	7
	26	38	2527.573	5750.287	-3816.317	1	6901.455	-33.57121	1.073646E-006	0.0491703	7
	27	40	1976.103	6068.541	-4557.907	1	7589.579	-36.90916	1.011873E-006	0.0492646	7
	28	41	1577.524	6419.274	-5380.954	1	8376.261	-39.97141	1.01315E-006	0.0492569	7
	29	42	1265.625	6828.84	-6327.629	1	9309.777	-42.81831	9.961334E-007	0.0492854	7
	30	44	998.264	7332.968	-7532.08	1	10512.12	-45.76741	1.051545E-006	0.0491817	7
	31	45	796.875	7917.708	-8929.553	1	11934.28	-48.43705	9.904132E-007	0.0493857	7
	32	46	627.7902	8622.759	-10649.71	1	13702.86	-51.00392	9.350462E-008	0.0492832	6
	33	48	505.5147	9394.117	-12510.98	1	15645.26	-53.09822	9.273214E-008	0.0492771	6
	34	49	397.9953	10400.92	-14956.97	1	18217.86	-55.18566	1.007652E-007	0.0488792	6
	35	50	315.5048	11555.87	-17786.89	1	21211.12	-56.98885	1.005052E-007	0.048877	6
	36	52	252.4038	12857.24	-21020.26	1	24640.62	-58.54757	1.008829E-007	0.0488711	6
	37	53	198.6229	14506.17	-25154.78	1	29037.76	-60.02896	1.00744E-007	0.0488721	6
	38	54	158.3615	16330.91	-29824.6	1	34003.02	-61.29642	1.008122E-007	0.048868	6
	39	56	125.558	18533.02	-35553.74	1	40094.16	-62.46842	1.005875E-007	0.0488715	6
	40	57	100.4464	21031.85	-42072.79	1	47036.78	-63.43991	1.002662E-007	0.0488684	6
	41	58	79.00281	24201.71	-50502.72	1	56002.21	-64.39552	1.007124E-007	0.0488658	6
	42	60	63.3446	27083.08	-59995.23	1	65824.93	-65.70461	1.002425E-007	0.0488672	6
	43	61	49.86702	32023.83	-71756.7	1	78578.3	-65.94958	1.000595E-007	0.0488661	6
	44	62	39.72458	36529.88	-85954.67	1	93395.06	-66.97499	1.006839E-007	0.0488727	6
	45	64	31.6723	42078.37	-102690.7	1	110977.3	-67.71822	1.002986E-007	0.0488701	6
	46	65	24.93351	49438.44	-123793	1	133299.9	-68.23002	1.004455E-007	0.0488727	6
	47	66	19.86229	57698	-148049.3	1	158895.1	-68.70807	1.028919E-008	0.04887	5
	48	68	15.83615	67769.25	-177749.4	1	190230.2	-69.13	1.010137E-008	0.0488701	5
	49	69	12.40079	80984.14	-216081.2	1	230758.6	-69.45472	1.067864E-008	0.0488688	5
	50	71	9.93114	95377	-257390.3	1	274493.3	-69.66761	1.044912E-008	0.0488714	5
	51	72	7.944915	112702	-306724.3	1	326774.5	-69.82478	1.00398E-008	0.0488776	5
	52	74	6.317385	135679.3	-369427.6	1	393555.1	-69.83327	1.017009E-008	0.0488833	5
	53	76	5.008013	165243.9	-444294.8	1	474029	-69.59863	1.029992E-008	0.0488798	5
	54	78	3.945707	203112.8	-536224.6	1	573403.6	-69.25417	1.026469E-008	0.0488758	5
	55	81	3.158693	247089.6	-637067.3	1	683306.6	-68.80098	1.028629E-008	0.0488922	5
	56	84	2.504006	305484.1	-762147	1	821089.9	-68.15808	9.995895E-009	0.0491527	5
	57	87	1.998082	375508.5	-901655.6	1	976724	-67.38995	9.995228E-009	0.0491593	5
	58	90	1.584686	468520.4	-1067376	1	1165677	-66.30111	1.004127E-008	0.0492095	5
	59	94	1.266892	576865.6	-1257063	1	1383106	-65.34964	9.724743E-010	0.0491619	4
	60	98	0.999041	717454.1	-1478555	1	1643431	-64.11548	1.197369E-009	0.0491756	4
