EXPLAIN
TAG	EISPOT
TITLE	LABEL	Potentiostatic EIS	Test &Identifier
DATE	LABEL	11/20/2019	Date
TIME	LABEL	11:41:08	Time
NOTES	NOTES	4	&Notes...
	
	
	
	
PSTAT	PSTAT	REF600-11020	Potentiostat
VDC	POTEN	0.00000E+000	T	DC &Voltage (V)
FREQINIT	QUANT	1.00000E+006	Initial Fre&q. (Hz)
FREQFINAL	QUANT	1.00000E+000	Final Fre&q. (Hz)
PTSPERDEC	QUANT	1.00000E+001	Points/&decade
VAC	QUANT	2.50000E+001	AC &Voltage (mV rms)
AREA	QUANT	1.00000E-002	&Area (cm^2)
CONDIT	TWOPARAM	T	5.00000E+000	0.00000E+000	Conditionin&g	Time(s)	E(V)
DELAY	TWOPARAM	T	5.00000E+000	0.00000E+000	Init. De&lay	Time(s)	Stab.(mV/s)
SPEED	SELECTOR	1	&Optimize for:
ZGUESS	QUANT	1.00000E+005	E&stimated Z (ohms)
OCVCURVE	TABLE	19
	Pt	T	Vf	Vm	Ach	Over
	#	s	V vs. Ref.	V	V	bits
	0	0.258333	5.62567E-003	5.62567E-003	5.48799E-004	...........
	1	0.516667	5.62134E-003	5.39920E-003	5.51866E-004	...........
	2	0.775	5.59494E-003	5.19313E-003	5.51366E-004	...........
	3	1.03333	5.52137E-003	5.02536E-003	5.46599E-004	...........
	4	1.29167	5.39355E-003	4.87778E-003	5.51366E-004	...........
	5	1.55	5.23174E-003	4.75732E-003	5.53233E-004	...........
	6	1.80833	5.06487E-003	4.64750E-003	5.52199E-004	...........
	7	2.06667	4.91197E-003	4.54732E-003	5.47533E-004	...........
	8	2.325	4.77881E-003	4.45754E-003	5.48499E-004	...........
	9	2.58333	4.66344E-003	4.38230E-003	5.41499E-004	...........
	10	2.84167	4.56221E-003	4.30759E-003	5.47166E-004	...........
	11	3.1	4.47226E-003	4.24068E-003	5.40999E-004	...........
	12	3.35833	4.39137E-003	4.18341E-003	5.39833E-004	...........
	13	3.61667	4.31788E-003	4.11943E-003	5.46399E-004	...........
	14	3.875	4.25042E-003	4.06915E-003	5.48366E-004	...........
	15	4.13333	4.18795E-003	4.02460E-003	5.49699E-004	...........
	16	4.39167	4.13032E-003	3.98134E-003	5.45966E-004	...........
	17	4.65	4.07767E-003	3.93321E-003	5.48566E-004	...........
	18	4.90833	4.02925E-003	3.89617E-003	5.47899E-004	...........
EOC	QUANT	0.0040293	Open Circuit (V)
PSTATMODEL	IQUANT	4	Pstat Model
PSTATSECTION	LABEL	REF600-11020	Pstat Section
PSTATSERIALNO	LABEL	11020	Pstat Serial Number
CTRLMODE	IQUANT	1	Control Mode
IESTAB	IQUANT	0	I/E Stability
CASPEED	IQUANT	1	Control Amp Speed
CONVENTION	IQUANT	1	Current Convention
ICHRANGE	IQUANT	2	Ich Range
ICHRANGEMODE	TOGGLE	F	Ich Auto Range
ICHOFFSETENABLE	TOGGLE	T	Ich Offset Enable
ICHOFFSET	QUANT	0	Ich Offset (V)
ICHFILTER	IQUANT	3	Ich Filter
VCHRANGE	IQUANT	2	Vch Range
VCHRANGEMODE	TOGGLE	F	Vch Auto Range
VCHOFFSETENABLE	TOGGLE	T	Vch Offset Enable
VCHOFFSET	QUANT	0	Vch Offset (V)
VCHFILTER	IQUANT	3	Vch Filter
ACHRANGE	IQUANT	2	Ach Range
ACHOFFSETENABLE	TOGGLE	F	Ach Offset Enable
ACHOFFSET	QUANT	0	Ach Offset (V)
ACHFILTER	IQUANT	3	Ach Filter
IERANGELOWERLIMIT	IQUANT	1	I/E Range Lower Limit
IERANGEMODE	TOGGLE	F	I/E AutoRange
IERANGE	IQUANT	4	I/E Range
POSFEEDENABLE	TOGGLE	F	Positive Feedback IR Comp
POSFEEDRESISTANCE	QUANT	0	Positive Feedback Resistance (ohm)
ACHSELECT	IQUANT	0	Ach Select
CABLEID	IQUANT	14	Cable ID
DCCALDATE	LABEL	8/19/2019	DC Calibration Date
ACCALDATE	LABEL	8/19/2019	AC Calibration Date
THERMOSELECT	IQUANT	1	Thermo Select
FRAMEWORKVERSION	QUANT	6.33	Framework Version
INSTRUMENTVERSION	LABEL	3.50	Instrument Version
ZCURVE	TABLE
	Pt	Time	Freq	Zreal	Zimag	Zsig	Zmod	Zphz	Idc	Vdc	IERange
	#	s	Hz	ohm	ohm	V	ohm	°	A	V	#
	0	2	1000078	2327.897	-2214.667	1	3213.075	-43.57212	-1.007272E-005	0.0067269	8
	1	3	794390.6	2770.919	-2258.421	1	3574.697	-39.18156	6.690675E-007	0.0057614	8
	2	4	630984.4	3229.253	-2235.283	1	3927.413	-34.69091	-3.46234E-007	0.0054256	8
	3	6	501234.4	3652.724	-2145.94	1	4236.443	-30.43382	-6.09118E-007	0.0053541	8
	4	7	398109.4	4028.833	-2008.539	1	4501.747	-26.49814	-2.301966E-006	0.0054929	8
	5	8	316265.6	4342.687	-1858.152	1	4723.522	-23.16514	-4.511339E-007	0.0052828	8
	6	10	251203.1	4607.345	-1688.934	1	4907.15	-20.13164	-1.265938E-006	0.0059265	8
	7	11	199546.9	4838.676	-1548.556	1	5080.434	-17.7466	-5.409465E-007	0.0052835	8
	8	13	158578.1	4993.378	-1473.297	1	5206.191	-16.4387	-3.005934E-008	0.0052799	8
	9	14	125953.1	5209.042	-1246.012	1	5355.993	-13.45248	3.966199E-006	-0.00117	7
	10	15	100078.1	5300.882	-1166.147	1	5427.638	-12.40693	-6.300851E-007	0.0071122	7
	11	17	79453.13	5415.91	-1127.388	1	5532.005	-11.7589	-8.971793E-007	0.0071728	7
	12	18	63140.62	5523.993	-1111.799	1	5634.767	-11.37974	-8.99017E-007	0.0071752	7
	13	19	50203.12	5633.471	-1121.009	1	5743.924	-11.25432	7.892536E-007	0.0037256	7
	14	21	39890.62	5743.459	-1149.475	1	5857.355	-11.31745	-8.996171E-007	0.0071779	7
	15	22	31640.63	5862.318	-1210.648	1	5986.021	-11.66832	4.978295E-007	0.0038345	7
	16	24	25171.88	5982.008	-1286.175	1	6118.715	-12.13427	5.939322E-008	0.0064706	7
	17	25	20015.62	6117.512	-1390.92	1	6273.644	-12.8094	-1.217693E-006	0.0069289	7
	18	27	15890.62	6262.072	-1519.839	1	6443.87	-13.64221	-1.038602E-006	0.0059851	7
	19	28	12609.37	6426.753	-1684.151	1	6643.758	-14.68435	-1.039617E-006	0.0059865	7
	20	29	10078.13	6607.858	-1866.022	1	6866.282	-15.76938	-2.95596E-007	0.0068571	7
	21	31	8015.625	6804.479	-2089.685	1	7118.126	-17.07195	-3.025039E-007	0.0046394	7
	22	32	6328.125	7036.106	-2353.836	1	7419.389	-18.49698	-6.229748E-007	0.0070786	7
	23	33	5015.625	7294.315	-2661.751	1	7764.79	-20.04741	-1.200357E-006	0.0065535	7
	24	35	3984.375	7594.763	-3016.919	1	8172.039	-21.66479	-6.189569E-007	0.007073	7
	25	36	3170.956	7905.737	-3412.094	1	8610.637	-23.34489	8.23722E-007	0.0052916	7
	26	38	2527.573	8270.748	-3884.857	1	9137.69	-25.15994	7.839354E-007	0.0037248	7
	27	39	1976.103	8706.399	-4463.013	1	9783.65	-27.14026	-2.928733E-007	0.0068379	7
	28	40	1577.524	9191.297	-5054.173	1	10489.26	-28.80582	1.613497E-007	0.0045968	6
	29	42	1265.625	9709	-5761.313	1	11289.7	-30.68487	-4.315478E-008	0.0077598	6
	30	43	998.264	10329.41	-6616.585	1	12266.87	-32.64191	-5.64014E-008	0.0041019	6
	31	45	796.875	11011.12	-7544.767	1	13347.96	-34.41877	-1.567729E-007	0.0084989	6
	32	46	627.7902	11815.94	-8678.357	1	14660.5	-36.29586	1.779048E-007	0.0028644	6
	33	47	505.5147	12619.59	-9848.63	1	16007.8	-37.96934	1.847421E-007	0.0033649	6
	34	49	397.9953	13573.91	-11338.42	1	17686.46	-39.87233	-1.63098E-010	0.0054471	6
	35	50	315.5048	14563.36	-13033.17	1	19543.67	-41.82627	5.27684E-010	0.0054407	6
	36	51	252.4038	15549.41	-14972.99	1	21586.45	-43.91811	6.884819E-010	0.005442	6
	37	53	198.6229	16644.41	-17508.41	1	24157.42	-46.44918	6.263497E-010	0.0054498	6
	38	54	158.3615	17720.79	-20468.55	1	27073.76	-49.11539	-3.251866E-010	0.0054409	6
	39	56	125.558	18879.99	-24251.32	1	30734.03	-52.09875	4.357236E-010	0.0054389	6
	40	57	100.4464	20130.91	-28800.65	1	35138.74	-55.04745	7.113284E-010	0.0054412	6
	41	58	79.00281	21728.37	-34874.63	1	41089.68	-58.07535	9.528047E-010	0.0054463	6
	42	60	63.3446	23215.43	-41418.03	1	47480.62	-60.72871	8.726891E-010	0.0054362	6
	43	61	49.86702	26064.11	-51346.29	1	57582.8	-63.087	1.233829E-009	0.0054352	6
	44	63	39.72458	28632.55	-62339.1	1	68600.2	-65.33053	1.989328E-010	0.0054502	6
	45	64	31.6723	32555.08	-75782.05	1	82478.8	-66.7522	-1.814608E-010	0.0054417	6
	46	65	24.93351	37861.72	-92905.16	1	100323.9	-67.82759	-9.229863E-011	0.0054434	6
	47	67	19.86229	44878.48	-112758.6	1	121361.3	-68.2972	-9.717148E-011	0.005452	5
	48	68	15.83615	53188.32	-136663.5	1	146649	-68.73442	-1.204951E-009	0.0054451	5
	49	69	12.40079	68071.79	-165720.3	1	179156.3	-67.66895	-2.902545E-010	0.0054498	5
	50	71	9.93114	84706.09	-197454.1	1	214856.3	-66.78108	1.299305E-010	0.0054508	5
	51	72	7.944915	105876.7	-232810.6	1	255755.1	-65.54509	4.484087E-010	0.0054489	5
	52	74	6.317385	133844.1	-273740.8	1	304710.1	-63.94393	-2.053685E-011	0.0054653	5
	53	76	5.008013	169236	-318822.3	1	360955	-62.03992	1.356089E-010	0.0054473	5
	54	79	3.945707	212240.6	-367771	1	424619.4	-60.01076	1.722908E-010	0.0054405	5
	55	81	3.158693	258581.8	-415347.4	1	489262.8	-58.09495	1.224278E-010	0.0054534	5
	56	84	2.504006	311490.5	-468276.5	1	562413.8	-56.36874	1.831563E-011	0.005436	5
	57	87	1.998082	366119.5	-523466.1	1	638796	-55.03052	-1.047042E-010	0.0054454	5
	58	90	1.584686	426758.9	-585120.5	1	724216.3	-53.89478	1.234438E-010	0.005499	5
	59	94	1.266892	485009.3	-655479.9	1	815406.6	-53.50114	-8.41533E-011	0.005448	5
	60	98	0.999041	550872.8	-744600.1	1	926223.6	-53.50508	2.696231E-010	0.0054788	5
