EXPLAIN
TAG	EISPOT
TITLE	LABEL	Potentiostatic EIS	Test &Identifier
DATE	LABEL	9/20/2019	Date
TIME	LABEL	10:40:23	Time
NOTES	NOTES	1	&Notes...
	
PSTAT	PSTAT	REF600-11020	Potentiostat
VDC	POTEN	0.00000E+000	T	DC &Voltage (V)
FREQINIT	QUANT	1.00000E+006	Initial Fre&q. (Hz)
FREQFINAL	QUANT	1.00000E+000	Final Fre&q. (Hz)
PTSPERDEC	QUANT	1.00000E+001	Points/&decade
VAC	QUANT	2.50000E+001	AC &Voltage (mV rms)
AREA	QUANT	1.00000E-002	&Area (cm^2)
CONDIT	TWOPARAM	T	5.00000E+000	0.00000E+000	Conditionin&g	Time(s)	E(V)
DELAY	TWOPARAM	T	5.00000E+000	0.00000E+000	Init. De&lay	Time(s)	Stab.(mV/s)
SPEED	SELECTOR	1	&Optimize for:
ZGUESS	QUANT	1.00000E+004	E&stimated Z (ohms)
OCVCURVE	TABLE	19
	Pt	T	Vf	Vm	Ach	Over
	#	s	V vs. Ref.	V	V	bits
	0	0.258333	2.79613E-002	2.79613E-002	4.99000E-004	...........
	1	0.516667	2.79951E-002	2.97318E-002	4.92067E-004	...........
	2	0.775	2.82008E-002	3.13040E-002	5.11000E-004	...........
	3	1.03333	2.87741E-002	3.27201E-002	5.14000E-004	...........
	4	1.29167	2.97784E-002	3.40446E-002	5.05300E-004	...........
	5	1.55	3.10793E-002	3.53380E-002	5.00900E-004	...........
	6	1.80833	3.24814E-002	3.64356E-002	5.14900E-004	...........
	7	2.06667	3.38491E-002	3.74824E-002	5.07133E-004	...........
	8	2.325	3.51213E-002	3.84737E-002	5.00367E-004	...........
	9	2.58333	3.62864E-002	3.93828E-002	4.95233E-004	...........
	10	2.84167	3.73577E-002	4.03020E-002	5.10233E-004	...........
	11	3.1	3.83543E-002	4.10734E-002	5.04800E-004	...........
	12	3.35833	3.92892E-002	4.18736E-002	4.99567E-004	...........
	13	3.61667	4.01687E-002	4.26207E-002	4.96900E-004	...........
	14	3.875	4.09983E-002	4.33203E-002	5.12567E-004	...........
	15	4.13333	4.17850E-002	4.40177E-002	5.12900E-004	...........
	16	4.39167	4.25332E-002	4.45892E-002	5.02067E-004	...........
	17	4.65	4.32424E-002	4.52129E-002	4.98667E-004	...........
	18	4.90833	4.39114E-002	4.58013E-002	5.04667E-004	...........
EOC	QUANT	0.0439114	Open Circuit (V)
PSTATMODEL	IQUANT	4	Pstat Model
PSTATSECTION	LABEL	REF600-11020	Pstat Section
PSTATSERIALNO	LABEL	11020	Pstat Serial Number
CTRLMODE	IQUANT	1	Control Mode
IESTAB	IQUANT	0	I/E Stability
CASPEED	IQUANT	1	Control Amp Speed
CONVENTION	IQUANT	1	Current Convention
ICHRANGE	IQUANT	2	Ich Range
ICHRANGEMODE	TOGGLE	F	Ich Auto Range
ICHOFFSETENABLE	TOGGLE	T	Ich Offset Enable
ICHOFFSET	QUANT	0	Ich Offset (V)
ICHFILTER	IQUANT	3	Ich Filter
VCHRANGE	IQUANT	2	Vch Range
VCHRANGEMODE	TOGGLE	F	Vch Auto Range
VCHOFFSETENABLE	TOGGLE	T	Vch Offset Enable
VCHOFFSET	QUANT	0	Vch Offset (V)
VCHFILTER	IQUANT	3	Vch Filter
ACHRANGE	IQUANT	2	Ach Range
ACHOFFSETENABLE	TOGGLE	F	Ach Offset Enable
ACHOFFSET	QUANT	0	Ach Offset (V)
ACHFILTER	IQUANT	3	Ach Filter
IERANGELOWERLIMIT	IQUANT	1	I/E Range Lower Limit
IERANGEMODE	TOGGLE	F	I/E AutoRange
IERANGE	IQUANT	6	I/E Range
POSFEEDENABLE	TOGGLE	F	Positive Feedback IR Comp
POSFEEDRESISTANCE	QUANT	0	Positive Feedback Resistance (ohm)
ACHSELECT	IQUANT	0	Ach Select
CABLEID	IQUANT	14	Cable ID
DCCALDATE	LABEL	8/19/2019	DC Calibration Date
ACCALDATE	LABEL	8/19/2019	AC Calibration Date
THERMOSELECT	IQUANT	1	Thermo Select
FRAMEWORKVERSION	QUANT	6.33	Framework Version
INSTRUMENTVERSION	LABEL	3.50	Instrument Version
ZCURVE	TABLE
	Pt	Time	Freq	Zreal	Zimag	Zsig	Zmod	Zphz	Idc	Vdc	IERange
	#	s	Hz	ohm	ohm	V	ohm	°	A	V	#
	0	1	1000078	2420.324	-1277.097	1	2736.594	-27.81861	-6.031912E-006	0.0472801	8
	1	2	794390.6	2639.758	-1155.14	1	2881.436	-23.63385	1.21215E-006	0.0463264	8
	2	4	630984.4	2824.688	-1007.243	1	2998.9	-19.62549	1.521223E-006	0.0452037	8
	3	5	501234.4	2944.377	-896.4312	1	3077.815	-16.93315	-2.560006E-006	0.0461325	8
	4	6	398109.4	3051.887	-786.0136	1	3151.481	-14.44265	1.086047E-006	0.0454754	8
	5	8	316265.6	3122.198	-676.5757	1	3194.664	-12.22686	-4.684493E-006	0.0466685	8
	6	9	251203.1	3219.635	-586.8488	1	3272.681	-10.33	4.894038E-006	0.0446752	8
	7	11	199546.9	3256.819	-528.7208	1	3299.457	-9.221106	-3.386648E-006	0.0462589	8
	8	12	158578.1	3303.574	-471.8236	1	3337.097	-8.128139	1.699294E-007	0.0454694	8
	9	13	125953.1	3354.76	-386.2593	1	3376.923	-6.567983	7.101417E-007	0.0445952	7
	10	15	100078.1	3380.074	-363.4601	1	3399.56	-6.137445	2.48057E-008	0.0455112	7
	11	16	79453.13	3412.748	-357.0817	1	3431.378	-5.973222	-1.893621E-008	0.045591	7
	12	17	63140.62	3446.505	-356.8441	1	3464.929	-5.911225	-9.391155E-009	0.0455478	7
	13	19	50203.12	3481.911	-362.9787	1	3500.779	-5.951416	-4.60336E-008	0.045549	7
	14	20	39890.62	3518.606	-374.7947	1	3538.511	-6.080102	-5.088272E-008	0.0456224	7
	15	21	31640.63	3557.614	-395.5789	1	3579.539	-6.344779	-2.740295E-008	0.0455103	7
	16	23	25171.88	3598.021	-422.4374	1	3622.735	-6.696342	6.499869E-008	0.045497	7
	17	24	20015.62	3642.743	-456.7672	1	3671.268	-7.147074	3.728555E-008	0.0453844	7
	18	26	15890.62	3691.334	-499.982	1	3725.041	-7.713628	1.210204E-007	0.0453357	7
	19	27	12609.37	3744.09	-551.4803	1	3784.487	-8.379048	-2.482446E-008	0.0455101	7
	20	28	10078.13	3799.795	-610.3596	1	3848.504	-9.125446	-4.87418E-008	0.0455729	7
	21	30	8015.625	3860.528	-683.915	1	3920.64	-10.04605	3.82513E-008	0.0453814	7
	22	31	6328.125	3928.402	-772.7026	1	4003.675	-11.12782	6.681302E-008	0.0454896	7
	23	32	5015.625	4001.01	-877.9241	1	4096.198	-12.37602	-4.389429E-008	0.0455383	7
	24	34	3984.375	4078.294	-1002.643	1	4199.735	-13.81216	-5.027639E-008	0.0456083	7
	25	35	3170.956	4162.317	-1151.253	1	4318.596	-15.46089	-9.431734E-009	0.0454691	7
	26	36	2527.573	4251.754	-1328.842	1	4454.574	-17.3561	7.360142E-008	0.0453621	7
	27	38	1976.103	4359.354	-1562.119	1	4630.786	-19.71449	1.216642E-007	0.0453322	7
	28	39	1577.524	4471.261	-1821.894	1	4828.196	-22.1693	-1.538103E-008	0.045568	7
	29	41	1265.625	4587.057	-2131.398	1	5058.058	-24.92217	-3.744497E-008	0.045536	7
	30	42	998.264	4725.705	-2533.602	1	5362.035	-28.19719	-2.210973E-008	0.0456556	7
	31	43	796.875	4872.346	-3004.575	1	5724.267	-31.66042	-2.302424E-008	0.045656	7
	32	45	627.7902	5052.836	-3615.867	1	6213.344	-35.58794	-4.371683E-008	0.045534	7
	33	46	505.5147	5238.073	-4305.765	1	6780.636	-39.42065	-1.555684E-008	0.0455566	7
	34	47	397.9953	5495.36	-5238.081	1	7591.869	-43.62689	-5.616775E-010	0.0455413	7
	35	49	315.5048	5805.363	-6357.474	1	8609.28	-47.59906	-1.012706E-009	0.0455425	7
	36	50	252.4038	6185.873	-7673.024	1	9855.98	-51.12478	8.431172E-011	0.045532	7
	37	51	198.6229	6721.873	-9391.128	1	11548.89	-54.40611	-4.75091E-009	0.045476	6
	38	53	158.3615	7386.125	-11358.52	1	13548.83	-56.96518	-4.340152E-009	0.0454785	6
	39	54	125.558	8288.01	-13781.04	1	16081.3	-58.97702	-4.092927E-009	0.0454743	6
	40	56	100.4464	9415.473	-16526.73	1	19020.62	-60.32932	-2.581905E-009	0.0454789	6
	41	57	79.00281	11069.77	-20022.06	1	22878.43	-61.06274	-3.05549E-009	0.045468	6
	42	58	63.3446	13123.25	-23745.62	1	27130.68	-61.07232	-4.056059E-009	0.0454759	6
	43	60	49.86702	15527.01	-28453.04	1	32413.94	-61.37841	-4.335238E-009	0.0454697	6
	44	61	39.72458	18828.47	-33331.51	1	38281.86	-60.53854	-3.137431E-009	0.045477	6
	45	62	31.6723	22762.59	-38861.98	1	45037.64	-59.64125	-3.550372E-009	0.0454659	6
	46	64	24.93351	27961.31	-45242.37	1	53185.6	-58.28254	-2.468048E-009	0.0454738	6
	47	65	19.86229	33804.14	-51859.57	1	61904.24	-56.90208	-1.96697E-009	0.0454774	6
	48	67	15.83615	40737.09	-58856.82	1	71579.58	-55.31139	-4.636745E-009	0.0454743	6
	49	68	12.40079	49138.61	-66972.09	1	83065.41	-53.73184	-3.563443E-009	0.0454631	6
	50	69	9.93114	58333.45	-74800.93	1	94857.63	-52.05114	-2.141467E-009	0.0454643	6
	51	71	7.944915	68326.06	-83083.64	1	107570.2	-50.56691	-5.235391E-009	0.0454733	5
	52	73	6.317385	79555.78	-92024.4	1	121645.4	-49.15634	-3.131761E-009	0.0454608	5
	53	75	5.008013	92230.2	-101669.1	1	137269.8	-47.78691	-4.28653E-009	0.0454739	5
	54	77	3.945707	106412.1	-112453.7	1	154820.4	-46.5812	-4.26326E-009	0.0454668	5
	55	80	3.158693	120802.4	-123119.7	1	172486.8	-45.54428	-3.825282E-009	0.0454663	5
	56	83	2.504006	136937.3	-135499.4	1	192644.6	-44.69759	-3.907791E-009	0.0454806	5
	57	86	1.998082	153476	-148827.1	1	213785.9	-44.11895	-2.757022E-009	0.0454548	5
	58	89	1.584686	172646.8	-164172.8	1	238242.8	-43.55882	-4.141671E-009	0.04543	5
	59	93	1.266892	191505.9	-180677.5	1	263284.8	-43.3335	-3.02122E-009	0.0454389	5
	60	97	0.999041	214132.4	-201019.6	1	293703.2	-43.19088	-4.260528E-009	0.0454869	5
