EXPLAIN
TAG	EISPOT
TITLE	LABEL	Potentiostatic EIS	Test &Identifier
DATE	LABEL	8/14/2018	Date
TIME	LABEL	5:37:22	Time
NOTES	NOTES	1	&Notes...
	
PSTAT	PSTAT	REF600-11020	Potentiostat
VDC	POTEN	0.00000E+000	T	DC &Voltage (V)
FREQINIT	QUANT	1.00000E+006	Initial Fre&q. (Hz)
FREQFINAL	QUANT	1.00000E+000	Final Fre&q. (Hz)
PTSPERDEC	QUANT	1.00000E+001	Points/&decade
VAC	QUANT	2.50000E+001	AC &Voltage (mV rms)
AREA	QUANT	1.00000E-002	&Area (cm^2)
CONDIT	TWOPARAM	T	5.00000E+000	0.00000E+000	Conditionin&g	Time(s)	E(V)
DELAY	TWOPARAM	T	5.00000E+000	0.00000E+000	Init. De&lay	Time(s)	Stab.(mV/s)
SPEED	SELECTOR	0	&Optimize for:
ZGUESS	QUANT	1.00000E+005	E&stimated Z (ohms)
OCVCURVE	TABLE	19
	Pt	T	Vf	Vm	Ach	Over
	#	s	V vs. Ref.	V	V	bits
	0	0.258333	2.76893E-002	2.76893E-002	5.60366E-004	...........
	1	0.516667	2.77208E-002	2.93426E-002	5.55533E-004	...........
	2	0.775	2.79148E-002	3.09108E-002	5.63932E-004	...........
	3	1.03333	2.84633E-002	3.24005E-002	5.60399E-004	...........
	4	1.29167	2.94432E-002	3.38170E-002	5.58499E-004	...........
	5	1.55	3.07432E-002	3.51596E-002	5.58732E-004	...........
	6	1.80833	3.21796E-002	3.64627E-002	5.57132E-004	...........
	7	2.06667	3.36189E-002	3.77214E-002	5.54266E-004	...........
	8	2.325	3.50041E-002	3.89334E-002	5.60599E-004	...........
	9	2.58333	3.63258E-002	4.01029E-002	5.65032E-004	...........
	10	2.84167	3.75915E-002	4.12393E-002	5.67432E-004	...........
	11	3.1	3.88099E-002	4.23470E-002	5.61999E-004	...........
	12	3.35833	3.99873E-002	4.34157E-002	5.61899E-004	...........
	13	3.61667	4.11283E-002	4.44553E-002	5.58732E-004	...........
	14	3.875	4.22354E-002	4.54746E-002	5.67932E-004	...........
	15	4.13333	4.33108E-002	4.64610E-002	5.62366E-004	...........
	16	4.39167	4.43565E-002	4.74247E-002	5.62099E-004	...........
	17	4.65	4.53748E-002	4.83803E-002	5.64199E-004	...........
	18	4.90833	4.63679E-002	4.93011E-002	5.62666E-004	...........
EOC	QUANT	0.0463679	Open Circuit (V)
PSTATMODEL	IQUANT	4	Pstat Model
PSTATSECTION	LABEL	REF600-11020	Pstat Section
PSTATSERIALNO	LABEL	11020	Pstat Serial Number
CTRLMODE	IQUANT	1	Control Mode
IESTAB	IQUANT	0	I/E Stability
CASPEED	IQUANT	1	Control Amp Speed
CONVENTION	IQUANT	1	Current Convention
ICHRANGE	IQUANT	2	Ich Range
ICHRANGEMODE	TOGGLE	F	Ich Auto Range
ICHOFFSETENABLE	TOGGLE	T	Ich Offset Enable
ICHOFFSET	QUANT	0	Ich Offset (V)
ICHFILTER	IQUANT	3	Ich Filter
VCHRANGE	IQUANT	2	Vch Range
VCHRANGEMODE	TOGGLE	F	Vch Auto Range
VCHOFFSETENABLE	TOGGLE	T	Vch Offset Enable
VCHOFFSET	QUANT	0	Vch Offset (V)
VCHFILTER	IQUANT	3	Vch Filter
ACHRANGE	IQUANT	2	Ach Range
ACHOFFSETENABLE	TOGGLE	F	Ach Offset Enable
ACHOFFSET	QUANT	0	Ach Offset (V)
ACHFILTER	IQUANT	3	Ach Filter
IERANGELOWERLIMIT	IQUANT	1	I/E Range Lower Limit
IERANGEMODE	TOGGLE	F	I/E AutoRange
IERANGE	IQUANT	5	I/E Range
POSFEEDENABLE	TOGGLE	F	Positive Feedback IR Comp
POSFEEDRESISTANCE	QUANT	0	Positive Feedback Resistance (ohm)
ACHSELECT	IQUANT	0	Ach Select
CABLEID	IQUANT	14	Cable ID
DCCALDATE	LABEL	8/19/2019	DC Calibration Date
ACCALDATE	LABEL	8/19/2019	AC Calibration Date
THERMOSELECT	IQUANT	1	Thermo Select
FRAMEWORKVERSION	QUANT	6.33	Framework Version
INSTRUMENTVERSION	LABEL	3.50	Instrument Version
ZCURVE	TABLE
	Pt	Time	Freq	Zreal	Zimag	Zsig	Zmod	Zphz	Idc	Vdc	IERange
	#	s	Hz	ohm	ohm	V	ohm	°	A	V	#
	0	2	1000078	2348.987	-1878.974	1	3008.037	-38.6566	-8.03757E-006	0.0497319	8
	1	2	794390.6	2685.755	-1960.103	1	3324.948	-36.12251	7.098465E-007	0.0484447	8
	2	2	630984.4	3032.887	-2001.041	1	3633.534	-33.41607	7.297243E-007	0.0479749	8
	3	3	501234.4	3345.358	-1999.758	1	3897.493	-30.86977	-1.889879E-006	0.0482334	8
	4	3	398109.4	3681.786	-1996.19	1	4188.117	-28.46565	4.544845E-006	0.0470968	8
	5	3	316265.6	3977.023	-1998.024	1	4450.709	-26.67458	-1.974415E-006	0.0481107	8
	6	4	251203.1	4312.897	-1975.096	1	4743.636	-24.60546	3.849995E-006	0.0470922	8
	7	4	199546.9	4611.375	-1950.279	1	5006.833	-22.92486	4.905925E-006	0.0467287	8
	8	4	158578.1	4965.113	-1848.5	1	5298.047	-20.42018	6.884632E-007	0.047823	8
	9	5	125953.1	5295.617	-1705.127	1	5563.364	-17.84795	-1.170155E-006	0.0494129	7
	10	5	100078.1	5588.599	-1644.037	1	5825.401	-16.39267	1.078248E-007	0.047684	7
	11	5	79453.13	5819.5	-1569.903	1	6027.534	-15.09708	-3.480553E-008	0.0477625	7
	12	6	63140.62	6015.135	-1550.553	1	6211.768	-14.45475	1.556481E-007	0.047748	8
	13	6	50203.12	6238.323	-1414.146	1	6396.599	-12.77235	1.293068E-007	0.0475753	7
	14	6	39890.62	6408.682	-1351.022	1	6549.539	-11.90429	4.54507E-008	0.0477066	7
	15	7	31640.63	6559.186	-1310.517	1	6688.824	-11.29884	-5.017656E-008	0.0477714	7
	16	7	25171.88	6698.274	-1293.09	1	6821.947	-10.92644	-1.141566E-008	0.0478191	7
	17	7	20015.62	6821.768	-1312.75	1	6946.929	-10.89259	-9.062988E-008	0.0478753	7
	18	8	15890.62	6968.758	-1341.219	1	7096.651	-10.89404	3.59944E-008	0.0476208	7
	19	8	12609.37	7104.956	-1411.887	1	7243.882	-11.23932	1.092866E-007	0.047666	7
	20	8	10078.13	7254.741	-1494.757	1	7407.129	-11.64222	-1.885963E-008	0.0477208	7
	21	9	8015.625	7409.963	-1613.355	1	7583.566	-12.28318	-5.881569E-008	0.0478256	7
	22	9	6328.125	7570.122	-1799.949	1	7781.167	-13.37487	-1.914842E-008	0.0477533	7
	23	9	5015.625	7763.833	-2001.599	1	8017.7	-14.45666	-1.965583E-008	0.0477525	7
	24	10	3984.375	7998.854	-2225.253	1	8302.614	-15.54638	-2.100961E-008	0.0477214	7
	25	10	3170.956	8216.635	-2510.961	1	8591.741	-16.99288	-3.865905E-008	0.0477506	7
	26	10	2527.573	8478.391	-2838.594	1	8940.958	-18.51072	3.706315E-008	0.0476244	7
	27	11	1976.103	8807.193	-3212.027	1	9374.635	-20.03716	2.786696E-009	0.0474928	6
	28	11	1577.524	9124.02	-3616.285	1	9814.54	-21.62079	-7.085034E-009	0.0476939	6
	29	11	1265.625	9450.482	-4119.457	1	10309.29	-23.55235	1.572567E-008	0.0473925	6
	30	12	998.264	9822.16	-4726.41	1	10900.17	-25.6968	2.001E-009	0.0474864	6
	31	12	796.875	10188.25	-5417.582	1	11539.09	-28.00171	-1.246682E-008	0.0477559	6
	32	12	627.7902	10593.11	-6304.162	1	12327.06	-30.75768	-2.427693E-009	0.0478132	6
	33	13	505.5147	10973.51	-7299.88	1	13179.76	-33.63295	-1.161425E-008	0.0478147	6
	34	13	397.9953	11409.65	-8652.331	1	14319.32	-37.1743	-1.688113E-009	0.0477188	6
	35	13	315.5048	11860.46	-10301.14	1	15709.36	-40.97521	-2.637557E-009	0.0477172	6
	36	13	252.4038	12337.71	-12271.63	1	17401.49	-44.84615	-2.104833E-009	0.0477135	6
	37	14	198.6229	12917.39	-14910.92	1	19728.01	-49.0975	-2.215209E-009	0.0477124	6
	38	14	158.3615	13557	-18022.91	1	22552.55	-53.04917	-2.308444E-009	0.0477068	6
	39	14	125.558	14374.89	-21996.95	1	26277.43	-56.83561	-1.801179E-009	0.0477095	6
	40	15	100.4464	15303.4	-26673.83	1	30752.03	-60.15609	-2.825503E-009	0.0477054	6
	41	15	79.00281	16764.86	-32890.37	1	36916.62	-62.99118	-2.532534E-009	0.0477058	6
	42	15	63.3446	17905.44	-40558.57	1	44335.11	-66.17992	-1.395097E-009	0.0477066	6
	43	16	49.86702	20139.92	-49709.77	1	53634.67	-67.94466	-1.679041E-009	0.0477073	6
	44	16	39.72458	23427.66	-60464	1	64844.05	-68.82041	-1.647982E-009	0.0477089	6
	45	17	31.6723	27401.76	-73390.09	1	78338.77	-69.52581	-1.340537E-009	0.0477056	6
	46	17	24.93351	32319.99	-90428.88	1	96031.1	-70.33271	-2.59693E-009	0.0477041	6
	47	17	19.86229	39380.31	-109871.6	1	116715.8	-70.28124	-2.593825E-009	0.0477093	5
	48	17	15.83615	48463.71	-131186.7	1	139852.3	-69.72449	-3.676408E-009	0.0477108	5
	49	18	12.40079	61004.86	-160359.4	1	171571.3	-69.17189	-4.520569E-010	0.0477081	5
	50	18	9.93114	77044.68	-193577.8	1	208346.5	-68.29726	-2.178893E-009	0.0477089	5
	51	19	7.944915	98040.8	-228820.4	1	248939.3	-66.80671	-2.620424E-009	0.0477179	5
	52	19	6.317385	126043.8	-270162.8	1	298119.1	-64.98871	-2.964201E-009	0.0477303	5
	53	20	5.008013	160275.5	-313863.6	1	352418.3	-62.94872	-2.637199E-009	0.047718	5
	54	21	3.945707	205549.3	-363115.8	1	417257.2	-60.48706	-2.81268E-009	0.0477073	5
	55	23	3.158693	256790.1	-416452.6	1	489258.5	-58.34148	-8.0595E-010	0.0477082	5
	56	24	2.504006	313012.8	-463219.9	1	559061.4	-55.95183	-1.724573E-009	0.0477125	5
	57	25	1.998082	376649.7	-519345.2	1	641548.4	-54.0489	-1.568092E-009	0.0476714	5
	58	27	1.584686	466606.9	-597930.9	1	758448	-52.03262	-6.855475E-010	0.0477	5
	59	29	1.266892	516579.3	-627134.3	1	812497.2	-50.52124	-1.663495E-009	0.0477356	5
	60	31	0.999041	596149.8	-690293.2	1	912085.1	-49.18551	-1.365105E-009	0.0477493	5
