EXPLAIN
TAG	EISPOT
TITLE	LABEL	Potentiostatic IDE	Test &Identifier
DATE	LABEL	9/16/2019	Date
TIME	LABEL	7:40:48	Time
NOTES	NOTES	1	&Notes...
	
PSTAT	PSTAT	REF600-11020	Potentiostat
VDC	POTEN	0.00000E+000	T	DC &Voltage (V)
FREQINIT	QUANT	1.00000E+006	Initial Fre&q. (Hz)
FREQFINAL	QUANT	1.00000E+000	Final Fre&q. (Hz)
PTSPERDEC	QUANT	1.00000E+001	Points/&decade
VAC	QUANT	2.50000E+001	AC &Voltage (mV rms)
AREA	QUANT	1.00000E-002	&Area (cm^2)
CONDIT	TWOPARAM	T	5.00000E+000	0.00000E+000	Conditionin&g	Time(s)	E(V)
DELAY	TWOPARAM	T	5.00000E+000	0.00000E+000	Init. De&lay	Time(s)	Stab.(mV/s)
SPEED	SELECTOR	1	&Optimize for:
ZGUESS	QUANT	1.00000E+007	E&stimated Z (ohms)
OCVCURVE	TABLE	19
	Pt	T	Vf	Vm	Ach	Over
	#	s	V vs. Ref.	V	V	bits
	0	0.258333	1.14437E-002	1.14437E-002	5.62566E-004	...........
	1	0.516667	1.14538E-002	1.19756E-002	5.62499E-004	...........
	2	0.775	1.15163E-002	1.24835E-002	5.66966E-004	...........
	3	1.03333	1.16932E-002	1.29686E-002	5.65166E-004	...........
	4	1.29167	1.20100E-002	1.34319E-002	5.65532E-004	...........
	5	1.55	1.24314E-002	1.38752E-002	5.63166E-004	...........
	6	1.80833	1.28988E-002	1.43017E-002	5.70499E-004	...........
	7	2.06667	1.33689E-002	1.47068E-002	5.66999E-004	...........
	8	2.325	1.38218E-002	1.50963E-002	5.65032E-004	...........
	9	2.58333	1.42528E-002	1.54723E-002	5.63966E-004	...........
	10	2.84167	1.46632E-002	1.58291E-002	5.67199E-004	...........
	11	3.1	1.50554E-002	1.61807E-002	5.57966E-004	...........
	12	3.35833	1.54318E-002	1.65174E-002	5.61099E-004	...........
	13	3.61667	1.57944E-002	1.68424E-002	5.61366E-004	...........
	14	3.875	1.61443E-002	1.71526E-002	5.65132E-004	...........
	15	4.13333	1.64819E-002	1.74546E-002	5.63066E-004	...........
	16	4.39167	1.68073E-002	1.77425E-002	5.57266E-004	...........
	17	4.65	1.71206E-002	1.80198E-002	5.60266E-004	...........
	18	4.90833	1.74221E-002	1.82922E-002	5.61866E-004	...........
EOC	QUANT	0.0174221	Open Circuit (V)
PSTATMODEL	IQUANT	4	Pstat Model
PSTATSECTION	LABEL	REF600-11020	Pstat Section
PSTATSERIALNO	LABEL	11020	Pstat Serial Number
CTRLMODE	IQUANT	1	Control Mode
IESTAB	IQUANT	0	I/E Stability
CASPEED	IQUANT	1	Control Amp Speed
CONVENTION	IQUANT	1	Current Convention
ICHRANGE	IQUANT	2	Ich Range
ICHRANGEMODE	TOGGLE	F	Ich Auto Range
ICHOFFSETENABLE	TOGGLE	T	Ich Offset Enable
ICHOFFSET	QUANT	0	Ich Offset (V)
ICHFILTER	IQUANT	3	Ich Filter
VCHRANGE	IQUANT	2	Vch Range
VCHRANGEMODE	TOGGLE	F	Vch Auto Range
VCHOFFSETENABLE	TOGGLE	T	Vch Offset Enable
VCHOFFSET	QUANT	0	Vch Offset (V)
VCHFILTER	IQUANT	3	Vch Filter
ACHRANGE	IQUANT	2	Ach Range
ACHOFFSETENABLE	TOGGLE	F	Ach Offset Enable
ACHOFFSET	QUANT	0	Ach Offset (V)
ACHFILTER	IQUANT	3	Ach Filter
IERANGELOWERLIMIT	IQUANT	1	I/E Range Lower Limit
IERANGEMODE	TOGGLE	F	I/E AutoRange
IERANGE	IQUANT	3	I/E Range
POSFEEDENABLE	TOGGLE	F	Positive Feedback IR Comp
POSFEEDRESISTANCE	QUANT	0	Positive Feedback Resistance (ohm)
ACHSELECT	IQUANT	0	Ach Select
CABLEID	IQUANT	14	Cable ID
DCCALDATE	LABEL	8/19/2019	DC Calibration Date
ACCALDATE	LABEL	8/19/2019	AC Calibration Date
THERMOSELECT	IQUANT	1	Thermo Select
FRAMEWORKVERSION	QUANT	6.33	Framework Version
INSTRUMENTVERSION	LABEL	3.50	Instrument Version
ZCURVE	TABLE
	Pt	Time	Freq	Zreal	Zimag	Zsig	Zmod	Zphz	Idc	Vdc	IERange
	#	s	Hz	ohm	ohm	V	ohm	°	A	V	#
	0	1	1000078	1917.328	-644.3066	1	2022.69	-18.57462	7.632586E-007	0.0201334	8
	1	3	794390.6	2002.754	-553.8358	1	2077.921	-15.4581	3.810021E-006	0.0186731	8
	2	4	630984.4	2072.959	-481.7233	1	2128.196	-13.08245	-3.263099E-007	0.0191411	8
	3	6	501234.4	2127.525	-405.1135	1	2165.752	-10.78093	2.163287E-006	0.0188052	8
	4	7	398109.4	2154.584	-353.4208	1	2183.378	-9.315385	-8.787453E-007	0.0194125	8
	5	8	316265.6	2183.179	-304.5996	1	2204.326	-7.942698	-3.758908E-006	0.0199783	8
	6	10	251203.1	2223.302	-266.2652	1	2239.189	-6.829283	-4.735904E-006	0.0202624	8
	7	11	199546.9	2227.55	-245.466	1	2241.033	-6.288368	5.544834E-007	0.0189854	8
	8	12	158578.1	2248.745	-223.684	1	2259.843	-5.680559	-6.088414E-007	0.0194422	8
	9	14	125953.1	2278.502	-175.8683	1	2285.28	-4.413675	7.612933E-007	0.0175897	7
	10	15	100078.1	2295.936	-169.3502	1	2302.173	-4.218545	1.347454E-007	0.018909	7
	11	16	79453.13	2312.751	-171.9911	1	2319.137	-4.253056	-1.343486E-009	0.0191304	7
	12	18	63140.62	2330.629	-179.2791	1	2337.515	-4.398703	-2.374807E-009	0.0191236	7
	13	19	50203.12	2350.314	-188.8701	1	2357.891	-4.594387	1.35272E-007	0.0188979	7
	14	20	39890.62	2371.52	-200.2046	1	2379.956	-4.82549	-1.92646E-008	0.0191637	7
	15	22	31640.63	2393.375	-215.0231	1	2403.015	-5.133724	-3.87985E-008	0.0191349	7
	16	23	25171.88	2416.117	-233.4749	1	2427.371	-5.519485	-1.354661E-008	0.0190781	7
	17	24	20015.62	2438.763	-256.7684	1	2452.243	-6.010318	-2.507611E-009	0.0190536	7
	18	26	15890.62	2463.756	-285.4482	1	2480.236	-6.608765	-1.467329E-008	0.0190774	7
	19	27	12609.37	2488.476	-321.5715	1	2509.167	-7.363202	2.012988E-008	0.0190183	7
	20	28	10078.13	2514.409	-365.0812	1	2540.775	-8.261365	7.82769E-008	0.0189553	7
	21	30	8015.625	2542.378	-420.2881	1	2576.884	-9.386842	-6.654437E-008	0.0192108	7
	22	31	6328.125	2573.894	-489.6905	1	2620.063	-10.77194	-3.521697E-009	0.0190478	7
	23	32	5015.625	2607.424	-574.4549	1	2669.954	-12.42464	1.359145E-007	0.0188936	7
	24	34	3984.375	2644.319	-677.8728	1	2729.823	-14.37819	2.046607E-008	0.0190212	7
	25	35	3170.956	2684.231	-803.5084	1	2801.914	-16.66475	-2.554024E-008	0.0192464	7
	26	36	2527.573	2728.262	-955.805	1	2890.843	-19.30713	4.789325E-008	0.0189441	7
	27	38	1976.103	2781.383	-1160.912	1	3013.935	-22.655	-3.999372E-008	0.0191182	7
	28	39	1577.524	2834.413	-1393.434	1	3158.41	-26.17933	-1.97191E-008	0.0191532	7
	29	40	1265.625	2894.633	-1674.211	1	3343.932	-30.04442	-4.309883E-008	0.0191524	7
	30	42	998.264	2968.908	-2046.002	1	3605.626	-34.5724	-1.123675E-008	0.0190809	7
	31	43	796.875	3053.617	-2483.925	1	3936.3	-39.12618	-2.644345E-008	0.0190943	7
	32	44	627.7902	3159.817	-3057.76	1	4397.083	-44.05962	2.902055E-008	0.0190718	7
	33	46	505.5147	3278.447	-3703.101	1	4945.824	-48.48073	-4.563356E-008	0.0192229	7
	34	47	397.9953	3442.232	-4576.902	1	5726.866	-53.05362	7.217455E-009	0.0191172	7
	35	48	315.5048	3643.512	-5628.674	1	6705.009	-57.08451	7.956626E-009	0.019116	7
	36	50	252.4038	3890.121	-6866.968	1	7892.293	-60.46855	6.909287E-009	0.0191142	7
	37	51	198.6229	4233.65	-8503.136	1	9498.795	-63.53162	6.561383E-009	0.0191096	7
	38	52	158.3615	4657.912	-10401.43	1	11396.75	-65.87647	2.393975E-010	0.0190499	6
	39	54	125.558	5225.116	-12771.8	1	13799.3	-67.74987	9.146541E-010	0.0190492	6
	40	55	100.4464	5920.627	-15535.42	1	16625.38	-69.1379	6.924045E-010	0.0190515	6
	41	56	79.00281	6952.773	-19114.15	1	20339.41	-70.01114	5.931587E-010	0.019045	6
	42	58	63.3446	8065.639	-23304.08	1	24660.38	-70.90905	1.435288E-009	0.0190476	6
	43	59	49.86702	9746.55	-28438.57	1	30062.39	-71.08223	7.990072E-010	0.0190427	6
	44	60	39.72458	11982.8	-34251.21	1	36286.82	-70.71758	1.055485E-009	0.0190531	6
	45	62	31.6723	14605.06	-41341.02	1	43845.04	-70.54257	3.655291E-010	0.0190515	6
	46	63	24.93351	18317.48	-49962.19	1	53214.19	-69.86571	9.245701E-010	0.0190489	6
	47	64	19.86229	22770.32	-59711.22	1	63905.53	-69.12611	1.159994E-009	0.0190577	6
	48	66	15.83615	28339.87	-71072.08	1	76513.98	-68.26044	1.360075E-009	0.019057	6
	49	67	12.40079	35783.14	-85203.34	1	92412.34	-67.21889	1.427061E-009	0.019057	6
	50	69	9.93114	43947.86	-99556.6	1	108825.2	-66.1816	1.204819E-009	0.0190543	5
	51	70	7.944915	53741.38	-116871.4	1	128635.4	-65.30545	-2.816925E-011	0.019061	5
	52	72	6.317385	66203.29	-136456	1	151667.8	-64.11909	2.036954E-010	0.0190643	5
	53	74	5.008013	80998.09	-159615.3	1	178990.8	-63.0941	4.203804E-010	0.0190645	5
	54	76	3.945707	99306.5	-186888.8	1	211634.6	-62.0153	-4.952209E-010	0.0190486	5
	55	79	3.158693	119794.5	-215521.9	1	246577.4	-60.9332	1.588235E-010	0.0190607	5
	56	82	2.504006	144973	-249650.3	1	288690.8	-59.85608	-6.646435E-010	0.0190589	5
	57	85	1.998082	172934.4	-284874	1	333255.9	-58.73992	1.131502E-010	0.019013	5
	58	88	1.584686	206609.6	-328021	1	387666.5	-57.79453	-3.783064E-010	0.0190181	5
	59	92	1.266892	242938.5	-371620.1	1	443982.7	-56.82622	7.513096E-011	0.0190215	5
	60	96	0.999041	286812.5	-426718	1	514149.4	-56.09354	-5.376962E-010	0.019058	5
