EXPLAIN
TAG	EISPOT
TITLE	LABEL	Potentiostatic EIS	Test &Identifier
DATE	LABEL	10/24/2019	Date
TIME	LABEL	10:14:24	Time
NOTES	NOTES	1	&Notes...
	
PSTAT	PSTAT	REF600-11020	Potentiostat
VDC	POTEN	0.00000E+000	T	DC &Voltage (V)
FREQINIT	QUANT	1.00000E+006	Initial Fre&q. (Hz)
FREQFINAL	QUANT	1.00000E+000	Final Fre&q. (Hz)
PTSPERDEC	QUANT	1.00000E+001	Points/&decade
VAC	QUANT	2.50000E+001	AC &Voltage (mV rms)
AREA	QUANT	1.00000E-002	&Area (cm^2)
CONDIT	TWOPARAM	T	5.00000E+000	0.00000E+000	Conditionin&g	Time(s)	E(V)
DELAY	TWOPARAM	T	5.00000E+000	0.00000E+000	Init. De&lay	Time(s)	Stab.(mV/s)
SPEED	SELECTOR	1	&Optimize for:
ZGUESS	QUANT	1.00000E+005	E&stimated Z (ohms)
OCVCURVE	TABLE	19
	Pt	T	Vf	Vm	Ach	Over
	#	s	V vs. Ref.	V	V	bits
	0	0.258333	5.93700E-003	5.93700E-003	5.55666E-004	...........
	1	0.516667	5.94198E-003	6.19728E-003	5.58466E-004	...........
	2	0.775	5.95822E-003	5.69581E-003	5.56266E-004	...........
	3	1.03333	5.96414E-003	5.60639E-003	5.58533E-004	...........
	4	1.29167	5.91560E-003	5.53070E-003	5.56333E-004	...........
	5	1.55	5.80602E-003	5.46784E-003	5.51099E-004	...........
	6	1.80833	5.67689E-003	5.41589E-003	5.52066E-004	...........
	7	2.06667	5.56633E-003	5.37547E-003	5.53699E-004	...........
	8	2.325	5.48450E-003	5.33774E-003	5.49433E-004	...........
	9	2.58333	5.42517E-003	5.29546E-003	5.49433E-004	...........
	10	2.84167	5.37905E-003	5.27233E-003	5.54699E-004	...........
	11	3.1	5.34015E-003	5.25486E-003	5.54699E-004	...........
	12	3.35833	5.30632E-003	5.20637E-003	5.56333E-004	...........
	13	3.61667	5.27702E-003	5.24748E-003	5.51666E-004	...........
	14	3.875	5.25428E-003	5.25589E-003	5.51199E-004	...........
	15	4.13333	5.22921E-003	4.56166E-003	5.52066E-004	...........
	16	4.39167	5.16518E-003	4.83987E-003	5.47233E-004	...........
	17	4.65	5.04665E-003	4.93070E-003	5.52966E-004	...........
	18	4.90833	4.93285E-003	5.12440E-003	5.59032E-004	...........
EOC	QUANT	0.0049329	Open Circuit (V)
PSTATMODEL	IQUANT	4	Pstat Model
PSTATSECTION	LABEL	REF600-11020	Pstat Section
PSTATSERIALNO	LABEL	11020	Pstat Serial Number
CTRLMODE	IQUANT	1	Control Mode
IESTAB	IQUANT	0	I/E Stability
CASPEED	IQUANT	1	Control Amp Speed
CONVENTION	IQUANT	1	Current Convention
ICHRANGE	IQUANT	2	Ich Range
ICHRANGEMODE	TOGGLE	F	Ich Auto Range
ICHOFFSETENABLE	TOGGLE	T	Ich Offset Enable
ICHOFFSET	QUANT	0	Ich Offset (V)
ICHFILTER	IQUANT	3	Ich Filter
VCHRANGE	IQUANT	2	Vch Range
VCHRANGEMODE	TOGGLE	F	Vch Auto Range
VCHOFFSETENABLE	TOGGLE	T	Vch Offset Enable
VCHOFFSET	QUANT	0	Vch Offset (V)
VCHFILTER	IQUANT	3	Vch Filter
ACHRANGE	IQUANT	2	Ach Range
ACHOFFSETENABLE	TOGGLE	F	Ach Offset Enable
ACHOFFSET	QUANT	0	Ach Offset (V)
ACHFILTER	IQUANT	3	Ach Filter
IERANGELOWERLIMIT	IQUANT	1	I/E Range Lower Limit
IERANGEMODE	TOGGLE	F	I/E AutoRange
IERANGE	IQUANT	4	I/E Range
POSFEEDENABLE	TOGGLE	F	Positive Feedback IR Comp
POSFEEDRESISTANCE	QUANT	0	Positive Feedback Resistance (ohm)
ACHSELECT	IQUANT	0	Ach Select
CABLEID	IQUANT	14	Cable ID
DCCALDATE	LABEL	8/19/2019	DC Calibration Date
ACCALDATE	LABEL	8/19/2019	AC Calibration Date
THERMOSELECT	IQUANT	1	Thermo Select
FRAMEWORKVERSION	QUANT	6.33	Framework Version
INSTRUMENTVERSION	LABEL	3.50	Instrument Version
ZCURVE	TABLE
	Pt	Time	Freq	Zreal	Zimag	Zsig	Zmod	Zphz	Idc	Vdc	IERange
	#	s	Hz	ohm	ohm	V	ohm	°	A	V	#
	0	2	1000078	2562.93	-1729.018	1	3091.62	-34.00461	-2.316252E-006	0.0078538	8
	1	3	794390.6	2889.837	-1634.265	1	3319.936	-29.48909	2.667264E-006	0.0066461	8
	2	4	630984.4	3194.041	-1487.662	1	3523.498	-24.9743	2.18939E-008	0.0068105	8
	3	6	501234.4	3418.325	-1316.105	1	3662.933	-21.05743	-1.785007E-006	0.0070549	8
	4	7	398109.4	3612.544	-1147.111	1	3790.295	-17.61649	1.642536E-006	0.0063547	8
	5	8	316265.6	3754.633	-978.192	1	3879.965	-14.60262	-3.298442E-007	0.0064509	8
	6	10	251203.1	3849.92	-838.1765	1	3940.104	-12.28236	-8.04307E-007	0.0068879	8
	7	11	199546.9	3942.116	-731.0753	1	4009.333	-10.50629	3.079884E-006	0.0060598	8
	8	12	158578.1	3990.112	-616.7515	1	4037.496	-8.78667	-1.095553E-006	0.0068073	8
	9	14	125953.1	4056.672	-500.9182	1	4087.482	-7.039256	4.11459E-007	0.0055251	7
	10	15	100078.1	4091.207	-446.116	1	4115.458	-6.223096	-4.214249E-008	0.0065839	7
	11	16	79453.13	4124.804	-410.4532	1	4145.175	-5.682712	-3.070188E-008	0.0065247	7
	12	18	63140.62	4154.742	-387.5293	1	4172.776	-5.328786	-3.537125E-008	0.0066059	7
	13	19	50203.12	4183.461	-373.6234	1	4200.112	-5.103525	-5.959487E-008	0.0067075	7
	14	21	39890.62	4212.567	-370.1301	1	4228.796	-5.021302	-4.144082E-008	0.0065704	7
	15	22	31640.63	4243.03	-375.3457	1	4259.599	-5.055323	-6.965811E-009	0.0064903	7
	16	23	25171.88	4272.733	-393.5646	1	4290.82	-5.262707	1.135389E-008	0.006454	7
	17	25	20015.62	4311.686	-409.9663	1	4331.132	-5.431503	-5.955892E-008	0.0065947	7
	18	26	15890.62	4338.175	-457.1013	1	4362.19	-6.014901	-5.105619E-008	0.0066141	7
	19	27	12609.37	4375.047	-508.5585	1	4404.506	-6.630345	-2.886256E-008	0.0065212	7
	20	29	10078.13	4410.961	-569.3172	1	4447.55	-7.354435	-9.834931E-009	0.0064865	7
	21	30	8015.625	4470.587	-659.7291	1	4519.004	-8.394608	-5.072019E-008	0.0066142	7
	22	32	6328.125	4497.54	-752.7141	1	4560.092	-9.50104	-3.55753E-009	0.0065525	7
	23	33	5015.625	4547.322	-878.8174	1	4631.464	-10.93816	1.079753E-008	0.0065921	7
	24	34	3984.375	4604.161	-1053.147	1	4723.073	-12.88408	-4.681108E-009	0.0065563	7
	25	36	3170.956	4661.353	-1223.472	1	4819.242	-14.70677	-5.844782E-008	0.0067025	7
	26	37	2527.573	4728.558	-1454.155	1	4947.103	-17.09403	-5.258764E-008	0.0066105	7
	27	38	1976.103	4817.654	-1764.708	1	5130.69	-20.1178	-7.461184E-009	0.0064834	7
	28	40	1577.524	4854.357	-2112.121	1	5293.943	-23.51377	-3.920094E-009	0.0064975	7
	29	41	1265.625	5013.69	-2525.882	1	5614.016	-26.73883	1.266031E-008	0.0064516	7
	30	42	998.264	5146.992	-3073.455	1	5994.802	-30.84295	-3.949256E-009	0.0064948	7
	31	44	796.875	5295.803	-3708.626	1	6465.248	-35.00338	-5.209508E-008	0.0066102	7
	32	45	627.7902	5485.486	-4528.869	1	7113.453	-39.5434	-5.253381E-008	0.0066058	7
	33	47	505.5147	5688.197	-5436.968	1	7868.686	-43.70636	-4.06326E-008	0.0065642	7
	34	48	397.9953	5956.866	-6670.02	1	8942.786	-48.23257	4.98578E-009	0.0065397	7
	35	49	315.5048	6276.782	-8145.763	1	10283.55	-52.38367	1.107078E-009	0.0064723	6
	36	51	252.4038	6649.509	-9885.35	1	11913.69	-56.07273	7.988282E-010	0.0064705	6
	37	52	198.6229	7154.338	-12183.46	1	14128.74	-59.5778	1.036786E-009	0.0064743	6
	38	53	158.3615	7757.709	-14858.48	1	16761.75	-62.43064	6.153811E-010	0.0064751	6
	39	55	125.558	8568.694	-18210.94	1	20126.12	-64.80186	7.665316E-010	0.0064801	6
	40	56	100.4464	9561.49	-22115.89	1	24094.29	-66.61945	2.074878E-010	0.0064754	6
	41	57	79.00281	10981.88	-27240.47	1	29370.82	-68.04338	1.845099E-009	0.0064734	6
	42	59	63.3446	12506.13	-33179.5	1	35458.18	-69.3474	7.798643E-010	0.0064763	6
	43	60	49.86702	15386.39	-40153.09	1	43000.13	-69.0335	1.248285E-009	0.0064688	6
	44	62	39.72458	18490.47	-48842.88	1	52225.71	-69.26481	9.013653E-010	0.0064743	6
	45	63	31.6723	22561.89	-58407.37	1	62613.57	-68.8792	1.79696E-009	0.0064712	6
	46	64	24.93351	28080.77	-70693.39	1	76066.32	-68.33607	1.128671E-009	0.0064779	6
	47	66	19.86229	34880.36	-84088.45	1	91035.74	-67.47105	2.207487E-009	0.0064773	6
	48	67	15.83615	42811.91	-98387.3	1	107298.3	-66.48438	1.560745E-009	0.0064756	5
	49	68	12.40079	53945.62	-118617.7	1	130308.4	-65.54464	-4.843214E-010	0.006475	5
	50	70	9.93114	65232.14	-136972.7	1	151712.7	-64.53425	-4.529835E-011	0.0064794	5
	51	71	7.944915	79467.08	-159528.4	1	178225.5	-63.52038	3.06808E-010	0.0064826	5
	52	73	6.317385	94997.4	-185230	1	208169.7	-62.84844	4.703276E-012	0.006493	5
	53	75	5.008013	113730.1	-215216.1	1	243418.4	-62.14597	4.847021E-010	0.0064833	5
	54	77	3.945707	136259.3	-251505.2	1	286044.6	-61.55226	-8.39352E-011	0.0064716	5
	55	80	3.158693	160265.8	-290300.8	1	331601.7	-61.0983	4.636787E-010	0.0064904	5
	56	83	2.504006	189166.1	-337640.4	1	387020.5	-60.73988	-1.398171E-010	0.006468	5
	57	86	1.998082	221212.1	-390309.7	1	448638.4	-60.45715	1.204111E-010	0.0064545	5
	58	89	1.584686	259825.4	-453226.6	1	522420.9	-60.17525	1.873121E-010	0.0065223	5
	59	93	1.266892	301566.5	-524380.6	1	604911.1	-60.09719	-3.977714E-011	0.0064781	5
	60	97	0.999041	354053.4	-613031.6	1	707927.7	-59.99163	2.724018E-010	0.0064821	5
