EXPLAIN
TAG	EISPOT
TITLE	LABEL	Potentiostatic EIS	Test &Identifier
DATE	LABEL	10/18/2019	Date
TIME	LABEL	10:21:22	Time
NOTES	NOTES	1	&Notes...
	
PSTAT	PSTAT	REF600-11020	Potentiostat
VDC	POTEN	0.00000E+000	T	DC &Voltage (V)
FREQINIT	QUANT	1.00000E+006	Initial Fre&q. (Hz)
FREQFINAL	QUANT	1.00000E+000	Final Fre&q. (Hz)
PTSPERDEC	QUANT	1.00000E+001	Points/&decade
VAC	QUANT	2.50000E+001	AC &Voltage (mV rms)
AREA	QUANT	1.00000E-002	&Area (cm^2)
CONDIT	TWOPARAM	T	5.00000E+000	0.00000E+000	Conditionin&g	Time(s)	E(V)
DELAY	TWOPARAM	T	5.00000E+000	0.00000E+000	Init. De&lay	Time(s)	Stab.(mV/s)
SPEED	SELECTOR	0	&Optimize for:
ZGUESS	QUANT	1.00000E+005	E&stimated Z (ohms)
OCVCURVE	TABLE	19
	Pt	T	Vf	Vm	Ach	Over
	#	s	V vs. Ref.	V	V	bits
	0	0.258333	5.90093E-003	5.90093E-003	5.12367E-004	...........
	1	0.516667	5.89880E-003	5.78911E-003	5.07933E-004	...........
	2	0.775	5.88196E-003	5.48824E-003	5.10233E-004	...........
	3	1.03333	5.81946E-003	5.06942E-003	5.11967E-004	...........
	4	1.29167	5.67224E-003	4.63602E-003	5.15033E-004	...........
	5	1.55	5.41775E-003	4.08278E-003	5.13033E-004	...........
	6	1.80833	5.05828E-003	3.46580E-003	5.17666E-004	...........
	7	2.06667	4.51212E-003	-2.15460E-003	5.13000E-004	...........
	8	2.325	3.34005E-003	-1.06881E-002	5.17033E-004	...........
	9	2.58333	7.50248E-004	-1.78461E-002	5.12400E-004	...........
	10	2.84167	-3.80445E-003	-2.71037E-002	5.11133E-004	...........
	11	3.1	-9.93844E-003	-2.24801E-002	5.13767E-004	...........
	12	3.35833	-1.59826E-002	-1.48696E-002	5.15166E-004	...........
	13	3.61667	-1.96118E-002	-1.20811E-002	5.09467E-004	...........
	14	3.875	-1.96748E-002	-9.95617E-003	5.10900E-004	...........
	15	4.13333	-1.71222E-002	-7.80295E-003	5.10133E-004	...........
	16	4.39167	-1.37876E-002	-8.13673E-003	5.07467E-004	...........
	17	4.65	-1.09535E-002	-7.09421E-003	5.12833E-004	...........
	18	4.90833	-9.03951E-003	-6.43087E-003	5.11433E-004	...........
EOC	QUANT	-0.0090395	Open Circuit (V)
PSTATMODEL	IQUANT	4	Pstat Model
PSTATSECTION	LABEL	REF600-11020	Pstat Section
PSTATSERIALNO	LABEL	11020	Pstat Serial Number
CTRLMODE	IQUANT	1	Control Mode
IESTAB	IQUANT	0	I/E Stability
CASPEED	IQUANT	1	Control Amp Speed
CONVENTION	IQUANT	1	Current Convention
ICHRANGE	IQUANT	2	Ich Range
ICHRANGEMODE	TOGGLE	F	Ich Auto Range
ICHOFFSETENABLE	TOGGLE	T	Ich Offset Enable
ICHOFFSET	QUANT	0	Ich Offset (V)
ICHFILTER	IQUANT	3	Ich Filter
VCHRANGE	IQUANT	2	Vch Range
VCHRANGEMODE	TOGGLE	F	Vch Auto Range
VCHOFFSETENABLE	TOGGLE	T	Vch Offset Enable
VCHOFFSET	QUANT	0	Vch Offset (V)
VCHFILTER	IQUANT	3	Vch Filter
ACHRANGE	IQUANT	2	Ach Range
ACHOFFSETENABLE	TOGGLE	F	Ach Offset Enable
ACHOFFSET	QUANT	0	Ach Offset (V)
ACHFILTER	IQUANT	3	Ach Filter
IERANGELOWERLIMIT	IQUANT	1	I/E Range Lower Limit
IERANGEMODE	TOGGLE	F	I/E AutoRange
IERANGE	IQUANT	5	I/E Range
POSFEEDENABLE	TOGGLE	F	Positive Feedback IR Comp
POSFEEDRESISTANCE	QUANT	0	Positive Feedback Resistance (ohm)
ACHSELECT	IQUANT	0	Ach Select
CABLEID	IQUANT	14	Cable ID
DCCALDATE	LABEL	8/19/2019	DC Calibration Date
ACCALDATE	LABEL	8/19/2019	AC Calibration Date
THERMOSELECT	IQUANT	1	Thermo Select
FRAMEWORKVERSION	QUANT	6.33	Framework Version
INSTRUMENTVERSION	LABEL	3.50	Instrument Version
ZCURVE	TABLE
	Pt	Time	Freq	Zreal	Zimag	Zsig	Zmod	Zphz	Idc	Vdc	IERange
	#	s	Hz	ohm	ohm	V	ohm	°	A	V	#
	0	1	1000078	2680.742	-1765.704	1	3209.998	-33.37139	1.918073E-006	-0.0070313	8
	1	1	794390.6	3013.053	-1706.149	1	3462.576	-29.52082	-8.67385E-007	-0.0068671	8
	2	2	630984.4	3326.541	-1592.145	1	3687.926	-25.57665	2.562463E-008	-0.0070661	8
	3	2	501234.4	3577.441	-1440.996	1	3856.754	-21.93961	-3.585291E-006	-0.0067623	8
	4	2	398109.4	3813.772	-1242.616	1	4011.103	-18.04682	2.045885E-006	-0.007561	8
	5	3	316265.6	3982.177	-1113.094	1	4134.817	-15.61669	-2.905952E-007	-0.0072891	8
	6	3	251203.1	4097.214	-974.482	1	4211.505	-13.37867	2.753741E-006	-0.0079961	8
	7	3	199546.9	4232.245	-828.3276	1	4312.543	-11.07385	-2.662126E-007	-0.0072955	8
	8	4	158578.1	4304.36	-747.7155	1	4368.82	-9.85458	-3.008121E-006	-0.0068074	8
	9	4	125953.1	4404.588	-577.5063	1	4442.287	-7.46971	-7.645337E-007	-0.0055379	7
	10	4	100078.1	4428.617	-518.8725	1	4458.91	-6.682511	7.951944E-008	-0.0076247	7
	11	4	79453.13	4473.205	-478.4826	1	4498.723	-6.105507	-6.565755E-009	-0.0074273	7
	12	5	63140.62	4512.049	-448.9525	1	4534.33	-5.682273	-1.627646E-008	-0.0074997	7
	13	5	50203.12	4547.247	-431.2577	1	4567.651	-5.417687	4.187364E-008	-0.00751	7
	14	5	39890.62	4584.778	-425.7	1	4604.499	-5.304746	-6.399856E-008	-0.007281	7
	15	6	31640.63	4625.022	-430.6937	1	4645.032	-5.320185	4.247841E-008	-0.0075151	7
	16	6	25171.88	4664.75	-443.2057	1	4685.758	-5.427475	-8.454825E-008	-0.0073222	7
	17	6	20015.62	4705.834	-460.1267	1	4728.275	-5.584511	-5.074363E-008	-0.0073622	7
	18	7	15890.62	4755.561	-492.3129	1	4780.976	-5.910413	3.701675E-008	-0.0076047	7
	19	7	12609.37	4804.11	-534.0076	1	4833.698	-6.342755	-5.401909E-008	-0.0072969	7
	20	7	10078.13	4854.362	-584.5726	1	4889.433	-6.866615	-1.178052E-008	-0.0074432	7
	21	8	8015.625	4915.512	-657.1945	1	4959.25	-7.615176	-4.144705E-008	-0.0074424	7
	22	8	6328.125	4962.492	-723.3438	1	5014.933	-8.293155	4.000778E-008	-0.0076035	7
	23	8	5015.625	5019.131	-820.116	1	5085.693	-9.280006	-2.538646E-009	-0.0074563	7
	24	9	3984.375	5063.764	-940.9191	1	5150.44	-10.52632	8.77971E-008	-0.0075276	7
	25	9	3170.956	5134.51	-1085.9	1	5248.083	-11.94155	8.287831E-009	-0.0075417	7
	26	9	2527.573	5194.377	-1267.476	1	5346.78	-13.71274	-2.056766E-008	-0.0074915	7
	27	10	1976.103	5273.365	-1519.557	1	5487.935	-16.07471	-3.636044E-008	-0.007436	7
	28	10	1577.524	5353.956	-1813.039	1	5652.606	-18.70792	3.671046E-008	-0.0076034	7
	29	10	1265.625	5432.942	-2150.893	1	5843.218	-21.59853	-1.479187E-008	-0.0075078	7
	30	10	998.264	5539.241	-2606.865	1	6122.004	-25.2025	1.371447E-007	-0.007679	7
	31	11	796.875	5655.452	-3143.031	1	6470.146	-29.06322	3.116875E-008	-0.0075967	7
	32	11	627.7902	5807.395	-3851.739	1	6968.625	-33.55421	8.158113E-008	-0.0076471	7
	33	11	505.5147	5972.987	-4647.623	1	7568.155	-37.88673	-3.458021E-008	-0.0074396	7
	34	12	397.9953	6205.36	-5709.179	1	8432.154	-42.61529	8.671577E-010	-0.0074499	7
	35	12	315.5048	6489.679	-6989.185	1	9537.54	-47.12232	3.062372E-009	-0.0074494	7
	36	12	252.4038	6838.118	-8488.168	1	10899.95	-51.14488	1.587974E-009	-0.0075179	6
	37	13	198.6229	7318.723	-10455.42	1	12762.42	-55.00824	6.349367E-010	-0.0075141	6
	38	13	158.3615	7907.621	-12726.39	1	14983.04	-58.14499	-7.198327E-010	-0.0075181	6
	39	13	125.558	8678.57	-15537.44	1	17796.9	-60.81409	-1.283676E-010	-0.0075177	6
	40	14	100.4464	9672.55	-18795.87	1	21138.66	-62.76918	4.970487E-010	-0.007519	6
	41	14	79.00281	10973.14	-23044.46	1	25523.65	-64.5375	1.888091E-009	-0.0075216	6
	42	14	63.3446	12246.59	-27297.75	1	29919	-65.83756	-6.703215E-010	-0.0075184	6
	43	15	49.86702	14437.99	-33281.86	1	36278.61	-66.54834	-9.473046E-010	-0.0075248	6
	44	15	39.72458	17004.53	-40317.61	1	43756.87	-67.13172	-1.94868E-010	-0.0075178	6
	45	15	31.6723	19984.66	-48272.54	1	52245.81	-67.51062	8.086632E-010	-0.0075177	6
	46	16	24.93351	24233.51	-58581.61	1	63396.12	-67.52654	4.335706E-010	-0.0075046	6
	47	16	19.86229	29288.22	-70042.76	1	75919.62	-67.30786	-4.459369E-010	-0.007511	6
	48	16	15.83615	35769.52	-82133.48	1	89584.42	-66.46664	2.628946E-009	-0.0075205	6
	49	17	12.40079	43097.66	-100199.4	1	109074.9	-66.72655	-1.760876E-009	-0.0075187	5
	50	17	9.93114	53696.41	-117602.4	1	129281.2	-65.45889	-1.0784E-009	-0.0075103	5
	51	18	7.944915	65820.6	-137503.5	1	152445.3	-64.42036	6.223837E-011	-0.0075214	5
	52	18	6.317385	80476.13	-161254.9	1	180220.8	-63.47797	2.661755E-010	-0.0075221	5
	53	19	5.008013	98465.3	-187854.7	1	212096.2	-62.33842	-2.117533E-010	-0.0075238	5
	54	20	3.945707	120114.4	-217661.3	1	248604	-61.10829	8.944651E-012	-0.0075145	5
	55	21	3.158693	143287.7	-249962.6	1	288119.2	-60.1771	-2.375951E-010	-0.0075098	5
	56	23	2.504006	169761.8	-287370.2	1	333767.4	-59.42785	-1.93859E-010	-0.0075104	5
	57	24	1.998082	198188.9	-328363.8	1	383538.3	-58.8863	1.085989E-010	-0.0074785	5
	58	26	1.584686	228431	-378236.4	1	441863.7	-58.87067	1.837756E-010	-0.0074982	5
	59	28	1.266892	262400.2	-433184.7	1	506461.1	-58.79475	-1.627439E-011	-0.0075405	5
	60	30	0.999041	303304.9	-504746.7	1	588865.9	-58.99812	-1.273762E-010	-0.0075597	5
