EXPLAIN
TAG	EISPOT
TITLE	LABEL	Potentiostatic EIS	Test &Identifier
DATE	LABEL	10/16/2019	Date
TIME	LABEL	10:11:32	Time
NOTES	NOTES	1	&Notes...
	
PSTAT	PSTAT	REF600-11020	Potentiostat
VDC	POTEN	0.00000E+000	T	DC &Voltage (V)
FREQINIT	QUANT	1.00000E+006	Initial Fre&q. (Hz)
FREQFINAL	QUANT	1.00000E+000	Final Fre&q. (Hz)
PTSPERDEC	QUANT	1.00000E+001	Points/&decade
VAC	QUANT	2.50000E+001	AC &Voltage (mV rms)
AREA	QUANT	1.00000E-002	&Area (cm^2)
CONDIT	TWOPARAM	T	5.00000E+000	0.00000E+000	Conditionin&g	Time(s)	E(V)
DELAY	TWOPARAM	T	5.00000E+000	0.00000E+000	Init. De&lay	Time(s)	Stab.(mV/s)
SPEED	SELECTOR	0	&Optimize for:
ZGUESS	QUANT	1.00000E+005	E&stimated Z (ohms)
OCVCURVE	TABLE	19
	Pt	T	Vf	Vm	Ach	Over
	#	s	V vs. Ref.	V	V	bits
	0	0.258333	-5.22626E-003	-5.22626E-003	5.46066E-004	...........
	1	0.516667	-5.16485E-003	-2.01187E-003	5.45899E-004	...........
	2	0.775	-4.92709E-003	-6.25754E-003	5.44966E-004	...........
	3	1.03333	-4.55081E-003	-1.60626E-003	5.47966E-004	...........
	4	1.29167	-4.05681E-003	2.33968E-003	5.48466E-004	...........
	5	1.55	-3.08250E-003	3.31547E-003	5.43266E-004	...........
	6	1.80833	-1.28267E-003	8.44640E-003	5.43233E-004	...........
	7	2.06667	1.14909E-003	5.75006E-003	5.51033E-004	...........
	8	2.325	3.72457E-003	1.40151E-002	5.46866E-004	...........
	9	2.58333	6.20738E-003	1.24295E-002	5.48233E-004	...........
	10	2.84167	8.55696E-003	1.04398E-002	5.47333E-004	...........
	11	3.1	1.03760E-002	9.92531E-003	5.55233E-004	...........
	12	3.35833	1.11531E-002	9.42134E-003	5.49233E-004	...........
	13	3.61667	1.09623E-002	8.85278E-003	5.43833E-004	...........
	14	3.875	1.02972E-002	7.69326E-003	5.48666E-004	...........
	15	4.13333	9.51267E-003	7.07681E-003	5.49199E-004	...........
	16	4.39167	8.71777E-003	6.56320E-003	5.42066E-004	...........
	17	4.65	7.95594E-003	6.38354E-003	5.39999E-004	...........
	18	4.90833	7.29619E-003	6.15662E-003	5.43866E-004	...........
EOC	QUANT	0.0072962	Open Circuit (V)
PSTATMODEL	IQUANT	4	Pstat Model
PSTATSECTION	LABEL	REF600-11020	Pstat Section
PSTATSERIALNO	LABEL	11020	Pstat Serial Number
CTRLMODE	IQUANT	1	Control Mode
IESTAB	IQUANT	0	I/E Stability
CASPEED	IQUANT	1	Control Amp Speed
CONVENTION	IQUANT	1	Current Convention
ICHRANGE	IQUANT	2	Ich Range
ICHRANGEMODE	TOGGLE	F	Ich Auto Range
ICHOFFSETENABLE	TOGGLE	T	Ich Offset Enable
ICHOFFSET	QUANT	0	Ich Offset (V)
ICHFILTER	IQUANT	3	Ich Filter
VCHRANGE	IQUANT	2	Vch Range
VCHRANGEMODE	TOGGLE	F	Vch Auto Range
VCHOFFSETENABLE	TOGGLE	T	Vch Offset Enable
VCHOFFSET	QUANT	0	Vch Offset (V)
VCHFILTER	IQUANT	3	Vch Filter
ACHRANGE	IQUANT	2	Ach Range
ACHOFFSETENABLE	TOGGLE	F	Ach Offset Enable
ACHOFFSET	QUANT	0	Ach Offset (V)
ACHFILTER	IQUANT	3	Ach Filter
IERANGELOWERLIMIT	IQUANT	1	I/E Range Lower Limit
IERANGEMODE	TOGGLE	F	I/E AutoRange
IERANGE	IQUANT	5	I/E Range
POSFEEDENABLE	TOGGLE	F	Positive Feedback IR Comp
POSFEEDRESISTANCE	QUANT	0	Positive Feedback Resistance (ohm)
ACHSELECT	IQUANT	0	Ach Select
CABLEID	IQUANT	14	Cable ID
DCCALDATE	LABEL	8/19/2019	DC Calibration Date
ACCALDATE	LABEL	8/19/2019	AC Calibration Date
THERMOSELECT	IQUANT	1	Thermo Select
FRAMEWORKVERSION	QUANT	6.33	Framework Version
INSTRUMENTVERSION	LABEL	3.50	Instrument Version
ZCURVE	TABLE
	Pt	Time	Freq	Zreal	Zimag	Zsig	Zmod	Zphz	Idc	Vdc	IERange
	#	s	Hz	ohm	ohm	V	ohm	°	A	V	#
	0	1	1000078	2034.065	-915.1396	1	2230.448	-24.2233	1.283081E-006	0.0095456	8
	1	2	794390.6	2176.166	-838.6766	1	2332.183	-21.07626	2.945968E-007	0.0089962	8
	2	2	630984.4	2302.277	-763.8565	1	2425.687	-18.35497	5.927453E-007	0.0088684	8
	3	2	501234.4	2405.385	-688.9161	1	2502.095	-15.98202	2.670096E-007	0.0089578	8
	4	2	398109.4	2481.207	-621.0507	1	2557.752	-14.05252	3.408951E-006	0.0081668	8
	5	3	316265.6	2552.845	-567.6473	1	2615.195	-12.53626	-4.315181E-007	0.0088572	8
	6	3	251203.1	2610.939	-520.8237	1	2662.378	-11.28115	1.642485E-006	0.0084959	8
	7	3	199546.9	2666.053	-487.5157	1	2710.26	-10.36264	5.663413E-007	0.0088557	8
	8	4	158578.1	2712.404	-466.0111	1	2752.145	-9.74866	-4.470542E-007	0.0088894	8
	9	4	125953.1	2770.201	-412.5983	1	2800.759	-8.471453	-8.335635E-007	0.0100842	7
	10	4	100078.1	2814.552	-416.4375	1	2845.192	-8.416349	-2.399623E-008	0.0088219	7
	11	5	79453.13	2859.432	-431.3565	1	2891.785	-8.578609	-1.060228E-008	0.0088015	7
	12	5	63140.62	2907.781	-453.3312	1	2942.907	-8.861238	9.238365E-008	0.0086816	7
	13	5	50203.12	2960.083	-479.3971	1	2998.651	-9.199404	4.697125E-008	0.0087433	7
	14	6	39890.62	3017.032	-511.2812	1	3060.048	-9.61825	-1.075227E-008	0.008801	7
	15	6	31640.63	3078.942	-549.6825	1	3127.624	-10.12235	9.282124E-008	0.0086838	7
	16	6	25171.88	3143.878	-593.5497	1	3199.417	-10.69134	-5.422536E-008	0.0088897	7
	17	7	20015.62	3227.029	-640.477	1	3289.974	-11.22576	2.004167E-009	0.0088122	7
	18	7	15890.62	3287.824	-703.9485	1	3362.34	-12.08501	-4.723222E-008	0.0088803	7
	19	7	12609.37	3367.112	-773.7792	1	3454.878	-12.94215	-4.602578E-008	0.0088729	7
	20	8	10078.13	3447.41	-853.7804	1	3551.56	-13.90991	-3.064088E-008	0.0088822	7
	21	8	8015.625	3538.053	-945.3337	1	3662.168	-14.95943	5.711323E-008	0.0086891	7
	22	8	6328.125	3635.142	-1065.746	1	3788.149	-16.34001	5.442129E-009	0.0088868	7
	23	8	5015.625	3740.737	-1202.374	1	3929.226	-17.81882	-5.542396E-008	0.0088827	7
	24	9	3984.375	3848.453	-1347.525	1	4077.55	-19.29756	-1.094291E-008	0.0088047	7
	25	9	3170.956	3963.548	-1549.862	1	4255.794	-21.35694	-1.450904E-008	0.0088413	7
	26	9	2527.573	4079.674	-1775.129	1	4449.137	-23.5146	9.402061E-009	0.0087532	7
	27	10	1976.103	4206.456	-2076.797	1	4691.2	-26.27631	-4.588674E-008	0.0088651	7
	28	10	1577.524	4310.159	-2350.149	1	4909.243	-28.60179	-8.145646E-009	0.0087826	7
	29	10	1265.625	4454.939	-2845.435	1	5286.113	-32.56697	-2.843592E-008	0.0088721	7
	30	11	998.264	4604.689	-3410.729	1	5730.291	-36.52763	5.741327E-008	0.008686	7
	31	11	796.875	4765.813	-4081.627	1	6274.764	-40.57803	-2.569181E-008	0.0088069	7
	32	11	627.7902	4967.99	-4956.635	1	7017.774	-44.93444	3.273526E-008	0.0086985	7
	33	12	505.5147	5203.841	-5954.696	1	7908.12	-48.84961	-2.271172E-008	0.0087961	7
	34	12	397.9953	5514.933	-7305.77	1	9153.62	-52.95181	1.537562E-009	0.0088296	7
	35	12	315.5048	5908.325	-8920.313	1	10699.55	-56.4817	-1.769827E-010	0.0087665	6
	36	13	252.4038	6390.669	-10815.86	1	12562.78	-59.42282	8.759843E-011	0.0087635	6
	37	13	198.6229	7063.96	-13303.8	1	15062.89	-62.0329	1.765153E-010	0.0087653	6
	38	13	158.3615	7904.549	-16159.78	1	17989.45	-63.93445	9.297025E-010	0.0087649	6
	39	14	125.558	9035.446	-19691.55	1	21665.56	-65.35203	4.133585E-010	0.0087668	6
	40	14	100.4464	10460.48	-23792.92	1	25990.86	-66.26746	-3.0977E-010	0.0087648	6
	41	14	79.00281	12546.98	-28927.33	1	31531.21	-66.55163	-3.508732E-011	0.008762	6
	42	15	63.3446	14636.5	-34934.98	1	37877.17	-67.26807	6.14532E-010	0.0087603	6
	43	15	49.86702	18091.46	-42030.14	1	45758.43	-66.71102	1.006456E-009	0.008754	6
	44	15	39.72458	22560.08	-49737.22	1	54614.55	-65.60165	1.62793E-010	0.0087564	6
	45	16	31.6723	27944.85	-58664.21	1	64980.03	-64.52908	-6.745609E-010	0.0087527	6
	46	16	24.93351	34820.51	-69280.68	1	77538.9	-63.31587	7.493079E-010	0.0087492	6
	47	16	19.86229	42943.48	-80609.49	1	91334.73	-61.95422	2.223153E-009	0.0087547	6
	48	17	15.83615	52769.89	-92331.56	1	106347.4	-60.25091	-1.645195E-009	0.0087561	5
	49	17	12.40079	64719.73	-106915	1	124977.8	-58.81188	1.092222E-009	0.0087561	5
	50	17	9.93114	77400.85	-120671.1	1	143361.1	-57.32307	-2.63898E-010	0.0087565	5
	51	18	7.944915	91110.65	-136245.3	1	163902.2	-56.22837	-4.387979E-010	0.0087636	5
	52	18	6.317385	106083.4	-153315.6	1	186438.7	-55.31954	-1.983624E-010	0.0087667	5
	53	19	5.008013	121968.7	-173345.6	1	211955.3	-54.86917	2.623606E-010	0.0087674	5
	54	20	3.945707	139111.5	-197508.3	1	241581.4	-54.84172	-1.724864E-010	0.0087516	5
	55	22	3.158693	156116.6	-224439.9	1	273396.5	-55.17818	1.815971E-010	0.008752	5
	56	23	2.504006	174377.1	-258845	1	312102.7	-56.03289	4.220321E-010	0.0087592	5
	57	25	1.998082	194194	-299006.2	1	356533.3	-56.9977	-6.968591E-010	0.0087131	5
	58	26	1.584686	217399.4	-350344.9	1	412315.5	-58.17918	7.443666E-011	0.008729	5
	59	28	1.266892	246393.3	-408633.6	1	477169.8	-58.91134	3.254989E-010	0.0087717	5
	60	31	0.999041	277204.1	-486697.6	1	560104.2	-60.33584	3.440883E-010	0.0087928	5
