EXPLAIN
TAG	EISPOT
TITLE	LABEL	Potentiostatic IDE	Test &Identifier
DATE	LABEL	9/10/2019	Date
TIME	LABEL	8:26:37	Time
NOTES	NOTES	1	&Notes...
	
PSTAT	PSTAT	REF600-11020	Potentiostat
VDC	POTEN	0.00000E+000	T	DC &Voltage (V)
FREQINIT	QUANT	1.00000E+006	Initial Fre&q. (Hz)
FREQFINAL	QUANT	1.00000E+000	Final Fre&q. (Hz)
PTSPERDEC	QUANT	1.00000E+001	Points/&decade
VAC	QUANT	2.50000E+001	AC &Voltage (mV rms)
AREA	QUANT	1.00000E-002	&Area (cm^2)
CONDIT	TWOPARAM	T	5.00000E+000	0.00000E+000	Conditionin&g	Time(s)	E(V)
DELAY	TWOPARAM	T	5.00000E+000	0.00000E+000	Init. De&lay	Time(s)	Stab.(mV/s)
SPEED	SELECTOR	1	&Optimize for:
ZGUESS	QUANT	1.00000E+007	E&stimated Z (ohms)
OCVCURVE	TABLE	19
	Pt	T	Vf	Vm	Ach	Over
	#	s	V vs. Ref.	V	V	bits
	0	0.258333	4.69427E-003	4.69427E-003	5.14400E-004	...........
	1	0.516667	4.69066E-003	4.50519E-003	5.12033E-004	...........
	2	0.775	4.66880E-003	4.34293E-003	5.02433E-004	...........
	3	1.03333	4.60823E-003	4.19698E-003	5.04233E-004	...........
	4	1.29167	4.50295E-003	4.06619E-003	5.13333E-004	...........
	5	1.55	4.36825E-003	3.95080E-003	5.15733E-004	...........
	6	1.80833	4.22597E-003	3.84008E-003	5.02600E-004	...........
	7	2.06667	4.09059E-003	3.73853E-003	4.97333E-004	...........
	8	2.325	3.96696E-003	3.64303E-003	5.07800E-004	...........
	9	2.58333	3.85442E-003	3.55375E-003	5.09000E-004	...........
	10	2.84167	3.75089E-003	3.47007E-003	5.05900E-004	...........
	11	3.1	3.65469E-003	3.39256E-003	5.08733E-004	...........
	12	3.35833	3.56471E-003	3.31343E-003	5.11500E-004	...........
	13	3.61667	3.47991E-003	3.23736E-003	5.05533E-004	...........
	14	3.875	3.39897E-003	3.16210E-003	5.00600E-004	...........
	15	4.13333	3.32092E-003	3.10460E-003	5.09300E-004	...........
	16	4.39167	3.24607E-003	3.03794E-003	5.15633E-004	...........
	17	4.65	3.17515E-003	2.97073E-003	5.12633E-004	...........
	18	4.90833	3.10755E-003	2.90334E-003	5.09400E-004	...........
EOC	QUANT	0.0031075	Open Circuit (V)
PSTATMODEL	IQUANT	4	Pstat Model
PSTATSECTION	LABEL	REF600-11020	Pstat Section
PSTATSERIALNO	LABEL	11020	Pstat Serial Number
CTRLMODE	IQUANT	1	Control Mode
IESTAB	IQUANT	0	I/E Stability
CASPEED	IQUANT	1	Control Amp Speed
CONVENTION	IQUANT	1	Current Convention
ICHRANGE	IQUANT	2	Ich Range
ICHRANGEMODE	TOGGLE	F	Ich Auto Range
ICHOFFSETENABLE	TOGGLE	T	Ich Offset Enable
ICHOFFSET	QUANT	0	Ich Offset (V)
ICHFILTER	IQUANT	3	Ich Filter
VCHRANGE	IQUANT	2	Vch Range
VCHRANGEMODE	TOGGLE	F	Vch Auto Range
VCHOFFSETENABLE	TOGGLE	T	Vch Offset Enable
VCHOFFSET	QUANT	0	Vch Offset (V)
VCHFILTER	IQUANT	3	Vch Filter
ACHRANGE	IQUANT	2	Ach Range
ACHOFFSETENABLE	TOGGLE	F	Ach Offset Enable
ACHOFFSET	QUANT	0	Ach Offset (V)
ACHFILTER	IQUANT	3	Ach Filter
IERANGELOWERLIMIT	IQUANT	1	I/E Range Lower Limit
IERANGEMODE	TOGGLE	F	I/E AutoRange
IERANGE	IQUANT	2	I/E Range
POSFEEDENABLE	TOGGLE	F	Positive Feedback IR Comp
POSFEEDRESISTANCE	QUANT	0	Positive Feedback Resistance (ohm)
ACHSELECT	IQUANT	0	Ach Select
CABLEID	IQUANT	14	Cable ID
DCCALDATE	LABEL	8/19/2019	DC Calibration Date
ACCALDATE	LABEL	8/19/2019	AC Calibration Date
THERMOSELECT	IQUANT	1	Thermo Select
FRAMEWORKVERSION	QUANT	6.33	Framework Version
INSTRUMENTVERSION	LABEL	3.50	Instrument Version
ZCURVE	TABLE
	Pt	Time	Freq	Zreal	Zimag	Zsig	Zmod	Zphz	Idc	Vdc	IERange
	#	s	Hz	ohm	ohm	V	ohm	°	A	V	#
	0	1	1000078	2428.411	-1574.704	1	2894.283	-32.96141	-1.919751E-007	0.0051032	8
	1	3	794390.6	2740.95	-1472.985	1	3111.67	-28.25356	-3.604983E-008	0.0051471	8
	2	4	630984.4	3004.041	-1341.188	1	3289.84	-24.05892	6.841185E-008	0.0047057	8
	3	5	501234.4	3213.798	-1194.549	1	3428.621	-20.38979	5.524074E-008	0.0046309	8
	4	7	398109.4	3383.133	-1034.955	1	3537.897	-17.00972	3.551315E-006	0.0040587	8
	5	8	316265.6	3510.324	-889.519	1	3621.273	-14.21949	-7.012412E-007	0.0045466	8
	6	9	251203.1	3599.826	-774.5338	1	3682.207	-12.14257	-5.709024E-007	0.0048831	8
	7	11	199546.9	3655.813	-661.7604	1	3715.225	-10.26034	3.92156E-006	0.0037913	8
	8	12	158578.1	3718.951	-592.6183	1	3765.872	-9.054012	1.770513E-006	0.0042712	8
	9	13	125953.1	3788.509	-490.0499	1	3820.072	-7.370379	-1.154539E-006	0.0071308	7
	10	15	100078.1	3819.703	-436.4226	1	3844.554	-6.518101	4.42948E-009	0.0045963	7
	11	16	79453.13	3853.411	-412.5306	1	3875.43	-6.110581	7.076738E-009	0.0046805	7
	12	17	63140.62	3885.542	-398.4513	1	3905.919	-5.855053	-2.037547E-008	0.0045883	7
	13	19	50203.12	3918.447	-393.0916	1	3938.115	-5.728643	-2.004413E-008	0.0045863	7
	14	20	39890.62	3949.725	-395.0527	1	3969.432	-5.711746	-1.536381E-008	0.0046346	7
	15	21	31640.63	3986.32	-412.0089	1	4007.555	-5.900893	-9.191111E-009	0.0045992	7
	16	23	25171.88	4022.017	-437.1482	1	4045.704	-6.20306	-1.382456E-008	0.0046353	7
	17	24	20015.62	4060.361	-472.4056	1	4087.75	-6.636283	9.45831E-009	0.0046768	7
	18	25	15890.62	4103.014	-521.9173	1	4136.075	-7.249286	-6.102943E-008	0.0047845	7
	19	27	12609.37	4147.675	-579.8946	1	4188.017	-7.959044	-1.818921E-008	0.0045853	7
	20	28	10078.13	4192.391	-652.762	1	4242.905	-8.849985	9.738047E-009	0.0046773	7
	21	29	8015.625	4250.195	-742.5989	1	4314.582	-9.91074	5.277201E-008	0.0045134	7
	22	31	6328.125	4312.54	-859.2752	1	4397.313	-11.26863	6.411734E-008	0.004476	7
	23	32	5015.625	4381.396	-997.776	1	4493.572	-12.82918	-6.063562E-008	0.0047847	7
	24	33	3984.375	4453.669	-1162.981	1	4603.009	-14.63478	-1.918621E-008	0.0045875	7
	25	35	3170.956	4537.643	-1364.572	1	4738.382	-16.73722	5.262513E-008	0.004513	7
	26	36	2527.573	4631.937	-1605.515	1	4902.297	-19.11727	-1.698906E-008	0.0046291	7
	27	37	1976.103	4750.96	-1922.363	1	5125.144	-22.02955	-3.264275E-008	0.0046632	7
	28	39	1577.524	4871.646	-2274.218	1	5376.337	-25.02445	-3.413755E-009	0.0045788	7
	29	40	1265.625	5002.612	-2693.451	1	5681.62	-28.29842	-3.020333E-008	0.0046724	7
	30	41	998.264	5166.909	-3234.626	1	6095.88	-32.04769	9.452945E-008	0.0044803	7
	31	43	796.875	5347.194	-3865.506	1	6598.077	-35.8633	6.561219E-008	0.0044655	7
	32	44	627.7902	5568.258	-4678.869	1	7273.054	-40.0395	-4.202426E-009	0.0045922	7
	33	45	505.5147	5787.554	-5583.735	1	8042.007	-43.97314	-4.803265E-008	0.0046893	7
	34	47	397.9953	6092.929	-6803.966	1	9133.331	-48.15566	4.122116E-009	0.0046217	7
	35	48	315.5048	6435.944	-8257.986	1	10469.75	-52.06858	1.244913E-009	0.0045637	6
	36	49	252.4038	6825.405	-9967.62	1	12080.54	-55.5983	1.182072E-009	0.0045575	6
	37	51	198.6229	7327.806	-12220	1	14248.69	-59.0507	1.025453E-009	0.0045626	6
	38	52	158.3615	7905.648	-14835.4	1	16810.37	-61.94727	7.682959E-010	0.0045635	6
	39	53	125.558	8618.209	-18122.26	1	20067.13	-64.56614	1.188116E-009	0.0045558	6
	40	55	100.4464	9457.08	-21980.39	1	23928.52	-66.72017	7.995346E-010	0.0045587	6
	41	56	79.00281	10641.08	-27073.5	1	29089.64	-68.54298	7.996611E-010	0.0045569	6
	42	57	63.3446	12082.03	-32923.99	1	35070.85	-69.84851	5.038939E-010	0.0045585	6
	43	59	49.86702	13707.08	-40529.4	1	42784.53	-71.31441	3.669192E-010	0.0045551	6
	44	60	39.72458	16139.5	-49320.5	1	51894.08	-71.87998	8.894512E-010	0.0045615	6
	45	62	31.6723	19019.63	-60093.29	1	63031.34	-72.43733	1.069634E-009	0.0045545	6
	46	63	24.93351	23230.93	-73713.16	1	77287.17	-72.50759	7.719378E-010	0.0045574	6
	47	64	19.86229	28467.52	-89338.37	1	93764.3	-72.32561	1.29866E-009	0.0045655	6
	48	66	15.83615	35442.64	-108087.8	1	113750.4	-71.84537	1.441754E-009	0.0045618	5
	49	67	12.40079	44478.76	-131863	1	139162.5	-71.36021	4.153445E-010	0.0045659	5
	50	68	9.93114	56066.04	-157419	1	167105.2	-70.39623	4.111649E-010	0.0045594	5
	51	70	7.944915	70375.83	-187159.1	1	199953.2	-69.39266	1.973051E-010	0.0045642	5
	52	72	6.317385	88940.55	-222414.5	1	239538.4	-68.2042	8.955645E-011	0.0045626	5
	53	74	5.008013	112720.2	-263745.8	1	286823.4	-66.85901	1.325818E-010	0.0045511	5
	54	76	3.945707	142647.8	-310996.8	1	342151.2	-65.36007	5.647654E-010	0.0045688	5
	55	79	3.158693	177244.9	-361652.6	1	402751	-63.89066	1.37013E-010	0.0045668	5
	56	82	2.504006	219997.5	-419907.6	1	474047.8	-62.34912	4.762253E-010	0.0045552	5
	57	85	1.998082	267641.8	-482642.7	1	551884.2	-60.99014	-6.594859E-011	0.0045798	5
	58	88	1.584686	325986.8	-554214.4	1	642978.2	-59.53612	3.233055E-010	0.0046032	5
	59	91	1.266892	388937.3	-629509.5	1	739969.2	-58.29049	-6.834615E-011	0.0045886	5
	60	96	0.999041	463848.6	-718751.3	1	855429.1	-57.16369	3.717391E-010	0.0045736	5
