EXPLAIN
TAG	EISPOT
TITLE	LABEL	Potentiostatic EIS	Test &Identifier
DATE	LABEL	10/8/2019	Date
TIME	LABEL	10:22:52	Time
NOTES	NOTES	2	&Notes...
	
	
PSTAT	PSTAT	REF600-11020	Potentiostat
VDC	POTEN	0.00000E+000	T	DC &Voltage (V)
FREQINIT	QUANT	1.00000E+006	Initial Fre&q. (Hz)
FREQFINAL	QUANT	1.00000E+000	Final Fre&q. (Hz)
PTSPERDEC	QUANT	1.00000E+001	Points/&decade
VAC	QUANT	2.50000E+001	AC &Voltage (mV rms)
AREA	QUANT	1.00000E-002	&Area (cm^2)
CONDIT	TWOPARAM	T	5.00000E+000	0.00000E+000	Conditionin&g	Time(s)	E(V)
DELAY	TWOPARAM	T	5.00000E+000	0.00000E+000	Init. De&lay	Time(s)	Stab.(mV/s)
SPEED	SELECTOR	1	&Optimize for:
ZGUESS	QUANT	1.00000E+004	E&stimated Z (ohms)
OCVCURVE	TABLE	19
	Pt	T	Vf	Vm	Ach	Over
	#	s	V vs. Ref.	V	V	bits
	0	0.258333	7.50661E-003	7.50661E-003	5.70132E-004	...........
	1	0.516667	7.50632E-003	7.49133E-003	5.72132E-004	...........
	2	0.775	7.50691E-003	7.60156E-003	5.70166E-004	...........
	3	1.03333	7.51190E-003	7.46699E-003	5.67999E-004	...........
	4	1.29167	7.51918E-003	7.49688E-003	5.61399E-004	...........
	5	1.55	7.52019E-003	7.52310E-003	5.62699E-004	...........
	6	1.80833	7.51563E-003	7.56797E-003	5.66632E-004	...........
	7	2.06667	7.51825E-003	7.64091E-003	5.62766E-004	...........
	8	2.325	7.54038E-003	7.78293E-003	5.67599E-004	...........
	9	2.58333	7.58795E-003	7.81340E-003	5.65832E-004	...........
	10	2.84167	7.65729E-003	7.89051E-003	5.63732E-004	...........
	11	3.1	7.73493E-003	7.91859E-003	5.67599E-004	...........
	12	3.35833	7.80664E-003	7.94289E-003	5.63266E-004	...........
	13	3.61667	7.86465E-003	7.96542E-003	5.60032E-004	...........
	14	3.875	7.90813E-003	8.00701E-003	5.66099E-004	...........
	15	4.13333	7.94179E-003	8.03633E-003	5.63899E-004	...........
	16	4.39167	7.97268E-003	8.10215E-003	5.67466E-004	...........
	17	4.65	8.00687E-003	8.15021E-003	5.68399E-004	...........
	18	4.90833	8.04777E-003	8.20566E-003	5.62366E-004	...........
EOC	QUANT	0.0080478	Open Circuit (V)
PSTATMODEL	IQUANT	4	Pstat Model
PSTATSECTION	LABEL	REF600-11020	Pstat Section
PSTATSERIALNO	LABEL	11020	Pstat Serial Number
CTRLMODE	IQUANT	1	Control Mode
IESTAB	IQUANT	0	I/E Stability
CASPEED	IQUANT	1	Control Amp Speed
CONVENTION	IQUANT	1	Current Convention
ICHRANGE	IQUANT	2	Ich Range
ICHRANGEMODE	TOGGLE	F	Ich Auto Range
ICHOFFSETENABLE	TOGGLE	T	Ich Offset Enable
ICHOFFSET	QUANT	0	Ich Offset (V)
ICHFILTER	IQUANT	3	Ich Filter
VCHRANGE	IQUANT	2	Vch Range
VCHRANGEMODE	TOGGLE	F	Vch Auto Range
VCHOFFSETENABLE	TOGGLE	T	Vch Offset Enable
VCHOFFSET	QUANT	0	Vch Offset (V)
VCHFILTER	IQUANT	3	Vch Filter
ACHRANGE	IQUANT	2	Ach Range
ACHOFFSETENABLE	TOGGLE	F	Ach Offset Enable
ACHOFFSET	QUANT	0	Ach Offset (V)
ACHFILTER	IQUANT	3	Ach Filter
IERANGELOWERLIMIT	IQUANT	1	I/E Range Lower Limit
IERANGEMODE	TOGGLE	F	I/E AutoRange
IERANGE	IQUANT	6	I/E Range
POSFEEDENABLE	TOGGLE	F	Positive Feedback IR Comp
POSFEEDRESISTANCE	QUANT	0	Positive Feedback Resistance (ohm)
ACHSELECT	IQUANT	0	Ach Select
CABLEID	IQUANT	14	Cable ID
DCCALDATE	LABEL	8/19/2019	DC Calibration Date
ACCALDATE	LABEL	8/19/2019	AC Calibration Date
THERMOSELECT	IQUANT	1	Thermo Select
FRAMEWORKVERSION	QUANT	6.33	Framework Version
INSTRUMENTVERSION	LABEL	3.50	Instrument Version
ZCURVE	TABLE
	Pt	Time	Freq	Zreal	Zimag	Zsig	Zmod	Zphz	Idc	Vdc	IERange
	#	s	Hz	ohm	ohm	V	ohm	°	A	V	#
	0	1	1000078	2636.859	-1912.751	1	3257.551	-35.95676	1.808177E-006	0.0094481	8
	1	3	794390.6	3031.993	-1863.511	1	3558.884	-31.57554	-1.225811E-006	0.0099053	8
	2	4	630984.4	3376.731	-1758.834	1	3807.337	-27.51361	-2.455257E-007	0.0097433	8
	3	5	501234.4	3699.773	-1605.54	1	4033.123	-23.45873	-1.149742E-007	0.0097885	8
	4	7	398109.4	3959.498	-1451.621	1	4217.206	-20.13382	-4.61347E-007	0.0096008	8
	5	8	316265.6	4168.468	-1250.771	1	4352.075	-16.70215	-3.488683E-006	0.0100716	8
	6	10	251203.1	4325.465	-1092.601	1	4461.325	-14.17622	-3.278676E-006	0.0100416	8
	7	11	199546.9	4421.757	-941.9669	1	4520.977	-12.02595	-6.545376E-007	0.0096157	8
	8	13	158578.1	4528.281	-809.7053	1	4600.104	-10.13796	-3.047291E-006	0.0102143	8
	9	14	125953.1	4630.126	-659.5584	1	4676.867	-8.107203	-1.691937E-006	0.013075	7
	10	16	100078.1	4666.614	-567.9724	1	4701.051	-6.939323	1.527559E-007	0.0092937	7
	11	17	79453.13	4710.817	-510.8906	1	4738.439	-6.189567	5.74845E-009	0.0094417	7
	12	18	63140.62	4750.435	-468.5549	1	4773.486	-5.633098	9.130227E-008	0.0093239	7
	13	20	50203.12	4786.05	-438.1684	1	4806.066	-5.230912	-1.582327E-008	0.0096707	7
	14	21	39890.62	4819.547	-419.1422	1	4837.739	-4.970344	1.53653E-007	0.0092818	7
	15	22	31640.63	4853.961	-414.3097	1	4871.611	-4.878654	7.254972E-008	0.0093864	7
	16	24	25171.88	4886.028	-418.5554	1	4903.922	-4.896217	5.046703E-008	0.0093517	7
	17	25	20015.62	4930.68	-441.1922	1	4950.379	-5.11315	-4.201355E-009	0.0095196	7
	18	26	15890.62	4951.054	-463.652	1	4972.717	-5.349982	-6.556377E-009	0.0095284	7
	19	28	12609.37	4987.755	-505.2376	1	5013.279	-5.784081	1.013661E-007	0.0094466	7
	20	29	10078.13	5022.471	-556.6537	1	5053.224	-6.32443	7.29529E-008	0.0093955	7
	21	30	8015.625	5064.35	-647.2071	1	5105.538	-7.282735	-9.340727E-008	0.0096589	7
	22	32	6328.125	5099.666	-724.4903	1	5150.871	-8.085689	-1.531382E-008	0.0096723	7
	23	33	5015.625	5144.628	-843.0535	1	5213.246	-9.306381	-1.168834E-008	0.009464	7
	24	34	3984.375	5176.867	-979.588	1	5268.733	-10.71506	-5.705388E-008	0.0095483	7
	25	36	3170.956	5244.645	-1171.58	1	5373.909	-12.59233	-2.222882E-008	0.0094804	7
	26	37	2527.573	5305.226	-1398.29	1	5486.405	-14.76556	1.53953E-007	0.0092767	7
	27	38	1976.103	5380.238	-1696.101	1	5641.252	-17.49727	-5.804934E-008	0.0095412	7
	28	40	1577.524	5457.731	-2038.102	1	5825.864	-20.47734	9.27228E-008	0.0093149	7
	29	41	1265.625	5545.417	-2441.997	1	6059.291	-23.76692	-4.245136E-009	0.0095152	7
	30	42	998.264	5653.523	-2980.277	1	6390.96	-27.79613	-1.215766E-008	0.0094551	7
	31	44	796.875	5774.603	-3611.723	1	6811.063	-32.0239	-5.920575E-008	0.009545	7
	32	45	627.7902	5923.907	-4440.239	1	7403.27	-36.85324	-2.433484E-008	0.0095701	7
	33	46	505.5147	6074.63	-5369.776	1	8107.751	-41.47564	-1.405305E-008	0.0096636	7
	34	48	397.9953	6299.816	-6621.046	1	9139.253	-46.42416	4.159786E-009	0.0095254	7
	35	49	315.5048	6559.397	-8138.364	1	10452.69	-51.13171	1.271944E-009	0.0094605	6
	36	50	252.4038	6865.207	-9937.15	1	12078	-55.36085	5.234047E-010	0.0094595	6
	37	52	198.6229	7284.203	-12326.46	1	14317.87	-59.41945	5.765678E-010	0.009461	6
	38	53	158.3615	7788.379	-15120.05	1	17008.08	-62.74688	2.798463E-010	0.0094581	6
	39	54	125.558	8464.93	-18642.42	1	20474.25	-65.57871	5.755343E-010	0.0094641	6
	40	56	100.4464	9308.997	-22773.19	1	24602.35	-67.76673	3.197776E-010	0.0094599	6
	41	57	79.00281	10568.24	-28288.07	1	30197.72	-69.51464	1.761433E-010	0.0094582	6
	42	59	63.3446	12154.67	-34226.66	1	36320.8	-70.44889	6.639114E-010	0.0094567	6
	43	60	49.86702	14229	-42743.35	1	45049.51	-71.58772	1.805209E-011	0.0094586	6
	44	61	39.72458	16950.26	-51877.07	1	54576.02	-71.90577	6.202769E-010	0.0094592	6
	45	63	31.6723	20776.59	-63030.27	1	66366.27	-71.75629	1.166966E-009	0.0094597	6
	46	64	24.93351	25897.44	-77219.39	1	81446.38	-71.45984	2.333366E-010	0.009459	6
	47	65	19.86229	32454.08	-93041.85	1	98539.6	-70.77064	-6.50692E-011	0.0094548	6
	48	67	15.83615	42094.62	-111477.6	1	119160.4	-69.31316	-1.359249E-009	0.0094584	5
	49	68	12.40079	53613.74	-134343.5	1	144646.5	-68.24407	6.996773E-010	0.0094647	5
	50	69	9.93114	66847.46	-157926.2	1	171491.3	-67.05789	1.116747E-010	0.00946	5
	51	71	7.944915	84455.78	-184201.3	1	202639.8	-65.36868	-1.309317E-011	0.0094646	5
	52	73	6.317385	105454.5	-214779.3	1	239271.4	-63.84942	-3.713357E-011	0.0094828	5
	53	75	5.008013	130603.5	-248520.2	1	280748.2	-62.27697	2.686468E-010	0.0094597	5
	54	77	3.945707	160226.1	-287239	1	328905.3	-60.84659	2.71297E-010	0.0094685	5
	55	80	3.158693	191998.4	-327537.2	1	379663	-59.62167	-4.525654E-011	0.0094613	5
	56	83	2.504006	229152.5	-374515.7	1	439059.1	-58.53905	3.332246E-010	0.0094528	5
	57	86	1.998082	269010.8	-426279	1	504064.1	-57.74532	-2.586666E-011	0.0095039	5
	58	89	1.584686	313413.5	-487370.8	1	579446.5	-57.25615	1.546765E-010	0.0094664	5
	59	93	1.266892	363420.6	-555149.4	1	663524.9	-56.78981	3.328003E-011	0.0095054	5
	60	97	0.999041	422635.4	-637755.7	1	765083.7	-56.46789	-7.540749E-011	0.0094197	5
