EXPLAIN
TAG	EISPOT
TITLE	LABEL	Potentiostatic EIS	Test &Identifier
DATE	LABEL	11/5/2019	Date
TIME	LABEL	9:44:09	Time
NOTES	NOTES	2	&Notes...
	
	
PSTAT	PSTAT	REF600-11020	Potentiostat
VDC	POTEN	0.00000E+000	T	DC &Voltage (V)
FREQINIT	QUANT	1.00000E+006	Initial Fre&q. (Hz)
FREQFINAL	QUANT	1.00000E+000	Final Fre&q. (Hz)
PTSPERDEC	QUANT	1.00000E+001	Points/&decade
VAC	QUANT	2.50000E+001	AC &Voltage (mV rms)
AREA	QUANT	1.00000E-002	&Area (cm^2)
CONDIT	TWOPARAM	T	5.00000E+000	0.00000E+000	Conditionin&g	Time(s)	E(V)
DELAY	TWOPARAM	T	5.00000E+000	0.00000E+000	Init. De&lay	Time(s)	Stab.(mV/s)
SPEED	SELECTOR	1	&Optimize for:
ZGUESS	QUANT	1.00000E+005	E&stimated Z (ohms)
OCVCURVE	TABLE	19
	Pt	T	Vf	Vm	Ach	Over
	#	s	V vs. Ref.	V	V	bits
	0	0.258333	4.57904E-003	4.57904E-003	5.80599E-004	...........
	1	0.516667	4.57690E-003	4.46692E-003	5.83199E-004	...........
	2	0.775	4.56257E-003	4.29902E-003	5.84165E-004	...........
	3	1.03333	4.51830E-003	4.14750E-003	5.85099E-004	...........
	4	1.29167	4.43326E-003	4.05087E-003	5.80365E-004	...........
	5	1.55	4.31675E-003	3.95638E-003	5.79632E-004	...........
	6	1.80833	4.19091E-003	3.85911E-003	5.84265E-004	...........
	7	2.06667	4.07317E-003	3.79775E-003	5.80432E-004	...........
	8	2.325	3.97003E-003	3.73152E-003	5.80899E-004	...........
	9	2.58333	3.88171E-003	3.66989E-003	5.86365E-004	...........
	10	2.84167	3.80561E-003	3.60562E-003	5.81332E-004	...........
	11	3.1	3.73765E-003	3.55209E-003	5.82865E-004	...........
	12	3.35833	3.67448E-003	3.49819E-003	5.81999E-004	...........
	13	3.61667	3.61479E-003	3.45257E-003	5.88165E-004	...........
	14	3.875	3.55862E-003	3.40391E-003	5.85865E-004	...........
	15	4.13333	3.50599E-003	3.35974E-003	5.88499E-004	...........
	16	4.39167	3.45640E-003	3.31394E-003	5.82099E-004	...........
	17	4.65	3.40921E-003	3.27975E-003	5.83199E-004	...........
	18	4.90833	3.36427E-003	3.23758E-003	5.84965E-004	...........
EOC	QUANT	0.0033643	Open Circuit (V)
PSTATMODEL	IQUANT	4	Pstat Model
PSTATSECTION	LABEL	REF600-11020	Pstat Section
PSTATSERIALNO	LABEL	11020	Pstat Serial Number
CTRLMODE	IQUANT	1	Control Mode
IESTAB	IQUANT	0	I/E Stability
CASPEED	IQUANT	1	Control Amp Speed
CONVENTION	IQUANT	1	Current Convention
ICHRANGE	IQUANT	2	Ich Range
ICHRANGEMODE	TOGGLE	F	Ich Auto Range
ICHOFFSETENABLE	TOGGLE	T	Ich Offset Enable
ICHOFFSET	QUANT	0	Ich Offset (V)
ICHFILTER	IQUANT	3	Ich Filter
VCHRANGE	IQUANT	2	Vch Range
VCHRANGEMODE	TOGGLE	F	Vch Auto Range
VCHOFFSETENABLE	TOGGLE	T	Vch Offset Enable
VCHOFFSET	QUANT	0	Vch Offset (V)
VCHFILTER	IQUANT	3	Vch Filter
ACHRANGE	IQUANT	2	Ach Range
ACHOFFSETENABLE	TOGGLE	F	Ach Offset Enable
ACHOFFSET	QUANT	0	Ach Offset (V)
ACHFILTER	IQUANT	3	Ach Filter
IERANGELOWERLIMIT	IQUANT	1	I/E Range Lower Limit
IERANGEMODE	TOGGLE	F	I/E AutoRange
IERANGE	IQUANT	4	I/E Range
POSFEEDENABLE	TOGGLE	F	Positive Feedback IR Comp
POSFEEDRESISTANCE	QUANT	0	Positive Feedback Resistance (ohm)
ACHSELECT	IQUANT	0	Ach Select
CABLEID	IQUANT	14	Cable ID
DCCALDATE	LABEL	8/19/2019	DC Calibration Date
ACCALDATE	LABEL	8/19/2019	AC Calibration Date
THERMOSELECT	IQUANT	1	Thermo Select
FRAMEWORKVERSION	QUANT	6.33	Framework Version
INSTRUMENTVERSION	LABEL	3.50	Instrument Version
ZCURVE	TABLE
	Pt	Time	Freq	Zreal	Zimag	Zsig	Zmod	Zphz	Idc	Vdc	IERange
	#	s	Hz	ohm	ohm	V	ohm	°	A	V	#
	0	2	1000078	2158.462	-2175.207	1	3064.389	-45.22139	-1.073483E-006	0.0054346	8
	1	4	794390.6	2574.916	-2263.082	1	3428.08	-41.31209	-1.864948E-006	0.0048126	8
	2	5	630984.4	3029.995	-2310.392	1	3810.352	-37.32577	-7.382022E-006	0.0061025	8
	3	6	501234.4	3498.217	-2289.96	1	4181.081	-33.20906	5.007686E-007	0.0054633	8
	4	8	398109.4	3914.593	-2235.313	1	4507.844	-29.72725	2.995002E-006	0.0041466	8
	5	9	316265.6	4330.43	-2095.801	1	4810.926	-25.82562	6.579553E-006	0.0035734	8
	6	11	251203.1	4695.43	-1925.674	1	5074.966	-22.29935	-7.444253E-007	0.0053123	8
	7	13	199546.9	4991.679	-1745.731	1	5288.141	-19.27617	2.042806E-006	0.0051017	8
	8	14	158578.1	5249.542	-1539.907	1	5470.741	-16.34858	-6.485063E-006	0.0057296	8
	9	16	125953.1	5503.213	-1278.688	1	5649.814	-13.08075	7.369563E-007	0.0075313	7
	10	17	100078.1	5636.731	-1106.277	1	5744.266	-11.10386	1.337281E-006	0.0033909	7
	11	18	79453.13	5736.911	-961.343	1	5816.9	-9.51276	-1.33154E-006	0.0067051	7
	12	20	63140.62	5833.19	-836.332	1	5892.839	-8.159163	1.536264E-007	0.003081	7
	13	21	50203.12	5898.455	-742.8365	1	5945.046	-7.177897	-1.093234E-006	0.0067824	7
	14	23	39890.62	5949.955	-701.545	1	5991.171	-6.724562	1.647388E-006	0.0044846	8
	15	24	31640.63	6008.026	-610.3447	1	6038.948	-5.800677	-7.650988E-007	0.0066909	7
	16	25	25171.88	6059.46	-570.4658	1	6086.254	-5.378239	9.597987E-007	0.0025855	7
	17	27	20015.62	6077.744	-553.0125	1	6102.851	-5.199013	-1.333123E-006	0.0066963	7
	18	28	15890.62	6136.887	-552.6856	1	6161.724	-5.146152	1.001379E-006	0.0045104	7
	19	30	12609.37	6169.558	-572.4557	1	6196.059	-5.301134	7.280734E-007	0.0050221	7
	20	32	10078.13	6190.604	-603.1241	1	6219.915	-5.564521	5.965589E-007	0.0027128	7
	21	33	8015.625	6236.193	-669.0865	1	6271.984	-6.123887	7.34333E-007	0.0050242	7
	22	34	6328.125	6266.848	-756.3317	1	6312.323	-6.881616	7.306586E-007	0.0050235	7
	23	36	5015.625	6281.27	-863.7867	1	6340.384	-7.830081	-8.68838E-007	0.0045272	7
	24	37	3984.375	6320.681	-1009.452	1	6400.781	-9.073859	-1.25657E-006	0.0053538	7
	25	39	3170.956	6394.432	-1205.086	1	6506.996	-10.67271	1.328816E-006	0.0029647	7
	26	40	2527.573	6426.801	-1423.172	1	6582.491	-12.48627	-3.584825E-007	0.0037028	7
	27	42	1976.103	6491.75	-1734.679	1	6719.519	-14.96063	-1.482412E-006	0.0064839	7
	28	43	1577.524	6595.144	-2079.869	1	6915.33	-17.50339	-1.464171E-006	0.0060326	7
	29	45	1265.625	6676.503	-2539.267	1	7143.078	-20.82326	1.20214E-006	0.0026867	7
	30	46	998.264	6772.611	-3088.996	1	7443.8	-24.51779	-7.635476E-007	0.006676	7
	31	48	796.875	6907.546	-3754.767	1	7862.091	-28.52738	-8.689348E-007	0.004523	7
	32	49	627.7902	7090.531	-4637.165	1	8472.244	-33.18444	-3.673088E-007	0.0036947	7
	33	51	505.5147	7296.348	-5612.858	1	9205.48	-37.56999	1.46605E-007	0.0030638	7
	34	52	397.9953	7599.442	-6928.062	1	10283.46	-42.35399	9.767487E-010	0.0047001	6
	35	53	315.5048	7968.13	-8497.482	1	11648.96	-46.84137	3.826331E-010	0.0046963	6
	36	55	252.4038	8433.101	-10331.69	1	13336.46	-50.77744	6.193374E-010	0.0046949	6
	37	56	198.6229	9088.123	-12727.97	1	15639.54	-54.47211	1.352436E-009	0.0047108	6
	38	58	158.3615	9907.68	-15481.36	1	18380.28	-57.38178	1.008953E-009	0.0047	6
	39	59	125.558	11009.88	-18864.02	1	21841.9	-59.73027	1.348022E-009	0.0047025	6
	40	60	100.4464	12434.76	-22741.24	1	25918.86	-61.33045	8.671647E-010	0.0046892	6
	41	62	79.00281	14343.12	-27793.97	1	31276.66	-62.70393	1.311446E-009	0.0046941	6
	42	63	63.3446	17085.71	-33300.34	1	37427.72	-62.83859	8.414366E-010	0.0046974	6
	43	64	49.86702	19845	-40134.08	1	44772.41	-63.6891	1.387368E-009	0.0046987	6
	44	66	39.72458	24113.87	-47387.09	1	53169.68	-63.02982	1.209219E-009	0.0047087	6
	45	67	31.6723	29178.61	-55639.49	1	62826.3	-62.32647	9.149265E-010	0.0046943	6
	46	69	24.93351	35876.71	-65581.23	1	74753.16	-61.3188	1.302614E-010	0.0046959	6
	47	70	19.86229	43396.54	-75928.85	1	87455.42	-60.25021	5.153179E-010	0.0047059	6
	48	72	15.83615	52480.24	-87524.24	1	102052.3	-59.05276	2.078539E-009	0.0046977	5
	49	73	12.40079	62126.42	-100147.7	1	117852.7	-58.18669	8.795572E-010	0.0047013	5
	50	74	9.93114	73612.96	-113937.4	1	135648.8	-57.13422	6.91528E-010	0.0047008	5
	51	76	7.944915	85408.42	-128851.1	1	154587.2	-56.46176	4.344496E-010	0.0047125	5
	52	78	6.317385	97794.9	-146968.6	1	176532.2	-56.35966	3.019246E-010	0.0047263	5
	53	80	5.008013	111500.8	-168764.5	1	202271.8	-56.54773	1.842593E-010	0.0046923	5
	54	82	3.945707	126385.9	-195171.5	1	232519.5	-57.07439	4.450935E-010	0.0047252	5
	55	85	3.158693	142046.5	-225491.9	1	266502.9	-57.79151	-4.183795E-011	0.0046883	5
	56	88	2.504006	160232.3	-263358.7	1	308272.9	-58.68289	5.172066E-010	0.0047139	5
	57	91	1.998082	180453.4	-307822	1	356816.2	-59.62004	3.298177E-010	0.0047281	5
	58	94	1.584686	205779.8	-362423.8	1	416768.9	-60.41262	1.068735E-010	0.0046596	5
	59	98	1.266892	232663.6	-425830.3	1	485246.1	-61.34885	1.929366E-010	0.0047088	5
	60	102	0.999041	269441.7	-507868.4	1	574916.6	-62.05251	-1.103429E-010	0.0046866	5
