EXPLAIN
TAG	EISPOT
TITLE	LABEL	Potentiostatic EIS	Test &Identifier
DATE	LABEL	10/12/2019	Date
TIME	LABEL	10:27:54	Time
NOTES	NOTES	1	&Notes...
	
PSTAT	PSTAT	REF600-11020	Potentiostat
VDC	POTEN	0.00000E+000	T	DC &Voltage (V)
FREQINIT	QUANT	1.00000E+006	Initial Fre&q. (Hz)
FREQFINAL	QUANT	1.00000E+000	Final Fre&q. (Hz)
PTSPERDEC	QUANT	1.00000E+001	Points/&decade
VAC	QUANT	2.50000E+001	AC &Voltage (mV rms)
AREA	QUANT	1.00000E-002	&Area (cm^2)
CONDIT	TWOPARAM	T	5.00000E+000	0.00000E+000	Conditionin&g	Time(s)	E(V)
DELAY	TWOPARAM	T	5.00000E+000	0.00000E+000	Init. De&lay	Time(s)	Stab.(mV/s)
SPEED	SELECTOR	1	&Optimize for:
ZGUESS	QUANT	1.00000E+004	E&stimated Z (ohms)
OCVCURVE	TABLE	19
	Pt	T	Vf	Vm	Ach	Over
	#	s	V vs. Ref.	V	V	bits
	0	0.258333	5.46229E-003	5.46229E-003	5.26866E-004	...........
	1	0.516667	5.44813E-003	4.72105E-003	5.27066E-004	...........
	2	0.775	5.36835E-003	4.39347E-003	5.29999E-004	...........
	3	1.03333	5.17516E-003	4.53526E-003	5.31200E-004	...........
	4	1.29167	4.92202E-003	5.10969E-003	5.34099E-004	...........
	5	1.55	4.75410E-003	5.13918E-003	5.28033E-004	...........
	6	1.80833	4.75609E-003	4.96359E-003	5.26933E-004	...........
	7	2.06667	4.86161E-003	4.83160E-003	5.29666E-004	...........
	8	2.325	4.94701E-003	4.94079E-003	5.29000E-004	...........
	9	2.58333	4.96363E-003	4.90605E-003	5.34433E-004	...........
	10	2.84167	4.93961E-003	4.74081E-003	5.30366E-004	...........
	11	3.1	4.89018E-003	4.11498E-003	5.32733E-004	...........
	12	3.35833	4.77989E-003	4.07415E-003	5.26433E-004	...........
	13	3.61667	4.59384E-003	4.38610E-003	5.34333E-004	...........
	14	3.875	4.41345E-003	4.88097E-003	5.36133E-004	...........
	15	4.13333	4.36468E-003	5.12838E-003	5.34699E-004	...........
	16	4.39167	4.49182E-003	5.09102E-003	5.27433E-004	...........
	17	4.65	4.72437E-003	5.49359E-003	5.37133E-004	...........
	18	4.90833	4.97844E-003	6.00054E-003	5.35366E-004	...........
EOC	QUANT	0.0049784	Open Circuit (V)
PSTATMODEL	IQUANT	4	Pstat Model
PSTATSECTION	LABEL	REF600-11020	Pstat Section
PSTATSERIALNO	LABEL	11020	Pstat Serial Number
CTRLMODE	IQUANT	1	Control Mode
IESTAB	IQUANT	0	I/E Stability
CASPEED	IQUANT	1	Control Amp Speed
CONVENTION	IQUANT	1	Current Convention
ICHRANGE	IQUANT	2	Ich Range
ICHRANGEMODE	TOGGLE	F	Ich Auto Range
ICHOFFSETENABLE	TOGGLE	T	Ich Offset Enable
ICHOFFSET	QUANT	0	Ich Offset (V)
ICHFILTER	IQUANT	3	Ich Filter
VCHRANGE	IQUANT	2	Vch Range
VCHRANGEMODE	TOGGLE	F	Vch Auto Range
VCHOFFSETENABLE	TOGGLE	T	Vch Offset Enable
VCHOFFSET	QUANT	0	Vch Offset (V)
VCHFILTER	IQUANT	3	Vch Filter
ACHRANGE	IQUANT	2	Ach Range
ACHOFFSETENABLE	TOGGLE	F	Ach Offset Enable
ACHOFFSET	QUANT	0	Ach Offset (V)
ACHFILTER	IQUANT	3	Ach Filter
IERANGELOWERLIMIT	IQUANT	1	I/E Range Lower Limit
IERANGEMODE	TOGGLE	F	I/E AutoRange
IERANGE	IQUANT	5	I/E Range
POSFEEDENABLE	TOGGLE	F	Positive Feedback IR Comp
POSFEEDRESISTANCE	QUANT	0	Positive Feedback Resistance (ohm)
ACHSELECT	IQUANT	0	Ach Select
CABLEID	IQUANT	14	Cable ID
DCCALDATE	LABEL	8/19/2019	DC Calibration Date
ACCALDATE	LABEL	8/19/2019	AC Calibration Date
THERMOSELECT	IQUANT	1	Thermo Select
FRAMEWORKVERSION	QUANT	6.33	Framework Version
INSTRUMENTVERSION	LABEL	3.50	Instrument Version
ZCURVE	TABLE
	Pt	Time	Freq	Zreal	Zimag	Zsig	Zmod	Zphz	Idc	Vdc	IERange
	#	s	Hz	ohm	ohm	V	ohm	°	A	V	#
	0	2	1000078	2212.008	-1177.953	1	2506.103	-28.03648	-4.471569E-006	0.0084476	8
	1	3	794390.6	2409.618	-1102.933	1	2650.042	-24.59456	-3.466261E-006	0.0079466	8
	2	5	630984.4	2580.109	-1011.166	1	2771.177	-21.40061	1.619067E-008	0.0071529	8
	3	6	501234.4	2726.525	-916.3167	1	2876.382	-18.5762	-2.15588E-007	0.0066661	8
	4	7	398109.4	2845.319	-827.5281	1	2963.215	-16.21646	-1.839082E-007	0.0065888	8
	5	9	316265.6	2945.965	-746.8629	1	3039.163	-14.22594	-2.790691E-006	0.0071756	8
	6	10	251203.1	3022.359	-675.8914	1	3097.012	-12.60567	-1.169796E-006	0.0068095	8
	7	11	199546.9	3090.555	-622.0028	1	3152.526	-11.37929	-1.500427E-006	0.0069031	8
	8	13	158578.1	3155.336	-577.9857	1	3207.836	-10.3802	-2.653313E-006	0.0071291	8
	9	14	125953.1	3236.608	-521.6008	1	3278.368	-9.154881	3.742941E-008	0.0065719	7
	10	15	100078.1	3280.458	-505.3085	1	3319.147	-8.756787	1.05948E-007	0.0063934	7
	11	17	79453.13	3333.941	-506.2556	1	3372.16	-8.634345	1.152735E-008	0.0066237	7
	12	18	63140.62	3390.854	-515.808	1	3429.861	-8.649381	-1.921278E-008	0.006534	7
	13	19	50203.12	3449.781	-529.8424	1	3490.233	-8.731669	-5.684605E-008	0.0066485	7
	14	21	39890.62	3511.177	-551.7021	1	3554.257	-8.929724	1.068888E-007	0.0063826	7
	15	22	31640.63	3578.171	-580.0263	1	3624.878	-9.20763	1.122263E-008	0.0065192	7
	16	23	25171.88	3646.782	-613.7131	1	3698.062	-9.55274	-3.408203E-008	0.0066221	7
	17	25	20015.62	3716.801	-654.5372	1	3773.993	-9.98751	1.33229E-008	0.0064862	7
	18	26	15890.62	3799.552	-704.4421	1	3864.302	-10.50345	6.958526E-008	0.0064066	7
	19	27	12609.37	3881.34	-762.1715	1	3955.465	-11.10971	-4.636805E-008	0.0066055	7
	20	29	10078.13	3967.444	-828.8259	1	4053.093	-11.79977	-9.819322E-009	0.0065716	7
	21	30	8015.625	4067.331	-906.8712	1	4167.205	-12.56934	1.291192E-008	0.0066183	7
	22	32	6328.125	4162.125	-1000.071	1	4280.586	-13.51084	-7.879994E-009	0.0065896	7
	23	33	5015.625	4265.845	-1108.963	1	4407.633	-14.57224	8.862849E-008	0.0064661	7
	24	34	3984.375	4367.141	-1247.035	1	4541.697	-15.93667	1.100079E-007	0.0063811	7
	25	36	3170.956	4473.81	-1386.49	1	4683.73	-17.21887	-2.177648E-009	0.006489	7
	26	37	2527.573	4575.585	-1572.504	1	4838.258	-18.96645	-1.806576E-008	0.0065195	7
	27	38	1976.103	4687.083	-1827.659	1	5030.814	-21.30256	5.416753E-008	0.0064556	7
	28	40	1577.524	4798.37	-2122.746	1	5246.942	-23.86407	1.229463E-008	0.0064817	7
	29	41	1265.625	4901.449	-2492.22	1	5498.669	-26.95178	1.209618E-008	0.0066199	7
	30	42	998.264	5034.832	-2987.783	1	5854.603	-30.68586	1.130803E-008	0.0065127	7
	31	44	796.875	5185.319	-3576.661	1	6299.209	-34.59663	-6.097006E-008	0.0066175	7
	32	45	627.7902	5380.158	-4352.452	1	6920.255	-38.97224	-1.999953E-008	0.0065204	7
	33	46	505.5147	5607.03	-5219.13	1	7660.164	-42.94798	1.075393E-007	0.0063751	7
	34	48	397.9953	5924.407	-6391.34	1	8714.805	-47.17125	5.900325E-009	0.0065522	7
	35	49	315.5048	6331.458	-7781.967	1	10032.27	-50.86798	1.336641E-009	0.0064905	6
	36	50	252.4038	6837.83	-9396.579	1	11621.17	-53.95686	2.450381E-010	0.0064946	6
	37	52	198.6229	7551.956	-11485.79	1	13746.1	-56.67491	7.039334E-010	0.0064934	6
	38	53	158.3615	8436.233	-13848.18	1	16215.49	-58.65046	6.031028E-010	0.0064896	6
	39	54	125.558	9612.57	-16726.02	1	19291.48	-60.1137	9.302717E-010	0.0064905	6
	40	56	100.4464	11096.12	-19953.18	1	22830.97	-60.92123	1.041348E-010	0.0064857	6
	41	57	79.00281	13169.69	-24026.98	1	27399.57	-61.27193	7.795359E-011	0.0064845	6
	42	59	63.3446	15596.48	-28078.69	1	32119.51	-60.94976	2.285454E-010	0.0064816	6
	43	60	49.86702	18917.55	-33646.33	1	38599.86	-60.65326	-7.532299E-011	0.0064789	6
	44	61	39.72458	22559.1	-39041.48	1	45090.46	-59.97965	8.886686E-010	0.0064889	6
	45	63	31.6723	27099.19	-45065.58	1	52585.86	-58.98034	1.668382E-010	0.0064859	6
	46	64	24.93351	32462.54	-52029.81	1	61326.32	-58.03906	7.648636E-010	0.0064836	6
	47	65	19.86229	38119.34	-59234.56	1	70440.17	-57.23742	7.614069E-010	0.0064985	6
	48	67	15.83615	43838.79	-67241.36	1	80269.79	-56.89719	1.094767E-009	0.0064865	6
	49	68	12.40079	51498.73	-77201.33	1	92801.75	-56.29391	-9.519129E-010	0.0064959	6
	50	70	9.93114	57890.29	-88352.06	1	105628.5	-56.76627	3.611292E-010	0.0064949	5
	51	71	7.944915	65115.74	-101297.9	1	120421.5	-57.26652	8.858351E-010	0.0064994	5
	52	73	6.317385	73118.67	-117689.7	1	138554	-58.148	1.833225E-010	0.0065083	5
	53	75	5.008013	82084.58	-137865.5	1	160451.8	-59.23059	4.319011E-010	0.0065064	5
	54	77	3.945707	92992.63	-163337	1	187953.7	-60.34585	-7.365063E-013	0.0064987	5
	55	80	3.158693	104796.9	-192000.2	1	218738.4	-61.37355	2.037534E-010	0.0065165	5
	56	83	2.504006	119706.4	-228326.9	1	257803.8	-62.33304	-1.381472E-010	0.0064878	5
	57	86	1.998082	137054.5	-270042.4	1	302831.4	-63.09086	-1.738581E-010	0.0065	5
	58	89	1.584686	159761.3	-321287.6	1	358816.7	-63.56099	9.620606E-011	0.0065498	5
	59	93	1.266892	184806.9	-379480.5	1	422088.9	-64.03392	-1.485019E-010	0.0065027	5
	60	97	0.999041	217727.8	-452884	1	502503	-64.32368	2.847934E-010	0.0065117	5
