EXPLAIN
TAG	EISPOT
TITLE	LABEL	Potentiostatic EIS	Test &Identifier
DATE	LABEL	10/2/2019	Date
TIME	LABEL	10:03:32	Time
NOTES	NOTES	2	&Notes...
	
	
PSTAT	PSTAT	REF600-11020	Potentiostat
VDC	POTEN	0.00000E+000	T	DC &Voltage (V)
FREQINIT	QUANT	1.00000E+006	Initial Fre&q. (Hz)
FREQFINAL	QUANT	1.00000E+000	Final Fre&q. (Hz)
PTSPERDEC	QUANT	1.00000E+001	Points/&decade
VAC	QUANT	2.50000E+001	AC &Voltage (mV rms)
AREA	QUANT	1.00000E-002	&Area (cm^2)
CONDIT	TWOPARAM	T	5.00000E+000	0.00000E+000	Conditionin&g	Time(s)	E(V)
DELAY	TWOPARAM	T	5.00000E+000	0.00000E+000	Init. De&lay	Time(s)	Stab.(mV/s)
SPEED	SELECTOR	1	&Optimize for:
ZGUESS	QUANT	1.00000E+004	E&stimated Z (ohms)
OCVCURVE	TABLE	19
	Pt	T	Vf	Vm	Ach	Over
	#	s	V vs. Ref.	V	V	bits
	0	0.258333	5.39481E-004	5.39481E-004	5.76066E-004	...........
	1	0.516667	5.31344E-004	1.13556E-004	5.72866E-004	...........
	2	0.775	4.81799E-004	-2.68225E-004	5.78566E-004	...........
	3	1.03333	3.43020E-004	-6.35319E-004	5.71499E-004	...........
	4	1.29167	9.81085E-005	-9.48735E-004	5.73199E-004	...........
	5	1.55	-2.21104E-004	-1.25758E-003	5.69532E-004	...........
	6	1.80833	-5.65727E-004	-1.55179E-003	5.70732E-004	...........
	7	2.06667	-9.01637E-004	-1.77799E-003	5.72332E-004	...........
	8	2.325	-1.21396E-003	-2.04698E-003	5.69932E-004	...........
	9	2.58333	-1.50044E-003	-2.28701E-003	5.72599E-004	...........
	10	2.84167	-1.76592E-003	-2.49054E-003	5.73032E-004	...........
	11	3.1	-2.01580E-003	-2.73006E-003	5.74165E-004	...........
	12	3.35833	-2.25350E-003	-2.94809E-003	5.70466E-004	...........
	13	3.61667	-2.48263E-003	-3.15414E-003	5.76566E-004	...........
	14	3.875	-2.70564E-003	-3.34815E-003	5.69299E-004	...........
	15	4.13333	-2.92449E-003	-3.67902E-003	5.67899E-004	...........
	16	4.39167	-3.14573E-003	-3.84460E-003	5.72032E-004	...........
	17	4.65	-3.37232E-003	-3.94514E-003	5.72366E-004	...........
	18	4.90833	-3.59019E-003	-4.08642E-003	5.72466E-004	...........
EOC	QUANT	-0.0035902	Open Circuit (V)
PSTATMODEL	IQUANT	4	Pstat Model
PSTATSECTION	LABEL	REF600-11020	Pstat Section
PSTATSERIALNO	LABEL	11020	Pstat Serial Number
CTRLMODE	IQUANT	1	Control Mode
IESTAB	IQUANT	0	I/E Stability
CASPEED	IQUANT	1	Control Amp Speed
CONVENTION	IQUANT	1	Current Convention
ICHRANGE	IQUANT	2	Ich Range
ICHRANGEMODE	TOGGLE	F	Ich Auto Range
ICHOFFSETENABLE	TOGGLE	T	Ich Offset Enable
ICHOFFSET	QUANT	0	Ich Offset (V)
ICHFILTER	IQUANT	3	Ich Filter
VCHRANGE	IQUANT	2	Vch Range
VCHRANGEMODE	TOGGLE	F	Vch Auto Range
VCHOFFSETENABLE	TOGGLE	T	Vch Offset Enable
VCHOFFSET	QUANT	0	Vch Offset (V)
VCHFILTER	IQUANT	3	Vch Filter
ACHRANGE	IQUANT	2	Ach Range
ACHOFFSETENABLE	TOGGLE	F	Ach Offset Enable
ACHOFFSET	QUANT	0	Ach Offset (V)
ACHFILTER	IQUANT	3	Ach Filter
IERANGELOWERLIMIT	IQUANT	1	I/E Range Lower Limit
IERANGEMODE	TOGGLE	F	I/E AutoRange
IERANGE	IQUANT	5	I/E Range
POSFEEDENABLE	TOGGLE	F	Positive Feedback IR Comp
POSFEEDRESISTANCE	QUANT	0	Positive Feedback Resistance (ohm)
ACHSELECT	IQUANT	0	Ach Select
CABLEID	IQUANT	14	Cable ID
DCCALDATE	LABEL	8/19/2019	DC Calibration Date
ACCALDATE	LABEL	8/19/2019	AC Calibration Date
THERMOSELECT	IQUANT	1	Thermo Select
FRAMEWORKVERSION	QUANT	6.33	Framework Version
INSTRUMENTVERSION	LABEL	3.50	Instrument Version
ZCURVE	TABLE
	Pt	Time	Freq	Zreal	Zimag	Zsig	Zmod	Zphz	Idc	Vdc	IERange
	#	s	Hz	ohm	ohm	V	ohm	°	A	V	#
	0	1	1000078	2212.525	-1186.857	1	2510.756	-28.21028	9.757494E-009	-0.000624	8
	1	3	794390.6	2423.57	-1099.942	1	2661.497	-24.41101	2.970049E-006	-0.0022506	8
	2	4	630984.4	2596.85	-998.667	1	2782.259	-21.03518	3.377507E-007	-0.0017476	8
	3	5	501234.4	2735.458	-888.2026	1	2876.045	-17.9886	-1.327475E-006	-0.0013929	8
	4	7	398109.4	2847.969	-790.7718	1	2955.714	-15.51794	8.247474E-007	-0.0019267	8
	5	8	316265.6	2937.693	-701.4009	1	3020.265	-13.42849	4.172415E-006	-0.0026907	8
	6	9	251203.1	3008.978	-617.4474	1	3071.676	-11.59622	4.342488E-007	-0.0021638	8
	7	11	199546.9	3064.054	-563.8922	1	3115.51	-10.42773	-1.15784E-006	-0.0015381	8
	8	12	158578.1	3111.193	-526.6979	1	3155.461	-9.60858	-8.957199E-007	-0.0018194	8
	9	13	125953.1	3170.512	-444.593	1	3201.532	-7.982395	-1.370311E-006	0.0010699	7
	10	15	100078.1	3210.313	-436.1636	1	3239.806	-7.73702	-2.580739E-008	-0.0020023	7
	11	16	79453.13	3253.316	-436.8522	1	3282.515	-7.647875	-1.517473E-008	-0.0019259	7
	12	17	63140.62	3299.772	-445.6652	1	3329.732	-7.691789	1.437151E-008	-0.0020272	7
	13	19	50203.12	3349.698	-461.0194	1	3381.274	-7.836396	-3.700585E-008	-0.0019938	7
	14	20	39890.62	3401.667	-481.9543	1	3435.639	-8.064098	-7.75348E-008	-0.0018877	7
	15	22	31640.63	3457.754	-509.0713	1	3495.028	-8.375261	3.623231E-008	-0.0020321	7
	16	23	25171.88	3517.829	-542.4631	1	3559.408	-8.766188	-6.448531E-009	-0.0019732	7
	17	24	20015.62	3582.058	-582.5607	1	3629.12	-9.237309	-6.098877E-008	-0.0019151	7
	18	26	15890.62	3650.799	-630.249	1	3704.801	-9.79461	5.776333E-008	-0.0020911	7
	19	27	12609.37	3723.513	-685.1043	1	3786.016	-10.42548	-5.813997E-008	-0.0019128	7
	20	28	10078.13	3799.905	-748.9825	1	3873.016	-11.15038	1.530755E-008	-0.0020317	7
	21	30	8015.625	3881.609	-824.3298	1	3968.174	-11.98967	-1.502942E-008	-0.0019405	7
	22	31	6328.125	3971.681	-914.2958	1	4075.56	-12.96385	9.306721E-009	-0.0019026	7
	23	33	5015.625	4065.199	-1018.557	1	4190.859	-14.06618	-3.596819E-008	-0.0020028	7
	24	34	3984.375	4160.736	-1140.788	1	4314.292	-15.33254	-5.932764E-008	-0.0019134	7
	25	35	3170.956	4257.866	-1288.244	1	4448.482	-16.83352	1.300725E-008	-0.0020359	7
	26	37	2527.573	4354.733	-1464.478	1	4594.388	-18.58757	1.189623E-007	-0.0021784	7
	27	38	1976.103	4461.452	-1705.866	1	4776.456	-20.92469	-3.523371E-008	-0.0020026	7
	28	39	1577.524	4563.302	-1984.816	1	4976.266	-23.50671	5.751172E-008	-0.0020938	7
	29	41	1265.625	4669.833	-2324.98	1	5216.595	-26.46744	-6.314846E-008	-0.0018827	7
	30	42	998.264	4795.009	-2781.976	1	5543.6	-30.12152	-2.465519E-008	-0.0020117	7
	31	43	796.875	4934.775	-3327.378	1	5951.76	-33.99067	-1.146017E-008	-0.0020038	7
	32	45	627.7902	5117.952	-4045.547	1	6523.793	-38.32503	2.181121E-008	-0.0020879	7
	33	46	505.5147	5321.783	-4840.39	1	7193.799	-42.28787	5.730372E-008	-0.0020961	7
	34	48	397.9953	5620.766	-5935.103	1	8174.255	-46.55814	5.649065E-009	-0.0019778	7
	35	49	315.5048	5989.953	-7224.675	1	9384.853	-50.33799	6.08951E-009	-0.0019797	7
	36	50	252.4038	6451.819	-8722.183	1	10849.08	-53.50958	7.351269E-010	-0.0020457	6
	37	52	198.6229	7094.807	-10663.58	1	12808.13	-56.36296	9.566667E-010	-0.0020419	6
	38	53	158.3615	7887.354	-12867.16	1	15092.19	-58.4924	9.250194E-010	-0.0020472	6
	39	54	125.558	8946.402	-15555.22	1	17944.44	-60.09515	1.182913E-009	-0.0020365	6
	40	56	100.4464	10257.91	-18590.38	1	21232.69	-61.11072	1.655902E-009	-0.0020481	6
	41	57	79.00281	12084.05	-22410.6	1	25460.93	-61.66594	1.663327E-009	-0.0020485	6
	42	58	63.3446	14162.34	-26413.16	1	29970.44	-61.80046	1.136161E-009	-0.0020401	6
	43	60	49.86702	17287.59	-31558.68	1	35983.48	-61.28643	1.481522E-009	-0.0020492	6
	44	61	39.72458	20680.31	-36928.84	1	42325.1	-60.75099	6.243753E-010	-0.002042	6
	45	63	31.6723	24787.09	-42875.48	1	49524.81	-59.96702	1.351591E-009	-0.0020468	6
	46	64	24.93351	29939.71	-49708.55	1	58028.67	-58.93923	1.251797E-009	-0.0020452	6
	47	65	19.86229	35437.04	-56838.54	1	66980.62	-58.05777	9.275416E-010	-0.0020463	6
	48	67	15.83615	41457.97	-65080.64	1	77163.8	-57.50186	2.369226E-009	-0.0020459	6
	49	68	12.40079	48516.97	-74652.28	1	89032.91	-56.97992	1.437271E-009	-0.0020313	6
	50	70	9.93114	55049.14	-84875.48	1	101164.5	-57.03308	1.746521E-010	-0.0020348	5
	51	71	7.944915	62172.28	-97030.6	1	115240.3	-57.35031	1.34854E-009	-0.0020345	5
	52	73	6.317385	69536.3	-112330.9	1	132111.8	-58.24121	-1.055334E-009	-0.0020332	5
	53	75	5.008013	78283.88	-131116.6	1	152708.7	-59.16046	6.100208E-010	-0.0020309	5
	54	77	3.945707	88309.79	-155004.1	1	178395.3	-60.32873	5.022901E-010	-0.0020439	5
	55	80	3.158693	98950.5	-182255.8	1	207384.6	-61.50154	1.967595E-010	-0.0020169	5
	56	83	2.504006	112153.6	-216843	1	244129.7	-62.65149	-1.67007E-010	-0.0020416	5
	57	86	1.998082	127352.5	-256976.8	1	286802.6	-63.63792	3.141332E-010	-0.0020324	5
	58	89	1.584686	147296.1	-307534	1	340988.7	-64.40751	4.164049E-010	-0.0019822	5
	59	93	1.266892	169467.6	-364245.4	1	401738.7	-65.04948	6.578372E-011	-0.0020173	5
	60	97	0.999041	199286.6	-437326.9	1	480593.4	-65.50159	3.917997E-010	-0.0020323	5
