EXPLAIN
TAG	EISPOT
TITLE	LABEL	Potentiostatic EIS	Test &Identifier
DATE	LABEL	9/24/2019	Date
TIME	LABEL	9:12:11	Time
NOTES	NOTES	1	&Notes...
	
PSTAT	PSTAT	REF600-11020	Potentiostat
VDC	POTEN	0.00000E+000	T	DC &Voltage (V)
FREQINIT	QUANT	1.00000E+006	Initial Fre&q. (Hz)
FREQFINAL	QUANT	1.00000E+000	Final Fre&q. (Hz)
PTSPERDEC	QUANT	1.00000E+001	Points/&decade
VAC	QUANT	2.50000E+001	AC &Voltage (mV rms)
AREA	QUANT	1.00000E-002	&Area (cm^2)
CONDIT	TWOPARAM	T	5.00000E+000	0.00000E+000	Conditionin&g	Time(s)	E(V)
DELAY	TWOPARAM	T	5.00000E+000	0.00000E+000	Init. De&lay	Time(s)	Stab.(mV/s)
SPEED	SELECTOR	1	&Optimize for:
ZGUESS	QUANT	1.00000E+004	E&stimated Z (ohms)
OCVCURVE	TABLE	19
	Pt	T	Vf	Vm	Ach	Over
	#	s	V vs. Ref.	V	V	bits
	0	0.258333	-3.15699E-003	-3.15699E-003	5.65599E-004	...........
	1	0.516667	-3.16870E-003	-3.76981E-003	5.64866E-004	...........
	2	0.775	-3.24019E-003	-4.32986E-003	5.63866E-004	...........
	3	1.03333	-3.44054E-003	-4.83752E-003	5.70932E-004	...........
	4	1.29167	-3.79361E-003	-5.30714E-003	5.68466E-004	...........
	5	1.55	-4.25289E-003	-5.73508E-003	5.69532E-004	...........
	6	1.80833	-4.74746E-003	-6.13418E-003	5.66632E-004	...........
	7	2.06667	-5.22771E-003	-6.51490E-003	5.71332E-004	...........
	8	2.325	-5.67413E-003	-6.86608E-003	5.75165E-004	...........
	9	2.58333	-6.08577E-003	-7.20025E-003	5.67566E-004	...........
	10	2.84167	-6.46770E-003	-7.51354E-003	5.74432E-004	...........
	11	3.1	-6.82485E-003	-7.81440E-003	5.71366E-004	...........
	12	3.35833	-7.16085E-003	-8.09592E-003	5.68066E-004	...........
	13	3.61667	-7.47834E-003	-8.36851E-003	5.66366E-004	...........
	14	3.875	-7.77947E-003	-8.63524E-003	5.61999E-004	...........
	15	4.13333	-8.06660E-003	-8.89185E-003	5.69066E-004	...........
	16	4.39167	-8.34209E-003	-9.13136E-003	5.66632E-004	...........
	17	4.65	-8.60723E-003	-9.36850E-003	5.68266E-004	...........
	18	4.90833	-8.86215E-003	-9.58910E-003	5.65499E-004	...........
EOC	QUANT	-0.0088622	Open Circuit (V)
PSTATMODEL	IQUANT	4	Pstat Model
PSTATSECTION	LABEL	REF600-11020	Pstat Section
PSTATSERIALNO	LABEL	11020	Pstat Serial Number
CTRLMODE	IQUANT	1	Control Mode
IESTAB	IQUANT	0	I/E Stability
CASPEED	IQUANT	1	Control Amp Speed
CONVENTION	IQUANT	1	Current Convention
ICHRANGE	IQUANT	2	Ich Range
ICHRANGEMODE	TOGGLE	F	Ich Auto Range
ICHOFFSETENABLE	TOGGLE	T	Ich Offset Enable
ICHOFFSET	QUANT	0	Ich Offset (V)
ICHFILTER	IQUANT	3	Ich Filter
VCHRANGE	IQUANT	2	Vch Range
VCHRANGEMODE	TOGGLE	F	Vch Auto Range
VCHOFFSETENABLE	TOGGLE	T	Vch Offset Enable
VCHOFFSET	QUANT	0	Vch Offset (V)
VCHFILTER	IQUANT	3	Vch Filter
ACHRANGE	IQUANT	2	Ach Range
ACHOFFSETENABLE	TOGGLE	F	Ach Offset Enable
ACHOFFSET	QUANT	0	Ach Offset (V)
ACHFILTER	IQUANT	3	Ach Filter
IERANGELOWERLIMIT	IQUANT	1	I/E Range Lower Limit
IERANGEMODE	TOGGLE	F	I/E AutoRange
IERANGE	IQUANT	6	I/E Range
POSFEEDENABLE	TOGGLE	F	Positive Feedback IR Comp
POSFEEDRESISTANCE	QUANT	0	Positive Feedback Resistance (ohm)
ACHSELECT	IQUANT	0	Ach Select
CABLEID	IQUANT	14	Cable ID
DCCALDATE	LABEL	8/19/2019	DC Calibration Date
ACCALDATE	LABEL	8/19/2019	AC Calibration Date
THERMOSELECT	IQUANT	1	Thermo Select
FRAMEWORKVERSION	QUANT	6.33	Framework Version
INSTRUMENTVERSION	LABEL	3.50	Instrument Version
ZCURVE	TABLE
	Pt	Time	Freq	Zreal	Zimag	Zsig	Zmod	Zphz	Idc	Vdc	IERange
	#	s	Hz	ohm	ohm	V	ohm	°	A	V	#
	0	2	1000078	2179.581	-1830.395	1	2846.211	-40.02328	3.167083E-006	-0.0069329	8
	1	3	794390.6	2544.3	-1824.15	1	3130.653	-35.63885	6.094604E-007	-0.0071357	8
	2	5	630984.4	2907.241	-1765.905	1	3401.539	-31.27516	-4.034393E-008	-0.0070602	8
	3	6	501234.4	3238.562	-1660.147	1	3639.282	-27.14053	5.302288E-007	-0.0071658	8
	4	7	398109.4	3526.958	-1516.576	1	3839.198	-23.26749	2.61454E-006	-0.007687	8
	5	9	316265.6	3753.614	-1365.802	1	3994.375	-19.99459	2.422333E-006	-0.0076959	8
	6	10	251203.1	3928.141	-1188.904	1	4104.118	-16.83913	1.26155E-006	-0.0074336	8
	7	12	199546.9	4090.08	-1072.012	1	4228.234	-14.68689	4.351751E-006	-0.0079846	8
	8	13	158578.1	4206.3	-919.2891	1	4305.584	-12.32818	-2.199802E-007	-0.0072399	8
	9	14	125953.1	4307.172	-764.6659	1	4374.522	-10.06701	-1.077547E-007	-0.0068923	7
	10	16	100078.1	4360.996	-682.2157	1	4414.035	-8.891049	-1.965114E-009	-0.0072658	7
	11	17	79453.13	4420.129	-626.0541	1	4464.245	-8.061584	-9.790546E-010	-0.0071077	7
	12	18	63140.62	4470.915	-586.2491	1	4509.187	-7.470294	-3.318503E-008	-0.0072029	7
	13	20	50203.12	4519.402	-560.6194	1	4554.041	-7.071262	-4.007032E-008	-0.0071371	7
	14	21	39890.62	4568.007	-551.92	1	4601.229	-6.88925	-3.826538E-008	-0.0071767	7
	15	22	31640.63	4614.212	-555.8224	1	4647.568	-6.868686	-3.201297E-008	-0.0072164	7
	16	24	25171.88	4663.632	-573.0138	1	4698.703	-7.004742	7.756135E-008	-0.0073861	7
	17	25	20015.62	4715.931	-601.645	1	4754.154	-7.270358	-2.87391E-008	-0.0072235	7
	18	26	15890.62	4773.812	-645.35	1	4817.235	-7.698884	-1.226651E-008	-0.0071919	7
	19	28	12609.37	4833.937	-703.0369	1	4884.793	-8.274951	-5.423005E-008	-0.0071329	7
	20	29	10078.13	4897.462	-767.1617	1	4957.184	-8.902736	4.433962E-008	-0.0072744	7
	21	31	8015.625	4968.097	-855.208	1	5041.167	-9.76717	8.150094E-008	-0.007283	7
	22	32	6328.125	5046.804	-964.595	1	5138.158	-10.82043	-5.558805E-008	-0.0071425	7
	23	33	5015.625	5130.273	-1094.098	1	5245.642	-12.03873	-4.206589E-008	-0.0070722	7
	24	35	3984.375	5218.992	-1250.633	1	5366.746	-13.47575	-4.620082E-008	-0.0071809	7
	25	36	3170.956	5314.396	-1440.352	1	5506.125	-15.16448	-1.195398E-008	-0.007206	7
	26	37	2527.573	5417.98	-1667.413	1	5668.754	-17.10604	-3.076281E-008	-0.0072249	7
	27	39	1976.103	5541.802	-1971.797	1	5882.139	-19.58578	1.210438E-007	-0.007395	7
	28	40	1577.524	5674.794	-2315.362	1	6128.963	-22.19586	-3.867167E-008	-0.0071515	7
	29	41	1265.625	5812.506	-2735.978	1	6424.235	-25.20662	-3.962919E-008	-0.0070927	7
	30	43	998.264	5975.272	-3246.975	1	6800.494	-28.51975	1.744967E-008	-0.0073043	7
	31	44	796.875	6153.753	-3863.145	1	7265.85	-32.11939	-4.180994E-008	-0.0072015	7
	32	45	627.7902	6374.152	-4656.811	1	7894.03	-36.15101	-1.088796E-009	-0.0071977	7
	33	47	505.5147	6597.32	-5531.479	1	8609.407	-39.97793	-2.384732E-009	-0.0071959	7
	34	48	397.9953	6881.636	-6723.303	1	9620.8	-44.33323	6.629389E-009	-0.0072168	7
	35	49	315.5048	7200.204	-8149.517	1	10874.63	-48.53899	1.774045E-009	-0.0072803	6
	36	51	252.4038	7551.542	-9832.39	1	12397.65	-52.47476	2.042544E-009	-0.0072783	6
	37	52	198.6229	7997.94	-12069.3	1	14478.78	-56.46883	1.237399E-009	-0.0072717	6
	38	53	158.3615	8510.317	-14690.59	1	16977.6	-59.91612	1.030173E-009	-0.0072782	6
	39	55	125.558	9152.756	-17989.33	1	20183.88	-63.03356	1.441967E-009	-0.0072706	6
	40	56	100.4464	9916.79	-21882.42	1	24024.63	-65.62067	6.173664E-010	-0.007276	6
	41	57	79.00281	10969.94	-27124.5	1	29258.81	-67.98015	7.363661E-010	-0.0072734	6
	42	59	63.3446	12643.09	-32870.93	1	35218.54	-68.96185	1.75561E-009	-0.0072749	6
	43	60	49.86702	14085.34	-40952.65	1	43307.23	-71.01975	3.298091E-010	-0.0072773	6
	44	62	39.72458	16300.27	-49695.8	1	52300.77	-71.84045	1.182456E-009	-0.0072683	6
	45	63	31.6723	19385.13	-60581.04	1	63606.96	-72.25601	1.040613E-009	-0.007274	6
	46	64	24.93351	23375.08	-74346.53	1	77934.59	-72.54648	1.213867E-009	-0.0072747	6
	47	66	19.86229	28582.6	-90119.47	1	94543.55	-72.40288	1.106525E-009	-0.0072741	6
	48	67	15.83615	36045.73	-109676.1	1	115447.6	-71.80657	2.550038E-009	-0.0072716	5
	49	68	12.40079	45423.21	-133908.4	1	141402.7	-71.2625	-4.048154E-010	-0.0072672	5
	50	70	9.93114	55817.2	-159039.4	1	168550	-70.66074	2.700003E-010	-0.0072635	5
	51	71	7.944915	68592.34	-188874.8	1	200944.3	-70.04085	1.587638E-009	-0.0072654	5
	52	73	6.317385	87484.5	-225736.6	1	242096.2	-68.8161	1.029758E-009	-0.007262	5
	53	75	5.008013	110506.7	-268350.3	1	290213.1	-67.61813	8.229361E-010	-0.0072584	5
	54	78	3.945707	139918	-318693.2	1	348055.2	-66.29676	4.472803E-010	-0.0072734	5
	55	81	3.158693	173821.2	-372419.4	1	410986.7	-64.97988	7.241592E-010	-0.0072578	5
	56	84	2.504006	216780.8	-435261.1	1	486257.3	-63.5245	3.949898E-010	-0.0072601	5
	57	87	1.998082	266404.5	-502052.1	1	568355.2	-62.04818	7.952541E-010	-0.0072937	5
	58	90	1.584686	327125.3	-581293.1	1	667017.6	-60.63117	4.627451E-010	-0.0073092	5
	59	93	1.266892	396734.3	-661963.6	1	771747.4	-59.0645	7.148094E-010	-0.0072984	5
	60	98	0.999041	481844.4	-760335.1	1	900157.4	-57.63649	3.044797E-010	-0.0072592	5
