EXPLAIN
TAG	EISPOT
TITLE	LABEL	Potentiostatic EIS	Test &Identifier
DATE	LABEL	10/12/2019	Date
TIME	LABEL	9:51:51	Time
NOTES	NOTES	1	&Notes...
	
PSTAT	PSTAT	REF600-11020	Potentiostat
VDC	POTEN	0.00000E+000	T	DC &Voltage (V)
FREQINIT	QUANT	1.00000E+006	Initial Fre&q. (Hz)
FREQFINAL	QUANT	1.00000E+000	Final Fre&q. (Hz)
PTSPERDEC	QUANT	1.00000E+001	Points/&decade
VAC	QUANT	2.50000E+001	AC &Voltage (mV rms)
AREA	QUANT	1.00000E-002	&Area (cm^2)
CONDIT	TWOPARAM	T	5.00000E+000	0.00000E+000	Conditionin&g	Time(s)	E(V)
DELAY	TWOPARAM	T	5.00000E+000	0.00000E+000	Init. De&lay	Time(s)	Stab.(mV/s)
SPEED	SELECTOR	1	&Optimize for:
ZGUESS	QUANT	1.00000E+004	E&stimated Z (ohms)
OCVCURVE	TABLE	19
	Pt	T	Vf	Vm	Ach	Over
	#	s	V vs. Ref.	V	V	bits
	0	0.258333	6.89856E-003	6.89856E-003	5.47333E-004	...........
	1	0.516667	6.89792E-003	6.86511E-003	5.49499E-004	...........
	2	0.775	6.89473E-003	6.87191E-003	5.50933E-004	...........
	3	1.03333	6.88763E-003	6.85070E-003	5.46099E-004	...........
	4	1.29167	6.87768E-003	6.84815E-003	5.49933E-004	...........
	5	1.55	6.86683E-003	6.83063E-003	5.51232E-004	...........
	6	1.80833	6.85594E-003	6.82325E-003	5.46233E-004	...........
	7	2.06667	6.84402E-003	6.75862E-003	5.48766E-004	...........
	8	2.325	6.82673E-003	6.68908E-003	5.52099E-004	...........
	9	2.58333	6.79894E-003	6.70794E-003	5.46966E-004	...........
	10	2.84167	6.76250E-003	6.64944E-003	5.52632E-004	...........
	11	3.1	6.72560E-003	6.65255E-003	5.56333E-004	...........
	12	3.35833	6.69470E-003	6.66243E-003	5.50266E-004	...........
	13	3.61667	6.67370E-003	6.69290E-003	5.52566E-004	...........
	14	3.875	6.66606E-003	6.71247E-003	5.55133E-004	...........
	15	4.13333	6.67206E-003	6.72591E-003	5.55599E-004	...........
	16	4.39167	6.68731E-003	6.74390E-003	5.61066E-004	...........
	17	4.65	6.70608E-003	6.76588E-003	5.54533E-004	...........
	18	4.90833	6.72522E-003	6.78374E-003	5.54133E-004	...........
EOC	QUANT	0.0067252	Open Circuit (V)
PSTATMODEL	IQUANT	4	Pstat Model
PSTATSECTION	LABEL	REF600-11020	Pstat Section
PSTATSERIALNO	LABEL	11020	Pstat Serial Number
CTRLMODE	IQUANT	1	Control Mode
IESTAB	IQUANT	0	I/E Stability
CASPEED	IQUANT	1	Control Amp Speed
CONVENTION	IQUANT	1	Current Convention
ICHRANGE	IQUANT	2	Ich Range
ICHRANGEMODE	TOGGLE	F	Ich Auto Range
ICHOFFSETENABLE	TOGGLE	T	Ich Offset Enable
ICHOFFSET	QUANT	0	Ich Offset (V)
ICHFILTER	IQUANT	3	Ich Filter
VCHRANGE	IQUANT	2	Vch Range
VCHRANGEMODE	TOGGLE	F	Vch Auto Range
VCHOFFSETENABLE	TOGGLE	T	Vch Offset Enable
VCHOFFSET	QUANT	0	Vch Offset (V)
VCHFILTER	IQUANT	3	Vch Filter
ACHRANGE	IQUANT	2	Ach Range
ACHOFFSETENABLE	TOGGLE	F	Ach Offset Enable
ACHOFFSET	QUANT	0	Ach Offset (V)
ACHFILTER	IQUANT	3	Ach Filter
IERANGELOWERLIMIT	IQUANT	1	I/E Range Lower Limit
IERANGEMODE	TOGGLE	F	I/E AutoRange
IERANGE	IQUANT	6	I/E Range
POSFEEDENABLE	TOGGLE	F	Positive Feedback IR Comp
POSFEEDRESISTANCE	QUANT	0	Positive Feedback Resistance (ohm)
ACHSELECT	IQUANT	0	Ach Select
CABLEID	IQUANT	14	Cable ID
DCCALDATE	LABEL	8/19/2019	DC Calibration Date
ACCALDATE	LABEL	8/19/2019	AC Calibration Date
THERMOSELECT	IQUANT	1	Thermo Select
FRAMEWORKVERSION	QUANT	6.33	Framework Version
INSTRUMENTVERSION	LABEL	3.50	Instrument Version
ZCURVE	TABLE
	Pt	Time	Freq	Zreal	Zimag	Zsig	Zmod	Zphz	Idc	Vdc	IERange
	#	s	Hz	ohm	ohm	V	ohm	°	A	V	#
	0	1	1000078	2445.755	-1614.141	1	2930.387	-33.42387	3.011688E-006	0.0089159	8
	1	3	794390.6	2767.411	-1552.08	1	3172.935	-29.28554	-6.549455E-006	0.0097008	8
	2	4	630984.4	3048.546	-1428.716	1	3366.729	-25.11037	-2.362592E-007	0.0088246	8
	3	6	501234.4	3284.687	-1274.614	1	3523.323	-21.20861	5.401732E-006	0.0072765	8
	4	7	398109.4	3455.44	-1139.291	1	3638.413	-18.24787	-2.016982E-008	0.0082288	8
	5	8	316265.6	3611.641	-986.09	1	3743.838	-15.27132	4.604396E-007	0.0083743	8
	6	10	251203.1	3723.734	-875.9252	1	3825.368	-13.23691	4.076385E-007	0.0081987	8
	7	11	199546.9	3803.479	-764.5479	1	3879.56	-11.36572	-2.897596E-006	0.0089368	8
	8	12	158578.1	3878.796	-674.4646	1	3936.999	-9.86425	3.17234E-006	0.0077703	8
	9	14	125953.1	3941.536	-548.2081	1	3979.477	-7.91818	-4.139299E-007	0.0087698	7
	10	15	100078.1	3985.224	-496.1164	1	4015.986	-7.096184	-5.257359E-008	0.008378	7
	11	16	79453.13	4025.383	-469.0345	1	4052.617	-6.64609	-1.175862E-008	0.0083034	7
	12	18	63140.62	4062.071	-452.8954	1	4087.24	-6.361846	-7.454845E-008	0.0085356	7
	13	19	50203.12	4101.455	-449.8653	1	4126.053	-6.259427	-7.529699E-008	0.0085354	7
	14	20	39890.62	4141.386	-455.9623	1	4166.411	-6.2829	9.985813E-008	0.0082142	7
	15	22	31640.63	4184.602	-474.2972	1	4211.396	-6.466504	-2.087238E-008	0.0082932	7
	16	23	25171.88	4230.265	-502.0675	1	4259.954	-6.768467	1.344323E-008	0.0084011	7
	17	24	20015.62	4285.489	-541.2762	1	4319.537	-7.198593	-7.090263E-008	0.0084078	7
	18	26	15890.62	4332.522	-585.913	1	4371.961	-7.701727	1.096477E-008	0.0082731	7
	19	27	12609.37	4392.728	-645.6047	1	4439.917	-8.360975	4.51663E-008	0.0082534	7
	20	28	10078.13	4455.743	-715.9438	1	4512.895	-9.128199	-1.262755E-008	0.0083011	7
	21	30	8015.625	4520.252	-796.6008	1	4589.908	-9.99457	-4.151271E-008	0.0084019	7
	22	31	6328.125	4599.732	-903.7893	1	4687.683	-11.11628	5.635064E-008	0.0082144	7
	23	33	5015.625	4679.641	-1027.656	1	4791.149	-12.38563	-6.144041E-008	0.0084178	7
	24	34	3984.375	4764	-1186.625	1	4909.56	-13.98671	-6.351881E-008	0.0084218	7
	25	35	3170.956	4851.765	-1355.036	1	5037.435	-15.60437	-4.98951E-008	0.0083626	7
	26	37	2527.573	4942.257	-1573.732	1	5186.765	-17.66271	1.597327E-008	0.0083848	7
	27	38	1976.103	5053.191	-1861.051	1	5385.003	-20.21836	-1.091008E-008	0.0082948	7
	28	39	1577.524	5166.247	-2185.208	1	5609.389	-22.92728	-3.181294E-008	0.0082968	7
	29	41	1265.625	5289.499	-2585.205	1	5887.452	-26.04674	1.028976E-007	0.0082009	7
	30	42	998.264	5443.405	-3105.08	1	6266.752	-29.70172	-1.028345E-008	0.0083274	7
	31	43	796.875	5598.395	-3706.428	1	6714.137	-33.50663	1.252088E-008	0.0082685	7
	32	45	627.7902	5796.071	-4487.193	1	7330.03	-37.74627	-7.304044E-008	0.0085236	7
	33	46	505.5147	6004.031	-5360.341	1	8048.704	-41.75817	7.903355E-008	0.0081336	7
	34	47	397.9953	6269.569	-6541.809	1	9061.058	-46.21735	6.958786E-009	0.0083139	7
	35	49	315.5048	6573.567	-7952.956	1	10318.01	-50.42434	1.296954E-009	0.0082548	6
	36	50	252.4038	6916.701	-9620.14	1	11848.54	-54.28458	1.528802E-009	0.0082546	6
	37	51	198.6229	7356.608	-11823.56	1	13925.38	-58.11017	7.416313E-010	0.0082508	6
	38	53	158.3615	7859.899	-14401.19	1	16406.47	-61.37511	2.986017E-010	0.008252	6
	39	54	125.558	8498.951	-17646.11	1	19586.15	-64.28299	9.295751E-010	0.0082483	6
	40	56	100.4464	9241.767	-21497.36	1	23399.72	-66.73701	3.563997E-010	0.0082494	6
	41	57	79.00281	10304.64	-26624.42	1	28549	-68.84171	2.800588E-010	0.0082444	6
	42	58	63.3446	11586.38	-32620.16	1	34616.75	-70.44543	7.479847E-010	0.0082477	6
	43	60	49.86702	13110.74	-39804.81	1	41908.4	-71.76936	1.227969E-009	0.0082402	6
	44	61	39.72458	15507.54	-48688.8	1	51098.76	-72.33316	1.220547E-009	0.0082499	6
	45	62	31.6723	18286.04	-59378.7	1	62130.58	-72.88346	1.05691E-009	0.0082485	6
	46	64	24.93351	22406.27	-73076.23	1	76434.13	-72.95367	9.149543E-010	0.0082504	6
	47	65	19.86229	27252.28	-88682.48	1	92775.37	-72.91772	1.416213E-009	0.0082569	6
	48	66	15.83615	34806.23	-107305.5	1	112809.4	-72.02872	-7.336012E-010	0.0082522	5
	49	68	12.40079	43035.3	-131024.3	1	137910.8	-71.81709	7.361387E-010	0.0082514	5
	50	69	9.93114	54010.18	-157151.7	1	166173.9	-71.03309	6.1629E-010	0.0082528	5
	51	71	7.944915	67678.66	-186404.2	1	198310.2	-70.04531	-4.868254E-010	0.0082517	5
	52	72	6.317385	86011.76	-223237.6	1	239234.3	-68.9287	2.010665E-011	0.0082462	5
	53	75	5.008013	109402.6	-265311	1	286982.3	-67.59091	1.350453E-012	0.0082493	5
	54	77	3.945707	139339.5	-314462.3	1	343950.6	-66.10167	4.523949E-010	0.0082592	5
	55	80	3.158693	174353.5	-366537.6	1	405892.8	-64.56064	-1.887861E-011	0.0082489	5
	56	83	2.504006	218369.7	-426062	1	478763.2	-62.86348	4.113326E-010	0.0082472	5
	57	86	1.998082	268584.9	-489240.5	1	558116.6	-61.23395	-1.825443E-011	0.0082908	5
	58	89	1.584686	327513	-561337	1	649895.4	-59.73851	2.3896E-010	0.0082779	5
	59	92	1.266892	394571.6	-635834.7	1	748313.1	-58.17804	-1.844221E-011	0.0082965	5
	60	97	0.999041	471273	-722934.3	1	862978.7	-56.9001	1.792383E-010	0.0082231	5
