EXPLAIN
TAG	EISPOT
TITLE	LABEL	Potentiostatic EIS	Test &Identifier
DATE	LABEL	11/11/2019	Date
TIME	LABEL	13:19:51	Time
NOTES	NOTES	3	&Notes...
	
	
	
PSTAT	PSTAT	REF600-11020	Potentiostat
VDC	POTEN	0.00000E+000	T	DC &Voltage (V)
FREQINIT	QUANT	1.00000E+006	Initial Fre&q. (Hz)
FREQFINAL	QUANT	1.00000E+000	Final Fre&q. (Hz)
PTSPERDEC	QUANT	1.00000E+001	Points/&decade
VAC	QUANT	2.50000E+001	AC &Voltage (mV rms)
AREA	QUANT	1.00000E-002	&Area (cm^2)
CONDIT	TWOPARAM	T	5.00000E+000	0.00000E+000	Conditionin&g	Time(s)	E(V)
DELAY	TWOPARAM	T	5.00000E+000	0.00000E+000	Init. De&lay	Time(s)	Stab.(mV/s)
SPEED	SELECTOR	1	&Optimize for:
ZGUESS	QUANT	1.00000E+005	E&stimated Z (ohms)
OCVCURVE	TABLE	19
	Pt	T	Vf	Vm	Ach	Over
	#	s	V vs. Ref.	V	V	bits
	0	0.258333	5.99668E-003	5.99668E-003	5.28366E-004	...........
	1	0.516667	5.99559E-003	5.93932E-003	5.29100E-004	...........
	2	0.775	5.98904E-003	5.89457E-003	5.34066E-004	...........
	3	1.03333	5.97227E-003	5.91102E-003	5.34433E-004	...........
	4	1.29167	5.94840E-003	5.92640E-003	5.30466E-004	...........
	5	1.55	5.92759E-003	5.88980E-003	5.32000E-004	...........
	6	1.80833	5.91357E-003	5.81865E-003	5.33266E-004	...........
	7	2.06667	5.89872E-003	5.83421E-003	5.34933E-004	...........
	8	2.325	5.87841E-003	5.87918E-003	5.31166E-004	...........
	9	2.58333	5.86150E-003	5.90817E-003	5.33866E-004	...........
	10	2.84167	5.85962E-003	5.91516E-003	5.33266E-004	...........
	11	3.1	5.87318E-003	5.93837E-003	5.35466E-004	...........
	12	3.35833	5.89411E-003	5.96044E-003	5.29566E-004	...........
	13	3.61667	5.91587E-003	5.97102E-003	5.37933E-004	...........
	14	3.875	5.93657E-003	6.00909E-003	5.36666E-004	...........
	15	4.13333	5.95658E-003	6.00312E-003	5.36166E-004	...........
	16	4.39167	5.97757E-003	6.11336E-003	5.38099E-004	...........
	17	4.65	6.00358E-003	6.11510E-003	5.37366E-004	...........
	18	4.90833	6.03678E-003	6.10185E-003	5.27766E-004	...........
EOC	QUANT	0.0060368	Open Circuit (V)
PSTATMODEL	IQUANT	4	Pstat Model
PSTATSECTION	LABEL	REF600-11020	Pstat Section
PSTATSERIALNO	LABEL	11020	Pstat Serial Number
CTRLMODE	IQUANT	1	Control Mode
IESTAB	IQUANT	0	I/E Stability
CASPEED	IQUANT	1	Control Amp Speed
CONVENTION	IQUANT	1	Current Convention
ICHRANGE	IQUANT	2	Ich Range
ICHRANGEMODE	TOGGLE	F	Ich Auto Range
ICHOFFSETENABLE	TOGGLE	T	Ich Offset Enable
ICHOFFSET	QUANT	0	Ich Offset (V)
ICHFILTER	IQUANT	3	Ich Filter
VCHRANGE	IQUANT	2	Vch Range
VCHRANGEMODE	TOGGLE	F	Vch Auto Range
VCHOFFSETENABLE	TOGGLE	T	Vch Offset Enable
VCHOFFSET	QUANT	0	Vch Offset (V)
VCHFILTER	IQUANT	3	Vch Filter
ACHRANGE	IQUANT	2	Ach Range
ACHOFFSETENABLE	TOGGLE	F	Ach Offset Enable
ACHOFFSET	QUANT	0	Ach Offset (V)
ACHFILTER	IQUANT	3	Ach Filter
IERANGELOWERLIMIT	IQUANT	1	I/E Range Lower Limit
IERANGEMODE	TOGGLE	F	I/E AutoRange
IERANGE	IQUANT	5	I/E Range
POSFEEDENABLE	TOGGLE	F	Positive Feedback IR Comp
POSFEEDRESISTANCE	QUANT	0	Positive Feedback Resistance (ohm)
ACHSELECT	IQUANT	0	Ach Select
CABLEID	IQUANT	14	Cable ID
DCCALDATE	LABEL	8/19/2019	DC Calibration Date
ACCALDATE	LABEL	8/19/2019	AC Calibration Date
THERMOSELECT	IQUANT	1	Thermo Select
FRAMEWORKVERSION	QUANT	6.33	Framework Version
INSTRUMENTVERSION	LABEL	3.50	Instrument Version
ZCURVE	TABLE
	Pt	Time	Freq	Zreal	Zimag	Zsig	Zmod	Zphz	Idc	Vdc	IERange
	#	s	Hz	ohm	ohm	V	ohm	°	A	V	#
	0	2	1000078	2236.776	-1346.183	1	2610.628	-31.04123	1.063845E-005	0.0071263	8
	1	3	794390.6	2493.134	-1286.892	1	2805.674	-27.30164	4.548317E-006	0.0069593	8
	2	4	630984.4	2715.9	-1200.447	1	2969.375	-23.84577	-4.932003E-006	0.008355	8
	3	6	501234.4	2908.061	-1094.027	1	3107.042	-20.61655	-1.840525E-006	0.0081552	8
	4	7	398109.4	3062.178	-998.626	1	3220.899	-18.06198	-5.465896E-006	0.0084109	8
	5	8	316265.6	3175.439	-883.7739	1	3296.129	-15.55271	2.096596E-006	0.0071526	8
	6	10	251203.1	3290.602	-807.2582	1	3388.174	-13.78372	-4.338539E-006	0.0079031	8
	7	11	199546.9	3377.833	-728.3734	1	3455.471	-12.16856	5.358659E-006	0.0069015	8
	8	12	158578.1	3454.693	-690.1608	1	3522.957	-11.29753	-2.671919E-007	0.0072828	8
	9	14	125953.1	3544.766	-576.6797	1	3591.368	-9.240206	-2.520916E-006	0.0096198	7
	10	15	100078.1	3597.093	-555.196	1	3639.687	-8.774124	-2.47758E-007	0.0087176	7
	11	16	79453.13	3652.068	-549.1362	1	3693.122	-8.551109	-9.784342E-007	0.0089696	7
	12	18	63140.62	3711.654	-556.3431	1	3753.118	-8.524652	9.891887E-007	0.006464	7
	13	19	50203.12	3769.859	-569.6405	1	3812.654	-8.592614	3.667758E-007	0.0079539	7
	14	21	39890.62	3831.074	-590.6234	1	3876.334	-8.764091	-2.449701E-007	0.0087077	7
	15	22	31640.63	3896.516	-623.8714	1	3946.144	-9.096425	9.043967E-008	0.0062845	7
	16	23	25171.88	3962.17	-664.5963	1	4017.522	-9.52189	-1.099591E-006	0.0084994	7
	17	25	20015.62	4038.688	-716.0248	1	4101.67	-10.05358	3.665413E-007	0.0079516	7
	18	26	15890.62	4115.558	-782.049	1	4189.203	-10.75922	9.231219E-007	0.0068299	7
	19	27	12609.37	4197.503	-858.4858	1	4284.394	-11.5589	-1.099987E-006	0.0088137	7
	20	29	10078.13	4288.116	-950.012	1	4392.091	-12.49185	-9.507226E-007	0.0079817	7
	21	30	8015.625	4384.676	-1057.122	1	4510.31	-13.55502	-5.431232E-007	0.0089249	7
	22	31	6328.125	4492.308	-1191.268	1	4647.574	-14.85184	7.597027E-007	0.0072678	7
	23	33	5015.625	4603.557	-1344.156	1	4795.778	-16.27686	-2.443044E-007	0.0086954	7
	24	34	3984.375	4730.55	-1526.917	1	4970.874	-17.88893	8.695974E-007	0.0059827	7
	25	35	3170.956	4845.579	-1746.854	1	5150.838	-19.82447	9.064905E-008	0.0062862	7
	26	37	2527.573	4972.992	-2007.837	1	5363.027	-21.98631	-1.09443E-006	0.0088071	7
	27	38	1976.103	5119.96	-2357.383	1	5636.599	-24.72275	-1.096177E-006	0.0084873	7
	28	39	1577.524	5275.132	-2758.472	1	5952.831	-27.60597	6.865365E-007	0.005919	7
	29	41	1265.625	5420.338	-3233.605	1	6311.598	-30.81899	-7.909617E-007	0.0089941	7
	30	42	998.264	5598.235	-3879.073	1	6810.833	-34.71848	8.975623E-008	0.0062869	7
	31	44	796.875	5789.448	-4630.788	1	7413.629	-38.65516	9.857578E-007	0.0064649	7
	32	45	627.7902	6035.682	-5607.206	1	8238.338	-42.89238	-1.090618E-006	0.0088075	7
	33	46	505.5147	6288.917	-6709.153	1	9195.826	-46.85176	-2.391339E-007	0.0086906	7
	34	48	397.9953	6631.151	-8207.119	1	10551.25	-51.06264	3.429108E-009	0.0075253	7
	35	49	315.5048	7042.524	-9993.62	1	12225.78	-54.82758	4.871806E-010	0.0074592	6
	36	51	252.4038	7521.83	-12094.88	1	14243.03	-58.12244	1.061588E-009	0.0074533	6
	37	52	198.6229	8162.73	-14858.55	1	16953.07	-61.21725	1.008254E-009	0.0074631	6
	38	53	158.3615	8920.587	-18061.97	1	20144.76	-63.71579	6.769881E-010	0.0074618	6
	39	55	125.558	9891.93	-22057.69	1	24174.2	-65.84581	7.543627E-010	0.0074572	6
	40	56	100.4464	11043.27	-26753.41	1	28943.02	-67.57015	-1.523962E-010	0.0074625	6
	41	57	79.00281	12738.22	-32912.82	1	35291.86	-68.84211	1.435935E-009	0.0074537	6
	42	59	63.3446	14819.11	-39510.72	1	42198.38	-69.44066	1.167415E-009	0.0074489	6
	43	60	49.86702	17370.15	-49177.83	1	52155.35	-70.54622	-3.089465E-010	0.0074545	6
	44	61	39.72458	20655.4	-59273.54	1	62769.4	-70.78778	5.747609E-010	0.007457	6
	45	63	31.6723	24987.2	-71901.51	1	76119.55	-70.83665	-7.836347E-010	0.0074617	6
	46	64	24.93351	31510.25	-87445.04	1	92949.08	-70.1837	4.418747E-011	0.0074573	6
	47	66	19.86229	39483.59	-104881.1	1	112067	-69.37064	2.544846E-010	0.0074584	5
	48	67	15.83615	50349.01	-125487.2	1	135211.2	-68.13795	4.290181E-010	0.0074648	5
	49	68	12.40079	64371.08	-151139.5	1	164276.6	-66.9306	-1.537907E-010	0.0074565	5
	50	70	9.93114	81656.4	-176356.5	1	194343.5	-65.15498	4.015945E-010	0.0074621	5
	51	71	7.944915	101974.4	-205808.8	1	229686.8	-63.64244	-2.001259E-010	0.0074725	5
	52	73	6.317385	129028.5	-236532.1	1	269436	-61.38748	-1.90454E-010	0.0074796	5
	53	75	5.008013	160963.2	-270041.6	1	314375	-59.20217	3.087516E-010	0.0074716	5
	54	77	3.945707	197918.1	-306988.7	1	365258.3	-57.18979	-1.313084E-011	0.0074574	5
	55	80	3.158693	235964.8	-342795.4	1	416158.7	-55.45824	2.580593E-010	0.0074782	5
	56	83	2.504006	279363.9	-383960.8	1	474836.9	-53.96095	-3.239203E-010	0.0074563	5
	57	86	1.998082	323722.5	-425904.4	1	534968.1	-52.76217	-4.350968E-011	0.00742	5
	58	89	1.584686	369572.7	-475398.6	1	602152.6	-52.13866	-1.03023E-010	0.0074653	5
	59	93	1.266892	417757.3	-531154.8	1	675756.3	-51.81468	1.083593E-011	0.0074141	5
	60	97	0.999041	469432.8	-601956.4	1	763360.1	-52.05128	-4.652775E-011	0.0074995	5
