EXPLAIN
TAG	EISPOT
TITLE	LABEL	Potentiostatic IDE	Test &Identifier
DATE	LABEL	9/6/2019	Date
TIME	LABEL	6:56:49	Time
NOTES	NOTES	1	&Notes...
	
PSTAT	PSTAT	REF600-11020	Potentiostat
VDC	POTEN	0.00000E+000	T	DC &Voltage (V)
FREQINIT	QUANT	1.00000E+006	Initial Fre&q. (Hz)
FREQFINAL	QUANT	1.00000E+000	Final Fre&q. (Hz)
PTSPERDEC	QUANT	1.00000E+001	Points/&decade
VAC	QUANT	2.50000E+001	AC &Voltage (mV rms)
AREA	QUANT	1.00000E-002	&Area (cm^2)
CONDIT	TWOPARAM	T	5.00000E+000	0.00000E+000	Conditionin&g	Time(s)	E(V)
DELAY	TWOPARAM	T	5.00000E+000	0.00000E+000	Init. De&lay	Time(s)	Stab.(mV/s)
SPEED	SELECTOR	1	&Optimize for:
ZGUESS	QUANT	1.00000E+007	E&stimated Z (ohms)
OCVCURVE	TABLE	19
	Pt	T	Vf	Vm	Ach	Over
	#	s	V vs. Ref.	V	V	bits
	0	0.258333	1.28391E-002	1.28391E-002	5.59499E-004	...........
	1	0.516667	1.28390E-002	1.28347E-002	5.63266E-004	...........
	2	0.775	1.28389E-002	1.28547E-002	5.62032E-004	...........
	3	1.03333	1.28410E-002	1.29102E-002	5.61466E-004	...........
	4	1.29167	1.28511E-002	1.29827E-002	5.54966E-004	...........
	5	1.55	1.28766E-002	1.30616E-002	5.57499E-004	...........
	6	1.80833	1.29213E-002	1.31418E-002	5.56399E-004	...........
	7	2.06667	1.29832E-002	1.32313E-002	5.54566E-004	...........
	8	2.325	1.30572E-002	1.33221E-002	5.58366E-004	...........
	9	2.58333	1.31391E-002	1.34165E-002	5.58599E-004	...........
	10	2.84167	1.32261E-002	1.35092E-002	5.58966E-004	...........
	11	3.1	1.33165E-002	1.36054E-002	5.59932E-004	...........
	12	3.35833	1.34090E-002	1.36970E-002	5.55366E-004	...........
	13	3.61667	1.35027E-002	1.37955E-002	5.57632E-004	...........
	14	3.875	1.35969E-002	1.38840E-002	5.59932E-004	...........
	15	4.13333	1.36911E-002	1.39768E-002	5.56666E-004	...........
	16	4.39167	1.37846E-002	1.40627E-002	5.58066E-004	...........
	17	4.65	1.38767E-002	1.41504E-002	5.52066E-004	...........
	18	4.90833	1.39671E-002	1.42389E-002	5.54166E-004	...........
EOC	QUANT	0.0139671	Open Circuit (V)
PSTATMODEL	IQUANT	4	Pstat Model
PSTATSECTION	LABEL	REF600-11020	Pstat Section
PSTATSERIALNO	LABEL	11020	Pstat Serial Number
CTRLMODE	IQUANT	1	Control Mode
IESTAB	IQUANT	0	I/E Stability
CASPEED	IQUANT	1	Control Amp Speed
CONVENTION	IQUANT	1	Current Convention
ICHRANGE	IQUANT	2	Ich Range
ICHRANGEMODE	TOGGLE	F	Ich Auto Range
ICHOFFSETENABLE	TOGGLE	T	Ich Offset Enable
ICHOFFSET	QUANT	0	Ich Offset (V)
ICHFILTER	IQUANT	3	Ich Filter
VCHRANGE	IQUANT	2	Vch Range
VCHRANGEMODE	TOGGLE	F	Vch Auto Range
VCHOFFSETENABLE	TOGGLE	T	Vch Offset Enable
VCHOFFSET	QUANT	0	Vch Offset (V)
VCHFILTER	IQUANT	3	Vch Filter
ACHRANGE	IQUANT	2	Ach Range
ACHOFFSETENABLE	TOGGLE	F	Ach Offset Enable
ACHOFFSET	QUANT	0	Ach Offset (V)
ACHFILTER	IQUANT	3	Ach Filter
IERANGELOWERLIMIT	IQUANT	1	I/E Range Lower Limit
IERANGEMODE	TOGGLE	F	I/E AutoRange
IERANGE	IQUANT	3	I/E Range
POSFEEDENABLE	TOGGLE	F	Positive Feedback IR Comp
POSFEEDRESISTANCE	QUANT	0	Positive Feedback Resistance (ohm)
ACHSELECT	IQUANT	0	Ach Select
CABLEID	IQUANT	14	Cable ID
DCCALDATE	LABEL	8/19/2019	DC Calibration Date
ACCALDATE	LABEL	8/19/2019	AC Calibration Date
THERMOSELECT	IQUANT	1	Thermo Select
FRAMEWORKVERSION	QUANT	6.33	Framework Version
INSTRUMENTVERSION	LABEL	3.50	Instrument Version
ZCURVE	TABLE
	Pt	Time	Freq	Zreal	Zimag	Zsig	Zmod	Zphz	Idc	Vdc	IERange
	#	s	Hz	ohm	ohm	V	ohm	°	A	V	#
	0	2	1000078	2692.928	-1767.719	1	3221.287	-33.28209	2.827849E-007	0.0160445	8
	1	4	794390.6	3036.411	-1650.77	1	3456.13	-28.53108	-1.125038E-006	0.0163524	8
	2	5	630984.4	3303.333	-1490.996	1	3624.235	-24.29257	-1.747934E-007	0.0159369	8
	3	6	501234.4	3535.881	-1324.037	1	3775.649	-20.5288	-1.205922E-006	0.0159053	8
	4	8	398109.4	3706.621	-1153.798	1	3882.047	-17.29033	-6.8463E-007	0.015909	8
	5	9	316265.6	3832.649	-1000.007	1	3960.961	-14.62347	3.098021E-007	0.0155893	8
	6	10	251203.1	3932.557	-870.7906	1	4027.813	-12.48561	1.148451E-006	0.0154579	8
	7	12	199546.9	4007.261	-774.9012	1	4081.496	-10.94445	5.021453E-007	0.0155424	8
	8	13	158578.1	4068.621	-703.8706	1	4129.057	-9.81501	2.347966E-006	0.0152397	8
	9	14	125953.1	4144.841	-630.6159	1	4192.54	-8.650909	7.543579E-008	0.0154708	7
	10	16	100078.1	4180.976	-596.164	1	4223.265	-8.115085	3.740588E-008	0.0156381	7
	11	17	79453.13	4228.213	-592.4052	1	4269.512	-7.975662	-2.57371E-008	0.0156609	7
	12	18	63140.62	4277.374	-603.6491	1	4319.759	-8.032882	-2.060434E-009	0.0156488	7
	13	20	50203.12	4328.261	-629.9803	1	4373.868	-8.281274	-2.504325E-008	0.0156587	7
	14	21	39890.62	4385.729	-670.9673	1	4436.758	-8.698167	-1.943242E-009	0.0156481	7
	15	22	31640.63	4446.604	-730.6755	1	4506.237	-9.331573	-1.161334E-008	0.015622	7
	16	24	25171.88	4514.012	-805.6468	1	4585.343	-10.11942	-3.700271E-008	0.0156811	7
	17	25	20015.62	4588.199	-898.2626	1	4675.302	-11.07708	5.304551E-008	0.0155184	7
	18	26	15890.62	4673.137	-1014.438	1	4781.976	-12.24767	-1.173364E-008	0.0156144	7
	19	28	12609.37	4767.487	-1150.546	1	4904.354	-13.56786	-2.419158E-008	0.0156561	7
	20	29	10078.13	4871.196	-1311.743	1	5044.722	-15.07142	-1.181959E-008	0.0156124	7
	21	30	8015.625	4989.28	-1503.763	1	5210.971	-16.77275	1.890959E-008	0.0156047	7
	22	32	6328.125	5128.62	-1742.223	1	5416.464	-18.76293	-1.096009E-008	0.0156083	7
	23	33	5015.625	5282.852	-2020.771	1	5656.151	-20.93261	-1.292287E-008	0.0157086	7
	24	34	3984.375	5457.086	-2348.372	1	5940.929	-23.28387	-2.296018E-008	0.0156488	7
	25	36	3170.956	5650.569	-2734.803	1	6277.585	-25.82639	3.554747E-008	0.0155987	7
	26	37	2527.573	5870.741	-3190.99	1	6681.917	-28.5259	1.994959E-008	0.0155735	7
	27	38	1976.103	6144.876	-3789.297	1	7219.298	-31.66046	-3.871672E-008	0.0156624	7
	28	40	1577.524	6432.096	-4438.988	1	7815.144	-34.61076	5.374949E-008	0.0155126	7
	29	41	1265.625	6757.674	-5197.109	1	8525.027	-37.56272	4.647638E-009	0.0155757	7
	30	42	998.264	7157.42	-6180.769	1	9456.773	-40.81215	-1.93965E-008	0.0156497	7
	31	44	796.875	7602.002	-7291.896	1	10533.86	-43.80722	-5.875032E-009	0.0156053	6
	32	45	627.7902	8147.605	-8711.965	1	11928.19	-46.91721	-3.12864E-009	0.0155894	6
	33	46	505.5147	8709.224	-10257.71	1	13456.27	-49.66735	-2.497632E-009	0.0155914	6
	34	48	397.9953	9453.455	-12295.31	1	15509.43	-52.44451	4.876813E-010	0.0155646	6
	35	49	315.5048	10287.87	-14695.75	1	17938.93	-55.00575	5.212789E-010	0.0155659	6
	36	50	252.4038	11226.02	-17469.06	1	20765.16	-57.27426	6.140563E-010	0.0155684	6
	37	52	198.6229	12410.27	-21070.03	1	24453.24	-59.50186	6.087682E-010	0.0155659	6
	38	53	158.3615	13740.35	-25196.5	1	28699.49	-61.39515	5.840769E-010	0.0155665	6
	39	55	125.558	15353.97	-30306.27	1	33973.73	-63.13201	5.378231E-010	0.0155671	6
	40	56	100.4464	17208.48	-36246.56	1	40124.12	-64.60342	7.385675E-010	0.0155626	6
	41	57	79.00281	19651.92	-43961.11	1	48153.68	-65.91393	4.566473E-010	0.0155635	6
	42	59	63.3446	22471.87	-52459.52	1	57070.01	-66.81136	4.876377E-010	0.0155585	6
	43	60	49.86702	25680.9	-63763.55	1	68740.81	-68.06279	4.013029E-010	0.0155561	6
	44	61	39.72458	29962.94	-76658.93	1	82306.55	-68.65144	4.921126E-010	0.0155597	6
	45	63	31.6723	34954.62	-92125.49	1	98533.9	-69.22205	4.532623E-010	0.0155623	6
	46	64	24.93351	41458.72	-111671.1	1	119118.7	-69.63219	3.08876E-010	0.0155638	5
	47	65	19.86229	48955.46	-134177.7	1	142829.6	-69.95523	6.012494E-010	0.015574	5
	48	67	15.83615	57826.68	-160596.2	1	170690	-70.19732	1.131846E-010	0.0155692	5
	49	68	12.40079	70327.69	-196202.4	1	208426	-70.28006	2.401551E-010	0.0155713	5
	50	70	9.93114	84732.29	-233663.8	1	248552.5	-70.0681	9.999478E-011	0.0155686	5
	51	71	7.944915	102030.1	-278950	1	297024	-69.90925	6.142071E-012	0.0155633	5
	52	73	6.317385	123927.7	-333955.3	1	356208.1	-69.64058	-1.542263E-011	0.0155669	5
	53	74	5.008013	151869.5	-400934.2	1	428733.7	-69.25385	2.142757E-010	0.0155745	5
	54	77	3.945707	187992.4	-482628.4	1	517949.1	-68.71819	-5.012941E-011	0.0155598	5
	55	79	3.158693	231157.2	-571647	1	616614.9	-67.98304	8.174414E-011	0.0155581	5
	56	83	2.504006	286460	-679892.1	1	737775.4	-67.15277	7.003918E-011	0.0155823	5
	57	85	1.998082	353036.2	-800518.6	1	874908.4	-66.20207	2.068079E-010	0.0155746	5
	58	88	1.584686	442410.2	-944056	1	1042578	-64.89095	2.472911E-011	0.0155181	4
	59	92	1.266892	543060.8	-1101517	1	1228110	-63.75616	1.059213E-010	0.0155862	4
	60	96	0.999041	677239.3	-1289228	1	1456284	-62.28678	-1.117007E-010	0.0155232	4
