EXPLAIN
TAG	EISPOT
TITLE	LABEL	Potentiostatic EIS	Test &Identifier
DATE	LABEL	11/11/2019	Date
TIME	LABEL	12:49:49	Time
NOTES	NOTES	3	&Notes...
	
	
	
PSTAT	PSTAT	REF600-11020	Potentiostat
VDC	POTEN	0.00000E+000	T	DC &Voltage (V)
FREQINIT	QUANT	1.00000E+006	Initial Fre&q. (Hz)
FREQFINAL	QUANT	1.00000E+000	Final Fre&q. (Hz)
PTSPERDEC	QUANT	1.00000E+001	Points/&decade
VAC	QUANT	2.50000E+001	AC &Voltage (mV rms)
AREA	QUANT	1.00000E-002	&Area (cm^2)
CONDIT	TWOPARAM	T	5.00000E+000	0.00000E+000	Conditionin&g	Time(s)	E(V)
DELAY	TWOPARAM	T	5.00000E+000	0.00000E+000	Init. De&lay	Time(s)	Stab.(mV/s)
SPEED	SELECTOR	1	&Optimize for:
ZGUESS	QUANT	1.00000E+005	E&stimated Z (ohms)
OCVCURVE	TABLE	19
	Pt	T	Vf	Vm	Ach	Over
	#	s	V vs. Ref.	V	V	bits
	0	0.258333	4.16708E-003	4.16708E-003	5.17266E-004	...........
	1	0.516667	4.16695E-003	4.16023E-003	5.22633E-004	...........
	2	0.775	4.16553E-003	4.12132E-003	5.16500E-004	...........
	3	1.03333	4.15899E-003	4.06021E-003	5.14333E-004	...........
	4	1.29167	4.14224E-003	4.04928E-003	5.11700E-004	...........
	5	1.55	4.11476E-003	4.01897E-003	5.15600E-004	...........
	6	1.80833	4.08137E-003	3.94276E-003	5.11967E-004	...........
	7	2.06667	4.04475E-003	3.90925E-003	5.17900E-004	...........
	8	2.325	4.00427E-003	3.89355E-003	5.18733E-004	...........
	9	2.58333	3.96354E-003	3.91308E-003	5.21100E-004	...........
	10	2.84167	3.93094E-003	3.89189E-003	5.13600E-004	...........
	11	3.1	3.91133E-003	3.90492E-003	5.10933E-004	...........
	12	3.35833	3.90272E-003	3.90676E-003	5.17066E-004	...........
	13	3.61667	3.90011E-003	3.87265E-003	5.18066E-004	...........
	14	3.875	3.89940E-003	3.94238E-003	5.16566E-004	...........
	15	4.13333	3.89912E-003	3.84597E-003	5.13333E-004	...........
	16	4.39167	3.89649E-003	3.81677E-003	5.10367E-004	...........
	17	4.65	3.88557E-003	3.85482E-003	5.12167E-004	...........
	18	4.90833	3.86767E-003	3.84933E-003	5.17366E-004	...........
EOC	QUANT	0.0038677	Open Circuit (V)
PSTATMODEL	IQUANT	4	Pstat Model
PSTATSECTION	LABEL	REF600-11020	Pstat Section
PSTATSERIALNO	LABEL	11020	Pstat Serial Number
CTRLMODE	IQUANT	1	Control Mode
IESTAB	IQUANT	0	I/E Stability
CASPEED	IQUANT	1	Control Amp Speed
CONVENTION	IQUANT	1	Current Convention
ICHRANGE	IQUANT	2	Ich Range
ICHRANGEMODE	TOGGLE	F	Ich Auto Range
ICHOFFSETENABLE	TOGGLE	T	Ich Offset Enable
ICHOFFSET	QUANT	0	Ich Offset (V)
ICHFILTER	IQUANT	3	Ich Filter
VCHRANGE	IQUANT	2	Vch Range
VCHRANGEMODE	TOGGLE	F	Vch Auto Range
VCHOFFSETENABLE	TOGGLE	T	Vch Offset Enable
VCHOFFSET	QUANT	0	Vch Offset (V)
VCHFILTER	IQUANT	3	Vch Filter
ACHRANGE	IQUANT	2	Ach Range
ACHOFFSETENABLE	TOGGLE	F	Ach Offset Enable
ACHOFFSET	QUANT	0	Ach Offset (V)
ACHFILTER	IQUANT	3	Ach Filter
IERANGELOWERLIMIT	IQUANT	1	I/E Range Lower Limit
IERANGEMODE	TOGGLE	F	I/E AutoRange
IERANGE	IQUANT	4	I/E Range
POSFEEDENABLE	TOGGLE	F	Positive Feedback IR Comp
POSFEEDRESISTANCE	QUANT	0	Positive Feedback Resistance (ohm)
ACHSELECT	IQUANT	0	Ach Select
CABLEID	IQUANT	14	Cable ID
DCCALDATE	LABEL	8/19/2019	DC Calibration Date
ACCALDATE	LABEL	8/19/2019	AC Calibration Date
THERMOSELECT	IQUANT	1	Thermo Select
FRAMEWORKVERSION	QUANT	6.33	Framework Version
INSTRUMENTVERSION	LABEL	3.50	Instrument Version
ZCURVE	TABLE
	Pt	Time	Freq	Zreal	Zimag	Zsig	Zmod	Zphz	Idc	Vdc	IERange
	#	s	Hz	ohm	ohm	V	ohm	°	A	V	#
	0	2	1000078	2242.519	-1694.393	1	2810.669	-37.07381	-5.508664E-006	0.0053791	8
	1	3	794390.6	2520.049	-1734.351	1	3059.186	-34.53658	1.188688E-006	0.0051707	8
	2	5	630984.4	2803.434	-1783.457	1	3322.644	-32.46325	-9.41015E-007	0.0050948	8
	3	6	501234.4	3089.285	-1797.227	1	3574.032	-30.1892	6.135349E-006	0.0046013	8
	4	7	398109.4	3376.035	-1846.922	1	3848.211	-28.68167	-6.265528E-006	0.0061357	8
	5	9	316265.6	3695.474	-1836.135	1	4126.49	-26.42097	-4.001002E-006	0.0056424	8
	6	10	251203.1	4019.397	-1828.447	1	4415.742	-24.46107	-6.016692E-007	0.0056816	8
	7	11	199546.9	4350.822	-1783.758	1	4702.281	-22.29274	7.346887E-007	0.0056259	8
	8	13	158578.1	4668.982	-1678.273	1	4961.451	-19.77105	-1.974589E-006	0.0054372	8
	9	14	125953.1	5006.257	-1512.569	1	5229.769	-16.81144	2.502243E-006	-0.000216	7
	10	15	100078.1	5233.345	-1373.873	1	5410.677	-14.70953	-7.356151E-007	0.0051548	7
	11	17	79453.13	5437.36	-1244.404	1	5577.941	-12.89081	-7.266842E-007	0.0051411	7
	12	18	63140.62	5602.243	-1116.16	1	5712.35	-11.26775	-1.171231E-006	0.0066651	7
	13	20	50203.12	5746.805	-987.465	1	5831.025	-9.74984	4.344631E-007	0.0036618	7
	14	21	39890.62	5839.842	-881.838	1	5906.047	-8.587001	-1.175087E-006	0.0066656	7
	15	22	31640.63	5922.214	-790.5229	1	5974.743	-7.603145	-1.022435E-006	0.0057786	7
	16	24	25171.88	6013.691	-728.9066	1	6057.705	-6.910985	9.922598E-008	0.0061428	7
	17	26	20015.62	6070.069	-675.8135	1	6107.574	-6.352884	-8.430719E-007	0.0068578	7
	18	27	15890.62	6089.417	-650.9407	1	6124.11	-6.101579	-1.022504E-006	0.0057846	7
	19	29	12609.37	6169.594	-647.6527	1	6203.494	-5.992672	1.041386E-006	0.0037974	7
	20	31	10078.13	6210.586	-665.5959	1	6246.15	-6.117109	8.31373E-007	0.0049725	7
	21	32	8015.625	6215.311	-674.0296	1	6251.752	-6.189347	-1.172936E-006	0.0066565	7
	22	34	6328.125	6259.161	-765.2261	1	6305.765	-6.970219	-7.275281E-007	0.0051361	7
	23	35	5015.625	6305.953	-857.9568	1	6364.05	-7.747808	-1.042959E-006	0.0068097	7
	24	37	3984.375	6361.095	-987.059	1	6437.221	-8.820316	-1.185318E-006	0.006673	7
	25	38	3170.956	6429.245	-1144.775	1	6530.367	-10.09613	6.168395E-007	0.005395	7
	26	40	2527.573	6463.073	-1337.104	1	6599.937	-11.68866	-8.413686E-007	0.0068553	7
	27	41	1976.103	6527.228	-1607.848	1	6722.342	-13.83813	-3.337103E-007	0.0044605	7
	28	43	1577.524	6638.703	-1874.853	1	6898.366	-15.77034	-5.741842E-007	0.0067767	7
	29	44	1265.625	6708.523	-2302.913	1	7092.791	-18.9464	1.048417E-006	0.0037862	7
	30	46	998.264	6796.01	-2789.574	1	7346.256	-22.3168	-1.055896E-006	0.0068322	7
	31	47	796.875	6911.104	-3363.51	1	7686.127	-25.95135	-1.041283E-006	0.0068139	7
	32	48	627.7902	7076.312	-4145.188	1	8201.023	-30.36108	1.044327E-006	0.0037927	7
	33	50	505.5147	7225.369	-4985.293	1	8778.331	-34.60454	7.242715E-007	0.0035283	7
	34	51	397.9953	7434.227	-6134.514	1	9638.46	-39.52849	6.411838E-009	0.0052601	7
	35	53	315.5048	7686.85	-7520.776	1	10754.06	-44.37433	9.136158E-010	0.0052024	6
	36	54	252.4038	7982.885	-9165.146	1	12154.27	-48.94398	3.706392E-010	0.0052049	6
	37	55	198.6229	8379.137	-11343.61	1	14102.75	-53.54799	9.42836E-010	0.0052053	6
	38	57	158.3615	8858.713	-13888.57	1	16473.29	-57.46856	-3.984135E-011	0.0051983	6
	39	58	125.558	9490.332	-17089.3	1	19547.65	-60.95494	7.52642E-010	0.0051988	6
	40	59	100.4464	10268.74	-20875.1	1	23264.07	-63.80681	1.436446E-009	0.0051976	6
	41	61	79.00281	11380.31	-25794.88	1	28193.74	-66.19365	3.888649E-011	0.0052019	6
	42	62	63.3446	12493.19	-31300.18	1	33701.35	-68.24102	3.651239E-010	0.0051987	6
	43	63	49.86702	14793.02	-38726.5	1	41455.7	-69.09379	3.677014E-010	0.0051869	6
	44	65	39.72458	17013.05	-47365.75	1	50328.51	-70.24249	1.432876E-009	0.0052005	6
	45	66	31.6723	20253.05	-57609.13	1	61065.52	-70.63038	5.146518E-010	0.00519	6
	46	68	24.93351	24611.82	-70574.52	1	74742.93	-70.77454	1.157898E-010	0.0051975	6
	47	69	19.86229	30235.08	-85266.88	1	90468.79	-70.47583	-1.351958E-010	0.0051938	6
	48	70	15.83615	36980.81	-102398.8	1	108871.9	-70.14306	1.882748E-009	0.0051998	5
	49	72	12.40079	48608.26	-123602.5	1	132816.9	-68.53213	-2.651996E-010	0.0051954	5
	50	73	9.93114	61309.04	-147618.9	1	159844.1	-67.44593	1.227022E-010	0.0052037	5
	51	75	7.944915	76690.87	-173898.4	1	190058.2	-66.20206	2.583482E-010	0.0052007	5
	52	76	6.317385	96964.5	-203144.1	1	225099.2	-64.48399	6.206813E-010	0.005191	5
	53	78	5.008013	122748.3	-236426	1	266391.5	-62.56245	8.344916E-011	0.0052043	5
	54	81	3.945707	152936.3	-273020.3	1	312937	-60.744	8.955734E-011	0.0051975	5
	55	83	3.158693	186278.3	-309909.9	1	361585.1	-58.99109	5.409312E-011	0.0051792	5
	56	87	2.504006	223567.2	-351818.5	1	416843.6	-57.56561	4.685511E-010	0.0052015	5
	57	90	1.998082	265751.7	-395064.8	1	476130.4	-56.07212	3.254871E-010	0.0052157	5
	58	93	1.584686	308243.5	-445400.6	1	541660.2	-55.31448	-2.688341E-011	0.0051562	5
	59	96	1.266892	356734.9	-501873.2	1	615740.6	-54.59452	2.604619E-010	0.0052211	5
	60	101	0.999041	410678.6	-569301	1	701969	-54.19432	-8.703154E-011	0.0051652	5
