EXPLAIN
TAG	EISPOT
TITLE	LABEL	Potentiostatic EIS	Test &Identifier
DATE	LABEL	10/8/2019	Date
TIME	LABEL	8:24:56	Time
NOTES	NOTES	2	&Notes...
	
	
PSTAT	PSTAT	REF600-11020	Potentiostat
VDC	POTEN	0.00000E+000	T	DC &Voltage (V)
FREQINIT	QUANT	1.00000E+006	Initial Fre&q. (Hz)
FREQFINAL	QUANT	1.00000E+000	Final Fre&q. (Hz)
PTSPERDEC	QUANT	1.00000E+001	Points/&decade
VAC	QUANT	2.50000E+001	AC &Voltage (mV rms)
AREA	QUANT	1.00000E-002	&Area (cm^2)
CONDIT	TWOPARAM	T	5.00000E+000	0.00000E+000	Conditionin&g	Time(s)	E(V)
DELAY	TWOPARAM	T	5.00000E+000	0.00000E+000	Init. De&lay	Time(s)	Stab.(mV/s)
SPEED	SELECTOR	1	&Optimize for:
ZGUESS	QUANT	1.00000E+004	E&stimated Z (ohms)
OCVCURVE	TABLE	19
	Pt	T	Vf	Vm	Ach	Over
	#	s	V vs. Ref.	V	V	bits
	0	0.258333	7.51972E-003	7.51972E-003	5.63132E-004	...........
	1	0.516667	7.52013E-003	7.54160E-003	5.54599E-004	...........
	2	0.775	7.52267E-003	7.56062E-003	5.55933E-004	...........
	3	1.03333	7.52974E-003	7.57934E-003	5.62999E-004	...........
	4	1.29167	7.54265E-003	7.62032E-003	5.63466E-004	...........
	5	1.55	7.56204E-003	7.67389E-003	5.54133E-004	...........
	6	1.80833	7.58934E-003	7.71738E-003	5.54966E-004	...........
	7	2.06667	7.62533E-003	7.77067E-003	5.60666E-004	...........
	8	2.325	7.66837E-003	7.81628E-003	5.55399E-004	...........
	9	2.58333	7.71570E-003	7.87749E-003	5.48566E-004	...........
	10	2.84167	7.76529E-003	7.91389E-003	5.50966E-004	...........
	11	3.1	7.81574E-003	7.97051E-003	5.58899E-004	...........
	12	3.35833	7.86631E-003	8.04067E-003	5.54999E-004	...........
	13	3.61667	7.91807E-003	8.08571E-003	5.55233E-004	...........
	14	3.875	7.97207E-003	8.13560E-003	5.53366E-004	...........
	15	4.13333	8.02696E-003	8.19108E-003	5.58533E-004	...........
	16	4.39167	8.08114E-003	8.25339E-003	5.57833E-004	...........
	17	4.65	8.13526E-003	8.31426E-003	5.51832E-004	...........
	18	4.90833	8.19198E-003	8.42164E-003	5.59399E-004	...........
EOC	QUANT	0.008192	Open Circuit (V)
PSTATMODEL	IQUANT	4	Pstat Model
PSTATSECTION	LABEL	REF600-11020	Pstat Section
PSTATSERIALNO	LABEL	11020	Pstat Serial Number
CTRLMODE	IQUANT	1	Control Mode
IESTAB	IQUANT	0	I/E Stability
CASPEED	IQUANT	1	Control Amp Speed
CONVENTION	IQUANT	1	Current Convention
ICHRANGE	IQUANT	2	Ich Range
ICHRANGEMODE	TOGGLE	F	Ich Auto Range
ICHOFFSETENABLE	TOGGLE	T	Ich Offset Enable
ICHOFFSET	QUANT	0	Ich Offset (V)
ICHFILTER	IQUANT	3	Ich Filter
VCHRANGE	IQUANT	2	Vch Range
VCHRANGEMODE	TOGGLE	F	Vch Auto Range
VCHOFFSETENABLE	TOGGLE	T	Vch Offset Enable
VCHOFFSET	QUANT	0	Vch Offset (V)
VCHFILTER	IQUANT	3	Vch Filter
ACHRANGE	IQUANT	2	Ach Range
ACHOFFSETENABLE	TOGGLE	F	Ach Offset Enable
ACHOFFSET	QUANT	0	Ach Offset (V)
ACHFILTER	IQUANT	3	Ach Filter
IERANGELOWERLIMIT	IQUANT	1	I/E Range Lower Limit
IERANGEMODE	TOGGLE	F	I/E AutoRange
IERANGE	IQUANT	6	I/E Range
POSFEEDENABLE	TOGGLE	F	Positive Feedback IR Comp
POSFEEDRESISTANCE	QUANT	0	Positive Feedback Resistance (ohm)
ACHSELECT	IQUANT	0	Ach Select
CABLEID	IQUANT	14	Cable ID
DCCALDATE	LABEL	8/19/2019	DC Calibration Date
ACCALDATE	LABEL	8/19/2019	AC Calibration Date
THERMOSELECT	IQUANT	1	Thermo Select
FRAMEWORKVERSION	QUANT	6.33	Framework Version
INSTRUMENTVERSION	LABEL	3.50	Instrument Version
ZCURVE	TABLE
	Pt	Time	Freq	Zreal	Zimag	Zsig	Zmod	Zphz	Idc	Vdc	IERange
	#	s	Hz	ohm	ohm	V	ohm	°	A	V	#
	0	1	1000078	2390.319	-1300.517	1	2721.208	-28.54958	-3.277972E-007	0.0107268	8
	1	2	794390.6	2623.716	-1189.702	1	2880.846	-24.39151	2.143898E-006	0.0100261	8
	2	4	630984.4	2825.86	-1077.489	1	3024.312	-20.87164	3.130613E-006	0.0093575	8
	3	5	501234.4	2970.593	-925.9174	1	3111.55	-17.31197	-3.358086E-006	0.0105516	8
	4	6	398109.4	3095.847	-807.3742	1	3199.394	-14.61675	-3.086554E-006	0.0103897	8
	5	8	316265.6	3181.408	-687.8716	1	3254.923	-12.20046	1.748281E-006	0.0096773	8
	6	9	251203.1	3240.706	-593.0131	1	3294.516	-10.36976	-2.298269E-006	0.0102896	8
	7	11	199546.9	3287.294	-525.2683	1	3328.995	-9.078403	-2.150523E-006	0.0102896	8
	8	12	158578.1	3323.234	-457.1744	1	3354.533	-7.832965	3.019994E-006	0.009228	8
	9	13	125953.1	3387.081	-367.188	1	3406.926	-6.187181	-8.708039E-007	0.0118386	7
	10	15	100078.1	3402.535	-338.5711	1	3419.338	-5.682542	6.231314E-009	0.009732	7
	11	16	79453.13	3427.66	-325.4926	1	3443.08	-5.424573	-3.889829E-008	0.0098102	7
	12	17	63140.62	3453.972	-319.9455	1	3468.759	-5.292273	-7.917252E-008	0.0099203	7
	13	19	50203.12	3481.461	-322.8665	1	3496.4	-5.298387	4.320664E-008	0.0096459	7
	14	20	39890.62	3509.614	-333.7426	1	3525.447	-5.432139	1.37021E-007	0.0095708	7
	15	21	31640.63	3539.574	-351.7403	1	3557.008	-5.675057	4.523038E-008	0.0096452	7
	16	23	25171.88	3570.935	-378.16	1	3590.902	-6.04506	-3.817786E-008	0.0098053	7
	17	24	20015.62	3607.621	-413.5541	1	3631.248	-6.539468	6.082938E-008	0.0096866	7
	18	25	15890.62	3642.166	-459.3733	1	3671.021	-7.188553	-1.066943E-008	0.0099172	7
	19	27	12609.37	3682.881	-517.2144	1	3719.022	-7.99419	-5.537553E-008	0.009951	7
	20	28	10078.13	3726.115	-584.0051	1	3771.603	-8.907672	-7.714416E-008	0.0099089	7
	21	29	8015.625	3769.73	-665.7523	1	3828.066	-10.01544	6.408764E-008	0.0096781	7
	22	31	6328.125	3827.504	-773.5184	1	3904.884	-11.42529	-1.066787E-008	0.0099138	7
	23	32	5015.625	3883.877	-900.2872	1	3986.855	-13.05074	1.365475E-007	0.0095728	7
	24	33	3984.375	3946.562	-1057.823	1	4085.871	-15.00467	-3.664797E-008	0.0097931	7
	25	35	3170.956	4013.745	-1240.771	1	4201.15	-17.17797	-1.193992E-008	0.0099047	7
	26	36	2527.573	4089.568	-1465.605	1	4344.256	-19.71648	-4.985833E-009	0.0098089	7
	27	37	1976.103	4182.388	-1769.126	1	4541.165	-22.92809	1.36385E-007	0.0095617	7
	28	39	1577.524	4278.884	-2109.28	1	4770.525	-26.24103	-7.683939E-008	0.0099055	7
	29	40	1265.625	4387.354	-2510.44	1	5054.818	-29.77815	-1.243374E-008	0.0097453	7
	30	41	998.264	4519.108	-3041.15	1	5447.103	-33.93872	4.399132E-008	0.0096419	7
	31	43	796.875	4665.473	-3657.346	1	5928.138	-38.09352	-3.692455E-008	0.0097952	7
	32	44	627.7902	4835.746	-4464.951	1	6581.81	-42.71698	-2.044767E-008	0.0098398	7
	33	45	505.5147	5018.108	-5355.537	1	7339.154	-46.86303	8.001259E-008	0.0096129	7
	34	47	397.9953	5257.429	-6574.252	1	8417.919	-51.35068	5.502522E-009	0.009799	7
	35	48	315.5048	5528.742	-8041.902	1	9759.06	-55.4918	5.165635E-009	0.009795	7
	36	49	252.4038	5847.127	-9779.9	1	11394.53	-59.12598	1.270167E-009	0.0097314	6
	37	51	198.6229	6265.119	-12090.11	1	13616.99	-62.60672	7.844105E-010	0.0097261	6
	38	52	158.3615	6767.244	-14790.72	1	16265.33	-65.41434	7.734383E-010	0.0097271	6
	39	53	125.558	7416.186	-18199.88	1	19652.88	-67.82983	1.012572E-009	0.0097299	6
	40	55	100.4464	8225.76	-22226.17	1	23699.49	-69.69082	1.467918E-009	0.0097355	6
	41	56	79.00281	9386.999	-27551.72	1	29106.92	-71.18578	6.165641E-010	0.0097321	6
	42	57	63.3446	10742.87	-33307.94	1	34997.54	-72.12384	3.735649E-010	0.0097308	6
	43	59	49.86702	12695.16	-41542.89	1	43439.37	-73.00729	8.111184E-010	0.0097302	6
	44	60	39.72458	15115.32	-50452.82	1	52668.39	-73.32214	4.061841E-010	0.0097318	6
	45	62	31.6723	18406.88	-61403.01	1	64102.6	-73.31276	2.563609E-010	0.0097278	6
	46	63	24.93351	22809.36	-75386.22	1	78761.34	-73.16593	3.180345E-010	0.0097294	6
	47	64	19.86229	28474.3	-91288.8	1	95626.5	-72.67654	8.617668E-010	0.0097287	6
	48	66	15.83615	34971.74	-109662.6	1	115103.9	-72.31236	9.367744E-010	0.0097301	5
	49	67	12.40079	45920.88	-134607.3	1	142224.7	-71.16308	1.067505E-009	0.0097346	5
	50	68	9.93114	57649.03	-159383	1	169488.5	-70.11488	2.269942E-011	0.0097325	5
	51	70	7.944915	72765.23	-188908.2	1	202437.9	-68.9339	-2.459143E-010	0.0097298	5
	52	72	6.317385	92196.39	-223568.3	1	241832.5	-67.58944	1.121214E-012	0.0097238	5
	53	74	5.008013	116365.8	-263774.7	1	288302	-66.19504	-1.596883E-010	0.0097219	5
	54	76	3.945707	146673.6	-309751.7	1	342723.3	-64.66151	3.33538E-010	0.0097388	5
	55	79	3.158693	180749.1	-358756.6	1	401717	-63.26007	-3.325393E-011	0.0097303	5
	56	82	2.504006	221903.4	-415153.2	1	470737	-61.87507	4.325426E-010	0.0097312	5
	57	85	1.998082	268221	-475821.7	1	546213.1	-60.59002	2.025692E-011	0.009778	5
	58	88	1.584686	320566.3	-546221.1	1	633340.5	-59.59217	1.530818E-010	0.0097503	5
	59	91	1.266892	380177.3	-621896.7	1	728896.6	-58.56176	-6.275735E-011	0.0097759	5
	60	96	0.999041	447640.5	-713307.1	1	842133.6	-57.8894	9.991104E-011	0.0097069	5
