EXPLAIN
TAG	EISPOT
TITLE	LABEL	Potentiostatic IDE	Test &Identifier
DATE	LABEL	9/8/2019	Date
TIME	LABEL	9:10:09	Time
NOTES	NOTES	1	&Notes...
	
PSTAT	PSTAT	REF600-11020	Potentiostat
VDC	POTEN	0.00000E+000	T	DC &Voltage (V)
FREQINIT	QUANT	1.00000E+006	Initial Fre&q. (Hz)
FREQFINAL	QUANT	1.00000E+000	Final Fre&q. (Hz)
PTSPERDEC	QUANT	1.00000E+001	Points/&decade
VAC	QUANT	2.50000E+001	AC &Voltage (mV rms)
AREA	QUANT	1.00000E-002	&Area (cm^2)
CONDIT	TWOPARAM	T	5.00000E+000	0.00000E+000	Conditionin&g	Time(s)	E(V)
DELAY	TWOPARAM	T	5.00000E+000	0.00000E+000	Init. De&lay	Time(s)	Stab.(mV/s)
SPEED	SELECTOR	1	&Optimize for:
ZGUESS	QUANT	1.00000E+007	E&stimated Z (ohms)
OCVCURVE	TABLE	18
	Pt	T	Vf	Vm	Ach	Over
	#	s	V vs. Ref.	V	V	bits
	0	0.258333	3.89849E-003	3.89849E-003	5.84132E-004	...........
	1	0.516667	3.89374E-003	3.64951E-003	5.86665E-004	...........
	2	0.775	3.86504E-003	3.44036E-003	5.86565E-004	...........
	3	1.03333	3.78575E-003	3.24912E-003	5.85765E-004	...........
	4	1.29167	3.64830E-003	3.08218E-003	5.81499E-004	...........
	5	1.55	3.47290E-003	2.92995E-003	5.86265E-004	...........
	6	1.80833	3.28813E-003	2.79282E-003	5.86599E-004	...........
	7	2.06667	3.11297E-003	2.66297E-003	5.82265E-004	...........
	8	2.325	2.95405E-003	2.54598E-003	5.83332E-004	...........
	9	2.58333	2.81078E-003	2.43617E-003	5.84499E-004	...........
	10	2.84167	2.68050E-003	2.33392E-003	5.84265E-004	...........
	11	3.1	2.56070E-003	2.23347E-003	5.86699E-004	...........
	12	3.35833	2.44934E-003	2.14474E-003	5.85465E-004	...........
	13	3.61667	2.34501E-003	2.05695E-003	5.82665E-004	...........
	14	3.875	2.24698E-003	1.97840E-003	5.84665E-004	...........
	15	4.13333	2.15486E-003	1.89854E-003	5.83299E-004	...........
	16	4.39167	2.06817E-003	1.82854E-003	5.82132E-004	...........
	17	4.65	1.98626E-003	1.75246E-003	5.84832E-004	...........
EOC	QUANT	0.0019084	Open Circuit (V)
PSTATMODEL	IQUANT	4	Pstat Model
PSTATSECTION	LABEL	REF600-11020	Pstat Section
PSTATSERIALNO	LABEL	11020	Pstat Serial Number
CTRLMODE	IQUANT	1	Control Mode
IESTAB	IQUANT	0	I/E Stability
CASPEED	IQUANT	1	Control Amp Speed
CONVENTION	IQUANT	1	Current Convention
ICHRANGE	IQUANT	2	Ich Range
ICHRANGEMODE	TOGGLE	F	Ich Auto Range
ICHOFFSETENABLE	TOGGLE	T	Ich Offset Enable
ICHOFFSET	QUANT	0	Ich Offset (V)
ICHFILTER	IQUANT	3	Ich Filter
VCHRANGE	IQUANT	2	Vch Range
VCHRANGEMODE	TOGGLE	F	Vch Auto Range
VCHOFFSETENABLE	TOGGLE	T	Vch Offset Enable
VCHOFFSET	QUANT	0	Vch Offset (V)
VCHFILTER	IQUANT	3	Vch Filter
ACHRANGE	IQUANT	2	Ach Range
ACHOFFSETENABLE	TOGGLE	F	Ach Offset Enable
ACHOFFSET	QUANT	0	Ach Offset (V)
ACHFILTER	IQUANT	3	Ach Filter
IERANGELOWERLIMIT	IQUANT	1	I/E Range Lower Limit
IERANGEMODE	TOGGLE	F	I/E AutoRange
IERANGE	IQUANT	2	I/E Range
POSFEEDENABLE	TOGGLE	F	Positive Feedback IR Comp
POSFEEDRESISTANCE	QUANT	0	Positive Feedback Resistance (ohm)
ACHSELECT	IQUANT	0	Ach Select
CABLEID	IQUANT	14	Cable ID
DCCALDATE	LABEL	8/19/2019	DC Calibration Date
ACCALDATE	LABEL	8/19/2019	AC Calibration Date
THERMOSELECT	IQUANT	1	Thermo Select
FRAMEWORKVERSION	QUANT	6.33	Framework Version
INSTRUMENTVERSION	LABEL	3.50	Instrument Version
ZCURVE	TABLE
	Pt	Time	Freq	Zreal	Zimag	Zsig	Zmod	Zphz	Idc	Vdc	IERange
	#	s	Hz	ohm	ohm	V	ohm	°	A	V	#
	0	2	1000078	2493.798	-1534.952	1	2928.329	-31.61262	-1.019141E-005	0.0062079	8
	1	4	794390.6	2791.464	-1440.733	1	3141.334	-27.29921	1.124081E-005	0.0026521	8
	2	5	630984.4	3056.397	-1297.277	1	3320.315	-22.99862	-3.613764E-006	0.0041953	8
	3	7	501234.4	3256.645	-1149.149	1	3453.445	-19.43604	1.539157E-006	0.0036078	8
	4	8	398109.4	3389.176	-954.935	1	3521.138	-15.73573	-4.502955E-006	0.0046292	8
	5	10	316265.6	3528.454	-848.3695	1	3629.01	-13.51938	1.262501E-006	0.0035074	8
	6	11	251203.1	3588.869	-729.6116	1	3662.282	-11.49154	6.519543E-007	0.0034686	8
	7	12	199546.9	3668.382	-629.8302	1	3722.057	-9.74222	6.62758E-008	0.0039054	8
	8	14	158578.1	3722.105	-544.0017	1	3761.649	-8.315153	-2.404668E-006	0.0039519	8
	9	15	125953.1	3773.411	-438.7892	1	3798.838	-6.632821	-1.237128E-006	0.0066642	7
	10	17	100078.1	3781.635	-392.6163	1	3801.962	-5.927317	-4.504754E-008	0.0036963	7
	11	18	79453.13	3809.007	-375.4016	1	3827.461	-5.628682	-5.428099E-009	0.0035686	7
	12	19	63140.62	3835.102	-367.5537	1	3852.675	-5.474471	-6.826685E-009	0.0036598	7
	13	21	50203.12	3862.397	-369.8333	1	3880.063	-5.469525	-7.062711E-009	0.0036601	7
	14	22	39890.62	3891.098	-387.6158	1	3910.357	-5.688811	-4.360517E-008	0.003676	7
	15	23	31640.63	3922.526	-405.3736	1	3943.417	-5.900288	1.398487E-010	0.0035528	7
	16	25	25171.88	3956.285	-438.4151	1	3980.502	-6.323424	9.551847E-008	0.0034224	7
	17	26	20015.62	3992.896	-483.4679	1	4022.059	-6.903881	-1.478251E-008	0.0036704	7
	18	27	15890.62	4035.187	-543.3054	1	4071.599	-7.668298	5.550208E-008	0.0034505	7
	19	29	12609.37	4082.12	-611.994	1	4127.74	-8.526319	-7.150744E-008	0.0037271	7
	20	30	10078.13	4134.533	-693.5582	1	4192.3	-9.52257	9.749374E-008	0.0034282	7
	21	31	8015.625	4192.323	-797.7702	1	4267.553	-10.77418	-4.912153E-008	0.0036575	7
	22	33	6328.125	4260.777	-926.6874	1	4360.387	-12.27031	-1.770164E-008	0.0036682	7
	23	34	5015.625	4335.745	-1078.453	1	4467.857	-13.96803	1.493008E-007	0.0033944	7
	24	35	3984.375	4421.495	-1261.06	1	4597.814	-15.91875	5.428005E-008	0.0034522	7
	25	37	3170.956	4518.211	-1475.463	1	4753.023	-18.08492	1.530622E-007	0.0033873	7
	26	38	2527.573	4628.6	-1733.538	1	4942.579	-20.53231	-4.61696E-008	0.003761	7
	27	39	1976.103	4767.067	-2068.671	1	5196.569	-23.45845	2.115134E-009	0.003548	7
	28	41	1577.524	4913.272	-2439.763	1	5485.68	-26.40742	1.532639E-007	0.0033929	7
	29	42	1265.625	5081.54	-2871.466	1	5836.726	-29.46983	4.012498E-008	0.0035841	7
	30	43	998.264	5282.838	-3427.297	1	6297.201	-32.97392	3.065616E-008	0.0035149	7
	31	45	796.875	5503.23	-4061.902	1	6839.926	-36.43081	-4.135744E-009	0.0035565	7
	32	46	627.7902	5773.764	-4876.972	1	7557.857	-40.18705	9.93256E-008	0.0034158	7
	33	48	505.5147	6049.306	-5769.852	1	8359.742	-43.64554	-3.455505E-008	0.0036167	7
	34	49	397.9953	6405.518	-6965.387	1	9462.942	-47.3977	6.536857E-009	0.0036315	7
	35	50	315.5048	6806.822	-8381.852	1	10797.6	-50.92028	6.382789E-010	0.0035667	6
	36	52	252.4038	7251.696	-10041.98	1	12386.63	-54.16553	5.540685E-010	0.0035639	6
	37	53	198.6229	7813.736	-12220.86	1	14505.3	-57.40608	1.410463E-009	0.0035667	6
	38	54	158.3615	8442.528	-14746.57	1	16992.28	-60.20851	1.029721E-009	0.0035637	6
	39	56	125.558	9226.15	-17906.98	1	20144.03	-62.74128	1.447522E-009	0.003571	6
	40	57	100.4464	10119.6	-21618.82	1	23870.06	-64.91608	4.959216E-010	0.003569	6
	41	58	79.00281	11360.89	-26515.72	1	28847.06	-66.80687	4.65242E-010	0.0035674	6
	42	60	63.3446	12505.45	-32148.72	1	34495.31	-68.74458	9.251981E-010	0.0035645	6
	43	61	49.86702	14612.73	-38938.12	1	41589.78	-69.42985	2.872237E-010	0.0035656	6
	44	62	39.72458	16674.9	-47499.89	1	50341.75	-70.65631	1.383262E-009	0.0035727	6
	45	64	31.6723	19562.47	-57700.37	1	60926.37	-71.27152	1.817722E-009	0.0035647	6
	46	65	24.93351	23032.58	-70553.53	1	74217.93	-71.92045	8.497896E-010	0.0035673	6
	47	66	19.86229	27522.8	-85502.72	1	89823.27	-72.15695	8.071901E-010	0.003564	6
	48	68	15.83615	33265.16	-103793.8	1	108994.1	-72.22972	-4.774161E-010	0.0035701	5
	49	69	12.40079	41483.38	-126687.1	1	133306	-71.86909	1.449654E-009	0.003572	5
	50	71	9.93114	50438.01	-152673	1	160788.8	-71.71819	6.274873E-010	0.003575	5
	51	72	7.944915	62312.73	-182744.1	1	193075.9	-71.17147	7.468879E-010	0.0035746	5
	52	74	6.317385	77701.8	-219595	1	232936.8	-70.51411	6.7157E-010	0.0035666	5
	53	76	5.008013	98418.9	-263619.7	1	281392.3	-69.52756	2.150597E-010	0.0035762	5
	54	78	3.945707	124998.9	-315830.9	1	339667.3	-68.40743	4.339652E-010	0.0035806	5
	55	81	3.158693	156348.8	-372190.6	1	403696.4	-67.21384	2.20869E-011	0.0035584	5
	56	84	2.504006	197108.7	-437970	1	480280.7	-65.76984	5.370115E-010	0.0035736	5
	57	87	1.998082	245076.3	-511598.2	1	567269.9	-64.40368	4.044183E-010	0.0035797	5
	58	90	1.584686	306812.1	-594556.6	1	669052.4	-62.70467	1.213691E-010	0.0035251	5
	59	94	1.266892	373874.7	-682689.3	1	778361.7	-61.29269	3.633328E-010	0.0035711	5
	60	98	0.999041	461199.7	-788798.1	1	913732.8	-59.68575	-1.673033E-010	0.0035546	5
