EXPLAIN
TAG	EISPOT
TITLE	LABEL	Potentiostatic EIS	Test &Identifier
DATE	LABEL	10/6/2019	Date
TIME	LABEL	9:12:21	Time
NOTES	NOTES	2	&Notes...
	
	
PSTAT	PSTAT	REF600-11020	Potentiostat
VDC	POTEN	0.00000E+000	T	DC &Voltage (V)
FREQINIT	QUANT	1.00000E+006	Initial Fre&q. (Hz)
FREQFINAL	QUANT	1.00000E+000	Final Fre&q. (Hz)
PTSPERDEC	QUANT	1.00000E+001	Points/&decade
VAC	QUANT	2.50000E+001	AC &Voltage (mV rms)
AREA	QUANT	1.00000E-002	&Area (cm^2)
CONDIT	TWOPARAM	T	5.00000E+000	0.00000E+000	Conditionin&g	Time(s)	E(V)
DELAY	TWOPARAM	T	5.00000E+000	0.00000E+000	Init. De&lay	Time(s)	Stab.(mV/s)
SPEED	SELECTOR	1	&Optimize for:
ZGUESS	QUANT	1.00000E+004	E&stimated Z (ohms)
OCVCURVE	TABLE	19
	Pt	T	Vf	Vm	Ach	Over
	#	s	V vs. Ref.	V	V	bits
	0	0.258333	6.82507E-003	6.82507E-003	5.52999E-004	...........
	1	0.516667	6.82441E-003	6.79063E-003	5.47499E-004	...........
	2	0.775	6.82056E-003	6.76825E-003	5.48099E-004	...........
	3	1.03333	6.81093E-003	6.77743E-003	5.47733E-004	...........
	4	1.29167	6.79750E-003	6.78598E-003	5.54999E-004	...........
	5	1.55	6.78674E-003	6.80059E-003	5.50466E-004	...........
	6	1.80833	6.78383E-003	6.82198E-003	5.44499E-004	...........
	7	2.06667	6.78986E-003	6.84790E-003	5.40399E-004	...........
	8	2.325	6.80364E-003	6.87843E-003	5.45633E-004	...........
	9	2.58333	6.82354E-003	6.90358E-003	5.42399E-004	...........
	10	2.84167	6.84778E-003	6.93303E-003	5.43399E-004	...........
	11	3.1	6.87457E-003	6.96549E-003	5.45933E-004	...........
	12	3.35833	6.90293E-003	6.99974E-003	5.54099E-004	...........
	13	3.61667	6.93263E-003	7.02455E-003	5.46133E-004	...........
	14	3.875	6.96329E-003	7.06049E-003	5.45966E-004	...........
	15	4.13333	6.99430E-003	7.09101E-003	5.43466E-004	...........
	16	4.39167	7.02543E-003	7.11979E-003	5.46499E-004	...........
	17	4.65	7.05658E-003	7.15061E-003	5.48166E-004	...........
	18	4.90833	7.08750E-003	7.18324E-003	5.39466E-004	...........
EOC	QUANT	0.0070875	Open Circuit (V)
PSTATMODEL	IQUANT	4	Pstat Model
PSTATSECTION	LABEL	REF600-11020	Pstat Section
PSTATSERIALNO	LABEL	11020	Pstat Serial Number
CTRLMODE	IQUANT	1	Control Mode
IESTAB	IQUANT	0	I/E Stability
CASPEED	IQUANT	1	Control Amp Speed
CONVENTION	IQUANT	1	Current Convention
ICHRANGE	IQUANT	2	Ich Range
ICHRANGEMODE	TOGGLE	F	Ich Auto Range
ICHOFFSETENABLE	TOGGLE	T	Ich Offset Enable
ICHOFFSET	QUANT	0	Ich Offset (V)
ICHFILTER	IQUANT	3	Ich Filter
VCHRANGE	IQUANT	2	Vch Range
VCHRANGEMODE	TOGGLE	F	Vch Auto Range
VCHOFFSETENABLE	TOGGLE	T	Vch Offset Enable
VCHOFFSET	QUANT	0	Vch Offset (V)
VCHFILTER	IQUANT	3	Vch Filter
ACHRANGE	IQUANT	2	Ach Range
ACHOFFSETENABLE	TOGGLE	F	Ach Offset Enable
ACHOFFSET	QUANT	0	Ach Offset (V)
ACHFILTER	IQUANT	3	Ach Filter
IERANGELOWERLIMIT	IQUANT	1	I/E Range Lower Limit
IERANGEMODE	TOGGLE	F	I/E AutoRange
IERANGE	IQUANT	6	I/E Range
POSFEEDENABLE	TOGGLE	F	Positive Feedback IR Comp
POSFEEDRESISTANCE	QUANT	0	Positive Feedback Resistance (ohm)
ACHSELECT	IQUANT	0	Ach Select
CABLEID	IQUANT	14	Cable ID
DCCALDATE	LABEL	8/19/2019	DC Calibration Date
ACCALDATE	LABEL	8/19/2019	AC Calibration Date
THERMOSELECT	IQUANT	1	Thermo Select
FRAMEWORKVERSION	QUANT	6.33	Framework Version
INSTRUMENTVERSION	LABEL	3.50	Instrument Version
ZCURVE	TABLE
	Pt	Time	Freq	Zreal	Zimag	Zsig	Zmod	Zphz	Idc	Vdc	IERange
	#	s	Hz	ohm	ohm	V	ohm	°	A	V	#
	0	1	1000078	2476.199	-1487.718	1	2888.748	-30.99774	-4.352789E-006	0.0099107	8
	1	3	794390.6	2747.997	-1366.061	1	3068.813	-26.43251	8.09933E-006	0.0074298	8
	2	4	630984.4	2976.52	-1217.418	1	3215.864	-22.24491	-4.216238E-008	0.0085227	8
	3	5	501234.4	3167.983	-1079.702	1	3346.92	-18.81998	-2.768138E-006	0.0092185	8
	4	7	398109.4	3299.037	-930.5756	1	3427.771	-15.75243	5.522089E-006	0.0074485	8
	5	8	316265.6	3411.042	-788.4547	1	3500.98	-13.01521	1.203494E-007	0.0086056	8
	6	9	251203.1	3493.479	-686.8489	1	3560.359	-11.12299	-3.146388E-006	0.0091948	8
	7	11	199546.9	3555.057	-575.7704	1	3601.38	-9.199636	1.569879E-006	0.0083949	8
	8	12	158578.1	3582.607	-522.2256	1	3620.469	-8.293419	-3.757231E-007	0.0085387	8
	9	13	125953.1	3639.334	-418.9828	1	3663.373	-6.567333	1.496241E-006	0.0053964	7
	10	15	100078.1	3674.352	-373.247	1	3693.261	-5.800308	1.355416E-008	0.0084553	7
	11	16	79453.13	3702.304	-354.8764	1	3719.273	-5.475235	-8.76018E-008	0.0086531	7
	12	17	63140.62	3729.394	-345.0133	1	3745.319	-5.285497	4.466935E-008	0.0084788	7
	13	19	50203.12	3757.257	-343.7773	1	3772.952	-5.227829	6.112627E-008	0.0084217	7
	14	20	39890.62	3786.316	-351.1734	1	3802.567	-5.298912	-8.735491E-008	0.0086409	7
	15	22	31640.63	3815.933	-367.6219	1	3833.601	-5.502816	4.51288E-008	0.0084785	7
	16	23	25171.88	3847.504	-392.6652	1	3867.49	-5.827266	-4.371613E-008	0.0085256	7
	17	24	20015.62	3881.077	-427.724	1	3904.575	-6.289049	-5.278299E-008	0.0086403	7
	18	26	15890.62	3917.8	-471.8843	1	3946.116	-6.867978	1.323407E-007	0.0083262	7
	19	27	12609.37	3956.657	-530.4481	1	3992.056	-7.635813	-1.216649E-008	0.0085791	7
	20	28	10078.13	3998.823	-597.3145	1	4043.188	-8.495604	-8.45592E-008	0.0087789	7
	21	30	8015.625	4043.677	-683.6185	1	4101.056	-9.59562	-4.34786E-008	0.0085207	7
	22	31	6328.125	4093.921	-795.4726	1	4170.488	-10.99588	-8.711422E-008	0.0086414	7
	23	32	5015.625	4147.393	-929.6837	1	4250.315	-12.63462	-3.787235E-009	0.0084571	7
	24	34	3984.375	4204.966	-1093.067	1	4344.714	-14.57135	-8.706674E-009	0.0085488	7
	25	35	3170.956	4269.261	-1293.826	1	4461.006	-16.85975	5.185316E-008	0.0083556	7
	26	36	2527.573	4340.972	-1539.054	1	4605.728	-19.52152	1.345535E-007	0.0083163	7
	27	38	1976.103	4432.213	-1866.891	1	4809.344	-22.8413	-2.487068E-009	0.0084628	7
	28	39	1577.524	4531.207	-2237.19	1	5053.4	-26.2769	-4.139395E-008	0.0085214	7
	29	40	1265.625	4639.276	-2671.895	1	5353.682	-29.9389	-8.556401E-008	0.0086448	7
	30	42	998.264	4776.552	-3251.434	1	5778.172	-34.2434	1.802249E-008	0.0086163	7
	31	43	796.875	4927.499	-3917.95	1	6295.283	-38.4889	6.387979E-008	0.0084205	7
	32	44	627.7902	5115.246	-4792.161	1	7009.318	-43.13222	-3.12488E-008	0.0085081	7
	33	46	505.5147	5308.266	-5791.16	1	7855.903	-47.49115	4.778805E-008	0.0084717	7
	34	47	397.9953	5576.87	-7084.623	1	9016.283	-51.7909	5.572133E-009	0.0085423	7
	35	48	315.5048	5889.682	-8671.014	1	10482.12	-55.81416	1.073176E-009	0.0084809	6
	36	50	252.4038	6256.109	-10548.63	1	12264.28	-59.32896	2.403514E-010	0.0084842	6
	37	51	198.6229	6751.622	-13033.68	1	14678.59	-62.61523	9.932212E-010	0.0084782	6
	38	53	158.3615	7347.089	-15928.94	1	17541.69	-65.23889	8.120526E-010	0.0084792	6
	39	54	125.558	8141.067	-19575.21	1	21200.61	-67.41822	1.138796E-009	0.0084797	6
	40	55	100.4464	9131.119	-23861.19	1	25548.65	-69.05932	4.920822E-011	0.0084754	6
	41	57	79.00281	10522.95	-29417.17	1	31242.63	-70.31713	8.496638E-010	0.0084779	6
	42	58	63.3446	12173	-36023.07	1	38024.25	-71.32874	3.335597E-010	0.0084714	6
	43	59	49.86702	14601.21	-43772.59	1	46143.63	-71.55286	-6.555325E-011	0.0084767	6
	44	61	39.72458	17854.94	-53314.18	1	56224.56	-71.48428	3.9759E-010	0.0084748	6
	45	62	31.6723	21713.74	-64496.95	1	68053.97	-71.39352	1.762157E-010	0.0084762	6
	46	63	24.93351	27521.07	-78529.64	1	83212.46	-70.68675	5.137794E-010	0.0084771	6
	47	65	19.86229	34616.92	-94214.84	1	100373.1	-69.82539	1.161339E-009	0.0084833	6
	48	66	15.83615	42601.54	-111640.7	1	119492.9	-69.1134	1.129633E-009	0.0084832	5
	49	68	12.40079	56339	-134151	1	145501.1	-67.2192	-7.306877E-010	0.0084857	5
	50	69	9.93114	69674.32	-157745.5	1	172447.6	-66.16953	-2.019053E-010	0.008486	5
	51	71	7.944915	86889.95	-184286.6	1	203743.5	-64.75642	1.788355E-010	0.0084776	5
	52	72	6.317385	108136.9	-213933.7	1	239710.6	-63.18481	4.651849E-010	0.0084655	5
	53	74	5.008013	133580.3	-247487.5	1	281236.1	-61.64225	-2.213044E-011	0.0084786	5
	54	77	3.945707	163532.4	-285357.3	1	328894.6	-60.18387	1.304592E-010	0.0084766	5
	55	79	3.158693	195302.8	-324487	1	378728.2	-58.95703	-7.451128E-012	0.0084673	5
	56	83	2.504006	231682.3	-370302	1	436806.9	-57.96753	3.207618E-010	0.0084861	5
	57	85	1.998082	270527.1	-420614.2	1	500101.2	-57.25203	3.407165E-010	0.0084889	5
	58	89	1.584686	315124.3	-478529.7	1	572969.4	-56.63405	1.166616E-010	0.0084363	5
	59	92	1.266892	361155.2	-545948.8	1	654593.9	-56.51463	2.160751E-010	0.0085038	5
	60	96	0.999041	416590.8	-628630.5	1	754138.1	-56.46773	-1.104716E-010	0.0084497	5
