EXPLAIN
TAG	EISPOT
TITLE	LABEL	Potentiostatic IDE	Test &Identifier
DATE	LABEL	9/14/2019	Date
TIME	LABEL	9:10:35	Time
NOTES	NOTES	1	&Notes...
	
PSTAT	PSTAT	REF600-11020	Potentiostat
VDC	POTEN	0.00000E+000	T	DC &Voltage (V)
FREQINIT	QUANT	1.00000E+006	Initial Fre&q. (Hz)
FREQFINAL	QUANT	1.00000E+000	Final Fre&q. (Hz)
PTSPERDEC	QUANT	1.00000E+001	Points/&decade
VAC	QUANT	2.50000E+001	AC &Voltage (mV rms)
AREA	QUANT	1.00000E-002	&Area (cm^2)
CONDIT	TWOPARAM	T	5.00000E+000	0.00000E+000	Conditionin&g	Time(s)	E(V)
DELAY	TWOPARAM	T	5.00000E+000	0.00000E+000	Init. De&lay	Time(s)	Stab.(mV/s)
SPEED	SELECTOR	1	&Optimize for:
ZGUESS	QUANT	1.00000E+007	E&stimated Z (ohms)
OCVCURVE	TABLE	19
	Pt	T	Vf	Vm	Ach	Over
	#	s	V vs. Ref.	V	V	bits
	0	0.258333	8.45740E-003	8.45740E-003	5.58666E-004	...........
	1	0.516667	8.45810E-003	8.49400E-003	5.57333E-004	...........
	2	0.775	8.46261E-003	8.53996E-003	5.57732E-004	...........
	3	1.03333	8.47649E-003	8.60546E-003	5.52699E-004	...........
	4	1.29167	8.50468E-003	8.67821E-003	5.53133E-004	...........
	5	1.55	8.54868E-003	8.75111E-003	5.51599E-004	...........
	6	1.80833	8.60632E-003	8.82640E-003	5.54933E-004	...........
	7	2.06667	8.67332E-003	8.89962E-003	5.54833E-004	...........
	8	2.325	8.74544E-003	8.97949E-003	5.58932E-004	...........
	9	2.58333	8.82016E-003	9.06346E-003	5.58366E-004	...........
	10	2.84167	8.89684E-003	9.14107E-003	5.61166E-004	...........
	11	3.1	8.97533E-003	9.22005E-003	5.54099E-004	...........
	12	3.35833	9.05478E-003	9.29455E-003	5.57766E-004	...........
	13	3.61667	9.13385E-003	9.36706E-003	5.60566E-004	...........
	14	3.875	9.21153E-003	9.44413E-003	5.57566E-004	...........
	15	4.13333	9.28761E-003	9.51534E-003	5.60366E-004	...........
	16	4.39167	9.36245E-003	9.58641E-003	5.54333E-004	...........
	17	4.65	9.43613E-003	9.65196E-003	5.57099E-004	...........
	18	4.90833	9.50834E-003	9.72508E-003	5.59632E-004	...........
EOC	QUANT	0.0095083	Open Circuit (V)
PSTATMODEL	IQUANT	4	Pstat Model
PSTATSECTION	LABEL	REF600-11020	Pstat Section
PSTATSERIALNO	LABEL	11020	Pstat Serial Number
CTRLMODE	IQUANT	1	Control Mode
IESTAB	IQUANT	0	I/E Stability
CASPEED	IQUANT	1	Control Amp Speed
CONVENTION	IQUANT	1	Current Convention
ICHRANGE	IQUANT	2	Ich Range
ICHRANGEMODE	TOGGLE	F	Ich Auto Range
ICHOFFSETENABLE	TOGGLE	T	Ich Offset Enable
ICHOFFSET	QUANT	0	Ich Offset (V)
ICHFILTER	IQUANT	3	Ich Filter
VCHRANGE	IQUANT	2	Vch Range
VCHRANGEMODE	TOGGLE	F	Vch Auto Range
VCHOFFSETENABLE	TOGGLE	T	Vch Offset Enable
VCHOFFSET	QUANT	0	Vch Offset (V)
VCHFILTER	IQUANT	3	Vch Filter
ACHRANGE	IQUANT	2	Ach Range
ACHOFFSETENABLE	TOGGLE	F	Ach Offset Enable
ACHOFFSET	QUANT	0	Ach Offset (V)
ACHFILTER	IQUANT	3	Ach Filter
IERANGELOWERLIMIT	IQUANT	1	I/E Range Lower Limit
IERANGEMODE	TOGGLE	F	I/E AutoRange
IERANGE	IQUANT	3	I/E Range
POSFEEDENABLE	TOGGLE	F	Positive Feedback IR Comp
POSFEEDRESISTANCE	QUANT	0	Positive Feedback Resistance (ohm)
ACHSELECT	IQUANT	0	Ach Select
CABLEID	IQUANT	14	Cable ID
DCCALDATE	LABEL	8/19/2019	DC Calibration Date
ACCALDATE	LABEL	8/19/2019	AC Calibration Date
THERMOSELECT	IQUANT	1	Thermo Select
FRAMEWORKVERSION	QUANT	6.33	Framework Version
INSTRUMENTVERSION	LABEL	3.50	Instrument Version
ZCURVE	TABLE
	Pt	Time	Freq	Zreal	Zimag	Zsig	Zmod	Zphz	Idc	Vdc	IERange
	#	s	Hz	ohm	ohm	V	ohm	°	A	V	#
	0	2	1000078	2500.548	-1731.881	1	3041.735	-34.70649	-8.843056E-006	0.0129917	8
	1	3	794390.6	2842.167	-1649.861	1	3286.329	-30.13492	5.934996E-007	0.0119348	8
	2	5	630984.4	3123.313	-1509.141	1	3468.803	-25.78918	4.241911E-006	0.0105472	8
	3	6	501234.4	3400.932	-1364.903	1	3664.601	-21.86717	3.376286E-006	0.0105339	8
	4	7	398109.4	3567.709	-1209.652	1	3767.201	-18.72952	-2.193341E-006	0.0116177	8
	5	9	316265.6	3745.997	-1027.558	1	3884.375	-15.3394	-1.694583E-006	0.0114717	8
	6	10	251203.1	3836.223	-898.8796	1	3940.126	-13.18728	7.04614E-007	0.0109116	8
	7	11	199546.9	3923.2	-778.2083	1	3999.639	-11.21959	9.217077E-008	0.0113518	8
	8	13	158578.1	4013.093	-673.6172	1	4069.236	-9.52855	1.004025E-007	0.0113521	8
	9	14	125953.1	4080.2	-548.0098	1	4116.837	-7.649591	-9.342384E-007	0.0131428	7
	10	16	100078.1	4109.134	-506.4256	1	4140.223	-7.025925	1.37917E-008	0.0112127	7
	11	17	79453.13	4147.081	-485.1904	1	4175.367	-6.67302	-4.924967E-008	0.011207	7
	12	18	63140.62	4188.521	-474.7833	1	4215.344	-6.467071	4.382606E-009	0.0110742	7
	13	20	50203.12	4227.536	-475.5526	1	4254.199	-6.418182	-8.810029E-008	0.0113541	7
	14	21	39890.62	4268.967	-485.9859	1	4296.541	-6.494681	5.030451E-008	0.0109405	7
	15	22	31640.63	4317.646	-513.668	1	4348.094	-6.784559	-6.327033E-008	0.0111693	7
	16	24	25171.88	4366.505	-548.4034	1	4400.808	-7.158481	5.213444E-008	0.0110327	7
	17	25	20015.62	4420.977	-593.4355	1	4460.628	-7.645214	-8.756429E-008	0.0113492	7
	18	26	15890.62	4476.663	-653.9469	1	4524.174	-8.310933	-7.536573E-008	0.0112223	7
	19	28	12609.37	4547.406	-723.0132	1	4604.525	-9.034103	2.107398E-008	0.0109913	7
	20	29	10078.13	4617.763	-804.7589	1	4687.363	-9.88591	-4.03688E-008	0.0110791	7
	21	30	8015.625	4697.813	-906.2828	1	4784.433	-10.91913	-8.390283E-008	0.0111955	7
	22	32	6328.125	4788.33	-1028.125	1	4897.463	-12.11826	-6.098254E-008	0.0111627	7
	23	33	5015.625	4887.507	-1173.184	1	5026.339	-13.49776	7.662372E-008	0.0109637	7
	24	34	3984.375	4995.598	-1340.338	1	5172.282	-15.01895	1.580918E-008	0.0111915	7
	25	36	3170.956	5112.068	-1539.694	1	5338.904	-16.76168	-7.336162E-009	0.0110724	7
	26	37	2527.573	5238.264	-1773.597	1	5530.376	-18.70532	-7.473911E-008	0.0112262	7
	27	38	1976.103	5391.009	-2075.622	1	5776.78	-21.05748	-5.201509E-009	0.0110314	7
	28	40	1577.524	5543.896	-2412.714	1	6046.154	-23.51877	5.240477E-008	0.0110267	7
	29	41	1265.625	5706.117	-2805.933	1	6358.697	-26.18525	2.041572E-008	0.0109859	7
	30	42	998.264	5897.648	-3323.232	1	6769.5	-29.40058	-1.183104E-008	0.0111371	7
	31	44	796.875	6096.229	-3924.164	1	7250.039	-32.76952	1.888739E-008	0.0111923	7
	32	45	627.7902	6329.657	-4690.919	1	7878.406	-36.54221	-6.00326E-008	0.0111655	7
	33	46	505.5147	6563.151	-5560.413	1	8601.927	-40.27184	-8.823081E-008	0.0113332	7
	34	48	397.9953	6849.615	-6714.12	1	9591.49	-44.42766	7.135532E-009	0.0111017	7
	35	49	315.5048	7165.802	-8111.511	1	10823.37	-48.54225	-3.188755E-010	0.0110451	6
	36	50	252.4038	7509.252	-9773.07	1	12324.84	-52.4627	-5.243928E-010	0.0110427	6
	37	52	198.6229	7936.577	-11984.16	1	14373.91	-56.48526	4.572202E-010	0.0110433	6
	38	53	158.3615	8423.209	-14576.54	1	16835.26	-59.97807	-5.490539E-010	0.0110334	6
	39	54	125.558	9031.702	-17870.27	1	20022.94	-63.18779	1.036004E-010	0.0110435	6
	40	56	100.4464	9782.89	-21791.75	1	23886.93	-65.82343	-5.955123E-010	0.0110387	6
	41	57	79.00281	10793.56	-27008.6	1	29085.48	-68.21666	5.043064E-010	0.0110366	6
	42	58	63.3446	11930.6	-32454.14	1	34577.6	-69.81586	-4.687295E-010	0.011038	6
	43	60	49.86702	13441.35	-40459.21	1	42633.53	-71.62249	6.872717E-010	0.0110324	6
	44	61	39.72458	15821.51	-49578.94	1	52042.21	-72.3012	-2.003387E-010	0.0110408	6
	45	63	31.6723	18595.72	-60311.16	1	63112.89	-72.86391	-5.993279E-010	0.011035	6
	46	64	24.93351	22602.55	-74451.63	1	77806.95	-73.11239	-4.729089E-010	0.0110336	6
	47	65	19.86229	27529.02	-90551.84	1	94643.98	-73.09	2.990283E-011	0.0110374	6
	48	67	15.83615	34039.93	-110137.8	1	115278.2	-72.82536	3.167506E-010	0.0110349	5
	49	68	12.40079	42371.26	-134292.4	1	140818.2	-72.48874	-4.579944E-010	0.0110385	5
	50	70	9.93114	53563.69	-161328.1	1	169987.8	-71.63296	-5.166965E-010	0.0110432	5
	51	71	7.944915	66685.39	-191821.8	1	203082.6	-70.83038	-9.582275E-010	0.0110437	5
	52	73	6.317385	84395.17	-230095	1	245084.1	-69.85777	-5.631349E-010	0.0110374	5
	53	75	5.008013	107324.8	-274862	1	295072.4	-68.67095	-2.957056E-010	0.0110373	5
	54	77	3.945707	136051.2	-327659.5	1	354782.6	-67.45074	-3.877016E-010	0.0110351	5
	55	80	3.158693	170227.5	-383865.9	1	419917.2	-66.08484	-1.642167E-010	0.0110313	5
	56	83	2.504006	212916.3	-450714.6	1	498474.6	-64.71409	-2.980919E-011	0.0110478	5
	57	86	1.998082	262754.1	-523303.5	1	585564.9	-63.33848	8.595942E-011	0.0110403	5
	58	89	1.584686	326552.6	-605697.4	1	688117.6	-61.66934	-1.530754E-010	0.0109923	5
	59	93	1.266892	395192.3	-695127.6	1	799612	-60.38101	1.111318E-010	0.0110446	5
	60	97	0.999041	482466	-798562.1	1	932992.4	-58.86095	-3.347993E-010	0.0110288	5
