EXPLAIN
TAG	EISPOT
TITLE	LABEL	Potentiostatic EIS	Test &Identifier
DATE	LABEL	11/5/2019	Date
TIME	LABEL	8:51:47	Time
NOTES	NOTES	2	&Notes...
	
	
PSTAT	PSTAT	REF600-11020	Potentiostat
VDC	POTEN	0.00000E+000	T	DC &Voltage (V)
FREQINIT	QUANT	1.00000E+006	Initial Fre&q. (Hz)
FREQFINAL	QUANT	1.00000E+000	Final Fre&q. (Hz)
PTSPERDEC	QUANT	1.00000E+001	Points/&decade
VAC	QUANT	2.50000E+001	AC &Voltage (mV rms)
AREA	QUANT	1.00000E-002	&Area (cm^2)
CONDIT	TWOPARAM	T	5.00000E+000	0.00000E+000	Conditionin&g	Time(s)	E(V)
DELAY	TWOPARAM	T	5.00000E+000	0.00000E+000	Init. De&lay	Time(s)	Stab.(mV/s)
SPEED	SELECTOR	1	&Optimize for:
ZGUESS	QUANT	1.00000E+005	E&stimated Z (ohms)
OCVCURVE	TABLE	19
	Pt	T	Vf	Vm	Ach	Over
	#	s	V vs. Ref.	V	V	bits
	0	0.258333	4.18520E-003	4.18520E-003	5.58533E-004	...........
	1	0.516667	4.18142E-003	3.98721E-003	5.60099E-004	...........
	2	0.775	4.15839E-003	3.80997E-003	5.54833E-004	...........
	3	1.03333	4.09441E-003	3.66608E-003	5.52532E-004	...........
	4	1.29167	3.98332E-003	3.52293E-003	5.55799E-004	...........
	5	1.55	3.84159E-003	3.40212E-003	5.51299E-004	...........
	6	1.80833	3.69203E-003	3.28324E-003	5.59032E-004	...........
	7	2.06667	3.54952E-003	3.18465E-003	5.59832E-004	...........
	8	2.325	3.41969E-003	3.09108E-003	5.56733E-004	...........
	9	2.58333	3.30316E-003	3.00776E-003	5.51266E-004	...........
	10	2.84167	3.19887E-003	2.93967E-003	5.51499E-004	...........
	11	3.1	3.10527E-003	2.85060E-003	5.57333E-004	...........
	12	3.35833	3.02010E-003	2.79112E-003	5.51299E-004	...........
	13	3.61667	2.94102E-003	2.72820E-003	5.52932E-004	...........
	14	3.875	2.86708E-003	2.66223E-003	5.52432E-004	...........
	15	4.13333	2.79789E-003	2.60178E-003	5.51933E-004	...........
	16	4.39167	2.73234E-003	2.54533E-003	5.51799E-004	...........
	17	4.65	2.66953E-003	2.49267E-003	5.57233E-004	...........
	18	4.90833	2.60978E-003	2.45780E-003	5.53633E-004	...........
EOC	QUANT	0.0026098	Open Circuit (V)
PSTATMODEL	IQUANT	4	Pstat Model
PSTATSECTION	LABEL	REF600-11020	Pstat Section
PSTATSERIALNO	LABEL	11020	Pstat Serial Number
CTRLMODE	IQUANT	1	Control Mode
IESTAB	IQUANT	0	I/E Stability
CASPEED	IQUANT	1	Control Amp Speed
CONVENTION	IQUANT	1	Current Convention
ICHRANGE	IQUANT	2	Ich Range
ICHRANGEMODE	TOGGLE	F	Ich Auto Range
ICHOFFSETENABLE	TOGGLE	T	Ich Offset Enable
ICHOFFSET	QUANT	0	Ich Offset (V)
ICHFILTER	IQUANT	3	Ich Filter
VCHRANGE	IQUANT	2	Vch Range
VCHRANGEMODE	TOGGLE	F	Vch Auto Range
VCHOFFSETENABLE	TOGGLE	T	Vch Offset Enable
VCHOFFSET	QUANT	0	Vch Offset (V)
VCHFILTER	IQUANT	3	Vch Filter
ACHRANGE	IQUANT	2	Ach Range
ACHOFFSETENABLE	TOGGLE	F	Ach Offset Enable
ACHOFFSET	QUANT	0	Ach Offset (V)
ACHFILTER	IQUANT	3	Ach Filter
IERANGELOWERLIMIT	IQUANT	1	I/E Range Lower Limit
IERANGEMODE	TOGGLE	F	I/E AutoRange
IERANGE	IQUANT	4	I/E Range
POSFEEDENABLE	TOGGLE	F	Positive Feedback IR Comp
POSFEEDRESISTANCE	QUANT	0	Positive Feedback Resistance (ohm)
ACHSELECT	IQUANT	0	Ach Select
CABLEID	IQUANT	14	Cable ID
DCCALDATE	LABEL	8/19/2019	DC Calibration Date
ACCALDATE	LABEL	8/19/2019	AC Calibration Date
THERMOSELECT	IQUANT	1	Thermo Select
FRAMEWORKVERSION	QUANT	6.33	Framework Version
INSTRUMENTVERSION	LABEL	3.50	Instrument Version
ZCURVE	TABLE
	Pt	Time	Freq	Zreal	Zimag	Zsig	Zmod	Zphz	Idc	Vdc	IERange
	#	s	Hz	ohm	ohm	V	ohm	°	A	V	#
	0	1	1000078	2329.449	-1934.324	1	3027.861	-39.70551	-1.50474E-006	0.0052386	8
	1	3	794390.6	2703.592	-1853.049	1	3277.682	-34.42684	-1.333613E-006	0.0048378	8
	2	4	630984.4	3071.718	-1733.382	1	3527.047	-29.4362	7.638852E-006	0.0028342	8
	3	5	501234.4	3389.961	-1595.314	1	3746.58	-25.20165	-5.247725E-006	0.0047489	8
	4	7	398109.4	3642.793	-1414.949	1	3907.944	-21.22737	4.254922E-007	0.0037357	8
	5	8	316265.6	3851.715	-1237.263	1	4045.557	-17.80826	-3.03555E-007	0.0037573	8
	6	10	251203.1	3991.475	-1070.488	1	4132.532	-15.01306	-2.60323E-006	0.0039516	8
	7	11	199546.9	4122.01	-927.1988	1	4225.005	-12.67703	-1.902322E-007	0.0037657	8
	8	12	158578.1	4192.715	-766.2582	1	4262.161	-10.35704	-2.077553E-006	0.0042015	8
	9	14	125953.1	4297.713	-623.0461	1	4342.64	-8.248792	4.039083E-006	-0.0007569	7
	10	15	100078.1	4331.202	-552.6516	1	4366.318	-7.271518	-7.705105E-007	0.0038213	7
	11	16	79453.13	4373.891	-493.4935	1	4401.643	-6.437294	1.173311E-006	0.0024506	7
	12	18	63140.62	4411.122	-454.0021	1	4434.424	-5.876314	6.435806E-007	0.0042616	7
	13	19	50203.12	4445.271	-428.0898	1	4465.836	-5.500753	4.014664E-007	0.0045996	7
	14	20	39890.62	4481.626	-415.1599	1	4500.815	-5.292546	1.17332E-006	0.0024464	7
	15	21	31640.63	4512.152	-410.4668	1	4530.784	-5.197844	1.406434E-007	0.0025165	7
	16	23	25171.88	4545.846	-417.3994	1	4564.968	-5.246186	1.06391E-006	0.002191	7
	17	24	20015.62	4572.371	-429.0847	1	4592.46	-5.361104	1.183764E-006	0.0028012	7
	18	25	15890.62	4608.214	-464.5411	1	4631.569	-5.756381	1.423186E-007	0.0025135	7
	19	27	12609.37	4637.823	-508.3663	1	4665.602	-6.255396	6.452887E-007	0.0042475	7
	20	28	10078.13	4668.691	-563.6079	1	4702.588	-6.88348	-6.800091E-007	0.0057249	7
	21	29	8015.625	4705.971	-645.4057	1	4750.022	-7.809176	5.398493E-007	0.0021996	7
	22	31	6328.125	4745.67	-747.9823	1	4804.255	-8.956911	8.520325E-007	0.0020898	7
	23	32	5015.625	4783.294	-877.4553	1	4863.109	-10.39486	6.105127E-008	0.0050534	7
	24	34	3984.375	4830.511	-1041.737	1	4941.564	-12.1699	4.038042E-007	0.0046006	7
	25	35	3170.956	4878.123	-1238.077	1	5032.785	-14.24108	-1.183571E-006	0.0057345	7
	26	36	2527.573	4938.434	-1485.396	1	5156.988	-16.74038	1.185503E-006	0.0027948	7
	27	38	1976.103	5009.87	-1812.875	1	5327.787	-19.8932	-3.146452E-007	0.0030618	7
	28	39	1577.524	5085.373	-2200.681	1	5541.121	-23.40041	1.428968E-007	0.0025087	7
	29	40	1265.625	5177.741	-2637.328	1	5810.723	-26.99242	-1.116955E-006	0.0045354	7
	30	42	998.264	5288.563	-3237.089	1	6200.617	-31.47048	-1.319611E-006	0.0055445	7
	31	43	796.875	5418.489	-3948.649	1	6704.614	-36.08218	1.08773E-006	0.0032561	7
	32	44	627.7902	5584.038	-4861.616	1	7403.836	-41.04372	6.48917E-007	0.0042503	7
	33	46	505.5147	5763.696	-5898.887	1	8247.246	-45.66413	1.06246E-006	0.0021827	7
	34	47	397.9953	6021.772	-7274.451	1	9443.483	-50.38213	3.697918E-009	0.0040292	7
	35	48	315.5048	6335.096	-8945.286	1	10961.37	-54.69368	2.083881E-010	0.0039654	6
	36	50	252.4038	6713.124	-10920.18	1	12818.6	-58.4191	8.353596E-010	0.0039552	6
	37	51	198.6229	7232.575	-13530.59	1	15342.32	-61.87393	4.394377E-010	0.0039688	6
	38	52	158.3615	7870.698	-16567.38	1	18341.92	-64.58892	4.631232E-010	0.0039538	6
	39	54	125.558	8741.412	-20383.89	1	22179.16	-66.78844	1.31486E-009	0.0039569	6
	40	55	100.4464	9846.65	-24866.29	1	26744.88	-68.39723	-1.713664E-010	0.0039636	6
	41	56	79.00281	11362.52	-30730.88	1	32764.22	-69.7085	2.618301E-010	0.0039576	6
	42	58	63.3446	13591.78	-37602.62	1	39983.66	-70.12718	9.102713E-011	0.0039666	6
	43	59	49.86702	15877.31	-45693.24	1	48373.14	-70.83888	2.039089E-011	0.0039473	6
	44	61	39.72458	19907.66	-55301.4	1	58775.5	-70.2019	1.868211E-010	0.0039674	6
	45	62	31.6723	24448.1	-66430.1	1	70786.07	-69.795	1.929588E-010	0.0039614	6
	46	63	24.93351	31261.84	-80548.24	1	86402.09	-68.78811	-4.80285E-010	0.0039617	6
	47	65	19.86229	39267.7	-95921.2	1	103647.6	-67.73705	8.690349E-011	0.0039504	6
	48	66	15.83615	49881.37	-111903.2	1	122517.2	-65.97485	1.455347E-009	0.0039584	5
	49	67	12.40079	63606.42	-132552.2	1	147023.3	-64.36554	-1.120363E-009	0.0039743	5
	50	69	9.93114	77276.05	-154138.7	1	172424.8	-63.37352	-4.729173E-010	0.0039708	5
	51	70	7.944915	93643.02	-178491.3	1	201564.3	-62.31686	9.792932E-010	0.0039531	5
	52	72	6.317385	114312.1	-204450.1	1	234237.2	-60.78959	7.19357E-010	0.0039482	5
	53	74	5.008013	137480.3	-235293.6	1	272514	-59.70257	2.252902E-011	0.0039594	5
	54	77	3.945707	164390.3	-271025.1	1	316983.9	-58.76109	2.300795E-010	0.0039655	5
	55	79	3.158693	192666.8	-309296.4	1	364396.4	-58.08042	-8.219572E-011	0.003947	5
	56	82	2.504006	226291.8	-354878.7	1	420888.2	-57.47599	4.830419E-010	0.0039665	5
	57	85	1.998082	264217.2	-405350.7	1	483859.4	-56.90274	3.105321E-010	0.0039996	5
	58	88	1.584686	306248.6	-464298.5	1	556202.6	-56.59139	2.230033E-010	0.0039501	5
	59	92	1.266892	355806.6	-529369.6	1	637832.6	-56.09366	1.492738E-010	0.0039987	5
	60	96	0.999041	411096.7	-609352.1	1	735058.2	-55.99461	7.386107E-011	0.0039194	5
