EXPLAIN
TAG	EISPOT
TITLE	LABEL	Potentiostatic IDE	Test &Identifier
DATE	LABEL	9/8/2019	Date
TIME	LABEL	10:18:36	Time
NOTES	NOTES	1	&Notes...
	
PSTAT	PSTAT	REF600-11020	Potentiostat
VDC	POTEN	0.00000E+000	T	DC &Voltage (V)
FREQINIT	QUANT	1.00000E+006	Initial Fre&q. (Hz)
FREQFINAL	QUANT	1.00000E+000	Final Fre&q. (Hz)
PTSPERDEC	QUANT	1.00000E+001	Points/&decade
VAC	QUANT	2.50000E+001	AC &Voltage (mV rms)
AREA	QUANT	1.00000E-002	&Area (cm^2)
CONDIT	TWOPARAM	T	5.00000E+000	0.00000E+000	Conditionin&g	Time(s)	E(V)
DELAY	TWOPARAM	T	5.00000E+000	0.00000E+000	Init. De&lay	Time(s)	Stab.(mV/s)
SPEED	SELECTOR	1	&Optimize for:
ZGUESS	QUANT	1.00000E+007	E&stimated Z (ohms)
OCVCURVE	TABLE	19
	Pt	T	Vf	Vm	Ach	Over
	#	s	V vs. Ref.	V	V	bits
	0	0.258333	3.64249E-002	3.64249E-002	5.73632E-004	...........
	1	0.516667	3.62275E-002	2.60912E-002	5.70466E-004	...........
	2	0.775	3.52232E-002	2.71792E-002	5.74066E-004	...........
	3	1.03333	3.29810E-002	2.34040E-002	5.76299E-004	...........
	4	1.29167	2.99717E-002	2.32293E-002	5.68932E-004	...........
	5	1.55	2.70632E-002	2.05553E-002	5.70932E-004	...........
	6	1.80833	2.47466E-002	2.33163E-002	5.67966E-004	...........
	7	2.06667	2.31719E-002	2.08358E-002	5.67832E-004	...........
	8	2.325	2.22799E-002	2.09526E-002	5.65966E-004	...........
	9	2.58333	2.18330E-002	2.35741E-002	5.67999E-004	...........
	10	2.84167	2.16549E-002	1.95565E-002	5.70832E-004	...........
	11	3.1	2.16435E-002	2.36078E-002	5.67066E-004	...........
	12	3.35833	2.16909E-002	2.11246E-002	5.65399E-004	...........
	13	3.61667	2.17265E-002	1.98497E-002	5.70299E-004	...........
	14	3.875	2.16121E-002	2.09757E-002	5.71732E-004	...........
	15	4.13333	2.13043E-002	2.17892E-002	5.71266E-004	...........
	16	4.39167	2.10400E-002	2.05616E-002	5.73799E-004	...........
	17	4.65	2.09671E-002	2.06068E-002	5.71532E-004	...........
	18	4.90833	2.09494E-002	2.07240E-002	5.71966E-004	...........
EOC	QUANT	0.0209494	Open Circuit (V)
PSTATMODEL	IQUANT	4	Pstat Model
PSTATSECTION	LABEL	REF600-11020	Pstat Section
PSTATSERIALNO	LABEL	11020	Pstat Serial Number
CTRLMODE	IQUANT	1	Control Mode
IESTAB	IQUANT	0	I/E Stability
CASPEED	IQUANT	1	Control Amp Speed
CONVENTION	IQUANT	1	Current Convention
ICHRANGE	IQUANT	2	Ich Range
ICHRANGEMODE	TOGGLE	F	Ich Auto Range
ICHOFFSETENABLE	TOGGLE	T	Ich Offset Enable
ICHOFFSET	QUANT	0	Ich Offset (V)
ICHFILTER	IQUANT	3	Ich Filter
VCHRANGE	IQUANT	2	Vch Range
VCHRANGEMODE	TOGGLE	F	Vch Auto Range
VCHOFFSETENABLE	TOGGLE	T	Vch Offset Enable
VCHOFFSET	QUANT	0	Vch Offset (V)
VCHFILTER	IQUANT	3	Vch Filter
ACHRANGE	IQUANT	2	Ach Range
ACHOFFSETENABLE	TOGGLE	F	Ach Offset Enable
ACHOFFSET	QUANT	0	Ach Offset (V)
ACHFILTER	IQUANT	3	Ach Filter
IERANGELOWERLIMIT	IQUANT	1	I/E Range Lower Limit
IERANGEMODE	TOGGLE	F	I/E AutoRange
IERANGE	IQUANT	3	I/E Range
POSFEEDENABLE	TOGGLE	F	Positive Feedback IR Comp
POSFEEDRESISTANCE	QUANT	0	Positive Feedback Resistance (ohm)
ACHSELECT	IQUANT	0	Ach Select
CABLEID	IQUANT	14	Cable ID
DCCALDATE	LABEL	8/19/2019	DC Calibration Date
ACCALDATE	LABEL	8/19/2019	AC Calibration Date
THERMOSELECT	IQUANT	1	Thermo Select
FRAMEWORKVERSION	QUANT	6.33	Framework Version
INSTRUMENTVERSION	LABEL	3.50	Instrument Version
ZCURVE	TABLE
	Pt	Time	Freq	Zreal	Zimag	Zsig	Zmod	Zphz	Idc	Vdc	IERange
	#	s	Hz	ohm	ohm	V	ohm	°	A	V	#
	0	1	1000078	979.339	-10433.88	1	10479.74	-84.63785	5.060052E-006	0.0226577	8
	1	3	794390.6	1223.228	-13049.63	1	13106.83	-84.64494	-4.957499E-006	0.0242601	8
	2	5	630984.4	1448.715	-16273.08	1	16337.44	-84.91264	-4.542369E-006	0.0239463	8
	3	6	501234.4	1570.276	-20165.49	1	20226.54	-85.54739	-3.895768E-006	0.0237829	8
	4	8	398109.4	2226.922	-25110.48	1	25209.04	-84.93198	-3.314707E-006	0.0234808	8
	5	10	316265.6	1683.899	-33449.5	1	33491.86	-87.11807	-5.312009E-006	0.0238772	8
	6	11	251203.1	3528.425	-37677.37	1	37842.23	-84.64995	-2.122035E-006	0.0229187	8
	7	13	199546.9	2558.619	-49094.11	1	49160.74	-87.01664	-3.565402E-006	0.0234098	8
	8	15	158578.1	1523.591	-63545.07	1	63563.34	-88.62651	-1.794942E-006	0.0228389	8
	9	16	125953.1	6265.294	-77223.74	1	77477.48	-85.36166	1.765064E-006	0.0195565	7
	10	18	100078.1	6384.633	-95998.6	1	96210.7	-86.195	9.664667E-008	0.0225982	7
	11	20	79453.13	8457.582	-119634.4	1	119933	-85.95619	-7.776787E-008	0.0227614	7
	12	21	63140.62	9748.69	-150022.5	1	150338.9	-86.28206	1.013983E-007	0.0225865	7
	13	23	50203.12	12418.89	-187214.8	1	187626.2	-86.20484	2.067018E-010	0.0225361	7
	14	25	39890.62	15127.94	-231695.9	1	232189.3	-86.26434	-4.60685E-008	0.0226884	7
	15	26	31640.63	17125.3	-289405.5	1	289911.7	-86.61353	-2.185882E-008	0.0228099	7
	16	28	25171.88	20807.45	-363759.2	1	364353.8	-86.72618	-1.051362E-008	0.0226913	7
	17	29	20015.62	32739.69	-455336.2	1	456511.7	-85.88738	-4.929797E-008	0.0226368	7
	18	31	15890.62	22194.97	-594269.2	1	594683.5	-87.86109	-2.488793E-008	0.0226829	7
	19	32	12609.37	48634.42	-707985.3	1	709653.8	-86.07029	5.742873E-009	0.0223778	6
	20	34	10078.13	71992.97	-878591.8	1	881536.5	-85.31557	2.625922E-008	0.0222261	6
	21	35	8015.625	79493.33	-1089904	1	1092799	-85.82846	2.721813E-008	0.0220751	6
	22	37	6328.125	100210.4	-1382971	1	1386597	-85.85558	-5.152076E-009	0.02243	6
	23	39	5015.625	126398.4	-1733754	1	1738355	-85.83025	-2.953812E-009	0.0227605	6
	24	40	3984.375	169336.5	-2169551	1	2176150	-85.53703	-1.687359E-008	0.0226982	6
	25	42	3170.956	213920.3	-2652883	1	2661494	-85.38982	-8.895412E-009	0.0227342	6
	26	44	2527.573	339506.4	-3328488	1	3345758	-84.17596	-9.985253E-009	0.0226242	6
	27	45	1976.103	394784.8	-4259939	1	4278193	-84.70531	-9.970103E-009	0.022613	6
	28	47	1577.524	613973.4	-5029637	1	5066973	-83.04028	-9.013926E-009	0.0227339	6
	29	49	1265.625	1143938	-6315489	1	6418256	-79.73321	5.855803E-010	0.0223944	5
	30	50	998.264	1242108	-7953678	1	8050082	-81.12394	3.758308E-010	0.0225475	5
	31	52	796.875	2451578	-9.951889E+006	1	1.024941E+007	-76.16113	6.545954E-010	0.0226035	5
	32	53	627.7902	2056316	-1.236417E+007	1	1.2534E+007	-80.55743	1.066068E-009	0.0225726	5
	33	55	505.5147	2070905	-1.562979E+007	1	1.576638E+007	-82.45242	1.708055E-009	0.0224638	5
	34	56	397.9953	2478990	-1.926551E+007	1	1.942435E+007	-82.66776	8.350971E-011	0.0225761	5
	35	57	315.5048	3506366	-2.205371E+007	1	2.233071E+007	-80.96604	-2.708435E-010	0.0225747	5
	36	59	252.4038	1.842267E+007	-2.660668E+007	1	3.236217E+007	-55.30098	1.406922E-010	0.0225745	5
	37	60	198.6229	1.121945E+007	-2.764443E+007	1	2.983439E+007	-67.91029	1.224493E-010	0.0225737	5
	38	62	158.3615	1.980121E+007	-4.241312E+007	1	4.68077E+007	-64.97376	4.159904E-010	0.0225744	5
	39	64	125.558	2.590864E+007	-2.996088E+007	1	3.96095E+007	-49.14842	2.209279E-010	0.0225714	4
	40	65	100.4464	3.095754E+007	-3.747973E+007	1	4.861172E+007	-50.44395	1.166566E-010	0.0225693	4
	41	67	79.00281	-3.493068E+007	-4.141908E+007	1	5.418203E+007	-130.1425	1.256986E-010	0.0225699	4
	42	68	63.3446	4827351	3748635	1	6111921	37.8308	4.237778E-010	0.0225647	4
	43	70	49.86702	2.390106E+007	-1.821856E+007	1	3.005289E+007	-37.31643	1.361549E-010	0.022568	5
	44	72	39.72458	4.82384E+007	2.14125E+007	1	5.277726E+007	23.93592	-7.035837E-011	0.0225716	4
	45	73	31.6723	5444469	4.398634E+007	1	4.4322E+007	82.94402	-3.300391E-010	0.0225717	4
	46	75	24.93351	6.834904E+007	-5485515	1	6.856882E+007	-4.588574	9.794027E-011	0.0225588	4
	47	77	19.86229	1.444739E+008	-1.246964E+008	1	1.908452E+008	-40.79772	-6.512522E-012	0.0225584	5
	48	78	15.83615	-3980080	-1.409874E+007	1	1.464976E+007	-105.7644	-1.051787E-009	0.02257	4
	49	80	12.40079	-2.89699E+007	-5.755627E+007	1	6.443586E+007	-116.7176	2.199836E-010	0.0225601	4
	50	82	9.93114	6.437127E+007	-2.476935E+007	1	6.897232E+007	-21.04617	-1.70181E-011	0.0225568	5
	51	84	7.944915	3.279467E+008	-1.82694E+008	1	3.754013E+008	-29.1215	-6.646447E-011	0.0225639	5
	52	86	6.317385	9.186987E+007	-7466557	1	9.217279E+007	-4.646398	2.024738E-011	0.0225498	4
	53	89	5.008013	9.309747E+007	-2943996	1	9.314401E+007	-1.811246	5.117985E-011	0.0225639	4
	54	92	3.945707	1.07663E+008	2.416585E+007	1	1.103418E+008	12.65084	-3.545934E-011	0.0225549	4
	55	96	3.158693	9.477786E+007	-1190191	1	9.478534E+007	-0.719465	1.240298E-011	0.0225703	4
	56	100	2.504006	2.276417E+008	-1.920767E+007	1	2.284506E+008	-4.823007	4.31396E-011	0.0225424	3
	57	104	1.998082	2.306302E+008	-1.921686E+007	1	2.314294E+008	-4.76307	4.17283E-011	0.0225823	3
	58	108	1.584686	2.308384E+008	-1.905524E+007	1	2.316235E+008	-4.71895	4.349015E-011	0.0225995	3
	59	114	1.266892	4.945974E+008	-6.979256E+007	1	4.994973E+008	-8.031968	4.135979E-013	0.0225774	2
	60	118	0.999041	4.849196E+008	-6.579766E+007	1	4.893632E+008	-7.727146	2.044784E-012	0.0225611	2
