EXPLAIN
TAG	EISPOT
TITLE	LABEL	Potentiostatic IDE	Test &Identifier
DATE	LABEL	9/12/2019	Date
TIME	LABEL	8:42:19	Time
NOTES	NOTES	1	&Notes...
	
PSTAT	PSTAT	REF600-11020	Potentiostat
VDC	POTEN	0.00000E+000	T	DC &Voltage (V)
FREQINIT	QUANT	1.00000E+006	Initial Fre&q. (Hz)
FREQFINAL	QUANT	1.00000E+000	Final Fre&q. (Hz)
PTSPERDEC	QUANT	1.00000E+001	Points/&decade
VAC	QUANT	2.50000E+001	AC &Voltage (mV rms)
AREA	QUANT	1.00000E-002	&Area (cm^2)
CONDIT	TWOPARAM	T	5.00000E+000	0.00000E+000	Conditionin&g	Time(s)	E(V)
DELAY	TWOPARAM	T	5.00000E+000	0.00000E+000	Init. De&lay	Time(s)	Stab.(mV/s)
SPEED	SELECTOR	1	&Optimize for:
ZGUESS	QUANT	1.00000E+007	E&stimated Z (ohms)
OCVCURVE	TABLE	19
	Pt	T	Vf	Vm	Ach	Over
	#	s	V vs. Ref.	V	V	bits
	0	0.258333	3.48035E-003	3.48035E-003	5.37699E-004	...........
	1	0.516667	3.47819E-003	3.36743E-003	5.45633E-004	...........
	2	0.775	3.46557E-003	3.29310E-003	5.47833E-004	...........
	3	1.03333	3.43179E-003	3.21356E-003	5.40333E-004	...........
	4	1.29167	3.37517E-003	3.16288E-003	5.40533E-004	...........
	5	1.55	3.30545E-003	3.09720E-003	5.43766E-004	...........
	6	1.80833	3.23441E-003	3.05189E-003	5.39633E-004	...........
	7	2.06667	3.16872E-003	3.00715E-003	5.39699E-004	...........
	8	2.325	3.11050E-003	2.97611E-003	5.41966E-004	...........
	9	2.58333	3.05989E-003	2.93308E-003	5.49999E-004	...........
	10	2.84167	3.01569E-003	2.89713E-003	5.42033E-004	...........
	11	3.1	2.97554E-003	2.85937E-003	5.38399E-004	...........
	12	3.35833	2.93749E-003	2.83414E-003	5.41199E-004	...........
	13	3.61667	2.90124E-003	2.80531E-003	5.34666E-004	...........
	14	3.875	2.86757E-003	2.77882E-003	5.36099E-004	...........
	15	4.13333	2.83669E-003	2.74859E-003	5.40866E-004	...........
	16	4.39167	2.80773E-003	2.72203E-003	5.40499E-004	...........
	17	4.65	2.77972E-003	2.70007E-003	5.41399E-004	...........
	18	4.90833	2.75253E-003	2.67734E-003	5.44299E-004	...........
EOC	QUANT	0.0027525	Open Circuit (V)
PSTATMODEL	IQUANT	4	Pstat Model
PSTATSECTION	LABEL	REF600-11020	Pstat Section
PSTATSERIALNO	LABEL	11020	Pstat Serial Number
CTRLMODE	IQUANT	1	Control Mode
IESTAB	IQUANT	0	I/E Stability
CASPEED	IQUANT	1	Control Amp Speed
CONVENTION	IQUANT	1	Current Convention
ICHRANGE	IQUANT	2	Ich Range
ICHRANGEMODE	TOGGLE	F	Ich Auto Range
ICHOFFSETENABLE	TOGGLE	T	Ich Offset Enable
ICHOFFSET	QUANT	0	Ich Offset (V)
ICHFILTER	IQUANT	3	Ich Filter
VCHRANGE	IQUANT	2	Vch Range
VCHRANGEMODE	TOGGLE	F	Vch Auto Range
VCHOFFSETENABLE	TOGGLE	T	Vch Offset Enable
VCHOFFSET	QUANT	0	Vch Offset (V)
VCHFILTER	IQUANT	3	Vch Filter
ACHRANGE	IQUANT	2	Ach Range
ACHOFFSETENABLE	TOGGLE	F	Ach Offset Enable
ACHOFFSET	QUANT	0	Ach Offset (V)
ACHFILTER	IQUANT	3	Ach Filter
IERANGELOWERLIMIT	IQUANT	1	I/E Range Lower Limit
IERANGEMODE	TOGGLE	F	I/E AutoRange
IERANGE	IQUANT	2	I/E Range
POSFEEDENABLE	TOGGLE	F	Positive Feedback IR Comp
POSFEEDRESISTANCE	QUANT	0	Positive Feedback Resistance (ohm)
ACHSELECT	IQUANT	0	Ach Select
CABLEID	IQUANT	14	Cable ID
DCCALDATE	LABEL	8/19/2019	DC Calibration Date
ACCALDATE	LABEL	8/19/2019	AC Calibration Date
THERMOSELECT	IQUANT	1	Thermo Select
FRAMEWORKVERSION	QUANT	6.33	Framework Version
INSTRUMENTVERSION	LABEL	3.50	Instrument Version
ZCURVE	TABLE
	Pt	Time	Freq	Zreal	Zimag	Zsig	Zmod	Zphz	Idc	Vdc	IERange
	#	s	Hz	ohm	ohm	V	ohm	°	A	V	#
	0	2	1000078	1552.648	-1940.242	1	2485.006	-51.33202	-4.34052E-006	0.0055321	8
	1	3	794390.6	1717.7	-2218.343	1	2805.626	-52.24877	-7.368751E-007	0.00519	8
	2	5	630984.4	1905.947	-2567.497	1	3197.604	-53.41214	3.57623E-007	0.0044628	8
	3	6	501234.4	2116.764	-2992.506	1	3665.485	-54.72613	-4.053058E-006	0.0053498	8
	4	7	398109.4	2383.594	-3511.016	1	4243.672	-55.8278	-1.340755E-006	0.0047682	8
	5	9	316265.6	2707.559	-4159.18	1	4962.827	-56.93652	5.701838E-006	0.0034031	8
	6	11	251203.1	3088.405	-4925.221	1	5813.437	-57.90985	2.118201E-006	0.0039685	8
	7	12	199546.9	3654.69	-5832.685	1	6883.093	-57.92924	-2.059681E-006	0.0046514	8
	8	14	158578.1	4338.536	-6829.509	1	8091.049	-57.57371	1.670157E-006	0.0040809	8
	9	15	125953.1	5423.746	-7932.134	1	9609.15	-55.6369	-3.615709E-007	0.0044935	7
	10	17	100078.1	6661.86	-9217.646	1	11373.01	-54.14327	8.582946E-008	0.004209	7
	11	18	79453.13	8228.951	-10464.13	1	13312.16	-51.81863	-7.989984E-012	0.0045065	7
	12	20	63140.62	10187.15	-11603.25	1	15440.64	-48.71829	-4.866165E-008	0.0044026	7
	13	21	50203.12	12450.54	-12533.6	1	17666.56	-45.19048	8.898039E-008	0.0042199	7
	14	22	39890.62	14990.51	-13104.04	1	19910.58	-41.15852	-5.891663E-008	0.0045046	7
	15	24	31640.63	17574.49	-13313.3	1	22047.83	-37.14521	-4.576011E-009	0.0044277	7
	16	25	25171.88	20083.67	-13120.13	1	23989.41	-33.15552	-6.016523E-008	0.0045023	7
	17	26	20015.62	22422.26	-12655.74	1	25747.34	-29.44157	-7.470534E-010	0.0045021	7
	18	28	15890.62	24359.19	-12110.66	1	27203.64	-26.43519	-1.08346E-008	0.0043111	7
	19	29	12609.37	26530.4	-11026.23	1	28730.47	-22.56813	9.007776E-009	0.0043009	6
	20	31	10078.13	27949.81	-10360.25	1	29808.16	-20.3384	9.581909E-009	0.0043003	6
	21	32	8015.625	29342.21	-9777.28	1	30928.31	-18.42887	-3.709622E-009	0.0042194	6
	22	33	6328.125	30596.64	-9307.289	1	31980.93	-16.9194	9.670655E-010	0.0042174	6
	23	35	5015.625	31711.42	-8956.495	1	32951.98	-15.77167	7.930137E-009	0.0041067	6
	24	36	3984.375	32740.98	-8715.299	1	33881.09	-14.90588	-6.255265E-009	0.0044898	6
	25	37	3170.956	33699.32	-8606.02	1	34780.86	-14.32581	-8.60044E-010	0.0044461	6
	26	39	2527.573	34663.64	-8649.173	1	35726.4	-14.0102	-9.013425E-009	0.0044408	6
	27	40	1976.103	35663.13	-8820.296	1	36737.67	-13.89177	4.803643E-009	0.0043186	6
	28	41	1577.524	36547.09	-9118.497	1	37667.45	-14.00927	5.152126E-009	0.0043255	6
	29	43	1265.625	37465.14	-9562.66	1	38666.28	-14.31854	7.114876E-009	0.0040994	6
	30	44	998.264	38449.16	-10235.92	1	39788.34	-14.9075	-5.1204E-009	0.0044201	6
	31	45	796.875	39400.43	-11103.88	1	40935.19	-15.73897	7.375065E-009	0.0040996	6
	32	47	627.7902	40414.73	-12273.66	1	42237.35	-16.89315	-2.988706E-009	0.004316	6
	33	48	505.5147	41244.22	-13637.99	1	43440.54	-18.29721	-5.683478E-009	0.0043966	6
	34	49	397.9953	42540.02	-15502.59	1	45276.75	-20.02294	6.933925E-010	0.0043101	6
	35	51	315.5048	43809.09	-17808.64	1	47290.42	-22.12202	3.71687E-010	0.0043068	6
	36	52	252.4038	45116.84	-20524.55	1	49565.98	-24.46174	-2.827696E-010	0.004311	6
	37	53	198.6229	46761.35	-24103.99	1	52608.23	-27.26967	3.823541E-010	0.0043123	6
	38	55	158.3615	48617.98	-28285	1	56247.21	-30.19002	-1.789621E-010	0.0043117	6
	39	56	125.558	50790.22	-33432.25	1	60805.94	-33.35459	6.874922E-010	0.0043149	6
	40	57	100.4464	53241.23	-39455.46	1	66267.35	-36.54103	-2.407537E-010	0.0043095	6
	41	59	79.00281	56401.4	-46641.03	1	73188.14	-39.58898	-7.385811E-011	0.0043057	6
	42	60	63.3446	61883.43	-55671.16	1	83239.63	-41.97497	1.796728E-011	0.004303	6
	43	61	49.86702	63865.5	-66704.05	1	92348.44	-46.2454	1.01124E-009	0.0043032	6
	44	63	39.72458	70673.66	-78627.13	1	105721.3	-48.04934	-4.693099E-011	0.0043104	5
	45	64	31.6723	76971.73	-93100.59	1	120798.9	-50.41746	2.927884E-010	0.0043084	5
	46	66	24.93351	85891.19	-110862.6	1	140242	-52.23314	4.270338E-010	0.0043032	5
	47	67	19.86229	96431.7	-130790.8	1	162497.1	-53.59874	4.492125E-010	0.0043196	5
	48	68	15.83615	109094.4	-152321.3	1	187359	-54.38929	-5.332459E-010	0.0043146	5
	49	70	12.40079	127636.3	-182405.1	1	222626.7	-55.01794	-9.138201E-010	0.004321	5
	50	71	9.93114	144333.5	-214264.6	1	258343.8	-56.03489	2.064566E-010	0.0043123	5
	51	73	7.944915	164521.2	-249109.4	1	298534.3	-56.55773	-5.608479E-010	0.0043146	5
	52	74	6.317385	194466.8	-289599.1	1	348833.8	-56.11851	-1.351275E-010	0.0043306	5
	53	76	5.008013	227892.9	-335982.9	1	405979.9	-55.85146	2.889604E-010	0.0043196	5
	54	79	3.945707	268481.1	-390375.5	1	473788.1	-55.48172	-2.220782E-011	0.0043095	5
	55	81	3.158693	314046.3	-447730.3	1	546888.9	-54.95348	2.592163E-010	0.0043096	5
	56	85	2.504006	369633.8	-514031.7	1	633133.3	-54.28056	-2.528565E-011	0.0043138	5
	57	87	1.998082	430739	-585499.6	1	726874	-53.65891	2.700493E-010	0.0042759	5
	58	90	1.584686	509379	-666171.6	1	838600.9	-52.59716	6.39306E-011	0.0042618	5
	59	94	1.266892	592643.1	-749827.2	1	955755	-51.67811	3.702468E-010	0.0042907	5
	60	98	0.999041	698427.4	-848291.6	1	1098817	-50.53421	-2.040245E-010	0.0043174	4
