EXPLAIN
TAG	EISPOT
TITLE	LABEL	Potentiostatic EIS	Test &Identifier
DATE	LABEL	10/18/2019	Date
TIME	LABEL	9:59:38	Time
NOTES	NOTES	1	&Notes...
	
PSTAT	PSTAT	REF600-11020	Potentiostat
VDC	POTEN	0.00000E+000	T	DC &Voltage (V)
FREQINIT	QUANT	1.00000E+006	Initial Fre&q. (Hz)
FREQFINAL	QUANT	1.00000E+000	Final Fre&q. (Hz)
PTSPERDEC	QUANT	1.00000E+001	Points/&decade
VAC	QUANT	2.50000E+001	AC &Voltage (mV rms)
AREA	QUANT	1.00000E-002	&Area (cm^2)
CONDIT	TWOPARAM	T	5.00000E+000	0.00000E+000	Conditionin&g	Time(s)	E(V)
DELAY	TWOPARAM	T	5.00000E+000	0.00000E+000	Init. De&lay	Time(s)	Stab.(mV/s)
SPEED	SELECTOR	0	&Optimize for:
ZGUESS	QUANT	1.00000E+005	E&stimated Z (ohms)
OCVCURVE	TABLE	19
	Pt	T	Vf	Vm	Ach	Over
	#	s	V vs. Ref.	V	V	bits
	0	0.258333	4.98314E-003	4.98314E-003	5.00833E-004	...........
	1	0.516667	4.98158E-003	4.90118E-003	4.94367E-004	...........
	2	0.775	4.97221E-003	4.83633E-003	4.96800E-004	...........
	3	1.03333	4.94699E-003	4.79860E-003	4.95267E-004	...........
	4	1.29167	4.90545E-003	4.76092E-003	4.94933E-004	...........
	5	1.55	4.85666E-003	4.74032E-003	4.93467E-004	...........
	6	1.80833	4.81108E-003	4.72668E-003	4.96467E-004	...........
	7	2.06667	4.77380E-003	4.67466E-003	4.92333E-004	...........
	8	2.325	4.74328E-003	4.66049E-003	4.94933E-004	...........
	9	2.58333	4.71572E-003	4.65832E-003	4.95200E-004	...........
	10	2.84167	4.69243E-003	4.72463E-003	4.93933E-004	...........
	11	3.1	4.68222E-003	4.79759E-003	4.97367E-004	...........
	12	3.35833	4.69467E-003	4.84427E-003	4.97000E-004	...........
	13	3.61667	4.72953E-003	4.83920E-003	4.95433E-004	...........
	14	3.875	4.77360E-003	4.84587E-003	4.97633E-004	...........
	15	4.13333	4.80957E-003	4.78685E-003	4.96033E-004	...........
	16	4.39167	4.82566E-003	4.75192E-003	4.98333E-004	...........
	17	4.65	4.81970E-003	4.76945E-003	5.00500E-004	...........
	18	4.90833	4.80165E-003	4.83222E-003	4.92733E-004	...........
EOC	QUANT	0.0048016	Open Circuit (V)
PSTATMODEL	IQUANT	4	Pstat Model
PSTATSECTION	LABEL	REF600-11020	Pstat Section
PSTATSERIALNO	LABEL	11020	Pstat Serial Number
CTRLMODE	IQUANT	1	Control Mode
IESTAB	IQUANT	0	I/E Stability
CASPEED	IQUANT	1	Control Amp Speed
CONVENTION	IQUANT	1	Current Convention
ICHRANGE	IQUANT	2	Ich Range
ICHRANGEMODE	TOGGLE	F	Ich Auto Range
ICHOFFSETENABLE	TOGGLE	T	Ich Offset Enable
ICHOFFSET	QUANT	0	Ich Offset (V)
ICHFILTER	IQUANT	3	Ich Filter
VCHRANGE	IQUANT	2	Vch Range
VCHRANGEMODE	TOGGLE	F	Vch Auto Range
VCHOFFSETENABLE	TOGGLE	T	Vch Offset Enable
VCHOFFSET	QUANT	0	Vch Offset (V)
VCHFILTER	IQUANT	3	Vch Filter
ACHRANGE	IQUANT	2	Ach Range
ACHOFFSETENABLE	TOGGLE	F	Ach Offset Enable
ACHOFFSET	QUANT	0	Ach Offset (V)
ACHFILTER	IQUANT	3	Ach Filter
IERANGELOWERLIMIT	IQUANT	1	I/E Range Lower Limit
IERANGEMODE	TOGGLE	F	I/E AutoRange
IERANGE	IQUANT	4	I/E Range
POSFEEDENABLE	TOGGLE	F	Positive Feedback IR Comp
POSFEEDRESISTANCE	QUANT	0	Positive Feedback Resistance (ohm)
ACHSELECT	IQUANT	0	Ach Select
CABLEID	IQUANT	14	Cable ID
DCCALDATE	LABEL	8/19/2019	DC Calibration Date
ACCALDATE	LABEL	8/19/2019	AC Calibration Date
THERMOSELECT	IQUANT	1	Thermo Select
FRAMEWORKVERSION	QUANT	6.33	Framework Version
INSTRUMENTVERSION	LABEL	3.50	Instrument Version
ZCURVE	TABLE
	Pt	Time	Freq	Zreal	Zimag	Zsig	Zmod	Zphz	Idc	Vdc	IERange
	#	s	Hz	ohm	ohm	V	ohm	°	A	V	#
	0	2	1000078	2760.739	-1842.334	1	3319.017	-33.71652	-2.582906E-006	0.0069384	8
	1	2	794390.6	3131.531	-1758.437	1	3591.46	-29.31535	3.453914E-006	0.0061251	8
	2	2	630984.4	3460.376	-1600.62	1	3812.635	-24.82322	-3.939222E-007	0.0065646	8
	3	3	501234.4	3705.495	-1443.852	1	3976.858	-21.28846	5.726376E-007	0.0064533	8
	4	3	398109.4	3932.59	-1269.901	1	4132.543	-17.89616	1.487664E-006	0.0060322	8
	5	3	316265.6	4088.647	-1082.391	1	4229.492	-14.82782	-3.035273E-006	0.0070032	8
	6	4	251203.1	4182.276	-949.6568	1	4288.739	-12.79306	9.999969E-007	0.0063333	8
	7	4	199546.9	4271.621	-834.6541	1	4352.401	-11.05602	8.285463E-007	0.0063446	8
	8	4	158578.1	4340.389	-729.1883	1	4401.214	-9.53667	2.708923E-006	0.0058067	8
	9	4	125953.1	4468.216	-567.3847	1	4504.096	-7.236824	-5.064609E-007	0.0081552	7
	10	5	100078.1	4473.939	-522.9626	1	4504.4	-6.667097	7.781451E-008	0.0061787	7
	11	5	79453.13	4517.109	-495.3645	1	4544.189	-6.25828	-1.097829E-009	0.0062775	7
	12	5	63140.62	4555.783	-478.9062	1	4580.885	-6.000923	1.013425E-009	0.0064408	7
	13	6	50203.12	4594.056	-476.0409	1	4618.654	-5.915935	-5.637254E-008	0.0065174	7
	14	6	39890.62	4634.927	-483.6648	1	4660.094	-5.957378	-3.948899E-008	0.0063528	7
	15	6	31640.63	4681.63	-501.6746	1	4708.433	-6.116366	6.450072E-009	0.0062752	7
	16	7	25171.88	4727.824	-533.7018	1	4757.852	-6.440587	-1.024378E-009	0.0062719	7
	17	7	20015.62	4783.264	-558.7898	1	4815.793	-6.663197	-5.910884E-008	0.0063884	7
	18	7	15890.62	4833.262	-626.8782	1	4873.746	-7.390057	-4.645869E-008	0.0063829	7
	19	8	12609.37	4896.477	-692.6456	1	4945.225	-8.051523	7.946785E-008	0.0061618	7
	20	8	10078.13	4961.893	-772.6012	1	5021.683	-8.850284	4.209243E-008	0.006278	7
	21	8	8015.625	5020.363	-902.2516	1	5100.794	-10.18835	1.235645E-007	0.0061417	7
	22	9	6328.125	5112.718	-988.027	1	5207.311	-10.93752	-5.426444E-008	0.0063819	7
	23	9	5015.625	5197.095	-1130.037	1	5318.532	-12.26724	-3.274588E-008	0.0064112	7
	24	9	3984.375	5309.744	-1302.484	1	5467.16	-13.78255	-5.861348E-008	0.0065118	7
	25	10	3170.956	5382.571	-1506.527	1	5589.427	-15.63639	2.260443E-009	0.0064333	7
	26	10	2527.573	5487.021	-1752.999	1	5760.244	-17.71769	-3.907578E-009	0.0063676	7
	27	10	1976.103	5612.537	-2082.612	1	5986.472	-20.35809	-3.223957E-008	0.0063293	7
	28	10	1577.524	5748.978	-2453.549	1	6250.652	-23.11183	-6.339898E-008	0.00643	7
	29	11	1265.625	5879.301	-2895.697	1	6553.72	-26.22136	-3.707384E-008	0.006325	7
	30	11	998.264	6049.307	-3476.705	1	6977.219	-29.88718	8.949475E-008	0.0062639	7
	31	11	796.875	6232.923	-4146.674	1	7486.27	-33.63525	8.227258E-008	0.006148	7
	32	12	627.7902	6450.218	-5030.193	1	8179.741	-37.94884	4.454138E-008	0.00627	7
	33	12	505.5147	6685.27	-5995.507	1	8979.919	-41.88651	-3.444598E-008	0.0064109	7
	34	12	397.9953	6978.75	-7315.232	1	10110.17	-46.3485	-2.829686E-010	0.0062798	6
	35	13	315.5048	7306.296	-8904.017	1	11517.96	-50.62901	1.96356E-010	0.0062778	6
	36	13	252.4038	7686.662	-10783.32	1	13242.53	-54.51762	-6.230132E-010	0.0062794	6
	37	13	198.6229	8180.6	-13278.42	1	15596.11	-58.36351	8.40861E-010	0.0062813	6
	38	14	158.3615	8773.082	-16194.35	1	18418.03	-61.55395	2.811805E-010	0.006277	6
	39	14	125.558	9515.56	-19872.91	1	22033.58	-64.41393	2.798296E-010	0.0062787	6
	40	14	100.4464	10479.35	-24160.02	1	26334.83	-66.55132	1.209615E-009	0.0062782	6
	41	15	79.00281	11843.51	-29851.7	1	32115.3	-68.35955	-6.908958E-010	0.0062721	6
	42	15	63.3446	13117.47	-36938.73	1	39198.7	-70.44933	1.043648E-009	0.0062709	6
	43	15	49.86702	15292.95	-45167.9	1	47686.62	-71.29492	-4.133468E-011	0.0062676	6
	44	16	39.72458	18428.03	-54712.52	1	57732.59	-71.38567	1.21772E-010	0.0062716	6
	45	16	31.6723	22529.08	-66374.82	1	70094.05	-71.25165	-9.080749E-010	0.0062701	6
	46	16	24.93351	27293.24	-80984.3	1	85459.8	-71.37521	8.033152E-010	0.0062689	6
	47	17	19.86229	33773.39	-97631.4	1	103308	-70.91809	1.16091E-009	0.006278	6
	48	17	15.83615	42216.5	-118560	1	125852	-70.40035	-1.422105E-009	0.0062725	5
	49	17	12.40079	53222.95	-142863.7	1	152455.6	-69.56744	-2.57154E-010	0.0062723	5
	50	18	9.93114	67121.2	-168851	1	181702.9	-68.32133	-5.972325E-010	0.0062721	5
	51	18	7.944915	83560.21	-199418.5	1	216217.6	-67.26537	-8.670785E-010	0.0062768	5
	52	19	6.317385	106730.3	-234588.9	1	257727.2	-65.536	-5.36622E-010	0.0062863	5
	53	20	5.008013	135422.3	-275053.2	1	306583.6	-63.78669	-3.467537E-010	0.0062735	5
	54	21	3.945707	168801.2	-320674.9	1	362389.6	-62.23797	-2.87902E-010	0.0062689	5
	55	22	3.158693	208926.4	-366360	1	421746.3	-60.30492	1.581118E-010	0.006282	5
	56	24	2.504006	256432.2	-418281.7	1	490629.2	-58.48915	-3.00795E-011	0.0062794	5
	57	25	1.998082	308637.8	-472958.8	1	564754.2	-56.87282	-1.560561E-010	0.0062383	5
	58	27	1.584686	368044.4	-531372.8	1	646385.1	-55.29239	-3.686658E-011	0.0062845	5
	59	29	1.266892	432951.4	-593817.3	1	734891.8	-53.90426	4.340246E-011	0.0063077	5
	60	31	0.999041	506637.3	-668280.9	1	838618.3	-52.83349	1.192349E-010	0.0063091	5
