EXPLAIN
TAG	EISPOT
TITLE	LABEL	Potentiostatic EIS	Test &Identifier
DATE	LABEL	10/20/2019	Date
TIME	LABEL	10:21:10	Time
NOTES	NOTES	1	&Notes...
	
PSTAT	PSTAT	REF600-11020	Potentiostat
VDC	POTEN	0.00000E+000	T	DC &Voltage (V)
FREQINIT	QUANT	1.00000E+006	Initial Fre&q. (Hz)
FREQFINAL	QUANT	1.00000E+000	Final Fre&q. (Hz)
PTSPERDEC	QUANT	1.00000E+001	Points/&decade
VAC	QUANT	2.50000E+001	AC &Voltage (mV rms)
AREA	QUANT	1.00000E-002	&Area (cm^2)
CONDIT	TWOPARAM	T	5.00000E+000	0.00000E+000	Conditionin&g	Time(s)	E(V)
DELAY	TWOPARAM	T	5.00000E+000	0.00000E+000	Init. De&lay	Time(s)	Stab.(mV/s)
SPEED	SELECTOR	1	&Optimize for:
ZGUESS	QUANT	1.00000E+005	E&stimated Z (ohms)
OCVCURVE	TABLE	19
	Pt	T	Vf	Vm	Ach	Over
	#	s	V vs. Ref.	V	V	bits
	0	0.258333	5.35324E-003	5.35324E-003	5.34966E-004	...........
	1	0.516667	5.35326E-003	5.35418E-003	5.29499E-004	...........
	2	0.775	5.35525E-003	5.45348E-003	5.28666E-004	...........
	3	1.03333	5.36680E-003	5.53152E-003	5.34066E-004	...........
	4	1.29167	5.39777E-003	5.58822E-003	5.29700E-004	...........
	5	1.55	5.44951E-003	5.64637E-003	5.29466E-004	...........
	6	1.80833	5.51293E-003	5.70655E-003	5.28000E-004	...........
	7	2.06667	5.57814E-003	5.76286E-003	5.31900E-004	...........
	8	2.325	5.64291E-003	5.93165E-003	5.29866E-004	...........
	9	2.58333	5.72122E-003	6.37723E-003	5.31500E-004	...........
	10	2.84167	5.84217E-003	6.42291E-003	5.35133E-004	...........
	11	3.1	6.01254E-003	6.35593E-003	5.40799E-004	...........
	12	3.35833	6.18659E-003	6.35963E-003	5.31166E-004	...........
	13	3.61667	6.30185E-003	6.08271E-003	5.30300E-004	...........
	14	3.875	6.33394E-003	6.38727E-003	5.33433E-004	...........
	15	4.13333	6.32040E-003	6.69391E-003	5.31400E-004	...........
	16	4.39167	6.33390E-003	6.52404E-003	5.31700E-004	...........
	17	4.65	6.40179E-003	6.50463E-003	5.30366E-004	...........
	18	4.90833	6.47832E-003	6.46357E-003	5.36066E-004	...........
EOC	QUANT	0.0064783	Open Circuit (V)
PSTATMODEL	IQUANT	4	Pstat Model
PSTATSECTION	LABEL	REF600-11020	Pstat Section
PSTATSERIALNO	LABEL	11020	Pstat Serial Number
CTRLMODE	IQUANT	1	Control Mode
IESTAB	IQUANT	0	I/E Stability
CASPEED	IQUANT	1	Control Amp Speed
CONVENTION	IQUANT	1	Current Convention
ICHRANGE	IQUANT	2	Ich Range
ICHRANGEMODE	TOGGLE	F	Ich Auto Range
ICHOFFSETENABLE	TOGGLE	T	Ich Offset Enable
ICHOFFSET	QUANT	0	Ich Offset (V)
ICHFILTER	IQUANT	3	Ich Filter
VCHRANGE	IQUANT	2	Vch Range
VCHRANGEMODE	TOGGLE	F	Vch Auto Range
VCHOFFSETENABLE	TOGGLE	T	Vch Offset Enable
VCHOFFSET	QUANT	0	Vch Offset (V)
VCHFILTER	IQUANT	3	Vch Filter
ACHRANGE	IQUANT	2	Ach Range
ACHOFFSETENABLE	TOGGLE	F	Ach Offset Enable
ACHOFFSET	QUANT	0	Ach Offset (V)
ACHFILTER	IQUANT	3	Ach Filter
IERANGELOWERLIMIT	IQUANT	1	I/E Range Lower Limit
IERANGEMODE	TOGGLE	F	I/E AutoRange
IERANGE	IQUANT	5	I/E Range
POSFEEDENABLE	TOGGLE	F	Positive Feedback IR Comp
POSFEEDRESISTANCE	QUANT	0	Positive Feedback Resistance (ohm)
ACHSELECT	IQUANT	0	Ach Select
CABLEID	IQUANT	14	Cable ID
DCCALDATE	LABEL	8/19/2019	DC Calibration Date
ACCALDATE	LABEL	8/19/2019	AC Calibration Date
THERMOSELECT	IQUANT	1	Thermo Select
FRAMEWORKVERSION	QUANT	6.33	Framework Version
INSTRUMENTVERSION	LABEL	3.50	Instrument Version
ZCURVE	TABLE
	Pt	Time	Freq	Zreal	Zimag	Zsig	Zmod	Zphz	Idc	Vdc	IERange
	#	s	Hz	ohm	ohm	V	ohm	°	A	V	#
	0	1	1000078	2376.387	-1229.367	1	2675.548	-27.35371	-2.782226E-006	0.0094719	8
	1	3	794390.6	2582.057	-1163.905	1	2832.259	-24.26426	6.146119E-006	0.0075211	8
	2	4	630984.4	2772.349	-1085.203	1	2977.178	-21.37727	-2.436323E-006	0.0087018	8
	3	6	501234.4	2934.881	-1001.412	1	3101.024	-18.84019	-8.356803E-007	0.0084557	8
	4	7	398109.4	3066.868	-915.7589	1	3200.671	-16.62549	3.953935E-008	0.0080618	8
	5	8	316265.6	3190.246	-838.0862	1	3298.493	-14.71917	-1.896236E-006	0.0084788	8
	6	10	251203.1	3277.883	-766.5949	1	3366.331	-13.16312	-7.98974E-007	0.0084282	8
	7	11	199546.9	3381.027	-702.8207	1	3453.303	-11.74295	1.477263E-006	0.0078243	8
	8	12	158578.1	3446.876	-649.9479	1	3507.619	-10.67839	1.198483E-006	0.0076612	8
	9	14	125953.1	3531.94	-579.3161	1	3579.135	-9.314831	7.847696E-007	0.0064341	7
	10	15	100078.1	3590.469	-555.2813	1	3633.153	-8.791388	-2.508392E-008	0.0080496	7
	11	16	79453.13	3649.228	-557.74	1	3691.603	-8.689716	-1.912059E-008	0.0081184	7
	12	18	63140.62	3710.941	-568.696	1	3754.264	-8.712706	-1.793292E-008	0.0081187	7
	13	19	50203.12	3777.228	-586.3893	1	3822.473	-8.824347	-4.115172E-008	0.0080862	7
	14	20	39890.62	3845.729	-613	1	3894.278	-9.05662	-4.938097E-008	0.0080913	7
	15	22	31640.63	3919.536	-645.9283	1	3972.403	-9.358071	-7.355457E-008	0.0081695	7
	16	23	25171.88	3998.176	-685.5715	1	4056.528	-9.72994	1.178988E-008	0.007983	7
	17	24	20015.62	4078.694	-751.2943	1	4147.311	-10.43688	-5.360029E-008	0.0082207	7
	18	26	15890.62	4172.663	-788.9086	1	4246.586	-10.70631	8.311991E-008	0.0079995	7
	19	27	12609.37	4270.502	-853.9024	1	4355.036	-11.30738	-2.301019E-008	0.0081172	7
	20	29	10078.13	4367.464	-923.6581	1	4464.066	-11.94131	4.667431E-008	0.0079087	7
	21	30	8015.625	4479.298	-1006.65	1	4591.019	-12.66587	-4.095167E-008	0.0081308	7
	22	31	6328.125	4593.92	-1106.514	1	4725.301	-13.54258	8.639223E-008	0.0080087	7
	23	33	5015.625	4713.531	-1218.803	1	4868.558	-14.49774	4.412396E-008	0.0079133	7
	24	34	3984.375	4857.024	-1337.906	1	5037.924	-15.40065	-4.96232E-008	0.0080921	7
	25	35	3170.956	4954.083	-1502.518	1	5176.92	-16.87197	-4.01219E-008	0.0080737	7
	26	37	2527.573	5073.817	-1692.4	1	5348.629	-18.44641	-3.622136E-008	0.0080716	7
	27	38	1976.103	5204.025	-1950.986	1	5557.717	-20.551	-3.692614E-008	0.0080737	7
	28	39	1577.524	5332.255	-2264.452	1	5793.158	-23.0095	8.640784E-008	0.0080106	7
	29	41	1265.625	5435.105	-2627.318	1	6036.817	-25.79902	1.386984E-008	0.0079826	7
	30	42	998.264	5583.854	-3139.159	1	6405.758	-29.34405	-4.145906E-008	0.0081299	7
	31	44	796.875	5736.626	-3742.526	1	6849.48	-33.12009	1.319783E-007	0.0078542	7
	32	45	627.7902	5936.594	-4541.857	1	7474.731	-37.4182	4.195024E-008	0.0079048	7
	33	47	505.5147	6176.104	-5442.052	1	8231.658	-41.38478	7.389723E-008	0.0079168	7
	34	48	397.9953	6506.365	-6655.968	1	9307.776	-45.6512	4.020363E-009	0.0080652	7
	35	49	315.5048	6927.904	-8097.051	1	10656.36	-49.44943	-3.152759E-010	0.0080015	6
	36	51	252.4038	7451.321	-9773.8	1	12290.22	-52.67895	-3.571723E-010	0.0079987	6
	37	52	198.6229	8183.874	-11948.96	1	14482.87	-55.59266	2.380504E-010	0.0080048	6
	38	53	158.3615	9096.354	-14413.26	1	17043.64	-57.74356	-2.34727E-010	0.0080018	6
	39	55	125.558	10309.03	-17407	1	20230.67	-59.36451	1.796512E-010	0.0080053	6
	40	56	100.4464	11802.92	-20783.16	1	23900.81	-60.40741	2.011297E-009	0.0080021	6
	41	58	79.00281	14025.98	-25054.35	1	28713.21	-60.75893	1.496361E-009	0.0080003	6
	42	59	63.3446	16567.71	-30021.58	1	34289.71	-61.10745	-1.096222E-010	0.0079993	6
	43	60	49.86702	19476.39	-34835.51	1	39910.43	-60.79063	-1.170383E-009	0.0080032	6
	44	62	39.72458	23676.07	-40807.65	1	47178.6	-59.87825	4.274781E-010	0.0080034	6
	45	63	31.6723	28360.36	-47049.15	1	54935.71	-58.9192	2.565839E-010	0.0079991	6
	46	65	24.93351	34097.84	-54508.97	1	64295.34	-57.97215	3.07084E-011	0.0080008	6
	47	66	19.86229	40115.58	-62159.71	1	73980.33	-57.1633	7.100313E-010	0.007996	6
	48	67	15.83615	46774.72	-69532.66	1	83801.35	-56.07122	-1.376481E-009	0.0079976	6
	49	69	12.40079	53805.43	-81820.74	1	97926.8	-56.67103	1.321475E-009	0.0080081	6
	50	70	9.93114	60902.3	-92377.36	1	110646.6	-56.60404	2.824031E-010	0.0080084	5
	51	72	7.944915	68825.5	-105842.8	1	126252.3	-56.96559	2.011304E-010	0.00801	5
	52	73	6.317385	77086.05	-122886.3	1	145063.1	-57.90013	-6.109993E-011	0.0079966	5
	53	76	5.008013	86566.2	-143881.5	1	167915.4	-58.9668	-4.491356E-011	0.0080086	5
	54	78	3.945707	97928.9	-170308.1	1	196455.9	-60.10065	-2.514706E-010	0.007998	5
	55	81	3.158693	110330.5	-200101.9	1	228502.9	-61.12889	2.696191E-010	0.0080252	5
	56	84	2.504006	126133.1	-237810.8	1	269190.6	-62.05885	-3.056777E-010	0.0079996	5
	57	87	1.998082	144385.8	-281011.4	1	315934.6	-62.80555	-1.776439E-010	0.0080021	5
	58	90	1.584686	168164.1	-333971.4	1	373919.8	-63.27345	9.280091E-011	0.0080589	5
	59	94	1.266892	194730.7	-394006.7	1	439501.2	-63.69995	-1.780795E-010	0.0080165	5
	60	98	0.999041	229028	-469315.8	1	522217.5	-63.98743	2.301704E-010	0.0079963	5
