EXPLAIN
TAG	EISPOT
TITLE	LABEL	Potentiostatic EIS	Test &Identifier
DATE	LABEL	8/14/2018	Date
TIME	LABEL	5:16:00	Time
NOTES	NOTES	1	&Notes...
	
PSTAT	PSTAT	REF600-11020	Potentiostat
VDC	POTEN	0.00000E+000	T	DC &Voltage (V)
FREQINIT	QUANT	1.00000E+006	Initial Fre&q. (Hz)
FREQFINAL	QUANT	1.00000E+000	Final Fre&q. (Hz)
PTSPERDEC	QUANT	1.00000E+001	Points/&decade
VAC	QUANT	2.50000E+001	AC &Voltage (mV rms)
AREA	QUANT	1.00000E-002	&Area (cm^2)
CONDIT	TWOPARAM	T	5.00000E+000	0.00000E+000	Conditionin&g	Time(s)	E(V)
DELAY	TWOPARAM	T	5.00000E+000	0.00000E+000	Init. De&lay	Time(s)	Stab.(mV/s)
SPEED	SELECTOR	0	&Optimize for:
ZGUESS	QUANT	1.00000E+005	E&stimated Z (ohms)
OCVCURVE	TABLE	19
	Pt	T	Vf	Vm	Ach	Over
	#	s	V vs. Ref.	V	V	bits
	0	0.258333	4.50167E-003	4.50167E-003	5.36333E-004	...........
	1	0.516667	4.50159E-003	4.49781E-003	5.38833E-004	...........
	2	0.775	4.50062E-003	4.46675E-003	5.43133E-004	...........
	3	1.03333	4.49608E-003	4.43494E-003	5.45466E-004	...........
	4	1.29167	4.48563E-003	4.46793E-003	5.36799E-004	...........
	5	1.55	4.47110E-003	4.39959E-003	5.39933E-004	...........
	6	1.80833	4.45552E-003	4.40901E-003	5.39399E-004	...........
	7	2.06667	4.44029E-003	4.45091E-003	5.39266E-004	...........
	8	2.325	4.43008E-003	4.47330E-003	5.38866E-004	...........
	9	2.58333	4.43159E-003	4.48644E-003	5.34966E-004	...........
	10	2.84167	4.44501E-003	4.50476E-003	5.31233E-004	...........
	11	3.1	4.46435E-003	4.52520E-003	5.27066E-004	...........
	12	3.35833	4.48447E-003	4.53700E-003	5.30066E-004	...........
	13	3.61667	4.50350E-003	4.56033E-003	5.30300E-004	...........
	14	3.875	4.52156E-003	4.57736E-003	5.34400E-004	...........
	15	4.13333	4.53964E-003	4.60720E-003	5.33600E-004	...........
	16	4.39167	4.55883E-003	4.62112E-003	5.34666E-004	...........
	17	4.65	4.57933E-003	4.64224E-003	5.31000E-004	...........
	18	4.90833	4.60018E-003	4.65957E-003	5.36566E-004	...........
EOC	QUANT	0.0046002	Open Circuit (V)
PSTATMODEL	IQUANT	4	Pstat Model
PSTATSECTION	LABEL	REF600-11020	Pstat Section
PSTATSERIALNO	LABEL	11020	Pstat Serial Number
CTRLMODE	IQUANT	1	Control Mode
IESTAB	IQUANT	0	I/E Stability
CASPEED	IQUANT	1	Control Amp Speed
CONVENTION	IQUANT	1	Current Convention
ICHRANGE	IQUANT	2	Ich Range
ICHRANGEMODE	TOGGLE	F	Ich Auto Range
ICHOFFSETENABLE	TOGGLE	T	Ich Offset Enable
ICHOFFSET	QUANT	0	Ich Offset (V)
ICHFILTER	IQUANT	3	Ich Filter
VCHRANGE	IQUANT	2	Vch Range
VCHRANGEMODE	TOGGLE	F	Vch Auto Range
VCHOFFSETENABLE	TOGGLE	T	Vch Offset Enable
VCHOFFSET	QUANT	0	Vch Offset (V)
VCHFILTER	IQUANT	3	Vch Filter
ACHRANGE	IQUANT	2	Ach Range
ACHOFFSETENABLE	TOGGLE	F	Ach Offset Enable
ACHOFFSET	QUANT	0	Ach Offset (V)
ACHFILTER	IQUANT	3	Ach Filter
IERANGELOWERLIMIT	IQUANT	1	I/E Range Lower Limit
IERANGEMODE	TOGGLE	F	I/E AutoRange
IERANGE	IQUANT	4	I/E Range
POSFEEDENABLE	TOGGLE	F	Positive Feedback IR Comp
POSFEEDRESISTANCE	QUANT	0	Positive Feedback Resistance (ohm)
ACHSELECT	IQUANT	0	Ach Select
CABLEID	IQUANT	14	Cable ID
DCCALDATE	LABEL	8/19/2019	DC Calibration Date
ACCALDATE	LABEL	8/19/2019	AC Calibration Date
THERMOSELECT	IQUANT	1	Thermo Select
FRAMEWORKVERSION	QUANT	6.33	Framework Version
INSTRUMENTVERSION	LABEL	3.50	Instrument Version
ZCURVE	TABLE
	Pt	Time	Freq	Zreal	Zimag	Zsig	Zmod	Zphz	Idc	Vdc	IERange
	#	s	Hz	ohm	ohm	V	ohm	°	A	V	#
	0	1	1000078	1352.795	-2740.25	1	3055.982	-63.72557	-1.591667E-006	0.0064625	8
	1	1	794390.6	1537.376	-3291.185	1	3632.551	-64.96181	6.431104E-007	0.0063803	8
	2	2	630984.4	1744.918	-3954.682	1	4322.528	-66.19157	9.969972E-007	0.00591	8
	3	2	501234.4	2004.503	-4756.624	1	5161.734	-67.14881	2.041439E-007	0.0058423	8
	4	2	398109.4	2320.315	-5746.189	1	6196.979	-68.01111	-8.798923E-007	0.0062635	8
	5	3	316265.6	2735.246	-6896.888	1	7419.477	-68.36715	-2.242085E-007	0.006154	8
	6	3	251203.1	3241.972	-8419.357	1	9021.971	-68.94022	3.763866E-006	0.0053558	8
	7	4	199546.9	3862.348	-10027.31	1	10745.45	-68.93417	-2.737499E-007	0.0061381	8
	8	5	158578.1	4996.86	-11987.97	1	12987.68	-67.37251	-2.401054E-006	0.0066896	8
	9	5	125953.1	5782.433	-14747.99	1	15841.08	-68.59071	-3.467325E-007	0.0073371	7
	10	5	100078.1	7595.927	-17197.32	1	18800.16	-66.16932	-7.524665E-008	0.0061648	7
	11	6	79453.13	9433.146	-20514.45	1	22579.35	-65.30564	1.249591E-007	0.0058627	7
	12	6	63140.62	11914.09	-24078.78	1	26865.1	-63.67397	-3.914378E-008	0.006156	7
	13	6	50203.12	14900.24	-28112.85	1	31817.45	-62.07573	-7.524979E-008	0.0061181	7
	14	7	39890.62	18608.71	-32695.95	1	37620.59	-60.35389	1.113074E-008	0.0060474	7
	15	7	31640.63	23219.33	-37344.59	1	43974.49	-58.12836	-5.004941E-012	0.0059768	7
	16	7	25171.88	28461.8	-42254.93	1	50946.57	-56.03684	-4.510646E-008	0.0060426	7
	17	7	20015.62	32453.23	-48319.9	1	58206.74	-56.11339	5.507719E-008	0.0059529	7
	18	8	15890.62	42173.27	-53032.84	1	67757.41	-51.50725	3.183652E-008	0.0059036	7
	19	8	12609.37	52160.14	-57288.23	1	77476.59	-47.68257	6.564792E-009	0.0060338	6
	20	9	10078.13	62242.47	-62367.46	1	88112.57	-45.05747	-6.172452E-009	0.0059131	6
	21	9	8015.625	73542.02	-66539.66	1	99176.4	-42.1383	1.60421E-008	0.0056552	6
	22	9	6328.125	85762.7	-69557.73	1	110424.3	-39.04374	4.413342E-009	0.0060145	6
	23	10	5015.625	98741.5	-71413.68	1	121859.7	-35.87592	7.346544E-009	0.0060236	6
	24	10	3984.375	111858.1	-71206.84	1	132599.6	-32.48008	-6.851355E-009	0.0061514	6
	25	10	3170.956	123690.9	-70097.76	1	142172.9	-29.54098	-1.283274E-008	0.0060737	6
	26	11	2527.573	135326	-68444.49	1	151650.2	-26.82914	-5.96182E-009	0.0059121	6
	27	11	1976.103	145989.5	-64573.85	1	159633.1	-23.86068	-8.476952E-009	0.0061151	6
	28	11	1577.524	153960.9	-88635.55	1	177651.9	-29.92911	6.58126E-009	0.0060302	6
	29	12	1265.625	164723.6	-58466.15	1	174791.7	-19.54155	-8.081239E-010	0.0060366	5
	30	12	998.264	172593.8	-57903.88	1	182048	-18.5462	2.120632E-009	0.0056751	5
	31	12	796.875	179949.5	-57691.54	1	188971.2	-17.77577	9.578172E-010	0.0060051	5
	32	13	627.7902	187177.1	-57895.75	1	195926.5	-17.18736	-3.943759E-010	0.0061487	5
	33	13	505.5147	194005.6	-58916.81	1	202754.4	-16.89281	-1.790069E-010	0.0058131	5
	34	13	397.9953	201399.6	-60611.21	1	210322.5	-16.74916	-7.375806E-010	0.0059881	5
	35	14	315.5048	208903.8	-63230.83	1	218263.5	-16.83997	6.839327E-010	0.0059911	5
	36	14	252.4038	215408.4	-66311.34	1	225384.1	-17.11046	3.252238E-010	0.0059848	5
	37	14	198.6229	223545.6	-70293.68	1	234337	-17.4557	-3.740404E-010	0.0059845	5
	38	15	158.3615	232156.5	-75766.03	1	244207.1	-18.07449	-8.098132E-010	0.0059802	5
	39	15	125.558	240387.9	-80966.64	1	253657.1	-18.61438	1.410461E-010	0.0059811	5
	40	15	100.4464	250543.7	-92583.03	1	267102.6	-20.2807	-7.704581E-010	0.0059785	5
	41	16	79.00281	255408.9	-102708.2	1	275286.5	-21.90667	-8.770992E-010	0.0059776	5
	42	16	63.3446	249186.2	-100178.5	1	268569.3	-21.90126	4.857534E-010	0.0059732	5
	43	16	49.86702	271050.4	-113196	1	293737.4	-22.66637	8.92472E-010	0.0059722	5
	44	17	39.72458	296627.3	-139675.4	1	327867.3	-25.21473	1.134391E-010	0.0059784	5
	45	17	31.6723	315073.1	-159204.4	1	353011.5	-26.80718	3.704995E-011	0.0059768	5
	46	17	24.93351	336056.7	-174676.3	1	378742.6	-27.46461	-2.381477E-010	0.0059766	5
	47	18	19.86229	359016.3	-193030.4	1	407619.2	-28.26535	1.466637E-010	0.0059748	5
	48	18	15.83615	371024.7	-215178.5	1	428906.9	-30.1119	-1.209051E-009	0.0059771	5
	49	18	12.40079	398581.2	-242950.6	1	466789	-31.36392	1.678908E-009	0.0059777	5
	50	19	9.93114	447914.7	-269464.8	1	522722.5	-31.03105	-1.407885E-010	0.0059728	5
	51	19	7.944915	478188.9	-294687.8	1	561698.8	-31.64379	-4.977979E-010	0.0059799	5
	52	20	6.317385	515155.8	-323550.7	1	608334.2	-32.13145	-3.466361E-010	0.0059877	5
	53	21	5.008013	556475.9	-358039.8	1	661708.4	-32.75747	3.918567E-010	0.0059832	6
	54	22	3.945707	601329.1	-393484.3	1	718628.3	-33.19904	3.438545E-010	0.0059693	6
	55	24	3.158693	645743.9	-438457.9	1	780532.2	-34.17637	1.356621E-010	0.0059878	6
	56	26	2.504006	696482.3	-490905.5	1	852100.8	-35.17754	-1.95261E-010	0.005978	5
	57	27	1.998082	750047.3	-546108.9	1	927796.3	-36.05833	2.322539E-012	0.0060129	5
	58	29	1.584686	813893.5	-615680	1	1020531	-37.10614	6.824125E-011	0.0060193	4
	59	31	1.266892	876804.1	-691067.5	1	1116405	-38.24399	3.411758E-011	0.005979	4
	60	33	0.999041	952676	-783066.4	1	1233201	-39.41902	-7.058886E-012	0.0059551	4
