EXPLAIN
TAG	EISPOT
TITLE	LABEL	Potentiostatic EIS	Test &Identifier
DATE	LABEL	11/27/2019	Date
TIME	LABEL	12:59:27	Time
NOTES	NOTES	3	&Notes...
	
	
	
PSTAT	PSTAT	REF600-11020	Potentiostat
VDC	POTEN	0.00000E+000	T	DC &Voltage (V)
FREQINIT	QUANT	1.00000E+006	Initial Fre&q. (Hz)
FREQFINAL	QUANT	1.00000E+000	Final Fre&q. (Hz)
PTSPERDEC	QUANT	1.00000E+001	Points/&decade
VAC	QUANT	2.50000E+001	AC &Voltage (mV rms)
AREA	QUANT	1.00000E-002	&Area (cm^2)
CONDIT	TWOPARAM	T	5.00000E+000	0.00000E+000	Conditionin&g	Time(s)	E(V)
DELAY	TWOPARAM	T	5.00000E+000	0.00000E+000	Init. De&lay	Time(s)	Stab.(mV/s)
SPEED	SELECTOR	0	&Optimize for:
ZGUESS	QUANT	1.00000E+005	E&stimated Z (ohms)
OCVCURVE	TABLE	19
	Pt	T	Vf	Vm	Ach	Over
	#	s	V vs. Ref.	V	V	bits
	0	0.258333	5.30668E-003	5.30668E-003	5.31566E-004	...........
	1	0.516667	5.30599E-003	5.27052E-003	5.32800E-004	...........
	2	0.775	5.30136E-003	5.21606E-003	5.38133E-004	...........
	3	1.03333	5.28644E-003	5.13527E-003	5.32300E-004	...........
	4	1.29167	5.25634E-003	5.13316E-003	5.35466E-004	...........
	5	1.55	5.21564E-003	5.16125E-003	5.37533E-004	...........
	6	1.80833	5.17852E-003	5.13961E-003	5.35699E-004	...........
	7	2.06667	5.15495E-003	5.10077E-003	5.34400E-004	...........
	8	2.325	5.14073E-003	5.07543E-003	5.32866E-004	...........
	9	2.58333	5.12569E-003	5.06042E-003	5.36199E-004	...........
	10	2.84167	5.10630E-003	5.06336E-003	5.34066E-004	...........
	11	3.1	5.08669E-003	5.05548E-003	5.33466E-004	...........
	12	3.35833	5.07320E-003	5.13285E-003	5.41633E-004	...........
	13	3.61667	5.07129E-003	5.10764E-003	5.36433E-004	...........
	14	3.875	5.08228E-003	5.16598E-003	5.39533E-004	...........
	15	4.13333	5.10179E-003	5.15418E-003	5.35099E-004	...........
	16	4.39167	5.12436E-003	5.21722E-003	5.35733E-004	...........
	17	4.65	5.14870E-003	5.25557E-003	5.37133E-004	...........
	18	4.90833	5.17719E-003	5.28825E-003	5.39899E-004	...........
EOC	QUANT	0.0051772	Open Circuit (V)
PSTATMODEL	IQUANT	4	Pstat Model
PSTATSECTION	LABEL	REF600-11020	Pstat Section
PSTATSERIALNO	LABEL	11020	Pstat Serial Number
CTRLMODE	IQUANT	1	Control Mode
IESTAB	IQUANT	0	I/E Stability
CASPEED	IQUANT	1	Control Amp Speed
CONVENTION	IQUANT	1	Current Convention
ICHRANGE	IQUANT	2	Ich Range
ICHRANGEMODE	TOGGLE	F	Ich Auto Range
ICHOFFSETENABLE	TOGGLE	T	Ich Offset Enable
ICHOFFSET	QUANT	0	Ich Offset (V)
ICHFILTER	IQUANT	3	Ich Filter
VCHRANGE	IQUANT	2	Vch Range
VCHRANGEMODE	TOGGLE	F	Vch Auto Range
VCHOFFSETENABLE	TOGGLE	T	Vch Offset Enable
VCHOFFSET	QUANT	0	Vch Offset (V)
VCHFILTER	IQUANT	3	Vch Filter
ACHRANGE	IQUANT	2	Ach Range
ACHOFFSETENABLE	TOGGLE	F	Ach Offset Enable
ACHOFFSET	QUANT	0	Ach Offset (V)
ACHFILTER	IQUANT	3	Ach Filter
IERANGELOWERLIMIT	IQUANT	1	I/E Range Lower Limit
IERANGEMODE	TOGGLE	F	I/E AutoRange
IERANGE	IQUANT	4	I/E Range
POSFEEDENABLE	TOGGLE	F	Positive Feedback IR Comp
POSFEEDRESISTANCE	QUANT	0	Positive Feedback Resistance (ohm)
ACHSELECT	IQUANT	0	Ach Select
CABLEID	IQUANT	14	Cable ID
DCCALDATE	LABEL	8/19/2019	DC Calibration Date
ACCALDATE	LABEL	8/19/2019	AC Calibration Date
THERMOSELECT	IQUANT	1	Thermo Select
FRAMEWORKVERSION	QUANT	6.33	Framework Version
INSTRUMENTVERSION	LABEL	3.50	Instrument Version
ZCURVE	TABLE
	Pt	Time	Freq	Zreal	Zimag	Zsig	Zmod	Zphz	Idc	Vdc	IERange
	#	s	Hz	ohm	ohm	V	ohm	°	A	V	#
	0	2	1000078	2111.18	-1615.026	1	2658.08	-37.41553	1.108272E-005	0.0064542	8
	1	2	794390.6	2435.662	-1584.992	1	2905.968	-33.05383	-4.696242E-006	0.0068313	8
	2	2	630984.4	2739.982	-1491.977	1	3119.855	-28.56921	8.467522E-006	0.0061842	8
	3	3	501234.4	3004.715	-1365.647	1	3300.501	-24.44186	-6.989974E-006	0.007783	8
	4	3	398109.4	3238.867	-1222.81	1	3462.012	-20.68365	6.1146E-006	0.0061857	8
	5	3	316265.6	3406.939	-1072.572	1	3571.785	-17.47503	-3.740321E-007	0.0065546	8
	6	4	251203.1	3560.311	-946.4544	1	3683.964	-14.88691	-1.489828E-007	0.0065704	8
	7	4	199546.9	3646.951	-823.4934	1	3738.769	-12.72418	-5.169949E-006	0.0075986	8
	8	4	158578.1	3724.838	-720.0296	1	3793.792	-10.94062	1.821464E-006	0.0064097	8
	9	5	125953.1	3816.278	-598.2677	1	3862.888	-8.909591	1.843534E-006	0.006826	7
	10	5	100078.1	3852.215	-517.9191	1	3886.876	-7.657332	-9.901967E-007	0.0082622	7
	11	5	79453.13	3890.082	-468.0519	1	3918.138	-6.860808	-6.580811E-007	0.0066446	7
	12	6	63140.62	3932.697	-436.6869	1	3956.868	-6.33617	9.824722E-007	0.0054615	7
	13	6	50203.12	3958.548	-416.6296	1	3980.413	-6.008152	3.493406E-007	0.0072592	7
	14	6	39890.62	3984.603	-404.7426	1	4005.106	-5.80002	-9.917094E-007	0.0082455	7
	15	6	31640.63	4023.105	-406.1422	1	4043.554	-5.764618	-2.648666E-007	0.0080019	7
	16	7	25171.88	4055.726	-423.1902	1	4077.744	-5.956909	6.416109E-008	0.007642	7
	17	7	20015.62	4079.748	-446.2248	1	4104.079	-6.241946	1.028382E-007	0.0055436	7
	18	7	15890.62	4119.007	-483.1638	1	4147.249	-6.690281	3.507595E-007	0.0072575	7
	19	8	12609.37	4151.344	-539.4277	1	4186.244	-7.40356	9.95624E-007	0.0057492	7
	20	8	10078.13	4182.993	-606.0021	1	4226.662	-8.243251	-2.626319E-007	0.0079977	7
	21	8	8015.625	4213.798	-693.2447	1	4270.443	-9.342485	-1.104859E-006	0.007756	7
	22	9	6328.125	4264.141	-807.3417	1	4339.896	-10.72107	4.363884E-007	0.0052599	7
	23	9	5015.625	4309.516	-953.301	1	4413.696	-12.47344	-9.440076E-007	0.0072392	7
	24	9	3984.375	4366.166	-1134.287	1	4511.099	-14.56296	8.848854E-007	0.0052472	7
	25	10	3170.956	4415.716	-1347.858	1	4616.846	-16.97434	9.844521E-007	0.0054527	7
	26	10	2527.573	4479.117	-1619.175	1	4762.795	-19.87463	-1.103736E-006	0.0080851	7
	27	10	1976.103	4560.376	-1980.013	1	4971.668	-23.4694	-8.117348E-007	0.0082876	7
	28	11	1577.524	4643.163	-2409.609	1	5231.173	-27.42744	9.178024E-007	0.0061248	7
	29	11	1265.625	4767.489	-2872.073	1	5565.767	-31.06597	7.465259E-007	0.0065819	7
	30	11	998.264	4907.972	-3533.093	1	6047.391	-35.74891	-2.782575E-007	0.0060017	7
	31	12	796.875	5090.171	-4277.518	1	6648.834	-40.04196	-2.776668E-007	0.0060036	7
	32	12	627.7902	5279.143	-5245.077	1	7441.786	-44.81454	6.980053E-007	0.005174	7
	33	12	505.5147	5523.309	-6323.141	1	8395.775	-48.86256	8.82616E-007	0.0052468	7
	34	13	397.9953	5847.579	-7758.473	1	9715.35	-52.99458	2.32899E-009	0.0068008	7
	35	13	315.5048	6228.208	-9485.51	1	11347.49	-56.71101	-4.588891E-010	0.0067379	6
	36	13	252.4038	6674.004	-11511.91	1	13306.63	-59.89708	-4.640136E-010	0.0067377	6
	37	14	198.6229	7280.216	-14191.67	1	15950.08	-62.84253	1.962396E-010	0.0067397	6
	38	14	158.3615	8004.562	-17294.12	1	19056.75	-65.163	-8.006531E-010	0.0067324	6
	39	14	125.558	8976.287	-21199.33	1	23021.41	-67.05108	2.515251E-010	0.006729	6
	40	15	100.4464	10145.45	-25771.13	1	27696.23	-68.51168	6.126591E-010	0.0067332	6
	41	15	79.00281	11829.79	-31737.3	1	33870.34	-69.55753	-4.827985E-010	0.0067234	6
	42	15	63.3446	14608.14	-38365.58	1	41052.59	-69.15508	5.410847E-010	0.0067231	6
	43	16	49.86702	17574.76	-47142.09	1	50311.52	-69.55434	8.247923E-010	0.0067247	6
	44	16	39.72458	21270.22	-56677.13	1	60536.93	-69.42951	5.10103E-010	0.0067308	6
	45	16	31.6723	26241.91	-68012.18	1	72899.2	-68.90133	7.931715E-010	0.0067271	6
	46	17	24.93351	33810.68	-82007.11	1	88703.59	-67.59415	7.12523E-010	0.006726	6
	47	17	19.86229	42783.14	-96734.4	1	105773.1	-66.14143	1.152408E-009	0.0067458	5
	48	17	15.83615	53023.48	-114468.6	1	126152.9	-65.14576	-1.095569E-009	0.006733	5
	49	17	12.40079	67937.41	-132647.8	1	149033.3	-62.88011	-1.553687E-009	0.00673	5
	50	18	9.93114	84446.4	-152796	1	174578.9	-61.0717	-3.988762E-011	0.006741	5
	51	18	7.944915	102814.8	-173872.5	1	201996.3	-59.40319	9.788496E-010	0.0067267	5
	52	19	6.317385	124391.3	-198025.7	1	233853.3	-57.86472	7.923903E-010	0.0067155	5
	53	20	5.008013	149275.1	-224624.6	1	269702.2	-56.39382	1.732435E-010	0.0067322	5
	54	21	3.945707	177986.5	-253791.3	1	309982.6	-54.95763	-7.547278E-011	0.0067375	5
	55	22	3.158693	206783.6	-285392.8	1	352432.3	-54.0745	-2.523614E-010	0.006718	5
	56	24	2.504006	239812.7	-320687.8	1	400438.2	-53.21058	6.614719E-011	0.0067155	5
	57	25	1.998082	274028.2	-360323.9	1	452686.2	-52.74682	1.62198E-010	0.0067491	5
	58	27	1.584686	311380.6	-405762.9	1	511469.9	-52.49753	-5.395178E-012	0.0067083	5
	59	29	1.266892	351451.5	-457812.4	1	577157.1	-52.48742	-6.775561E-011	0.0066789	5
	60	31	0.999041	396243.8	-524525.4	1	657370.6	-52.9314	-9.062213E-011	0.0066777	5
