EXPLAIN
TAG	EISPOT
TITLE	LABEL	Potentiostatic IDE	Test &Identifier
DATE	LABEL	9/6/2019	Date
TIME	LABEL	9:09:19	Time
NOTES	NOTES	1	&Notes...
	
PSTAT	PSTAT	REF600-11020	Potentiostat
VDC	POTEN	0.00000E+000	T	DC &Voltage (V)
FREQINIT	QUANT	1.00000E+006	Initial Fre&q. (Hz)
FREQFINAL	QUANT	1.00000E+000	Final Fre&q. (Hz)
PTSPERDEC	QUANT	1.00000E+001	Points/&decade
VAC	QUANT	2.50000E+001	AC &Voltage (mV rms)
AREA	QUANT	1.00000E-002	&Area (cm^2)
CONDIT	TWOPARAM	T	5.00000E+000	0.00000E+000	Conditionin&g	Time(s)	E(V)
DELAY	TWOPARAM	T	5.00000E+000	0.00000E+000	Init. De&lay	Time(s)	Stab.(mV/s)
SPEED	SELECTOR	1	&Optimize for:
ZGUESS	QUANT	1.00000E+007	E&stimated Z (ohms)
OCVCURVE	TABLE	19
	Pt	T	Vf	Vm	Ach	Over
	#	s	V vs. Ref.	V	V	bits
	0	0.258333	5.10063E-003	5.10063E-003	5.64399E-004	...........
	1	0.516667	5.09796E-003	4.96074E-003	5.68666E-004	...........
	2	0.775	5.08186E-003	4.84457E-003	5.65399E-004	...........
	3	1.03333	5.03737E-003	4.73282E-003	5.65766E-004	...........
	4	1.29167	4.96023E-003	4.65072E-003	5.63232E-004	...........
	5	1.55	4.86242E-003	4.57320E-003	5.64566E-004	...........
	6	1.80833	4.76055E-003	4.46815E-003	5.64799E-004	...........
	7	2.06667	4.66541E-003	4.49144E-003	5.68166E-004	...........
	8	2.325	4.58364E-003	4.41386E-003	5.67532E-004	...........
	9	2.58333	4.51835E-003	4.34686E-003	5.65199E-004	...........
	10	2.84167	4.46324E-003	4.25224E-003	5.69566E-004	...........
	11	3.1	4.40675E-003	4.21879E-003	5.63066E-004	...........
	12	3.35833	4.35182E-003	4.54318E-003	5.64532E-004	...........
	13	3.61667	4.33148E-003	4.75996E-003	5.69866E-004	...........
	14	3.875	4.37377E-003	4.23969E-003	5.64032E-004	...........
	15	4.13333	4.43336E-003	3.98461E-003	5.69732E-004	...........
	16	4.39167	4.41553E-003	3.85425E-003	5.68766E-004	...........
	17	4.65	4.28787E-003	3.82475E-003	5.71966E-004	...........
	18	4.90833	4.10907E-003	3.75929E-003	5.66666E-004	...........
EOC	QUANT	0.0041091	Open Circuit (V)
PSTATMODEL	IQUANT	4	Pstat Model
PSTATSECTION	LABEL	REF600-11020	Pstat Section
PSTATSERIALNO	LABEL	11020	Pstat Serial Number
CTRLMODE	IQUANT	1	Control Mode
IESTAB	IQUANT	0	I/E Stability
CASPEED	IQUANT	1	Control Amp Speed
CONVENTION	IQUANT	1	Current Convention
ICHRANGE	IQUANT	2	Ich Range
ICHRANGEMODE	TOGGLE	F	Ich Auto Range
ICHOFFSETENABLE	TOGGLE	T	Ich Offset Enable
ICHOFFSET	QUANT	0	Ich Offset (V)
ICHFILTER	IQUANT	3	Ich Filter
VCHRANGE	IQUANT	2	Vch Range
VCHRANGEMODE	TOGGLE	F	Vch Auto Range
VCHOFFSETENABLE	TOGGLE	T	Vch Offset Enable
VCHOFFSET	QUANT	0	Vch Offset (V)
VCHFILTER	IQUANT	3	Vch Filter
ACHRANGE	IQUANT	2	Ach Range
ACHOFFSETENABLE	TOGGLE	F	Ach Offset Enable
ACHOFFSET	QUANT	0	Ach Offset (V)
ACHFILTER	IQUANT	3	Ach Filter
IERANGELOWERLIMIT	IQUANT	1	I/E Range Lower Limit
IERANGEMODE	TOGGLE	F	I/E AutoRange
IERANGE	IQUANT	2	I/E Range
POSFEEDENABLE	TOGGLE	F	Positive Feedback IR Comp
POSFEEDRESISTANCE	QUANT	0	Positive Feedback Resistance (ohm)
ACHSELECT	IQUANT	0	Ach Select
CABLEID	IQUANT	14	Cable ID
DCCALDATE	LABEL	8/19/2019	DC Calibration Date
ACCALDATE	LABEL	8/19/2019	AC Calibration Date
THERMOSELECT	IQUANT	1	Thermo Select
FRAMEWORKVERSION	QUANT	6.33	Framework Version
INSTRUMENTVERSION	LABEL	3.50	Instrument Version
ZCURVE	TABLE
	Pt	Time	Freq	Zreal	Zimag	Zsig	Zmod	Zphz	Idc	Vdc	IERange
	#	s	Hz	ohm	ohm	V	ohm	°	A	V	#
	0	2	1000078	2387.227	-1601.5	1	2874.657	-33.85616	-1.819501E-006	0.0065522	8
	1	4	794390.6	2703.26	-1504.935	1	3093.937	-29.10517	-4.574144E-008	0.0061892	8
	2	5	630984.4	2976.932	-1363.304	1	3274.251	-24.6057	1.436212E-006	0.0055957	8
	3	6	501234.4	3184.379	-1205.503	1	3404.924	-20.73504	-5.968653E-007	0.0059446	8
	4	8	398109.4	3343.855	-1042.95	1	3502.729	-17.32273	-1.924902E-006	0.0061001	8
	5	9	316265.6	3472.479	-889.9983	1	3584.718	-14.3755	-1.80606E-006	0.0060808	8
	6	10	251203.1	3557.428	-757.214	1	3637.124	-12.01632	1.262621E-006	0.0054359	8
	7	12	199546.9	3636.689	-651.6295	1	3694.608	-10.15857	1.212636E-006	0.0053317	8
	8	13	158578.1	3688.071	-571.0304	1	3732.016	-8.801317	-1.820562E-006	0.0060271	8
	9	14	125953.1	3744.198	-469.3987	1	3773.507	-7.145716	6.291909E-007	0.0043495	7
	10	15	100078.1	3767.474	-417.0818	1	3790.49	-6.31726	-2.544175E-008	0.0056577	7
	11	17	79453.13	3799.848	-383.095	1	3819.111	-5.757021	-2.664348E-008	0.00563	7
	12	18	63140.62	3828.041	-360.2125	1	3844.952	-5.375611	-2.588557E-008	0.0056438	7
	13	19	50203.12	3857.544	-346.8021	1	3873.102	-5.137211	-3.062839E-008	0.0056768	7
	14	21	39890.62	3883.358	-342.5871	1	3898.44	-5.041541	-8.517551E-009	0.0056446	7
	15	22	31640.63	3911.43	-346.7858	1	3926.773	-5.066574	-2.458068E-008	0.0056448	7
	16	23	25171.88	3938.876	-360.4707	1	3955.336	-5.228922	-2.515268E-008	0.0056272	7
	17	25	20015.62	3966.447	-383.3205	1	3984.926	-5.519967	4.592111E-008	0.0055298	7
	18	26	15890.62	3997.519	-417.0349	1	4019.214	-5.955747	-2.137242E-008	0.0056767	7
	19	27	12609.37	4027.678	-461.4848	1	4054.03	-6.536353	-2.539331E-008	0.0056396	7
	20	29	10078.13	4059.25	-519.0096	1	4092.295	-7.286221	-2.487919E-008	0.0056438	7
	21	30	8015.625	4093.148	-594.0137	1	4136.026	-8.257341	4.397865E-008	0.0055329	7
	22	31	6328.125	4129.499	-690.6192	1	4186.85	-9.494307	1.500596E-008	0.0055971	7
	23	33	5015.625	4169.946	-811.5316	1	4248.18	-11.01292	7.349046E-008	0.0055022	7
	24	34	3984.375	4216.069	-961.088	1	4324.226	-12.84161	-5.978191E-009	0.0056243	7
	25	35	3170.956	4266.562	-1143.811	1	4417.222	-15.00739	-2.645126E-008	0.0056184	7
	26	37	2527.573	4322.217	-1367.824	1	4533.487	-17.56068	5.120932E-008	0.0055141	7
	27	38	1976.103	4397.731	-1671.225	1	4704.576	-20.80778	7.68464E-009	0.0055832	7
	28	39	1577.524	4478.657	-2014.709	1	4910.949	-24.22044	4.773226E-008	0.0055092	7
	29	41	1265.625	4572.784	-2420.216	1	5173.76	-27.89072	-1.954878E-008	0.005671	7
	30	42	998.264	4701.158	-2957.379	1	5554.005	-32.17295	1.634172E-008	0.0055956	7
	31	43	796.875	4849.603	-3585.281	1	6030.994	-36.47529	-1.830173E-008	0.0056688	7
	32	45	627.7902	5043.587	-4386.282	1	6684.104	-41.01267	-1.12577E-008	0.0056031	7
	33	46	505.5147	5247.771	-5279.134	1	7443.679	-45.1707	4.69609E-008	0.0055323	7
	34	47	397.9953	5543.852	-6462.938	1	8514.92	-49.3773	5.011144E-009	0.0056221	7
	35	49	315.5048	5885.347	-7870.929	1	9827.96	-53.21335	5.074993E-009	0.005619	7
	36	50	252.4038	6285.268	-9511.51	1	11400.59	-56.54302	1.428383E-009	0.0055569	6
	37	51	198.6229	6804.482	-11658.97	1	13499.35	-59.73103	1.120006E-009	0.0055581	6
	38	53	158.3615	7402.075	-14137.02	1	15957.63	-62.36367	1.279309E-009	0.0055553	6
	39	54	125.558	8147.626	-17224.46	1	19054.28	-64.68461	1.162414E-009	0.0055578	6
	40	55	100.4464	9032.101	-20841.88	1	22714.82	-66.56988	8.651665E-010	0.0055544	6
	41	57	79.00281	10218.41	-25625.7	1	27587.9	-68.26004	7.746548E-010	0.0055573	6
	42	58	63.3446	11458.35	-30924.51	1	32979.07	-69.669	1.187099E-009	0.0055538	6
	43	59	49.86702	13518.51	-37953.8	1	40289.47	-70.39496	1.088106E-009	0.0055544	6
	44	61	39.72458	15709.82	-46154.37	1	48754.73	-71.20267	9.880939E-010	0.0055562	6
	45	62	31.6723	18649.15	-55913.67	1	58941.74	-71.55466	8.582244E-010	0.0055519	6
	46	63	24.93351	22673.74	-68423.64	1	72082.55	-71.66621	1.200396E-009	0.0055507	6
	47	65	19.86229	27601.49	-82714.12	1	87197.86	-71.54628	1.290494E-009	0.0055528	6
	48	66	15.83615	33955.02	-99786.7	1	105405.6	-71.2078	1.158993E-009	0.0055547	6
	49	67	12.40079	42699.03	-121417.4	1	128706.7	-70.62469	3.628464E-010	0.0055624	5
	50	69	9.93114	53194.02	-144625.2	1	154097.5	-69.80617	7.341194E-010	0.0055565	5
	51	70	7.944915	66163.62	-171909.3	1	184202.1	-68.94952	4.143649E-010	0.0055708	5
	52	72	6.317385	83233.63	-203981.5	1	220309.6	-67.80233	3.014191E-010	0.0055758	5
	53	74	5.008013	104697.1	-241284.6	1	263020.4	-66.54324	4.994882E-010	0.0055701	5
	54	77	3.945707	131495.7	-284977.1	1	313852	-65.23019	7.785295E-010	0.005565	5
	55	79	3.158693	162786.1	-331756.5	1	369542.5	-63.86376	1.308866E-010	0.0055623	5
	56	83	2.504006	201366.8	-385376.2	1	434814.2	-62.41203	6.310631E-010	0.0055622	5
	57	85	1.998082	244835.9	-443504.9	1	506597.7	-61.09921	-3.478436E-011	0.0055876	5
	58	88	1.584686	297928.7	-509463	1	590181.4	-59.68134	2.742163E-010	0.0056165	5
	59	92	1.266892	354288.6	-580016.8	1	679661.6	-58.58238	-1.02781E-010	0.0055664	5
	60	96	0.999041	421631.3	-661168.3	1	784166.1	-57.47408	3.307289E-010	0.0055705	5
