EXPLAIN
TAG	EISPOT
TITLE	LABEL	Potentiostatic EIS	Test &Identifier
DATE	LABEL	11/22/2019	Date
TIME	LABEL	0:55:08	Time
NOTES	NOTES	4	&Notes...
	
	
	
	
PSTAT	PSTAT	REF600-11020	Potentiostat
VDC	POTEN	0.00000E+000	T	DC &Voltage (V)
FREQINIT	QUANT	1.00000E+006	Initial Fre&q. (Hz)
FREQFINAL	QUANT	1.00000E+000	Final Fre&q. (Hz)
PTSPERDEC	QUANT	1.00000E+001	Points/&decade
VAC	QUANT	2.50000E+001	AC &Voltage (mV rms)
AREA	QUANT	1.00000E-002	&Area (cm^2)
CONDIT	TWOPARAM	T	5.00000E+000	0.00000E+000	Conditionin&g	Time(s)	E(V)
DELAY	TWOPARAM	T	5.00000E+000	0.00000E+000	Init. De&lay	Time(s)	Stab.(mV/s)
SPEED	SELECTOR	1	&Optimize for:
ZGUESS	QUANT	1.00000E+005	E&stimated Z (ohms)
OCVCURVE	TABLE	19
	Pt	T	Vf	Vm	Ach	Over
	#	s	V vs. Ref.	V	V	bits
	0	0.258333	4.83872E-003	4.83872E-003	5.66132E-004	...........
	1	0.516667	4.83550E-003	4.67034E-003	5.70099E-004	...........
	2	0.775	4.81586E-003	4.51660E-003	5.64866E-004	...........
	3	1.03333	4.76110E-003	4.39144E-003	5.75132E-004	...........
	4	1.29167	4.66559E-003	4.26498E-003	5.70999E-004	...........
	5	1.55	4.54323E-003	4.16687E-003	5.73332E-004	...........
	6	1.80833	4.41436E-003	4.08384E-003	5.68532E-004	...........
	7	2.06667	4.29393E-003	4.01396E-003	5.65399E-004	...........
	8	2.325	4.18875E-003	3.93939E-003	5.67399E-004	...........
	9	2.58333	4.09881E-003	3.88125E-003	5.68299E-004	...........
	10	2.84167	4.02086E-003	3.82872E-003	5.62899E-004	...........
	11	3.1	3.95221E-003	3.78975E-003	5.60899E-004	...........
	12	3.35833	3.89204E-003	3.75018E-003	5.63166E-004	...........
	13	3.61667	3.83989E-003	3.70833E-003	5.64332E-004	...........
	14	3.875	3.79485E-003	3.70880E-003	5.69599E-004	...........
	15	4.13333	3.75694E-003	3.67740E-003	5.66866E-004	...........
	16	4.39167	3.72616E-003	3.63644E-003	5.65899E-004	...........
	17	4.65	3.69913E-003	3.59686E-003	5.69899E-004	...........
	18	4.90833	3.67050E-003	3.56078E-003	5.57599E-004	...........
EOC	QUANT	0.0036705	Open Circuit (V)
PSTATMODEL	IQUANT	4	Pstat Model
PSTATSECTION	LABEL	REF600-11020	Pstat Section
PSTATSERIALNO	LABEL	11020	Pstat Serial Number
CTRLMODE	IQUANT	1	Control Mode
IESTAB	IQUANT	0	I/E Stability
CASPEED	IQUANT	1	Control Amp Speed
CONVENTION	IQUANT	1	Current Convention
ICHRANGE	IQUANT	2	Ich Range
ICHRANGEMODE	TOGGLE	F	Ich Auto Range
ICHOFFSETENABLE	TOGGLE	T	Ich Offset Enable
ICHOFFSET	QUANT	0	Ich Offset (V)
ICHFILTER	IQUANT	3	Ich Filter
VCHRANGE	IQUANT	2	Vch Range
VCHRANGEMODE	TOGGLE	F	Vch Auto Range
VCHOFFSETENABLE	TOGGLE	T	Vch Offset Enable
VCHOFFSET	QUANT	0	Vch Offset (V)
VCHFILTER	IQUANT	3	Vch Filter
ACHRANGE	IQUANT	2	Ach Range
ACHOFFSETENABLE	TOGGLE	F	Ach Offset Enable
ACHOFFSET	QUANT	0	Ach Offset (V)
ACHFILTER	IQUANT	3	Ach Filter
IERANGELOWERLIMIT	IQUANT	1	I/E Range Lower Limit
IERANGEMODE	TOGGLE	F	I/E AutoRange
IERANGE	IQUANT	4	I/E Range
POSFEEDENABLE	TOGGLE	F	Positive Feedback IR Comp
POSFEEDRESISTANCE	QUANT	0	Positive Feedback Resistance (ohm)
ACHSELECT	IQUANT	0	Ach Select
CABLEID	IQUANT	14	Cable ID
DCCALDATE	LABEL	8/19/2019	DC Calibration Date
ACCALDATE	LABEL	8/19/2019	AC Calibration Date
THERMOSELECT	IQUANT	1	Thermo Select
FRAMEWORKVERSION	QUANT	6.33	Framework Version
INSTRUMENTVERSION	LABEL	3.50	Instrument Version
ZCURVE	TABLE
	Pt	Time	Freq	Zreal	Zimag	Zsig	Zmod	Zphz	Idc	Vdc	IERange
	#	s	Hz	ohm	ohm	V	ohm	°	A	V	#
	0	1	1000078	2140.573	-1707.877	1	2738.411	-38.58496	-7.047403E-007	0.0058949	8
	1	3	794390.6	2468.231	-1709.277	1	3002.298	-34.70303	8.073683E-006	0.0042302	8
	2	4	630984.4	2799.781	-1681.67	1	3266.004	-30.99085	-2.587834E-006	0.0051626	8
	3	5	501234.4	3113.718	-1603.671	1	3502.427	-27.25002	2.479554E-006	0.0057008	8
	4	7	398109.4	3396.282	-1477.908	1	3703.91	-23.51649	-3.990938E-006	0.0059108	8
	5	8	316265.6	3626.911	-1353.447	1	3871.215	-20.46396	2.283839E-006	0.0048463	8
	6	10	251203.1	3818.132	-1222.326	1	4009.017	-17.75179	-4.424669E-007	0.0057304	8
	7	11	199546.9	3990.349	-1103.317	1	4140.072	-15.45593	-1.293907E-006	0.0056704	8
	8	12	158578.1	4111.744	-991.464	1	4229.59	-13.55692	-3.489361E-006	0.0058186	8
	9	14	125953.1	4238.873	-798.295	1	4313.388	-10.66543	-1.191768E-006	0.0040362	7
	10	15	100078.1	4335.082	-730.4655	1	4396.193	-9.56455	1.048339E-006	0.0045008	7
	11	16	79453.13	4398.333	-665.8198	1	4448.444	-8.60808	-1.12935E-006	0.0069138	7
	12	18	63140.62	4459.429	-618.5117	1	4502.118	-7.896404	-1.128759E-006	0.006914	7
	13	19	50203.12	4525.686	-586.6733	1	4563.553	-7.386172	1.123099E-006	0.0037217	7
	14	20	39890.62	4567.7	-563.5888	1	4602.338	-7.033928	-9.204294E-007	0.0069658	7
	15	22	31640.63	4615.937	-555.4485	1	4649.237	-6.861568	-1.254939E-006	0.0063622	7
	16	23	25171.88	4669.261	-562.6426	1	4703.038	-6.870973	7.674713E-008	0.0062236	7
	17	25	20015.62	4717.914	-584.5674	1	4753.991	-7.063166	4.969419E-007	0.0035158	7
	18	26	15890.62	4762.907	-618.7464	1	4802.929	-7.401808	1.152383E-007	0.0038287	7
	19	27	12609.37	4814.283	-668.7236	1	4860.505	-7.908018	8.040041E-007	0.0034001	7
	20	29	10078.13	4855.357	-741.936	1	4911.717	-8.68803	-2.953207E-007	0.0066297	7
	21	30	8015.625	4909.133	-828.6766	1	4978.583	-9.58138	6.369376E-007	0.005439	7
	22	31	6328.125	4962.578	-948.5387	1	5052.416	-10.8209	4.991766E-007	0.0035175	7
	23	33	5015.625	5013.068	-1099.934	1	5132.32	-12.37535	-1.126954E-006	0.0069045	7
	24	34	3984.375	5082.361	-1295.021	1	5244.757	-14.29516	4.983718E-007	0.0035111	7
	25	35	3170.956	5143.376	-1525.525	1	5364.844	-16.52036	-1.081822E-006	0.0057652	7
	26	37	2527.573	5229.726	-1819.169	1	5537.094	-19.18032	6.374423E-007	0.0054373	7
	27	38	1976.103	5326.079	-2213.676	1	5767.796	-22.56922	6.374048E-007	0.0054358	7
	28	40	1577.524	5429.132	-2659.936	1	6045.72	-26.10197	1.01518E-006	0.0034872	7
	29	41	1265.625	5546.184	-3192.035	1	6399.16	-29.92203	7.989539E-007	0.0034005	7
	30	42	998.264	5699.28	-3893.71	1	6902.375	-34.34063	4.062716E-007	0.0057688	7
	31	44	796.875	5868.872	-4715.644	1	7528.675	-38.78191	1.102669E-007	0.0038238	7
	32	45	627.7902	6098.808	-5789.012	1	8408.812	-43.50721	8.409573E-008	0.0062152	7
	33	47	505.5147	6352.465	-6974.672	1	9433.974	-47.67304	-1.086131E-006	0.0057668	7
	34	48	397.9953	6691.747	-8607.03	1	10902.31	-52.13585	2.700018E-009	0.0052572	7
	35	49	315.5048	7118.806	-10548.15	1	12725.6	-55.98511	1.323859E-009	0.0051922	6
	36	51	252.4038	7636.867	-12835.2	1	14935.33	-59.24762	1.588412E-009	0.0051896	6
	37	52	198.6229	8362.572	-15847.15	1	17918.28	-62.17931	1.268247E-009	0.0051894	6
	38	53	158.3615	9273.347	-19331.29	1	21440.47	-64.37266	3.724807E-010	0.0051929	6
	39	55	125.558	10500.44	-23676.56	1	25900.55	-66.08294	9.819858E-010	0.0051794	6
	40	56	100.4464	12121.87	-28717.16	1	31170.74	-67.11478	8.432658E-010	0.0051902	6
	41	57	79.00281	14347.69	-35351.65	1	38152.27	-67.90991	6.483363E-010	0.0051858	6
	42	59	63.3446	16814.73	-42287.11	1	45507.53	-68.31563	8.19245E-010	0.0051747	6
	43	60	49.86702	21713.07	-51426.52	1	55822.43	-67.10978	-2.570545E-011	0.005174	6
	44	62	39.72458	26699.03	-61630.27	1	67164.94	-66.57711	1.362361E-009	0.005176	6
	45	63	31.6723	33237.72	-73135.16	1	80333.67	-65.55964	1.738582E-009	0.0051799	6
	46	65	24.93351	42597.91	-86324.09	1	96262.3	-63.73528	6.389511E-010	0.0051843	6
	47	66	19.86229	53451.42	-100075.4	1	113455.5	-61.89281	9.27987E-010	0.0051872	5
	48	67	15.83615	65944.44	-115106.5	1	132658.1	-60.19164	1.265378E-009	0.0051931	5
	49	69	12.40079	82794.75	-131988.7	1	155807.5	-57.90049	-9.837704E-010	0.0051969	5
	50	70	9.93114	97636.7	-147044.9	1	176508.2	-56.41615	9.568103E-010	0.0051737	5
	51	72	7.944915	114795.5	-164993.3	1	200999.5	-55.1714	-1.103E-010	0.0051812	5
	52	73	6.317385	132883.6	-184609.7	1	227461.6	-54.25333	3.894447E-010	0.0051781	5
	53	75	5.008013	152370.8	-207993.1	1	257833.3	-53.77438	1.224626E-010	0.0051886	5
	54	78	3.945707	173425.7	-236477.4	1	293254.2	-53.74475	-1.039763E-010	0.0051846	5
	55	81	3.158693	194382.5	-268297.9	1	331313	-54.07657	3.007965E-010	0.0052015	5
	56	84	2.504006	218589.5	-308841.6	1	378370.8	-54.7102	-9.807975E-011	0.0051838	5
	57	87	1.998082	244490.5	-355848.1	1	431744.7	-55.50844	-1.008065E-010	0.0051929	5
	58	90	1.584686	276223.7	-413710.1	1	497449	-56.26998	1.442446E-010	0.0052456	5
	59	94	1.266892	309721.4	-480713.5	1	571850.4	-57.20651	-8.095744E-011	0.0052062	5
	60	98	0.999041	352385.5	-566258.7	1	666951.6	-58.1058	2.818933E-010	0.0051959	5
