EXPLAIN
TAG	EISPOT
TITLE	LABEL	Potentiostatic IDE	Test &Identifier
DATE	LABEL	9/6/2019	Date
TIME	LABEL	7:32:58	Time
NOTES	NOTES	1	&Notes...
	
PSTAT	PSTAT	REF600-11020	Potentiostat
VDC	POTEN	0.00000E+000	T	DC &Voltage (V)
FREQINIT	QUANT	1.00000E+006	Initial Fre&q. (Hz)
FREQFINAL	QUANT	1.00000E+000	Final Fre&q. (Hz)
PTSPERDEC	QUANT	1.00000E+001	Points/&decade
VAC	QUANT	2.50000E+001	AC &Voltage (mV rms)
AREA	QUANT	1.00000E-002	&Area (cm^2)
CONDIT	TWOPARAM	T	5.00000E+000	0.00000E+000	Conditionin&g	Time(s)	E(V)
DELAY	TWOPARAM	T	5.00000E+000	0.00000E+000	Init. De&lay	Time(s)	Stab.(mV/s)
SPEED	SELECTOR	1	&Optimize for:
ZGUESS	QUANT	1.00000E+007	E&stimated Z (ohms)
OCVCURVE	TABLE	19
	Pt	T	Vf	Vm	Ach	Over
	#	s	V vs. Ref.	V	V	bits
	0	0.258333	1.07572E-002	1.07572E-002	5.75632E-004	...........
	1	0.516667	1.07576E-002	1.07765E-002	5.74865E-004	...........
	2	0.775	1.07605E-002	1.08261E-002	5.67466E-004	...........
	3	1.03333	1.07709E-002	1.08909E-002	5.68832E-004	...........
	4	1.29167	1.07950E-002	1.09634E-002	5.69432E-004	...........
	5	1.55	1.08360E-002	1.10430E-002	5.64332E-004	...........
	6	1.80833	1.08930E-002	1.11298E-002	5.61866E-004	...........
	7	2.06667	1.09624E-002	1.12188E-002	5.66732E-004	...........
	8	2.325	1.10406E-002	1.13069E-002	5.71332E-004	...........
	9	2.58333	1.11244E-002	1.13972E-002	5.71366E-004	...........
	10	2.84167	1.12116E-002	1.14861E-002	5.73632E-004	...........
	11	3.1	1.13004E-002	1.15779E-002	5.71099E-004	...........
	12	3.35833	1.13900E-002	1.16675E-002	5.68799E-004	...........
	13	3.61667	1.14800E-002	1.17567E-002	5.67266E-004	...........
	14	3.875	1.15700E-002	1.18436E-002	5.71032E-004	...........
	15	4.13333	1.16597E-002	1.19324E-002	5.68532E-004	...........
	16	4.39167	1.17487E-002	1.20151E-002	5.71099E-004	...........
	17	4.65	1.18367E-002	1.21050E-002	5.69666E-004	...........
	18	4.90833	1.19238E-002	1.21856E-002	5.70566E-004	...........
EOC	QUANT	0.0119238	Open Circuit (V)
PSTATMODEL	IQUANT	4	Pstat Model
PSTATSECTION	LABEL	REF600-11020	Pstat Section
PSTATSERIALNO	LABEL	11020	Pstat Serial Number
CTRLMODE	IQUANT	1	Control Mode
IESTAB	IQUANT	0	I/E Stability
CASPEED	IQUANT	1	Control Amp Speed
CONVENTION	IQUANT	1	Current Convention
ICHRANGE	IQUANT	2	Ich Range
ICHRANGEMODE	TOGGLE	F	Ich Auto Range
ICHOFFSETENABLE	TOGGLE	T	Ich Offset Enable
ICHOFFSET	QUANT	0	Ich Offset (V)
ICHFILTER	IQUANT	3	Ich Filter
VCHRANGE	IQUANT	2	Vch Range
VCHRANGEMODE	TOGGLE	F	Vch Auto Range
VCHOFFSETENABLE	TOGGLE	T	Vch Offset Enable
VCHOFFSET	QUANT	0	Vch Offset (V)
VCHFILTER	IQUANT	3	Vch Filter
ACHRANGE	IQUANT	2	Ach Range
ACHOFFSETENABLE	TOGGLE	F	Ach Offset Enable
ACHOFFSET	QUANT	0	Ach Offset (V)
ACHFILTER	IQUANT	3	Ach Filter
IERANGELOWERLIMIT	IQUANT	1	I/E Range Lower Limit
IERANGEMODE	TOGGLE	F	I/E AutoRange
IERANGE	IQUANT	3	I/E Range
POSFEEDENABLE	TOGGLE	F	Positive Feedback IR Comp
POSFEEDRESISTANCE	QUANT	0	Positive Feedback Resistance (ohm)
ACHSELECT	IQUANT	0	Ach Select
CABLEID	IQUANT	14	Cable ID
DCCALDATE	LABEL	8/19/2019	DC Calibration Date
ACCALDATE	LABEL	8/19/2019	AC Calibration Date
THERMOSELECT	IQUANT	1	Thermo Select
FRAMEWORKVERSION	QUANT	6.33	Framework Version
INSTRUMENTVERSION	LABEL	3.50	Instrument Version
ZCURVE	TABLE
	Pt	Time	Freq	Zreal	Zimag	Zsig	Zmod	Zphz	Idc	Vdc	IERange
	#	s	Hz	ohm	ohm	V	ohm	°	A	V	#
	0	1	1000078	2510.221	-1758.77	1	3065.042	-35.01675	-1.331185E-007	0.0146004	8
	1	3	794390.6	2860.12	-1647.006	1	3300.442	-29.93557	-3.791782E-007	0.0141323	8
	2	4	630984.4	3156.527	-1490.564	1	3490.765	-25.27744	1.303885E-006	0.0136511	8
	3	5	501234.4	3384.497	-1322.431	1	3633.682	-21.34218	-2.910978E-006	0.0143986	8
	4	7	398109.4	3568.42	-1157.218	1	3751.369	-17.96758	-2.535663E-007	0.0138516	8
	5	8	316265.6	3694.558	-993.665	1	3825.85	-15.05368	1.275821E-006	0.0134474	8
	6	9	251203.1	3789.182	-861.9764	1	3885.989	-12.81575	-1.144779E-006	0.0137945	8
	7	11	199546.9	3880.045	-747.3078	1	3951.356	-10.90184	2.238369E-006	0.0132565	8
	8	12	158578.1	3943.711	-661.1989	1	3998.755	-9.51764	-1.898989E-006	0.0140692	8
	9	13	125953.1	4003.603	-569.8043	1	4043.948	-8.100101	5.715695E-007	0.0124974	7
	10	15	100078.1	4040.701	-533.6989	1	4075.794	-7.524119	-1.644054E-008	0.0136363	7
	11	16	79453.13	4083.451	-511.0936	1	4115.312	-7.134165	-8.658219E-009	0.0136515	7
	12	17	63140.62	4123.542	-503.6609	1	4154.187	-6.963773	-6.734494E-009	0.0136456	7
	13	18	50203.12	4166.458	-509.6467	1	4197.513	-6.973852	3.760746E-008	0.0136205	7
	14	20	39890.62	4209.48	-529.5771	1	4242.661	-7.170473	3.634166E-008	0.0136194	7
	15	21	31640.63	4257.659	-559.3427	1	4294.243	-7.484275	-3.037525E-008	0.0136838	7
	16	22	25171.88	4308.604	-603.1151	1	4350.611	-7.968443	-3.671049E-008	0.0136818	7
	17	24	20015.62	4363.104	-659.2155	1	4412.623	-8.591758	-2.351102E-009	0.0136463	7
	18	25	15890.62	4423.555	-731.2035	1	4483.581	-9.385989	1.072789E-009	0.0135886	7
	19	26	12609.37	4490.043	-821.366	1	4564.552	-10.36653	-2.390407E-008	0.0136404	7
	20	28	10078.13	4559.521	-926.7871	1	4652.759	-11.48965	3.757777E-008	0.0136172	7
	21	29	8015.625	4636.78	-1057.471	1	4755.835	-12.84723	4.682904E-008	0.0135433	7
	22	30	6328.125	4727.106	-1221.948	1	4882.488	-14.49358	-5.009301E-009	0.0136494	7
	23	32	5015.625	4822.156	-1415.297	1	5025.56	-16.3569	1.955186E-008	0.0136069	7
	24	34	3984.375	4929.162	-1651.983	1	5198.624	-18.52831	3.951398E-008	0.0136201	7
	25	35	3170.956	5044.585	-1934.654	1	5402.844	-20.98237	1.659364E-008	0.0135979	7
	26	37	2527.573	5174.462	-2276.185	1	5652.97	-23.74413	-2.192879E-008	0.01369	7
	27	39	1976.103	5337.057	-2727.281	1	5993.516	-27.06741	1.559978E-008	0.0135818	7
	28	40	1577.524	5505.684	-3232.606	1	6384.536	-30.41889	-7.484815E-009	0.013654	7
	29	41	1265.625	5697.793	-3830.715	1	6865.801	-33.91356	-5.402179E-009	0.0136531	7
	30	43	998.264	5937.973	-4610.964	1	7518.013	-37.83011	4.258677E-008	0.0135307	7
	31	44	796.875	6208.928	-5508.23	1	8300.083	-41.57773	-1.437371E-008	0.013613	7
	32	46	627.7902	6542.685	-6673.477	1	9345.694	-45.567	-1.093654E-009	0.0136364	7
	33	47	505.5147	6912.767	-7944.531	1	10531	-48.97252	1.08772E-009	0.0135879	6
	34	49	397.9953	7373.554	-9648.13	1	12143.13	-52.61124	7.149368E-010	0.0135723	6
	35	51	315.5048	7916.695	-11675.39	1	14106.34	-55.86011	5.903571E-010	0.013577	6
	36	52	252.4038	8541.338	-14040.65	1	16434.54	-58.68662	8.430028E-010	0.0135722	6
	37	53	198.6229	9349.45	-17135.6	1	19520.27	-61.38243	7.291154E-010	0.0135693	6
	38	55	158.3615	10278.27	-20704.32	1	23115.18	-63.59876	8.017685E-010	0.0135732	6
	39	56	125.558	11443.77	-25151.17	1	27632.25	-65.53448	8.145916E-010	0.0135734	6
	40	58	100.4464	12811.2	-30326.79	1	32921.74	-67.09893	8.69831E-010	0.0135697	6
	41	59	79.00281	14623.33	-37133.93	1	39909.53	-68.50549	5.563994E-010	0.0135679	6
	42	61	63.3446	16547.89	-44592.43	1	47563.82	-69.64051	6.064038E-010	0.0135662	6
	43	63	49.86702	19307.53	-54596.47	1	57909.89	-70.52434	3.376196E-010	0.0135673	6
	44	64	39.72458	22658.57	-66013.36	1	69793.8	-71.05562	5.937102E-010	0.0135675	6
	45	66	31.6723	26701.03	-79809.83	1	84157.91	-71.50191	7.549748E-010	0.0135651	6
	46	67	24.93351	31834.12	-97327.5	1	102401.4	-71.88798	6.031651E-010	0.0135629	6
	47	69	19.86229	38039.22	-117528.8	1	123531.4	-72.06538	6.096914E-010	0.0135729	5
	48	70	15.83615	45801.44	-141971.6	1	149176.8	-72.11979	4.537047E-010	0.013563	5
	49	71	12.40079	56621.04	-173606.8	1	182606.8	-71.93651	4.715179E-010	0.0135683	5
	50	73	9.93114	68672.4	-208069.8	1	219109.5	-71.73479	3.152624E-010	0.0135743	5
	51	74	7.944915	84058.52	-249218.4	1	263012.6	-71.36134	6.309465E-010	0.0135712	5
	52	76	6.317385	104988	-299761.8	1	317615.5	-70.69779	3.761321E-010	0.0135932	5
	53	78	5.008013	131183.7	-360956.8	1	384055.9	-70.02718	1.454509E-010	0.0135746	5
	54	80	3.945707	165809.3	-434066.7	1	464657.6	-69.09362	-6.008398E-011	0.0135675	5
	55	83	3.158693	207978.4	-513388.7	1	553916	-67.94669	1.306485E-010	0.0135702	5
	56	86	2.504006	262564	-608226.9	1	662480	-66.65074	1.822056E-012	0.013582	5
	57	89	1.998082	327197.4	-710715.4	1	782415.9	-65.27972	2.889513E-010	0.0135665	5
	58	92	1.584686	411989	-832731.4	1	929072.9	-63.67636	1.210961E-011	0.0135189	5
	59	96	1.266892	507535.6	-959038	1	1085056	-62.11162	1.816649E-010	0.0135567	4
	60	100	0.999041	628940.9	-1111566	1	1277163	-60.49815	-1.747543E-010	0.0135577	4
