EXPLAIN
TAG	EISPOT
TITLE	LABEL	Potentiostatic IDE	Test &Identifier
DATE	LABEL	9/16/2019	Date
TIME	LABEL	9:25:27	Time
NOTES	NOTES	1	&Notes...
	
PSTAT	PSTAT	REF600-11020	Potentiostat
VDC	POTEN	0.00000E+000	T	DC &Voltage (V)
FREQINIT	QUANT	1.00000E+006	Initial Fre&q. (Hz)
FREQFINAL	QUANT	1.00000E+000	Final Fre&q. (Hz)
PTSPERDEC	QUANT	1.00000E+001	Points/&decade
VAC	QUANT	2.50000E+001	AC &Voltage (mV rms)
AREA	QUANT	1.00000E-002	&Area (cm^2)
CONDIT	TWOPARAM	T	5.00000E+000	0.00000E+000	Conditionin&g	Time(s)	E(V)
DELAY	TWOPARAM	T	5.00000E+000	0.00000E+000	Init. De&lay	Time(s)	Stab.(mV/s)
SPEED	SELECTOR	1	&Optimize for:
ZGUESS	QUANT	1.00000E+007	E&stimated Z (ohms)
OCVCURVE	TABLE	19
	Pt	T	Vf	Vm	Ach	Over
	#	s	V vs. Ref.	V	V	bits
	0	0.258333	1.44559E-003	1.44559E-003	5.64466E-004	...........
	1	0.516667	1.43704E-003	9.98370E-004	5.68799E-004	...........
	2	0.775	1.38534E-003	6.13927E-004	5.68232E-004	...........
	3	1.03333	1.24196E-003	2.65649E-004	5.63132E-004	...........
	4	1.29167	9.91797E-004	-7.99052E-005	5.66766E-004	...........
	5	1.55	6.68086E-004	-3.86610E-004	5.70666E-004	...........
	6	1.80833	3.18383E-004	-6.93658E-004	5.68132E-004	...........
	7	2.06667	-2.52009E-005	-9.66603E-004	5.71532E-004	...........
	8	2.325	-3.49458E-004	-1.23161E-003	5.68599E-004	...........
	9	2.58333	-6.52427E-004	-1.49679E-003	5.66566E-004	...........
	10	2.84167	-9.37087E-004	-1.74130E-003	5.68399E-004	...........
	11	3.1	-1.20746E-003	-1.97271E-003	5.65932E-004	...........
	12	3.35833	-1.46575E-003	-2.19563E-003	5.66432E-004	...........
	13	3.61667	-1.71220E-003	-2.40594E-003	5.68766E-004	...........
	14	3.875	-1.94468E-003	-2.49520E-003	5.67932E-004	...........
	15	4.13333	-2.15629E-003	-2.66308E-003	5.65332E-004	...........
	16	4.39167	-2.34981E-003	-3.27471E-003	5.67532E-004	...........
	17	4.65	-2.54977E-003	-3.00533E-003	5.69699E-004	...........
	18	4.90833	-2.76640E-003	-3.43315E-003	5.69132E-004	...........
EOC	QUANT	-0.0027664	Open Circuit (V)
PSTATMODEL	IQUANT	4	Pstat Model
PSTATSECTION	LABEL	REF600-11020	Pstat Section
PSTATSERIALNO	LABEL	11020	Pstat Serial Number
CTRLMODE	IQUANT	1	Control Mode
IESTAB	IQUANT	0	I/E Stability
CASPEED	IQUANT	1	Control Amp Speed
CONVENTION	IQUANT	1	Current Convention
ICHRANGE	IQUANT	2	Ich Range
ICHRANGEMODE	TOGGLE	F	Ich Auto Range
ICHOFFSETENABLE	TOGGLE	T	Ich Offset Enable
ICHOFFSET	QUANT	0	Ich Offset (V)
ICHFILTER	IQUANT	3	Ich Filter
VCHRANGE	IQUANT	2	Vch Range
VCHRANGEMODE	TOGGLE	F	Vch Auto Range
VCHOFFSETENABLE	TOGGLE	T	Vch Offset Enable
VCHOFFSET	QUANT	0	Vch Offset (V)
VCHFILTER	IQUANT	3	Vch Filter
ACHRANGE	IQUANT	2	Ach Range
ACHOFFSETENABLE	TOGGLE	F	Ach Offset Enable
ACHOFFSET	QUANT	0	Ach Offset (V)
ACHFILTER	IQUANT	3	Ach Filter
IERANGELOWERLIMIT	IQUANT	1	I/E Range Lower Limit
IERANGEMODE	TOGGLE	F	I/E AutoRange
IERANGE	IQUANT	2	I/E Range
POSFEEDENABLE	TOGGLE	F	Positive Feedback IR Comp
POSFEEDRESISTANCE	QUANT	0	Positive Feedback Resistance (ohm)
ACHSELECT	IQUANT	0	Ach Select
CABLEID	IQUANT	14	Cable ID
DCCALDATE	LABEL	8/19/2019	DC Calibration Date
ACCALDATE	LABEL	8/19/2019	AC Calibration Date
THERMOSELECT	IQUANT	1	Thermo Select
FRAMEWORKVERSION	QUANT	6.33	Framework Version
INSTRUMENTVERSION	LABEL	3.50	Instrument Version
ZCURVE	TABLE
	Pt	Time	Freq	Zreal	Zimag	Zsig	Zmod	Zphz	Idc	Vdc	IERange
	#	s	Hz	ohm	ohm	V	ohm	°	A	V	#
	0	2	1000078	2502.955	-2019.701	1	3216.205	-38.90099	3.086272E-006	-0.0005998	8
	1	4	794390.6	2923.853	-1985.881	1	3534.493	-34.18435	-1.217428E-006	-0.0009166	8
	2	5	630984.4	3330.529	-1892.751	1	3830.788	-29.60972	7.043714E-006	-0.0021896	8
	3	6	501234.4	3691.085	-1725.228	1	4074.374	-25.05158	-7.643472E-007	-0.0008038	8
	4	8	398109.4	3949.218	-1522.613	1	4232.573	-21.08404	6.101483E-006	-0.0022219	8
	5	10	316265.6	4156.305	-1369.107	1	4375.994	-18.23213	-3.26186E-006	-0.0007325	8
	6	11	251203.1	4341.077	-1138.962	1	4488.004	-14.70126	3.296855E-006	-0.0017581	8
	7	13	199546.9	4422.083	-1000.889	1	4533.938	-12.75338	-3.925876E-006	-0.0003078	8
	8	14	158578.1	4528.679	-863.0844	1	4610.189	-10.79014	4.341812E-006	-0.0019635	8
	9	15	125953.1	4640.067	-700.5488	1	4692.653	-8.585569	1.622084E-007	-0.0015984	7
	10	17	100078.1	4687.817	-606.0182	1	4726.826	-7.366067	9.690616E-008	-0.0013807	7
	11	18	79453.13	4734.057	-549.968	1	4765.896	-6.626498	-8.312775E-008	-0.0010609	7
	12	19	63140.62	4776.044	-508.3259	1	4803.02	-6.075256	-8.305742E-008	-0.0010621	7
	13	21	50203.12	4814.655	-479.0782	1	4838.432	-5.682463	-3.869043E-008	-0.0011472	7
	14	22	39890.62	4850.597	-464.4135	1	4872.779	-5.469033	-8.327463E-008	-0.0010663	7
	15	24	31640.63	4887.971	-460.2865	1	4909.595	-5.37952	-2.147247E-008	-0.00121	7
	16	25	25171.88	4922.896	-470.708	1	4945.348	-5.461794	4.368796E-008	-0.0012304	7
	17	26	20015.62	4957.371	-492.7321	1	4981.798	-5.676204	1.519199E-007	-0.0014161	7
	18	28	15890.62	4994.294	-530.3922	1	5022.379	-6.062068	4.846987E-008	-0.0013386	7
	19	29	12609.37	5032.112	-583.1935	1	5065.794	-6.610766	-1.279628E-008	-0.0011313	7
	20	30	10078.13	5072.103	-650.6283	1	5113.662	-7.309746	-5.311271E-008	-0.0010263	7
	21	32	8015.625	5115.167	-739.4962	1	5168.344	-8.226218	-5.529581E-008	-0.001082	7
	22	33	6328.125	5163.241	-857.8856	1	5234.025	-9.433659	-6.315718E-009	-0.0011635	7
	23	34	5015.625	5216.04	-1003.775	1	5311.745	-10.89284	4.546478E-008	-0.0012381	7
	24	35	3984.375	5272.577	-1180.727	1	5403.164	-12.62242	-1.363704E-008	-0.0011359	7
	25	37	3170.956	5340.7	-1402.545	1	5521.793	-14.71444	-1.146328E-008	-0.0011358	7
	26	38	2527.573	5421.551	-1671.369	1	5673.332	-17.13361	2.566521E-008	-0.0012899	7
	27	40	1976.103	5520.391	-2032.066	1	5882.517	-20.20876	8.087116E-008	-0.0013433	7
	28	41	1577.524	5627.6	-2432.392	1	6130.776	-23.37523	-1.837986E-008	-0.0012214	7
	29	42	1265.625	5772.169	-2906.43	1	6462.606	-26.72639	-3.677457E-008	-0.0011572	7
	30	44	998.264	5905.814	-3527.082	1	6878.876	-30.84657	2.341367E-008	-0.0013066	7
	31	45	796.875	6077.745	-4251.98	1	7417.434	-34.97657	-5.208166E-008	-0.0010814	7
	32	46	627.7902	6294.105	-5177.824	1	8150.191	-39.4423	-3.930181E-008	-0.0011881	7
	33	48	505.5147	6509.369	-6215.103	1	8999.966	-43.67522	9.460569E-008	-0.0012362	7
	34	49	397.9953	6792.937	-7606.708	1	10198.33	-48.23453	7.258569E-010	-0.0012403	6
	35	50	315.5048	7107.042	-9285.369	1	11693.08	-52.56948	9.300359E-010	-0.0012419	6
	36	52	252.4038	7459.578	-11276.61	1	13520.62	-56.515	7.814774E-010	-0.0012455	6
	37	53	198.6229	7910.689	-13921.81	1	16012.37	-60.39378	1.410857E-009	-0.0012453	6
	38	54	158.3615	8442.045	-17025.28	1	19003.37	-63.62532	9.100576E-010	-0.0012455	6
	39	56	125.558	9113.604	-20956.88	1	22852.76	-66.49702	1.131846E-009	-0.0012476	6
	40	57	100.4464	9912.32	-25604.83	1	27456.54	-68.83723	2.260004E-010	-0.0012468	6
	41	58	79.00281	11056.47	-31873.45	1	33736.66	-70.86903	4.006525E-010	-0.0012472	6
	42	60	63.3446	12933.09	-38822.7	1	40920.25	-71.57542	1.165851E-009	-0.0012464	6
	43	61	49.86702	14117.82	-48316.64	1	50336.96	-73.71198	1.828826E-009	-0.0012489	6
	44	62	39.72458	17053.71	-59054.93	1	61467.99	-73.89249	1.139288E-009	-0.0012432	6
	45	64	31.6723	20271.77	-72262.27	1	75051.85	-74.32957	1.005352E-009	-0.0012434	6
	46	65	24.93351	25097.79	-89083.18	1	92551.13	-74.26565	1.242778E-009	-0.0012446	6
	47	67	19.86229	31195.77	-108329.9	1	112732.2	-73.93519	1.052093E-009	-0.0012391	5
	48	68	15.83615	40045.13	-130272.7	1	136288.6	-72.91285	-3.849176E-010	-0.0012419	5
	49	69	12.40079	50421.6	-160774.3	1	168495.4	-72.58767	1.105031E-009	-0.0012359	5
	50	71	9.93114	65840.98	-193374.2	1	204275.9	-71.19707	1.876155E-010	-0.0012419	5
	51	72	7.944915	84936.05	-231500.8	1	246590.3	-69.85226	5.84122E-010	-0.0012486	5
	52	74	6.317385	109431.7	-273361.9	1	294452.1	-68.18288	2.784703E-010	-0.0012281	5
	53	76	5.008013	141424.5	-323649.4	1	353199.4	-66.3962	6.65077E-010	-0.0012369	5
	54	78	3.945707	184356.7	-379557.3	1	421961	-64.09345	2.797154E-010	-0.0012441	5
	55	81	3.158693	230836.5	-436347.7	1	493644.4	-62.12029	5.25519E-010	-0.0012225	5
	56	84	2.504006	289740.9	-500894.8	1	578658.3	-59.95291	4.525213E-011	-0.0012404	5
	57	87	1.998082	354976.2	-564796.4	1	667085.5	-57.85052	2.181971E-010	-0.0012764	5
	58	90	1.584686	428970.5	-633383.4	1	764977.3	-55.89146	1.614613E-010	-0.0012327	5
	59	94	1.266892	508827	-704320.8	1	868891.6	-54.15428	2.92762E-010	-0.0012874	5
	60	98	0.999041	598621.3	-785641.7	1	987715	-52.69434	2.977259E-010	-0.0012021	5
