EXPLAIN
TAG	EISPOT
TITLE	LABEL	Potentiostatic EIS	Test &Identifier
DATE	LABEL	10/26/2019	Date
TIME	LABEL	10:14:23	Time
NOTES	NOTES	1	&Notes...
	
PSTAT	PSTAT	REF600-11020	Potentiostat
VDC	POTEN	0.00000E+000	T	DC &Voltage (V)
FREQINIT	QUANT	1.00000E+006	Initial Fre&q. (Hz)
FREQFINAL	QUANT	1.00000E+000	Final Fre&q. (Hz)
PTSPERDEC	QUANT	1.00000E+001	Points/&decade
VAC	QUANT	2.50000E+001	AC &Voltage (mV rms)
AREA	QUANT	1.00000E-002	&Area (cm^2)
CONDIT	TWOPARAM	T	5.00000E+000	0.00000E+000	Conditionin&g	Time(s)	E(V)
DELAY	TWOPARAM	T	5.00000E+000	0.00000E+000	Init. De&lay	Time(s)	Stab.(mV/s)
SPEED	SELECTOR	0	&Optimize for:
ZGUESS	QUANT	1.00000E+005	E&stimated Z (ohms)
OCVCURVE	TABLE	19
	Pt	T	Vf	Vm	Ach	Over
	#	s	V vs. Ref.	V	V	bits
	0	0.258333	6.09195E-003	6.09195E-003	5.38933E-004	...........
	1	0.516667	6.09233E-003	6.11183E-003	5.43566E-004	...........
	2	0.775	6.09493E-003	6.14459E-003	5.44233E-004	...........
	3	1.03333	6.10333E-003	6.18480E-003	5.45699E-004	...........
	4	1.29167	6.12087E-003	6.22723E-003	5.44966E-004	...........
	5	1.55	6.14841E-003	6.27508E-003	5.45166E-004	...........
	6	1.80833	6.18443E-003	6.32781E-003	5.40199E-004	...........
	7	2.06667	6.22693E-003	6.38429E-003	5.42299E-004	...........
	8	2.325	6.27447E-003	6.44050E-003	5.42499E-004	...........
	9	2.58333	6.32600E-003	6.49896E-003	5.50099E-004	...........
	10	2.84167	6.38042E-003	6.55450E-003	5.47699E-004	...........
	11	3.1	6.43657E-003	6.61294E-003	5.50033E-004	...........
	12	3.35833	6.49347E-003	6.66672E-003	5.54166E-004	...........
	13	3.61667	6.55034E-003	6.72099E-003	5.53666E-004	...........
	14	3.875	6.60652E-003	6.77043E-003	5.48933E-004	...........
	15	4.13333	6.66144E-003	6.82304E-003	5.46633E-004	...........
	16	4.39167	6.71509E-003	6.88496E-003	5.47799E-004	...........
	17	4.65	6.76857E-003	6.94244E-003	5.49833E-004	...........
	18	4.90833	6.82329E-003	6.99765E-003	5.50266E-004	...........
EOC	QUANT	0.0068233	Open Circuit (V)
PSTATMODEL	IQUANT	4	Pstat Model
PSTATSECTION	LABEL	REF600-11020	Pstat Section
PSTATSERIALNO	LABEL	11020	Pstat Serial Number
CTRLMODE	IQUANT	1	Control Mode
IESTAB	IQUANT	0	I/E Stability
CASPEED	IQUANT	1	Control Amp Speed
CONVENTION	IQUANT	1	Current Convention
ICHRANGE	IQUANT	2	Ich Range
ICHRANGEMODE	TOGGLE	F	Ich Auto Range
ICHOFFSETENABLE	TOGGLE	T	Ich Offset Enable
ICHOFFSET	QUANT	0	Ich Offset (V)
ICHFILTER	IQUANT	3	Ich Filter
VCHRANGE	IQUANT	2	Vch Range
VCHRANGEMODE	TOGGLE	F	Vch Auto Range
VCHOFFSETENABLE	TOGGLE	T	Vch Offset Enable
VCHOFFSET	QUANT	0	Vch Offset (V)
VCHFILTER	IQUANT	3	Vch Filter
ACHRANGE	IQUANT	2	Ach Range
ACHOFFSETENABLE	TOGGLE	F	Ach Offset Enable
ACHOFFSET	QUANT	0	Ach Offset (V)
ACHFILTER	IQUANT	3	Ach Filter
IERANGELOWERLIMIT	IQUANT	1	I/E Range Lower Limit
IERANGEMODE	TOGGLE	F	I/E AutoRange
IERANGE	IQUANT	5	I/E Range
POSFEEDENABLE	TOGGLE	F	Positive Feedback IR Comp
POSFEEDRESISTANCE	QUANT	0	Positive Feedback Resistance (ohm)
ACHSELECT	IQUANT	0	Ach Select
CABLEID	IQUANT	14	Cable ID
DCCALDATE	LABEL	8/19/2019	DC Calibration Date
ACCALDATE	LABEL	8/19/2019	AC Calibration Date
THERMOSELECT	IQUANT	1	Thermo Select
FRAMEWORKVERSION	QUANT	6.33	Framework Version
INSTRUMENTVERSION	LABEL	3.50	Instrument Version
ZCURVE	TABLE
	Pt	Time	Freq	Zreal	Zimag	Zsig	Zmod	Zphz	Idc	Vdc	IERange
	#	s	Hz	ohm	ohm	V	ohm	°	A	V	#
	0	2	1000078	2169.114	-1456.691	1	2612.854	-33.88375	4.434482E-007	0.0087698	8
	1	2	794390.6	2410.899	-1455.307	1	2816.089	-31.11672	-5.500867E-007	0.0086693	8
	2	2	630984.4	2666.527	-1425.053	1	3023.432	-28.12107	1.091477E-006	0.0084367	8
	3	3	501234.4	2906.671	-1391.912	1	3222.756	-25.58828	-6.727026E-007	0.0083373	8
	4	3	398109.4	3151.933	-1337.061	1	3423.801	-22.98682	-8.648548E-007	0.008715	8
	5	3	316265.6	3374.066	-1249.887	1	3598.13	-20.32662	2.936838E-006	0.007899	8
	6	4	251203.1	3575.949	-1154.65	1	3757.742	-17.89493	-5.75195E-007	0.0082587	8
	7	4	199546.9	3761.916	-1049.03	1	3905.442	-15.58141	1.100555E-006	0.0082188	8
	8	4	158578.1	3897.642	-918.0242	1	4004.295	-13.2535	-2.992492E-007	0.0083436	8
	9	4	125953.1	4044.012	-776.3062	1	4117.849	-10.86656	3.470889E-007	0.0076151	7
	10	5	100078.1	4126.212	-674.1481	1	4180.921	-9.279104	-2.635438E-008	0.0083134	7
	11	5	79453.13	4196.516	-596.6251	1	4238.715	-8.091601	-6.168888E-008	0.0084879	7
	12	5	63140.62	4251.189	-530.7925	1	4284.197	-7.116972	-6.178735E-008	0.0084863	7
	13	6	50203.12	4295.572	-480.1303	1	4322.322	-6.377667	-1.308385E-008	0.0082743	7
	14	6	39890.62	4333.622	-442.4816	1	4356.153	-5.829945	-3.89217E-008	0.0083887	7
	15	6	31640.63	4366.889	-417.6314	1	4386.813	-5.46292	3.230986E-008	0.0082641	7
	16	7	25171.88	4395.802	-405.5258	1	4414.468	-5.270788	-1.359952E-008	0.0082702	7
	17	7	20015.62	4424.034	-412.9553	1	4443.266	-5.332743	1.007555E-008	0.0083739	7
	18	7	15890.62	4453.635	-418.7455	1	4473.278	-5.371347	-6.385012E-008	0.008381	7
	19	8	12609.37	4481.138	-444.0431	1	4503.084	-5.659057	-5.874789E-008	0.008482	7
	20	8	10078.13	4508.76	-485.3349	1	4534.806	-6.143814	7.896931E-008	0.0082248	7
	21	8	8015.625	4539.891	-547.1918	1	4572.748	-6.872692	7.870681E-008	0.008228	7
	22	9	6328.125	4570.796	-619.772	1	4612.624	-7.721863	-3.549714E-009	0.0082965	7
	23	9	5015.625	4605.5	-720.2458	1	4661.479	-8.888388	-1.247281E-008	0.0082687	7
	24	9	3984.375	4651.658	-835.7207	1	4726.135	-10.18515	3.456797E-008	0.0081863	7
	25	10	3170.956	4689.479	-997.607	1	4794.417	-12.00967	-1.456217E-008	0.0083261	7
	26	10	2527.573	4737.93	-1189.476	1	4884.96	-14.09307	-3.307562E-008	0.0083013	7
	27	10	1976.103	4799.438	-1444.851	1	5012.205	-16.75421	3.297402E-008	0.0082594	7
	28	11	1577.524	4861.794	-1730.306	1	5160.523	-19.59058	-3.344754E-008	0.008299	7
	29	11	1265.625	4940.174	-2086.176	1	5362.598	-22.89375	-4.9546E-009	0.0083285	7
	30	11	998.264	5033.667	-2544.657	1	5640.309	-26.81785	3.645731E-008	0.0081771	7
	31	11	796.875	5136.746	-3084.739	1	5991.809	-30.98582	-5.42965E-009	0.0082666	7
	32	12	627.7902	5265.231	-3792.517	1	6488.901	-35.765	8.492376E-009	0.0082347	7
	33	12	505.5147	5404.994	-4581.735	1	7085.637	-40.28746	-6.323395E-008	0.0083758	7
	34	12	397.9953	5597.262	-5662.636	1	7962.084	-45.33265	2.116304E-009	0.0083185	7
	35	13	315.5048	5826.389	-6959.967	1	9076.781	-50.06633	2.213523E-009	0.0083163	7
	36	13	252.4038	6103.779	-8494.991	1	10460.45	-54.30219	1.079897E-009	0.0082546	6
	37	13	198.6229	6482.015	-10527.92	1	12363.4	-58.37949	5.72432E-010	0.008255	6
	38	14	158.3615	6943.957	-12901.42	1	14651.46	-61.70944	8.129611E-010	0.0082523	6
	39	14	125.558	7552.151	-15879.16	1	17583.59	-64.56417	6.764175E-010	0.0082533	6
	40	14	100.4464	8339.431	-19379.8	1	21097.93	-66.71703	-9.25678E-010	0.0082526	6
	41	15	79.00281	9422.549	-24045.41	1	25825.69	-68.60153	-5.536226E-010	0.0082508	6
	42	15	63.3446	10626.92	-28878.27	1	30771.51	-69.79688	4.876373E-010	0.0082487	6
	43	15	49.86702	12586.48	-35693.81	1	37847.96	-70.57614	6.18125E-010	0.0082494	6
	44	16	39.72458	14993.98	-43755.21	1	46252.97	-71.0845	9.638742E-010	0.0082527	6
	45	16	31.6723	18212.83	-53265.11	1	56292.8	-71.12301	1.247335E-009	0.0082496	6
	46	16	24.93351	22732.69	-64839.18	1	68708.77	-70.67928	2.669877E-010	0.0082487	6
	47	17	19.86229	28281.97	-77941.1	1	82913.72	-70.05602	1.200211E-009	0.0082558	6
	48	17	15.83615	35063.49	-93837.44	1	100174.4	-69.51119	1.084681E-010	0.0082466	6
	49	17	12.40079	47064.37	-112611.3	1	122050.6	-67.31817	1.82665E-009	0.0082492	5
	50	18	9.93114	57906.16	-132224	1	144347.9	-66.34948	-1.15356E-009	0.0082543	5
	51	18	7.944915	72891.84	-154096.2	1	170466.6	-64.68453	-5.307852E-010	0.008249	5
	52	19	6.317385	91487.2	-179455.2	1	201430.1	-62.98728	-2.720699E-010	0.0082598	5
	53	20	5.008013	114296.1	-207003.2	1	236461.2	-61.09487	-3.927368E-010	0.0082466	5
	54	21	3.945707	141107.6	-237837.4	1	276546.5	-59.31958	1.866109E-010	0.0082577	5
	55	22	3.158693	169912.6	-268207.6	1	317499	-57.64528	-2.712935E-010	0.0082665	5
	56	24	2.504006	202164.3	-303442.4	1	364619.9	-56.32702	-3.690474E-010	0.0082553	5
	57	25	1.998082	236266.9	-339861.3	1	413917.6	-55.19351	1.491338E-011	0.0082904	5
	58	27	1.584686	272917.3	-384127.8	1	471209.1	-54.60676	1.321186E-011	0.0082865	5
	59	29	1.266892	310182.6	-432088.5	1	531896.4	-54.32663	-7.252167E-011	0.0082494	5
	60	31	0.999041	353437.8	-492413.7	1	606126.7	-54.33051	-1.142168E-010	0.0082195	5
