EXPLAIN
TAG	EISPOT
TITLE	LABEL	Potentiostatic EIS	Test &Identifier
DATE	LABEL	8/14/2018	Date
TIME	LABEL	5:28:32	Time
NOTES	NOTES	1	&Notes...
	
PSTAT	PSTAT	REF600-11020	Potentiostat
VDC	POTEN	0.00000E+000	T	DC &Voltage (V)
FREQINIT	QUANT	1.00000E+006	Initial Fre&q. (Hz)
FREQFINAL	QUANT	1.00000E+000	Final Fre&q. (Hz)
PTSPERDEC	QUANT	1.00000E+001	Points/&decade
VAC	QUANT	2.50000E+001	AC &Voltage (mV rms)
AREA	QUANT	1.00000E-002	&Area (cm^2)
CONDIT	TWOPARAM	T	5.00000E+000	0.00000E+000	Conditionin&g	Time(s)	E(V)
DELAY	TWOPARAM	T	5.00000E+000	0.00000E+000	Init. De&lay	Time(s)	Stab.(mV/s)
SPEED	SELECTOR	0	&Optimize for:
ZGUESS	QUANT	1.00000E+005	E&stimated Z (ohms)
OCVCURVE	TABLE	19
	Pt	T	Vf	Vm	Ach	Over
	#	s	V vs. Ref.	V	V	bits
	0	0.258333	4.16575E-002	4.16575E-002	5.56766E-004	...........
	1	0.516667	4.17123E-002	4.45251E-002	5.60099E-004	...........
	2	0.775	4.20482E-002	4.72165E-002	5.60732E-004	...........
	3	1.03333	4.29937E-002	4.96438E-002	5.62199E-004	...........
	4	1.29167	4.46668E-002	5.18564E-002	5.65799E-004	...........
	5	1.55	4.68509E-002	5.39815E-002	5.60066E-004	...........
	6	1.80833	4.92112E-002	5.58685E-002	5.62099E-004	...........
	7	2.06667	5.15115E-002	5.76310E-002	5.65166E-004	...........
	8	2.325	5.36497E-002	5.92736E-002	5.62166E-004	...........
	9	2.58333	5.56084E-002	6.08061E-002	5.63399E-004	...........
	10	2.84167	5.74063E-002	6.22359E-002	5.61799E-004	...........
	11	3.1	5.90684E-002	6.35694E-002	5.60099E-004	...........
	12	3.35833	6.06140E-002	6.48166E-002	5.56832E-004	...........
	13	3.61667	6.20557E-002	6.59881E-002	5.65899E-004	...........
	14	3.875	6.34026E-002	6.70820E-002	5.63299E-004	...........
	15	4.13333	6.46625E-002	6.81114E-002	5.64132E-004	...........
	16	4.39167	6.58423E-002	6.90771E-002	5.57032E-004	...........
	17	4.65	6.69481E-002	6.99898E-002	5.52399E-004	...........
	18	4.90833	6.79859E-002	7.08432E-002	5.55566E-004	...........
EOC	QUANT	0.0679859	Open Circuit (V)
PSTATMODEL	IQUANT	4	Pstat Model
PSTATSECTION	LABEL	REF600-11020	Pstat Section
PSTATSERIALNO	LABEL	11020	Pstat Serial Number
CTRLMODE	IQUANT	1	Control Mode
IESTAB	IQUANT	0	I/E Stability
CASPEED	IQUANT	1	Control Amp Speed
CONVENTION	IQUANT	1	Current Convention
ICHRANGE	IQUANT	2	Ich Range
ICHRANGEMODE	TOGGLE	F	Ich Auto Range
ICHOFFSETENABLE	TOGGLE	T	Ich Offset Enable
ICHOFFSET	QUANT	0	Ich Offset (V)
ICHFILTER	IQUANT	3	Ich Filter
VCHRANGE	IQUANT	2	Vch Range
VCHRANGEMODE	TOGGLE	F	Vch Auto Range
VCHOFFSETENABLE	TOGGLE	T	Vch Offset Enable
VCHOFFSET	QUANT	0	Vch Offset (V)
VCHFILTER	IQUANT	3	Vch Filter
ACHRANGE	IQUANT	2	Ach Range
ACHOFFSETENABLE	TOGGLE	F	Ach Offset Enable
ACHOFFSET	QUANT	0	Ach Offset (V)
ACHFILTER	IQUANT	3	Ach Filter
IERANGELOWERLIMIT	IQUANT	1	I/E Range Lower Limit
IERANGEMODE	TOGGLE	F	I/E AutoRange
IERANGE	IQUANT	6	I/E Range
POSFEEDENABLE	TOGGLE	F	Positive Feedback IR Comp
POSFEEDRESISTANCE	QUANT	0	Positive Feedback Resistance (ohm)
ACHSELECT	IQUANT	0	Ach Select
CABLEID	IQUANT	14	Cable ID
DCCALDATE	LABEL	8/19/2019	DC Calibration Date
ACCALDATE	LABEL	8/19/2019	AC Calibration Date
THERMOSELECT	IQUANT	1	Thermo Select
FRAMEWORKVERSION	QUANT	6.33	Framework Version
INSTRUMENTVERSION	LABEL	3.50	Instrument Version
ZCURVE	TABLE
	Pt	Time	Freq	Zreal	Zimag	Zsig	Zmod	Zphz	Idc	Vdc	IERange
	#	s	Hz	ohm	ohm	V	ohm	°	A	V	#
	0	1	1000078	2125.319	-1620.816	1	2672.832	-37.32996	2.366423E-006	0.0693304	8
	1	1	794390.6	2457.376	-1617.911	1	2942.165	-33.3605	-8.457779E-007	0.069747	8
	2	1	630984.4	2763.374	-1590.879	1	3188.594	-29.92911	1.033627E-006	0.06969	8
	3	2	501234.4	3046.418	-1511.276	1	3400.679	-26.38522	3.88228E-006	0.0687452	8
	4	2	398109.4	3314.555	-1421.78	1	3606.624	-23.21693	-1.226254E-006	0.069939	8
	5	2	316265.6	3564.111	-1302.702	1	3794.723	-20.07763	1.488858E-006	0.0691978	8
	6	3	251203.1	3749.601	-1171.925	1	3928.475	-17.35645	-8.429721E-007	0.0698786	8
	7	3	199546.9	3913.701	-1039.458	1	4049.386	-14.87405	-4.732588E-008	0.0694705	8
	8	3	158578.1	4008.161	-893.1757	1	4106.472	-12.56249	-4.36232E-007	0.0694072	8
	9	4	125953.1	4168.028	-720.7804	1	4229.892	-9.81117	2.549411E-007	0.0691191	7
	10	4	100078.1	4230.248	-638.2527	1	4278.126	-8.579975	3.108001E-008	0.0693972	7
	11	4	79453.13	4292.376	-562.648	1	4329.096	-7.467798	7.500786E-008	0.0693461	7
	12	4	63140.62	4340.093	-509.9735	1	4369.952	-6.701691	-1.464495E-008	0.0695279	7
	13	5	50203.12	4382.077	-468.4771	1	4407.047	-6.102175	9.414484E-008	0.0694199	7
	14	5	39890.62	4418.254	-438.5408	1	4439.965	-5.668417	4.318789E-008	0.069447	7
	15	5	31640.63	4452.12	-424.32	1	4472.294	-5.444268	2.145839E-008	0.0695755	7
	16	6	25171.88	4482.756	-422.4533	1	4502.618	-5.383634	-6.70365E-008	0.0697206	7
	17	6	20015.62	4513.328	-426.1731	1	4533.404	-5.394186	-2.474792E-008	0.0695465	7
	18	6	15890.62	4546.15	-453.0678	1	4568.67	-5.691286	5.444414E-008	0.0694126	7
	19	7	12609.37	4576.088	-489.8373	1	4602.23	-6.109835	4.157049E-008	0.0694495	7
	20	7	10078.13	4610.312	-539.41	1	4641.76	-6.67331	-5.349246E-008	0.0695364	7
	21	7	8015.625	4656.856	-612.3702	1	4696.947	-7.491334	-1.291817E-008	0.0695174	7
	22	8	6328.125	4681.487	-694.3172	1	4732.694	-8.436113	-6.429807E-009	0.0694746	7
	23	8	5015.625	4723.685	-810.4137	1	4792.699	-9.73511	5.727732E-008	0.06941	7
	24	8	3984.375	4735.379	-954.407	1	4830.601	-11.3952	1.078811E-007	0.0693399	7
	25	9	3170.956	4817.202	-1128.537	1	4947.629	-13.18503	-1.339637E-008	0.069516	7
	26	9	2527.573	4874.717	-1344.81	1	5056.815	-15.42282	1.472152E-008	0.0694082	7
	27	9	1976.103	4946.589	-1637.187	1	5210.482	-18.31314	1.317756E-008	0.0694101	7
	28	10	1577.524	5034.955	-1956.277	1	5401.647	-21.2331	-5.959642E-008	0.0695995	7
	29	10	1265.625	5117.241	-2359.03	1	5634.818	-24.74954	4.217371E-008	0.0694392	7
	30	10	998.264	5233.473	-2873.66	1	5970.524	-28.77085	-3.958781E-008	0.0695065	7
	31	10	796.875	5360.066	-3472.448	1	6386.564	-32.93665	-5.397879E-008	0.0695319	7
	32	11	627.7902	5519.959	-4257.935	1	6971.367	-37.64555	1.061253E-007	0.0693432	7
	33	11	505.5147	5694.795	-5130.214	1	7664.841	-42.01443	-2.240136E-008	0.0695313	7
	34	11	397.9953	5921.738	-6310.369	1	8653.77	-46.81976	-1.959611E-009	0.0695242	7
	35	12	315.5048	6193.206	-7731.978	1	9906.53	-51.30576	-4.430004E-011	0.0695185	7
	36	12	252.4038	6518.938	-9411.704	1	11448.87	-55.29192	-8.881317E-010	0.0694547	6
	37	12	198.6229	6953.072	-11633.25	1	13552.77	-59.13367	-9.570243E-010	0.0694536	6
	38	13	158.3615	7474.687	-14222.6	1	16067.15	-62.27583	-4.769428E-010	0.0694516	6
	39	13	125.558	8158.583	-17480.56	1	19290.73	-64.98045	-1.318281E-009	0.0694532	6
	40	13	100.4464	9032.666	-21280.8	1	23118.42	-67.00114	-1.249608E-009	0.0694489	6
	41	14	79.00281	10283.25	-26340.49	1	28276.61	-68.67448	-2.187699E-009	0.0694497	6
	42	14	63.3446	11538.04	-32336.88	1	34333.66	-70.36321	-2.162382E-009	0.0694464	6
	43	14	49.86702	13559.58	-39645.11	1	41899.85	-71.11809	-2.384602E-009	0.0694432	6
	44	15	39.72458	16494.44	-48024.02	1	50777.68	-71.04433	-1.243831E-009	0.0694506	6
	45	15	31.6723	20078.62	-58051.29	1	61425.59	-70.92066	-1.560612E-009	0.0694458	6
	46	15	24.93351	24837.47	-71033.8	1	75250.92	-70.72746	-1.175499E-009	0.0694483	6
	47	16	19.86229	31017.94	-85627.6	1	91072.49	-70.08747	2.397757E-010	0.069454	6
	48	16	15.83615	40299.76	-102224.6	1	109881.5	-68.48428	-3.633824E-009	0.069451	5
	49	16	12.40079	50165.59	-122587.5	1	132454.8	-67.7445	2.023181E-010	0.0694522	5
	50	17	9.93114	63926.41	-144720.3	1	158210.5	-66.16781	-1.127681E-009	0.069448	5
	51	17	7.944915	79960.6	-169218.4	1	187159.2	-64.70791	-2.195784E-009	0.0694591	5
	52	18	6.317385	100413.6	-196718.2	1	220864.1	-62.95826	-2.021856E-009	0.0694697	5
	53	19	5.008013	125314	-227070.2	1	259353.9	-61.10687	-1.487652E-009	0.0694548	5
	54	20	3.945707	155996.5	-260262.5	1	303432.8	-59.06231	-1.269519E-009	0.0694434	5
	55	21	3.158693	187374.1	-294840.1	1	349341.8	-57.56359	-1.113905E-009	0.0694589	5
	56	23	2.504006	224549.9	-332802.7	1	401472.7	-55.99152	-1.396173E-009	0.0694536	5
	57	24	1.998082	263541.5	-373827.2	1	457384.9	-54.81685	-1.504039E-009	0.069425	5
	58	26	1.584686	306988.2	-419061.7	1	519475.2	-53.77496	-1.342708E-009	0.0694693	5
	59	28	1.266892	353532.4	-470399.3	1	588439.2	-53.07301	-1.303532E-009	0.0694839	5
	60	30	0.999041	406043.4	-534448	1	671197.4	-52.77448	-1.284848E-009	0.0694843	5
