EXPLAIN
TAG	EISPOT
TITLE	LABEL	Potentiostatic EIS	Test &Identifier
DATE	LABEL	11/20/2019	Date
TIME	LABEL	11:55:50	Time
NOTES	NOTES	4	&Notes...
	
	
	
	
PSTAT	PSTAT	REF600-11020	Potentiostat
VDC	POTEN	0.00000E+000	T	DC &Voltage (V)
FREQINIT	QUANT	1.00000E+006	Initial Fre&q. (Hz)
FREQFINAL	QUANT	1.00000E+000	Final Fre&q. (Hz)
PTSPERDEC	QUANT	1.00000E+001	Points/&decade
VAC	QUANT	2.50000E+001	AC &Voltage (mV rms)
AREA	QUANT	1.00000E-002	&Area (cm^2)
CONDIT	TWOPARAM	T	5.00000E+000	0.00000E+000	Conditionin&g	Time(s)	E(V)
DELAY	TWOPARAM	T	5.00000E+000	0.00000E+000	Init. De&lay	Time(s)	Stab.(mV/s)
SPEED	SELECTOR	1	&Optimize for:
ZGUESS	QUANT	1.00000E+005	E&stimated Z (ohms)
OCVCURVE	TABLE	19
	Pt	T	Vf	Vm	Ach	Over
	#	s	V vs. Ref.	V	V	bits
	0	0.258333	2.13145E-003	2.13145E-003	5.08167E-004	...........
	1	0.516667	2.12599E-003	1.84565E-003	5.05767E-004	...........
	2	0.775	2.09263E-003	1.58379E-003	5.07733E-004	...........
	3	1.03333	1.99920E-003	1.35078E-003	5.02800E-004	...........
	4	1.29167	1.83484E-003	1.13570E-003	5.07733E-004	...........
	5	1.55	1.62180E-003	9.42286E-004	5.10167E-004	...........
	6	1.80833	1.39353E-003	7.57060E-004	5.10033E-004	...........
	7	2.06667	1.17300E-003	5.87008E-004	5.08967E-004	...........
	8	2.325	9.68663E-004	4.17671E-004	5.09433E-004	...........
	9	2.58333	7.80221E-004	2.70491E-004	5.10700E-004	...........
	10	2.84167	6.04800E-004	1.15544E-004	5.09867E-004	...........
	11	3.1	4.39986E-004	-1.47405E-005	5.08000E-004	...........
	12	3.35833	2.84246E-004	-1.56990E-004	5.05867E-004	...........
	13	3.61667	1.36580E-004	-2.73947E-004	5.04667E-004	...........
	14	3.875	-3.81265E-006	-4.07535E-004	5.10900E-004	...........
	15	4.13333	-1.37777E-004	-5.16420E-004	5.09933E-004	...........
	16	4.39167	-2.66164E-004	-6.38615E-004	5.05800E-004	...........
	17	4.65	-3.89575E-004	-7.40510E-004	5.08233E-004	...........
	18	4.90833	-5.08261E-004	-8.49729E-004	5.10600E-004	...........
EOC	QUANT	-0.0005083	Open Circuit (V)
PSTATMODEL	IQUANT	4	Pstat Model
PSTATSECTION	LABEL	REF600-11020	Pstat Section
PSTATSERIALNO	LABEL	11020	Pstat Serial Number
CTRLMODE	IQUANT	1	Control Mode
IESTAB	IQUANT	0	I/E Stability
CASPEED	IQUANT	1	Control Amp Speed
CONVENTION	IQUANT	1	Current Convention
ICHRANGE	IQUANT	2	Ich Range
ICHRANGEMODE	TOGGLE	F	Ich Auto Range
ICHOFFSETENABLE	TOGGLE	T	Ich Offset Enable
ICHOFFSET	QUANT	0	Ich Offset (V)
ICHFILTER	IQUANT	3	Ich Filter
VCHRANGE	IQUANT	2	Vch Range
VCHRANGEMODE	TOGGLE	F	Vch Auto Range
VCHOFFSETENABLE	TOGGLE	T	Vch Offset Enable
VCHOFFSET	QUANT	0	Vch Offset (V)
VCHFILTER	IQUANT	3	Vch Filter
ACHRANGE	IQUANT	2	Ach Range
ACHOFFSETENABLE	TOGGLE	F	Ach Offset Enable
ACHOFFSET	QUANT	0	Ach Offset (V)
ACHFILTER	IQUANT	3	Ach Filter
IERANGELOWERLIMIT	IQUANT	1	I/E Range Lower Limit
IERANGEMODE	TOGGLE	F	I/E AutoRange
IERANGE	IQUANT	3	I/E Range
POSFEEDENABLE	TOGGLE	F	Positive Feedback IR Comp
POSFEEDRESISTANCE	QUANT	0	Positive Feedback Resistance (ohm)
ACHSELECT	IQUANT	0	Ach Select
CABLEID	IQUANT	14	Cable ID
DCCALDATE	LABEL	8/19/2019	DC Calibration Date
ACCALDATE	LABEL	8/19/2019	AC Calibration Date
THERMOSELECT	IQUANT	1	Thermo Select
FRAMEWORKVERSION	QUANT	6.33	Framework Version
INSTRUMENTVERSION	LABEL	3.50	Instrument Version
ZCURVE	TABLE
	Pt	Time	Freq	Zreal	Zimag	Zsig	Zmod	Zphz	Idc	Vdc	IERange
	#	s	Hz	ohm	ohm	V	ohm	°	A	V	#
	0	1	1000078	2348.208	-1956.443	1	3056.427	-39.79985	3.749397E-006	8.431639E-005	8
	1	3	794390.6	2745.457	-1938.628	1	3360.924	-35.22676	-3.884688E-006	0.0015168	8
	2	4	630984.4	3125.362	-1867.633	1	3640.871	-30.86142	8.380866E-007	0.0008623	8
	3	6	501234.4	3466.18	-1743.352	1	3879.907	-26.70059	5.763578E-007	0.0014998	8
	4	7	398109.4	3750.264	-1611.139	1	4081.697	-23.2487	3.726243E-006	0.0010047	8
	5	8	316265.6	3994.965	-1418.969	1	4239.483	-19.55449	-1.02194E-006	0.0014203	8
	6	10	251203.1	4194.942	-1265.378	1	4381.634	-16.7856	-7.630472E-007	0.0014037	8
	7	11	199546.9	4366.574	-1105.464	1	4504.333	-14.20679	-4.089373E-006	0.0013495	8
	8	12	158578.1	4478.614	-966.4	1	4581.693	-12.17664	-7.146887E-007	0.0014098	8
	9	14	125953.1	4610.49	-790.886	1	4677.833	-9.73381	-1.002989E-006	0.002073	7
	10	15	100078.1	4677.795	-698.0952	1	4729.599	-8.487947	1.22469E-007	-0.0003208	7
	11	16	79453.13	4741.94	-625.6896	1	4783.041	-7.516643	9.354126E-007	-0.0006184	7
	12	18	63140.62	4794.303	-562.8094	1	4827.225	-6.695381	5.597872E-008	0.0019084	7
	13	19	50203.12	4833.136	-520.5331	1	4861.086	-6.147112	-1.160153E-006	0.0023452	7
	14	21	39890.62	4867.831	-489.7437	1	4892.405	-5.745094	-1.165814E-006	0.0023496	7
	15	22	31640.63	4917.242	-476.8071	1	4940.305	-5.538449	1.045064E-006	-8.462356E-005	7
	16	23	25171.88	4948.021	-479.1208	1	4971.164	-5.530753	-2.870806E-007	0.0022712	7
	17	25	20015.62	4985.253	-492.8492	1	5009.556	-5.645997	4.766548E-007	-0.0006109	7
	18	26	15890.62	5013.249	-511.6278	1	5039.288	-5.827154	-9.858148E-007	0.0014532	7
	19	27	12609.37	5061.093	-553.2602	1	5091.243	-6.238594	1.031212E-006	-0.000397	7
	20	29	10078.13	5099.021	-607.6763	1	5135.103	-6.796176	7.516407E-007	-0.0007051	7
	21	30	8015.625	5137.883	-691.248	1	5184.174	-7.662531	-2.795061E-007	0.0001566	7
	22	31	6328.125	5173.884	-787.1735	1	5233.423	-8.650846	-1.162709E-006	0.0023459	7
	23	33	5015.625	5228.771	-919.0006	1	5308.918	-9.9684	5.68647E-007	0.0011968	7
	24	34	3984.375	5281.833	-1061.724	1	5387.487	-11.3658	-2.716784E-007	0.0001621	7
	25	36	3170.956	5337.791	-1270.41	1	5486.889	-13.38749	1.037197E-006	-0.0004008	7
	26	37	2527.573	5401.833	-1510.021	1	5608.919	-15.61773	-1.164161E-006	0.002339	7
	27	38	1976.103	5495.159	-1830.734	1	5792.095	-18.42569	5.677828E-007	0.0011984	7
	28	40	1577.524	5612.938	-2207.614	1	6031.47	-21.47011	-1.042737E-006	0.0025084	7
	29	41	1265.625	5683.62	-2630.469	1	6262.819	-24.83545	-1.153502E-006	0.0019896	7
	30	42	998.264	5817.067	-3209.253	1	6643.612	-28.88535	-1.152585E-006	0.0019918	7
	31	44	796.875	5973.592	-3883.125	1	7124.778	-33.02583	9.627726E-007	0.0003177	7
	32	45	627.7902	6174.166	-4757.72	1	7794.628	-37.61731	-2.85724E-007	0.0001548	7
	33	47	505.5147	6386.106	-5709.201	1	8566.057	-41.79682	9.404458E-007	-0.0006262	7
	34	48	397.9953	6674.984	-7007.523	1	9677.85	-46.39224	2.422044E-009	0.0010051	7
	35	49	315.5048	7024.759	-8553.798	1	11068.64	-50.60564	5.232705E-010	0.0009374	6
	36	51	252.4038	7433.139	-10364.71	1	12754.56	-54.35348	1.76497E-009	0.0009303	6
	37	52	198.6229	7972.875	-12747.84	1	15035.76	-57.97692	1.321775E-010	0.0009371	6
	38	53	158.3615	8606.088	-15503.97	1	17732.39	-60.96581	2.831927E-010	0.0009365	6
	39	55	125.558	9430.152	-18983.06	1	21196.33	-63.58335	8.274714E-010	0.0009323	6
	40	56	100.4464	10453.4	-23032.18	1	25293.38	-65.58857	1.536004E-009	0.0009384	6
	41	58	79.00281	11768.95	-28417.34	1	30757.98	-67.50327	1.86516E-009	0.0009214	6
	42	59	63.3446	13107.65	-34129.32	1	36559.83	-68.9903	1.697863E-010	0.0009309	6
	43	60	49.86702	16186.55	-42091.87	1	45096.89	-68.96561	-1.722093E-010	0.0009258	6
	44	62	39.72458	18984.98	-51169.76	1	54578.14	-69.64416	3.249226E-010	0.0009313	6
	45	63	31.6723	22989.97	-62100.32	1	66219.24	-69.6851	-3.153625E-010	0.0009318	6
	46	65	24.93351	28547.39	-75231.34	1	80465.57	-69.22018	3.08315E-010	0.0009286	6
	47	66	19.86229	35504.17	-90142.95	1	96882.9	-68.50225	-4.317937E-010	0.0009313	6
	48	68	15.83615	45261.81	-107581.3	1	116714.9	-67.18244	-9.397807E-010	0.0009394	5
	49	69	12.40079	56424.43	-127908	1	139800.4	-66.19614	6.418391E-010	0.0009351	5
	50	70	9.93114	71699.91	-149814	1	166087.7	-64.42455	1.078403E-009	0.0009241	5
	51	72	7.944915	88836.4	-173245	1	194693.9	-62.8522	-7.244169E-010	0.0009366	5
	52	74	6.317385	110693.3	-200743.4	1	229239.9	-61.12691	1.971742E-010	0.0009274	5
	53	76	5.008013	136046.2	-230126.8	1	267332.9	-59.4093	5.89318E-010	0.000954	5
	54	78	3.945707	166924.7	-262644	1	311200.5	-57.56181	1.151266E-010	0.0009379	5
	55	81	3.158693	198924.4	-295093.3	1	355880.5	-56.01582	2.090371E-010	0.0009516	5
	56	84	2.504006	235719.4	-332110	1	407260	-54.63427	2.857865E-010	0.0009328	5
	57	87	1.998082	273658.7	-371137.7	1	461120.6	-53.59676	-1.353974E-010	0.0009716	5
	58	90	1.584686	315897.7	-417012	1	523154.3	-52.85511	3.101023E-010	0.0009765	5
	59	94	1.266892	359092.3	-465903.6	1	588229.1	-52.37698	-2.709081E-011	0.0009772	5
	60	98	0.999041	406549.8	-527304.1	1	665832.1	-52.36789	2.787887E-010	0.0009105	5
