EXPLAIN
TAG	EISPOT
TITLE	LABEL	Potentiostatic EIS	Test &Identifier
DATE	LABEL	11/15/2019	Date
TIME	LABEL	11:13:03	Time
NOTES	NOTES	4	&Notes...
	
	
	
	
PSTAT	PSTAT	REF600-11020	Potentiostat
VDC	POTEN	0.00000E+000	T	DC &Voltage (V)
FREQINIT	QUANT	1.00000E+006	Initial Fre&q. (Hz)
FREQFINAL	QUANT	1.00000E+000	Final Fre&q. (Hz)
PTSPERDEC	QUANT	1.00000E+001	Points/&decade
VAC	QUANT	2.50000E+001	AC &Voltage (mV rms)
AREA	QUANT	1.00000E-002	&Area (cm^2)
CONDIT	TWOPARAM	T	5.00000E+000	0.00000E+000	Conditionin&g	Time(s)	E(V)
DELAY	TWOPARAM	T	5.00000E+000	0.00000E+000	Init. De&lay	Time(s)	Stab.(mV/s)
SPEED	SELECTOR	0	&Optimize for:
ZGUESS	QUANT	1.00000E+005	E&stimated Z (ohms)
OCVCURVE	TABLE	19
	Pt	T	Vf	Vm	Ach	Over
	#	s	V vs. Ref.	V	V	bits
	0	0.258333	7.07806E-003	7.07806E-003	5.30066E-004	...........
	1	0.516667	7.07587E-003	6.96337E-003	5.34500E-004	...........
	2	0.775	7.06253E-003	6.86081E-003	5.23533E-004	...........
	3	1.03333	7.02546E-003	6.77636E-003	5.32500E-004	...........
	4	1.29167	6.96022E-003	6.65126E-003	5.34900E-004	...........
	5	1.55	6.87303E-003	6.54530E-003	5.33200E-004	...........
	6	1.80833	6.77347E-003	6.48763E-003	5.34900E-004	...........
	7	2.06667	6.67323E-003	6.48748E-003	5.33066E-004	...........
	8	2.325	6.58787E-003	6.50040E-003	5.25566E-004	...........
	9	2.58333	6.52983E-003	6.47125E-003	5.24133E-004	...........
	10	2.84167	6.49910E-003	6.47898E-003	5.26966E-004	...........
	11	3.1	6.48580E-003	6.48483E-003	5.28033E-004	...........
	12	3.35833	6.48091E-003	6.48259E-003	5.28966E-004	...........
	13	3.61667	6.48031E-003	6.49126E-003	5.32600E-004	...........
	14	3.875	6.48216E-003	6.49438E-003	5.29600E-004	...........
	15	4.13333	6.48540E-003	6.49649E-003	5.27466E-004	...........
	16	4.39167	6.48933E-003	6.50365E-003	5.26466E-004	...........
	17	4.65	6.49357E-003	6.51025E-003	5.25900E-004	...........
	18	4.90833	6.49819E-003	6.51352E-003	5.20933E-004	...........
EOC	QUANT	0.0064982	Open Circuit (V)
PSTATMODEL	IQUANT	4	Pstat Model
PSTATSECTION	LABEL	REF600-11020	Pstat Section
PSTATSERIALNO	LABEL	11020	Pstat Serial Number
CTRLMODE	IQUANT	1	Control Mode
IESTAB	IQUANT	0	I/E Stability
CASPEED	IQUANT	1	Control Amp Speed
CONVENTION	IQUANT	1	Current Convention
ICHRANGE	IQUANT	2	Ich Range
ICHRANGEMODE	TOGGLE	F	Ich Auto Range
ICHOFFSETENABLE	TOGGLE	T	Ich Offset Enable
ICHOFFSET	QUANT	0	Ich Offset (V)
ICHFILTER	IQUANT	3	Ich Filter
VCHRANGE	IQUANT	2	Vch Range
VCHRANGEMODE	TOGGLE	F	Vch Auto Range
VCHOFFSETENABLE	TOGGLE	T	Vch Offset Enable
VCHOFFSET	QUANT	0	Vch Offset (V)
VCHFILTER	IQUANT	3	Vch Filter
ACHRANGE	IQUANT	2	Ach Range
ACHOFFSETENABLE	TOGGLE	F	Ach Offset Enable
ACHOFFSET	QUANT	0	Ach Offset (V)
ACHFILTER	IQUANT	3	Ach Filter
IERANGELOWERLIMIT	IQUANT	1	I/E Range Lower Limit
IERANGEMODE	TOGGLE	F	I/E AutoRange
IERANGE	IQUANT	5	I/E Range
POSFEEDENABLE	TOGGLE	F	Positive Feedback IR Comp
POSFEEDRESISTANCE	QUANT	0	Positive Feedback Resistance (ohm)
ACHSELECT	IQUANT	0	Ach Select
CABLEID	IQUANT	14	Cable ID
DCCALDATE	LABEL	8/19/2019	DC Calibration Date
ACCALDATE	LABEL	8/19/2019	AC Calibration Date
THERMOSELECT	IQUANT	1	Thermo Select
FRAMEWORKVERSION	QUANT	6.33	Framework Version
INSTRUMENTVERSION	LABEL	3.50	Instrument Version
ZCURVE	TABLE
	Pt	Time	Freq	Zreal	Zimag	Zsig	Zmod	Zphz	Idc	Vdc	IERange
	#	s	Hz	ohm	ohm	V	ohm	°	A	V	#
	0	1	1000078	2266.729	-1864.145	1	2934.807	-39.43369	-2.735491E-006	0.0094335	8
	1	1	794390.6	2645.461	-1845.624	1	3225.646	-34.90181	3.773353E-006	0.0078361	8
	2	2	630984.4	3007.663	-1795.521	1	3502.846	-30.83644	-1.961061E-006	0.0088565	8
	3	2	501234.4	3326.787	-1687.321	1	3730.223	-26.89377	8.334095E-006	0.0072929	8
	4	2	398109.4	3582.686	-1556.346	1	3906.13	-23.4805	6.931587E-006	0.007262	8
	5	3	316265.6	3821.51	-1436.646	1	4082.633	-20.60309	-3.369583E-006	0.008691	8
	6	3	251203.1	4010.773	-1313.86	1	4220.489	-18.1379	-6.306406E-006	0.0090535	8
	7	3	199546.9	4167.767	-1207.198	1	4339.079	-16.15372	6.355188E-006	0.0069685	8
	8	4	158578.1	4292.748	-1112.599	1	4434.586	-14.53025	-1.467012E-006	0.0084958	8
	9	4	125953.1	4452.952	-1005.57	1	4565.08	-12.72514	-1.255211E-006	0.0067535	7
	10	4	100078.1	4541.906	-957.31	1	4641.697	-11.90218	4.128039E-007	0.0086582	7
	11	5	79453.13	4638.948	-938.185	1	4732.867	-11.43333	-1.194123E-006	0.0098224	7
	12	5	63140.62	4737.822	-941.4012	1	4830.444	-11.23825	6.550088E-007	0.0083046	7
	13	5	50203.12	4832.113	-962.532	1	4927.046	-11.26557	9.005969E-007	0.007835	7
	14	5	39890.62	4930.801	-1000.526	1	5031.288	-11.47035	4.143869E-007	0.0086501	7
	15	6	31640.63	5035.099	-1061.714	1	5145.819	-11.90711	6.56137E-007	0.0083006	7
	16	6	25171.88	5143.884	-1136.773	1	5267.998	-12.46179	-3.293895E-007	0.0071217	7
	17	6	20015.62	5269.87	-1239.679	1	5413.717	-13.23753	1.0728E-006	0.00621	7
	18	7	15890.62	5394.768	-1356.879	1	5562.791	-14.11805	-1.321637E-006	0.0092252	7
	19	7	12609.37	5543.889	-1501.849	1	5743.714	-15.15771	-1.133183E-006	0.008603	7
	20	7	10078.13	5702.091	-1671.463	1	5942.022	-16.33753	-7.865955E-007	0.0078734	7
	21	8	8015.625	5875.271	-1869.894	1	6165.655	-17.65446	-3.273329E-007	0.0071226	7
	22	8	6328.125	6091.043	-2112.855	1	6447.09	-19.13058	-3.360958E-007	0.0071228	7
	23	8	5015.625	6331.216	-2399.366	1	6770.617	-20.75541	1.198636E-006	0.0068223	7
	24	9	3984.375	6570.982	-2691.468	1	7100.832	-22.27395	-1.332526E-006	0.0096223	7
	25	9	3170.956	6878.839	-3083.766	1	7538.437	-24.14657	-1.134954E-006	0.008597	7
	26	10	2527.573	7221.418	-3508.924	1	8028.787	-25.91535	-3.223588E-007	0.0095231	7
	27	10	1976.103	7665.324	-4037.245	1	8663.518	-27.7753	1.101406E-006	0.007286	7
	28	10	1577.524	8133.059	-4505.229	1	9297.513	-28.98384	-7.928691E-007	0.0078619	7
	29	11	1265.625	8592.543	-5139.978	1	10012.55	-30.88746	-3.176354E-007	0.0095187	7
	30	11	998.264	9185.002	-5836.182	1	10882.34	-32.43202	1.704924E-007	0.0071736	6
	31	11	796.875	9770.78	-6585.861	1	11783.11	-33.9814	1.678441E-007	0.0049831	6
	32	12	627.7902	10429.04	-7499.977	1	12845.79	-35.72157	1.870375E-007	0.0065333	6
	33	12	505.5147	11033.12	-8463.919	1	13905.67	-37.49316	-5.353491E-008	0.0105414	6
	34	12	397.9953	11715.51	-9754.08	1	15244.52	-39.78005	2.649193E-010	0.0080137	6
	35	13	315.5048	12374.64	-11300.9	1	16758.34	-42.40328	2.465609E-010	0.0079993	6
	36	13	252.4038	13020.03	-13148.7	1	18504.31	-45.2817	-1.102446E-010	0.0079967	6
	37	13	198.6229	13745.39	-15648.5	1	20828.14	-48.70445	1.622372E-010	0.0079966	6
	38	14	158.3615	14476.7	-18619.1	1	23584.86	-52.13427	-1.282618E-010	0.0080004	6
	39	14	125.558	15326.44	-22436.71	1	27171.78	-55.66314	6.385322E-010	0.0079944	6
	40	14	100.4464	16272.4	-27052.75	1	31569.64	-58.97283	2.865467E-011	0.0079908	6
	41	15	79.00281	17517.5	-33121.13	1	37468.28	-62.126	-8.159082E-010	0.0079988	6
	42	15	63.3446	19631.06	-40195.06	1	44732.78	-63.96935	7.12983E-010	0.007996	6
	43	15	49.86702	21516.05	-49679.42	1	54138.57	-66.58266	6.649388E-011	0.0079924	6
	44	16	39.72458	23928.51	-60267.28	1	64843.8	-68.34495	3.116414E-010	0.0079962	6
	45	16	31.6723	27140.26	-73304.05	1	78166.98	-69.68332	5.614678E-010	0.0079973	6
	46	16	24.93351	32119.7	-90499.5	1	96030.4	-70.45942	-3.172744E-011	0.0079899	6
	47	17	19.86229	38152.16	-109812	1	116250.8	-70.84115	-4.45076E-010	0.0079911	5
	48	17	15.83615	47725.74	-132040.9	1	140401.4	-70.12778	-1.748368E-009	0.0079922	5
	49	17	12.40079	58646.23	-161419.5	1	171743	-70.03313	1.532104E-009	0.0079985	5
	50	18	9.93114	71368.61	-195325.4	1	207955.5	-69.92855	-1.965158E-010	0.0080008	5
	51	18	7.944915	88818.73	-233298.5	1	249633.6	-69.15775	-2.563205E-010	0.007996	5
	52	19	6.317385	111155.8	-277667.9	1	299090.4	-68.18283	-3.185333E-010	0.0080035	5
	53	20	5.008013	140592	-330065.2	1	358760.6	-66.92831	-3.914603E-010	0.0079994	5
	54	21	3.945707	179034.7	-391149.2	1	430175.7	-65.40575	1.195958E-010	0.0079994	5
	55	22	3.158693	222887.5	-454520.7	1	506229.1	-63.87762	6.287464E-011	0.0080094	5
	56	24	2.504006	278632.1	-528513.4	1	597463.1	-62.20182	-1.390977E-010	0.0080017	5
	57	25	1.998082	341076.3	-604696.3	1	694255.4	-60.57502	-1.900977E-011	0.0080044	5
	58	27	1.584686	417867.2	-691738.1	1	808155.1	-58.86454	6.354264E-011	0.0080428	5
	59	29	1.266892	498667.6	-783809.5	1	928992.3	-57.53506	4.967977E-011	0.0080187	5
	60	31	0.999041	594737.6	-890332	1	1070702	-56.25726	5.77599E-011	0.0079968	4
