EXPLAIN
TAG	EISPOT
TITLE	LABEL	Potentiostatic IDE	Test &Identifier
DATE	LABEL	9/12/2019	Date
TIME	LABEL	11:02:11	Time
NOTES	NOTES	1	&Notes...
	
PSTAT	PSTAT	REF600-11020	Potentiostat
VDC	POTEN	0.00000E+000	T	DC &Voltage (V)
FREQINIT	QUANT	1.00000E+006	Initial Fre&q. (Hz)
FREQFINAL	QUANT	1.00000E+000	Final Fre&q. (Hz)
PTSPERDEC	QUANT	1.00000E+001	Points/&decade
VAC	QUANT	2.50000E+001	AC &Voltage (mV rms)
AREA	QUANT	1.00000E-002	&Area (cm^2)
CONDIT	TWOPARAM	T	5.00000E+000	0.00000E+000	Conditionin&g	Time(s)	E(V)
DELAY	TWOPARAM	T	5.00000E+000	0.00000E+000	Init. De&lay	Time(s)	Stab.(mV/s)
SPEED	SELECTOR	1	&Optimize for:
ZGUESS	QUANT	1.00000E+007	E&stimated Z (ohms)
OCVCURVE	TABLE	19
	Pt	T	Vf	Vm	Ach	Over
	#	s	V vs. Ref.	V	V	bits
	0	0.258333	8.39444E-003	8.39444E-003	5.63832E-004	...........
	1	0.516667	8.39669E-003	8.51223E-003	5.63532E-004	...........
	2	0.775	8.41020E-003	8.60780E-003	5.61132E-004	...........
	3	1.03333	8.44769E-003	8.71487E-003	5.61299E-004	...........
	4	1.29167	8.51407E-003	8.81721E-003	5.57799E-004	...........
	5	1.55	8.60274E-003	8.92333E-003	5.63166E-004	...........
	6	1.80833	8.70335E-003	9.03071E-003	5.55966E-004	...........
	7	2.06667	8.80860E-003	9.13672E-003	5.51533E-004	...........
	8	2.325	8.91504E-003	9.23862E-003	5.57599E-004	...........
	9	2.58333	9.02121E-003	9.34100E-003	5.55166E-004	...........
	10	2.84167	9.12625E-003	9.43962E-003	5.56566E-004	...........
	11	3.1	9.22959E-003	9.53481E-003	5.60632E-004	...........
	12	3.35833	9.33080E-003	9.62818E-003	5.58899E-004	...........
	13	3.61667	9.42956E-003	9.72099E-003	5.55799E-004	...........
	14	3.875	9.52591E-003	9.81273E-003	5.61599E-004	...........
	15	4.13333	9.62016E-003	9.89696E-003	5.63632E-004	...........
	16	4.39167	9.71233E-003	9.98258E-003	5.60666E-004	...........
	17	4.65	9.80210E-003	1.00634E-002	5.60466E-004	...........
	18	4.90833	9.88917E-003	1.01415E-002	5.53666E-004	...........
EOC	QUANT	0.0098892	Open Circuit (V)
PSTATMODEL	IQUANT	4	Pstat Model
PSTATSECTION	LABEL	REF600-11020	Pstat Section
PSTATSERIALNO	LABEL	11020	Pstat Serial Number
CTRLMODE	IQUANT	1	Control Mode
IESTAB	IQUANT	0	I/E Stability
CASPEED	IQUANT	1	Control Amp Speed
CONVENTION	IQUANT	1	Current Convention
ICHRANGE	IQUANT	2	Ich Range
ICHRANGEMODE	TOGGLE	F	Ich Auto Range
ICHOFFSETENABLE	TOGGLE	T	Ich Offset Enable
ICHOFFSET	QUANT	0	Ich Offset (V)
ICHFILTER	IQUANT	3	Ich Filter
VCHRANGE	IQUANT	2	Vch Range
VCHRANGEMODE	TOGGLE	F	Vch Auto Range
VCHOFFSETENABLE	TOGGLE	T	Vch Offset Enable
VCHOFFSET	QUANT	0	Vch Offset (V)
VCHFILTER	IQUANT	3	Vch Filter
ACHRANGE	IQUANT	2	Ach Range
ACHOFFSETENABLE	TOGGLE	F	Ach Offset Enable
ACHOFFSET	QUANT	0	Ach Offset (V)
ACHFILTER	IQUANT	3	Ach Filter
IERANGELOWERLIMIT	IQUANT	1	I/E Range Lower Limit
IERANGEMODE	TOGGLE	F	I/E AutoRange
IERANGE	IQUANT	3	I/E Range
POSFEEDENABLE	TOGGLE	F	Positive Feedback IR Comp
POSFEEDRESISTANCE	QUANT	0	Positive Feedback Resistance (ohm)
ACHSELECT	IQUANT	0	Ach Select
CABLEID	IQUANT	14	Cable ID
DCCALDATE	LABEL	8/19/2019	DC Calibration Date
ACCALDATE	LABEL	8/19/2019	AC Calibration Date
THERMOSELECT	IQUANT	1	Thermo Select
FRAMEWORKVERSION	QUANT	6.33	Framework Version
INSTRUMENTVERSION	LABEL	3.50	Instrument Version
ZCURVE	TABLE
	Pt	Time	Freq	Zreal	Zimag	Zsig	Zmod	Zphz	Idc	Vdc	IERange
	#	s	Hz	ohm	ohm	V	ohm	°	A	V	#
	0	1	1000078	2558.539	-1906.134	1	3190.528	-36.68643	-1.395358E-006	0.0120756	8
	1	3	794390.6	2936.69	-1841.769	1	3466.448	-32.09421	-7.629914E-007	0.0122396	8
	2	5	630984.4	3282.784	-1699.428	1	3696.583	-27.36965	1.691086E-006	0.0114205	8
	3	6	501234.4	3578.095	-1536.722	1	3894.134	-23.24257	-1.724716E-006	0.012235	8
	4	8	398109.4	3804.037	-1368.257	1	4042.626	-19.78292	3.939179E-007	0.0115629	8
	5	9	316265.6	3991.185	-1160.458	1	4156.467	-16.21206	2.226494E-006	0.0111848	8
	6	10	251203.1	4117.193	-986.893	1	4233.82	-13.4795	-5.179694E-006	0.0127992	8
	7	12	199546.9	4244.572	-852.4676	1	4329.33	-11.35604	6.347447E-007	0.0115422	8
	8	13	158578.1	4304.043	-746.9525	1	4368.378	-9.84543	4.872823E-006	0.0107626	8
	9	15	125953.1	4356.22	-596.6497	1	4396.89	-7.79899	5.828693E-007	0.0100195	7
	10	16	100078.1	4400.457	-538.9763	1	4433.342	-6.982915	-3.660655E-009	0.0115349	7
	11	18	79453.13	4441.072	-500.3505	1	4469.169	-6.428085	-2.040513E-008	0.0117501	7
	12	19	63140.62	4479.606	-477.2847	1	4504.961	-6.081699	-4.605708E-008	0.0116283	7
	13	20	50203.12	4518.112	-466.3687	1	4542.118	-5.893316	-4.545166E-009	0.0115292	7
	14	22	39890.62	4553.297	-472.2383	1	4577.72	-5.921176	2.243507E-008	0.011497	7
	15	23	31640.63	4593.251	-480.5208	1	4618.317	-5.972248	-4.406775E-008	0.0117348	7
	16	24	25171.88	4632.798	-506.2623	1	4660.377	-6.236415	-3.568466E-009	0.0115264	7
	17	25	20015.62	4676.418	-544.085	1	4707.963	-6.636328	3.586502E-008	0.0115624	7
	18	27	15890.62	4729.082	-602.9625	1	4767.366	-7.266063	-2.390249E-008	0.0115659	7
	19	28	12609.37	4772.069	-663.2786	1	4817.943	-7.91295	-4.869962E-008	0.0116217	7
	20	29	10078.13	4823.565	-743.5548	1	4880.538	-8.763194	-2.308206E-008	0.0115688	7
	21	31	8015.625	4883.421	-852.189	1	4957.22	-9.89881	-4.433025E-008	0.0117258	7
	22	32	6328.125	4948.858	-982.2	1	5045.385	-11.22562	-9.03326E-009	0.011635	7
	23	33	5015.625	5022.064	-1141.277	1	5150.111	-12.80317	-4.02297E-008	0.0116329	7
	24	35	3984.375	5102.655	-1336.442	1	5274.767	-14.67674	-7.640891E-009	0.0116262	7
	25	36	3170.956	5193.914	-1570.295	1	5426.101	-16.82184	-3.705114E-008	0.0115838	7
	26	37	2527.573	5296.256	-1853.872	1	5611.343	-19.29181	-3.569629E-008	0.01159	7
	27	39	1976.103	5425.104	-2229.339	1	5865.297	-22.33924	-4.298478E-008	0.0116252	7
	28	40	1577.524	5564.979	-2645.681	1	6161.868	-25.42717	-7.000187E-009	0.0116167	7
	29	41	1265.625	5718.724	-3141.292	1	6524.685	-28.77997	-4.025662E-008	0.0116276	7
	30	43	998.264	5914.594	-3781.627	1	7020.194	-32.59372	3.657086E-008	0.0115529	7
	31	44	796.875	6134.525	-4522.498	1	7621.377	-36.3984	7.970552E-008	0.0114428	7
	32	45	627.7902	6411.886	-5479.915	1	8434.557	-40.51883	-7.598147E-008	0.011697	7
	33	47	505.5147	6704	-6522.957	1	9353.747	-44.21582	9.222332E-008	0.0113832	7
	34	48	397.9953	7081.623	-7923.826	1	10627.15	-48.21244	9.989878E-010	0.0115322	6
	35	49	315.5048	7509.37	-9587.93	1	12178.63	-51.93158	9.750583E-010	0.0115315	6
	36	51	252.4038	7994.236	-11537.59	1	14036.52	-55.28245	2.947011E-010	0.0115362	6
	37	52	198.6229	8613.505	-14098.08	1	16521.15	-58.57632	8.990669E-010	0.0115278	6
	38	53	158.3615	9313.139	-17073.36	1	19448.24	-61.38851	4.537469E-010	0.0115308	6
	39	55	125.558	10192.01	-20798.69	1	23161.66	-63.89371	1.258254E-009	0.0115301	6
	40	56	100.4464	11212.86	-25181.34	1	27564.98	-65.99734	1.944741E-009	0.0115311	6
	41	58	79.00281	12588.79	-30947.31	1	33409.78	-67.86443	9.748685E-011	0.0115316	6
	42	59	63.3446	14714.47	-37533.28	1	40314.54	-68.59294	9.108166E-010	0.0115291	6
	43	60	49.86702	16324.54	-45849.6	1	48669.05	-70.40196	1.268988E-009	0.011533	6
	44	62	39.72458	19503.69	-55893.18	1	59198.32	-70.76378	9.828202E-010	0.0115297	6
	45	63	31.6723	22944.47	-67531.47	1	71322.84	-71.23431	6.104253E-010	0.0115384	6
	46	64	24.93351	27984.17	-82705.26	1	87311.36	-71.30622	1.161516E-009	0.0115301	6
	47	66	19.86229	34340.88	-99772.5	1	105517	-71.00695	8.081385E-010	0.0115397	5
	48	67	15.83615	40641.56	-120213.5	1	126897.7	-71.32073	-3.894866E-010	0.0115347	5
	49	68	12.40079	52140.01	-145300	1	154371.9	-70.2598	-4.22395E-010	0.0115381	5
	50	70	9.93114	65676.7	-174367.8	1	186326.5	-69.36081	4.456311E-010	0.0115299	5
	51	71	7.944915	81139.18	-207417.8	1	222723.4	-68.6352	-2.761505E-010	0.0115378	5
	52	73	6.317385	103761.4	-245680.2	1	266693	-67.10356	-3.312056E-011	0.01155	5
	53	75	5.008013	131750.2	-289936.1	1	318466.8	-65.56242	3.690353E-010	0.0115433	5
	54	77	3.945707	166797.3	-341453.1	1	380015.2	-63.96483	3.847317E-011	0.0115241	5
	55	80	3.158693	207270.3	-394710.7	1	445822.3	-62.29517	3.532841E-010	0.0115365	5
	56	83	2.504006	257552.2	-454586.2	1	522476.5	-60.46567	5.85744E-011	0.0115414	5
	57	86	1.998082	312969.5	-516018.6	1	603510.6	-58.76285	4.534981E-010	0.0115203	5
	58	89	1.584686	380729.9	-586112.3	1	698915.4	-56.99284	9.285803E-011	0.0114809	5
	59	93	1.266892	449744	-657646.1	1	796723.3	-55.63297	3.65003E-010	0.0115383	5
	60	97	0.999041	534069.7	-743576.4	1	915497.8	-54.31241	-1.208275E-010	0.0115129	5
