EXPLAIN
TAG	EISPOT
TITLE	LABEL	Potentiostatic EIS	Test &Identifier
DATE	LABEL	10/18/2019	Date
TIME	LABEL	10:14:08	Time
NOTES	NOTES	1	&Notes...
	
PSTAT	PSTAT	REF600-11020	Potentiostat
VDC	POTEN	0.00000E+000	T	DC &Voltage (V)
FREQINIT	QUANT	1.00000E+006	Initial Fre&q. (Hz)
FREQFINAL	QUANT	1.00000E+000	Final Fre&q. (Hz)
PTSPERDEC	QUANT	1.00000E+001	Points/&decade
VAC	QUANT	2.50000E+001	AC &Voltage (mV rms)
AREA	QUANT	1.00000E-002	&Area (cm^2)
CONDIT	TWOPARAM	T	5.00000E+000	0.00000E+000	Conditionin&g	Time(s)	E(V)
DELAY	TWOPARAM	T	5.00000E+000	0.00000E+000	Init. De&lay	Time(s)	Stab.(mV/s)
SPEED	SELECTOR	0	&Optimize for:
ZGUESS	QUANT	1.00000E+005	E&stimated Z (ohms)
OCVCURVE	TABLE	19
	Pt	T	Vf	Vm	Ach	Over
	#	s	V vs. Ref.	V	V	bits
	0	0.258333	5.97020E-003	5.97020E-003	5.41066E-004	...........
	1	0.516667	5.96832E-003	5.87182E-003	5.40799E-004	...........
	2	0.775	5.95719E-003	5.79990E-003	5.37566E-004	...........
	3	1.03333	5.92681E-003	5.71819E-003	5.39733E-004	...........
	4	1.29167	5.87462E-003	5.67161E-003	5.46199E-004	...........
	5	1.55	5.80927E-003	5.63273E-003	5.38066E-004	...........
	6	1.80833	5.74388E-003	5.60722E-003	5.41833E-004	...........
	7	2.06667	5.68868E-003	5.61702E-003	5.42366E-004	...........
	8	2.325	5.64956E-003	5.63991E-003	5.43899E-004	...........
	9	2.58333	5.62887E-003	5.63402E-003	5.36833E-004	...........
	10	2.84167	5.62398E-003	5.64011E-003	5.35566E-004	...........
	11	3.1	5.62730E-003	5.62070E-003	5.37733E-004	...........
	12	3.35833	5.63099E-003	5.62824E-003	5.47699E-004	...........
	13	3.61667	5.63157E-003	5.63089E-003	5.40533E-004	...........
	14	3.875	5.63028E-003	5.63313E-003	5.46799E-004	...........
	15	4.13333	5.62925E-003	5.61263E-003	5.40599E-004	...........
	16	4.39167	5.62796E-003	5.61534E-003	5.36799E-004	...........
	17	4.65	5.62450E-003	5.59242E-003	5.34200E-004	...........
	18	4.90833	5.61856E-003	5.61682E-003	5.31533E-004	...........
EOC	QUANT	0.0056186	Open Circuit (V)
PSTATMODEL	IQUANT	4	Pstat Model
PSTATSECTION	LABEL	REF600-11020	Pstat Section
PSTATSERIALNO	LABEL	11020	Pstat Serial Number
CTRLMODE	IQUANT	1	Control Mode
IESTAB	IQUANT	0	I/E Stability
CASPEED	IQUANT	1	Control Amp Speed
CONVENTION	IQUANT	1	Current Convention
ICHRANGE	IQUANT	2	Ich Range
ICHRANGEMODE	TOGGLE	F	Ich Auto Range
ICHOFFSETENABLE	TOGGLE	T	Ich Offset Enable
ICHOFFSET	QUANT	0	Ich Offset (V)
ICHFILTER	IQUANT	3	Ich Filter
VCHRANGE	IQUANT	2	Vch Range
VCHRANGEMODE	TOGGLE	F	Vch Auto Range
VCHOFFSETENABLE	TOGGLE	T	Vch Offset Enable
VCHOFFSET	QUANT	0	Vch Offset (V)
VCHFILTER	IQUANT	3	Vch Filter
ACHRANGE	IQUANT	2	Ach Range
ACHOFFSETENABLE	TOGGLE	F	Ach Offset Enable
ACHOFFSET	QUANT	0	Ach Offset (V)
ACHFILTER	IQUANT	3	Ach Filter
IERANGELOWERLIMIT	IQUANT	1	I/E Range Lower Limit
IERANGEMODE	TOGGLE	F	I/E AutoRange
IERANGE	IQUANT	5	I/E Range
POSFEEDENABLE	TOGGLE	F	Positive Feedback IR Comp
POSFEEDRESISTANCE	QUANT	0	Positive Feedback Resistance (ohm)
ACHSELECT	IQUANT	0	Ach Select
CABLEID	IQUANT	14	Cable ID
DCCALDATE	LABEL	8/19/2019	DC Calibration Date
ACCALDATE	LABEL	8/19/2019	AC Calibration Date
THERMOSELECT	IQUANT	1	Thermo Select
FRAMEWORKVERSION	QUANT	6.33	Framework Version
INSTRUMENTVERSION	LABEL	3.50	Instrument Version
ZCURVE	TABLE
	Pt	Time	Freq	Zreal	Zimag	Zsig	Zmod	Zphz	Idc	Vdc	IERange
	#	s	Hz	ohm	ohm	V	ohm	°	A	V	#
	0	1	1000078	2715.004	-2010.956	1	3378.637	-36.5267	4.608108E-006	0.0068612	8
	1	1	794390.6	3155.437	-1984.195	1	3727.441	-32.16241	-5.778762E-006	0.0080289	8
	2	2	630984.4	3543.777	-1853.556	1	3999.253	-27.61161	6.052644E-006	0.0063687	8
	3	2	501234.4	3852.735	-1674.507	1	4200.897	-23.49113	2.351791E-006	0.00655	8
	4	2	398109.4	4123.317	-1531.96	1	4398.709	-20.38183	3.966917E-006	0.0064544	8
	5	3	316265.6	4332.806	-1302.253	1	4524.276	-16.72849	-4.800339E-006	0.0081742	8
	6	3	251203.1	4497.795	-1138.469	1	4639.641	-14.20422	-2.280072E-007	0.0071021	8
	7	3	199546.9	4631.394	-967.257	1	4731.321	-11.79654	1.209328E-006	0.0068231	8
	8	4	158578.1	4703.348	-836.8926	1	4777.225	-10.08936	1.513704E-006	0.0069459	8
	9	4	125953.1	4808.334	-650.3627	1	4852.118	-7.702929	6.072601E-007	0.0057644	7
	10	4	100078.1	4843.392	-588.7816	1	4879.048	-6.93109	4.2044E-008	0.0070281	7
	11	5	79453.13	4889.565	-541.4347	1	4919.451	-6.318773	4.418179E-008	0.0070242	7
	12	5	63140.62	4930.23	-505.0463	1	4956.031	-5.848902	-2.213505E-008	0.0071253	7
	13	5	50203.12	4968.115	-485.6187	1	4991.792	-5.582759	-1.54326E-008	0.0072081	7
	14	6	39890.62	5007.615	-477.517	1	5030.331	-5.44715	4.10798E-008	0.0070131	7
	15	6	31640.63	5047.227	-484.0911	1	5070.389	-5.478611	1.020687E-008	0.0069799	7
	16	6	25171.88	5087.736	-499.9422	1	5112.241	-5.612105	-1.898463E-008	0.0070293	7
	17	7	20015.62	5146.161	-541.3804	1	5174.559	-6.005475	1.387165E-007	0.0068478	7
	18	7	15890.62	5174.909	-574.3511	1	5206.684	-6.333206	8.477169E-008	0.0068818	7
	19	7	12609.37	5224.386	-629.8969	1	5262.222	-6.874887	-4.711034E-008	0.0071546	7
	20	7	10078.13	5270.857	-704.6518	1	5317.75	-7.614624	-1.951906E-008	0.007026	7
	21	8	8015.625	5342.758	-816.5826	1	5404.801	-8.68979	6.411888E-008	0.0069627	7
	22	8	6328.125	5385.644	-915.536	1	5462.908	-9.6478	-4.603676E-008	0.007089	7
	23	8	5015.625	5446.172	-1061.258	1	5548.609	-11.02665	1.260248E-008	0.0069769	7
	24	9	3984.375	5518.429	-1228.914	1	5653.608	-12.55449	-4.197682E-008	0.0070856	7
	25	9	3170.956	5590.488	-1459.604	1	5777.889	-14.63253	9.225711E-008	0.0069978	7
	26	9	2527.573	5676.164	-1730.344	1	5934.048	-16.95352	4.419117E-008	0.0070092	7
	27	10	1976.103	5786.506	-2093.781	1	6153.664	-19.89207	-5.849625E-008	0.0072317	7
	28	10	1577.524	5808.428	-2555.909	1	6345.905	-23.75115	-3.395451E-008	0.007078	7
	29	11	1265.625	6030.706	-2978.4	1	6726.089	-26.2835	-2.009716E-008	0.00711	7
	30	11	998.264	6202.16	-3602.287	1	7172.395	-30.14852	-8.299093E-008	0.0071848	7
	31	11	796.875	6378.588	-4336.415	1	7713.033	-34.2094	-3.61465E-008	0.0070664	7
	32	12	627.7902	6612.742	-5281.361	1	8462.927	-38.61311	-3.588243E-008	0.0070685	7
	33	12	505.5147	6855.758	-6318.512	1	9323.358	-42.66478	6.307513E-008	0.0069362	7
	34	12	397.9953	7172.182	-7735.166	1	10548.6	-47.16278	1.576662E-009	0.0070056	6
	35	13	315.5048	7539.004	-9431.555	1	12074.39	-51.36331	7.595563E-010	0.0070044	6
	36	13	252.4038	7962.662	-11432.58	1	13932.26	-55.14324	1.438591E-009	0.0070037	6
	37	13	198.6229	8523.596	-14076.14	1	16455.68	-58.80362	3.146171E-010	0.0070023	6
	38	13	158.3615	9200.021	-17158	1	19468.88	-61.80005	-5.796466E-010	0.0070005	6
	39	14	125.558	10083.92	-21014.77	1	23308.93	-64.36602	6.82486E-010	0.0070024	6
	40	14	100.4464	11122.46	-25597.43	1	27909.45	-66.51434	3.340504E-010	0.0069983	6
	41	14	79.00281	12550.9	-31510.5	1	33918.09	-68.28218	1.67295E-009	0.0069944	6
	42	15	63.3446	15176.47	-37989.76	1	40909.01	-68.22385	2.338589E-010	0.0069974	6
	43	15	49.86702	17533.96	-46908.96	1	50078.84	-69.50491	2.067442E-010	0.0069971	6
	44	16	39.72458	20259.51	-56753.87	1	60261.52	-70.35489	5.418683E-011	0.0070028	6
	45	16	31.6723	24023.71	-69061.2	1	73120.36	-70.8192	1.121541E-009	0.0069977	6
	46	16	24.93351	30089.36	-83913.64	1	89145.21	-70.27342	-3.119723E-011	0.0070002	6
	47	17	19.86229	37053.89	-101031.6	1	107612.2	-69.85921	-1.445188E-009	0.0070038	5
	48	17	15.83615	46092.66	-120216.1	1	128749.6	-69.02243	5.212881E-010	0.0070112	5
	49	17	12.40079	59457.3	-143122.9	1	154981.7	-67.44061	-2.456586E-009	0.007018	5
	50	18	9.93114	74419.47	-171437.5	1	186893.2	-66.53477	3.821601E-010	0.0070157	5
	51	18	7.944915	92568.08	-200001.6	1	220384.9	-65.16357	1.180811E-009	0.0070041	5
	52	19	6.317385	116733.6	-233089.1	1	260686.2	-63.39778	7.223541E-010	0.0069974	5
	53	19	5.008013	146003.4	-270138.7	1	307069.9	-61.60986	3.443092E-010	0.0070048	5
	54	21	3.945707	180466.5	-310229.4	1	358901.7	-59.8126	3.327027E-012	0.0070083	5
	55	22	3.158693	216201.5	-353006.7	1	413952.7	-58.51432	-1.043728E-010	0.0070041	5
	56	24	2.504006	258625.1	-400509.8	1	476754.7	-57.14806	3.105088E-011	0.0069986	5
	57	25	1.998082	303535.6	-452086.4	1	544532.9	-56.12217	2.026154E-010	0.0070379	5
	58	26	1.584686	352446.8	-510444.7	1	620300.4	-55.37608	5.268648E-011	0.0069987	5
	59	28	1.266892	405569.7	-575844.9	1	704332.4	-54.84283	-1.879482E-011	0.0069667	5
	60	31	0.999041	465963.7	-658310.1	1	806532.3	-54.70846	-6.15732E-011	0.0069632	5
