EXPLAIN
TAG	EISPOT
TITLE	LABEL	Potentiostatic EIS	Test &Identifier
DATE	LABEL	11/27/2019	Date
TIME	LABEL	13:58:44	Time
NOTES	NOTES	3	&Notes...
	
	
	
PSTAT	PSTAT	REF600-11020	Potentiostat
VDC	POTEN	0.00000E+000	T	DC &Voltage (V)
FREQINIT	QUANT	1.00000E+006	Initial Fre&q. (Hz)
FREQFINAL	QUANT	1.00000E+000	Final Fre&q. (Hz)
PTSPERDEC	QUANT	1.00000E+001	Points/&decade
VAC	QUANT	2.50000E+001	AC &Voltage (mV rms)
AREA	QUANT	1.00000E-002	&Area (cm^2)
CONDIT	TWOPARAM	T	5.00000E+000	0.00000E+000	Conditionin&g	Time(s)	E(V)
DELAY	TWOPARAM	T	5.00000E+000	0.00000E+000	Init. De&lay	Time(s)	Stab.(mV/s)
SPEED	SELECTOR	0	&Optimize for:
ZGUESS	QUANT	1.00000E+005	E&stimated Z (ohms)
OCVCURVE	TABLE	19
	Pt	T	Vf	Vm	Ach	Over
	#	s	V vs. Ref.	V	V	bits
	0	0.258333	5.14299E-002	5.14299E-002	5.49433E-004	...........
	1	0.516667	5.15102E-002	5.56361E-002	5.46799E-004	...........
	2	0.775	5.20015E-002	5.95084E-002	5.52632E-004	...........
	3	1.03333	5.33811E-002	6.30800E-002	5.48866E-004	...........
	4	1.29167	5.58208E-002	6.63778E-002	5.50333E-004	...........
	5	1.55	5.90103E-002	6.94574E-002	5.48599E-004	...........
	6	1.80833	6.24693E-002	7.23684E-002	5.49533E-004	...........
	7	2.06667	6.58595E-002	7.50814E-002	5.51599E-004	...........
	8	2.325	6.90413E-002	7.75906E-002	5.50933E-004	...........
	9	2.58333	7.19933E-002	8.00002E-002	5.51566E-004	...........
	10	2.84167	7.47367E-002	8.22322E-002	5.55333E-004	...........
	11	3.1	7.72987E-002	8.43047E-002	5.56266E-004	...........
	12	3.35833	7.96995E-002	8.63282E-002	5.55099E-004	...........
	13	3.61667	8.19549E-002	8.82388E-002	5.52766E-004	...........
	14	3.875	8.40835E-002	9.00678E-002	5.57066E-004	...........
	15	4.13333	8.61025E-002	9.17534E-002	5.45599E-004	...........
	16	4.39167	8.80198E-002	9.33510E-002	5.46466E-004	...........
	17	4.65	8.98354E-002	9.48780E-002	5.52532E-004	...........
	18	4.90833	9.15505E-002	9.63516E-002	5.52166E-004	...........
EOC	QUANT	0.0915505	Open Circuit (V)
PSTATMODEL	IQUANT	4	Pstat Model
PSTATSECTION	LABEL	REF600-11020	Pstat Section
PSTATSERIALNO	LABEL	11020	Pstat Serial Number
CTRLMODE	IQUANT	1	Control Mode
IESTAB	IQUANT	0	I/E Stability
CASPEED	IQUANT	1	Control Amp Speed
CONVENTION	IQUANT	1	Current Convention
ICHRANGE	IQUANT	2	Ich Range
ICHRANGEMODE	TOGGLE	F	Ich Auto Range
ICHOFFSETENABLE	TOGGLE	T	Ich Offset Enable
ICHOFFSET	QUANT	0	Ich Offset (V)
ICHFILTER	IQUANT	3	Ich Filter
VCHRANGE	IQUANT	2	Vch Range
VCHRANGEMODE	TOGGLE	F	Vch Auto Range
VCHOFFSETENABLE	TOGGLE	T	Vch Offset Enable
VCHOFFSET	QUANT	0	Vch Offset (V)
VCHFILTER	IQUANT	3	Vch Filter
ACHRANGE	IQUANT	2	Ach Range
ACHOFFSETENABLE	TOGGLE	F	Ach Offset Enable
ACHOFFSET	QUANT	0	Ach Offset (V)
ACHFILTER	IQUANT	3	Ach Filter
IERANGELOWERLIMIT	IQUANT	1	I/E Range Lower Limit
IERANGEMODE	TOGGLE	F	I/E AutoRange
IERANGE	IQUANT	6	I/E Range
POSFEEDENABLE	TOGGLE	F	Positive Feedback IR Comp
POSFEEDRESISTANCE	QUANT	0	Positive Feedback Resistance (ohm)
ACHSELECT	IQUANT	0	Ach Select
CABLEID	IQUANT	14	Cable ID
DCCALDATE	LABEL	8/19/2019	DC Calibration Date
ACCALDATE	LABEL	8/19/2019	AC Calibration Date
THERMOSELECT	IQUANT	1	Thermo Select
FRAMEWORKVERSION	QUANT	6.33	Framework Version
INSTRUMENTVERSION	LABEL	3.50	Instrument Version
ZCURVE	TABLE
	Pt	Time	Freq	Zreal	Zimag	Zsig	Zmod	Zphz	Idc	Vdc	IERange
	#	s	Hz	ohm	ohm	V	ohm	°	A	V	#
	0	1	1000078	1954.162	-1742.863	1	2618.458	-41.7289	-1.691379E-006	0.0932966	8
	1	1	794390.6	2283.854	-1800.141	1	2908.006	-38.24529	2.774899E-006	0.093696	8
	2	1	630984.4	2634.827	-1821.643	1	3203.232	-34.65886	-1.357871E-006	0.0928703	8
	3	2	501234.4	2982.798	-1795.68	1	3481.602	-31.04844	6.080138E-006	0.092366	8
	4	2	398109.4	3293.035	-1739.994	1	3724.468	-27.85135	-6.18456E-006	0.0938879	8
	5	2	316265.6	3586.083	-1642.825	1	3944.473	-24.61304	-2.746967E-007	0.0927515	8
	6	3	251203.1	3868.389	-1536.228	1	4162.263	-21.65919	-2.038428E-006	0.0931882	8
	7	3	199546.9	4081.928	-1417.804	1	4321.146	-19.154	6.330702E-006	0.0923213	8
	8	3	158578.1	4298.616	-1288.351	1	4487.533	-16.68415	-2.090813E-006	0.093184	8
	9	4	125953.1	4466.766	-1118.091	1	4604.576	-14.05314	-1.033631E-006	0.0942354	7
	10	4	100078.1	4623.847	-1028.475	1	4736.847	-12.54007	5.964399E-007	0.0931687	7
	11	4	79453.13	4742.32	-948.9787	1	4836.338	-11.31591	4.344959E-007	0.0914082	7
	12	5	63140.62	4849.654	-893.3893	1	4931.256	-10.43784	1.052128E-006	0.0918749	7
	13	5	50203.12	4941.465	-848.9445	1	5013.859	-9.74826	9.78781E-007	0.0922715	7
	14	5	39890.62	5017.972	-818.9461	1	5084.36	-9.269102	3.832764E-007	0.0934793	7
	15	6	31640.63	5105.364	-809.7761	1	5169.185	-9.012764	8.10991E-007	0.0927381	7
	16	6	25171.88	5185.931	-816.2162	1	5249.771	-8.944436	9.226609E-007	0.0913528	7
	17	6	20015.62	5244.417	-837.215	1	5310.822	-9.070126	-1.177516E-006	0.094049	7
	18	7	15890.62	5333.091	-881.7774	1	5405.496	-9.388391	-1.044803E-006	0.0945511	7
	19	7	12609.37	5426.604	-940.0745	1	5507.429	-9.82806	-7.236213E-007	0.0928678	7
	20	7	10078.13	5543.694	-1014.053	1	5635.676	-10.36594	3.861643E-007	0.0934807	7
	21	7	8015.625	5636.514	-1116.318	1	5745.994	-11.20252	-2.649791E-007	0.094265	7
	22	8	6328.125	5779.317	-1242.127	1	5911.293	-12.12984	9.786747E-007	0.0922676	7
	23	8	5015.625	5899.179	-1381.07	1	6058.686	-13.17634	-5.823348E-007	0.0945058	7
	24	9	3984.375	6046.02	-1539.35	1	6238.906	-14.28433	-1.019316E-006	0.0935084	7
	25	9	3170.956	6221.215	-1732.802	1	6458.028	-15.56417	-2.667621E-007	0.094271	7
	26	9	2527.573	6394.442	-1948.715	1	6684.788	-16.94867	-2.611025E-007	0.0942739	7
	27	10	1976.103	6610.036	-2214.885	1	6971.247	-18.52493	8.087583E-008	0.091687	7
	28	10	1577.524	6831.525	-2539.734	1	7288.345	-20.39346	3.875195E-007	0.0934784	7
	29	11	1265.625	7028.108	-2839.891	1	7580.19	-22.00246	7.308634E-008	0.091683	7
	30	11	998.264	7280.534	-3285.526	1	7987.544	-24.28849	1.036599E-006	0.0915474	7
	31	11	796.875	7506.127	-3774.319	1	8401.633	-26.6947	7.247677E-007	0.0912716	7
	32	12	627.7902	7752.614	-4431.413	1	8929.75	-29.75239	9.870258E-007	0.0922567	7
	33	12	505.5147	7985.709	-5137.107	1	9495.337	-32.75267	-1.180272E-006	0.0943871	7
	34	12	397.9953	8275.676	-6157.34	1	10315.02	-36.65031	1.936121E-010	0.0930019	7
	35	13	315.5048	8589.449	-7385.072	1	11327.75	-40.68842	-1.934393E-009	0.0929517	6
	36	13	252.4038	8938.708	-8855.062	1	12582.23	-44.73066	-2.738922E-009	0.0929455	6
	37	13	198.6229	9392.477	-10810.52	1	14320.83	-49.015	-2.663887E-009	0.0929466	6
	38	14	158.3615	9927.01	-13112.53	1	16446.4	-52.87198	-2.776786E-009	0.0929384	6
	39	14	125.558	10629.84	-16003.27	1	19211.92	-56.40673	-1.753579E-009	0.0929397	6
	40	14	100.4464	11484.78	-19422.26	1	22563.78	-59.4033	-2.998938E-009	0.0929292	6
	41	15	79.00281	12660.41	-23861.04	1	27011.76	-62.05006	-2.281714E-009	0.0929281	6
	42	15	63.3446	14495.71	-28770.44	1	32215.9	-63.2592	-1.867347E-009	0.0929275	6
	43	15	49.86702	16499.39	-35349.07	1	39010.09	-64.97891	-2.078701E-009	0.0929249	6
	44	16	39.72458	18926.55	-42657.15	1	46667.41	-66.07362	-2.933302E-009	0.092932	6
	45	16	31.6723	22128.54	-51386.02	1	55948.15	-66.70167	-2.694461E-009	0.0929398	6
	46	16	24.93351	26930.38	-62465.34	1	68023.27	-66.67791	-2.580563E-009	0.0929338	6
	47	17	19.86229	32764.11	-74613.02	1	81489.81	-66.29274	-2.651452E-009	0.0929396	6
	48	17	15.83615	39849.83	-87612.17	1	96249.2	-65.54189	-3.756282E-009	0.0929281	6
	49	17	12.40079	49476.2	-105036.5	1	116105.8	-64.77778	-4.680173E-010	0.0929434	5
	50	18	9.93114	61236.65	-123186.7	1	137567.7	-63.56782	-1.593361E-009	0.0929323	5
	51	18	7.944915	74563.98	-142916.7	1	161198.5	-62.44758	-2.669599E-009	0.0929501	5
	52	19	6.317385	89762.99	-165376.9	1	188167.3	-61.50785	-2.671423E-009	0.0929555	5
	53	20	5.008013	107966.9	-190874.1	1	219293.8	-60.50556	-2.274044E-009	0.0929313	5
	54	21	3.945707	128056.6	-220123.1	1	254661.9	-59.8113	-1.987387E-009	0.0929396	5
	55	22	3.158693	148873.7	-251933.3	1	292632.5	-59.42009	-1.802999E-009	0.0929546	5
	56	24	2.504006	172867.1	-290699	1	338214.4	-59.26174	-1.804505E-009	0.0929413	5
	57	25	1.998082	197100.5	-335691.4	1	389278	-59.58077	-1.824401E-009	0.0929243	5
	58	27	1.584686	227145.1	-390439.1	1	451705.2	-59.81051	-1.632011E-009	0.0929708	5
	59	28	1.266892	260371.8	-455753.4	1	524885.3	-60.26069	-1.532232E-009	0.0929759	5
	60	31	0.999041	301711.7	-536968.1	1	615925.9	-60.66923	-1.482967E-009	0.0929702	5
