EXPLAIN
TAG	EISPOT
TITLE	LABEL	Potentiostatic EIS	Test &Identifier
DATE	LABEL	9/22/2019	Date
TIME	LABEL	10:12:41	Time
NOTES	NOTES	1	&Notes...
	
PSTAT	PSTAT	REF600-11020	Potentiostat
VDC	POTEN	0.00000E+000	T	DC &Voltage (V)
FREQINIT	QUANT	1.00000E+006	Initial Fre&q. (Hz)
FREQFINAL	QUANT	1.00000E+000	Final Fre&q. (Hz)
PTSPERDEC	QUANT	1.00000E+001	Points/&decade
VAC	QUANT	2.50000E+001	AC &Voltage (mV rms)
AREA	QUANT	1.00000E-002	&Area (cm^2)
CONDIT	TWOPARAM	T	5.00000E+000	0.00000E+000	Conditionin&g	Time(s)	E(V)
DELAY	TWOPARAM	T	5.00000E+000	0.00000E+000	Init. De&lay	Time(s)	Stab.(mV/s)
SPEED	SELECTOR	1	&Optimize for:
ZGUESS	QUANT	1.00000E+004	E&stimated Z (ohms)
OCVCURVE	TABLE	19
	Pt	T	Vf	Vm	Ach	Over
	#	s	V vs. Ref.	V	V	bits
	0	0.258333	-2.11254E-003	-2.11254E-003	5.45866E-004	...........
	1	0.516667	-2.11472E-003	-2.22683E-003	5.44999E-004	...........
	2	0.775	-2.12823E-003	-2.34027E-003	5.44299E-004	...........
	3	1.03333	-2.17324E-003	-2.78842E-003	5.44099E-004	...........
	4	1.29167	-2.28000E-003	-3.07819E-003	5.42766E-004	...........
	5	1.55	-2.47211E-003	-3.47094E-003	5.35499E-004	...........
	6	1.80833	-2.75013E-003	-4.06611E-003	5.40833E-004	...........
	7	2.06667	-3.09783E-003	-4.19991E-003	5.37099E-004	...........
	8	2.325	-3.47825E-003	-4.29177E-003	5.40566E-004	...........
	9	2.58333	-3.82933E-003	-4.51308E-003	5.37899E-004	...........
	10	2.84167	-4.11037E-003	-4.84811E-003	5.41299E-004	...........
	11	3.1	-4.34283E-003	-5.18271E-003	5.37066E-004	...........
	12	3.35833	-4.57893E-003	-5.49798E-003	5.40733E-004	...........
	13	3.61667	-4.84815E-003	-5.76928E-003	5.44633E-004	...........
	14	3.875	-5.14288E-003	-5.98401E-003	5.40299E-004	...........
	15	4.13333	-5.43667E-003	-6.16890E-003	5.39766E-004	...........
	16	4.39167	-5.70689E-003	-6.40085E-003	5.38366E-004	...........
	17	4.65	-5.94734E-003	-6.57626E-003	5.38199E-004	...........
	18	4.90833	-6.16457E-003	-6.74576E-003	5.43733E-004	...........
EOC	QUANT	-0.0061646	Open Circuit (V)
PSTATMODEL	IQUANT	4	Pstat Model
PSTATSECTION	LABEL	REF600-11020	Pstat Section
PSTATSERIALNO	LABEL	11020	Pstat Serial Number
CTRLMODE	IQUANT	1	Control Mode
IESTAB	IQUANT	0	I/E Stability
CASPEED	IQUANT	1	Control Amp Speed
CONVENTION	IQUANT	1	Current Convention
ICHRANGE	IQUANT	2	Ich Range
ICHRANGEMODE	TOGGLE	F	Ich Auto Range
ICHOFFSETENABLE	TOGGLE	T	Ich Offset Enable
ICHOFFSET	QUANT	0	Ich Offset (V)
ICHFILTER	IQUANT	3	Ich Filter
VCHRANGE	IQUANT	2	Vch Range
VCHRANGEMODE	TOGGLE	F	Vch Auto Range
VCHOFFSETENABLE	TOGGLE	T	Vch Offset Enable
VCHOFFSET	QUANT	0	Vch Offset (V)
VCHFILTER	IQUANT	3	Vch Filter
ACHRANGE	IQUANT	2	Ach Range
ACHOFFSETENABLE	TOGGLE	F	Ach Offset Enable
ACHOFFSET	QUANT	0	Ach Offset (V)
ACHFILTER	IQUANT	3	Ach Filter
IERANGELOWERLIMIT	IQUANT	1	I/E Range Lower Limit
IERANGEMODE	TOGGLE	F	I/E AutoRange
IERANGE	IQUANT	6	I/E Range
POSFEEDENABLE	TOGGLE	F	Positive Feedback IR Comp
POSFEEDRESISTANCE	QUANT	0	Positive Feedback Resistance (ohm)
ACHSELECT	IQUANT	0	Ach Select
CABLEID	IQUANT	14	Cable ID
DCCALDATE	LABEL	8/19/2019	DC Calibration Date
ACCALDATE	LABEL	8/19/2019	AC Calibration Date
THERMOSELECT	IQUANT	1	Thermo Select
FRAMEWORKVERSION	QUANT	6.33	Framework Version
INSTRUMENTVERSION	LABEL	3.50	Instrument Version
ZCURVE	TABLE
	Pt	Time	Freq	Zreal	Zimag	Zsig	Zmod	Zphz	Idc	Vdc	IERange
	#	s	Hz	ohm	ohm	V	ohm	°	A	V	#
	0	1	1000078	2294.654	-2155.636	1	3148.365	-43.21078	-1.423896E-006	-0.0042132	8
	1	2	794390.6	2693.146	-2237.532	1	3501.369	-39.72063	-1.091834E-006	-0.0040626	8
	2	4	630984.4	3135.544	-2282.21	1	3878.159	-36.04906	5.137621E-006	-0.0054594	8
	3	5	501234.4	3522.358	-2298.953	1	4206.208	-33.13145	-4.395056E-006	-0.0038787	8
	4	7	398109.4	3953.262	-2222.014	1	4534.935	-29.33908	-2.920663E-006	-0.00395	8
	5	8	316265.6	4353.052	-2141.603	1	4851.343	-26.19613	3.804876E-006	-0.0053417	8
	6	9	251203.1	4706.231	-1978.357	1	5105.145	-22.80041	9.582359E-007	-0.0048834	8
	7	11	199546.9	5060.301	-1822.709	1	5378.561	-19.80891	-1.447069E-006	-0.0043932	8
	8	12	158578.1	5295.132	-1659.873	1	5549.198	-17.40472	-3.63657E-006	-0.0038156	8
	9	14	125953.1	5557.47	-1425.826	1	5737.46	-14.38946	-3.790634E-007	-0.0039609	7
	10	15	100078.1	5722.342	-1278.762	1	5863.483	-12.59682	-4.103294E-008	-0.0047116	7
	11	16	79453.13	5869.499	-1153.715	1	5981.812	-11.12035	-2.501113E-009	-0.0046867	7
	12	18	63140.62	5986.68	-1047.084	1	6077.559	-9.92081	4.330666E-008	-0.004873	7
	13	19	50203.12	6088.472	-965.77	1	6164.593	-9.013315	4.895852E-008	-0.0047919	7
	14	21	39890.62	6171.52	-906.5895	1	6237.753	-8.356917	-3.408701E-008	-0.0046695	7
	15	22	31640.63	6252.91	-865.9008	1	6312.58	-7.884158	-2.405827E-009	-0.0047005	7
	16	23	25171.88	6324.782	-849.2435	1	6381.542	-7.6475	-4.084748E-008	-0.0047201	7
	17	25	20015.62	6399.29	-857.1388	1	6456.438	-7.62895	9.309127E-008	-0.0047932	7
	18	26	15890.62	6468.09	-877.6484	1	6527.362	-7.727212	-4.371787E-008	-0.0047142	7
	19	27	12609.37	6544.286	-927.4728	1	6609.681	-8.066383	-6.4814E-008	-0.004663	7
	20	29	10078.13	6624.742	-991.973	1	6698.598	-8.516061	-4.075918E-008	-0.0047277	7
	21	30	8015.625	6710.514	-1083.721	1	6797.459	-9.173828	-4.080247E-008	-0.0046347	7
	22	32	6328.125	6802.458	-1207.732	1	6908.839	-10.06759	4.200241E-008	-0.0048837	7
	23	33	5015.625	6905.889	-1358.514	1	7038.243	-11.12902	5.114586E-008	-0.0048016	7
	24	34	3984.375	7016.471	-1547.93	1	7185.19	-12.44096	-4.572861E-008	-0.0047196	7
	25	36	3170.956	7139.464	-1770.388	1	7355.693	-13.92684	9.5906E-008	-0.0048135	7
	26	37	2527.573	7274.594	-2039.237	1	7555.012	-15.65942	8.555239E-008	-0.0049245	7
	27	38	1976.103	7434.987	-2393.706	1	7810.817	-17.84605	1.213131E-008	-0.0048019	7
	28	40	1577.524	7600.609	-2797.234	1	8098.999	-20.20501	-5.487376E-008	-0.0045495	7
	29	41	1265.625	7789.494	-3258.48	1	8443.571	-22.7004	1.260089E-007	-0.0049203	7
	30	43	998.264	7996.768	-3871.218	1	8884.516	-25.83152	-5.096955E-008	-0.0046732	7
	31	44	796.875	8231.119	-4572.286	1	9415.791	-29.05163	1.210336E-008	-0.0048482	6
	32	45	627.7902	8511.617	-5486.258	1	10126.53	-32.80426	-8.041405E-009	-0.0047197	6
	33	47	505.5147	8794.85	-6504.677	1	10938.93	-36.48666	-4.766466E-009	-0.0048046	6
	34	48	397.9953	9161.8	-7866.066	1	12075.33	-40.64847	1.527192E-009	-0.0047744	6
	35	49	315.5048	9575.11	-9497.887	1	13486.76	-44.76802	5.675415E-010	-0.0047758	6
	36	51	252.4038	10040.53	-11415.72	1	15202.99	-48.66723	6.523661E-010	-0.0047778	6
	37	52	198.6229	10638.63	-13947.57	1	17541.81	-52.6651	1.020365E-009	-0.0047777	6
	38	53	158.3615	11319.9	-16894.29	1	20336.1	-56.17622	1.073014E-009	-0.0047807	6
	39	55	125.558	12191.56	-20592.67	1	23930.99	-59.37304	1.177164E-009	-0.0047699	6
	40	56	100.4464	13231.84	-24921.84	1	28216.65	-62.03466	1.671272E-009	-0.0047812	6
	41	58	79.00281	14678.66	-30659.17	1	33991.87	-64.41635	1.645079E-009	-0.0047826	6
	42	59	63.3446	16549.2	-37353.61	1	40855.45	-66.10467	6.720374E-010	-0.0047866	6
	43	60	49.86702	18413.97	-45602.41	1	49179.82	-68.01144	5.997624E-010	-0.0047805	6
	44	62	39.72458	21501.91	-55458.19	1	59480.61	-68.808	1.114284E-009	-0.0047754	6
	45	63	31.6723	25223.18	-67038.81	1	71626.89	-69.38132	1.756908E-009	-0.0047791	6
	46	65	24.93351	30634.76	-82150.26	1	87676.41	-69.54894	7.564339E-010	-0.0047859	6
	47	66	19.86229	37218.12	-99031	1	105793.8	-69.40263	1.328157E-009	-0.004779	5
	48	67	15.83615	45173.7	-119474	1	127729	-69.28815	2.184202E-009	-0.0047776	5
	49	69	12.40079	57926.88	-145029.7	1	156170.3	-68.22755	1.399964E-009	-0.0047755	5
	50	70	9.93114	72037.2	-170954.1	1	185511.9	-67.15026	8.12403E-010	-0.0047675	5
	51	72	7.944915	90610.07	-201536.1	1	220968.3	-65.79145	9.591351E-010	-0.0047714	5
	52	74	6.317385	114300.9	-236160.7	1	262367.3	-64.17319	2.209117E-010	-0.0047648	5
	53	76	5.008013	144185.5	-275517.8	1	310965.5	-62.37578	3.351017E-010	-0.0047779	5
	54	78	3.945707	181964.1	-319268.8	1	367482.6	-60.31945	6.45635E-010	-0.0047708	5
	55	81	3.158693	223378.7	-362731.4	1	425995.4	-58.37424	6.293902E-010	-0.0047792	5
	56	84	2.504006	273460	-410730.3	1	493436.7	-56.34473	4.011648E-010	-0.0047677	5
	57	87	1.998082	327768.5	-458330.3	1	563470.4	-54.43008	7.793007E-010	-0.0048155	5
	58	90	1.584686	389157.2	-511316.1	1	642563.2	-52.72563	3.898041E-010	-0.0047928	5
	59	94	1.266892	453805.5	-562604.9	1	722816.5	-51.10984	6.704922E-010	-0.0048179	5
	60	98	0.999041	525233.6	-623140.6	1	814969	-49.87308	5.405769E-010	-0.0047361	5
