EXPLAIN
TAG	EISPOT
TITLE	LABEL	Potentiostatic EIS	Test &Identifier
DATE	LABEL	11/12/2019	Date
TIME	LABEL	22:50:26	Time
NOTES	NOTES	3	&Notes...
	
	
	
PSTAT	PSTAT	REF600-11020	Potentiostat
VDC	POTEN	0.00000E+000	T	DC &Voltage (V)
FREQINIT	QUANT	1.00000E+006	Initial Fre&q. (Hz)
FREQFINAL	QUANT	1.00000E+000	Final Fre&q. (Hz)
PTSPERDEC	QUANT	1.00000E+001	Points/&decade
VAC	QUANT	2.50000E+001	AC &Voltage (mV rms)
AREA	QUANT	1.00000E-002	&Area (cm^2)
CONDIT	TWOPARAM	T	5.00000E+000	0.00000E+000	Conditionin&g	Time(s)	E(V)
DELAY	TWOPARAM	T	5.00000E+000	0.00000E+000	Init. De&lay	Time(s)	Stab.(mV/s)
SPEED	SELECTOR	1	&Optimize for:
ZGUESS	QUANT	1.00000E+005	E&stimated Z (ohms)
OCVCURVE	TABLE	19
	Pt	T	Vf	Vm	Ach	Over
	#	s	V vs. Ref.	V	V	bits
	0	0.258333	5.30972E-003	5.30972E-003	5.34466E-004	...........
	1	0.516667	5.30879E-003	5.26092E-003	5.28900E-004	...........
	2	0.775	5.30327E-003	5.22541E-003	5.29499E-004	...........
	3	1.03333	5.28874E-003	5.21255E-003	5.32666E-004	...........
	4	1.29167	5.26601E-003	5.20877E-003	5.27900E-004	...........
	5	1.55	5.24197E-003	5.20596E-003	5.31100E-004	...........
	6	1.80833	5.22353E-003	5.21290E-003	5.28466E-004	...........
	7	2.06667	5.21288E-003	5.19588E-003	5.27966E-004	...........
	8	2.325	5.20827E-003	5.22671E-003	5.27266E-004	...........
	9	2.58333	5.20815E-003	5.24126E-003	5.29999E-004	...........
	10	2.84167	5.21344E-003	5.26335E-003	5.28833E-004	...........
	11	3.1	5.22483E-003	5.27424E-003	5.31600E-004	...........
	12	3.35833	5.24026E-003	5.28204E-003	5.28466E-004	...........
	13	3.61667	5.25609E-003	5.28902E-003	5.34099E-004	...........
	14	3.875	5.26955E-003	5.29269E-003	5.26500E-004	...........
	15	4.13333	5.28023E-003	5.32466E-003	5.27000E-004	...........
	16	4.39167	5.29100E-003	5.36700E-003	5.29466E-004	...........
	17	4.65	5.30779E-003	5.44955E-003	5.32633E-004	...........
	18	4.90833	5.33600E-003	5.44698E-003	5.24066E-004	...........
EOC	QUANT	0.005336	Open Circuit (V)
PSTATMODEL	IQUANT	4	Pstat Model
PSTATSECTION	LABEL	REF600-11020	Pstat Section
PSTATSERIALNO	LABEL	11020	Pstat Serial Number
CTRLMODE	IQUANT	1	Control Mode
IESTAB	IQUANT	0	I/E Stability
CASPEED	IQUANT	1	Control Amp Speed
CONVENTION	IQUANT	1	Current Convention
ICHRANGE	IQUANT	2	Ich Range
ICHRANGEMODE	TOGGLE	F	Ich Auto Range
ICHOFFSETENABLE	TOGGLE	T	Ich Offset Enable
ICHOFFSET	QUANT	0	Ich Offset (V)
ICHFILTER	IQUANT	3	Ich Filter
VCHRANGE	IQUANT	2	Vch Range
VCHRANGEMODE	TOGGLE	F	Vch Auto Range
VCHOFFSETENABLE	TOGGLE	T	Vch Offset Enable
VCHOFFSET	QUANT	0	Vch Offset (V)
VCHFILTER	IQUANT	3	Vch Filter
ACHRANGE	IQUANT	2	Ach Range
ACHOFFSETENABLE	TOGGLE	F	Ach Offset Enable
ACHOFFSET	QUANT	0	Ach Offset (V)
ACHFILTER	IQUANT	3	Ach Filter
IERANGELOWERLIMIT	IQUANT	1	I/E Range Lower Limit
IERANGEMODE	TOGGLE	F	I/E AutoRange
IERANGE	IQUANT	5	I/E Range
POSFEEDENABLE	TOGGLE	F	Positive Feedback IR Comp
POSFEEDRESISTANCE	QUANT	0	Positive Feedback Resistance (ohm)
ACHSELECT	IQUANT	0	Ach Select
CABLEID	IQUANT	14	Cable ID
DCCALDATE	LABEL	8/19/2019	DC Calibration Date
ACCALDATE	LABEL	8/19/2019	AC Calibration Date
THERMOSELECT	IQUANT	1	Thermo Select
FRAMEWORKVERSION	QUANT	6.33	Framework Version
INSTRUMENTVERSION	LABEL	3.50	Instrument Version
ZCURVE	TABLE
	Pt	Time	Freq	Zreal	Zimag	Zsig	Zmod	Zphz	Idc	Vdc	IERange
	#	s	Hz	ohm	ohm	V	ohm	°	A	V	#
	0	1	1000078	1925.156	-1640.701	1	2529.451	-40.43906	8.739534E-009	0.0080967	8
	1	2	794390.6	2197.197	-1702.895	1	2779.842	-37.77678	8.137893E-006	0.006281	8
	2	4	630984.4	2476.442	-1765.106	1	3041.112	-35.47971	-2.521644E-006	0.006685	8
	3	5	501234.4	2761.868	-1823.69	1	3309.647	-33.43719	6.269981E-006	0.0061746	8
	4	6	398109.4	3070.393	-1855.807	1	3587.664	-31.1496	5.986959E-006	0.0061313	8
	5	8	316265.6	3387.294	-1882.731	1	3875.363	-29.06625	-4.54508E-006	0.0071415	8
	6	9	251203.1	3730.866	-1898.305	1	4186.039	-26.96749	-1.080458E-006	0.0071765	8
	7	10	199546.9	4064.781	-1878.51	1	4477.862	-24.80369	5.298099E-006	0.0061638	8
	8	12	158578.1	4385.645	-1791.947	1	4737.611	-22.22462	-5.167519E-006	0.0075518	8
	9	13	125953.1	4764.881	-1680.214	1	5052.446	-19.42389	1.321815E-006	0.0079685	7
	10	15	100078.1	4992.335	-1512.487	1	5216.419	-16.85481	-1.161242E-006	0.0081831	7
	11	16	79453.13	5261.041	-1387.664	1	5440.97	-14.77594	8.169606E-007	0.0064988	7
	12	18	63140.62	5436.753	-1239.624	1	5576.285	-12.84432	-2.458609E-007	0.0080287	7
	13	19	50203.12	5591.731	-1098.868	1	5698.681	-11.11789	-2.45989E-007	0.0080192	7
	14	20	39890.62	5726.597	-970.765	1	5808.296	-9.62124	1.053761E-006	0.0056245	7
	15	22	31640.63	5809.034	-869.8303	1	5873.796	-8.516056	-2.44331E-007	0.0080175	7
	16	23	25171.88	5863.23	-782.4344	1	5915.207	-7.60108	-1.163947E-006	0.0078188	7
	17	24	20015.62	5933.468	-725.4132	1	5977.647	-6.970269	-1.027783E-006	0.0083055	7
	18	26	15890.62	5997.301	-689.8946	1	6036.852	-6.562129	-2.437777E-007	0.0080144	7
	19	28	12609.37	6032.661	-672.812	1	6070.063	-6.363798	6.916019E-008	0.005489	7
	20	29	10078.13	6092.965	-687.4161	1	6131.62	-6.436964	-8.299482E-007	0.0083506	7
	21	31	8015.625	6119.115	-719.825	1	6161.308	-6.709182	-5.618867E-007	0.0082557	7
	22	32	6328.125	6181.151	-777.8157	1	6229.897	-7.172214	8.209439E-007	0.0064811	7
	23	34	5015.625	6212.69	-867.2994	1	6272.937	-7.947202	9.148708E-007	0.0051227	7
	24	35	3984.375	6253.529	-989.18	1	6331.279	-8.988547	7.077872E-007	0.0050594	7
	25	37	3170.956	6290.861	-1141.482	1	6393.584	-10.28447	4.237929E-007	0.0051809	7
	26	38	2527.573	6366.347	-1345.283	1	6506.932	-11.93173	6.162505E-007	0.0068876	7
	27	40	1976.103	6408.984	-1607.55	1	6607.518	-14.08087	-1.027838E-006	0.0083012	7
	28	41	1577.524	6508.458	-1917.187	1	6784.957	-16.41331	1.055071E-006	0.0056196	7
	29	43	1265.625	6596.562	-2302.387	1	6986.817	-19.24044	9.86664E-007	0.00601	7
	30	44	998.264	6675.045	-2780.659	1	7231.065	-22.61541	-3.292905E-007	0.0059853	7
	31	46	796.875	6802.269	-3367.161	1	7590.035	-26.33566	4.211099E-007	0.0051822	7
	32	47	627.7902	6967.706	-4146.146	1	8107.987	-30.75484	8.240632E-007	0.0064764	7
	33	48	505.5147	7112.145	-4983.916	1	8684.585	-35.02129	1.051574E-007	0.0076293	7
	34	50	397.9953	7319.814	-6128.318	1	9546.52	-39.93685	5.450934E-009	0.0067744	7
	35	51	315.5048	7574.768	-7513.273	1	10668.94	-44.76648	7.704857E-010	0.0067058	6
	36	52	252.4038	7873.283	-9153.976	1	12074.1	-49.30136	3.741598E-010	0.0067039	6
	37	54	198.6229	8275.577	-11326.83	1	14027.91	-53.8475	1.004943E-009	0.0067093	6
	38	55	158.3615	8763.049	-13863.62	1	16400.95	-57.70345	1.189556E-009	0.0067059	6
	39	57	125.558	9402.282	-17051.97	1	19472.35	-61.1281	7.72956E-010	0.006701	6
	40	58	100.4464	10198.96	-20790.49	1	23157.36	-63.86933	1.005142E-009	0.006709	6
	41	59	79.00281	11277.1	-25743.89	1	28105.53	-66.3442	3.738206E-010	0.0067045	6
	42	61	63.3446	12531.07	-31154	1	33579.75	-68.08853	9.251981E-010	0.0067043	6
	43	62	49.86702	14733.01	-38630.86	1	41344.95	-69.12419	9.865312E-010	0.0067022	6
	44	64	39.72458	17024.6	-47078.16	1	50061.86	-70.11878	8.648368E-010	0.006696	6
	45	65	31.6723	20219.67	-57165.35	1	60635.9	-70.52106	1.358733E-009	0.0066988	6
	46	66	24.93351	24810.55	-70190.7	1	74446.6	-70.53285	-5.126066E-011	0.0067053	6
	47	68	19.86229	30534.33	-84853.55	1	90180.22	-70.20886	1.186653E-009	0.0067019	6
	48	69	15.83615	38106.17	-101482.4	1	108400.9	-69.41908	7.451689E-010	0.006705	5
	49	71	12.40079	49273.84	-122832.7	1	132347.2	-68.14201	1.109303E-009	0.0067025	5
	50	72	9.93114	61510.86	-146023.1	1	158449.8	-67.1572	6.829858E-011	0.0067191	5
	51	74	7.944915	77562.94	-171478.3	1	188204.2	-65.66184	7.47216E-010	0.006718	5
	52	75	6.317385	97929.9	-200145	1	222819	-63.92774	-3.212296E-010	0.0067175	5
	53	77	5.008013	123237.5	-232209.9	1	262885.8	-62.04439	-1.83873E-010	0.0067069	5
	54	80	3.945707	153678.2	-267862.9	1	308816.3	-60.15625	-1.293181E-010	0.0067062	5
	55	83	3.158693	186527.1	-303288.1	1	356056.2	-58.40781	1.779983E-010	0.0067164	5
	56	86	2.504006	224658.8	-343631.8	1	410553.8	-56.82425	-3.558323E-010	0.0067089	5
	57	89	1.998082	264680	-385366.7	1	467507.2	-55.5177	-2.110448E-011	0.0066742	5
	58	92	1.584686	309164.5	-432467.7	1	531611.7	-54.43961	-9.543494E-012	0.0067485	5
	59	96	1.266892	354800.2	-486462.1	1	602103.4	-53.89493	-1.213767E-010	0.0066954	5
	60	100	0.999041	407412.6	-552272.2	1	686286.8	-53.58371	3.155687E-010	0.0067295	5
