EXPLAIN
TAG	EISPOT
TITLE	LABEL	Potentiostatic EIS	Test &Identifier
DATE	LABEL	11/11/2019	Date
TIME	LABEL	12:30:26	Time
NOTES	NOTES	3	&Notes...
	
	
	
PSTAT	PSTAT	REF600-11020	Potentiostat
VDC	POTEN	0.00000E+000	T	DC &Voltage (V)
FREQINIT	QUANT	1.00000E+006	Initial Fre&q. (Hz)
FREQFINAL	QUANT	1.00000E+000	Final Fre&q. (Hz)
PTSPERDEC	QUANT	1.00000E+001	Points/&decade
VAC	QUANT	2.50000E+001	AC &Voltage (mV rms)
AREA	QUANT	1.00000E-002	&Area (cm^2)
CONDIT	TWOPARAM	T	5.00000E+000	0.00000E+000	Conditionin&g	Time(s)	E(V)
DELAY	TWOPARAM	T	5.00000E+000	0.00000E+000	Init. De&lay	Time(s)	Stab.(mV/s)
SPEED	SELECTOR	1	&Optimize for:
ZGUESS	QUANT	1.00000E+005	E&stimated Z (ohms)
OCVCURVE	TABLE	19
	Pt	T	Vf	Vm	Ach	Over
	#	s	V vs. Ref.	V	V	bits
	0	0.258333	4.92669E-003	4.92669E-003	5.51433E-004	...........
	1	0.516667	4.92466E-003	4.82021E-003	5.48799E-004	...........
	2	0.775	4.91002E-003	4.60664E-003	5.52099E-004	...........
	3	1.03333	4.86359E-003	4.51393E-003	5.49199E-004	...........
	4	1.29167	4.77956E-003	4.60999E-003	5.60232E-004	...........
	5	1.55	4.68479E-003	4.57278E-003	5.53433E-004	...........
	6	1.80833	4.61309E-003	4.43138E-003	5.51832E-004	...........
	7	2.06667	4.56587E-003	4.41746E-003	5.56666E-004	...........
	8	2.325	4.52484E-003	4.50516E-003	5.48399E-004	...........
	9	2.58333	4.48873E-003	4.45239E-003	5.52866E-004	...........
	10	2.84167	4.46330E-003	4.20972E-003	5.46999E-004	...........
	11	3.1	4.43395E-003	4.30197E-003	5.48633E-004	...........
	12	3.35833	4.38448E-003	4.17316E-003	5.53733E-004	...........
	13	3.61667	4.32186E-003	4.15928E-003	5.57066E-004	...........
	14	3.875	4.25847E-003	4.00229E-003	5.52866E-004	...........
	15	4.13333	4.18804E-003	3.69064E-003	5.54666E-004	...........
	16	4.39167	4.08962E-003	3.66351E-003	5.55499E-004	...........
	17	4.65	3.96074E-003	3.78886E-003	5.49133E-004	...........
	18	4.90833	3.84428E-003	4.01623E-003	5.62166E-004	...........
EOC	QUANT	0.0038443	Open Circuit (V)
PSTATMODEL	IQUANT	4	Pstat Model
PSTATSECTION	LABEL	REF600-11020	Pstat Section
PSTATSERIALNO	LABEL	11020	Pstat Serial Number
CTRLMODE	IQUANT	1	Control Mode
IESTAB	IQUANT	0	I/E Stability
CASPEED	IQUANT	1	Control Amp Speed
CONVENTION	IQUANT	1	Current Convention
ICHRANGE	IQUANT	2	Ich Range
ICHRANGEMODE	TOGGLE	F	Ich Auto Range
ICHOFFSETENABLE	TOGGLE	T	Ich Offset Enable
ICHOFFSET	QUANT	0	Ich Offset (V)
ICHFILTER	IQUANT	3	Ich Filter
VCHRANGE	IQUANT	2	Vch Range
VCHRANGEMODE	TOGGLE	F	Vch Auto Range
VCHOFFSETENABLE	TOGGLE	T	Vch Offset Enable
VCHOFFSET	QUANT	0	Vch Offset (V)
VCHFILTER	IQUANT	3	Vch Filter
ACHRANGE	IQUANT	2	Ach Range
ACHOFFSETENABLE	TOGGLE	F	Ach Offset Enable
ACHOFFSET	QUANT	0	Ach Offset (V)
ACHFILTER	IQUANT	3	Ach Filter
IERANGELOWERLIMIT	IQUANT	1	I/E Range Lower Limit
IERANGEMODE	TOGGLE	F	I/E AutoRange
IERANGE	IQUANT	4	I/E Range
POSFEEDENABLE	TOGGLE	F	Positive Feedback IR Comp
POSFEEDRESISTANCE	QUANT	0	Positive Feedback Resistance (ohm)
ACHSELECT	IQUANT	0	Ach Select
CABLEID	IQUANT	14	Cable ID
DCCALDATE	LABEL	8/19/2019	DC Calibration Date
ACCALDATE	LABEL	8/19/2019	AC Calibration Date
THERMOSELECT	IQUANT	1	Thermo Select
FRAMEWORKVERSION	QUANT	6.33	Framework Version
INSTRUMENTVERSION	LABEL	3.50	Instrument Version
ZCURVE	TABLE
	Pt	Time	Freq	Zreal	Zimag	Zsig	Zmod	Zphz	Idc	Vdc	IERange
	#	s	Hz	ohm	ohm	V	ohm	°	A	V	#
	0	1	1000078	2617.567	-1661.494	1	3100.358	-32.40524	9.348534E-006	0.0041334	8
	1	2	794390.6	2939.925	-1570.095	1	3332.92	-28.10487	-1.087881E-005	0.0066789	8
	2	4	630984.4	3228.755	-1437.779	1	3534.411	-24.00362	7.078647E-006	0.0053583	8
	3	5	501234.4	3452.957	-1279.816	1	3682.504	-20.3369	6.535712E-006	0.0045056	8
	4	6	398109.4	3650.593	-1132.35	1	3822.178	-17.23298	1.323613E-006	0.0056209	8
	5	8	316265.6	3777.955	-971.052	1	3900.754	-14.41477	-2.670618E-006	0.0058145	8
	6	9	251203.1	3884.46	-843.0201	1	3974.885	-12.24466	-5.417861E-007	0.0049942	8
	7	10	199546.9	3959.301	-735.8085	1	4027.093	-10.52791	6.779211E-006	0.0045305	8
	8	12	158578.1	4032.708	-659.9683	1	4086.354	-9.294287	-1.62394E-006	0.0050849	8
	9	13	125953.1	4110.563	-500.6382	1	4140.938	-6.944031	2.671691E-006	-0.0004204	7
	10	14	100078.1	4137.183	-451.8268	1	4161.782	-6.232641	1.271931E-007	0.0038853	7
	11	16	79453.13	4168.549	-421.8578	1	4189.84	-5.778668	-1.215662E-006	0.0066906	7
	12	17	63140.62	4203.185	-409.6478	1	4223.1	-5.566539	3.788039E-007	0.00579	7
	13	19	50203.12	4238.221	-405.5164	1	4257.577	-5.465469	1.00893E-006	0.0045533	7
	14	20	39890.62	4266.75	-408.0739	1	4286.22	-5.463177	-7.179893E-007	0.0050781	7
	15	21	31640.63	4303.421	-422.1456	1	4324.077	-5.602525	-1.217185E-006	0.0066801	7
	16	23	25171.88	4340.493	-448.6126	1	4363.614	-5.900867	-2.948191E-007	0.0043737	7
	17	24	20015.62	4379.32	-480.0479	1	4405.552	-6.255614	-1.218103E-006	0.0066767	7
	18	25	15890.62	4420.316	-530.157	1	4451.995	-6.839184	-6.202134E-007	0.0068341	7
	19	27	12609.37	4467.978	-590.6083	1	4506.844	-7.530097	3.822247E-007	0.0057731	7
	20	28	10078.13	4511.412	-663.4045	1	4559.928	-8.365409	-6.220027E-007	0.0068299	7
	21	30	8015.625	4569.975	-756.2935	1	4632.133	-9.396814	-8.94096E-007	0.00691	7
	22	31	6328.125	4621.245	-871.7092	1	4702.742	-10.68223	4.932227E-007	0.0035679	7
	23	32	5015.625	4678.17	-1013.807	1	4786.761	-12.2275	-8.933366E-007	0.0069107	7
	24	34	3984.375	4738.791	-1189.494	1	4885.799	-14.09081	6.852261E-008	0.0061973	7
	25	35	3170.956	4811.563	-1402.068	1	5011.68	-16.24588	-8.937163E-007	0.0069101	7
	26	36	2527.573	4889.365	-1663.577	1	5164.627	-18.79056	3.819872E-007	0.0057709	7
	27	38	1976.103	4987.032	-2015.632	1	5378.965	-22.00731	7.835794E-007	0.0034686	7
	28	39	1577.524	5071.056	-2387.929	1	5605.159	-25.21546	1.096261E-006	0.0041122	7
	29	40	1265.625	5200.084	-2885.034	1	5946.789	-29.02174	-2.970928E-007	0.0043773	7
	30	42	998.264	5336.262	-3507.371	1	6385.713	-33.31576	-1.210089E-006	0.0063071	7
	31	43	796.875	5495.313	-4237.133	1	6939.147	-37.63384	-8.89004E-007	0.0069046	7
	32	45	627.7902	5692.21	-5189.541	1	7702.765	-42.35517	-2.916672E-007	0.006587	7
	33	46	505.5147	5910.448	-6248.318	1	8600.865	-46.59174	-6.171373E-007	0.0068294	7
	34	48	397.9953	6187.952	-7698.188	1	9876.88	-51.20701	4.344009E-009	0.0052628	7
	35	49	315.5048	6529.145	-9430.208	1	11469.9	-55.30263	1.505702E-010	0.0052052	6
	36	50	252.4038	6932.188	-11476.94	1	13408.03	-58.8676	4.790858E-010	0.0051903	6
	37	52	198.6229	7477.967	-14184.39	1	16034.87	-62.20194	1.416316E-009	0.0051923	6
	38	53	158.3615	8133.349	-17334.84	1	19148.06	-64.86446	5.749634E-010	0.0051916	6
	39	54	125.558	9013.492	-21297.09	1	23125.94	-67.06063	7.19292E-010	0.0052054	6
	40	56	100.4464	10138.63	-25949.38	1	27859.69	-68.65902	8.180389E-010	0.0051942	6
	41	57	79.00281	11629.49	-32113.02	1	34153.93	-70.09253	5.715049E-010	0.0051976	6
	42	59	63.3446	13506.4	-39267.41	1	41525.32	-71.01885	7.670488E-010	0.0052002	6
	43	60	49.86702	16038.62	-47570.45	1	50201.44	-71.3682	5.282708E-010	0.0051965	6
	44	61	39.72458	19627.27	-57992.12	1	61223.49	-71.30175	1.085763E-009	0.0051932	6
	45	63	31.6723	24281.29	-69918.43	1	74014.65	-70.84889	1.032566E-009	0.0051947	6
	46	64	24.93351	30339.61	-85075.12	1	90323.13	-70.37267	2.910637E-010	0.0051961	6
	47	66	19.86229	38079.35	-101828.2	1	108715.3	-69.49637	2.537824E-010	0.0051914	5
	48	67	15.83615	47263.66	-120033.5	1	129003.5	-68.50777	-4.332792E-010	0.0051987	5
	49	68	12.40079	60380.9	-145022.2	1	157090.1	-67.39529	1.836684E-010	0.0051975	5
	50	70	9.93114	76676.37	-170414.5	1	186869.9	-65.77509	-7.240797E-011	0.0052006	5
	51	72	7.944915	95730.4	-197415	1	219401.4	-64.13036	8.084003E-010	0.005217	5
	52	73	6.317385	117611	-230184	1	258489.9	-62.93555	-2.059224E-010	0.0052198	5
	53	75	5.008013	144650.5	-266396.8	1	303135.4	-61.49853	-8.385206E-011	0.0051968	5
	54	78	3.945707	176912.4	-306767	1	354124.3	-60.02797	3.711132E-010	0.0052003	5
	55	80	3.158693	211208.1	-349350.3	1	408233.4	-58.84394	4.43418E-011	0.0051856	5
	56	84	2.504006	250890.6	-398918.2	1	471255.6	-57.83309	2.676956E-010	0.0052155	5
	57	87	1.998082	293455.9	-452761.5	1	539545.5	-57.05085	3.752791E-010	0.005193	5
	58	90	1.584686	343862.4	-516712.8	1	620671.8	-56.357	1.203478E-011	0.0051575	5
	59	93	1.266892	394930.5	-585128.1	1	705935.6	-55.98273	2.354535E-010	0.0051722	5
	60	98	0.999041	455687.7	-672267.4	1	812154.4	-55.86913	-8.6539E-011	0.0052177	5
