EXPLAIN
TAG	EISPOT
TITLE	LABEL	Potentiostatic EIS	Test &Identifier
DATE	LABEL	11/15/2019	Date
TIME	LABEL	11:20:25	Time
NOTES	NOTES	4	&Notes...
	
	
	
	
PSTAT	PSTAT	REF600-11020	Potentiostat
VDC	POTEN	0.00000E+000	T	DC &Voltage (V)
FREQINIT	QUANT	1.00000E+006	Initial Fre&q. (Hz)
FREQFINAL	QUANT	1.00000E+000	Final Fre&q. (Hz)
PTSPERDEC	QUANT	1.00000E+001	Points/&decade
VAC	QUANT	2.50000E+001	AC &Voltage (mV rms)
AREA	QUANT	1.00000E-002	&Area (cm^2)
CONDIT	TWOPARAM	T	5.00000E+000	0.00000E+000	Conditionin&g	Time(s)	E(V)
DELAY	TWOPARAM	T	5.00000E+000	0.00000E+000	Init. De&lay	Time(s)	Stab.(mV/s)
SPEED	SELECTOR	0	&Optimize for:
ZGUESS	QUANT	1.00000E+005	E&stimated Z (ohms)
OCVCURVE	TABLE	19
	Pt	T	Vf	Vm	Ach	Over
	#	s	V vs. Ref.	V	V	bits
	0	0.258333	7.09295E-003	7.09295E-003	6.14732E-004	...........
	1	0.516667	7.09444E-003	7.17079E-003	6.05165E-004	...........
	2	0.775	7.10374E-003	7.25356E-003	6.10065E-004	...........
	3	1.03333	7.13079E-003	7.34174E-003	6.15598E-004	...........
	4	1.29167	7.18115E-003	7.43232E-003	6.24731E-004	...........
	5	1.55	7.25175E-003	7.52530E-003	6.17732E-004	...........
	6	1.80833	7.33526E-003	7.62108E-003	6.12465E-004	...........
	7	2.06667	7.42547E-003	7.71672E-003	6.26031E-004	...........
	8	2.325	7.51883E-003	7.81290E-003	6.13998E-004	...........
	9	2.58333	7.61362E-003	7.90388E-003	6.11532E-004	...........
	10	2.84167	7.70862E-003	7.99310E-003	6.14132E-004	...........
	11	3.1	7.80285E-003	8.09163E-003	6.20065E-004	...........
	12	3.35833	7.89609E-003	8.17867E-003	6.14332E-004	...........
	13	3.61667	7.98881E-003	8.27480E-003	6.12032E-004	...........
	14	3.875	8.08119E-003	8.35741E-003	6.10665E-004	...........
	15	4.13333	8.17277E-003	8.44483E-003	6.16798E-004	...........
	16	4.39167	8.26283E-003	8.53286E-003	6.12632E-004	...........
	17	4.65	8.35138E-003	8.62452E-003	6.09898E-004	...........
	18	4.90833	8.43920E-003	8.70479E-003	6.12232E-004	...........
EOC	QUANT	0.0084392	Open Circuit (V)
PSTATMODEL	IQUANT	4	Pstat Model
PSTATSECTION	LABEL	REF600-11020	Pstat Section
PSTATSERIALNO	LABEL	11020	Pstat Serial Number
CTRLMODE	IQUANT	1	Control Mode
IESTAB	IQUANT	0	I/E Stability
CASPEED	IQUANT	1	Control Amp Speed
CONVENTION	IQUANT	1	Current Convention
ICHRANGE	IQUANT	2	Ich Range
ICHRANGEMODE	TOGGLE	F	Ich Auto Range
ICHOFFSETENABLE	TOGGLE	T	Ich Offset Enable
ICHOFFSET	QUANT	0	Ich Offset (V)
ICHFILTER	IQUANT	3	Ich Filter
VCHRANGE	IQUANT	2	Vch Range
VCHRANGEMODE	TOGGLE	F	Vch Auto Range
VCHOFFSETENABLE	TOGGLE	T	Vch Offset Enable
VCHOFFSET	QUANT	0	Vch Offset (V)
VCHFILTER	IQUANT	3	Vch Filter
ACHRANGE	IQUANT	2	Ach Range
ACHOFFSETENABLE	TOGGLE	F	Ach Offset Enable
ACHOFFSET	QUANT	0	Ach Offset (V)
ACHFILTER	IQUANT	3	Ach Filter
IERANGELOWERLIMIT	IQUANT	1	I/E Range Lower Limit
IERANGEMODE	TOGGLE	F	I/E AutoRange
IERANGE	IQUANT	5	I/E Range
POSFEEDENABLE	TOGGLE	F	Positive Feedback IR Comp
POSFEEDRESISTANCE	QUANT	0	Positive Feedback Resistance (ohm)
ACHSELECT	IQUANT	0	Ach Select
CABLEID	IQUANT	14	Cable ID
DCCALDATE	LABEL	8/19/2019	DC Calibration Date
ACCALDATE	LABEL	8/19/2019	AC Calibration Date
THERMOSELECT	IQUANT	1	Thermo Select
FRAMEWORKVERSION	QUANT	6.33	Framework Version
INSTRUMENTVERSION	LABEL	3.50	Instrument Version
ZCURVE	TABLE
	Pt	Time	Freq	Zreal	Zimag	Zsig	Zmod	Zphz	Idc	Vdc	IERange
	#	s	Hz	ohm	ohm	V	ohm	°	A	V	#
	0	1	1000078	2271.447	-1744.085	1	2863.792	-37.51814	3.359638E-006	0.0113665	8
	1	2	794390.6	2642.871	-1689.692	1	3136.849	-32.59239	6.795909E-006	0.0094795	8
	2	2	630984.4	2960.239	-1587.169	1	3358.887	-28.19855	-7.578474E-007	0.0107483	8
	3	2	501234.4	3238.594	-1449.723	1	3548.265	-24.11518	-3.11961E-006	0.0107921	8
	4	3	398109.4	3452.823	-1288.393	1	3685.369	-20.46265	-4.299042E-007	0.0097944	8
	5	3	316265.6	3628.944	-1119.519	1	3797.704	-17.14485	2.013928E-006	0.0103652	8
	6	3	251203.1	3768.56	-972.929	1	3892.125	-14.47596	7.117934E-006	0.009263	8
	7	4	199546.9	3865.445	-841.4535	1	3955.972	-12.2809	4.731685E-007	0.0104633	8
	8	4	158578.1	3977.049	-716.3603	1	4041.05	-10.21083	-1.384888E-006	0.0104663	8
	9	4	125953.1	4028.746	-604.5057	1	4073.846	-8.533462	-1.042825E-006	0.0110921	7
	10	5	100078.1	4076.559	-534.067	1	4111.395	-7.46377	1.453862E-007	0.0085582	7
	11	5	79453.13	4117.538	-495.0184	1	4147.187	-6.85531	-3.279814E-007	0.0114669	7
	12	5	63140.62	4158.351	-469.9293	1	4184.82	-6.44756	1.059114E-006	0.0093029	7
	13	5	50203.12	4196.511	-453.6883	1	4220.964	-6.17033	8.409435E-007	0.008141	7
	14	6	39890.62	4231.125	-448.247	1	4254.802	-6.04738	-9.606989E-007	0.0117855	7
	15	6	31640.63	4268.074	-457.428	1	4292.516	-6.117287	-6.742755E-007	0.0117039	7
	16	6	25171.88	4309.368	-477.2807	1	4335.718	-6.319993	6.277191E-007	0.0102632	7
	17	7	20015.62	4349.739	-507.8203	1	4379.282	-6.658982	-3.033702E-007	0.0090784	7
	18	7	15890.62	4395.173	-550.8374	1	4429.556	-7.143509	-3.282565E-007	0.0114526	7
	19	7	12609.37	4441.416	-609.7965	1	4483.082	-7.817705	-7.513157E-007	0.0098081	7
	20	8	10078.13	4494.259	-676.9494	1	4544.956	-8.565805	1.047376E-006	0.0082334	7
	21	8	8015.625	4546.433	-763.6326	1	4610.118	-9.53457	-9.602145E-007	0.0117843	7
	22	8	6328.125	4606.173	-876.327	1	4688.793	-10.77182	-1.298589E-006	0.0115325	7
	23	9	5015.625	4673.804	-1012.604	1	4782.239	-12.2245	6.26869E-007	0.0102628	7
	24	9	3984.375	4745.644	-1180.915	1	4890.367	-13.97377	1.478334E-007	0.0085392	7
	25	9	3170.956	4817.098	-1380.303	1	5010.955	-15.98925	-6.735973E-007	0.0116957	7
	26	10	2527.573	4902.859	-1626.901	1	5165.737	-18.35724	5.312206E-008	0.0110446	7
	27	10	1976.103	5003.857	-1954.934	1	5372.183	-21.33987	-1.168105E-006	0.0117061	7
	28	10	1577.524	5117.886	-2332.813	1	5624.48	-24.50425	-7.472745E-007	0.0098004	7
	29	11	1265.625	5231.199	-2769.716	1	5919.187	-27.89947	-9.599894E-007	0.0117758	7
	30	11	998.264	5384.95	-3352.6	1	6343.312	-31.90586	-1.166793E-006	0.0117021	7
	31	11	796.875	5550.47	-4035.187	1	6862.248	-36.01712	1.152755E-006	0.0084703	7
	32	12	627.7902	5757.851	-4913.946	1	7569.657	-40.47857	1.063803E-006	0.0092821	7
	33	12	505.5147	5980.569	-5888.888	1	8393.224	-44.55745	3.929581E-007	0.0105828	7
	34	12	397.9953	6270.553	-7205.955	1	9552.26	-48.97052	4.030607E-009	0.0100296	7
	35	13	315.5048	6603.9	-8782.824	1	10988.61	-53.0601	-4.055355E-011	0.0099691	6
	36	13	252.4038	6987.201	-10648.1	1	12735.89	-56.72741	5.128649E-010	0.0099683	6
	37	13	198.6229	7488.667	-13117.55	1	15104.64	-60.27842	1.325649E-010	0.0099618	6
	38	14	158.3615	8079.244	-15984.79	1	17910.54	-63.18644	7.669601E-010	0.0099552	6
	39	14	125.558	8844.476	-19614.41	1	21516.27	-65.72857	4.512126E-010	0.0099541	6
	40	14	100.4464	9818.5	-23876.29	1	25816.28	-67.64635	1.196452E-009	0.0099587	6
	41	15	79.00281	11177.38	-29560.86	1	31603.46	-69.28769	3.980477E-010	0.0099587	6
	42	15	63.3446	12329.41	-35773.46	1	37838.53	-70.98337	-9.216018E-010	0.0099626	6
	43	15	49.86702	14711.05	-44027.28	1	46420	-71.52373	5.321767E-010	0.0099664	6
	44	16	39.72458	17906.28	-53838.24	1	56737.91	-71.60319	-1.345072E-010	0.0099711	6
	45	16	31.6723	21907.47	-65284.89	1	68862.57	-71.44994	1.97201E-010	0.0099651	6
	46	16	24.93351	27133.9	-79741.4	1	84231.46	-71.20792	-5.296349E-010	0.0099597	6
	47	17	19.86229	33769.93	-96026.9	1	101791.9	-70.62469	-1.18611E-009	0.009966	6
	48	17	15.83615	43470.24	-115613.5	1	123515.8	-69.39394	1.61844E-009	0.0099573	5
	49	17	12.40079	56518.2	-139340.2	1	150366.2	-67.92189	-1.235994E-009	0.0099714	5
	50	18	9.93114	69628.78	-164111.2	1	178271.3	-67.00955	5.347234E-010	0.0099551	5
	51	18	7.944915	87682.69	-192384.8	1	211424.1	-65.49805	-2.778998E-010	0.0099624	5
	52	19	6.317385	110979.6	-224085.8	1	250061.9	-63.65285	-2.64346E-010	0.0099696	5
	53	20	5.008013	139633.4	-259192.4	1	294411.6	-61.68755	2.70451E-011	0.0099703	5
	54	21	3.945707	174117.2	-298786.7	1	345818.3	-59.76861	-3.490941E-010	0.0099544	5
	55	22	3.158693	211642.7	-337621.6	1	398473.3	-57.9179	1.391304E-011	0.0099618	5
	56	24	2.504006	254779.7	-381434.7	1	458699.3	-56.25902	4.427156E-011	0.0099635	5
	57	25	1.998082	301635.3	-426699.6	1	522548	-54.74339	-2.549564E-010	0.0099194	5
	58	27	1.584686	352206.1	-479083.4	1	594617.5	-53.67792	-2.4976E-010	0.0099299	5
	59	29	1.266892	404880.7	-533466.8	1	669712.8	-52.8029	-1.695319E-010	0.0099695	5
	60	31	0.999041	466000.3	-600055.9	1	759752.2	-52.16728	-9.994776E-011	0.0099912	5
