EXPLAIN
TAG	EISPOT
TITLE	LABEL	Potentiostatic EIS	Test &Identifier
DATE	LABEL	10/28/2019	Date
TIME	LABEL	11:31:38	Time
NOTES	NOTES	1	&Notes...
	
PSTAT	PSTAT	REF600-11020	Potentiostat
VDC	POTEN	0.00000E+000	T	DC &Voltage (V)
FREQINIT	QUANT	1.00000E+006	Initial Fre&q. (Hz)
FREQFINAL	QUANT	1.00000E+000	Final Fre&q. (Hz)
PTSPERDEC	QUANT	1.00000E+001	Points/&decade
VAC	QUANT	2.50000E+001	AC &Voltage (mV rms)
AREA	QUANT	1.00000E-002	&Area (cm^2)
CONDIT	TWOPARAM	T	5.00000E+000	0.00000E+000	Conditionin&g	Time(s)	E(V)
DELAY	TWOPARAM	T	5.00000E+000	0.00000E+000	Init. De&lay	Time(s)	Stab.(mV/s)
SPEED	SELECTOR	1	&Optimize for:
ZGUESS	QUANT	1.00000E+005	E&stimated Z (ohms)
OCVCURVE	TABLE	19
	Pt	T	Vf	Vm	Ach	Over
	#	s	V vs. Ref.	V	V	bits
	0	0.258333	5.54496E-003	5.54496E-003	5.61032E-004	...........
	1	0.516667	5.54406E-003	5.49772E-003	5.58732E-004	...........
	2	0.775	5.53880E-003	5.46754E-003	5.55666E-004	...........
	3	1.03333	5.52509E-003	5.45179E-003	5.61599E-004	...........
	4	1.29167	5.50362E-003	5.44506E-003	5.59532E-004	...........
	5	1.55	5.48049E-003	5.44255E-003	5.58432E-004	...........
	6	1.80833	5.46206E-003	5.45227E-003	5.49733E-004	...........
	7	2.06667	5.45174E-003	5.47398E-003	5.56466E-004	...........
	8	2.325	5.45088E-003	5.50380E-003	5.57966E-004	...........
	9	2.58333	5.46000E-003	5.54073E-003	5.54433E-004	...........
	10	2.84167	5.47873E-003	5.57340E-003	5.49899E-004	...........
	11	3.1	5.50528E-003	5.60910E-003	5.54933E-004	...........
	12	3.35833	5.53618E-003	5.60757E-003	5.59166E-004	...........
	13	3.61667	5.56631E-003	5.62544E-003	5.56399E-004	...........
	14	3.875	5.59122E-003	5.64270E-003	5.55899E-004	...........
	15	4.13333	5.61053E-003	5.66716E-003	5.60399E-004	...........
	16	4.39167	5.62752E-003	5.68791E-003	5.57766E-004	...........
	17	4.65	5.64545E-003	5.71330E-003	5.55599E-004	...........
	18	4.90833	5.66557E-003	5.73647E-003	5.59799E-004	...........
EOC	QUANT	0.0056656	Open Circuit (V)
PSTATMODEL	IQUANT	4	Pstat Model
PSTATSECTION	LABEL	REF600-11020	Pstat Section
PSTATSERIALNO	LABEL	11020	Pstat Serial Number
CTRLMODE	IQUANT	1	Control Mode
IESTAB	IQUANT	0	I/E Stability
CASPEED	IQUANT	1	Control Amp Speed
CONVENTION	IQUANT	1	Current Convention
ICHRANGE	IQUANT	2	Ich Range
ICHRANGEMODE	TOGGLE	F	Ich Auto Range
ICHOFFSETENABLE	TOGGLE	T	Ich Offset Enable
ICHOFFSET	QUANT	0	Ich Offset (V)
ICHFILTER	IQUANT	3	Ich Filter
VCHRANGE	IQUANT	2	Vch Range
VCHRANGEMODE	TOGGLE	F	Vch Auto Range
VCHOFFSETENABLE	TOGGLE	T	Vch Offset Enable
VCHOFFSET	QUANT	0	Vch Offset (V)
VCHFILTER	IQUANT	3	Vch Filter
ACHRANGE	IQUANT	2	Ach Range
ACHOFFSETENABLE	TOGGLE	F	Ach Offset Enable
ACHOFFSET	QUANT	0	Ach Offset (V)
ACHFILTER	IQUANT	3	Ach Filter
IERANGELOWERLIMIT	IQUANT	1	I/E Range Lower Limit
IERANGEMODE	TOGGLE	F	I/E AutoRange
IERANGE	IQUANT	5	I/E Range
POSFEEDENABLE	TOGGLE	F	Positive Feedback IR Comp
POSFEEDRESISTANCE	QUANT	0	Positive Feedback Resistance (ohm)
ACHSELECT	IQUANT	0	Ach Select
CABLEID	IQUANT	14	Cable ID
DCCALDATE	LABEL	8/19/2019	DC Calibration Date
ACCALDATE	LABEL	8/19/2019	AC Calibration Date
THERMOSELECT	IQUANT	1	Thermo Select
FRAMEWORKVERSION	QUANT	6.33	Framework Version
INSTRUMENTVERSION	LABEL	3.50	Instrument Version
ZCURVE	TABLE
	Pt	Time	Freq	Zreal	Zimag	Zsig	Zmod	Zphz	Idc	Vdc	IERange
	#	s	Hz	ohm	ohm	V	ohm	°	A	V	#
	0	2	1000078	2434.155	-1589.771	1	2907.315	-33.14895	2.189161E-006	0.0075901	8
	1	3	794390.6	2732.647	-1526.888	1	3130.295	-29.19462	-1.285248E-006	0.0078387	8
	2	5	630984.4	3006.587	-1424.845	1	3327.123	-25.35664	-4.248602E-006	0.0086254	8
	3	6	501234.4	3229.833	-1295.214	1	3479.856	-21.85156	1.352481E-006	0.0070728	8
	4	8	398109.4	3445.096	-1151.918	1	3632.575	-18.48811	2.780375E-006	0.0067587	8
	5	9	316265.6	3593.265	-1004.214	1	3730.951	-15.61414	-2.511003E-007	0.007407	8
	6	10	251203.1	3722.953	-875.8822	1	3824.597	-13.23897	-3.298064E-007	0.0073606	8
	7	12	199546.9	3803.487	-780.2259	1	3882.688	-11.59251	-3.640597E-006	0.0080874	8
	8	13	158578.1	3901.704	-700.1513	1	3964.027	-10.17331	1.475289E-006	0.0070148	8
	9	15	125953.1	3976.8	-529.6967	1	4011.921	-7.586953	6.102181E-007	0.0060951	7
	10	16	100078.1	4010.095	-467.4617	1	4037.25	-6.649029	-4.978569E-008	0.007391	7
	11	17	79453.13	4045.602	-434.6662	1	4068.885	-6.132429	-3.432525E-009	0.0073202	7
	12	19	63140.62	4082.418	-413.3731	1	4103.293	-5.781888	4.308476E-008	0.0071321	7
	13	20	50203.12	4117.469	-402.7662	1	4137.121	-5.586836	-7.024629E-008	0.007391	7
	14	21	39890.62	4154.615	-399.4871	1	4173.777	-5.492391	-4.617583E-008	0.0072926	7
	15	23	31640.63	4191.127	-404.7685	1	4210.627	-5.516374	-5.667883E-008	0.0073316	7
	16	24	25171.88	4229.226	-422.4229	1	4250.27	-5.703891	-5.473476E-008	0.007326	7
	17	25	20015.62	4257.675	-441.4185	1	4280.497	-5.919046	-5.555839E-008	0.0073244	7
	18	27	15890.62	4316.938	-476.2004	1	4343.124	-6.294834	-5.956829E-008	0.007336	7
	19	28	12609.37	4365.155	-514.7814	1	4395.404	-6.725809	-5.074836E-008	0.00745	7
	20	30	10078.13	4408.992	-568.1069	1	4445.442	-7.342214	8.875194E-008	0.0070816	7
	21	31	8015.625	4451.625	-625.3655	1	4495.335	-7.996598	4.675245E-008	0.0072162	7
	22	32	6328.125	4510.551	-705.729	1	4565.427	-8.892506	-6.941025E-008	0.0073856	7
	23	34	5015.625	4560.566	-803.7242	1	4630.846	-9.9948	1.437141E-007	0.0070625	7
	24	35	3984.375	4608.036	-930.8383	1	4701.112	-11.42025	-3.945772E-008	0.0072783	7
	25	36	3170.956	4668.913	-1078.966	1	4791.964	-13.01238	1.012091E-008	0.0071943	7
	26	38	2527.573	4728.401	-1266.281	1	4895.022	-14.99219	-4.951067E-008	0.0073252	7
	27	39	1976.103	4802.474	-1525.849	1	5039.045	-17.62617	-4.920125E-008	0.0073213	7
	28	40	1577.524	4895.505	-1820.187	1	5222.935	-20.39552	4.405052E-008	0.0071222	7
	29	42	1265.625	4949.199	-2169.023	1	5403.631	-23.66579	-5.009667E-008	0.0074504	7
	30	43	998.264	5057.795	-2638.702	1	5704.739	-27.5515	-4.648996E-009	0.0073057	7
	31	44	796.875	5176.621	-3193.267	1	6082.298	-31.66891	-4.36458E-008	0.0072888	7
	32	46	627.7902	5324.471	-3920.169	1	6611.938	-36.36255	4.874805E-008	0.0072173	7
	33	47	505.5147	5492.512	-4719.991	1	7241.961	-40.67412	-4.915316E-008	0.0073225	7
	34	48	397.9953	5728.892	-5818.929	1	8165.79	-45.44672	4.423741E-009	0.0072963	7
	35	50	315.5048	6019.308	-7128.657	1	9330.05	-49.82286	5.012347E-009	0.0072949	7
	36	51	252.4038	6375.769	-8662.332	1	10755.76	-53.64568	1.689544E-009	0.0072317	6
	37	52	198.6229	6867.812	-10675.33	1	12693.68	-57.24542	4.259278E-010	0.0072341	6
	38	54	158.3615	7471.917	-12989.96	1	14985.61	-60.09218	1.65056E-009	0.0072283	6
	39	55	125.558	8269.298	-15861.45	1	17887.62	-62.46491	4.682317E-010	0.0072305	6
	40	57	100.4464	9243.283	-19204.18	1	21312.88	-64.29774	1.59947E-010	0.0072265	6
	41	58	79.00281	10630.56	-23427.21	1	25726.31	-65.59288	1.662282E-009	0.0072246	6
	42	59	63.3446	12010.85	-27883.66	1	30360.49	-66.6961	1.104277E-009	0.0072246	6
	43	61	49.86702	14548.23	-34417.93	1	37366.36	-67.08655	1.298681E-009	0.0072263	6
	44	62	39.72458	16812.15	-41319.32	1	44608.68	-67.8594	6.999714E-010	0.0072317	6
	45	63	31.6723	19824.43	-49534	1	53353.78	-68.18779	-5.453042E-010	0.0072269	6
	46	65	24.93351	24319.23	-59912.64	1	64660.27	-67.9072	-2.265122E-010	0.007228	6
	47	66	19.86229	29576.44	-71648.05	1	77512.63	-67.56908	1.10254E-009	0.0072303	6
	48	67	15.83615	37210.33	-85097.42	1	92877.23	-66.38181	-1.658942E-009	0.00723	6
	49	69	12.40079	44567.37	-101611.4	1	110955.5	-66.31745	-4.435119E-010	0.0072338	5
	50	70	9.93114	55791.5	-119899.1	1	132244	-65.04647	8.059207E-010	0.0072304	5
	51	72	7.944915	69264.53	-140521.7	1	156665	-63.76086	2.030973E-010	0.0072349	5
	52	73	6.317385	84410.59	-162585.5	1	183191.6	-62.56271	-2.740351E-010	0.007236	5
	53	76	5.008013	103179.6	-188363.4	1	214771.5	-61.28744	-9.466563E-011	0.0072252	5
	54	78	3.945707	125220.3	-217323.2	1	250817.7	-60.04971	4.025855E-010	0.0072363	5
	55	81	3.158693	148493.3	-247545.6	1	288667.7	-59.04205	-6.952467E-011	0.0072315	5
	56	84	2.504006	175095.8	-283101.7	1	332874	-58.26358	2.871634E-010	0.007225	5
	57	87	1.998082	202351.1	-322297	1	380554	-57.87774	-1.637148E-010	0.007265	5
	58	90	1.584686	233127	-370789.3	1	437987.4	-57.84112	1.371402E-010	0.0072735	5
	59	93	1.266892	265621.4	-424721.5	1	500942.2	-57.97808	-1.620675E-010	0.0072656	5
	60	98	0.999041	303390.2	-494600.9	1	580237.6	-58.47488	1.899369E-010	0.00722	5
