EXPLAIN
TAG	EISPOT
TITLE	LABEL	Potentiostatic IDE	Test &Identifier
DATE	LABEL	9/18/2019	Date
TIME	LABEL	8:02:20	Time
NOTES	NOTES	1	&Notes...
	
PSTAT	PSTAT	REF600-11020	Potentiostat
VDC	POTEN	0.00000E+000	T	DC &Voltage (V)
FREQINIT	QUANT	1.00000E+006	Initial Fre&q. (Hz)
FREQFINAL	QUANT	1.00000E+000	Final Fre&q. (Hz)
PTSPERDEC	QUANT	1.00000E+001	Points/&decade
VAC	QUANT	2.50000E+001	AC &Voltage (mV rms)
AREA	QUANT	1.00000E-002	&Area (cm^2)
CONDIT	TWOPARAM	T	5.00000E+000	0.00000E+000	Conditionin&g	Time(s)	E(V)
DELAY	TWOPARAM	T	5.00000E+000	0.00000E+000	Init. De&lay	Time(s)	Stab.(mV/s)
SPEED	SELECTOR	1	&Optimize for:
ZGUESS	QUANT	1.00000E+007	E&stimated Z (ohms)
OCVCURVE	TABLE	18
	Pt	T	Vf	Vm	Ach	Over
	#	s	V vs. Ref.	V	V	bits
	0	0.258333	1.63070E-002	1.63070E-002	5.68532E-004	...........
	1	0.516667	1.63201E-002	1.69924E-002	5.69132E-004	...........
	2	0.775	1.64010E-002	1.76685E-002	5.69766E-004	...........
	3	1.03333	1.66311E-002	1.82913E-002	5.65032E-004	...........
	4	1.29167	1.70430E-002	1.88491E-002	5.65832E-004	...........
	5	1.55	1.75875E-002	1.94177E-002	5.63666E-004	...........
	6	1.80833	1.81849E-002	1.99513E-002	5.61132E-004	...........
	7	2.06667	1.87794E-002	2.04574E-002	5.64099E-004	...........
	8	2.325	1.93482E-002	2.09067E-002	5.61999E-004	...........
	9	2.58333	1.98851E-002	2.13937E-002	5.66132E-004	...........
	10	2.84167	2.03922E-002	2.18470E-002	5.64699E-004	...........
	11	3.1	2.08760E-002	2.22464E-002	5.64166E-004	...........
	12	3.35833	2.13402E-002	2.26518E-002	5.64732E-004	...........
	13	3.61667	2.17842E-002	2.30619E-002	5.64699E-004	...........
	14	3.875	2.22091E-002	2.34335E-002	5.63566E-004	...........
	15	4.13333	2.26180E-002	2.37807E-002	5.58533E-004	...........
	16	4.39167	2.30114E-002	2.41365E-002	5.65466E-004	...........
	17	4.65	2.33885E-002	2.44718E-002	5.66132E-004	...........
EOC	QUANT	0.0237507	Open Circuit (V)
PSTATMODEL	IQUANT	4	Pstat Model
PSTATSECTION	LABEL	REF600-11020	Pstat Section
PSTATSERIALNO	LABEL	11020	Pstat Serial Number
CTRLMODE	IQUANT	1	Control Mode
IESTAB	IQUANT	0	I/E Stability
CASPEED	IQUANT	1	Control Amp Speed
CONVENTION	IQUANT	1	Current Convention
ICHRANGE	IQUANT	2	Ich Range
ICHRANGEMODE	TOGGLE	F	Ich Auto Range
ICHOFFSETENABLE	TOGGLE	T	Ich Offset Enable
ICHOFFSET	QUANT	0	Ich Offset (V)
ICHFILTER	IQUANT	3	Ich Filter
VCHRANGE	IQUANT	2	Vch Range
VCHRANGEMODE	TOGGLE	F	Vch Auto Range
VCHOFFSETENABLE	TOGGLE	T	Vch Offset Enable
VCHOFFSET	QUANT	0	Vch Offset (V)
VCHFILTER	IQUANT	3	Vch Filter
ACHRANGE	IQUANT	2	Ach Range
ACHOFFSETENABLE	TOGGLE	F	Ach Offset Enable
ACHOFFSET	QUANT	0	Ach Offset (V)
ACHFILTER	IQUANT	3	Ach Filter
IERANGELOWERLIMIT	IQUANT	1	I/E Range Lower Limit
IERANGEMODE	TOGGLE	F	I/E AutoRange
IERANGE	IQUANT	3	I/E Range
POSFEEDENABLE	TOGGLE	F	Positive Feedback IR Comp
POSFEEDRESISTANCE	QUANT	0	Positive Feedback Resistance (ohm)
ACHSELECT	IQUANT	0	Ach Select
CABLEID	IQUANT	14	Cable ID
DCCALDATE	LABEL	8/19/2019	DC Calibration Date
ACCALDATE	LABEL	8/19/2019	AC Calibration Date
THERMOSELECT	IQUANT	1	Thermo Select
FRAMEWORKVERSION	QUANT	6.33	Framework Version
INSTRUMENTVERSION	LABEL	3.50	Instrument Version
ZCURVE	TABLE
	Pt	Time	Freq	Zreal	Zimag	Zsig	Zmod	Zphz	Idc	Vdc	IERange
	#	s	Hz	ohm	ohm	V	ohm	°	A	V	#
	0	2	1000078	2019.689	-1446.198	1	2484.076	-35.60455	-7.568877E-007	0.026278	8
	1	4	794390.6	2302.828	-1407.148	1	2698.719	-31.42711	-1.977127E-007	0.02601	8
	2	5	630984.4	2564.387	-1324.189	1	2886.097	-27.31075	-3.679866E-008	0.0256652	8
	3	6	501234.4	2794.057	-1199.315	1	3040.577	-23.23083	-7.685795E-007	0.0255922	8
	4	8	398109.4	2981.27	-1079.658	1	3170.746	-19.9077	5.426604E-007	0.0253636	8
	5	9	316265.6	3124.776	-961.712	1	3269.421	-17.10679	4.039948E-007	0.0253006	8
	6	10	251203.1	3243.339	-839.1182	1	3350.129	-14.50553	-4.9802E-007	0.0254844	8
	7	12	199546.9	3344.542	-734.8176	1	3424.313	-12.39138	-3.676063E-007	0.0254302	8
	8	13	158578.1	3402.969	-647.7954	1	3464.079	-10.77797	-4.676341E-007	0.0254653	8
	9	14	125953.1	3481.388	-560.8022	1	3526.268	-9.150926	-4.894508E-007	0.0264466	7
	10	16	100078.1	3530.654	-502.218	1	3566.194	-8.09573	2.704974E-008	0.0252996	7
	11	17	79453.13	3574.011	-466.9176	1	3604.382	-7.443107	-1.837518E-008	0.0253313	7
	12	18	63140.62	3618.037	-442.1742	1	3644.957	-6.967783	4.081021E-009	0.0253766	7
	13	20	50203.12	3657.67	-425.2552	1	3682.308	-6.631661	-1.552574E-009	0.0253547	7
	14	21	39890.62	3692.139	-417.6581	1	3715.687	-6.453916	-2.6371E-009	0.0253475	7
	15	22	31640.63	3736.523	-420.3521	1	3760.093	-6.418684	-3.345377E-008	0.02544	7
	16	24	25171.88	3775.696	-430.9896	1	3800.214	-6.512035	2.071766E-008	0.0252576	7
	17	25	20015.62	3815.393	-451.1853	1	3841.978	-6.744133	2.816714E-008	0.0252818	7
	18	26	15890.62	3856.312	-485.7209	1	3886.781	-7.178872	-3.237863E-008	0.0253588	7
	19	28	12609.37	3899.172	-523.9633	1	3934.219	-7.653449	-3.818572E-008	0.0253769	7
	20	29	10078.13	3941.021	-576.3688	1	3982.945	-8.320441	5.124997E-008	0.0252334	7
	21	30	8015.625	3988.06	-643.6415	1	4039.666	-9.168033	6.383536E-010	0.0253023	7
	22	32	6328.125	4038.191	-733.5117	1	4104.269	-10.29517	-2.148954E-010	0.0252952	7
	23	33	5015.625	4090.121	-845.0092	1	4176.498	-11.67294	-1.227747E-008	0.0253591	7
	24	34	3984.375	4145.659	-982.596	1	4260.515	-13.33408	-1.057722E-008	0.0253606	7
	25	36	3170.956	4207.583	-1150.304	1	4361.989	-15.29037	-3.746215E-008	0.0253781	7
	26	37	2527.573	4275.833	-1356.7	1	4485.91	-17.60397	-3.32022E-008	0.0253829	7
	27	38	1976.103	4358.329	-1633.01	1	4654.219	-20.54034	6.315E-008	0.0252333	7
	28	40	1577.524	4447.052	-1946.722	1	4854.482	-23.64168	-1.877365E-008	0.0253196	7
	29	41	1265.625	4544.171	-2314.99	1	5099.87	-26.99619	5.208286E-008	0.0252333	7
	30	42	998.264	4664.548	-2804.068	1	5442.5	-31.01196	6.44837E-008	0.0252273	7
	31	44	796.875	4796.612	-3371.165	1	5862.785	-35.1004	4.027815E-008	0.0252422	7
	32	45	627.7902	4951.188	-4113.327	1	6436.902	-39.71898	-1.791295E-008	0.0253186	7
	33	46	505.5147	5116.847	-4942.68	1	7114.226	-44.0081	-3.152683E-008	0.0253534	7
	34	48	397.9953	5326.114	-6071.021	1	8076.187	-48.73949	3.7778E-009	0.0253457	7
	35	49	315.5048	5571.346	-7435.706	1	9291.374	-53.15691	4.430705E-009	0.0253427	7
	36	50	252.4038	5861.226	-9054.383	1	10785.91	-57.08357	-5.142555E-010	0.0252792	6
	37	52	198.6229	6250.64	-11207.8	1	12832.98	-60.8514	-7.908164E-010	0.0252866	6
	38	53	158.3615	6719.958	-13729.5	1	15285.84	-63.92038	-6.352187E-010	0.0252784	6
	39	54	125.558	7350.337	-16911.63	1	18439.92	-66.50869	-6.78963E-010	0.0252858	6
	40	56	100.4464	8131.146	-20660.13	1	22202.63	-68.51704	-1.100704E-009	0.0252842	6
	41	57	79.00281	9250.274	-25606.45	1	27226.05	-70.13786	-9.711411E-010	0.0252747	6
	42	58	63.3446	10871.89	-31153.62	1	32996.15	-70.7622	-9.778556E-010	0.025282	6
	43	60	49.86702	12616.73	-38558.04	1	40569.74	-71.88118	-7.105581E-010	0.0252794	6
	44	61	39.72458	15360.13	-46831.55	1	49286.18	-71.84119	-8.478811E-010	0.0252858	6
	45	62	31.6723	18824.99	-56980.91	1	60010.03	-71.7178	-2.952751E-010	0.0252809	6
	46	64	24.93351	23659.09	-69530.74	1	73445.74	-71.20821	-1.478067E-009	0.0252761	6
	47	65	19.86229	29786.72	-83654.99	1	88799.81	-70.4009	-9.674108E-010	0.0252802	6
	48	66	15.83615	38014.03	-100018.1	1	106998.6	-69.18964	-1.28526E-009	0.0252829	5
	49	68	12.40079	49135.32	-121188	1	130770.1	-67.93005	-1.315839E-009	0.0252884	5
	50	69	9.93114	62432.64	-142061.9	1	155175.4	-66.27571	-9.836789E-010	0.0252876	5
	51	71	7.944915	79101.84	-166072.1	1	183948.5	-64.53106	-1.454351E-009	0.0252964	5
	52	72	6.317385	100289	-192756.6	1	217285.5	-62.51256	-1.147789E-009	0.0252855	5
	53	74	5.008013	126961	-222747.6	1	256389.5	-60.31785	-1.677372E-009	0.0252891	5
	54	77	3.945707	159724	-254735.9	1	300669.5	-57.91154	-1.849152E-009	0.0252875	5
	55	79	3.158693	195069.2	-285824.6	1	346045.8	-55.68729	-2.083267E-009	0.025272	5
	56	83	2.504006	237089.4	-318905.9	1	397381.8	-53.37118	-1.251387E-009	0.0252914	5
	57	85	1.998082	283282.6	-351101.4	1	451133.3	-51.10203	-1.632424E-009	0.0253267	5
	58	89	1.584686	332510.7	-384719.9	1	508500.5	-49.16338	-1.569413E-009	0.0252839	5
	59	92	1.266892	385794.6	-418082.3	1	568885.1	-47.30005	-1.736859E-009	0.0253309	5
	60	97	0.999041	444639.2	-456018.5	1	636911.9	-45.72386	-2.16592E-009	0.0252457	5
