EXPLAIN
TAG	EISPOT
TITLE	LABEL	Potentiostatic IDE	Test &Identifier
DATE	LABEL	9/18/2019	Date
TIME	LABEL	9:52:16	Time
NOTES	NOTES	1	&Notes...
	
PSTAT	PSTAT	REF600-11020	Potentiostat
VDC	POTEN	0.00000E+000	T	DC &Voltage (V)
FREQINIT	QUANT	1.00000E+006	Initial Fre&q. (Hz)
FREQFINAL	QUANT	1.00000E+000	Final Fre&q. (Hz)
PTSPERDEC	QUANT	1.00000E+001	Points/&decade
VAC	QUANT	2.50000E+001	AC &Voltage (mV rms)
AREA	QUANT	1.00000E-002	&Area (cm^2)
CONDIT	TWOPARAM	T	5.00000E+000	0.00000E+000	Conditionin&g	Time(s)	E(V)
DELAY	TWOPARAM	T	5.00000E+000	0.00000E+000	Init. De&lay	Time(s)	Stab.(mV/s)
SPEED	SELECTOR	1	&Optimize for:
ZGUESS	QUANT	1.00000E+007	E&stimated Z (ohms)
OCVCURVE	TABLE	19
	Pt	T	Vf	Vm	Ach	Over
	#	s	V vs. Ref.	V	V	bits
	0	0.258333	4.03796E-003	4.03796E-003	5.64932E-004	...........
	1	0.516667	4.03544E-003	3.90589E-003	5.69432E-004	...........
	2	0.775	4.02070E-003	3.82018E-003	5.68166E-004	...........
	3	1.03333	3.98101E-003	3.71162E-003	5.64632E-004	...........
	4	1.29167	3.91265E-003	3.60701E-003	5.70199E-004	...........
	5	1.55	3.82340E-003	3.52311E-003	5.67199E-004	...........
	6	1.80833	3.72589E-003	3.48634E-003	5.74966E-004	...........
	7	2.06667	3.63323E-003	3.43615E-003	5.70999E-004	...........
	8	2.325	3.55463E-003	3.38191E-003	5.71732E-004	...........
	9	2.58333	3.49079E-003	3.32816E-003	5.73666E-004	...........
	10	2.84167	3.43598E-003	3.28118E-003	5.68632E-004	...........
	11	3.1	3.38481E-003	3.24110E-003	5.71232E-004	...........
	12	3.35833	3.33563E-003	3.19902E-003	5.66366E-004	...........
	13	3.61667	3.28908E-003	3.16782E-003	5.67999E-004	...........
	14	3.875	3.24607E-003	3.13564E-003	5.66666E-004	...........
	15	4.13333	3.20690E-003	3.10031E-003	5.69599E-004	...........
	16	4.39167	3.17097E-003	3.06976E-003	5.68799E-004	...........
	17	4.65	3.13722E-003	3.04581E-003	5.68299E-004	...........
	18	4.90833	3.10524E-003	3.01604E-003	5.66466E-004	...........
EOC	QUANT	0.0031052	Open Circuit (V)
PSTATMODEL	IQUANT	4	Pstat Model
PSTATSECTION	LABEL	REF600-11020	Pstat Section
PSTATSERIALNO	LABEL	11020	Pstat Serial Number
CTRLMODE	IQUANT	1	Control Mode
IESTAB	IQUANT	0	I/E Stability
CASPEED	IQUANT	1	Control Amp Speed
CONVENTION	IQUANT	1	Current Convention
ICHRANGE	IQUANT	2	Ich Range
ICHRANGEMODE	TOGGLE	F	Ich Auto Range
ICHOFFSETENABLE	TOGGLE	T	Ich Offset Enable
ICHOFFSET	QUANT	0	Ich Offset (V)
ICHFILTER	IQUANT	3	Ich Filter
VCHRANGE	IQUANT	2	Vch Range
VCHRANGEMODE	TOGGLE	F	Vch Auto Range
VCHOFFSETENABLE	TOGGLE	T	Vch Offset Enable
VCHOFFSET	QUANT	0	Vch Offset (V)
VCHFILTER	IQUANT	3	Vch Filter
ACHRANGE	IQUANT	2	Ach Range
ACHOFFSETENABLE	TOGGLE	F	Ach Offset Enable
ACHOFFSET	QUANT	0	Ach Offset (V)
ACHFILTER	IQUANT	3	Ach Filter
IERANGELOWERLIMIT	IQUANT	1	I/E Range Lower Limit
IERANGEMODE	TOGGLE	F	I/E AutoRange
IERANGE	IQUANT	2	I/E Range
POSFEEDENABLE	TOGGLE	F	Positive Feedback IR Comp
POSFEEDRESISTANCE	QUANT	0	Positive Feedback Resistance (ohm)
ACHSELECT	IQUANT	0	Ach Select
CABLEID	IQUANT	14	Cable ID
DCCALDATE	LABEL	8/19/2019	DC Calibration Date
ACCALDATE	LABEL	8/19/2019	AC Calibration Date
THERMOSELECT	IQUANT	1	Thermo Select
FRAMEWORKVERSION	QUANT	6.33	Framework Version
INSTRUMENTVERSION	LABEL	3.50	Instrument Version
ZCURVE	TABLE
	Pt	Time	Freq	Zreal	Zimag	Zsig	Zmod	Zphz	Idc	Vdc	IERange
	#	s	Hz	ohm	ohm	V	ohm	°	A	V	#
	0	2	1000078	2286.283	-1754.128	1	2881.676	-37.49686	-1.764558E-006	0.0050485	8
	1	3	794390.6	2640.601	-1689.853	1	3135.025	-32.61722	1.482703E-006	0.0047517	8
	2	5	630984.4	2970.981	-1565.125	1	3358.027	-27.78045	-1.302972E-006	0.0050991	8
	3	6	501234.4	3231.31	-1419.32	1	3529.283	-23.713	-1.293361E-006	0.0050365	8
	4	7	398109.4	3449.176	-1250.929	1	3669.01	-19.93443	-1.685954E-007	0.0046611	8
	5	9	316265.6	3618.078	-1081.058	1	3776.132	-16.6358	6.523227E-007	0.0045136	8
	6	10	251203.1	3728.619	-923.3172	1	3841.239	-13.90836	-6.431318E-007	0.0047184	8
	7	11	199546.9	3833.145	-804.7682	1	3916.715	-11.85703	6.773332E-007	0.0044885	8
	8	12	158578.1	3907.133	-702.1495	1	3969.723	-10.18786	2.336107E-006	0.004116	8
	9	14	125953.1	3978.697	-593.8864	1	4022.776	-8.489662	5.814741E-007	0.0028712	7
	10	15	100078.1	4021.306	-525.0873	1	4055.444	-7.439381	6.621605E-008	0.0044891	7
	11	16	79453.13	4060.352	-484.3488	1	4089.139	-6.80252	-7.66749E-009	0.0045922	7
	12	18	63140.62	4097.175	-456.1887	1	4122.493	-6.353273	7.029854E-009	0.0045151	7
	13	19	50203.12	4132.459	-440.5164	1	4155.872	-6.0847	-2.387071E-009	0.0045917	7
	14	20	39890.62	4166.241	-436.6993	1	4189.066	-5.983809	-5.884408E-009	0.0045844	7
	15	22	31640.63	4201.647	-445.5048	1	4225.2	-6.052513	-3.750903E-008	0.0046264	7
	16	23	25171.88	4238.075	-466.4186	1	4263.663	-6.280376	-1.21993E-008	0.0045503	7
	17	24	20015.62	4276.667	-498.7431	1	4305.651	-6.651762	-3.659171E-008	0.0046816	7
	18	26	15890.62	4317.22	-544.3463	1	4351.402	-7.186342	2.669879E-009	0.0046218	7
	19	27	12609.37	4363.302	-602.9651	1	4404.767	-7.867879	-1.143048E-008	0.0045496	7
	20	28	10078.13	4410.549	-677.2183	1	4462.238	-8.729313	-4.006034E-009	0.0045787	7
	21	30	8015.625	4463.766	-770.1538	1	4529.718	-9.78913	-3.960696E-009	0.0045791	7
	22	31	6328.125	4525.874	-889.7416	1	4612.502	-11.12195	6.754123E-008	0.0044756	7
	23	32	5015.625	4594.214	-1031.984	1	4708.694	-12.66003	-3.731213E-008	0.0046138	7
	24	34	3984.375	4667.345	-1203.658	1	4820.052	-14.46087	6.674579E-008	0.0044734	7
	25	35	3170.956	4750.637	-1411.049	1	4955.766	-16.54264	8.764463E-009	0.004508	7
	26	36	2527.573	4841.766	-1661.305	1	5118.85	-18.9381	-3.713806E-009	0.0045806	7
	27	38	1976.103	4955.286	-1992.622	1	5340.917	-21.90607	1.791642E-009	0.0045189	7
	28	39	1577.524	5073.953	-2363.216	1	5597.302	-24.97396	6.814756E-008	0.0044697	7
	29	40	1265.625	5192.785	-2790.688	1	5895.164	-28.25431	1.99363E-008	0.0045013	7
	30	42	998.264	5364.476	-3379.665	1	6340.327	-32.21127	1.961559E-008	0.0045022	7
	31	43	796.875	5540.559	-4053.787	1	6865.201	-36.19132	-4.670039E-009	0.0045737	7
	32	44	627.7902	5762.432	-4917.52	1	7575.462	-40.47664	1.9306E-008	0.0045001	7
	33	46	505.5147	5988.075	-5885.004	1	8395.851	-44.50262	-5.278574E-009	0.0045737	7
	34	47	397.9953	6293.705	-7185.46	1	9552.04	-48.78506	5.275741E-009	0.0045796	7
	35	48	315.5048	6643.821	-8739.677	1	10978.26	-52.75824	1.052398E-009	0.0045177	6
	36	50	252.4038	7042.57	-10566.43	1	12698.32	-56.31638	1.562799E-009	0.0045183	6
	37	51	198.6229	7559.809	-12976.26	1	15017.79	-59.77544	9.445844E-010	0.0045152	6
	38	52	158.3615	8153.189	-15776.96	1	17759.14	-62.67107	1.345609E-009	0.0045166	6
	39	54	125.558	8901.846	-19299.94	1	21253.95	-65.2391	1.050417E-009	0.0045163	6
	40	55	100.4464	9792.22	-23464.18	1	25425.48	-67.34795	8.408249E-010	0.0045098	6
	41	56	79.00281	10990.05	-28960.81	1	30975.95	-69.21925	1.112198E-009	0.0045111	6
	42	58	63.3446	12660.36	-35022.37	1	37240.45	-70.1254	5.535853E-010	0.0045117	6
	43	59	49.86702	14395.74	-43428.65	1	45752.43	-71.66065	1.163508E-009	0.0045034	6
	44	61	39.72458	17056.6	-52773.81	1	55461.73	-72.08907	9.671921E-010	0.0045133	6
	45	62	31.6723	20269.36	-64309.52	1	67428.19	-72.50596	4.24685E-010	0.0045114	6
	46	63	24.93351	24894.66	-78892.01	1	82726.62	-72.48672	6.839568E-010	0.0045136	6
	47	65	19.86229	30655.08	-95613.7	1	100407.8	-72.22343	8.165682E-010	0.0045169	6
	48	66	15.83615	38580.73	-114672.8	1	120989	-71.40491	1.397729E-009	0.0045165	5
	49	67	12.40079	49552.29	-141827.4	1	150234.6	-70.74138	9.644276E-010	0.0045254	5
	50	69	9.93114	62669.2	-168022.2	1	179329	-69.54541	9.961589E-010	0.0045153	5
	51	70	7.944915	79760.34	-199668.8	1	215010.1	-68.22511	3.328102E-010	0.0045209	5
	52	72	6.317385	102324.3	-236187.2	1	257399.8	-66.5761	5.076526E-010	0.0045268	5
	53	74	5.008013	131527.4	-277807.9	1	307370.6	-64.66492	5.828745E-010	0.0045268	5
	54	76	3.945707	169489	-324574.8	1	366162.9	-62.42698	1.342296E-010	0.0045191	5
	55	79	3.158693	212057.1	-370707.4	1	427073.9	-60.22899	2.062608E-011	0.004506	5
	56	82	2.504006	264095.2	-420955.8	1	496940.7	-57.89706	5.950808E-010	0.0045227	5
	57	85	1.998082	322866.7	-471008.9	1	571044.9	-55.57018	3.71713E-010	0.0045558	5
	58	88	1.584686	386655.6	-523272.5	1	650627.9	-53.53863	3.941614E-010	0.0045199	5
	59	92	1.266892	456362.4	-575281.3	1	734312.7	-51.57553	1.243712E-010	0.0045574	5
	60	96	0.999041	530648.6	-633702.8	1	826539.3	-50.05795	1.31815E-010	0.0044725	5
