EXPLAIN
TAG	EISPOT
TITLE	LABEL	Potentiostatic EIS	Test &Identifier
DATE	LABEL	10/26/2019	Date
TIME	LABEL	9:54:52	Time
NOTES	NOTES	1	&Notes...
	
PSTAT	PSTAT	REF600-11020	Potentiostat
VDC	POTEN	0.00000E+000	T	DC &Voltage (V)
FREQINIT	QUANT	1.00000E+006	Initial Fre&q. (Hz)
FREQFINAL	QUANT	1.00000E+000	Final Fre&q. (Hz)
PTSPERDEC	QUANT	1.00000E+001	Points/&decade
VAC	QUANT	2.50000E+001	AC &Voltage (mV rms)
AREA	QUANT	1.00000E-002	&Area (cm^2)
CONDIT	TWOPARAM	T	5.00000E+000	0.00000E+000	Conditionin&g	Time(s)	E(V)
DELAY	TWOPARAM	T	5.00000E+000	0.00000E+000	Init. De&lay	Time(s)	Stab.(mV/s)
SPEED	SELECTOR	0	&Optimize for:
ZGUESS	QUANT	1.00000E+005	E&stimated Z (ohms)
OCVCURVE	TABLE	19
	Pt	T	Vf	Vm	Ach	Over
	#	s	V vs. Ref.	V	V	bits
	0	0.258333	5.98845E-003	5.98845E-003	5.27033E-004	...........
	1	0.516667	5.98959E-003	6.04842E-003	5.24766E-004	...........
	2	0.775	5.99714E-003	6.13189E-003	5.16300E-004	...........
	3	1.03333	6.01998E-003	6.20231E-003	5.24966E-004	...........
	4	1.29167	6.06345E-003	6.27654E-003	5.21700E-004	...........
	5	1.55	6.12480E-003	6.37371E-003	5.18800E-004	...........
	6	1.80833	6.19816E-003	6.46920E-003	5.25200E-004	...........
	7	2.06667	6.27994E-003	6.55889E-003	5.32200E-004	...........
	8	2.325	6.36773E-003	6.64582E-003	5.26600E-004	...........
	9	2.58333	6.45840E-003	6.73310E-003	5.27733E-004	...........
	10	2.84167	6.54902E-003	6.82071E-003	5.26000E-004	...........
	11	3.1	6.63834E-003	6.90880E-003	5.19766E-004	...........
	12	3.35833	6.72649E-003	6.99268E-003	5.20166E-004	...........
	13	3.61667	6.81379E-003	7.07719E-003	5.18533E-004	...........
	14	3.875	6.90020E-003	7.15949E-003	5.26533E-004	...........
	15	4.13333	6.98538E-003	7.23630E-003	5.19800E-004	...........
	16	4.39167	7.06900E-003	7.32009E-003	5.30766E-004	...........
	17	4.65	7.15098E-003	7.39392E-003	5.21700E-004	...........
	18	4.90833	7.23153E-003	7.47491E-003	5.18433E-004	...........
EOC	QUANT	0.0072315	Open Circuit (V)
PSTATMODEL	IQUANT	4	Pstat Model
PSTATSECTION	LABEL	REF600-11020	Pstat Section
PSTATSERIALNO	LABEL	11020	Pstat Serial Number
CTRLMODE	IQUANT	1	Control Mode
IESTAB	IQUANT	0	I/E Stability
CASPEED	IQUANT	1	Control Amp Speed
CONVENTION	IQUANT	1	Current Convention
ICHRANGE	IQUANT	2	Ich Range
ICHRANGEMODE	TOGGLE	F	Ich Auto Range
ICHOFFSETENABLE	TOGGLE	T	Ich Offset Enable
ICHOFFSET	QUANT	0	Ich Offset (V)
ICHFILTER	IQUANT	3	Ich Filter
VCHRANGE	IQUANT	2	Vch Range
VCHRANGEMODE	TOGGLE	F	Vch Auto Range
VCHOFFSETENABLE	TOGGLE	T	Vch Offset Enable
VCHOFFSET	QUANT	0	Vch Offset (V)
VCHFILTER	IQUANT	3	Vch Filter
ACHRANGE	IQUANT	2	Ach Range
ACHOFFSETENABLE	TOGGLE	F	Ach Offset Enable
ACHOFFSET	QUANT	0	Ach Offset (V)
ACHFILTER	IQUANT	3	Ach Filter
IERANGELOWERLIMIT	IQUANT	1	I/E Range Lower Limit
IERANGEMODE	TOGGLE	F	I/E AutoRange
IERANGE	IQUANT	5	I/E Range
POSFEEDENABLE	TOGGLE	F	Positive Feedback IR Comp
POSFEEDRESISTANCE	QUANT	0	Positive Feedback Resistance (ohm)
ACHSELECT	IQUANT	0	Ach Select
CABLEID	IQUANT	14	Cable ID
DCCALDATE	LABEL	8/19/2019	DC Calibration Date
ACCALDATE	LABEL	8/19/2019	AC Calibration Date
THERMOSELECT	IQUANT	1	Thermo Select
FRAMEWORKVERSION	QUANT	6.33	Framework Version
INSTRUMENTVERSION	LABEL	3.50	Instrument Version
ZCURVE	TABLE
	Pt	Time	Freq	Zreal	Zimag	Zsig	Zmod	Zphz	Idc	Vdc	IERange
	#	s	Hz	ohm	ohm	V	ohm	°	A	V	#
	0	2	1000078	2013.855	-925.0497	1	2216.152	-24.67134	8.858213E-007	0.0095732	8
	1	2	794390.6	2163.925	-821.0356	1	2314.448	-20.77773	-4.347974E-006	0.0099122	8
	2	2	630984.4	2286.195	-726.9474	1	2398.987	-17.63924	1.267264E-006	0.0090452	8
	3	3	501234.4	2378.424	-629.5671	1	2460.337	-14.82612	-1.797295E-006	0.009238	8
	4	3	398109.4	2448.41	-546.6388	1	2508.69	-12.58561	8.590751E-007	0.0088414	8
	5	3	316265.6	2498.089	-477.9855	1	2543.406	-10.83208	-2.030826E-006	0.0093789	8
	6	4	251203.1	2547.444	-412.4664	1	2580.62	-9.197161	7.069791E-007	0.0088066	8
	7	4	199546.9	2576.593	-368.5712	1	2602.821	-8.140704	-8.639818E-007	0.009148	8
	8	4	158578.1	2611.03	-341.1362	1	2633.221	-7.443642	-3.049382E-006	0.0093896	8
	9	5	125953.1	2642.563	-280.3743	1	2657.395	-6.056387	3.824878E-007	0.0079086	7
	10	5	100078.1	2665.55	-259.4427	1	2678.146	-5.559188	-7.823845E-009	0.0088379	7
	11	5	79453.13	2687.301	-258.4616	1	2699.702	-5.493745	-8.749041E-009	0.0088504	7
	12	6	63140.62	2711.298	-262.8051	1	2724.005	-5.536363	-1.313083E-008	0.0088456	7
	13	6	50203.12	2736.718	-272.3408	1	2750.236	-5.683002	7.930075E-010	0.0087906	7
	14	6	39890.62	2763.528	-286.4335	1	2778.332	-5.91745	4.46709E-008	0.0087236	7
	15	6	31640.63	2793.089	-306.34	1	2809.838	-6.259062	7.168396E-008	0.0087438	7
	16	7	25171.88	2824.208	-331.8165	1	2843.634	-6.700965	9.204457E-008	0.0086666	7
	17	7	20015.62	2857.878	-364.5329	1	2881.033	-7.269036	8.723812E-009	0.0087465	7
	18	7	15890.62	2897.628	-401.4367	1	2925.303	-7.887536	-5.480354E-008	0.0088747	7
	19	8	12609.37	2939.737	-446.7699	1	2973.492	-8.641466	-2.356178E-008	0.0087968	7
	20	8	10078.13	2984.08	-498.7235	1	3025.469	-9.488041	3.684046E-009	0.0088762	7
	21	8	8015.625	3027.777	-558.4816	1	3078.853	-10.4509	-4.491316E-008	0.008856	7
	22	9	6328.125	3086.759	-636.7614	1	3151.753	-11.65593	7.003219E-008	0.0087389	7
	23	9	5015.625	3142.574	-725.5139	1	3225.236	-12.99989	-2.448695E-008	0.008797	7
	24	9	3984.375	3205.719	-828.944	1	3311.16	-14.49814	6.987434E-008	0.0087417	7
	25	10	3170.956	3262.129	-960.446	1	3400.58	-16.40564	7.245129E-008	0.0087439	7
	26	10	2527.573	3325.342	-1115.156	1	3507.346	-18.53892	-6.804864E-009	0.008786	7
	27	10	1976.103	3398.072	-1325.821	1	3647.56	-21.31417	8.205012E-009	0.0087348	7
	28	11	1577.524	3485.504	-1547.834	1	3813.729	-23.94493	6.13341E-008	0.0086724	7
	29	11	1265.625	3545.013	-1850.548	1	3998.956	-27.56522	-1.211965E-008	0.0088361	7
	30	11	998.264	3634.71	-2233.759	1	4266.24	-31.57335	2.254716E-009	0.0087803	7
	31	12	796.875	3733.784	-2685.59	1	4599.298	-35.72625	3.596505E-008	0.0086826	7
	32	12	627.7902	3851.114	-3281.935	1	5059.859	-40.43777	-4.415959E-008	0.0088516	7
	33	12	505.5147	3977.93	-3953.071	1	5608.092	-44.82041	7.028535E-008	0.0087332	7
	34	13	397.9953	4153.17	-4867.404	1	6398.472	-49.52713	3.333248E-009	0.0088176	7
	35	13	315.5048	4363.006	-5968.332	1	7393.024	-53.83222	7.830322E-010	0.0088185	7
	36	13	252.4038	4618.213	-7271.112	1	8613.766	-57.57852	2.078356E-009	0.0088128	7
	37	13	198.6229	4969.968	-8990.243	1	10272.54	-61.06539	1.87283E-009	0.0088141	7
	38	14	158.3615	5403.968	-10993.55	1	12249.94	-63.8232	-4.814436E-010	0.0087492	6
	39	14	125.558	5979.45	-13496.29	1	14761.56	-66.10455	-6.308287E-011	0.0087491	6
	40	14	100.4464	6711.702	-16413.03	1	17732.3	-67.7591	1.358785E-009	0.0087484	6
	41	15	79.00281	7765.372	-20242.11	1	21680.5	-69.01196	-1.650087E-010	0.0087454	6
	42	15	63.3446	8762.811	-24637.81	1	26149.73	-70.4213	-5.137266E-010	0.0087489	6
	43	16	49.86702	10542.5	-30107.44	1	31899.88	-70.70165	-2.44484E-010	0.0087481	6
	44	16	39.72458	12870.51	-36461.27	1	38666.19	-70.55742	-2.521014E-010	0.0087539	6
	45	16	31.6723	15798.09	-43922.52	1	46677.27	-70.21731	-1.073943E-009	0.0087513	6
	46	17	24.93351	19465.26	-53245.68	1	56692.14	-69.91888	7.214207E-010	0.0087522	6
	47	17	19.86229	24002.72	-63727.54	1	68097.94	-69.36132	1.83781E-009	0.0087576	6
	48	17	15.83615	30280.09	-76532.27	1	82304.75	-68.41371	-2.445802E-009	0.0087538	6
	49	17	12.40079	38402.67	-91445.41	1	99181.8	-67.21994	8.66416E-010	0.0087542	6
	50	18	9.93114	46611.58	-106738.4	1	116472	-66.4096	-8.933714E-010	0.0087632	5
	51	18	7.944915	57328.49	-124640.8	1	137192.9	-65.29995	1.507279E-010	0.0087477	5
	52	19	6.317385	70283.86	-145956.4	1	161997.2	-64.28732	2.301148E-010	0.0087435	5
	53	20	5.008013	86208.9	-170244.7	1	190827.8	-63.14316	-1.313263E-010	0.008743	5
	54	21	3.945707	104774.1	-198882.7	1	224793.1	-62.21914	2.108267E-010	0.0087498	5
	55	22	3.158693	125414.2	-228892.3	1	260998.8	-61.28087	-3.458616E-010	0.0087502	5
	56	24	2.504006	149546.2	-264631	1	303963.2	-60.52867	-2.917489E-010	0.0087382	5
	57	25	1.998082	176510.5	-304294.4	1	351782.7	-59.88348	2.679567E-011	0.0087855	5
	58	27	1.584686	206610.5	-351368.5	1	407612.2	-59.54377	-7.493298E-011	0.0087605	5
	59	29	1.266892	240878.7	-403388.1	1	469834.5	-59.15693	-1.551947E-010	0.0087213	5
	60	31	0.999041	282645.5	-468764.6	1	547383.6	-58.91178	-2.16313E-010	0.008702	5
