EXPLAIN
TAG	EISPOT
TITLE	LABEL	Potentiostatic EIS	Test &Identifier
DATE	LABEL	9/26/2019	Date
TIME	LABEL	10:18:21	Time
NOTES	NOTES	2	&Notes...
	
	
PSTAT	PSTAT	REF600-11020	Potentiostat
VDC	POTEN	0.00000E+000	T	DC &Voltage (V)
FREQINIT	QUANT	1.00000E+006	Initial Fre&q. (Hz)
FREQFINAL	QUANT	1.00000E+000	Final Fre&q. (Hz)
PTSPERDEC	QUANT	1.00000E+001	Points/&decade
VAC	QUANT	2.50000E+001	AC &Voltage (mV rms)
AREA	QUANT	1.00000E-002	&Area (cm^2)
CONDIT	TWOPARAM	T	5.00000E+000	0.00000E+000	Conditionin&g	Time(s)	E(V)
DELAY	TWOPARAM	T	5.00000E+000	0.00000E+000	Init. De&lay	Time(s)	Stab.(mV/s)
SPEED	SELECTOR	1	&Optimize for:
ZGUESS	QUANT	1.00000E+004	E&stimated Z (ohms)
OCVCURVE	TABLE	19
	Pt	T	Vf	Vm	Ach	Over
	#	s	V vs. Ref.	V	V	bits
	0	0.258333	4.29143E-002	4.29143E-002	5.41299E-004	...........
	1	0.516667	4.29625E-002	4.54361E-002	5.36299E-004	...........
	2	0.775	4.32560E-002	4.77051E-002	5.42233E-004	...........
	3	1.03333	4.40760E-002	4.97457E-002	5.50066E-004	...........
	4	1.29167	4.55149E-002	5.16074E-002	5.43899E-004	...........
	5	1.55	4.73761E-002	5.33107E-002	5.42166E-004	...........
	6	1.80833	4.93672E-002	5.48844E-002	5.51299E-004	...........
	7	2.06667	5.12871E-002	5.63425E-002	5.47066E-004	...........
	8	2.325	5.30569E-002	5.76847E-002	5.42666E-004	...........
	9	2.58333	5.46713E-002	5.89340E-002	5.45166E-004	...........
	10	2.84167	5.61500E-002	6.01129E-002	5.45599E-004	...........
	11	3.1	5.75144E-002	6.12078E-002	5.41699E-004	...........
	12	3.35833	5.87823E-002	6.22419E-002	5.32966E-004	...........
	13	3.61667	5.99661E-002	6.32091E-002	5.32266E-004	...........
	14	3.875	6.10749E-002	6.41235E-002	5.38766E-004	...........
	15	4.13333	6.21154E-002	6.49874E-002	5.35566E-004	...........
	16	4.39167	6.30940E-002	6.58130E-002	5.38166E-004	...........
	17	4.65	6.40168E-002	6.65915E-002	5.36766E-004	...........
	18	4.90833	6.48898E-002	6.73352E-002	5.41933E-004	...........
EOC	QUANT	0.0648898	Open Circuit (V)
PSTATMODEL	IQUANT	4	Pstat Model
PSTATSECTION	LABEL	REF600-11020	Pstat Section
PSTATSERIALNO	LABEL	11020	Pstat Serial Number
CTRLMODE	IQUANT	1	Control Mode
IESTAB	IQUANT	0	I/E Stability
CASPEED	IQUANT	1	Control Amp Speed
CONVENTION	IQUANT	1	Current Convention
ICHRANGE	IQUANT	2	Ich Range
ICHRANGEMODE	TOGGLE	F	Ich Auto Range
ICHOFFSETENABLE	TOGGLE	T	Ich Offset Enable
ICHOFFSET	QUANT	0	Ich Offset (V)
ICHFILTER	IQUANT	3	Ich Filter
VCHRANGE	IQUANT	2	Vch Range
VCHRANGEMODE	TOGGLE	F	Vch Auto Range
VCHOFFSETENABLE	TOGGLE	T	Vch Offset Enable
VCHOFFSET	QUANT	0	Vch Offset (V)
VCHFILTER	IQUANT	3	Vch Filter
ACHRANGE	IQUANT	2	Ach Range
ACHOFFSETENABLE	TOGGLE	F	Ach Offset Enable
ACHOFFSET	QUANT	0	Ach Offset (V)
ACHFILTER	IQUANT	3	Ach Filter
IERANGELOWERLIMIT	IQUANT	1	I/E Range Lower Limit
IERANGEMODE	TOGGLE	F	I/E AutoRange
IERANGE	IQUANT	7	I/E Range
POSFEEDENABLE	TOGGLE	F	Positive Feedback IR Comp
POSFEEDRESISTANCE	QUANT	0	Positive Feedback Resistance (ohm)
ACHSELECT	IQUANT	0	Ach Select
CABLEID	IQUANT	14	Cable ID
DCCALDATE	LABEL	8/19/2019	DC Calibration Date
ACCALDATE	LABEL	8/19/2019	AC Calibration Date
THERMOSELECT	IQUANT	1	Thermo Select
FRAMEWORKVERSION	QUANT	6.33	Framework Version
INSTRUMENTVERSION	LABEL	3.50	Instrument Version
ZCURVE	TABLE
	Pt	Time	Freq	Zreal	Zimag	Zsig	Zmod	Zphz	Idc	Vdc	IERange
	#	s	Hz	ohm	ohm	V	ohm	°	A	V	#
	0	1	1000078	2035.301	-2169.896	1	2975.046	-46.83323	-1.132255E-006	0.0668263	8
	1	3	794390.6	2434.223	-2360.542	1	3390.812	-44.11961	1.117147E-007	0.0669276	8
	2	5	630984.4	2860.713	-2561.616	1	3839.994	-41.84275	-1.305407E-009	0.0668804	8
	3	6	501234.4	3348.705	-2691.876	1	4296.513	-38.79427	-2.507084E-006	0.0671863	8
	4	8	398109.4	3854.904	-2626.72	1	4664.755	-34.2704	-2.916313E-006	0.0670838	8
	5	9	316265.6	4321.88	-2572.954	1	5029.786	-30.7667	1.528941E-006	0.0661228	8
	6	11	251203.1	4819.014	-2446.502	1	5404.467	-26.91586	-2.296864E-006	0.067013	8
	7	12	199546.9	5209.659	-2292.146	1	5691.615	-23.74854	1.375612E-006	0.0661206	8
	8	14	158578.1	5586.093	-2141.463	1	5982.5	-20.97464	-3.213254E-006	0.0672321	8
	9	15	125953.1	5974.138	-1851.775	1	6254.55	-17.22162	-1.486918E-006	0.069667	7
	10	17	100078.1	6221.924	-1673.712	1	6443.109	-15.05628	4.503034E-008	0.0664788	7
	11	19	79453.13	6434.001	-1500.153	1	6606.575	-13.12462	-3.085252E-008	0.0665161	7
	12	20	63140.62	6615.102	-1336.232	1	6748.71	-11.41992	9.786238E-008	0.0664647	7
	13	22	50203.12	6753.214	-1193.473	1	6857.863	-10.02221	-1.063368E-008	0.0665496	7
	14	23	39890.62	6870.068	-1071.425	1	6953.113	-8.864191	-6.036451E-008	0.0665698	7
	15	25	31640.63	6973.435	-973.55	1	7041.065	-7.947606	6.533411E-008	0.0664193	7
	16	26	25171.88	7056.108	-901.2664	1	7113.434	-7.278893	1.201251E-007	0.0664035	7
	17	28	20015.62	7127.398	-851.5992	1	7178.093	-6.813541	-7.007149E-009	0.0665744	7
	18	29	15890.62	7190.504	-825.355	1	7237.718	-6.547983	9.063569E-008	0.0663227	7
	19	31	12609.37	7250.276	-829.0001	1	7297.516	-6.5229	-4.371144E-008	0.0665301	7
	20	33	10078.13	7306.746	-854.4453	1	7356.535	-6.669832	-4.504079E-008	0.0665634	7
	21	34	8015.625	7361.946	-909.4872	1	7417.912	-7.042579	8.480527E-008	0.0663392	7
	22	36	6328.125	7427.267	-989.792	1	7492.929	-7.590779	-2.605078E-009	0.0665611	7
	23	37	5015.625	7483.662	-1105.02	1	7564.805	-8.399467	-5.303928E-008	0.0666967	7
	24	39	3984.375	7551.289	-1254.885	1	7654.848	-9.435279	-4.091676E-008	0.0665581	7
	25	40	3170.956	7625.631	-1449.107	1	7762.098	-10.75969	6.920518E-008	0.0664042	7
	26	42	2527.573	7702.374	-1691.817	1	7885.988	-12.38823	-4.071981E-008	0.0665496	7
	27	43	1976.103	7802.045	-2021.952	1	8059.789	-14.52895	9.10731E-009	0.0664343	7
	28	45	1577.524	7906.531	-2403.339	1	8263.732	-16.90763	-7.081082E-009	0.066547	7
	29	47	1265.625	8020.668	-2820.237	1	8502.05	-19.37276	-3.956885E-008	0.0665558	7
	30	48	998.264	8179.078	-3449.046	1	8876.556	-22.86473	1.439221E-007	0.0663161	7
	31	50	796.875	8345.156	-4149.716	1	9319.967	-26.43934	1.453998E-007	0.0663075	7
	32	51	627.7902	8563.475	-5046.438	1	9939.8	-30.51076	-7.531101E-009	0.0665428	6
	33	52	505.5147	8792.616	-6048.678	1	10672.24	-34.52513	2.869674E-009	0.0662452	6
	34	54	397.9953	9102.342	-7403.144	1	11732.82	-39.12225	3.417967E-010	0.0664763	6
	35	55	315.5048	9463.923	-9017.069	1	13071.85	-43.61491	-1.280676E-009	0.0664787	6
	36	56	252.4038	9891.73	-10911.32	1	14727.64	-47.80591	3.93534E-010	0.0664727	6
	37	58	198.6229	10453.81	-13399.71	1	16995.13	-52.04036	-1.754803E-010	0.0664796	6
	38	59	158.3615	11110.55	-16280.81	1	19710.63	-55.68912	-4.762841E-010	0.0664839	6
	39	61	125.558	11957.98	-19897.81	1	23214.57	-58.99541	-6.605076E-011	0.0664816	6
	40	62	100.4464	12973.39	-24103.47	1	27373.09	-61.70921	-1.297184E-009	0.06648	6
	41	63	79.00281	14371.8	-29626.78	1	32928.63	-64.12221	-1.448806E-009	0.0664788	6
	42	65	63.3446	16282.23	-35556.63	1	39107.35	-65.39582	-8.665937E-010	0.0664766	6
	43	66	49.86702	18419.88	-44611.42	1	48264.59	-67.56446	2.563628E-010	0.0664757	6
	44	68	39.72458	21327.31	-53799.9	1	57872.99	-68.37568	-9.182017E-010	0.06648	6
	45	69	31.6723	25195.99	-65209.52	1	69907.93	-68.87421	-7.362889E-010	0.0664764	6
	46	71	24.93351	30380.21	-79628.34	1	85226.93	-69.11689	-9.012449E-010	0.0664765	6
	47	72	19.86229	37162.87	-95790.7	1	102747	-68.79579	9.167285E-013	0.0664811	6
	48	73	15.83615	46695.34	-114307.4	1	123477.3	-67.77966	-1.252606E-009	0.0664853	5
	49	75	12.40079	57358.12	-139782.1	1	151092.6	-67.68971	2.288792E-010	0.0664874	5
	50	76	9.93114	73442.13	-163687.1	1	179408	-65.83547	-6.828219E-010	0.0664853	5
	51	78	7.944915	93359.71	-192140.8	1	213621.5	-64.08525	-5.97578E-010	0.0664817	5
	52	80	6.317385	115913.7	-223318.5	1	251609	-62.56838	-7.124877E-010	0.0664686	5
	53	82	5.008013	145493.6	-258198.5	1	296369.4	-60.59895	-7.766696E-010	0.0664867	5
	54	84	3.945707	180566.4	-296146.3	1	346852.8	-58.62849	-9.861274E-010	0.0664816	5
	55	87	3.158693	219137	-334067	1	399526.9	-56.73644	-3.938698E-010	0.0664976	5
	56	90	2.504006	263988.2	-376011.1	1	459428	-54.92825	-9.649835E-010	0.0664861	5
	57	93	1.998082	311699.7	-417547.9	1	521059.4	-53.25865	-5.201938E-010	0.0664435	5
	58	96	1.584686	363390	-465524.1	1	590563.3	-52.02426	-6.819673E-010	0.066485	5
	59	100	1.266892	419173.5	-515517.8	1	664428.3	-50.88504	-4.557224E-010	0.0664418	5
	60	104	0.999041	480809.4	-577097.1	1	751145	-50.20057	-4.195449E-010	0.0665233	5
