EXPLAIN
TAG	EISPOT
TITLE	LABEL	Potentiostatic EIS	Test &Identifier
DATE	LABEL	10/4/2019	Date
TIME	LABEL	10:07:41	Time
NOTES	NOTES	2	&Notes...
	
	
PSTAT	PSTAT	REF600-11020	Potentiostat
VDC	POTEN	0.00000E+000	T	DC &Voltage (V)
FREQINIT	QUANT	1.00000E+006	Initial Fre&q. (Hz)
FREQFINAL	QUANT	1.00000E+000	Final Fre&q. (Hz)
PTSPERDEC	QUANT	1.00000E+001	Points/&decade
VAC	QUANT	2.50000E+001	AC &Voltage (mV rms)
AREA	QUANT	1.00000E-002	&Area (cm^2)
CONDIT	TWOPARAM	T	5.00000E+000	0.00000E+000	Conditionin&g	Time(s)	E(V)
DELAY	TWOPARAM	T	5.00000E+000	0.00000E+000	Init. De&lay	Time(s)	Stab.(mV/s)
SPEED	SELECTOR	1	&Optimize for:
ZGUESS	QUANT	1.00000E+004	E&stimated Z (ohms)
OCVCURVE	TABLE	19
	Pt	T	Vf	Vm	Ach	Over
	#	s	V vs. Ref.	V	V	bits
	0	0.258333	6.37165E-003	6.37165E-003	5.58366E-004	...........
	1	0.516667	6.37028E-003	6.29993E-003	5.54999E-004	...........
	2	0.775	6.36175E-003	6.22556E-003	5.54033E-004	...........
	3	1.03333	6.33770E-003	6.18078E-003	5.55033E-004	...........
	4	1.29167	6.29612E-003	6.13818E-003	5.55099E-004	...........
	5	1.55	6.24471E-003	6.10584E-003	5.56566E-004	...........
	6	1.80833	6.19377E-003	6.07835E-003	5.52599E-004	...........
	7	2.06667	6.14948E-003	6.05824E-003	5.59532E-004	...........
	8	2.325	6.11340E-003	6.03884E-003	5.52199E-004	...........
	9	2.58333	6.08464E-003	6.02415E-003	5.58966E-004	...........
	10	2.84167	6.06159E-003	6.01483E-003	5.51399E-004	...........
	11	3.1	6.04299E-003	6.00254E-003	5.52966E-004	...........
	12	3.35833	6.02790E-003	5.99471E-003	5.52166E-004	...........
	13	3.61667	6.01545E-003	5.98558E-003	5.47833E-004	...........
	14	3.875	6.00487E-003	5.98150E-003	5.50999E-004	...........
	15	4.13333	5.99581E-003	5.97459E-003	5.48799E-004	...........
	16	4.39167	5.98816E-003	5.97312E-003	5.49799E-004	...........
	17	4.65	5.98187E-003	5.96740E-003	5.55099E-004	...........
	18	4.90833	5.97676E-003	5.96665E-003	5.48199E-004	...........
EOC	QUANT	0.0059768	Open Circuit (V)
PSTATMODEL	IQUANT	4	Pstat Model
PSTATSECTION	LABEL	REF600-11020	Pstat Section
PSTATSERIALNO	LABEL	11020	Pstat Serial Number
CTRLMODE	IQUANT	1	Control Mode
IESTAB	IQUANT	0	I/E Stability
CASPEED	IQUANT	1	Control Amp Speed
CONVENTION	IQUANT	1	Current Convention
ICHRANGE	IQUANT	2	Ich Range
ICHRANGEMODE	TOGGLE	F	Ich Auto Range
ICHOFFSETENABLE	TOGGLE	T	Ich Offset Enable
ICHOFFSET	QUANT	0	Ich Offset (V)
ICHFILTER	IQUANT	3	Ich Filter
VCHRANGE	IQUANT	2	Vch Range
VCHRANGEMODE	TOGGLE	F	Vch Auto Range
VCHOFFSETENABLE	TOGGLE	T	Vch Offset Enable
VCHOFFSET	QUANT	0	Vch Offset (V)
VCHFILTER	IQUANT	3	Vch Filter
ACHRANGE	IQUANT	2	Ach Range
ACHOFFSETENABLE	TOGGLE	F	Ach Offset Enable
ACHOFFSET	QUANT	0	Ach Offset (V)
ACHFILTER	IQUANT	3	Ach Filter
IERANGELOWERLIMIT	IQUANT	1	I/E Range Lower Limit
IERANGEMODE	TOGGLE	F	I/E AutoRange
IERANGE	IQUANT	6	I/E Range
POSFEEDENABLE	TOGGLE	F	Positive Feedback IR Comp
POSFEEDRESISTANCE	QUANT	0	Positive Feedback Resistance (ohm)
ACHSELECT	IQUANT	0	Ach Select
CABLEID	IQUANT	14	Cable ID
DCCALDATE	LABEL	8/19/2019	DC Calibration Date
ACCALDATE	LABEL	8/19/2019	AC Calibration Date
THERMOSELECT	IQUANT	1	Thermo Select
FRAMEWORKVERSION	QUANT	6.33	Framework Version
INSTRUMENTVERSION	LABEL	3.50	Instrument Version
ZCURVE	TABLE
	Pt	Time	Freq	Zreal	Zimag	Zsig	Zmod	Zphz	Idc	Vdc	IERange
	#	s	Hz	ohm	ohm	V	ohm	°	A	V	#
	0	2	1000078	2608.459	-1856.3	1	3201.547	-35.43741	-3.460395E-007	0.0087179	8
	1	3	794390.6	2981.856	-1789.232	1	3477.473	-30.96543	-2.850361E-007	0.0080961	8
	2	4	630984.4	3321.565	-1685.867	1	3724.908	-26.91016	-6.26874E-008	0.0077396	8
	3	6	501234.4	3606.963	-1527.437	1	3917.046	-22.95115	1.045982E-006	0.0075473	8
	4	7	398109.4	3858.928	-1372.494	1	4095.738	-19.57881	3.623556E-006	0.0069294	8
	5	8	316265.6	4034.752	-1188.703	1	4206.214	-16.41583	-2.072715E-007	0.007543	8
	6	10	251203.1	4179.837	-1026.276	1	4303.984	-13.79495	1.246164E-006	0.0072968	8
	7	11	199546.9	4282.499	-883.8099	1	4372.747	-11.66083	-7.756599E-007	0.0075662	8
	8	13	158578.1	4369.53	-765.8698	1	4436.141	-9.94154	-4.651191E-007	0.0077273	8
	9	14	125953.1	4465.636	-611.9105	1	4507.365	-7.802449	4.112785E-008	0.0069003	7
	10	15	100078.1	4497.941	-549.6054	1	4531.395	-6.966462	-4.938097E-008	0.0076719	7
	11	17	79453.13	4539.333	-501.108	1	4566.909	-6.299512	-1.176023E-008	0.0075846	7
	12	18	63140.62	4577.512	-467.6188	1	4601.335	-5.832854	-3.987497E-008	0.0075692	7
	13	19	50203.12	4612.012	-446.6803	1	4633.593	-5.531929	4.215808E-008	0.0075057	7
	14	21	39890.62	4647.346	-439.3773	1	4668.07	-5.400901	3.862323E-008	0.0074337	7
	15	22	31640.63	4680.553	-442.2358	1	4701.399	-5.397491	3.838257E-008	0.0074339	7
	16	23	25171.88	4716.896	-457.6117	1	4739.042	-5.541233	1.680463E-008	0.0074702	7
	17	25	20015.62	4752.323	-485.5094	1	4777.059	-5.833244	4.940751E-008	0.0074745	7
	18	26	15890.62	4792.193	-525.9794	1	4820.972	-6.263573	-9.120781E-009	0.0075662	7
	19	27	12609.37	4835.56	-582.1934	1	4870.481	-6.865272	-4.404429E-008	0.007649	7
	20	29	10078.13	4879.761	-648.2687	1	4922.634	-7.567346	-8.856691E-009	0.0075947	7
	21	30	8015.625	4927.882	-735.8606	1	4982.521	-8.49299	1.054683E-007	0.0073975	7
	22	31	6328.125	4983.336	-846.5409	1	5054.728	-9.64105	-2.827652E-008	0.0075523	7
	23	33	5015.625	5041.035	-984.132	1	5136.2	-11.04658	-6.659896E-008	0.0076423	7
	24	34	3984.375	5105.71	-1151.385	1	5233.924	-12.70815	-6.619577E-008	0.0076413	7
	25	35	3170.956	5175.883	-1354.721	1	5350.237	-14.66741	-4.510537E-008	0.0076113	7
	26	37	2527.573	5254.68	-1603.861	1	5494	-16.97351	1.050948E-007	0.0073909	7
	27	38	1976.103	5352.708	-1935.145	1	5691.771	-19.87626	3.992497E-008	0.0074227	7
	28	39	1577.524	5454.504	-2309.931	1	5923.461	-22.95219	4.22956E-008	0.007507	7
	29	41	1265.625	5570.33	-2754.329	1	6214.089	-26.31075	-9.036115E-009	0.0075043	7
	30	42	998.264	5714.583	-3339.139	1	6618.633	-30.29855	-9.416488E-009	0.0075988	7
	31	44	796.875	5870.185	-4022.665	1	7116.242	-34.4217	-6.756377E-008	0.0076422	7
	32	45	627.7902	6066.7	-4904.889	1	7801.46	-38.95533	1.043424E-007	0.0073869	7
	33	46	505.5147	6274.121	-5895.842	1	8609.619	-43.21965	-4.344468E-008	0.0076493	7
	34	48	397.9953	6542.338	-7220.339	1	9743.48	-47.82032	3.877455E-009	0.0075747	7
	35	49	315.5048	6851.236	-8819.013	1	11167.56	-52.1574	8.581578E-010	0.0075113	6
	36	50	252.4038	7200.994	-10709.87	1	12905.64	-56.0843	1.093601E-009	0.0075073	6
	37	52	198.6229	7656.87	-13218.95	1	15276.4	-59.91911	7.922276E-010	0.0075097	6
	38	53	158.3615	8190.182	-16157.97	1	18115.16	-63.12037	5.803327E-010	0.0075075	6
	39	54	125.558	8877.582	-19865.92	1	21759.28	-65.92133	9.316516E-010	0.0075063	6
	40	56	100.4464	9729.05	-24252.36	1	26131.04	-68.14137	4.532739E-010	0.0075065	6
	41	57	79.00281	10871.9	-30051.8	1	31957.93	-70.11129	8.663326E-010	0.0075046	6
	42	58	63.3446	12190.29	-36723.32	1	38693.73	-71.63644	5.735872E-010	0.0075	6
	43	60	49.86702	14345.82	-45185.21	1	47407.86	-72.38591	2.227619E-010	0.0075033	6
	44	61	39.72458	16949.95	-55385.7	1	57921.29	-72.98407	5.474161E-010	0.0075056	6
	45	63	31.6723	20260.44	-67488.94	1	70464.48	-73.29005	3.807056E-010	0.0075041	6
	46	64	24.93351	25054.38	-83085.96	1	86781.33	-73.21944	2.09084E-010	0.0075033	6
	47	65	19.86229	31164.24	-100940.2	1	105641.5	-72.84247	7.698032E-010	0.007509	6
	48	67	15.83615	39468.38	-121954.9	1	128182.4	-72.0668	8.465347E-010	0.0075115	5
	49	68	12.40079	50303.23	-149402.3	1	157643.5	-71.3918	5.402832E-011	0.0075099	5
	50	69	9.93114	64001.49	-177378.3	1	188571.6	-70.15958	6.927251E-010	0.0075135	5
	51	71	7.944915	81193.15	-211032.8	1	226113.2	-68.95618	1.785855E-010	0.0075211	5
	52	73	6.317385	104237	-249681	1	270566	-67.34039	4.564301E-011	0.0075203	5
	53	75	5.008013	133682.9	-294079.7	1	323038.7	-65.55438	-2.136401E-010	0.0075058	5
	54	77	3.945707	170938.1	-344270.5	1	384372.2	-63.59456	4.397955E-010	0.0075158	5
	55	80	3.158693	213507.1	-395988.9	1	449880.5	-61.66758	4.662976E-011	0.0075142	5
	56	83	2.504006	265401.2	-453208.1	1	525200.3	-59.64652	2.711632E-010	0.0075044	5
	57	86	1.998082	321392.6	-512250	1	604725.8	-57.89528	-1.627138E-010	0.007525	5
	58	89	1.584686	388292.6	-577026.4	1	695507.4	-56.0626	1.836931E-010	0.0075507	5
	59	93	1.266892	455789.7	-644479.1	1	789365.3	-54.73121	-1.196477E-010	0.0075245	5
	60	97	0.999041	530246.5	-724893.6	1	898127	-53.81521	2.72138E-010	0.0075177	5
