EXPLAIN
TAG	EISPOT
TITLE	LABEL	Potentiostatic EIS	Test &Identifier
DATE	LABEL	9/20/2019	Date
TIME	LABEL	10:13:34	Time
NOTES	NOTES	1	&Notes...
	
PSTAT	PSTAT	REF600-11020	Potentiostat
VDC	POTEN	0.00000E+000	T	DC &Voltage (V)
FREQINIT	QUANT	1.00000E+006	Initial Fre&q. (Hz)
FREQFINAL	QUANT	1.00000E+000	Final Fre&q. (Hz)
PTSPERDEC	QUANT	1.00000E+001	Points/&decade
VAC	QUANT	2.50000E+001	AC &Voltage (mV rms)
AREA	QUANT	1.00000E-002	&Area (cm^2)
CONDIT	TWOPARAM	T	5.00000E+000	0.00000E+000	Conditionin&g	Time(s)	E(V)
DELAY	TWOPARAM	T	5.00000E+000	0.00000E+000	Init. De&lay	Time(s)	Stab.(mV/s)
SPEED	SELECTOR	1	&Optimize for:
ZGUESS	QUANT	1.00000E+004	E&stimated Z (ohms)
OCVCURVE	TABLE	19
	Pt	T	Vf	Vm	Ach	Over
	#	s	V vs. Ref.	V	V	bits
	0	0.258333	2.85564E-002	2.85564E-002	5.74099E-004	...........
	1	0.516667	2.85844E-002	3.00229E-002	5.68666E-004	...........
	2	0.775	2.87547E-002	3.13228E-002	5.71632E-004	...........
	3	1.03333	2.92294E-002	3.25003E-002	5.73166E-004	...........
	4	1.29167	3.00607E-002	3.35692E-002	5.77632E-004	...........
	5	1.55	3.11342E-002	3.45570E-002	5.73599E-004	...........
	6	1.80833	3.22821E-002	3.54803E-002	5.66632E-004	...........
	7	2.06667	3.33905E-002	3.63287E-002	5.73199E-004	...........
	8	2.325	3.44156E-002	3.71052E-002	5.74032E-004	...........
	9	2.58333	3.53539E-002	3.78431E-002	5.66899E-004	...........
	10	2.84167	3.62146E-002	3.85084E-002	5.65799E-004	...........
	11	3.1	3.70070E-002	3.90657E-002	5.74099E-004	...........
	12	3.35833	3.77360E-002	3.97346E-002	5.69932E-004	...........
	13	3.61667	3.84112E-002	4.03468E-002	5.66032E-004	...........
	14	3.875	3.90511E-002	4.09149E-002	5.68199E-004	...........
	15	4.13333	3.96700E-002	4.14258E-002	5.72232E-004	...........
	16	4.39167	4.02662E-002	4.19032E-002	5.70732E-004	...........
	17	4.65	4.08302E-002	4.23480E-002	5.61066E-004	...........
	18	4.90833	4.13556E-002	4.27825E-002	5.68032E-004	...........
EOC	QUANT	0.0413556	Open Circuit (V)
PSTATMODEL	IQUANT	4	Pstat Model
PSTATSECTION	LABEL	REF600-11020	Pstat Section
PSTATSERIALNO	LABEL	11020	Pstat Serial Number
CTRLMODE	IQUANT	1	Control Mode
IESTAB	IQUANT	0	I/E Stability
CASPEED	IQUANT	1	Control Amp Speed
CONVENTION	IQUANT	1	Current Convention
ICHRANGE	IQUANT	2	Ich Range
ICHRANGEMODE	TOGGLE	F	Ich Auto Range
ICHOFFSETENABLE	TOGGLE	T	Ich Offset Enable
ICHOFFSET	QUANT	0	Ich Offset (V)
ICHFILTER	IQUANT	3	Ich Filter
VCHRANGE	IQUANT	2	Vch Range
VCHRANGEMODE	TOGGLE	F	Vch Auto Range
VCHOFFSETENABLE	TOGGLE	T	Vch Offset Enable
VCHOFFSET	QUANT	0	Vch Offset (V)
VCHFILTER	IQUANT	3	Vch Filter
ACHRANGE	IQUANT	2	Ach Range
ACHOFFSETENABLE	TOGGLE	F	Ach Offset Enable
ACHOFFSET	QUANT	0	Ach Offset (V)
ACHFILTER	IQUANT	3	Ach Filter
IERANGELOWERLIMIT	IQUANT	1	I/E Range Lower Limit
IERANGEMODE	TOGGLE	F	I/E AutoRange
IERANGE	IQUANT	6	I/E Range
POSFEEDENABLE	TOGGLE	F	Positive Feedback IR Comp
POSFEEDRESISTANCE	QUANT	0	Positive Feedback Resistance (ohm)
ACHSELECT	IQUANT	0	Ach Select
CABLEID	IQUANT	14	Cable ID
DCCALDATE	LABEL	8/19/2019	DC Calibration Date
ACCALDATE	LABEL	8/19/2019	AC Calibration Date
THERMOSELECT	IQUANT	1	Thermo Select
FRAMEWORKVERSION	QUANT	6.33	Framework Version
INSTRUMENTVERSION	LABEL	3.50	Instrument Version
ZCURVE	TABLE
	Pt	Time	Freq	Zreal	Zimag	Zsig	Zmod	Zphz	Idc	Vdc	IERange
	#	s	Hz	ohm	ohm	V	ohm	°	A	V	#
	0	1	1000078	2316.641	-1504.365	1	2762.234	-32.99862	-1.242497E-006	0.043431	8
	1	3	794390.6	2598.983	-1441.437	1	2971.945	-29.01344	4.525917E-006	0.0423825	8
	2	4	630984.4	2857.162	-1315.234	1	3145.348	-24.71797	-6.284203E-006	0.0442941	8
	3	5	501234.4	3081.152	-1200.549	1	3306.783	-21.28802	7.439492E-007	0.0430671	8
	4	7	398109.4	3262.959	-1044.115	1	3425.941	-17.74416	-2.110957E-007	0.0430067	8
	5	8	316265.6	3387.139	-921.4005	1	3510.227	-15.21788	-2.252387E-006	0.0433045	8
	6	10	251203.1	3497.031	-804.7524	1	3588.433	-12.95954	-1.098232E-006	0.0431052	8
	7	11	199546.9	3595.353	-710.7814	1	3664.938	-11.18286	4.636227E-006	0.0419593	8
	8	12	158578.1	3646.848	-622.111	1	3699.53	-9.68083	-2.543333E-007	0.04277	8
	9	14	125953.1	3726.382	-506.2781	1	3760.617	-7.737015	1.384964E-006	0.0403336	7
	10	15	100078.1	3761.692	-466.33	1	3790.487	-7.066798	7.354355E-008	0.0427704	7
	11	16	79453.13	3801.058	-438.7451	1	3826.296	-6.584347	7.352958E-008	0.0427618	7
	12	18	63140.62	3840.375	-420.83	1	3863.364	-6.253546	-1.673431E-008	0.0427517	7
	13	19	50203.12	3880.11	-410.817	1	3901.797	-6.043826	-8.229171E-008	0.0429157	7
	14	20	39890.62	3919.532	-409.3159	1	3940.846	-5.961778	1.268946E-007	0.0425996	7
	15	22	31640.63	3960.399	-417.4891	1	3982.343	-6.017663	3.706987E-008	0.0426543	7
	16	23	25171.88	4002.612	-431.8648	1	4025.843	-6.158147	-1.557011E-008	0.0428358	7
	17	25	20015.62	4046.064	-453.3237	1	4071.38	-6.392796	6.232958E-008	0.0426608	7
	18	26	15890.62	4091.832	-484.5523	1	4120.422	-6.753482	-2.140371E-008	0.0429263	7
	19	27	12609.37	4139.626	-525.1924	1	4172.809	-7.23046	1.256647E-007	0.0425936	7
	20	29	10078.13	4189.092	-574.9283	1	4228.361	-7.814688	-2.361184E-008	0.0427634	7
	21	30	8015.625	4240.934	-636.4752	1	4288.428	-8.535194	-4.533196E-008	0.0428038	7
	22	31	6328.125	4296.127	-715.3834	1	4355.282	-9.454045	-1.666713E-008	0.0427463	7
	23	33	5015.625	4355.042	-812.8876	1	4430.256	-10.57284	-5.846503E-008	0.0429458	7
	24	34	3984.375	4416.14	-933.4968	1	4513.724	-11.93565	-8.115092E-008	0.0429038	7
	25	35	3170.956	4482.04	-1080.417	1	4610.421	-13.55286	3.154101E-008	0.0427478	7
	26	37	2527.573	4551.875	-1260.099	1	4723.073	-15.47372	-1.452463E-008	0.0428339	7
	27	38	1976.103	4638.849	-1502.796	1	4876.199	-17.95019	6.337503E-008	0.0426593	7
	28	39	1577.524	4728.75	-1776.242	1	5051.348	-20.58748	-5.082647E-008	0.0428749	7
	29	41	1265.625	4818.604	-2101.288	1	5256.838	-23.56096	3.671045E-008	0.042648	7
	30	42	998.264	4953.079	-2529.805	1	5561.736	-27.05585	-4.798996E-008	0.0428046	7
	31	43	796.875	5093.444	-3028.783	1	5925.935	-30.73755	-4.516165E-008	0.0427958	7
	32	45	627.7902	5266.042	-3675.63	1	6421.951	-34.91454	-1.590175E-008	0.0428279	7
	33	46	505.5147	5455.58	-4386.809	1	7000.532	-38.80262	7.505268E-008	0.0426089	7
	34	48	397.9953	5712.091	-5357.511	1	7831.405	-43.16534	-1.775387E-009	0.0427984	7
	35	49	315.5048	6018.061	-6510.096	1	8865.574	-47.2491	-1.430263E-009	0.0428011	7
	36	50	252.4038	6388.316	-7861.171	1	10129.59	-50.90125	-5.385774E-009	0.0427391	6
	37	52	198.6229	6892.087	-9635.37	1	11846.57	-54.42422	-5.424039E-009	0.0427453	6
	38	53	158.3615	7512.023	-11679.87	1	13887.04	-57.25251	-5.454355E-009	0.0427399	6
	39	54	125.558	8344.542	-14206.99	1	16476.35	-59.57196	-5.439458E-009	0.0427371	6
	40	56	100.4464	9403.375	-17132.96	1	19543.85	-61.23995	-5.249214E-009	0.0427407	6
	41	57	79.00281	10906.85	-20842.78	1	23524.05	-62.37732	-6.091037E-009	0.0427397	6
	42	58	63.3446	12528.48	-24938.52	1	27908.64	-63.3262	-6.027251E-009	0.042735	6
	43	60	49.86702	15346.75	-29982.37	1	33681.82	-62.89395	-5.951067E-009	0.0427281	6
	44	61	39.72458	18464.99	-35712.37	1	40203.59	-62.65889	-5.957516E-009	0.0427365	6
	45	63	31.6723	22473.29	-41968.06	1	47606.38	-61.8316	-5.657784E-009	0.0427384	6
	46	64	24.93351	27841.81	-49579.12	1	56861.73	-60.68303	-6.747968E-009	0.0427363	6
	47	65	19.86229	34068.05	-57464.45	1	66804.16	-59.33823	-6.656236E-009	0.0427404	6
	48	67	15.83615	41834.32	-65428.25	1	77659.3	-57.40546	-5.556549E-009	0.0427425	6
	49	68	12.40079	51707.05	-75827.65	1	91779.37	-55.70983	-8.152257E-009	0.0427433	6
	50	69	9.93114	61688.52	-84851.55	1	104906	-53.98222	-7.510611E-009	0.0427567	5
	51	71	7.944915	73288.55	-94402.28	1	119511.5	-52.17627	-5.016684E-009	0.042747	5
	52	73	6.317385	86798.19	-104863.3	1	136125.8	-50.38453	-5.700741E-009	0.0427573	5
	53	75	5.008013	101958	-115794.3	1	154284.7	-48.63577	-5.589351E-009	0.0427619	5
	54	77	3.945707	119160.6	-127461.6	1	174487	-46.92778	-6.731943E-009	0.0427441	5
	55	80	3.158693	136483.1	-138960.2	1	194775.7	-45.51524	-5.566343E-009	0.0427684	5
	56	83	2.504006	156459.2	-151813.6	1	218006.5	-44.13662	-7.207645E-009	0.0427428	5
	57	86	1.998082	177093.4	-164370	1	241618.6	-42.86607	-6.375377E-009	0.0427099	5
	58	89	1.584686	199530	-178787.2	1	267912.5	-41.86165	-6.626984E-009	0.0427506	5
	59	93	1.266892	223637.8	-193347.8	1	295630.3	-40.84531	-6.15066E-009	0.0427002	5
	60	97	0.999041	250720.3	-210456.8	1	327341.9	-40.01038	-6.130789E-009	0.0427805	5
