EXPLAIN
TAG	EISPOT
TITLE	LABEL	Potentiostatic EIS	Test &Identifier
DATE	LABEL	9/24/2019	Date
TIME	LABEL	9:16:36	Time
NOTES	NOTES	1	&Notes...
	
PSTAT	PSTAT	REF600-11020	Potentiostat
VDC	POTEN	0.00000E+000	T	DC &Voltage (V)
FREQINIT	QUANT	1.00000E+006	Initial Fre&q. (Hz)
FREQFINAL	QUANT	1.00000E+000	Final Fre&q. (Hz)
PTSPERDEC	QUANT	1.00000E+001	Points/&decade
VAC	QUANT	2.50000E+001	AC &Voltage (mV rms)
AREA	QUANT	1.00000E-002	&Area (cm^2)
CONDIT	TWOPARAM	T	5.00000E+000	0.00000E+000	Conditionin&g	Time(s)	E(V)
DELAY	TWOPARAM	T	5.00000E+000	0.00000E+000	Init. De&lay	Time(s)	Stab.(mV/s)
SPEED	SELECTOR	1	&Optimize for:
ZGUESS	QUANT	1.00000E+004	E&stimated Z (ohms)
OCVCURVE	TABLE	19
	Pt	T	Vf	Vm	Ach	Over
	#	s	V vs. Ref.	V	V	bits
	0	0.258333	-5.27053E-003	-5.27053E-003	5.36999E-004	...........
	1	0.516667	-5.28510E-003	-6.03322E-003	5.41999E-004	...........
	2	0.775	-5.37424E-003	-6.73899E-003	5.37666E-004	...........
	3	1.03333	-5.62496E-003	-7.39722E-003	5.43999E-004	...........
	4	1.29167	-6.06953E-003	-8.01332E-003	5.39999E-004	...........
	5	1.55	-6.65343E-003	-8.59330E-003	5.43699E-004	...........
	6	1.80833	-7.29091E-003	-9.14149E-003	5.45899E-004	...........
	7	2.06667	-7.92076E-003	-9.65883E-003	5.41666E-004	...........
	8	2.325	-8.51692E-003	-1.01520E-002	5.37299E-004	...........
	9	2.58333	-9.07537E-003	-1.06207E-002	5.38333E-004	...........
	10	2.84167	-9.60020E-003	-1.10635E-002	5.34333E-004	...........
	11	3.1	-1.00962E-002	-1.14878E-002	5.38666E-004	...........
	12	3.35833	-1.05668E-002	-1.18925E-002	5.43399E-004	...........
	13	3.61667	-1.10144E-002	-1.22826E-002	5.39399E-004	...........
	14	3.875	-1.14413E-002	-1.26540E-002	5.40133E-004	...........
	15	4.13333	-1.18493E-002	-1.30112E-002	5.43099E-004	...........
	16	4.39167	-1.22397E-002	-1.33509E-002	5.40633E-004	...........
	17	4.65	-1.26138E-002	-1.36853E-002	5.40633E-004	...........
	18	4.90833	-1.29725E-002	-1.40024E-002	5.40499E-004	...........
EOC	QUANT	-0.0129725	Open Circuit (V)
PSTATMODEL	IQUANT	4	Pstat Model
PSTATSECTION	LABEL	REF600-11020	Pstat Section
PSTATSERIALNO	LABEL	11020	Pstat Serial Number
CTRLMODE	IQUANT	1	Control Mode
IESTAB	IQUANT	0	I/E Stability
CASPEED	IQUANT	1	Control Amp Speed
CONVENTION	IQUANT	1	Current Convention
ICHRANGE	IQUANT	2	Ich Range
ICHRANGEMODE	TOGGLE	F	Ich Auto Range
ICHOFFSETENABLE	TOGGLE	T	Ich Offset Enable
ICHOFFSET	QUANT	0	Ich Offset (V)
ICHFILTER	IQUANT	3	Ich Filter
VCHRANGE	IQUANT	2	Vch Range
VCHRANGEMODE	TOGGLE	F	Vch Auto Range
VCHOFFSETENABLE	TOGGLE	T	Vch Offset Enable
VCHOFFSET	QUANT	0	Vch Offset (V)
VCHFILTER	IQUANT	3	Vch Filter
ACHRANGE	IQUANT	2	Ach Range
ACHOFFSETENABLE	TOGGLE	F	Ach Offset Enable
ACHOFFSET	QUANT	0	Ach Offset (V)
ACHFILTER	IQUANT	3	Ach Filter
IERANGELOWERLIMIT	IQUANT	1	I/E Range Lower Limit
IERANGEMODE	TOGGLE	F	I/E AutoRange
IERANGE	IQUANT	6	I/E Range
POSFEEDENABLE	TOGGLE	F	Positive Feedback IR Comp
POSFEEDRESISTANCE	QUANT	0	Positive Feedback Resistance (ohm)
ACHSELECT	IQUANT	0	Ach Select
CABLEID	IQUANT	14	Cable ID
DCCALDATE	LABEL	8/19/2019	DC Calibration Date
ACCALDATE	LABEL	8/19/2019	AC Calibration Date
THERMOSELECT	IQUANT	1	Thermo Select
FRAMEWORKVERSION	QUANT	6.33	Framework Version
INSTRUMENTVERSION	LABEL	3.50	Instrument Version
ZCURVE	TABLE
	Pt	Time	Freq	Zreal	Zimag	Zsig	Zmod	Zphz	Idc	Vdc	IERange
	#	s	Hz	ohm	ohm	V	ohm	°	A	V	#
	0	2	1000078	2183.874	-1723.205	1	2781.859	-38.27552	-4.918611E-006	-0.0100211	8
	1	4	794390.6	2542.713	-1717.245	1	3068.276	-34.03349	2.234089E-006	-0.011332	8
	2	5	630984.4	2874.466	-1658.299	1	3318.51	-29.98095	1.053887E-006	-0.0116097	8
	3	6	501234.4	3180.081	-1557.355	1	3540.942	-26.09199	-3.52778E-006	-0.0107344	8
	4	8	398109.4	3445.983	-1406.471	1	3721.956	-22.20273	3.111286E-008	-0.0114552	8
	5	9	316265.6	3659.507	-1259.929	1	3870.325	-18.99804	3.225757E-006	-0.012011	8
	6	10	251203.1	3836.462	-1092.413	1	3988.96	-15.89404	-3.183681E-006	-0.0108661	8
	7	12	199546.9	3990.31	-967.289	1	4105.876	-13.6262	-1.011649E-006	-0.0111779	8
	8	13	158578.1	4082.518	-834.4494	1	4166.924	-11.5519	-6.144836E-007	-0.0111504	8
	9	14	125953.1	4187.682	-678.2018	1	4242.244	-9.199272	-1.107609E-006	-0.008969	7
	10	16	100078.1	4232.924	-586.6162	1	4273.378	-7.890033	4.055162E-008	-0.0115893	7
	11	17	79453.13	4280.55	-520.6047	1	4312.092	-6.934313	-5.611E-008	-0.0112799	7
	12	18	63140.62	4322.562	-470.0942	1	4348.049	-6.20673	8.907541E-008	-0.0115445	7
	13	20	50203.12	4356.746	-433.5072	1	4378.26	-5.682371	-2.866095E-008	-0.0114809	7
	14	21	39890.62	4389.1	-407.6579	1	4407.991	-5.306386	1.440114E-008	-0.0115562	7
	15	23	31640.63	4418.984	-395.2447	1	4436.625	-5.111073	7.696751E-008	-0.0116324	7
	16	24	25171.88	4448.653	-393.0278	1	4465.981	-5.048835	-5.418717E-009	-0.011471	7
	17	25	20015.62	4477.345	-401.4996	1	4495.311	-5.124212	1.819232E-008	-0.0113993	7
	18	27	15890.62	4506.065	-422.0306	1	4525.786	-5.350619	1.775786E-008	-0.0113985	7
	19	28	12609.37	4536.796	-455.3838	1	4559.593	-5.731902	-3.971872E-008	-0.0113768	7
	20	29	10078.13	4568.315	-500.5616	1	4595.658	-6.253095	7.588612E-008	-0.011634	7
	21	31	8015.625	4600.286	-562.8728	1	4634.594	-6.975811	1.785161E-008	-0.0113981	7
	22	32	6328.125	4635.817	-644.3448	1	4680.383	-7.912998	4.147206E-008	-0.0116113	7
	23	33	5015.625	4675.309	-748.7858	1	4734.891	-9.099076	1.491528E-008	-0.0115621	7
	24	35	3984.375	4719.4	-878.8869	1	4800.54	-10.54926	-5.229231E-008	-0.0113947	7
	25	36	3170.956	4770.011	-1036.305	1	4881.284	-12.25727	-4.734943E-008	-0.0114232	7
	26	37	2527.573	4826.847	-1230.276	1	4981.167	-14.29919	-5.251887E-008	-0.0113924	7
	27	39	1976.103	4899.874	-1487.761	1	5120.761	-16.89	-2.94423E-008	-0.0114847	7
	28	40	1577.524	4977.395	-1779.086	1	5285.793	-19.66857	-7.562753E-009	-0.0114678	7
	29	41	1265.625	5068.776	-2124.498	1	5495.997	-22.74023	6.737634E-009	-0.0115247	7
	30	43	998.264	5179.268	-2577.863	1	5785.343	-26.46078	-4.481941E-008	-0.0114213	7
	31	44	796.875	5300.028	-3107.439	1	6143.816	-30.38336	1.140569E-007	-0.0116397	7
	32	45	627.7902	5447.615	-3794.559	1	6638.914	-34.8593	1.904141E-008	-0.011398	7
	33	47	505.5147	5606.158	-4554.19	1	7222.856	-39.08885	4.121808E-008	-0.0116124	7
	34	48	397.9953	5809.856	-5590.258	1	8062.594	-43.89646	7.800918E-009	-0.0114566	7
	35	49	315.5048	6048.188	-6835.83	1	9127.385	-48.49832	6.802426E-009	-0.0114606	7
	36	51	252.4038	6329.19	-8308.172	1	10444.35	-52.69974	2.233353E-009	-0.0115262	6
	37	52	198.6229	6699.629	-10259.52	1	12253.28	-56.85484	1.519424E-009	-0.0115269	6
	38	54	158.3615	7140.151	-12540.58	1	14430.8	-60.34439	1.01789E-009	-0.0115272	6
	39	55	125.558	7714.041	-15407.59	1	17230.79	-63.40447	1.667003E-009	-0.0115272	6
	40	56	100.4464	8415.042	-18769.55	1	20569.61	-65.85165	7.589177E-010	-0.0115271	6
	41	58	79.00281	9379.126	-23244.44	1	25065.35	-68.02593	7.231047E-010	-0.0115258	6
	42	59	63.3446	10847.6	-28335.65	1	30341.05	-69.0519	2.060028E-009	-0.0115253	6
	43	60	49.86702	12185.95	-35024.48	1	37083.84	-70.81585	7.267308E-010	-0.0115313	6
	44	62	39.72458	14387.53	-42507.49	1	44876.36	-71.30057	1.774327E-009	-0.0115286	6
	45	63	31.6723	17257.04	-51797.85	1	54596.91	-71.57393	9.580122E-010	-0.0115275	6
	46	65	24.93351	21099.7	-63389.64	1	66809.01	-71.58961	1.406505E-009	-0.0115266	6
	47	66	19.86229	26121.12	-76709.88	1	81035.29	-71.19535	1.138446E-009	-0.0115196	6
	48	67	15.83615	32970.8	-93237.63	1	98895.5	-70.52532	3.507848E-009	-0.0115294	6
	49	69	12.40079	41224.22	-112668	1	119973	-69.90287	8.457292E-010	-0.0115253	5
	50	70	9.93114	52874.38	-133628.2	1	143708.7	-68.41215	1.140295E-009	-0.0115249	5
	51	72	7.944915	66991.67	-157651.8	1	171295	-66.9777	1.013929E-009	-0.0115186	5
	52	73	6.317385	85163.7	-185478.9	1	204096.2	-65.33751	4.329007E-010	-0.0115045	5
	53	75	5.008013	108448	-216634.9	1	242263.5	-63.40734	8.554543E-010	-0.0115182	5
	54	78	3.945707	137517.6	-251605	1	286733.6	-61.34069	7.331404E-010	-0.0115171	5
	55	80	3.158693	169406.7	-285891.6	1	332314.1	-59.3509	7.340881E-010	-0.0115045	5
	56	84	2.504006	207850.9	-324528.1	1	385383.6	-57.36161	2.898663E-010	-0.0115332	5
	57	86	1.998082	249591.2	-363878.8	1	441252.3	-55.55305	1.907556E-010	-0.0115301	5
	58	90	1.584686	296985	-404823.4	1	502077.8	-53.73563	5.324789E-010	-0.0114743	5
	59	93	1.266892	344380	-450231.9	1	566838.9	-52.58782	1.766834E-010	-0.0115328	5
	60	97	0.999041	398124.4	-501814.9	1	640563.3	-51.57261	8.184165E-010	-0.0114933	5
