EXPLAIN
TAG	EISPOT
TITLE	LABEL	Potentiostatic IDE	Test &Identifier
DATE	LABEL	9/4/2019	Date
TIME	LABEL	12:55:23	Time
NOTES	NOTES	1	&Notes...
	
PSTAT	PSTAT	REF600-11020	Potentiostat
VDC	POTEN	0.00000E+000	T	DC &Voltage (V)
FREQINIT	QUANT	1.00000E+006	Initial Fre&q. (Hz)
FREQFINAL	QUANT	1.00000E+000	Final Fre&q. (Hz)
PTSPERDEC	QUANT	1.00000E+001	Points/&decade
VAC	QUANT	2.50000E+001	AC &Voltage (mV rms)
AREA	QUANT	1.00000E-002	&Area (cm^2)
CONDIT	TWOPARAM	T	5.00000E+000	0.00000E+000	Conditionin&g	Time(s)	E(V)
DELAY	TWOPARAM	T	5.00000E+000	0.00000E+000	Init. De&lay	Time(s)	Stab.(mV/s)
SPEED	SELECTOR	1	&Optimize for:
ZGUESS	QUANT	1.00000E+007	E&stimated Z (ohms)
OCVCURVE	TABLE	19
	Pt	T	Vf	Vm	Ach	Over
	#	s	V vs. Ref.	V	V	bits
	0	0.258333	5.47997E-002	5.47997E-002	5.63099E-004	...........
	1	0.516667	5.48017E-002	5.49005E-002	5.63632E-004	...........
	2	0.775	5.48159E-002	5.51240E-002	5.69632E-004	...........
	3	1.03333	5.48650E-002	5.53693E-002	5.67366E-004	...........
	4	1.29167	5.49701E-002	5.55537E-002	5.61866E-004	...........
	5	1.55	5.51355E-002	5.59905E-002	5.60499E-004	...........
	6	1.80833	5.53529E-002	5.61495E-002	5.65932E-004	...........
	7	2.06667	5.56066E-002	5.63554E-002	5.67632E-004	...........
	8	2.325	5.58708E-002	5.66582E-002	5.67799E-004	...........
	9	2.58333	5.61267E-002	5.69003E-002	5.67099E-004	...........
	10	2.84167	5.63761E-002	5.71407E-002	5.65599E-004	...........
	11	3.1	5.66253E-002	5.73839E-002	5.66232E-004	...........
	12	3.35833	5.68740E-002	5.76164E-002	5.68632E-004	...........
	13	3.61667	5.71195E-002	5.78539E-002	5.67632E-004	...........
	14	3.875	5.73606E-002	5.80770E-002	5.65632E-004	...........
	15	4.13333	5.75972E-002	5.82945E-002	5.67199E-004	...........
	16	4.39167	5.78269E-002	5.84113E-002	5.65766E-004	...........
	17	4.65	5.80443E-002	5.86936E-002	5.68499E-004	...........
	18	4.90833	5.82502E-002	5.89108E-002	5.67932E-004	...........
EOC	QUANT	0.0582502	Open Circuit (V)
PSTATMODEL	IQUANT	4	Pstat Model
PSTATSECTION	LABEL	REF600-11020	Pstat Section
PSTATSERIALNO	LABEL	11020	Pstat Serial Number
CTRLMODE	IQUANT	1	Control Mode
IESTAB	IQUANT	0	I/E Stability
CASPEED	IQUANT	1	Control Amp Speed
CONVENTION	IQUANT	1	Current Convention
ICHRANGE	IQUANT	2	Ich Range
ICHRANGEMODE	TOGGLE	F	Ich Auto Range
ICHOFFSETENABLE	TOGGLE	T	Ich Offset Enable
ICHOFFSET	QUANT	0	Ich Offset (V)
ICHFILTER	IQUANT	3	Ich Filter
VCHRANGE	IQUANT	2	Vch Range
VCHRANGEMODE	TOGGLE	F	Vch Auto Range
VCHOFFSETENABLE	TOGGLE	T	Vch Offset Enable
VCHOFFSET	QUANT	0	Vch Offset (V)
VCHFILTER	IQUANT	3	Vch Filter
ACHRANGE	IQUANT	2	Ach Range
ACHOFFSETENABLE	TOGGLE	F	Ach Offset Enable
ACHOFFSET	QUANT	0	Ach Offset (V)
ACHFILTER	IQUANT	3	Ach Filter
IERANGELOWERLIMIT	IQUANT	1	I/E Range Lower Limit
IERANGEMODE	TOGGLE	F	I/E AutoRange
IERANGE	IQUANT	4	I/E Range
POSFEEDENABLE	TOGGLE	F	Positive Feedback IR Comp
POSFEEDRESISTANCE	QUANT	0	Positive Feedback Resistance (ohm)
ACHSELECT	IQUANT	0	Ach Select
CABLEID	IQUANT	14	Cable ID
DCCALDATE	LABEL	8/19/2019	DC Calibration Date
ACCALDATE	LABEL	8/19/2019	AC Calibration Date
THERMOSELECT	IQUANT	1	Thermo Select
FRAMEWORKVERSION	QUANT	6.33	Framework Version
INSTRUMENTVERSION	LABEL	3.50	Instrument Version
ZCURVE	TABLE
	Pt	Time	Freq	Zreal	Zimag	Zsig	Zmod	Zphz	Idc	Vdc	IERange
	#	s	Hz	ohm	ohm	V	ohm	°	A	V	#
	0	2	1000078	2326.212	-1977.383	1	3053.081	-40.36601	1.125342E-005	0.0595137	8
	1	3	794390.6	2720.953	-1905.831	1	3322.014	-35.00847	8.625982E-006	0.0592776	8
	2	5	630984.4	3084.086	-1789.545	1	3565.678	-30.12451	1.291562E-005	0.0590042	8
	3	6	501234.4	3377.607	-1642.173	1	3755.657	-25.92875	1.248613E-005	0.05886	8
	4	8	398109.4	3636.226	-1463.508	1	3919.693	-21.9238	8.960316E-006	0.0592358	8
	5	10	316265.6	3815.019	-1295.822	1	4029.085	-18.76073	1.264365E-005	0.0590927	8
	6	11	251203.1	3966.946	-1152.551	1	4130.984	-16.20063	1.244266E-005	0.0591066	8
	7	13	199546.9	4077.653	-1012.471	1	4201.47	-13.9444	1.299216E-005	0.058873	8
	8	14	158578.1	4189.329	-977.726	1	4301.91	-13.13682	1.111825E-005	0.0592414	8
	9	16	125953.1	4244.751	-872.0748	1	4333.408	-11.60975	5.853767E-007	0.059505	7
	10	17	100078.1	4311.805	-817.7395	1	4388.663	-10.73868	9.155443E-007	0.0595971	7
	11	19	79453.13	4373.16	-808.8777	1	4447.337	-10.47923	9.216529E-007	0.0595996	7
	12	20	63140.62	4435.791	-820.0851	1	4510.962	-10.47452	9.531166E-007	0.0595882	7
	13	21	50203.12	4495.229	-857.9665	1	4576.373	-10.8056	9.12447E-007	0.0595678	7
	14	23	39890.62	4560.868	-917.8412	1	4652.306	-11.37838	9.502131E-007	0.0595739	7
	15	24	31640.63	4640.599	-1001.683	1	4747.476	-12.18053	9.3683E-007	0.0595156	7
	16	25	25171.88	4720	-1122.772	1	4851.702	-13.38058	9.748774E-007	0.0594752	7
	17	27	20015.62	4810.673	-1268.151	1	4975.016	-14.7679	9.164522E-007	0.0595724	7
	18	28	15890.62	4918.983	-1451.661	1	5128.715	-16.44206	9.264801E-007	0.0595504	7
	19	29	12609.37	5040.369	-1676.105	1	5311.746	-18.39383	9.259895E-007	0.0595493	7
	20	31	10078.13	5174.236	-1934.833	1	5524.156	-20.50257	9.226734E-007	0.059648	7
	21	32	8015.625	5343.94	-2255.746	1	5800.524	-22.88524	9.380114E-007	0.0595209	7
	22	34	6328.125	5534.132	-2641.316	1	6132.142	-25.51408	9.356736E-007	0.0595111	7
	23	35	5015.625	5756.77	-3098.34	1	6537.592	-28.2895	9.300171E-007	0.0595395	7
	24	36	3984.375	6014.19	-3644.054	1	7032.042	-31.21206	9.453375E-007	0.0595568	7
	25	38	3170.956	6312.716	-4276.765	1	7625.031	-34.11702	9.524503E-007	0.0594949	7
	26	39	2527.573	6668.21	-5033.29	1	8354.581	-37.04619	9.871917E-007	0.0594452	7
	27	40	1976.103	7096.69	-5998.126	1	9291.961	-40.20451	9.250042E-007	0.0595972	7
	28	42	1577.524	7581.866	-7044.054	1	10349.08	-42.89412	9.647679E-007	0.0595308	7
	29	43	1265.625	8133.863	-8292.026	1	11615.4	-45.55168	9.234515E-007	0.0596418	7
	30	44	998.264	8834.187	-9833.61	1	13219.03	-48.06453	9.93071E-008	0.0593403	6
	31	46	796.875	9633.56	-11577.57	1	15061.4	-50.23655	9.441063E-008	0.0594574	6
	32	47	627.7902	10632.06	-13764.66	1	17392.71	-52.31689	9.440178E-008	0.0593784	6
	33	48	505.5147	11705.71	-16110.4	1	19914.03	-53.9981	8.974177E-008	0.0594834	6
	34	50	397.9953	13093.69	-19195.46	1	23235.97	-55.70115	9.396154E-008	0.0591259	6
	35	51	315.5048	14706.86	-22728.39	1	27071.6	-57.09431	9.404331E-008	0.0591234	6
	36	52	252.4038	16551.23	-26737	1	31445.36	-58.2409	9.398958E-008	0.0591202	6
	37	54	198.6229	18888.87	-31824.28	1	37007.76	-59.30933	9.371259E-008	0.059128	6
	38	55	158.3615	21509.54	-37494.55	1	43226.17	-60.15836	9.388077E-008	0.0591262	6
	39	56	125.558	24708.54	-44363.56	1	50780.29	-60.88413	9.364862E-008	0.059126	6
	40	58	100.4464	28375.09	-52086.5	1	59313.99	-61.41984	9.378567E-008	0.0591237	6
	41	59	79.00281	32832.91	-62109.35	1	70253.63	-62.1377	9.354865E-008	0.0591236	6
	42	60	63.3446	37080.18	-72323.27	1	81274.82	-62.85576	9.33614E-008	0.0591249	6
	43	62	49.86702	44481.62	-86620.66	1	97374.3	-62.8185	9.39565E-008	0.0591252	6
	44	63	39.72458	50912.51	-101811.5	1	113831.8	-63.43192	9.373061E-008	0.0591265	6
	45	65	31.6723	58545.31	-119366.7	1	132951	-63.87362	9.756877E-009	0.0591298	5
	46	66	24.93351	68454.39	-142648.6	1	158223.3	-64.36452	9.544559E-009	0.0591266	5
	47	67	19.86229	79331.61	-168738	1	186456.4	-64.81959	9.423062E-009	0.0591328	5
	48	69	15.83615	93602.94	-199930.7	1	220757.3	-64.91209	8.750655E-009	0.0591289	5
	49	70	12.40079	106706.9	-240628.8	1	263227.2	-66.08511	9.900281E-009	0.0591345	5
	50	72	9.93114	124458.2	-282533.2	1	308731	-66.22611	9.338684E-009	0.0591299	5
	51	73	7.944915	145022.4	-334563	1	364642.2	-66.5648	9.911334E-009	0.0591324	5
	52	75	6.317385	170492.5	-399090.8	1	433982.9	-66.86771	9.557851E-009	0.0591453	5
	53	77	5.008013	200895.5	-476922.5	1	517507.6	-67.15757	9.604529E-009	0.05914	5
	54	79	3.945707	239681.9	-573195.4	1	621289.3	-67.30773	9.523638E-009	0.0591267	5
	55	82	3.158693	284120.2	-681539.5	1	738390.4	-67.36972	9.383155E-008	0.0591364	6
	56	86	2.504006	341518	-813498.8	1	882278.2	-67.22666	9.423432E-009	0.0594205	5
	57	89	1.998082	410760.1	-966134	1	1049828	-66.96681	9.441794E-009	0.0594569	5
	58	92	1.584686	496825.4	-1148313	1	1251182	-66.60394	9.397767E-009	0.0594263	5
	59	96	1.266892	607451.4	-1358028	1	1487695	-65.90084	9.694784E-010	0.0594588	4
	60	100	0.999041	747753.9	-1611307	1	1776358	-65.10556	1.039797E-009	0.0593834	4
