EXPLAIN
TAG	EISPOT
TITLE	LABEL	Potentiostatic EIS	Test &Identifier
DATE	LABEL	10/6/2019	Date
TIME	LABEL	10:32:16	Time
NOTES	NOTES	2	&Notes...
	
	
PSTAT	PSTAT	REF600-11020	Potentiostat
VDC	POTEN	0.00000E+000	T	DC &Voltage (V)
FREQINIT	QUANT	1.00000E+006	Initial Fre&q. (Hz)
FREQFINAL	QUANT	1.00000E+000	Final Fre&q. (Hz)
PTSPERDEC	QUANT	1.00000E+001	Points/&decade
VAC	QUANT	2.50000E+001	AC &Voltage (mV rms)
AREA	QUANT	1.00000E-002	&Area (cm^2)
CONDIT	TWOPARAM	T	5.00000E+000	0.00000E+000	Conditionin&g	Time(s)	E(V)
DELAY	TWOPARAM	T	5.00000E+000	0.00000E+000	Init. De&lay	Time(s)	Stab.(mV/s)
SPEED	SELECTOR	1	&Optimize for:
ZGUESS	QUANT	1.00000E+004	E&stimated Z (ohms)
OCVCURVE	TABLE	19
	Pt	T	Vf	Vm	Ach	Over
	#	s	V vs. Ref.	V	V	bits
	0	0.258333	8.74478E-003	8.74478E-003	5.55733E-004	...........
	1	0.516667	8.74330E-003	8.66728E-003	5.55566E-004	...........
	2	0.775	8.73751E-003	8.76669E-003	5.54866E-004	...........
	3	1.03333	8.73243E-003	8.87890E-003	5.59566E-004	...........
	4	1.29167	8.74560E-003	8.96550E-003	5.57066E-004	...........
	5	1.55	8.79072E-003	9.04389E-003	5.57166E-004	...........
	6	1.80833	8.86527E-003	9.23911E-003	5.57333E-004	...........
	7	2.06667	8.96224E-003	9.36719E-003	5.53133E-004	...........
	8	2.325	9.07896E-003	9.48638E-003	5.49099E-004	...........
	9	2.58333	9.20925E-003	9.59300E-003	5.52832E-004	...........
	10	2.84167	9.34225E-003	9.75120E-003	5.54933E-004	...........
	11	3.1	9.47067E-003	9.77871E-003	5.59866E-004	...........
	12	3.35833	9.58995E-003	9.87627E-003	5.64432E-004	...........
	13	3.61667	9.69639E-003	1.00154E-002	5.56366E-004	...........
	14	3.875	9.79398E-003	1.01111E-002	5.53166E-004	...........
	15	4.13333	9.89133E-003	1.01613E-002	5.52232E-004	...........
	16	4.39167	9.98957E-003	1.02855E-002	5.51899E-004	...........
	17	4.65	1.00852E-002	1.03833E-002	5.58099E-004	...........
	18	4.90833	1.01794E-002	1.04871E-002	5.54599E-004	...........
EOC	QUANT	0.0101794	Open Circuit (V)
PSTATMODEL	IQUANT	4	Pstat Model
PSTATSECTION	LABEL	REF600-11020	Pstat Section
PSTATSERIALNO	LABEL	11020	Pstat Serial Number
CTRLMODE	IQUANT	1	Control Mode
IESTAB	IQUANT	0	I/E Stability
CASPEED	IQUANT	1	Control Amp Speed
CONVENTION	IQUANT	1	Current Convention
ICHRANGE	IQUANT	2	Ich Range
ICHRANGEMODE	TOGGLE	F	Ich Auto Range
ICHOFFSETENABLE	TOGGLE	T	Ich Offset Enable
ICHOFFSET	QUANT	0	Ich Offset (V)
ICHFILTER	IQUANT	3	Ich Filter
VCHRANGE	IQUANT	2	Vch Range
VCHRANGEMODE	TOGGLE	F	Vch Auto Range
VCHOFFSETENABLE	TOGGLE	T	Vch Offset Enable
VCHOFFSET	QUANT	0	Vch Offset (V)
VCHFILTER	IQUANT	3	Vch Filter
ACHRANGE	IQUANT	2	Ach Range
ACHOFFSETENABLE	TOGGLE	F	Ach Offset Enable
ACHOFFSET	QUANT	0	Ach Offset (V)
ACHFILTER	IQUANT	3	Ach Filter
IERANGELOWERLIMIT	IQUANT	1	I/E Range Lower Limit
IERANGEMODE	TOGGLE	F	I/E AutoRange
IERANGE	IQUANT	6	I/E Range
POSFEEDENABLE	TOGGLE	F	Positive Feedback IR Comp
POSFEEDRESISTANCE	QUANT	0	Positive Feedback Resistance (ohm)
ACHSELECT	IQUANT	0	Ach Select
CABLEID	IQUANT	14	Cable ID
DCCALDATE	LABEL	8/19/2019	DC Calibration Date
ACCALDATE	LABEL	8/19/2019	AC Calibration Date
THERMOSELECT	IQUANT	1	Thermo Select
FRAMEWORKVERSION	QUANT	6.33	Framework Version
INSTRUMENTVERSION	LABEL	3.50	Instrument Version
ZCURVE	TABLE
	Pt	Time	Freq	Zreal	Zimag	Zsig	Zmod	Zphz	Idc	Vdc	IERange
	#	s	Hz	ohm	ohm	V	ohm	°	A	V	#
	0	2	1000078	2393.428	-1945.018	1	3084.087	-39.09901	4.387584E-006	0.0116616	8
	1	3	794390.6	2777.152	-1915.588	1	3373.729	-34.59663	5.469856E-008	0.0120969	8
	2	4	630984.4	3127.62	-1849.583	1	3633.588	-30.59882	4.680323E-006	0.0112827	8
	3	6	501234.4	3461.276	-1749.945	1	3878.497	-26.82016	-2.168215E-007	0.0119942	8
	4	7	398109.4	3751.358	-1607.274	1	4081.178	-23.19278	-1.290987E-006	0.0123342	8
	5	9	316265.6	3998.64	-1458.459	1	4256.315	-20.03888	4.995265E-006	0.0107808	8
	6	10	251203.1	4195.064	-1330.65	1	4401.044	-17.59873	-7.167131E-007	0.0118594	8
	7	11	199546.9	4349.305	-1154.035	1	4499.805	-14.86031	-3.081678E-006	0.0124335	8
	8	13	158578.1	4511.614	-1070.907	1	4636.971	-13.35299	-6.851453E-007	0.01171	8
	9	14	125953.1	4647.549	-905.909	1	4735.017	-11.0299	-8.982249E-007	0.013651	7
	10	15	100078.1	4709.078	-846.3859	1	4784.536	-10.18926	4.943875E-008	0.0116307	7
	11	17	79453.13	4789.604	-801.6304	1	4856.225	-9.50146	1.447307E-008	0.0116961	7
	12	18	63140.62	4864.052	-776.5381	1	4925.648	-9.070634	1.736721E-008	0.0118715	7
	13	20	50203.12	4935.458	-770.6771	1	4995.266	-8.875127	3.593437E-009	0.0117525	7
	14	21	39890.62	5009.069	-783.5197	1	5069.978	-8.890179	1.495124E-008	0.0116824	7
	15	22	31640.63	5081.538	-809.7229	1	5145.647	-9.053739	4.74463E-008	0.0117153	7
	16	24	25171.88	5160.278	-857.6454	1	5231.064	-9.436382	1.929402E-008	0.0118648	7
	17	25	20015.62	5245.983	-920.3407	1	5326.103	-9.95055	8.861441E-008	0.0115888	7
	18	26	15890.62	5340.869	-1003.086	1	5434.249	-10.63699	-8.063835E-008	0.0120098	7
	19	28	12609.37	5441.548	-1112.834	1	5554.174	-11.558	-6.425113E-009	0.0117054	7
	20	29	10078.13	5552.406	-1233.77	1	5687.829	-12.52784	8.77377E-008	0.0115796	7
	21	30	8015.625	5682.569	-1389.668	1	5850.023	-13.74193	5.285838E-009	0.0117393	7
	22	32	6328.125	5831.756	-1567.46	1	6038.734	-15.04441	-8.831686E-009	0.0118211	7
	23	33	5015.625	5998.303	-1778.812	1	6256.501	-16.51785	-9.17565E-009	0.0117503	7
	24	35	3984.375	6185.163	-2024.456	1	6508.046	-18.12371	-1.08126E-008	0.011822	7
	25	36	3170.956	6398.052	-2302.495	1	6799.747	-19.79251	-9.631657E-009	0.0117537	7
	26	37	2527.573	6639.614	-2625.013	1	7139.69	-21.57167	1.91504E-008	0.0118647	7
	27	39	1976.103	6933.834	-3025.89	1	7565.32	-23.57621	-8.276849E-008	0.0120142	7
	28	40	1577.524	7241.826	-3452.526	1	8022.716	-25.48938	-8.313572E-008	0.0120171	7
	29	41	1265.625	7558.536	-3899.136	1	8504.982	-27.28734	1.522752E-008	0.0116897	7
	30	43	998.264	7935.813	-4481.554	1	9113.805	-29.45451	-8.684445E-009	0.0117516	7
	31	44	796.875	8312.727	-5129.093	1	9767.75	-31.67529	-6.860308E-009	0.0118861	6
	32	45	627.7902	8725.505	-5948.256	1	10560.12	-34.28261	4.350972E-009	0.0115828	6
	33	47	505.5147	9118.563	-6856.56	1	11408.79	-36.94076	-2.144257E-009	0.0119128	6
	34	48	397.9953	9565.57	-8078.762	1	12520.65	-40.18332	1.09483E-010	0.0117268	6
	35	50	315.5048	10022.43	-9559.21	1	13850.18	-43.64489	1.69059E-010	0.011732	6
	36	51	252.4038	10494.94	-11324.59	1	15439.89	-47.1775	9.656735E-010	0.0117307	6
	37	52	198.6229	11055.48	-13692.17	1	17598.27	-51.08151	2.970357E-010	0.011733	6
	38	54	158.3615	11668.49	-16481.37	1	20193.79	-54.70224	2.965866E-010	0.0117296	6
	39	55	125.558	12414.48	-20039.89	1	23573.64	-58.22225	3.846986E-010	0.0117309	6
	40	56	100.4464	13293.92	-24243.73	1	27649.36	-61.26207	8.046456E-010	0.0117279	6
	41	58	79.00281	14534.64	-29887.71	1	33234.48	-64.06597	7.186579E-010	0.0117297	6
	42	59	63.3446	16086.14	-36447.94	1	39839.88	-66.18595	6.026566E-010	0.0117247	6
	43	61	49.86702	17649.22	-44626.31	1	47989.61	-68.42174	2.664502E-011	0.0117255	6
	44	62	39.72458	20265.17	-54563.44	1	58205.21	-69.62473	7.09154E-010	0.0117324	6
	45	63	31.6723	23296.96	-66618.82	1	70574.9	-70.72499	2.056868E-010	0.0117276	6
	46	65	24.93351	27895.2	-81912.88	1	86532.44	-71.19387	1.471703E-010	0.0117274	6
	47	66	19.86229	33525.91	-99494.1	1	104990.8	-71.37804	7.284329E-010	0.0117338	6
	48	67	15.83615	41160	-120184.7	1	127037.4	-71.09506	2.628413E-010	0.0117308	5
	49	69	12.40079	51215.15	-146878.8	1	155551.8	-70.77685	-2.435863E-010	0.011738	5
	50	70	9.93114	64928.66	-176813.2	1	188357.8	-69.83595	-3.40726E-010	0.0117378	5
	51	72	7.944915	81888.3	-209982.5	1	225384.9	-68.69537	6.743957E-010	0.0117391	5
	52	74	6.317385	104346.3	-251054.7	1	271876.1	-67.43067	-7.039935E-011	0.0117492	5
	53	76	5.008013	133839.2	-297251.4	1	325992.8	-65.76006	-1.560491E-012	0.0117316	5
	54	78	3.945707	171936.8	-349095.2	1	389139.7	-63.77878	3.587234E-010	0.0117404	5
	55	81	3.158693	215931.7	-402482.3	1	456747.8	-61.78645	-2.389887E-010	0.0117223	5
	56	84	2.504006	270434	-460934	1	534410.6	-59.59948	4.044612E-010	0.0117444	5
	57	87	1.998082	332733.4	-521072.4	1	618245.9	-57.43953	1.971595E-010	0.0117649	5
	58	90	1.584686	403050.3	-582476.7	1	708328.1	-55.31833	7.34029E-011	0.0116967	5
	59	94	1.266892	478379.3	-647589.4	1	805120.3	-53.54643	1.478542E-010	0.0117607	5
	60	98	0.999041	563276.8	-718461.4	1	912944.4	-51.90341	-1.913867E-010	0.0116903	5
