EXPLAIN
TAG	EISPOT
TITLE	LABEL	Potentiostatic IDE	Test &Identifier
DATE	LABEL	9/8/2019	Date
TIME	LABEL	7:54:00	Time
NOTES	NOTES	1	&Notes...
	
PSTAT	PSTAT	REF600-11020	Potentiostat
VDC	POTEN	0.00000E+000	T	DC &Voltage (V)
FREQINIT	QUANT	1.00000E+006	Initial Fre&q. (Hz)
FREQFINAL	QUANT	1.00000E+000	Final Fre&q. (Hz)
PTSPERDEC	QUANT	1.00000E+001	Points/&decade
VAC	QUANT	2.50000E+001	AC &Voltage (mV rms)
AREA	QUANT	1.00000E-002	&Area (cm^2)
CONDIT	TWOPARAM	T	5.00000E+000	0.00000E+000	Conditionin&g	Time(s)	E(V)
DELAY	TWOPARAM	T	5.00000E+000	0.00000E+000	Init. De&lay	Time(s)	Stab.(mV/s)
SPEED	SELECTOR	1	&Optimize for:
ZGUESS	QUANT	1.00000E+007	E&stimated Z (ohms)
OCVCURVE	TABLE	19
	Pt	T	Vf	Vm	Ach	Over
	#	s	V vs. Ref.	V	V	bits
	0	0.258333	1.98321E-002	1.98321E-002	5.75032E-004	...........
	1	0.516667	1.98491E-002	2.07222E-002	5.75932E-004	...........
	2	0.775	1.99540E-002	2.15890E-002	5.77066E-004	...........
	3	1.03333	2.02477E-002	2.21950E-002	5.75332E-004	...........
	4	1.29167	2.07599E-002	2.29087E-002	5.71366E-004	...........
	5	1.55	2.14180E-002	2.36378E-002	5.69799E-004	...........
	6	1.80833	2.21269E-002	2.40852E-002	5.69166E-004	...........
	7	2.06667	2.28217E-002	2.46752E-002	5.70632E-004	...........
	8	2.325	2.34664E-002	2.51097E-002	5.73999E-004	...........
	9	2.58333	2.40486E-002	2.54849E-002	5.65766E-004	...........
	10	2.84167	2.45694E-002	2.59116E-002	5.72266E-004	...........
	11	3.1	2.50361E-002	2.62773E-002	5.76566E-004	...........
	12	3.35833	2.54622E-002	2.66485E-002	5.71666E-004	...........
	13	3.61667	2.58614E-002	2.69812E-002	5.72999E-004	...........
	14	3.875	2.62410E-002	2.73311E-002	5.72266E-004	...........
	15	4.13333	2.66025E-002	2.75520E-002	5.76432E-004	...........
	16	4.39167	2.69426E-002	2.78741E-002	5.66432E-004	...........
	17	4.65	2.72588E-002	2.81476E-002	5.72032E-004	...........
	18	4.90833	2.75556E-002	2.84072E-002	5.68166E-004	...........
EOC	QUANT	0.0275556	Open Circuit (V)
PSTATMODEL	IQUANT	4	Pstat Model
PSTATSECTION	LABEL	REF600-11020	Pstat Section
PSTATSERIALNO	LABEL	11020	Pstat Serial Number
CTRLMODE	IQUANT	1	Control Mode
IESTAB	IQUANT	0	I/E Stability
CASPEED	IQUANT	1	Control Amp Speed
CONVENTION	IQUANT	1	Current Convention
ICHRANGE	IQUANT	2	Ich Range
ICHRANGEMODE	TOGGLE	F	Ich Auto Range
ICHOFFSETENABLE	TOGGLE	T	Ich Offset Enable
ICHOFFSET	QUANT	0	Ich Offset (V)
ICHFILTER	IQUANT	3	Ich Filter
VCHRANGE	IQUANT	2	Vch Range
VCHRANGEMODE	TOGGLE	F	Vch Auto Range
VCHOFFSETENABLE	TOGGLE	T	Vch Offset Enable
VCHOFFSET	QUANT	0	Vch Offset (V)
VCHFILTER	IQUANT	3	Vch Filter
ACHRANGE	IQUANT	2	Ach Range
ACHOFFSETENABLE	TOGGLE	F	Ach Offset Enable
ACHOFFSET	QUANT	0	Ach Offset (V)
ACHFILTER	IQUANT	3	Ach Filter
IERANGELOWERLIMIT	IQUANT	1	I/E Range Lower Limit
IERANGEMODE	TOGGLE	F	I/E AutoRange
IERANGE	IQUANT	3	I/E Range
POSFEEDENABLE	TOGGLE	F	Positive Feedback IR Comp
POSFEEDRESISTANCE	QUANT	0	Positive Feedback Resistance (ohm)
ACHSELECT	IQUANT	0	Ach Select
CABLEID	IQUANT	14	Cable ID
DCCALDATE	LABEL	8/19/2019	DC Calibration Date
ACCALDATE	LABEL	8/19/2019	AC Calibration Date
THERMOSELECT	IQUANT	1	Thermo Select
FRAMEWORKVERSION	QUANT	6.33	Framework Version
INSTRUMENTVERSION	LABEL	3.50	Instrument Version
ZCURVE	TABLE
	Pt	Time	Freq	Zreal	Zimag	Zsig	Zmod	Zphz	Idc	Vdc	IERange
	#	s	Hz	ohm	ohm	V	ohm	°	A	V	#
	0	2	1000078	2307.914	-1249.276	1	2624.339	-28.42671	3.133315E-006	0.0300512	8
	1	3	794390.6	2533.561	-1131.41	1	2774.711	-24.06406	1.089416E-006	0.0288309	8
	2	5	630984.4	2720.899	-1010.766	1	2902.575	-20.37914	-1.429494E-006	0.0296235	8
	3	6	501234.4	2858.256	-884.3779	1	2991.948	-17.19268	2.783389E-006	0.0287022	8
	4	7	398109.4	2949.239	-748.0407	1	3042.627	-14.23228	-6.190536E-006	0.0304735	8
	5	9	316265.6	3028.458	-662.968	1	3100.174	-12.34799	-7.201751E-007	0.0294389	8
	6	10	251203.1	3106.443	-569.4496	1	3158.206	-10.3877	-9.849616E-007	0.0293073	8
	7	12	199546.9	3140.352	-485.5325	1	3177.665	-8.78896	-5.537782E-006	0.0303545	8
	8	13	158578.1	3187.826	-446.4507	1	3218.937	-7.972343	2.824699E-006	0.0285896	8
	9	15	125953.1	3230.17	-360.5928	1	3250.235	-6.369713	3.216333E-007	0.0283275	7
	10	16	100078.1	3256.689	-336.3496	1	3274.012	-5.896581	-5.710936E-009	0.0290189	7
	11	17	79453.13	3283.614	-331.194	1	3300.274	-5.759526	-3.492432E-008	0.0290789	7
	12	19	63140.62	3311.386	-333.3259	1	3328.12	-5.748062	-4.972787E-008	0.0291052	7
	13	20	50203.12	3340.567	-343.7086	1	3358.203	-5.874452	-2.613561E-008	0.0290524	7
	14	21	39890.62	3370.307	-359.2135	1	3389.396	-6.083722	7.810517E-008	0.0290394	7
	15	23	31640.63	3409.185	-387.8774	1	3431.179	-6.490872	-4.714471E-008	0.0291264	7
	16	24	25171.88	3447.226	-421.5703	1	3472.907	-6.972232	-3.606193E-008	0.0290693	7
	17	25	20015.62	3491.23	-463.6444	1	3521.883	-7.564763	-3.327796E-009	0.0290072	7
	18	27	15890.62	3535.266	-516.9675	1	3572.864	-8.319487	3.523371E-008	0.0290401	7
	19	28	12609.37	3594.867	-578.0159	1	3641.04	-9.134363	-5.853062E-008	0.0291852	7
	20	29	10078.13	3654.343	-648.3737	1	3711.416	-10.06103	-4.886685E-008	0.0290999	7
	21	31	8015.625	3723.803	-733.4412	1	3795.345	-11.14237	8.402783E-008	0.0289131	7
	22	32	6328.125	3804.043	-834.8193	1	3894.569	-12.37767	1.528732E-007	0.0288298	7
	23	33	5015.625	3892.97	-949.6686	1	4007.13	-13.70923	5.047015E-008	0.0288965	7
	24	35	3984.375	3994.117	-1081.935	1	4138.062	-15.15667	-4.074825E-009	0.0290031	7
	25	36	3170.956	4103.167	-1233.402	1	4284.538	-16.73065	5.122026E-008	0.0289019	7
	26	37	2527.573	4225.402	-1407.265	1	4453.584	-18.42028	8.426537E-008	0.0289101	7
	27	39	1976.103	4371.765	-1629.124	1	4665.445	-20.43775	-3.25943E-008	0.0290699	7
	28	40	1577.524	4518.118	-1866.228	1	4888.374	-22.44328	-7.860368E-008	0.0291735	7
	29	41	1265.625	4670.175	-2134.033	1	5134.65	-24.55799	-1.0285E-008	0.0290934	7
	30	43	998.264	4853.366	-2486.237	1	5453.122	-27.12473	-5.166581E-008	0.0291003	7
	31	44	796.875	5042.081	-2888.068	1	5810.638	-29.80377	-2.598248E-008	0.0290435	7
	32	45	627.7902	5257.286	-3402.182	1	6262.1	-32.90838	8.357309E-008	0.0289097	7
	33	47	505.5147	5476.413	-3975.672	1	6767.354	-35.97826	3.542449E-008	0.0290156	7
	34	48	397.9953	5756.601	-4743.233	1	7459.002	-39.4873	3.567384E-009	0.029075	7
	35	49	315.5048	6072.597	-5659.392	1	8300.912	-42.98285	3.385592E-009	0.0290764	7
	36	51	252.4038	6434.74	-6730.768	1	9311.772	-46.28809	4.472029E-009	0.0290742	7
	37	52	198.6229	6910.208	-8131.905	1	10671.4	-49.64328	-1.312993E-009	0.0290123	6
	38	53	158.3615	7463.466	-9742.69	1	12272.87	-52.54578	-9.716827E-010	0.0290132	6
	39	55	125.558	8169.457	-11735.6	1	14299.11	-55.15723	-1.755474E-009	0.0290128	6
	40	56	100.4464	9011.296	-14044.96	1	16687.25	-57.31562	-1.059161E-009	0.029018	6
	41	57	79.00281	10209.09	-16992.92	1	19823.85	-59.00318	-2.212141E-009	0.029012	6
	42	59	63.3446	11697.23	-20390.58	1	23507.46	-60.15889	-2.751184E-009	0.0290101	6
	43	60	49.86702	13423.67	-24431.63	1	27876.51	-61.21393	-1.608328E-009	0.0290094	6
	44	62	39.72458	15965.58	-29076.59	1	33171.49	-61.22939	-1.649936E-009	0.0290159	6
	45	63	31.6723	18903.95	-34333.25	1	39193.51	-61.16273	-1.920255E-009	0.0290186	6
	46	64	24.93351	23065.68	-40709.57	1	46789.9	-60.4645	-2.888416E-009	0.0290146	6
	47	66	19.86229	27878.57	-47481.64	1	55061.07	-59.58092	-9.066777E-010	0.0290154	6
	48	67	15.83615	33483.58	-55077.91	1	64457.17	-58.70328	-2.815123E-009	0.0290191	6
	49	68	12.40079	41378.78	-63664.9	1	75930.38	-56.97829	-1.440673E-009	0.0290173	6
	50	70	9.93114	48996.68	-72027.6	1	87112.86	-55.77456	-1.463553E-009	0.02901	6
	51	71	7.944915	57988.29	-81032.77	1	99644.1	-54.41191	-2.76953E-009	0.0290234	6
	52	73	6.317385	68390.04	-91110.05	1	113922.1	-53.10696	-2.360352E-009	0.0290342	5
	53	75	5.008013	80153.63	-102500.9	1	130119.3	-51.9753	-1.74136E-009	0.0290348	5
	54	77	3.945707	93658.93	-115258	1	148514	-50.9026	-2.834659E-009	0.029021	5
	55	80	3.158693	107609.1	-128272.2	1	167432	-50.00632	-2.436382E-009	0.0290154	5
	56	83	2.504006	123616	-143785.8	1	189618.7	-49.31359	-1.741037E-009	0.0290275	5
	57	86	1.998082	141230.2	-160501	1	213790.9	-48.65437	-1.701224E-009	0.0290576	5
	58	89	1.584686	160765.5	-179545	1	241002	-48.15857	-1.854687E-009	0.0290043	5
	59	93	1.266892	182958.7	-200648.2	1	271539.3	-47.64025	-1.948288E-009	0.0290603	5
	60	97	0.999041	209112	-225383.2	1	307449.8	-47.14463	-2.518592E-009	0.0289841	5
