EXPLAIN
TAG	EISPOT
TITLE	LABEL	Potentiostatic EIS	Test &Identifier
DATE	LABEL	10/20/2019	Date
TIME	LABEL	11:12:40	Time
NOTES	NOTES	1	&Notes...
	
PSTAT	PSTAT	REF600-11020	Potentiostat
VDC	POTEN	0.00000E+000	T	DC &Voltage (V)
FREQINIT	QUANT	1.00000E+006	Initial Fre&q. (Hz)
FREQFINAL	QUANT	1.00000E+000	Final Fre&q. (Hz)
PTSPERDEC	QUANT	1.00000E+001	Points/&decade
VAC	QUANT	2.50000E+001	AC &Voltage (mV rms)
AREA	QUANT	1.00000E-002	&Area (cm^2)
CONDIT	TWOPARAM	T	5.00000E+000	0.00000E+000	Conditionin&g	Time(s)	E(V)
DELAY	TWOPARAM	T	5.00000E+000	0.00000E+000	Init. De&lay	Time(s)	Stab.(mV/s)
SPEED	SELECTOR	1	&Optimize for:
ZGUESS	QUANT	1.00000E+005	E&stimated Z (ohms)
OCVCURVE	TABLE	19
	Pt	T	Vf	Vm	Ach	Over
	#	s	V vs. Ref.	V	V	bits
	0	0.258333	6.13640E-003	6.13640E-003	5.56899E-004	...........
	1	0.516667	6.13538E-003	6.08285E-003	5.61466E-004	...........
	2	0.775	6.12853E-003	6.00255E-003	5.61932E-004	...........
	3	1.03333	6.10732E-003	5.92716E-003	5.61966E-004	...........
	4	1.29167	6.06645E-003	5.88445E-003	5.61466E-004	...........
	5	1.55	6.01100E-003	5.86823E-003	5.62566E-004	...........
	6	1.80833	5.95458E-003	5.86996E-003	5.65866E-004	...........
	7	2.06667	5.91021E-003	5.86414E-003	5.65199E-004	...........
	8	2.325	5.88319E-003	5.87753E-003	5.72432E-004	...........
	9	2.58333	5.87164E-003	5.89230E-003	5.66199E-004	...........
	10	2.84167	5.87111E-003	5.89059E-003	5.69499E-004	...........
	11	3.1	5.87683E-003	5.89755E-003	5.68799E-004	...........
	12	3.35833	5.88412E-003	5.89042E-003	5.70499E-004	...........
	13	3.61667	5.89000E-003	5.90920E-003	5.65432E-004	...........
	14	3.875	5.89467E-003	5.92348E-003	5.66366E-004	...........
	15	4.13333	5.90060E-003	5.93439E-003	5.72532E-004	...........
	16	4.39167	5.90946E-003	5.94405E-003	5.69366E-004	...........
	17	4.65	5.91974E-003	5.91569E-003	5.75532E-004	...........
	18	4.90833	5.92780E-003	5.94647E-003	5.69899E-004	...........
EOC	QUANT	0.0059278	Open Circuit (V)
PSTATMODEL	IQUANT	4	Pstat Model
PSTATSECTION	LABEL	REF600-11020	Pstat Section
PSTATSERIALNO	LABEL	11020	Pstat Serial Number
CTRLMODE	IQUANT	1	Control Mode
IESTAB	IQUANT	0	I/E Stability
CASPEED	IQUANT	1	Control Amp Speed
CONVENTION	IQUANT	1	Current Convention
ICHRANGE	IQUANT	2	Ich Range
ICHRANGEMODE	TOGGLE	F	Ich Auto Range
ICHOFFSETENABLE	TOGGLE	T	Ich Offset Enable
ICHOFFSET	QUANT	0	Ich Offset (V)
ICHFILTER	IQUANT	3	Ich Filter
VCHRANGE	IQUANT	2	Vch Range
VCHRANGEMODE	TOGGLE	F	Vch Auto Range
VCHOFFSETENABLE	TOGGLE	T	Vch Offset Enable
VCHOFFSET	QUANT	0	Vch Offset (V)
VCHFILTER	IQUANT	3	Vch Filter
ACHRANGE	IQUANT	2	Ach Range
ACHOFFSETENABLE	TOGGLE	F	Ach Offset Enable
ACHOFFSET	QUANT	0	Ach Offset (V)
ACHFILTER	IQUANT	3	Ach Filter
IERANGELOWERLIMIT	IQUANT	1	I/E Range Lower Limit
IERANGEMODE	TOGGLE	F	I/E AutoRange
IERANGE	IQUANT	5	I/E Range
POSFEEDENABLE	TOGGLE	F	Positive Feedback IR Comp
POSFEEDRESISTANCE	QUANT	0	Positive Feedback Resistance (ohm)
ACHSELECT	IQUANT	0	Ach Select
CABLEID	IQUANT	14	Cable ID
DCCALDATE	LABEL	8/19/2019	DC Calibration Date
ACCALDATE	LABEL	8/19/2019	AC Calibration Date
THERMOSELECT	IQUANT	1	Thermo Select
FRAMEWORKVERSION	QUANT	6.33	Framework Version
INSTRUMENTVERSION	LABEL	3.50	Instrument Version
ZCURVE	TABLE
	Pt	Time	Freq	Zreal	Zimag	Zsig	Zmod	Zphz	Idc	Vdc	IERange
	#	s	Hz	ohm	ohm	V	ohm	°	A	V	#
	0	2	1000078	2141.94	-813.5788	1	2291.248	-20.79841	-2.658174E-006	0.0083538	8
	1	4	794390.6	2262.962	-733.0742	1	2378.739	-17.94945	-3.177091E-006	0.0087421	8
	2	5	630984.4	2359.427	-655.867	1	2448.889	-15.53472	-4.457308E-008	0.0079912	8
	3	6	501234.4	2439.988	-584.0701	1	2508.919	-13.46183	-7.369146E-007	0.0078833	8
	4	8	398109.4	2505.617	-528.2109	1	2560.688	-11.90426	1.629281E-006	0.0072869	8
	5	9	316265.6	2554.099	-475.8503	1	2598.048	-10.55369	-3.220399E-006	0.0082278	8
	6	11	251203.1	2606.817	-451.8384	1	2645.686	-9.83335	3.409593E-006	0.0070604	8
	7	12	199546.9	2636.827	-423.7059	1	2670.653	-9.128695	-3.670916E-006	0.0082371	8
	8	13	158578.1	2677.364	-407.1106	1	2708.139	-8.645967	-5.226846E-007	0.0076097	8
	9	15	125953.1	2742.597	-357.211	1	2765.761	-7.420746	-8.035024E-007	0.0092246	7
	10	16	100078.1	2768.958	-366.515	1	2793.11	-7.540161	9.937528E-008	0.0074579	7
	11	17	79453.13	2807.42	-387.8069	1	2834.078	-7.86486	9.861881E-008	0.0074499	7
	12	19	63140.62	2850.827	-416.5204	1	2881.094	-8.312392	1.893236E-009	0.0075065	7
	13	20	50203.12	2898.466	-449.3137	1	2933.085	-8.811728	-6.560035E-008	0.0077427	7
	14	21	39890.62	2951.64	-487.1085	1	2991.563	-9.371046	1.864555E-008	0.00745	7
	15	23	31640.63	3010.337	-531.6721	1	3056.927	-10.01603	-3.953588E-008	0.007547	7
	16	24	25171.88	3073.106	-581.3696	1	3127.614	-10.7126	-3.924052E-008	0.0075488	7
	17	26	20015.62	3139.203	-635.8649	1	3202.955	-11.45069	-7.534608E-009	0.0075431	7
	18	27	15890.62	3214.217	-703.2997	1	3290.262	-12.34231	-4.849874E-009	0.0075493	7
	19	28	12609.37	3291.208	-780.6471	1	3382.522	-13.3435	-4.447714E-008	0.007618	7
	20	30	10078.13	3370.509	-866.6187	1	3480.138	-14.41944	-6.614886E-008	0.0077498	7
	21	31	8015.625	3471.552	-981.823	1	3607.721	-15.79195	-3.805285E-008	0.0075429	7
	22	32	6328.125	3553.107	-1099.606	1	3719.369	-17.19611	-5.777116E-008	0.0076196	7
	23	34	5015.625	3655.379	-1253.753	1	3864.414	-18.93139	-5.135311E-008	0.0076605	7
	24	35	3984.375	3770.445	-1438.624	1	4035.578	-20.88449	-4.626959E-008	0.0076277	7
	25	37	3170.956	3888.287	-1646.926	1	4222.693	-22.95561	-7.561178E-009	0.0075546	7
	26	38	2527.573	4020.067	-1899.93	1	4446.422	-25.29596	-4.506005E-008	0.007573	7
	27	39	1976.103	4173.232	-2233.682	1	4733.414	-28.15748	-6.399388E-008	0.0077476	7
	28	41	1577.524	4318.906	-2586.348	1	5034.098	-30.915	-4.623679E-008	0.0076248	7
	29	42	1265.625	4489.342	-3034.705	1	5418.821	-34.0579	4.195024E-008	0.0074013	7
	30	43	998.264	4675.052	-3602.905	1	5902.291	-37.62022	4.86239E-008	0.0074907	7
	31	45	796.875	4869.795	-4284.486	1	6486.272	-41.34159	-5.770648E-009	0.0075567	7
	32	46	627.7902	5106.22	-5168.022	1	7265.117	-45.34465	-5.018455E-008	0.0076525	7
	33	47	505.5147	5359.558	-6153.602	1	8160.372	-48.94535	-5.962316E-008	0.0076195	7
	34	49	397.9953	5689.76	-7508.162	1	9420.502	-52.84478	5.906201E-009	0.0075522	7
	35	50	315.5048	6090.58	-9130.837	1	10975.76	-56.29536	1.556062E-009	0.0074916	6
	36	52	252.4038	6576.651	-11044.79	1	12854.56	-59.22821	-1.628097E-010	0.0074931	6
	37	53	198.6229	7241.048	-13562.23	1	15374.23	-61.90168	3.099307E-010	0.0074934	6
	38	54	158.3615	8056.919	-16471.55	1	18336.46	-63.93482	1.818394E-010	0.0074928	6
	39	56	125.558	9167.711	-20064.95	1	22060.13	-65.44425	5.40632E-010	0.0074879	6
	40	57	100.4464	10593.77	-24228.63	1	26443.41	-66.38304	-8.096139E-010	0.0074926	6
	41	58	79.00281	12492.02	-29727.56	1	32245.6	-67.20704	7.743606E-011	0.0074929	6
	42	60	63.3446	14300.91	-35440.27	1	38216.86	-68.02487	1.35181E-009	0.0074921	6
	43	61	49.86702	18689.5	-42629.31	1	46546.27	-66.32645	1.74991E-009	0.0074906	6
	44	63	39.72458	22525.78	-51163.08	1	55902.34	-66.23735	5.448745E-010	0.0074944	6
	45	64	31.6723	27832.64	-60544.67	1	66635.67	-65.31155	7.441471E-010	0.0074934	6
	46	66	24.93351	34718.35	-72033.47	1	79963.64	-64.26708	-3.300996E-011	0.0074891	6
	47	67	19.86229	42895.18	-83888	1	94218.86	-62.91758	2.067222E-010	0.0075002	6
	48	68	15.83615	53825.11	-97845.9	1	111673.5	-61.18478	-9.442334E-010	0.0074969	5
	49	70	12.40079	67577.88	-112290.8	1	131057.2	-58.95999	-2.150894E-009	0.0075003	5
	50	71	9.93114	79650.77	-128152.3	1	150888.2	-58.13772	1.111922E-010	0.0074994	5
	51	73	7.944915	94476.11	-142859.8	1	171273.6	-56.52251	-9.245799E-010	0.0074925	5
	52	75	6.317385	110720	-162262.9	1	196438.7	-55.69235	5.346905E-010	0.0074841	5
	53	77	5.008013	128408.4	-183312.3	1	223812.6	-54.98915	4.17109E-010	0.0075073	5
	54	79	3.945707	147827.4	-207860.6	1	255066.6	-54.58013	-4.858391E-012	0.0074959	5
	55	82	3.158693	166323.7	-235106.4	1	287990.6	-54.72288	1.445851E-010	0.0075108	5
	56	85	2.504006	186923.9	-269794.8	1	328222.2	-55.28434	2.184633E-011	0.0074912	5
	57	88	1.998082	208435.2	-310443.8	1	373925.9	-56.12218	-1.079626E-010	0.0075279	5
	58	91	1.584686	233284.7	-361840.5	1	430523.3	-57.18944	1.479706E-010	0.0075366	5
	59	95	1.266892	261143.2	-420968.2	1	495388.7	-58.18704	-5.073153E-011	0.0075395	5
	60	99	0.999041	294831.1	-497427.4	1	578238.2	-59.34428	1.315297E-010	0.0074698	5
