EXPLAIN
TAG	EISPOT
TITLE	LABEL	Potentiostatic EIS	Test &Identifier
DATE	LABEL	11/15/2019	Date
TIME	LABEL	10:27:34	Time
NOTES	NOTES	4	&Notes...
	
	
	
	
PSTAT	PSTAT	REF600-11020	Potentiostat
VDC	POTEN	0.00000E+000	T	DC &Voltage (V)
FREQINIT	QUANT	1.00000E+006	Initial Fre&q. (Hz)
FREQFINAL	QUANT	1.00000E+000	Final Fre&q. (Hz)
PTSPERDEC	QUANT	1.00000E+001	Points/&decade
VAC	QUANT	2.50000E+001	AC &Voltage (mV rms)
AREA	QUANT	1.00000E-002	&Area (cm^2)
CONDIT	TWOPARAM	T	5.00000E+000	0.00000E+000	Conditionin&g	Time(s)	E(V)
DELAY	TWOPARAM	T	5.00000E+000	0.00000E+000	Init. De&lay	Time(s)	Stab.(mV/s)
SPEED	SELECTOR	0	&Optimize for:
ZGUESS	QUANT	1.00000E+005	E&stimated Z (ohms)
OCVCURVE	TABLE	19
	Pt	T	Vf	Vm	Ach	Over
	#	s	V vs. Ref.	V	V	bits
	0	0.258333	4.93684E-003	4.93684E-003	5.61966E-004	...........
	1	0.516667	4.93365E-003	4.76976E-003	5.60532E-004	...........
	2	0.775	4.91478E-003	4.65002E-003	5.55299E-004	...........
	3	1.03333	4.86352E-003	4.51648E-003	5.60899E-004	...........
	4	1.29167	4.77469E-003	4.37143E-003	5.61866E-004	...........
	5	1.55	4.65726E-003	4.21560E-003	5.63366E-004	...........
	6	1.80833	4.52406E-003	4.13602E-003	5.65166E-004	...........
	7	2.06667	4.38863E-003	4.07683E-003	5.58832E-004	...........
	8	2.325	4.26562E-003	4.00628E-003	5.62232E-004	...........
	9	2.58333	4.16404E-003	3.94701E-003	5.57599E-004	...........
	10	2.84167	4.08247E-003	3.89098E-003	5.59432E-004	...........
	11	3.1	4.01411E-003	3.83670E-003	5.58266E-004	...........
	12	3.35833	3.95315E-003	3.78442E-003	5.59699E-004	...........
	13	3.61667	3.89649E-003	3.74428E-003	5.63432E-004	...........
	14	3.875	3.84326E-003	3.69667E-003	5.62832E-004	...........
	15	4.13333	3.79354E-003	3.66075E-003	5.58699E-004	...........
	16	4.39167	3.74724E-003	3.61763E-003	5.55866E-004	...........
	17	4.65	3.70386E-003	3.58414E-003	5.55666E-004	...........
	18	4.90833	3.66289E-003	3.54701E-003	5.52733E-004	...........
EOC	QUANT	0.0036629	Open Circuit (V)
PSTATMODEL	IQUANT	4	Pstat Model
PSTATSECTION	LABEL	REF600-11020	Pstat Section
PSTATSERIALNO	LABEL	11020	Pstat Serial Number
CTRLMODE	IQUANT	1	Control Mode
IESTAB	IQUANT	0	I/E Stability
CASPEED	IQUANT	1	Control Amp Speed
CONVENTION	IQUANT	1	Current Convention
ICHRANGE	IQUANT	2	Ich Range
ICHRANGEMODE	TOGGLE	F	Ich Auto Range
ICHOFFSETENABLE	TOGGLE	T	Ich Offset Enable
ICHOFFSET	QUANT	0	Ich Offset (V)
ICHFILTER	IQUANT	3	Ich Filter
VCHRANGE	IQUANT	2	Vch Range
VCHRANGEMODE	TOGGLE	F	Vch Auto Range
VCHOFFSETENABLE	TOGGLE	T	Vch Offset Enable
VCHOFFSET	QUANT	0	Vch Offset (V)
VCHFILTER	IQUANT	3	Vch Filter
ACHRANGE	IQUANT	2	Ach Range
ACHOFFSETENABLE	TOGGLE	F	Ach Offset Enable
ACHOFFSET	QUANT	0	Ach Offset (V)
ACHFILTER	IQUANT	3	Ach Filter
IERANGELOWERLIMIT	IQUANT	1	I/E Range Lower Limit
IERANGEMODE	TOGGLE	F	I/E AutoRange
IERANGE	IQUANT	4	I/E Range
POSFEEDENABLE	TOGGLE	F	Positive Feedback IR Comp
POSFEEDRESISTANCE	QUANT	0	Positive Feedback Resistance (ohm)
ACHSELECT	IQUANT	0	Ach Select
CABLEID	IQUANT	14	Cable ID
DCCALDATE	LABEL	8/19/2019	DC Calibration Date
ACCALDATE	LABEL	8/19/2019	AC Calibration Date
THERMOSELECT	IQUANT	1	Thermo Select
FRAMEWORKVERSION	QUANT	6.33	Framework Version
INSTRUMENTVERSION	LABEL	3.50	Instrument Version
ZCURVE	TABLE
	Pt	Time	Freq	Zreal	Zimag	Zsig	Zmod	Zphz	Idc	Vdc	IERange
	#	s	Hz	ohm	ohm	V	ohm	°	A	V	#
	0	2	1000078	2383.468	-1655.527	1	2902.015	-34.78336	-8.10113E-006	0.0065249	8
	1	2	794390.6	2717.418	-1585.748	1	3146.261	-30.26567	2.618959E-006	0.0053165	8
	2	2	630984.4	3004.595	-1456.236	1	3338.894	-25.85806	1.682576E-006	0.0058673	8
	3	3	501234.4	3250.942	-1296.678	1	3500	-21.74519	6.526847E-006	0.0042125	8
	4	3	398109.4	3428.937	-1157.725	1	3619.107	-18.65642	-4.466563E-006	0.005946	8
	5	3	316265.6	3582.533	-1007.933	1	3721.622	-15.71376	-4.352924E-006	0.0056662	8
	6	4	251203.1	3700.953	-876.5101	1	3803.331	-13.32407	-2.489516E-007	0.0057838	8
	7	4	199546.9	3795.081	-757.4722	1	3869.936	-11.28752	-1.998686E-007	0.0050331	8
	8	4	158578.1	3837.774	-685.1097	1	3898.447	-10.12168	-3.981221E-007	0.0057757	8
	9	5	125953.1	3925.339	-534.3941	1	3961.548	-7.752564	-3.220324E-006	0.0092913	7
	10	5	100078.1	3963.492	-477.6624	1	3992.172	-6.871891	-1.075958E-006	0.0057828	7
	11	5	79453.13	3999.296	-446.2668	1	4024.117	-6.367087	4.531631E-008	0.0063095	7
	12	6	63140.62	4034.988	-425.7329	1	4057.386	-6.023012	-3.31049E-007	0.0067028	7
	13	6	50203.12	4067.301	-414.0021	1	4088.317	-5.812002	-1.07624E-006	0.0057694	7
	14	6	39890.62	4101.258	-414.7642	1	4122.178	-5.774744	-1.264959E-006	0.0063693	7
	15	7	31640.63	4136.001	-429.3976	1	4158.231	-5.927185	-1.264572E-006	0.0063691	7
	16	7	25171.88	4174.043	-449.7553	1	4198.204	-6.149923	-6.716876E-007	0.0069453	7
	17	7	20015.62	4218.487	-485.1172	1	4246.289	-6.560079	1.045432E-006	0.0045738	7
	18	7	15890.62	4258.367	-528.4729	1	4291.034	-7.074364	1.035756E-006	0.0035232	7
	19	8	12609.37	4298.747	-584.9955	1	4338.369	-7.749499	-1.157257E-006	0.0069449	7
	20	8	10078.13	4344.964	-654.5935	1	4393.997	-8.567502	-6.717267E-007	0.0069415	7
	21	8	8015.625	4399.019	-741.272	1	4461.037	-9.56497	6.142454E-007	0.0055264	7
	22	9	6328.125	4449.949	-858.2187	1	4531.952	-10.91606	-7.350353E-007	0.0050546	7
	23	9	5015.625	4505.454	-997.038	1	4614.456	-12.47822	-1.156916E-006	0.0069434	7
	24	9	3984.375	4572.431	-1167.139	1	4719.04	-14.31931	1.143371E-006	0.0041141	7
	25	10	3170.956	4637.469	-1380.428	1	4838.563	-16.5766	5.367598E-007	0.0035054	7
	26	10	2527.573	4711.76	-1635.492	1	4987.536	-19.14232	-3.300817E-007	0.0066894	7
	27	10	1976.103	4807.061	-1984.807	1	5200.701	-22.43544	1.036414E-006	0.003516	7
	28	11	1577.524	4907.892	-2378.462	1	5453.851	-25.85575	8.436376E-007	0.0050798	7
	29	11	1265.625	5010.679	-2845.018	1	5762.034	-29.58751	1.037839E-006	0.0035104	7
	30	11	998.264	5147.017	-3461.366	1	6202.648	-33.92081	4.651076E-008	0.0062923	7
	31	12	796.875	5297.457	-4188.303	1	6753.142	-38.33079	1.145665E-006	0.0041143	7
	32	12	627.7902	5491.047	-5127.815	1	7513.061	-43.04089	1.486656E-007	0.0037983	7
	33	12	505.5147	5706.928	-6171.237	1	8405.545	-47.23851	-6.672997E-007	0.0069344	7
	34	13	397.9953	5980.35	-7608.474	1	9677.47	-51.83224	1.759985E-009	0.0052915	7
	35	13	315.5048	6319.92	-9326.771	1	11266.32	-55.87801	2.788645E-010	0.0052353	6
	36	13	252.4038	6722.034	-11356.12	1	13196.49	-59.37742	-1.295933E-010	0.0052208	6
	37	14	198.6229	7274.748	-14042.96	1	15815.4	-62.61426	6.082072E-010	0.0052304	6
	38	14	158.3615	7942.469	-17154.71	1	18904.15	-65.15631	-5.557582E-010	0.0052203	6
	39	14	125.558	8834.241	-21071.08	1	22848.07	-67.25369	-3.049668E-010	0.005232	6
	40	15	100.4464	9926.98	-25630.08	1	27485.38	-68.82774	1.331278E-009	0.0052152	6
	41	15	79.00281	11567.12	-31605.14	1	33655.36	-69.89795	8.652914E-010	0.005225	6
	42	15	63.3446	13466.26	-38834.44	1	41102.96	-70.87547	-8.178395E-010	0.0052193	6
	43	16	49.86702	16106.79	-47451.16	1	50110.29	-71.25076	6.849324E-010	0.0052205	6
	44	16	39.72458	19861.39	-57105.45	1	60460.79	-70.82222	3.403586E-010	0.0052257	6
	45	16	31.6723	24411.79	-68562.2	1	72778.5	-70.40157	3.101643E-010	0.0052201	6
	46	17	24.93351	30579.29	-83488.73	1	88912.66	-69.88381	2.805624E-010	0.0052123	6
	47	17	19.86229	38427.67	-99958.6	1	107090.6	-68.97144	-9.254029E-010	0.0052149	5
	48	17	15.83615	46993.41	-117585.8	1	126628.6	-68.21577	-5.654314E-010	0.0052216	5
	49	18	12.40079	61298.49	-141269.6	1	153995.5	-66.54343	2.289318E-010	0.005226	5
	50	18	9.93114	77405.06	-165524.4	1	182729	-64.93755	5.215783E-010	0.0052101	5
	51	19	7.944915	95285.3	-192022.4	1	214363.9	-63.60849	5.745558E-011	0.0052272	5
	52	19	6.317385	117347.8	-221752.2	1	250887.5	-62.11291	3.322119E-011	0.0052275	5
	53	20	5.008013	143661.4	-255813.2	1	293392.2	-60.68199	3.377772E-010	0.005224	5
	54	21	3.945707	175040.2	-293779.5	1	341972.9	-59.2126	-5.439192E-011	0.0052233	5
	55	22	3.158693	208907.6	-334001.4	1	393953.4	-57.97529	1.298854E-010	0.0052105	5
	56	24	2.504006	247811.6	-380440.6	1	454032.6	-56.92056	2.280804E-010	0.0052198	5
	57	25	1.998082	290112.8	-429854	1	518594.2	-55.98419	-5.650178E-011	0.0051781	5
	58	27	1.584686	336768.4	-489038	1	593777	-55.44737	-5.866978E-011	0.0051791	5
	59	29	1.266892	385284.4	-552297.7	1	673406.9	-55.10027	-6.510922E-012	0.0052117	5
	60	31	0.999041	442658	-630764	1	770590.3	-54.93956	3.368346E-011	0.0052386	5
