EXPLAIN
TAG	EISPOT
TITLE	LABEL	Potentiostatic EIS	Test &Identifier
DATE	LABEL	10/4/2019	Date
TIME	LABEL	9:14:57	Time
NOTES	NOTES	2	&Notes...
	
	
PSTAT	PSTAT	REF600-11020	Potentiostat
VDC	POTEN	0.00000E+000	T	DC &Voltage (V)
FREQINIT	QUANT	1.00000E+006	Initial Fre&q. (Hz)
FREQFINAL	QUANT	1.00000E+000	Final Fre&q. (Hz)
PTSPERDEC	QUANT	1.00000E+001	Points/&decade
VAC	QUANT	2.50000E+001	AC &Voltage (mV rms)
AREA	QUANT	1.00000E-002	&Area (cm^2)
CONDIT	TWOPARAM	T	5.00000E+000	0.00000E+000	Conditionin&g	Time(s)	E(V)
DELAY	TWOPARAM	T	5.00000E+000	0.00000E+000	Init. De&lay	Time(s)	Stab.(mV/s)
SPEED	SELECTOR	1	&Optimize for:
ZGUESS	QUANT	1.00000E+004	E&stimated Z (ohms)
OCVCURVE	TABLE	19
	Pt	T	Vf	Vm	Ach	Over
	#	s	V vs. Ref.	V	V	bits
	0	0.258333	2.71367E-003	2.71367E-003	5.63699E-004	...........
	1	0.516667	2.70608E-003	2.31636E-003	5.59899E-004	...........
	2	0.775	2.65993E-003	1.96364E-003	5.60599E-004	...........
	3	1.03333	2.53133E-003	1.64857E-003	5.60599E-004	...........
	4	1.29167	2.30630E-003	1.35421E-003	5.63566E-004	...........
	5	1.55	2.01559E-003	1.08014E-003	5.66766E-004	...........
	6	1.80833	1.70383E-003	8.26337E-004	5.61799E-004	...........
	7	2.06667	1.40105E-003	5.86408E-004	5.59932E-004	...........
	8	2.325	1.11876E-003	3.58239E-004	5.60832E-004	...........
	9	2.58333	8.57365E-004	1.40417E-004	5.62766E-004	...........
	10	2.84167	6.13400E-004	-6.45784E-005	5.60399E-004	...........
	11	3.1	3.83554E-004	-2.57570E-004	5.56999E-004	...........
	12	3.35833	1.65891E-004	-4.46630E-004	5.60399E-004	...........
	13	3.61667	-4.08175E-005	-6.26881E-004	5.59432E-004	...........
	14	3.875	-2.37923E-004	-8.02174E-004	5.62666E-004	...........
	15	4.13333	-4.26735E-004	-9.65243E-004	5.64766E-004	...........
	16	4.39167	-6.07902E-004	-1.12279E-003	5.67599E-004	...........
	17	4.65	-7.81493E-004	-1.27796E-003	5.60399E-004	...........
	18	4.90833	-9.47754E-004	-1.42319E-003	5.64399E-004	...........
EOC	QUANT	-0.0009478	Open Circuit (V)
PSTATMODEL	IQUANT	4	Pstat Model
PSTATSECTION	LABEL	REF600-11020	Pstat Section
PSTATSERIALNO	LABEL	11020	Pstat Serial Number
CTRLMODE	IQUANT	1	Control Mode
IESTAB	IQUANT	0	I/E Stability
CASPEED	IQUANT	1	Control Amp Speed
CONVENTION	IQUANT	1	Current Convention
ICHRANGE	IQUANT	2	Ich Range
ICHRANGEMODE	TOGGLE	F	Ich Auto Range
ICHOFFSETENABLE	TOGGLE	T	Ich Offset Enable
ICHOFFSET	QUANT	0	Ich Offset (V)
ICHFILTER	IQUANT	3	Ich Filter
VCHRANGE	IQUANT	2	Vch Range
VCHRANGEMODE	TOGGLE	F	Vch Auto Range
VCHOFFSETENABLE	TOGGLE	T	Vch Offset Enable
VCHOFFSET	QUANT	0	Vch Offset (V)
VCHFILTER	IQUANT	3	Vch Filter
ACHRANGE	IQUANT	2	Ach Range
ACHOFFSETENABLE	TOGGLE	F	Ach Offset Enable
ACHOFFSET	QUANT	0	Ach Offset (V)
ACHFILTER	IQUANT	3	Ach Filter
IERANGELOWERLIMIT	IQUANT	1	I/E Range Lower Limit
IERANGEMODE	TOGGLE	F	I/E AutoRange
IERANGE	IQUANT	5	I/E Range
POSFEEDENABLE	TOGGLE	F	Positive Feedback IR Comp
POSFEEDRESISTANCE	QUANT	0	Positive Feedback Resistance (ohm)
ACHSELECT	IQUANT	0	Ach Select
CABLEID	IQUANT	14	Cable ID
DCCALDATE	LABEL	8/19/2019	DC Calibration Date
ACCALDATE	LABEL	8/19/2019	AC Calibration Date
THERMOSELECT	IQUANT	1	Thermo Select
FRAMEWORKVERSION	QUANT	6.33	Framework Version
INSTRUMENTVERSION	LABEL	3.50	Instrument Version
ZCURVE	TABLE
	Pt	Time	Freq	Zreal	Zimag	Zsig	Zmod	Zphz	Idc	Vdc	IERange
	#	s	Hz	ohm	ohm	V	ohm	°	A	V	#
	0	2	1000078	2657.812	-1490.089	1	3047.02	-29.27695	6.049314E-006	0.0001076	8
	1	3	794390.6	2929.269	-1373.06	1	3235.106	-25.11428	-4.654862E-007	0.0005087	8
	2	5	630984.4	3161.215	-1220.886	1	3388.782	-21.11695	2.415743E-006	0.0001563	8
	3	6	501234.4	3328.344	-1066.183	1	3494.943	-17.76205	6.270711E-007	0.0005549	8
	4	7	398109.4	3457.325	-898.0574	1	3572.059	-14.56106	-6.4663E-007	0.0004864	8
	5	9	316265.6	3568.969	-775.053	1	3652.157	-12.25236	-5.026445E-007	0.0004508	8
	6	10	251203.1	3631.653	-668.4185	1	3692.653	-10.42877	3.695583E-006	-0.0001114	8
	7	11	199546.9	3691.767	-557.7351	1	3733.659	-8.591015	7.284343E-007	0.0005514	8
	8	13	158578.1	3729.112	-515.9979	1	3764.642	-7.878003	-6.89679E-007	0.0006625	8
	9	14	125953.1	3786.706	-404.6911	1	3808.27	-6.100133	2.995879E-007	-0.0007704	7
	10	15	100078.1	3817.145	-370.4126	1	3835.075	-5.542581	1.64921E-008	0.0004319	7
	11	17	79453.13	3844.068	-353.4401	1	3860.282	-5.253249	-1.768448E-008	0.0005502	7
	12	18	63140.62	3870.598	-345.2146	1	3885.962	-5.096665	3.680293E-010	0.0004756	7
	13	19	50203.12	3899.033	-344.7224	1	3914.242	-5.052514	9.986501E-009	0.0006067	7
	14	21	39890.62	3927.97	-353.8244	1	3943.874	-5.147207	9.556533E-008	0.0004344	7
	15	22	31640.63	3958.856	-371.2988	1	3976.229	-5.358064	4.982317E-008	0.0003621	7
	16	23	25171.88	3990.03	-398.0345	1	4009.834	-5.696825	9.595914E-008	0.0004299	7
	17	25	20015.62	4026.004	-434.0334	1	4049.333	-6.15315	-3.457269E-008	0.0005155	7
	18	26	15890.62	4062.703	-480.9088	1	4091.067	-6.750781	-1.713281E-008	0.0005358	7
	19	27	12609.37	4105.737	-537.4388	1	4140.763	-7.457587	-4.662278E-008	0.0006105	7
	20	29	10078.13	4145.345	-610.0586	1	4189.995	-8.371961	9.538094E-008	0.0004291	7
	21	30	8015.625	4191.072	-698.9717	1	4248.958	-9.468437	-9.375505E-009	0.0005625	7
	22	32	6328.125	4243.868	-811.3928	1	4320.738	-10.82386	-6.996503E-008	0.000599	7
	23	33	5015.625	4298.206	-948.8492	1	4401.692	-12.44866	1.02459E-008	0.0006012	7
	24	34	3984.375	4357.797	-1115.015	1	4498.183	-14.35217	-5.989802E-008	0.0006109	7
	25	36	3170.956	4425.395	-1318.512	1	4617.64	-16.59102	-5.583339E-008	0.0005706	7
	26	37	2527.573	4499.457	-1568.48	1	4765.002	-19.21821	9.676396E-008	0.0004217	7
	27	38	1976.103	4592.032	-1900.212	1	4969.665	-22.48008	4.598205E-008	0.0004511	7
	28	40	1577.524	4692.521	-2274.479	1	5214.692	-25.85961	1.611919E-009	0.0004632	7
	29	41	1265.625	4803.729	-2717.793	1	5519.258	-29.49977	4.689308E-008	0.0004572	7
	30	42	998.264	4943.997	-3303.743	1	5946.245	-33.75216	-6.929498E-008	0.0007133	7
	31	44	796.875	5096.254	-3983.02	1	6468.095	-38.0097	-4.50321E-008	0.0006108	7
	32	45	627.7902	5284.649	-4868.742	1	7185.553	-42.65434	9.888856E-008	0.0004246	7
	33	46	505.5147	5489.692	-5851.914	1	8023.815	-46.82926	1.903381E-008	0.0004132	7
	34	48	397.9953	5750.313	-7191.565	1	9207.861	-51.35448	5.135609E-009	0.0005253	7
	35	49	315.5048	6063.034	-8801.389	1	10687.6	-55.43811	1.290705E-009	0.0004667	6
	36	50	252.4038	6428.951	-10708.15	1	12489.83	-59.02026	1.449897E-009	0.0004616	6
	37	52	198.6229	6920.773	-13234.9	1	14935.18	-62.3941	9.316905E-010	0.0004679	6
	38	53	158.3615	7513.082	-16180.56	1	17839.75	-65.09325	5.914909E-010	0.0004626	6
	39	55	125.558	8302.853	-19889.34	1	21552.8	-67.34178	1.084971E-009	0.0004625	6
	40	56	100.4464	9296.379	-24240.05	1	25961.56	-69.01752	2.920945E-010	0.0004607	6
	41	57	79.00281	10691.25	-29939.87	1	31791.49	-70.34882	4.915454E-010	0.0004616	6
	42	59	63.3446	12204.3	-36225.83	1	38226.37	-71.38158	5.354611E-010	0.0004555	6
	43	60	49.86702	14990.6	-44798.32	1	47239.9	-71.49852	3.512965E-010	0.0004566	6
	44	61	39.72458	17904.57	-54514.73	1	57379.7	-71.81799	8.294802E-010	0.0004617	6
	45	63	31.6723	22077.23	-65924.05	1	69522.55	-71.48487	1.002438E-009	0.0004602	6
	46	64	24.93351	27531.8	-80347.23	1	84933.37	-71.08545	6.161971E-010	0.0004613	6
	47	66	19.86229	34555.41	-96502.4	1	102502.6	-70.29866	1.019875E-009	0.000468	6
	48	67	15.83615	43772.37	-115066	1	123110.5	-69.17263	2.331937E-010	0.0004646	5
	49	68	12.40079	55638.39	-138430.6	1	149193.3	-68.10369	5.646459E-010	0.0004679	5
	50	70	9.93114	70259.58	-163098	1	177587.6	-66.69452	6.957055E-010	0.0004622	5
	51	71	7.944915	88176.06	-189928.3	1	209398.6	-65.09646	-1.528806E-010	0.000458	5
	52	73	6.317385	109988.1	-221331	1	247153.4	-63.5754	4.316285E-010	0.0004519	5
	53	75	5.008013	136289.1	-256334.2	1	290313.5	-62.00108	-1.395654E-012	0.0004574	5
	54	77	3.945707	167735.6	-295675.2	1	339939.8	-60.4339	3.61454E-010	0.0004653	5
	55	80	3.158693	200693.3	-336600.1	1	391889.5	-59.19506	4.261884E-011	0.0004527	5
	56	83	2.504006	239101.5	-384025.3	1	452377	-58.09282	5.5628E-010	0.0004714	5
	57	86	1.998082	280583.5	-435773.5	1	518291.1	-57.22355	4.027139E-010	0.0004936	5
	58	89	1.584686	326335.9	-495003.3	1	592894.1	-56.60473	2.863788E-010	0.0004393	5
	59	93	1.266892	376104.6	-563767.6	1	677708.3	-56.29168	2.673592E-010	0.0004983	5
	60	97	0.999041	433533.7	-646897.1	1	778734.4	-56.17103	1.034923E-010	0.0004204	5
