EXPLAIN
TAG	EISPOT
TITLE	LABEL	Potentiostatic IDE	Test &Identifier
DATE	LABEL	9/6/2019	Date
TIME	LABEL	9:19:44	Time
NOTES	NOTES	1	&Notes...
	
PSTAT	PSTAT	REF600-11020	Potentiostat
VDC	POTEN	0.00000E+000	T	DC &Voltage (V)
FREQINIT	QUANT	1.00000E+006	Initial Fre&q. (Hz)
FREQFINAL	QUANT	1.00000E+000	Final Fre&q. (Hz)
PTSPERDEC	QUANT	1.00000E+001	Points/&decade
VAC	QUANT	2.50000E+001	AC &Voltage (mV rms)
AREA	QUANT	1.00000E-002	&Area (cm^2)
CONDIT	TWOPARAM	T	5.00000E+000	0.00000E+000	Conditionin&g	Time(s)	E(V)
DELAY	TWOPARAM	T	5.00000E+000	0.00000E+000	Init. De&lay	Time(s)	Stab.(mV/s)
SPEED	SELECTOR	1	&Optimize for:
ZGUESS	QUANT	1.00000E+007	E&stimated Z (ohms)
OCVCURVE	TABLE	19
	Pt	T	Vf	Vm	Ach	Over
	#	s	V vs. Ref.	V	V	bits
	0	0.258333	1.69841E-002	1.69841E-002	5.72699E-004	...........
	1	0.516667	1.69903E-002	1.73067E-002	5.73832E-004	...........
	2	0.775	1.70284E-002	1.76256E-002	5.74332E-004	...........
	3	1.03333	1.71372E-002	1.79437E-002	5.72566E-004	...........
	4	1.29167	1.73346E-002	1.82540E-002	5.69199E-004	...........
	5	1.55	1.76020E-002	1.85536E-002	5.74699E-004	...........
	6	1.80833	1.79047E-002	1.88477E-002	5.74932E-004	...........
	7	2.06667	1.82155E-002	1.91234E-002	5.77466E-004	...........
	8	2.325	1.85201E-002	1.93894E-002	5.72466E-004	...........
	9	2.58333	1.88130E-002	1.96460E-002	5.72199E-004	...........
	10	2.84167	1.90932E-002	1.98919E-002	5.73666E-004	...........
	11	3.1	1.93638E-002	2.02534E-002	5.68966E-004	...........
	12	3.35833	1.96423E-002	2.09436E-002	5.72299E-004	...........
	13	3.61667	1.99580E-002	2.09047E-002	5.73666E-004	...........
	14	3.875	2.03046E-002	2.10081E-002	5.70432E-004	...........
	15	4.13333	2.06234E-002	2.12780E-002	5.71199E-004	...........
	16	4.39167	2.08716E-002	2.13853E-002	5.75799E-004	...........
	17	4.65	2.10627E-002	2.15234E-002	5.69632E-004	...........
	18	4.90833	2.12260E-002	2.16911E-002	5.75999E-004	...........
EOC	QUANT	0.021226	Open Circuit (V)
PSTATMODEL	IQUANT	4	Pstat Model
PSTATSECTION	LABEL	REF600-11020	Pstat Section
PSTATSERIALNO	LABEL	11020	Pstat Serial Number
CTRLMODE	IQUANT	1	Control Mode
IESTAB	IQUANT	0	I/E Stability
CASPEED	IQUANT	1	Control Amp Speed
CONVENTION	IQUANT	1	Current Convention
ICHRANGE	IQUANT	2	Ich Range
ICHRANGEMODE	TOGGLE	F	Ich Auto Range
ICHOFFSETENABLE	TOGGLE	T	Ich Offset Enable
ICHOFFSET	QUANT	0	Ich Offset (V)
ICHFILTER	IQUANT	3	Ich Filter
VCHRANGE	IQUANT	2	Vch Range
VCHRANGEMODE	TOGGLE	F	Vch Auto Range
VCHOFFSETENABLE	TOGGLE	T	Vch Offset Enable
VCHOFFSET	QUANT	0	Vch Offset (V)
VCHFILTER	IQUANT	3	Vch Filter
ACHRANGE	IQUANT	2	Ach Range
ACHOFFSETENABLE	TOGGLE	F	Ach Offset Enable
ACHOFFSET	QUANT	0	Ach Offset (V)
ACHFILTER	IQUANT	3	Ach Filter
IERANGELOWERLIMIT	IQUANT	1	I/E Range Lower Limit
IERANGEMODE	TOGGLE	F	I/E AutoRange
IERANGE	IQUANT	3	I/E Range
POSFEEDENABLE	TOGGLE	F	Positive Feedback IR Comp
POSFEEDRESISTANCE	QUANT	0	Positive Feedback Resistance (ohm)
ACHSELECT	IQUANT	0	Ach Select
CABLEID	IQUANT	14	Cable ID
DCCALDATE	LABEL	8/19/2019	DC Calibration Date
ACCALDATE	LABEL	8/19/2019	AC Calibration Date
THERMOSELECT	IQUANT	1	Thermo Select
FRAMEWORKVERSION	QUANT	6.33	Framework Version
INSTRUMENTVERSION	LABEL	3.50	Instrument Version
ZCURVE	TABLE
	Pt	Time	Freq	Zreal	Zimag	Zsig	Zmod	Zphz	Idc	Vdc	IERange
	#	s	Hz	ohm	ohm	V	ohm	°	A	V	#
	0	2	1000078	1720.218	-2248.448	1	2831.019	-52.58151	1.819885E-006	0.0233273	8
	1	3	794390.6	1938.039	-2524.375	1	3182.525	-52.48546	1.075966E-006	0.0230126	8
	2	4	630984.4	2189.115	-2840.66	1	3586.304	-52.38085	-1.251792E-006	0.0233364	8
	3	6	501234.4	2461.682	-3228.8	1	4060.176	-52.6776	-2.001082E-006	0.023508	8
	4	7	398109.4	2735.425	-3713.351	1	4612.106	-53.62294	-1.895514E-006	0.0234328	8
	5	8	316265.6	3063.174	-4291.525	1	5272.592	-54.48179	1.507935E-006	0.0225981	8
	6	10	251203.1	3459.484	-4992.127	1	6073.662	-55.2785	2.360716E-006	0.0225088	8
	7	11	199546.9	3902.042	-5863.398	1	7043.108	-56.35657	-2.703685E-006	0.0235522	8
	8	13	158578.1	4558.277	-6842.373	1	8221.676	-56.3291	-8.313716E-007	0.0230776	8
	9	14	125953.1	5375.437	-8014.068	1	9649.9	-56.14827	-9.857101E-008	0.0229549	7
	10	16	100078.1	6363.599	-9387.792	1	11341.34	-55.86827	-5.450601E-009	0.0229346	7
	11	17	79453.13	7730.435	-10889.35	1	13354.31	-54.62877	-1.043128E-009	0.0228628	7
	12	18	63140.62	9401.079	-12478.5	1	15623.49	-53.00629	-2.000181E-008	0.0228977	7
	13	20	50203.12	11554.19	-14132.35	1	18254.39	-50.73159	4.443948E-008	0.0228773	7
	14	21	39890.62	14139.97	-15587.5	1	21045.4	-47.78772	2.61123E-008	0.0228634	7
	15	22	31640.63	17168.44	-16842.04	1	24050.15	-44.45015	1.151332E-009	0.0228501	7
	16	24	25171.88	20464.11	-17633.26	1	27013.17	-40.7504	4.875375E-008	0.0228753	7
	17	25	20015.62	23941.37	-17778.99	1	29820.82	-36.59777	-2.596003E-008	0.0229091	7
	18	27	15890.62	27307.12	-17435.48	1	32398.68	-32.55805	-2.614669E-008	0.0229052	7
	19	28	12609.37	30525.63	-16702.78	1	34796.51	-28.68625	-1.302287E-009	0.0227742	6
	20	30	10078.13	33329.24	-15817.59	1	36892.2	-25.38836	3.768042E-009	0.0228357	6
	21	31	8015.625	35563.81	-14912.29	1	38563.73	-22.74884	-4.211098E-009	0.0228437	6
	22	32	6328.125	37716.92	-14042.27	1	40246.13	-20.42065	2.749005E-009	0.0228411	6
	23	34	5015.625	39396.65	-13286.25	1	41576.68	-18.63632	3.57286E-009	0.022834	6
	24	35	3984.375	41131.9	-12676.01	1	43040.84	-17.12823	-6.800807E-009	0.0228847	6
	25	36	3170.956	42445.04	-12069.64	1	44127.75	-15.8736	2.745097E-009	0.0228717	6
	26	38	2527.573	43766.22	-12125.88	1	45414.96	-15.48594	-2.192095E-009	0.022921	6
	27	39	1976.103	45004.32	-12072.45	1	46595.42	-15.01613	-2.882965E-009	0.0228841	6
	28	40	1577.524	46213.73	-12143.12	1	47782.47	-14.72224	8.238525E-009	0.0227129	6
	29	42	1265.625	47267.29	-12595.29	1	48916.64	-14.92087	1.671048E-009	0.0228572	6
	30	43	998.264	48865.3	-13075.07	1	50584.34	-14.97993	-4.662538E-009	0.0228895	6
	31	45	796.875	49791.14	-14361.58	1	51820.97	-16.08949	9.650965E-009	0.022627	6
	32	46	627.7902	50844.13	-15732.98	1	53222.66	-17.19393	9.472419E-009	0.0227066	6
	33	47	505.5147	52644.57	-17268.71	1	55404.51	-18.16076	-3.598845E-009	0.0228689	6
	34	49	397.9953	53820.25	-19630.74	1	57288.62	-20.03926	1.122455E-010	0.0228345	6
	35	50	315.5048	55341.12	-22394.29	1	59700.46	-22.03117	5.171738E-010	0.0228347	6
	36	51	252.4038	56937.8	-25708.13	1	62472.57	-24.29977	5.388774E-010	0.0228289	6
	37	53	198.6229	58836.35	-30083.68	1	66081.34	-27.08117	4.337644E-010	0.0228309	6
	38	54	158.3615	60847.56	-35161.19	1	70276.13	-30.02177	6.443181E-012	0.0228302	6
	39	55	125.558	63310.48	-41696.85	1	75807.94	-33.36926	2.882544E-010	0.0228333	6
	40	57	100.4464	65984.65	-49247.94	1	82336.7	-36.73598	2.791854E-011	0.0228287	6
	41	58	79.00281	69121.54	-58889.88	1	90806.41	-40.43019	5.906793E-010	0.0228272	6
	42	59	63.3446	73576.31	-71131.36	1	102338.4	-44.03203	1.971551E-010	0.0228288	5
	43	61	49.86702	77177.23	-83796.99	1	113922.2	-47.35485	-3.742883E-010	0.0228235	5
	44	62	39.72458	83726.46	-101036.5	1	131219.3	-50.35229	-8.730978E-011	0.0228309	5
	45	63	31.6723	90360.16	-120671.1	1	150753	-53.17364	-7.209587E-011	0.0228301	5
	46	65	24.93351	99527.5	-145990.8	1	176689.1	-55.71625	-1.177693E-010	0.0228309	5
	47	66	19.86229	109793.3	-174736.5	1	206367.2	-57.85736	8.123052E-011	0.022831	5
	48	68	15.83615	123775.8	-211678.1	1	245210.2	-59.68365	-7.499726E-010	0.0228335	5
	49	69	12.40079	138871.8	-251984.8	1	287718.1	-61.14033	-4.976579E-010	0.0228363	5
	50	70	9.93114	160393.8	-301978	1	341931.1	-62.02527	5.793545E-011	0.0228293	5
	51	72	7.944915	183974.2	-356652.5	1	401307.3	-62.71369	2.609019E-010	0.0228376	5
	52	74	6.317385	215275.1	-425560.1	1	476911.7	-63.16684	-1.377724E-011	0.0228492	5
	53	76	5.008013	253528.9	-506910.5	1	566776.1	-63.42829	-9.681256E-012	0.022833	5
	54	78	3.945707	300795.4	-604463.8	1	675169.9	-63.54398	-1.025754E-011	0.0228287	5
	55	81	3.158693	355205.6	-711668.9	1	795388.9	-63.47547	3.873351E-010	0.0228382	6
	56	85	2.504006	422932.9	-841158.4	1	941498.7	-63.30683	1.75477E-011	0.0228253	5
	57	87	1.998082	503190.6	-989576	1	1110163	-63.04707	-1.10623E-010	0.0228331	4
	58	90	1.584686	606770.3	-1163398	1	1312122	-62.45571	-2.640642E-011	0.0228826	4
	59	94	1.266892	723657.3	-1362057	1	1542361	-62.01841	-9.518332E-011	0.0228127	4
	60	98	0.999041	880323.6	-1597074	1	1823627	-61.13599	3.028543E-011	0.0228751	4
