EXPLAIN
TAG	EISPOT
TITLE	LABEL	Potentiostatic IDE	Test &Identifier
DATE	LABEL	9/16/2019	Date
TIME	LABEL	10:21:59	Time
NOTES	NOTES	1	&Notes...
	
PSTAT	PSTAT	REF600-11020	Potentiostat
VDC	POTEN	0.00000E+000	T	DC &Voltage (V)
FREQINIT	QUANT	1.00000E+006	Initial Fre&q. (Hz)
FREQFINAL	QUANT	1.00000E+000	Final Fre&q. (Hz)
PTSPERDEC	QUANT	1.00000E+001	Points/&decade
VAC	QUANT	2.50000E+001	AC &Voltage (mV rms)
AREA	QUANT	1.00000E-002	&Area (cm^2)
CONDIT	TWOPARAM	T	5.00000E+000	0.00000E+000	Conditionin&g	Time(s)	E(V)
DELAY	TWOPARAM	T	5.00000E+000	0.00000E+000	Init. De&lay	Time(s)	Stab.(mV/s)
SPEED	SELECTOR	1	&Optimize for:
ZGUESS	QUANT	1.00000E+007	E&stimated Z (ohms)
OCVCURVE	TABLE	19
	Pt	T	Vf	Vm	Ach	Over
	#	s	V vs. Ref.	V	V	bits
	0	0.258333	1.58166E-003	1.58166E-003	5.34833E-004	...........
	1	0.516667	1.57541E-003	1.25470E-003	5.38199E-004	...........
	2	0.775	1.53779E-003	9.83216E-004	5.47999E-004	...........
	3	1.03333	1.43365E-003	7.14483E-004	5.42966E-004	...........
	4	1.29167	1.25160E-003	4.68481E-004	5.42499E-004	...........
	5	1.55	1.01492E-003	2.32629E-004	5.42733E-004	...........
	6	1.80833	7.57918E-004	1.50537E-005	5.44499E-004	...........
	7	2.06667	5.04632E-004	-1.88331E-004	5.46666E-004	...........
	8	2.325	2.65681E-004	-3.81106E-004	5.43266E-004	...........
	9	2.58333	4.26196E-005	-5.95058E-004	5.45866E-004	...........
	10	2.84167	-1.67849E-004	-7.63265E-004	5.45966E-004	...........
	11	3.1	-3.69188E-004	-9.37574E-004	5.44099E-004	...........
	12	3.35833	-5.61949E-004	-1.10896E-003	5.41533E-004	...........
	13	3.61667	-7.45863E-004	-1.27588E-003	5.38366E-004	...........
	14	3.875	-9.22011E-004	-1.42214E-003	5.43966E-004	...........
	15	4.13333	-1.09108E-003	-1.56407E-003	5.42699E-004	...........
	16	4.39167	-1.25245E-003	-1.71327E-003	5.41399E-004	...........
	17	4.65	-1.40615E-003	-1.84562E-003	5.46966E-004	...........
	18	4.90833	-1.55354E-003	-1.98192E-003	5.41066E-004	...........
EOC	QUANT	-0.0015535	Open Circuit (V)
PSTATMODEL	IQUANT	4	Pstat Model
PSTATSECTION	LABEL	REF600-11020	Pstat Section
PSTATSERIALNO	LABEL	11020	Pstat Serial Number
CTRLMODE	IQUANT	1	Control Mode
IESTAB	IQUANT	0	I/E Stability
CASPEED	IQUANT	1	Control Amp Speed
CONVENTION	IQUANT	1	Current Convention
ICHRANGE	IQUANT	2	Ich Range
ICHRANGEMODE	TOGGLE	F	Ich Auto Range
ICHOFFSETENABLE	TOGGLE	T	Ich Offset Enable
ICHOFFSET	QUANT	0	Ich Offset (V)
ICHFILTER	IQUANT	3	Ich Filter
VCHRANGE	IQUANT	2	Vch Range
VCHRANGEMODE	TOGGLE	F	Vch Auto Range
VCHOFFSETENABLE	TOGGLE	T	Vch Offset Enable
VCHOFFSET	QUANT	0	Vch Offset (V)
VCHFILTER	IQUANT	3	Vch Filter
ACHRANGE	IQUANT	2	Ach Range
ACHOFFSETENABLE	TOGGLE	F	Ach Offset Enable
ACHOFFSET	QUANT	0	Ach Offset (V)
ACHFILTER	IQUANT	3	Ach Filter
IERANGELOWERLIMIT	IQUANT	1	I/E Range Lower Limit
IERANGEMODE	TOGGLE	F	I/E AutoRange
IERANGE	IQUANT	2	I/E Range
POSFEEDENABLE	TOGGLE	F	Positive Feedback IR Comp
POSFEEDRESISTANCE	QUANT	0	Positive Feedback Resistance (ohm)
ACHSELECT	IQUANT	0	Ach Select
CABLEID	IQUANT	14	Cable ID
DCCALDATE	LABEL	8/19/2019	DC Calibration Date
ACCALDATE	LABEL	8/19/2019	AC Calibration Date
THERMOSELECT	IQUANT	1	Thermo Select
FRAMEWORKVERSION	QUANT	6.33	Framework Version
INSTRUMENTVERSION	LABEL	3.50	Instrument Version
ZCURVE	TABLE
	Pt	Time	Freq	Zreal	Zimag	Zsig	Zmod	Zphz	Idc	Vdc	IERange
	#	s	Hz	ohm	ohm	V	ohm	°	A	V	#
	0	2	1000078	2415.965	-1559.485	1	2875.566	-32.84189	6.71983E-006	-0.0006778	8
	1	3	794390.6	2711.369	-1477.955	1	3088.021	-28.59461	-4.114867E-006	0.0008502	8
	2	5	630984.4	2991.355	-1343.7	1	3279.289	-24.18935	3.232724E-006	-0.0003739	8
	3	6	501234.4	3201.802	-1188.569	1	3415.294	-20.36587	1.696701E-006	-0.0004464	8
	4	8	398109.4	3353.641	-1043.427	1	3512.214	-17.28262	1.059736E-006	-0.0002105	8
	5	9	316265.6	3501.42	-918.5135	1	3619.891	-14.69898	4.299349E-006	-0.0007047	8
	6	10	251203.1	3582.78	-783.2321	1	3667.392	-12.33144	4.127095E-006	-0.0007031	8
	7	12	199546.9	3669.783	-658.0227	1	3728.311	-10.16558	-4.984299E-006	0.00123	8
	8	13	158578.1	3731.65	-586.7758	1	3777.502	-8.936189	1.932852E-006	-0.000291	8
	9	15	125953.1	3793.177	-476.2098	1	3822.953	-7.155692	1.34626E-006	-0.0030141	7
	10	16	100078.1	3824.585	-421.1351	1	3847.701	-6.283675	-1.150393E-008	0.0001106	7
	11	17	79453.13	3856.731	-392.6606	1	3876.668	-5.813353	-8.090088E-008	0.0001897	7
	12	19	63140.62	3888.493	-373.501	1	3906.39	-5.486593	-7.837788E-009	1.563797E-005	7
	13	20	50203.12	3920.036	-363.7039	1	3936.872	-5.300771	2.109114E-008	-3.108004E-005	7
	14	21	39890.62	3949.071	-364.2143	1	3965.831	-5.269359	-1.626551E-008	0.0001213	7
	15	23	31640.63	3982.846	-370.7493	1	4000.065	-5.31814	3.864512E-008	1.356766E-005	7
	16	24	25171.88	4016.455	-386.1016	1	4034.97	-5.490968	-1.556854E-008	0.0001157	7
	17	25	20015.62	4050.024	-410.123	1	4070.737	-5.782309	3.833255E-008	1.420818E-005	7
	18	27	15890.62	4082.344	-446.0515	1	4106.64	-6.235607	-1.377924E-008	0.0001135	7
	19	28	12609.37	4123.296	-487.4761	1	4152.012	-6.742487	-7.089258E-009	2.028813E-006	7
	20	29	10078.13	4163.34	-541.2055	1	4198.37	-7.406523	-3.887326E-008	0.0001012	7
	21	31	8015.625	4204.149	-611.2402	1	4248.351	-8.272258	-2.182096E-008	0.000218	7
	22	32	6328.125	4250.666	-701.7117	1	4308.197	-9.374002	-3.84373E-008	6.109825E-005	7
	23	33	5015.625	4299.064	-812.5745	1	4375.184	-10.70332	7.865209E-008	-8.534485E-005	7
	24	35	3984.375	4351.183	-948.7992	1	4453.427	-12.3011	-1.815483E-008	2.671585E-005	7
	25	36	3170.956	4409.214	-1115.853	1	4548.219	-14.20183	7.690345E-008	-9.122751E-005	7
	26	37	2527.573	4473.71	-1320.012	1	4664.388	-16.43921	2.329144E-008	-4.145485E-005	7
	27	39	1976.103	4554.33	-1594.267	1	4825.309	-19.29287	-4.125955E-008	8.609777E-005	7
	28	40	1577.524	4640.394	-1902.744	1	5015.345	-22.29556	2.481665E-008	-3.46581E-005	7
	29	41	1265.625	4735.381	-2268.266	1	5250.606	-25.5946	-4.091574E-008	8.403541E-005	7
	30	43	998.264	4855.173	-2745.934	1	5577.89	-29.49114	-1.766464E-008	2.292076E-005	7
	31	44	796.875	4984.008	-3303.611	1	5979.48	-33.5381	-5.347059E-008	0.0001645	7
	32	45	627.7902	5140.415	-4027.766	1	6530.449	-38.08043	4.578824E-008	-0.000096	7
	33	47	505.5147	5301.446	-4830.306	1	7171.973	-42.33759	2.493759E-008	-3.365815E-005	7
	34	48	397.9953	5514.27	-5935.498	1	8101.685	-47.10692	5.312224E-009	7.325108E-005	7
	35	49	315.5048	5759.397	-7259.524	1	9266.68	-51.57301	6.739134E-009	7.246804E-005	7
	36	51	252.4038	6047.738	-8826.211	1	10699.4	-55.58097	2.006569E-009	1.274709E-005	6
	37	52	198.6229	6425.479	-10909.35	1	12660.99	-59.50242	1.15161E-009	9.592816E-006	6
	38	53	158.3615	6874.238	-13345.66	1	15012.05	-62.74738	6.383781E-010	5.565392E-006	6
	39	55	125.558	7461.255	-16416.49	1	18032.51	-65.55832	1.341085E-009	7.551877E-006	6
	40	56	100.4464	8209.118	-20039.68	1	21655.91	-67.72388	1.86017E-009	1.380085E-006	6
	41	57	79.00281	9161.3	-24839.62	1	26475.19	-69.75511	8.871763E-010	6.484085E-006	6
	42	59	63.3446	10446.17	-29922.51	1	31693.52	-70.75552	6.623483E-010	4.411268E-006	6
	43	60	49.86702	11965.06	-37341.34	1	39211.45	-72.2333	3.110554E-010	7.825337E-006	6
	44	61	39.72458	14409.65	-45525.69	1	47751.71	-72.43654	1.230704E-009	1.319633E-005	6
	45	63	31.6723	17093.01	-55464.18	1	58038.31	-72.8717	1.661451E-009	1.247358E-005	6
	46	64	24.93351	21167.99	-67965.05	1	71185.19	-72.70059	1.474955E-009	4.270742E-006	6
	47	65	19.86229	26135.87	-82259.44	1	86311.63	-72.37366	1.737699E-009	1.675096E-005	6
	48	67	15.83615	32361.1	-99082.6	1	104233.4	-71.91258	1.264161E-009	1.147759E-005	6
	49	68	12.40079	42144.49	-121341.8	1	128452.3	-70.84685	1.082898E-009	1.161407E-005	5
	50	70	9.93114	52303.41	-144546.8	1	153718.7	-70.10764	7.365538E-010	8.619541E-006	5
	51	71	7.944915	66351.87	-170889.5	1	183318.8	-68.78012	4.47262E-010	1.258541E-005	5
	52	73	6.317385	83945.57	-202997.5	1	219669.8	-67.53343	3.043971E-010	1.241201E-005	5
	53	75	5.008013	106717.7	-240103.6	1	262751.6	-66.03651	2.171079E-010	1.419934E-005	5
	54	77	3.945707	135417.4	-282160.7	1	312973.7	-64.36224	5.621456E-010	1.617003E-005	5
	55	80	3.158693	167827.7	-325755.8	1	366446.4	-62.74271	5.441337E-010	3.558599E-005	5
	56	83	2.504006	208407.6	-377583.5	1	431280.7	-61.10345	5.177338E-011	1.483964E-005	5
	57	86	1.998082	254751.1	-429369.1	1	499255.4	-59.31871	2.938013E-010	-3.086207E-005	5
	58	89	1.584686	308569.7	-489621.3	1	578743.7	-57.78	8.58615E-011	-1.205956E-005	5
	59	93	1.266892	367737.8	-549649.6	1	661321.3	-56.21587	4.367931E-010	-2.259483E-005	5
	60	97	0.999041	437588.8	-623087.7	1	761394.9	-54.91998	-3.735986E-011	2.528655E-005	5
