EXPLAIN
TAG	EISPOT
TITLE	LABEL	Potentiostatic IDE	Test &Identifier
DATE	LABEL	9/10/2019	Date
TIME	LABEL	8:15:57	Time
NOTES	NOTES	1	&Notes...
	
PSTAT	PSTAT	REF600-11020	Potentiostat
VDC	POTEN	0.00000E+000	T	DC &Voltage (V)
FREQINIT	QUANT	1.00000E+006	Initial Fre&q. (Hz)
FREQFINAL	QUANT	1.00000E+000	Final Fre&q. (Hz)
PTSPERDEC	QUANT	1.00000E+001	Points/&decade
VAC	QUANT	2.50000E+001	AC &Voltage (mV rms)
AREA	QUANT	1.00000E-002	&Area (cm^2)
CONDIT	TWOPARAM	T	5.00000E+000	0.00000E+000	Conditionin&g	Time(s)	E(V)
DELAY	TWOPARAM	T	5.00000E+000	0.00000E+000	Init. De&lay	Time(s)	Stab.(mV/s)
SPEED	SELECTOR	1	&Optimize for:
ZGUESS	QUANT	1.00000E+007	E&stimated Z (ohms)
OCVCURVE	TABLE	19
	Pt	T	Vf	Vm	Ach	Over
	#	s	V vs. Ref.	V	V	bits
	0	0.258333	6.91272E-003	6.91272E-003	5.56733E-004	...........
	1	0.516667	6.91376E-003	6.96705E-003	5.58332E-004	...........
	2	0.775	6.92050E-003	7.03759E-003	5.57766E-004	...........
	3	1.03333	6.94090E-003	7.11239E-003	5.60699E-004	...........
	4	1.29167	6.98054E-003	7.19487E-003	5.54833E-004	...........
	5	1.55	7.03848E-003	7.27434E-003	5.56233E-004	...........
	6	1.80833	7.10928E-003	7.35571E-003	5.53999E-004	...........
	7	2.06667	7.18706E-003	7.43851E-003	5.54433E-004	...........
	8	2.325	7.26772E-003	7.51476E-003	5.52599E-004	...........
	9	2.58333	7.34902E-003	7.59919E-003	5.56699E-004	...........
	10	2.84167	7.43004E-003	7.67621E-003	5.55699E-004	...........
	11	3.1	7.51057E-003	7.75367E-003	5.53933E-004	...........
	12	3.35833	7.59042E-003	7.82989E-003	5.50133E-004	...........
	13	3.61667	7.66920E-003	7.90376E-003	5.54266E-004	...........
	14	3.875	7.74653E-003	7.97178E-003	5.54699E-004	...........
	15	4.13333	7.82196E-003	8.04158E-003	5.54666E-004	...........
	16	4.39167	7.89530E-003	8.11915E-003	5.52666E-004	...........
	17	4.65	7.96725E-003	8.18529E-003	5.58032E-004	...........
	18	4.90833	8.03874E-003	8.25696E-003	5.57166E-004	...........
EOC	QUANT	0.0080387	Open Circuit (V)
PSTATMODEL	IQUANT	4	Pstat Model
PSTATSECTION	LABEL	REF600-11020	Pstat Section
PSTATSERIALNO	LABEL	11020	Pstat Serial Number
CTRLMODE	IQUANT	1	Control Mode
IESTAB	IQUANT	0	I/E Stability
CASPEED	IQUANT	1	Control Amp Speed
CONVENTION	IQUANT	1	Current Convention
ICHRANGE	IQUANT	2	Ich Range
ICHRANGEMODE	TOGGLE	F	Ich Auto Range
ICHOFFSETENABLE	TOGGLE	T	Ich Offset Enable
ICHOFFSET	QUANT	0	Ich Offset (V)
ICHFILTER	IQUANT	3	Ich Filter
VCHRANGE	IQUANT	2	Vch Range
VCHRANGEMODE	TOGGLE	F	Vch Auto Range
VCHOFFSETENABLE	TOGGLE	T	Vch Offset Enable
VCHOFFSET	QUANT	0	Vch Offset (V)
VCHFILTER	IQUANT	3	Vch Filter
ACHRANGE	IQUANT	2	Ach Range
ACHOFFSETENABLE	TOGGLE	F	Ach Offset Enable
ACHOFFSET	QUANT	0	Ach Offset (V)
ACHFILTER	IQUANT	3	Ach Filter
IERANGELOWERLIMIT	IQUANT	1	I/E Range Lower Limit
IERANGEMODE	TOGGLE	F	I/E AutoRange
IERANGE	IQUANT	3	I/E Range
POSFEEDENABLE	TOGGLE	F	Positive Feedback IR Comp
POSFEEDRESISTANCE	QUANT	0	Positive Feedback Resistance (ohm)
ACHSELECT	IQUANT	0	Ach Select
CABLEID	IQUANT	14	Cable ID
DCCALDATE	LABEL	8/19/2019	DC Calibration Date
ACCALDATE	LABEL	8/19/2019	AC Calibration Date
THERMOSELECT	IQUANT	1	Thermo Select
FRAMEWORKVERSION	QUANT	6.33	Framework Version
INSTRUMENTVERSION	LABEL	3.50	Instrument Version
ZCURVE	TABLE
	Pt	Time	Freq	Zreal	Zimag	Zsig	Zmod	Zphz	Idc	Vdc	IERange
	#	s	Hz	ohm	ohm	V	ohm	°	A	V	#
	0	2	1000078	2283.309	-1190.46	1	2575.013	-27.53641	-7.339189E-007	0.0106518	8
	1	4	794390.6	2498.214	-1083.621	1	2723.106	-23.44919	4.847545E-006	0.0091531	8
	2	5	630984.4	2670.452	-963.633	1	2838.997	-19.84198	-1.64572E-006	0.009698	8
	3	6	501234.4	2800.801	-837.4177	1	2923.312	-16.64626	6.482075E-007	0.0095619	8
	4	8	398109.4	2900.25	-728.0234	1	2990.229	-14.09128	2.466311E-006	0.0092035	8
	5	9	316265.6	2975.302	-628.4605	1	3040.952	-11.92703	1.289222E-006	0.0093107	8
	6	10	251203.1	3042.978	-554.8356	1	3093.147	-10.3334	3.502365E-006	0.0089851	8
	7	12	199546.9	3078.316	-478.294	1	3115.252	-8.831725	-3.465392E-006	0.0102447	8
	8	13	158578.1	3118.052	-429.5883	1	3147.506	-7.844517	-1.087957E-006	0.0098364	8
	9	14	125953.1	3157.883	-364.6549	1	3178.867	-6.587027	-5.381063E-007	0.0110538	7
	10	16	100078.1	3188.035	-341.6949	1	3206.294	-6.11763	5.983549E-008	0.0094445	7
	11	17	79453.13	3217.485	-335.3441	1	3234.914	-5.950199	-5.163755E-008	0.0096544	7
	12	18	63140.62	3247.273	-339.8606	1	3265.01	-5.974841	5.567129E-009	0.0095458	7
	13	20	50203.12	3278.151	-346.9904	1	3296.464	-6.042226	-9.08326E-009	0.0095628	7
	14	21	39890.62	3314.359	-364.9908	1	3334.396	-6.284325	8.97318E-008	0.0094331	7
	15	22	31640.63	3348.601	-390.0164	1	3371.238	-6.643389	3.343501E-008	0.0094568	7
	16	24	25171.88	3390.165	-419.3749	1	3416.006	-7.051857	-6.130443E-008	0.0097315	7
	17	25	20015.62	3433.397	-459.5647	1	3464.017	-7.623802	-5.972143E-008	0.0096308	7
	18	26	15890.62	3484.977	-510.4516	1	3522.162	-8.332973	4.484188E-009	0.0096347	7
	19	27	12609.37	3541.437	-565.4207	1	3586.29	-9.0712	-1.234937E-008	0.0095898	7
	20	29	10078.13	3601.711	-633.0337	1	3656.918	-9.96844	-4.512102E-008	0.0096179	7
	21	30	8015.625	3667.427	-708.0046	1	3735.142	-10.92666	4.987477E-008	0.0094702	7
	22	31	6328.125	3745.666	-804.6277	1	3831.115	-12.12378	2.985795E-008	0.0095209	7
	23	33	5015.625	3830.955	-912.2547	1	3938.074	-13.39423	3.33872E-009	0.0096349	7
	24	34	3984.375	3919.863	-1037.373	1	4054.808	-14.82324	1.52794E-008	0.0094898	7
	25	35	3170.956	4015.226	-1181.405	1	4185.422	-16.39553	-4.731506E-008	0.0096464	7
	26	37	2527.573	4122.34	-1354.537	1	4339.177	-18.18972	6.003161E-009	0.009628	7
	27	38	1976.103	4241.02	-1570.296	1	4522.397	-20.31777	-2.495732E-008	0.0095525	7
	28	39	1577.524	4361.764	-1815.434	1	4724.488	-22.59784	-1.16727E-008	0.0096011	7
	29	41	1265.625	4484.125	-2105.713	1	4953.929	-25.15441	2.845466E-008	0.0095141	7
	30	42	998.264	4623.072	-2479.701	1	5246.114	-28.208	-4.41075E-008	0.0096094	7
	31	43	796.875	4770.039	-2922.759	1	5594.264	-31.49717	-1.242438E-008	0.0096003	7
	32	45	627.7902	4942.978	-3502.449	1	6058.067	-35.32027	-2.470381E-008	0.0095549	7
	33	46	505.5147	5106.865	-4142.561	1	6575.78	-39.0481	-1.516445E-008	0.009583	7
	34	47	397.9953	5322.286	-5017.088	1	7314.226	-43.30923	3.65767E-009	0.0095836	7
	35	49	315.5048	5557.181	-6070.159	1	8229.769	-47.52615	4.643558E-009	0.0095828	7
	36	50	252.4038	5818.751	-7318.079	1	9349.446	-51.51109	4.898447E-009	0.0095757	7
	37	51	198.6229	6152.48	-8977.288	1	10883.23	-55.57566	8.706965E-010	0.009517	6
	38	53	158.3615	6531.199	-10921.23	1	12725.16	-59.1194	8.923983E-010	0.0095138	6
	39	54	125.558	7007.145	-13383.48	1	15106.87	-62.36494	7.811309E-010	0.0095125	6
	40	55	100.4464	7586.386	-16285.27	1	17965.61	-65.02185	9.781509E-010	0.009515	6
	41	57	79.00281	8387.293	-20164.8	1	21839.54	-67.41575	1.01248E-009	0.0095082	6
	42	58	63.3446	9310.813	-24426.49	1	26140.86	-69.13432	7.542473E-010	0.0095135	6
	43	59	49.86702	10717.28	-30317.66	1	32156.19	-70.53152	2.497208E-010	0.0095136	6
	44	61	39.72458	12353.67	-37003.52	1	39011.2	-71.53835	5.640154E-010	0.009515	6
	45	62	31.6723	14500.65	-45091.18	1	47365.42	-72.17299	5.595243E-010	0.0095119	6
	46	63	24.93351	17557.39	-55418.23	1	58132.97	-72.42096	6.560977E-010	0.0095121	6
	47	65	19.86229	21343.12	-67295.83	1	70599.27	-72.40338	9.032523E-011	0.0095121	6
	48	66	15.83615	26262.48	-81030.73	1	85180.38	-72.04222	-2.143005E-011	0.0095146	6
	49	68	12.40079	33345.37	-99548.5	1	104984.9	-71.4809	9.987773E-010	0.0095139	6
	50	69	9.93114	41111.77	-118717.3	1	125634.3	-70.89905	-1.522902E-010	0.009523	5
	51	71	7.944915	51150.98	-141677.6	1	150628.6	-70.1485	3.742947E-010	0.0095142	5
	52	72	6.317385	64165.98	-168720	1	180509.6	-69.17767	6.625865E-010	0.0095093	5
	53	74	5.008013	80600.48	-200976.4	1	216536.2	-68.14702	2.243348E-010	0.009523	5
	54	77	3.945707	101418.1	-239284.2	1	259889.5	-67.03086	-1.938062E-010	0.0095181	5
	55	79	3.158693	125537.7	-280133.2	1	306976	-65.86115	2.069173E-011	0.009511	5
	56	83	2.504006	155546.6	-328871.1	1	363800.7	-64.68719	2.308222E-011	0.0095286	5
	57	85	1.998082	189919.3	-382169.6	1	426758.6	-63.57491	4.009993E-010	0.0095215	5
	58	89	1.584686	234038.6	-444710.3	1	502534.9	-62.24343	-3.460422E-012	0.0094648	5
	59	92	1.266892	281260.8	-511602.2	1	583818.9	-61.19956	2.787412E-010	0.0095124	5
	60	96	0.999041	342459.4	-594409.7	1	686003.9	-60.05231	-2.923535E-010	0.0094982	5
