EXPLAIN
TAG	EISPOT
TITLE	LABEL	Potentiostatic EIS	Test &Identifier
DATE	LABEL	6/20/2000	Date
TIME	LABEL	9:08:51	Time
NOTES	NOTES	2	&Notes...
	
	
PSTAT	PSTAT	REF600-11020	Potentiostat
VDC	POTEN	0.00000E+000	T	DC &Voltage (V)
FREQINIT	QUANT	1.00000E+006	Initial Fre&q. (Hz)
FREQFINAL	QUANT	1.00000E+000	Final Fre&q. (Hz)
PTSPERDEC	QUANT	1.00000E+001	Points/&decade
VAC	QUANT	2.50000E+001	AC &Voltage (mV rms)
AREA	QUANT	1.00000E-002	&Area (cm^2)
CONDIT	TWOPARAM	T	5.00000E+000	0.00000E+000	Conditionin&g	Time(s)	E(V)
DELAY	TWOPARAM	T	5.00000E+000	0.00000E+000	Init. De&lay	Time(s)	Stab.(mV/s)
SPEED	SELECTOR	0	&Optimize for:
ZGUESS	QUANT	1.00000E+005	E&stimated Z (ohms)
OCVCURVE	TABLE	19
	Pt	T	Vf	Vm	Ach	Over
	#	s	V vs. Ref.	V	V	bits
	0	0.258333	1.85780E-003	1.85780E-003	5.43333E-004	...........
	1	0.516667	1.85137E-003	1.52148E-003	5.42033E-004	...........
	2	0.775	1.81207E-003	1.21043E-003	5.46599E-004	...........
	3	1.03333	1.70160E-003	9.24002E-004	5.40399E-004	...........
	4	1.29167	1.50605E-003	6.56178E-004	5.42933E-004	...........
	5	1.55	1.25024E-003	4.20996E-004	5.41033E-004	...........
	6	1.80833	9.73226E-004	1.84535E-004	5.45899E-004	...........
	7	2.06667	7.02840E-004	-2.52880E-005	5.44599E-004	...........
	8	2.325	4.50242E-004	-2.29050E-004	5.53666E-004	...........
	9	2.58333	2.16399E-004	-4.19214E-004	5.44233E-004	...........
	10	2.84167	-1.23111E-006	-6.05087E-004	5.44766E-004	...........
	11	3.1	-2.05613E-004	-7.75129E-004	5.50599E-004	...........
	12	3.35833	-3.98916E-004	-9.40827E-004	5.46733E-004	...........
	13	3.61667	-5.82414E-004	-1.10370E-003	5.44299E-004	...........
	14	3.875	-7.57253E-004	-1.25557E-003	5.45933E-004	...........
	15	4.13333	-9.24561E-004	-1.40014E-003	5.44699E-004	...........
	16	4.39167	-1.08488E-003	-1.54185E-003	5.49766E-004	...........
	17	4.65	-1.23846E-003	-1.68034E-003	5.47499E-004	...........
	18	4.90833	-1.38594E-003	-1.81196E-003	5.47399E-004	...........
EOC	QUANT	-0.0013859	Open Circuit (V)
PSTATMODEL	IQUANT	4	Pstat Model
PSTATSECTION	LABEL	REF600-11020	Pstat Section
PSTATSERIALNO	LABEL	11020	Pstat Serial Number
CTRLMODE	IQUANT	1	Control Mode
IESTAB	IQUANT	0	I/E Stability
CASPEED	IQUANT	1	Control Amp Speed
CONVENTION	IQUANT	1	Current Convention
ICHRANGE	IQUANT	2	Ich Range
ICHRANGEMODE	TOGGLE	F	Ich Auto Range
ICHOFFSETENABLE	TOGGLE	T	Ich Offset Enable
ICHOFFSET	QUANT	0	Ich Offset (V)
ICHFILTER	IQUANT	3	Ich Filter
VCHRANGE	IQUANT	2	Vch Range
VCHRANGEMODE	TOGGLE	F	Vch Auto Range
VCHOFFSETENABLE	TOGGLE	T	Vch Offset Enable
VCHOFFSET	QUANT	0	Vch Offset (V)
VCHFILTER	IQUANT	3	Vch Filter
ACHRANGE	IQUANT	2	Ach Range
ACHOFFSETENABLE	TOGGLE	F	Ach Offset Enable
ACHOFFSET	QUANT	0	Ach Offset (V)
ACHFILTER	IQUANT	3	Ach Filter
IERANGELOWERLIMIT	IQUANT	1	I/E Range Lower Limit
IERANGEMODE	TOGGLE	F	I/E AutoRange
IERANGE	IQUANT	4	I/E Range
POSFEEDENABLE	TOGGLE	F	Positive Feedback IR Comp
POSFEEDRESISTANCE	QUANT	0	Positive Feedback Resistance (ohm)
ACHSELECT	IQUANT	0	Ach Select
CABLEID	IQUANT	14	Cable ID
DCCALDATE	LABEL	8/19/2019	DC Calibration Date
ACCALDATE	LABEL	8/19/2019	AC Calibration Date
THERMOSELECT	IQUANT	1	Thermo Select
FRAMEWORKVERSION	QUANT	6.33	Framework Version
INSTRUMENTVERSION	LABEL	3.50	Instrument Version
ZCURVE	TABLE
	Pt	Time	Freq	Zreal	Zimag	Zsig	Zmod	Zphz	Idc	Vdc	IERange
	#	s	Hz	ohm	ohm	V	ohm	°	A	V	#
	0	1	1000078	1969.061	-921.3071	1	2173.938	-25.0745	1.17765E-007	3.862627E-005	8
	1	1	794390.6	2143.531	-819.8777	1	2294.978	-20.93132	9.58592E-006	-0.0007968	8
	2	2	630984.4	2260.024	-727.0611	1	2374.095	-17.83324	5.014016E-007	-0.0004625	8
	3	2	501234.4	2354.978	-620.1766	1	2435.27	-14.7537	-3.186292E-006	0.0007205	8
	4	2	398109.4	2425.892	-532.0133	1	2483.544	-12.3695	-6.424975E-006	0.0010341	8
	5	2	316265.6	2476.708	-459.6413	1	2518.998	-10.51366	2.657443E-006	-0.0004929	8
	6	3	251203.1	2514.582	-400.4261	1	2546.265	-9.047904	-1.90616E-007	-0.0002805	8
	7	3	199546.9	2543.272	-346.8186	1	2566.811	-7.765359	-9.150906E-008	-0.000267	8
	8	3	158578.1	2571.512	-314.9643	1	2590.729	-6.982928	-8.348807E-007	0.0004958	8
	9	4	125953.1	2609.838	-244.7487	1	2621.289	-5.357487	-3.086408E-006	0.0040186	7
	10	4	100078.1	2626.259	-223.5333	1	2635.755	-4.864988	-2.770902E-007	0.001328	7
	11	4	79453.13	2644.76	-222.3493	1	2654.09	-4.805649	9.791559E-007	-0.0006819	7
	12	5	63140.62	2663.343	-223.1814	1	2672.678	-4.790051	9.396365E-007	-0.001604	7
	13	5	50203.12	2681.498	-228.7019	1	2691.233	-4.874895	7.704238E-008	0.0009323	7
	14	5	39890.62	2703.045	-238.7036	1	2713.564	-5.04665	4.672957E-007	-0.0015912	7
	15	6	31640.63	2724.531	-254.2783	1	2736.372	-5.331923	9.4001E-007	-0.0016081	7
	16	6	25171.88	2744.125	-274.7504	1	2757.845	-5.717578	-1.196115E-006	0.0014353	7
	17	6	20015.62	2767.226	-302.3723	1	2783.697	-6.235918	-1.064324E-006	0.0015883	7
	18	7	15890.62	2791.678	-337.5264	1	2812.009	-6.893856	-1.194807E-006	0.0014375	7
	19	7	12609.37	2818.182	-384.2212	1	2844.253	-7.76364	7.457571E-007	-0.0016882	7
	20	7	10078.13	2844.607	-439.4085	1	2878.345	-8.781116	-1.018952E-006	0.0005174	7
	21	8	8015.625	2872.314	-506.5152	1	2916.632	-10.00094	7.899439E-008	0.0009266	7
	22	8	6328.125	2904.674	-596.6804	1	2965.326	-11.60826	-2.940034E-007	-0.0008277	7
	23	8	5015.625	2939.899	-706.2903	1	3023.549	-13.5089	9.824909E-007	-0.0006891	7
	24	9	3984.375	2979.144	-841.7162	1	3095.769	-15.77691	1.138725E-007	-0.0013136	7
	25	9	3170.956	3020.459	-1005.319	1	3183.369	-18.40932	7.738478E-008	0.0009236	7
	26	9	2527.573	3070.75	-1207.14	1	3299.498	-21.46024	1.144648E-007	-0.0013202	7
	27	10	1976.103	3134.432	-1474.813	1	3464.064	-25.19793	-1.19634E-006	0.0014309	7
	28	10	1577.524	3201.16	-1783.318	1	3664.375	-29.12152	-8.683301E-007	0.0016343	7
	29	10	1265.625	3280.84	-2138.026	1	3916.001	-33.09109	-5.974135E-007	0.0015536	7
	30	10	998.264	3380.323	-2619.956	1	4276.769	-37.77787	3.919155E-007	0.0004929	7
	31	11	796.875	3490.359	-3183.497	1	4724.115	-42.36741	1.061753E-006	-0.0010942	7
	32	11	627.7902	3632.089	-3910.747	1	5337.229	-47.11575	5.9769E-007	0.0001871	7
	33	11	505.5147	3796.502	-4717.507	1	6055.436	-51.17397	-1.187183E-006	0.0010654	7
	34	12	397.9953	4005.155	-5833.389	1	7075.995	-55.52684	1.65248E-009	3.228556E-005	7
	35	12	315.5048	4265.735	-7162.443	1	8336.491	-59.22325	2.044757E-009	3.420116E-005	7
	36	13	252.4038	4585.957	-8732.155	1	9863.14	-62.29242	2.343413E-009	3.178539E-005	7
	37	13	198.6229	5032.96	-10803.04	1	11917.9	-65.01995	5.87456E-010	-3.739261E-005	6
	38	13	158.3615	5581.628	-13204.13	1	14335.4	-67.08533	6.334706E-010	-2.904857E-005	6
	39	13	125.558	6324.199	-16209.08	1	17399.13	-68.68606	4.145873E-010	-2.86742E-005	6
	40	14	100.4464	7264.709	-19734.98	1	21029.64	-69.79067	5.062036E-010	-3.305534E-005	6
	41	14	79.00281	8577.445	-24319.06	1	25787.39	-70.57202	1.243214E-009	-4.043595E-005	6
	42	14	63.3446	10321.14	-29092.86	1	30869.41	-70.46707	5.820876E-011	-3.458204E-005	6
	43	15	49.86702	12647.17	-35710.97	1	37884.36	-70.49822	3.708298E-010	-4.449216E-005	6
	44	15	39.72458	15439.58	-43213.96	1	45889.29	-70.33909	7.116915E-010	-3.807603E-005	6
	45	16	31.6723	19201.46	-51933.92	1	55369.92	-69.70921	5.363098E-010	-3.668244E-005	6
	46	16	24.93351	24292.1	-62442.2	1	67001	-68.7423	-2.412015E-010	-4.236309E-005	6
	47	16	19.86229	30307.52	-73998.66	1	79964.67	-67.72754	1.500767E-010	-4.087877E-005	6
	48	16	15.83615	37493.08	-87827.35	1	95495.4	-66.88259	9.184954E-010	-3.017578E-005	6
	49	17	12.40079	47383.1	-103205.3	1	113562.7	-65.33944	1.423251E-009	-3.55406E-005	5
	50	17	9.93114	58116.89	-120071.3	1	133396.8	-64.1721	-3.094079E-011	-3.191441E-005	5
	51	18	7.944915	70593.85	-138853.6	1	155768.4	-63.05099	-7.474031E-010	-2.194962E-005	5
	52	18	6.317385	85524.2	-160849	1	182172.4	-62.00021	-4.571325E-010	-1.442854E-005	5
	53	19	5.008013	103024.7	-186252	1	212847.1	-61.05098	-1.424673E-010	-3.718766E-005	5
	54	20	3.945707	123356.8	-215606	1	248400.6	-60.22441	2.845058E-010	-3.160719E-005	5
	55	22	3.158693	144795.7	-247266.7	1	286542.5	-59.6474	4.196746E-010	-1.540784E-005	5
	56	23	2.504006	170618.9	-285424.9	1	332533	-59.13022	8.243605E-011	-2.723921E-005	5
	57	25	1.998082	198009.9	-327985.2	1	383121.7	-58.87995	1.618955E-010	-4.27354E-005	5
	58	26	1.584686	231419.1	-378237	1	443416.3	-58.5402	3.312408E-010	7.149495E-007	5
	59	28	1.266892	267198.8	-436499.9	1	511788.4	-58.52756	3.352145E-010	2.236663E-006	5
	60	31	0.999041	309622.2	-508002.2	1	594921.9	-58.63811	3.257045E-010	-1.100512E-005	5
