EXPLAIN
TAG	EISPOT
TITLE	LABEL	Potentiostatic IDE	Test &Identifier
DATE	LABEL	9/8/2019	Date
TIME	LABEL	8:47:13	Time
NOTES	NOTES	1	&Notes...
	
PSTAT	PSTAT	REF600-11020	Potentiostat
VDC	POTEN	0.00000E+000	T	DC &Voltage (V)
FREQINIT	QUANT	1.00000E+006	Initial Fre&q. (Hz)
FREQFINAL	QUANT	1.00000E+000	Final Fre&q. (Hz)
PTSPERDEC	QUANT	1.00000E+001	Points/&decade
VAC	QUANT	2.50000E+001	AC &Voltage (mV rms)
AREA	QUANT	1.00000E-002	&Area (cm^2)
CONDIT	TWOPARAM	T	5.00000E+000	0.00000E+000	Conditionin&g	Time(s)	E(V)
DELAY	TWOPARAM	T	5.00000E+000	0.00000E+000	Init. De&lay	Time(s)	Stab.(mV/s)
SPEED	SELECTOR	1	&Optimize for:
ZGUESS	QUANT	1.00000E+007	E&stimated Z (ohms)
OCVCURVE	TABLE	19
	Pt	T	Vf	Vm	Ach	Over
	#	s	V vs. Ref.	V	V	bits
	0	0.258333	1.16573E-002	1.16573E-002	5.62499E-004	...........
	1	0.516667	1.16663E-002	1.21285E-002	5.60099E-004	...........
	2	0.775	1.17216E-002	1.25767E-002	5.58966E-004	...........
	3	1.03333	1.18781E-002	1.30051E-002	5.56166E-004	...........
	4	1.29167	1.21578E-002	1.33975E-002	5.57899E-004	...........
	5	1.55	1.25282E-002	1.37683E-002	5.60999E-004	...........
	6	1.80833	1.29348E-002	1.41193E-002	5.55233E-004	...........
	7	2.06667	1.33378E-002	1.44534E-002	5.54966E-004	...........
	8	2.325	1.37201E-002	1.47840E-002	5.55966E-004	...........
	9	2.58333	1.40800E-002	1.50995E-002	5.57299E-004	...........
	10	2.84167	1.44219E-002	1.53986E-002	5.58932E-004	...........
	11	3.1	1.47494E-002	1.56794E-002	5.55833E-004	...........
	12	3.35833	1.50632E-002	1.59504E-002	5.57266E-004	...........
	13	3.61667	1.53627E-002	1.62001E-002	5.55433E-004	...........
	14	3.875	1.56471E-002	1.64359E-002	5.57966E-004	...........
	15	4.13333	1.59160E-002	1.66561E-002	5.56266E-004	...........
	16	4.39167	1.61690E-002	1.68663E-002	5.58232E-004	...........
	17	4.65	1.64068E-002	1.70646E-002	5.56899E-004	...........
	18	4.90833	1.66303E-002	1.72359E-002	5.62066E-004	...........
EOC	QUANT	0.0166303	Open Circuit (V)
PSTATMODEL	IQUANT	4	Pstat Model
PSTATSECTION	LABEL	REF600-11020	Pstat Section
PSTATSERIALNO	LABEL	11020	Pstat Serial Number
CTRLMODE	IQUANT	1	Control Mode
IESTAB	IQUANT	0	I/E Stability
CASPEED	IQUANT	1	Control Amp Speed
CONVENTION	IQUANT	1	Current Convention
ICHRANGE	IQUANT	2	Ich Range
ICHRANGEMODE	TOGGLE	F	Ich Auto Range
ICHOFFSETENABLE	TOGGLE	T	Ich Offset Enable
ICHOFFSET	QUANT	0	Ich Offset (V)
ICHFILTER	IQUANT	3	Ich Filter
VCHRANGE	IQUANT	2	Vch Range
VCHRANGEMODE	TOGGLE	F	Vch Auto Range
VCHOFFSETENABLE	TOGGLE	T	Vch Offset Enable
VCHOFFSET	QUANT	0	Vch Offset (V)
VCHFILTER	IQUANT	3	Vch Filter
ACHRANGE	IQUANT	2	Ach Range
ACHOFFSETENABLE	TOGGLE	F	Ach Offset Enable
ACHOFFSET	QUANT	0	Ach Offset (V)
ACHFILTER	IQUANT	3	Ach Filter
IERANGELOWERLIMIT	IQUANT	1	I/E Range Lower Limit
IERANGEMODE	TOGGLE	F	I/E AutoRange
IERANGE	IQUANT	3	I/E Range
POSFEEDENABLE	TOGGLE	F	Positive Feedback IR Comp
POSFEEDRESISTANCE	QUANT	0	Positive Feedback Resistance (ohm)
ACHSELECT	IQUANT	0	Ach Select
CABLEID	IQUANT	14	Cable ID
DCCALDATE	LABEL	8/19/2019	DC Calibration Date
ACCALDATE	LABEL	8/19/2019	AC Calibration Date
THERMOSELECT	IQUANT	1	Thermo Select
FRAMEWORKVERSION	QUANT	6.33	Framework Version
INSTRUMENTVERSION	LABEL	3.50	Instrument Version
ZCURVE	TABLE
	Pt	Time	Freq	Zreal	Zimag	Zsig	Zmod	Zphz	Idc	Vdc	IERange
	#	s	Hz	ohm	ohm	V	ohm	°	A	V	#
	0	2	1000078	2629.785	-1389.09	1	2974.112	-27.84365	5.891037E-007	0.0180623	8
	1	4	794390.6	2870.518	-1270.608	1	3139.159	-23.87613	7.545652E-006	0.017341	8
	2	6	630984.4	3064.695	-1109.453	1	3259.331	-19.90081	-3.489014E-006	0.0189024	8
	3	7	501234.4	3234.438	-976.845	1	3378.73	-16.80504	2.549521E-006	0.017935	8
	4	8	398109.4	3339.567	-840.2216	1	3443.643	-14.12227	-6.811322E-007	0.0187925	8
	5	10	316265.6	3430.146	-723.4303	1	3505.603	-11.90936	-5.473136E-006	0.0196346	8
	6	11	251203.1	3486.104	-645.652	1	3545.39	-10.4927	4.530122E-006	0.0176121	8
	7	13	199546.9	3547.06	-553.8743	1	3590.043	-8.875081	1.970604E-006	0.0179995	8
	8	14	158578.1	3597.49	-506.997	1	3633.04	-8.021906	-1.802893E-006	0.018709	8
	9	15	125953.1	3648.831	-404.9451	1	3671.232	-6.332738	2.01137E-007	0.0180305	7
	10	17	100078.1	3667.179	-379.3495	1	3686.748	-5.905927	9.539971E-008	0.0181726	7
	11	18	79453.13	3696.089	-371.1999	1	3714.682	-5.735011	-4.505224E-008	0.018496	7
	12	19	63140.62	3729.36	-371.8976	1	3747.857	-5.694797	-4.652433E-008	0.0183875	7
	13	21	50203.12	3763.282	-380.6703	1	3782.487	-5.776038	-2.759207E-008	0.0185107	7
	14	22	39890.62	3799.168	-397.4164	1	3819.897	-5.971774	-7.084171E-008	0.0184516	7
	15	23	31640.63	3838.035	-423.3022	1	3861.307	-6.293794	3.240363E-008	0.0183251	7
	16	25	25171.88	3880.675	-455.8958	1	3907.362	-6.700309	-1.266504E-008	0.0183861	7
	17	26	20015.62	3926.245	-499.4161	1	3957.88	-7.249062	9.627326E-008	0.0181543	7
	18	27	15890.62	3980.178	-551.6619	1	4018.227	-7.891054	-3.097061E-008	0.0183479	7
	19	29	12609.37	4032.181	-614.673	1	4078.763	-8.667542	3.152225E-008	0.0183195	7
	20	30	10078.13	4093.274	-686.6263	1	4150.463	-9.52243	-2.476821E-008	0.0183412	7
	21	31	8015.625	4158.217	-776.1095	1	4230.025	-10.57231	-2.488702E-008	0.0183327	7
	22	33	6328.125	4235.37	-884.9915	1	4326.842	-11.80229	5.441443E-008	0.0181726	7
	23	34	5015.625	4318.281	-1013.752	1	4435.679	-13.21143	-6.598478E-008	0.0184331	7
	24	35	3984.375	4408.424	-1164.226	1	4559.564	-14.79357	5.49098E-008	0.0181762	7
	25	37	3170.956	4509.179	-1342.08	1	4704.665	-16.57474	1.482116E-007	0.0181051	7
	26	38	2527.573	4618.243	-1553.259	1	4872.451	-18.5894	-2.492608E-008	0.0184964	7
	27	39	1976.103	4752.641	-1827.802	1	5092	-21.03608	-4.245657E-008	0.018383	7
	28	41	1577.524	4890.688	-2128.014	1	5333.599	-23.5146	-5.13156E-008	0.018376	7
	29	42	1265.625	5039.56	-2486.012	1	5619.378	-26.2571	7.137613E-008	0.0183248	7
	30	43	998.264	5222.805	-2943.454	1	5995.133	-29.40462	-4.46857E-008	0.0183755	7
	31	45	796.875	5417.367	-3466.9	1	6431.738	-32.61763	-5.167833E-008	0.0184164	7
	32	46	627.7902	5652.543	-4149.029	1	7011.825	-36.27908	-6.452903E-008	0.0184253	7
	33	47	505.5147	5897.32	-4898.556	1	7666.436	-39.71442	-9.231439E-009	0.0183709	7
	34	49	397.9953	6198.705	-5884.642	1	8547.102	-43.51114	5.180071E-009	0.0183541	7
	35	50	315.5048	6538.267	-7069.505	1	9629.48	-47.23565	5.76025E-009	0.0183546	7
	36	51	252.4038	6923.305	-8461.887	1	10933.24	-50.71083	4.233651E-010	0.0182976	6
	37	53	198.6229	7409.171	-10299.77	1	12687.83	-54.27054	2.612653E-010	0.0182947	6
	38	54	158.3615	7968.482	-12441.37	1	14774.45	-57.36113	1.091564E-009	0.0182956	6
	39	55	125.558	8686.952	-15127.65	1	17444.45	-60.13369	7.635862E-010	0.0182865	6
	40	57	100.4464	9545.89	-18282.66	1	20624.74	-62.42966	9.756842E-010	0.0182912	6
	41	58	79.00281	10782.12	-22367.33	1	24830.46	-64.26373	4.493734E-010	0.0182924	6
	42	59	63.3446	12091.32	-27139.61	1	29711.25	-65.98592	-7.836769E-011	0.0182933	6
	43	61	49.86702	14190.29	-33027.75	1	35947.13	-66.74934	-9.368292E-011	0.0182932	6
	44	62	39.72458	17015.94	-39827.53	1	43310.21	-66.86585	9.945388E-010	0.0182938	6
	45	64	31.6723	20282.67	-47771.07	1	51898.57	-66.99486	6.280579E-010	0.0182901	6
	46	65	24.93351	25056.78	-57614.09	1	62826.95	-66.49544	6.204704E-010	0.0182869	6
	47	66	19.86229	30743.83	-68401.95	1	74993.39	-65.79807	1.604989E-009	0.0182916	6
	48	68	15.83615	38208.95	-80858.44	1	89431.6	-64.70733	5.83452E-011	0.0182898	6
	49	69	12.40079	46996.32	-95364.4	1	106315.6	-63.76555	1.589352E-009	0.0182996	5
	50	71	9.93114	57919.13	-111246.5	1	125421	-62.49682	9.180667E-011	0.018298	5
	51	72	7.944915	70486.96	-128359.2	1	146439.4	-61.22712	6.722283E-010	0.0182889	5
	52	74	6.317385	85618.2	-147818.3	1	170823.7	-59.92005	6.907626E-010	0.0182817	5
	53	76	5.008013	103492.7	-169899.9	1	198938.9	-58.65277	2.968449E-010	0.018286	5
	54	78	3.945707	124757.2	-195025.9	1	231515.6	-57.39314	8.515144E-010	0.0182973	5
	55	81	3.158693	147303.7	-220730	1	265367.9	-56.28292	5.387178E-010	0.0183046	5
	56	84	2.504006	173707.5	-250906.8	1	305169.7	-55.30441	5.657011E-010	0.0182889	5
	57	87	1.998082	202193.5	-283861.9	1	348510.8	-54.53791	2.397966E-010	0.018306	5
	58	90	1.584686	236161.2	-321538.3	1	398947.3	-53.70372	8.066495E-010	0.0183521	5
	59	94	1.266892	271103.1	-363144.8	1	453178.8	-53.2571	3.603404E-010	0.0183155	5
	60	98	0.999041	313531.3	-413585	1	518993.7	-52.8349	1.074976E-009	0.0183086	5
