EXPLAIN
TAG	EISPOT
TITLE	LABEL	Potentiostatic EIS	Test &Identifier
DATE	LABEL	8/16/2017	Date
TIME	LABEL	17:08:50	Time
NOTES	NOTES	1	&Notes...
	
PSTAT	PSTAT	REF600-11020	Potentiostat
VDC	POTEN	0.00000E+000	T	DC &Voltage (V)
FREQINIT	QUANT	1.00000E+006	Initial Fre&q. (Hz)
FREQFINAL	QUANT	1.00000E+000	Final Fre&q. (Hz)
PTSPERDEC	QUANT	1.00000E+001	Points/&decade
VAC	QUANT	2.50000E+001	AC &Voltage (mV rms)
AREA	QUANT	1.00000E-002	&Area (cm^2)
CONDIT	TWOPARAM	T	5.00000E+000	0.00000E+000	Conditionin&g	Time(s)	E(V)
DELAY	TWOPARAM	T	5.00000E+000	0.00000E+000	Init. De&lay	Time(s)	Stab.(mV/s)
SPEED	SELECTOR	0	&Optimize for:
ZGUESS	QUANT	1.00000E+005	E&stimated Z (ohms)
OCVCURVE	TABLE	19
	Pt	T	Vf	Vm	Ach	Over
	#	s	V vs. Ref.	V	V	bits
	0	0.258333	1.57228E-001	1.57228E-001	5.75199E-004	...........
	1	0.516667	1.56877E-001	1.38858E-001	5.78799E-004	...........
	2	0.775	1.55200E-001	1.46476E-001	5.68632E-004	...........
	3	1.03333	1.50962E-001	9.70279E-002	5.71066E-004	...........
	4	1.29167	1.43390E-001	1.36737E-001	5.75866E-004	...........
	5	1.55	1.35714E-001	2.03519E-001	5.74532E-004	...........
	6	1.80833	1.36770E-001	2.01076E-001	5.77532E-004	...........
	7	2.06667	1.50706E-001	1.67105E-001	5.78699E-004	...........
	8	2.325	1.66045E-001	4.25622E-002	5.76999E-004	...........
	9	2.58333	1.63507E-001	5.53184E-002	5.78832E-004	...........
	10	2.84167	1.37756E-001	9.70352E-002	5.76432E-004	...........
	11	3.1	1.05538E-001	9.34475E-002	5.74499E-004	...........
	12	3.35833	8.59873E-002	7.89394E-002	5.73499E-004	...........
	13	3.61667	8.15004E-002	9.84814E-002	5.76466E-004	...........
	14	3.875	8.44111E-002	1.13232E-001	5.72699E-004	...........
	15	4.13333	9.01539E-002	1.08444E-001	5.75532E-004	...........
	16	4.39167	9.76563E-002	1.28285E-001	5.73532E-004	...........
	17	4.65	1.04519E-001	5.42029E-002	5.72232E-004	...........
	18	4.90833	1.05235E-001	5.16603E-002	5.76999E-004	...........
EOC	QUANT	0.1052347	Open Circuit (V)
PSTATMODEL	IQUANT	4	Pstat Model
PSTATSECTION	LABEL	REF600-11020	Pstat Section
PSTATSERIALNO	LABEL	11020	Pstat Serial Number
CTRLMODE	IQUANT	1	Control Mode
IESTAB	IQUANT	0	I/E Stability
CASPEED	IQUANT	1	Control Amp Speed
CONVENTION	IQUANT	1	Current Convention
ICHRANGE	IQUANT	2	Ich Range
ICHRANGEMODE	TOGGLE	F	Ich Auto Range
ICHOFFSETENABLE	TOGGLE	T	Ich Offset Enable
ICHOFFSET	QUANT	0	Ich Offset (V)
ICHFILTER	IQUANT	3	Ich Filter
VCHRANGE	IQUANT	2	Vch Range
VCHRANGEMODE	TOGGLE	F	Vch Auto Range
VCHOFFSETENABLE	TOGGLE	T	Vch Offset Enable
VCHOFFSET	QUANT	0	Vch Offset (V)
VCHFILTER	IQUANT	3	Vch Filter
ACHRANGE	IQUANT	2	Ach Range
ACHOFFSETENABLE	TOGGLE	F	Ach Offset Enable
ACHOFFSET	QUANT	0	Ach Offset (V)
ACHFILTER	IQUANT	3	Ach Filter
IERANGELOWERLIMIT	IQUANT	1	I/E Range Lower Limit
IERANGEMODE	TOGGLE	F	I/E AutoRange
IERANGE	IQUANT	6	I/E Range
POSFEEDENABLE	TOGGLE	F	Positive Feedback IR Comp
POSFEEDRESISTANCE	QUANT	0	Positive Feedback Resistance (ohm)
ACHSELECT	IQUANT	0	Ach Select
CABLEID	IQUANT	14	Cable ID
DCCALDATE	LABEL	8/19/2019	DC Calibration Date
ACCALDATE	LABEL	8/19/2019	AC Calibration Date
THERMOSELECT	IQUANT	1	Thermo Select
FRAMEWORKVERSION	QUANT	6.33	Framework Version
INSTRUMENTVERSION	LABEL	3.50	Instrument Version
ZCURVE	TABLE
	Pt	Time	Freq	Zreal	Zimag	Zsig	Zmod	Zphz	Idc	Vdc	IERange
	#	s	Hz	ohm	ohm	V	ohm	°	A	V	#
	0	1	1000078	859.3186	-8215.083	1	8259.904	-84.02843	-7.565263E-007	0.1069408	8
	1	2	794390.6	878.4091	-10245.92	1	10283.5	-85.09987	-1.006575E-006	0.1077065	8
	2	2	630984.4	923.7408	-12813.69	1	12846.94	-85.87667	-1.016142E-006	0.1065935	8
	3	3	501234.4	1241.976	-15921.99	1	15970.36	-85.53974	5.32403E-006	0.1068868	8
	4	3	398109.4	1109.032	-19614.54	1	19645.86	-86.76386	6.31378E-006	0.1055748	8
	5	4	316265.6	1758.421	-24724.71	1	24787.16	-85.93198	6.769746E-006	0.1055961	8
	6	4	251203.1	1544.951	-31481.4	1	31519.29	-87.19046	-6.084906E-007	0.1064521	8
	7	5	199546.9	1846.43	-39012.32	1	39055.99	-87.29025	6.102552E-006	0.1060551	8
	8	6	158578.1	7999.412	-48573.18	1	49227.47	-80.64803	-4.54972E-006	0.1070981	8
	9	7	125953.1	4084.788	-60720.76	1	60858	-86.15141	1.401717E-006	0.1094414	7
	10	7	100078.1	5573.269	-75605.82	1	75810.96	-85.78408	-1.678954E-006	0.1085693	7
	11	8	79453.13	6632.551	-95263.8	1	95494.4	-86.01732	-9.712852E-007	0.1089737	7
	12	8	63140.62	8056.191	-118441.6	1	118715.2	-86.10883	1.059913E-006	0.106653	7
	13	8	50203.12	9576.53	-147993.5	1	148303	-86.2976	-5.373216E-007	0.108705	7
	14	9	39890.62	8649.854	-183850	1	184053.4	-87.30631	-1.628535E-006	0.1080127	7
	15	9	31640.63	14968.89	-228420.4	1	228910.3	-86.25064	-8.9647E-007	0.1062848	7
	16	10	25171.88	23582.4	-285137.6	1	286111.1	-85.27209	1.058249E-006	0.1066503	7
	17	10	20015.62	3731.211	-344603.8	1	344624	-89.37965	-1.31787E-006	0.1090072	7
	18	11	15890.62	28000.22	-445911.9	1	446790.2	-86.40694	-5.232634E-008	0.1082178	7
	19	11	12609.37	24746.13	-582756.4	1	583281.6	-87.56846	2.186881E-007	0.101882	6
	20	12	10078.13	49719.8	-688452.1	1	690245.2	-85.86929	-2.436288E-007	0.1070276	6
	21	12	8015.625	58463.03	-866499.9	1	868469.9	-86.14008	4.662069E-008	0.1028388	6
	22	13	6328.125	67424.6	-1102230	1	1104290	-86.49952	2.536061E-007	0.1058311	6
	23	13	5015.625	91426.28	-1383011	1	1386029	-86.21786	8.827054E-008	0.1087755	6
	24	13	3984.375	329380.3	-1787917	1	1818004	-79.56168	1.401184E-007	0.1021511	6
	25	14	3170.956	97641.9	-2088089	1	2090370	-87.32272	2.18754E-007	0.1018712	6
	26	14	2527.573	180740.5	-2660925	1	2667056	-86.11421	-3.510293E-007	0.1103352	6
	27	15	1976.103	-149158	-3218143	1	3221598	-92.65371	-3.439263E-007	0.1113987	6
	28	15	1577.524	4158275	-1263491	1	4345994	-16.90139	-2.150373E-007	0.1116888	6
	29	16	1265.625	723564.1	-5158252	1	5208753	-82.01505	-3.314355E-008	0.1095838	5
	30	17	998.264	716957.5	-6287250	1	6327997	-83.49446	1.040495E-008	0.1024613	5
	31	17	796.875	1204485	-8487362	1	8572403	-81.92281	3.248337E-008	0.1037756	5
	32	18	627.7902	1109452	-9.644085E+006	1	9.707691E+006	-83.43756	1.426815E-008	0.1080348	5
	33	18	505.5147	1245084	-1.25343E+007	1	1.259598E+007	-84.32718	9.269921E-009	0.1024689	5
	34	19	397.9953	3202757	-1.459586E+007	1	1.494312E+007	-77.62379	3.510715E-010	0.106672	5
	35	19	315.5048	2077552	-1.94966E+007	1	1.960698E+007	-83.91753	9.962929E-010	0.1066747	5
	36	19	252.4038	9.968466E+006	-2.827814E+007	1	2.998372E+007	-70.58168	4.483034E-010	0.106684	5
	37	20	198.6229	7875417	-3.030295E+007	1	3.13096E+007	-75.43172	6.085533E-011	0.1066908	5
	38	20	158.3615	2.173114E+007	-2.959147E+007	1	3.671372E+007	-53.7075	8.57045E-010	0.1066753	5
	39	21	125.558	-2949730	-5.315624E+007	1	5.323802E+007	-93.17619	5.452585E-010	0.1066786	4
	40	21	100.4464	2.917076E+007	3.758947E+007	1	4.758047E+007	52.18727	1.244432E-009	0.1066718	4
	41	22	79.00281	-1.233507E+007	-2306367	1	1.254884E+007	-169.4093	2.853717E-010	0.1066742	4
	42	22	63.3446	-1229730	4453071	1	4619749	105.4377	3.522332E-010	0.1066733	4
	43	23	49.86702	3.124702E+007	-6981287	1	3.201741E+007	-12.59433	1.717821E-010	0.1066798	4
	44	23	39.72458	-6.498726E+007	3.16918E+007	1	7.230293E+007	154.0033	3.944196E-010	0.1066695	4
	45	24	31.6723	1.567475E+007	-5546320	1	1.662707E+007	-19.48571	9.264002E-010	0.1066812	5
	46	24	24.93351	3.49676E+007	-6.478025E+007	1	7.361531E+007	-61.64036	3.715949E-010	0.1066677	4
	47	25	19.86229	-2.388362E+007	-1.181067E+008	1	1.204974E+008	-101.4322	2.254065E-010	0.1066871	5
	48	25	15.83615	1.089644E+007	1.92019E+007	1	2.207816E+007	60.42654	9.273091E-010	0.1066659	4
	49	26	12.40079	-1.046565E+007	-5.957362E+007	1	6.048592E+007	-99.9638	1.795135E-010	0.1066791	4
	50	27	9.93114	-9.209746E+007	-1.303874E+007	1	9.301586E+007	-171.9419	4.81963E-010	0.1066741	5
	51	28	7.944915	4.790528E+007	-1.452868E+008	1	1.52981E+008	-71.75111	3.237338E-010	0.1066719	4
	52	29	6.317385	2.645482E+008	-1.433096E+008	1	3.00871E+008	-28.44504	2.290039E-010	0.1066555	4
	53	30	5.008013	7.695084E+008	-6.522007E+007	1	7.722673E+008	-4.844554	2.609412E-010	0.1066863	4
	54	32	3.945707	-35162.33	-1.477951E+008	1	1.477951E+008	-90.01363	2.962105E-010	0.1066824	5
	55	34	3.158693	3.352127E+008	-9.533373E+007	1	3.485055E+008	-15.87563	2.188711E-010	0.1066888	4
	56	37	2.504006	1.057151E+009	-3.101187E+008	1	1.101699E+009	-16.34922	1.352666E-010	0.1066581	3
	57	39	1.998082	8.915865E+008	-2.827318E+008	1	9.353415E+008	-17.59439	5.85442E-011	0.1066998	3
	58	42	1.584686	1.401542E+009	-2.938093E+008	1	1.432007E+009	-11.83963	1.013046E-010	0.1066627	3
	59	46	1.266892	1.288016E+010	-5.511228E+009	1	1.400971E+010	-23.16536	2.73823E-012	0.1066218	2
	60	51	0.999041	1.333142E+010	-4.951664E+009	1	1.422132E+010	-20.37641	2.23477E-012	0.1066391	2
