EXPLAIN
TAG	EISPOT
TITLE	LABEL	Potentiostatic EIS	Test &Identifier
DATE	LABEL	9/20/2019	Date
TIME	LABEL	10:21:40	Time
NOTES	NOTES	1	&Notes...
	
PSTAT	PSTAT	REF600-11020	Potentiostat
VDC	POTEN	0.00000E+000	T	DC &Voltage (V)
FREQINIT	QUANT	1.00000E+006	Initial Fre&q. (Hz)
FREQFINAL	QUANT	1.00000E+000	Final Fre&q. (Hz)
PTSPERDEC	QUANT	1.00000E+001	Points/&decade
VAC	QUANT	2.50000E+001	AC &Voltage (mV rms)
AREA	QUANT	1.00000E-002	&Area (cm^2)
CONDIT	TWOPARAM	T	5.00000E+000	0.00000E+000	Conditionin&g	Time(s)	E(V)
DELAY	TWOPARAM	T	5.00000E+000	0.00000E+000	Init. De&lay	Time(s)	Stab.(mV/s)
SPEED	SELECTOR	1	&Optimize for:
ZGUESS	QUANT	1.00000E+004	E&stimated Z (ohms)
OCVCURVE	TABLE	19
	Pt	T	Vf	Vm	Ach	Over
	#	s	V vs. Ref.	V	V	bits
	0	0.258333	-1.21070E-002	-1.21070E-002	5.80399E-004	...........
	1	0.516667	-1.21152E-002	-1.25367E-002	5.79032E-004	...........
	2	0.775	-1.21652E-002	-1.29214E-002	5.78666E-004	...........
	3	1.03333	-1.23048E-002	-1.32750E-002	5.78366E-004	...........
	4	1.29167	-1.25502E-002	-1.35945E-002	5.79199E-004	...........
	5	1.55	-1.28680E-002	-1.38683E-002	5.74066E-004	...........
	6	1.80833	-1.32075E-002	-1.41401E-002	5.79066E-004	...........
	7	2.06667	-1.35328E-002	-1.43745E-002	5.75365E-004	...........
	8	2.325	-1.38308E-002	-1.46280E-002	5.77199E-004	...........
	9	2.58333	-1.41033E-002	-1.48497E-002	5.77332E-004	...........
	10	2.84167	-1.43577E-002	-1.51041E-002	5.78466E-004	...........
	11	3.1	-1.46013E-002	-1.53125E-002	5.79399E-004	...........
	12	3.35833	-1.48369E-002	-1.54504E-002	5.74899E-004	...........
	13	3.61667	-1.50508E-002	-1.51889E-002	5.73299E-004	...........
	14	3.875	-1.51892E-002	-1.43020E-002	5.77766E-004	...........
	15	4.13333	-1.51749E-002	-1.46788E-002	5.75399E-004	...........
	16	4.39167	-1.50198E-002	-1.51993E-002	5.77566E-004	...........
	17	4.65	-1.48857E-002	-1.57981E-002	5.77832E-004	...........
	18	4.90833	-1.49449E-002	-1.61164E-002	5.72366E-004	...........
EOC	QUANT	-0.0149449	Open Circuit (V)
PSTATMODEL	IQUANT	4	Pstat Model
PSTATSECTION	LABEL	REF600-11020	Pstat Section
PSTATSERIALNO	LABEL	11020	Pstat Serial Number
CTRLMODE	IQUANT	1	Control Mode
IESTAB	IQUANT	0	I/E Stability
CASPEED	IQUANT	1	Control Amp Speed
CONVENTION	IQUANT	1	Current Convention
ICHRANGE	IQUANT	2	Ich Range
ICHRANGEMODE	TOGGLE	F	Ich Auto Range
ICHOFFSETENABLE	TOGGLE	T	Ich Offset Enable
ICHOFFSET	QUANT	0	Ich Offset (V)
ICHFILTER	IQUANT	3	Ich Filter
VCHRANGE	IQUANT	2	Vch Range
VCHRANGEMODE	TOGGLE	F	Vch Auto Range
VCHOFFSETENABLE	TOGGLE	T	Vch Offset Enable
VCHOFFSET	QUANT	0	Vch Offset (V)
VCHFILTER	IQUANT	3	Vch Filter
ACHRANGE	IQUANT	2	Ach Range
ACHOFFSETENABLE	TOGGLE	F	Ach Offset Enable
ACHOFFSET	QUANT	0	Ach Offset (V)
ACHFILTER	IQUANT	3	Ach Filter
IERANGELOWERLIMIT	IQUANT	1	I/E Range Lower Limit
IERANGEMODE	TOGGLE	F	I/E AutoRange
IERANGE	IQUANT	6	I/E Range
POSFEEDENABLE	TOGGLE	F	Positive Feedback IR Comp
POSFEEDRESISTANCE	QUANT	0	Positive Feedback Resistance (ohm)
ACHSELECT	IQUANT	0	Ach Select
CABLEID	IQUANT	14	Cable ID
DCCALDATE	LABEL	8/19/2019	DC Calibration Date
ACCALDATE	LABEL	8/19/2019	AC Calibration Date
THERMOSELECT	IQUANT	1	Thermo Select
FRAMEWORKVERSION	QUANT	6.33	Framework Version
INSTRUMENTVERSION	LABEL	3.50	Instrument Version
ZCURVE	TABLE
	Pt	Time	Freq	Zreal	Zimag	Zsig	Zmod	Zphz	Idc	Vdc	IERange
	#	s	Hz	ohm	ohm	V	ohm	°	A	V	#
	0	2	1000078	2114.626	-1817.971	1	2788.667	-40.68607	7.19098E-007	-0.0132274	8
	1	3	794390.6	2461.001	-1860.047	1	3084.85	-37.08232	-4.587609E-006	-0.0122153	8
	2	5	630984.4	2837.934	-1855.318	1	3390.585	-33.17491	-4.369553E-006	-0.0120037	8
	3	6	501234.4	3195.402	-1788.032	1	3661.646	-29.22981	1.88804E-006	-0.0133924	8
	4	8	398109.4	3509.998	-1690.659	1	3895.948	-25.7187	1.19709E-006	-0.0137167	8
	5	9	316265.6	3795.865	-1572.828	1	4108.817	-22.50682	1.268683E-006	-0.0138258	8
	6	11	251203.1	4025.068	-1410.292	1	4264.985	-19.30929	4.482893E-006	-0.0143065	8
	7	13	199546.9	4216.788	-1267.009	1	4403.023	-16.72383	1.186272E-006	-0.0137203	8
	8	14	158578.1	4385.358	-1127.569	1	4527.999	-14.41961	2.270024E-006	-0.0139273	8
	9	16	125953.1	4533.985	-956.622	1	4633.805	-11.91406	-5.466432E-007	-0.012596	7
	10	17	100078.1	4634.814	-856.4409	1	4713.278	-10.46927	-3.114411E-008	-0.0134348	7
	11	18	79453.13	4720.819	-782.6358	1	4785.254	-9.413103	-4.185806E-008	-0.0134427	7
	12	20	63140.62	4797.271	-723.1823	1	4851.475	-8.572712	-3.009397E-008	-0.0134471	7
	13	21	50203.12	4865.794	-680.6093	1	4913.165	-7.962659	-2.479256E-009	-0.0133469	7
	14	22	39890.62	4928.884	-652.3688	1	4971.87	-7.539633	4.618051E-008	-0.0136174	7
	15	24	31640.63	4990.644	-639.2118	1	5031.413	-7.29882	4.960283E-008	-0.013534	7
	16	25	25171.88	5050.986	-638.9804	1	5091.243	-7.209964	-2.92673E-008	-0.0134524	7
	17	26	20015.62	5111.167	-650.0065	1	5152.333	-7.247617	2.045825E-008	-0.0135628	7
	18	28	15890.62	5175.203	-679.0522	1	5219.563	-7.475229	-8.196638E-010	-0.0133525	7
	19	29	12609.37	5238.174	-713.8222	1	5286.587	-7.760074	-7.101203E-008	-0.0133569	7
	20	30	10078.13	5305.319	-767.4434	1	5360.539	-8.231052	8.935202E-008	-0.0136583	7
	21	32	8015.625	5374.683	-836.8293	1	5439.439	-8.849803	9.805855E-010	-0.0134388	7
	22	33	6328.125	5447.012	-927.2166	1	5525.366	-9.66056	-3.151446E-008	-0.0134615	7
	23	35	5015.625	5523.53	-1042.526	1	5621.054	-10.68842	3.357483E-009	-0.0134626	7
	24	36	3984.375	5603.293	-1183.494	1	5726.915	-11.92639	-2.654035E-008	-0.0134693	7
	25	37	3170.956	5690.434	-1359.26	1	5850.523	-13.43437	-4.147829E-008	-0.0134627	7
	26	39	2527.573	5781.314	-1572.741	1	5991.42	-15.21838	-1.446059E-008	-0.0135059	7
	27	40	1976.103	5892.541	-1861.3	1	6179.521	-17.52997	8.897459E-008	-0.0136588	7
	28	41	1577.524	6008.178	-2190.339	1	6394.981	-20.02981	4.288722E-008	-0.0136125	7
	29	43	1265.625	6149.592	-2575.368	1	6667.083	-22.72329	1.969968E-008	-0.013563	7
	30	44	998.264	6306.247	-3091.626	1	7023.312	-26.11632	2.115522E-008	-0.0135624	7
	31	45	796.875	6493.346	-3688.48	1	7467.826	-29.59831	-2.064867E-011	-0.0134441	7
	32	47	627.7902	6725.796	-4457.021	1	8068.542	-33.53146	1.435497E-007	-0.0136964	7
	33	48	505.5147	6984.615	-5307.403	1	8772.308	-37.23013	1.489871E-009	-0.0133459	7
	34	49	397.9953	7335.22	-6433.928	1	9757.09	-41.25491	6.720352E-009	-0.0135215	6
	35	51	315.5048	7753.18	-7780.229	1	10983.79	-45.09977	7.513221E-009	-0.0135235	6
	36	52	252.4038	8256.029	-9347.23	1	12471.28	-48.54715	6.850384E-009	-0.0135258	6
	37	53	198.6229	8946.424	-11391.09	1	14484.32	-51.85434	6.223771E-009	-0.0135216	6
	38	55	158.3615	9795.06	-13724.13	1	16861.05	-54.48412	7.288326E-009	-0.0135206	6
	39	56	125.558	10925.96	-16581.3	1	19857.4	-56.61783	7.237322E-009	-0.0135251	6
	40	57	100.4464	12334.34	-19835.57	1	23357.78	-58.12542	7.424262E-009	-0.013525	6
	41	59	79.00281	14373.93	-23992.65	1	27968.86	-59.07429	5.304139E-009	-0.0135243	6
	42	60	63.3446	16990.64	-28241.99	1	32958.95	-58.96849	6.629673E-009	-0.0135283	6
	43	62	49.86702	20015.2	-33860.82	1	39334	-59.41259	5.962948E-009	-0.013531	6
	44	63	39.72458	24162.11	-39449.71	1	46261.08	-58.51342	6.187976E-009	-0.0135237	6
	45	64	31.6723	29044.08	-45809.22	1	54240.61	-57.62438	6.280562E-009	-0.0135256	6
	46	66	24.93351	35624.99	-53051.02	1	63902.67	-56.11772	6.098041E-009	-0.0135193	6
	47	67	19.86229	43041.78	-60386.91	1	74156.41	-54.51999	7.087873E-009	-0.0135244	6
	48	68	15.83615	51322.45	-67712.94	1	84964.91	-52.84	6.558744E-009	-0.0135319	6
	49	70	12.40079	62829.91	-76373.09	1	98896.1	-50.55687	4.693051E-009	-0.0135221	6
	50	71	9.93114	73740.7	-84411.21	1	112084.5	-48.85989	4.799888E-009	-0.0135245	5
	51	73	7.944915	86653.91	-92710.97	1	126902.4	-46.93412	4.720399E-009	-0.0135304	5
	52	74	6.317385	101099.5	-100799.1	1	142764.1	-44.91474	5.744845E-009	-0.0135311	5
	53	76	5.008013	117595	-108508.1	1	160008.1	-42.69858	4.653963E-009	-0.0135218	5
	54	79	3.945707	135806.9	-115883.5	1	178528.7	-40.474	4.901531E-009	-0.0135283	5
	55	82	3.158693	153770.1	-121926	1	196242.7	-38.41129	4.954207E-009	-0.0135427	5
	56	85	2.504006	173602.3	-127643.7	1	215477.7	-36.32575	6.633003E-009	-0.0135226	5
	57	88	1.998082	193333	-132033.2	1	234116.2	-34.33041	7.229539E-009	-0.0135096	5
	58	91	1.584686	213435.7	-135396.1	1	252758.6	-32.38961	6.864258E-009	-0.0135696	5
	59	94	1.266892	233559.8	-138935.6	1	271759.6	-30.74676	7.510828E-009	-0.0134979	5
	60	99	0.999041	254694.2	-141990.3	1	291599.7	-29.13938	5.762048E-009	-0.0135626	5
