EXPLAIN
TAG	EISPOT
TITLE	LABEL	Potentiostatic EIS	Test &Identifier
DATE	LABEL	9/26/2019	Date
TIME	LABEL	8:00:49	Time
NOTES	NOTES	2	&Notes...
	
	
PSTAT	PSTAT	REF600-11020	Potentiostat
VDC	POTEN	0.00000E+000	T	DC &Voltage (V)
FREQINIT	QUANT	1.00000E+006	Initial Fre&q. (Hz)
FREQFINAL	QUANT	1.00000E+000	Final Fre&q. (Hz)
PTSPERDEC	QUANT	1.00000E+001	Points/&decade
VAC	QUANT	2.50000E+001	AC &Voltage (mV rms)
AREA	QUANT	1.00000E-002	&Area (cm^2)
CONDIT	TWOPARAM	T	5.00000E+000	0.00000E+000	Conditionin&g	Time(s)	E(V)
DELAY	TWOPARAM	T	5.00000E+000	0.00000E+000	Init. De&lay	Time(s)	Stab.(mV/s)
SPEED	SELECTOR	1	&Optimize for:
ZGUESS	QUANT	1.00000E+004	E&stimated Z (ohms)
OCVCURVE	TABLE	19
	Pt	T	Vf	Vm	Ach	Over
	#	s	V vs. Ref.	V	V	bits
	0	0.258333	-7.47749E-003	-7.47749E-003	5.62532E-004	...........
	1	0.516667	-7.49844E-003	-8.57436E-003	5.63066E-004	...........
	2	0.775	-7.62642E-003	-9.57748E-003	5.61066E-004	...........
	3	1.03333	-7.98587E-003	-1.05273E-002	5.60499E-004	...........
	4	1.29167	-8.62297E-003	-1.14155E-002	5.65399E-004	...........
	5	1.55	-9.46070E-003	-1.22690E-002	5.60399E-004	...........
	6	1.80833	-1.03787E-002	-1.30902E-002	5.59699E-004	...........
	7	2.06667	-1.12925E-002	-1.38614E-002	5.65732E-004	...........
	8	2.325	-1.21659E-002	-1.45896E-002	5.64532E-004	...........
	9	2.58333	-1.29918E-002	-1.53235E-002	5.69966E-004	...........
	10	2.84167	-1.37753E-002	-1.60235E-002	5.68599E-004	...........
	11	3.1	-1.45248E-002	-1.66547E-002	5.64399E-004	...........
	12	3.35833	-1.52438E-002	-1.72604E-002	5.65999E-004	...........
	13	3.61667	-1.59297E-002	-1.78596E-002	5.64566E-004	...........
	14	3.875	-1.65813E-002	-1.84300E-002	5.58232E-004	...........
	15	4.13333	-1.72025E-002	-1.90016E-002	5.65666E-004	...........
	16	4.39167	-1.78003E-002	-1.95500E-002	5.67932E-004	...........
	17	4.65	-1.83802E-002	-2.00836E-002	5.70666E-004	...........
	18	4.90833	-1.89451E-002	-2.05976E-002	5.69599E-004	...........
EOC	QUANT	-0.0189451	Open Circuit (V)
PSTATMODEL	IQUANT	4	Pstat Model
PSTATSECTION	LABEL	REF600-11020	Pstat Section
PSTATSERIALNO	LABEL	11020	Pstat Serial Number
CTRLMODE	IQUANT	1	Control Mode
IESTAB	IQUANT	0	I/E Stability
CASPEED	IQUANT	1	Control Amp Speed
CONVENTION	IQUANT	1	Current Convention
ICHRANGE	IQUANT	2	Ich Range
ICHRANGEMODE	TOGGLE	F	Ich Auto Range
ICHOFFSETENABLE	TOGGLE	T	Ich Offset Enable
ICHOFFSET	QUANT	0	Ich Offset (V)
ICHFILTER	IQUANT	3	Ich Filter
VCHRANGE	IQUANT	2	Vch Range
VCHRANGEMODE	TOGGLE	F	Vch Auto Range
VCHOFFSETENABLE	TOGGLE	T	Vch Offset Enable
VCHOFFSET	QUANT	0	Vch Offset (V)
VCHFILTER	IQUANT	3	Vch Filter
ACHRANGE	IQUANT	2	Ach Range
ACHOFFSETENABLE	TOGGLE	F	Ach Offset Enable
ACHOFFSET	QUANT	0	Ach Offset (V)
ACHFILTER	IQUANT	3	Ach Filter
IERANGELOWERLIMIT	IQUANT	1	I/E Range Lower Limit
IERANGEMODE	TOGGLE	F	I/E AutoRange
IERANGE	IQUANT	6	I/E Range
POSFEEDENABLE	TOGGLE	F	Positive Feedback IR Comp
POSFEEDRESISTANCE	QUANT	0	Positive Feedback Resistance (ohm)
ACHSELECT	IQUANT	0	Ach Select
CABLEID	IQUANT	14	Cable ID
DCCALDATE	LABEL	8/19/2019	DC Calibration Date
ACCALDATE	LABEL	8/19/2019	AC Calibration Date
THERMOSELECT	IQUANT	1	Thermo Select
FRAMEWORKVERSION	QUANT	6.33	Framework Version
INSTRUMENTVERSION	LABEL	3.50	Instrument Version
ZCURVE	TABLE
	Pt	Time	Freq	Zreal	Zimag	Zsig	Zmod	Zphz	Idc	Vdc	IERange
	#	s	Hz	ohm	ohm	V	ohm	°	A	V	#
	0	2	1000078	2198.96	-1909.789	1	2912.511	-40.97419	-1.005903E-005	-0.0151862	8
	1	3	794390.6	2600.782	-1922.202	1	3234.026	-36.46759	3.204546E-006	-0.017239	8
	2	5	630984.4	2991.29	-1918.817	1	3553.825	-32.67888	-1.775359E-006	-0.0170924	8
	3	6	501234.4	3332.485	-1826.709	1	3800.305	-28.72945	-3.194264E-006	-0.0166673	8
	4	7	398109.4	3683.137	-1690.692	1	4052.646	-24.65681	2.169142E-006	-0.017909	8
	5	9	316265.6	3952.811	-1538.296	1	4241.588	-21.26425	-9.55059E-007	-0.0172117	8
	6	10	251203.1	4183.478	-1364.798	1	4400.473	-18.06816	5.196252E-006	-0.0184104	8
	7	12	199546.9	4376.261	-1194.505	1	4536.353	-15.26706	3.607299E-006	-0.0181347	8
	8	13	158578.1	4515.799	-1050.958	1	4636.48	-13.10119	-7.374397E-007	-0.0172294	8
	9	15	125953.1	4650.009	-864.6777	1	4729.72	-10.53394	-1.071123E-006	-0.0149306	7
	10	16	100078.1	4720.581	-757.4707	1	4780.967	-9.116048	-1.311508E-008	-0.0174332	7
	11	18	79453.13	4789.234	-679.5357	1	4837.203	-8.075688	-3.809502E-008	-0.0174694	7
	12	19	63140.62	4847.054	-620.4285	1	4886.6	-7.294261	-9.355192E-009	-0.0174633	7
	13	20	50203.12	4896.035	-577.4363	1	4929.968	-6.726368	-7.697159E-009	-0.0174583	7
	14	22	39890.62	4942.133	-550.2158	1	4972.667	-6.352673	-4.332389E-008	-0.0174391	7
	15	23	31640.63	4988.393	-539.3135	1	5017.462	-6.17049	8.246516E-008	-0.0176672	7
	16	25	25171.88	5032.632	-540.2713	1	5061.549	-6.127443	-2.558869E-008	-0.0175063	7
	17	26	20015.62	5077.505	-558.0114	1	5108.075	-6.271566	-6.471984E-009	-0.0174482	7
	18	27	15890.62	5124.379	-588.0245	1	5158.006	-6.546081	-2.572929E-008	-0.0175059	7
	19	29	12609.37	5175.743	-636.5981	1	5214.746	-7.011961	2.020978E-008	-0.017588	7
	20	30	10078.13	5227.976	-694.023	1	5273.841	-7.561902	-3.690582E-008	-0.0174793	7
	21	31	8015.625	5284.076	-771.9754	1	5340.169	-8.311807	-7.009573E-009	-0.0174538	7
	22	33	6328.125	5343.222	-873.7483	1	5414.19	-9.287072	-7.149334E-008	-0.0173876	7
	23	34	5015.625	5407.03	-997.909	1	5498.345	-10.45671	-4.202528E-008	-0.0174715	7
	24	36	3984.375	5474.678	-1154.665	1	5595.119	-11.90971	3.901702E-008	-0.0175445	7
	25	37	3170.956	5548.862	-1346.767	1	5709.96	-13.64248	-8.287866E-009	-0.0174706	7
	26	38	2527.573	5628.621	-1577.521	1	5845.506	-15.65647	4.916528E-008	-0.0176486	7
	27	40	1976.103	5724.919	-1892.187	1	6029.517	-18.28964	-4.053913E-008	-0.0174813	7
	28	41	1577.524	5827.829	-2247.018	1	6246.013	-21.08499	8.661441E-008	-0.0176753	7
	29	42	1265.625	5951.083	-2660.098	1	6518.551	-24.08435	-4.305558E-008	-0.0174426	7
	30	44	998.264	6084.344	-3222.122	1	6884.861	-27.90462	2.039226E-008	-0.0175871	7
	31	45	796.875	6237.5	-3868.198	1	7339.575	-31.8052	-2.386282E-008	-0.0175083	7
	32	46	627.7902	6427.893	-4714.577	1	7971.515	-36.25841	4.30259E-008	-0.0175478	7
	33	48	505.5147	6624.506	-5655.221	1	8710.086	-40.48679	-3.817242E-008	-0.0174792	7
	34	49	397.9953	6875.343	-6926.771	1	9759.64	-45.21349	6.304699E-009	-0.017482	7
	35	51	315.5048	7168.948	-8458.241	1	11087.64	-49.7164	1.868277E-009	-0.017543	6
	36	52	252.4038	7501.885	-10276.11	1	12723.07	-53.86936	2.316023E-009	-0.017545	6
	37	53	198.6229	7939.223	-12686.73	1	14966.1	-57.96209	1.905254E-009	-0.017547	6
	38	55	158.3615	8462.081	-15509.43	1	17667.75	-61.38273	1.446511E-009	-0.0175463	6
	39	56	125.558	9126.359	-19063.63	1	21135.57	-64.41809	1.909903E-009	-0.0175459	6
	40	57	100.4464	9959.27	-23242.56	1	25286.43	-66.80521	6.410261E-010	-0.0175473	6
	41	59	79.00281	11045.92	-28872.85	1	30913.66	-69.06458	4.764414E-010	-0.0175452	6
	42	60	63.3446	12108.34	-34886.59	1	36928.13	-70.85928	1.604657E-009	-0.017547	6
	43	62	49.86702	14676.74	-43330.78	1	45748.91	-71.28804	1.872582E-009	-0.0175501	6
	44	63	39.72458	16843.3	-52943.68	1	55558.34	-72.35224	1.646966E-009	-0.0175429	6
	45	64	31.6723	19933.32	-64415.14	1	67428.83	-72.80527	1.515002E-009	-0.0175516	6
	46	66	24.93351	24145.42	-79327.78	1	82921.03	-73.07104	1.407267E-009	-0.0175473	6
	47	67	19.86229	29630.04	-96317.6	1	100772.1	-72.90061	1.207906E-009	-0.0175333	6
	48	68	15.83615	36148.85	-116162	1	121656.7	-72.7142	1.277803E-009	-0.017544	5
	49	70	12.40079	46407.04	-143535.5	1	150851	-72.08324	4.946967E-010	-0.017543	5
	50	71	9.93114	57971.22	-170745.2	1	180318	-71.24667	1.09141E-009	-0.0175372	5
	51	73	7.944915	72570.31	-203567.1	1	216115.7	-70.37919	1.437206E-009	-0.0175485	5
	52	74	6.317385	92505.34	-243087.3	1	260093.5	-69.16599	1.108143E-009	-0.0175552	5
	53	76	5.008013	118186.9	-288991.6	1	312224.7	-67.75724	7.070747E-010	-0.0175464	5
	54	79	3.945707	150067.7	-342988.7	1	374381.6	-66.36919	1.052508E-009	-0.0175389	5
	55	82	3.158693	187138	-400401.9	1	441975.5	-64.94978	7.000067E-010	-0.0175526	5
	56	85	2.504006	235374.7	-466627.8	1	522630.6	-63.23288	1.009507E-009	-0.0175507	5
	57	88	1.998082	288697.4	-537097.3	1	609770.2	-61.74134	5.882516E-010	-0.0175273	5
	58	91	1.584686	355498.5	-618812.6	1	713658.4	-60.12328	7.982278E-010	-0.0174865	5
	59	94	1.266892	426982.1	-703528	1	822961.3	-58.74578	5.545567E-010	-0.0175499	5
	60	99	0.999041	515631.3	-803415.5	1	954648	-57.30769	9.494405E-010	-0.0175168	5
