EXPLAIN
TAG	EISPOT
TITLE	LABEL	Potentiostatic EIS	Test &Identifier
DATE	LABEL	9/22/2019	Date
TIME	LABEL	10:10:27	Time
NOTES	NOTES	1	&Notes...
	
PSTAT	PSTAT	REF600-11020	Potentiostat
VDC	POTEN	0.00000E+000	T	DC &Voltage (V)
FREQINIT	QUANT	1.00000E+006	Initial Fre&q. (Hz)
FREQFINAL	QUANT	1.00000E+000	Final Fre&q. (Hz)
PTSPERDEC	QUANT	1.00000E+001	Points/&decade
VAC	QUANT	2.50000E+001	AC &Voltage (mV rms)
AREA	QUANT	1.00000E-002	&Area (cm^2)
CONDIT	TWOPARAM	T	5.00000E+000	0.00000E+000	Conditionin&g	Time(s)	E(V)
DELAY	TWOPARAM	T	5.00000E+000	0.00000E+000	Init. De&lay	Time(s)	Stab.(mV/s)
SPEED	SELECTOR	1	&Optimize for:
ZGUESS	QUANT	1.00000E+004	E&stimated Z (ohms)
OCVCURVE	TABLE	19
	Pt	T	Vf	Vm	Ach	Over
	#	s	V vs. Ref.	V	V	bits
	0	0.258333	-6.94302E-003	-6.94302E-003	4.80500E-004	...........
	1	0.516667	-6.96794E-003	-8.24789E-003	4.85567E-004	...........
	2	0.775	-7.11293E-003	-9.06129E-003	4.79400E-004	...........
	3	1.03333	-7.49534E-003	-9.79778E-003	4.82267E-004	...........
	4	1.29167	-8.12397E-003	-1.05142E-002	4.82634E-004	...........
	5	1.55	-8.88567E-003	-1.10673E-002	4.84767E-004	...........
	6	1.80833	-9.66266E-003	-1.20426E-002	4.78767E-004	...........
	7	2.06667	-1.04125E-002	-1.26336E-002	4.75800E-004	...........
	8	2.325	-1.11441E-002	-1.32033E-002	4.73300E-004	...........
	9	2.58333	-1.18465E-002	-1.33434E-002	4.82734E-004	...........
	10	2.84167	-1.24679E-002	-1.36646E-002	4.80134E-004	...........
	11	3.1	-1.29715E-002	-1.43452E-002	4.79100E-004	...........
	12	3.35833	-1.33958E-002	-1.49180E-002	4.77867E-004	...........
	13	3.61667	-1.38334E-002	-1.58020E-002	4.81000E-004	...........
	14	3.875	-1.43588E-002	-1.65343E-002	4.83100E-004	...........
	15	4.13333	-1.49944E-002	-1.74108E-002	4.82800E-004	...........
	16	4.39167	-1.57077E-002	-1.74603E-002	4.74234E-004	...........
	17	4.65	-1.64152E-002	-1.80770E-002	4.79000E-004	...........
	18	4.90833	-1.70345E-002	-1.84228E-002	4.77400E-004	...........
EOC	QUANT	-0.0170345	Open Circuit (V)
PSTATMODEL	IQUANT	4	Pstat Model
PSTATSECTION	LABEL	REF600-11020	Pstat Section
PSTATSERIALNO	LABEL	11020	Pstat Serial Number
CTRLMODE	IQUANT	1	Control Mode
IESTAB	IQUANT	0	I/E Stability
CASPEED	IQUANT	1	Control Amp Speed
CONVENTION	IQUANT	1	Current Convention
ICHRANGE	IQUANT	2	Ich Range
ICHRANGEMODE	TOGGLE	F	Ich Auto Range
ICHOFFSETENABLE	TOGGLE	T	Ich Offset Enable
ICHOFFSET	QUANT	0	Ich Offset (V)
ICHFILTER	IQUANT	3	Ich Filter
VCHRANGE	IQUANT	2	Vch Range
VCHRANGEMODE	TOGGLE	F	Vch Auto Range
VCHOFFSETENABLE	TOGGLE	T	Vch Offset Enable
VCHOFFSET	QUANT	0	Vch Offset (V)
VCHFILTER	IQUANT	3	Vch Filter
ACHRANGE	IQUANT	2	Ach Range
ACHOFFSETENABLE	TOGGLE	F	Ach Offset Enable
ACHOFFSET	QUANT	0	Ach Offset (V)
ACHFILTER	IQUANT	3	Ach Filter
IERANGELOWERLIMIT	IQUANT	1	I/E Range Lower Limit
IERANGEMODE	TOGGLE	F	I/E AutoRange
IERANGE	IQUANT	6	I/E Range
POSFEEDENABLE	TOGGLE	F	Positive Feedback IR Comp
POSFEEDRESISTANCE	QUANT	0	Positive Feedback Resistance (ohm)
ACHSELECT	IQUANT	0	Ach Select
CABLEID	IQUANT	14	Cable ID
DCCALDATE	LABEL	8/19/2019	DC Calibration Date
ACCALDATE	LABEL	8/19/2019	AC Calibration Date
THERMOSELECT	IQUANT	1	Thermo Select
FRAMEWORKVERSION	QUANT	6.33	Framework Version
INSTRUMENTVERSION	LABEL	3.50	Instrument Version
ZCURVE	TABLE
	Pt	Time	Freq	Zreal	Zimag	Zsig	Zmod	Zphz	Idc	Vdc	IERange
	#	s	Hz	ohm	ohm	V	ohm	°	A	V	#
	0	1	1000078	2299.195	-2160.917	1	3155.291	-43.22422	3.925225E-006	-0.0156225	8
	1	3	794390.6	2756.668	-2196.064	1	3524.474	-38.54214	-4.66179E-006	-0.0145346	8
	2	4	630984.4	3196.177	-2200.693	1	3880.541	-34.54894	4.649719E-006	-0.0160365	8
	3	6	501234.4	3612.446	-2103.561	1	4180.279	-30.21265	-4.140727E-006	-0.014589	8
	4	7	398109.4	3981.293	-1950.204	1	4433.282	-26.09754	4.964665E-006	-0.0162708	8
	5	8	316265.6	4302.71	-1781.411	1	4656.903	-22.49057	-1.045568E-006	-0.0153235	8
	6	10	251203.1	4586.708	-1618.543	1	4863.905	-19.43676	2.587819E-007	-0.0154669	8
	7	11	199546.9	4798.69	-1426.982	1	5006.366	-16.56085	-3.197785E-006	-0.0148124	8
	8	13	158578.1	4997.36	-1275.675	1	5157.611	-14.32006	4.304646E-006	-0.0162629	8
	9	14	125953.1	5144.014	-1059.215	1	5251.935	-11.63527	5.865836E-007	-0.0170012	7
	10	15	100078.1	5243.541	-945.5444	1	5328.111	-10.22204	-5.34862E-008	-0.0154242	7
	11	17	79453.13	5335.228	-857.1871	1	5403.649	-9.127453	5.859383E-009	-0.0155868	7
	12	18	63140.62	5413.82	-786.3222	1	5470.626	-8.26405	7.592425E-009	-0.0155841	7
	13	20	50203.12	5481.502	-733.9227	1	5530.417	-7.626024	4.675088E-008	-0.0155667	7
	14	21	39890.62	5543.931	-702.1015	1	5588.212	-7.217701	1.025062E-008	-0.0155701	7
	15	22	31640.63	5603.202	-687.5909	1	5645.233	-6.996013	-2.908289E-008	-0.0155261	7
	16	24	25171.88	5662.004	-687.6427	1	5703.608	-6.924582	1.263602E-007	-0.0156859	7
	17	25	20015.62	5721.538	-706.7153	1	5765.019	-7.04142	-4.425212E-008	-0.0154955	7
	18	26	15890.62	5779.223	-744.6421	1	5826.999	-7.342002	-6.395482E-008	-0.015435	7
	19	28	12609.37	5844.203	-796.5483	1	5898.236	-7.761428	-6.616916E-008	-0.0154092	7
	20	29	10078.13	5903.844	-871.7966	1	5967.864	-8.399931	-6.350164E-008	-0.0154086	7
	21	31	8015.625	5972.959	-967.975	1	6050.886	-9.205297	6.877465E-008	-0.0156219	7
	22	32	6328.125	6044.992	-1092.608	1	6142.941	-10.24536	-4.005955E-008	-0.0155024	7
	23	33	5015.625	6125.397	-1252.735	1	6252.187	-11.55845	-5.057192E-008	-0.0154482	7
	24	35	3984.375	6209.776	-1448.936	1	6376.577	-13.13392	-6.389468E-008	-0.0154434	7
	25	36	3170.956	6302.668	-1690.116	1	6525.345	-15.01121	-6.4521E-008	-0.0154421	7
	26	37	2527.573	6405.721	-1988.808	1	6707.355	-17.24819	9.279044E-008	-0.0155749	7
	27	39	1976.103	6534.199	-2380.586	1	6954.348	-20.01805	1.220193E-008	-0.0154127	7
	28	40	1577.524	6669.875	-2820.201	1	7241.599	-22.91994	1.151545E-008	-0.015571	7
	29	42	1265.625	6818.705	-3355.554	1	7599.637	-26.20227	-2.847547E-008	-0.015525	7
	30	43	998.264	7003.916	-4049.763	1	8090.452	-30.03711	-6.417448E-008	-0.0154347	7
	31	44	796.875	7210.257	-4852.395	1	8691.004	-33.93996	1.113024E-008	-0.0155671	7
	32	46	627.7902	7462.879	-5907.951	1	9518.32	-38.36672	8.653914E-008	-0.0156936	7
	33	47	505.5147	7730.838	-7069.469	1	10475.84	-42.44137	1.730479E-008	-0.0158666	6
	34	48	397.9953	8078.933	-8652.563	1	11837.91	-46.96358	1.39852E-009	-0.0155473	6
	35	50	315.5048	8488.486	-10549.72	1	13540.71	-51.17923	1.44297E-009	-0.0155567	6
	36	51	252.4038	8966.271	-12782.01	1	15613.25	-54.95126	1.790198E-009	-0.0155517	6
	37	52	198.6229	9603.55	-15734.53	1	18433.76	-58.60226	1.505586E-009	-0.0155544	6
	38	54	158.3615	10361.41	-19166.28	1	21787.72	-61.60408	1.815746E-009	-0.0155625	6
	39	55	125.558	11357.41	-23472.32	1	26075.67	-64.17933	1.232017E-009	-0.0155569	6
	40	56	100.4464	12597.31	-28490.63	1	31151.38	-66.14709	2.09722E-009	-0.0155639	6
	41	58	79.00281	14236.83	-35071.32	1	37850.82	-67.90583	1.777386E-009	-0.0155624	6
	42	59	63.3446	15915.61	-42389.74	1	45279.1	-69.4209	1.185855E-009	-0.0155627	6
	43	61	49.86702	19443.67	-51982.71	1	55500.07	-69.49213	1.735064E-009	-0.0155596	6
	44	62	39.72458	22781.17	-63226.57	1	67205.52	-70.1854	1.259419E-009	-0.015556	6
	45	63	31.6723	27465.04	-76578.05	1	81354.33	-70.26942	1.031919E-009	-0.0155512	6
	46	65	24.93351	33779.3	-93234.86	1	99165.4	-70.08438	6.446711E-010	-0.0155586	6
	47	66	19.86229	41679.71	-112293.4	1	119779	-69.6367	7.119615E-010	-0.0155549	5
	48	68	15.83615	52084.33	-133211.8	1	143032	-68.64506	7.316052E-010	-0.0155576	5
	49	69	12.40079	66289.52	-162218.1	1	175239.8	-67.77289	1.339181E-009	-0.0155553	5
	50	71	9.93114	83903.72	-190607.2	1	208256.9	-66.2413	2.63529E-010	-0.0155442	5
	51	72	7.944915	105610	-223277.2	1	246994.2	-64.68588	1.238219E-009	-0.0155411	5
	52	74	6.317385	132500.3	-260698.5	1	292438.1	-63.05799	3.891213E-010	-0.0155447	5
	53	76	5.008013	166944.5	-301795.4	1	344892.7	-61.0499	4.90134E-010	-0.0155534	5
	54	78	3.945707	208513.2	-346630.3	1	404512.5	-58.97126	1.056668E-009	-0.0155372	5
	55	81	3.158693	254098.5	-390780.4	1	466128.1	-56.96673	4.406408E-010	-0.0155589	5
	56	84	2.504006	307581.9	-438775	1	535845.2	-54.96949	1.000114E-009	-0.0155446	5
	57	87	1.998082	364404.1	-487037.5	1	608272.9	-53.19597	9.594001E-010	-0.0155327	5
	58	90	1.584686	427114.2	-538158.8	1	687052.7	-51.56244	6.803493E-010	-0.0156026	5
	59	94	1.266892	489096.9	-594773.1	1	770045.9	-50.56868	8.669616E-010	-0.0155493	5
	60	98	0.999041	560228.9	-662766	1	867822.1	-49.79253	3.459531E-010	-0.0155691	5
