EXPLAIN
TAG	EISPOT
TITLE	LABEL	Potentiostatic EIS	Test &Identifier
DATE	LABEL	10/10/2019	Date
TIME	LABEL	10:45:58	Time
NOTES	NOTES	1	&Notes...
	
PSTAT	PSTAT	REF600-11020	Potentiostat
VDC	POTEN	0.00000E+000	T	DC &Voltage (V)
FREQINIT	QUANT	1.00000E+006	Initial Fre&q. (Hz)
FREQFINAL	QUANT	1.00000E+000	Final Fre&q. (Hz)
PTSPERDEC	QUANT	1.00000E+001	Points/&decade
VAC	QUANT	2.50000E+001	AC &Voltage (mV rms)
AREA	QUANT	1.00000E-002	&Area (cm^2)
CONDIT	TWOPARAM	T	5.00000E+000	0.00000E+000	Conditionin&g	Time(s)	E(V)
DELAY	TWOPARAM	T	5.00000E+000	0.00000E+000	Init. De&lay	Time(s)	Stab.(mV/s)
SPEED	SELECTOR	1	&Optimize for:
ZGUESS	QUANT	1.00000E+004	E&stimated Z (ohms)
OCVCURVE	TABLE	19
	Pt	T	Vf	Vm	Ach	Over
	#	s	V vs. Ref.	V	V	bits
	0	0.258333	5.45119E-003	5.45119E-003	5.67799E-004	...........
	1	0.516667	5.44211E-003	4.97540E-003	5.68132E-004	...........
	2	0.775	5.38977E-003	4.70675E-003	5.66299E-004	...........
	3	1.03333	5.26075E-003	4.83827E-003	5.71832E-004	...........
	4	1.29167	5.08541E-003	4.99726E-003	5.73932E-004	...........
	5	1.55	4.95166E-003	5.12814E-003	5.74565E-004	...........
	6	1.80833	4.92003E-003	5.22554E-003	5.76332E-004	...........
	7	2.06667	4.97884E-003	5.23999E-003	5.72099E-004	...........
	8	2.325	5.07487E-003	5.22870E-003	5.74799E-004	...........
	9	2.58333	5.15888E-003	5.22153E-003	5.72066E-004	...........
	10	2.84167	5.20869E-003	5.22807E-003	5.71699E-004	...........
	11	3.1	5.22787E-003	5.22027E-003	5.67599E-004	...........
	12	3.35833	5.23046E-003	5.22495E-003	5.71299E-004	...........
	13	3.61667	5.22776E-003	5.22121E-003	5.72466E-004	...........
	14	3.875	5.22512E-003	5.23152E-003	5.72832E-004	...........
	15	4.13333	5.22440E-003	5.23482E-003	5.76899E-004	...........
	16	4.39167	5.22622E-003	5.24781E-003	5.68999E-004	...........
	17	4.65	5.23061E-003	5.25177E-003	5.68099E-004	...........
	18	4.90833	5.23699E-003	5.26009E-003	5.67766E-004	...........
EOC	QUANT	0.005237	Open Circuit (V)
PSTATMODEL	IQUANT	4	Pstat Model
PSTATSECTION	LABEL	REF600-11020	Pstat Section
PSTATSERIALNO	LABEL	11020	Pstat Serial Number
CTRLMODE	IQUANT	1	Control Mode
IESTAB	IQUANT	0	I/E Stability
CASPEED	IQUANT	1	Control Amp Speed
CONVENTION	IQUANT	1	Current Convention
ICHRANGE	IQUANT	2	Ich Range
ICHRANGEMODE	TOGGLE	F	Ich Auto Range
ICHOFFSETENABLE	TOGGLE	T	Ich Offset Enable
ICHOFFSET	QUANT	0	Ich Offset (V)
ICHFILTER	IQUANT	3	Ich Filter
VCHRANGE	IQUANT	2	Vch Range
VCHRANGEMODE	TOGGLE	F	Vch Auto Range
VCHOFFSETENABLE	TOGGLE	T	Vch Offset Enable
VCHOFFSET	QUANT	0	Vch Offset (V)
VCHFILTER	IQUANT	3	Vch Filter
ACHRANGE	IQUANT	2	Ach Range
ACHOFFSETENABLE	TOGGLE	F	Ach Offset Enable
ACHOFFSET	QUANT	0	Ach Offset (V)
ACHFILTER	IQUANT	3	Ach Filter
IERANGELOWERLIMIT	IQUANT	1	I/E Range Lower Limit
IERANGEMODE	TOGGLE	F	I/E AutoRange
IERANGE	IQUANT	5	I/E Range
POSFEEDENABLE	TOGGLE	F	Positive Feedback IR Comp
POSFEEDRESISTANCE	QUANT	0	Positive Feedback Resistance (ohm)
ACHSELECT	IQUANT	0	Ach Select
CABLEID	IQUANT	14	Cable ID
DCCALDATE	LABEL	8/19/2019	DC Calibration Date
ACCALDATE	LABEL	8/19/2019	AC Calibration Date
THERMOSELECT	IQUANT	1	Thermo Select
FRAMEWORKVERSION	QUANT	6.33	Framework Version
INSTRUMENTVERSION	LABEL	3.50	Instrument Version
ZCURVE	TABLE
	Pt	Time	Freq	Zreal	Zimag	Zsig	Zmod	Zphz	Idc	Vdc	IERange
	#	s	Hz	ohm	ohm	V	ohm	°	A	V	#
	0	1	1000078	2567.235	-1779.226	1	3123.514	-34.72395	-2.537366E-006	0.008578	8
	1	3	794390.6	2924.935	-1721.763	1	3394.07	-30.4832	6.477801E-006	0.0061435	8
	2	4	630984.4	3238.482	-1600.027	1	3612.181	-26.29245	7.030276E-007	0.0063856	8
	3	6	501234.4	3506.647	-1432.35	1	3787.902	-22.2184	-1.305109E-006	0.0073485	8
	4	7	398109.4	3748.425	-1273.085	1	3958.716	-18.75914	4.96282E-006	0.0060466	8
	5	8	316265.6	3903.917	-1116.95	1	4060.56	-15.96636	-3.238609E-006	0.0072509	8
	6	10	251203.1	4041.783	-954.999	1	4153.075	-13.29412	-2.947328E-006	0.007445	8
	7	12	199546.9	4131.559	-807.7122	1	4209.771	-11.0617	1.554101E-006	0.0065375	8
	8	13	158578.1	4199.519	-678.687	1	4254.006	-9.180235	1.457133E-006	0.0065304	8
	9	14	125953.1	4282.2	-553.3466	1	4317.803	-7.362969	6.959588E-007	0.0053169	7
	10	16	100078.1	4320.089	-484.1172	1	4347.13	-6.393995	3.865916E-008	0.0067519	7
	11	17	79453.13	4354.199	-437.8627	1	4376.159	-5.742417	-4.766666E-008	0.0068349	7
	12	18	63140.62	4389.44	-405.2279	1	4408.106	-5.274527	-1.164926E-008	0.0067402	7
	13	20	50203.12	4418.338	-383.1237	1	4434.918	-4.955845	-8.568749E-008	0.0069219	7
	14	21	39890.62	4448.436	-371.1947	1	4463.896	-4.769932	1.478162E-007	0.0065664	7
	15	22	31640.63	4478.305	-369.395	1	4493.514	-4.715393	-1.804075E-008	0.0069424	7
	16	24	25171.88	4508.494	-376.6044	1	4524.196	-4.774957	-1.726093E-008	0.0069366	7
	17	25	20015.62	4548.684	-415.0232	1	4567.578	-5.213248	-1.129605E-008	0.0067385	7
	18	27	15890.62	4571.356	-420.9671	1	4590.698	-5.261415	8.90504E-008	0.0067346	7
	19	28	12609.37	4604.533	-453.5502	1	4626.817	-5.625533	-1.793762E-008	0.006937	7
	20	29	10078.13	4644.927	-502.8196	1	4672.063	-6.178288	-4.429434E-008	0.0068004	7
	21	31	8015.625	4691.495	-571.0707	1	4726.124	-6.940167	1.472052E-007	0.0065614	7
	22	32	6328.125	4719.304	-644.203	1	4763.069	-7.773051	8.810653E-008	0.006731	7
	23	33	5015.625	4760.274	-743.3135	1	4817.959	-8.875027	-3.963744E-008	0.006804	7
	24	35	3984.375	4802.553	-871.556	1	4880.996	-10.28596	-3.853105E-008	0.0068263	7
	25	36	3170.956	4850.277	-1022.355	1	4956.854	-11.90273	-3.871545E-008	0.0068205	7
	26	37	2527.573	4898.988	-1211.247	1	5046.504	-13.88754	7.170898E-008	0.0066601	7
	27	39	1976.103	4955.341	-1470.661	1	5168.97	-16.52999	4.572107E-008	0.006635	7
	28	40	1577.524	5045.083	-1771.329	1	5347.006	-19.34618	4.230497E-008	0.00674	7
	29	42	1265.625	5090.744	-2120.403	1	5514.688	-22.61276	-1.869085E-008	0.0069365	7
	30	43	998.264	5182.715	-2594.235	1	5795.739	-26.59049	-4.62991E-009	0.0068246	7
	31	44	796.875	5277.149	-3157.5	1	6149.643	-30.89354	-1.844819E-009	0.0069031	7
	32	46	627.7902	5403.761	-3883.745	1	6654.63	-35.70524	1.276297E-009	0.0068994	7
	33	47	505.5147	5554.116	-4712.926	1	7284.221	-40.31615	-6.105796E-010	0.0068945	7
	34	48	397.9953	5751.979	-5822.481	1	8184.531	-45.349	4.859902E-009	0.00679	7
	35	50	315.5048	5993.097	-7160.172	1	9337.306	-50.07051	4.849198E-009	0.0067929	7
	36	51	252.4038	6290.278	-8738.76	1	10767.24	-54.25315	4.583394E-010	0.0067308	6
	37	53	198.6229	6693.129	-10826.9	1	12728.7	-58.27589	-1.171005E-010	0.0067338	6
	38	54	158.3615	7179.38	-13253.77	1	15073.35	-61.55622	6.604794E-010	0.0067289	6
	39	55	125.558	7836.496	-16296.95	1	18083.18	-64.31912	1.256358E-009	0.0067335	6
	40	57	100.4464	8669.157	-19878.44	1	21686.55	-66.43758	2.63088E-010	0.0067316	6
	41	58	79.00281	9810.65	-24599.81	1	26483.95	-68.25739	1.798753E-009	0.0067263	6
	42	59	63.3446	10935.94	-29895.52	1	31832.95	-69.90722	4.817026E-010	0.006727	6
	43	61	49.86702	13224.11	-36431.29	1	38757.14	-70.04972	1.421744E-009	0.0067224	6
	44	62	39.72458	15674.16	-44494.88	1	47174.93	-70.59423	6.085544E-010	0.0067293	6
	45	64	31.6723	18939.64	-54051.61	1	57273.79	-70.68958	-7.694016E-011	0.0067265	6
	46	65	24.93351	23389.06	-65673.13	1	69713.76	-70.39697	7.789267E-010	0.006722	6
	47	66	19.86229	28829.09	-78868.86	1	83972.7	-69.92103	1.955098E-011	0.0067278	6
	48	68	15.83615	35159.42	-94410.82	1	100745.2	-69.57423	1.932568E-009	0.0067278	6
	49	69	12.40079	45981.2	-113850.5	1	122785.2	-68.00752	-5.668772E-010	0.0067338	5
	50	71	9.93114	56599.91	-134374.8	1	145808.6	-67.15872	5.1893E-010	0.0067328	5
	51	72	7.944915	69684.3	-158143.5	1	172815.7	-66.2198	-2.651298E-010	0.0067328	5
	52	74	6.317385	88138.32	-185194.6	1	205098.5	-64.54916	-1.508483E-010	0.0067214	5
	53	76	5.008013	110372.1	-216459.4	1	242974.7	-62.98309	-1.253897E-010	0.0067257	5
	54	79	3.945707	137438	-251750.7	1	286823.3	-61.3686	-5.790335E-011	0.0067251	5
	55	81	3.158693	167944.1	-287670.2	1	333105.6	-59.72329	2.133598E-010	0.0067288	5
	56	84	2.504006	204589.9	-328113	1	386671.9	-58.05502	-1.488825E-010	0.0067376	5
	57	87	1.998082	243882.2	-369511.2	1	442738.2	-56.57467	3.327087E-010	0.0066862	5
	58	90	1.584686	288441.8	-417180.6	1	507186.6	-55.33973	-1.181163E-010	0.0067162	5
	59	94	1.266892	335388	-465754.3	1	573944.4	-54.24247	1.44351E-010	0.0066876	5
	60	98	0.999041	390831.3	-527165.5	1	656241.2	-53.44741	1.522233E-010	0.0067662	5
