EXPLAIN
TAG	EISPOT
TITLE	LABEL	Potentiostatic EIS	Test &Identifier
DATE	LABEL	11/3/2019	Date
TIME	LABEL	10:17:34	Time
NOTES	NOTES	1	&Notes...
	
PSTAT	PSTAT	REF600-11020	Potentiostat
VDC	POTEN	0.00000E+000	T	DC &Voltage (V)
FREQINIT	QUANT	1.00000E+006	Initial Fre&q. (Hz)
FREQFINAL	QUANT	1.00000E+000	Final Fre&q. (Hz)
PTSPERDEC	QUANT	1.00000E+001	Points/&decade
VAC	QUANT	2.50000E+001	AC &Voltage (mV rms)
AREA	QUANT	1.00000E-002	&Area (cm^2)
CONDIT	TWOPARAM	T	5.00000E+000	0.00000E+000	Conditionin&g	Time(s)	E(V)
DELAY	TWOPARAM	T	5.00000E+000	0.00000E+000	Init. De&lay	Time(s)	Stab.(mV/s)
SPEED	SELECTOR	1	&Optimize for:
ZGUESS	QUANT	1.00000E+005	E&stimated Z (ohms)
OCVCURVE	TABLE	19
	Pt	T	Vf	Vm	Ach	Over
	#	s	V vs. Ref.	V	V	bits
	0	0.258333	4.88446E-003	4.88446E-003	5.60932E-004	...........
	1	0.516667	4.88150E-003	4.72957E-003	5.61699E-004	...........
	2	0.775	4.86356E-003	4.59479E-003	5.60566E-004	...........
	3	1.03333	4.81381E-003	4.47803E-003	5.62032E-004	...........
	4	1.29167	4.72748E-003	4.37344E-003	5.64966E-004	...........
	5	1.55	4.61758E-003	4.28349E-003	5.69599E-004	...........
	6	1.80833	4.50253E-003	4.19920E-003	5.67666E-004	...........
	7	2.06667	4.39456E-003	4.12495E-003	5.65032E-004	...........
	8	2.325	4.29779E-003	4.05243E-003	5.61632E-004	...........
	9	2.58333	4.21158E-003	3.99080E-003	5.64532E-004	...........
	10	2.84167	4.13398E-003	3.93255E-003	5.64566E-004	...........
	11	3.1	4.06353E-003	3.88066E-003	5.63499E-004	...........
	12	3.35833	3.99928E-003	3.82559E-003	5.64432E-004	...........
	13	3.61667	3.93861E-003	3.69781E-003	5.65566E-004	...........
	14	3.875	3.87075E-003	3.40698E-003	5.62132E-004	...........
	15	4.13333	3.77228E-003	3.12986E-003	5.64166E-004	...........
	16	4.39167	3.62651E-003	3.23504E-003	5.59399E-004	...........
	17	4.65	3.44918E-003	2.77554E-003	5.61699E-004	...........
	18	4.90833	3.27202E-003	3.02734E-003	5.64366E-004	...........
EOC	QUANT	0.003272	Open Circuit (V)
PSTATMODEL	IQUANT	4	Pstat Model
PSTATSECTION	LABEL	REF600-11020	Pstat Section
PSTATSERIALNO	LABEL	11020	Pstat Serial Number
CTRLMODE	IQUANT	1	Control Mode
IESTAB	IQUANT	0	I/E Stability
CASPEED	IQUANT	1	Control Amp Speed
CONVENTION	IQUANT	1	Current Convention
ICHRANGE	IQUANT	2	Ich Range
ICHRANGEMODE	TOGGLE	F	Ich Auto Range
ICHOFFSETENABLE	TOGGLE	T	Ich Offset Enable
ICHOFFSET	QUANT	0	Ich Offset (V)
ICHFILTER	IQUANT	3	Ich Filter
VCHRANGE	IQUANT	2	Vch Range
VCHRANGEMODE	TOGGLE	F	Vch Auto Range
VCHOFFSETENABLE	TOGGLE	T	Vch Offset Enable
VCHOFFSET	QUANT	0	Vch Offset (V)
VCHFILTER	IQUANT	3	Vch Filter
ACHRANGE	IQUANT	2	Ach Range
ACHOFFSETENABLE	TOGGLE	F	Ach Offset Enable
ACHOFFSET	QUANT	0	Ach Offset (V)
ACHFILTER	IQUANT	3	Ach Filter
IERANGELOWERLIMIT	IQUANT	1	I/E Range Lower Limit
IERANGEMODE	TOGGLE	F	I/E AutoRange
IERANGE	IQUANT	4	I/E Range
POSFEEDENABLE	TOGGLE	F	Positive Feedback IR Comp
POSFEEDRESISTANCE	QUANT	0	Positive Feedback Resistance (ohm)
ACHSELECT	IQUANT	0	Ach Select
CABLEID	IQUANT	14	Cable ID
DCCALDATE	LABEL	8/19/2019	DC Calibration Date
ACCALDATE	LABEL	8/19/2019	AC Calibration Date
THERMOSELECT	IQUANT	1	Thermo Select
FRAMEWORKVERSION	QUANT	6.33	Framework Version
INSTRUMENTVERSION	LABEL	3.50	Instrument Version
ZCURVE	TABLE
	Pt	Time	Freq	Zreal	Zimag	Zsig	Zmod	Zphz	Idc	Vdc	IERange
	#	s	Hz	ohm	ohm	V	ohm	°	A	V	#
	0	2	1000078	2079.082	-1488.959	1	2557.26	-35.60878	-6.847669E-007	0.0050478	8
	1	3	794390.6	2380.154	-1420.368	1	2771.746	-30.82685	-8.713766E-007	0.005747	8
	2	4	630984.4	2648.136	-1316.722	1	2957.428	-26.43776	-8.222321E-007	0.0055338	8
	3	6	501234.4	2872.356	-1194.029	1	3110.648	-22.5725	7.833856E-006	0.0040627	8
	4	7	398109.4	3050.678	-1046.294	1	3225.115	-18.93048	-1.591239E-006	0.0053156	8
	5	8	316265.6	3188.801	-910.0814	1	3316.127	-15.92871	-1.510142E-006	0.0046101	8
	6	10	251203.1	3290.522	-787.9155	1	3383.541	-13.46593	6.062486E-006	0.003695	8
	7	11	199546.9	3375.653	-684.0703	1	3444.268	-11.45576	5.724695E-006	0.0041135	8
	8	12	158578.1	3454.122	-583.9401	1	3503.134	-9.59547	-2.135239E-006	0.0049719	8
	9	14	125953.1	3517.999	-465.9265	1	3548.719	-7.544392	3.714275E-006	0.0003543	7
	10	15	100078.1	3535.605	-415.7592	1	3559.966	-6.70673	3.848595E-007	0.0053022	7
	11	17	79453.13	3570.396	-381.8247	1	3590.754	-6.104116	1.073792E-006	0.0033245	7
	12	18	63140.62	3597.724	-356.5143	1	3615.345	-5.659215	-3.038891E-007	0.0039282	7
	13	19	50203.12	3627.901	-344.618	1	3644.232	-5.426302	1.006696E-006	0.0040612	7
	14	21	39890.62	3653.885	-338.1413	1	3669.498	-5.287261	6.07607E-007	0.0049714	7
	15	22	31640.63	3676.898	-338.0515	1	3692.405	-5.252967	-1.209788E-006	0.005842	7
	16	23	25171.88	3707.437	-352.8205	1	3724.187	-5.436217	7.719294E-007	0.0030125	7
	17	25	20015.62	3729.453	-372.9676	1	3748.056	-5.710933	-7.229587E-007	0.0046063	7
	18	26	15890.62	3759.333	-409.7376	1	3781.596	-6.220234	1.077509E-006	0.0033136	7
	19	27	12609.37	3783.656	-456.1948	1	3811.058	-6.874958	1.168667E-007	0.0034062	7
	20	29	10078.13	3812.877	-510.2545	1	3846.868	-7.622263	8.279027E-007	0.0045496	7
	21	30	8015.625	3841.337	-595.3419	1	3887.197	-8.809782	-2.889824E-007	0.0061153	7
	22	32	6328.125	3874.448	-699.8649	1	3937.151	-10.23927	4.837151E-007	0.0031136	7
	23	33	5015.625	3907.399	-828.6886	1	3994.307	-11.97398	-3.03975E-007	0.0039187	7
	24	34	3984.375	3951.26	-993.894	1	4074.345	-14.11917	-7.213913E-007	0.0046053	7
	25	36	3170.956	3996.075	-1189.647	1	4169.397	-16.57847	1.006705E-006	0.0040629	7
	26	37	2527.573	4046.494	-1431.102	1	4292.105	-19.47689	-2.869196E-007	0.0061167	7
	27	38	1976.103	4114.263	-1761.239	1	4475.391	-23.17485	7.73764E-007	0.0030084	7
	28	40	1577.524	4219.202	-2148.556	1	4734.761	-26.98669	-3.015622E-007	0.0039221	7
	29	41	1265.625	4272.02	-2569.784	1	4985.373	-31.02853	-8.887797E-007	0.0064245	7
	30	43	998.264	4381.757	-3159.234	1	5401.903	-35.7915	-1.209202E-006	0.0058444	7
	31	44	796.875	4506.662	-3864.508	1	5936.702	-40.61342	9.72874E-007	0.0030875	7
	32	45	627.7902	4675.06	-4754.712	1	6668.094	-45.48396	-1.037639E-006	0.0052716	7
	33	47	505.5147	4862.172	-5754.669	1	7533.72	-49.80523	-1.21091E-006	0.0058355	7
	34	48	397.9953	5108.579	-7136.142	1	8776.224	-54.4021	4.696502E-009	0.0047935	7
	35	50	315.5048	5425.61	-8780.028	1	10321.15	-58.28605	1.17349E-009	0.0047308	6
	36	51	252.4038	5812.878	-10719.81	1	12194.42	-61.53099	8.556654E-010	0.0047271	6
	37	52	198.6229	6351.13	-13281.91	1	14722.29	-64.44385	7.424154E-010	0.0047334	6
	38	54	158.3615	7017.861	-16258.05	1	17708.04	-66.65234	1.125935E-009	0.0047256	6
	39	55	125.558	7937.417	-19982.57	1	21501.29	-68.33617	1.05007E-009	0.0047209	6
	40	56	100.4464	9070.955	-24339.71	1	25975.06	-69.56052	4.430021E-010	0.00473	6
	41	58	79.00281	10781.72	-29949.57	1	31831.15	-70.20132	7.847403E-011	0.0047299	6
	42	59	63.3446	13159.13	-36079.72	1	38404.55	-69.96189	7.379869E-010	0.0047179	6
	43	61	49.86702	15923.86	-44703.52	1	47454.96	-70.39357	-4.753712E-010	0.0047264	6
	44	62	39.72458	19730.23	-53589.34	1	57106.04	-69.78757	5.542504E-010	0.0047333	6
	45	63	31.6723	24695.23	-63986.43	1	68586.57	-68.89616	4.154193E-010	0.0047283	6
	46	65	24.93351	31581.96	-76851.37	1	83087.62	-67.65986	-2.860351E-013	0.0047238	6
	47	66	19.86229	39867.12	-90641.05	1	99021.1	-66.25842	1.008516E-010	0.004724	6
	48	68	15.83615	49710.61	-105287.8	1	116433.1	-64.72612	4.233975E-010	0.0047245	5
	49	69	12.40079	62332.8	-125416.6	1	140052.5	-63.57234	9.535687E-010	0.004734	5
	50	71	9.93114	76017.8	-142997.4	1	161947.4	-62.00477	5.326922E-010	0.0047286	5
	51	72	7.944915	92274.93	-163783	1	187988.1	-60.60319	3.31206E-010	0.0047221	5
	52	74	6.317385	110142.3	-187679	1	217611.4	-59.5928	-2.316603E-010	0.0047273	5
	53	76	5.008013	130976.8	-215329.3	1	252035	-58.6894	-7.901672E-011	0.0047154	5
	54	78	3.945707	154879.6	-247580.5	1	292033.9	-57.97104	2.998682E-010	0.0047367	5
	55	81	3.158693	180310.3	-282402.3	1	335056.4	-57.44228	4.604013E-011	0.004717	5
	56	84	2.504006	209669.3	-324209.9	1	386100.1	-57.10891	3.296014E-010	0.0047317	5
	57	87	1.998082	241671.3	-370691.4	1	442512.3	-56.89776	4.032563E-010	0.004727	5
	58	90	1.584686	279991.1	-425797	1	509605.8	-56.6723	7.837604E-011	0.0046771	5
	59	94	1.266892	318451.3	-487379.7	1	582194.3	-56.83961	2.942917E-010	0.0047185	5
	60	98	0.999041	365755.5	-565567.9	1	673531.1	-57.10906	-1.473292E-010	0.0047169	5
