EXPLAIN
TAG	EISPOT
TITLE	LABEL	Potentiostatic EIS	Test &Identifier
DATE	LABEL	10/12/2019	Date
TIME	LABEL	11:30:03	Time
NOTES	NOTES	1	&Notes...
	
PSTAT	PSTAT	REF600-11020	Potentiostat
VDC	POTEN	0.00000E+000	T	DC &Voltage (V)
FREQINIT	QUANT	1.00000E+006	Initial Fre&q. (Hz)
FREQFINAL	QUANT	1.00000E+000	Final Fre&q. (Hz)
PTSPERDEC	QUANT	1.00000E+001	Points/&decade
VAC	QUANT	2.50000E+001	AC &Voltage (mV rms)
AREA	QUANT	1.00000E-002	&Area (cm^2)
CONDIT	TWOPARAM	T	5.00000E+000	0.00000E+000	Conditionin&g	Time(s)	E(V)
DELAY	TWOPARAM	T	5.00000E+000	0.00000E+000	Init. De&lay	Time(s)	Stab.(mV/s)
SPEED	SELECTOR	1	&Optimize for:
ZGUESS	QUANT	1.00000E+004	E&stimated Z (ohms)
OCVCURVE	TABLE	19
	Pt	T	Vf	Vm	Ach	Over
	#	s	V vs. Ref.	V	V	bits
	0	0.258333	6.57243E-003	6.57243E-003	5.55933E-004	...........
	1	0.516667	6.57128E-003	6.51229E-003	5.59166E-004	...........
	2	0.775	6.56926E-003	6.71870E-003	5.53933E-004	...........
	3	1.03333	6.56801E-003	6.27550E-003	5.59132E-004	...........
	4	1.29167	6.54692E-003	5.96562E-003	5.54733E-004	...........
	5	1.55	6.46072E-003	5.87839E-003	5.58799E-004	...........
	6	1.80833	6.28438E-003	5.09154E-003	5.59199E-004	...........
	7	2.06667	6.03867E-003	5.83584E-003	5.53466E-004	...........
	8	2.325	5.78827E-003	5.21282E-003	5.54433E-004	...........
	9	2.58333	5.59006E-003	4.86132E-003	5.55966E-004	...........
	10	2.84167	5.42189E-003	4.89703E-003	5.60766E-004	...........
	11	3.1	5.24143E-003	4.92454E-003	5.59432E-004	...........
	12	3.35833	5.07394E-003	4.92521E-003	5.60332E-004	...........
	13	3.61667	4.96572E-003	4.91501E-003	5.60032E-004	...........
	14	3.875	4.91959E-003	4.89897E-003	5.63332E-004	...........
	15	4.13333	4.90740E-003	4.88059E-003	5.63166E-004	...........
	16	4.39167	4.90317E-003	4.86329E-003	5.69666E-004	...........
	17	4.65	4.89534E-003	4.85819E-003	5.63332E-004	...........
	18	4.90833	4.88318E-003	4.83898E-003	5.64566E-004	...........
EOC	QUANT	0.0048832	Open Circuit (V)
PSTATMODEL	IQUANT	4	Pstat Model
PSTATSECTION	LABEL	REF600-11020	Pstat Section
PSTATSERIALNO	LABEL	11020	Pstat Serial Number
CTRLMODE	IQUANT	1	Control Mode
IESTAB	IQUANT	0	I/E Stability
CASPEED	IQUANT	1	Control Amp Speed
CONVENTION	IQUANT	1	Current Convention
ICHRANGE	IQUANT	2	Ich Range
ICHRANGEMODE	TOGGLE	F	Ich Auto Range
ICHOFFSETENABLE	TOGGLE	T	Ich Offset Enable
ICHOFFSET	QUANT	0	Ich Offset (V)
ICHFILTER	IQUANT	3	Ich Filter
VCHRANGE	IQUANT	2	Vch Range
VCHRANGEMODE	TOGGLE	F	Vch Auto Range
VCHOFFSETENABLE	TOGGLE	T	Vch Offset Enable
VCHOFFSET	QUANT	0	Vch Offset (V)
VCHFILTER	IQUANT	3	Vch Filter
ACHRANGE	IQUANT	2	Ach Range
ACHOFFSETENABLE	TOGGLE	F	Ach Offset Enable
ACHOFFSET	QUANT	0	Ach Offset (V)
ACHFILTER	IQUANT	3	Ach Filter
IERANGELOWERLIMIT	IQUANT	1	I/E Range Lower Limit
IERANGEMODE	TOGGLE	F	I/E AutoRange
IERANGE	IQUANT	5	I/E Range
POSFEEDENABLE	TOGGLE	F	Positive Feedback IR Comp
POSFEEDRESISTANCE	QUANT	0	Positive Feedback Resistance (ohm)
ACHSELECT	IQUANT	0	Ach Select
CABLEID	IQUANT	14	Cable ID
DCCALDATE	LABEL	8/19/2019	DC Calibration Date
ACCALDATE	LABEL	8/19/2019	AC Calibration Date
THERMOSELECT	IQUANT	1	Thermo Select
FRAMEWORKVERSION	QUANT	6.33	Framework Version
INSTRUMENTVERSION	LABEL	3.50	Instrument Version
ZCURVE	TABLE
	Pt	Time	Freq	Zreal	Zimag	Zsig	Zmod	Zphz	Idc	Vdc	IERange
	#	s	Hz	ohm	ohm	V	ohm	°	A	V	#
	0	2	1000078	2588.891	-1933.876	1	3231.444	-36.75937	8.159129E-006	0.0057798	8
	1	3	794390.6	2942.09	-1882.71	1	3492.919	-32.6161	-3.955729E-006	0.0073051	8
	2	5	630984.4	3308.411	-1748.466	1	3742.021	-27.85606	1.443842E-006	0.0069247	8
	3	6	501234.4	3623.472	-1612.175	1	3965.937	-23.9855	4.713996E-007	0.0065228	8
	4	8	398109.4	3866.581	-1439.377	1	4125.804	-20.41833	4.26539E-006	0.0059536	8
	5	9	316265.6	4058.638	-1297.656	1	4261.039	-17.73049	-4.296733E-006	0.0073473	8
	6	11	251203.1	4210.509	-1127.065	1	4358.745	-14.98556	-3.527983E-007	0.0065967	8
	7	12	199546.9	4333.302	-987.138	1	4444.317	-12.83314	-1.396765E-006	0.0068831	8
	8	14	158578.1	4438.341	-898.3855	1	4528.352	-11.4429	1.770113E-006	0.0062109	8
	9	16	125953.1	4528.664	-780.9106	1	4595.5	-9.78371	5.144622E-007	0.0047253	7
	10	17	100078.1	4596.535	-715.4832	1	4651.886	-8.847494	-5.35831E-008	0.0066255	7
	11	18	79453.13	4658.782	-676.4099	1	4707.63	-8.261065	-2.971268E-008	0.0065398	7
	12	20	63140.62	4733.502	-667.1036	1	4780.28	-8.021996	-7.749103E-008	0.0066444	7
	13	21	50203.12	4791.104	-660.1365	1	4836.368	-7.845035	-1.283849E-008	0.0065196	7
	14	22	39890.62	4844.877	-687.5949	1	4893.427	-8.07759	-1.963161E-008	0.0065822	7
	15	24	31640.63	4918.426	-704.9552	1	4968.69	-8.156619	-3.741685E-008	0.006652	7
	16	25	25171.88	5001.02	-753.0109	1	5057.393	-8.562785	6.969466E-008	0.0063894	7
	17	26	20015.62	5059.077	-813.4788	1	5124.062	-9.134735	-1.655305E-008	0.0065878	7
	18	28	15890.62	5157.913	-873.8597	1	5231.415	-9.61581	-5.418006E-008	0.006656	7
	19	29	12609.37	5239.142	-964.964	1	5327.266	-10.43598	-5.740237E-008	0.0066561	7
	20	30	10078.13	5345.308	-1080.298	1	5453.38	-11.42569	4.4299E-008	0.0064085	7
	21	32	8015.625	5459.351	-1214.133	1	5592.73	-12.53825	1.345104E-008	0.0064567	7
	22	33	6328.125	5592.798	-1350.49	1	5753.539	-13.57531	6.450331E-008	0.0064483	7
	23	34	5015.625	5738.471	-1544.484	1	5942.683	-15.06394	1.250569E-007	0.0063514	7
	24	36	3984.375	5906.614	-1742.878	1	6158.386	-16.43987	3.971711E-008	0.0064052	7
	25	37	3170.956	6079.688	-1964.801	1	6389.291	-17.90952	4.439745E-008	0.0064118	7
	26	39	2527.573	6290.547	-2235.398	1	6675.926	-19.56309	-7.65034E-008	0.0067677	7
	27	40	1976.103	6543.69	-2564.081	1	7028.114	-21.39724	-4.836319E-008	0.0066318	7
	28	42	1577.524	6761.402	-2921.685	1	7365.65	-23.36977	-6.973751E-008	0.0066209	7
	29	43	1265.625	7022.653	-3297.74	1	7758.398	-25.1541	1.020632E-007	0.006456	7
	30	45	998.264	7333.935	-3817.251	1	8267.891	-27.4966	8.097049E-008	0.006382	7
	31	46	796.875	7612.293	-4376.05	1	8780.479	-29.89314	5.867014E-008	0.0064421	7
	32	47	627.7902	7936.889	-5068.983	1	9417.473	-32.5648	1.724323E-008	0.0066353	7
	33	49	505.5147	8248.497	-5905.381	1	10144.52	-35.60017	-3.455662E-009	0.0064959	6
	34	50	397.9953	8613.826	-7001.689	1	11100.53	-39.1057	1.716783E-009	0.0064919	6
	35	51	315.5048	8977.026	-8340.502	1	12253.61	-42.89498	-5.846668E-010	0.006487	6
	36	53	252.4038	9368.677	-9944.41	1	13662.48	-46.70752	1.625139E-009	0.0064841	6
	37	54	198.6229	9840.28	-12096.83	1	15593.73	-50.87305	4.982398E-010	0.0064886	6
	38	56	158.3615	10375.7	-14626.42	1	17932.86	-54.64885	9.529232E-010	0.0064819	6
	39	57	125.558	11053.05	-17818.66	1	20968.42	-58.18836	3.282839E-010	0.0064857	6
	40	58	100.4464	11905.28	-21627.16	1	24687.44	-61.16817	1.488683E-009	0.0064833	6
	41	60	79.00281	13078.85	-26627.88	1	29666.49	-63.84105	3.128789E-010	0.0064826	6
	42	61	63.3446	14044.64	-31819.61	1	34781.31	-66.18414	5.446119E-011	0.0064839	6
	43	62	49.86702	16717.46	-40018.38	1	43369.85	-67.32753	1.703812E-009	0.006485	6
	44	64	39.72458	18611.77	-48673.02	1	52110.08	-69.07396	1.077363E-009	0.0064899	6
	45	65	31.6723	21734.76	-58839.04	1	62725.05	-69.7261	9.248613E-010	0.0064912	6
	46	67	24.93351	25958.4	-72245.21	1	76767.23	-70.23615	5.519092E-010	0.0064894	6
	47	68	19.86229	31089.82	-87362.73	1	92729.84	-70.41086	3.37834E-010	0.0064914	6
	48	69	15.83615	39611.68	-105321.2	1	112524	-69.38854	3.272214E-009	0.0064917	5
	49	71	12.40079	45809.05	-129479.2	1	137343.8	-70.51649	-1.567384E-009	0.0064927	5
	50	72	9.93114	56804.39	-152179.5	1	162435.6	-69.53078	6.363559E-010	0.0064875	5
	51	74	7.944915	69818.42	-180804.9	1	193817	-68.88576	2.278159E-010	0.0064957	5
	52	76	6.317385	85154.98	-213731.7	1	230070.9	-68.27667	2.14004E-010	0.0064827	5
	53	78	5.008013	104325.5	-253823.6	1	274427.1	-67.65658	9.961818E-011	0.0064973	5
	54	80	3.945707	127132.1	-301524.4	1	327230.1	-67.13818	1.047271E-010	0.0064935	5
	55	83	3.158693	152970.7	-354239.1	1	385856.7	-66.64392	5.08456E-012	0.006479	5
	56	86	2.504006	183475.4	-417208.3	1	455769.7	-66.26157	2.180788E-010	0.0065021	5
	57	89	1.998082	220030	-490107.7	1	537232.5	-65.82268	3.151207E-010	0.0065157	5
	58	92	1.584686	265821.8	-580143.5	1	638143.9	-65.38275	1.223515E-010	0.006458	5
	59	96	1.266892	313677.8	-682137.9	1	750803.5	-65.30489	1.539441E-010	0.0065125	5
	60	100	0.999041	379195.3	-809149	1	893594.6	-64.89058	-8.215281E-012	0.0064497	5
