EXPLAIN
TAG	EISPOT
TITLE	LABEL	Potentiostatic EIS	Test &Identifier
DATE	LABEL	10/2/2019	Date
TIME	LABEL	9:20:00	Time
NOTES	NOTES	2	&Notes...
	
	
PSTAT	PSTAT	REF600-11020	Potentiostat
VDC	POTEN	0.00000E+000	T	DC &Voltage (V)
FREQINIT	QUANT	1.00000E+006	Initial Fre&q. (Hz)
FREQFINAL	QUANT	1.00000E+000	Final Fre&q. (Hz)
PTSPERDEC	QUANT	1.00000E+001	Points/&decade
VAC	QUANT	2.50000E+001	AC &Voltage (mV rms)
AREA	QUANT	1.00000E-002	&Area (cm^2)
CONDIT	TWOPARAM	T	5.00000E+000	0.00000E+000	Conditionin&g	Time(s)	E(V)
DELAY	TWOPARAM	T	5.00000E+000	0.00000E+000	Init. De&lay	Time(s)	Stab.(mV/s)
SPEED	SELECTOR	1	&Optimize for:
ZGUESS	QUANT	1.00000E+004	E&stimated Z (ohms)
OCVCURVE	TABLE	19
	Pt	T	Vf	Vm	Ach	Over
	#	s	V vs. Ref.	V	V	bits
	0	0.258333	-1.54495E-003	-1.54495E-003	5.64132E-004	...........
	1	0.516667	-1.66549E-003	-7.85484E-003	5.72466E-004	...........
	2	0.775	-2.32359E-003	-9.53807E-003	5.67832E-004	...........
	3	1.03333	-3.85915E-003	-8.36580E-003	5.70632E-004	...........
	4	1.29167	-5.84345E-003	-7.12358E-003	5.65832E-004	...........
	5	1.55	-7.30609E-003	-5.34432E-003	5.68932E-004	...........
	6	1.80833	-7.65019E-003	-4.01585E-003	5.64966E-004	...........
	7	2.06667	-6.98536E-003	-3.24481E-003	5.67799E-004	...........
	8	2.325	-5.80963E-003	-3.09023E-003	5.63866E-004	...........
	9	2.58333	-4.65301E-003	-4.02506E-003	5.67632E-004	...........
	10	2.84167	-3.82986E-003	-1.08855E-003	5.67499E-004	...........
	11	3.1	-3.10333E-003	7.44606E-003	5.63899E-004	...........
	12	3.35833	-1.57719E-003	1.25790E-002	5.68432E-004	...........
	13	3.61667	1.45868E-003	1.22148E-002	5.67232E-004	...........
	14	3.875	5.41622E-003	9.86286E-003	5.66266E-004	...........
	15	4.13333	8.66622E-003	6.00170E-003	5.67066E-004	...........
	16	4.39167	9.87467E-003	1.22694E-003	5.68099E-004	...........
	17	4.65	8.79184E-003	-9.19987E-004	5.61799E-004	...........
	18	4.90833	6.15480E-003	-6.08344E-004	5.67866E-004	...........
EOC	QUANT	0.0061548	Open Circuit (V)
PSTATMODEL	IQUANT	4	Pstat Model
PSTATSECTION	LABEL	REF600-11020	Pstat Section
PSTATSERIALNO	LABEL	11020	Pstat Serial Number
CTRLMODE	IQUANT	1	Control Mode
IESTAB	IQUANT	0	I/E Stability
CASPEED	IQUANT	1	Control Amp Speed
CONVENTION	IQUANT	1	Current Convention
ICHRANGE	IQUANT	2	Ich Range
ICHRANGEMODE	TOGGLE	F	Ich Auto Range
ICHOFFSETENABLE	TOGGLE	T	Ich Offset Enable
ICHOFFSET	QUANT	0	Ich Offset (V)
ICHFILTER	IQUANT	3	Ich Filter
VCHRANGE	IQUANT	2	Vch Range
VCHRANGEMODE	TOGGLE	F	Vch Auto Range
VCHOFFSETENABLE	TOGGLE	T	Vch Offset Enable
VCHOFFSET	QUANT	0	Vch Offset (V)
VCHFILTER	IQUANT	3	Vch Filter
ACHRANGE	IQUANT	2	Ach Range
ACHOFFSETENABLE	TOGGLE	F	Ach Offset Enable
ACHOFFSET	QUANT	0	Ach Offset (V)
ACHFILTER	IQUANT	3	Ach Filter
IERANGELOWERLIMIT	IQUANT	1	I/E Range Lower Limit
IERANGEMODE	TOGGLE	F	I/E AutoRange
IERANGE	IQUANT	6	I/E Range
POSFEEDENABLE	TOGGLE	F	Positive Feedback IR Comp
POSFEEDRESISTANCE	QUANT	0	Positive Feedback Resistance (ohm)
ACHSELECT	IQUANT	0	Ach Select
CABLEID	IQUANT	14	Cable ID
DCCALDATE	LABEL	8/19/2019	DC Calibration Date
ACCALDATE	LABEL	8/19/2019	AC Calibration Date
THERMOSELECT	IQUANT	1	Thermo Select
FRAMEWORKVERSION	QUANT	6.33	Framework Version
INSTRUMENTVERSION	LABEL	3.50	Instrument Version
ZCURVE	TABLE
	Pt	Time	Freq	Zreal	Zimag	Zsig	Zmod	Zphz	Idc	Vdc	IERange
	#	s	Hz	ohm	ohm	V	ohm	°	A	V	#
	0	1	1000078	1599.652	-2608.495	1	3059.924	-58.48142	-1.182629E-006	0.0085585	8
	1	2	794390.6	1761.336	-3045.162	1	3517.857	-59.9547	-2.311804E-006	0.0088671	8
	2	4	630984.4	1946.913	-3572.104	1	4068.218	-61.40818	-1.935701E-006	0.0086197	8
	3	5	501234.4	2163.659	-4243.001	1	4762.822	-62.98133	1.141392E-006	0.0078216	8
	4	7	398109.4	2421.01	-5059.296	1	5608.722	-64.42763	-9.922624E-007	0.0082731	8
	5	8	316265.6	2704.503	-6108.908	1	6680.8	-66.12032	1.354113E-006	0.0077969	8
	6	10	251203.1	3099.231	-7341.079	1	7968.48	-67.11167	-2.922999E-007	0.0080208	8
	7	12	199546.9	3634.82	-8838.751	1	9556.96	-67.64573	-2.226899E-007	0.0080109	8
	8	14	158578.1	4182.977	-10582.76	1	11379.46	-68.43293	-2.453212E-007	0.0079987	8
	9	15	125953.1	5153.427	-12885.59	1	13877.91	-68.20169	-5.730708E-007	0.0096136	7
	10	17	100078.1	6171.244	-15473.11	1	16658.38	-68.25608	-5.097227E-008	0.008007	7
	11	18	79453.13	7538.032	-18673.37	1	20137.45	-68.01715	6.189903E-009	0.0078423	7
	12	20	63140.62	9320.625	-22324.89	1	24192.45	-67.3395	-8.864443E-008	0.0079608	7
	13	21	50203.12	11729.08	-26672.61	1	29137.6	-66.26286	-3.805597E-008	0.0078216	7
	14	22	39890.62	14853.8	-31712.11	1	35018.47	-64.90183	4.148112E-008	0.0076657	7
	15	24	31640.63	18947.69	-37316.16	1	41851.06	-63.08032	-8.751217E-008	0.0079546	7
	16	25	25171.88	24218.31	-43549.09	1	49830.21	-60.9209	3.738479E-008	0.0076614	7
	17	26	20015.62	31194.24	-49955.99	1	58895.52	-58.01793	7.984216E-009	0.0077337	7
	18	28	15890.62	39466.5	-56567.1	1	68974.2	-55.09677	1.072561E-008	0.0078262	7
	19	30	12609.37	50377.73	-62079.43	1	79948.55	-50.94052	-9.680877E-009	0.0077515	6
	20	31	10078.13	61659.3	-66986.87	1	91044.55	-47.37141	2.028136E-008	0.0074778	6
	21	32	8015.625	74080.85	-70439.4	1	102223.7	-43.55663	-6.277315E-009	0.0079591	6
	22	34	6328.125	87882.63	-72503.8	1	113930.5	-39.52288	4.575818E-009	0.0078274	6
	23	35	5015.625	101290.3	-72714.65	1	124688.2	-35.67395	2.664637E-009	0.0076246	6
	24	36	3984.375	113718	-71607.02	1	134385.1	-32.19819	6.682087E-009	0.0075656	6
	25	38	3170.956	125130.4	-70070.49	1	143413.7	-29.24794	-1.231524E-008	0.0078435	6
	26	39	2527.573	135966.5	-68137.79	1	152084.3	-26.61713	2.076645E-008	0.0074746	6
	27	41	1976.103	146330.5	-65485.76	1	160315.3	-24.10945	-7.212619E-009	0.0078108	6
	28	42	1577.524	155284.7	-63803.79	1	167881.7	-22.33691	5.378741E-009	0.0077709	6
	29	44	1265.625	163702.5	-60224.3	1	174429	-20.198	-8.219208E-010	0.0078967	5
	30	45	998.264	171590.9	-60096.99	1	181810.6	-19.30199	7.827339E-010	0.0077963	5
	31	47	796.875	179010.7	-60623.38	1	188997.4	-18.70907	2.597128E-010	0.0078259	5
	32	48	627.7902	186798.2	-61603.5	1	196694	-18.25185	-9.438929E-010	0.0078888	5
	33	49	505.5147	194163	-63384.66	1	204247.1	-18.07931	-1.688815E-010	0.0077268	5
	34	51	397.9953	202477.2	-66124.15	1	213000.9	-18.08579	3.570434E-010	0.0077662	5
	35	52	315.5048	211108.2	-68879.54	1	222061	-18.07026	-1.629428E-010	0.0077664	5
	36	53	252.4038	219484.8	-72564.66	1	231169.2	-18.29459	-3.40082E-011	0.0077612	5
	37	55	198.6229	228696.6	-76838.95	1	241259.9	-18.57165	9.529341E-011	0.0077607	5
	38	56	158.3615	237805.8	-81481.99	1	251378	-18.91356	1.143065E-010	0.0077561	5
	39	58	125.558	247665.1	-87770.59	1	262757.8	-19.51394	2.703912E-010	0.0077625	5
	40	59	100.4464	257528.4	-95005.9	1	274494.1	-20.24974	3.97442E-010	0.0077633	5
	41	61	79.00281	267616.7	-103062	1	286776	-21.06223	1.703618E-010	0.0077655	5
	42	62	63.3446	267613.3	-115864.9	1	291618.8	-23.4105	1.31791E-009	0.0077601	5
	43	64	49.86702	291648.1	-126275.5	1	317811.4	-23.41127	9.159128E-009	0.007754	5
	44	65	39.72458	306005.1	-141446.6	1	337114.6	-24.80808	-1.87476E-009	0.0077657	5
	45	67	31.6723	325104.1	-162510.4	1	363458.8	-26.55918	-7.033364E-010	0.0077605	5
	46	68	24.93351	342253.8	-180485.9	1	386927.4	-27.8047	-7.631985E-010	0.0077616	5
	47	70	19.86229	364028.2	-208791.9	1	419655.3	-29.83684	9.126295E-010	0.00777	5
	48	71	15.83615	390412.7	-239508	1	458024.1	-31.52803	1.684614E-010	0.0077623	5
	49	72	12.40079	425817.2	-270092.1	1	504251.9	-32.3866	8.401271E-010	0.0077656	5
	50	74	9.93114	458643.9	-296419.4	1	546094	-32.8744	4.024943E-010	0.0077634	5
	51	75	7.944915	495251.2	-327777.4	1	593895.4	-33.49821	-8.667748E-010	0.0077764	5
	52	77	6.317385	537538.4	-365744.4	1	650166.6	-34.23161	1.159922E-009	0.0077755	6
	53	79	5.008013	590463.6	-403445.9	1	715133.4	-34.34361	1.794973E-009	0.0077685	6
	54	82	3.945707	641615.7	-444582.9	1	780592.5	-34.71854	7.849038E-010	0.0077681	6
	55	85	3.158693	695596.4	-487907.7	1	849651.9	-35.04673	5.171267E-010	0.0077618	6
	56	89	2.504006	753484	-538970.2	1	926405.4	-35.57629	3.216162E-011	0.0077652	5
	57	92	1.998082	814878.4	-596857.1	1	1010082	-36.22089	3.373151E-010	0.0077432	4
	58	95	1.584686	883982.3	-662373.1	1	1104610	-36.84444	7.279043E-011	0.0077131	4
	59	98	1.266892	951438	-742868.1	1	1207099	-37.98216	3.017715E-010	0.0077564	4
	60	103	0.999041	1031019	-839045.6	1	1329285	-39.13877	-1.07106E-010	0.0077473	4
