EXPLAIN
TAG	EISPOT
TITLE	LABEL	Potentiostatic EIS	Test &Identifier
DATE	LABEL	11/22/2019	Date
TIME	LABEL	1:21:26	Time
NOTES	NOTES	4	&Notes...
	
	
	
	
PSTAT	PSTAT	REF600-11020	Potentiostat
VDC	POTEN	0.00000E+000	T	DC &Voltage (V)
FREQINIT	QUANT	1.00000E+006	Initial Fre&q. (Hz)
FREQFINAL	QUANT	1.00000E+000	Final Fre&q. (Hz)
PTSPERDEC	QUANT	1.00000E+001	Points/&decade
VAC	QUANT	2.50000E+001	AC &Voltage (mV rms)
AREA	QUANT	1.00000E-002	&Area (cm^2)
CONDIT	TWOPARAM	T	5.00000E+000	0.00000E+000	Conditionin&g	Time(s)	E(V)
DELAY	TWOPARAM	T	5.00000E+000	0.00000E+000	Init. De&lay	Time(s)	Stab.(mV/s)
SPEED	SELECTOR	1	&Optimize for:
ZGUESS	QUANT	1.00000E+005	E&stimated Z (ohms)
OCVCURVE	TABLE	19
	Pt	T	Vf	Vm	Ach	Over
	#	s	V vs. Ref.	V	V	bits
	0	0.258333	6.48064E-003	6.48064E-003	5.62632E-004	...........
	1	0.516667	6.48047E-003	6.47183E-003	5.63132E-004	...........
	2	0.775	6.47954E-003	6.46881E-003	5.62932E-004	...........
	3	1.03333	6.47758E-003	6.48346E-003	5.63032E-004	...........
	4	1.29167	6.47624E-003	6.50017E-003	5.60199E-004	...........
	5	1.55	6.47887E-003	6.52921E-003	5.59599E-004	...........
	6	1.80833	6.48825E-003	6.55526E-003	5.56866E-004	...........
	7	2.06667	6.50501E-003	6.58699E-003	5.61632E-004	...........
	8	2.325	6.52799E-003	6.62284E-003	5.59366E-004	...........
	9	2.58333	6.55557E-003	6.65392E-003	5.58499E-004	...........
	10	2.84167	6.58632E-003	6.69110E-003	5.62399E-004	...........
	11	3.1	6.61909E-003	6.72599E-003	5.60232E-004	...........
	12	3.35833	6.65316E-003	6.76338E-003	5.54966E-004	...........
	13	3.61667	6.68816E-003	6.79715E-003	5.55799E-004	...........
	14	3.875	6.72375E-003	6.83610E-003	5.56633E-004	...........
	15	4.13333	6.75965E-003	6.86932E-003	5.53399E-004	...........
	16	4.39167	6.79571E-003	6.90896E-003	5.57333E-004	...........
	17	4.65	6.83180E-003	6.93745E-003	5.56099E-004	...........
	18	4.90833	6.86779E-003	6.98660E-003	5.53433E-004	...........
EOC	QUANT	0.0068678	Open Circuit (V)
PSTATMODEL	IQUANT	4	Pstat Model
PSTATSECTION	LABEL	REF600-11020	Pstat Section
PSTATSERIALNO	LABEL	11020	Pstat Serial Number
CTRLMODE	IQUANT	1	Control Mode
IESTAB	IQUANT	0	I/E Stability
CASPEED	IQUANT	1	Control Amp Speed
CONVENTION	IQUANT	1	Current Convention
ICHRANGE	IQUANT	2	Ich Range
ICHRANGEMODE	TOGGLE	F	Ich Auto Range
ICHOFFSETENABLE	TOGGLE	T	Ich Offset Enable
ICHOFFSET	QUANT	0	Ich Offset (V)
ICHFILTER	IQUANT	3	Ich Filter
VCHRANGE	IQUANT	2	Vch Range
VCHRANGEMODE	TOGGLE	F	Vch Auto Range
VCHOFFSETENABLE	TOGGLE	T	Vch Offset Enable
VCHOFFSET	QUANT	0	Vch Offset (V)
VCHFILTER	IQUANT	3	Vch Filter
ACHRANGE	IQUANT	2	Ach Range
ACHOFFSETENABLE	TOGGLE	F	Ach Offset Enable
ACHOFFSET	QUANT	0	Ach Offset (V)
ACHFILTER	IQUANT	3	Ach Filter
IERANGELOWERLIMIT	IQUANT	1	I/E Range Lower Limit
IERANGEMODE	TOGGLE	F	I/E AutoRange
IERANGE	IQUANT	5	I/E Range
POSFEEDENABLE	TOGGLE	F	Positive Feedback IR Comp
POSFEEDRESISTANCE	QUANT	0	Positive Feedback Resistance (ohm)
ACHSELECT	IQUANT	0	Ach Select
CABLEID	IQUANT	14	Cable ID
DCCALDATE	LABEL	8/19/2019	DC Calibration Date
ACCALDATE	LABEL	8/19/2019	AC Calibration Date
THERMOSELECT	IQUANT	1	Thermo Select
FRAMEWORKVERSION	QUANT	6.33	Framework Version
INSTRUMENTVERSION	LABEL	3.50	Instrument Version
ZCURVE	TABLE
	Pt	Time	Freq	Zreal	Zimag	Zsig	Zmod	Zphz	Idc	Vdc	IERange
	#	s	Hz	ohm	ohm	V	ohm	°	A	V	#
	0	1	1000078	1926.482	-1658.519	1	2542.05	-40.72535	-6.637963E-006	0.0102015	8
	1	2	794390.6	2243.27	-1707.837	1	2819.391	-37.28259	1.015842E-005	0.0071674	8
	2	4	630984.4	2543.644	-1738.717	1	3081.114	-34.35469	-2.307388E-006	0.0080954	8
	3	5	501234.4	2863.876	-1724.454	1	3342.982	-31.05382	-4.587832E-006	0.0087462	8
	4	6	398109.4	3180.181	-1691.269	1	3601.936	-28.00473	6.684239E-006	0.0071713	8
	5	8	316265.6	3470.078	-1636.241	1	3836.499	-25.24522	-3.136274E-006	0.0088408	8
	6	9	251203.1	3749.975	-1548.036	1	4056.936	-22.43145	-5.552747E-007	0.0080099	8
	7	10	199546.9	4008.656	-1431.83	1	4256.696	-19.65595	-1.298168E-006	0.0086789	8
	8	12	158578.1	4240.225	-1320.972	1	4441.224	-17.30356	5.716337E-006	0.0076203	8
	9	13	125953.1	4459.299	-1141.765	1	4603.148	-14.36157	1.31491E-006	0.0095896	7
	10	15	100078.1	4594.262	-997.579	1	4701.32	-12.2508	1.004566E-006	0.0064839	7
	11	16	79453.13	4716.027	-898.287	1	4800.815	-10.78425	1.067518E-006	0.007463	7
	12	17	63140.62	4810.631	-794.7472	1	4875.838	-9.380898	1.004974E-006	0.0064772	7
	13	19	50203.12	4886.805	-719.9205	1	4939.549	-8.380492	4.274606E-007	0.0087703	7
	14	20	39890.62	4936.509	-650.8767	1	4979.233	-7.5111	-1.267681E-006	0.0097746	7
	15	21	31640.63	4990.465	-604.4824	1	5026.942	-6.906446	-1.268366E-006	0.0094066	7
	16	23	25171.88	5038.588	-577.488	1	5071.574	-6.538315	-1.268438E-006	0.0097731	7
	17	24	20015.62	5086.165	-564.5705	1	5117.403	-6.333972	-3.490186E-007	0.0074111	7
	18	26	15890.62	5122.876	-569.3054	1	5154.413	-6.341262	-1.268292E-006	0.0093951	7
	19	27	12609.37	5165.538	-593.8204	1	5199.558	-6.557826	-3.505798E-007	0.0074071	7
	20	28	10078.13	5196.95	-618.3088	1	5233.603	-6.78489	-7.79096E-007	0.0081253	7
	21	30	8015.625	5252.161	-693.4929	1	5297.747	-7.521797	9.836262E-008	0.0092134	7
	22	31	6328.125	5302.067	-780.2246	1	5359.167	-8.371269	1.127239E-006	0.0066937	7
	23	32	5015.625	5336.829	-891.5743	1	5410.79	-9.484286	-2.755305E-007	0.0096235	7
	24	34	3984.375	5390.028	-1035.87	1	5488.664	-10.87862	-2.760915E-007	0.0096232	7
	25	35	3170.956	5446.857	-1221.113	1	5582.058	-12.63602	4.264714E-007	0.0087626	7
	26	36	2527.573	5494.934	-1442.122	1	5681.022	-14.70539	-1.099876E-006	0.0088146	7
	27	38	1976.103	5580.778	-1749.791	1	5848.663	-17.40824	4.772752E-007	0.0065315	7
	28	39	1577.524	5676.537	-2100.483	1	6052.693	-20.30593	7.90571E-007	0.0063999	7
	29	40	1265.625	5759.889	-2505.934	1	6281.403	-23.51224	-9.118391E-007	0.0099769	7
	30	42	998.264	5875.048	-3048.622	1	6618.934	-27.42526	-1.105582E-006	0.0088141	7
	31	43	796.875	6020.341	-3687.322	1	7059.805	-31.48652	-3.560978E-007	0.0073999	7
	32	45	627.7902	6189.1	-4505.534	1	7655.377	-36.05383	-1.265289E-006	0.0097633	7
	33	46	505.5147	6378.152	-5459.174	1	8395.439	-40.56081	1.009168E-006	0.0064643	7
	34	47	397.9953	6619.783	-6697.463	1	9416.875	-45.33421	6.713777E-009	0.0082593	7
	35	49	315.5048	6910.961	-8203.515	1	10726.56	-49.88791	-5.384015E-011	0.0082042	6
	36	50	252.4038	7250.196	-9985.57	1	12340.05	-54.01782	1.720824E-009	0.0081937	6
	37	51	198.6229	7708.608	-12343.44	1	14552.78	-58.0148	1.295608E-009	0.0082017	6
	38	53	158.3615	8264.189	-15091.04	1	17205.71	-61.29391	3.394484E-010	0.00819	6
	39	54	125.558	8988.195	-18545.89	1	20609.17	-64.14304	6.524506E-010	0.0082024	6
	40	56	100.4464	9899.12	-22584.62	1	24658.82	-66.33155	-7.870731E-011	0.0082051	6
	41	57	79.00281	11153.79	-27988.61	1	30129.21	-68.27214	1.267941E-009	0.0081857	6
	42	58	63.3446	12560.29	-34172.5	1	36407.7	-69.81882	1.327748E-009	0.0081855	6
	43	60	49.86702	14754.3	-41599.03	1	44138.07	-70.47147	6.806332E-010	0.0081837	6
	44	61	39.72458	17615.83	-50770.87	1	53740.1	-70.8649	4.300168E-010	0.0081914	6
	45	62	31.6723	21016.37	-61529.88	1	65020.11	-71.14169	5.171088E-010	0.0081942	6
	46	64	24.93351	26077.76	-75281.5	1	79670.28	-70.89375	1.266031E-009	0.008194	6
	47	65	19.86229	32176.41	-90736.93	1	96273.1	-70.47488	1.072732E-009	0.0082033	6
	48	66	15.83615	39378.07	-108364.7	1	115297.7	-70.02964	1.294562E-009	0.0081957	5
	49	68	12.40079	51785.98	-131371.7	1	141210.2	-68.48592	-5.60708E-010	0.0082146	5
	50	69	9.93114	64647.43	-156147	1	169000.5	-67.50964	-5.067535E-011	0.0082175	5
	51	71	7.944915	80807.65	-182694	1	199767.3	-66.13965	9.330617E-010	0.0082124	5
	52	73	6.317385	102624.1	-214151.2	1	237470.9	-64.39563	5.381613E-010	0.0082096	5
	53	75	5.008013	128600.9	-249407.5	1	280610.6	-62.72321	4.775172E-010	0.0082097	5
	54	77	3.945707	160988.8	-288670.7	1	330527.1	-60.85201	-1.41656E-010	0.0081924	5
	55	80	3.158693	195717.6	-328241.8	1	382162.3	-59.19405	2.404055E-010	0.0082055	5
	56	83	2.504006	236876.2	-372499	1	441436.2	-57.54727	-2.76503E-010	0.0081991	5
	57	86	1.998082	279956.5	-418768.3	1	503728.7	-56.23634	1.745121E-010	0.0081536	5
	58	89	1.584686	327556.8	-473073.7	1	575406.1	-55.30122	-9.853325E-011	0.0081812	5
	59	93	1.266892	378119.7	-530735.1	1	651655.1	-54.53221	8.358848E-011	0.0081533	5
	60	97	0.999041	434087.3	-602273.9	1	742405.4	-54.21792	-2.101089E-011	0.0082368	5
