EXPLAIN
TAG	EISPOT
TITLE	LABEL	Potentiostatic EIS	Test &Identifier
DATE	LABEL	9/20/2019	Date
TIME	LABEL	10:37:41	Time
NOTES	NOTES	1	&Notes...
	
PSTAT	PSTAT	REF600-11020	Potentiostat
VDC	POTEN	0.00000E+000	T	DC &Voltage (V)
FREQINIT	QUANT	1.00000E+006	Initial Fre&q. (Hz)
FREQFINAL	QUANT	1.00000E+000	Final Fre&q. (Hz)
PTSPERDEC	QUANT	1.00000E+001	Points/&decade
VAC	QUANT	2.50000E+001	AC &Voltage (mV rms)
AREA	QUANT	1.00000E-002	&Area (cm^2)
CONDIT	TWOPARAM	T	5.00000E+000	0.00000E+000	Conditionin&g	Time(s)	E(V)
DELAY	TWOPARAM	T	5.00000E+000	0.00000E+000	Init. De&lay	Time(s)	Stab.(mV/s)
SPEED	SELECTOR	1	&Optimize for:
ZGUESS	QUANT	1.00000E+004	E&stimated Z (ohms)
OCVCURVE	TABLE	19
	Pt	T	Vf	Vm	Ach	Over
	#	s	V vs. Ref.	V	V	bits
	0	0.258333	6.07259E-003	6.07259E-003	5.70632E-004	...........
	1	0.516667	6.07674E-003	6.28980E-003	5.70399E-004	...........
	2	0.775	6.10233E-003	6.50176E-003	5.68432E-004	...........
	3	1.03333	6.17487E-003	6.69185E-003	5.69732E-004	...........
	4	1.29167	6.30442E-003	6.88081E-003	5.64399E-004	...........
	5	1.55	6.47649E-003	7.08819E-003	5.66766E-004	...........
	6	1.80833	6.66776E-003	7.21200E-003	5.65466E-004	...........
	7	2.06667	6.85906E-003	7.36699E-003	5.70099E-004	...........
	8	2.325	7.03859E-003	7.53711E-003	5.69799E-004	...........
	9	2.58333	7.20428E-003	7.65649E-003	5.66266E-004	...........
	10	2.84167	7.35957E-003	7.78670E-003	5.65666E-004	...........
	11	3.1	7.50605E-003	7.90914E-003	5.71732E-004	...........
	12	3.35833	7.64362E-003	8.02965E-003	5.69932E-004	...........
	13	3.61667	7.77334E-003	8.13528E-003	5.72799E-004	...........
	14	3.875	7.89683E-003	8.26212E-003	5.73699E-004	...........
	15	4.13333	8.01632E-003	8.39140E-003	5.69832E-004	...........
	16	4.39167	8.13526E-003	8.51622E-003	5.69599E-004	...........
	17	4.65	8.25601E-003	8.61494E-003	5.70566E-004	...........
	18	4.90833	8.37688E-003	8.71823E-003	5.65499E-004	...........
EOC	QUANT	0.0083769	Open Circuit (V)
PSTATMODEL	IQUANT	4	Pstat Model
PSTATSECTION	LABEL	REF600-11020	Pstat Section
PSTATSERIALNO	LABEL	11020	Pstat Serial Number
CTRLMODE	IQUANT	1	Control Mode
IESTAB	IQUANT	0	I/E Stability
CASPEED	IQUANT	1	Control Amp Speed
CONVENTION	IQUANT	1	Current Convention
ICHRANGE	IQUANT	2	Ich Range
ICHRANGEMODE	TOGGLE	F	Ich Auto Range
ICHOFFSETENABLE	TOGGLE	T	Ich Offset Enable
ICHOFFSET	QUANT	0	Ich Offset (V)
ICHFILTER	IQUANT	3	Ich Filter
VCHRANGE	IQUANT	2	Vch Range
VCHRANGEMODE	TOGGLE	F	Vch Auto Range
VCHOFFSETENABLE	TOGGLE	T	Vch Offset Enable
VCHOFFSET	QUANT	0	Vch Offset (V)
VCHFILTER	IQUANT	3	Vch Filter
ACHRANGE	IQUANT	2	Ach Range
ACHOFFSETENABLE	TOGGLE	F	Ach Offset Enable
ACHOFFSET	QUANT	0	Ach Offset (V)
ACHFILTER	IQUANT	3	Ach Filter
IERANGELOWERLIMIT	IQUANT	1	I/E Range Lower Limit
IERANGEMODE	TOGGLE	F	I/E AutoRange
IERANGE	IQUANT	6	I/E Range
POSFEEDENABLE	TOGGLE	F	Positive Feedback IR Comp
POSFEEDRESISTANCE	QUANT	0	Positive Feedback Resistance (ohm)
ACHSELECT	IQUANT	0	Ach Select
CABLEID	IQUANT	14	Cable ID
DCCALDATE	LABEL	8/19/2019	DC Calibration Date
ACCALDATE	LABEL	8/19/2019	AC Calibration Date
THERMOSELECT	IQUANT	1	Thermo Select
FRAMEWORKVERSION	QUANT	6.33	Framework Version
INSTRUMENTVERSION	LABEL	3.50	Instrument Version
ZCURVE	TABLE
	Pt	Time	Freq	Zreal	Zimag	Zsig	Zmod	Zphz	Idc	Vdc	IERange
	#	s	Hz	ohm	ohm	V	ohm	°	A	V	#
	0	2	1000078	1674.428	-2299.586	1	2844.61	-53.94001	-2.405843E-007	0.0114237	8
	1	4	794390.6	1891.472	-2632.452	1	3241.523	-54.30197	-6.151743E-007	0.0107908	8
	2	5	630984.4	2152.751	-3086.434	1	3763.032	-55.10468	1.8135E-006	0.0099759	8
	3	6	501234.4	2500.308	-3575.352	1	4362.875	-55.03422	-3.773597E-006	0.0109761	8
	4	8	398109.4	2923.274	-4212.577	1	5127.508	-55.24169	3.485658E-006	0.0095183	8
	5	10	316265.6	3471.998	-4849.377	1	5964.162	-54.39855	-3.544127E-006	0.010826	8
	6	11	251203.1	4196.119	-5624.252	1	7017.095	-53.27427	6.564158E-008	0.0100256	8
	7	13	199546.9	5069.408	-6431.541	1	8189.238	-51.75445	1.436439E-007	0.0100148	8
	8	15	158578.1	6231.759	-7058.931	1	9416.12	-48.56132	4.53677E-006	0.0092379	8
	9	17	125953.1	7575.198	-7742.128	1	10831.63	-45.62439	7.968845E-007	0.0089199	7
	10	18	100078.1	9006.541	-8185.795	1	12170.66	-42.26683	-3.872353E-009	0.0101969	7
	11	20	79453.13	10544.73	-8536.454	1	13566.96	-38.99178	-4.813688E-008	0.0102263	7
	12	21	63140.62	12109	-8685.028	1	14901.6	-35.6495	-3.082922E-008	0.0100533	7
	13	22	50203.12	13640.22	-8685.729	1	16170.88	-32.4879	-4.785138E-008	0.0102229	7
	14	24	39890.62	15125.92	-8549.919	1	17375.11	-29.47728	4.6862E-008	0.0099988	7
	15	25	31640.63	16463.32	-8332.444	1	18451.84	-26.84496	-3.933996E-009	0.0101881	7
	16	26	25171.88	17707.14	-8076.737	1	19462.18	-24.5191	8.386314E-008	0.0098761	7
	17	28	20015.62	18830.47	-7862.47	1	20406	-22.66248	1.403812E-007	0.0098504	7
	18	29	15890.62	19873.55	-7637.062	1	21290.44	-21.0209	-3.092422E-008	0.0100418	7
	19	30	12609.37	20998.58	-7351.184	1	22248.16	-19.29413	1.651386E-008	0.0096596	6
	20	32	10078.13	21876.59	-7344.341	1	23076.49	-18.55778	-9.13127E-009	0.0100524	6
	21	33	8015.625	22808.25	-7408.446	1	23981.27	-17.99454	7.758067E-009	0.0099709	6
	22	34	6328.125	23758.5	-7565.414	1	24933.95	-17.66302	1.608475E-008	0.0096561	6
	23	36	5015.625	24701.71	-7801.066	1	25904.27	-17.52668	1.315534E-009	0.0098708	6
	24	37	3984.375	25682.76	-8131.337	1	26939.25	-17.56814	8.439419E-009	0.0099686	6
	25	38	3170.956	26729.19	-8523.896	1	28055.41	-17.6874	-8.552587E-009	0.0101282	6
	26	40	2527.573	27793.52	-9011.709	1	29217.99	-17.96465	1.690784E-008	0.009651	6
	27	41	1976.103	29083.59	-9635.74	1	30638.25	-18.33065	-3.130009E-009	0.0099786	6
	28	43	1577.524	30327.71	-10254.93	1	32014.58	-18.68231	1.743729E-008	0.0096552	6
	29	44	1265.625	31674.89	-10938.08	1	33510.3	-19.05098	-6.317768E-009	0.009973	6
	30	45	998.264	33190.11	-11790.13	1	35222.02	-19.55658	4.409983E-009	0.0099991	6
	31	47	796.875	34737.93	-12673.23	1	36977.49	-20.04318	1.617587E-008	0.0097523	6
	32	48	627.7902	36516.43	-13688.45	1	38997.73	-20.54888	-8.951789E-009	0.0101866	6
	33	49	505.5147	38269.18	-14697.11	1	40994.33	-21.00907	-7.536367E-009	0.0100714	6
	34	51	397.9953	40333.12	-15940.34	1	43368.83	-21.56478	-1.086172E-009	0.010014	6
	35	52	315.5048	42487.49	-17242.21	1	45852.81	-22.08822	-3.074598E-010	0.010006	6
	36	53	252.4038	44700.72	-18651.23	1	48435.76	-22.64818	-1.199097E-009	0.0100044	6
	37	55	198.6229	47280.69	-20284.41	1	51448.24	-23.22035	-1.558519E-009	0.0100055	6
	38	56	158.3615	49883.29	-22017.9	1	54526.42	-23.8161	-8.107406E-010	0.0100037	6
	39	58	125.558	52736.55	-23999.43	1	57940.63	-24.46941	-1.222646E-009	0.0100092	6
	40	59	100.4464	55683.89	-26237.95	1	61555.88	-25.22956	-7.267993E-010	0.0100056	6
	41	60	79.00281	58816.3	-28792.45	1	65485.59	-26.08322	-2.041999E-009	0.0100005	6
	42	62	63.3446	61385.73	-31783.27	1	69125.86	-27.37346	-9.581875E-010	0.0100041	6
	43	63	49.86702	66985.7	-34271.08	1	75243.54	-27.0951	-1.833887E-009	0.0099956	6
	44	65	39.72458	70864.16	-38443.1	1	80620.1	-28.47939	-1.786751E-009	0.0100055	6
	45	66	31.6723	75163.95	-42792.41	1	86491.67	-29.65377	-1.440416E-009	0.0100031	6
	46	67	24.93351	80967.51	-47592.79	1	93919.17	-30.44706	-8.618342E-010	0.0100035	6
	47	69	19.86229	86790.27	-52935.7	1	101659.9	-31.38013	-4.663953E-012	0.0100108	5
	48	70	15.83615	93553.48	-59777.72	1	111020.9	-32.57729	-3.29393E-009	0.0100029	5
	49	71	12.40079	102412.6	-65563.98	1	121601.7	-32.62715	-3.161088E-009	0.0100087	5
	50	73	9.93114	110366.3	-72677.17	1	132146.5	-33.36525	-6.164627E-010	0.0100027	5
	51	74	7.944915	119480.7	-79992.01	1	143785.8	-33.80219	-2.446387E-009	0.0100067	5
	52	76	6.317385	129881.8	-88563.84	1	157203.1	-34.28931	-6.536417E-010	0.0100006	5
	53	78	5.008013	141790.8	-97940.4	1	172328	-34.63433	-1.607269E-009	0.0100174	5
	54	81	3.945707	154781.5	-108499.3	1	189022.2	-35.02984	-2.754604E-009	0.0099999	5
	55	83	3.158693	168514.3	-119646.7	1	206669.8	-35.3751	-7.036126E-010	0.010014	5
	56	87	2.504006	184047.8	-132556.4	1	226814.4	-35.76248	-2.370263E-009	0.010008	5
	57	89	1.998082	199941.5	-146170.5	1	247674	-36.16927	-1.477161E-009	0.0099727	5
	58	93	1.584686	217609.8	-162625	1	271663.2	-36.77165	-1.710265E-009	0.010034	5
	59	96	1.266892	237463.1	-180797.1	1	298456.6	-37.28453	-1.73932E-009	0.0099733	5
	60	100	0.999041	260108.1	-202226.2	1	329471.8	-37.86399	-9.595444E-010	0.0100482	5
