EXPLAIN
TAG	EISPOT
TITLE	LABEL	Potentiostatic EIS	Test &Identifier
DATE	LABEL	10/4/2019	Date
TIME	LABEL	10:12:16	Time
NOTES	NOTES	2	&Notes...
	
	
PSTAT	PSTAT	REF600-11020	Potentiostat
VDC	POTEN	0.00000E+000	T	DC &Voltage (V)
FREQINIT	QUANT	1.00000E+006	Initial Fre&q. (Hz)
FREQFINAL	QUANT	1.00000E+000	Final Fre&q. (Hz)
PTSPERDEC	QUANT	1.00000E+001	Points/&decade
VAC	QUANT	2.50000E+001	AC &Voltage (mV rms)
AREA	QUANT	1.00000E-002	&Area (cm^2)
CONDIT	TWOPARAM	T	5.00000E+000	0.00000E+000	Conditionin&g	Time(s)	E(V)
DELAY	TWOPARAM	T	5.00000E+000	0.00000E+000	Init. De&lay	Time(s)	Stab.(mV/s)
SPEED	SELECTOR	1	&Optimize for:
ZGUESS	QUANT	1.00000E+004	E&stimated Z (ohms)
OCVCURVE	TABLE	19
	Pt	T	Vf	Vm	Ach	Over
	#	s	V vs. Ref.	V	V	bits
	0	0.258333	-8.67701E-005	-8.67701E-005	5.59466E-004	...........
	1	0.516667	-8.51745E-005	-3.24871E-006	5.57833E-004	...........
	2	0.775	-7.74249E-005	-3.12893E-005	5.54299E-004	...........
	3	1.03333	-6.17882E-005	-3.09496E-005	5.54866E-004	...........
	4	1.29167	-4.50693E-005	-4.87800E-005	5.55633E-004	...........
	5	1.55	-3.58848E-005	-4.88573E-005	5.57532E-004	...........
	6	1.80833	-3.58707E-005	-5.17846E-005	5.63132E-004	...........
	7	2.06667	-4.07959E-005	-5.03787E-005	5.60199E-004	...........
	8	2.325	-4.59467E-005	-4.80297E-005	5.66466E-004	...........
	9	2.58333	-4.89501E-005	-4.77580E-005	5.62699E-004	...........
	10	2.84167	-4.96982E-005	-4.77434E-005	5.61666E-004	...........
	11	3.1	-4.91594E-005	-4.59107E-005	5.62699E-004	...........
	12	3.35833	-4.82741E-005	-4.76944E-005	5.65166E-004	...........
	13	3.61667	-4.75238E-005	-4.59694E-005	5.58732E-004	...........
	14	3.875	-4.70698E-005	-4.81707E-005	5.62232E-004	...........
	15	4.13333	-4.69523E-005	-4.85424E-005	5.68632E-004	...........
	16	4.39167	-4.71183E-005	-4.53967E-005	5.64032E-004	...........
	17	4.65	-4.72655E-005	-4.53454E-005	5.61499E-004	...........
	18	4.90833	-4.70802E-005	-4.80980E-005	5.60032E-004	...........
EOC	QUANT	-4.70802E-005	Open Circuit (V)
PSTATMODEL	IQUANT	4	Pstat Model
PSTATSECTION	LABEL	REF600-11020	Pstat Section
PSTATSERIALNO	LABEL	11020	Pstat Serial Number
CTRLMODE	IQUANT	1	Control Mode
IESTAB	IQUANT	0	I/E Stability
CASPEED	IQUANT	1	Control Amp Speed
CONVENTION	IQUANT	1	Current Convention
ICHRANGE	IQUANT	2	Ich Range
ICHRANGEMODE	TOGGLE	F	Ich Auto Range
ICHOFFSETENABLE	TOGGLE	T	Ich Offset Enable
ICHOFFSET	QUANT	0	Ich Offset (V)
ICHFILTER	IQUANT	3	Ich Filter
VCHRANGE	IQUANT	2	Vch Range
VCHRANGEMODE	TOGGLE	F	Vch Auto Range
VCHOFFSETENABLE	TOGGLE	T	Vch Offset Enable
VCHOFFSET	QUANT	0	Vch Offset (V)
VCHFILTER	IQUANT	3	Vch Filter
ACHRANGE	IQUANT	2	Ach Range
ACHOFFSETENABLE	TOGGLE	F	Ach Offset Enable
ACHOFFSET	QUANT	0	Ach Offset (V)
ACHFILTER	IQUANT	3	Ach Filter
IERANGELOWERLIMIT	IQUANT	1	I/E Range Lower Limit
IERANGEMODE	TOGGLE	F	I/E AutoRange
IERANGE	IQUANT	3	I/E Range
POSFEEDENABLE	TOGGLE	F	Positive Feedback IR Comp
POSFEEDRESISTANCE	QUANT	0	Positive Feedback Resistance (ohm)
ACHSELECT	IQUANT	0	Ach Select
CABLEID	IQUANT	14	Cable ID
DCCALDATE	LABEL	8/19/2019	DC Calibration Date
ACCALDATE	LABEL	8/19/2019	AC Calibration Date
THERMOSELECT	IQUANT	1	Thermo Select
FRAMEWORKVERSION	QUANT	6.33	Framework Version
INSTRUMENTVERSION	LABEL	3.50	Instrument Version
ZCURVE	TABLE
	Pt	Time	Freq	Zreal	Zimag	Zsig	Zmod	Zphz	Idc	Vdc	IERange
	#	s	Hz	ohm	ohm	V	ohm	°	A	V	#
	0	2	1000078	2587.88	-1936.783	1	3232.376	-36.81138	-1.312045E-006	0.0025128	8
	1	3	794390.6	3003.747	-1894.489	1	3551.28	-32.23998	-2.134561E-007	0.0018855	8
	2	4	630984.4	3335.536	-1753.764	1	3768.487	-27.73457	-1.15879E-006	0.0018449	8
	3	6	501234.4	3634.018	-1590.177	1	3966.706	-23.63327	-9.428799E-007	0.0019387	8
	4	7	398109.4	3889.937	-1400.53	1	4134.38	-19.80087	-2.938664E-007	0.0015993	8
	5	9	316265.6	4078.844	-1215.866	1	4256.207	-16.59883	-1.56043E-006	0.0019158	8
	6	10	251203.1	4236.178	-1035.782	1	4360.968	-13.73974	-7.309265E-007	0.001828	8
	7	11	199546.9	4374.343	-901.5776	1	4466.287	-11.64592	6.381618E-007	0.0014889	8
	8	13	158578.1	4436.773	-769.3474	1	4502.983	-9.83741	-6.38039E-007	0.0016654	8
	9	14	125953.1	4499.396	-655.6643	1	4546.918	-8.290939	-3.547451E-008	0.0015168	7
	10	15	100078.1	4541.767	-576.7505	1	4578.241	-7.237147	-2.521985E-008	0.0015614	7
	11	17	79453.13	4586.593	-525.4719	1	4616.596	-6.535706	3.758091E-008	0.0015005	7
	12	18	63140.62	4625.228	-491.7166	1	4651.292	-6.068428	-4.93997E-008	0.0016511	7
	13	19	50203.12	4662.523	-470.4142	1	4686.193	-5.761226	-1.04538E-008	0.0015718	7
	14	21	39890.62	4700.199	-461.153	1	4722.768	-5.603554	-6.747013E-009	0.0015747	7
	15	22	31640.63	4737.067	-465.0073	1	4759.836	-5.606395	7.363425E-008	0.0014056	7
	16	23	25171.88	4774.417	-480.4894	1	4798.534	-5.746803	-6.221865E-008	0.0017398	7
	17	25	20015.62	4816.74	-507.3362	1	4843.384	-6.012664	-2.631688E-008	0.0015492	7
	18	26	15890.62	4858.229	-547.2648	1	4888.956	-6.427102	-8.403498E-009	0.0015985	7
	19	27	12609.37	4904.164	-600.7032	1	4940.816	-6.983284	-1.051942E-008	0.0015704	7
	20	29	10078.13	4951.85	-669.0185	1	4996.839	-7.694343	1.809541E-008	0.0014838	7
	21	30	8015.625	5003.268	-755.6886	1	5060.016	-8.588977	-4.807296E-008	0.0016464	7
	22	31	6328.125	5060.749	-867.4537	1	5134.555	-9.72644	3.857946E-008	0.0015107	7
	23	33	5015.625	5122.352	-1003.849	1	5219.79	-11.08797	1.83564E-008	0.0014667	7
	24	34	3984.375	5189.788	-1171.615	1	5320.393	-12.72149	4.706108E-009	0.0015118	7
	25	35	3170.956	5263.608	-1376.043	1	5440.502	-14.65071	-7.604947E-009	0.0015624	7
	26	37	2527.573	5346.252	-1624.59	1	5587.638	-16.90269	2.132712E-008	0.0014626	7
	27	38	1976.103	5447.85	-1956.8	1	5788.621	-19.75766	-3.03815E-008	0.0015627	7
	28	39	1577.524	5556.72	-2331.706	1	6026.109	-22.76385	9.476526E-008	0.0014088	7
	29	41	1265.625	5677.673	-2777.026	1	6320.431	-26.06388	-5.776931E-008	0.0017259	7
	30	42	998.264	5832.322	-3355.545	1	6728.72	-29.91337	-4.196206E-008	0.0015991	7
	31	44	796.875	6002.906	-4030.677	1	7230.577	-33.87956	1.713871E-008	0.0014698	7
	32	45	627.7902	6208.268	-4905.983	1	7912.728	-38.31698	4.606331E-008	0.0014706	7
	33	46	505.5147	6437.911	-5872.026	1	8713.633	-42.36798	-6.780479E-009	0.0015651	7
	34	48	397.9953	6708.358	-7190.154	1	9833.64	-46.98538	3.830399E-009	0.0015709	7
	35	49	315.5048	7031.856	-8765.37	1	11237.38	-51.26232	1.11288E-009	0.001514	6
	36	50	252.4038	7399.996	-10630.21	1	12952.27	-55.15711	5.802601E-010	0.0015076	6
	37	52	198.6229	7882.26	-13101.41	1	15289.76	-58.96743	8.812924E-010	0.0015106	6
	38	53	158.3615	8449.454	-15988.79	1	18084.1	-62.14528	1.341361E-009	0.0015071	6
	39	54	125.558	9186.025	-19625.84	1	21669.26	-64.9177	1.366777E-009	0.0015109	6
	40	56	100.4464	10093.99	-23905.88	1	25949.56	-67.10864	6.008418E-010	0.0015094	6
	41	57	79.00281	11389.38	-29583.48	1	31700.16	-68.94374	-1.240449E-009	0.0015077	6
	42	58	63.3446	13042.75	-35985.5	1	38276.23	-70.07722	-1.064974E-010	0.0015026	6
	43	60	49.86702	15018.88	-44422.97	1	46893.15	-71.32021	9.201169E-010	0.0015023	6
	44	61	39.72458	17807.67	-53990.6	1	56851.55	-71.74594	1.102562E-009	0.0015089	6
	45	63	31.6723	21424.59	-65538.09	1	68951.09	-71.89729	6.75165E-010	0.0015008	6
	46	64	24.93351	26365.2	-80356.52	1	84571.24	-71.8352	5.045278E-010	0.0015014	6
	47	65	19.86229	32519.08	-97039.4	1	102343.2	-71.47337	2.795076E-010	0.001506	6
	48	67	15.83615	40981.57	-116965.8	1	123937.4	-70.69096	1.731764E-009	0.0015057	5
	49	68	12.40079	51811.55	-141555.9	1	150739.9	-69.89664	1.644062E-009	0.0015113	5
	50	69	9.93114	64855.01	-168451.7	1	180505.3	-68.94297	-3.357134E-010	0.0015161	5
	51	71	7.944915	81948.39	-198983.8	1	215197.8	-67.61645	5.567243E-010	0.0015223	5
	52	73	6.317385	103772.6	-234816.5	1	256724.6	-66.1579	2.210182E-010	0.0015285	5
	53	75	5.008013	130743.9	-275273.8	1	304745.2	-64.59417	3.504903E-010	0.0015143	5
	54	77	3.945707	164539.4	-322088.7	1	361682.7	-62.93972	1.647363E-010	0.0015103	5
	55	80	3.158693	201335.6	-369288	1	420606.3	-61.40081	2.769489E-010	0.0015337	5
	56	83	2.504006	246130.3	-424479.3	1	490675.8	-59.89311	-9.040752E-011	0.0015071	5
	57	86	1.998082	295677.9	-482545	1	565928.5	-58.50225	-4.891912E-011	0.0014901	5
	58	89	1.584686	352820.6	-546072	1	650136.1	-57.13324	7.155933E-011	0.0015519	5
	59	93	1.266892	412620.7	-617933.1	1	743032.4	-56.26725	-6.027698E-011	0.0014829	5
	60	97	0.999041	483461.3	-702243.1	1	852572.7	-55.45441	2.481144E-010	0.001542	5
