EXPLAIN
TAG	EISPOT
TITLE	LABEL	Potentiostatic EIS	Test &Identifier
DATE	LABEL	6/20/2000	Date
TIME	LABEL	8:56:01	Time
NOTES	NOTES	2	&Notes...
	
	
PSTAT	PSTAT	REF600-11020	Potentiostat
VDC	POTEN	0.00000E+000	T	DC &Voltage (V)
FREQINIT	QUANT	1.00000E+006	Initial Fre&q. (Hz)
FREQFINAL	QUANT	1.00000E+000	Final Fre&q. (Hz)
PTSPERDEC	QUANT	1.00000E+001	Points/&decade
VAC	QUANT	2.50000E+001	AC &Voltage (mV rms)
AREA	QUANT	1.00000E-002	&Area (cm^2)
CONDIT	TWOPARAM	T	5.00000E+000	0.00000E+000	Conditionin&g	Time(s)	E(V)
DELAY	TWOPARAM	T	5.00000E+000	0.00000E+000	Init. De&lay	Time(s)	Stab.(mV/s)
SPEED	SELECTOR	0	&Optimize for:
ZGUESS	QUANT	1.00000E+005	E&stimated Z (ohms)
OCVCURVE	TABLE	19
	Pt	T	Vf	Vm	Ach	Over
	#	s	V vs. Ref.	V	V	bits
	0	0.258333	4.37546E-003	4.37546E-003	5.46466E-004	...........
	1	0.516667	4.37449E-003	4.32437E-003	5.41599E-004	...........
	2	0.775	4.36878E-003	4.29077E-003	5.41833E-004	...........
	3	1.03333	4.35361E-003	4.26110E-003	5.31866E-004	...........
	4	1.29167	4.32872E-003	4.24304E-003	5.36366E-004	...........
	5	1.55	4.29927E-003	4.22411E-003	5.34166E-004	...........
	6	1.80833	4.27123E-003	4.21354E-003	5.32866E-004	...........
	7	2.06667	4.24781E-003	4.20220E-003	5.36933E-004	...........
	8	2.325	4.22955E-003	4.19666E-003	5.37966E-004	...........
	9	2.58333	4.21571E-003	4.18791E-003	5.33866E-004	...........
	10	2.84167	4.20514E-003	4.18390E-003	5.37299E-004	...........
	11	3.1	4.19694E-003	4.18545E-003	5.35733E-004	...........
	12	3.35833	4.19087E-003	4.18330E-003	5.38166E-004	...........
	13	3.61667	4.18701E-003	4.18684E-003	5.39599E-004	...........
	14	3.875	4.18498E-003	4.17354E-003	5.38699E-004	...........
	15	4.13333	4.18343E-003	4.17325E-003	5.36433E-004	...........
	16	4.39167	4.18114E-003	4.17831E-003	5.43133E-004	...........
	17	4.65	4.17852E-003	4.17704E-003	5.36999E-004	...........
	18	4.90833	4.17691E-003	4.17886E-003	5.38566E-004	...........
EOC	QUANT	0.0041769	Open Circuit (V)
PSTATMODEL	IQUANT	4	Pstat Model
PSTATSECTION	LABEL	REF600-11020	Pstat Section
PSTATSERIALNO	LABEL	11020	Pstat Serial Number
CTRLMODE	IQUANT	1	Control Mode
IESTAB	IQUANT	0	I/E Stability
CASPEED	IQUANT	1	Control Amp Speed
CONVENTION	IQUANT	1	Current Convention
ICHRANGE	IQUANT	2	Ich Range
ICHRANGEMODE	TOGGLE	F	Ich Auto Range
ICHOFFSETENABLE	TOGGLE	T	Ich Offset Enable
ICHOFFSET	QUANT	0	Ich Offset (V)
ICHFILTER	IQUANT	3	Ich Filter
VCHRANGE	IQUANT	2	Vch Range
VCHRANGEMODE	TOGGLE	F	Vch Auto Range
VCHOFFSETENABLE	TOGGLE	T	Vch Offset Enable
VCHOFFSET	QUANT	0	Vch Offset (V)
VCHFILTER	IQUANT	3	Vch Filter
ACHRANGE	IQUANT	2	Ach Range
ACHOFFSETENABLE	TOGGLE	F	Ach Offset Enable
ACHOFFSET	QUANT	0	Ach Offset (V)
ACHFILTER	IQUANT	3	Ach Filter
IERANGELOWERLIMIT	IQUANT	1	I/E Range Lower Limit
IERANGEMODE	TOGGLE	F	I/E AutoRange
IERANGE	IQUANT	4	I/E Range
POSFEEDENABLE	TOGGLE	F	Positive Feedback IR Comp
POSFEEDRESISTANCE	QUANT	0	Positive Feedback Resistance (ohm)
ACHSELECT	IQUANT	0	Ach Select
CABLEID	IQUANT	14	Cable ID
DCCALDATE	LABEL	8/19/2019	DC Calibration Date
ACCALDATE	LABEL	8/19/2019	AC Calibration Date
THERMOSELECT	IQUANT	1	Thermo Select
FRAMEWORKVERSION	QUANT	6.33	Framework Version
INSTRUMENTVERSION	LABEL	3.50	Instrument Version
ZCURVE	TABLE
	Pt	Time	Freq	Zreal	Zimag	Zsig	Zmod	Zphz	Idc	Vdc	IERange
	#	s	Hz	ohm	ohm	V	ohm	°	A	V	#
	0	1	1000078	1564.112	-458.7137	1	1629.99	-16.34505	9.518713E-006	0.0054825	8
	1	1	794390.6	1621.05	-394.3147	1	1668.319	-13.67148	-6.071734E-006	0.0064283	8
	2	2	630984.4	1662.745	-339.1618	1	1696.983	-11.52887	-3.070928E-006	0.0067352	8
	3	2	501234.4	1696.863	-297.8595	1	1722.807	-9.956	-4.780527E-007	0.005649	8
	4	2	398109.4	1725.545	-255.4558	1	1744.352	-8.421103	-2.74681E-006	0.0058068	8
	5	3	316265.6	1743.794	-221.0887	1	1757.753	-7.225752	6.261258E-006	0.0047069	8
	6	3	251203.1	1760.764	-199.1328	1	1771.988	-6.452425	6.824368E-006	0.0050669	8
	7	3	199546.9	1777.629	-182.5636	1	1786.979	-5.863753	-9.800652E-007	0.0062733	8
	8	4	158578.1	1779.551	-172.2532	1	1787.868	-5.528773	-6.118159E-006	0.0067268	8
	9	4	125953.1	1816.22	-136.6468	1	1821.353	-4.30265	3.464704E-006	8.551504E-005	7
	10	4	100078.1	1827.068	-133.1365	1	1831.912	-4.167716	-2.324876E-007	0.0069144	7
	11	5	79453.13	1839.092	-139.388	1	1844.367	-4.33426	9.071427E-008	0.0046671	7
	12	5	63140.62	1852.123	-147.8381	1	1858.014	-4.563724	6.893849E-007	0.005586	7
	13	5	50203.12	1868.279	-158.5763	1	1874.997	-4.851539	-9.173184E-007	0.0071463	7
	14	5	39890.62	1884.373	-171.3984	1	1892.152	-5.197197	-7.456872E-007	0.0071898	7
	15	6	31640.63	1901.992	-187.4434	1	1911.206	-5.628388	-2.356677E-007	0.0069094	7
	16	6	25171.88	1920.275	-207.0621	1	1931.406	-6.15439	3.87086E-007	0.0044351	7
	17	6	20015.62	1939.274	-230.706	1	1952.949	-6.784315	6.27064E-007	0.0043504	7
	18	7	15890.62	1957.724	-259.3764	1	1974.831	-7.547093	-7.468451E-007	0.0071954	7
	19	7	12609.37	1978.052	-296.0119	1	2000.078	-8.51105	6.895131E-007	0.0055919	7
	20	7	10078.13	1998.522	-340.6875	1	2027.352	-9.6742	-9.192905E-007	0.0071541	7
	21	8	8015.625	2021.832	-394.3285	1	2059.927	-11.03615	8.862447E-007	0.0045807	7
	22	8	6328.125	2047.006	-464.0509	1	2098.946	-12.77292	-8.82823E-007	0.00623	7
	23	8	5015.625	2074.211	-549.9148	1	2145.87	-14.84865	8.37027E-007	0.0051838	7
	24	9	3984.375	2103.686	-654.6899	1	2203.205	-17.28671	9.043721E-007	0.0048397	7
	25	9	3170.956	2134.753	-781.9423	1	2273.457	-20.11736	-8.810837E-007	0.00623	7
	26	9	2527.573	2170.238	-939.7141	1	2364.951	-23.41264	5.219499E-007	0.0059147	7
	27	10	1976.103	2214.173	-1152.225	1	2496.034	-27.49186	-1.040577E-006	0.0070286	7
	28	10	1577.524	2259.902	-1397.693	1	2657.198	-31.73575	7.39467E-008	0.0065574	7
	29	10	1265.625	2315	-1686.989	1	2864.465	-36.08159	-1.027567E-006	0.006702	7
	30	10	998.264	2386.634	-2077.416	1	3164.124	-41.03754	5.2173E-007	0.0059106	7
	31	11	796.875	2469.719	-2536.448	1	3540.208	-45.76367	8.88414E-007	0.0045689	7
	32	11	627.7902	2582.446	-3129.104	1	4057.132	-50.46718	-7.472901E-007	0.0071801	7
	33	11	505.5147	2706.907	-3799.88	1	4665.451	-54.5352	6.306024E-007	0.0043341	7
	34	12	397.9953	2891.267	-4698.389	1	5516.728	-58.39293	-1.507692E-009	0.0058078	7
	35	12	315.5048	3119.345	-5776.337	1	6564.784	-61.63001	-2.39322E-009	0.0058092	7
	36	12	252.4038	3402.165	-7038.401	1	7817.532	-64.20219	-1.578782E-009	0.0058095	7
	37	13	198.6229	3798.561	-8693.913	1	9487.528	-66.39843	-2.095666E-009	0.0058122	7
	38	13	158.3615	4292.468	-10601.65	1	11437.67	-67.95763	-1.84984E-010	0.0057398	6
	39	13	125.558	4945.095	-12964.43	1	13875.54	-69.12138	-2.348007E-011	0.0057438	6
	40	14	100.4464	5767.305	-15706.11	1	16731.52	-69.83669	-1.253154E-009	0.0057386	6
	41	14	79.00281	6890.648	-19261.64	1	20457.07	-70.31587	-7.577977E-010	0.0057364	6
	42	14	63.3446	8221.547	-22963.55	1	24390.96	-70.30132	-8.443808E-010	0.0057392	6
	43	15	49.86702	10127.2	-27992.58	1	29768.18	-70.11081	-6.789144E-010	0.0057384	6
	44	15	39.72458	12394.42	-33726.97	1	35932.3	-69.82198	5.066836E-011	0.0057367	6
	45	15	31.6723	15237.6	-40323.51	1	43106.49	-69.29923	1.436452E-011	0.0057349	6
	46	16	24.93351	19018.74	-48418.47	1	52019.82	-68.55513	-1.391661E-009	0.0057396	6
	47	16	19.86229	23364.66	-57388.61	1	61962.57	-67.84726	-1.312587E-009	0.0057408	6
	48	16	15.83615	28726.03	-68346.83	1	74138.2	-67.20309	1.087541E-009	0.0057425	6
	49	16	12.40079	35826.22	-81375.75	1	88913.05	-66.23818	-1.090448E-009	0.0057406	6
	50	17	9.93114	43267.66	-94634.04	1	104056.2	-65.42963	-1.153419E-009	0.0057362	5
	51	17	7.944915	52513.73	-110394.5	1	122248.3	-64.55997	-1.585179E-009	0.0057438	5
	52	18	6.317385	64165.2	-129107.7	1	144173.4	-63.5731	-7.167952E-010	0.0057602	5
	53	19	5.008013	78078.52	-150638.5	1	169670.9	-62.60152	-7.302495E-011	0.0057466	5
	54	20	3.945707	94910.13	-175786.8	1	199772.2	-61.63467	-2.001803E-010	0.0057405	5
	55	21	3.158693	113506	-202474.2	1	232119.4	-60.72524	1.584321E-010	0.0057213	5
	56	23	2.504006	135507.3	-233993.5	1	270398.2	-59.92456	2.174923E-010	0.0057281	5
	57	24	1.998082	159926.5	-268105.3	1	312180.9	-59.18366	-1.08665E-010	0.0056929	5
	58	26	1.584686	187969.9	-309437.8	1	362055.9	-58.72315	-1.528163E-010	0.0056816	5
	59	28	1.266892	217709.9	-354305.5	1	415848.5	-58.43055	-5.577036E-011	0.0057117	5
	60	30	0.999041	253817.9	-409444.8	1	481734.9	-58.20491	1.642353E-012	0.0057449	5
