EXPLAIN
TAG	EISPOT
TITLE	LABEL	Potentiostatic IDE	Test &Identifier
DATE	LABEL	9/8/2019	Date
TIME	LABEL	8:50:28	Time
NOTES	NOTES	1	&Notes...
	
PSTAT	PSTAT	REF600-11020	Potentiostat
VDC	POTEN	0.00000E+000	T	DC &Voltage (V)
FREQINIT	QUANT	1.00000E+006	Initial Fre&q. (Hz)
FREQFINAL	QUANT	1.00000E+000	Final Fre&q. (Hz)
PTSPERDEC	QUANT	1.00000E+001	Points/&decade
VAC	QUANT	2.50000E+001	AC &Voltage (mV rms)
AREA	QUANT	1.00000E-002	&Area (cm^2)
CONDIT	TWOPARAM	T	5.00000E+000	0.00000E+000	Conditionin&g	Time(s)	E(V)
DELAY	TWOPARAM	T	5.00000E+000	0.00000E+000	Init. De&lay	Time(s)	Stab.(mV/s)
SPEED	SELECTOR	1	&Optimize for:
ZGUESS	QUANT	1.00000E+007	E&stimated Z (ohms)
OCVCURVE	TABLE	19
	Pt	T	Vf	Vm	Ach	Over
	#	s	V vs. Ref.	V	V	bits
	0	0.258333	1.40695E-002	1.40695E-002	6.36365E-004	...........
	1	0.516667	1.40811E-002	1.46764E-002	6.35498E-004	...........
	2	0.775	1.41523E-002	1.52505E-002	6.34498E-004	...........
	3	1.03333	1.43535E-002	1.57993E-002	6.37665E-004	...........
	4	1.29167	1.47132E-002	1.63264E-002	6.32498E-004	...........
	5	1.55	1.51912E-002	1.68274E-002	6.32965E-004	...........
	6	1.80833	1.57211E-002	1.73075E-002	6.32198E-004	...........
	7	2.06667	1.62536E-002	1.77645E-002	6.39665E-004	...........
	8	2.325	1.67660E-002	1.82124E-002	6.35831E-004	...........
	9	2.58333	1.72535E-002	1.86355E-002	6.41531E-004	...........
	10	2.84167	1.77184E-002	1.90476E-002	6.40331E-004	...........
	11	3.1	1.81639E-002	1.94456E-002	6.42498E-004	...........
	12	3.35833	1.85925E-002	1.98330E-002	6.37598E-004	...........
	13	3.61667	1.90064E-002	2.02253E-002	6.34531E-004	...........
	14	3.875	1.94082E-002	2.05787E-002	6.43765E-004	...........
	15	4.13333	1.97989E-002	2.09337E-002	6.35398E-004	...........
	16	4.39167	2.01782E-002	2.12945E-002	6.41864E-004	...........
	17	4.65	2.05469E-002	2.16544E-002	6.42798E-004	...........
	18	4.90833	2.09081E-002	2.19735E-002	6.38098E-004	...........
EOC	QUANT	0.0209081	Open Circuit (V)
PSTATMODEL	IQUANT	4	Pstat Model
PSTATSECTION	LABEL	REF600-11020	Pstat Section
PSTATSERIALNO	LABEL	11020	Pstat Serial Number
CTRLMODE	IQUANT	1	Control Mode
IESTAB	IQUANT	0	I/E Stability
CASPEED	IQUANT	1	Control Amp Speed
CONVENTION	IQUANT	1	Current Convention
ICHRANGE	IQUANT	2	Ich Range
ICHRANGEMODE	TOGGLE	F	Ich Auto Range
ICHOFFSETENABLE	TOGGLE	T	Ich Offset Enable
ICHOFFSET	QUANT	0	Ich Offset (V)
ICHFILTER	IQUANT	3	Ich Filter
VCHRANGE	IQUANT	2	Vch Range
VCHRANGEMODE	TOGGLE	F	Vch Auto Range
VCHOFFSETENABLE	TOGGLE	T	Vch Offset Enable
VCHOFFSET	QUANT	0	Vch Offset (V)
VCHFILTER	IQUANT	3	Vch Filter
ACHRANGE	IQUANT	2	Ach Range
ACHOFFSETENABLE	TOGGLE	F	Ach Offset Enable
ACHOFFSET	QUANT	0	Ach Offset (V)
ACHFILTER	IQUANT	3	Ach Filter
IERANGELOWERLIMIT	IQUANT	1	I/E Range Lower Limit
IERANGEMODE	TOGGLE	F	I/E AutoRange
IERANGE	IQUANT	3	I/E Range
POSFEEDENABLE	TOGGLE	F	Positive Feedback IR Comp
POSFEEDRESISTANCE	QUANT	0	Positive Feedback Resistance (ohm)
ACHSELECT	IQUANT	0	Ach Select
CABLEID	IQUANT	14	Cable ID
DCCALDATE	LABEL	8/19/2019	DC Calibration Date
ACCALDATE	LABEL	8/19/2019	AC Calibration Date
THERMOSELECT	IQUANT	1	Thermo Select
FRAMEWORKVERSION	QUANT	6.33	Framework Version
INSTRUMENTVERSION	LABEL	3.50	Instrument Version
ZCURVE	TABLE
	Pt	Time	Freq	Zreal	Zimag	Zsig	Zmod	Zphz	Idc	Vdc	IERange
	#	s	Hz	ohm	ohm	V	ohm	°	A	V	#
	0	1	1000078	2544.85	-1542.007	1	2975.575	-31.21303	-7.787146E-006	0.024909	8
	1	3	794390.6	2860.999	-1428.203	1	3197.667	-26.52824	1.371235E-006	0.0235247	8
	2	4	630984.4	3093.957	-1277.843	1	3347.455	-22.44123	2.41676E-006	0.0221737	8
	3	6	501234.4	3280.22	-1126.291	1	3468.195	-18.95034	-5.09463E-006	0.023827	8
	4	7	398109.4	3417.257	-953.555	1	3547.804	-15.59129	3.263884E-006	0.0222094	8
	5	8	316265.6	3538.571	-852.5997	1	3639.836	-13.5469	-1.148625E-007	0.0225539	8
	6	10	251203.1	3608.476	-722.2246	1	3680.042	-11.31801	4.532812E-006	0.0218428	8
	7	11	199546.9	3673.29	-642.5496	1	3729.065	-9.92207	1.549755E-006	0.0222257	8
	8	13	158578.1	3722.138	-540.5957	1	3761.191	-8.26374	-1.907527E-006	0.023014	8
	9	14	125953.1	3784.403	-462.1726	1	3812.52	-6.962803	-2.681121E-007	0.0229358	7
	10	16	100078.1	3811.328	-419.0247	1	3834.293	-6.27401	-3.632605E-008	0.0226409	7
	11	17	79453.13	3841.859	-403.4462	1	3862.984	-5.994846	-6.006055E-008	0.0227439	7
	12	18	63140.62	3875.625	-401.177	1	3896.334	-5.909801	-2.72615E-009	0.0225655	7
	13	20	50203.12	3907.243	-408.5567	1	3928.545	-5.969379	8.242139E-008	0.0224767	7
	14	21	39890.62	3940.298	-427.4395	1	3963.415	-6.191178	-5.804153E-008	0.0227416	7
	15	22	31640.63	3981.3	-451.4961	1	4006.819	-6.469941	-2.326801E-008	0.0226145	7
	16	24	25171.88	4022.169	-489.2686	1	4051.818	-6.935555	9.739062E-008	0.0224219	7
	17	25	20015.62	4067.084	-538.057	1	4102.521	-7.536211	-3.44477E-008	0.0226281	7
	18	26	15890.62	4115.146	-597.6254	1	4158.315	-8.263057	7.889278E-008	0.0225886	7
	19	28	12609.37	4172.113	-675.3252	1	4226.416	-9.194517	-7.571892E-008	0.0227291	7
	20	29	10078.13	4231.3	-765.1014	1	4299.917	-10.24944	-5.683511E-008	0.0227337	7
	21	30	8015.625	4299.415	-874.8425	1	4387.518	-11.50149	-3.512744E-008	0.0226231	7
	22	32	6328.125	4377.17	-1009.877	1	4492.156	-12.99165	-1.543208E-009	0.0225568	7
	23	33	5015.625	4462.683	-1170.53	1	4613.64	-14.69721	-4.511321E-008	0.0227585	7
	24	34	3984.375	4559.251	-1361.774	1	4758.277	-16.63003	-4.601957E-008	0.0227574	7
	25	36	3170.956	4668.576	-1588.421	1	4931.397	-18.79019	-4.574922E-008	0.0226652	7
	26	37	2527.573	4791.083	-1856.257	1	5138.108	-21.17836	3.864665E-008	0.0225871	7
	27	38	1976.103	4945.676	-2207.708	1	5416.059	-24.05558	-2.924383E-008	0.0227288	7
	28	40	1577.524	5105.422	-2594.252	1	5726.734	-26.93679	1.61974E-009	0.0225539	7
	29	41	1265.625	5288.602	-3043.334	1	6101.737	-29.91834	9.858607E-008	0.0224151	7
	30	42	998.264	5506.305	-3625.003	1	6592.422	-33.35838	-3.909328E-008	0.022764	7
	31	44	796.875	5751.606	-4291.653	1	7176.298	-36.72905	-4.423497E-008	0.0227644	7
	32	45	627.7902	6043.243	-5139.126	1	7932.931	-40.37758	-7.590696E-008	0.0227335	7
	33	46	505.5147	6362.196	-6072.302	1	8794.907	-43.66447	-5.345044E-008	0.0226533	7
	34	48	397.9953	6746.979	-7311.743	1	9949.04	-47.30043	5.568652E-009	0.0226375	7
	35	49	315.5048	7196.789	-8786.33	1	11357.52	-50.67946	7.753413E-010	0.0225783	6
	36	50	252.4038	7703.787	-10507.69	1	13029.19	-53.75274	-3.329287E-011	0.022573	6
	37	52	198.6229	8352.837	-12764.01	1	15254.18	-56.79905	3.64042E-010	0.022575	6
	38	53	158.3615	9096.665	-15367	1	17857.61	-59.37613	3.42351E-010	0.0225735	6
	39	54	125.558	10038.16	-18613.72	1	21147.94	-61.66255	-6.535078E-011	0.022575	6
	40	56	100.4464	11178.53	-22391.53	1	25026.79	-63.47024	6.240578E-010	0.0225708	6
	41	57	79.00281	12658.33	-27267.11	1	30062.08	-65.09765	-8.185136E-010	0.0225747	6
	42	58	63.3446	14608.5	-32532.51	1	35661.92	-65.81786	-1.974454E-010	0.0225717	6
	43	60	49.86702	16826.7	-40175.25	1	43556.72	-67.27448	-8.390911E-010	0.0225716	6
	44	61	39.72458	19680.38	-48069.46	1	51942.18	-67.73505	1.45802E-010	0.0225794	6
	45	62	31.6723	23429.36	-57918.88	1	62478.25	-67.97567	-3.17374E-010	0.0225714	6
	46	64	24.93351	28292.37	-70139.72	1	75630.94	-68.03225	-9.124338E-010	0.0225664	6
	47	65	19.86229	34336.41	-84008.14	1	90754.38	-67.76884	-5.602098E-010	0.0225742	6
	48	66	15.83615	42558.69	-100066.6	1	108740.8	-66.95977	-1.772387E-009	0.022579	5
	49	68	12.40079	52968.29	-120131.6	1	131290.7	-66.20642	4.970879E-011	0.0225729	5
	50	69	9.93114	65670.58	-141693.9	1	156172.3	-65.1338	-9.739394E-010	0.0225791	5
	51	71	7.944915	80349.05	-165092.4	1	183606.9	-64.04822	-1.749882E-009	0.0225776	5
	52	72	6.317385	100470	-193314.7	1	217864.2	-62.53808	-1.268435E-009	0.0225946	5
	53	74	5.008013	124816.8	-223036	1	255586.1	-60.76747	-4.093182E-010	0.0225834	5
	54	77	3.945707	154528.5	-257755.4	1	300527.7	-59.05663	-1.05519E-009	0.0225694	5
	55	80	3.158693	187030.7	-293154.4	1	347735.5	-57.46237	-6.042614E-010	0.0225847	5
	56	83	2.504006	226750.5	-333095.8	1	402949.9	-55.75545	-1.367062E-009	0.0225763	5
	57	86	1.998082	269919.4	-372479.5	1	459997.3	-54.07081	-7.045066E-010	0.0225366	5
	58	89	1.584686	320082.8	-419091.3	1	527342.9	-52.62906	-9.977482E-010	0.0225399	5
	59	92	1.266892	372376.7	-465262.5	1	595930.8	-51.32767	-5.16873E-010	0.0225459	5
	60	97	0.999041	435749.8	-521371.2	1	679489.4	-50.11191	-1.048128E-009	0.0225817	5
