EXPLAIN
TAG	EISPOT
TITLE	LABEL	Potentiostatic EIS	Test &Identifier
DATE	LABEL	11/12/2019	Date
TIME	LABEL	21:28:41	Time
NOTES	NOTES	3	&Notes...
	
	
	
PSTAT	PSTAT	REF600-11020	Potentiostat
VDC	POTEN	0.00000E+000	T	DC &Voltage (V)
FREQINIT	QUANT	1.00000E+006	Initial Fre&q. (Hz)
FREQFINAL	QUANT	1.00000E+000	Final Fre&q. (Hz)
PTSPERDEC	QUANT	1.00000E+001	Points/&decade
VAC	QUANT	2.50000E+001	AC &Voltage (mV rms)
AREA	QUANT	1.00000E-002	&Area (cm^2)
CONDIT	TWOPARAM	T	5.00000E+000	0.00000E+000	Conditionin&g	Time(s)	E(V)
DELAY	TWOPARAM	T	5.00000E+000	0.00000E+000	Init. De&lay	Time(s)	Stab.(mV/s)
SPEED	SELECTOR	1	&Optimize for:
ZGUESS	QUANT	1.00000E+005	E&stimated Z (ohms)
OCVCURVE	TABLE	19
	Pt	T	Vf	Vm	Ach	Over
	#	s	V vs. Ref.	V	V	bits
	0	0.258333	3.84811E-003	3.84811E-003	5.71099E-004	...........
	1	0.516667	3.84653E-003	3.76518E-003	5.73699E-004	...........
	2	0.775	3.83740E-003	3.71794E-003	5.76132E-004	...........
	3	1.03333	3.81360E-003	3.67410E-003	5.77032E-004	...........
	4	1.29167	3.77546E-003	3.65715E-003	5.72999E-004	...........
	5	1.55	3.73812E-003	3.95375E-003	5.74999E-004	...........
	6	1.80833	3.72588E-003	3.68816E-003	5.74932E-004	...........
	7	2.06667	3.72961E-003	3.09078E-003	5.72599E-004	...........
	8	2.325	3.68313E-003	3.12305E-003	5.72732E-004	...........
	9	2.58333	3.54637E-003	3.28502E-003	5.69899E-004	...........
	10	2.84167	3.37994E-003	3.28504E-003	5.82632E-004	...........
	11	3.1	3.27214E-003	3.28425E-003	5.84399E-004	...........
	12	3.35833	3.24242E-003	3.30323E-003	5.75966E-004	...........
	13	3.61667	3.25462E-003	3.26468E-003	5.69132E-004	...........
	14	3.875	3.27116E-003	3.20420E-003	5.72132E-004	...........
	15	4.13333	3.27054E-003	3.10715E-003	5.77499E-004	...........
	16	4.39167	3.25239E-003	3.49947E-003	5.69732E-004	...........
	17	4.65	3.24777E-003	3.52320E-003	5.75332E-004	...........
	18	4.90833	3.29441E-003	3.65677E-003	5.74466E-004	...........
EOC	QUANT	0.0032944	Open Circuit (V)
PSTATMODEL	IQUANT	4	Pstat Model
PSTATSECTION	LABEL	REF600-11020	Pstat Section
PSTATSERIALNO	LABEL	11020	Pstat Serial Number
CTRLMODE	IQUANT	1	Control Mode
IESTAB	IQUANT	0	I/E Stability
CASPEED	IQUANT	1	Control Amp Speed
CONVENTION	IQUANT	1	Current Convention
ICHRANGE	IQUANT	2	Ich Range
ICHRANGEMODE	TOGGLE	F	Ich Auto Range
ICHOFFSETENABLE	TOGGLE	T	Ich Offset Enable
ICHOFFSET	QUANT	0	Ich Offset (V)
ICHFILTER	IQUANT	3	Ich Filter
VCHRANGE	IQUANT	2	Vch Range
VCHRANGEMODE	TOGGLE	F	Vch Auto Range
VCHOFFSETENABLE	TOGGLE	T	Vch Offset Enable
VCHOFFSET	QUANT	0	Vch Offset (V)
VCHFILTER	IQUANT	3	Vch Filter
ACHRANGE	IQUANT	2	Ach Range
ACHOFFSETENABLE	TOGGLE	F	Ach Offset Enable
ACHOFFSET	QUANT	0	Ach Offset (V)
ACHFILTER	IQUANT	3	Ach Filter
IERANGELOWERLIMIT	IQUANT	1	I/E Range Lower Limit
IERANGEMODE	TOGGLE	F	I/E AutoRange
IERANGE	IQUANT	4	I/E Range
POSFEEDENABLE	TOGGLE	F	Positive Feedback IR Comp
POSFEEDRESISTANCE	QUANT	0	Positive Feedback Resistance (ohm)
ACHSELECT	IQUANT	0	Ach Select
CABLEID	IQUANT	14	Cable ID
DCCALDATE	LABEL	8/19/2019	DC Calibration Date
ACCALDATE	LABEL	8/19/2019	AC Calibration Date
THERMOSELECT	IQUANT	1	Thermo Select
FRAMEWORKVERSION	QUANT	6.33	Framework Version
INSTRUMENTVERSION	LABEL	3.50	Instrument Version
ZCURVE	TABLE
	Pt	Time	Freq	Zreal	Zimag	Zsig	Zmod	Zphz	Idc	Vdc	IERange
	#	s	Hz	ohm	ohm	V	ohm	°	A	V	#
	0	1	1000078	1222.307	-2264.254	1	2573.108	-61.6386	-1.372479E-006	0.0051055	8
	1	3	794390.6	1407.924	-2690.604	1	3036.709	-62.3781	7.511866E-006	0.0043233	8
	2	4	630984.4	1659.039	-3191.736	1	3597.164	-62.53495	5.826536E-006	0.0042029	8
	3	6	501234.4	1960.671	-3781.526	1	4259.597	-62.59386	-5.434431E-006	0.0053004	8
	4	7	398109.4	2341.095	-4472.848	1	5048.475	-62.37238	-9.651346E-007	0.0046478	8
	5	8	316265.6	2857.23	-5249.635	1	5976.825	-61.44178	5.545225E-006	0.0041797	8
	6	10	251203.1	3470.978	-6139.392	1	7052.646	-60.51784	6.292305E-006	0.0041345	8
	7	12	199546.9	4208.405	-7102.825	1	8255.955	-59.35337	6.6433E-007	0.0051702	8
	8	14	158578.1	5060.308	-8158.028	1	9600.01	-58.18927	-4.435145E-008	0.004531	8
	9	15	125953.1	6274.567	-9234.641	1	11164.62	-55.80547	-3.328298E-006	0.0089004	7
	10	17	100078.1	7341.634	-10467.36	1	12785.35	-54.95481	8.266415E-007	0.0027952	7
	11	19	79453.13	8661.732	-11845.76	1	14674.72	-53.82536	1.075376E-006	0.0028379	7
	12	20	63140.62	10031.46	-13191.31	1	16572.29	-52.74848	1.261343E-007	0.0058278	7
	13	21	50203.12	11499.3	-15060.03	1	18948.31	-52.63594	1.218304E-006	0.0030599	7
	14	23	39890.62	13226.59	-17093.5	1	21613.21	-52.26805	-4.294772E-007	0.0039477	7
	15	24	31640.63	15136.31	-19430.87	1	24630.6	-52.08204	-1.361871E-006	0.0060404	7
	16	26	25171.88	17427.71	-22319.98	1	28317.96	-52.01685	1.176842E-006	0.0038841	7
	17	27	20015.62	20317.79	-25282.89	1	32435.13	-51.21402	-6.422855E-007	0.0065447	7
	18	28	15890.62	23981.68	-29021.39	1	37647.87	-50.43155	1.277016E-007	0.0058253	7
	19	30	12609.37	28963.4	-33174.55	1	44038.96	-48.87706	2.000144E-007	0.00313	6
	20	31	10078.13	34383.45	-37107.91	1	50588.72	-47.18243	8.073478E-008	0.0018702	6
	21	33	8015.625	41223.2	-40628.03	1	57879.09	-44.58339	1.998875E-007	0.003127	6
	22	34	6328.125	49259.6	-43559.66	1	65756.77	-41.48593	1.336512E-007	0.0016339	6
	23	36	5015.625	57910.52	-45337	1	73546.39	-38.05669	1.744749E-007	0.0039565	6
	24	38	3984.375	66953.06	-45980.8	1	81221.59	-34.47979	1.962317E-007	0.0020134	6
	25	39	3170.956	75450.85	-44645.9	1	87670.34	-30.61372	-6.411857E-008	0.0074585	6
	26	41	2527.573	83417.09	-42558.61	1	93646.39	-27.03024	-2.209732E-007	0.0078901	6
	27	43	1976.103	92241.47	-40172.16	1	100609.6	-23.53365	1.743393E-007	0.0039591	6
	28	44	1577.524	97333.9	-35946.55	1	103759.5	-20.26979	-4.594579E-008	0.0031078	6
	29	46	1265.625	103049.6	-32141.08	1	107945.7	-17.32266	1.196982E-008	0.001699	5
	30	48	998.264	106667.2	-29195.78	1	110590.6	-15.30747	1.932976E-008	0.0035543	5
	31	49	796.875	109519.9	-27042.79	1	112809.3	-13.87009	1.541318E-008	0.004527	5
	32	50	627.7902	112327.6	-25675.17	1	115224.6	-12.87514	6.245194E-009	0.0020598	5
	33	52	505.5147	114445.2	-24909.87	1	117124.7	-12.27935	1.980175E-008	0.0035564	5
	34	53	397.9953	115829.3	-24866.03	1	118468.3	-12.11626	5.877501E-010	0.0047243	5
	35	55	315.5048	118098	-25774.12	1	120877.8	-12.31139	4.44787E-010	0.0047269	5
	36	56	252.4038	120027.1	-27355.97	1	123105.1	-12.83925	7.317463E-010	0.0047265	5
	37	57	198.6229	122071.4	-29828.76	1	125663	-13.73143	7.762408E-010	0.0047302	5
	38	59	158.3615	125158	-33086.91	1	129457.6	-14.80801	1.053173E-009	0.0047279	5
	39	60	125.558	128243.3	-37454.25	1	133600.7	-16.28077	6.038416E-010	0.0047377	5
	40	62	100.4464	131950.8	-42424.41	1	138603.2	-17.82347	6.158551E-010	0.004723	5
	41	63	79.00281	136390.7	-49196.02	1	144992	-19.83433	3.217868E-010	0.0047215	5
	42	65	63.3446	137945.6	-56074.28	1	148907.1	-22.12152	1.768668E-010	0.0047193	5
	43	67	49.86702	146430.6	-64417.6	1	159973.5	-23.74561	4.036058E-010	0.0047141	5
	44	68	39.72458	154080.7	-73486.2	1	170707.6	-25.49803	6.47677E-010	0.0047338	5
	45	70	31.6723	161487	-84905.13	1	182447.1	-27.73408	2.616414E-013	0.0047186	5
	46	71	24.93351	172520.9	-97246.6	1	198041.3	-29.40908	8.980047E-011	0.0047239	5
	47	73	19.86229	183208.4	-110330.5	1	213864.8	-31.05691	7.775844E-010	0.0047262	5
	48	74	15.83615	193298.2	-127831.5	1	231743.6	-33.47736	1.517794E-010	0.0047252	5
	49	75	12.40079	212204.3	-145680.1	1	257397.2	-34.46993	3.454195E-010	0.0047276	5
	50	77	9.93114	227226.4	-163665.9	1	280032.8	-35.76434	6.934148E-010	0.0047289	5
	51	78	7.944915	244920.2	-185469.1	1	307220.9	-37.13531	-2.342938E-010	0.0047192	5
	52	80	6.317385	267861.4	-209721.8	1	340195.5	-38.05914	1.337217E-010	0.0047128	5
	53	82	5.008013	292300	-238758.2	1	377418.5	-39.24284	3.417834E-010	0.004738	5
	54	85	3.945707	321438.9	-271000.7	1	420433.5	-40.13378	-5.808368E-011	0.0047213	5
	55	87	3.158693	351137.7	-306789.7	1	466280.6	-41.14378	3.28918E-010	0.004732	5
	56	91	2.504006	387031.9	-348731.3	1	520967.6	-42.02013	2.896649E-011	0.0047088	5
	57	94	1.998082	423101.7	-395389.3	1	579092.2	-43.06083	-4.714524E-010	0.004752	5
	58	97	1.584686	470185.4	-449214.4	1	650282.9	-43.69334	2.876288E-010	0.0047267	5
	59	100	1.266892	518133.1	-506763.8	1	724756.2	-44.36444	1.666762E-010	0.0047567	5
	60	105	0.999041	578718.9	-579716.1	1	819137.5	-45.04932	-1.579092E-011	0.0046748	5
