EXPLAIN
TAG	EISPOT
TITLE	LABEL	Potentiostatic IDE	Test &Identifier
DATE	LABEL	9/12/2019	Date
TIME	LABEL	8:25:47	Time
NOTES	NOTES	1	&Notes...
	
PSTAT	PSTAT	REF600-11020	Potentiostat
VDC	POTEN	0.00000E+000	T	DC &Voltage (V)
FREQINIT	QUANT	1.00000E+006	Initial Fre&q. (Hz)
FREQFINAL	QUANT	1.00000E+000	Final Fre&q. (Hz)
PTSPERDEC	QUANT	1.00000E+001	Points/&decade
VAC	QUANT	2.50000E+001	AC &Voltage (mV rms)
AREA	QUANT	1.00000E-002	&Area (cm^2)
CONDIT	TWOPARAM	T	5.00000E+000	0.00000E+000	Conditionin&g	Time(s)	E(V)
DELAY	TWOPARAM	T	5.00000E+000	0.00000E+000	Init. De&lay	Time(s)	Stab.(mV/s)
SPEED	SELECTOR	1	&Optimize for:
ZGUESS	QUANT	1.00000E+007	E&stimated Z (ohms)
OCVCURVE	TABLE	19
	Pt	T	Vf	Vm	Ach	Over
	#	s	V vs. Ref.	V	V	bits
	0	0.258333	2.00467E-003	2.00467E-003	5.45933E-004	...........
	1	0.516667	2.00288E-003	1.91126E-003	5.38433E-004	...........
	2	0.775	1.99213E-003	1.83359E-003	5.44733E-004	...........
	3	1.03333	1.96266E-003	1.77198E-003	5.39633E-004	...........
	4	1.29167	1.91243E-003	1.71748E-003	5.43999E-004	...........
	5	1.55	1.85009E-003	1.67081E-003	5.42299E-004	...........
	6	1.80833	1.78673E-003	1.62658E-003	5.40933E-004	...........
	7	2.06667	1.72879E-003	1.58506E-003	5.33500E-004	...........
	8	2.325	1.67762E-003	1.54918E-003	5.36166E-004	...........
	9	2.58333	1.63215E-003	1.51401E-003	5.38399E-004	...........
	10	2.84167	1.59103E-003	1.48059E-003	5.37199E-004	...........
	11	3.1	1.55325E-003	1.45269E-003	5.34933E-004	...........
	12	3.35833	1.51825E-003	1.42374E-003	5.39099E-004	...........
	13	3.61667	1.48570E-003	1.39352E-003	5.39633E-004	...........
	14	3.875	1.45506E-003	1.36757E-003	5.38099E-004	...........
	15	4.13333	1.42567E-003	1.33808E-003	5.39433E-004	...........
	16	4.39167	1.39716E-003	1.31786E-003	5.36399E-004	...........
	17	4.65	1.36970E-003	1.29315E-003	5.41133E-004	...........
	18	4.90833	1.34370E-003	1.27275E-003	5.43999E-004	...........
EOC	QUANT	0.0013437	Open Circuit (V)
PSTATMODEL	IQUANT	4	Pstat Model
PSTATSECTION	LABEL	REF600-11020	Pstat Section
PSTATSERIALNO	LABEL	11020	Pstat Serial Number
CTRLMODE	IQUANT	1	Control Mode
IESTAB	IQUANT	0	I/E Stability
CASPEED	IQUANT	1	Control Amp Speed
CONVENTION	IQUANT	1	Current Convention
ICHRANGE	IQUANT	2	Ich Range
ICHRANGEMODE	TOGGLE	F	Ich Auto Range
ICHOFFSETENABLE	TOGGLE	T	Ich Offset Enable
ICHOFFSET	QUANT	0	Ich Offset (V)
ICHFILTER	IQUANT	3	Ich Filter
VCHRANGE	IQUANT	2	Vch Range
VCHRANGEMODE	TOGGLE	F	Vch Auto Range
VCHOFFSETENABLE	TOGGLE	T	Vch Offset Enable
VCHOFFSET	QUANT	0	Vch Offset (V)
VCHFILTER	IQUANT	3	Vch Filter
ACHRANGE	IQUANT	2	Ach Range
ACHOFFSETENABLE	TOGGLE	F	Ach Offset Enable
ACHOFFSET	QUANT	0	Ach Offset (V)
ACHFILTER	IQUANT	3	Ach Filter
IERANGELOWERLIMIT	IQUANT	1	I/E Range Lower Limit
IERANGEMODE	TOGGLE	F	I/E AutoRange
IERANGE	IQUANT	2	I/E Range
POSFEEDENABLE	TOGGLE	F	Positive Feedback IR Comp
POSFEEDRESISTANCE	QUANT	0	Positive Feedback Resistance (ohm)
ACHSELECT	IQUANT	0	Ach Select
CABLEID	IQUANT	14	Cable ID
DCCALDATE	LABEL	8/19/2019	DC Calibration Date
ACCALDATE	LABEL	8/19/2019	AC Calibration Date
THERMOSELECT	IQUANT	1	Thermo Select
FRAMEWORKVERSION	QUANT	6.33	Framework Version
INSTRUMENTVERSION	LABEL	3.50	Instrument Version
ZCURVE	TABLE
	Pt	Time	Freq	Zreal	Zimag	Zsig	Zmod	Zphz	Idc	Vdc	IERange
	#	s	Hz	ohm	ohm	V	ohm	°	A	V	#
	0	2	1000078	1199.915	-1171.036	1	1676.64	-44.30215	-3.879171E-006	0.0052486	8
	1	3	794390.6	1245.297	-1385.434	1	1862.845	-48.04921	1.984647E-006	0.0031409	8
	2	4	630984.4	1296.315	-1653.465	1	2101.043	-51.90359	-1.283608E-006	0.0034098	8
	3	6	501234.4	1372.125	-1997.348	1	2423.247	-55.51196	-6.314399E-007	0.0033895	8
	4	7	398109.4	1465.897	-2447.384	1	2852.813	-59.07988	1.52018E-006	0.0026036	8
	5	8	316265.6	1611.161	-2984.079	1	3391.248	-61.63455	-4.699384E-006	0.00401	8
	6	10	251203.1	1777.2	-3673.194	1	4080.538	-64.18093	-5.432269E-007	0.0032339	8
	7	11	199546.9	2067.364	-4504.179	1	4955.968	-65.34545	-1.677542E-006	0.0032389	8
	8	13	158578.1	2479.295	-5530.066	1	6060.408	-65.85187	5.024216E-007	0.0027797	8
	9	14	125953.1	3126.799	-6664.551	1	7361.597	-64.8655	5.03587E-007	0.0014556	7
	10	16	100078.1	3876.303	-7997.785	1	8887.648	-64.14182	-1.664309E-008	0.0030204	7
	11	17	79453.13	4938.719	-9503.28	1	10709.96	-62.53975	-3.839668E-008	0.0029179	7
	12	18	63140.62	6312.827	-11157.22	1	12819.33	-60.49854	8.462901E-008	0.0027483	7
	13	20	50203.12	8059.672	-12807.57	1	15132.49	-57.81823	-5.51852E-008	0.0029406	7
	14	21	39890.62	10147.97	-14429.9	1	17640.96	-54.88281	-1.652148E-008	0.0028543	7
	15	22	31640.63	12725.78	-16018.72	1	20458.37	-51.53526	-4.586274E-008	0.0029132	7
	16	24	25171.88	15510.92	-17403.7	1	23312.6	-48.29122	2.835163E-009	0.0029083	7
	17	25	20015.62	18498.76	-18471.12	1	26141.65	-44.95716	-5.363419E-008	0.002935	7
	18	27	15890.62	21585.29	-19196.44	1	28886.47	-41.64764	8.689164E-009	0.0028086	7
	19	28	12609.37	25122.31	-19871.76	1	32031.5	-38.34401	1.533467E-008	0.0026298	6
	20	30	10078.13	28102.19	-20517.97	1	34795.4	-36.13392	4.825366E-009	0.0028564	6
	21	31	8015.625	31097.25	-21115.79	1	37588.77	-34.17746	1.168959E-009	0.0027459	6
	22	33	6328.125	34220.14	-21821.91	1	40585.88	-32.52533	-5.522047E-009	0.0028706	6
	23	34	5015.625	37285.72	-22636.88	1	43619.42	-31.26275	-3.541327E-009	0.0029016	6
	24	35	3984.375	40321.57	-23557.84	1	46699.05	-30.29557	-9.207363E-009	0.0029285	6
	25	37	3170.956	43476.25	-24701.05	1	50003.26	-29.60309	3.797409E-009	0.002653	6
	26	38	2527.573	46696.27	-26081.62	1	53486.38	-29.185	5.064756E-009	0.0028578	6
	27	39	1976.103	50451.21	-27784.38	1	57595.98	-28.84236	2.67895E-010	0.0029259	6
	28	41	1577.524	54126.01	-29496.13	1	61641.27	-28.58831	-7.498095E-009	0.0029419	6
	29	42	1265.625	58206.12	-31680.5	1	66269.2	-28.55862	8.306398E-008	0.0027282	7
	30	44	998.264	62514.85	-33809.2	1	71071.57	-28.40535	1.911211E-009	0.0027471	6
	31	45	796.875	67459.44	-36207.64	1	76562.2	-28.22388	-7.680714E-009	0.0029397	6
	32	47	627.7902	72829.48	-38817.16	1	82528.2	-28.05703	6.333211E-009	0.0026415	6
	33	48	505.5147	78690.81	-41185.08	1	88816.98	-27.62659	5.736775E-009	0.0028152	6
	34	49	397.9953	84563.45	-43418.08	1	95058.4	-27.17768	2.372898E-010	0.0028293	5
	35	51	315.5048	90738.61	-46023.77	1	101743.2	-26.8947	-2.924413E-011	0.0028307	5
	36	52	252.4038	96807.8	-48841.12	1	108430.7	-26.77169	-5.855662E-010	0.0028288	5
	37	53	198.6229	103215.1	-52384.04	1	115747.3	-26.90885	2.762619E-010	0.0028236	5
	38	55	158.3615	109354	-56297.77	1	122994.9	-27.24038	3.14105E-010	0.0028232	5
	39	56	125.558	116101.5	-60880.51	1	131095.4	-27.67131	2.727016E-010	0.002824	5
	40	57	100.4464	123007.6	-66716.28	1	139935.5	-28.4743	1.328573E-010	0.0028262	5
	41	59	79.00281	130137.4	-74443.99	1	149925.5	-29.77134	-1.244676E-010	0.0028239	5
	42	61	63.3446	140808.2	-75634.03	1	159835.8	-28.24212	4.533768E-010	0.0028213	5
	43	62	49.86702	149295	-91811.86	1	175266.7	-31.59025	1.368892E-011	0.0028241	5
	44	64	39.72458	159001.2	-103846.2	1	189909	-33.14919	5.324103E-011	0.0028229	5
	45	65	31.6723	170221.3	-115344.8	1	205620.3	-34.12222	4.419143E-011	0.0028246	5
	46	67	24.93351	183989.7	-131285	1	226026.5	-35.50957	3.457166E-010	0.0028256	5
	47	68	19.86229	199263.7	-148011.7	1	248220.6	-36.6047	1.622804E-011	0.0028294	5
	48	69	15.83615	209223.6	-171590.5	1	270587.9	-39.35619	-8.675162E-010	0.0028222	5
	49	71	12.40079	238014.3	-188641.2	1	303704.3	-38.39903	-1.139141E-009	0.0028291	5
	50	72	9.93114	254573.6	-219186	1	335931.8	-40.72821	-4.347125E-010	0.0028229	5
	51	74	7.944915	282037.7	-248008.4	1	375570.8	-41.32662	1.714096E-010	0.0028185	5
	52	75	6.317385	308005.1	-283958.6	1	418926.8	-42.67384	3.783463E-010	0.0028133	5
	53	77	5.008013	341930.8	-324285	1	471250.9	-43.48278	-2.957259E-011	0.0028183	5
	54	80	3.945707	380981.1	-372679.9	1	532951.1	-44.36894	-6.016691E-012	0.0028199	5
	55	82	3.158693	423265.9	-423445.7	1	598715.5	-45.01217	-6.396896E-011	0.0028054	5
	56	86	2.504006	474690.9	-483984.7	1	677917.9	-45.55543	2.212726E-010	0.0028329	5
	57	88	1.998082	532886.1	-549902.6	1	765741.8	-45.90035	3.127121E-010	0.0028444	5
	58	91	1.584686	600627.5	-623886.4	1	866018.3	-46.08817	1.868668E-010	0.0027996	5
	59	95	1.266892	678742.8	-705285.8	1	978836	-46.09869	1.296811E-010	0.0028615	5
	60	99	0.999041	771655.2	-799696.4	1	1111290	-46.02235	5.002936E-012	0.0027829	4
