EXPLAIN
TAG	EISPOT
TITLE	LABEL	Potentiostatic EIS	Test &Identifier
DATE	LABEL	9/20/2019	Date
TIME	LABEL	9:56:57	Time
NOTES	NOTES	1	&Notes...
	
PSTAT	PSTAT	REF600-11020	Potentiostat
VDC	POTEN	0.00000E+000	T	DC &Voltage (V)
FREQINIT	QUANT	1.00000E+006	Initial Fre&q. (Hz)
FREQFINAL	QUANT	1.00000E+000	Final Fre&q. (Hz)
PTSPERDEC	QUANT	1.00000E+001	Points/&decade
VAC	QUANT	2.50000E+001	AC &Voltage (mV rms)
AREA	QUANT	1.00000E-002	&Area (cm^2)
CONDIT	TWOPARAM	T	5.00000E+000	0.00000E+000	Conditionin&g	Time(s)	E(V)
DELAY	TWOPARAM	T	5.00000E+000	0.00000E+000	Init. De&lay	Time(s)	Stab.(mV/s)
SPEED	SELECTOR	1	&Optimize for:
ZGUESS	QUANT	1.00000E+004	E&stimated Z (ohms)
OCVCURVE	TABLE	19
	Pt	T	Vf	Vm	Ach	Over
	#	s	V vs. Ref.	V	V	bits
	0	0.258333	4.79552E-002	4.79552E-002	5.80065E-004	...........
	1	0.516667	4.80043E-002	5.05232E-002	5.76466E-004	...........
	2	0.775	4.83028E-002	5.28124E-002	5.74199E-004	...........
	3	1.03333	4.91319E-002	5.46945E-002	5.71432E-004	...........
	4	1.29167	5.05706E-002	5.64648E-002	5.73599E-004	...........
	5	1.55	5.24010E-002	5.80202E-002	5.73366E-004	...........
	6	1.80833	5.43201E-002	5.94236E-002	5.77666E-004	...........
	7	2.06667	5.61308E-002	6.07122E-002	5.75499E-004	...........
	8	2.325	5.77634E-002	6.18821E-002	5.76566E-004	...........
	9	2.58333	5.92214E-002	6.29550E-002	5.78132E-004	...........
	10	2.84167	6.05325E-002	6.39469E-002	5.75499E-004	...........
	11	3.1	6.17234E-002	6.48768E-002	5.71132E-004	...........
	12	3.35833	6.28150E-002	6.57449E-002	5.72932E-004	...........
	13	3.61667	6.38238E-002	6.65617E-002	5.71366E-004	...........
	14	3.875	6.47623E-002	6.73316E-002	5.73666E-004	...........
	15	4.13333	6.56400E-002	6.80530E-002	5.72799E-004	...........
	16	4.39167	6.64635E-002	6.87305E-002	5.72466E-004	...........
	17	4.65	6.72373E-002	6.93697E-002	5.69132E-004	...........
	18	4.90833	6.79650E-002	6.99831E-002	5.71866E-004	...........
EOC	QUANT	0.067965	Open Circuit (V)
PSTATMODEL	IQUANT	4	Pstat Model
PSTATSECTION	LABEL	REF600-11020	Pstat Section
PSTATSERIALNO	LABEL	11020	Pstat Serial Number
CTRLMODE	IQUANT	1	Control Mode
IESTAB	IQUANT	0	I/E Stability
CASPEED	IQUANT	1	Control Amp Speed
CONVENTION	IQUANT	1	Current Convention
ICHRANGE	IQUANT	2	Ich Range
ICHRANGEMODE	TOGGLE	F	Ich Auto Range
ICHOFFSETENABLE	TOGGLE	T	Ich Offset Enable
ICHOFFSET	QUANT	0	Ich Offset (V)
ICHFILTER	IQUANT	3	Ich Filter
VCHRANGE	IQUANT	2	Vch Range
VCHRANGEMODE	TOGGLE	F	Vch Auto Range
VCHOFFSETENABLE	TOGGLE	T	Vch Offset Enable
VCHOFFSET	QUANT	0	Vch Offset (V)
VCHFILTER	IQUANT	3	Vch Filter
ACHRANGE	IQUANT	2	Ach Range
ACHOFFSETENABLE	TOGGLE	F	Ach Offset Enable
ACHOFFSET	QUANT	0	Ach Offset (V)
ACHFILTER	IQUANT	3	Ach Filter
IERANGELOWERLIMIT	IQUANT	1	I/E Range Lower Limit
IERANGEMODE	TOGGLE	F	I/E AutoRange
IERANGE	IQUANT	7	I/E Range
POSFEEDENABLE	TOGGLE	F	Positive Feedback IR Comp
POSFEEDRESISTANCE	QUANT	0	Positive Feedback Resistance (ohm)
ACHSELECT	IQUANT	0	Ach Select
CABLEID	IQUANT	14	Cable ID
DCCALDATE	LABEL	8/19/2019	DC Calibration Date
ACCALDATE	LABEL	8/19/2019	AC Calibration Date
THERMOSELECT	IQUANT	1	Thermo Select
FRAMEWORKVERSION	QUANT	6.33	Framework Version
INSTRUMENTVERSION	LABEL	3.50	Instrument Version
ZCURVE	TABLE
	Pt	Time	Freq	Zreal	Zimag	Zsig	Zmod	Zphz	Idc	Vdc	IERange
	#	s	Hz	ohm	ohm	V	ohm	°	A	V	#
	0	1	1000078	2261.597	-1282.831	1	2600.091	-29.56293	-7.486873E-006	0.0718379	8
	1	3	794390.6	2499.141	-1209.939	1	2776.627	-25.83358	1.887693E-006	0.070235	8
	2	4	630984.4	2697.913	-1083.123	1	2907.214	-21.87384	-1.091652E-006	0.0700492	8
	3	5	501234.4	2847.802	-960.31	1	3005.357	-18.63467	-2.16794E-006	0.0701416	8
	4	7	398109.4	2974.409	-845.5845	1	3092.268	-15.86974	-2.775595E-008	0.0697573	8
	5	8	316265.6	3069.025	-742.1565	1	3157.485	-13.59438	-4.512533E-006	0.0706555	8
	6	9	251203.1	3143.158	-642.505	1	3208.155	-11.55289	1.508427E-006	0.0692989	8
	7	11	199546.9	3224.598	-563.5479	1	3273.472	-9.9132	-1.154712E-006	0.0698291	8
	8	12	158578.1	3253.785	-513.696	1	3294.085	-8.971604	2.903266E-006	0.0689921	8
	9	13	125953.1	3314.586	-438.9533	1	3343.525	-7.54383	-1.40304E-006	0.0723252	7
	10	15	100078.1	3347.892	-410.5667	1	3372.973	-6.991523	1.594705E-009	0.0694716	7
	11	16	79453.13	3384.119	-403.101	1	3408.042	-6.792809	-5.337839E-008	0.0695554	7
	12	17	63140.62	3422.765	-404.3648	1	3446.568	-6.737681	5.193597E-008	0.0694185	7
	13	19	50203.12	3462.896	-411.9439	1	3487.313	-6.783987	-5.136089E-008	0.0695794	7
	14	20	39890.62	3503.685	-427.5381	1	3529.673	-6.957139	-2.980642E-008	0.0695094	7
	15	21	31640.63	3549.772	-451.9638	1	3578.428	-7.255969	-5.548177E-008	0.0696228	7
	16	23	25171.88	3597.382	-483.2732	1	3629.698	-7.65132	6.579412E-008	0.0693693	7
	17	24	20015.62	3649.117	-523.3698	1	3686.458	-8.16191	-2.196785E-008	0.0694887	7
	18	26	15890.62	3706.124	-573.7841	1	3750.278	-8.800692	-3.086909E-008	0.0695039	7
	19	27	12609.37	3768.564	-634.7104	1	3821.64	-9.56017	6.481429E-008	0.0693659	7
	20	28	10078.13	3836.579	-705.1677	1	3900.846	-10.41479	-5.075305E-008	0.0695665	7
	21	30	8015.625	3911.714	-787.16	1	3990.129	-11.37776	5.248446E-008	0.0694125	7
	22	31	6328.125	3997.182	-887.5901	1	4094.542	-12.51962	-6.105441E-008	0.0696784	7
	23	32	5015.625	4090.728	-1002.226	1	4211.711	-13.76627	-2.357274E-008	0.0695764	7
	24	34	3984.375	4192.79	-1137.112	1	4344.25	-15.17398	6.399544E-008	0.0694805	7
	25	35	3170.956	4309.026	-1292.069	1	4498.572	-16.69145	-5.444727E-008	0.0696139	7
	26	36	2527.573	4432.373	-1471.55	1	4670.266	-18.36619	-1.313695E-008	0.0695364	7
	27	38	1976.103	4580.507	-1700.55	1	4885.992	-20.36785	-8.215416E-008	0.0696391	7
	28	39	1577.524	4729.069	-1946.896	1	5114.147	-22.37633	-2.331647E-008	0.0695648	7
	29	40	1265.625	4888.302	-2248.777	1	5380.752	-24.70396	-5.604905E-008	0.0696134	7
	30	42	998.264	5066.036	-2608.083	1	5697.966	-27.24019	-5.351155E-008	0.0695388	7
	31	43	796.875	5257.293	-3038.554	1	6072.228	-30.02659	5.134059E-008	0.0694024	7
	32	44	627.7902	5477.589	-3601.648	1	6555.597	-33.32589	-5.248818E-008	0.0695404	7
	33	46	505.5147	5711.463	-4230.571	1	7107.64	-36.52793	-2.470324E-008	0.0695508	7
	34	47	397.9953	6024.765	-5075.835	1	7877.938	-40.11398	-9.805473E-009	0.069544	7
	35	49	315.5048	6403.844	-6086.064	1	8834.557	-43.54255	-8.539657E-009	0.0695466	7
	36	50	252.4038	6871.602	-7258.752	1	9995.42	-46.56943	-1.339324E-008	0.0694783	6
	37	51	198.6229	7519.639	-8772.541	1	11554.33	-49.39751	-1.36206E-008	0.0694869	6
	38	53	158.3615	8322.477	-10467.58	1	13372.88	-51.51278	-1.307298E-008	0.069481	6
	39	54	125.558	9396.781	-12458.56	1	15604.97	-52.97483	-1.297235E-008	0.0694825	6
	40	55	100.4464	10740.54	-14653.35	1	18168.1	-53.7595	-1.278544E-008	0.0694761	6
	41	57	79.00281	12577.12	-17323.07	1	21407.3	-54.0191	-1.230588E-008	0.069476	6
	42	58	63.3446	14563.09	-20147.6	1	24859.79	-54.13984	-1.223208E-008	0.0694777	6
	43	59	49.86702	17537.83	-23166.06	1	29055.84	-52.87251	-1.252886E-008	0.0694754	6
	44	61	39.72458	20745.82	-26508.93	1	33661.73	-51.95335	-1.126092E-008	0.0694832	6
	45	62	31.6723	24507.61	-29783.4	1	38570.37	-50.55035	-1.315718E-008	0.0694787	6
	46	64	24.93351	28949.5	-33427.06	1	44220.38	-49.1058	-1.276061E-008	0.0694842	6
	47	65	19.86229	33725.46	-36912.07	1	49999.07	-47.58298	-1.015825E-008	0.0694848	6
	48	66	15.83615	38715.83	-40614.04	1	56110.74	-46.37071	-1.351219E-008	0.0694801	6
	49	68	12.40079	44729.2	-44624.21	1	63182.45	-44.93267	-1.216944E-008	0.0694777	6
	50	69	9.93114	50773.98	-48493.03	1	70210.91	-43.68369	-1.153535E-008	0.0694701	6
	51	71	7.944915	57029.21	-52587.3	1	77574.19	-42.67951	-1.50375E-008	0.069475	6
	52	72	6.317385	63870.49	-57402.95	1	85875.13	-41.94729	-1.417226E-008	0.0694738	6
	53	74	5.008013	71080.28	-62942.66	1	94943.06	-41.52538	-1.195681E-008	0.0694852	6
	54	77	3.945707	79179.97	-69375.66	1	105273.2	-41.22409	-1.451848E-008	0.0694852	5
	55	79	3.158693	87602.23	-76260.95	1	116146	-41.04076	-1.267512E-008	0.0694967	5
	56	82	2.504006	97284.6	-84389.43	1	128786.1	-40.93998	-1.468105E-008	0.0694955	5
	57	85	1.998082	107338.1	-93263.38	1	142195.4	-40.98655	-1.269842E-008	0.0694476	5
	58	88	1.584686	119372.3	-103950.5	1	158289.1	-41.04965	-1.413279E-008	0.069452	5
	59	92	1.266892	132129.8	-115071.5	1	175213.4	-41.05252	-1.284772E-008	0.0694501	5
	60	96	0.999041	147726.2	-128724.2	1	195941.2	-41.06792	-1.439329E-008	0.0695033	5
