EXPLAIN
TAG	EISPOT
TITLE	LABEL	Potentiostatic EIS	Test &Identifier
DATE	LABEL	10/8/2019	Date
TIME	LABEL	10:18:26	Time
NOTES	NOTES	2	&Notes...
	
	
PSTAT	PSTAT	REF600-11020	Potentiostat
VDC	POTEN	0.00000E+000	T	DC &Voltage (V)
FREQINIT	QUANT	1.00000E+006	Initial Fre&q. (Hz)
FREQFINAL	QUANT	1.00000E+000	Final Fre&q. (Hz)
PTSPERDEC	QUANT	1.00000E+001	Points/&decade
VAC	QUANT	2.50000E+001	AC &Voltage (mV rms)
AREA	QUANT	1.00000E-002	&Area (cm^2)
CONDIT	TWOPARAM	T	5.00000E+000	0.00000E+000	Conditionin&g	Time(s)	E(V)
DELAY	TWOPARAM	T	5.00000E+000	0.00000E+000	Init. De&lay	Time(s)	Stab.(mV/s)
SPEED	SELECTOR	1	&Optimize for:
ZGUESS	QUANT	1.00000E+004	E&stimated Z (ohms)
OCVCURVE	TABLE	19
	Pt	T	Vf	Vm	Ach	Over
	#	s	V vs. Ref.	V	V	bits
	0	0.258333	6.14077E-003	6.14077E-003	5.60166E-004	...........
	1	0.516667	6.13992E-003	6.09632E-003	5.60632E-004	...........
	2	0.775	6.13505E-003	6.07235E-003	5.58399E-004	...........
	3	1.03333	6.12262E-003	6.05862E-003	5.61366E-004	...........
	4	1.29167	6.10351E-003	6.05290E-003	5.54699E-004	...........
	5	1.55	6.08343E-003	6.05896E-003	5.53599E-004	...........
	6	1.80833	6.06831E-003	6.06573E-003	5.58599E-004	...........
	7	2.06667	6.06111E-003	6.08256E-003	5.58899E-004	...........
	8	2.325	6.06196E-003	6.09667E-003	5.55133E-004	...........
	9	2.58333	6.06949E-003	6.11853E-003	5.56066E-004	...........
	10	2.84167	6.08208E-003	6.13923E-003	5.53199E-004	...........
	11	3.1	6.09843E-003	6.16384E-003	5.57599E-004	...........
	12	3.35833	6.11768E-003	6.18838E-003	5.54433E-004	...........
	13	3.61667	6.13921E-003	6.21415E-003	5.55633E-004	...........
	14	3.875	6.16242E-003	6.23699E-003	5.58032E-004	...........
	15	4.13333	6.18666E-003	6.26483E-003	5.56899E-004	...........
	16	4.39167	6.21150E-003	6.29247E-003	5.57166E-004	...........
	17	4.65	6.23704E-003	6.32236E-003	5.55866E-004	...........
	18	4.90833	6.26351E-003	6.34531E-003	5.59832E-004	...........
EOC	QUANT	0.0062635	Open Circuit (V)
PSTATMODEL	IQUANT	4	Pstat Model
PSTATSECTION	LABEL	REF600-11020	Pstat Section
PSTATSERIALNO	LABEL	11020	Pstat Serial Number
CTRLMODE	IQUANT	1	Control Mode
IESTAB	IQUANT	0	I/E Stability
CASPEED	IQUANT	1	Control Amp Speed
CONVENTION	IQUANT	1	Current Convention
ICHRANGE	IQUANT	2	Ich Range
ICHRANGEMODE	TOGGLE	F	Ich Auto Range
ICHOFFSETENABLE	TOGGLE	T	Ich Offset Enable
ICHOFFSET	QUANT	0	Ich Offset (V)
ICHFILTER	IQUANT	3	Ich Filter
VCHRANGE	IQUANT	2	Vch Range
VCHRANGEMODE	TOGGLE	F	Vch Auto Range
VCHOFFSETENABLE	TOGGLE	T	Vch Offset Enable
VCHOFFSET	QUANT	0	Vch Offset (V)
VCHFILTER	IQUANT	3	Vch Filter
ACHRANGE	IQUANT	2	Ach Range
ACHOFFSETENABLE	TOGGLE	F	Ach Offset Enable
ACHOFFSET	QUANT	0	Ach Offset (V)
ACHFILTER	IQUANT	3	Ach Filter
IERANGELOWERLIMIT	IQUANT	1	I/E Range Lower Limit
IERANGEMODE	TOGGLE	F	I/E AutoRange
IERANGE	IQUANT	6	I/E Range
POSFEEDENABLE	TOGGLE	F	Positive Feedback IR Comp
POSFEEDRESISTANCE	QUANT	0	Positive Feedback Resistance (ohm)
ACHSELECT	IQUANT	0	Ach Select
CABLEID	IQUANT	14	Cable ID
DCCALDATE	LABEL	8/19/2019	DC Calibration Date
ACCALDATE	LABEL	8/19/2019	AC Calibration Date
THERMOSELECT	IQUANT	1	Thermo Select
FRAMEWORKVERSION	QUANT	6.33	Framework Version
INSTRUMENTVERSION	LABEL	3.50	Instrument Version
ZCURVE	TABLE
	Pt	Time	Freq	Zreal	Zimag	Zsig	Zmod	Zphz	Idc	Vdc	IERange
	#	s	Hz	ohm	ohm	V	ohm	°	A	V	#
	0	2	1000078	1995.098	-789.3577	1	2145.577	-21.58616	-8.046849E-006	0.0100904	8
	1	4	794390.6	2109.512	-726.6693	1	2231.163	-19.00743	2.334616E-006	0.0081437	8
	2	5	630984.4	2212.052	-649.629	1	2305.47	-16.3663	-5.968109E-007	0.0081363	8
	3	6	501234.4	2292.666	-587.0381	1	2366.628	-14.36205	-1.239725E-007	0.0080835	8
	4	8	398109.4	2359.307	-522.6807	1	2416.511	-12.49155	-2.471872E-006	0.0083708	8
	5	9	316265.6	2423.552	-475.9856	1	2469.851	-11.11147	-5.389638E-007	0.0079104	8
	6	10	251203.1	2467.424	-435.1781	1	2505.506	-10.00236	-1.181033E-006	0.008102	8
	7	12	199546.9	2506.36	-402.1317	1	2538.415	-9.115108	4.104237E-006	0.0070938	8
	8	13	158578.1	2545.11	-378.1408	1	2573.048	-8.450922	1.128417E-006	0.0077717	8
	9	15	125953.1	2592.012	-340.2661	1	2614.251	-7.478732	-6.819008E-007	0.0089866	7
	10	16	100078.1	2624.9	-335.2234	1	2646.219	-7.277791	-1.697197E-008	0.0078644	7
	11	17	79453.13	2658.693	-345.3085	1	2681.023	-7.400098	-2.045848E-008	0.0078702	7
	12	19	63140.62	2699.091	-361.1045	1	2723.139	-7.620207	-8.036812E-008	0.007948	7
	13	20	50203.12	2741.067	-380.6482	1	2767.371	-7.906024	-4.283166E-008	0.0079088	7
	14	21	39890.62	2785.705	-405.1919	1	2815.019	-8.275862	-5.945263E-008	0.0079803	7
	15	23	31640.63	2833.693	-434.0666	1	2866.745	-8.708903	-4.535541E-008	0.0079014	7
	16	24	25171.88	2884.988	-469.4516	1	2922.934	-9.24229	-3.876858E-008	0.0078967	7
	17	25	20015.62	2947.772	-506.7339	1	2991.01	-9.75404	-9.999016E-009	0.0077704	7
	18	27	15890.62	2999.989	-558.9092	1	3051.608	-10.55343	-3.240052E-008	0.0078209	7
	19	28	12609.37	3067.294	-614.8218	1	3128.306	-11.33441	8.20385E-008	0.00764	7
	20	30	10078.13	3137.506	-677.6485	1	3209.853	-12.18771	3.374916E-008	0.0077741	7
	21	31	8015.625	3214.775	-753.921	1	3301.996	-13.19835	-1.500753E-008	0.0079457	7
	22	32	6328.125	3305.971	-833.8508	1	3409.509	-14.1562	5.199926E-009	0.0077528	7
	23	34	5015.625	3399.254	-927.1819	1	3523.435	-15.25689	3.287163E-009	0.0078105	7
	24	35	3984.375	3494.655	-1025.656	1	3642.057	-16.35658	7.078228E-008	0.0076858	7
	25	36	3170.956	3595.237	-1153.748	1	3775.826	-17.79196	8.214163E-008	0.0076382	7
	26	38	2527.573	3693.927	-1298.479	1	3915.501	-19.36745	-4.293008E-008	0.0078464	7
	27	39	1976.103	3801.561	-1491.744	1	4083.769	-21.42519	-1.806889E-008	0.0079487	7
	28	40	1577.524	3899.894	-1714.339	1	4260.062	-23.72962	7.136985E-008	0.00768	7
	29	42	1265.625	3997.91	-1976.301	1	4459.714	-26.30473	-3.807473E-008	0.0078169	7
	30	43	998.264	4108.156	-2338.952	1	4727.329	-29.65475	-1.149021E-008	0.0078414	7
	31	45	796.875	4220.015	-2767.968	1	5046.798	-33.26144	3.172853E-008	0.0077729	7
	32	46	627.7902	4344.418	-3340.974	1	5480.518	-37.56125	-5.40776E-008	0.0079712	7
	33	47	505.5147	4477.401	-3984.231	1	5993.431	-41.6644	-3.226614E-008	0.0078161	7
	34	49	397.9953	4643.678	-4865.061	1	6725.515	-46.33372	3.573627E-009	0.0078157	7
	35	50	315.5048	4834.79	-5938.029	1	7657.375	-50.84725	5.204089E-009	0.0078132	7
	36	51	252.4038	5056.74	-7215.221	1	8810.791	-54.97556	4.725782E-009	0.0078102	7
	37	53	198.6229	5353.302	-8915.062	1	10398.85	-59.01609	6.067851E-010	0.0077567	6
	38	54	158.3615	5702.847	-10908.04	1	12308.85	-62.39891	1.082363E-009	0.0077536	6
	39	55	125.558	6160.306	-13424.03	1	14770.04	-65.34955	7.373739E-010	0.0077569	6
	40	57	100.4464	6726.762	-16402.12	1	17727.91	-67.70071	1.183311E-009	0.0077532	6
	41	58	79.00281	7484.375	-20343.79	1	21676.85	-69.8017	5.030377E-010	0.0077529	6
	42	59	63.3446	8383.933	-24664.68	1	26050.65	-71.22625	1.951184E-010	0.0077518	6
	43	61	49.86702	9872.52	-30730.46	1	32277.35	-72.18977	7.380632E-010	0.0077556	6
	44	62	39.72458	11501.62	-37486.19	1	39210.99	-72.94279	1.062912E-009	0.0077558	6
	45	64	31.6723	13619.77	-45658.5	1	47646.59	-73.39034	5.474708E-010	0.0077583	6
	46	65	24.93351	16781.51	-56241.84	1	58692.11	-73.38588	6.992306E-010	0.0077564	6
	47	66	19.86229	20700.02	-68305.41	1	71373.1	-73.14052	3.114457E-010	0.0077667	6
	48	68	15.83615	25966.64	-82827.7	1	86802.61	-72.5937	-5.84079E-010	0.0077535	6
	49	69	12.40079	32888.83	-101290.1	1	106495.8	-72.01142	-2.812538E-010	0.0077595	6
	50	71	9.93114	41578.73	-120658	1	127621.1	-70.98605	8.377203E-010	0.007761	5
	51	72	7.944915	52461.24	-143844.8	1	153112.8	-69.96272	7.969844E-012	0.0077675	5
	52	74	6.317385	66722.37	-170953.9	1	183513.2	-68.67957	-9.307263E-011	0.0077794	5
	53	76	5.008013	84790.82	-202222.3	1	219279.2	-67.25194	1.250114E-010	0.007757	5
	54	78	3.945707	107290.6	-238624.8	1	261635.4	-65.79034	2.021635E-010	0.007757	5
	55	81	3.158693	132443.2	-276691.2	1	306755.9	-64.42105	1.168095E-010	0.007769	5
	56	84	2.504006	162852.6	-321423.1	1	360324.5	-63.13043	1.138813E-010	0.0077478	5
	57	87	1.998082	196741.9	-369977.7	1	419035.6	-61.99743	-1.365756E-010	0.0077883	5
	58	90	1.584686	235662.3	-427148.7	1	487845	-61.11404	1.84459E-010	0.0077814	5
	59	94	1.266892	279744.3	-489575.5	1	563862.6	-60.25628	-4.58671E-011	0.0077988	5
	60	98	0.999041	330412	-565321.6	1	654798.1	-59.69511	1.041218E-010	0.0077214	5
