EXPLAIN
TAG	EISPOT
TITLE	LABEL	Potentiostatic IDE	Test &Identifier
DATE	LABEL	9/14/2019	Date
TIME	LABEL	12:50:44	Time
NOTES	NOTES	1	&Notes...
	
PSTAT	PSTAT	REF600-11020	Potentiostat
VDC	POTEN	0.00000E+000	T	DC &Voltage (V)
FREQINIT	QUANT	1.00000E+006	Initial Fre&q. (Hz)
FREQFINAL	QUANT	1.00000E+000	Final Fre&q. (Hz)
PTSPERDEC	QUANT	1.00000E+001	Points/&decade
VAC	QUANT	2.50000E+001	AC &Voltage (mV rms)
AREA	QUANT	1.00000E-002	&Area (cm^2)
CONDIT	TWOPARAM	T	5.00000E+000	0.00000E+000	Conditionin&g	Time(s)	E(V)
DELAY	TWOPARAM	T	5.00000E+000	0.00000E+000	Init. De&lay	Time(s)	Stab.(mV/s)
SPEED	SELECTOR	1	&Optimize for:
ZGUESS	QUANT	1.00000E+007	E&stimated Z (ohms)
OCVCURVE	TABLE	19
	Pt	T	Vf	Vm	Ach	Over
	#	s	V vs. Ref.	V	V	bits
	0	0.258333	6.00364E-003	6.00364E-003	5.71832E-004	...........
	1	0.516667	6.00223E-003	5.92946E-003	5.69799E-004	...........
	2	0.775	5.99375E-003	5.87080E-003	5.69532E-004	...........
	3	1.03333	5.97073E-003	5.82648E-003	5.71932E-004	...........
	4	1.29167	5.93209E-003	5.79001E-003	5.72132E-004	...........
	5	1.55	5.88529E-003	5.76208E-003	5.72299E-004	...........
	6	1.80833	5.83957E-003	5.73935E-003	5.68932E-004	...........
	7	2.06667	5.80033E-003	5.71913E-003	5.69066E-004	...........
	8	2.325	5.76869E-003	5.70362E-003	5.69699E-004	...........
	9	2.58333	5.74345E-003	5.68777E-003	5.68432E-004	...........
	10	2.84167	5.72289E-003	5.67658E-003	5.68532E-004	...........
	11	3.1	5.70569E-003	5.66718E-003	5.69599E-004	...........
	12	3.35833	5.69112E-003	5.65567E-003	5.68166E-004	...........
	13	3.61667	5.67870E-003	5.65187E-003	5.71466E-004	...........
	14	3.875	5.66817E-003	5.64640E-003	5.70499E-004	...........
	15	4.13333	5.65952E-003	5.64189E-003	5.70432E-004	...........
	16	4.39167	5.65257E-003	5.63367E-003	5.69399E-004	...........
	17	4.65	5.64665E-003	5.63070E-003	5.65599E-004	...........
	18	4.90833	5.64110E-003	5.62521E-003	5.64366E-004	...........
EOC	QUANT	0.0056411	Open Circuit (V)
PSTATMODEL	IQUANT	4	Pstat Model
PSTATSECTION	LABEL	REF600-11020	Pstat Section
PSTATSERIALNO	LABEL	11020	Pstat Serial Number
CTRLMODE	IQUANT	1	Control Mode
IESTAB	IQUANT	0	I/E Stability
CASPEED	IQUANT	1	Control Amp Speed
CONVENTION	IQUANT	1	Current Convention
ICHRANGE	IQUANT	2	Ich Range
ICHRANGEMODE	TOGGLE	F	Ich Auto Range
ICHOFFSETENABLE	TOGGLE	T	Ich Offset Enable
ICHOFFSET	QUANT	0	Ich Offset (V)
ICHFILTER	IQUANT	3	Ich Filter
VCHRANGE	IQUANT	2	Vch Range
VCHRANGEMODE	TOGGLE	F	Vch Auto Range
VCHOFFSETENABLE	TOGGLE	T	Vch Offset Enable
VCHOFFSET	QUANT	0	Vch Offset (V)
VCHFILTER	IQUANT	3	Vch Filter
ACHRANGE	IQUANT	2	Ach Range
ACHOFFSETENABLE	TOGGLE	F	Ach Offset Enable
ACHOFFSET	QUANT	0	Ach Offset (V)
ACHFILTER	IQUANT	3	Ach Filter
IERANGELOWERLIMIT	IQUANT	1	I/E Range Lower Limit
IERANGEMODE	TOGGLE	F	I/E AutoRange
IERANGE	IQUANT	3	I/E Range
POSFEEDENABLE	TOGGLE	F	Positive Feedback IR Comp
POSFEEDRESISTANCE	QUANT	0	Positive Feedback Resistance (ohm)
ACHSELECT	IQUANT	0	Ach Select
CABLEID	IQUANT	14	Cable ID
DCCALDATE	LABEL	8/19/2019	DC Calibration Date
ACCALDATE	LABEL	8/19/2019	AC Calibration Date
THERMOSELECT	IQUANT	1	Thermo Select
FRAMEWORKVERSION	QUANT	6.33	Framework Version
INSTRUMENTVERSION	LABEL	3.50	Instrument Version
ZCURVE	TABLE
	Pt	Time	Freq	Zreal	Zimag	Zsig	Zmod	Zphz	Idc	Vdc	IERange
	#	s	Hz	ohm	ohm	V	ohm	°	A	V	#
	0	2	1000078	2339.935	-1968.958	1	3058.119	-40.07921	-7.15085E-006	0.0094556	8
	1	4	794390.6	2747.499	-1955.126	1	3372.131	-35.43575	-2.357877E-007	0.0083698	8
	2	5	630984.4	3141.304	-1844.343	1	3642.718	-30.41832	-9.297955E-007	0.0078363	8
	3	7	501234.4	3471.604	-1708.319	1	3869.159	-26.20103	2.773811E-006	0.0069259	8
	4	8	398109.4	3757.918	-1514.067	1	4051.463	-21.94453	3.03948E-006	0.0069749	8
	5	9	316265.6	3959.664	-1331.746	1	4177.617	-18.58924	-8.801828E-007	0.0075091	8
	6	11	251203.1	4124.774	-1165.139	1	4286.177	-15.77358	1.125579E-006	0.0071299	8
	7	12	199546.9	4245.583	-999.145	1	4361.567	-13.24287	1.001537E-006	0.0071276	8
	8	13	158578.1	4364.222	-874.2635	1	4450.929	-11.32785	-8.877466E-007	0.0075485	8
	9	15	125953.1	4448.5	-734.0129	1	4508.651	-9.369514	-7.513817E-008	0.0072198	7
	10	16	100078.1	4500.453	-657.8058	1	4548.273	-8.315715	1.166798E-008	0.0073479	7
	11	17	79453.13	4553.156	-614.6456	1	4594.456	-7.688071	-1.685395E-009	0.0073216	7
	12	19	63140.62	4602.033	-588.3499	1	4639.49	-7.285495	-4.253316E-008	0.007428	7
	13	20	50203.12	4648.275	-578.1406	1	4684.091	-7.089893	-3.743402E-008	0.00744	7
	14	21	39890.62	4698.805	-582.1707	1	4734.732	-7.062818	-5.358776E-008	0.0074117	7
	15	23	31640.63	4749.606	-600.8452	1	4787.46	-7.20986	4.870584E-008	0.0072397	7
	16	24	25171.88	4805.754	-631.1791	1	4847.026	-7.482298	-3.704021E-008	0.0074289	7
	17	26	20015.62	4864.784	-680.0549	1	4912.087	-7.957887	-1.285342E-009	0.0073066	7
	18	27	15890.62	4929.853	-740.0433	1	4985.089	-8.537191	1.36026E-008	0.0072516	7
	19	28	12609.37	5000.912	-816.9601	1	5067.203	-9.278011	-4.918562E-008	0.0073865	7
	20	30	10078.13	5077.116	-907.9188	1	5157.657	-10.13879	-4.254409E-008	0.0074191	7
	21	31	8015.625	5163.12	-1018.932	1	5262.701	-11.16376	1.386515E-008	0.0073264	7
	22	32	6328.125	5261.239	-1159.719	1	5387.54	-12.43076	5.026387E-008	0.0072326	7
	23	34	5015.625	5365.627	-1324.795	1	5526.757	-13.86917	-4.848395E-008	0.0073866	7
	24	35	3984.375	5480.867	-1520.745	1	5687.932	-15.50744	1.358232E-008	0.0073276	7
	25	36	3170.956	5606.216	-1751.633	1	5873.489	-17.35114	4.804481E-008	0.0072327	7
	26	38	2527.573	5743.429	-2029.552	1	6091.474	-19.46185	4.016093E-008	0.007369	7
	27	39	1976.103	5910.572	-2386.331	1	6374.123	-21.98588	1.599637E-008	0.0072544	7
	28	40	1577.524	6080.831	-2788.066	1	6689.53	-24.6315	-3.327488E-008	0.0073415	7
	29	42	1265.625	6248.954	-3243.469	1	7040.563	-27.4312	-5.315401E-008	0.0074018	7
	30	43	998.264	6487.372	-3874.153	1	7556.126	-30.84496	-1.583975E-008	0.0073083	7
	31	44	796.875	6723.78	-4585.421	1	8138.507	-34.29284	-3.480306E-008	0.0074219	7
	32	46	627.7902	7005.563	-5495.698	1	8903.966	-38.11334	1.711561E-008	0.0073169	7
	33	47	505.5147	7306.753	-6506.231	1	9783.64	-41.68317	-3.45316E-009	0.0072409	6
	34	48	397.9953	7671.248	-7871.031	1	10990.96	-45.73645	1.441578E-009	0.0072997	6
	35	50	315.5048	8083.698	-9498.297	1	12472.52	-49.59995	1.692655E-009	0.0072951	6
	36	51	252.4038	8541.94	-11408.25	1	14251.77	-53.17593	4.408128E-010	0.0072968	6
	37	52	198.6229	9114.87	-13932.06	1	16648.82	-56.8058	7.998271E-010	0.0072916	6
	38	54	158.3615	9757.36	-16864.88	1	19484.11	-59.948	4.575408E-010	0.0072889	6
	39	55	125.558	10551.88	-20574.86	1	23122.86	-62.84884	8.104492E-010	0.0072955	6
	40	56	100.4464	11475.02	-24968.29	1	27478.93	-65.31726	1.856791E-009	0.0072867	6
	41	58	79.00281	12794.08	-30740.99	1	33297.1	-67.40343	1.413016E-009	0.0072933	6
	42	59	63.3446	13754.55	-37285.33	1	39741.46	-69.75099	4.201314E-010	0.0072891	6
	43	60	49.86702	16564.44	-45944.41	1	48839.22	-70.17414	-2.202615E-010	0.0072895	6
	44	62	39.72458	18666.15	-56211.36	1	59229.57	-71.63018	4.054047E-010	0.0072955	6
	45	63	31.6723	22098.04	-68196.45	1	71687.37	-72.04585	1.011525E-009	0.0072878	6
	46	64	24.93351	26704.29	-84145.7	1	88281.48	-72.39276	3.864185E-010	0.0072879	6
	47	66	19.86229	32627.5	-102164.2	1	107247.8	-72.28843	2.546414E-010	0.0072939	5
	48	67	15.83615	39833.3	-124074.2	1	130311.5	-72.20107	4.990611E-010	0.0072981	5
	49	68	12.40079	51777.78	-150658.4	1	159307.6	-71.03336	1.400667E-009	0.007292	5
	50	70	9.93114	63764.61	-180900.6	1	191809.7	-70.58325	7.727791E-010	0.0072907	5
	51	71	7.944915	81686.96	-215473.6	1	230437.9	-69.23807	1.104794E-010	0.0072946	5
	52	73	6.317385	103597.9	-256754.9	1	276867.5	-68.02644	1.740236E-010	0.0073088	5
	53	75	5.008013	132899.1	-303680	1	331487.1	-66.36443	4.804837E-010	0.0073025	5
	54	78	3.945707	170104.9	-359044.3	1	397301.5	-64.64974	2.196108E-011	0.0072904	5
	55	80	3.158693	213183.3	-415361.7	1	466875.2	-62.83096	4.398889E-010	0.007314	5
	56	84	2.504006	268490.7	-479828.9	1	549839.1	-60.77058	-1.284523E-010	0.0072957	5
	57	86	1.998082	331464.4	-545338.5	1	638171.4	-58.70818	2.828508E-011	0.0072638	5
	58	89	1.584686	405211.8	-614589.2	1	736149.8	-56.60228	4.734756E-011	0.0073148	5
	59	93	1.266892	487555.3	-686505.2	1	842021.1	-54.61767	3.876627E-011	0.007246	5
	60	97	0.999041	580449.6	-764759.2	1	960093	-52.80163	1.720107E-010	0.0073357	5
