EXPLAIN
TAG	EISPOT
TITLE	LABEL	Potentiostatic IDE	Test &Identifier
DATE	LABEL	9/16/2019	Date
TIME	LABEL	9:11:37	Time
NOTES	NOTES	1	&Notes...
	
PSTAT	PSTAT	REF600-11020	Potentiostat
VDC	POTEN	0.00000E+000	T	DC &Voltage (V)
FREQINIT	QUANT	1.00000E+006	Initial Fre&q. (Hz)
FREQFINAL	QUANT	1.00000E+000	Final Fre&q. (Hz)
PTSPERDEC	QUANT	1.00000E+001	Points/&decade
VAC	QUANT	2.50000E+001	AC &Voltage (mV rms)
AREA	QUANT	1.00000E-002	&Area (cm^2)
CONDIT	TWOPARAM	T	5.00000E+000	0.00000E+000	Conditionin&g	Time(s)	E(V)
DELAY	TWOPARAM	T	5.00000E+000	0.00000E+000	Init. De&lay	Time(s)	Stab.(mV/s)
SPEED	SELECTOR	1	&Optimize for:
ZGUESS	QUANT	1.00000E+007	E&stimated Z (ohms)
OCVCURVE	TABLE	19
	Pt	T	Vf	Vm	Ach	Over
	#	s	V vs. Ref.	V	V	bits
	0	0.258333	8.65802E-003	8.65802E-003	5.54133E-004	...........
	1	0.516667	8.65657E-003	8.58225E-003	5.55999E-004	...........
	2	0.775	8.64966E-003	8.61393E-003	5.49833E-004	...........
	3	1.03333	8.63303E-003	8.45304E-003	5.48299E-004	...........
	4	1.29167	8.62388E-003	9.54627E-003	5.51366E-004	...........
	5	1.55	8.68399E-003	9.29818E-003	5.56899E-004	...........
	6	1.80833	8.84776E-003	8.99709E-003	5.51466E-004	...........
	7	2.06667	9.01393E-003	8.07491E-003	5.46799E-004	...........
	8	2.325	9.01270E-003	8.06675E-003	5.44933E-004	...........
	9	2.58333	8.80985E-003	8.77780E-003	5.52699E-004	...........
	10	2.84167	8.58001E-003	9.20611E-003	5.52033E-004	...........
	11	3.1	8.52625E-003	8.97704E-003	5.41833E-004	...........
	12	3.35833	8.65979E-003	8.85337E-003	5.47166E-004	...........
	13	3.61667	8.82872E-003	8.86712E-003	5.49766E-004	...........
	14	3.875	8.91673E-003	8.90755E-003	5.55866E-004	...........
	15	4.13333	8.92838E-003	8.97949E-003	5.48599E-004	...........
	16	4.39167	8.92135E-003	9.01739E-003	5.49099E-004	...........
	17	4.65	8.93279E-003	9.07235E-003	5.52299E-004	...........
	18	4.90833	8.96715E-003	9.13445E-003	5.54966E-004	...........
EOC	QUANT	0.0089671	Open Circuit (V)
PSTATMODEL	IQUANT	4	Pstat Model
PSTATSECTION	LABEL	REF600-11020	Pstat Section
PSTATSERIALNO	LABEL	11020	Pstat Serial Number
CTRLMODE	IQUANT	1	Control Mode
IESTAB	IQUANT	0	I/E Stability
CASPEED	IQUANT	1	Control Amp Speed
CONVENTION	IQUANT	1	Current Convention
ICHRANGE	IQUANT	2	Ich Range
ICHRANGEMODE	TOGGLE	F	Ich Auto Range
ICHOFFSETENABLE	TOGGLE	T	Ich Offset Enable
ICHOFFSET	QUANT	0	Ich Offset (V)
ICHFILTER	IQUANT	3	Ich Filter
VCHRANGE	IQUANT	2	Vch Range
VCHRANGEMODE	TOGGLE	F	Vch Auto Range
VCHOFFSETENABLE	TOGGLE	T	Vch Offset Enable
VCHOFFSET	QUANT	0	Vch Offset (V)
VCHFILTER	IQUANT	3	Vch Filter
ACHRANGE	IQUANT	2	Ach Range
ACHOFFSETENABLE	TOGGLE	F	Ach Offset Enable
ACHOFFSET	QUANT	0	Ach Offset (V)
ACHFILTER	IQUANT	3	Ach Filter
IERANGELOWERLIMIT	IQUANT	1	I/E Range Lower Limit
IERANGEMODE	TOGGLE	F	I/E AutoRange
IERANGE	IQUANT	3	I/E Range
POSFEEDENABLE	TOGGLE	F	Positive Feedback IR Comp
POSFEEDRESISTANCE	QUANT	0	Positive Feedback Resistance (ohm)
ACHSELECT	IQUANT	0	Ach Select
CABLEID	IQUANT	14	Cable ID
DCCALDATE	LABEL	8/19/2019	DC Calibration Date
ACCALDATE	LABEL	8/19/2019	AC Calibration Date
THERMOSELECT	IQUANT	1	Thermo Select
FRAMEWORKVERSION	QUANT	6.33	Framework Version
INSTRUMENTVERSION	LABEL	3.50	Instrument Version
ZCURVE	TABLE
	Pt	Time	Freq	Zreal	Zimag	Zsig	Zmod	Zphz	Idc	Vdc	IERange
	#	s	Hz	ohm	ohm	V	ohm	°	A	V	#
	0	2	1000078	2514.07	-1814.384	1	3100.409	-35.81768	-8.407535E-006	0.0131478	8
	1	4	794390.6	2873.627	-1736.01	1	3357.3	-31.13693	3.157218E-006	0.0113611	8
	2	5	630984.4	3194.001	-1577.988	1	3562.54	-26.29156	-6.679729E-006	0.0122375	8
	3	7	501234.4	3462.855	-1415.649	1	3741.046	-22.23521	-4.589913E-006	0.0120207	8
	4	8	398109.4	3664.584	-1233.707	1	3866.68	-18.60615	-6.378453E-007	0.0110203	8
	5	10	316265.6	3849.21	-1073.197	1	3996.019	-15.57898	4.455662E-006	0.0098155	8
	6	11	251203.1	3934.5	-938.4474	1	4044.87	-13.4154	-2.436887E-008	0.0108649	8
	7	13	199546.9	4047.062	-836.0554	1	4132.518	-11.67216	-2.789589E-006	0.0110059	8
	8	14	158578.1	4099.712	-680.3748	1	4155.785	-9.422741	1.322265E-006	0.0102631	8
	9	16	125953.1	4200.876	-566.2612	1	4238.87	-7.676967	-8.786951E-007	0.0133122	7
	10	17	100078.1	4224.13	-502.2883	1	4253.889	-6.78116	9.649987E-008	0.0103912	7
	11	18	79453.13	4259.504	-466.6105	1	4284.985	-6.251581	-2.236012E-008	0.0107417	7
	12	20	63140.62	4295.873	-443.1549	1	4318.669	-5.889702	-1.388548E-008	0.0106167	7
	13	21	50203.12	4329.983	-433.0412	1	4351.583	-5.711154	-2.363685E-008	0.0107339	7
	14	22	39890.62	4360.985	-434.0725	1	4382.535	-5.684237	-4.160178E-008	0.010583	7
	15	24	31640.63	4404.318	-447.2796	1	4426.972	-5.79878	4.800575E-008	0.0104227	7
	16	25	25171.88	4441.171	-468.498	1	4465.813	-6.021845	8.127903E-008	0.0104334	7
	17	26	20015.62	4482.082	-501.4012	1	4510.04	-6.383022	-4.093764E-008	0.0106208	7
	18	28	15890.62	4529.375	-544.9745	1	4562.042	-6.860849	-4.285039E-008	0.010598	7
	19	29	12609.37	4576.248	-608.0995	1	4616.474	-7.569216	-9.12233E-009	0.0105922	7
	20	30	10078.13	4628.42	-681.1091	1	4678.267	-8.371449	-1.480595E-008	0.0106349	7
	21	32	8015.625	4684.508	-767.8616	1	4747.023	-9.308862	-8.061021E-008	0.0106978	7
	22	33	6328.125	4749.155	-881.8297	1	4830.331	-10.51896	-1.245093E-008	0.0106069	7
	23	34	5015.625	4818.784	-1016.674	1	4924.866	-11.91362	-8.099465E-008	0.0106885	7
	24	36	3984.375	4893.336	-1178.776	1	5033.314	-13.54416	9.799694E-008	0.0103639	7
	25	37	3170.956	4976.447	-1373.993	1	5162.643	-15.43478	4.163613E-008	0.0105317	7
	26	38	2527.573	5069.097	-1612.821	1	5319.486	-17.64937	4.380675E-008	0.0105298	7
	27	40	1976.103	5178.406	-1926.174	1	5525.037	-20.40332	-1.990977E-008	0.0105422	7
	28	41	1577.524	5292.219	-2281.876	1	5763.206	-23.32454	-4.058758E-008	0.0105771	7
	29	42	1265.625	5418.178	-2702.565	1	6054.792	-26.50984	4.118138E-008	0.0105194	7
	30	44	998.264	5571.123	-3252.495	1	6451.056	-30.27695	-3.712843E-008	0.0106197	7
	31	45	796.875	5738.416	-3897.579	1	6936.897	-34.18467	-1.865897E-008	0.0107295	7
	32	46	627.7902	5943.589	-4728.85	1	7595.28	-38.50652	-6.614357E-009	0.0105949	7
	33	48	505.5147	6160.635	-5650.16	1	8359.29	-42.52516	-3.800037E-008	0.0106206	7
	34	49	397.9953	6433.389	-6900.432	1	9434.218	-47.00608	5.490532E-009	0.0105857	7
	35	50	315.5048	6751.038	-8395.729	1	10773.34	-51.19711	8.970544E-010	0.0105262	6
	36	52	252.4038	7103.32	-10158.79	1	12395.9	-55.03765	3.917541E-010	0.0105255	6
	37	53	198.6229	7550.959	-12494.74	1	14599.16	-58.85413	1.105733E-009	0.0105259	6
	38	54	158.3615	8061.035	-15225.52	1	17227.79	-62.10136	1.175934E-009	0.0105179	6
	39	56	125.558	8709.017	-18682.58	1	20612.76	-65.00709	1.376503E-009	0.0105226	6
	40	57	100.4464	9465.591	-22782.32	1	24670.46	-67.43811	3.972475E-010	0.0105199	6
	41	58	79.00281	10497.47	-28225.07	1	30113.97	-69.59882	1.549753E-009	0.0105179	6
	42	60	63.3446	12090.88	-34101.28	1	36181.3	-70.47763	1.283052E-009	0.0105272	6
	43	61	49.86702	13529.58	-42707.87	1	44799.69	-72.42213	9.044911E-010	0.0105273	6
	44	62	39.72458	15905.54	-51904.67	1	54287.02	-72.96297	8.351436E-010	0.0105256	6
	45	64	31.6723	18819.7	-63615.94	1	66341.3	-73.52004	1.731549E-009	0.0105249	6
	46	65	24.93351	22886.43	-78150.79	1	81433.01	-73.67735	6.433578E-010	0.0105273	6
	47	66	19.86229	28111.7	-94999.29	1	99071.4	-73.51573	9.33652E-010	0.0105267	6
	48	68	15.83615	34738	-115518.5	1	120628.5	-73.26324	6.474865E-011	0.0105281	5
	49	69	12.40079	45516.99	-141072.4	1	148233.7	-72.11771	1.522835E-009	0.0105248	5
	50	71	9.93114	56223.8	-169194.5	1	178291.6	-71.61821	8.023761E-010	0.0105316	5
	51	72	7.944915	71126.28	-200855	1	213076.7	-70.50005	1.209843E-009	0.0105265	5
	52	74	6.317385	90904.93	-241135.6	1	257701.5	-69.34422	6.572731E-010	0.0105243	5
	53	76	5.008013	116536.7	-286932.4	1	309695	-67.89561	5.002758E-010	0.0105374	5
	54	78	3.945707	149449.3	-340921.6	1	372240	-66.32886	1.258768E-010	0.0105174	5
	55	81	3.158693	187741.9	-397154.7	1	439293.6	-64.69908	4.000213E-010	0.0105391	5
	56	84	2.504006	237227.8	-462691	1	519961.5	-62.85518	-7.901196E-011	0.0105296	5
	57	87	1.998082	293633.8	-529596.8	1	605552.3	-60.99392	3.884911E-010	0.0104823	5
	58	90	1.584686	362376.5	-607498.3	1	707369.1	-59.18366	7.821223E-011	0.0104792	5
	59	94	1.266892	437293	-683907.4	1	811760.1	-57.405	3.408704E-010	0.0104851	5
	60	98	0.999041	527692.9	-776665.8	1	938972.6	-55.80649	-8.284599E-011	0.0105261	5
