EXPLAIN
TAG	EISPOT
TITLE	LABEL	Potentiostatic EIS	Test &Identifier
DATE	LABEL	11/7/2019	Date
TIME	LABEL	10:56:30	Time
NOTES	NOTES	2	&Notes...
	
	
PSTAT	PSTAT	REF600-11020	Potentiostat
VDC	POTEN	0.00000E+000	T	DC &Voltage (V)
FREQINIT	QUANT	1.00000E+006	Initial Fre&q. (Hz)
FREQFINAL	QUANT	1.00000E+000	Final Fre&q. (Hz)
PTSPERDEC	QUANT	1.00000E+001	Points/&decade
VAC	QUANT	2.50000E+001	AC &Voltage (mV rms)
AREA	QUANT	1.00000E-002	&Area (cm^2)
CONDIT	TWOPARAM	T	5.00000E+000	0.00000E+000	Conditionin&g	Time(s)	E(V)
DELAY	TWOPARAM	T	5.00000E+000	0.00000E+000	Init. De&lay	Time(s)	Stab.(mV/s)
SPEED	SELECTOR	1	&Optimize for:
ZGUESS	QUANT	1.00000E+005	E&stimated Z (ohms)
OCVCURVE	TABLE	19
	Pt	T	Vf	Vm	Ach	Over
	#	s	V vs. Ref.	V	V	bits
	0	0.258333	6.38153E-003	6.38153E-003	5.71432E-004	...........
	1	0.516667	6.38062E-003	6.33397E-003	5.73799E-004	...........
	2	0.775	6.37717E-003	6.40058E-003	5.76599E-004	...........
	3	1.03333	6.37237E-003	6.35192E-003	5.80865E-004	...........
	4	1.29167	6.37025E-003	6.41673E-003	5.75032E-004	...........
	5	1.55	6.37507E-003	6.48153E-003	5.71066E-004	...........
	6	1.80833	6.39223E-003	6.52753E-003	5.77899E-004	...........
	7	2.06667	6.42553E-003	6.59455E-003	5.80099E-004	...........
	8	2.325	6.47312E-003	6.67909E-003	5.77832E-004	...........
	9	2.58333	6.52944E-003	6.65260E-003	5.76166E-004	...........
	10	2.84167	6.58594E-003	6.71771E-003	5.76966E-004	...........
	11	3.1	6.63517E-003	6.78428E-003	5.75832E-004	...........
	12	3.35833	6.67878E-003	6.82322E-003	5.77232E-004	...........
	13	3.61667	6.72352E-003	6.87787E-003	5.73666E-004	...........
	14	3.875	6.77201E-003	6.93990E-003	5.76466E-004	...........
	15	4.13333	6.82361E-003	6.99804E-003	5.70499E-004	...........
	16	4.39167	6.87801E-003	7.05604E-003	5.77632E-004	...........
	17	4.65	6.93471E-003	7.11120E-003	5.72866E-004	...........
	18	4.90833	6.99237E-003	7.16441E-003	5.80932E-004	...........
EOC	QUANT	0.0069924	Open Circuit (V)
PSTATMODEL	IQUANT	4	Pstat Model
PSTATSECTION	LABEL	REF600-11020	Pstat Section
PSTATSERIALNO	LABEL	11020	Pstat Serial Number
CTRLMODE	IQUANT	1	Control Mode
IESTAB	IQUANT	0	I/E Stability
CASPEED	IQUANT	1	Control Amp Speed
CONVENTION	IQUANT	1	Current Convention
ICHRANGE	IQUANT	2	Ich Range
ICHRANGEMODE	TOGGLE	F	Ich Auto Range
ICHOFFSETENABLE	TOGGLE	T	Ich Offset Enable
ICHOFFSET	QUANT	0	Ich Offset (V)
ICHFILTER	IQUANT	3	Ich Filter
VCHRANGE	IQUANT	2	Vch Range
VCHRANGEMODE	TOGGLE	F	Vch Auto Range
VCHOFFSETENABLE	TOGGLE	T	Vch Offset Enable
VCHOFFSET	QUANT	0	Vch Offset (V)
VCHFILTER	IQUANT	3	Vch Filter
ACHRANGE	IQUANT	2	Ach Range
ACHOFFSETENABLE	TOGGLE	F	Ach Offset Enable
ACHOFFSET	QUANT	0	Ach Offset (V)
ACHFILTER	IQUANT	3	Ach Filter
IERANGELOWERLIMIT	IQUANT	1	I/E Range Lower Limit
IERANGEMODE	TOGGLE	F	I/E AutoRange
IERANGE	IQUANT	5	I/E Range
POSFEEDENABLE	TOGGLE	F	Positive Feedback IR Comp
POSFEEDRESISTANCE	QUANT	0	Positive Feedback Resistance (ohm)
ACHSELECT	IQUANT	0	Ach Select
CABLEID	IQUANT	14	Cable ID
DCCALDATE	LABEL	8/19/2019	DC Calibration Date
ACCALDATE	LABEL	8/19/2019	AC Calibration Date
THERMOSELECT	IQUANT	1	Thermo Select
FRAMEWORKVERSION	QUANT	6.33	Framework Version
INSTRUMENTVERSION	LABEL	3.50	Instrument Version
ZCURVE	TABLE
	Pt	Time	Freq	Zreal	Zimag	Zsig	Zmod	Zphz	Idc	Vdc	IERange
	#	s	Hz	ohm	ohm	V	ohm	°	A	V	#
	0	1	1000078	2300.129	-1944.581	1	3011.974	-40.21193	-3.509963E-006	0.0102767	8
	1	3	794390.6	2746.269	-1916.863	1	3349.083	-34.91458	2.273873E-006	0.0095483	8
	2	4	630984.4	3092.794	-1879.873	1	3619.295	-31.29222	7.759305E-006	0.0077743	8
	3	6	501234.4	3433.215	-1798.348	1	3875.696	-27.64594	-6.750811E-006	0.0091013	8
	4	7	398109.4	3735.686	-1687.489	1	4099.142	-24.30971	1.402105E-007	0.0091591	8
	5	9	316265.6	3999.85	-1575.649	1	4299.008	-21.50081	-1.039495E-006	0.0090816	8
	6	10	251203.1	4230.679	-1435.497	1	4467.583	-18.74241	3.154866E-006	0.0078472	8
	7	12	199546.9	4396.349	-1333.198	1	4594.051	-16.86998	-3.30412E-006	0.0091861	8
	8	14	158578.1	4631.317	-1288.469	1	4807.208	-15.54698	-6.703864E-006	0.0095188	8
	9	15	125953.1	4782.46	-1055.567	1	4897.565	-12.44656	4.876424E-006	0.0004157	7
	10	17	100078.1	4848.217	-976.526	1	4945.585	-11.38812	-3.569901E-007	0.0074626	7
	11	18	79453.13	4972.213	-948.2144	1	5061.819	-10.79682	1.225733E-006	0.0076646	7
	12	19	63140.62	5061.318	-921.9345	1	5144.6	-10.32342	-1.096947E-006	0.0105439	7
	13	21	50203.12	5153.891	-922.0066	1	5235.712	-10.14265	-3.592841E-007	0.0074449	7
	14	22	39890.62	5243.695	-935.1112	1	5326.422	-10.1113	-8.713055E-007	0.0082693	7
	15	23	31640.63	5337.725	-976.069	1	5426.234	-10.36275	-3.623049E-007	0.010148	7
	16	25	25171.88	5436.604	-1035.627	1	5534.364	-10.78514	9.582392E-007	0.0063252	7
	17	26	20015.62	5537.884	-1113.924	1	5648.804	-11.37306	-1.335273E-006	0.0104505	7
	18	28	15890.62	5665.552	-1220.745	1	5795.575	-12.1595	7.396484E-007	0.0087575	7
	19	29	12609.37	5780.293	-1350.722	1	5936.012	-13.1527	1.545984E-007	0.0068159	7
	20	30	10078.13	5928.655	-1502.247	1	6116.02	-14.21877	7.354517E-008	0.009682	7
	21	32	8015.625	6072.513	-1659.533	1	6295.194	-15.28491	1.530607E-007	0.006814	7
	22	33	6328.125	6257.949	-1879.448	1	6534.083	-16.71657	-1.48833E-006	0.010254	7
	23	35	5015.625	6472.574	-2132.227	1	6814.735	-18.23317	6.070053E-007	0.0064515	7
	24	36	3984.375	6708.503	-2427.22	1	7134.102	-19.89075	9.569621E-007	0.0063285	7
	25	38	3170.956	6959.59	-2746.643	1	7481.974	-21.53696	-3.589349E-007	0.0074359	7
	26	39	2527.573	7250.308	-3118.896	1	7892.685	-23.27614	-1.490276E-006	0.0102461	7
	27	41	1976.103	7617.702	-3586.979	1	8419.964	-25.21454	-3.666628E-007	0.0074335	7
	28	43	1577.524	7974.139	-4036.703	1	8937.665	-26.84964	-1.33447E-006	0.0104456	7
	29	44	1265.625	8398.734	-4573.734	1	9563.36	-28.57157	-1.263728E-006	0.0090953	7
	30	45	998.264	8878.265	-5245.38	1	10312.01	-30.57508	-1.264238E-006	0.0090909	7
	31	47	796.875	9352.15	-5947.304	1	11083.01	-32.45346	1.01112E-006	0.0082434	7
	32	48	627.7902	9892.44	-6851.152	1	12033.23	-34.70509	-1.341043E-006	0.0104541	7
	33	50	505.5147	10364.61	-7808.796	1	12976.99	-36.99473	8.57909E-008	0.0096798	7
	34	51	397.9953	10948.71	-9122.639	1	14251.2	-39.80161	1.298199E-009	0.0084608	6
	35	52	315.5048	11503.75	-10700.74	1	15711.21	-42.92883	1.359982E-009	0.008463	6
	36	54	252.4038	12058.32	-12582.31	1	17427.5	-46.21825	1.184061E-009	0.0084467	6
	37	55	198.6229	12706.3	-15115.38	1	19746.51	-49.9489	1.204178E-009	0.0084542	6
	38	57	158.3615	13390.26	-18108.28	1	22521.29	-53.51873	5.407975E-010	0.0084632	6
	39	58	125.558	14207.25	-21961.06	1	26155.96	-57.09998	9.21908E-010	0.0084511	6
	40	59	100.4464	15108.27	-26539.47	1	30538.55	-60.34821	-3.966211E-010	0.0084504	6
	41	61	79.00281	16434.29	-32763.09	1	36653.86	-63.3612	-5.591076E-010	0.0084566	6
	42	62	63.3446	17943.27	-40275.22	1	44091.43	-65.98625	-1.640073E-010	0.0084493	6
	43	63	49.86702	19668.78	-48598.51	1	52427.82	-67.96585	-8.441693E-010	0.0084443	6
	44	65	39.72458	22813.5	-59635.37	1	63850.08	-69.06566	1.375644E-009	0.0084414	6
	45	66	31.6723	26180.96	-72978.59	1	77532.68	-70.26463	-3.096274E-011	0.0084543	6
	46	68	24.93351	31305.84	-89615.23	1	94926	-70.74385	1.742041E-010	0.0084546	6
	47	69	19.86229	38076.93	-109163.1	1	115613.3	-70.77083	2.071384E-010	0.0084557	5
	48	70	15.83615	48741.77	-131236.3	1	139995.5	-69.62477	-1.702155E-009	0.0084512	5
	49	72	12.40079	59458.6	-163328.6	1	173814.7	-69.99633	1.408402E-009	0.0084493	5
	50	73	9.93114	74174.22	-192829.8	1	206603.9	-68.96018	-1.969576E-010	0.0084471	5
	51	75	7.944915	94319.3	-230058.6	1	248642.5	-67.70737	2.025866E-010	0.0084516	5
	52	77	6.317385	121384	-271164.8	1	297093.3	-65.88483	2.71656E-010	0.0084379	5
	53	79	5.008013	156050.9	-318273.7	1	354471.4	-63.8811	-1.191134E-010	0.008444	5
	54	81	3.945707	200355.4	-370348.1	1	421070.1	-61.58696	-1.120777E-010	0.0084619	5
	55	84	3.158693	249922.4	-421279.2	1	489834	-59.32162	-4.97572E-011	0.0084485	5
	56	87	2.504006	309530	-476105.5	1	567877.9	-56.97094	1.769183E-010	0.0084599	5
	57	90	1.998082	373574.9	-530927.2	1	649185.6	-54.86873	3.973114E-010	0.0084472	5
	58	93	1.584686	448166.7	-587953.8	1	739285.5	-52.68361	-1.723233E-011	0.0084006	5
	59	97	1.266892	519300.4	-647236.3	1	829811.9	-51.2587	3.115181E-010	0.0084565	5
	60	101	0.999041	602181.8	-715970.4	1	935540.8	-49.93379	-2.93206E-010	0.0084344	5
