EXPLAIN
TAG	EISPOT
TITLE	LABEL	Potentiostatic EIS	Test &Identifier
DATE	LABEL	10/22/2019	Date
TIME	LABEL	10:04:29	Time
NOTES	NOTES	1	&Notes...
	
PSTAT	PSTAT	REF600-11020	Potentiostat
VDC	POTEN	0.00000E+000	T	DC &Voltage (V)
FREQINIT	QUANT	1.00000E+006	Initial Fre&q. (Hz)
FREQFINAL	QUANT	1.00000E+000	Final Fre&q. (Hz)
PTSPERDEC	QUANT	1.00000E+001	Points/&decade
VAC	QUANT	2.50000E+001	AC &Voltage (mV rms)
AREA	QUANT	1.00000E-002	&Area (cm^2)
CONDIT	TWOPARAM	T	5.00000E+000	0.00000E+000	Conditionin&g	Time(s)	E(V)
DELAY	TWOPARAM	T	5.00000E+000	0.00000E+000	Init. De&lay	Time(s)	Stab.(mV/s)
SPEED	SELECTOR	1	&Optimize for:
ZGUESS	QUANT	1.00000E+005	E&stimated Z (ohms)
OCVCURVE	TABLE	19
	Pt	T	Vf	Vm	Ach	Over
	#	s	V vs. Ref.	V	V	bits
	0	0.258333	5.27252E-003	5.27252E-003	5.46033E-004	...........
	1	0.516667	5.26892E-003	5.08369E-003	5.42099E-004	...........
	2	0.775	5.24721E-003	4.92831E-003	5.49733E-004	...........
	3	1.03333	5.18758E-003	4.79249E-003	5.53799E-004	...........
	4	1.29167	5.08521E-003	4.67837E-003	5.42966E-004	...........
	5	1.55	4.95659E-003	4.57523E-003	5.46499E-004	...........
	6	1.80833	4.82398E-003	4.48488E-003	5.42233E-004	...........
	7	2.06667	4.70149E-003	4.40559E-003	5.42399E-004	...........
	8	2.325	4.59383E-003	4.34190E-003	5.48866E-004	...........
	9	2.58333	4.50075E-003	4.27766E-003	5.45533E-004	...........
	10	2.84167	4.42037E-003	4.22871E-003	5.44733E-004	...........
	11	3.1	4.35052E-003	4.17914E-003	5.40666E-004	...........
	12	3.35833	4.28921E-003	4.13329E-003	5.43666E-004	...........
	13	3.61667	4.23471E-003	4.09778E-003	5.43299E-004	...........
	14	3.875	4.18579E-003	4.06197E-003	5.40633E-004	...........
	15	4.13333	4.14176E-003	4.02454E-003	5.46933E-004	...........
	16	4.39167	4.10175E-003	3.99292E-003	5.43233E-004	...........
	17	4.65	4.06469E-003	3.96520E-003	5.42099E-004	...........
	18	4.90833	4.03013E-003	3.93978E-003	5.41366E-004	...........
EOC	QUANT	0.0040301	Open Circuit (V)
PSTATMODEL	IQUANT	4	Pstat Model
PSTATSECTION	LABEL	REF600-11020	Pstat Section
PSTATSERIALNO	LABEL	11020	Pstat Serial Number
CTRLMODE	IQUANT	1	Control Mode
IESTAB	IQUANT	0	I/E Stability
CASPEED	IQUANT	1	Control Amp Speed
CONVENTION	IQUANT	1	Current Convention
ICHRANGE	IQUANT	2	Ich Range
ICHRANGEMODE	TOGGLE	F	Ich Auto Range
ICHOFFSETENABLE	TOGGLE	T	Ich Offset Enable
ICHOFFSET	QUANT	0	Ich Offset (V)
ICHFILTER	IQUANT	3	Ich Filter
VCHRANGE	IQUANT	2	Vch Range
VCHRANGEMODE	TOGGLE	F	Vch Auto Range
VCHOFFSETENABLE	TOGGLE	T	Vch Offset Enable
VCHOFFSET	QUANT	0	Vch Offset (V)
VCHFILTER	IQUANT	3	Vch Filter
ACHRANGE	IQUANT	2	Ach Range
ACHOFFSETENABLE	TOGGLE	F	Ach Offset Enable
ACHOFFSET	QUANT	0	Ach Offset (V)
ACHFILTER	IQUANT	3	Ach Filter
IERANGELOWERLIMIT	IQUANT	1	I/E Range Lower Limit
IERANGEMODE	TOGGLE	F	I/E AutoRange
IERANGE	IQUANT	4	I/E Range
POSFEEDENABLE	TOGGLE	F	Positive Feedback IR Comp
POSFEEDRESISTANCE	QUANT	0	Positive Feedback Resistance (ohm)
ACHSELECT	IQUANT	0	Ach Select
CABLEID	IQUANT	14	Cable ID
DCCALDATE	LABEL	8/19/2019	DC Calibration Date
ACCALDATE	LABEL	8/19/2019	AC Calibration Date
THERMOSELECT	IQUANT	1	Thermo Select
FRAMEWORKVERSION	QUANT	6.33	Framework Version
INSTRUMENTVERSION	LABEL	3.50	Instrument Version
ZCURVE	TABLE
	Pt	Time	Freq	Zreal	Zimag	Zsig	Zmod	Zphz	Idc	Vdc	IERange
	#	s	Hz	ohm	ohm	V	ohm	°	A	V	#
	0	1	1000078	2438.954	-1720.341	1	2984.639	-35.19762	-2.819143E-006	0.0064124	8
	1	3	794390.6	2771.613	-1661.753	1	3231.604	-30.94529	2.642312E-006	0.0057221	8
	2	4	630984.4	3080.09	-1548.303	1	3447.346	-26.68781	-2.100957E-006	0.006	8
	3	5	501234.4	3323.472	-1428.239	1	3617.365	-23.25527	2.773133E-006	0.005262	8
	4	7	398109.4	3563.728	-1288.127	1	3789.384	-19.87264	1.076743E-006	0.0054299	8
	5	8	316265.6	3737.525	-1144.588	1	3908.858	-17.0268	-2.024812E-007	0.0054285	8
	6	9	251203.1	3879.2	-1003.794	1	4006.969	-14.50782	-4.751631E-006	0.0064446	8
	7	11	199546.9	3999.599	-907.1604	1	4101.187	-12.77921	-1.471272E-006	0.0060527	8
	8	12	158578.1	4068.925	-801.6105	1	4147.135	-11.145	-1.500063E-006	0.0056055	8
	9	13	125953.1	4180.395	-654.921	1	4231.385	-8.903861	7.847234E-007	0.0038922	7
	10	15	100078.1	4232.991	-614.8053	1	4277.405	-8.26393	-7.164027E-008	0.0056693	7
	11	16	79453.13	4289.468	-582.0617	1	4328.779	-7.727583	-9.114506E-009	0.0054492	7
	12	18	63140.62	4343.204	-564.8893	1	4379.785	-7.410452	-6.027935E-008	0.0055488	7
	13	19	50203.12	4395.652	-559.4373	1	4431.109	-7.253076	-3.117676E-010	0.0054716	7
	14	20	39890.62	4450.367	-564.84	1	4486.069	-7.233299	-9.207272E-008	0.0056473	7
	15	22	31640.63	4505.071	-582.9774	1	4542.634	-7.373369	1.153899E-007	0.0053263	7
	16	23	25171.88	4564.214	-611.5912	1	4605.008	-7.632004	5.127026E-008	0.0054481	7
	17	24	20015.62	4630.869	-651.2663	1	4676.44	-8.00534	-6.008867E-008	0.0055465	7
	18	26	15890.62	4697.997	-707.1603	1	4750.921	-8.560115	-1.0646E-008	0.0055572	7
	19	27	12609.37	4776.047	-772.76	1	4838.159	-9.190755	3.273826E-010	0.0054813	7
	20	28	10078.13	4857.929	-847.3434	1	4931.274	-9.89427	-5.965265E-008	0.0055376	7
	21	30	8015.625	4952.166	-936.4628	1	5039.932	-10.70828	-6.950089E-008	0.0056513	7
	22	31	6328.125	5058.886	-1048.345	1	5166.368	-11.7076	-1.690079E-009	0.0054408	7
	23	32	5015.625	5175.75	-1173.613	1	5307.142	-12.77591	-4.925751E-008	0.0056108	7
	24	34	3984.375	5299.716	-1318.218	1	5461.198	-13.96793	8.224946E-008	0.0053288	7
	25	35	3170.956	5442.263	-1477.288	1	5639.203	-15.18684	1.078295E-007	0.0054012	7
	26	37	2527.573	5589.866	-1665.026	1	5832.573	-16.58696	-8.234736E-009	0.0055231	7
	27	38	1976.103	5761.353	-1896.038	1	6065.323	-18.21617	-7.923504E-008	0.0056113	7
	28	39	1577.524	5925.001	-2149.348	1	6302.804	-19.9387	-4.911562E-008	0.0056154	7
	29	41	1265.625	6086.854	-2440.597	1	6557.919	-21.84891	8.379295E-008	0.0053285	7
	30	42	998.264	6264.618	-2828.902	1	6873.727	-24.30242	5.234625E-009	0.005448	7
	31	43	796.875	6443.458	-3285.442	1	7232.723	-27.01649	-5.866115E-008	0.0056808	7
	32	45	627.7902	6630.426	-3889.36	1	7686.98	-30.39558	-5.627703E-008	0.0056823	7
	33	46	505.5147	6818.066	-4558.994	1	8201.856	-33.76921	6.025677E-008	0.0054095	7
	34	47	397.9953	7043.774	-5503.425	1	8938.816	-38.00114	4.756055E-009	0.0055269	7
	35	49	315.5048	7298.142	-6647.294	1	9871.65	-42.32789	3.126043E-010	0.005468	6
	36	50	252.4038	7588.016	-8017.584	1	11039.01	-46.57676	1.879834E-010	0.0054646	6
	37	52	198.6229	7971.872	-9844.66	1	12667.6	-51.00063	6.044715E-010	0.0054623	6
	38	53	158.3615	8432.542	-11984.59	1	14653.95	-54.86919	9.801682E-010	0.0054549	6
	39	54	125.558	9048.737	-14674.27	1	17239.89	-58.34038	2.909597E-010	0.0054576	6
	40	56	100.4464	9809.51	-17819.56	1	20341.18	-61.16761	4.876759E-010	0.0054566	6
	41	57	79.00281	10921.77	-22003.65	1	24565.13	-63.60196	1.139125E-010	0.0054533	6
	42	58	63.3446	12032.09	-26690.45	1	29277.14	-65.73408	-4.492877E-011	0.0054524	6
	43	60	49.86702	14125.65	-32535.25	1	35469.37	-66.53122	-3.835681E-010	0.0054492	6
	44	61	39.72458	16335.28	-39549.56	1	42790.29	-67.55775	7.906092E-010	0.0054583	6
	45	63	31.6723	19295.06	-47826.55	1	51572.07	-68.02896	-1.171229E-010	0.0054608	6
	46	64	24.93351	23449.02	-58071.02	1	62626.67	-68.0112	5.227219E-011	0.0054575	6
	47	65	19.86229	28500.02	-69556.28	1	75168.66	-67.7191	6.395933E-010	0.0054637	6
	48	67	15.83615	34587.73	-82918.16	1	89842.81	-67.35748	-7.913327E-010	0.0054571	6
	49	68	12.40079	43286.66	-99231.2	1	108261.6	-66.43221	1.607562E-010	0.0054599	5
	50	70	9.93114	53473.15	-116371.1	1	128068.8	-65.32097	-4.471193E-010	0.0054664	5
	51	71	7.944915	65122.41	-135394.9	1	150242.1	-64.31331	8.90112E-010	0.005469	5
	52	73	6.317385	79039.05	-157912	1	176588.1	-63.41084	-6.943358E-011	0.00548	5
	53	75	5.008013	95115.9	-183289.3	1	206499.4	-62.57347	5.951808E-011	0.005458	5
	54	78	3.945707	113306.7	-213117.4	1	241365.8	-62.00206	3.125029E-010	0.0054726	5
	55	80	3.158693	131872.6	-245569.6	1	278737.9	-61.76389	-9.848017E-011	0.005462	5
	56	84	2.504006	152941.3	-285533.8	1	323914.5	-61.82503	3.465231E-010	0.0054679	5
	57	86	1.998082	175171.2	-331803.1	1	375204.3	-62.16875	9.575389E-011	0.005512	5
	58	89	1.584686	199602.6	-389082.1	1	437294	-62.84176	9.900306E-011	0.0054584	5
	59	93	1.266892	228196.4	-457645.9	1	511383.8	-63.49774	7.970696E-011	0.0055059	5
	60	97	0.999041	263079	-544867.8	1	605054.9	-64.22732	1.322437E-012	0.0054193	5
