EXPLAIN
TAG	EISPOT
TITLE	LABEL	Potentiostatic IDE	Test &Identifier
DATE	LABEL	9/12/2019	Date
TIME	LABEL	11:18:55	Time
NOTES	NOTES	1	&Notes...
	
PSTAT	PSTAT	REF600-11020	Potentiostat
VDC	POTEN	0.00000E+000	T	DC &Voltage (V)
FREQINIT	QUANT	1.00000E+006	Initial Fre&q. (Hz)
FREQFINAL	QUANT	1.00000E+000	Final Fre&q. (Hz)
PTSPERDEC	QUANT	1.00000E+001	Points/&decade
VAC	QUANT	2.50000E+001	AC &Voltage (mV rms)
AREA	QUANT	1.00000E-002	&Area (cm^2)
CONDIT	TWOPARAM	T	5.00000E+000	0.00000E+000	Conditionin&g	Time(s)	E(V)
DELAY	TWOPARAM	T	5.00000E+000	0.00000E+000	Init. De&lay	Time(s)	Stab.(mV/s)
SPEED	SELECTOR	1	&Optimize for:
ZGUESS	QUANT	1.00000E+007	E&stimated Z (ohms)
OCVCURVE	TABLE	19
	Pt	T	Vf	Vm	Ach	Over
	#	s	V vs. Ref.	V	V	bits
	0	0.258333	1.66587E-002	1.66587E-002	5.88499E-004	...........
	1	0.516667	1.66691E-002	1.72016E-002	5.86999E-004	...........
	2	0.775	1.67329E-002	1.77214E-002	5.88332E-004	...........
	3	1.03333	1.69136E-002	1.82201E-002	5.87499E-004	...........
	4	1.29167	1.72382E-002	1.87240E-002	5.88632E-004	...........
	5	1.55	1.76723E-002	1.91667E-002	5.86965E-004	...........
	6	1.80833	1.81566E-002	1.96017E-002	5.87432E-004	...........
	7	2.06667	1.86439E-002	2.00167E-002	5.85199E-004	...........
	8	2.325	1.91110E-002	2.04165E-002	5.86332E-004	...........
	9	2.58333	1.95531E-002	2.07982E-002	5.86099E-004	...........
	10	2.84167	1.99729E-002	2.11709E-002	5.89365E-004	...........
	11	3.1	2.03741E-002	2.15186E-002	5.86699E-004	...........
	12	3.35833	2.07589E-002	2.18594E-002	5.87999E-004	...........
	13	3.61667	2.11282E-002	2.21863E-002	5.89432E-004	...........
	14	3.875	2.14827E-002	2.24944E-002	5.89299E-004	...........
	15	4.13333	2.18230E-002	2.27960E-002	5.90932E-004	...........
	16	4.39167	2.21495E-002	2.30878E-002	5.88365E-004	...........
	17	4.65	2.24634E-002	2.33707E-002	5.89532E-004	...........
	18	4.90833	2.27654E-002	2.36132E-002	5.87265E-004	...........
EOC	QUANT	0.0227654	Open Circuit (V)
PSTATMODEL	IQUANT	4	Pstat Model
PSTATSECTION	LABEL	REF600-11020	Pstat Section
PSTATSERIALNO	LABEL	11020	Pstat Serial Number
CTRLMODE	IQUANT	1	Control Mode
IESTAB	IQUANT	0	I/E Stability
CASPEED	IQUANT	1	Control Amp Speed
CONVENTION	IQUANT	1	Current Convention
ICHRANGE	IQUANT	2	Ich Range
ICHRANGEMODE	TOGGLE	F	Ich Auto Range
ICHOFFSETENABLE	TOGGLE	T	Ich Offset Enable
ICHOFFSET	QUANT	0	Ich Offset (V)
ICHFILTER	IQUANT	3	Ich Filter
VCHRANGE	IQUANT	2	Vch Range
VCHRANGEMODE	TOGGLE	F	Vch Auto Range
VCHOFFSETENABLE	TOGGLE	T	Vch Offset Enable
VCHOFFSET	QUANT	0	Vch Offset (V)
VCHFILTER	IQUANT	3	Vch Filter
ACHRANGE	IQUANT	2	Ach Range
ACHOFFSETENABLE	TOGGLE	F	Ach Offset Enable
ACHOFFSET	QUANT	0	Ach Offset (V)
ACHFILTER	IQUANT	3	Ach Filter
IERANGELOWERLIMIT	IQUANT	1	I/E Range Lower Limit
IERANGEMODE	TOGGLE	F	I/E AutoRange
IERANGE	IQUANT	3	I/E Range
POSFEEDENABLE	TOGGLE	F	Positive Feedback IR Comp
POSFEEDRESISTANCE	QUANT	0	Positive Feedback Resistance (ohm)
ACHSELECT	IQUANT	0	Ach Select
CABLEID	IQUANT	14	Cable ID
DCCALDATE	LABEL	8/19/2019	DC Calibration Date
ACCALDATE	LABEL	8/19/2019	AC Calibration Date
THERMOSELECT	IQUANT	1	Thermo Select
FRAMEWORKVERSION	QUANT	6.33	Framework Version
INSTRUMENTVERSION	LABEL	3.50	Instrument Version
ZCURVE	TABLE
	Pt	Time	Freq	Zreal	Zimag	Zsig	Zmod	Zphz	Idc	Vdc	IERange
	#	s	Hz	ohm	ohm	V	ohm	°	A	V	#
	0	2	1000078	2465.61	-1840.053	1	3076.528	-36.7335	-2.264914E-006	0.0258484	8
	1	3	794390.6	2846.062	-1784.249	1	3359.109	-32.08436	3.939295E-006	0.0241286	8
	2	5	630984.4	3199.639	-1668.707	1	3608.638	-27.54338	-2.732081E-006	0.0251908	8
	3	6	501234.4	3479.39	-1521.96	1	3797.699	-23.6256	3.006575E-006	0.0239852	8
	4	8	398109.4	3709.069	-1373.504	1	3955.213	-20.32007	2.19536E-006	0.0239541	8
	5	9	316265.6	3913.277	-1203.212	1	4094.076	-17.09105	5.013293E-007	0.024176	8
	6	11	251203.1	4038.94	-1037.474	1	4170.059	-14.40599	2.337227E-006	0.0239394	8
	7	12	199546.9	4137.923	-883.3177	1	4231.153	-12.05	4.415615E-006	0.023571	8
	8	13	158578.1	4239.488	-787.1105	1	4311.938	-10.51787	3.102942E-007	0.0242743	8
	9	15	125953.1	4324.058	-645.0072	1	4371.9	-8.484088	-1.022685E-006	0.0273988	7
	10	16	100078.1	4369.225	-572.5191	1	4406.575	-7.46519	1.453987E-007	0.0241665	7
	11	18	79453.13	4415.63	-531.7823	1	4447.536	-6.867162	-5.954328E-008	0.024489	7
	12	19	63140.62	4457.604	-507.9402	1	4486.451	-6.500766	-5.91026E-008	0.0244854	7
	13	20	50203.12	4498.209	-495.9846	1	4525.471	-6.292168	5.13859E-008	0.0242024	7
	14	22	39890.62	4538.747	-501.7646	1	4566.398	-6.308509	1.333779E-009	0.0242933	7
	15	23	31640.63	4580.813	-511.3337	1	4609.264	-6.36928	1.459457E-007	0.0241458	7
	16	24	25171.88	4626.179	-538.0343	1	4657.361	-6.633816	2.387433E-008	0.024272	7
	17	26	20015.62	4672.941	-578.5796	1	4708.623	-7.058148	3.129566E-008	0.0243325	7
	18	27	15890.62	4722.272	-635.3866	1	4764.826	-7.663183	3.261458E-008	0.0243328	7
	19	28	12609.37	4781.334	-702.3912	1	4832.651	-8.357134	-4.842614E-008	0.024396	7
	20	30	10078.13	4842.384	-787.8303	1	4906.054	-9.240755	1.46402E-007	0.0241451	7
	21	31	8015.625	4913.314	-891.5191	1	4993.542	-10.28441	-7.255132E-008	0.0244599	7
	22	32	6328.125	4993.515	-1024	1	5097.427	-11.58876	-6.265704E-009	0.0243951	7
	23	34	5015.625	5084.024	-1176.767	1	5218.437	-13.03239	1.663482E-009	0.0242876	7
	24	35	3984.375	5184.333	-1362.693	1	5360.432	-14.72697	1.469161E-007	0.0241422	7
	25	36	3170.956	5298.072	-1579.744	1	5528.576	-16.60318	3.281773E-008	0.0243285	7
	26	38	2527.573	5424.144	-1837.694	1	5726.994	-18.71633	-7.31842E-008	0.0244615	7
	27	39	1976.103	5580.349	-2172.468	1	5988.314	-21.2713	9.464334E-008	0.0241684	7
	28	40	1577.524	5740.778	-2544.154	1	6279.271	-23.9016	-3.737283E-009	0.0243916	7
	29	42	1265.625	5928.485	-2972.87	1	6632.111	-26.63172	-4.433577E-008	0.0244122	7
	30	43	998.264	6132.834	-3518.773	1	7070.602	-29.84547	2.430285E-008	0.0242575	7
	31	44	796.875	6357.406	-4158.332	1	7596.601	-33.1884	-4.06898E-008	0.0244918	7
	32	45	627.7902	6620.394	-4973.781	1	8280.586	-36.91687	-1.228649E-008	0.0243995	7
	33	47	505.5147	6893.787	-5862.53	1	9049.506	-40.3781	1.274057E-009	0.0242829	7
	34	48	397.9953	7229.795	-7074.548	1	10115.29	-44.37818	9.606074E-010	0.0243068	6
	35	49	315.5048	7594.796	-8523.067	1	11415.94	-48.29618	6.796875E-010	0.0243082	6
	36	51	252.4038	7998.719	-10226.94	1	12983.44	-51.97023	8.918596E-011	0.0243043	6
	37	52	198.6229	8498.431	-12480	1	15098.8	-55.74656	9.576664E-010	0.0243063	6
	38	53	158.3615	9056.871	-15102.64	1	17610.13	-59.04939	1.610149E-009	0.0243005	6
	39	55	125.558	9728.62	-18411.34	1	20823.63	-62.14787	4.288133E-010	0.0243018	6
	40	56	100.4464	10506.81	-22329.98	1	24678.35	-64.80185	1.68737E-009	0.0243005	6
	41	58	79.00281	11528.07	-27473.02	1	29793.67	-67.23638	1.464068E-009	0.0242977	6
	42	59	63.3446	12727.66	-33726.7	1	36048.36	-69.32468	6.50786E-010	0.0242968	6
	43	60	49.86702	14020.67	-41079.53	1	43406.3	-71.15495	1.224063E-009	0.0243004	6
	44	62	39.72458	16078.94	-50475.75	1	52974.84	-72.33083	8.949194E-010	0.0243004	6
	45	63	31.6723	18426.01	-61857.56	1	64543.6	-73.41236	7.700422E-010	0.0242967	6
	46	64	24.93351	21962.57	-76460.73	1	79552.48	-73.97382	7.522475E-010	0.0242991	6
	47	66	19.86229	26477.09	-93488.84	1	97165.8	-74.18729	1.116644E-009	0.0242943	6
	48	67	15.83615	33237.09	-113432.8	1	118202	-73.66882	-1.137327E-009	0.0242983	5
	49	68	12.40079	41593.92	-141304.2	1	147298.7	-73.59782	-5.701354E-010	0.0243015	5
	50	70	9.93114	50873.46	-169694.6	1	177156.3	-73.31157	-1.630628E-010	0.0243051	5
	51	71	7.944915	64359.45	-203979.5	1	213892	-72.48852	-2.125864E-010	0.0242999	5
	52	73	6.317385	82785.42	-246565.1	1	260091.8	-71.44027	4.050377E-010	0.0242904	5
	53	75	5.008013	107361.3	-296028.4	1	314895.6	-70.0657	-9.888191E-012	0.024299	5
	54	78	3.945707	139557.1	-354401.3	1	380889	-68.50633	2.223981E-010	0.0243044	5
	55	80	3.158693	177294.1	-416419.3	1	452590.6	-66.93771	-6.824025E-011	0.0242859	5
	56	84	2.504006	226606.3	-488788.5	1	538762.1	-65.12718	3.972448E-010	0.0242968	5
	57	86	1.998082	285162.5	-566107.4	1	633873.2	-63.26445	1.396344E-010	0.0243423	5
	58	89	1.584686	354488.7	-652150.8	1	742268.8	-61.47289	2.008197E-010	0.0243111	5
	59	93	1.266892	436615.1	-743039.8	1	861824.1	-59.56122	-4.267517E-011	0.0243433	5
	60	97	0.999041	532802	-845778.1	1	999609	-57.79092	1.989445E-010	0.0242823	5
