EXPLAIN
TAG	EISPOT
TITLE	LABEL	Potentiostatic EIS	Test &Identifier
DATE	LABEL	11/22/2019	Date
TIME	LABEL	10:51:40	Time
NOTES	NOTES	4	&Notes...
	
	
	
	
PSTAT	PSTAT	REF600-11020	Potentiostat
VDC	POTEN	0.00000E+000	T	DC &Voltage (V)
FREQINIT	QUANT	1.00000E+006	Initial Fre&q. (Hz)
FREQFINAL	QUANT	1.00000E+000	Final Fre&q. (Hz)
PTSPERDEC	QUANT	1.00000E+001	Points/&decade
VAC	QUANT	2.50000E+001	AC &Voltage (mV rms)
AREA	QUANT	1.00000E-002	&Area (cm^2)
CONDIT	TWOPARAM	T	5.00000E+000	0.00000E+000	Conditionin&g	Time(s)	E(V)
DELAY	TWOPARAM	T	5.00000E+000	0.00000E+000	Init. De&lay	Time(s)	Stab.(mV/s)
SPEED	SELECTOR	0	&Optimize for:
ZGUESS	QUANT	1.00000E+005	E&stimated Z (ohms)
OCVCURVE	TABLE	19
	Pt	T	Vf	Vm	Ach	Over
	#	s	V vs. Ref.	V	V	bits
	0	0.258333	4.69155E-002	4.69155E-002	6.11632E-004	...........
	1	0.516667	4.69810E-002	5.03443E-002	6.12732E-004	...........
	2	0.775	4.73810E-002	5.34766E-002	6.13698E-004	...........
	3	1.03333	4.85030E-002	5.63786E-002	6.08698E-004	...........
	4	1.29167	5.04857E-002	5.90795E-002	6.08298E-004	...........
	5	1.55	5.30784E-002	6.16036E-002	6.09298E-004	...........
	6	1.80833	5.58944E-002	6.39901E-002	6.07265E-004	...........
	7	2.06667	5.86617E-002	6.62441E-002	6.06898E-004	...........
	8	2.325	6.12687E-002	6.83792E-002	6.03998E-004	...........
	9	2.58333	6.37028E-002	7.04285E-002	6.08698E-004	...........
	10	2.84167	6.59865E-002	7.23536E-002	6.12732E-004	...........
	11	3.1	6.81444E-002	7.42172E-002	6.06532E-004	...........
	12	3.35833	7.01946E-002	7.60291E-002	6.10298E-004	...........
	13	3.61667	7.21510E-002	7.76978E-002	6.12132E-004	...........
	14	3.875	7.40222E-002	7.93384E-002	6.11765E-004	...........
	15	4.13333	7.58141E-002	8.10146E-002	6.12665E-004	...........
	16	4.39167	7.75375E-002	8.25551E-002	6.11832E-004	...........
	17	4.65	7.92042E-002	8.39478E-002	6.14265E-004	...........
	18	4.90833	8.08131E-002	8.54447E-002	6.16932E-004	...........
EOC	QUANT	0.0808131	Open Circuit (V)
PSTATMODEL	IQUANT	4	Pstat Model
PSTATSECTION	LABEL	REF600-11020	Pstat Section
PSTATSERIALNO	LABEL	11020	Pstat Serial Number
CTRLMODE	IQUANT	1	Control Mode
IESTAB	IQUANT	0	I/E Stability
CASPEED	IQUANT	1	Control Amp Speed
CONVENTION	IQUANT	1	Current Convention
ICHRANGE	IQUANT	2	Ich Range
ICHRANGEMODE	TOGGLE	F	Ich Auto Range
ICHOFFSETENABLE	TOGGLE	T	Ich Offset Enable
ICHOFFSET	QUANT	0	Ich Offset (V)
ICHFILTER	IQUANT	3	Ich Filter
VCHRANGE	IQUANT	2	Vch Range
VCHRANGEMODE	TOGGLE	F	Vch Auto Range
VCHOFFSETENABLE	TOGGLE	T	Vch Offset Enable
VCHOFFSET	QUANT	0	Vch Offset (V)
VCHFILTER	IQUANT	3	Vch Filter
ACHRANGE	IQUANT	2	Ach Range
ACHOFFSETENABLE	TOGGLE	F	Ach Offset Enable
ACHOFFSET	QUANT	0	Ach Offset (V)
ACHFILTER	IQUANT	3	Ach Filter
IERANGELOWERLIMIT	IQUANT	1	I/E Range Lower Limit
IERANGEMODE	TOGGLE	F	I/E AutoRange
IERANGE	IQUANT	6	I/E Range
POSFEEDENABLE	TOGGLE	F	Positive Feedback IR Comp
POSFEEDRESISTANCE	QUANT	0	Positive Feedback Resistance (ohm)
ACHSELECT	IQUANT	0	Ach Select
CABLEID	IQUANT	14	Cable ID
DCCALDATE	LABEL	8/19/2019	DC Calibration Date
ACCALDATE	LABEL	8/19/2019	AC Calibration Date
THERMOSELECT	IQUANT	1	Thermo Select
FRAMEWORKVERSION	QUANT	6.33	Framework Version
INSTRUMENTVERSION	LABEL	3.50	Instrument Version
ZCURVE	TABLE
	Pt	Time	Freq	Zreal	Zimag	Zsig	Zmod	Zphz	Idc	Vdc	IERange
	#	s	Hz	ohm	ohm	V	ohm	°	A	V	#
	0	2	1000078	2290.973	-1871.514	1	2958.229	-39.24566	-1.812294E-006	0.0830558	8
	1	2	794390.6	2650.477	-1908.608	1	3266.162	-35.75764	-2.9055E-006	0.0832551	8
	2	2	630984.4	3015.793	-1893.839	1	3561.129	-32.12774	7.824245E-006	0.0810617	8
	3	3	501234.4	3363.962	-1841.346	1	3834.944	-28.69517	-6.290187E-006	0.0827463	8
	4	3	398109.4	3700.452	-1735.474	1	4087.202	-25.12609	4.887856E-007	0.0819634	8
	5	3	316265.6	3977.156	-1648.217	1	4305.158	-22.51015	2.222423E-006	0.0817392	8
	6	3	251203.1	4243.35	-1502.656	1	4501.555	-19.50009	6.970132E-006	0.081471	8
	7	4	199546.9	4462.03	-1361.535	1	4665.135	-16.96894	-4.78838E-006	0.0826326	8
	8	4	158578.1	4705.857	-1274.791	1	4875.468	-15.15734	6.985677E-006	0.0814888	8
	9	4	125953.1	4825.881	-1004.236	1	4929.261	-11.75513	-2.575733E-006	0.0858114	7
	10	5	100078.1	4963.279	-914.6074	1	5046.845	-10.44104	8.876593E-007	0.0819875	7
	11	5	79453.13	5046.885	-819.1469	1	5112.93	-9.219136	-1.182535E-006	0.0839608	7
	12	5	63140.62	5144.616	-751.6345	1	5199.233	-8.312172	4.088143E-007	0.0827927	7
	13	6	50203.12	5225.086	-697.3913	1	5271.421	-7.602326	1.085336E-006	0.0814475	7
	14	6	39890.62	5268.99	-648.3154	1	5308.726	-7.01462	-1.321103E-006	0.0837711	7
	15	6	31640.63	5353.179	-632.4261	1	5390.407	-6.73771	6.496862E-007	0.0824383	7
	16	7	25171.88	5392.498	-619.8118	1	5428.001	-6.556783	-1.314347E-006	0.0833811	7
	17	7	20015.62	5474.542	-636.4526	1	5511.414	-6.631253	6.706299E-008	0.0832537	7
	18	7	15890.62	5531.407	-646.6243	1	5569.074	-6.667643	1.125208E-007	0.0807494	7
	19	8	12609.37	5593.557	-675.9253	1	5634.249	-6.890213	-1.1832E-006	0.0839543	7
	20	8	10078.13	5665.127	-723.2989	1	5711.114	-7.275912	5.127332E-007	0.0804233	7
	21	8	8015.625	5753.377	-787.4422	1	5807.015	-7.793427	1.049945E-006	0.0803864	7
	22	9	6328.125	5820.988	-861.0262	1	5884.324	-8.41404	1.051205E-006	0.080389	7
	23	9	5015.625	5874.04	-956.942	1	5951.477	-9.252796	-7.922572E-007	0.0820463	7
	24	9	3984.375	5970.634	-1110.911	1	6073.104	-10.54007	-6.719767E-007	0.0839269	7
	25	10	3170.956	6053.22	-1235.75	1	6178.07	-11.53825	1.050088E-006	0.0803844	7
	26	10	2527.573	6126.452	-1424.306	1	6289.838	-13.0879	4.114569E-007	0.0827861	7
	27	10	1976.103	6214.181	-1686.939	1	6439.084	-15.18783	1.147398E-007	0.0807415	7
	28	11	1577.524	6301.397	-1965.444	1	6600.801	-17.32302	4.143488E-007	0.0827833	7
	29	11	1265.625	6404.424	-2354.458	1	6823.498	-20.18493	-7.923556E-007	0.0820286	7
	30	12	998.264	6526.821	-2836.76	1	7116.643	-23.49127	-1.130573E-006	0.0827555	7
	31	12	796.875	6688.419	-3432.211	1	7517.647	-27.16496	1.168863E-006	0.0806166	7
	32	13	627.7902	6859.821	-4189.453	1	8037.951	-31.41338	6.556269E-007	0.082428	7
	33	13	505.5147	7045.993	-5029.699	1	8657.014	-35.52069	4.140653E-007	0.0827744	7
	34	13	397.9953	7309.991	-6161.909	1	9560.6	-40.12899	-3.735216E-009	0.0822218	7
	35	14	315.5048	7637.309	-7524.35	1	10721.21	-44.57314	-3.941527E-009	0.0821552	6
	36	14	252.4038	8027.947	-9124.461	1	12153.34	-48.65781	-4.013111E-009	0.0821687	6
	37	14	198.6229	8561.393	-11219.27	1	14112.74	-52.65286	-3.927707E-009	0.08217	6
	38	15	158.3615	9210.117	-13633.59	1	16453	-55.95918	-4.415617E-009	0.0821606	6
	39	15	125.558	10060.27	-16621.37	1	19428.82	-58.81511	-4.112216E-009	0.0821664	6
	40	15	100.4464	11105.62	-20055.71	1	22925.23	-61.02499	-2.883295E-009	0.0821664	6
	41	16	79.00281	12586.34	-24547.97	1	27586.57	-62.85468	-3.297482E-009	0.0821683	6
	42	16	63.3446	13966.13	-29515.79	1	32653.25	-64.67767	-4.056378E-009	0.0821549	6
	43	16	49.86702	16285.98	-35780.64	1	39312.68	-65.52679	-2.76473E-009	0.0821528	6
	44	17	39.72458	19217.39	-43032.5	1	47128.59	-65.93549	-3.723444E-009	0.0821615	6
	45	17	31.6723	22718.68	-51467.55	1	56258.75	-66.1825	-3.691017E-009	0.0821697	6
	46	17	24.93351	27043.8	-62144.29	1	67773.74	-66.48241	-4.847101E-009	0.0821656	6
	47	18	19.86229	32324.89	-74153.65	1	80892.91	-66.44676	-5.648788E-009	0.082172	6
	48	18	15.83615	38398.61	-88825.6	1	96770	-66.62155	-3.763313E-009	0.082155	6
	49	18	12.40079	48329.27	-105641.8	1	116171.9	-65.41674	-2.360458E-009	0.0821662	5
	50	19	9.93114	58659.89	-124429.2	1	137563.1	-64.75932	-4.258343E-009	0.0821662	5
	51	19	7.944915	71745.18	-145496.6	1	162224	-63.75183	-4.382476E-009	0.0821756	5
	52	20	6.317385	87338.18	-170508.6	1	191575.4	-62.87749	-4.19457E-009	0.0821749	5
	53	21	5.008013	107412.2	-197908.4	1	225178	-61.50968	-3.282711E-009	0.0821707	5
	54	22	3.945707	131593.1	-229552	1	264595.7	-60.17604	-3.427714E-009	0.0821622	5
	55	23	3.158693	157325	-261996	1	305602.7	-59.01576	-3.122469E-009	0.0821472	5
	56	25	2.504006	187147.7	-300661.9	1	354149.5	-58.0997	-3.023183E-009	0.0821568	5
	57	26	1.998082	219860	-341257.1	1	405949.3	-57.20773	-3.127001E-009	0.0821127	5
	58	28	1.584686	255456.5	-389910.2	1	466141.6	-56.76848	-2.964423E-009	0.0821215	5
	59	29	1.266892	294376.9	-445664.1	1	534110.8	-56.55383	-2.945393E-009	0.0821532	5
	60	32	0.999041	340781.7	-512128.4	1	615148.5	-56.35932	-2.722405E-009	0.0821831	5
