EXPLAIN
TAG	EISPOT
TITLE	LABEL	Potentiostatic EIS	Test &Identifier
DATE	LABEL	11/11/2019	Date
TIME	LABEL	14:35:22	Time
NOTES	NOTES	3	&Notes...
	
	
	
PSTAT	PSTAT	REF600-11020	Potentiostat
VDC	POTEN	0.00000E+000	T	DC &Voltage (V)
FREQINIT	QUANT	1.00000E+006	Initial Fre&q. (Hz)
FREQFINAL	QUANT	1.00000E+000	Final Fre&q. (Hz)
PTSPERDEC	QUANT	1.00000E+001	Points/&decade
VAC	QUANT	2.50000E+001	AC &Voltage (mV rms)
AREA	QUANT	1.00000E-002	&Area (cm^2)
CONDIT	TWOPARAM	T	5.00000E+000	0.00000E+000	Conditionin&g	Time(s)	E(V)
DELAY	TWOPARAM	T	5.00000E+000	0.00000E+000	Init. De&lay	Time(s)	Stab.(mV/s)
SPEED	SELECTOR	1	&Optimize for:
ZGUESS	QUANT	1.00000E+005	E&stimated Z (ohms)
OCVCURVE	TABLE	19
	Pt	T	Vf	Vm	Ach	Over
	#	s	V vs. Ref.	V	V	bits
	0	0.258333	5.81745E-003	5.81745E-003	5.29733E-004	...........
	1	0.516667	5.81762E-003	5.82605E-003	5.26133E-004	...........
	2	0.775	5.81887E-003	5.84714E-003	5.27166E-004	...........
	3	1.03333	5.82348E-003	5.87963E-003	5.30233E-004	...........
	4	1.29167	5.83445E-003	5.91653E-003	5.28700E-004	...........
	5	1.55	5.85385E-003	5.95833E-003	5.26433E-004	...........
	6	1.80833	5.88177E-003	6.00263E-003	5.22833E-004	...........
	7	2.06667	5.91677E-003	6.05092E-003	5.20700E-004	...........
	8	2.325	5.95710E-003	6.10222E-003	5.31300E-004	...........
	9	2.58333	6.00151E-003	6.15572E-003	5.27800E-004	...........
	10	2.84167	6.04918E-003	6.20617E-003	5.22933E-004	...........
	11	3.1	6.09916E-003	6.25557E-003	5.22200E-004	...........
	12	3.35833	6.15015E-003	6.30416E-003	5.26333E-004	...........
	13	3.61667	6.20095E-003	6.35285E-003	5.26066E-004	...........
	14	3.875	6.25099E-003	6.40192E-003	5.29200E-004	...........
	15	4.13333	6.30035E-003	6.45157E-003	5.29833E-004	...........
	16	4.39167	6.34938E-003	6.49994E-003	5.26300E-004	...........
	17	4.65	6.39837E-003	6.54960E-003	5.33633E-004	...........
	18	4.90833	6.44743E-003	6.59974E-003	5.26933E-004	...........
EOC	QUANT	0.0064474	Open Circuit (V)
PSTATMODEL	IQUANT	4	Pstat Model
PSTATSECTION	LABEL	REF600-11020	Pstat Section
PSTATSERIALNO	LABEL	11020	Pstat Serial Number
CTRLMODE	IQUANT	1	Control Mode
IESTAB	IQUANT	0	I/E Stability
CASPEED	IQUANT	1	Control Amp Speed
CONVENTION	IQUANT	1	Current Convention
ICHRANGE	IQUANT	2	Ich Range
ICHRANGEMODE	TOGGLE	F	Ich Auto Range
ICHOFFSETENABLE	TOGGLE	T	Ich Offset Enable
ICHOFFSET	QUANT	0	Ich Offset (V)
ICHFILTER	IQUANT	3	Ich Filter
VCHRANGE	IQUANT	2	Vch Range
VCHRANGEMODE	TOGGLE	F	Vch Auto Range
VCHOFFSETENABLE	TOGGLE	T	Vch Offset Enable
VCHOFFSET	QUANT	0	Vch Offset (V)
VCHFILTER	IQUANT	3	Vch Filter
ACHRANGE	IQUANT	2	Ach Range
ACHOFFSETENABLE	TOGGLE	F	Ach Offset Enable
ACHOFFSET	QUANT	0	Ach Offset (V)
ACHFILTER	IQUANT	3	Ach Filter
IERANGELOWERLIMIT	IQUANT	1	I/E Range Lower Limit
IERANGEMODE	TOGGLE	F	I/E AutoRange
IERANGE	IQUANT	5	I/E Range
POSFEEDENABLE	TOGGLE	F	Positive Feedback IR Comp
POSFEEDRESISTANCE	QUANT	0	Positive Feedback Resistance (ohm)
ACHSELECT	IQUANT	0	Ach Select
CABLEID	IQUANT	14	Cable ID
DCCALDATE	LABEL	8/19/2019	DC Calibration Date
ACCALDATE	LABEL	8/19/2019	AC Calibration Date
THERMOSELECT	IQUANT	1	Thermo Select
FRAMEWORKVERSION	QUANT	6.33	Framework Version
INSTRUMENTVERSION	LABEL	3.50	Instrument Version
ZCURVE	TABLE
	Pt	Time	Freq	Zreal	Zimag	Zsig	Zmod	Zphz	Idc	Vdc	IERange
	#	s	Hz	ohm	ohm	V	ohm	°	A	V	#
	0	1	1000078	2448.974	-1570.682	1	2909.384	-32.67463	1.479715E-006	0.0083155	8
	1	3	794390.6	2739.974	-1503.764	1	3125.502	-28.75905	-6.02537E-007	0.0081614	8
	2	4	630984.4	3013.173	-1403.042	1	3323.814	-24.96838	5.212831E-008	0.0080254	8
	3	5	501234.4	3239.998	-1284.182	1	3485.213	-21.62103	3.649395E-006	0.008161	8
	4	7	398109.4	3437.131	-1137.454	1	3620.452	-18.311	-2.49698E-006	0.0085794	8
	5	8	316265.6	3601.494	-1031.932	1	3746.417	-15.98854	-1.754486E-006	0.008272	8
	6	9	251203.1	3728.95	-909.8972	1	3838.357	-13.71272	5.825802E-006	0.0074641	8
	7	11	199546.9	3829.773	-793.4467	1	3911.103	-11.70486	-2.105594E-006	0.0080139	8
	8	12	158578.1	3915.211	-688.2371	1	3975.242	-9.96991	-2.850576E-007	0.0084683	8
	9	13	125953.1	4015.557	-550.5911	1	4053.128	-7.807398	2.233315E-006	0.0032786	7
	10	15	100078.1	4049.268	-485.9384	1	4078.322	-6.84314	8.169355E-007	0.006645	7
	11	16	79453.13	4090.582	-444.1338	1	4114.622	-6.1966	9.057164E-007	0.0068273	7
	12	17	63140.62	4125.066	-412.5699	1	4145.646	-5.711464	-5.233362E-007	0.0093891	7
	13	19	50203.12	4156.803	-391.6852	1	4175.216	-5.382946	-8.801364E-007	0.0084818	7
	14	20	39890.62	4191.747	-383.1053	1	4209.218	-5.222048	7.013135E-007	0.0078566	7
	15	22	31640.63	4222.25	-383.1372	1	4239.598	-5.184958	6.533585E-007	0.0065604	7
	16	23	25171.88	4250.274	-394.3127	1	4268.525	-5.300357	6.529491E-007	0.0065583	7
	17	24	20015.62	4275.381	-414.7278	1	4295.449	-5.540568	-8.78794E-007	0.0084773	7
	18	26	15890.62	4311.128	-449.8916	1	4334.539	-5.957588	3.265828E-007	0.0084856	7
	19	27	12609.37	4344.33	-499.545	1	4372.956	-6.559507	5.128441E-007	0.0082175	7
	20	28	10078.13	4375.042	-559.335	1	4410.652	-7.285558	4.095378E-007	0.0066425	7
	21	30	8015.625	4412.574	-637.5709	1	4458.397	-8.221742	-2.463094E-007	0.0091814	7
	22	31	6328.125	4453.558	-739.4147	1	4514.522	-9.426706	-2.462265E-007	0.0091756	7
	23	32	5015.625	4502.576	-867.8639	1	4585.453	-10.90987	7.017464E-007	0.0078517	7
	24	34	3984.375	4546.458	-1026.829	1	4660.972	-12.72686	-2.549762E-007	0.0073249	7
	25	35	3170.956	4604.698	-1219.587	1	4763.469	-14.83458	7.015682E-007	0.0078468	7
	26	36	2527.573	4668.402	-1456.828	1	4890.432	-17.33112	8.520497E-007	0.0074393	7
	27	38	1976.103	4746.669	-1777.241	1	5068.476	-20.52683	9.222983E-007	0.0070846	7
	28	39	1577.524	4827.382	-2133.625	1	5277.876	-23.84466	-8.866232E-007	0.0084722	7
	29	40	1265.625	4928.917	-2564.697	1	5556.248	-27.48962	-1.037747E-006	0.0089585	7
	30	42	998.264	5057.314	-3134.49	1	5949.913	-31.79037	-6.19363E-007	0.0079053	7
	31	43	796.875	5204.104	-3790.86	1	6438.425	-36.07097	-5.307403E-007	0.0093911	7
	32	45	627.7902	5393.987	-4653.903	1	7124.178	-40.78745	-9.286412E-007	0.0094176	7
	33	46	505.5147	5599.349	-5595.644	1	7916.056	-44.98104	-5.253196E-007	0.0093902	7
	34	47	397.9953	5876.251	-6884.18	1	9051.092	-49.51634	1.288569E-009	0.0080625	7
	35	49	315.5048	6210.009	-8414.368	1	10457.81	-53.57177	6.134308E-010	0.0080028	6
	36	50	252.4038	6598.979	-10211.49	1	12158.17	-57.12821	7.654163E-010	0.0079973	6
	37	51	198.6229	7117.488	-12580.9	1	14454.68	-60.50153	5.996249E-010	0.0079948	6
	38	53	158.3615	7729.338	-15333.3	1	17171.28	-63.24786	5.283177E-010	0.0079887	6
	39	54	125.558	8533.282	-18788.5	1	20635.52	-65.57361	6.382164E-010	0.00799	6
	40	56	100.4464	9514.81	-22824.68	1	24728.47	-67.37046	2.001237E-010	0.0079925	6
	41	57	79.00281	10924.93	-28132.71	1	30179.53	-68.77705	7.249082E-010	0.0079914	6
	42	58	63.3446	12419.68	-34041.97	1	36236.79	-69.95629	-1.930732E-010	0.0079914	6
	43	60	49.86702	15208.36	-41876.41	1	44552.53	-70.04037	1.055601E-010	0.0079846	6
	44	61	39.72458	18208.07	-50937.71	1	54094.22	-70.33018	4.575579E-010	0.0079942	6
	45	62	31.6723	22351.13	-61398.15	1	65339.92	-69.99668	5.954673E-010	0.0079925	6
	46	64	24.93351	28040.31	-74674.53	1	79765.56	-69.41883	4.58646E-010	0.0079835	6
	47	65	19.86229	35200.31	-89417.8	1	96096.8	-68.51237	-2.891988E-010	0.0079935	6
	48	66	15.83615	44583.2	-106603.3	1	115550.5	-67.30454	1.788798E-009	0.0079938	5
	49	68	12.40079	56697.04	-126581.2	1	138698.8	-65.87189	5.097235E-010	0.0079955	5
	50	69	9.93114	72064.32	-147146.8	1	163845.8	-63.90696	9.259236E-010	0.0079933	5
	51	71	7.944915	89414.02	-169780.3	1	191885.9	-62.22667	-7.354955E-010	0.0079948	5
	52	72	6.317385	111014.9	-195274.8	1	224625.3	-60.38152	-3.646908E-010	0.0079926	5
	53	75	5.008013	136764.7	-222637.6	1	261289.3	-58.43789	-4.01989E-010	0.0079941	5
	54	77	3.945707	165246.4	-252854	1	302062.1	-56.83439	4.949352E-010	0.0079969	5
	55	80	3.158693	196575.3	-284089.5	1	345468.8	-55.31876	-2.598442E-010	0.0079849	5
	56	83	2.504006	231479.2	-318761.3	1	393943.4	-54.01346	5.064655E-010	0.0079928	5
	57	86	1.998082	267348.6	-354799.8	1	444250.1	-53.00126	-1.056732E-010	0.008037	5
	58	89	1.584686	305705.8	-398938.1	1	502600.9	-52.5371	1.713683E-010	0.0080171	5
	59	92	1.266892	343948.5	-444600.6	1	562112.3	-52.27402	-3.433316E-010	0.0080332	5
	60	97	0.999041	385676.9	-508486.2	1	638204.4	-52.82039	2.757247E-010	0.0079688	5
