EXPLAIN
TAG	EISPOT
TITLE	LABEL	Potentiostatic EIS	Test &Identifier
DATE	LABEL	10/22/2019	Date
TIME	LABEL	9:23:35	Time
NOTES	NOTES	1	&Notes...
	
PSTAT	PSTAT	REF600-11020	Potentiostat
VDC	POTEN	0.00000E+000	T	DC &Voltage (V)
FREQINIT	QUANT	1.00000E+006	Initial Fre&q. (Hz)
FREQFINAL	QUANT	1.00000E+000	Final Fre&q. (Hz)
PTSPERDEC	QUANT	1.00000E+001	Points/&decade
VAC	QUANT	2.50000E+001	AC &Voltage (mV rms)
AREA	QUANT	1.00000E-002	&Area (cm^2)
CONDIT	TWOPARAM	T	5.00000E+000	0.00000E+000	Conditionin&g	Time(s)	E(V)
DELAY	TWOPARAM	T	5.00000E+000	0.00000E+000	Init. De&lay	Time(s)	Stab.(mV/s)
SPEED	SELECTOR	1	&Optimize for:
ZGUESS	QUANT	1.00000E+005	E&stimated Z (ohms)
OCVCURVE	TABLE	19
	Pt	T	Vf	Vm	Ach	Over
	#	s	V vs. Ref.	V	V	bits
	0	0.258333	1.64072E-002	1.64072E-002	5.79632E-004	...........
	1	0.516667	1.64198E-002	1.70713E-002	5.76366E-004	...........
	2	0.775	1.64983E-002	1.77303E-002	5.78199E-004	...........
	3	1.03333	1.67220E-002	1.83515E-002	5.80266E-004	...........
	4	1.29167	1.71281E-002	1.91206E-002	5.75132E-004	...........
	5	1.55	1.76838E-002	1.96895E-002	5.75232E-004	...........
	6	1.80833	1.83187E-002	2.01092E-002	5.75099E-004	...........
	7	2.06667	1.89534E-002	2.04108E-002	5.77932E-004	...........
	8	2.325	1.95221E-002	2.08148E-002	5.79965E-004	...........
	9	2.58333	2.00039E-002	2.13208E-002	5.76132E-004	...........
	10	2.84167	2.04315E-002	2.18455E-002	5.77899E-004	...........
	11	3.1	2.08548E-002	2.21962E-002	5.77566E-004	...........
	12	3.35833	2.12936E-002	2.25682E-002	5.81765E-004	...........
	13	3.61667	2.17317E-002	2.29844E-002	5.75432E-004	...........
	14	3.875	2.21522E-002	2.33952E-002	5.79032E-004	...........
	15	4.13333	2.25562E-002	2.37181E-002	5.78765E-004	...........
	16	4.39167	2.29468E-002	2.39720E-002	5.77766E-004	...........
	17	4.65	2.33142E-002	2.42338E-002	5.75066E-004	...........
	18	4.90833	2.36463E-002	2.45014E-002	5.80632E-004	...........
EOC	QUANT	0.0236463	Open Circuit (V)
PSTATMODEL	IQUANT	4	Pstat Model
PSTATSECTION	LABEL	REF600-11020	Pstat Section
PSTATSERIALNO	LABEL	11020	Pstat Serial Number
CTRLMODE	IQUANT	1	Control Mode
IESTAB	IQUANT	0	I/E Stability
CASPEED	IQUANT	1	Control Amp Speed
CONVENTION	IQUANT	1	Current Convention
ICHRANGE	IQUANT	2	Ich Range
ICHRANGEMODE	TOGGLE	F	Ich Auto Range
ICHOFFSETENABLE	TOGGLE	T	Ich Offset Enable
ICHOFFSET	QUANT	0	Ich Offset (V)
ICHFILTER	IQUANT	3	Ich Filter
VCHRANGE	IQUANT	2	Vch Range
VCHRANGEMODE	TOGGLE	F	Vch Auto Range
VCHOFFSETENABLE	TOGGLE	T	Vch Offset Enable
VCHOFFSET	QUANT	0	Vch Offset (V)
VCHFILTER	IQUANT	3	Vch Filter
ACHRANGE	IQUANT	2	Ach Range
ACHOFFSETENABLE	TOGGLE	F	Ach Offset Enable
ACHOFFSET	QUANT	0	Ach Offset (V)
ACHFILTER	IQUANT	3	Ach Filter
IERANGELOWERLIMIT	IQUANT	1	I/E Range Lower Limit
IERANGEMODE	TOGGLE	F	I/E AutoRange
IERANGE	IQUANT	5	I/E Range
POSFEEDENABLE	TOGGLE	F	Positive Feedback IR Comp
POSFEEDRESISTANCE	QUANT	0	Positive Feedback Resistance (ohm)
ACHSELECT	IQUANT	0	Ach Select
CABLEID	IQUANT	14	Cable ID
DCCALDATE	LABEL	8/19/2019	DC Calibration Date
ACCALDATE	LABEL	8/19/2019	AC Calibration Date
THERMOSELECT	IQUANT	1	Thermo Select
FRAMEWORKVERSION	QUANT	6.33	Framework Version
INSTRUMENTVERSION	LABEL	3.50	Instrument Version
ZCURVE	TABLE
	Pt	Time	Freq	Zreal	Zimag	Zsig	Zmod	Zphz	Idc	Vdc	IERange
	#	s	Hz	ohm	ohm	V	ohm	°	A	V	#
	0	2	1000078	2166.001	-1007.908	1	2389.024	-24.95404	4.781556E-006	0.0251924	8
	1	4	794390.6	2324.59	-911.5765	1	2496.936	-21.41239	1.756005E-006	0.0250105	8
	2	5	630984.4	2447.847	-814.91	1	2579.929	-18.41306	3.126097E-006	0.0248655	8
	3	6	501234.4	2562.469	-737.3576	1	2666.448	-16.05332	-1.139908E-006	0.0255271	8
	4	8	398109.4	2650.213	-645.3495	1	2727.656	-13.68566	-2.102177E-006	0.0258329	8
	5	9	316265.6	2720.278	-587.4757	1	2782.991	-12.18653	3.878247E-006	0.0246453	8
	6	10	251203.1	2765.565	-544.1356	1	2818.588	-11.13098	-3.216001E-006	0.0258193	8
	7	12	199546.9	2815.711	-495.1006	1	2858.908	-9.97266	-4.380261E-008	0.025463	8
	8	13	158578.1	2866.203	-474.6188	1	2905.234	-9.402373	7.710553E-007	0.025116	8
	9	14	125953.1	2930.167	-419.1482	1	2959.993	-8.140698	1.363564E-006	0.0227717	7
	10	16	100078.1	2970.922	-420.5651	1	3000.542	-8.057281	1.31035E-009	0.0253139	7
	11	17	79453.13	3015.475	-435.5239	1	3046.764	-8.218375	-1.327135E-008	0.0252757	7
	12	18	63140.62	3063.319	-456.4358	1	3097.137	-8.474745	3.475397E-008	0.0252654	7
	13	20	50203.12	3115.665	-482.727	1	3152.839	-8.807121	-5.272515E-008	0.0254599	7
	14	21	39890.62	3172.412	-514.564	1	3213.872	-9.213117	3.955464E-008	0.0251726	7
	15	22	31640.63	3234.173	-552.8684	1	3281.088	-9.70071	8.304021E-008	0.0252442	7
	16	24	25171.88	3299.734	-597.5441	1	3353.402	-10.26437	3.958742E-008	0.0251727	7
	17	25	20015.62	3368.859	-646.2786	1	3430.29	-10.85963	-5.376592E-008	0.025457	7
	18	27	15890.62	3447.974	-708.924	1	3520.099	-11.61844	1.266289E-007	0.0250986	7
	19	28	12609.37	3530.94	-777.8812	1	3615.61	-12.42405	-1.408086E-008	0.0254272	7
	20	29	10078.13	3615.431	-854.426	1	3715.021	-13.29661	-6.814228E-009	0.0253328	7
	21	31	8015.625	3702.896	-951.716	1	3823.245	-14.41414	3.945772E-008	0.0251676	7
	22	32	6328.125	3804.951	-1057.731	1	3949.234	-15.5353	8.234792E-008	0.0252395	7
	23	33	5015.625	3906.458	-1187.653	1	4083.005	-16.91047	7.519849E-008	0.025136	7
	24	35	3984.375	4011.937	-1335.303	1	4228.318	-18.40912	3.978898E-008	0.0251655	7
	25	36	3170.956	4118.18	-1526.328	1	4391.934	-20.3363	-3.51165E-008	0.0253113	7
	26	37	2527.573	4228.767	-1750.43	1	4576.731	-22.48632	6.626653E-009	0.0252337	7
	27	39	1976.103	4350.383	-2054.474	1	4811.101	-25.27909	7.526101E-008	0.0251365	7
	28	40	1577.524	4424.595	-2419.335	1	5042.838	-28.6695	-4.184869E-008	0.0253163	7
	29	41	1265.625	4586.891	-2823.196	1	5386.094	-31.61198	8.224168E-008	0.0252403	7
	30	43	998.264	4727.532	-3389.225	1	5816.907	-35.6372	-1.165688E-008	0.0253339	7
	31	44	796.875	4881.592	-4056.036	1	6346.76	-39.72264	4.063912E-008	0.0251642	7
	32	45	627.7902	5060.863	-4937.988	1	7070.789	-44.29593	6.086479E-008	0.0251886	7
	33	47	505.5147	5253.035	-5931.808	1	7923.428	-48.47284	1.264388E-007	0.0250963	7
	34	48	397.9953	5515.517	-7282.581	1	9135.476	-52.86126	5.060778E-009	0.0253099	7
	35	49	315.5048	5825.396	-8912.309	1	10647.28	-56.82997	2.352615E-010	0.025252	6
	36	51	252.4038	6188.142	-10842.4	1	12484.02	-60.28506	4.487805E-010	0.0252525	6
	37	52	198.6229	6678.507	-13396.05	1	14968.52	-63.50177	1.015097E-009	0.0252481	6
	38	53	158.3615	7269.928	-16374.55	1	17915.85	-66.05987	9.397458E-010	0.0252444	6
	39	55	125.558	8035.143	-20119.7	1	21664.85	-68.22987	4.548527E-010	0.025244	6
	40	56	100.4464	9013.796	-24510.22	1	26115.12	-69.80866	3.034772E-010	0.0252447	6
	41	58	79.00281	10325.46	-30369.66	1	32076.96	-71.22234	3.779878E-010	0.025247	6
	42	59	63.3446	12215.16	-36860.59	1	38831.85	-71.66542	6.492231E-010	0.0252443	6
	43	60	49.86702	13878.51	-45439.5	1	47511.69	-73.01585	1.097873E-009	0.0252437	6
	44	62	39.72458	16847.11	-55202.29	1	57715.84	-73.02841	6.302368E-010	0.0252491	6
	45	63	31.6723	20450.87	-67153	1	70198.03	-73.06233	3.396283E-010	0.0252469	6
	46	65	24.93351	25464.99	-82162.4	1	86018.17	-72.77997	6.121677E-010	0.0252487	6
	47	66	19.86229	31819.65	-99297.2	1	104271	-72.23203	4.614831E-010	0.0252436	6
	48	67	15.83615	39138.77	-119726.6	1	125961.5	-71.89738	9.027094E-010	0.025251	5
	49	69	12.40079	51051.49	-146402.1	1	155047.9	-70.77596	-5.628163E-010	0.0252466	5
	50	70	9.93114	64390.6	-172939.8	1	184538.1	-69.57821	4.109948E-010	0.0252468	5
	51	72	7.944915	81595.38	-203798.8	1	219526.3	-68.18021	-5.519005E-010	0.0252467	5
	52	73	6.317385	103500.5	-241058.7	1	262338.8	-66.76334	4.359477E-010	0.0252571	5
	53	75	5.008013	131154	-283063.6	1	311971.7	-65.13994	1.745778E-010	0.025256	5
	54	78	3.945707	164630.8	-331563.3	1	370185.8	-63.59426	1.863087E-010	0.0252542	5
	55	81	3.158693	202158.8	-381529	1	431778.4	-62.08246	-1.726416E-010	0.0252463	5
	56	84	2.504006	247330.6	-438562.4	1	503497.2	-60.57885	2.435926E-010	0.0252399	5
	57	87	1.998082	296279.4	-499543.7	1	580797.2	-59.32782	-1.747727E-010	0.0252868	5
	58	90	1.584686	352175.9	-570829.1	1	670726.3	-58.32728	7.144439E-011	0.0252767	5
	59	94	1.266892	413870.4	-646829.9	1	767904.7	-57.38708	-1.053228E-010	0.0252907	5
	60	98	0.999041	482717	-738790.8	1	882512.1	-56.83988	-6.890053E-012	0.025225	5
