EXPLAIN
TAG	EISPOT
TITLE	LABEL	Potentiostatic EIS	Test &Identifier
DATE	LABEL	10/16/2019	Date
TIME	LABEL	9:45:24	Time
NOTES	NOTES	1	&Notes...
	
PSTAT	PSTAT	REF600-11020	Potentiostat
VDC	POTEN	0.00000E+000	T	DC &Voltage (V)
FREQINIT	QUANT	1.00000E+006	Initial Fre&q. (Hz)
FREQFINAL	QUANT	1.00000E+000	Final Fre&q. (Hz)
PTSPERDEC	QUANT	1.00000E+001	Points/&decade
VAC	QUANT	2.50000E+001	AC &Voltage (mV rms)
AREA	QUANT	1.00000E-002	&Area (cm^2)
CONDIT	TWOPARAM	T	5.00000E+000	0.00000E+000	Conditionin&g	Time(s)	E(V)
DELAY	TWOPARAM	T	5.00000E+000	0.00000E+000	Init. De&lay	Time(s)	Stab.(mV/s)
SPEED	SELECTOR	0	&Optimize for:
ZGUESS	QUANT	1.00000E+005	E&stimated Z (ohms)
OCVCURVE	TABLE	19
	Pt	T	Vf	Vm	Ach	Over
	#	s	V vs. Ref.	V	V	bits
	0	0.258333	6.28935E-003	6.28935E-003	5.66499E-004	...........
	1	0.516667	6.28965E-003	6.30511E-003	5.64866E-004	...........
	2	0.775	6.29200E-003	6.34642E-003	5.62166E-004	...........
	3	1.03333	6.30039E-003	6.38920E-003	5.64732E-004	...........
	4	1.29167	6.31915E-003	6.44316E-003	5.69799E-004	...........
	5	1.55	6.35005E-003	6.50148E-003	5.61766E-004	...........
	6	1.80833	6.39198E-003	6.56480E-003	5.59199E-004	...........
	7	2.06667	6.44261E-003	6.62791E-003	5.63899E-004	...........
	8	2.325	6.49947E-003	6.69386E-003	5.56366E-004	...........
	9	2.58333	6.56036E-003	6.75556E-003	5.56066E-004	...........
	10	2.84167	6.62350E-003	6.82497E-003	5.52632E-004	...........
	11	3.1	6.68785E-003	6.89065E-003	5.58399E-004	...........
	12	3.35833	6.75315E-003	6.96040E-003	5.59132E-004	...........
	13	3.61667	6.81956E-003	7.03296E-003	5.56899E-004	...........
	14	3.875	6.88694E-003	7.08301E-003	5.56299E-004	...........
	15	4.13333	6.95358E-003	7.12456E-003	5.53099E-004	...........
	16	4.39167	7.01667E-003	7.20484E-003	5.53366E-004	...........
	17	4.65	7.07632E-003	7.27581E-003	5.55633E-004	...........
	18	4.90833	7.13664E-003	7.34589E-003	5.49933E-004	...........
EOC	QUANT	0.0071366	Open Circuit (V)
PSTATMODEL	IQUANT	4	Pstat Model
PSTATSECTION	LABEL	REF600-11020	Pstat Section
PSTATSERIALNO	LABEL	11020	Pstat Serial Number
CTRLMODE	IQUANT	1	Control Mode
IESTAB	IQUANT	0	I/E Stability
CASPEED	IQUANT	1	Control Amp Speed
CONVENTION	IQUANT	1	Current Convention
ICHRANGE	IQUANT	2	Ich Range
ICHRANGEMODE	TOGGLE	F	Ich Auto Range
ICHOFFSETENABLE	TOGGLE	T	Ich Offset Enable
ICHOFFSET	QUANT	0	Ich Offset (V)
ICHFILTER	IQUANT	3	Ich Filter
VCHRANGE	IQUANT	2	Vch Range
VCHRANGEMODE	TOGGLE	F	Vch Auto Range
VCHOFFSETENABLE	TOGGLE	T	Vch Offset Enable
VCHOFFSET	QUANT	0	Vch Offset (V)
VCHFILTER	IQUANT	3	Vch Filter
ACHRANGE	IQUANT	2	Ach Range
ACHOFFSETENABLE	TOGGLE	F	Ach Offset Enable
ACHOFFSET	QUANT	0	Ach Offset (V)
ACHFILTER	IQUANT	3	Ach Filter
IERANGELOWERLIMIT	IQUANT	1	I/E Range Lower Limit
IERANGEMODE	TOGGLE	F	I/E AutoRange
IERANGE	IQUANT	5	I/E Range
POSFEEDENABLE	TOGGLE	F	Positive Feedback IR Comp
POSFEEDRESISTANCE	QUANT	0	Positive Feedback Resistance (ohm)
ACHSELECT	IQUANT	0	Ach Select
CABLEID	IQUANT	14	Cable ID
DCCALDATE	LABEL	8/19/2019	DC Calibration Date
ACCALDATE	LABEL	8/19/2019	AC Calibration Date
THERMOSELECT	IQUANT	1	Thermo Select
FRAMEWORKVERSION	QUANT	6.33	Framework Version
INSTRUMENTVERSION	LABEL	3.50	Instrument Version
ZCURVE	TABLE
	Pt	Time	Freq	Zreal	Zimag	Zsig	Zmod	Zphz	Idc	Vdc	IERange
	#	s	Hz	ohm	ohm	V	ohm	°	A	V	#
	0	1	1000078	2107.588	-1093.869	1	2374.548	-27.42997	4.926018E-006	0.0085734	8
	1	1	794390.6	2290.161	-1025.231	1	2509.171	-24.11652	-9.590276E-007	0.0091972	8
	2	2	630984.4	2448.798	-958.448	1	2629.683	-21.37514	8.084197E-007	0.0090392	8
	3	2	501234.4	2595.46	-878.4965	1	2740.104	-18.69964	-2.303079E-006	0.0095246	8
	4	2	398109.4	2709.15	-806.9105	1	2826.764	-16.58597	-7.696432E-008	0.0088922	8
	5	3	316265.6	2814.49	-738.2379	1	2909.699	-14.69753	2.173553E-007	0.0088718	8
	6	3	251203.1	2909.82	-684.6218	1	2989.274	-13.23974	2.26606E-007	0.0088582	8
	7	3	199546.9	2975.306	-630.1045	1	3041.295	-11.95732	2.526906E-007	0.0088552	8
	8	4	158578.1	3044.608	-593.7766	1	3101.969	-11.03562	9.850218E-007	0.0086756	8
	9	4	125953.1	3131.257	-523.6295	1	3174.738	-9.493535	-5.207533E-007	0.0099081	7
	10	4	100078.1	3180.231	-510.7166	1	3220.979	-9.123291	3.125971E-008	0.0087238	7
	11	5	79453.13	3236.809	-514.6183	1	3277.463	-9.033812	-2.901203E-009	0.0088269	7
	12	5	63140.62	3295.632	-524.8892	1	3337.169	-9.049387	5.379645E-009	0.0087619	7
	13	5	50203.12	3357.165	-539.3032	1	3400.206	-9.126165	-5.316429E-008	0.0089749	7
	14	6	39890.62	3423.075	-560.4401	1	3468.651	-9.298207	-5.371124E-008	0.0088884	7
	15	6	31640.63	3490.067	-588.9224	1	3539.406	-9.578	-2.718106E-008	0.0088133	7
	16	6	25171.88	3561.401	-622.7524	1	3615.439	-9.91855	4.465432E-009	0.0087613	7
	17	7	20015.62	3644.015	-660.6425	1	3703.417	-10.27584	-2.689196E-008	0.0088181	7
	18	7	15890.62	3716.15	-712.8846	1	3783.91	-10.85936	7.339361E-008	0.0087632	7
	19	7	12609.37	3802.182	-772.0144	1	3879.767	-11.47759	-5.099993E-008	0.0089089	7
	20	7	10078.13	3888.393	-836.5087	1	3977.354	-12.14098	-5.272516E-008	0.0088852	7
	21	8	8015.625	3987.533	-917.2104	1	4091.662	-12.95383	-2.994238E-008	0.0088258	7
	22	8	6328.125	4084.505	-1005.368	1	4206.417	-13.82801	3.061744E-008	0.0087747	7
	23	8	5015.625	4189.177	-1111.095	1	4334.021	-14.85454	-4.956376E-008	0.008903	7
	24	9	3984.375	4305.777	-1235.946	1	4479.651	-16.01579	-2.707404E-009	0.0088148	7
	25	9	3170.956	4395.184	-1388.765	1	4609.372	-17.5352	9.494495E-008	0.0086765	7
	26	9	2527.573	4497.139	-1574.086	1	4764.662	-19.29103	-5.288769E-008	0.0088852	7
	27	10	1976.103	4607.344	-1830.705	1	4957.731	-21.67015	-1.616862E-008	0.0088004	7
	28	10	1577.524	4750.084	-2123.176	1	5202.997	-24.08352	-4.622585E-008	0.0088709	7
	29	10	1265.625	4819.92	-2498.065	1	5428.808	-27.39678	5.826965E-008	0.0086828	7
	30	11	998.264	4952.027	-2999.249	1	5789.479	-31.20164	-6.946181E-009	0.0088485	7
	31	11	796.875	5104.153	-3595.231	1	6243.242	-35.15986	5.167967E-008	0.0087253	7
	32	11	627.7902	5307.413	-4374.307	1	6877.732	-39.49495	8.068721E-009	0.0088849	7
	33	12	505.5147	5538.773	-5246.305	1	7629.006	-43.44664	-4.402025E-008	0.0088704	7
	34	12	397.9953	5868.363	-6424.259	1	8701.08	-47.58926	2.275858E-009	0.0088299	7
	35	12	315.5048	6287.563	-7818.05	1	10032.71	-51.19248	2.915942E-009	0.0088322	7
	36	13	252.4038	6817.031	-9432.25	1	11637.84	-54.14299	2.862519E-010	0.0087679	6
	37	13	198.6229	7553.547	-11515.57	1	13771.87	-56.73744	3.878776E-010	0.0087662	6
	38	13	158.3615	8465.592	-13869.37	1	16248.87	-58.60093	4.363473E-010	0.0087642	6
	39	14	125.558	9689.2	-16715.85	1	19320.97	-59.90163	2.164696E-010	0.0087624	6
	40	14	100.4464	11236.54	-19907.9	1	22860.1	-60.55847	-3.488222E-010	0.0087615	6
	41	14	79.00281	13269.21	-23903.84	1	27339.82	-60.965	9.366569E-010	0.0087583	6
	42	15	63.3446	15988.08	-27851.44	1	32114.2	-60.14208	-4.437302E-010	0.00876	6
	43	15	49.86702	19257.96	-32994.7	1	38203.65	-59.72924	-9.691852E-010	0.0087591	6
	44	15	39.72458	22851.47	-38342.44	1	44635.55	-59.20575	5.097146E-010	0.0087633	6
	45	16	31.6723	27114.76	-44136.38	1	51799.91	-58.43592	3.804855E-010	0.0087616	6
	46	16	24.93351	32421.76	-50792.44	1	60258.13	-57.44915	7.451735E-010	0.0087593	6
	47	16	19.86229	37793.43	-57841.4	1	69093.93	-56.8395	1.220681E-009	0.0087573	6
	48	16	15.83615	43869.34	-66343.32	1	79535.87	-56.52544	2.055007E-009	0.0087566	6
	49	17	12.40079	49780.2	-75679.44	1	90583.91	-56.664	-1.245099E-009	0.0087624	6
	50	17	9.93114	56413.66	-86609	1	103361.6	-56.92138	-4.486266E-010	0.0087673	5
	51	18	7.944915	62981.23	-100015.3	1	118193.4	-57.80072	8.251303E-010	0.0087583	5
	52	18	6.317385	70726.09	-116341.1	1	136152.2	-58.70374	2.531625E-010	0.008756	5
	53	19	5.008013	79617.75	-136891.4	1	158361.1	-59.81718	-1.210734E-010	0.0087548	5
	54	20	3.945707	90260.34	-162472	1	185860.4	-60.94591	-2.608158E-012	0.0087667	5
	55	22	3.158693	102247.8	-191725.4	1	217286.1	-61.92885	-2.938281E-010	0.0087637	5
	56	23	2.504006	117109.4	-228061.7	1	256372.3	-62.81956	-2.296794E-010	0.0087572	5
	57	24	1.998082	134884.7	-270062.5	1	301873.6	-63.45983	-2.577365E-013	0.0087976	5
	58	26	1.584686	156140.4	-320873.2	1	356846.5	-64.05193	-1.119605E-010	0.0087788	5
	59	28	1.266892	182457.1	-378785.1	1	420438.7	-64.28033	-1.529503E-010	0.0087366	5
	60	30	0.999041	216163.5	-452149.8	1	501164.8	-64.4485	-1.751505E-010	0.0087158	5
