EXPLAIN
TAG	EISPOT
TITLE	LABEL	Potentiostatic IDE	Test &Identifier
DATE	LABEL	9/16/2019	Date
TIME	LABEL	9:53:36	Time
NOTES	NOTES	1	&Notes...
	
PSTAT	PSTAT	REF600-11020	Potentiostat
VDC	POTEN	0.00000E+000	T	DC &Voltage (V)
FREQINIT	QUANT	1.00000E+006	Initial Fre&q. (Hz)
FREQFINAL	QUANT	1.00000E+000	Final Fre&q. (Hz)
PTSPERDEC	QUANT	1.00000E+001	Points/&decade
VAC	QUANT	2.50000E+001	AC &Voltage (mV rms)
AREA	QUANT	1.00000E-002	&Area (cm^2)
CONDIT	TWOPARAM	T	5.00000E+000	0.00000E+000	Conditionin&g	Time(s)	E(V)
DELAY	TWOPARAM	T	5.00000E+000	0.00000E+000	Init. De&lay	Time(s)	Stab.(mV/s)
SPEED	SELECTOR	1	&Optimize for:
ZGUESS	QUANT	1.00000E+007	E&stimated Z (ohms)
OCVCURVE	TABLE	19
	Pt	T	Vf	Vm	Ach	Over
	#	s	V vs. Ref.	V	V	bits
	0	0.258333	9.23688E-003	9.23688E-003	5.70966E-004	...........
	1	0.516667	9.23664E-003	9.22435E-003	5.67266E-004	...........
	2	0.775	9.23372E-003	9.13628E-003	5.66066E-004	...........
	3	1.03333	9.22170E-003	9.10919E-003	5.67266E-004	...........
	4	1.29167	9.19532E-003	9.06738E-003	5.67932E-004	...........
	5	1.55	9.15783E-003	9.06239E-003	5.65899E-004	...........
	6	1.80833	9.11959E-003	9.07370E-003	5.67332E-004	...........
	7	2.06667	9.09111E-003	9.09737E-003	5.70099E-004	...........
	8	2.325	9.07805E-003	9.10045E-003	5.72066E-004	...........
	9	2.58333	9.07843E-003	9.07893E-003	5.71599E-004	...........
	10	2.84167	9.08490E-003	9.12857E-003	5.68399E-004	...........
	11	3.1	9.09406E-003	9.20033E-003	5.68166E-004	...........
	12	3.35833	9.11066E-003	9.19819E-003	5.71799E-004	...........
	13	3.61667	9.13728E-003	9.21038E-003	5.72032E-004	...........
	14	3.875	9.16744E-003	9.24463E-003	5.69932E-004	...........
	15	4.13333	9.19405E-003	9.24900E-003	5.72899E-004	...........
	16	4.39167	9.21555E-003	9.24724E-003	5.68466E-004	...........
	17	4.65	9.23201E-003	9.25965E-003	5.68932E-004	...........
	18	4.90833	9.24309E-003	9.24427E-003	5.68266E-004	...........
EOC	QUANT	0.0092431	Open Circuit (V)
PSTATMODEL	IQUANT	4	Pstat Model
PSTATSECTION	LABEL	REF600-11020	Pstat Section
PSTATSERIALNO	LABEL	11020	Pstat Serial Number
CTRLMODE	IQUANT	1	Control Mode
IESTAB	IQUANT	0	I/E Stability
CASPEED	IQUANT	1	Control Amp Speed
CONVENTION	IQUANT	1	Current Convention
ICHRANGE	IQUANT	2	Ich Range
ICHRANGEMODE	TOGGLE	F	Ich Auto Range
ICHOFFSETENABLE	TOGGLE	T	Ich Offset Enable
ICHOFFSET	QUANT	0	Ich Offset (V)
ICHFILTER	IQUANT	3	Ich Filter
VCHRANGE	IQUANT	2	Vch Range
VCHRANGEMODE	TOGGLE	F	Vch Auto Range
VCHOFFSETENABLE	TOGGLE	T	Vch Offset Enable
VCHOFFSET	QUANT	0	Vch Offset (V)
VCHFILTER	IQUANT	3	Vch Filter
ACHRANGE	IQUANT	2	Ach Range
ACHOFFSETENABLE	TOGGLE	F	Ach Offset Enable
ACHOFFSET	QUANT	0	Ach Offset (V)
ACHFILTER	IQUANT	3	Ach Filter
IERANGELOWERLIMIT	IQUANT	1	I/E Range Lower Limit
IERANGEMODE	TOGGLE	F	I/E AutoRange
IERANGE	IQUANT	3	I/E Range
POSFEEDENABLE	TOGGLE	F	Positive Feedback IR Comp
POSFEEDRESISTANCE	QUANT	0	Positive Feedback Resistance (ohm)
ACHSELECT	IQUANT	0	Ach Select
CABLEID	IQUANT	14	Cable ID
DCCALDATE	LABEL	8/19/2019	DC Calibration Date
ACCALDATE	LABEL	8/19/2019	AC Calibration Date
THERMOSELECT	IQUANT	1	Thermo Select
FRAMEWORKVERSION	QUANT	6.33	Framework Version
INSTRUMENTVERSION	LABEL	3.50	Instrument Version
ZCURVE	TABLE
	Pt	Time	Freq	Zreal	Zimag	Zsig	Zmod	Zphz	Idc	Vdc	IERange
	#	s	Hz	ohm	ohm	V	ohm	°	A	V	#
	0	2	1000078	2570.979	-1992.022	1	3252.397	-37.76891	8.418853E-006	0.0109309	8
	1	4	794390.6	2961.044	-1959.047	1	3550.443	-33.48889	-7.842725E-006	0.0123007	8
	2	5	630984.4	3338.969	-1868.783	1	3826.364	-29.23524	-4.127477E-006	0.0124423	8
	3	6	501234.4	3660.416	-1753.509	1	4058.748	-25.59658	3.934766E-006	0.0103399	8
	4	8	398109.4	3905.66	-1571.232	1	4209.863	-21.91473	4.49497E-007	0.0107862	8
	5	10	316265.6	4168.872	-1448.529	1	4413.358	-19.16046	-1.15236E-006	0.0111259	8
	6	11	251203.1	4359.957	-1280.623	1	4544.142	-16.36877	-1.063147E-006	0.0111178	8
	7	13	199546.9	4531.031	-1124.464	1	4668.476	-13.93749	1.485742E-006	0.0104912	8
	8	14	158578.1	4614.164	-1029.194	1	4727.552	-12.57406	-1.104714E-006	0.0112073	8
	9	16	125953.1	4747.559	-850.496	1	4823.138	-10.15645	1.440962E-006	0.0076344	7
	10	17	100078.1	4822.793	-793.5316	1	4887.64	-9.343601	8.203064E-008	0.0108187	7
	11	18	79453.13	4891.017	-759.0675	1	4949.568	-8.821714	8.359185E-008	0.0106994	7
	12	20	63140.62	4959.398	-737.6118	1	5013.951	-8.459594	1.488101E-007	0.0106221	7
	13	21	50203.12	5026.461	-741.8739	1	5080.915	-8.39588	-1.113667E-008	0.0108718	7
	14	22	39890.62	5101.82	-761.9946	1	5158.411	-8.494755	-4.36036E-008	0.0108926	7
	15	24	31640.63	5166.896	-797.0386	1	5228.009	-8.769252	-1.178519E-008	0.0108707	7
	16	25	25171.88	5242.797	-850.1495	1	5311.278	-9.210667	-1.374798E-008	0.0109017	7
	17	26	20015.62	5330.421	-922.3875	1	5409.639	-9.81737	-4.803079E-008	0.0108712	7
	18	28	15890.62	5428.917	-1001.163	1	5520.459	-10.4487	-5.906978E-008	0.0109525	7
	19	29	12609.37	5521.228	-1119.565	1	5633.594	-11.46271	-4.283789E-008	0.0108839	7
	20	30	10078.13	5637.107	-1250.344	1	5774.109	-12.50608	-7.876934E-008	0.0109547	7
	21	32	8015.625	5764.006	-1405.184	1	5932.816	-13.70067	1.485851E-007	0.0106152	7
	22	33	6328.125	5912.13	-1591.023	1	6122.47	-15.06212	-9.342688E-009	0.0108625	7
	23	35	5015.625	6070.549	-1811.002	1	6334.927	-16.6112	-4.157352E-008	0.0108872	7
	24	36	3984.375	6253.643	-2065.551	1	6585.936	-18.27816	-6.739092E-008	0.0109349	7
	25	37	3170.956	6460.246	-2363.062	1	6878.869	-20.09177	-4.039774E-008	0.0108316	7
	26	39	2527.573	6690.313	-2706.135	1	7216.886	-22.02262	9.78705E-008	0.0106427	7
	27	40	1976.103	6974.78	-3144.971	1	7651.039	-24.2709	-4.887278E-008	0.0108525	7
	28	41	1577.524	7279.397	-3609.703	1	8125.243	-26.37586	4.074475E-008	0.0107878	7
	29	43	1265.625	7615.246	-4130.607	1	8663.364	-28.47597	1.059794E-007	0.010743	7
	30	44	998.264	8015.212	-4794.553	1	9339.773	-30.88709	3.155189E-009	0.0109311	7
	31	45	796.875	8441.666	-5505.952	1	10078.55	-33.1138	6.826741E-010	0.0109077	6
	32	47	627.7902	8931.378	-6403.105	1	10989.51	-35.63759	-7.251737E-009	0.0108803	6
	33	48	505.5147	9400.039	-7363.952	1	11941.04	-38.075	3.504577E-009	0.0106603	6
	34	49	397.9953	9947.74	-8638.162	1	13174.8	-40.96956	9.035162E-010	0.0107926	6
	35	51	315.5048	10504.67	-10143.2	1	14602.49	-43.99706	6.920949E-010	0.0107925	6
	36	52	252.4038	11059.11	-11918.61	1	16259.07	-47.1422	1.468475E-009	0.0107875	6
	37	53	198.6229	11686.9	-14287.85	1	18458.78	-50.71818	7.328277E-010	0.010786	6
	38	55	158.3615	12327.33	-17095.79	1	21076.75	-54.2056	7.792288E-010	0.0107817	6
	39	56	125.558	13071.99	-20667.49	1	24454.49	-57.68705	5.802076E-010	0.0107869	6
	40	57	100.4464	13925.62	-24971.7	1	28592.11	-60.85352	7.506196E-010	0.0107877	6
	41	59	79.00281	15038.97	-30737.3	1	34219.18	-63.92868	8.639902E-010	0.0107882	6
	42	60	63.3446	16113.64	-36783.89	1	40158.48	-66.34358	1.199608E-009	0.0107847	6
	43	62	49.86702	18207.74	-46201.41	1	49659.76	-68.49084	1.429949E-009	0.0107859	6
	44	63	39.72458	20000.97	-56192.99	1	59646.38	-70.40765	6.362926E-010	0.0107875	6
	45	64	31.6723	22907.47	-68683.8	1	72403.15	-71.55539	8.495671E-011	0.0107811	6
	46	66	24.93351	26541.21	-84995.04	1	89042.64	-72.6581	7.328692E-010	0.0107831	6
	47	67	19.86229	31362.02	-104037.3	1	108661.6	-73.22458	-6.619038E-011	0.0107929	5
	48	68	15.83615	37409.35	-125292.3	1	130757.9	-73.3756	-6.839512E-010	0.0107899	5
	49	70	12.40079	45581.54	-156248.5	1	162761.4	-73.73674	7.643938E-010	0.0107852	5
	50	71	9.93114	57584.85	-189171.6	1	197742.1	-73.06947	3.882347E-010	0.0107877	5
	51	73	7.944915	70950.4	-226512.7	1	237364.6	-72.60792	-1.696361E-010	0.010786	5
	52	74	6.317385	89488.24	-274219.8	1	288452.1	-71.92654	6.047145E-011	0.0107936	5
	53	76	5.008013	113732.3	-330110.7	1	349153.4	-70.98975	1.574992E-010	0.0107745	5
	54	79	3.945707	145453.9	-397662	1	423428.8	-69.90887	2.557843E-010	0.0107842	5
	55	82	3.158693	183174.9	-470443.7	1	504846.8	-68.72574	1.579496E-010	0.0108014	5
	56	85	2.504006	231212.5	-558613.6	1	604572.9	-67.51514	7.300522E-011	0.0107816	5
	57	88	1.998082	288750.8	-655312.1	1	716108.2	-66.22023	5.584408E-011	0.0107814	5
	58	91	1.584686	364504	-768835.8	1	850865.2	-64.63444	2.039994E-010	0.0108376	5
	59	94	1.266892	448561.9	-891354.3	1	997858	-63.2868	2.137242E-011	0.0107724	5
	60	99	0.999041	572540.5	-1042626	1	1189483	-61.22734	4.496177E-010	0.0108169	4
