EXPLAIN
TAG	EISPOT
TITLE	LABEL	Potentiostatic EIS	Test &Identifier
DATE	LABEL	10/2/2019	Date
TIME	LABEL	9:15:10	Time
NOTES	NOTES	2	&Notes...
	
	
PSTAT	PSTAT	REF600-11020	Potentiostat
VDC	POTEN	0.00000E+000	T	DC &Voltage (V)
FREQINIT	QUANT	1.00000E+006	Initial Fre&q. (Hz)
FREQFINAL	QUANT	1.00000E+000	Final Fre&q. (Hz)
PTSPERDEC	QUANT	1.00000E+001	Points/&decade
VAC	QUANT	2.50000E+001	AC &Voltage (mV rms)
AREA	QUANT	1.00000E-002	&Area (cm^2)
CONDIT	TWOPARAM	T	5.00000E+000	0.00000E+000	Conditionin&g	Time(s)	E(V)
DELAY	TWOPARAM	T	5.00000E+000	0.00000E+000	Init. De&lay	Time(s)	Stab.(mV/s)
SPEED	SELECTOR	1	&Optimize for:
ZGUESS	QUANT	1.00000E+004	E&stimated Z (ohms)
OCVCURVE	TABLE	19
	Pt	T	Vf	Vm	Ach	Over
	#	s	V vs. Ref.	V	V	bits
	0	0.258333	6.40021E-003	6.40021E-003	5.92632E-004	...........
	1	0.516667	6.39964E-003	6.37073E-003	5.94765E-004	...........
	2	0.775	6.39590E-003	6.32800E-003	5.92832E-004	...........
	3	1.03333	6.38378E-003	6.25559E-003	5.97998E-004	...........
	4	1.29167	6.35814E-003	6.21116E-003	5.96732E-004	...........
	5	1.55	6.31949E-003	6.22074E-003	5.93199E-004	...........
	6	1.80833	6.27701E-003	6.20103E-003	5.96999E-004	...........
	7	2.06667	6.23993E-003	6.08542E-003	5.97432E-004	...........
	8	2.325	6.20387E-003	5.97569E-003	5.98865E-004	...........
	9	2.58333	6.15372E-003	5.88446E-003	5.98632E-004	...........
	10	2.84167	6.08229E-003	5.84319E-003	5.94232E-004	...........
	11	3.1	5.99770E-003	5.71810E-003	5.88332E-004	...........
	12	3.35833	5.91207E-003	5.71839E-003	5.93799E-004	...........
	13	3.61667	5.83521E-003	5.75867E-003	5.94365E-004	...........
	14	3.875	5.77864E-003	5.74692E-003	5.90632E-004	...........
	15	4.13333	5.74860E-003	5.70388E-003	5.92532E-004	...........
	16	4.39167	5.73744E-003	5.75539E-003	5.94365E-004	...........
	17	4.65	5.73542E-003	5.81434E-003	5.94965E-004	...........
	18	4.90833	5.74507E-003	5.91669E-003	5.89632E-004	...........
EOC	QUANT	0.0057451	Open Circuit (V)
PSTATMODEL	IQUANT	4	Pstat Model
PSTATSECTION	LABEL	REF600-11020	Pstat Section
PSTATSERIALNO	LABEL	11020	Pstat Serial Number
CTRLMODE	IQUANT	1	Control Mode
IESTAB	IQUANT	0	I/E Stability
CASPEED	IQUANT	1	Control Amp Speed
CONVENTION	IQUANT	1	Current Convention
ICHRANGE	IQUANT	2	Ich Range
ICHRANGEMODE	TOGGLE	F	Ich Auto Range
ICHOFFSETENABLE	TOGGLE	T	Ich Offset Enable
ICHOFFSET	QUANT	0	Ich Offset (V)
ICHFILTER	IQUANT	3	Ich Filter
VCHRANGE	IQUANT	2	Vch Range
VCHRANGEMODE	TOGGLE	F	Vch Auto Range
VCHOFFSETENABLE	TOGGLE	T	Vch Offset Enable
VCHOFFSET	QUANT	0	Vch Offset (V)
VCHFILTER	IQUANT	3	Vch Filter
ACHRANGE	IQUANT	2	Ach Range
ACHOFFSETENABLE	TOGGLE	F	Ach Offset Enable
ACHOFFSET	QUANT	0	Ach Offset (V)
ACHFILTER	IQUANT	3	Ach Filter
IERANGELOWERLIMIT	IQUANT	1	I/E Range Lower Limit
IERANGEMODE	TOGGLE	F	I/E AutoRange
IERANGE	IQUANT	6	I/E Range
POSFEEDENABLE	TOGGLE	F	Positive Feedback IR Comp
POSFEEDRESISTANCE	QUANT	0	Positive Feedback Resistance (ohm)
ACHSELECT	IQUANT	0	Ach Select
CABLEID	IQUANT	14	Cable ID
DCCALDATE	LABEL	8/19/2019	DC Calibration Date
ACCALDATE	LABEL	8/19/2019	AC Calibration Date
THERMOSELECT	IQUANT	1	Thermo Select
FRAMEWORKVERSION	QUANT	6.33	Framework Version
INSTRUMENTVERSION	LABEL	3.50	Instrument Version
ZCURVE	TABLE
	Pt	Time	Freq	Zreal	Zimag	Zsig	Zmod	Zphz	Idc	Vdc	IERange
	#	s	Hz	ohm	ohm	V	ohm	°	A	V	#
	0	2	1000078	2604.444	-1664.646	1	3090.983	-32.58492	1.900464E-006	0.0080908	8
	1	4	794390.6	2949.924	-1550.98	1	3332.805	-27.73402	-1.230871E-006	0.0077347	8
	2	5	630984.4	3208.588	-1401.124	1	3501.169	-23.58989	2.182942E-007	0.0074404	8
	3	7	501234.4	3424.545	-1230.041	1	3638.751	-19.75746	-3.187783E-006	0.0081108	8
	4	8	398109.4	3584.598	-1053.974	1	3736.336	-16.38484	-1.255263E-007	0.0075688	8
	5	9	316265.6	3719.863	-893.46	1	3825.657	-13.50582	-2.119777E-006	0.0077591	8
	6	11	251203.1	3799.425	-782.3629	1	3879.139	-11.63549	-2.787652E-006	0.0079456	8
	7	12	199546.9	3863.556	-656.3972	1	3918.918	-9.64218	-2.684953E-006	0.0077168	8
	8	14	158578.1	3910.323	-600.7397	1	3956.199	-8.734018	-8.103173E-009	0.0072387	8
	9	15	125953.1	3975.766	-466.6164	1	4003.054	-6.693905	7.017504E-007	0.0053134	7
	10	16	100078.1	4007.744	-423.1016	1	4030.016	-6.026451	-1.866896E-008	0.0072583	7
	11	18	79453.13	4037.608	-397.2252	1	4057.101	-5.618752	8.351999E-008	0.0071125	7
	12	19	63140.62	4067.873	-381.7885	1	4085.75	-5.361765	-1.547949E-008	0.0073249	7
	13	20	50203.12	4096.822	-377.4369	1	4114.171	-5.263755	4.506002E-008	0.0071406	7
	14	22	39890.62	4126.613	-381.999	1	4144.256	-5.288775	1.359412E-007	0.0070738	7
	15	23	31640.63	4160.83	-396.7867	1	4179.706	-5.44739	-1.849393E-008	0.0072439	7
	16	24	25171.88	4194.763	-420.8631	1	4215.823	-5.729348	3.548217E-008	0.0072341	7
	17	26	20015.62	4229.858	-456.7674	1	4254.449	-6.163286	1.363459E-007	0.0070731	7
	18	27	15890.62	4270.044	-500.9785	1	4299.333	-6.691576	-2.368294E-009	0.0072853	7
	19	29	12609.37	4314.264	-558.9112	1	4350.317	-7.381534	8.373094E-008	0.0072292	7
	20	30	10078.13	4359.233	-630.3492	1	4404.572	-8.227992	-4.506473E-008	0.0073049	7
	21	31	8015.625	4407.307	-716.1167	1	4465.107	-9.228991	-3.764344E-008	0.0072957	7
	22	33	6328.125	4460.118	-827.474	1	4536.228	-10.51043	-3.463364E-008	0.0072946	7
	23	34	5015.625	4519.201	-964.276	1	4620.931	-12.04476	-2.829216E-008	0.0072869	7
	24	35	3984.375	4580.664	-1132.555	1	4718.597	-13.88769	-3.903582E-008	0.0073193	7
	25	37	3170.956	4648.598	-1331.994	1	4835.667	-15.98895	6.785221E-008	0.0071585	7
	26	38	2527.573	4726.505	-1578.992	1	4983.278	-18.47302	-5.446917E-008	0.0074403	7
	27	39	1976.103	4821.112	-1910.142	1	5185.727	-21.61365	-1.085311E-009	0.0072834	7
	28	41	1577.524	4924.261	-2280.787	1	5426.816	-24.85232	-3.602132E-008	0.0072951	7
	29	42	1265.625	5037.105	-2723.752	1	5726.365	-28.40175	8.444353E-008	0.0072295	7
	30	43	998.264	5182.47	-3300.157	1	6144.024	-32.48867	-3.751805E-008	0.007315	7
	31	45	796.875	5336.727	-3977.776	1	6656.077	-36.69933	-1.509428E-008	0.0072413	7
	32	46	627.7902	5531.151	-4854.921	1	7359.612	-41.27477	-4.47595E-008	0.0072976	7
	33	48	505.5147	5730.18	-5815.849	1	8164.5	-45.42511	8.500108E-008	0.0072264	7
	34	49	397.9953	5995.462	-7154.697	1	9334.626	-50.03781	6.18037E-009	0.0072956	7
	35	50	315.5048	6304.627	-8748.8	1	10783.78	-54.22243	1.056926E-009	0.0072356	6
	36	52	252.4038	6661.045	-10636.01	1	12549.67	-57.94219	7.101452E-010	0.007234	6
	37	53	198.6229	7136.237	-13139.35	1	14952.2	-61.49274	9.510396E-010	0.0072315	6
	38	54	158.3615	7706.871	-16064.6	1	17817.61	-64.37099	1.186207E-009	0.0072302	6
	39	56	125.558	8456.999	-19746.61	1	21481.38	-66.81571	1.031313E-009	0.0072363	6
	40	57	100.4464	9376.122	-24087.61	1	25848.1	-68.73148	1.338213E-009	0.0072352	6
	41	59	79.00281	10689.88	-29775.54	1	31636.31	-70.25108	6.853206E-010	0.007225	6
	42	60	63.3446	12260.06	-36029.13	1	38057.95	-71.20749	5.360826E-010	0.0072286	6
	43	61	49.86702	14727.01	-44787.53	1	47146.66	-71.79813	3.645766E-010	0.0072291	6
	44	63	39.72458	17517.94	-54455.49	1	57203.84	-72.16739	1.178939E-009	0.0072329	6
	45	64	31.6723	21308.37	-65975.84	1	69331.51	-72.10098	9.548884E-010	0.0072249	6
	46	66	24.93351	26653.49	-80742.57	1	85028.06	-71.7317	8.382571E-010	0.0072212	6
	47	67	19.86229	33427.33	-97368.8	1	102946.9	-71.05232	5.520409E-010	0.0072217	6
	48	68	15.83615	41925.82	-116836.5	1	124131.2	-70.2599	-1.515497E-010	0.0072304	5
	49	70	12.40079	53702.52	-141064.6	1	150941	-69.15845	3.450556E-010	0.0072362	5
	50	71	9.93114	68668.68	-166501.4	1	180105.8	-67.58772	3.710587E-010	0.0072256	5
	51	73	7.944915	85917.35	-194931.4	1	213025.9	-66.21418	-7.56193E-012	0.0072311	5
	52	74	6.317385	108298.9	-227985.5	1	252400.5	-64.59111	-4.468915E-011	0.0072207	5
	53	76	5.008013	135677.8	-265234.3	1	297922.3	-62.90847	1.031976E-012	0.0072249	5
	54	79	3.945707	168174.9	-307229.9	1	350247.1	-61.3041	6.759845E-011	0.0072326	5
	55	82	3.158693	203473.4	-350040.2	1	404882.1	-59.83117	1.968401E-010	0.0072249	5
	56	85	2.504006	244627.8	-399464.3	1	468417	-58.51713	1.80132E-011	0.007243	5
	57	88	1.998082	288500	-451895.5	1	536136	-57.44495	3.537021E-010	0.0071979	5
	58	91	1.584686	337786.7	-515386.3	1	616216.6	-56.75898	-3.101609E-011	0.007209	5
	59	94	1.266892	390352.8	-581888.3	1	700692	-56.14479	1.944257E-010	0.0071989	5
	60	99	0.999041	450965.9	-666715.9	1	804910.1	-55.92562	2.850298E-012	0.0072653	5
