EXPLAIN
TAG	EISPOT
TITLE	LABEL	Potentiostatic EIS	Test &Identifier
DATE	LABEL	10/20/2019	Date
TIME	LABEL	9:41:33	Time
NOTES	NOTES	1	&Notes...
	
PSTAT	PSTAT	REF600-11020	Potentiostat
VDC	POTEN	0.00000E+000	T	DC &Voltage (V)
FREQINIT	QUANT	1.00000E+006	Initial Fre&q. (Hz)
FREQFINAL	QUANT	1.00000E+000	Final Fre&q. (Hz)
PTSPERDEC	QUANT	1.00000E+001	Points/&decade
VAC	QUANT	2.50000E+001	AC &Voltage (mV rms)
AREA	QUANT	1.00000E-002	&Area (cm^2)
CONDIT	TWOPARAM	T	5.00000E+000	0.00000E+000	Conditionin&g	Time(s)	E(V)
DELAY	TWOPARAM	T	5.00000E+000	0.00000E+000	Init. De&lay	Time(s)	Stab.(mV/s)
SPEED	SELECTOR	1	&Optimize for:
ZGUESS	QUANT	1.00000E+005	E&stimated Z (ohms)
OCVCURVE	TABLE	19
	Pt	T	Vf	Vm	Ach	Over
	#	s	V vs. Ref.	V	V	bits
	0	0.258333	4.15986E-003	4.15986E-003	5.22466E-004	...........
	1	0.516667	4.15878E-003	4.10292E-003	5.27233E-004	...........
	2	0.775	4.15345E-003	4.11974E-003	5.26833E-004	...........
	3	1.03333	4.14268E-003	4.12595E-003	5.25966E-004	...........
	4	1.29167	4.12585E-003	3.84674E-003	5.22200E-004	...........
	5	1.55	4.08815E-003	3.67289E-003	5.25966E-004	...........
	6	1.80833	4.00695E-003	3.62371E-003	5.19000E-004	...........
	7	2.06667	3.88740E-003	3.63841E-003	5.17600E-004	...........
	8	2.325	3.76851E-003	3.64191E-003	5.19566E-004	...........
	9	2.58333	3.68588E-003	3.62715E-003	5.19133E-004	...........
	10	2.84167	3.64459E-003	3.60110E-003	5.27166E-004	...........
	11	3.1	3.62791E-003	3.60895E-003	5.24466E-004	...........
	12	3.35833	3.62026E-003	3.64861E-003	5.24500E-004	...........
	13	3.61667	3.61724E-003	3.59763E-003	5.22866E-004	...........
	14	3.875	3.61728E-003	3.59531E-003	5.26133E-004	...........
	15	4.13333	3.61440E-003	3.53831E-003	5.22200E-004	...........
	16	4.39167	3.60323E-003	3.56022E-003	5.23433E-004	...........
	17	4.65	3.58658E-003	3.59865E-003	5.22400E-004	...........
	18	4.90833	3.59051E-003	4.43304E-003	5.24266E-004	...........
EOC	QUANT	0.0035905	Open Circuit (V)
PSTATMODEL	IQUANT	4	Pstat Model
PSTATSECTION	LABEL	REF600-11020	Pstat Section
PSTATSERIALNO	LABEL	11020	Pstat Serial Number
CTRLMODE	IQUANT	1	Control Mode
IESTAB	IQUANT	0	I/E Stability
CASPEED	IQUANT	1	Control Amp Speed
CONVENTION	IQUANT	1	Current Convention
ICHRANGE	IQUANT	2	Ich Range
ICHRANGEMODE	TOGGLE	F	Ich Auto Range
ICHOFFSETENABLE	TOGGLE	T	Ich Offset Enable
ICHOFFSET	QUANT	0	Ich Offset (V)
ICHFILTER	IQUANT	3	Ich Filter
VCHRANGE	IQUANT	2	Vch Range
VCHRANGEMODE	TOGGLE	F	Vch Auto Range
VCHOFFSETENABLE	TOGGLE	T	Vch Offset Enable
VCHOFFSET	QUANT	0	Vch Offset (V)
VCHFILTER	IQUANT	3	Vch Filter
ACHRANGE	IQUANT	2	Ach Range
ACHOFFSETENABLE	TOGGLE	F	Ach Offset Enable
ACHOFFSET	QUANT	0	Ach Offset (V)
ACHFILTER	IQUANT	3	Ach Filter
IERANGELOWERLIMIT	IQUANT	1	I/E Range Lower Limit
IERANGEMODE	TOGGLE	F	I/E AutoRange
IERANGE	IQUANT	4	I/E Range
POSFEEDENABLE	TOGGLE	F	Positive Feedback IR Comp
POSFEEDRESISTANCE	QUANT	0	Positive Feedback Resistance (ohm)
ACHSELECT	IQUANT	0	Ach Select
CABLEID	IQUANT	14	Cable ID
DCCALDATE	LABEL	8/19/2019	DC Calibration Date
ACCALDATE	LABEL	8/19/2019	AC Calibration Date
THERMOSELECT	IQUANT	1	Thermo Select
FRAMEWORKVERSION	QUANT	6.33	Framework Version
INSTRUMENTVERSION	LABEL	3.50	Instrument Version
ZCURVE	TABLE
	Pt	Time	Freq	Zreal	Zimag	Zsig	Zmod	Zphz	Idc	Vdc	IERange
	#	s	Hz	ohm	ohm	V	ohm	°	A	V	#
	0	2	1000078	1779.425	-2949.602	1	3444.78	-58.89841	-3.617105E-007	0.0061138	8
	1	3	794390.6	1964.852	-3484.815	1	4000.573	-60.58428	8.484647E-007	0.00499	8
	2	5	630984.4	2172.28	-4118.194	1	4655.999	-62.18909	1.26614E-006	0.0049801	8
	3	6	501234.4	2420.115	-4936.849	1	5498.13	-63.88524	-4.483508E-007	0.0051196	8
	4	8	398109.4	2701.415	-5919.73	1	6506.984	-65.47085	1.910678E-006	0.0046911	8
	5	10	316265.6	3086.813	-7091.629	1	7734.314	-66.47768	1.118836E-006	0.0050064	8
	6	11	251203.1	3511.784	-8509.223	1	9205.405	-67.57391	4.099214E-006	0.0043019	8
	7	13	199546.9	4142.144	-10429.65	1	11222.07	-68.33945	3.978312E-006	0.0043004	8
	8	15	158578.1	4949.619	-12399.49	1	13350.88	-68.23914	-1.670717E-006	0.0053829	8
	9	17	125953.1	6170.121	-14797.18	1	16032.06	-67.36486	3.381225E-007	0.0036669	7
	10	19	100078.1	7514.382	-17862.77	1	19378.97	-67.18484	-4.383664E-008	0.0050723	7
	11	20	79453.13	9199.301	-21380.55	1	23275.63	-66.71948	-4.627959E-008	0.0050463	7
	12	22	63140.62	11423.86	-25499.02	1	27941.09	-65.86706	-1.7007E-008	0.0049785	7
	13	23	50203.12	14275.55	-30226.13	1	33427.69	-64.71902	3.893938E-008	0.0048736	7
	14	25	39890.62	17860.86	-35615.19	1	39842.84	-63.36644	7.875354E-008	0.0049057	7
	15	27	31640.63	22628.97	-41717.71	1	47459.86	-61.52323	1.141148E-007	0.0049408	7
	16	28	25171.88	28455.41	-47897.29	1	55712.31	-59.28578	-1.719774E-008	0.0050729	7
	17	30	20015.62	35584.1	-55831.02	1	66206.73	-57.48846	5.936887E-008	0.0049525	7
	18	31	15890.62	44618.3	-62185.42	1	76536.39	-54.3404	8.469826E-009	0.0050515	7
	19	33	12609.37	56577.32	-67882.84	1	88368.96	-50.1903	-7.261395E-009	0.005096	6
	20	35	10078.13	68529.23	-73594.45	1	100560.4	-47.04113	7.401245E-009	0.0047818	6
	21	36	8015.625	82264.2	-74482.81	1	110973.4	-42.158	-9.39668E-009	0.005102	6
	22	38	6328.125	97473.7	-80942.13	1	126699.5	-39.70622	-8.212576E-009	0.0051413	6
	23	39	5015.625	112369.4	-82476.64	1	139388.9	-36.27785	7.693824E-009	0.0047779	6
	24	41	3984.375	128578.1	-79329.81	1	151081.2	-31.67366	-1.177533E-008	0.0050656	6
	25	42	3170.956	141016.1	-79914.83	1	162086.1	-29.54054	4.714844E-009	0.0049985	6
	26	44	2527.573	153515.1	-77748.34	1	172080.5	-26.86012	5.834369E-009	0.0050457	6
	27	46	1976.103	166798.7	-75317.06	1	183015	-24.3013	-7.978171E-009	0.0051395	6
	28	47	1577.524	191345.7	-59516.9	1	200388.2	-17.27799	2.172441E-008	0.0046639	6
	29	49	1265.625	185991.5	-66947.97	1	197673.6	-19.79643	7.195194E-010	0.0048718	5
	30	50	998.264	194507.5	-65853.21	1	205352.9	-18.70424	2.147108E-009	0.0049923	5
	31	52	796.875	202186.3	-66450.3	1	212826.1	-18.19356	-1.361676E-009	0.0051711	5
	32	53	627.7902	210716.4	-66486.86	1	220956.8	-17.51193	5.788377E-010	0.0048484	5
	33	55	505.5147	218925.7	-68212.91	1	229306.5	-17.306	4.682515E-010	0.0050656	5
	34	56	397.9953	228015.6	-70749.18	1	238739.5	-17.23819	-7.952388E-010	0.0049795	5
	35	57	315.5048	236787.3	-74005.65	1	248082.8	-17.35615	9.922411E-010	0.0049722	5
	36	59	252.4038	244763.9	-77036.63	1	256600.9	-17.4708	-1.160593E-009	0.0049707	5
	37	60	198.6229	254783.3	-81462.91	1	267489.7	-17.73085	-3.914625E-010	0.004974	5
	38	61	158.3615	265235.1	-87084.09	1	279165.3	-18.17646	-6.476299E-010	0.004972	5
	39	63	125.558	276228	-93310.74	1	291562.7	-18.66514	4.743153E-011	0.0049754	5
	40	64	100.4464	286476.2	-101451.5	1	303909.6	-19.50087	1.515182E-010	0.0049721	5
	41	66	79.00281	291639.5	-110245.1	1	311781.3	-20.70752	1.9561E-010	0.0049748	5
	42	68	63.3446	328740.2	-88754.2	1	340510.6	-15.10865	-3.527613E-010	0.0049752	5
	43	69	49.86702	326501.7	-130893.2	1	351761.9	-21.84564	-2.035061E-010	0.0049727	5
	44	71	39.72458	333502	-150651.6	1	365950.1	-24.30995	4.463032E-010	0.0049776	5
	45	72	31.6723	352458	-167693	1	390317.3	-25.44424	7.031005E-011	0.0049768	5
	46	74	24.93351	378110.8	-190523.7	1	423399.3	-26.74277	-1.117838E-010	0.0049754	5
	47	76	19.86229	398761.9	-218745.2	1	454819.2	-28.74746	7.466465E-010	0.0049777	5
	48	77	15.83615	439140.2	-227293.4	1	494475.8	-27.36551	1.408547E-009	0.004977	5
	49	78	12.40079	454628.6	-279629.9	1	533741.5	-31.59456	-2.931183E-010	0.0049794	5
	50	80	9.93114	494262.7	-294304.6	1	575248.4	-30.77133	-6.540047E-010	0.0049828	5
	51	81	7.944915	533746.6	-322444.7	1	623583.2	-31.13684	6.723028E-010	0.0049834	5
	52	83	6.317385	581048.2	-366374.8	1	686911.6	-32.23312	3.864868E-010	0.0049656	6
	53	85	5.008013	627807.2	-405607.1	1	747434.9	-32.86527	2.174478E-010	0.0049672	6
	54	88	3.945707	682164.9	-441117.3	1	812362.9	-32.88845	5.088711E-010	0.004969	6
	55	92	3.158693	732312.4	-492167.8	1	882332.4	-33.904	3.652603E-010	0.0049764	6
	56	95	2.504006	792395.3	-544859.8	1	961646	-34.51284	2.628772E-010	0.0049672	4
	57	98	1.998082	850593.2	-603812.6	1	1043120	-35.36989	-5.602408E-011	0.0050137	4
	58	101	1.584686	916317.3	-677293.8	1	1139458	-36.46987	1.565385E-010	0.0049686	4
	59	105	1.266892	987866	-757306.8	1	1244746	-37.4741	7.35603E-011	0.0050116	4
	60	109	0.999041	1070199	-858098.8	1	1371736	-38.72307	-1.05003E-010	0.0049324	4
