EXPLAIN
TAG	EISPOT
TITLE	LABEL	Potentiostatic IDE	Test &Identifier
DATE	LABEL	9/14/2019	Date
TIME	LABEL	13:12:03	Time
NOTES	NOTES	1	&Notes...
	
PSTAT	PSTAT	REF600-11020	Potentiostat
VDC	POTEN	0.00000E+000	T	DC &Voltage (V)
FREQINIT	QUANT	1.00000E+006	Initial Fre&q. (Hz)
FREQFINAL	QUANT	1.00000E+000	Final Fre&q. (Hz)
PTSPERDEC	QUANT	1.00000E+001	Points/&decade
VAC	QUANT	2.50000E+001	AC &Voltage (mV rms)
AREA	QUANT	1.00000E-002	&Area (cm^2)
CONDIT	TWOPARAM	T	5.00000E+000	0.00000E+000	Conditionin&g	Time(s)	E(V)
DELAY	TWOPARAM	T	5.00000E+000	0.00000E+000	Init. De&lay	Time(s)	Stab.(mV/s)
SPEED	SELECTOR	1	&Optimize for:
ZGUESS	QUANT	1.00000E+007	E&stimated Z (ohms)
OCVCURVE	TABLE	19
	Pt	T	Vf	Vm	Ach	Over
	#	s	V vs. Ref.	V	V	bits
	0	0.258333	2.87329E-003	2.87329E-003	5.65266E-004	...........
	1	0.516667	2.86600E-003	2.49174E-003	5.62432E-004	...........
	2	0.775	2.82158E-003	2.14773E-003	5.63199E-004	...........
	3	1.03333	2.69740E-003	1.83695E-003	5.66699E-004	...........
	4	1.29167	2.48039E-003	1.61010E-003	5.66399E-004	...........
	5	1.55	2.20304E-003	1.32460E-003	5.63732E-004	...........
	6	1.80833	1.91374E-003	1.26181E-003	5.65866E-004	...........
	7	2.06667	1.65822E-003	1.51202E-003	5.66699E-004	...........
	8	2.325	1.48012E-003	1.31280E-003	5.66266E-004	...........
	9	2.58333	1.38241E-003	7.72470E-004	5.70366E-004	...........
	10	2.84167	1.29254E-003	5.32975E-004	5.70899E-004	...........
	11	3.1	1.13098E-003	4.49593E-004	5.71366E-004	...........
	12	3.35833	9.09987E-004	7.24692E-004	5.72966E-004	...........
	13	3.61667	7.24662E-004	9.11427E-004	5.71132E-004	...........
	14	3.875	6.52242E-004	7.00289E-004	5.71966E-004	...........
	15	4.13333	6.70898E-004	4.30692E-004	5.66499E-004	...........
	16	4.39167	6.81510E-004	1.33965E-004	5.65466E-004	...........
	17	4.65	6.02365E-004	-1.11745E-004	5.70166E-004	...........
	18	4.90833	4.23995E-004	-3.49399E-004	5.61566E-004	...........
EOC	QUANT	0.000424	Open Circuit (V)
PSTATMODEL	IQUANT	4	Pstat Model
PSTATSECTION	LABEL	REF600-11020	Pstat Section
PSTATSERIALNO	LABEL	11020	Pstat Serial Number
CTRLMODE	IQUANT	1	Control Mode
IESTAB	IQUANT	0	I/E Stability
CASPEED	IQUANT	1	Control Amp Speed
CONVENTION	IQUANT	1	Current Convention
ICHRANGE	IQUANT	2	Ich Range
ICHRANGEMODE	TOGGLE	F	Ich Auto Range
ICHOFFSETENABLE	TOGGLE	T	Ich Offset Enable
ICHOFFSET	QUANT	0	Ich Offset (V)
ICHFILTER	IQUANT	3	Ich Filter
VCHRANGE	IQUANT	2	Vch Range
VCHRANGEMODE	TOGGLE	F	Vch Auto Range
VCHOFFSETENABLE	TOGGLE	T	Vch Offset Enable
VCHOFFSET	QUANT	0	Vch Offset (V)
VCHFILTER	IQUANT	3	Vch Filter
ACHRANGE	IQUANT	2	Ach Range
ACHOFFSETENABLE	TOGGLE	F	Ach Offset Enable
ACHOFFSET	QUANT	0	Ach Offset (V)
ACHFILTER	IQUANT	3	Ach Filter
IERANGELOWERLIMIT	IQUANT	1	I/E Range Lower Limit
IERANGEMODE	TOGGLE	F	I/E AutoRange
IERANGE	IQUANT	1	I/E Range
POSFEEDENABLE	TOGGLE	F	Positive Feedback IR Comp
POSFEEDRESISTANCE	QUANT	0	Positive Feedback Resistance (ohm)
ACHSELECT	IQUANT	0	Ach Select
CABLEID	IQUANT	14	Cable ID
DCCALDATE	LABEL	8/19/2019	DC Calibration Date
ACCALDATE	LABEL	8/19/2019	AC Calibration Date
THERMOSELECT	IQUANT	1	Thermo Select
FRAMEWORKVERSION	QUANT	6.33	Framework Version
INSTRUMENTVERSION	LABEL	3.50	Instrument Version
ZCURVE	TABLE
	Pt	Time	Freq	Zreal	Zimag	Zsig	Zmod	Zphz	Idc	Vdc	IERange
	#	s	Hz	ohm	ohm	V	ohm	°	A	V	#
	0	2	1000078	2413.317	-1742.35	1	2976.555	-35.82827	1.152118E-006	0.002773	8
	1	3	794390.6	2770.436	-1671.425	1	3235.58	-31.10291	3.323139E-007	0.0025074	8
	2	5	630984.4	3070.977	-1546.73	1	3438.499	-26.73259	-8.851512E-007	0.0025228	8
	3	6	501234.4	3317.969	-1375.662	1	3591.847	-22.51937	4.305869E-006	0.0015062	8
	4	7	398109.4	3513.259	-1219.969	1	3719.047	-19.14942	-7.967409E-008	0.0022607	8
	5	9	316265.6	3687.541	-1038.43	1	3830.965	-15.72748	-3.136134E-007	0.0021784	8
	6	10	251203.1	3807.306	-898.8506	1	3911.97	-13.28349	3.883608E-006	0.0012525	8
	7	11	199546.9	3888.068	-764.0945	1	3962.438	-11.11825	-3.37468E-006	0.0028029	8
	8	13	158578.1	3962.014	-671.3942	1	4018.498	-9.61785	-4.081992E-007	0.0024029	8
	9	14	125953.1	4036.755	-537.8427	1	4072.428	-7.589186	3.218076E-007	0.0015042	7
	10	16	100078.1	4062.902	-481.0661	1	4091.283	-6.752642	-4.867617E-008	0.0022306	7
	11	17	79453.13	4099.998	-448.1326	1	4124.416	-6.237708	3.699697E-009	0.0020732	7
	12	18	63140.62	4131.853	-426.301	1	4153.787	-5.890609	-5.126716E-008	0.0021889	7
	13	20	50203.12	4165.03	-416.4057	1	4185.794	-5.709268	-5.062799E-008	0.0021859	7
	14	21	39890.62	4194.985	-415.877	1	4215.549	-5.661615	7.779418E-008	0.0019434	7
	15	22	31640.63	4232.768	-431.377	1	4254.693	-5.819133	-6.489086E-008	0.0021894	7
	16	24	25171.88	4269.301	-455.1866	1	4293.498	-6.085802	-3.107846E-008	0.0021014	7
	17	25	20015.62	4308.161	-490.163	1	4335.956	-6.490942	-2.081145E-008	0.0021363	7
	18	26	15890.62	4356.016	-538.4381	1	4389.167	-7.046471	-5.324242E-008	0.0021686	7
	19	28	12609.37	4400.276	-595.8281	1	4440.432	-7.711348	-4.654154E-008	0.0021181	7
	20	29	10078.13	4449.994	-666.8636	1	4499.684	-8.522763	4.862772E-008	0.002036	7
	21	30	8015.625	4506.015	-757.351	1	4569.218	-9.54084	6.511278E-008	0.0019956	7
	22	32	6328.125	4571.015	-869.6057	1	4652.998	-10.77143	-6.34032E-008	0.0021778	7
	23	33	5015.625	4639.194	-1004.586	1	4746.716	-12.21837	-4.755257E-008	0.002211	7
	24	34	3984.375	4714.022	-1165.451	1	4855.953	-13.88681	-6.360947E-008	0.0021807	7
	25	36	3170.956	4797.724	-1361.949	1	4987.29	-15.84786	6.25921E-008	0.0019829	7
	26	37	2527.573	4891.296	-1596.306	1	5145.189	-18.07443	-6.317504E-008	0.0021756	7
	27	38	1976.103	5003.965	-1910.438	1	5356.252	-20.8961	2.50198E-008	0.0021476	7
	28	40	1577.524	5118.818	-2259.634	1	5595.377	-23.81842	2.711854E-008	0.0021539	7
	29	41	1265.625	5258.423	-2672.307	1	5898.495	-26.93947	-1.909871E-008	0.0021293	7
	30	42	998.264	5411.959	-3211.51	1	6293.1	-30.68531	-4.657242E-008	0.0022054	7
	31	44	796.875	5584.61	-3837.952	1	6776.263	-34.49829	2.688475E-008	0.002152	7
	32	45	627.7902	5803.966	-4639.96	1	7430.697	-38.64046	-4.96449E-008	0.0021625	7
	33	46	505.5147	6029.902	-5535.431	1	8185.396	-42.55183	-6.386593E-008	0.0021751	7
	34	48	397.9953	6315.876	-6736.674	1	9234.342	-46.8465	5.050015E-009	0.0021097	7
	35	49	315.5048	6641.831	-8170.684	1	10529.67	-50.89284	5.255978E-010	0.0020553	6
	36	50	252.4038	7002.62	-9860.2	1	12093.81	-54.618	9.470804E-010	0.0020535	6
	37	52	198.6229	7455.234	-12097.71	1	14210.39	-58.35648	1.469847E-009	0.0020531	6
	38	53	158.3615	7968.975	-14704.7	1	16725.22	-61.54524	9.453249E-010	0.0020455	6
	39	54	125.558	8604.551	-18005.87	1	19956.19	-64.45804	1.562292E-009	0.0020489	6
	40	56	100.4464	9380.579	-21913.62	1	23836.99	-66.82565	3.811776E-010	0.0020458	6
	41	57	79.00281	10415.79	-27035.57	1	28972.59	-68.93021	6.183812E-010	0.0020518	6
	42	58	63.3446	11316.05	-33150.96	1	35029.12	-71.15271	5.492085E-010	0.0020482	6
	43	60	49.86702	13396.16	-40518.19	1	42675.3	-71.70504	3.301972E-010	0.0020495	6
	44	61	39.72458	15349.4	-49867.17	1	52176.04	-72.89134	1.13948E-009	0.0020501	6
	45	62	31.6723	18272.29	-60829.43	1	63514.54	-73.28048	6.331943E-010	0.002049	6
	46	64	24.93351	22042.42	-75016.71	1	78188.08	-73.62545	9.639617E-010	0.0020496	6
	47	65	19.86229	26981.63	-91253.15	1	95158.5	-73.52816	9.599845E-010	0.0020424	6
	48	67	15.83615	34017	-111770.7	1	116832.5	-73.07256	-1.185727E-009	0.0020524	5
	49	68	12.40079	43634.48	-135325.8	1	142186.6	-72.12859	2.280232E-009	0.0020515	5
	50	69	9.93114	53433.95	-163490.3	1	172000.7	-71.90092	5.315456E-010	0.0020475	5
	51	71	7.944915	68176.38	-196082.1	1	207596.3	-70.8278	6.804375E-010	0.0020539	5
	52	73	6.317385	86028	-233302.6	1	248658.3	-69.75906	1.74153E-010	0.0020587	5
	53	75	5.008013	110592.3	-278178	1	299355.4	-68.31924	3.439296E-010	0.0020523	5
	54	77	3.945707	141873.6	-330133.7	1	359327.7	-66.74458	3.785681E-010	0.0020445	5
	55	80	3.158693	178060.2	-384416.6	1	423652.7	-65.14663	4.6129E-010	0.0020694	5
	56	83	2.504006	223860	-449004.3	1	501715.2	-63.50053	3.874671E-011	0.0020477	5
	57	86	1.998082	276896.6	-515966.9	1	585571.2	-61.77952	2.718924E-010	0.0020076	5
	58	89	1.584686	338867.3	-591897	1	682036	-60.2084	1.624609E-010	0.0020349	5
	59	92	1.266892	408775.5	-669896.3	1	784766.4	-58.60816	3.510165E-010	0.002009	5
	60	97	0.999041	490032.1	-763842.6	1	907516.9	-57.31839	1.295402E-010	0.0020719	5
