EXPLAIN
TAG	EISPOT
TITLE	LABEL	Potentiostatic EIS	Test &Identifier
DATE	LABEL	10/2/2019	Date
TIME	LABEL	9:52:06	Time
NOTES	NOTES	2	&Notes...
	
	
PSTAT	PSTAT	REF600-11020	Potentiostat
VDC	POTEN	0.00000E+000	T	DC &Voltage (V)
FREQINIT	QUANT	1.00000E+006	Initial Fre&q. (Hz)
FREQFINAL	QUANT	1.00000E+000	Final Fre&q. (Hz)
PTSPERDEC	QUANT	1.00000E+001	Points/&decade
VAC	QUANT	2.50000E+001	AC &Voltage (mV rms)
AREA	QUANT	1.00000E-002	&Area (cm^2)
CONDIT	TWOPARAM	T	5.00000E+000	0.00000E+000	Conditionin&g	Time(s)	E(V)
DELAY	TWOPARAM	T	5.00000E+000	0.00000E+000	Init. De&lay	Time(s)	Stab.(mV/s)
SPEED	SELECTOR	1	&Optimize for:
ZGUESS	QUANT	1.00000E+004	E&stimated Z (ohms)
OCVCURVE	TABLE	19
	Pt	T	Vf	Vm	Ach	Over
	#	s	V vs. Ref.	V	V	bits
	0	0.258333	1.17651E-002	1.17651E-002	5.74299E-004	...........
	1	0.516667	1.17424E-002	1.05751E-002	5.75099E-004	...........
	2	0.775	1.16297E-002	1.08568E-002	5.78532E-004	...........
	3	1.03333	1.13991E-002	1.10535E-002	5.83565E-004	...........
	4	1.29167	1.11461E-002	1.08491E-002	5.79832E-004	...........
	5	1.55	1.09736E-002	1.04397E-002	5.81999E-004	...........
	6	1.80833	1.08507E-002	9.92586E-003	5.86599E-004	...........
	7	2.06667	1.06766E-002	9.80284E-003	5.86099E-004	...........
	8	2.325	1.04238E-002	9.96076E-003	5.81632E-004	...........
	9	2.58333	1.01702E-002	1.00193E-002	5.79832E-004	...........
	10	2.84167	1.00009E-002	9.64493E-003	5.85499E-004	...........
	11	3.1	9.89757E-003	8.90476E-003	5.81165E-004	...........
	12	3.35833	9.75432E-003	8.94898E-003	5.76066E-004	...........
	13	3.61667	9.51118E-003	8.61005E-003	5.76832E-004	...........
	14	3.875	9.19555E-003	7.55510E-003	5.84599E-004	...........
	15	4.13333	8.83636E-003	8.16435E-003	5.80365E-004	...........
	16	4.39167	8.48023E-003	8.44415E-003	5.76699E-004	...........
	17	4.65	8.25073E-003	8.80824E-003	5.76799E-004	...........
	18	4.90833	8.23905E-003	8.79288E-003	5.79532E-004	...........
EOC	QUANT	0.008239	Open Circuit (V)
PSTATMODEL	IQUANT	4	Pstat Model
PSTATSECTION	LABEL	REF600-11020	Pstat Section
PSTATSERIALNO	LABEL	11020	Pstat Serial Number
CTRLMODE	IQUANT	1	Control Mode
IESTAB	IQUANT	0	I/E Stability
CASPEED	IQUANT	1	Control Amp Speed
CONVENTION	IQUANT	1	Current Convention
ICHRANGE	IQUANT	2	Ich Range
ICHRANGEMODE	TOGGLE	F	Ich Auto Range
ICHOFFSETENABLE	TOGGLE	T	Ich Offset Enable
ICHOFFSET	QUANT	0	Ich Offset (V)
ICHFILTER	IQUANT	3	Ich Filter
VCHRANGE	IQUANT	2	Vch Range
VCHRANGEMODE	TOGGLE	F	Vch Auto Range
VCHOFFSETENABLE	TOGGLE	T	Vch Offset Enable
VCHOFFSET	QUANT	0	Vch Offset (V)
VCHFILTER	IQUANT	3	Vch Filter
ACHRANGE	IQUANT	2	Ach Range
ACHOFFSETENABLE	TOGGLE	F	Ach Offset Enable
ACHOFFSET	QUANT	0	Ach Offset (V)
ACHFILTER	IQUANT	3	Ach Filter
IERANGELOWERLIMIT	IQUANT	1	I/E Range Lower Limit
IERANGEMODE	TOGGLE	F	I/E AutoRange
IERANGE	IQUANT	6	I/E Range
POSFEEDENABLE	TOGGLE	F	Positive Feedback IR Comp
POSFEEDRESISTANCE	QUANT	0	Positive Feedback Resistance (ohm)
ACHSELECT	IQUANT	0	Ach Select
CABLEID	IQUANT	14	Cable ID
DCCALDATE	LABEL	8/19/2019	DC Calibration Date
ACCALDATE	LABEL	8/19/2019	AC Calibration Date
THERMOSELECT	IQUANT	1	Thermo Select
FRAMEWORKVERSION	QUANT	6.33	Framework Version
INSTRUMENTVERSION	LABEL	3.50	Instrument Version
ZCURVE	TABLE
	Pt	Time	Freq	Zreal	Zimag	Zsig	Zmod	Zphz	Idc	Vdc	IERange
	#	s	Hz	ohm	ohm	V	ohm	°	A	V	#
	0	2	1000078	2521.096	-1921.461	1	3169.848	-37.31295	4.544323E-006	0.0103729	8
	1	3	794390.6	2891.91	-1883.366	1	3451.118	-33.07433	-2.990026E-007	0.0100553	8
	2	5	630984.4	3243.156	-1794.372	1	3706.458	-28.95486	1.176325E-006	0.0099421	8
	3	6	501234.4	3556.546	-1664.461	1	3926.761	-25.07956	-7.929937E-007	0.010112	8
	4	7	398109.4	3810.312	-1529.436	1	4105.807	-21.87023	1.176425E-006	0.0098053	8
	5	9	316265.6	4023.846	-1369.569	1	4250.536	-18.79668	3.6057E-006	0.0091734	8
	6	10	251203.1	4182.85	-1257.852	1	4367.885	-16.7369	4.691677E-006	0.008756	8
	7	12	199546.9	4340.053	-1128.753	1	4484.433	-14.57841	-2.223028E-006	0.0102238	8
	8	13	158578.1	4468.583	-1026.975	1	4585.075	-12.94303	2.405416E-006	0.0092749	8
	9	14	125953.1	4580.918	-898.1594	1	4668.137	-11.093	5.569409E-007	0.0082319	7
	10	16	100078.1	4657.723	-855.6207	1	4735.66	-10.40915	1.273806E-007	0.0095898	7
	11	17	79453.13	4739.759	-836.3228	1	4812.978	-10.00675	-8.642568E-009	0.0097941	7
	12	18	63140.62	4819.032	-832.4309	1	4890.4	-9.80046	-1.32526E-008	0.0098312	7
	13	20	50203.12	4900.334	-847.7751	1	4973.127	-9.81522	5.880723E-008	0.0096751	7
	14	21	39890.62	4985.063	-879.6848	1	5062.084	-10.00762	1.683587E-008	0.0098648	7
	15	22	31640.63	5075.38	-930.9622	1	5160.055	-10.39405	1.277776E-007	0.0095813	7
	16	24	25171.88	5169.853	-996.578	1	5265.031	-10.91091	5.401127E-008	0.0096212	7
	17	25	20015.62	5275.532	-1085.056	1	5385.961	-11.62235	1.598107E-008	0.0098688	7
	18	26	15890.62	5391.596	-1190.481	1	5521.462	-12.4513	5.933699E-008	0.0096739	7
	19	28	12609.37	5521.382	-1319.608	1	5676.885	-13.44152	1.187115E-008	0.0097359	7
	20	29	10078.13	5658.262	-1470.583	1	5846.241	-14.56885	2.687473E-008	0.0096746	7
	21	30	8015.625	5807.878	-1645.366	1	6036.446	-15.81737	-2.875314E-008	0.0097552	7
	22	32	6328.125	5994.187	-1859.76	1	6276.064	-17.23705	9.118396E-008	0.0095877	7
	23	33	5015.625	6195.67	-2111.917	1	6545.726	-18.8227	-6.398155E-008	0.0098862	7
	24	34	3984.375	6421.426	-2399.624	1	6855.137	-20.49022	-4.106484E-008	0.0097706	7
	25	36	3170.956	6681.094	-2730.941	1	7217.69	-22.23261	2.722227E-008	0.0096666	7
	26	37	2527.573	6975.01	-3109.284	1	7636.649	-24.02611	-3.118021E-008	0.0097568	7
	27	38	1976.103	7348.316	-3576.587	1	8172.498	-25.95321	9.08333E-008	0.009579	7
	28	40	1577.524	7733.75	-4062.973	1	8736.055	-27.71546	2.578916E-009	0.0096929	7
	29	41	1265.625	8175.316	-4580.805	1	9371.209	-29.26285	-6.437754E-009	0.0098694	6
	30	43	998.264	8675.076	-5220.77	1	10124.89	-31.04006	-1.028145E-008	0.0097667	6
	31	44	796.875	9185.646	-5906.783	1	10920.91	-32.74284	1.205234E-009	0.0097366	6
	32	45	627.7902	9753.19	-6753.975	1	11863.43	-34.70216	-1.133316E-008	0.0099176	6
	33	47	505.5147	10277.44	-7642.47	1	12807.54	-36.63508	-1.222916E-009	0.0097195	6
	34	48	397.9953	10862.53	-8853.707	1	14013.66	-39.1824	9.445165E-010	0.0097256	6
	35	49	315.5048	11429.5	-10300.74	1	15386.32	-42.02647	1.094794E-009	0.0097216	6
	36	51	252.4038	11980.75	-12034.99	1	16981.74	-45.12941	2.798435E-010	0.0097176	6
	37	52	198.6229	12600.35	-14377.55	1	19117.61	-48.76899	4.937323E-010	0.0097248	6
	38	53	158.3615	13234.87	-17173.23	1	21681.37	-52.3797	3.450252E-010	0.0097181	6
	39	55	125.558	13981.83	-20759.23	1	25028.73	-56.03881	7.411693E-010	0.0097232	6
	40	56	100.4464	14835.03	-25078.27	1	29137.57	-59.3936	5.903296E-010	0.0097223	6
	41	57	79.00281	15965.19	-30766.89	1	34662.5	-62.57484	4.316453E-010	0.0097177	6
	42	59	63.3446	17048.33	-37301.97	1	41013.2	-65.43791	4.30758E-010	0.0097142	6
	43	60	49.86702	19241.27	-46002.11	1	49864.02	-67.30194	4.169283E-010	0.0097168	6
	44	62	39.72458	21419.76	-56390.36	1	60321.46	-69.20082	6.66375E-010	0.0097238	6
	45	63	31.6723	24486.83	-68695.15	1	72928.92	-70.38107	2.460923E-010	0.0097196	6
	46	64	24.93351	28462.5	-84665.97	1	89322.12	-71.41869	6.753927E-010	0.0097224	6
	47	66	19.86229	33489.27	-103044.2	1	108349.6	-71.9959	-2.415706E-011	0.0097257	5
	48	67	15.83615	39425.52	-125589.9	1	131632.8	-72.57174	1.155805E-009	0.0097226	5
	49	68	12.40079	48992.77	-153092	1	160740.3	-72.2542	-1.925689E-010	0.0097266	5
	50	70	9.93114	60409.97	-185135.3	1	194742	-71.92841	2.928015E-010	0.0097296	5
	51	71	7.944915	74267.83	-221647.3	1	233758.9	-71.47543	-7.015809E-011	0.0097189	5
	52	73	6.317385	91874.87	-266924	1	282293.1	-71.00661	1.941752E-010	0.0097148	5
	53	75	5.008013	114822	-321141.4	1	341051.2	-70.32582	-4.595234E-010	0.0097241	5
	54	78	3.945707	145642.3	-385376.1	1	411978.6	-69.29729	4.066352E-011	0.0097312	5
	55	80	3.158693	178889.9	-457358.6	1	491099.3	-68.63769	1.094081E-010	0.0097161	5
	56	84	2.504006	223623.8	-544027.6	1	588195.2	-67.65478	2.87935E-010	0.009731	5
	57	86	1.998082	277344.2	-640346.7	1	697827.8	-66.58181	2.93904E-010	0.0097368	5
	58	89	1.584686	348112.7	-754483.9	1	830920.2	-65.23179	9.631712E-011	0.0096768	5
	59	93	1.266892	428399.8	-880465.6	1	979156	-64.05427	2.252858E-010	0.0097357	5
	60	97	0.999041	538154.5	-1032415	1	1164255	-62.46886	-6.547854E-011	0.0096897	4
