EXPLAIN
TAG	EISPOT
TITLE	LABEL	Potentiostatic IDE	Test &Identifier
DATE	LABEL	9/4/2019	Date
TIME	LABEL	11:38:40	Time
NOTES	NOTES	1	&Notes...
	
PSTAT	PSTAT	REF600-11020	Potentiostat
VDC	POTEN	0.00000E+000	T	DC &Voltage (V)
FREQINIT	QUANT	1.00000E+006	Initial Fre&q. (Hz)
FREQFINAL	QUANT	1.00000E+000	Final Fre&q. (Hz)
PTSPERDEC	QUANT	1.00000E+001	Points/&decade
VAC	QUANT	2.50000E+001	AC &Voltage (mV rms)
AREA	QUANT	1.00000E-002	&Area (cm^2)
CONDIT	TWOPARAM	T	5.00000E+000	0.00000E+000	Conditionin&g	Time(s)	E(V)
DELAY	TWOPARAM	T	5.00000E+000	0.00000E+000	Init. De&lay	Time(s)	Stab.(mV/s)
SPEED	SELECTOR	1	&Optimize for:
ZGUESS	QUANT	1.00000E+007	E&stimated Z (ohms)
OCVCURVE	TABLE	19
	Pt	T	Vf	Vm	Ach	Over
	#	s	V vs. Ref.	V	V	bits
	0	0.258333	9.79859E-002	9.79859E-002	5.76666E-004	...........
	1	0.516667	9.80723E-002	1.02509E-001	5.76099E-004	...........
	2	0.775	9.85942E-002	1.06341E-001	5.78932E-004	...........
	3	1.03333	1.00037E-001	1.09785E-001	5.77399E-004	...........
	4	1.29167	1.02539E-001	1.12855E-001	5.80865E-004	...........
	5	1.55	1.05737E-001	1.15873E-001	5.74565E-004	...........
	6	1.80833	1.09131E-001	1.18635E-001	5.76866E-004	...........
	7	2.06667	1.12407E-001	1.21217E-001	5.75666E-004	...........
	8	2.325	1.15458E-001	1.23662E-001	5.77666E-004	...........
	9	2.58333	1.18281E-001	1.25884E-001	5.77332E-004	...........
	10	2.84167	1.20900E-001	1.28003E-001	5.77199E-004	...........
	11	3.1	1.23339E-001	1.29973E-001	5.78566E-004	...........
	12	3.35833	1.25618E-001	1.32095E-001	5.76366E-004	...........
	13	3.61667	1.27773E-001	1.33909E-001	5.74899E-004	...........
	14	3.875	1.29832E-001	1.35588E-001	5.78799E-004	...........
	15	4.13333	1.31795E-001	1.37085E-001	5.80865E-004	...........
	16	4.39167	1.33634E-001	1.38455E-001	5.83799E-004	...........
	17	4.65	1.35326E-001	1.39766E-001	5.80832E-004	...........
	18	4.90833	1.36877E-001	1.41229E-001	5.79166E-004	...........
EOC	QUANT	0.1368772	Open Circuit (V)
PSTATMODEL	IQUANT	4	Pstat Model
PSTATSECTION	LABEL	REF600-11020	Pstat Section
PSTATSERIALNO	LABEL	11020	Pstat Serial Number
CTRLMODE	IQUANT	1	Control Mode
IESTAB	IQUANT	0	I/E Stability
CASPEED	IQUANT	1	Control Amp Speed
CONVENTION	IQUANT	1	Current Convention
ICHRANGE	IQUANT	2	Ich Range
ICHRANGEMODE	TOGGLE	F	Ich Auto Range
ICHOFFSETENABLE	TOGGLE	T	Ich Offset Enable
ICHOFFSET	QUANT	0	Ich Offset (V)
ICHFILTER	IQUANT	3	Ich Filter
VCHRANGE	IQUANT	2	Vch Range
VCHRANGEMODE	TOGGLE	F	Vch Auto Range
VCHOFFSETENABLE	TOGGLE	T	Vch Offset Enable
VCHOFFSET	QUANT	0	Vch Offset (V)
VCHFILTER	IQUANT	3	Vch Filter
ACHRANGE	IQUANT	2	Ach Range
ACHOFFSETENABLE	TOGGLE	F	Ach Offset Enable
ACHOFFSET	QUANT	0	Ach Offset (V)
ACHFILTER	IQUANT	3	Ach Filter
IERANGELOWERLIMIT	IQUANT	1	I/E Range Lower Limit
IERANGEMODE	TOGGLE	F	I/E AutoRange
IERANGE	IQUANT	4	I/E Range
POSFEEDENABLE	TOGGLE	F	Positive Feedback IR Comp
POSFEEDRESISTANCE	QUANT	0	Positive Feedback Resistance (ohm)
ACHSELECT	IQUANT	0	Ach Select
CABLEID	IQUANT	14	Cable ID
DCCALDATE	LABEL	8/19/2019	DC Calibration Date
ACCALDATE	LABEL	8/19/2019	AC Calibration Date
THERMOSELECT	IQUANT	1	Thermo Select
FRAMEWORKVERSION	QUANT	6.33	Framework Version
INSTRUMENTVERSION	LABEL	3.50	Instrument Version
ZCURVE	TABLE
	Pt	Time	Freq	Zreal	Zimag	Zsig	Zmod	Zphz	Idc	Vdc	IERange
	#	s	Hz	ohm	ohm	V	ohm	°	A	V	#
	0	2	1000078	2417.009	-1650.613	1	2926.85	-34.32978	1.56186E-005	0.1378763	8
	1	3	794390.6	2711.781	-1581.677	1	3139.341	-30.25336	1.268348E-005	0.1376977	8
	2	5	630984.4	2970.41	-1465.698	1	3312.342	-26.26324	1.047085E-005	0.1381664	8
	3	7	501234.4	3203.261	-1337.765	1	3471.383	-22.66668	1.227308E-005	0.1380187	8
	4	8	398109.4	3377.096	-1211.925	1	3587.972	-19.74133	1.075891E-005	0.1381372	8
	5	10	316265.6	3539.763	-1084.573	1	3702.191	-17.03491	1.13818E-005	0.1381508	8
	6	11	251203.1	3631.958	-1010.023	1	3769.783	-15.54089	1.306032E-005	0.1377798	8
	7	13	199546.9	3772.15	-899.3339	1	3877.875	-13.40979	1.29706E-005	0.1375487	8
	8	14	158578.1	3828.414	-863.872	1	3924.669	-12.71569	1.149146E-005	0.1379903	8
	9	16	125953.1	3910.584	-824.7192	1	3996.602	-11.90884	1.305909E-006	0.1372374	7
	10	17	100078.1	3976.868	-805.4372	1	4057.611	-11.44928	1.047056E-006	0.1382642	7
	11	19	79453.13	4042.83	-823.333	1	4125.815	-11.51102	1.08528E-006	0.1382332	7
	12	20	63140.62	4115.864	-861.5016	1	4205.059	-11.82205	1.050769E-006	0.1382529	7
	13	21	50203.12	4193.292	-919.2402	1	4292.867	-12.36461	1.050658E-006	0.1382599	7
	14	23	39890.62	4277.252	-998.551	1	4392.265	-13.1407	1.070983E-006	0.1382176	7
	15	24	31640.63	4369.188	-1105.45	1	4506.864	-14.19847	1.072661E-006	0.1382064	7
	16	25	25171.88	4468.488	-1235.428	1	4636.126	-15.45482	1.054573E-006	0.1382381	7
	17	27	20015.62	4579.532	-1397.768	1	4788.096	-16.97327	1.066546E-006	0.1382547	7
	18	28	15890.62	4708.22	-1589.077	1	4969.155	-18.65011	1.100895E-006	0.1381523	7
	19	29	12609.37	4863.201	-1823.748	1	5193.917	-20.55653	1.051705E-006	0.138339	7
	20	31	10078.13	5027.139	-2088.6	1	5443.747	-22.56117	1.044917E-006	0.138281	7
	21	32	8015.625	5222.888	-2418.484	1	5755.66	-24.84673	1.116122E-006	0.1381818	7
	22	33	6328.125	5448.915	-2808.176	1	6129.969	-27.26496	1.101773E-006	0.1381544	7
	23	35	5015.625	5713.07	-3266.342	1	6580.893	-29.75796	1.05365E-006	0.1382462	7
	24	36	3984.375	6008.357	-3806.123	1	7112.449	-32.3531	1.035759E-006	0.1383051	7
	25	37	3170.956	6356.253	-4427.675	1	7746.371	-34.86052	1.059332E-006	0.1382441	7
	26	39	2527.573	6746.291	-5158.114	1	8492.266	-37.40099	1.059833E-006	0.1382436	7
	27	40	1976.103	7257.281	-6102.371	1	9481.934	-40.0592	1.096056E-006	0.1381994	7
	28	41	1577.524	7791.165	-7111.472	1	10548.71	-42.38861	1.048482E-006	0.1382566	7
	29	43	1265.625	8425.41	-8238.567	1	11783.95	-44.3576	1.042503E-006	0.138275	7
	30	44	998.264	9219.22	-9720.23	1	13396.9	-46.51531	1.114925E-007	0.1380545	6
	31	45	796.875	10083.16	-11359.63	1	15189.18	-48.40676	1.069097E-007	0.1382181	6
	32	47	627.7902	11167.5	-13376.83	1	17425.63	-50.14356	1.069035E-007	0.1381068	6
	33	48	505.5147	12343.8	-15515.02	1	19826.37	-51.49414	1.024217E-007	0.1381882	6
	34	49	397.9953	13852.25	-18287.17	1	22941.35	-52.85663	1.065682E-007	0.1378358	6
	35	51	315.5048	15576.39	-21426.97	1	26490.36	-53.98463	1.062728E-007	0.1378431	6
	36	52	252.4038	17505.94	-24946.54	1	30476.03	-54.9412	1.067791E-007	0.1378345	6
	37	54	198.6229	19934.01	-29360.3	1	35487.91	-55.82567	1.063138E-007	0.1378362	6
	38	55	158.3615	22617.29	-34234.56	1	41031.05	-56.54898	1.067092E-007	0.1378299	6
	39	56	125.558	25802.65	-40070.11	1	47659.1	-57.22099	1.06306E-007	0.1378365	6
	40	58	100.4464	29367.69	-46628.75	1	55106.28	-57.79649	1.068425E-007	0.1378307	6
	41	59	79.00281	33821.66	-54915.38	1	64494.99	-58.37163	1.061133E-007	0.1378288	6
	42	60	63.3446	38355.87	-63073.53	1	73820.34	-58.69564	1.065188E-007	0.1378293	6
	43	62	49.86702	44373.04	-75531.73	1	87601.43	-59.56681	1.066382E-007	0.1378319	6
	44	63	39.72458	50431.08	-87863.51	1	101307.9	-60.14544	1.063814E-007	0.1378295	6
	45	64	31.6723	57778.1	-102704.7	1	117841.3	-60.6394	1.064853E-007	0.1378335	6
	46	66	24.93351	66625.21	-121679.8	1	138726	-61.2973	1.063233E-007	0.1378291	6
	47	67	19.86229	76395.96	-142828.1	1	161976	-61.85855	1.060982E-008	0.1378429	5
	48	68	15.83615	86416.51	-168269.9	1	189162.8	-62.81683	1.090218E-008	0.1378389	5
	49	70	12.40079	102033.4	-200464.2	1	224937.1	-63.02456	1.110051E-008	0.1378348	5
	50	71	9.93114	116565.5	-236877.9	1	264005.1	-63.79861	1.07243E-008	0.1378374	5
	51	73	7.944915	133303.6	-279750.2	1	309887.1	-64.52175	1.054575E-008	0.1378401	5
	52	74	6.317385	154911.2	-331634.8	1	366031.6	-64.96207	1.058324E-008	0.1378506	5
	53	76	5.008013	180683.5	-395236	1	434578	-65.43232	1.071257E-008	0.1378451	5
	54	79	3.945707	212655.6	-474179.8	1	519681.5	-65.84518	1.056513E-008	0.1378355	5
	55	81	3.158693	249593.9	-562601.6	1	615481.7	-66.0759	1.068821E-008	0.1378483	5
	56	85	2.504006	297055.8	-671695.2	1	734449.9	-66.14268	1.040118E-008	0.1381331	5
	57	87	1.998082	353987	-796229.9	1	871371.8	-66.03108	1.05244E-008	0.1380742	5
	58	91	1.584686	424211.4	-947659	1	1038274	-65.88474	1.046776E-008	0.1381065	5
	59	94	1.266892	512829.1	-1119191	1	1231090	-65.38209	1.05079E-008	0.1380757	5
	60	99	0.999041	630041.1	-1330410	1	1472054	-64.65921	9.196216E-010	0.1381614	4
