EXPLAIN
TAG	EISPOT
TITLE	LABEL	Potentiostatic EIS	Test &Identifier
DATE	LABEL	10/28/2019	Date
TIME	LABEL	11:42:21	Time
NOTES	NOTES	1	&Notes...
	
PSTAT	PSTAT	REF600-11020	Potentiostat
VDC	POTEN	0.00000E+000	T	DC &Voltage (V)
FREQINIT	QUANT	1.00000E+006	Initial Fre&q. (Hz)
FREQFINAL	QUANT	1.00000E+000	Final Fre&q. (Hz)
PTSPERDEC	QUANT	1.00000E+001	Points/&decade
VAC	QUANT	2.50000E+001	AC &Voltage (mV rms)
AREA	QUANT	1.00000E-002	&Area (cm^2)
CONDIT	TWOPARAM	T	5.00000E+000	0.00000E+000	Conditionin&g	Time(s)	E(V)
DELAY	TWOPARAM	T	5.00000E+000	0.00000E+000	Init. De&lay	Time(s)	Stab.(mV/s)
SPEED	SELECTOR	1	&Optimize for:
ZGUESS	QUANT	1.00000E+005	E&stimated Z (ohms)
OCVCURVE	TABLE	19
	Pt	T	Vf	Vm	Ach	Over
	#	s	V vs. Ref.	V	V	bits
	0	0.258333	6.39893E-003	6.39893E-003	5.57632E-004	...........
	1	0.516667	6.39552E-003	6.22006E-003	5.59532E-004	...........
	2	0.775	6.37406E-003	6.02595E-003	5.63366E-004	...........
	3	1.03333	6.31299E-003	5.90104E-003	5.64466E-004	...........
	4	1.29167	6.20644E-003	5.81407E-003	5.56599E-004	...........
	5	1.55	6.07267E-003	5.62087E-003	5.60332E-004	...........
	6	1.80833	5.93158E-003	5.47194E-003	5.66832E-004	...........
	7	2.06667	5.79073E-003	5.47650E-003	5.59999E-004	...........
	8	2.325	5.66179E-003	5.54788E-003	5.63599E-004	...........
	9	2.58333	5.57186E-003	5.70163E-003	5.58066E-004	...........
	10	2.84167	5.54254E-003	5.60285E-003	5.58299E-004	...........
	11	3.1	5.55750E-003	5.35684E-003	5.55799E-004	...........
	12	3.35833	5.56458E-003	5.36696E-003	5.57632E-004	...........
	13	3.61667	5.52914E-003	5.42807E-003	5.60432E-004	...........
	14	3.875	5.46798E-003	5.28510E-003	5.62266E-004	...........
	15	4.13333	5.40851E-003	5.13986E-003	5.61099E-004	...........
	16	4.39167	5.34779E-003	5.10242E-003	5.57432E-004	...........
	17	4.65	5.27467E-003	5.09076E-003	5.57899E-004	...........
	18	4.90833	5.19953E-003	5.12110E-003	5.54299E-004	...........
EOC	QUANT	0.0051995	Open Circuit (V)
PSTATMODEL	IQUANT	4	Pstat Model
PSTATSECTION	LABEL	REF600-11020	Pstat Section
PSTATSERIALNO	LABEL	11020	Pstat Serial Number
CTRLMODE	IQUANT	1	Control Mode
IESTAB	IQUANT	0	I/E Stability
CASPEED	IQUANT	1	Control Amp Speed
CONVENTION	IQUANT	1	Current Convention
ICHRANGE	IQUANT	2	Ich Range
ICHRANGEMODE	TOGGLE	F	Ich Auto Range
ICHOFFSETENABLE	TOGGLE	T	Ich Offset Enable
ICHOFFSET	QUANT	0	Ich Offset (V)
ICHFILTER	IQUANT	3	Ich Filter
VCHRANGE	IQUANT	2	Vch Range
VCHRANGEMODE	TOGGLE	F	Vch Auto Range
VCHOFFSETENABLE	TOGGLE	T	Vch Offset Enable
VCHOFFSET	QUANT	0	Vch Offset (V)
VCHFILTER	IQUANT	3	Vch Filter
ACHRANGE	IQUANT	2	Ach Range
ACHOFFSETENABLE	TOGGLE	F	Ach Offset Enable
ACHOFFSET	QUANT	0	Ach Offset (V)
ACHFILTER	IQUANT	3	Ach Filter
IERANGELOWERLIMIT	IQUANT	1	I/E Range Lower Limit
IERANGEMODE	TOGGLE	F	I/E AutoRange
IERANGE	IQUANT	4	I/E Range
POSFEEDENABLE	TOGGLE	F	Positive Feedback IR Comp
POSFEEDRESISTANCE	QUANT	0	Positive Feedback Resistance (ohm)
ACHSELECT	IQUANT	0	Ach Select
CABLEID	IQUANT	14	Cable ID
DCCALDATE	LABEL	8/19/2019	DC Calibration Date
ACCALDATE	LABEL	8/19/2019	AC Calibration Date
THERMOSELECT	IQUANT	1	Thermo Select
FRAMEWORKVERSION	QUANT	6.33	Framework Version
INSTRUMENTVERSION	LABEL	3.50	Instrument Version
ZCURVE	TABLE
	Pt	Time	Freq	Zreal	Zimag	Zsig	Zmod	Zphz	Idc	Vdc	IERange
	#	s	Hz	ohm	ohm	V	ohm	°	A	V	#
	0	1	1000078	2484.693	-1811.801	1	3075.113	-36.09897	2.581558E-006	0.0072302	8
	1	3	794390.6	2849.996	-1785.133	1	3362.912	-32.06152	-1.500878E-006	0.007133	8
	2	4	630984.4	3185.936	-1677.647	1	3600.651	-27.77035	6.125544E-006	0.0057072	8
	3	6	501234.4	3458.315	-1548.108	1	3789.008	-24.11559	7.330981E-007	0.0067914	8
	4	7	398109.4	3702.974	-1391.236	1	3955.699	-20.59159	-2.286067E-006	0.0075112	8
	5	9	316265.6	3918.33	-1237.434	1	4109.082	-17.52646	-3.00764E-006	0.0074322	8
	6	11	251203.1	4060.783	-1098.931	1	4206.853	-15.1427	5.131845E-006	0.0056894	8
	7	12	199546.9	4170.987	-973.037	1	4282.982	-13.1315	-1.656053E-006	0.0073416	8
	8	14	158578.1	4289.329	-864.7602	1	4375.632	-11.39846	-1.463869E-006	0.0073322	8
	9	15	125953.1	4387.561	-724.1492	1	4446.918	-9.371948	1.60477E-006	0.0036555	7
	10	17	100078.1	4427.345	-696.4483	1	4481.788	-8.939717	-7.654405E-008	0.0068872	7
	11	18	79453.13	4508.382	-652.0977	1	4555.298	-8.230251	-7.927721E-008	0.0068836	7
	12	19	63140.62	4568.719	-643.3967	1	4613.8	-8.01605	-5.618755E-009	0.0067586	7
	13	21	50203.12	4631.162	-649.2766	1	4676.454	-7.9807	1.378055E-007	0.0065669	7
	14	22	39890.62	4692.134	-665.1636	1	4739.046	-8.068568	-1.046275E-007	0.0069156	7
	15	23	31640.63	4757.058	-701.1619	1	4808.454	-8.384685	-4.358173E-008	0.0067753	7
	16	25	25171.88	4828.478	-746.6478	1	4885.865	-8.790265	-4.396616E-008	0.0067641	7
	17	26	20015.62	4902.688	-805.4547	1	4968.411	-9.329689	-9.263004E-009	0.006695	7
	18	27	15890.62	4992.375	-885.7112	1	5070.335	-10.06032	-1.017975E-007	0.0069137	7
	19	29	12609.37	5090.39	-975.812	1	5183.076	-10.85177	3.191293E-008	0.0068529	7
	20	30	10078.13	5196.724	-1084.573	1	5308.695	-11.78859	-7.939366E-009	0.0068259	7
	21	31	8015.625	5304.225	-1241.911	1	5447.674	-13.17764	3.194418E-008	0.0066345	7
	22	33	6328.125	5442.667	-1371.069	1	5612.705	-14.13927	-8.470694E-009	0.0066899	7
	23	34	5015.625	5595.874	-1551.989	1	5807.105	-15.5011	-9.817354E-008	0.0069015	7
	24	35	3984.375	5737.119	-1765.438	1	6002.608	-17.10429	6.84429E-008	0.0066557	7
	25	37	3170.956	5951.352	-1981.139	1	6272.44	-18.41203	1.033633E-007	0.006545	7
	26	38	2527.573	6153.997	-2240.617	1	6549.202	-20.00612	3.14805E-008	0.0066314	7
	27	40	1976.103	6393.092	-2574.675	1	6892.066	-21.93601	3.4204E-008	0.0068448	7
	28	41	1577.524	6626.037	-2911.597	1	7237.525	-23.72153	-2.980132E-009	0.0067376	7
	29	42	1265.625	6873.444	-3314.646	1	7630.931	-25.7452	-1.112436E-008	0.006693	7
	30	44	998.264	7171.887	-3827.459	1	8129.293	-28.08774	5.659182E-008	0.0066915	7
	31	45	796.875	7435.864	-4418.272	1	8649.463	-30.71811	1.370905E-007	0.0065556	7
	32	47	627.7902	7748.201	-5181.079	1	9320.848	-33.76992	-3.723339E-009	0.006753	7
	33	48	505.5147	8039.442	-6015.685	1	10040.97	-36.80646	-6.852662E-009	0.0067275	6
	34	49	397.9953	8381.575	-7173.335	1	11032.11	-40.55843	1.144669E-009	0.0067201	6
	35	51	315.5048	8734.637	-8579.164	1	12243.2	-44.48552	-8.0706E-011	0.0067218	6
	36	52	252.4038	9118.795	-10264.37	1	13729.88	-48.38234	-5.460298E-010	0.006723	6
	37	53	198.6229	9591.71	-12518.21	1	15770.42	-52.53992	7.129102E-010	0.0067181	6
	38	55	158.3615	10137.94	-15172.89	1	18248.14	-56.25069	7.053451E-010	0.006712	6
	39	56	125.558	10816.16	-18552.65	1	21475.34	-59.7579	4.194335E-010	0.0067151	6
	40	57	100.4464	11687.84	-22565.57	1	25412.8	-62.61809	-6.401681E-010	0.0067141	6
	41	59	79.00281	12776.49	-27803.5	1	30598.58	-65.31989	1.392184E-009	0.0067112	6
	42	60	63.3446	13808.13	-34066.38	1	36758.44	-67.9358	-2.196379E-010	0.0067101	6
	43	62	49.86702	16399.06	-41330.37	1	44464.91	-68.35782	-1.436909E-010	0.0067086	6
	44	63	39.72458	18870.94	-50725.73	1	54122.2	-69.59384	3.288312E-010	0.0067114	6
	45	64	31.6723	21989.22	-61441.19	1	65257.54	-70.3082	-1.153384E-010	0.0067093	6
	46	66	24.93351	26598.86	-75324.24	1	79882.67	-70.55061	2.269291E-010	0.0067099	6
	47	67	19.86229	32267.09	-90790.93	1	96354.3	-70.43479	3.758476E-010	0.006707	6
	48	69	15.83615	39004.75	-108005	1	114832.3	-70.14341	1.177408E-009	0.0067219	5
	49	70	12.40079	48509.29	-131106.7	1	139793.1	-69.69559	-1.307166E-009	0.0067196	5
	50	71	9.93114	59402.75	-157707.1	1	168523.6	-69.36036	-3.645593E-011	0.0067252	5
	51	73	7.944915	70887.21	-187262	1	200230	-69.26606	8.329534E-010	0.0067229	5
	52	75	6.317385	88657.55	-221935.8	1	238988.8	-68.22459	2.738937E-010	0.0067108	5
	53	77	5.008013	108744.1	-263148.2	1	284731.8	-67.54749	8.34777E-011	0.0067311	5
	54	79	3.945707	133240.5	-313409.5	1	340556.2	-66.96809	-4.826075E-011	0.0067187	5
	55	82	3.158693	160873.5	-368011.6	1	401637.7	-66.38781	1.178452E-010	0.0067252	5
	56	85	2.504006	194651.5	-434333.9	1	475957.1	-65.85994	-5.109494E-011	0.0067313	5
	57	88	1.998082	233417.2	-508223.9	1	559263.1	-65.33162	1.526194E-010	0.0066941	5
	58	91	1.584686	280568	-599892.6	1	662260.9	-64.93465	3.084674E-011	0.0066765	5
	59	95	1.266892	333613	-700434.4	1	775826	-64.53181	1.596941E-010	0.0067095	5
	60	99	0.999041	401241.5	-828456.5	1	920507.9	-64.15797	-7.734811E-011	0.0067173	5
