EXPLAIN
TAG	EISPOT
TITLE	LABEL	Potentiostatic EIS	Test &Identifier
DATE	LABEL	9/20/2019	Date
TIME	LABEL	12:08:16	Time
NOTES	NOTES	1	&Notes...
	
PSTAT	PSTAT	REF600-11020	Potentiostat
VDC	POTEN	0.00000E+000	T	DC &Voltage (V)
FREQINIT	QUANT	1.00000E+006	Initial Fre&q. (Hz)
FREQFINAL	QUANT	1.00000E+000	Final Fre&q. (Hz)
PTSPERDEC	QUANT	1.00000E+001	Points/&decade
VAC	QUANT	2.50000E+001	AC &Voltage (mV rms)
AREA	QUANT	1.00000E-002	&Area (cm^2)
CONDIT	TWOPARAM	T	5.00000E+000	0.00000E+000	Conditionin&g	Time(s)	E(V)
DELAY	TWOPARAM	T	5.00000E+000	0.00000E+000	Init. De&lay	Time(s)	Stab.(mV/s)
SPEED	SELECTOR	1	&Optimize for:
ZGUESS	QUANT	1.00000E+004	E&stimated Z (ohms)
OCVCURVE	TABLE	19
	Pt	T	Vf	Vm	Ach	Over
	#	s	V vs. Ref.	V	V	bits
	0	0.258333	6.87651E-003	6.87651E-003	5.75399E-004	...........
	1	0.516667	6.87741E-003	6.92354E-003	5.81199E-004	...........
	2	0.775	6.88385E-003	7.01625E-003	5.75866E-004	...........
	3	1.03333	6.90499E-003	7.09905E-003	5.77432E-004	...........
	4	1.29167	6.94756E-003	7.14361E-003	5.73666E-004	...........
	5	1.55	7.00768E-003	7.20471E-003	5.74299E-004	...........
	6	1.80833	7.07416E-003	7.26386E-003	5.76732E-004	...........
	7	2.06667	7.13890E-003	7.32449E-003	5.74799E-004	...........
	8	2.325	7.20049E-003	7.38543E-003	5.78499E-004	...........
	9	2.58333	7.26051E-003	7.44417E-003	5.78532E-004	...........
	10	2.84167	7.32018E-003	7.50159E-003	5.75332E-004	...........
	11	3.1	7.37967E-003	7.55981E-003	5.71966E-004	...........
	12	3.35833	7.43866E-003	7.61622E-003	5.74132E-004	...........
	13	3.61667	7.49694E-003	7.67113E-003	5.79199E-004	...........
	14	3.875	7.55432E-003	7.72317E-003	5.78099E-004	...........
	15	4.13333	7.61048E-003	7.77411E-003	5.80199E-004	...........
	16	4.39167	7.66515E-003	7.82752E-003	5.77032E-004	...........
	17	4.65	7.71833E-003	7.87229E-003	5.75566E-004	...........
	18	4.90833	7.77002E-003	7.91819E-003	5.72866E-004	...........
EOC	QUANT	0.00777	Open Circuit (V)
PSTATMODEL	IQUANT	4	Pstat Model
PSTATSECTION	LABEL	REF600-11020	Pstat Section
PSTATSERIALNO	LABEL	11020	Pstat Serial Number
CTRLMODE	IQUANT	1	Control Mode
IESTAB	IQUANT	0	I/E Stability
CASPEED	IQUANT	1	Control Amp Speed
CONVENTION	IQUANT	1	Current Convention
ICHRANGE	IQUANT	2	Ich Range
ICHRANGEMODE	TOGGLE	F	Ich Auto Range
ICHOFFSETENABLE	TOGGLE	T	Ich Offset Enable
ICHOFFSET	QUANT	0	Ich Offset (V)
ICHFILTER	IQUANT	3	Ich Filter
VCHRANGE	IQUANT	2	Vch Range
VCHRANGEMODE	TOGGLE	F	Vch Auto Range
VCHOFFSETENABLE	TOGGLE	T	Vch Offset Enable
VCHOFFSET	QUANT	0	Vch Offset (V)
VCHFILTER	IQUANT	3	Vch Filter
ACHRANGE	IQUANT	2	Ach Range
ACHOFFSETENABLE	TOGGLE	F	Ach Offset Enable
ACHOFFSET	QUANT	0	Ach Offset (V)
ACHFILTER	IQUANT	3	Ach Filter
IERANGELOWERLIMIT	IQUANT	1	I/E Range Lower Limit
IERANGEMODE	TOGGLE	F	I/E AutoRange
IERANGE	IQUANT	6	I/E Range
POSFEEDENABLE	TOGGLE	F	Positive Feedback IR Comp
POSFEEDRESISTANCE	QUANT	0	Positive Feedback Resistance (ohm)
ACHSELECT	IQUANT	0	Ach Select
CABLEID	IQUANT	14	Cable ID
DCCALDATE	LABEL	8/19/2019	DC Calibration Date
ACCALDATE	LABEL	8/19/2019	AC Calibration Date
THERMOSELECT	IQUANT	1	Thermo Select
FRAMEWORKVERSION	QUANT	6.33	Framework Version
INSTRUMENTVERSION	LABEL	3.50	Instrument Version
ZCURVE	TABLE
	Pt	Time	Freq	Zreal	Zimag	Zsig	Zmod	Zphz	Idc	Vdc	IERange
	#	s	Hz	ohm	ohm	V	ohm	°	A	V	#
	0	1	1000078	2442.367	-1869.013	1	3075.446	-37.4249	-6.721151E-007	0.0098154	8
	1	3	794390.6	2820.729	-1812.381	1	3352.795	-32.72165	-1.259651E-006	0.0101159	8
	2	4	630984.4	3175.892	-1729.366	1	3616.213	-28.56958	-2.232195E-007	0.0095775	8
	3	6	501234.4	3472.44	-1583.669	1	3816.523	-24.51622	-3.753592E-006	0.0103216	8
	4	7	398109.4	3750.449	-1419.573	1	4010.119	-20.73203	3.680024E-006	0.0087276	8
	5	8	316265.6	3924.202	-1246.555	1	4117.434	-17.62288	1.171025E-006	0.0089845	8
	6	10	251203.1	4096.333	-1097.05	1	4240.692	-14.99271	-3.254083E-006	0.0100621	8
	7	11	199546.9	4205.126	-962.892	1	4313.96	-12.89728	-2.110721E-006	0.0098176	8
	8	12	158578.1	4279.958	-836.7231	1	4360.98	-11.06169	-4.316773E-006	0.0103966	8
	9	14	125953.1	4397.234	-671.9133	1	4448.273	-8.687801	7.052603E-007	0.0073446	7
	10	15	100078.1	4443.873	-594.7704	1	4483.499	-7.623196	-4.124706E-008	0.0093478	7
	11	17	79453.13	4493.158	-544.0333	1	4525.974	-6.903789	-3.764342E-008	0.0093574	7
	12	18	63140.62	4536.175	-506.4955	1	4564.364	-6.371083	-3.998126E-008	0.0093355	7
	13	19	50203.12	4575.414	-483.214	1	4600.859	-6.028716	-4.005154E-008	0.0093329	7
	14	21	39890.62	4614.582	-473.5022	1	4638.811	-5.858616	-5.542085E-008	0.0094942	7
	15	22	31640.63	4650.458	-477.0085	1	4674.858	-5.856482	1.376367E-007	0.0091096	7
	16	24	25171.88	4688.387	-493.0319	1	4714.24	-6.003174	-5.544115E-008	0.0094935	7
	17	25	20015.62	4728.282	-522.0436	1	4757.014	-6.300436	4.329731E-008	0.0092708	7
	18	26	15890.62	4771.161	-569.0743	1	4804.979	-6.80175	-8.348804E-009	0.0094526	7
	19	28	12609.37	4818.266	-623.9053	1	4858.492	-7.378035	-8.556645E-009	0.0094523	7
	20	29	10078.13	4867.532	-696.8922	1	4917.167	-8.147756	-4.787137E-008	0.0093453	7
	21	30	8015.625	4922.234	-787.5692	1	4984.842	-9.09041	8.507955E-008	0.0091392	7
	22	32	6328.125	4983.844	-905.265	1	5065.393	-10.29496	4.218622E-008	0.0091745	7
	23	33	5015.625	5051.041	-1049.142	1	5158.848	-11.73395	8.574526E-008	0.009137	7
	24	34	3984.375	5126.649	-1221.934	1	5270.262	-13.40628	-1.147425E-008	0.0092692	7
	25	36	3170.956	5210.106	-1431.964	1	5403.307	-15.36791	-3.859981E-008	0.0093982	7
	26	37	2527.573	5302.513	-1685.19	1	5563.857	-17.63076	-3.094095E-008	0.0093141	7
	27	39	1976.103	5416.577	-2020.219	1	5781.055	-20.45399	-5.044829E-008	0.009352	7
	28	40	1577.524	5536.231	-2396.934	1	6032.839	-23.4104	-5.07624E-008	0.0094857	7
	29	41	1265.625	5664.666	-2851.13	1	6341.717	-26.71695	8.386437E-008	0.0091386	7
	30	43	998.264	5829.878	-3427.034	1	6762.547	-30.44871	-7.502405E-008	0.009448	7
	31	44	796.875	6008.275	-4109.828	1	7279.427	-34.37321	-7.318125E-008	0.00943	7
	32	45	627.7902	6232.063	-4989.553	1	7983.373	-38.68168	-5.075091E-009	0.0093574	7
	33	47	505.5147	6468.746	-5961.383	1	8796.747	-42.66264	-3.764735E-008	0.0093417	7
	34	48	397.9953	6775.599	-7279.201	1	9944.62	-47.0521	9.13674E-010	0.0092751	6
	35	49	315.5048	7130.563	-8854.089	1	11368.37	-51.15408	9.952054E-010	0.0092698	6
	36	51	252.4038	7534.398	-10703.36	1	13089.27	-54.8572	5.874912E-010	0.009268	6
	37	52	198.6229	8059.777	-13143.84	1	15418.19	-58.48346	7.597943E-010	0.0092752	6
	38	53	158.3615	8666.02	-15982.12	1	18180.43	-61.53202	4.76292E-010	0.0092677	6
	39	55	125.558	9430.888	-19548.15	1	21704.19	-64.24529	8.521309E-010	0.0092677	6
	40	56	100.4464	10326.17	-23736.12	1	25884.99	-66.48901	1.596502E-009	0.0092694	6
	41	58	79.00281	11634.11	-29276.69	1	31503.6	-68.32788	3.996059E-010	0.0092649	6
	42	59	63.3446	13273.07	-35742.49	1	38127.42	-69.62738	9.1707E-010	0.0092654	6
	43	60	49.86702	14947.38	-43765.64	1	46247.76	-71.1433	1.070136E-009	0.0092619	6
	44	62	39.72458	17692.58	-53393.29	1	56248.3	-71.66669	8.165881E-010	0.0092697	6
	45	63	31.6723	21179.28	-64888.83	1	68257.76	-71.92366	9.854717E-010	0.0092696	6
	46	65	24.93351	25798.37	-79704.32	1	83775.5	-72.06448	7.378708E-010	0.0092695	6
	47	66	19.86229	31677.77	-96568.5	1	101631.4	-71.83874	3.922534E-010	0.0092701	6
	48	67	15.83615	39148.82	-116529.2	1	122929.6	-71.42986	1.035527E-009	0.0092735	5
	49	69	12.40079	50220.02	-143127.1	1	151682	-70.6652	1.005731E-009	0.0092807	5
	50	70	9.93114	64122.02	-169553.3	1	181273.2	-69.28429	-3.948934E-011	0.0092776	5
	51	72	7.944915	81653.35	-201749.5	1	217646.8	-67.96552	5.096397E-010	0.0092785	5
	52	73	6.317385	104212.8	-237859.9	1	259687.5	-66.34048	1.493913E-010	0.0092914	5
	53	75	5.008013	133629.7	-279260.1	1	309585.4	-64.42825	2.899014E-010	0.0092744	5
	54	78	3.945707	171160.1	-326076.6	1	368268.5	-62.30468	4.938995E-010	0.0092806	5
	55	81	3.158693	214245.3	-373088.2	1	430227.7	-60.13347	-8.02172E-011	0.0092739	5
	56	84	2.504006	266569.2	-423618.1	1	500511.2	-57.81911	5.44165E-010	0.0092718	5
	57	87	1.998082	324246	-474056	1	574338.3	-55.62856	-7.014692E-011	0.0093106	5
	58	90	1.584686	388851.3	-528182.8	1	655882.9	-53.63928	3.199324E-010	0.0092844	5
	59	93	1.266892	458875.8	-581285.8	1	740580.9	-51.71191	1.100095E-012	0.0093218	5
	60	98	0.999041	534589.9	-641039.3	1	834696.3	-50.17384	8.102481E-011	0.0092369	5
