EXPLAIN
TAG	EISPOT
TITLE	LABEL	Potentiostatic IDE	Test &Identifier
DATE	LABEL	9/16/2019	Date
TIME	LABEL	9:45:20	Time
NOTES	NOTES	1	&Notes...
	
PSTAT	PSTAT	REF600-11020	Potentiostat
VDC	POTEN	0.00000E+000	T	DC &Voltage (V)
FREQINIT	QUANT	1.00000E+006	Initial Fre&q. (Hz)
FREQFINAL	QUANT	1.00000E+000	Final Fre&q. (Hz)
PTSPERDEC	QUANT	1.00000E+001	Points/&decade
VAC	QUANT	2.50000E+001	AC &Voltage (mV rms)
AREA	QUANT	1.00000E-002	&Area (cm^2)
CONDIT	TWOPARAM	T	5.00000E+000	0.00000E+000	Conditionin&g	Time(s)	E(V)
DELAY	TWOPARAM	T	5.00000E+000	0.00000E+000	Init. De&lay	Time(s)	Stab.(mV/s)
SPEED	SELECTOR	1	&Optimize for:
ZGUESS	QUANT	1.00000E+007	E&stimated Z (ohms)
OCVCURVE	TABLE	19
	Pt	T	Vf	Vm	Ach	Over
	#	s	V vs. Ref.	V	V	bits
	0	0.258333	-5.83342E-002	-5.83342E-002	5.65099E-004	...........
	1	0.516667	-5.83348E-002	-5.83662E-002	5.63432E-004	...........
	2	0.775	-5.83518E-002	-5.90902E-002	5.63399E-004	...........
	3	1.03333	-5.84204E-002	-5.85519E-002	5.58232E-004	...........
	4	1.29167	-5.85598E-002	-5.98233E-002	5.60332E-004	...........
	5	1.55	-5.87945E-002	-6.08144E-002	5.64632E-004	...........
	6	1.80833	-5.92089E-002	-6.18405E-002	5.60232E-004	...........
	7	2.06667	-5.98700E-002	-6.27950E-002	5.57933E-004	...........
	8	2.325	-6.07170E-002	-6.28118E-002	5.60532E-004	...........
	9	2.58333	-6.15692E-002	-6.26969E-002	5.57933E-004	...........
	10	2.84167	-6.22350E-002	-6.31814E-002	5.61232E-004	...........
	11	3.1	-6.26586E-002	-6.35718E-002	5.60366E-004	...........
	12	3.35833	-6.29452E-002	-6.39478E-002	5.61366E-004	...........
	13	3.61667	-6.32213E-002	-6.41304E-002	5.62466E-004	...........
	14	3.875	-6.35265E-002	-6.44782E-002	5.63866E-004	...........
	15	4.13333	-6.38395E-002	-6.47018E-002	5.60499E-004	...........
	16	4.39167	-6.41395E-002	-6.49945E-002	5.59532E-004	...........
	17	4.65	-6.44186E-002	-6.49737E-002	5.57199E-004	...........
	18	4.90833	-6.46659E-002	-6.52960E-002	5.52532E-004	...........
EOC	QUANT	-0.0646659	Open Circuit (V)
PSTATMODEL	IQUANT	4	Pstat Model
PSTATSECTION	LABEL	REF600-11020	Pstat Section
PSTATSERIALNO	LABEL	11020	Pstat Serial Number
CTRLMODE	IQUANT	1	Control Mode
IESTAB	IQUANT	0	I/E Stability
CASPEED	IQUANT	1	Control Amp Speed
CONVENTION	IQUANT	1	Current Convention
ICHRANGE	IQUANT	2	Ich Range
ICHRANGEMODE	TOGGLE	F	Ich Auto Range
ICHOFFSETENABLE	TOGGLE	T	Ich Offset Enable
ICHOFFSET	QUANT	0	Ich Offset (V)
ICHFILTER	IQUANT	3	Ich Filter
VCHRANGE	IQUANT	2	Vch Range
VCHRANGEMODE	TOGGLE	F	Vch Auto Range
VCHOFFSETENABLE	TOGGLE	T	Vch Offset Enable
VCHOFFSET	QUANT	0	Vch Offset (V)
VCHFILTER	IQUANT	3	Vch Filter
ACHRANGE	IQUANT	2	Ach Range
ACHOFFSETENABLE	TOGGLE	F	Ach Offset Enable
ACHOFFSET	QUANT	0	Ach Offset (V)
ACHFILTER	IQUANT	3	Ach Filter
IERANGELOWERLIMIT	IQUANT	1	I/E Range Lower Limit
IERANGEMODE	TOGGLE	F	I/E AutoRange
IERANGE	IQUANT	4	I/E Range
POSFEEDENABLE	TOGGLE	F	Positive Feedback IR Comp
POSFEEDRESISTANCE	QUANT	0	Positive Feedback Resistance (ohm)
ACHSELECT	IQUANT	0	Ach Select
CABLEID	IQUANT	14	Cable ID
DCCALDATE	LABEL	8/19/2019	DC Calibration Date
ACCALDATE	LABEL	8/19/2019	AC Calibration Date
THERMOSELECT	IQUANT	1	Thermo Select
FRAMEWORKVERSION	QUANT	6.33	Framework Version
INSTRUMENTVERSION	LABEL	3.50	Instrument Version
ZCURVE	TABLE
	Pt	Time	Freq	Zreal	Zimag	Zsig	Zmod	Zphz	Idc	Vdc	IERange
	#	s	Hz	ohm	ohm	V	ohm	°	A	V	#
	0	2	1000078	942.1847	-9016.17	1	9065.266	-84.03428	3.395388E-006	-0.0632113	8
	1	4	794390.6	1022.438	-11382.57	1	11428.39	-84.86719	3.627398E-006	-0.0632103	8
	2	6	630984.4	1425.742	-14049.12	1	14121.28	-84.20531	-5.972587E-007	-0.062594	8
	3	8	501234.4	1425.56	-17354.35	1	17412.81	-85.30402	-2.173082E-007	-0.0627273	8
	4	10	398109.4	2028.646	-21804.7	1	21898.86	-84.68467	-5.923072E-007	-0.0628847	8
	5	11	316265.6	1686.643	-26984.62	1	27037.28	-86.42345	2.09601E-006	-0.0637683	8
	6	13	251203.1	2983.977	-34718.85	1	34846.85	-85.08768	8.754011E-007	-0.0634589	8
	7	14	199546.9	2869.152	-41860.37	1	41958.58	-86.07903	1.950089E-006	-0.0637547	8
	8	16	158578.1	787.1423	-53646.5	1	53652.27	-89.15937	8.717577E-007	-0.0634503	8
	9	17	125953.1	5769.124	-65572.54	1	65825.84	-84.97202	1.86156E-006	-0.0665654	7
	10	19	100078.1	5858.284	-81501.27	1	81711.54	-85.88867	-2.148272E-008	-0.0631322	7
	11	20	79453.13	7461.651	-101832.6	1	102105.6	-85.80922	-2.206309E-008	-0.062996	7
	12	22	63140.62	8604.202	-127335.5	1	127625.9	-86.13434	-5.65374E-008	-0.0631726	7
	13	24	50203.12	11225.58	-158790.9	1	159187.2	-85.95625	-1.190593E-008	-0.0632574	7
	14	26	39890.62	7479.299	-188132.9	1	188281.5	-87.72338	5.08508E-008	-0.063369	7
	15	27	31640.63	18746.12	-245641.6	1	246355.9	-85.63593	8.435672E-008	-0.0633324	7
	16	29	25171.88	20638.76	-306444.3	1	307138.5	-86.147	-7.590224E-008	-0.0629681	7
	17	30	20015.62	27744.73	-386580.2	1	387574.6	-85.89494	3.470126E-008	-0.0633255	7
	18	32	15890.62	62565.78	-477433	1	481515.1	-82.53415	-5.796738E-008	-0.0631794	7
	19	33	12609.37	56195.84	-595852.8	1	598496.8	-84.61228	-1.061792E-008	-0.0630487	6
	20	35	10078.13	62329.12	-736158.3	1	738792.3	-85.16042	-1.172101E-008	-0.0631672	6
	21	37	8015.625	76218.18	-915148.6	1	918317.1	-85.23911	-3.563874E-010	-0.0632985	6
	22	38	6328.125	118434.9	-1176522	1	1182468	-84.25167	-6.023093E-009	-0.0633615	6
	23	40	5015.625	116353.3	-1442127	1	1446813	-85.38727	7.758856E-009	-0.0632013	6
	24	42	3984.375	220687.6	-1840675	1	1853858	-83.16316	5.425098E-009	-0.0635582	6
	25	43	3170.956	367673.7	-2309742	1	2338823	-80.95532	-1.614875E-009	-0.0630708	6
	26	45	2527.573	399934.9	-2850985	1	2878899	-82.01468	1.583152E-008	-0.0633203	6
	27	47	1976.103	907197	-3590431	1	3703269	-75.81982	6.300216E-009	-0.063212	6
	28	48	1577.524	1380655	-4443677	1	4653222	-72.73993	-1.312711E-008	-0.0630887	6
	29	50	1265.625	1236822	-5028472	1	5178346	-76.18163	-2.028896E-009	-0.0630817	5
	30	52	998.264	1939256	-6334609	1	6624801	-72.97873	2.712042E-009	-0.0636648	5
	31	54	796.875	3504468	-7875349	1	8619885	-66.01131	-6.264922E-010	-0.0631446	5
	32	56	627.7902	3428559	-9188958	1	9.80775E+006	-69.53859	2.621066E-009	-0.0637657	5
	33	57	505.5147	4888119	-1.118379E+007	1	1.220536E+007	-66.39122	-1.313869E-009	-0.0631376	5
	34	59	397.9953	8227272	-1.556702E+007	1	1.760739E+007	-62.14326	2.245097E-010	-0.0632558	5
	35	60	315.5048	1.155162E+007	-1.463656E+007	1	1.864588E+007	-51.71843	-4.624755E-010	-0.0632559	5
	36	62	252.4038	1.466182E+007	-1.264289E+007	1	1.936005E+007	-40.77119	4.287422E-010	-0.0632476	5
	37	63	198.6229	1.629524E+007	-1.471091E+007	1	2.195326E+007	-42.07488	2.425105E-010	-0.0632506	5
	38	64	158.3615	1.414375E+007	-2.378498E+007	1	2.767256E+007	-59.26214	1.267833E-010	-0.0632552	5
	39	66	125.558	2.497683E+007	-2.385013E+007	1	3.453507E+007	-43.67811	3.699583E-010	-0.0632516	4
	40	68	100.4464	2.636454E+007	-8748744	1	2.777822E+007	-18.35778	1.534921E-010	-0.0632514	4
	41	69	79.00281	1.750122E+007	2.173135E+007	1	2.790241E+007	51.15397	1.313671E-010	-0.0632517	4
	42	71	63.3446	-1712768	4963309	1	5250524	109.0388	5.396606E-010	-0.0632555	4
	43	73	49.86702	1.353563E+008	2.631562E+007	1	1.378907E+008	11.00205	1.146373E-010	-0.0632578	4
	44	74	39.72458	1.002072E+008	-1.090589E+007	1	1.007989E+008	-6.211247	1.9766E-010	-0.0632529	4
	45	76	31.6723	1.649066E+007	2.259533E+007	1	2.797304E+007	53.87706	5.808053E-010	-0.0632564	4
	46	78	24.93351	3.099466E+007	-5560704	1	3.148953E+007	-10.17114	9.483573E-011	-0.0632492	4
	47	79	19.86229	3.813359E+007	2.482268E+007	1	4.550095E+007	33.06171	4.214265E-010	-0.0632502	4
	48	81	15.83615	-1.535837E+007	-3896457	1	1.584493E+007	-165.7643	1.59839E-009	-0.0632565	4
	49	82	12.40079	-1.244219E+007	6.229122E+007	1	6.352168E+007	101.2957	7.030675E-010	-0.0632504	4
	50	84	9.93114	2.395245E+007	3650131	1	2.422898E+007	8.664681	-1.052713E-010	-0.0632469	5
	51	86	7.944915	2.110343E+007	-1.60601E+007	1	2.651946E+007	-37.2718	5.143972E-010	-0.0632476	4
	52	88	6.317385	3.704976E+007	-2060292	1	3.7107E+007	-3.18287	1.412632E-010	-0.063257	4
	53	91	5.008013	3.477814E+007	-2507840	1	3.486844E+007	-4.124441	1.731666E-010	-0.0632563	4
	54	94	3.945707	4.141077E+007	-8556346	1	4.22855E+007	-11.67424	2.260932E-010	-0.0632468	4
	55	97	3.158693	3.735859E+007	-1352096	1	3.738305E+007	-2.072766	1.431428E-010	-0.0632602	4
	56	101	2.504006	1.173786E+008	-4332202	1	1.174585E+008	-2.113709	8.235505E-011	-0.0632535	3
	57	105	1.998082	1.175207E+008	-4319285	1	1.176E+008	-2.104867	8.412686E-011	-0.0632571	3
	58	109	1.584686	1.181259E+008	-4669629	1	1.182182E+008	-2.263777	8.227667E-011	-0.0633115	3
	59	115	1.266892	1.071191E+009	-2.363633E+008	1	1.096958E+009	-12.44319	5.796576E-012	-0.0632348	2
	60	120	0.999041	1.0981E+009	-2.133275E+008	1	1.11863E+009	-10.99388	5.372996E-012	-0.0632952	2
