EXPLAIN
TAG	EISPOT
TITLE	LABEL	Potentiostatic IDE	Test &Identifier
DATE	LABEL	9/4/2019	Date
TIME	LABEL	11:08:16	Time
NOTES	NOTES	1	&Notes...
	
PSTAT	PSTAT	REF600-11020	Potentiostat
VDC	POTEN	0.00000E+000	T	DC &Voltage (V)
FREQINIT	QUANT	1.00000E+006	Initial Fre&q. (Hz)
FREQFINAL	QUANT	1.00000E+000	Final Fre&q. (Hz)
PTSPERDEC	QUANT	1.00000E+001	Points/&decade
VAC	QUANT	2.50000E+001	AC &Voltage (mV rms)
AREA	QUANT	1.00000E-002	&Area (cm^2)
CONDIT	TWOPARAM	T	5.00000E+000	0.00000E+000	Conditionin&g	Time(s)	E(V)
DELAY	TWOPARAM	T	5.00000E+000	0.00000E+000	Init. De&lay	Time(s)	Stab.(mV/s)
SPEED	SELECTOR	1	&Optimize for:
ZGUESS	QUANT	1.00000E+007	E&stimated Z (ohms)
OCVCURVE	TABLE	19
	Pt	T	Vf	Vm	Ach	Over
	#	s	V vs. Ref.	V	V	bits
	0	0.258333	6.11810E-002	6.11810E-002	5.47399E-004	...........
	1	0.516667	6.11947E-002	6.18994E-002	5.51033E-004	...........
	2	0.775	6.12806E-002	6.26648E-002	5.53933E-004	...........
	3	1.03333	6.15300E-002	6.34553E-002	5.52566E-004	...........
	4	1.29167	6.19890E-002	6.40948E-002	5.51366E-004	...........
	5	1.55	6.26131E-002	6.47823E-002	5.45933E-004	...........
	6	1.80833	6.33133E-002	6.54482E-002	5.44866E-004	...........
	7	2.06667	6.40225E-002	6.60982E-002	5.45233E-004	...........
	8	2.325	6.47139E-002	6.67248E-002	5.49599E-004	...........
	9	2.58333	6.53836E-002	6.73404E-002	5.53233E-004	...........
	10	2.84167	6.60335E-002	6.79470E-002	5.44899E-004	...........
	11	3.1	6.66666E-002	6.85425E-002	5.45799E-004	...........
	12	3.35833	6.72832E-002	6.90043E-002	5.50833E-004	...........
	13	3.61667	6.78771E-002	6.95354E-002	5.55899E-004	...........
	14	3.875	6.84403E-002	7.00237E-002	5.47566E-004	...........
	15	4.13333	6.89736E-002	7.05206E-002	5.49699E-004	...........
	16	4.39167	6.94862E-002	7.10274E-002	5.50699E-004	...........
	17	4.65	6.99864E-002	7.14134E-002	5.46966E-004	...........
	18	4.90833	7.04731E-002	7.18464E-002	5.42499E-004	...........
EOC	QUANT	0.0704731	Open Circuit (V)
PSTATMODEL	IQUANT	4	Pstat Model
PSTATSECTION	LABEL	REF600-11020	Pstat Section
PSTATSERIALNO	LABEL	11020	Pstat Serial Number
CTRLMODE	IQUANT	1	Control Mode
IESTAB	IQUANT	0	I/E Stability
CASPEED	IQUANT	1	Control Amp Speed
CONVENTION	IQUANT	1	Current Convention
ICHRANGE	IQUANT	2	Ich Range
ICHRANGEMODE	TOGGLE	F	Ich Auto Range
ICHOFFSETENABLE	TOGGLE	T	Ich Offset Enable
ICHOFFSET	QUANT	0	Ich Offset (V)
ICHFILTER	IQUANT	3	Ich Filter
VCHRANGE	IQUANT	2	Vch Range
VCHRANGEMODE	TOGGLE	F	Vch Auto Range
VCHOFFSETENABLE	TOGGLE	T	Vch Offset Enable
VCHOFFSET	QUANT	0	Vch Offset (V)
VCHFILTER	IQUANT	3	Vch Filter
ACHRANGE	IQUANT	2	Ach Range
ACHOFFSETENABLE	TOGGLE	F	Ach Offset Enable
ACHOFFSET	QUANT	0	Ach Offset (V)
ACHFILTER	IQUANT	3	Ach Filter
IERANGELOWERLIMIT	IQUANT	1	I/E Range Lower Limit
IERANGEMODE	TOGGLE	F	I/E AutoRange
IERANGE	IQUANT	4	I/E Range
POSFEEDENABLE	TOGGLE	F	Positive Feedback IR Comp
POSFEEDRESISTANCE	QUANT	0	Positive Feedback Resistance (ohm)
ACHSELECT	IQUANT	0	Ach Select
CABLEID	IQUANT	14	Cable ID
DCCALDATE	LABEL	8/19/2019	DC Calibration Date
ACCALDATE	LABEL	8/19/2019	AC Calibration Date
THERMOSELECT	IQUANT	1	Thermo Select
FRAMEWORKVERSION	QUANT	6.33	Framework Version
INSTRUMENTVERSION	LABEL	3.50	Instrument Version
ZCURVE	TABLE
	Pt	Time	Freq	Zreal	Zimag	Zsig	Zmod	Zphz	Idc	Vdc	IERange
	#	s	Hz	ohm	ohm	V	ohm	°	A	V	#
	0	2	1000078	2510.579	-1665.93	1	3013.027	-33.56683	1.068522E-005	0.0719122	8
	1	3	794390.6	2800.392	-1543.092	1	3197.394	-28.85595	1.210069E-005	0.0718491	8
	2	5	630984.4	3073.929	-1407.018	1	3380.642	-24.59482	1.360626E-005	0.0712486	8
	3	6	501234.4	3244.174	-1287.307	1	3490.247	-21.64347	1.041454E-005	0.0719795	8
	4	8	398109.4	3389.908	-1157.521	1	3582.084	-18.85302	1.368429E-005	0.0711773	8
	5	9	316265.6	3553.122	-1042.878	1	3703.008	-16.35751	1.178555E-005	0.0716137	8
	6	11	251203.1	3653.318	-953.951	1	3775.812	-14.63425	1.33314E-005	0.0714054	8
	7	13	199546.9	3742.883	-877.7567	1	3844.428	-13.19814	1.175141E-005	0.0716477	8
	8	14	158578.1	3806.487	-839.4962	1	3897.96	-12.43712	1.23064E-005	0.0715064	8
	9	16	125953.1	3893.415	-812.8674	1	3977.365	-11.79282	1.326453E-006	0.0708758	7
	10	17	100078.1	3951.521	-806.8749	1	4033.059	-11.54077	1.136402E-006	0.0717808	7
	11	19	79453.13	4016.415	-840.0567	1	4103.326	-11.81345	1.078832E-006	0.0719331	7
	12	20	63140.62	4084.607	-894.6061	1	4181.427	-12.35379	1.146165E-006	0.0717435	7
	13	21	50203.12	4156.898	-975.655	1	4269.86	-13.20867	1.127918E-006	0.0718249	7
	14	23	39890.62	4240.197	-1081.573	1	4375.965	-14.30965	1.111682E-006	0.071819	7
	15	24	31640.63	4331.36	-1219.248	1	4499.694	-15.72154	1.114584E-006	0.071823	7
	16	25	25171.88	4435.444	-1385.483	1	4646.797	-17.34704	1.095663E-006	0.0718374	7
	17	27	20015.62	4553.577	-1586.958	1	4822.188	-19.21385	1.150784E-006	0.0717498	7
	18	28	15890.62	4691.16	-1835.721	1	5037.544	-21.37115	1.087265E-006	0.0718704	7
	19	29	12609.37	4849.99	-2128.438	1	5296.475	-23.69446	1.08447E-006	0.0718728	7
	20	31	10078.13	5031.07	-2471.848	1	5605.506	-26.16565	1.122932E-006	0.0718696	7
	21	32	8015.625	5242.063	-2882.295	1	5982.21	-28.80375	1.110252E-006	0.0718818	7
	22	33	6328.125	5493.941	-3384.282	1	6452.655	-31.63318	1.087683E-006	0.0718709	7
	23	35	5015.625	5783.661	-3980.104	1	7020.823	-34.53433	1.084515E-006	0.0718582	7
	24	36	3984.375	6124.764	-4668.149	1	7700.932	-37.31379	1.110278E-006	0.0718407	7
	25	37	3170.956	6512.019	-5482.415	1	8512.536	-40.09375	1.112081E-006	0.0718438	7
	26	39	2527.573	6962.701	-6435.305	1	9481.158	-42.74578	1.172808E-006	0.0717231	7
	27	40	1976.103	7540.488	-7672.896	1	10757.89	-45.49866	1.111919E-006	0.0718514	7
	28	41	1577.524	8165.807	-9005.522	1	12156.47	-47.79966	1.07613E-006	0.0719069	7
	29	43	1265.625	8894.228	-10540.88	1	13791.93	-49.84285	1.04889E-007	0.0718877	6
	30	44	998.264	9811.01	-12513.07	1	15900.72	-51.90141	1.170913E-007	0.0716367	6
	31	45	796.875	10838.67	-14712.85	1	18274.16	-53.62165	1.042475E-007	0.0718246	6
	32	47	627.7902	12127.81	-17499.32	1	21291.08	-55.27632	1.13633E-007	0.0717526	6
	33	48	505.5147	13469.06	-20457.23	1	24493.13	-56.63906	1.114009E-007	0.0716707	6
	34	49	397.9953	15300.92	-24350.26	1	28758.54	-57.85606	1.108225E-007	0.0714289	6
	35	51	315.5048	17390.85	-28816.32	1	33657.43	-58.88873	1.108001E-007	0.0714282	6
	36	52	252.4038	19769.2	-33849.42	1	39199.55	-59.71364	1.106188E-007	0.0714256	6
	37	53	198.6229	22814.93	-40254.49	1	46270.34	-60.45685	1.11005E-007	0.0714257	6
	38	55	158.3615	26214.7	-47382.44	1	54150.77	-61.0461	1.107483E-007	0.0714168	6
	39	56	125.558	30401.54	-55995.23	1	63715.93	-61.50109	1.110578E-007	0.0714254	6
	40	57	100.4464	35232.29	-65645.66	1	74502.8	-61.77737	1.104996E-007	0.0714256	6
	41	59	79.00281	41063.19	-77918.93	1	88076.93	-62.21082	1.105354E-007	0.0714327	6
	42	60	63.3446	46843.92	-92067.45	1	103299.4	-63.03301	1.1039E-007	0.071425	6
	43	61	49.86702	56538.91	-107150.7	1	121152.5	-62.18129	1.110654E-007	0.071419	6
	44	63	39.72458	66323.73	-126509.2	1	142840.5	-62.33377	1.122692E-008	0.0714315	5
	45	64	31.6723	77860.13	-148549.5	1	167717.5	-62.33935	1.128521E-008	0.0714257	5
	46	65	24.93351	91615.17	-175231.1	1	197735.4	-62.39832	1.116737E-008	0.071428	5
	47	67	19.86229	107522.3	-205205.2	1	231668.3	-62.34662	1.127595E-008	0.0714364	5
	48	68	15.83615	123795.1	-240482	1	270475.2	-62.76153	1.107785E-008	0.0714341	5
	49	69	12.40079	148118.8	-284890.2	1	321094.4	-62.52938	1.129606E-008	0.0714362	5
	50	71	9.93114	173490.3	-332626.8	1	375152.6	-62.45452	1.119655E-008	0.0714326	5
	51	72	7.944915	201247.9	-388140.5	1	437211.3	-62.59361	1.126876E-008	0.0714276	5
	52	74	6.317385	236052.4	-454712	1	512331.7	-62.56504	1.126553E-008	0.0714199	5
	53	76	5.008013	277007.1	-535210.4	1	602646.8	-62.63542	1.112363E-008	0.0714241	5
	54	79	3.945707	326002.2	-634513.3	1	713361.4	-62.80667	1.110338E-007	0.0714173	6
	55	82	3.158693	382482.3	-740181.6	1	833163.5	-62.67274	1.114309E-008	0.0714489	5
	56	85	2.504006	452122.1	-872596.7	1	982771	-62.60978	1.094917E-008	0.0717132	5
	57	88	1.998082	533325.3	-1020290	1	1151272	-62.40307	1.105691E-008	0.071674	5
	58	91	1.584686	630306.8	-1197334	1	1353105	-62.23655	1.103045E-008	0.0717146	5
	59	95	1.266892	749968.4	-1397859	1	1586336	-61.78589	1.093133E-009	0.0716762	4
	60	99	0.999041	896556.2	-1641005	1	1869949	-61.3502	1.089598E-009	0.0717508	4
