EXPLAIN
TAG	EISPOT
TITLE	LABEL	Potentiostatic EIS	Test &Identifier
DATE	LABEL	11/27/2019	Date
TIME	LABEL	12:51:35	Time
NOTES	NOTES	3	&Notes...
	
	
	
PSTAT	PSTAT	REF600-11020	Potentiostat
VDC	POTEN	0.00000E+000	T	DC &Voltage (V)
FREQINIT	QUANT	1.00000E+006	Initial Fre&q. (Hz)
FREQFINAL	QUANT	1.00000E+000	Final Fre&q. (Hz)
PTSPERDEC	QUANT	1.00000E+001	Points/&decade
VAC	QUANT	2.50000E+001	AC &Voltage (mV rms)
AREA	QUANT	1.00000E-002	&Area (cm^2)
CONDIT	TWOPARAM	T	5.00000E+000	0.00000E+000	Conditionin&g	Time(s)	E(V)
DELAY	TWOPARAM	T	5.00000E+000	0.00000E+000	Init. De&lay	Time(s)	Stab.(mV/s)
SPEED	SELECTOR	0	&Optimize for:
ZGUESS	QUANT	1.00000E+005	E&stimated Z (ohms)
OCVCURVE	TABLE	19
	Pt	T	Vf	Vm	Ach	Over
	#	s	V vs. Ref.	V	V	bits
	0	0.258333	7.29613E-003	7.29613E-003	5.75799E-004	...........
	1	0.516667	7.29674E-003	7.32790E-003	5.67999E-004	...........
	2	0.775	7.30024E-003	7.34644E-003	5.73032E-004	...........
	3	1.03333	7.30943E-003	7.36431E-003	5.76266E-004	...........
	4	1.29167	7.32427E-003	7.37261E-003	5.72099E-004	...........
	5	1.55	7.34213E-003	7.41671E-003	5.65932E-004	...........
	6	1.80833	7.36126E-003	7.41353E-003	5.69199E-004	...........
	7	2.06667	7.38164E-003	7.46718E-003	5.69899E-004	...........
	8	2.325	7.40423E-003	7.50293E-003	5.80165E-004	...........
	9	2.58333	7.43090E-003	7.53257E-003	5.67832E-004	...........
	10	2.84167	7.46210E-003	7.56184E-003	5.74932E-004	...........
	11	3.1	7.49539E-003	7.59185E-003	5.74299E-004	...........
	12	3.35833	7.52786E-003	7.60894E-003	5.76132E-004	...........
	13	3.61667	7.55741E-003	7.61380E-003	5.78932E-004	...........
	14	3.875	7.58261E-003	7.65448E-003	5.72832E-004	...........
	15	4.13333	7.60455E-003	7.68752E-003	5.72132E-004	...........
	16	4.39167	7.62751E-003	7.73204E-003	5.74665E-004	...........
	17	4.65	7.65498E-003	7.74365E-003	5.73432E-004	...........
	18	4.90833	7.68593E-003	7.77338E-003	5.70666E-004	...........
EOC	QUANT	0.0076859	Open Circuit (V)
PSTATMODEL	IQUANT	4	Pstat Model
PSTATSECTION	LABEL	REF600-11020	Pstat Section
PSTATSERIALNO	LABEL	11020	Pstat Serial Number
CTRLMODE	IQUANT	1	Control Mode
IESTAB	IQUANT	0	I/E Stability
CASPEED	IQUANT	1	Control Amp Speed
CONVENTION	IQUANT	1	Current Convention
ICHRANGE	IQUANT	2	Ich Range
ICHRANGEMODE	TOGGLE	F	Ich Auto Range
ICHOFFSETENABLE	TOGGLE	T	Ich Offset Enable
ICHOFFSET	QUANT	0	Ich Offset (V)
ICHFILTER	IQUANT	3	Ich Filter
VCHRANGE	IQUANT	2	Vch Range
VCHRANGEMODE	TOGGLE	F	Vch Auto Range
VCHOFFSETENABLE	TOGGLE	T	Vch Offset Enable
VCHOFFSET	QUANT	0	Vch Offset (V)
VCHFILTER	IQUANT	3	Vch Filter
ACHRANGE	IQUANT	2	Ach Range
ACHOFFSETENABLE	TOGGLE	F	Ach Offset Enable
ACHOFFSET	QUANT	0	Ach Offset (V)
ACHFILTER	IQUANT	3	Ach Filter
IERANGELOWERLIMIT	IQUANT	1	I/E Range Lower Limit
IERANGEMODE	TOGGLE	F	I/E AutoRange
IERANGE	IQUANT	5	I/E Range
POSFEEDENABLE	TOGGLE	F	Positive Feedback IR Comp
POSFEEDRESISTANCE	QUANT	0	Positive Feedback Resistance (ohm)
ACHSELECT	IQUANT	0	Ach Select
CABLEID	IQUANT	14	Cable ID
DCCALDATE	LABEL	8/19/2019	DC Calibration Date
ACCALDATE	LABEL	8/19/2019	AC Calibration Date
THERMOSELECT	IQUANT	1	Thermo Select
FRAMEWORKVERSION	QUANT	6.33	Framework Version
INSTRUMENTVERSION	LABEL	3.50	Instrument Version
ZCURVE	TABLE
	Pt	Time	Freq	Zreal	Zimag	Zsig	Zmod	Zphz	Idc	Vdc	IERange
	#	s	Hz	ohm	ohm	V	ohm	°	A	V	#
	0	1	1000078	2092.91	-1423.394	1	2531.072	-34.21972	9.66479E-006	0.0090943	8
	1	1	794390.6	2381.141	-1339.847	1	2732.219	-29.36606	-4.230274E-006	0.0093756	8
	2	2	630984.4	2627.98	-1247.392	1	2908.997	-25.39174	5.801671E-007	0.0100417	8
	3	2	501234.4	2831.467	-1106.392	1	3039.952	-21.34301	-2.628344E-006	0.0099565	8
	4	2	398109.4	2996.177	-971.535	1	3149.755	-17.96572	-2.180026E-006	0.00987	8
	5	3	316265.6	3111.213	-842.2303	1	3223.197	-15.14738	8.60754E-007	0.0096933	8
	6	3	251203.1	3203.26	-729.1616	1	3285.202	-12.82379	-1.449797E-006	0.0091357	8
	7	3	199546.9	3269.541	-632.0511	1	3330.073	-10.94117	-2.222339E-006	0.0097875	8
	8	4	158578.1	3354.583	-553.9382	1	3400.011	-9.376567	-1.160835E-006	0.0096971	8
	9	4	125953.1	3386.044	-446.0483	1	3415.297	-7.504445	-2.464755E-006	0.0113689	7
	10	4	100078.1	3420.997	-392.6642	1	3443.458	-6.547792	-1.078543E-006	0.0105814	7
	11	5	79453.13	3452.724	-367.269	1	3472.202	-6.071767	-2.703001E-007	0.0085441	7
	12	5	63140.62	3481.03	-347.2245	1	3498.305	-5.696276	-9.221858E-007	0.0097456	7
	13	5	50203.12	3506.995	-335.4465	1	3523.001	-5.463759	-1.078107E-006	0.0105677	7
	14	5	39890.62	3537.188	-333.7579	1	3552.899	-5.390291	6.851598E-007	0.0077252	7
	15	6	31640.63	3561.841	-338.7776	1	3577.915	-5.433234	-2.75854E-007	0.0085349	7
	16	6	25171.88	3587.014	-351.5363	1	3604.199	-5.597255	-1.079662E-006	0.0105651	7
	17	6	20015.62	3616.121	-371.5963	1	3635.164	-5.867179	-6.468311E-007	0.0091476	7
	18	7	15890.62	3646.131	-411.8134	1	3669.314	-6.443981	3.46262E-007	0.0097411	7
	19	7	12609.37	3674.834	-458.1215	1	3703.279	-7.106091	-2.533275E-007	0.0104702	7
	20	7	10078.13	3705.508	-519.8633	1	3741.797	-7.986173	5.368661E-007	0.0094611	7
	21	8	8015.625	3733.278	-589.3759	1	3779.514	-8.971293	-1.077098E-006	0.0105589	7
	22	8	6328.125	3772.882	-693.3739	1	3836.067	-10.41352	8.611509E-007	0.0077899	7
	23	8	5015.625	3810.152	-813.8957	1	3896.112	-12.05787	-5.431405E-007	0.0106814	7
	24	9	3984.375	3850.178	-970.622	1	3970.64	-14.14932	-6.497737E-007	0.0091408	7
	25	9	3170.956	3903.062	-1160.878	1	4072.042	-16.56393	5.39654E-007	0.0094506	7
	26	9	2527.573	3958.484	-1388.594	1	4194.972	-19.33032	1.01063E-007	0.0080648	7
	27	10	1976.103	4033.225	-1699.722	1	4376.752	-22.85201	5.432263E-007	0.0094518	7
	28	10	1577.524	4128.593	-2073.311	1	4619.946	-26.66504	-2.5329E-007	0.0104615	7
	29	10	1265.625	4221.836	-2465.472	1	4889.014	-30.28411	5.381819E-007	0.0094554	7
	30	11	998.264	4352.112	-3017.788	1	5296.029	-34.73774	9.902658E-008	0.0080712	7
	31	11	796.875	4489.343	-3642.116	1	5780.935	-39.05174	1.049807E-007	0.0080641	7
	32	11	627.7902	4669.202	-4453.539	1	6452.554	-43.64577	7.355265E-007	0.009063	7
	33	12	505.5147	4860.101	-5367.57	1	7240.953	-47.84053	4.210259E-007	0.0077983	7
	34	12	397.9953	5115.236	-6583.35	1	8337.033	-52.15294	2.655081E-009	0.0092941	7
	35	12	315.5048	5407.85	-8048.946	1	9696.93	-56.10401	-1.648745E-011	0.0092995	7
	36	13	252.4038	5752.213	-9779.09	1	11345.42	-59.53529	-4.640362E-010	0.0092342	6
	37	13	198.6229	6205.986	-12074.09	1	13575.64	-62.7972	1.411503E-010	0.0092381	6
	38	13	158.3615	6750.534	-14742.5	1	16214.54	-65.39715	-2.936583E-010	0.0092317	6
	39	14	125.558	7463.417	-18108.69	1	19586.41	-67.6012	-2.554689E-010	0.0092417	6
	40	14	100.4464	8339.484	-22031.16	1	23556.71	-69.26677	1.529761E-009	0.0092353	6
	41	14	79.00281	9635.33	-27194.75	1	28851.24	-70.49033	3.834623E-010	0.0092337	6
	42	15	63.3446	11044.04	-33467.83	1	35242.97	-71.73763	4.758692E-011	0.0092256	6
	43	15	49.86702	13172.38	-41008.04	1	43071.69	-72.19222	-6.964951E-010	0.0092332	6
	44	15	39.72458	15941.32	-49480.24	1	51984.8	-72.14233	-2.590101E-011	0.0092354	6
	45	16	31.6723	19323.54	-59773.33	1	62819.18	-72.08501	3.869922E-011	0.0092348	6
	46	16	24.93351	24065.61	-73157.81	1	77014.41	-71.79114	-1.230832E-010	0.0092212	6
	47	16	19.86229	29837.14	-88107.46	1	93022.47	-71.2916	-9.181853E-010	0.009225	6
	48	16	15.83615	37638.39	-105326.9	1	111849.9	-70.33573	1.759652E-010	0.0092328	5
	49	17	12.40079	47409.73	-127107	1	135660.9	-69.54495	1.219465E-009	0.0092309	5
	50	17	9.93114	59876.46	-150932.4	1	162375.5	-68.36126	2.615139E-011	0.0092342	5
	51	18	7.944915	74975.49	-178286.7	1	193410.1	-67.19163	-4.157486E-010	0.0092356	5
	52	18	6.317385	92890.02	-209750.4	1	229398.8	-66.11337	-1.007532E-009	0.0092572	5
	53	19	5.008013	116572.5	-246603.6	1	272768.2	-64.69933	-4.390923E-010	0.0092287	5
	54	20	3.945707	146113.9	-288066.8	1	323004.3	-63.10487	4.651754E-011	0.0092289	5
	55	22	3.158693	177871.3	-331940.2	1	376593.3	-61.81522	1.022059E-010	0.0092413	5
	56	23	2.504006	217422.4	-382292.4	1	439795.3	-60.37167	-7.583311E-011	0.0092384	5
	57	25	1.998082	260523.6	-436688.4	1	508497.1	-59.18016	-1.185523E-010	0.0092083	5
	58	26	1.584686	311574.9	-496620.3	1	586268.4	-57.89623	2.105299E-011	0.0092539	5
	59	28	1.266892	367009.5	-563326.3	1	672333.6	-56.91558	6.884594E-011	0.00927	5
	60	31	0.999041	430658.2	-643743.2	1	774513.9	-56.21784	7.244102E-011	0.0092645	5
