EXPLAIN
TAG	EISPOT
TITLE	LABEL	Potentiostatic EIS	Test &Identifier
DATE	LABEL	10/6/2019	Date
TIME	LABEL	10:51:20	Time
NOTES	NOTES	2	&Notes...
	
	
PSTAT	PSTAT	REF600-11020	Potentiostat
VDC	POTEN	0.00000E+000	T	DC &Voltage (V)
FREQINIT	QUANT	1.00000E+006	Initial Fre&q. (Hz)
FREQFINAL	QUANT	1.00000E+000	Final Fre&q. (Hz)
PTSPERDEC	QUANT	1.00000E+001	Points/&decade
VAC	QUANT	2.50000E+001	AC &Voltage (mV rms)
AREA	QUANT	1.00000E-002	&Area (cm^2)
CONDIT	TWOPARAM	T	5.00000E+000	0.00000E+000	Conditionin&g	Time(s)	E(V)
DELAY	TWOPARAM	T	5.00000E+000	0.00000E+000	Init. De&lay	Time(s)	Stab.(mV/s)
SPEED	SELECTOR	1	&Optimize for:
ZGUESS	QUANT	1.00000E+004	E&stimated Z (ohms)
OCVCURVE	TABLE	19
	Pt	T	Vf	Vm	Ach	Over
	#	s	V vs. Ref.	V	V	bits
	0	0.258333	5.88885E-003	5.88885E-003	5.46299E-004	...........
	1	0.516667	5.88355E-003	5.61118E-003	5.47933E-004	...........
	2	0.775	5.85142E-003	5.37129E-003	5.50366E-004	...........
	3	1.03333	5.76268E-003	5.17590E-003	5.48433E-004	...........
	4	1.29167	5.60989E-003	4.99951E-003	5.55133E-004	...........
	5	1.55	5.41778E-003	4.85252E-003	5.52566E-004	...........
	6	1.80833	5.21996E-003	4.71697E-003	5.50433E-004	...........
	7	2.06667	5.03793E-003	4.60698E-003	5.52699E-004	...........
	8	2.325	4.87890E-003	4.50340E-003	5.52099E-004	...........
	9	2.58333	4.74187E-003	4.40879E-003	5.53399E-004	...........
	10	2.84167	4.62266E-003	4.32040E-003	5.54199E-004	...........
	11	3.1	4.51685E-003	4.24734E-003	5.54066E-004	...........
	12	3.35833	4.42150E-003	4.17644E-003	5.58299E-004	...........
	13	3.61667	4.33526E-003	4.11343E-003	5.51566E-004	...........
	14	3.875	4.25720E-003	4.05233E-003	5.49066E-004	...........
	15	4.13333	4.18620E-003	3.99991E-003	5.44699E-004	...........
	16	4.39167	4.12111E-003	3.94500E-003	5.48133E-004	...........
	17	4.65	4.06102E-003	3.90065E-003	5.44099E-004	...........
	18	4.90833	4.00535E-003	3.85717E-003	5.45099E-004	...........
EOC	QUANT	0.0040053	Open Circuit (V)
PSTATMODEL	IQUANT	4	Pstat Model
PSTATSECTION	LABEL	REF600-11020	Pstat Section
PSTATSERIALNO	LABEL	11020	Pstat Serial Number
CTRLMODE	IQUANT	1	Control Mode
IESTAB	IQUANT	0	I/E Stability
CASPEED	IQUANT	1	Control Amp Speed
CONVENTION	IQUANT	1	Current Convention
ICHRANGE	IQUANT	2	Ich Range
ICHRANGEMODE	TOGGLE	F	Ich Auto Range
ICHOFFSETENABLE	TOGGLE	T	Ich Offset Enable
ICHOFFSET	QUANT	0	Ich Offset (V)
ICHFILTER	IQUANT	3	Ich Filter
VCHRANGE	IQUANT	2	Vch Range
VCHRANGEMODE	TOGGLE	F	Vch Auto Range
VCHOFFSETENABLE	TOGGLE	T	Vch Offset Enable
VCHOFFSET	QUANT	0	Vch Offset (V)
VCHFILTER	IQUANT	3	Vch Filter
ACHRANGE	IQUANT	2	Ach Range
ACHOFFSETENABLE	TOGGLE	F	Ach Offset Enable
ACHOFFSET	QUANT	0	Ach Offset (V)
ACHFILTER	IQUANT	3	Ach Filter
IERANGELOWERLIMIT	IQUANT	1	I/E Range Lower Limit
IERANGEMODE	TOGGLE	F	I/E AutoRange
IERANGE	IQUANT	5	I/E Range
POSFEEDENABLE	TOGGLE	F	Positive Feedback IR Comp
POSFEEDRESISTANCE	QUANT	0	Positive Feedback Resistance (ohm)
ACHSELECT	IQUANT	0	Ach Select
CABLEID	IQUANT	14	Cable ID
DCCALDATE	LABEL	8/19/2019	DC Calibration Date
ACCALDATE	LABEL	8/19/2019	AC Calibration Date
THERMOSELECT	IQUANT	1	Thermo Select
FRAMEWORKVERSION	QUANT	6.33	Framework Version
INSTRUMENTVERSION	LABEL	3.50	Instrument Version
ZCURVE	TABLE
	Pt	Time	Freq	Zreal	Zimag	Zsig	Zmod	Zphz	Idc	Vdc	IERange
	#	s	Hz	ohm	ohm	V	ohm	°	A	V	#
	0	1	1000078	2429.432	-1879.02	1	3071.295	-37.71981	3.706713E-006	0.0054908	8
	1	3	794390.6	2807.955	-1839.638	1	3356.915	-33.2309	3.431121E-007	0.0057259	8
	2	4	630984.4	3161.164	-1742.921	1	3609.811	-28.87033	-6.102908E-007	0.0057803	8
	3	5	501234.4	3464.044	-1583.835	1	3808.955	-24.57089	-4.823537E-006	0.0065429	8
	4	7	398109.4	3697.904	-1421.302	1	3961.64	-21.02443	5.522079E-006	0.0045149	8
	5	8	316265.6	3910.034	-1280.71	1	4114.436	-18.13593	-1.119917E-006	0.0054874	8
	6	10	251203.1	4058.594	-1115.949	1	4209.219	-15.3741	-4.393929E-006	0.0063578	8
	7	11	199546.9	4206.554	-967.985	1	4316.491	-12.95895	-6.942326E-007	0.005481	8
	8	13	158578.1	4271.675	-873.7947	1	4360.129	-11.56069	3.798114E-006	0.0049311	8
	9	14	125953.1	4370.496	-738.2936	1	4432.416	-9.58827	-1.334098E-006	0.0075327	7
	10	16	100078.1	4445.711	-677.441	1	4497.029	-8.664126	-7.101983E-008	0.005656	7
	11	17	79453.13	4503.197	-643.1141	1	4548.888	-8.127611	-7.050728E-008	0.0056485	7
	12	18	63140.62	4560.237	-623.1467	1	4602.616	-7.781154	-7.063229E-008	0.0056412	7
	13	20	50203.12	4615.889	-618.6673	1	4657.165	-7.633855	4.718848E-008	0.0054682	7
	14	21	39890.62	4674.333	-628.9476	1	4716.457	-7.663318	1.706558E-008	0.0056076	7
	15	22	31640.63	4732.55	-651.7744	1	4777.221	-7.841538	5.562471E-009	0.0054969	7
	16	24	25171.88	4797.096	-689.1822	1	4846.349	-8.175546	-9.905268E-009	0.0055725	7
	17	25	20015.62	4869.3	-740.022	1	4925.212	-8.64152	-4.136423E-008	0.0055257	7
	18	26	15890.62	4942.466	-806.5939	1	5007.851	-9.26877	-7.020409E-008	0.0056373	7
	19	28	12609.37	5027.871	-887.2972	1	5105.563	-10.00827	4.708061E-008	0.005468	7
	20	29	10078.13	5120.403	-982.454	1	5213.804	-10.86137	5.960107E-008	0.0054221	7
	21	30	8015.625	5228.773	-1092.616	1	5341.711	-11.80282	-4.285039E-008	0.0055125	7
	22	32	6328.125	5348.546	-1234.993	1	5489.276	-13.00187	6.190296E-008	0.005418	7
	23	33	5015.625	5483.124	-1391.341	1	5656.896	-14.23827	1.098876E-007	0.0054127	7
	24	35	3984.375	5641.605	-1564.788	1	5854.594	-15.50219	-8.366845E-008	0.005627	7
	25	36	3170.956	5797.908	-1776.025	1	6063.828	-17.03097	5.379629E-009	0.0054927	7
	26	37	2527.573	5973.73	-2008.896	1	6302.469	-18.58719	-3.110912E-008	0.0055053	7
	27	39	1976.103	6182.34	-2302.194	1	6597.077	-20.42444	1.634623E-008	0.0056038	7
	28	40	1577.524	6384.559	-2624.493	1	6902.938	-22.34604	4.723907E-008	0.0054607	7
	29	41	1265.625	6598.982	-2983.652	1	7242.151	-24.32954	1.101153E-007	0.0054151	7
	30	43	998.264	6835.626	-3451.603	1	7657.634	-26.79118	-3.540865E-009	0.0054554	7
	31	44	796.875	7067.08	-3999.403	1	8120.273	-29.5064	-5.792667E-008	0.0055826	7
	32	46	627.7902	7318.642	-4706.805	1	8701.525	-32.74611	-3.059298E-008	0.0055031	7
	33	47	505.5147	7580.168	-5519.235	1	9376.615	-36.05893	1.509405E-008	0.0054324	7
	34	48	397.9953	7857.564	-6603.089	1	10263.63	-40.04195	3.105231E-010	0.0054735	6
	35	50	315.5048	8167.59	-7939.944	1	11390.88	-44.1903	1.16319E-009	0.0054765	6
	36	51	252.4038	8506.568	-9536.61	1	12779.23	-48.26733	5.292697E-010	0.0054708	6
	37	52	198.6229	8942.712	-11673.6	1	14705.27	-52.54561	7.160343E-010	0.0054747	6
	38	54	158.3615	9450.81	-14185.15	1	17045.13	-56.3266	6.013166E-010	0.0054716	6
	39	55	125.558	10098.45	-17364.04	1	20087.03	-59.8189	6.467243E-010	0.0054726	6
	40	56	100.4464	10906.35	-21114.5	1	23764.9	-62.68211	-1.117465E-010	0.0054724	6
	41	58	79.00281	12001.05	-26118.22	1	28743.46	-65.32172	-1.041041E-010	0.0054732	6
	42	59	63.3446	13353.09	-31885.39	1	34568.53	-67.27685	6.335991E-010	0.0054713	6
	43	61	49.86702	15204.92	-38882.54	1	41749.75	-68.64214	4.864679E-010	0.0054726	6
	44	62	39.72458	17647.82	-47433.91	1	50610.49	-69.59225	8.009606E-010	0.0054779	6
	45	63	31.6723	20836.79	-57637.74	1	61288.5	-70.12443	7.472734E-010	0.0054755	6
	46	65	24.93351	24965.27	-70387.45	1	74683.71	-70.47124	4.515522E-010	0.0054722	6
	47	66	19.86229	30072.35	-84893.27	1	90062.28	-70.49397	1.022219E-009	0.0054729	6
	48	68	15.83615	36261.03	-102259.3	1	108498	-70.47555	-6.572685E-010	0.0054783	5
	49	69	12.40079	45955.16	-123491.9	1	131765.4	-69.5882	1.008546E-009	0.0054713	5
	50	70	9.93114	55403.75	-147201.1	1	157282.3	-69.3746	1.776147E-010	0.0054762	5
	51	72	7.944915	67466.75	-174562.2	1	187146.3	-68.86892	3.124029E-010	0.0054719	5
	52	74	6.317385	82782.66	-206863.9	1	222813	-68.18974	4.490397E-010	0.0054714	5
	53	76	5.008013	101251.3	-245429	1	265494.3	-67.58149	2.738494E-010	0.005488	5
	54	78	3.945707	123779.1	-291949.3	1	317105.1	-67.02429	2.036192E-011	0.0054732	5
	55	81	3.158693	148309.9	-342840	1	373544	-66.60706	2.328606E-010	0.0054967	5
	56	84	2.504006	178845.3	-405639.6	1	443316	-66.20745	-5.014029E-011	0.0054732	5
	57	87	1.998082	213390.7	-476532.7	1	522129.3	-65.87722	3.635535E-011	0.0054431	5
	58	90	1.584686	256941	-561457.8	1	617457.3	-65.40965	1.263082E-010	0.0055096	5
	59	94	1.266892	304943.1	-660321.3	1	727333.9	-65.21203	4.982199E-012	0.0054503	5
	60	98	0.999041	368023.3	-780901.9	1	863278	-64.76644	2.485349E-010	0.005505	5
