EXPLAIN
TAG	EISPOT
TITLE	LABEL	Potentiostatic EIS	Test &Identifier
DATE	LABEL	10/24/2019	Date
TIME	LABEL	9:37:17	Time
NOTES	NOTES	1	&Notes...
	
PSTAT	PSTAT	REF600-11020	Potentiostat
VDC	POTEN	0.00000E+000	T	DC &Voltage (V)
FREQINIT	QUANT	1.00000E+006	Initial Fre&q. (Hz)
FREQFINAL	QUANT	1.00000E+000	Final Fre&q. (Hz)
PTSPERDEC	QUANT	1.00000E+001	Points/&decade
VAC	QUANT	2.50000E+001	AC &Voltage (mV rms)
AREA	QUANT	1.00000E-002	&Area (cm^2)
CONDIT	TWOPARAM	T	5.00000E+000	0.00000E+000	Conditionin&g	Time(s)	E(V)
DELAY	TWOPARAM	T	5.00000E+000	0.00000E+000	Init. De&lay	Time(s)	Stab.(mV/s)
SPEED	SELECTOR	1	&Optimize for:
ZGUESS	QUANT	1.00000E+005	E&stimated Z (ohms)
OCVCURVE	TABLE	19
	Pt	T	Vf	Vm	Ach	Over
	#	s	V vs. Ref.	V	V	bits
	0	0.258333	3.54407E-003	3.54407E-003	5.72366E-004	...........
	1	0.516667	3.53960E-003	3.31045E-003	5.69299E-004	...........
	2	0.775	3.51037E-003	2.99322E-003	5.61166E-004	...........
	3	1.03333	3.42766E-003	3.00671E-003	5.64499E-004	...........
	4	1.29167	3.28642E-003	2.60175E-003	5.72099E-004	...........
	5	1.55	3.10997E-003	2.66036E-003	5.69832E-004	...........
	6	1.80833	2.91855E-003	2.01618E-003	5.69899E-004	...........
	7	2.06667	2.68731E-003	8.71811E-004	5.73699E-004	...........
	8	2.325	2.35916E-003	1.67023E-003	5.71899E-004	...........
	9	2.58333	1.97038E-003	1.65795E-003	5.68999E-004	...........
	10	2.84167	1.67470E-003	1.62913E-003	5.69599E-004	...........
	11	3.1	1.55781E-003	1.58682E-003	5.71732E-004	...........
	12	3.35833	1.55741E-003	1.57256E-003	5.75265E-004	...........
	13	3.61667	1.58065E-003	1.55189E-003	5.80665E-004	...........
	14	3.875	1.58715E-003	1.53761E-003	5.68432E-004	...........
	15	4.13333	1.57681E-003	1.53481E-003	5.71299E-004	...........
	16	4.39167	1.56048E-003	1.52485E-003	5.68266E-004	...........
	17	4.65	1.54562E-003	1.51329E-003	5.71966E-004	...........
	18	4.90833	1.53395E-003	1.50650E-003	5.69832E-004	...........
EOC	QUANT	0.0015339	Open Circuit (V)
PSTATMODEL	IQUANT	4	Pstat Model
PSTATSECTION	LABEL	REF600-11020	Pstat Section
PSTATSERIALNO	LABEL	11020	Pstat Serial Number
CTRLMODE	IQUANT	1	Control Mode
IESTAB	IQUANT	0	I/E Stability
CASPEED	IQUANT	1	Control Amp Speed
CONVENTION	IQUANT	1	Current Convention
ICHRANGE	IQUANT	2	Ich Range
ICHRANGEMODE	TOGGLE	F	Ich Auto Range
ICHOFFSETENABLE	TOGGLE	T	Ich Offset Enable
ICHOFFSET	QUANT	0	Ich Offset (V)
ICHFILTER	IQUANT	3	Ich Filter
VCHRANGE	IQUANT	2	Vch Range
VCHRANGEMODE	TOGGLE	F	Vch Auto Range
VCHOFFSETENABLE	TOGGLE	T	Vch Offset Enable
VCHOFFSET	QUANT	0	Vch Offset (V)
VCHFILTER	IQUANT	3	Vch Filter
ACHRANGE	IQUANT	2	Ach Range
ACHOFFSETENABLE	TOGGLE	F	Ach Offset Enable
ACHOFFSET	QUANT	0	Ach Offset (V)
ACHFILTER	IQUANT	3	Ach Filter
IERANGELOWERLIMIT	IQUANT	1	I/E Range Lower Limit
IERANGEMODE	TOGGLE	F	I/E AutoRange
IERANGE	IQUANT	4	I/E Range
POSFEEDENABLE	TOGGLE	F	Positive Feedback IR Comp
POSFEEDRESISTANCE	QUANT	0	Positive Feedback Resistance (ohm)
ACHSELECT	IQUANT	0	Ach Select
CABLEID	IQUANT	14	Cable ID
DCCALDATE	LABEL	8/19/2019	DC Calibration Date
ACCALDATE	LABEL	8/19/2019	AC Calibration Date
THERMOSELECT	IQUANT	1	Thermo Select
FRAMEWORKVERSION	QUANT	6.33	Framework Version
INSTRUMENTVERSION	LABEL	3.50	Instrument Version
ZCURVE	TABLE
	Pt	Time	Freq	Zreal	Zimag	Zsig	Zmod	Zphz	Idc	Vdc	IERange
	#	s	Hz	ohm	ohm	V	ohm	°	A	V	#
	0	1	1000078	2398.919	-1724.835	1	2954.635	-35.71634	-1.87458E-006	0.0039047	8
	1	2	794390.6	2750.187	-1672.837	1	3218.992	-31.31061	4.527059E-006	0.002552	8
	2	4	630984.4	3060.801	-1540.562	1	3426.636	-26.71702	2.637067E-006	0.0025315	8
	3	5	501234.4	3310.125	-1376.069	1	3584.758	-22.5734	2.911628E-006	0.0024439	8
	4	7	398109.4	3527.437	-1214.385	1	3730.623	-18.99696	-2.098658E-007	0.0031774	8
	5	8	316265.6	3682.754	-1047.79	1	3828.908	-15.88172	-6.156711E-007	0.003348	8
	6	9	251203.1	3804.321	-902.7134	1	3909.955	-13.34863	-5.674764E-007	0.0033278	8
	7	11	199546.9	3885.732	-770.3761	1	3961.363	-11.21391	-1.721106E-006	0.003527	8
	8	12	158578.1	3961.369	-667.6531	1	4017.238	-9.56678	-2.124945E-007	0.0031572	8
	9	13	125953.1	4036.237	-543.1384	1	4072.617	-7.663999	3.065224E-007	0.0022747	7
	10	15	100078.1	4066.346	-472.1107	1	4093.66	-6.622503	-5.316896E-008	0.0030868	7
	11	16	79453.13	4100.51	-429.9841	1	4122.993	-5.986222	-5.281425E-008	0.0031927	7
	12	17	63140.62	4132.969	-401.9789	1	4152.471	-5.555203	-1.895808E-008	0.0030564	7
	13	19	50203.12	4162.703	-383.6994	1	4180.35	-5.266388	-2.663877E-008	0.0030187	7
	14	20	39890.62	4192.748	-375.6315	1	4209.541	-5.119505	2.911255E-008	0.0029173	7
	15	21	31640.63	4222.521	-377.4369	1	4239.356	-5.107902	-1.019679E-009	0.0029743	7
	16	23	25171.88	4251.807	-389.9024	1	4269.647	-5.239527	-5.256579E-008	0.003072	7
	17	24	20015.62	4296.223	-400.14	1	4314.817	-5.321043	3.923425E-008	0.0029691	7
	18	26	15890.62	4314.146	-445.6732	1	4337.105	-5.898023	3.921706E-008	0.0029743	7
	19	27	12609.37	4349.195	-491.0525	1	4376.829	-6.441786	-6.171702E-008	0.0032109	7
	20	28	10078.13	4384.403	-548.8588	1	4418.624	-7.135418	6.889451E-008	0.0028728	7
	21	30	8015.625	4399.681	-633.8262	1	4445.102	-8.197736	-5.92448E-008	0.0032027	7
	22	31	6328.125	4463.557	-722.8796	1	4521.714	-9.199264	1.001238E-007	0.002868	7
	23	32	5015.625	4508.138	-844.4855	1	4586.552	-10.60995	-3.15903E-009	0.00305	7
	24	34	3984.375	4547.571	-1004.292	1	4657.146	-12.45339	1.050948E-007	0.0028577	7
	25	35	3170.956	4612.099	-1176.651	1	4759.829	-14.31215	1.703591E-008	0.0030796	7
	26	36	2527.573	4675.326	-1400.044	1	4880.451	-16.67053	-3.540563E-008	0.003095	7
	27	38	1976.103	4752.702	-1701.582	1	5048.125	-19.69859	-1.099759E-008	0.0030355	7
	28	39	1577.524	4831.234	-1977.835	1	5220.408	-22.26346	9.247358E-009	0.0029514	7
	29	41	1265.625	4923.219	-2442.732	1	5495.91	-26.38902	-3.671362E-008	0.0030502	7
	30	42	998.264	5035.336	-2983.655	1	5852.932	-30.64858	1.230266E-009	0.0029806	7
	31	43	796.875	5162.27	-3609.211	1	6298.844	-34.9594	4.314103E-008	0.0029661	7
	32	45	627.7902	5318.007	-4429.804	1	6921.297	-39.79369	-5.187697E-008	0.0031081	7
	33	46	505.5147	5484.969	-5343.688	1	7657.668	-44.25251	-5.938124E-008	0.003199	7
	34	47	397.9953	5714.034	-6586.422	1	8719.583	-49.05681	5.540033E-009	0.0030411	7
	35	49	315.5048	5982.584	-8081.62	1	10055.04	-53.48855	1.325384E-009	0.0029772	6
	36	50	252.4038	6298.608	-9853.85	1	11694.91	-57.41317	6.028917E-010	0.0029702	6
	37	51	198.6229	6723.912	-12204.69	1	13934.33	-61.14838	1.297569E-009	0.0029708	6
	38	53	158.3615	7236.196	-14947.27	1	16606.73	-64.16769	2.570839E-010	0.0029658	6
	39	54	125.558	7919.215	-18408.81	1	20039.92	-66.7233	1.274057E-009	0.0029696	6
	40	56	100.4464	8782.921	-22496.28	1	24150	-68.6735	1.990112E-010	0.0029684	6
	41	57	79.00281	9934.96	-27895.66	1	29612.01	-70.39679	8.725831E-010	0.0029657	6
	42	58	63.3446	11125.21	-33794.2	1	35578.34	-71.77821	1.158348E-009	0.0029663	6
	43	60	49.86702	13766.77	-41611.45	1	43829.64	-71.69367	1.57723E-009	0.0029609	6
	44	61	39.72458	16260.94	-50902.49	1	53436.71	-72.28378	9.250014E-010	0.0029749	6
	45	63	31.6723	19804.07	-61735.98	1	64834.66	-72.21446	1.579967E-009	0.0029691	6
	46	64	24.93351	24699.28	-75722.65	1	79649.07	-71.93467	8.579789E-010	0.0029689	6
	47	65	19.86229	30852.43	-91497.63	1	96559.3	-71.36622	2.700138E-010	0.0029668	6
	48	67	15.83615	38992.04	-110916	1	117570.1	-70.6311	2.566212E-009	0.0029727	5
	49	68	12.40079	50575.35	-131677.7	1	141056.3	-68.989	-1.28894E-010	0.0029781	5
	50	70	9.93114	64437.74	-157008	1	169716.6	-67.68623	-3.096969E-010	0.0029817	5
	51	71	7.944915	81187.73	-184860.2	1	201902.8	-66.28967	7.534806E-010	0.0029795	5
	52	73	6.317385	102825.4	-216133.5	1	239346.5	-64.55727	9.424463E-011	0.0029949	5
	53	75	5.008013	130324	-251321	1	283101.8	-62.59074	3.421562E-010	0.0029742	5
	54	77	3.945707	163962.2	-290029.9	1	333168.1	-60.51928	6.041981E-010	0.00298	5
	55	80	3.158693	199454	-329365.6	1	385050.1	-58.80215	-1.217836E-010	0.0029723	5
	56	83	2.504006	241858.8	-372458.5	1	444095.7	-57.00202	6.048838E-010	0.0029793	5
	57	86	1.998082	287364.5	-416743.5	1	506214.9	-55.41188	1.076667E-010	0.0030215	5
	58	89	1.584686	335581.7	-465574.8	1	573912	-54.21631	3.832303E-010	0.0029663	5
	59	93	1.266892	387998.6	-521404.4	1	649927.3	-53.34554	2.064381E-010	0.0030172	5
	60	97	0.999041	443786.8	-587588.3	1	736346.8	-52.9374	-1.068745E-010	0.0029469	5
