EXPLAIN
TAG	EISPOT
TITLE	LABEL	Potentiostatic EIS	Test &Identifier
DATE	LABEL	10/16/2019	Date
TIME	LABEL	9:09:24	Time
NOTES	NOTES	1	&Notes...
	
PSTAT	PSTAT	REF600-11020	Potentiostat
VDC	POTEN	0.00000E+000	T	DC &Voltage (V)
FREQINIT	QUANT	1.00000E+006	Initial Fre&q. (Hz)
FREQFINAL	QUANT	1.00000E+000	Final Fre&q. (Hz)
PTSPERDEC	QUANT	1.00000E+001	Points/&decade
VAC	QUANT	2.50000E+001	AC &Voltage (mV rms)
AREA	QUANT	1.00000E-002	&Area (cm^2)
CONDIT	TWOPARAM	T	5.00000E+000	0.00000E+000	Conditionin&g	Time(s)	E(V)
DELAY	TWOPARAM	T	5.00000E+000	0.00000E+000	Init. De&lay	Time(s)	Stab.(mV/s)
SPEED	SELECTOR	0	&Optimize for:
ZGUESS	QUANT	1.00000E+005	E&stimated Z (ohms)
OCVCURVE	TABLE	19
	Pt	T	Vf	Vm	Ach	Over
	#	s	V vs. Ref.	V	V	bits
	0	0.258333	6.64891E-003	6.64891E-003	5.49333E-004	...........
	1	0.516667	6.64926E-003	6.66704E-003	5.46966E-004	...........
	2	0.775	6.65143E-003	6.68663E-003	5.42166E-004	...........
	3	1.03333	6.65802E-003	6.72073E-003	5.41933E-004	...........
	4	1.29167	6.67129E-003	6.74860E-003	5.42799E-004	...........
	5	1.55	6.69146E-003	6.76907E-003	5.42899E-004	...........
	6	1.80833	6.71164E-003	6.55626E-003	5.44033E-004	...........
	7	2.06667	6.70566E-003	6.14134E-003	5.47499E-004	...........
	8	2.325	6.63989E-003	6.41680E-003	5.46233E-004	...........
	9	2.58333	6.51923E-003	6.05619E-003	5.48899E-004	...........
	10	2.84167	6.38317E-003	5.95715E-003	5.51166E-004	...........
	11	3.1	6.25307E-003	5.98904E-003	5.46833E-004	...........
	12	3.35833	6.13739E-003	6.07885E-003	5.51533E-004	...........
	13	3.61667	6.05979E-003	6.11784E-003	5.52999E-004	...........
	14	3.875	6.03665E-003	6.12094E-003	5.51133E-004	...........
	15	4.13333	6.05383E-003	6.09624E-003	5.48233E-004	...........
	16	4.39167	6.07964E-003	6.00514E-003	5.49899E-004	...........
	17	4.65	6.09161E-003	6.19516E-003	5.50633E-004	...........
	18	4.90833	6.10268E-003	6.60564E-003	5.50466E-004	...........
EOC	QUANT	0.0061027	Open Circuit (V)
PSTATMODEL	IQUANT	4	Pstat Model
PSTATSECTION	LABEL	REF600-11020	Pstat Section
PSTATSERIALNO	LABEL	11020	Pstat Serial Number
CTRLMODE	IQUANT	1	Control Mode
IESTAB	IQUANT	0	I/E Stability
CASPEED	IQUANT	1	Control Amp Speed
CONVENTION	IQUANT	1	Current Convention
ICHRANGE	IQUANT	2	Ich Range
ICHRANGEMODE	TOGGLE	F	Ich Auto Range
ICHOFFSETENABLE	TOGGLE	T	Ich Offset Enable
ICHOFFSET	QUANT	0	Ich Offset (V)
ICHFILTER	IQUANT	3	Ich Filter
VCHRANGE	IQUANT	2	Vch Range
VCHRANGEMODE	TOGGLE	F	Vch Auto Range
VCHOFFSETENABLE	TOGGLE	T	Vch Offset Enable
VCHOFFSET	QUANT	0	Vch Offset (V)
VCHFILTER	IQUANT	3	Vch Filter
ACHRANGE	IQUANT	2	Ach Range
ACHOFFSETENABLE	TOGGLE	F	Ach Offset Enable
ACHOFFSET	QUANT	0	Ach Offset (V)
ACHFILTER	IQUANT	3	Ach Filter
IERANGELOWERLIMIT	IQUANT	1	I/E Range Lower Limit
IERANGEMODE	TOGGLE	F	I/E AutoRange
IERANGE	IQUANT	5	I/E Range
POSFEEDENABLE	TOGGLE	F	Positive Feedback IR Comp
POSFEEDRESISTANCE	QUANT	0	Positive Feedback Resistance (ohm)
ACHSELECT	IQUANT	0	Ach Select
CABLEID	IQUANT	14	Cable ID
DCCALDATE	LABEL	8/19/2019	DC Calibration Date
ACCALDATE	LABEL	8/19/2019	AC Calibration Date
THERMOSELECT	IQUANT	1	Thermo Select
FRAMEWORKVERSION	QUANT	6.33	Framework Version
INSTRUMENTVERSION	LABEL	3.50	Instrument Version
ZCURVE	TABLE
	Pt	Time	Freq	Zreal	Zimag	Zsig	Zmod	Zphz	Idc	Vdc	IERange
	#	s	Hz	ohm	ohm	V	ohm	°	A	V	#
	0	1	1000078	2337.736	-1283.038	1	2666.683	-28.75965	2.9165E-006	0.0077707	8
	1	1	794390.6	2572.796	-1167.77	1	2825.415	-24.41289	1.026113E-006	0.0074511	8
	2	2	630984.4	2759.615	-1035.927	1	2947.647	-20.57555	1.568704E-007	0.0077821	8
	3	2	501234.4	2911.792	-896.9478	1	3046.81	-17.12091	5.952297E-007	0.0076896	8
	4	2	398109.4	3026.716	-778.5876	1	3125.253	-14.42591	-1.928961E-006	0.0081298	8
	5	3	316265.6	3105.236	-661.8858	1	3174.994	-12.03261	6.423996E-007	0.0074422	8
	6	3	251203.1	3180.251	-555.5607	1	3228.412	-9.90906	-1.369949E-006	0.0078757	8
	7	3	199546.9	3215.779	-482.9268	1	3251.838	-8.540523	-1.737946E-006	0.0080654	8
	8	4	158578.1	3247.443	-419.8573	1	3274.472	-7.366824	-1.215624E-006	0.0078122	8
	9	4	125953.1	3293.021	-333.0731	1	3309.822	-5.775548	4.276782E-008	0.0076779	7
	10	4	100078.1	3316.218	-299.8933	1	3329.751	-5.167335	-7.514317E-009	0.0075282	7
	11	5	79453.13	3338.159	-284.5876	1	3350.268	-4.872847	-5.998081E-008	0.0077356	7
	12	5	63140.62	3361.49	-277.0004	1	3372.884	-4.710761	-2.175065E-008	0.0075474	7
	13	5	50203.12	3384.451	-274.8314	1	3395.592	-4.642467	-5.951829E-008	0.0076312	7
	14	6	39890.62	3408.258	-279.7887	1	3419.723	-4.692968	-3.616352E-008	0.007631	7
	15	6	31640.63	3431.471	-290.8009	1	3443.771	-4.843972	3.373036E-008	0.0074388	7
	16	6	25171.88	3456.306	-308.9728	1	3470.089	-5.108316	9.868451E-008	0.0074048	7
	17	7	20015.62	3477.045	-336.1613	1	3493.257	-5.522203	7.971941E-008	0.0074831	7
	18	7	15890.62	3510.518	-367.1451	1	3529.665	-5.970533	-5.369404E-008	0.007648	7
	19	7	12609.37	3539.207	-411.0005	1	3562.991	-6.623966	9.677487E-008	0.0074025	7
	20	8	10078.13	3569.354	-465.0112	1	3599.517	-7.422621	2.94492E-009	0.0075341	7
	21	8	8015.625	3594.896	-531.7671	1	3634.014	-8.414333	8.636355E-009	0.0074909	7
	22	8	6328.125	3635.418	-620.202	1	3687.941	-9.68145	-7.242401E-009	0.0075107	7
	23	8	5015.625	3672.598	-728.006	1	3744.058	-11.21219	3.285212E-008	0.00744	7
	24	9	3984.375	3712.944	-869.6083	1	3813.42	-13.18164	3.649011E-008	0.007439	7
	25	9	3170.956	3759.334	-1025.931	1	3896.81	-15.26445	3.476647E-008	0.0074352	7
	26	9	2527.573	3810.79	-1226.872	1	4003.416	-17.8458	7.878339E-008	0.0074752	7
	27	10	1976.103	3877.889	-1497.292	1	4156.911	-21.11208	-9.388031E-009	0.0075332	7
	28	10	1577.524	3947.597	-1801.416	1	4339.196	-24.52875	-3.306311E-008	0.0076243	7
	29	10	1265.625	4026.465	-2162.589	1	4570.472	-28.23996	6.237021E-008	0.0074151	7
	30	11	998.264	4129.058	-2639.083	1	4900.396	-32.58464	-2.030912E-008	0.0075346	7
	31	11	796.875	4242.795	-3201.612	1	5315.226	-37.03819	-8.705108E-009	0.0075785	7
	32	11	627.7902	4383.253	-3930.067	1	5887.133	-41.87971	3.364443E-008	0.0074273	7
	33	12	505.5147	4539.556	-4742.872	1	6565.242	-46.25477	-5.642189E-009	0.0074995	7
	34	12	397.9953	4742.67	-5850.545	1	7531.388	-50.97048	1.854633E-009	0.0075562	7
	35	12	315.5048	4988.68	-7181.548	1	8744.23	-55.21413	1.727839E-009	0.0075586	7
	36	13	252.4038	5285.881	-8754.182	1	10226.25	-58.87591	-4.064372E-010	0.0074984	6
	37	13	198.6229	5686.62	-10838.59	1	12239.8	-62.31561	8.07735E-011	0.0074948	6
	38	13	158.3615	6177.318	-13271.21	1	14638.45	-65.03955	-3.298224E-010	0.0074941	6
	39	14	125.558	6829.295	-16323.82	1	17694.81	-67.29733	7.234733E-011	0.0074957	6
	40	14	100.4464	7650.638	-19890.15	1	21310.8	-68.96103	1.361667E-009	0.0074917	6
	41	14	79.00281	8826.729	-24569.75	1	26107.16	-70.23908	-5.145617E-010	0.00749	6
	42	15	63.3446	10341.87	-30144.78	1	31869.46	-71.06427	6.698514E-010	0.0074908	6
	43	15	49.86702	12298.06	-36987.72	1	38978.64	-71.60853	5.353018E-010	0.0074905	6
	44	15	39.72458	14998.29	-44637.51	1	47089.87	-71.42756	3.807895E-010	0.0074981	6
	45	16	31.6723	18389.23	-53820.48	1	56875.37	-71.13587	6.376593E-010	0.0074959	6
	46	16	24.93351	23047.45	-65599.4	1	69530.33	-70.64177	-4.012228E-010	0.0074911	6
	47	16	19.86229	28937.34	-78510.95	1	83674	-69.76727	-4.936777E-010	0.0074978	6
	48	16	15.83615	35728.04	-93375.44	1	99977.3	-69.06176	-1.947336E-010	0.0074912	6
	49	17	12.40079	45247.14	-111786.9	1	120596.9	-67.96375	-1.414696E-009	0.0074971	5
	50	17	9.93114	57008.33	-131226.6	1	143074.7	-66.51859	-9.222053E-010	0.0074985	5
	51	18	7.944915	70266.84	-153275.9	1	168614.7	-65.37168	-8.695946E-010	0.0075017	5
	52	18	6.317385	86747.65	-178837.9	1	198766.6	-64.1237	-6.861699E-010	0.0075159	5
	53	19	5.008013	106361.7	-208346.2	1	233925.1	-62.95547	-4.512631E-010	0.0075019	5
	54	20	3.945707	129144.4	-242231.8	1	274507.8	-61.93596	-1.261602E-010	0.0074971	5
	55	22	3.158693	153933.5	-278373.7	1	318099.7	-61.05853	5.061609E-011	0.0075152	5
	56	23	2.504006	183719.6	-321627.6	1	370401.4	-60.2642	-2.020708E-010	0.0075071	5
	57	25	1.998082	215614.1	-369694.9	1	427976.3	-59.74834	-1.829268E-010	0.0074864	5
	58	26	1.584686	254008.2	-425386.7	1	495453.4	-59.1576	-2.246269E-011	0.0075338	5
	59	28	1.266892	295802.3	-489469.7	1	571908.7	-58.85408	8.328273E-012	0.0075369	5
	60	31	0.999041	344526.7	-567921.6	1	664254.1	-58.75712	2.563558E-011	0.007526	5
