EXPLAIN
TAG	EISPOT
TITLE	LABEL	Potentiostatic EIS	Test &Identifier
DATE	LABEL	10/18/2019	Date
TIME	LABEL	9:39:26	Time
NOTES	NOTES	1	&Notes...
	
PSTAT	PSTAT	REF600-11020	Potentiostat
VDC	POTEN	0.00000E+000	T	DC &Voltage (V)
FREQINIT	QUANT	1.00000E+006	Initial Fre&q. (Hz)
FREQFINAL	QUANT	1.00000E+000	Final Fre&q. (Hz)
PTSPERDEC	QUANT	1.00000E+001	Points/&decade
VAC	QUANT	2.50000E+001	AC &Voltage (mV rms)
AREA	QUANT	1.00000E-002	&Area (cm^2)
CONDIT	TWOPARAM	T	5.00000E+000	0.00000E+000	Conditionin&g	Time(s)	E(V)
DELAY	TWOPARAM	T	5.00000E+000	0.00000E+000	Init. De&lay	Time(s)	Stab.(mV/s)
SPEED	SELECTOR	0	&Optimize for:
ZGUESS	QUANT	1.00000E+005	E&stimated Z (ohms)
OCVCURVE	TABLE	19
	Pt	T	Vf	Vm	Ach	Over
	#	s	V vs. Ref.	V	V	bits
	0	0.258333	7.06131E-003	7.06131E-003	5.42099E-004	...........
	1	0.516667	7.06182E-003	7.08782E-003	5.44633E-004	...........
	2	0.775	7.06515E-003	7.12433E-003	5.41366E-004	...........
	3	1.03333	7.07553E-003	7.17234E-003	5.44599E-004	...........
	4	1.29167	7.09664E-003	7.22131E-003	5.41099E-004	...........
	5	1.55	7.12926E-003	7.27908E-003	5.40299E-004	...........
	6	1.80833	7.17172E-003	7.34183E-003	5.44166E-004	...........
	7	2.06667	7.22190E-003	7.40838E-003	5.41066E-004	...........
	8	2.325	7.27819E-003	7.47370E-003	5.42699E-004	...........
	9	2.58333	7.33904E-003	7.53620E-003	5.42299E-004	...........
	10	2.84167	7.40266E-003	7.60481E-003	5.35200E-004	...........
	11	3.1	7.46757E-003	7.67195E-003	5.38333E-004	...........
	12	3.35833	7.53311E-003	7.73061E-003	5.40933E-004	...........
	13	3.61667	7.59855E-003	7.79065E-003	5.42466E-004	...........
	14	3.875	7.66282E-003	7.85353E-003	5.38533E-004	...........
	15	4.13333	7.72546E-003	7.91226E-003	5.41366E-004	...........
	16	4.39167	7.78685E-003	7.97049E-003	5.38266E-004	...........
	17	4.65	7.84732E-003	8.02901E-003	5.36333E-004	...........
	18	4.90833	7.90692E-003	8.08505E-003	5.45333E-004	...........
EOC	QUANT	0.0079069	Open Circuit (V)
PSTATMODEL	IQUANT	4	Pstat Model
PSTATSECTION	LABEL	REF600-11020	Pstat Section
PSTATSERIALNO	LABEL	11020	Pstat Serial Number
CTRLMODE	IQUANT	1	Control Mode
IESTAB	IQUANT	0	I/E Stability
CASPEED	IQUANT	1	Control Amp Speed
CONVENTION	IQUANT	1	Current Convention
ICHRANGE	IQUANT	2	Ich Range
ICHRANGEMODE	TOGGLE	F	Ich Auto Range
ICHOFFSETENABLE	TOGGLE	T	Ich Offset Enable
ICHOFFSET	QUANT	0	Ich Offset (V)
ICHFILTER	IQUANT	3	Ich Filter
VCHRANGE	IQUANT	2	Vch Range
VCHRANGEMODE	TOGGLE	F	Vch Auto Range
VCHOFFSETENABLE	TOGGLE	T	Vch Offset Enable
VCHOFFSET	QUANT	0	Vch Offset (V)
VCHFILTER	IQUANT	3	Vch Filter
ACHRANGE	IQUANT	2	Ach Range
ACHOFFSETENABLE	TOGGLE	F	Ach Offset Enable
ACHOFFSET	QUANT	0	Ach Offset (V)
ACHFILTER	IQUANT	3	Ach Filter
IERANGELOWERLIMIT	IQUANT	1	I/E Range Lower Limit
IERANGEMODE	TOGGLE	F	I/E AutoRange
IERANGE	IQUANT	5	I/E Range
POSFEEDENABLE	TOGGLE	F	Positive Feedback IR Comp
POSFEEDRESISTANCE	QUANT	0	Positive Feedback Resistance (ohm)
ACHSELECT	IQUANT	0	Ach Select
CABLEID	IQUANT	14	Cable ID
DCCALDATE	LABEL	8/19/2019	DC Calibration Date
ACCALDATE	LABEL	8/19/2019	AC Calibration Date
THERMOSELECT	IQUANT	1	Thermo Select
FRAMEWORKVERSION	QUANT	6.33	Framework Version
INSTRUMENTVERSION	LABEL	3.50	Instrument Version
ZCURVE	TABLE
	Pt	Time	Freq	Zreal	Zimag	Zsig	Zmod	Zphz	Idc	Vdc	IERange
	#	s	Hz	ohm	ohm	V	ohm	°	A	V	#
	0	2	1000078	2553.027	-1347.011	1	2886.587	-27.81673	-3.298559E-006	0.0106479	8
	1	2	794390.6	2779.84	-1238.455	1	3043.235	-24.0136	2.606706E-006	0.0096035	8
	2	2	630984.4	2968.413	-1106.245	1	3167.847	-20.43903	-4.318835E-006	0.0105219	8
	3	3	501234.4	3116.634	-947.2916	1	3257.417	-16.90649	5.141267E-006	0.0089301	8
	4	3	398109.4	3241.481	-840.2848	1	3348.624	-14.53281	-1.264697E-006	0.0099287	8
	5	3	316265.6	3332.502	-718.9988	1	3409.183	-12.17513	-2.649988E-008	0.0095318	8
	6	4	251203.1	3398.479	-635.4601	1	3457.378	-10.59108	3.977614E-006	0.0088268	8
	7	4	199546.9	3462.9	-550.3949	1	3506.367	-9.031075	-5.220162E-007	0.0097522	8
	8	4	158578.1	3485.174	-492.1018	1	3519.744	-8.036957	-1.307769E-006	0.0098476	8
	9	5	125953.1	3556.202	-410.5208	1	3579.819	-6.584962	7.13479E-007	0.0075997	7
	10	5	100078.1	3582.674	-366.5225	1	3601.373	-5.841275	-4.290663E-008	0.0095821	7
	11	5	79453.13	3612.192	-359.5178	1	3630.039	-5.683873	-3.833256E-008	0.0095853	7
	12	6	63140.62	3642.497	-361.0407	1	3660.346	-5.660613	-3.671515E-008	0.0095842	7
	13	6	50203.12	3676.094	-369.8415	1	3694.652	-5.745035	7.936158E-008	0.0095026	7
	14	6	39890.62	3710.616	-385.5268	1	3730.591	-5.931652	-4.227689E-008	0.0095801	7
	15	6	31640.63	3750.158	-410.701	1	3772.581	-6.249878	-7.726603E-008	0.0096692	7
	16	7	25171.88	3790.856	-442.7903	1	3816.628	-6.662235	-3.916239E-008	0.0095709	7
	17	7	20015.62	3822.468	-474.9523	1	3851.862	-7.08286	-5.427381E-008	0.0097038	7
	18	7	15890.62	3887.758	-533.1744	1	3924.148	-7.808937	1.344222E-007	0.0093412	7
	19	8	12609.37	3943.506	-590.1298	1	3987.417	-8.510926	-1.107418E-008	0.0095873	7
	20	8	10078.13	4001.227	-660.1335	1	4055.317	-9.368423	-7.814425E-008	0.0096653	7
	21	8	8015.625	4086.064	-728.5829	1	4150.513	-10.11011	-2.014103E-008	0.0096831	7
	22	9	6328.125	4135.014	-840.8589	1	4219.643	-11.49442	6.635513E-008	0.0094261	7
	23	9	5015.625	4209.905	-958.852	1	4317.719	-12.83086	-4.802295E-008	0.0096349	7
	24	9	3984.375	4291.957	-1129.416	1	4438.071	-14.74299	7.893496E-008	0.009498	7
	25	10	3170.956	4369.669	-1271.108	1	4550.793	-16.21937	-1.228688E-008	0.0095855	7
	26	10	2527.573	4455.5	-1476.711	1	4693.842	-18.33704	-1.478875E-008	0.009505	7
	27	10	1976.103	4559.362	-1752.38	1	4884.529	-21.02415	8.032109E-008	0.0093735	7
	28	11	1577.524	4587.796	-2063.657	1	5030.562	-24.2189	-4.020941E-008	0.0095693	7
	29	11	1265.625	4778.558	-2442.491	1	5366.599	-27.07319	-4.231908E-008	0.0095551	7
	30	11	998.264	4915.991	-2932.169	1	5724.036	-30.81419	3.840375E-008	0.0094053	7
	31	12	796.875	5067.248	-3503.614	1	6160.545	-34.66089	-3.876701E-008	0.0095568	7
	32	12	627.7902	5243.612	-4247.481	1	6748.079	-39.0085	1.345208E-007	0.0093327	7
	33	12	505.5147	5433.407	-5074.577	1	7434.598	-43.04421	1.398842E-008	0.0094644	7
	34	12	397.9953	5671.287	-6201.378	1	8403.605	-47.55645	1.684114E-009	0.0095573	7
	35	13	315.5048	5944.101	-7554.619	1	9612.73	-51.80374	3.66262E-009	0.0095555	7
	36	13	252.4038	6258.974	-9158.875	1	11093.23	-55.65216	1.132834E-009	0.009493	6
	37	13	198.6229	6668.105	-11284.67	1	13107.53	-59.42117	4.347399E-010	0.0094894	6
	38	14	158.3615	7149.829	-13771.3	1	15516.73	-62.56242	2.039469E-010	0.0094898	6
	39	14	125.558	7764.61	-16919.29	1	18615.9	-65.34864	7.246906E-010	0.0094862	6
	40	14	100.4464	8543.458	-20601.34	1	22302.59	-67.47601	-1.263E-009	0.0094869	6
	41	15	79.00281	9685.78	-25522.78	1	27298.84	-69.21847	-1.869227E-010	0.0094832	6
	42	15	63.3446	10424.42	-31132.11	1	32831.03	-71.48716	1.022084E-009	0.0094847	6
	43	15	49.86702	12367.49	-38300.24	1	40247.52	-72.10427	-4.652172E-010	0.0094806	6
	44	16	39.72458	14899.14	-46735.93	1	49053.36	-72.31803	-3.140249E-010	0.0094822	6
	45	16	31.6723	17950.14	-56926.8	1	59689.76	-72.49891	-2.001707E-010	0.0094835	6
	46	16	24.93351	22099.6	-69597.27	1	73021.73	-72.38351	3.87295E-010	0.0094802	6
	47	17	19.86229	27191.96	-84059.19	1	88347.89	-72.07434	1.085586E-009	0.0094856	6
	48	17	15.83615	33628.12	-102406.5	1	107786.5	-71.82092	-1.648126E-009	0.0094836	5
	49	17	12.40079	43815.41	-123248.4	1	130805.1	-70.42946	8.24452E-010	0.0094825	5
	50	18	9.93114	53330.66	-146894.2	1	156275.6	-70.04633	-1.041505E-009	0.0094824	5
	51	18	7.944915	67004.27	-173883.6	1	186346.7	-68.92634	-1.024648E-009	0.0094884	5
	52	19	6.317385	85008.14	-207001.3	1	223776.5	-67.67377	-4.893652E-010	0.0094963	5
	53	20	5.008013	107413.3	-244491.5	1	267046.2	-66.28252	-3.785527E-010	0.0094775	5
	54	21	3.945707	136330.3	-289215.6	1	319736.8	-64.76178	1.936254E-010	0.0094814	5
	55	22	3.158693	167995	-333991.5	1	373861.8	-63.29798	-1.433831E-010	0.0095035	5
	56	24	2.504006	208201	-387250.5	1	439671	-61.73579	-2.218239E-010	0.0094877	5
	57	25	1.998082	252922.8	-442693.5	1	509850.4	-60.25949	-9.301749E-011	0.0095062	5
	58	27	1.584686	307026.6	-507048.8	1	592759.5	-58.80439	2.812501E-011	0.0095296	5
	59	29	1.266892	363814	-575378.9	1	680750.7	-57.69469	7.549798E-012	0.0095073	5
	60	31	0.999041	431557.6	-654989.1	1	784380.4	-56.62001	-5.226524E-012	0.009484	5
