EXPLAIN
TAG	EISPOT
TITLE	LABEL	Potentiostatic EIS	Test &Identifier
DATE	LABEL	10/12/2019	Date
TIME	LABEL	8:53:15	Time
NOTES	NOTES	1	&Notes...
	
PSTAT	PSTAT	REF600-11020	Potentiostat
VDC	POTEN	0.00000E+000	T	DC &Voltage (V)
FREQINIT	QUANT	1.00000E+006	Initial Fre&q. (Hz)
FREQFINAL	QUANT	1.00000E+000	Final Fre&q. (Hz)
PTSPERDEC	QUANT	1.00000E+001	Points/&decade
VAC	QUANT	2.50000E+001	AC &Voltage (mV rms)
AREA	QUANT	1.00000E-002	&Area (cm^2)
CONDIT	TWOPARAM	T	5.00000E+000	0.00000E+000	Conditionin&g	Time(s)	E(V)
DELAY	TWOPARAM	T	5.00000E+000	0.00000E+000	Init. De&lay	Time(s)	Stab.(mV/s)
SPEED	SELECTOR	1	&Optimize for:
ZGUESS	QUANT	1.00000E+004	E&stimated Z (ohms)
OCVCURVE	TABLE	19
	Pt	T	Vf	Vm	Ach	Over
	#	s	V vs. Ref.	V	V	bits
	0	0.258333	4.75589E-003	4.75589E-003	5.71613E-004	...........
	1	0.516667	4.75359E-003	4.63520E-003	5.75246E-004	...........
	2	0.775	4.73981E-003	4.54050E-003	5.69546E-004	...........
	3	1.03333	4.70237E-003	4.46533E-003	5.67946E-004	...........
	4	1.29167	4.63938E-003	4.40693E-003	5.66446E-004	...........
	5	1.55	4.56291E-003	4.36400E-003	5.72046E-004	...........
	6	1.80833	4.48819E-003	4.32130E-003	5.68212E-004	...........
	7	2.06667	4.42407E-003	4.29154E-003	5.74512E-004	...........
	8	2.325	4.37227E-003	4.26972E-003	5.75146E-004	...........
	9	2.58333	4.33136E-003	4.25327E-003	5.66513E-004	...........
	10	2.84167	4.29943E-003	4.23131E-003	5.74579E-004	...........
	11	3.1	4.27435E-003	4.22283E-003	5.70146E-004	...........
	12	3.35833	4.25412E-003	4.20993E-003	5.70112E-004	...........
	13	3.61667	4.23744E-003	4.19832E-003	5.62346E-004	...........
	14	3.875	4.22345E-003	4.19070E-003	5.70712E-004	...........
	15	4.13333	4.21138E-003	4.18079E-003	5.68779E-004	...........
	16	4.39167	4.20080E-003	4.17789E-003	5.75746E-004	...........
	17	4.65	4.19174E-003	4.17492E-003	5.68712E-004	...........
	18	4.90833	4.18452E-003	4.17334E-003	5.68646E-004	...........
EOC	QUANT	0.0041845	Open Circuit (V)
PSTATMODEL	IQUANT	4	Pstat Model
PSTATSECTION	LABEL	REF600-11020	Pstat Section
PSTATSERIALNO	LABEL	11020	Pstat Serial Number
CTRLMODE	IQUANT	1	Control Mode
IESTAB	IQUANT	0	I/E Stability
CASPEED	IQUANT	1	Control Amp Speed
CONVENTION	IQUANT	1	Current Convention
ICHRANGE	IQUANT	2	Ich Range
ICHRANGEMODE	TOGGLE	F	Ich Auto Range
ICHOFFSETENABLE	TOGGLE	T	Ich Offset Enable
ICHOFFSET	QUANT	0	Ich Offset (V)
ICHFILTER	IQUANT	3	Ich Filter
VCHRANGE	IQUANT	2	Vch Range
VCHRANGEMODE	TOGGLE	F	Vch Auto Range
VCHOFFSETENABLE	TOGGLE	T	Vch Offset Enable
VCHOFFSET	QUANT	0	Vch Offset (V)
VCHFILTER	IQUANT	3	Vch Filter
ACHRANGE	IQUANT	2	Ach Range
ACHOFFSETENABLE	TOGGLE	F	Ach Offset Enable
ACHOFFSET	QUANT	0	Ach Offset (V)
ACHFILTER	IQUANT	1	Ach Filter
IERANGELOWERLIMIT	IQUANT	1	I/E Range Lower Limit
IERANGEMODE	TOGGLE	F	I/E AutoRange
IERANGE	IQUANT	5	I/E Range
POSFEEDENABLE	TOGGLE	F	Positive Feedback IR Comp
POSFEEDRESISTANCE	QUANT	0	Positive Feedback Resistance (ohm)
ACHSELECT	IQUANT	0	Ach Select
CABLEID	IQUANT	14	Cable ID
DCCALDATE	LABEL	8/19/2019	DC Calibration Date
ACCALDATE	LABEL	8/19/2019	AC Calibration Date
THERMOSELECT	IQUANT	1	Thermo Select
FRAMEWORKVERSION	QUANT	6.33	Framework Version
INSTRUMENTVERSION	LABEL	3.50	Instrument Version
ZCURVE	TABLE
	Pt	Time	Freq	Zreal	Zimag	Zsig	Zmod	Zphz	Idc	Vdc	IERange
	#	s	Hz	ohm	ohm	V	ohm	°	A	V	#
	0	2	1000078	1544.792	-1834.682	1	2398.425	-49.90281	2.26963E-006	0.0059758	8
	1	3	794390.6	1668.818	-2113.99	1	2693.307	-51.71187	8.706319E-007	0.0061722	8
	2	4	630984.4	1797.846	-2481.79	1	3064.56	-54.07986	1.264984E-006	0.00601	8
	3	6	501234.4	1949.655	-2964.986	1	3548.563	-56.67269	1.211786E-006	0.0058966	8
	4	7	398109.4	2117.572	-3537.5	1	4122.865	-59.09497	-8.483193E-007	0.0062961	8
	5	9	316265.6	2359.002	-4259.501	1	4869.111	-61.02139	-1.624717E-006	0.0063878	8
	6	10	251203.1	2656.671	-5138.128	1	5784.312	-62.65876	3.913172E-006	0.005214	8
	7	12	199546.9	3030.575	-6198.511	1	6899.705	-63.94508	3.31664E-006	0.0052503	8
	8	13	158578.1	3548.952	-7516.194	1	8311.933	-64.72453	-9.842627E-007	0.0058142	8
	9	15	125953.1	4400.85	-9022.541	1	10038.61	-63.99865	-4.846801E-007	0.0072689	7
	10	17	100078.1	5326.592	-10786.95	1	12030.41	-63.71985	7.319714E-008	0.0057164	7
	11	18	79453.13	6589.526	-12843.71	1	14435.47	-62.8397	6.182653E-008	0.0057475	7
	12	20	63140.62	8236.254	-15114.14	1	17212.58	-61.4124	-1.585843E-008	0.0057775	7
	13	21	50203.12	10347.08	-17617.71	1	20431.49	-59.5738	-7.305535E-008	0.005961	7
	14	23	39890.62	13027.11	-20271.13	1	24096.14	-57.27344	1.406943E-007	0.0056111	7
	15	25	31640.63	16339.31	-22887.24	1	28121.14	-54.47678	-8.300695E-008	0.0059326	7
	16	26	25171.88	20215.78	-25462.67	1	32511.92	-51.55261	7.334773E-008	0.0056973	7
	17	28	20015.62	25008.42	-27070.22	1	36854.01	-47.26716	-5.022678E-008	0.0058296	7
	18	29	15890.62	29466.3	-29386.7	1	41615.39	-44.92251	-1.59135E-008	0.0057671	7
	19	31	12609.37	35055.86	-30689.37	1	46591.32	-41.20027	-3.325054E-009	0.0057681	6
	20	32	10078.13	39991.82	-31770.8	1	51075.72	-38.46478	5.715622E-009	0.0055847	6
	21	34	8015.625	44971.57	-32716.13	1	55612.84	-36.03531	3.3336E-009	0.0056381	6
	22	36	6328.125	50054.99	-33867.84	1	60436.18	-34.08278	-1.053786E-008	0.00582	6
	23	37	5015.625	54891.63	-34359.35	1	64758.44	-32.04446	8.335183E-008	0.0056271	7
	24	39	3984.375	59940.23	-34977.41	1	69399.22	-30.26519	-1.120982E-008	0.0058213	6
	25	40	3170.956	64390.11	-36017.24	1	73778.91	-29.2209	-3.161868E-008	0.005785	7
	26	42	2527.573	69546.29	-37118.11	1	78831.73	-28.08965	-5.556906E-009	0.005801	6
	27	44	1976.103	74717	-38865.93	1	84221.09	-27.48233	-5.723121E-009	0.0058033	6
	28	46	1577.524	76672.88	-43457.46	1	88132.18	-29.54416	-6.197461E-009	0.005801	6
	29	47	1265.625	84913.92	-42904.85	1	95137.8	-26.80631	7.507627E-009	0.0057177	6
	30	49	998.264	91389.89	-43868.2	1	101373.2	-25.64154	1.263036E-010	0.0057026	5
	31	50	796.875	97852.2	-46980.1	1	108545.7	-25.64627	-3.960461E-010	0.00567	5
	32	51	627.7902	104474.6	-50291.73	1	115949.1	-25.70512	1.459686E-009	0.0056223	5
	33	53	505.5147	110867.1	-53683.25	1	123180.4	-25.83684	1.352894E-009	0.0053983	5
	34	54	397.9953	118715.5	-57442.96	1	131882.7	-25.82099	3.841127E-010	0.0057553	5
	35	55	315.5048	126634.6	-61369.35	1	140721.4	-25.85564	5.831488E-010	0.0057582	5
	36	57	252.4038	134678.7	-65352.12	1	149697.2	-25.88474	-7.567884E-010	0.0057521	5
	37	58	198.6229	143591.5	-70365.12	1	159905.5	-26.10655	3.404978E-010	0.0057529	5
	38	59	158.3615	152199.2	-75382.59	1	169844.4	-26.34871	4.865977E-010	0.0057537	5
	39	61	125.558	161373.3	-81169.89	1	180637.5	-26.70215	-5.608902E-010	0.0057623	5
	40	62	100.4464	170778.2	-88710.88	1	192444.3	-27.44966	1.41687E-011	0.0057556	5
	41	64	79.00281	182066.6	-98607	1	207054.6	-28.4399	6.504187E-010	0.0057553	5
	42	65	63.3446	188758.2	-122739.6	1	225154.8	-33.03386	4.300011E-010	0.0057567	5
	43	67	49.86702	202508.5	-122401.8	1	236626.1	-31.14994	2.728591E-010	0.0057513	5
	44	68	39.72458	215915.5	-137488.9	1	255974	-32.48783	2.814525E-010	0.0057561	5
	45	70	31.6723	229645.9	-153524.3	1	276237.1	-33.76377	2.612758E-010	0.0057534	5
	46	71	24.93351	248165.2	-174058.9	1	303121.3	-35.04518	1.004581E-010	0.0057498	5
	47	73	19.86229	266180.3	-197215.5	1	331279.2	-36.5351	3.605772E-010	0.005752	5
	48	74	15.83615	279290.6	-214191.2	1	351967.5	-37.48501	-1.188816E-009	0.0057535	5
	49	76	12.40079	317623	-262563.7	1	412097.2	-39.57891	7.163463E-010	0.0057564	5
	50	77	9.93114	343398.3	-291914.4	1	450706.6	-40.36704	-5.564829E-011	0.0057601	5
	51	79	7.944915	368160.4	-330734.6	1	494901.5	-41.93474	-3.615065E-010	0.0057517	5
	52	80	6.317385	407027.6	-381422.9	1	557812.6	-43.13999	2.900784E-010	0.0057622	5
	53	82	5.008013	450297.4	-438389.3	1	628452.8	-44.2323	2.582801E-010	0.0057604	5
	54	85	3.945707	504799.4	-503696.9	1	713115	-44.93736	6.344101E-010	0.0057522	6
	55	88	3.158693	561418.1	-578130.8	1	805869.4	-45.84024	6.382859E-010	0.0057638	6
	56	92	2.504006	632678.4	-661617.6	1	915434.2	-46.28087	-1.613297E-010	0.0057534	5
	57	95	1.998082	713842.3	-749768.8	1	1035241	-46.40612	2.49963E-011	0.0057068	4
	58	98	1.584686	807676.6	-851886.1	1	1173904	-46.52596	-8.501951E-011	0.0057435	4
	59	101	1.266892	914345.9	-957705	1	1324095	-46.32681	2.07507E-011	0.0057071	4
	60	106	0.999041	1039906	-1080736	1	1499798	-46.10302	7.670374E-011	0.0057894	4
