EXPLAIN
TAG	EISPOT
TITLE	LABEL	Potentiostatic EIS	Test &Identifier
DATE	LABEL	10/14/2019	Date
TIME	LABEL	9:13:34	Time
NOTES	NOTES	1	&Notes...
	
PSTAT	PSTAT	REF600-11020	Potentiostat
VDC	POTEN	0.00000E+000	T	DC &Voltage (V)
FREQINIT	QUANT	1.00000E+006	Initial Fre&q. (Hz)
FREQFINAL	QUANT	1.00000E+000	Final Fre&q. (Hz)
PTSPERDEC	QUANT	1.00000E+001	Points/&decade
VAC	QUANT	2.50000E+001	AC &Voltage (mV rms)
AREA	QUANT	1.00000E-002	&Area (cm^2)
CONDIT	TWOPARAM	T	5.00000E+000	0.00000E+000	Conditionin&g	Time(s)	E(V)
DELAY	TWOPARAM	T	5.00000E+000	0.00000E+000	Init. De&lay	Time(s)	Stab.(mV/s)
SPEED	SELECTOR	1	&Optimize for:
ZGUESS	QUANT	1.00000E+004	E&stimated Z (ohms)
OCVCURVE	TABLE	19
	Pt	T	Vf	Vm	Ach	Over
	#	s	V vs. Ref.	V	V	bits
	0	0.258333	7.68883E-003	7.68883E-003	5.75299E-004	...........
	1	0.516667	7.69382E-003	7.95038E-003	5.71466E-004	...........
	2	0.775	7.72161E-003	8.04685E-003	5.73299E-004	...........
	3	1.03333	7.79043E-003	8.13019E-003	5.65966E-004	...........
	4	1.29167	7.89580E-003	8.29548E-003	5.74032E-004	...........
	5	1.55	8.01580E-003	8.29338E-003	5.75099E-004	...........
	6	1.80833	8.13299E-003	8.52094E-003	5.79632E-004	...........
	7	2.06667	8.24564E-003	8.66634E-003	5.74532E-004	...........
	8	2.325	8.36543E-003	8.81736E-003	5.72366E-004	...........
	9	2.58333	8.50101E-003	8.95598E-003	5.67066E-004	...........
	10	2.84167	8.64773E-003	9.08974E-003	5.71932E-004	...........
	11	3.1	8.79578E-003	9.22086E-003	5.66432E-004	...........
	12	3.35833	8.93906E-003	9.34503E-003	5.67899E-004	...........
	13	3.61667	9.07657E-003	9.50067E-003	5.67399E-004	...........
	14	3.875	9.21203E-003	9.67758E-003	5.71899E-004	...........
	15	4.13333	9.35128E-003	9.78624E-003	5.71432E-004	...........
	16	4.39167	9.49321E-003	9.80288E-003	5.71699E-004	...........
	17	4.65	9.62482E-003	9.91491E-003	5.73432E-004	...........
	18	4.90833	9.73547E-003	1.00508E-002	5.68799E-004	...........
EOC	QUANT	0.0097355	Open Circuit (V)
PSTATMODEL	IQUANT	4	Pstat Model
PSTATSECTION	LABEL	REF600-11020	Pstat Section
PSTATSERIALNO	LABEL	11020	Pstat Serial Number
CTRLMODE	IQUANT	1	Control Mode
IESTAB	IQUANT	0	I/E Stability
CASPEED	IQUANT	1	Control Amp Speed
CONVENTION	IQUANT	1	Current Convention
ICHRANGE	IQUANT	2	Ich Range
ICHRANGEMODE	TOGGLE	F	Ich Auto Range
ICHOFFSETENABLE	TOGGLE	T	Ich Offset Enable
ICHOFFSET	QUANT	0	Ich Offset (V)
ICHFILTER	IQUANT	3	Ich Filter
VCHRANGE	IQUANT	2	Vch Range
VCHRANGEMODE	TOGGLE	F	Vch Auto Range
VCHOFFSETENABLE	TOGGLE	T	Vch Offset Enable
VCHOFFSET	QUANT	0	Vch Offset (V)
VCHFILTER	IQUANT	3	Vch Filter
ACHRANGE	IQUANT	2	Ach Range
ACHOFFSETENABLE	TOGGLE	F	Ach Offset Enable
ACHOFFSET	QUANT	0	Ach Offset (V)
ACHFILTER	IQUANT	3	Ach Filter
IERANGELOWERLIMIT	IQUANT	1	I/E Range Lower Limit
IERANGEMODE	TOGGLE	F	I/E AutoRange
IERANGE	IQUANT	6	I/E Range
POSFEEDENABLE	TOGGLE	F	Positive Feedback IR Comp
POSFEEDRESISTANCE	QUANT	0	Positive Feedback Resistance (ohm)
ACHSELECT	IQUANT	0	Ach Select
CABLEID	IQUANT	14	Cable ID
DCCALDATE	LABEL	8/19/2019	DC Calibration Date
ACCALDATE	LABEL	8/19/2019	AC Calibration Date
THERMOSELECT	IQUANT	1	Thermo Select
FRAMEWORKVERSION	QUANT	6.33	Framework Version
INSTRUMENTVERSION	LABEL	3.50	Instrument Version
ZCURVE	TABLE
	Pt	Time	Freq	Zreal	Zimag	Zsig	Zmod	Zphz	Idc	Vdc	IERange
	#	s	Hz	ohm	ohm	V	ohm	°	A	V	#
	0	2	1000078	1961.902	-757.7576	1	2103.154	-21.11837	-1.667649E-006	0.0129156	8
	1	3	794390.6	2070.459	-661.4977	1	2173.564	-17.71833	3.627363E-006	0.0111513	8
	2	4	630984.4	2156.61	-575.9597	1	2232.195	-14.95284	-2.019902E-006	0.011797	8
	3	6	501234.4	2229.225	-496.5796	1	2283.864	-12.5581	-8.421153E-010	0.0115861	8
	4	7	398109.4	2272.906	-420.4844	1	2311.473	-10.48114	2.458999E-006	0.0109061	8
	5	8	316265.6	2307.819	-365.131	1	2336.525	-8.990516	-3.244739E-007	0.0113303	8
	6	10	251203.1	2338.752	-320.6145	1	2360.626	-7.805898	2.341585E-006	0.0108642	8
	7	11	199546.9	2362.522	-279.0665	1	2378.947	-6.736692	-1.885418E-006	0.0116844	8
	8	12	158578.1	2386.725	-254.1706	1	2400.221	-6.078714	-2.340117E-006	0.0116748	8
	9	14	125953.1	2417.063	-210.7744	1	2426.235	-4.983739	-1.221037E-006	0.0138045	7
	10	15	100078.1	2432.267	-193.0768	1	2439.919	-4.538702	-1.131665E-008	0.0113472	7
	11	16	79453.13	2449.22	-191.9022	1	2456.727	-4.480106	5.822563E-008	0.0112772	7
	12	18	63140.62	2468.376	-195.2628	1	2476.087	-4.523008	-3.974241E-008	0.0113835	7
	13	19	50203.12	2488.369	-201.4548	1	2496.511	-4.62849	2.168006E-008	0.0112825	7
	14	21	39890.62	2509.74	-211.0638	1	2518.599	-4.807142	3.465847E-008	0.0111907	7
	15	22	31640.63	2531.386	-223.903	1	2541.269	-5.054699	-1.890982E-008	0.0114257	7
	16	23	25171.88	2553.959	-240.9148	1	2565.297	-5.388762	7.678226E-009	0.0112454	7
	17	25	20015.62	2576.196	-262.612	1	2589.547	-5.820506	-7.731696E-009	0.0113284	7
	18	26	15890.62	2600.822	-291.8705	1	2617.147	-6.403081	-1.879265E-009	0.0113121	7
	19	27	12609.37	2625.592	-328.6174	1	2646.077	-7.134006	-1.045859E-008	0.0112748	7
	20	29	10078.13	2650.856	-373.3838	1	2677.023	-8.017598	-2.056773E-008	0.0114223	7
	21	30	8015.625	2673.81	-431.687	1	2708.434	-9.17127	-1.680059E-010	0.0113076	7
	22	32	6328.125	2708.627	-501.6308	1	2754.686	-10.49216	7.534601E-009	0.0112408	7
	23	33	5015.625	2740.964	-589.6165	1	2803.664	-12.14006	-2.022697E-008	0.0114227	7
	24	34	3984.375	2778.651	-695.1642	1	2864.29	-14.04597	2.099112E-008	0.0112784	7
	25	36	3170.956	2815.109	-828.5283	1	2934.501	-16.39994	6.249056E-008	0.0111787	7
	26	37	2527.573	2857.794	-989.795	1	3024.348	-19.10349	-8.281622E-009	0.0113297	7
	27	38	1976.103	2908.305	-1206.202	1	3148.518	-22.52593	-1.973944E-008	0.0114179	7
	28	40	1577.524	2960.516	-1454.867	1	3298.681	-26.17058	5.325964E-008	0.0112077	7
	29	41	1265.625	3020.27	-1750.348	1	3490.809	-30.09373	-4.250656E-008	0.0114173	7
	30	43	998.264	3094.204	-2142.365	1	3763.486	-34.69796	8.509061E-009	0.0112424	7
	31	44	796.875	3177.071	-2609.9	1	4111.613	-39.40242	-3.279901E-008	0.0113351	7
	32	45	627.7902	3286.344	-3220.112	1	4600.997	-44.41678	5.46195E-008	0.011203	7
	33	47	505.5147	3404.627	-3904.26	1	5180.225	-48.91064	-1.837984E-008	0.0114171	7
	34	48	397.9953	3572.578	-4834.25	1	6011.098	-53.53508	3.178701E-009	0.0113095	7
	35	49	315.5048	3777.424	-5951.022	1	7048.66	-57.59457	2.261984E-009	0.0113052	7
	36	51	252.4038	4029.749	-7269.359	1	8311.586	-60.99833	3.433213E-009	0.0113051	7
	37	52	198.6229	4379.119	-9009.954	1	10017.78	-64.0788	2.777846E-009	0.0113038	7
	38	53	158.3615	4808.821	-11031.92	1	12034.45	-66.44758	8.959584E-010	0.0112382	6
	39	55	125.558	5386.715	-13562.15	1	14592.76	-68.33765	3.911541E-010	0.0112425	6
	40	56	100.4464	6115.405	-16528.96	1	17623.98	-69.69648	5.865793E-010	0.0112389	6
	41	58	79.00281	7118.083	-20360.69	1	21569.07	-70.73041	5.879485E-010	0.0112408	6
	42	59	63.3446	8196.922	-24683.3	1	26008.75	-71.62952	2.716884E-010	0.0112406	6
	43	60	49.86702	10129.74	-30193.88	1	31847.79	-71.45393	-5.148296E-010	0.0112396	6
	44	62	39.72458	12275.49	-36701.66	1	38700.13	-71.50661	-4.856018E-011	0.0112447	6
	45	63	31.6723	15066.34	-44266.63	1	46760.34	-71.20377	4.356251E-010	0.0112405	6
	46	64	24.93351	18791.88	-53764.7	1	56954.17	-70.73442	1.17429E-009	0.0112395	6
	47	66	19.86229	23255.45	-64391.91	1	68462.65	-70.14257	-4.507599E-010	0.0112407	6
	48	67	15.83615	29234.17	-76835.39	1	82208.97	-69.16928	8.444479E-011	0.0112384	6
	49	69	12.40079	36408.99	-92260.2	1	99184.5	-68.46413	-1.528265E-010	0.0112442	6
	50	70	9.93114	45061.52	-108659	1	117632.1	-67.47592	5.331143E-010	0.0112424	5
	51	72	7.944915	55866.1	-127702.6	1	139387.8	-66.37204	3.935789E-010	0.0112496	5
	52	73	6.317385	68612.2	-150336.3	1	165253.3	-65.46846	-4.548779E-010	0.0112511	5
	53	75	5.008013	84700.62	-176527.1	1	195795.9	-64.36755	-3.178492E-010	0.0112352	5
	54	78	3.945707	104703.7	-206862.5	1	231851.2	-63.15369	2.887285E-010	0.0112424	5
	55	81	3.158693	126736.2	-239402.9	1	270879.7	-62.10396	-2.977231E-010	0.0112216	5
	56	84	2.504006	153592.9	-277224.9	1	316929.7	-61.01191	3.907516E-010	0.0112467	5
	57	87	1.998082	183589.7	-318284.2	1	367437	-60.02319	2.867571E-010	0.011251	5
	58	90	1.584686	219608.5	-365707.7	1	426579.4	-59.01506	-2.194534E-010	0.0111916	5
	59	93	1.266892	256811.8	-417051.6	1	489779.9	-58.37609	1.841065E-010	0.0112326	5
	60	98	0.999041	301176.8	-482153	1	568488.4	-58.00905	-4.79677E-010	0.011237	5
