EXPLAIN
TAG	EISPOT
TITLE	LABEL	Potentiostatic IDE	Test &Identifier
DATE	LABEL	9/10/2019	Date
TIME	LABEL	8:37:51	Time
NOTES	NOTES	1	&Notes...
	
PSTAT	PSTAT	REF600-11020	Potentiostat
VDC	POTEN	0.00000E+000	T	DC &Voltage (V)
FREQINIT	QUANT	1.00000E+006	Initial Fre&q. (Hz)
FREQFINAL	QUANT	1.00000E+000	Final Fre&q. (Hz)
PTSPERDEC	QUANT	1.00000E+001	Points/&decade
VAC	QUANT	2.50000E+001	AC &Voltage (mV rms)
AREA	QUANT	1.00000E-002	&Area (cm^2)
CONDIT	TWOPARAM	T	5.00000E+000	0.00000E+000	Conditionin&g	Time(s)	E(V)
DELAY	TWOPARAM	T	5.00000E+000	0.00000E+000	Init. De&lay	Time(s)	Stab.(mV/s)
SPEED	SELECTOR	1	&Optimize for:
ZGUESS	QUANT	1.00000E+007	E&stimated Z (ohms)
OCVCURVE	TABLE	19
	Pt	T	Vf	Vm	Ach	Over
	#	s	V vs. Ref.	V	V	bits
	0	0.258333	3.52091E-003	3.52091E-003	5.77232E-004	...........
	1	0.516667	3.51948E-003	3.44610E-003	5.74632E-004	...........
	2	0.775	3.51084E-003	3.38239E-003	5.77932E-004	...........
	3	1.03333	3.48700E-003	3.32844E-003	5.78432E-004	...........
	4	1.29167	3.44578E-003	3.27412E-003	5.81365E-004	...........
	5	1.55	3.39343E-003	3.24072E-003	5.78799E-004	...........
	6	1.80833	3.33911E-003	3.20515E-003	5.79899E-004	...........
	7	2.06667	3.28939E-003	3.17149E-003	5.81032E-004	...........
	8	2.325	3.24636E-003	3.13961E-003	5.82032E-004	...........
	9	2.58333	3.20892E-003	3.11362E-003	5.79332E-004	...........
	10	2.84167	3.17537E-003	3.08738E-003	5.80399E-004	...........
	11	3.1	3.14468E-003	3.05841E-003	5.82499E-004	...........
	12	3.35833	3.11614E-003	3.03955E-003	5.83199E-004	...........
	13	3.61667	3.08937E-003	3.01905E-003	5.79365E-004	...........
	14	3.875	3.06455E-003	2.99732E-003	5.76399E-004	...........
	15	4.13333	3.04173E-003	2.98089E-003	5.75465E-004	...........
	16	4.39167	3.02062E-003	2.96321E-003	5.80232E-004	...........
	17	4.65	3.00093E-003	2.94651E-003	5.79699E-004	...........
	18	4.90833	2.98242E-003	2.92790E-003	5.80799E-004	...........
EOC	QUANT	0.0029824	Open Circuit (V)
PSTATMODEL	IQUANT	4	Pstat Model
PSTATSECTION	LABEL	REF600-11020	Pstat Section
PSTATSERIALNO	LABEL	11020	Pstat Serial Number
CTRLMODE	IQUANT	1	Control Mode
IESTAB	IQUANT	0	I/E Stability
CASPEED	IQUANT	1	Control Amp Speed
CONVENTION	IQUANT	1	Current Convention
ICHRANGE	IQUANT	2	Ich Range
ICHRANGEMODE	TOGGLE	F	Ich Auto Range
ICHOFFSETENABLE	TOGGLE	T	Ich Offset Enable
ICHOFFSET	QUANT	0	Ich Offset (V)
ICHFILTER	IQUANT	3	Ich Filter
VCHRANGE	IQUANT	2	Vch Range
VCHRANGEMODE	TOGGLE	F	Vch Auto Range
VCHOFFSETENABLE	TOGGLE	T	Vch Offset Enable
VCHOFFSET	QUANT	0	Vch Offset (V)
VCHFILTER	IQUANT	3	Vch Filter
ACHRANGE	IQUANT	2	Ach Range
ACHOFFSETENABLE	TOGGLE	F	Ach Offset Enable
ACHOFFSET	QUANT	0	Ach Offset (V)
ACHFILTER	IQUANT	3	Ach Filter
IERANGELOWERLIMIT	IQUANT	1	I/E Range Lower Limit
IERANGEMODE	TOGGLE	F	I/E AutoRange
IERANGE	IQUANT	2	I/E Range
POSFEEDENABLE	TOGGLE	F	Positive Feedback IR Comp
POSFEEDRESISTANCE	QUANT	0	Positive Feedback Resistance (ohm)
ACHSELECT	IQUANT	0	Ach Select
CABLEID	IQUANT	14	Cable ID
DCCALDATE	LABEL	8/19/2019	DC Calibration Date
ACCALDATE	LABEL	8/19/2019	AC Calibration Date
THERMOSELECT	IQUANT	1	Thermo Select
FRAMEWORKVERSION	QUANT	6.33	Framework Version
INSTRUMENTVERSION	LABEL	3.50	Instrument Version
ZCURVE	TABLE
	Pt	Time	Freq	Zreal	Zimag	Zsig	Zmod	Zphz	Idc	Vdc	IERange
	#	s	Hz	ohm	ohm	V	ohm	°	A	V	#
	0	2	1000078	2131.918	-778.4114	1	2269.581	-20.05828	9.952753E-007	0.0059637	8
	1	4	794390.6	2247.344	-686.5883	1	2349.885	-16.98848	-9.836053E-007	0.0049404	8
	2	5	630984.4	2338.225	-589.3561	1	2411.356	-14.14689	4.799487E-008	0.0049656	8
	3	6	501234.4	2402.354	-507.4146	1	2455.356	-11.92647	1.972106E-006	0.0043663	8
	4	8	398109.4	2447.881	-434.7644	1	2486.19	-10.07119	-6.883659E-008	0.0047608	8
	5	9	316265.6	2480.703	-373.561	1	2508.672	-8.563642	3.369855E-006	0.0040734	8
	6	10	251203.1	2519.644	-328.5548	1	2540.975	-7.429296	-1.69794E-007	0.0047824	8
	7	12	199546.9	2544.26	-291.6181	1	2560.918	-6.538597	1.101071E-007	0.0047392	8
	8	13	158578.1	2565.493	-262.1056	1	2578.847	-5.833428	1.114266E-007	0.0047009	8
	9	14	125953.1	2594.575	-216.3557	1	2603.58	-4.766737	-4.811783E-009	0.0047942	7
	10	16	100078.1	2608.156	-202.8782	1	2616.035	-4.447856	-4.690587E-009	0.0045553	7
	11	17	79453.13	2625.539	-201.1959	1	2633.236	-4.38203	-1.925051E-008	0.0045777	7
	12	18	63140.62	2645.089	-203.6453	1	2652.917	-4.402515	-1.506858E-008	0.0046415	7
	13	20	50203.12	2665.282	-208.6942	1	2673.44	-4.477181	2.73028E-008	0.0045616	7
	14	21	39890.62	2687.115	-216.7242	1	2695.841	-4.611103	-2.019429E-008	0.0045689	7
	15	22	31640.63	2710.325	-229.1282	1	2719.993	-4.83224	8.398766E-009	0.0045642	7
	16	24	25171.88	2733.385	-245.2654	1	2744.367	-5.127392	-4.510069E-008	0.0046413	7
	17	25	20015.62	2758.663	-265.3943	1	2771.4	-5.495169	-1.329795E-008	0.0046145	7
	18	26	15890.62	2785.207	-290.5325	1	2800.319	-5.955142	5.01717E-008	0.0045036	7
	19	28	12609.37	2812.967	-322.6999	1	2831.416	-6.54429	8.643908E-008	0.0044672	7
	20	29	10078.13	2841.213	-360.4336	1	2863.984	-7.22987	-1.35964E-008	0.0046318	7
	21	30	8015.625	2873.254	-406.2986	1	2901.839	-8.048668	-1.740315E-008	0.0045689	7
	22	32	6328.125	2907.62	-464.1345	1	2944.431	-9.069435	3.288024E-008	0.0044799	7
	23	33	5015.625	2944.027	-535.3729	1	2992.31	-10.30664	-1.405429E-008	0.0046219	7
	24	34	3984.375	2984.076	-621.3193	1	3048.073	-11.7616	-4.758697E-008	0.0046631	7
	25	36	3170.956	3025.94	-724.6816	1	3111.507	-13.46809	3.092215E-008	0.004478	7
	26	37	2527.573	3072.708	-851.4375	1	3188.492	-15.48788	-2.965234E-009	0.0045415	7
	27	38	1976.103	3129.157	-1020.105	1	3291.236	-18.05597	9.368566E-010	0.0046556	7
	28	40	1577.524	3188.896	-1209.28	1	3410.486	-20.76752	-8.084692E-009	0.0045817	7
	29	41	1265.625	3253.382	-1435.104	1	3555.843	-23.80282	8.74127E-008	0.0044576	7
	30	42	998.264	3333.775	-1731.56	1	3756.641	-27.44733	-2.59488E-008	0.0046309	7
	31	44	796.875	3421.831	-2075.381	1	4002.016	-31.23731	-4.438651E-008	0.0046326	7
	32	45	627.7902	3528.913	-2522.735	1	4337.905	-35.56006	5.12614E-008	0.0044935	7
	33	46	505.5147	3640.466	-3021.328	1	4730.9	-39.69026	-5.54646E-008	0.0046412	7
	34	48	397.9953	3787.171	-3697.495	1	5292.838	-44.31356	4.605992E-009	0.0046028	7
	35	49	315.5048	3957.024	-4509.76	1	5999.664	-48.73513	5.225019E-009	0.0046084	7
	36	50	252.4038	4154.353	-5467.307	1	6866.592	-52.77048	5.504209E-009	0.0046001	7
	37	52	198.6229	4418.125	-6735.839	1	8055.517	-56.7386	5.501093E-009	0.0045969	7
	38	53	158.3615	4733.576	-8213.423	1	9479.824	-60.04421	5.229331E-009	0.0045971	7
	39	54	125.558	5142.335	-10067.82	1	11305.07	-62.94344	1.053852E-009	0.0045438	6
	40	56	100.4464	5651.737	-12243.27	1	13484.8	-65.22102	1.433564E-009	0.0045428	6
	41	57	79.00281	6349.409	-15112.14	1	16391.82	-67.21015	1.487817E-009	0.0045382	6
	42	58	63.3446	7243.486	-18278.31	1	19661.25	-68.38214	1.000872E-009	0.004537	6
	43	60	49.86702	8361.922	-22524.5	1	24026.54	-69.63322	6.521342E-010	0.0045364	6
	44	61	39.72458	9879.78	-27312.1	1	29044.12	-70.1131	1.378377E-009	0.0045409	6
	45	62	31.6723	11773.9	-33072.11	1	35105.4	-70.40392	1.365654E-009	0.0045408	6
	46	64	24.93351	14427.62	-40308.05	1	42812.32	-70.30598	6.298472E-010	0.0045453	6
	47	65	19.86229	17649.4	-48502.92	1	51614.29	-70.00439	2.872245E-010	0.0045413	6
	48	66	15.83615	21704.18	-58093.48	1	62015.51	-69.51392	5.118637E-010	0.0045423	6
	49	68	12.40079	27379.21	-70122.24	1	75277.82	-68.67186	1.452952E-009	0.004544	6
	50	69	9.93114	33620.97	-82826.21	1	89389.88	-67.90669	2.607692E-010	0.0045477	6
	51	71	7.944915	41290.49	-97588.3	1	105964.1	-67.06635	5.042909E-010	0.0045439	5
	52	72	6.317385	50949.51	-115007.3	1	125787.6	-66.10612	2.885266E-010	0.0045504	5
	53	74	5.008013	62496.83	-135262.2	1	149002.4	-65.20107	1.387682E-011	0.0045407	5
	54	77	3.945707	76737.93	-159006.7	1	176555.5	-64.23767	9.335955E-010	0.0045543	5
	55	79	3.158693	92627.39	-185034.8	1	206924.4	-63.40771	-1.775915E-010	0.0045414	5
	56	82	2.504006	112234.4	-215398.5	1	242884.9	-62.47802	7.792956E-010	0.0045483	5
	57	85	1.998082	134068.1	-249076.6	1	282866.4	-61.70816	-6.629979E-011	0.0045845	5
	58	88	1.584686	160363.2	-288924.9	1	330445.1	-60.96822	3.452155E-010	0.0046	5
	59	92	1.266892	188937.1	-332179.5	1	382152.4	-60.36964	-1.745284E-010	0.0045729	5
	60	96	0.999041	223187	-384788.5	1	444831	-59.88519	4.849653E-010	0.0045628	5
