EXPLAIN
TAG	EISPOT
TITLE	LABEL	Potentiostatic EIS	Test &Identifier
DATE	LABEL	10/22/2019	Date
TIME	LABEL	10:00:13	Time
NOTES	NOTES	1	&Notes...
	
PSTAT	PSTAT	REF600-11020	Potentiostat
VDC	POTEN	0.00000E+000	T	DC &Voltage (V)
FREQINIT	QUANT	1.00000E+006	Initial Fre&q. (Hz)
FREQFINAL	QUANT	1.00000E+000	Final Fre&q. (Hz)
PTSPERDEC	QUANT	1.00000E+001	Points/&decade
VAC	QUANT	2.50000E+001	AC &Voltage (mV rms)
AREA	QUANT	1.00000E-002	&Area (cm^2)
CONDIT	TWOPARAM	T	5.00000E+000	0.00000E+000	Conditionin&g	Time(s)	E(V)
DELAY	TWOPARAM	T	5.00000E+000	0.00000E+000	Init. De&lay	Time(s)	Stab.(mV/s)
SPEED	SELECTOR	1	&Optimize for:
ZGUESS	QUANT	1.00000E+005	E&stimated Z (ohms)
OCVCURVE	TABLE	19
	Pt	T	Vf	Vm	Ach	Over
	#	s	V vs. Ref.	V	V	bits
	0	0.258333	4.05362E-003	4.05362E-003	5.76099E-004	...........
	1	0.516667	4.04997E-003	3.86225E-003	5.71099E-004	...........
	2	0.775	4.02771E-003	3.69091E-003	5.78199E-004	...........
	3	1.03333	3.96590E-003	3.55317E-003	5.71599E-004	...........
	4	1.29167	3.85885E-003	3.42560E-003	5.74032E-004	...........
	5	1.55	3.72330E-003	3.31372E-003	5.74232E-004	...........
	6	1.80833	3.58214E-003	3.20693E-003	5.74899E-004	...........
	7	2.06667	3.44970E-003	3.11905E-003	5.73366E-004	...........
	8	2.325	3.33076E-003	3.03301E-003	5.70499E-004	...........
	9	2.58333	3.22531E-003	2.97266E-003	5.68399E-004	...........
	10	2.84167	3.13190E-003	2.87910E-003	5.68899E-004	...........
	11	3.1	3.04648E-003	2.75207E-003	5.71566E-004	...........
	12	3.35833	2.96243E-003	2.72732E-003	5.71499E-004	...........
	13	3.61667	2.87839E-003	2.69435E-003	5.74032E-004	...........
	14	3.875	2.80182E-003	2.62420E-003	5.75966E-004	...........
	15	4.13333	2.73816E-003	2.58338E-003	5.75932E-004	...........
	16	4.39167	2.68379E-003	2.51579E-003	5.76299E-004	...........
	17	4.65	2.63179E-003	2.45249E-003	5.72966E-004	...........
	18	4.90833	2.57849E-003	2.44417E-003	5.69732E-004	...........
EOC	QUANT	0.0025785	Open Circuit (V)
PSTATMODEL	IQUANT	4	Pstat Model
PSTATSECTION	LABEL	REF600-11020	Pstat Section
PSTATSERIALNO	LABEL	11020	Pstat Serial Number
CTRLMODE	IQUANT	1	Control Mode
IESTAB	IQUANT	0	I/E Stability
CASPEED	IQUANT	1	Control Amp Speed
CONVENTION	IQUANT	1	Current Convention
ICHRANGE	IQUANT	2	Ich Range
ICHRANGEMODE	TOGGLE	F	Ich Auto Range
ICHOFFSETENABLE	TOGGLE	T	Ich Offset Enable
ICHOFFSET	QUANT	0	Ich Offset (V)
ICHFILTER	IQUANT	3	Ich Filter
VCHRANGE	IQUANT	2	Vch Range
VCHRANGEMODE	TOGGLE	F	Vch Auto Range
VCHOFFSETENABLE	TOGGLE	T	Vch Offset Enable
VCHOFFSET	QUANT	0	Vch Offset (V)
VCHFILTER	IQUANT	3	Vch Filter
ACHRANGE	IQUANT	2	Ach Range
ACHOFFSETENABLE	TOGGLE	F	Ach Offset Enable
ACHOFFSET	QUANT	0	Ach Offset (V)
ACHFILTER	IQUANT	3	Ach Filter
IERANGELOWERLIMIT	IQUANT	1	I/E Range Lower Limit
IERANGEMODE	TOGGLE	F	I/E AutoRange
IERANGE	IQUANT	4	I/E Range
POSFEEDENABLE	TOGGLE	F	Positive Feedback IR Comp
POSFEEDRESISTANCE	QUANT	0	Positive Feedback Resistance (ohm)
ACHSELECT	IQUANT	0	Ach Select
CABLEID	IQUANT	14	Cable ID
DCCALDATE	LABEL	8/19/2019	DC Calibration Date
ACCALDATE	LABEL	8/19/2019	AC Calibration Date
THERMOSELECT	IQUANT	1	Thermo Select
FRAMEWORKVERSION	QUANT	6.33	Framework Version
INSTRUMENTVERSION	LABEL	3.50	Instrument Version
ZCURVE	TABLE
	Pt	Time	Freq	Zreal	Zimag	Zsig	Zmod	Zphz	Idc	Vdc	IERange
	#	s	Hz	ohm	ohm	V	ohm	°	A	V	#
	0	2	1000078	2033.109	-854.0564	1	2205.208	-22.78601	7.211878E-006	0.0039426	8
	1	3	794390.6	2155.265	-779.032	1	2291.737	-19.87266	-8.093253E-007	0.0041879	8
	2	5	630984.4	2258.569	-702.0157	1	2365.156	-17.26646	-3.099143E-006	0.0049438	8
	3	6	501234.4	2352.292	-638.7975	1	2437.486	-15.19306	1.923018E-006	0.0039538	8
	4	7	398109.4	2420.488	-573.029	1	2487.393	-13.31905	-7.540214E-007	0.0041457	8
	5	9	316265.6	2482.787	-525.0385	1	2537.695	-11.9405	2.036104E-006	0.0035581	8
	6	10	251203.1	2536.697	-487.5012	1	2583.116	-10.87845	6.37586E-007	0.0040046	8
	7	12	199546.9	2585.306	-459.6003	1	2625.841	-10.08039	8.930043E-007	0.0039362	8
	8	13	158578.1	2628.52	-439.9109	1	2665.078	-9.50101	2.974186E-006	0.0033783	8
	9	14	125953.1	2687.487	-399.8914	1	2717.075	-8.463374	-5.63778E-007	0.0055983	7
	10	16	100078.1	2727.844	-403.5427	1	2757.531	-8.415001	-7.372113E-009	0.0040417	7
	11	17	79453.13	2771.092	-422.0655	1	2803.051	-8.660172	-3.791702E-008	0.0040299	7
	12	18	63140.62	2818.401	-447.337	1	2853.68	-9.018764	-3.895457E-008	0.0040319	7
	13	20	50203.12	2870.751	-476.5889	1	2910.042	-9.426013	2.073329E-008	0.0039279	7
	14	21	39890.62	2927.971	-511.774	1	2972.361	-9.91446	3.921604E-009	0.0039838	7
	15	22	31640.63	2989.32	-552.9954	1	3040.039	-10.48068	-4.753227E-008	0.0041277	7
	16	24	25171.88	3055.362	-599.8815	1	3113.695	-11.108	7.91647E-008	0.0038526	7
	17	25	20015.62	3124.125	-654.8443	1	3192.018	-11.83832	2.371653E-008	0.0040816	7
	18	27	15890.62	3200.138	-716.0798	1	3279.277	-12.61303	1.05598E-007	0.0038573	7
	19	28	12609.37	3278.287	-789.9902	1	3372.128	-13.54862	2.309293E-008	0.0040791	7
	20	29	10078.13	3358.407	-873.32	1	3470.099	-14.57636	-3.698551E-008	0.0040247	7
	21	31	8015.625	3456.413	-974.681	1	3591.211	-15.74803	-1.486527E-008	0.003984	7
	22	32	6328.125	3542.028	-1103.503	1	3709.944	-17.3042	-2.068259E-009	0.0040185	7
	23	33	5015.625	3644.085	-1253.318	1	3853.591	-18.97974	-4.634461E-008	0.0040335	7
	24	35	3984.375	3750.858	-1445.097	1	4019.607	-21.07023	-7.956549E-009	0.0040614	7
	25	36	3170.956	3873.427	-1644.375	1	4208.017	-23.00254	-1.299317E-008	0.0039809	7
	26	37	2527.573	4001.915	-1897.137	1	4428.821	-25.36363	-4.558201E-008	0.0041256	7
	27	39	1976.103	4153.229	-2228.651	1	4713.406	-28.21831	4.752969E-009	0.0039813	7
	28	40	1577.524	4321.012	-2580.498	1	5032.903	-30.84555	-4.171587E-008	0.0040686	7
	29	42	1265.625	4462.393	-3039.463	1	5399.192	-34.25989	4.270814E-008	0.0038843	7
	30	43	998.264	4647.719	-3622.506	1	5892.694	-37.93342	-4.62814E-008	0.0040932	7
	31	44	796.875	4845.727	-4300.172	1	6478.623	-41.58634	-3.768017E-008	0.004019	7
	32	46	627.7902	5085.298	-5193.505	1	7268.614	-45.60314	-3.672654E-009	0.0040456	7
	33	47	505.5147	5323.542	-6200.669	1	8172.417	-49.35249	-9.301773E-009	0.0040171	7
	34	48	397.9953	5667.49	-7559.846	1	9448.371	-53.14172	4.467295E-009	0.0040285	7
	35	50	315.5048	6077.983	-9196.137	1	11023.19	-56.53817	1.021145E-009	0.0039637	6
	36	51	252.4038	6571.239	-11122.12	1	12918.31	-59.4243	5.624819E-010	0.0039635	6
	37	53	198.6229	7251.125	-13654.06	1	15460.02	-62.02902	6.677909E-010	0.0039682	6
	38	54	158.3615	8093.041	-16571.15	1	18441.81	-63.96997	1.289121E-009	0.0039702	6
	39	55	125.558	9215.365	-20192.52	1	22195.97	-65.46922	6.68599E-010	0.0039686	6
	40	57	100.4464	10646.3	-24394.51	1	26616.45	-66.42249	6.582072E-010	0.0039674	6
	41	58	79.00281	12597.33	-29733.55	1	32292.05	-67.0389	1.144142E-010	0.0039652	6
	42	59	63.3446	15226.39	-35332.08	1	38473.36	-66.68633	1.641631E-010	0.0039658	6
	43	61	49.86702	18536.69	-43324.65	1	47123.61	-66.83607	-2.351069E-010	0.003965	6
	44	62	39.72458	22680.64	-51370.75	1	56154.84	-66.17812	4.071609E-010	0.0039696	6
	45	64	31.6723	27950.5	-60581.41	1	66718.34	-65.23277	6.372133E-010	0.0039684	6
	46	65	24.93351	35129.87	-72011.41	1	80123.34	-63.99514	7.138942E-013	0.0039656	6
	47	66	19.86229	43517.02	-83942.75	1	94552.19	-62.59719	-2.884956E-010	0.0039692	6
	48	68	15.83615	53486.71	-97180.4	1	110927.2	-61.17223	7.966143E-010	0.0039751	5
	49	69	12.40079	65590.59	-112241.6	1	130001.2	-59.69929	3.050563E-010	0.0039784	5
	50	71	9.93114	79848.38	-127065.1	1	150071	-57.85454	6.190636E-010	0.0039729	5
	51	72	7.944915	94320.38	-142769.2	1	171112.2	-56.54928	-5.517068E-010	0.0039755	5
	52	74	6.317385	110826.6	-161281.8	1	195689.4	-55.50464	1.043955E-010	0.0039637	5
	53	76	5.008013	128239.8	-181985.3	1	222630	-54.82874	4.09148E-011	0.0039795	5
	54	78	3.945707	146933.7	-206843.1	1	253719.5	-54.61142	-1.619808E-010	0.0039698	5
	55	81	3.158693	165307.8	-234360.2	1	286795.1	-54.80247	3.180571E-010	0.003981	5
	56	84	2.504006	185657.5	-269210.2	1	327021.2	-55.40839	-2.565551E-010	0.0039738	5
	57	87	1.998082	207022	-309973.5	1	372748.8	-56.26223	3.158906E-011	0.0039307	5
	58	90	1.584686	231419	-360507	1	428392.4	-57.30252	6.173178E-011	0.004002	5
	59	94	1.266892	258471.5	-421652.1	1	494568.5	-58.49183	-2.833665E-011	0.0039461	5
	60	98	0.999041	292962.5	-499199.8	1	578815.6	-59.59286	2.790282E-010	0.0040043	5
