EXPLAIN
TAG	EISPOT
TITLE	LABEL	Potentiostatic EIS	Test &Identifier
DATE	LABEL	11/5/2019	Date
TIME	LABEL	9:24:28	Time
NOTES	NOTES	2	&Notes...
	
	
PSTAT	PSTAT	REF600-11020	Potentiostat
VDC	POTEN	0.00000E+000	T	DC &Voltage (V)
FREQINIT	QUANT	1.00000E+006	Initial Fre&q. (Hz)
FREQFINAL	QUANT	1.00000E+000	Final Fre&q. (Hz)
PTSPERDEC	QUANT	1.00000E+001	Points/&decade
VAC	QUANT	2.50000E+001	AC &Voltage (mV rms)
AREA	QUANT	1.00000E-002	&Area (cm^2)
CONDIT	TWOPARAM	T	5.00000E+000	0.00000E+000	Conditionin&g	Time(s)	E(V)
DELAY	TWOPARAM	T	5.00000E+000	0.00000E+000	Init. De&lay	Time(s)	Stab.(mV/s)
SPEED	SELECTOR	1	&Optimize for:
ZGUESS	QUANT	1.00000E+005	E&stimated Z (ohms)
OCVCURVE	TABLE	19
	Pt	T	Vf	Vm	Ach	Over
	#	s	V vs. Ref.	V	V	bits
	0	0.258333	4.05832E-003	4.05832E-003	5.81499E-004	...........
	1	0.516667	4.05296E-003	3.77784E-003	5.85532E-004	...........
	2	0.775	4.02214E-003	3.62105E-003	5.85032E-004	...........
	3	1.03333	3.94206E-003	3.48001E-003	5.81999E-004	...........
	4	1.29167	3.81259E-003	3.32389E-003	5.85032E-004	...........
	5	1.55	3.65728E-003	3.19495E-003	5.80599E-004	...........
	6	1.80833	3.49855E-003	3.03304E-003	5.81899E-004	...........
	7	2.06667	3.34632E-003	2.95660E-003	5.86565E-004	...........
	8	2.325	3.20354E-003	2.79768E-003	5.80965E-004	...........
	9	2.58333	3.06958E-003	2.65559E-003	5.83199E-004	...........
	10	2.84167	2.93947E-003	2.54336E-003	5.80432E-004	...........
	11	3.1	2.80987E-003	2.46194E-003	5.79132E-004	...........
	12	3.35833	2.68530E-003	2.38577E-003	5.80532E-004	...........
	13	3.61667	2.57348E-003	2.31289E-003	5.80765E-004	...........
	14	3.875	2.47747E-003	2.24551E-003	5.76832E-004	...........
	15	4.13333	2.39421E-003	2.15543E-003	5.78865E-004	...........
	16	4.39167	2.31873E-003	2.14400E-003	5.81932E-004	...........
	17	4.65	2.25285E-003	2.24974E-003	5.81965E-004	...........
	18	4.90833	2.22382E-003	2.99677E-003	5.78632E-004	...........
EOC	QUANT	0.0022238	Open Circuit (V)
PSTATMODEL	IQUANT	4	Pstat Model
PSTATSECTION	LABEL	REF600-11020	Pstat Section
PSTATSERIALNO	LABEL	11020	Pstat Serial Number
CTRLMODE	IQUANT	1	Control Mode
IESTAB	IQUANT	0	I/E Stability
CASPEED	IQUANT	1	Control Amp Speed
CONVENTION	IQUANT	1	Current Convention
ICHRANGE	IQUANT	2	Ich Range
ICHRANGEMODE	TOGGLE	F	Ich Auto Range
ICHOFFSETENABLE	TOGGLE	T	Ich Offset Enable
ICHOFFSET	QUANT	0	Ich Offset (V)
ICHFILTER	IQUANT	3	Ich Filter
VCHRANGE	IQUANT	2	Vch Range
VCHRANGEMODE	TOGGLE	F	Vch Auto Range
VCHOFFSETENABLE	TOGGLE	T	Vch Offset Enable
VCHOFFSET	QUANT	0	Vch Offset (V)
VCHFILTER	IQUANT	3	Vch Filter
ACHRANGE	IQUANT	2	Ach Range
ACHOFFSETENABLE	TOGGLE	F	Ach Offset Enable
ACHOFFSET	QUANT	0	Ach Offset (V)
ACHFILTER	IQUANT	3	Ach Filter
IERANGELOWERLIMIT	IQUANT	1	I/E Range Lower Limit
IERANGEMODE	TOGGLE	F	I/E AutoRange
IERANGE	IQUANT	4	I/E Range
POSFEEDENABLE	TOGGLE	F	Positive Feedback IR Comp
POSFEEDRESISTANCE	QUANT	0	Positive Feedback Resistance (ohm)
ACHSELECT	IQUANT	0	Ach Select
CABLEID	IQUANT	14	Cable ID
DCCALDATE	LABEL	8/19/2019	DC Calibration Date
ACCALDATE	LABEL	8/19/2019	AC Calibration Date
THERMOSELECT	IQUANT	1	Thermo Select
FRAMEWORKVERSION	QUANT	6.33	Framework Version
INSTRUMENTVERSION	LABEL	3.50	Instrument Version
ZCURVE	TABLE
	Pt	Time	Freq	Zreal	Zimag	Zsig	Zmod	Zphz	Idc	Vdc	IERange
	#	s	Hz	ohm	ohm	V	ohm	°	A	V	#
	0	2	1000078	2271.239	-1697.732	1	2835.634	-36.77781	8.804113E-006	0.0032525	8
	1	3	794390.6	2617.301	-1619.567	1	3077.867	-31.74892	-6.512425E-006	0.0039623	8
	2	5	630984.4	2936.773	-1492.775	1	3294.391	-26.94444	-5.766519E-006	0.0049888	8
	3	6	501234.4	3197.792	-1342.185	1	3468.044	-22.76888	7.698681E-006	0.003052	8
	4	7	398109.4	3388.598	-1179.689	1	3588.073	-19.19478	-2.783231E-006	0.0039418	8
	5	9	316265.6	3539.32	-1014.996	1	3681.984	-16.00167	-2.478429E-006	0.0037034	8
	6	10	251203.1	3653.005	-882.7452	1	3758.149	-13.58504	-3.645534E-006	0.0043536	8
	7	11	199546.9	3732.575	-754.8972	1	3808.148	-11.4336	-1.929502E-007	0.0035073	8
	8	13	158578.1	3813.248	-662.7914	1	3870.42	-9.86024	6.892228E-007	0.0041777	8
	9	14	125953.1	3896.91	-512.8115	1	3930.507	-7.496727	2.828962E-006	-0.002175	7
	10	15	100078.1	3926.561	-454.8846	1	3952.822	-6.60815	-1.082409E-006	0.0042687	7
	11	17	79453.13	3954.255	-415.911	1	3976.068	-6.004329	-9.490755E-007	0.0055094	7
	12	18	63140.62	3986.272	-390.0201	1	4005.306	-5.588081	-9.498287E-007	0.0055046	7
	13	20	50203.12	4017.144	-375.1942	1	4034.627	-5.335847	-1.286615E-006	0.0052548	7
	14	21	39890.62	4049.66	-369.1878	1	4066.454	-5.208978	-7.421426E-007	0.0035356	7
	15	22	31640.63	4078.558	-374.8615	1	4095.748	-5.25132	1.038061E-006	0.001982	7
	16	24	25171.88	4108.044	-385.9891	1	4126.138	-5.367715	8.54822E-007	0.003549	7
	17	25	20015.62	4138.531	-406.7933	1	4158.476	-5.613805	-1.268388E-006	0.0048523	7
	18	26	15890.62	4171.201	-443.2884	1	4194.689	-6.066257	5.311185E-007	0.0019816	7
	19	28	12609.37	4206.119	-487.4507	1	4234.271	-6.610567	5.63772E-008	0.0047655	7
	20	29	10078.13	4237.577	-545.332	1	4272.522	-7.333067	3.923215E-007	0.0043198	7
	21	31	8015.625	4273.199	-619.7448	1	4317.906	-8.252108	1.451424E-007	0.0022841	7
	22	32	6328.125	4310.241	-719.3788	1	4369.861	-9.475324	-9.495505E-007	0.0054918	7
	23	33	5015.625	4352.624	-844.6459	1	4433.82	-10.98201	-1.154797E-006	0.0054146	7
	24	35	3984.375	4401.335	-998.186	1	4513.106	-12.77805	1.143435E-006	0.0022145	7
	25	36	3170.956	4452.068	-1188.316	1	4607.928	-14.94461	-1.269018E-006	0.0048428	7
	26	37	2527.573	4515.466	-1422.53	1	4734.239	-17.48625	5.31606E-007	0.0019726	7
	27	39	1976.103	4595.914	-1735.424	1	4912.649	-20.68662	1.040416E-006	0.0019766	7
	28	40	1577.524	4680.207	-2087.977	1	5124.839	-24.04304	-3.209899E-007	0.0051701	7
	29	42	1265.625	4779.99	-2505.318	1	5396.751	-27.66021	8.33955E-007	0.0018795	7
	30	43	998.264	4908.554	-3052.375	1	5780.216	-31.87534	3.921568E-007	0.0043142	7
	31	44	796.875	5052.911	-3692.133	1	6258.095	-36.15538	1.039319E-006	0.0019683	7
	32	46	627.7902	5230.582	-4513.705	1	6908.873	-40.79239	5.327593E-007	0.0019736	7
	33	47	505.5147	5426.888	-5419.471	1	7669.536	-44.96082	-3.162796E-007	0.0051656	7
	34	49	397.9953	5674.29	-6658.717	1	8748.49	-49.56371	1.324513E-009	0.0037664	7
	35	50	315.5048	5966.925	-8139.756	1	10092.56	-53.75637	7.695412E-010	0.0037081	6
	36	51	252.4038	6304.853	-9894.05	1	11732.15	-57.49321	5.601101E-010	0.003696	6
	37	53	198.6229	6749.642	-12218.37	1	13958.73	-61.08297	5.515645E-010	0.0037022	6
	38	54	158.3615	7282.055	-14928.89	1	16610.24	-63.99768	3.760624E-010	0.003689	6
	39	55	125.558	7978.991	-18345.44	1	20005.49	-66.49431	1.096262E-009	0.0037023	6
	40	57	100.4464	8858.696	-22348.54	1	24040.25	-68.37721	6.010676E-010	0.0036887	6
	41	58	79.00281	10091.86	-27713.92	1	29494.19	-69.99122	1.076514E-009	0.0036921	6
	42	59	63.3446	11763.54	-33801.61	1	35790.08	-70.81122	5.285816E-010	0.0036984	6
	43	61	49.86702	13306.5	-41446.97	1	43530.61	-72.20084	-7.758047E-010	0.0036975	6
	44	62	39.72458	16125.04	-50391.65	1	52908.75	-72.25562	4.022786E-010	0.0037039	6
	45	64	31.6723	19741.97	-61081.62	1	64192.75	-72.08884	8.182606E-010	0.0037043	6
	46	65	24.93351	24194.49	-74761.47	1	78578.95	-72.06725	1.107073E-009	0.0036979	6
	47	66	19.86229	29929.56	-90173.48	1	95010.7	-71.63843	4.110479E-010	0.0037	6
	48	68	15.83615	38531.39	-108106.3	1	114767.8	-70.38285	-1.008767E-009	0.0037039	5
	49	69	12.40079	47789.93	-132133.6	1	140510.3	-70.11601	-2.819709E-010	0.0036998	5
	50	71	9.93114	59052.71	-156017.5	1	166819.4	-69.26833	8.336286E-010	0.0036977	5
	51	72	7.944915	74755.14	-184276.6	1	198862.3	-67.91917	9.622922E-010	0.0037109	5
	52	74	6.317385	93289.24	-218528.1	1	237607.7	-66.88245	5.761908E-011	0.0037098	5
	53	76	5.008013	117462.4	-257168.2	1	282724.1	-65.45129	1.128417E-010	0.0036869	5
	54	78	3.945707	147328.9	-302010.3	1	336029.8	-63.99561	5.291358E-010	0.0036925	5
	55	81	3.158693	181478.3	-349728.3	1	394010.5	-62.57465	-4.593812E-011	0.0036957	5
	56	84	2.504006	223138.7	-403860.2	1	461404.3	-61.0787	5.723252E-010	0.0036981	5
	57	87	1.998082	270862.5	-461823.1	1	535394.4	-59.60807	1.579567E-010	0.0037475	5
	58	90	1.584686	324691.7	-526799.4	1	618823.3	-58.35249	2.916843E-010	0.0036956	5
	59	94	1.266892	386399.6	-597642.6	1	711675	-57.11573	1.548829E-010	0.0037438	5
	60	98	0.999041	457694.9	-679625.3	1	819374.9	-56.04163	5.054661E-011	0.0036641	5
