EXPLAIN
TAG	EISPOT
TITLE	LABEL	Potentiostatic EIS	Test &Identifier
DATE	LABEL	10/18/2019	Date
TIME	LABEL	10:09:46	Time
NOTES	NOTES	1	&Notes...
	
PSTAT	PSTAT	REF600-11020	Potentiostat
VDC	POTEN	0.00000E+000	T	DC &Voltage (V)
FREQINIT	QUANT	1.00000E+006	Initial Fre&q. (Hz)
FREQFINAL	QUANT	1.00000E+000	Final Fre&q. (Hz)
PTSPERDEC	QUANT	1.00000E+001	Points/&decade
VAC	QUANT	2.50000E+001	AC &Voltage (mV rms)
AREA	QUANT	1.00000E-002	&Area (cm^2)
CONDIT	TWOPARAM	T	5.00000E+000	0.00000E+000	Conditionin&g	Time(s)	E(V)
DELAY	TWOPARAM	T	5.00000E+000	0.00000E+000	Init. De&lay	Time(s)	Stab.(mV/s)
SPEED	SELECTOR	0	&Optimize for:
ZGUESS	QUANT	1.00000E+005	E&stimated Z (ohms)
OCVCURVE	TABLE	19
	Pt	T	Vf	Vm	Ach	Over
	#	s	V vs. Ref.	V	V	bits
	0	0.258333	8.76952E-003	8.76952E-003	5.30266E-004	...........
	1	0.516667	8.76427E-003	8.49495E-003	5.40599E-004	...........
	2	0.775	8.73234E-003	8.24938E-003	5.44099E-004	...........
	3	1.03333	8.64395E-003	8.06602E-003	5.32633E-004	...........
	4	1.29167	8.49225E-003	7.90432E-003	5.31366E-004	...........
	5	1.55	8.30388E-003	7.78424E-003	5.40166E-004	...........
	6	1.80833	8.11476E-003	7.66679E-003	5.42299E-004	...........
	7	2.06667	7.94639E-003	7.54198E-003	5.34733E-004	...........
	8	2.325	7.80196E-003	7.44270E-003	5.35866E-004	...........
	9	2.58333	7.67552E-003	7.35435E-003	5.38966E-004	...........
	10	2.84167	7.56162E-003	7.25550E-003	5.38833E-004	...........
	11	3.1	7.45756E-003	7.18722E-003	5.37366E-004	...........
	12	3.35833	7.36190E-003	7.10542E-003	5.36433E-004	...........
	13	3.61667	7.27381E-003	7.03759E-003	5.40566E-004	...........
	14	3.875	7.19265E-003	6.98532E-003	5.36799E-004	...........
	15	4.13333	7.11832E-003	6.92641E-003	5.34666E-004	...........
	16	4.39167	7.05114E-003	6.88332E-003	5.44799E-004	...........
	17	4.65	6.99116E-003	6.84922E-003	5.42766E-004	...........
	18	4.90833	6.93869E-003	6.82798E-003	5.39866E-004	...........
EOC	QUANT	0.0069387	Open Circuit (V)
PSTATMODEL	IQUANT	4	Pstat Model
PSTATSECTION	LABEL	REF600-11020	Pstat Section
PSTATSERIALNO	LABEL	11020	Pstat Serial Number
CTRLMODE	IQUANT	1	Control Mode
IESTAB	IQUANT	0	I/E Stability
CASPEED	IQUANT	1	Control Amp Speed
CONVENTION	IQUANT	1	Current Convention
ICHRANGE	IQUANT	2	Ich Range
ICHRANGEMODE	TOGGLE	F	Ich Auto Range
ICHOFFSETENABLE	TOGGLE	T	Ich Offset Enable
ICHOFFSET	QUANT	0	Ich Offset (V)
ICHFILTER	IQUANT	3	Ich Filter
VCHRANGE	IQUANT	2	Vch Range
VCHRANGEMODE	TOGGLE	F	Vch Auto Range
VCHOFFSETENABLE	TOGGLE	T	Vch Offset Enable
VCHOFFSET	QUANT	0	Vch Offset (V)
VCHFILTER	IQUANT	3	Vch Filter
ACHRANGE	IQUANT	2	Ach Range
ACHOFFSETENABLE	TOGGLE	F	Ach Offset Enable
ACHOFFSET	QUANT	0	Ach Offset (V)
ACHFILTER	IQUANT	3	Ach Filter
IERANGELOWERLIMIT	IQUANT	1	I/E Range Lower Limit
IERANGEMODE	TOGGLE	F	I/E AutoRange
IERANGE	IQUANT	5	I/E Range
POSFEEDENABLE	TOGGLE	F	Positive Feedback IR Comp
POSFEEDRESISTANCE	QUANT	0	Positive Feedback Resistance (ohm)
ACHSELECT	IQUANT	0	Ach Select
CABLEID	IQUANT	14	Cable ID
DCCALDATE	LABEL	8/19/2019	DC Calibration Date
ACCALDATE	LABEL	8/19/2019	AC Calibration Date
THERMOSELECT	IQUANT	1	Thermo Select
FRAMEWORKVERSION	QUANT	6.33	Framework Version
INSTRUMENTVERSION	LABEL	3.50	Instrument Version
ZCURVE	TABLE
	Pt	Time	Freq	Zreal	Zimag	Zsig	Zmod	Zphz	Idc	Vdc	IERange
	#	s	Hz	ohm	ohm	V	ohm	°	A	V	#
	0	1	1000078	2994.291	-1907.915	1	3550.482	-32.50465	-1.364015E-006	0.0096484	8
	1	1	794390.6	3342.259	-1821.246	1	3806.262	-28.58662	5.166979E-006	0.0081524	8
	2	2	630984.4	3646.939	-1686.694	1	4018.096	-24.82034	3.020471E-006	0.0080668	8
	3	2	501234.4	3900.523	-1540.031	1	4193.54	-21.54544	3.838125E-006	0.008041	8
	4	2	398109.4	4134.453	-1381.185	1	4359.057	-18.47278	-1.71454E-006	0.0089388	8
	5	2	316265.6	4306.34	-1214.056	1	4474.204	-15.74436	-6.339794E-007	0.0087351	8
	6	3	251203.1	4456.047	-1069.401	1	4582.573	-13.49513	-1.316541E-006	0.0088834	8
	7	3	199546.9	4575.933	-967.427	1	4677.08	-11.93748	3.935524E-006	0.0079805	8
	8	3	158578.1	4660.429	-895.0891	1	4745.606	-10.87193	9.217504E-008	0.0085478	8
	9	4	125953.1	4764.009	-729.4221	1	4819.526	-8.705009	1.329667E-006	0.0056595	7
	10	4	100078.1	4812.304	-709.0938	1	4864.266	-8.382225	-6.645674E-008	0.0086843	7
	11	4	79453.13	4877.599	-701.3171	1	4927.76	-8.182097	4.459175E-009	0.0085194	7
	12	5	63140.62	4940.762	-708.3997	1	4991.288	-8.159382	-1.59733E-008	0.008606	7
	13	5	50203.12	5006.402	-730.6818	1	5059.442	-8.303662	-4.061102E-008	0.0085825	7
	14	5	39890.62	5077.584	-768.105	1	5135.353	-8.602125	-4.55453E-009	0.0086144	7
	15	6	31640.63	5155.723	-820.7363	1	5220.64	-9.044986	-3.170512E-008	0.0086522	7
	16	6	25171.88	5240.357	-891.2777	1	5315.611	-9.65248	8.396221E-008	0.0083892	7
	17	6	20015.62	5344.329	-1008.397	1	5438.632	-10.68526	4.318477E-008	0.0085201	7
	18	7	15890.62	5441.368	-1080.248	1	5547.56	-11.22865	-3.932803E-008	0.0086414	7
	19	7	12609.37	5555.728	-1211.398	1	5686.264	-12.30052	1.330251E-007	0.0083701	7
	20	7	10078.13	5686.262	-1348.707	1	5844.021	-13.34324	-4.306758E-008	0.0086115	7
	21	8	8015.625	5837.633	-1572.218	1	6045.645	-15.0735	-4.015624E-008	0.0085835	7
	22	8	6328.125	6004.219	-1722.303	1	6246.357	-16.00548	-4.543309E-008	0.0086116	7
	23	8	5015.625	6196.636	-1953.235	1	6497.186	-17.49531	1.322119E-007	0.0083641	7
	24	8	3984.375	6450.159	-2264.035	1	6835.964	-19.34131	4.190614E-008	0.0084176	7
	25	9	3170.956	6657.388	-2517.094	1	7117.343	-20.71112	3.9353E-008	0.0084189	7
	26	9	2527.573	6933.586	-2859.199	1	7499.976	-22.40976	-5.505706E-008	0.008608	7
	27	9	1976.103	7285.434	-3277.782	1	7988.83	-24.22341	-4.434061E-008	0.008578	7
	28	10	1577.524	7714.951	-3706.521	1	8559.134	-25.66119	-4.782715E-009	0.0086005	7
	29	10	1265.625	8024.184	-4170	1	9043.032	-27.45996	-4.730834E-008	0.0086095	7
	30	10	998.264	8482.774	-4734.44	1	9714.54	-29.16694	-1.206221E-008	0.008573	6
	31	11	796.875	8925.133	-5349.748	1	10405.66	-30.93858	4.382527E-009	0.0083754	6
	32	11	627.7902	9392.62	-6111.677	1	11205.98	-33.05162	1.838938E-008	0.0081819	6
	33	11	505.5147	9818.38	-6942.737	1	12025.07	-35.26474	7.366786E-009	0.0083356	6
	34	12	397.9953	10280.52	-8083.213	1	13077.75	-38.17673	-4.334487E-010	0.0085172	6
	35	12	315.5048	10724.66	-9488.009	1	14319.24	-41.4989	-2.619403E-010	0.0085147	6
	36	12	252.4038	11155.42	-11190.28	1	15800.81	-45.08939	-6.771158E-010	0.0085117	6
	37	13	198.6229	11662.11	-13500.11	1	17839.78	-49.17781	8.191653E-010	0.008511	6
	38	13	158.3615	12198.99	-16260.34	1	20327.67	-53.12169	6.318921E-010	0.0085124	6
	39	13	125.558	12886.04	-19787.77	1	23613.68	-56.92733	1.041206E-009	0.0085126	6
	40	14	100.4464	13644.09	-24013.42	1	27618.94	-60.39537	-1.132871E-009	0.0085115	6
	41	14	79.00281	14817.42	-29508.28	1	33019.61	-63.33673	-4.351332E-010	0.0085126	6
	42	14	63.3446	15853.29	-36637.71	1	39920.53	-66.60167	7.586148E-010	0.0085127	6
	43	15	49.86702	17547.49	-44815.14	1	48128.07	-68.61703	8.525297E-010	0.0085093	6
	44	15	39.72458	20146.23	-54420.87	1	58030.18	-69.68579	6.118739E-010	0.0085108	6
	45	15	31.6723	23250.68	-66495.74	1	70443.44	-70.72748	7.874544E-010	0.0085108	6
	46	16	24.93351	27185.64	-81514.96	1	85928.73	-71.55621	5.865696E-010	0.0085073	6
	47	16	19.86229	31945.9	-99194.9	1	104212.1	-72.14874	1.23084E-009	0.0085142	6
	48	16	15.83615	40051.12	-118248.9	1	124847.5	-71.28867	2.69973E-009	0.0085081	5
	49	17	12.40079	48676.4	-149530.5	1	157253.8	-71.96847	1.351213E-009	0.0085117	5
	50	17	9.93114	57509.83	-177605.2	1	186684.2	-72.05767	2.965894E-010	0.008513	5
	51	18	7.944915	71714.16	-212264.1	1	224051.3	-71.33228	1.568034E-010	0.0085059	5
	52	18	6.317385	88305.63	-255324.5	1	270163.8	-70.92173	3.007202E-010	0.0085168	5
	53	19	5.008013	109726.6	-306565.3	1	325610.5	-70.30657	2.850317E-011	0.0085037	5
	54	20	3.945707	137921.1	-368096.3	1	393086.7	-69.45966	1.936681E-010	0.008511	5
	55	21	3.158693	170891.7	-435840.5	1	468146.3	-68.59	-3.865575E-011	0.0085034	5
	56	23	2.504006	211241.7	-516086	1	557644.9	-67.73997	6.571033E-011	0.0085015	5
	57	24	1.998082	258692.1	-606972.6	1	659800.9	-66.91627	1.585109E-010	0.0085412	5
	58	26	1.584686	315276.8	-712942.8	1	779542.7	-66.14407	7.567457E-011	0.0085103	5
	59	28	1.266892	382727.5	-833110.6	1	916817.1	-65.32615	5.449556E-011	0.0084775	5
	60	30	0.999041	466113.6	-984308	1	1089093	-64.66037	2.810312E-011	0.0084658	4
