EXPLAIN
TAG	EISPOT
TITLE	LABEL	Potentiostatic IDE	Test &Identifier
DATE	LABEL	9/6/2019	Date
TIME	LABEL	8:33:42	Time
NOTES	NOTES	1	&Notes...
	
PSTAT	PSTAT	REF600-11020	Potentiostat
VDC	POTEN	0.00000E+000	T	DC &Voltage (V)
FREQINIT	QUANT	1.00000E+006	Initial Fre&q. (Hz)
FREQFINAL	QUANT	1.00000E+000	Final Fre&q. (Hz)
PTSPERDEC	QUANT	1.00000E+001	Points/&decade
VAC	QUANT	2.50000E+001	AC &Voltage (mV rms)
AREA	QUANT	1.00000E-002	&Area (cm^2)
CONDIT	TWOPARAM	T	5.00000E+000	0.00000E+000	Conditionin&g	Time(s)	E(V)
DELAY	TWOPARAM	T	5.00000E+000	0.00000E+000	Init. De&lay	Time(s)	Stab.(mV/s)
SPEED	SELECTOR	1	&Optimize for:
ZGUESS	QUANT	1.00000E+007	E&stimated Z (ohms)
OCVCURVE	TABLE	19
	Pt	T	Vf	Vm	Ach	Over
	#	s	V vs. Ref.	V	V	bits
	0	0.258333	6.26592E-003	6.26592E-003	5.74132E-004	...........
	1	0.516667	6.26177E-003	6.04850E-003	5.79799E-004	...........
	2	0.775	6.23534E-003	5.79399E-003	5.78399E-004	...........
	3	1.03333	6.15684E-003	5.51545E-003	5.80632E-004	...........
	4	1.29167	6.00875E-003	5.30923E-003	5.78699E-004	...........
	5	1.55	5.80416E-003	5.13074E-003	5.79699E-004	...........
	6	1.80833	5.57720E-003	4.97397E-003	5.76399E-004	...........
	7	2.06667	5.35937E-003	4.82610E-003	5.75066E-004	...........
	8	2.325	5.16547E-003	4.69110E-003	5.76232E-004	...........
	9	2.58333	4.99556E-003	4.55300E-003	5.76332E-004	...........
	10	2.84167	4.84308E-003	4.41672E-003	5.76266E-004	...........
	11	3.1	4.70122E-003	4.30684E-003	5.78466E-004	...........
	12	3.35833	4.56662E-003	4.19900E-003	5.76832E-004	...........
	13	3.61667	4.43966E-003	4.09622E-003	5.74532E-004	...........
	14	3.875	4.32127E-003	3.99475E-003	5.78899E-004	...........
	15	4.13333	4.21064E-003	3.90036E-003	5.78899E-004	...........
	16	4.39167	4.10597E-003	3.80679E-003	5.77432E-004	...........
	17	4.65	4.00585E-003	3.71727E-003	5.75099E-004	...........
	18	4.90833	3.90952E-003	3.63266E-003	5.75199E-004	...........
EOC	QUANT	0.0039095	Open Circuit (V)
PSTATMODEL	IQUANT	4	Pstat Model
PSTATSECTION	LABEL	REF600-11020	Pstat Section
PSTATSERIALNO	LABEL	11020	Pstat Serial Number
CTRLMODE	IQUANT	1	Control Mode
IESTAB	IQUANT	0	I/E Stability
CASPEED	IQUANT	1	Control Amp Speed
CONVENTION	IQUANT	1	Current Convention
ICHRANGE	IQUANT	2	Ich Range
ICHRANGEMODE	TOGGLE	F	Ich Auto Range
ICHOFFSETENABLE	TOGGLE	T	Ich Offset Enable
ICHOFFSET	QUANT	0	Ich Offset (V)
ICHFILTER	IQUANT	3	Ich Filter
VCHRANGE	IQUANT	2	Vch Range
VCHRANGEMODE	TOGGLE	F	Vch Auto Range
VCHOFFSETENABLE	TOGGLE	T	Vch Offset Enable
VCHOFFSET	QUANT	0	Vch Offset (V)
VCHFILTER	IQUANT	3	Vch Filter
ACHRANGE	IQUANT	2	Ach Range
ACHOFFSETENABLE	TOGGLE	F	Ach Offset Enable
ACHOFFSET	QUANT	0	Ach Offset (V)
ACHFILTER	IQUANT	3	Ach Filter
IERANGELOWERLIMIT	IQUANT	1	I/E Range Lower Limit
IERANGEMODE	TOGGLE	F	I/E AutoRange
IERANGE	IQUANT	2	I/E Range
POSFEEDENABLE	TOGGLE	F	Positive Feedback IR Comp
POSFEEDRESISTANCE	QUANT	0	Positive Feedback Resistance (ohm)
ACHSELECT	IQUANT	0	Ach Select
CABLEID	IQUANT	14	Cable ID
DCCALDATE	LABEL	8/19/2019	DC Calibration Date
ACCALDATE	LABEL	8/19/2019	AC Calibration Date
THERMOSELECT	IQUANT	1	Thermo Select
FRAMEWORKVERSION	QUANT	6.33	Framework Version
INSTRUMENTVERSION	LABEL	3.50	Instrument Version
ZCURVE	TABLE
	Pt	Time	Freq	Zreal	Zimag	Zsig	Zmod	Zphz	Idc	Vdc	IERange
	#	s	Hz	ohm	ohm	V	ohm	°	A	V	#
	0	2	1000078	2494.369	-1916.095	1	3145.362	-37.53033	-1.623555E-006	0.0065902	8
	1	4	794390.6	2888.492	-1853.627	1	3432.101	-32.68944	3.571565E-006	0.0054804	8
	2	5	630984.4	3257.012	-1722.925	1	3684.644	-27.87837	-3.962719E-006	0.0065641	8
	3	6	501234.4	3518.201	-1554.31	1	3846.247	-23.83541	-2.373234E-006	0.0064202	8
	4	8	398109.4	3755.732	-1372.506	1	3998.662	-20.07448	-9.43178E-007	0.0058285	8
	5	9	316265.6	3937.549	-1193.34	1	4114.408	-16.86031	-2.67426E-006	0.006274	8
	6	10	251203.1	4070.808	-1057.281	1	4205.867	-14.55933	-4.65052E-007	0.0057962	8
	7	12	199546.9	4177.889	-924.8586	1	4279.032	-12.48226	-2.64045E-006	0.0062433	8
	8	13	158578.1	4255.355	-857.3475	1	4340.863	-11.39117	-2.56537E-006	0.0062375	8
	9	14	125953.1	4351.485	-729.4308	1	4412.198	-9.51591	-5.406005E-007	0.0071332	7
	10	16	100078.1	4411.248	-672.6887	1	4462.244	-8.670464	-2.554804E-008	0.005659	7
	11	17	79453.13	4465.648	-645.0344	1	4511.994	-8.219162	1.398693E-010	0.0055806	7
	12	18	63140.62	4523.315	-631.7322	1	4567.217	-7.950578	-2.630594E-008	0.0056334	7
	13	20	50203.12	4578.319	-630.8604	1	4621.579	-7.845552	7.842865E-008	0.0055083	7
	14	21	39890.62	4635.917	-645.7263	1	4680.672	-7.929581	-6.801721E-009	0.0056521	7
	15	22	31640.63	4696.869	-674.3058	1	4745.025	-8.169843	-2.64959E-009	0.0056404	7
	16	24	25171.88	4757.146	-719.6069	1	4811.265	-8.601841	-3.669173E-008	0.005675	7
	17	25	20015.62	4825.038	-777.5364	1	4887.285	-9.154298	-1.521225E-008	0.0056164	7
	18	26	15890.62	4897.312	-856.539	1	4971.651	-9.92068	-2.463071E-008	0.0056503	7
	19	28	12609.37	4971.973	-953.079	1	5062.497	-10.85141	-2.418064E-008	0.0056513	7
	20	29	10078.13	5056.252	-1070.472	1	5168.327	-11.95372	4.973256E-008	0.0055126	7
	21	30	8015.625	5144.68	-1217.314	1	5286.736	-13.31227	-2.030513E-008	0.0056894	7
	22	32	6328.125	5247.344	-1399.973	1	5430.888	-14.93836	-2.515734E-008	0.0056254	7
	23	33	5015.625	5361.406	-1620.056	1	5600.826	-16.81324	1.435116E-008	0.0055584	7
	24	34	3984.375	5484.564	-1887.969	1	5800.42	-18.99516	-2.074425E-008	0.0056873	7
	25	36	3170.956	5626.21	-2203.814	1	6042.437	-21.39052	-2.471512E-008	0.0056288	7
	26	37	2527.573	5785.899	-2586.261	1	6337.616	-24.08435	-9.28256E-009	0.0056218	7
	27	38	1976.103	5983.264	-3086.367	1	6732.393	-27.2862	5.01651E-008	0.00554	7
	28	40	1577.524	6195.667	-3641.946	1	7186.798	-30.44792	2.164432E-008	0.0055923	7
	29	41	1265.625	6433.638	-4299.271	1	7737.921	-33.75278	-2.369591E-008	0.0056219	7
	30	42	998.264	6729.117	-5150.58	1	8474.048	-37.43106	-8.360263E-009	0.0057116	7
	31	43	796.875	7057.545	-6123.792	1	9343.97	-40.94799	1.571165E-008	0.0055527	7
	32	45	627.7902	7478.312	-7366.26	1	10497	-44.56752	-2.440004E-009	0.0055921	6
	33	46	505.5147	7909.222	-8727.736	1	11778.33	-47.8166	4.936942E-009	0.0054217	6
	34	47	397.9953	8474.85	-10547.75	1	13530.63	-51.219	1.094887E-009	0.0055575	6
	35	49	315.5048	9123.694	-12696.33	1	15634.53	-54.29864	8.178882E-010	0.0055614	6
	36	50	252.4038	9859.03	-15192.88	1	18111.44	-57.01949	7.933865E-010	0.0055579	6
	37	51	198.6229	10800.41	-18449.77	1	21378.56	-59.65548	8.775688E-010	0.0055655	6
	38	53	158.3615	11873.32	-22196.51	1	25172.62	-61.85686	9.153941E-010	0.0055564	6
	39	54	125.558	13199.33	-26852.09	1	29920.85	-63.82327	9.729455E-010	0.0055649	6
	40	55	100.4464	14733.23	-32285.92	1	35488.71	-65.47108	9.698408E-010	0.0055594	6
	41	57	79.00281	16801.25	-39370.04	1	42805.16	-66.88953	1.048127E-009	0.0055551	6
	42	58	63.3446	18923.49	-47300.84	1	50945.74	-68.1953	5.417085E-010	0.005547	6
	43	60	49.86702	22218.84	-57493.57	1	61637.55	-68.87058	5.009234E-010	0.0055521	6
	44	61	39.72458	25798.2	-69451.38	1	74088.06	-69.62213	8.601282E-010	0.0055555	6
	45	62	31.6723	30259.63	-83789.88	1	89086.41	-70.14347	5.701963E-010	0.0055589	6
	46	64	24.93351	36196.38	-101828	1	108070	-70.43144	6.638911E-010	0.0055606	5
	47	65	19.86229	43289.93	-122574.5	1	129994.3	-70.54819	6.864124E-010	0.0055659	5
	48	66	15.83615	52176.62	-147793	1	156732.8	-70.55501	1.021422E-009	0.005562	5
	49	68	12.40079	64158.34	-179448.7	1	190573.2	-70.32649	2.213525E-010	0.0055632	5
	50	69	9.93114	77710.2	-214262.1	1	227919.1	-70.06492	1.702572E-010	0.0055717	5
	51	71	7.944915	95103.9	-255314.5	1	272452.3	-69.56978	7.13246E-010	0.0055663	5
	52	72	6.317385	117331.5	-305327.9	1	327096.1	-68.97921	5.872988E-010	0.0055624	5
	53	74	5.008013	145945.6	-365289.9	1	393366.1	-68.22163	2.620928E-010	0.0055697	5
	54	77	3.945707	183475.1	-436213.8	1	473229	-67.18797	2.631894E-010	0.0055688	5
	55	79	3.158693	226611.7	-513315.9	1	561111.5	-66.18015	5.842091E-011	0.0055506	5
	56	83	2.504006	283477	-603789.6	1	667024.1	-64.85012	4.069758E-010	0.0055574	5
	57	85	1.998082	349601.1	-702409.1	1	784601.5	-63.53968	9.461813E-011	0.0055988	5
	58	88	1.584686	431500.8	-817254.1	1	924173.8	-62.16646	2.284568E-010	0.0056126	5
	59	92	1.266892	524741.2	-939248.7	1	1075891	-60.8087	-5.492415E-011	0.0055838	4
	60	96	0.999041	638536.9	-1080286	1	1254889	-59.41345	2.531076E-010	0.0055678	4
