EXPLAIN
TAG	EISPOT
TITLE	LABEL	Potentiostatic EIS	Test &Identifier
DATE	LABEL	9/24/2019	Date
TIME	LABEL	10:25:04	Time
NOTES	NOTES	1	&Notes...
	
PSTAT	PSTAT	REF600-11020	Potentiostat
VDC	POTEN	0.00000E+000	T	DC &Voltage (V)
FREQINIT	QUANT	1.00000E+006	Initial Fre&q. (Hz)
FREQFINAL	QUANT	1.00000E+000	Final Fre&q. (Hz)
PTSPERDEC	QUANT	1.00000E+001	Points/&decade
VAC	QUANT	2.50000E+001	AC &Voltage (mV rms)
AREA	QUANT	1.00000E-002	&Area (cm^2)
CONDIT	TWOPARAM	T	5.00000E+000	0.00000E+000	Conditionin&g	Time(s)	E(V)
DELAY	TWOPARAM	T	5.00000E+000	0.00000E+000	Init. De&lay	Time(s)	Stab.(mV/s)
SPEED	SELECTOR	1	&Optimize for:
ZGUESS	QUANT	1.00000E+004	E&stimated Z (ohms)
OCVCURVE	TABLE	19
	Pt	T	Vf	Vm	Ach	Over
	#	s	V vs. Ref.	V	V	bits
	0	0.258333	1.65348E-003	1.65348E-003	5.68932E-004	...........
	1	0.516667	1.64818E-003	1.37624E-003	5.67999E-004	...........
	2	0.775	1.61777E-003	1.22375E-003	5.70732E-004	...........
	3	1.03333	1.53656E-003	9.63633E-004	5.72499E-004	...........
	4	1.29167	1.40287E-003	1.10843E-003	5.70299E-004	...........
	5	1.55	1.24980E-003	8.07515E-004	5.74799E-004	...........
	6	1.80833	1.10717E-003	5.70129E-004	5.75499E-004	...........
	7	2.06667	9.64887E-004	3.73165E-004	5.72999E-004	...........
	8	2.325	7.97551E-004	1.54554E-004	5.69799E-004	...........
	9	2.58333	6.03286E-004	1.86610E-005	5.72666E-004	...........
	10	2.84167	4.00374E-004	-1.63841E-004	5.73799E-004	...........
	11	3.1	2.06486E-004	-2.86030E-004	5.72799E-004	...........
	12	3.35833	2.96571E-005	-4.23779E-004	5.76032E-004	...........
	13	3.61667	-1.29880E-004	-5.59279E-004	5.70199E-004	...........
	14	3.875	-2.76237E-004	-7.04810E-004	5.70099E-004	...........
	15	4.13333	-4.16100E-004	-8.61049E-004	5.67932E-004	...........
	16	4.39167	-5.55818E-004	-9.95528E-004	5.67466E-004	...........
	17	4.65	-6.97763E-004	-1.12080E-003	5.71732E-004	...........
	18	4.90833	-8.39192E-004	-1.23476E-003	5.69832E-004	...........
EOC	QUANT	-0.0008392	Open Circuit (V)
PSTATMODEL	IQUANT	4	Pstat Model
PSTATSECTION	LABEL	REF600-11020	Pstat Section
PSTATSERIALNO	LABEL	11020	Pstat Serial Number
CTRLMODE	IQUANT	1	Control Mode
IESTAB	IQUANT	0	I/E Stability
CASPEED	IQUANT	1	Control Amp Speed
CONVENTION	IQUANT	1	Current Convention
ICHRANGE	IQUANT	2	Ich Range
ICHRANGEMODE	TOGGLE	F	Ich Auto Range
ICHOFFSETENABLE	TOGGLE	T	Ich Offset Enable
ICHOFFSET	QUANT	0	Ich Offset (V)
ICHFILTER	IQUANT	3	Ich Filter
VCHRANGE	IQUANT	2	Vch Range
VCHRANGEMODE	TOGGLE	F	Vch Auto Range
VCHOFFSETENABLE	TOGGLE	T	Vch Offset Enable
VCHOFFSET	QUANT	0	Vch Offset (V)
VCHFILTER	IQUANT	3	Vch Filter
ACHRANGE	IQUANT	2	Ach Range
ACHOFFSETENABLE	TOGGLE	F	Ach Offset Enable
ACHOFFSET	QUANT	0	Ach Offset (V)
ACHFILTER	IQUANT	3	Ach Filter
IERANGELOWERLIMIT	IQUANT	1	I/E Range Lower Limit
IERANGEMODE	TOGGLE	F	I/E AutoRange
IERANGE	IQUANT	5	I/E Range
POSFEEDENABLE	TOGGLE	F	Positive Feedback IR Comp
POSFEEDRESISTANCE	QUANT	0	Positive Feedback Resistance (ohm)
ACHSELECT	IQUANT	0	Ach Select
CABLEID	IQUANT	14	Cable ID
DCCALDATE	LABEL	8/19/2019	DC Calibration Date
ACCALDATE	LABEL	8/19/2019	AC Calibration Date
THERMOSELECT	IQUANT	1	Thermo Select
FRAMEWORKVERSION	QUANT	6.33	Framework Version
INSTRUMENTVERSION	LABEL	3.50	Instrument Version
ZCURVE	TABLE
	Pt	Time	Freq	Zreal	Zimag	Zsig	Zmod	Zphz	Idc	Vdc	IERange
	#	s	Hz	ohm	ohm	V	ohm	°	A	V	#
	0	2	1000078	2183.709	-1802.962	1	2831.829	-39.54451	1.611771E-006	0.0017023	8
	1	3	794390.6	2524.509	-1802.751	1	3102.105	-35.53062	-3.01894E-007	0.0014041	8
	2	4	630984.4	2886.008	-1757.564	1	3379.064	-31.34119	-4.375072E-006	0.0020643	8
	3	6	501234.4	3194.616	-1658.948	1	3599.678	-27.44262	2.264592E-006	0.0004976	8
	4	7	398109.4	3511.16	-1532.451	1	3831.011	-23.57893	2.186778E-008	0.0010543	8
	5	9	316265.6	3756.225	-1391.989	1	4005.853	-20.3338	2.353267E-007	0.0010097	8
	6	10	251203.1	3956.153	-1218.441	1	4139.535	-17.11811	-2.371479E-007	0.0009315	8
	7	12	199546.9	4111.578	-1074.409	1	4249.639	-14.64466	1.678184E-006	0.0004734	8
	8	13	158578.1	4240.993	-935.3345	1	4342.911	-12.43726	1.131996E-006	0.0004318	8
	9	14	125953.1	4350.229	-769.9626	1	4417.843	-10.03704	3.935244E-007	-8.416847E-005	7
	10	16	100078.1	4415.308	-666.5907	1	4465.343	-8.585259	-4.548513E-008	0.0008861	7
	11	17	79453.13	4468.719	-596.508	1	4508.355	-7.603195	7.136675E-008	0.0006608	7
	12	18	63140.62	4516.461	-541.2493	1	4548.777	-6.833693	-8.201909E-009	0.0009064	7
	13	20	50203.12	4556.422	-501.675	1	4583.957	-6.28312	-2.604026E-008	0.0007749	7
	14	21	39890.62	4596.532	-479.7123	1	4621.496	-5.958046	-2.088581E-009	0.000721	7
	15	22	31640.63	4628.144	-467.4311	1	4651.689	-5.767176	-4.243628E-008	0.0008092	7
	16	24	25171.88	4663.135	-471.2567	1	4686.887	-5.770722	-4.509232E-009	0.0009022	7
	17	25	20015.62	4698.338	-488.2258	1	4723.637	-5.932574	8.00445E-008	0.0006114	7
	18	27	15890.62	4735.604	-518.2499	1	4763.878	-6.24542	1.304607E-007	0.0005912	7
	19	28	12609.37	4775.512	-563.7056	1	4808.667	-6.732091	7.77223E-008	0.000735	7
	20	29	10078.13	4818.225	-623.5418	1	4858.404	-7.373847	-6.393451E-008	0.0008818	7
	21	31	8015.625	4861.011	-700.8135	1	4911.269	-8.203823	-3.345067E-008	0.0007873	7
	22	32	6328.125	4913.574	-802.1771	1	4978.624	-9.272159	1.523721E-008	0.0007043	7
	23	33	5015.625	4969.62	-928.7009	1	5055.651	-10.58509	7.504227E-008	0.0006451	7
	24	35	3984.375	5029.509	-1082.079	1	5144.595	-12.14188	4.661025E-008	0.0006355	7
	25	36	3170.956	5098.92	-1271.989	1	5255.182	-14.00725	7.90881E-008	0.0007376	7
	26	37	2527.573	5175.098	-1501.642	1	5388.559	-16.18098	7.553606E-008	0.0006471	7
	27	39	1976.103	5272.654	-1804.021	1	5572.735	-18.88821	-4.106733E-008	0.0007998	7
	28	40	1577.524	5376.953	-2148.089	1	5790.156	-21.77667	-4.130955E-008	0.0008002	7
	29	41	1265.625	5467.303	-2552.874	1	6033.951	-25.02951	-3.13091E-009	0.0008143	7
	30	43	998.264	5632.295	-3089.335	1	6423.92	-28.74494	-3.742725E-008	0.0007969	7
	31	44	796.875	5797.874	-3711.028	1	6883.827	-32.62197	1.51061E-008	0.0007037	7
	32	46	627.7902	6000.744	-4512.777	1	7508.268	-36.94449	1.629241E-008	0.0007068	7
	33	47	505.5147	6217.898	-5406.437	1	8239.649	-41.00682	-7.517763E-009	0.0008032	7
	34	48	397.9953	6503.564	-6596.693	1	9263.515	-45.4073	6.809107E-009	0.0007939	7
	35	50	315.5048	6841.785	-8022.413	1	10543.68	-49.54134	1.705132E-009	0.0007304	6
	36	51	252.4038	7232.99	-9693.33	1	12094.5	-53.27037	1.912041E-009	0.0007263	6
	37	52	198.6229	7743.136	-11893.85	1	14192.25	-56.93507	1.171179E-009	0.0007315	6
	38	54	158.3615	8334.606	-14443.64	1	16675.86	-60.01319	1.089775E-009	0.0007271	6
	39	55	125.558	9093.17	-17630.17	1	19837.05	-62.71653	1.445611E-009	0.0007299	6
	40	57	100.4464	10029.21	-21382.62	1	23617.82	-64.87177	1.527306E-009	0.0007309	6
	41	58	79.00281	11267.37	-26231.85	1	28549.32	-66.75503	1.020003E-009	0.000726	6
	42	59	63.3446	12462.68	-32021.95	1	34361.66	-68.73442	2.410457E-010	0.0007268	6
	43	61	49.86702	14850.74	-38870.03	1	41610.37	-69.09007	1.056072E-009	0.0007204	6
	44	62	39.72458	17435.75	-47505.57	1	50604.2	-69.84559	5.255332E-010	0.0007243	6
	45	63	31.6723	20654.09	-57587.49	1	61179.33	-70.26933	1.326808E-009	0.0007229	6
	46	65	24.93351	25491.78	-70350.58	1	74826.7	-70.08184	1.260282E-009	0.0007209	6
	47	66	19.86229	31663.62	-84814.41	1	90532.14	-69.52797	1.467119E-009	0.0007317	6
	48	68	15.83615	39257.87	-101942.9	1	109240.7	-68.93846	-3.307714E-010	0.0007315	5
	49	69	12.40079	49750.66	-122626.1	1	132334	-67.91711	8.172878E-010	0.0007304	5
	50	71	9.93114	64019.61	-144358.7	1	157917.5	-66.08387	-2.804377E-010	0.0007359	5
	51	72	7.944915	80155.96	-168552.8	1	186641.4	-64.56638	1.337202E-009	0.0007309	5
	52	74	6.317385	101517.2	-196485.7	1	221161.4	-62.67621	2.684411E-010	0.0007473	5
	53	76	5.008013	127434.4	-226754.2	1	260109.6	-60.66429	4.747448E-010	0.0007313	5
	54	78	3.945707	158623.7	-259567.5	1	304198.6	-58.57057	7.784723E-010	0.0007392	5
	55	81	3.158693	192370.9	-292350.5	1	349964.8	-56.6545	-2.471752E-011	0.0007222	5
	56	84	2.504006	231401.9	-327843	1	401282.8	-54.78435	8.818332E-010	0.0007364	5
	57	87	1.998082	272736.3	-363895.4	1	454758.1	-53.14877	5.502008E-010	0.0007601	5
	58	90	1.584686	316983	-402698.9	1	512488.6	-51.79208	3.600335E-010	0.0006894	5
	59	94	1.266892	361763	-446697.8	1	574814.2	-50.99734	4.966139E-010	0.0007472	5
	60	98	0.999041	411455.6	-498949.9	1	646720	-50.48954	-4.33768E-011	0.0007006	5
