EXPLAIN
TAG	EISPOT
TITLE	LABEL	Potentiostatic EIS	Test &Identifier
DATE	LABEL	10/26/2019	Date
TIME	LABEL	9:47:18	Time
NOTES	NOTES	1	&Notes...
	
PSTAT	PSTAT	REF600-11020	Potentiostat
VDC	POTEN	0.00000E+000	T	DC &Voltage (V)
FREQINIT	QUANT	1.00000E+006	Initial Fre&q. (Hz)
FREQFINAL	QUANT	1.00000E+000	Final Fre&q. (Hz)
PTSPERDEC	QUANT	1.00000E+001	Points/&decade
VAC	QUANT	2.50000E+001	AC &Voltage (mV rms)
AREA	QUANT	1.00000E-002	&Area (cm^2)
CONDIT	TWOPARAM	T	5.00000E+000	0.00000E+000	Conditionin&g	Time(s)	E(V)
DELAY	TWOPARAM	T	5.00000E+000	0.00000E+000	Init. De&lay	Time(s)	Stab.(mV/s)
SPEED	SELECTOR	0	&Optimize for:
ZGUESS	QUANT	1.00000E+005	E&stimated Z (ohms)
OCVCURVE	TABLE	19
	Pt	T	Vf	Vm	Ach	Over
	#	s	V vs. Ref.	V	V	bits
	0	0.258333	4.05761E-003	4.05761E-003	5.39699E-004	...........
	1	0.516667	4.05652E-003	4.00079E-003	5.46166E-004	...........
	2	0.775	4.05010E-003	3.95990E-003	5.41499E-004	...........
	3	1.03333	4.03290E-003	3.92728E-003	5.45333E-004	...........
	4	1.29167	4.00436E-003	3.90096E-003	5.43699E-004	...........
	5	1.55	3.97013E-003	3.88179E-003	5.45233E-004	...........
	6	1.80833	3.93705E-003	3.86871E-003	5.47066E-004	...........
	7	2.06667	3.90912E-003	3.85167E-003	5.43333E-004	...........
	8	2.325	3.88703E-003	3.84093E-003	5.52599E-004	...........
	9	2.58333	3.86953E-003	3.83328E-003	5.54633E-004	...........
	10	2.84167	3.85535E-003	3.82512E-003	5.51533E-004	...........
	11	3.1	3.84387E-003	3.82220E-003	5.48766E-004	...........
	12	3.35833	3.83482E-003	3.81877E-003	5.48999E-004	...........
	13	3.61667	3.82789E-003	3.81139E-003	5.48566E-004	...........
	14	3.875	3.82255E-003	3.81520E-003	5.47499E-004	...........
	15	4.13333	3.81856E-003	3.81859E-003	5.51133E-004	...........
	16	4.39167	3.81643E-003	3.82428E-003	5.55499E-004	...........
	17	4.65	3.81687E-003	3.83440E-003	5.53699E-004	...........
	18	4.90833	3.82015E-003	3.84422E-003	5.52432E-004	...........
EOC	QUANT	0.0038201	Open Circuit (V)
PSTATMODEL	IQUANT	4	Pstat Model
PSTATSECTION	LABEL	REF600-11020	Pstat Section
PSTATSERIALNO	LABEL	11020	Pstat Serial Number
CTRLMODE	IQUANT	1	Control Mode
IESTAB	IQUANT	0	I/E Stability
CASPEED	IQUANT	1	Control Amp Speed
CONVENTION	IQUANT	1	Current Convention
ICHRANGE	IQUANT	2	Ich Range
ICHRANGEMODE	TOGGLE	F	Ich Auto Range
ICHOFFSETENABLE	TOGGLE	T	Ich Offset Enable
ICHOFFSET	QUANT	0	Ich Offset (V)
ICHFILTER	IQUANT	3	Ich Filter
VCHRANGE	IQUANT	2	Vch Range
VCHRANGEMODE	TOGGLE	F	Vch Auto Range
VCHOFFSETENABLE	TOGGLE	T	Vch Offset Enable
VCHOFFSET	QUANT	0	Vch Offset (V)
VCHFILTER	IQUANT	3	Vch Filter
ACHRANGE	IQUANT	2	Ach Range
ACHOFFSETENABLE	TOGGLE	F	Ach Offset Enable
ACHOFFSET	QUANT	0	Ach Offset (V)
ACHFILTER	IQUANT	3	Ach Filter
IERANGELOWERLIMIT	IQUANT	1	I/E Range Lower Limit
IERANGEMODE	TOGGLE	F	I/E AutoRange
IERANGE	IQUANT	4	I/E Range
POSFEEDENABLE	TOGGLE	F	Positive Feedback IR Comp
POSFEEDRESISTANCE	QUANT	0	Positive Feedback Resistance (ohm)
ACHSELECT	IQUANT	0	Ach Select
CABLEID	IQUANT	14	Cable ID
DCCALDATE	LABEL	8/19/2019	DC Calibration Date
ACCALDATE	LABEL	8/19/2019	AC Calibration Date
THERMOSELECT	IQUANT	1	Thermo Select
FRAMEWORKVERSION	QUANT	6.33	Framework Version
INSTRUMENTVERSION	LABEL	3.50	Instrument Version
ZCURVE	TABLE
	Pt	Time	Freq	Zreal	Zimag	Zsig	Zmod	Zphz	Idc	Vdc	IERange
	#	s	Hz	ohm	ohm	V	ohm	°	A	V	#
	0	2	1000078	1796.758	-587.0829	1	1890.24	-18.09458	-2.878847E-007	0.0057268	8
	1	2	794390.6	1876.911	-508.3398	1	1944.532	-15.15435	4.236918E-006	0.0047255	8
	2	2	630984.4	1931.389	-434.6874	1	1979.702	-12.68391	-1.434531E-006	0.0053813	8
	3	2	501234.4	1974.736	-371.5435	1	2009.385	-10.65554	-3.718411E-008	0.0053916	8
	4	3	398109.4	2009.281	-320.7987	1	2034.729	-9.071198	2.697979E-007	0.0053779	8
	5	3	316265.6	2033.837	-279.2289	1	2052.916	-7.81736	-3.744267E-007	0.0053762	8
	6	3	251203.1	2052.567	-244.5137	1	2067.08	-6.79339	-3.619538E-007	0.0052505	8
	7	4	199546.9	2074.383	-219.2353	1	2085.936	-6.033021	4.929885E-008	0.0053962	8
	8	4	158578.1	2091.964	-201.8111	1	2101.676	-5.510253	-2.308515E-007	0.0053352	8
	9	4	125953.1	2114.743	-165.5434	1	2121.212	-4.476022	3.419044E-008	0.0049254	7
	10	5	100078.1	2128.929	-157.7128	1	2134.763	-4.23678	9.055026E-008	0.0051769	7
	11	5	79453.13	2143.003	-160.8203	1	2149.029	-4.29168	2.56102E-008	0.0052826	7
	12	5	63140.62	2158.678	-168.0734	1	2165.211	-4.452034	-2.11259E-008	0.0053035	7
	13	6	50203.12	2175.714	-177.0848	1	2182.908	-4.653138	-9.597722E-009	0.0053289	7
	14	6	39890.62	2193.215	-188.8566	1	2201.332	-4.921567	6.650795E-008	0.0052505	7
	15	6	31640.63	2212.752	-203.5339	1	2222.093	-5.255405	-7.323976E-009	0.0052968	7
	16	7	25171.88	2232.679	-222.105	1	2243.699	-5.681044	3.543139E-009	0.0052941	7
	17	7	20015.62	2254.088	-245.588	1	2267.427	-6.217979	-4.39727E-008	0.0053663	7
	18	7	15890.62	2274.22	-274.7218	1	2290.753	-6.887855	-4.633396E-008	0.0053957	7
	19	8	12609.37	2296.402	-310.5436	1	2317.304	-7.701419	6.73253E-008	0.005251	7
	20	8	10078.13	2319.401	-354.3743	1	2346.317	-8.68687	-2.214936E-008	0.0053014	7
	21	8	8015.625	2341.927	-410.9726	1	2377.713	-9.9532	4.4952E-008	0.0052209	7
	22	9	6328.125	2371.349	-478.7468	1	2419.193	-11.41391	6.491001E-010	0.0053814	7
	23	9	5015.625	2400.518	-564.0744	1	2465.901	-13.22348	4.699602E-008	0.0052198	7
	24	9	3984.375	2430.41	-664.2155	1	2519.539	-15.28531	2.406326E-008	0.0052755	7
	25	9	3170.956	2464.921	-796.4032	1	2590.385	-17.90538	3.397869E-008	0.0051888	7
	26	10	2527.573	2501.757	-953.397	1	2677.266	-20.8614	2.194761E-009	0.0053751	7
	27	10	1976.103	2546.903	-1165.92	1	2801.086	-24.59733	5.796959E-008	0.0051829	7
	28	10	1577.524	2594.92	-1397.025	1	2947.082	-28.29665	-2.346805E-008	0.0052953	7
	29	11	1265.625	2648.646	-1701.826	1	3148.26	-32.72183	-2.510269E-008	0.0052931	7
	30	11	998.264	2718.93	-2093.046	1	3431.242	-37.58926	-9.286759E-009	0.0053225	7
	31	11	796.875	2801.966	-2549.472	1	3788.248	-42.29865	3.551969E-008	0.0051861	7
	32	12	627.7902	2910.314	-3150.395	1	4288.929	-47.26846	3.579575E-008	0.0051884	7
	33	12	505.5147	3032.72	-3822.198	1	4879.199	-51.56978	-2.293204E-008	0.0052923	7
	34	12	397.9953	3204.489	-4731.244	1	5714.317	-55.89007	3.755191E-009	0.0053235	7
	35	13	315.5048	3420.845	-5821.064	1	6751.813	-59.55867	3.579488E-009	0.0053204	7
	36	13	252.4038	3686.961	-7100.851	1	8000.985	-62.56039	3.138664E-009	0.0053163	7
	37	13	198.6229	4061.896	-8786.038	1	9679.54	-65.18831	3.83561E-009	0.0053171	7
	38	14	158.3615	4526.016	-10729.62	1	11645.15	-67.12878	1.015401E-009	0.0052567	6
	39	14	125.558	5142.378	-13153.3	1	14122.8	-68.64663	2.063973E-010	0.0052592	6
	40	14	100.4464	5927.081	-15954.6	1	17019.98	-69.62014	1.290017E-009	0.0052539	6
	41	15	79.00281	7042.371	-19620.59	1	20846.16	-70.25554	6.626699E-011	0.0052557	6
	42	15	63.3446	8105.522	-23768.5	1	25112.57	-71.16962	-4.568346E-010	0.0052529	6
	43	15	49.86702	9972.3	-28935.6	1	30605.81	-70.98412	-8.079716E-011	0.0052473	6
	44	16	39.72458	12336.56	-34838.66	1	36958.39	-70.50067	6.757493E-010	0.0052499	6
	45	16	31.6723	15191.42	-41704.05	1	44384.76	-69.98498	8.555444E-010	0.0052494	6
	46	16	24.93351	18853.26	-50363.24	1	53776.4	-69.47684	-4.080991E-010	0.0052483	6
	47	17	19.86229	23190.76	-59993.49	1	64319.75	-68.86576	-6.593809E-010	0.0052495	6
	48	17	15.83615	28836.03	-71046.06	1	76675.02	-67.90885	-2.65458E-011	0.0052492	6
	49	17	12.40079	36156.34	-85323.48	1	92668.1	-67.0349	3.627872E-010	0.0052503	6
	50	18	9.93114	43714.44	-99916.4	1	109060.7	-66.37012	1.630341E-010	0.0052524	5
	51	18	7.944915	53381.1	-116965.1	1	128570.5	-65.46876	-7.793067E-010	0.0052597	5
	52	19	6.317385	65325.75	-137278.3	1	152028.9	-64.55193	-6.704999E-010	0.0052692	5
	53	20	5.008013	80086.59	-160844.4	1	179679.7	-63.53067	-2.072793E-010	0.0052588	5
	54	21	3.945707	98127.7	-188235.6	1	212277.4	-62.46685	-1.058365E-010	0.0052481	5
	55	22	3.158693	118028.5	-217558.6	1	247512.5	-61.51957	2.650458E-010	0.0052572	5
	56	24	2.504006	142281.3	-251622.7	1	289063.9	-60.5138	1.259403E-011	0.0052572	5
	57	25	1.998082	169290.5	-289225.3	1	335127.7	-59.65854	-2.070792E-010	0.0052178	5
	58	27	1.584686	200350.4	-331618.4	1	387441.7	-58.86132	-2.808065E-011	0.0052551	5
	59	29	1.266892	235285.4	-378824.8	1	445945.6	-58.15588	8.000629E-011	0.0052848	5
	60	31	0.999041	275935.3	-437149	1	516952.2	-57.73923	1.355881E-010	0.0052821	5
