EXPLAIN
TAG	EISPOT
TITLE	LABEL	Potentiostatic IDE	Test &Identifier
DATE	LABEL	9/14/2019	Date
TIME	LABEL	13:36:00	Time
NOTES	NOTES	1	&Notes...
	
PSTAT	PSTAT	REF600-11020	Potentiostat
VDC	POTEN	0.00000E+000	T	DC &Voltage (V)
FREQINIT	QUANT	1.00000E+006	Initial Fre&q. (Hz)
FREQFINAL	QUANT	1.00000E+000	Final Fre&q. (Hz)
PTSPERDEC	QUANT	1.00000E+001	Points/&decade
VAC	QUANT	2.50000E+001	AC &Voltage (mV rms)
AREA	QUANT	1.00000E-002	&Area (cm^2)
CONDIT	TWOPARAM	T	5.00000E+000	0.00000E+000	Conditionin&g	Time(s)	E(V)
DELAY	TWOPARAM	T	5.00000E+000	0.00000E+000	Init. De&lay	Time(s)	Stab.(mV/s)
SPEED	SELECTOR	1	&Optimize for:
ZGUESS	QUANT	1.00000E+007	E&stimated Z (ohms)
OCVCURVE	TABLE	19
	Pt	T	Vf	Vm	Ach	Over
	#	s	V vs. Ref.	V	V	bits
	0	0.258333	3.70762E-003	3.70762E-003	5.43899E-004	...........
	1	0.516667	3.70621E-003	3.63391E-003	5.37466E-004	...........
	2	0.775	3.69758E-003	3.56489E-003	5.36966E-004	...........
	3	1.03333	3.67149E-003	3.40805E-003	5.37399E-004	...........
	4	1.29167	3.61573E-003	3.17197E-003	5.39466E-004	...........
	5	1.55	3.51886E-003	3.00352E-003	5.37866E-004	...........
	6	1.80833	3.37952E-003	2.86772E-003	5.39899E-004	...........
	7	2.06667	3.21410E-003	2.73616E-003	5.36333E-004	...........
	8	2.325	3.04617E-003	2.59053E-003	5.32000E-004	...........
	9	2.58333	2.89116E-003	2.56607E-003	5.40666E-004	...........
	10	2.84167	2.75662E-003	2.46442E-003	5.41166E-004	...........
	11	3.1	2.64620E-003	2.41542E-003	5.38333E-004	...........
	12	3.35833	2.55932E-003	2.45307E-003	5.37633E-004	...........
	13	3.61667	2.49516E-003	2.38538E-003	5.36199E-004	...........
	14	3.875	2.45056E-003	2.29645E-003	5.41299E-004	...........
	15	4.13333	2.41224E-003	2.21857E-003	5.40933E-004	...........
	16	4.39167	2.36462E-003	2.16715E-003	5.41333E-004	...........
	17	4.65	2.30415E-003	2.09864E-003	5.43833E-004	...........
	18	4.90833	2.23722E-003	2.02948E-003	5.38333E-004	...........
EOC	QUANT	0.0022372	Open Circuit (V)
PSTATMODEL	IQUANT	4	Pstat Model
PSTATSECTION	LABEL	REF600-11020	Pstat Section
PSTATSERIALNO	LABEL	11020	Pstat Serial Number
CTRLMODE	IQUANT	1	Control Mode
IESTAB	IQUANT	0	I/E Stability
CASPEED	IQUANT	1	Control Amp Speed
CONVENTION	IQUANT	1	Current Convention
ICHRANGE	IQUANT	2	Ich Range
ICHRANGEMODE	TOGGLE	F	Ich Auto Range
ICHOFFSETENABLE	TOGGLE	T	Ich Offset Enable
ICHOFFSET	QUANT	0	Ich Offset (V)
ICHFILTER	IQUANT	3	Ich Filter
VCHRANGE	IQUANT	2	Vch Range
VCHRANGEMODE	TOGGLE	F	Vch Auto Range
VCHOFFSETENABLE	TOGGLE	T	Vch Offset Enable
VCHOFFSET	QUANT	0	Vch Offset (V)
VCHFILTER	IQUANT	3	Vch Filter
ACHRANGE	IQUANT	2	Ach Range
ACHOFFSETENABLE	TOGGLE	F	Ach Offset Enable
ACHOFFSET	QUANT	0	Ach Offset (V)
ACHFILTER	IQUANT	3	Ach Filter
IERANGELOWERLIMIT	IQUANT	1	I/E Range Lower Limit
IERANGEMODE	TOGGLE	F	I/E AutoRange
IERANGE	IQUANT	2	I/E Range
POSFEEDENABLE	TOGGLE	F	Positive Feedback IR Comp
POSFEEDRESISTANCE	QUANT	0	Positive Feedback Resistance (ohm)
ACHSELECT	IQUANT	0	Ach Select
CABLEID	IQUANT	14	Cable ID
DCCALDATE	LABEL	8/19/2019	DC Calibration Date
ACCALDATE	LABEL	8/19/2019	AC Calibration Date
THERMOSELECT	IQUANT	1	Thermo Select
FRAMEWORKVERSION	QUANT	6.33	Framework Version
INSTRUMENTVERSION	LABEL	3.50	Instrument Version
ZCURVE	TABLE
	Pt	Time	Freq	Zreal	Zimag	Zsig	Zmod	Zphz	Idc	Vdc	IERange
	#	s	Hz	ohm	ohm	V	ohm	°	A	V	#
	0	2	1000078	2371.721	-1902.171	1	3040.282	-38.73035	-1.833319E-006	0.0050493	8
	1	4	794390.6	2755.132	-1860.185	1	3324.311	-34.02608	8.722769E-007	0.0044065	8
	2	5	630984.4	3106.858	-1743.957	1	3562.858	-29.30658	-2.251199E-007	0.0039083	8
	3	6	501234.4	3417.497	-1590.986	1	3769.685	-24.96392	-2.091345E-006	0.0043509	8
	4	8	398109.4	3683.404	-1433.107	1	3952.374	-21.25959	-1.829171E-006	0.0042791	8
	5	9	316265.6	3891.397	-1226.334	1	4080.057	-17.49171	-8.797307E-007	0.0040219	8
	6	10	251203.1	4039.144	-1077.548	1	4180.406	-14.93729	-1.12852E-006	0.0038661	8
	7	12	199546.9	4146.622	-935.7755	1	4250.9	-12.71701	3.12803E-007	0.0037227	8
	8	13	158578.1	4230.897	-796.9174	1	4305.295	-10.66706	-3.208147E-008	0.0037638	8
	9	14	125953.1	4326.331	-649.2062	1	4374.769	-8.53409	-8.101544E-007	0.0056621	7
	10	16	100078.1	4368.296	-577.7316	1	4406.335	-7.533963	-6.297972E-008	0.0039305	7
	11	17	79453.13	4409.186	-530.1686	1	4440.946	-6.856432	1.015724E-007	0.0037474	7
	12	18	63140.62	4445.432	-497.4466	1	4473.177	-6.384872	1.790476E-008	0.0039081	7
	13	20	50203.12	4487.031	-479.1343	1	4512.54	-6.095064	-6.178733E-008	0.0039166	7
	14	21	39890.62	4525.749	-475.6669	1	4550.677	-5.999893	-7.923969E-008	0.0039374	7
	15	22	31640.63	4561.387	-482.5568	1	4586.841	-6.038955	-3.952902E-009	0.0037693	7
	16	24	25171.88	4600.028	-503.4803	1	4627.499	-6.24625	1.1544E-007	0.0036585	7
	17	25	20015.62	4640.383	-537.1332	1	4671.367	-6.602712	-7.62393E-008	0.0040595	7
	18	26	15890.62	4673.679	-592.645	1	4711.104	-7.226811	4.56023E-008	0.0037737	7
	19	28	12609.37	4734.355	-650.1907	1	4778.793	-7.819775	-7.67503E-008	0.0040598	7
	20	29	10078.13	4785.703	-727.6396	1	4840.704	-8.645292	4.174782E-009	0.0038047	7
	21	30	8015.625	4843.08	-829.7516	1	4913.646	-9.72194	-5.899945E-008	0.0039077	7
	22	32	6328.125	4912	-958.058	1	5004.56	-11.03665	-1.138671E-008	0.0038558	7
	23	33	5015.625	4986.833	-1110.324	1	5108.945	-12.55223	4.735795E-009	0.0038067	7
	24	34	3984.375	5068.856	-1293.484	1	5231.291	-14.31538	-8.881709E-009	0.0038785	7
	25	35	3170.956	5162.882	-1516.202	1	5380.912	-16.36612	1.027288E-007	0.0037227	7
	26	37	2527.573	5267.7	-1780.147	1	5560.359	-18.67198	-1.045848E-008	0.0038729	7
	27	38	1976.103	5396.675	-2129.576	1	5801.654	-21.53463	2.194907E-008	0.0039129	7
	28	39	1577.524	5531.045	-2516.198	1	6076.488	-24.46187	6.351101E-008	0.0037245	7
	29	41	1265.625	5680.552	-2974.079	1	6412.006	-27.63452	-4.074818E-009	0.003809	7
	30	42	998.264	5868.166	-3567.833	1	6867.663	-31.29952	-4.138212E-008	0.0038351	7
	31	43	796.875	6065.137	-4265.124	1	7414.659	-35.11564	2.256382E-008	0.0039032	7
	32	45	627.7902	6311.79	-5161.626	1	8153.593	-39.27546	1.061621E-007	0.0037261	7
	33	46	505.5147	6571.751	-6147.762	1	8999.049	-43.09082	2.368289E-008	0.0039091	7
	34	47	397.9953	6916.973	-7476.671	1	10185.54	-47.22683	1.249872E-009	0.0037859	6
	35	49	315.5048	7307.619	-9067.728	1	11645.81	-51.1349	5.103003E-010	0.0037811	6
	36	50	252.4038	7756.742	-10929.51	1	13402.28	-54.63643	4.230247E-010	0.0037744	6
	37	51	198.6229	8340.933	-13376.46	1	15763.91	-58.05426	1.4298E-009	0.0037781	6
	38	53	158.3615	9014.487	-16212.47	1	18550.07	-60.92498	1.77624E-009	0.0037776	6
	39	54	125.558	9853.39	-19757.68	1	22078.38	-63.49403	1.009438E-009	0.0037793	6
	40	55	100.4464	10847.85	-23950.23	1	26292.38	-65.63265	3.686631E-010	0.003775	6
	41	57	79.00281	12252.55	-29371.18	1	31824.38	-67.35593	5.683818E-010	0.0037784	6
	42	58	63.3446	13404.52	-35770.53	1	38199.63	-69.4572	1.380565E-009	0.0037791	6
	43	60	49.86702	16090.18	-43457.5	1	46340.57	-69.68288	3.802051E-010	0.0037771	6
	44	61	39.72458	18624.93	-53104.61	1	56276	-70.67313	1.023648E-009	0.0037805	6
	45	62	31.6723	22136.17	-64670.7	1	68354.3	-71.10441	5.923625E-011	0.0037834	6
	46	64	24.93351	26712.1	-78968.85	1	83364.36	-71.31132	1.205992E-009	0.003781	6
	47	65	19.86229	32605.41	-95555.6	1	100965.3	-71.15936	1.674488E-009	0.0037879	6
	48	66	15.83615	40868.82	-114921.8	1	121972.5	-70.42345	5.338062E-011	0.0037815	5
	49	68	12.40079	51644.95	-140588.5	1	149774.3	-69.82928	9.024204E-010	0.003782	5
	50	69	9.93114	65615.16	-167104.7	1	179525.3	-68.5621	6.446099E-010	0.0037778	5
	51	71	7.944915	82379.01	-197900.1	1	214361.3	-67.39972	3.449616E-011	0.003788	5
	52	72	6.317385	105061.3	-233525.3	1	256070.2	-65.77737	6.90594E-011	0.0037997	5
	53	74	5.008013	133858.8	-273818.4	1	304786.3	-63.94785	7.721783E-010	0.0037921	5
	54	77	3.945707	171292.1	-319199.3	1	362255.7	-61.78063	-3.338978E-011	0.003774	5
	55	79	3.158693	213694.7	-364180.9	1	422247.8	-59.59636	3.666679E-010	0.0037816	5
	56	83	2.504006	264825.3	-412924.3	1	490549.6	-57.32628	2.145809E-010	0.0037938	5
	57	85	1.998082	320290.5	-461443.9	1	561708.5	-55.23529	6.865206E-010	0.0037748	5
	58	89	1.584686	385725.4	-512032.2	1	641062.5	-53.00846	2.761109E-010	0.0037376	5
	59	92	1.266892	451740.9	-564445.6	1	722958.3	-51.32878	4.973005E-010	0.0038013	5
	60	96	0.999041	527590.1	-621765.9	1	815441.1	-49.68423	-6.493674E-011	0.0037403	5
