EXPLAIN
TAG	EISPOT
TITLE	LABEL	Potentiostatic EIS	Test &Identifier
DATE	LABEL	10/6/2019	Date
TIME	LABEL	9:46:18	Time
NOTES	NOTES	2	&Notes...
	
	
PSTAT	PSTAT	REF600-11020	Potentiostat
VDC	POTEN	0.00000E+000	T	DC &Voltage (V)
FREQINIT	QUANT	1.00000E+006	Initial Fre&q. (Hz)
FREQFINAL	QUANT	1.00000E+000	Final Fre&q. (Hz)
PTSPERDEC	QUANT	1.00000E+001	Points/&decade
VAC	QUANT	2.50000E+001	AC &Voltage (mV rms)
AREA	QUANT	1.00000E-002	&Area (cm^2)
CONDIT	TWOPARAM	T	5.00000E+000	0.00000E+000	Conditionin&g	Time(s)	E(V)
DELAY	TWOPARAM	T	5.00000E+000	0.00000E+000	Init. De&lay	Time(s)	Stab.(mV/s)
SPEED	SELECTOR	1	&Optimize for:
ZGUESS	QUANT	1.00000E+004	E&stimated Z (ohms)
OCVCURVE	TABLE	19
	Pt	T	Vf	Vm	Ach	Over
	#	s	V vs. Ref.	V	V	bits
	0	0.258333	1.72512E-002	1.72512E-002	5.17533E-004	...........
	1	0.516667	1.72593E-002	1.76757E-002	5.16433E-004	...........
	2	0.775	1.73091E-002	1.80787E-002	5.18266E-004	...........
	3	1.03333	1.74495E-002	1.84375E-002	5.20600E-004	...........
	4	1.29167	1.76989E-002	1.88027E-002	5.17000E-004	...........
	5	1.55	1.80277E-002	1.91504E-002	5.18533E-004	...........
	6	1.80833	1.83907E-002	1.94880E-002	5.15933E-004	...........
	7	2.06667	1.87562E-002	1.97972E-002	5.20000E-004	...........
	8	2.325	1.91092E-002	2.00978E-002	5.14933E-004	...........
	9	2.58333	1.94447E-002	2.03797E-002	5.15833E-004	...........
	10	2.84167	1.97622E-002	2.06512E-002	5.17000E-004	...........
	11	3.1	2.00629E-002	2.09052E-002	5.19700E-004	...........
	12	3.35833	2.03483E-002	2.11550E-002	5.13500E-004	...........
	13	3.61667	2.06200E-002	2.13911E-002	5.18333E-004	...........
	14	3.875	2.08792E-002	2.16128E-002	5.16966E-004	...........
	15	4.13333	2.11268E-002	2.18238E-002	5.20433E-004	...........
	16	4.39167	2.13629E-002	2.20342E-002	5.18766E-004	...........
	17	4.65	2.15881E-002	2.22271E-002	5.20533E-004	...........
	18	4.90833	2.18035E-002	2.24246E-002	5.21400E-004	...........
EOC	QUANT	0.0218035	Open Circuit (V)
PSTATMODEL	IQUANT	4	Pstat Model
PSTATSECTION	LABEL	REF600-11020	Pstat Section
PSTATSERIALNO	LABEL	11020	Pstat Serial Number
CTRLMODE	IQUANT	1	Control Mode
IESTAB	IQUANT	0	I/E Stability
CASPEED	IQUANT	1	Control Amp Speed
CONVENTION	IQUANT	1	Current Convention
ICHRANGE	IQUANT	2	Ich Range
ICHRANGEMODE	TOGGLE	F	Ich Auto Range
ICHOFFSETENABLE	TOGGLE	T	Ich Offset Enable
ICHOFFSET	QUANT	0	Ich Offset (V)
ICHFILTER	IQUANT	3	Ich Filter
VCHRANGE	IQUANT	2	Vch Range
VCHRANGEMODE	TOGGLE	F	Vch Auto Range
VCHOFFSETENABLE	TOGGLE	T	Vch Offset Enable
VCHOFFSET	QUANT	0	Vch Offset (V)
VCHFILTER	IQUANT	3	Vch Filter
ACHRANGE	IQUANT	2	Ach Range
ACHOFFSETENABLE	TOGGLE	F	Ach Offset Enable
ACHOFFSET	QUANT	0	Ach Offset (V)
ACHFILTER	IQUANT	3	Ach Filter
IERANGELOWERLIMIT	IQUANT	1	I/E Range Lower Limit
IERANGEMODE	TOGGLE	F	I/E AutoRange
IERANGE	IQUANT	6	I/E Range
POSFEEDENABLE	TOGGLE	F	Positive Feedback IR Comp
POSFEEDRESISTANCE	QUANT	0	Positive Feedback Resistance (ohm)
ACHSELECT	IQUANT	0	Ach Select
CABLEID	IQUANT	14	Cable ID
DCCALDATE	LABEL	8/19/2019	DC Calibration Date
ACCALDATE	LABEL	8/19/2019	AC Calibration Date
THERMOSELECT	IQUANT	1	Thermo Select
FRAMEWORKVERSION	QUANT	6.33	Framework Version
INSTRUMENTVERSION	LABEL	3.50	Instrument Version
ZCURVE	TABLE
	Pt	Time	Freq	Zreal	Zimag	Zsig	Zmod	Zphz	Idc	Vdc	IERange
	#	s	Hz	ohm	ohm	V	ohm	°	A	V	#
	0	1	1000078	2422.973	-1751.287	1	2989.616	-35.85881	4.585208E-006	0.0229309	8
	1	2	794390.6	2761.112	-1711.439	1	3248.502	-31.79217	-5.693977E-006	0.0244109	8
	2	4	630984.4	3078.089	-1611.984	1	3474.641	-27.64089	2.289551E-006	0.023454	8
	3	5	501234.4	3340.682	-1481.959	1	3654.635	-23.92254	2.084572E-006	0.0228526	8
	4	6	398109.4	3565.43	-1331.835	1	3806.058	-20.48273	-3.470195E-006	0.0240085	8
	5	8	316265.6	3768.996	-1190.649	1	3952.591	-17.53165	1.447659E-006	0.0232134	8
	6	9	251203.1	3891.065	-1078.798	1	4037.845	-15.49604	-1.260479E-006	0.0237558	8
	7	10	199546.9	4006.591	-977.93	1	4124.211	-13.71657	3.879993E-006	0.022693	8
	8	12	158578.1	4109.966	-882.7337	1	4203.694	-12.12177	-4.398754E-006	0.0241182	8
	9	14	125953.1	4212.898	-762.1701	1	4281.287	-10.25466	1.464783E-006	0.0202955	7
	10	15	100078.1	4275.997	-735.1376	1	4338.73	-9.75504	-6.773592E-009	0.0232497	7
	11	16	79453.13	4345.405	-722.595	1	4405.075	-9.441293	-3.036117E-008	0.0232916	7
	12	18	63140.62	4415.303	-725.019	1	4474.434	-9.325089	-4.259408E-008	0.0233033	7
	13	19	50203.12	4485.854	-742.4598	1	4546.881	-9.397906	4.489283E-008	0.023247	7
	14	20	39890.62	4560.723	-775.4756	1	4626.182	-9.64991	1.646864E-008	0.0233891	7
	15	22	31640.63	4640.198	-824.709	1	4712.917	-10.07802	-7.053073E-008	0.0234252	7
	16	23	25171.88	4726.198	-889.8231	1	4809.234	-10.66252	-5.056081E-008	0.0234102	7
	17	24	20015.62	4815.616	-967.66	1	4911.876	-11.36182	-8.487955E-008	0.0234095	7
	18	26	15890.62	4924.071	-1068.855	1	5038.743	-12.24704	-1.130701E-008	0.0233238	7
	19	27	12609.37	5043.125	-1187.496	1	5181.048	-13.24998	6.553222E-009	0.0232749	7
	20	28	10078.13	5168.8	-1319.648	1	5334.601	-14.32224	-5.791178E-008	0.0233638	7
	21	30	8015.625	5307.94	-1487.673	1	5512.477	-15.65676	-8.383187E-009	0.0232738	7
	22	31	6328.125	5474.563	-1682.462	1	5727.261	-17.08342	-8.196196E-008	0.023534	7
	23	33	5015.625	5659.585	-1905.945	1	5971.896	-18.61168	-3.216865E-009	0.0232333	7
	24	34	3984.375	5861.641	-2172.956	1	6251.446	-20.34013	-6.945608E-008	0.0234165	7
	25	35	3170.956	6102.984	-2459.551	1	6579.955	-21.94983	1.096898E-007	0.0231868	7
	26	37	2527.573	6368.544	-2790.31	1	6952.998	-23.66012	8.689386E-008	0.0231151	7
	27	38	1976.103	6700.045	-3204.865	1	7427.097	-25.56341	-9.275513E-009	0.0232741	7
	28	39	1577.524	7035.589	-3632.207	1	7917.856	-27.30559	8.689572E-008	0.0231114	7
	29	41	1265.625	7399.845	-4095.849	1	8457.759	-28.96474	4.813763E-008	0.023142	7
	30	42	998.264	7817.211	-4677.765	1	9109.9	-30.89601	-6.919112E-008	0.0234218	7
	31	43	796.875	8235.285	-5310.07	1	9798.81	-32.81372	-1.189408E-008	0.0234346	6
	32	45	627.7902	8685.91	-6110.894	1	10620.17	-35.12796	6.372921E-009	0.0230084	6
	33	46	505.5147	9104.575	-6991.1	1	11479.06	-37.51946	-1.103289E-008	0.0233454	6
	34	48	397.9953	9566.81	-8181.966	1	12588.42	-40.53855	9.404377E-011	0.0232517	6
	35	49	315.5048	10023.7	-9633.72	1	13902.63	-43.86348	2.676589E-010	0.023251	6
	36	50	252.4038	10486.04	-11378	1	15473.07	-47.33613	-1.770391E-010	0.0232481	6
	37	52	198.6229	11023.55	-13734.47	1	17611.2	-51.24879	2.841381E-010	0.0232479	6
	38	53	158.3615	11606.17	-16534.02	1	20200.91	-54.93281	-4.498178E-011	0.0232462	6
	39	54	125.558	12315.6	-20102.71	1	23575.26	-58.50696	4.076168E-010	0.0232487	6
	40	56	100.4464	13155.26	-24339.69	1	27667.33	-61.6094	4.237918E-010	0.0232471	6
	41	57	79.00281	14246.94	-30088.97	1	33291.46	-64.66273	-5.253869E-011	0.0232468	6
	42	59	63.3446	15371.63	-36368.59	1	39483.69	-67.08806	5.585856E-010	0.0232454	6
	43	60	49.86702	17729.36	-44991.31	1	48358.54	-68.49249	5.993729E-010	0.0232418	6
	44	61	39.72458	19890.54	-55009.19	1	58494.82	-70.12074	3.659467E-010	0.0232465	6
	45	63	31.6723	22982.78	-67096.43	1	70923.47	-71.09195	2.588163E-010	0.0232477	6
	46	64	24.93351	27070.37	-82512.93	1	86840.02	-71.83667	6.716061E-011	0.0232472	6
	47	66	19.86229	32195.21	-100256.6	1	105299.2	-72.19672	-1.081593E-010	0.0232513	6
	48	67	15.83615	38011.43	-121506.8	1	127313.6	-72.62855	1.00072E-009	0.0232546	5
	49	68	12.40079	48142.31	-149369.8	1	156936.4	-72.13573	-4.87094E-011	0.0232579	5
	50	70	9.93114	59114.81	-179031.1	1	188538.4	-71.72714	-8.407521E-011	0.0232573	5
	51	71	7.944915	73097.4	-214242.7	1	226369.5	-71.16089	2.972566E-010	0.0232614	5
	52	73	6.317385	90342.99	-257212.5	1	272617.2	-70.64675	-2.316664E-010	0.023258	5
	53	75	5.008013	113120.8	-308631.6	1	328709.3	-69.87092	-1.597287E-010	0.0232469	5
	54	78	3.945707	142557.1	-370547.8	1	397024.2	-68.95728	6.123576E-011	0.0232614	5
	55	80	3.158693	176423.7	-438304.4	1	472478.7	-68.07452	-1.29565E-010	0.0232372	5
	56	84	2.504006	220689	-520113.6	1	564997.2	-67.00803	1.50728E-010	0.0232545	5
	57	86	1.998082	273555.9	-610784.1	1	669245.9	-65.87351	1.459073E-010	0.0232591	5
	58	89	1.584686	343303.4	-717701.9	1	795583.6	-64.43649	-4.008064E-011	0.0231965	5
	59	93	1.266892	422147.7	-832689.6	1	933584.8	-63.11641	1.245955E-010	0.0232442	5
	60	97	0.999041	525866.1	-973446	1	1106405	-61.6216	-2.493687E-010	0.0232412	4
