EXPLAIN
TAG	EISPOT
TITLE	LABEL	Potentiostatic EIS	Test &Identifier
DATE	LABEL	8/14/2018	Date
TIME	LABEL	4:59:18	Time
NOTES	NOTES	1	&Notes...
	
PSTAT	PSTAT	REF600-11020	Potentiostat
VDC	POTEN	0.00000E+000	T	DC &Voltage (V)
FREQINIT	QUANT	1.00000E+006	Initial Fre&q. (Hz)
FREQFINAL	QUANT	1.00000E+000	Final Fre&q. (Hz)
PTSPERDEC	QUANT	1.00000E+001	Points/&decade
VAC	QUANT	2.50000E+001	AC &Voltage (mV rms)
AREA	QUANT	1.00000E-002	&Area (cm^2)
CONDIT	TWOPARAM	T	5.00000E+000	0.00000E+000	Conditionin&g	Time(s)	E(V)
DELAY	TWOPARAM	T	5.00000E+000	0.00000E+000	Init. De&lay	Time(s)	Stab.(mV/s)
SPEED	SELECTOR	0	&Optimize for:
ZGUESS	QUANT	1.00000E+005	E&stimated Z (ohms)
OCVCURVE	TABLE	19
	Pt	T	Vf	Vm	Ach	Over
	#	s	V vs. Ref.	V	V	bits
	0	0.258333	6.53585E-003	6.53585E-003	6.05565E-004	...........
	1	0.516667	6.53813E-003	6.65559E-003	6.08498E-004	...........
	2	0.775	6.55251E-003	6.78646E-003	6.06932E-004	...........
	3	1.03333	6.59446E-003	6.92079E-003	6.01432E-004	...........
	4	1.29167	6.67228E-003	7.04509E-003	6.04565E-004	...........
	5	1.55	6.77976E-003	7.17121E-003	6.01265E-004	...........
	6	1.80833	6.90289E-003	7.27743E-003	6.01065E-004	...........
	7	2.06667	7.02879E-003	7.37226E-003	6.09065E-004	...........
	8	2.325	7.14959E-003	7.49371E-003	5.98265E-004	...........
	9	2.58333	7.26487E-003	7.67032E-003	5.92599E-004	...........
	10	2.84167	7.38327E-003	7.85562E-003	5.94265E-004	...........
	11	3.1	7.51556E-003	7.97579E-003	5.95432E-004	...........
	12	3.35833	7.66087E-003	8.02296E-003	5.96132E-004	...........
	13	3.61667	7.80334E-003	8.14152E-003	5.99732E-004	...........
	14	3.875	7.92874E-003	8.26841E-003	6.06332E-004	...........
	15	4.13333	8.04031E-003	8.43031E-003	6.01932E-004	...........
	16	4.39167	8.15263E-003	8.54854E-003	6.03998E-004	...........
	17	4.65	8.27438E-003	8.65730E-003	5.98399E-004	...........
	18	4.90833	8.40180E-003	8.75920E-003	6.06698E-004	...........
EOC	QUANT	0.0084018	Open Circuit (V)
PSTATMODEL	IQUANT	4	Pstat Model
PSTATSECTION	LABEL	REF600-11020	Pstat Section
PSTATSERIALNO	LABEL	11020	Pstat Serial Number
CTRLMODE	IQUANT	1	Control Mode
IESTAB	IQUANT	0	I/E Stability
CASPEED	IQUANT	1	Control Amp Speed
CONVENTION	IQUANT	1	Current Convention
ICHRANGE	IQUANT	2	Ich Range
ICHRANGEMODE	TOGGLE	F	Ich Auto Range
ICHOFFSETENABLE	TOGGLE	T	Ich Offset Enable
ICHOFFSET	QUANT	0	Ich Offset (V)
ICHFILTER	IQUANT	3	Ich Filter
VCHRANGE	IQUANT	2	Vch Range
VCHRANGEMODE	TOGGLE	F	Vch Auto Range
VCHOFFSETENABLE	TOGGLE	T	Vch Offset Enable
VCHOFFSET	QUANT	0	Vch Offset (V)
VCHFILTER	IQUANT	3	Vch Filter
ACHRANGE	IQUANT	2	Ach Range
ACHOFFSETENABLE	TOGGLE	F	Ach Offset Enable
ACHOFFSET	QUANT	0	Ach Offset (V)
ACHFILTER	IQUANT	3	Ach Filter
IERANGELOWERLIMIT	IQUANT	1	I/E Range Lower Limit
IERANGEMODE	TOGGLE	F	I/E AutoRange
IERANGE	IQUANT	5	I/E Range
POSFEEDENABLE	TOGGLE	F	Positive Feedback IR Comp
POSFEEDRESISTANCE	QUANT	0	Positive Feedback Resistance (ohm)
ACHSELECT	IQUANT	0	Ach Select
CABLEID	IQUANT	14	Cable ID
DCCALDATE	LABEL	8/19/2019	DC Calibration Date
ACCALDATE	LABEL	8/19/2019	AC Calibration Date
THERMOSELECT	IQUANT	1	Thermo Select
FRAMEWORKVERSION	QUANT	6.33	Framework Version
INSTRUMENTVERSION	LABEL	3.50	Instrument Version
ZCURVE	TABLE
	Pt	Time	Freq	Zreal	Zimag	Zsig	Zmod	Zphz	Idc	Vdc	IERange
	#	s	Hz	ohm	ohm	V	ohm	°	A	V	#
	0	2	1000078	2004.63	-879.387	1	2189.033	-23.686	-5.417272E-009	0.0107736	8
	1	2	794390.6	2154.001	-784.7686	1	2292.506	-20.01823	-1.366985E-006	0.0108961	8
	2	2	630984.4	2263.616	-691.4223	1	2366.86	-16.98531	4.517559E-006	0.0094796	8
	3	3	501234.4	2343.948	-597.029	1	2418.788	-14.29	1.023769E-006	0.0098596	8
	4	3	398109.4	2402.123	-523.9208	1	2458.594	-12.30395	-2.408277E-006	0.0104572	8
	5	3	316265.6	2466.283	-447.4789	1	2506.549	-10.28379	1.004729E-006	0.0097428	8
	6	4	251203.1	2499.482	-388.2876	1	2529.462	-8.830158	-2.985374E-006	0.0106691	8
	7	4	199546.9	2535.777	-348.482	1	2559.61	-7.824923	-1.941676E-007	0.0101369	8
	8	4	158578.1	2558.216	-306.9181	1	2576.562	-6.841274	-2.779067E-006	0.0106259	8
	9	4	125953.1	2605.032	-241.8316	1	2616.233	-5.30371	4.519406E-007	0.0097002	7
	10	5	100078.1	2618.981	-230.7816	1	2629.13	-5.03583	-4.100808E-008	0.0101118	7
	11	5	79453.13	2638.787	-231.9155	1	2648.958	-5.022658	-3.033795E-008	0.0100383	7
	12	5	63140.62	2659.207	-239.5273	1	2669.973	-5.147009	-5.406613E-008	0.0101124	7
	13	6	50203.12	2681.061	-250.5623	1	2692.744	-5.339149	-8.736504E-009	0.0100655	7
	14	6	39890.62	2705.197	-266.2244	1	2718.265	-5.620507	-3.577916E-008	0.0100444	7
	15	6	31640.63	2731.321	-287.6074	1	2746.422	-6.01108	6.605978E-008	0.0098813	7
	16	7	25171.88	2758.813	-314.3761	1	2776.668	-6.501005	2.44291E-008	0.0099945	7
	17	7	20015.62	2790.47	-345.7555	1	2811.809	-7.063281	1.08514E-007	0.0098656	7
	18	7	15890.62	2821.929	-388.4956	1	2848.546	-7.838647	-1.643427E-008	0.0100555	7
	19	8	12609.37	2857.083	-436.3001	1	2890.204	-8.682462	2.5984E-008	0.0099979	7
	20	8	10078.13	2891.759	-496.7255	1	2934.111	-9.74674	-2.905159E-008	0.0100356	7
	21	8	8015.625	2931.754	-566.5547	1	2985.995	-10.93745	-4.131737E-008	0.010059	7
	22	9	6328.125	2974.932	-659.1174	1	3047.073	-12.49249	1.097282E-007	0.009866	7
	23	9	5015.625	3021.049	-769.263	1	3117.451	-14.28588	-4.879963E-008	0.0100854	7
	24	9	3984.375	3071.713	-905.3062	1	3202.343	-16.42149	-3.969216E-008	0.0101	7
	25	9	3170.956	3122.359	-1067.824	1	3299.905	-18.88031	-4.057512E-008	0.0100594	7
	26	10	2527.573	3179.409	-1266.66	1	3422.437	-21.72208	2.7031E-008	0.0099929	7
	27	10	1976.103	3247.726	-1533.745	1	3591.67	-25.27912	6.824759E-008	0.0098849	7
	28	10	1577.524	3319.225	-1836.937	1	3793.625	-28.96117	-1.519659E-008	0.0100735	7
	29	11	1265.625	3401.021	-2204.842	1	4053.18	-32.95487	-3.156915E-008	0.0100242	7
	30	11	998.264	3498.563	-2696.196	1	4416.946	-37.61994	-3.919711E-008	0.0100544	7
	31	11	796.875	3607.584	-3269.182	1	4868.491	-42.18278	-1.434806E-008	0.0100673	7
	32	12	627.7902	3749.556	-4021.598	1	5498.401	-47.00491	-3.886545E-008	0.0101487	7
	33	12	505.5147	3911.469	-4861.475	1	6239.674	-51.18037	-3.31647E-008	0.0100373	7
	34	12	397.9953	4134.068	-6008.607	1	7293.414	-55.47108	1.038737E-009	0.0100348	7
	35	13	315.5048	4410.679	-7386.463	1	8603.135	-59.15731	1.768143E-009	0.0100316	7
	36	13	252.4038	4753.939	-9005.724	1	10183.47	-62.17133	1.888274E-009	0.0100309	7
	37	13	198.6229	5241.062	-11142.04	1	12313.15	-64.80835	2.018778E-010	0.0099701	6
	38	14	158.3615	5843.721	-13612.29	1	14813.63	-66.76629	-3.682234E-010	0.0099703	6
	39	14	125.558	6660.735	-16698.83	1	17978.22	-68.25421	1.968434E-010	0.009972	6
	40	14	100.4464	7723.662	-20264.3	1	21686.33	-69.13584	-6.251927E-010	0.0099698	6
	41	15	79.00281	9249.326	-24958.38	1	26617.12	-69.6658	-9.104473E-010	0.0099687	6
	42	15	63.3446	10700.64	-30043.75	1	31892.48	-70.39571	3.044881E-010	0.0099612	6
	43	15	49.86702	13445.75	-36501.38	1	38899.09	-69.77808	4.130223E-010	0.0099617	6
	44	16	39.72458	16896.59	-44022.8	1	47154.02	-69.00247	2.940604E-010	0.0099665	6
	45	16	31.6723	21124.36	-52755.03	1	56827.21	-68.17767	1.041282E-009	0.0099643	6
	46	16	24.93351	27096.63	-62912.51	1	68499.72	-66.6983	2.316724E-010	0.0099638	6
	47	17	19.86229	34043.98	-73916.9	1	81379.98	-65.27057	1.993279E-009	0.0099689	6
	48	17	15.83615	41788.04	-86589.13	1	96145.3	-64.23798	2.241091E-010	0.0099619	6
	49	17	12.40079	54623.64	-101353.9	1	115136.2	-61.67801	-1.028223E-010	0.0099668	5
	50	18	9.93114	66003.93	-115146.6	1	132722.5	-60.17796	-1.118167E-009	0.0099645	5
	51	18	7.944915	79675.66	-130339.8	1	152763.4	-58.56289	-1.827942E-009	0.009967	5
	52	19	6.317385	95860.9	-147463.3	1	175882.7	-56.97347	-1.13554E-009	0.0099819	5
	53	20	5.008013	113426.5	-166464.3	1	201434.7	-55.73001	-6.609978E-010	0.0099637	5
	54	21	3.945707	132921.9	-187997	1	230241.4	-54.73806	-1.245875E-010	0.0099619	5
	55	22	3.158693	151258.4	-211526.4	1	260043.3	-54.43219	-6.587311E-011	0.0099818	5
	56	24	2.504006	172116.7	-240166.7	1	295472.9	-54.37253	-4.029901E-010	0.0099718	5
	57	25	1.998082	192755.9	-273575.2	1	334661.3	-54.8322	-3.200115E-010	0.0099552	5
	58	27	1.584686	217105.9	-314689.1	1	382314.3	-55.39798	-1.195256E-010	0.0100042	5
	59	29	1.266892	242980.5	-364495.6	1	438060	-56.31173	-1.002011E-010	0.0100052	5
	60	31	0.999041	274017.8	-427955.4	1	508164.9	-57.36876	-8.836086E-011	0.0099877	5
