EXPLAIN
TAG	EISPOT
TITLE	LABEL	Potentiostatic EIS	Test &Identifier
DATE	LABEL	9/24/2019	Date
TIME	LABEL	8:49:27	Time
NOTES	NOTES	1	&Notes...
	
PSTAT	PSTAT	REF600-11020	Potentiostat
VDC	POTEN	0.00000E+000	T	DC &Voltage (V)
FREQINIT	QUANT	1.00000E+006	Initial Fre&q. (Hz)
FREQFINAL	QUANT	1.00000E+000	Final Fre&q. (Hz)
PTSPERDEC	QUANT	1.00000E+001	Points/&decade
VAC	QUANT	2.50000E+001	AC &Voltage (mV rms)
AREA	QUANT	1.00000E-002	&Area (cm^2)
CONDIT	TWOPARAM	T	5.00000E+000	0.00000E+000	Conditionin&g	Time(s)	E(V)
DELAY	TWOPARAM	T	5.00000E+000	0.00000E+000	Init. De&lay	Time(s)	Stab.(mV/s)
SPEED	SELECTOR	1	&Optimize for:
ZGUESS	QUANT	1.00000E+004	E&stimated Z (ohms)
OCVCURVE	TABLE	19
	Pt	T	Vf	Vm	Ach	Over
	#	s	V vs. Ref.	V	V	bits
	0	0.258333	-1.57400E-002	-1.57400E-002	5.64599E-004	...........
	1	0.516667	-1.57652E-002	-1.70578E-002	5.64866E-004	...........
	2	0.775	-1.59193E-002	-1.82835E-002	5.65632E-004	...........
	3	1.03333	-1.63534E-002	-1.94333E-002	5.64732E-004	...........
	4	1.29167	-1.71245E-002	-2.05146E-002	5.66399E-004	...........
	5	1.55	-1.81399E-002	-2.15375E-002	5.65766E-004	...........
	6	1.80833	-1.92524E-002	-2.25084E-002	5.70632E-004	...........
	7	2.06667	-2.03566E-002	-2.34403E-002	5.65566E-004	...........
	8	2.325	-2.14078E-002	-2.43368E-002	5.68566E-004	...........
	9	2.58333	-2.24000E-002	-2.51795E-002	5.67166E-004	...........
	10	2.84167	-2.33400E-002	-2.59936E-002	5.67766E-004	...........
	11	3.1	-2.42347E-002	-2.67752E-002	5.59132E-004	...........
	12	3.35833	-2.50891E-002	-2.75249E-002	5.65299E-004	...........
	13	3.61667	-2.59071E-002	-2.82494E-002	5.63466E-004	...........
	14	3.875	-2.66924E-002	-2.89568E-002	5.62732E-004	...........
	15	4.13333	-2.74482E-002	-2.96297E-002	5.61399E-004	...........
	16	4.39167	-2.81776E-002	-3.03001E-002	5.63332E-004	...........
	17	4.65	-2.88856E-002	-3.10653E-002	5.65332E-004	...........
	18	4.90833	-2.95809E-002	-3.16190E-002	5.64099E-004	...........
EOC	QUANT	-0.0295809	Open Circuit (V)
PSTATMODEL	IQUANT	4	Pstat Model
PSTATSECTION	LABEL	REF600-11020	Pstat Section
PSTATSERIALNO	LABEL	11020	Pstat Serial Number
CTRLMODE	IQUANT	1	Control Mode
IESTAB	IQUANT	0	I/E Stability
CASPEED	IQUANT	1	Control Amp Speed
CONVENTION	IQUANT	1	Current Convention
ICHRANGE	IQUANT	2	Ich Range
ICHRANGEMODE	TOGGLE	F	Ich Auto Range
ICHOFFSETENABLE	TOGGLE	T	Ich Offset Enable
ICHOFFSET	QUANT	0	Ich Offset (V)
ICHFILTER	IQUANT	3	Ich Filter
VCHRANGE	IQUANT	2	Vch Range
VCHRANGEMODE	TOGGLE	F	Vch Auto Range
VCHOFFSETENABLE	TOGGLE	T	Vch Offset Enable
VCHOFFSET	QUANT	0	Vch Offset (V)
VCHFILTER	IQUANT	3	Vch Filter
ACHRANGE	IQUANT	2	Ach Range
ACHOFFSETENABLE	TOGGLE	F	Ach Offset Enable
ACHOFFSET	QUANT	0	Ach Offset (V)
ACHFILTER	IQUANT	3	Ach Filter
IERANGELOWERLIMIT	IQUANT	1	I/E Range Lower Limit
IERANGEMODE	TOGGLE	F	I/E AutoRange
IERANGE	IQUANT	6	I/E Range
POSFEEDENABLE	TOGGLE	F	Positive Feedback IR Comp
POSFEEDRESISTANCE	QUANT	0	Positive Feedback Resistance (ohm)
ACHSELECT	IQUANT	0	Ach Select
CABLEID	IQUANT	14	Cable ID
DCCALDATE	LABEL	8/19/2019	DC Calibration Date
ACCALDATE	LABEL	8/19/2019	AC Calibration Date
THERMOSELECT	IQUANT	1	Thermo Select
FRAMEWORKVERSION	QUANT	6.33	Framework Version
INSTRUMENTVERSION	LABEL	3.50	Instrument Version
ZCURVE	TABLE
	Pt	Time	Freq	Zreal	Zimag	Zsig	Zmod	Zphz	Idc	Vdc	IERange
	#	s	Hz	ohm	ohm	V	ohm	°	A	V	#
	0	1	1000078	1920.484	-1829.718	1	2652.57	-43.61355	8.028746E-007	-0.0267045	8
	1	3	794390.6	2258.809	-1898.803	1	2950.876	-40.05113	3.162963E-006	-0.0282	8
	2	4	630984.4	2624.929	-1943.355	1	3266.019	-36.51424	-1.515307E-006	-0.0274107	8
	3	5	501234.4	3009.012	-1959.153	1	3590.604	-33.06795	-5.230312E-007	-0.0275267	8
	4	7	398109.4	3372.095	-1892.087	1	3866.655	-29.29684	2.831023E-006	-0.0284075	8
	5	8	316265.6	3686.962	-1792.798	1	4099.733	-25.9315	1.396141E-006	-0.028207	8
	6	10	251203.1	4008.575	-1668.146	1	4341.818	-22.59436	-9.394414E-007	-0.0277116	8
	7	11	199546.9	4293.19	-1505.606	1	4549.542	-19.32558	3.539608E-006	-0.0285634	8
	8	13	158578.1	4497.022	-1336.393	1	4691.392	-16.55052	3.055927E-007	-0.0280492	8
	9	14	125953.1	4696.522	-1142.081	1	4833.391	-13.66767	1.171029E-006	-0.0305489	7
	10	16	100078.1	4838.04	-1006.89	1	4941.706	-11.75654	-3.425547E-008	-0.0278984	7
	11	17	79453.13	4947.079	-894.9464	1	5027.377	-10.25414	-3.88264E-008	-0.0278062	7
	12	18	63140.62	5032.305	-793.7302	1	5094.517	-8.963248	-3.460551E-008	-0.0279354	7
	13	20	50203.12	5104.152	-711.878	1	5153.556	-7.939846	6.696209E-010	-0.027915	7
	14	21	39890.62	5162.936	-647.8765	1	5203.427	-7.152436	-3.588382E-008	-0.0279316	7
	15	23	31640.63	5214.892	-601.6546	1	5249.484	-6.581254	-1.141592E-009	-0.0279291	7
	16	24	25171.88	5263.201	-573.6555	1	5294.371	-6.220322	1.348504E-007	-0.0281456	7
	17	25	20015.62	5304.117	-561.5452	1	5333.759	-6.043375	-6.494088E-008	-0.0278412	7
	18	27	15890.62	5346.837	-561.206	1	5376.209	-5.991847	-3.41961E-008	-0.0279404	7
	19	28	12609.37	5392.662	-577.6224	1	5423.509	-6.113793	1.336956E-007	-0.0281453	7
	20	29	10078.13	5432.031	-611.5009	1	5466.342	-6.422926	-1.545915E-008	-0.0279753	7
	21	31	8015.625	5476.477	-660.8082	1	5516.201	-6.880219	-1.411921E-009	-0.0280081	7
	22	32	6328.125	5524.581	-731.8282	1	5572.842	-7.545905	-4.279413E-008	-0.0278606	7
	23	34	5015.625	5575.044	-824.4308	1	5635.672	-8.411867	4.264252E-008	-0.0280135	7
	24	35	3984.375	5625.577	-941.8428	1	5703.874	-9.5044	-1.511066E-008	-0.0279808	7
	25	36	3170.956	5687.566	-1090.669	1	5791.198	-10.85547	4.166894E-008	-0.0280167	7
	26	38	2527.573	5751.065	-1273.278	1	5890.33	-12.48384	1.343956E-007	-0.0281553	7
	27	39	1976.103	5828.226	-1520.724	1	6023.356	-14.6238	1.977845E-008	-0.0280408	7
	28	40	1577.524	5909.179	-1801.269	1	6177.618	-16.95256	2.104612E-008	-0.0280401	7
	29	42	1265.625	5997.465	-2134.195	1	6365.875	-19.58808	-3.429971E-008	-0.0279486	7
	30	43	998.264	6121.079	-2574.117	1	6640.308	-22.80837	-6.419828E-008	-0.0278605	7
	31	44	796.875	6249.597	-3081.252	1	6967.896	-26.24478	-3.288391E-008	-0.0279364	7
	32	46	627.7902	6403.177	-3745.563	1	7418.216	-30.32566	4.321587E-008	-0.0280184	7
	33	47	505.5147	6567.759	-4482.237	1	7951.472	-34.312	7.45989E-008	-0.0280963	7
	34	49	397.9953	6779.373	-5476.919	1	8715.306	-38.93405	1.008857E-008	-0.0279483	7
	35	50	315.5048	7022.076	-6675.53	1	9688.77	-43.55074	9.928621E-009	-0.0279502	7
	36	51	252.4038	7303.528	-8093.84	1	10901.92	-47.93828	4.502403E-009	-0.0280095	6
	37	53	198.6229	7670.219	-9977.02	1	12584.64	-52.44733	3.858201E-009	-0.0280066	6
	38	54	158.3615	8106.004	-12175.58	1	14627.1	-56.34594	4.655416E-009	-0.0280155	6
	39	55	125.558	8672.125	-14961.97	1	17293.54	-59.90294	3.782375E-009	-0.0280113	6
	40	57	100.4464	9367.543	-18225.88	1	20492.28	-62.79823	4.883995E-009	-0.0280156	6
	41	58	79.00281	10350.41	-22603.13	1	24860.26	-65.39603	4.493113E-009	-0.0280172	6
	42	60	63.3446	11363.61	-27644.27	1	29888.75	-67.65413	3.7193E-009	-0.0280114	6
	43	61	49.86702	13126.14	-33692.2	1	36158.82	-68.71462	2.938343E-009	-0.0280118	6
	44	62	39.72458	15296.93	-41259.35	1	44003.75	-69.65771	3.501502E-009	-0.0280024	6
	45	64	31.6723	18001.92	-50209.4	1	53339.04	-70.27538	4.506675E-009	-0.0280107	6
	46	65	24.93351	22172.82	-61537.5	1	65410.23	-70.1852	3.042965E-009	-0.0280064	6
	47	66	19.86229	27250.3	-74363.84	1	79199.49	-69.87486	3.080411E-009	-0.0280095	6
	48	68	15.83615	34140.32	-90328.34	1	96564.8	-69.29552	5.744813E-009	-0.0280085	6
	49	69	12.40079	43322.56	-107599.1	1	115993.1	-68.06882	2.536759E-009	-0.0280049	5
	50	71	9.93114	55287.8	-128156.3	1	139573.6	-66.66419	2.132247E-009	-0.0280057	5
	51	72	7.944915	69680.3	-149951.3	1	165350.4	-65.07635	4.073355E-009	-0.0280038	5
	52	74	6.317385	88314.15	-175977.4	1	196894.5	-63.35024	2.745794E-009	-0.0279955	5
	53	76	5.008013	111787.6	-203930.2	1	232559.6	-61.26995	2.945959E-009	-0.0280106	5
	54	79	3.945707	140400.7	-234218.2	1	273076.1	-59.05968	3.399735E-009	-0.0280044	5
	55	81	3.158693	171829.5	-264546.8	1	315452.6	-56.9953	2.526186E-009	-0.028021	5
	56	85	2.504006	208580.9	-296870.1	1	362819.3	-54.90812	3.388141E-009	-0.0280097	5
	57	87	1.998082	248566.9	-329732.6	1	412927.5	-52.98941	2.960624E-009	-0.0279713	5
	58	90	1.584686	291659.5	-364934	1	467163.9	-51.36774	2.917158E-009	-0.0280349	5
	59	94	1.266892	338281.8	-404247.3	1	527115.1	-50.07677	2.866572E-009	-0.0279832	5
	60	98	0.999041	390408.8	-448668.2	1	594745.4	-48.97182	2.410449E-009	-0.0280495	5
