EXPLAIN
TAG	EISPOT
TITLE	LABEL	Potentiostatic EIS	Test &Identifier
DATE	LABEL	11/27/2019	Date
TIME	LABEL	13:57:26	Time
NOTES	NOTES	3	&Notes...
	
	
	
PSTAT	PSTAT	REF600-11020	Potentiostat
VDC	POTEN	0.00000E+000	T	DC &Voltage (V)
FREQINIT	QUANT	1.00000E+006	Initial Fre&q. (Hz)
FREQFINAL	QUANT	1.00000E+000	Final Fre&q. (Hz)
PTSPERDEC	QUANT	1.00000E+001	Points/&decade
VAC	QUANT	2.50000E+001	AC &Voltage (mV rms)
AREA	QUANT	1.00000E-002	&Area (cm^2)
CONDIT	TWOPARAM	T	5.00000E+000	0.00000E+000	Conditionin&g	Time(s)	E(V)
DELAY	TWOPARAM	T	5.00000E+000	0.00000E+000	Init. De&lay	Time(s)	Stab.(mV/s)
SPEED	SELECTOR	0	&Optimize for:
ZGUESS	QUANT	1.00000E+005	E&stimated Z (ohms)
OCVCURVE	TABLE	19
	Pt	T	Vf	Vm	Ach	Over
	#	s	V vs. Ref.	V	V	bits
	0	0.258333	5.95148E-002	5.95148E-002	5.85765E-004	...........
	1	0.516667	5.95922E-002	6.35648E-002	5.87499E-004	...........
	2	0.775	6.00639E-002	6.72275E-002	5.90232E-004	...........
	3	1.03333	6.13842E-002	7.05893E-002	5.83499E-004	...........
	4	1.29167	6.37082E-002	7.36121E-002	5.84799E-004	...........
	5	1.55	6.67250E-002	7.63698E-002	5.83699E-004	...........
	6	1.80833	6.99599E-002	7.89028E-002	5.83565E-004	...........
	7	2.06667	7.30787E-002	8.12288E-002	5.83699E-004	...........
	8	2.325	7.59450E-002	8.33640E-002	5.82032E-004	...........
	9	2.58333	7.85460E-002	8.53339E-002	5.85032E-004	...........
	10	2.84167	8.09124E-002	8.71443E-002	5.86632E-004	...........
	11	3.1	8.30783E-002	8.88302E-002	5.83965E-004	...........
	12	3.35833	8.50700E-002	9.03789E-002	5.84032E-004	...........
	13	3.61667	8.69072E-002	9.18139E-002	5.86132E-004	...........
	14	3.875	8.86047E-002	9.31592E-002	5.83099E-004	...........
	15	4.13333	9.01753E-002	9.43949E-002	5.75532E-004	...........
	16	4.39167	9.16311E-002	9.55610E-002	5.86165E-004	...........
	17	4.65	9.29829E-002	9.66395E-002	5.83499E-004	...........
	18	4.90833	9.42400E-002	9.76349E-002	5.92832E-004	...........
EOC	QUANT	0.09424	Open Circuit (V)
PSTATMODEL	IQUANT	4	Pstat Model
PSTATSECTION	LABEL	REF600-11020	Pstat Section
PSTATSERIALNO	LABEL	11020	Pstat Serial Number
CTRLMODE	IQUANT	1	Control Mode
IESTAB	IQUANT	0	I/E Stability
CASPEED	IQUANT	1	Control Amp Speed
CONVENTION	IQUANT	1	Current Convention
ICHRANGE	IQUANT	2	Ich Range
ICHRANGEMODE	TOGGLE	F	Ich Auto Range
ICHOFFSETENABLE	TOGGLE	T	Ich Offset Enable
ICHOFFSET	QUANT	0	Ich Offset (V)
ICHFILTER	IQUANT	3	Ich Filter
VCHRANGE	IQUANT	2	Vch Range
VCHRANGEMODE	TOGGLE	F	Vch Auto Range
VCHOFFSETENABLE	TOGGLE	T	Vch Offset Enable
VCHOFFSET	QUANT	0	Vch Offset (V)
VCHFILTER	IQUANT	3	Vch Filter
ACHRANGE	IQUANT	2	Ach Range
ACHOFFSETENABLE	TOGGLE	F	Ach Offset Enable
ACHOFFSET	QUANT	0	Ach Offset (V)
ACHFILTER	IQUANT	3	Ach Filter
IERANGELOWERLIMIT	IQUANT	1	I/E Range Lower Limit
IERANGEMODE	TOGGLE	F	I/E AutoRange
IERANGE	IQUANT	6	I/E Range
POSFEEDENABLE	TOGGLE	F	Positive Feedback IR Comp
POSFEEDRESISTANCE	QUANT	0	Positive Feedback Resistance (ohm)
ACHSELECT	IQUANT	0	Ach Select
CABLEID	IQUANT	14	Cable ID
DCCALDATE	LABEL	8/19/2019	DC Calibration Date
ACCALDATE	LABEL	8/19/2019	AC Calibration Date
THERMOSELECT	IQUANT	1	Thermo Select
FRAMEWORKVERSION	QUANT	6.33	Framework Version
INSTRUMENTVERSION	LABEL	3.50	Instrument Version
ZCURVE	TABLE
	Pt	Time	Freq	Zreal	Zimag	Zsig	Zmod	Zphz	Idc	Vdc	IERange
	#	s	Hz	ohm	ohm	V	ohm	°	A	V	#
	0	1	1000078	1767.943	-1672.859	1	2433.943	-43.41708	-6.731723E-006	0.0971299	8
	1	1	794390.6	2007.935	-1790.075	1	2690.014	-41.71702	4.650904E-007	0.0957771	8
	2	2	630984.4	2254.786	-1908.98	1	2954.364	-40.25242	-5.165337E-007	0.0964373	8
	3	2	501234.4	2506.428	-2042.207	1	3233.077	-39.17273	7.149076E-006	0.0950548	8
	4	2	398109.4	2766.453	-2209.675	1	3540.611	-38.61573	-1.946359E-006	0.0961952	8
	5	3	316265.6	3049.819	-2402.009	1	3882.144	-38.22364	8.273524E-007	0.0961464	8
	6	3	251203.1	3362.422	-2632.022	1	4270.062	-38.05297	-4.339172E-006	0.0961406	8
	7	3	199546.9	3726.376	-2877.964	1	4708.35	-37.67971	-1.600203E-007	0.095532	8
	8	4	158578.1	4144.59	-3163.141	1	5213.74	-37.35079	5.241077E-006	0.0951282	8
	9	4	125953.1	4695.448	-3467.589	1	5837.072	-36.44588	7.47506E-007	0.0976684	7
	10	4	100078.1	5282.803	-3742.085	1	6473.887	-35.31194	1.414153E-007	0.0966362	7
	11	5	79453.13	6000.877	-4020.748	1	7223.361	-33.82314	6.95353E-007	0.0940117	7
	12	5	63140.62	6726.044	-4171.513	1	7914.619	-31.80731	-1.210821E-006	0.0972568	7
	13	5	50203.12	7576.499	-4300.357	1	8711.854	-29.57888	1.493719E-007	0.0966253	7
	14	6	39890.62	8389.521	-4187.562	1	9376.554	-26.52571	-1.233376E-006	0.096925	7
	15	6	31640.63	9199.226	-4017.96	1	10038.41	-23.59434	-1.060931E-006	0.0974037	7
	16	6	25171.88	9996.85	-3775.72	1	10686.12	-20.6911	6.950484E-007	0.0940022	7
	17	7	20015.62	10517.24	-3400.149	1	11053.2	-17.91566	-1.058939E-006	0.0974019	7
	18	7	15890.62	10985.5	-3021.478	1	11393.45	-15.3785	-1.232663E-006	0.0969218	7
	19	7	12609.37	11420.66	-2695.156	1	11734.37	-13.27826	7.565399E-009	0.0944939	7
	20	8	10078.13	11790.28	-2326.27	1	12017.58	-11.16133	-2.172082E-008	0.0976575	6
	21	8	8015.625	11945.73	-2092.635	1	12127.64	-9.93617	-1.938733E-007	0.0975597	6
	22	8	6328.125	12117.64	-1896.858	1	12265.2	-8.896708	-1.668673E-007	0.0966279	6
	23	9	5015.625	12329.92	-1794.11	1	12459.76	-8.27893	1.668106E-007	0.094109	6
	24	9	3984.375	12364.18	-1744.431	1	12486.63	-8.030711	8.584581E-008	0.0931808	6
	25	9	3170.956	12483.77	-1763.692	1	12607.74	-8.041459	-1.325999E-007	0.0985086	6
	26	10	2527.573	12576.38	-1859.569	1	12713.12	-8.410926	1.261059E-007	0.0930831	6
	27	10	1976.103	12664.08	-2044.317	1	12828.02	-9.169946	1.536398E-007	0.0932225	6
	28	10	1577.524	12716.45	-2298.839	1	12922.56	-10.24708	8.494554E-008	0.0931775	6
	29	11	1265.625	12805.38	-2631.781	1	13073.03	-11.61379	-1.329616E-007	0.0985028	6
	30	11	998.264	12951.73	-3111.129	1	13320.16	-13.50708	3.516857E-008	0.0969814	6
	31	11	796.875	12981.27	-3680.158	1	13492.85	-15.8279	-1.94157E-007	0.0975447	6
	32	11	627.7902	13212.28	-4484.807	1	13952.7	-18.74939	1.655532E-007	0.0941043	6
	33	12	505.5147	13307.62	-5360.915	1	14346.85	-21.94182	-1.96607E-007	0.09821	6
	34	12	397.9953	13561.84	-6581.48	1	15074.46	-25.88702	-1.144292E-009	0.0957017	6
	35	12	315.5048	13829.26	-8054.287	1	16003.75	-30.21691	-1.074698E-009	0.0957005	6
	36	13	252.4038	14157.17	-9794.58	1	17215.09	-34.67727	-8.376727E-010	0.0956994	6
	37	13	198.6229	14618.64	-12089.59	1	18970.05	-39.59068	-1.050019E-009	0.09569	6
	38	13	158.3615	15180.51	-14766.09	1	21177.47	-44.20716	-1.863742E-009	0.0957013	6
	39	14	125.558	15927.63	-18111.69	1	24118.93	-48.67123	-1.66834E-009	0.095701	6
	40	14	100.4464	16843.46	-22049.34	1	27746.63	-52.62385	-3.278595E-010	0.0956999	6
	41	14	79.00281	18187	-27104.29	1	32640.62	-56.13837	-1.032085E-009	0.0956974	6
	42	15	63.3446	19960.54	-33330.7	1	38850.46	-59.08415	-1.541992E-009	0.0956907	6
	43	15	49.86702	22074.47	-40731.93	1	46328.96	-61.54473	-2.273646E-009	0.0956944	6
	44	15	39.72458	25054.55	-48949.37	1	54988.83	-62.89454	-1.276451E-009	0.0956872	6
	45	16	31.6723	28687.8	-58968.18	1	65576.19	-64.05725	-9.232521E-010	0.0956867	6
	46	16	24.93351	33853.08	-71825.09	1	79403.24	-64.76425	-4.680338E-010	0.0956883	6
	47	16	19.86229	40147.4	-86173.98	1	95067.2	-65.01977	1.167892E-010	0.0956984	6
	48	17	15.83615	48888.57	-103182.1	1	114178.1	-64.648	-2.293424E-009	0.0956945	5
	49	17	12.40079	59365.33	-122613.5	1	136228.9	-64.1653	-3.016525E-009	0.0956998	5
	50	17	9.93114	72797.43	-145102.6	1	162339.8	-63.35725	-9.733007E-010	0.0957074	5
	51	18	7.944915	89152.1	-169505.4	1	191520.7	-62.25768	-1.677555E-010	0.0956986	5
	52	19	6.317385	109615.5	-197510.5	1	225889.2	-60.97034	-3.832338E-010	0.0956804	5
	53	19	5.008013	135258.5	-228522.7	1	265551.2	-59.37947	-5.978006E-010	0.0957005	5
	54	20	3.945707	167817	-262529.8	1	311583.8	-57.41206	-9.047608E-010	0.0957062	5
	55	22	3.158693	201230.9	-296311.1	1	358181.7	-55.81878	-5.629999E-010	0.0956819	5
	56	23	2.504006	242451.8	-333024.4	1	411932.2	-53.94425	-5.440838E-010	0.0956903	5
	57	25	1.998082	284420.4	-369570.5	1	466344.7	-52.41822	-3.953157E-010	0.0957096	5
	58	26	1.584686	331386.9	-409806.1	1	527027.8	-51.03951	-4.741738E-010	0.0956652	5
	59	28	1.266892	381393	-453928.6	1	592884.3	-49.96286	-3.766628E-010	0.0956517	5
	60	31	0.999041	435361.3	-507037.8	1	668301.4	-49.3494	-3.49893E-010	0.0956548	5
