EXPLAIN
TAG	EISPOT
TITLE	LABEL	Potentiostatic IDE	Test &Identifier
DATE	LABEL	9/16/2019	Date
TIME	LABEL	8:25:52	Time
NOTES	NOTES	1	&Notes...
	
PSTAT	PSTAT	REF600-11020	Potentiostat
VDC	POTEN	0.00000E+000	T	DC &Voltage (V)
FREQINIT	QUANT	1.00000E+006	Initial Fre&q. (Hz)
FREQFINAL	QUANT	1.00000E+000	Final Fre&q. (Hz)
PTSPERDEC	QUANT	1.00000E+001	Points/&decade
VAC	QUANT	2.50000E+001	AC &Voltage (mV rms)
AREA	QUANT	1.00000E-002	&Area (cm^2)
CONDIT	TWOPARAM	T	5.00000E+000	0.00000E+000	Conditionin&g	Time(s)	E(V)
DELAY	TWOPARAM	T	5.00000E+000	0.00000E+000	Init. De&lay	Time(s)	Stab.(mV/s)
SPEED	SELECTOR	1	&Optimize for:
ZGUESS	QUANT	1.00000E+007	E&stimated Z (ohms)
OCVCURVE	TABLE	19
	Pt	T	Vf	Vm	Ach	Over
	#	s	V vs. Ref.	V	V	bits
	0	0.258333	9.56939E-003	9.56939E-003	5.46366E-004	...........
	1	0.516667	9.57307E-003	9.76232E-003	5.41199E-004	...........
	2	0.775	9.59599E-003	9.96009E-003	5.40066E-004	...........
	3	1.03333	9.66297E-003	1.02130E-002	5.40466E-004	...........
	4	1.29167	9.78980E-003	1.04502E-002	5.43999E-004	...........
	5	1.55	9.97073E-003	1.06366E-002	5.45999E-004	...........
	6	1.80833	1.01831E-002	1.08218E-002	5.46666E-004	...........
	7	2.06667	1.04014E-002	1.10248E-002	5.45133E-004	...........
	8	2.325	1.06117E-002	1.12281E-002	5.45133E-004	...........
	9	2.58333	1.08132E-002	1.13981E-002	5.41233E-004	...........
	10	2.84167	1.10094E-002	1.15991E-002	5.43899E-004	...........
	11	3.1	1.12027E-002	1.18295E-002	5.48499E-004	...........
	12	3.35833	1.13963E-002	1.19656E-002	5.49133E-004	...........
	13	3.61667	1.15897E-002	1.21250E-002	5.49599E-004	...........
	14	3.875	1.17742E-002	1.21929E-002	5.49933E-004	...........
	15	4.13333	1.19394E-002	1.23574E-002	5.48733E-004	...........
	16	4.39167	1.20846E-002	1.25443E-002	5.45099E-004	...........
	17	4.65	1.22225E-002	1.27031E-002	5.43633E-004	...........
	18	4.90833	1.23675E-002	1.28403E-002	5.50866E-004	...........
EOC	QUANT	0.0123675	Open Circuit (V)
PSTATMODEL	IQUANT	4	Pstat Model
PSTATSECTION	LABEL	REF600-11020	Pstat Section
PSTATSERIALNO	LABEL	11020	Pstat Serial Number
CTRLMODE	IQUANT	1	Control Mode
IESTAB	IQUANT	0	I/E Stability
CASPEED	IQUANT	1	Control Amp Speed
CONVENTION	IQUANT	1	Current Convention
ICHRANGE	IQUANT	2	Ich Range
ICHRANGEMODE	TOGGLE	F	Ich Auto Range
ICHOFFSETENABLE	TOGGLE	T	Ich Offset Enable
ICHOFFSET	QUANT	0	Ich Offset (V)
ICHFILTER	IQUANT	3	Ich Filter
VCHRANGE	IQUANT	2	Vch Range
VCHRANGEMODE	TOGGLE	F	Vch Auto Range
VCHOFFSETENABLE	TOGGLE	T	Vch Offset Enable
VCHOFFSET	QUANT	0	Vch Offset (V)
VCHFILTER	IQUANT	3	Vch Filter
ACHRANGE	IQUANT	2	Ach Range
ACHOFFSETENABLE	TOGGLE	F	Ach Offset Enable
ACHOFFSET	QUANT	0	Ach Offset (V)
ACHFILTER	IQUANT	3	Ach Filter
IERANGELOWERLIMIT	IQUANT	1	I/E Range Lower Limit
IERANGEMODE	TOGGLE	F	I/E AutoRange
IERANGE	IQUANT	3	I/E Range
POSFEEDENABLE	TOGGLE	F	Positive Feedback IR Comp
POSFEEDRESISTANCE	QUANT	0	Positive Feedback Resistance (ohm)
ACHSELECT	IQUANT	0	Ach Select
CABLEID	IQUANT	14	Cable ID
DCCALDATE	LABEL	8/19/2019	DC Calibration Date
ACCALDATE	LABEL	8/19/2019	AC Calibration Date
THERMOSELECT	IQUANT	1	Thermo Select
FRAMEWORKVERSION	QUANT	6.33	Framework Version
INSTRUMENTVERSION	LABEL	3.50	Instrument Version
ZCURVE	TABLE
	Pt	Time	Freq	Zreal	Zimag	Zsig	Zmod	Zphz	Idc	Vdc	IERange
	#	s	Hz	ohm	ohm	V	ohm	°	A	V	#
	0	2	1000078	2503.27	-1469.351	1	2902.646	-30.41177	2.076385E-006	0.0139087	8
	1	4	794390.6	2800.456	-1379.673	1	3121.866	-26.22763	2.220662E-006	0.0136335	8
	2	5	630984.4	3010.291	-1251.195	1	3259.96	-22.56969	-1.538262E-006	0.0143671	8
	3	7	501234.4	3192.175	-1088.448	1	3372.64	-18.82804	2.800056E-006	0.013465	8
	4	8	398109.4	3333.152	-937.6417	1	3462.524	-15.71171	-1.155152E-006	0.014183	8
	5	9	316265.6	3474.744	-817.525	1	3569.621	-13.23955	8.930804E-007	0.0136609	8
	6	11	251203.1	3544.671	-717.5989	1	3616.579	-11.44454	1.090568E-007	0.0138746	8
	7	12	199546.9	3599.402	-617.4275	1	3651.974	-9.73356	-3.138604E-006	0.0145806	8
	8	14	158578.1	3659.443	-554.9008	1	3701.275	-8.622378	1.59817E-006	0.0135433	8
	9	15	125953.1	3725.022	-435.1309	1	3750.35	-6.662694	5.096354E-007	0.0128362	7
	10	16	100078.1	3746.524	-394.5417	1	3767.241	-6.011588	-4.76526E-008	0.013933	7
	11	18	79453.13	3776.328	-373.7604	1	3794.78	-5.652415	-3.901079E-008	0.0138576	7
	12	19	63140.62	3806.141	-362.8074	1	3823.394	-5.445072	1.410425E-008	0.0137719	7
	13	20	50203.12	3834.976	-360.7307	1	3851.904	-5.373622	-5.709378E-009	0.0139433	7
	14	22	39890.62	3867.325	-366.7051	1	3884.672	-5.41667	-1.701717E-008	0.0138869	7
	15	23	31640.63	3900.966	-384.4033	1	3919.859	-5.627789	7.81458E-008	0.0137028	7
	16	24	25171.88	3936.73	-408.6563	1	3957.884	-5.926421	1.146945E-007	0.0136864	7
	17	26	20015.62	3976.126	-442.2899	1	4000.649	-6.347282	1.159681E-007	0.0136844	7
	18	27	15890.62	4020.624	-484.1218	1	4049.666	-6.865909	1.153633E-007	0.013683	7
	19	28	12609.37	4068.375	-536.0609	1	4103.54	-7.506218	4.633366E-008	0.0136979	7
	20	30	10078.13	4120.73	-596.559	1	4163.688	-8.237493	6.452047E-008	0.0138204	7
	21	31	8015.625	4179.525	-669.1721	1	4232.755	-9.096267	-3.331472E-008	0.0138417	7
	22	32	6328.125	4245.031	-759.0794	1	4312.365	-10.13825	-3.617134E-008	0.0138447	7
	23	34	5015.625	4313.578	-863.9708	1	4399.25	-11.32596	4.876209E-008	0.0136894	7
	24	35	3984.375	4388.951	-989.804	1	4499.178	-12.70883	-3.343036E-008	0.0138459	7
	25	36	3170.956	4468.111	-1139.822	1	4611.205	-14.31102	-2.863691E-009	0.0139359	7
	26	38	2527.573	4551.771	-1317.111	1	4738.501	-16.13845	-3.483055E-008	0.013842	7
	27	39	1976.103	4652.167	-1555.928	1	4905.463	-18.49263	-6.634503E-009	0.0139411	7
	28	40	1577.524	4755.079	-1819.965	1	5091.468	-20.94392	1.236051E-007	0.0136614	7
	29	42	1265.625	4873.927	-2127.444	1	5318.006	-23.58102	-2.709041E-008	0.0138337	7
	30	43	998.264	4988.758	-2550.868	1	5603.091	-27.08172	-3.377447E-008	0.013842	7
	31	44	796.875	5125.505	-3035.562	1	5956.965	-30.63598	-1.32698E-008	0.0139544	7
	32	46	627.7902	5287.191	-3660.452	1	6430.653	-34.69581	8.02461E-008	0.0136887	7
	33	47	505.5147	5452.723	-4358.668	1	6980.7	-38.63731	3.406618E-008	0.0138016	7
	34	48	397.9953	5656.347	-5311.397	1	7759.201	-43.19857	5.752216E-009	0.0138524	7
	35	50	315.5048	5886.765	-6457.966	1	8738.382	-47.64923	5.556316E-009	0.0138529	7
	36	51	252.4038	6147.358	-7815.372	1	9943.34	-51.81237	1.688401E-010	0.0137903	6
	37	52	198.6229	6479.218	-9623.31	1	11601.22	-56.04826	1.028335E-009	0.0137898	6
	38	53	158.3615	6866.644	-11741.1	1	13601.63	-59.67928	1.852367E-009	0.0137901	6
	39	55	125.558	7356.603	-14423.25	1	16191.04	-62.97607	5.462061E-010	0.0137929	6
	40	56	100.4464	7947.137	-17591.95	1	19303.72	-65.689	-1.048127E-010	0.0137884	6
	41	57	79.00281	8758.029	-21788.39	1	23482.7	-68.10192	1.337773E-009	0.0137853	6
	42	59	63.3446	9827.05	-26358.9	1	28131.17	-69.55368	7.420504E-010	0.0137845	6
	43	60	49.86702	11238.25	-32979.43	1	34841.66	-71.18266	-4.245855E-010	0.013784	6
	44	62	39.72458	12930.33	-40105.58	1	42138.48	-72.13031	4.556033E-010	0.013787	6
	45	63	31.6723	15375.71	-48956.37	1	51314.12	-72.56408	1.453609E-009	0.0137872	6
	46	64	24.93351	18470.64	-60271.97	1	63038.68	-72.96207	3.898145E-010	0.0137813	6
	47	66	19.86229	22421.71	-73236.34	1	76591.73	-72.97774	3.084184E-010	0.0137836	6
	48	67	15.83615	27934.41	-89003.56	1	93284.33	-72.57516	-5.010592E-010	0.0137834	6
	49	68	12.40079	35627.04	-108753.9	1	114440.8	-71.86156	-8.00009E-010	0.0137908	5
	50	70	9.93114	43937.02	-130168.1	1	137383.3	-71.34837	2.43647E-010	0.0137871	5
	51	71	7.944915	55235.62	-155238.3	1	164772.3	-70.41385	1.669288E-010	0.0137926	5
	52	73	6.317385	69511.82	-185464.9	1	198063.4	-69.45411	-2.247019E-010	0.0137871	5
	53	75	5.008013	88122.63	-220948.2	1	237873.2	-68.25598	-1.66329E-010	0.0137835	5
	54	78	3.945707	112054.4	-262722.1	1	285620.6	-66.90112	2.001171E-010	0.0137901	5
	55	80	3.158693	139656.1	-307072	1	337338.2	-65.54401	4.938886E-011	0.0138056	5
	56	83	2.504006	174563.8	-359987.1	1	400079	-64.13047	-2.363889E-010	0.0137867	5
	57	86	1.998082	215683.8	-417157.4	1	469616.7	-62.65958	-1.590214E-010	0.0137523	5
	58	89	1.584686	265501.3	-481266.7	1	549644.1	-61.11571	-1.732952E-010	0.0138061	5
	59	93	1.266892	323587	-551020.5	1	639008.8	-59.5764	-8.047023E-011	0.013746	5
	60	97	0.999041	394299	-631191.4	1	744227.3	-58.00739	-5.351301E-011	0.0138313	5
