EXPLAIN
TAG	EISPOT
TITLE	LABEL	Potentiostatic EIS	Test &Identifier
DATE	LABEL	11/5/2019	Date
TIME	LABEL	10:03:09	Time
NOTES	NOTES	2	&Notes...
	
	
PSTAT	PSTAT	REF600-11020	Potentiostat
VDC	POTEN	0.00000E+000	T	DC &Voltage (V)
FREQINIT	QUANT	1.00000E+006	Initial Fre&q. (Hz)
FREQFINAL	QUANT	1.00000E+000	Final Fre&q. (Hz)
PTSPERDEC	QUANT	1.00000E+001	Points/&decade
VAC	QUANT	2.50000E+001	AC &Voltage (mV rms)
AREA	QUANT	1.00000E-002	&Area (cm^2)
CONDIT	TWOPARAM	T	5.00000E+000	0.00000E+000	Conditionin&g	Time(s)	E(V)
DELAY	TWOPARAM	T	5.00000E+000	0.00000E+000	Init. De&lay	Time(s)	Stab.(mV/s)
SPEED	SELECTOR	1	&Optimize for:
ZGUESS	QUANT	1.00000E+005	E&stimated Z (ohms)
OCVCURVE	TABLE	19
	Pt	T	Vf	Vm	Ach	Over
	#	s	V vs. Ref.	V	V	bits
	0	0.258333	4.27116E-003	4.27116E-003	5.64999E-004	...........
	1	0.516667	4.26749E-003	4.07908E-003	5.66799E-004	...........
	2	0.775	4.24528E-003	3.91390E-003	5.63832E-004	...........
	3	1.03333	4.18390E-003	3.77553E-003	5.68199E-004	...........
	4	1.29167	4.07793E-003	3.64673E-003	5.64599E-004	...........
	5	1.55	3.94375E-003	3.53819E-003	5.68466E-004	...........
	6	1.80833	3.80389E-003	3.43846E-003	5.62866E-004	...........
	7	2.06667	3.67312E-003	3.34971E-003	5.68832E-004	...........
	8	2.325	3.55648E-003	3.26341E-003	5.68766E-004	...........
	9	2.58333	3.45312E-003	3.18914E-003	5.67066E-004	...........
	10	2.84167	3.36037E-003	3.11874E-003	5.59499E-004	...........
	11	3.1	3.27612E-003	3.05583E-003	5.64066E-004	...........
	12	3.35833	3.19909E-003	2.99227E-003	5.63132E-004	...........
	13	3.61667	3.12825E-003	2.94010E-003	5.64032E-004	...........
	14	3.875	3.06271E-003	2.88365E-003	5.64232E-004	...........
	15	4.13333	3.00180E-003	2.83725E-003	5.62432E-004	...........
	16	4.39167	2.94500E-003	2.78921E-003	5.56832E-004	...........
	17	4.65	2.89188E-003	2.74593E-003	5.58299E-004	...........
	18	4.90833	2.84196E-003	2.69932E-003	5.63632E-004	...........
EOC	QUANT	0.002842	Open Circuit (V)
PSTATMODEL	IQUANT	4	Pstat Model
PSTATSECTION	LABEL	REF600-11020	Pstat Section
PSTATSERIALNO	LABEL	11020	Pstat Serial Number
CTRLMODE	IQUANT	1	Control Mode
IESTAB	IQUANT	0	I/E Stability
CASPEED	IQUANT	1	Control Amp Speed
CONVENTION	IQUANT	1	Current Convention
ICHRANGE	IQUANT	2	Ich Range
ICHRANGEMODE	TOGGLE	F	Ich Auto Range
ICHOFFSETENABLE	TOGGLE	T	Ich Offset Enable
ICHOFFSET	QUANT	0	Ich Offset (V)
ICHFILTER	IQUANT	3	Ich Filter
VCHRANGE	IQUANT	2	Vch Range
VCHRANGEMODE	TOGGLE	F	Vch Auto Range
VCHOFFSETENABLE	TOGGLE	T	Vch Offset Enable
VCHOFFSET	QUANT	0	Vch Offset (V)
VCHFILTER	IQUANT	3	Vch Filter
ACHRANGE	IQUANT	2	Ach Range
ACHOFFSETENABLE	TOGGLE	F	Ach Offset Enable
ACHOFFSET	QUANT	0	Ach Offset (V)
ACHFILTER	IQUANT	3	Ach Filter
IERANGELOWERLIMIT	IQUANT	1	I/E Range Lower Limit
IERANGEMODE	TOGGLE	F	I/E AutoRange
IERANGE	IQUANT	4	I/E Range
POSFEEDENABLE	TOGGLE	F	Positive Feedback IR Comp
POSFEEDRESISTANCE	QUANT	0	Positive Feedback Resistance (ohm)
ACHSELECT	IQUANT	0	Ach Select
CABLEID	IQUANT	14	Cable ID
DCCALDATE	LABEL	8/19/2019	DC Calibration Date
ACCALDATE	LABEL	8/19/2019	AC Calibration Date
THERMOSELECT	IQUANT	1	Thermo Select
FRAMEWORKVERSION	QUANT	6.33	Framework Version
INSTRUMENTVERSION	LABEL	3.50	Instrument Version
ZCURVE	TABLE
	Pt	Time	Freq	Zreal	Zimag	Zsig	Zmod	Zphz	Idc	Vdc	IERange
	#	s	Hz	ohm	ohm	V	ohm	°	A	V	#
	0	1	1000078	2382.146	-1907.269	1	3051.605	-38.68256	1.004176E-005	0.0037186	8
	1	3	794390.6	2757.922	-1880.376	1	3337.956	-34.28651	-3.915854E-006	0.0042046	8
	2	4	630984.4	3134.147	-1785.348	1	3606.986	-29.66774	-4.876309E-006	0.0048737	8
	3	6	501234.4	3465.21	-1644.253	1	3835.524	-25.38448	7.845557E-006	0.003071	8
	4	7	398109.4	3722.054	-1489.01	1	4008.845	-21.8039	-2.857131E-006	0.0044377	8
	5	8	316265.6	3951.895	-1280.029	1	4154.028	-17.94728	6.786677E-006	0.0030952	8
	6	10	251203.1	4118.65	-1138.784	1	4273.185	-15.45583	2.646362E-006	0.0036377	8
	7	11	199546.9	4265.645	-975.46	1	4375.756	-12.88081	-7.559021E-007	0.003973	8
	8	13	158578.1	4341.218	-848.8846	1	4423.435	-11.06405	-4.712888E-007	0.004791	8
	9	14	125953.1	4467.718	-680.6023	1	4519.262	-8.661718	1.355867E-006	0.0060298	7
	10	15	100078.1	4512.488	-598.266	1	4551.974	-7.552235	1.136121E-006	0.0023283	7
	11	17	79453.13	4553.402	-538.5679	1	4585.142	-6.745498	-3.592419E-007	0.0058207	7
	12	18	63140.62	4595.081	-499.002	1	4622.096	-6.197739	-7.338242E-007	0.0060866	7
	13	19	50203.12	4633.674	-477.6241	1	4658.225	-5.885079	-3.594638E-007	0.0058179	7
	14	21	39890.62	4674.606	-463.6942	1	4697.547	-5.664883	1.260685E-006	0.0029657	7
	15	22	31640.63	4703.113	-463.8406	1	4725.93	-5.632535	-1.042583E-006	0.0061623	7
	16	24	25171.88	4743.582	-477.8137	1	4767.585	-5.751915	1.138764E-006	0.0023142	7
	17	25	20015.62	4779.367	-505.9926	1	4806.077	-6.043404	-3.586372E-007	0.0058151	7
	18	26	15890.62	4823.409	-546.8655	1	4854.311	-6.468423	9.331404E-007	0.0040368	7
	19	28	12609.37	4870.437	-596.3717	1	4906.813	-6.980961	1.148861E-006	0.0034704	7
	20	29	10078.13	4906.874	-664.3322	1	4951.641	-7.710284	-1.266289E-006	0.0060742	7
	21	30	8015.625	4957.166	-759.2631	1	5014.975	-8.70802	-3.183395E-007	0.0032217	7
	22	32	6328.125	5008.453	-875.6541	1	5084.424	-9.91709	-8.062435E-007	0.0040074	7
	23	33	5015.625	5071.804	-1018.104	1	5172.98	-11.35059	5.446287E-008	0.0053718	7
	24	35	3984.375	5138.202	-1195.034	1	5275.341	-13.09298	1.261766E-006	0.002974	7
	25	36	3170.956	5202.717	-1405.002	1	5389.091	-15.11233	-1.040707E-006	0.0061611	7
	26	37	2527.573	5285.26	-1665.222	1	5541.384	-17.48803	5.358777E-008	0.0053711	7
	27	39	1976.103	5388.396	-2018.246	1	5753.967	-20.53365	6.801919E-007	0.0045148	7
	28	40	1577.524	5494.975	-2411.344	1	6000.777	-23.69316	9.322169E-007	0.0040359	7
	29	41	1265.625	5605.536	-2881.945	1	6302.986	-27.20882	1.15455E-006	0.0034623	7
	30	43	998.264	5754.174	-3493.871	1	6731.839	-31.26566	-1.177779E-006	0.0047858	7
	31	44	796.875	5923.622	-4208.828	1	7266.604	-35.3944	-8.124992E-007	0.0040032	7
	32	46	627.7902	6129.65	-5139.174	1	7998.983	-39.97688	-3.516215E-007	0.0058021	7
	33	47	505.5147	6341.504	-6186.913	1	8859.603	-44.29305	1.138465E-006	0.0023046	7
	34	49	397.9953	6627.144	-7572.956	1	10063.23	-48.81062	6.216138E-009	0.0042582	7
	35	50	315.5048	6954.063	-9248.496	1	11571.24	-53.06002	2.027689E-009	0.0041951	6
	36	51	252.4038	7320.939	-11231.87	1	13407.13	-56.90366	8.695703E-010	0.0041876	6
	37	53	198.6229	7802.882	-13862.56	1	15907.72	-60.62595	8.422148E-010	0.0042029	6
	38	54	158.3615	8361.607	-16944.4	1	18895.22	-63.7349	-1.092703E-010	0.0042071	6
	39	56	125.558	9089.749	-20832.7	1	22729.38	-66.42733	9.144559E-010	0.0042065	6
	40	57	100.4464	9939.08	-25411.06	1	27285.66	-68.63794	1.307613E-009	0.0041908	6
	41	58	79.00281	11295.65	-31569.27	1	33529.25	-70.31252	8.95503E-010	0.0041946	6
	42	60	63.3446	12737.12	-38870.88	1	40904.52	-71.85719	1.247423E-009	0.0041961	6
	43	61	49.86702	14557.85	-47348.88	1	49536.33	-72.90948	2.805826E-010	0.0041892	6
	44	63	39.72458	17485.24	-58058.81	1	60634.64	-73.23957	1.238321E-009	0.0041949	6
	45	64	31.6723	20913.48	-70619.95	1	73651.55	-73.5038	-2.233374E-011	0.0041976	6
	46	65	24.93351	26113.78	-87155.13	1	90983.21	-73.32052	-3.582235E-011	0.004198	6
	47	67	19.86229	32449.73	-105822.8	1	110686.3	-72.95226	9.219319E-010	0.004203	5
	48	68	15.83615	40347.94	-127930.2	1	134142	-72.49522	-3.087819E-010	0.0042058	5
	49	69	12.40079	54926.35	-156583.2	1	165937.3	-70.67011	2.050716E-009	0.0042061	5
	50	71	9.93114	67639.51	-186318.5	1	198216.2	-70.0475	3.03191E-010	0.0042072	5
	51	72	7.944915	86414.79	-219564.4	1	235957.7	-68.5167	1.193196E-009	0.0041993	5
	52	74	6.317385	111291.6	-261226	1	283945.2	-66.92426	-7.698948E-011	0.0042188	5
	53	76	5.008013	142972.3	-306929.7	1	338595.5	-65.02321	-4.536096E-011	0.0041977	5
	54	79	3.945707	183614.4	-357709.4	1	402082.4	-62.82829	3.137676E-010	0.0042044	5
	55	81	3.158693	228680	-409185.4	1	468750.8	-60.80064	7.489221E-011	0.0041777	5
	56	85	2.504006	282744.5	-466120.6	1	545172.3	-58.75938	2.499882E-010	0.00421	5
	57	87	1.998082	342062.8	-523556.9	1	625394.9	-56.84165	4.287913E-010	0.0041756	5
	58	91	1.584686	411308.3	-588925.3	1	718336.6	-55.06937	-1.263818E-011	0.0041654	5
	59	94	1.266892	479887.4	-652797.1	1	810207.3	-53.67947	2.900439E-010	0.0041626	5
	60	99	0.999041	558386	-730575.3	1	919529.9	-52.60896	-4.669314E-011	0.0042261	5
