EXPLAIN
TAG	EISPOT
TITLE	LABEL	Potentiostatic EIS	Test &Identifier
DATE	LABEL	11/15/2019	Date
TIME	LABEL	9:33:55	Time
NOTES	NOTES	4	&Notes...
	
	
	
	
PSTAT	PSTAT	REF600-11020	Potentiostat
VDC	POTEN	0.00000E+000	T	DC &Voltage (V)
FREQINIT	QUANT	1.00000E+006	Initial Fre&q. (Hz)
FREQFINAL	QUANT	1.00000E+000	Final Fre&q. (Hz)
PTSPERDEC	QUANT	1.00000E+001	Points/&decade
VAC	QUANT	2.50000E+001	AC &Voltage (mV rms)
AREA	QUANT	1.00000E-002	&Area (cm^2)
CONDIT	TWOPARAM	T	5.00000E+000	0.00000E+000	Conditionin&g	Time(s)	E(V)
DELAY	TWOPARAM	T	5.00000E+000	0.00000E+000	Init. De&lay	Time(s)	Stab.(mV/s)
SPEED	SELECTOR	0	&Optimize for:
ZGUESS	QUANT	1.00000E+005	E&stimated Z (ohms)
OCVCURVE	TABLE	19
	Pt	T	Vf	Vm	Ach	Over
	#	s	V vs. Ref.	V	V	bits
	0	0.258333	1.16082E-003	1.16082E-003	5.87665E-004	...........
	1	0.516667	1.15491E-003	8.51549E-004	5.80699E-004	...........
	2	0.775	1.11902E-003	5.78821E-004	5.74099E-004	...........
	3	1.03333	1.01901E-003	3.28628E-004	5.89132E-004	...........
	4	1.29167	8.43863E-004	1.04920E-004	5.82499E-004	...........
	5	1.55	6.17576E-004	-1.05708E-004	5.71732E-004	...........
	6	1.80833	3.75462E-004	-3.00058E-004	5.77566E-004	...........
	7	2.06667	1.41408E-004	-4.82154E-004	5.87899E-004	...........
	8	2.325	-7.55354E-005	-6.50333E-004	5.81532E-004	...........
	9	2.58333	-2.74994E-004	-8.15059E-004	5.76432E-004	...........
	10	2.84167	-4.59715E-004	-9.70332E-004	5.85399E-004	...........
	11	3.1	-6.32910E-004	-1.12016E-003	5.90465E-004	...........
	12	3.35833	-7.97157E-004	-1.26584E-003	5.80865E-004	...........
	13	3.61667	-9.54175E-004	-1.40455E-003	5.81265E-004	...........
	14	3.875	-1.10494E-003	-1.53481E-003	5.93632E-004	...........
	15	4.13333	-1.24968E-003	-1.66117E-003	5.99365E-004	...........
	16	4.39167	-1.38808E-003	-1.77153E-003	5.84032E-004	...........
	17	4.65	-1.51963E-003	-1.89172E-003	5.82765E-004	...........
	18	4.90833	-1.64478E-003	-2.01740E-003	5.98765E-004	...........
EOC	QUANT	-0.0016448	Open Circuit (V)
PSTATMODEL	IQUANT	4	Pstat Model
PSTATSECTION	LABEL	REF600-11020	Pstat Section
PSTATSERIALNO	LABEL	11020	Pstat Serial Number
CTRLMODE	IQUANT	1	Control Mode
IESTAB	IQUANT	0	I/E Stability
CASPEED	IQUANT	1	Control Amp Speed
CONVENTION	IQUANT	1	Current Convention
ICHRANGE	IQUANT	2	Ich Range
ICHRANGEMODE	TOGGLE	F	Ich Auto Range
ICHOFFSETENABLE	TOGGLE	T	Ich Offset Enable
ICHOFFSET	QUANT	0	Ich Offset (V)
ICHFILTER	IQUANT	3	Ich Filter
VCHRANGE	IQUANT	2	Vch Range
VCHRANGEMODE	TOGGLE	F	Vch Auto Range
VCHOFFSETENABLE	TOGGLE	T	Vch Offset Enable
VCHOFFSET	QUANT	0	Vch Offset (V)
VCHFILTER	IQUANT	3	Vch Filter
ACHRANGE	IQUANT	2	Ach Range
ACHOFFSETENABLE	TOGGLE	F	Ach Offset Enable
ACHOFFSET	QUANT	0	Ach Offset (V)
ACHFILTER	IQUANT	3	Ach Filter
IERANGELOWERLIMIT	IQUANT	1	I/E Range Lower Limit
IERANGEMODE	TOGGLE	F	I/E AutoRange
IERANGE	IQUANT	4	I/E Range
POSFEEDENABLE	TOGGLE	F	Positive Feedback IR Comp
POSFEEDRESISTANCE	QUANT	0	Positive Feedback Resistance (ohm)
ACHSELECT	IQUANT	0	Ach Select
CABLEID	IQUANT	14	Cable ID
DCCALDATE	LABEL	8/19/2019	DC Calibration Date
ACCALDATE	LABEL	8/19/2019	AC Calibration Date
THERMOSELECT	IQUANT	1	Thermo Select
FRAMEWORKVERSION	QUANT	6.33	Framework Version
INSTRUMENTVERSION	LABEL	3.50	Instrument Version
ZCURVE	TABLE
	Pt	Time	Freq	Zreal	Zimag	Zsig	Zmod	Zphz	Idc	Vdc	IERange
	#	s	Hz	ohm	ohm	V	ohm	°	A	V	#
	0	2	1000078	1656.076	-567.003	1	1750.451	-18.90005	-1.017395E-006	0.0009601	8
	1	2	794390.6	1731.79	-497.1449	1	1801.735	-16.01719	-5.33404E-006	0.0004529	8
	2	2	630984.4	1794.091	-430.9164	1	1845.115	-13.50583	1.098098E-006	-0.0004352	8
	3	3	501234.4	1834.503	-375.5181	1	1872.542	-11.56849	-1.572191E-006	0.0002725	8
	4	3	398109.4	1871.564	-328.2753	1	1900.136	-9.94857	-1.405255E-007	-0.0004679	8
	5	3	316265.6	1897.425	-287.1602	1	1919.032	-8.60595	-1.980123E-006	-8.029896E-005	8
	6	4	251203.1	1922.042	-258.0211	1	1939.284	-7.64586	-4.306603E-006	0.0000965	8
	7	4	199546.9	1942.061	-235.3485	1	1956.27	-6.90969	-1.164096E-006	0.0001631	8
	8	4	158578.1	1962.456	-222.9759	1	1975.083	-6.482194	-7.58536E-008	-0.0005042	8
	9	5	125953.1	1987.853	-192.364	1	1997.139	-5.527286	-1.251062E-006	0.0022361	7
	10	5	100078.1	2005.525	-186.8132	1	2014.207	-5.321706	8.274272E-007	-0.0008433	7
	11	5	79453.13	2021.758	-194.9855	1	2031.139	-5.508772	-2.299841E-007	0.0008483	7
	12	6	63140.62	2040.95	-207.9004	1	2051.511	-5.816344	-5.930257E-007	-0.0003786	7
	13	6	50203.12	2061.648	-225.0474	1	2073.894	-6.229685	8.792796E-007	-0.0014393	7
	14	6	39890.62	2084.891	-245.4708	1	2099.292	-6.714974	7.894627E-007	-0.0016176	7
	15	7	31640.63	2110.685	-270.4211	1	2127.938	-7.300964	8.970336E-007	-0.0011923	7
	16	7	25171.88	2138.628	-299.8233	1	2159.543	-7.980523	7.893284E-007	-0.0016188	7
	17	7	20015.62	2169.895	-335.3229	1	2195.651	-8.784668	-2.30209E-007	0.0008434	7
	18	8	15890.62	2205.265	-377.5935	1	2237.358	-9.71617	6.855126E-007	-0.0004522	7
	19	8	12609.37	2245.154	-426.7981	1	2285.361	-10.76336	8.992184E-007	-0.0011939	7
	20	8	10078.13	2286.831	-481.9735	1	2337.07	-11.9015	-8.666145E-007	0.0001808	7
	21	8	8015.625	2334.848	-547.6747	1	2398.221	-13.20096	-8.673302E-007	0.0001847	7
	22	9	6328.125	2391.281	-628.2451	1	2472.432	-14.72027	3.43313E-007	0.0001311	7
	23	9	5015.625	2451.67	-720.114	1	2555.24	-16.36877	8.330673E-007	-0.0008484	7
	24	9	3984.375	2516.013	-828.0983	1	2648.786	-18.21799	5.157178E-007	-0.0001263	7
	25	10	3170.956	2586.374	-951.234	1	2755.753	-20.19285	7.187773E-008	0.0005061	7
	26	10	2527.573	2661.377	-1100.141	1	2879.798	-22.45888	8.317328E-007	-0.0008541	7
	27	10	1976.103	2746.689	-1293.543	1	3036.043	-25.21791	-1.020343E-006	0.0009577	7
	28	11	1577.524	2829.555	-1507.408	1	3206.035	-28.04587	8.820226E-007	-0.0014529	7
	29	11	1265.625	2918.47	-1769.137	1	3412.816	-31.22367	-2.268817E-007	0.0008356	7
	30	11	998.264	3019.661	-2114.453	1	3686.362	-35.00081	-5.940956E-007	-0.0003972	7
	31	12	796.875	3125.667	-2523.086	1	4016.933	-38.911	7.924759E-007	-0.00163	7
	32	12	627.7902	3257.322	-3050.106	1	4462.431	-43.11836	-1.020886E-006	0.0009557	7
	33	12	505.5147	3392.964	-3651.108	1	4984.255	-47.09879	6.855958E-007	-0.000469	7
	34	13	397.9953	3577.783	-4463.417	1	5720.37	-51.28506	2.751572E-009	-0.0002416	7
	35	13	315.5048	3797.429	-5440.277	1	6634.537	-55.08414	4.182688E-009	-0.0002469	7
	36	13	252.4038	4059.573	-6588.441	1	7738.713	-58.36004	1.300905E-009	-0.0002451	7
	37	14	198.6229	4417.555	-8100.638	1	9226.87	-61.39486	1.393488E-009	-0.0002453	7
	38	14	158.3615	4849.008	-9850.23	1	10979.06	-63.79018	9.776536E-010	-0.0003129	6
	39	14	125.558	5406.218	-12027.36	1	13186.53	-65.79639	6.842247E-010	-0.0003069	6
	40	14	100.4464	6102.041	-14563.67	1	15790.35	-67.26677	1.267914E-009	-0.0003057	6
	41	15	79.00281	7032.231	-17892.16	1	19224.51	-68.54347	1.011447E-009	-0.0003134	6
	42	15	63.3446	8116.563	-21391.99	1	22880.03	-69.22222	-1.474137E-010	-0.0003139	6
	43	16	49.86702	9680.48	-26181.29	1	27913.65	-69.70822	-2.339376E-010	-0.0003139	6
	44	16	39.72458	11452.98	-31708.56	1	33713.55	-70.14052	9.481607E-011	-0.0003147	6
	45	16	31.6723	13822.77	-38206.84	1	40630.42	-70.11049	1.203805E-009	-0.0003199	6
	46	17	24.93351	16836.76	-46250.65	1	49219.9	-69.99683	-2.352647E-010	-0.0003128	6
	47	17	19.86229	20395.38	-55341.16	1	58979.79	-69.76919	-1.483938E-012	-0.0003146	6
	48	17	15.83615	25263.66	-65914.55	1	70590.23	-69.02923	-1.656403E-009	-0.0003222	6
	49	17	12.40079	31143.06	-79635.84	1	85508.81	-68.64111	-1.944566E-009	-0.0003064	6
	50	18	9.93114	37506.3	-94287.83	1	101473.7	-68.30807	-1.218965E-009	-0.0003059	6
	51	18	7.944915	45486.08	-111364.4	1	120295.5	-67.78275	8.610257E-011	-0.0003201	5
	52	19	6.317385	55288.99	-131790.3	1	142918	-67.24086	7.218519E-011	-0.000308	5
	53	20	5.008013	67449.45	-156026.5	1	169981.5	-66.62143	5.172428E-012	-0.0003149	5
	54	21	3.945707	82467.03	-185392.2	1	202906.6	-66.01933	4.262649E-010	-0.0003158	5
	55	22	3.158693	99018.3	-217184.2	1	238691.4	-65.49087	3.228607E-010	-0.0002876	5
	56	24	2.504006	119958.9	-256055.2	1	282762.1	-64.89746	6.268662E-011	-0.0003073	5
	57	25	1.998082	143697.1	-299173.3	1	331893.8	-64.34438	2.799565E-010	-0.0003003	5
	58	27	1.584686	173737.1	-351947.5	1	392494.1	-63.72698	3.706844E-010	-0.0002684	5
	59	29	1.266892	206949	-410754.5	1	459942.5	-63.25983	3.313119E-010	-0.0002831	5
	60	31	0.999041	249364.3	-482044.3	1	542723.9	-62.64721	3.113527E-010	-0.0003078	5
