EXPLAIN
TAG	EISPOT
TITLE	LABEL	Potentiostatic EIS	Test &Identifier
DATE	LABEL	11/5/2019	Date
TIME	LABEL	10:19:44	Time
NOTES	NOTES	2	&Notes...
	
	
PSTAT	PSTAT	REF600-11020	Potentiostat
VDC	POTEN	0.00000E+000	T	DC &Voltage (V)
FREQINIT	QUANT	1.00000E+006	Initial Fre&q. (Hz)
FREQFINAL	QUANT	1.00000E+000	Final Fre&q. (Hz)
PTSPERDEC	QUANT	1.00000E+001	Points/&decade
VAC	QUANT	2.50000E+001	AC &Voltage (mV rms)
AREA	QUANT	1.00000E-002	&Area (cm^2)
CONDIT	TWOPARAM	T	5.00000E+000	0.00000E+000	Conditionin&g	Time(s)	E(V)
DELAY	TWOPARAM	T	5.00000E+000	0.00000E+000	Init. De&lay	Time(s)	Stab.(mV/s)
SPEED	SELECTOR	1	&Optimize for:
ZGUESS	QUANT	1.00000E+005	E&stimated Z (ohms)
OCVCURVE	TABLE	19
	Pt	T	Vf	Vm	Ach	Over
	#	s	V vs. Ref.	V	V	bits
	0	0.258333	5.67414E-003	5.67414E-003	5.88899E-004	...........
	1	0.516667	5.66474E-003	5.18219E-003	5.87765E-004	...........
	2	0.775	5.60747E-003	4.73891E-003	5.89899E-004	...........
	3	1.03333	5.44776E-003	4.35719E-003	5.87565E-004	...........
	4	1.29167	5.16831E-003	3.98210E-003	5.85265E-004	...........
	5	1.55	4.80821E-003	3.68891E-003	5.88099E-004	...........
	6	1.80833	4.42566E-003	3.39346E-003	5.89332E-004	...........
	7	2.06667	4.06244E-003	3.17524E-003	5.85499E-004	...........
	8	2.325	3.73689E-003	2.93557E-003	5.86032E-004	...........
	9	2.58333	3.45038E-003	2.71472E-003	5.87399E-004	...........
	10	2.84167	3.19440E-003	2.48449E-003	5.88532E-004	...........
	11	3.1	2.95755E-003	2.29045E-003	5.86199E-004	...........
	12	3.35833	2.73252E-003	2.10487E-003	5.84665E-004	...........
	13	3.61667	2.51797E-003	1.91324E-003	5.87665E-004	...........
	14	3.875	2.31453E-003	1.74897E-003	5.85132E-004	...........
	15	4.13333	2.12200E-003	1.58997E-003	5.82932E-004	...........
	16	4.39167	1.94087E-003	1.47388E-003	5.83365E-004	...........
	17	4.65	1.77348E-003	1.34014E-003	5.85065E-004	...........
	18	4.90833	1.62115E-003	1.20420E-003	5.84032E-004	...........
EOC	QUANT	0.0016211	Open Circuit (V)
PSTATMODEL	IQUANT	4	Pstat Model
PSTATSECTION	LABEL	REF600-11020	Pstat Section
PSTATSERIALNO	LABEL	11020	Pstat Serial Number
CTRLMODE	IQUANT	1	Control Mode
IESTAB	IQUANT	0	I/E Stability
CASPEED	IQUANT	1	Control Amp Speed
CONVENTION	IQUANT	1	Current Convention
ICHRANGE	IQUANT	2	Ich Range
ICHRANGEMODE	TOGGLE	F	Ich Auto Range
ICHOFFSETENABLE	TOGGLE	T	Ich Offset Enable
ICHOFFSET	QUANT	0	Ich Offset (V)
ICHFILTER	IQUANT	3	Ich Filter
VCHRANGE	IQUANT	2	Vch Range
VCHRANGEMODE	TOGGLE	F	Vch Auto Range
VCHOFFSETENABLE	TOGGLE	T	Vch Offset Enable
VCHOFFSET	QUANT	0	Vch Offset (V)
VCHFILTER	IQUANT	3	Vch Filter
ACHRANGE	IQUANT	2	Ach Range
ACHOFFSETENABLE	TOGGLE	F	Ach Offset Enable
ACHOFFSET	QUANT	0	Ach Offset (V)
ACHFILTER	IQUANT	3	Ach Filter
IERANGELOWERLIMIT	IQUANT	1	I/E Range Lower Limit
IERANGEMODE	TOGGLE	F	I/E AutoRange
IERANGE	IQUANT	4	I/E Range
POSFEEDENABLE	TOGGLE	F	Positive Feedback IR Comp
POSFEEDRESISTANCE	QUANT	0	Positive Feedback Resistance (ohm)
ACHSELECT	IQUANT	0	Ach Select
CABLEID	IQUANT	14	Cable ID
DCCALDATE	LABEL	8/19/2019	DC Calibration Date
ACCALDATE	LABEL	8/19/2019	AC Calibration Date
THERMOSELECT	IQUANT	1	Thermo Select
FRAMEWORKVERSION	QUANT	6.33	Framework Version
INSTRUMENTVERSION	LABEL	3.50	Instrument Version
ZCURVE	TABLE
	Pt	Time	Freq	Zreal	Zimag	Zsig	Zmod	Zphz	Idc	Vdc	IERange
	#	s	Hz	ohm	ohm	V	ohm	°	A	V	#
	0	2	1000078	2530.888	-2029.376	1	3244.035	-38.72415	6.718231E-006	0.0026088	8
	1	3	794390.6	2932.042	-1994.306	1	3546.002	-34.22262	-3.296904E-006	0.0028969	8
	2	5	630984.4	3318.644	-1939.973	1	3844.072	-30.30919	-5.118723E-006	0.0036336	8
	3	6	501234.4	3664.038	-1810.183	1	4086.8	-26.29124	4.176279E-007	0.0027793	8
	4	8	398109.4	3949.159	-1650.268	1	4280.098	-22.679	-7.020608E-006	0.0040885	8
	5	9	316265.6	4174.775	-1471.405	1	4426.486	-19.41507	-3.706822E-006	0.0036569	8
	6	11	251203.1	4381.148	-1329.628	1	4578.468	-16.88244	-4.825251E-006	0.0033905	8
	7	12	199546.9	4525.917	-1178.923	1	4676.941	-14.60011	-4.781263E-006	0.0033944	8
	8	13	158578.1	4636.497	-1070.752	1	4758.531	-13.00389	-9.040521E-007	0.0035029	8
	9	15	125953.1	4800.641	-918.6613	1	4887.75	-10.83328	-1.343249E-006	0.0015356	7
	10	16	100078.1	4872.008	-869.0027	1	4948.901	-10.11329	1.179565E-006	0.0010086	7
	11	18	79453.13	4956.632	-835.447	1	5026.547	-9.56735	-1.452366E-006	0.0046819	7
	12	19	63140.62	5034.927	-832.2946	1	5103.254	-9.386353	-7.619233E-007	0.0048902	7
	13	20	50203.12	5117.869	-848.1252	1	5187.667	-9.409452	1.30416E-006	0.0016732	7
	14	22	39890.62	5198.44	-880.3071	1	5272.45	-9.61132	1.304629E-006	0.0016776	7
	15	23	31640.63	5282.808	-924.3495	1	5363.066	-9.92475	-3.721327E-007	0.0046135	7
	16	24	25171.88	5380.905	-993.818	1	5471.911	-10.46424	9.541731E-007	0.0008714	7
	17	26	20015.62	5484.452	-1081.085	1	5589.987	-11.15107	1.182578E-006	0.0009962	7
	18	27	15890.62	5598.792	-1189.747	1	5723.808	-11.99693	1.744167E-007	0.0013235	7
	19	28	12609.37	5717.333	-1331.658	1	5870.367	-13.11134	-1.079595E-006	0.0049754	7
	20	30	10078.13	5845.082	-1470.394	1	6027.192	-14.12038	-1.215613E-006	0.0035468	7
	21	31	8015.625	6012.886	-1660.541	1	6237.964	-15.43822	-1.427838E-006	0.0042211	7
	22	33	6328.125	6199.447	-1870.319	1	6475.434	-16.7881	1.761967E-007	0.0013236	7
	23	34	5015.625	6403.902	-2122.27	1	6746.406	-18.33533	4.360822E-007	0.0036614	7
	24	36	3984.375	6639.354	-2407.765	1	7062.46	-19.9332	7.02819E-007	0.0032798	7
	25	37	3170.956	6896.204	-2741.943	1	7421.313	-21.68285	1.683389E-007	0.0013303	7
	26	39	2527.573	7199.291	-3116.479	1	7844.886	-23.40715	1.305895E-006	0.0016733	7
	27	40	1976.103	7561.477	-3578.653	1	8365.565	-25.32699	4.365306E-007	0.0036613	7
	28	42	1577.524	7933.019	-4055.527	1	8909.55	-27.07708	-1.076568E-006	0.0049682	7
	29	43	1265.625	8389.603	-4593.823	1	9564.97	-28.70341	4.361107E-007	0.0036563	7
	30	44	998.264	8896.609	-5244.282	1	10327.25	-30.51806	1.681322E-007	0.0013211	7
	31	46	796.875	9416.991	-5910.486	1	11118.16	-32.11405	1.416198E-007	-0.0004285	6
	32	47	627.7902	9988.12	-6746.053	1	12052.87	-34.0354	-1.275129E-007	0.0023184	6
	33	48	505.5147	10514.54	-7639.962	1	12997.1	-36.00251	1.860385E-007	-0.0003741	6
	34	50	397.9953	11088.88	-8825.844	1	14172.47	-38.51693	6.715796E-010	0.0029415	6
	35	51	315.5048	11640.36	-10266.62	1	15521	-41.4118	-2.878748E-010	0.002951	6
	36	52	252.4038	12171.88	-12000.87	1	17093.14	-44.59468	1.874524E-010	0.0029358	6
	37	54	198.6229	12769.33	-14359.9	1	19216.21	-48.35537	6.926407E-011	0.0029434	6
	38	55	158.3615	13384.82	-17180.57	1	21779.01	-52.07901	-2.883187E-010	0.0029453	6
	39	56	125.558	14128.06	-20797.75	1	25142.56	-55.81145	1.073149E-009	0.0029439	6
	40	58	100.4464	15008.37	-25156.88	1	29293.69	-59.18007	1.315201E-009	0.0029452	6
	41	59	79.00281	16244	-30927.52	1	34933.92	-62.29029	8.335168E-010	0.0029333	6
	42	61	63.3446	17954.11	-37827.3	1	41871.88	-64.60941	1.232173E-010	0.0029447	6
	43	62	49.86702	19095.73	-46154.95	1	49949.24	-67.52361	-6.402364E-010	0.0029415	6
	44	63	39.72458	21739.16	-56660.95	1	60688.18	-69.00964	4.452512E-010	0.0029439	6
	45	65	31.6723	24779.13	-69331.63	1	73626.63	-70.33311	1.479666E-009	0.0029318	6
	46	66	24.93351	29389.87	-85135.45	1	90065.59	-70.95466	3.86075E-010	0.002937	6
	47	68	19.86229	35177.48	-103492.8	1	109307.9	-71.22696	3.32886E-010	0.0029492	5
	48	69	15.83615	41272.65	-125040.4	1	131675.8	-71.73325	8.139165E-010	0.0029472	5
	49	70	12.40079	50789.25	-153892.4	1	162056.8	-71.73551	9.682296E-010	0.0029536	5
	50	72	9.93114	64778.23	-183850.5	1	194928.7	-70.5905	-3.47965E-010	0.0029569	5
	51	73	7.944915	79425.04	-220358.8	1	234235.7	-70.17906	7.461273E-010	0.0029461	5
	52	75	6.317385	101096.3	-262383.6	1	281186.1	-68.92834	4.521039E-010	0.0029486	5
	53	77	5.008013	127203.7	-311929.8	1	336869.4	-67.81456	2.759389E-010	0.0029551	5
	54	80	3.945707	159954.5	-369945.1	1	403044.4	-66.61762	9.651277E-011	0.0029319	5
	55	82	3.158693	196005.3	-431216.2	1	473672.3	-65.55627	2.521509E-010	0.0029624	5
	56	86	2.504006	239879.4	-504178.2	1	558334.9	-64.55569	4.161232E-011	0.0029416	5
	57	88	1.998082	287988.2	-583884.6	1	651044.1	-63.74619	6.703908E-011	0.0029246	5
	58	91	1.584686	344699.5	-677408.5	1	760065.8	-63.03072	1.293269E-010	0.0029803	5
	59	95	1.266892	403672.5	-785809.1	1	883429.3	-62.8103	7.142098E-011	0.0029362	5
	60	99	0.999041	477378.7	-922537.2	1	1038733	-62.64012	2.023207E-010	0.0029711	4
