EXPLAIN
TAG	EISPOT
TITLE	LABEL	Potentiostatic IDE	Test &Identifier
DATE	LABEL	9/16/2019	Date
TIME	LABEL	8:18:55	Time
NOTES	NOTES	1	&Notes...
	
PSTAT	PSTAT	REF600-11020	Potentiostat
VDC	POTEN	0.00000E+000	T	DC &Voltage (V)
FREQINIT	QUANT	1.00000E+006	Initial Fre&q. (Hz)
FREQFINAL	QUANT	1.00000E+000	Final Fre&q. (Hz)
PTSPERDEC	QUANT	1.00000E+001	Points/&decade
VAC	QUANT	2.50000E+001	AC &Voltage (mV rms)
AREA	QUANT	1.00000E-002	&Area (cm^2)
CONDIT	TWOPARAM	T	5.00000E+000	0.00000E+000	Conditionin&g	Time(s)	E(V)
DELAY	TWOPARAM	T	5.00000E+000	0.00000E+000	Init. De&lay	Time(s)	Stab.(mV/s)
SPEED	SELECTOR	1	&Optimize for:
ZGUESS	QUANT	1.00000E+007	E&stimated Z (ohms)
OCVCURVE	TABLE	19
	Pt	T	Vf	Vm	Ach	Over
	#	s	V vs. Ref.	V	V	bits
	0	0.258333	1.09739E-003	1.09739E-003	5.52466E-004	...........
	1	0.516667	1.09278E-003	8.56072E-004	5.50866E-004	...........
	2	0.775	1.06495E-003	6.52059E-004	5.52999E-004	...........
	3	1.03333	9.88269E-004	4.82296E-004	5.51399E-004	...........
	4	1.29167	8.55937E-004	3.00978E-004	5.52599E-004	...........
	5	1.55	6.86985E-004	1.48822E-004	5.54999E-004	...........
	6	1.80833	5.06427E-004	-2.36964E-005	5.55599E-004	...........
	7	2.06667	3.28856E-004	-1.89050E-004	5.53032E-004	...........
	8	2.325	1.57527E-004	-3.46827E-004	5.53266E-004	...........
	9	2.58333	-9.00515E-006	-4.96499E-004	5.53366E-004	...........
	10	2.84167	-1.71424E-004	-6.44168E-004	5.52899E-004	...........
	11	3.1	-3.29455E-004	-8.03516E-004	5.51366E-004	...........
	12	3.35833	-4.83786E-004	-9.44933E-004	5.51299E-004	...........
	13	3.61667	-6.35287E-004	-1.06963E-003	5.45466E-004	...........
	14	3.875	-7.82823E-004	-1.20242E-003	5.45499E-004	...........
	15	4.13333	-9.24352E-004	-1.32897E-003	5.53999E-004	...........
	16	4.39167	-1.05932E-003	-1.43455E-003	5.51999E-004	...........
	17	4.65	-1.18778E-003	-1.54279E-003	5.46366E-004	...........
	18	4.90833	-1.30877E-003	-1.62485E-003	5.46799E-004	...........
EOC	QUANT	-0.0013088	Open Circuit (V)
PSTATMODEL	IQUANT	4	Pstat Model
PSTATSECTION	LABEL	REF600-11020	Pstat Section
PSTATSERIALNO	LABEL	11020	Pstat Serial Number
CTRLMODE	IQUANT	1	Control Mode
IESTAB	IQUANT	0	I/E Stability
CASPEED	IQUANT	1	Control Amp Speed
CONVENTION	IQUANT	1	Current Convention
ICHRANGE	IQUANT	2	Ich Range
ICHRANGEMODE	TOGGLE	F	Ich Auto Range
ICHOFFSETENABLE	TOGGLE	T	Ich Offset Enable
ICHOFFSET	QUANT	0	Ich Offset (V)
ICHFILTER	IQUANT	3	Ich Filter
VCHRANGE	IQUANT	2	Vch Range
VCHRANGEMODE	TOGGLE	F	Vch Auto Range
VCHOFFSETENABLE	TOGGLE	T	Vch Offset Enable
VCHOFFSET	QUANT	0	Vch Offset (V)
VCHFILTER	IQUANT	3	Vch Filter
ACHRANGE	IQUANT	2	Ach Range
ACHOFFSETENABLE	TOGGLE	F	Ach Offset Enable
ACHOFFSET	QUANT	0	Ach Offset (V)
ACHFILTER	IQUANT	3	Ach Filter
IERANGELOWERLIMIT	IQUANT	1	I/E Range Lower Limit
IERANGEMODE	TOGGLE	F	I/E AutoRange
IERANGE	IQUANT	2	I/E Range
POSFEEDENABLE	TOGGLE	F	Positive Feedback IR Comp
POSFEEDRESISTANCE	QUANT	0	Positive Feedback Resistance (ohm)
ACHSELECT	IQUANT	0	Ach Select
CABLEID	IQUANT	14	Cable ID
DCCALDATE	LABEL	8/19/2019	DC Calibration Date
ACCALDATE	LABEL	8/19/2019	AC Calibration Date
THERMOSELECT	IQUANT	1	Thermo Select
FRAMEWORKVERSION	QUANT	6.33	Framework Version
INSTRUMENTVERSION	LABEL	3.50	Instrument Version
ZCURVE	TABLE
	Pt	Time	Freq	Zreal	Zimag	Zsig	Zmod	Zphz	Idc	Vdc	IERange
	#	s	Hz	ohm	ohm	V	ohm	°	A	V	#
	0	2	1000078	2486.575	-1038.359	1	2694.67	-22.66472	-1.103773E-006	0.0015375	8
	1	4	794390.6	2648.904	-907.5908	1	2800.074	-18.91294	3.745569E-006	-4.730958E-005	8
	2	5	630984.4	2776.288	-790.7761	1	2886.711	-15.89866	-3.510942E-007	0.0004103	8
	3	7	501234.4	2864.624	-658.2349	1	2939.276	-12.94082	-1.952788E-006	0.0008168	8
	4	8	398109.4	2941.65	-564.4617	1	2995.317	-10.86223	1.472135E-006	7.078121E-005	8
	5	9	316265.6	2989.892	-480.5379	1	3028.262	-9.130542	8.2028E-007	0.0002022	8
	6	11	251203.1	3015.121	-404.9573	1	3042.194	-7.649552	-1.841163E-006	0.0006916	8
	7	12	199546.9	3041.142	-341.5448	1	3060.261	-6.407926	-9.622626E-007	0.0005667	8
	8	13	158578.1	3075.5	-315.2133	1	3091.611	-5.85191	-6.586955E-007	0.00046	8
	9	15	125953.1	3107.243	-233.7057	1	3116.019	-4.301301	-1.514739E-007	0.0005493	7
	10	16	100078.1	3120.297	-205.8581	1	3127.08	-3.774554	7.690814E-008	0.0002439	7
	11	17	79453.13	3134.665	-196.5479	1	3140.821	-3.587829	-3.551812E-008	0.000376	7
	12	19	63140.62	3150.798	-191.5514	1	3156.615	-3.478991	4.122202E-008	0.0002343	7
	13	20	50203.12	3167.018	-189.3864	1	3172.675	-3.422189	-5.055742E-010	0.0003766	7
	14	21	39890.62	3181.973	-191.7152	1	3187.743	-3.447926	-1.339795E-008	0.0002742	7
	15	23	31640.63	3198.63	-198.4589	1	3204.781	-3.550363	-3.496647E-008	0.0003943	7
	16	24	25171.88	3214.924	-210.657	1	3221.818	-3.748931	1.751407E-008	0.0002208	7
	17	25	20015.62	3231.269	-228.0738	1	3239.308	-4.037432	-1.331195E-008	0.0002754	7
	18	27	15890.62	3252.284	-249.8396	1	3261.867	-4.392819	1.027085E-007	0.0001256	7
	19	28	12609.37	3266.478	-283.2565	1	3278.737	-4.956073	4.301136E-008	0.0002189	7
	20	29	10078.13	3284.767	-322.7523	1	3300.585	-5.611716	-2.454318E-008	0.0003315	7
	21	31	8015.625	3306.181	-373.5296	1	3327.215	-6.445897	-3.347251E-008	0.0003902	7
	22	32	6328.125	3330.364	-439.3059	1	3359.213	-7.514461	2.787957E-008	0.0003155	7
	23	33	5015.625	3357.567	-519.5856	1	3397.532	-8.796779	2.093956E-008	0.0002145	7
	24	35	3984.375	3388.875	-616.8317	1	3444.554	-10.31585	-2.838435E-008	0.000304	7
	25	36	3170.956	3425.295	-735.1427	1	3503.296	-12.11316	1.897054E-008	0.0002124	7
	26	37	2527.573	3466.066	-877.6589	1	3575.458	-14.20947	5.258135E-008	0.0001623	7
	27	39	1976.103	3517.931	-1068.216	1	3676.537	-16.89085	-3.079717E-008	0.0003884	7
	28	40	1577.524	3574.461	-1280.501	1	3796.901	-19.70935	7.905685E-008	0.0002226	7
	29	41	1265.625	3639.603	-1533.589	1	3949.507	-22.84869	-3.28964E-010	0.0002711	7
	30	43	998.264	3709.721	-1864.542	1	4151.933	-26.68455	-3.322058E-008	0.0003741	7
	31	44	796.875	3792.346	-2253.05	1	4411.136	-30.71474	-3.474927E-008	0.0003781	7
	32	45	627.7902	3891.911	-2757.808	1	4769.956	-35.32139	1.666113E-009	0.0003601	7
	33	47	505.5147	4000.138	-3320.964	1	5199.03	-39.69987	-1.000059E-008	0.0002603	7
	34	48	397.9953	4139.451	-4090.559	1	5819.599	-44.65963	5.821428E-009	0.0003174	7
	35	49	315.5048	4303.223	-5015.447	1	6608.512	-49.37061	5.828226E-009	0.0003186	7
	36	51	252.4038	4494.476	-6109.883	1	7584.918	-53.66152	5.764606E-009	0.0003216	7
	37	52	198.6229	4751.636	-7562.954	1	8931.759	-57.85976	5.816932E-009	0.0003232	7
	38	53	158.3615	5059.228	-9261.183	1	10552.98	-61.35297	2.020861E-009	0.0002573	6
	39	55	125.558	5459.29	-11403.66	1	12643.07	-64.4181	1.91821E-009	0.0002551	6
	40	56	100.4464	5961.491	-13927.37	1	15149.62	-66.82706	2.519863E-009	0.0002489	6
	41	57	79.00281	6669.715	-17268.7	1	18511.97	-68.88187	1.014574E-009	0.0002561	6
	42	59	63.3446	7418.978	-21137.27	1	22401.46	-70.65942	1.269018E-009	0.0002454	6
	43	60	49.86702	8677.928	-25911.37	1	27325.91	-71.48388	1.762411E-009	0.0002493	6
	44	61	39.72458	10199.94	-31802.78	1	33398.43	-72.21766	1.360019E-009	0.0002587	6
	45	63	31.6723	12140.25	-38698.49	1	40558.09	-72.58263	1.622383E-009	0.0002567	6
	46	64	24.93351	15002.21	-47602.76	1	49910.81	-72.50753	1.896883E-009	0.0002547	6
	47	65	19.86229	18583.78	-57714.37	1	60632.54	-72.15166	1.216637E-009	0.0002523	6
	48	67	15.83615	22877.9	-69960.29	1	73605.98	-71.8916	2.192836E-009	0.0002561	6
	49	68	12.40079	30141.73	-84650.02	1	89856.27	-70.40047	3.124906E-009	0.00025	6
	50	69	9.93114	38036.93	-101248.3	1	108157.4	-69.40982	1.185716E-009	0.0002578	5
	51	71	7.944915	48250.59	-119781.9	1	129134.9	-68.05943	1.622737E-009	0.0002646	5
	52	73	6.317385	61516.39	-141759.1	1	154531.3	-66.54156	7.727066E-010	0.0002749	5
	53	75	5.008013	78336.5	-166446	1	183958.9	-64.79636	1.39646E-009	0.0002714	5
	54	77	3.945707	100029.6	-194612.9	1	218815.2	-62.79716	4.845965E-010	0.0002624	5
	55	80	3.158693	124036.8	-223059.7	1	255226.9	-60.92289	1.040748E-009	0.0002757	5
	56	83	2.504006	153891.9	-254991.4	1	297831.1	-58.88826	1.604281E-010	0.0002658	5
	57	86	1.998082	185642.2	-286659.5	1	341521.1	-57.0727	1.141985E-009	0.0002333	5
	58	89	1.584686	225286.3	-322686.2	1	393548.4	-55.07882	5.47963E-010	0.0002082	5
	59	93	1.266892	263933	-358345.7	1	445053.2	-53.62717	1.098503E-009	0.0002543	5
	60	97	0.999041	307927.8	-402981.5	1	507162.3	-52.6157	1.24735E-010	0.0002356	5
