EXPLAIN
TAG	EISPOT
TITLE	LABEL	Potentiostatic IDE	Test &Identifier
DATE	LABEL	9/18/2019	Date
TIME	LABEL	9:37:45	Time
NOTES	NOTES	1	&Notes...
	
PSTAT	PSTAT	REF600-11020	Potentiostat
VDC	POTEN	0.00000E+000	T	DC &Voltage (V)
FREQINIT	QUANT	1.00000E+006	Initial Fre&q. (Hz)
FREQFINAL	QUANT	1.00000E+000	Final Fre&q. (Hz)
PTSPERDEC	QUANT	1.00000E+001	Points/&decade
VAC	QUANT	2.50000E+001	AC &Voltage (mV rms)
AREA	QUANT	1.00000E-002	&Area (cm^2)
CONDIT	TWOPARAM	T	5.00000E+000	0.00000E+000	Conditionin&g	Time(s)	E(V)
DELAY	TWOPARAM	T	5.00000E+000	0.00000E+000	Init. De&lay	Time(s)	Stab.(mV/s)
SPEED	SELECTOR	1	&Optimize for:
ZGUESS	QUANT	1.00000E+007	E&stimated Z (ohms)
OCVCURVE	TABLE	19
	Pt	T	Vf	Vm	Ach	Over
	#	s	V vs. Ref.	V	V	bits
	0	0.258333	7.08281E-004	7.08281E-004	5.63399E-004	...........
	1	0.516667	6.99291E-004	2.37698E-004	5.64232E-004	...........
	2	0.775	6.45137E-004	-1.53424E-004	5.55499E-004	...........
	3	1.03333	4.97626E-004	-4.13786E-004	5.62499E-004	...........
	4	1.29167	2.46946E-004	-8.26049E-004	5.69499E-004	...........
	5	1.55	-7.33269E-005	-1.25033E-003	5.67932E-004	...........
	6	1.80833	-4.27020E-004	-1.43739E-003	5.64699E-004	...........
	7	2.06667	-7.86585E-004	-1.77569E-003	5.59699E-004	...........
	8	2.325	-1.12957E-003	-2.11404E-003	5.70132E-004	...........
	9	2.58333	-1.44849E-003	-2.22754E-003	5.71732E-004	...........
	10	2.84167	-1.74355E-003	-2.54294E-003	5.66532E-004	...........
	11	3.1	-2.01441E-003	-2.80849E-003	5.69999E-004	...........
	12	3.35833	-2.26738E-003	-2.92370E-003	5.71966E-004	...........
	13	3.61667	-2.50811E-003	-3.19838E-003	5.67599E-004	...........
	14	3.875	-2.73655E-003	-3.44146E-003	5.67866E-004	...........
	15	4.13333	-2.95541E-003	-3.48893E-003	5.70866E-004	...........
	16	4.39167	-3.16281E-003	-3.69360E-003	5.64932E-004	...........
	17	4.65	-3.35101E-003	-3.89101E-003	5.67866E-004	...........
	18	4.90833	-3.52125E-003	-3.93039E-003	5.64632E-004	...........
EOC	QUANT	-0.0035213	Open Circuit (V)
PSTATMODEL	IQUANT	4	Pstat Model
PSTATSECTION	LABEL	REF600-11020	Pstat Section
PSTATSERIALNO	LABEL	11020	Pstat Serial Number
CTRLMODE	IQUANT	1	Control Mode
IESTAB	IQUANT	0	I/E Stability
CASPEED	IQUANT	1	Control Amp Speed
CONVENTION	IQUANT	1	Current Convention
ICHRANGE	IQUANT	2	Ich Range
ICHRANGEMODE	TOGGLE	F	Ich Auto Range
ICHOFFSETENABLE	TOGGLE	T	Ich Offset Enable
ICHOFFSET	QUANT	0	Ich Offset (V)
ICHFILTER	IQUANT	3	Ich Filter
VCHRANGE	IQUANT	2	Vch Range
VCHRANGEMODE	TOGGLE	F	Vch Auto Range
VCHOFFSETENABLE	TOGGLE	T	Vch Offset Enable
VCHOFFSET	QUANT	0	Vch Offset (V)
VCHFILTER	IQUANT	3	Vch Filter
ACHRANGE	IQUANT	2	Ach Range
ACHOFFSETENABLE	TOGGLE	F	Ach Offset Enable
ACHOFFSET	QUANT	0	Ach Offset (V)
ACHFILTER	IQUANT	3	Ach Filter
IERANGELOWERLIMIT	IQUANT	1	I/E Range Lower Limit
IERANGEMODE	TOGGLE	F	I/E AutoRange
IERANGE	IQUANT	2	I/E Range
POSFEEDENABLE	TOGGLE	F	Positive Feedback IR Comp
POSFEEDRESISTANCE	QUANT	0	Positive Feedback Resistance (ohm)
ACHSELECT	IQUANT	0	Ach Select
CABLEID	IQUANT	14	Cable ID
DCCALDATE	LABEL	8/19/2019	DC Calibration Date
ACCALDATE	LABEL	8/19/2019	AC Calibration Date
THERMOSELECT	IQUANT	1	Thermo Select
FRAMEWORKVERSION	QUANT	6.33	Framework Version
INSTRUMENTVERSION	LABEL	3.50	Instrument Version
ZCURVE	TABLE
	Pt	Time	Freq	Zreal	Zimag	Zsig	Zmod	Zphz	Idc	Vdc	IERange
	#	s	Hz	ohm	ohm	V	ohm	°	A	V	#
	0	2	1000078	2372.415	-1691.207	1	2913.509	-35.48366	-1.429359E-006	-0.0009039	8
	1	3	794390.6	2700.742	-1611.059	1	3144.76	-30.81712	-4.498839E-007	-0.0012313	8
	2	4	630984.4	2993.641	-1466.452	1	3333.521	-26.09818	9.399324E-007	-0.0019067	8
	3	6	501234.4	3231.17	-1304.536	1	3484.577	-21.98565	3.943107E-006	-0.0025719	8
	4	7	398109.4	3424.183	-1158.63	1	3614.894	-18.69411	-1.422197E-006	-0.0016751	8
	5	8	316265.6	3556.233	-986.159	1	3690.434	-15.49893	-1.668089E-006	-0.0014749	8
	6	10	251203.1	3656.425	-854.1129	1	3754.857	-13.1481	-6.543142E-007	-0.0016544	8
	7	11	199546.9	3736.633	-752.1219	1	3811.576	-11.38062	-5.650292E-007	-0.0017653	8
	8	12	158578.1	3812.921	-645.6998	1	3867.208	-9.61158	7.733805E-007	-0.0020534	8
	9	14	125953.1	3877.688	-561.383	1	3918.114	-8.237625	7.139899E-007	-0.0032463	7
	10	15	100078.1	3914.102	-503.3615	1	3946.336	-7.328132	-4.035472E-008	-0.0019025	7
	11	16	79453.13	3952.238	-475.1339	1	3980.695	-6.85514	5.937537E-009	-0.0020182	7
	12	18	63140.62	3988.991	-460.1523	1	4015.444	-6.580302	3.473049E-008	-0.0020264	7
	13	19	50203.12	4025.236	-456.4033	1	4051.028	-6.468883	-2.644885E-009	-0.0019962	7
	14	20	39890.62	4060.024	-462.4658	1	4086.278	-6.498391	-4.381049E-009	-0.0019449	7
	15	22	31640.63	4101.337	-485.8102	1	4130.01	-6.755303	4.558041E-008	-0.0020708	7
	16	23	25171.88	4142.916	-518.3897	1	4175.222	-7.132169	-3.723165E-009	-0.0019645	7
	17	24	20015.62	4187.511	-563.4717	1	4225.251	-7.663691	-3.223958E-008	-0.0019369	7
	18	26	15890.62	4239.476	-623.9127	1	4285.14	-8.371976	-2.278203E-008	-0.0019356	7
	19	27	12609.37	4293.494	-700.2466	1	4350.223	-9.263087	-5.020212E-009	-0.0019539	7
	20	28	10078.13	4352.656	-790.3045	1	4423.822	-10.29099	-4.942087E-009	-0.0019566	7
	21	30	8015.625	4421.463	-901.8331	1	4512.499	-11.52832	-9.761461E-009	-0.0020001	7
	22	31	6328.125	4499.677	-1042.51	1	4618.866	-13.04446	5.671165E-008	-0.0020804	7
	23	32	5015.625	4588.086	-1208.274	1	4744.519	-14.75387	7.148708E-008	-0.0020784	7
	24	34	3984.375	4688.162	-1405.333	1	4894.264	-16.68673	-2.783991E-009	-0.0019574	7
	25	35	3170.956	4801.325	-1637.845	1	5072.993	-18.83572	3.132453E-009	-0.0020331	7
	26	36	2527.573	4930.811	-1916.053	1	5290.005	-21.23552	5.736639E-008	-0.0020157	7
	27	38	1976.103	5092.603	-2276.173	1	5578.132	-24.08257	5.858531E-008	-0.0020749	7
	28	39	1577.524	5260.992	-2670.845	1	5900.123	-26.91552	7.374051E-008	-0.0020751	7
	29	40	1265.625	5459.441	-3125.161	1	6290.639	-29.78822	-3.071708E-009	-0.0019717	7
	30	42	998.264	5684.586	-3717.361	1	6792.149	-33.18216	-3.385038E-008	-0.0019493	7
	31	43	796.875	5935.888	-4392.933	1	7384.621	-36.50378	7.317857E-009	-0.0019196	7
	32	44	627.7902	6241.628	-5251.477	1	8156.956	-40.07602	7.089066E-009	-0.0019204	7
	33	46	505.5147	6556.542	-6189.118	1	9016.287	-43.34877	7.19165E-008	-0.0020858	7
	34	47	397.9953	6960.11	-7437.656	1	10186.36	-46.8997	9.935469E-010	-0.0020207	6
	35	48	315.5048	7403.026	-8916.812	1	11589.41	-50.29944	6.926673E-010	-0.0020262	6
	36	50	252.4038	7888.862	-10644.45	1	13249.09	-53.45694	1.543669E-009	-0.002029	6
	37	51	198.6229	8488.636	-12909.13	1	15450	-56.67234	1.407529E-009	-0.0020313	6
	38	52	158.3615	9143.646	-15534.89	1	18026.06	-59.51945	1.667069E-009	-0.0020271	6
	39	54	125.558	9931.75	-18837.02	1	21294.9	-62.19972	1.094695E-009	-0.0020267	6
	40	55	100.4464	10844.98	-22718.56	1	25174.32	-64.48196	1.806131E-009	-0.0020311	6
	41	56	79.00281	11982.36	-27859.23	1	30326.78	-66.72729	-9.479553E-010	-0.0020385	6
	42	58	63.3446	13552.93	-33817.83	1	36432.51	-68.16091	3.491773E-009	-0.0020375	6
	43	59	49.86702	15009.98	-41484.66	1	44116.62	-70.10886	3.391859E-010	-0.0020426	6
	44	61	39.72458	17503.26	-50492.1	1	53439.84	-70.88095	7.048573E-010	-0.0020314	6
	45	62	31.6723	20312.4	-61547.11	1	64812.35	-71.73556	1.02521E-009	-0.0020344	6
	46	63	24.93351	24439.23	-75473.73	1	79331.95	-72.05747	3.494457E-010	-0.0020357	6
	47	65	19.86229	29649.43	-91765.47	1	96436.5	-72.09435	1.048588E-009	-0.0020383	6
	48	66	15.83615	35935.55	-111701.7	1	117339.9	-72.1665	-6.240248E-010	-0.0020332	5
	49	67	12.40079	46463.66	-136233.1	1	143938.7	-71.16755	1.123599E-009	-0.0020319	5
	50	69	9.93114	57197.55	-162933.1	1	172681.1	-70.65641	-6.233666E-010	-0.0020354	5
	51	70	7.944915	70533.48	-194198.9	1	206611.2	-70.03886	1.586169E-009	-0.0020295	5
	52	72	6.317385	90730.55	-231429.8	1	248579.5	-68.59266	1.303105E-009	-0.0020144	5
	53	74	5.008013	115567.8	-274075.3	1	297444.5	-67.13659	8.092653E-010	-0.0020237	5
	54	76	3.945707	147563.2	-324547.8	1	356519.5	-65.54998	4.992575E-010	-0.0020332	5
	55	79	3.158693	183937.4	-377003.5	1	419481.4	-63.99257	5.072801E-010	-0.0020104	5
	56	82	2.504006	228812.9	-437928.3	1	494101.8	-62.41341	6.424507E-011	-0.0020323	5
	57	85	1.998082	278138.5	-506982.6	1	578266.7	-61.25015	5.660138E-011	-0.0020452	5
	58	88	1.584686	342023.5	-573412.3	1	667668.9	-59.18517	2.330705E-010	-0.0019993	5
	59	92	1.266892	408703.8	-649519.5	1	767407.6	-57.82024	3.360172E-010	-0.0020652	5
	60	96	0.999041	489449.6	-740805	1	887892.4	-56.54727	2.827506E-010	-0.0019835	5
