EXPLAIN
TAG	EISPOT
TITLE	LABEL	Potentiostatic EIS	Test &Identifier
DATE	LABEL	8/16/2017	Date
TIME	LABEL	17:04:33	Time
NOTES	NOTES	1	&Notes...
	
PSTAT	PSTAT	REF600-11020	Potentiostat
VDC	POTEN	0.00000E+000	T	DC &Voltage (V)
FREQINIT	QUANT	1.00000E+006	Initial Fre&q. (Hz)
FREQFINAL	QUANT	1.00000E+000	Final Fre&q. (Hz)
PTSPERDEC	QUANT	1.00000E+001	Points/&decade
VAC	QUANT	2.50000E+001	AC &Voltage (mV rms)
AREA	QUANT	1.00000E-002	&Area (cm^2)
CONDIT	TWOPARAM	T	5.00000E+000	0.00000E+000	Conditionin&g	Time(s)	E(V)
DELAY	TWOPARAM	T	5.00000E+000	0.00000E+000	Init. De&lay	Time(s)	Stab.(mV/s)
SPEED	SELECTOR	0	&Optimize for:
ZGUESS	QUANT	1.00000E+005	E&stimated Z (ohms)
OCVCURVE	TABLE	19
	Pt	T	Vf	Vm	Ach	Over
	#	s	V vs. Ref.	V	V	bits
	0	0.258333	4.71446E-003	4.71446E-003	5.62466E-004	...........
	1	0.516667	4.71211E-003	4.59139E-003	5.64332E-004	...........
	2	0.775	4.69819E-003	4.50164E-003	5.67099E-004	...........
	3	1.03333	4.66059E-003	4.41973E-003	5.66266E-004	...........
	4	1.29167	4.59691E-003	4.33725E-003	5.67032E-004	...........
	5	1.55	4.51700E-003	4.27352E-003	5.66866E-004	...........
	6	1.80833	4.43383E-003	4.22936E-003	5.62466E-004	...........
	7	2.06667	4.35713E-003	4.19180E-003	5.62966E-004	...........
	8	2.325	4.29221E-003	4.15710E-003	5.64366E-004	...........
	9	2.58333	4.24002E-003	4.13875E-003	5.66632E-004	...........
	10	2.84167	4.19903E-003	4.12233E-003	5.66166E-004	...........
	11	3.1	4.16699E-003	4.08479E-003	5.62766E-004	...........
	12	3.35833	4.14045E-003	4.06003E-003	5.64866E-004	...........
	13	3.61667	4.11552E-003	4.04434E-003	5.61866E-004	...........
	14	3.875	4.09066E-003	4.01908E-003	5.67166E-004	...........
	15	4.13333	4.06662E-003	4.00138E-003	5.69999E-004	...........
	16	4.39167	4.04514E-003	4.03766E-003	5.64699E-004	...........
	17	4.65	4.03019E-003	4.05352E-003	5.63832E-004	...........
	18	4.90833	4.02626E-003	4.05564E-003	5.66799E-004	...........
EOC	QUANT	0.0040263	Open Circuit (V)
PSTATMODEL	IQUANT	4	Pstat Model
PSTATSECTION	LABEL	REF600-11020	Pstat Section
PSTATSERIALNO	LABEL	11020	Pstat Serial Number
CTRLMODE	IQUANT	1	Control Mode
IESTAB	IQUANT	0	I/E Stability
CASPEED	IQUANT	1	Control Amp Speed
CONVENTION	IQUANT	1	Current Convention
ICHRANGE	IQUANT	2	Ich Range
ICHRANGEMODE	TOGGLE	F	Ich Auto Range
ICHOFFSETENABLE	TOGGLE	T	Ich Offset Enable
ICHOFFSET	QUANT	0	Ich Offset (V)
ICHFILTER	IQUANT	3	Ich Filter
VCHRANGE	IQUANT	2	Vch Range
VCHRANGEMODE	TOGGLE	F	Vch Auto Range
VCHOFFSETENABLE	TOGGLE	T	Vch Offset Enable
VCHOFFSET	QUANT	0	Vch Offset (V)
VCHFILTER	IQUANT	3	Vch Filter
ACHRANGE	IQUANT	2	Ach Range
ACHOFFSETENABLE	TOGGLE	F	Ach Offset Enable
ACHOFFSET	QUANT	0	Ach Offset (V)
ACHFILTER	IQUANT	3	Ach Filter
IERANGELOWERLIMIT	IQUANT	1	I/E Range Lower Limit
IERANGEMODE	TOGGLE	F	I/E AutoRange
IERANGE	IQUANT	4	I/E Range
POSFEEDENABLE	TOGGLE	F	Positive Feedback IR Comp
POSFEEDRESISTANCE	QUANT	0	Positive Feedback Resistance (ohm)
ACHSELECT	IQUANT	0	Ach Select
CABLEID	IQUANT	14	Cable ID
DCCALDATE	LABEL	8/19/2019	DC Calibration Date
ACCALDATE	LABEL	8/19/2019	AC Calibration Date
THERMOSELECT	IQUANT	1	Thermo Select
FRAMEWORKVERSION	QUANT	6.33	Framework Version
INSTRUMENTVERSION	LABEL	3.50	Instrument Version
ZCURVE	TABLE
	Pt	Time	Freq	Zreal	Zimag	Zsig	Zmod	Zphz	Idc	Vdc	IERange
	#	s	Hz	ohm	ohm	V	ohm	°	A	V	#
	0	1	1000078	1881.225	-1342.401	1	2311.071	-35.51083	1.261572E-005	0.0049265	8
	1	1	794390.6	2172.327	-1330.953	1	2547.634	-31.4952	8.36432E-006	0.0042383	8
	2	2	630984.4	2409.337	-1297.629	1	2736.558	-28.30617	6.652292E-006	0.005526	8
	3	2	501234.4	2644.906	-1236.027	1	2919.468	-25.04779	-1.339402E-006	0.0050443	8
	4	2	398109.4	2853.816	-1148.688	1	3076.321	-21.92526	7.743425E-006	0.0054052	8
	5	3	316265.6	3038.793	-1055.934	1	3217.026	-19.16156	1.197442E-005	0.0041163	8
	6	3	251203.1	3195.284	-947.6973	1	3332.862	-16.51996	-8.729514E-006	0.0062721	8
	7	3	199546.9	3326.63	-842.6001	1	3431.682	-14.21349	7.336654E-006	0.0053828	8
	8	4	158578.1	3421.465	-732.9602	1	3499.094	-12.09138	-2.449413E-006	0.0062826	8
	9	4	125953.1	3554.351	-574.7927	1	3600.527	-9.186074	3.695414E-007	0.009634	7
	10	4	100078.1	3611.285	-515.6702	1	3647.916	-8.126563	7.642299E-007	0.0062607	7
	11	5	79453.13	3644.48	-465.2083	1	3674.051	-7.274318	-1.796472E-006	0.0083118	7
	12	5	63140.62	3710.29	-430.173	1	3735.144	-6.613376	1.585092E-006	0.0025992	7
	13	5	50203.12	3749.576	-411.2914	1	3772.065	-6.259756	1.7589E-006	0.0041244	7
	14	6	39890.62	3764.926	-395.1159	1	3785.602	-5.991063	-1.431165E-006	0.0083593	7
	15	6	31640.63	3812.047	-390.1473	1	3831.96	-5.84364	2.460733E-007	0.0069926	7
	16	6	25171.88	3840.127	-395.4727	1	3860.437	-5.879836	-9.428933E-007	0.0081557	7
	17	6	20015.62	3893.056	-407.7377	1	3914.35	-5.979053	7.702589E-007	0.0062463	7
	18	7	15890.62	3924.761	-425.8245	1	3947.794	-6.192194	4.075788E-008	0.0033452	7
	19	7	12609.37	3965.82	-452.0334	1	3991.499	-6.502643	-9.445889E-007	0.0081623	7
	20	7	10078.13	4001.574	-483.9468	1	4030.732	-6.895811	-1.856126E-006	0.0065847	7
	21	8	8015.625	4062.738	-527.4543	1	4096.834	-7.397181	-3.69995E-007	0.0077014	7
	22	8	6328.125	4121.074	-579.4173	1	4161.607	-8.003246	6.816186E-007	0.0027907	7
	23	8	5015.625	4159.811	-641.4857	1	4208.982	-8.766543	-1.42436E-006	0.0083384	7
	24	9	3984.375	4212.358	-721.7343	1	4273.741	-9.7225	-9.362628E-007	0.0081435	7
	25	9	3170.956	4277.415	-823.8465	1	4356.031	-10.90189	1.119169E-006	0.0056906	7
	26	9	2527.573	4320.84	-943.2687	1	4422.603	-12.31485	7.667646E-007	0.0062484	7
	27	10	1976.103	4382.72	-1115.496	1	4522.452	-14.2798	1.584087E-006	0.0026081	7
	28	10	1577.524	4408.513	-1334.042	1	4605.937	-16.83612	-2.05482E-006	0.00807	7
	29	10	1265.625	4485.341	-1560.194	1	4748.946	-19.17986	1.583517E-006	0.0026108	7
	30	11	998.264	4534.08	-1874.238	1	4906.185	-22.45857	-6.620737E-007	0.0042779	7
	31	11	796.875	4621.888	-2285.587	1	5156.138	-26.31303	1.755417E-006	0.0041304	7
	32	11	627.7902	4695.779	-2779.125	1	5456.544	-30.61852	-9.381911E-007	0.008142	7
	33	12	505.5147	4793.298	-3352.553	1	5849.386	-34.96991	-1.426745E-006	0.0083301	7
	34	12	397.9953	4933.991	-4160.553	1	6454.028	-40.13902	1.699601E-009	0.0055242	7
	35	12	315.5048	5098.891	-5116.716	1	7223.536	-45.09998	1.193855E-009	0.0055288	7
	36	13	252.4038	5301.424	-6247.958	1	8194.027	-49.68523	4.316361E-009	0.0055102	7
	37	13	198.6229	5582.423	-7743.096	1	9545.63	-54.21009	5.380542E-009	0.0055123	7
	38	13	158.3615	5933.718	-9483.242	1	11186.64	-57.96555	6.213631E-010	0.0054527	6
	39	13	125.558	6389.532	-11655.21	1	13291.73	-61.26789	5.887315E-010	0.0054635	6
	40	14	100.4464	6949.046	-14205.75	1	15814.31	-63.93344	-6.466089E-010	0.0054581	6
	41	14	79.00281	7715.619	-17521.87	1	19145.41	-66.23408	-3.981128E-010	0.0054474	6
	42	14	63.3446	8754.264	-21181.08	1	22918.88	-67.5444	6.270621E-010	0.0054447	6
	43	15	49.86702	9988.39	-26075.93	1	27923.5	-69.04066	1.26821E-009	0.0054479	6
	44	15	39.72458	11403.47	-31705.34	1	33693.73	-70.21784	1.694357E-010	0.0054635	6
	45	16	31.6723	13265.53	-38438.64	1	40663.3	-70.95998	-1.394477E-010	0.0054414	6
	46	16	24.93351	15724.02	-47114.97	1	49669.56	-71.54422	2.160439E-010	0.005462	6
	47	16	19.86229	18674.43	-57054.98	1	60033.37	-71.87643	2.023774E-009	0.0054544	6
	48	16	15.83615	22470.07	-68731.98	1	72311.75	-71.89624	-3.828033E-010	0.0054608	6
	49	17	12.40079	28023.1	-84602.12	1	89122.46	-71.67337	-1.766335E-010	0.005456	6
	50	17	9.93114	33884.11	-101264.3	1	106783	-71.49922	-2.609838E-010	0.0054675	5
	51	18	7.944915	41578.76	-121228.7	1	128160.8	-71.06916	5.49305E-010	0.0054541	5
	52	18	6.317385	51616.25	-145401.2	1	154291.1	-70.45554	3.692724E-010	0.0054365	5
	53	19	5.008013	64491.12	-174287.2	1	185836.3	-69.69412	7.612595E-011	0.0054431	5
	54	20	3.945707	81016.81	-208784.3	1	223952.2	-68.79172	1.057517E-010	0.0054687	5
	55	21	3.158693	100277.5	-246443.5	1	266063.9	-67.85868	-2.121984E-010	0.0054668	5
	56	23	2.504006	123888.2	-291887.4	1	317090.8	-67.00178	2.766389E-011	0.0054501	5
	57	24	1.998082	152493	-341079	1	373616.1	-65.91105	9.091472E-011	0.0054949	5
	58	26	1.584686	185632	-400033.6	1	441005.8	-65.10676	7.593733E-011	0.0054754	5
	59	28	1.266892	225025	-464646.6	1	516268.1	-64.15942	-7.80354E-011	0.0054287	5
	60	30	0.999041	273499.2	-544764.4	1	609565.4	-63.34104	-1.428796E-010	0.0054142	5
