EXPLAIN
TAG	EISPOT
TITLE	LABEL	Potentiostatic EIS	Test &Identifier
DATE	LABEL	10/8/2019	Date
TIME	LABEL	9:21:37	Time
NOTES	NOTES	2	&Notes...
	
	
PSTAT	PSTAT	REF600-11020	Potentiostat
VDC	POTEN	0.00000E+000	T	DC &Voltage (V)
FREQINIT	QUANT	1.00000E+006	Initial Fre&q. (Hz)
FREQFINAL	QUANT	1.00000E+000	Final Fre&q. (Hz)
PTSPERDEC	QUANT	1.00000E+001	Points/&decade
VAC	QUANT	2.50000E+001	AC &Voltage (mV rms)
AREA	QUANT	1.00000E-002	&Area (cm^2)
CONDIT	TWOPARAM	T	5.00000E+000	0.00000E+000	Conditionin&g	Time(s)	E(V)
DELAY	TWOPARAM	T	5.00000E+000	0.00000E+000	Init. De&lay	Time(s)	Stab.(mV/s)
SPEED	SELECTOR	1	&Optimize for:
ZGUESS	QUANT	1.00000E+004	E&stimated Z (ohms)
OCVCURVE	TABLE	19
	Pt	T	Vf	Vm	Ach	Over
	#	s	V vs. Ref.	V	V	bits
	0	0.258333	1.06419E-002	1.06419E-002	5.32100E-004	...........
	1	0.516667	1.06439E-002	1.07497E-002	5.31466E-004	...........
	2	0.775	1.06568E-002	1.08609E-002	5.36833E-004	...........
	3	1.03333	1.06930E-002	1.09355E-002	5.30200E-004	...........
	4	1.29167	1.07565E-002	1.10215E-002	5.35200E-004	...........
	5	1.55	1.08377E-002	1.10823E-002	5.27333E-004	...........
	6	1.80833	1.09227E-002	1.11494E-002	5.27066E-004	...........
	7	2.06667	1.10030E-002	1.12270E-002	5.30766E-004	...........
	8	2.325	1.10781E-002	1.13255E-002	5.31266E-004	...........
	9	2.58333	1.11525E-002	1.13952E-002	5.31266E-004	...........
	10	2.84167	1.12315E-002	1.15650E-002	5.29966E-004	...........
	11	3.1	1.13211E-002	1.16884E-002	5.31933E-004	...........
	12	3.35833	1.14246E-002	1.17261E-002	5.34466E-004	...........
	13	3.61667	1.15329E-002	1.17121E-002	5.40733E-004	...........
	14	3.875	1.16258E-002	1.17761E-002	5.44233E-004	...........
	15	4.13333	1.16913E-002	1.18130E-002	5.39299E-004	...........
	16	4.39167	1.17368E-002	1.18770E-002	5.31833E-004	...........
	17	4.65	1.17748E-002	1.18169E-002	5.29466E-004	...........
	18	4.90833	1.18081E-002	1.18832E-002	5.36633E-004	...........
EOC	QUANT	0.0118081	Open Circuit (V)
PSTATMODEL	IQUANT	4	Pstat Model
PSTATSECTION	LABEL	REF600-11020	Pstat Section
PSTATSERIALNO	LABEL	11020	Pstat Serial Number
CTRLMODE	IQUANT	1	Control Mode
IESTAB	IQUANT	0	I/E Stability
CASPEED	IQUANT	1	Control Amp Speed
CONVENTION	IQUANT	1	Current Convention
ICHRANGE	IQUANT	2	Ich Range
ICHRANGEMODE	TOGGLE	F	Ich Auto Range
ICHOFFSETENABLE	TOGGLE	T	Ich Offset Enable
ICHOFFSET	QUANT	0	Ich Offset (V)
ICHFILTER	IQUANT	3	Ich Filter
VCHRANGE	IQUANT	2	Vch Range
VCHRANGEMODE	TOGGLE	F	Vch Auto Range
VCHOFFSETENABLE	TOGGLE	T	Vch Offset Enable
VCHOFFSET	QUANT	0	Vch Offset (V)
VCHFILTER	IQUANT	3	Vch Filter
ACHRANGE	IQUANT	2	Ach Range
ACHOFFSETENABLE	TOGGLE	F	Ach Offset Enable
ACHOFFSET	QUANT	0	Ach Offset (V)
ACHFILTER	IQUANT	3	Ach Filter
IERANGELOWERLIMIT	IQUANT	1	I/E Range Lower Limit
IERANGEMODE	TOGGLE	F	I/E AutoRange
IERANGE	IQUANT	6	I/E Range
POSFEEDENABLE	TOGGLE	F	Positive Feedback IR Comp
POSFEEDRESISTANCE	QUANT	0	Positive Feedback Resistance (ohm)
ACHSELECT	IQUANT	0	Ach Select
CABLEID	IQUANT	14	Cable ID
DCCALDATE	LABEL	8/19/2019	DC Calibration Date
ACCALDATE	LABEL	8/19/2019	AC Calibration Date
THERMOSELECT	IQUANT	1	Thermo Select
FRAMEWORKVERSION	QUANT	6.33	Framework Version
INSTRUMENTVERSION	LABEL	3.50	Instrument Version
ZCURVE	TABLE
	Pt	Time	Freq	Zreal	Zimag	Zsig	Zmod	Zphz	Idc	Vdc	IERange
	#	s	Hz	ohm	ohm	V	ohm	°	A	V	#
	0	1	1000078	2597.691	-1767.265	1	3141.851	-34.22829	-2.773247E-006	0.014373	8
	1	2	794390.6	2927.984	-1713.967	1	3392.753	-30.34362	2.036879E-006	0.0133134	8
	2	4	630984.4	3246.562	-1637.388	1	3636.097	-26.76387	-1.932049E-007	0.0135522	8
	3	5	501234.4	3502.898	-1524.333	1	3820.195	-23.51691	-3.194283E-006	0.0140636	8
	4	6	398109.4	3739.412	-1388.688	1	3988.942	-20.37326	-6.950717E-007	0.0135898	8
	5	8	316265.6	3924.6	-1256.753	1	4120.912	-17.75634	3.463062E-006	0.0126424	8
	6	9	251203.1	4086.116	-1138.609	1	4241.789	-15.57067	6.519386E-007	0.0132057	8
	7	10	199546.9	4194.021	-1026.537	1	4317.822	-13.75344	-3.101492E-006	0.0140318	8
	8	12	158578.1	4308.988	-958.739	1	4414.358	-12.54383	2.345083E-006	0.0128334	8
	9	13	125953.1	4422.693	-849.9307	1	4503.62	-10.87819	-8.830499E-007	0.0144073	7
	10	15	100078.1	4508.362	-819.1776	1	4582.181	-10.29839	1.021694E-007	0.0132444	7
	11	16	79453.13	4588.636	-811.7185	1	4659.879	-10.0317	1.035586E-007	0.0132289	7
	12	17	63140.62	4667.722	-817.7731	1	4738.816	-9.93722	6.861482E-008	0.0131974	7
	13	19	50203.12	4749.658	-839.1982	1	4823.225	-10.01995	6.941492E-008	0.0131925	7
	14	20	39890.62	4835.766	-878.834	1	4914.975	-10.3003	-3.853572E-008	0.0133125	7
	15	21	31640.63	4928.176	-935.4061	1	5016.165	-10.74734	-6.327503E-008	0.0133608	7
	16	23	25171.88	5024.315	-1008.071	1	5124.446	-11.3451	-6.504246E-008	0.0134967	7
	17	24	20015.62	5128.769	-1095.74	1	5244.513	-12.0597	5.21532E-008	0.0132394	7
	18	25	15890.62	5249.726	-1215.134	1	5388.522	-13.03252	-1.905735E-009	0.0133375	7
	19	27	12609.37	5381.587	-1347.168	1	5547.643	-14.05399	1.037118E-007	0.0132181	7
	20	28	10078.13	5522.756	-1503.525	1	5723.76	-15.22923	7.097137E-008	0.0131898	7
	21	29	8015.625	5666.282	-1674.494	1	5908.526	-16.46341	4.833703E-008	0.0131555	7
	22	31	6328.125	5868.069	-1911.779	1	6171.64	-18.04528	-3.125463E-008	0.0132979	7
	23	32	5015.625	6075.379	-2171.496	1	6451.793	-19.66819	4.454338E-008	0.0131498	7
	24	33	3984.375	6293.89	-2453.866	1	6755.332	-21.29985	-5.813092E-008	0.0133496	7
	25	35	3170.956	6577.747	-2815.301	1	7154.905	-23.17111	-2.978893E-010	0.01331	7
	26	36	2527.573	6884.558	-3206.671	1	7594.727	-24.97504	-8.817169E-010	0.0133392	7
	27	37	1976.103	7269.663	-3687.595	1	8151.463	-26.89677	-2.592592E-008	0.0133719	7
	28	39	1577.524	7680.183	-4177.423	1	8742.772	-28.54276	-5.871741E-008	0.0133472	7
	29	40	1265.625	8124.85	-4722.741	1	9397.737	-30.1682	-5.372163E-009	0.0133415	7
	30	41	998.264	8650.99	-5374.373	1	10184.47	-31.85036	-4.300307E-009	0.0132089	6
	31	43	796.875	9179.933	-6075.062	1	11008.07	-33.49564	-6.306249E-010	0.0132182	6
	32	44	627.7902	9769.39	-6927.88	1	11976.5	-35.34204	2.018838E-008	0.0128896	6
	33	45	505.5147	10318.97	-7844.41	1	12962.1	-37.24184	-4.217835E-009	0.0132038	6
	34	47	397.9953	10916.24	-9070.735	1	14193.04	-39.72454	-4.536374E-011	0.0132512	6
	35	48	315.5048	11500.82	-10543.94	1	15602.68	-42.51456	2.45049E-011	0.0132575	6
	36	49	252.4038	12066.02	-12312.68	1	17239.23	-45.57967	9.205443E-010	0.0132506	6
	37	51	198.6229	12699.98	-14703.71	1	19429.07	-49.18196	3.790679E-010	0.0132573	6
	38	52	158.3615	13350.1	-17554.33	1	22054.02	-52.74694	4.432468E-010	0.0132527	6
	39	53	125.558	14117.67	-21223.17	1	25489.83	-56.3681	6.123236E-010	0.0132542	6
	40	55	100.4464	14996.6	-25637.88	1	29701.83	-59.67497	1.031236E-009	0.0132519	6
	41	56	79.00281	16184.41	-31564.71	1	35472.05	-62.85409	1.274396E-010	0.0132488	6
	42	57	63.3446	17823.88	-38048.1	1	42016.05	-64.89895	6.948548E-010	0.0132477	6
	43	59	49.86702	19370.67	-47351.02	1	51159.96	-67.75118	7.962743E-010	0.0132469	6
	44	60	39.72458	21890.66	-57506.48	1	61532.08	-69.15996	5.706592E-010	0.0132498	6
	45	61	31.6723	24839.19	-70223.47	1	74487.05	-70.52048	9.128511E-010	0.0132466	6
	46	63	24.93351	29381.73	-86392.82	1	91252.43	-71.21711	1.927064E-010	0.0132462	6
	47	64	19.86229	34778.79	-105176.5	1	110777.5	-71.70246	3.702696E-010	0.0132548	5
	48	65	15.83615	40983.37	-127614.1	1	134033.6	-72.19554	-3.035865E-010	0.0132492	5
	49	67	12.40079	52297.39	-156881.8	1	165369	-71.56391	-3.044732E-010	0.0132517	5
	50	68	9.93114	63004.91	-187482.6	1	197786.1	-71.4247	-1.430089E-010	0.0132584	5
	51	70	7.944915	77447.88	-224654.3	1	237629.4	-70.97876	2.640365E-010	0.013251	5
	52	72	6.317385	95716.8	-269498.1	1	285991.2	-70.44664	2.614152E-010	0.0132568	5
	53	74	5.008013	119434.9	-323359.5	1	344711.6	-69.72797	1.624331E-010	0.0132652	5
	54	76	3.945707	149974.2	-388385.8	1	416336.1	-68.88605	-6.9508E-011	0.0132536	5
	55	79	3.158693	186100.4	-459762.5	1	495998.9	-67.96313	1.205135E-010	0.0132525	5
	56	82	2.504006	232532.7	-545131.8	1	592655.2	-66.89874	-5.690693E-011	0.0132577	5
	57	85	1.998082	287755.5	-639096.2	1	700890.3	-65.76016	1.96746E-010	0.0132225	5
	58	88	1.584686	359236.3	-752610.7	1	833950.6	-64.48391	-2.653968E-011	0.0131996	5
	59	91	1.266892	441941.3	-872494	1	978038	-63.13658	1.889408E-010	0.013231	5
	60	96	0.999041	551223.6	-1020612	1	1159955	-61.6269	-1.503058E-010	0.0132292	4
