EXPLAIN
TAG	EISPOT
TITLE	LABEL	Potentiostatic IDE	Test &Identifier
DATE	LABEL	9/10/2019	Date
TIME	LABEL	9:01:38	Time
NOTES	NOTES	1	&Notes...
	
PSTAT	PSTAT	REF600-11020	Potentiostat
VDC	POTEN	0.00000E+000	T	DC &Voltage (V)
FREQINIT	QUANT	1.00000E+006	Initial Fre&q. (Hz)
FREQFINAL	QUANT	1.00000E+000	Final Fre&q. (Hz)
PTSPERDEC	QUANT	1.00000E+001	Points/&decade
VAC	QUANT	2.50000E+001	AC &Voltage (mV rms)
AREA	QUANT	1.00000E-002	&Area (cm^2)
CONDIT	TWOPARAM	T	5.00000E+000	0.00000E+000	Conditionin&g	Time(s)	E(V)
DELAY	TWOPARAM	T	5.00000E+000	0.00000E+000	Init. De&lay	Time(s)	Stab.(mV/s)
SPEED	SELECTOR	1	&Optimize for:
ZGUESS	QUANT	1.00000E+007	E&stimated Z (ohms)
OCVCURVE	TABLE	19
	Pt	T	Vf	Vm	Ach	Over
	#	s	V vs. Ref.	V	V	bits
	0	0.258333	3.02474E-003	3.02474E-003	5.68499E-004	...........
	1	0.516667	3.01877E-003	2.71205E-003	5.72166E-004	...........
	2	0.775	2.98234E-003	2.42859E-003	5.70899E-004	...........
	3	1.03333	2.88027E-003	2.16585E-003	5.69432E-004	...........
	4	1.29167	2.70027E-003	1.92719E-003	5.64232E-004	...........
	5	1.55	2.46567E-003	1.69996E-003	5.67532E-004	...........
	6	1.80833	2.21190E-003	1.48422E-003	5.69599E-004	...........
	7	2.06667	1.96331E-003	1.28440E-003	5.65066E-004	...........
	8	2.325	1.72949E-003	1.09372E-003	5.68099E-004	...........
	9	2.58333	1.51148E-003	9.11633E-004	5.67932E-004	...........
	10	2.84167	1.30716E-003	7.28851E-004	5.69866E-004	...........
	11	3.1	1.11346E-003	5.56967E-004	5.70699E-004	...........
	12	3.35833	9.27717E-004	3.93007E-004	5.68166E-004	...........
	13	3.61667	7.48742E-004	2.39155E-004	5.76566E-004	...........
	14	3.875	5.76667E-004	8.19633E-005	5.70699E-004	...........
	15	4.13333	4.11359E-004	-7.14550E-005	5.73166E-004	...........
	16	4.39167	2.51715E-004	-2.11904E-004	5.71499E-004	...........
	17	4.65	9.68811E-005	-3.50153E-004	5.64899E-004	...........
	18	4.90833	-5.28668E-005	-4.81907E-004	5.69999E-004	...........
EOC	QUANT	-5.286681E-005	Open Circuit (V)
PSTATMODEL	IQUANT	4	Pstat Model
PSTATSECTION	LABEL	REF600-11020	Pstat Section
PSTATSERIALNO	LABEL	11020	Pstat Serial Number
CTRLMODE	IQUANT	1	Control Mode
IESTAB	IQUANT	0	I/E Stability
CASPEED	IQUANT	1	Control Amp Speed
CONVENTION	IQUANT	1	Current Convention
ICHRANGE	IQUANT	2	Ich Range
ICHRANGEMODE	TOGGLE	F	Ich Auto Range
ICHOFFSETENABLE	TOGGLE	T	Ich Offset Enable
ICHOFFSET	QUANT	0	Ich Offset (V)
ICHFILTER	IQUANT	3	Ich Filter
VCHRANGE	IQUANT	2	Vch Range
VCHRANGEMODE	TOGGLE	F	Vch Auto Range
VCHOFFSETENABLE	TOGGLE	T	Vch Offset Enable
VCHOFFSET	QUANT	0	Vch Offset (V)
VCHFILTER	IQUANT	3	Vch Filter
ACHRANGE	IQUANT	2	Ach Range
ACHOFFSETENABLE	TOGGLE	F	Ach Offset Enable
ACHOFFSET	QUANT	0	Ach Offset (V)
ACHFILTER	IQUANT	3	Ach Filter
IERANGELOWERLIMIT	IQUANT	1	I/E Range Lower Limit
IERANGEMODE	TOGGLE	F	I/E AutoRange
IERANGE	IQUANT	1	I/E Range
POSFEEDENABLE	TOGGLE	F	Positive Feedback IR Comp
POSFEEDRESISTANCE	QUANT	0	Positive Feedback Resistance (ohm)
ACHSELECT	IQUANT	0	Ach Select
CABLEID	IQUANT	14	Cable ID
DCCALDATE	LABEL	8/19/2019	DC Calibration Date
ACCALDATE	LABEL	8/19/2019	AC Calibration Date
THERMOSELECT	IQUANT	1	Thermo Select
FRAMEWORKVERSION	QUANT	6.33	Framework Version
INSTRUMENTVERSION	LABEL	3.50	Instrument Version
ZCURVE	TABLE
	Pt	Time	Freq	Zreal	Zimag	Zsig	Zmod	Zphz	Idc	Vdc	IERange
	#	s	Hz	ohm	ohm	V	ohm	°	A	V	#
	0	2	1000078	2587.495	-1629.846	1	3058.027	-32.20655	3.238205E-006	0.0017291	8
	1	4	794390.6	2898.046	-1525.42	1	3274.992	-27.76059	-4.438914E-006	0.0027421	8
	2	5	630984.4	3159.677	-1366.96	1	3442.694	-23.39458	9.178073E-007	0.0019574	8
	3	6	501234.4	3380.294	-1215.9	1	3592.325	-19.78378	-2.084081E-007	0.0018393	8
	4	8	398109.4	3529.534	-1043.378	1	3680.522	-16.46839	3.508835E-006	0.0011051	8
	5	9	316265.6	3657.98	-904.1588	1	3768.066	-13.88377	-1.526785E-006	0.0019506	8
	6	10	251203.1	3734.064	-764.5635	1	3811.534	-11.57159	-1.169533E-006	0.0020116	8
	7	12	199546.9	3821.823	-656.1446	1	3877.739	-9.74178	3.656453E-006	0.000874	8
	8	13	158578.1	3854.518	-575.686	1	3897.271	-8.49454	-1.043717E-006	0.0018681	8
	9	14	125953.1	3925.234	-474.4645	1	3953.805	-6.892217	-5.971946E-007	0.0028604	7
	10	16	100078.1	3947.1	-417.1047	1	3969.077	-6.032269	3.119721E-008	0.0015871	7
	11	17	79453.13	3985.311	-396.5359	1	4004.99	-5.682191	3.343501E-008	0.0015811	7
	12	18	63140.62	4018.035	-380.2092	1	4035.984	-5.405555	6.34266E-008	0.0014883	7
	13	19	50203.12	4045.81	-365.252	1	4062.264	-5.158626	-4.45756E-008	0.0016662	7
	14	21	39890.62	4078.677	-363.9896	1	4094.887	-5.099685	5.046857E-008	0.0015292	7
	15	22	31640.63	4109.341	-375.2992	1	4126.443	-5.218251	7.411401E-008	0.0015513	7
	16	23	25171.88	4140.911	-391.3663	1	4159.364	-5.399109	-2.721388E-008	0.0016129	7
	17	25	20015.62	4173.299	-418.4482	1	4194.225	-5.725793	-1.987696E-008	0.0016042	7
	18	26	15890.62	4209.38	-456.4665	1	4234.058	-6.188988	-2.09599E-008	0.0015945	7
	19	27	12609.37	4245.027	-504.593	1	4274.912	-6.778762	3.280213E-008	0.0015738	7
	20	29	10078.13	4287.304	-564.3926	1	4324.294	-7.499452	7.50735E-008	0.001549	7
	21	30	8015.625	4324.24	-644.3508	1	4371.983	-8.475229	6.480334E-008	0.0014783	7
	22	31	6328.125	4370.781	-745.8711	1	4433.965	-9.6842	-3.260678E-008	0.001681	7
	23	33	5015.625	4421.793	-869.6591	1	4506.502	-11.12667	-2.813431E-008	0.0016075	7
	24	34	3984.375	4476.834	-1021.201	1	4591.83	-12.84976	9.029432E-008	0.0014851	7
	25	35	3170.956	4538.694	-1207.482	1	4696.568	-14.89798	1.704059E-008	0.0015397	7
	26	37	2527.573	4606.973	-1432.53	1	4824.556	-17.27299	7.460312E-008	0.0015454	7
	27	38	1976.103	4695.938	-1735.177	1	5006.264	-20.27957	-4.666809E-008	0.0017119	7
	28	40	1577.524	4789.924	-2076.55	1	5220.673	-23.43792	1.108978E-008	0.0016869	7
	29	41	1265.625	4900.021	-2477.872	1	5490.907	-26.82508	1.567791E-008	0.0015429	7
	30	42	998.264	5034.169	-3006.125	1	5863.416	-30.84329	6.265879E-008	0.0014745	7
	31	44	796.875	5200.154	-3622.414	1	6337.467	-34.86097	-2.579337E-008	0.0016036	7
	32	45	627.7902	5401.063	-4411.708	1	6973.855	-39.24271	8.975448E-008	0.0014786	7
	33	46	505.5147	5616.337	-5295.358	1	7719.071	-43.31507	1.446631E-008	0.0015313	7
	34	48	397.9953	5903.586	-6452.855	1	8745.952	-47.54524	5.035257E-009	0.0016299	7
	35	49	315.5048	6241.403	-7840.317	1	10021.26	-51.47792	1.262096E-009	0.0015682	6
	36	50	252.4038	6625.598	-9461.756	1	11550.9	-54.99836	7.687301E-010	0.001566	6
	37	52	198.6229	7116.164	-11589.17	1	13599.58	-58.44859	1.211609E-009	0.0015654	6
	38	53	158.3615	7673.707	-14053.91	1	16012.44	-61.36461	1.250955E-009	0.0015705	6
	39	55	125.558	8366.06	-17149.38	1	19081.2	-63.99528	9.490172E-010	0.0015656	6
	40	56	100.4464	9186.13	-20784.64	1	22724.13	-66.15614	7.589099E-010	0.0015703	6
	41	57	79.00281	10289.7	-25599.46	1	27590.04	-68.10235	6.433907E-010	0.0015635	6
	42	59	63.3446	11586.23	-31147.38	1	33232.51	-69.59576	8.192451E-010	0.0015661	6
	43	60	49.86702	13226	-38131.98	1	40360.57	-70.871	7.099318E-010	0.0015633	6
	44	61	39.72458	15505.09	-46543.86	1	49058.52	-71.57561	9.259775E-010	0.0015698	6
	45	63	31.6723	18306.15	-56528.29	1	59418.54	-72.05595	7.791954E-010	0.001564	6
	46	64	24.93351	22271.35	-69383.8	1	72870.6	-72.204	9.733065E-010	0.0015613	6
	47	65	19.86229	27077.21	-84083.83	1	88336.09	-72.15007	1.605965E-009	0.0015723	6
	48	67	15.83615	33855.68	-101219.8	1	106731.7	-71.50611	1.782081E-009	0.001565	5
	49	68	12.40079	42157.66	-123443.3	1	130443.5	-71.14422	1.370273E-010	0.0015754	5
	50	70	9.93114	52821.32	-147661.8	1	156825.1	-70.31694	9.004013E-010	0.0015693	5
	51	71	7.944915	65914.42	-175661.7	1	187621.2	-69.43214	4.846281E-010	0.001577	5
	52	73	6.317385	82434.29	-209029.5	1	224697	-68.47737	8.861249E-011	0.0015775	5
	53	75	5.008013	104074.5	-247948.5	1	268905.2	-67.23014	4.142278E-010	0.0015719	5
	54	77	3.945707	131033.8	-293776	1	321674.1	-65.96155	2.710413E-010	0.0015673	5
	55	80	3.158693	161633.3	-342425.6	1	378656.3	-64.73154	4.995331E-010	0.0015831	5
	56	83	2.504006	200539.2	-400176.7	1	447613	-63.38333	-6.276227E-011	0.0015705	5
	57	86	1.998082	244889.5	-460572.4	1	521630	-62.00011	4.102097E-010	0.0015294	5
	58	89	1.584686	297616.2	-532762.2	1	610254.8	-60.81103	9.821091E-011	0.0015471	5
	59	93	1.266892	357787.5	-607253.3	1	704818	-59.49384	2.960522E-010	0.0015182	5
	60	97	0.999041	428881.4	-697574.1	1	818870.4	-58.41603	9.090215E-011	0.00159	5
