EXPLAIN
TAG	EISPOT
TITLE	LABEL	Potentiostatic IDE	Test &Identifier
DATE	LABEL	9/16/2019	Date
TIME	LABEL	9:14:15	Time
NOTES	NOTES	1	&Notes...
	
PSTAT	PSTAT	REF600-11020	Potentiostat
VDC	POTEN	0.00000E+000	T	DC &Voltage (V)
FREQINIT	QUANT	1.00000E+006	Initial Fre&q. (Hz)
FREQFINAL	QUANT	1.00000E+000	Final Fre&q. (Hz)
PTSPERDEC	QUANT	1.00000E+001	Points/&decade
VAC	QUANT	2.50000E+001	AC &Voltage (mV rms)
AREA	QUANT	1.00000E-002	&Area (cm^2)
CONDIT	TWOPARAM	T	5.00000E+000	0.00000E+000	Conditionin&g	Time(s)	E(V)
DELAY	TWOPARAM	T	5.00000E+000	0.00000E+000	Init. De&lay	Time(s)	Stab.(mV/s)
SPEED	SELECTOR	1	&Optimize for:
ZGUESS	QUANT	1.00000E+007	E&stimated Z (ohms)
OCVCURVE	TABLE	19
	Pt	T	Vf	Vm	Ach	Over
	#	s	V vs. Ref.	V	V	bits
	0	0.258333	-4.67939E-003	-4.67939E-003	5.71766E-004	...........
	1	0.516667	-4.69469E-003	-5.48050E-003	5.72966E-004	...........
	2	0.775	-4.78917E-003	-6.26623E-003	5.67299E-004	...........
	3	1.03333	-5.05738E-003	-6.98120E-003	5.69032E-004	...........
	4	1.29167	-5.53722E-003	-7.66736E-003	5.71899E-004	...........
	5	1.55	-6.17258E-003	-8.31011E-003	5.67732E-004	...........
	6	1.80833	-6.87099E-003	-8.90703E-003	5.72032E-004	...........
	7	2.06667	-7.56405E-003	-9.47466E-003	5.70366E-004	...........
	8	2.325	-8.22043E-003	-1.00063E-002	5.71666E-004	...........
	9	2.58333	-8.83369E-003	-1.05279E-002	5.72432E-004	...........
	10	2.84167	-9.40837E-003	-1.10093E-002	5.74332E-004	...........
	11	3.1	-9.95112E-003	-1.14810E-002	5.70132E-004	...........
	12	3.35833	-1.04669E-002	-1.19284E-002	5.71432E-004	...........
	13	3.61667	-1.09589E-002	-1.23594E-002	5.75432E-004	...........
	14	3.875	-1.14297E-002	-1.27807E-002	5.69732E-004	...........
	15	4.13333	-1.18814E-002	-1.31732E-002	5.73032E-004	...........
	16	4.39167	-1.23154E-002	-1.35576E-002	5.70266E-004	...........
	17	4.65	-1.27322E-002	-1.39222E-002	5.68066E-004	...........
	18	4.90833	-1.31321E-002	-1.42755E-002	5.73432E-004	...........
EOC	QUANT	-0.0131321	Open Circuit (V)
PSTATMODEL	IQUANT	4	Pstat Model
PSTATSECTION	LABEL	REF600-11020	Pstat Section
PSTATSERIALNO	LABEL	11020	Pstat Serial Number
CTRLMODE	IQUANT	1	Control Mode
IESTAB	IQUANT	0	I/E Stability
CASPEED	IQUANT	1	Control Amp Speed
CONVENTION	IQUANT	1	Current Convention
ICHRANGE	IQUANT	2	Ich Range
ICHRANGEMODE	TOGGLE	F	Ich Auto Range
ICHOFFSETENABLE	TOGGLE	T	Ich Offset Enable
ICHOFFSET	QUANT	0	Ich Offset (V)
ICHFILTER	IQUANT	3	Ich Filter
VCHRANGE	IQUANT	2	Vch Range
VCHRANGEMODE	TOGGLE	F	Vch Auto Range
VCHOFFSETENABLE	TOGGLE	T	Vch Offset Enable
VCHOFFSET	QUANT	0	Vch Offset (V)
VCHFILTER	IQUANT	3	Vch Filter
ACHRANGE	IQUANT	2	Ach Range
ACHOFFSETENABLE	TOGGLE	F	Ach Offset Enable
ACHOFFSET	QUANT	0	Ach Offset (V)
ACHFILTER	IQUANT	3	Ach Filter
IERANGELOWERLIMIT	IQUANT	1	I/E Range Lower Limit
IERANGEMODE	TOGGLE	F	I/E AutoRange
IERANGE	IQUANT	3	I/E Range
POSFEEDENABLE	TOGGLE	F	Positive Feedback IR Comp
POSFEEDRESISTANCE	QUANT	0	Positive Feedback Resistance (ohm)
ACHSELECT	IQUANT	0	Ach Select
CABLEID	IQUANT	14	Cable ID
DCCALDATE	LABEL	8/19/2019	DC Calibration Date
ACCALDATE	LABEL	8/19/2019	AC Calibration Date
THERMOSELECT	IQUANT	1	Thermo Select
FRAMEWORKVERSION	QUANT	6.33	Framework Version
INSTRUMENTVERSION	LABEL	3.50	Instrument Version
ZCURVE	TABLE
	Pt	Time	Freq	Zreal	Zimag	Zsig	Zmod	Zphz	Idc	Vdc	IERange
	#	s	Hz	ohm	ohm	V	ohm	°	A	V	#
	0	1	1000078	2439.475	-2047.541	1	3184.88	-40.00796	-5.288371E-006	-0.0097509	8
	1	3	794390.6	2854.152	-2012.688	1	3492.434	-35.19069	4.255749E-006	-0.0120521	8
	2	4	630984.4	3266.834	-1929.192	1	3793.94	-30.56349	2.601425E-006	-0.0121786	8
	3	6	501234.4	3607.115	-1775.073	1	4020.219	-26.20194	-1.217852E-006	-0.0112817	8
	4	7	398109.4	3902.87	-1630.026	1	4229.583	-22.66776	1.92685E-006	-0.0121756	8
	5	9	316265.6	4138.672	-1413.324	1	4373.339	-18.85463	4.259991E-006	-0.0124615	8
	6	10	251203.1	4316.236	-1250.898	1	4493.845	-16.16224	-1.225982E-006	-0.0113221	8
	7	12	199546.9	4453.246	-1057.545	1	4577.095	-13.35898	-3.761272E-006	-0.0108414	8
	8	13	158578.1	4562.27	-950.087	1	4660.147	-11.76365	-6.91262E-007	-0.0113233	8
	9	15	125953.1	4668.477	-771.9745	1	4731.873	-9.389406	1.48247E-006	-0.0142703	7
	10	16	100078.1	4729.121	-690.6538	1	4779.287	-8.308894	-4.365364E-008	-0.0116692	7
	11	17	79453.13	4784.899	-638.8631	1	4827.36	-7.604955	-4.4921E-008	-0.0116371	7
	12	19	63140.62	4838.81	-603.3575	1	4876.282	-7.107601	8.786587E-008	-0.0117304	7
	13	20	50203.12	4889.408	-586.295	1	4924.435	-6.83776	8.378561E-008	-0.0118371	7
	14	21	39890.62	4946.876	-581.1351	1	4980.894	-6.700121	2.273825E-008	-0.0117945	7
	15	23	31640.63	4990.838	-590.0984	1	5025.603	-6.743137	1.535498E-007	-0.0119253	7
	16	24	25171.88	5042.272	-614.9714	1	5079.635	-6.953631	-9.111407E-009	-0.0116703	7
	17	25	20015.62	5098.436	-652.6483	1	5140.039	-7.294733	8.430133E-008	-0.0118509	7
	18	27	15890.62	5156.897	-703.2329	1	5204.625	-7.765381	-1.988788E-008	-0.011539	7
	19	28	12609.37	5221.074	-773.0834	1	5277.999	-8.422577	-8.751965E-009	-0.0116662	7
	20	29	10078.13	5286.201	-858.343	1	5355.434	-9.222867	4.348169E-008	-0.0117476	7
	21	31	8015.625	5357.8	-963.742	1	5443.788	-10.19712	2.371337E-008	-0.0118015	7
	22	32	6328.125	5439.023	-1100.801	1	5549.3	-11.44151	-4.184087E-008	-0.0116847	7
	23	33	5015.625	5522.979	-1266.934	1	5666.43	-12.91974	-6.63606E-009	-0.0117662	7
	24	35	3984.375	5617.424	-1469.161	1	5806.366	-14.65664	-4.018282E-008	-0.0116589	7
	25	36	3170.956	5718.207	-1710.542	1	5968.571	-16.65401	-8.128374E-008	-0.0115851	7
	26	37	2527.573	5831.168	-2005.936	1	6166.547	-18.98334	-5.291737E-008	-0.0115444	7
	27	39	1976.103	5966.542	-2397.534	1	6430.226	-21.89173	1.564797E-007	-0.0119203	7
	28	40	1577.524	6110.297	-2835.605	1	6736.199	-24.89459	9.948227E-008	-0.0119017	7
	29	41	1265.625	6277.743	-3360	1	7120.369	-28.15677	8.303736E-008	-0.0118447	7
	30	43	998.264	6460.221	-4044.301	1	7621.734	-32.04786	4.387861E-008	-0.0117528	7
	31	44	796.875	6661.66	-4839.987	1	8234.27	-36.00004	5.110601E-008	-0.011863	7
	32	45	627.7902	6916.54	-5876.501	1	9075.891	-40.35223	4.918022E-008	-0.0118576	7
	33	47	505.5147	7183.263	-7024.24	1	10046.85	-44.35872	8.818241E-009	-0.0119507	6
	34	48	397.9953	7523.567	-8585.739	1	11415.73	-48.77235	6.980866E-010	-0.0117424	6
	35	49	315.5048	7913.681	-10459.6	1	13116.01	-52.88904	5.329864E-010	-0.0117476	6
	36	51	252.4038	8361.059	-12672.33	1	15182.07	-56.58364	1.671243E-009	-0.0117469	6
	37	52	198.6229	8943.542	-15607.57	1	17988.42	-60.18617	9.074658E-010	-0.0117467	6
	38	53	158.3615	9637.5	-19032.82	1	21333.77	-63.14408	1.769981E-009	-0.0117492	6
	39	55	125.558	10524.2	-23346.12	1	25608.59	-65.73463	1.346098E-009	-0.0117429	6
	40	56	100.4464	11581.63	-28447.51	1	30714.73	-67.84763	6.689138E-010	-0.0117431	6
	41	57	79.00281	13222.68	-35216.49	1	37617.02	-69.42043	7.574646E-010	-0.0117459	6
	42	59	63.3446	14578.38	-42322.23	1	44762.71	-70.99314	1.450265E-009	-0.0117541	6
	43	60	49.86702	18057.95	-52498.04	1	55516.97	-71.01812	1.798743E-009	-0.0117561	6
	44	62	39.72458	20770.86	-63989.98	1	67276.63	-72.0168	1.48933E-009	-0.0117474	6
	45	63	31.6723	25190.22	-77595.93	1	81582.33	-72.01484	6.723634E-010	-0.0117481	6
	46	64	24.93351	31087.13	-95123.8	1	100074.7	-71.90224	7.379016E-010	-0.0117475	6
	47	66	19.86229	38342.67	-115069.7	1	121289.7	-71.57128	1.407182E-009	-0.0117379	5
	48	67	15.83615	46257.3	-138247.3	1	145780.8	-71.49985	-2.068653E-010	-0.0117388	5
	49	68	12.40079	62383.37	-166219	1	177540	-69.42847	-7.419906E-010	-0.0117372	5
	50	70	9.93114	76406.6	-199133.4	1	213288.7	-69.00842	5.377578E-010	-0.0117489	5
	51	71	7.944915	97086.6	-235990.7	1	255181.1	-67.63773	7.082093E-010	-0.0117402	5
	52	73	6.317385	120147	-278023.9	1	302873.9	-66.62859	2.594572E-010	-0.0117312	5
	53	75	5.008013	151504.7	-326998.9	1	360391.3	-65.14083	6.308273E-010	-0.0117355	5
	54	77	3.945707	190481.8	-384396.9	1	429003.8	-63.64001	2.559844E-010	-0.0117533	5
	55	80	3.158693	235443.4	-444295.8	1	502824.4	-62.07977	4.677436E-010	-0.0117465	5
	56	83	2.504006	290739	-512427	1	589160.9	-60.43045	3.446039E-010	-0.0117432	5
	57	86	1.998082	353156.7	-584480.1	1	682888.4	-58.85864	6.653922E-010	-0.0117476	5
	58	89	1.584686	429507.5	-663823.6	1	790657	-57.09631	4.020816E-010	-0.0117922	5
	59	93	1.266892	511477.9	-738356.4	1	898209.2	-55.28869	6.728691E-010	-0.0117274	5
	60	97	0.999041	611696.8	-844798.8	1	1043004	-54.09268	8.468284E-011	-0.0117786	4
