EXPLAIN
TAG	EISPOT
TITLE	LABEL	Potentiostatic EIS	Test &Identifier
DATE	LABEL	11/22/2019	Date
TIME	LABEL	10:25:12	Time
NOTES	NOTES	4	&Notes...
	
	
	
	
PSTAT	PSTAT	REF600-11020	Potentiostat
VDC	POTEN	0.00000E+000	T	DC &Voltage (V)
FREQINIT	QUANT	1.00000E+006	Initial Fre&q. (Hz)
FREQFINAL	QUANT	1.00000E+000	Final Fre&q. (Hz)
PTSPERDEC	QUANT	1.00000E+001	Points/&decade
VAC	QUANT	2.50000E+001	AC &Voltage (mV rms)
AREA	QUANT	1.00000E-002	&Area (cm^2)
CONDIT	TWOPARAM	T	5.00000E+000	0.00000E+000	Conditionin&g	Time(s)	E(V)
DELAY	TWOPARAM	T	5.00000E+000	0.00000E+000	Init. De&lay	Time(s)	Stab.(mV/s)
SPEED	SELECTOR	0	&Optimize for:
ZGUESS	QUANT	1.00000E+005	E&stimated Z (ohms)
OCVCURVE	TABLE	19
	Pt	T	Vf	Vm	Ach	Over
	#	s	V vs. Ref.	V	V	bits
	0	0.258333	-7.85078E-003	-7.85078E-003	5.49833E-004	...........
	1	0.516667	-7.87507E-003	-9.12268E-003	5.42299E-004	...........
	2	0.775	-8.02457E-003	-1.03437E-002	5.45299E-004	...........
	3	1.03333	-8.44656E-003	-1.14154E-002	5.45299E-004	...........
	4	1.29167	-9.19483E-003	-1.24292E-002	5.44166E-004	...........
	5	1.55	-1.01732E-002	-1.33695E-002	5.50833E-004	...........
	6	1.80833	-1.12320E-002	-1.42173E-002	5.47533E-004	...........
	7	2.06667	-1.22657E-002	-1.50829E-002	5.50299E-004	...........
	8	2.325	-1.32329E-002	-1.58619E-002	5.48566E-004	...........
	9	2.58333	-1.41329E-002	-1.66128E-002	5.51633E-004	...........
	10	2.84167	-1.49766E-002	-1.73160E-002	5.53099E-004	...........
	11	3.1	-1.57718E-002	-1.79797E-002	5.48666E-004	...........
	12	3.35833	-1.65229E-002	-1.86196E-002	5.53933E-004	...........
	13	3.61667	-1.72333E-002	-1.92256E-002	5.58832E-004	...........
	14	3.875	-1.79069E-002	-1.97992E-002	5.54866E-004	...........
	15	4.13333	-1.85470E-002	-2.03513E-002	5.52399E-004	...........
	16	4.39167	-1.91562E-002	-2.08804E-002	5.53466E-004	...........
	17	4.65	-1.97370E-002	-2.13911E-002	5.41633E-004	...........
	18	4.90833	-2.02922E-002	-2.18721E-002	5.48299E-004	...........
EOC	QUANT	-0.0202922	Open Circuit (V)
PSTATMODEL	IQUANT	4	Pstat Model
PSTATSECTION	LABEL	REF600-11020	Pstat Section
PSTATSERIALNO	LABEL	11020	Pstat Serial Number
CTRLMODE	IQUANT	1	Control Mode
IESTAB	IQUANT	0	I/E Stability
CASPEED	IQUANT	1	Control Amp Speed
CONVENTION	IQUANT	1	Current Convention
ICHRANGE	IQUANT	2	Ich Range
ICHRANGEMODE	TOGGLE	F	Ich Auto Range
ICHOFFSETENABLE	TOGGLE	T	Ich Offset Enable
ICHOFFSET	QUANT	0	Ich Offset (V)
ICHFILTER	IQUANT	3	Ich Filter
VCHRANGE	IQUANT	2	Vch Range
VCHRANGEMODE	TOGGLE	F	Vch Auto Range
VCHOFFSETENABLE	TOGGLE	T	Vch Offset Enable
VCHOFFSET	QUANT	0	Vch Offset (V)
VCHFILTER	IQUANT	3	Vch Filter
ACHRANGE	IQUANT	2	Ach Range
ACHOFFSETENABLE	TOGGLE	F	Ach Offset Enable
ACHOFFSET	QUANT	0	Ach Offset (V)
ACHFILTER	IQUANT	3	Ach Filter
IERANGELOWERLIMIT	IQUANT	1	I/E Range Lower Limit
IERANGEMODE	TOGGLE	F	I/E AutoRange
IERANGE	IQUANT	5	I/E Range
POSFEEDENABLE	TOGGLE	F	Positive Feedback IR Comp
POSFEEDRESISTANCE	QUANT	0	Positive Feedback Resistance (ohm)
ACHSELECT	IQUANT	0	Ach Select
CABLEID	IQUANT	14	Cable ID
DCCALDATE	LABEL	8/19/2019	DC Calibration Date
ACCALDATE	LABEL	8/19/2019	AC Calibration Date
THERMOSELECT	IQUANT	1	Thermo Select
FRAMEWORKVERSION	QUANT	6.33	Framework Version
INSTRUMENTVERSION	LABEL	3.50	Instrument Version
ZCURVE	TABLE
	Pt	Time	Freq	Zreal	Zimag	Zsig	Zmod	Zphz	Idc	Vdc	IERange
	#	s	Hz	ohm	ohm	V	ohm	°	A	V	#
	0	1	1000078	2495.234	-2152.826	1	3295.581	-40.78681	5.60312E-006	-0.0181473	8
	1	2	794390.6	2910.932	-2181.75	1	3637.796	-36.85163	-5.446007E-006	-0.0177117	8
	2	2	630984.4	3331.343	-2168.119	1	3974.743	-33.05705	2.122281E-006	-0.0180916	8
	3	2	501234.4	3725.242	-2107.405	1	4280.022	-29.49725	6.493229E-006	-0.0199422	8
	4	3	398109.4	4110.319	-2009.531	1	4575.252	-26.05396	-1.285658E-006	-0.0190311	8
	5	3	316265.6	4428.551	-1866.653	1	4805.878	-22.85563	-2.447203E-007	-0.0190251	8
	6	3	251203.1	4673.839	-1729.059	1	4983.415	-20.30165	1.994348E-006	-0.0192079	8
	7	4	199546.9	4941.091	-1583.533	1	5188.637	-17.76974	-6.624985E-007	-0.0190519	8
	8	4	158578.1	5142.172	-1469.038	1	5347.897	-15.94381	-2.577802E-006	-0.0182403	8
	9	4	125953.1	5354.73	-1335.807	1	5518.833	-14.00728	3.213448E-006	-0.02082	7
	10	5	100078.1	5475.94	-1218.33	1	5609.835	-12.54331	1.120505E-006	-0.019572	7
	11	5	79453.13	5603.811	-1173.468	1	5725.358	-11.82714	8.634528E-007	-0.0207616	7
	12	5	63140.62	5718.897	-1155.302	1	5834.425	-11.42089	1.283026E-007	-0.0203105	7
	13	6	50203.12	5841.775	-1162.579	1	5956.335	-11.25545	8.63856E-007	-0.0207612	7
	14	6	39890.62	5961.984	-1194.336	1	6080.435	-11.32785	1.217618E-006	-0.0200527	7
	15	6	31640.63	6081.363	-1245.128	1	6207.521	-11.5711	1.087438E-006	-0.0206737	7
	16	7	25171.88	6208.807	-1321.182	1	6347.819	-12.01288	1.087457E-006	-0.0206739	7
	17	7	20015.62	6340.228	-1401.547	1	6493.291	-12.46513	1.217798E-006	-0.0200519	7
	18	8	15890.62	6496.051	-1548.925	1	6678.162	-13.41125	1.219684E-006	-0.0200515	7
	19	8	12609.37	6659.706	-1703.962	1	6874.239	-14.35189	6.996812E-008	-0.0177301	7
	20	8	10078.13	6831.9	-1885.536	1	7087.32	-15.42898	6.970087E-008	-0.0177264	7
	21	9	8015.625	7010.488	-2113.816	1	7322.237	-16.77921	-1.347755E-006	-0.0172111	7
	22	9	6328.125	7254.03	-2380.471	1	7634.631	-18.16768	-3.231472E-007	-0.0173003	7
	23	10	5015.625	7503.896	-2691.64	1	7972.038	-19.73286	-1.347214E-006	-0.0172142	7
	24	10	3984.375	7769.775	-3058.266	1	8349.994	-21.48513	-8.123978E-007	-0.0189855	7
	25	10	3170.956	8124.747	-3475.369	1	8836.837	-23.15887	6.7491E-007	-0.0185635	7
	26	11	2527.573	8491.684	-3961.994	1	9370.49	-25.0125	5.349838E-007	-0.0206564	7
	27	11	1976.103	8950.282	-4580.864	1	10054.45	-27.10392	1.0852E-006	-0.0206819	7
	28	11	1577.524	9691.99	-5261.698	1	11028.15	-28.49715	1.203084E-006	-0.0204206	7
	29	12	1265.625	9963.19	-5954.03	1	11606.7	-30.86267	8.626091E-007	-0.0207726	7
	30	12	998.264	10638.29	-6820.664	1	12637.03	-32.66568	6.958493E-008	-0.0217061	6
	31	12	796.875	11378.4	-7788.017	1	13788.44	-34.38994	-1.72268E-007	-0.0154714	6
	32	12	627.7902	12271.22	-8938.276	1	15181.42	-36.06935	1.692457E-007	-0.0219797	6
	33	13	505.5147	13168.74	-10102.13	1	16597.25	-37.49287	-2.351765E-007	-0.0160261	6
	34	13	397.9953	14252.88	-11529.65	1	18332.41	-38.97059	1.242816E-009	-0.0188531	6
	35	13	315.5048	15354.42	-13128.6	1	20201.94	-40.53166	7.996719E-011	-0.018843	6
	36	14	252.4038	16425.94	-14929.17	1	22196.65	-42.26699	1.463768E-009	-0.0188487	6
	37	14	198.6229	17590.05	-17285.29	1	24661.53	-44.49932	8.609534E-010	-0.0188483	6
	38	14	158.3615	18702.09	-20035.14	1	27407.57	-46.97092	1.278366E-009	-0.01885	6
	39	15	125.558	19901.76	-23592.91	1	30865.93	-49.85075	9.196414E-010	-0.018843	6
	40	15	100.4464	21110.52	-27871.87	1	34964.2	-52.85924	5.675627E-010	-0.0188526	6
	41	15	79.00281	22738.04	-33721.35	1	40671.22	-56.00851	4.378922E-010	-0.018851	6
	42	16	63.3446	24111.75	-39824.07	1	46554.62	-58.80691	1.287429E-009	-0.0188535	6
	43	16	49.86702	26732.51	-48686.48	1	55542.78	-61.22992	1.400256E-009	-0.0188527	6
	44	16	39.72458	29670.42	-59507.61	1	66494.28	-63.49922	7.234131E-010	-0.0188492	6
	45	17	31.6723	33473.71	-72282.53	1	79657.1	-65.15136	9.742217E-010	-0.0188504	6
	46	17	24.93351	38889.34	-88159.77	1	96356.3	-66.1966	7.816877E-010	-0.0188612	6
	47	17	19.86229	45705.85	-106486.6	1	115881.1	-66.77018	-4.353058E-010	-0.0188588	5
	48	18	15.83615	55340.01	-128356	1	139777.6	-66.67696	1.568983E-009	-0.0188582	5
	49	18	12.40079	67355.31	-156360.5	1	170250.8	-66.6951	3.770358E-010	-0.0188528	5
	50	18	9.93114	82249.12	-184071.2	1	201611.3	-65.92332	1.234633E-009	-0.0188538	5
	51	19	7.944915	101488.7	-216631.7	1	239226.3	-64.89761	1.278065E-009	-0.0188532	5
	52	20	6.317385	125419.3	-254362.7	1	283602.5	-63.75335	1.021495E-009	-0.0188686	5
	53	20	5.008013	154675.1	-296512.9	1	334431.3	-62.45133	8.242059E-010	-0.0188427	5
	54	21	3.945707	190424.1	-343831.8	1	393041.5	-61.02103	5.010837E-010	-0.0188361	5
	55	23	3.158693	226119.5	-393168.8	1	453554.6	-60.09591	5.158934E-010	-0.0188576	5
	56	24	2.504006	268331.8	-450734.1	1	524560	-59.23374	6.680672E-010	-0.0188595	5
	57	26	1.998082	311144.7	-514807.2	1	601529.3	-58.85162	6.201039E-010	-0.0188418	5
	58	27	1.584686	361007.2	-591183.9	1	692693.8	-58.58961	4.975744E-010	-0.0188819	5
	59	29	1.266892	413525.6	-681697.4	1	797317.3	-58.75851	4.831527E-010	-0.0188907	5
	60	32	0.999041	474757.1	-796236.9	1	927031.6	-59.19445	4.576038E-010	-0.0188781	5
