EXPLAIN
TAG	EISPOT
TITLE	LABEL	Potentiostatic EIS	Test &Identifier
DATE	LABEL	11/9/2019	Date
TIME	LABEL	11:17:21	Time
NOTES	NOTES	2	&Notes...
	
	
PSTAT	PSTAT	REF600-11020	Potentiostat
VDC	POTEN	0.00000E+000	T	DC &Voltage (V)
FREQINIT	QUANT	1.00000E+006	Initial Fre&q. (Hz)
FREQFINAL	QUANT	1.00000E+000	Final Fre&q. (Hz)
PTSPERDEC	QUANT	1.00000E+001	Points/&decade
VAC	QUANT	2.50000E+001	AC &Voltage (mV rms)
AREA	QUANT	1.00000E-002	&Area (cm^2)
CONDIT	TWOPARAM	T	5.00000E+000	0.00000E+000	Conditionin&g	Time(s)	E(V)
DELAY	TWOPARAM	T	5.00000E+000	0.00000E+000	Init. De&lay	Time(s)	Stab.(mV/s)
SPEED	SELECTOR	0	&Optimize for:
ZGUESS	QUANT	1.00000E+005	E&stimated Z (ohms)
OCVCURVE	TABLE	19
	Pt	T	Vf	Vm	Ach	Over
	#	s	V vs. Ref.	V	V	bits
	0	0.258333	7.89019E-002	7.89019E-002	5.33100E-004	...........
	1	0.516667	7.89648E-002	8.21959E-002	5.31600E-004	...........
	2	0.775	7.93471E-002	8.51020E-002	5.35533E-004	...........
	3	1.03333	8.04125E-002	8.77675E-002	5.30533E-004	...........
	4	1.29167	8.22780E-002	9.01350E-002	5.32733E-004	...........
	5	1.55	8.46868E-002	9.23589E-002	5.26933E-004	...........
	6	1.80833	8.72599E-002	9.43809E-002	5.31400E-004	...........
	7	2.06667	8.97388E-002	9.62673E-002	5.26266E-004	...........
	8	2.325	9.20235E-002	9.79879E-002	5.38166E-004	...........
	9	2.58333	9.41082E-002	9.96633E-002	5.37333E-004	...........
	10	2.84167	9.60226E-002	1.01259E-001	5.36866E-004	...........
	11	3.1	9.78022E-002	1.02672E-001	5.34200E-004	...........
	12	3.35833	9.94715E-002	1.04082E-001	5.40066E-004	...........
	13	3.61667	1.01041E-001	1.05359E-001	5.33700E-004	...........
	14	3.875	1.02517E-001	1.06654E-001	5.35166E-004	...........
	15	4.13333	1.03911E-001	1.07786E-001	5.34566E-004	...........
	16	4.39167	1.05231E-001	1.08939E-001	5.34099E-004	...........
	17	4.65	1.06483E-001	1.09988E-001	5.26533E-004	...........
	18	4.90833	1.07672E-001	1.11030E-001	5.34566E-004	...........
EOC	QUANT	0.1076716	Open Circuit (V)
PSTATMODEL	IQUANT	4	Pstat Model
PSTATSECTION	LABEL	REF600-11020	Pstat Section
PSTATSERIALNO	LABEL	11020	Pstat Serial Number
CTRLMODE	IQUANT	1	Control Mode
IESTAB	IQUANT	0	I/E Stability
CASPEED	IQUANT	1	Control Amp Speed
CONVENTION	IQUANT	1	Current Convention
ICHRANGE	IQUANT	2	Ich Range
ICHRANGEMODE	TOGGLE	F	Ich Auto Range
ICHOFFSETENABLE	TOGGLE	T	Ich Offset Enable
ICHOFFSET	QUANT	0	Ich Offset (V)
ICHFILTER	IQUANT	3	Ich Filter
VCHRANGE	IQUANT	2	Vch Range
VCHRANGEMODE	TOGGLE	F	Vch Auto Range
VCHOFFSETENABLE	TOGGLE	T	Vch Offset Enable
VCHOFFSET	QUANT	0	Vch Offset (V)
VCHFILTER	IQUANT	3	Vch Filter
ACHRANGE	IQUANT	2	Ach Range
ACHOFFSETENABLE	TOGGLE	F	Ach Offset Enable
ACHOFFSET	QUANT	0	Ach Offset (V)
ACHFILTER	IQUANT	3	Ach Filter
IERANGELOWERLIMIT	IQUANT	1	I/E Range Lower Limit
IERANGEMODE	TOGGLE	F	I/E AutoRange
IERANGE	IQUANT	6	I/E Range
POSFEEDENABLE	TOGGLE	F	Positive Feedback IR Comp
POSFEEDRESISTANCE	QUANT	0	Positive Feedback Resistance (ohm)
ACHSELECT	IQUANT	0	Ach Select
CABLEID	IQUANT	14	Cable ID
DCCALDATE	LABEL	8/19/2019	DC Calibration Date
ACCALDATE	LABEL	8/19/2019	AC Calibration Date
THERMOSELECT	IQUANT	1	Thermo Select
FRAMEWORKVERSION	QUANT	6.33	Framework Version
INSTRUMENTVERSION	LABEL	3.50	Instrument Version
ZCURVE	TABLE
	Pt	Time	Freq	Zreal	Zimag	Zsig	Zmod	Zphz	Idc	Vdc	IERange
	#	s	Hz	ohm	ohm	V	ohm	°	A	V	#
	0	2	1000078	1857.223	-1886.183	1	2647.067	-45.44325	-7.276964E-006	0.109533	8
	1	2	794390.6	2147.111	-2052.716	1	2970.476	-43.71244	-7.161908E-006	0.1110327	8
	2	2	630984.4	2411.975	-2231.069	1	3285.619	-42.76873	4.97777E-006	0.1086619	8
	3	2	501234.4	2720.519	-2467.233	1	3672.664	-42.20482	2.458099E-006	0.1086161	8
	4	3	398109.4	3041.488	-2687.349	1	4058.632	-41.46266	4.887495E-006	0.1092423	8
	5	3	316265.6	3341.588	-2939.004	1	4450.163	-41.33238	-3.829353E-006	0.1099626	8
	6	3	251203.1	3786.015	-3255.23	1	4993.039	-40.68907	-2.002229E-007	0.1089208	8
	7	4	199546.9	4238.73	-3621.009	1	5574.813	-40.50618	-8.40874E-008	0.1088776	8
	8	4	158578.1	4731.346	-3864.602	1	6109.074	-39.24223	-4.455149E-006	0.1099426	8
	9	4	125953.1	5411.561	-4145.604	1	6816.966	-37.45443	-1.955572E-006	0.1147365	7
	10	5	100078.1	6072.918	-4616.979	1	7628.685	-37.24417	-1.198041E-006	0.1115644	7
	11	5	79453.13	6877.743	-4967.946	1	8484.329	-35.84141	-1.702596E-006	0.1108023	7
	12	6	63140.62	7919.012	-5463.773	1	9621	-34.60398	1.314286E-006	0.1068273	7
	13	6	50203.12	8766.435	-5584.304	1	10393.98	-32.49753	-1.205845E-006	0.1115588	7
	14	7	39890.62	9803.3	-5678.916	1	11329.37	-30.08313	-1.200646E-006	0.1115497	7
	15	7	31640.63	11051.51	-5765.938	1	12465.23	-27.55254	5.766971E-007	0.106962	7
	16	7	25171.88	12322.3	-5672.158	1	13565.12	-24.7174	1.310683E-006	0.1068371	7
	17	8	20015.62	12918.13	-5203.137	1	13926.62	-21.93848	-1.201741E-006	0.1115437	7
	18	8	15890.62	13737.88	-4808.146	1	14554.99	-19.28963	-1.488419E-006	0.1114773	7
	19	8	12609.37	14844.85	-4213.895	1	15431.35	-15.84725	1.782505E-007	0.1054581	6
	20	9	10078.13	15264.46	-3849.827	1	15742.45	-14.15528	-2.35486E-007	0.110516	6
	21	9	8015.625	15661.29	-3411.574	1	16028.56	-12.28904	-1.8067E-007	0.1091247	6
	22	9	6328.125	16197.76	-3097.531	1	16491.27	-10.82609	1.182465E-007	0.1056146	6
	23	9	5015.625	16512.64	-2797.064	1	16747.87	-9.61403	1.185134E-007	0.1055995	6
	24	10	3984.375	16824.38	-2636.398	1	17029.7	-8.905881	1.853592E-007	0.1086604	6
	25	10	3170.956	16999.33	-2485.123	1	17180.02	-8.317122	2.348648E-007	0.106176	6
	26	10	2527.573	17094.16	-2472.21	1	17272.01	-8.229234	-3.359581E-008	0.1119234	6
	27	11	1976.103	17188.96	-2578.582	1	17381.3	-8.531539	1.174504E-007	0.1055748	6
	28	11	1577.524	17370.03	-2701.14	1	17578.8	-8.839029	2.306409E-007	0.1061897	6
	29	11	1265.625	17291.21	-2943.225	1	17539.92	-9.66002	-3.104517E-008	0.1068259	6
	30	12	998.264	17621.73	-3387.515	1	17944.38	-10.88151	2.337063E-007	0.1068884	6
	31	12	796.875	17611.79	-3935.48	1	18046.14	-12.59621	-1.890576E-007	0.1131263	6
	32	12	627.7902	17837.29	-4692.163	1	18444.11	-14.73798	1.779265E-007	0.1054248	6
	33	13	505.5147	17788.22	-5499.834	1	18619.05	-17.18078	-2.862143E-008	0.1068077	6
	34	13	397.9953	18149.53	-6716.243	1	19352.34	-20.30702	-4.461741E-009	0.1091549	6
	35	13	315.5048	18437.35	-8162.564	1	20163.42	-23.87988	-6.194577E-009	0.1091703	6
	36	14	252.4038	18768.64	-9892.54	1	21216.13	-27.79273	-5.22341E-009	0.1091599	6
	37	14	198.6229	19224.36	-12158.79	1	22746.7	-32.31205	-4.714749E-009	0.1091591	6
	38	14	158.3615	19794.65	-14846.28	1	24743.49	-36.87044	-6.394466E-009	0.1091669	6
	39	15	125.558	20511.09	-18184.51	1	27411.33	-41.55922	-5.102479E-009	0.1091523	6
	40	15	100.4464	21453.16	-21981.32	1	30715.09	-45.69669	-4.697615E-009	0.1091523	6
	41	15	79.00281	22936.85	-27111.71	1	35512.59	-49.76835	-6.38537E-009	0.1091497	6
	42	16	63.3446	23617.53	-33378.86	1	40889.32	-54.71832	-5.954742E-009	0.1091656	6
	43	16	49.86702	26036.73	-40354.95	1	48025.34	-57.17018	-5.941694E-009	0.109148	6
	44	16	39.72458	29507.18	-49152.36	1	57329.12	-59.02273	-5.332828E-009	0.1091535	6
	45	17	31.6723	33209.41	-59645.79	1	68267.75	-60.89194	-4.106249E-009	0.1091651	6
	46	17	24.93351	38396.8	-71832.8	1	81450.99	-61.87415	-4.474699E-009	0.1091468	6
	47	17	19.86229	44500.07	-86242.07	1	97046.1	-62.7067	-4.227435E-009	0.1091581	6
	48	18	15.83615	53598.52	-105320.8	1	118174.8	-63.02813	-8.288297E-009	0.1091708	5
	49	18	12.40079	65261.8	-125394.3	1	141360.7	-62.50516	-4.3759E-009	0.1091696	5
	50	18	9.93114	77734.13	-144979.6	1	164504.4	-61.801	-6.014718E-009	0.1091741	5
	51	19	7.944915	95091.1	-169709.8	1	194534.7	-60.73739	-5.041812E-009	0.109151	5
	52	19	6.317385	115793.8	-198635.5	1	229922.3	-59.76012	-4.587855E-009	0.1091518	5
	53	20	5.008013	143524.4	-230395.1	1	271442.7	-58.0792	-4.719872E-009	0.1091655	5
	54	21	3.945707	176812.7	-265178.3	1	318719.8	-56.30588	-4.615655E-009	0.1091598	5
	55	23	3.158693	214806.5	-297563.5	1	366995.7	-54.17506	-5.113745E-009	0.109155	5
	56	24	2.504006	260436.5	-332444.2	1	422310.7	-51.92488	-5.08836E-009	0.1091549	5
	57	26	1.998082	310441.5	-365988.7	1	479918.4	-49.69449	-4.798724E-009	0.109194	5
	58	27	1.584686	365886.7	-399590.5	1	541798.5	-47.5211	-4.952358E-009	0.1091574	5
	59	29	1.266892	425302.2	-430662.5	1	605270.3	-45.3588	-5.178282E-009	0.109121	5
	60	32	0.999041	492630.2	-463884.3	1	676663.3	-43.27862	-5.409236E-009	0.1091113	5
