EXPLAIN
TAG	EISPOT
TITLE	LABEL	Potentiostatic EIS	Test &Identifier
DATE	LABEL	11/20/2019	Date
TIME	LABEL	11:12:37	Time
NOTES	NOTES	4	&Notes...
	
	
	
	
PSTAT	PSTAT	REF600-11020	Potentiostat
VDC	POTEN	0.00000E+000	T	DC &Voltage (V)
FREQINIT	QUANT	1.00000E+006	Initial Fre&q. (Hz)
FREQFINAL	QUANT	1.00000E+000	Final Fre&q. (Hz)
PTSPERDEC	QUANT	1.00000E+001	Points/&decade
VAC	QUANT	2.50000E+001	AC &Voltage (mV rms)
AREA	QUANT	1.00000E-002	&Area (cm^2)
CONDIT	TWOPARAM	T	5.00000E+000	0.00000E+000	Conditionin&g	Time(s)	E(V)
DELAY	TWOPARAM	T	5.00000E+000	0.00000E+000	Init. De&lay	Time(s)	Stab.(mV/s)
SPEED	SELECTOR	1	&Optimize for:
ZGUESS	QUANT	1.00000E+005	E&stimated Z (ohms)
OCVCURVE	TABLE	19
	Pt	T	Vf	Vm	Ach	Over
	#	s	V vs. Ref.	V	V	bits
	0	0.258333	3.85663E-003	3.85663E-003	5.52766E-004	...........
	1	0.516667	3.85361E-003	3.69869E-003	5.58799E-004	...........
	2	0.775	3.83542E-003	3.56652E-003	5.59132E-004	...........
	3	1.03333	3.78528E-003	3.45077E-003	5.62099E-004	...........
	4	1.29167	3.69889E-003	3.35213E-003	5.63099E-004	...........
	5	1.55	3.59015E-003	3.27810E-003	5.67066E-004	...........
	6	1.80833	3.47882E-003	3.21142E-003	5.58466E-004	...........
	7	2.06667	3.37832E-003	3.14560E-003	5.63332E-004	...........
	8	2.325	3.29103E-003	3.00925E-003	5.65266E-004	...........
	9	2.58333	3.20981E-003	2.95878E-003	5.62432E-004	...........
	10	2.84167	3.12677E-003	2.84978E-003	5.62532E-004	...........
	11	3.1	3.03891E-003	2.70093E-003	5.54899E-004	...........
	12	3.35833	2.94538E-003	2.68984E-003	5.61266E-004	...........
	13	3.61667	2.85188E-003	2.72945E-003	5.59432E-004	...........
	14	3.875	2.77242E-003	2.53973E-003	5.61666E-004	...........
	15	4.13333	2.70601E-003	2.30619E-003	5.64832E-004	...........
	16	4.39167	2.62391E-003	2.12202E-003	5.62466E-004	...........
	17	4.65	2.50246E-003	2.10451E-003	5.57199E-004	...........
	18	4.90833	2.35598E-003	2.03371E-003	5.61932E-004	...........
EOC	QUANT	0.002356	Open Circuit (V)
PSTATMODEL	IQUANT	4	Pstat Model
PSTATSECTION	LABEL	REF600-11020	Pstat Section
PSTATSERIALNO	LABEL	11020	Pstat Serial Number
CTRLMODE	IQUANT	1	Control Mode
IESTAB	IQUANT	0	I/E Stability
CASPEED	IQUANT	1	Control Amp Speed
CONVENTION	IQUANT	1	Current Convention
ICHRANGE	IQUANT	2	Ich Range
ICHRANGEMODE	TOGGLE	F	Ich Auto Range
ICHOFFSETENABLE	TOGGLE	T	Ich Offset Enable
ICHOFFSET	QUANT	0	Ich Offset (V)
ICHFILTER	IQUANT	3	Ich Filter
VCHRANGE	IQUANT	2	Vch Range
VCHRANGEMODE	TOGGLE	F	Vch Auto Range
VCHOFFSETENABLE	TOGGLE	T	Vch Offset Enable
VCHOFFSET	QUANT	0	Vch Offset (V)
VCHFILTER	IQUANT	3	Vch Filter
ACHRANGE	IQUANT	2	Ach Range
ACHOFFSETENABLE	TOGGLE	F	Ach Offset Enable
ACHOFFSET	QUANT	0	Ach Offset (V)
ACHFILTER	IQUANT	3	Ach Filter
IERANGELOWERLIMIT	IQUANT	1	I/E Range Lower Limit
IERANGEMODE	TOGGLE	F	I/E AutoRange
IERANGE	IQUANT	4	I/E Range
POSFEEDENABLE	TOGGLE	F	Positive Feedback IR Comp
POSFEEDRESISTANCE	QUANT	0	Positive Feedback Resistance (ohm)
ACHSELECT	IQUANT	0	Ach Select
CABLEID	IQUANT	14	Cable ID
DCCALDATE	LABEL	8/19/2019	DC Calibration Date
ACCALDATE	LABEL	8/19/2019	AC Calibration Date
THERMOSELECT	IQUANT	1	Thermo Select
FRAMEWORKVERSION	QUANT	6.33	Framework Version
INSTRUMENTVERSION	LABEL	3.50	Instrument Version
ZCURVE	TABLE
	Pt	Time	Freq	Zreal	Zimag	Zsig	Zmod	Zphz	Idc	Vdc	IERange
	#	s	Hz	ohm	ohm	V	ohm	°	A	V	#
	0	2	1000078	1926.688	-1303.206	1	2326.042	-34.0743	1.829902E-006	0.0039742	8
	1	3	794390.6	2129.427	-1317.754	1	2504.184	-31.75048	1.60026E-006	0.0044128	8
	2	4	630984.4	2318.122	-1319.361	1	2667.284	-29.6464	4.820537E-007	0.004349	8
	3	6	501234.4	2497.665	-1332.196	1	2830.738	-28.07441	-2.531069E-006	0.0037812	8
	4	7	398109.4	2674.837	-1354.964	1	2998.446	-26.86493	5.804655E-006	0.0031314	8
	5	8	316265.6	2851.548	-1400.349	1	3176.839	-26.1549	-5.773682E-006	0.0045843	8
	6	10	251203.1	3027.471	-1436.022	1	3350.782	-25.37642	1.914406E-006	0.0040444	8
	7	11	199546.9	3220.638	-1504.448	1	3554.698	-25.03856	3.504574E-006	0.0037371	8
	8	12	158578.1	3436.277	-1580.151	1	3782.179	-24.69505	-1.472207E-006	0.003603	8
	9	14	125953.1	3660.079	-1646.488	1	4013.366	-24.22062	-1.186478E-006	0.0028871	7
	10	15	100078.1	3886.996	-1746.589	1	4261.374	-24.19636	8.491165E-007	0.0022318	7
	11	17	79453.13	4129.066	-1860.991	1	4529.07	-24.26132	-1.10031E-006	0.0051205	7
	12	18	63140.62	4386.906	-1990.553	1	4817.39	-24.40611	3.803964E-007	0.0023082	7
	13	19	50203.12	4663.7	-2123.575	1	5124.419	-24.48174	-5.133551E-007	0.005181	7
	14	21	39890.62	4959.279	-2266.801	1	5452.782	-24.56432	-5.131755E-007	0.0051796	7
	15	22	31640.63	5275.18	-2420.709	1	5804.081	-24.64975	-3.343307E-007	0.003077	7
	16	23	25171.88	5610.395	-2593.901	1	6181.007	-24.81292	9.399398E-007	0.0030316	7
	17	25	20015.62	5969.245	-2776.545	1	6583.395	-24.94511	4.10705E-007	0.0041582	7
	18	26	15890.62	6338.526	-2977.479	1	7003.021	-25.16147	3.762097E-007	0.0023064	7
	19	27	12609.37	6757.046	-3203.416	1	7477.938	-25.36494	7.931395E-007	0.0034664	7
	20	29	10078.13	7189.504	-3445.371	1	7972.424	-25.60478	9.397803E-007	0.0030308	7
	21	30	8015.625	7674.784	-3723.995	1	8530.56	-25.88381	9.639743E-007	0.0023944	7
	22	32	6328.125	8197.878	-3996.198	1	9120.022	-25.98772	-2.024806E-007	0.0049357	7
	23	33	5015.625	8781.912	-4290.759	1	9774.08	-26.0397	4.080792E-007	0.0041608	7
	24	35	3984.375	9399.513	-4545.871	1	10441.06	-25.80973	-1.29404E-007	0.0062501	6
	25	36	3170.956	10017.39	-4850.949	1	11130.13	-25.83872	-1.676298E-007	0.0051518	6
	26	38	2527.573	10654.7	-5178.238	1	11846.38	-25.91999	6.557809E-008	0.0043904	6
	27	39	1976.103	11328.64	-5575.887	1	12626.5	-26.20613	9.402014E-008	0.0013821	6
	28	41	1577.524	11953.19	-6003.225	1	13376	-26.66708	5.298482E-008	0.0015823	6
	29	43	1265.625	12660.09	-6548.506	1	14253.45	-27.35053	6.567721E-008	0.0043919	6
	30	44	998.264	13423.18	-7212.539	1	15238.19	-28.25001	1.524449E-007	0.0019965	6
	31	46	796.875	14210.42	-7949.188	1	16282.68	-29.22228	9.506931E-008	0.001382	6
	32	47	627.7902	15168.74	-8878.243	1	17575.95	-30.34038	1.477633E-007	0.0024845	6
	33	48	505.5147	16095.19	-9815.41	1	18851.99	-31.3763	-1.673683E-007	0.0051475	6
	34	50	397.9953	17231.59	-11007.04	1	20447.07	-32.56927	1.506723E-009	0.0037062	6
	35	51	315.5048	18409.84	-12355.97	1	22171.88	-33.86797	1.774241E-009	0.0037217	6
	36	52	252.4038	19612.25	-13868.58	1	24020.37	-35.26561	7.781293E-010	0.00372	6
	37	54	198.6229	20978.61	-15815	1	26271.97	-37.01129	1.410229E-009	0.0037094	6
	38	55	158.3615	22434.05	-18065.94	1	28803.9	-38.84418	9.572315E-010	0.003719	6
	39	57	125.558	24094.45	-20842.51	1	31858.32	-40.86091	1.138588E-009	0.0037168	6
	40	58	100.4464	25991.52	-24059.4	1	35417.71	-42.78931	3.894125E-010	0.0037162	6
	41	60	79.00281	28446.24	-28154.8	1	40023.51	-44.70498	1.06037E-009	0.0037043	6
	42	61	63.3446	30881.73	-32571.73	1	44884.29	-46.52564	9.117576E-010	0.0037031	6
	43	63	49.86702	34800.89	-38165.51	1	51649.86	-47.64015	8.554613E-010	0.0037055	6
	44	64	39.72458	39020.75	-44126.76	1	58904.93	-48.51406	9.316429E-010	0.0037051	6
	45	66	31.6723	44128.37	-50608.29	1	67145.45	-48.9129	1.465496E-010	0.0037114	6
	46	67	24.93351	50241.05	-58261.14	1	76931.94	-49.22741	3.202707E-010	0.0037088	6
	47	69	19.86229	56690.44	-66319.45	1	87247.2	-49.47589	1.332766E-009	0.0037159	6
	48	70	15.83615	63686.04	-74427.38	1	97955.8	-49.44705	1.357393E-010	0.0037048	6
	49	72	12.40079	71945.63	-85764.9	1	111945.5	-50.00771	1.120039E-009	0.0037239	5
	50	73	9.93114	79659.72	-97423.4	1	125845.1	-50.72834	3.914276E-010	0.0037184	5
	51	75	7.944915	87775.77	-111384.9	1	141813.9	-51.76048	1.120053E-010	0.0037083	5
	52	76	6.317385	96688.3	-128468.4	1	160787.9	-53.03403	2.202427E-010	0.0037094	5
	53	78	5.008013	106919.9	-149933.9	1	184152.2	-54.50682	5.424318E-012	0.0037135	5
	54	81	3.945707	118802.1	-176826.4	1	213029.4	-56.10453	2.22471E-010	0.0037144	5
	55	84	3.158693	131697	-207491.6	1	245757.8	-57.59629	-5.938688E-011	0.0036948	5
	56	87	2.504006	147949.1	-246084.3	1	287134.8	-58.98515	4.678061E-010	0.0037159	5
	57	90	1.998082	167017.9	-290879.9	1	335419.3	-60.13635	3.039116E-010	0.0037346	5
	58	93	1.584686	191369.9	-344755.7	1	394308.2	-60.96585	1.585593E-010	0.0036792	5
	59	96	1.266892	219495.1	-408152.7	1	463429.3	-61.72967	2.431528E-010	0.0037413	5
	60	101	0.999041	257150.7	-486337	1	550136.6	-62.13235	-6.148727E-011	0.0036692	5
