EXPLAIN
TAG	EISPOT
TITLE	LABEL	Potentiostatic EIS	Test &Identifier
DATE	LABEL	11/3/2019	Date
TIME	LABEL	10:24:00	Time
NOTES	NOTES	1	&Notes...
	
PSTAT	PSTAT	REF600-11020	Potentiostat
VDC	POTEN	0.00000E+000	T	DC &Voltage (V)
FREQINIT	QUANT	1.00000E+006	Initial Fre&q. (Hz)
FREQFINAL	QUANT	1.00000E+000	Final Fre&q. (Hz)
PTSPERDEC	QUANT	1.00000E+001	Points/&decade
VAC	QUANT	2.50000E+001	AC &Voltage (mV rms)
AREA	QUANT	1.00000E-002	&Area (cm^2)
CONDIT	TWOPARAM	T	5.00000E+000	0.00000E+000	Conditionin&g	Time(s)	E(V)
DELAY	TWOPARAM	T	5.00000E+000	0.00000E+000	Init. De&lay	Time(s)	Stab.(mV/s)
SPEED	SELECTOR	1	&Optimize for:
ZGUESS	QUANT	1.00000E+005	E&stimated Z (ohms)
OCVCURVE	TABLE	19
	Pt	T	Vf	Vm	Ach	Over
	#	s	V vs. Ref.	V	V	bits
	0	0.258333	4.95814E-003	4.95814E-003	5.65466E-004	...........
	1	0.516667	4.95462E-003	4.77349E-003	5.68432E-004	...........
	2	0.775	4.93309E-003	4.60541E-003	5.71699E-004	...........
	3	1.03333	4.87298E-003	4.46251E-003	5.67599E-004	...........
	4	1.29167	4.76784E-003	4.32620E-003	5.67566E-004	...........
	5	1.55	4.63268E-003	4.21345E-003	5.67532E-004	...........
	6	1.80833	4.48953E-003	4.10248E-003	5.64032E-004	...........
	7	2.06667	4.35337E-003	4.00225E-003	5.67299E-004	...........
	8	2.325	4.22934E-003	3.90089E-003	5.70832E-004	...........
	9	2.58333	4.11654E-003	3.81671E-003	5.68266E-004	...........
	10	2.84167	4.01251E-003	3.72638E-003	5.69599E-004	...........
	11	3.1	3.91554E-003	3.65133E-003	5.62499E-004	...........
	12	3.35833	3.82459E-003	3.57021E-003	5.66132E-004	...........
	13	3.61667	3.73876E-003	3.49298E-003	5.70232E-004	...........
	14	3.875	3.65694E-003	3.42339E-003	5.65566E-004	...........
	15	4.13333	3.57857E-003	3.36563E-003	5.68366E-004	...........
	16	4.39167	3.50424E-003	3.29948E-003	5.67499E-004	...........
	17	4.65	3.43455E-003	3.23723E-003	5.72232E-004	...........
	18	4.90833	3.36873E-003	3.17904E-003	5.71066E-004	...........
EOC	QUANT	0.0033687	Open Circuit (V)
PSTATMODEL	IQUANT	4	Pstat Model
PSTATSECTION	LABEL	REF600-11020	Pstat Section
PSTATSERIALNO	LABEL	11020	Pstat Serial Number
CTRLMODE	IQUANT	1	Control Mode
IESTAB	IQUANT	0	I/E Stability
CASPEED	IQUANT	1	Control Amp Speed
CONVENTION	IQUANT	1	Current Convention
ICHRANGE	IQUANT	2	Ich Range
ICHRANGEMODE	TOGGLE	F	Ich Auto Range
ICHOFFSETENABLE	TOGGLE	T	Ich Offset Enable
ICHOFFSET	QUANT	0	Ich Offset (V)
ICHFILTER	IQUANT	3	Ich Filter
VCHRANGE	IQUANT	2	Vch Range
VCHRANGEMODE	TOGGLE	F	Vch Auto Range
VCHOFFSETENABLE	TOGGLE	T	Vch Offset Enable
VCHOFFSET	QUANT	0	Vch Offset (V)
VCHFILTER	IQUANT	3	Vch Filter
ACHRANGE	IQUANT	2	Ach Range
ACHOFFSETENABLE	TOGGLE	F	Ach Offset Enable
ACHOFFSET	QUANT	0	Ach Offset (V)
ACHFILTER	IQUANT	3	Ach Filter
IERANGELOWERLIMIT	IQUANT	1	I/E Range Lower Limit
IERANGEMODE	TOGGLE	F	I/E AutoRange
IERANGE	IQUANT	4	I/E Range
POSFEEDENABLE	TOGGLE	F	Positive Feedback IR Comp
POSFEEDRESISTANCE	QUANT	0	Positive Feedback Resistance (ohm)
ACHSELECT	IQUANT	0	Ach Select
CABLEID	IQUANT	14	Cable ID
DCCALDATE	LABEL	8/19/2019	DC Calibration Date
ACCALDATE	LABEL	8/19/2019	AC Calibration Date
THERMOSELECT	IQUANT	1	Thermo Select
FRAMEWORKVERSION	QUANT	6.33	Framework Version
INSTRUMENTVERSION	LABEL	3.50	Instrument Version
ZCURVE	TABLE
	Pt	Time	Freq	Zreal	Zimag	Zsig	Zmod	Zphz	Idc	Vdc	IERange
	#	s	Hz	ohm	ohm	V	ohm	°	A	V	#
	0	2	1000078	2151.219	-1364.111	1	2547.261	-32.37922	-4.607224E-006	0.0056999	8
	1	3	794390.6	2422.495	-1269.538	1	2734.998	-27.65733	6.757033E-006	0.005108	8
	2	4	630984.4	2646.271	-1155.526	1	2887.558	-23.58907	-3.194826E-006	0.005504	8
	3	6	501234.4	2822.166	-1027.445	1	3003.375	-20.00466	-1.783414E-006	0.0050446	8
	4	7	398109.4	2969.012	-896.5328	1	3101.42	-16.80239	-7.594114E-007	0.0053226	8
	5	8	316265.6	3073.55	-772.4736	1	3169.136	-14.10791	4.032753E-006	0.0047789	8
	6	10	251203.1	3159.863	-669.0328	1	3229.913	-11.95459	1.70782E-006	0.0051019	8
	7	11	199546.9	3225.425	-574.7836	1	3276.239	-10.10427	-1.419345E-006	0.0052146	8
	8	12	158578.1	3286.518	-526.9303	1	3328.492	-9.10876	-5.981238E-006	0.005683	8
	9	14	125953.1	3330.341	-402.5215	1	3354.578	-6.891623	1.720716E-006	-0.0006818	7
	10	15	100078.1	3356.001	-364.8929	1	3375.78	-6.205307	6.117629E-008	0.0057263	7
	11	16	79453.13	3381.062	-347.7744	1	3398.901	-5.872763	1.271291E-007	0.0034086	7
	12	18	63140.62	3408.96	-339.3083	1	3425.805	-5.684171	4.863967E-007	0.0031155	7
	13	19	50203.12	3435.275	-337.9928	1	3451.863	-5.619182	4.865014E-007	0.0031181	7
	14	20	39890.62	3464.226	-343.4687	1	3481.212	-5.662217	7.729186E-007	0.0030157	7
	15	22	31640.63	3490.553	-358.5141	1	3508.916	-5.864276	-6.174068E-007	0.0063305	7
	16	23	25171.88	3522.052	-382.9332	1	3542.807	-6.20508	3.778382E-007	0.0052802	7
	17	24	20015.62	3548.916	-419.9956	1	3573.681	-6.749264	3.777897E-007	0.0052759	7
	18	26	15890.62	3590.504	-461.4369	1	3620.033	-7.323278	9.63618E-007	0.0031051	7
	19	27	12609.37	3626.187	-517.2216	1	3662.888	-8.117636	9.658464E-007	0.0031022	7
	20	29	10078.13	3663.329	-585.8298	1	3709.876	-9.085658	7.718794E-007	0.0030144	7
	21	30	8015.625	3700.681	-667.3216	1	3760.366	-10.22195	3.802979E-007	0.0052813	7
	22	31	6328.125	3744.183	-784.158	1	3825.417	-11.8287	-1.19787E-006	0.0058165	7
	23	33	5015.625	3796.326	-923.2358	1	3906.976	-13.66853	1.068922E-006	0.0033296	7
	24	34	3984.375	3839.405	-1096.245	1	3992.841	-15.93535	-7.047531E-007	0.0045732	7
	25	35	3170.956	3904.847	-1296.788	1	4114.546	-18.37117	3.801713E-007	0.005277	7
	26	37	2527.573	3973.375	-1548.297	1	4264.379	-21.28926	-2.859101E-007	0.0038968	7
	27	38	1976.103	4055.366	-1885.999	1	4472.47	-24.94137	-6.161457E-007	0.0063218	7
	28	39	1577.524	4144.212	-2271.165	1	4725.747	-28.7242	-6.181804E-007	0.0063244	7
	29	41	1265.625	4246.092	-2726.982	1	5046.358	-32.70993	4.885283E-007	0.0031086	7
	30	42	998.264	4373.215	-3328.039	1	5495.53	-37.27132	3.818985E-007	0.0052724	7
	31	43	796.875	4519.833	-4026.406	1	6053.167	-41.69563	-1.081359E-006	0.0063375	7
	32	45	627.7902	4697.296	-4946.829	1	6821.708	-46.48214	-6.127272E-007	0.0063265	7
	33	46	505.5147	4898.154	-5971.52	1	7723.403	-50.6396	-6.127796E-007	0.0063271	7
	34	47	397.9953	5157.811	-7376.803	1	9001.124	-55.03901	4.974656E-009	0.0047768	7
	35	49	315.5048	5482.915	-9053.763	1	10584.56	-58.80111	1.775145E-009	0.0047189	6
	36	50	252.4038	5871.452	-11034.03	1	12498.95	-61.98156	1.425669E-009	0.0047195	6
	37	51	198.6229	6405.899	-13653.91	1	15081.94	-64.86581	7.30293E-010	0.0047222	6
	38	53	158.3615	7065.356	-16695.83	1	18129.26	-67.06285	7.598093E-010	0.0047233	6
	39	54	125.558	7941.274	-20511.15	1	21994.8	-68.83516	1.318156E-009	0.0047137	6
	40	56	100.4464	9061.632	-24962.54	1	26556.39	-70.04864	2.778025E-010	0.0047176	6
	41	57	79.00281	10571.38	-30880.41	1	32639.76	-71.10223	1.15153E-009	0.0047061	6
	42	58	63.3446	12748.53	-37695.23	1	39792.66	-71.31446	4.638867E-010	0.0047125	6
	43	60	49.86702	15025.56	-45850.61	1	48249.83	-71.85567	6.228135E-010	0.004715	6
	44	61	39.72458	18727.92	-55473.78	1	58549.77	-71.34534	4.731857E-010	0.004722	6
	45	62	31.6723	23208.12	-66977.79	1	70884.7	-70.88856	1.546035E-009	0.0047106	6
	46	64	24.93351	29574.91	-81048.04	1	86275.48	-69.95267	-2.382228E-010	0.0047255	6
	47	65	19.86229	37182.95	-96637.2	1	103543.8	-68.95484	1.432583E-009	0.0047261	6
	48	66	15.83615	48151.59	-114512.5	1	124224.3	-67.19363	-9.045444E-010	0.0047251	5
	49	68	12.40079	61630.16	-136502.1	1	149770.2	-65.70102	2.072361E-009	0.0047285	5
	50	69	9.93114	75413.19	-158620.3	1	175634.7	-64.57209	1.180619E-009	0.0047279	5
	51	71	7.944915	93367.45	-184244.9	1	206551.9	-63.12606	8.510351E-011	0.004722	5
	52	72	6.317385	114679.7	-212334.1	1	241323.8	-61.62692	-1.467248E-010	0.0047321	5
	53	75	5.008013	140110.3	-244021.1	1	281384.4	-60.13672	3.717839E-012	0.0047243	5
	54	77	3.945707	169498.7	-280111.2	1	327402.1	-58.82135	4.763933E-010	0.004727	5
	55	80	3.158693	200332.1	-316861.8	1	374879.2	-57.69737	8.816643E-011	0.0047188	5
	56	83	2.504006	235476.6	-360378.7	1	430490.4	-56.83883	2.903932E-010	0.0047127	5
	57	86	1.998082	272121.2	-408446.5	1	490793.8	-56.32708	-5.125705E-011	0.0047485	5
	58	89	1.584686	313832.3	-466515.9	1	562252.4	-56.07068	2.41296E-010	0.0047602	5
	59	93	1.266892	357166.5	-530208.1	1	639287.5	-56.03443	-1.901829E-012	0.0047541	5
	60	97	0.999041	406440.8	-611677.8	1	734400.3	-56.39721	2.510701E-010	0.0047113	5
