EXPLAIN
TAG	EISPOT
TITLE	LABEL	Potentiostatic EIS	Test &Identifier
DATE	LABEL	11/5/2019	Date
TIME	LABEL	8:26:04	Time
NOTES	NOTES	2	&Notes...
	
	
PSTAT	PSTAT	REF600-11020	Potentiostat
VDC	POTEN	0.00000E+000	T	DC &Voltage (V)
FREQINIT	QUANT	1.00000E+006	Initial Fre&q. (Hz)
FREQFINAL	QUANT	1.00000E+000	Final Fre&q. (Hz)
PTSPERDEC	QUANT	1.00000E+001	Points/&decade
VAC	QUANT	2.50000E+001	AC &Voltage (mV rms)
AREA	QUANT	1.00000E-002	&Area (cm^2)
CONDIT	TWOPARAM	T	5.00000E+000	0.00000E+000	Conditionin&g	Time(s)	E(V)
DELAY	TWOPARAM	T	5.00000E+000	0.00000E+000	Init. De&lay	Time(s)	Stab.(mV/s)
SPEED	SELECTOR	1	&Optimize for:
ZGUESS	QUANT	1.00000E+005	E&stimated Z (ohms)
OCVCURVE	TABLE	19
	Pt	T	Vf	Vm	Ach	Over
	#	s	V vs. Ref.	V	V	bits
	0	0.258333	7.05776E-004	7.05776E-004	5.70566E-004	...........
	1	0.516667	6.92158E-004	-7.10832E-006	5.67399E-004	...........
	2	0.775	6.10735E-004	-5.67448E-004	5.69866E-004	...........
	3	1.03333	3.86756E-004	-1.15588E-003	5.73666E-004	...........
	4	1.29167	2.68747E-006	-1.37002E-003	5.73899E-004	...........
	5	1.55	-4.84934E-004	-2.50073E-003	5.73499E-004	...........
	6	1.80833	-1.03770E-003	-3.42803E-003	5.72399E-004	...........
	7	2.06667	-1.67757E-003	-3.85178E-003	5.73066E-004	...........
	8	2.325	-2.36504E-003	-2.72269E-003	5.70832E-004	...........
	9	2.58333	-2.92473E-003	-3.56032E-003	5.71632E-004	...........
	10	2.84167	-3.23630E-003	-3.94879E-003	5.69466E-004	...........
	11	3.1	-3.40902E-003	-4.55477E-003	5.71932E-004	...........
	12	3.35833	-3.64927E-003	-5.62577E-003	5.70132E-004	...........
	13	3.61667	-4.04266E-003	-4.57035E-003	5.70299E-004	...........
	14	3.875	-4.46265E-003	-3.95734E-003	5.66299E-004	...........
	15	4.13333	-4.68345E-003	-4.62081E-003	5.65499E-004	...........
	16	4.39167	-4.66420E-003	-4.99722E-003	5.67932E-004	...........
	17	4.65	-4.60503E-003	-5.22891E-003	5.73832E-004	...........
	18	4.90833	-4.68180E-003	-5.48899E-003	5.71399E-004	...........
EOC	QUANT	-0.0046818	Open Circuit (V)
PSTATMODEL	IQUANT	4	Pstat Model
PSTATSECTION	LABEL	REF600-11020	Pstat Section
PSTATSERIALNO	LABEL	11020	Pstat Serial Number
CTRLMODE	IQUANT	1	Control Mode
IESTAB	IQUANT	0	I/E Stability
CASPEED	IQUANT	1	Control Amp Speed
CONVENTION	IQUANT	1	Current Convention
ICHRANGE	IQUANT	2	Ich Range
ICHRANGEMODE	TOGGLE	F	Ich Auto Range
ICHOFFSETENABLE	TOGGLE	T	Ich Offset Enable
ICHOFFSET	QUANT	0	Ich Offset (V)
ICHFILTER	IQUANT	3	Ich Filter
VCHRANGE	IQUANT	2	Vch Range
VCHRANGEMODE	TOGGLE	F	Vch Auto Range
VCHOFFSETENABLE	TOGGLE	T	Vch Offset Enable
VCHOFFSET	QUANT	0	Vch Offset (V)
VCHFILTER	IQUANT	3	Vch Filter
ACHRANGE	IQUANT	2	Ach Range
ACHOFFSETENABLE	TOGGLE	F	Ach Offset Enable
ACHOFFSET	QUANT	0	Ach Offset (V)
ACHFILTER	IQUANT	3	Ach Filter
IERANGELOWERLIMIT	IQUANT	1	I/E Range Lower Limit
IERANGEMODE	TOGGLE	F	I/E AutoRange
IERANGE	IQUANT	4	I/E Range
POSFEEDENABLE	TOGGLE	F	Positive Feedback IR Comp
POSFEEDRESISTANCE	QUANT	0	Positive Feedback Resistance (ohm)
ACHSELECT	IQUANT	0	Ach Select
CABLEID	IQUANT	14	Cable ID
DCCALDATE	LABEL	8/19/2019	DC Calibration Date
ACCALDATE	LABEL	8/19/2019	AC Calibration Date
THERMOSELECT	IQUANT	1	Thermo Select
FRAMEWORKVERSION	QUANT	6.33	Framework Version
INSTRUMENTVERSION	LABEL	3.50	Instrument Version
ZCURVE	TABLE
	Pt	Time	Freq	Zreal	Zimag	Zsig	Zmod	Zphz	Idc	Vdc	IERange
	#	s	Hz	ohm	ohm	V	ohm	°	A	V	#
	0	2	1000078	2210.961	-1384.99	1	2608.936	-32.06384	6.361094E-008	-0.0020816	8
	1	3	794390.6	2459.881	-1296.903	1	2780.823	-27.79918	-1.926458E-006	-0.0023636	8
	2	4	630984.4	2688.408	-1178.931	1	2935.543	-23.6786	-1.95054E-006	-0.0029134	8
	3	6	501234.4	2875.392	-1049.868	1	3061.062	-20.05823	-2.939177E-006	-0.002531	8
	4	7	398109.4	3008.917	-923.3591	1	3147.408	-17.0599	-4.547807E-006	-0.0028577	8
	5	8	316265.6	3127.69	-790.8532	1	3226.127	-14.19012	2.209898E-006	-0.0029492	8
	6	10	251203.1	3214.128	-704.7773	1	3290.491	-12.36778	1.832016E-006	-0.0029608	8
	7	11	199546.9	3271.213	-615.7072	1	3328.653	-10.65949	-1.991606E-006	-0.0031248	8
	8	12	158578.1	3318.316	-540.7799	1	3362.093	-9.256018	-5.948916E-006	-0.0023861	8
	9	14	125953.1	3397.339	-437.8326	1	3425.435	-7.343525	1.758143E-006	-0.008822	7
	10	15	100078.1	3419.011	-400.7478	1	3442.417	-6.685227	-1.220992E-006	-0.0022159	7
	11	17	79453.13	3456.121	-387.6556	1	3477.794	-6.399828	1.010374E-006	-0.0039932	7
	12	18	63140.62	3488.378	-379.0216	1	3508.908	-6.201015	-6.330699E-007	-0.0016912	7
	13	19	50203.12	3525.407	-382.2985	1	3546.074	-6.189025	1.092981E-006	-0.0047631	7
	14	21	39890.62	3559.896	-390.8936	1	3581.292	-6.266248	5.005174E-007	-0.0049803	7
	15	22	31640.63	3597.699	-409.4322	1	3620.922	-6.49255	1.331752E-007	-0.0046914	7
	16	23	25171.88	3638.917	-435.1235	1	3664.839	-6.818767	8.271713E-007	-0.003494	7
	17	25	20015.62	3681.209	-468.8367	1	3710.944	-7.258083	-2.929125E-007	-0.0041777	7
	18	26	15890.62	3732.193	-513.7769	1	3767.39	-7.838121	9.913343E-007	-0.0049891	7
	19	27	12609.37	3785.444	-567.0673	1	3827.683	-8.519673	-2.907623E-007	-0.0041809	7
	20	29	10078.13	3847.232	-631.0929	1	3898.65	-9.315727	9.919797E-007	-0.0049881	7
	21	30	8015.625	3907.819	-703.3642	1	3970.613	-10.20336	1.321594E-007	-0.0046946	7
	22	32	6328.125	3976.881	-793.7046	1	4055.311	-11.28677	-9.095935E-007	-0.0016154	7
	23	33	5015.625	4059.483	-898.8434	1	4157.803	-12.4849	7.939481E-007	-0.0050808	7
	24	34	3984.375	4139.081	-1022.394	1	4263.482	-13.87489	1.332955E-007	-0.0046904	7
	25	36	3170.956	4223.445	-1164.662	1	4381.087	-15.41679	-9.105717E-007	-0.0016101	7
	26	37	2527.573	4314.493	-1336.748	1	4516.83	-17.21442	-3.03189E-007	-0.0019357	7
	27	38	1976.103	4421.356	-1566.523	1	4690.67	-19.50966	5.008127E-007	-0.0049821	7
	28	40	1577.524	4529.713	-1826.885	1	4884.241	-21.96478	1.011139E-006	-0.0039964	7
	29	41	1265.625	4625.027	-2134.81	1	5093.946	-24.777	3.866863E-007	-0.0027662	7
	30	42	998.264	4747.78	-2541.419	1	5385.186	-28.15951	6.273346E-008	-0.0023263	7
	31	44	796.875	4871.097	-3029.537	1	5736.347	-31.87919	1.015273E-006	-0.0039944	7
	32	45	627.7902	5022.404	-3665.361	1	6217.669	-36.12204	1.095996E-006	-0.0047618	7
	33	46	505.5147	5176.163	-4373.097	1	6776.182	-40.1929	8.326346E-007	-0.0035067	7
	34	48	397.9953	5378.337	-5343.3	1	7581.383	-44.81276	6.156427E-009	-0.0032783	7
	35	49	315.5048	5611.322	-6517.791	1	8600.496	-49.27405	4.682928E-009	-0.0032774	7
	36	50	252.4038	5886.298	-7908.824	1	9858.9	-53.34081	3.298228E-009	-0.0032771	7
	37	52	198.6229	6258.11	-9752.9	1	11588.05	-57.31306	9.755976E-010	-0.0033362	6
	38	53	158.3615	6703.163	-11902.88	1	13660.56	-60.61377	1.093796E-009	-0.0033326	6
	39	55	125.558	7283.908	-14610.42	1	16325.43	-63.50182	1.047826E-009	-0.0033362	6
	40	56	100.4464	8005.986	-17771.78	1	19491.84	-65.74897	1.940543E-009	-0.0033421	6
	41	57	79.00281	8975.259	-21937.18	1	23702.22	-67.74883	9.483974E-010	-0.0033356	6
	42	59	63.3446	10421.83	-26728.3	1	28688.26	-68.69833	1.288684E-009	-0.0033423	6
	43	60	49.86702	11797.79	-32849.67	1	34904	-70.24451	2.312807E-011	-0.0033424	6
	44	61	39.72458	14117.72	-39815.62	1	42244.45	-70.47665	1.084788E-009	-0.0033408	6
	45	63	31.6723	16795.96	-48300.4	1	51137.39	-70.82541	5.608633E-010	-0.0033369	6
	46	64	24.93351	20628.32	-58874.67	1	62383.93	-70.69072	1.063423E-010	-0.0033458	6
	47	66	19.86229	25388.61	-70809.16	1	75223.13	-70.27471	1.10344E-009	-0.0033444	6
	48	67	15.83615	31234.34	-85264.64	1	90805.52	-69.88109	6.758464E-010	-0.0033422	6
	49	68	12.40079	39145.87	-102426.4	1	109652	-69.08388	7.325741E-010	-0.0033336	5
	50	70	9.93114	49275.79	-121341.2	1	130964.8	-67.89828	1.177199E-009	-0.0033436	5
	51	71	7.944915	60777.98	-143120.1	1	155490.6	-66.99081	-2.772864E-010	-0.0033312	5
	52	73	6.317385	75868.52	-168418.1	1	184717.9	-65.74952	1.440178E-010	-0.0033415	5
	53	75	5.008013	94207.51	-197650.7	1	218954	-64.51584	1.792126E-010	-0.0033369	5
	54	78	3.945707	116377.4	-231330.6	1	258954.7	-63.29402	5.365103E-010	-0.0033237	5
	55	80	3.158693	140743.4	-267194.3	1	301995.8	-62.22218	8.015939E-011	-0.0033452	5
	56	84	2.504006	170326.9	-309073.1	1	352898.7	-61.1413	6.901263E-010	-0.0033268	5
	57	86	1.998082	202802.8	-354445	1	408362.9	-60.2231	7.570606E-010	-0.0033452	5
	58	89	1.584686	242672.2	-408564	1	475199.3	-59.29122	4.016782E-010	-0.0033798	5
	59	93	1.266892	283981.9	-467483.9	1	546979.8	-58.72262	4.812923E-010	-0.00336	5
	60	97	0.999041	334492.3	-537086.2	1	632729.6	-58.08573	-1.882736E-010	-0.0033186	5
