EXPLAIN
TAG	EISPOT
TITLE	LABEL	Potentiostatic EIS	Test &Identifier
DATE	LABEL	10/22/2019	Date
TIME	LABEL	8:12:46	Time
NOTES	NOTES	1	&Notes...
	
PSTAT	PSTAT	REF600-11020	Potentiostat
VDC	POTEN	0.00000E+000	T	DC &Voltage (V)
FREQINIT	QUANT	1.00000E+006	Initial Fre&q. (Hz)
FREQFINAL	QUANT	1.00000E+000	Final Fre&q. (Hz)
PTSPERDEC	QUANT	1.00000E+001	Points/&decade
VAC	QUANT	2.50000E+001	AC &Voltage (mV rms)
AREA	QUANT	1.00000E-002	&Area (cm^2)
CONDIT	TWOPARAM	T	5.00000E+000	0.00000E+000	Conditionin&g	Time(s)	E(V)
DELAY	TWOPARAM	T	5.00000E+000	0.00000E+000	Init. De&lay	Time(s)	Stab.(mV/s)
SPEED	SELECTOR	1	&Optimize for:
ZGUESS	QUANT	1.00000E+005	E&stimated Z (ohms)
OCVCURVE	TABLE	19
	Pt	T	Vf	Vm	Ach	Over
	#	s	V vs. Ref.	V	V	bits
	0	0.258333	2.24810E-003	2.24810E-003	5.73166E-004	...........
	1	0.516667	2.24233E-003	1.94608E-003	5.82265E-004	...........
	2	0.775	2.20724E-003	1.67771E-003	5.76799E-004	...........
	3	1.03333	2.10939E-003	1.43406E-003	5.83265E-004	...........
	4	1.29167	1.93783E-003	1.20874E-003	5.80232E-004	...........
	5	1.55	1.71582E-003	1.00631E-003	5.76632E-004	...........
	6	1.80833	1.47784E-003	8.12278E-004	5.82265E-004	...........
	7	2.06667	1.24757E-003	6.34045E-004	5.73332E-004	...........
	8	2.325	1.03397E-003	4.62975E-004	5.74066E-004	...........
	9	2.58333	8.37176E-004	3.03337E-004	5.74165E-004	...........
	10	2.84167	6.54505E-004	1.54506E-004	5.79532E-004	...........
	11	3.1	4.83669E-004	1.60223E-005	5.77632E-004	...........
	12	3.35833	3.23490E-004	-1.16198E-004	5.76666E-004	...........
	13	3.61667	1.73268E-004	-2.41138E-004	5.73799E-004	...........
	14	3.875	3.20609E-005	-3.63611E-004	5.86932E-004	...........
	15	4.13333	-1.01446E-004	-4.79420E-004	5.79332E-004	...........
	16	4.39167	-2.28606E-004	-5.92270E-004	5.78765E-004	...........
	17	4.65	-3.50341E-004	-6.95061E-004	5.75999E-004	...........
	18	4.90833	-4.66991E-004	-8.01454E-004	5.71832E-004	...........
EOC	QUANT	-0.000467	Open Circuit (V)
PSTATMODEL	IQUANT	4	Pstat Model
PSTATSECTION	LABEL	REF600-11020	Pstat Section
PSTATSERIALNO	LABEL	11020	Pstat Serial Number
CTRLMODE	IQUANT	1	Control Mode
IESTAB	IQUANT	0	I/E Stability
CASPEED	IQUANT	1	Control Amp Speed
CONVENTION	IQUANT	1	Current Convention
ICHRANGE	IQUANT	2	Ich Range
ICHRANGEMODE	TOGGLE	F	Ich Auto Range
ICHOFFSETENABLE	TOGGLE	T	Ich Offset Enable
ICHOFFSET	QUANT	0	Ich Offset (V)
ICHFILTER	IQUANT	3	Ich Filter
VCHRANGE	IQUANT	2	Vch Range
VCHRANGEMODE	TOGGLE	F	Vch Auto Range
VCHOFFSETENABLE	TOGGLE	T	Vch Offset Enable
VCHOFFSET	QUANT	0	Vch Offset (V)
VCHFILTER	IQUANT	3	Vch Filter
ACHRANGE	IQUANT	2	Ach Range
ACHOFFSETENABLE	TOGGLE	F	Ach Offset Enable
ACHOFFSET	QUANT	0	Ach Offset (V)
ACHFILTER	IQUANT	3	Ach Filter
IERANGELOWERLIMIT	IQUANT	1	I/E Range Lower Limit
IERANGEMODE	TOGGLE	F	I/E AutoRange
IERANGE	IQUANT	3	I/E Range
POSFEEDENABLE	TOGGLE	F	Positive Feedback IR Comp
POSFEEDRESISTANCE	QUANT	0	Positive Feedback Resistance (ohm)
ACHSELECT	IQUANT	0	Ach Select
CABLEID	IQUANT	14	Cable ID
DCCALDATE	LABEL	8/19/2019	DC Calibration Date
ACCALDATE	LABEL	8/19/2019	AC Calibration Date
THERMOSELECT	IQUANT	1	Thermo Select
FRAMEWORKVERSION	QUANT	6.33	Framework Version
INSTRUMENTVERSION	LABEL	3.50	Instrument Version
ZCURVE	TABLE
	Pt	Time	Freq	Zreal	Zimag	Zsig	Zmod	Zphz	Idc	Vdc	IERange
	#	s	Hz	ohm	ohm	V	ohm	°	A	V	#
	0	2	1000078	2391.101	-1703.516	1	2935.87	-35.46759	2.573062E-006	0.0013328	8
	1	3	794390.6	2726.851	-1629.318	1	3176.538	-30.85871	-8.689481E-007	0.001458	8
	2	5	630984.4	3052.481	-1529.218	1	3414.11	-26.60974	-6.08169E-007	0.001552	8
	3	6	501234.4	3305.91	-1387.303	1	3585.198	-22.76503	-3.062821E-007	0.0011267	8
	4	7	398109.4	3525.84	-1210.766	1	3727.935	-18.95236	1.453639E-006	0.0005978	8
	5	9	316265.6	3705.425	-1047.699	1	3850.695	-15.78811	-4.284188E-006	0.0020511	8
	6	10	251203.1	3823.275	-885.0192	1	3924.371	-13.03338	3.094131E-006	0.0004554	8
	7	11	199546.9	3913.389	-775.9883	1	3989.583	-11.21573	1.470445E-006	0.0008811	8
	8	13	158578.1	3970.197	-666.1595	1	4025.697	-9.52493	6.883247E-007	0.0008302	8
	9	14	125953.1	4071.34	-512.2646	1	4103.44	-7.171391	1.117364E-006	-0.0014706	7
	10	15	100078.1	4091.615	-427.8626	1	4113.925	-5.969758	-7.921159E-008	0.0011468	7
	11	17	79453.13	4122.825	-379.1107	1	4140.218	-5.253808	-2.047079E-008	0.0010688	7
	12	18	63140.62	4149.226	-339.3716	1	4163.082	-4.675901	-3.017677E-008	0.0010317	7
	13	19	50203.12	4172.716	-309.3423	1	4184.167	-4.239839	-1.994728E-008	0.0010637	7
	14	21	39890.62	4193.801	-290.4817	1	4203.849	-3.962237	-3.120189E-008	0.0010154	7
	15	22	31640.63	4212.667	-279.1359	1	4221.904	-3.79094	8.860194E-008	0.0009413	7
	16	24	25171.88	4231.127	-277.3695	1	4240.209	-3.750631	-9.763073E-009	0.0011368	7
	17	25	20015.62	4244.485	-278.9697	1	4253.643	-3.760368	6.260775E-008	0.0009028	7
	18	26	15890.62	4262.919	-301.2036	1	4273.547	-4.041611	1.319015E-007	0.0008031	7
	19	28	12609.37	4282.229	-331.1146	1	4295.011	-4.421482	7.795514E-008	0.0008406	7
	20	29	10078.13	4297.537	-369.8341	1	4313.421	-4.918598	-2.474572E-009	0.001014	7
	21	30	8015.625	4320.469	-423.1967	1	4341.146	-5.594365	-1.152891E-008	0.0011378	7
	22	32	6328.125	4334.452	-497.9611	1	4362.962	-6.553661	7.533024E-009	0.0009364	7
	23	33	5015.625	4355.597	-592.0864	1	4395.656	-7.741162	-4.758071E-008	0.0010344	7
	24	34	3984.375	4375.601	-712.8807	1	4433.292	-9.253428	3.755277E-008	0.0008758	7
	25	36	3170.956	4410.782	-855.5464	1	4492.99	-10.97718	-7.746448E-008	0.0011334	7
	26	37	2527.573	4444.71	-1036.614	1	4563.991	-13.12809	-4.815111E-008	0.001033	7
	27	38	1976.103	4490.048	-1277.444	1	4668.232	-15.88135	6.259837E-008	0.0009027	7
	28	40	1577.524	4537.739	-1539.501	1	4791.778	-18.74034	8.009137E-008	0.0008324	7
	29	41	1265.625	4603.406	-1890.341	1	4976.418	-22.32499	3.958117E-008	0.0008717	7
	30	42	998.264	4684.034	-2334.923	1	5233.74	-26.49559	-2.988161E-008	0.0010104	7
	31	44	796.875	4782.046	-2851.878	1	5567.87	-30.81066	7.889121E-008	0.0008308	7
	32	45	627.7902	4916.642	-3528.683	1	6051.856	-35.66708	6.27456E-008	0.0008945	7
	33	46	505.5147	5072.327	-4277.38	1	6635.094	-40.14019	-3.555352E-009	0.0010334	7
	34	48	397.9953	5296.719	-5292.355	1	7487.607	-44.97639	4.48276E-009	0.0010241	7
	35	49	315.5048	5581.326	-6500.195	1	8567.599	-49.3493	3.899226E-009	0.0010222	7
	36	51	252.4038	5938.899	-7910.217	1	9891.51	-53.1012	4.663644E-009	0.0010207	7
	37	52	198.6229	6445.797	-9746.83	1	11685.42	-56.52243	8.400234E-010	0.0009662	6
	38	53	158.3615	7074.701	-11853.5	1	13804.24	-59.16935	7.901843E-010	0.0009621	6
	39	55	125.558	7923.193	-14438.54	1	16469.62	-61.24408	1.166242E-009	0.0009624	6
	40	56	100.4464	8986.196	-17385.36	1	19570.45	-62.66632	1.136199E-009	0.0009592	6
	41	57	79.00281	10498.19	-21216.64	1	23671.88	-63.67337	8.093212E-010	0.0009566	6
	42	59	63.3446	12441.21	-25279.63	1	28175.22	-63.79618	2.451103E-010	0.0009562	6
	43	60	49.86702	14638.99	-30481.92	1	33814.9	-64.34729	5.610883E-010	0.0009556	6
	44	61	39.72458	17591.52	-35942.03	1	40016.13	-63.92095	1.192224E-009	0.0009586	6
	45	63	31.6723	21054.28	-42367.71	1	47310.73	-63.57531	1.546926E-009	0.0009587	6
	46	64	24.93351	25552.2	-49937.64	1	56095.3	-62.90198	2.713639E-010	0.0009544	6
	47	66	19.86229	30418.79	-58244.21	1	65709.14	-62.42361	4.34507E-010	0.0009504	6
	48	67	15.83615	35863.68	-67175.62	1	76149.64	-61.90316	1.084688E-009	0.0009562	6
	49	68	12.40079	42395.09	-79554.88	1	90146.12	-61.94668	5.786992E-010	0.0009544	6
	50	70	9.93114	49362.44	-91938.3	1	104351.8	-61.76828	-9.681774E-011	0.0009629	5
	51	71	7.944915	56747.19	-106678.9	1	120833.1	-61.98953	1.048527E-009	0.0009582	5
	52	73	6.317385	65625.86	-124965	1	141148.9	-62.29361	7.616244E-010	0.0009535	5
	53	75	5.008013	76078.02	-147377.2	1	165855.1	-62.69663	1.522559E-010	0.0009609	5
	54	77	3.945707	88473.42	-174863.6	1	195971.5	-63.16256	1.22774E-011	0.0009547	5
	55	80	3.158693	102385.3	-205326.5	1	229437.8	-63.49702	9.415056E-011	0.000946	5
	56	83	2.504006	119275.4	-243301.2	1	270965.1	-63.88417	2.728917E-010	0.0009653	5
	57	86	1.998082	139036.2	-286345.3	1	318315.4	-64.10091	3.565289E-010	0.0009572	5
	58	89	1.584686	164555.4	-339293.8	1	377092.5	-64.1269	7.707629E-011	0.0009018	5
	59	93	1.266892	191891.2	-398506.6	1	442300.5	-64.28799	2.797134E-010	0.0009602	5
	60	97	0.999041	227975.8	-473931.7	1	525912.8	-64.31101	-1.212793E-010	0.0009343	5
