EXPLAIN
TAG	EISPOT
TITLE	LABEL	Potentiostatic EIS	Test &Identifier
DATE	LABEL	8/14/2018	Date
TIME	LABEL	4:51:07	Time
NOTES	NOTES	1	&Notes...
	
PSTAT	PSTAT	REF600-11020	Potentiostat
VDC	POTEN	0.00000E+000	T	DC &Voltage (V)
FREQINIT	QUANT	1.00000E+006	Initial Fre&q. (Hz)
FREQFINAL	QUANT	1.00000E+000	Final Fre&q. (Hz)
PTSPERDEC	QUANT	1.00000E+001	Points/&decade
VAC	QUANT	2.50000E+001	AC &Voltage (mV rms)
AREA	QUANT	1.00000E-002	&Area (cm^2)
CONDIT	TWOPARAM	T	5.00000E+000	0.00000E+000	Conditionin&g	Time(s)	E(V)
DELAY	TWOPARAM	T	5.00000E+000	0.00000E+000	Init. De&lay	Time(s)	Stab.(mV/s)
SPEED	SELECTOR	0	&Optimize for:
ZGUESS	QUANT	1.00000E+005	E&stimated Z (ohms)
OCVCURVE	TABLE	19
	Pt	T	Vf	Vm	Ach	Over
	#	s	V vs. Ref.	V	V	bits
	0	0.258333	4.06582E-003	4.06582E-003	5.67399E-004	...........
	1	0.516667	4.06735E-003	4.14626E-003	5.71499E-004	...........
	2	0.775	4.07371E-003	4.06145E-003	5.64866E-004	...........
	3	1.03333	4.08175E-003	3.99430E-003	5.69166E-004	...........
	4	1.29167	4.07591E-003	3.84584E-003	5.68666E-004	...........
	5	1.55	4.03390E-003	3.48478E-003	5.68632E-004	...........
	6	1.80833	3.93508E-003	3.35599E-003	5.69966E-004	...........
	7	2.06667	3.77910E-003	3.32806E-003	5.64732E-004	...........
	8	2.325	3.60113E-003	3.22950E-003	5.64732E-004	...........
	9	2.58333	3.44724E-003	3.25417E-003	5.67766E-004	...........
	10	2.84167	3.34032E-003	3.24295E-003	5.66532E-004	...........
	11	3.1	3.27898E-003	3.23365E-003	5.69666E-004	...........
	12	3.35833	3.24988E-003	3.21023E-003	5.63232E-004	...........
	13	3.61667	3.23605E-003	3.18890E-003	5.62432E-004	...........
	14	3.875	3.22436E-003	3.16582E-003	5.63666E-004	...........
	15	4.13333	3.20888E-003	3.13414E-003	5.58499E-004	...........
	16	4.39167	3.18863E-003	3.10945E-003	5.61999E-004	...........
	17	4.65	3.16472E-003	3.08755E-003	5.61532E-004	...........
	18	4.90833	3.13901E-003	3.05681E-003	5.64899E-004	...........
EOC	QUANT	0.003139	Open Circuit (V)
PSTATMODEL	IQUANT	4	Pstat Model
PSTATSECTION	LABEL	REF600-11020	Pstat Section
PSTATSERIALNO	LABEL	11020	Pstat Serial Number
CTRLMODE	IQUANT	1	Control Mode
IESTAB	IQUANT	0	I/E Stability
CASPEED	IQUANT	1	Control Amp Speed
CONVENTION	IQUANT	1	Current Convention
ICHRANGE	IQUANT	2	Ich Range
ICHRANGEMODE	TOGGLE	F	Ich Auto Range
ICHOFFSETENABLE	TOGGLE	T	Ich Offset Enable
ICHOFFSET	QUANT	0	Ich Offset (V)
ICHFILTER	IQUANT	3	Ich Filter
VCHRANGE	IQUANT	2	Vch Range
VCHRANGEMODE	TOGGLE	F	Vch Auto Range
VCHOFFSETENABLE	TOGGLE	T	Vch Offset Enable
VCHOFFSET	QUANT	0	Vch Offset (V)
VCHFILTER	IQUANT	3	Vch Filter
ACHRANGE	IQUANT	2	Ach Range
ACHOFFSETENABLE	TOGGLE	F	Ach Offset Enable
ACHOFFSET	QUANT	0	Ach Offset (V)
ACHFILTER	IQUANT	3	Ach Filter
IERANGELOWERLIMIT	IQUANT	1	I/E Range Lower Limit
IERANGEMODE	TOGGLE	F	I/E AutoRange
IERANGE	IQUANT	4	I/E Range
POSFEEDENABLE	TOGGLE	F	Positive Feedback IR Comp
POSFEEDRESISTANCE	QUANT	0	Positive Feedback Resistance (ohm)
ACHSELECT	IQUANT	0	Ach Select
CABLEID	IQUANT	14	Cable ID
DCCALDATE	LABEL	8/19/2019	DC Calibration Date
ACCALDATE	LABEL	8/19/2019	AC Calibration Date
THERMOSELECT	IQUANT	1	Thermo Select
FRAMEWORKVERSION	QUANT	6.33	Framework Version
INSTRUMENTVERSION	LABEL	3.50	Instrument Version
ZCURVE	TABLE
	Pt	Time	Freq	Zreal	Zimag	Zsig	Zmod	Zphz	Idc	Vdc	IERange
	#	s	Hz	ohm	ohm	V	ohm	°	A	V	#
	0	1	1000078	1777.705	-582.5942	1	1870.735	-18.14514	-5.477552E-006	0.0063818	8
	1	1	794390.6	1850.459	-504.9886	1	1918.127	-15.26428	-1.898081E-006	0.0060984	8
	2	2	630984.4	1910.773	-440.2275	1	1960.829	-12.97412	-1.536149E-007	0.0052126	8
	3	2	501234.4	1960.834	-378.9424	1	1997.114	-10.9379	-2.510682E-006	0.0053318	8
	4	2	398109.4	1990.639	-326.0265	1	2017.161	-9.301313	-2.711024E-006	0.0054696	8
	5	3	316265.6	2019.533	-293.0877	1	2040.69	-8.257483	-2.771828E-006	0.0054413	8
	6	3	251203.1	2044.967	-263.9475	1	2061.93	-7.354608	-2.214286E-006	0.0052141	8
	7	3	199546.9	2060.72	-241.9041	1	2074.87	-6.695204	-3.497364E-007	0.0049654	8
	8	3	158578.1	2085.18	-236.0181	1	2098.495	-6.457731	-2.788984E-006	0.0055057	8
	9	4	125953.1	2112.405	-180.0424	1	2120.064	-4.871604	-9.819831E-007	0.007095	7
	10	4	100078.1	2123.871	-181.7731	1	2131.635	-4.891783	3.342526E-008	0.004684	7
	11	4	79453.13	2141.835	-191.2263	1	2150.355	-5.101926	-3.663582E-008	0.0048614	7
	12	5	63140.62	2160.15	-207.4862	1	2170.092	-5.486528	-3.401989E-008	0.004813	7
	13	5	50203.12	2181.151	-226.6937	1	2192.9	-5.933621	5.740979E-008	0.0046672	7
	14	5	39890.62	2204.376	-249.4841	1	2218.449	-6.457074	-5.234568E-008	0.0048737	7
	15	6	31640.63	2229.559	-277.4628	1	2246.758	-7.093839	-1.754411E-008	0.0048325	7
	16	6	25171.88	2256.697	-309.9755	1	2277.886	-7.821094	5.805839E-008	0.0046677	7
	17	6	20015.62	2289.698	-347.0415	1	2315.848	-8.618526	6.572352E-008	0.0046725	7
	18	7	15890.62	2317.79	-395.422	1	2351.278	-9.68162	5.408131E-008	0.0047701	7
	19	7	12609.37	2352.37	-452.5201	1	2395.5	-10.88885	-3.780464E-008	0.004814	7
	20	7	10078.13	2386.455	-517.786	1	2441.98	-12.24165	-1.586564E-008	0.0048283	7
	21	8	8015.625	2425.555	-600.306	1	2498.737	-13.90093	-3.570115E-008	0.0048174	7
	22	8	6328.125	2467.989	-702.8623	1	2566.122	-15.89651	-1.654537E-008	0.0048423	7
	23	8	5015.625	2514.28	-827.2166	1	2646.864	-18.21159	5.859458E-008	0.0046607	7
	24	9	3984.375	2566.015	-978.366	1	2746.203	-20.87076	-3.980622E-008	0.004826	7
	25	9	3170.956	2619.583	-1163.978	1	2866.541	-23.95736	-1.740943E-008	0.0048404	7
	26	9	2527.573	2679.839	-1387.292	1	3017.634	-27.36959	6.521752E-008	0.0046657	7
	27	10	1976.103	2755.334	-1689.337	1	3231.985	-31.51309	-3.702144E-008	0.0048035	7
	28	10	1577.524	2810.515	-2039.365	1	3472.464	-35.96538	5.499267E-008	0.004774	7
	29	10	1265.625	2915.446	-2444.49	1	3804.65	-39.97855	-3.946398E-008	0.004868	7
	30	10	998.264	3022.498	-2987.13	1	4249.522	-44.66281	-3.737568E-008	0.0048062	7
	31	11	796.875	3145.663	-3628.422	1	4802.15	-49.07632	-5.227042E-008	0.0048504	7
	32	11	627.7902	3308.002	-4473.267	1	5563.542	-53.5169	-4.968985E-008	0.00485	7
	33	11	505.5147	3489.759	-5417.101	1	6443.865	-57.2099	-1.43465E-008	0.0048208	7
	34	12	397.9953	3743.323	-6695.28	1	7670.674	-60.7905	-1.98392E-009	0.0048092	7
	35	12	315.5048	4063.756	-8228.977	1	9177.699	-63.71823	-1.86407E-009	0.0048119	7
	36	12	252.4038	4469.59	-10030.91	1	10981.64	-65.98312	-6.517087E-011	0.0047483	6
	37	13	198.6229	5031.555	-12395.97	1	13378.21	-67.90765	2.950793E-010	0.0047491	6
	38	13	158.3615	5731.605	-15123.78	1	16173.44	-69.24431	-8.325679E-010	0.0047478	6
	39	13	125.558	6674.991	-18521.91	1	19687.98	-70.18167	2.004857E-010	0.004747	6
	40	14	100.4464	7858.582	-22465.84	1	23800.66	-70.72009	1.175252E-009	0.0047474	6
	41	14	79.00281	9537.21	-27593.1	1	29194.82	-70.93292	-1.094852E-009	0.0047422	6
	42	14	63.3446	11210.48	-32976.79	1	34830.21	-71.22451	-6.828171E-010	0.0047457	6
	43	15	49.86702	14281.67	-40102.48	1	42569.64	-70.39769	-5.523328E-010	0.0047451	6
	44	15	39.72458	17985.35	-48299.62	1	51539.56	-69.57616	5.093215E-010	0.0047468	6
	45	15	31.6723	22399.89	-57595.67	1	61798.19	-68.74814	-2.642405E-010	0.0047426	6
	46	16	24.93351	28717.06	-68898.28	1	74643.44	-67.37344	-1.29767E-009	0.0047438	6
	47	16	19.86229	36264.22	-81078.63	1	88819.13	-65.90235	-1.119303E-009	0.0047518	6
	48	16	15.83615	45440.39	-95203.6	1	105492	-64.48501	-1.122597E-009	0.004747	5
	49	17	12.40079	56660.35	-111108.3	1	124721.5	-62.98042	1.513176E-009	0.0047526	5
	50	17	9.93114	69738.85	-128343.1	1	146066.6	-61.4813	-2.640904E-011	0.0047526	5
	51	17	7.944915	84596.52	-146435.8	1	169115.4	-59.98482	-3.386993E-010	0.0047531	5
	52	18	6.317385	101687.7	-166723.1	1	195286.9	-58.62018	1.933164E-010	0.0047381	5
	53	19	5.008013	121259.8	-189928.8	1	225337.3	-57.44387	2.370957E-010	0.0047472	5
	54	20	3.945707	143164.8	-216704.7	1	259725	-56.54946	2.090581E-010	0.0047505	5
	55	21	3.158693	166071.9	-245165.6	1	296118.3	-55.88682	-3.322957E-011	0.004744	5
	56	23	2.504006	191618.5	-279665.8	1	339014.2	-55.58224	-2.884145E-013	0.0047379	5
	57	24	1.998082	219473.4	-318455.1	1	386758.6	-55.42611	3.117587E-010	0.0047801	5
	58	26	1.584686	250049.2	-365473.6	1	442826.8	-55.6209	1.15155E-010	0.0047582	5
	59	28	1.266892	284019.5	-418405	1	505697.4	-55.83076	4.426405E-011	0.0047259	5
	60	30	0.999041	325618.4	-485481	1	584567.5	-56.14973	1.894869E-012	0.0047045	5
