EXPLAIN
TAG	EISPOT
TITLE	LABEL	Potentiostatic EIS	Test &Identifier
DATE	LABEL	11/27/2019	Date
TIME	LABEL	12:17:52	Time
NOTES	NOTES	3	&Notes...
	
	
	
PSTAT	PSTAT	REF600-11020	Potentiostat
VDC	POTEN	0.00000E+000	T	DC &Voltage (V)
FREQINIT	QUANT	1.00000E+006	Initial Fre&q. (Hz)
FREQFINAL	QUANT	1.00000E+000	Final Fre&q. (Hz)
PTSPERDEC	QUANT	1.00000E+001	Points/&decade
VAC	QUANT	2.50000E+001	AC &Voltage (mV rms)
AREA	QUANT	1.00000E-002	&Area (cm^2)
CONDIT	TWOPARAM	T	5.00000E+000	0.00000E+000	Conditionin&g	Time(s)	E(V)
DELAY	TWOPARAM	T	5.00000E+000	0.00000E+000	Init. De&lay	Time(s)	Stab.(mV/s)
SPEED	SELECTOR	0	&Optimize for:
ZGUESS	QUANT	1.00000E+005	E&stimated Z (ohms)
OCVCURVE	TABLE	19
	Pt	T	Vf	Vm	Ach	Over
	#	s	V vs. Ref.	V	V	bits
	0	0.258333	1.09372E-003	1.09372E-003	5.28533E-004	...........
	1	0.516667	1.08610E-003	6.94534E-004	5.23633E-004	...........
	2	0.775	1.03854E-003	2.77769E-004	5.21300E-004	...........
	3	1.03333	8.95070E-004	-4.61543E-004	5.30466E-004	...........
	4	1.29167	6.03966E-004	-1.24527E-003	5.22266E-004	...........
	5	1.55	1.57506E-004	-1.28169E-003	5.17300E-004	...........
	6	1.80833	-3.66179E-004	-1.28404E-003	5.32066E-004	...........
	7	2.06667	-8.33107E-004	-1.66937E-003	5.29766E-004	...........
	8	2.325	-1.16672E-003	-1.60574E-003	5.29899E-004	...........
	9	2.58333	-1.38680E-003	-1.82342E-003	5.27033E-004	...........
	10	2.84167	-1.54489E-003	-2.00769E-003	5.28966E-004	...........
	11	3.1	-1.68419E-003	-2.22707E-003	5.33166E-004	...........
	12	3.35833	-1.83572E-003	-2.42294E-003	5.28666E-004	...........
	13	3.61667	-2.01106E-003	-2.63986E-003	5.29499E-004	...........
	14	3.875	-2.20502E-003	-2.81489E-003	5.36333E-004	...........
	15	4.13333	-2.40944E-003	-3.15599E-003	5.32533E-004	...........
	16	4.39167	-2.62977E-003	-3.63226E-003	5.29200E-004	...........
	17	4.65	-2.88989E-003	-4.02039E-003	5.27833E-004	...........
	18	4.90833	-3.20715E-003	-4.30292E-003	5.30333E-004	...........
EOC	QUANT	-0.0032071	Open Circuit (V)
PSTATMODEL	IQUANT	4	Pstat Model
PSTATSECTION	LABEL	REF600-11020	Pstat Section
PSTATSERIALNO	LABEL	11020	Pstat Serial Number
CTRLMODE	IQUANT	1	Control Mode
IESTAB	IQUANT	0	I/E Stability
CASPEED	IQUANT	1	Control Amp Speed
CONVENTION	IQUANT	1	Current Convention
ICHRANGE	IQUANT	2	Ich Range
ICHRANGEMODE	TOGGLE	F	Ich Auto Range
ICHOFFSETENABLE	TOGGLE	T	Ich Offset Enable
ICHOFFSET	QUANT	0	Ich Offset (V)
ICHFILTER	IQUANT	3	Ich Filter
VCHRANGE	IQUANT	2	Vch Range
VCHRANGEMODE	TOGGLE	F	Vch Auto Range
VCHOFFSETENABLE	TOGGLE	T	Vch Offset Enable
VCHOFFSET	QUANT	0	Vch Offset (V)
VCHFILTER	IQUANT	3	Vch Filter
ACHRANGE	IQUANT	2	Ach Range
ACHOFFSETENABLE	TOGGLE	F	Ach Offset Enable
ACHOFFSET	QUANT	0	Ach Offset (V)
ACHFILTER	IQUANT	3	Ach Filter
IERANGELOWERLIMIT	IQUANT	1	I/E Range Lower Limit
IERANGEMODE	TOGGLE	F	I/E AutoRange
IERANGE	IQUANT	4	I/E Range
POSFEEDENABLE	TOGGLE	F	Positive Feedback IR Comp
POSFEEDRESISTANCE	QUANT	0	Positive Feedback Resistance (ohm)
ACHSELECT	IQUANT	0	Ach Select
CABLEID	IQUANT	14	Cable ID
DCCALDATE	LABEL	8/19/2019	DC Calibration Date
ACCALDATE	LABEL	8/19/2019	AC Calibration Date
THERMOSELECT	IQUANT	1	Thermo Select
FRAMEWORKVERSION	QUANT	6.33	Framework Version
INSTRUMENTVERSION	LABEL	3.50	Instrument Version
ZCURVE	TABLE
	Pt	Time	Freq	Zreal	Zimag	Zsig	Zmod	Zphz	Idc	Vdc	IERange
	#	s	Hz	ohm	ohm	V	ohm	°	A	V	#
	0	1	1000078	1783.18	-1723.268	1	2479.795	-44.02113	1.57981E-007	-0.0015157	8
	1	2	794390.6	2101.874	-1836.358	1	2791.072	-41.14294	-9.296868E-008	-0.0017571	8
	2	2	630984.4	2444.947	-1911.523	1	3103.495	-38.01922	-1.451464E-006	-0.0011006	8
	3	2	501234.4	2813.417	-1936.683	1	3415.562	-34.54251	-6.405469E-007	-0.001181	8
	4	2	398109.4	3192.14	-1948.153	1	3739.66	-31.39559	-3.349978E-006	-0.0011478	8
	5	3	316265.6	3551.581	-1886.783	1	4021.651	-27.97955	8.719517E-007	-0.0013481	8
	6	3	251203.1	3902.821	-1778.265	1	4288.851	-24.49571	-1.947554E-006	-0.0015628	8
	7	3	199546.9	4219.625	-1622.381	1	4520.769	-21.03098	-6.83119E-007	-0.00132	8
	8	4	158578.1	4481.517	-1476.085	1	4718.35	-18.23042	5.24653E-006	-0.0027114	8
	9	4	125953.1	4732.556	-1244.008	1	4893.326	-14.72769	1.361768E-006	-0.0066949	7
	10	4	100078.1	4874.177	-1070.142	1	4990.271	-12.38301	4.158825E-007	-0.0032961	7
	11	5	79453.13	5015.48	-938.8965	1	5102.604	-10.60303	9.709144E-007	-0.0024622	7
	12	5	63140.62	5110.69	-813.6514	1	5175.054	-9.045901	8.018054E-007	-0.0019981	7
	13	5	50203.12	5175.239	-699.0748	1	5222.241	-7.692988	5.836116E-007	-0.0015786	7
	14	6	39890.62	5203.423	-616.0908	1	5239.77	-6.752444	-1.030399E-006	-0.0002035	7
	15	6	31640.63	5240.845	-536.0612	1	5268.189	-5.840202	-1.151687E-006	-0.0006991	7
	16	6	25171.88	5298.533	-494.2327	1	5321.534	-5.328975	8.133997E-008	-0.0008541	7
	17	7	20015.62	5305.572	-450.8506	1	5324.694	-4.857143	-1.024878E-006	-0.0002097	7
	18	7	15890.62	5333.984	-439.6173	1	5352.07	-4.711565	-7.164265E-007	-0.0018545	7
	19	7	12609.37	5364.358	-447.0861	1	5382.957	-4.764238	8.575934E-008	-0.0008584	7
	20	8	10078.13	5378.676	-461.2532	1	5398.417	-4.90146	7.360144E-008	-0.0030123	7
	21	8	8015.625	5401.748	-508.8251	1	5425.66	-5.381176	7.107711E-007	-0.0034265	7
	22	8	6328.125	5431.327	-570.6631	1	5461.224	-5.997993	8.027101E-007	-0.002004	7
	23	9	5015.625	5464.931	-646.5694	1	5503.046	-6.747438	9.722223E-007	-0.0024662	7
	24	9	3984.375	5461.758	-755.6766	1	5513.787	-7.877305	-1.016694E-006	-0.000226	7
	25	9	3170.956	5502.204	-892.7286	1	5574.155	-9.21589	-8.334003E-007	-0.0001692	7
	26	9	2527.573	5554.593	-1084.908	1	5659.552	-11.05172	1.025778E-006	-0.0031665	7
	27	10	1976.103	5572.624	-1313.16	1	5725.253	-13.25956	-1.002584E-006	-0.0012384	7
	28	10	1577.524	5643.957	-1638.864	1	5877.084	-16.19198	5.964492E-007	-0.0015924	7
	29	10	1265.625	5715.27	-1945.288	1	6037.256	-18.79687	5.956944E-007	-0.001594	7
	30	11	998.264	5800.744	-2389.626	1	6273.67	-22.3893	8.007055E-007	-0.0020067	7
	31	11	796.875	5888.233	-2899.681	1	6563.493	-26.2181	4.246836E-007	-0.0033243	7
	32	12	627.7902	6028.6	-3579.618	1	7011.254	-30.70069	4.279225E-007	-0.0033165	7
	33	12	505.5147	6200.178	-4356.089	1	7577.448	-35.09092	1.024186E-006	-0.0031832	7
	34	12	397.9953	6419.996	-5346.563	1	8354.765	-39.78749	1.704937E-009	-0.0017379	7
	35	13	315.5048	6721.697	-6554.686	1	9388.563	-44.27928	-1.266486E-009	-0.0017413	7
	36	13	252.4038	7097.558	-7961.439	1	10665.83	-48.28326	2.439441E-009	-0.0018027	6
	37	13	198.6229	7634.957	-9791.8	1	12416.6	-52.0554	1.090954E-010	-0.0018027	6
	38	14	158.3615	8292.763	-11877.03	1	14485.64	-55.07653	4.638056E-010	-0.0018071	6
	39	14	125.558	9184.756	-14428.65	1	17103.96	-57.52064	1.348731E-009	-0.0018019	6
	40	14	100.4464	10313.16	-17360.46	1	20192.74	-59.28715	1.278179E-009	-0.0018103	6
	41	15	79.00281	11846.6	-21085.27	1	24185.34	-60.67088	-1.803902E-010	-0.00181	6
	42	15	63.3446	13619.02	-24748.08	1	28247.92	-61.17574	-5.246788E-010	-0.0018093	6
	43	15	49.86702	16179.37	-29757.67	1	33871.68	-61.46689	1.450261E-009	-0.0018046	6
	44	16	39.72458	18989.65	-35290.99	1	40075.69	-61.71584	1.079122E-009	-0.0017952	6
	45	16	31.6723	22441.8	-41524.79	1	47201.09	-61.61128	1.579521E-009	-0.0017975	6
	46	16	24.93351	26778.93	-48668.79	1	55549.64	-61.17918	1.03302E-009	-0.0018083	6
	47	17	19.86229	31344.95	-56457.66	1	64575.33	-60.96124	2.594159E-009	-0.0018024	6
	48	17	15.83615	36001.32	-65817.29	1	75020.07	-61.32183	9.284581E-010	-0.0017978	6
	49	17	12.40079	42185.19	-77548.99	1	88280.45	-61.45464	2.751177E-010	-0.0018055	6
	50	18	9.93114	49115.09	-89784.53	1	102340.4	-61.31989	-3.270594E-010	-0.0017947	5
	51	18	7.944915	56200.64	-104836.7	1	118950.6	-61.80523	4.875553E-010	-0.0017988	5
	52	19	6.317385	64330.53	-122877.7	1	138698.7	-62.36645	1.472125E-010	-0.001799	5
	53	20	5.008013	74240.06	-145266	1	163137.3	-62.93011	7.535072E-010	-0.0018123	5
	54	21	3.945707	85573.35	-173515.5	1	193469.4	-63.74867	-1.391755E-010	-0.0017956	5
	55	22	3.158693	100212.4	-203660.1	1	226980.1	-63.80017	7.618524E-010	-0.0017794	5
	56	24	2.504006	116538.4	-241661	1	268293.3	-64.25481	1.003487E-010	-0.0018036	5
	57	25	1.998082	136066.8	-284591.2	1	315446.3	-64.44692	4.309099E-010	-0.0017787	5
	58	26	1.584686	160081.5	-337762.3	1	373777.3	-64.64153	4.422468E-010	-0.0017624	5
	59	28	1.266892	186536.4	-397041.4	1	438677.3	-64.83511	2.774202E-010	-0.0017922	5
	60	31	0.999041	222205.3	-471231.3	1	520993.4	-64.75416	3.330513E-010	-0.0018154	5
