EXPLAIN
TAG	EISPOT
TITLE	LABEL	Potentiostatic EIS	Test &Identifier
DATE	LABEL	11/27/2019	Date
TIME	LABEL	12:33:05	Time
NOTES	NOTES	3	&Notes...
	
	
	
PSTAT	PSTAT	REF600-11020	Potentiostat
VDC	POTEN	0.00000E+000	T	DC &Voltage (V)
FREQINIT	QUANT	1.00000E+006	Initial Fre&q. (Hz)
FREQFINAL	QUANT	1.00000E+000	Final Fre&q. (Hz)
PTSPERDEC	QUANT	1.00000E+001	Points/&decade
VAC	QUANT	2.50000E+001	AC &Voltage (mV rms)
AREA	QUANT	1.00000E-002	&Area (cm^2)
CONDIT	TWOPARAM	T	5.00000E+000	0.00000E+000	Conditionin&g	Time(s)	E(V)
DELAY	TWOPARAM	T	5.00000E+000	0.00000E+000	Init. De&lay	Time(s)	Stab.(mV/s)
SPEED	SELECTOR	0	&Optimize for:
ZGUESS	QUANT	1.00000E+005	E&stimated Z (ohms)
OCVCURVE	TABLE	19
	Pt	T	Vf	Vm	Ach	Over
	#	s	V vs. Ref.	V	V	bits
	0	0.258333	2.30685E-003	2.30685E-003	5.57599E-004	...........
	1	0.516667	2.30191E-003	2.04790E-003	5.54699E-004	...........
	2	0.775	2.27432E-003	1.94835E-003	5.54066E-004	...........
	3	1.03333	2.20560E-003	1.85652E-003	5.54499E-004	...........
	4	1.29167	2.10470E-003	1.96687E-003	5.49733E-004	...........
	5	1.55	2.00889E-003	1.91612E-003	5.49266E-004	...........
	6	1.80833	1.94697E-003	1.81824E-003	5.55899E-004	...........
	7	2.06667	1.91195E-003	1.77668E-003	5.45333E-004	...........
	8	2.325	1.87993E-003	1.78839E-003	5.47599E-004	...........
	9	2.58333	1.84165E-003	1.69423E-003	5.51499E-004	...........
	10	2.84167	1.80108E-003	1.68907E-003	5.46199E-004	...........
	11	3.1	1.76174E-003	1.68957E-003	5.51299E-004	...........
	12	3.35833	1.72960E-003	1.78812E-003	5.45866E-004	...........
	13	3.61667	1.71836E-003	1.90961E-003	5.44933E-004	...........
	14	3.875	1.73901E-003	1.83742E-003	5.46899E-004	...........
	15	4.13333	1.78462E-003	1.96922E-003	5.45266E-004	...........
	16	4.39167	1.83408E-003	1.80656E-003	5.44899E-004	...........
	17	4.65	1.86678E-003	1.81363E-003	5.49633E-004	...........
	18	4.90833	1.87116E-003	1.78616E-003	5.47299E-004	...........
EOC	QUANT	0.0018712	Open Circuit (V)
PSTATMODEL	IQUANT	4	Pstat Model
PSTATSECTION	LABEL	REF600-11020	Pstat Section
PSTATSERIALNO	LABEL	11020	Pstat Serial Number
CTRLMODE	IQUANT	1	Control Mode
IESTAB	IQUANT	0	I/E Stability
CASPEED	IQUANT	1	Control Amp Speed
CONVENTION	IQUANT	1	Current Convention
ICHRANGE	IQUANT	2	Ich Range
ICHRANGEMODE	TOGGLE	F	Ich Auto Range
ICHOFFSETENABLE	TOGGLE	T	Ich Offset Enable
ICHOFFSET	QUANT	0	Ich Offset (V)
ICHFILTER	IQUANT	3	Ich Filter
VCHRANGE	IQUANT	2	Vch Range
VCHRANGEMODE	TOGGLE	F	Vch Auto Range
VCHOFFSETENABLE	TOGGLE	T	Vch Offset Enable
VCHOFFSET	QUANT	0	Vch Offset (V)
VCHFILTER	IQUANT	3	Vch Filter
ACHRANGE	IQUANT	2	Ach Range
ACHOFFSETENABLE	TOGGLE	F	Ach Offset Enable
ACHOFFSET	QUANT	0	Ach Offset (V)
ACHFILTER	IQUANT	3	Ach Filter
IERANGELOWERLIMIT	IQUANT	1	I/E Range Lower Limit
IERANGEMODE	TOGGLE	F	I/E AutoRange
IERANGE	IQUANT	4	I/E Range
POSFEEDENABLE	TOGGLE	F	Positive Feedback IR Comp
POSFEEDRESISTANCE	QUANT	0	Positive Feedback Resistance (ohm)
ACHSELECT	IQUANT	0	Ach Select
CABLEID	IQUANT	14	Cable ID
DCCALDATE	LABEL	8/19/2019	DC Calibration Date
ACCALDATE	LABEL	8/19/2019	AC Calibration Date
THERMOSELECT	IQUANT	1	Thermo Select
FRAMEWORKVERSION	QUANT	6.33	Framework Version
INSTRUMENTVERSION	LABEL	3.50	Instrument Version
ZCURVE	TABLE
	Pt	Time	Freq	Zreal	Zimag	Zsig	Zmod	Zphz	Idc	Vdc	IERange
	#	s	Hz	ohm	ohm	V	ohm	°	A	V	#
	0	1	1000078	2075.767	-1145.076	1	2370.655	-28.88288	5.535159E-006	0.0037558	8
	1	2	794390.6	2294.477	-1044.808	1	2521.16	-24.48252	-1.086318E-006	0.0040114	8
	2	2	630984.4	2461.598	-936.85	1	2633.847	-20.83613	-3.641782E-006	0.0040545	8
	3	2	501234.4	2596.018	-825.5654	1	2724.126	-17.6413	-8.420146E-007	0.0037853	8
	4	3	398109.4	2691.44	-710.6227	1	2783.672	-14.79032	7.957381E-007	0.0036879	8
	5	3	316265.6	2774.62	-628.9907	1	2845.021	-12.77275	-2.734058E-007	0.0030643	8
	6	3	251203.1	2832.312	-540.2593	1	2883.378	-10.79936	5.313172E-006	0.0026502	8
	7	4	199546.9	2874.077	-480.0465	1	2913.891	-9.48237	-8.174359E-007	0.0036943	8
	8	4	158578.1	2914.048	-430.7325	1	2945.71	-8.408146	1.590211E-006	0.0035756	8
	9	4	125953.1	2971.878	-366.7931	1	2994.427	-7.035939	-1.287856E-006	0.0066228	7
	10	5	100078.1	2992.88	-334.3859	1	3011.502	-6.375056	6.533883E-007	0.0017889	7
	11	5	79453.13	3016.538	-328.3003	1	3034.35	-6.211253	-9.314731E-007	0.0046507	7
	12	5	63140.62	3046.441	-329.1721	1	3064.173	-6.166961	9.30562E-007	0.0023192	7
	13	5	50203.12	3073.294	-335.1695	1	3091.517	-6.224006	-9.351923E-007	0.0046517	7
	14	6	39890.62	3101.779	-350.9478	1	3121.57	-6.455223	4.115584E-007	0.0018648	7
	15	6	31640.63	3135.502	-374.901	1	3157.835	-6.818286	-2.472579E-007	0.0044232	7
	16	6	25171.88	3170.589	-409.4721	1	3196.921	-7.358847	6.61355E-007	0.0017717	7
	17	7	20015.62	3209.497	-451.955	1	3241.163	-8.015574	-9.292696E-007	0.0046364	7
	18	7	15890.62	3255.448	-503.1308	1	3294.098	-8.785576	9.054913E-007	0.002055	7
	19	7	12609.37	3302.757	-566.7162	1	3351.025	-9.7365	5.087076E-007	0.0034395	7
	20	8	10078.13	3364.15	-632.7242	1	3423.134	-10.65167	9.180368E-007	0.0023232	7
	21	8	8015.625	3420.866	-724.7498	1	3496.797	-11.96189	8.528498E-007	0.0026694	7
	22	8	6328.125	3489.186	-832.696	1	3587.172	-13.4226	9.068806E-007	0.0020408	7
	23	9	5015.625	3572.432	-955.944	1	3698.122	-14.98075	6.999821E-007	0.0030833	7
	24	9	3984.375	3653.31	-1104.066	1	3816.495	-16.81532	8.212049E-007	0.0018576	7
	25	9	3170.956	3749.705	-1276.251	1	3960.947	-18.79654	8.234021E-007	0.0018529	7
	26	10	2527.573	3853.795	-1472.301	1	4125.458	-20.90882	6.228269E-008	0.0040615	7
	27	10	1976.103	3972.843	-1734.71	1	4335.055	-23.58811	3.343651E-007	0.0036952	7
	28	10	1577.524	4092.214	-2012.19	1	4560.167	-26.18389	-9.230078E-007	0.0046178	7
	29	11	1265.625	4222.73	-2344.677	1	4830.007	-29.04129	8.188514E-007	0.0018423	7
	30	11	998.264	4381.944	-2784.826	1	5191.983	-32.43689	-2.472637E-007	0.0025227	7
	31	11	796.875	4537.105	-3303.325	1	5612.244	-36.0572	-8.817944E-007	0.0036835	7
	32	12	627.7902	4709.714	-3965.51	1	6156.84	-40.09689	1.084046E-007	0.0020888	7
	33	12	505.5147	4895.673	-4719.78	1	6800.29	-43.95202	6.514739E-007	0.0017669	7
	34	12	397.9953	5128.615	-5719.494	1	7682.142	-48.11773	2.332122E-009	0.0032793	7
	35	13	315.5048	5390.554	-6945.876	1	8792.229	-52.18568	1.549063E-009	0.0032801	7
	36	13	252.4038	5691.975	-8404.023	1	10150.18	-55.89054	1.186345E-009	0.0032157	6
	37	13	198.6229	6091.167	-10340.16	1	12000.88	-59.49857	1.086164E-009	0.0032154	6
	38	14	158.3615	6560.159	-12600.79	1	14206.19	-62.49785	1.496747E-009	0.0032109	6
	39	14	125.558	7175.279	-15451.77	1	17036.49	-65.09144	5.705093E-010	0.0032208	6
	40	14	100.4464	7946.432	-18784.82	1	20396.45	-67.07047	1.050406E-010	0.0032086	6
	41	15	79.00281	9075.785	-23200.54	1	24912.55	-68.63514	-1.710176E-010	0.0032102	6
	42	15	63.3446	10231.33	-28438.28	1	30222.77	-70.21262	7.170405E-010	0.003215	6
	43	15	49.86702	12116.43	-34859.43	1	36905.12	-70.8336	-1.204373E-009	0.0032085	6
	44	16	39.72458	14710.88	-42154.35	1	44647.5	-70.76221	5.663613E-010	0.0032103	6
	45	16	31.6723	17890.83	-50903.36	1	53955.85	-70.63513	2.550207E-010	0.0032098	6
	46	16	24.93351	22241.65	-62135.57	1	65996.36	-70.30499	-4.146611E-010	0.0032144	6
	47	17	19.86229	27754.84	-74627.68	1	79621.74	-69.59929	1.36637E-010	0.0032064	6
	48	17	15.83615	35231.99	-88947.88	1	95671.4	-68.39163	-4.005792E-010	0.0032145	6
	49	17	12.40079	45165.22	-107125.1	1	116257	-67.13914	6.243926E-010	0.0032138	5
	50	18	9.93114	56100.81	-125101.1	1	137104.3	-65.84644	-1.218816E-010	0.0032147	5
	51	18	7.944915	69455.15	-145528.4	1	161253	-64.48664	-1.014693E-009	0.00322	5
	52	19	6.317385	86430.09	-168859.1	1	189693.3	-62.89449	-5.542339E-010	0.0032327	5
	53	20	5.008013	106290.8	-195062.2	1	222141.9	-61.41372	-1.510695E-010	0.0032125	5
	54	21	3.945707	129905.3	-224389.5	1	259279.8	-59.93226	1.429516E-010	0.0032133	5
	55	22	3.158693	153765.8	-255275.8	1	298009.5	-58.93728	3.319938E-010	0.0032235	5
	56	24	2.504006	181720.9	-291100.4	1	343164.6	-58.02532	6.253504E-011	0.0032217	5
	57	25	1.998082	210349.3	-330904.1	1	392102.4	-57.55667	7.648152E-011	0.0032063	5
	58	27	1.584686	243809.2	-378353.5	1	450104.7	-57.20246	2.67297E-010	0.0032581	5
	59	29	1.266892	278201.6	-433726.6	1	515281.3	-57.32301	2.862625E-010	0.0032458	5
	60	31	0.999041	317912.4	-502684.6	1	594777.3	-57.68954	2.752135E-010	0.0032282	5
