EXPLAIN
TAG	EISPOT
TITLE	LABEL	Potentiostatic IDE	Test &Identifier
DATE	LABEL	9/8/2019	Date
TIME	LABEL	7:43:22	Time
NOTES	NOTES	1	&Notes...
	
PSTAT	PSTAT	REF600-11020	Potentiostat
VDC	POTEN	0.00000E+000	T	DC &Voltage (V)
FREQINIT	QUANT	1.00000E+006	Initial Fre&q. (Hz)
FREQFINAL	QUANT	1.00000E+000	Final Fre&q. (Hz)
PTSPERDEC	QUANT	1.00000E+001	Points/&decade
VAC	QUANT	2.50000E+001	AC &Voltage (mV rms)
AREA	QUANT	1.00000E-002	&Area (cm^2)
CONDIT	TWOPARAM	T	5.00000E+000	0.00000E+000	Conditionin&g	Time(s)	E(V)
DELAY	TWOPARAM	T	5.00000E+000	0.00000E+000	Init. De&lay	Time(s)	Stab.(mV/s)
SPEED	SELECTOR	1	&Optimize for:
ZGUESS	QUANT	1.00000E+007	E&stimated Z (ohms)
OCVCURVE	TABLE	19
	Pt	T	Vf	Vm	Ach	Over
	#	s	V vs. Ref.	V	V	bits
	0	0.258333	2.65538E-003	2.65538E-003	5.77499E-004	...........
	1	0.516667	2.65514E-003	2.64298E-003	5.74799E-004	...........
	2	0.775	2.65395E-003	2.64527E-003	5.76899E-004	...........
	3	1.03333	2.65145E-003	2.64537E-003	5.77866E-004	...........
	4	1.29167	2.64887E-003	2.66351E-003	5.74532E-004	...........
	5	1.55	2.64894E-003	2.68369E-003	5.71999E-004	...........
	6	1.80833	2.65452E-003	2.71254E-003	5.76999E-004	...........
	7	2.06667	2.66701E-003	2.73229E-003	5.77499E-004	...........
	8	2.325	2.68544E-003	2.75418E-003	5.74132E-004	...........
	9	2.58333	2.70715E-003	2.77326E-003	5.75666E-004	...........
	10	2.84167	2.72954E-003	2.79606E-003	5.72732E-004	...........
	11	3.1	2.75140E-003	2.81532E-003	5.76366E-004	...........
	12	3.35833	2.77246E-003	2.82695E-003	5.73699E-004	...........
	13	3.61667	2.79206E-003	2.83057E-003	5.74499E-004	...........
	14	3.875	2.80859E-003	2.83178E-003	5.76399E-004	...........
	15	4.13333	2.82065E-003	2.83908E-003	5.73199E-004	...........
	16	4.39167	2.82839E-003	2.83657E-003	5.73632E-004	...........
	17	4.65	2.83318E-003	2.84349E-003	5.75699E-004	...........
	18	4.90833	2.83653E-003	2.84923E-003	5.74332E-004	...........
EOC	QUANT	0.0028365	Open Circuit (V)
PSTATMODEL	IQUANT	4	Pstat Model
PSTATSECTION	LABEL	REF600-11020	Pstat Section
PSTATSERIALNO	LABEL	11020	Pstat Serial Number
CTRLMODE	IQUANT	1	Control Mode
IESTAB	IQUANT	0	I/E Stability
CASPEED	IQUANT	1	Control Amp Speed
CONVENTION	IQUANT	1	Current Convention
ICHRANGE	IQUANT	2	Ich Range
ICHRANGEMODE	TOGGLE	F	Ich Auto Range
ICHOFFSETENABLE	TOGGLE	T	Ich Offset Enable
ICHOFFSET	QUANT	0	Ich Offset (V)
ICHFILTER	IQUANT	3	Ich Filter
VCHRANGE	IQUANT	2	Vch Range
VCHRANGEMODE	TOGGLE	F	Vch Auto Range
VCHOFFSETENABLE	TOGGLE	T	Vch Offset Enable
VCHOFFSET	QUANT	0	Vch Offset (V)
VCHFILTER	IQUANT	3	Vch Filter
ACHRANGE	IQUANT	2	Ach Range
ACHOFFSETENABLE	TOGGLE	F	Ach Offset Enable
ACHOFFSET	QUANT	0	Ach Offset (V)
ACHFILTER	IQUANT	3	Ach Filter
IERANGELOWERLIMIT	IQUANT	1	I/E Range Lower Limit
IERANGEMODE	TOGGLE	F	I/E AutoRange
IERANGE	IQUANT	2	I/E Range
POSFEEDENABLE	TOGGLE	F	Positive Feedback IR Comp
POSFEEDRESISTANCE	QUANT	0	Positive Feedback Resistance (ohm)
ACHSELECT	IQUANT	0	Ach Select
CABLEID	IQUANT	14	Cable ID
DCCALDATE	LABEL	8/19/2019	DC Calibration Date
ACCALDATE	LABEL	8/19/2019	AC Calibration Date
THERMOSELECT	IQUANT	1	Thermo Select
FRAMEWORKVERSION	QUANT	6.33	Framework Version
INSTRUMENTVERSION	LABEL	3.50	Instrument Version
ZCURVE	TABLE
	Pt	Time	Freq	Zreal	Zimag	Zsig	Zmod	Zphz	Idc	Vdc	IERange
	#	s	Hz	ohm	ohm	V	ohm	°	A	V	#
	0	2	1000078	1626.265	-1802.443	1	2427.662	-47.94145	-5.36832E-006	0.0054213	8
	1	3	794390.6	1783.606	-2055.263	1	2721.279	-49.04778	3.607523E-006	0.0043558	8
	2	5	630984.4	1946.812	-2363.416	1	3061.994	-50.52076	4.20565E-007	0.0043845	8
	3	6	501234.4	2130.69	-2740.284	1	3471.167	-52.13338	-8.197374E-007	0.004742	8
	4	8	398109.4	2371.474	-3225.111	1	4003.153	-53.67239	2.094162E-006	0.0041126	8
	5	9	316265.6	2665.452	-3799.634	1	4641.32	-54.95025	-8.65648E-007	0.0047636	8
	6	10	251203.1	3088.886	-4499.944	1	5458.087	-55.53322	-9.3438E-007	0.0046675	8
	7	12	199546.9	3616.948	-5359.111	1	6465.476	-55.98397	3.031004E-006	0.00391	8
	8	13	158578.1	4370.932	-6247.236	1	7624.5	-55.02111	1.787297E-006	0.0041073	8
	9	15	125953.1	5405.707	-7207.266	1	9009.237	-53.1288	-9.218861E-007	0.0062016	7
	10	16	100078.1	6634.021	-8232.958	1	10573.17	-51.13854	-2.912447E-009	0.0043442	7
	11	18	79453.13	8222.667	-9138.307	1	12293.12	-48.01905	-3.601009E-008	0.0044124	7
	12	19	63140.62	10030.49	-9886.33	1	14083.69	-44.58531	-4.831489E-008	0.0044923	7
	13	20	50203.12	12084.21	-10308.61	1	15883.82	-40.4663	6.655374E-008	0.0043657	7
	14	22	39890.62	14169.8	-10383.66	1	17567.12	-36.23404	3.201809E-008	0.0043543	7
	15	23	31640.63	16201.17	-10141.75	1	19113.69	-32.0461	-2.039623E-008	0.0044859	7
	16	24	25171.88	18021.79	-9653.9	1	20444.63	-28.17702	-4.735521E-008	0.0044827	7
	17	26	20015.62	19598.3	-8993.104	1	21563.15	-24.64905	-1.124465E-008	0.0044258	7
	18	27	15890.62	20942.95	-8297.92	1	22526.93	-21.61423	-2.762845E-008	0.0043854	7
	19	28	12609.37	22207.55	-7459.258	1	23426.82	-18.5666	-3.808407E-009	0.0044041	6
	20	30	10078.13	23118.7	-6879.532	1	24120.58	-16.57165	-7.494814E-009	0.0044257	6
	21	31	8015.625	23934.87	-6436.846	1	24785.29	-15.05251	-4.922758E-009	0.0044533	6
	22	32	6328.125	24664.46	-6054.084	1	25396.6	-13.79105	-4.674289E-009	0.0044492	6
	23	34	5015.625	25315.31	-5769.397	1	25964.42	-12.83852	2.716497E-009	0.0041628	6
	24	35	3984.375	25960.72	-5603.766	1	26558.64	-12.18072	-2.328206E-009	0.0042949	6
	25	36	3170.956	26547.39	-5531.574	1	27117.56	-11.77009	1.499963E-008	0.0040501	6
	26	38	2527.573	27124.95	-5534.671	1	27683.84	-11.53253	-9.985891E-009	0.0044026	6
	27	39	1976.103	27780.33	-5654.29	1	28349.92	-11.50459	-4.075763E-009	0.0043967	6
	28	40	1577.524	28345.61	-5852.648	1	28943.52	-11.66618	-2.331479E-009	0.0043155	6
	29	42	1265.625	28924.35	-6145.083	1	29569.91	-11.99436	-2.434145E-009	0.0042903	6
	30	43	998.264	29557.23	-6564.082	1	30277.34	-12.52106	-5.67116E-009	0.0044506	6
	31	44	796.875	30168.14	-7108.387	1	30994.28	-13.25852	9.71128E-010	0.0042457	6
	32	46	627.7902	30860.78	-7849.866	1	31843.49	-14.27132	3.883187E-009	0.004356	6
	33	47	505.5147	31412.36	-8779.9	1	32616.3	-15.61592	7.154666E-010	0.0042471	6
	34	48	397.9953	32324.09	-9869.28	1	33797.18	-16.97862	2.69728E-010	0.0043395	6
	35	50	315.5048	33183.82	-11276.03	1	35047.32	-18.76801	3.927878E-010	0.0043326	6
	36	51	252.4038	34125.82	-12934.16	1	36494.71	-20.7574	4.893995E-010	0.0043346	6
	37	52	198.6229	35291.41	-15102.42	1	38387.06	-23.16777	3.621537E-011	0.0043365	6
	38	54	158.3615	36577.8	-17563.73	1	40576.1	-25.64914	5.11528E-010	0.0043288	6
	39	55	125.558	38176.02	-20569.91	1	43365.07	-28.31657	2.426451E-010	0.0043293	6
	40	56	100.4464	40047.09	-24029.92	1	46703.38	-30.96551	-2.952729E-010	0.0043285	6
	41	58	79.00281	42434.08	-28251.88	1	50978.62	-33.65499	-1.52285E-010	0.0043278	6
	42	59	63.3446	44608.95	-32983.91	1	55478.8	-36.47926	5.095203E-010	0.004329	6
	43	60	49.86702	48820.8	-38957.07	1	62458.98	-38.58848	5.759316E-010	0.0043223	6
	44	62	39.72458	52472.62	-45276.84	1	69306.34	-40.78979	-2.578659E-010	0.0043357	6
	45	63	31.6723	57426.14	-52692.28	1	77937.4	-42.53844	-5.684301E-010	0.0043271	6
	46	65	24.93351	63385	-61519.84	1	88330.91	-44.14449	-2.69071E-010	0.004327	6
	47	66	19.86229	70203.57	-71073.55	1	99899.9	-45.35282	-1.261899E-009	0.0043312	5
	48	67	15.83615	78288.77	-81657.05	1	113123.9	-46.20641	-1.179982E-009	0.0043349	5
	49	69	12.40079	88978.15	-94416.08	1	129736.3	-46.69841	-1.548634E-009	0.0043375	5
	50	70	9.93114	99757.7	-107683	1	146789.8	-47.18792	-3.320666E-010	0.0043311	5
	51	72	7.944915	112342.4	-122439.8	1	166169.6	-47.46264	-8.008578E-010	0.0043369	5
	52	73	6.317385	127282.9	-138729	1	188272.9	-47.46384	-2.026534E-010	0.0043456	5
	53	75	5.008013	144498.5	-157254.4	1	213562	-47.4206	-3.365153E-011	0.0043432	5
	54	78	3.945707	164372.3	-178389.5	1	242571.8	-47.34181	-6.356714E-010	0.0043313	5
	55	80	3.158693	185471.7	-200871.8	1	273403.1	-47.28266	-1.21424E-010	0.0043455	5
	56	83	2.504006	210212.7	-226983.9	1	309372	-47.19683	-1.061982E-009	0.0043332	5
	57	86	1.998082	236786.6	-254355.7	1	347512.2	-47.04871	-2.901076E-010	0.0042965	5
	58	89	1.584686	268132.9	-287552.8	1	393169	-47.00153	-6.488699E-010	0.0042983	5
	59	93	1.266892	301439.9	-322573.9	1	441497.4	-46.93974	-6.009118E-011	0.0043111	5
	60	97	0.999041	343025.1	-365812.5	1	501482.8	-46.84128	-8.116789E-010	0.0043275	5
