EXPLAIN
TAG	EISPOT
TITLE	LABEL	Potentiostatic EIS	Test &Identifier
DATE	LABEL	12/20/2019	Date
TIME	LABEL	6:54:20	Time
NOTES	NOTES	5	&Notes...
	
	
	
	
	
PSTAT	PSTAT	REF600-11020	Potentiostat
VDC	POTEN	0.00000E+000	T	DC &Voltage (V)
FREQINIT	QUANT	1.00000E+006	Initial Fre&q. (Hz)
FREQFINAL	QUANT	1.00000E+000	Final Fre&q. (Hz)
PTSPERDEC	QUANT	1.00000E+001	Points/&decade
VAC	QUANT	2.50000E+001	AC &Voltage (mV rms)
AREA	QUANT	1.00000E-002	&Area (cm^2)
CONDIT	TWOPARAM	T	5.00000E+000	0.00000E+000	Conditionin&g	Time(s)	E(V)
DELAY	TWOPARAM	T	5.00000E+000	0.00000E+000	Init. De&lay	Time(s)	Stab.(mV/s)
SPEED	SELECTOR	1	&Optimize for:
ZGUESS	QUANT	1.00000E+005	E&stimated Z (ohms)
OCVCURVE	TABLE	19
	Pt	T	Vf	Vm	Ach	Over
	#	s	V vs. Ref.	V	V	bits
	0	0.258333	8.39002E-003	8.39002E-003	6.09773E-004	...........
	1	0.516667	8.39867E-003	8.84305E-003	6.02440E-004	...........
	2	0.775	8.43889E-003	8.59558E-003	5.98407E-004	...........
	3	1.03333	8.51445E-003	8.60825E-003	6.00373E-004	...........
	4	1.29167	8.59094E-003	8.81270E-003	6.03640E-004	...........
	5	1.55	8.64296E-003	8.62590E-003	6.00307E-004	...........
	6	1.80833	8.66951E-003	8.44732E-003	6.03107E-004	...........
	7	2.06667	8.65927E-003	8.41421E-003	6.00973E-004	...........
	8	2.325	8.60456E-003	8.45040E-003	5.96074E-004	...........
	9	2.58333	8.52563E-003	8.15205E-003	6.03174E-004	...........
	10	2.84167	8.47311E-003	9.87142E-003	6.01073E-004	...........
	11	3.1	8.56011E-003	1.03007E-002	5.98274E-004	...........
	12	3.35833	8.88440E-003	9.84131E-003	5.99040E-004	...........
	13	3.61667	9.33573E-003	9.27905E-003	5.98207E-004	...........
	14	3.875	9.64158E-003	8.91094E-003	5.96440E-004	...........
	15	4.13333	9.63932E-003	8.48468E-003	6.01974E-004	...........
	16	4.39167	9.39426E-003	9.06529E-003	6.02774E-004	...........
	17	4.65	9.10681E-003	9.18775E-003	5.97907E-004	...........
	18	4.90833	8.95180E-003	9.10658E-003	5.99140E-004	...........
EOC	QUANT	0.0089518	Open Circuit (V)
PSTATMODEL	IQUANT	4	Pstat Model
PSTATSECTION	LABEL	REF600-11020	Pstat Section
PSTATSERIALNO	LABEL	11020	Pstat Serial Number
CTRLMODE	IQUANT	1	Control Mode
IESTAB	IQUANT	0	I/E Stability
CASPEED	IQUANT	1	Control Amp Speed
CONVENTION	IQUANT	1	Current Convention
ICHRANGE	IQUANT	2	Ich Range
ICHRANGEMODE	TOGGLE	F	Ich Auto Range
ICHOFFSETENABLE	TOGGLE	T	Ich Offset Enable
ICHOFFSET	QUANT	0	Ich Offset (V)
ICHFILTER	IQUANT	3	Ich Filter
VCHRANGE	IQUANT	2	Vch Range
VCHRANGEMODE	TOGGLE	F	Vch Auto Range
VCHOFFSETENABLE	TOGGLE	T	Vch Offset Enable
VCHOFFSET	QUANT	0	Vch Offset (V)
VCHFILTER	IQUANT	3	Vch Filter
ACHRANGE	IQUANT	2	Ach Range
ACHOFFSETENABLE	TOGGLE	F	Ach Offset Enable
ACHOFFSET	QUANT	0	Ach Offset (V)
ACHFILTER	IQUANT	0	Ach Filter
IERANGELOWERLIMIT	IQUANT	1	I/E Range Lower Limit
IERANGEMODE	TOGGLE	F	I/E AutoRange
IERANGE	IQUANT	5	I/E Range
POSFEEDENABLE	TOGGLE	F	Positive Feedback IR Comp
POSFEEDRESISTANCE	QUANT	0	Positive Feedback Resistance (ohm)
ACHSELECT	IQUANT	0	Ach Select
CABLEID	IQUANT	14	Cable ID
DCCALDATE	LABEL	8/19/2019	DC Calibration Date
ACCALDATE	LABEL	8/19/2019	AC Calibration Date
THERMOSELECT	IQUANT	1	Thermo Select
FRAMEWORKVERSION	QUANT	6.33	Framework Version
INSTRUMENTVERSION	LABEL	3.50	Instrument Version
ZCURVE	TABLE
	Pt	Time	Freq	Zreal	Zimag	Zsig	Zmod	Zphz	Idc	Vdc	IERange
	#	s	Hz	ohm	ohm	V	ohm	°	A	V	#
	0	2	1000078	3242.004	-4615.25	1	5640.135	-54.91369	-8.491037E-006	0.0118997	8
	1	3	794390.6	3908.558	-5015.4	1	6358.542	-52.07031	3.87784E-007	0.0110707	8
	2	5	630984.4	4527.482	-5483.045	1	7110.688	-50.45269	1.913821E-007	0.0105438	8
	3	7	501234.4	5143.994	-6009.317	1	7910.282	-49.43637	-2.121002E-006	0.010923	8
	4	9	398109.4	5796.886	-6604.971	1	8788.033	-48.72803	3.65655E-006	0.010284	8
	5	11	316265.6	6414.496	-7439.562	1	9823.08	-49.23162	-3.737996E-007	0.0103928	8
	6	12	251203.1	7089.626	-8452.203	1	11031.89	-50.0104	-4.496793E-007	0.0103726	8
	7	14	199546.9	7860.771	-9661.62	1	12455.46	-50.86792	-1.684307E-006	0.0107704	8
	8	16	158578.1	8641.668	-11212.95	1	14156.58	-52.37905	-9.493837E-007	0.0107045	8
	9	18	125953.1	9858.88	-12998.18	1	16314.11	-52.82035	-1.155947E-006	0.010408	7
	10	19	100078.1	11136.78	-14967.12	1	18655.89	-53.34769	-7.017861E-007	0.0109146	7
	11	21	79453.13	12918.44	-17427.63	1	21693.52	-53.45187	7.090911E-007	0.0094744	7
	12	22	63140.62	14976.98	-20174.19	1	25125.84	-53.41043	6.770418E-007	0.0099558	7
	13	24	50203.12	17482.26	-23235.24	1	29077.58	-53.04211	7.090607E-007	0.0094698	7
	14	25	39890.62	20663.57	-26636.65	1	33711.93	-52.19723	-7.334974E-007	0.0113671	7
	15	26	31640.63	24278.06	-30175.61	1	38729.72	-51.18127	6.771601E-007	0.0099524	7
	16	28	25171.88	28574.51	-33938.8	1	44366.03	-49.90455	-1.14845E-007	0.0112329	7
	17	29	20015.62	33694.09	-38346.75	1	51046.69	-48.69524	-1.152884E-007	0.0112296	7
	18	31	15890.62	39566.96	-42132.73	1	57798.89	-46.79878	-3.343009E-007	0.0114204	7
	19	32	12609.37	46102.63	-46217.51	1	65280.25	-45.0713	-1.529146E-007	0.012198	6
	20	34	10078.13	53189.27	-49990.55	1	72994.2	-43.22432	-7.747356E-008	0.0100554	6
	21	35	8015.625	61319.8	-53779.63	1	81562.04	-41.25191	-7.732227E-008	0.0124443	6
	22	37	6328.125	70129.97	-57312.09	1	90569.8	-39.25661	-7.733837E-008	0.0124435	6
	23	38	5015.625	79467.3	-60722.81	1	100011.6	-37.38429	-3.438101E-008	0.0093824	6
	24	40	3984.375	89005.78	-63079.41	1	109091.9	-35.32564	8.892347E-008	0.0104536	6
	25	41	3170.956	98940	-65819.88	1	118833.4	-33.63386	1.268651E-007	0.0094221	6
	26	43	2527.573	109130.7	-68081.27	1	128625.7	-31.95802	-3.547538E-008	0.0121247	6
	27	45	1976.103	119918.5	-70747	1	139232.1	-30.53887	-1.445437E-007	0.0115973	6
	28	46	1577.524	129674.4	-72127.75	1	148384.2	-29.08377	1.01079E-008	0.0088478	6
	29	48	1265.625	140830.3	-73440.13	1	158828.9	-27.54113	1.011858E-008	0.0083151	5
	30	49	998.264	151862.9	-75419.75	1	169559.6	-26.4104	3.080928E-009	0.0114291	5
	31	51	796.875	162504.8	-77378.98	1	179987	-25.46212	2.956235E-009	0.0114299	5
	32	52	627.7902	173648	-79724.63	1	191075	-24.66063	1.273858E-008	0.0095454	5
	33	53	505.5147	183843.1	-82071.3	1	201330.5	-24.05696	7.144173E-009	0.0107967	5
	34	55	397.9953	194998.5	-85140.68	1	212775.3	-23.58715	-9.309506E-011	0.0104179	5
	35	56	315.5048	205759.4	-88833.05	1	224116.5	-23.35144	1.264902E-010	0.0104239	5
	36	57	252.4038	216177.5	-93149.75	1	235392.4	-23.31095	1.063682E-010	0.0104218	5
	37	59	198.6229	227233.1	-98782.7	1	247775.9	-23.49554	8.53513E-011	0.0104226	5
	38	60	158.3615	237765.3	-105766.7	1	260228.6	-23.98124	1.674783E-010	0.0104205	5
	39	61	125.558	248590.9	-114850.4	1	273839.5	-24.7972	3.65628E-011	0.0104269	5
	40	63	100.4464	259654.3	-126091.8	1	288651.2	-25.90188	1.996222E-010	0.0104236	5
	41	64	79.00281	271196.7	-140332.3	1	305353.6	-27.35956	1.255165E-010	0.0104219	5
	42	66	63.3446	280053.3	-155685.9	1	320418.4	-29.07034	2.873654E-011	0.0104166	5
	43	67	49.86702	300957.8	-183360.4	1	352415.4	-31.35212	4.837813E-011	0.0104107	5
	44	68	39.72458	315198.7	-211649.3	1	379665.2	-33.88054	1.040056E-010	0.0104208	5
	45	70	31.6723	333912.3	-244088.9	1	413614.3	-36.16669	2.046452E-011	0.0104099	5
	46	71	24.93351	361767.9	-286045.6	1	461192	-38.33301	-5.013743E-012	0.0104102	5
	47	72	19.86229	392629.6	-331945.3	1	514145.6	-40.21255	-8.869591E-011	0.0104056	5
	48	74	15.83615	435048	-384319.7	1	580489.8	-41.45725	4.158155E-010	0.0104068	5
	49	75	12.40079	476174.4	-446770.3	1	652951.6	-43.17523	2.189463E-011	0.0104109	5
	50	77	9.93114	535805.4	-510321.4	1	739942.8	-43.60453	3.131875E-011	0.010413	5
	51	78	7.944915	601190.1	-578711.7	1	834467.9	-43.90858	1.579243E-010	0.0103988	5
	52	80	6.317385	678109.1	-656862.5	1	944087.1	-44.08819	1.913135E-010	0.0104027	5
	53	82	5.008013	771928.2	-741767.9	1	1070557	-43.85854	9.332859E-011	0.0104207	4
	54	84	3.945707	880808.2	-832452.1	1	1211940	-43.38328	-1.310979E-010	0.0104	4
	55	87	3.158693	994439	-910271.9	1	1348148	-42.46981	3.283279E-010	0.010416	4
	56	90	2.504006	1131886	-1010804	1	1517528	-41.76569	1.579179E-010	0.0104118	4
	57	93	1.998082	1275746	-1102922	1	1686406	-40.84445	1.35561E-010	0.0103677	4
	58	96	1.584686	1431109	-1200799	1	1868152	-39.99896	-8.216632E-011	0.0104141	4
	59	100	1.266892	1605398	-1292018	1	2060731	-38.82697	4.8944E-011	0.0103715	4
	60	104	0.999041	1790655	-1390986	1	2267440	-37.84016	5.694376E-011	0.0104547	4
