EXPLAIN
TAG	EISPOT
TITLE	LABEL	Potentiostatic EIS	Test &Identifier
DATE	LABEL	9/26/2019	Date
TIME	LABEL	8:49:16	Time
NOTES	NOTES	2	&Notes...
	
	
PSTAT	PSTAT	REF600-11020	Potentiostat
VDC	POTEN	0.00000E+000	T	DC &Voltage (V)
FREQINIT	QUANT	1.00000E+006	Initial Fre&q. (Hz)
FREQFINAL	QUANT	1.00000E+000	Final Fre&q. (Hz)
PTSPERDEC	QUANT	1.00000E+001	Points/&decade
VAC	QUANT	2.50000E+001	AC &Voltage (mV rms)
AREA	QUANT	1.00000E-002	&Area (cm^2)
CONDIT	TWOPARAM	T	5.00000E+000	0.00000E+000	Conditionin&g	Time(s)	E(V)
DELAY	TWOPARAM	T	5.00000E+000	0.00000E+000	Init. De&lay	Time(s)	Stab.(mV/s)
SPEED	SELECTOR	1	&Optimize for:
ZGUESS	QUANT	1.00000E+004	E&stimated Z (ohms)
OCVCURVE	TABLE	19
	Pt	T	Vf	Vm	Ach	Over
	#	s	V vs. Ref.	V	V	bits
	0	0.258333	5.84346E-002	5.84346E-002	6.38398E-004	...........
	1	0.516667	5.85021E-002	6.19664E-002	6.42298E-004	...........
	2	0.775	5.89128E-002	6.51284E-002	6.42898E-004	...........
	3	1.03333	6.00598E-002	6.79923E-002	6.39331E-004	...........
	4	1.29167	6.20720E-002	7.05956E-002	6.42698E-004	...........
	5	1.55	6.46749E-002	7.29625E-002	6.36698E-004	...........
	6	1.80833	6.74586E-002	7.51512E-002	6.33031E-004	...........
	7	2.06667	7.01392E-002	7.71473E-002	6.48731E-004	...........
	8	2.325	7.26034E-002	7.90014E-002	6.36365E-004	...........
	9	2.58333	7.48420E-002	8.06986E-002	6.38131E-004	...........
	10	2.84167	7.68823E-002	8.22864E-002	6.34131E-004	...........
	11	3.1	7.87540E-002	8.37535E-002	6.39265E-004	...........
	12	3.35833	8.04810E-002	8.51247E-002	6.40098E-004	...........
	13	3.61667	8.20807E-002	8.63948E-002	6.35465E-004	...........
	14	3.875	8.35664E-002	8.75922E-002	6.38765E-004	...........
	15	4.13333	8.49487E-002	8.86993E-002	6.40431E-004	...........
	16	4.39167	8.62372E-002	8.97561E-002	6.35098E-004	...........
	17	4.65	8.74407E-002	9.07286E-002	6.36698E-004	...........
	18	4.90833	8.85670E-002	9.16639E-002	6.43631E-004	...........
EOC	QUANT	0.088567	Open Circuit (V)
PSTATMODEL	IQUANT	4	Pstat Model
PSTATSECTION	LABEL	REF600-11020	Pstat Section
PSTATSERIALNO	LABEL	11020	Pstat Serial Number
CTRLMODE	IQUANT	1	Control Mode
IESTAB	IQUANT	0	I/E Stability
CASPEED	IQUANT	1	Control Amp Speed
CONVENTION	IQUANT	1	Current Convention
ICHRANGE	IQUANT	2	Ich Range
ICHRANGEMODE	TOGGLE	F	Ich Auto Range
ICHOFFSETENABLE	TOGGLE	T	Ich Offset Enable
ICHOFFSET	QUANT	0	Ich Offset (V)
ICHFILTER	IQUANT	3	Ich Filter
VCHRANGE	IQUANT	2	Vch Range
VCHRANGEMODE	TOGGLE	F	Vch Auto Range
VCHOFFSETENABLE	TOGGLE	T	Vch Offset Enable
VCHOFFSET	QUANT	0	Vch Offset (V)
VCHFILTER	IQUANT	3	Vch Filter
ACHRANGE	IQUANT	2	Ach Range
ACHOFFSETENABLE	TOGGLE	F	Ach Offset Enable
ACHOFFSET	QUANT	0	Ach Offset (V)
ACHFILTER	IQUANT	3	Ach Filter
IERANGELOWERLIMIT	IQUANT	1	I/E Range Lower Limit
IERANGEMODE	TOGGLE	F	I/E AutoRange
IERANGE	IQUANT	7	I/E Range
POSFEEDENABLE	TOGGLE	F	Positive Feedback IR Comp
POSFEEDRESISTANCE	QUANT	0	Positive Feedback Resistance (ohm)
ACHSELECT	IQUANT	0	Ach Select
CABLEID	IQUANT	14	Cable ID
DCCALDATE	LABEL	8/19/2019	DC Calibration Date
ACCALDATE	LABEL	8/19/2019	AC Calibration Date
THERMOSELECT	IQUANT	1	Thermo Select
FRAMEWORKVERSION	QUANT	6.33	Framework Version
INSTRUMENTVERSION	LABEL	3.50	Instrument Version
ZCURVE	TABLE
	Pt	Time	Freq	Zreal	Zimag	Zsig	Zmod	Zphz	Idc	Vdc	IERange
	#	s	Hz	ohm	ohm	V	ohm	°	A	V	#
	0	1	1000078	1367.311	-2704.52	1	3030.506	-63.18043	-5.465785E-007	0.0901641	8
	1	3	794390.6	1526.632	-3201.552	1	3546.906	-64.50627	1.915351E-006	0.0898382	8
	2	4	630984.4	1696.126	-3809.86	1	4170.357	-66.00166	1.083665E-006	0.0897457	8
	3	6	501234.4	1886.353	-4566.905	1	4941.148	-67.55701	-2.399189E-007	0.0902696	8
	4	8	398109.4	2146.416	-5492.261	1	5896.782	-68.65408	-3.054463E-006	0.0905631	8
	5	9	316265.6	2427.482	-6658.946	1	7087.611	-69.97095	9.392418E-007	0.0901265	8
	6	11	251203.1	2843.44	-8143.182	1	8625.344	-70.7518	-6.651835E-007	0.0903749	8
	7	13	199546.9	3379.558	-9850.32	1	10413.95	-71.06336	-2.932821E-006	0.0904916	8
	8	15	158578.1	3919.051	-11921.22	1	12548.88	-71.80194	-7.707031E-007	0.0903577	8
	9	16	125953.1	5102.006	-14640.65	1	15504.16	-70.78746	-9.073709E-007	0.0922434	7
	10	18	100078.1	6165.109	-17628.31	1	18675.28	-70.72385	-5.993755E-008	0.090147	7
	11	20	79453.13	7731.9	-21356.39	1	22712.94	-70.09764	-1.827655E-008	0.0900682	7
	12	21	63140.62	9800.29	-25696.43	1	27501.86	-69.12379	-1.910893E-008	0.089959	7
	13	22	50203.12	12537.18	-30815.86	1	33268.57	-67.86145	9.137605E-008	0.0898124	7
	14	24	39890.62	16134.37	-36399.73	1	39815.31	-66.09443	-6.859484E-008	0.0900673	7
	15	26	31640.63	20906.55	-43022.54	1	47833.29	-64.08284	-4.012031E-008	0.0900008	7
	16	27	25171.88	27032.67	-50086.4	1	56915.84	-61.64334	-4.344248E-008	0.0900217	7
	17	29	20015.62	34676.5	-57657.13	1	67281.52	-58.9762	6.436268E-009	0.0900328	7
	18	30	15890.62	44373.73	-65498.27	1	79114.17	-55.88317	5.70609E-008	0.0899245	7
	19	32	12609.37	56655.54	-72047.55	1	91655.33	-51.81979	-2.961416E-009	0.0899179	6
	20	34	10078.13	69712.46	-77994.91	1	104609	-48.20941	-1.017783E-008	0.0900187	6
	21	35	8015.625	83992.09	-82880.34	1	117999.2	-44.61829	-6.750734E-009	0.0899553	6
	22	37	6328.125	100397.7	-86053.8	1	132230.7	-40.60085	9.992223E-010	0.0897404	6
	23	38	5015.625	116631.3	-87577.88	1	145851.8	-36.90271	5.208641E-009	0.0899729	6
	24	40	3984.375	132368.3	-87344.85	1	158589.1	-33.41931	1.126483E-008	0.0898791	6
	25	41	3170.956	147363.8	-84889.66	1	170065.7	-29.94431	-8.851305E-009	0.0901168	6
	26	43	2527.573	161410.6	-81873.48	1	180988	-26.89582	-1.277494E-008	0.0900548	6
	27	44	1976.103	174776.8	-77503.2	1	191190.1	-23.91446	-7.081938E-009	0.089864	6
	28	46	1577.524	185435.2	-73809.88	1	199584.9	-21.70433	-1.250589E-008	0.0900532	6
	29	48	1265.625	197608.8	-66474.37	1	208490	-18.59262	-2.236162E-009	0.0899301	5
	30	49	998.264	206134.5	-63757.57	1	215769.4	-17.18688	7.946097E-010	0.0898615	5
	31	50	796.875	214196.7	-60557.73	1	222592.6	-15.78667	-1.089822E-009	0.0899594	5
	32	52	627.7902	221282.6	-59712.52	1	229197.6	-15.10143	-1.669423E-009	0.0899314	5
	33	53	505.5147	227400	-59272.91	1	234997.9	-14.60935	-1.262313E-009	0.0897741	5
	34	54	397.9953	234657.1	-59591.29	1	242105.5	-14.24908	-1.59355E-009	0.0899713	5
	35	56	315.5048	240941.4	-60801.26	1	248494.5	-14.16283	-6.358666E-010	0.0899702	5
	36	57	252.4038	246516.7	-62941.35	1	254425	-14.32292	-4.932634E-010	0.0899653	5
	37	58	198.6229	252658.1	-67368.14	1	261485.3	-14.92986	-1.110064E-009	0.0899723	5
	38	60	158.3615	259607.6	-72285.6	1	269483.4	-15.55943	-8.151698E-010	0.0899661	5
	39	61	125.558	266493	-80233.43	1	278309	-16.75555	-1.701331E-009	0.0899724	5
	40	63	100.4464	273722.8	-89237.47	1	287901.9	-18.0567	-1.408898E-009	0.0899663	5
	41	64	79.00281	279943.3	-101867	1	297901.3	-19.99566	-9.199653E-010	0.089965	5
	42	66	63.3446	283129.3	-135774.4	1	314001.4	-25.62	-9.648E-010	0.089964	5
	43	68	49.86702	302601.2	-133540.4	1	330757.4	-23.81226	-1.433083E-009	0.0899599	5
	44	69	39.72458	315513.5	-151534.9	1	350016.6	-25.65405	-1.008868E-009	0.0899581	5
	45	71	31.6723	338671.2	-175189	1	381299.6	-27.35178	-8.672137E-010	0.089957	5
	46	72	24.93351	356327.6	-199473.8	1	408361.6	-29.2403	-1.452474E-009	0.0899597	5
	47	74	19.86229	381726.3	-231293.7	1	446331.4	-31.2123	-5.877002E-010	0.0899639	5
	48	75	15.83615	416033	-238750.2	1	479671.8	-29.85036	-2.712974E-009	0.0899592	5
	49	76	12.40079	458188.7	-274333.4	1	534037.2	-30.91041	-4.697135E-010	0.0899592	5
	50	78	9.93114	486225.3	-322578.8	1	583499.9	-33.56168	-8.073562E-010	0.0899602	5
	51	79	7.944915	527704.9	-373629.2	1	646584.3	-35.29951	-1.949961E-009	0.0899671	5
	52	81	6.317385	588072.9	-400300.2	1	711385.9	-34.24305	-9.249692E-010	0.0899693	6
	53	83	5.008013	644335.9	-439486.1	1	779946.7	-34.29696	-9.994947E-010	0.0899555	6
	54	86	3.945707	708369.3	-483770.1	1	857799.8	-34.33054	-7.066414E-010	0.0899623	6
	55	89	3.158693	771529.4	-520328.3	1	930590.8	-33.99618	-8.172136E-010	0.0899453	6
	56	93	2.504006	840789.4	-567313.3	1	1014284	-34.00907	-9.719399E-010	0.0899698	4
	57	96	1.998082	911009.6	-619678.7	1	1101790	-34.22396	-7.824769E-010	0.0899781	4
	58	99	1.584686	985335	-673906.5	1	1193749	-34.36964	-1.022097E-009	0.089928	4
	59	103	1.266892	1063832	-742151.9	1	1297123	-34.90044	-9.218152E-010	0.0899831	4
	60	107	0.999041	1153681	-823660.9	1	1417532	-35.52462	-1.168229E-009	0.0899268	4
