EXPLAIN
TAG	EISPOT
TITLE	LABEL	Potentiostatic EIS	Test &Identifier
DATE	LABEL	9/26/2019	Date
TIME	LABEL	9:56:58	Time
NOTES	NOTES	2	&Notes...
	
	
PSTAT	PSTAT	REF600-11020	Potentiostat
VDC	POTEN	0.00000E+000	T	DC &Voltage (V)
FREQINIT	QUANT	1.00000E+006	Initial Fre&q. (Hz)
FREQFINAL	QUANT	1.00000E+000	Final Fre&q. (Hz)
PTSPERDEC	QUANT	1.00000E+001	Points/&decade
VAC	QUANT	2.50000E+001	AC &Voltage (mV rms)
AREA	QUANT	1.00000E-002	&Area (cm^2)
CONDIT	TWOPARAM	T	5.00000E+000	0.00000E+000	Conditionin&g	Time(s)	E(V)
DELAY	TWOPARAM	T	5.00000E+000	0.00000E+000	Init. De&lay	Time(s)	Stab.(mV/s)
SPEED	SELECTOR	1	&Optimize for:
ZGUESS	QUANT	1.00000E+004	E&stimated Z (ohms)
OCVCURVE	TABLE	19
	Pt	T	Vf	Vm	Ach	Over
	#	s	V vs. Ref.	V	V	bits
	0	0.258333	8.93605E-002	8.93605E-002	5.71132E-004	...........
	1	0.516667	8.94700E-002	9.50912E-002	5.66199E-004	...........
	2	0.775	9.01364E-002	1.00214E-001	5.74565E-004	...........
	3	1.03333	9.19938E-002	1.04713E-001	5.69132E-004	...........
	4	1.29167	9.52385E-002	1.08727E-001	5.71232E-004	...........
	5	1.55	9.94023E-002	1.12357E-001	5.66566E-004	...........
	6	1.80833	1.03805E-001	1.15703E-001	5.67199E-004	...........
	7	2.06667	1.07993E-001	1.18811E-001	5.66832E-004	...........
	8	2.325	1.11806E-001	1.21663E-001	5.66466E-004	...........
	9	2.58333	1.15255E-001	1.24245E-001	5.65299E-004	...........
	10	2.84167	1.18392E-001	1.26659E-001	5.72066E-004	...........
	11	3.1	1.21266E-001	1.28931E-001	5.74266E-004	...........
	12	3.35833	1.23913E-001	1.31070E-001	5.70832E-004	...........
	13	3.61667	1.26367E-001	1.33050E-001	5.71366E-004	...........
	14	3.875	1.28657E-001	1.34942E-001	5.69666E-004	...........
	15	4.13333	1.30803E-001	1.36719E-001	5.68799E-004	...........
	16	4.39167	1.32818E-001	1.38362E-001	5.73965E-004	...........
	17	4.65	1.34713E-001	1.39973E-001	5.70666E-004	...........
	18	4.90833	1.36499E-001	1.41487E-001	5.72666E-004	...........
EOC	QUANT	0.1364992	Open Circuit (V)
PSTATMODEL	IQUANT	4	Pstat Model
PSTATSECTION	LABEL	REF600-11020	Pstat Section
PSTATSERIALNO	LABEL	11020	Pstat Serial Number
CTRLMODE	IQUANT	1	Control Mode
IESTAB	IQUANT	0	I/E Stability
CASPEED	IQUANT	1	Control Amp Speed
CONVENTION	IQUANT	1	Current Convention
ICHRANGE	IQUANT	2	Ich Range
ICHRANGEMODE	TOGGLE	F	Ich Auto Range
ICHOFFSETENABLE	TOGGLE	T	Ich Offset Enable
ICHOFFSET	QUANT	0	Ich Offset (V)
ICHFILTER	IQUANT	3	Ich Filter
VCHRANGE	IQUANT	2	Vch Range
VCHRANGEMODE	TOGGLE	F	Vch Auto Range
VCHOFFSETENABLE	TOGGLE	T	Vch Offset Enable
VCHOFFSET	QUANT	0	Vch Offset (V)
VCHFILTER	IQUANT	3	Vch Filter
ACHRANGE	IQUANT	2	Ach Range
ACHOFFSETENABLE	TOGGLE	F	Ach Offset Enable
ACHOFFSET	QUANT	0	Ach Offset (V)
ACHFILTER	IQUANT	3	Ach Filter
IERANGELOWERLIMIT	IQUANT	1	I/E Range Lower Limit
IERANGEMODE	TOGGLE	F	I/E AutoRange
IERANGE	IQUANT	7	I/E Range
POSFEEDENABLE	TOGGLE	F	Positive Feedback IR Comp
POSFEEDRESISTANCE	QUANT	0	Positive Feedback Resistance (ohm)
ACHSELECT	IQUANT	0	Ach Select
CABLEID	IQUANT	14	Cable ID
DCCALDATE	LABEL	8/19/2019	DC Calibration Date
ACCALDATE	LABEL	8/19/2019	AC Calibration Date
THERMOSELECT	IQUANT	1	Thermo Select
FRAMEWORKVERSION	QUANT	6.33	Framework Version
INSTRUMENTVERSION	LABEL	3.50	Instrument Version
ZCURVE	TABLE
	Pt	Time	Freq	Zreal	Zimag	Zsig	Zmod	Zphz	Idc	Vdc	IERange
	#	s	Hz	ohm	ohm	V	ohm	°	A	V	#
	0	1	1000078	2036.271	-1722.942	1	2667.382	-40.23544	-8.561818E-007	0.1386131	8
	1	3	794390.6	2374.868	-1764.314	1	2958.514	-36.60903	-7.902001E-007	0.1387476	8
	2	4	630984.4	2714.676	-1756.862	1	3233.578	-32.90981	8.315031E-008	0.138126	8
	3	6	501234.4	3032.771	-1715.481	1	3484.333	-29.49459	-2.725873E-007	0.1380585	8
	4	7	398109.4	3348.907	-1633.961	1	3726.259	-26.00816	-9.785074E-007	0.1382535	8
	5	8	316265.6	3616.059	-1548.971	1	3933.853	-23.1883	3.665905E-006	0.1373614	8
	6	10	251203.1	3846.572	-1415.282	1	4098.675	-20.20024	-3.305802E-007	0.1379597	8
	7	11	199546.9	4056.526	-1288.726	1	4256.315	-17.62464	-6.500475E-008	0.1380785	8
	8	12	158578.1	4239.166	-1188.878	1	4402.722	-15.66621	-9.527781E-008	0.1379469	8
	9	14	125953.1	4436.916	-1030.947	1	4555.115	-13.08094	5.383785E-007	0.1368672	7
	10	15	100078.1	4558.378	-934.5591	1	4653.193	-11.58623	-1.614206E-008	0.1380994	7
	11	17	79453.13	4671.179	-858.8652	1	4749.48	-10.41831	-3.199265E-008	0.1379488	7
	12	18	63140.62	4767.599	-787.0396	1	4832.125	-9.373898	3.636978E-008	0.1378209	7
	13	19	50203.12	4834.319	-720.7205	1	4887.748	-8.47944	-5.248293E-008	0.1379961	7
	14	21	39890.62	4926.581	-678.0651	1	4973.024	-7.836613	-3.963588E-008	0.1379722	7
	15	22	31640.63	4976.888	-640.9803	1	5017.994	-7.338804	-1.36011E-008	0.1379013	7
	16	24	25171.88	5037.167	-619.2571	1	5075.089	-7.008636	-5.351433E-008	0.1379853	7
	17	25	20015.62	5077.165	-603.3127	1	5112.885	-6.776604	4.609221E-009	0.1378808	7
	18	26	15890.62	5151.511	-611.566	1	5187.685	-6.770231	-4.192213E-008	0.137969	7
	19	28	12609.37	5194.167	-622.9036	1	5231.384	-6.838463	-9.18798E-009	0.1379704	7
	20	29	10078.13	5259.212	-643.5916	1	5298.445	-6.976833	-2.832964E-008	0.1379313	7
	21	30	8015.625	5343.922	-690.2809	1	5388.32	-7.360211	-7.914384E-009	0.1379936	7
	22	32	6328.125	5389.205	-728.3251	1	5438.197	-7.696618	-2.119744E-008	0.1380068	7
	23	33	5015.625	5460.562	-789.7201	1	5517.372	-8.229202	7.522977E-008	0.1377824	7
	24	35	3984.375	5541.355	-864.8131	1	5608.433	-8.870327	-2.823901E-008	0.1379335	7
	25	36	3170.956	5617.956	-966.151	1	5700.428	-9.75801	-5.313459E-008	0.1381129	7
	26	37	2527.573	5679.696	-1078.305	1	5781.15	-10.74982	-5.259391E-008	0.1379855	7
	27	39	1976.103	5777.063	-1259.566	1	5912.779	-12.29964	1.310452E-007	0.1377527	7
	28	40	1577.524	5855.59	-1453.771	1	6033.356	-13.94295	-9.984969E-009	0.1379876	7
	29	42	1265.625	5887.113	-1650.313	1	6114.052	-15.65959	-1.288398E-008	0.1380776	7
	30	43	998.264	5965.285	-1982.602	1	6286.122	-18.38457	-5.283473E-008	0.1379859	7
	31	44	796.875	6037.244	-2361.884	1	6482.809	-21.36638	-4.459723E-008	0.1379911	7
	32	46	627.7902	6121.019	-2877.43	1	6763.614	-25.17775	-2.764016E-008	0.1379285	7
	33	47	505.5147	6222.179	-3459.12	1	7119.061	-29.07117	1.308437E-007	0.1377486	7
	34	48	397.9953	6367.049	-4245.575	1	7652.727	-33.69552	2.095476E-009	0.1379666	7
	35	50	315.5048	6608.486	-5220.976	1	8422.035	-38.31019	1.061477E-009	0.137964	7
	36	51	252.4038	6857.122	-6380.24	1	9366.301	-42.93679	1.713846E-009	0.1379587	7
	37	53	198.6229	7016.349	-7847.03	1	10526.4	-48.19881	-2.476407E-009	0.1379019	6
	38	54	158.3615	7335.511	-9604.89	1	12085.68	-52.63007	-2.267168E-009	0.1378999	6
	39	55	125.558	7780.76	-11817.39	1	14148.88	-56.63844	-2.456258E-009	0.1379064	6
	40	57	100.4464	8354.508	-14394.41	1	16643.22	-59.86914	-1.788272E-009	0.1378981	6
	41	58	79.00281	9106.605	-17791.65	1	19986.82	-62.89449	-3.688372E-009	0.1379004	6
	42	59	63.3446	10149.27	-21493.71	1	23769.46	-64.72345	-2.440835E-009	0.1378992	6
	43	61	49.86702	11226.98	-26709.07	1	28972.73	-67.20087	-2.368582E-009	0.1378954	6
	44	62	39.72458	12892.42	-32382.71	1	34854.77	-68.29119	-2.370731E-009	0.1379047	6
	45	64	31.6723	15003.44	-39292.02	1	42059.07	-69.10092	-1.967136E-009	0.1379063	6
	46	65	24.93351	18971.78	-49447.78	1	52962.36	-69.00954	-3.001867E-009	0.1378971	6
	47	66	19.86229	20829.46	-58056	1	61679.54	-70.26292	-2.613926E-009	0.1378974	6
	48	68	15.83615	24912.49	-69735.03	1	74051.38	-70.34099	-2.573317E-009	0.1379014	6
	49	69	12.40079	30146.87	-85897.81	1	91034.43	-70.66087	-3.169669E-009	0.1379004	6
	50	71	9.93114	36614.52	-102122.2	1	108487.6	-70.2754	-2.079677E-009	0.1379044	5
	51	72	7.944915	44472.39	-122121.5	1	129967.1	-69.99014	-3.240868E-009	0.1379071	5
	52	74	6.317385	54452.55	-146520.3	1	156311.5	-69.61301	-2.312418E-009	0.1379003	5
	53	76	5.008013	68049.82	-175593.6	1	188318.6	-68.81657	-2.480402E-009	0.1379176	5
	54	78	3.945707	85017.02	-210813.5	1	227310.9	-68.03673	-2.781882E-009	0.1379009	5
	55	81	3.158693	104614.4	-249016	1	270098.3	-67.21218	-2.3445E-009	0.1379272	5
	56	84	2.504006	130742	-295173.3	1	322832.3	-66.10986	-2.855567E-009	0.1379092	5
	57	87	1.998082	162001.5	-346045.3	1	382088.8	-64.91331	-2.566818E-009	0.1378781	5
	58	90	1.584686	203951.1	-404520.1	1	453026	-63.24366	-2.401225E-009	0.1379451	5
	59	94	1.266892	248506.6	-469772.1	1	531452.1	-62.12143	-2.51775E-009	0.1378785	5
	60	98	0.999041	308538.9	-545370.3	1	626597.9	-60.50133	-1.990854E-009	0.1379365	5
