EXPLAIN
TAG	EISPOT
TITLE	LABEL	Potentiostatic EIS	Test &Identifier
DATE	LABEL	10/14/2019	Date
TIME	LABEL	10:09:27	Time
NOTES	NOTES	1	&Notes...
	
PSTAT	PSTAT	REF600-11020	Potentiostat
VDC	POTEN	0.00000E+000	T	DC &Voltage (V)
FREQINIT	QUANT	1.00000E+006	Initial Fre&q. (Hz)
FREQFINAL	QUANT	1.00000E+000	Final Fre&q. (Hz)
PTSPERDEC	QUANT	1.00000E+001	Points/&decade
VAC	QUANT	2.50000E+001	AC &Voltage (mV rms)
AREA	QUANT	1.00000E-002	&Area (cm^2)
CONDIT	TWOPARAM	T	5.00000E+000	0.00000E+000	Conditionin&g	Time(s)	E(V)
DELAY	TWOPARAM	T	5.00000E+000	0.00000E+000	Init. De&lay	Time(s)	Stab.(mV/s)
SPEED	SELECTOR	1	&Optimize for:
ZGUESS	QUANT	1.00000E+004	E&stimated Z (ohms)
OCVCURVE	TABLE	19
	Pt	T	Vf	Vm	Ach	Over
	#	s	V vs. Ref.	V	V	bits
	0	0.258333	5.96335E-003	5.96335E-003	5.51733E-004	...........
	1	0.516667	5.96345E-003	5.96875E-003	5.61266E-004	...........
	2	0.775	5.96410E-003	5.97486E-003	5.54899E-004	...........
	3	1.03333	5.96708E-003	6.03684E-003	5.55299E-004	...........
	4	1.29167	5.97626E-003	6.04602E-003	5.59399E-004	...........
	5	1.55	5.99405E-003	6.06250E-003	5.57999E-004	...........
	6	1.80833	6.01746E-003	6.08883E-003	5.61066E-004	...........
	7	2.06667	6.04198E-003	6.13520E-003	5.57166E-004	...........
	8	2.325	6.06734E-003	6.15980E-003	5.58766E-004	...........
	9	2.58333	6.09534E-003	6.18614E-003	5.56633E-004	...........
	10	2.84167	6.12604E-003	6.24672E-003	5.60732E-004	...........
	11	3.1	6.15929E-003	6.27696E-003	5.65432E-004	...........
	12	3.35833	6.19565E-003	6.30954E-003	5.59432E-004	...........
	13	3.61667	6.23380E-003	6.34103E-003	5.56432E-004	...........
	14	3.875	6.27095E-003	6.37222E-003	5.53099E-004	...........
	15	4.13333	6.30539E-003	6.38706E-003	5.57199E-004	...........
	16	4.39167	6.33642E-003	6.41487E-003	5.60232E-004	...........
	17	4.65	6.36392E-003	6.43883E-003	5.55166E-004	...........
	18	4.90833	6.38908E-003	6.46974E-003	5.54566E-004	...........
EOC	QUANT	0.0063891	Open Circuit (V)
PSTATMODEL	IQUANT	4	Pstat Model
PSTATSECTION	LABEL	REF600-11020	Pstat Section
PSTATSERIALNO	LABEL	11020	Pstat Serial Number
CTRLMODE	IQUANT	1	Control Mode
IESTAB	IQUANT	0	I/E Stability
CASPEED	IQUANT	1	Control Amp Speed
CONVENTION	IQUANT	1	Current Convention
ICHRANGE	IQUANT	2	Ich Range
ICHRANGEMODE	TOGGLE	F	Ich Auto Range
ICHOFFSETENABLE	TOGGLE	T	Ich Offset Enable
ICHOFFSET	QUANT	0	Ich Offset (V)
ICHFILTER	IQUANT	3	Ich Filter
VCHRANGE	IQUANT	2	Vch Range
VCHRANGEMODE	TOGGLE	F	Vch Auto Range
VCHOFFSETENABLE	TOGGLE	T	Vch Offset Enable
VCHOFFSET	QUANT	0	Vch Offset (V)
VCHFILTER	IQUANT	3	Vch Filter
ACHRANGE	IQUANT	2	Ach Range
ACHOFFSETENABLE	TOGGLE	F	Ach Offset Enable
ACHOFFSET	QUANT	0	Ach Offset (V)
ACHFILTER	IQUANT	3	Ach Filter
IERANGELOWERLIMIT	IQUANT	1	I/E Range Lower Limit
IERANGEMODE	TOGGLE	F	I/E AutoRange
IERANGE	IQUANT	6	I/E Range
POSFEEDENABLE	TOGGLE	F	Positive Feedback IR Comp
POSFEEDRESISTANCE	QUANT	0	Positive Feedback Resistance (ohm)
ACHSELECT	IQUANT	0	Ach Select
CABLEID	IQUANT	14	Cable ID
DCCALDATE	LABEL	8/19/2019	DC Calibration Date
ACCALDATE	LABEL	8/19/2019	AC Calibration Date
THERMOSELECT	IQUANT	1	Thermo Select
FRAMEWORKVERSION	QUANT	6.33	Framework Version
INSTRUMENTVERSION	LABEL	3.50	Instrument Version
ZCURVE	TABLE
	Pt	Time	Freq	Zreal	Zimag	Zsig	Zmod	Zphz	Idc	Vdc	IERange
	#	s	Hz	ohm	ohm	V	ohm	°	A	V	#
	0	1	1000078	2529.438	-1432.954	1	2907.131	-29.53202	4.00381E-006	0.0083721	8
	1	3	794390.6	2780.748	-1308.872	1	3073.387	-25.20592	-1.861464E-006	0.0085369	8
	2	4	630984.4	3000.82	-1156.78	1	3216.063	-21.08106	-2.609273E-006	0.0089311	8
	3	5	501234.4	3151.608	-1023.753	1	3313.714	-17.99561	3.285947E-007	0.008275	8
	4	7	398109.4	3295.444	-879.2017	1	3410.711	-14.93818	1.131612E-006	0.0079471	8
	5	8	316265.6	3385.299	-740.0125	1	3465.237	-12.33066	2.136925E-007	0.0080292	8
	6	10	251203.1	3451.225	-652.3642	1	3512.34	-10.70398	-3.280031E-007	0.0081746	8
	7	11	199546.9	3507.851	-569.2789	1	3553.744	-9.218002	2.364503E-006	0.0076109	8
	8	12	158578.1	3559.112	-497.9624	1	3593.778	-7.964664	-1.663666E-007	0.0080625	8
	9	14	125953.1	3611.054	-409.4353	1	3634.192	-6.468791	1.990637E-007	0.0076344	7
	10	15	100078.1	3634.25	-374.5406	1	3653.499	-5.884049	-2.479257E-009	0.0080289	7
	11	17	79453.13	3663.501	-357.248	1	3680.879	-5.569614	3.351001E-008	0.0080272	7
	12	18	63140.62	3693.751	-351.3252	1	3710.421	-5.433252	-5.887287E-008	0.0081576	7
	13	19	50203.12	3723.687	-351.8753	1	3740.275	-5.39822	9.183273E-009	0.0080081	7
	14	21	39890.62	3754.519	-360.976	1	3771.832	-5.491788	-3.616824E-008	0.0080814	7
	15	22	31640.63	3787.893	-377.4567	1	3806.653	-5.690636	6.34766E-008	0.0079563	7
	16	23	25171.88	3825.003	-402.0434	1	3846.074	-6.000288	-3.465082E-008	0.0080796	7
	17	25	20015.62	3876.645	-435.518	1	3901.032	-6.409964	-7.087704E-009	0.0081699	7
	18	26	15890.62	3907.317	-477.2343	1	3936.354	-6.963537	-4.196748E-008	0.0080954	7
	19	27	12609.37	3951.364	-528.6148	1	3986.566	-7.619807	-4.755887E-008	0.0082087	7
	20	29	10078.13	4000.939	-589.2426	1	4044.097	-8.37807	4.149005E-010	0.0080121	7
	21	30	8015.625	4051.528	-668.1263	1	4106.248	-9.364211	-2.721855E-008	0.0080678	7
	22	32	6328.125	4112.685	-757.4399	1	4181.853	-10.43532	-3.960714E-009	0.0080186	7
	23	33	5015.625	4174.192	-871.3455	1	4264.167	-11.79094	7.239813E-008	0.0080196	7
	24	34	3984.375	4263.102	-1008.94	1	4380.868	-13.31509	4.063601E-008	0.0079315	7
	25	36	3170.956	4310.863	-1170.558	1	4466.962	-15.19161	-2.445412E-008	0.0080498	7
	26	37	2527.573	4384.951	-1367.002	1	4593.092	-17.31479	7.349516E-008	0.0079053	7
	27	38	1976.103	4475.378	-1631.115	1	4763.354	-20.02498	2.283892E-009	0.0079964	7
	28	40	1577.524	4558.605	-1933.44	1	4951.674	-22.98325	3.91448E-010	0.0079964	7
	29	41	1265.625	4663.627	-2287.866	1	5194.588	-26.13149	-3.358036E-008	0.0080682	7
	30	42	998.264	4785.383	-2762.607	1	5525.567	-29.99789	-2.37575E-008	0.0080486	7
	31	44	796.875	4907.194	-3315.437	1	5922.219	-34.04406	6.633949E-008	0.0079449	7
	32	45	627.7902	5066.42	-4049.135	1	6485.685	-38.63221	-3.401584E-008	0.0081234	7
	33	47	505.5147	5232.593	-4859.218	1	7140.87	-42.88115	5.831711E-010	0.0080001	7
	34	48	397.9953	5449.585	-5976.208	1	8087.833	-47.63893	3.948299E-009	0.0080628	7
	35	49	315.5048	5715.291	-7318.049	1	9285.386	-52.01068	4.56962E-009	0.0080684	7
	36	51	252.4038	6035.319	-8904.374	1	10757	-55.87087	7.878695E-010	0.0080027	6
	37	52	198.6229	6476.212	-11004.43	1	12768.67	-59.52279	5.155966E-010	0.0080026	6
	38	53	158.3615	7013.795	-13448.1	1	15167.23	-62.45592	3.336523E-010	0.008005	6
	39	55	125.558	7743.772	-16516.2	1	18241.46	-64.88004	9.160333E-010	0.0080045	6
	40	56	100.4464	8664.215	-20085.8	1	21874.83	-66.66656	1.602319E-009	0.0080008	6
	41	58	79.00281	10033.92	-24811.73	1	26763.81	-67.98148	-2.700004E-011	0.0080016	6
	42	59	63.3446	11644.24	-30261.72	1	32424.68	-68.95406	1.094278E-009	0.0080023	6
	43	60	49.86702	13861.38	-36633.36	1	39168.11	-69.2743	9.841896E-010	0.0080003	6
	44	62	39.72458	16907.43	-44472.77	1	47578.23	-69.18445	8.689417E-010	0.0080043	6
	45	63	31.6723	20853.96	-53607.93	1	57521.28	-68.74353	-4.222969E-010	0.0080044	6
	46	65	24.93351	26286.68	-64564	1	69710.11	-67.84673	6.142213E-010	0.0080065	6
	47	66	19.86229	33031.12	-76634.09	1	83449.61	-66.68281	3.654624E-011	0.0080041	6
	48	67	15.83615	41696.96	-90856.98	1	99968.1	-65.34821	-1.450321E-009	0.0080057	6
	49	69	12.40079	53384.27	-106895.6	1	119484.6	-63.4622	-1.657672E-009	0.0080112	5
	50	70	9.93114	64941.36	-122778.4	1	138895.4	-62.12424	9.696758E-010	0.0080099	5
	51	72	7.944915	79294.46	-140663.4	1	161473.9	-60.58928	-7.242452E-010	0.0080097	5
	52	73	6.317385	96747.8	-160537.5	1	187436.4	-58.92476	-2.321965E-010	0.0079982	5
	53	75	5.008013	116123.2	-182386.3	1	216216	-57.51558	-1.84826E-010	0.0080066	5
	54	78	3.945707	137664.6	-207217.7	1	248778.5	-56.40202	-2.024377E-010	0.0080044	5
	55	81	3.158693	159227	-233055.8	1	282255.6	-55.65856	1.6451E-010	0.0080117	5
	56	84	2.504006	182905.5	-264352.5	1	321460.3	-55.32064	-2.666281E-010	0.0080154	5
	57	87	1.998082	206822.5	-299643.4	1	364090.2	-55.38545	1.130623E-010	0.0079689	5
	58	90	1.584686	232397.3	-344144.7	1	415263.9	-55.96926	-7.325951E-011	0.0079957	5
	59	93	1.266892	260715.5	-395884.8	1	474022.5	-56.63254	4.640982E-011	0.0079638	5
	60	98	0.999041	293556.2	-462747.8	1	548006.2	-57.60993	6.034135E-011	0.0080522	5
