EXPLAIN
TAG	EISPOT
TITLE	LABEL	Potentiostatic IDE	Test &Identifier
DATE	LABEL	9/10/2019	Date
TIME	LABEL	7:59:33	Time
NOTES	NOTES	1	&Notes...
	
PSTAT	PSTAT	REF600-11020	Potentiostat
VDC	POTEN	0.00000E+000	T	DC &Voltage (V)
FREQINIT	QUANT	1.00000E+006	Initial Fre&q. (Hz)
FREQFINAL	QUANT	1.00000E+000	Final Fre&q. (Hz)
PTSPERDEC	QUANT	1.00000E+001	Points/&decade
VAC	QUANT	2.50000E+001	AC &Voltage (mV rms)
AREA	QUANT	1.00000E-002	&Area (cm^2)
CONDIT	TWOPARAM	T	5.00000E+000	0.00000E+000	Conditionin&g	Time(s)	E(V)
DELAY	TWOPARAM	T	5.00000E+000	0.00000E+000	Init. De&lay	Time(s)	Stab.(mV/s)
SPEED	SELECTOR	1	&Optimize for:
ZGUESS	QUANT	1.00000E+007	E&stimated Z (ohms)
OCVCURVE	TABLE	19
	Pt	T	Vf	Vm	Ach	Over
	#	s	V vs. Ref.	V	V	bits
	0	0.258333	5.83082E-003	5.83082E-003	5.57366E-004	...........
	1	0.516667	5.83250E-003	5.91866E-003	5.50366E-004	...........
	2	0.775	5.84311E-003	6.01809E-003	5.53166E-004	...........
	3	1.03333	5.87394E-003	6.10180E-003	5.51832E-004	...........
	4	1.29167	5.93016E-003	6.18523E-003	5.54799E-004	...........
	5	1.55	6.00582E-003	6.27242E-003	5.55399E-004	...........
	6	1.80833	6.09036E-003	6.34038E-003	5.56033E-004	...........
	7	2.06667	6.17545E-003	6.40698E-003	5.53733E-004	...........
	8	2.325	6.25701E-003	6.51236E-003	5.59032E-004	...........
	9	2.58333	6.33511E-003	6.54246E-003	5.47566E-004	...........
	10	2.84167	6.40621E-003	6.39950E-003	5.55599E-004	...........
	11	3.1	6.45689E-003	6.52958E-003	5.49833E-004	...........
	12	3.35833	6.48218E-003	6.60293E-003	5.56466E-004	...........
	13	3.61667	6.49944E-003	6.55945E-003	5.59599E-004	...........
	14	3.875	6.52293E-003	6.54378E-003	5.59699E-004	...........
	15	4.13333	6.54604E-003	6.60213E-003	5.60666E-004	...........
	16	4.39167	6.56313E-003	6.68798E-003	5.61299E-004	...........
	17	4.65	6.58583E-003	6.81358E-003	5.57266E-004	...........
	18	4.90833	6.63128E-003	6.93863E-003	5.53733E-004	...........
EOC	QUANT	0.0066313	Open Circuit (V)
PSTATMODEL	IQUANT	4	Pstat Model
PSTATSECTION	LABEL	REF600-11020	Pstat Section
PSTATSERIALNO	LABEL	11020	Pstat Serial Number
CTRLMODE	IQUANT	1	Control Mode
IESTAB	IQUANT	0	I/E Stability
CASPEED	IQUANT	1	Control Amp Speed
CONVENTION	IQUANT	1	Current Convention
ICHRANGE	IQUANT	2	Ich Range
ICHRANGEMODE	TOGGLE	F	Ich Auto Range
ICHOFFSETENABLE	TOGGLE	T	Ich Offset Enable
ICHOFFSET	QUANT	0	Ich Offset (V)
ICHFILTER	IQUANT	3	Ich Filter
VCHRANGE	IQUANT	2	Vch Range
VCHRANGEMODE	TOGGLE	F	Vch Auto Range
VCHOFFSETENABLE	TOGGLE	T	Vch Offset Enable
VCHOFFSET	QUANT	0	Vch Offset (V)
VCHFILTER	IQUANT	3	Vch Filter
ACHRANGE	IQUANT	2	Ach Range
ACHOFFSETENABLE	TOGGLE	F	Ach Offset Enable
ACHOFFSET	QUANT	0	Ach Offset (V)
ACHFILTER	IQUANT	3	Ach Filter
IERANGELOWERLIMIT	IQUANT	1	I/E Range Lower Limit
IERANGEMODE	TOGGLE	F	I/E AutoRange
IERANGE	IQUANT	3	I/E Range
POSFEEDENABLE	TOGGLE	F	Positive Feedback IR Comp
POSFEEDRESISTANCE	QUANT	0	Positive Feedback Resistance (ohm)
ACHSELECT	IQUANT	0	Ach Select
CABLEID	IQUANT	14	Cable ID
DCCALDATE	LABEL	8/19/2019	DC Calibration Date
ACCALDATE	LABEL	8/19/2019	AC Calibration Date
THERMOSELECT	IQUANT	1	Thermo Select
FRAMEWORKVERSION	QUANT	6.33	Framework Version
INSTRUMENTVERSION	LABEL	3.50	Instrument Version
ZCURVE	TABLE
	Pt	Time	Freq	Zreal	Zimag	Zsig	Zmod	Zphz	Idc	Vdc	IERange
	#	s	Hz	ohm	ohm	V	ohm	°	A	V	#
	0	2	1000078	1228.382	-1188.661	1	1709.338	-44.05853	3.240508E-006	0.0089368	8
	1	3	794390.6	1282.409	-1390.698	1	1891.722	-47.31981	2.016136E-006	0.0082248	8
	2	4	630984.4	1341.499	-1658.322	1	2132.991	-51.02888	-1.137981E-006	0.0086967	8
	3	6	501234.4	1413.141	-2006.431	1	2454.125	-54.84274	5.199745E-007	0.0083999	8
	4	7	398109.4	1506.563	-2445.584	1	2872.388	-58.36552	3.842162E-006	0.0076398	8
	5	8	316265.6	1643.846	-2987.555	1	3409.944	-61.17903	-6.651439E-007	0.0086557	8
	6	10	251203.1	1832.064	-3667.998	1	4100.081	-63.45913	1.713954E-007	0.0085118	8
	7	11	199546.9	2108.325	-4537.084	1	5003.016	-65.07631	1.742043E-006	0.0080766	8
	8	12	158578.1	2462.772	-5497.727	1	6024.139	-65.86944	-8.193801E-008	0.0085712	8
	9	14	125953.1	3094.888	-6670.242	1	7353.262	-65.10944	-5.501892E-007	0.0095478	7
	10	15	100078.1	3823.779	-8055.71	1	8917.16	-64.60786	3.56764E-008	0.0083417	7
	11	16	79453.13	4833.234	-9597.59	1	10745.88	-63.27071	-1.874164E-008	0.0084521	7
	12	18	63140.62	6199.275	-11290.27	1	12880.27	-61.22965	-3.677081E-008	0.0083975	7
	13	19	50203.12	7912.187	-13106.27	1	15309.37	-58.88083	2.665768E-008	0.0084247	7
	14	20	39890.62	10084.43	-14814.13	1	17920.77	-55.75568	5.733736E-009	0.0083229	7
	15	22	31640.63	12652.01	-16564.29	1	20843.44	-52.62695	5.912868E-008	0.0082748	7
	16	23	25171.88	15447.04	-18089.34	1	23787.29	-49.50497	1.863542E-009	0.0083896	7
	17	24	20015.62	18638.2	-19325.85	1	26849.04	-46.03769	6.055685E-008	0.0082422	7
	18	26	15890.62	21916.94	-20470.2	1	29989.68	-43.04516	-1.710656E-008	0.0084356	7
	19	27	12609.37	25412.41	-21082.18	1	33018.92	-39.67916	-1.846574E-009	0.0082571	6
	20	28	10078.13	28691.63	-21805.81	1	36037.52	-37.23505	4.763012E-009	0.0082929	6
	21	30	8015.625	31858.37	-22507.03	1	39006.69	-35.24011	4.874277E-009	0.0082869	6
	22	31	6328.125	35221.33	-23209.34	1	42180.75	-33.38316	3.171245E-009	0.0081867	6
	23	32	5015.625	38568.05	-24145.2	1	45502.59	-32.04827	-3.383655E-009	0.0083497	6
	24	34	3984.375	41810.55	-25138.86	1	48786.11	-31.01665	4.880676E-009	0.008287	6
	25	35	3170.956	45180.54	-26375.29	1	52315.74	-30.27533	2.617571E-009	0.0083341	6
	26	36	2527.573	48682.91	-27719.37	1	56021.33	-29.65658	-7.96159E-009	0.0084121	6
	27	38	1976.103	52730.73	-29529.91	1	60436.29	-29.2494	1.184886E-009	0.0082303	6
	28	39	1577.524	56679.29	-31451.45	1	64820.8	-29.02598	2.070467E-009	0.008187	6
	29	41	1265.625	60827.62	-33501.27	1	69443.03	-28.84411	8.862091E-009	0.0082521	6
	30	42	998.264	65542.73	-35833.66	1	74698.73	-28.66641	1.993543E-009	0.0082396	6
	31	43	796.875	70744.13	-38584.37	1	80582.16	-28.60838	8.527254E-009	0.0082519	6
	32	45	627.7902	76254.88	-41401.28	1	86769.08	-28.49899	-2.35475E-009	0.0084256	6
	33	46	505.5147	83209.25	-44020.46	1	94135.97	-27.88033	-2.442047E-009	0.0082454	6
	34	47	397.9953	89200.72	-46416.94	1	100555	-27.4909	2.876895E-010	0.0083293	5
	35	49	315.5048	95933.8	-49179.72	1	107805.1	-27.1416	-1.53061E-010	0.0083262	5
	36	50	252.4038	102503.4	-52082.36	1	114976.2	-26.93529	3.464395E-010	0.0083211	5
	37	51	198.6229	109575.9	-55414.21	1	122790.9	-26.82643	-5.074435E-011	0.0083241	5
	38	53	158.3615	116408.9	-59125.56	1	130563.6	-26.92661	-1.890066E-010	0.0083194	5
	39	54	125.558	123455.4	-63850.09	1	138989.4	-27.34763	1.512739E-010	0.0083237	5
	40	55	100.4464	130741.6	-69778.58	1	148197.2	-28.08944	-1.476241E-010	0.0083159	5
	41	57	79.00281	139231.5	-77332.45	1	159266.1	-29.04883	3.901346E-010	0.0083129	5
	42	58	63.3446	144213.2	-83417.91	1	166601.3	-30.04659	3.201769E-011	0.0083131	5
	43	59	49.86702	159762.8	-93462.32	1	185092.9	-30.32792	-3.841774E-010	0.0083168	5
	44	61	39.72458	168058.8	-105113.1	1	198223.4	-32.02409	-3.803149E-011	0.008321	5
	45	62	31.6723	180711.5	-118975.7	1	216360.5	-33.35987	2.041534E-010	0.0083192	5
	46	63	24.93351	194106.6	-133578	1	235627.8	-34.5345	3.63499E-010	0.0083149	5
	47	65	19.86229	208691.5	-150350.1	1	257210.6	-35.77056	4.485484E-010	0.0083232	5
	48	66	15.83615	228352.7	-170102.3	1	284745	-36.68281	1.159591E-009	0.008317	5
	49	67	12.40079	244078.5	-196980.2	1	313648.7	-38.9048	3.604729E-010	0.0083212	5
	50	69	9.93114	267118.3	-220878.7	1	346611.6	-39.58717	-3.029239E-010	0.0083225	5
	51	70	7.944915	291537.4	-249454.1	1	383694.4	-40.55197	4.46336E-011	0.0083169	5
	52	72	6.317385	320120.2	-286386.7	1	429527.9	-41.81652	2.615843E-010	0.008303	5
	53	74	5.008013	353699.9	-327109.2	1	481771.8	-42.76331	-1.434339E-010	0.0083084	5
	54	77	3.945707	393836.3	-375323.8	1	544035.8	-43.62125	2.582748E-010	0.0083229	5
	55	79	3.158693	436912.7	-425576.5	1	609924.6	-44.24697	1.007178E-010	0.0083329	5
	56	82	2.504006	488324.5	-486066.7	1	689000.5	-44.86724	4.741717E-012	0.0083082	5
	57	85	1.998082	545793.5	-552641.7	1	776726.1	-45.3572	-1.955013E-010	0.0082952	5
	58	88	1.584686	612846.3	-627146	1	876865.3	-45.66071	-2.783821E-011	0.008351	5
	59	92	1.266892	690180	-712626.9	1	992061	-45.91674	-1.197189E-010	0.0082904	4
	60	96	0.999041	783387.2	-811442.3	1	1127889	-46.0078	2.741442E-010	0.0083474	4
