EXPLAIN
TAG	EISPOT
TITLE	LABEL	Potentiostatic EIS	Test &Identifier
DATE	LABEL	11/3/2019	Date
TIME	LABEL	12:11:47	Time
NOTES	NOTES	1	&Notes...
	
PSTAT	PSTAT	REF600-11020	Potentiostat
VDC	POTEN	0.00000E+000	T	DC &Voltage (V)
FREQINIT	QUANT	1.00000E+006	Initial Fre&q. (Hz)
FREQFINAL	QUANT	1.00000E+000	Final Fre&q. (Hz)
PTSPERDEC	QUANT	1.00000E+001	Points/&decade
VAC	QUANT	2.50000E+001	AC &Voltage (mV rms)
AREA	QUANT	1.00000E-002	&Area (cm^2)
CONDIT	TWOPARAM	T	5.00000E+000	0.00000E+000	Conditionin&g	Time(s)	E(V)
DELAY	TWOPARAM	T	5.00000E+000	0.00000E+000	Init. De&lay	Time(s)	Stab.(mV/s)
SPEED	SELECTOR	1	&Optimize for:
ZGUESS	QUANT	1.00000E+005	E&stimated Z (ohms)
OCVCURVE	TABLE	19
	Pt	T	Vf	Vm	Ach	Over
	#	s	V vs. Ref.	V	V	bits
	0	0.258333	8.55053E-003	8.55053E-003	5.76232E-004	...........
	1	0.516667	8.55326E-003	8.69354E-003	5.71766E-004	...........
	2	0.775	8.57063E-003	8.86030E-003	5.75499E-004	...........
	3	1.03333	8.62180E-003	9.02220E-003	5.75599E-004	...........
	4	1.29167	8.71761E-003	9.19285E-003	5.79799E-004	...........
	5	1.55	8.85167E-003	9.35673E-003	5.76332E-004	...........
	6	1.80833	9.00858E-003	9.53111E-003	5.72866E-004	...........
	7	2.06667	9.17518E-003	9.68736E-003	5.71132E-004	...........
	8	2.325	9.34391E-003	9.85555E-003	5.74466E-004	...........
	9	2.58333	9.51142E-003	1.00166E-002	5.68732E-004	...........
	10	2.84167	9.67704E-003	1.01829E-002	5.73832E-004	...........
	11	3.1	9.84131E-003	1.03382E-002	5.71466E-004	...........
	12	3.35833	1.00047E-002	1.05109E-002	5.73232E-004	...........
	13	3.61667	1.01663E-002	1.05959E-002	5.71066E-004	...........
	14	3.875	1.03144E-002	1.03531E-002	5.71866E-004	...........
	15	4.13333	1.04142E-002	1.01460E-002	5.71499E-004	...........
	16	4.39167	1.04335E-002	1.04549E-002	5.68799E-004	...........
	17	4.65	1.04018E-002	1.07097E-002	5.68132E-004	...........
	18	4.90833	1.04062E-002	1.10212E-002	5.76799E-004	...........
EOC	QUANT	0.0104062	Open Circuit (V)
PSTATMODEL	IQUANT	4	Pstat Model
PSTATSECTION	LABEL	REF600-11020	Pstat Section
PSTATSERIALNO	LABEL	11020	Pstat Serial Number
CTRLMODE	IQUANT	1	Control Mode
IESTAB	IQUANT	0	I/E Stability
CASPEED	IQUANT	1	Control Amp Speed
CONVENTION	IQUANT	1	Current Convention
ICHRANGE	IQUANT	2	Ich Range
ICHRANGEMODE	TOGGLE	F	Ich Auto Range
ICHOFFSETENABLE	TOGGLE	T	Ich Offset Enable
ICHOFFSET	QUANT	0	Ich Offset (V)
ICHFILTER	IQUANT	3	Ich Filter
VCHRANGE	IQUANT	2	Vch Range
VCHRANGEMODE	TOGGLE	F	Vch Auto Range
VCHOFFSETENABLE	TOGGLE	T	Vch Offset Enable
VCHOFFSET	QUANT	0	Vch Offset (V)
VCHFILTER	IQUANT	3	Vch Filter
ACHRANGE	IQUANT	2	Ach Range
ACHOFFSETENABLE	TOGGLE	F	Ach Offset Enable
ACHOFFSET	QUANT	0	Ach Offset (V)
ACHFILTER	IQUANT	3	Ach Filter
IERANGELOWERLIMIT	IQUANT	1	I/E Range Lower Limit
IERANGEMODE	TOGGLE	F	I/E AutoRange
IERANGE	IQUANT	5	I/E Range
POSFEEDENABLE	TOGGLE	F	Positive Feedback IR Comp
POSFEEDRESISTANCE	QUANT	0	Positive Feedback Resistance (ohm)
ACHSELECT	IQUANT	0	Ach Select
CABLEID	IQUANT	14	Cable ID
DCCALDATE	LABEL	8/19/2019	DC Calibration Date
ACCALDATE	LABEL	8/19/2019	AC Calibration Date
THERMOSELECT	IQUANT	1	Thermo Select
FRAMEWORKVERSION	QUANT	6.33	Framework Version
INSTRUMENTVERSION	LABEL	3.50	Instrument Version
ZCURVE	TABLE
	Pt	Time	Freq	Zreal	Zimag	Zsig	Zmod	Zphz	Idc	Vdc	IERange
	#	s	Hz	ohm	ohm	V	ohm	°	A	V	#
	0	1	1000078	1235.782	-2385.179	1	2686.306	-62.61094	-9.316546E-006	0.0141136	8
	1	3	794390.6	1443.236	-2814.902	1	3163.321	-62.8552	-2.755832E-006	0.0128755	8
	2	4	630984.4	1684.802	-3374.34	1	3771.568	-63.46712	2.769441E-006	0.0126265	8
	3	5	501234.4	2008.224	-4007.24	1	4482.292	-63.38231	-3.171145E-006	0.0120355	8
	4	7	398109.4	2396.812	-4766.571	1	5335.251	-63.30502	2.21156E-006	0.0124171	8
	5	8	316265.6	2905.489	-5622.029	1	6328.434	-62.66988	-6.435059E-006	0.0129727	8
	6	9	251203.1	3580.666	-6619.31	1	7525.718	-61.58916	-6.044194E-007	0.0117488	8
	7	11	199546.9	4382.017	-7677.275	1	8839.832	-60.28324	-4.679534E-006	0.0123909	8
	8	13	158578.1	5346.214	-8807.554	1	10303.16	-58.74211	3.881116E-006	0.0119974	8
	9	15	125953.1	6796.82	-9944.86	1	12045.62	-55.64933	1.776845E-006	0.013509	7
	10	16	100078.1	8076.026	-11222.24	1	13826.09	-54.25952	-7.585641E-007	0.0140195	7
	11	18	79453.13	9544.65	-12670.61	1	15863.31	-53.00962	1.388595E-006	0.0100758	7
	12	19	63140.62	11200.9	-14127.76	1	18029.25	-51.59159	-9.691681E-007	0.0118665	7
	13	20	50203.12	12880.13	-15832.89	1	20410.24	-50.87148	1.419035E-006	0.0104814	7
	14	22	39890.62	14818.95	-17771.19	1	23139.07	-50.17612	1.316267E-006	0.0110306	7
	15	23	31640.63	17133.27	-19984.24	1	26323.35	-49.39223	8.050859E-007	0.0122301	7
	16	24	25171.88	19863.11	-22731.25	1	30186.97	-48.85226	-4.557907E-007	0.0110002	7
	17	26	20015.62	23095.89	-25231.09	1	34205.67	-47.52982	-1.369924E-006	0.0140458	7
	18	27	15890.62	27191.63	-28135.98	1	39128.23	-45.97784	-1.109006E-006	0.0141163	7
	19	29	12609.37	32605.02	-30847.79	1	44885.11	-43.41368	-1.535223E-007	0.0156605	6
	20	30	10078.13	38314.56	-33559.95	1	50934.04	-41.21531	1.42892E-007	0.0122634	6
	21	31	8015.625	44571.93	-35087.07	1	56725.3	-38.20987	-2.16312E-007	0.0158357	6
	22	33	6328.125	51759.53	-36333.48	1	63239	-35.06758	-1.84861E-007	0.0123541	6
	23	35	5015.625	59018.71	-36590.24	1	69441.01	-31.79796	1.956295E-007	0.0111445	6
	24	36	3984.375	65921.47	-35784.56	1	75007.84	-28.49471	1.551304E-007	0.0084119	6
	25	38	3170.956	72110.23	-34033.41	1	79738.06	-25.26561	1.543531E-007	0.0084174	6
	26	39	2527.573	77151.7	-31554.77	1	83355.2	-22.24439	-6.391702E-010	0.0143234	6
	27	41	1976.103	81939.2	-29152.46	1	86970.67	-19.58463	2.443538E-008	0.0092161	6
	28	43	1577.524	85776.63	-25940.71	1	89613.34	-16.82645	1.41145E-007	0.0122646	6
	29	45	1265.625	89137.88	-24947.3	1	92563.11	-15.63551	1.990109E-007	0.0085022	6
	30	46	998.264	91768.64	-23288.71	1	94677.6	-14.23971	1.941577E-007	0.0111498	6
	31	48	796.875	93607.3	-22301.26	1	96227.2	-13.4005	1.427338E-007	0.0122611	6
	32	49	627.7902	95105.7	-21760.8	1	97563.5	-12.8878	2.472257E-008	0.009216	6
	33	50	505.5147	97293.2	-20985.15	1	99530.6	-12.17165	-2.602025E-008	0.0151083	5
	34	52	397.9953	99389.5	-22001.82	1	101795.6	-12.48226	8.675384E-010	0.0119471	5
	35	53	315.5048	101092.2	-23581.6	1	103806.2	-13.13048	-3.382861E-010	0.0119605	5
	36	54	252.4038	103112.3	-25758.05	1	106280.8	-14.02577	7.646989E-011	0.0119523	5
	37	56	198.6229	104828.1	-29055.66	1	108780.3	-15.49201	2.693484E-010	0.0119473	5
	38	57	158.3615	107829.3	-32887.6	1	112733.1	-16.96154	5.16805E-010	0.0119456	5
	39	59	125.558	110762.1	-37897.06	1	117066	-18.88828	1.417447E-010	0.0119473	5
	40	60	100.4464	113589.3	-43498.41	1	121633.2	-20.95407	8.173015E-011	0.0119529	5
	41	62	79.00281	118667.5	-50473.21	1	128955.5	-23.04165	2.972051E-010	0.0119514	5
	42	63	63.3446	119143.8	-59842.85	1	133328.2	-26.66919	-2.64835E-010	0.0119483	5
	43	65	49.86702	129159.4	-67779.65	1	145863.7	-27.68938	1.794955E-010	0.0119438	5
	44	66	39.72458	135925.5	-78903.72	1	157167.3	-30.13484	-9.574928E-011	0.0119569	5
	45	68	31.6723	145681.5	-90069.37	1	171276.4	-31.72693	-2.032503E-010	0.011953	5
	46	69	24.93351	155949.5	-105141.8	1	188082.5	-33.98802	4.151566E-010	0.0119495	5
	47	71	19.86229	166164.2	-120370.4	1	205181.8	-35.91981	4.621037E-010	0.0119386	5
	48	72	15.83615	184251.1	-140768.4	1	231871.1	-37.37994	2.170644E-009	0.0119394	5
	49	74	12.40079	200432.9	-159489.2	1	256144.8	-38.5101	9.041907E-010	0.0119522	5
	50	75	9.93114	214453.1	-181821	1	281156.6	-40.29246	-2.590032E-010	0.0119444	5
	51	77	7.944915	233395.2	-208383.8	1	312885.2	-41.75964	-3.304117E-010	0.0119395	5
	52	78	6.317385	255856.4	-235255.6	1	347574	-42.59801	-4.203842E-010	0.0119485	5
	53	80	5.008013	282413.5	-269652.7	1	390474	-43.67586	-3.265229E-010	0.0119251	5
	54	83	3.945707	312121.7	-308892.9	1	439129.6	-44.7021	6.291484E-011	0.011959	5
	55	86	3.158693	344214.1	-352111	1	492407.8	-45.64975	-3.299283E-010	0.0119397	5
	56	89	2.504006	381810.3	-403875.1	1	555782.5	-46.60864	3.903416E-011	0.0119547	5
	57	92	1.998082	423368.6	-461329.2	1	626151.4	-47.45694	1.589806E-010	0.0119407	5
	58	95	1.584686	473716.7	-529291.3	1	710321.6	-48.17139	-2.324119E-010	0.0119059	5
	59	98	1.266892	525442.7	-603762.4	1	800386.8	-48.96758	3.048106E-011	0.0119183	5
	60	103	0.999041	589391.1	-697419.8	1	913113.5	-49.79877	-3.129696E-010	0.0119717	5
