EXPLAIN
TAG	EISPOT
TITLE	LABEL	Potentiostatic EIS	Test &Identifier
DATE	LABEL	11/12/2019	Date
TIME	LABEL	22:35:04	Time
NOTES	NOTES	3	&Notes...
	
	
	
PSTAT	PSTAT	REF600-11020	Potentiostat
VDC	POTEN	0.00000E+000	T	DC &Voltage (V)
FREQINIT	QUANT	1.00000E+006	Initial Fre&q. (Hz)
FREQFINAL	QUANT	1.00000E+000	Final Fre&q. (Hz)
PTSPERDEC	QUANT	1.00000E+001	Points/&decade
VAC	QUANT	2.50000E+001	AC &Voltage (mV rms)
AREA	QUANT	1.00000E-002	&Area (cm^2)
CONDIT	TWOPARAM	T	5.00000E+000	0.00000E+000	Conditionin&g	Time(s)	E(V)
DELAY	TWOPARAM	T	5.00000E+000	0.00000E+000	Init. De&lay	Time(s)	Stab.(mV/s)
SPEED	SELECTOR	1	&Optimize for:
ZGUESS	QUANT	1.00000E+005	E&stimated Z (ohms)
OCVCURVE	TABLE	19
	Pt	T	Vf	Vm	Ach	Over
	#	s	V vs. Ref.	V	V	bits
	0	0.258333	4.08353E-003	4.08353E-003	5.28200E-004	...........
	1	0.516667	4.08770E-003	4.30145E-003	5.30933E-004	...........
	2	0.775	4.10548E-003	4.10054E-003	5.32966E-004	...........
	3	1.03333	4.13268E-003	4.05334E-003	5.38133E-004	...........
	4	1.29167	4.13969E-003	3.81430E-003	5.31433E-004	...........
	5	1.55	4.09619E-003	3.69531E-003	5.33133E-004	...........
	6	1.80833	3.99807E-003	3.58184E-003	5.27966E-004	...........
	7	2.06667	3.86574E-003	3.42960E-003	5.30600E-004	...........
	8	2.325	3.72584E-003	3.42703E-003	5.30400E-004	...........
	9	2.58333	3.59995E-003	3.40063E-003	5.29566E-004	...........
	10	2.84167	3.50733E-003	3.58443E-003	5.33566E-004	...........
	11	3.1	3.46287E-003	3.46397E-003	5.31466E-004	...........
	12	3.35833	3.46044E-003	3.43809E-003	5.28900E-004	...........
	13	3.61667	3.47033E-003	3.41923E-003	5.29866E-004	...........
	14	3.875	3.46660E-003	3.35859E-003	5.28900E-004	...........
	15	4.13333	3.44241E-003	3.21363E-003	5.23333E-004	...........
	16	4.39167	3.39568E-003	3.10065E-003	5.28566E-004	...........
	17	4.65	3.32470E-003	3.10358E-003	5.23866E-004	...........
	18	4.90833	3.24125E-003	3.09486E-003	5.22066E-004	...........
EOC	QUANT	0.0032412	Open Circuit (V)
PSTATMODEL	IQUANT	4	Pstat Model
PSTATSECTION	LABEL	REF600-11020	Pstat Section
PSTATSERIALNO	LABEL	11020	Pstat Serial Number
CTRLMODE	IQUANT	1	Control Mode
IESTAB	IQUANT	0	I/E Stability
CASPEED	IQUANT	1	Control Amp Speed
CONVENTION	IQUANT	1	Current Convention
ICHRANGE	IQUANT	2	Ich Range
ICHRANGEMODE	TOGGLE	F	Ich Auto Range
ICHOFFSETENABLE	TOGGLE	T	Ich Offset Enable
ICHOFFSET	QUANT	0	Ich Offset (V)
ICHFILTER	IQUANT	3	Ich Filter
VCHRANGE	IQUANT	2	Vch Range
VCHRANGEMODE	TOGGLE	F	Vch Auto Range
VCHOFFSETENABLE	TOGGLE	T	Vch Offset Enable
VCHOFFSET	QUANT	0	Vch Offset (V)
VCHFILTER	IQUANT	3	Vch Filter
ACHRANGE	IQUANT	2	Ach Range
ACHOFFSETENABLE	TOGGLE	F	Ach Offset Enable
ACHOFFSET	QUANT	0	Ach Offset (V)
ACHFILTER	IQUANT	3	Ach Filter
IERANGELOWERLIMIT	IQUANT	1	I/E Range Lower Limit
IERANGEMODE	TOGGLE	F	I/E AutoRange
IERANGE	IQUANT	4	I/E Range
POSFEEDENABLE	TOGGLE	F	Positive Feedback IR Comp
POSFEEDRESISTANCE	QUANT	0	Positive Feedback Resistance (ohm)
ACHSELECT	IQUANT	0	Ach Select
CABLEID	IQUANT	14	Cable ID
DCCALDATE	LABEL	8/19/2019	DC Calibration Date
ACCALDATE	LABEL	8/19/2019	AC Calibration Date
THERMOSELECT	IQUANT	1	Thermo Select
FRAMEWORKVERSION	QUANT	6.33	Framework Version
INSTRUMENTVERSION	LABEL	3.50	Instrument Version
ZCURVE	TABLE
	Pt	Time	Freq	Zreal	Zimag	Zsig	Zmod	Zphz	Idc	Vdc	IERange
	#	s	Hz	ohm	ohm	V	ohm	°	A	V	#
	0	1	1000078	2172.022	-1241.054	1	2501.578	-29.74286	-5.34586E-006	0.0066203	8
	1	3	794390.6	2396.423	-1141.954	1	2654.601	-25.47895	-6.814063E-007	0.0053835	8
	2	4	630984.4	2581.731	-1031.29	1	2780.089	-21.77457	-1.523833E-006	0.0047812	8
	3	5	501234.4	2731.292	-905.1823	1	2877.379	-18.3358	-2.222856E-006	0.0048148	8
	4	7	398109.4	2848.19	-788.577	1	2955.341	-15.47579	3.891263E-006	0.0048066	8
	5	8	316265.6	2933.149	-694.3484	1	3014.213	-13.31816	-3.473506E-006	0.0053354	8
	6	9	251203.1	3004.105	-593.8021	1	3062.23	-11.18115	-2.099744E-006	0.0052607	8
	7	11	199546.9	3056.442	-528.0598	1	3101.723	-9.80219	-1.513934E-009	0.0045315	8
	8	12	158578.1	3098.65	-443.758	1	3130.264	-8.14992	-2.18723E-006	0.0052504	8
	9	13	125953.1	3147.823	-393.514	1	3172.324	-7.125664	-4.880998E-007	0.0073974	7
	10	15	100078.1	3178.164	-363.7739	1	3198.915	-6.52968	-6.222825E-007	0.0046355	7
	11	16	79453.13	3205.64	-355.0993	1	3225.248	-6.321071	3.372764E-007	0.0052114	7
	12	18	63140.62	3234.852	-352.7804	1	3254.032	-6.223859	-1.043424E-006	0.0060064	7
	13	19	50203.12	3265.864	-360.2219	1	3285.669	-6.294232	5.244457E-007	0.0049292	7
	14	20	39890.62	3298.461	-375.8179	1	3319.802	-6.500099	8.645624E-007	0.0041479	7
	15	22	31640.63	3331.619	-399.6742	1	3355.507	-6.840738	5.243285E-007	0.0049261	7
	16	23	25171.88	3367.927	-431.4803	1	3395.453	-7.300653	-5.25077E-007	0.0061177	7
	17	24	20015.62	3409.917	-475.1979	1	3442.869	-7.933508	-1.039755E-006	0.0056943	7
	18	26	15890.62	3455.8	-528.2668	1	3495.943	-8.691173	-6.210682E-007	0.0046248	7
	19	27	12609.37	3507.298	-593.5983	1	3557.176	-9.60609	-2.427855E-007	0.0059151	7
	20	29	10078.13	3560.555	-668.8066	1	3622.824	-10.63835	-6.216246E-007	0.0046226	7
	21	30	8015.625	3626.763	-760.0371	1	3705.545	-11.83582	-5.229517E-007	0.00611	7
	22	31	6328.125	3702.993	-872.4058	1	3804.372	-13.25684	1.014287E-007	0.0035942	7
	23	33	5015.625	3786.018	-1001.802	1	3916.317	-14.82111	3.400752E-007	0.0051919	7
	24	34	3984.375	3878.78	-1152.475	1	4046.373	-16.5479	7.155858E-007	0.0045535	7
	25	35	3170.956	3976.393	-1328.168	1	4192.342	-18.47001	-9.29879E-007	0.0061395	7
	26	37	2527.573	4086.719	-1535.175	1	4365.551	-20.58868	-6.202822E-007	0.00462	7
	27	38	1976.103	4219.768	-1800.426	1	4587.807	-23.10624	-5.24466E-007	0.0061116	7
	28	40	1577.524	4340.313	-2106.141	1	4824.329	-25.88503	9.185869E-007	0.003519	7
	29	41	1265.625	4492.158	-2441.067	1	5112.562	-28.51993	-9.293572E-007	0.0061451	7
	30	42	998.264	4657.981	-2893.58	1	5483.575	-31.84892	-2.573292E-007	0.0040278	7
	31	44	796.875	4825.036	-3418.875	1	5913.516	-35.32024	9.187697E-007	0.0035138	7
	32	45	627.7902	5020.94	-4096.706	1	6480.188	-39.21183	4.128089E-007	0.0033455	7
	33	47	505.5147	5219.402	-4843.559	1	7120.549	-42.86105	-2.380917E-007	0.0059032	7
	34	48	397.9953	5462.86	-5884.201	1	8029.113	-47.12654	3.927487E-009	0.004784	7
	35	49	315.5048	5738.041	-7131.541	1	9153.359	-51.17983	5.654001E-009	0.0047744	7
	36	51	252.4038	6053.498	-8611.06	1	10525.93	-54.89313	2.50671E-011	0.004721	6
	37	52	198.6229	6463.295	-10576.99	1	12395.44	-58.5721	3.589202E-010	0.0047271	6
	38	53	158.3615	6949.844	-12880.06	1	14635.45	-61.64952	1.351906E-010	0.0047141	6
	39	55	125.558	7580.643	-15779.37	1	17505.84	-64.33968	9.644903E-010	0.0047253	6
	40	56	100.4464	8355.224	-19183.79	1	20924.33	-66.46516	-1.798176E-010	0.0047168	6
	41	57	79.00281	9490.561	-23686.74	1	25517.3	-68.16552	-8.455013E-011	0.0047202	6
	42	59	63.3446	10965.36	-28763.33	1	30782.59	-69.13181	7.457978E-010	0.0047186	6
	43	60	49.86702	12644.27	-35511.43	1	37695.34	-70.40112	6.677405E-010	0.0047149	6
	44	62	39.72458	15125.48	-43037.33	1	45617.89	-70.63597	1.15296E-009	0.0047111	6
	45	63	31.6723	18231.89	-52069.56	1	55169.2	-70.70256	7.030697E-010	0.0047094	6
	46	64	24.93351	22738.54	-63551.33	1	67496.76	-70.31289	3.94581E-011	0.0047174	6
	47	66	19.86229	28380.29	-76389.46	1	81491.05	-69.61891	9.177133E-010	0.0047182	6
	48	67	15.83615	35816.44	-91024.8	1	97817.8	-68.52135	5.894679E-010	0.0047121	6
	49	69	12.40079	45046.34	-109896.1	1	118770.1	-67.71131	-1.051657E-010	0.0047111	5
	50	70	9.93114	56882.75	-128593.5	1	140612.7	-66.13802	1.797226E-010	0.0047205	5
	51	72	7.944915	71408.95	-150090.6	1	166212	-64.55619	5.752875E-010	0.004716	5
	52	73	6.317385	88675.92	-174176.6	1	195450.5	-63.01867	5.332217E-010	0.0047346	5
	53	75	5.008013	109462	-201363.9	1	229192.8	-61.47136	3.982906E-010	0.0047167	5
	54	78	3.945707	133921.7	-231957.7	1	267842.1	-59.99984	3.047095E-010	0.004719	5
	55	81	3.158693	160015.3	-263573	1	308343.3	-58.73804	2.1409E-011	0.0047297	5
	56	84	2.504006	189800.7	-300366.1	1	355308.4	-57.71129	3.201243E-010	0.0047127	5
	57	87	1.998082	221091.7	-340389.5	1	405889.8	-56.99525	-1.151823E-010	0.0047538	5
	58	90	1.584686	256055.6	-389059.1	1	465759	-56.64946	2.432656E-010	0.0047345	5
	59	93	1.266892	294442.7	-442618.1	1	531608.3	-56.36697	-3.152169E-011	0.0047579	5
	60	98	0.999041	338681.4	-510204.8	1	612383.9	-56.42321	1.520295E-010	0.0046823	5
