EXPLAIN
TAG	EISPOT
TITLE	LABEL	Potentiostatic EIS	Test &Identifier
DATE	LABEL	11/27/2019	Date
TIME	LABEL	13:26:23	Time
NOTES	NOTES	3	&Notes...
	
	
	
PSTAT	PSTAT	REF600-11020	Potentiostat
VDC	POTEN	0.00000E+000	T	DC &Voltage (V)
FREQINIT	QUANT	1.00000E+006	Initial Fre&q. (Hz)
FREQFINAL	QUANT	1.00000E+000	Final Fre&q. (Hz)
PTSPERDEC	QUANT	1.00000E+001	Points/&decade
VAC	QUANT	2.50000E+001	AC &Voltage (mV rms)
AREA	QUANT	1.00000E-002	&Area (cm^2)
CONDIT	TWOPARAM	T	5.00000E+000	0.00000E+000	Conditionin&g	Time(s)	E(V)
DELAY	TWOPARAM	T	5.00000E+000	0.00000E+000	Init. De&lay	Time(s)	Stab.(mV/s)
SPEED	SELECTOR	0	&Optimize for:
ZGUESS	QUANT	1.00000E+005	E&stimated Z (ohms)
OCVCURVE	TABLE	19
	Pt	T	Vf	Vm	Ach	Over
	#	s	V vs. Ref.	V	V	bits
	0	0.258333	8.77531E-003	8.77531E-003	5.50033E-004	...........
	1	0.516667	8.77518E-003	8.76892E-003	5.46499E-004	...........
	2	0.775	8.77750E-003	8.92330E-003	5.45599E-004	...........
	3	1.03333	8.79465E-003	9.09316E-003	5.41033E-004	...........
	4	1.29167	8.84728E-003	9.27759E-003	5.48299E-004	...........
	5	1.55	8.94653E-003	9.38438E-003	5.43266E-004	...........
	6	1.80833	9.08039E-003	9.47200E-003	5.52366E-004	...........
	7	2.06667	9.22221E-003	9.56782E-003	5.51699E-004	...........
	8	2.325	9.35123E-003	9.66602E-003	5.47633E-004	...........
	9	2.58333	9.46341E-003	9.78241E-003	5.45133E-004	...........
	10	2.84167	9.56660E-003	9.90674E-003	5.42833E-004	...........
	11	3.1	9.66898E-003	9.94328E-003	5.35633E-004	...........
	12	3.35833	9.76978E-003	1.00104E-002	5.40033E-004	...........
	13	3.61667	9.86138E-003	1.00854E-002	5.39966E-004	...........
	14	3.875	9.94112E-003	1.01845E-002	5.45699E-004	...........
	15	4.13333	1.00141E-002	1.01901E-002	5.46099E-004	...........
	16	4.39167	1.00827E-002	1.02373E-002	5.43466E-004	...........
	17	4.65	1.01435E-002	1.03053E-002	5.50266E-004	...........
	18	4.90833	1.01968E-002	1.03841E-002	5.49099E-004	...........
EOC	QUANT	0.0101968	Open Circuit (V)
PSTATMODEL	IQUANT	4	Pstat Model
PSTATSECTION	LABEL	REF600-11020	Pstat Section
PSTATSERIALNO	LABEL	11020	Pstat Serial Number
CTRLMODE	IQUANT	1	Control Mode
IESTAB	IQUANT	0	I/E Stability
CASPEED	IQUANT	1	Control Amp Speed
CONVENTION	IQUANT	1	Current Convention
ICHRANGE	IQUANT	2	Ich Range
ICHRANGEMODE	TOGGLE	F	Ich Auto Range
ICHOFFSETENABLE	TOGGLE	T	Ich Offset Enable
ICHOFFSET	QUANT	0	Ich Offset (V)
ICHFILTER	IQUANT	3	Ich Filter
VCHRANGE	IQUANT	2	Vch Range
VCHRANGEMODE	TOGGLE	F	Vch Auto Range
VCHOFFSETENABLE	TOGGLE	T	Vch Offset Enable
VCHOFFSET	QUANT	0	Vch Offset (V)
VCHFILTER	IQUANT	3	Vch Filter
ACHRANGE	IQUANT	2	Ach Range
ACHOFFSETENABLE	TOGGLE	F	Ach Offset Enable
ACHOFFSET	QUANT	0	Ach Offset (V)
ACHFILTER	IQUANT	3	Ach Filter
IERANGELOWERLIMIT	IQUANT	1	I/E Range Lower Limit
IERANGEMODE	TOGGLE	F	I/E AutoRange
IERANGE	IQUANT	5	I/E Range
POSFEEDENABLE	TOGGLE	F	Positive Feedback IR Comp
POSFEEDRESISTANCE	QUANT	0	Positive Feedback Resistance (ohm)
ACHSELECT	IQUANT	0	Ach Select
CABLEID	IQUANT	14	Cable ID
DCCALDATE	LABEL	8/19/2019	DC Calibration Date
ACCALDATE	LABEL	8/19/2019	AC Calibration Date
THERMOSELECT	IQUANT	1	Thermo Select
FRAMEWORKVERSION	QUANT	6.33	Framework Version
INSTRUMENTVERSION	LABEL	3.50	Instrument Version
ZCURVE	TABLE
	Pt	Time	Freq	Zreal	Zimag	Zsig	Zmod	Zphz	Idc	Vdc	IERange
	#	s	Hz	ohm	ohm	V	ohm	°	A	V	#
	0	1	1000078	1858.803	-1965.128	1	2704.972	-46.59271	5.523957E-006	0.0125653	8
	1	2	794390.6	2202.227	-2107.413	1	3048.113	-43.73966	-1.945174E-006	0.0118881	8
	2	2	630984.4	2590.042	-2226.342	1	3415.394	-40.68161	2.494445E-006	0.0124213	8
	3	2	501234.4	2985.858	-2322.407	1	3782.714	-37.87585	3.771055E-006	0.0119132	8
	4	3	398109.4	3412.091	-2366.344	1	4152.342	-34.74198	-1.616208E-006	0.0123032	8
	5	3	316265.6	3858.089	-2372.801	1	4529.353	-31.59233	8.454229E-007	0.0122294	8
	6	3	251203.1	4314.013	-2298.564	1	4888.16	-28.04929	-2.485886E-007	0.0115995	8
	7	4	199546.9	4730.277	-2216.452	1	5223.809	-25.10624	-1.193627E-006	0.0122214	8
	8	4	158578.1	5116.034	-2068.118	1	5518.234	-22.01065	7.093812E-007	0.0121998	8
	9	4	125953.1	5444.861	-1801.098	1	5735.021	-18.30363	-1.214628E-006	0.0106571	7
	10	4	100078.1	5738.925	-1635.35	1	5967.381	-15.9053	-2.621225E-007	0.0131473	7
	11	5	79453.13	5955.544	-1447.081	1	6128.829	-13.65709	-3.511846E-007	0.0110137	7
	12	5	63140.62	6122.711	-1266.516	1	6252.332	-11.68711	-1.21902E-006	0.013269	7
	13	6	50203.12	6249.497	-1115.758	1	6348.317	-10.12268	-1.213519E-006	0.0132644	7
	14	6	39890.62	6408.636	-994.313	1	6485.313	-8.819236	1.033259E-006	0.0110322	7
	15	6	31640.63	6490.477	-882.894	1	6550.251	-7.746351	9.721911E-007	0.0100766	7
	16	7	25171.88	6563.7	-807.1848	1	6613.146	-7.010868	8.626926E-007	0.0115164	7
	17	7	20015.62	6610.145	-750.9337	1	6652.663	-6.481198	8.631981E-007	0.0115103	7
	18	8	15890.62	6651.001	-717.1577	1	6689.554	-6.154256	4.103114E-007	0.0123037	7
	19	8	12609.37	6690.739	-695.2324	1	6726.763	-5.932296	1.023205E-007	0.0127291	7
	20	9	10078.13	6691.638	-704.9508	1	6728.668	-6.013814	-1.217467E-006	0.0132556	7
	21	9	8015.625	6741.524	-743.1118	1	6782.357	-6.290264	-1.214523E-006	0.0132555	7
	22	9	6328.125	6788.21	-812.7758	1	6836.695	-6.827718	-8.75317E-007	0.0134688	7
	23	10	5015.625	6860.188	-914.7216	1	6920.903	-7.594889	9.725629E-007	0.010074	7
	24	10	3984.375	6868.669	-1028.557	1	6945.254	-8.516545	7.15216E-008	0.0104538	7
	25	11	3170.956	6921.438	-1214.109	1	7027.117	-9.94919	7.413227E-008	0.0104463	7
	26	11	2527.573	6953.29	-1430.488	1	7098.911	-11.62516	-1.083759E-006	0.0134236	7
	27	11	1976.103	7018.659	-1735.486	1	7230.04	-13.8888	-1.224108E-006	0.0128983	7
	28	12	1577.524	7093.279	-2097.363	1	7396.86	-16.47206	-6.00728E-007	0.0133837	7
	29	12	1265.625	7184.626	-2507.224	1	7609.536	-19.23749	-8.845026E-007	0.0134806	7
	30	13	998.264	7313.609	-3085.751	1	7937.931	-22.87581	7.672652E-007	0.0099869	7
	31	13	796.875	7463.771	-3761.393	1	8357.987	-26.74598	6.453101E-007	0.0119559	7
	32	14	627.7902	7636.862	-4625.151	1	8928.252	-31.20057	8.72492E-007	0.0115071	7
	33	14	505.5147	7828.827	-5552.209	1	9597.79	-35.34429	-2.608715E-007	0.0131324	7
	34	14	397.9953	8130.667	-6857.672	1	10636.51	-40.14538	3.244189E-010	0.01174	6
	35	15	315.5048	8509.447	-8400.763	1	11957.57	-44.63176	1.414803E-009	0.0117388	6
	36	15	252.4038	8985.193	-10206.18	1	13597.79	-48.64034	8.011984E-010	0.0117416	6
	37	15	198.6229	9665.64	-12550.84	1	15841.34	-52.39944	1.280751E-009	0.0117401	6
	38	16	158.3615	10501.87	-15237.23	1	18505.74	-55.42446	1.362569E-009	0.011745	6
	39	16	125.558	11648.76	-18535.39	1	21891.88	-57.85227	8.694919E-010	0.0117413	6
	40	16	100.4464	13064.29	-22270.81	1	25819.85	-59.60366	-7.017834E-010	0.0117453	6
	41	17	79.00281	15168.81	-27105.71	1	31061.42	-60.76789	-2.903245E-010	0.0117408	6
	42	17	63.3446	17744.5	-32629.04	1	37141.91	-61.46154	7.754881E-010	0.0117418	6
	43	17	49.86702	20948.13	-38980.6	1	44252.81	-61.74646	9.505912E-010	0.01173	6
	44	18	39.72458	24989.56	-45756.93	1	52136.12	-61.3594	-1.145862E-010	0.0117315	6
	45	18	31.6723	29871.5	-53577.54	1	61342.15	-60.85868	6.847643E-010	0.0117424	6
	46	18	24.93351	36355.76	-62492.24	1	72298.15	-59.81068	7.291815E-010	0.0117374	6
	47	19	19.86229	43608.65	-72050.18	1	84219.61	-58.81541	1.182395E-009	0.0117322	6
	48	19	15.83615	51221.74	-83304.14	1	97791.9	-58.41363	1.37871E-009	0.0117367	6
	49	19	12.40079	61189.98	-94912.53	1	112927.4	-57.19018	2.190378E-010	0.0117368	5
	50	19	9.93114	70066.62	-107725.8	1	128507.5	-56.95936	9.574578E-010	0.0117468	5
	51	20	7.944915	79879.49	-122726.3	1	146432.5	-56.94089	1.128341E-009	0.0117343	5
	52	21	6.317385	90991.92	-140633.6	1	167503.2	-57.09656	2.672804E-010	0.0117337	5
	53	21	5.008013	103322.8	-162824.2	1	192840.2	-57.60217	7.040151E-011	0.0117361	5
	54	22	3.945707	117131.2	-190393.5	1	223538.3	-58.39991	7.977836E-011	0.011747	5
	55	24	3.158693	131617.5	-221751.8	1	257870.2	-59.30938	-1.643899E-010	0.0117364	5
	56	25	2.504006	149142.6	-260650	1	300303.1	-60.22203	2.074553E-011	0.0117352	5
	57	27	1.998082	168951.5	-306445.2	1	349933.2	-61.13087	6.17998E-011	0.0117782	5
	58	28	1.584686	192325.8	-362072.7	1	409982.8	-62.02365	5.174794E-012	0.0117387	5
	59	30	1.266892	221000.2	-426431.1	1	480296.3	-62.60431	-1.177207E-010	0.0117034	5
	60	33	0.999041	258095.1	-508564.8	1	570308.1	-63.09235	-2.018661E-010	0.0116897	5
