EXPLAIN
TAG	EISPOT
TITLE	LABEL	Potentiostatic EIS	Test &Identifier
DATE	LABEL	8/14/2018	Date
TIME	LABEL	4:54:45	Time
NOTES	NOTES	1	&Notes...
	
PSTAT	PSTAT	REF600-11020	Potentiostat
VDC	POTEN	0.00000E+000	T	DC &Voltage (V)
FREQINIT	QUANT	1.00000E+006	Initial Fre&q. (Hz)
FREQFINAL	QUANT	1.00000E+000	Final Fre&q. (Hz)
PTSPERDEC	QUANT	1.00000E+001	Points/&decade
VAC	QUANT	2.50000E+001	AC &Voltage (mV rms)
AREA	QUANT	1.00000E-002	&Area (cm^2)
CONDIT	TWOPARAM	T	5.00000E+000	0.00000E+000	Conditionin&g	Time(s)	E(V)
DELAY	TWOPARAM	T	5.00000E+000	0.00000E+000	Init. De&lay	Time(s)	Stab.(mV/s)
SPEED	SELECTOR	0	&Optimize for:
ZGUESS	QUANT	1.00000E+005	E&stimated Z (ohms)
OCVCURVE	TABLE	19
	Pt	T	Vf	Vm	Ach	Over
	#	s	V vs. Ref.	V	V	bits
	0	0.258333	5.45543E-003	5.45543E-003	5.33433E-004	...........
	1	0.516667	5.45493E-003	5.42928E-003	5.32566E-004	...........
	2	0.775	5.45241E-003	5.43351E-003	5.35133E-004	...........
	3	1.03333	5.44695E-003	5.42712E-003	5.38433E-004	...........
	4	1.29167	5.44024E-003	5.44064E-003	5.33366E-004	...........
	5	1.55	5.43600E-003	5.46689E-003	5.30466E-004	...........
	6	1.80833	5.43791E-003	5.48460E-003	5.32866E-004	...........
	7	2.06667	5.44765E-003	5.51049E-003	5.34133E-004	...........
	8	2.325	5.46397E-003	5.52558E-003	5.34366E-004	...........
	9	2.58333	5.48434E-003	5.57023E-003	5.34233E-004	...........
	10	2.84167	5.50791E-003	5.61261E-003	5.37333E-004	...........
	11	3.1	5.53613E-003	5.65151E-003	5.39333E-004	...........
	12	3.35833	5.56974E-003	5.68083E-003	5.34000E-004	...........
	13	3.61667	5.60746E-003	5.76367E-003	5.35866E-004	...........
	14	3.875	5.65032E-003	5.86121E-003	5.35966E-004	...........
	15	4.13333	5.70294E-003	5.90818E-003	5.35933E-004	...........
	16	4.39167	5.76590E-003	5.93959E-003	5.35333E-004	...........
	17	4.65	5.83083E-003	5.97377E-003	5.35699E-004	...........
	18	4.90833	5.89002E-003	6.12309E-003	5.30266E-004	...........
EOC	QUANT	0.00589	Open Circuit (V)
PSTATMODEL	IQUANT	4	Pstat Model
PSTATSECTION	LABEL	REF600-11020	Pstat Section
PSTATSERIALNO	LABEL	11020	Pstat Serial Number
CTRLMODE	IQUANT	1	Control Mode
IESTAB	IQUANT	0	I/E Stability
CASPEED	IQUANT	1	Control Amp Speed
CONVENTION	IQUANT	1	Current Convention
ICHRANGE	IQUANT	2	Ich Range
ICHRANGEMODE	TOGGLE	F	Ich Auto Range
ICHOFFSETENABLE	TOGGLE	T	Ich Offset Enable
ICHOFFSET	QUANT	0	Ich Offset (V)
ICHFILTER	IQUANT	3	Ich Filter
VCHRANGE	IQUANT	2	Vch Range
VCHRANGEMODE	TOGGLE	F	Vch Auto Range
VCHOFFSETENABLE	TOGGLE	T	Vch Offset Enable
VCHOFFSET	QUANT	0	Vch Offset (V)
VCHFILTER	IQUANT	3	Vch Filter
ACHRANGE	IQUANT	2	Ach Range
ACHOFFSETENABLE	TOGGLE	F	Ach Offset Enable
ACHOFFSET	QUANT	0	Ach Offset (V)
ACHFILTER	IQUANT	3	Ach Filter
IERANGELOWERLIMIT	IQUANT	1	I/E Range Lower Limit
IERANGEMODE	TOGGLE	F	I/E AutoRange
IERANGE	IQUANT	5	I/E Range
POSFEEDENABLE	TOGGLE	F	Positive Feedback IR Comp
POSFEEDRESISTANCE	QUANT	0	Positive Feedback Resistance (ohm)
ACHSELECT	IQUANT	0	Ach Select
CABLEID	IQUANT	14	Cable ID
DCCALDATE	LABEL	8/19/2019	DC Calibration Date
ACCALDATE	LABEL	8/19/2019	AC Calibration Date
THERMOSELECT	IQUANT	1	Thermo Select
FRAMEWORKVERSION	QUANT	6.33	Framework Version
INSTRUMENTVERSION	LABEL	3.50	Instrument Version
ZCURVE	TABLE
	Pt	Time	Freq	Zreal	Zimag	Zsig	Zmod	Zphz	Idc	Vdc	IERange
	#	s	Hz	ohm	ohm	V	ohm	°	A	V	#
	0	1	1000078	1675.542	-491.6435	1	1746.182	-16.35294	2.391626E-006	0.0078366	8
	1	1	794390.6	1739.712	-432.0269	1	1792.552	-13.94629	-4.486707E-006	0.0086439	8
	2	2	630984.4	1789.461	-373.8888	1	1828.104	-11.80156	5.084723E-006	0.0070091	8
	3	2	501234.4	1822.12	-324.0008	1	1850.702	-10.08268	-1.416892E-006	0.0077898	8
	4	2	398109.4	1852.593	-280.6714	1	1873.733	-8.614909	1.69894E-006	0.0073474	8
	5	3	316265.6	1876.169	-246.4966	1	1892.292	-7.484818	-4.913269E-007	0.0077278	8
	6	3	251203.1	1893.667	-224.4851	1	1906.926	-6.760589	-2.739298E-006	0.008137	8
	7	3	199546.9	1911.732	-209.2322	1	1923.147	-6.245958	-3.517989E-008	0.0076411	8
	8	4	158578.1	1929.491	-202.4847	1	1940.086	-5.990809	-2.13884E-007	0.0076262	8
	9	4	125953.1	1957.939	-163.0142	1	1964.714	-4.759356	-9.312101E-007	0.0094201	7
	10	4	100078.1	1972.175	-157.9961	1	1978.493	-4.580333	-2.782995E-008	0.0075744	7
	11	5	79453.13	1987.246	-169.7126	1	1994.479	-4.881267	4.794726E-009	0.0075134	7
	12	5	63140.62	2003.849	-184.1469	1	2012.293	-5.25054	-3.017717E-008	0.0075672	7
	13	5	50203.12	2023.604	-202.0841	1	2033.669	-5.702848	5.430623E-008	0.0075315	7
	14	6	39890.62	2045.168	-221.601	1	2057.139	-6.184069	2.201435E-008	0.0075257	7
	15	6	31640.63	2069.445	-246.5972	1	2084.086	-6.795382	-4.157557E-008	0.0076819	7
	16	6	25171.88	2096.087	-274.54	1	2113.99	-7.461975	-3.209294E-008	0.0076059	7
	17	7	20015.62	2124.801	-306.2332	1	2146.756	-8.20118	-3.343072E-008	0.0076066	7
	18	7	15890.62	2157.713	-346.6215	1	2185.376	-9.126196	-3.496214E-008	0.0075565	7
	19	7	12609.37	2194.247	-392.4728	1	2229.071	-10.14094	-3.225706E-008	0.0076141	7
	20	7	10078.13	2235.597	-443.0463	1	2279.075	-11.20953	6.815469E-009	0.0074784	7
	21	8	8015.625	2278.726	-501.4091	1	2333.239	-12.40956	-3.871257E-008	0.0075831	7
	22	8	6328.125	2329.042	-574.8328	1	2398.931	-13.86414	-4.07394E-008	0.007586	7
	23	8	5015.625	2382.152	-658.3214	1	2471.444	-15.44844	-4.810443E-008	0.0076127	7
	24	9	3984.375	2437.535	-757.639	1	2552.566	-17.26638	9.696224E-008	0.0074061	7
	25	9	3170.956	2497.469	-872.0359	1	2645.335	-19.24756	8.619019E-009	0.0074724	7
	26	9	2527.573	2559.35	-1011.378	1	2751.937	-21.56243	6.045589E-008	0.0074102	7
	27	10	1976.103	2629.511	-1196.264	1	2888.836	-24.46258	-2.939698E-008	0.0075499	7
	28	10	1577.524	2692.345	-1403.788	1	3036.337	-27.53752	5.989486E-008	0.0074111	7
	29	10	1265.625	2768.214	-1658.553	1	3227.043	-30.9276	6.541124E-008	0.0074249	7
	30	11	998.264	2851.107	-1997.835	1	3481.401	-35.0198	9.836679E-008	0.0074029	7
	31	11	796.875	2942.167	-2397.546	1	3795.335	-39.17628	9.805477E-008	0.0074015	7
	32	11	627.7902	3054.178	-2922.503	1	4227.177	-43.73789	9.556082E-009	0.007471	7
	33	12	505.5147	3171.393	-3513.413	1	4733.054	-47.92891	6.18092E-008	0.0074048	7
	34	12	397.9953	3332.476	-4320.452	1	5456.345	-52.35608	1.398962E-009	0.0075582	7
	35	12	315.5048	3527.037	-5289.434	1	6357.523	-56.30433	1.030667E-009	0.0075612	7
	36	13	252.4038	3762.502	-6431.78	1	7451.457	-59.67296	2.456344E-009	0.0075568	7
	37	13	198.6229	4084.363	-7938.25	1	8927.365	-62.77342	1.697834E-009	0.0075571	7
	38	13	158.3615	4475.626	-9686.99	1	10670.94	-65.20191	8.854465E-010	0.007496	6
	39	14	125.558	4990.771	-11867.7	1	12874.39	-67.19159	4.442587E-010	0.0074947	6
	40	14	100.4464	5628.32	-14424.27	1	15483.46	-68.68437	-9.629426E-010	0.0074907	6
	41	14	79.00281	6512.96	-17768.88	1	18924.89	-69.87022	1.046344E-009	0.0074895	6
	42	15	63.3446	7429.973	-21318.68	1	22576.32	-70.78556	-5.383999E-010	0.0074904	6
	43	15	49.86702	8926.336	-26152.88	1	27634.27	-71.15453	1.704132E-010	0.0074876	6
	44	15	39.72458	10696.35	-31759.42	1	33512.27	-71.38683	5.950777E-010	0.0074913	6
	45	16	31.6723	12846.13	-38377.72	1	40470.64	-71.49311	7.82766E-010	0.0074868	6
	46	16	24.93351	15807.54	-46597.13	1	49205.39	-71.26109	-1.398602E-011	0.0074847	6
	47	16	19.86229	19291.94	-55987.05	1	59217.64	-70.98714	1.039274E-009	0.0074869	6
	48	16	15.83615	23112.46	-67164.12	1	71029.6	-71.01067	6.873329E-010	0.0074848	6
	49	17	12.40079	29427.36	-80718.11	1	85914.98	-69.96969	-2.106721E-009	0.0074912	6
	50	17	9.93114	35525.84	-96404.9	1	102742.4	-69.77083	4.140157E-010	0.0074902	6
	51	18	7.944915	43098.19	-114118.3	1	121985.4	-69.31034	9.943689E-010	0.007484	5
	52	18	6.317385	52915.79	-135896.4	1	145835.2	-68.72489	5.645925E-010	0.0074763	5
	53	19	5.008013	64881.92	-161857.4	1	174377.4	-68.1562	2.727441E-010	0.0074908	5
	54	20	3.945707	80137.47	-193203.5	1	209164.1	-67.47218	-1.279575E-010	0.0074913	5
	55	21	3.158693	96646.4	-227452.1	1	247133.5	-66.97894	-1.849118E-010	0.0074745	5
	56	23	2.504006	117999.2	-269110.3	1	293843.8	-66.32357	7.085584E-011	0.007478	5
	57	24	1.998082	142137.5	-315967.6	1	346465.8	-65.77948	2.205289E-011	0.0074927	5
	58	26	1.584686	173429.9	-372086.7	1	410519.8	-65.00974	-1.298329E-010	0.0074441	5
	59	28	1.266892	208905.7	-436341.6	1	483772.3	-64.41647	-1.244628E-010	0.0074386	5
	60	30	0.999041	252276.5	-513969.6	1	572545.4	-63.85638	-1.162787E-010	0.0074518	5
