EXPLAIN
TAG	EISPOT
TITLE	LABEL	Potentiostatic EIS	Test &Identifier
DATE	LABEL	11/15/2019	Date
TIME	LABEL	12:22:18	Time
NOTES	NOTES	4	&Notes...
	
	
	
	
PSTAT	PSTAT	REF600-11020	Potentiostat
VDC	POTEN	0.00000E+000	T	DC &Voltage (V)
FREQINIT	QUANT	1.00000E+006	Initial Fre&q. (Hz)
FREQFINAL	QUANT	1.00000E+000	Final Fre&q. (Hz)
PTSPERDEC	QUANT	1.00000E+001	Points/&decade
VAC	QUANT	2.50000E+001	AC &Voltage (mV rms)
AREA	QUANT	1.00000E-002	&Area (cm^2)
CONDIT	TWOPARAM	T	5.00000E+000	0.00000E+000	Conditionin&g	Time(s)	E(V)
DELAY	TWOPARAM	T	5.00000E+000	0.00000E+000	Init. De&lay	Time(s)	Stab.(mV/s)
SPEED	SELECTOR	0	&Optimize for:
ZGUESS	QUANT	1.00000E+005	E&stimated Z (ohms)
OCVCURVE	TABLE	19
	Pt	T	Vf	Vm	Ach	Over
	#	s	V vs. Ref.	V	V	bits
	0	0.258333	5.83264E-003	5.83264E-003	5.63066E-004	...........
	1	0.516667	5.83262E-003	5.83131E-003	5.57333E-004	...........
	2	0.775	5.83272E-003	5.84341E-003	5.60599E-004	...........
	3	1.03333	5.83410E-003	5.86836E-003	5.59766E-004	...........
	4	1.29167	5.83938E-003	5.89491E-003	5.57499E-004	...........
	5	1.55	5.85126E-003	5.93046E-003	5.61166E-004	...........
	6	1.80833	5.87084E-003	5.96874E-003	5.59799E-004	...........
	7	2.06667	5.89763E-003	6.00987E-003	5.60999E-004	...........
	8	2.325	5.93029E-003	6.04970E-003	5.61099E-004	...........
	9	2.58333	5.96713E-003	6.09335E-003	5.61232E-004	...........
	10	2.84167	6.00666E-003	6.13744E-003	5.65399E-004	...........
	11	3.1	6.04779E-003	6.17186E-003	5.68532E-004	...........
	12	3.35833	6.08899E-003	6.19252E-003	5.65766E-004	...........
	13	3.61667	6.12762E-003	6.21599E-003	5.64099E-004	...........
	14	3.875	6.16144E-003	6.24842E-003	5.66266E-004	...........
	15	4.13333	6.19128E-003	6.29770E-003	5.64832E-004	...........
	16	4.39167	6.22121E-003	6.34154E-003	5.62599E-004	...........
	17	4.65	6.25507E-003	6.37281E-003	5.68166E-004	...........
	18	4.90833	6.29315E-003	6.42081E-003	5.67366E-004	...........
EOC	QUANT	0.0062932	Open Circuit (V)
PSTATMODEL	IQUANT	4	Pstat Model
PSTATSECTION	LABEL	REF600-11020	Pstat Section
PSTATSERIALNO	LABEL	11020	Pstat Serial Number
CTRLMODE	IQUANT	1	Control Mode
IESTAB	IQUANT	0	I/E Stability
CASPEED	IQUANT	1	Control Amp Speed
CONVENTION	IQUANT	1	Current Convention
ICHRANGE	IQUANT	2	Ich Range
ICHRANGEMODE	TOGGLE	F	Ich Auto Range
ICHOFFSETENABLE	TOGGLE	T	Ich Offset Enable
ICHOFFSET	QUANT	0	Ich Offset (V)
ICHFILTER	IQUANT	3	Ich Filter
VCHRANGE	IQUANT	2	Vch Range
VCHRANGEMODE	TOGGLE	F	Vch Auto Range
VCHOFFSETENABLE	TOGGLE	T	Vch Offset Enable
VCHOFFSET	QUANT	0	Vch Offset (V)
VCHFILTER	IQUANT	3	Vch Filter
ACHRANGE	IQUANT	2	Ach Range
ACHOFFSETENABLE	TOGGLE	F	Ach Offset Enable
ACHOFFSET	QUANT	0	Ach Offset (V)
ACHFILTER	IQUANT	3	Ach Filter
IERANGELOWERLIMIT	IQUANT	1	I/E Range Lower Limit
IERANGEMODE	TOGGLE	F	I/E AutoRange
IERANGE	IQUANT	5	I/E Range
POSFEEDENABLE	TOGGLE	F	Positive Feedback IR Comp
POSFEEDRESISTANCE	QUANT	0	Positive Feedback Resistance (ohm)
ACHSELECT	IQUANT	0	Ach Select
CABLEID	IQUANT	14	Cable ID
DCCALDATE	LABEL	8/19/2019	DC Calibration Date
ACCALDATE	LABEL	8/19/2019	AC Calibration Date
THERMOSELECT	IQUANT	1	Thermo Select
FRAMEWORKVERSION	QUANT	6.33	Framework Version
INSTRUMENTVERSION	LABEL	3.50	Instrument Version
ZCURVE	TABLE
	Pt	Time	Freq	Zreal	Zimag	Zsig	Zmod	Zphz	Idc	Vdc	IERange
	#	s	Hz	ohm	ohm	V	ohm	°	A	V	#
	0	1	1000078	2228.21	-1190.71	1	2526.403	-28.11913	-2.141157E-006	0.0090277	8
	1	2	794390.6	2433.129	-1111.614	1	2675.033	-24.55406	-1.566082E-007	0.0077476	8
	2	2	630984.4	2604.204	-1019.731	1	2796.736	-21.38388	-1.60491E-006	0.0084763	8
	3	2	501234.4	2753.23	-920.9323	1	2903.169	-18.49465	2.431641E-006	0.0082163	8
	4	2	398109.4	2894.759	-814.6087	1	3007.194	-15.71703	-2.405242E-006	0.0080085	8
	5	3	316265.6	2978.048	-737.1947	1	3067.935	-13.90367	-5.826666E-007	0.0075473	8
	6	3	251203.1	3067.762	-649.5995	1	3135.784	-11.9558	-2.012128E-006	0.0079688	8
	7	3	199546.9	3130.957	-596.077	1	3187.193	-10.77907	-4.448579E-006	0.0081719	8
	8	4	158578.1	3184.605	-536.8351	1	3229.536	-9.5685	5.974034E-006	0.0071425	8
	9	4	125953.1	3265.403	-472.1901	1	3299.366	-8.228161	2.615548E-006	0.0021972	7
	10	4	100078.1	3307.695	-441.4792	1	3337.027	-7.602356	9.77234E-007	0.0061389	7
	11	5	79453.13	3352.569	-430.6027	1	3380.109	-7.318976	-6.275832E-007	0.0093995	7
	12	5	63140.62	3398.753	-425.3717	1	3425.269	-7.133772	-1.230844E-006	0.0092568	7
	13	5	50203.12	3448.652	-427.7805	1	3475.083	-7.071011	1.003464E-006	0.0070994	7
	14	6	39890.62	3495.661	-433.0977	1	3522.388	-7.062716	6.037394E-007	0.0080095	7
	15	6	31640.63	3543.361	-443.0637	1	3570.954	-7.127301	-1.043329E-006	0.0083034	7
	16	6	25171.88	3590.881	-461.4396	1	3620.407	-7.32256	-1.044231E-006	0.0083054	7
	17	7	20015.62	3640.334	-485.9283	1	3672.623	-7.603155	-1.21817E-006	0.008876	7
	18	7	15890.62	3693.713	-518.0854	1	3729.87	-7.9843	-2.922594E-007	0.006932	7
	19	7	12609.37	3745.479	-559.4617	1	3787.032	-8.495451	-2.909936E-007	0.0069359	7
	20	7	10078.13	3801.245	-608.027	1	3849.566	-9.087748	6.040394E-007	0.0080079	7
	21	8	8015.625	3855.006	-672.1246	1	3913.16	-9.89017	-6.27902E-007	0.0093942	7
	22	8	6328.125	3914.207	-753.3212	1	3986.039	-10.89384	-2.93447E-007	0.0069292	7
	23	8	5015.625	3976.878	-854.7038	1	4067.687	-12.12941	4.927429E-007	0.006131	7
	24	9	3984.375	4036.381	-974.343	1	4152.314	-13.57103	-1.217806E-006	0.0088686	7
	25	9	3170.956	4105.625	-1124.632	1	4256.872	-15.31896	1.006082E-006	0.0070976	7
	26	9	2527.573	4166.207	-1307.286	1	4366.495	-17.42098	-1.040389E-006	0.0082976	7
	27	10	1976.103	4242.721	-1560.91	1	4520.743	-20.19873	-7.156233E-007	0.0076146	7
	28	10	1577.524	4298.327	-1857.94	1	4682.687	-23.37628	4.953729E-007	0.0061315	7
	29	10	1265.625	4397.59	-2202.963	1	4918.521	-26.60847	-1.218032E-006	0.0088662	7
	30	11	998.264	4496.873	-2676.115	1	5232.92	-30.75712	-1.218398E-006	0.0088675	7
	31	11	796.875	4611.785	-3240.031	1	5636.166	-35.09013	1.006535E-006	0.007096	7
	32	11	627.7902	4754.081	-3969.589	1	6193.458	-39.86139	-2.8995E-007	0.006927	7
	33	12	505.5147	4920.833	-4789.68	1	6866.996	-44.22619	-7.245525E-007	0.0076072	7
	34	12	397.9953	5138.71	-5903.637	1	7826.83	-48.96267	1.628431E-009	0.0078205	7
	35	12	315.5048	5411.436	-7241.504	1	9040.078	-53.22995	1.840349E-009	0.0078163	7
	36	13	252.4038	5745.117	-8814.656	1	10521.62	-56.90495	5.196601E-010	0.0077506	6
	37	13	198.6229	6206.519	-10891.34	1	12535.63	-60.32299	-3.420236E-012	0.007761	6
	38	13	158.3615	6767.286	-13296.44	1	14919.5	-63.02597	2.372074E-010	0.0077541	6
	39	14	125.558	7524.432	-16298.03	1	17951.13	-65.2183	-2.599869E-010	0.0077652	6
	40	14	100.4464	8474.896	-19814.37	1	21550.71	-66.8429	-7.15382E-010	0.0077507	6
	41	14	79.00281	9786.66	-24423.19	1	26311.04	-68.16344	-8.143398E-011	0.0077521	6
	42	15	63.3446	11184.87	-29517.23	1	31565.3	-69.24696	3.041788E-010	0.0077541	6
	43	15	49.86702	13589.97	-36082.79	1	38557.16	-69.36197	6.610322E-011	0.0077494	6
	44	15	39.72458	16725.32	-43522.3	1	46625.39	-68.97858	8.372958E-010	0.0077453	6
	45	16	31.6723	20596.61	-52340.36	1	56247.08	-68.51972	2.666301E-010	0.0077413	6
	46	16	24.93351	26041.87	-62960.59	1	68133.8	-67.52895	-5.218622E-010	0.0077412	6
	47	16	19.86229	32533.89	-74608.2	1	81393.11	-66.43976	-1.281354E-009	0.0077418	6
	48	16	15.83615	40413.27	-87597.24	1	96470.3	-65.23361	-5.153983E-010	0.0077584	6
	49	17	12.40079	51897.98	-103506.7	1	115788.8	-63.37094	-4.256443E-010	0.0077625	5
	50	17	9.93114	63844.18	-118740.5	1	134816.1	-61.73405	9.845673E-010	0.007762	5
	51	18	7.944915	77454.34	-136140.4	1	156631.4	-60.36316	-1.983344E-010	0.007765	5
	52	18	6.317385	92904.15	-154680.8	1	180436.5	-59.0102	-1.854416E-011	0.0077598	5
	53	19	5.008013	110255.7	-176067.5	1	207740.4	-57.94467	2.620189E-010	0.0077591	5
	54	20	3.945707	129609.1	-201200	1	239332.3	-57.21116	-3.159543E-010	0.0077447	5
	55	22	3.158693	149007.6	-228094.1	1	272452.2	-56.84451	-1.509549E-011	0.0077335	5
	56	23	2.504006	170766.1	-261590.8	1	312395.2	-56.86356	1.064167E-010	0.0077457	5
	57	25	1.998082	194057.5	-299635.8	1	356987.3	-57.07111	-2.189204E-010	0.0077103	5
	58	26	1.584686	220423.1	-347850.2	1	411808.3	-57.63869	-2.341824E-010	0.0077023	5
	59	28	1.266892	248868.9	-402109.3	1	472892.8	-58.24628	-1.310636E-010	0.0077365	5
	60	31	0.999041	284698.4	-470932.8	1	550300.8	-58.8453	-8.849906E-011	0.0077659	5
