EXPLAIN
TAG	EISPOT
TITLE	LABEL	Potentiostatic IDE	Test &Identifier
DATE	LABEL	9/10/2019	Date
TIME	LABEL	9:33:29	Time
NOTES	NOTES	1	&Notes...
	
PSTAT	PSTAT	REF600-11020	Potentiostat
VDC	POTEN	0.00000E+000	T	DC &Voltage (V)
FREQINIT	QUANT	1.00000E+006	Initial Fre&q. (Hz)
FREQFINAL	QUANT	1.00000E+000	Final Fre&q. (Hz)
PTSPERDEC	QUANT	1.00000E+001	Points/&decade
VAC	QUANT	2.50000E+001	AC &Voltage (mV rms)
AREA	QUANT	1.00000E-002	&Area (cm^2)
CONDIT	TWOPARAM	T	5.00000E+000	0.00000E+000	Conditionin&g	Time(s)	E(V)
DELAY	TWOPARAM	T	5.00000E+000	0.00000E+000	Init. De&lay	Time(s)	Stab.(mV/s)
SPEED	SELECTOR	1	&Optimize for:
ZGUESS	QUANT	1.00000E+007	E&stimated Z (ohms)
OCVCURVE	TABLE	19
	Pt	T	Vf	Vm	Ach	Over
	#	s	V vs. Ref.	V	V	bits
	0	0.258333	4.41417E-003	4.41417E-003	5.57732E-004	...........
	1	0.516667	4.40948E-003	4.16860E-003	5.57666E-004	...........
	2	0.775	4.38105E-003	3.95594E-003	5.59832E-004	...........
	3	1.03333	4.30209E-003	3.76051E-003	5.52166E-004	...........
	4	1.29167	4.16421E-003	3.58349E-003	5.57366E-004	...........
	5	1.55	3.98645E-003	3.41969E-003	5.56399E-004	...........
	6	1.80833	3.79653E-003	3.26932E-003	5.58766E-004	...........
	7	2.06667	3.61327E-003	3.12817E-003	5.59132E-004	...........
	8	2.325	3.44386E-003	2.99404E-003	5.57632E-004	...........
	9	2.58333	3.28842E-003	2.86979E-003	5.62199E-004	...........
	10	2.84167	3.14458E-003	2.74786E-003	5.55633E-004	...........
	11	3.1	3.00986E-003	2.62988E-003	5.55599E-004	...........
	12	3.35833	2.88223E-003	2.52025E-003	5.56866E-004	...........
	13	3.61667	2.76039E-003	2.41581E-003	5.58666E-004	...........
	14	3.875	2.64393E-003	2.31303E-003	5.58266E-004	...........
	15	4.13333	2.53270E-003	2.21633E-003	5.60899E-004	...........
	16	4.39167	2.42631E-003	2.12192E-003	5.61832E-004	...........
	17	4.65	2.32425E-003	2.02956E-003	5.61366E-004	...........
	18	4.90833	2.22598E-003	1.94068E-003	5.60999E-004	...........
EOC	QUANT	0.002226	Open Circuit (V)
PSTATMODEL	IQUANT	4	Pstat Model
PSTATSECTION	LABEL	REF600-11020	Pstat Section
PSTATSERIALNO	LABEL	11020	Pstat Serial Number
CTRLMODE	IQUANT	1	Control Mode
IESTAB	IQUANT	0	I/E Stability
CASPEED	IQUANT	1	Control Amp Speed
CONVENTION	IQUANT	1	Current Convention
ICHRANGE	IQUANT	2	Ich Range
ICHRANGEMODE	TOGGLE	F	Ich Auto Range
ICHOFFSETENABLE	TOGGLE	T	Ich Offset Enable
ICHOFFSET	QUANT	0	Ich Offset (V)
ICHFILTER	IQUANT	3	Ich Filter
VCHRANGE	IQUANT	2	Vch Range
VCHRANGEMODE	TOGGLE	F	Vch Auto Range
VCHOFFSETENABLE	TOGGLE	T	Vch Offset Enable
VCHOFFSET	QUANT	0	Vch Offset (V)
VCHFILTER	IQUANT	3	Vch Filter
ACHRANGE	IQUANT	2	Ach Range
ACHOFFSETENABLE	TOGGLE	F	Ach Offset Enable
ACHOFFSET	QUANT	0	Ach Offset (V)
ACHFILTER	IQUANT	3	Ach Filter
IERANGELOWERLIMIT	IQUANT	1	I/E Range Lower Limit
IERANGEMODE	TOGGLE	F	I/E AutoRange
IERANGE	IQUANT	2	I/E Range
POSFEEDENABLE	TOGGLE	F	Positive Feedback IR Comp
POSFEEDRESISTANCE	QUANT	0	Positive Feedback Resistance (ohm)
ACHSELECT	IQUANT	0	Ach Select
CABLEID	IQUANT	14	Cable ID
DCCALDATE	LABEL	8/19/2019	DC Calibration Date
ACCALDATE	LABEL	8/19/2019	AC Calibration Date
THERMOSELECT	IQUANT	1	Thermo Select
FRAMEWORKVERSION	QUANT	6.33	Framework Version
INSTRUMENTVERSION	LABEL	3.50	Instrument Version
ZCURVE	TABLE
	Pt	Time	Freq	Zreal	Zimag	Zsig	Zmod	Zphz	Idc	Vdc	IERange
	#	s	Hz	ohm	ohm	V	ohm	°	A	V	#
	0	2	1000078	2679.026	-1976.398	1	3329.163	-36.41732	1.330099E-006	0.0043231	8
	1	3	794390.6	3068.765	-1909.458	1	3614.325	-31.89084	3.753879E-006	0.003516	8
	2	5	630984.4	3432.097	-1771.945	1	3862.523	-27.30669	3.275203E-007	0.0037929	8
	3	6	501234.4	3733.703	-1591.445	1	4058.723	-23.08553	-2.8428E-006	0.0045864	8
	4	7	398109.4	3980.911	-1404.262	1	4221.327	-19.43024	-2.859144E-007	0.0040385	8
	5	9	316265.6	4173.936	-1218.703	1	4348.215	-16.27672	3.296222E-006	0.0033568	8
	6	11	251203.1	4302.818	-1032.824	1	4425.039	-13.49759	2.729897E-006	0.0032848	8
	7	12	199546.9	4414.241	-895.9948	1	4504.257	-11.47391	2.762771E-006	0.0032878	8
	8	13	158578.1	4503.559	-774.5349	1	4569.677	-9.75843	2.609017E-006	0.003402	8
	9	15	125953.1	4575.053	-643.5124	1	4620.089	-8.006516	-1.70914E-007	0.003851	7
	10	16	100078.1	4617.63	-571.5439	1	4652.867	-7.055859	-4.943566E-008	0.0040187	7
	11	17	79453.13	4659.577	-518.7322	1	4688.362	-6.352355	-3.891388E-008	0.0039123	7
	12	19	63140.62	4700.798	-484.6137	1	4725.712	-5.885932	-2.566679E-008	0.0038649	7
	13	20	50203.12	4734.15	-459.8862	1	4756.435	-5.548435	-2.601215E-008	0.0039034	7
	14	21	39890.62	4772.543	-450.3808	1	4793.748	-5.390987	-3.537123E-008	0.0039369	7
	15	23	31640.63	4803.038	-450.6436	1	4824.132	-5.360067	-4.565702E-008	0.0039308	7
	16	24	25171.88	4843.33	-463.1805	1	4865.427	-5.462735	6.516434E-008	0.0037207	7
	17	25	20015.62	4877.233	-490.6604	1	4901.852	-5.744753	-1.401989E-008	0.0038386	7
	18	27	15890.62	4914.922	-527.3671	1	4943.134	-6.124358	-7.090834E-009	0.0038607	7
	19	28	12609.37	4952.928	-582.7154	1	4987.089	-6.710042	1.488875E-008	0.0037901	7
	20	29	10078.13	4995.525	-651.4477	1	5037.823	-7.4298	-3.755986E-009	0.003893	7
	21	31	8015.625	5038.249	-742.9124	1	5092.728	-8.388074	-2.410094E-008	0.0039059	7
	22	32	6328.125	5089.334	-860.3535	1	5161.544	-9.59515	5.557708E-008	0.003763	7
	23	33	5015.625	5144.309	-1008.022	1	5242.139	-11.08658	6.519559E-008	0.0037233	7
	24	35	3984.375	5209.386	-1184.645	1	5342.386	-12.81152	-4.308168E-008	0.0039224	7
	25	36	3170.956	5274.138	-1407.388	1	5458.688	-14.94106	-4.338952E-008	0.003927	7
	26	37	2527.573	5356.748	-1675.186	1	5612.575	-17.36574	-2.905007E-008	0.0038734	7
	27	39	1976.103	5459.436	-2032.89	1	5825.64	-20.42345	-3.266308E-008	0.0039277	7
	28	40	1577.524	5574.671	-2430.573	1	6081.5	-23.55734	6.698176E-008	0.0038051	7
	29	41	1265.625	5704.105	-2900.676	1	6399.276	-26.95444	-4.417872E-008	0.0039984	7
	30	43	998.264	5864.006	-3514.427	1	6836.502	-30.93518	1.704529E-008	0.0039098	7
	31	44	796.875	6050.135	-4227.805	1	7380.953	-34.94566	-1.376722E-008	0.0038766	7
	32	45	627.7902	6279.935	-5137.14	1	8113.432	-39.284	-4.70678E-008	0.0039167	7
	33	47	505.5147	6527.007	-6157.218	1	8972.913	-43.3301	8.549367E-008	0.0037489	7
	34	48	397.9953	6839.522	-7512.673	1	10159.69	-47.68534	9.012195E-010	0.003814	6
	35	49	315.5048	7192.875	-9136.559	1	11628.16	-51.78795	6.426647E-010	0.0038113	6
	36	51	252.4038	7591.6	-11044.27	1	13401.8	-55.49618	9.03947E-010	0.0038046	6
	37	52	198.6229	8093.846	-13566.91	1	15797.83	-59.18023	1.140498E-009	0.0038124	6
	38	53	158.3615	8663.031	-16508.99	1	18643.89	-62.31192	1.102494E-009	0.0038096	6
	39	55	125.558	9370.422	-20227.26	1	22292.3	-65.14373	9.153284E-010	0.003813	6
	40	56	100.4464	10220.64	-24635.28	1	26671.3	-67.46751	1.420799E-009	0.0038114	6
	41	57	79.00281	11354.78	-30505.62	1	32550.32	-69.58376	5.412937E-010	0.0038117	6
	42	59	63.3446	12755.06	-36919.32	1	39060.57	-70.94075	9.067564E-010	0.0038094	6
	43	60	49.86702	14649.92	-46057.86	1	48331.63	-72.35535	1.19984E-009	0.0038103	6
	44	61	39.72458	17043.55	-56155.17	1	58684.63	-73.11652	9.875104E-010	0.0038158	6
	45	63	31.6723	20180.35	-68716.98	1	71618.91	-73.63389	5.655514E-010	0.0038079	6
	46	64	24.93351	24636.47	-84573.93	1	88089.19	-73.7591	1.129638E-009	0.0038137	6
	47	65	19.86229	30376.05	-102948.6	1	107336.5	-73.56076	6.479754E-010	0.0038203	5
	48	67	15.83615	37505.92	-125450.9	1	130937.4	-73.35497	1.348585E-009	0.0038157	5
	49	68	12.40079	49110.04	-153536.5	1	161199.4	-72.26266	1.232241E-010	0.0038167	5
	50	70	9.93114	61187.75	-183685.7	1	193608.9	-71.57652	3.074239E-010	0.0038257	5
	51	71	7.944915	77883.4	-219024.5	1	232459.7	-70.42501	7.051835E-010	0.0038129	5
	52	73	6.317385	99724.5	-261216.5	1	279605.2	-69.10466	3.21636E-010	0.0038144	5
	53	75	5.008013	127944.6	-310503	1	335830.2	-67.6056	2.149928E-010	0.0038114	5
	54	77	3.945707	164585.2	-367495.1	1	402667.3	-65.87445	4.799584E-010	0.0038223	5
	55	80	3.158693	206846.1	-426537	1	474045.5	-64.12926	3.51487E-010	0.0038348	5
	56	83	2.504006	260081.3	-495807.4	1	559881.4	-62.32024	2.05872E-011	0.0038187	5
	57	86	1.998082	321160.1	-567761.8	1	652301.5	-60.5049	5.196585E-011	0.0038021	5
	58	89	1.584686	394531.4	-645033.6	1	756123.9	-58.54818	1.361324E-010	0.0038535	5
	59	93	1.266892	475419.7	-728294.1	1	869733.4	-56.86409	1.043503E-010	0.0037818	5
	60	97	0.999041	570015.9	-820426.6	1	999008	-55.2092	3.068831E-010	0.0038616	5
