EXPLAIN
TAG	EISPOT
TITLE	LABEL	Potentiostatic EIS	Test &Identifier
DATE	LABEL	10/31/2019	Date
TIME	LABEL	23:36:39	Time
NOTES	NOTES	1	&Notes...
	
PSTAT	PSTAT	REF600-11020	Potentiostat
VDC	POTEN	0.00000E+000	T	DC &Voltage (V)
FREQINIT	QUANT	1.00000E+006	Initial Fre&q. (Hz)
FREQFINAL	QUANT	1.00000E+000	Final Fre&q. (Hz)
PTSPERDEC	QUANT	1.00000E+001	Points/&decade
VAC	QUANT	2.50000E+001	AC &Voltage (mV rms)
AREA	QUANT	1.00000E-002	&Area (cm^2)
CONDIT	TWOPARAM	T	5.00000E+000	0.00000E+000	Conditionin&g	Time(s)	E(V)
DELAY	TWOPARAM	T	5.00000E+000	0.00000E+000	Init. De&lay	Time(s)	Stab.(mV/s)
SPEED	SELECTOR	0	&Optimize for:
ZGUESS	QUANT	1.00000E+005	E&stimated Z (ohms)
OCVCURVE	TABLE	19
	Pt	T	Vf	Vm	Ach	Over
	#	s	V vs. Ref.	V	V	bits
	0	0.258333	6.74620E-003	6.74620E-003	5.34699E-004	...........
	1	0.516667	6.74636E-003	6.75455E-003	5.40433E-004	...........
	2	0.775	6.74840E-003	6.81798E-003	5.34200E-004	...........
	3	1.03333	6.75789E-003	6.88913E-003	5.34966E-004	...........
	4	1.29167	6.78221E-003	6.93946E-003	5.35600E-004	...........
	5	1.55	6.82456E-003	7.05369E-003	5.30333E-004	...........
	6	1.80833	6.88550E-003	7.23920E-003	5.35600E-004	...........
	7	2.06667	6.97068E-003	7.42818E-003	5.29866E-004	...........
	8	2.325	7.08266E-003	7.31507E-003	5.36033E-004	...........
	9	2.58333	7.20444E-003	7.55971E-003	5.39066E-004	...........
	10	2.84167	7.31311E-003	7.51431E-003	5.36966E-004	...........
	11	3.1	7.40413E-003	7.69772E-003	5.30833E-004	...........
	12	3.35833	7.48671E-003	7.72713E-003	5.42533E-004	...........
	13	3.61667	7.57208E-003	8.00559E-003	5.26066E-004	...........
	14	3.875	7.67037E-003	7.94740E-003	5.36466E-004	...........
	15	4.13333	7.78150E-003	8.14919E-003	5.31266E-004	...........
	16	4.39167	7.89401E-003	8.16515E-003	5.41366E-004	...........
	17	4.65	7.99702E-003	8.20171E-003	5.37033E-004	...........
	18	4.90833	8.08544E-003	8.33873E-003	5.38899E-004	...........
EOC	QUANT	0.0080854	Open Circuit (V)
PSTATMODEL	IQUANT	4	Pstat Model
PSTATSECTION	LABEL	REF600-11020	Pstat Section
PSTATSERIALNO	LABEL	11020	Pstat Serial Number
CTRLMODE	IQUANT	1	Control Mode
IESTAB	IQUANT	0	I/E Stability
CASPEED	IQUANT	1	Control Amp Speed
CONVENTION	IQUANT	1	Current Convention
ICHRANGE	IQUANT	2	Ich Range
ICHRANGEMODE	TOGGLE	F	Ich Auto Range
ICHOFFSETENABLE	TOGGLE	T	Ich Offset Enable
ICHOFFSET	QUANT	0	Ich Offset (V)
ICHFILTER	IQUANT	3	Ich Filter
VCHRANGE	IQUANT	2	Vch Range
VCHRANGEMODE	TOGGLE	F	Vch Auto Range
VCHOFFSETENABLE	TOGGLE	T	Vch Offset Enable
VCHOFFSET	QUANT	0	Vch Offset (V)
VCHFILTER	IQUANT	3	Vch Filter
ACHRANGE	IQUANT	2	Ach Range
ACHOFFSETENABLE	TOGGLE	F	Ach Offset Enable
ACHOFFSET	QUANT	0	Ach Offset (V)
ACHFILTER	IQUANT	3	Ach Filter
IERANGELOWERLIMIT	IQUANT	1	I/E Range Lower Limit
IERANGEMODE	TOGGLE	F	I/E AutoRange
IERANGE	IQUANT	5	I/E Range
POSFEEDENABLE	TOGGLE	F	Positive Feedback IR Comp
POSFEEDRESISTANCE	QUANT	0	Positive Feedback Resistance (ohm)
ACHSELECT	IQUANT	0	Ach Select
CABLEID	IQUANT	14	Cable ID
DCCALDATE	LABEL	8/19/2019	DC Calibration Date
ACCALDATE	LABEL	8/19/2019	AC Calibration Date
THERMOSELECT	IQUANT	1	Thermo Select
FRAMEWORKVERSION	QUANT	6.33	Framework Version
INSTRUMENTVERSION	LABEL	3.50	Instrument Version
ZCURVE	TABLE
	Pt	Time	Freq	Zreal	Zimag	Zsig	Zmod	Zphz	Idc	Vdc	IERange
	#	s	Hz	ohm	ohm	V	ohm	°	A	V	#
	0	2	1000078	1496.115	-428.5985	1	1556.296	-15.98565	-8.174964E-006	0.010732	8
	1	2	794390.6	1551.931	-368.8058	1	1595.152	-13.36798	1.998209E-006	0.0104011	8
	2	2	630984.4	1592.568	-315.738	1	1623.565	-11.21389	1.733457E-006	0.0092263	8
	3	3	501234.4	1620.044	-275.9669	1	1643.381	-9.66727	5.887128E-006	0.0088843	8
	4	3	398109.4	1643.613	-243.1553	1	1661.502	-8.415273	-3.056714E-006	0.0095169	8
	5	3	316265.6	1664.811	-216.9227	1	1678.884	-7.423739	-1.501938E-006	0.0093847	8
	6	4	251203.1	1682.922	-196.9625	1	1694.409	-6.675303	-1.593593E-006	0.0093791	8
	7	4	199546.9	1697.439	-182.4368	1	1707.215	-6.13447	-1.176747E-006	0.0099414	8
	8	4	158578.1	1714.514	-175.8534	1	1723.509	-5.856207	1.853216E-006	0.0091312	8
	9	5	125953.1	1736.088	-146.7407	1	1742.278	-4.831374	-2.130663E-006	0.0112768	7
	10	5	100078.1	1747.42	-146.5625	1	1753.556	-4.794385	-5.580554E-007	0.0094346	7
	11	5	79453.13	1763.122	-155.5656	1	1769.972	-5.042324	3.37304E-007	0.0083136	7
	12	5	63140.62	1778.509	-168.9988	1	1786.52	-5.428103	4.795031E-007	0.0096093	7
	13	6	50203.12	1796.359	-184.8647	1	1805.846	-5.87567	-5.61073E-007	0.0094332	7
	14	6	39890.62	1816.876	-204.2425	1	1828.32	-6.413928	-2.437984E-007	0.0089081	7
	15	6	31640.63	1838.758	-226.6096	1	1852.669	-7.025739	3.356243E-007	0.0083086	7
	16	7	25171.88	1862.648	-252.4397	1	1879.676	-7.718118	-4.469637E-007	0.0107041	7
	17	7	20015.62	1889.81	-283.7101	1	1910.988	-8.537838	6.37497E-008	0.008528	7
	18	7	15890.62	1919.869	-319.4146	1	1946.258	-9.44596	3.302408E-007	0.0098475	7
	19	8	12609.37	1952.98	-360.7963	1	1986.027	-10.4669	-1.962716E-007	0.0105134	7
	20	8	10078.13	1988.843	-407.6259	1	2030.186	-11.58272	4.834694E-007	0.0096109	7
	21	8	8015.625	2028.119	-463.7554	1	2080.465	-12.87998	-9.289996E-007	0.0106498	7
	22	9	6328.125	2073.034	-532.5272	1	2140.34	-14.40681	5.52807E-007	0.0082258	7
	23	9	5015.625	2119.247	-611.8592	1	2205.806	-16.10424	-5.603619E-007	0.0094282	7
	24	9	3984.375	2167.613	-705.3739	1	2279.495	-18.02567	-9.30109E-007	0.0106478	7
	25	10	3170.956	2220.105	-817.7168	1	2365.91	-20.21993	7.637015E-007	0.0089444	7
	26	10	2527.573	2273.435	-952.87	1	2465.049	-22.74013	3.307175E-007	0.0098483	7
	27	10	1976.103	2334.325	-1134.454	1	2595.392	-25.91919	8.333232E-008	0.0101898	7
	28	11	1577.524	2388.288	-1338.522	1	2737.802	-29.26856	6.348653E-007	0.009307	7
	29	11	1265.625	2458.143	-1592.309	1	2928.808	-32.93392	8.39653E-008	0.010191	7
	30	11	998.264	2533.703	-1928.043	1	3183.866	-37.26963	-2.433499E-007	0.0088996	7
	31	12	796.875	2618.065	-2325.387	1	3501.67	-41.61176	8.170903E-007	0.0086352	7
	32	12	627.7902	2723.363	-2846.283	1	3939.293	-46.26429	8.190501E-007	0.0086401	7
	33	12	505.5147	2844.893	-3425.181	1	4452.559	-50.28759	3.285237E-007	0.0098374	7
	34	13	397.9953	3004.036	-4218.259	1	5178.604	-54.54341	3.592137E-011	0.0095414	7
	35	13	315.5048	3201.799	-5168.447	1	6079.833	-58.22222	-3.382532E-010	0.0095424	7
	36	13	252.4038	3441.04	-6285.16	1	7165.472	-61.29989	-2.690421E-010	0.0095384	7
	37	13	198.6229	3770.584	-7754.649	1	8622.754	-64.06934	3.413889E-010	0.0095417	7
	38	14	158.3615	4170.286	-9455.12	1	10333.95	-66.19958	-1.439676E-009	0.0095385	7
	39	14	125.558	4701.232	-11569.05	1	12487.77	-67.88499	-4.369352E-010	0.0094764	6
	40	14	100.4464	5353.731	-14037.11	1	15023.41	-69.12324	5.986399E-010	0.0094735	6
	41	15	79.00281	6237.976	-17262.75	1	18355.24	-70.13244	-1.788036E-010	0.0094694	6
	42	15	63.3446	7257.163	-20634.5	1	21873.47	-70.6232	-8.434328E-010	0.0094733	6
	43	15	49.86702	8713.395	-25283.51	1	26742.83	-70.98463	-9.562864E-010	0.0094653	6
	44	16	39.72458	10464.29	-30656.67	1	32393.41	-71.15327	-1.806076E-010	0.0094763	6
	45	16	31.6723	12656.58	-36926.55	1	39035.36	-71.08084	-6.279032E-010	0.0094705	6
	46	17	24.93351	15513.55	-44713.68	1	47328.46	-70.86563	2.763635E-010	0.0094716	6
	47	17	19.86229	18819.32	-53545.98	1	56756.84	-70.63542	1.020518E-009	0.0094799	6
	48	17	15.83615	23149.96	-64636.72	1	68657.31	-70.29476	-2.794027E-009	0.0094659	6
	49	17	12.40079	28115.51	-77352.96	1	82304.09	-70.02529	6.092242E-010	0.0094716	6
	50	18	9.93114	34441.57	-91830.01	1	98076.4	-69.44105	2.307703E-010	0.0094619	6
	51	18	7.944915	41709.4	-108945.9	1	116657.2	-69.05091	-4.489644E-010	0.0094717	5
	52	19	6.317385	50766.43	-129617.8	1	139204.9	-68.61158	-5.957846E-010	0.0094786	5
	53	20	5.008013	62140.01	-154370.3	1	166407.9	-68.07332	-2.858014E-010	0.0094779	5
	54	21	3.945707	75856.39	-184480.9	1	199467.8	-67.64811	-3.561227E-010	0.0094636	5
	55	22	3.158693	92004.16	-217363	1	236032.7	-67.0583	6.079998E-011	0.0094811	5
	56	24	2.504006	111726.3	-257607.1	1	280792.1	-66.55322	-1.318474E-010	0.0094791	5
	57	25	1.998082	135204.1	-303339.1	1	332106.5	-65.97654	-2.957441E-010	0.0094342	5
	58	27	1.584686	163603.6	-357446.1	1	393107.9	-65.40636	-1.750285E-010	0.0094686	5
	59	29	1.266892	198433.6	-418082.9	1	462784.2	-64.6097	-7.339087E-011	0.0094969	5
	60	31	0.999041	240556.3	-493118.6	1	548665	-63.99565	-8.601606E-011	0.0095084	5
