EXPLAIN
TAG	EISPOT
TITLE	LABEL	Potentiostatic EIS	Test &Identifier
DATE	LABEL	9/24/2019	Date
TIME	LABEL	8:35:41	Time
NOTES	NOTES	1	&Notes...
	
PSTAT	PSTAT	REF600-11020	Potentiostat
VDC	POTEN	0.00000E+000	T	DC &Voltage (V)
FREQINIT	QUANT	1.00000E+006	Initial Fre&q. (Hz)
FREQFINAL	QUANT	1.00000E+000	Final Fre&q. (Hz)
PTSPERDEC	QUANT	1.00000E+001	Points/&decade
VAC	QUANT	2.50000E+001	AC &Voltage (mV rms)
AREA	QUANT	1.00000E-002	&Area (cm^2)
CONDIT	TWOPARAM	T	5.00000E+000	0.00000E+000	Conditionin&g	Time(s)	E(V)
DELAY	TWOPARAM	T	5.00000E+000	0.00000E+000	Init. De&lay	Time(s)	Stab.(mV/s)
SPEED	SELECTOR	1	&Optimize for:
ZGUESS	QUANT	1.00000E+004	E&stimated Z (ohms)
OCVCURVE	TABLE	19
	Pt	T	Vf	Vm	Ach	Over
	#	s	V vs. Ref.	V	V	bits
	0	0.258333	-1.97767E-002	-1.97767E-002	6.21332E-004	...........
	1	0.516667	-1.98077E-002	-2.14022E-002	6.25798E-004	...........
	2	0.775	-1.99981E-002	-2.29288E-002	6.27165E-004	...........
	3	1.03333	-2.05357E-002	-2.43815E-002	6.21698E-004	...........
	4	1.29167	-2.14942E-002	-2.57511E-002	6.28565E-004	...........
	5	1.55	-2.27628E-002	-2.70588E-002	6.33198E-004	...........
	6	1.80833	-2.41613E-002	-2.83000E-002	6.22965E-004	...........
	7	2.06667	-2.55581E-002	-2.94994E-002	6.25965E-004	...........
	8	2.325	-2.68957E-002	-3.06439E-002	6.28398E-004	...........
	9	2.58333	-2.81647E-002	-3.17878E-002	6.26031E-004	...........
	10	2.84167	-2.93750E-002	-3.28431E-002	6.31298E-004	...........
	11	3.1	-3.05368E-002	-3.38501E-002	6.28431E-004	...........
	12	3.35833	-3.16530E-002	-3.48407E-002	6.20332E-004	...........
	13	3.61667	-3.27232E-002	-3.57842E-002	6.21498E-004	...........
	14	3.875	-3.37495E-002	-3.66961E-002	6.28098E-004	...........
	15	4.13333	-3.47362E-002	-3.75836E-002	6.31065E-004	...........
	16	4.39167	-3.56867E-002	-3.84244E-002	6.28431E-004	...........
	17	4.65	-3.66037E-002	-3.92673E-002	6.28165E-004	...........
	18	4.90833	-3.74900E-002	-4.00858E-002	6.26398E-004	...........
EOC	QUANT	-0.03749	Open Circuit (V)
PSTATMODEL	IQUANT	4	Pstat Model
PSTATSECTION	LABEL	REF600-11020	Pstat Section
PSTATSERIALNO	LABEL	11020	Pstat Serial Number
CTRLMODE	IQUANT	1	Control Mode
IESTAB	IQUANT	0	I/E Stability
CASPEED	IQUANT	1	Control Amp Speed
CONVENTION	IQUANT	1	Current Convention
ICHRANGE	IQUANT	2	Ich Range
ICHRANGEMODE	TOGGLE	F	Ich Auto Range
ICHOFFSETENABLE	TOGGLE	T	Ich Offset Enable
ICHOFFSET	QUANT	0	Ich Offset (V)
ICHFILTER	IQUANT	3	Ich Filter
VCHRANGE	IQUANT	2	Vch Range
VCHRANGEMODE	TOGGLE	F	Vch Auto Range
VCHOFFSETENABLE	TOGGLE	T	Vch Offset Enable
VCHOFFSET	QUANT	0	Vch Offset (V)
VCHFILTER	IQUANT	3	Vch Filter
ACHRANGE	IQUANT	2	Ach Range
ACHOFFSETENABLE	TOGGLE	F	Ach Offset Enable
ACHOFFSET	QUANT	0	Ach Offset (V)
ACHFILTER	IQUANT	3	Ach Filter
IERANGELOWERLIMIT	IQUANT	1	I/E Range Lower Limit
IERANGEMODE	TOGGLE	F	I/E AutoRange
IERANGE	IQUANT	6	I/E Range
POSFEEDENABLE	TOGGLE	F	Positive Feedback IR Comp
POSFEEDRESISTANCE	QUANT	0	Positive Feedback Resistance (ohm)
ACHSELECT	IQUANT	0	Ach Select
CABLEID	IQUANT	14	Cable ID
DCCALDATE	LABEL	8/19/2019	DC Calibration Date
ACCALDATE	LABEL	8/19/2019	AC Calibration Date
THERMOSELECT	IQUANT	1	Thermo Select
FRAMEWORKVERSION	QUANT	6.33	Framework Version
INSTRUMENTVERSION	LABEL	3.50	Instrument Version
ZCURVE	TABLE
	Pt	Time	Freq	Zreal	Zimag	Zsig	Zmod	Zphz	Idc	Vdc	IERange
	#	s	Hz	ohm	ohm	V	ohm	°	A	V	#
	0	1	1000078	2087.88	-1643.423	1	2657.081	-38.20718	2.286906E-006	-0.0356511	8
	1	2	794390.6	2418.685	-1655.35	1	2930.908	-34.38778	-5.95556E-006	-0.034295	8
	2	4	630984.4	2746.437	-1609.123	1	3183.111	-30.36582	8.11212E-007	-0.0354411	8
	3	5	501234.4	3049.514	-1519.89	1	3407.286	-26.49185	2.073122E-006	-0.0362385	8
	4	6	398109.4	3279.312	-1382.159	1	3558.687	-22.85436	-3.257177E-006	-0.035193	8
	5	8	316265.6	3499.275	-1250.581	1	3716.03	-19.66602	1.414876E-006	-0.0362175	8
	6	9	251203.1	3663.323	-1106.095	1	3826.667	-16.80103	-5.030151E-007	-0.0357002	8
	7	11	199546.9	3806.368	-974.796	1	3929.207	-14.3645	8.737011E-007	-0.0360577	8
	8	12	158578.1	3918.848	-872.7183	1	4014.849	-12.55476	-1.795779E-006	-0.035555	8
	9	13	125953.1	4036.914	-744.9122	1	4105.066	-10.45491	-1.255803E-006	-0.0332911	7
	10	15	100078.1	4100.525	-661.1474	1	4153.483	-9.159247	-3.007209E-008	-0.0358938	7
	11	16	79453.13	4163.296	-606.0858	1	4207.182	-8.282839	7.111981E-008	-0.036065	7
	12	18	63140.62	4217.472	-564.2885	1	4255.055	-7.620789	-1.500911E-008	-0.0359676	7
	13	19	50203.12	4267.815	-533.2284	1	4300.997	-7.121732	2.063953E-008	-0.0360238	7
	14	20	39890.62	4314.957	-520.5944	1	4346.248	-6.879417	-1.425586E-008	-0.0359691	7
	15	22	31640.63	4363.043	-517.3752	1	4393.611	-6.762628	2.801173E-009	-0.0359177	7
	16	23	25171.88	4408.949	-527.3615	1	4440.376	-6.820835	1.485344E-009	-0.0359166	7
	17	24	20015.62	4457.295	-549.0488	1	4490.983	-7.022309	-5.711637E-008	-0.0358444	7
	18	26	15890.62	4510.772	-582.0098	1	4548.165	-7.352063	8.194475E-008	-0.0361125	7
	19	27	12609.37	4566.725	-628.4316	1	4609.762	-7.835319	8.329648E-008	-0.0361149	7
	20	28	10078.13	4622.082	-688.061	1	4673.015	-8.467093	-3.081592E-008	-0.0359343	7
	21	30	8015.625	4686.241	-761.9219	1	4747.776	-9.234743	-3.420234E-008	-0.035872	7
	22	31	6328.125	4755.75	-858.7415	1	4832.659	-10.23555	4.842924E-008	-0.0360842	7
	23	33	5015.625	4830.459	-973.864	1	4927.651	-11.39854	8.189943E-008	-0.0361151	7
	24	34	3984.375	4909.054	-1114.254	1	5033.922	-12.78829	1.561932E-009	-0.0360079	7
	25	35	3170.956	4997.576	-1285.426	1	5160.241	-14.42437	-5.774617E-008	-0.03585	7
	26	37	2527.573	5090.762	-1491.813	1	5304.843	-16.33287	-3.614167E-008	-0.0358206	7
	27	38	1976.103	5204.593	-1765.627	1	5495.928	-18.7392	-3.434299E-008	-0.03587	7
	28	39	1577.524	5324.652	-2069.566	1	5712.707	-21.23993	-2.78124E-008	-0.0359231	7
	29	41	1265.625	5445.968	-2432.599	1	5964.571	-24.06931	-2.601218E-008	-0.0359413	7
	30	42	998.264	5611.106	-2908.058	1	6319.915	-27.39627	-6.599205E-010	-0.0358387	7
	31	43	796.875	5785.472	-3457.783	1	6740.026	-30.86535	-1.437736E-009	-0.0360074	7
	32	45	627.7902	6003.078	-4174.854	1	7312.069	-34.81677	-2.573469E-008	-0.035922	7
	33	46	505.5147	6249.819	-4976.552	1	7989.137	-38.52931	-2.482201E-008	-0.0359372	7
	34	48	397.9953	6558.016	-6046.726	1	8920.228	-42.67717	1.311621E-008	-0.0359407	7
	35	49	315.5048	6948.963	-7329.477	1	10099.97	-46.52654	6.743878E-009	-0.0359951	6
	36	50	252.4038	7424.553	-8822.059	1	11530.51	-49.91638	6.356357E-009	-0.0359995	6
	37	52	198.6229	8085.104	-10764.82	1	13462.92	-53.09099	6.875803E-009	-0.0360022	6
	38	53	158.3615	8905.357	-12974.58	1	15736.74	-55.53548	7.10014E-009	-0.0360025	6
	39	54	125.558	9995.39	-15669.23	1	18585.82	-57.46621	7.198774E-009	-0.0359983	6
	40	56	100.4464	11373.29	-18709.33	1	21895	-58.70484	6.338413E-009	-0.0360031	6
	41	57	79.00281	13256.96	-22600.26	1	26201.5	-59.60479	6.303755E-009	-0.0360032	6
	42	59	63.3446	15520.39	-26361.7	1	30591.21	-59.51264	6.861573E-009	-0.0360053	6
	43	60	49.86702	18716.16	-31762.79	1	36866.91	-59.49137	6.89119E-009	-0.0360058	6
	44	61	39.72458	22257.41	-37046.09	1	43218.11	-59.00241	7.661599E-009	-0.0360011	6
	45	63	31.6723	26625.95	-42840.43	1	50440.49	-58.13845	7.148532E-009	-0.0360046	6
	46	64	24.93351	32292.46	-49894.36	1	59432.73	-57.08839	6.144298E-009	-0.0360061	6
	47	65	19.86229	38733.39	-57076.49	1	68978.27	-55.8383	5.746609E-009	-0.0359953	6
	48	67	15.83615	46209.31	-64743.87	1	79542.88	-54.48361	7.03142E-009	-0.0360033	6
	49	68	12.40079	54923.42	-73402.66	1	91676.24	-53.19439	5.361313E-009	-0.0360033	6
	50	70	9.93114	64876.17	-82278.7	1	104779.3	-51.74447	6.826605E-009	-0.0360057	5
	51	71	7.944915	75329.33	-91743.27	1	118706.9	-50.61098	6.174235E-009	-0.0360061	5
	52	73	6.317385	87342.18	-101815.7	1	134145.8	-49.37549	7.457109E-009	-0.0360098	5
	53	75	5.008013	100869.9	-113124.9	1	151565.2	-48.27762	6.855329E-009	-0.0359888	5
	54	77	3.945707	115889.4	-125461.1	1	170794.7	-47.2711	5.438291E-009	-0.036007	5
	55	80	3.158693	131046.7	-138378	1	190582.5	-46.55868	6.842276E-009	-0.0359812	5
	56	83	2.504006	148031.1	-153424.9	1	213195.7	-46.02506	5.347782E-009	-0.036003	5
	57	86	1.998082	165445.4	-169712.4	1	237011.6	-45.72942	5.404254E-009	-0.0359984	5
	58	89	1.584686	185089.3	-188798.5	1	264391.6	-45.56839	6.45452E-009	-0.0359489	5
	59	93	1.266892	204270.1	-210481	1	293306.2	-45.85793	5.584419E-009	-0.0359796	5
	60	97	0.999041	227021.2	-238157.8	1	329025.5	-46.37142	6.693394E-009	-0.0360002	5
