EXPLAIN
TAG	EISPOT
TITLE	LABEL	Potentiostatic EIS	Test &Identifier
DATE	LABEL	10/22/2019	Date
TIME	LABEL	8:21:46	Time
NOTES	NOTES	1	&Notes...
	
PSTAT	PSTAT	REF600-11020	Potentiostat
VDC	POTEN	0.00000E+000	T	DC &Voltage (V)
FREQINIT	QUANT	1.00000E+006	Initial Fre&q. (Hz)
FREQFINAL	QUANT	1.00000E+000	Final Fre&q. (Hz)
PTSPERDEC	QUANT	1.00000E+001	Points/&decade
VAC	QUANT	2.50000E+001	AC &Voltage (mV rms)
AREA	QUANT	1.00000E-002	&Area (cm^2)
CONDIT	TWOPARAM	T	5.00000E+000	0.00000E+000	Conditionin&g	Time(s)	E(V)
DELAY	TWOPARAM	T	5.00000E+000	0.00000E+000	Init. De&lay	Time(s)	Stab.(mV/s)
SPEED	SELECTOR	1	&Optimize for:
ZGUESS	QUANT	1.00000E+005	E&stimated Z (ohms)
OCVCURVE	TABLE	19
	Pt	T	Vf	Vm	Ach	Over
	#	s	V vs. Ref.	V	V	bits
	0	0.258333	5.92848E-003	5.92848E-003	5.66999E-004	...........
	1	0.516667	5.93058E-003	6.03842E-003	5.63599E-004	...........
	2	0.775	5.94368E-003	6.15299E-003	5.66566E-004	...........
	3	1.03333	5.98152E-003	6.27014E-003	5.65999E-004	...........
	4	1.29167	6.05132E-003	6.39472E-003	5.71232E-004	...........
	5	1.55	6.14822E-003	6.51553E-003	5.61266E-004	...........
	6	1.80833	6.26142E-003	6.62978E-003	5.64999E-004	...........
	7	2.06667	6.38120E-003	6.74688E-003	5.65866E-004	...........
	8	2.325	6.50170E-003	6.86857E-003	5.73266E-004	...........
	9	2.58333	6.62101E-003	6.98327E-003	5.68732E-004	...........
	10	2.84167	6.73941E-003	7.10171E-003	5.63366E-004	...........
	11	3.1	6.85724E-003	7.21432E-003	5.64699E-004	...........
	12	3.35833	6.97440E-003	7.33162E-003	5.65299E-004	...........
	13	3.61667	7.09077E-003	7.44488E-003	5.64266E-004	...........
	14	3.875	7.20639E-003	7.55854E-003	5.64399E-004	...........
	15	4.13333	7.32133E-003	7.66993E-003	5.62899E-004	...........
	16	4.39167	7.43547E-003	7.78195E-003	5.60132E-004	...........
	17	4.65	7.54855E-003	7.88523E-003	5.68499E-004	...........
	18	4.90833	7.66023E-003	7.99778E-003	5.68932E-004	...........
EOC	QUANT	0.0076602	Open Circuit (V)
PSTATMODEL	IQUANT	4	Pstat Model
PSTATSECTION	LABEL	REF600-11020	Pstat Section
PSTATSERIALNO	LABEL	11020	Pstat Serial Number
CTRLMODE	IQUANT	1	Control Mode
IESTAB	IQUANT	0	I/E Stability
CASPEED	IQUANT	1	Control Amp Speed
CONVENTION	IQUANT	1	Current Convention
ICHRANGE	IQUANT	2	Ich Range
ICHRANGEMODE	TOGGLE	F	Ich Auto Range
ICHOFFSETENABLE	TOGGLE	T	Ich Offset Enable
ICHOFFSET	QUANT	0	Ich Offset (V)
ICHFILTER	IQUANT	3	Ich Filter
VCHRANGE	IQUANT	2	Vch Range
VCHRANGEMODE	TOGGLE	F	Vch Auto Range
VCHOFFSETENABLE	TOGGLE	T	Vch Offset Enable
VCHOFFSET	QUANT	0	Vch Offset (V)
VCHFILTER	IQUANT	3	Vch Filter
ACHRANGE	IQUANT	2	Ach Range
ACHOFFSETENABLE	TOGGLE	F	Ach Offset Enable
ACHOFFSET	QUANT	0	Ach Offset (V)
ACHFILTER	IQUANT	3	Ach Filter
IERANGELOWERLIMIT	IQUANT	1	I/E Range Lower Limit
IERANGEMODE	TOGGLE	F	I/E AutoRange
IERANGE	IQUANT	5	I/E Range
POSFEEDENABLE	TOGGLE	F	Positive Feedback IR Comp
POSFEEDRESISTANCE	QUANT	0	Positive Feedback Resistance (ohm)
ACHSELECT	IQUANT	0	Ach Select
CABLEID	IQUANT	14	Cable ID
DCCALDATE	LABEL	8/19/2019	DC Calibration Date
ACCALDATE	LABEL	8/19/2019	AC Calibration Date
THERMOSELECT	IQUANT	1	Thermo Select
FRAMEWORKVERSION	QUANT	6.33	Framework Version
INSTRUMENTVERSION	LABEL	3.50	Instrument Version
ZCURVE	TABLE
	Pt	Time	Freq	Zreal	Zimag	Zsig	Zmod	Zphz	Idc	Vdc	IERange
	#	s	Hz	ohm	ohm	V	ohm	°	A	V	#
	0	2	1000078	2145.746	-875.7931	1	2317.594	-22.20298	5.593855E-006	0.0090279	8
	1	3	794390.6	2282.633	-772.7944	1	2409.901	-18.70373	-5.67288E-006	0.0105209	8
	2	5	630984.4	2385.46	-672.4802	1	2478.437	-15.74357	5.605995E-006	0.0087329	8
	3	6	501234.4	2473.13	-585.6663	1	2541.53	-13.32289	2.408087E-006	0.0088033	8
	4	8	398109.4	2537.525	-504.5828	1	2587.206	-11.24648	2.834341E-006	0.0087701	8
	5	9	316265.6	2584.343	-433.48	1	2620.445	-9.52177	1.325317E-006	0.008863	8
	6	10	251203.1	2623.669	-382.1253	1	2651.35	-8.286602	2.899861E-006	0.0087443	8
	7	12	199546.9	2661.676	-326.9633	1	2681.683	-7.003195	7.929527E-007	0.0090848	8
	8	13	158578.1	2680.718	-296.9	1	2697.109	-6.319975	3.588964E-006	0.0086445	8
	9	14	125953.1	2715.954	-227.1487	1	2725.437	-4.780804	5.077504E-007	0.008197	7
	10	16	100078.1	2735.405	-210.2548	1	2743.473	-4.395354	-7.207782E-008	0.009404	7
	11	17	79453.13	2752.859	-204.8112	1	2760.468	-4.254934	7.162284E-008	0.0091279	7
	12	18	63140.62	2771.142	-203.2579	1	2778.586	-4.195023	-3.717942E-008	0.0092942	7
	13	20	50203.12	2790.688	-205.1494	1	2798.218	-4.204373	-4.093608E-008	0.0093019	7
	14	21	39890.62	2810.463	-210.2974	1	2818.32	-4.279273	-3.787312E-008	0.0093163	7
	15	23	31640.63	2830.806	-219.5619	1	2839.308	-4.435074	-2.01957E-008	0.0094103	7
	16	24	25171.88	2851.835	-233.0922	1	2861.345	-4.672634	6.571215E-010	0.0092814	7
	17	25	20015.62	2874.548	-249.8371	1	2885.385	-4.967296	1.245099E-007	0.0090932	7
	18	27	15890.62	2896.857	-276.2716	1	2910.001	-5.447788	7.548447E-008	0.0092396	7
	19	28	12609.37	2920.979	-306.7271	1	2937.04	-5.994564	6.246086E-008	0.009171	7
	20	29	10078.13	2946.325	-343.3818	1	2966.267	-6.647593	-7.130267E-008	0.0093994	7
	21	31	8015.625	2976.785	-392.5894	1	3002.562	-7.513019	9.305952E-010	0.0092797	7
	22	32	6328.125	3003.456	-449.2588	1	3036.87	-8.507264	7.396712E-008	0.0092367	7
	23	33	5015.625	3035.417	-522.9914	1	3080.142	-9.77588	-5.242668E-008	0.0094271	7
	24	35	3984.375	3065.117	-610.6144	1	3125.347	-11.26663	7.108077E-008	0.0091228	7
	25	36	3170.956	3108.412	-718.5317	1	3190.378	-13.01572	-5.311431E-008	0.0094268	7
	26	38	2527.573	3149.64	-848.9351	1	3262.042	-15.08469	-3.626663E-008	0.0092957	7
	27	39	1976.103	3200.709	-1025.637	1	3361.022	-17.76756	-3.742307E-008	0.0092912	7
	28	40	1577.524	3261.895	-1216.825	1	3481.468	-20.45765	-3.162227E-008	0.0092868	7
	29	42	1265.625	3308.703	-1460.946	1	3616.888	-23.82369	6.43158E-008	0.0091706	7
	30	43	998.264	3380.989	-1776.228	1	3819.171	-27.71553	7.5714E-009	0.0092216	7
	31	44	796.875	3459.263	-2144.806	1	4070.22	-31.79966	-1.11445E-008	0.0092498	7
	32	46	627.7902	3558.536	-2630.336	1	4425.138	-36.47042	7.604255E-008	0.0092376	7
	33	47	505.5147	3666.116	-3171.272	1	4847.409	-40.86054	-3.703241E-008	0.0093539	7
	34	49	397.9953	3814.638	-3902.53	1	5457.215	-45.65252	3.979161E-009	0.0092933	7
	35	50	315.5048	3994.174	-4783.489	1	6231.789	-50.1384	5.612558E-009	0.0092941	7
	36	51	252.4038	4210.51	-5819.827	1	7183.229	-54.11513	3.985849E-009	0.0092911	7
	37	53	198.6229	4509.774	-7186.472	1	8484.306	-57.89022	4.073156E-009	0.0092917	7
	38	54	158.3615	4875.492	-8770.222	1	10034.3	-60.92969	3.389331E-009	0.0092934	7
	39	55	125.558	5362.9	-10748.86	1	12012.44	-63.48414	5.940877E-010	0.0092307	6
	40	57	100.4464	5969.913	-13060.4	1	14360.15	-65.43484	6.39498E-010	0.0092302	6
	41	58	79.00281	6802.874	-16048.02	1	17430.38	-67.02756	1.273724E-009	0.0092301	6
	42	60	63.3446	7910.795	-19332.06	1	20888.02	-67.74533	-6.052506E-011	0.0092243	6
	43	61	49.86702	9222.861	-23791.71	1	25516.79	-68.81116	3.806128E-010	0.0092196	6
	44	62	39.72458	10983.58	-28631.49	1	30665.96	-69.01225	6.353176E-010	0.0092282	6
	45	64	31.6723	13261	-34415.35	1	36881.85	-68.92721	3.353892E-010	0.0092213	6
	46	65	24.93351	16229.69	-41672.45	1	44721.32	-68.72115	6.420352E-010	0.0092268	6
	47	66	19.86229	19836.75	-49754.88	1	53563.46	-68.26335	-3.960661E-010	0.0092302	6
	48	68	15.83615	24408.36	-59366.64	1	64188.52	-67.65018	-1.186398E-009	0.0092265	6
	49	69	12.40079	30144.46	-70651.48	1	76813.54	-66.89378	6.228441E-010	0.009231	6
	50	71	9.93114	36858.58	-83370.14	1	91154.46	-66.14941	6.833374E-010	0.0092232	6
	51	72	7.944915	44899.2	-97581.7	1	107415.7	-65.29195	-9.12433E-010	0.0092332	5
	52	74	6.317385	54713.91	-114328.4	1	126746.2	-64.42571	1.236623E-010	0.0092202	5
	53	76	5.008013	66756.06	-134008.7	1	149715.4	-63.51994	-2.072441E-010	0.0092354	5
	54	79	3.945707	81224.46	-156906.2	1	176683.2	-62.63109	-5.566955E-010	0.0092287	5
	55	81	3.158693	97306.6	-181191.2	1	205666.8	-61.7625	6.166118E-011	0.0092331	5
	56	85	2.504006	116560.2	-210069.6	1	240240.5	-60.97565	-7.549342E-010	0.0092301	5
	57	87	1.998082	137709.2	-241284.8	1	277816.8	-60.28518	-2.323289E-010	0.0091836	5
	58	90	1.584686	161501.5	-277806.7	1	321339.9	-59.82864	-3.580676E-010	0.0092466	5
	59	94	1.266892	187613.6	-319392.8	1	370419.6	-59.56973	-3.148178E-010	0.0091946	5
	60	98	0.999041	217902.7	-370166.2	1	429539.9	-59.5163	8.770248E-012	0.0092707	5
