EXPLAIN
TAG	EISPOT
TITLE	LABEL	Potentiostatic EIS	Test &Identifier
DATE	LABEL	10/4/2019	Date
TIME	LABEL	10:58:00	Time
NOTES	NOTES	2	&Notes...
	
	
PSTAT	PSTAT	REF600-11020	Potentiostat
VDC	POTEN	0.00000E+000	T	DC &Voltage (V)
FREQINIT	QUANT	1.00000E+006	Initial Fre&q. (Hz)
FREQFINAL	QUANT	1.00000E+000	Final Fre&q. (Hz)
PTSPERDEC	QUANT	1.00000E+001	Points/&decade
VAC	QUANT	2.50000E+001	AC &Voltage (mV rms)
AREA	QUANT	1.00000E-002	&Area (cm^2)
CONDIT	TWOPARAM	T	5.00000E+000	0.00000E+000	Conditionin&g	Time(s)	E(V)
DELAY	TWOPARAM	T	5.00000E+000	0.00000E+000	Init. De&lay	Time(s)	Stab.(mV/s)
SPEED	SELECTOR	1	&Optimize for:
ZGUESS	QUANT	1.00000E+004	E&stimated Z (ohms)
OCVCURVE	TABLE	19
	Pt	T	Vf	Vm	Ach	Over
	#	s	V vs. Ref.	V	V	bits
	0	0.258333	3.15725E-003	3.15725E-003	6.23665E-004	...........
	1	0.516667	3.15149E-003	2.85570E-003	6.14798E-004	...........
	2	0.775	3.11641E-003	2.58499E-003	6.18732E-004	...........
	3	1.03333	3.01851E-003	2.34589E-003	6.27831E-004	...........
	4	1.29167	2.84715E-003	2.12735E-003	6.18832E-004	...........
	5	1.55	2.62654E-003	1.93970E-003	6.18498E-004	...........
	6	1.80833	2.39231E-003	1.74496E-003	6.11265E-004	...........
	7	2.06667	2.16787E-003	1.56739E-003	6.14865E-004	...........
	8	2.325	1.95975E-003	1.36928E-003	6.11765E-004	...........
	9	2.58333	1.76434E-003	1.19958E-003	6.12998E-004	...........
	10	2.84167	1.57752E-003	1.08476E-003	6.14865E-004	...........
	11	3.1	1.40109E-003	9.47234E-004	6.18432E-004	...........
	12	3.35833	1.24085E-003	8.72379E-004	6.21898E-004	...........
	13	3.61667	1.10077E-003	7.69602E-004	6.18598E-004	...........
	14	3.875	9.80003E-004	6.58173E-004	6.13498E-004	...........
	15	4.13333	8.72026E-004	5.36499E-004	6.16398E-004	...........
	16	4.39167	7.67161E-004	4.13136E-004	6.10732E-004	...........
	17	4.65	6.58292E-004	2.98346E-004	6.17832E-004	...........
	18	4.90833	5.44335E-004	2.02407E-004	6.13332E-004	...........
EOC	QUANT	0.0005443	Open Circuit (V)
PSTATMODEL	IQUANT	4	Pstat Model
PSTATSECTION	LABEL	REF600-11020	Pstat Section
PSTATSERIALNO	LABEL	11020	Pstat Serial Number
CTRLMODE	IQUANT	1	Control Mode
IESTAB	IQUANT	0	I/E Stability
CASPEED	IQUANT	1	Control Amp Speed
CONVENTION	IQUANT	1	Current Convention
ICHRANGE	IQUANT	2	Ich Range
ICHRANGEMODE	TOGGLE	F	Ich Auto Range
ICHOFFSETENABLE	TOGGLE	T	Ich Offset Enable
ICHOFFSET	QUANT	0	Ich Offset (V)
ICHFILTER	IQUANT	3	Ich Filter
VCHRANGE	IQUANT	2	Vch Range
VCHRANGEMODE	TOGGLE	F	Vch Auto Range
VCHOFFSETENABLE	TOGGLE	T	Vch Offset Enable
VCHOFFSET	QUANT	0	Vch Offset (V)
VCHFILTER	IQUANT	3	Vch Filter
ACHRANGE	IQUANT	2	Ach Range
ACHOFFSETENABLE	TOGGLE	F	Ach Offset Enable
ACHOFFSET	QUANT	0	Ach Offset (V)
ACHFILTER	IQUANT	3	Ach Filter
IERANGELOWERLIMIT	IQUANT	1	I/E Range Lower Limit
IERANGEMODE	TOGGLE	F	I/E AutoRange
IERANGE	IQUANT	5	I/E Range
POSFEEDENABLE	TOGGLE	F	Positive Feedback IR Comp
POSFEEDRESISTANCE	QUANT	0	Positive Feedback Resistance (ohm)
ACHSELECT	IQUANT	0	Ach Select
CABLEID	IQUANT	14	Cable ID
DCCALDATE	LABEL	8/19/2019	DC Calibration Date
ACCALDATE	LABEL	8/19/2019	AC Calibration Date
THERMOSELECT	IQUANT	1	Thermo Select
FRAMEWORKVERSION	QUANT	6.33	Framework Version
INSTRUMENTVERSION	LABEL	3.50	Instrument Version
ZCURVE	TABLE
	Pt	Time	Freq	Zreal	Zimag	Zsig	Zmod	Zphz	Idc	Vdc	IERange
	#	s	Hz	ohm	ohm	V	ohm	°	A	V	#
	0	1	1000078	2646.171	-2001.689	1	3317.978	-37.10559	-1.464087E-006	0.0027976	8
	1	2	794390.6	3061.777	-1946.674	1	3628.225	-32.44814	-5.727607E-007	0.00272	8
	2	4	630984.4	3457.42	-1844.021	1	3918.44	-28.07331	-8.550748E-007	0.0025365	8
	3	5	501234.4	3784.721	-1694.455	1	4146.721	-24.11851	-4.221493E-007	0.0022708	8
	4	6	398109.4	4056.269	-1520.422	1	4331.859	-20.54763	3.351898E-006	0.0015847	8
	5	8	316265.6	4278.993	-1314.949	1	4476.48	-17.08237	-2.102182E-006	0.0026036	8
	6	9	251203.1	4429.945	-1138.035	1	4573.788	-14.4075	3.256254E-006	0.0015594	8
	7	11	199546.9	4557.711	-975.225	1	4660.879	-12.0776	3.70906E-007	0.0020574	8
	8	12	158578.1	4656.583	-849.9429	1	4733.515	-10.34404	9.966627E-007	0.0019029	8
	9	13	125953.1	4745.126	-689.1576	1	4794.91	-8.263564	-4.754508E-007	0.0034371	7
	10	15	100078.1	4791.716	-603.4597	1	4829.565	-7.177934	-8.741056E-009	0.0020972	7
	11	16	79453.13	4840.147	-540.5326	1	4870.236	-6.372211	-1.429335E-008	0.0020258	7
	12	18	63140.62	4882.263	-492.8045	1	4907.071	-5.763784	-3.423201E-008	0.0020604	7
	13	19	50203.12	4919.026	-459.4255	1	4940.435	-5.335813	-5.823477E-009	0.0020914	7
	14	20	39890.62	4954.272	-437.649	1	4973.565	-5.048273	-3.877328E-008	0.0021342	7
	15	22	31640.63	4988.777	-429.3117	1	5007.215	-4.918499	9.693272E-008	0.0019059	7
	16	23	25171.88	5022.464	-431.5728	1	5040.972	-4.911276	-5.787529E-009	0.002087	7
	17	24	20015.62	5053.942	-445.0901	1	5073.503	-5.032934	-5.526144E-008	0.0022114	7
	18	26	15890.62	5089.664	-471.0681	1	5111.417	-5.287881	6.976809E-008	0.0018937	7
	19	27	12609.37	5124.483	-510.3118	1	5149.83	-5.686941	-4.78792E-008	0.0021224	7
	20	28	10078.13	5158.391	-561.8006	1	5188.893	-6.215589	9.763751E-008	0.0019057	7
	21	30	8015.625	5197.518	-632.44	1	5235.854	-6.93771	-3.268337E-008	0.0020563	7
	22	31	6328.125	5237.555	-726.1101	1	5287.647	-7.892909	-5.690698E-008	0.0021147	7
	23	32	5015.625	5280.959	-843.6154	1	5347.917	-9.07612	-5.399409E-008	0.0022146	7
	24	34	3984.375	5329.731	-988.659	1	5420.653	-10.50885	7.927407E-008	0.0019783	7
	25	35	3170.956	5383.792	-1168.487	1	5509.135	-12.24544	-5.560369E-008	0.0021143	7
	26	37	2527.573	5442.92	-1388.345	1	5617.195	-14.30951	-5.529115E-008	0.0022076	7
	27	38	1976.103	5517.272	-1685.807	1	5769.076	-16.99058	-5.088985E-009	0.0020778	7
	28	39	1577.524	5595.947	-2022.545	1	5950.236	-19.8714	4.762288E-008	0.0019641	7
	29	41	1265.625	5680.965	-2421.747	1	6175.616	-23.08814	-3.962855E-008	0.0020897	7
	30	42	998.264	5786.25	-2958.723	1	6498.825	-27.08234	-3.842045E-008	0.0021315	7
	31	43	796.875	5905.125	-3581.508	1	6906.353	-31.23716	-3.482244E-008	0.00205	7
	32	45	627.7902	6052.604	-4404.172	1	7485.37	-36.04148	7.93753E-008	0.0019697	7
	33	46	505.5147	6215.931	-5317.046	1	8179.778	-40.54336	6.946726E-008	0.0018832	7
	34	47	397.9953	6429.505	-6568.225	1	9191.307	-45.61147	4.232199E-009	0.0020577	7
	35	49	315.5048	6688.564	-8073.672	1	10484.33	-50.36024	9.448764E-010	0.0019969	6
	36	50	252.4038	6996.448	-9856.49	1	12087.21	-54.63167	1.095532E-009	0.0019939	6
	37	52	198.6229	7416.772	-12222.78	1	14297.02	-58.75065	1.047327E-009	0.0020006	6
	38	53	158.3615	7928.413	-14984.92	1	16953.1	-62.117	7.593735E-010	0.0019945	6
	39	54	125.558	8606.376	-18465.56	1	20372.69	-65.01085	7.212146E-010	0.0019958	6
	40	56	100.4464	9456.951	-22572.02	1	24473.04	-67.26788	1.048222E-009	0.0019958	6
	41	57	79.00281	10662.85	-27964.18	1	29928.11	-69.12797	6.795883E-010	0.0019897	6
	42	58	63.3446	12045.89	-34022.73	1	36092.23	-70.50327	4.732649E-010	0.0019951	6
	43	60	49.86702	14359.23	-41943.29	1	44333.14	-71.10143	1.375958E-010	0.0019954	6
	44	61	39.72458	17080.81	-51224.45	1	53997.2	-71.55901	5.798395E-010	0.0019943	6
	45	63	31.6723	20775.36	-62274.18	1	65648.22	-71.55073	5.396561E-010	0.0019958	6
	46	64	24.93351	25896.64	-76108.16	1	80393.34	-71.20856	9.862452E-010	0.0019957	6
	47	65	19.86229	32380.96	-91697.7	1	97247.1	-70.55048	3.28457E-010	0.0019905	6
	48	67	15.83615	40522.04	-110078.7	1	117300.3	-69.79039	1.518985E-009	0.0019934	5
	49	68	12.40079	52622.1	-132768.8	1	142816.8	-68.37941	9.509633E-010	0.0019974	5
	50	70	9.93114	66191.36	-156019.8	1	169480	-67.01093	1.120776E-010	0.0019978	5
	51	71	7.944915	82929.12	-181889.2	1	199902.3	-65.49023	1.022711E-009	0.0019935	5
	52	73	6.317385	103655.4	-212086.2	1	236061.4	-63.9533	4.767864E-010	0.0020099	5
	53	75	5.008013	128402.5	-245823.6	1	277338.2	-62.42033	4.751154E-010	0.0020046	5
	54	77	3.945707	157864.9	-284751.2	1	325583.4	-60.99619	3.90667E-010	0.001998	5
	55	80	3.158693	189257.9	-324680.9	1	375814.1	-59.76191	1.318581E-010	0.0020043	5
	56	83	2.504006	225941.8	-371646.1	1	434937.4	-58.70253	3.314767E-010	0.0019842	5
	57	86	1.998082	265385.8	-423016.9	1	499372.5	-57.8973	-1.077074E-011	0.0020283	5
	58	89	1.584686	310297.5	-484174.8	1	575073.8	-57.34504	2.952853E-010	0.0020241	5
	59	93	1.266892	360433.7	-550584.3	1	658069.5	-56.7897	4.605659E-011	0.0020407	5
	60	97	0.999041	417577.4	-632148.3	1	757616.2	-56.55249	1.701159E-010	0.0019662	5
