EXPLAIN
TAG	EISPOT
TITLE	LABEL	Potentiostatic EIS	Test &Identifier
DATE	LABEL	10/8/2019	Date
TIME	LABEL	9:49:14	Time
NOTES	NOTES	2	&Notes...
	
	
PSTAT	PSTAT	REF600-11020	Potentiostat
VDC	POTEN	0.00000E+000	T	DC &Voltage (V)
FREQINIT	QUANT	1.00000E+006	Initial Fre&q. (Hz)
FREQFINAL	QUANT	1.00000E+000	Final Fre&q. (Hz)
PTSPERDEC	QUANT	1.00000E+001	Points/&decade
VAC	QUANT	2.50000E+001	AC &Voltage (mV rms)
AREA	QUANT	1.00000E-002	&Area (cm^2)
CONDIT	TWOPARAM	T	5.00000E+000	0.00000E+000	Conditionin&g	Time(s)	E(V)
DELAY	TWOPARAM	T	5.00000E+000	0.00000E+000	Init. De&lay	Time(s)	Stab.(mV/s)
SPEED	SELECTOR	1	&Optimize for:
ZGUESS	QUANT	1.00000E+004	E&stimated Z (ohms)
OCVCURVE	TABLE	19
	Pt	T	Vf	Vm	Ach	Over
	#	s	V vs. Ref.	V	V	bits
	0	0.258333	5.38023E-003	5.38023E-003	5.52432E-004	...........
	1	0.516667	5.37720E-003	5.22156E-003	5.54366E-004	...........
	2	0.775	5.35945E-003	5.11637E-003	5.49233E-004	...........
	3	1.03333	5.31256E-003	5.03936E-003	5.45466E-004	...........
	4	1.29167	5.23759E-003	5.03628E-003	5.49466E-004	...........
	5	1.55	5.15537E-003	5.02374E-003	5.48133E-004	...........
	6	1.80833	5.08689E-003	4.90308E-003	5.53366E-004	...........
	7	2.06667	5.03376E-003	4.87371E-003	5.53566E-004	...........
	8	2.325	4.98366E-003	4.79706E-003	5.57632E-004	...........
	9	2.58333	4.92920E-003	4.77473E-003	5.59366E-004	...........
	10	2.84167	4.87295E-003	4.71823E-003	5.54766E-004	...........
	11	3.1	4.81857E-003	4.61913E-003	5.57466E-004	...........
	12	3.35833	4.76223E-003	4.48979E-003	5.50233E-004	...........
	13	3.61667	4.69600E-003	4.49963E-003	5.50799E-004	...........
	14	3.875	4.62262E-003	4.49449E-003	5.60299E-004	...........
	15	4.13333	4.55832E-003	4.48222E-003	5.64199E-004	...........
	16	4.39167	4.51556E-003	4.46751E-003	5.61266E-004	...........
	17	4.65	4.49193E-003	4.44755E-003	5.65866E-004	...........
	18	4.90833	4.47744E-003	4.43679E-003	5.66999E-004	...........
EOC	QUANT	0.0044774	Open Circuit (V)
PSTATMODEL	IQUANT	4	Pstat Model
PSTATSECTION	LABEL	REF600-11020	Pstat Section
PSTATSERIALNO	LABEL	11020	Pstat Serial Number
CTRLMODE	IQUANT	1	Control Mode
IESTAB	IQUANT	0	I/E Stability
CASPEED	IQUANT	1	Control Amp Speed
CONVENTION	IQUANT	1	Current Convention
ICHRANGE	IQUANT	2	Ich Range
ICHRANGEMODE	TOGGLE	F	Ich Auto Range
ICHOFFSETENABLE	TOGGLE	T	Ich Offset Enable
ICHOFFSET	QUANT	0	Ich Offset (V)
ICHFILTER	IQUANT	3	Ich Filter
VCHRANGE	IQUANT	2	Vch Range
VCHRANGEMODE	TOGGLE	F	Vch Auto Range
VCHOFFSETENABLE	TOGGLE	T	Vch Offset Enable
VCHOFFSET	QUANT	0	Vch Offset (V)
VCHFILTER	IQUANT	3	Vch Filter
ACHRANGE	IQUANT	2	Ach Range
ACHOFFSETENABLE	TOGGLE	F	Ach Offset Enable
ACHOFFSET	QUANT	0	Ach Offset (V)
ACHFILTER	IQUANT	3	Ach Filter
IERANGELOWERLIMIT	IQUANT	1	I/E Range Lower Limit
IERANGEMODE	TOGGLE	F	I/E AutoRange
IERANGE	IQUANT	5	I/E Range
POSFEEDENABLE	TOGGLE	F	Positive Feedback IR Comp
POSFEEDRESISTANCE	QUANT	0	Positive Feedback Resistance (ohm)
ACHSELECT	IQUANT	0	Ach Select
CABLEID	IQUANT	14	Cable ID
DCCALDATE	LABEL	8/19/2019	DC Calibration Date
ACCALDATE	LABEL	8/19/2019	AC Calibration Date
THERMOSELECT	IQUANT	1	Thermo Select
FRAMEWORKVERSION	QUANT	6.33	Framework Version
INSTRUMENTVERSION	LABEL	3.50	Instrument Version
ZCURVE	TABLE
	Pt	Time	Freq	Zreal	Zimag	Zsig	Zmod	Zphz	Idc	Vdc	IERange
	#	s	Hz	ohm	ohm	V	ohm	°	A	V	#
	0	2	1000078	2545.734	-1818.215	1	3128.365	-35.53519	6.799268E-006	0.0058742	8
	1	4	794390.6	2897.5	-1768.927	1	3394.792	-31.40411	-5.77946E-007	0.0062903	8
	2	5	630984.4	3241.645	-1644.271	1	3634.816	-26.89566	-1.201903E-006	0.0065688	8
	3	6	501234.4	3510.307	-1488.048	1	3812.682	-22.97249	-5.137411E-006	0.007416	8
	4	8	398109.4	3750.156	-1323.41	1	3976.818	-19.43766	1.563138E-006	0.0059142	8
	5	9	316265.6	3945.68	-1174.825	1	4116.869	-16.58088	2.805115E-006	0.0054689	8
	6	11	251203.1	4097.052	-1012.246	1	4220.246	-13.87797	4.453499E-006	0.0052922	8
	7	13	199546.9	4209.592	-859.2022	1	4296.381	-11.53595	4.394983E-006	0.0052941	8
	8	14	158578.1	4246.061	-764.7899	1	4314.387	-10.21049	-1.094018E-006	0.0064333	8
	9	16	125953.1	4349.244	-628.6327	1	4394.44	-8.224482	7.720783E-007	0.0044061	7
	10	17	100078.1	4390.514	-543.9587	1	4424.082	-7.062619	-2.316177E-008	0.0060085	7
	11	18	79453.13	4432.404	-498.098	1	4460.304	-6.411798	-4.605395E-008	0.0061305	7
	12	20	63140.62	4470.889	-468.3635	1	4495.355	-5.980404	8.987708E-008	0.0058485	7
	13	21	50203.12	4507.83	-448.6396	1	4530.1	-5.683619	-4.181586E-008	0.0061177	7
	14	22	39890.62	4543.504	-441.1741	1	4564.873	-5.546031	-1.085699E-008	0.0061806	7
	15	24	31640.63	4578.61	-448.6996	1	4600.543	-5.597062	-8.759243E-008	0.0061711	7
	16	25	25171.88	4615.39	-464.6467	1	4638.719	-5.748789	-5.449258E-008	0.0060643	7
	17	26	20015.62	4653.759	-487.1332	1	4679.185	-5.975686	4.581483E-008	0.0058775	7
	18	28	15890.62	4694.901	-535.6089	1	4725.354	-6.508343	9.964562E-008	0.005955	7
	19	29	12609.37	4738.49	-589.8315	1	4775.059	-7.095492	-5.613813E-008	0.0060695	7
	20	31	10078.13	4783.078	-658.366	1	4828.175	-7.837221	-5.355028E-008	0.0060709	7
	21	32	8015.625	4830.882	-747.9583	1	4888.442	-8.801137	-6.126696E-008	0.0062204	7
	22	33	6328.125	4888.734	-860.0007	1	4963.801	-9.9771	9.160544E-008	0.0058446	7
	23	35	5015.625	4948.646	-998.722	1	5048.42	-11.41002	9.115538E-008	0.0058389	7
	24	36	3984.375	5019.349	-1167.443	1	5153.328	-13.09354	-1.111168E-008	0.0059851	7
	25	37	3170.956	5085.317	-1376.769	1	5268.391	-15.14877	-2.230791E-009	0.0060388	7
	26	39	2527.573	5168.383	-1628.273	1	5418.806	-17.48677	-3.530975E-009	0.0060666	7
	27	40	1976.103	5267.414	-1966.855	1	5622.647	-20.47566	4.697123E-008	0.0059765	7
	28	42	1577.524	5379.851	-2341.579	1	5867.35	-23.52107	4.684153E-008	0.0059804	7
	29	43	1265.625	5497.373	-2799.9	1	6169.323	-26.99047	1.515308E-007	0.0058034	7
	30	44	998.264	5655.394	-3392.29	1	6594.779	-30.95671	6.99339E-008	0.0059165	7
	31	46	796.875	5829.126	-4081.304	1	7115.881	-34.99806	-2.853248E-009	0.0060587	7
	32	47	627.7902	6039.068	-4958.948	1	7814.187	-39.39094	9.966883E-009	0.0059533	7
	33	48	505.5147	6271.178	-5942.352	1	8639.399	-43.45779	-3.472821E-008	0.0060283	7
	34	50	397.9953	6572.472	-7276.519	1	9805.36	-47.91026	3.497711E-009	0.006037	7
	35	51	315.5048	6919.809	-8864.445	1	11245.54	-52.02351	2.910406E-010	0.00598	6
	36	53	252.4038	7317.161	-10736.67	1	12992.96	-55.72514	9.051101E-010	0.0059751	6
	37	54	198.6229	7834.797	-13215.87	1	15363.7	-59.33915	8.943765E-010	0.0059743	6
	38	55	158.3615	8449.787	-16106.47	1	18188.38	-62.31757	1.135753E-009	0.0059788	6
	39	57	125.558	9244.487	-19741.25	1	21798.56	-64.90711	8.667133E-010	0.005977	6
	40	58	100.4464	10237.14	-24005.04	1	26096.76	-66.90379	1.091077E-009	0.0059759	6
	41	59	79.00281	11583.82	-29653.8	1	31836.03	-68.66263	3.680936E-010	0.0059747	6
	42	61	63.3446	13535.51	-36141.79	1	38593.25	-69.46851	1.056775E-009	0.0059801	6
	43	62	49.86702	15563.54	-44362.9	1	47013.73	-70.66794	2.99335E-010	0.0059761	6
	44	64	39.72458	18796.83	-53851.36	1	57037.62	-70.75845	8.697185E-010	0.0059775	6
	45	65	31.6723	22992.59	-65159.2	1	69096.89	-70.5637	7.349933E-010	0.0059742	6
	46	66	24.93351	28503.26	-79402.08	1	84363.06	-70.2532	2.028015E-010	0.00597	6
	47	68	19.86229	35607.51	-95412.6	1	101840.4	-69.53468	1.216344E-009	0.0059661	6
	48	69	15.83615	43926.93	-114392.1	1	122536.2	-68.99305	-5.115232E-010	0.0059696	5
	49	71	12.40079	57179.27	-136234.4	1	147747.3	-67.2316	1.318372E-009	0.0059656	5
	50	72	9.93114	72241.81	-160742.8	1	176230.3	-65.79967	6.24596E-010	0.0059673	5
	51	74	7.944915	89364.23	-186508.1	1	206812.1	-64.39886	1.203926E-009	0.005966	5
	52	75	6.317385	112578.2	-217023.8	1	244485.5	-62.58257	8.00026E-011	0.0059873	5
	53	77	5.008013	139525.6	-249840.7	1	286160.4	-60.81846	2.375634E-010	0.0059693	5
	54	80	3.945707	171243.9	-286300.2	1	333605	-59.11521	4.925639E-010	0.0059775	5
	55	82	3.158693	204697.2	-324014.9	1	383257.9	-57.71725	-4.071129E-011	0.0059608	5
	56	86	2.504006	242617.9	-366856.9	1	439826.6	-56.52166	5.548994E-010	0.0059707	5
	57	89	1.998082	282221	-413031.7	1	500243.8	-55.65555	2.30746E-010	0.0060081	5
	58	92	1.584686	325438.4	-466336.7	1	568665.2	-55.0903	1.440602E-010	0.0059385	5
	59	95	1.266892	369670.7	-529031	1	645391.5	-55.05533	2.389298E-010	0.0059932	5
	60	100	0.999041	421860.1	-607639.6	1	739724.1	-55.22928	-1.501852E-010	0.0059515	5
