EXPLAIN
TAG	EISPOT
TITLE	LABEL	Potentiostatic EIS	Test &Identifier
DATE	LABEL	11/5/2019	Date
TIME	LABEL	8:12:22	Time
NOTES	NOTES	2	&Notes...
	
	
PSTAT	PSTAT	REF600-11020	Potentiostat
VDC	POTEN	0.00000E+000	T	DC &Voltage (V)
FREQINIT	QUANT	1.00000E+006	Initial Fre&q. (Hz)
FREQFINAL	QUANT	1.00000E+000	Final Fre&q. (Hz)
PTSPERDEC	QUANT	1.00000E+001	Points/&decade
VAC	QUANT	2.50000E+001	AC &Voltage (mV rms)
AREA	QUANT	1.00000E-002	&Area (cm^2)
CONDIT	TWOPARAM	T	5.00000E+000	0.00000E+000	Conditionin&g	Time(s)	E(V)
DELAY	TWOPARAM	T	5.00000E+000	0.00000E+000	Init. De&lay	Time(s)	Stab.(mV/s)
SPEED	SELECTOR	1	&Optimize for:
ZGUESS	QUANT	1.00000E+005	E&stimated Z (ohms)
OCVCURVE	TABLE	19
	Pt	T	Vf	Vm	Ach	Over
	#	s	V vs. Ref.	V	V	bits
	0	0.258333	-3.95267E-003	-3.95267E-003	5.75966E-004	...........
	1	0.516667	-3.96726E-003	-4.71658E-003	5.73599E-004	...........
	2	0.775	-4.05601E-003	-5.39581E-003	5.71932E-004	...........
	3	1.03333	-4.30381E-003	-6.02460E-003	5.67332E-004	...........
	4	1.29167	-4.73918E-003	-6.60050E-003	5.70032E-004	...........
	5	1.55	-5.30473E-003	-7.14008E-003	5.74499E-004	...........
	6	1.80833	-5.91440E-003	-7.63736E-003	5.67866E-004	...........
	7	2.06667	-6.50853E-003	-8.11103E-003	5.74266E-004	...........
	8	2.325	-7.06311E-003	-8.54767E-003	5.75666E-004	...........
	9	2.58333	-7.57587E-003	-8.96820E-003	5.75632E-004	...........
	10	2.84167	-8.05221E-003	-9.35873E-003	5.69066E-004	...........
	11	3.1	-8.49814E-003	-9.73841E-003	5.73732E-004	...........
	12	3.35833	-8.91846E-003	-1.00970E-002	5.71399E-004	...........
	13	3.61667	-9.31679E-003	-1.04385E-002	5.74532E-004	...........
	14	3.875	-9.69565E-003	-1.07664E-002	5.74966E-004	...........
	15	4.13333	-1.00567E-002	-1.10809E-002	5.73366E-004	...........
	16	4.39167	-1.04014E-002	-1.13824E-002	5.69066E-004	...........
	17	4.65	-1.07312E-002	-1.16731E-002	5.67966E-004	...........
	18	4.90833	-1.10474E-002	-1.19586E-002	5.62299E-004	...........
EOC	QUANT	-0.0110474	Open Circuit (V)
PSTATMODEL	IQUANT	4	Pstat Model
PSTATSECTION	LABEL	REF600-11020	Pstat Section
PSTATSERIALNO	LABEL	11020	Pstat Serial Number
CTRLMODE	IQUANT	1	Control Mode
IESTAB	IQUANT	0	I/E Stability
CASPEED	IQUANT	1	Control Amp Speed
CONVENTION	IQUANT	1	Current Convention
ICHRANGE	IQUANT	2	Ich Range
ICHRANGEMODE	TOGGLE	F	Ich Auto Range
ICHOFFSETENABLE	TOGGLE	T	Ich Offset Enable
ICHOFFSET	QUANT	0	Ich Offset (V)
ICHFILTER	IQUANT	3	Ich Filter
VCHRANGE	IQUANT	2	Vch Range
VCHRANGEMODE	TOGGLE	F	Vch Auto Range
VCHOFFSETENABLE	TOGGLE	T	Vch Offset Enable
VCHOFFSET	QUANT	0	Vch Offset (V)
VCHFILTER	IQUANT	3	Vch Filter
ACHRANGE	IQUANT	2	Ach Range
ACHOFFSETENABLE	TOGGLE	F	Ach Offset Enable
ACHOFFSET	QUANT	0	Ach Offset (V)
ACHFILTER	IQUANT	3	Ach Filter
IERANGELOWERLIMIT	IQUANT	1	I/E Range Lower Limit
IERANGEMODE	TOGGLE	F	I/E AutoRange
IERANGE	IQUANT	5	I/E Range
POSFEEDENABLE	TOGGLE	F	Positive Feedback IR Comp
POSFEEDRESISTANCE	QUANT	0	Positive Feedback Resistance (ohm)
ACHSELECT	IQUANT	0	Ach Select
CABLEID	IQUANT	14	Cable ID
DCCALDATE	LABEL	8/19/2019	DC Calibration Date
ACCALDATE	LABEL	8/19/2019	AC Calibration Date
THERMOSELECT	IQUANT	1	Thermo Select
FRAMEWORKVERSION	QUANT	6.33	Framework Version
INSTRUMENTVERSION	LABEL	3.50	Instrument Version
ZCURVE	TABLE
	Pt	Time	Freq	Zreal	Zimag	Zsig	Zmod	Zphz	Idc	Vdc	IERange
	#	s	Hz	ohm	ohm	V	ohm	°	A	V	#
	0	1	1000078	2010.875	-887.4871	1	2198.011	-23.81396	1.54111E-006	-0.0092012	8
	1	3	794390.6	2161.531	-799.2047	1	2304.549	-20.29137	-6.761779E-007	-0.009519	8
	2	4	630984.4	2266.801	-698.9894	1	2372.124	-17.13764	-3.22209E-006	-0.0086202	8
	3	5	501234.4	2355.42	-609.054	1	2432.89	-14.49774	4.82452E-006	-0.0094336	8
	4	7	398109.4	2422.521	-528.3877	1	2479.476	-12.30435	-1.187447E-006	-0.0097575	8
	5	8	316265.6	2475.72	-458.3221	1	2517.786	-10.48824	4.107692E-006	-0.009521	8
	6	9	251203.1	2512.945	-406.3078	1	2545.581	-9.184436	-2.262684E-007	-0.0098076	8
	7	11	199546.9	2556.058	-361.0883	1	2581.438	-8.040832	-2.555723E-006	-0.0095778	8
	8	12	158578.1	2557.588	-332.0068	1	2579.047	-7.396345	7.760068E-007	-0.0091301	8
	9	13	125953.1	2623.736	-270.6524	1	2637.659	-5.889534	3.769988E-006	-0.0158584	7
	10	15	100078.1	2638.679	-258.1672	1	2651.279	-5.588009	9.374502E-007	-0.0101975	7
	11	16	79453.13	2663.538	-261.9301	1	2676.386	-5.616361	-1.148478E-006	-0.008173	7
	12	18	63140.62	2687.5	-270.7845	1	2701.107	-5.753534	-1.149244E-006	-0.0081767	7
	13	19	50203.12	2714.568	-284.9232	1	2729.48	-5.991871	-9.723943E-007	-0.0090695	7
	14	20	39890.62	2744.542	-305.1299	1	2761.451	-6.343921	1.006661E-006	-0.0109001	7
	15	22	31640.63	2775.674	-329.1222	1	2795.118	-6.762204	-2.729896E-007	-0.008284	7
	16	23	25171.88	2810.294	-360.6582	1	2833.342	-7.313064	6.70599E-008	-0.0086561	7
	17	24	20015.62	2847.985	-397.3565	1	2875.572	-7.942746	-1.140322E-006	-0.0085405	7
	18	26	15890.62	2891.654	-446.1356	1	2925.868	-8.770659	9.099155E-007	-0.0111107	7
	19	27	12609.37	2939.824	-501.261	1	2982.253	-9.67628	9.426745E-007	-0.0102092	7
	20	28	10078.13	2991.026	-561.2617	1	3043.231	-10.62788	1.022271E-006	-0.0106043	7
	21	30	8015.625	3045.262	-631.6979	1	3110.091	-11.71902	-2.722926E-007	-0.010362	7
	22	31	6328.125	3118.155	-724.1449	1	3201.136	-13.07433	1.008265E-006	-0.0109042	7
	23	33	5015.625	3190.848	-825.7276	1	3295.958	-14.50872	5.732258E-007	-0.0093746	7
	24	34	3984.375	3269.679	-945.3087	1	3403.587	-16.1253	3.730766E-007	-0.0090808	7
	25	35	3170.956	3357.339	-1077.471	1	3525.999	-17.79299	-1.140645E-006	-0.0085477	7
	26	37	2527.573	3451.039	-1234.692	1	3665.261	-19.68589	-9.749821E-007	-0.0090841	7
	27	38	1976.103	3560.817	-1441.32	1	3841.461	-22.03674	-2.71916E-007	-0.0103682	7
	28	39	1577.524	3688.38	-1678.538	1	4052.362	-24.46972	9.428246E-007	-0.0102184	7
	29	41	1265.625	3775.376	-1936.696	1	4243.143	-27.15696	1.024589E-006	-0.0106072	7
	30	42	998.264	3901.854	-2283.189	1	4520.776	-30.33424	-1.139521E-006	-0.0085503	7
	31	43	796.875	4030.778	-2697.63	1	4850.194	-33.79273	7.758799E-007	-0.0097641	7
	32	45	627.7902	4178.919	-3234.371	1	5284.366	-37.73891	-1.153561E-006	-0.0081924	7
	33	46	505.5147	4329.206	-3848.421	1	5792.44	-41.6353	-6.705562E-007	-0.009726	7
	34	48	397.9953	4520.942	-4675.481	1	6503.771	-45.96273	5.378655E-009	-0.0095358	7
	35	49	315.5048	4740.507	-5676.536	1	7395.638	-50.13455	1.462335E-009	-0.009534	7
	36	50	252.4038	4996.248	-6862.72	1	8488.781	-53.94436	5.625904E-009	-0.0095389	7
	37	52	198.6229	5335.887	-8431.795	1	9978.32	-57.67317	5.779032E-009	-0.0095362	7
	38	53	158.3615	5737.06	-10259.2	1	11754.36	-60.78559	6.211444E-010	-0.0095912	6
	39	55	125.558	6257.178	-12548.1	1	14021.66	-63.4966	4.862974E-010	-0.00959	6
	40	56	100.4464	6880.798	-15224.79	1	16707.47	-65.67955	1.633144E-009	-0.0095922	6
	41	57	79.00281	7768.688	-18727.47	1	20274.88	-67.46993	3.152567E-010	-0.0095983	6
	42	59	63.3446	8871.621	-22818.66	1	24482.58	-68.75452	5.648593E-010	-0.0096061	6
	43	60	49.86702	10041.6	-27854.55	1	29609.28	-70.17571	5.493645E-010	-0.0096025	6
	44	62	39.72458	11816.94	-33797.38	1	35803.67	-70.72829	1.042204E-009	-0.0095998	6
	45	63	31.6723	13997.64	-40828.28	1	43161.12	-71.07614	5.588539E-010	-0.00961	6
	46	64	24.93351	16805.72	-49979.65	1	52729.47	-71.41472	3.766881E-010	-0.0096002	6
	47	66	19.86229	20242.89	-60310.33	1	63616.91	-71.4459	7.44704E-010	-0.0096038	6
	48	67	15.83615	24301.51	-72541.39	1	76503.7	-71.47905	1.047887E-009	-0.0095943	6
	49	68	12.40079	30106.68	-88964.49	1	93920.67	-71.30355	1.99104E-009	-0.0095988	6
	50	70	9.93114	36890.68	-105483.2	1	111748.1	-70.72372	1.961497E-010	-0.0095997	5
	51	71	7.944915	45182.44	-125773.5	1	133642.9	-70.23985	7.950948E-010	-0.0095975	5
	52	73	6.317385	55133.37	-150280.9	1	160075.1	-69.85349	1.958389E-010	-0.0095942	5
	53	75	5.008013	67853.01	-179759.7	1	192139.5	-69.32023	1.930393E-010	-0.0096063	5
	54	78	3.945707	84021.55	-215133.6	1	230959.1	-68.66661	5.739752E-010	-0.0095864	5
	55	80	3.158693	102432.8	-253986.2	1	273864	-68.03574	4.695059E-010	-0.0096052	5
	56	84	2.504006	125088.1	-301744	1	326644.3	-67.48352	4.853453E-010	-0.009587	5
	57	86	1.998082	151655.4	-355031.3	1	386065.6	-66.86974	5.97682E-010	-0.0096177	5
	58	90	1.584686	184994.2	-420831.9	1	459698.1	-66.27011	3.145519E-010	-0.0096339	5
	59	93	1.266892	223919.7	-492745.1	1	541237.3	-65.56138	4.900321E-010	-0.0096306	5
	60	98	0.999041	272354.4	-583240.3	1	643697.3	-64.96894	2.309914E-010	-0.0095668	5
