EXPLAIN
TAG	EISPOT
TITLE	LABEL	Potentiostatic EIS	Test &Identifier
DATE	LABEL	11/21/2019	Date
TIME	LABEL	23:26:24	Time
NOTES	NOTES	4	&Notes...
	
	
	
	
PSTAT	PSTAT	REF600-11020	Potentiostat
VDC	POTEN	0.00000E+000	T	DC &Voltage (V)
FREQINIT	QUANT	1.00000E+006	Initial Fre&q. (Hz)
FREQFINAL	QUANT	1.00000E+000	Final Fre&q. (Hz)
PTSPERDEC	QUANT	1.00000E+001	Points/&decade
VAC	QUANT	2.50000E+001	AC &Voltage (mV rms)
AREA	QUANT	1.00000E-002	&Area (cm^2)
CONDIT	TWOPARAM	T	5.00000E+000	0.00000E+000	Conditionin&g	Time(s)	E(V)
DELAY	TWOPARAM	T	5.00000E+000	0.00000E+000	Init. De&lay	Time(s)	Stab.(mV/s)
SPEED	SELECTOR	1	&Optimize for:
ZGUESS	QUANT	1.00000E+005	E&stimated Z (ohms)
OCVCURVE	TABLE	19
	Pt	T	Vf	Vm	Ach	Over
	#	s	V vs. Ref.	V	V	bits
	0	0.258333	3.74793E-003	3.74793E-003	5.82832E-004	...........
	1	0.516667	3.74459E-003	3.57355E-003	5.87732E-004	...........
	2	0.775	3.72408E-003	3.40520E-003	5.85799E-004	...........
	3	1.03333	3.66526E-003	3.21261E-003	5.83965E-004	...........
	4	1.29167	3.55804E-003	3.07889E-003	5.86699E-004	...........
	5	1.55	3.41151E-003	2.81496E-003	5.89032E-004	...........
	6	1.80833	3.24599E-003	2.94816E-003	5.87165E-004	...........
	7	2.06667	3.09085E-003	2.85319E-003	5.87332E-004	...........
	8	2.325	2.97599E-003	2.86978E-003	5.83865E-004	...........
	9	2.58333	2.90835E-003	2.79415E-003	5.78099E-004	...........
	10	2.84167	2.86883E-003	2.71807E-003	5.79066E-004	...........
	11	3.1	2.83243E-003	2.63980E-003	5.84032E-004	...........
	12	3.35833	2.78392E-003	2.57175E-003	5.79599E-004	...........
	13	3.61667	2.72163E-003	2.50491E-003	5.82399E-004	...........
	14	3.875	2.65233E-003	2.46292E-003	5.81699E-004	...........
	15	4.13333	2.58378E-003	2.39784E-003	5.90932E-004	...........
	16	4.39167	2.52017E-003	2.34666E-003	5.89565E-004	...........
	17	4.65	2.46137E-003	2.29573E-003	5.80132E-004	...........
	18	4.90833	2.40588E-003	2.25576E-003	5.83965E-004	...........
EOC	QUANT	0.0024059	Open Circuit (V)
PSTATMODEL	IQUANT	4	Pstat Model
PSTATSECTION	LABEL	REF600-11020	Pstat Section
PSTATSERIALNO	LABEL	11020	Pstat Serial Number
CTRLMODE	IQUANT	1	Control Mode
IESTAB	IQUANT	0	I/E Stability
CASPEED	IQUANT	1	Control Amp Speed
CONVENTION	IQUANT	1	Current Convention
ICHRANGE	IQUANT	2	Ich Range
ICHRANGEMODE	TOGGLE	F	Ich Auto Range
ICHOFFSETENABLE	TOGGLE	T	Ich Offset Enable
ICHOFFSET	QUANT	0	Ich Offset (V)
ICHFILTER	IQUANT	3	Ich Filter
VCHRANGE	IQUANT	2	Vch Range
VCHRANGEMODE	TOGGLE	F	Vch Auto Range
VCHOFFSETENABLE	TOGGLE	T	Vch Offset Enable
VCHOFFSET	QUANT	0	Vch Offset (V)
VCHFILTER	IQUANT	3	Vch Filter
ACHRANGE	IQUANT	2	Ach Range
ACHOFFSETENABLE	TOGGLE	F	Ach Offset Enable
ACHOFFSET	QUANT	0	Ach Offset (V)
ACHFILTER	IQUANT	3	Ach Filter
IERANGELOWERLIMIT	IQUANT	1	I/E Range Lower Limit
IERANGEMODE	TOGGLE	F	I/E AutoRange
IERANGE	IQUANT	4	I/E Range
POSFEEDENABLE	TOGGLE	F	Positive Feedback IR Comp
POSFEEDRESISTANCE	QUANT	0	Positive Feedback Resistance (ohm)
ACHSELECT	IQUANT	0	Ach Select
CABLEID	IQUANT	14	Cable ID
DCCALDATE	LABEL	8/19/2019	DC Calibration Date
ACCALDATE	LABEL	8/19/2019	AC Calibration Date
THERMOSELECT	IQUANT	1	Thermo Select
FRAMEWORKVERSION	QUANT	6.33	Framework Version
INSTRUMENTVERSION	LABEL	3.50	Instrument Version
ZCURVE	TABLE
	Pt	Time	Freq	Zreal	Zimag	Zsig	Zmod	Zphz	Idc	Vdc	IERange
	#	s	Hz	ohm	ohm	V	ohm	°	A	V	#
	0	2	1000078	2040.503	-1613.171	1	2601.148	-38.32901	-9.7324E-006	0.0055803	8
	1	3	794390.6	2366.526	-1622.751	1	2869.454	-34.43883	1.457983E-006	0.0041155	8
	2	4	630984.4	2671.067	-1590.741	1	3108.867	-30.77571	-2.144517E-006	0.0039811	8
	3	6	501234.4	2963.397	-1507.721	1	3324.898	-26.96615	1.092156E-006	0.00457	8
	4	7	398109.4	3226.188	-1411.777	1	3521.563	-23.63414	-1.712607E-006	0.0038534	8
	5	8	316265.6	3456.135	-1279.922	1	3685.522	-20.32127	-7.835737E-007	0.0045057	8
	6	10	251203.1	3643.653	-1141.48	1	3818.27	-17.39467	-2.103722E-006	0.0042127	8
	7	11	199546.9	3787.524	-1025.837	1	3923.987	-15.15476	1.95228E-006	0.0036252	8
	8	13	158578.1	3910.091	-892.483	1	4010.653	-12.85756	-2.626148E-006	0.0045611	8
	9	14	125953.1	4038.861	-766.9993	1	4111.044	-10.75271	-1.047067E-006	0.0052306	7
	10	15	100078.1	4125.557	-688.9636	1	4182.689	-9.480844	9.93069E-007	0.0022887	7
	11	17	79453.13	4181.187	-629.5576	1	4228.317	-8.562653	-1.075644E-006	0.0045558	7
	12	18	63140.62	4252.907	-589.4078	1	4293.556	-7.890326	1.125662E-006	0.0028268	7
	13	19	50203.12	4295.732	-552.0747	1	4331.063	-7.323339	-3.266218E-007	0.0031592	7
	14	21	39890.62	4341.769	-536.1099	1	4374.742	-7.039098	-9.055616E-007	0.0057163	7
	15	22	31640.63	4392.147	-528.1837	1	4423.792	-6.857253	-6.2267E-007	0.0056259	7
	16	23	25171.88	4439.664	-532.7052	1	4471.508	-6.842081	-2.850819E-007	0.0053683	7
	17	25	20015.62	4480.147	-550.919	1	4513.894	-7.010407	-9.058836E-007	0.0057162	7
	18	26	15890.62	4542.786	-581.7145	1	4579.879	-7.297149	1.043943E-006	0.0032514	7
	19	28	12609.37	4580.713	-624.9714	1	4623.15	-7.769203	-3.245528E-007	0.0031545	7
	20	29	10078.13	4638.911	-684.6364	1	4689.16	-8.395427	1.044392E-006	0.003248	7
	21	30	8015.625	4682.648	-752.75	1	4742.766	-9.132342	-6.230685E-007	0.005613	7
	22	32	6328.125	4732.699	-864.0126	1	4810.92	-10.34612	-1.126212E-006	0.0056656	7
	23	33	5015.625	4803.071	-995.775	1	4905.208	-11.71266	8.654421E-007	0.0037422	7
	24	34	3984.375	4864.842	-1164.377	1	5002.245	-13.46025	-3.274501E-007	0.0031479	7
	25	36	3170.956	4935.852	-1356.208	1	5118.783	-15.36383	1.109314E-006	0.0024901	7
	26	37	2527.573	4997.329	-1597.851	1	5246.563	-17.73121	-9.064462E-007	0.0057036	7
	27	38	1976.103	5098.135	-1927.639	1	5450.392	-20.71195	-6.239812E-007	0.0056177	7
	28	40	1577.524	5229.635	-2338.411	1	5728.634	-24.09162	1.128069E-006	0.0028191	7
	29	41	1265.625	5311.918	-2745.475	1	5979.474	-27.33227	-1.244581E-006	0.0051235	7
	30	43	998.264	5469.041	-3334.685	1	6405.508	-31.37227	4.877376E-007	0.0023066	7
	31	44	796.875	5640.479	-4013.857	1	6922.865	-35.43628	8.661087E-007	0.0037465	7
	32	45	627.7902	5847.648	-4886.737	1	7620.708	-39.88468	4.809448E-007	0.0023109	7
	33	47	505.5147	6068.103	-5854.24	1	8431.726	-43.97234	6.396037E-007	0.0041839	7
	34	48	397.9953	6355.565	-7146.778	1	9563.98	-48.3536	4.507755E-009	0.004025	7
	35	50	315.5048	6684.055	-8706.19	1	10976.08	-52.48526	1.565901E-009	0.0039596	6
	36	51	252.4038	7050.665	-10547.5	1	12687.06	-56.23854	1.118793E-009	0.0039567	6
	37	52	198.6229	7530.973	-12986.89	1	15012.49	-59.89097	1.090304E-009	0.0039614	6
	38	54	158.3615	8086.777	-15840.36	1	17785.19	-62.9549	8.611659E-010	0.0039692	6
	39	55	125.558	8807.823	-19444.47	1	21346.31	-65.63074	4.133585E-010	0.0039636	6
	40	56	100.4464	9691.87	-23670.2	1	25577.54	-67.73314	-8.250461E-011	0.0039636	6
	41	58	79.00281	10943.02	-29270.69	1	31249.37	-69.50145	1.205179E-009	0.0039677	6
	42	59	63.3446	12686.04	-35514.74	1	37712.5	-70.34303	5.435856E-010	0.0039688	6
	43	61	49.86702	14425.78	-44195.79	1	46490.55	-71.923	3.243378E-010	0.0039566	6
	44	62	39.72458	17127.34	-53696.82	1	56362.17	-72.3092	5.872633E-010	0.0039732	6
	45	63	31.6723	20392.08	-65280.87	1	68391.73	-72.65253	1.542685E-009	0.003961	6
	46	65	24.93351	25458.53	-80088.12	1	84037.16	-72.3655	1.25853E-009	0.003959	6
	47	66	19.86229	31502.62	-97094.7	1	102077.4	-72.02421	6.274815E-010	0.0039512	6
	48	68	15.83615	39954.84	-117044.6	1	123676.3	-71.15192	1.250144E-009	0.0039659	5
	49	69	12.40079	50804.7	-141954.7	1	150772.2	-70.30803	8.029633E-010	0.0039641	5
	50	70	9.93114	64357	-169069.8	1	180904.5	-69.1605	1.869367E-010	0.0039671	5
	51	72	7.944915	81776.67	-199614.5	1	215716	-67.72241	9.982001E-010	0.0039686	5
	52	74	6.317385	104793.6	-236143	1	258350.9	-66.0697	1.104112E-010	0.0039744	5
	53	76	5.008013	133723.5	-276839.6	1	307444.5	-64.21778	1.563508E-010	0.0039472	5
	54	78	3.945707	169911.6	-321675.2	1	363792.4	-62.1566	5.185846E-010	0.0039669	5
	55	81	3.158693	210524.4	-367727.1	1	423726	-60.20879	-1.084628E-010	0.0039441	5
	56	84	2.504006	259188.2	-418210.1	1	492014.4	-58.21119	5.716021E-010	0.0039606	5
	57	87	1.998082	312917.4	-470264.1	1	564858.9	-56.3599	4.023975E-010	0.0039817	5
	58	90	1.584686	373643.9	-525463.1	1	644764.5	-54.5843	2.128811E-010	0.0039158	5
	59	94	1.266892	436651.1	-585977	1	730775.8	-53.30771	3.032505E-010	0.0039774	5
	60	98	0.999041	510780.6	-655922	1	831342.6	-52.09134	-1.679564E-010	0.0039226	5
