EXPLAIN
TAG	EISPOT
TITLE	LABEL	Potentiostatic EIS	Test &Identifier
DATE	LABEL	11/3/2019	Date
TIME	LABEL	10:45:56	Time
NOTES	NOTES	1	&Notes...
	
PSTAT	PSTAT	REF600-11020	Potentiostat
VDC	POTEN	0.00000E+000	T	DC &Voltage (V)
FREQINIT	QUANT	1.00000E+006	Initial Fre&q. (Hz)
FREQFINAL	QUANT	1.00000E+000	Final Fre&q. (Hz)
PTSPERDEC	QUANT	1.00000E+001	Points/&decade
VAC	QUANT	2.50000E+001	AC &Voltage (mV rms)
AREA	QUANT	1.00000E-002	&Area (cm^2)
CONDIT	TWOPARAM	T	5.00000E+000	0.00000E+000	Conditionin&g	Time(s)	E(V)
DELAY	TWOPARAM	T	5.00000E+000	0.00000E+000	Init. De&lay	Time(s)	Stab.(mV/s)
SPEED	SELECTOR	1	&Optimize for:
ZGUESS	QUANT	1.00000E+005	E&stimated Z (ohms)
OCVCURVE	TABLE	19
	Pt	T	Vf	Vm	Ach	Over
	#	s	V vs. Ref.	V	V	bits
	0	0.258333	2.65299E-003	2.65299E-003	5.49966E-004	...........
	1	0.516667	2.64691E-003	2.33485E-003	5.50299E-004	...........
	2	0.775	2.60895E-003	1.99967E-003	5.50699E-004	...........
	3	1.03333	2.49990E-003	1.70325E-003	5.45566E-004	...........
	4	1.29167	2.30351E-003	1.45715E-003	5.46699E-004	...........
	5	1.55	2.04531E-003	1.23779E-003	5.54099E-004	...........
	6	1.80833	1.76884E-003	1.00870E-003	5.51599E-004	...........
	7	2.06667	1.50417E-003	7.90544E-004	5.49399E-004	...........
	8	2.325	1.25960E-003	5.93969E-004	5.51133E-004	...........
	9	2.58333	1.03232E-003	4.09916E-004	5.45199E-004	...........
	10	2.84167	8.19200E-004	2.31458E-004	5.52999E-004	...........
	11	3.1	6.19216E-004	7.93757E-005	5.53699E-004	...........
	12	3.35833	4.32087E-004	-8.27398E-005	5.53566E-004	...........
	13	3.61667	2.57785E-004	-1.91441E-004	5.46833E-004	...........
	14	3.875	9.75670E-005	-2.93893E-004	5.49166E-004	...........
	15	4.13333	-4.67358E-005	-4.39567E-004	5.53466E-004	...........
	16	4.39167	-1.78035E-004	-5.88794E-004	5.55633E-004	...........
	17	4.65	-3.05419E-004	-7.21065E-004	5.53499E-004	...........
	18	4.90833	-4.36196E-004	-8.41943E-004	5.49399E-004	...........
EOC	QUANT	-0.0004362	Open Circuit (V)
PSTATMODEL	IQUANT	4	Pstat Model
PSTATSECTION	LABEL	REF600-11020	Pstat Section
PSTATSERIALNO	LABEL	11020	Pstat Serial Number
CTRLMODE	IQUANT	1	Control Mode
IESTAB	IQUANT	0	I/E Stability
CASPEED	IQUANT	1	Control Amp Speed
CONVENTION	IQUANT	1	Current Convention
ICHRANGE	IQUANT	2	Ich Range
ICHRANGEMODE	TOGGLE	F	Ich Auto Range
ICHOFFSETENABLE	TOGGLE	T	Ich Offset Enable
ICHOFFSET	QUANT	0	Ich Offset (V)
ICHFILTER	IQUANT	3	Ich Filter
VCHRANGE	IQUANT	2	Vch Range
VCHRANGEMODE	TOGGLE	F	Vch Auto Range
VCHOFFSETENABLE	TOGGLE	T	Vch Offset Enable
VCHOFFSET	QUANT	0	Vch Offset (V)
VCHFILTER	IQUANT	3	Vch Filter
ACHRANGE	IQUANT	2	Ach Range
ACHOFFSETENABLE	TOGGLE	F	Ach Offset Enable
ACHOFFSET	QUANT	0	Ach Offset (V)
ACHFILTER	IQUANT	3	Ach Filter
IERANGELOWERLIMIT	IQUANT	1	I/E Range Lower Limit
IERANGEMODE	TOGGLE	F	I/E AutoRange
IERANGE	IQUANT	3	I/E Range
POSFEEDENABLE	TOGGLE	F	Positive Feedback IR Comp
POSFEEDRESISTANCE	QUANT	0	Positive Feedback Resistance (ohm)
ACHSELECT	IQUANT	0	Ach Select
CABLEID	IQUANT	14	Cable ID
DCCALDATE	LABEL	8/19/2019	DC Calibration Date
ACCALDATE	LABEL	8/19/2019	AC Calibration Date
THERMOSELECT	IQUANT	1	Thermo Select
FRAMEWORKVERSION	QUANT	6.33	Framework Version
INSTRUMENTVERSION	LABEL	3.50	Instrument Version
ZCURVE	TABLE
	Pt	Time	Freq	Zreal	Zimag	Zsig	Zmod	Zphz	Idc	Vdc	IERange
	#	s	Hz	ohm	ohm	V	ohm	°	A	V	#
	0	2	1000078	2064.82	-1359.98	1	2472.454	-33.37063	7.108132E-006	0.0007131	8
	1	3	794390.6	2335.043	-1284.342	1	2664.95	-28.81208	-4.562881E-006	0.0010117	8
	2	5	630984.4	2571.992	-1168.713	1	2825.073	-24.43705	7.998435E-006	-0.0001116	8
	3	6	501234.4	2751.579	-1048.127	1	2944.445	-20.85276	-7.89249E-006	0.0020727	8
	4	7	398109.4	2897.058	-916.5086	1	3038.574	-17.5552	7.964173E-006	0.0002577	8
	5	9	316265.6	3021.436	-792.7482	1	3123.704	-14.70158	-1.142098E-006	0.0007223	8
	6	10	251203.1	3100.256	-680.1188	1	3173.98	-12.37326	-4.439646E-006	0.001341	8
	7	12	199546.9	3172.064	-592.1577	1	3226.862	-10.57421	-2.311811E-006	0.000918	8
	8	13	158578.1	3204.813	-509.9096	1	3245.125	-9.040405	-3.507587E-006	0.0015432	8
	9	14	125953.1	3273.255	-405.2681	1	3298.248	-7.057984	-1.550584E-006	0.0040027	7
	10	16	100078.1	3304.026	-362.9597	1	3323.903	-6.26902	-8.790206E-007	0.0026068	7
	11	17	79453.13	3333.235	-339.344	1	3350.464	-5.813037	4.869218E-007	-0.0006601	7
	12	18	63140.62	3356.994	-323.3916	1	3372.535	-5.502534	-1.196608E-006	0.0023763	7
	13	20	50203.12	3384.985	-316.1463	1	3399.717	-5.335755	5.857071E-007	0.0011742	7
	14	21	39890.62	3407.277	-314.6647	1	3421.776	-5.276344	-1.196476E-006	0.0023781	7
	15	22	31640.63	3436.665	-324.1242	1	3451.916	-5.387834	1.058884E-006	-0.0004461	7
	16	24	25171.88	3458.324	-339.5276	1	3474.951	-5.607153	-1.180626E-006	0.0019971	7
	17	25	20015.62	3484.539	-362.7195	1	3503.367	-5.942741	-1.18109E-006	0.0019988	7
	18	27	15890.62	3513.565	-400.9342	1	3536.367	-6.509884	1.058981E-006	-0.0004526	7
	19	28	12609.37	3540.615	-447.3208	1	3568.76	-7.200591	1.06937E-006	-0.0001263	7
	20	29	10078.13	3570.058	-505.8048	1	3605.711	-8.063978	9.587799E-007	-0.000669	7
	21	31	8015.625	3600.979	-584.5519	1	3648.115	-9.220474	9.588392E-007	-0.0006694	7
	22	32	6328.125	3630.782	-685.0802	1	3694.849	-10.68532	-8.800457E-007	0.0025866	7
	23	33	5015.625	3671.445	-810.9254	1	3759.935	-12.45515	9.591769E-007	-0.0006685	7
	24	35	3984.375	3710.596	-964.222	1	3833.83	-14.5665	1.06889E-006	-0.0001273	7
	25	36	3170.956	3761.127	-1157.3	1	3935.152	-17.10316	4.878188E-007	-0.000666	7
	26	38	2527.573	3816.952	-1390.733	1	4062.42	-20.01956	-2.777339E-007	0.0001034	7
	27	39	1976.103	3890.778	-1702.254	1	4246.86	-23.62985	3.707279E-007	0.0014739	7
	28	40	1577.524	3971.483	-2040.221	1	4464.883	-27.19036	1.067506E-006	-0.0001295	7
	29	42	1265.625	4072.344	-2467.035	1	4761.329	-31.20758	-8.781642E-007	0.0025861	7
	30	43	998.264	4193.397	-3017.953	1	5166.491	-35.74225	9.795911E-007	0.0002916	7
	31	44	796.875	4335.042	-3649.016	1	5666.384	-40.08895	-1.006332E-006	0.0014373	7
	32	46	627.7902	4513.971	-4467.997	1	6351.293	-44.70673	-8.772992E-007	0.0025893	7
	33	47	505.5147	4692.893	-5387.416	1	7144.753	-48.94139	4.871078E-007	-0.0006722	7
	34	49	397.9953	4943.988	-6616.446	1	8259.563	-53.23191	2.149628E-009	0.0009825	7
	35	50	315.5048	5232.013	-8099.291	1	9642.22	-57.13818	4.736828E-009	0.0009841	7
	36	51	252.4038	5573.854	-9849.66	1	11317.4	-60.49478	1.050409E-009	0.0009256	6
	37	53	198.6229	6025.518	-12168.89	1	13578.98	-63.65733	5.607459E-010	0.0009204	6
	38	54	158.3615	6570.487	-14875.6	1	16262.07	-66.16916	6.307857E-011	0.0009237	6
	39	55	125.558	7287.032	-18271.2	1	19670.73	-68.2566	8.859933E-010	0.0009245	6
	40	57	100.4464	8158.466	-22248.32	1	23697.01	-69.86199	8.515482E-010	0.0009267	6
	41	58	79.00281	9446.136	-27466.54	1	29045.49	-71.02117	4.946707E-010	0.0009157	6
	42	60	63.3446	11154.97	-33609.95	1	35412.74	-71.63926	2.49172E-010	0.0009128	6
	43	61	49.86702	12838.98	-41125.18	1	43082.7	-72.66202	2.039163E-011	0.0009081	6
	44	62	39.72458	15714.6	-49959.41	1	52372.62	-72.53917	6.04061E-010	0.000918	6
	45	64	31.6723	19393.72	-60446.46	1	63481.42	-72.21161	1.158931E-009	0.0009153	6
	46	65	24.93351	23997.76	-73876.18	1	77676.14	-72.00426	5.289675E-010	0.0009196	6
	47	67	19.86229	29856.87	-89079.05	1	93949.52	-71.47025	5.991178E-010	0.0009196	6
	48	68	15.83615	37509.61	-105672.8	1	112132.5	-70.45717	-8.00991E-011	0.0009277	5
	49	69	12.40079	47434.55	-128811.4	1	137267.7	-69.78387	5.764449E-010	0.0009266	5
	50	71	9.93114	59960.75	-152675.5	1	164027.8	-68.55842	-1.386865E-010	0.0009278	5
	51	72	7.944915	75391.51	-179853.8	1	195016.1	-67.25744	8.339328E-010	0.0009355	5
	52	74	6.317385	93462.88	-212351.5	1	232009.7	-66.24413	-9.311144E-011	0.0009257	5
	53	76	5.008013	117141.4	-249299	1	275448.9	-64.83195	-1.582656E-011	0.0009209	5
	54	79	3.945707	146431.3	-291654.3	1	326350.1	-63.34008	4.682931E-010	0.0009324	5
	55	81	3.158693	179059.9	-336294.2	1	380993.7	-61.96692	-5.615862E-012	0.0009077	5
	56	85	2.504006	218448.8	-387440.2	1	444780.6	-60.58457	4.849259E-010	0.0009258	5
	57	87	1.998082	262358.3	-442215.6	1	514185.3	-59.32013	4.289513E-010	0.0009356	5
	58	90	1.584686	314536.3	-503863.7	1	593979.6	-58.02558	1.685114E-010	0.0008765	5
	59	94	1.266892	367750.7	-571440.7	1	679547.6	-57.23669	3.353029E-010	0.0009318	5
	60	98	0.999041	432353.4	-653154.7	1	783288.3	-56.49758	-8.367074E-011	0.000905	5
