EXPLAIN
TAG	EISPOT
TITLE	LABEL	Potentiostatic IDE	Test &Identifier
DATE	LABEL	9/14/2019	Date
TIME	LABEL	13:47:58	Time
NOTES	NOTES	1	&Notes...
	
PSTAT	PSTAT	REF600-11020	Potentiostat
VDC	POTEN	0.00000E+000	T	DC &Voltage (V)
FREQINIT	QUANT	1.00000E+006	Initial Fre&q. (Hz)
FREQFINAL	QUANT	1.00000E+000	Final Fre&q. (Hz)
PTSPERDEC	QUANT	1.00000E+001	Points/&decade
VAC	QUANT	2.50000E+001	AC &Voltage (mV rms)
AREA	QUANT	1.00000E-002	&Area (cm^2)
CONDIT	TWOPARAM	T	5.00000E+000	0.00000E+000	Conditionin&g	Time(s)	E(V)
DELAY	TWOPARAM	T	5.00000E+000	0.00000E+000	Init. De&lay	Time(s)	Stab.(mV/s)
SPEED	SELECTOR	1	&Optimize for:
ZGUESS	QUANT	1.00000E+007	E&stimated Z (ohms)
OCVCURVE	TABLE	19
	Pt	T	Vf	Vm	Ach	Over
	#	s	V vs. Ref.	V	V	bits
	0	0.258333	1.23177E-002	1.23177E-002	5.38633E-004	...........
	1	0.516667	1.23192E-002	1.23951E-002	5.39833E-004	...........
	2	0.775	1.23288E-002	1.24950E-002	5.42199E-004	...........
	3	1.03333	1.23577E-002	1.25963E-002	5.42533E-004	...........
	4	1.29167	1.24133E-002	1.27033E-002	5.38666E-004	...........
	5	1.55	1.24933E-002	1.28091E-002	5.38966E-004	...........
	6	1.80833	1.25893E-002	1.29133E-002	5.41099E-004	...........
	7	2.06667	1.26929E-002	1.30151E-002	5.38866E-004	...........
	8	2.325	1.27983E-002	1.31144E-002	5.38166E-004	...........
	9	2.58333	1.29028E-002	1.32093E-002	5.42899E-004	...........
	10	2.84167	1.30048E-002	1.33029E-002	5.42633E-004	...........
	11	3.1	1.31040E-002	1.33950E-002	5.42833E-004	...........
	12	3.35833	1.32003E-002	1.34808E-002	5.47266E-004	...........
	13	3.61667	1.32938E-002	1.35622E-002	5.50266E-004	...........
	14	3.875	1.33842E-002	1.36440E-002	5.41033E-004	...........
	15	4.13333	1.34710E-002	1.37182E-002	5.43533E-004	...........
	16	4.39167	1.35543E-002	1.37888E-002	5.46066E-004	...........
	17	4.65	1.36337E-002	1.38568E-002	5.44233E-004	...........
	18	4.90833	1.37092E-002	1.39189E-002	5.40666E-004	...........
EOC	QUANT	0.0137092	Open Circuit (V)
PSTATMODEL	IQUANT	4	Pstat Model
PSTATSECTION	LABEL	REF600-11020	Pstat Section
PSTATSERIALNO	LABEL	11020	Pstat Serial Number
CTRLMODE	IQUANT	1	Control Mode
IESTAB	IQUANT	0	I/E Stability
CASPEED	IQUANT	1	Control Amp Speed
CONVENTION	IQUANT	1	Current Convention
ICHRANGE	IQUANT	2	Ich Range
ICHRANGEMODE	TOGGLE	F	Ich Auto Range
ICHOFFSETENABLE	TOGGLE	T	Ich Offset Enable
ICHOFFSET	QUANT	0	Ich Offset (V)
ICHFILTER	IQUANT	3	Ich Filter
VCHRANGE	IQUANT	2	Vch Range
VCHRANGEMODE	TOGGLE	F	Vch Auto Range
VCHOFFSETENABLE	TOGGLE	T	Vch Offset Enable
VCHOFFSET	QUANT	0	Vch Offset (V)
VCHFILTER	IQUANT	3	Vch Filter
ACHRANGE	IQUANT	2	Ach Range
ACHOFFSETENABLE	TOGGLE	F	Ach Offset Enable
ACHOFFSET	QUANT	0	Ach Offset (V)
ACHFILTER	IQUANT	3	Ach Filter
IERANGELOWERLIMIT	IQUANT	1	I/E Range Lower Limit
IERANGEMODE	TOGGLE	F	I/E AutoRange
IERANGE	IQUANT	3	I/E Range
POSFEEDENABLE	TOGGLE	F	Positive Feedback IR Comp
POSFEEDRESISTANCE	QUANT	0	Positive Feedback Resistance (ohm)
ACHSELECT	IQUANT	0	Ach Select
CABLEID	IQUANT	14	Cable ID
DCCALDATE	LABEL	8/19/2019	DC Calibration Date
ACCALDATE	LABEL	8/19/2019	AC Calibration Date
THERMOSELECT	IQUANT	1	Thermo Select
FRAMEWORKVERSION	QUANT	6.33	Framework Version
INSTRUMENTVERSION	LABEL	3.50	Instrument Version
ZCURVE	TABLE
	Pt	Time	Freq	Zreal	Zimag	Zsig	Zmod	Zphz	Idc	Vdc	IERange
	#	s	Hz	ohm	ohm	V	ohm	°	A	V	#
	0	2	1000078	2415.383	-2007.653	1	3140.819	-39.73317	-5.303058E-006	0.0174118	8
	1	4	794390.6	2810.489	-2005.677	1	3452.765	-35.51317	2.529385E-006	0.0158252	8
	2	5	630984.4	3193.867	-1941.122	1	3737.478	-31.28979	-5.493949E-007	0.0154961	8
	3	6	501234.4	3563.388	-1808.781	1	3996.176	-26.91241	5.631265E-008	0.015389	8
	4	8	398109.4	3840.344	-1673.862	1	4189.279	-23.55058	-1.932102E-006	0.0158065	8
	5	9	316265.6	4097.966	-1478.549	1	4356.539	-19.83948	3.234054E-006	0.0148812	8
	6	10	251203.1	4279.54	-1296.904	1	4471.735	-16.8593	-1.926811E-006	0.0157303	8
	7	12	199546.9	4437.526	-1139.319	1	4581.451	-14.39947	3.065147E-006	0.0148782	8
	8	13	158578.1	4550.955	-1038.35	1	4667.908	-12.85264	-1.237175E-006	0.015396	8
	9	14	125953.1	4682.585	-879.9909	1	4764.556	-10.64337	-3.011528E-008	0.0156281	7
	10	16	100078.1	4748.837	-819.5482	1	4819.037	-9.79158	-1.159925E-008	0.0154131	7
	11	17	79453.13	4822.929	-785.1798	1	4886.425	-9.246713	1.728904E-008	0.015433	7
	12	18	63140.62	4890.705	-768.6258	1	4950.735	-8.931579	6.268746E-008	0.0152455	7
	13	20	50203.12	4960.307	-769.113	1	5019.58	-8.813727	4.160728E-009	0.0153238	7
	14	21	39890.62	5032.707	-780.1388	1	5092.814	-8.811502	8.360593E-008	0.0151742	7
	15	22	31640.63	5102.572	-829.2693	1	5169.52	-9.230994	-4.290977E-008	0.0153533	7
	16	24	25171.88	5183.787	-884.1118	1	5258.64	-9.67885	-6.08747E-008	0.0154276	7
	17	25	20015.62	5270.596	-960.48	1	5357.397	-10.32788	-8.028986E-008	0.015578	7
	18	26	15890.62	5369.546	-1064.904	1	5474.125	-11.21751	1.99863E-008	0.015424	7
	19	28	12609.37	5475.363	-1174.725	1	5599.962	-12.10909	-7.777855E-008	0.0155759	7
	20	29	10078.13	5594.269	-1312.127	1	5746.088	-13.20003	2.56355E-008	0.0152439	7
	21	30	8015.625	5728.011	-1475.184	1	5914.92	-14.44204	4.582264E-008	0.0152848	7
	22	32	6328.125	5881.425	-1675.514	1	6115.432	-15.90132	-6.125135E-008	0.0154175	7
	23	33	5015.625	6050.502	-1907.559	1	6344.081	-17.49864	1.153873E-007	0.0151746	7
	24	34	3984.375	6242.331	-2180.18	1	6612.101	-19.25213	8.391657E-008	0.0151692	7
	25	36	3170.956	6454.694	-2496.918	1	6920.814	-21.14835	2.400465E-009	0.0153114	7
	26	37	2527.573	6697.708	-2863.928	1	7284.324	-23.15146	2.62076E-008	0.0152438	7
	27	38	1976.103	7000.986	-3329.783	1	7752.5	-25.43652	1.031319E-007	0.0152387	7
	28	40	1577.524	7318.007	-3835.881	1	8262.397	-27.66219	-7.561705E-008	0.0155688	7
	29	41	1265.625	7661.204	-4425.95	1	8847.772	-30.01543	-1.001389E-008	0.0153615	7
	30	42	998.264	8109.994	-5088.758	1	9574.31	-32.10694	-1.780876E-009	0.015479	6
	31	44	796.875	8569.467	-5862.617	1	10382.97	-34.37715	-1.849057E-009	0.0154226	6
	32	45	627.7902	9110.98	-6824.023	1	11383.2	-36.83281	-1.117914E-008	0.0154825	6
	33	46	505.5147	9639.53	-7850.188	1	12431.65	-39.15849	-6.525464E-009	0.0154384	6
	34	48	397.9953	10274.78	-9179.975	1	13778.35	-41.77911	1.182743E-009	0.0152994	6
	35	49	315.5048	10926.25	-10743.6	1	15323.44	-44.51709	-9.551993E-011	0.0152963	6
	36	50	252.4038	11586.1	-12567.62	1	17093.36	-47.32702	6.300855E-010	0.0152971	6
	37	52	198.6229	12334.55	-14967.99	1	19395.41	-50.50936	7.043097E-010	0.0152998	6
	38	53	158.3615	13098.84	-17778.14	1	22082.61	-53.61741	5.771917E-010	0.0152978	6
	39	54	125.558	13940.19	-21365.4	1	25510.96	-56.87693	4.34523E-010	0.0152939	6
	40	56	100.4464	14815.37	-25652.97	1	29623.81	-59.99227	-8.721174E-011	0.0152938	6
	41	57	79.00281	15920.65	-31376.88	1	35184.88	-63.09674	1.255968E-009	0.0152975	6
	42	58	63.3446	17665.62	-37666.7	1	41603.54	-64.8735	7.133596E-011	0.0152949	6
	43	60	49.86702	18854.64	-47056.66	1	50693.45	-68.16504	1.293915E-010	0.0152947	6
	44	61	39.72458	21040.78	-57165.05	1	60914.35	-69.79282	6.821981E-010	0.0152983	6
	45	63	31.6723	23709.81	-69601.28	1	73528.86	-71.18849	5.359292E-010	0.0152954	6
	46	64	24.93351	27528.66	-86218.88	1	90507.03	-72.29234	3.928886E-010	0.0152988	6
	47	65	19.86229	32063.13	-105383.5	1	110153.2	-73.07752	4.443627E-011	0.0152983	5
	48	67	15.83615	39504.12	-128191.5	1	134140.4	-72.87254	-1.013145E-009	0.0152952	5
	49	68	12.40079	46116.39	-158584.3	1	165153.6	-73.78555	7.900191E-010	0.0152988	5
	50	69	9.93114	57846.97	-191490.5	1	200037.2	-73.19106	-1.749249E-010	0.0152982	5
	51	71	7.944915	71320.14	-231074.9	1	241830.9	-72.84742	6.475305E-010	0.0152998	5
	52	73	6.317385	89964.88	-279759.8	1	293869.4	-72.1733	4.313939E-010	0.0152915	5
	53	75	5.008013	114084.4	-337543	1	356301.2	-71.32553	1.005682E-010	0.0152914	5
	54	77	3.945707	146443.6	-407111.1	1	432649	-70.21563	2.216705E-010	0.0152933	5
	55	80	3.158693	184018.9	-483004	1	516871.2	-69.14375	3.449423E-011	0.015279	5
	56	83	2.504006	234005.7	-573875.8	1	619751.6	-67.81615	3.530791E-010	0.0152872	5
	57	86	1.998082	293823.3	-673807.5	1	735084.1	-66.43971	9.636904E-011	0.0153287	5
	58	89	1.584686	368007.7	-792093.1	1	873407.8	-65.08035	2.007555E-010	0.0153291	5
	59	92	1.266892	457290.2	-918007.9	1	1025599	-63.52058	1.083183E-011	0.0153218	5
	60	97	0.999041	569618.6	-1068871	1	1211177	-61.94612	2.214694E-010	0.0152881	4
