EXPLAIN
TAG	EISPOT
TITLE	LABEL	Potentiostatic EIS	Test &Identifier
DATE	LABEL	10/10/2019	Date
TIME	LABEL	9:32:33	Time
NOTES	NOTES	1	&Notes...
	
PSTAT	PSTAT	REF600-11020	Potentiostat
VDC	POTEN	0.00000E+000	T	DC &Voltage (V)
FREQINIT	QUANT	1.00000E+006	Initial Fre&q. (Hz)
FREQFINAL	QUANT	1.00000E+000	Final Fre&q. (Hz)
PTSPERDEC	QUANT	1.00000E+001	Points/&decade
VAC	QUANT	2.50000E+001	AC &Voltage (mV rms)
AREA	QUANT	1.00000E-002	&Area (cm^2)
CONDIT	TWOPARAM	T	5.00000E+000	0.00000E+000	Conditionin&g	Time(s)	E(V)
DELAY	TWOPARAM	T	5.00000E+000	0.00000E+000	Init. De&lay	Time(s)	Stab.(mV/s)
SPEED	SELECTOR	1	&Optimize for:
ZGUESS	QUANT	1.00000E+004	E&stimated Z (ohms)
OCVCURVE	TABLE	19
	Pt	T	Vf	Vm	Ach	Over
	#	s	V vs. Ref.	V	V	bits
	0	0.258333	5.89298E-003	5.89298E-003	5.69899E-004	...........
	1	0.516667	5.89189E-003	5.83606E-003	5.70332E-004	...........
	2	0.775	5.88526E-003	5.78422E-003	5.72932E-004	...........
	3	1.03333	5.86727E-003	5.76880E-003	5.68832E-004	...........
	4	1.29167	5.83796E-003	5.74055E-003	5.65966E-004	...........
	5	1.55	5.80463E-003	5.74039E-003	5.69066E-004	...........
	6	1.80833	5.77540E-003	5.73136E-003	5.69999E-004	...........
	7	2.06667	5.75477E-003	5.75287E-003	5.71999E-004	...........
	8	2.325	5.74628E-003	5.86880E-003	5.67632E-004	...........
	9	2.58333	5.75418E-003	5.78305E-003	5.65832E-004	...........
	10	2.84167	5.77418E-003	5.77490E-003	5.69966E-004	...........
	11	3.1	5.79328E-003	5.91323E-003	5.65166E-004	...........
	12	3.35833	5.80953E-003	5.89496E-003	5.65932E-004	...........
	13	3.61667	5.83811E-003	6.21562E-003	5.67599E-004	...........
	14	3.875	5.89933E-003	6.31832E-003	5.68032E-004	...........
	15	4.13333	6.00265E-003	6.35479E-003	5.66699E-004	...........
	16	4.39167	6.12907E-003	6.34323E-003	5.72599E-004	...........
	17	4.65	6.23846E-003	6.27387E-003	5.70232E-004	...........
	18	4.90833	6.30051E-003	6.22684E-003	5.65799E-004	...........
EOC	QUANT	0.0063005	Open Circuit (V)
PSTATMODEL	IQUANT	4	Pstat Model
PSTATSECTION	LABEL	REF600-11020	Pstat Section
PSTATSERIALNO	LABEL	11020	Pstat Serial Number
CTRLMODE	IQUANT	1	Control Mode
IESTAB	IQUANT	0	I/E Stability
CASPEED	IQUANT	1	Control Amp Speed
CONVENTION	IQUANT	1	Current Convention
ICHRANGE	IQUANT	2	Ich Range
ICHRANGEMODE	TOGGLE	F	Ich Auto Range
ICHOFFSETENABLE	TOGGLE	T	Ich Offset Enable
ICHOFFSET	QUANT	0	Ich Offset (V)
ICHFILTER	IQUANT	3	Ich Filter
VCHRANGE	IQUANT	2	Vch Range
VCHRANGEMODE	TOGGLE	F	Vch Auto Range
VCHOFFSETENABLE	TOGGLE	T	Vch Offset Enable
VCHOFFSET	QUANT	0	Vch Offset (V)
VCHFILTER	IQUANT	3	Vch Filter
ACHRANGE	IQUANT	2	Ach Range
ACHOFFSETENABLE	TOGGLE	F	Ach Offset Enable
ACHOFFSET	QUANT	0	Ach Offset (V)
ACHFILTER	IQUANT	3	Ach Filter
IERANGELOWERLIMIT	IQUANT	1	I/E Range Lower Limit
IERANGEMODE	TOGGLE	F	I/E AutoRange
IERANGE	IQUANT	6	I/E Range
POSFEEDENABLE	TOGGLE	F	Positive Feedback IR Comp
POSFEEDRESISTANCE	QUANT	0	Positive Feedback Resistance (ohm)
ACHSELECT	IQUANT	0	Ach Select
CABLEID	IQUANT	14	Cable ID
DCCALDATE	LABEL	8/19/2019	DC Calibration Date
ACCALDATE	LABEL	8/19/2019	AC Calibration Date
THERMOSELECT	IQUANT	1	Thermo Select
FRAMEWORKVERSION	QUANT	6.33	Framework Version
INSTRUMENTVERSION	LABEL	3.50	Instrument Version
ZCURVE	TABLE
	Pt	Time	Freq	Zreal	Zimag	Zsig	Zmod	Zphz	Idc	Vdc	IERange
	#	s	Hz	ohm	ohm	V	ohm	°	A	V	#
	0	2	1000078	2613.052	-1714.243	1	3125.167	-33.26611	7.210127E-007	0.0075505	8
	1	3	794390.6	2953.729	-1593.228	1	3356.023	-28.34223	-1.988775E-006	0.008518	8
	2	5	630984.4	3236.309	-1455.529	1	3548.557	-24.21582	-8.805625E-008	0.0080335	8
	3	6	501234.4	3476.24	-1280.495	1	3704.58	-20.22159	-3.479495E-006	0.0084592	8
	4	7	398109.4	3665.941	-1100.869	1	3827.667	-16.71482	-4.908956E-006	0.0091039	8
	5	9	316265.6	3788.93	-947.5949	1	3905.628	-14.0414	3.407436E-006	0.007234	8
	6	11	251203.1	3875.94	-820.3914	1	3961.812	-11.95098	7.656698E-007	0.0075842	8
	7	12	199546.9	3949.531	-697.8435	1	4010.708	-10.02018	8.573832E-007	0.0075874	8
	8	14	158578.1	4013.682	-592.6965	1	4057.207	-8.400106	-3.122309E-006	0.0085267	8
	9	15	125953.1	4078.137	-478.075	1	4106.064	-6.686195	-5.326871E-007	0.0087363	7
	10	17	100078.1	4097.215	-420.148	1	4118.701	-5.854918	-1.842517E-008	0.0078849	7
	11	18	79453.13	4125.328	-389.1858	1	4143.646	-5.389365	-1.858457E-008	0.0078796	7
	12	20	63140.62	4152.51	-370.2226	1	4168.981	-5.094811	4.086101E-008	0.0076794	7
	13	21	50203.12	4179.69	-360.5937	1	4195.216	-4.930859	4.669776E-008	0.0077697	7
	14	22	39890.62	4205.974	-362.0087	1	4221.524	-4.919331	-3.845602E-008	0.0078357	7
	15	24	31640.63	4236.826	-371.868	1	4253.114	-5.016021	4.310821E-008	0.0077723	7
	16	25	25171.88	4268.687	-393.5056	1	4286.786	-5.266881	-1.339169E-008	0.0077793	7
	17	26	20015.62	4319.093	-407.9079	1	4338.312	-5.39518	7.140112E-008	0.0076995	7
	18	28	15890.62	4338.922	-464.755	1	4363.742	-6.113813	1.484656E-008	0.0077314	7
	19	29	12609.37	4378.064	-518.2411	1	4408.63	-6.750814	4.68009E-008	0.0077722	7
	20	30	10078.13	4421.139	-580.1044	1	4459.035	-7.475163	-4.21487E-008	0.0078502	7
	21	32	8015.625	4464.625	-660.1429	1	4513.166	-8.410855	-1.483252E-008	0.0077773	7
	22	33	6328.125	4518.548	-756.5078	1	4581.438	-9.50447	9.039433E-008	0.0076287	7
	23	34	5015.625	4573.835	-877.6285	1	4657.273	-10.86191	-5.71914E-008	0.0079924	7
	24	36	3984.375	4631.428	-1014.582	1	4741.256	-12.35629	-1.029439E-008	0.0078622	7
	25	37	3170.956	4695.525	-1202.704	1	4847.108	-14.36678	-5.733672E-008	0.0079842	7
	26	39	2527.573	4765.619	-1420.575	1	4972.842	-16.5987	4.809325E-008	0.0076691	7
	27	40	1976.103	4853.352	-1717.271	1	5148.208	-19.48541	-8.416539E-008	0.007947	7
	28	41	1577.524	4940.81	-2045.452	1	5347.474	-22.48913	-1.813764E-008	0.0077772	7
	29	43	1265.625	5046.761	-2438.686	1	5605.086	-25.79067	-1.416522E-008	0.0077748	7
	30	44	998.264	5174.411	-2955.445	1	5958.958	-29.73352	9.18572E-008	0.007626	7
	31	45	796.875	5317.042	-3562.802	1	6400.351	-33.82494	-1.827377E-008	0.0078687	7
	32	47	627.7902	5501.69	-4344.836	1	7010.435	-38.29912	-3.802577E-008	0.0078324	7
	33	48	505.5147	5691.626	-5210.092	1	7716.195	-42.47086	1.496704E-007	0.0075761	7
	34	49	397.9953	5938.935	-6382.717	1	8718.372	-47.0627	5.434455E-009	0.0078282	7
	35	51	315.5048	6228.814	-7784.314	1	9969.64	-51.33408	1.496655E-009	0.0077643	6
	36	52	252.4038	6556.548	-9440.093	1	11493.64	-55.21837	1.820037E-009	0.0077598	6
	37	53	198.6229	6982.238	-11633.3	1	13567.81	-59.02807	1.473548E-009	0.0077636	6
	38	55	158.3615	7479.838	-14188.5	1	16039.38	-62.20288	1.440926E-009	0.0077608	6
	39	56	125.558	8110.138	-17415.19	1	19211.02	-65.02892	4.920205E-010	0.0077675	6
	40	58	100.4464	8869.313	-21209.78	1	22989.55	-67.30673	1.740057E-009	0.0077675	6
	41	59	79.00281	9928.88	-26303.08	1	28114.67	-69.31948	1.771658E-009	0.007766	6
	42	60	63.3446	11237.26	-32289.45	1	34188.96	-70.81126	8.648756E-010	0.0077631	6
	43	62	49.86702	12782.65	-39380.13	1	41402.79	-72.01676	1.643255E-009	0.0077673	6
	44	63	39.72458	15282.92	-48106.1	1	50475.39	-72.37537	8.320194E-010	0.0077717	6
	45	64	31.6723	18212.8	-58698.37	1	61458.97	-72.76205	1.04731E-009	0.0077666	6
	46	66	24.93351	22478.2	-72013.42	1	75440.05	-72.66482	4.761187E-010	0.0077675	6
	47	67	19.86229	27872.12	-87307.51	1	91648.55	-72.29479	1.125668E-009	0.0077692	6
	48	69	15.83615	34502.72	-106362.9	1	111819	-72.02762	-1.231979E-009	0.0077735	5
	49	70	12.40079	43588.44	-128598.1	1	135784.5	-71.27586	8.481749E-010	0.0077744	5
	50	71	9.93114	56087.01	-153352.5	1	163287.3	-69.91056	2.765107E-010	0.0077803	5
	51	73	7.944915	71403.23	-182005.4	1	195510.5	-68.57923	4.89576E-010	0.0077779	5
	52	75	6.317385	91339.57	-215156.1	1	233741.4	-66.99747	1.832985E-010	0.0077873	5
	53	77	5.008013	116549.1	-252851.7	1	278420	-65.25319	4.365724E-010	0.0077767	5
	54	79	3.945707	148058.3	-296088.3	1	331043.1	-63.43276	1.400646E-010	0.0077653	5
	55	82	3.158693	183069.9	-339723.3	1	385910	-61.68069	3.130128E-010	0.0077889	5
	56	85	2.504006	225944.2	-390201.7	1	450897	-59.92725	-1.657089E-010	0.0077658	5
	57	88	1.998082	273319.5	-442147.9	1	519806.1	-58.27718	-7.160388E-011	0.0077473	5
	58	91	1.584686	327222.8	-498402.3	1	596221.1	-56.71336	-1.25116E-011	0.0078126	5
	59	95	1.266892	384380	-561475.7	1	680443.2	-55.60489	6.23624E-011	0.007742	5
	60	99	0.999041	448538.8	-632340.3	1	775268.5	-54.65073	2.747776E-010	0.0078115	5
