EXPLAIN
TAG	EISPOT
TITLE	LABEL	Potentiostatic EIS	Test &Identifier
DATE	LABEL	10/14/2019	Date
TIME	LABEL	11:58:32	Time
NOTES	NOTES	1	&Notes...
	
PSTAT	PSTAT	REF600-11020	Potentiostat
VDC	POTEN	0.00000E+000	T	DC &Voltage (V)
FREQINIT	QUANT	1.00000E+006	Initial Fre&q. (Hz)
FREQFINAL	QUANT	1.00000E+000	Final Fre&q. (Hz)
PTSPERDEC	QUANT	1.00000E+001	Points/&decade
VAC	QUANT	2.50000E+001	AC &Voltage (mV rms)
AREA	QUANT	1.00000E-002	&Area (cm^2)
CONDIT	TWOPARAM	T	5.00000E+000	0.00000E+000	Conditionin&g	Time(s)	E(V)
DELAY	TWOPARAM	T	5.00000E+000	0.00000E+000	Init. De&lay	Time(s)	Stab.(mV/s)
SPEED	SELECTOR	1	&Optimize for:
ZGUESS	QUANT	1.00000E+004	E&stimated Z (ohms)
OCVCURVE	TABLE	19
	Pt	T	Vf	Vm	Ach	Over
	#	s	V vs. Ref.	V	V	bits
	0	0.258333	6.79675E-003	6.79675E-003	5.66132E-004	...........
	1	0.516667	6.79578E-003	6.74592E-003	5.66432E-004	...........
	2	0.775	6.78999E-003	6.70667E-003	5.61699E-004	...........
	3	1.03333	6.77442E-003	6.68217E-003	5.67699E-004	...........
	4	1.29167	6.74901E-003	6.67136E-003	5.67899E-004	...........
	5	1.55	6.72012E-003	6.66379E-003	5.65932E-004	...........
	6	1.80833	6.69524E-003	6.66542E-003	5.68132E-004	...........
	7	2.06667	6.67828E-003	6.66740E-003	5.72799E-004	...........
	8	2.325	6.66955E-003	6.67977E-003	5.68232E-004	...........
	9	2.58333	6.66759E-003	6.67988E-003	5.67899E-004	...........
	10	2.84167	6.67084E-003	6.71816E-003	5.63699E-004	...........
	11	3.1	6.67995E-003	6.78106E-003	5.63099E-004	...........
	12	3.35833	6.69983E-003	6.87875E-003	5.64166E-004	...........
	13	3.61667	6.73640E-003	6.90950E-003	5.61966E-004	...........
	14	3.875	6.78887E-003	6.97343E-003	5.64332E-004	...........
	15	4.13333	6.84756E-003	6.95349E-003	5.66032E-004	...........
	16	4.39167	6.89881E-003	6.92630E-003	5.61799E-004	...........
	17	4.65	6.93077E-003	6.90443E-003	5.62532E-004	...........
	18	4.90833	6.93967E-003	6.91131E-003	5.65799E-004	...........
EOC	QUANT	0.0069397	Open Circuit (V)
PSTATMODEL	IQUANT	4	Pstat Model
PSTATSECTION	LABEL	REF600-11020	Pstat Section
PSTATSERIALNO	LABEL	11020	Pstat Serial Number
CTRLMODE	IQUANT	1	Control Mode
IESTAB	IQUANT	0	I/E Stability
CASPEED	IQUANT	1	Control Amp Speed
CONVENTION	IQUANT	1	Current Convention
ICHRANGE	IQUANT	2	Ich Range
ICHRANGEMODE	TOGGLE	F	Ich Auto Range
ICHOFFSETENABLE	TOGGLE	T	Ich Offset Enable
ICHOFFSET	QUANT	0	Ich Offset (V)
ICHFILTER	IQUANT	3	Ich Filter
VCHRANGE	IQUANT	2	Vch Range
VCHRANGEMODE	TOGGLE	F	Vch Auto Range
VCHOFFSETENABLE	TOGGLE	T	Vch Offset Enable
VCHOFFSET	QUANT	0	Vch Offset (V)
VCHFILTER	IQUANT	3	Vch Filter
ACHRANGE	IQUANT	2	Ach Range
ACHOFFSETENABLE	TOGGLE	F	Ach Offset Enable
ACHOFFSET	QUANT	0	Ach Offset (V)
ACHFILTER	IQUANT	3	Ach Filter
IERANGELOWERLIMIT	IQUANT	1	I/E Range Lower Limit
IERANGEMODE	TOGGLE	F	I/E AutoRange
IERANGE	IQUANT	6	I/E Range
POSFEEDENABLE	TOGGLE	F	Positive Feedback IR Comp
POSFEEDRESISTANCE	QUANT	0	Positive Feedback Resistance (ohm)
ACHSELECT	IQUANT	0	Ach Select
CABLEID	IQUANT	14	Cable ID
DCCALDATE	LABEL	8/19/2019	DC Calibration Date
ACCALDATE	LABEL	8/19/2019	AC Calibration Date
THERMOSELECT	IQUANT	1	Thermo Select
FRAMEWORKVERSION	QUANT	6.33	Framework Version
INSTRUMENTVERSION	LABEL	3.50	Instrument Version
ZCURVE	TABLE
	Pt	Time	Freq	Zreal	Zimag	Zsig	Zmod	Zphz	Idc	Vdc	IERange
	#	s	Hz	ohm	ohm	V	ohm	°	A	V	#
	0	1	1000078	2460.564	-1632.169	1	2952.685	-33.55757	-2.329166E-009	0.0092921	8
	1	3	794390.6	2769.065	-1557.609	1	3177.085	-29.35792	-1.390341E-006	0.0094523	8
	2	4	630984.4	3054.132	-1447.35	1	3379.726	-25.35623	-3.642077E-006	0.0097369	8
	3	6	501234.4	3287.399	-1316.387	1	3541.168	-21.82285	-3.16827E-006	0.0095545	8
	4	7	398109.4	3457.141	-1181.588	1	3653.488	-18.86949	9.778144E-008	0.0086319	8
	5	8	316265.6	3637.521	-1035.629	1	3782.074	-15.89204	1.810357E-006	0.0081798	8
	6	10	251203.1	3741.781	-914.2822	1	3851.862	-13.73084	-2.979028E-006	0.0091591	8
	7	11	199546.9	3837.376	-813.898	1	3922.739	-11.97484	4.761763E-007	0.0083395	8
	8	12	158578.1	3907.254	-711.792	1	3971.559	-10.32446	-2.074518E-007	0.0085807	8
	9	14	125953.1	3997.311	-616.5224	1	4044.576	-8.767885	7.271774E-008	0.0084674	7
	10	15	100078.1	4046.652	-565.5577	1	4085.981	-7.95609	3.355541E-008	0.0085041	7
	11	16	79453.13	4097.507	-542.0776	1	4133.208	-7.536154	6.854292E-008	0.0084262	7
	12	18	63140.62	4147.663	-527.6464	1	4181.09	-7.249959	7.686284E-008	0.0084953	7
	13	19	50203.12	4196.819	-525.2377	1	4229.559	-7.133555	-2.623874E-008	0.0086029	7
	14	21	39890.62	4248.204	-534.7076	1	4281.723	-7.173908	-7.997199E-009	0.0086486	7
	15	22	31640.63	4301.669	-554.8664	1	4337.307	-7.349921	-2.9622E-008	0.0085267	7
	16	23	25171.88	4358.417	-584.8784	1	4397.485	-7.643154	-2.987517E-008	0.0085297	7
	17	25	20015.62	4409.998	-626.5348	1	4454.282	-8.085981	-6.539096E-008	0.0086308	7
	18	26	15890.62	4486.85	-680.3655	1	4538.14	-8.622387	-5.393712E-009	0.0086448	7
	19	27	12609.37	4561.431	-745.9257	1	4622.019	-9.28731	4.488658E-008	0.0083972	7
	20	29	10078.13	4640.845	-820.7795	1	4712.867	-10.02961	7.167461E-008	0.0084129	7
	21	30	8015.625	4733.319	-918.0949	1	4821.536	-10.97703	-3.419454E-008	0.0085448	7
	22	31	6328.125	4835.506	-1022.142	1	4942.357	-11.93563	9.523937E-009	0.0084749	7
	23	33	5015.625	4949.637	-1146.042	1	5080.583	-13.03658	-6.276402E-008	0.0086281	7
	24	34	3984.375	5065.834	-1292.085	1	5228.017	-14.30871	-2.240384E-008	0.008597	7
	25	35	3170.956	5209.228	-1448.404	1	5406.84	-15.53836	-3.508056E-008	0.0085492	7
	26	37	2527.573	5354.692	-1631.757	1	5597.799	-16.94777	8.037422E-008	0.0083756	7
	27	38	1976.103	5524.879	-1864.289	1	5830.94	-18.64621	-3.979059E-008	0.0086169	7
	28	39	1577.524	5681.054	-2125.082	1	6065.505	-20.50905	7.266534E-008	0.0084128	7
	29	41	1265.625	5848.356	-2404.06	1	6323.193	-22.34589	7.954925E-008	0.0083665	7
	30	42	998.264	6028.648	-2786.112	1	6641.311	-24.8038	7.072516E-008	0.0084072	7
	31	43	796.875	6201.509	-3233.57	1	6993.904	-27.53829	-1.106405E-008	0.0085539	7
	32	45	627.7902	6391.223	-3818.845	1	7445.221	-30.85891	3.788006E-008	0.0084903	7
	33	46	505.5147	6572.541	-4488.985	1	7959.227	-34.33272	-5.135263E-009	0.0085686	7
	34	47	397.9953	6796.807	-5411.646	1	8688.066	-38.52695	3.316451E-009	0.0085432	7
	35	49	315.5048	7044.627	-6537.457	1	9610.68	-42.8615	4.052817E-009	0.0085339	7
	36	50	252.4038	7330.732	-7881.47	1	10763.7	-47.07341	9.527295E-010	0.0084733	6
	37	52	198.6229	7708.615	-9677.38	1	12372.33	-51.46057	7.267489E-010	0.0084737	6
	38	53	158.3615	8163.021	-11778.47	1	14330.64	-55.27626	9.006887E-010	0.0084798	6
	39	54	125.558	8763.309	-14426.94	1	16879.93	-58.72438	7.764364E-010	0.0084728	6
	40	56	100.4464	9517.1	-17546.43	1	19961.27	-61.52481	5.006278E-010	0.0084725	6
	41	57	79.00281	10594.59	-21590.85	1	24050.16	-63.8629	3.392013E-010	0.0084783	6
	42	58	63.3446	11783.56	-26076.87	1	28615.65	-65.68284	3.682513E-010	0.0084686	6
	43	60	49.86702	13783.48	-32104.25	1	34938.05	-66.76446	-1.288425E-010	0.0084683	6
	44	61	39.72458	15950.11	-38897.67	1	42040.87	-67.70377	7.157932E-010	0.0084699	6
	45	62	31.6723	18939.45	-46918.1	1	50596.55	-68.01752	-1.492698E-010	0.0084757	6
	46	64	24.93351	22916.06	-57012.98	1	61446.12	-68.10261	5.242072E-010	0.00847	6
	47	65	19.86229	27847.79	-68265.68	1	73727.21	-67.80786	3.72799E-010	0.0084757	6
	48	67	15.83615	33849.77	-81166.05	1	87941.65	-67.36174	3.2373E-010	0.0084723	6
	49	68	12.40079	42365.7	-97326.9	1	106147.9	-66.47684	2.098243E-010	0.0084763	5
	50	69	9.93114	52086.9	-114440.4	1	125736.4	-65.52761	-1.960436E-010	0.0084791	5
	51	71	7.944915	63327.96	-133437.2	1	147702.1	-64.61146	5.701789E-010	0.0084718	5
	52	73	6.317385	77115.8	-155299.4	1	173391.9	-63.59275	5.039573E-010	0.0084767	5
	53	75	5.008013	92936.39	-180582.4	1	203094	-62.76746	2.609032E-010	0.0084879	5
	54	77	3.945707	110898	-210172.8	1	237636.2	-62.18156	-1.095359E-010	0.0084708	5
	55	80	3.158693	129361.3	-242301.1	1	274671	-61.90285	1.530601E-010	0.0084756	5
	56	83	2.504006	150214.3	-281662.9	1	319215.2	-61.92846	-8.360309E-011	0.0084832	5
	57	86	1.998082	171942.8	-327017.5	1	369465.5	-62.26502	1.824831E-010	0.0084435	5
	58	89	1.584686	197121.6	-384900.3	1	432441	-62.88135	2.915287E-011	0.0084289	5
	59	92	1.266892	224269.1	-450874.7	1	503571.9	-63.55384	1.758704E-010	0.0084575	5
	60	97	0.999041	258426.7	-537789.2	1	596658.7	-64.33408	-6.576219E-011	0.0084668	5
