EXPLAIN
TAG	EISPOT
TITLE	LABEL	Potentiostatic EIS	Test &Identifier
DATE	LABEL	10/12/2019	Date
TIME	LABEL	10:20:52	Time
NOTES	NOTES	1	&Notes...
	
PSTAT	PSTAT	REF600-11020	Potentiostat
VDC	POTEN	0.00000E+000	T	DC &Voltage (V)
FREQINIT	QUANT	1.00000E+006	Initial Fre&q. (Hz)
FREQFINAL	QUANT	1.00000E+000	Final Fre&q. (Hz)
PTSPERDEC	QUANT	1.00000E+001	Points/&decade
VAC	QUANT	2.50000E+001	AC &Voltage (mV rms)
AREA	QUANT	1.00000E-002	&Area (cm^2)
CONDIT	TWOPARAM	T	5.00000E+000	0.00000E+000	Conditionin&g	Time(s)	E(V)
DELAY	TWOPARAM	T	5.00000E+000	0.00000E+000	Init. De&lay	Time(s)	Stab.(mV/s)
SPEED	SELECTOR	1	&Optimize for:
ZGUESS	QUANT	1.00000E+004	E&stimated Z (ohms)
OCVCURVE	TABLE	19
	Pt	T	Vf	Vm	Ach	Over
	#	s	V vs. Ref.	V	V	bits
	0	0.258333	5.38170E-003	5.38170E-003	5.32733E-004	...........
	1	0.516667	5.36367E-003	4.43771E-003	5.35933E-004	...........
	2	0.775	5.26713E-003	4.28642E-003	5.31233E-004	...........
	3	1.03333	5.04750E-003	4.46836E-003	5.36699E-004	...........
	4	1.29167	4.77131E-003	4.54192E-003	5.38933E-004	...........
	5	1.55	4.56833E-003	4.68224E-003	5.41166E-004	...........
	6	1.80833	4.49586E-003	4.45961E-003	5.35999E-004	...........
	7	2.06667	4.50210E-003	4.25069E-003	5.31566E-004	...........
	8	2.325	4.49650E-003	4.19190E-003	5.40199E-004	...........
	9	2.58333	4.43374E-003	4.14801E-003	5.41666E-004	...........
	10	2.84167	4.32378E-003	3.56262E-003	5.34900E-004	...........
	11	3.1	4.17375E-003	3.53335E-003	5.37299E-004	...........
	12	3.35833	3.98569E-003	3.73413E-003	5.39566E-004	...........
	13	3.61667	3.80712E-003	3.69960E-003	5.35266E-004	...........
	14	3.875	3.69937E-003	3.67499E-003	5.37266E-004	...........
	15	4.13333	3.67884E-003	4.32256E-003	5.31833E-004	...........
	16	4.39167	3.73658E-003	3.87681E-003	5.36266E-004	...........
	17	4.65	3.84007E-003	3.81205E-003	5.36499E-004	...........
	18	4.90833	3.91688E-003	3.78236E-003	5.36733E-004	...........
EOC	QUANT	0.0039169	Open Circuit (V)
PSTATMODEL	IQUANT	4	Pstat Model
PSTATSECTION	LABEL	REF600-11020	Pstat Section
PSTATSERIALNO	LABEL	11020	Pstat Serial Number
CTRLMODE	IQUANT	1	Control Mode
IESTAB	IQUANT	0	I/E Stability
CASPEED	IQUANT	1	Control Amp Speed
CONVENTION	IQUANT	1	Current Convention
ICHRANGE	IQUANT	2	Ich Range
ICHRANGEMODE	TOGGLE	F	Ich Auto Range
ICHOFFSETENABLE	TOGGLE	T	Ich Offset Enable
ICHOFFSET	QUANT	0	Ich Offset (V)
ICHFILTER	IQUANT	3	Ich Filter
VCHRANGE	IQUANT	2	Vch Range
VCHRANGEMODE	TOGGLE	F	Vch Auto Range
VCHOFFSETENABLE	TOGGLE	T	Vch Offset Enable
VCHOFFSET	QUANT	0	Vch Offset (V)
VCHFILTER	IQUANT	3	Vch Filter
ACHRANGE	IQUANT	2	Ach Range
ACHOFFSETENABLE	TOGGLE	F	Ach Offset Enable
ACHOFFSET	QUANT	0	Ach Offset (V)
ACHFILTER	IQUANT	3	Ach Filter
IERANGELOWERLIMIT	IQUANT	1	I/E Range Lower Limit
IERANGEMODE	TOGGLE	F	I/E AutoRange
IERANGE	IQUANT	5	I/E Range
POSFEEDENABLE	TOGGLE	F	Positive Feedback IR Comp
POSFEEDRESISTANCE	QUANT	0	Positive Feedback Resistance (ohm)
ACHSELECT	IQUANT	0	Ach Select
CABLEID	IQUANT	14	Cable ID
DCCALDATE	LABEL	8/19/2019	DC Calibration Date
ACCALDATE	LABEL	8/19/2019	AC Calibration Date
THERMOSELECT	IQUANT	1	Thermo Select
FRAMEWORKVERSION	QUANT	6.33	Framework Version
INSTRUMENTVERSION	LABEL	3.50	Instrument Version
ZCURVE	TABLE
	Pt	Time	Freq	Zreal	Zimag	Zsig	Zmod	Zphz	Idc	Vdc	IERange
	#	s	Hz	ohm	ohm	V	ohm	°	A	V	#
	0	1	1000078	2612.418	-1805.29	1	3175.5	-34.64609	-1.042431E-006	0.0066785	8
	1	3	794390.6	2956.608	-1724.458	1	3422.76	-30.25312	-2.75902E-007	0.0059098	8
	2	4	630984.4	3275.987	-1557.275	1	3627.285	-25.42457	6.504094E-006	0.0045854	8
	3	5	501234.4	3534.322	-1431.316	1	3813.148	-22.04677	3.087973E-006	0.0050687	8
	4	7	398109.4	3760.817	-1295.41	1	3977.666	-19.00622	1.356099E-006	0.0052166	8
	5	8	316265.6	3931.552	-1125.479	1	4089.475	-15.97474	-9.53647E-007	0.005825	8
	6	9	251203.1	4034.268	-978.405	1	4151.216	-13.63238	-1.582297E-006	0.0059316	8
	7	11	199546.9	4161.271	-829.9598	1	4243.231	-11.27955	-1.370938E-006	0.0058106	8
	8	12	158578.1	4196.017	-734.7407	1	4259.859	-9.93204	4.382268E-006	0.0046417	8
	9	13	125953.1	4291.877	-606.2549	1	4334.484	-8.040198	3.198581E-007	0.0041387	7
	10	15	100078.1	4331.89	-528.6429	1	4364.027	-6.957697	3.872951E-008	0.0054197	7
	11	16	79453.13	4371.392	-486.9282	1	4398.428	-6.35596	-3.461645E-008	0.0055392	7
	12	17	63140.62	4407.021	-458.0646	1	4430.763	-5.934	-2.407345E-009	0.0054791	7
	13	19	50203.12	4443.302	-441.4443	1	4465.177	-5.673746	-1.014903E-008	0.0055179	7
	14	20	39890.62	4478.415	-439.41	1	4499.92	-5.603771	-4.21659E-008	0.0056312	7
	15	21	31640.63	4514.581	-447.0091	1	4536.657	-5.654684	7.042357E-009	0.0055078	7
	16	23	25171.88	4551.458	-466.0049	1	4575.252	-5.845907	7.48344E-008	0.0053768	7
	17	24	20015.62	4612.408	-484.6967	1	4637.806	-5.998932	-4.583517E-008	0.0055793	7
	18	25	15890.62	4634.375	-538.5247	1	4665.56	-6.62817	5.117338E-008	0.0054447	7
	19	27	12609.37	4681.503	-595.0547	1	4719.169	-7.243885	7.508132E-008	0.0053745	7
	20	28	10078.13	4731.409	-663.5261	1	4777.708	-7.983017	7.682999E-008	0.0053738	7
	21	29	8015.625	4796.695	-752.7847	1	4855.406	-8.919147	7.142357E-009	0.005504	7
	22	31	6328.125	4846.346	-856.7999	1	4921.501	-10.02589	4.690249E-008	0.0054805	7
	23	32	5015.625	4911.319	-988.88	1	5009.884	-11.38413	-6.906177E-008	0.0057396	7
	24	34	3984.375	4994.121	-1141.962	1	5123.019	-12.8799	-8.586337E-009	0.0055172	7
	25	35	3170.956	5057.003	-1341.527	1	5231.919	-14.85727	9.579351E-008	0.0054373	7
	26	36	2527.573	5140.991	-1577.877	1	5377.684	-17.06234	-4.429901E-008	0.0055774	7
	27	38	1976.103	5244.109	-1895.486	1	5576.159	-19.87242	1.271814E-008	0.0054595	7
	28	39	1577.524	5308.329	-2301.144	1	5785.639	-23.43658	1.30338E-008	0.0054612	7
	29	40	1265.625	5467.795	-2675.237	1	6087.173	-26.0712	5.361431E-008	0.005444	7
	30	42	998.264	5614.071	-3233.931	1	6478.897	-29.94367	-6.95705E-008	0.0056162	7
	31	43	796.875	5778.651	-3882.005	1	6961.521	-33.89257	5.072954E-008	0.0054437	7
	32	44	627.7902	5980.406	-4714.088	1	7614.978	-38.24714	-6.772148E-008	0.0056209	7
	33	46	505.5147	6195.98	-5653.012	1	8387.295	-42.37631	-6.879658E-008	0.0056121	7
	34	47	397.9953	6468.96	-6908.694	1	9464.539	-46.88268	6.535113E-009	0.0055353	7
	35	48	315.5048	6787.341	-8417.661	1	10813.19	-51.12002	4.487234E-010	0.0054766	6
	36	50	252.4038	7149.848	-10198.95	1	12455.48	-54.96811	1.025999E-009	0.0054753	6
	37	51	198.6229	7622.688	-12560.18	1	14692.29	-58.74672	9.850161E-010	0.0054761	6
	38	52	158.3615	8176.406	-15319.41	1	17364.85	-61.90989	1.299835E-009	0.0054782	6
	39	54	125.558	8892.89	-18787.67	1	20786.05	-64.6701	9.606472E-010	0.0054804	6
	40	55	100.4464	9767.68	-22899.92	1	24896.06	-66.89993	1.602757E-009	0.005477	6
	41	56	79.00281	10977.22	-28331.17	1	30383.46	-68.82059	1.56278E-009	0.0054749	6
	42	58	63.3446	12762.2	-34531.94	1	36814.79	-69.71687	8.48935E-010	0.0054763	6
	43	59	49.86702	14456.11	-42539.31	1	44928.52	-71.23073	1.137335E-009	0.0054714	6
	44	61	39.72458	17242.79	-51609.79	1	54414.01	-71.52557	8.161986E-010	0.0054755	6
	45	62	31.6723	20843.08	-62837.55	1	66204.17	-71.64943	3.634041E-010	0.0054714	6
	46	64	24.93351	25749.79	-76752.86	1	80957.11	-71.45393	7.734069E-010	0.0054735	6
	47	65	19.86229	31925.84	-92578.5	1	97928.7	-70.97317	4.824632E-010	0.0054772	6
	48	66	15.83615	38959.62	-111153.1	1	117783.1	-70.68422	1.632701E-009	0.0054755	5
	49	68	12.40079	51411.3	-133776.6	1	143315.4	-68.97787	-5.415922E-010	0.0054739	5
	50	69	9.93114	64822.31	-159826.4	1	172471.4	-67.92353	2.374868E-010	0.0054798	5
	51	71	7.944915	80477.8	-187881.8	1	204392.4	-66.81248	7.684515E-010	0.005472	5
	52	72	6.317385	102572.8	-219772.2	1	242530.5	-64.98045	7.067839E-010	0.0054763	5
	53	74	5.008013	128951	-256859.3	1	287411	-63.34199	3.703002E-010	0.0054866	5
	54	77	3.945707	161479.7	-297821.7	1	338782.3	-61.53333	-8.014521E-011	0.0054704	5
	55	80	3.158693	197156.1	-339927.2	1	392964.4	-59.88647	2.420633E-010	0.005479	5
	56	83	2.504006	239119.2	-387001.9	1	454915.9	-58.28908	-2.224563E-011	0.0054834	5
	57	86	1.998082	283508	-436122.8	1	520172.9	-56.97353	3.545195E-010	0.0054461	5
	58	89	1.584686	334503.1	-494291.4	1	596838.6	-55.91251	-1.569787E-011	0.0054388	5
	59	92	1.266892	386143	-554650.1	1	675827.7	-55.15467	2.672256E-010	0.0054492	5
	60	97	0.999041	446691	-630947.1	1	773063.4	-54.70269	-6.156954E-011	0.0054892	5
