EXPLAIN
TAG	EISPOT
TITLE	LABEL	Potentiostatic EIS	Test &Identifier
DATE	LABEL	11/7/2019	Date
TIME	LABEL	10:33:03	Time
NOTES	NOTES	2	&Notes...
	
	
PSTAT	PSTAT	REF600-11020	Potentiostat
VDC	POTEN	0.00000E+000	T	DC &Voltage (V)
FREQINIT	QUANT	1.00000E+006	Initial Fre&q. (Hz)
FREQFINAL	QUANT	1.00000E+000	Final Fre&q. (Hz)
PTSPERDEC	QUANT	1.00000E+001	Points/&decade
VAC	QUANT	2.50000E+001	AC &Voltage (mV rms)
AREA	QUANT	1.00000E-002	&Area (cm^2)
CONDIT	TWOPARAM	T	5.00000E+000	0.00000E+000	Conditionin&g	Time(s)	E(V)
DELAY	TWOPARAM	T	5.00000E+000	0.00000E+000	Init. De&lay	Time(s)	Stab.(mV/s)
SPEED	SELECTOR	1	&Optimize for:
ZGUESS	QUANT	1.00000E+005	E&stimated Z (ohms)
OCVCURVE	TABLE	19
	Pt	T	Vf	Vm	Ach	Over
	#	s	V vs. Ref.	V	V	bits
	0	0.258333	2.10153E-003	2.10153E-003	5.81099E-004	...........
	1	0.516667	2.10258E-003	2.15647E-003	5.89665E-004	...........
	2	0.775	2.10562E-003	2.03057E-003	5.89299E-004	...........
	3	1.03333	2.10612E-003	2.07634E-003	5.88799E-004	...........
	4	1.29167	2.09759E-003	2.04587E-003	5.79899E-004	...........
	5	1.55	2.07932E-003	1.90792E-003	5.82599E-004	...........
	6	1.80833	2.04623E-003	1.70087E-003	5.86699E-004	...........
	7	2.06667	1.97740E-003	1.35018E-003	5.81999E-004	...........
	8	2.325	1.84780E-003	1.11812E-003	5.84599E-004	...........
	9	2.58333	1.66507E-003	1.57329E-003	5.84265E-004	...........
	10	2.84167	1.49225E-003	1.28198E-003	5.80266E-004	...........
	11	3.1	1.38450E-003	1.01562E-003	5.79432E-004	...........
	12	3.35833	1.32279E-003	1.37151E-003	5.78799E-004	...........
	13	3.61667	1.27889E-003	1.51858E-003	5.85299E-004	...........
	14	3.875	1.27015E-003	1.12522E-003	5.79799E-004	...........
	15	4.13333	1.29527E-003	1.46483E-003	5.80565E-004	...........
	16	4.39167	1.32361E-003	1.47641E-003	5.81365E-004	...........
	17	4.65	1.35110E-003	1.37782E-003	5.83732E-004	...........
	18	4.90833	1.38001E-003	1.26142E-003	5.75299E-004	...........
EOC	QUANT	0.00138	Open Circuit (V)
PSTATMODEL	IQUANT	4	Pstat Model
PSTATSECTION	LABEL	REF600-11020	Pstat Section
PSTATSERIALNO	LABEL	11020	Pstat Serial Number
CTRLMODE	IQUANT	1	Control Mode
IESTAB	IQUANT	0	I/E Stability
CASPEED	IQUANT	1	Control Amp Speed
CONVENTION	IQUANT	1	Current Convention
ICHRANGE	IQUANT	2	Ich Range
ICHRANGEMODE	TOGGLE	F	Ich Auto Range
ICHOFFSETENABLE	TOGGLE	T	Ich Offset Enable
ICHOFFSET	QUANT	0	Ich Offset (V)
ICHFILTER	IQUANT	3	Ich Filter
VCHRANGE	IQUANT	2	Vch Range
VCHRANGEMODE	TOGGLE	F	Vch Auto Range
VCHOFFSETENABLE	TOGGLE	T	Vch Offset Enable
VCHOFFSET	QUANT	0	Vch Offset (V)
VCHFILTER	IQUANT	3	Vch Filter
ACHRANGE	IQUANT	2	Ach Range
ACHOFFSETENABLE	TOGGLE	F	Ach Offset Enable
ACHOFFSET	QUANT	0	Ach Offset (V)
ACHFILTER	IQUANT	3	Ach Filter
IERANGELOWERLIMIT	IQUANT	1	I/E Range Lower Limit
IERANGEMODE	TOGGLE	F	I/E AutoRange
IERANGE	IQUANT	4	I/E Range
POSFEEDENABLE	TOGGLE	F	Positive Feedback IR Comp
POSFEEDRESISTANCE	QUANT	0	Positive Feedback Resistance (ohm)
ACHSELECT	IQUANT	0	Ach Select
CABLEID	IQUANT	14	Cable ID
DCCALDATE	LABEL	8/19/2019	DC Calibration Date
ACCALDATE	LABEL	8/19/2019	AC Calibration Date
THERMOSELECT	IQUANT	1	Thermo Select
FRAMEWORKVERSION	QUANT	6.33	Framework Version
INSTRUMENTVERSION	LABEL	3.50	Instrument Version
ZCURVE	TABLE
	Pt	Time	Freq	Zreal	Zimag	Zsig	Zmod	Zphz	Idc	Vdc	IERange
	#	s	Hz	ohm	ohm	V	ohm	°	A	V	#
	0	1	1000078	2324.552	-1781.813	1	2928.891	-37.47084	-5.41034E-008	0.0041063	8
	1	3	794390.6	2702.475	-1764.863	1	3227.709	-33.14672	5.9063E-006	0.0034083	8
	2	4	630984.4	3034.628	-1695.307	1	3476.066	-29.19009	-1.831416E-006	0.0039201	8
	3	6	501234.4	3336.699	-1581.601	1	3692.563	-25.36103	7.660654E-006	0.0018048	8
	4	7	398109.4	3604.583	-1448.436	1	3884.711	-21.89184	-2.58641E-006	0.0028427	8
	5	9	316265.6	3815.557	-1306.374	1	4033	-18.90023	-6.696592E-006	0.0040714	8
	6	10	251203.1	3995.353	-1163.566	1	4161.338	-16.23713	8.086458E-006	0.002189	8
	7	12	199546.9	4160.138	-986.371	1	4275.474	-13.33855	2.498341E-006	0.0024425	8
	8	14	158578.1	4281.525	-900.085	1	4375.113	-11.87214	-5.046456E-006	0.0034371	8
	9	15	125953.1	4376.391	-735.3897	1	4437.747	-9.53862	1.951641E-006	-0.0033621	7
	10	17	100078.1	4445.182	-663.3911	1	4494.411	-8.488075	1.29293E-006	0.0016627	7
	11	18	79453.13	4505.34	-612.4852	1	4546.782	-7.741701	1.279742E-006	0.0012676	7
	12	20	63140.62	4561.306	-577.4235	1	4597.709	-7.214794	1.281657E-006	0.0012658	7
	13	21	50203.12	4610.232	-550.6163	1	4642.997	-6.810776	-3.430148E-007	0.0045883	7
	14	22	39890.62	4664.508	-537.985	1	4695.43	-6.579187	1.297329E-006	0.001656	7
	15	24	31640.63	4710.029	-538.0486	1	4740.661	-6.516915	9.207169E-007	0.0008968	7
	16	25	25171.88	4749.412	-544.4991	1	4780.522	-6.540155	-1.427606E-006	0.004254	7
	17	26	20015.62	4801.39	-568.3378	1	4834.91	-6.750658	-1.288315E-006	0.0048917	7
	18	28	15890.62	4847.221	-605.9417	1	4884.948	-7.125471	-3.415489E-007	0.0045823	7
	19	29	12609.37	4889.131	-664.7971	1	4934.122	-7.743275	-3.613829E-007	0.0019899	7
	20	30	10078.13	4934.507	-731.8284	1	4988.48	-8.435947	1.195606E-006	0.0021514	7
	21	32	8015.625	4995.942	-820.6003	1	5062.887	-9.327736	-1.227499E-006	0.0035864	7
	22	33	6328.125	5049.523	-936.868	1	5135.699	-10.51091	-7.266482E-007	0.0048582	7
	23	35	5015.625	5108.652	-1088.554	1	5223.339	-12.02872	-3.399237E-007	0.0045764	7
	24	36	3984.375	5170.478	-1271.615	1	5324.551	-13.81697	-3.39358E-007	0.0045753	7
	25	37	3170.956	5239.815	-1502.156	1	5450.884	-15.99659	-3.613578E-007	0.0019836	7
	26	39	2527.573	5310.789	-1788.504	1	5603.858	-18.61188	-1.439336E-006	0.0046893	7
	27	40	1976.103	5415.577	-2171.63	1	5834.763	-21.85064	1.400496E-007	0.0013701	7
	28	41	1577.524	5503.051	-2593.816	1	6083.704	-25.23645	-3.615532E-007	0.0019845	7
	29	43	1265.625	5619.049	-3134.207	1	6434.047	-29.15201	1.389775E-007	0.0013768	7
	30	44	998.264	5770.763	-3832.879	1	6927.674	-33.59169	1.301095E-006	0.0016507	7
	31	46	796.875	5932.582	-4647.646	1	7536.322	-38.07552	1.284391E-006	0.0012603	7
	32	47	627.7902	6159.5	-5693.277	1	8387.66	-42.74746	-3.361421E-007	0.0045755	7
	33	49	505.5147	6388.214	-6892.133	1	9397.381	-47.17303	1.154166E-006	0.0010012	7
	34	50	397.9953	6718.792	-8481.026	1	10819.89	-51.61322	5.132812E-009	0.0030164	7
	35	52	315.5048	7127.925	-10404.97	1	12612.32	-55.58689	1.18274E-009	0.0029632	6
	36	53	252.4038	7626.035	-12670.27	1	14788.24	-58.95693	1.054176E-010	0.0029553	6
	37	54	198.6229	8320.728	-15659.71	1	17733.05	-62.01622	4.279064E-010	0.0029591	6
	38	56	158.3615	9194.174	-19123.94	1	21219.28	-64.32325	1.127714E-009	0.0029575	6
	39	57	125.558	10388.34	-23444.97	1	25643.4	-66.10213	1.193132E-009	0.002944	6
	40	59	100.4464	11868.53	-28465.65	1	30840.81	-67.36668	1.529291E-009	0.002951	6
	41	60	79.00281	14252.55	-34930.5	1	37726.32	-67.80328	1.370564E-009	0.0029488	6
	42	61	63.3446	17618.04	-42389.59	1	45905.04	-67.43116	1.195491E-011	0.0029612	6
	43	63	49.86702	20602.06	-51617.59	1	55577.15	-68.24164	7.228241E-010	0.0029591	6
	44	64	39.72458	26020.95	-61502.3	1	66780.41	-67.06731	9.640675E-010	0.0029569	6
	45	66	31.6723	32739.95	-73038.95	1	80041.2	-65.85554	4.364633E-010	0.0029467	6
	46	67	24.93351	41862.05	-86351.85	1	95963.9	-64.1366	8.867649E-010	0.002942	6
	47	69	19.86229	52745.44	-100182.1	1	113219	-62.23339	8.115891E-011	0.0029683	5
	48	70	15.83615	65805.02	-115546.3	1	132970.8	-60.33796	-7.07039E-010	0.0029633	5
	49	71	12.40079	82673.29	-131245.1	1	155113.3	-57.79255	2.453389E-009	0.0029607	5
	50	73	9.93114	97162.7	-148641.2	1	177580.4	-56.82843	2.938029E-010	0.0029606	5
	51	74	7.944915	115190.2	-166926.4	1	202813.2	-55.39175	3.112468E-010	0.0029735	5
	52	76	6.317385	132917.6	-186292.3	1	228849.1	-54.49254	5.400922E-011	0.0029773	5
	53	78	5.008013	152868.2	-209980.4	1	259731.5	-53.94495	1.776879E-010	0.0029452	5
	54	81	3.945707	173798.2	-238214.1	1	294875.9	-53.88595	5.287613E-010	0.002971	5
	55	83	3.158693	195445.4	-271501.9	1	334532.8	-54.25111	-2.101817E-010	0.0029457	5
	56	87	2.504006	220614.8	-309430.1	1	380023.5	-54.51222	-4.787362E-010	0.0029631	5
	57	89	1.998082	245523.9	-356285	1	432690.4	-55.42841	6.697725E-010	0.0029932	5
	58	92	1.584686	276006.5	-414374.8	1	497881.5	-56.33324	2.897723E-010	0.0029282	5
	59	96	1.266892	310315.8	-482655.3	1	573804.8	-57.26163	2.750004E-010	0.0029829	5
	60	100	0.999041	361890.7	-573237.8	1	677913.3	-57.73537	2.05459E-010	0.0029299	5
