EXPLAIN
TAG	EISPOT
TITLE	LABEL	Potentiostatic IDE	Test &Identifier
DATE	LABEL	9/14/2019	Date
TIME	LABEL	8:20:27	Time
NOTES	NOTES	1	&Notes...
	
PSTAT	PSTAT	REF600-11020	Potentiostat
VDC	POTEN	0.00000E+000	T	DC &Voltage (V)
FREQINIT	QUANT	1.00000E+006	Initial Fre&q. (Hz)
FREQFINAL	QUANT	1.00000E+000	Final Fre&q. (Hz)
PTSPERDEC	QUANT	1.00000E+001	Points/&decade
VAC	QUANT	2.50000E+001	AC &Voltage (mV rms)
AREA	QUANT	1.00000E-002	&Area (cm^2)
CONDIT	TWOPARAM	T	5.00000E+000	0.00000E+000	Conditionin&g	Time(s)	E(V)
DELAY	TWOPARAM	T	5.00000E+000	0.00000E+000	Init. De&lay	Time(s)	Stab.(mV/s)
SPEED	SELECTOR	1	&Optimize for:
ZGUESS	QUANT	1.00000E+007	E&stimated Z (ohms)
OCVCURVE	TABLE	19
	Pt	T	Vf	Vm	Ach	Over
	#	s	V vs. Ref.	V	V	bits
	0	0.258333	9.99317E-003	9.99317E-003	5.63566E-004	...........
	1	0.516667	9.99427E-003	1.00506E-002	5.67699E-004	...........
	2	0.775	1.00013E-002	1.01178E-002	5.62332E-004	...........
	3	1.03333	1.00219E-002	1.01859E-002	5.65866E-004	...........
	4	1.29167	1.00608E-002	1.02580E-002	5.67532E-004	...........
	5	1.55	1.01157E-002	1.03253E-002	5.64732E-004	...........
	6	1.80833	1.01806E-002	1.03969E-002	5.67532E-004	...........
	7	2.06667	1.02497E-002	1.04576E-002	5.71199E-004	...........
	8	2.325	1.03192E-002	1.05278E-002	5.71099E-004	...........
	9	2.58333	1.03876E-002	1.05890E-002	5.62266E-004	...........
	10	2.84167	1.04542E-002	1.06445E-002	5.62066E-004	...........
	11	3.1	1.05187E-002	1.06980E-002	5.63999E-004	...........
	12	3.35833	1.05800E-002	1.07499E-002	5.63232E-004	...........
	13	3.61667	1.06379E-002	1.08004E-002	5.63832E-004	...........
	14	3.875	1.06925E-002	1.08434E-002	5.65599E-004	...........
	15	4.13333	1.07443E-002	1.08908E-002	5.63966E-004	...........
	16	4.39167	1.07933E-002	1.09294E-002	5.69432E-004	...........
	17	4.65	1.08400E-002	1.09755E-002	5.60966E-004	...........
	18	4.90833	1.08845E-002	1.10077E-002	5.60566E-004	...........
EOC	QUANT	0.0108845	Open Circuit (V)
PSTATMODEL	IQUANT	4	Pstat Model
PSTATSECTION	LABEL	REF600-11020	Pstat Section
PSTATSERIALNO	LABEL	11020	Pstat Serial Number
CTRLMODE	IQUANT	1	Control Mode
IESTAB	IQUANT	0	I/E Stability
CASPEED	IQUANT	1	Control Amp Speed
CONVENTION	IQUANT	1	Current Convention
ICHRANGE	IQUANT	2	Ich Range
ICHRANGEMODE	TOGGLE	F	Ich Auto Range
ICHOFFSETENABLE	TOGGLE	T	Ich Offset Enable
ICHOFFSET	QUANT	0	Ich Offset (V)
ICHFILTER	IQUANT	3	Ich Filter
VCHRANGE	IQUANT	2	Vch Range
VCHRANGEMODE	TOGGLE	F	Vch Auto Range
VCHOFFSETENABLE	TOGGLE	T	Vch Offset Enable
VCHOFFSET	QUANT	0	Vch Offset (V)
VCHFILTER	IQUANT	3	Vch Filter
ACHRANGE	IQUANT	2	Ach Range
ACHOFFSETENABLE	TOGGLE	F	Ach Offset Enable
ACHOFFSET	QUANT	0	Ach Offset (V)
ACHFILTER	IQUANT	3	Ach Filter
IERANGELOWERLIMIT	IQUANT	1	I/E Range Lower Limit
IERANGEMODE	TOGGLE	F	I/E AutoRange
IERANGE	IQUANT	3	I/E Range
POSFEEDENABLE	TOGGLE	F	Positive Feedback IR Comp
POSFEEDRESISTANCE	QUANT	0	Positive Feedback Resistance (ohm)
ACHSELECT	IQUANT	0	Ach Select
CABLEID	IQUANT	14	Cable ID
DCCALDATE	LABEL	8/19/2019	DC Calibration Date
ACCALDATE	LABEL	8/19/2019	AC Calibration Date
THERMOSELECT	IQUANT	1	Thermo Select
FRAMEWORKVERSION	QUANT	6.33	Framework Version
INSTRUMENTVERSION	LABEL	3.50	Instrument Version
ZCURVE	TABLE
	Pt	Time	Freq	Zreal	Zimag	Zsig	Zmod	Zphz	Idc	Vdc	IERange
	#	s	Hz	ohm	ohm	V	ohm	°	A	V	#
	0	2	1000078	3195.105	-2885.008	1	4304.877	-42.08034	-2.808633E-007	0.0132663	8
	1	4	794390.6	3510.273	-3049.474	1	4649.873	-40.98177	1.718392E-007	0.0128673	8
	2	5	630984.4	3818.163	-3281.626	1	5034.624	-40.67832	-5.813076E-007	0.013248	8
	3	6	501234.4	4071.087	-3607.966	1	5439.776	-41.54869	7.020286E-007	0.0125366	8
	4	8	398109.4	4359.432	-4074.374	1	5967.006	-43.06417	2.276938E-007	0.012694	8
	5	9	316265.6	4689.029	-4707.623	1	6644.449	-45.11337	-2.497452E-006	0.0131219	8
	6	11	251203.1	5158.659	-5467.632	1	7517.098	-46.66548	4.93156E-006	0.0116769	8
	7	13	199546.9	5697.014	-6396.148	1	8565.436	-48.30872	5.567941E-007	0.0124217	8
	8	15	158578.1	6477.191	-7544.492	1	9943.51	-49.35284	3.468963E-006	0.0119886	8
	9	17	125953.1	7753.748	-8828.348	1	11749.91	-48.70786	-1.339404E-006	0.0155145	7
	10	18	100078.1	9202.494	-10135.31	1	13689.79	-47.76168	2.374713E-008	0.0126687	7
	11	20	79453.13	11075.6	-11427.06	1	15913.72	-45.89481	8.469372E-008	0.012422	7
	12	21	63140.62	13321.77	-12467.77	1	18245.95	-43.10337	1.401564E-008	0.0124623	7
	13	22	50203.12	15880.9	-13224.14	1	20665.94	-39.7844	1.373686E-008	0.0124631	7
	14	24	39890.62	18527.3	-13584	1	22973.59	-36.24843	-6.478711E-008	0.0127952	7
	15	25	31640.63	21212.18	-13467.43	1	25126.25	-32.41112	-7.550513E-008	0.0126878	7
	16	26	25171.88	23685.04	-13018.53	1	27027.09	-28.79547	-1.183284E-009	0.0126001	7
	17	28	20015.62	25849.44	-12420.98	1	28678.81	-25.66487	2.501857E-008	0.0126533	7
	18	29	15890.62	27703.09	-11598.89	1	30033.24	-22.71838	1.458026E-008	0.0124545	7
	19	31	12609.37	29607.74	-10563.25	1	31435.66	-19.63504	1.429876E-008	0.0124068	6
	20	32	10078.13	31001.11	-9941.8	1	32556.23	-17.78062	-5.026199E-009	0.0124949	6
	21	33	8015.625	32136.84	-9410.329	1	33486.28	-16.32112	2.784172E-009	0.012604	6
	22	35	6328.125	33247.55	-9093.675	1	34468.75	-15.29707	-4.009662E-009	0.0125077	6
	23	36	5015.625	34236.73	-8875.779	1	35368.54	-14.53381	2.235385E-008	0.0122057	6
	24	37	3984.375	35267.7	-8849.209	1	36360.96	-14.0856	-1.019873E-008	0.0127131	6
	25	39	3170.956	36195.87	-8971.88	1	37291.23	-13.92134	-5.311084E-009	0.0126882	6
	26	40	2527.573	37137.45	-9211.991	1	38262.91	-13.93111	-1.289564E-008	0.0126512	6
	27	41	1976.103	38179.07	-9616.48	1	39371.54	-14.13749	8.598031E-009	0.0122913	6
	28	43	1577.524	39086.91	-10254.46	1	40409.66	-14.70028	-8.828407E-009	0.0125851	6
	29	44	1265.625	40114.54	-10926.89	1	41576.11	-15.23725	-1.348369E-008	0.0126456	6
	30	46	998.264	41024.35	-12108.1	1	42773.87	-16.44367	4.249888E-009	0.0123535	6
	31	47	796.875	42034.06	-13433.45	1	44128.45	-17.72309	8.335338E-009	0.012291	6
	32	48	627.7902	43167.97	-15185.01	1	45760.88	-19.38012	2.389057E-009	0.0126036	6
	33	50	505.5147	44172.04	-17320.24	1	47446.39	-21.41058	-4.075619E-009	0.0123941	6
	34	51	397.9953	45555.44	-20088.21	1	49787.89	-23.79565	3.153946E-010	0.0125158	6
	35	52	315.5048	47005.62	-23474.08	1	52541.04	-26.53703	3.298095E-010	0.0125185	6
	36	53	252.4038	48545.81	-27485.44	1	55786.6	-29.51747	-4.011438E-010	0.0125149	6
	37	55	198.6229	50491.08	-32753.65	1	60184.3	-32.97154	2.594876E-010	0.012517	6
	38	56	158.3615	52716.11	-38968.94	1	65555.83	-36.47265	-2.281414E-010	0.0125142	6
	39	57	125.558	55385.66	-46565.04	1	72359.34	-40.05517	-4.828324E-011	0.012518	6
	40	59	100.4464	58381.94	-55313.93	1	80424.38	-43.45428	1.173018E-009	0.0125139	6
	41	60	79.00281	63362.42	-66772.55	1	92050.91	-46.50106	1.092775E-009	0.0125138	6
	42	62	63.3446	65296.08	-77404.9	1	101267.5	-49.85019	-3.133324E-010	0.0125198	5
	43	63	49.86702	74151.73	-95676.3	1	121047.2	-52.22334	1.066444E-010	0.0125197	5
	44	65	39.72458	82068.16	-114331.7	1	140737	-54.32893	2.901061E-010	0.0125232	5
	45	66	31.6723	92415.41	-137150.1	1	165380.7	-56.02686	-5.500271E-010	0.0125243	5
	46	67	24.93351	104266.9	-164852	1	195058.3	-57.68713	4.697843E-010	0.0125216	5
	47	69	19.86229	119337.9	-195754.4	1	229262.6	-58.63222	2.377208E-010	0.0125262	5
	48	70	15.83615	136534.4	-228757.8	1	266405.3	-59.16908	-4.692196E-010	0.0125227	5
	49	71	12.40079	163283.3	-276847.5	1	321412.4	-59.46811	2.337755E-010	0.0125191	5
	50	73	9.93114	195626.2	-322346.3	1	377063.3	-58.7472	9.697419E-011	0.0125216	5
	51	74	7.944915	229762.8	-375846.5	1	440512.9	-58.56168	1.281581E-010	0.0125168	5
	52	76	6.317385	273762.4	-433607.5	1	512797.6	-57.73333	7.327917E-011	0.0125047	5
	53	78	5.008013	327282.3	-502346.2	1	599554.3	-56.91545	-6.280038E-011	0.0125114	5
	54	81	3.945707	392964	-579445.1	1	700126.7	-55.85594	4.573044E-010	0.0125131	6
	55	84	3.158693	467666.2	-659996.6	1	808892.6	-54.67904	5.302178E-010	0.0125215	6
	56	87	2.504006	557549.2	-749561.4	1	934186	-53.35688	-8.183394E-011	0.0125177	5
	57	90	1.998082	659492.8	-841820.4	1	1069389	-51.9244	1.84226E-010	0.0124739	4
	58	93	1.584686	778251.6	-945322.5	1	1224463	-50.53654	-6.114491E-011	0.0124961	4
	59	97	1.266892	909055.3	-1044104	1	1384390	-48.95535	1.953589E-010	0.0124749	4
	60	101	0.999041	1061414	-1157583	1	1570541	-47.48159	-8.523151E-011	0.0125319	4
