EXPLAIN
TAG	EISPOT
TITLE	LABEL	Potentiostatic EIS	Test &Identifier
DATE	LABEL	9/22/2019	Date
TIME	LABEL	9:51:37	Time
NOTES	NOTES	1	&Notes...
	
PSTAT	PSTAT	REF600-11020	Potentiostat
VDC	POTEN	0.00000E+000	T	DC &Voltage (V)
FREQINIT	QUANT	1.00000E+006	Initial Fre&q. (Hz)
FREQFINAL	QUANT	1.00000E+000	Final Fre&q. (Hz)
PTSPERDEC	QUANT	1.00000E+001	Points/&decade
VAC	QUANT	2.50000E+001	AC &Voltage (mV rms)
AREA	QUANT	1.00000E-002	&Area (cm^2)
CONDIT	TWOPARAM	T	5.00000E+000	0.00000E+000	Conditionin&g	Time(s)	E(V)
DELAY	TWOPARAM	T	5.00000E+000	0.00000E+000	Init. De&lay	Time(s)	Stab.(mV/s)
SPEED	SELECTOR	1	&Optimize for:
ZGUESS	QUANT	1.00000E+004	E&stimated Z (ohms)
OCVCURVE	TABLE	19
	Pt	T	Vf	Vm	Ach	Over
	#	s	V vs. Ref.	V	V	bits
	0	0.258333	1.89828E-003	1.89828E-003	5.64999E-004	...........
	1	0.516667	1.89243E-003	1.59178E-003	5.68966E-004	...........
	2	0.775	1.85675E-003	1.31585E-003	5.70466E-004	...........
	3	1.03333	1.75695E-003	1.06115E-003	5.72499E-004	...........
	4	1.29167	1.58129E-003	8.30663E-004	5.63999E-004	...........
	5	1.55	1.35313E-003	6.23418E-004	5.68532E-004	...........
	6	1.80833	1.10877E-003	4.57417E-004	5.65899E-004	...........
	7	2.06667	8.74793E-004	2.58761E-004	5.67166E-004	...........
	8	2.325	6.60176E-004	3.66317E-005	5.73565E-004	...........
	9	2.58333	4.59368E-004	-1.24118E-004	5.65899E-004	...........
	10	2.84167	2.65123E-004	-2.71722E-004	5.65199E-004	...........
	11	3.1	7.84913E-005	-4.20197E-004	5.68766E-004	...........
	12	3.35833	-9.54998E-005	-5.61230E-004	5.69199E-004	...........
	13	3.61667	-2.55911E-004	-7.03445E-004	5.71499E-004	...........
	14	3.875	-4.06138E-004	-8.40455E-004	5.67999E-004	...........
	15	4.13333	-5.50148E-004	-9.74479E-004	5.67599E-004	...........
	16	4.39167	-6.90111E-004	-1.09372E-003	5.62999E-004	...........
	17	4.65	-8.26063E-004	-1.21866E-003	5.64999E-004	...........
	18	4.90833	-9.57109E-004	-1.32762E-003	5.68899E-004	...........
EOC	QUANT	-0.0009571	Open Circuit (V)
PSTATMODEL	IQUANT	4	Pstat Model
PSTATSECTION	LABEL	REF600-11020	Pstat Section
PSTATSERIALNO	LABEL	11020	Pstat Serial Number
CTRLMODE	IQUANT	1	Control Mode
IESTAB	IQUANT	0	I/E Stability
CASPEED	IQUANT	1	Control Amp Speed
CONVENTION	IQUANT	1	Current Convention
ICHRANGE	IQUANT	2	Ich Range
ICHRANGEMODE	TOGGLE	F	Ich Auto Range
ICHOFFSETENABLE	TOGGLE	T	Ich Offset Enable
ICHOFFSET	QUANT	0	Ich Offset (V)
ICHFILTER	IQUANT	3	Ich Filter
VCHRANGE	IQUANT	2	Vch Range
VCHRANGEMODE	TOGGLE	F	Vch Auto Range
VCHOFFSETENABLE	TOGGLE	T	Vch Offset Enable
VCHOFFSET	QUANT	0	Vch Offset (V)
VCHFILTER	IQUANT	3	Vch Filter
ACHRANGE	IQUANT	2	Ach Range
ACHOFFSETENABLE	TOGGLE	F	Ach Offset Enable
ACHOFFSET	QUANT	0	Ach Offset (V)
ACHFILTER	IQUANT	3	Ach Filter
IERANGELOWERLIMIT	IQUANT	1	I/E Range Lower Limit
IERANGEMODE	TOGGLE	F	I/E AutoRange
IERANGE	IQUANT	5	I/E Range
POSFEEDENABLE	TOGGLE	F	Positive Feedback IR Comp
POSFEEDRESISTANCE	QUANT	0	Positive Feedback Resistance (ohm)
ACHSELECT	IQUANT	0	Ach Select
CABLEID	IQUANT	14	Cable ID
DCCALDATE	LABEL	8/19/2019	DC Calibration Date
ACCALDATE	LABEL	8/19/2019	AC Calibration Date
THERMOSELECT	IQUANT	1	Thermo Select
FRAMEWORKVERSION	QUANT	6.33	Framework Version
INSTRUMENTVERSION	LABEL	3.50	Instrument Version
ZCURVE	TABLE
	Pt	Time	Freq	Zreal	Zimag	Zsig	Zmod	Zphz	Idc	Vdc	IERange
	#	s	Hz	ohm	ohm	V	ohm	°	A	V	#
	0	1	1000078	2347.648	-1761.022	1	2934.732	-36.87436	-7.279728E-006	0.002215	8
	1	3	794390.6	2719.707	-1709.661	1	3212.436	-32.15426	5.007701E-006	0.0001969	8
	2	4	630984.4	3028.777	-1600.048	1	3425.441	-27.84668	-5.201935E-006	0.0015735	8
	3	5	501234.4	3309.964	-1451.553	1	3614.259	-23.67939	5.430534E-007	0.0006433	8
	4	7	398109.4	3541.558	-1305.855	1	3774.638	-20.24011	-2.406739E-007	0.0005948	8
	5	8	316265.6	3712.898	-1137.894	1	3883.351	-17.03876	-3.50994E-006	0.0013079	8
	6	9	251203.1	3857.06	-989.19	1	3981.885	-14.38418	-2.809943E-006	0.0011895	8
	7	11	199546.9	3960.87	-858.4902	1	4052.838	-12.22929	2.538384E-006	2.054319E-005	8
	8	12	158578.1	4054.251	-727.6596	1	4119.034	-10.17515	-1.135456E-006	0.0007878	8
	9	13	125953.1	4135.23	-592.6593	1	4177.484	-8.156064	6.987305E-009	0.0005807	7
	10	15	100078.1	4174.207	-519.4838	1	4206.407	-7.094038	-3.96593E-008	0.0005452	7
	11	16	79453.13	4214.804	-470.6736	1	4241.003	-6.371908	-4.496472E-008	0.000683	7
	12	18	63140.62	4250.801	-433.4383	1	4272.842	-5.822114	-3.811694E-008	0.0005349	7
	13	19	50203.12	4285.228	-408.5216	1	4304.657	-5.445693	-3.361629E-008	0.0005271	7
	14	20	39890.62	4316.853	-394.7356	1	4334.863	-5.22463	-2.996114E-008	0.0006049	7
	15	22	31640.63	4348.519	-391.2059	1	4366.08	-5.140664	-3.641356E-008	0.0005319	7
	16	23	25171.88	4378.609	-399.2105	1	4396.771	-5.209419	-1.679059E-008	0.0005599	7
	17	24	20015.62	4410.787	-414.6678	1	4430.236	-5.370716	-5.855096E-008	0.0006102	7
	18	26	15890.62	4440.861	-442.565	1	4462.859	-5.691161	7.660029E-008	0.000358	7
	19	27	12609.37	4474.544	-483.9834	1	4500.643	-6.173325	-5.014669E-008	0.000564	7
	20	28	10078.13	4508.224	-536.8748	1	4540.079	-6.791249	7.76426E-008	0.000472	7
	21	30	8015.625	4543.629	-607.1061	1	4584.009	-7.610612	-4.354265E-008	0.0006708	7
	22	31	6328.125	4583.192	-700.5041	1	4636.417	-8.689948	-1.53904E-008	0.000553	7
	23	32	5015.625	4625.013	-816.2488	1	4696.489	-10.00882	-2.825308E-008	0.0006003	7
	24	34	3984.375	4672.646	-958.891	1	4770.021	-11.59687	6.828195E-008	0.0004027	7
	25	35	3170.956	4725.377	-1136.29	1	4860.076	-13.52095	7.672372E-008	0.0003576	7
	26	37	2527.573	4786.744	-1353.797	1	4974.503	-15.79208	-3.322875E-008	0.0005218	7
	27	38	1976.103	4865.781	-1645.34	1	5136.436	-18.68272	-3.868263E-008	0.0005892	7
	28	39	1577.524	4948.644	-1974.697	1	5328.086	-21.75388	7.999449E-008	0.0004719	7
	29	41	1265.625	5048.413	-2360.866	1	5573.164	-25.06291	6.87992E-008	0.000403	7
	30	42	998.264	5175.119	-2877.493	1	5921.302	-29.07513	-4.411444E-008	0.0006755	7
	31	43	796.875	5322.539	-3466.48	1	6351.842	-33.07552	-4.17586E-011	0.0004575	7
	32	45	627.7902	5498.835	-4231.846	1	6938.711	-37.5815	-4.518873E-008	0.0006798	7
	33	46	505.5147	5693.493	-5074.019	1	7626.37	-41.7073	-4.615944E-008	0.0006756	7
	34	47	397.9953	5942.829	-6209.142	1	8594.804	-46.25545	3.709217E-009	0.0005441	7
	35	49	315.5048	6228.235	-7569.418	1	9802.4	-50.55192	4.13877E-009	0.0005374	7
	36	50	252.4038	6558.44	-9169.719	1	11273.73	-54.42659	5.591317E-010	0.0004819	6
	37	52	198.6229	6982.953	-11289.47	1	13274.55	-58.26169	9.340194E-010	0.000482	6
	38	53	158.3615	7479.723	-13765	1	15665.93	-61.48092	5.117968E-010	0.0004773	6
	39	54	125.558	8114.419	-16879.46	1	18728.58	-64.32513	1.028025E-009	0.0004773	6
	40	56	100.4464	8899.05	-20540.15	1	22385.06	-66.57526	1.369925E-009	0.0004788	6
	41	57	79.00281	10004.1	-25387.83	1	27287.8	-68.49304	4.983228E-010	0.0004793	6
	42	58	63.3446	11420.16	-30999.29	1	33035.98	-69.77616	4.410702E-010	0.0004779	6
	43	60	49.86702	12930.33	-38053.55	1	40190.38	-71.2326	1.257662E-009	0.0004766	6
	44	61	39.72458	15365.26	-46381.55	1	48860.41	-71.67102	1.024818E-009	0.0004835	6
	45	63	31.6723	18366.41	-56414.35	1	59328.77	-71.96668	6.787352E-010	0.0004793	6
	46	64	24.93351	22535.96	-68997.26	1	72584.38	-71.91187	5.698808E-010	0.0004781	6
	47	65	19.86229	27652.96	-83481.46	1	87942.26	-71.67271	8.144583E-010	0.0004779	6
	48	67	15.83615	34252.18	-100555.9	1	106229.5	-71.18971	7.405175E-010	0.0004836	5
	49	68	12.40079	43464.72	-122339.5	1	129831.2	-70.44091	3.708657E-010	0.0004946	5
	50	70	9.93114	54222.64	-145245.7	1	155036.8	-69.52856	7.843156E-010	0.0004922	5
	51	71	7.944915	67622.58	-171957.5	1	184776	-68.53268	1.293893E-009	0.0004883	5
	52	73	6.317385	85233.57	-204258.2	1	221328.2	-67.35003	5.431168E-010	0.000506	5
	53	75	5.008013	107230.8	-241321.5	1	264072.9	-66.04211	5.506333E-010	0.000493	5
	54	77	3.945707	135197.5	-284680.2	1	315152.6	-64.59647	6.464989E-010	0.0004974	5
	55	80	3.158693	167534.2	-330428.5	1	370473.7	-63.11403	1.86576E-010	0.000488	5
	56	83	2.504006	207400.7	-382464.9	1	435079.8	-61.53019	6.999396E-010	0.0004797	5
	57	86	1.998082	253377.4	-438175.8	1	506160.2	-59.96113	2.729356E-010	0.0005309	5
	58	89	1.584686	306335.3	-500444.3	1	586758.8	-58.52808	4.196183E-010	0.0004967	5
	59	93	1.266892	367189.5	-565765.1	1	674476.3	-57.01587	7.201593E-011	0.0005224	5
	60	97	0.999041	436041.2	-641044	1	775286.6	-55.77628	3.911743E-010	0.0004689	5
