EXPLAIN
TAG	EISPOT
TITLE	LABEL	Potentiostatic EIS	Test &Identifier
DATE	LABEL	10/4/2019	Date
TIME	LABEL	9:33:14	Time
NOTES	NOTES	2	&Notes...
	
	
PSTAT	PSTAT	REF600-11020	Potentiostat
VDC	POTEN	0.00000E+000	T	DC &Voltage (V)
FREQINIT	QUANT	1.00000E+006	Initial Fre&q. (Hz)
FREQFINAL	QUANT	1.00000E+000	Final Fre&q. (Hz)
PTSPERDEC	QUANT	1.00000E+001	Points/&decade
VAC	QUANT	2.50000E+001	AC &Voltage (mV rms)
AREA	QUANT	1.00000E-002	&Area (cm^2)
CONDIT	TWOPARAM	T	5.00000E+000	0.00000E+000	Conditionin&g	Time(s)	E(V)
DELAY	TWOPARAM	T	5.00000E+000	0.00000E+000	Init. De&lay	Time(s)	Stab.(mV/s)
SPEED	SELECTOR	1	&Optimize for:
ZGUESS	QUANT	1.00000E+004	E&stimated Z (ohms)
OCVCURVE	TABLE	19
	Pt	T	Vf	Vm	Ach	Over
	#	s	V vs. Ref.	V	V	bits
	0	0.258333	4.45179E-003	4.45179E-003	5.67532E-004	...........
	1	0.516667	4.44835E-003	4.27167E-003	5.69299E-004	...........
	2	0.775	4.42751E-003	4.11581E-003	5.68399E-004	...........
	3	1.03333	4.36970E-003	3.97787E-003	5.64366E-004	...........
	4	1.29167	4.26928E-003	3.85557E-003	5.73999E-004	...........
	5	1.55	4.14113E-003	3.74915E-003	5.70966E-004	...........
	6	1.80833	4.00653E-003	3.64721E-003	5.65399E-004	...........
	7	2.06667	3.87954E-003	3.55703E-003	5.64966E-004	...........
	8	2.325	3.76488E-003	3.47251E-003	5.67666E-004	...........
	9	2.58333	3.66222E-003	3.40675E-003	5.65266E-004	...........
	10	2.84167	3.57019E-003	3.33256E-003	5.67666E-004	...........
	11	3.1	3.48745E-003	3.27192E-003	5.65399E-004	...........
	12	3.35833	3.41208E-003	3.19924E-003	5.63832E-004	...........
	13	3.61667	3.34184E-003	3.15027E-003	5.64899E-004	...........
	14	3.875	3.27544E-003	3.09141E-003	5.70632E-004	...........
	15	4.13333	3.21285E-003	3.04218E-003	5.70099E-004	...........
	16	4.39167	3.15410E-003	2.98617E-003	5.72599E-004	...........
	17	4.65	3.09837E-003	2.93506E-003	5.73499E-004	...........
	18	4.90833	3.04461E-003	2.88982E-003	5.71432E-004	...........
EOC	QUANT	0.0030446	Open Circuit (V)
PSTATMODEL	IQUANT	4	Pstat Model
PSTATSECTION	LABEL	REF600-11020	Pstat Section
PSTATSERIALNO	LABEL	11020	Pstat Serial Number
CTRLMODE	IQUANT	1	Control Mode
IESTAB	IQUANT	0	I/E Stability
CASPEED	IQUANT	1	Control Amp Speed
CONVENTION	IQUANT	1	Current Convention
ICHRANGE	IQUANT	2	Ich Range
ICHRANGEMODE	TOGGLE	F	Ich Auto Range
ICHOFFSETENABLE	TOGGLE	T	Ich Offset Enable
ICHOFFSET	QUANT	0	Ich Offset (V)
ICHFILTER	IQUANT	3	Ich Filter
VCHRANGE	IQUANT	2	Vch Range
VCHRANGEMODE	TOGGLE	F	Vch Auto Range
VCHOFFSETENABLE	TOGGLE	T	Vch Offset Enable
VCHOFFSET	QUANT	0	Vch Offset (V)
VCHFILTER	IQUANT	3	Vch Filter
ACHRANGE	IQUANT	2	Ach Range
ACHOFFSETENABLE	TOGGLE	F	Ach Offset Enable
ACHOFFSET	QUANT	0	Ach Offset (V)
ACHFILTER	IQUANT	3	Ach Filter
IERANGELOWERLIMIT	IQUANT	1	I/E Range Lower Limit
IERANGEMODE	TOGGLE	F	I/E AutoRange
IERANGE	IQUANT	5	I/E Range
POSFEEDENABLE	TOGGLE	F	Positive Feedback IR Comp
POSFEEDRESISTANCE	QUANT	0	Positive Feedback Resistance (ohm)
ACHSELECT	IQUANT	0	Ach Select
CABLEID	IQUANT	14	Cable ID
DCCALDATE	LABEL	8/19/2019	DC Calibration Date
ACCALDATE	LABEL	8/19/2019	AC Calibration Date
THERMOSELECT	IQUANT	1	Thermo Select
FRAMEWORKVERSION	QUANT	6.33	Framework Version
INSTRUMENTVERSION	LABEL	3.50	Instrument Version
ZCURVE	TABLE
	Pt	Time	Freq	Zreal	Zimag	Zsig	Zmod	Zphz	Idc	Vdc	IERange
	#	s	Hz	ohm	ohm	V	ohm	°	A	V	#
	0	2	1000078	2451.081	-1577.736	1	2914.97	-32.76897	2.06581E-006	0.0053358	8
	1	3	794390.6	2753.762	-1494.168	1	3133.009	-28.48388	-2.300845E-006	0.0054281	8
	2	5	630984.4	3017.645	-1354.556	1	3307.719	-24.17428	1.850173E-006	0.0046652	8
	3	6	501234.4	3237.215	-1192.545	1	3449.887	-20.22309	-1.25495E-006	0.0048099	8
	4	7	398109.4	3407.895	-1060.202	1	3569.002	-17.28101	-3.360942E-006	0.0053226	8
	5	9	316265.6	3543.469	-908.9286	1	3658.186	-14.38666	8.376837E-007	0.0045856	8
	6	10	251203.1	3628.221	-788.3315	1	3712.877	-12.25856	-3.527348E-007	0.0045439	8
	7	12	199546.9	3705.979	-664.3956	1	3765.063	-10.16383	2.21453E-006	0.0040845	8
	8	13	158578.1	3763.177	-599.1733	1	3810.578	-9.046701	-4.327054E-006	0.005386	8
	9	14	125953.1	3814.606	-461.1658	1	3842.381	-6.893305	-4.146719E-007	0.0051092	7
	10	16	100078.1	3852.664	-409.4834	1	3874.364	-6.066949	-4.508977E-008	0.0045678	7
	11	17	79453.13	3881.619	-378.4085	1	3900.021	-5.568016	-6.72287E-008	0.004677	7
	12	18	63140.62	3910.748	-359.5958	1	3927.246	-5.25361	-1.01225E-008	0.0045422	7
	13	20	50203.12	3937.202	-350.253	1	3952.75	-5.083643	8.627661E-008	0.0043766	7
	14	21	39890.62	3965.125	-348.6377	1	3980.422	-5.024868	-3.06237E-008	0.0045399	7
	15	22	31640.63	3992.801	-357.2266	1	4008.75	-5.112508	-8.479361E-008	0.004787	7
	16	24	25171.88	4023.057	-375.0095	1	4040.498	-5.32544	-1.552792E-008	0.0046052	7
	17	25	20015.62	4054.022	-402.4545	1	4073.949	-5.669342	-1.029595E-008	0.0045347	7
	18	26	15890.62	4087.453	-440.4793	1	4111.118	-6.150673	-5.083584E-008	0.0046463	7
	19	28	12609.37	4123.185	-489.2675	1	4152.112	-6.767217	5.048424E-008	0.0043863	7
	20	29	10078.13	4160.636	-549.2977	1	4196.739	-7.52084	8.708297E-008	0.0043634	7
	21	30	8015.625	4201.007	-626.3567	1	4247.444	-8.480147	5.855877E-008	0.0044432	7
	22	32	6328.125	4245.899	-724.2403	1	4307.224	-9.68001	-1.24318E-009	0.0044689	7
	23	33	5015.625	4294.735	-844.7545	1	4377.026	-11.12776	2.138026E-008	0.0044475	7
	24	34	3984.375	4348.073	-991.362	1	4459.657	-12.8439	-2.995332E-008	0.0045295	7
	25	36	3170.956	4405.775	-1173.126	1	4559.285	-14.9102	-6.164201E-008	0.0046247	7
	26	37	2527.573	4472.45	-1393.171	1	4684.414	-17.30184	8.725173E-008	0.0043609	7
	27	38	1976.103	4556.219	-1689.718	1	4859.453	-20.34779	-1.490752E-008	0.0046044	7
	28	40	1577.524	4646.523	-2021.865	1	5067.358	-23.51554	9.153579E-009	0.0045098	7
	29	41	1265.625	4747.267	-2416.174	1	5326.766	-26.97432	-6.791317E-008	0.0046591	7
	30	42	998.264	4876.908	-2933.228	1	5691.05	-31.0249	-8.172201E-008	0.0047835	7
	31	44	796.875	5017.925	-3533.413	1	6137.147	-35.1516	-8.272611E-008	0.0047791	7
	32	45	627.7902	5194.224	-4310.571	1	6749.888	-39.68853	-6.636142E-008	0.004659	7
	33	47	505.5147	5381.325	-5182.995	1	7471.418	-43.92448	1.265177E-007	0.0043488	7
	34	48	397.9953	5620.134	-6337.251	1	8470.34	-48.43207	4.044509E-009	0.0045641	7
	35	49	315.5048	5897.63	-7740.239	1	9731.05	-52.69463	5.232206E-009	0.0045625	7
	36	51	252.4038	6218.873	-9395.914	1	11267.55	-56.50062	5.356888E-010	0.0045025	6
	37	52	198.6229	6639	-11593.39	1	13359.75	-60.20222	6.990386E-010	0.0044957	6
	38	53	158.3615	7135.276	-14159.43	1	15855.65	-63.25537	6.267705E-010	0.0044954	6
	39	55	125.558	7776.202	-17395.93	1	19054.86	-65.91474	1.16172E-009	0.0044916	6
	40	56	100.4464	8565.144	-21194.42	1	22859.69	-67.99525	5.075349E-010	0.0044918	6
	41	57	79.00281	9665.08	-26276.67	1	27997.81	-69.80547	9.207677E-010	0.0044974	6
	42	59	63.3446	11093.71	-32062.81	1	33927.78	-70.91441	2.857377E-010	0.0044967	6
	43	60	49.86702	12784.5	-39341.24	1	41366.37	-71.99769	6.161714E-010	0.0044958	6
	44	62	39.72458	15318.88	-47951.54	1	50339.04	-72.2831	5.593285E-010	0.0044994	6
	45	63	31.6723	18309.13	-58263.31	1	61072.4	-72.55478	3.079308E-010	0.004496	6
	46	64	24.93351	22693.32	-71496.87	1	75011.92	-72.3904	3.567283E-010	0.0044947	6
	47	66	19.86229	28114.29	-86534.27	1	90986.78	-72.00143	9.262688E-010	0.0044979	6
	48	67	15.83615	35643.41	-104252.7	1	110177.5	-71.12473	1.657193E-009	0.0044925	5
	49	68	12.40079	44624.08	-127038.9	1	134648.4	-70.6455	2.811739E-010	0.0044939	5
	50	70	9.93114	56332.15	-150781.3	1	160960.6	-69.51422	7.455001E-010	0.0045	5
	51	71	7.944915	70898.62	-178746.7	1	192294	-68.3646	3.139656E-010	0.0045044	5
	52	73	6.317385	89958.84	-211565.7	1	229897	-66.96455	-1.559246E-011	0.0045136	5
	53	75	5.008013	114308.3	-248969.5	1	273956.5	-65.33893	3.060694E-010	0.0044957	5
	54	77	3.945707	144860.6	-291889.8	1	325859.2	-63.60547	3.198359E-010	0.0045006	5
	55	80	3.158693	179398.1	-335534.9	1	380483.1	-61.86823	2.119409E-010	0.0045146	5
	56	83	2.504006	221130.7	-385516.6	1	444434.3	-60.1616	7.110538E-011	0.0044956	5
	57	86	1.998082	266996.3	-438030.9	1	512989.4	-58.63612	-1.312322E-010	0.0044944	5
	58	89	1.584686	321169.5	-495026.4	1	590085.6	-57.02479	1.305214E-010	0.0045521	5
	59	93	1.266892	375850	-557683.1	1	672512.9	-56.02204	-9.075136E-011	0.004493	5
	60	97	0.999041	439917.2	-631406.3	1	769546	-55.13407	3.607145E-010	0.0045232	5
