EXPLAIN
TAG	EISPOT
TITLE	LABEL	Potentiostatic EIS	Test &Identifier
DATE	LABEL	10/20/2019	Date
TIME	LABEL	9:08:21	Time
NOTES	NOTES	1	&Notes...
	
PSTAT	PSTAT	REF600-11020	Potentiostat
VDC	POTEN	0.00000E+000	T	DC &Voltage (V)
FREQINIT	QUANT	1.00000E+006	Initial Fre&q. (Hz)
FREQFINAL	QUANT	1.00000E+000	Final Fre&q. (Hz)
PTSPERDEC	QUANT	1.00000E+001	Points/&decade
VAC	QUANT	2.50000E+001	AC &Voltage (mV rms)
AREA	QUANT	1.00000E-002	&Area (cm^2)
CONDIT	TWOPARAM	T	5.00000E+000	0.00000E+000	Conditionin&g	Time(s)	E(V)
DELAY	TWOPARAM	T	5.00000E+000	0.00000E+000	Init. De&lay	Time(s)	Stab.(mV/s)
SPEED	SELECTOR	1	&Optimize for:
ZGUESS	QUANT	1.00000E+005	E&stimated Z (ohms)
OCVCURVE	TABLE	19
	Pt	T	Vf	Vm	Ach	Over
	#	s	V vs. Ref.	V	V	bits
	0	0.258333	8.55718E-003	8.55718E-003	5.20866E-004	...........
	1	0.516667	8.54607E-003	7.97561E-003	5.18200E-004	...........
	2	0.775	8.43440E-003	5.15040E-003	5.21900E-004	...........
	3	1.03333	8.07528E-003	7.73323E-003	5.17066E-004	...........
	4	1.29167	7.52894E-003	6.78257E-003	5.20300E-004	...........
	5	1.55	7.07216E-003	5.90201E-003	5.27200E-004	...........
	6	1.80833	6.82280E-003	7.59676E-003	5.20433E-004	...........
	7	2.06667	6.71263E-003	6.15412E-003	5.22066E-004	...........
	8	2.325	6.69064E-003	7.03727E-003	5.19766E-004	...........
	9	2.58333	7.11704E-003	2.79741E-002	5.16600E-004	.........v.
	10	2.84167	8.67564E-003	-2.04938E-003	5.18333E-004	...........
	11	3.1	1.02633E-002	-9.19544E-003	5.22366E-004	...........
	12	3.35833	9.07739E-003	3.06941E-003	5.18600E-004	...........
	13	3.61667	5.13813E-003	4.21419E-003	5.24966E-004	...........
	14	3.875	1.86970E-003	5.93218E-003	5.27300E-004	...........
	15	4.13333	1.56162E-003	1.62337E-002	5.20700E-004	.........v.
	16	4.39167	3.55938E-003	-4.90563E-003	5.18466E-004	...........
	17	4.65	5.63423E-003	9.01724E-003	5.27400E-004	...........
	18	4.90833	6.68659E-003	3.02456E-002	5.19666E-004	.........v.
EOC	QUANT	0.0066866	Open Circuit (V)
PSTATMODEL	IQUANT	4	Pstat Model
PSTATSECTION	LABEL	REF600-11020	Pstat Section
PSTATSERIALNO	LABEL	11020	Pstat Serial Number
CTRLMODE	IQUANT	1	Control Mode
IESTAB	IQUANT	0	I/E Stability
CASPEED	IQUANT	1	Control Amp Speed
CONVENTION	IQUANT	1	Current Convention
ICHRANGE	IQUANT	2	Ich Range
ICHRANGEMODE	TOGGLE	F	Ich Auto Range
ICHOFFSETENABLE	TOGGLE	T	Ich Offset Enable
ICHOFFSET	QUANT	0	Ich Offset (V)
ICHFILTER	IQUANT	3	Ich Filter
VCHRANGE	IQUANT	2	Vch Range
VCHRANGEMODE	TOGGLE	F	Vch Auto Range
VCHOFFSETENABLE	TOGGLE	T	Vch Offset Enable
VCHOFFSET	QUANT	0	Vch Offset (V)
VCHFILTER	IQUANT	3	Vch Filter
ACHRANGE	IQUANT	2	Ach Range
ACHOFFSETENABLE	TOGGLE	F	Ach Offset Enable
ACHOFFSET	QUANT	0	Ach Offset (V)
ACHFILTER	IQUANT	3	Ach Filter
IERANGELOWERLIMIT	IQUANT	1	I/E Range Lower Limit
IERANGEMODE	TOGGLE	F	I/E AutoRange
IERANGE	IQUANT	5	I/E Range
POSFEEDENABLE	TOGGLE	F	Positive Feedback IR Comp
POSFEEDRESISTANCE	QUANT	0	Positive Feedback Resistance (ohm)
ACHSELECT	IQUANT	0	Ach Select
CABLEID	IQUANT	14	Cable ID
DCCALDATE	LABEL	8/19/2019	DC Calibration Date
ACCALDATE	LABEL	8/19/2019	AC Calibration Date
THERMOSELECT	IQUANT	1	Thermo Select
FRAMEWORKVERSION	QUANT	6.33	Framework Version
INSTRUMENTVERSION	LABEL	3.50	Instrument Version
ZCURVE	TABLE
	Pt	Time	Freq	Zreal	Zimag	Zsig	Zmod	Zphz	Idc	Vdc	IERange
	#	s	Hz	ohm	ohm	V	ohm	°	A	V	#
	0	2	1000078	1095.743	-11058.64	1	11112.79	-84.34133	-2.815116E-006	0.0097509	8
	1	3	794390.6	1281.178	-14020.15	1	14078.56	-84.77874	-2.192069E-006	0.0089839	8
	2	5	630984.4	1248.487	-18036.64	1	18079.8	-86.04033	-5.273064E-007	0.0089568	8
	3	7	501234.4	2079.43	-21969.46	1	22067.65	-84.59301	1.621167E-006	0.0081217	8
	4	9	398109.4	2637.192	-26917.07	1	27045.95	-84.40432	3.013575E-006	0.0077215	8
	5	10	316265.6	3952.418	-33413.55	1	33646.5	-83.25395	4.136063E-006	0.0075542	8
	6	13	251203.1	2749.959	-39381.79	1	39477.68	-86.00562	4.532424E-006	0.0076161	8
	7	15	199546.9	5275.537	-50050.86	1	50328.12	-83.98304	3.8186E-006	0.0076671	8
	8	16	158578.1	4499.424	-66587.73	1	66739.57	-86.13432	-1.288309E-007	0.0082866	8
	9	18	125953.1	9652.1	-82945.51	1	83505.21	-83.36253	8.564159E-007	0.0064371	7
	10	20	100078.1	9078.763	-100965.9	1	101373.2	-84.86183	-4.081401E-008	0.0084103	7
	11	22	79453.13	10290.97	-126203.3	1	126622.2	-85.33826	-1.397738E-008	0.0083323	7
	12	23	63140.62	13312.03	-158342	1	158900.6	-85.19437	6.258282E-008	0.0082406	7
	13	25	50203.12	16468.77	-196179.2	1	196869.3	-85.20141	1.129058E-009	0.0083578	7
	14	27	39890.62	19034.3	-246533.1	1	247266.8	-85.58508	6.796032E-008	0.0082304	7
	15	29	31640.63	23299.44	-305983.6	1	306869.4	-85.64555	1.214214E-007	0.0082164	7
	16	31	25171.88	35445.05	-378069.8	1	379727.7	-84.64402	-1.275105E-008	0.0083214	7
	17	33	20015.62	70884.47	-467273.7	1	472619.6	-81.37411	1.686685E-007	0.0080426	7
	18	34	15890.62	60764.22	-594468.6	1	597566.1	-84.16372	-1.230335E-008	0.0082465	7
	19	36	12609.37	69157.94	-730750.9	1	734016.1	-84.59366	9.844036E-009	0.0080166	6
	20	38	10078.13	96306.7	-906614.4	1	911715.3	-83.93639	-1.497032E-008	0.0083584	6
	21	39	8015.625	78384.73	-1206546	1	1209089	-86.28294	2.465579E-008	0.0077726	6
	22	41	6328.125	170925.6	-1413317	1	1423615	-83.10418	-6.570124E-009	0.0081411	6
	23	43	5015.625	254895.2	-1733308	1	1751949	-81.63421	-1.628329E-008	0.0083722	6
	24	44	3984.375	648653.7	-2150273	1	2245980	-73.21349	-1.059885E-008	0.0085515	6
	25	46	3170.956	514762.1	-2659855	1	2709208	-79.04694	-1.19407E-008	0.0083429	6
	26	48	2527.573	494072.4	-3295356	1	3332189	-81.47316	4.893117E-009	0.0079645	6
	27	49	1976.103	826478.3	-4025150	1	4109123	-78.3968	2.596275E-008	0.0077753	6
	28	51	1577.524	3410981	-2827628	1	4430606	-39.65798	-8.971062E-009	0.0083719	6
	29	53	1265.625	1445096	-6493703	1	6652554	-77.45395	1.222741E-009	0.0082604	5
	30	55	998.264	2826518	-8170654	1	8645738	-70.91769	5.419314E-009	0.0082941	6
	31	56	796.875	4092599	-7349129	1	8411841	-60.88734	-6.389546E-009	0.0081446	6
	32	58	627.7902	4162608	-1.746917E+007	1	1.795827E+007	-76.59732	-1.165268E-008	0.008338	6
	33	60	505.5147	5637438	-1.300343E+007	1	1.417285E+007	-66.56159	-1.274423E-009	0.0084235	5
	34	61	397.9953	8415599	-1.651273E+007	1	1.853355E+007	-62.99465	-8.463843E-010	0.0082555	5
	35	63	315.5048	7762117	-1.831325E+007	1	1.989034E+007	-67.03021	1.197313E-009	0.0082436	5
	36	64	252.4038	2.545683E+007	-2.415742E+007	1	3.509461E+007	-43.49975	-3.280404E-010	0.008235	5
	37	66	198.6229	1.471551E+007	-2.4042E+007	1	2.818801E+007	-58.53023	-2.693858E-010	0.0082424	5
	38	68	158.3615	2.120483E+007	-2.135412E+007	1	3.009391E+007	-45.20098	7.74523E-010	0.0082391	5
	39	69	125.558	1.937615E+007	-1.630967E+007	1	2.532668E+007	-40.08865	3.265934E-010	0.0082373	5
	40	71	100.4464	2.037761E+007	-2.946906E+007	1	3.582838E+007	-55.33647	2.400277E-010	0.00824	5
	41	73	79.00281	1.348032E+007	420394.2	1	1.348687E+007	1.786235	2.313034E-010	0.0082419	5
	42	75	63.3446	2963417	430608.3	1	2994539	8.267673	-4.116216E-010	0.0082455	5
	43	77	49.86702	-5444297	3.397795E+007	1	3.441136E+007	99.1031	-1.369395E-010	0.0082409	5
	44	79	39.72458	2.120032E+007	-1457164	1	2.125034E+007	-3.931934	-1.498892E-010	0.0082456	5
	45	80	31.6723	1.046054E+007	1.83521E+007	1	2.112398E+007	60.31723	5.628969E-010	0.0082431	5
	46	82	24.93351	3.885426E+007	-2.635391E+007	1	4.694872E+007	-34.1481	3.164368E-010	0.0082439	5
	47	84	19.86229	4.334816E+007	3.285748E+007	1	5.439373E+007	37.16177	3.625713E-010	0.0082434	5
	48	86	15.83615	-6872284	-3200967	1	7581192	-155.0249	-2.350459E-009	0.0082451	5
	49	87	12.40079	1476062	1.064772E+007	1	1.074954E+007	82.10755	2.128293E-009	0.0082445	6
	50	89	9.93114	2.351456E+007	-5.333535E+007	1	5.828889E+007	-66.20821	-1.553906E-010	0.0082406	5
	51	91	7.944915	1.936571E+007	3935856	1	1.976163E+007	11.48823	7.493384E-010	0.008244	5
	52	94	6.317385	7.232376E+007	-1.084841E+007	1	7.313286E+007	-8.530645	8.973935E-011	0.0082342	5
	53	96	5.008013	5.736814E+007	-9132022	1	5.809042E+007	-9.044619	5.056907E-010	0.008235	6
	54	100	3.945707	7.484839E+007	5615953	1	7.505878E+007	4.290922	1.073381E-010	0.0082443	5
	55	104	3.158693	7.569536E+007	-7826799	1	7.609893E+007	-5.903328	3.793675E-010	0.0082584	6
	56	108	2.504006	4.328103E+008	-5.020256E+007	1	4.357121E+008	-6.61629	5.521386E-011	0.0082298	3
	57	112	1.998082	4.336996E+008	-3.510303E+007	1	4.351179E+008	-4.627352	5.352923E-011	0.0082525	3
	58	117	1.584686	4.387415E+008	-4.537845E+007	1	4.41082E+008	-5.905029	5.438138E-011	0.0082871	3
	59	122	1.266892	4.367357E+009	-1.191255E+009	1	4.526908E+009	-15.25704	-1.87728E-012	0.0082742	2
	60	129	0.999041	4.573354E+009	-1.078349E+009	1	4.698766E+009	-13.26741	-2.314638E-012	0.0082327	2
