EXPLAIN
TAG	EISPOT
TITLE	LABEL	Potentiostatic IDE	Test &Identifier
DATE	LABEL	9/6/2019	Date
TIME	LABEL	7:09:10	Time
NOTES	NOTES	1	&Notes...
	
PSTAT	PSTAT	REF600-11020	Potentiostat
VDC	POTEN	0.00000E+000	T	DC &Voltage (V)
FREQINIT	QUANT	1.00000E+006	Initial Fre&q. (Hz)
FREQFINAL	QUANT	1.00000E+000	Final Fre&q. (Hz)
PTSPERDEC	QUANT	1.00000E+001	Points/&decade
VAC	QUANT	2.50000E+001	AC &Voltage (mV rms)
AREA	QUANT	1.00000E-002	&Area (cm^2)
CONDIT	TWOPARAM	T	5.00000E+000	0.00000E+000	Conditionin&g	Time(s)	E(V)
DELAY	TWOPARAM	T	5.00000E+000	0.00000E+000	Init. De&lay	Time(s)	Stab.(mV/s)
SPEED	SELECTOR	1	&Optimize for:
ZGUESS	QUANT	1.00000E+007	E&stimated Z (ohms)
OCVCURVE	TABLE	19
	Pt	T	Vf	Vm	Ach	Over
	#	s	V vs. Ref.	V	V	bits
	0	0.258333	6.99080E-003	6.99080E-003	5.72632E-004	...........
	1	0.516667	6.98639E-003	6.76014E-003	5.70399E-004	...........
	2	0.775	6.96461E-003	6.81786E-003	5.71066E-004	...........
	3	1.03333	6.91573E-003	6.62091E-003	5.61899E-004	...........
	4	1.29167	6.84625E-003	6.69585E-003	5.71999E-004	...........
	5	1.55	6.78049E-003	6.99655E-003	5.68432E-004	...........
	6	1.80833	6.75353E-003	6.82011E-003	5.70866E-004	...........
	7	2.06667	6.77460E-003	6.74386E-003	5.64232E-004	...........
	8	2.325	6.80422E-003	6.67300E-003	5.70632E-004	...........
	9	2.58333	6.80060E-003	6.67652E-003	5.74565E-004	...........
	10	2.84167	6.76264E-003	6.59412E-003	5.65566E-004	...........
	11	3.1	6.71098E-003	6.55277E-003	5.67732E-004	...........
	12	3.35833	6.65877E-003	6.53032E-003	5.82399E-004	...........
	13	3.61667	6.61055E-003	6.51058E-003	5.77532E-004	...........
	14	3.875	6.56957E-003	6.48660E-003	5.68966E-004	...........
	15	4.13333	6.53732E-003	6.47814E-003	5.66066E-004	...........
	16	4.39167	6.51261E-003	6.46209E-003	5.72266E-004	...........
	17	4.65	6.49355E-003	6.45992E-003	5.73565E-004	...........
	18	4.90833	6.47882E-003	6.44747E-003	5.70666E-004	...........
EOC	QUANT	0.0064788	Open Circuit (V)
PSTATMODEL	IQUANT	4	Pstat Model
PSTATSECTION	LABEL	REF600-11020	Pstat Section
PSTATSERIALNO	LABEL	11020	Pstat Serial Number
CTRLMODE	IQUANT	1	Control Mode
IESTAB	IQUANT	0	I/E Stability
CASPEED	IQUANT	1	Control Amp Speed
CONVENTION	IQUANT	1	Current Convention
ICHRANGE	IQUANT	2	Ich Range
ICHRANGEMODE	TOGGLE	F	Ich Auto Range
ICHOFFSETENABLE	TOGGLE	T	Ich Offset Enable
ICHOFFSET	QUANT	0	Ich Offset (V)
ICHFILTER	IQUANT	3	Ich Filter
VCHRANGE	IQUANT	2	Vch Range
VCHRANGEMODE	TOGGLE	F	Vch Auto Range
VCHOFFSETENABLE	TOGGLE	T	Vch Offset Enable
VCHOFFSET	QUANT	0	Vch Offset (V)
VCHFILTER	IQUANT	3	Vch Filter
ACHRANGE	IQUANT	2	Ach Range
ACHOFFSETENABLE	TOGGLE	F	Ach Offset Enable
ACHOFFSET	QUANT	0	Ach Offset (V)
ACHFILTER	IQUANT	3	Ach Filter
IERANGELOWERLIMIT	IQUANT	1	I/E Range Lower Limit
IERANGEMODE	TOGGLE	F	I/E AutoRange
IERANGE	IQUANT	3	I/E Range
POSFEEDENABLE	TOGGLE	F	Positive Feedback IR Comp
POSFEEDRESISTANCE	QUANT	0	Positive Feedback Resistance (ohm)
ACHSELECT	IQUANT	0	Ach Select
CABLEID	IQUANT	14	Cable ID
DCCALDATE	LABEL	8/19/2019	DC Calibration Date
ACCALDATE	LABEL	8/19/2019	AC Calibration Date
THERMOSELECT	IQUANT	1	Thermo Select
FRAMEWORKVERSION	QUANT	6.33	Framework Version
INSTRUMENTVERSION	LABEL	3.50	Instrument Version
ZCURVE	TABLE
	Pt	Time	Freq	Zreal	Zimag	Zsig	Zmod	Zphz	Idc	Vdc	IERange
	#	s	Hz	ohm	ohm	V	ohm	°	A	V	#
	0	2	1000078	2410.885	-1618.738	1	2903.907	-33.87855	-6.307171E-007	0.0088933	8
	1	3	794390.6	2723.551	-1535.096	1	3126.379	-29.40725	4.539044E-007	0.0085683	8
	2	4	630984.4	2999.884	-1391.758	1	3307.007	-24.88835	2.568538E-007	0.0083494	8
	3	6	501234.4	3222.609	-1225.628	1	3447.807	-20.8229	-3.241718E-007	0.0085092	8
	4	7	398109.4	3392.523	-1068.151	1	3556.706	-17.47684	-6.006547E-007	0.0084169	8
	5	9	316265.6	3504.113	-919.2578	1	3622.685	-14.69956	1.324448E-006	0.0079935	8
	6	10	251203.1	3608.546	-797.6548	1	3695.654	-12.46457	1.419359E-007	0.0081105	8
	7	11	199546.9	3673.446	-684.5315	1	3736.681	-10.55576	1.645484E-007	0.0081196	8
	8	13	158578.1	3726.346	-616.3334	1	3776.972	-9.391632	-1.957938E-006	0.0085934	8
	9	14	125953.1	3787.484	-525.6944	1	3823.792	-7.902042	4.681463E-007	0.0072693	7
	10	15	100078.1	3818.361	-484.5314	1	3848.98	-7.231904	-1.36433E-008	0.0081604	7
	11	16	79453.13	3854.039	-466.1846	1	3882.132	-6.89699	-1.566388E-008	0.0081562	7
	12	18	63140.62	3890.678	-460.0852	1	3917.787	-6.744091	-1.487155E-008	0.0081554	7
	13	19	50203.12	3928.604	-466.0495	1	3956.151	-6.765369	-2.082325E-009	0.0081771	7
	14	20	39890.62	3968.543	-483.5108	1	3997.889	-6.946444	-2.358926E-009	0.0081761	7
	15	22	31640.63	4010.347	-514.33	1	4043.194	-7.308331	-2.342584E-008	0.0081801	7
	16	23	25171.88	4056.549	-555.5351	1	4094.412	-7.798018	4.979974E-008	0.0080492	7
	17	24	20015.62	4107.629	-610.0135	1	4152.678	-8.447112	-2.277891E-008	0.008173	7
	18	26	15890.62	4164.922	-682.5066	1	4220.473	-9.306355	-1.284006E-008	0.0081433	7
	19	27	12609.37	4228.411	-765.5454	1	4297.152	-10.26213	4.650087E-008	0.0080619	7
	20	29	10078.13	4295.928	-866.2606	1	4382.397	-11.40063	-1.303539E-008	0.0082322	7
	21	30	8015.625	4375.533	-988.831	1	4485.875	-12.73441	-4.718633E-009	0.0081705	7
	22	31	6328.125	4470.42	-1139.992	1	4613.484	-14.30597	-1.122419E-008	0.0081437	7
	23	33	5015.625	4574.087	-1316.139	1	4759.674	-16.05254	2.257309E-009	0.0081086	7
	24	34	3984.375	4690.721	-1523.353	1	4931.883	-17.99166	-5.518737E-009	0.0081673	7
	25	35	3170.956	4823.717	-1766.307	1	5136.934	-20.11129	-2.411033E-008	0.0081652	7
	26	37	2527.573	4973.693	-2052.241	1	5380.457	-22.42198	-3.682614E-008	0.0082008	7
	27	38	1976.103	5158.121	-2421.208	1	5698.11	-25.14524	-9.439588E-009	0.0082433	7
	28	39	1577.524	5348.388	-2820.467	1	6046.51	-27.80488	-3.519154E-008	0.008202	7
	29	41	1265.625	5556.601	-3284.554	1	6454.774	-30.5877	7.956911E-008	0.0080299	7
	30	42	998.264	5810.723	-3885.388	1	6990.045	-33.76899	-2.999794E-008	0.0082077	7
	31	43	796.875	6081.925	-4566.015	1	7605.15	-36.89745	-2.353761E-008	0.0081816	7
	32	45	627.7902	6408.076	-5444.038	1	8408.388	-40.34986	-6.954348E-009	0.0081632	7
	33	46	505.5147	6745.228	-6404.819	1	9301.603	-43.51715	1.693947E-008	0.0081192	7
	34	47	397.9953	7174.74	-7677.751	1	10508.32	-46.9397	6.636963E-010	0.0081037	6
	35	49	315.5048	7655.306	-9194.948	1	11964.56	-50.22073	6.586085E-010	0.0080995	6
	36	50	252.4038	8193.792	-10963.41	1	13687.02	-53.22643	8.279717E-010	0.0080972	6
	37	51	198.6229	8876.869	-13275.15	1	15969.61	-56.23002	8.078457E-010	0.0080983	6
	38	53	158.3615	9646.48	-15936.91	1	18629	-58.81384	8.455375E-010	0.0081004	6
	39	54	125.558	10593.23	-19251.73	1	21973.75	-61.17828	7.7278E-010	0.0080994	6
	40	55	100.4464	11685.34	-23102.24	1	25889.39	-63.16925	1.020758E-009	0.0081002	6
	41	57	79.00281	13110.52	-28153.49	1	31056.48	-65.02954	9.650443E-010	0.0080961	6
	42	58	63.3446	14804.34	-33747.35	1	36851.76	-66.31382	5.892148E-010	0.0080963	6
	43	59	49.86702	16797.72	-41189.48	1	44482.99	-67.81359	4.161461E-010	0.0080913	6
	44	61	39.72458	19336.5	-49635.38	1	53268.86	-68.71556	8.701108E-010	0.0080921	6
	45	62	31.6723	22335.46	-59876.91	1	63907.09	-69.54333	4.858541E-010	0.008092	6
	46	63	24.93351	26226.26	-72842.38	1	77419.83	-70.19903	7.965026E-010	0.0080902	6
	47	65	19.86229	30874.39	-87860.81	1	93127.6	-70.63847	9.920572E-010	0.0081004	6
	48	66	15.83615	36701.52	-105573.1	1	111770.7	-70.83047	9.25759E-010	0.008105	5
	49	67	12.40079	43895.75	-129447	1	136687.1	-71.26809	3.045604E-010	0.0081078	5
	50	69	9.93114	52743.54	-155206.3	1	163923.4	-71.23077	2.929181E-010	0.0081002	5
	51	70	7.944915	63515.71	-186158	1	196695.3	-71.16074	-8.781025E-012	0.0081093	5
	52	72	6.317385	77962.49	-224150.6	1	237321.8	-70.82166	6.232557E-011	0.008119	5
	53	74	5.008013	96197.6	-270265	1	286874.8	-70.40742	1.432882E-010	0.0081104	5
	54	76	3.945707	120491.5	-326020.2	1	347573.6	-69.71655	2.154408E-010	0.008104	5
	55	78	3.158693	148991.9	-387525.9	1	415180.6	-68.96976	-8.411102E-012	0.0080856	5
	56	82	2.504006	187225.7	-461861.5	1	498366.8	-67.93375	4.159859E-010	0.008103	5
	57	84	1.998082	233803.3	-544522.8	1	592595.2	-66.76263	1.403547E-010	0.0081399	5
	58	88	1.584686	290590	-640310.9	1	703164.8	-65.5902	2.055082E-010	0.0081124	5
	59	91	1.266892	361160.7	-746294.9	1	829091.8	-64.17588	7.222465E-011	0.0081441	5
	60	96	0.999041	448182.8	-870092.6	1	978738	-62.7471	6.355093E-011	0.0080643	5
