EXPLAIN
TAG	EISPOT
TITLE	LABEL	Potentiostatic IDE	Test &Identifier
DATE	LABEL	9/4/2019	Date
TIME	LABEL	11:26:08	Time
NOTES	NOTES	1	&Notes...
	
PSTAT	PSTAT	REF600-11020	Potentiostat
VDC	POTEN	0.00000E+000	T	DC &Voltage (V)
FREQINIT	QUANT	1.00000E+006	Initial Fre&q. (Hz)
FREQFINAL	QUANT	1.00000E+000	Final Fre&q. (Hz)
PTSPERDEC	QUANT	1.00000E+001	Points/&decade
VAC	QUANT	2.50000E+001	AC &Voltage (mV rms)
AREA	QUANT	1.00000E-002	&Area (cm^2)
CONDIT	TWOPARAM	T	5.00000E+000	0.00000E+000	Conditionin&g	Time(s)	E(V)
DELAY	TWOPARAM	T	5.00000E+000	0.00000E+000	Init. De&lay	Time(s)	Stab.(mV/s)
SPEED	SELECTOR	1	&Optimize for:
ZGUESS	QUANT	1.00000E+007	E&stimated Z (ohms)
OCVCURVE	TABLE	19
	Pt	T	Vf	Vm	Ach	Over
	#	s	V vs. Ref.	V	V	bits
	0	0.258333	6.54857E-002	6.54857E-002	5.83132E-004	...........
	1	0.516667	6.55124E-002	6.68828E-002	5.87032E-004	...........
	2	0.775	6.56764E-002	6.82167E-002	5.85899E-004	...........
	3	1.03333	6.61413E-002	6.95038E-002	5.81832E-004	...........
	4	1.29167	6.69746E-002	7.07262E-002	5.83865E-004	...........
	5	1.55	6.80849E-002	7.18936E-002	5.80365E-004	...........
	6	1.80833	6.93176E-002	7.30075E-002	5.81932E-004	...........
	7	2.06667	7.05570E-002	7.40774E-002	5.82132E-004	...........
	8	2.325	7.17495E-002	7.51005E-002	5.84299E-004	...........
	9	2.58333	7.28828E-002	7.60784E-002	5.81632E-004	...........
	10	2.84167	7.39605E-002	7.70160E-002	5.79266E-004	...........
	11	3.1	7.49889E-002	7.79154E-002	5.80865E-004	...........
	12	3.35833	7.59726E-002	7.87819E-002	5.84865E-004	...........
	13	3.61667	7.69155E-002	7.96153E-002	5.79399E-004	...........
	14	3.875	7.78205E-002	8.04121E-002	5.86065E-004	...........
	15	4.13333	7.86901E-002	8.11923E-002	5.84132E-004	...........
	16	4.39167	7.95266E-002	8.19356E-002	5.83632E-004	...........
	17	4.65	8.03324E-002	8.26581E-002	5.86299E-004	...........
	18	4.90833	8.11096E-002	8.33512E-002	5.84065E-004	...........
EOC	QUANT	0.0811096	Open Circuit (V)
PSTATMODEL	IQUANT	4	Pstat Model
PSTATSECTION	LABEL	REF600-11020	Pstat Section
PSTATSERIALNO	LABEL	11020	Pstat Serial Number
CTRLMODE	IQUANT	1	Control Mode
IESTAB	IQUANT	0	I/E Stability
CASPEED	IQUANT	1	Control Amp Speed
CONVENTION	IQUANT	1	Current Convention
ICHRANGE	IQUANT	2	Ich Range
ICHRANGEMODE	TOGGLE	F	Ich Auto Range
ICHOFFSETENABLE	TOGGLE	T	Ich Offset Enable
ICHOFFSET	QUANT	0	Ich Offset (V)
ICHFILTER	IQUANT	3	Ich Filter
VCHRANGE	IQUANT	2	Vch Range
VCHRANGEMODE	TOGGLE	F	Vch Auto Range
VCHOFFSETENABLE	TOGGLE	T	Vch Offset Enable
VCHOFFSET	QUANT	0	Vch Offset (V)
VCHFILTER	IQUANT	3	Vch Filter
ACHRANGE	IQUANT	2	Ach Range
ACHOFFSETENABLE	TOGGLE	F	Ach Offset Enable
ACHOFFSET	QUANT	0	Ach Offset (V)
ACHFILTER	IQUANT	3	Ach Filter
IERANGELOWERLIMIT	IQUANT	1	I/E Range Lower Limit
IERANGEMODE	TOGGLE	F	I/E AutoRange
IERANGE	IQUANT	4	I/E Range
POSFEEDENABLE	TOGGLE	F	Positive Feedback IR Comp
POSFEEDRESISTANCE	QUANT	0	Positive Feedback Resistance (ohm)
ACHSELECT	IQUANT	0	Ach Select
CABLEID	IQUANT	14	Cable ID
DCCALDATE	LABEL	8/19/2019	DC Calibration Date
ACCALDATE	LABEL	8/19/2019	AC Calibration Date
THERMOSELECT	IQUANT	1	Thermo Select
FRAMEWORKVERSION	QUANT	6.33	Framework Version
INSTRUMENTVERSION	LABEL	3.50	Instrument Version
ZCURVE	TABLE
	Pt	Time	Freq	Zreal	Zimag	Zsig	Zmod	Zphz	Idc	Vdc	IERange
	#	s	Hz	ohm	ohm	V	ohm	°	A	V	#
	0	2	1000078	2384.509	-1504.523	1	2819.481	-32.25016	1.210132E-005	0.0816085	8
	1	3	794390.6	2646.702	-1422.437	1	3004.722	-28.25525	7.800926E-006	0.0823759	8
	2	5	630984.4	2864.967	-1278.819	1	3137.421	-24.05427	9.448157E-006	0.0823	8
	3	7	501234.4	3038.023	-1151.236	1	3248.835	-20.75383	1.051751E-005	0.0818978	8
	4	8	398109.4	3186.804	-1016.696	1	3345.054	-17.6944	1.077926E-005	0.0817624	8
	5	10	316265.6	3292.286	-927.8498	1	3420.534	-15.73918	1.018907E-005	0.0820185	8
	6	11	251203.1	3383.659	-852.2878	1	3489.347	-14.13777	1.04335E-005	0.0818799	8
	7	13	199546.9	3458.162	-789.8696	1	3547.221	-12.86607	1.0681E-005	0.0818931	8
	8	14	158578.1	3524.369	-757.5839	1	3604.873	-12.13146	1.039945E-005	0.0819862	8
	9	16	125953.1	3591.937	-741.8419	1	3667.743	-11.66922	1.077681E-006	0.0811356	7
	10	17	100078.1	3638.261	-741.1631	1	3712.986	-11.51437	9.129064E-007	0.0822828	7
	11	19	79453.13	3706.535	-781.7302	1	3788.074	-11.90948	9.40182E-007	0.0822378	7
	12	20	63140.62	3771.974	-835.0579	1	3863.303	-12.48308	9.139394E-007	0.0822791	7
	13	21	50203.12	3842.328	-911.0922	1	3948.87	-13.3396	8.744231E-007	0.0823692	7
	14	23	39890.62	3920.581	-1010.994	1	4048.834	-14.45976	9.296571E-007	0.0822847	7
	15	24	31640.63	4012.856	-1140.347	1	4171.738	-15.86374	9.006689E-007	0.082287	7
	16	25	25171.88	4109.495	-1293.629	1	4308.297	-17.47349	8.941039E-007	0.0823025	7
	17	27	20015.62	4224.608	-1480.09	1	4476.38	-19.3079	9.062321E-007	0.0822695	7
	18	28	15890.62	4357.784	-1707.616	1	4680.409	-21.39794	9.019518E-007	0.0823463	7
	19	29	12609.37	4508.958	-1979.258	1	4924.242	-23.69961	8.959541E-007	0.0823049	7
	20	31	10078.13	4675.295	-2288.462	1	5205.328	-26.08081	8.930912E-007	0.082311	7
	21	32	8015.625	4872.632	-2662.731	1	5552.718	-28.65514	9.137925E-007	0.0823061	7
	22	33	6328.125	5110.76	-3129.552	1	5992.826	-31.48104	9.700955E-007	0.0822178	7
	23	35	5015.625	5380.576	-3667.065	1	6511.372	-34.27591	9.127878E-007	0.0822721	7
	24	36	3984.375	5692.007	-4302.955	1	7135.43	-37.08798	9.282485E-007	0.08228	7
	25	37	3170.956	6058.511	-5044.785	1	7883.87	-39.78338	9.747979E-007	0.0821809	7
	26	39	2527.573	6476.927	-5921.207	1	8775.607	-42.43356	8.998933E-007	0.0823409	7
	27	40	1976.103	7010.306	-7052.533	1	9943.97	-45.17204	8.858415E-007	0.0823181	7
	28	41	1577.524	7587.235	-8282.662	1	11232.48	-47.50912	8.959146E-007	0.0823292	7
	29	43	1265.625	8267.626	-9685.24	1	12734.11	-49.51489	8.430656E-008	0.082282	6
	30	44	998.264	9114.497	-11470.47	1	14650.79	-51.52916	9.943019E-008	0.0820831	6
	31	45	796.875	10078.77	-13498.98	1	16846.49	-53.25381	8.576797E-008	0.0823289	6
	32	47	627.7902	11278.73	-16029.83	1	19600.13	-54.86945	8.902384E-008	0.082219	6
	33	48	505.5147	12561.25	-18723.1	1	22546.39	-56.14251	9.135385E-008	0.0821234	6
	34	49	397.9953	14247.42	-22232.79	1	26406.18	-57.34706	9.085002E-008	0.0818834	6
	35	51	315.5048	16195.7	-26266.92	1	30858.58	-58.34278	9.084429E-008	0.0818797	6
	36	52	252.4038	18415.27	-30821.95	1	35904.25	-59.14285	9.101205E-008	0.0818784	6
	37	53	198.6229	21263.01	-36602.39	1	42330.26	-59.84689	9.109488E-008	0.0818802	6
	38	55	158.3615	24472.06	-43050.86	1	49520.28	-60.38413	9.114962E-008	0.0818753	6
	39	56	125.558	28384.23	-50768.44	1	58164.42	-60.79079	9.090939E-008	0.0818841	6
	40	57	100.4464	32972.82	-59457.09	1	67987.88	-60.98878	9.094089E-008	0.0818828	6
	41	59	79.00281	38615.65	-70172.75	1	80096.09	-61.17627	9.095834E-008	0.0818774	6
	42	60	63.3446	45981.37	-81829.58	1	93863.55	-60.66766	9.097169E-008	0.0818767	6
	43	61	49.86702	52640.7	-97541	1	110839	-61.64525	9.111324E-008	0.0818747	6
	44	63	39.72458	62303.04	-113179.3	1	129194.5	-61.16806	9.096596E-008	0.0818803	6
	45	64	31.6723	73073.52	-132370.7	1	151201	-61.09969	9.230137E-009	0.081889	5
	46	65	24.93351	86289.65	-155327.4	1	177686.5	-60.94634	9.091949E-009	0.081882	5
	47	67	19.86229	100824	-180790.6	1	207004.2	-60.85231	9.094379E-009	0.0818878	5
	48	68	15.83615	119042.3	-211375.2	1	242591.4	-60.61265	9.685143E-009	0.0818859	5
	49	69	12.40079	138588.1	-246533	1	282816.5	-60.65755	8.765578E-009	0.0818902	5
	50	71	9.93114	161618	-286567.1	1	329000.2	-60.57788	9.451502E-009	0.0818882	5
	51	72	7.944915	188022.3	-333971.7	1	383261.7	-60.62098	9.040292E-009	0.0818841	5
	52	74	6.317385	218546.1	-389043.2	1	446225.3	-60.67478	9.306955E-009	0.0818782	5
	53	76	5.008013	255891.1	-455695.6	1	522626.8	-60.68407	9.069942E-009	0.0818843	5
	54	79	3.945707	299971	-535666.9	1	613939.4	-60.75138	9.224093E-009	0.0818931	5
	55	81	3.158693	349713.6	-624695.9	1	715922.2	-60.75928	9.121848E-008	0.0818706	6
	56	85	2.504006	411168.5	-730203.8	1	838007.9	-60.61669	8.914339E-009	0.0821667	5
	57	88	1.998082	481527.2	-849840.6	1	976779	-60.46372	8.966213E-009	0.0821324	5
	58	91	1.584686	565321.4	-992179	1	1141932	-60.32648	8.944293E-009	0.0821585	5
	59	95	1.266892	666407.9	-1150701	1	1329741	-59.92349	8.403984E-010	0.0821235	4
	60	99	0.999041	787978.3	-1344762	1	1558619	-59.63135	7.886813E-010	0.0821962	4
