EXPLAIN
TAG	EISPOT
TITLE	LABEL	Potentiostatic EIS	Test &Identifier
DATE	LABEL	10/22/2019	Date
TIME	LABEL	8:26:00	Time
NOTES	NOTES	1	&Notes...
	
PSTAT	PSTAT	REF600-11020	Potentiostat
VDC	POTEN	0.00000E+000	T	DC &Voltage (V)
FREQINIT	QUANT	1.00000E+006	Initial Fre&q. (Hz)
FREQFINAL	QUANT	1.00000E+000	Final Fre&q. (Hz)
PTSPERDEC	QUANT	1.00000E+001	Points/&decade
VAC	QUANT	2.50000E+001	AC &Voltage (mV rms)
AREA	QUANT	1.00000E-002	&Area (cm^2)
CONDIT	TWOPARAM	T	5.00000E+000	0.00000E+000	Conditionin&g	Time(s)	E(V)
DELAY	TWOPARAM	T	5.00000E+000	0.00000E+000	Init. De&lay	Time(s)	Stab.(mV/s)
SPEED	SELECTOR	1	&Optimize for:
ZGUESS	QUANT	1.00000E+005	E&stimated Z (ohms)
OCVCURVE	TABLE	19
	Pt	T	Vf	Vm	Ach	Over
	#	s	V vs. Ref.	V	V	bits
	0	0.258333	2.26877E-003	2.26877E-003	5.84899E-004	...........
	1	0.516667	2.26361E-003	1.99878E-003	5.86799E-004	...........
	2	0.775	2.23232E-003	1.76271E-003	5.81499E-004	...........
	3	1.03333	2.14529E-003	1.54864E-003	5.84565E-004	...........
	4	1.29167	1.99330E-003	1.35499E-003	5.86832E-004	...........
	5	1.55	1.79807E-003	1.20451E-003	5.89232E-004	...........
	6	1.80833	1.59193E-003	1.02915E-003	5.88399E-004	...........
	7	2.06667	1.39815E-003	9.78567E-004	5.87299E-004	...........
	8	2.325	1.22772E-003	7.89933E-004	5.80865E-004	...........
	9	2.58333	1.07979E-003	6.54301E-004	5.84799E-004	...........
	10	2.84167	9.44050E-004	5.67278E-004	5.84065E-004	...........
	11	3.1	8.12644E-004	4.26989E-004	5.84832E-004	...........
	12	3.35833	6.85271E-004	3.10262E-004	5.85265E-004	...........
	13	3.61667	5.62893E-004	2.42049E-004	5.93399E-004	...........
	14	3.875	4.46478E-004	1.15036E-004	5.86965E-004	...........
	15	4.13333	3.37380E-004	4.03920E-005	5.84199E-004	...........
	16	4.39167	2.35473E-004	-2.66567E-005	5.78865E-004	...........
	17	4.65	1.40537E-004	-1.34836E-004	5.83299E-004	...........
	18	4.90833	5.19084E-005	-1.94825E-004	5.82332E-004	...........
EOC	QUANT	5.190841E-005	Open Circuit (V)
PSTATMODEL	IQUANT	4	Pstat Model
PSTATSECTION	LABEL	REF600-11020	Pstat Section
PSTATSERIALNO	LABEL	11020	Pstat Serial Number
CTRLMODE	IQUANT	1	Control Mode
IESTAB	IQUANT	0	I/E Stability
CASPEED	IQUANT	1	Control Amp Speed
CONVENTION	IQUANT	1	Current Convention
ICHRANGE	IQUANT	2	Ich Range
ICHRANGEMODE	TOGGLE	F	Ich Auto Range
ICHOFFSETENABLE	TOGGLE	T	Ich Offset Enable
ICHOFFSET	QUANT	0	Ich Offset (V)
ICHFILTER	IQUANT	3	Ich Filter
VCHRANGE	IQUANT	2	Vch Range
VCHRANGEMODE	TOGGLE	F	Vch Auto Range
VCHOFFSETENABLE	TOGGLE	T	Vch Offset Enable
VCHOFFSET	QUANT	0	Vch Offset (V)
VCHFILTER	IQUANT	3	Vch Filter
ACHRANGE	IQUANT	2	Ach Range
ACHOFFSETENABLE	TOGGLE	F	Ach Offset Enable
ACHOFFSET	QUANT	0	Ach Offset (V)
ACHFILTER	IQUANT	3	Ach Filter
IERANGELOWERLIMIT	IQUANT	1	I/E Range Lower Limit
IERANGEMODE	TOGGLE	F	I/E AutoRange
IERANGE	IQUANT	2	I/E Range
POSFEEDENABLE	TOGGLE	F	Positive Feedback IR Comp
POSFEEDRESISTANCE	QUANT	0	Positive Feedback Resistance (ohm)
ACHSELECT	IQUANT	0	Ach Select
CABLEID	IQUANT	14	Cable ID
DCCALDATE	LABEL	8/19/2019	DC Calibration Date
ACCALDATE	LABEL	8/19/2019	AC Calibration Date
THERMOSELECT	IQUANT	1	Thermo Select
FRAMEWORKVERSION	QUANT	6.33	Framework Version
INSTRUMENTVERSION	LABEL	3.50	Instrument Version
ZCURVE	TABLE
	Pt	Time	Freq	Zreal	Zimag	Zsig	Zmod	Zphz	Idc	Vdc	IERange
	#	s	Hz	ohm	ohm	V	ohm	°	A	V	#
	0	1	1000078	2522.038	-1270.518	1	2823.985	-26.73744	-2.406398E-006	0.0023925	8
	1	3	794390.6	2725.749	-1161.033	1	2962.719	-23.07158	-3.030576E-006	0.0025118	8
	2	4	630984.4	2900.528	-1017.488	1	3073.816	-19.33056	5.206832E-006	0.0009956	8
	3	6	501234.4	3042.053	-891.4201	1	3169.971	-16.33229	-8.266335E-007	0.0017845	8
	4	7	398109.4	3153.179	-778.3361	1	3247.822	-13.8658	-1.237405E-006	0.0018948	8
	5	8	316265.6	3222.464	-669.3266	1	3291.241	-11.73386	-4.781163E-007	0.0016204	8
	6	10	251203.1	3294.595	-579.4579	1	3345.165	-9.97523	-2.949888E-006	0.002019	8
	7	11	199546.9	3338.715	-500.1196	1	3375.965	-8.519223	8.945119E-007	0.0013254	8
	8	12	158578.1	3377.439	-447.8241	1	3406.999	-7.552951	-2.840795E-006	0.0021621	8
	9	14	125953.1	3432.914	-351.9119	1	3450.904	-5.85301	-7.829391E-007	0.0032042	7
	10	15	100078.1	3446.711	-331.7043	1	3462.636	-5.497098	1.278713E-007	0.0013453	7
	11	16	79453.13	3471.296	-324.3663	1	3486.418	-5.338355	6.338283E-008	0.0014266	7
	12	18	63140.62	3499.67	-323.8121	1	3514.618	-5.286325	-3.084093E-008	0.001546	7
	13	19	50203.12	3527.324	-331.7476	1	3542.89	-5.372909	-4.338482E-008	0.0015595	7
	14	20	39890.62	3558.344	-347.4679	1	3575.268	-5.57718	-1.755004E-008	0.001579	7
	15	22	31640.63	3589.319	-370.5372	1	3608.395	-5.893953	9.180149E-009	0.0014679	7
	16	23	25171.88	3624.759	-401.6197	1	3646.941	-6.322527	-3.126599E-008	0.0015418	7
	17	25	20015.62	3661.454	-444.642	1	3688.354	-6.924017	-5.602404E-008	0.0016921	7
	18	26	15890.62	3707.005	-492.0086	1	3739.513	-7.560339	-3.165198E-008	0.0015463	7
	19	27	12609.37	3756.287	-551.6533	1	3796.579	-8.354811	-5.707826E-009	0.0015748	7
	20	29	10078.13	3810.236	-622.1441	1	3860.695	-9.27355	-1.274316E-008	0.0014943	7
	21	30	8015.625	3874.697	-704.8378	1	3938.282	-10.30982	-3.81935E-008	0.0016088	7
	22	31	6328.125	3943.381	-806.8079	1	4025.071	-11.56302	7.889902E-008	0.0013685	7
	23	33	5015.625	4021.498	-923.0812	1	4126.078	-12.92755	-3.773094E-008	0.0015452	7
	24	34	3984.375	4116.664	-1052.082	1	4248.977	-14.33604	-5.529425E-008	0.0016942	7
	25	35	3170.956	4199.924	-1219.303	1	4373.335	-16.18884	-4.245191E-008	0.001554	7
	26	37	2527.573	4299.07	-1405.333	1	4522.937	-18.10217	-3.802626E-008	0.0015477	7
	27	38	1976.103	4416.32	-1648.952	1	4714.12	-20.47447	7.866775E-008	0.0013616	7
	28	39	1577.524	4535.368	-1927.375	1	4927.914	-23.02382	-1.514192E-008	0.0015024	7
	29	41	1265.625	4655.375	-2236.213	1	5164.607	-25.65734	4.04891E-008	0.0013908	7
	30	42	998.264	4800.77	-2654.521	1	5485.789	-28.93981	-2.883285E-008	0.0015336	7
	31	43	796.875	4944.27	-3138.601	1	5856.332	-32.4072	7.807234E-008	0.00136	7
	32	45	627.7902	5112.809	-3776.143	1	6356.105	-36.44828	8.39169E-008	0.0014641	7
	33	46	505.5147	5283.344	-4490.944	1	6934.14	-40.36518	-1.662869E-008	0.0015711	7
	34	48	397.9953	5497.493	-5462.149	1	7749.678	-44.81523	4.656393E-009	0.0015419	7
	35	49	315.5048	5740.879	-6639.65	1	8777.395	-49.15213	4.174106E-009	0.001544	7
	36	50	252.4038	6023.459	-8036.396	1	10043.19	-53.14762	4.858747E-010	0.0014817	6
	37	52	198.6229	6393.053	-9897.69	1	11782.85	-57.14104	6.927555E-010	0.0014818	6
	38	53	158.3615	6836.056	-12071.43	1	13872.68	-60.47712	5.718601E-010	0.0014846	6
	39	54	125.558	7410.23	-14818.93	1	16568.41	-63.43258	5.74149E-010	0.0014884	6
	40	56	100.4464	8128.672	-18057.67	1	19802.9	-65.76508	1.273939E-009	0.0014844	6
	41	57	79.00281	9161.022	-22275.73	1	24085.94	-67.64481	7.511208E-011	0.0014793	6
	42	58	63.3446	10221.63	-26978.94	1	28850.39	-69.24958	2.96052E-010	0.0014795	6
	43	60	49.86702	12292.08	-33339.84	1	35533.65	-69.76156	8.431502E-010	0.0014804	6
	44	61	39.72458	14395.71	-40613.82	1	43089.66	-70.48296	9.96495E-010	0.0014829	6
	45	63	31.6723	17263.5	-49088.89	1	52036.03	-70.62433	1.996567E-010	0.0014834	6
	46	64	24.93351	21408.58	-60064.77	1	63766.01	-70.38267	-1.867297E-011	0.0014829	6
	47	65	19.86229	26533.49	-72321.45	1	77035.18	-69.85278	6.455699E-010	0.0014801	6
	48	67	15.83615	33318.52	-86370.69	1	92574.4	-68.90529	1.084611E-009	0.0014785	6
	49	68	12.40079	42451.16	-103820.5	1	112164.2	-67.76084	1.054878E-009	0.0014806	5
	50	69	9.93114	53153.82	-122408.2	1	133450.7	-66.52786	8.991008E-010	0.001478	5
	51	71	7.944915	66449.6	-143306.1	1	157962.6	-65.12332	-3.340894E-010	0.0014759	5
	52	73	6.317385	82362.29	-166777.7	1	186006.3	-63.71778	-3.81555E-010	0.0014844	5
	53	75	5.008013	101808.9	-193511.8	1	218659.2	-62.2506	-1.837262E-010	0.0014739	5
	54	77	3.945707	124850.8	-223508.5	1	256015.2	-60.81248	4.522918E-010	0.0014848	5
	55	80	3.158693	149341.9	-255048.3	1	295554.8	-59.64917	-1.8416E-010	0.0014733	5
	56	83	2.504006	177601.9	-291614.2	1	341440	-58.65731	5.235228E-010	0.0014758	5
	57	86	1.998082	207568.3	-331404.2	1	391041.3	-57.93987	1.126318E-010	0.0015206	5
	58	89	1.584686	239996.1	-378528.4	1	448198.5	-57.62432	1.650439E-010	0.0014656	5
	59	93	1.266892	275705.1	-433225.6	1	513515.1	-57.52729	7.269921E-011	0.0015213	5
	60	97	0.999041	316337.7	-500968.9	1	592485.8	-57.72957	-2.824555E-011	0.0014395	5
