EXPLAIN
TAG	EISPOT
TITLE	LABEL	Potentiostatic EIS	Test &Identifier
DATE	LABEL	9/22/2019	Date
TIME	LABEL	8:48:14	Time
NOTES	NOTES	1	&Notes...
	
PSTAT	PSTAT	REF600-11020	Potentiostat
VDC	POTEN	0.00000E+000	T	DC &Voltage (V)
FREQINIT	QUANT	1.00000E+006	Initial Fre&q. (Hz)
FREQFINAL	QUANT	1.00000E+000	Final Fre&q. (Hz)
PTSPERDEC	QUANT	1.00000E+001	Points/&decade
VAC	QUANT	2.50000E+001	AC &Voltage (mV rms)
AREA	QUANT	1.00000E-002	&Area (cm^2)
CONDIT	TWOPARAM	T	5.00000E+000	0.00000E+000	Conditionin&g	Time(s)	E(V)
DELAY	TWOPARAM	T	5.00000E+000	0.00000E+000	Init. De&lay	Time(s)	Stab.(mV/s)
SPEED	SELECTOR	1	&Optimize for:
ZGUESS	QUANT	1.00000E+004	E&stimated Z (ohms)
OCVCURVE	TABLE	19
	Pt	T	Vf	Vm	Ach	Over
	#	s	V vs. Ref.	V	V	bits
	0	0.258333	1.30674E-002	1.30674E-002	5.68999E-004	...........
	1	0.516667	1.30796E-002	1.37055E-002	5.71432E-004	...........
	2	0.775	1.31544E-002	1.43081E-002	5.70832E-004	...........
	3	1.03333	1.33658E-002	1.48794E-002	5.67966E-004	...........
	4	1.29167	1.37429E-002	1.54217E-002	5.67732E-004	...........
	5	1.55	1.42425E-002	1.59313E-002	5.74399E-004	...........
	6	1.80833	1.47931E-002	1.64143E-002	5.67732E-004	...........
	7	2.06667	1.53419E-002	1.68751E-002	5.68699E-004	...........
	8	2.325	1.58651E-002	1.73137E-002	5.72232E-004	...........
	9	2.58333	1.63580E-002	1.77302E-002	5.72632E-004	...........
	10	2.84167	1.68232E-002	1.81288E-002	5.69299E-004	...........
	11	3.1	1.72644E-002	1.85105E-002	5.68532E-004	...........
	12	3.35833	1.76844E-002	1.88721E-002	5.70732E-004	...........
	13	3.61667	1.80850E-002	1.92240E-002	5.70332E-004	...........
	14	3.875	1.84679E-002	1.95557E-002	5.69299E-004	...........
	15	4.13333	1.88341E-002	1.98806E-002	5.72899E-004	...........
	16	4.39167	1.91851E-002	2.01905E-002	5.73932E-004	...........
	17	4.65	1.95221E-002	2.04935E-002	5.69599E-004	...........
	18	4.90833	1.98465E-002	2.07823E-002	5.73632E-004	...........
EOC	QUANT	0.0198465	Open Circuit (V)
PSTATMODEL	IQUANT	4	Pstat Model
PSTATSECTION	LABEL	REF600-11020	Pstat Section
PSTATSERIALNO	LABEL	11020	Pstat Serial Number
CTRLMODE	IQUANT	1	Control Mode
IESTAB	IQUANT	0	I/E Stability
CASPEED	IQUANT	1	Control Amp Speed
CONVENTION	IQUANT	1	Current Convention
ICHRANGE	IQUANT	2	Ich Range
ICHRANGEMODE	TOGGLE	F	Ich Auto Range
ICHOFFSETENABLE	TOGGLE	T	Ich Offset Enable
ICHOFFSET	QUANT	0	Ich Offset (V)
ICHFILTER	IQUANT	3	Ich Filter
VCHRANGE	IQUANT	2	Vch Range
VCHRANGEMODE	TOGGLE	F	Vch Auto Range
VCHOFFSETENABLE	TOGGLE	T	Vch Offset Enable
VCHOFFSET	QUANT	0	Vch Offset (V)
VCHFILTER	IQUANT	3	Vch Filter
ACHRANGE	IQUANT	2	Ach Range
ACHOFFSETENABLE	TOGGLE	F	Ach Offset Enable
ACHOFFSET	QUANT	0	Ach Offset (V)
ACHFILTER	IQUANT	3	Ach Filter
IERANGELOWERLIMIT	IQUANT	1	I/E Range Lower Limit
IERANGEMODE	TOGGLE	F	I/E AutoRange
IERANGE	IQUANT	6	I/E Range
POSFEEDENABLE	TOGGLE	F	Positive Feedback IR Comp
POSFEEDRESISTANCE	QUANT	0	Positive Feedback Resistance (ohm)
ACHSELECT	IQUANT	0	Ach Select
CABLEID	IQUANT	14	Cable ID
DCCALDATE	LABEL	8/19/2019	DC Calibration Date
ACCALDATE	LABEL	8/19/2019	AC Calibration Date
THERMOSELECT	IQUANT	1	Thermo Select
FRAMEWORKVERSION	QUANT	6.33	Framework Version
INSTRUMENTVERSION	LABEL	3.50	Instrument Version
ZCURVE	TABLE
	Pt	Time	Freq	Zreal	Zimag	Zsig	Zmod	Zphz	Idc	Vdc	IERange
	#	s	Hz	ohm	ohm	V	ohm	°	A	V	#
	0	1	1000078	1742.258	-574.3688	1	1834.493	-18.24579	-2.988125E-006	0.0225569	8
	1	2	794390.6	1812.719	-498.671	1	1880.059	-15.38135	2.903981E-006	0.0211291	8
	2	3	630984.4	1874.266	-425.8574	1	1922.037	-12.80101	-4.546375E-006	0.022346	8
	3	5	501234.4	1916.668	-358.1239	1	1949.838	-10.58352	1.559086E-006	0.0214741	8
	4	6	398109.4	1950.771	-314.5878	1	1975.974	-9.160839	-3.939486E-007	0.0213319	8
	5	7	316265.6	1973.64	-272.8206	1	1992.407	-7.870249	-3.308258E-006	0.0220749	8
	6	9	251203.1	2001.519	-239.6815	1	2015.819	-6.828643	-4.286268E-006	0.0223918	8
	7	10	199546.9	2018.71	-222.904	1	2030.979	-6.301019	-2.988777E-006	0.0220241	8
	8	12	158578.1	2041.298	-199.49	1	2051.022	-5.581623	-3.052661E-006	0.0220298	8
	9	13	125953.1	2063.455	-162.0547	1	2069.809	-4.490542	6.225733E-007	0.020592	7
	10	14	100078.1	2076.752	-152.567	1	2082.349	-4.201643	-1.81677E-008	0.0213787	7
	11	16	79453.13	2092.669	-155.2038	1	2098.417	-4.241605	-4.179597E-008	0.0214066	7
	12	17	63140.62	2108.58	-161.3527	1	2114.744	-4.375858	-2.366376E-008	0.0214442	7
	13	18	50203.12	2127.299	-169.8368	1	2134.068	-4.564632	-1.161054E-008	0.0212915	7
	14	20	39890.62	2146.571	-180.7774	1	2154.169	-4.81391	-5.412881E-009	0.0213424	7
	15	21	31640.63	2166.685	-194.0988	1	2175.361	-5.119082	6.939425E-008	0.0211704	7
	16	22	25171.88	2186.788	-211.6178	1	2197.003	-5.527363	-3.943465E-008	0.0214032	7
	17	24	20015.62	2207.849	-233.3562	1	2220.147	-6.033414	-2.230885E-008	0.0214442	7
	18	25	15890.62	2228.598	-261.2061	1	2243.853	-6.684936	6.249493E-008	0.0212862	7
	19	27	12609.37	2252.412	-295.9064	1	2271.766	-7.484263	-6.57022E-008	0.0214253	7
	20	28	10078.13	2275.194	-337.902	1	2300.149	-8.447574	-4.087383E-008	0.0213646	7
	21	29	8015.625	2300.427	-389.8905	1	2333.233	-9.61943	6.104945E-008	0.0211952	7
	22	31	6328.125	2329.464	-457.3172	1	2373.929	-11.10698	-3.971112E-008	0.0213974	7
	23	32	5015.625	2359.935	-538.5748	1	2420.61	-12.85565	-2.353391E-008	0.0214425	7
	24	33	3984.375	2393.294	-636.735	1	2476.548	-14.8984	1.369478E-009	0.021313	7
	25	35	3170.956	2430.731	-756.6014	1	2545.761	-17.28953	-3.487756E-008	0.0213305	7
	26	36	2527.573	2471.166	-903.1404	1	2631.031	-20.07591	-7.916015E-009	0.0213365	7
	27	37	1976.103	2520.756	-1100.303	1	2750.433	-23.58114	6.497837E-008	0.0212807	7
	28	39	1577.524	2571.928	-1324.088	1	2892.753	-27.24046	-4.018284E-008	0.0213637	7
	29	40	1265.625	2628.538	-1593.931	1	3074.057	-31.2324	3.952801E-008	0.0211814	7
	30	41	998.264	2702.527	-1953.203	1	3334.465	-35.85685	-6.474571E-008	0.0214156	7
	31	43	796.875	2786.024	-2373.967	1	3660.28	-40.43426	-4.007971E-008	0.0213556	7
	32	44	627.7902	2892.752	-2926.295	1	4114.756	-45.33027	6.484658E-008	0.021278	7
	33	45	505.5147	3016.604	-3541.478	1	4652.093	-49.5759	-4.313635E-008	0.0213527	7
	34	47	397.9953	3183.814	-4377.12	1	5412.564	-53.96874	4.411524E-009	0.0213291	7
	35	48	315.5048	3394.714	-5378.074	1	6359.855	-57.73932	3.599797E-009	0.0213286	7
	36	49	252.4038	3654.617	-6551.665	1	7502.035	-60.84657	3.432633E-009	0.0213242	7
	37	51	198.6229	4017.958	-8094.648	1	9036.997	-63.60148	3.42892E-009	0.0213293	7
	38	52	158.3615	4469.283	-9875.39	1	10839.64	-65.65002	-4.49093E-010	0.0212713	6
	39	54	125.558	5066.508	-12088.69	1	13107.47	-67.26088	3.907843E-010	0.0212668	6
	40	55	100.4464	5818.681	-14664.66	1	15776.86	-68.35769	3.695834E-011	0.0212671	6
	41	56	79.00281	6867.961	-17968.25	1	19236.09	-69.08176	-3.475827E-010	0.0212663	6
	42	58	63.3446	8211.115	-21598.82	1	23106.96	-69.18495	1.463713E-010	0.0212692	6
	43	59	49.86702	9879.25	-26459.05	1	28243.24	-69.52542	-8.47684E-010	0.0212654	6
	44	61	39.72458	12025.96	-31716.54	1	33919.94	-69.23477	8.357294E-010	0.0212641	6
	45	62	31.6723	14713.31	-37964.48	1	40715.89	-68.81593	-1.124372E-010	0.0212619	6
	46	63	24.93351	18272.63	-45648.5	1	49169.85	-68.18428	-3.352763E-010	0.0212636	6
	47	65	19.86229	22550.84	-54192.43	1	58697.18	-67.40657	-2.855036E-010	0.0212592	6
	48	66	15.83615	27922.54	-63877.54	1	69713.76	-66.3886	7.853339E-010	0.0212674	6
	49	67	12.40079	34654.84	-76398.78	1	83891.19	-65.60073	-7.298288E-010	0.021272	6
	50	69	9.93114	42163.1	-89217.77	1	98679	-64.70522	-5.611751E-010	0.0212769	6
	51	70	7.944915	51245.5	-103797	1	115758	-63.72404	2.311674E-011	0.0212684	5
	52	72	6.317385	62514.84	-121068.7	1	136256.1	-62.69005	-1.116491E-010	0.021261	5
	53	74	5.008013	76324.55	-141351	1	160641.1	-61.63253	-7.938092E-010	0.0212711	5
	54	77	3.945707	93170.27	-164920	1	189418.4	-60.53607	-1.116311E-009	0.0212686	5
	55	79	3.158693	111948.1	-189139.4	1	219786.5	-59.37949	-3.055043E-010	0.0212764	5
	56	82	2.504006	134912	-217655	1	256076.1	-58.20757	-1.220036E-009	0.0212756	5
	57	85	1.998082	160270.3	-247557.6	1	294909.1	-57.08073	-6.804095E-010	0.0212331	5
	58	88	1.584686	189723	-281641.2	1	339582.9	-56.03445	-8.521848E-010	0.0212887	5
	59	92	1.266892	222112.5	-319250.3	1	388914.8	-55.17244	-8.988327E-010	0.0212315	5
	60	96	0.999041	260028.4	-363091.7	1	446598.6	-54.39163	-4.737459E-010	0.0213126	5
