EXPLAIN
TAG	EISPOT
TITLE	LABEL	Potentiostatic EIS	Test &Identifier
DATE	LABEL	10/26/2019	Date
TIME	LABEL	10:27:18	Time
NOTES	NOTES	1	&Notes...
	
PSTAT	PSTAT	REF600-11020	Potentiostat
VDC	POTEN	0.00000E+000	T	DC &Voltage (V)
FREQINIT	QUANT	1.00000E+006	Initial Fre&q. (Hz)
FREQFINAL	QUANT	1.00000E+000	Final Fre&q. (Hz)
PTSPERDEC	QUANT	1.00000E+001	Points/&decade
VAC	QUANT	2.50000E+001	AC &Voltage (mV rms)
AREA	QUANT	1.00000E-002	&Area (cm^2)
CONDIT	TWOPARAM	T	5.00000E+000	0.00000E+000	Conditionin&g	Time(s)	E(V)
DELAY	TWOPARAM	T	5.00000E+000	0.00000E+000	Init. De&lay	Time(s)	Stab.(mV/s)
SPEED	SELECTOR	0	&Optimize for:
ZGUESS	QUANT	1.00000E+005	E&stimated Z (ohms)
OCVCURVE	TABLE	19
	Pt	T	Vf	Vm	Ach	Over
	#	s	V vs. Ref.	V	V	bits
	0	0.258333	6.46712E-003	6.46712E-003	5.64899E-004	...........
	1	0.516667	6.46656E-003	6.43745E-003	5.64166E-004	...........
	2	0.775	6.46349E-003	6.43083E-003	5.64866E-004	...........
	3	1.03333	6.45642E-003	6.43755E-003	5.63232E-004	...........
	4	1.29167	6.44761E-003	6.44935E-003	5.65699E-004	...........
	5	1.55	6.44226E-003	6.47400E-003	5.65399E-004	...........
	6	1.80833	6.44503E-003	6.52421E-003	5.61466E-004	...........
	7	2.06667	6.45845E-003	6.54116E-003	5.64432E-004	...........
	8	2.325	6.48152E-003	6.56659E-003	5.65566E-004	...........
	9	2.58333	6.50954E-003	6.59106E-003	5.61132E-004	...........
	10	2.84167	6.53821E-003	6.64228E-003	5.64366E-004	...........
	11	3.1	6.56764E-003	6.68213E-003	5.68266E-004	...........
	12	3.35833	6.60052E-003	6.72359E-003	5.60266E-004	...........
	13	3.61667	6.63781E-003	6.76181E-003	5.58366E-004	...........
	14	3.875	6.67784E-003	6.80166E-003	5.59566E-004	...........
	15	4.13333	6.71850E-003	6.84120E-003	5.59966E-004	...........
	16	4.39167	6.75885E-003	6.88466E-003	5.60466E-004	...........
	17	4.65	6.79905E-003	6.92378E-003	5.70299E-004	...........
	18	4.90833	6.83953E-003	6.96701E-003	5.65732E-004	...........
EOC	QUANT	0.0068395	Open Circuit (V)
PSTATMODEL	IQUANT	4	Pstat Model
PSTATSECTION	LABEL	REF600-11020	Pstat Section
PSTATSERIALNO	LABEL	11020	Pstat Serial Number
CTRLMODE	IQUANT	1	Control Mode
IESTAB	IQUANT	0	I/E Stability
CASPEED	IQUANT	1	Control Amp Speed
CONVENTION	IQUANT	1	Current Convention
ICHRANGE	IQUANT	2	Ich Range
ICHRANGEMODE	TOGGLE	F	Ich Auto Range
ICHOFFSETENABLE	TOGGLE	T	Ich Offset Enable
ICHOFFSET	QUANT	0	Ich Offset (V)
ICHFILTER	IQUANT	3	Ich Filter
VCHRANGE	IQUANT	2	Vch Range
VCHRANGEMODE	TOGGLE	F	Vch Auto Range
VCHOFFSETENABLE	TOGGLE	T	Vch Offset Enable
VCHOFFSET	QUANT	0	Vch Offset (V)
VCHFILTER	IQUANT	3	Vch Filter
ACHRANGE	IQUANT	2	Ach Range
ACHOFFSETENABLE	TOGGLE	F	Ach Offset Enable
ACHOFFSET	QUANT	0	Ach Offset (V)
ACHFILTER	IQUANT	3	Ach Filter
IERANGELOWERLIMIT	IQUANT	1	I/E Range Lower Limit
IERANGEMODE	TOGGLE	F	I/E AutoRange
IERANGE	IQUANT	5	I/E Range
POSFEEDENABLE	TOGGLE	F	Positive Feedback IR Comp
POSFEEDRESISTANCE	QUANT	0	Positive Feedback Resistance (ohm)
ACHSELECT	IQUANT	0	Ach Select
CABLEID	IQUANT	14	Cable ID
DCCALDATE	LABEL	8/19/2019	DC Calibration Date
ACCALDATE	LABEL	8/19/2019	AC Calibration Date
THERMOSELECT	IQUANT	1	Thermo Select
FRAMEWORKVERSION	QUANT	6.33	Framework Version
INSTRUMENTVERSION	LABEL	3.50	Instrument Version
ZCURVE	TABLE
	Pt	Time	Freq	Zreal	Zimag	Zsig	Zmod	Zphz	Idc	Vdc	IERange
	#	s	Hz	ohm	ohm	V	ohm	°	A	V	#
	0	2	1000078	2380.639	-1595.586	1	2865.893	-33.83135	-2.471322E-007	0.0094418	8
	1	2	794390.6	2692.96	-1501.265	1	3083.153	-29.13869	-2.783893E-006	0.0093951	8
	2	2	630984.4	2964.26	-1378.541	1	3269.13	-24.94098	4.053825E-006	0.0079055	8
	3	3	501234.4	3183.134	-1230.097	1	3412.547	-21.12863	2.207786E-007	0.0082024	8
	4	3	398109.4	3361.316	-1082.021	1	3531.177	-17.84358	-1.138541E-006	0.0086261	8
	5	3	316265.6	3513.702	-918.1681	1	3631.685	-14.64454	7.681216E-007	0.0083192	8
	6	3	251203.1	3598.088	-799.9736	1	3685.946	-12.53485	1.575646E-006	0.007967	8
	7	4	199546.9	3672.947	-697.5387	1	3738.595	-10.75313	6.848808E-007	0.0081432	8
	8	4	158578.1	3737.214	-612.1661	1	3787.02	-9.302594	-1.249591E-006	0.0085772	8
	9	4	125953.1	3810.713	-491.5221	1	3842.282	-7.349676	-5.450203E-007	0.0095224	7
	10	5	100078.1	3835.501	-443.5475	1	3861.062	-6.596535	3.270214E-008	0.0082767	7
	11	5	79453.13	3869.194	-414.8509	1	3891.37	-6.119814	-1.012405E-008	0.0083505	7
	12	5	63140.62	3902.099	-394.9538	1	3922.036	-5.779551	-5.202191E-008	0.0083956	7
	13	6	50203.12	3933.086	-387.175	1	3952.097	-5.622112	-2.790214E-009	0.0082777	7
	14	6	39890.62	3966.991	-388.8791	1	3986.006	-5.598744	7.446405E-008	0.0082428	7
	15	6	31640.63	3998.833	-399.8091	1	4018.77	-5.709541	-2.307329E-009	0.0082759	7
	16	7	25171.88	4033.254	-420.6661	1	4055.132	-5.954389	6.401613E-009	0.0083844	7
	17	7	20015.62	4072.274	-453.3138	1	4097.427	-6.351851	3.315998E-008	0.0082653	7
	18	7	15890.62	4109.045	-493.2825	1	4138.548	-6.845481	-5.887598E-008	0.0083744	7
	19	8	12609.37	4150.898	-547.0978	1	4186.797	-7.508436	-4.566483E-008	0.0083559	7
	20	8	10078.13	4196.298	-612.2581	1	4240.728	-8.301128	-4.738935E-009	0.0083059	7
	21	8	8015.625	4242.562	-697.7683	1	4299.559	-9.339745	7.702687E-008	0.0082412	7
	22	9	6328.125	4297.49	-800.7568	1	4371.456	-10.55495	6.354759E-009	0.0083837	7
	23	9	5015.625	4354.799	-928.176	1	4452.616	-12.03191	-2.805616E-008	0.0083027	7
	24	9	3984.375	4420.162	-1082.879	1	4550.875	-13.76555	1.202896E-008	0.0082286	7
	25	10	3170.956	4482.779	-1277.296	1	4661.201	-15.90405	6.775129E-009	0.0083771	7
	26	10	2527.573	4557.107	-1510.266	1	4800.847	-18.33566	3.682142E-008	0.0081775	7
	27	10	1976.103	4647.093	-1822.508	1	4991.694	-21.41424	-3.090031E-008	0.0083004	7
	28	10	1577.524	4743.793	-2169.241	1	5216.242	-24.57366	-2.677632E-008	0.0082986	7
	29	11	1265.625	4854.238	-2592.181	1	5503.002	-28.10238	3.354908E-008	0.0082514	7
	30	11	998.264	4989.322	-3146.939	1	5898.861	-32.24106	-1.444025E-008	0.0082675	7
	31	11	796.875	5133.585	-3789.889	1	6380.984	-36.43674	-3.73484E-008	0.0083749	7
	32	12	627.7902	5317.382	-4626.785	1	7048.524	-41.02733	-3.533616E-008	0.008376	7
	33	12	505.5147	5509.671	-5559.141	1	7826.911	-45.25607	-5.318728E-009	0.0082964	7
	34	12	397.9953	5769.094	-6821.43	1	8933.888	-49.77777	1.219629E-009	0.0083181	7
	35	13	315.5048	6067.523	-8339.939	1	10313.56	-53.96313	1.172717E-009	0.0082592	6
	36	13	252.4038	6417.967	-10138.43	1	11999.09	-57.66481	-1.231757E-010	0.0082548	6
	37	13	198.6229	6883.391	-12519.99	1	14287.45	-61.19835	6.281425E-010	0.008256	6
	38	14	158.3615	7449.591	-15298.17	1	17015.59	-64.03578	-3.436697E-010	0.0082551	6
	39	14	125.558	8186.476	-18799.83	1	20504.93	-66.46906	2.169798E-010	0.0082527	6
	40	14	100.4464	9071.265	-22910	1	24640.54	-68.3988	7.99311E-010	0.0082498	6
	41	15	79.00281	10337.45	-28279.74	1	30109.91	-69.9205	-2.515203E-010	0.0082467	6
	42	15	63.3446	12397.67	-34575.17	1	36730.7	-70.27362	3.163703E-010	0.0082451	6
	43	15	49.86702	14491.72	-42631.81	1	45027.56	-71.2257	-1.060601E-009	0.0082462	6
	44	16	39.72458	17170.66	-51462.08	1	54251.06	-71.54838	-2.004293E-011	0.0082497	6
	45	16	31.6723	20678.2	-62235.4	1	65580.73	-71.62053	-4.414976E-010	0.0082491	6
	46	16	24.93351	26106.03	-76181.43	1	80530.34	-71.08432	-5.216016E-010	0.0082497	6
	47	17	19.86229	32790.71	-91627.55	1	97318.2	-70.30926	-4.971163E-010	0.0082499	6
	48	17	15.83615	41058.61	-107847.1	1	115398.4	-69.1576	-1.952708E-009	0.0082536	5
	49	17	12.40079	52666.16	-131491.9	1	141646.9	-68.17252	1.245037E-009	0.0082538	5
	50	18	9.93114	66893.92	-155101.1	1	168911.6	-66.66983	4.00175E-011	0.0082484	5
	51	18	7.944915	83973.21	-181592.3	1	200068.1	-65.18289	-7.140727E-010	0.0082584	5
	52	19	6.317385	104700.3	-211697.1	1	236173.2	-63.6841	-7.058248E-010	0.0082701	5
	53	20	5.008013	130519.1	-245230.4	1	277800.6	-61.97673	-2.876459E-010	0.0082559	5
	54	21	3.945707	162678.5	-282196.8	1	325728.9	-60.03776	1.572395E-011	0.0082445	5
	55	22	3.158693	194959.4	-320844.6	1	375433.6	-58.71528	1.18194E-010	0.0082638	5
	56	24	2.504006	233681.4	-363873.6	1	432447.7	-57.29122	-1.318245E-010	0.0082575	5
	57	25	1.998082	273749.9	-410839.9	1	493688.6	-56.32378	-1.946419E-010	0.008224	5
	58	27	1.584686	318741.8	-463454.3	1	562482.2	-55.48166	-3.857489E-011	0.0082734	5
	59	29	1.266892	366473.3	-524242.8	1	639635.3	-55.04442	2.912074E-011	0.0082867	5
	60	31	0.999041	419576.2	-600248.4	1	732353.9	-55.04628	4.906312E-011	0.0082845	5
