EXPLAIN
TAG	EISPOT
TITLE	LABEL	Potentiostatic IDE	Test &Identifier
DATE	LABEL	9/14/2019	Date
TIME	LABEL	13:45:44	Time
NOTES	NOTES	1	&Notes...
	
PSTAT	PSTAT	REF600-11020	Potentiostat
VDC	POTEN	0.00000E+000	T	DC &Voltage (V)
FREQINIT	QUANT	1.00000E+006	Initial Fre&q. (Hz)
FREQFINAL	QUANT	1.00000E+000	Final Fre&q. (Hz)
PTSPERDEC	QUANT	1.00000E+001	Points/&decade
VAC	QUANT	2.50000E+001	AC &Voltage (mV rms)
AREA	QUANT	1.00000E-002	&Area (cm^2)
CONDIT	TWOPARAM	T	5.00000E+000	0.00000E+000	Conditionin&g	Time(s)	E(V)
DELAY	TWOPARAM	T	5.00000E+000	0.00000E+000	Init. De&lay	Time(s)	Stab.(mV/s)
SPEED	SELECTOR	1	&Optimize for:
ZGUESS	QUANT	1.00000E+007	E&stimated Z (ohms)
OCVCURVE	TABLE	19
	Pt	T	Vf	Vm	Ach	Over
	#	s	V vs. Ref.	V	V	bits
	0	0.258333	-4.39319E-003	-4.39319E-003	5.46666E-004	...........
	1	0.516667	-4.41094E-003	-5.32210E-003	5.47333E-004	...........
	2	0.775	-4.51816E-003	-6.11098E-003	5.43933E-004	...........
	3	1.03333	-4.81686E-003	-6.93129E-003	5.45999E-004	...........
	4	1.29167	-5.34277E-003	-7.58686E-003	5.45433E-004	...........
	5	1.55	-6.03064E-003	-8.38015E-003	5.44366E-004	...........
	6	1.80833	-6.78363E-003	-9.02097E-003	5.42766E-004	...........
	7	2.06667	-7.53676E-003	-9.66763E-003	5.41566E-004	...........
	8	2.325	-8.26136E-003	-1.03018E-002	5.39333E-004	...........
	9	2.58333	-8.94983E-003	-1.09008E-002	5.38099E-004	...........
	10	2.84167	-9.60593E-003	-1.15031E-002	5.36933E-004	...........
	11	3.1	-1.02366E-002	-1.20682E-002	5.39499E-004	...........
	12	3.35833	-1.08467E-002	-1.26134E-002	5.38333E-004	...........
	13	3.61667	-1.14375E-002	-1.31594E-002	5.35866E-004	...........
	14	3.875	-1.20096E-002	-1.36761E-002	5.40633E-004	...........
	15	4.13333	-1.25641E-002	-1.41788E-002	5.43399E-004	...........
	16	4.39167	-1.31020E-002	-1.46671E-002	5.43699E-004	...........
	17	4.65	-1.36235E-002	-1.51418E-002	5.42233E-004	...........
	18	4.90833	-1.41288E-002	-1.56002E-002	5.40799E-004	...........
EOC	QUANT	-0.0141288	Open Circuit (V)
PSTATMODEL	IQUANT	4	Pstat Model
PSTATSECTION	LABEL	REF600-11020	Pstat Section
PSTATSERIALNO	LABEL	11020	Pstat Serial Number
CTRLMODE	IQUANT	1	Control Mode
IESTAB	IQUANT	0	I/E Stability
CASPEED	IQUANT	1	Control Amp Speed
CONVENTION	IQUANT	1	Current Convention
ICHRANGE	IQUANT	2	Ich Range
ICHRANGEMODE	TOGGLE	F	Ich Auto Range
ICHOFFSETENABLE	TOGGLE	T	Ich Offset Enable
ICHOFFSET	QUANT	0	Ich Offset (V)
ICHFILTER	IQUANT	3	Ich Filter
VCHRANGE	IQUANT	2	Vch Range
VCHRANGEMODE	TOGGLE	F	Vch Auto Range
VCHOFFSETENABLE	TOGGLE	T	Vch Offset Enable
VCHOFFSET	QUANT	0	Vch Offset (V)
VCHFILTER	IQUANT	3	Vch Filter
ACHRANGE	IQUANT	2	Ach Range
ACHOFFSETENABLE	TOGGLE	F	Ach Offset Enable
ACHOFFSET	QUANT	0	Ach Offset (V)
ACHFILTER	IQUANT	3	Ach Filter
IERANGELOWERLIMIT	IQUANT	1	I/E Range Lower Limit
IERANGEMODE	TOGGLE	F	I/E AutoRange
IERANGE	IQUANT	3	I/E Range
POSFEEDENABLE	TOGGLE	F	Positive Feedback IR Comp
POSFEEDRESISTANCE	QUANT	0	Positive Feedback Resistance (ohm)
ACHSELECT	IQUANT	0	Ach Select
CABLEID	IQUANT	14	Cable ID
DCCALDATE	LABEL	8/19/2019	DC Calibration Date
ACCALDATE	LABEL	8/19/2019	AC Calibration Date
THERMOSELECT	IQUANT	1	Thermo Select
FRAMEWORKVERSION	QUANT	6.33	Framework Version
INSTRUMENTVERSION	LABEL	3.50	Instrument Version
ZCURVE	TABLE
	Pt	Time	Freq	Zreal	Zimag	Zsig	Zmod	Zphz	Idc	Vdc	IERange
	#	s	Hz	ohm	ohm	V	ohm	°	A	V	#
	0	3	1000078	2450.378	-1945.917	1	3129.048	-38.45412	-9.465175E-006	-0.0110272	8
	1	4	794390.6	2852.936	-1894.674	1	3424.768	-33.58868	1.051222E-006	-0.0119518	8
	2	6	630984.4	3237.458	-1761.513	1	3685.657	-28.55077	2.477995E-006	-0.0131138	8
	3	7	501234.4	3537.456	-1599.141	1	3882.119	-24.3258	-2.435431E-006	-0.0121856	8
	4	8	398109.4	3781.796	-1414.111	1	4037.535	-20.50207	-4.190688E-006	-0.0117733	8
	5	10	316265.6	3958.631	-1194.119	1	4134.813	-16.7859	8.94715E-007	-0.0126025	8
	6	11	251203.1	4103.682	-1046.548	1	4235.029	-14.30698	-1.899183E-006	-0.0123048	8
	7	12	199546.9	4229.209	-891.192	1	4322.086	-11.89945	1.788384E-008	-0.0127601	8
	8	14	158578.1	4290.29	-771.7026	1	4359.141	-10.19687	2.387752E-006	-0.0131364	8
	9	15	125953.1	4390.592	-623.9096	1	4434.7	-8.087667	-1.342326E-006	-0.0105772	7
	10	16	100078.1	4425.235	-554.8617	1	4459.885	-7.146781	-4.11389E-009	-0.0127361	7
	11	18	79453.13	4463.267	-508.9202	1	4492.188	-6.505009	2.56246E-008	-0.0127824	7
	12	19	63140.62	4500.418	-474.5114	1	4525.364	-6.018867	-5.983082E-008	-0.0126028	7
	13	20	50203.12	4534.908	-457.8692	1	4557.964	-5.765358	4.457562E-008	-0.0127413	7
	14	22	39890.62	4573.417	-454.898	1	4595.984	-5.680281	4.895744E-008	-0.0128364	7
	15	23	31640.63	4603.167	-462.2741	1	4626.321	-5.734714	1.167432E-007	-0.0128584	7
	16	24	25171.88	4638.01	-483.6875	1	4663.164	-5.953724	-9.187999E-009	-0.0126365	7
	17	26	20015.62	4675.422	-518.0371	1	4704.034	-6.322587	1.973627E-008	-0.012611	7
	18	27	15890.62	4716.542	-564.9922	1	4750.261	-6.830885	-4.019845E-008	-0.0126913	7
	19	28	12609.37	4760.125	-633.1371	1	4802.047	-7.576356	-2.625282E-008	-0.012711	7
	20	30	10078.13	4807.888	-714.1696	1	4860.641	-8.449005	-7.932098E-008	-0.0125848	7
	21	31	8015.625	4860.018	-816.9812	1	4928.208	-9.54235	-9.600535E-009	-0.0126355	7
	22	32	6328.125	4922.433	-949.0841	1	5013.094	-10.91316	-7.806611E-008	-0.0124599	7
	23	34	5015.625	4989.631	-1108.952	1	5111.378	-12.53039	8.442008E-008	-0.0128661	7
	24	35	3984.375	5066.488	-1304.678	1	5231.777	-14.44057	1.049791E-007	-0.0127911	7
	25	36	3170.956	5152.223	-1536.239	1	5376.377	-16.60301	-1.36193E-009	-0.012758	7
	26	38	2527.573	5251.592	-1817.259	1	5557.126	-19.08764	-5.744613E-008	-0.0126115	7
	27	39	1976.103	5373.187	-2189.03	1	5801.981	-22.16592	1.159103E-007	-0.0128727	7
	28	40	1577.524	5501.989	-2601.836	1	6086.167	-25.30901	5.048421E-008	-0.0128401	7
	29	42	1265.625	5645.199	-3095.015	1	6437.965	-28.73403	-5.829126E-008	-0.0126172	7
	30	43	998.264	5829.771	-3735.327	1	6923.792	-32.64903	1.063295E-007	-0.0127883	7
	31	44	796.875	6025.025	-4478.546	1	7507.216	-36.62431	4.863691E-008	-0.0127563	7
	32	46	627.7902	6264.563	-5439.566	1	8296.604	-40.96802	2.219217E-008	-0.0126181	7
	33	47	505.5147	6522.889	-6504.908	1	9212.052	-44.92092	4.863175E-008	-0.012754	7
	34	48	397.9953	6859.398	-7938.875	1	10491.76	-49.17212	1.07868E-009	-0.0127426	6
	35	50	315.5048	7242.076	-9657.58	1	12071.31	-53.13431	2.142236E-009	-0.0127431	6
	36	51	252.4038	7677.985	-11676.94	1	13975.06	-56.67373	1.840401E-009	-0.0127437	6
	37	52	198.6229	8247.601	-14341.38	1	16543.82	-60.09717	1.241301E-009	-0.0127411	6
	38	54	158.3615	8897.349	-17439.41	1	19577.94	-62.96994	6.778841E-010	-0.0127425	6
	39	55	125.558	9720.35	-21322.48	1	23433.6	-65.49303	1.36868E-009	-0.0127356	6
	40	56	100.4464	10717.4	-25871.75	1	28003.75	-67.49816	1.992741E-009	-0.0127412	6
	41	58	79.00281	12061.22	-31873.45	1	34079.17	-69.27288	9.077472E-010	-0.012745	6
	42	59	63.3446	13077.3	-38798.96	1	40943.56	-71.37346	6.504753E-010	-0.0127436	6
	43	60	49.86702	15897.7	-47538.29	1	50126.1	-71.50909	1.645209E-009	-0.0127439	6
	44	62	39.72458	18150.6	-58356.32	1	61113.86	-72.7227	1.792101E-009	-0.0127411	6
	45	63	31.6723	21584.49	-70905.68	1	74118.19	-73.06916	7.915962E-010	-0.01275	6
	46	65	24.93351	26312.22	-87452.6	1	91325.19	-73.25482	1.427177E-009	-0.0127441	6
	47	66	19.86229	32426.77	-106396.9	1	111228.5	-73.05025	9.155256E-010	-0.0127383	5
	48	67	15.83615	40267.98	-128095.4	1	134275.6	-72.54897	7.910251E-010	-0.0127451	5
	49	69	12.40079	52146.91	-158343.3	1	166709	-71.77183	8.863917E-011	-0.0127421	5
	50	70	9.93114	65418.3	-189135.6	1	200129.6	-70.9205	5.785146E-010	-0.0127454	5
	51	72	7.944915	83133.91	-224089.8	1	239013.6	-69.64591	1.250218E-009	-0.0127435	5
	52	73	6.317385	106422.3	-267871.3	1	288237.3	-68.33263	6.71649E-010	-0.0127359	5
	53	75	5.008013	136366.1	-317073.1	1	345153.7	-66.72853	8.309797E-010	-0.0127379	5
	54	78	3.945707	175514.7	-373910.8	1	413055.3	-64.85451	3.448117E-010	-0.012751	5
	55	81	3.158693	219436.1	-431807.3	1	484365.2	-63.0612	6.556541E-010	-0.0127248	5
	56	84	2.504006	274822.7	-499146.3	1	569802.2	-61.16346	1.518709E-010	-0.012745	5
	57	87	1.998082	337051.1	-567145.2	1	659740.2	-59.27723	3.785426E-010	-0.0127852	5
	58	90	1.584686	408265	-642767.1	1	761465.6	-57.5776	2.755819E-010	-0.0127493	5
	59	93	1.266892	486974.1	-720123.6	1	869322.6	-55.93199	4.427293E-010	-0.0127897	5
	60	97	0.999041	575887.9	-811976.3	1	995466	-54.65413	2.5544E-010	-0.0127196	5
