EXPLAIN
TAG	EISPOT
TITLE	LABEL	Potentiostatic IDE	Test &Identifier
DATE	LABEL	9/16/2019	Date
TIME	LABEL	10:01:38	Time
NOTES	NOTES	1	&Notes...
	
PSTAT	PSTAT	REF600-11020	Potentiostat
VDC	POTEN	0.00000E+000	T	DC &Voltage (V)
FREQINIT	QUANT	1.00000E+006	Initial Fre&q. (Hz)
FREQFINAL	QUANT	1.00000E+000	Final Fre&q. (Hz)
PTSPERDEC	QUANT	1.00000E+001	Points/&decade
VAC	QUANT	2.50000E+001	AC &Voltage (mV rms)
AREA	QUANT	1.00000E-002	&Area (cm^2)
CONDIT	TWOPARAM	T	5.00000E+000	0.00000E+000	Conditionin&g	Time(s)	E(V)
DELAY	TWOPARAM	T	5.00000E+000	0.00000E+000	Init. De&lay	Time(s)	Stab.(mV/s)
SPEED	SELECTOR	1	&Optimize for:
ZGUESS	QUANT	1.00000E+007	E&stimated Z (ohms)
OCVCURVE	TABLE	19
	Pt	T	Vf	Vm	Ach	Over
	#	s	V vs. Ref.	V	V	bits
	0	0.258333	4.72642E-003	4.72642E-003	5.51899E-004	...........
	1	0.516667	4.72257E-003	4.52480E-003	5.54899E-004	...........
	2	0.775	4.69942E-003	4.36007E-003	5.49466E-004	...........
	3	1.03333	4.63595E-003	4.21954E-003	5.56766E-004	...........
	4	1.29167	4.52732E-003	4.09613E-003	5.53199E-004	...........
	5	1.55	4.39095E-003	3.97595E-003	5.49733E-004	...........
	6	1.80833	4.24904E-003	3.85366E-003	5.52799E-004	...........
	7	2.06667	4.11409E-003	3.76357E-003	5.52532E-004	...........
	8	2.325	3.99006E-003	3.67982E-003	5.49933E-004	...........
	9	2.58333	3.87764E-003	3.56603E-003	5.56199E-004	...........
	10	2.84167	3.77469E-003	3.48119E-003	5.53032E-004	...........
	11	3.1	3.67738E-003	3.41192E-003	5.51766E-004	...........
	12	3.35833	3.58470E-003	3.33792E-003	5.44099E-004	...........
	13	3.61667	3.49836E-003	3.26673E-003	5.46666E-004	...........
	14	3.875	3.41895E-003	3.20418E-003	5.51999E-004	...........
	15	4.13333	3.34520E-003	3.13762E-003	5.50399E-004	...........
	16	4.39167	3.27576E-003	3.08550E-003	5.57566E-004	...........
	17	4.65	3.21006E-003	3.02462E-003	5.56099E-004	...........
	18	4.90833	3.14769E-003	2.96396E-003	5.54199E-004	...........
EOC	QUANT	0.0031477	Open Circuit (V)
PSTATMODEL	IQUANT	4	Pstat Model
PSTATSECTION	LABEL	REF600-11020	Pstat Section
PSTATSERIALNO	LABEL	11020	Pstat Serial Number
CTRLMODE	IQUANT	1	Control Mode
IESTAB	IQUANT	0	I/E Stability
CASPEED	IQUANT	1	Control Amp Speed
CONVENTION	IQUANT	1	Current Convention
ICHRANGE	IQUANT	2	Ich Range
ICHRANGEMODE	TOGGLE	F	Ich Auto Range
ICHOFFSETENABLE	TOGGLE	T	Ich Offset Enable
ICHOFFSET	QUANT	0	Ich Offset (V)
ICHFILTER	IQUANT	3	Ich Filter
VCHRANGE	IQUANT	2	Vch Range
VCHRANGEMODE	TOGGLE	F	Vch Auto Range
VCHOFFSETENABLE	TOGGLE	T	Vch Offset Enable
VCHOFFSET	QUANT	0	Vch Offset (V)
VCHFILTER	IQUANT	3	Vch Filter
ACHRANGE	IQUANT	2	Ach Range
ACHOFFSETENABLE	TOGGLE	F	Ach Offset Enable
ACHOFFSET	QUANT	0	Ach Offset (V)
ACHFILTER	IQUANT	3	Ach Filter
IERANGELOWERLIMIT	IQUANT	1	I/E Range Lower Limit
IERANGEMODE	TOGGLE	F	I/E AutoRange
IERANGE	IQUANT	2	I/E Range
POSFEEDENABLE	TOGGLE	F	Positive Feedback IR Comp
POSFEEDRESISTANCE	QUANT	0	Positive Feedback Resistance (ohm)
ACHSELECT	IQUANT	0	Ach Select
CABLEID	IQUANT	14	Cable ID
DCCALDATE	LABEL	8/19/2019	DC Calibration Date
ACCALDATE	LABEL	8/19/2019	AC Calibration Date
THERMOSELECT	IQUANT	1	Thermo Select
FRAMEWORKVERSION	QUANT	6.33	Framework Version
INSTRUMENTVERSION	LABEL	3.50	Instrument Version
ZCURVE	TABLE
	Pt	Time	Freq	Zreal	Zimag	Zsig	Zmod	Zphz	Idc	Vdc	IERange
	#	s	Hz	ohm	ohm	V	ohm	°	A	V	#
	0	2	1000078	2549.829	-1937.492	1	3202.421	-37.22946	-2.795382E-006	0.0059739	8
	1	4	794390.6	2956.019	-1904.763	1	3516.557	-32.79643	1.337835E-006	0.0055754	8
	2	5	630984.4	3324.346	-1784.255	1	3772.909	-28.22351	2.74403E-007	0.0049143	8
	3	7	501234.4	3631.915	-1634.929	1	3982.938	-24.23518	-4.600421E-006	0.0059913	8
	4	8	398109.4	3918.878	-1429.022	1	4171.296	-20.03442	-3.800441E-006	0.0058751	8
	5	9	316265.6	4094.767	-1273.858	1	4288.336	-17.28061	-8.138771E-007	0.0052537	8
	6	11	251203.1	4249.134	-1107.988	1	4391.216	-14.6148	1.302079E-006	0.0045404	8
	7	13	199546.9	4360.892	-953.892	1	4463.999	-12.33842	4.33737E-007	0.0047293	8
	8	14	158578.1	4457.285	-825.1195	1	4533.014	-10.4877	-1.659932E-007	0.0048075	8
	9	16	125953.1	4536.138	-670.2344	1	4585.385	-8.404893	-3.904081E-007	0.0053967	7
	10	17	100078.1	4584.318	-591.3104	1	4622.296	-7.349742	-4.171586E-008	0.0049195	7
	11	18	79453.13	4628.666	-544.5143	1	4660.583	-6.709414	8.08102E-008	0.0047233	7
	12	20	63140.62	4669.79	-511.4343	1	4697.712	-6.250111	8.711576E-008	0.004813	7
	13	21	50203.12	4711.408	-493.8066	1	4737.215	-5.983373	-4.315511E-008	0.0048729	7
	14	22	39890.62	4744.897	-494.6457	1	4770.611	-5.951468	-5.41363E-008	0.0050254	7
	15	24	31640.63	4789.889	-497.314	1	4815.637	-5.927541	-4.423494E-008	0.0048791	7
	16	25	25171.88	4831.912	-521.2768	1	4859.949	-6.157375	8.819715E-008	0.0048086	7
	17	26	20015.62	4875.931	-553.1734	1	4907.209	-6.47252	9.125383E-008	0.0048089	7
	18	28	15890.62	4922.491	-602.8976	1	4959.274	-6.982705	-1.797823E-008	0.0050055	7
	19	29	12609.37	4969.88	-665.2719	1	5014.209	-7.624333	2.304922E-008	0.0047489	7
	20	30	10078.13	5023.547	-744.1653	1	5078.367	-8.426256	-3.981247E-008	0.0049031	7
	21	32	8015.625	5081.89	-842.59	1	5151.269	-9.41414	4.449747E-008	0.004804	7
	22	33	6328.125	5146.65	-971.849	1	5237.604	-10.69333	-4.276913E-008	0.0048586	7
	23	34	5015.625	5215.77	-1126.307	1	5335.993	-12.18549	4.501786E-008	0.0048027	7
	24	36	3984.375	5294.901	-1315.775	1	5455.936	-13.95525	9.963309E-008	0.0046411	7
	25	37	3170.956	5380.134	-1545.179	1	5597.626	-16.02411	-7.045486E-009	0.0048805	7
	26	38	2527.573	5477.026	-1823.825	1	5772.708	-18.41753	-4.041098E-008	0.004865	7
	27	40	1976.103	5598.762	-2194.644	1	6013.535	-21.40455	1.521168E-007	0.0046192	7
	28	41	1577.524	5726.417	-2609.343	1	6292.895	-24.49722	-7.1235E-009	0.0047905	7
	29	42	1265.625	5888.86	-3084.096	1	6647.58	-27.64182	2.493242E-008	0.0047535	7
	30	44	998.264	6059.507	-3740.083	1	7120.803	-31.68394	-1.477052E-008	0.0049021	7
	31	45	796.875	6261.163	-4482.949	1	7700.584	-35.6024	8.221322E-008	0.0047047	7
	32	46	627.7902	6511.918	-5435.895	1	8482.572	-39.85381	4.713724E-008	0.0048026	7
	33	48	505.5147	6772.619	-6488.784	1	9379.375	-43.77388	-5.676885E-008	0.0049591	7
	34	49	397.9953	7111.63	-7908.701	1	10635.92	-48.03761	7.597141E-010	0.004808	6
	35	50	315.5048	7490.438	-9609.89	1	12184.28	-52.06534	1.498248E-009	0.0048047	6
	36	52	252.4038	7921.754	-11613.62	1	14058.1	-55.70174	3.320074E-010	0.0048038	6
	37	53	198.6229	8481.742	-14268.36	1	16598.98	-59.27089	1.165696E-009	0.0048098	6
	38	54	158.3615	9124.265	-17362.54	1	19614.03	-62.27743	2.329593E-010	0.0048108	6
	39	56	125.558	9954.2	-21266.08	1	23480.47	-64.9167	1.327009E-009	0.0048077	6
	40	57	100.4464	10946.75	-25836.1	1	28059.5	-67.03764	3.892101E-011	0.0048067	6
	41	58	79.00281	12359.8	-31987.6	1	34292.44	-68.8738	4.319056E-010	0.0048065	6
	42	60	63.3446	14128.41	-38246.48	1	40772.61	-69.72556	1.386194E-009	0.0048053	6
	43	61	49.86702	16499.49	-48031.68	1	50786.57	-71.04175	1.818669E-009	0.004804	6
	44	62	39.72458	19405.33	-57918.85	1	61083.22	-71.47691	1.015052E-009	0.0048074	6
	45	64	31.6723	23099.15	-70632.84	1	74313.98	-71.89063	1.685785E-009	0.0048026	6
	46	65	24.93351	28233.02	-86106.24	1	90616.71	-71.84641	8.208169E-010	0.0048004	6
	47	66	19.86229	34711.9	-103832.6	1	109481.1	-71.51488	6.974316E-010	0.004813	5
	48	68	15.83615	42011.53	-124364.2	1	131268.5	-71.3345	-1.015086E-010	0.0048123	5
	49	69	12.40079	54461.1	-150820.3	1	160352.1	-70.14539	-1.812933E-010	0.0048183	5
	50	71	9.93114	68496.65	-181526.6	1	194019.8	-69.32667	5.097878E-010	0.0048143	5
	51	72	7.944915	87223.97	-214721.3	1	231761.3	-67.89206	3.769989E-010	0.004806	5
	52	74	6.317385	108662.8	-254855.1	1	277053.7	-66.908	5.597918E-010	0.0047986	5
	53	76	5.008013	137983.6	-301177.2	1	331281.1	-65.38523	4.315725E-010	0.0048137	5
	54	78	3.945707	175469	-352975.6	1	394184.2	-63.5674	4.011688E-010	0.0048169	5
	55	81	3.158693	217756.9	-406994.2	1	461586.8	-61.85158	5.725382E-011	0.0048023	5
	56	84	2.504006	268856.7	-466705.5	1	538607.4	-60.05489	4.743165E-010	0.0048188	5
	57	87	1.998082	327251.1	-530471.1	1	623292	-58.32929	5.337976E-010	0.0048227	5
	58	90	1.584686	395733	-598818.8	1	717766.4	-56.54104	2.847231E-010	0.0047677	5
	59	94	1.266892	468568.4	-672729.3	1	819829.9	-55.14207	4.116936E-010	0.0048361	5
	60	98	0.999041	553786.9	-758364.8	1	939040.6	-53.86166	-1.126122E-010	0.0047715	5
