EXPLAIN
TAG	EISPOT
TITLE	LABEL	Potentiostatic EIS	Test &Identifier
DATE	LABEL	10/14/2019	Date
TIME	LABEL	10:11:54	Time
NOTES	NOTES	1	&Notes...
	
PSTAT	PSTAT	REF600-11020	Potentiostat
VDC	POTEN	0.00000E+000	T	DC &Voltage (V)
FREQINIT	QUANT	1.00000E+006	Initial Fre&q. (Hz)
FREQFINAL	QUANT	1.00000E+000	Final Fre&q. (Hz)
PTSPERDEC	QUANT	1.00000E+001	Points/&decade
VAC	QUANT	2.50000E+001	AC &Voltage (mV rms)
AREA	QUANT	1.00000E-002	&Area (cm^2)
CONDIT	TWOPARAM	T	5.00000E+000	0.00000E+000	Conditionin&g	Time(s)	E(V)
DELAY	TWOPARAM	T	5.00000E+000	0.00000E+000	Init. De&lay	Time(s)	Stab.(mV/s)
SPEED	SELECTOR	1	&Optimize for:
ZGUESS	QUANT	1.00000E+004	E&stimated Z (ohms)
OCVCURVE	TABLE	19
	Pt	T	Vf	Vm	Ach	Over
	#	s	V vs. Ref.	V	V	bits
	0	0.258333	6.21403E-003	6.21403E-003	5.48533E-004	...........
	1	0.516667	6.21098E-003	6.05448E-003	5.44033E-004	...........
	2	0.775	6.19281E-003	5.93162E-003	5.51433E-004	...........
	3	1.03333	6.14342E-003	5.82549E-003	5.52466E-004	...........
	4	1.29167	6.06008E-003	5.75257E-003	5.49633E-004	...........
	5	1.55	5.95819E-003	5.67627E-003	5.54499E-004	...........
	6	1.80833	5.85750E-003	5.64262E-003	5.57032E-004	...........
	7	2.06667	5.77068E-003	5.60497E-003	5.54366E-004	...........
	8	2.325	5.70150E-003	5.53948E-003	5.52866E-004	...........
	9	2.58333	5.64587E-003	5.49174E-003	5.50699E-004	...........
	10	2.84167	5.59610E-003	5.45095E-003	5.49366E-004	...........
	11	3.1	5.54796E-003	5.42655E-003	5.50666E-004	...........
	12	3.35833	5.50311E-003	5.41591E-003	5.53233E-004	...........
	13	3.61667	5.46653E-003	5.45219E-003	5.53766E-004	...........
	14	3.875	5.44323E-003	5.42859E-003	5.55666E-004	...........
	15	4.13333	5.43321E-003	5.41088E-003	5.54099E-004	...........
	16	4.39167	5.42916E-003	5.39415E-003	5.51033E-004	...........
	17	4.65	5.42288E-003	5.38011E-003	5.54133E-004	...........
	18	4.90833	5.41155E-003	5.35820E-003	5.50499E-004	...........
EOC	QUANT	0.0054115	Open Circuit (V)
PSTATMODEL	IQUANT	4	Pstat Model
PSTATSECTION	LABEL	REF600-11020	Pstat Section
PSTATSERIALNO	LABEL	11020	Pstat Serial Number
CTRLMODE	IQUANT	1	Control Mode
IESTAB	IQUANT	0	I/E Stability
CASPEED	IQUANT	1	Control Amp Speed
CONVENTION	IQUANT	1	Current Convention
ICHRANGE	IQUANT	2	Ich Range
ICHRANGEMODE	TOGGLE	F	Ich Auto Range
ICHOFFSETENABLE	TOGGLE	T	Ich Offset Enable
ICHOFFSET	QUANT	0	Ich Offset (V)
ICHFILTER	IQUANT	3	Ich Filter
VCHRANGE	IQUANT	2	Vch Range
VCHRANGEMODE	TOGGLE	F	Vch Auto Range
VCHOFFSETENABLE	TOGGLE	T	Vch Offset Enable
VCHOFFSET	QUANT	0	Vch Offset (V)
VCHFILTER	IQUANT	3	Vch Filter
ACHRANGE	IQUANT	2	Ach Range
ACHOFFSETENABLE	TOGGLE	F	Ach Offset Enable
ACHOFFSET	QUANT	0	Ach Offset (V)
ACHFILTER	IQUANT	3	Ach Filter
IERANGELOWERLIMIT	IQUANT	1	I/E Range Lower Limit
IERANGEMODE	TOGGLE	F	I/E AutoRange
IERANGE	IQUANT	6	I/E Range
POSFEEDENABLE	TOGGLE	F	Positive Feedback IR Comp
POSFEEDRESISTANCE	QUANT	0	Positive Feedback Resistance (ohm)
ACHSELECT	IQUANT	0	Ach Select
CABLEID	IQUANT	14	Cable ID
DCCALDATE	LABEL	8/19/2019	DC Calibration Date
ACCALDATE	LABEL	8/19/2019	AC Calibration Date
THERMOSELECT	IQUANT	1	Thermo Select
FRAMEWORKVERSION	QUANT	6.33	Framework Version
INSTRUMENTVERSION	LABEL	3.50	Instrument Version
ZCURVE	TABLE
	Pt	Time	Freq	Zreal	Zimag	Zsig	Zmod	Zphz	Idc	Vdc	IERange
	#	s	Hz	ohm	ohm	V	ohm	°	A	V	#
	0	2	1000078	2494.339	-1574.417	1	2949.664	-32.25996	-3.156376E-006	0.0089268	8
	1	4	794390.6	2780.68	-1461.76	1	3141.484	-27.7302	4.502479E-006	0.0066978	8
	2	5	630984.4	3036.874	-1323.868	1	3312.888	-23.5539	-2.617607E-006	0.0075702	8
	3	6	501234.4	3239.839	-1167.337	1	3443.723	-19.81446	-2.566595E-006	0.0077649	8
	4	8	398109.4	3393.213	-1004.715	1	3538.834	-16.49378	1.684679E-006	0.0067543	8
	5	9	316265.6	3510.645	-874.2587	1	3617.866	-13.98397	1.462176E-006	0.0067537	8
	6	10	251203.1	3591.371	-745.9194	1	3668.016	-11.73338	-3.77316E-007	0.0071008	8
	7	12	199546.9	3673.722	-655.7125	1	3731.781	-10.12	-2.646253E-006	0.0076115	8
	8	13	158578.1	3721.236	-584.1393	1	3766.804	-8.921179	5.258333E-007	0.0071335	8
	9	15	125953.1	3779.171	-479.1879	1	3809.43	-7.226376	-1.256837E-006	0.0096204	7
	10	16	100078.1	3806.279	-432.9	1	3830.817	-6.488548	-4.099389E-008	0.0071082	7
	11	17	79453.13	3837.557	-412.7659	1	3859.692	-6.139106	-6.463461E-008	0.0071576	7
	12	19	63140.62	3871.883	-404.3079	1	3892.935	-5.961308	-4.871753E-009	0.0070898	7
	13	20	50203.12	3905.99	-406.1241	1	3927.047	-5.935982	6.907738E-008	0.0069318	7
	14	21	39890.62	3941.452	-414.2012	1	3963.156	-5.999107	-2.852754E-009	0.0071599	7
	15	23	31640.63	3980.47	-437.9284	1	4004.488	-6.278389	-3.377726E-008	0.0071201	7
	16	24	25171.88	4020.278	-467.5239	1	4047.371	-6.633214	-3.546656E-008	0.0071093	7
	17	25	20015.62	4064.368	-508.8993	1	4096.104	-7.13686	1.187263E-007	0.0068767	7
	18	27	15890.62	4113.763	-560.374	1	4151.754	-7.757049	-3.988437E-008	0.0071242	7
	19	28	12609.37	4167.712	-622.5795	1	4213.957	-8.49611	-2.518079E-008	0.0071103	7
	20	30	10078.13	4224.663	-696.6628	1	4281.719	-9.364017	-2.942978E-008	0.0070571	7
	21	31	8015.625	4290.545	-790.5541	1	4362.769	-10.43993	-2.488231E-008	0.007033	7
	22	32	6328.125	4359.194	-899.1902	1	4450.968	-11.65518	-3.342567E-008	0.0070453	7
	23	34	5015.625	4434.143	-1034.832	1	4553.295	-13.13645	7.73262E-011	0.0069857	7
	24	35	3984.375	4514.277	-1198.013	1	4670.539	-14.86274	-4.131421E-008	0.0070746	7
	25	36	3170.956	4601.483	-1388.885	1	4806.521	-16.79562	-9.889623E-009	0.0070614	7
	26	38	2527.573	4696.328	-1622.311	1	4968.64	-19.05708	-2.818743E-008	0.0070437	7
	27	39	1976.103	4808.958	-1934.615	1	5183.513	-21.91462	1.204734E-007	0.006867	7
	28	40	1577.524	4962.867	-2279.954	1	5461.523	-24.67417	3.68511E-008	0.0069986	7
	29	42	1265.625	5055.157	-2700.795	1	5731.396	-28.11405	-3.895085E-009	0.0071491	7
	30	43	998.264	5213.482	-3243.81	1	6140.252	-31.88973	-4.220793E-008	0.0070748	7
	31	45	796.875	5383.822	-3875.139	1	6633.418	-35.74538	-2.960283E-008	0.0070473	7
	32	46	627.7902	5582.351	-4698.334	1	7296.368	-40.08533	-9.671548E-009	0.00706	7
	33	47	505.5147	5799.029	-5612.719	1	8070.4	-44.06466	-9.048756E-009	0.0070581	7
	34	49	397.9953	6069.701	-6843.92	1	9147.705	-48.43099	4.44577E-009	0.0070513	7
	35	50	315.5048	6375.25	-8329.309	1	10489.1	-52.56957	1.12052E-009	0.0069912	6
	36	51	252.4038	6720.236	-10089.66	1	12122.82	-56.33432	1.393618E-009	0.0069884	6
	37	53	198.6229	7168.213	-12428.06	1	14347.12	-60.02466	8.480948E-010	0.006985	6
	38	54	158.3615	7697.393	-15163.71	1	17005.53	-63.08676	1.169469E-009	0.0069871	6
	39	56	125.558	8372.288	-18619.66	1	20415.36	-65.78904	1.177342E-009	0.0069869	6
	40	57	100.4464	9227.047	-22707.63	1	24510.71	-67.88606	1.561501E-010	0.0069832	6
	41	58	79.00281	10323.12	-28098.51	1	29934.81	-69.82716	7.642368E-010	0.0069848	6
	42	60	63.3446	11470.12	-34184.09	1	36057.12	-71.45135	-1.86507E-010	0.0069823	6
	43	61	49.86702	13985.48	-42051.85	1	44316.5	-71.60406	1.114208E-010	0.006981	6
	44	63	39.72458	16359.85	-51369.26	1	53911.46	-72.33459	1.035952E-009	0.0069941	6
	45	64	31.6723	19536.57	-62625.41	1	65601.98	-72.67421	1.149108E-009	0.0069853	6
	46	65	24.93351	24183.07	-76555.8	1	80284.56	-72.46929	7.122735E-010	0.0069838	6
	47	67	19.86229	29943.29	-92695.47	1	97411.8	-72.09805	3.537753E-010	0.0069817	6
	48	68	15.83615	36940.51	-111108.1	1	117088.1	-71.60941	7.20805E-012	0.0069838	5
	49	69	12.40079	47745.69	-135979.5	1	144118.3	-70.6526	1.343192E-009	0.0069801	5
	50	71	9.93114	58754.52	-161077.7	1	171458.8	-69.96011	-1.212244E-010	0.0069846	5
	51	72	7.944915	73208.22	-190934.7	1	204488.4	-69.02217	3.710399E-010	0.0069838	5
	52	74	6.317385	92003.79	-226480.4	1	244454.6	-67.8914	2.914284E-010	0.0069998	5
	53	76	5.008013	115131.2	-267907.4	1	291598.3	-66.74474	2.259691E-010	0.0069836	5
	54	79	3.945707	143698.8	-316504.5	1	347598.1	-65.58109	4.743758E-010	0.0069894	5
	55	81	3.158693	176632.2	-369536.9	1	409580.9	-64.45301	8.380076E-011	0.006982	5
	56	85	2.504006	216708.5	-429729.3	1	481279.4	-63.23862	4.546358E-010	0.0069875	5
	57	87	1.998082	262843.1	-497176.7	1	562379.9	-62.13587	1.898471E-010	0.007022	5
	58	91	1.584686	317104.8	-574567.8	1	656264.9	-61.10563	2.502533E-010	0.0069636	5
	59	94	1.266892	380517.5	-659657.1	1	761538.6	-60.02187	1.191096E-010	0.0070215	5
	60	99	0.999041	455849	-763514.9	1	889243.1	-59.16111	-4.768709E-011	0.0069427	5
