EXPLAIN
TAG	EISPOT
TITLE	LABEL	Potentiostatic EIS	Test &Identifier
DATE	LABEL	10/28/2019	Date
TIME	LABEL	10:17:23	Time
NOTES	NOTES	1	&Notes...
	
PSTAT	PSTAT	REF600-11020	Potentiostat
VDC	POTEN	0.00000E+000	T	DC &Voltage (V)
FREQINIT	QUANT	1.00000E+006	Initial Fre&q. (Hz)
FREQFINAL	QUANT	1.00000E+000	Final Fre&q. (Hz)
PTSPERDEC	QUANT	1.00000E+001	Points/&decade
VAC	QUANT	2.50000E+001	AC &Voltage (mV rms)
AREA	QUANT	1.00000E-002	&Area (cm^2)
CONDIT	TWOPARAM	T	5.00000E+000	0.00000E+000	Conditionin&g	Time(s)	E(V)
DELAY	TWOPARAM	T	5.00000E+000	0.00000E+000	Init. De&lay	Time(s)	Stab.(mV/s)
SPEED	SELECTOR	1	&Optimize for:
ZGUESS	QUANT	1.00000E+005	E&stimated Z (ohms)
OCVCURVE	TABLE	19
	Pt	T	Vf	Vm	Ach	Over
	#	s	V vs. Ref.	V	V	bits
	0	0.258333	3.49533E-003	3.49533E-003	5.80765E-004	...........
	1	0.516667	3.48995E-003	3.21372E-003	5.82265E-004	...........
	2	0.775	3.45729E-003	2.96626E-003	5.81399E-004	...........
	3	1.03333	3.36658E-003	2.75265E-003	5.85232E-004	...........
	4	1.29167	3.20875E-003	2.55146E-003	5.84532E-004	...........
	5	1.55	3.00626E-003	2.35637E-003	5.84565E-004	...........
	6	1.80833	2.79033E-003	2.18813E-003	5.86765E-004	...........
	7	2.06667	2.58150E-003	2.03122E-003	5.81832E-004	...........
	8	2.325	2.38849E-003	1.89403E-003	5.87799E-004	...........
	9	2.58333	2.21328E-003	1.75699E-003	5.86132E-004	...........
	10	2.84167	2.05443E-003	1.63326E-003	5.81665E-004	...........
	11	3.1	1.90899E-003	1.51643E-003	5.83332E-004	...........
	12	3.35833	1.77460E-003	1.42558E-003	5.83532E-004	...........
	13	3.61667	1.65084E-003	1.32997E-003	5.86232E-004	...........
	14	3.875	1.53811E-003	1.24329E-003	5.82799E-004	...........
	15	4.13333	1.43559E-003	1.16001E-003	5.81365E-004	...........
	16	4.39167	1.34133E-003	1.09004E-003	5.77499E-004	...........
	17	4.65	1.25431E-003	1.03800E-003	5.80332E-004	...........
	18	4.90833	1.17468E-003	9.46299E-004	5.79199E-004	...........
EOC	QUANT	0.0011747	Open Circuit (V)
PSTATMODEL	IQUANT	4	Pstat Model
PSTATSECTION	LABEL	REF600-11020	Pstat Section
PSTATSERIALNO	LABEL	11020	Pstat Serial Number
CTRLMODE	IQUANT	1	Control Mode
IESTAB	IQUANT	0	I/E Stability
CASPEED	IQUANT	1	Control Amp Speed
CONVENTION	IQUANT	1	Current Convention
ICHRANGE	IQUANT	2	Ich Range
ICHRANGEMODE	TOGGLE	F	Ich Auto Range
ICHOFFSETENABLE	TOGGLE	T	Ich Offset Enable
ICHOFFSET	QUANT	0	Ich Offset (V)
ICHFILTER	IQUANT	3	Ich Filter
VCHRANGE	IQUANT	2	Vch Range
VCHRANGEMODE	TOGGLE	F	Vch Auto Range
VCHOFFSETENABLE	TOGGLE	T	Vch Offset Enable
VCHOFFSET	QUANT	0	Vch Offset (V)
VCHFILTER	IQUANT	3	Vch Filter
ACHRANGE	IQUANT	2	Ach Range
ACHOFFSETENABLE	TOGGLE	F	Ach Offset Enable
ACHOFFSET	QUANT	0	Ach Offset (V)
ACHFILTER	IQUANT	3	Ach Filter
IERANGELOWERLIMIT	IQUANT	1	I/E Range Lower Limit
IERANGEMODE	TOGGLE	F	I/E AutoRange
IERANGE	IQUANT	4	I/E Range
POSFEEDENABLE	TOGGLE	F	Positive Feedback IR Comp
POSFEEDRESISTANCE	QUANT	0	Positive Feedback Resistance (ohm)
ACHSELECT	IQUANT	0	Ach Select
CABLEID	IQUANT	14	Cable ID
DCCALDATE	LABEL	8/19/2019	DC Calibration Date
ACCALDATE	LABEL	8/19/2019	AC Calibration Date
THERMOSELECT	IQUANT	1	Thermo Select
FRAMEWORKVERSION	QUANT	6.33	Framework Version
INSTRUMENTVERSION	LABEL	3.50	Instrument Version
ZCURVE	TABLE
	Pt	Time	Freq	Zreal	Zimag	Zsig	Zmod	Zphz	Idc	Vdc	IERange
	#	s	Hz	ohm	ohm	V	ohm	°	A	V	#
	0	2	1000078	2459.569	-1916.756	1	3118.242	-37.9295	1.20527E-006	0.0031302	8
	1	3	794390.6	2812.728	-1944.581	1	3419.479	-34.65806	-2.427697E-006	0.0035885	8
	2	5	630984.4	3201.451	-1882.174	1	3713.741	-30.45181	-3.424207E-006	0.0035839	8
	3	6	501234.4	3519.48	-1834.506	1	3968.898	-27.53048	5.816958E-006	0.0019082	8
	4	8	398109.4	3836.095	-1715.585	1	4202.244	-24.09523	8.737951E-007	0.0027929	8
	5	9	316265.6	4104.051	-1570.075	1	4394.129	-20.93521	-3.015696E-007	0.0027771	8
	6	11	251203.1	4368.822	-1434.44	1	4598.285	-18.17685	2.077252E-006	0.0021796	8
	7	13	199546.9	4555.052	-1280.208	1	4731.536	-15.69814	1.225308E-006	0.0027589	8
	8	14	158578.1	4732.712	-1107.729	1	4860.62	-13.1734	1.885549E-006	0.0022293	8
	9	16	125953.1	4874.737	-923.8791	1	4961.514	-10.73164	-1.688196E-006	0.0061896	7
	10	17	100078.1	4968.921	-820.1058	1	5036.145	-9.372009	-1.071003E-008	0.0029378	7
	11	18	79453.13	5050.457	-749.2619	1	5105.732	-8.438581	8.594217E-008	0.0026353	7
	12	20	63140.62	5118.509	-689.7163	1	5164.769	-7.674349	-5.189849E-008	0.002805	7
	13	21	50203.12	5180.257	-652.6981	1	5221.214	-7.181268	8.614222E-008	0.0026343	7
	14	22	39890.62	5237.744	-628.4503	1	5275.311	-6.841922	-5.785398E-008	0.002963	7
	15	24	31640.63	5288.318	-619.2375	1	5324.449	-6.678657	-2.514173E-008	0.0027478	7
	16	25	25171.88	5337.108	-628.7258	1	5374.014	-6.718633	-6.187953E-008	0.0028954	7
	17	27	20015.62	5387.367	-645.1342	1	5425.856	-6.828621	-4.930125E-008	0.002795	7
	18	28	15890.62	5447.793	-690.446	1	5491.372	-7.223081	-1.254468E-008	0.0029266	7
	19	29	12609.37	5508.583	-751.221	1	5559.57	-7.765683	9.803994E-008	0.0025634	7
	20	31	10078.13	5564.618	-824.1691	1	5625.32	-8.424765	-2.512142E-008	0.0027408	7
	21	33	8015.625	5638.432	-923.9759	1	5713.637	-9.306406	1.707966E-008	0.0026767	7
	22	34	6328.125	5697.895	-1053.72	1	5794.508	-10.47742	-6.041451E-008	0.0028913	7
	23	35	5015.625	5770.565	-1215.29	1	5897.147	-11.89278	-1.432307E-008	0.0027147	7
	24	37	3984.375	5844.926	-1435.393	1	6018.598	-13.79761	-6.06919E-008	0.0028892	7
	25	38	3170.956	5936.244	-1655.512	1	6162.768	-15.58283	-4.399586E-008	0.0028044	7
	26	40	2527.573	6033.443	-1955.668	1	6342.482	-17.95947	8.507486E-008	0.0026201	7
	27	42	1976.103	6154.844	-2358.658	1	6591.31	-20.96782	-1.872117E-008	0.0028281	7
	28	43	1577.524	6339.24	-2871.235	1	6959.163	-24.36722	-4.373115E-008	0.0028072	7
	29	44	1265.625	6430.27	-3337.439	1	7244.782	-27.43022	-1.89365E-008	0.0028317	7
	30	46	998.264	6611.199	-4059.721	1	7758.176	-31.55272	1.606007E-008	0.0026705	7
	31	47	796.875	6823.229	-4884.929	1	8391.602	-35.59987	-5.647366E-008	0.0029564	7
	32	48	627.7902	7085.008	-5951.584	1	9253.037	-40.0311	-2.675148E-008	0.0027399	7
	33	50	505.5147	7382.766	-7126.696	1	10261.34	-43.98892	-1.072175E-008	0.00294	6
	34	51	397.9953	7765.487	-8715.223	1	11672.96	-48.29814	1.320223E-009	0.0027253	6
	35	52	315.5048	8216.095	-10612.35	1	13421.11	-52.25292	1.699847E-010	0.0027288	6
	36	54	252.4038	8750.352	-12845.79	1	15542.94	-55.73791	1.673389E-009	0.0027256	6
	37	55	198.6229	9466.237	-15790.82	1	18410.85	-59.05827	8.769908E-010	0.0027265	6
	38	57	158.3615	10344.81	-19209.13	1	21817.55	-61.69594	1.26344E-009	0.0027184	6
	39	58	125.558	11488.4	-23480.48	1	26140.32	-63.92867	4.308743E-010	0.0027251	6
	40	59	100.4464	12993.34	-28519.78	1	31340.14	-65.50644	8.92603E-010	0.0027238	6
	41	61	79.00281	15032.67	-34812.85	1	37919.86	-66.64465	1.383772E-010	0.002723	6
	42	62	63.3446	16909.46	-41974.27	1	45252.29	-68.05781	2.892455E-012	0.0027187	6
	43	63	49.86702	21897.37	-51108.16	1	55601.61	-66.80721	1.45339E-009	0.0027192	6
	44	65	39.72458	26076.36	-61800.49	1	67076.66	-67.12297	9.455103E-010	0.0027241	6
	45	66	31.6723	31862.5	-73527.57	1	80134.4	-66.57095	-1.242322E-010	0.0027194	6
	46	68	24.93351	40337.31	-87980.7	1	96786.9	-65.36954	-4.932407E-011	0.0027163	6
	47	69	19.86229	50297	-103312.5	1	114905.5	-64.04118	-5.46368E-010	0.0027185	5
	48	70	15.83615	63621.8	-120532.4	1	136293	-62.17311	6.568396E-010	0.0027255	5
	49	72	12.40079	77805.07	-139236.9	1	159501	-60.80371	9.80835E-010	0.0027257	5
	50	73	9.93114	95229.1	-159677	1	185917.5	-59.18874	3.952784E-010	0.0027303	5
	51	75	7.944915	114561	-181681.4	1	214784.4	-57.76611	-2.066587E-010	0.0027297	5
	52	77	6.317385	136622.1	-203085.6	1	244763.9	-56.07004	-2.264764E-010	0.0027386	5
	53	79	5.008013	160402.6	-229087.1	1	279660.3	-55.001	1.067481E-010	0.0027231	5
	54	81	3.945707	185788.6	-259107.3	1	318832.2	-54.35821	3.42317E-010	0.0027281	5
	55	84	3.158693	211247.6	-291640	1	360110.3	-54.08255	1.652429E-010	0.0027367	5
	56	87	2.504006	239408.8	-332395.2	1	409637.8	-54.23654	5.494161E-011	0.0027161	5
	57	90	1.998082	268738	-379496.1	1	465013.3	-54.696	-1.042547E-010	0.0027378	5
	58	93	1.584686	303849	-438308.8	1	533328.1	-55.26912	1.661526E-010	0.0027742	5
	59	97	1.266892	340339.2	-505532.3	1	609420.8	-56.0504	-4.968212E-011	0.002748	5
	60	101	0.999041	385925.9	-591643.3	1	706385.5	-56.8838	2.558311E-010	0.0027194	5
