EXPLAIN
TAG	EISPOT
TITLE	LABEL	Potentiostatic EIS	Test &Identifier
DATE	LABEL	9/24/2019	Date
TIME	LABEL	10:29:27	Time
NOTES	NOTES	1	&Notes...
	
PSTAT	PSTAT	REF600-11020	Potentiostat
VDC	POTEN	0.00000E+000	T	DC &Voltage (V)
FREQINIT	QUANT	1.00000E+006	Initial Fre&q. (Hz)
FREQFINAL	QUANT	1.00000E+000	Final Fre&q. (Hz)
PTSPERDEC	QUANT	1.00000E+001	Points/&decade
VAC	QUANT	2.50000E+001	AC &Voltage (mV rms)
AREA	QUANT	1.00000E-002	&Area (cm^2)
CONDIT	TWOPARAM	T	5.00000E+000	0.00000E+000	Conditionin&g	Time(s)	E(V)
DELAY	TWOPARAM	T	5.00000E+000	0.00000E+000	Init. De&lay	Time(s)	Stab.(mV/s)
SPEED	SELECTOR	1	&Optimize for:
ZGUESS	QUANT	1.00000E+004	E&stimated Z (ohms)
OCVCURVE	TABLE	19
	Pt	T	Vf	Vm	Ach	Over
	#	s	V vs. Ref.	V	V	bits
	0	0.258333	1.60561E-003	1.60561E-003	5.88799E-004	...........
	1	0.516667	1.59952E-003	1.28673E-003	5.90132E-004	...........
	2	0.775	1.56262E-003	1.01136E-003	5.89832E-004	...........
	3	1.03333	1.45991E-003	7.44447E-004	5.90365E-004	...........
	4	1.29167	1.27934E-003	4.94113E-004	5.90799E-004	...........
	5	1.55	1.04317E-003	2.47868E-004	5.90032E-004	...........
	6	1.80833	7.84872E-004	3.40177E-005	5.85099E-004	...........
	7	2.06667	5.29132E-004	-1.49236E-004	5.88199E-004	...........
	8	2.325	2.89174E-004	-3.45687E-004	5.88665E-004	...........
	9	2.58333	6.86605E-005	-5.45344E-004	5.88199E-004	...........
	10	2.84167	-1.36587E-004	-7.31808E-004	5.89932E-004	...........
	11	3.1	-3.33170E-004	-9.07600E-004	5.83732E-004	...........
	12	3.35833	-5.24266E-004	-1.07290E-003	5.84899E-004	...........
	13	3.61667	-7.09136E-004	-1.23339E-003	5.84132E-004	...........
	14	3.875	-8.86207E-004	-1.38753E-003	5.87799E-004	...........
	15	4.13333	-1.05459E-003	-1.50836E-003	5.89699E-004	...........
	16	4.39167	-1.21362E-003	-1.66810E-003	5.87465E-004	...........
	17	4.65	-1.36423E-003	-1.81297E-003	5.87432E-004	...........
	18	4.90833	-1.51020E-003	-1.95780E-003	5.86765E-004	...........
EOC	QUANT	-0.0015102	Open Circuit (V)
PSTATMODEL	IQUANT	4	Pstat Model
PSTATSECTION	LABEL	REF600-11020	Pstat Section
PSTATSERIALNO	LABEL	11020	Pstat Serial Number
CTRLMODE	IQUANT	1	Control Mode
IESTAB	IQUANT	0	I/E Stability
CASPEED	IQUANT	1	Control Amp Speed
CONVENTION	IQUANT	1	Current Convention
ICHRANGE	IQUANT	2	Ich Range
ICHRANGEMODE	TOGGLE	F	Ich Auto Range
ICHOFFSETENABLE	TOGGLE	T	Ich Offset Enable
ICHOFFSET	QUANT	0	Ich Offset (V)
ICHFILTER	IQUANT	3	Ich Filter
VCHRANGE	IQUANT	2	Vch Range
VCHRANGEMODE	TOGGLE	F	Vch Auto Range
VCHOFFSETENABLE	TOGGLE	T	Vch Offset Enable
VCHOFFSET	QUANT	0	Vch Offset (V)
VCHFILTER	IQUANT	3	Vch Filter
ACHRANGE	IQUANT	2	Ach Range
ACHOFFSETENABLE	TOGGLE	F	Ach Offset Enable
ACHOFFSET	QUANT	0	Ach Offset (V)
ACHFILTER	IQUANT	3	Ach Filter
IERANGELOWERLIMIT	IQUANT	1	I/E Range Lower Limit
IERANGEMODE	TOGGLE	F	I/E AutoRange
IERANGE	IQUANT	5	I/E Range
POSFEEDENABLE	TOGGLE	F	Positive Feedback IR Comp
POSFEEDRESISTANCE	QUANT	0	Positive Feedback Resistance (ohm)
ACHSELECT	IQUANT	0	Ach Select
CABLEID	IQUANT	14	Cable ID
DCCALDATE	LABEL	8/19/2019	DC Calibration Date
ACCALDATE	LABEL	8/19/2019	AC Calibration Date
THERMOSELECT	IQUANT	1	Thermo Select
FRAMEWORKVERSION	QUANT	6.33	Framework Version
INSTRUMENTVERSION	LABEL	3.50	Instrument Version
ZCURVE	TABLE
	Pt	Time	Freq	Zreal	Zimag	Zsig	Zmod	Zphz	Idc	Vdc	IERange
	#	s	Hz	ohm	ohm	V	ohm	°	A	V	#
	0	2	1000078	2031.495	-1861.892	1	2755.651	-42.50567	4.46046E-006	-3.019971E-005	8
	1	3	794390.6	2408.274	-1903.466	1	3069.685	-38.32235	-1.979157E-006	0.000593	8
	2	5	630984.4	2787.575	-1874.311	1	3359.109	-33.91612	3.485971E-006	-0.0003541	8
	3	6	501234.4	3137.293	-1785.4	1	3609.745	-29.64374	1.077521E-006	-0.0001482	8
	4	7	398109.4	3496.02	-1638.803	1	3861.066	-25.11542	-4.307422E-006	0.0010893	8
	5	9	316265.6	3763.616	-1477.802	1	4043.353	-21.4377	-3.817208E-006	0.0010228	8
	6	10	251203.1	3974.191	-1300.819	1	4181.665	-18.12413	-2.143052E-006	0.000382	8
	7	12	199546.9	4148.474	-1124.765	1	4298.248	-15.16976	-2.219327E-006	0.0003869	8
	8	14	158578.1	4288.542	-995.006	1	4402.457	-13.06237	-1.666122E-006	0.0003783	8
	9	15	125953.1	4412.226	-804.2339	1	4484.922	-10.33012	-4.424078E-007	0.0010365	7
	10	16	100078.1	4472.023	-692.9319	1	4525.389	-8.807835	-3.755903E-008	4.394223E-005	7
	11	18	79453.13	4528.672	-610.4517	1	4569.631	-7.677028	-4.099704E-008	5.8856E-005	7
	12	19	63140.62	4576.939	-546.3893	1	4609.437	-6.807682	1.37339E-008	-5.739999E-005	7
	13	20	50203.12	4616.438	-499.0836	1	4643.337	-6.170289	7.184807E-008	-0.0001174	7
	14	22	39890.62	4652.693	-464.737	1	4675.846	-5.704103	7.410305E-008	-0.000119	7
	15	23	31640.63	4684.857	-445.5318	1	4705.995	-5.432513	7.637996E-008	-3.731444E-005	7
	16	24	25171.88	4715.46	-440.9375	1	4736.031	-5.342131	-8.048771E-009	3.209081E-005	7
	17	26	20015.62	4747.305	-448.6824	1	4768.461	-5.399163	-1.028033E-008	5.02937E-005	7
	18	27	15890.62	4780.753	-468.3823	1	4803.643	-5.595552	-3.748872E-008	1.890351E-005	7
	19	28	12609.37	4813.16	-503.3931	1	4839.413	-5.970676	-1.221497E-008	0.0001383	7
	20	30	10078.13	4848.021	-549.8512	1	4879.102	-6.470703	-3.310606E-009	4.742664E-005	7
	21	31	8015.625	4883.394	-615.9831	1	4922.09	-7.189225	7.963975E-008	-3.469729E-005	7
	22	32	6328.125	4924.864	-705.3759	1	4975.123	-8.150896	-4.31801E-008	0.0001479	7
	23	34	5015.625	4968.108	-812.4611	1	5034.103	-9.287669	-4.379519E-009	-4.509539E-005	7
	24	35	3984.375	5016.799	-951.107	1	5106.161	-10.73498	8.092584E-008	-0.0001628	7
	25	37	3170.956	5071.94	-1123.099	1	5194.798	-12.48575	8.107901E-008	-0.0001675	7
	26	38	2527.573	5134.149	-1330.266	1	5303.687	-14.52599	-3.729493E-008	2.637212E-005	7
	27	39	1976.103	5212.497	-1607.135	1	5454.631	-17.13575	-1.974568E-008	-1.137731E-005	7
	28	41	1577.524	5298.419	-1922.819	1	5636.531	-19.94605	4.313006E-008	-0.0001331	7
	29	42	1265.625	5404.513	-2281.569	1	5866.372	-22.88753	-4.326607E-008	0.0001466	7
	30	43	998.264	5513.827	-2782.604	1	6176.178	-26.77822	-9.958748E-009	4.491696E-005	7
	31	45	796.875	5644.879	-3349.548	1	6563.85	-30.68397	3.990399E-008	-4.626734E-005	7
	32	46	627.7902	5808.596	-4088.556	1	7103.244	-35.14096	-4.339177E-008	0.0001476	7
	33	47	505.5147	5980.563	-4907.076	1	7736.054	-39.36902	-3.887375E-008	2.125496E-005	7
	34	49	397.9953	6204.502	-6024.396	1	8648.075	-44.15622	4.977621E-009	2.221025E-005	7
	35	50	315.5048	6466.896	-7364.206	1	9800.63	-48.71193	5.808064E-009	2.272666E-005	7
	36	51	252.4038	6775.836	-8948.291	1	11224.25	-52.86622	1.260394E-009	-3.819946E-005	6
	37	53	198.6229	7185.992	-11044.73	1	13176.67	-56.95092	1.586058E-009	-3.79357E-005	6
	38	54	158.3615	7676.651	-13494.75	1	15525.44	-60.36609	9.578384E-010	-3.832913E-005	6
	39	56	125.558	8316.046	-16567.98	1	18537.92	-63.34633	1.163114E-009	-3.805505E-005	6
	40	57	100.4464	9125.681	-20179.39	1	22146.92	-65.6662	4.707014E-010	-4.11751E-005	6
	41	58	79.00281	10177.15	-24938.86	1	26935.5	-67.80042	6.090124E-010	-4.303335E-005	6
	42	60	63.3446	11835.9	-30383.08	1	32607.06	-68.71632	1.371497E-009	-3.918192E-005	6
	43	61	49.86702	13214.34	-37355.14	1	39623.54	-70.51882	2.07527E-010	-4.14708E-005	6
	44	63	39.72458	15773.74	-45427.94	1	48088.55	-70.85169	1.172884E-009	-3.600215E-005	6
	45	64	31.6723	18930.72	-55271.41	1	58423.46	-71.09343	3.737864E-010	-4.138713E-005	6
	46	65	24.93351	23205.83	-67377.17	1	71261.45	-70.99543	1.345562E-009	-4.21193E-005	6
	47	67	19.86229	28588.23	-81301.77	1	86181.58	-70.62674	9.512718E-010	-4.477168E-005	6
	48	68	15.83615	35733.57	-96809.5	1	103193.9	-69.74029	3.22871E-010	-3.75646E-005	6
	49	69	12.40079	44928	-117662.3	1	125948.2	-69.10123	2.502369E-010	-3.527321E-005	5
	50	71	9.93114	56652.35	-140273.5	1	151281.7	-68.00767	1.409275E-009	-5.152945E-005	5
	51	72	7.944915	70804.93	-165380.2	1	179899.8	-66.82257	-1.379791E-010	-4.664795E-005	5
	52	74	6.317385	89247.17	-194899.3	1	214361.3	-65.39628	1.019703E-009	-5.197864E-005	5
	53	76	5.008013	112650.2	-228409.4	1	254678.1	-63.74776	6.458864E-010	-2.862391E-005	5
	54	79	3.945707	142230.4	-266362.3	1	301957.6	-61.89897	2.138372E-011	-4.779344E-005	5
	55	81	3.158693	174853.6	-304518.2	1	351148.3	-60.13566	6.329803E-010	-2.033785E-005	5
	56	85	2.504006	214970.2	-347887.1	1	408946.9	-58.28679	-1.413101E-010	-3.862016E-005	5
	57	87	1.998082	258926.2	-391853.1	1	469671.8	-56.54432	-4.39517E-011	-5.122886E-005	5
	58	90	1.584686	309866.1	-438862.7	1	537231.3	-54.77538	3.099622E-010	1.047344E-005	5
	59	94	1.266892	361094.9	-488608.9	1	607559.2	-53.53462	3.767012E-012	-2.0936E-005	5
	60	98	0.999041	417888.4	-547414.4	1	688689.5	-52.6424	5.617068E-010	-4.068908E-005	5
