EXPLAIN
TAG	EISPOT
TITLE	LABEL	Potentiostatic EIS	Test &Identifier
DATE	LABEL	10/4/2019	Date
TIME	LABEL	8:50:53	Time
NOTES	NOTES	2	&Notes...
	
	
PSTAT	PSTAT	REF600-11020	Potentiostat
VDC	POTEN	0.00000E+000	T	DC &Voltage (V)
FREQINIT	QUANT	1.00000E+006	Initial Fre&q. (Hz)
FREQFINAL	QUANT	1.00000E+000	Final Fre&q. (Hz)
PTSPERDEC	QUANT	1.00000E+001	Points/&decade
VAC	QUANT	2.50000E+001	AC &Voltage (mV rms)
AREA	QUANT	1.00000E-002	&Area (cm^2)
CONDIT	TWOPARAM	T	5.00000E+000	0.00000E+000	Conditionin&g	Time(s)	E(V)
DELAY	TWOPARAM	T	5.00000E+000	0.00000E+000	Init. De&lay	Time(s)	Stab.(mV/s)
SPEED	SELECTOR	1	&Optimize for:
ZGUESS	QUANT	1.00000E+004	E&stimated Z (ohms)
OCVCURVE	TABLE	19
	Pt	T	Vf	Vm	Ach	Over
	#	s	V vs. Ref.	V	V	bits
	0	0.258333	4.02302E-003	4.02302E-003	5.71832E-004	...........
	1	0.516667	4.02204E-003	3.97201E-003	5.74565E-004	...........
	2	0.775	4.01672E-003	3.95830E-003	5.69566E-004	...........
	3	1.03333	4.00146E-003	3.81902E-003	5.68066E-004	...........
	4	1.29167	3.96956E-003	3.77290E-003	5.70899E-004	...........
	5	1.55	3.91782E-003	3.70761E-003	5.69166E-004	...........
	6	1.80833	3.85247E-003	3.66943E-003	5.72199E-004	...........
	7	2.06667	3.78586E-003	3.63907E-003	5.73299E-004	...........
	8	2.325	3.72708E-003	3.58610E-003	5.69399E-004	...........
	9	2.58333	3.67822E-003	3.57831E-003	5.67432E-004	...........
	10	2.84167	3.63796E-003	3.56140E-003	5.73399E-004	...........
	11	3.1	3.60566E-003	3.53841E-003	5.70799E-004	...........
	12	3.35833	3.58055E-003	3.52622E-003	5.75066E-004	...........
	13	3.61667	3.56044E-003	3.51565E-003	5.66732E-004	...........
	14	3.875	3.54349E-003	3.50252E-003	5.71266E-004	...........
	15	4.13333	3.52886E-003	3.49017E-003	5.70366E-004	...........
	16	4.39167	3.51577E-003	3.47877E-003	5.69866E-004	...........
	17	4.65	3.50352E-003	3.47153E-003	5.70632E-004	...........
	18	4.90833	3.49201E-003	3.46193E-003	5.72666E-004	...........
EOC	QUANT	0.003492	Open Circuit (V)
PSTATMODEL	IQUANT	4	Pstat Model
PSTATSECTION	LABEL	REF600-11020	Pstat Section
PSTATSERIALNO	LABEL	11020	Pstat Serial Number
CTRLMODE	IQUANT	1	Control Mode
IESTAB	IQUANT	0	I/E Stability
CASPEED	IQUANT	1	Control Amp Speed
CONVENTION	IQUANT	1	Current Convention
ICHRANGE	IQUANT	2	Ich Range
ICHRANGEMODE	TOGGLE	F	Ich Auto Range
ICHOFFSETENABLE	TOGGLE	T	Ich Offset Enable
ICHOFFSET	QUANT	0	Ich Offset (V)
ICHFILTER	IQUANT	3	Ich Filter
VCHRANGE	IQUANT	2	Vch Range
VCHRANGEMODE	TOGGLE	F	Vch Auto Range
VCHOFFSETENABLE	TOGGLE	T	Vch Offset Enable
VCHOFFSET	QUANT	0	Vch Offset (V)
VCHFILTER	IQUANT	3	Vch Filter
ACHRANGE	IQUANT	2	Ach Range
ACHOFFSETENABLE	TOGGLE	F	Ach Offset Enable
ACHOFFSET	QUANT	0	Ach Offset (V)
ACHFILTER	IQUANT	3	Ach Filter
IERANGELOWERLIMIT	IQUANT	1	I/E Range Lower Limit
IERANGEMODE	TOGGLE	F	I/E AutoRange
IERANGE	IQUANT	5	I/E Range
POSFEEDENABLE	TOGGLE	F	Positive Feedback IR Comp
POSFEEDRESISTANCE	QUANT	0	Positive Feedback Resistance (ohm)
ACHSELECT	IQUANT	0	Ach Select
CABLEID	IQUANT	14	Cable ID
DCCALDATE	LABEL	8/19/2019	DC Calibration Date
ACCALDATE	LABEL	8/19/2019	AC Calibration Date
THERMOSELECT	IQUANT	1	Thermo Select
FRAMEWORKVERSION	QUANT	6.33	Framework Version
INSTRUMENTVERSION	LABEL	3.50	Instrument Version
ZCURVE	TABLE
	Pt	Time	Freq	Zreal	Zimag	Zsig	Zmod	Zphz	Idc	Vdc	IERange
	#	s	Hz	ohm	ohm	V	ohm	°	A	V	#
	0	1	1000078	2161.311	-1168.793	1	2457.1	-28.40363	-2.088864E-006	0.0053849	8
	1	3	794390.6	2365.724	-1086.057	1	2603.108	-24.65893	1.511138E-006	0.0051213	8
	2	4	630984.4	2549.649	-984.345	1	2733.065	-21.11011	-1.35344E-006	0.0051791	8
	3	5	501234.4	2686.403	-883.2737	1	2827.885	-18.20057	1.321848E-006	0.0050808	8
	4	7	398109.4	2814.376	-775.225	1	2919.193	-15.40032	4.251255E-006	0.0041459	8
	5	8	316265.6	2906.558	-680.911	1	2985.25	-13.18475	3.986403E-006	0.0041463	8
	6	9	251203.1	2977.188	-602.8571	1	3037.612	-11.44716	1.756889E-006	0.0046947	8
	7	11	199546.9	3041.036	-534.4368	1	3087.641	-9.96747	-1.93313E-006	0.0054198	8
	8	12	158578.1	3097.113	-469.0942	1	3132.436	-8.612659	-7.918816E-007	0.005027	8
	9	13	125953.1	3146.973	-391.7711	1	3171.265	-7.096324	4.349787E-007	0.0038748	7
	10	15	100078.1	3179.592	-358.0592	1	3199.69	-6.425105	-9.580186E-009	0.005067	7
	11	16	79453.13	3212.404	-341.9249	1	3230.55	-6.075626	1.221181E-008	0.0051259	7
	12	17	63140.62	3243.949	-332.8826	1	3260.984	-5.858982	-1.408243E-008	0.0050919	7
	13	19	50203.12	3276.466	-329.326	1	3292.975	-5.739669	1.755942E-008	0.0049505	7
	14	20	39890.62	3308.069	-332.6728	1	3324.754	-5.742588	-4.018592E-008	0.0050382	7
	15	21	31640.63	3340.1	-342.9047	1	3357.656	-5.861621	-3.124881E-008	0.0050296	7
	16	23	25171.88	3372.292	-360.0055	1	3391.453	-6.093473	1.197272E-008	0.0051206	7
	17	24	20015.62	3406.15	-385.9861	1	3427.95	-6.465198	4.517008E-009	0.0050158	7
	18	25	15890.62	3440.7	-420.0705	1	3466.248	-6.960718	-7.247316E-008	0.0052487	7
	19	27	12609.37	3476.934	-463.2075	1	3507.653	-7.58843	-5.778367E-008	0.0051098	7
	20	28	10078.13	3514.511	-518.8894	1	3552.609	-8.39859	-4.422244E-008	0.0051299	7
	21	29	8015.625	3553.959	-587.9365	1	3602.262	-9.393446	8.076024E-008	0.0048678	7
	22	31	6328.125	3597.151	-679.2966	1	3660.729	-10.69397	-5.768678E-008	0.005099	7
	23	32	5015.625	3643.102	-790.8205	1	3727.947	-12.24738	-1.018811E-008	0.0050437	7
	24	34	3984.375	3692.781	-928.4894	1	3807.719	-14.11353	-4.395054E-008	0.0051179	7
	25	35	3170.956	3748.564	-1097.081	1	3905.805	-16.31301	-6.153575E-008	0.0051295	7
	26	36	2527.573	3810.534	-1302.052	1	4026.849	-18.86519	3.768495E-009	0.0050034	7
	27	38	1976.103	3888.084	-1576.305	1	4195.466	-22.06859	-4.371299E-008	0.0051209	7
	28	39	1577.524	3967.319	-1883.702	1	4391.805	-25.39859	-6.829814E-009	0.0049721	7
	29	40	1265.625	4055.447	-2250.549	1	4638.063	-29.02785	-5.66257E-008	0.0051021	7
	30	42	998.264	4165.11	-2739.294	1	4985.165	-33.33197	9.616683E-008	0.0049405	7
	31	43	796.875	4283.353	-3307.123	1	5411.485	-37.67128	1.180715E-007	0.004851	7
	32	44	627.7902	4426.754	-4051.344	1	6000.795	-42.4646	-3.777853E-008	0.0050325	7
	33	46	505.5147	4582.046	-4887.454	1	6699.429	-46.84725	-4.532011E-008	0.0051241	7
	34	47	397.9953	4786.126	-6023.919	1	7693.804	-51.53214	3.921571E-009	0.0050536	7
	35	48	315.5048	5030.72	-7398.203	1	8946.594	-55.78461	5.805571E-009	0.0050512	7
	36	50	252.4038	5328.096	-9025.12	1	10480.52	-59.44398	1.315469E-009	0.0049909	6
	37	51	198.6229	5732.401	-11183.93	1	12567.45	-62.86228	9.873211E-010	0.0049847	6
	38	52	158.3615	6229.96	-13702.19	1	15051.99	-65.55019	4.747434E-010	0.0049795	6
	39	54	125.558	6890.237	-16868.41	1	18221.38	-67.78147	7.524714E-010	0.004986	6
	40	55	100.4464	7736.171	-20587.05	1	21992.61	-69.40486	4.006054E-010	0.0049901	6
	41	56	79.00281	8892.545	-25461.76	1	26969.95	-70.74819	9.374409E-010	0.0049903	6
	42	58	63.3446	10251.05	-31063.65	1	32711.38	-71.73704	1.513432E-010	0.0049804	6
	43	59	49.86702	12426.95	-37974.96	1	39956.56	-71.87981	6.337514E-010	0.004979	6
	44	61	39.72458	15097.41	-46288.05	1	48687.94	-71.93564	9.664121E-010	0.004986	6
	45	62	31.6723	18457.85	-56045.86	1	59007.04	-71.77149	4.635274E-010	0.0049829	6
	46	63	24.93351	23281.36	-68412.87	1	72265.77	-71.20621	1.9377E-010	0.0049822	6
	47	65	19.86229	29199.2	-82207.92	1	87239.53	-70.44562	3.183016E-010	0.0049814	6
	48	66	15.83615	36868.37	-98839	1	105491.3	-69.54375	-1.130019E-009	0.0049883	5
	49	67	12.40079	47669.89	-119023.2	1	128214.4	-68.17344	9.806295E-010	0.0049823	5
	50	69	9.93114	60077.45	-139218.8	1	151628.5	-66.65823	-1.201195E-010	0.004991	5
	51	70	7.944915	75955.85	-162698.5	1	179555.3	-64.97447	-2.571972E-010	0.0049861	5
	52	72	6.317385	95565.4	-189643.5	1	212361.5	-63.25548	2.415269E-010	0.0049737	5
	53	74	5.008013	119660.3	-219407.9	1	249916.8	-61.39291	-2.654509E-010	0.00498	5
	54	77	3.945707	148855.6	-251951.4	1	292638.8	-59.42494	4.280414E-010	0.0049927	5
	55	79	3.158693	180181.8	-285259.8	1	337399.8	-57.72182	-1.944415E-010	0.0049732	5
	56	83	2.504006	216657.9	-322006.4	1	388109.2	-56.06586	6.494887E-010	0.0049873	5
	57	85	1.998082	255800.5	-360327.3	1	441893.2	-54.62862	1.872005E-010	0.005024	5
	58	88	1.584686	297191	-403782.5	1	501360.9	-53.64628	2.96619E-010	0.0049831	5
	59	92	1.266892	342629.8	-451450.1	1	566747.2	-52.80318	6.141861E-011	0.0050329	5
	60	96	0.999041	391848.6	-509439.7	1	642708.4	-52.4334	8.694036E-011	0.004953	5
