EXPLAIN
TAG	EISPOT
TITLE	LABEL	Potentiostatic EIS	Test &Identifier
DATE	LABEL	8/14/2018	Date
TIME	LABEL	5:29:45	Time
NOTES	NOTES	1	&Notes...
	
PSTAT	PSTAT	REF600-11020	Potentiostat
VDC	POTEN	0.00000E+000	T	DC &Voltage (V)
FREQINIT	QUANT	1.00000E+006	Initial Fre&q. (Hz)
FREQFINAL	QUANT	1.00000E+000	Final Fre&q. (Hz)
PTSPERDEC	QUANT	1.00000E+001	Points/&decade
VAC	QUANT	2.50000E+001	AC &Voltage (mV rms)
AREA	QUANT	1.00000E-002	&Area (cm^2)
CONDIT	TWOPARAM	T	5.00000E+000	0.00000E+000	Conditionin&g	Time(s)	E(V)
DELAY	TWOPARAM	T	5.00000E+000	0.00000E+000	Init. De&lay	Time(s)	Stab.(mV/s)
SPEED	SELECTOR	0	&Optimize for:
ZGUESS	QUANT	1.00000E+005	E&stimated Z (ohms)
OCVCURVE	TABLE	19
	Pt	T	Vf	Vm	Ach	Over
	#	s	V vs. Ref.	V	V	bits
	0	0.258333	6.11885E-002	6.11885E-002	5.64466E-004	...........
	1	0.516667	6.12779E-002	6.58708E-002	5.60999E-004	...........
	2	0.775	6.18242E-002	7.01519E-002	5.65032E-004	...........
	3	1.03333	6.33565E-002	7.40997E-002	5.65666E-004	...........
	4	1.29167	6.60626E-002	7.77472E-002	5.55433E-004	...........
	5	1.55	6.95958E-002	8.11434E-002	5.69232E-004	...........
	6	1.80833	7.34219E-002	8.42963E-002	5.71332E-004	...........
	7	2.06667	7.71629E-002	8.72738E-002	5.69799E-004	...........
	8	2.325	8.06620E-002	9.00498E-002	5.63499E-004	...........
	9	2.58333	8.38999E-002	9.26577E-002	5.71199E-004	...........
	10	2.84167	8.69058E-002	9.51149E-002	5.80865E-004	...........
	11	3.1	8.97125E-002	9.74277E-002	5.77066E-004	...........
	12	3.35833	9.23452E-002	9.96316E-002	5.71666E-004	...........
	13	3.61667	9.48227E-002	1.01694E-001	5.68066E-004	...........
	14	3.875	9.71594E-002	1.03641E-001	5.72699E-004	...........
	15	4.13333	9.93648E-002	1.05479E-001	5.71966E-004	...........
	16	4.39167	1.01446E-001	1.07245E-001	5.66199E-004	...........
	17	4.65	1.03412E-001	1.08894E-001	5.71799E-004	...........
	18	4.90833	1.05272E-001	1.10468E-001	5.68466E-004	...........
EOC	QUANT	0.1052723	Open Circuit (V)
PSTATMODEL	IQUANT	4	Pstat Model
PSTATSECTION	LABEL	REF600-11020	Pstat Section
PSTATSERIALNO	LABEL	11020	Pstat Serial Number
CTRLMODE	IQUANT	1	Control Mode
IESTAB	IQUANT	0	I/E Stability
CASPEED	IQUANT	1	Control Amp Speed
CONVENTION	IQUANT	1	Current Convention
ICHRANGE	IQUANT	2	Ich Range
ICHRANGEMODE	TOGGLE	F	Ich Auto Range
ICHOFFSETENABLE	TOGGLE	T	Ich Offset Enable
ICHOFFSET	QUANT	0	Ich Offset (V)
ICHFILTER	IQUANT	3	Ich Filter
VCHRANGE	IQUANT	2	Vch Range
VCHRANGEMODE	TOGGLE	F	Vch Auto Range
VCHOFFSETENABLE	TOGGLE	T	Vch Offset Enable
VCHOFFSET	QUANT	0	Vch Offset (V)
VCHFILTER	IQUANT	3	Vch Filter
ACHRANGE	IQUANT	2	Ach Range
ACHOFFSETENABLE	TOGGLE	F	Ach Offset Enable
ACHOFFSET	QUANT	0	Ach Offset (V)
ACHFILTER	IQUANT	3	Ach Filter
IERANGELOWERLIMIT	IQUANT	1	I/E Range Lower Limit
IERANGEMODE	TOGGLE	F	I/E AutoRange
IERANGE	IQUANT	6	I/E Range
POSFEEDENABLE	TOGGLE	F	Positive Feedback IR Comp
POSFEEDRESISTANCE	QUANT	0	Positive Feedback Resistance (ohm)
ACHSELECT	IQUANT	0	Ach Select
CABLEID	IQUANT	14	Cable ID
DCCALDATE	LABEL	8/19/2019	DC Calibration Date
ACCALDATE	LABEL	8/19/2019	AC Calibration Date
THERMOSELECT	IQUANT	1	Thermo Select
FRAMEWORKVERSION	QUANT	6.33	Framework Version
INSTRUMENTVERSION	LABEL	3.50	Instrument Version
ZCURVE	TABLE
	Pt	Time	Freq	Zreal	Zimag	Zsig	Zmod	Zphz	Idc	Vdc	IERange
	#	s	Hz	ohm	ohm	V	ohm	°	A	V	#
	0	1	1000078	2276.844	-1689.477	1	2835.199	-36.57636	-3.77424E-006	0.1085176	8
	1	1	794390.6	2600.528	-1692.152	1	3102.6	-33.05188	5.918813E-006	0.1062444	8
	2	2	630984.4	2920.02	-1627.239	1	3342.817	-29.1296	-2.363771E-006	0.1073724	8
	3	2	501234.4	3209.789	-1551.839	1	3565.241	-25.80241	1.990063E-006	0.1064419	8
	4	2	398109.4	3507.171	-1409.586	1	3779.839	-21.89595	-4.463835E-006	0.1076285	8
	5	3	316265.6	3724.679	-1287.407	1	3940.895	-19.06732	2.124315E-006	0.1063254	8
	6	3	251203.1	3886.053	-1141.691	1	4050.292	-16.37236	8.08357E-007	0.1067311	8
	7	3	199546.9	4046.859	-1008.526	1	4170.634	-13.99374	-1.034933E-006	0.1071632	8
	8	4	158578.1	4148.176	-904.0861	1	4245.555	-12.29522	-2.300408E-006	0.1072189	8
	9	4	125953.1	4288.85	-705.0292	1	4346.412	-9.335165	3.890721E-007	0.1062418	7
	10	4	100078.1	4350.124	-618.3939	1	4393.858	-8.090699	5.309552E-008	0.1066526	7
	11	5	79453.13	4405.019	-561.0988	1	4440.611	-7.259082	4.173772E-008	0.1066815	7
	12	5	63140.62	4456.37	-513.8693	1	4485.899	-6.577793	-9.966207E-009	0.1067118	7
	13	5	50203.12	4500.101	-478.7859	1	4525.5	-6.073108	-1.094762E-008	0.1067808	7
	14	6	39890.62	4539.097	-457.7278	1	4562.118	-5.758306	-1.350107E-008	0.1067379	7
	15	6	31640.63	4576.581	-450.9466	1	4598.744	-5.627389	-2.253511E-008	0.1066976	7
	16	6	25171.88	4613.331	-455.9422	1	4635.807	-5.644296	4.199715E-008	0.1066718	7
	17	6	20015.62	4646.699	-470.3473	1	4670.443	-5.779897	-8.183069E-008	0.1068424	7
	18	7	15890.62	4682.785	-506.457	1	4710.092	-6.172715	-5.615532E-008	0.1067619	7
	19	7	12609.37	4721.394	-552.6025	1	4753.623	-6.675654	5.631469E-008	0.1066371	7
	20	7	10078.13	4757.621	-614.7953	1	4797.18	-7.363144	1.070247E-007	0.1065736	7
	21	8	8015.625	4800.947	-704.3283	1	4852.336	-8.346105	-8.125406E-008	0.1068421	7
	22	8	6328.125	4844.641	-817.0359	1	4913.053	-9.57271	1.070904E-007	0.1065757	7
	23	8	5015.625	4892.114	-960.242	1	4985.463	-11.10505	-6.172483E-008	0.1068308	7
	24	9	3984.375	4957.299	-1135.565	1	5085.698	-12.90211	-6.857734E-008	0.1069424	7
	25	9	3170.956	5001.958	-1355.009	1	5182.243	-15.1574	-8.008151E-009	0.1066985	7
	26	9	2527.573	5069.469	-1621.438	1	5322.46	-17.73656	-6.024964E-008	0.106828	7
	27	10	1976.103	5150.163	-1987.055	1	5520.196	-21.0978	-5.362373E-008	0.1068441	7
	28	10	1577.524	5271.32	-2400.39	1	5792.123	-24.483	-1.628739E-008	0.106749	7
	29	10	1265.625	5362.451	-2885.378	1	6089.44	-28.28339	-6.251556E-008	0.1068191	7
	30	11	998.264	5506.227	-3523.645	1	6537.171	-32.61673	3.100082E-008	0.1065969	7
	31	11	796.875	5671.637	-4270.204	1	7099.444	-36.97627	-7.750607E-008	0.1068294	7
	32	11	627.7902	5884.986	-5242.302	1	7881.294	-41.69441	-6.999333E-008	0.1069438	7
	33	12	505.5147	6119.336	-6319.942	1	8797.041	-45.92392	-2.03195E-008	0.1067621	7
	34	12	397.9953	6438.636	-7759.849	1	10083.22	-50.31624	-2.4091E-009	0.1066923	6
	35	12	315.5048	6812.951	-9494.26	1	11685.77	-54.3373	-1.909219E-009	0.1066884	6
	36	13	252.4038	7256.676	-11533.85	1	13626.78	-57.8234	-1.490696E-009	0.1066862	6
	37	13	198.6229	7858.527	-14228.01	1	16254.01	-61.08691	-2.39608E-009	0.1066867	6
	38	13	158.3615	8591.487	-17356.25	1	19366.28	-63.6642	-1.318798E-009	0.1066842	6
	39	13	125.558	9570.03	-21286.58	1	23338.89	-65.79224	-1.886943E-009	0.1066876	6
	40	14	100.4464	10837.99	-25909.61	1	28085.04	-67.30044	-1.628702E-009	0.1066852	6
	41	14	79.00281	12573.68	-31990.92	1	34373.19	-68.54324	-1.267794E-009	0.1066807	6
	42	14	63.3446	14659.84	-38092.56	1	40816.1	-68.95089	-2.697764E-009	0.1066821	6
	43	15	49.86702	18022.91	-46810.02	1	50159.78	-68.94217	-2.966705E-009	0.1066781	6
	44	15	39.72458	22037.21	-57055.72	1	61163.67	-68.88144	-2.454337E-009	0.1066851	6
	45	16	31.6723	27605.91	-68675.45	1	74016.24	-68.10104	-3.09192E-009	0.1066782	6
	46	16	24.93351	35176.67	-82105.32	1	89323.47	-66.80809	-1.737506E-009	0.1066742	6
	47	16	19.86229	44211.71	-96766.1	1	106387.7	-65.44469	-2.352252E-009	0.106684	5
	48	16	15.83615	57609.4	-113551.9	1	127329.8	-63.09949	1.123187E-009	0.106681	5
	49	17	12.40079	70826.11	-131570.4	1	149422.6	-61.70583	-3.455345E-009	0.1066857	5
	50	17	9.93114	87859.84	-151437.5	1	175079	-59.87888	-1.445976E-009	0.1066832	5
	51	18	7.944915	106945.5	-171616.8	1	202211.9	-58.07029	-6.74556E-010	0.1066757	5
	52	18	6.317385	129024.7	-193924.3	1	232924.9	-56.36277	-8.929514E-010	0.1066675	5
	53	19	5.008013	154294.5	-218059.8	1	267127.1	-54.71758	-1.298252E-009	0.1066818	5
	54	20	3.945707	183403.3	-244424.5	1	305581.6	-53.11736	-1.591782E-009	0.1066792	5
	55	22	3.158693	211136.2	-272340	1	344597.7	-52.21476	-1.547611E-009	0.1066626	5
	56	23	2.504006	243022.3	-304099.8	1	389276.9	-51.36979	-1.116745E-009	0.1066666	5
	57	24	1.998082	275043.2	-340120.6	1	437413.8	-51.03878	-1.002128E-009	0.1066872	5
	58	26	1.584686	311175.2	-381979.9	1	492685.1	-50.83245	-1.094321E-009	0.1066373	5
	59	28	1.266892	349327.1	-432095.5	1	555640.1	-51.04624	-1.002641E-009	0.1066292	5
	60	31	0.999041	392812.3	-495537.9	1	632344.3	-51.59618	-9.010601E-010	0.1066437	5
