EXPLAIN
TAG	EISPOT
TITLE	LABEL	Potentiostatic EIS	Test &Identifier
DATE	LABEL	10/2/2019	Date
TIME	LABEL	9:05:52	Time
NOTES	NOTES	2	&Notes...
	
	
PSTAT	PSTAT	REF600-11020	Potentiostat
VDC	POTEN	0.00000E+000	T	DC &Voltage (V)
FREQINIT	QUANT	1.00000E+006	Initial Fre&q. (Hz)
FREQFINAL	QUANT	1.00000E+000	Final Fre&q. (Hz)
PTSPERDEC	QUANT	1.00000E+001	Points/&decade
VAC	QUANT	2.50000E+001	AC &Voltage (mV rms)
AREA	QUANT	1.00000E-002	&Area (cm^2)
CONDIT	TWOPARAM	T	5.00000E+000	0.00000E+000	Conditionin&g	Time(s)	E(V)
DELAY	TWOPARAM	T	5.00000E+000	0.00000E+000	Init. De&lay	Time(s)	Stab.(mV/s)
SPEED	SELECTOR	1	&Optimize for:
ZGUESS	QUANT	1.00000E+004	E&stimated Z (ohms)
OCVCURVE	TABLE	19
	Pt	T	Vf	Vm	Ach	Over
	#	s	V vs. Ref.	V	V	bits
	0	0.258333	-1.37346E-003	-1.37346E-003	5.88365E-004	...........
	1	0.516667	-1.39036E-003	-2.25851E-003	5.86665E-004	...........
	2	0.775	-1.48760E-003	-2.75254E-003	5.87965E-004	...........
	3	1.03333	-1.74159E-003	-3.26941E-003	5.89232E-004	...........
	4	1.29167	-2.16005E-003	-3.91664E-003	5.89165E-004	...........
	5	1.55	-2.68335E-003	-4.44183E-003	5.88432E-004	...........
	6	1.80833	-3.24822E-003	-4.86748E-003	5.88899E-004	...........
	7	2.06667	-3.80514E-003	-5.10844E-003	5.87099E-004	...........
	8	2.325	-4.31031E-003	-5.46830E-003	5.90032E-004	...........
	9	2.58333	-4.74107E-003	-5.77968E-003	5.88432E-004	...........
	10	2.84167	-5.11061E-003	-6.20196E-003	5.90899E-004	...........
	11	3.1	-5.45458E-003	-6.58954E-003	5.89765E-004	...........
	12	3.35833	-5.80564E-003	-7.02891E-003	5.88899E-004	...........
	13	3.61667	-6.16923E-003	-6.89714E-003	5.89465E-004	...........
	14	3.875	-6.50525E-003	-6.94980E-003	5.92732E-004	...........
	15	4.13333	-6.75178E-003	-6.88972E-003	5.94532E-004	...........
	16	4.39167	-6.88989E-003	-7.26668E-003	5.93865E-004	...........
	17	4.65	-7.03305E-003	-1.06449E-002	5.94965E-004	...........
	18	4.90833	-7.45063E-003	-1.08031E-002	5.93532E-004	...........
EOC	QUANT	-0.0074506	Open Circuit (V)
PSTATMODEL	IQUANT	4	Pstat Model
PSTATSECTION	LABEL	REF600-11020	Pstat Section
PSTATSERIALNO	LABEL	11020	Pstat Serial Number
CTRLMODE	IQUANT	1	Control Mode
IESTAB	IQUANT	0	I/E Stability
CASPEED	IQUANT	1	Control Amp Speed
CONVENTION	IQUANT	1	Current Convention
ICHRANGE	IQUANT	2	Ich Range
ICHRANGEMODE	TOGGLE	F	Ich Auto Range
ICHOFFSETENABLE	TOGGLE	T	Ich Offset Enable
ICHOFFSET	QUANT	0	Ich Offset (V)
ICHFILTER	IQUANT	3	Ich Filter
VCHRANGE	IQUANT	2	Vch Range
VCHRANGEMODE	TOGGLE	F	Vch Auto Range
VCHOFFSETENABLE	TOGGLE	T	Vch Offset Enable
VCHOFFSET	QUANT	0	Vch Offset (V)
VCHFILTER	IQUANT	3	Vch Filter
ACHRANGE	IQUANT	2	Ach Range
ACHOFFSETENABLE	TOGGLE	F	Ach Offset Enable
ACHOFFSET	QUANT	0	Ach Offset (V)
ACHFILTER	IQUANT	3	Ach Filter
IERANGELOWERLIMIT	IQUANT	1	I/E Range Lower Limit
IERANGEMODE	TOGGLE	F	I/E AutoRange
IERANGE	IQUANT	6	I/E Range
POSFEEDENABLE	TOGGLE	F	Positive Feedback IR Comp
POSFEEDRESISTANCE	QUANT	0	Positive Feedback Resistance (ohm)
ACHSELECT	IQUANT	0	Ach Select
CABLEID	IQUANT	14	Cable ID
DCCALDATE	LABEL	8/19/2019	DC Calibration Date
ACCALDATE	LABEL	8/19/2019	AC Calibration Date
THERMOSELECT	IQUANT	1	Thermo Select
FRAMEWORKVERSION	QUANT	6.33	Framework Version
INSTRUMENTVERSION	LABEL	3.50	Instrument Version
ZCURVE	TABLE
	Pt	Time	Freq	Zreal	Zimag	Zsig	Zmod	Zphz	Idc	Vdc	IERange
	#	s	Hz	ohm	ohm	V	ohm	°	A	V	#
	0	2	1000078	2368.009	-1717.085	1	2925.038	-35.94654	-1.370348E-006	-0.0046786	8
	1	3	794390.6	2721.063	-1648.669	1	3181.555	-31.21131	5.591836E-007	-0.0057281	8
	2	4	630984.4	3034.654	-1525.509	1	3396.513	-26.68851	-5.443967E-006	-0.0045246	8
	3	6	501234.4	3294.618	-1376.215	1	3570.501	-22.67109	4.739997E-006	-0.0065747	8
	4	7	398109.4	3509.91	-1211.402	1	3713.08	-19.04148	-3.3708E-006	-0.0053087	8
	5	9	316265.6	3672.236	-1028.586	1	3813.569	-15.64746	1.95534E-006	-0.0064743	8
	6	10	251203.1	3783.22	-896.3349	1	3887.952	-13.32896	-3.400882E-007	-0.0059787	8
	7	12	199546.9	3886.602	-763.0693	1	3960.802	-11.10778	-2.745032E-006	-0.0053875	8
	8	13	158578.1	3940.793	-666.0803	1	3996.688	-9.59357	4.195988E-007	-0.006031	8
	9	15	125953.1	4028.805	-529.32	1	4063.428	-7.484871	1.342259E-006	-0.0084184	7
	10	16	100078.1	4048.94	-472.0858	1	4076.368	-6.650368	-2.504235E-009	-0.0059807	7
	11	17	79453.13	4082.487	-431.8908	1	4105.269	-6.038922	-4.017659E-008	-0.0059552	7
	12	19	63140.62	4114.522	-404.6938	1	4134.377	-5.617397	-1.450904E-008	-0.0059575	7
	13	20	50203.12	4144.642	-386.9487	1	4162.666	-5.333742	-5.278613E-008	-0.0058503	7
	14	21	39890.62	4175.852	-381.4911	1	4193.241	-5.219852	-1.904248E-008	-0.0058691	7
	15	23	31640.63	4206.293	-385.8977	1	4223.958	-5.241809	-3.026115E-008	-0.0059999	7
	16	24	25171.88	4238.444	-400.3652	1	4257.312	-5.396172	8.033986E-008	-0.0061711	7
	17	25	20015.62	4272.757	-424.7613	1	4293.818	-5.677208	7.841145E-008	-0.0060445	7
	18	27	15890.62	4308.646	-458.3463	1	4332.957	-6.072189	7.039008E-008	-0.0061278	7
	19	28	12609.37	4349.2	-504.5224	1	4378.366	-6.616935	7.877402E-008	-0.0060544	7
	20	29	10078.13	4389.54	-559.2632	1	4425.024	-7.260831	-2.899068E-008	-0.0060097	7
	21	31	8015.625	4433.584	-630.2152	1	4478.152	-8.090154	-7.493599E-008	-0.0058918	7
	22	32	6328.125	4483.206	-721.3957	1	4540.875	-9.141145	-1.435277E-008	-0.0059712	7
	23	33	5015.625	4534.585	-831.6071	1	4610.21	-10.39211	-1.576701E-008	-0.0058746	7
	24	35	3984.375	4584.461	-965.711	1	4685.07	-11.89537	-2.863283E-008	-0.0060106	7
	25	36	3170.956	4645.046	-1132.78	1	4781.176	-13.70512	-3.461488E-008	-0.0060021	7
	26	37	2527.573	4707.853	-1337.815	1	4894.245	-15.86338	-4.312385E-008	-0.0059315	7
	27	39	1976.103	4777.621	-1612.402	1	5042.371	-18.64905	-3.924051E-008	-0.0059727	7
	28	40	1577.524	4850.432	-1926.505	1	5219.014	-21.66209	-2.866827E-009	-0.0060724	7
	29	41	1265.625	4931.771	-2309.189	1	5445.615	-25.09027	3.55525E-008	-0.0060536	7
	30	43	998.264	5032.757	-2814.922	1	5766.492	-29.21916	-3.838101E-008	-0.0059752	7
	31	44	796.875	5144.803	-3414.904	1	6174.995	-33.57454	-1.620301E-008	-0.0060539	7
	32	46	627.7902	5284.611	-4197.629	1	6748.867	-38.46053	-1.641014E-008	-0.0060513	7
	33	47	505.5147	5441.861	-5080.719	1	7444.969	-43.03434	7.998134E-008	-0.006063	7
	34	48	397.9953	5655.568	-6268.942	1	8443.05	-47.94459	6.288396E-009	-0.0059994	7
	35	50	315.5048	5915.806	-7705.641	1	9714.61	-52.48568	5.728833E-009	-0.0059922	7
	36	51	252.4038	6232.535	-9400.228	1	11278.69	-56.45484	1.155692E-009	-0.0060602	6
	37	52	198.6229	6665.114	-11641.06	1	13414.09	-60.2066	1.247747E-009	-0.0060566	6
	38	54	158.3615	7188.834	-14245.73	1	15956.82	-63.22308	8.062531E-010	-0.0060607	6
	39	55	125.558	7884.841	-17511.64	1	19204.9	-65.75973	1.193678E-009	-0.0060524	6
	40	56	100.4464	8735.703	-21338.62	1	23057.52	-67.73656	1.548741E-009	-0.0060627	6
	41	58	79.00281	9978.78	-26357.84	1	28183.54	-69.26391	4.678438E-010	-0.0060559	6
	42	59	63.3446	11388.81	-31800.63	1	33778.46	-70.29595	6.48598E-010	-0.0060605	6
	43	60	49.86702	13555.67	-39394.88	1	41661.89	-71.0118	1.113499E-009	-0.0060636	6
	44	62	39.72458	15913.95	-47829.36	1	50407.35	-71.5965	9.660216E-010	-0.0060602	6
	45	63	31.6723	19211.52	-57900.8	1	61004.8	-71.64413	8.767507E-010	-0.0060604	6
	46	65	24.93351	23583.42	-70716.29	1	74545.09	-71.55679	1.151861E-009	-0.0060603	6
	47	66	19.86229	28946.07	-85285.2	1	90063.53	-71.25262	1.182472E-009	-0.0060532	6
	48	67	15.83615	36137.73	-102817.6	1	108983.5	-70.63474	2.048106E-009	-0.0060597	5
	49	69	12.40079	45655.57	-124612.1	1	132712.5	-69.8781	-1.14542E-010	-0.0060567	5
	50	70	9.93114	56510.57	-147318.5	1	157785.3	-69.01346	1.864165E-010	-0.0060551	5
	51	72	7.944915	70192.62	-173866.2	1	187500.6	-68.01527	1.208764E-009	-0.0060525	5
	52	73	6.317385	87581.91	-205851.7	1	223708.6	-66.95213	7.139877E-010	-0.0060453	5
	53	75	5.008013	109150.9	-242937.4	1	266331.5	-65.80579	6.748217E-010	-0.0060429	5
	54	78	3.945707	136510.9	-286302.2	1	317181.6	-64.50787	1.077054E-010	-0.0060564	5
	55	80	3.158693	167274.5	-331991.2	1	371751.1	-63.25865	4.84272E-010	-0.0060472	5
	56	84	2.504006	205422.8	-385557.3	1	436867.2	-61.95155	3.22818E-011	-0.0060567	5
	57	86	1.998082	248245.7	-442322.1	1	507222.6	-60.69743	3.708015E-010	-0.006102	5
	58	90	1.584686	297069.7	-509759.2	1	590004.1	-59.76787	-4.324842E-010	-0.0060624	5
	59	93	1.266892	354297.9	-578343.6	1	678239.1	-58.50803	3.520657E-010	-0.0060957	5
	60	97	0.999041	419850.9	-663325.4	1	785032.1	-57.66829	1.627787E-011	-0.0060237	5
