EXPLAIN
TAG	EISPOT
TITLE	LABEL	Potentiostatic EIS	Test &Identifier
DATE	LABEL	11/22/2019	Date
TIME	LABEL	0:48:09	Time
NOTES	NOTES	4	&Notes...
	
	
	
	
PSTAT	PSTAT	REF600-11020	Potentiostat
VDC	POTEN	0.00000E+000	T	DC &Voltage (V)
FREQINIT	QUANT	1.00000E+006	Initial Fre&q. (Hz)
FREQFINAL	QUANT	1.00000E+000	Final Fre&q. (Hz)
PTSPERDEC	QUANT	1.00000E+001	Points/&decade
VAC	QUANT	2.50000E+001	AC &Voltage (mV rms)
AREA	QUANT	1.00000E-002	&Area (cm^2)
CONDIT	TWOPARAM	T	5.00000E+000	0.00000E+000	Conditionin&g	Time(s)	E(V)
DELAY	TWOPARAM	T	5.00000E+000	0.00000E+000	Init. De&lay	Time(s)	Stab.(mV/s)
SPEED	SELECTOR	1	&Optimize for:
ZGUESS	QUANT	1.00000E+005	E&stimated Z (ohms)
OCVCURVE	TABLE	19
	Pt	T	Vf	Vm	Ach	Over
	#	s	V vs. Ref.	V	V	bits
	0	0.258333	6.42483E-003	6.42483E-003	5.79032E-004	...........
	1	0.516667	6.42389E-003	6.37558E-003	5.80732E-004	...........
	2	0.775	6.41749E-003	6.29634E-003	5.76266E-004	...........
	3	1.03333	6.39750E-003	6.22933E-003	5.76366E-004	...........
	4	1.29167	6.35871E-003	6.17809E-003	5.75666E-004	...........
	5	1.55	6.30519E-003	6.14431E-003	5.80832E-004	...........
	6	1.80833	6.24770E-003	6.11834E-003	5.81532E-004	...........
	7	2.06667	6.19642E-003	6.10628E-003	5.76799E-004	...........
	8	2.325	6.15625E-003	6.08165E-003	5.72666E-004	...........
	9	2.58333	6.12681E-003	6.07387E-003	5.76199E-004	...........
	10	2.84167	6.10499E-003	6.05837E-003	5.80332E-004	...........
	11	3.1	6.08805E-003	6.05949E-003	5.77966E-004	...........
	12	3.35833	6.07498E-003	6.05785E-003	5.79066E-004	...........
	13	3.61667	6.06591E-003	6.05774E-003	5.76466E-004	...........
	14	3.875	6.06064E-003	6.05396E-003	5.81299E-004	...........
	15	4.13333	6.05799E-003	6.05710E-003	5.78165E-004	...........
	16	4.39167	6.05677E-003	6.05968E-003	5.77799E-004	...........
	17	4.65	6.05658E-003	6.05987E-003	5.81865E-004	...........
	18	4.90833	6.05741E-003	6.06679E-003	5.79266E-004	...........
EOC	QUANT	0.0060574	Open Circuit (V)
PSTATMODEL	IQUANT	4	Pstat Model
PSTATSECTION	LABEL	REF600-11020	Pstat Section
PSTATSERIALNO	LABEL	11020	Pstat Serial Number
CTRLMODE	IQUANT	1	Control Mode
IESTAB	IQUANT	0	I/E Stability
CASPEED	IQUANT	1	Control Amp Speed
CONVENTION	IQUANT	1	Current Convention
ICHRANGE	IQUANT	2	Ich Range
ICHRANGEMODE	TOGGLE	F	Ich Auto Range
ICHOFFSETENABLE	TOGGLE	T	Ich Offset Enable
ICHOFFSET	QUANT	0	Ich Offset (V)
ICHFILTER	IQUANT	3	Ich Filter
VCHRANGE	IQUANT	2	Vch Range
VCHRANGEMODE	TOGGLE	F	Vch Auto Range
VCHOFFSETENABLE	TOGGLE	T	Vch Offset Enable
VCHOFFSET	QUANT	0	Vch Offset (V)
VCHFILTER	IQUANT	3	Vch Filter
ACHRANGE	IQUANT	2	Ach Range
ACHOFFSETENABLE	TOGGLE	F	Ach Offset Enable
ACHOFFSET	QUANT	0	Ach Offset (V)
ACHFILTER	IQUANT	3	Ach Filter
IERANGELOWERLIMIT	IQUANT	1	I/E Range Lower Limit
IERANGEMODE	TOGGLE	F	I/E AutoRange
IERANGE	IQUANT	5	I/E Range
POSFEEDENABLE	TOGGLE	F	Positive Feedback IR Comp
POSFEEDRESISTANCE	QUANT	0	Positive Feedback Resistance (ohm)
ACHSELECT	IQUANT	0	Ach Select
CABLEID	IQUANT	14	Cable ID
DCCALDATE	LABEL	8/19/2019	DC Calibration Date
ACCALDATE	LABEL	8/19/2019	AC Calibration Date
THERMOSELECT	IQUANT	1	Thermo Select
FRAMEWORKVERSION	QUANT	6.33	Framework Version
INSTRUMENTVERSION	LABEL	3.50	Instrument Version
ZCURVE	TABLE
	Pt	Time	Freq	Zreal	Zimag	Zsig	Zmod	Zphz	Idc	Vdc	IERange
	#	s	Hz	ohm	ohm	V	ohm	°	A	V	#
	0	2	1000078	1903.304	-949.9726	1	2127.208	-26.52459	1.357349E-006	0.0087474	8
	1	3	794390.6	2060.43	-901.0593	1	2248.84	-23.62053	-8.894432E-007	0.0084461	8
	2	4	630984.4	2199.995	-849.3315	1	2358.25	-21.10961	2.555657E-006	0.0071982	8
	3	6	501234.4	2323.09	-782.3205	1	2451.279	-18.6114	-6.173087E-007	0.0073334	8
	4	7	398109.4	2426.05	-716.9248	1	2529.763	-16.463	-3.68266E-006	0.008165	8
	5	9	316265.6	2520.659	-671.0078	1	2608.443	-14.90663	6.127789E-006	0.0068543	8
	6	10	251203.1	2591.337	-632.0094	1	2667.295	-13.70646	-2.86503E-007	0.0072432	8
	7	11	199546.9	2665.96	-600.4836	1	2732.75	-12.69353	5.739706E-006	0.0068646	8
	8	13	158578.1	2737.857	-579.1791	1	2798.448	-11.94452	6.726631E-007	0.0079045	8
	9	14	125953.1	2818.554	-526.923	1	2867.385	-10.5891	5.833222E-007	0.0094405	7
	10	15	100078.1	2869.782	-520.5557	1	2916.613	-10.28121	-6.892275E-007	0.0074044	7
	11	17	79453.13	2930.337	-532.4802	1	2978.323	-10.29901	-9.775606E-007	0.0080224	7
	12	18	63140.62	2995.351	-553.2255	1	3046.012	-10.4643	9.680925E-008	0.0083525	7
	13	19	50203.12	3060.823	-573.8198	1	3114.147	-10.61813	-1.000665E-006	0.0090141	7
	14	21	39890.62	3134.331	-603.3283	1	3191.87	-10.89562	8.205571E-008	0.0062816	7
	15	22	31640.63	3210.733	-638.1348	1	3273.533	-11.24108	6.92717E-007	0.0058856	7
	16	24	25171.88	3289.578	-678.2014	1	3358.762	-11.64926	8.843197E-007	0.0059484	7
	17	25	20015.62	3367.553	-724.4495	1	3444.596	-12.1408	-5.476458E-007	0.0089541	7
	18	26	15890.62	3452.438	-780.2568	1	3539.51	-12.735	-2.375754E-007	0.0087175	7
	19	28	12609.37	3547.287	-847.1244	1	3647.035	-13.4312	1.01668E-006	0.0064177	7
	20	29	10078.13	3635.518	-920.4568	1	3750.231	-14.20784	8.2909E-008	0.0062635	7
	21	30	8015.625	3732.256	-1008.329	1	3866.066	-15.11845	-5.458314E-007	0.0089491	7
	22	32	6328.125	3840.781	-1119.781	1	4000.689	-16.25406	9.484894E-007	0.0067885	7
	23	33	5015.625	3942.84	-1250.777	1	4136.476	-17.60046	5.912783E-007	0.0076245	7
	24	35	3984.375	4055.289	-1418.395	1	4296.186	-19.27801	9.467814E-007	0.0067939	7
	25	36	3170.956	4150.3	-1600.661	1	4448.27	-21.09031	8.273392E-008	0.0062599	7
	26	37	2527.573	4260.216	-1839.678	1	4640.458	-23.35601	8.887656E-007	0.0059318	7
	27	39	1976.103	4372.871	-2160.664	1	4877.547	-26.29427	-8.079296E-007	0.0090445	7
	28	40	1577.524	4506.538	-2508.014	1	5157.423	-29.09716	1.018365E-007	0.008337	7
	29	41	1265.625	4611.527	-2998.708	1	5500.766	-33.03448	1.020221E-006	0.006411	7
	30	43	998.264	4760.131	-3615.482	1	5977.504	-37.21791	9.96411E-007	0.0061227	7
	31	44	796.875	4909.602	-4320.306	1	6539.819	-41.34683	-1.134494E-006	0.0085306	7
	32	46	627.7902	5113.435	-5268.013	1	7341.605	-45.85306	-1.132462E-006	0.008865	7
	33	47	505.5147	5328.418	-6338.88	1	8280.908	-49.94983	-5.435199E-007	0.0089472	7
	34	48	397.9953	5615.904	-7799.57	1	9611.02	-54.24508	4.647005E-009	0.0075126	7
	35	50	315.5048	5965.789	-9543.78	1	11254.97	-57.99063	4.198047E-010	0.0074465	6
	36	51	252.4038	6379.455	-11603.13	1	13241.23	-61.1978	5.224387E-010	0.0074459	6
	37	53	198.6229	6938.858	-14321.2	1	15913.66	-64.14905	5.748068E-010	0.0074526	6
	38	54	158.3615	7616.204	-17478.78	1	19066.05	-66.45532	8.669698E-010	0.0074541	6
	39	55	125.558	8494.749	-21438.38	1	23060.03	-68.38454	4.730828E-010	0.0074494	6
	40	57	100.4464	9556.13	-26070.29	1	27766.52	-69.86947	2.900705E-010	0.0074438	6
	41	58	79.00281	11149.94	-32183.47	1	34060.19	-70.89139	2.842272E-010	0.0074446	6
	42	59	63.3446	12536.24	-38915.42	1	40884.81	-72.14413	1.226753E-011	0.0074447	6
	43	61	49.86702	15631.13	-47776	1	50268.07	-71.88318	4.567751E-010	0.0074387	6
	44	62	39.72458	18433.09	-58064.55	1	60920.2	-72.38752	6.107014E-010	0.0074446	6
	45	63	31.6723	22568.06	-70456.78	1	73982.94	-72.23918	8.333558E-010	0.007446	6
	46	65	24.93351	27998.03	-85924.55	1	90371.01	-71.9521	8.110041E-010	0.0074406	6
	47	66	19.86229	34742.58	-103354.5	1	109037.6	-71.41995	8.396257E-010	0.0074588	5
	48	67	15.83615	42914.12	-123744.5	1	130974.5	-70.87366	8.03524E-010	0.0074442	5
	49	69	12.40079	56719.84	-151335	1	161615	-69.45417	-1.513439E-010	0.0074445	5
	50	70	9.93114	69918.01	-177974.9	1	191216.1	-68.55246	-2.460734E-010	0.0074469	5
	51	72	7.944915	88769.95	-209750.5	1	227761.7	-67.0611	1.001034E-010	0.0074511	5
	52	73	6.317385	110657.7	-246549.5	1	270243.9	-65.82824	1.986901E-010	0.0074546	5
	53	75	5.008013	138481.5	-288545.1	1	320055.3	-64.36226	2.374535E-010	0.0074526	5
	54	78	3.945707	173192.7	-336948.3	1	378853.3	-62.79667	8.700318E-011	0.0074511	5
	55	80	3.158693	210804.8	-387145.7	1	440817.9	-61.43126	-6.1936E-011	0.0074387	5
	56	83	2.504006	256698.7	-444921.2	1	513662.4	-60.01707	3.391457E-010	0.0074368	5
	57	86	1.998082	305816.7	-507069.8	1	592151.6	-58.90558	-1.401791E-010	0.0074475	5
	58	89	1.584686	365005.8	-577891.4	1	683511.3	-57.72281	5.45228E-011	0.0074935	5
	59	93	1.266892	427026	-656746.9	1	783369.4	-56.96752	-1.4239E-010	0.0074228	5
	60	97	0.999041	501023.7	-750063.7	1	902009	-56.25807	1.762019E-010	0.0074865	5
