EXPLAIN
TAG	EISPOT
TITLE	LABEL	Potentiostatic EIS	Test &Identifier
DATE	LABEL	11/22/2019	Date
TIME	LABEL	10:13:44	Time
NOTES	NOTES	4	&Notes...
	
	
	
	
PSTAT	PSTAT	REF600-11020	Potentiostat
VDC	POTEN	0.00000E+000	T	DC &Voltage (V)
FREQINIT	QUANT	1.00000E+006	Initial Fre&q. (Hz)
FREQFINAL	QUANT	1.00000E+000	Final Fre&q. (Hz)
PTSPERDEC	QUANT	1.00000E+001	Points/&decade
VAC	QUANT	2.50000E+001	AC &Voltage (mV rms)
AREA	QUANT	1.00000E-002	&Area (cm^2)
CONDIT	TWOPARAM	T	5.00000E+000	0.00000E+000	Conditionin&g	Time(s)	E(V)
DELAY	TWOPARAM	T	5.00000E+000	0.00000E+000	Init. De&lay	Time(s)	Stab.(mV/s)
SPEED	SELECTOR	0	&Optimize for:
ZGUESS	QUANT	1.00000E+005	E&stimated Z (ohms)
OCVCURVE	TABLE	19
	Pt	T	Vf	Vm	Ach	Over
	#	s	V vs. Ref.	V	V	bits
	0	0.258333	3.16115E-003	3.16115E-003	5.69166E-004	...........
	1	0.516667	3.15796E-003	2.99410E-003	5.64432E-004	...........
	2	0.775	3.13781E-003	2.80669E-003	5.68499E-004	...........
	3	1.03333	3.07880E-003	2.61875E-003	5.65432E-004	...........
	4	1.29167	2.96960E-003	2.47110E-003	5.64299E-004	...........
	5	1.55	2.82170E-003	2.34481E-003	5.63032E-004	...........
	6	1.80833	2.65992E-003	2.22896E-003	5.64066E-004	...........
	7	2.06667	2.50532E-003	2.12030E-003	5.69432E-004	...........
	8	2.325	2.36704E-003	2.02839E-003	5.68599E-004	...........
	9	2.58333	2.24568E-003	1.95975E-003	5.66466E-004	...........
	10	2.84167	2.13963E-003	1.87966E-003	5.67999E-004	...........
	11	3.1	2.04869E-003	1.90114E-003	5.68666E-004	...........
	12	3.35833	1.97397E-003	1.76712E-003	5.68399E-004	...........
	13	3.61667	1.91090E-003	1.66019E-003	5.65432E-004	...........
	14	3.875	1.84553E-003	1.56701E-003	5.65366E-004	...........
	15	4.13333	1.76573E-003	1.43096E-003	5.71199E-004	...........
	16	4.39167	1.67246E-003	1.45802E-003	5.63499E-004	...........
	17	4.65	1.58170E-003	1.52131E-003	5.64766E-004	...........
	18	4.90833	1.51529E-003	1.40736E-003	5.66232E-004	...........
EOC	QUANT	0.0015153	Open Circuit (V)
PSTATMODEL	IQUANT	4	Pstat Model
PSTATSECTION	LABEL	REF600-11020	Pstat Section
PSTATSERIALNO	LABEL	11020	Pstat Serial Number
CTRLMODE	IQUANT	1	Control Mode
IESTAB	IQUANT	0	I/E Stability
CASPEED	IQUANT	1	Control Amp Speed
CONVENTION	IQUANT	1	Current Convention
ICHRANGE	IQUANT	2	Ich Range
ICHRANGEMODE	TOGGLE	F	Ich Auto Range
ICHOFFSETENABLE	TOGGLE	T	Ich Offset Enable
ICHOFFSET	QUANT	0	Ich Offset (V)
ICHFILTER	IQUANT	3	Ich Filter
VCHRANGE	IQUANT	2	Vch Range
VCHRANGEMODE	TOGGLE	F	Vch Auto Range
VCHOFFSETENABLE	TOGGLE	T	Vch Offset Enable
VCHOFFSET	QUANT	0	Vch Offset (V)
VCHFILTER	IQUANT	3	Vch Filter
ACHRANGE	IQUANT	2	Ach Range
ACHOFFSETENABLE	TOGGLE	F	Ach Offset Enable
ACHOFFSET	QUANT	0	Ach Offset (V)
ACHFILTER	IQUANT	3	Ach Filter
IERANGELOWERLIMIT	IQUANT	1	I/E Range Lower Limit
IERANGEMODE	TOGGLE	F	I/E AutoRange
IERANGE	IQUANT	4	I/E Range
POSFEEDENABLE	TOGGLE	F	Positive Feedback IR Comp
POSFEEDRESISTANCE	QUANT	0	Positive Feedback Resistance (ohm)
ACHSELECT	IQUANT	0	Ach Select
CABLEID	IQUANT	14	Cable ID
DCCALDATE	LABEL	8/19/2019	DC Calibration Date
ACCALDATE	LABEL	8/19/2019	AC Calibration Date
THERMOSELECT	IQUANT	1	Thermo Select
FRAMEWORKVERSION	QUANT	6.33	Framework Version
INSTRUMENTVERSION	LABEL	3.50	Instrument Version
ZCURVE	TABLE
	Pt	Time	Freq	Zreal	Zimag	Zsig	Zmod	Zphz	Idc	Vdc	IERange
	#	s	Hz	ohm	ohm	V	ohm	°	A	V	#
	0	2	1000078	2132.557	-1612.162	1	2673.363	-37.08841	-1.935833E-006	0.0042715	8
	1	2	794390.6	2397.626	-1675.405	1	2924.995	-34.94495	-7.192056E-006	0.0044745	8
	2	2	630984.4	2664.122	-1724.421	1	3173.511	-32.91399	3.838398E-006	0.003547	8
	3	3	501234.4	2932.423	-1750.621	1	3415.227	-30.83669	-2.141426E-006	0.0035962	8
	4	3	398109.4	3210.549	-1786.118	1	3673.941	-29.08841	-1.485308E-006	0.0028298	8
	5	3	316265.6	3502.086	-1806.274	1	3940.461	-27.28336	-3.285869E-007	0.0035301	8
	6	3	251203.1	3814.462	-1828.356	1	4230.012	-25.60943	-6.141774E-008	0.002742	8
	7	4	199546.9	4135.627	-1800.823	1	4510.696	-23.53029	-8.294322E-007	0.0034639	8
	8	4	158578.1	4447.267	-1740.184	1	4775.607	-21.37005	-2.39415E-006	0.0029503	8
	9	4	125953.1	4842.126	-1647.726	1	5114.8	-18.79291	2.293727E-006	0.0028041	7
	10	5	100078.1	5092.746	-1517.056	1	5313.899	-16.58804	4.760016E-007	0.0012829	7
	11	5	79453.13	5319.101	-1400.3	1	5500.333	-14.74897	-9.297697E-007	0.0047914	7
	12	5	63140.62	5524.596	-1267.408	1	5668.111	-12.92075	-1.149837E-006	0.0047405	7
	13	6	50203.12	5711.069	-1144.497	1	5824.619	-11.33195	1.01399E-007	0.0039976	7
	14	6	39890.62	5853.459	-1022.19	1	5942.042	-9.90568	6.736082E-007	0.0031734	7
	15	6	31640.63	5963.36	-911.3435	1	6032.595	-8.688933	1.169552E-006	0.0017578	7
	16	7	25171.88	6026.04	-821.6428	1	6081.796	-7.764328	4.757687E-007	0.001268	7
	17	7	20015.62	6112.785	-761.7055	1	6160.06	-7.102934	4.42766E-007	0.0035316	7
	18	7	15890.62	6155.061	-718.6238	1	6196.87	-6.659323	4.758875E-007	0.0012619	7
	19	8	12609.37	6194.505	-701.6378	1	6234.115	-6.462224	8.234793E-008	0.0015999	7
	20	8	10078.13	6252.131	-737.196	1	6295.443	-6.724761	1.065889E-007	0.0039946	7
	21	9	8015.625	6310.043	-740.9849	1	6353.401	-6.697538	1.019093E-006	0.0011998	7
	22	9	6328.125	6331.392	-793.5382	1	6380.926	-7.143854	-9.288868E-007	0.0047797	7
	23	9	5015.625	6391.18	-882.0387	1	6451.757	-7.857683	1.018354E-006	0.001202	7
	24	10	3984.375	6449.329	-1009.454	1	6527.851	-8.895803	9.019424E-007	0.0027172	7
	25	10	3170.956	6497.496	-1156.179	1	6599.561	-10.08974	6.7529E-007	0.003173	7
	26	11	2527.573	6533.275	-1343.783	1	6670.041	-11.62267	4.71117E-007	0.0012612	7
	27	11	1976.103	6590.563	-1612.212	1	6784.891	-13.74599	-1.147853E-006	0.0047241	7
	28	11	1577.524	6672.339	-1910.461	1	6940.459	-15.97777	-1.291377E-006	0.0041739	7
	29	12	1265.625	6749.282	-2281.192	1	7124.37	-18.67476	-3.59145E-007	0.0021451	7
	30	12	998.264	6868.459	-2772.578	1	7406.951	-21.98236	-9.286291E-007	0.0047695	7
	31	13	796.875	6990.893	-3353.764	1	7753.729	-25.62859	-2.754185E-007	0.00441	7
	32	13	627.7902	7135.746	-4098.266	1	8228.891	-29.87	4.745301E-007	0.001258	7
	33	13	505.5147	7301.087	-4939.012	1	8814.744	-34.07742	-6.293823E-007	0.0046756	7
	34	14	397.9953	7516.38	-6076.794	1	9665.58	-38.95462	5.875966E-010	0.003022	7
	35	14	315.5048	7773.824	-7443.629	1	10762.9	-43.75697	2.763582E-010	0.0029525	6
	36	14	252.4038	8077.903	-9061.626	1	12139.42	-48.28489	-4.032846E-010	0.0029551	6
	37	15	198.6229	8489.145	-11205.81	1	14058.3	-52.85366	5.124954E-010	0.0029589	6
	38	15	158.3615	8984.348	-13698.55	1	16381.96	-56.74068	1.999412E-011	0.0029522	6
	39	15	125.558	9629.94	-16845.15	1	19403.47	-60.24451	5.856101E-010	0.0029613	6
	40	16	100.4464	10461.36	-20528.95	1	23040.78	-62.99703	-3.20471E-010	0.0029542	6
	41	16	79.00281	11621.29	-25426.34	1	27956.27	-65.43689	-1.160829E-010	0.0029562	6
	42	16	63.3446	12975.4	-31135.68	1	33731.16	-67.37669	-1.486926E-010	0.0029577	6
	43	17	49.86702	14863.14	-38260.12	1	41045.7	-68.77004	-2.015072E-010	0.0029453	6
	44	17	39.72458	17408.94	-46307.37	1	49471.65	-69.39659	1.420891E-010	0.0029581	6
	45	17	31.6723	20698.85	-56114.66	1	59810.51	-69.75264	7.613364E-010	0.0029548	6
	46	18	24.93351	25149.89	-68706.83	1	73165.19	-69.89503	-6.619331E-010	0.0029524	6
	47	18	19.86229	30770.33	-82923.19	1	88448.11	-69.64161	-7.968406E-010	0.0029508	6
	48	18	15.83615	38858.39	-99791	1	107089.8	-68.72418	1.667701E-009	0.0029499	5
	49	18	12.40079	48840.47	-119726.8	1	129305.5	-67.80785	1.01438E-009	0.0029442	5
	50	19	9.93114	61055.03	-142090.9	1	154652.9	-66.74728	3.316892E-010	0.0029501	5
	51	19	7.944915	76293.24	-166469.6	1	183119.6	-65.37795	-5.484727E-010	0.0029557	5
	52	20	6.317385	96036.5	-194239	1	216683.7	-63.69109	-3.140576E-010	0.0029664	5
	53	21	5.008013	120325.9	-225178.2	1	255310.7	-61.88181	1.469188E-010	0.0029621	5
	54	22	3.945707	149186.1	-260403.7	1	300110.9	-60.19146	-8.221981E-011	0.0029437	5
	55	23	3.158693	180438.6	-294910.7	1	345731.7	-58.53997	2.778958E-010	0.0029486	5
	56	25	2.504006	216568.8	-334635.1	1	398600.9	-57.0899	4.020533E-010	0.0029493	5
	57	26	1.998082	255553.8	-376309.5	1	454880.8	-55.81937	6.256474E-011	0.0029072	5
	58	28	1.584686	298090.7	-425681.2	1	519675.4	-54.9977	4.214949E-011	0.0029085	5
	59	30	1.266892	341738.9	-478399.9	1	587921.7	-54.46037	1.356851E-010	0.0029461	5
	60	32	0.999041	393627.4	-543655.1	1	671195.6	-54.094	1.612894E-010	0.0029732	5
