EXPLAIN
TAG	EISPOT
TITLE	LABEL	Potentiostatic IDE	Test &Identifier
DATE	LABEL	9/16/2019	Date
TIME	LABEL	8:46:17	Time
NOTES	NOTES	1	&Notes...
	
PSTAT	PSTAT	REF600-11020	Potentiostat
VDC	POTEN	0.00000E+000	T	DC &Voltage (V)
FREQINIT	QUANT	1.00000E+006	Initial Fre&q. (Hz)
FREQFINAL	QUANT	1.00000E+000	Final Fre&q. (Hz)
PTSPERDEC	QUANT	1.00000E+001	Points/&decade
VAC	QUANT	2.50000E+001	AC &Voltage (mV rms)
AREA	QUANT	1.00000E-002	&Area (cm^2)
CONDIT	TWOPARAM	T	5.00000E+000	0.00000E+000	Conditionin&g	Time(s)	E(V)
DELAY	TWOPARAM	T	5.00000E+000	0.00000E+000	Init. De&lay	Time(s)	Stab.(mV/s)
SPEED	SELECTOR	1	&Optimize for:
ZGUESS	QUANT	1.00000E+007	E&stimated Z (ohms)
OCVCURVE	TABLE	19
	Pt	T	Vf	Vm	Ach	Over
	#	s	V vs. Ref.	V	V	bits
	0	0.258333	-3.28133E-003	-3.28133E-003	5.65399E-004	...........
	1	0.516667	-3.29362E-003	-3.92436E-003	5.64766E-004	...........
	2	0.775	-3.36856E-003	-4.50807E-003	5.65432E-004	...........
	3	1.03333	-3.57904E-003	-5.07463E-003	5.67632E-004	...........
	4	1.29167	-3.95259E-003	-5.59808E-003	5.66766E-004	...........
	5	1.55	-4.44461E-003	-6.08285E-003	5.64366E-004	...........
	6	1.80833	-4.98314E-003	-6.54048E-003	5.61132E-004	...........
	7	2.06667	-5.51454E-003	-6.94680E-003	5.63566E-004	...........
	8	2.325	-6.01399E-003	-7.36970E-003	5.65866E-004	...........
	9	2.58333	-6.47732E-003	-7.74704E-003	5.62566E-004	...........
	10	2.84167	-6.90991E-003	-8.11137E-003	5.66799E-004	...........
	11	3.1	-7.31747E-003	-8.44827E-003	5.68066E-004	...........
	12	3.35833	-7.70266E-003	-8.77697E-003	5.65999E-004	...........
	13	3.61667	-8.06689E-003	-9.08734E-003	5.66866E-004	...........
	14	3.875	-8.41225E-003	-9.39482E-003	5.68599E-004	...........
	15	4.13333	-8.74145E-003	-9.67900E-003	5.62332E-004	...........
	16	4.39167	-9.05667E-003	-9.95442E-003	5.62899E-004	...........
	17	4.65	-9.35869E-003	-1.02149E-002	5.72032E-004	...........
	18	4.90833	-9.64746E-003	-1.04649E-002	5.66599E-004	...........
EOC	QUANT	-0.0096475	Open Circuit (V)
PSTATMODEL	IQUANT	4	Pstat Model
PSTATSECTION	LABEL	REF600-11020	Pstat Section
PSTATSERIALNO	LABEL	11020	Pstat Serial Number
CTRLMODE	IQUANT	1	Control Mode
IESTAB	IQUANT	0	I/E Stability
CASPEED	IQUANT	1	Control Amp Speed
CONVENTION	IQUANT	1	Current Convention
ICHRANGE	IQUANT	2	Ich Range
ICHRANGEMODE	TOGGLE	F	Ich Auto Range
ICHOFFSETENABLE	TOGGLE	T	Ich Offset Enable
ICHOFFSET	QUANT	0	Ich Offset (V)
ICHFILTER	IQUANT	3	Ich Filter
VCHRANGE	IQUANT	2	Vch Range
VCHRANGEMODE	TOGGLE	F	Vch Auto Range
VCHOFFSETENABLE	TOGGLE	T	Vch Offset Enable
VCHOFFSET	QUANT	0	Vch Offset (V)
VCHFILTER	IQUANT	3	Vch Filter
ACHRANGE	IQUANT	2	Ach Range
ACHOFFSETENABLE	TOGGLE	F	Ach Offset Enable
ACHOFFSET	QUANT	0	Ach Offset (V)
ACHFILTER	IQUANT	3	Ach Filter
IERANGELOWERLIMIT	IQUANT	1	I/E Range Lower Limit
IERANGEMODE	TOGGLE	F	I/E AutoRange
IERANGE	IQUANT	3	I/E Range
POSFEEDENABLE	TOGGLE	F	Positive Feedback IR Comp
POSFEEDRESISTANCE	QUANT	0	Positive Feedback Resistance (ohm)
ACHSELECT	IQUANT	0	Ach Select
CABLEID	IQUANT	14	Cable ID
DCCALDATE	LABEL	8/19/2019	DC Calibration Date
ACCALDATE	LABEL	8/19/2019	AC Calibration Date
THERMOSELECT	IQUANT	1	Thermo Select
FRAMEWORKVERSION	QUANT	6.33	Framework Version
INSTRUMENTVERSION	LABEL	3.50	Instrument Version
ZCURVE	TABLE
	Pt	Time	Freq	Zreal	Zimag	Zsig	Zmod	Zphz	Idc	Vdc	IERange
	#	s	Hz	ohm	ohm	V	ohm	°	A	V	#
	0	2	1000078	2359.864	-1693.472	1	2904.618	-35.66376	1.002414E-005	-0.0090405	8
	1	3	794390.6	2713.674	-1626.535	1	3163.802	-30.93783	-9.7959E-007	-0.0085994	8
	2	5	630984.4	3011.876	-1504.027	1	3366.526	-26.53596	-1.0002E-006	-0.0076329	8
	3	6	501234.4	3285.039	-1336.367	1	3546.457	-22.13669	5.977933E-006	-0.0091631	8
	4	8	398109.4	3473.998	-1189.538	1	3672.011	-18.90182	-1.597091E-006	-0.0078172	8
	5	9	316265.6	3619.31	-1022.193	1	3760.889	-15.77114	4.047972E-006	-0.0088945	8
	6	10	251203.1	3744.3	-865.1495	1	3842.95	-13.01031	-8.546922E-007	-0.0078642	8
	7	12	199546.9	3838.796	-760.8307	1	3913.466	-11.21046	1.95755E-006	-0.0087183	8
	8	13	158578.1	3900.007	-648.3321	1	3953.529	-9.438462	-4.55046E-006	-0.0071355	8
	9	15	125953.1	3967.148	-517.244	1	4000.726	-7.428423	-8.561626E-007	-0.0057324	7
	10	16	100078.1	3993.837	-466.0285	1	4020.935	-6.655569	7.274974E-008	-0.0083254	7
	11	17	79453.13	4028.464	-428.9114	1	4051.233	-6.077398	1.314437E-007	-0.0083948	7
	12	19	63140.62	4059.967	-404.829	1	4080.101	-5.694276	7.100735E-008	-0.0082305	7
	13	20	50203.12	4091.173	-389.8547	1	4109.707	-5.443374	-3.229322E-009	-0.0082656	7
	14	21	39890.62	4120.325	-389.5459	1	4138.698	-5.400835	-8.726981E-009	-0.0081814	7
	15	23	31640.63	4152.265	-395.5446	1	4171.062	-5.441574	-3.086906E-008	-0.0082013	7
	16	24	25171.88	4185.358	-412.2592	1	4205.613	-5.625508	-6.893519E-008	-0.0081045	7
	17	25	20015.62	4220.154	-441.1735	1	4243.151	-5.968005	-1.952063E-008	-0.0080671	7
	18	27	15890.62	4257.852	-481.3222	1	4284.97	-6.449533	7.475784E-008	-0.0083389	7
	19	28	12609.37	4297.844	-531.7335	1	4330.612	-7.052851	-2.013582E-009	-0.0082721	7
	20	29	10078.13	4337.687	-592.9242	1	4378.023	-7.783598	-1.852987E-008	-0.0080674	7
	21	31	8015.625	4385.924	-674.2498	1	4437.448	-8.739681	4.417242E-008	-0.0083545	7
	22	32	6328.125	4437.891	-777.5109	1	4505.485	-9.93727	1.338003E-007	-0.0084068	7
	23	33	5015.625	4493.367	-902.0736	1	4583.021	-11.35162	4.483813E-008	-0.0083565	7
	24	35	3984.375	4554.097	-1053.455	1	4674.352	-13.02459	-3.566972E-008	-0.0081683	7
	25	36	3170.956	4621.012	-1238.415	1	4784.081	-15.00253	-1.963543E-009	-0.0082715	7
	26	37	2527.573	4697.544	-1464.135	1	4920.428	-17.31126	-3.153323E-008	-0.0082107	7
	27	39	1976.103	4791.946	-1765.276	1	5106.755	-20.22299	-1.936126E-008	-0.0080738	7
	28	40	1577.524	4890.167	-2102.033	1	5322.807	-23.2604	7.39968E-008	-0.0083484	7
	29	41	1265.625	5015.039	-2503.914	1	5605.372	-26.53209	-1.039984E-009	-0.0082736	7
	30	43	998.264	5146.106	-3024.531	1	5969.104	-30.44411	-3.757189E-008	-0.0081936	7
	31	44	796.875	5301.18	-3633.431	1	6426.844	-34.42676	-6.795957E-009	-0.0081885	7
	32	45	627.7902	5491.934	-4421.515	1	7050.612	-38.83728	-5.93199E-009	-0.0081827	7
	33	47	505.5147	5701.714	-5284.553	1	7774.062	-42.82546	2.376508E-008	-0.0082953	7
	34	48	397.9953	5960.248	-6459.88	1	8789.46	-47.30363	6.588067E-009	-0.0081912	7
	35	49	315.5048	6262.959	-7861.264	1	10051.08	-51.45616	6.667102E-010	-0.0082605	6
	36	51	252.4038	6602.736	-9511.68	1	11578.78	-55.23272	8.951125E-010	-0.0082656	6
	37	52	198.6229	7037.515	-11698.37	1	13652.05	-58.96968	1.617717E-009	-0.0082632	6
	38	53	158.3615	7534.976	-14249.31	1	16118.89	-62.1303	1.502324E-009	-0.0082648	6
	39	55	125.558	8165.916	-17468.82	1	19283.2	-64.94595	1.342478E-009	-0.0082641	6
	40	56	100.4464	8936.458	-21272.65	1	23073.49	-67.21314	2.029607E-009	-0.0082676	6
	41	57	79.00281	9921.87	-26335.39	1	28142.43	-69.35609	6.517217E-010	-0.0082687	6
	42	59	63.3446	11458.47	-31998.71	1	33988.44	-70.29798	8.120591E-010	-0.0082645	6
	43	60	49.86702	12720.87	-39625.73	1	41617.53	-72.20205	3.028511E-010	-0.0082618	6
	44	61	39.72458	15151.74	-48293.16	1	50614.27	-72.581	1.077169E-009	-0.0082525	6
	45	63	31.6723	17912.49	-59055.01	1	61711.84	-73.12646	4.592881E-010	-0.0082631	6
	46	64	24.93351	21924.18	-72451.48	1	75696.02	-73.16393	9.222055E-010	-0.0082633	6
	47	65	19.86229	26977.94	-87885.74	1	91933.2	-72.9353	9.240035E-010	-0.0082646	6
	48	67	15.83615	33057.25	-105512.6	1	110569.8	-72.60414	1.655786E-009	-0.008261	5
	49	68	12.40079	43252.32	-129283	1	136326.3	-71.50206	2.060095E-009	-0.0082603	5
	50	70	9.93114	54066.71	-155865.3	1	164976.4	-70.86931	5.850385E-010	-0.0082448	5
	51	71	7.944915	68891.19	-185686.4	1	198054.1	-69.64473	6.475813E-010	-0.0082612	5
	52	73	6.317385	86803.76	-221249.5	1	237668.4	-68.57822	8.117321E-010	-0.0082693	5
	53	75	5.008013	111269.6	-262705.4	1	285298.2	-67.04479	2.520717E-010	-0.0082627	5
	54	77	3.945707	142836.9	-310645	1	341910.4	-65.30668	7.651225E-010	-0.0082528	5
	55	80	3.158693	179687.1	-360380.9	1	402693.3	-63.49901	1.917229E-010	-0.0082564	5
	56	83	2.504006	225837.4	-416550.9	1	473832.4	-61.53521	1.771949E-010	-0.008269	5
	57	86	1.998082	279237.2	-475308.2	1	551263.4	-59.56633	-1.4416E-011	-0.0082605	5
	58	89	1.584686	340345.4	-540912.4	1	639078.4	-57.82164	3.08799E-010	-0.0082146	5
	59	92	1.266892	408617.9	-606895.9	1	731636	-56.04795	-5.393924E-012	-0.0082837	5
	60	97	0.999041	488933.5	-680031	1	837554.8	-54.28436	4.217287E-010	-0.0082166	5
