EXPLAIN
TAG	EISPOT
TITLE	LABEL	Potentiostatic EIS	Test &Identifier
DATE	LABEL	9/26/2019	Date
TIME	LABEL	11:34:35	Time
NOTES	NOTES	2	&Notes...
	
	
PSTAT	PSTAT	REF600-11020	Potentiostat
VDC	POTEN	0.00000E+000	T	DC &Voltage (V)
FREQINIT	QUANT	1.00000E+006	Initial Fre&q. (Hz)
FREQFINAL	QUANT	1.00000E+000	Final Fre&q. (Hz)
PTSPERDEC	QUANT	1.00000E+001	Points/&decade
VAC	QUANT	2.50000E+001	AC &Voltage (mV rms)
AREA	QUANT	1.00000E-002	&Area (cm^2)
CONDIT	TWOPARAM	T	5.00000E+000	0.00000E+000	Conditionin&g	Time(s)	E(V)
DELAY	TWOPARAM	T	5.00000E+000	0.00000E+000	Init. De&lay	Time(s)	Stab.(mV/s)
SPEED	SELECTOR	1	&Optimize for:
ZGUESS	QUANT	1.00000E+004	E&stimated Z (ohms)
OCVCURVE	TABLE	19
	Pt	T	Vf	Vm	Ach	Over
	#	s	V vs. Ref.	V	V	bits
	0	0.258333	3.23566E-002	3.23566E-002	5.79832E-004	...........
	1	0.516667	3.23852E-002	3.38581E-002	5.80965E-004	...........
	2	0.775	3.25607E-002	3.52458E-002	5.80465E-004	...........
	3	1.03333	3.30511E-002	3.63836E-002	5.83865E-004	...........
	4	1.29167	3.39075E-002	3.74485E-002	5.84499E-004	...........
	5	1.55	3.50052E-002	3.84951E-002	5.82699E-004	...........
	6	1.80833	3.61709E-002	3.94209E-002	5.83865E-004	...........
	7	2.06667	3.72961E-002	4.03421E-002	5.80632E-004	...........
	8	2.325	3.83454E-002	4.12057E-002	5.83932E-004	...........
	9	2.58333	3.93220E-002	4.20338E-002	5.82599E-004	...........
	10	2.84167	4.02398E-002	4.28009E-002	5.80499E-004	...........
	11	3.1	4.11084E-002	4.35217E-002	5.80599E-004	...........
	12	3.35833	4.19299E-002	4.41918E-002	5.81365E-004	...........
	13	3.61667	4.27041E-002	4.48420E-002	5.80432E-004	...........
	14	3.875	4.34318E-002	4.54403E-002	5.79232E-004	...........
	15	4.13333	4.41168E-002	4.60309E-002	5.75766E-004	...........
	16	4.39167	4.47638E-002	4.65690E-002	5.80132E-004	...........
	17	4.65	4.53768E-002	4.71042E-002	5.78032E-004	...........
	18	4.90833	4.59589E-002	4.75823E-002	5.79332E-004	...........
EOC	QUANT	0.0459589	Open Circuit (V)
PSTATMODEL	IQUANT	4	Pstat Model
PSTATSECTION	LABEL	REF600-11020	Pstat Section
PSTATSERIALNO	LABEL	11020	Pstat Serial Number
CTRLMODE	IQUANT	1	Control Mode
IESTAB	IQUANT	0	I/E Stability
CASPEED	IQUANT	1	Control Amp Speed
CONVENTION	IQUANT	1	Current Convention
ICHRANGE	IQUANT	2	Ich Range
ICHRANGEMODE	TOGGLE	F	Ich Auto Range
ICHOFFSETENABLE	TOGGLE	T	Ich Offset Enable
ICHOFFSET	QUANT	0	Ich Offset (V)
ICHFILTER	IQUANT	3	Ich Filter
VCHRANGE	IQUANT	2	Vch Range
VCHRANGEMODE	TOGGLE	F	Vch Auto Range
VCHOFFSETENABLE	TOGGLE	T	Vch Offset Enable
VCHOFFSET	QUANT	0	Vch Offset (V)
VCHFILTER	IQUANT	3	Vch Filter
ACHRANGE	IQUANT	2	Ach Range
ACHOFFSETENABLE	TOGGLE	F	Ach Offset Enable
ACHOFFSET	QUANT	0	Ach Offset (V)
ACHFILTER	IQUANT	3	Ach Filter
IERANGELOWERLIMIT	IQUANT	1	I/E Range Lower Limit
IERANGEMODE	TOGGLE	F	I/E AutoRange
IERANGE	IQUANT	6	I/E Range
POSFEEDENABLE	TOGGLE	F	Positive Feedback IR Comp
POSFEEDRESISTANCE	QUANT	0	Positive Feedback Resistance (ohm)
ACHSELECT	IQUANT	0	Ach Select
CABLEID	IQUANT	14	Cable ID
DCCALDATE	LABEL	8/19/2019	DC Calibration Date
ACCALDATE	LABEL	8/19/2019	AC Calibration Date
THERMOSELECT	IQUANT	1	Thermo Select
FRAMEWORKVERSION	QUANT	6.33	Framework Version
INSTRUMENTVERSION	LABEL	3.50	Instrument Version
ZCURVE	TABLE
	Pt	Time	Freq	Zreal	Zimag	Zsig	Zmod	Zphz	Idc	Vdc	IERange
	#	s	Hz	ohm	ohm	V	ohm	°	A	V	#
	0	2	1000078	1743.209	-2009.122	1	2659.953	-49.05355	-2.02047E-006	0.04892	8
	1	3	794390.6	1851.714	-2264.365	1	2925.097	-50.72498	5.503798E-006	0.0470334	8
	2	5	630984.4	1984.446	-2621.496	1	3287.896	-52.87465	4.451789E-006	0.0467393	8
	3	6	501234.4	2115.332	-3064.772	1	3723.904	-55.38623	2.208269E-007	0.0474809	8
	4	8	398109.4	2288.489	-3670.406	1	4325.397	-58.05656	-3.363089E-006	0.0483129	8
	5	9	316265.6	2456.168	-4391.128	1	5031.378	-60.77962	-7.790841E-007	0.0478059	8
	6	11	251203.1	2706.266	-5345.97	1	5991.934	-63.15031	-3.167777E-006	0.0482393	8
	7	12	199546.9	3062.599	-6510.56	1	7194.922	-64.80747	3.090716E-006	0.0469553	8
	8	14	158578.1	3455.908	-7815.918	1	8545.869	-66.14677	6.817571E-007	0.0476208	8
	9	16	125953.1	4266.804	-9601.42	1	10506.8	-66.03997	-5.714684E-007	0.0496284	7
	10	18	100078.1	5241.959	-11628.73	1	12755.61	-65.73527	2.559933E-009	0.0474641	7
	11	19	79453.13	6483.366	-14018.69	1	15445.32	-65.1804	2.797317E-009	0.0475649	7
	12	21	63140.62	8184.791	-16741.07	1	18634.76	-63.94577	-4.389568E-008	0.0477014	7
	13	22	50203.12	10464.54	-19653.84	1	22266.11	-61.96727	-3.711006E-008	0.047529	7
	14	24	39890.62	13485.51	-22901.32	1	26576.86	-59.50818	7.961179E-008	0.0473994	7
	15	25	31640.63	16994.32	-26071.65	1	31121.34	-56.90243	1.041227E-007	0.0474645	7
	16	26	25171.88	21286.47	-29149.45	1	36094.38	-53.8611	3.250511E-009	0.0475571	7
	17	28	20015.62	26172.99	-32117.62	1	41431.47	-50.82304	1.497093E-007	0.0473116	7
	18	29	15890.62	31767.39	-34338.63	1	46779.36	-47.22743	-4.32838E-008	0.047535	7
	19	31	12609.37	38009.31	-36262.66	1	52532.73	-43.65283	-4.228297E-009	0.0473887	6
	20	32	10078.13	43933.7	-38060.13	1	58126.96	-40.90266	-1.076027E-009	0.047579	6
	21	34	8015.625	49687.15	-39540.52	1	63500.12	-38.51241	-1.297113E-008	0.0475763	6
	22	35	6328.125	55591.77	-41656.7	1	69467.45	-36.8454	-4.481306E-008	0.0476928	7
	23	37	5015.625	61926.03	-42529.94	1	75124.09	-34.48074	1.315998E-009	0.0473532	6
	24	38	3984.375	67909.93	-44108.35	1	80977.19	-33.00423	-8.661299E-009	0.0475309	6
	25	40	3170.956	73919.91	-45726.08	1	86919.66	-31.7405	-1.115128E-008	0.0475764	6
	26	41	2527.573	80075.81	-47819.84	1	93267.74	-30.84489	1.813492E-008	0.0472046	6
	27	43	1976.103	86997.3	-50552.29	1	100618.4	-30.15997	-5.187511E-009	0.0473912	6
	28	45	1577.524	93666.64	-53186.86	1	107713.9	-29.58927	5.131771E-009	0.0474705	6
	29	46	1265.625	101052	-54941.16	1	115021.9	-28.53256	-1.161512E-009	0.0474773	5
	30	48	998.264	108779.3	-58617.32	1	123567.5	-28.31865	-2.538727E-009	0.0476669	5
	31	49	796.875	116355.4	-63019.27	1	132325.4	-28.44043	-1.137434E-009	0.0475631	5
	32	50	627.7902	125304	-68190.87	1	142657.3	-28.55518	-1.154091E-009	0.0475646	5
	33	52	505.5147	134143.7	-73338.68	1	152882.6	-28.66618	-1.685703E-009	0.0476148	5
	34	53	397.9953	144420.5	-79320.52	1	164769.6	-28.77706	-3.321148E-010	0.0474909	5
	35	54	315.5048	155728.9	-85697.5	1	177751.4	-28.82395	-1.637888E-009	0.0474855	5
	36	56	252.4038	166882.3	-92200.32	1	190658.3	-28.92009	-6.650869E-010	0.0474881	5
	37	57	198.6229	180364.8	-99168.8	1	205829.8	-28.80304	-1.094282E-009	0.0474849	5
	38	58	158.3615	193312.7	-105878.8	1	220408.9	-28.70985	-1.330915E-009	0.047474	5
	39	60	125.558	206450.3	-114521.7	1	236086.7	-29.01793	-1.160496E-009	0.0474902	5
	40	61	100.4464	220310.3	-123049.1	1	252344.4	-29.18452	-7.908834E-010	0.0474877	5
	41	63	79.00281	234175.6	-137483.7	1	271551.1	-30.41704	-5.866454E-010	0.0474832	5
	42	65	63.3446	232609.9	-156495	1	280353.5	-33.93183	-1.622076E-010	0.0474846	5
	43	66	49.86702	264057.9	-164877.3	1	311305.5	-31.98059	-1.171746E-009	0.0474819	5
	44	68	39.72458	283697.8	-187145.1	1	339864.3	-33.41138	-6.49558E-010	0.0474842	5
	45	69	31.6723	300922	-202833.7	1	362898.9	-33.98158	-5.191872E-010	0.0474765	5
	46	71	24.93351	329446.3	-234006.2	1	404096.2	-35.38623	-8.230133E-010	0.0474784	5
	47	73	19.86229	358747.6	-263865.4	1	445336.7	-36.33516	-6.905941E-010	0.047484	5
	48	74	15.83615	400212.7	-277159.8	1	486813.9	-34.70381	-2.570703E-009	0.047486	5
	49	75	12.40079	417790.4	-341964.9	1	539897.1	-39.30061	-6.610488E-010	0.0474803	5
	50	77	9.93114	462960.9	-378072.7	1	597722.1	-39.23647	-6.708667E-010	0.0474797	5
	51	78	7.944915	506357.4	-414771.4	1	654548.1	-39.32185	-8.576908E-010	0.0474722	6
	52	80	6.317385	558521.6	-481897	1	737679.6	-40.78789	-3.198809E-010	0.0474735	6
	53	83	5.008013	617163.5	-545617.3	1	823765.1	-41.47901	-2.792586E-010	0.0474871	6
	54	86	3.945707	686496.1	-613846.3	1	920914.9	-41.80222	-5.885676E-010	0.0474822	6
	55	89	3.158693	762147.1	-695291.1	1	1031648	-42.37355	-9.109068E-010	0.0474702	5
	56	93	2.504006	855437.9	-784212.6	1	1160501	-42.51267	-8.959362E-010	0.0474911	4
	57	95	1.998082	956911	-876248.4	1	1297494	-42.4805	-6.356098E-010	0.0474531	4
	58	98	1.584686	1077815	-981037	1	1457435	-42.30874	-9.449242E-010	0.0474454	4
	59	102	1.266892	1209627	-1086561	1	1625980	-41.93212	-7.387755E-010	0.0474462	4
	60	106	0.999041	1364165	-1202420	1	1818450	-41.39402	-9.479847E-010	0.0475013	4
