EXPLAIN
TAG	EISPOT
TITLE	LABEL	Potentiostatic EIS	Test &Identifier
DATE	LABEL	9/20/2019	Date
TIME	LABEL	12:33:57	Time
NOTES	NOTES	1	&Notes...
	
PSTAT	PSTAT	REF600-11020	Potentiostat
VDC	POTEN	0.00000E+000	T	DC &Voltage (V)
FREQINIT	QUANT	1.00000E+006	Initial Fre&q. (Hz)
FREQFINAL	QUANT	1.00000E+000	Final Fre&q. (Hz)
PTSPERDEC	QUANT	1.00000E+001	Points/&decade
VAC	QUANT	2.50000E+001	AC &Voltage (mV rms)
AREA	QUANT	1.00000E-002	&Area (cm^2)
CONDIT	TWOPARAM	T	5.00000E+000	0.00000E+000	Conditionin&g	Time(s)	E(V)
DELAY	TWOPARAM	T	5.00000E+000	0.00000E+000	Init. De&lay	Time(s)	Stab.(mV/s)
SPEED	SELECTOR	1	&Optimize for:
ZGUESS	QUANT	1.00000E+004	E&stimated Z (ohms)
OCVCURVE	TABLE	19
	Pt	T	Vf	Vm	Ach	Over
	#	s	V vs. Ref.	V	V	bits
	0	0.258333	3.71605E-004	3.71605E-004	5.62199E-004	...........
	1	0.516667	3.58596E-004	-3.09351E-004	5.56733E-004	...........
	2	0.775	2.79462E-004	-9.15695E-004	5.53566E-004	...........
	3	1.03333	5.91642E-005	-1.44098E-003	5.56899E-004	...........
	4	1.29167	-3.24951E-004	-1.91900E-003	5.51699E-004	...........
	5	1.55	-8.17055E-004	-2.34729E-003	5.57566E-004	...........
	6	1.80833	-1.33695E-003	-2.74022E-003	5.54099E-004	...........
	7	2.06667	-1.83112E-003	-3.09764E-003	5.54233E-004	...........
	8	2.325	-2.28004E-003	-3.42930E-003	5.54266E-004	...........
	9	2.58333	-2.68409E-003	-3.72964E-003	5.57632E-004	...........
	10	2.84167	-3.04992E-003	-4.01282E-003	5.56299E-004	...........
	11	3.1	-3.38408E-003	-4.27264E-003	5.55666E-004	...........
	12	3.35833	-3.69153E-003	-4.51665E-003	5.53266E-004	...........
	13	3.61667	-3.97589E-003	-4.74317E-003	5.56299E-004	...........
	14	3.875	-4.23996E-003	-4.95903E-003	5.54899E-004	...........
	15	4.13333	-4.48607E-003	-5.15799E-003	5.52066E-004	...........
	16	4.39167	-4.71618E-003	-5.34751E-003	5.50599E-004	...........
	17	4.65	-4.93183E-003	-5.52492E-003	5.52832E-004	...........
	18	4.90833	-5.13431E-003	-5.69528E-003	5.60199E-004	...........
EOC	QUANT	-0.0051343	Open Circuit (V)
PSTATMODEL	IQUANT	4	Pstat Model
PSTATSECTION	LABEL	REF600-11020	Pstat Section
PSTATSERIALNO	LABEL	11020	Pstat Serial Number
CTRLMODE	IQUANT	1	Control Mode
IESTAB	IQUANT	0	I/E Stability
CASPEED	IQUANT	1	Control Amp Speed
CONVENTION	IQUANT	1	Current Convention
ICHRANGE	IQUANT	2	Ich Range
ICHRANGEMODE	TOGGLE	F	Ich Auto Range
ICHOFFSETENABLE	TOGGLE	T	Ich Offset Enable
ICHOFFSET	QUANT	0	Ich Offset (V)
ICHFILTER	IQUANT	3	Ich Filter
VCHRANGE	IQUANT	2	Vch Range
VCHRANGEMODE	TOGGLE	F	Vch Auto Range
VCHOFFSETENABLE	TOGGLE	T	Vch Offset Enable
VCHOFFSET	QUANT	0	Vch Offset (V)
VCHFILTER	IQUANT	3	Vch Filter
ACHRANGE	IQUANT	2	Ach Range
ACHOFFSETENABLE	TOGGLE	F	Ach Offset Enable
ACHOFFSET	QUANT	0	Ach Offset (V)
ACHFILTER	IQUANT	3	Ach Filter
IERANGELOWERLIMIT	IQUANT	1	I/E Range Lower Limit
IERANGEMODE	TOGGLE	F	I/E AutoRange
IERANGE	IQUANT	5	I/E Range
POSFEEDENABLE	TOGGLE	F	Positive Feedback IR Comp
POSFEEDRESISTANCE	QUANT	0	Positive Feedback Resistance (ohm)
ACHSELECT	IQUANT	0	Ach Select
CABLEID	IQUANT	14	Cable ID
DCCALDATE	LABEL	8/19/2019	DC Calibration Date
ACCALDATE	LABEL	8/19/2019	AC Calibration Date
THERMOSELECT	IQUANT	1	Thermo Select
FRAMEWORKVERSION	QUANT	6.33	Framework Version
INSTRUMENTVERSION	LABEL	3.50	Instrument Version
ZCURVE	TABLE
	Pt	Time	Freq	Zreal	Zimag	Zsig	Zmod	Zphz	Idc	Vdc	IERange
	#	s	Hz	ohm	ohm	V	ohm	°	A	V	#
	0	1	1000078	2345.335	-1972.377	1	3064.452	-40.06312	1.127095E-006	-0.0035508	8
	1	3	794390.6	2732.56	-1993.41	1	3382.39	-36.11086	-6.192637E-006	-0.0019169	8
	2	4	630984.4	3120.839	-1968.837	1	3689.98	-32.2465	6.700062E-006	-0.0044495	8
	3	6	501234.4	3503.598	-1871.748	1	3972.233	-28.11273	4.899593E-007	-0.0040443	8
	4	7	398109.4	3814.652	-1747.544	1	4195.888	-24.61317	-4.189247E-007	-0.003641	8
	5	8	316265.6	4116.452	-1614.224	1	4421.639	-21.41211	1.355136E-006	-0.0040995	8
	6	10	251203.1	4344.716	-1443.594	1	4578.267	-18.3798	-3.315469E-006	-0.0029375	8
	7	11	199546.9	4518.077	-1269.676	1	4693.09	-15.69649	-2.743107E-007	-0.0036783	8
	8	13	158578.1	4660.282	-1169.561	1	4804.8	-14.0882	-4.790729E-007	-0.0033898	8
	9	14	125953.1	4812.821	-1009.151	1	4917.482	-11.8422	-2.191409E-007	-0.0030311	7
	10	15	100078.1	4894.298	-931.2977	1	4982.115	-10.77357	-1.075694E-008	-0.0035429	7
	11	17	79453.13	4981.806	-884.254	1	5059.673	-10.06499	-5.595297E-009	-0.0036436	7
	12	18	63140.62	5064.56	-858.2044	1	5136.758	-9.61758	4.403959E-008	-0.0037442	7
	13	19	50203.12	5141.981	-849.8439	1	5211.737	-9.384755	-5.465619E-009	-0.0036474	7
	14	21	39890.62	5217.95	-861.9834	1	5288.669	-9.380305	1.387141E-008	-0.0037697	7
	15	22	31640.63	5302.914	-893.9017	1	5377.728	-9.56828	1.39898E-007	-0.0039005	7
	16	23	25171.88	5390.113	-943.9547	1	5472.145	-9.93331	9.201642E-008	-0.0037499	7
	17	25	20015.62	5483.145	-1017.086	1	5576.679	-10.50854	-4.006044E-009	-0.0036526	7
	18	26	15890.62	5588.635	-1110.155	1	5697.832	-11.23527	1.45215E-008	-0.0037713	7
	19	27	12609.37	5702.368	-1221.664	1	5831.763	-12.09215	-4.249821E-009	-0.0036514	7
	20	29	10078.13	5826.732	-1355.101	1	5982.232	-13.09233	9.267902E-008	-0.0037544	7
	21	30	8015.625	5968.607	-1515.855	1	6158.091	-14.25019	1.484839E-008	-0.0037743	7
	22	32	6328.125	6133.579	-1711.79	1	6367.968	-15.59362	-3.544704E-008	-0.0036595	7
	23	33	5015.625	6319.896	-1941.355	1	6611.349	-17.07599	-1.993649E-008	-0.0037229	7
	24	34	3984.375	6530.122	-2201.073	1	6891.097	-18.62715	8.679009E-008	-0.0038751	7
	25	36	3170.956	6765.667	-2500.483	1	7212.951	-20.28352	-3.749921E-008	-0.003683	7
	26	37	2527.573	7032.349	-2847.392	1	7586.935	-22.04298	-4.851385E-008	-0.0036577	7
	27	38	1976.103	7365.328	-3270.213	1	8058.682	-23.94127	-4.611753E-009	-0.0036522	7
	28	40	1577.524	7714.205	-3719.64	1	8564.151	-25.74246	-3.267416E-008	-0.0036972	7
	29	41	1265.625	8069.477	-4161.014	1	9079.124	-27.27783	-4.817973E-008	-0.0036675	7
	30	42	998.264	8577.895	-4796.825	1	9828.01	-29.21426	1.803379E-008	-0.0039795	6
	31	44	796.875	9068.615	-5440.879	1	10575.58	-30.96241	-8.220187E-009	-0.0036283	6
	32	45	627.7902	9620.41	-6211.646	1	11451.5	-32.84927	3.161396E-009	-0.0037354	6
	33	47	505.5147	10139.98	-7028.126	1	12337.5	-34.72623	-8.274586E-009	-0.0035696	6
	34	48	397.9953	10725.59	-8092.173	1	13435.83	-37.03358	3.847209E-010	-0.0037482	6
	35	49	315.5048	11295.6	-9356.213	1	14667.29	-39.63516	8.233551E-010	-0.0037462	6
	36	51	252.4038	11841.14	-10854.78	1	16063.59	-42.5115	9.584511E-010	-0.0037454	6
	37	52	198.6229	12432.14	-12877.7	1	17899.53	-46.00854	8.205417E-010	-0.00375	6
	38	53	158.3615	13023.48	-15290.24	1	20084.88	-49.57727	8.942027E-010	-0.0037496	6
	39	55	125.558	13676.26	-18393.81	1	22921	-53.36826	1.052152E-009	-0.0037487	6
	40	56	100.4464	14382.07	-22132.8	1	26395.16	-56.98387	2.244466E-010	-0.0037561	6
	41	57	79.00281	15374.9	-27156.34	1	31206.64	-60.48309	8.550296E-011	-0.0037513	6
	42	59	63.3446	16406	-33150.64	1	36988.14	-63.66954	9.723894E-010	-0.0037477	6
	43	60	49.86702	17768.09	-40428.83	1	44161.02	-66.27496	1.131471E-009	-0.0037521	6
	44	62	39.72458	19613.35	-49654.18	1	53387.46	-68.44603	7.341564E-010	-0.0037494	6
	45	63	31.6723	22019.84	-60832.78	1	64695.44	-70.1011	5.800628E-010	-0.0037539	6
	46	64	24.93351	25129.97	-75152.4	1	79242.66	-71.51074	5.866008E-010	-0.003752	6
	47	66	19.86229	29107.66	-91919.68	1	96418.3	-72.42888	4.912509E-010	-0.0037555	6
	48	67	15.83615	34723.91	-112575.1	1	117808.8	-72.85757	1.376828E-009	-0.0037537	5
	49	69	12.40079	41645.75	-137875.3	1	144027.7	-73.19286	1.430953E-010	-0.0037526	5
	50	70	9.93114	50547.61	-167530.4	1	174990	-73.21028	1.983294E-010	-0.0037426	5
	51	72	7.944915	61904.69	-202229.1	1	211491.8	-72.98003	3.373941E-010	-0.0037457	5
	52	73	6.317385	77124.8	-244448.3	1	256326.4	-72.48922	1.022192E-010	-0.0037334	5
	53	75	5.008013	96961.4	-295489	1	310990.8	-71.83333	1.439207E-010	-0.0037551	5
	54	78	3.945707	122909.2	-357299.4	1	377848.5	-71.01704	4.162284E-010	-0.0037431	5
	55	81	3.158693	153571.3	-425355.3	1	452229.2	-70.14827	5.578619E-011	-0.0037605	5
	56	84	2.504006	193931.7	-507734.8	1	543510.9	-69.09541	4.080004E-010	-0.003748	5
	57	87	1.998082	242199.1	-599927.3	1	646972.3	-68.01537	2.141455E-010	-0.0037084	5
	58	90	1.584686	302534	-706953.3	1	768966.7	-66.83195	2.087762E-010	-0.0037674	5
	59	93	1.266892	373883.8	-829536.1	1	909900.7	-65.73823	2.165655E-010	-0.0037105	5
	60	98	0.999041	467883.8	-976743	1	1083025	-64.40445	3.733192E-011	-0.0037904	4
