EXPLAIN
TAG	EISPOT
TITLE	LABEL	Potentiostatic IDE	Test &Identifier
DATE	LABEL	9/10/2019	Date
TIME	LABEL	10:09:20	Time
NOTES	NOTES	1	&Notes...
	
PSTAT	PSTAT	REF600-11020	Potentiostat
VDC	POTEN	0.00000E+000	T	DC &Voltage (V)
FREQINIT	QUANT	1.00000E+006	Initial Fre&q. (Hz)
FREQFINAL	QUANT	1.00000E+000	Final Fre&q. (Hz)
PTSPERDEC	QUANT	1.00000E+001	Points/&decade
VAC	QUANT	2.50000E+001	AC &Voltage (mV rms)
AREA	QUANT	1.00000E-002	&Area (cm^2)
CONDIT	TWOPARAM	T	5.00000E+000	0.00000E+000	Conditionin&g	Time(s)	E(V)
DELAY	TWOPARAM	T	5.00000E+000	0.00000E+000	Init. De&lay	Time(s)	Stab.(mV/s)
SPEED	SELECTOR	1	&Optimize for:
ZGUESS	QUANT	1.00000E+007	E&stimated Z (ohms)
OCVCURVE	TABLE	19
	Pt	T	Vf	Vm	Ach	Over
	#	s	V vs. Ref.	V	V	bits
	0	0.258333	5.25406E-003	5.25406E-003	5.62899E-004	...........
	1	0.516667	5.25182E-003	5.13675E-003	5.67832E-004	...........
	2	0.775	5.23822E-003	5.03382E-003	5.65566E-004	...........
	3	1.03333	5.20051E-003	4.94844E-003	5.61466E-004	...........
	4	1.29167	5.13524E-003	4.86920E-003	5.69699E-004	...........
	5	1.55	5.05253E-003	4.80579E-003	5.66399E-004	...........
	6	1.80833	4.96645E-003	4.73898E-003	5.62599E-004	...........
	7	2.06667	4.88614E-003	4.69051E-003	5.64432E-004	...........
	8	2.325	4.81475E-003	4.64325E-003	5.63066E-004	...........
	9	2.58333	4.75237E-003	4.60108E-003	5.70466E-004	...........
	10	2.84167	4.69786E-003	4.55894E-003	5.69499E-004	...........
	11	3.1	4.64915E-003	4.50684E-003	5.68032E-004	...........
	12	3.35833	4.60349E-003	4.46716E-003	5.62499E-004	...........
	13	3.61667	4.55883E-003	4.42895E-003	5.66199E-004	...........
	14	3.875	4.51509E-003	4.39642E-003	5.71166E-004	...........
	15	4.13333	4.47348E-003	4.35882E-003	5.71732E-004	...........
	16	4.39167	4.43467E-003	4.32861E-003	5.73965E-004	...........
	17	4.65	4.39833E-003	4.29472E-003	5.69232E-004	...........
	18	4.90833	4.36380E-003	4.26375E-003	5.71332E-004	...........
EOC	QUANT	0.0043638	Open Circuit (V)
PSTATMODEL	IQUANT	4	Pstat Model
PSTATSECTION	LABEL	REF600-11020	Pstat Section
PSTATSERIALNO	LABEL	11020	Pstat Serial Number
CTRLMODE	IQUANT	1	Control Mode
IESTAB	IQUANT	0	I/E Stability
CASPEED	IQUANT	1	Control Amp Speed
CONVENTION	IQUANT	1	Current Convention
ICHRANGE	IQUANT	2	Ich Range
ICHRANGEMODE	TOGGLE	F	Ich Auto Range
ICHOFFSETENABLE	TOGGLE	T	Ich Offset Enable
ICHOFFSET	QUANT	0	Ich Offset (V)
ICHFILTER	IQUANT	3	Ich Filter
VCHRANGE	IQUANT	2	Vch Range
VCHRANGEMODE	TOGGLE	F	Vch Auto Range
VCHOFFSETENABLE	TOGGLE	T	Vch Offset Enable
VCHOFFSET	QUANT	0	Vch Offset (V)
VCHFILTER	IQUANT	3	Vch Filter
ACHRANGE	IQUANT	2	Ach Range
ACHOFFSETENABLE	TOGGLE	F	Ach Offset Enable
ACHOFFSET	QUANT	0	Ach Offset (V)
ACHFILTER	IQUANT	3	Ach Filter
IERANGELOWERLIMIT	IQUANT	1	I/E Range Lower Limit
IERANGEMODE	TOGGLE	F	I/E AutoRange
IERANGE	IQUANT	2	I/E Range
POSFEEDENABLE	TOGGLE	F	Positive Feedback IR Comp
POSFEEDRESISTANCE	QUANT	0	Positive Feedback Resistance (ohm)
ACHSELECT	IQUANT	0	Ach Select
CABLEID	IQUANT	14	Cable ID
DCCALDATE	LABEL	8/19/2019	DC Calibration Date
ACCALDATE	LABEL	8/19/2019	AC Calibration Date
THERMOSELECT	IQUANT	1	Thermo Select
FRAMEWORKVERSION	QUANT	6.33	Framework Version
INSTRUMENTVERSION	LABEL	3.50	Instrument Version
ZCURVE	TABLE
	Pt	Time	Freq	Zreal	Zimag	Zsig	Zmod	Zphz	Idc	Vdc	IERange
	#	s	Hz	ohm	ohm	V	ohm	°	A	V	#
	0	1	1000078	2465.108	-1678.734	1	2982.433	-34.25479	-1.520793E-006	0.0065652	8
	1	3	794390.6	2803.681	-1600.723	1	3228.458	-29.72361	5.032512E-007	0.0061328	8
	2	4	630984.4	3098.461	-1464.388	1	3427.082	-25.29625	-8.722913E-007	0.006217	8
	3	5	501234.4	3338.132	-1306.217	1	3584.595	-21.37049	1.112858E-007	0.005904	8
	4	7	398109.4	3530.593	-1139.505	1	3709.927	-17.88758	2.577479E-007	0.0059053	8
	5	8	316265.6	3666.846	-973.947	1	3793.987	-14.87482	-6.185845E-007	0.0061312	8
	6	9	251203.1	3772.461	-829.605	1	3862.604	-12.40254	7.729979E-007	0.0057366	8
	7	11	199546.9	3857.025	-704.5631	1	3920.848	-10.35209	-4.188403E-007	0.0059406	8
	8	12	158578.1	3921.412	-622.7123	1	3970.547	-9.023113	1.839677E-007	0.0059252	8
	9	13	125953.1	3979.863	-505.6903	1	4011.862	-7.241325	-2.56455E-007	0.0069553	7
	10	15	100078.1	4008.198	-450.7347	1	4033.461	-6.41614	-5.490589E-009	0.0058884	7
	11	16	79453.13	4041.959	-412.0761	1	4062.911	-5.821169	-3.989056E-008	0.005901	7
	12	17	63140.62	4072.714	-386.5399	1	4091.016	-5.421683	-4.76854E-008	0.0059065	7
	13	19	50203.12	4101.413	-370.9446	1	4118.154	-5.167949	7.720581E-009	0.0059137	7
	14	20	39890.62	4131.831	-366.4587	1	4148.05	-5.068392	6.587537E-008	0.0057994	7
	15	21	31640.63	4159.519	-371.8017	1	4176.103	-5.107851	-4.420369E-008	0.0059891	7
	16	23	25171.88	4189.395	-384.2039	1	4206.976	-5.239864	3.338971E-008	0.0058013	7
	17	24	20015.62	4221.569	-406.9051	1	4241.134	-5.50557	-4.290818E-008	0.0059048	7
	18	25	15890.62	4255.635	-441.7689	1	4278.503	-5.926532	3.437164E-009	0.0058041	7
	19	26	12609.37	4288.495	-488.1952	1	4316.193	-6.494499	6.707243E-008	0.0057933	7
	20	28	10078.13	4321.487	-546.9904	1	4355.967	-7.213828	3.494929E-008	0.0057945	7
	21	29	8015.625	4364.325	-622.4631	1	4408.491	-8.117085	-2.484012E-008	0.0058377	7
	22	30	6328.125	4409.493	-717.6739	1	4467.515	-9.244206	-4.632899E-008	0.005889	7
	23	32	5015.625	4458.093	-836.8196	1	4535.952	-10.63117	8.992396E-008	0.0057125	7
	24	33	3984.375	4512.339	-980.175	1	4617.569	-12.25546	-4.62149E-008	0.0058881	7
	25	34	3170.956	4570.982	-1158.786	1	4715.577	-14.22533	8.816747E-008	0.0057081	7
	26	36	2527.573	4639.3	-1373.878	1	4838.455	-16.49608	-4.849877E-009	0.0058543	7
	27	37	1976.103	4725.646	-1661.135	1	5009.101	-19.36734	-3.954056E-008	0.0059052	7
	28	38	1577.524	4817.487	-1984.723	1	5210.307	-22.39083	5.514735E-008	0.0057373	7
	29	40	1265.625	4923.23	-2364.953	1	5461.794	-25.65805	6.578787E-008	0.0056957	7
	30	41	998.264	5055.644	-2868.01	1	5812.488	-29.56576	-9.144403E-009	0.0058397	7
	31	42	796.875	5204.325	-3445.966	1	6241.769	-33.50994	-4.007031E-008	0.0058849	7
	32	44	627.7902	5387.644	-4193.004	1	6827.004	-37.89231	1.057426E-008	0.0058907	7
	33	45	505.5147	5578.884	-5021.541	1	7505.985	-41.9903	7.089653E-008	0.0057917	7
	34	47	397.9953	5833.59	-6132.741	1	8464.117	-46.43206	5.20543E-009	0.00585	7
	35	48	315.5048	6119.178	-7465.176	1	9652.63	-50.65865	5.049674E-009	0.0058512	7
	36	49	252.4038	6445.827	-9035.601	1	11099.13	-54.49666	8.413921E-010	0.0057851	6
	37	51	198.6229	6866.86	-11114.51	1	13064.69	-58.29105	1.245381E-009	0.0057915	6
	38	52	158.3615	7355.831	-13538.77	1	15408	-61.48405	9.828431E-010	0.0057857	6
	39	53	125.558	7981.168	-16600.6	1	18419.53	-64.32287	1.144017E-009	0.0057854	6
	40	55	100.4464	8736.267	-20195.05	1	22003.69	-66.60696	1.473064E-009	0.0057862	6
	41	56	79.00281	9786.07	-24942.11	1	26793.21	-68.57737	1.05204E-009	0.0057828	6
	42	57	63.3446	11113.05	-30437.5	1	32402.8	-69.94234	9.595771E-010	0.0057768	6
	43	59	49.86702	12762.37	-37341.71	1	39462.4	-71.13098	8.161964E-010	0.0057828	6
	44	60	39.72458	15086.15	-45558.02	1	47990.88	-71.67815	1.28735E-009	0.0057883	6
	45	61	31.6723	17942.88	-55438.59	1	58269.92	-72.06566	1.403606E-009	0.0057899	6
	46	63	24.93351	21993.78	-67867.76	1	71342.55	-72.04414	1.239612E-009	0.0057909	6
	47	64	19.86229	26974.31	-82111.63	1	86428.77	-71.81425	1.109963E-009	0.0057909	6
	48	65	15.83615	33344.67	-98673.7	1	104155.5	-71.32842	7.808991E-010	0.0057894	6
	49	67	12.40079	42474.61	-120216.7	1	127499.6	-70.54081	2.044274E-010	0.005795	5
	50	68	9.93114	52941.95	-143165.9	1	152641.2	-69.70589	7.867255E-010	0.005784	5
	51	70	7.944915	66122.28	-169771.4	1	182193.5	-68.72016	3.877959E-010	0.0057971	5
	52	71	6.317385	82709.15	-201301.8	1	217630.9	-67.66364	2.906357E-010	0.0058064	5
	53	73	5.008013	103602.5	-237652.5	1	259253.2	-66.44563	6.605627E-010	0.0058018	5
	54	76	3.945707	129929.8	-281145.1	1	309716.5	-65.19621	5.528893E-011	0.0057834	5
	55	78	3.158693	160110.7	-326607.7	1	363741.7	-63.88483	2.917713E-010	0.005782	5
	56	82	2.504006	196995.3	-379939.9	1	427973.7	-62.59369	3.173035E-010	0.0057948	5
	57	84	1.998082	239062.7	-437856.9	1	498868.3	-61.36618	5.907327E-010	0.0058015	5
	58	87	1.584686	291209.8	-503224.4	1	581410.3	-59.94256	2.985881E-010	0.0057538	5
	59	91	1.266892	348786.4	-575478.8	1	672924.8	-58.78077	3.647858E-010	0.0058219	5
	60	95	0.999041	418699.3	-657494.6	1	779492.3	-57.51059	8.259447E-011	0.005751	5
