EXPLAIN
TAG	EISPOT
TITLE	LABEL	Potentiostatic IDE	Test &Identifier
DATE	LABEL	9/14/2019	Date
TIME	LABEL	9:18:25	Time
NOTES	NOTES	1	&Notes...
	
PSTAT	PSTAT	REF600-11020	Potentiostat
VDC	POTEN	0.00000E+000	T	DC &Voltage (V)
FREQINIT	QUANT	1.00000E+006	Initial Fre&q. (Hz)
FREQFINAL	QUANT	1.00000E+000	Final Fre&q. (Hz)
PTSPERDEC	QUANT	1.00000E+001	Points/&decade
VAC	QUANT	2.50000E+001	AC &Voltage (mV rms)
AREA	QUANT	1.00000E-002	&Area (cm^2)
CONDIT	TWOPARAM	T	5.00000E+000	0.00000E+000	Conditionin&g	Time(s)	E(V)
DELAY	TWOPARAM	T	5.00000E+000	0.00000E+000	Init. De&lay	Time(s)	Stab.(mV/s)
SPEED	SELECTOR	1	&Optimize for:
ZGUESS	QUANT	1.00000E+007	E&stimated Z (ohms)
OCVCURVE	TABLE	19
	Pt	T	Vf	Vm	Ach	Over
	#	s	V vs. Ref.	V	V	bits
	0	0.258333	6.19880E-003	6.19880E-003	5.73699E-004	...........
	1	0.516667	6.19863E-003	6.18987E-003	5.68932E-004	...........
	2	0.775	6.19773E-003	6.18913E-003	5.67366E-004	...........
	3	1.03333	6.19589E-003	6.19978E-003	5.66232E-004	...........
	4	1.29167	6.19512E-003	6.24275E-003	5.67466E-004	...........
	5	1.55	6.20086E-003	6.31222E-003	5.67266E-004	...........
	6	1.80833	6.22022E-003	6.37973E-003	5.64832E-004	...........
	7	2.06667	6.25619E-003	6.38588E-003	5.68032E-004	...........
	8	2.325	6.30354E-003	6.47686E-003	5.70099E-004	...........
	9	2.58333	6.35349E-003	6.45272E-003	5.62832E-004	...........
	10	2.84167	6.39857E-003	6.46108E-003	5.63666E-004	...........
	11	3.1	6.43295E-003	6.49870E-003	5.64332E-004	...........
	12	3.35833	6.45617E-003	6.50576E-003	5.64966E-004	...........
	13	3.61667	6.47400E-003	6.54181E-003	5.66032E-004	...........
	14	3.875	6.49287E-003	6.59812E-003	5.70166E-004	...........
	15	4.13333	6.51751E-003	6.63629E-003	5.69632E-004	...........
	16	4.39167	6.55046E-003	6.68883E-003	5.71099E-004	...........
	17	4.65	6.59118E-003	6.75042E-003	5.66832E-004	...........
	18	4.90833	6.63799E-003	6.80872E-003	5.71966E-004	...........
EOC	QUANT	0.006638	Open Circuit (V)
PSTATMODEL	IQUANT	4	Pstat Model
PSTATSECTION	LABEL	REF600-11020	Pstat Section
PSTATSERIALNO	LABEL	11020	Pstat Serial Number
CTRLMODE	IQUANT	1	Control Mode
IESTAB	IQUANT	0	I/E Stability
CASPEED	IQUANT	1	Control Amp Speed
CONVENTION	IQUANT	1	Current Convention
ICHRANGE	IQUANT	2	Ich Range
ICHRANGEMODE	TOGGLE	F	Ich Auto Range
ICHOFFSETENABLE	TOGGLE	T	Ich Offset Enable
ICHOFFSET	QUANT	0	Ich Offset (V)
ICHFILTER	IQUANT	3	Ich Filter
VCHRANGE	IQUANT	2	Vch Range
VCHRANGEMODE	TOGGLE	F	Vch Auto Range
VCHOFFSETENABLE	TOGGLE	T	Vch Offset Enable
VCHOFFSET	QUANT	0	Vch Offset (V)
VCHFILTER	IQUANT	3	Vch Filter
ACHRANGE	IQUANT	2	Ach Range
ACHOFFSETENABLE	TOGGLE	F	Ach Offset Enable
ACHOFFSET	QUANT	0	Ach Offset (V)
ACHFILTER	IQUANT	3	Ach Filter
IERANGELOWERLIMIT	IQUANT	1	I/E Range Lower Limit
IERANGEMODE	TOGGLE	F	I/E AutoRange
IERANGE	IQUANT	3	I/E Range
POSFEEDENABLE	TOGGLE	F	Positive Feedback IR Comp
POSFEEDRESISTANCE	QUANT	0	Positive Feedback Resistance (ohm)
ACHSELECT	IQUANT	0	Ach Select
CABLEID	IQUANT	14	Cable ID
DCCALDATE	LABEL	8/19/2019	DC Calibration Date
ACCALDATE	LABEL	8/19/2019	AC Calibration Date
THERMOSELECT	IQUANT	1	Thermo Select
FRAMEWORKVERSION	QUANT	6.33	Framework Version
INSTRUMENTVERSION	LABEL	3.50	Instrument Version
ZCURVE	TABLE
	Pt	Time	Freq	Zreal	Zimag	Zsig	Zmod	Zphz	Idc	Vdc	IERange
	#	s	Hz	ohm	ohm	V	ohm	°	A	V	#
	0	2	1000078	2190.922	-1664.495	1	2751.487	-37.22479	3.201733E-006	0.0094558	8
	1	3	794390.6	2525.725	-1641.832	1	3012.457	-33.02563	-9.785977E-007	0.0088806	8
	2	5	630984.4	2822.818	-1564.625	1	3227.438	-28.99862	1.766412E-007	0.008884	8
	3	6	501234.4	3113.264	-1423.285	1	3423.179	-24.56837	-4.1922E-006	0.0093869	8
	4	7	398109.4	3351.56	-1284.886	1	3589.413	-20.97531	-4.561864E-006	0.0093767	8
	5	9	316265.6	3544.829	-1145.563	1	3725.336	-17.909	4.443345E-007	0.0085659	8
	6	10	251203.1	3675.052	-1006.716	1	3810.444	-15.31937	-9.013033E-007	0.0087675	8
	7	12	199546.9	3811.042	-874.3787	1	3910.061	-12.92191	2.067343E-007	0.008543	8
	8	13	158578.1	3875.122	-776.284	1	3952.111	-11.32784	-3.666179E-006	0.0091834	8
	9	14	125953.1	3994.889	-629.2163	1	4044.138	-8.950857	1.516071E-006	0.0051864	7
	10	16	100078.1	4039.915	-571.3802	1	4080.121	-8.050162	4.797917E-008	0.0082071	7
	11	17	79453.13	4090.556	-531.3326	1	4124.919	-7.400857	-1.053035E-008	0.008406	7
	12	18	63140.62	4138.649	-503.4876	1	4169.163	-6.936238	9.167733E-008	0.0081665	7
	13	19	50203.12	4185.014	-483.5724	1	4212.859	-6.591214	-2.901101E-008	0.0083303	7
	14	21	39890.62	4231.41	-474.3761	1	4257.917	-6.396623	7.305761E-008	0.0082235	7
	15	22	31640.63	4273.668	-478.2321	1	4300.342	-6.384951	-2.801087E-008	0.0083267	7
	16	23	25171.88	4318.979	-490.1688	1	4346.705	-6.474897	-8.514832E-008	0.0084571	7
	17	25	20015.62	4363.938	-512.6121	1	4393.942	-6.699574	-6.290468E-008	0.0084273	7
	18	26	15890.62	4412.084	-545.821	1	4445.718	-7.052258	2.151464E-008	0.0082468	7
	19	27	12609.37	4462.555	-592.9893	1	4501.781	-7.569184	-7.411155E-009	0.0082794	7
	20	29	10078.13	4513.668	-650.4946	1	4560.301	-8.200809	-3.927804E-008	0.0083416	7
	21	30	8015.625	4565.202	-723.8275	1	4622.229	-9.009433	1.116222E-007	0.0082452	7
	22	31	6328.125	4624.812	-819.2124	1	4696.807	-10.04485	4.959033E-008	0.0081879	7
	23	33	5015.625	4685.674	-938.8693	1	4778.81	-11.33032	-8.37794E-008	0.0084478	7
	24	34	3984.375	4751.162	-1083.623	1	4873.169	-12.84799	-7.288415E-008	0.008472	7
	25	35	3170.956	4820.422	-1263.169	1	4983.178	-14.68393	1.320547E-007	0.0081551	7
	26	37	2527.573	4897.983	-1483.852	1	5117.818	-16.85427	5.137412E-009	0.0083174	7
	27	38	1976.103	4991.551	-1778.235	1	5298.84	-19.60839	7.505162E-008	0.0082193	7
	28	39	1577.524	5091.704	-2111.934	1	5512.324	-22.52766	-7.56432E-009	0.0083242	7
	29	41	1265.625	5201.376	-2512.217	1	5776.292	-25.78012	-7.539323E-009	0.0082848	7
	30	42	998.264	5339.212	-3031.648	1	6139.876	-29.58826	5.041926E-008	0.0082816	7
	31	43	796.875	5489.819	-3637.406	1	6585.502	-33.52739	-6.747813E-009	0.0082769	7
	32	45	627.7902	5674.142	-4425.822	1	7196.095	-37.95418	-4.391044E-008	0.0084346	7
	33	46	505.5147	5863.883	-5291.591	1	7898.484	-42.06322	-8.506491E-009	0.0082677	7
	34	47	397.9953	6110.165	-6470.66	1	8899.638	-46.64133	6.150171E-009	0.0083548	7
	35	49	315.5048	6385.77	-7885.644	1	10146.99	-50.99955	-4.98742E-010	0.0082934	6
	36	50	252.4038	6689.613	-9565.28	1	11672.43	-55.03244	5.442838E-010	0.0082899	6
	37	51	198.6229	7079.018	-11799.99	1	13760.54	-59.03974	-2.477516E-010	0.0082955	6
	38	53	158.3615	7527.204	-14417.83	1	16264.46	-62.43202	-3.914369E-010	0.0082884	6
	39	54	125.558	8108.488	-17747.2	1	19511.8	-65.44489	2.19764E-010	0.0082886	6
	40	55	100.4464	8790.893	-21694.69	1	23408.1	-67.94174	-3.845418E-010	0.0082874	6
	41	57	79.00281	9751.01	-26946.13	1	28656.18	-70.10631	-2.805085E-011	0.0082851	6
	42	58	63.3446	11317.96	-32680.3	1	34584.65	-70.89783	2.19168E-010	0.0082834	6
	43	59	49.86702	12684.39	-40974.25	1	42892.7	-72.79906	-1.150461E-009	0.0082811	6
	44	61	39.72458	14948.7	-49759.77	1	51956.7	-73.27882	-1.378946E-011	0.0082892	6
	45	62	31.6723	18042.09	-60788.88	1	63409.82	-73.46916	5.275997E-010	0.0082853	6
	46	64	24.93351	21974.41	-75040.78	1	78192.03	-73.67823	-3.555811E-010	0.0082812	6
	47	65	19.86229	27069.29	-91309.59	1	95237.5	-73.48721	-1.033433E-009	0.0082795	6
	48	66	15.83615	33497.38	-109950.6	1	114940.1	-73.05621	-2.698318E-010	0.0082849	5
	49	68	12.40079	43294.34	-136049.5	1	142772.1	-72.34763	-1.036609E-009	0.008288	5
	50	69	9.93114	55756.19	-161763.8	1	171103.1	-70.98212	-4.306645E-010	0.0082899	5
	51	71	7.944915	69843.27	-192502.8	1	204781.4	-70.05837	3.612066E-010	0.0082815	5
	52	72	6.317385	90746.84	-229377.8	1	246676.3	-68.41518	6.073803E-011	0.0082826	5
	53	74	5.008013	116548.7	-271398.4	1	295365.4	-66.7595	-4.065024E-010	0.008291	5
	54	77	3.945707	150146.2	-320441.4	1	353873.7	-64.89407	-8.407974E-011	0.0082946	5
	55	79	3.158693	187996.3	-370872.9	1	415799.6	-63.11945	-3.925862E-010	0.0082789	5
	56	83	2.504006	236853	-428912.9	1	489964.9	-61.09177	1.837347E-010	0.0082813	5
	57	85	1.998082	292077	-487293.7	1	568123.4	-59.06212	-2.332781E-010	0.0083284	5
	58	88	1.584686	357168.7	-553441.1	1	658685.4	-57.16343	6.023182E-011	0.008305	5
	59	92	1.266892	429809.5	-617956.2	1	752732.4	-55.18007	-1.649386E-010	0.0083327	5
	60	96	0.999041	514494.9	-691646.6	1	862020.9	-53.35556	-6.240659E-011	0.0082478	5
