EXPLAIN
TAG	EISPOT
TITLE	LABEL	Potentiostatic EIS	Test &Identifier
DATE	LABEL	10/14/2019	Date
TIME	LABEL	10:27:11	Time
NOTES	NOTES	1	&Notes...
	
PSTAT	PSTAT	REF600-11020	Potentiostat
VDC	POTEN	0.00000E+000	T	DC &Voltage (V)
FREQINIT	QUANT	1.00000E+006	Initial Fre&q. (Hz)
FREQFINAL	QUANT	1.00000E+000	Final Fre&q. (Hz)
PTSPERDEC	QUANT	1.00000E+001	Points/&decade
VAC	QUANT	2.50000E+001	AC &Voltage (mV rms)
AREA	QUANT	1.00000E-002	&Area (cm^2)
CONDIT	TWOPARAM	T	5.00000E+000	0.00000E+000	Conditionin&g	Time(s)	E(V)
DELAY	TWOPARAM	T	5.00000E+000	0.00000E+000	Init. De&lay	Time(s)	Stab.(mV/s)
SPEED	SELECTOR	1	&Optimize for:
ZGUESS	QUANT	1.00000E+004	E&stimated Z (ohms)
OCVCURVE	TABLE	19
	Pt	T	Vf	Vm	Ach	Over
	#	s	V vs. Ref.	V	V	bits
	0	0.258333	5.38403E-003	5.38403E-003	5.29800E-004	...........
	1	0.516667	5.38155E-003	5.25406E-003	5.22266E-004	...........
	2	0.775	5.36685E-003	5.15971E-003	5.24766E-004	...........
	3	1.03333	5.32721E-003	5.07451E-003	5.22500E-004	...........
	4	1.29167	5.26040E-003	4.99874E-003	5.27700E-004	...........
	5	1.55	5.17774E-003	4.94144E-003	5.25900E-004	...........
	6	1.80833	5.09385E-003	4.89505E-003	5.27700E-004	...........
	7	2.06667	5.01854E-003	4.85329E-003	5.25233E-004	...........
	8	2.325	4.95528E-003	4.81500E-003	5.26066E-004	...........
	9	2.58333	4.90293E-003	4.77695E-003	5.23966E-004	...........
	10	2.84167	4.85830E-003	4.74259E-003	5.24300E-004	...........
	11	3.1	4.81854E-003	4.71721E-003	5.19366E-004	...........
	12	3.35833	4.78234E-003	4.68907E-003	5.21966E-004	...........
	13	3.61667	4.74958E-003	4.66801E-003	5.21166E-004	...........
	14	3.875	4.72029E-003	4.64833E-003	5.22433E-004	...........
	15	4.13333	4.69429E-003	4.62780E-003	5.29466E-004	...........
	16	4.39167	4.67122E-003	4.61671E-003	5.24533E-004	...........
	17	4.65	4.65076E-003	4.59746E-003	5.29766E-004	...........
	18	4.90833	4.63262E-003	4.58918E-003	5.29000E-004	...........
EOC	QUANT	0.0046326	Open Circuit (V)
PSTATMODEL	IQUANT	4	Pstat Model
PSTATSECTION	LABEL	REF600-11020	Pstat Section
PSTATSERIALNO	LABEL	11020	Pstat Serial Number
CTRLMODE	IQUANT	1	Control Mode
IESTAB	IQUANT	0	I/E Stability
CASPEED	IQUANT	1	Control Amp Speed
CONVENTION	IQUANT	1	Current Convention
ICHRANGE	IQUANT	2	Ich Range
ICHRANGEMODE	TOGGLE	F	Ich Auto Range
ICHOFFSETENABLE	TOGGLE	T	Ich Offset Enable
ICHOFFSET	QUANT	0	Ich Offset (V)
ICHFILTER	IQUANT	3	Ich Filter
VCHRANGE	IQUANT	2	Vch Range
VCHRANGEMODE	TOGGLE	F	Vch Auto Range
VCHOFFSETENABLE	TOGGLE	T	Vch Offset Enable
VCHOFFSET	QUANT	0	Vch Offset (V)
VCHFILTER	IQUANT	3	Vch Filter
ACHRANGE	IQUANT	2	Ach Range
ACHOFFSETENABLE	TOGGLE	F	Ach Offset Enable
ACHOFFSET	QUANT	0	Ach Offset (V)
ACHFILTER	IQUANT	3	Ach Filter
IERANGELOWERLIMIT	IQUANT	1	I/E Range Lower Limit
IERANGEMODE	TOGGLE	F	I/E AutoRange
IERANGE	IQUANT	5	I/E Range
POSFEEDENABLE	TOGGLE	F	Positive Feedback IR Comp
POSFEEDRESISTANCE	QUANT	0	Positive Feedback Resistance (ohm)
ACHSELECT	IQUANT	0	Ach Select
CABLEID	IQUANT	14	Cable ID
DCCALDATE	LABEL	8/19/2019	DC Calibration Date
ACCALDATE	LABEL	8/19/2019	AC Calibration Date
THERMOSELECT	IQUANT	1	Thermo Select
FRAMEWORKVERSION	QUANT	6.33	Framework Version
INSTRUMENTVERSION	LABEL	3.50	Instrument Version
ZCURVE	TABLE
	Pt	Time	Freq	Zreal	Zimag	Zsig	Zmod	Zphz	Idc	Vdc	IERange
	#	s	Hz	ohm	ohm	V	ohm	°	A	V	#
	0	2	1000078	2377.793	-1612.139	1	2872.785	-34.13719	-9.741664E-007	0.0074581	8
	1	3	794390.6	2698.597	-1516.785	1	3095.652	-29.33878	-1.227971E-006	0.0070003	8
	2	4	630984.4	2970.447	-1381.743	1	3276.091	-24.94613	-1.127144E-006	0.0068182	8
	3	6	501234.4	3200.579	-1234.431	1	3430.383	-21.09112	-4.663281E-006	0.0075498	8
	4	7	398109.4	3369.604	-1079.341	1	3538.249	-17.76114	-2.777385E-006	0.007088	8
	5	8	316265.6	3507.622	-920.1198	1	3626.298	-14.69866	2.893982E-006	0.005817	8
	6	10	251203.1	3613.799	-793.9354	1	3699.984	-12.39078	-1.301761E-006	0.0065853	8
	7	11	199546.9	3692.361	-677.5123	1	3754.005	-10.39756	-2.058944E-006	0.0067466	8
	8	13	158578.1	3760.889	-605.8857	1	3809.381	-9.151815	2.66498E-006	0.0058289	8
	9	14	125953.1	3805.639	-492.1835	1	3837.334	-7.369162	-3.150963E-007	0.0070589	7
	10	15	100078.1	3838.005	-418.732	1	3860.78	-6.226427	-1.78407E-008	0.006299	7
	11	17	79453.13	3869.223	-384.9044	1	3888.321	-5.681006	3.59557E-008	0.0062782	7
	12	18	63140.62	3899.538	-361.1787	1	3916.229	-5.291689	-3.326782E-008	0.0063421	7
	13	19	50203.12	3927.025	-348.0757	1	3942.421	-5.06523	1.080067E-008	0.0062357	7
	14	21	39890.62	3954.743	-342.5484	1	3969.551	-4.950439	-1.51716E-008	0.00628	7
	15	22	31640.63	3982.749	-346.0311	1	3997.753	-4.965529	7.968662E-008	0.0062583	7
	16	23	25171.88	4009.972	-359.8894	1	4026.09	-5.128476	-4.97341E-008	0.0064619	7
	17	25	20015.62	4032.301	-387.7273	1	4050.899	-5.49241	-3.927488E-008	0.0063257	7
	18	26	15890.62	4064.388	-412.9382	1	4085.312	-5.801293	-1.572325E-008	0.0064426	7
	19	27	12609.37	4096.886	-457.0815	1	4122.305	-6.36605	7.99851E-008	0.006252	7
	20	29	10078.13	4125.072	-514.3239	1	4157.012	-7.107099	-5.123745E-008	0.006456	7
	21	30	8015.625	4141.124	-594.7916	1	4183.621	-8.173521	3.744493E-008	0.0061734	7
	22	31	6328.125	4193.815	-685.5755	1	4249.482	-9.284192	6.296874E-008	0.0062043	7
	23	33	5015.625	4232.271	-805.1689	1	4308.18	-10.77152	3.856692E-008	0.0062627	7
	24	34	3984.375	4300.75	-957.059	1	4405.952	-12.54578	6.298121E-008	0.0061997	7
	25	36	3170.956	4324.332	-1139.232	1	4471.878	-14.75905	1.312624E-007	0.0061056	7
	26	37	2527.573	4381.731	-1365.866	1	4589.68	-17.31321	8.063364E-008	0.0062554	7
	27	38	1976.103	4456.197	-1669.861	1	4758.794	-20.54237	1.350572E-008	0.0062281	7
	28	40	1577.524	4533.869	-2007.762	1	4958.536	-23.8855	7.8774E-008	0.0061442	7
	29	41	1265.625	4634.308	-2416.937	1	5226.7	-27.54345	4.34145E-008	0.0061687	7
	30	42	998.264	4756.452	-2950.271	1	5597.136	-31.80997	1.326214E-007	0.0061085	7
	31	44	796.875	4897.918	-3568.279	1	6059.886	-36.07445	-3.605989E-009	0.00634	7
	32	45	627.7902	5069.61	-4369.062	1	6692.507	-40.75523	6.018381E-008	0.0061999	7
	33	46	505.5147	5252.326	-5253.116	1	7428.469	-45.00431	-7.440126E-008	0.0064218	7
	34	48	397.9953	5497.053	-6451.947	1	8476.156	-49.56903	4.455843E-009	0.006315	7
	35	49	315.5048	5777.693	-7890.776	1	9779.88	-53.7881	4.830434E-009	0.0063115	7
	36	50	252.4038	6106.672	-9589.18	1	11368.55	-57.50982	9.669949E-010	0.0062446	6
	37	52	198.6229	6540.98	-11842.43	1	13528.77	-61.08664	1.111394E-009	0.0062447	6
	38	53	158.3615	7062.509	-14471.67	1	16103.05	-63.98655	1.391377E-009	0.006243	6
	39	54	125.558	7735.476	-17781.54	1	19391.25	-66.48959	8.314775E-010	0.0062464	6
	40	56	100.4464	8588.191	-21689.24	1	23327.67	-68.39814	1.565259E-009	0.0062445	6
	41	57	79.00281	9738.24	-26771.39	1	28487.55	-70.01087	1.313447E-010	0.0062431	6
	42	59	63.3446	10951.36	-32714.56	1	34498.91	-71.49178	2.466718E-010	0.0062444	6
	43	60	49.86702	13307.2	-39900.35	1	42060.9	-71.5559	1.400257E-009	0.0062424	6
	44	61	39.72458	15837.24	-48809.38	1	51314.46	-72.02324	1.316264E-009	0.0062435	6
	45	63	31.6723	19006.02	-59057.39	1	62040.34	-72.16064	1.255594E-009	0.0062438	6
	46	64	24.93351	23628.64	-72444.32	1	76200.34	-71.93561	5.487215E-010	0.0062444	6
	47	65	19.86229	29382.34	-87278.28	1	92091.37	-71.39413	1.012374E-009	0.006248	6
	48	67	15.83615	36758.58	-104517.9	1	110793.5	-70.62341	5.425433E-010	0.0062449	5
	49	68	12.40079	46776.99	-126584.3	1	134950.7	-69.71911	1.505413E-009	0.0062483	5
	50	70	9.93114	57808.94	-150404	1	161131.1	-68.97534	9.604438E-010	0.0062456	5
	51	71	7.944915	72271.21	-178060.3	1	192168.2	-67.90873	1.185623E-009	0.0062537	5
	52	73	6.317385	90553.42	-210479.1	1	229131.8	-66.72141	-1.272872E-010	0.0062607	5
	53	75	5.008013	113748.6	-247609.3	1	272486.9	-65.32654	3.232087E-010	0.0062457	5
	54	77	3.945707	142372.7	-290922.6	1	323891.9	-63.92365	2.718137E-010	0.0062489	5
	55	80	3.158693	174690.4	-335765.6	1	378490.8	-62.51318	2.161581E-010	0.0062643	5
	56	83	2.504006	214101.6	-388599.8	1	443677	-61.14714	-7.304912E-011	0.0062395	5
	57	86	1.998082	258457.6	-445033.8	1	514641.1	-59.85372	-1.181999E-010	0.0062271	5
	58	89	1.584686	310980	-507218	1	594961.1	-58.48716	1.912587E-011	0.0062889	5
	59	93	1.266892	366903.4	-576895.4	1	683685.9	-57.54379	-9.516307E-011	0.0062241	5
	60	97	0.999041	424126.5	-669643	1	792656.9	-57.65138	6.400377E-011	0.006287	5
