EXPLAIN
TAG	EISPOT
TITLE	LABEL	Potentiostatic EIS	Test &Identifier
DATE	LABEL	10/28/2019	Date
TIME	LABEL	9:58:31	Time
NOTES	NOTES	1	&Notes...
	
PSTAT	PSTAT	REF600-11020	Potentiostat
VDC	POTEN	0.00000E+000	T	DC &Voltage (V)
FREQINIT	QUANT	1.00000E+006	Initial Fre&q. (Hz)
FREQFINAL	QUANT	1.00000E+000	Final Fre&q. (Hz)
PTSPERDEC	QUANT	1.00000E+001	Points/&decade
VAC	QUANT	2.50000E+001	AC &Voltage (mV rms)
AREA	QUANT	1.00000E-002	&Area (cm^2)
CONDIT	TWOPARAM	T	5.00000E+000	0.00000E+000	Conditionin&g	Time(s)	E(V)
DELAY	TWOPARAM	T	5.00000E+000	0.00000E+000	Init. De&lay	Time(s)	Stab.(mV/s)
SPEED	SELECTOR	1	&Optimize for:
ZGUESS	QUANT	1.00000E+005	E&stimated Z (ohms)
OCVCURVE	TABLE	19
	Pt	T	Vf	Vm	Ach	Over
	#	s	V vs. Ref.	V	V	bits
	0	0.258333	3.91359E-003	3.91359E-003	5.86832E-004	...........
	1	0.516667	3.90540E-003	3.48461E-003	5.90599E-004	...........
	2	0.775	3.85579E-003	3.11566E-003	5.93232E-004	...........
	3	1.03333	3.71826E-003	2.78253E-003	5.88932E-004	...........
	4	1.29167	3.47931E-003	2.50104E-003	5.85899E-004	...........
	5	1.55	3.17496E-003	2.26146E-003	5.87232E-004	...........
	6	1.80833	2.85759E-003	2.04104E-003	5.89299E-004	...........
	7	2.06667	2.56274E-003	1.84512E-003	5.91632E-004	...........
	8	2.325	2.30249E-003	1.66750E-003	5.87465E-004	...........
	9	2.58333	2.07461E-003	1.50090E-003	5.87232E-004	...........
	10	2.84167	1.87255E-003	1.35405E-003	5.89099E-004	...........
	11	3.1	1.69040E-003	1.20661E-003	5.86565E-004	...........
	12	3.35833	1.52257E-003	1.01013E-003	5.89232E-004	...........
	13	3.61667	1.36295E-003	9.37479E-004	5.88532E-004	...........
	14	3.875	1.21127E-003	8.84936E-004	5.90565E-004	...........
	15	4.13333	1.07683E-003	7.82649E-004	5.88032E-004	...........
	16	4.39167	9.65863E-004	6.77466E-004	5.89465E-004	...........
	17	4.65	8.71092E-004	5.85895E-004	5.90032E-004	...........
	18	4.90833	7.80848E-004	5.14250E-004	5.89232E-004	...........
EOC	QUANT	0.0007808	Open Circuit (V)
PSTATMODEL	IQUANT	4	Pstat Model
PSTATSECTION	LABEL	REF600-11020	Pstat Section
PSTATSERIALNO	LABEL	11020	Pstat Serial Number
CTRLMODE	IQUANT	1	Control Mode
IESTAB	IQUANT	0	I/E Stability
CASPEED	IQUANT	1	Control Amp Speed
CONVENTION	IQUANT	1	Current Convention
ICHRANGE	IQUANT	2	Ich Range
ICHRANGEMODE	TOGGLE	F	Ich Auto Range
ICHOFFSETENABLE	TOGGLE	T	Ich Offset Enable
ICHOFFSET	QUANT	0	Ich Offset (V)
ICHFILTER	IQUANT	3	Ich Filter
VCHRANGE	IQUANT	2	Vch Range
VCHRANGEMODE	TOGGLE	F	Vch Auto Range
VCHOFFSETENABLE	TOGGLE	T	Vch Offset Enable
VCHOFFSET	QUANT	0	Vch Offset (V)
VCHFILTER	IQUANT	3	Vch Filter
ACHRANGE	IQUANT	2	Ach Range
ACHOFFSETENABLE	TOGGLE	F	Ach Offset Enable
ACHOFFSET	QUANT	0	Ach Offset (V)
ACHFILTER	IQUANT	3	Ach Filter
IERANGELOWERLIMIT	IQUANT	1	I/E Range Lower Limit
IERANGEMODE	TOGGLE	F	I/E AutoRange
IERANGE	IQUANT	4	I/E Range
POSFEEDENABLE	TOGGLE	F	Positive Feedback IR Comp
POSFEEDRESISTANCE	QUANT	0	Positive Feedback Resistance (ohm)
ACHSELECT	IQUANT	0	Ach Select
CABLEID	IQUANT	14	Cable ID
DCCALDATE	LABEL	8/19/2019	DC Calibration Date
ACCALDATE	LABEL	8/19/2019	AC Calibration Date
THERMOSELECT	IQUANT	1	Thermo Select
FRAMEWORKVERSION	QUANT	6.33	Framework Version
INSTRUMENTVERSION	LABEL	3.50	Instrument Version
ZCURVE	TABLE
	Pt	Time	Freq	Zreal	Zimag	Zsig	Zmod	Zphz	Idc	Vdc	IERange
	#	s	Hz	ohm	ohm	V	ohm	°	A	V	#
	0	1	1000078	2295.037	-1454.179	1	2716.952	-32.35913	3.35783E-006	0.0030695	8
	1	2	794390.6	2582.793	-1380.816	1	2928.732	-28.12991	4.458443E-006	0.001662	8
	2	4	630984.4	2832.291	-1282.052	1	3108.944	-24.35415	4.135397E-006	0.0015974	8
	3	6	501234.4	3027.427	-1150.311	1	3238.6	-20.80495	-6.511538E-007	0.0023166	8
	4	7	398109.4	3201.884	-1035.74	1	3365.237	-17.92527	1.775127E-006	0.0019263	8
	5	8	316265.6	3335.219	-925.5663	1	3461.266	-15.51002	2.929674E-006	0.0016784	8
	6	10	251203.1	3436.714	-806.622	1	3530.105	-13.20866	-2.999456E-006	0.0027815	8
	7	11	199546.9	3511.914	-723.884	1	3585.743	-11.64682	-2.989483E-006	0.0029366	8
	8	13	158578.1	3614.45	-623.9964	1	3667.917	-9.79496	2.957272E-006	0.0016933	8
	9	15	125953.1	3657.98	-537.2081	1	3697.217	-8.354691	-2.661302E-007	0.0024227	7
	10	16	100078.1	3694.115	-510.1584	1	3729.176	-7.86283	-3.719647E-008	0.0022871	7
	11	17	79453.13	3743.752	-505.0172	1	3777.661	-7.682596	7.389991E-008	0.0021484	7
	12	19	63140.62	3787.876	-510.5718	1	3822.131	-7.67669	-5.782898E-008	0.0023298	7
	13	20	50203.12	3834.631	-527.8683	1	3870.793	-7.83797	-3.072057E-008	0.0023596	7
	14	21	39890.62	3884.273	-556.0173	1	3923.867	-8.14631	-5.194693E-008	0.0023293	7
	15	23	31640.63	3938.262	-597.6972	1	3983.359	-8.62974	7.70097E-008	0.0021487	7
	16	24	25171.88	3996.774	-652.0386	1	4049.612	-9.265677	-3.461019E-008	0.0022774	7
	17	26	20015.62	4056.197	-728.0259	1	4121.014	-10.17538	7.538917E-008	0.0021484	7
	18	27	15890.62	4137.477	-800.9507	1	4214.29	-10.95605	4.145019E-008	0.0022201	7
	19	28	12609.37	4220.553	-902.0222	1	4315.868	-12.06384	6.082866E-009	0.0021956	7
	20	30	10078.13	4313.588	-1003.197	1	4428.708	-13.09236	-3.693241E-008	0.0022808	7
	21	31	8015.625	4420.696	-1164.377	1	4571.469	-14.75611	-3.402103E-008	0.0023345	7
	22	32	6328.125	4543.622	-1306.048	1	4727.606	-16.0371	-4.954193E-008	0.0023265	7
	23	34	5015.625	4680.79	-1492.051	1	4912.841	-17.68023	-3.745121E-008	0.0022778	7
	24	35	3984.375	4852.048	-1710.48	1	5144.717	-19.41895	9.088346E-008	0.002205	7
	25	36	3170.956	5012.123	-1945.735	1	5376.547	-21.2165	-4.87465E-008	0.0023231	7
	26	38	2527.573	5207.011	-2228.419	1	5663.816	-23.16924	-5.851189E-008	0.0023231	7
	27	39	1976.103	5457.435	-2583.229	1	6037.936	-25.33012	9.175547E-008	0.0022036	7
	28	41	1577.524	5776.903	-2990.678	1	6505.134	-27.37041	-1.2731E-008	0.0022872	7
	29	42	1265.625	5983.27	-3369.441	1	6866.779	-29.38577	8.196584E-008	0.0020943	7
	30	43	998.264	6308.592	-3896.407	1	7414.872	-31.70093	-6.405744E-008	0.0023702	7
	31	45	796.875	6652.733	-4472.728	1	8016.493	-33.9135	5.233495E-009	0.0022119	7
	32	46	627.7902	7032.935	-5185.231	1	8737.78	-36.40055	6.314461E-009	0.0021906	7
	33	47	505.5147	7397.819	-5952.38	1	9495.186	-38.8206	-8.765791E-010	0.0023046	6
	34	49	397.9953	7807.006	-6984.307	1	10475.2	-41.81646	1.462668E-010	0.0022252	6
	35	50	315.5048	8207.154	-8227.438	1	11621.02	-45.07071	-2.440252E-010	0.0022292	6
	36	51	252.4038	8608.169	-9715.29	1	12980.27	-48.45766	-3.507298E-010	0.0022187	6
	37	53	198.6229	9066.748	-11718.11	1	14816.2	-52.2695	2.765306E-010	0.0022317	6
	38	54	158.3615	9545.35	-14102.49	1	17029.21	-55.90766	5.249651E-010	0.0022212	6
	39	56	125.558	10135.91	-17146.75	1	19918.53	-59.41151	1.671501E-010	0.0022235	6
	40	57	100.4464	10828.06	-20760.76	1	23414.86	-62.45509	1.362775E-009	0.0022191	6
	41	58	79.00281	11776.38	-25713.96	1	28282.34	-65.39335	-2.905844E-010	0.0022169	6
	42	60	63.3446	13071.51	-31496.19	1	34100.95	-67.46063	-2.480792E-010	0.0022215	6
	43	61	49.86702	14059.64	-38616.75	1	41096.56	-69.99438	1.692401E-010	0.0022179	6
	44	63	39.72458	16213.72	-47104.46	1	49816.81	-71.00614	8.619081E-010	0.0022209	6
	45	64	31.6723	18797.88	-57486.16	1	60481.56	-71.89235	-9.960029E-011	0.0022133	6
	46	66	24.93351	22161.59	-71103.54	1	74477.17	-72.68876	4.346428E-010	0.00222	6
	47	67	19.86229	26444.13	-86489.63	1	90441.96	-72.99903	-5.377801E-011	0.0022228	6
	48	68	15.83615	32300.71	-104605.6	1	109479.1	-72.84007	-1.508044E-010	0.0022224	5
	49	70	12.40079	39508.32	-129072.7	1	134984	-72.98099	2.037764E-010	0.0022284	5
	50	71	9.93114	48576.06	-155505.5	1	162915.9	-72.6525	3.304338E-010	0.0022311	5
	51	73	7.944915	61817.6	-185624	1	195646.8	-71.5809	8.723519E-010	0.0022301	5
	52	74	6.317385	75911.5	-223726	1	236253.9	-71.25764	-8.863715E-011	0.0022226	5
	53	76	5.008013	95111.4	-268562.3	1	284906.8	-70.4984	-3.749367E-011	0.0022277	5
	54	79	3.945707	119830.5	-322517	1	344058.9	-69.61755	3.289003E-011	0.0022219	5
	55	82	3.158693	148535.9	-381443.7	1	409343.7	-68.72384	1.220833E-010	0.0022339	5
	56	85	2.504006	184733.3	-452678.6	1	488921.6	-67.80015	-6.308871E-011	0.0022376	5
	57	88	1.998082	227418.7	-531827.3	1	578411.3	-66.8476	1.435904E-010	0.0021884	5
	58	91	1.584686	279015.4	-626841.3	1	686133.8	-66.00552	1.075626E-011	0.0022191	5
	59	95	1.266892	340901	-732141.2	1	807616.4	-65.03228	7.98737E-012	0.0021813	5
	60	99	0.999041	419785.1	-863616.5	1	960236	-64.07663	5.731785E-011	0.0022654	5
