EXPLAIN
TAG	EISPOT
TITLE	LABEL	Potentiostatic EIS	Test &Identifier
DATE	LABEL	11/3/2019	Date
TIME	LABEL	10:08:25	Time
NOTES	NOTES	1	&Notes...
	
PSTAT	PSTAT	REF600-11020	Potentiostat
VDC	POTEN	0.00000E+000	T	DC &Voltage (V)
FREQINIT	QUANT	1.00000E+006	Initial Fre&q. (Hz)
FREQFINAL	QUANT	1.00000E+000	Final Fre&q. (Hz)
PTSPERDEC	QUANT	1.00000E+001	Points/&decade
VAC	QUANT	2.50000E+001	AC &Voltage (mV rms)
AREA	QUANT	1.00000E-002	&Area (cm^2)
CONDIT	TWOPARAM	T	5.00000E+000	0.00000E+000	Conditionin&g	Time(s)	E(V)
DELAY	TWOPARAM	T	5.00000E+000	0.00000E+000	Init. De&lay	Time(s)	Stab.(mV/s)
SPEED	SELECTOR	1	&Optimize for:
ZGUESS	QUANT	1.00000E+005	E&stimated Z (ohms)
OCVCURVE	TABLE	19
	Pt	T	Vf	Vm	Ach	Over
	#	s	V vs. Ref.	V	V	bits
	0	0.258333	6.90752E-003	6.90752E-003	5.60932E-004	...........
	1	0.516667	6.90770E-003	6.91731E-003	5.66732E-004	...........
	2	0.775	6.90914E-003	6.94182E-003	5.62432E-004	...........
	3	1.03333	6.91433E-003	6.97289E-003	5.69566E-004	...........
	4	1.29167	6.92631E-003	7.01348E-003	5.67699E-004	...........
	5	1.55	6.94694E-003	7.05289E-003	5.60699E-004	...........
	6	1.80833	6.97601E-003	7.10059E-003	5.65532E-004	...........
	7	2.06667	7.01195E-003	7.14634E-003	5.62499E-004	...........
	8	2.325	7.05292E-003	7.19731E-003	5.63866E-004	...........
	9	2.58333	7.09743E-003	7.24427E-003	5.66999E-004	...........
	10	2.84167	7.14436E-003	7.29941E-003	5.65366E-004	...........
	11	3.1	7.19298E-003	7.34648E-003	5.60266E-004	...........
	12	3.35833	7.24276E-003	7.39900E-003	5.58032E-004	...........
	13	3.61667	7.29305E-003	7.44254E-003	5.60932E-004	...........
	14	3.875	7.34311E-003	7.49714E-003	5.61699E-004	...........
	15	4.13333	7.39262E-003	7.54081E-003	5.62099E-004	...........
	16	4.39167	7.44172E-003	7.59454E-003	5.63366E-004	...........
	17	4.65	7.49097E-003	7.65579E-003	5.62732E-004	...........
	18	4.90833	7.54366E-003	7.82031E-003	5.61266E-004	...........
EOC	QUANT	0.0075437	Open Circuit (V)
PSTATMODEL	IQUANT	4	Pstat Model
PSTATSECTION	LABEL	REF600-11020	Pstat Section
PSTATSERIALNO	LABEL	11020	Pstat Serial Number
CTRLMODE	IQUANT	1	Control Mode
IESTAB	IQUANT	0	I/E Stability
CASPEED	IQUANT	1	Control Amp Speed
CONVENTION	IQUANT	1	Current Convention
ICHRANGE	IQUANT	2	Ich Range
ICHRANGEMODE	TOGGLE	F	Ich Auto Range
ICHOFFSETENABLE	TOGGLE	T	Ich Offset Enable
ICHOFFSET	QUANT	0	Ich Offset (V)
ICHFILTER	IQUANT	3	Ich Filter
VCHRANGE	IQUANT	2	Vch Range
VCHRANGEMODE	TOGGLE	F	Vch Auto Range
VCHOFFSETENABLE	TOGGLE	T	Vch Offset Enable
VCHOFFSET	QUANT	0	Vch Offset (V)
VCHFILTER	IQUANT	3	Vch Filter
ACHRANGE	IQUANT	2	Ach Range
ACHOFFSETENABLE	TOGGLE	F	Ach Offset Enable
ACHOFFSET	QUANT	0	Ach Offset (V)
ACHFILTER	IQUANT	3	Ach Filter
IERANGELOWERLIMIT	IQUANT	1	I/E Range Lower Limit
IERANGEMODE	TOGGLE	F	I/E AutoRange
IERANGE	IQUANT	5	I/E Range
POSFEEDENABLE	TOGGLE	F	Positive Feedback IR Comp
POSFEEDRESISTANCE	QUANT	0	Positive Feedback Resistance (ohm)
ACHSELECT	IQUANT	0	Ach Select
CABLEID	IQUANT	14	Cable ID
DCCALDATE	LABEL	8/19/2019	DC Calibration Date
ACCALDATE	LABEL	8/19/2019	AC Calibration Date
THERMOSELECT	IQUANT	1	Thermo Select
FRAMEWORKVERSION	QUANT	6.33	Framework Version
INSTRUMENTVERSION	LABEL	3.50	Instrument Version
ZCURVE	TABLE
	Pt	Time	Freq	Zreal	Zimag	Zsig	Zmod	Zphz	Idc	Vdc	IERange
	#	s	Hz	ohm	ohm	V	ohm	°	A	V	#
	0	1	1000078	2029.216	-1181.189	1	2347.961	-30.20331	8.492688E-006	0.0084737	8
	1	3	794390.6	2245.296	-1062.123	1	2483.84	-25.31619	2.243553E-007	0.0085932	8
	2	4	630984.4	2443.765	-939.1133	1	2617.999	-21.02125	2.878741E-006	0.0085253	8
	3	5	501234.4	2564.664	-826.62	1	2694.588	-17.86471	-2.013682E-006	0.009566	8
	4	7	398109.4	2674.333	-716.9518	1	2768.768	-15.00732	-5.421443E-007	0.0087614	8
	5	8	316265.6	2745.612	-617.361	1	2814.164	-12.6724	-1.610534E-006	0.0088171	8
	6	9	251203.1	2808.291	-530.9694	1	2858.046	-10.70664	5.936546E-006	0.0079438	8
	7	11	199546.9	2854.6	-454.509	1	2890.557	-9.046688	-2.58278E-006	0.0089398	8
	8	12	158578.1	2889.765	-393.2772	1	2916.404	-7.749949	-2.711675E-006	0.0095697	8
	9	14	125953.1	2935.598	-316.9304	1	2952.656	-6.161849	-6.45298E-007	0.0120825	7
	10	15	100078.1	2957.249	-287.5961	1	2971.201	-5.554616	5.686704E-007	0.0091961	7
	11	16	79453.13	2977.81	-273.1536	1	2990.312	-5.241056	-8.494463E-007	0.0105802	7
	12	18	63140.62	3000.425	-265.6628	1	3012.163	-5.059872	-9.80947E-007	0.009465	7
	13	19	50203.12	3025.191	-267.1019	1	3036.96	-5.045708	-2.765541E-007	0.0081698	7
	14	20	39890.62	3048.569	-272.8479	1	3060.755	-5.114363	4.637702E-007	0.0074141	7
	15	22	31640.63	3072.327	-285.0024	1	3085.518	-5.299839	1.203469E-007	0.0076877	7
	16	23	25171.88	3094.474	-303.6761	1	3109.339	-5.604772	-1.163691E-006	0.0103579	7
	17	25	20015.62	3119.072	-329.0161	1	3136.377	-6.021593	-1.14844E-006	0.0100029	7
	18	26	15890.62	3147.402	-364.5989	1	3168.449	-6.607762	-2.78059E-007	0.0102594	7
	19	27	12609.37	3176.72	-409.9283	1	3203.06	-7.352892	-2.785841E-007	0.0102546	7
	20	29	10078.13	3202.735	-460.8459	1	3235.721	-8.188166	5.737727E-007	0.0091739	7
	21	30	8015.625	3238.908	-534.8356	1	3282.769	-9.376546	7.770254E-007	0.0087819	7
	22	31	6328.125	3270.031	-625.0176	1	3329.227	-10.82072	-2.779653E-007	0.0081598	7
	23	33	5015.625	3306.286	-736.5396	1	3387.332	-12.55868	-1.038628E-006	0.0105011	7
	24	34	3984.375	3347.808	-873.8105	1	3459.966	-14.62839	-5.898843E-007	0.0104799	7
	25	35	3170.956	3392.134	-1042.765	1	3548.793	-17.08779	-1.163442E-006	0.0103494	7
	26	37	2527.573	3444.573	-1249.038	1	3664.039	-19.93117	-1.037681E-006	0.0104975	7
	27	38	1976.103	3510.837	-1527.736	1	3828.832	-23.5162	-9.838161E-007	0.0094574	7
	28	40	1577.524	3574.885	-1838.534	1	4019.952	-27.21638	4.650641E-007	0.0074023	7
	29	41	1265.625	3665.326	-2218.423	1	4284.392	-31.18425	-2.778871E-007	0.0081603	7
	30	42	998.264	3767.954	-2708.675	1	4640.518	-35.71128	-2.764829E-007	0.0102504	7
	31	44	796.875	3886.27	-3283.389	1	5087.607	-40.19343	-8.499135E-007	0.0105605	7
	32	45	627.7902	4027.229	-4045.575	1	5708.349	-45.13021	9.506808E-007	0.008316	7
	33	46	505.5147	4186.573	-4884.495	1	6433.171	-49.39963	7.767331E-007	0.0087875	7
	34	48	397.9953	4399.61	-6020.414	1	7456.672	-53.84134	1.145E-009	0.0090021	7
	35	49	315.5048	4655.245	-7392.187	1	8735.887	-57.79924	2.812361E-009	0.0090039	7
	36	50	252.4038	4964.662	-9010.865	1	10288.03	-61.14682	6.360883E-010	0.0089425	6
	37	52	198.6229	5384.557	-11157.96	1	12389.25	-64.23918	1.299668E-009	0.0089394	6
	38	53	158.3615	5896.083	-13659.42	1	14877.62	-66.65258	-4.787459E-011	0.008948	6
	39	55	125.558	6581.457	-16792.47	1	18036.15	-68.59834	5.170307E-010	0.0089447	6
	40	56	100.4464	7435.319	-20458.02	1	21767.28	-70.0267	3.700221E-010	0.0089415	6
	41	57	79.00281	8714.237	-25305.45	1	26763.85	-70.99824	9.348369E-010	0.0089463	6
	42	59	63.3446	10098.24	-30953.26	1	32558.86	-71.93152	5.354598E-010	0.0089408	6
	43	60	49.86702	12263.35	-37566.2	1	39517.2	-71.92091	7.306397E-010	0.0089406	6
	44	62	39.72458	15064.96	-45748.71	1	48165.32	-71.77339	5.296357E-010	0.0089375	6
	45	63	31.6723	18713.02	-55320.36	1	58399.65	-71.31104	2.188566E-010	0.0089446	6
	46	64	24.93351	23475.55	-67146.98	1	71132.4	-70.72964	3.510602E-010	0.0089427	6
	47	66	19.86229	29601.91	-80434.59	1	85708.79	-69.79514	4.951604E-010	0.0089386	6
	48	67	15.83615	36840.27	-96100.5	1	102920	-69.0256	1.451806E-009	0.0089377	6
	49	69	12.40079	47581.89	-115154	1	124597.3	-67.54948	1.580808E-009	0.0089429	5
	50	70	9.93114	58437.05	-134175.2	1	146348.5	-66.46554	1.199294E-010	0.008948	5
	51	72	7.944915	72326.53	-156823.6	1	172698.5	-65.241	3.963441E-010	0.0089465	5
	52	73	6.317385	88725.27	-182128.1	1	202590.3	-64.02657	-2.04584E-010	0.0089592	5
	53	75	5.008013	108420.6	-211801.4	1	237938.7	-62.89221	-4.959158E-011	0.0089369	5
	54	78	3.945707	131581.7	-246306	1	279249.7	-61.88795	4.54341E-010	0.0089443	5
	55	80	3.158693	156651.3	-283456.4	1	323862.9	-61.07291	-2.109085E-010	0.0089313	5
	56	84	2.504006	186087.5	-327286.2	1	376490.1	-60.37843	4.091815E-010	0.0089448	5
	57	87	1.998082	218381.1	-376297.5	1	435074.8	-59.87162	2.734491E-010	0.0089611	5
	58	90	1.584686	256928.7	-433842.9	1	504214.3	-59.3653	1.754589E-011	0.0088885	5
	59	93	1.266892	296444.4	-498826.6	1	580264.8	-59.27768	1.838653E-010	0.00894	5
	60	98	0.999041	344396.6	-581663.7	1	675974.6	-59.3707	-4.18294E-010	0.0089279	5
