EXPLAIN
TAG	EISPOT
TITLE	LABEL	Potentiostatic EIS	Test &Identifier
DATE	LABEL	10/16/2019	Date
TIME	LABEL	9:55:47	Time
NOTES	NOTES	1	&Notes...
	
PSTAT	PSTAT	REF600-11020	Potentiostat
VDC	POTEN	0.00000E+000	T	DC &Voltage (V)
FREQINIT	QUANT	1.00000E+006	Initial Fre&q. (Hz)
FREQFINAL	QUANT	1.00000E+000	Final Fre&q. (Hz)
PTSPERDEC	QUANT	1.00000E+001	Points/&decade
VAC	QUANT	2.50000E+001	AC &Voltage (mV rms)
AREA	QUANT	1.00000E-002	&Area (cm^2)
CONDIT	TWOPARAM	T	5.00000E+000	0.00000E+000	Conditionin&g	Time(s)	E(V)
DELAY	TWOPARAM	T	5.00000E+000	0.00000E+000	Init. De&lay	Time(s)	Stab.(mV/s)
SPEED	SELECTOR	0	&Optimize for:
ZGUESS	QUANT	1.00000E+005	E&stimated Z (ohms)
OCVCURVE	TABLE	19
	Pt	T	Vf	Vm	Ach	Over
	#	s	V vs. Ref.	V	V	bits
	0	0.258333	-2.61308E-003	-2.61308E-003	5.99665E-004	...........
	1	0.516667	-2.63089E-003	-3.54567E-003	5.99065E-004	...........
	2	0.775	-2.73766E-003	-4.29194E-003	6.02398E-004	...........
	3	1.03333	-3.02728E-003	-4.81532E-003	6.06198E-004	...........
	4	1.29167	-3.51012E-003	-5.19682E-003	5.98799E-004	...........
	5	1.55	-4.08703E-003	-5.60727E-003	5.98699E-004	...........
	6	1.80833	-4.64888E-003	-6.18783E-003	6.09165E-004	...........
	7	2.06667	-5.16241E-003	-6.74710E-003	6.10498E-004	...........
	8	2.325	-5.65824E-003	-7.32214E-003	5.98532E-004	...........
	9	2.58333	-6.17028E-003	-7.80083E-003	6.07032E-004	...........
	10	2.84167	-6.69898E-003	-8.17187E-003	6.14765E-004	...........
	11	3.1	-7.21417E-003	-8.42666E-003	6.02365E-004	...........
	12	3.35833	-7.67525E-003	-8.57098E-003	5.97032E-004	...........
	13	3.61667	-8.05206E-003	-8.75080E-003	6.00965E-004	...........
	14	3.875	-8.33589E-003	-8.71014E-003	6.14532E-004	...........
	15	4.13333	-8.53869E-003	-9.06292E-003	6.09232E-004	...........
	16	4.39167	-8.70921E-003	-1.00422E-002	5.99032E-004	...........
	17	4.65	-8.95066E-003	-1.07221E-002	6.07298E-004	...........
	18	4.90833	-9.35711E-003	-1.12376E-002	6.09265E-004	...........
EOC	QUANT	-0.0093571	Open Circuit (V)
PSTATMODEL	IQUANT	4	Pstat Model
PSTATSECTION	LABEL	REF600-11020	Pstat Section
PSTATSERIALNO	LABEL	11020	Pstat Serial Number
CTRLMODE	IQUANT	1	Control Mode
IESTAB	IQUANT	0	I/E Stability
CASPEED	IQUANT	1	Control Amp Speed
CONVENTION	IQUANT	1	Current Convention
ICHRANGE	IQUANT	2	Ich Range
ICHRANGEMODE	TOGGLE	F	Ich Auto Range
ICHOFFSETENABLE	TOGGLE	T	Ich Offset Enable
ICHOFFSET	QUANT	0	Ich Offset (V)
ICHFILTER	IQUANT	3	Ich Filter
VCHRANGE	IQUANT	2	Vch Range
VCHRANGEMODE	TOGGLE	F	Vch Auto Range
VCHOFFSETENABLE	TOGGLE	T	Vch Offset Enable
VCHOFFSET	QUANT	0	Vch Offset (V)
VCHFILTER	IQUANT	3	Vch Filter
ACHRANGE	IQUANT	2	Ach Range
ACHOFFSETENABLE	TOGGLE	F	Ach Offset Enable
ACHOFFSET	QUANT	0	Ach Offset (V)
ACHFILTER	IQUANT	3	Ach Filter
IERANGELOWERLIMIT	IQUANT	1	I/E Range Lower Limit
IERANGEMODE	TOGGLE	F	I/E AutoRange
IERANGE	IQUANT	5	I/E Range
POSFEEDENABLE	TOGGLE	F	Positive Feedback IR Comp
POSFEEDRESISTANCE	QUANT	0	Positive Feedback Resistance (ohm)
ACHSELECT	IQUANT	0	Ach Select
CABLEID	IQUANT	14	Cable ID
DCCALDATE	LABEL	8/19/2019	DC Calibration Date
ACCALDATE	LABEL	8/19/2019	AC Calibration Date
THERMOSELECT	IQUANT	1	Thermo Select
FRAMEWORKVERSION	QUANT	6.33	Framework Version
INSTRUMENTVERSION	LABEL	3.50	Instrument Version
ZCURVE	TABLE
	Pt	Time	Freq	Zreal	Zimag	Zsig	Zmod	Zphz	Idc	Vdc	IERange
	#	s	Hz	ohm	ohm	V	ohm	°	A	V	#
	0	1	1000078	2592.179	-1624.947	1	3059.386	-32.08217	1.017833E-006	-0.0066893	8
	1	1	794390.6	2916.622	-1534.663	1	3295.736	-27.75237	-1.582109E-007	-0.0073676	8
	2	2	630984.4	3181.572	-1388.198	1	3471.238	-23.57284	-3.746438E-007	-0.0075268	8
	3	2	501234.4	3411.02	-1230.204	1	3626.081	-19.83214	7.729271E-007	-0.0078228	8
	4	2	398109.4	3578.868	-1064.232	1	3733.749	-16.56066	-8.127068E-007	-0.0073734	8
	5	3	316265.6	3694.361	-915.7612	1	3806.169	-13.92191	1.700032E-007	-0.0076652	8
	6	3	251203.1	3785.087	-779.651	1	3864.549	-11.63898	1.605953E-006	-0.0080811	8
	7	3	199546.9	3856.435	-673.6555	1	3914.831	-9.90865	-1.841917E-006	-0.0073388	8
	8	4	158578.1	3908.381	-589.5188	1	3952.591	-8.577523	3.246253E-006	-0.0082185	8
	9	4	125953.1	3987.39	-456.6808	1	4013.457	-6.533689	-2.610767E-007	-0.0075034	7
	10	4	100078.1	4011.565	-410.7508	1	4032.539	-5.846235	-1.258686E-008	-0.0077503	7
	11	4	79453.13	4038.828	-382.0427	1	4056.857	-5.403669	1.293067E-008	-0.0076506	7
	12	5	63140.62	4067.525	-363.813	1	4083.763	-5.111126	6.829445E-008	-0.0078716	7
	13	5	50203.12	4095.599	-355.8772	1	4111.032	-4.966105	3.733713E-008	-0.0078473	7
	14	5	39890.62	4124.257	-356.7213	1	4139.655	-4.943408	-5.723983E-008	-0.0075565	7
	15	6	31640.63	4151.763	-366.543	1	4167.912	-5.045341	-5.250478E-008	-0.0076429	7
	16	6	25171.88	4181.246	-385.0206	1	4198.936	-5.261116	1.157893E-008	-0.007805	7
	17	6	20015.62	4203.854	-411.7548	1	4223.971	-5.594105	6.896174E-008	-0.0078794	7
	18	7	15890.62	4245.564	-457.2564	1	4270.117	-6.147183	1.031227E-007	-0.00789	7
	19	7	12609.37	4281.135	-508.7122	1	4311.253	-6.776482	1.204928E-008	-0.0076603	7
	20	7	10078.13	4319.012	-574.6315	1	4357.071	-7.578523	-6.171563E-011	-0.0077643	7
	21	8	8015.625	4357.079	-656.5735	1	4406.271	-8.569494	-5.144844E-008	-0.007649	7
	22	8	6328.125	4406.852	-760.8351	1	4472.048	-9.79545	-4.460533E-008	-0.0076825	7
	23	8	5015.625	4456.671	-890.8862	1	4544.843	-11.30439	-3.137143E-009	-0.0077381	7
	24	9	3984.375	4514.99	-1049.214	1	4635.297	-13.08246	-3.802863E-009	-0.0077042	7
	25	9	3170.956	4572.836	-1240.695	1	4738.16	-15.17996	-5.218758E-008	-0.0076479	7
	26	9	2527.573	4642.494	-1476.266	1	4871.562	-17.64013	-9.962352E-010	-0.0077684	7
	27	10	1976.103	4731.771	-1790.974	1	5059.372	-20.73164	-1.059284E-008	-0.0077672	7
	28	10	1577.524	4819.703	-2168.877	1	5285.221	-24.22785	-5.899478E-008	-0.0076662	7
	29	10	1265.625	4931.286	-2567.612	1	5559.695	-27.505	-2.741392E-008	-0.0077408	7
	30	10	998.264	5071.509	-3119.283	1	5954.001	-31.59401	1.230469E-008	-0.0078084	7
	31	11	796.875	5219.631	-3761.683	1	6433.88	-35.77953	-3.3932E-008	-0.0077388	7
	32	11	627.7902	5411.74	-4594.026	1	7098.733	-40.32793	-5.541137E-009	-0.0077028	7
	33	11	505.5147	5616.634	-5514.783	1	7871.43	-44.47577	5.058405E-008	-0.0078254	7
	34	12	397.9953	5894.514	-6766.625	1	8973.99	-48.94036	3.650692E-009	-0.0077211	7
	35	12	315.5048	6220.042	-8262.133	1	10341.75	-53.0262	2.944823E-010	-0.0077836	6
	36	12	252.4038	6602.053	-10023.87	1	12002.71	-56.62976	3.321559E-010	-0.0077896	6
	37	13	198.6229	7114.047	-12353.57	1	14255.54	-60.06367	8.484788E-010	-0.007792	6
	38	13	158.3615	7736.527	-15061.35	1	16932.17	-62.81191	7.901762E-010	-0.0077924	6
	39	13	125.558	8553.873	-18457.83	1	20343.55	-65.13567	5.560897E-010	-0.0077897	6
	40	14	100.4464	9575.56	-22454.55	1	24411.02	-66.90457	1.680001E-009	-0.0077881	6
	41	14	79.00281	10985.97	-27629.41	1	29733.41	-68.3163	1.439846E-009	-0.0077891	6
	42	14	63.3446	13180.16	-33374.98	1	35883.22	-68.45036	2.957429E-010	-0.0077929	6
	43	15	49.86702	15721.56	-40994.54	1	43905.8	-69.018	-4.749815E-010	-0.0077971	6
	44	15	39.72458	18665.73	-49343.98	1	52756.4	-69.27949	5.878505E-010	-0.0077891	6
	45	15	31.6723	22647.02	-59274.42	1	63453.48	-69.08961	3.043575E-010	-0.0077897	6
	46	16	24.93351	28491.46	-71541.1	1	77005.8	-68.28493	5.662729E-011	-0.0077896	6
	47	16	19.86229	35203.71	-84954.74	1	91959.83	-67.49176	-3.034969E-010	-0.0077823	6
	48	16	15.83615	43399.57	-101349.1	1	110250.4	-66.81848	-1.722543E-009	-0.0077851	5
	49	17	12.40079	54849.25	-118498.4	1	130576.8	-65.16203	-1.339171E-009	-0.0077787	5
	50	17	9.93114	66249.96	-138194.3	1	153253.8	-64.38708	3.086216E-010	-0.0077836	5
	51	18	7.944915	79534.34	-160629.6	1	179241.7	-63.6581	1.01421E-009	-0.0077928	5
	52	18	6.317385	95949.8	-186539.4	1	209769.6	-62.78017	5.659416E-010	-0.0077965	5
	53	19	5.008013	115492.7	-217129.1	1	245934.1	-61.99113	4.542735E-010	-0.0077935	5
	54	20	3.945707	137131.8	-253874.7	1	288543.8	-61.62406	5.694988E-010	-0.0077874	5
	55	21	3.158693	161706.6	-292718.5	1	334414.7	-61.08241	9.975912E-011	-0.007792	5
	56	23	2.504006	190526.3	-340043	1	389781.3	-60.73807	1.782563E-010	-0.0077995	5
	57	24	1.998082	222871.3	-393516.6	1	452246.5	-60.47461	3.592101E-010	-0.0077594	5
	58	26	1.584686	259823.3	-456546.7	1	525302.8	-60.35555	2.222207E-010	-0.0077898	5
	59	28	1.266892	302771.8	-527776.1	1	608455.8	-60.1582	1.575716E-010	-0.0078275	5
	60	30	0.999041	354572.5	-617394.1	1	711967.1	-60.13103	1.143007E-010	-0.0078388	5
