EXPLAIN
TAG	EISPOT
TITLE	LABEL	Potentiostatic EIS	Test &Identifier
DATE	LABEL	10/12/2019	Date
TIME	LABEL	10:55:36	Time
NOTES	NOTES	1	&Notes...
	
PSTAT	PSTAT	REF600-11020	Potentiostat
VDC	POTEN	0.00000E+000	T	DC &Voltage (V)
FREQINIT	QUANT	1.00000E+006	Initial Fre&q. (Hz)
FREQFINAL	QUANT	1.00000E+000	Final Fre&q. (Hz)
PTSPERDEC	QUANT	1.00000E+001	Points/&decade
VAC	QUANT	2.50000E+001	AC &Voltage (mV rms)
AREA	QUANT	1.00000E-002	&Area (cm^2)
CONDIT	TWOPARAM	T	5.00000E+000	0.00000E+000	Conditionin&g	Time(s)	E(V)
DELAY	TWOPARAM	T	5.00000E+000	0.00000E+000	Init. De&lay	Time(s)	Stab.(mV/s)
SPEED	SELECTOR	1	&Optimize for:
ZGUESS	QUANT	1.00000E+004	E&stimated Z (ohms)
OCVCURVE	TABLE	19
	Pt	T	Vf	Vm	Ach	Over
	#	s	V vs. Ref.	V	V	bits
	0	0.258333	7.13536E-003	7.13536E-003	5.60366E-004	...........
	1	0.516667	7.13164E-003	6.94095E-003	5.59899E-004	...........
	2	0.775	7.10926E-003	6.77890E-003	5.58999E-004	...........
	3	1.03333	7.04781E-003	6.64679E-003	5.56099E-004	...........
	4	1.29167	6.94322E-003	6.55562E-003	5.47499E-004	...........
	5	1.55	6.81514E-003	6.48078E-003	5.53433E-004	...........
	6	1.80833	6.68961E-003	6.40902E-003	5.55466E-004	...........
	7	2.06667	6.58164E-003	6.34467E-003	5.52499E-004	...........
	8	2.325	6.49268E-003	6.28105E-003	5.56432E-004	...........
	9	2.58333	6.41759E-003	6.22995E-003	5.50266E-004	...........
	10	2.84167	6.35131E-003	6.17775E-003	5.53766E-004	...........
	11	3.1	6.29119E-003	6.13526E-003	5.56133E-004	...........
	12	3.35833	6.23642E-003	6.09905E-003	5.55366E-004	...........
	13	3.61667	6.18685E-003	6.05575E-003	5.51766E-004	...........
	14	3.875	6.14145E-003	5.99334E-003	5.55099E-004	...........
	15	4.13333	6.09638E-003	5.90921E-003	5.53799E-004	...........
	16	4.39167	6.04616E-003	5.85747E-003	5.54466E-004	...........
	17	4.65	5.98863E-003	5.80903E-003	5.50266E-004	...........
	18	4.90833	5.92788E-003	5.77055E-003	5.57999E-004	...........
EOC	QUANT	0.0059279	Open Circuit (V)
PSTATMODEL	IQUANT	4	Pstat Model
PSTATSECTION	LABEL	REF600-11020	Pstat Section
PSTATSERIALNO	LABEL	11020	Pstat Serial Number
CTRLMODE	IQUANT	1	Control Mode
IESTAB	IQUANT	0	I/E Stability
CASPEED	IQUANT	1	Control Amp Speed
CONVENTION	IQUANT	1	Current Convention
ICHRANGE	IQUANT	2	Ich Range
ICHRANGEMODE	TOGGLE	F	Ich Auto Range
ICHOFFSETENABLE	TOGGLE	T	Ich Offset Enable
ICHOFFSET	QUANT	0	Ich Offset (V)
ICHFILTER	IQUANT	3	Ich Filter
VCHRANGE	IQUANT	2	Vch Range
VCHRANGEMODE	TOGGLE	F	Vch Auto Range
VCHOFFSETENABLE	TOGGLE	T	Vch Offset Enable
VCHOFFSET	QUANT	0	Vch Offset (V)
VCHFILTER	IQUANT	3	Vch Filter
ACHRANGE	IQUANT	2	Ach Range
ACHOFFSETENABLE	TOGGLE	F	Ach Offset Enable
ACHOFFSET	QUANT	0	Ach Offset (V)
ACHFILTER	IQUANT	3	Ach Filter
IERANGELOWERLIMIT	IQUANT	1	I/E Range Lower Limit
IERANGEMODE	TOGGLE	F	I/E AutoRange
IERANGE	IQUANT	6	I/E Range
POSFEEDENABLE	TOGGLE	F	Positive Feedback IR Comp
POSFEEDRESISTANCE	QUANT	0	Positive Feedback Resistance (ohm)
ACHSELECT	IQUANT	0	Ach Select
CABLEID	IQUANT	14	Cable ID
DCCALDATE	LABEL	8/19/2019	DC Calibration Date
ACCALDATE	LABEL	8/19/2019	AC Calibration Date
THERMOSELECT	IQUANT	1	Thermo Select
FRAMEWORKVERSION	QUANT	6.33	Framework Version
INSTRUMENTVERSION	LABEL	3.50	Instrument Version
ZCURVE	TABLE
	Pt	Time	Freq	Zreal	Zimag	Zsig	Zmod	Zphz	Idc	Vdc	IERange
	#	s	Hz	ohm	ohm	V	ohm	°	A	V	#
	0	1	1000078	2653.499	-2071.057	1	3366.056	-37.97205	-9.995564E-007	0.0082327	8
	1	3	794390.6	3052.292	-2064.317	1	3684.82	-34.07116	-4.284783E-007	0.0081665	8
	2	4	630984.4	3456.459	-1960.797	1	3973.894	-29.56558	-2.101788E-006	0.0083634	8
	3	6	501234.4	3786.166	-1808.98	1	4196.124	-25.53785	3.624971E-006	0.0070745	8
	4	7	398109.4	4093.091	-1666.107	1	4419.197	-22.14895	-1.696566E-006	0.0078545	8
	5	9	316265.6	4320.046	-1482.401	1	4567.309	-18.93938	-2.591155E-007	0.0075699	8
	6	10	251203.1	4511.049	-1334.013	1	4704.164	-16.47407	4.42938E-006	0.0066404	8
	7	11	199546.9	4658.87	-1187.96	1	4807.943	-14.30495	-6.581577E-007	0.0077567	8
	8	13	158578.1	4789.663	-1068.985	1	4907.504	-12.58141	2.967546E-006	0.0070427	8
	9	14	125953.1	4899.294	-929.2279	1	4986.637	-10.73948	8.635984E-007	0.0055329	7
	10	16	100078.1	4989.461	-876.6872	1	5065.896	-9.96559	1.435273E-008	0.0076425	7
	11	17	79453.13	5069.293	-845.6776	1	5139.349	-9.471068	9.605135E-008	0.0074672	7
	12	18	63140.62	5146.042	-834.2568	1	5213.226	-9.208462	1.17073E-007	0.0073767	7
	13	20	50203.12	5223.202	-840.3906	1	5290.377	-9.140308	-4.791982E-008	0.0076035	7
	14	21	39890.62	5301.156	-866.1416	1	5371.449	-9.279409	1.132146E-007	0.0073792	7
	15	22	31640.63	5389.273	-911.0692	1	5465.74	-9.59527	-1.400115E-008	0.0075757	7
	16	24	25171.88	5478.547	-973.715	1	5564.405	-10.07807	4.459278E-008	0.0074107	7
	17	25	20015.62	5559.423	-1054.509	1	5658.549	-10.74024	1.706871E-008	0.0076214	7
	18	26	15890.62	5688.723	-1159.941	1	5805.775	-11.52473	7.638931E-008	0.0073967	7
	19	28	12609.37	5809.851	-1285.302	1	5950.325	-12.47452	-6.583478E-008	0.0077532	7
	20	29	10078.13	5943.535	-1432.993	1	6113.843	-13.55537	-7.223512E-009	0.0075889	7
	21	30	8015.625	6132.232	-1613.631	1	6340.984	-14.74256	-6.988754E-008	0.0076322	7
	22	32	6328.125	6267.932	-1820.355	1	6526.918	-16.19454	1.473183E-008	0.0074672	7
	23	33	5015.625	6463.47	-2065.356	1	6785.436	-17.72091	1.192057E-007	0.0073676	7
	24	34	3984.375	6694.537	-2348.222	1	7094.433	-19.32919	7.932828E-008	0.0073823	7
	25	36	3170.956	6927.664	-2672.762	1	7425.374	-21.09711	-3.333724E-008	0.0075386	7
	26	37	2527.573	7203.695	-3050.991	1	7823.156	-22.95418	-5.985818E-008	0.0076491	7
	27	38	1976.103	7540.484	-3512.151	1	8318.299	-24.97481	-2.321709E-008	0.007525	7
	28	40	1577.524	7946.944	-3990.172	1	8892.435	-26.66129	5.508106E-008	0.0074464	7
	29	41	1265.625	8301.462	-4562.257	1	9472.511	-28.792	-9.410472E-009	0.0076616	6
	30	43	998.264	8774.306	-5246.456	1	10223.2	-30.87664	-9.746314E-009	0.0076648	6
	31	44	796.875	9265.707	-5994.583	1	11035.78	-32.90143	1.779124E-008	0.0072454	6
	32	45	627.7902	9827.34	-6915.983	1	12016.96	-35.13594	1.506343E-008	0.0072109	6
	33	47	505.5147	10381.43	-7894.849	1	13042.34	-37.2522	5.283213E-009	0.007282	6
	34	48	397.9953	11005.14	-9180.141	1	14331.37	-39.8338	1.050787E-009	0.0074862	6
	35	49	315.5048	11629.37	-10706.12	1	15807.07	-42.633	3.997037E-010	0.0074862	6
	36	51	252.4038	12241.1	-12503.67	1	17498.18	-45.60795	4.973545E-011	0.0074849	6
	37	52	198.6229	12930.34	-14917.24	1	19741.27	-49.08108	9.771912E-010	0.007484	6
	38	53	158.3615	13631.28	-17784.17	1	22407.33	-52.53042	8.412896E-010	0.0074832	6
	39	55	125.558	14441.03	-21437.05	1	25847.44	-56.0339	8.491616E-010	0.0074924	6
	40	56	100.4464	15367.31	-25803.15	1	30032.6	-59.22368	6.146905E-011	0.0074868	6
	41	57	79.00281	16608.46	-31654.45	1	35746.96	-62.3149	8.572182E-010	0.0074863	6
	42	59	63.3446	17713.11	-38087.49	1	42004.89	-65.05857	8.855047E-010	0.0074836	6
	43	60	49.86702	20143.39	-47392.82	1	51495.97	-66.97302	1.211876E-010	0.0074819	6
	44	62	39.72458	22256.8	-57877.55	1	62009.48	-68.96577	4.917418E-010	0.0074797	6
	45	63	31.6723	25358.18	-70381.47	1	74810.35	-70.1861	2.979867E-010	0.0074823	6
	46	65	24.93351	29682.97	-86983.03	1	91908.25	-71.15779	7.09022E-010	0.007484	6
	47	66	19.86229	35125.72	-105987.9	1	111656.9	-71.66416	3.697223E-010	0.0074916	5
	48	67	15.83615	43492.66	-129342.1	1	136458.8	-71.41424	-1.187956E-009	0.0074833	5
	49	69	12.40079	52358.29	-156964.5	1	165466.7	-71.55296	-4.002588E-010	0.0074877	5
	50	70	9.93114	65485.95	-190600.5	1	201536.5	-71.03846	3.885074E-010	0.0074892	5
	51	72	7.944915	81102.69	-227944.5	1	241942.8	-70.41444	1.328131E-010	0.0074793	5
	52	73	6.317385	102897.5	-272703	1	291470.1	-69.32728	4.659487E-010	0.0074812	5
	53	75	5.008013	131184.2	-325356.5	1	350807.8	-68.04063	8.842897E-011	0.0074958	5
	54	78	3.945707	168149.9	-387033.9	1	421983	-66.51709	5.961047E-011	0.0074858	5
	55	80	3.158693	211046.5	-450896.4	1	497843.6	-64.91759	6.576263E-011	0.0074791	5
	56	84	2.504006	264167.7	-524800.9	1	587537.8	-63.2808	1.921529E-010	0.0074974	5
	57	87	1.998082	324221.9	-602708.1	1	684380.6	-61.72233	3.083137E-010	0.0074754	5
	58	90	1.584686	397384	-691514.8	1	797563	-60.11586	7.062682E-011	0.0074372	5
	59	93	1.266892	472715.1	-784002.6	1	915488.8	-58.91209	2.332364E-010	0.0074703	5
	60	98	0.999041	564559.6	-898080.8	1	1060791	-57.84534	-6.107015E-011	0.0074757	4
