EXPLAIN
TAG	EISPOT
TITLE	LABEL	Potentiostatic IDE	Test &Identifier
DATE	LABEL	9/14/2019	Date
TIME	LABEL	13:04:26	Time
NOTES	NOTES	1	&Notes...
	
PSTAT	PSTAT	REF600-11020	Potentiostat
VDC	POTEN	0.00000E+000	T	DC &Voltage (V)
FREQINIT	QUANT	1.00000E+006	Initial Fre&q. (Hz)
FREQFINAL	QUANT	1.00000E+000	Final Fre&q. (Hz)
PTSPERDEC	QUANT	1.00000E+001	Points/&decade
VAC	QUANT	2.50000E+001	AC &Voltage (mV rms)
AREA	QUANT	1.00000E-002	&Area (cm^2)
CONDIT	TWOPARAM	T	5.00000E+000	0.00000E+000	Conditionin&g	Time(s)	E(V)
DELAY	TWOPARAM	T	5.00000E+000	0.00000E+000	Init. De&lay	Time(s)	Stab.(mV/s)
SPEED	SELECTOR	1	&Optimize for:
ZGUESS	QUANT	1.00000E+007	E&stimated Z (ohms)
OCVCURVE	TABLE	19
	Pt	T	Vf	Vm	Ach	Over
	#	s	V vs. Ref.	V	V	bits
	0	0.258333	-8.06000E-004	-8.06000E-004	5.68966E-004	...........
	1	0.516667	-8.17719E-004	-1.41940E-003	5.68099E-004	...........
	2	0.775	-8.89270E-004	-1.97958E-003	5.72132E-004	...........
	3	1.03333	-1.08994E-003	-2.49669E-003	5.67332E-004	...........
	4	1.29167	-1.44445E-003	-2.98272E-003	5.71632E-004	...........
	5	1.55	-1.90814E-003	-3.43859E-003	5.72732E-004	...........
	6	1.80833	-2.41249E-003	-3.87234E-003	5.74466E-004	...........
	7	2.06667	-2.90950E-003	-4.27676E-003	5.71766E-004	...........
	8	2.325	-3.37907E-003	-4.65803E-003	5.73299E-004	...........
	9	2.58333	-3.81755E-003	-5.01021E-003	5.73565E-004	...........
	10	2.84167	-4.22709E-003	-5.35910E-003	5.69166E-004	...........
	11	3.1	-4.61157E-003	-5.69518E-003	5.71066E-004	...........
	12	3.35833	-4.97576E-003	-6.01146E-003	5.69899E-004	...........
	13	3.61667	-5.32408E-003	-6.33714E-003	5.65732E-004	...........
	14	3.875	-5.65952E-003	-6.62057E-003	5.65666E-004	...........
	15	4.13333	-5.98312E-003	-6.90868E-003	5.69966E-004	...........
	16	4.39167	-6.29417E-003	-7.18018E-003	5.68599E-004	...........
	17	4.65	-6.59207E-003	-7.44010E-003	5.71466E-004	...........
	18	4.90833	-6.87728E-003	-7.69246E-003	5.74499E-004	...........
EOC	QUANT	-0.0068773	Open Circuit (V)
PSTATMODEL	IQUANT	4	Pstat Model
PSTATSECTION	LABEL	REF600-11020	Pstat Section
PSTATSERIALNO	LABEL	11020	Pstat Serial Number
CTRLMODE	IQUANT	1	Control Mode
IESTAB	IQUANT	0	I/E Stability
CASPEED	IQUANT	1	Control Amp Speed
CONVENTION	IQUANT	1	Current Convention
ICHRANGE	IQUANT	2	Ich Range
ICHRANGEMODE	TOGGLE	F	Ich Auto Range
ICHOFFSETENABLE	TOGGLE	T	Ich Offset Enable
ICHOFFSET	QUANT	0	Ich Offset (V)
ICHFILTER	IQUANT	3	Ich Filter
VCHRANGE	IQUANT	2	Vch Range
VCHRANGEMODE	TOGGLE	F	Vch Auto Range
VCHOFFSETENABLE	TOGGLE	T	Vch Offset Enable
VCHOFFSET	QUANT	0	Vch Offset (V)
VCHFILTER	IQUANT	3	Vch Filter
ACHRANGE	IQUANT	2	Ach Range
ACHOFFSETENABLE	TOGGLE	F	Ach Offset Enable
ACHOFFSET	QUANT	0	Ach Offset (V)
ACHFILTER	IQUANT	3	Ach Filter
IERANGELOWERLIMIT	IQUANT	1	I/E Range Lower Limit
IERANGEMODE	TOGGLE	F	I/E AutoRange
IERANGE	IQUANT	3	I/E Range
POSFEEDENABLE	TOGGLE	F	Positive Feedback IR Comp
POSFEEDRESISTANCE	QUANT	0	Positive Feedback Resistance (ohm)
ACHSELECT	IQUANT	0	Ach Select
CABLEID	IQUANT	14	Cable ID
DCCALDATE	LABEL	8/19/2019	DC Calibration Date
ACCALDATE	LABEL	8/19/2019	AC Calibration Date
THERMOSELECT	IQUANT	1	Thermo Select
FRAMEWORKVERSION	QUANT	6.33	Framework Version
INSTRUMENTVERSION	LABEL	3.50	Instrument Version
ZCURVE	TABLE
	Pt	Time	Freq	Zreal	Zimag	Zsig	Zmod	Zphz	Idc	Vdc	IERange
	#	s	Hz	ohm	ohm	V	ohm	°	A	V	#
	0	2	1000078	2380.823	-1944.846	1	3074.207	-39.24469	-1.124511E-006	-0.0041772	8
	1	4	794390.6	2781.531	-1888.584	1	3362.092	-34.17544	-2.160529E-006	-0.0046259	8
	2	5	630984.4	3165.815	-1776.415	1	3630.156	-29.29782	-1.286571E-006	-0.0048283	8
	3	6	501234.4	3469.952	-1626.101	1	3832.072	-25.10888	2.664543E-006	-0.005903	8
	4	8	398109.4	3716.501	-1430.215	1	3982.197	-21.04814	4.962952E-007	-0.0053442	8
	5	9	316265.6	3911.758	-1266.436	1	4111.655	-17.93942	-1.541209E-006	-0.005042	8
	6	10	251203.1	4075.236	-1085.651	1	4217.367	-14.91726	-1.728319E-006	-0.0050816	8
	7	12	199546.9	4173.224	-958.196	1	4281.815	-12.9313	-2.499311E-007	-0.0052723	8
	8	13	158578.1	4282.116	-838.8832	1	4363.513	-11.08409	-1.449244E-006	-0.0050519	8
	9	14	125953.1	4366.972	-700.9678	1	4422.872	-9.119088	5.492017E-007	-0.006887	7
	10	16	100078.1	4414.905	-633.9584	1	4460.189	-8.171531	-6.548157E-008	-0.0053193	7
	11	17	79453.13	4466.489	-595.2313	1	4505.976	-7.590855	-1.140548E-008	-0.0053819	7
	12	18	63140.62	4517.431	-571.7678	1	4553.471	-7.213527	-4.998349E-009	-0.0054944	7
	13	20	50203.12	4566.575	-562.2378	1	4601.057	-7.018946	1.847909E-009	-0.0054608	7
	14	21	39890.62	4619.236	-569.4945	1	4654.209	-7.028392	2.436659E-008	-0.0055314	7
	15	22	31640.63	4663.979	-583.6266	1	4700.353	-7.132628	4.445685E-008	-0.0054924	7
	16	23	25171.88	4717.045	-614.4589	1	4756.898	-7.421758	8.309801E-008	-0.0056066	7
	17	25	20015.62	4771.749	-659.5085	1	4817.109	-7.869057	6.133725E-008	-0.0055419	7
	18	26	15890.62	4834.152	-715.2589	1	4886.78	-8.416394	-8.022736E-008	-0.005333	7
	19	28	12609.37	4896.38	-795.5627	1	4960.591	-9.228756	-7.796142E-008	-0.0052095	7
	20	29	10078.13	4965.801	-888.5637	1	5044.673	-10.14495	-5.044517E-008	-0.0053326	7
	21	30	8015.625	5039.87	-1006.086	1	5139.309	-11.28929	2.074736E-008	-0.0053652	7
	22	31	6328.125	5124.813	-1151.546	1	5252.597	-12.66403	-3.604405E-009	-0.0055044	7
	23	33	5015.625	5215.46	-1329.686	1	5382.294	-14.30291	-8.001327E-008	-0.005336	7
	24	34	3984.375	5319.116	-1541.527	1	5537.987	-16.16206	-2.702794E-008	-0.0054581	7
	25	35	3170.956	5428.586	-1798.943	1	5718.894	-18.33434	6.046369E-008	-0.0055476	7
	26	37	2527.573	5554.891	-2105.562	1	5940.556	-20.75904	4.825733E-008	-0.0054965	7
	27	38	1976.103	5705.229	-2512.307	1	6233.885	-23.76637	-6.037872E-008	-0.0053818	7
	28	40	1577.524	5860.972	-2972.282	1	6571.564	-26.89099	4.61262E-009	-0.0054632	7
	29	41	1265.625	6043.512	-3508.636	1	6988.173	-30.13784	-2.925589E-008	-0.0054653	7
	30	42	998.264	6255.563	-4216.482	1	7543.923	-33.98144	2.10934E-008	-0.005377	7
	31	44	796.875	6495.574	-5026.895	1	8213.534	-37.73612	-7.917268E-008	-0.0053451	7
	32	45	627.7902	6785.161	-6080.782	1	9111.219	-41.86633	6.049061E-008	-0.005554	7
	33	46	505.5147	7098.713	-7233.935	1	10135.16	-45.54054	1.538735E-008	-0.0057657	6
	34	48	397.9953	7493.07	-8809.765	1	11565.38	-49.61746	1.737795E-009	-0.0054911	6
	35	49	315.5048	7946.209	-10678.75	1	13310.82	-53.34653	4.259523E-010	-0.0054933	6
	36	50	252.4038	8460.133	-12869.57	1	15401.29	-56.68009	1.692927E-009	-0.0054924	6
	37	52	198.6229	9120.692	-15754.37	1	18204.04	-59.93213	1.141276E-009	-0.0054991	6
	38	53	158.3615	9876	-19107.54	1	21508.91	-62.66717	1.627102E-009	-0.0054966	6
	39	54	125.558	10816.04	-23305.19	1	25692.77	-65.10378	9.885811E-010	-0.0054987	6
	40	56	100.4464	11939.86	-28272.7	1	30690.48	-67.10516	1.916391E-009	-0.0054999	6
	41	57	79.00281	13441.71	-34880.07	1	37380.46	-68.92487	6.048425E-010	-0.0055036	6
	42	58	63.3446	15042.79	-41646.7	1	44280.17	-70.14027	1.338373E-009	-0.0055013	6
	43	60	49.86702	17685.2	-52258.2	1	55169.61	-71.30317	4.782632E-010	-0.0055047	6
	44	61	39.72458	20458.7	-63125.03	1	66357.57	-72.04259	7.310311E-010	-0.0055047	6
	45	62	31.6723	24404.99	-77007.22	1	80781.9	-72.41565	1.307958E-009	-0.0055018	6
	46	64	24.93351	29510.72	-94453.54	1	98956.3	-72.6493	1.036064E-009	-0.0055055	6
	47	65	19.86229	36378.76	-114777.6	1	120404.8	-72.41399	4.896484E-010	-0.0054954	5
	48	66	15.83615	44278.28	-137173.1	1	144142.4	-72.11037	-2.562024E-010	-0.0054956	5
	49	68	12.40079	59013.87	-170752.8	1	180663.1	-70.93433	-4.397136E-010	-0.0054899	5
	50	69	9.93114	73118.02	-203498.3	1	216235.5	-70.23637	4.402019E-010	-0.0054877	5
	51	71	7.944915	93106.08	-241287.5	1	258627.9	-68.8998	3.098615E-010	-0.005503	5
	52	72	6.317385	118983.4	-286949.8	1	310640.1	-67.47872	4.962962E-010	-0.0055008	5
	53	74	5.008013	153727.3	-338561.7	1	371828	-65.5791	1.762977E-010	-0.0055039	5
	54	77	3.945707	197278.8	-397158.6	1	443456.7	-63.58523	5.842299E-010	-0.0054793	5
	55	80	3.158693	248011.3	-456452.8	1	519479.3	-61.48278	2.494892E-010	-0.005486	5
	56	83	2.504006	310808.3	-521452.9	1	607054.3	-59.20324	5.555983E-010	-0.0054999	5
	57	86	1.998082	378676.7	-587184.9	1	698700.3	-57.18195	5.123365E-011	-0.0054758	5
	58	89	1.584686	458436.5	-657987	1	801942	-55.13408	4.208654E-010	-0.0054578	5
	59	92	1.266892	540897.7	-728363.6	1	907239.6	-53.40166	1.608201E-010	-0.0054596	5
	60	97	0.999041	631556.6	-811065.3	1	1027955	-52.09298	3.39123E-010	-0.0055254	4
