EXPLAIN
TAG	EISPOT
TITLE	LABEL	Potentiostatic EIS	Test &Identifier
DATE	LABEL	11/3/2019	Date
TIME	LABEL	9:57:15	Time
NOTES	NOTES	1	&Notes...
	
PSTAT	PSTAT	REF600-11020	Potentiostat
VDC	POTEN	0.00000E+000	T	DC &Voltage (V)
FREQINIT	QUANT	1.00000E+006	Initial Fre&q. (Hz)
FREQFINAL	QUANT	1.00000E+000	Final Fre&q. (Hz)
PTSPERDEC	QUANT	1.00000E+001	Points/&decade
VAC	QUANT	2.50000E+001	AC &Voltage (mV rms)
AREA	QUANT	1.00000E-002	&Area (cm^2)
CONDIT	TWOPARAM	T	5.00000E+000	0.00000E+000	Conditionin&g	Time(s)	E(V)
DELAY	TWOPARAM	T	5.00000E+000	0.00000E+000	Init. De&lay	Time(s)	Stab.(mV/s)
SPEED	SELECTOR	1	&Optimize for:
ZGUESS	QUANT	1.00000E+005	E&stimated Z (ohms)
OCVCURVE	TABLE	19
	Pt	T	Vf	Vm	Ach	Over
	#	s	V vs. Ref.	V	V	bits
	0	0.258333	5.71538E-003	5.71538E-003	5.82399E-004	...........
	1	0.516667	5.71156E-003	5.51528E-003	5.85065E-004	...........
	2	0.775	5.68910E-003	5.37856E-003	5.87165E-004	...........
	3	1.03333	5.63267E-003	5.44400E-003	5.88232E-004	...........
	4	1.29167	5.54885E-003	5.20448E-003	5.83432E-004	...........
	5	1.55	5.45434E-003	5.07615E-003	5.84732E-004	...........
	6	1.80833	5.35002E-003	4.97082E-003	5.86799E-004	...........
	7	2.06667	5.23272E-003	4.90712E-003	5.83299E-004	...........
	8	2.325	5.11229E-003	4.77692E-003	5.88165E-004	...........
	9	2.58333	5.00034E-003	4.73410E-003	5.80232E-004	...........
	10	2.84167	4.90078E-003	4.67223E-003	5.81965E-004	...........
	11	3.1	4.81514E-003	4.64652E-003	5.75265E-004	...........
	12	3.35833	4.74515E-003	4.59896E-003	5.81965E-004	...........
	13	3.61667	4.68966E-003	4.56366E-003	5.76366E-004	...........
	14	3.875	4.64434E-003	4.53283E-003	5.77066E-004	...........
	15	4.13333	4.60502E-003	4.50696E-003	5.79299E-004	...........
	16	4.39167	4.56951E-003	4.46409E-003	5.77099E-004	...........
	17	4.65	4.53620E-003	4.43426E-003	5.82132E-004	...........
	18	4.90833	4.50321E-003	4.39516E-003	5.81865E-004	...........
EOC	QUANT	0.0045032	Open Circuit (V)
PSTATMODEL	IQUANT	4	Pstat Model
PSTATSECTION	LABEL	REF600-11020	Pstat Section
PSTATSERIALNO	LABEL	11020	Pstat Serial Number
CTRLMODE	IQUANT	1	Control Mode
IESTAB	IQUANT	0	I/E Stability
CASPEED	IQUANT	1	Control Amp Speed
CONVENTION	IQUANT	1	Current Convention
ICHRANGE	IQUANT	2	Ich Range
ICHRANGEMODE	TOGGLE	F	Ich Auto Range
ICHOFFSETENABLE	TOGGLE	T	Ich Offset Enable
ICHOFFSET	QUANT	0	Ich Offset (V)
ICHFILTER	IQUANT	3	Ich Filter
VCHRANGE	IQUANT	2	Vch Range
VCHRANGEMODE	TOGGLE	F	Vch Auto Range
VCHOFFSETENABLE	TOGGLE	T	Vch Offset Enable
VCHOFFSET	QUANT	0	Vch Offset (V)
VCHFILTER	IQUANT	3	Vch Filter
ACHRANGE	IQUANT	2	Ach Range
ACHOFFSETENABLE	TOGGLE	F	Ach Offset Enable
ACHOFFSET	QUANT	0	Ach Offset (V)
ACHFILTER	IQUANT	3	Ach Filter
IERANGELOWERLIMIT	IQUANT	1	I/E Range Lower Limit
IERANGEMODE	TOGGLE	F	I/E AutoRange
IERANGE	IQUANT	4	I/E Range
POSFEEDENABLE	TOGGLE	F	Positive Feedback IR Comp
POSFEEDRESISTANCE	QUANT	0	Positive Feedback Resistance (ohm)
ACHSELECT	IQUANT	0	Ach Select
CABLEID	IQUANT	14	Cable ID
DCCALDATE	LABEL	8/19/2019	DC Calibration Date
ACCALDATE	LABEL	8/19/2019	AC Calibration Date
THERMOSELECT	IQUANT	1	Thermo Select
FRAMEWORKVERSION	QUANT	6.33	Framework Version
INSTRUMENTVERSION	LABEL	3.50	Instrument Version
ZCURVE	TABLE
	Pt	Time	Freq	Zreal	Zimag	Zsig	Zmod	Zphz	Idc	Vdc	IERange
	#	s	Hz	ohm	ohm	V	ohm	°	A	V	#
	0	1	1000078	1927.572	-997.673	1	2170.458	-27.36519	1.410803E-005	0.0050883	8
	1	2	794390.6	2104.459	-912.1505	1	2293.636	-23.43369	-4.046413E-006	0.0069118	8
	2	4	630984.4	2250.911	-811.3754	1	2392.683	-19.82248	7.939583E-006	0.0049509	8
	3	5	501234.4	2366.561	-718.9414	1	2473.356	-16.89834	-1.19984E-006	0.0058034	8
	4	7	398109.4	2451.932	-622.8161	1	2529.796	-14.2523	-2.06885E-007	0.0058068	8
	5	8	316265.6	2519.073	-546.0654	1	2577.579	-12.23091	-2.824051E-007	0.0057823	8
	6	9	251203.1	2573.272	-475.3685	1	2616.812	-10.46643	-1.616416E-006	0.0058298	8
	7	11	199546.9	2615.117	-418.7144	1	2648.425	-9.096594	-2.722006E-006	0.0065874	8
	8	12	158578.1	2640.893	-374.365	1	2667.295	-8.06832	-1.879044E-006	0.0061596	8
	9	13	125953.1	2697.066	-306.4506	1	2714.42	-6.482357	2.59942E-006	0.0044769	7
	10	15	100078.1	2717.683	-283.2878	1	2732.408	-5.950946	9.325842E-007	0.0053332	7
	11	16	79453.13	2742.64	-278.5128	1	2756.745	-5.79846	-1.131449E-006	0.0070095	7
	12	17	63140.62	2767.481	-281.4437	1	2781.755	-5.806828	7.190471E-007	0.0043594	7
	13	19	50203.12	2793.448	-290.338	1	2808.496	-5.93375	1.002933E-006	0.004642	7
	14	20	39890.62	2820.226	-302.7596	1	2836.431	-6.127403	-5.736806E-007	0.0074721	7
	15	21	31640.63	2850.638	-323.6568	1	2868.953	-6.477532	7.184221E-007	0.004355	7
	16	23	25171.88	2880.613	-350.5598	1	2901.865	-6.938562	3.746315E-007	0.0064585	7
	17	24	20015.62	2914.516	-384.8243	1	2939.812	-7.521662	5.73829E-007	0.0061619	7
	18	25	15890.62	2950.79	-428.0024	1	2981.668	-8.25301	7.192519E-007	0.0043554	7
	19	27	12609.37	2989.697	-480.3004	1	3028.031	-9.126691	1.004556E-006	0.0046332	7
	20	28	10078.13	3027.812	-536.3695	1	3074.954	-10.04559	5.75312E-007	0.0061532	7
	21	29	8015.625	3071.98	-621.4282	1	3134.204	-11.43599	-2.787185E-007	0.0051879	7
	22	31	6328.125	3121.908	-715.6155	1	3202.876	-12.91051	7.339202E-008	0.006865	7
	23	32	5015.625	3174.51	-833.1723	1	3282.025	-14.706	9.419666E-007	0.0053167	7
	24	33	3984.375	3230.399	-978.557	1	3375.359	-16.85269	9.415635E-007	0.0053272	7
	25	35	3170.956	3287.781	-1148.564	1	3482.629	-19.25652	-1.021328E-006	0.0074957	7
	26	36	2527.573	3353.208	-1359.589	1	3618.354	-22.07055	-1.146346E-006	0.007353	7
	27	37	1976.103	3432.941	-1645.627	1	3806.99	-25.61137	4.526702E-007	0.0044491	7
	28	39	1577.524	3507.312	-1951.781	1	4013.812	-29.09547	4.535547E-007	0.0044446	7
	29	40	1265.625	3601.876	-2347.726	1	4299.457	-33.09657	3.739611E-007	0.0064559	7
	30	42	998.264	3713.835	-2863.545	1	4689.612	-37.63395	1.024094E-006	0.0049327	7
	31	43	796.875	3839.432	-3456.858	1	5166.344	-41.9985	-1.135601E-006	0.0069983	7
	32	44	627.7902	3986.747	-4248.822	1	5826.375	-46.82267	1.123479E-007	0.0047155	7
	33	46	505.5147	4163.145	-5120.978	1	6599.711	-50.8903	-1.135768E-006	0.0069948	7
	34	47	397.9953	4387.371	-6327.055	1	7699.392	-55.26139	2.06108E-009	0.0060128	7
	35	48	315.5048	4670.313	-7770.287	1	9065.825	-58.99213	3.191156E-009	0.0060156	7
	36	50	252.4038	5019.885	-9474.801	1	10722.46	-62.08472	9.918038E-010	0.0059438	6
	37	51	198.6229	5501.831	-11724.76	1	12951.45	-64.86173	6.704943E-010	0.0059492	6
	38	52	158.3615	6098.063	-14336.65	1	15579.67	-66.95763	6.629323E-010	0.0059534	6
	39	54	125.558	6909.901	-17611.04	1	18918.13	-68.57685	8.434581E-010	0.0059402	6
	40	55	100.4464	7926.48	-21433.44	1	22852.16	-69.70468	1.769974E-009	0.0059432	6
	41	56	79.00281	9460.392	-26399.74	1	28043.63	-70.28477	-7.493507E-011	0.0059439	6
	42	58	63.3446	11294.75	-31655.83	1	33610.46	-70.36368	-8.55554E-011	0.0059479	6
	43	59	49.86702	13995.71	-39262.37	1	41682.3	-70.38056	3.286342E-010	0.0059423	6
	44	61	39.72458	17181.31	-47232.01	1	50259.92	-70.01043	1.002356E-009	0.0059513	6
	45	62	31.6723	21679.88	-56663.26	1	60669.13	-69.06269	7.02623E-010	0.0059488	6
	46	63	24.93351	27650.76	-68083.63	1	73484.32	-67.89648	1.167284E-010	0.0059503	6
	47	65	19.86229	35235.96	-80618.78	1	87982.73	-66.39136	8.280536E-010	0.0059458	6
	48	66	15.83615	45381.15	-94032.37	1	104410.4	-64.23748	1.65391E-009	0.0059506	5
	49	67	12.40079	57261.81	-111651	1	125478.5	-62.84833	-6.255786E-010	0.0059515	5
	50	69	9.93114	70414.63	-126610.6	1	144874	-60.91933	9.065623E-010	0.0059557	5
	51	70	7.944915	86225.16	-144314.2	1	168111.2	-59.14244	1.028631E-010	0.0059514	5
	52	72	6.317385	104324.5	-162725.7	1	193295.7	-57.33582	-3.916054E-010	0.0059594	5
	53	74	5.008013	124403.8	-183416.8	1	221625.9	-55.85263	-3.134224E-011	0.0059401	5
	54	77	3.945707	146005.6	-206541.6	1	252936.9	-54.74327	4.382724E-010	0.0059648	5
	55	79	3.158693	167587.3	-231197.4	1	285548.1	-54.0629	9.882596E-013	0.005954	5
	56	83	2.504006	190605.2	-261225.4	1	323371.4	-53.88335	2.825249E-010	0.0059485	5
	57	85	1.998082	213541.5	-295935.7	1	364935.5	-54.18651	-1.585308E-010	0.0059805	5
	58	88	1.584686	239535.5	-340060.8	1	415955	-54.83951	1.262581E-010	0.0060048	5
	59	92	1.266892	265957.8	-391469.9	1	473267.7	-55.8085	-1.728691E-010	0.005963	5
	60	96	0.999041	298632.4	-458867.9	1	547486.1	-56.94382	3.286308E-010	0.0059659	5
