EXPLAIN
TAG	EISPOT
TITLE	LABEL	Potentiostatic IDE	Test &Identifier
DATE	LABEL	9/8/2019	Date
TIME	LABEL	11:02:08	Time
NOTES	NOTES	1	&Notes...
	
PSTAT	PSTAT	REF600-11020	Potentiostat
VDC	POTEN	0.00000E+000	T	DC &Voltage (V)
FREQINIT	QUANT	1.00000E+006	Initial Fre&q. (Hz)
FREQFINAL	QUANT	1.00000E+000	Final Fre&q. (Hz)
PTSPERDEC	QUANT	1.00000E+001	Points/&decade
VAC	QUANT	2.50000E+001	AC &Voltage (mV rms)
AREA	QUANT	1.00000E-002	&Area (cm^2)
CONDIT	TWOPARAM	T	5.00000E+000	0.00000E+000	Conditionin&g	Time(s)	E(V)
DELAY	TWOPARAM	T	5.00000E+000	0.00000E+000	Init. De&lay	Time(s)	Stab.(mV/s)
SPEED	SELECTOR	1	&Optimize for:
ZGUESS	QUANT	1.00000E+007	E&stimated Z (ohms)
OCVCURVE	TABLE	19
	Pt	T	Vf	Vm	Ach	Over
	#	s	V vs. Ref.	V	V	bits
	0	0.258333	1.03069E-002	1.03069E-002	5.74332E-004	...........
	1	0.516667	1.03117E-002	1.05559E-002	5.74532E-004	...........
	2	0.775	1.03413E-002	1.08111E-002	5.76032E-004	...........
	3	1.03333	1.04264E-002	1.10713E-002	5.73766E-004	...........
	4	1.29167	1.05828E-002	1.13373E-002	5.68966E-004	...........
	5	1.55	1.07971E-002	1.15492E-002	5.69599E-004	...........
	6	1.80833	1.10408E-002	1.17756E-002	5.70766E-004	...........
	7	2.06667	1.12885E-002	1.20076E-002	5.75132E-004	...........
	8	2.325	1.15279E-002	1.22043E-002	5.78699E-004	...........
	9	2.58333	1.17576E-002	1.24481E-002	5.71599E-004	...........
	10	2.84167	1.19801E-002	1.26136E-002	5.69432E-004	...........
	11	3.1	1.21963E-002	1.28164E-002	5.71966E-004	...........
	12	3.35833	1.24052E-002	1.30405E-002	5.66999E-004	...........
	13	3.61667	1.26090E-002	1.32383E-002	5.67532E-004	...........
	14	3.875	1.28118E-002	1.34198E-002	5.66932E-004	...........
	15	4.13333	1.30142E-002	1.36234E-002	5.64399E-004	...........
	16	4.39167	1.32139E-002	1.38068E-002	5.65032E-004	...........
	17	4.65	1.34091E-002	1.39632E-002	5.66432E-004	...........
	18	4.90833	1.35981E-002	1.41295E-002	5.66366E-004	...........
EOC	QUANT	0.0135981	Open Circuit (V)
PSTATMODEL	IQUANT	4	Pstat Model
PSTATSECTION	LABEL	REF600-11020	Pstat Section
PSTATSERIALNO	LABEL	11020	Pstat Serial Number
CTRLMODE	IQUANT	1	Control Mode
IESTAB	IQUANT	0	I/E Stability
CASPEED	IQUANT	1	Control Amp Speed
CONVENTION	IQUANT	1	Current Convention
ICHRANGE	IQUANT	2	Ich Range
ICHRANGEMODE	TOGGLE	F	Ich Auto Range
ICHOFFSETENABLE	TOGGLE	T	Ich Offset Enable
ICHOFFSET	QUANT	0	Ich Offset (V)
ICHFILTER	IQUANT	3	Ich Filter
VCHRANGE	IQUANT	2	Vch Range
VCHRANGEMODE	TOGGLE	F	Vch Auto Range
VCHOFFSETENABLE	TOGGLE	T	Vch Offset Enable
VCHOFFSET	QUANT	0	Vch Offset (V)
VCHFILTER	IQUANT	3	Vch Filter
ACHRANGE	IQUANT	2	Ach Range
ACHOFFSETENABLE	TOGGLE	F	Ach Offset Enable
ACHOFFSET	QUANT	0	Ach Offset (V)
ACHFILTER	IQUANT	3	Ach Filter
IERANGELOWERLIMIT	IQUANT	1	I/E Range Lower Limit
IERANGEMODE	TOGGLE	F	I/E AutoRange
IERANGE	IQUANT	3	I/E Range
POSFEEDENABLE	TOGGLE	F	Positive Feedback IR Comp
POSFEEDRESISTANCE	QUANT	0	Positive Feedback Resistance (ohm)
ACHSELECT	IQUANT	0	Ach Select
CABLEID	IQUANT	14	Cable ID
DCCALDATE	LABEL	8/19/2019	DC Calibration Date
ACCALDATE	LABEL	8/19/2019	AC Calibration Date
THERMOSELECT	IQUANT	1	Thermo Select
FRAMEWORKVERSION	QUANT	6.33	Framework Version
INSTRUMENTVERSION	LABEL	3.50	Instrument Version
ZCURVE	TABLE
	Pt	Time	Freq	Zreal	Zimag	Zsig	Zmod	Zphz	Idc	Vdc	IERange
	#	s	Hz	ohm	ohm	V	ohm	°	A	V	#
	0	2	1000078	2740.521	-1573.658	1	3160.198	-29.86525	2.210247E-006	0.0161384	8
	1	3	794390.6	3027.062	-1479.202	1	3369.146	-26.04288	1.631618E-006	0.0150317	8
	2	5	630984.4	3296.368	-1332.261	1	3555.413	-22.00659	-2.735628E-006	0.015788	8
	3	6	501234.4	3471.616	-1158.75	1	3659.893	-18.45789	2.629517E-006	0.0146214	8
	4	7	398109.4	3617.218	-1005.129	1	3754.271	-15.52921	-3.932456E-006	0.0159611	8
	5	9	316265.6	3737.325	-871.696	1	3837.636	-13.12898	7.720507E-007	0.0149867	8
	6	10	251203.1	3816.008	-746.388	1	3888.317	-11.06699	5.337621E-006	0.0141874	8
	7	12	199546.9	3871.517	-618.4969	1	3920.61	-9.076628	-1.70663E-007	0.0153778	8
	8	13	158578.1	3935.859	-549.9006	1	3974.088	-7.953624	3.940039E-006	0.0144299	8
	9	14	125953.1	4016.48	-444.7461	1	4041.029	-6.318638	1.332194E-006	0.0127059	7
	10	16	100078.1	4029.159	-408.259	1	4049.79	-5.78581	8.787212E-008	0.014942	7
	11	17	79453.13	4060.075	-383.7143	1	4078.167	-5.398941	-1.033187E-008	0.0151481	7
	12	18	63140.62	4087.011	-372.6431	1	4103.965	-5.209675	-2.217725E-008	0.0152633	7
	13	20	50203.12	4115.937	-370.706	1	4132.598	-5.146516	-4.185024E-008	0.015167	7
	14	21	39890.62	4144.546	-376.3685	1	4161.6	-5.188829	4.794951E-008	0.0149617	7
	15	22	31640.63	4176.775	-396.0265	1	4195.508	-5.416383	-7.162148E-008	0.0152126	7
	16	24	25171.88	4208.286	-423.4974	1	4229.541	-5.746568	-2.18678E-008	0.0152555	7
	17	25	20015.62	4242.579	-462.564	1	4267.721	-6.222322	7.720818E-008	0.0149671	7
	18	26	15890.62	4283.564	-511.5439	1	4314	-6.81002	2.367274E-008	0.0150182	7
	19	28	12609.37	4323.459	-578.5601	1	4361.999	-7.62197	3.736521E-008	0.0150755	7
	20	29	10078.13	4369.117	-657.8637	1	4418.367	-8.562777	7.82708E-008	0.0149737	7
	21	30	8015.625	4419.971	-755.6053	1	4484.092	-9.70108	7.400149E-008	0.015084	7
	22	32	6328.125	4480.271	-879.6274	1	4565.805	-11.1078	-4.183619E-008	0.0151588	7
	23	33	5015.625	4546.819	-1029.197	1	4661.846	-12.75427	-1.469187E-008	0.0151554	7
	24	34	3984.375	4624.008	-1208.884	1	4779.419	-14.65127	-1.031001E-008	0.0151402	7
	25	36	3170.956	4712.702	-1421.741	1	4922.49	-16.78766	7.694095E-008	0.0149538	7
	26	37	2527.573	4813.961	-1675.782	1	5097.3	-19.19345	1.383071E-007	0.0148881	7
	27	38	1976.103	4941.051	-2010.225	1	5334.322	-22.13854	-1.036783E-008	0.0151461	7
	28	40	1577.524	5078.754	-2376.627	1	5607.325	-25.07747	-6.89305E-008	0.0152144	7
	29	41	1265.625	5231.794	-2808.061	1	5937.75	-28.22379	-3.207704E-008	0.0151118	7
	30	42	998.264	5422.206	-3364.866	1	6381.429	-31.82255	-1.183123E-008	0.0151602	7
	31	44	796.875	5631.44	-3998.309	1	6906.489	-35.37466	-4.476722E-008	0.0151295	7
	32	45	627.7902	5889.351	-4815.417	1	7607.411	-39.27109	5.072764E-008	0.0149443	7
	33	46	505.5147	6156.742	-5715.846	1	8400.975	-42.87326	8.59009E-008	0.0149208	7
	34	48	397.9953	6504.36	-6920.509	1	9497.376	-46.77551	6.895923E-009	0.0151182	7
	35	49	315.5048	6901.503	-8346.792	1	10830.5	-50.41453	1.771391E-009	0.015059	6
	36	50	252.4038	7346.368	-10013.71	1	12419.48	-53.73508	9.701315E-010	0.0150605	6
	37	52	198.6229	7916.701	-12202.53	1	14545.65	-57.02548	1.325882E-009	0.0150559	6
	38	53	158.3615	8566.081	-14733.44	1	17042.65	-59.82611	1.275057E-009	0.0150558	6
	39	54	125.558	9369.688	-17891.73	1	20196.66	-62.35949	1.206339E-009	0.0150552	6
	40	56	100.4464	10327.95	-21596.36	1	23938.87	-64.44163	8.988755E-010	0.0150536	6
	41	57	79.00281	11581.8	-26481.28	1	28903.22	-66.37745	8.316961E-010	0.0150546	6
	42	58	63.3446	12875.09	-31672.73	1	34189.62	-67.87806	1.107405E-009	0.0150529	6
	43	60	49.86702	15090.99	-39081.09	1	41893.55	-68.88615	2.5675E-010	0.0150481	6
	44	61	39.72458	17209.72	-47258.11	1	50294.16	-69.99018	6.394172E-010	0.0150547	6
	45	62	31.6723	20257.8	-57211.64	1	60692.26	-70.50169	1.339088E-009	0.0150574	6
	46	64	24.93351	24018.68	-69946.17	1	73955.15	-71.04814	6.50234E-010	0.0150582	6
	47	65	19.86229	28760.91	-84513.03	1	89272.85	-71.20588	7.529265E-010	0.0150551	6
	48	66	15.83615	34489.34	-101906.1	1	107584.3	-71.30201	7.245813E-010	0.0150596	5
	49	68	12.40079	43186.09	-124410.9	1	131693.2	-70.85685	4.947255E-010	0.0150566	5
	50	69	9.93114	52594.61	-149326.1	1	158317.6	-70.59706	2.724752E-010	0.0150625	5
	51	71	7.944915	65306.77	-177945.6	1	189551	-69.84665	2.550468E-010	0.0150535	5
	52	72	6.317385	80968.98	-212694.3	1	227584.8	-69.15905	-1.178687E-009	0.0150499	5
	53	74	5.008013	102648.9	-254332.1	1	274265.6	-68.02091	1.432011E-010	0.0150527	5
	54	77	3.945707	130430.7	-303422.3	1	330268.5	-66.73881	2.207581E-010	0.0150616	5
	55	79	3.158693	162731.1	-355087.5	1	390600.2	-65.37875	2.601392E-010	0.0150752	5
	56	83	2.504006	205010	-415851.5	1	463639.5	-63.75723	1.795686E-013	0.0150513	5
	57	86	1.998082	253403.1	-481200.3	1	543844.6	-62.22843	-2.593458E-010	0.0150573	5
	58	89	1.584686	314928	-552565.8	1	636009.9	-60.31956	6.664722E-011	0.0151066	5
	59	92	1.266892	380187.1	-628997.4	1	734969.3	-58.84983	-2.269245E-010	0.0150693	5
	60	97	0.999041	460124	-715100	1	850342.4	-57.24115	3.142864E-010	0.0150829	5
