EXPLAIN
TAG	EISPOT
TITLE	LABEL	Potentiostatic EIS	Test &Identifier
DATE	LABEL	11/5/2019	Date
TIME	LABEL	10:27:13	Time
NOTES	NOTES	2	&Notes...
	
	
PSTAT	PSTAT	REF600-11020	Potentiostat
VDC	POTEN	0.00000E+000	T	DC &Voltage (V)
FREQINIT	QUANT	1.00000E+006	Initial Fre&q. (Hz)
FREQFINAL	QUANT	1.00000E+000	Final Fre&q. (Hz)
PTSPERDEC	QUANT	1.00000E+001	Points/&decade
VAC	QUANT	2.50000E+001	AC &Voltage (mV rms)
AREA	QUANT	1.00000E-002	&Area (cm^2)
CONDIT	TWOPARAM	T	5.00000E+000	0.00000E+000	Conditionin&g	Time(s)	E(V)
DELAY	TWOPARAM	T	5.00000E+000	0.00000E+000	Init. De&lay	Time(s)	Stab.(mV/s)
SPEED	SELECTOR	1	&Optimize for:
ZGUESS	QUANT	1.00000E+005	E&stimated Z (ohms)
OCVCURVE	TABLE	19
	Pt	T	Vf	Vm	Ach	Over
	#	s	V vs. Ref.	V	V	bits
	0	0.258333	4.18383E-003	4.18383E-003	5.63232E-004	...........
	1	0.516667	4.18155E-003	4.06471E-003	5.58599E-004	...........
	2	0.775	4.16771E-003	3.95894E-003	5.65399E-004	...........
	3	1.03333	4.12941E-003	3.87772E-003	5.59999E-004	...........
	4	1.29167	4.06346E-003	3.80015E-003	5.64166E-004	...........
	5	1.55	3.98073E-003	3.74192E-003	5.72099E-004	...........
	6	1.80833	3.89607E-003	3.68714E-003	5.67866E-004	...........
	7	2.06667	3.81904E-003	3.63786E-003	5.70832E-004	...........
	8	2.325	3.75248E-003	3.59386E-003	5.68766E-004	...........
	9	2.58333	3.69513E-003	3.55217E-003	5.64932E-004	...........
	10	2.84167	3.64472E-003	3.51615E-003	5.64432E-004	...........
	11	3.1	3.59948E-003	3.48199E-003	5.64399E-004	...........
	12	3.35833	3.55842E-003	3.45091E-003	5.64332E-004	...........
	13	3.61667	3.52093E-003	3.42139E-003	5.66566E-004	...........
	14	3.875	3.48650E-003	3.39313E-003	5.67532E-004	...........
	15	4.13333	3.45454E-003	3.36532E-003	5.63466E-004	...........
	16	4.39167	3.42453E-003	3.34182E-003	5.62732E-004	...........
	17	4.65	3.39618E-003	3.31828E-003	5.68566E-004	...........
	18	4.90833	3.36951E-003	3.29610E-003	5.66266E-004	...........
EOC	QUANT	0.0033695	Open Circuit (V)
PSTATMODEL	IQUANT	4	Pstat Model
PSTATSECTION	LABEL	REF600-11020	Pstat Section
PSTATSERIALNO	LABEL	11020	Pstat Serial Number
CTRLMODE	IQUANT	1	Control Mode
IESTAB	IQUANT	0	I/E Stability
CASPEED	IQUANT	1	Control Amp Speed
CONVENTION	IQUANT	1	Current Convention
ICHRANGE	IQUANT	2	Ich Range
ICHRANGEMODE	TOGGLE	F	Ich Auto Range
ICHOFFSETENABLE	TOGGLE	T	Ich Offset Enable
ICHOFFSET	QUANT	0	Ich Offset (V)
ICHFILTER	IQUANT	3	Ich Filter
VCHRANGE	IQUANT	2	Vch Range
VCHRANGEMODE	TOGGLE	F	Vch Auto Range
VCHOFFSETENABLE	TOGGLE	T	Vch Offset Enable
VCHOFFSET	QUANT	0	Vch Offset (V)
VCHFILTER	IQUANT	3	Vch Filter
ACHRANGE	IQUANT	2	Ach Range
ACHOFFSETENABLE	TOGGLE	F	Ach Offset Enable
ACHOFFSET	QUANT	0	Ach Offset (V)
ACHFILTER	IQUANT	3	Ach Filter
IERANGELOWERLIMIT	IQUANT	1	I/E Range Lower Limit
IERANGEMODE	TOGGLE	F	I/E AutoRange
IERANGE	IQUANT	4	I/E Range
POSFEEDENABLE	TOGGLE	F	Positive Feedback IR Comp
POSFEEDRESISTANCE	QUANT	0	Positive Feedback Resistance (ohm)
ACHSELECT	IQUANT	0	Ach Select
CABLEID	IQUANT	14	Cable ID
DCCALDATE	LABEL	8/19/2019	DC Calibration Date
ACCALDATE	LABEL	8/19/2019	AC Calibration Date
THERMOSELECT	IQUANT	1	Thermo Select
FRAMEWORKVERSION	QUANT	6.33	Framework Version
INSTRUMENTVERSION	LABEL	3.50	Instrument Version
ZCURVE	TABLE
	Pt	Time	Freq	Zreal	Zimag	Zsig	Zmod	Zphz	Idc	Vdc	IERange
	#	s	Hz	ohm	ohm	V	ohm	°	A	V	#
	0	2	1000078	2329.678	-1237.274	1	2637.849	-27.97242	1.246695E-005	0.0042827	8
	1	3	794390.6	2523.561	-1142.007	1	2769.935	-24.34856	-3.381716E-006	0.0056858	8
	2	5	630984.4	2702.877	-1029.695	1	2892.372	-20.85497	5.723537E-006	0.0049682	8
	3	6	501234.4	2854.866	-915.8423	1	2998.171	-17.78626	6.519519E-006	0.0040125	8
	4	7	398109.4	2962.899	-811.4977	1	3072.019	-15.31691	-2.418935E-006	0.0045923	8
	5	9	316265.6	3057.737	-722.4789	1	3141.931	-13.29398	-2.649186E-006	0.0047116	8
	6	10	251203.1	3133.221	-639.3103	1	3197.779	-11.53247	-2.657833E-006	0.0047022	8
	7	11	199546.9	3193.105	-575.3561	1	3244.527	-10.21435	-6.774901E-007	0.0044845	8
	8	13	158578.1	3246.881	-503.9754	1	3285.761	-8.822947	-6.368211E-006	0.0057221	8
	9	14	125953.1	3327.917	-427.9722	1	3355.323	-7.328053	3.972869E-006	0.0001924	7
	10	15	100078.1	3355.168	-407.6277	1	3379.839	-6.927058	5.317201E-007	0.0029778	7
	11	17	79453.13	3397.512	-401.3914	1	3421.141	-6.737848	6.178576E-008	0.0057781	7
	12	18	63140.62	3441.183	-400.0948	1	3464.364	-6.631811	-1.102278E-006	0.0052758	7
	13	19	50203.12	3485.084	-407.9624	1	3508.88	-6.676633	6.393175E-007	0.0049753	7
	14	21	39890.62	3531.323	-416.8228	1	3555.838	-6.73181	1.15613E-006	0.0032	7
	15	22	31640.63	3579.618	-431.2314	1	3605.5	-6.869236	1.156557E-006	0.0031994	7
	16	24	25171.88	3625.776	-448.8586	1	3653.454	-7.057115	-1.310664E-006	0.0062874	7
	17	25	20015.62	3681.778	-478.3168	1	3712.719	-7.402101	1.049156E-006	0.0029539	7
	18	26	15890.62	3728.71	-511.1783	1	3763.586	-7.806161	8.720899E-007	0.0045322	7
	19	28	12609.37	3780.386	-550.6227	1	3820.275	-8.287	4.098363E-007	0.0053036	7
	20	29	10078.13	3832.345	-601.4963	1	3879.261	-8.91995	-3.218056E-007	0.006184	7
	21	30	8015.625	3880.177	-658.6441	1	3935.681	-9.63389	4.071813E-007	0.0053087	7
	22	32	6328.125	3949.051	-749.3327	1	4019.516	-10.74414	-2.995166E-007	0.003796	7
	23	33	5015.625	4013.167	-848.9517	1	4101.979	-11.94435	8.745043E-007	0.0045315	7
	24	34	3984.375	4069.616	-977.409	1	4185.344	-13.50507	-3.207711E-007	0.0061861	7
	25	36	3170.956	4137.302	-1116.113	1	4285.204	-15.0972	-1.100087E-006	0.005263	7
	26	37	2527.573	4203.818	-1297.818	1	4399.593	-17.15669	-3.002964E-007	0.0037984	7
	27	38	1976.103	4278.805	-1543.774	1	4548.781	-19.83922	-9.605864E-007	0.0065206	7
	28	40	1577.524	4327.114	-1806.724	1	4689.154	-22.66227	6.501899E-008	0.0057739	7
	29	41	1265.625	4434.24	-2185.303	1	4943.484	-26.23522	1.169024E-006	0.0035475	7
	30	43	998.264	4534.605	-2645.387	1	5249.831	-30.25833	-3.205653E-007	0.0061853	7
	31	44	796.875	4645.515	-3200.969	1	5641.543	-34.56859	1.051206E-006	0.0029529	7
	32	45	627.7902	4790.472	-3922.36	1	6191.408	-39.31005	1.465522E-007	0.00326	7
	33	47	505.5147	4943.207	-4725.66	1	6838.651	-43.71108	-7.527831E-007	0.0045265	7
	34	48	397.9953	5162.475	-5828.255	1	7785.866	-48.46654	2.544003E-009	0.0047629	7
	35	49	315.5048	5428.507	-7149.714	1	8977.032	-52.79197	7.409541E-009	0.0047538	7
	36	51	252.4038	5755.977	-8703.904	1	10435	-56.52295	1.725474E-009	0.0046942	6
	37	52	198.6229	6204.818	-10754.87	1	12416.4	-60.01802	1.332887E-009	0.0047024	6
	38	54	158.3615	6754.956	-13134.24	1	14769.49	-62.78319	2.782804E-010	0.0046972	6
	39	55	125.558	7491.644	-16102.85	1	17760.25	-65.0504	8.632504E-010	0.0047045	6
	40	56	100.4464	8415.688	-19551.29	1	21285.6	-66.71095	1.706691E-010	0.0046986	6
	41	58	79.00281	9674.84	-24078.97	1	25949.94	-68.10992	6.035557E-010	0.0046967	6
	42	59	63.3446	11022.23	-29061.76	1	31081.76	-69.2298	4.295089E-010	0.0047053	6
	43	61	49.86702	13733.92	-35480.34	1	38045.7	-68.83931	-3.144142E-010	0.00469	6
	44	62	39.72458	16549.87	-43103.87	1	46171.87	-68.99554	1.24789E-009	0.0047053	6
	45	63	31.6723	20155.82	-51677.01	1	55468.64	-68.6925	1.581303E-009	0.0046935	6
	46	65	24.93351	25554.38	-62546.11	1	67565.09	-67.77662	8.411225E-010	0.0046975	6
	47	66	19.86229	32005.01	-74139.95	1	80753.03	-66.65092	-3.789364E-010	0.0047006	6
	48	67	15.83615	40576.59	-86551.71	1	95591.1	-64.88219	1.500717E-009	0.0046865	6
	49	69	12.40079	50440.64	-103270.8	1	114930.9	-63.96769	1.727913E-010	0.0047005	5
	50	70	9.93114	62751.32	-118465.8	1	134059.2	-62.08983	1.022973E-009	0.0046901	5
	51	72	7.944915	75814.97	-135646.4	1	155395.8	-60.79847	-6.266629E-010	0.0046948	5
	52	73	6.317385	92356.27	-154941.3	1	180378.7	-59.20199	2.145553E-010	0.0046953	5
	53	76	5.008013	109969.7	-176466.5	1	207927.3	-58.06982	2.284301E-010	0.0047114	5
	54	78	3.945707	129601.8	-201170	1	239303.2	-57.20874	-1.071941E-010	0.0047	5
	55	81	3.158693	148922.6	-228145.8	1	272449	-56.86543	3.383315E-010	0.00472	5
	56	84	2.504006	171102.2	-261496.2	1	312500	-56.80248	-2.945307E-010	0.0047024	5
	57	87	1.998082	194354	-299544.7	1	357072.1	-57.02324	-7.140186E-011	0.0046758	5
	58	90	1.584686	221530.5	-345761.4	1	410641.8	-57.35218	1.301035E-010	0.0047471	5
	59	94	1.266892	249980	-400248.9	1	471899.5	-58.0127	-1.156483E-010	0.0047069	5
	60	98	0.999041	285587.6	-469095.5	1	549191.1	-58.66674	4.379183E-010	0.0047192	5
