EXPLAIN
TAG	EISPOT
TITLE	LABEL	Potentiostatic EIS	Test &Identifier
DATE	LABEL	10/10/2019	Date
TIME	LABEL	9:48:17	Time
NOTES	NOTES	1	&Notes...
	
PSTAT	PSTAT	REF600-11020	Potentiostat
VDC	POTEN	0.00000E+000	T	DC &Voltage (V)
FREQINIT	QUANT	1.00000E+006	Initial Fre&q. (Hz)
FREQFINAL	QUANT	1.00000E+000	Final Fre&q. (Hz)
PTSPERDEC	QUANT	1.00000E+001	Points/&decade
VAC	QUANT	2.50000E+001	AC &Voltage (mV rms)
AREA	QUANT	1.00000E-002	&Area (cm^2)
CONDIT	TWOPARAM	T	5.00000E+000	0.00000E+000	Conditionin&g	Time(s)	E(V)
DELAY	TWOPARAM	T	5.00000E+000	0.00000E+000	Init. De&lay	Time(s)	Stab.(mV/s)
SPEED	SELECTOR	1	&Optimize for:
ZGUESS	QUANT	1.00000E+004	E&stimated Z (ohms)
OCVCURVE	TABLE	19
	Pt	T	Vf	Vm	Ach	Over
	#	s	V vs. Ref.	V	V	bits
	0	0.258333	6.90555E-003	6.90555E-003	5.67732E-004	...........
	1	0.516667	6.90310E-003	6.77726E-003	5.67399E-004	...........
	2	0.775	6.88781E-003	6.64330E-003	5.68999E-004	...........
	3	1.03333	6.84472E-003	6.56363E-003	5.68232E-004	...........
	4	1.29167	6.76983E-003	6.46865E-003	5.62266E-004	...........
	5	1.55	6.67565E-003	6.40115E-003	5.65532E-004	...........
	6	1.80833	6.57916E-003	6.34170E-003	5.66432E-004	...........
	7	2.06667	6.49081E-003	6.26733E-003	5.70866E-004	...........
	8	2.325	6.41250E-003	6.18883E-003	5.68532E-004	...........
	9	2.58333	6.34290E-003	6.26482E-003	5.61032E-004	...........
	10	2.84167	6.28473E-003	6.11846E-003	5.60732E-004	...........
	11	3.1	6.23935E-003	6.13645E-003	5.65132E-004	...........
	12	3.35833	6.20100E-003	6.10848E-003	5.65499E-004	...........
	13	3.61667	6.16592E-003	6.08680E-003	5.58699E-004	...........
	14	3.875	6.13574E-003	6.06793E-003	5.62266E-004	...........
	15	4.13333	6.11104E-003	6.06241E-003	5.62432E-004	...........
	16	4.39167	6.09111E-003	6.05964E-003	5.63832E-004	...........
	17	4.65	6.07629E-003	6.06412E-003	5.68432E-004	...........
	18	4.90833	6.06482E-003	5.94165E-003	5.62366E-004	...........
EOC	QUANT	0.0060648	Open Circuit (V)
PSTATMODEL	IQUANT	4	Pstat Model
PSTATSECTION	LABEL	REF600-11020	Pstat Section
PSTATSERIALNO	LABEL	11020	Pstat Serial Number
CTRLMODE	IQUANT	1	Control Mode
IESTAB	IQUANT	0	I/E Stability
CASPEED	IQUANT	1	Control Amp Speed
CONVENTION	IQUANT	1	Current Convention
ICHRANGE	IQUANT	2	Ich Range
ICHRANGEMODE	TOGGLE	F	Ich Auto Range
ICHOFFSETENABLE	TOGGLE	T	Ich Offset Enable
ICHOFFSET	QUANT	0	Ich Offset (V)
ICHFILTER	IQUANT	3	Ich Filter
VCHRANGE	IQUANT	2	Vch Range
VCHRANGEMODE	TOGGLE	F	Vch Auto Range
VCHOFFSETENABLE	TOGGLE	T	Vch Offset Enable
VCHOFFSET	QUANT	0	Vch Offset (V)
VCHFILTER	IQUANT	3	Vch Filter
ACHRANGE	IQUANT	2	Ach Range
ACHOFFSETENABLE	TOGGLE	F	Ach Offset Enable
ACHOFFSET	QUANT	0	Ach Offset (V)
ACHFILTER	IQUANT	3	Ach Filter
IERANGELOWERLIMIT	IQUANT	1	I/E Range Lower Limit
IERANGEMODE	TOGGLE	F	I/E AutoRange
IERANGE	IQUANT	6	I/E Range
POSFEEDENABLE	TOGGLE	F	Positive Feedback IR Comp
POSFEEDRESISTANCE	QUANT	0	Positive Feedback Resistance (ohm)
ACHSELECT	IQUANT	0	Ach Select
CABLEID	IQUANT	14	Cable ID
DCCALDATE	LABEL	8/19/2019	DC Calibration Date
ACCALDATE	LABEL	8/19/2019	AC Calibration Date
THERMOSELECT	IQUANT	1	Thermo Select
FRAMEWORKVERSION	QUANT	6.33	Framework Version
INSTRUMENTVERSION	LABEL	3.50	Instrument Version
ZCURVE	TABLE
	Pt	Time	Freq	Zreal	Zimag	Zsig	Zmod	Zphz	Idc	Vdc	IERange
	#	s	Hz	ohm	ohm	V	ohm	°	A	V	#
	0	1	1000078	2394.186	-1644.435	1	2904.53	-34.48304	-3.211339E-006	0.0099651	8
	1	3	794390.6	2730.187	-1559.925	1	3144.406	-29.74201	4.968075E-006	0.0072119	8
	2	5	630984.4	3006.41	-1434.524	1	3331.12	-25.50838	-1.296406E-006	0.0077462	8
	3	6	501234.4	3240.854	-1294.687	1	3489.893	-21.77618	-5.108273E-006	0.0089394	8
	4	8	398109.4	3436.988	-1166.489	1	3629.543	-18.74683	-4.606774E-006	0.0088208	8
	5	9	316265.6	3585.386	-1037.021	1	3732.346	-16.13175	4.60566E-006	0.0067991	8
	6	11	251203.1	3691.65	-921.9817	1	3805.04	-14.02264	-6.447073E-007	0.0077864	8
	7	12	199546.9	3792.698	-838.2722	1	3884.231	-12.4633	-4.773193E-007	0.0077861	8
	8	13	158578.1	3868.725	-760.0151	1	3942.671	-11.11428	1.851964E-006	0.0070529	8
	9	15	125953.1	3963.316	-653.2765	1	4016.795	-9.359946	8.008595E-007	0.0058309	7
	10	16	100078.1	4008.759	-615.3084	1	4055.707	-8.726282	1.382298E-008	0.0074885	7
	11	18	79453.13	4065.988	-603.4114	1	4110.518	-8.441348	-5.289548E-008	0.0077319	7
	12	19	63140.62	4125.119	-605.093	1	4169.262	-8.34492	1.454409E-007	0.0073474	7
	13	20	50203.12	4186.437	-616.8317	1	4231.635	-8.381682	1.846267E-008	0.0074774	7
	14	22	39890.62	4251.005	-640.7841	1	4299.029	-8.572063	-5.203133E-008	0.0076699	7
	15	23	31640.63	4317.151	-676.3953	1	4369.817	-8.904502	-3.824818E-008	0.0075861	7
	16	24	25171.88	4387.771	-722.2668	1	4446.819	-9.347577	7.410929E-008	0.007438	7
	17	26	20015.62	4462.942	-783.9549	1	4531.273	-9.96286	-3.744497E-008	0.0075943	7
	18	27	15890.62	4544.491	-852.5812	1	4623.775	-10.62561	8.454511E-008	0.0073857	7
	19	29	12609.37	4635.096	-941.6364	1	4729.777	-11.48356	8.923637E-008	0.007515	7
	20	30	10078.13	4729.863	-1044.671	1	4843.856	-12.4548	-1.514661E-008	0.0077059	7
	21	31	8015.625	4838.413	-1158.782	1	4975.24	-13.46844	-4.195028E-008	0.0075813	7
	22	33	6328.125	4951.373	-1321.7	1	5124.743	-14.94583	-4.900591E-008	0.0076578	7
	23	34	5015.625	5076.144	-1497.659	1	5292.468	-16.4381	-1.147891E-008	0.0075188	7
	24	35	3984.375	5195.964	-1699.79	1	5466.93	-18.11482	-3.844823E-008	0.0075833	7
	25	37	3170.956	5351.035	-1958.555	1	5698.203	-20.10334	4.727596E-008	0.0074088	7
	26	38	2527.573	5503.695	-2257.617	1	5948.739	-22.30345	8.943796E-008	0.0075065	7
	27	39	1976.103	5682.55	-2651.249	1	6270.605	-25.01187	1.485574E-008	0.0074755	7
	28	41	1577.524	5859.177	-3102.579	1	6629.928	-27.90232	4.58306E-008	0.0074041	7
	29	42	1265.625	6049.988	-3624.958	1	7052.849	-30.92868	-3.95717E-008	0.0075643	7
	30	43	998.264	6281.148	-4324.323	1	7625.784	-34.54588	-1.069869E-009	0.0075677	7
	31	45	796.875	6532.724	-5127.1	1	8304.435	-38.12601	8.834436E-008	0.0073791	7
	32	46	627.7902	6830.388	-6178.373	1	9210.13	-42.13067	-2.940615E-010	0.0075687	7
	33	48	505.5147	7165.721	-7343.837	1	10260.58	-45.70332	4.130146E-009	0.0073823	6
	34	49	397.9953	7577.312	-8911.833	1	11697.71	-49.62705	6.152656E-010	0.0075076	6
	35	50	315.5048	8055.139	-10784.02	1	13460.32	-53.24205	3.610988E-010	0.0075014	6
	36	52	252.4038	8602.659	-12971.47	1	15564.86	-56.44773	1.065888E-009	0.0075012	6
	37	53	198.6229	9302.833	-15851.02	1	18379.27	-59.59167	9.2172E-010	0.0075029	6
	38	54	158.3615	10110.93	-19189.52	1	21690.29	-62.21531	3.439052E-010	0.0075012	6
	39	56	125.558	11109.19	-23373.43	1	25879.17	-64.57866	8.140824E-010	0.0075012	6
	40	57	100.4464	12293.4	-28227.22	1	30788.04	-66.46611	1.112499E-009	0.0075006	6
	41	58	79.00281	13902.3	-34841.92	1	37513.11	-68.24747	9.324901E-010	0.0074984	6
	42	60	63.3446	15653.23	-42624.74	1	45408.06	-69.83508	6.535992E-010	0.0074973	6
	43	61	49.86702	17929.77	-51428.12	1	54464	-70.77953	-4.250209E-011	0.007499	6
	44	63	39.72458	21352.23	-62867.82	1	66394.88	-71.24062	6.462542E-010	0.0075011	6
	45	64	31.6723	25686.84	-76164.83	1	80379.7	-71.36315	2.541967E-010	0.0074999	6
	46	66	24.93351	31585.35	-93467.05	1	98659.6	-71.32833	1.197053E-009	0.0074964	6
	47	67	19.86229	39418.09	-112875.7	1	119560.5	-70.74994	5.484407E-010	0.0075118	5
	48	68	15.83615	47786.92	-136103.1	1	144248.5	-70.6534	1.384483E-009	0.0074971	5
	49	70	12.40079	62959.35	-164332.6	1	175980.3	-69.03709	1.15984E-010	0.0075102	5
	50	71	9.93114	79653.39	-195360.8	1	210975.2	-67.81808	4.078446E-010	0.0075006	5
	51	73	7.944915	101428.2	-228725.3	1	250205.8	-66.08512	-1.678548E-011	0.0075009	5
	52	74	6.317385	128466.4	-267314.8	1	296581.9	-64.33195	5.67834E-010	0.0075019	5
	53	76	5.008013	161907.5	-310289.2	1	349990.6	-62.44466	3.829425E-010	0.0075112	5
	54	79	3.945707	202180.3	-358365.6	1	411464.2	-60.56946	1.478046E-010	0.0075053	5
	55	82	3.158693	245506	-405682.8	1	474185.3	-58.81904	-2.069084E-011	0.0075129	5
	56	85	2.504006	295396.1	-460013.4	1	546691.2	-57.29358	1.432016E-010	0.0074968	5
	57	88	1.998082	347769.8	-517169	1	623223.6	-56.08118	-5.588672E-011	0.0075367	5
	58	91	1.584686	405728.7	-583902.4	1	711025.8	-55.20622	1.931607E-010	0.0075423	5
	59	95	1.266892	466157.6	-656087.1	1	804831.1	-54.60576	1.360649E-011	0.0075455	5
	60	99	0.999041	533258.7	-746440.2	1	917353.7	-54.45789	1.341713E-010	0.0074761	5
