EXPLAIN
TAG	EISPOT
TITLE	LABEL	Potentiostatic EIS	Test &Identifier
DATE	LABEL	11/12/2019	Date
TIME	LABEL	23:47:52	Time
NOTES	NOTES	3	&Notes...
	
	
	
PSTAT	PSTAT	REF600-11020	Potentiostat
VDC	POTEN	0.00000E+000	T	DC &Voltage (V)
FREQINIT	QUANT	1.00000E+006	Initial Fre&q. (Hz)
FREQFINAL	QUANT	1.00000E+000	Final Fre&q. (Hz)
PTSPERDEC	QUANT	1.00000E+001	Points/&decade
VAC	QUANT	2.50000E+001	AC &Voltage (mV rms)
AREA	QUANT	1.00000E-002	&Area (cm^2)
CONDIT	TWOPARAM	T	5.00000E+000	0.00000E+000	Conditionin&g	Time(s)	E(V)
DELAY	TWOPARAM	T	5.00000E+000	0.00000E+000	Init. De&lay	Time(s)	Stab.(mV/s)
SPEED	SELECTOR	1	&Optimize for:
ZGUESS	QUANT	1.00000E+005	E&stimated Z (ohms)
OCVCURVE	TABLE	19
	Pt	T	Vf	Vm	Ach	Over
	#	s	V vs. Ref.	V	V	bits
	0	0.258333	7.45991E-003	7.45991E-003	5.84199E-004	...........
	1	0.516667	7.46096E-003	7.51515E-003	5.79999E-004	...........
	2	0.775	7.46750E-003	7.57063E-003	5.84565E-004	...........
	3	1.03333	7.48677E-003	7.65373E-003	5.84465E-004	...........
	4	1.29167	7.52494E-003	7.77645E-003	5.85999E-004	...........
	5	1.55	7.58525E-003	7.88403E-003	5.79566E-004	...........
	6	1.80833	7.66725E-003	7.99121E-003	5.80165E-004	...........
	7	2.06667	7.76532E-003	8.08894E-003	5.83099E-004	...........
	8	2.325	7.87046E-003	8.17271E-003	5.85865E-004	...........
	9	2.58333	7.97453E-003	8.26247E-003	5.84532E-004	...........
	10	2.84167	8.07303E-003	8.34301E-003	5.86699E-004	...........
	11	3.1	8.16489E-003	8.40653E-003	5.86665E-004	...........
	12	3.35833	8.25041E-003	8.49317E-003	5.85232E-004	...........
	13	3.61667	8.33099E-003	8.58081E-003	5.78666E-004	...........
	14	3.875	8.41026E-003	8.68207E-003	5.81899E-004	...........
	15	4.13333	8.49299E-003	8.79137E-003	5.84299E-004	...........
	16	4.39167	8.58176E-003	8.85398E-003	5.80865E-004	...........
	17	4.65	8.67370E-003	8.91371E-003	5.82832E-004	...........
	18	4.90833	8.76153E-003	8.97908E-003	5.80932E-004	...........
EOC	QUANT	0.0087615	Open Circuit (V)
PSTATMODEL	IQUANT	4	Pstat Model
PSTATSECTION	LABEL	REF600-11020	Pstat Section
PSTATSERIALNO	LABEL	11020	Pstat Serial Number
CTRLMODE	IQUANT	1	Control Mode
IESTAB	IQUANT	0	I/E Stability
CASPEED	IQUANT	1	Control Amp Speed
CONVENTION	IQUANT	1	Current Convention
ICHRANGE	IQUANT	2	Ich Range
ICHRANGEMODE	TOGGLE	F	Ich Auto Range
ICHOFFSETENABLE	TOGGLE	T	Ich Offset Enable
ICHOFFSET	QUANT	0	Ich Offset (V)
ICHFILTER	IQUANT	3	Ich Filter
VCHRANGE	IQUANT	2	Vch Range
VCHRANGEMODE	TOGGLE	F	Vch Auto Range
VCHOFFSETENABLE	TOGGLE	T	Vch Offset Enable
VCHOFFSET	QUANT	0	Vch Offset (V)
VCHFILTER	IQUANT	3	Vch Filter
ACHRANGE	IQUANT	2	Ach Range
ACHOFFSETENABLE	TOGGLE	F	Ach Offset Enable
ACHOFFSET	QUANT	0	Ach Offset (V)
ACHFILTER	IQUANT	3	Ach Filter
IERANGELOWERLIMIT	IQUANT	1	I/E Range Lower Limit
IERANGEMODE	TOGGLE	F	I/E AutoRange
IERANGE	IQUANT	5	I/E Range
POSFEEDENABLE	TOGGLE	F	Positive Feedback IR Comp
POSFEEDRESISTANCE	QUANT	0	Positive Feedback Resistance (ohm)
ACHSELECT	IQUANT	0	Ach Select
CABLEID	IQUANT	14	Cable ID
DCCALDATE	LABEL	8/19/2019	DC Calibration Date
ACCALDATE	LABEL	8/19/2019	AC Calibration Date
THERMOSELECT	IQUANT	1	Thermo Select
FRAMEWORKVERSION	QUANT	6.33	Framework Version
INSTRUMENTVERSION	LABEL	3.50	Instrument Version
ZCURVE	TABLE
	Pt	Time	Freq	Zreal	Zimag	Zsig	Zmod	Zphz	Idc	Vdc	IERange
	#	s	Hz	ohm	ohm	V	ohm	°	A	V	#
	0	1	1000078	1829.232	-1468.011	1	2345.452	-38.74803	-4.110908E-006	0.0105245	8
	1	2	794390.6	2102.551	-1511.668	1	2589.568	-35.71496	8.433314E-006	0.0093143	8
	2	3	630984.4	2387.139	-1514.29	1	2826.925	-32.38914	4.399441E-006	0.0092919	8
	3	5	501234.4	2661.895	-1490.441	1	3050.754	-29.24522	-2.199445E-006	0.0101566	8
	4	6	398109.4	2937.263	-1440.671	1	3271.552	-26.12706	6.719642E-006	0.0096097	8
	5	8	316265.6	3175.599	-1356.787	1	3453.303	-23.13479	-4.36904E-007	0.0100115	8
	6	9	251203.1	3394.399	-1253.965	1	3618.615	-20.27533	-3.219728E-006	0.0107965	8
	7	10	199546.9	3583.849	-1139.41	1	3760.615	-17.63697	-1.326057E-006	0.0100877	8
	8	12	158578.1	3737.141	-1035.799	1	3878.028	-15.49143	-1.910016E-006	0.0104423	8
	9	13	125953.1	3924.133	-905.5554	1	4027.263	-12.99443	1.963717E-006	0.0100822	7
	10	14	100078.1	3994.693	-801.205	1	4074.249	-11.34118	-7.968047E-007	0.0117801	7
	11	16	79453.13	4085.463	-723.181	1	4148.975	-10.03813	-1.107281E-006	0.0115989	7
	12	17	63140.62	4180.771	-665.2145	1	4233.362	-9.040711	1.002945E-006	0.0091782	7
	13	19	50203.12	4228.728	-607.9305	1	4272.203	-8.180905	-9.702845E-007	0.0107646	7
	14	20	39890.62	4304.281	-574.298	1	4342.424	-7.599795	8.737057E-007	0.0086995	7
	15	21	31640.63	4361.305	-553.085	1	4396.235	-7.227464	1.005169E-006	0.0091776	7
	16	23	25171.88	4409.81	-542.7401	1	4443.083	-7.016428	5.850024E-007	0.0103868	7
	17	24	20015.62	4446.156	-539.4885	1	4478.767	-6.918346	-1.112216E-006	0.0112688	7
	18	25	15890.62	4514.662	-554.9205	1	4548.638	-7.007373	6.815202E-007	0.0086445	7
	19	27	12609.37	4558.95	-575.3613	1	4595.113	-7.192973	-6.896479E-007	0.0101498	7
	20	28	10078.13	4629.605	-617.8518	1	4670.651	-7.601588	1.004564E-006	0.0091698	7
	21	30	8015.625	4700.31	-654.3118	1	4745.634	-7.924993	7.799227E-007	0.0099841	7
	22	31	6328.125	4747.449	-706.3453	1	4799.708	-8.462625	-6.902636E-007	0.0101466	7
	23	32	5015.625	4833.455	-775.3333	1	4895.245	-9.113167	7.842295E-007	0.0099803	7
	24	34	3984.375	4887.639	-854.2794	1	4961.734	-9.91422	6.971651E-008	0.0090371	7
	25	35	3170.956	4964.411	-952.989	1	5055.053	-10.86655	4.101426E-007	0.0087401	7
	26	36	2527.573	5029.408	-1076.339	1	5143.292	-12.0796	7.012594E-008	0.0090327	7
	27	38	1976.103	5116.808	-1248.341	1	5266.885	-13.71055	9.82791E-007	0.0088768	7
	28	39	1577.524	5185.12	-1458.841	1	5386.436	-15.71402	6.83383E-007	0.0086266	7
	29	40	1265.625	5231.68	-1684.556	1	5496.199	-17.84811	-1.112138E-006	0.0112573	7
	30	42	998.264	5327.297	-2020.269	1	5697.506	-20.76821	9.647762E-008	0.0110801	7
	31	43	796.875	5400.743	-2407.36	1	5912.986	-24.02473	-1.112888E-006	0.011257	7
	32	45	627.7902	5514.29	-2939.457	1	6248.824	-28.06038	4.10569E-007	0.008746	7
	33	46	505.5147	5626.535	-3538.688	1	6646.819	-32.16695	5.894119E-007	0.0103777	7
	34	47	397.9953	5767.83	-4338.507	1	7217.375	-36.95014	3.052549E-009	0.0102647	7
	35	49	315.5048	5943.934	-5316.506	1	7974.684	-41.8108	2.411853E-009	0.0102669	7
	36	50	252.4038	6155.053	-6475.356	1	8933.92	-46.45269	5.962471E-009	0.0102566	7
	37	52	198.6229	6448.816	-8009.043	1	10282.61	-51.15927	4.098832E-010	0.0101991	6
	38	53	158.3615	6803.192	-9794.25	1	11925.21	-55.21573	1.149115E-009	0.0101933	6
	39	54	125.558	7270.006	-12033.17	1	14058.81	-58.86115	8.144677E-010	0.0101908	6
	40	56	100.4464	7851.654	-14645.72	1	16617.63	-61.80399	1.093119E-009	0.0101941	6
	41	57	79.00281	8625.216	-18073.22	1	20025.88	-64.48779	8.700172E-010	0.0101902	6
	42	58	63.3446	9540.25	-21811.2	1	23806.41	-66.37537	-3.180691E-010	0.0101954	6
	43	60	49.86702	10923.08	-26961.69	1	29090.31	-67.94549	5.095195E-010	0.0101813	6
	44	61	39.72458	12397.69	-32763.02	1	35030.25	-69.27311	4.897882E-010	0.0101932	6
	45	63	31.6723	14360.21	-39738.15	1	42253.24	-70.13162	-1.970457E-010	0.0101931	6
	46	64	24.93351	16842.26	-48688	1	51518.77	-70.91836	6.91104E-010	0.010185	6
	47	65	19.86229	19927.22	-59004.81	1	62278.9	-71.33904	4.938923E-010	0.0101942	6
	48	67	15.83615	23792.44	-71405.98	1	75265.48	-71.57195	4.139771E-010	0.0101911	6
	49	68	12.40079	29505.77	-87358.52	1	92206.84	-71.33735	1.185991E-009	0.0101986	6
	50	70	9.93114	35474.34	-104869.5	1	110707	-71.31081	1.275266E-010	0.0102033	5
	51	71	7.944915	43419.59	-125407.4	1	132711.2	-70.90269	7.604685E-010	0.0102001	5
	52	73	6.317385	53839.15	-150734.6	1	160061.1	-70.34437	1.767737E-010	0.0102175	5
	53	75	5.008013	67216.82	-180823.3	1	192912.3	-69.60856	1.662091E-010	0.010202	5
	54	77	3.945707	84420.98	-217000	1	232843	-68.74213	3.212844E-010	0.0102076	5
	55	80	3.158693	104690.3	-256089.8	1	276662.4	-67.76511	-8.973598E-011	0.0102119	5
	56	83	2.504006	130391.8	-302894.8	1	329768.5	-66.70882	1.784557E-010	0.0101896	5
	57	86	1.998082	160666	-354602.7	1	389302.8	-65.62532	-1.310661E-010	0.0102322	5
	58	89	1.584686	197004	-416014	1	460302.3	-64.66004	8.0702E-011	0.0102184	5
	59	93	1.266892	240804.2	-482985.4	1	539686.6	-63.50032	-1.391395E-010	0.0102363	5
	60	97	0.999041	293909.2	-563494.1	1	635537.7	-62.4542	3.653961E-011	0.0101584	5
