EXPLAIN
TAG	EISPOT
TITLE	LABEL	Potentiostatic IDE	Test &Identifier
DATE	LABEL	9/8/2019	Date
TIME	LABEL	8:36:39	Time
NOTES	NOTES	1	&Notes...
	
PSTAT	PSTAT	REF600-11020	Potentiostat
VDC	POTEN	0.00000E+000	T	DC &Voltage (V)
FREQINIT	QUANT	1.00000E+006	Initial Fre&q. (Hz)
FREQFINAL	QUANT	1.00000E+000	Final Fre&q. (Hz)
PTSPERDEC	QUANT	1.00000E+001	Points/&decade
VAC	QUANT	2.50000E+001	AC &Voltage (mV rms)
AREA	QUANT	1.00000E-002	&Area (cm^2)
CONDIT	TWOPARAM	T	5.00000E+000	0.00000E+000	Conditionin&g	Time(s)	E(V)
DELAY	TWOPARAM	T	5.00000E+000	0.00000E+000	Init. De&lay	Time(s)	Stab.(mV/s)
SPEED	SELECTOR	1	&Optimize for:
ZGUESS	QUANT	1.00000E+007	E&stimated Z (ohms)
OCVCURVE	TABLE	18
	Pt	T	Vf	Vm	Ach	Over
	#	s	V vs. Ref.	V	V	bits
	0	0.258333	6.39411E-003	6.39411E-003	5.46833E-004	...........
	1	0.516667	6.39809E-003	6.60279E-003	5.52599E-004	...........
	2	0.775	6.42269E-003	6.80688E-003	5.50833E-004	...........
	3	1.03333	6.49264E-003	7.00023E-003	5.49633E-004	...........
	4	1.29167	6.61837E-003	7.18767E-003	5.55766E-004	...........
	5	1.55	6.78630E-003	7.36318E-003	5.54166E-004	...........
	6	1.80833	6.97319E-003	7.53951E-003	5.47999E-004	...........
	7	2.06667	7.16175E-003	7.70020E-003	5.46733E-004	...........
	8	2.325	7.34401E-003	7.85867E-003	5.48233E-004	...........
	9	2.58333	7.51787E-003	8.01183E-003	5.47799E-004	...........
	10	2.84167	7.68373E-003	8.15879E-003	5.44366E-004	...........
	11	3.1	7.84271E-003	8.29792E-003	5.47633E-004	...........
	12	3.35833	7.99542E-003	8.42894E-003	5.47566E-004	...........
	13	3.61667	8.14173E-003	8.55349E-003	5.48966E-004	...........
	14	3.875	8.28125E-003	8.67513E-003	5.46633E-004	...........
	15	4.13333	8.41418E-003	8.79811E-003	5.45766E-004	...........
	16	4.39167	8.54175E-003	8.91705E-003	5.41733E-004	...........
	17	4.65	8.66544E-003	9.02459E-003	5.43899E-004	...........
EOC	QUANT	0.0087856	Open Circuit (V)
PSTATMODEL	IQUANT	4	Pstat Model
PSTATSECTION	LABEL	REF600-11020	Pstat Section
PSTATSERIALNO	LABEL	11020	Pstat Serial Number
CTRLMODE	IQUANT	1	Control Mode
IESTAB	IQUANT	0	I/E Stability
CASPEED	IQUANT	1	Control Amp Speed
CONVENTION	IQUANT	1	Current Convention
ICHRANGE	IQUANT	2	Ich Range
ICHRANGEMODE	TOGGLE	F	Ich Auto Range
ICHOFFSETENABLE	TOGGLE	T	Ich Offset Enable
ICHOFFSET	QUANT	0	Ich Offset (V)
ICHFILTER	IQUANT	3	Ich Filter
VCHRANGE	IQUANT	2	Vch Range
VCHRANGEMODE	TOGGLE	F	Vch Auto Range
VCHOFFSETENABLE	TOGGLE	T	Vch Offset Enable
VCHOFFSET	QUANT	0	Vch Offset (V)
VCHFILTER	IQUANT	3	Vch Filter
ACHRANGE	IQUANT	2	Ach Range
ACHOFFSETENABLE	TOGGLE	F	Ach Offset Enable
ACHOFFSET	QUANT	0	Ach Offset (V)
ACHFILTER	IQUANT	3	Ach Filter
IERANGELOWERLIMIT	IQUANT	1	I/E Range Lower Limit
IERANGEMODE	TOGGLE	F	I/E AutoRange
IERANGE	IQUANT	3	I/E Range
POSFEEDENABLE	TOGGLE	F	Positive Feedback IR Comp
POSFEEDRESISTANCE	QUANT	0	Positive Feedback Resistance (ohm)
ACHSELECT	IQUANT	0	Ach Select
CABLEID	IQUANT	14	Cable ID
DCCALDATE	LABEL	8/19/2019	DC Calibration Date
ACCALDATE	LABEL	8/19/2019	AC Calibration Date
THERMOSELECT	IQUANT	1	Thermo Select
FRAMEWORKVERSION	QUANT	6.33	Framework Version
INSTRUMENTVERSION	LABEL	3.50	Instrument Version
ZCURVE	TABLE
	Pt	Time	Freq	Zreal	Zimag	Zsig	Zmod	Zphz	Idc	Vdc	IERange
	#	s	Hz	ohm	ohm	V	ohm	°	A	V	#
	0	1	1000078	2154.84	-836.813	1	2311.621	-21.22324	1.929282E-006	0.010432	8
	1	3	794390.6	2274.451	-728.3593	1	2388.228	-17.7569	-3.164063E-006	0.0112167	8
	2	4	630984.4	2376.531	-623.7192	1	2457.016	-14.70559	-3.252396E-007	0.0108866	8
	3	6	501234.4	2442.254	-535.5788	1	2500.29	-12.36899	-5.580491E-006	0.0117656	8
	4	7	398109.4	2488.175	-463.7869	1	2531.03	-10.55856	4.943087E-006	0.009642	8
	5	8	316265.6	2535.393	-393.5885	1	2565.76	-8.824031	1.991553E-006	0.009978	8
	6	10	251203.1	2567.356	-345.8879	1	2590.551	-7.672991	1.922289E-006	0.0098473	8
	7	11	199546.9	2604.404	-306.5806	1	2622.386	-6.713746	2.06934E-006	0.0098232	8
	8	12	158578.1	2617.7	-277.0869	1	2632.325	-6.042331	-9.926017E-007	0.010688	8
	9	14	125953.1	2648.758	-218.3321	1	2657.741	-4.71213	-6.613258E-007	0.0118182	7
	10	15	100078.1	2663.882	-202.4972	1	2671.568	-4.347025	2.766696E-008	0.0103616	7
	11	16	79453.13	2679.323	-200.7714	1	2686.835	-4.285371	-7.698929E-009	0.010401	7
	12	18	63140.62	2698.603	-204.5179	1	2706.342	-4.333967	-3.946801E-009	0.0103944	7
	13	19	50203.12	2719.771	-209.5381	1	2727.831	-4.40551	-5.570378E-008	0.0104557	7
	14	20	39890.62	2741.694	-222.0508	1	2750.671	-4.6303	-6.420418E-009	0.0104018	7
	15	22	31640.63	2764.432	-231.0862	1	2774.074	-4.778396	-3.009551E-008	0.0103669	7
	16	23	25171.88	2788.071	-247.7184	1	2799.054	-5.077363	-2.046609E-008	0.0103518	7
	17	24	20015.62	2812.923	-268.4662	1	2825.705	-5.451812	6.666298E-008	0.0103446	7
	18	26	15890.62	2840.457	-296.0599	1	2855.844	-5.950434	-1.989722E-008	0.0104244	7
	19	27	12609.37	2870.333	-325.8175	1	2888.766	-6.476044	-4.392398E-008	0.0103965	7
	20	28	10078.13	2900.59	-362.5461	1	2923.159	-7.124479	2.269607E-008	0.0102745	7
	21	30	8015.625	2933.029	-408.5555	1	2961.347	-7.929974	-5.002947E-008	0.0104371	7
	22	31	6328.125	2968.599	-465.7962	1	3004.92	-8.917444	-4.606954E-008	0.0103942	7
	23	32	5015.625	3006.886	-534.0141	1	3053.938	-10.07056	-4.258628E-008	0.0104868	7
	24	34	3984.375	3047.138	-617.7543	1	3109.127	-11.4604	8.282139E-008	0.0102077	7
	25	35	3170.956	3090.972	-718.4958	1	3173.381	-13.086	-5.453325E-008	0.010465	7
	26	36	2527.573	3138.557	-840.7123	1	3249.206	-14.99555	-4.517571E-008	0.010428	7
	27	38	1976.103	3197.13	-1004.825	1	3351.315	-17.44739	-2.962356E-008	0.0104642	7
	28	39	1577.524	3257.708	-1188.621	1	3467.778	-20.04521	8.644382E-008	0.0101802	7
	29	40	1265.625	3325.352	-1407.649	1	3611.016	-22.94334	-4.424899E-008	0.010384	7
	30	42	998.264	3410.495	-1693.632	1	3807.869	-26.40873	-4.835811E-008	0.0103856	7
	31	43	796.875	3505.339	-2027.602	1	4049.515	-30.04648	2.256474E-008	0.0102734	7
	32	44	627.7902	3620.902	-2458.784	1	4376.819	-34.17859	1.403031E-007	0.0101548	7
	33	46	505.5147	3745.893	-2931.103	1	4756.373	-38.04263	-4.689936E-008	0.0104265	7
	34	47	397.9953	3906.879	-3576.974	1	5297.023	-42.47591	5.382135E-009	0.0103823	7
	35	48	315.5048	4097.264	-4343.998	1	5971.423	-46.67425	5.884469E-009	0.0103801	7
	36	50	252.4038	4318.697	-5244.563	1	6793.864	-50.52985	5.094984E-009	0.0103735	7
	37	51	198.6229	4615.259	-6430.644	1	7915.416	-54.33308	6.246298E-009	0.0103731	7
	38	52	158.3615	4969.05	-7803.909	1	9251.619	-57.51352	6.510535E-009	0.0103788	7
	39	54	125.558	5436.025	-9517.81	1	10960.8	-60.26748	9.5349E-010	0.0103141	6
	40	55	100.4464	6003.784	-11515.28	1	12986.42	-62.46357	1.788723E-009	0.0103148	6
	41	56	79.00281	6795.2	-14120.15	1	15670.14	-64.30122	-1.087381E-010	0.010317	6
	42	58	63.3446	7775.059	-16905.35	1	18607.59	-65.3015	9.117963E-010	0.0103142	6
	43	59	49.86702	9128.115	-20771.34	1	22688.57	-66.27657	-4.147894E-010	0.0103128	6
	44	61	39.72458	10750.34	-24927.81	1	27147.11	-66.67145	3.581347E-010	0.0103192	6
	45	62	31.6723	12818.04	-29822.11	1	32460.14	-66.74117	7.751796E-010	0.0103169	6
	46	63	24.93351	15672.21	-35934.11	1	39203.04	-66.43618	1.206484E-009	0.0103125	6
	47	65	19.86229	19011.44	-42681.8	1	46724.42	-65.99073	8.943319E-010	0.0103127	6
	48	66	15.83615	22943.07	-50533.54	1	55497.95	-65.58115	2.727683E-010	0.0103158	6
	49	67	12.40079	28440.71	-60078.98	1	66470.73	-64.66766	8.064295E-010	0.0103205	6
	50	69	9.93114	34770.14	-70025.01	1	78182.25	-63.59381	1.797565E-010	0.0103184	6
	51	70	7.944915	41897.66	-81221.41	1	91391.09	-62.71328	1.66177E-009	0.0103105	6
	52	72	6.317385	50481.2	-94455.02	1	107098.6	-61.87786	8.200975E-010	0.0103033	5
	53	74	5.008013	60826.12	-109901.1	1	125610.8	-61.03712	-3.116006E-010	0.0103274	5
	54	77	3.945707	73155.63	-127843.3	1	147294.5	-60.22057	-4.137037E-010	0.0103133	5
	55	79	3.158693	86473.86	-146927.8	1	170486.1	-59.52121	-4.746992E-010	0.0102974	5
	56	82	2.504006	102606.9	-169752.2	1	198353.2	-58.84908	5.581333E-010	0.0103141	5
	57	85	1.998082	120927.1	-194892.5	1	229361	-58.18118	-1.288609E-011	0.0103548	5
	58	88	1.584686	141741.2	-224572.6	1	265562.4	-57.74152	8.703588E-011	0.0103284	5
	59	92	1.266892	166077.6	-257037	1	306022.5	-57.13256	-3.868985E-010	0.0103552	5
	60	96	0.999041	194486.1	-296564.9	1	354648.5	-56.7433	1.085609E-010	0.0102963	5
