EXPLAIN
TAG	EISPOT
TITLE	LABEL	Potentiostatic EIS	Test &Identifier
DATE	LABEL	11/13/2019	Date
TIME	LABEL	0:11:37	Time
NOTES	NOTES	3	&Notes...
	
	
	
PSTAT	PSTAT	REF600-11020	Potentiostat
VDC	POTEN	0.00000E+000	T	DC &Voltage (V)
FREQINIT	QUANT	1.00000E+006	Initial Fre&q. (Hz)
FREQFINAL	QUANT	1.00000E+000	Final Fre&q. (Hz)
PTSPERDEC	QUANT	1.00000E+001	Points/&decade
VAC	QUANT	2.50000E+001	AC &Voltage (mV rms)
AREA	QUANT	1.00000E-002	&Area (cm^2)
CONDIT	TWOPARAM	T	5.00000E+000	0.00000E+000	Conditionin&g	Time(s)	E(V)
DELAY	TWOPARAM	T	5.00000E+000	0.00000E+000	Init. De&lay	Time(s)	Stab.(mV/s)
SPEED	SELECTOR	1	&Optimize for:
ZGUESS	QUANT	1.00000E+005	E&stimated Z (ohms)
OCVCURVE	TABLE	19
	Pt	T	Vf	Vm	Ach	Over
	#	s	V vs. Ref.	V	V	bits
	0	0.258333	3.27755E-002	3.27755E-002	5.40799E-004	.........v.
	1	0.516667	3.50769E-002	1.53244E-001	5.37966E-004	...........
	2	0.775	4.47224E-002	3.25849E-002	5.44733E-004	...........
	3	1.03333	5.93013E-002	3.21474E-002	5.37966E-004	...........
	4	1.29167	6.61344E-002	3.22468E-002	5.43933E-004	...........
	5	1.55	5.94551E-002	3.23859E-002	5.40299E-004	...........
	6	1.80833	4.70704E-002	3.17530E-002	5.46699E-004	...........
	7	2.06667	3.74916E-002	2.99436E-002	5.39033E-004	...........
	8	2.325	3.26489E-002	3.10192E-002	5.43099E-004	...........
	9	2.58333	3.08983E-002	3.03055E-002	5.40633E-004	...........
	10	2.84167	3.04817E-002	3.10659E-002	5.50933E-004	...........
	11	3.1	3.05069E-002	3.11504E-002	5.41366E-004	...........
	12	3.35833	3.06710E-002	3.14522E-002	5.47399E-004	...........
	13	3.61667	3.08974E-002	3.17145E-002	5.44033E-004	...........
	14	3.875	3.11498E-002	3.17352E-002	5.44466E-004	...........
	15	4.13333	3.13829E-002	3.14818E-002	5.46266E-004	...........
	16	4.39167	3.15485E-002	3.18596E-002	5.38333E-004	...........
	17	4.65	3.16431E-002	3.20282E-002	5.40866E-004	...........
	18	4.90833	3.17219E-002	3.20923E-002	5.43766E-004	...........
EOC	QUANT	0.0317219	Open Circuit (V)
PSTATMODEL	IQUANT	4	Pstat Model
PSTATSECTION	LABEL	REF600-11020	Pstat Section
PSTATSERIALNO	LABEL	11020	Pstat Serial Number
CTRLMODE	IQUANT	1	Control Mode
IESTAB	IQUANT	0	I/E Stability
CASPEED	IQUANT	1	Control Amp Speed
CONVENTION	IQUANT	1	Current Convention
ICHRANGE	IQUANT	2	Ich Range
ICHRANGEMODE	TOGGLE	F	Ich Auto Range
ICHOFFSETENABLE	TOGGLE	T	Ich Offset Enable
ICHOFFSET	QUANT	0	Ich Offset (V)
ICHFILTER	IQUANT	3	Ich Filter
VCHRANGE	IQUANT	2	Vch Range
VCHRANGEMODE	TOGGLE	F	Vch Auto Range
VCHOFFSETENABLE	TOGGLE	T	Vch Offset Enable
VCHOFFSET	QUANT	0	Vch Offset (V)
VCHFILTER	IQUANT	3	Vch Filter
ACHRANGE	IQUANT	2	Ach Range
ACHOFFSETENABLE	TOGGLE	F	Ach Offset Enable
ACHOFFSET	QUANT	0	Ach Offset (V)
ACHFILTER	IQUANT	3	Ach Filter
IERANGELOWERLIMIT	IQUANT	1	I/E Range Lower Limit
IERANGEMODE	TOGGLE	F	I/E AutoRange
IERANGE	IQUANT	5	I/E Range
POSFEEDENABLE	TOGGLE	F	Positive Feedback IR Comp
POSFEEDRESISTANCE	QUANT	0	Positive Feedback Resistance (ohm)
ACHSELECT	IQUANT	0	Ach Select
CABLEID	IQUANT	14	Cable ID
DCCALDATE	LABEL	8/19/2019	DC Calibration Date
ACCALDATE	LABEL	8/19/2019	AC Calibration Date
THERMOSELECT	IQUANT	1	Thermo Select
FRAMEWORKVERSION	QUANT	6.33	Framework Version
INSTRUMENTVERSION	LABEL	3.50	Instrument Version
ZCURVE	TABLE
	Pt	Time	Freq	Zreal	Zimag	Zsig	Zmod	Zphz	Idc	Vdc	IERange
	#	s	Hz	ohm	ohm	V	ohm	°	A	V	#
	0	1	1000078	2162.716	-1794.743	1	2810.417	-39.68778	-1.360656E-006	0.0342852	8
	1	3	794390.6	2510.948	-1803.298	1	3091.398	-35.68493	9.360299E-006	0.0326721	8
	2	4	630984.4	2846.024	-1768.743	1	3350.867	-31.86007	-8.641862E-006	0.0344208	8
	3	5	501234.4	3165.211	-1694.208	1	3590.112	-28.15832	3.165422E-006	0.0329098	8
	4	7	398109.4	3465.512	-1607.576	1	3820.219	-24.88556	-1.616786E-006	0.0337066	8
	5	8	316265.6	3717.474	-1508.335	1	4011.819	-22.08445	5.823122E-006	0.0325846	8
	6	10	251203.1	3912.2	-1390.422	1	4151.937	-19.56555	5.551994E-006	0.0321845	8
	7	11	199546.9	4106.333	-1280.052	1	4301.221	-17.31363	-2.285845E-006	0.0334359	8
	8	12	158578.1	4250.269	-1188.128	1	4413.211	-15.6179	-2.098097E-006	0.0334361	8
	9	14	125953.1	4437.773	-1053.586	1	4561.126	-13.35552	1.28233E-006	0.0346559	7
	10	15	100078.1	4523.509	-975.033	1	4627.399	-12.16389	-2.821237E-007	0.0345813	7
	11	16	79453.13	4640.188	-948.8312	1	4736.204	-11.5566	7.723389E-007	0.0314358	7
	12	18	63140.62	4731.654	-928.2387	1	4821.844	-11.09913	-1.061511E-006	0.0337675	7
	13	19	50203.12	4823.728	-929.5423	1	4912.474	-10.90732	-1.229107E-006	0.0346795	7
	14	20	39890.62	4915.827	-949.7208	1	5006.728	-10.93463	-1.229162E-006	0.0343211	7
	15	22	31640.63	5018.357	-994.588	1	5115.967	-11.21018	1.111669E-006	0.0320535	7
	16	23	25171.88	5114.105	-1053.339	1	5221.456	-11.63831	8.564683E-008	0.0341658	7
	17	25	20015.62	5220.744	-1135.335	1	5342.766	-12.26887	-6.139501E-007	0.0348178	7
	18	26	15890.62	5345.011	-1241.782	1	5487.364	-13.07924	1.093018E-006	0.0317244	7
	19	27	12609.37	5463.82	-1367.834	1	5632.433	-14.05479	-8.922083E-007	0.0348996	7
	20	29	10078.13	5612.048	-1522.048	1	5814.784	-15.17421	8.619846E-008	0.0341594	7
	21	30	8015.625	5765.166	-1708.007	1	6012.854	-16.50262	-8.926615E-007	0.0348991	7
	22	31	6328.125	5961.247	-1928.522	1	6265.434	-17.9269	6.295537E-007	0.0333991	7
	23	33	5015.625	6169.322	-2187.6	1	6545.695	-19.52416	7.707106E-007	0.0314285	7
	24	34	3984.375	6415.666	-2503.63	1	6886.867	-21.31756	6.325329E-007	0.0334036	7
	25	36	3170.956	6672.479	-2828.019	1	7247.045	-22.96885	1.033937E-006	0.0324704	7
	26	37	2527.573	6975.999	-3216.433	1	7681.796	-24.75307	1.111635E-006	0.0320472	7
	27	39	1976.103	7344.695	-3695.1	1	8221.819	-26.70687	4.709479E-007	0.0315292	7
	28	40	1577.524	7753.48	-4195.185	1	8815.669	-28.41654	1.111226E-006	0.0320437	7
	29	41	1265.625	8171.193	-4759.114	1	9456.086	-30.21763	1.03435E-006	0.0324562	7
	30	43	998.264	8662.231	-5436.544	1	10226.94	-32.11299	1.031856E-006	0.0324607	7
	31	44	796.875	9178.44	-6176.425	1	11063.09	-33.93769	-3.317528E-007	0.0323696	7
	32	45	627.7902	9753.97	-7093.093	1	12060.34	-36.02467	-1.951706E-007	0.0361178	6
	33	47	505.5147	10299.7	-8093.659	1	13099.28	-38.16079	1.735671E-007	0.0317489	6
	34	48	397.9953	10914.61	-9405.228	1	14407.88	-40.7518	4.67545E-010	0.0331714	6
	35	50	315.5048	11529.85	-10984.67	1	15924.83	-43.61287	2.162465E-010	0.0331748	6
	36	51	252.4038	12146.63	-12861.39	1	17690.57	-46.63714	7.761931E-010	0.0331588	6
	37	52	198.6229	12850.51	-15378.03	1	20040.45	-50.11648	2.353006E-010	0.0331712	6
	38	54	158.3615	13587.51	-18359.08	1	22840.23	-53.49495	9.761272E-010	0.0331587	6
	39	55	125.558	14455.71	-22173.48	1	26469.43	-56.89819	1.672938E-010	0.0331707	6
	40	56	100.4464	15431.41	-26712.58	1	30849.48	-59.98569	-3.463965E-010	0.0331718	6
	41	58	79.00281	16840.1	-32779.09	1	36851.83	-62.80838	-2.082824E-010	0.0331697	6
	42	59	63.3446	18660.47	-39843.14	1	43996.46	-64.90404	5.76402E-010	0.0331589	6
	43	61	49.86702	20321.44	-49159.34	1	53194	-67.54082	4.782639E-010	0.0331655	6
	44	62	39.72458	23272.84	-59815.73	1	64183.7	-68.7402	3.319567E-010	0.0331765	6
	45	63	31.6723	26874.57	-72676.41	1	77486.15	-69.70641	7.910076E-010	0.0331624	6
	46	65	24.93351	32085.34	-89572.48	1	95145.7	-70.29221	4.869638E-010	0.0331592	6
	47	66	19.86229	38769.59	-108870.1	1	115567.2	-70.39875	2.906958E-010	0.0331724	5
	48	67	15.83615	48576.78	-132313.5	1	140948.8	-69.8401	1.010407E-009	0.0331606	5
	49	69	12.40079	60279.09	-160311	1	171269.4	-69.39307	2.34035E-010	0.0331739	5
	50	70	9.93114	76595.39	-191460	1	206212.9	-68.19565	-2.36711E-010	0.0331768	5
	51	72	7.944915	97370.4	-228032.2	1	247950.9	-66.87738	2.668806E-010	0.0331711	5
	52	74	6.317385	124381.2	-267843.8	1	295315.1	-65.09081	-2.800438E-010	0.0331836	5
	53	76	5.008013	159644.5	-313544	1	351846.8	-63.01656	-9.415393E-011	0.0331612	5
	54	78	3.945707	204056.1	-362661	1	416127.3	-60.63514	3.364188E-010	0.0331751	5
	55	81	3.158693	253875.4	-411190.7	1	483250	-58.30819	-2.248715E-010	0.0331609	5
	56	84	2.504006	313503.6	-463005.9	1	559159.2	-55.89788	4.504526E-010	0.0331646	5
	57	87	1.998082	377872.6	-512774.4	1	636965.8	-53.61283	7.171293E-011	0.0332015	5
	58	90	1.584686	447560.4	-564621.2	1	720491.1	-51.59706	1.530176E-010	0.0331402	5
	59	94	1.266892	520834	-619191.9	1	809114.8	-49.93109	1.217289E-010	0.0332008	5
	60	98	0.999041	601291.8	-680191.3	1	907861.2	-48.52319	-2.204749E-010	0.0331283	5
