EXPLAIN
TAG	EISPOT
TITLE	LABEL	Potentiostatic EIS	Test &Identifier
DATE	LABEL	11/21/2019	Date
TIME	LABEL	23:34:28	Time
NOTES	NOTES	4	&Notes...
	
	
	
	
PSTAT	PSTAT	REF600-11020	Potentiostat
VDC	POTEN	0.00000E+000	T	DC &Voltage (V)
FREQINIT	QUANT	1.00000E+006	Initial Fre&q. (Hz)
FREQFINAL	QUANT	1.00000E+000	Final Fre&q. (Hz)
PTSPERDEC	QUANT	1.00000E+001	Points/&decade
VAC	QUANT	2.50000E+001	AC &Voltage (mV rms)
AREA	QUANT	1.00000E-002	&Area (cm^2)
CONDIT	TWOPARAM	T	5.00000E+000	0.00000E+000	Conditionin&g	Time(s)	E(V)
DELAY	TWOPARAM	T	5.00000E+000	0.00000E+000	Init. De&lay	Time(s)	Stab.(mV/s)
SPEED	SELECTOR	1	&Optimize for:
ZGUESS	QUANT	1.00000E+005	E&stimated Z (ohms)
OCVCURVE	TABLE	19
	Pt	T	Vf	Vm	Ach	Over
	#	s	V vs. Ref.	V	V	bits
	0	0.258333	7.70586E-003	7.70586E-003	5.34200E-004	...........
	1	0.516667	7.73326E-003	9.14001E-003	5.35699E-004	...........
	2	0.775	7.86723E-003	8.70607E-003	5.38133E-004	...........
	3	1.03333	8.15104E-003	9.26592E-003	5.32166E-004	...........
	4	1.29167	8.58523E-003	1.32349E-002	5.33166E-004	...........
	5	1.55	9.24999E-003	1.04917E-002	5.34266E-004	...........
	6	1.80833	1.01031E-002	1.13762E-002	5.33600E-004	...........
	7	2.06667	1.08221E-002	1.12839E-002	5.33300E-004	...........
	8	2.325	1.11874E-002	1.11003E-002	5.32266E-004	...........
	9	2.58333	1.12812E-002	1.11454E-002	5.34900E-004	...........
	10	2.84167	1.12550E-002	1.11234E-002	5.35133E-004	...........
	11	3.1	1.11969E-002	1.10114E-002	5.31166E-004	...........
	12	3.35833	1.11397E-002	1.08784E-002	5.25166E-004	...........
	13	3.61667	1.10809E-002	1.09882E-002	5.33866E-004	...........
	14	3.875	1.10222E-002	1.09650E-002	5.25566E-004	...........
	15	4.13333	1.09861E-002	1.12707E-002	5.20400E-004	...........
	16	4.39167	1.10003E-002	1.13453E-002	5.26533E-004	...........
	17	4.65	1.10683E-002	1.11180E-002	5.31400E-004	...........
	18	4.90833	1.11485E-002	1.10808E-002	5.28666E-004	...........
EOC	QUANT	0.0111485	Open Circuit (V)
PSTATMODEL	IQUANT	4	Pstat Model
PSTATSECTION	LABEL	REF600-11020	Pstat Section
PSTATSERIALNO	LABEL	11020	Pstat Serial Number
CTRLMODE	IQUANT	1	Control Mode
IESTAB	IQUANT	0	I/E Stability
CASPEED	IQUANT	1	Control Amp Speed
CONVENTION	IQUANT	1	Current Convention
ICHRANGE	IQUANT	2	Ich Range
ICHRANGEMODE	TOGGLE	F	Ich Auto Range
ICHOFFSETENABLE	TOGGLE	T	Ich Offset Enable
ICHOFFSET	QUANT	0	Ich Offset (V)
ICHFILTER	IQUANT	3	Ich Filter
VCHRANGE	IQUANT	2	Vch Range
VCHRANGEMODE	TOGGLE	F	Vch Auto Range
VCHOFFSETENABLE	TOGGLE	T	Vch Offset Enable
VCHOFFSET	QUANT	0	Vch Offset (V)
VCHFILTER	IQUANT	3	Vch Filter
ACHRANGE	IQUANT	2	Ach Range
ACHOFFSETENABLE	TOGGLE	F	Ach Offset Enable
ACHOFFSET	QUANT	0	Ach Offset (V)
ACHFILTER	IQUANT	3	Ach Filter
IERANGELOWERLIMIT	IQUANT	1	I/E Range Lower Limit
IERANGEMODE	TOGGLE	F	I/E AutoRange
IERANGE	IQUANT	5	I/E Range
POSFEEDENABLE	TOGGLE	F	Positive Feedback IR Comp
POSFEEDRESISTANCE	QUANT	0	Positive Feedback Resistance (ohm)
ACHSELECT	IQUANT	0	Ach Select
CABLEID	IQUANT	14	Cable ID
DCCALDATE	LABEL	8/19/2019	DC Calibration Date
ACCALDATE	LABEL	8/19/2019	AC Calibration Date
THERMOSELECT	IQUANT	1	Thermo Select
FRAMEWORKVERSION	QUANT	6.33	Framework Version
INSTRUMENTVERSION	LABEL	3.50	Instrument Version
ZCURVE	TABLE
	Pt	Time	Freq	Zreal	Zimag	Zsig	Zmod	Zphz	Idc	Vdc	IERange
	#	s	Hz	ohm	ohm	V	ohm	°	A	V	#
	0	1	1000078	2280.536	-1561.552	1	2763.926	-34.40062	4.148539E-006	0.013895	8
	1	3	794390.6	2603.708	-1491.102	1	3000.447	-29.79909	1.146731E-006	0.012564	8
	2	4	630984.4	2864.044	-1368.346	1	3174.132	-25.53693	-2.853571E-007	0.0126223	8
	3	5	501234.4	3089.344	-1218.505	1	3320.963	-21.52536	4.371014E-006	0.0128445	8
	4	7	398109.4	3270.302	-1068.071	1	3440.298	-18.08689	-1.32751E-006	0.0132935	8
	5	8	316265.6	3404.846	-927.0727	1	3528.802	-15.23128	3.306453E-008	0.0124915	8
	6	9	251203.1	3506.314	-806.57	1	3597.887	-12.95459	-2.122794E-008	0.0124827	8
	7	11	199546.9	3586.441	-698.8969	1	3653.904	-11.02714	-5.943829E-006	0.013655	8
	8	12	158578.1	3652.552	-589.9501	1	3699.889	-9.175017	-1.42305E-006	0.0125724	8
	9	14	125953.1	3709.853	-477.8302	1	3740.499	-7.339307	-2.796935E-006	0.0150777	7
	10	15	100078.1	3745.265	-430.8544	1	3769.966	-6.562446	-1.216173E-006	0.0138381	7
	11	16	79453.13	3780.844	-399.8713	1	3801.931	-6.037298	8.255398E-007	0.0125446	7
	12	18	63140.62	3812.806	-377.1292	1	3831.412	-5.648819	1.276244E-007	0.0113736	7
	13	19	50203.12	3843.658	-366.5072	1	3861.093	-5.446898	1.272338E-007	0.0113716	7
	14	20	39890.62	3873.816	-366.0106	1	3891.068	-5.397466	7.862079E-007	0.0109775	7
	15	22	31640.63	3901.715	-372.1406	1	3919.422	-5.448317	-2.955942E-007	0.0118919	7
	16	23	25171.88	3935.617	-388.3722	1	3954.733	-5.635781	4.955074E-007	0.0110821	7
	17	24	20015.62	3968.159	-406.3948	1	3988.915	-5.847499	1.012853E-006	0.0120569	7
	18	26	15890.62	3998.04	-450.2059	1	4023.308	-6.424821	-7.211569E-007	0.0125825	7
	19	27	12609.37	4040.03	-497.6611	1	4070.566	-7.022463	8.304546E-007	0.0125388	7
	20	29	10078.13	4066.135	-556.3314	1	4104.017	-7.790874	1.280151E-007	0.0113753	7
	21	30	8015.625	4117.541	-632.2189	1	4165.794	-8.729184	-2.974116E-007	0.0118905	7
	22	31	6328.125	4157.565	-729.8285	1	4221.137	-9.95639	-2.981023E-007	0.0141028	7
	23	33	5015.625	4203.032	-850.6754	1	4288.254	-11.44185	-6.285865E-007	0.0143436	7
	24	34	3984.375	4263.089	-998.57	1	4378.478	-13.18307	6.426892E-008	0.0137117	7
	25	35	3170.956	4309.06	-1182.901	1	4468.473	-15.35041	-7.19666E-007	0.012574	7
	26	37	2527.573	4369.305	-1405.639	1	4589.842	-17.83338	-1.099779E-006	0.0143677	7
	27	38	1976.103	4447.461	-1708.418	1	4764.306	-21.01345	-1.044051E-006	0.0132583	7
	28	39	1577.524	4535.829	-2034.566	1	4971.238	-24.15883	3.851657E-007	0.0132816	7
	29	41	1265.625	4632.714	-2462.534	1	5246.534	-27.99302	8.300123E-007	0.0125301	7
	30	42	998.264	4752.072	-3000.205	1	5619.912	-32.26613	1.287216E-007	0.0113565	7
	31	44	796.875	4891.348	-3631.416	1	6092	-36.59079	8.291981E-007	0.0125283	7
	32	45	627.7902	5066.718	-4445.476	1	6740.467	-41.26331	4.930798E-007	0.0110625	7
	33	46	505.5147	5255.404	-5350.3	1	7499.666	-45.51265	1.016508E-006	0.0120296	7
	34	48	397.9953	5513.281	-6563.699	1	8571.955	-49.9709	2.068021E-009	0.0127642	7
	35	49	315.5048	5811.364	-8022.486	1	9906.17	-54.08102	3.356007E-009	0.0127626	7
	36	50	252.4038	6160.642	-9742.74	1	11527.12	-57.69355	5.302375E-010	0.0126982	6
	37	52	198.6229	6618.765	-12015.13	1	13717.56	-61.15099	1.140125E-009	0.0126984	6
	38	53	158.3615	7160.908	-14666.05	1	16320.89	-63.9754	1.57175E-009	0.0126968	6
	39	55	125.558	7859.371	-17997.64	1	19638.86	-66.40964	6.317915E-010	0.0126971	6
	40	56	100.4464	8739.699	-21915.32	1	23593.72	-68.25818	3.559507E-010	0.0127018	6
	41	57	79.00281	9892.61	-27091.32	1	28841	-69.93994	8.887335E-010	0.0126902	6
	42	59	63.3446	11565.94	-32679.77	1	34666.1	-70.51024	1.144288E-009	0.0126947	6
	43	60	49.86702	13568.31	-40724.47	1	42925.3	-71.5733	5.36863E-010	0.012687	6
	44	62	39.72458	16173.2	-49367.9	1	51949.61	-71.86092	9.164042E-010	0.0127051	6
	45	63	31.6723	19587.47	-59729.61	1	62859.32	-71.84383	1.377262E-009	0.0126984	6
	46	64	24.93351	24466.03	-73032.47	1	77021.61	-71.47904	8.850461E-010	0.0126989	6
	47	66	19.86229	30455.44	-87979.97	1	93102.14	-70.90602	3.728778E-011	0.0127013	6
	48	67	15.83615	38698.55	-105878.7	1	112729.3	-69.92271	1.172332E-009	0.012697	5
	49	68	12.40079	48601.04	-127530.2	1	136477.2	-69.13844	1.011904E-009	0.0127136	5
	50	70	9.93114	60988.66	-149824.1	1	161761.8	-67.85032	-4.969934E-011	0.0127091	5
	51	71	7.944915	75938.78	-175146.1	1	190900.1	-66.5597	1.064733E-009	0.0127221	5
	52	73	6.317385	94326.74	-206439.9	1	226969	-65.44334	1.11806E-010	0.0127207	5
	53	75	5.008013	116755.6	-241225.7	1	267995.7	-64.17255	8.379596E-011	0.0127137	5
	54	78	3.945707	143861.3	-281790.6	1	316389	-62.95452	3.922163E-010	0.0127144	5
	55	80	3.158693	173530	-324837.8	1	368282.8	-61.88863	-5.139625E-011	0.0127009	5
	56	84	2.504006	208923.5	-375315.9	1	429547.5	-60.89705	4.695146E-010	0.0127096	5
	57	86	1.998082	248421.3	-431020.3	1	497485.3	-60.04273	1.468848E-010	0.0127542	5
	58	90	1.584686	293244.9	-494982	1	575325.8	-59.356	1.759274E-010	0.0126954	5
	59	93	1.266892	344140.2	-568447.9	1	664503.9	-58.80915	1.34217E-010	0.0127501	5
	60	97	0.999041	404881	-656301.7	1	771142.4	-58.32903	-5.056232E-011	0.0126704	5
