EXPLAIN
TAG	EISPOT
TITLE	LABEL	Potentiostatic EIS	Test &Identifier
DATE	LABEL	11/7/2019	Date
TIME	LABEL	10:16:38	Time
NOTES	NOTES	2	&Notes...
	
	
PSTAT	PSTAT	REF600-11020	Potentiostat
VDC	POTEN	0.00000E+000	T	DC &Voltage (V)
FREQINIT	QUANT	1.00000E+006	Initial Fre&q. (Hz)
FREQFINAL	QUANT	1.00000E+000	Final Fre&q. (Hz)
PTSPERDEC	QUANT	1.00000E+001	Points/&decade
VAC	QUANT	2.50000E+001	AC &Voltage (mV rms)
AREA	QUANT	1.00000E-002	&Area (cm^2)
CONDIT	TWOPARAM	T	5.00000E+000	0.00000E+000	Conditionin&g	Time(s)	E(V)
DELAY	TWOPARAM	T	5.00000E+000	0.00000E+000	Init. De&lay	Time(s)	Stab.(mV/s)
SPEED	SELECTOR	1	&Optimize for:
ZGUESS	QUANT	1.00000E+005	E&stimated Z (ohms)
OCVCURVE	TABLE	19
	Pt	T	Vf	Vm	Ach	Over
	#	s	V vs. Ref.	V	V	bits
	0	0.258333	2.81019E-003	2.81019E-003	5.81599E-004	...........
	1	0.516667	2.71518E-003	-2.16308E-003	5.80599E-004	...........
	2	0.775	2.16272E-003	-5.25746E-003	5.83432E-004	...........
	3	1.03333	7.77551E-004	-4.30852E-003	5.81699E-004	...........
	4	1.29167	-1.21368E-003	-5.42671E-003	5.78066E-004	...........
	5	1.55	-3.12206E-003	-7.26198E-003	5.73266E-004	...........
	6	1.80833	-4.76914E-003	-1.69009E-002	5.71832E-004	...........
	7	2.06667	-6.73785E-003	-1.24339E-002	5.80665E-004	...........
	8	2.325	-8.98338E-003	4.25474E-004	5.81665E-004	...........
	9	2.58333	-9.77621E-003	6.98672E-003	5.82699E-004	...........
	10	2.84167	-7.44362E-003	6.49453E-003	5.81165E-004	...........
	11	3.1	-2.72439E-003	6.06905E-003	5.78765E-004	...........
	12	3.35833	1.94243E-003	5.90259E-003	5.76099E-004	...........
	13	3.61667	4.87133E-003	5.40326E-003	5.75465E-004	...........
	14	3.875	5.98664E-003	4.65237E-003	5.81299E-004	...........
	15	4.13333	5.97898E-003	4.01419E-003	5.73066E-004	...........
	16	4.39167	5.47436E-003	3.63924E-003	5.73932E-004	...........
	17	4.65	4.84644E-003	3.86785E-003	5.74799E-004	...........
	18	4.90833	4.29843E-003	3.11859E-003	5.82465E-004	...........
EOC	QUANT	0.0042984	Open Circuit (V)
PSTATMODEL	IQUANT	4	Pstat Model
PSTATSECTION	LABEL	REF600-11020	Pstat Section
PSTATSERIALNO	LABEL	11020	Pstat Serial Number
CTRLMODE	IQUANT	1	Control Mode
IESTAB	IQUANT	0	I/E Stability
CASPEED	IQUANT	1	Control Amp Speed
CONVENTION	IQUANT	1	Current Convention
ICHRANGE	IQUANT	2	Ich Range
ICHRANGEMODE	TOGGLE	F	Ich Auto Range
ICHOFFSETENABLE	TOGGLE	T	Ich Offset Enable
ICHOFFSET	QUANT	0	Ich Offset (V)
ICHFILTER	IQUANT	3	Ich Filter
VCHRANGE	IQUANT	2	Vch Range
VCHRANGEMODE	TOGGLE	F	Vch Auto Range
VCHOFFSETENABLE	TOGGLE	T	Vch Offset Enable
VCHOFFSET	QUANT	0	Vch Offset (V)
VCHFILTER	IQUANT	3	Vch Filter
ACHRANGE	IQUANT	2	Ach Range
ACHOFFSETENABLE	TOGGLE	F	Ach Offset Enable
ACHOFFSET	QUANT	0	Ach Offset (V)
ACHFILTER	IQUANT	3	Ach Filter
IERANGELOWERLIMIT	IQUANT	1	I/E Range Lower Limit
IERANGEMODE	TOGGLE	F	I/E AutoRange
IERANGE	IQUANT	4	I/E Range
POSFEEDENABLE	TOGGLE	F	Positive Feedback IR Comp
POSFEEDRESISTANCE	QUANT	0	Positive Feedback Resistance (ohm)
ACHSELECT	IQUANT	0	Ach Select
CABLEID	IQUANT	14	Cable ID
DCCALDATE	LABEL	8/19/2019	DC Calibration Date
ACCALDATE	LABEL	8/19/2019	AC Calibration Date
THERMOSELECT	IQUANT	1	Thermo Select
FRAMEWORKVERSION	QUANT	6.33	Framework Version
INSTRUMENTVERSION	LABEL	3.50	Instrument Version
ZCURVE	TABLE
	Pt	Time	Freq	Zreal	Zimag	Zsig	Zmod	Zphz	Idc	Vdc	IERange
	#	s	Hz	ohm	ohm	V	ohm	°	A	V	#
	0	2	1000078	2467.282	-1794.349	1	3050.766	-36.0268	4.697297E-006	0.0063184	8
	1	3	794390.6	2833.058	-1716.666	1	3312.576	-31.21339	-1.741066E-006	0.0056218	8
	2	5	630984.4	3167.146	-1595.729	1	3546.429	-26.74071	3.397977E-007	0.0055228	8
	3	7	501234.4	3432.554	-1436.285	1	3720.933	-22.70592	4.784577E-006	0.0058329	8
	4	8	398109.4	3635.756	-1278.909	1	3854.132	-19.37976	-1.220894E-006	0.0054623	8
	5	10	316265.6	3816.012	-1121.867	1	3977.503	-16.38278	-2.803776E-006	0.0056806	8
	6	11	251203.1	3933.864	-965.897	1	4050.708	-13.79515	-2.721796E-006	0.0056847	8
	7	13	199546.9	4026.983	-844.1044	1	4114.5	-11.83849	6.72004E-006	0.0045746	8
	8	14	158578.1	4146.676	-745.5837	1	4213.172	-10.19303	6.749905E-006	0.0049568	8
	9	16	125953.1	4195.738	-578.9633	1	4235.495	-7.85654	-3.709925E-006	0.0103245	7
	10	17	100078.1	4236.638	-518.3945	1	4268.235	-6.976028	-3.672712E-007	0.0073781	7
	11	19	79453.13	4274.758	-505.5321	1	4304.546	-6.744463	-3.694574E-007	0.0073689	7
	12	20	63140.62	4317	-488.4402	1	4344.544	-6.455189	-8.277058E-007	0.0055104	7
	13	21	50203.12	4356.632	-488.1883	1	4383.899	-6.393685	-1.072989E-006	0.0077278	7
	14	23	39890.62	4401.618	-498.3163	1	4429.736	-6.459073	4.366884E-007	0.0064089	7
	15	24	31640.63	4450.704	-519.978	1	4480.976	-6.663685	1.183409E-006	0.0049407	7
	16	26	25171.88	4496.28	-550.5025	1	4529.855	-6.980274	9.412259E-007	0.0036439	7
	17	27	20015.62	4544.923	-595.7383	1	4583.801	-7.467628	7.024746E-007	0.0060169	7
	18	28	15890.62	4605.727	-648.4916	1	4651.157	-8.014626	1.296916E-006	0.0044364	7
	19	30	12609.37	4662.048	-719.1025	1	4717.182	-8.768543	-7.535457E-007	0.0076357	7
	20	31	10078.13	4716.356	-785.1559	1	4781.264	-9.451644	1.298751E-006	0.0044348	7
	21	32	8015.625	4804.824	-902.3431	1	4888.819	-10.63623	-1.21379E-006	0.0063073	7
	22	34	6328.125	4880.414	-1030.719	1	4988.068	-11.92534	-1.070984E-006	0.0077231	7
	23	35	5015.625	4972.317	-1181.055	1	5110.659	-13.36163	6.029783E-007	0.0037535	7
	24	36	3984.375	5064.891	-1362.13	1	5244.856	-15.05272	9.415479E-007	0.003645	7
	25	38	3170.956	5154.77	-1580.813	1	5391.718	-17.04921	-1.448665E-006	0.0074362	7
	26	39	2527.573	5269.167	-1848.154	1	5583.887	-19.32826	-8.287653E-007	0.005495	7
	27	41	1976.103	5395.455	-2202.613	1	5827.73	-22.207	1.172326E-006	0.0037563	7
	28	42	1577.524	5540.671	-2585.194	1	6114.104	-25.01305	-3.28183E-007	0.0046832	7
	29	43	1265.625	5674.767	-3061.611	1	6447.979	-28.34744	-1.069643E-006	0.0077128	7
	30	45	998.264	5855.57	-3681.994	1	6916.992	-32.16176	-1.067237E-006	0.0077079	7
	31	46	796.875	6049.645	-4408.57	1	7485.565	-36.08202	1.185926E-006	0.004939	7
	32	48	627.7902	6288.092	-5337.461	1	8247.945	-40.32528	1.297853E-006	0.0044254	7
	33	49	505.5147	6526.331	-6369.86	1	9119.655	-44.30486	5.973864E-007	0.0037475	7
	34	51	397.9953	6850.38	-7759.621	1	10350.82	-48.56116	7.243872E-009	0.0057555	7
	35	52	315.5048	7214.221	-9434.429	1	11876.59	-52.59595	1.469806E-009	0.0057036	6
	36	53	252.4038	7619.562	-11418.44	1	13727.29	-56.28469	-2.276283E-010	0.0056955	6
	37	55	198.6229	8143.945	-14051.77	1	16241.18	-59.90482	2.017962E-009	0.005701	6
	38	56	158.3615	8766.67	-17117.93	1	19232.21	-62.88148	8.924128E-010	0.0057032	6
	39	57	125.558	9556.84	-20996.91	1	23069.53	-65.52713	9.941558E-010	0.0056907	6
	40	59	100.4464	10563.96	-25580.38	1	27675.85	-67.56078	3.135745E-009	0.0057009	6
	41	60	79.00281	12009.04	-31611.95	1	33816.16	-69.19875	4.444067E-010	0.0057007	6
	42	62	63.3446	13823.58	-38893.66	1	41277.21	-70.43378	2.174729E-009	0.0056939	6
	43	63	49.86702	15460.64	-47309.69	1	49771.86	-71.90279	9.166031E-010	0.0056966	6
	44	64	39.72458	18778.93	-57698.96	1	60677.99	-71.9718	3.934892E-010	0.0057017	6
	45	66	31.6723	22802.94	-70210.98	1	73821.1	-72.00738	5.053019E-010	0.0056971	6
	46	67	24.93351	28151.49	-85730.64	1	90234.41	-71.8213	5.609416E-010	0.0056854	6
	47	69	19.86229	34852.82	-103436.4	1	109150.4	-71.37879	-1.848679E-010	0.0057071	5
	48	70	15.83615	41702.55	-124494.9	1	131293.9	-71.48049	3.074234E-009	0.0057028	5
	49	72	12.40079	56732.79	-151557.1	1	161827.6	-69.47748	-4.464594E-010	0.0057118	5
	50	73	9.93114	70141.52	-178853.7	1	192115.8	-68.58624	8.346303E-010	0.0057057	5
	51	75	7.944915	88146.67	-210383.9	1	228103.5	-67.26729	-7.174478E-010	0.0057133	5
	52	76	6.317385	113244.8	-249248.7	1	273768.7	-65.5656	1.599433E-011	0.0056946	5
	53	78	5.008013	143803.5	-292090.7	1	325570.9	-63.78784	-6.618613E-011	0.0057064	5
	54	81	3.945707	181501.2	-339748.5	1	385190.5	-61.88788	-8.76168E-011	0.0056938	5
	55	84	3.158693	224150.7	-388185.3	1	448253.8	-59.99648	2.268243E-010	0.0057086	5
	56	87	2.504006	275799.4	-442453.2	1	521373.3	-58.063	-2.473139E-010	0.0057011	5
	57	90	1.998082	332085.6	-496795.1	1	597566.9	-56.23902	1.862894E-010	0.0056589	5
	58	93	1.584686	395349.8	-556773.9	1	682860.7	-54.62249	-5.3379E-011	0.005718	5
	59	96	1.266892	462354	-619218.5	1	772788.9	-53.25228	-2.658129E-011	0.0056629	5
	60	101	0.999041	536303.3	-693946.4	1	877030.7	-52.30204	2.092018E-010	0.0057458	5
