EXPLAIN
TAG	EISPOT
TITLE	LABEL	Potentiostatic EIS	Test &Identifier
DATE	LABEL	9/26/2019	Date
TIME	LABEL	10:45:57	Time
NOTES	NOTES	2	&Notes...
	
	
PSTAT	PSTAT	REF600-11020	Potentiostat
VDC	POTEN	0.00000E+000	T	DC &Voltage (V)
FREQINIT	QUANT	1.00000E+006	Initial Fre&q. (Hz)
FREQFINAL	QUANT	1.00000E+000	Final Fre&q. (Hz)
PTSPERDEC	QUANT	1.00000E+001	Points/&decade
VAC	QUANT	2.50000E+001	AC &Voltage (mV rms)
AREA	QUANT	1.00000E-002	&Area (cm^2)
CONDIT	TWOPARAM	T	5.00000E+000	0.00000E+000	Conditionin&g	Time(s)	E(V)
DELAY	TWOPARAM	T	5.00000E+000	0.00000E+000	Init. De&lay	Time(s)	Stab.(mV/s)
SPEED	SELECTOR	1	&Optimize for:
ZGUESS	QUANT	1.00000E+004	E&stimated Z (ohms)
OCVCURVE	TABLE	19
	Pt	T	Vf	Vm	Ach	Over
	#	s	V vs. Ref.	V	V	bits
	0	0.258333	4.36938E-002	4.36938E-002	5.61632E-004	...........
	1	0.516667	4.37551E-002	4.68998E-002	5.58366E-004	...........
	2	0.775	4.41298E-002	4.98679E-002	5.59366E-004	...........
	3	1.03333	4.51837E-002	5.26252E-002	5.58299E-004	...........
	4	1.29167	4.70516E-002	5.52051E-002	5.61566E-004	...........
	5	1.55	4.95031E-002	5.76279E-002	5.60432E-004	...........
	6	1.80833	5.21761E-002	5.99030E-002	5.61032E-004	...........
	7	2.06667	5.48122E-002	6.20503E-002	5.55433E-004	...........
	8	2.325	5.73006E-002	6.40798E-002	5.60832E-004	...........
	9	2.58333	5.96242E-002	6.60270E-002	5.59966E-004	...........
	10	2.84167	6.18033E-002	6.79554E-002	5.58599E-004	...........
	11	3.1	6.38704E-002	6.98959E-002	5.58666E-004	...........
	12	3.35833	6.58558E-002	7.14735E-002	5.63799E-004	...........
	13	3.61667	6.77642E-002	7.29860E-002	5.61099E-004	...........
	14	3.875	6.95703E-002	7.44300E-002	5.61499E-004	...........
	15	4.13333	7.12524E-002	7.58727E-002	5.60799E-004	...........
	16	4.39167	7.28211E-002	7.72782E-002	5.58533E-004	...........
	17	4.65	7.43073E-002	7.85620E-002	5.60732E-004	...........
	18	4.90833	7.57315E-002	7.96797E-002	5.57132E-004	...........
EOC	QUANT	0.0757315	Open Circuit (V)
PSTATMODEL	IQUANT	4	Pstat Model
PSTATSECTION	LABEL	REF600-11020	Pstat Section
PSTATSERIALNO	LABEL	11020	Pstat Serial Number
CTRLMODE	IQUANT	1	Control Mode
IESTAB	IQUANT	0	I/E Stability
CASPEED	IQUANT	1	Control Amp Speed
CONVENTION	IQUANT	1	Current Convention
ICHRANGE	IQUANT	2	Ich Range
ICHRANGEMODE	TOGGLE	F	Ich Auto Range
ICHOFFSETENABLE	TOGGLE	T	Ich Offset Enable
ICHOFFSET	QUANT	0	Ich Offset (V)
ICHFILTER	IQUANT	3	Ich Filter
VCHRANGE	IQUANT	2	Vch Range
VCHRANGEMODE	TOGGLE	F	Vch Auto Range
VCHOFFSETENABLE	TOGGLE	T	Vch Offset Enable
VCHOFFSET	QUANT	0	Vch Offset (V)
VCHFILTER	IQUANT	3	Vch Filter
ACHRANGE	IQUANT	2	Ach Range
ACHOFFSETENABLE	TOGGLE	F	Ach Offset Enable
ACHOFFSET	QUANT	0	Ach Offset (V)
ACHFILTER	IQUANT	3	Ach Filter
IERANGELOWERLIMIT	IQUANT	1	I/E Range Lower Limit
IERANGEMODE	TOGGLE	F	I/E AutoRange
IERANGE	IQUANT	7	I/E Range
POSFEEDENABLE	TOGGLE	F	Positive Feedback IR Comp
POSFEEDRESISTANCE	QUANT	0	Positive Feedback Resistance (ohm)
ACHSELECT	IQUANT	0	Ach Select
CABLEID	IQUANT	14	Cable ID
DCCALDATE	LABEL	8/19/2019	DC Calibration Date
ACCALDATE	LABEL	8/19/2019	AC Calibration Date
THERMOSELECT	IQUANT	1	Thermo Select
FRAMEWORKVERSION	QUANT	6.33	Framework Version
INSTRUMENTVERSION	LABEL	3.50	Instrument Version
ZCURVE	TABLE
	Pt	Time	Freq	Zreal	Zimag	Zsig	Zmod	Zphz	Idc	Vdc	IERange
	#	s	Hz	ohm	ohm	V	ohm	°	A	V	#
	0	1	1000078	2167.548	-1937.721	1	2907.409	-41.79573	8.164889E-007	0.0778763	8
	1	3	794390.6	2519.575	-2032.751	1	3237.334	-38.89602	3.843648E-006	0.0769199	8
	2	4	630984.4	2893.333	-2044.089	1	3542.552	-35.24053	-5.952865E-008	0.0774023	8
	3	6	501234.4	3264.451	-2057.217	1	3858.598	-32.21863	4.046929E-006	0.0767372	8
	4	7	398109.4	3627.459	-2021.254	1	4152.581	-29.12696	3.498957E-006	0.076712	8
	5	9	316265.6	3969.18	-1943.217	1	4419.331	-26.08528	-3.352661E-006	0.0780338	8
	6	10	251203.1	4290.225	-1869.15	1	4679.717	-23.54162	-1.200666E-007	0.0775103	8
	7	12	199546.9	4586.619	-1773.343	1	4917.501	-21.1382	-3.114631E-006	0.0780137	8
	8	13	158578.1	4853.268	-1636.138	1	5121.636	-18.63004	7.089345E-007	0.0774132	8
	9	15	125953.1	5129.076	-1460.425	1	5332.941	-15.89349	-8.434291E-007	0.0790399	7
	10	16	100078.1	5334.1	-1366.781	1	5506.425	-14.37195	-2.96314E-008	0.0773056	7
	11	18	79453.13	5524.394	-1275.484	1	5669.725	-13.00076	3.982337E-008	0.0772628	7
	12	19	63140.62	5693.963	-1188.834	1	5816.747	-11.79328	-2.470573E-008	0.077385	7
	13	20	50203.12	5848.757	-1104.765	1	5952.181	-10.69651	-7.114252E-009	0.0773515	7
	14	22	39890.62	5986.53	-1026.259	1	6073.858	-9.72754	-5.172191E-008	0.0774097	7
	15	23	31640.63	6116.578	-962.548	1	6191.851	-8.943129	1.396229E-007	0.0771037	7
	16	25	25171.88	6226.107	-909.108	1	6292.129	-8.307364	4.144031E-008	0.0772555	7
	17	26	20015.62	6324.7	-859.8387	1	6382.879	-7.74186	-3.0953E-008	0.0772906	7
	18	28	15890.62	6416.206	-837.1639	1	6470.59	-7.433757	-2.52744E-008	0.0773786	7
	19	30	12609.37	6500.536	-821.0121	1	6552.177	-7.198296	4.352659E-008	0.0772505	7
	20	31	10078.13	6577.486	-830.6693	1	6629.731	-7.197767	-4.988107E-008	0.077406	7
	21	33	8015.625	6657.505	-855.0723	1	6712.192	-7.31885	9.307985E-008	0.077247	7
	22	34	6328.125	6722.905	-903.6304	1	6783.362	-7.655285	-1.297281E-008	0.0772568	7
	23	36	5015.625	6800.08	-980.345	1	6870.383	-8.20362	-1.031646E-008	0.0774429	7
	24	37	3984.375	6862.677	-1081.993	1	6947.449	-8.959693	-3.854715E-008	0.0773144	7
	25	39	3170.956	6936.317	-1220.55	1	7042.885	-9.97989	8.229181E-008	0.0771255	7
	26	40	2527.573	7014.583	-1400.292	1	7152.985	-11.28932	7.167692E-008	0.0771754	7
	27	42	1976.103	7102.468	-1652.515	1	7292.178	-13.09785	-5.465334E-008	0.0774878	7
	28	44	1577.524	7189.703	-1938.964	1	7446.571	-15.09282	7.215456E-008	0.0771793	7
	29	45	1265.625	7301.564	-2277.152	1	7648.416	-17.32123	7.332716E-008	0.0771769	7
	30	47	998.264	7409.571	-2755.673	1	7905.408	-20.40053	1.435523E-007	0.0770951	7
	31	48	796.875	7552.32	-3295.273	1	8239.925	-23.57289	4.15E-008	0.0771562	7
	32	49	627.7902	7728.306	-4014.372	1	8708.726	-27.44906	-4.094509E-008	0.0773176	7
	33	51	505.5147	7922.884	-4817.624	1	9272.626	-31.3023	7.233546E-008	0.0771808	7
	34	52	397.9953	8189.565	-5881.938	1	10082.96	-35.68679	-2.09135E-009	0.0772591	6
	35	54	315.5048	8506.942	-7158.08	1	11117.83	-40.07859	-2.044088E-009	0.0772594	6
	36	55	252.4038	8883.104	-8643.091	1	12394.05	-44.21541	-1.802873E-009	0.0772594	6
	37	56	198.6229	9386.818	-10585.07	1	14147.65	-48.43345	-2.29997E-009	0.0772631	6
	38	58	158.3615	9978.35	-12815.09	1	16241.74	-52.09422	-2.813406E-009	0.0772528	6
	39	59	125.558	10725.76	-15586	1	18919.97	-55.46557	-2.51895E-009	0.0772576	6
	40	61	100.4464	11599.96	-18780.74	1	22074.31	-58.29837	-1.740294E-009	0.0772587	6
	41	62	79.00281	12762.28	-22985.48	1	26290.83	-60.95955	-3.135206E-009	0.0772625	6
	42	63	63.3446	14040.69	-27943.02	1	31272.25	-63.32158	-2.728709E-009	0.0772592	6
	43	65	49.86702	16033.17	-33523.32	1	37160.14	-64.43964	-3.302296E-009	0.0772558	6
	44	66	39.72458	18256.69	-40751.73	1	44654.34	-65.86772	-2.07343E-009	0.0772641	6
	45	67	31.6723	21048.01	-49264.77	1	53572.72	-66.86577	-2.171403E-009	0.0772599	6
	46	69	24.93351	24755.63	-59764.68	1	64688.93	-67.49977	-2.634634E-009	0.0772593	6
	47	70	19.86229	29089.05	-71914.89	1	77575.28	-67.97703	-1.60495E-009	0.0772669	6
	48	72	15.83615	34310.59	-85837.53	1	92440.78	-68.21265	-3.042792E-009	0.077263	6
	49	73	12.40079	42311.28	-104530.3	1	112768.9	-67.96311	-1.84442E-009	0.077263	5
	50	75	9.93114	50703.27	-123760.7	1	133744.3	-67.72167	-2.803263E-009	0.0772687	5
	51	76	7.944915	61527.79	-146873.4	1	159240.3	-67.27035	-2.096677E-009	0.0772687	5
	52	78	6.317385	74567.83	-174366.4	1	189641.8	-66.84602	-2.481309E-009	0.0772809	5
	53	80	5.008013	90842.09	-206699	1	225780.4	-66.27501	-2.271567E-009	0.0772671	5
	54	82	3.945707	111493.1	-245981.6	1	270069.7	-65.61722	-2.234754E-009	0.0772705	5
	55	85	3.158693	134670	-288285.3	1	318189.3	-64.96076	-2.713931E-009	0.0772597	5
	56	88	2.504006	163669.7	-338972.2	1	376417.2	-64.22684	-2.143071E-009	0.0772609	5
	57	91	1.998082	197203.5	-395637.7	1	442061.5	-63.50628	-2.412054E-009	0.077297	5
	58	94	1.584686	237957.1	-461180.9	1	518952.2	-62.70747	-2.413099E-009	0.0772302	5
	59	98	1.266892	284598.9	-536564.8	1	607370	-62.05811	-2.322912E-009	0.0772915	5
	60	102	0.999041	342629	-627286.7	1	714760.9	-61.35628	-2.561267E-009	0.0772232	5
