EXPLAIN
TAG	EISPOT
TITLE	LABEL	Potentiostatic EIS	Test &Identifier
DATE	LABEL	10/18/2019	Date
TIME	LABEL	10:08:44	Time
NOTES	NOTES	1	&Notes...
	
PSTAT	PSTAT	REF600-11020	Potentiostat
VDC	POTEN	0.00000E+000	T	DC &Voltage (V)
FREQINIT	QUANT	1.00000E+006	Initial Fre&q. (Hz)
FREQFINAL	QUANT	1.00000E+000	Final Fre&q. (Hz)
PTSPERDEC	QUANT	1.00000E+001	Points/&decade
VAC	QUANT	2.50000E+001	AC &Voltage (mV rms)
AREA	QUANT	1.00000E-002	&Area (cm^2)
CONDIT	TWOPARAM	T	5.00000E+000	0.00000E+000	Conditionin&g	Time(s)	E(V)
DELAY	TWOPARAM	T	5.00000E+000	0.00000E+000	Init. De&lay	Time(s)	Stab.(mV/s)
SPEED	SELECTOR	0	&Optimize for:
ZGUESS	QUANT	1.00000E+005	E&stimated Z (ohms)
OCVCURVE	TABLE	19
	Pt	T	Vf	Vm	Ach	Over
	#	s	V vs. Ref.	V	V	bits
	0	0.258333	7.88789E-003	7.88789E-003	5.00500E-004	...........
	1	0.516667	7.88801E-003	7.89431E-003	4.95567E-004	...........
	2	0.775	7.88927E-003	7.92670E-003	4.94533E-004	...........
	3	1.03333	7.89472E-003	7.96970E-003	5.00367E-004	...........
	4	1.29167	7.90878E-003	8.01543E-003	4.91933E-004	...........
	5	1.55	7.93420E-003	8.06615E-003	4.94167E-004	...........
	6	1.80833	7.97069E-003	8.13981E-003	4.94133E-004	...........
	7	2.06667	8.01685E-003	8.19825E-003	4.93133E-004	...........
	8	2.325	8.07092E-003	8.25166E-003	4.94500E-004	...........
	9	2.58333	8.12974E-003	8.31542E-003	4.98167E-004	...........
	10	2.84167	8.18997E-003	8.37661E-003	4.98800E-004	...........
	11	3.1	8.25025E-003	8.43598E-003	4.99967E-004	...........
	12	3.35833	8.31049E-003	8.49017E-003	4.92833E-004	...........
	13	3.61667	8.37020E-003	8.54463E-003	4.96067E-004	...........
	14	3.875	8.42862E-003	8.60442E-003	4.98667E-004	...........
	15	4.13333	8.48570E-003	8.65556E-003	4.97000E-004	...........
	16	4.39167	8.54169E-003	8.70269E-003	4.94333E-004	...........
	17	4.65	8.59635E-003	8.75778E-003	5.01767E-004	...........
	18	4.90833	8.64940E-003	8.80866E-003	4.96233E-004	...........
EOC	QUANT	0.0086494	Open Circuit (V)
PSTATMODEL	IQUANT	4	Pstat Model
PSTATSECTION	LABEL	REF600-11020	Pstat Section
PSTATSERIALNO	LABEL	11020	Pstat Serial Number
CTRLMODE	IQUANT	1	Control Mode
IESTAB	IQUANT	0	I/E Stability
CASPEED	IQUANT	1	Control Amp Speed
CONVENTION	IQUANT	1	Current Convention
ICHRANGE	IQUANT	2	Ich Range
ICHRANGEMODE	TOGGLE	F	Ich Auto Range
ICHOFFSETENABLE	TOGGLE	T	Ich Offset Enable
ICHOFFSET	QUANT	0	Ich Offset (V)
ICHFILTER	IQUANT	3	Ich Filter
VCHRANGE	IQUANT	2	Vch Range
VCHRANGEMODE	TOGGLE	F	Vch Auto Range
VCHOFFSETENABLE	TOGGLE	T	Vch Offset Enable
VCHOFFSET	QUANT	0	Vch Offset (V)
VCHFILTER	IQUANT	3	Vch Filter
ACHRANGE	IQUANT	2	Ach Range
ACHOFFSETENABLE	TOGGLE	F	Ach Offset Enable
ACHOFFSET	QUANT	0	Ach Offset (V)
ACHFILTER	IQUANT	3	Ach Filter
IERANGELOWERLIMIT	IQUANT	1	I/E Range Lower Limit
IERANGEMODE	TOGGLE	F	I/E AutoRange
IERANGE	IQUANT	5	I/E Range
POSFEEDENABLE	TOGGLE	F	Positive Feedback IR Comp
POSFEEDRESISTANCE	QUANT	0	Positive Feedback Resistance (ohm)
ACHSELECT	IQUANT	0	Ach Select
CABLEID	IQUANT	14	Cable ID
DCCALDATE	LABEL	8/19/2019	DC Calibration Date
ACCALDATE	LABEL	8/19/2019	AC Calibration Date
THERMOSELECT	IQUANT	1	Thermo Select
FRAMEWORKVERSION	QUANT	6.33	Framework Version
INSTRUMENTVERSION	LABEL	3.50	Instrument Version
ZCURVE	TABLE
	Pt	Time	Freq	Zreal	Zimag	Zsig	Zmod	Zphz	Idc	Vdc	IERange
	#	s	Hz	ohm	ohm	V	ohm	°	A	V	#
	0	2	1000078	2899.141	-1730.096	1	3376.13	-30.82714	-5.379617E-006	0.011986	8
	1	2	794390.6	3203.644	-1638.958	1	3598.544	-27.09391	8.281403E-007	0.01111	8
	2	2	630984.4	3492.477	-1482.592	1	3794.137	-23.00172	-1.010834E-006	0.0104428	8
	3	3	501234.4	3726.667	-1304.501	1	3948.388	-19.29235	5.392769E-007	0.010438	8
	4	3	398109.4	3892.616	-1150.058	1	4058.953	-16.45956	-2.610024E-006	0.0110628	8
	5	3	316265.6	4033.2	-966.669	1	4147.427	-13.47828	1.680251E-006	0.0100689	8
	6	4	251203.1	4112.628	-853.6638	1	4200.292	-11.72644	-2.430709E-006	0.010825	8
	7	4	199546.9	4201.625	-710.4738	1	4261.271	-9.59764	3.392521E-006	0.0097558	8
	8	4	158578.1	4244.088	-614.2838	1	4288.313	-8.235723	-3.030498E-006	0.0109595	8
	9	5	125953.1	4327.979	-475.3797	1	4354.008	-6.268169	1.40808E-006	0.0076419	7
	10	5	100078.1	4349.352	-425.7496	1	4370.14	-5.590761	6.19311E-008	0.0102289	7
	11	5	79453.13	4381.132	-397.0415	1	4399.086	-5.178303	1.237364E-007	0.0101331	7
	12	6	63140.62	4411.805	-377.6353	1	4427.938	-4.892396	-7.360304E-008	0.0104153	7
	13	6	50203.12	4443.18	-369.796	1	4458.542	-4.757636	-5.678664E-008	0.0103883	7
	14	6	39890.62	4470.494	-367.1098	1	4485.542	-4.694505	-5.98355E-008	0.0103851	7
	15	7	31640.63	4501.679	-377.8427	1	4517.508	-4.797803	-3.698866E-008	0.0103137	7
	16	7	25171.88	4531.953	-397.2717	1	4549.332	-5.00975	-7.719098E-008	0.0105386	7
	17	7	20015.62	4555.912	-421.7262	1	4575.389	-5.288617	-2.14662E-008	0.010347	7
	18	8	15890.62	4600.603	-466.3491	1	4624.179	-5.788127	-5.164221E-008	0.0104266	7
	19	8	12609.37	4638.76	-520.8149	1	4667.906	-6.406033	-5.892757E-008	0.0103787	7
	20	8	10078.13	4676.264	-583.4271	1	4712.519	-7.111674	-7.479936E-009	0.0103137	7
	21	9	8015.625	4734.741	-693.0012	1	4785.188	-8.326981	1.240692E-007	0.0101216	7
	22	9	6328.125	4769.482	-772.9191	1	4831.704	-9.205052	-2.835554E-009	0.0102726	7
	23	9	5015.625	4821.915	-901.1169	1	4905.393	-10.58531	4.828549E-008	0.0102484	7
	24	9	3984.375	4849.877	-1026.011	1	4957.218	-11.94503	4.805732E-008	0.0102538	7
	25	10	3170.956	4943.326	-1251.308	1	5099.239	-14.20494	6.074031E-008	0.0102087	7
	26	10	2527.573	5014.374	-1483.189	1	5229.13	-16.47756	1.183208E-008	0.0103996	7
	27	10	1976.103	5100.959	-1795.123	1	5407.61	-19.38792	-6.851717E-009	0.0103097	7
	28	11	1577.524	5196.013	-2228.032	1	5653.555	-23.20948	1.009942E-007	0.0102204	7
	29	11	1265.625	5309.672	-2565.526	1	5896.994	-25.78889	4.883555E-008	0.0102542	7
	30	11	998.264	5449.701	-3116.236	1	6277.751	-29.76169	1.075587E-008	0.0103963	7
	31	12	796.875	5602.229	-3756.954	1	6745.345	-33.8465	-8.787797E-009	0.0103473	7
	32	12	627.7902	5791.492	-4574.73	1	7380.348	-38.30539	1.31767E-008	0.0102179	7
	33	12	505.5147	6007.244	-5497.617	1	8143.143	-42.46365	-8.948439E-010	0.0102686	7
	34	13	397.9953	6276.459	-6739.611	1	9209.576	-47.0379	2.257963E-009	0.0103226	7
	35	13	315.5048	6600.123	-8224.472	1	10545.31	-51.25302	6.328083E-010	0.0102592	6
	36	13	252.4038	6977.674	-9978.37	1	12176.04	-55.03568	1.629402E-009	0.0102571	6
	37	14	198.6229	7485.491	-12296.73	1	14395.91	-58.66953	1.276831E-010	0.010258	6
	38	14	158.3615	8090.476	-14995.16	1	17038.51	-61.6514	3.110972E-010	0.0102544	6
	39	14	125.558	8910.931	-18374.08	1	20420.86	-64.12788	1.072126E-009	0.0102518	6
	40	15	100.4464	9887.29	-22343.58	1	24433.46	-66.13005	-9.986891E-010	0.0102511	6
	41	15	79.00281	11280.53	-27449.68	1	29677.19	-67.65964	-6.711717E-011	0.0102504	6
	42	15	63.3446	13653.28	-33513.37	1	36187.82	-67.83411	5.057683E-010	0.0102472	6
	43	16	49.86702	15981.63	-41047.3	1	44048.76	-68.72671	7.508851E-011	0.0102453	6
	44	16	39.72458	18951.2	-49180.78	1	52705.76	-68.92645	2.805832E-010	0.0102503	6
	45	16	31.6723	22915.07	-58916.17	1	63215.63	-68.74677	4.718127E-011	0.0102487	6
	46	17	24.93351	28550.34	-71441.69	1	76935.27	-68.2168	-7.964E-011	0.0102508	6
	47	17	19.86229	35447.01	-84990.18	1	92085.95	-67.36036	5.996642E-010	0.0102535	6
	48	17	15.83615	44345.44	-98425.2	1	107953.9	-65.74607	-2.911219E-009	0.0102548	5
	49	18	12.40079	54496.73	-118055.8	1	130027.2	-65.22108	1.883788E-009	0.0102476	5
	50	18	9.93114	66353.62	-138631.3	1	153692.7	-64.42266	-2.184476E-010	0.0102476	5
	51	19	7.944915	79744.71	-161040.9	1	179703.6	-63.65617	-7.610743E-010	0.0102532	5
	52	19	6.317385	95960.7	-187323.3	1	210472	-62.87514	-5.970039E-010	0.0102644	5
	53	20	5.008013	115002.5	-217715.6	1	246222.8	-62.15593	-2.512601E-010	0.0102512	5
	54	21	3.945707	138245.5	-254144.7	1	289311.9	-61.45542	8.522729E-012	0.0102482	5
	55	22	3.158693	162272.6	-293936.1	1	335754.2	-61.09834	1.246586E-010	0.0102674	5
	56	24	2.504006	191971.1	-341260.6	1	391550.3	-60.64072	-1.119674E-010	0.0102637	5
	57	25	1.998082	224040.6	-394744.6	1	453891.5	-60.42257	-1.268986E-010	0.0102416	5
	58	27	1.584686	263234.7	-457732.8	1	528026.3	-60.09749	8.173076E-011	0.010281	5
	59	29	1.266892	307060.2	-529396.5	1	612002.1	-59.88544	6.006592E-011	0.0102908	5
	60	31	0.999041	359531.6	-619115.1	1	715937.4	-59.85547	4.412727E-012	0.0102817	5
