EXPLAIN
TAG	EISPOT
TITLE	LABEL	Potentiostatic EIS	Test &Identifier
DATE	LABEL	6/20/2000	Date
TIME	LABEL	9:16:14	Time
NOTES	NOTES	2	&Notes...
	
	
PSTAT	PSTAT	REF600-11020	Potentiostat
VDC	POTEN	0.00000E+000	T	DC &Voltage (V)
FREQINIT	QUANT	1.00000E+006	Initial Fre&q. (Hz)
FREQFINAL	QUANT	1.00000E+000	Final Fre&q. (Hz)
PTSPERDEC	QUANT	1.00000E+001	Points/&decade
VAC	QUANT	2.50000E+001	AC &Voltage (mV rms)
AREA	QUANT	1.00000E-002	&Area (cm^2)
CONDIT	TWOPARAM	T	5.00000E+000	0.00000E+000	Conditionin&g	Time(s)	E(V)
DELAY	TWOPARAM	T	5.00000E+000	0.00000E+000	Init. De&lay	Time(s)	Stab.(mV/s)
SPEED	SELECTOR	0	&Optimize for:
ZGUESS	QUANT	1.00000E+005	E&stimated Z (ohms)
OCVCURVE	TABLE	19
	Pt	T	Vf	Vm	Ach	Over
	#	s	V vs. Ref.	V	V	bits
	0	0.258333	2.53201E-003	2.53201E-003	5.66266E-004	...........
	1	0.516667	2.52986E-003	2.41952E-003	5.64432E-004	...........
	2	0.775	2.51519E-003	2.23545E-003	5.64766E-004	...........
	3	1.03333	2.47095E-003	2.17406E-003	5.67166E-004	...........
	4	1.29167	2.39110E-003	2.07280E-003	5.63699E-004	...........
	5	1.55	2.28896E-003	1.95444E-003	5.68899E-004	...........
	6	1.80833	2.18061E-003	1.83012E-003	5.69766E-004	...........
	7	2.06667	2.07074E-003	1.71387E-003	5.62066E-004	...........
	8	2.325	1.95804E-003	1.60767E-003	5.62866E-004	...........
	9	2.58333	1.84347E-003	1.51315E-003	5.68832E-004	...........
	10	2.84167	1.73135E-003	1.44104E-003	5.66266E-004	...........
	11	3.1	1.62694E-003	1.37057E-003	5.69532E-004	...........
	12	3.35833	1.53373E-003	1.30695E-003	5.70532E-004	...........
	13	3.61667	1.45178E-003	1.23266E-003	5.71032E-004	...........
	14	3.875	1.37794E-003	1.16777E-003	5.63566E-004	...........
	15	4.13333	1.30826E-003	1.10092E-003	5.67699E-004	...........
	16	4.39167	1.24031E-003	1.03914E-003	5.68566E-004	...........
	17	4.65	1.17364E-003	9.79845E-004	5.68966E-004	...........
	18	4.90833	1.10901E-003	9.36134E-004	5.69799E-004	...........
EOC	QUANT	0.001109	Open Circuit (V)
PSTATMODEL	IQUANT	4	Pstat Model
PSTATSECTION	LABEL	REF600-11020	Pstat Section
PSTATSERIALNO	LABEL	11020	Pstat Serial Number
CTRLMODE	IQUANT	1	Control Mode
IESTAB	IQUANT	0	I/E Stability
CASPEED	IQUANT	1	Control Amp Speed
CONVENTION	IQUANT	1	Current Convention
ICHRANGE	IQUANT	2	Ich Range
ICHRANGEMODE	TOGGLE	F	Ich Auto Range
ICHOFFSETENABLE	TOGGLE	T	Ich Offset Enable
ICHOFFSET	QUANT	0	Ich Offset (V)
ICHFILTER	IQUANT	3	Ich Filter
VCHRANGE	IQUANT	2	Vch Range
VCHRANGEMODE	TOGGLE	F	Vch Auto Range
VCHOFFSETENABLE	TOGGLE	T	Vch Offset Enable
VCHOFFSET	QUANT	0	Vch Offset (V)
VCHFILTER	IQUANT	3	Vch Filter
ACHRANGE	IQUANT	2	Ach Range
ACHOFFSETENABLE	TOGGLE	F	Ach Offset Enable
ACHOFFSET	QUANT	0	Ach Offset (V)
ACHFILTER	IQUANT	3	Ach Filter
IERANGELOWERLIMIT	IQUANT	1	I/E Range Lower Limit
IERANGEMODE	TOGGLE	F	I/E AutoRange
IERANGE	IQUANT	4	I/E Range
POSFEEDENABLE	TOGGLE	F	Positive Feedback IR Comp
POSFEEDRESISTANCE	QUANT	0	Positive Feedback Resistance (ohm)
ACHSELECT	IQUANT	0	Ach Select
CABLEID	IQUANT	14	Cable ID
DCCALDATE	LABEL	8/19/2019	DC Calibration Date
ACCALDATE	LABEL	8/19/2019	AC Calibration Date
THERMOSELECT	IQUANT	1	Thermo Select
FRAMEWORKVERSION	QUANT	6.33	Framework Version
INSTRUMENTVERSION	LABEL	3.50	Instrument Version
ZCURVE	TABLE
	Pt	Time	Freq	Zreal	Zimag	Zsig	Zmod	Zphz	Idc	Vdc	IERange
	#	s	Hz	ohm	ohm	V	ohm	°	A	V	#
	0	2	1000078	1725.152	-641.9557	1	1840.722	-20.41101	-3.878723E-006	0.0039569	8
	1	2	794390.6	1823.992	-592.6229	1	1917.85	-17.9992	6.677404E-006	0.0027455	8
	2	2	630984.4	1908.808	-541.8948	1	1984.238	-15.8488	-1.638424E-006	0.0023348	8
	3	3	501234.4	1986.352	-487.8607	1	2045.386	-13.79907	6.932676E-006	0.0013936	8
	4	3	398109.4	2048.149	-442.1051	1	2095.322	-12.18074	-3.35964E-006	0.0024978	8
	5	3	316265.6	2102.519	-397.3053	1	2139.728	-10.7008	2.797905E-006	0.0019686	8
	6	4	251203.1	2150.246	-351.3555	1	2178.763	-9.280256	-9.311565E-007	0.0030065	8
	7	4	199546.9	2189.433	-319.894	1	2212.679	-8.312562	-6.146557E-006	0.0034597	8
	8	4	158578.1	2212.386	-299.2251	1	2232.529	-7.702512	-1.556493E-006	0.0023572	8
	9	5	125953.1	2263.292	-228.2864	1	2274.775	-5.759647	1.114412E-006	0.0037829	7
	10	5	100078.1	2279.059	-205.7047	1	2288.323	-5.157463	-9.810364E-007	0.0040005	7
	11	5	79453.13	2302.442	-198.2475	1	2310.961	-4.92121	9.798528E-007	0.0015018	7
	12	6	63140.62	2320.689	-193.7661	1	2328.764	-4.772845	4.224596E-007	0.0010622	7
	13	6	50203.12	2339.221	-193.1148	1	2347.179	-4.719362	9.817169E-008	0.0013186	7
	14	6	39890.62	2358.303	-196.2755	1	2366.457	-4.757614	9.814155E-007	0.001502	7
	15	7	31640.63	2373.875	-201.734	1	2382.431	-4.857375	-7.998007E-007	0.0040418	7
	16	7	25171.88	2393.28	-213.4937	1	2402.783	-5.097605	3.738406E-007	0.0029617	7
	17	7	20015.62	2412.532	-228.868	1	2423.364	-5.419219	7.49048E-007	0.0023114	7
	18	8	15890.62	2429.143	-250.9164	1	2442.067	-5.897408	-8.017134E-007	0.0040354	7
	19	8	12609.37	2449.576	-280.0512	1	2465.533	-6.522102	9.70466E-008	0.0013129	7
	20	8	10078.13	2471.194	-315.0599	1	2491.197	-7.265614	6.825249E-007	0.0009524	7
	21	9	8015.625	2492.344	-360.4003	1	2518.267	-8.228105	-6.544683E-007	0.0023797	7
	22	9	6328.125	2518.54	-419.083	1	2553.169	-9.447411	4.228536E-007	0.0010493	7
	23	9	5015.625	2543.053	-489.4497	1	2589.726	-10.89424	-1.114275E-006	0.0038552	7
	24	9	3984.375	2573.91	-576.5624	1	2637.696	-12.62597	6.843408E-007	0.0009529	7
	25	10	3170.956	2604.303	-682.6219	1	2692.279	-14.68756	-1.10319E-006	0.0035106	7
	26	10	2527.573	2641.495	-815.0943	1	2764.394	-17.14882	9.090527E-007	0.001866	7
	27	10	1976.103	2683.408	-991.306	1	2860.659	-20.27526	-9.465501E-007	0.0029965	7
	28	11	1577.524	2731.533	-1193.458	1	2980.875	-23.60142	4.259229E-007	0.0010497	7
	29	11	1265.625	2781.076	-1429.055	1	3126.753	-27.19636	-9.862337E-007	0.0039815	7
	30	11	998.264	2847.042	-1750.964	1	3342.383	-31.59201	7.497177E-007	0.0023025	7
	31	12	796.875	2922.12	-2120.837	1	3610.642	-35.97166	-9.875447E-007	0.003976	7
	32	12	627.7902	3021.172	-2612.567	1	3994.119	-40.85171	-2.761339E-007	0.0017563	7
	33	12	505.5147	3131.915	-3157.338	1	4447.21	-45.23161	3.723296E-007	0.0029496	7
	34	13	397.9953	3288.031	-3895.29	1	5097.493	-49.83214	1.560427E-009	0.0025507	7
	35	13	315.5048	3481.396	-4778.633	1	5912.313	-53.92539	3.165134E-010	0.0025484	7
	36	13	252.4038	3717.914	-5813.013	1	6900.29	-57.39764	2.554996E-009	0.0025454	7
	37	14	198.6229	4050.366	-7170.54	1	8235.417	-60.53954	-2.135644E-010	0.0025448	7
	38	14	158.3615	4458.172	-8736.962	1	9808.66	-62.96634	2.260838E-009	0.0025443	7
	39	14	125.558	5004.735	-10677.46	1	11792.18	-64.88659	7.762235E-010	0.0024891	6
	40	15	100.4464	5691.193	-12934.61	1	14131.3	-66.25063	5.67393E-010	0.0024802	6
	41	15	79.00281	6633.934	-15846.34	1	17178.92	-67.28379	-9.981808E-010	0.0024867	6
	42	15	63.3446	7861.263	-18941.21	1	20507.78	-67.45985	5.56122E-010	0.0024791	6
	43	16	49.86702	9483.728	-23071.77	1	24944.9	-67.65472	8.615364E-010	0.0024807	6
	44	16	39.72458	11365.06	-27716.53	1	29956.14	-67.70409	1.024622E-009	0.0024773	6
	45	16	31.6723	13833.45	-33094.67	1	35869.5	-67.31525	7.783026E-010	0.0024794	6
	46	17	24.93351	17171.62	-39605.67	1	43167.97	-66.56014	7.529865E-010	0.0024719	6
	47	17	19.86229	21043.94	-46752.42	1	51270.22	-65.7668	2.995772E-009	0.0024888	6
	48	17	15.83615	25399.74	-55153.39	1	60721.04	-65.27255	-4.055174E-011	0.0024816	6
	49	18	12.40079	31780.28	-65149.82	1	72487.84	-63.99674	-1.014968E-009	0.0024795	6
	50	18	9.93114	38712.11	-75284.91	1	84654.85	-62.7874	-2.2389E-009	0.002478	6
	51	18	7.944915	46638.78	-87210.51	1	98898.2	-61.86285	-5.22635E-010	0.0024824	6
	52	19	6.317385	56048.85	-100489.7	1	115063.7	-60.8491	-1.279312E-011	0.0024828	5
	53	20	5.008013	67022.95	-115802.3	1	133799.3	-59.93901	4.243493E-010	0.0024908	5
	54	21	3.945707	79676.13	-133328.7	1	155321.7	-59.13781	3.002155E-011	0.0024672	5
	55	22	3.158693	92874.82	-152423.8	1	178490.2	-58.64523	3.512545E-010	0.0024769	5
	56	23	2.504006	107361	-175022.9	1	205327.5	-58.47459	3.36511E-010	0.0024788	5
	57	25	1.998082	122654.5	-200545.8	1	235080.3	-58.54991	-8.116558E-011	0.0024372	5
	58	26	1.584686	138562.5	-232358.7	1	270536.7	-59.1911	2.929984E-011	0.0024466	5
	59	28	1.266892	155509.1	-268781.6	1	310526.3	-59.94759	1.631838E-010	0.002489	5
	60	31	0.999041	175844	-316806	1	362335.7	-60.96742	1.966588E-010	0.0025106	5
