EXPLAIN
TAG	EISPOT
TITLE	LABEL	Potentiostatic EIS	Test &Identifier
DATE	LABEL	10/28/2019	Date
TIME	LABEL	11:07:03	Time
NOTES	NOTES	1	&Notes...
	
PSTAT	PSTAT	REF600-11020	Potentiostat
VDC	POTEN	0.00000E+000	T	DC &Voltage (V)
FREQINIT	QUANT	1.00000E+006	Initial Fre&q. (Hz)
FREQFINAL	QUANT	1.00000E+000	Final Fre&q. (Hz)
PTSPERDEC	QUANT	1.00000E+001	Points/&decade
VAC	QUANT	2.50000E+001	AC &Voltage (mV rms)
AREA	QUANT	1.00000E-002	&Area (cm^2)
CONDIT	TWOPARAM	T	5.00000E+000	0.00000E+000	Conditionin&g	Time(s)	E(V)
DELAY	TWOPARAM	T	5.00000E+000	0.00000E+000	Init. De&lay	Time(s)	Stab.(mV/s)
SPEED	SELECTOR	1	&Optimize for:
ZGUESS	QUANT	1.00000E+005	E&stimated Z (ohms)
OCVCURVE	TABLE	19
	Pt	T	Vf	Vm	Ach	Over
	#	s	V vs. Ref.	V	V	bits
	0	0.258333	1.06832E-002	1.06832E-002	5.31866E-004	...........
	1	0.516667	1.06843E-002	1.07423E-002	5.26966E-004	...........
	2	0.775	1.06912E-002	1.07957E-002	5.27733E-004	...........
	3	1.03333	1.07112E-002	1.08815E-002	5.34033E-004	...........
	4	1.29167	1.07504E-002	1.10131E-002	5.35699E-004	...........
	5	1.55	1.08126E-002	1.11290E-002	5.28100E-004	...........
	6	1.80833	1.08973E-002	1.11880E-002	5.30800E-004	...........
	7	2.06667	1.09952E-002	1.12796E-002	5.34533E-004	...........
	8	2.325	1.10939E-002	1.13708E-002	5.33733E-004	...........
	9	2.58333	1.11869E-002	1.14595E-002	5.28533E-004	...........
	10	2.84167	1.12758E-002	1.15334E-002	5.33000E-004	...........
	11	3.1	1.13627E-002	1.16346E-002	5.33933E-004	...........
	12	3.35833	1.14488E-002	1.17114E-002	5.28133E-004	...........
	13	3.61667	1.15348E-002	1.17956E-002	5.35566E-004	...........
	14	3.875	1.16204E-002	1.18724E-002	5.39633E-004	...........
	15	4.13333	1.17046E-002	1.19546E-002	5.32933E-004	...........
	16	4.39167	1.17867E-002	1.20265E-002	5.26900E-004	...........
	17	4.65	1.18668E-002	1.21080E-002	5.31766E-004	...........
	18	4.90833	1.19452E-002	1.21718E-002	5.34666E-004	...........
EOC	QUANT	0.0119452	Open Circuit (V)
PSTATMODEL	IQUANT	4	Pstat Model
PSTATSECTION	LABEL	REF600-11020	Pstat Section
PSTATSERIALNO	LABEL	11020	Pstat Serial Number
CTRLMODE	IQUANT	1	Control Mode
IESTAB	IQUANT	0	I/E Stability
CASPEED	IQUANT	1	Control Amp Speed
CONVENTION	IQUANT	1	Current Convention
ICHRANGE	IQUANT	2	Ich Range
ICHRANGEMODE	TOGGLE	F	Ich Auto Range
ICHOFFSETENABLE	TOGGLE	T	Ich Offset Enable
ICHOFFSET	QUANT	0	Ich Offset (V)
ICHFILTER	IQUANT	3	Ich Filter
VCHRANGE	IQUANT	2	Vch Range
VCHRANGEMODE	TOGGLE	F	Vch Auto Range
VCHOFFSETENABLE	TOGGLE	T	Vch Offset Enable
VCHOFFSET	QUANT	0	Vch Offset (V)
VCHFILTER	IQUANT	3	Vch Filter
ACHRANGE	IQUANT	2	Ach Range
ACHOFFSETENABLE	TOGGLE	F	Ach Offset Enable
ACHOFFSET	QUANT	0	Ach Offset (V)
ACHFILTER	IQUANT	3	Ach Filter
IERANGELOWERLIMIT	IQUANT	1	I/E Range Lower Limit
IERANGEMODE	TOGGLE	F	I/E AutoRange
IERANGE	IQUANT	5	I/E Range
POSFEEDENABLE	TOGGLE	F	Positive Feedback IR Comp
POSFEEDRESISTANCE	QUANT	0	Positive Feedback Resistance (ohm)
ACHSELECT	IQUANT	0	Ach Select
CABLEID	IQUANT	14	Cable ID
DCCALDATE	LABEL	8/19/2019	DC Calibration Date
ACCALDATE	LABEL	8/19/2019	AC Calibration Date
THERMOSELECT	IQUANT	1	Thermo Select
FRAMEWORKVERSION	QUANT	6.33	Framework Version
INSTRUMENTVERSION	LABEL	3.50	Instrument Version
ZCURVE	TABLE
	Pt	Time	Freq	Zreal	Zimag	Zsig	Zmod	Zphz	Idc	Vdc	IERange
	#	s	Hz	ohm	ohm	V	ohm	°	A	V	#
	0	1	1000078	2582.192	-1914.879	1	3214.728	-36.55956	-8.826895E-006	0.0156488	8
	1	3	794390.6	2952.497	-1858.978	1	3488.988	-32.19572	9.161236E-006	0.0127703	8
	2	5	630984.4	3294.186	-1776.525	1	3742.687	-28.33759	-6.715766E-007	0.0134926	8
	3	6	501234.4	3607.473	-1643.747	1	3964.311	-24.49641	-1.321202E-007	0.0135797	8
	4	8	398109.4	3852.993	-1508.108	1	4137.625	-21.37597	-5.974598E-006	0.014967	8
	5	9	316265.6	4083.355	-1396.42	1	4315.527	-18.87959	1.432324E-006	0.0133685	8
	6	11	251203.1	4265.407	-1244.796	1	4443.333	-16.2691	-2.391004E-006	0.0139855	8
	7	12	199546.9	4399.495	-1106.913	1	4536.608	-14.12249	1.184402E-006	0.013353	8
	8	14	158578.1	4517.673	-1017.636	1	4630.87	-12.69438	-3.641597E-006	0.0143084	8
	9	15	125953.1	4676.866	-857.4269	1	4754.814	-10.38887	9.118201E-007	0.0123072	7
	10	17	100078.1	4738.554	-801.1385	1	4805.8	-9.59614	-8.168224E-008	0.0136467	7
	11	18	79453.13	4812.425	-785.1509	1	4876.054	-9.26621	-6.991969E-008	0.013655	7
	12	20	63140.62	4886.835	-780.2207	1	4948.728	-9.071151	9.717652E-008	0.0133082	7
	13	21	50203.12	4960.233	-793.5303	1	5023.306	-9.089071	-1.376517E-008	0.0134594	7
	14	22	39890.62	5037.603	-823.1639	1	5104.414	-9.280335	8.932702E-008	0.0133571	7
	15	24	31640.63	5120.596	-874.3115	1	5194.702	-9.68948	-4.419902E-008	0.0135225	7
	16	25	25171.88	5207.589	-937.6473	1	5291.329	-10.20697	-1.468404E-008	0.0134565	7
	17	27	20015.62	5334.421	-1020.055	1	5431.074	-10.82549	-7.056666E-008	0.0136467	7
	18	28	15890.62	5416.647	-1128.002	1	5532.852	-11.76356	-1.415428E-008	0.0136674	7
	19	29	12609.37	5543.182	-1253.451	1	5683.134	-12.74171	-1.012717E-008	0.0135624	7
	20	31	10078.13	5668.112	-1395.864	1	5837.459	-13.83471	-5.317835E-008	0.0135549	7
	21	32	8015.625	5819.753	-1579.037	1	6030.165	-15.18024	-1.413941E-008	0.0134535	7
	22	34	6328.125	5985.836	-1775.875	1	6243.714	-16.52454	-1.083196E-008	0.0135581	7
	23	35	5015.625	6179.003	-2011.71	1	6498.235	-18.03379	9.64064E-008	0.0133008	7
	24	37	3984.375	6413.618	-2264.395	1	6801.616	-19.44611	-4.621664E-008	0.0135592	7
	25	38	3170.956	6629.019	-2603.496	1	7121.943	-21.44204	-1.15391E-008	0.0135572	7
	26	39	2527.573	6900.415	-2960.73	1	7508.771	-23.22251	-5.236404E-008	0.0135354	7
	27	41	1976.103	7230.02	-3414.251	1	7995.643	-25.27821	9.540859E-008	0.0134677	7
	28	42	1577.524	7573.232	-4027.062	1	8577.357	-28.00179	-4.299245E-008	0.0135235	7
	29	43	1265.625	7962.496	-4425.549	1	9109.71	-29.06527	4.744888E-008	0.0134563	7
	30	45	998.264	8393.675	-5078.017	1	9810.2	-31.17316	1.480812E-009	0.0134926	6
	31	46	796.875	8847.962	-5811.63	1	10585.91	-33.29822	2.346151E-009	0.0135036	6
	32	48	627.7902	9368.774	-6725.13	1	11532.62	-35.67169	-7.993143E-009	0.0135693	6
	33	49	505.5147	9853.45	-7699.746	1	12505.06	-38.00502	-1.313863E-009	0.013446	6
	34	51	397.9953	10410.53	-9014.121	1	13770.75	-40.88816	5.481202E-010	0.0134586	6
	35	52	315.5048	10963.76	-10576.17	1	15233.49	-43.96912	1.032436E-009	0.0134637	6
	36	53	252.4038	11512.4	-12449.05	1	16956.24	-47.23855	1.564973E-009	0.0134563	6
	37	55	198.6229	12145.11	-14957.45	1	19267.3	-50.9242	8.662382E-010	0.0134594	6
	38	56	158.3615	12805.04	-17930.94	1	22033.78	-54.4682	-5.401385E-010	0.0134573	6
	39	57	125.558	13589	-21759.5	1	25654.17	-58.01486	5.235957E-010	0.0134575	6
	40	59	100.4464	14541.95	-26336.05	1	30084.15	-61.09389	-7.828309E-010	0.0134542	6
	41	60	79.00281	15805.35	-32514.45	1	36152.44	-64.07551	1.35181E-009	0.0134518	6
	42	61	63.3446	17134.31	-40064.64	1	43574.76	-66.84522	-9.118353E-011	0.0134556	6
	43	63	49.86702	18961.52	-48269.98	1	51860.68	-68.554	6.717613E-012	0.0134509	6
	44	64	39.72458	21811.59	-59361.52	1	63241.88	-69.82482	5.366713E-010	0.0134559	6
	45	66	31.6723	25684.71	-72499.41	1	76914.69	-70.49205	6.707571E-010	0.013454	6
	46	67	24.93351	30358.72	-89507.97	1	94516.29	-71.26443	8.516232E-011	0.0134536	6
	47	69	19.86229	36816.32	-108686.8	1	114753.1	-71.28682	-2.165102E-010	0.013461	5
	48	70	15.83615	44085.05	-131749.2	1	138929.3	-71.49907	1.093848E-009	0.0134567	5
	49	71	12.40079	58734.4	-161019.5	1	171397.3	-69.95977	-3.405426E-010	0.0134599	5
	50	73	9.93114	74158.44	-192740.3	1	206514.6	-68.95535	-2.061503E-010	0.0134599	5
	51	74	7.944915	95746.1	-227265.1	1	246610.5	-67.15446	7.374411E-010	0.0134618	5
	52	76	6.317385	120049.9	-269081.6	1	294647.1	-65.95612	-1.802576E-010	0.0134521	5
	53	78	5.008013	153245.3	-314924	1	350230.3	-64.05197	-2.096551E-010	0.0134556	5
	54	81	3.945707	193668.3	-365167.4	1	413345.7	-62.06054	1.336521E-010	0.0134603	5
	55	84	3.158693	239774.8	-415833.5	1	480009.9	-60.03171	-5.015154E-011	0.0134436	5
	56	87	2.504006	291924.5	-471755.1	1	554772.7	-58.25056	5.696891E-011	0.013467	5
	57	90	1.998082	346060.4	-529608.8	1	632647.9	-56.83833	2.222237E-010	0.0134396	5
	58	93	1.584686	406748.3	-596937.5	1	722342.4	-55.7298	-4.569068E-011	0.0134145	5
	59	96	1.266892	466040.4	-669246.7	1	815527.3	-55.14797	1.272227E-010	0.0134264	5
	60	101	0.999041	532438.7	-762710.8	1	930171.4	-55.0816	-7.69528E-011	0.0134777	5
