EXPLAIN
TAG	EISPOT
TITLE	LABEL	Potentiostatic EIS	Test &Identifier
DATE	LABEL	11/3/2019	Date
TIME	LABEL	10:19:45	Time
NOTES	NOTES	1	&Notes...
	
PSTAT	PSTAT	REF600-11020	Potentiostat
VDC	POTEN	0.00000E+000	T	DC &Voltage (V)
FREQINIT	QUANT	1.00000E+006	Initial Fre&q. (Hz)
FREQFINAL	QUANT	1.00000E+000	Final Fre&q. (Hz)
PTSPERDEC	QUANT	1.00000E+001	Points/&decade
VAC	QUANT	2.50000E+001	AC &Voltage (mV rms)
AREA	QUANT	1.00000E-002	&Area (cm^2)
CONDIT	TWOPARAM	T	5.00000E+000	0.00000E+000	Conditionin&g	Time(s)	E(V)
DELAY	TWOPARAM	T	5.00000E+000	0.00000E+000	Init. De&lay	Time(s)	Stab.(mV/s)
SPEED	SELECTOR	1	&Optimize for:
ZGUESS	QUANT	1.00000E+005	E&stimated Z (ohms)
OCVCURVE	TABLE	19
	Pt	T	Vf	Vm	Ach	Over
	#	s	V vs. Ref.	V	V	bits
	0	0.258333	2.83256E-003	2.83256E-003	5.61499E-004	...........
	1	0.516667	2.82995E-003	2.69616E-003	5.65199E-004	...........
	2	0.775	2.81410E-003	2.57477E-003	5.64999E-004	...........
	3	1.03333	2.76986E-003	2.46295E-003	5.66032E-004	...........
	4	1.29167	2.69219E-003	2.36244E-003	5.68166E-004	...........
	5	1.55	2.59144E-003	2.26275E-003	5.65966E-004	...........
	6	1.80833	2.48273E-003	2.16710E-003	5.68932E-004	...........
	7	2.06667	2.37590E-003	2.07943E-003	5.61966E-004	...........
	8	2.325	2.27466E-003	1.99961E-003	5.64566E-004	...........
	9	2.58333	2.17977E-003	1.91810E-003	5.68999E-004	...........
	10	2.84167	2.09088E-003	1.84357E-003	5.66699E-004	...........
	11	3.1	2.00712E-003	1.77220E-003	5.62999E-004	...........
	12	3.35833	1.92764E-003	1.70244E-003	5.69099E-004	...........
	13	3.61667	1.85191E-003	1.63721E-003	5.71799E-004	...........
	14	3.875	1.77955E-003	1.57271E-003	5.63932E-004	...........
	15	4.13333	1.71018E-003	1.50863E-003	5.69232E-004	...........
	16	4.39167	1.64327E-003	1.44658E-003	5.60232E-004	...........
	17	4.65	1.57820E-003	1.38458E-003	5.63566E-004	...........
	18	4.90833	1.51449E-003	1.32411E-003	5.69599E-004	...........
EOC	QUANT	0.0015145	Open Circuit (V)
PSTATMODEL	IQUANT	4	Pstat Model
PSTATSECTION	LABEL	REF600-11020	Pstat Section
PSTATSERIALNO	LABEL	11020	Pstat Serial Number
CTRLMODE	IQUANT	1	Control Mode
IESTAB	IQUANT	0	I/E Stability
CASPEED	IQUANT	1	Control Amp Speed
CONVENTION	IQUANT	1	Current Convention
ICHRANGE	IQUANT	2	Ich Range
ICHRANGEMODE	TOGGLE	F	Ich Auto Range
ICHOFFSETENABLE	TOGGLE	T	Ich Offset Enable
ICHOFFSET	QUANT	0	Ich Offset (V)
ICHFILTER	IQUANT	3	Ich Filter
VCHRANGE	IQUANT	2	Vch Range
VCHRANGEMODE	TOGGLE	F	Vch Auto Range
VCHOFFSETENABLE	TOGGLE	T	Vch Offset Enable
VCHOFFSET	QUANT	0	Vch Offset (V)
VCHFILTER	IQUANT	3	Vch Filter
ACHRANGE	IQUANT	2	Ach Range
ACHOFFSETENABLE	TOGGLE	F	Ach Offset Enable
ACHOFFSET	QUANT	0	Ach Offset (V)
ACHFILTER	IQUANT	3	Ach Filter
IERANGELOWERLIMIT	IQUANT	1	I/E Range Lower Limit
IERANGEMODE	TOGGLE	F	I/E AutoRange
IERANGE	IQUANT	4	I/E Range
POSFEEDENABLE	TOGGLE	F	Positive Feedback IR Comp
POSFEEDRESISTANCE	QUANT	0	Positive Feedback Resistance (ohm)
ACHSELECT	IQUANT	0	Ach Select
CABLEID	IQUANT	14	Cable ID
DCCALDATE	LABEL	8/19/2019	DC Calibration Date
ACCALDATE	LABEL	8/19/2019	AC Calibration Date
THERMOSELECT	IQUANT	1	Thermo Select
FRAMEWORKVERSION	QUANT	6.33	Framework Version
INSTRUMENTVERSION	LABEL	3.50	Instrument Version
ZCURVE	TABLE
	Pt	Time	Freq	Zreal	Zimag	Zsig	Zmod	Zphz	Idc	Vdc	IERange
	#	s	Hz	ohm	ohm	V	ohm	°	A	V	#
	0	1	1000078	1927.052	-998.685	1	2170.461	-27.39521	9.187605E-006	0.0019755	8
	1	3	794390.6	2068.15	-982.11	1	2289.494	-25.40182	-1.124926E-005	0.0045266	8
	2	4	630984.4	2211.666	-967.531	1	2414.038	-23.62781	5.136196E-006	0.0026229	8
	3	5	501234.4	2351.75	-960.063	1	2540.167	-22.20692	-2.252049E-006	0.0035971	8
	4	7	398109.4	2499.766	-945.8721	1	2672.734	-20.72585	-4.609216E-006	0.0034585	8
	5	8	316265.6	2640.879	-940.3391	1	2803.298	-19.59932	-5.977948E-006	0.0039763	8
	6	9	251203.1	2789.389	-919.2975	1	2936.971	-18.24064	-6.456041E-007	0.0035019	8
	7	11	199546.9	2943.256	-905.4698	1	3079.388	-17.10011	-1.584709E-006	0.002845	8
	8	12	158578.1	3082.123	-874.1619	1	3203.691	-15.83457	-2.013712E-006	0.003208	8
	9	14	125953.1	3250.615	-779.3455	1	3342.735	-13.48236	-2.342705E-006	0.0066327	7
	10	15	100078.1	3385.221	-733.067	1	3463.685	-12.21869	1.083327E-007	0.0039135	7
	11	16	79453.13	3502.014	-674.5134	1	3566.381	-10.90208	1.033248E-006	0.0015718	7
	12	18	63140.62	3594.253	-617.0325	1	3646.833	-9.74113	-2.455811E-007	0.0043032	7
	13	19	50203.12	3671.495	-555.4504	1	3713.273	-8.602883	-8.424187E-007	0.0046499	7
	14	20	39890.62	3747.094	-502.7943	1	3780.677	-7.642439	9.972257E-007	0.0022697	7
	15	22	31640.63	3795.545	-454.7199	1	3822.687	-6.831679	8.312453E-007	0.0027375	7
	16	23	25171.88	3829.017	-416.0752	1	3851.556	-6.20164	6.850227E-008	0.0017496	7
	17	24	20015.62	3854.41	-394.8723	1	3874.584	-5.849367	-3.32668E-007	0.0022486	7
	18	26	15890.62	3894.099	-380.9785	1	3912.691	-5.58774	9.210294E-007	0.0013764	7
	19	27	12609.37	3905.901	-381.5721	1	3924.495	-5.579588	-1.190515E-006	0.0041102	7
	20	29	10078.13	3923.219	-390.9155	1	3942.646	-5.690257	-1.191115E-006	0.0041104	7
	21	30	8015.625	3954.618	-425.5412	1	3977.448	-6.141746	7.170891E-007	0.0013168	7
	22	31	6328.125	3978.249	-477.3702	1	4006.788	-6.842494	4.260494E-007	0.0014361	7
	23	33	5015.625	3997.097	-544.2616	1	4033.981	-7.753949	-1.049467E-006	0.0046002	7
	24	34	3984.375	4026.448	-630.8003	1	4075.561	-8.903824	1.104221E-007	0.0038962	7
	25	35	3170.956	4057.416	-743.3384	1	4124.946	-10.38174	7.163812E-007	0.001312	7
	26	37	2527.573	4088.892	-882.2361	1	4182.987	-12.17572	4.260214E-007	0.0014348	7
	27	38	1976.103	4123.819	-1071.184	1	4260.671	-14.56108	-1.189278E-006	0.0044596	7
	28	39	1577.524	4173.215	-1297.84	1	4370.368	-17.27531	6.297538E-007	0.0031329	7
	29	41	1265.625	4225.231	-1553.536	1	4501.783	-20.18749	-2.44406E-007	0.0042917	7
	30	42	998.264	4281.618	-1898.834	1	4683.783	-23.91658	-7.334688E-007	0.0029046	7
	31	44	796.875	4371.611	-2319.199	1	4948.704	-27.94656	6.333183E-007	0.0031333	7
	32	45	627.7902	4460.535	-2851.822	1	5294.267	-32.59262	-5.671198E-007	0.0045399	7
	33	46	505.5147	4568.231	-3454.995	1	5727.628	-37.10055	7.17747E-007	0.0013142	7
	34	48	397.9953	4713.564	-4268.286	1	6358.927	-42.16187	4.692812E-009	0.0030286	7
	35	49	315.5048	4892.049	-5248.416	1	7174.817	-47.01272	2.893641E-009	0.0030329	7
	36	50	252.4038	5108.494	-6405.353	1	8193	-51.42641	5.109048E-009	0.0030253	7
	37	52	198.6229	5408.616	-7933.467	1	9601.72	-55.71591	6.703581E-009	0.0030324	7
	38	53	158.3615	5775.622	-9710.15	1	11298	-59.25571	9.510902E-010	0.0029756	6
	39	55	125.558	6266.827	-11942.76	1	13487.13	-62.31227	1.188294E-009	0.0029714	6
	40	56	100.4464	6886.654	-14562.58	1	16108.84	-64.6905	1.062543E-009	0.0029714	6
	41	57	79.00281	7726.182	-18001.69	1	19589.66	-66.77137	-7.48938E-011	0.0029766	6
	42	59	63.3446	8662.025	-21783.3	1	23442.33	-68.31499	7.780158E-010	0.0029714	6
	43	60	49.86702	10419.18	-26791.15	1	28745.87	-68.74876	1.641301E-009	0.0029726	6
	44	62	39.72458	12250.32	-32578.03	1	34805.15	-69.39223	1.270944E-009	0.0029834	6
	45	63	31.6723	14802.86	-39438.69	1	42125.23	-69.42696	3.204315E-010	0.0029685	6
	46	64	24.93351	18264.92	-47936.23	1	51298.04	-69.14188	2.332347E-010	0.0029734	6
	47	66	19.86229	22619.41	-57475.72	1	61766.46	-68.51802	-2.194809E-010	0.0029698	6
	48	67	15.83615	28274.85	-68135.8	1	73769.61	-67.46263	4.185482E-010	0.0029765	6
	49	68	12.40079	35795.02	-81791.57	1	89281.27	-66.36404	1.085533E-009	0.002964	6
	50	70	9.93114	44829.06	-95917.6	1	105876.5	-64.94999	1.371677E-009	0.0029604	5
	51	72	7.944915	55565.79	-111774.2	1	124824	-63.56687	-5.900492E-010	0.0029648	5
	52	73	6.317385	68614.95	-129280.5	1	146360.7	-62.04311	7.008031E-010	0.0029604	5
	53	75	5.008013	84402.56	-149024.5	1	171266.1	-60.47421	3.323082E-010	0.0029879	5
	54	78	3.945707	103035.2	-171194.1	1	199809.1	-58.95787	-3.167202E-010	0.0029703	5
	55	80	3.158693	122583.1	-193713.3	1	229241.1	-57.67408	5.209927E-010	0.002989	5
	56	84	2.504006	145190.4	-219884.4	1	263494.6	-56.56309	-5.249916E-010	0.0029761	5
	57	87	1.998082	168685.1	-247573.4	1	299578.5	-55.73129	-7.322934E-011	0.0029381	5
	58	90	1.584686	193874.3	-279413.4	1	340086.9	-55.24469	2.04545E-011	0.0030075	5
	59	93	1.266892	219646.3	-316985.3	1	385647.7	-55.28103	-1.108634E-010	0.0029538	5
	60	98	0.999041	248495.1	-363515.2	1	440333	-55.64391	3.632277E-010	0.0030019	5
