EXPLAIN
TAG	EISPOT
TITLE	LABEL	Potentiostatic EIS	Test &Identifier
DATE	LABEL	11/22/2019	Date
TIME	LABEL	0:20:02	Time
NOTES	NOTES	4	&Notes...
	
	
	
	
PSTAT	PSTAT	REF600-11020	Potentiostat
VDC	POTEN	0.00000E+000	T	DC &Voltage (V)
FREQINIT	QUANT	1.00000E+006	Initial Fre&q. (Hz)
FREQFINAL	QUANT	1.00000E+000	Final Fre&q. (Hz)
PTSPERDEC	QUANT	1.00000E+001	Points/&decade
VAC	QUANT	2.50000E+001	AC &Voltage (mV rms)
AREA	QUANT	1.00000E-002	&Area (cm^2)
CONDIT	TWOPARAM	T	5.00000E+000	0.00000E+000	Conditionin&g	Time(s)	E(V)
DELAY	TWOPARAM	T	5.00000E+000	0.00000E+000	Init. De&lay	Time(s)	Stab.(mV/s)
SPEED	SELECTOR	1	&Optimize for:
ZGUESS	QUANT	1.00000E+005	E&stimated Z (ohms)
OCVCURVE	TABLE	19
	Pt	T	Vf	Vm	Ach	Over
	#	s	V vs. Ref.	V	V	bits
	0	0.258333	4.06029E-003	4.06029E-003	5.41799E-004	...........
	1	0.516667	4.05772E-003	3.92583E-003	5.43699E-004	...........
	2	0.775	4.04221E-003	3.81208E-003	5.37433E-004	...........
	3	1.03333	3.99938E-003	3.71216E-003	5.52466E-004	...........
	4	1.29167	3.92537E-003	3.62550E-003	5.47833E-004	...........
	5	1.55	3.83163E-003	3.54922E-003	5.51133E-004	...........
	6	1.80833	3.73397E-003	3.47603E-003	5.48533E-004	...........
	7	2.06667	3.64258E-003	3.41562E-003	5.38833E-004	...........
	8	2.325	3.56076E-003	3.35500E-003	5.42799E-004	...........
	9	2.58333	3.48804E-003	3.30187E-003	5.40933E-004	...........
	10	2.84167	3.42280E-003	3.25431E-003	5.42666E-004	...........
	11	3.1	3.36361E-003	3.20708E-003	5.39966E-004	...........
	12	3.35833	3.30942E-003	3.16124E-003	5.41133E-004	...........
	13	3.61667	3.25920E-003	3.12287E-003	5.43766E-004	...........
	14	3.875	3.21216E-003	3.08050E-003	5.47633E-004	...........
	15	4.13333	3.16792E-003	3.04854E-003	5.43966E-004	...........
	16	4.39167	3.12632E-003	3.00873E-003	5.41799E-004	...........
	17	4.65	3.08716E-003	2.97926E-003	5.49299E-004	...........
	18	4.90833	3.05002E-003	2.94063E-003	5.51266E-004	...........
EOC	QUANT	0.00305	Open Circuit (V)
PSTATMODEL	IQUANT	4	Pstat Model
PSTATSECTION	LABEL	REF600-11020	Pstat Section
PSTATSERIALNO	LABEL	11020	Pstat Serial Number
CTRLMODE	IQUANT	1	Control Mode
IESTAB	IQUANT	0	I/E Stability
CASPEED	IQUANT	1	Control Amp Speed
CONVENTION	IQUANT	1	Current Convention
ICHRANGE	IQUANT	2	Ich Range
ICHRANGEMODE	TOGGLE	F	Ich Auto Range
ICHOFFSETENABLE	TOGGLE	T	Ich Offset Enable
ICHOFFSET	QUANT	0	Ich Offset (V)
ICHFILTER	IQUANT	3	Ich Filter
VCHRANGE	IQUANT	2	Vch Range
VCHRANGEMODE	TOGGLE	F	Vch Auto Range
VCHOFFSETENABLE	TOGGLE	T	Vch Offset Enable
VCHOFFSET	QUANT	0	Vch Offset (V)
VCHFILTER	IQUANT	3	Vch Filter
ACHRANGE	IQUANT	2	Ach Range
ACHOFFSETENABLE	TOGGLE	F	Ach Offset Enable
ACHOFFSET	QUANT	0	Ach Offset (V)
ACHFILTER	IQUANT	3	Ach Filter
IERANGELOWERLIMIT	IQUANT	1	I/E Range Lower Limit
IERANGEMODE	TOGGLE	F	I/E AutoRange
IERANGE	IQUANT	4	I/E Range
POSFEEDENABLE	TOGGLE	F	Positive Feedback IR Comp
POSFEEDRESISTANCE	QUANT	0	Positive Feedback Resistance (ohm)
ACHSELECT	IQUANT	0	Ach Select
CABLEID	IQUANT	14	Cable ID
DCCALDATE	LABEL	8/19/2019	DC Calibration Date
ACCALDATE	LABEL	8/19/2019	AC Calibration Date
THERMOSELECT	IQUANT	1	Thermo Select
FRAMEWORKVERSION	QUANT	6.33	Framework Version
INSTRUMENTVERSION	LABEL	3.50	Instrument Version
ZCURVE	TABLE
	Pt	Time	Freq	Zreal	Zimag	Zsig	Zmod	Zphz	Idc	Vdc	IERange
	#	s	Hz	ohm	ohm	V	ohm	°	A	V	#
	0	1	1000078	2167.624	-1639.921	1	2718.075	-37.10941	-3.436478E-006	0.0056897	8
	1	3	794390.6	2499.821	-1602.812	1	2969.53	-32.66681	-7.991094E-007	0.0045304	8
	2	4	630984.4	2814.474	-1512.368	1	3195.078	-28.25153	1.428169E-007	0.0043283	8
	3	6	501234.4	3067.765	-1394.858	1	3369.986	-24.45044	-1.430783E-006	0.0050476	8
	4	7	398109.4	3281.83	-1252.287	1	3512.639	-20.88595	-1.114098E-007	0.0042676	8
	5	8	316265.6	3481.064	-1110.439	1	3653.885	-17.69237	-2.687876E-006	0.0050786	8
	6	10	251203.1	3610.496	-960.977	1	3736.196	-14.90442	1.962185E-006	0.0041216	8
	7	11	199546.9	3722.053	-840.319	1	3815.732	-12.72224	-2.67648E-006	0.0050677	8
	8	12	158578.1	3843.08	-731.918	1	3912.156	-10.7829	-6.048194E-007	0.004277	8
	9	14	125953.1	3910.308	-598.5101	1	3955.847	-8.702131	-4.971952E-007	0.0026109	7
	10	15	100078.1	3962.304	-531.5121	1	3997.794	-7.640172	7.888817E-007	0.0027168	7
	11	16	79453.13	4006.028	-483.3453	1	4035.081	-6.879739	1.12016E-007	0.0031306	7
	12	18	63140.62	4044.192	-448.5392	1	4068.989	-6.328779	-3.209398E-007	0.003655	7
	13	19	50203.12	4077.577	-423.3388	1	4099.494	-5.927279	-9.093778E-007	0.0062188	7
	14	20	39890.62	4109.307	-411.1108	1	4129.82	-5.713079	-1.245442E-006	0.0059934	7
	15	22	31640.63	4143.353	-408.1417	1	4163.407	-5.625782	-1.243623E-006	0.0056254	7
	16	23	25171.88	4179.62	-418.4354	1	4200.513	-5.717019	4.031338E-007	0.0050394	7
	17	24	20015.62	4200.798	-431.3614	1	4222.888	-5.862901	-9.081167E-007	0.0062204	7
	18	26	15890.62	4250.302	-471.4498	1	4276.369	-6.32946	1.040297E-006	0.0037643	7
	19	27	12609.37	4278.019	-515.8751	1	4309.01	-6.875949	-2.886417E-007	0.0058788	7
	20	28	10078.13	4312.808	-579.3619	1	4351.548	-7.651035	8.599164E-007	0.0042591	7
	21	30	8015.625	4347.303	-654.826	1	4396.344	-8.565959	-1.246646E-006	0.0059834	7
	22	31	6328.125	4390.798	-759.3757	1	4455.98	-9.81208	-1.072195E-006	0.0050403	7
	23	32	5015.625	4442.271	-888.3074	1	4530.217	-11.30811	4.90913E-007	0.0028029	7
	24	34	3984.375	4492.792	-1045.703	1	4612.881	-13.10239	4.062296E-007	0.0050308	7
	25	35	3170.956	4549.171	-1241.768	1	4715.607	-15.26783	4.915443E-007	0.0028014	7
	26	36	2527.573	4614.956	-1480.287	1	4846.552	-17.78409	7.91382E-007	0.0026897	7
	27	38	1976.103	4689.203	-1800.276	1	5022.909	-21.00277	-2.887777E-007	0.0058622	7
	28	39	1577.524	4722.178	-2124.344	1	5178.012	-24.22133	1.041486E-006	0.003755	7
	29	41	1265.625	4876.544	-2591.879	1	5522.546	-27.9906	7.855053E-008	0.0054736	7
	30	42	998.264	4999.336	-3163.404	1	5916.121	-32.32419	-3.198603E-007	0.0036432	7
	31	43	796.875	5140.573	-3825.096	1	6407.563	-36.6529	-1.242101E-006	0.0056145	7
	32	45	627.7902	5314.218	-4705.137	1	7097.833	-41.52124	1.110045E-006	0.0030013	7
	33	46	505.5147	5501.743	-5664.658	1	7896.678	-45.83587	6.342033E-007	0.0046987	7
	34	48	397.9953	5756.818	-6967.681	1	9038.227	-50.43589	3.312679E-009	0.0045337	7
	35	49	315.5048	6059.693	-8537.291	1	10469.25	-54.63321	7.160935E-010	0.0044616	6
	36	50	252.4038	6412.683	-10394.2	1	12213.18	-58.32756	9.757971E-010	0.0044693	6
	37	52	198.6229	6886.25	-12850.42	1	14579.22	-61.81414	1.196567E-009	0.0044599	6
	38	53	158.3615	7455.823	-15710.5	1	17389.91	-64.61211	1.108525E-009	0.0044632	6
	39	54	125.558	8202.053	-19316.76	1	20985.97	-66.99353	8.854665E-010	0.0044608	6
	40	56	100.4464	9118.451	-23531.52	1	25236.45	-68.81867	1.083715E-009	0.004453	6
	41	57	79.00281	10440.37	-29198.83	1	31009.24	-70.32492	6.805644E-011	0.0044575	6
	42	58	63.3446	12292.91	-35564.15	1	37628.77	-70.93205	3.004287E-010	0.0044528	6
	43	60	49.86702	14122.2	-43708.79	1	45933.59	-72.09449	-1.12047E-010	0.004454	6
	44	61	39.72458	17302.73	-53090.39	1	55838.82	-71.94865	1.047674E-009	0.0044527	6
	45	63	31.6723	20918.32	-64530.98	1	67836.74	-72.03941	-8.09586E-011	0.0044541	6
	46	64	24.93351	26537.32	-78766.87	1	83117.08	-71.38083	9.70431E-010	0.004456	6
	47	65	19.86229	33415.45	-94886.36	1	100598.3	-70.59963	1.329912E-009	0.004455	6
	48	67	15.83615	42641.52	-114219.7	1	121919.8	-69.52795	-7.680183E-010	0.0044656	5
	49	68	12.40079	54361.17	-137535.8	1	147889.2	-68.43353	2.009351E-010	0.0044691	5
	50	70	9.93114	69756.23	-161563.1	1	175978.8	-66.64732	-1.353667E-010	0.004472	5
	51	71	7.944915	89150.59	-189382.5	1	209316.9	-64.7916	5.913826E-010	0.0044567	5
	52	73	6.317385	112392	-219414.1	1	246524.9	-62.87681	3.095318E-010	0.0044763	5
	53	75	5.008013	141680.9	-252493.2	1	289527.7	-60.70201	5.581186E-010	0.004478	5
	54	77	3.945707	176769.8	-288839.3	1	338638	-58.53334	4.28964E-011	0.0044588	5
	55	80	3.158693	213756.1	-323914.3	1	388087.8	-56.57855	4.367701E-010	0.0044761	5
	56	83	2.504006	256622.6	-363366.1	1	444848.4	-54.76884	-2.718904E-010	0.0044523	5
	57	86	1.998082	301225	-402897.3	1	503053.4	-53.21648	-5.87615E-011	0.0044278	5
	58	89	1.584686	348037.1	-447463.5	1	566880.4	-52.12423	-3.11868E-011	0.0044718	5
	59	93	1.266892	397295.7	-497431	1	636617.2	-51.38581	4.745849E-011	0.0044113	5
	60	97	0.999041	450442.8	-558161.8	1	717247.1	-51.09608	1.622406E-010	0.004502	5
