EXPLAIN
TAG	EISPOT
TITLE	LABEL	Potentiostatic EIS	Test &Identifier
DATE	LABEL	10/6/2019	Date
TIME	LABEL	10:47:04	Time
NOTES	NOTES	2	&Notes...
	
	
PSTAT	PSTAT	REF600-11020	Potentiostat
VDC	POTEN	0.00000E+000	T	DC &Voltage (V)
FREQINIT	QUANT	1.00000E+006	Initial Fre&q. (Hz)
FREQFINAL	QUANT	1.00000E+000	Final Fre&q. (Hz)
PTSPERDEC	QUANT	1.00000E+001	Points/&decade
VAC	QUANT	2.50000E+001	AC &Voltage (mV rms)
AREA	QUANT	1.00000E-002	&Area (cm^2)
CONDIT	TWOPARAM	T	5.00000E+000	0.00000E+000	Conditionin&g	Time(s)	E(V)
DELAY	TWOPARAM	T	5.00000E+000	0.00000E+000	Init. De&lay	Time(s)	Stab.(mV/s)
SPEED	SELECTOR	1	&Optimize for:
ZGUESS	QUANT	1.00000E+004	E&stimated Z (ohms)
OCVCURVE	TABLE	19
	Pt	T	Vf	Vm	Ach	Over
	#	s	V vs. Ref.	V	V	bits
	0	0.258333	5.99058E-003	5.99058E-003	5.40233E-004	...........
	1	0.516667	5.99098E-003	6.01138E-003	5.43499E-004	...........
	2	0.775	5.99358E-003	6.03940E-003	5.43466E-004	...........
	3	1.03333	6.00164E-003	6.07580E-003	5.43899E-004	...........
	4	1.29167	6.01779E-003	6.10673E-003	5.38666E-004	...........
	5	1.55	6.04206E-003	6.14548E-003	5.46433E-004	...........
	6	1.80833	6.07237E-003	6.18419E-003	5.43066E-004	...........
	7	2.06667	6.10662E-003	6.22617E-003	5.44833E-004	...........
	8	2.325	6.14381E-003	6.27959E-003	5.41366E-004	...........
	9	2.58333	6.18414E-003	6.32800E-003	5.46833E-004	...........
	10	2.84167	6.22796E-003	6.37272E-003	5.43933E-004	...........
	11	3.1	6.27440E-003	6.41723E-003	5.40199E-004	...........
	12	3.35833	6.32163E-003	6.46428E-003	5.38399E-004	...........
	13	3.61667	6.36832E-003	6.50623E-003	5.39533E-004	...........
	14	3.875	6.41409E-003	6.54968E-003	5.39166E-004	...........
	15	4.13333	6.45968E-003	6.63255E-003	5.35299E-004	...........
	16	4.39167	6.50661E-003	6.62344E-003	5.42266E-004	...........
	17	4.65	6.55422E-003	6.69782E-003	5.42166E-004	...........
	18	4.90833	6.59960E-003	6.71831E-003	5.40766E-004	...........
EOC	QUANT	0.0065996	Open Circuit (V)
PSTATMODEL	IQUANT	4	Pstat Model
PSTATSECTION	LABEL	REF600-11020	Pstat Section
PSTATSERIALNO	LABEL	11020	Pstat Serial Number
CTRLMODE	IQUANT	1	Control Mode
IESTAB	IQUANT	0	I/E Stability
CASPEED	IQUANT	1	Control Amp Speed
CONVENTION	IQUANT	1	Current Convention
ICHRANGE	IQUANT	2	Ich Range
ICHRANGEMODE	TOGGLE	F	Ich Auto Range
ICHOFFSETENABLE	TOGGLE	T	Ich Offset Enable
ICHOFFSET	QUANT	0	Ich Offset (V)
ICHFILTER	IQUANT	3	Ich Filter
VCHRANGE	IQUANT	2	Vch Range
VCHRANGEMODE	TOGGLE	F	Vch Auto Range
VCHOFFSETENABLE	TOGGLE	T	Vch Offset Enable
VCHOFFSET	QUANT	0	Vch Offset (V)
VCHFILTER	IQUANT	3	Vch Filter
ACHRANGE	IQUANT	2	Ach Range
ACHOFFSETENABLE	TOGGLE	F	Ach Offset Enable
ACHOFFSET	QUANT	0	Ach Offset (V)
ACHFILTER	IQUANT	3	Ach Filter
IERANGELOWERLIMIT	IQUANT	1	I/E Range Lower Limit
IERANGEMODE	TOGGLE	F	I/E AutoRange
IERANGE	IQUANT	6	I/E Range
POSFEEDENABLE	TOGGLE	F	Positive Feedback IR Comp
POSFEEDRESISTANCE	QUANT	0	Positive Feedback Resistance (ohm)
ACHSELECT	IQUANT	0	Ach Select
CABLEID	IQUANT	14	Cable ID
DCCALDATE	LABEL	8/19/2019	DC Calibration Date
ACCALDATE	LABEL	8/19/2019	AC Calibration Date
THERMOSELECT	IQUANT	1	Thermo Select
FRAMEWORKVERSION	QUANT	6.33	Framework Version
INSTRUMENTVERSION	LABEL	3.50	Instrument Version
ZCURVE	TABLE
	Pt	Time	Freq	Zreal	Zimag	Zsig	Zmod	Zphz	Idc	Vdc	IERange
	#	s	Hz	ohm	ohm	V	ohm	°	A	V	#
	0	2	1000078	2283.374	-1604.32	1	2790.634	-35.09225	-4.391426E-006	0.0097282	8
	1	3	794390.6	2601.095	-1554.545	1	3030.232	-30.86466	-1.3872E-006	0.0091079	8
	2	5	630984.4	2884.245	-1452.27	1	3229.235	-26.72608	5.913959E-006	0.0071218	8
	3	6	501234.4	3139.398	-1323.272	1	3406.885	-22.85567	-1.651317E-007	0.0079686	8
	4	7	398109.4	3336.929	-1180.084	1	3539.448	-19.47583	-2.302535E-006	0.0087697	8
	5	9	316265.6	3503.891	-1025.375	1	3650.842	-16.31153	1.038451E-006	0.0080868	8
	6	10	251203.1	3626.796	-881.7275	1	3732.438	-13.66435	8.168205E-007	0.0080836	8
	7	12	199546.9	3716.73	-754.7141	1	3792.581	-11.47834	-4.328777E-007	0.0081158	8
	8	13	158578.1	3794.339	-664.7799	1	3852.134	-9.93754	-4.476175E-006	0.0089134	8
	9	14	125953.1	3859.462	-524.2905	1	3894.911	-7.736018	-8.047541E-007	0.0098119	7
	10	16	100078.1	3906.743	-460.2799	1	3933.764	-6.719428	4.384269E-008	0.0080165	7
	11	17	79453.13	3941.44	-417.4832	1	3963.489	-6.04631	4.680872E-008	0.0079137	7
	12	18	63140.62	3973.056	-385.119	1	3991.677	-5.536537	-3.021117E-008	0.0080546	7
	13	20	50203.12	4003.135	-362.7646	1	4019.538	-5.178008	-6.891644E-008	0.0081789	7
	14	21	39890.62	4030.982	-351.2758	1	4046.259	-4.9804	-6.821167E-008	0.0081809	7
	15	23	31640.63	4060.145	-349.7079	1	4075.178	-4.922844	-1.090541E-008	0.0080381	7
	16	24	25171.88	4088.762	-356.618	1	4104.284	-4.984671	1.066466E-007	0.0079575	7
	17	25	20015.62	4114.007	-370.8822	1	4130.691	-5.15135	1.254819E-007	0.0078687	7
	18	27	15890.62	4148.14	-397.2361	1	4167.116	-5.470105	1.481845E-008	0.0081435	7
	19	28	12609.37	4176.885	-435.4282	1	4199.52	-5.951422	-2.895787E-008	0.0080461	7
	20	29	10078.13	4210.02	-478.9171	1	4237.172	-6.489868	-5.798839E-008	0.0081237	7
	21	31	8015.625	4248.03	-537.3073	1	4281.876	-7.208712	1.075873E-007	0.007952	7
	22	32	6328.125	4282.044	-616.1271	1	4326.144	-8.187875	-8.108839E-008	0.0082947	7
	23	33	5015.625	4319.979	-713.056	1	4378.432	-9.372736	1.085577E-007	0.0079549	7
	24	35	3984.375	4361.228	-840.9707	1	4441.569	-10.91432	-8.118528E-008	0.0082942	7
	25	36	3170.956	4402.078	-984.688	1	4510.865	-12.60877	4.357393E-008	0.0080013	7
	26	37	2527.573	4446.266	-1172.132	1	4598.171	-14.76841	-8.286679E-008	0.0081614	7
	27	39	1976.103	4503.08	-1424.735	1	4723.092	-17.55692	1.518408E-008	0.0081403	7
	28	40	1577.524	4560.127	-1716.359	1	4872.438	-20.62554	-4.843708E-008	0.0081606	7
	29	41	1265.625	4626.05	-2066.039	1	5066.444	-24.066	-5.625689E-008	0.0081177	7
	30	43	998.264	4711.293	-2536.507	1	5350.715	-28.29752	7.19636E-009	0.0080344	7
	31	44	796.875	4810.772	-3084.616	1	5714.751	-32.66756	4.618988E-008	0.008005	7
	32	45	627.7902	4937.145	-3807.227	1	6234.611	-37.63724	1.275583E-007	0.0078652	7
	33	47	505.5147	5072.428	-4593.86	1	6843.47	-42.16566	-3.798682E-009	0.0079979	7
	34	48	397.9953	5273.524	-5704.98	1	7768.968	-47.25057	5.090483E-009	0.0080756	7
	35	49	315.5048	5513.373	-7018.888	1	8925.361	-51.85019	4.76793E-009	0.0080746	7
	36	51	252.4038	5807.734	-8566.585	1	10349.69	-55.86461	5.661574E-010	0.0080133	6
	37	52	198.6229	6208.872	-10613.02	1	12295.78	-59.67134	8.675821E-010	0.0080138	6
	38	54	158.3615	6700.514	-12988.92	1	14615.36	-62.71242	5.301015E-010	0.0080157	6
	39	55	125.558	7351.108	-15972.97	1	17583.36	-65.28709	1.072827E-009	0.0080151	6
	40	56	100.4464	8164.745	-19472.19	1	21114.67	-67.25156	2.043773E-010	0.0080106	6
	41	58	79.00281	9333.399	-24073.26	1	25819.26	-68.80828	2.352793E-010	0.0080093	6
	42	59	63.3446	10830.56	-29016.53	1	30971.92	-69.53166	9.195726E-010	0.008004	6
	43	60	49.86702	12777.61	-35984.75	1	38185.98	-70.45086	8.172914E-011	0.0080057	6
	44	62	39.72458	15206.86	-43527.59	1	46107.48	-70.74255	9.03319E-010	0.0080123	6
	45	63	31.6723	18500.95	-52640.34	1	55796.86	-70.63549	1.03838E-009	0.0080068	6
	46	64	24.93351	22941.02	-63982.39	1	67970.85	-70.2746	1.080215E-009	0.0080028	6
	47	66	19.86229	28425.72	-76793.3	1	81885.49	-69.68752	1.416564E-009	0.0080128	6
	48	67	15.83615	35359.32	-91546.8	1	98138.2	-68.88129	6.929187E-010	0.0080011	6
	49	69	12.40079	44851.93	-110286.8	1	119058.3	-67.86919	8.793485E-010	0.0080092	5
	50	70	9.93114	56209.46	-130026.6	1	141656	-66.62155	9.328773E-010	0.0080086	5
	51	72	7.944915	69997.78	-152219.9	1	167542.8	-65.30482	-6.396327E-010	0.0080135	5
	52	73	6.317385	87585.54	-178164.7	1	198529.3	-63.82132	-1.63684E-010	0.0080092	5
	53	75	5.008013	109245.2	-207293.4	1	234318.3	-62.21042	-2.648837E-010	0.0080047	5
	54	78	3.945707	135848.9	-239702.1	1	275521.3	-60.45802	4.648072E-010	0.0080194	5
	55	80	3.158693	165366.9	-272920.5	1	319110.9	-58.78766	-1.942785E-010	0.0080083	5
	56	84	2.504006	200093.1	-310240.9	1	369170.3	-57.17959	5.204217E-010	0.0080098	5
	57	86	1.998082	237325.3	-348252.9	1	421430.2	-55.7266	-8.112466E-011	0.0080582	5
	58	89	1.584686	278242.4	-392013	1	480721.3	-54.63369	2.458193E-010	0.0080448	5
	59	93	1.266892	320937.1	-437129.1	1	542293.7	-53.71415	-1.088807E-010	0.0080562	5
	60	97	0.999041	366871.3	-493693	1	615083.1	-53.38336	2.083056E-010	0.0079972	5
