EXPLAIN
TAG	EISPOT
TITLE	LABEL	Potentiostatic EIS	Test &Identifier
DATE	LABEL	11/20/2019	Date
TIME	LABEL	11:05:06	Time
NOTES	NOTES	4	&Notes...
	
	
	
	
PSTAT	PSTAT	REF600-11020	Potentiostat
VDC	POTEN	0.00000E+000	T	DC &Voltage (V)
FREQINIT	QUANT	1.00000E+006	Initial Fre&q. (Hz)
FREQFINAL	QUANT	1.00000E+000	Final Fre&q. (Hz)
PTSPERDEC	QUANT	1.00000E+001	Points/&decade
VAC	QUANT	2.50000E+001	AC &Voltage (mV rms)
AREA	QUANT	1.00000E-002	&Area (cm^2)
CONDIT	TWOPARAM	T	5.00000E+000	0.00000E+000	Conditionin&g	Time(s)	E(V)
DELAY	TWOPARAM	T	5.00000E+000	0.00000E+000	Init. De&lay	Time(s)	Stab.(mV/s)
SPEED	SELECTOR	1	&Optimize for:
ZGUESS	QUANT	1.00000E+005	E&stimated Z (ohms)
OCVCURVE	TABLE	19
	Pt	T	Vf	Vm	Ach	Over
	#	s	V vs. Ref.	V	V	bits
	0	0.258333	4.51228E-003	4.51228E-003	5.47666E-004	...........
	1	0.516667	4.51230E-003	4.51334E-003	5.50533E-004	...........
	2	0.775	4.50826E-003	4.29648E-003	5.49699E-004	...........
	3	1.03333	4.48319E-003	4.09832E-003	5.49699E-004	...........
	4	1.29167	4.40726E-003	3.63939E-003	5.48866E-004	...........
	5	1.55	4.26094E-003	3.79155E-003	5.56466E-004	...........
	6	1.80833	4.07291E-003	3.86772E-003	5.55666E-004	...........
	7	2.06667	3.91594E-003	3.87517E-003	5.53099E-004	...........
	8	2.325	3.84120E-003	3.96282E-003	5.57532E-004	...........
	9	2.58333	3.84201E-003	4.02704E-003	5.51232E-004	...........
	10	2.84167	3.88162E-003	3.84449E-003	5.53666E-004	...........
	11	3.1	3.91842E-003	3.82600E-003	5.50733E-004	...........
	12	3.35833	3.91979E-003	3.68648E-003	5.50133E-004	...........
	13	3.61667	3.88306E-003	3.90505E-003	5.48266E-004	...........
	14	3.875	3.84009E-003	3.91843E-003	5.45366E-004	...........
	15	4.13333	3.82536E-003	3.81483E-003	5.46933E-004	...........
	16	4.39167	3.83547E-003	3.73526E-003	5.50333E-004	...........
	17	4.65	3.83635E-003	3.67077E-003	5.49633E-004	...........
	18	4.90833	3.80660E-003	3.62890E-003	5.53499E-004	...........
EOC	QUANT	0.0038066	Open Circuit (V)
PSTATMODEL	IQUANT	4	Pstat Model
PSTATSECTION	LABEL	REF600-11020	Pstat Section
PSTATSERIALNO	LABEL	11020	Pstat Serial Number
CTRLMODE	IQUANT	1	Control Mode
IESTAB	IQUANT	0	I/E Stability
CASPEED	IQUANT	1	Control Amp Speed
CONVENTION	IQUANT	1	Current Convention
ICHRANGE	IQUANT	2	Ich Range
ICHRANGEMODE	TOGGLE	F	Ich Auto Range
ICHOFFSETENABLE	TOGGLE	T	Ich Offset Enable
ICHOFFSET	QUANT	0	Ich Offset (V)
ICHFILTER	IQUANT	3	Ich Filter
VCHRANGE	IQUANT	2	Vch Range
VCHRANGEMODE	TOGGLE	F	Vch Auto Range
VCHOFFSETENABLE	TOGGLE	T	Vch Offset Enable
VCHOFFSET	QUANT	0	Vch Offset (V)
VCHFILTER	IQUANT	3	Vch Filter
ACHRANGE	IQUANT	2	Ach Range
ACHOFFSETENABLE	TOGGLE	F	Ach Offset Enable
ACHOFFSET	QUANT	0	Ach Offset (V)
ACHFILTER	IQUANT	3	Ach Filter
IERANGELOWERLIMIT	IQUANT	1	I/E Range Lower Limit
IERANGEMODE	TOGGLE	F	I/E AutoRange
IERANGE	IQUANT	4	I/E Range
POSFEEDENABLE	TOGGLE	F	Positive Feedback IR Comp
POSFEEDRESISTANCE	QUANT	0	Positive Feedback Resistance (ohm)
ACHSELECT	IQUANT	0	Ach Select
CABLEID	IQUANT	14	Cable ID
DCCALDATE	LABEL	8/19/2019	DC Calibration Date
ACCALDATE	LABEL	8/19/2019	AC Calibration Date
THERMOSELECT	IQUANT	1	Thermo Select
FRAMEWORKVERSION	QUANT	6.33	Framework Version
INSTRUMENTVERSION	LABEL	3.50	Instrument Version
ZCURVE	TABLE
	Pt	Time	Freq	Zreal	Zimag	Zsig	Zmod	Zphz	Idc	Vdc	IERange
	#	s	Hz	ohm	ohm	V	ohm	°	A	V	#
	0	2	1000078	2235.833	-2067.767	1	3045.425	-42.76359	-5.46668E-008	0.0063892	8
	1	3	794390.6	2688.824	-2103.888	1	3414.106	-38.04165	-5.407278E-006	0.0059962	8
	2	5	630984.4	3123.175	-2030.721	1	3725.325	-33.03234	1.168966E-006	0.0051203	8
	3	6	501234.4	3500.156	-1906.548	1	3985.727	-28.5773	5.616522E-006	0.0046637	8
	4	7	398109.4	3853.954	-1736.645	1	4227.162	-24.25699	1.725762E-007	0.0056741	8
	5	9	316265.6	4109.434	-1538.937	1	4388.14	-20.53036	1.653638E-006	0.0055773	8
	6	10	251203.1	4319.104	-1348.678	1	4524.776	-17.34143	-9.002883E-008	0.00503	8
	7	11	199546.9	4482.615	-1181.625	1	4635.739	-14.76734	-4.104675E-006	0.0056289	8
	8	13	158578.1	4596.201	-1037.976	1	4711.949	-12.72583	-4.742262E-007	0.0050402	8
	9	14	125953.1	4729.882	-851.3777	1	4805.896	-10.20396	3.5784E-006	0.0009555	7
	10	15	100078.1	4798.395	-757.5938	1	4857.833	-8.972075	-9.869947E-007	0.0057529	7
	11	17	79453.13	4861.978	-690.2789	1	4910.734	-8.08056	-2.841692E-007	0.0044516	7
	12	18	63140.62	4919.298	-639.837	1	4960.734	-7.410672	5.489106E-008	0.0061928	7
	13	19	50203.12	4972.408	-605.9141	1	5009.188	-6.94754	-8.572364E-007	0.0068574	7
	14	21	39890.62	5025.802	-592.6951	1	5060.629	-6.725852	5.539268E-008	0.0061844	7
	15	22	31640.63	5075.203	-587.9672	1	5109.148	-6.608312	-6.850582E-007	0.0050994	7
	16	23	25171.88	5127.622	-599.2874	1	5162.524	-6.666163	7.50128E-007	0.0035671	7
	17	25	20015.62	5182.128	-627.5586	1	5219.988	-6.904928	-9.872354E-007	0.0057359	7
	18	26	15890.62	5240.954	-662.6326	1	5282.677	-7.205877	9.398335E-007	0.0036566	7
	19	28	12609.37	5302.12	-716.9127	1	5350.368	-7.700403	9.407727E-007	0.0036594	7
	20	29	10078.13	5360.925	-784.3199	1	5417.996	-8.323497	-9.87315E-007	0.0057344	7
	21	30	8015.625	5426.748	-874.3253	1	5496.729	-9.152504	7.532003E-007	0.0035687	7
	22	32	6328.125	5501.64	-985.302	1	5589.174	-10.1536	-8.580865E-007	0.0068423	7
	23	33	5015.625	5582.806	-1122.537	1	5694.542	-11.36889	5.747112E-008	0.0061839	7
	24	34	3984.375	5667.99	-1287.617	1	5812.406	-12.79885	5.693315E-007	0.0054759	7
	25	36	3170.956	5758.602	-1495.295	1	5949.571	-14.55613	1.046908E-006	0.0041861	7
	26	37	2527.573	5858.094	-1744.891	1	6112.439	-16.58668	9.397694E-007	0.0036478	7
	27	38	1976.103	5975.465	-2081.808	1	6327.726	-19.20796	7.864642E-007	0.0050597	7
	28	40	1577.524	6095.784	-2462.089	1	6574.228	-21.9938	1.046742E-006	0.0041862	7
	29	41	1265.625	6237.067	-2904.725	1	6880.293	-24.97232	4.699633E-007	0.0036558	7
	30	43	998.264	6407.859	-3498.6	1	7300.744	-28.63391	-6.83587E-007	0.0050859	7
	31	44	796.875	6596.752	-4181.046	1	7810.14	-32.36668	-2.813979E-007	0.0065467	7
	32	45	627.7902	6830.54	-5068.571	1	8505.686	-36.57709	-1.153088E-006	0.0062644	7
	33	47	505.5147	7070.9	-6059.915	1	9312.368	-40.59729	7.497424E-007	0.0035578	7
	34	48	397.9953	7394.629	-7381.506	1	10448.31	-44.94912	2.265305E-009	0.0052767	7
	35	49	315.5048	7763.021	-8962	1	11856.73	-49.10039	4.121694E-010	0.0052083	6
	36	51	252.4038	8177.903	-10822.21	1	13564.6	-52.92315	3.706873E-010	0.0052111	6
	37	52	198.6229	8714.599	-13278.24	1	15882.56	-56.72283	6.277461E-010	0.005216	6
	38	54	158.3615	9330.123	-16141.36	1	18643.89	-59.97097	1.733613E-010	0.0052153	6
	39	55	125.558	10114.52	-19745.53	1	22185.34	-62.87649	7.53846E-010	0.0052068	6
	40	56	100.4464	11057.4	-23997.48	1	26422.44	-65.26102	-3.06205E-010	0.0052131	6
	41	58	79.00281	12414.34	-29621.34	1	32117.59	-67.26138	2.527168E-010	0.0052072	6
	42	59	63.3446	14250.74	-35884.91	1	38611.01	-68.34081	1.000207E-009	0.0052061	6
	43	60	49.86702	16118.14	-44454.04	1	47285.89	-70.07037	6.492912E-011	0.0052088	6
	44	62	39.72458	18925.13	-53845.16	1	57074.18	-70.6348	4.845152E-010	0.0052144	6
	45	63	31.6723	22670.49	-65470.65	1	69284.61	-70.90059	6.633326E-010	0.0052066	6
	46	65	24.93351	27773.68	-80041.81	1	84723.48	-70.86375	-3.413363E-011	0.005205	6
	47	66	19.86229	34274.42	-96541	1	102444.6	-70.45389	-1.019081E-010	0.0052089	6
	48	67	15.83615	43118.1	-116111	1	123858.5	-69.6274	3.59291E-010	0.0052096	5
	49	69	12.40079	54544.96	-140755.7	1	150954.7	-68.81789	3.790678E-011	0.0052088	5
	50	70	9.93114	68687.91	-166155.2	1	179793.1	-67.53999	6.211727E-010	0.0052233	5
	51	72	7.944915	86738.6	-195981.2	1	214318	-66.12646	3.539765E-010	0.0052139	5
	52	73	6.317385	109719.7	-229447.9	1	254331.9	-64.44334	7.283213E-011	0.0052324	5
	53	75	5.008013	138334.6	-266974.7	1	300685.8	-62.60879	4.402795E-010	0.0052129	5
	54	78	3.945707	173721.8	-309190.8	1	354652.2	-60.67013	2.222357E-010	0.0052083	5
	55	80	3.158693	212074.4	-351058.6	1	410143.5	-58.86384	2.634914E-010	0.0052255	5
	56	84	2.504006	257854.5	-398786.6	1	474889.1	-57.11339	-1.537086E-010	0.0051946	5
	57	87	1.998082	307550.5	-448004.8	1	543411.1	-55.53082	-1.599833E-010	0.0051842	5
	58	90	1.584686	364127.3	-500839.3	1	619216.2	-53.98156	4.607522E-011	0.0052471	5
	59	93	1.266892	422286.8	-559953.6	1	701337.4	-52.97837	-1.371532E-010	0.0051919	5
	60	98	0.999041	490253.9	-628376.6	1	796998.1	-52.03896	3.856317E-010	0.0052409	5
