EXPLAIN
TAG	EISPOT
TITLE	LABEL	Potentiostatic EIS	Test &Identifier
DATE	LABEL	11/5/2019	Date
TIME	LABEL	8:34:09	Time
NOTES	NOTES	2	&Notes...
	
	
PSTAT	PSTAT	REF600-11020	Potentiostat
VDC	POTEN	0.00000E+000	T	DC &Voltage (V)
FREQINIT	QUANT	1.00000E+006	Initial Fre&q. (Hz)
FREQFINAL	QUANT	1.00000E+000	Final Fre&q. (Hz)
PTSPERDEC	QUANT	1.00000E+001	Points/&decade
VAC	QUANT	2.50000E+001	AC &Voltage (mV rms)
AREA	QUANT	1.00000E-002	&Area (cm^2)
CONDIT	TWOPARAM	T	5.00000E+000	0.00000E+000	Conditionin&g	Time(s)	E(V)
DELAY	TWOPARAM	T	5.00000E+000	0.00000E+000	Init. De&lay	Time(s)	Stab.(mV/s)
SPEED	SELECTOR	1	&Optimize for:
ZGUESS	QUANT	1.00000E+005	E&stimated Z (ohms)
OCVCURVE	TABLE	19
	Pt	T	Vf	Vm	Ach	Over
	#	s	V vs. Ref.	V	V	bits
	0	0.258333	6.38474E-003	6.38474E-003	5.66299E-004	...........
	1	0.516667	6.38280E-003	6.28300E-003	5.67699E-004	...........
	2	0.775	6.37079E-003	6.18292E-003	5.67766E-004	...........
	3	1.03333	6.33735E-003	6.12589E-003	5.67332E-004	...........
	4	1.29167	6.28052E-003	6.08222E-003	5.65099E-004	...........
	5	1.55	6.21245E-003	6.04971E-003	5.61999E-004	...........
	6	1.80833	6.14838E-003	6.01859E-003	5.71666E-004	...........
	7	2.06667	6.09623E-003	5.99945E-003	5.65066E-004	...........
	8	2.325	6.05634E-003	5.97905E-003	5.67399E-004	...........
	9	2.58333	6.02564E-003	5.94765E-003	5.66332E-004	...........
	10	2.84167	6.00019E-003	5.93340E-003	5.64132E-004	...........
	11	3.1	5.97723E-003	5.92607E-003	5.60366E-004	...........
	12	3.35833	5.95683E-003	5.92100E-003	5.64466E-004	...........
	13	3.61667	5.94080E-003	5.92292E-003	5.59899E-004	...........
	14	3.875	5.93032E-003	5.92755E-003	5.66232E-004	...........
	15	4.13333	5.92498E-003	5.91419E-003	5.61699E-004	...........
	16	4.39167	5.92291E-003	5.92960E-003	5.62432E-004	...........
	17	4.65	5.92232E-003	5.92127E-003	5.64266E-004	...........
	18	4.90833	5.92272E-003	5.93593E-003	5.60199E-004	...........
EOC	QUANT	0.0059227	Open Circuit (V)
PSTATMODEL	IQUANT	4	Pstat Model
PSTATSECTION	LABEL	REF600-11020	Pstat Section
PSTATSERIALNO	LABEL	11020	Pstat Serial Number
CTRLMODE	IQUANT	1	Control Mode
IESTAB	IQUANT	0	I/E Stability
CASPEED	IQUANT	1	Control Amp Speed
CONVENTION	IQUANT	1	Current Convention
ICHRANGE	IQUANT	2	Ich Range
ICHRANGEMODE	TOGGLE	F	Ich Auto Range
ICHOFFSETENABLE	TOGGLE	T	Ich Offset Enable
ICHOFFSET	QUANT	0	Ich Offset (V)
ICHFILTER	IQUANT	3	Ich Filter
VCHRANGE	IQUANT	2	Vch Range
VCHRANGEMODE	TOGGLE	F	Vch Auto Range
VCHOFFSETENABLE	TOGGLE	T	Vch Offset Enable
VCHOFFSET	QUANT	0	Vch Offset (V)
VCHFILTER	IQUANT	3	Vch Filter
ACHRANGE	IQUANT	2	Ach Range
ACHOFFSETENABLE	TOGGLE	F	Ach Offset Enable
ACHOFFSET	QUANT	0	Ach Offset (V)
ACHFILTER	IQUANT	3	Ach Filter
IERANGELOWERLIMIT	IQUANT	1	I/E Range Lower Limit
IERANGEMODE	TOGGLE	F	I/E AutoRange
IERANGE	IQUANT	5	I/E Range
POSFEEDENABLE	TOGGLE	F	Positive Feedback IR Comp
POSFEEDRESISTANCE	QUANT	0	Positive Feedback Resistance (ohm)
ACHSELECT	IQUANT	0	Ach Select
CABLEID	IQUANT	14	Cable ID
DCCALDATE	LABEL	8/19/2019	DC Calibration Date
ACCALDATE	LABEL	8/19/2019	AC Calibration Date
THERMOSELECT	IQUANT	1	Thermo Select
FRAMEWORKVERSION	QUANT	6.33	Framework Version
INSTRUMENTVERSION	LABEL	3.50	Instrument Version
ZCURVE	TABLE
	Pt	Time	Freq	Zreal	Zimag	Zsig	Zmod	Zphz	Idc	Vdc	IERange
	#	s	Hz	ohm	ohm	V	ohm	°	A	V	#
	0	2	1000078	2269.188	-1481.602	1	2710.048	-33.14138	9.80944E-006	0.0081533	8
	1	3	794390.6	2560.189	-1406.957	1	2921.318	-28.79107	-2.533073E-006	0.0083795	8
	2	5	630984.4	2818.494	-1279.423	1	3095.292	-24.41513	7.793167E-006	0.006404	8
	3	6	501234.4	3030.804	-1137.703	1	3237.304	-20.57513	-2.749605E-006	0.0081044	8
	4	7	398109.4	3171.533	-1000.776	1	3325.684	-17.51307	7.755024E-006	0.0067706	8
	5	9	316265.6	3298.785	-858.8023	1	3408.743	-14.59241	-4.269999E-006	0.0081208	8
	6	10	251203.1	3390.865	-745.7861	1	3471.911	-12.40413	-7.464502E-007	0.0079816	8
	7	11	199546.9	3459.341	-645.1448	1	3518.985	-10.56394	7.645235E-007	0.0079145	8
	8	13	158578.1	3527.741	-578.3289	1	3574.831	-9.31011	7.224228E-007	0.0079139	8
	9	14	125953.1	3584.078	-450.6111	1	3612.294	-7.165958	-2.34564E-006	0.0082803	7
	10	16	100078.1	3616.979	-409.6871	1	3640.107	-6.462223	-2.976929E-007	0.0065971	7
	11	17	79453.13	3646.073	-390.0014	1	3666.872	-6.105417	1.032942E-006	0.0067895	7
	12	18	63140.62	3680.166	-378.2776	1	3699.556	-5.868721	1.387478E-007	0.0060688	7
	13	20	50203.12	3709.502	-374.6534	1	3728.373	-5.76722	-1.136843E-006	0.0091578	7
	14	21	39890.62	3744.485	-382.4638	1	3763.967	-5.831998	1.017615E-006	0.0057624	7
	15	22	31640.63	3779.452	-398.0068	1	3800.351	-6.011551	1.122488E-006	0.0059944	7
	16	24	25171.88	3814.437	-421.9821	1	3837.708	-6.312825	-1.270196E-006	0.0089834	7
	17	25	20015.62	3853.025	-457.5386	1	3880.095	-6.772042	6.21186E-008	0.0084901	7
	18	26	15890.62	3892.95	-503.7831	1	3925.412	-7.373615	-2.988071E-007	0.00659	7
	19	28	12609.37	3938.794	-557.7492	1	3978.088	-8.059729	-1.070814E-006	0.0080008	7
	20	29	10078.13	3982.929	-622.5063	1	4031.282	-8.883099	-9.338358E-007	0.0092191	7
	21	31	8015.625	4037.594	-712.4011	1	4099.961	-10.00639	-7.377748E-007	0.0073001	7
	22	32	6328.125	4093.469	-820.0438	1	4174.8	-11.3281	-9.327904E-007	0.0092147	7
	23	33	5015.625	4157.246	-950.828	1	4264.595	-12.88287	8.164792E-007	0.0056538	7
	24	35	3984.375	4219.49	-1106.778	1	4362.23	-14.69765	-1.270604E-006	0.0089736	7
	25	36	3170.956	4290.891	-1299.924	1	4483.475	-16.85417	-1.269483E-006	0.0089825	7
	26	37	2527.573	4372.354	-1536.593	1	4634.501	-19.3632	8.162964E-007	0.0056512	7
	27	39	1976.103	4465.255	-1847.971	1	4832.546	-22.4825	1.124729E-006	0.0059854	7
	28	40	1577.524	4566.465	-2195.625	1	5066.89	-25.67895	6.420326E-008	0.0084859	7
	29	42	1265.625	4688.611	-2620.338	1	5371.149	-29.19964	1.136029E-006	0.0063258	7
	30	43	998.264	4817.108	-3176.846	1	5770.345	-33.40455	5.160869E-007	0.0057469	7
	31	44	796.875	4967.343	-3815.028	1	6263.301	-37.52505	3.924714E-007	0.0080411	7
	32	46	627.7902	5147.893	-4650.765	1	6937.609	-42.09563	3.973692E-007	0.0080354	7
	33	47	505.5147	5335.652	-5581.665	1	7721.669	-46.29089	-6.447285E-007	0.009129	7
	34	48	397.9953	5568.513	-6852.486	1	8829.774	-50.90177	1.636529E-009	0.007509	7
	35	50	315.5048	5848.578	-8383.096	1	10221.65	-55.09793	1.544787E-009	0.00744	6
	36	51	252.4038	6168.5	-10202.19	1	11922.04	-58.84179	1.115452E-009	0.0074452	6
	37	53	198.6229	6591.54	-12617.75	1	14235.73	-62.41735	4.183558E-010	0.0074465	6
	38	54	158.3615	7099.718	-15449.16	1	17002.42	-65.31867	-5.011189E-011	0.0074428	6
	39	55	125.558	7762.748	-19017.96	1	20541.25	-67.7957	3.765505E-010	0.0074491	6
	40	57	100.4464	8605.451	-23209.7	1	24753.66	-69.65675	6.555406E-010	0.0074439	6
	41	58	79.00281	9765.46	-28856.41	1	30464.02	-71.30337	2.894403E-010	0.0074397	6
	42	60	63.3446	10764.96	-35155.12	1	36766.38	-72.97472	1.138972E-009	0.0074319	6
	43	61	49.86702	13130.2	-43065.03	1	45022.21	-73.04394	-6.300795E-010	0.0074386	6
	44	62	39.72458	15616.98	-53015.07	1	55267.43	-73.58628	1.265669E-009	0.0074263	6
	45	64	31.6723	18824.16	-64655.75	1	67340.3	-73.76737	4.607405E-010	0.0074392	6
	46	65	24.93351	23306.9	-79212.84	1	82570.49	-73.60446	6.843315E-010	0.0074351	6
	47	67	19.86229	29192.39	-96127.6	1	100462.5	-73.10732	4.054992E-010	0.0074476	6
	48	68	15.83615	36971.62	-116729.7	1	122444.8	-72.42552	1.279949E-009	0.0074494	5
	49	70	12.40079	45519.12	-141763.8	1	148892.5	-72.19862	9.550254E-010	0.0074486	5
	50	71	9.93114	59158.1	-169439.5	1	179469.8	-70.75386	4.402539E-010	0.0074333	5
	51	73	7.944915	75820.7	-200059.2	1	213945	-69.24373	-2.609819E-010	0.0074299	5
	52	74	6.317385	95361.6	-238052.1	1	256442.3	-68.16938	4.729918E-010	0.0074573	5
	53	76	5.008013	120992.1	-281114.6	1	306046.6	-66.7129	1.542928E-010	0.0074537	5
	54	79	3.945707	153967.1	-331719.6	1	365709.9	-65.10171	1.617133E-010	0.007437	5
	55	82	3.158693	189672.9	-383878.5	1	428180.5	-63.7062	1.396414E-010	0.0074578	5
	56	85	2.504006	233823.8	-445260	1	502921.5	-62.29424	5.223376E-011	0.0074314	5
	57	88	1.998082	283457.6	-510911.9	1	584276.7	-60.97817	-9.375304E-011	0.0074626	5
	58	91	1.584686	342324	-586624.1	1	679200.6	-59.73434	1.194383E-010	0.0074836	5
	59	95	1.266892	407041.1	-667287.8	1	781636.4	-58.61708	-7.217024E-011	0.0074768	5
	60	99	0.999041	481838.3	-764370.3	1	903565.3	-57.77378	2.152104E-010	0.0074212	5
