EXPLAIN
TAG	EISPOT
TITLE	LABEL	Potentiostatic EIS	Test &Identifier
DATE	LABEL	10/2/2019	Date
TIME	LABEL	10:37:56	Time
NOTES	NOTES	2	&Notes...
	
	
PSTAT	PSTAT	REF600-11020	Potentiostat
VDC	POTEN	0.00000E+000	T	DC &Voltage (V)
FREQINIT	QUANT	1.00000E+006	Initial Fre&q. (Hz)
FREQFINAL	QUANT	1.00000E+000	Final Fre&q. (Hz)
PTSPERDEC	QUANT	1.00000E+001	Points/&decade
VAC	QUANT	2.50000E+001	AC &Voltage (mV rms)
AREA	QUANT	1.00000E-002	&Area (cm^2)
CONDIT	TWOPARAM	T	5.00000E+000	0.00000E+000	Conditionin&g	Time(s)	E(V)
DELAY	TWOPARAM	T	5.00000E+000	0.00000E+000	Init. De&lay	Time(s)	Stab.(mV/s)
SPEED	SELECTOR	1	&Optimize for:
ZGUESS	QUANT	1.00000E+004	E&stimated Z (ohms)
OCVCURVE	TABLE	19
	Pt	T	Vf	Vm	Ach	Over
	#	s	V vs. Ref.	V	V	bits
	0	0.258333	2.26282E-002	2.26282E-002	5.49399E-004	...........
	1	0.516667	2.26566E-002	2.41129E-002	5.44533E-004	...........
	2	0.775	2.26868E-002	1.79882E-002	5.51333E-004	...........
	3	1.03333	2.22721E-002	1.09500E-002	5.47899E-004	...........
	4	1.29167	2.05077E-002	4.21613E-003	5.50466E-004	...........
	5	1.55	1.68331E-002	-2.40082E-004	5.47099E-004	...........
	6	1.80833	1.17596E-002	-4.08135E-004	5.49966E-004	...........
	7	2.06667	6.74378E-003	5.32050E-003	5.47766E-004	...........
	8	2.325	3.46226E-003	7.82047E-003	5.46799E-004	...........
	9	2.58333	2.71692E-003	5.68761E-003	5.46599E-004	...........
	10	2.84167	3.68284E-003	2.02881E-003	5.43599E-004	...........
	11	3.1	4.61830E-003	1.59986E-003	5.46633E-004	...........
	12	3.35833	4.54145E-003	5.06436E-003	5.46833E-004	...........
	13	3.61667	3.97306E-003	7.75463E-003	5.43399E-004	...........
	14	3.875	3.98023E-003	7.22361E-003	5.48066E-004	...........
	15	4.13333	4.85296E-003	7.35697E-003	5.48866E-004	...........
	16	4.39167	6.03652E-003	8.70235E-003	5.45199E-004	...........
	17	4.65	7.01109E-003	8.22700E-003	5.48033E-004	...........
	18	4.90833	7.68074E-003	8.66219E-003	5.43666E-004	...........
EOC	QUANT	0.0076807	Open Circuit (V)
PSTATMODEL	IQUANT	4	Pstat Model
PSTATSECTION	LABEL	REF600-11020	Pstat Section
PSTATSERIALNO	LABEL	11020	Pstat Serial Number
CTRLMODE	IQUANT	1	Control Mode
IESTAB	IQUANT	0	I/E Stability
CASPEED	IQUANT	1	Control Amp Speed
CONVENTION	IQUANT	1	Current Convention
ICHRANGE	IQUANT	2	Ich Range
ICHRANGEMODE	TOGGLE	F	Ich Auto Range
ICHOFFSETENABLE	TOGGLE	T	Ich Offset Enable
ICHOFFSET	QUANT	0	Ich Offset (V)
ICHFILTER	IQUANT	3	Ich Filter
VCHRANGE	IQUANT	2	Vch Range
VCHRANGEMODE	TOGGLE	F	Vch Auto Range
VCHOFFSETENABLE	TOGGLE	T	Vch Offset Enable
VCHOFFSET	QUANT	0	Vch Offset (V)
VCHFILTER	IQUANT	3	Vch Filter
ACHRANGE	IQUANT	2	Ach Range
ACHOFFSETENABLE	TOGGLE	F	Ach Offset Enable
ACHOFFSET	QUANT	0	Ach Offset (V)
ACHFILTER	IQUANT	3	Ach Filter
IERANGELOWERLIMIT	IQUANT	1	I/E Range Lower Limit
IERANGEMODE	TOGGLE	F	I/E AutoRange
IERANGE	IQUANT	6	I/E Range
POSFEEDENABLE	TOGGLE	F	Positive Feedback IR Comp
POSFEEDRESISTANCE	QUANT	0	Positive Feedback Resistance (ohm)
ACHSELECT	IQUANT	0	Ach Select
CABLEID	IQUANT	14	Cable ID
DCCALDATE	LABEL	8/19/2019	DC Calibration Date
ACCALDATE	LABEL	8/19/2019	AC Calibration Date
THERMOSELECT	IQUANT	1	Thermo Select
FRAMEWORKVERSION	QUANT	6.33	Framework Version
INSTRUMENTVERSION	LABEL	3.50	Instrument Version
ZCURVE	TABLE
	Pt	Time	Freq	Zreal	Zimag	Zsig	Zmod	Zphz	Idc	Vdc	IERange
	#	s	Hz	ohm	ohm	V	ohm	°	A	V	#
	0	1	1000078	2454.441	-2052.596	1	3199.598	-39.90502	-1.206757E-006	0.0105573	8
	1	2	794390.6	2874.411	-2054.471	1	3533.142	-35.5551	7.173533E-007	0.0097618	8
	2	4	630984.4	3262.997	-2000.598	1	3827.472	-31.51315	-4.144498E-006	0.010269	8
	3	5	501234.4	3630.541	-1873.428	1	4085.408	-27.2946	2.175928E-006	0.0091418	8
	4	7	398109.4	3950.251	-1746.416	1	4319.08	-23.85034	4.501216E-007	0.009175	8
	5	8	316265.6	4202.598	-1591.772	1	4493.948	-20.74463	-1.697439E-006	0.0096593	8
	6	9	251203.1	4435.671	-1447.952	1	4666.021	-18.07842	-8.694005E-007	0.0096956	8
	7	11	199546.9	4606.25	-1292.866	1	4784.249	-15.67818	-8.067302E-007	0.0094732	8
	8	12	158578.1	4776.704	-1190.192	1	4922.749	-13.99126	1.428219E-006	0.0090567	8
	9	14	125953.1	4917.123	-1025.714	1	5022.966	-11.78296	3.239773E-007	0.0083437	7
	10	15	100078.1	5005.287	-939.8679	1	5092.764	-10.63488	1.690309E-008	0.0093913	7
	11	16	79453.13	5095.377	-891.6274	1	5172.801	-9.92555	-3.53525E-008	0.0092936	7
	12	18	63140.62	5179.954	-861.3412	1	5251.079	-9.440964	-1.719533E-008	0.0093237	7
	13	19	50203.12	5260.239	-851.8013	1	5328.76	-9.198179	1.182809E-007	0.0091109	7
	14	20	39890.62	5339.296	-859.6848	1	5408.063	-9.146742	-4.417031E-009	0.009294	7
	15	22	31640.63	5421.143	-887.4766	1	5493.305	-9.297226	-1.544352E-008	0.0092398	7
	16	23	25171.88	5504.272	-935.4216	1	5583.191	-9.64496	-4.984277E-009	0.0092889	7
	17	24	20015.62	5597.708	-1002.163	1	5686.709	-10.15018	4.450215E-008	0.0092248	7
	18	26	15890.62	5697.533	-1092.559	1	5801.342	-10.85526	-2.90745E-009	0.0093266	7
	19	27	12609.37	5813.215	-1206.258	1	5937.047	-11.72267	-4.934344E-008	0.0093929	7
	20	29	10078.13	5932.686	-1338.07	1	6081.709	-12.70994	1.755985E-008	0.0093736	7
	21	30	8015.625	6080.38	-1501.792	1	6263.098	-13.8738	5.934088E-008	0.0091863	7
	22	31	6328.125	6231.852	-1695.208	1	6458.306	-15.21756	1.232715E-007	0.0091108	7
	23	33	5015.625	6409.155	-1924.541	1	6691.87	-16.71396	-2.195364E-008	0.0093092	7
	24	34	3984.375	6605.184	-2192.776	1	6959.649	-18.36503	-6.155436E-008	0.0093579	7
	25	35	3170.956	6842.422	-2494.341	1	7282.889	-20.02885	1.606403E-008	0.0092473	7
	26	37	2527.573	7100.456	-2842.095	1	7648.135	-21.81472	-5.423664E-008	0.0093595	7
	27	38	1976.103	7422.298	-3278.307	1	8114.05	-23.83026	6.014036E-008	0.0092287	7
	28	39	1577.524	7758.957	-3732.327	1	8609.976	-25.68917	-1.352766E-008	0.009241	7
	29	41	1265.625	8135.046	-4238.546	1	9173.018	-27.52055	-3.729981E-008	0.0092807	7
	30	42	998.264	8574.972	-4855.553	1	9854.26	-29.52058	-7.33732E-009	0.0092103	6
	31	43	796.875	9021.777	-5537.078	1	10585.45	-31.53934	-2.745895E-009	0.0091044	6
	32	45	627.7902	9518.2	-6389.423	1	11463.89	-33.87286	-1.045441E-008	0.0092886	6
	33	46	505.5147	9989.82	-7312.631	1	12380.27	-36.20443	-9.96011E-009	0.0093275	6
	34	47	397.9953	10530.83	-8528.113	1	13550.91	-39.00137	-3.651413E-011	0.0092439	6
	35	49	315.5048	11079.92	-9995.01	1	14921.96	-42.05307	-4.913354E-010	0.0092433	6
	36	50	252.4038	11633.28	-11731.47	1	16521.51	-45.24078	6.377109E-010	0.0092373	6
	37	51	198.6229	12275.04	-14057.85	1	18662.79	-48.87315	9.496569E-010	0.0092355	6
	38	53	158.3615	12949.65	-16806.76	1	21216.99	-52.38567	6.493021E-010	0.0092316	6
	39	54	125.558	13746.65	-20298.25	1	24515.09	-55.89285	9.174E-010	0.0092364	6
	40	56	100.4464	14652.43	-24471.54	1	28522.79	-59.08876	2.477848E-009	0.0092339	6
	41	57	79.00281	15848.48	-29975.09	1	33906.94	-62.13363	4.920709E-010	0.0092354	6
	42	58	63.3446	17062.83	-36450.46	1	40246.45	-64.91524	-8.118069E-011	0.0092345	6
	43	60	49.86702	19191.42	-44525.09	1	48484.98	-66.68275	2.06831E-009	0.0092351	6
	44	61	39.72458	21605.7	-54534.89	1	58658.85	-68.38746	-2.89404E-009	0.0092422	6
	45	62	31.6723	24648	-66306.15	1	70739.16	-69.60838	6.258279E-010	0.0092383	6
	46	64	24.93351	28935.96	-81669.3	1	86643.89	-70.49043	2.408996E-010	0.0092318	6
	47	65	19.86229	34187.24	-99367.5	1	105084.1	-71.01431	7.338651E-011	0.0092414	6
	48	66	15.83615	41412.7	-120645.5	1	127555.3	-71.05473	-3.103837E-010	0.0092413	5
	49	68	12.40079	52001.53	-147554.7	1	156449.8	-70.58641	-6.003709E-010	0.0092463	5
	50	69	9.93114	63698.5	-177216.3	1	188316.5	-70.22956	-1.841703E-010	0.0092495	5
	51	71	7.944915	79867.95	-211927.9	1	226478.1	-69.35039	1.316777E-010	0.0092417	5
	52	72	6.317385	100923.6	-252945.3	1	272336	-68.24831	6.404141E-010	0.0092376	5
	53	74	5.008013	128330.4	-300983.2	1	327199.6	-66.90803	1.423633E-010	0.0092439	5
	54	77	3.945707	165898.2	-357645.7	1	394249.4	-65.11521	-3.425948E-011	0.0092341	5
	55	80	3.158693	209161.2	-414566.5	1	464342.3	-63.22769	3.360509E-012	0.009231	5
	56	83	2.504006	263105.5	-479521.3	1	546959.9	-61.24715	2.452194E-010	0.0092502	5
	57	86	1.998082	325915.6	-545563.6	1	635500.3	-59.14622	4.412875E-010	0.0092455	5
	58	89	1.584686	402718.6	-617074.1	1	736860.1	-56.87049	1.71527E-010	0.009192	5
	59	92	1.266892	481374.1	-692044.4	1	842998.6	-55.1782	1.830665E-010	0.0092487	5
	60	97	0.999041	575958.4	-770825	1	962237	-53.23301	-2.233247E-010	0.0092126	5
