EXPLAIN
TAG	EISPOT
TITLE	LABEL	Potentiostatic EIS	Test &Identifier
DATE	LABEL	11/7/2019	Date
TIME	LABEL	9:39:42	Time
NOTES	NOTES	2	&Notes...
	
	
PSTAT	PSTAT	REF600-11020	Potentiostat
VDC	POTEN	0.00000E+000	T	DC &Voltage (V)
FREQINIT	QUANT	1.00000E+006	Initial Fre&q. (Hz)
FREQFINAL	QUANT	1.00000E+000	Final Fre&q. (Hz)
PTSPERDEC	QUANT	1.00000E+001	Points/&decade
VAC	QUANT	2.50000E+001	AC &Voltage (mV rms)
AREA	QUANT	1.00000E-002	&Area (cm^2)
CONDIT	TWOPARAM	T	5.00000E+000	0.00000E+000	Conditionin&g	Time(s)	E(V)
DELAY	TWOPARAM	T	5.00000E+000	0.00000E+000	Init. De&lay	Time(s)	Stab.(mV/s)
SPEED	SELECTOR	1	&Optimize for:
ZGUESS	QUANT	1.00000E+005	E&stimated Z (ohms)
OCVCURVE	TABLE	19
	Pt	T	Vf	Vm	Ach	Over
	#	s	V vs. Ref.	V	V	bits
	0	0.258333	4.88083E-003	4.88083E-003	5.79465E-004	...........
	1	0.516667	4.87967E-003	4.82020E-003	5.72866E-004	...........
	2	0.775	4.87269E-003	4.76956E-003	5.76232E-004	...........
	3	1.03333	4.85366E-003	4.73625E-003	5.69566E-004	...........
	4	1.29167	4.82178E-003	4.70622E-003	5.70766E-004	...........
	5	1.55	4.78342E-003	4.68491E-003	5.69266E-004	...........
	6	1.80833	4.74514E-003	4.60186E-003	5.73032E-004	...........
	7	2.06667	4.71027E-003	4.74219E-003	5.76532E-004	...........
	8	2.325	4.68317E-003	4.56236E-003	5.78865E-004	...........
	9	2.58333	4.65860E-003	4.31696E-003	5.79166E-004	...........
	10	2.84167	4.60674E-003	4.07082E-003	5.75899E-004	...........
	11	3.1	4.49695E-003	3.96844E-003	5.79332E-004	...........
	12	3.35833	4.33686E-003	3.91227E-003	5.75532E-004	...........
	13	3.61667	4.17106E-003	3.99279E-003	5.76366E-004	...........
	14	3.875	4.04782E-003	4.04503E-003	5.76966E-004	...........
	15	4.13333	3.99183E-003	4.13004E-003	5.79532E-004	...........
	16	4.39167	3.99607E-003	4.06694E-003	5.70699E-004	...........
	17	4.65	4.03133E-003	4.13842E-003	5.73732E-004	...........
	18	4.90833	4.07105E-003	4.23997E-003	5.73965E-004	...........
EOC	QUANT	0.004071	Open Circuit (V)
PSTATMODEL	IQUANT	4	Pstat Model
PSTATSECTION	LABEL	REF600-11020	Pstat Section
PSTATSERIALNO	LABEL	11020	Pstat Serial Number
CTRLMODE	IQUANT	1	Control Mode
IESTAB	IQUANT	0	I/E Stability
CASPEED	IQUANT	1	Control Amp Speed
CONVENTION	IQUANT	1	Current Convention
ICHRANGE	IQUANT	2	Ich Range
ICHRANGEMODE	TOGGLE	F	Ich Auto Range
ICHOFFSETENABLE	TOGGLE	T	Ich Offset Enable
ICHOFFSET	QUANT	0	Ich Offset (V)
ICHFILTER	IQUANT	3	Ich Filter
VCHRANGE	IQUANT	2	Vch Range
VCHRANGEMODE	TOGGLE	F	Vch Auto Range
VCHOFFSETENABLE	TOGGLE	T	Vch Offset Enable
VCHOFFSET	QUANT	0	Vch Offset (V)
VCHFILTER	IQUANT	3	Vch Filter
ACHRANGE	IQUANT	2	Ach Range
ACHOFFSETENABLE	TOGGLE	F	Ach Offset Enable
ACHOFFSET	QUANT	0	Ach Offset (V)
ACHFILTER	IQUANT	3	Ach Filter
IERANGELOWERLIMIT	IQUANT	1	I/E Range Lower Limit
IERANGEMODE	TOGGLE	F	I/E AutoRange
IERANGE	IQUANT	4	I/E Range
POSFEEDENABLE	TOGGLE	F	Positive Feedback IR Comp
POSFEEDRESISTANCE	QUANT	0	Positive Feedback Resistance (ohm)
ACHSELECT	IQUANT	0	Ach Select
CABLEID	IQUANT	14	Cable ID
DCCALDATE	LABEL	8/19/2019	DC Calibration Date
ACCALDATE	LABEL	8/19/2019	AC Calibration Date
THERMOSELECT	IQUANT	1	Thermo Select
FRAMEWORKVERSION	QUANT	6.33	Framework Version
INSTRUMENTVERSION	LABEL	3.50	Instrument Version
ZCURVE	TABLE
	Pt	Time	Freq	Zreal	Zimag	Zsig	Zmod	Zphz	Idc	Vdc	IERange
	#	s	Hz	ohm	ohm	V	ohm	°	A	V	#
	0	1	1000078	2134.153	-1567.465	1	2647.934	-36.29605	9.336361E-006	0.0049326	8
	1	3	794390.6	2460.502	-1517.036	1	2890.583	-31.65614	5.239873E-006	0.0042888	8
	2	4	630984.4	2759.164	-1437.29	1	3111.075	-27.51568	1.299144E-006	0.0060703	8
	3	6	501234.4	3018.588	-1306.024	1	3289.008	-23.39623	-2.404511E-007	0.0052331	8
	4	8	398109.4	3242.184	-1196.047	1	3455.761	-20.24909	8.036118E-006	0.004709	8
	5	9	316265.6	3388.478	-1020.319	1	3538.762	-16.7578	6.205189E-006	0.0043119	8
	6	10	251203.1	3532.751	-881.1695	1	3640.988	-14.00543	-2.284E-006	0.005635	8
	7	12	199546.9	3612.176	-755.6588	1	3690.371	-11.81574	8.271051E-007	0.0059381	8
	8	13	158578.1	3733.446	-616.98	1	3784.083	-9.383749	-1.713016E-006	0.0052815	8
	9	15	125953.1	3781.538	-488.0461	1	3812.902	-7.353954	2.294919E-006	0.0055771	7
	10	16	100078.1	3806.94	-417.773	1	3829.794	-6.26257	8.803833E-007	0.0034998	7
	11	17	79453.13	3835.221	-370.3558	1	3853.062	-5.515778	-3.356653E-007	0.0069994	7
	12	19	63140.62	3861.627	-332.849	1	3875.945	-4.926376	-7.037404E-007	0.0072648	7
	13	20	50203.12	3887.878	-307.5167	1	3900.021	-4.522467	8.813615E-007	0.0034869	7
	14	21	39890.62	3910.127	-286.7959	1	3920.631	-4.194959	5.553702E-007	0.0035971	7
	15	23	31640.63	3921.882	-277.7393	1	3931.704	-4.050802	-1.161665E-006	0.0060325	7
	16	24	25171.88	3942.145	-275.936	1	3951.79	-4.003969	-1.007847E-006	0.0073565	7
	17	26	20015.62	3964.403	-284.9226	1	3974.629	-4.110794	5.55764E-007	0.0036047	7
	18	27	15890.62	3980.449	-302.1063	1	3991.897	-4.340287	1.219861E-006	0.003852	7
	19	28	12609.37	3995.891	-328.6431	1	4009.383	-4.701724	-7.994175E-007	0.0052763	7
	20	30	10078.13	4010.146	-364.6237	1	4026.689	-5.19535	-1.008302E-006	0.007355	7
	21	31	8015.625	4037.157	-425.0721	1	4059.473	-6.010526	-3.284237E-007	0.0045007	7
	22	32	6328.125	4051.334	-493.2894	1	4081.255	-6.942148	8.823976E-007	0.0034851	7
	23	34	5015.625	4073.703	-584.7128	1	4115.452	-8.168077	1.104417E-006	0.0035867	7
	24	35	3984.375	4095.464	-695.67	1	4154.128	-9.64045	5.572736E-007	0.003598	7
	25	36	3170.956	4121.929	-838.5641	1	4206.363	-11.49931	-1.35677E-006	0.0066623	7
	26	38	2527.573	4157.747	-1015.048	1	4279.857	-13.71949	9.220233E-007	0.0052502	7
	27	39	1976.103	4194.034	-1252.916	1	4377.181	-16.63287	-3.337291E-007	0.0069875	7
	28	41	1577.524	4233.942	-1497.275	1	4490.891	-19.47544	-1.160887E-006	0.0060234	7
	29	42	1265.625	4303.229	-1855.32	1	4686.149	-23.3231	1.231864E-006	0.0042169	7
	30	43	998.264	4378.44	-2288.134	1	4940.273	-27.59116	8.832897E-007	0.0034877	7
	31	45	796.875	4466.243	-2796.311	1	5269.41	-32.05065	1.221458E-006	0.0038408	7
	32	46	627.7902	4582.719	-3455.739	1	5739.638	-37.01923	4.280107E-007	0.0060779	7
	33	47	505.5147	4726.846	-4200.051	1	6323.251	-41.62277	6.760226E-007	0.0057155	7
	34	49	397.9953	4920.137	-5197.421	1	7156.88	-46.56987	6.37819E-009	0.005499	7
	35	50	315.5048	5169.708	-6395.423	1	8223.584	-51.04983	3.07365E-009	0.0054981	7
	36	52	252.4038	5481.493	-7800.256	1	9533.66	-54.90304	6.068921E-009	0.0055005	7
	37	53	198.6229	5921.609	-9639.65	1	11313.19	-58.43772	9.494131E-010	0.0054422	6
	38	54	158.3615	6464.58	-11758.6	1	13418.48	-61.19912	1.340915E-009	0.0054269	6
	39	56	125.558	7184.066	-14390.68	1	16084.23	-63.47086	3.319433E-010	0.0054364	6
	40	57	100.4464	8078.664	-17443.99	1	19223.88	-65.15019	1.771991E-009	0.0054271	6
	41	58	79.00281	9340.282	-21339.92	1	23294.48	-66.36145	2.488403E-010	0.0054287	6
	42	60	63.3446	10988.56	-25503.44	1	27770.02	-66.69045	1.115534E-009	0.0054266	6
	43	61	49.86702	13101.94	-31475.07	1	34093.12	-67.39979	6.349253E-010	0.0054286	6
	44	63	39.72458	15702.13	-37638.7	1	40782.7	-67.35506	1.568048E-009	0.005425	6
	45	64	31.6723	19010.51	-44977.4	1	48829.97	-67.08777	8.323259E-010	0.0054249	6
	46	65	24.93351	23626.32	-53902.1	1	58852.7	-66.33125	1.188422E-010	0.0054325	6
	47	67	19.86229	29117.97	-63617.1	1	69964.22	-65.40611	1.017004E-009	0.0054442	6
	48	68	15.83615	35126.44	-74710.85	1	82556.52	-64.81873	1.119093E-010	0.0054226	6
	49	70	12.40079	44386.93	-87989.26	1	98551	-63.23095	1.618361E-009	0.0054217	6
	50	71	9.93114	53694.52	-101906.5	1	115187	-62.21527	2.808228E-011	0.0054408	5
	51	73	7.944915	64276.85	-117196.7	1	133665.9	-61.25731	4.197015E-010	0.005428	5
	52	74	6.317385	76595.65	-134414.1	1	154706.3	-60.32342	-1.230341E-010	0.0054544	5
	53	76	5.008013	90340.21	-154756.2	1	179194.9	-59.7254	2.669218E-011	0.0054324	5
	54	79	3.945707	105601.3	-178569.4	1	207457.6	-59.40104	5.372272E-010	0.0054317	5
	55	82	3.158693	121316.7	-205295.8	1	238462	-59.41963	-8.928371E-011	0.0054209	5
	56	85	2.504006	139266.6	-238203.2	1	275927.4	-59.68711	4.751904E-010	0.0054364	5
	57	88	1.998082	158712.9	-276355	1	318687.7	-60.1309	3.426808E-010	0.0054409	5
	58	91	1.584686	182528.2	-323203.9	1	371183.7	-60.54457	6.028331E-011	0.0053774	5
	59	94	1.266892	207326.5	-377243.9	1	430461.7	-61.20759	2.686476E-010	0.0054258	5
	60	99	0.999041	239498.7	-447045.7	1	507158.2	-61.82042	-1.359474E-010	0.0054202	5
