EXPLAIN
TAG	EISPOT
TITLE	LABEL	Potentiostatic EIS	Test &Identifier
DATE	LABEL	10/14/2019	Date
TIME	LABEL	10:41:23	Time
NOTES	NOTES	1	&Notes...
	
PSTAT	PSTAT	REF600-11020	Potentiostat
VDC	POTEN	0.00000E+000	T	DC &Voltage (V)
FREQINIT	QUANT	1.00000E+006	Initial Fre&q. (Hz)
FREQFINAL	QUANT	1.00000E+000	Final Fre&q. (Hz)
PTSPERDEC	QUANT	1.00000E+001	Points/&decade
VAC	QUANT	2.50000E+001	AC &Voltage (mV rms)
AREA	QUANT	1.00000E-002	&Area (cm^2)
CONDIT	TWOPARAM	T	5.00000E+000	0.00000E+000	Conditionin&g	Time(s)	E(V)
DELAY	TWOPARAM	T	5.00000E+000	0.00000E+000	Init. De&lay	Time(s)	Stab.(mV/s)
SPEED	SELECTOR	1	&Optimize for:
ZGUESS	QUANT	1.00000E+004	E&stimated Z (ohms)
OCVCURVE	TABLE	19
	Pt	T	Vf	Vm	Ach	Over
	#	s	V vs. Ref.	V	V	bits
	0	0.258333	8.48024E-003	8.48024E-003	5.63132E-004	...........
	1	0.516667	8.47745E-003	8.33387E-003	5.61166E-004	...........
	2	0.775	8.46082E-003	8.22392E-003	5.60732E-004	...........
	3	1.03333	8.41599E-003	8.13680E-003	5.59632E-004	...........
	4	1.29167	8.34203E-003	8.11574E-003	5.59966E-004	...........
	5	1.55	8.25618E-003	8.04830E-003	5.58199E-004	...........
	6	1.80833	8.17832E-003	8.05397E-003	5.61732E-004	...........
	7	2.06667	8.11712E-003	7.96135E-003	5.59232E-004	...........
	8	2.325	8.07218E-003	8.10568E-003	5.60466E-004	...........
	9	2.58333	8.04258E-003	7.91452E-003	5.58299E-004	...........
	10	2.84167	8.02366E-003	7.97681E-003	5.59432E-004	...........
	11	3.1	8.00304E-003	7.82526E-003	5.58632E-004	...........
	12	3.35833	7.97150E-003	7.89015E-003	5.58132E-004	...........
	13	3.61667	7.93275E-003	7.85859E-003	5.54399E-004	...........
	14	3.875	7.89861E-003	7.86152E-003	5.57666E-004	...........
	15	4.13333	7.87720E-003	7.88489E-003	5.51799E-004	...........
	16	4.39167	7.86717E-003	7.80241E-003	5.54133E-004	...........
	17	4.65	7.86090E-003	7.84965E-003	5.56699E-004	...........
	18	4.90833	7.85327E-003	7.86782E-003	5.55833E-004	...........
EOC	QUANT	0.0078533	Open Circuit (V)
PSTATMODEL	IQUANT	4	Pstat Model
PSTATSECTION	LABEL	REF600-11020	Pstat Section
PSTATSERIALNO	LABEL	11020	Pstat Serial Number
CTRLMODE	IQUANT	1	Control Mode
IESTAB	IQUANT	0	I/E Stability
CASPEED	IQUANT	1	Control Amp Speed
CONVENTION	IQUANT	1	Current Convention
ICHRANGE	IQUANT	2	Ich Range
ICHRANGEMODE	TOGGLE	F	Ich Auto Range
ICHOFFSETENABLE	TOGGLE	T	Ich Offset Enable
ICHOFFSET	QUANT	0	Ich Offset (V)
ICHFILTER	IQUANT	3	Ich Filter
VCHRANGE	IQUANT	2	Vch Range
VCHRANGEMODE	TOGGLE	F	Vch Auto Range
VCHOFFSETENABLE	TOGGLE	T	Vch Offset Enable
VCHOFFSET	QUANT	0	Vch Offset (V)
VCHFILTER	IQUANT	3	Vch Filter
ACHRANGE	IQUANT	2	Ach Range
ACHOFFSETENABLE	TOGGLE	F	Ach Offset Enable
ACHOFFSET	QUANT	0	Ach Offset (V)
ACHFILTER	IQUANT	3	Ach Filter
IERANGELOWERLIMIT	IQUANT	1	I/E Range Lower Limit
IERANGEMODE	TOGGLE	F	I/E AutoRange
IERANGE	IQUANT	6	I/E Range
POSFEEDENABLE	TOGGLE	F	Positive Feedback IR Comp
POSFEEDRESISTANCE	QUANT	0	Positive Feedback Resistance (ohm)
ACHSELECT	IQUANT	0	Ach Select
CABLEID	IQUANT	14	Cable ID
DCCALDATE	LABEL	8/19/2019	DC Calibration Date
ACCALDATE	LABEL	8/19/2019	AC Calibration Date
THERMOSELECT	IQUANT	1	Thermo Select
FRAMEWORKVERSION	QUANT	6.33	Framework Version
INSTRUMENTVERSION	LABEL	3.50	Instrument Version
ZCURVE	TABLE
	Pt	Time	Freq	Zreal	Zimag	Zsig	Zmod	Zphz	Idc	Vdc	IERange
	#	s	Hz	ohm	ohm	V	ohm	°	A	V	#
	0	2	1000078	2550.733	-1891.309	1	3175.419	-36.55607	-4.522687E-006	0.0105732	8
	1	3	794390.6	2912.802	-1851.367	1	3451.373	-32.4399	1.503715E-006	0.009529	8
	2	4	630984.4	3260.857	-1759.845	1	3705.434	-28.35521	-1.047953E-006	0.0095878	8
	3	6	501234.4	3550.849	-1634.072	1	3908.8	-24.7115	5.023787E-007	0.0093527	8
	4	7	398109.4	3805.778	-1489.294	1	4086.801	-21.37163	3.803329E-006	0.0087244	8
	5	9	316265.6	4010.279	-1342.775	1	4229.111	-18.51226	7.251693E-007	0.0091117	8
	6	10	251203.1	4198.575	-1225.387	1	4373.741	-16.27029	3.026643E-006	0.0087615	8
	7	11	199546.9	4325.778	-1106.844	1	4465.138	-14.35243	8.722549E-007	0.0091062	8
	8	13	158578.1	4432.291	-1012.293	1	4546.42	-12.86514	1.331447E-006	0.0090219	8
	9	14	125953.1	4563.251	-911.6132	1	4653.418	-11.29741	-1.368883E-007	0.0096389	7
	10	16	100078.1	4637.373	-852.2203	1	4715.03	-10.41318	-4.289571E-008	0.0093514	7
	11	17	79453.13	4720.347	-834.6078	1	4793.563	-10.02688	7.472189E-008	0.0092553	7
	12	18	63140.62	4801.229	-832.609	1	4872.888	-9.83815	-3.03565E-008	0.0093489	7
	13	20	50203.12	4882.658	-849.2759	1	4955.968	-9.86715	3.966243E-008	0.0091729	7
	14	21	39890.62	4968.356	-881.5579	1	5045.96	-10.06153	7.457031E-008	0.0092411	7
	15	22	31640.63	5056.816	-933.8773	1	5142.326	-10.46332	-3.019867E-008	0.009297	7
	16	24	25171.88	5153.645	-1002.495	1	5250.243	-11.0078	6.314132E-009	0.0092437	7
	17	25	20015.62	5260.162	-1068.088	1	5367.506	-11.47799	-1.404112E-009	0.0093246	7
	18	26	15890.62	5374.38	-1198.52	1	5506.397	-12.5716	7.408899E-008	0.0092413	7
	19	28	12609.37	5507.503	-1330.011	1	5665.82	-13.57646	-4.861367E-008	0.0093347	7
	20	29	10078.13	5644.045	-1480.018	1	5834.869	-14.69364	-2.368685E-008	0.0092804	7
	21	30	8015.625	5823.946	-1677.055	1	6060.599	-16.06421	6.972028E-009	0.0092345	7
	22	32	6328.125	5985.665	-1876.457	1	6272.9	-17.40578	5.829817E-009	0.0092375	7
	23	33	5015.625	6191.109	-2126.719	1	6546.203	-18.9582	7.019032E-008	0.0091387	7
	24	34	3984.375	6434.097	-2411.99	1	6871.339	-20.54982	7.200573E-008	0.0091388	7
	25	36	3170.956	6685.099	-2750.939	1	7228.984	-22.36732	3.191025E-009	0.0093818	7
	26	37	2527.573	6986.638	-3124.851	1	7653.614	-24.09711	-4.825473E-008	0.0093374	7
	27	38	1976.103	7359.246	-3586.909	1	8186.844	-25.98468	-2.448056E-008	0.0092848	7
	28	40	1577.524	7618.422	-4031.021	1	8619.135	-27.88398	-2.726968E-008	0.0093669	7
	29	41	1265.625	8168.971	-4590.256	1	9370.301	-29.33222	4.034905E-009	0.0093787	7
	30	43	998.264	8666.606	-5218.235	1	10116.33	-31.05249	6.114342E-010	0.0093173	6
	31	44	796.875	9163.135	-5907.677	1	10902.46	-32.81078	5.958492E-009	0.0090864	6
	32	45	627.7902	9707.84	-6757.896	1	11828.41	-34.84284	-1.19749E-010	0.0092199	6
	33	47	505.5147	10217.47	-7683.859	1	12784.3	-36.94432	-7.357133E-009	0.009351	6
	34	48	397.9953	10774.53	-8921.429	1	13988.65	-39.62512	4.705002E-010	0.0092368	6
	35	49	315.5048	11317.46	-10419.66	1	15383.56	-42.63488	5.211306E-010	0.0092353	6
	36	51	252.4038	11855.78	-12219.78	1	17025.94	-45.8662	2.784837E-010	0.0092353	6
	37	52	198.6229	12461.12	-14655.14	1	19236.75	-49.62582	5.499916E-010	0.0092364	6
	38	53	158.3615	13096.51	-17548.47	1	21896.74	-53.26585	9.640736E-010	0.0092357	6
	39	55	125.558	13854.83	-21268.38	1	25383.07	-56.91864	2.070687E-010	0.0092391	6
	40	56	100.4464	14702.48	-25706.23	1	29613.73	-60.23293	-6.97942E-011	0.0092358	6
	41	57	79.00281	15977.79	-31658.79	1	35462.21	-63.22049	8.879553E-010	0.0092365	6
	42	59	63.3446	17253.5	-38044.35	1	41773.86	-65.60523	7.051656E-010	0.0092352	6
	43	60	49.86702	19543.1	-47348.11	1	51222.81	-67.57144	8.435444E-010	0.0092296	6
	44	62	39.72458	21665.71	-57968.28	1	61884.77	-69.50671	7.556446E-010	0.0092345	6
	45	63	31.6723	24962.22	-70627.66	1	74909.14	-70.53486	6.739829E-010	0.0092398	6
	46	64	24.93351	29131	-86945.48	1	91695.87	-71.47662	3.114722E-010	0.0092344	6
	47	66	19.86229	34628.95	-105754.3	1	111279.6	-71.86912	7.299329E-011	0.0092402	5
	48	67	15.83615	41089.35	-127536.1	1	133991.7	-72.14219	-2.304199E-010	0.0092402	5
	49	68	12.40079	51959.64	-156966.6	1	165343	-71.68423	9.012214E-010	0.0092398	5
	50	70	9.93114	62788.66	-188912.9	1	199074.1	-71.61483	3.645747E-010	0.0092344	5
	51	71	7.944915	76496.88	-225385.3	1	238013.3	-71.25254	-4.114889E-010	0.0092363	5
	52	73	6.317385	95714.7	-271539.7	1	287915.1	-70.58302	-9.648216E-011	0.0092423	5
	53	75	5.008013	119623	-325924.3	1	347183.4	-69.8455	3.106914E-011	0.0092316	5
	54	78	3.945707	150323.5	-391407.4	1	419281.4	-68.99027	2.3616E-010	0.0092398	5
	55	80	3.158693	186854.2	-463259.1	1	499523.2	-68.03346	6.118843E-012	0.0092418	5
	56	84	2.504006	233670.5	-549390.5	1	597019.1	-66.95865	1.894677E-010	0.0092258	5
	57	86	1.998082	289069.5	-644766.1	1	706600.7	-65.85177	-7.961089E-011	0.0092555	5
	58	89	1.584686	363194.9	-760536.3	1	842808.4	-64.47314	1.131354E-010	0.0092841	5
	59	93	1.266892	447679.5	-879411.3	1	986804	-63.02085	-3.532202E-011	0.0092449	5
	60	97	0.999041	555067.8	-1027537	1	1167876	-61.62242	1.93824E-010	0.0092413	4
