EXPLAIN
TAG	EISPOT
TITLE	LABEL	Potentiostatic EIS	Test &Identifier
DATE	LABEL	11/27/2019	Date
TIME	LABEL	13:18:15	Time
NOTES	NOTES	3	&Notes...
	
	
	
PSTAT	PSTAT	REF600-11020	Potentiostat
VDC	POTEN	0.00000E+000	T	DC &Voltage (V)
FREQINIT	QUANT	1.00000E+006	Initial Fre&q. (Hz)
FREQFINAL	QUANT	1.00000E+000	Final Fre&q. (Hz)
PTSPERDEC	QUANT	1.00000E+001	Points/&decade
VAC	QUANT	2.50000E+001	AC &Voltage (mV rms)
AREA	QUANT	1.00000E-002	&Area (cm^2)
CONDIT	TWOPARAM	T	5.00000E+000	0.00000E+000	Conditionin&g	Time(s)	E(V)
DELAY	TWOPARAM	T	5.00000E+000	0.00000E+000	Init. De&lay	Time(s)	Stab.(mV/s)
SPEED	SELECTOR	0	&Optimize for:
ZGUESS	QUANT	1.00000E+005	E&stimated Z (ohms)
OCVCURVE	TABLE	19
	Pt	T	Vf	Vm	Ach	Over
	#	s	V vs. Ref.	V	V	bits
	0	0.258333	5.15892E-003	5.15892E-003	5.68799E-004	...........
	1	0.516667	5.15338E-003	4.86852E-003	5.72766E-004	...........
	2	0.775	5.12125E-003	4.69479E-003	5.66832E-004	...........
	3	1.03333	5.04824E-003	5.12604E-003	5.67932E-004	...........
	4	1.29167	4.96706E-003	4.86601E-003	5.65632E-004	...........
	5	1.55	4.92003E-003	4.70323E-003	5.64999E-004	...........
	6	1.80833	4.89885E-003	5.05441E-003	5.63132E-004	...........
	7	2.06667	4.88348E-003	4.81377E-003	5.65299E-004	...........
	8	2.325	4.87369E-003	4.64546E-003	5.64699E-004	...........
	9	2.58333	4.85832E-003	4.94459E-003	5.63766E-004	...........
	10	2.84167	4.83641E-003	4.96429E-003	5.58099E-004	...........
	11	3.1	4.83293E-003	4.73804E-003	5.61432E-004	...........
	12	3.35833	4.84779E-003	4.87304E-003	5.60299E-004	...........
	13	3.61667	4.85867E-003	5.02160E-003	5.63266E-004	...........
	14	3.875	4.86832E-003	4.84414E-003	5.66332E-004	...........
	15	4.13333	4.88543E-003	4.87190E-003	5.67566E-004	...........
	16	4.39167	4.90059E-003	5.06807E-003	5.68632E-004	...........
	17	4.65	4.91358E-003	4.92069E-003	5.60232E-004	...........
	18	4.90833	4.93140E-003	4.89147E-003	5.65199E-004	...........
EOC	QUANT	0.0049314	Open Circuit (V)
PSTATMODEL	IQUANT	4	Pstat Model
PSTATSECTION	LABEL	REF600-11020	Pstat Section
PSTATSERIALNO	LABEL	11020	Pstat Serial Number
CTRLMODE	IQUANT	1	Control Mode
IESTAB	IQUANT	0	I/E Stability
CASPEED	IQUANT	1	Control Amp Speed
CONVENTION	IQUANT	1	Current Convention
ICHRANGE	IQUANT	2	Ich Range
ICHRANGEMODE	TOGGLE	F	Ich Auto Range
ICHOFFSETENABLE	TOGGLE	T	Ich Offset Enable
ICHOFFSET	QUANT	0	Ich Offset (V)
ICHFILTER	IQUANT	3	Ich Filter
VCHRANGE	IQUANT	2	Vch Range
VCHRANGEMODE	TOGGLE	F	Vch Auto Range
VCHOFFSETENABLE	TOGGLE	T	Vch Offset Enable
VCHOFFSET	QUANT	0	Vch Offset (V)
VCHFILTER	IQUANT	3	Vch Filter
ACHRANGE	IQUANT	2	Ach Range
ACHOFFSETENABLE	TOGGLE	F	Ach Offset Enable
ACHOFFSET	QUANT	0	Ach Offset (V)
ACHFILTER	IQUANT	3	Ach Filter
IERANGELOWERLIMIT	IQUANT	1	I/E Range Lower Limit
IERANGEMODE	TOGGLE	F	I/E AutoRange
IERANGE	IQUANT	4	I/E Range
POSFEEDENABLE	TOGGLE	F	Positive Feedback IR Comp
POSFEEDRESISTANCE	QUANT	0	Positive Feedback Resistance (ohm)
ACHSELECT	IQUANT	0	Ach Select
CABLEID	IQUANT	14	Cable ID
DCCALDATE	LABEL	8/19/2019	DC Calibration Date
ACCALDATE	LABEL	8/19/2019	AC Calibration Date
THERMOSELECT	IQUANT	1	Thermo Select
FRAMEWORKVERSION	QUANT	6.33	Framework Version
INSTRUMENTVERSION	LABEL	3.50	Instrument Version
ZCURVE	TABLE
	Pt	Time	Freq	Zreal	Zimag	Zsig	Zmod	Zphz	Idc	Vdc	IERange
	#	s	Hz	ohm	ohm	V	ohm	°	A	V	#
	0	1	1000078	2054.02	-1413.1	1	2493.16	-34.52674	-9.698761E-006	0.008529	8
	1	1	794390.6	2318.464	-1372.217	1	2694.115	-30.61979	2.469071E-006	0.007486	8
	2	2	630984.4	2564.723	-1315.191	1	2882.279	-27.14877	-2.268809E-006	0.0065453	8
	3	2	501234.4	2782.964	-1231.103	1	3043.107	-23.86323	6.190116E-006	0.0059502	8
	4	2	398109.4	2979.376	-1150.951	1	3193.958	-21.12185	1.485325E-006	0.0061344	8
	5	2	316265.6	3132.319	-1073.453	1	3311.151	-18.91671	-8.391094E-007	0.0069945	8
	6	3	251203.1	3287.052	-978.814	1	3429.692	-16.58242	-1.418164E-006	0.0063713	8
	7	3	199546.9	3418.361	-904.4686	1	3535.994	-14.82035	-1.863335E-006	0.0067099	8
	8	3	158578.1	3547.549	-830.5445	1	3643.475	-13.17664	1.916499E-006	0.0061172	8
	9	4	125953.1	3676.16	-727.7238	1	3747.498	-11.19737	1.866029E-006	0.0065194	7
	10	4	100078.1	3750.61	-662.8126	1	3808.726	-10.02191	5.693049E-007	0.0067018	7
	11	4	79453.13	3824.059	-609.6378	1	3872.349	-9.057962	-9.581032E-007	0.0070164	7
	12	5	63140.62	3889.519	-570.742	1	3931.171	-8.347918	-2.89012E-007	0.005764	7
	13	5	50203.12	3956.29	-533.3878	1	3992.084	-7.67833	4.271215E-007	0.0050162	7
	14	5	39890.62	4010.469	-513.3017	1	4043.184	-7.293658	3.682134E-007	0.006982	7
	15	6	31640.63	4055.881	-496.5686	1	4086.166	-6.980084	-2.966615E-007	0.0057629	7
	16	6	25171.88	4101.927	-495.8781	1	4131.792	-6.892984	4.249524E-007	0.0050123	7
	17	6	20015.62	4143.89	-503.5703	1	4174.375	-6.928676	7.662646E-007	0.0063033	7
	18	7	15890.62	4188.199	-526.3569	1	4221.145	-7.163161	7.689478E-007	0.0062942	7
	19	7	12609.37	4226.14	-557.0195	1	4262.69	-7.508498	8.815647E-007	0.0049827	7
	20	7	10078.13	4271.486	-609.0334	1	4314.686	-8.114605	9.867587E-007	0.0051761	7
	21	8	8015.625	4299.886	-674.1279	1	4352.409	-8.910192	-9.902263E-007	0.0079985	7
	22	8	6328.125	4342.612	-773.0399	1	4410.881	-10.09364	-2.887214E-007	0.0057576	7
	23	8	5015.625	4390.044	-890.7327	1	4479.497	-11.46952	8.903321E-008	0.0052867	7
	24	9	3984.375	4434.847	-1043.995	1	4556.072	-13.24666	-8.056949E-007	0.0080429	7
	25	9	3170.956	4492.203	-1237.051	1	4659.418	-15.39635	9.262739E-007	0.0058491	7
	26	9	2527.573	4554.198	-1468.15	1	4784.996	-17.86792	8.83243E-007	0.0049693	7
	27	9	1976.103	4629.371	-1788.421	1	4962.814	-21.12257	-9.59069E-007	0.0069963	7
	28	10	1577.524	4719.545	-2149.544	1	5186.004	-24.48717	-8.038885E-007	0.0080376	7
	29	10	1265.625	4811.887	-2584.536	1	5462.059	-28.2409	9.885089E-007	0.0051657	7
	30	10	998.264	4929.592	-3147.682	1	5848.827	-32.55937	-1.114217E-006	0.0075104	7
	31	11	796.875	5076.543	-3832.155	1	6360.558	-37.04824	6.958894E-007	0.0048983	7
	32	11	627.7902	5254.396	-4710.856	1	7056.971	-41.87798	3.660196E-007	0.0069743	7
	33	11	505.5147	5469.454	-5691.093	1	7893.254	-46.1377	8.854105E-007	0.00497	7
	34	12	397.9953	5753.457	-7001.363	1	9062.083	-50.58792	2.497594E-009	0.0065388	7
	35	12	315.5048	6118.329	-8576.81	1	10535.45	-54.49757	1.475776E-010	0.0064798	6
	36	13	252.4038	6564.548	-10431.56	1	12325.21	-57.81791	4.157681E-010	0.0064746	6
	37	13	198.6229	7189.749	-12861.02	1	14734.26	-60.79333	1.018962E-010	0.0064782	6
	38	13	158.3615	7962.577	-15654.27	1	17562.99	-63.03974	-3.677551E-012	0.0064686	6
	39	14	125.558	9016.338	-19126.04	1	21144.73	-64.76002	3.709894E-010	0.0064629	6
	40	14	100.4464	10351.76	-23171.05	1	25378.27	-65.92712	-5.951145E-011	0.0064633	6
	41	14	79.00281	12215.02	-28366.21	1	30884.44	-66.70239	-5.84111E-010	0.0064594	6
	42	15	63.3446	14590.64	-33518.71	1	36556.68	-66.47659	8.15805E-010	0.0064593	6
	43	15	49.86702	17943.1	-40745.29	1	44521.16	-66.23264	1.02599E-009	0.0064661	6
	44	15	39.72458	21889.59	-48965.41	1	53635.49	-65.91335	5.200668E-010	0.0064702	6
	45	16	31.6723	27095.6	-58033.57	1	64047.38	-64.97234	6.954794E-010	0.0064669	6
	46	16	24.93351	34065.14	-68549.55	1	76547.2	-63.57529	-7.061569E-010	0.0064684	6
	47	16	19.86229	42002.86	-79734.27	1	90121	-62.22039	1.56795E-010	0.0064664	6
	48	16	15.83615	51322.85	-92431.66	1	105724.4	-60.95869	3.237056E-010	0.0064636	5
	49	17	12.40079	63730.52	-107200	1	124713.4	-59.26847	3.523494E-010	0.0064699	5
	50	17	9.93114	75777.02	-120404.4	1	142265.2	-57.81557	-8.653664E-010	0.0064666	5
	51	18	7.944915	89696.3	-135652	1	162625	-56.52638	-1.23753E-009	0.0064658	5
	52	18	6.317385	106064.2	-153912.3	1	186918.7	-55.42846	-9.727549E-010	0.0064889	5
	53	19	5.008013	123228.2	-175394.8	1	214356	-54.90903	-5.743454E-010	0.0064683	5
	54	20	3.945707	142282.4	-198308	1	244070.3	-54.34124	3.702407E-011	0.0064575	5
	55	22	3.158693	162455.8	-224463.2	1	277084.1	-54.10476	2.039589E-010	0.00648	5
	56	23	2.504006	185721.2	-255829.4	1	316134.5	-54.02196	-2.276709E-010	0.0064759	5
	57	25	1.998082	209619.5	-291533.5	1	359071.2	-54.28296	-9.261859E-011	0.0064665	5
	58	26	1.584686	238556.3	-334210.6	1	410616.4	-54.48112	1.162242E-010	0.0065115	5
	59	28	1.266892	269416.5	-384364.5	1	469383.9	-54.97184	1.171362E-010	0.0065034	5
	60	31	0.999041	305118.2	-446191.8	1	540540.8	-55.63461	9.824691E-011	0.0064886	5
