EXPLAIN
TAG	EISPOT
TITLE	LABEL	Potentiostatic EIS	Test &Identifier
DATE	LABEL	9/24/2019	Date
TIME	LABEL	8:30:38	Time
NOTES	NOTES	1	&Notes...
	
PSTAT	PSTAT	REF600-11020	Potentiostat
VDC	POTEN	0.00000E+000	T	DC &Voltage (V)
FREQINIT	QUANT	1.00000E+006	Initial Fre&q. (Hz)
FREQFINAL	QUANT	1.00000E+000	Final Fre&q. (Hz)
PTSPERDEC	QUANT	1.00000E+001	Points/&decade
VAC	QUANT	2.50000E+001	AC &Voltage (mV rms)
AREA	QUANT	1.00000E-002	&Area (cm^2)
CONDIT	TWOPARAM	T	5.00000E+000	0.00000E+000	Conditionin&g	Time(s)	E(V)
DELAY	TWOPARAM	T	5.00000E+000	0.00000E+000	Init. De&lay	Time(s)	Stab.(mV/s)
SPEED	SELECTOR	1	&Optimize for:
ZGUESS	QUANT	1.00000E+004	E&stimated Z (ohms)
OCVCURVE	TABLE	19
	Pt	T	Vf	Vm	Ach	Over
	#	s	V vs. Ref.	V	V	bits
	0	0.258333	-1.81468E-002	-1.81468E-002	5.69732E-004	...........
	1	0.516667	-1.81680E-002	-1.92553E-002	5.66766E-004	...........
	2	0.775	-1.82974E-002	-2.02728E-002	5.69099E-004	...........
	3	1.03333	-1.86607E-002	-2.12177E-002	5.67466E-004	...........
	4	1.29167	-1.93038E-002	-2.21086E-002	5.64732E-004	...........
	5	1.55	-2.01465E-002	-2.29215E-002	5.70166E-004	...........
	6	1.80833	-2.10634E-002	-2.36877E-002	5.70599E-004	...........
	7	2.06667	-2.19638E-002	-2.44190E-002	5.72166E-004	...........
	8	2.325	-2.28098E-002	-2.51037E-002	5.63566E-004	...........
	9	2.58333	-2.35965E-002	-2.57401E-002	5.65499E-004	...........
	10	2.84167	-2.43305E-002	-2.63398E-002	5.65432E-004	...........
	11	3.1	-2.50106E-002	-2.65344E-002	5.67466E-004	...........
	12	3.35833	-2.56139E-002	-2.68284E-002	5.69232E-004	...........
	13	3.61667	-2.61127E-002	-2.72665E-002	5.66899E-004	...........
	14	3.875	-2.65177E-002	-2.75970E-002	5.68366E-004	...........
	15	4.13333	-2.68744E-002	-2.79177E-002	5.68232E-004	...........
	16	4.39167	-2.72178E-002	-2.82330E-002	5.60599E-004	...........
	17	4.65	-2.75556E-002	-2.85494E-002	5.68566E-004	...........
	18	4.90833	-2.78854E-002	-2.88631E-002	5.62799E-004	...........
EOC	QUANT	-0.0278854	Open Circuit (V)
PSTATMODEL	IQUANT	4	Pstat Model
PSTATSECTION	LABEL	REF600-11020	Pstat Section
PSTATSERIALNO	LABEL	11020	Pstat Serial Number
CTRLMODE	IQUANT	1	Control Mode
IESTAB	IQUANT	0	I/E Stability
CASPEED	IQUANT	1	Control Amp Speed
CONVENTION	IQUANT	1	Current Convention
ICHRANGE	IQUANT	2	Ich Range
ICHRANGEMODE	TOGGLE	F	Ich Auto Range
ICHOFFSETENABLE	TOGGLE	T	Ich Offset Enable
ICHOFFSET	QUANT	0	Ich Offset (V)
ICHFILTER	IQUANT	3	Ich Filter
VCHRANGE	IQUANT	2	Vch Range
VCHRANGEMODE	TOGGLE	F	Vch Auto Range
VCHOFFSETENABLE	TOGGLE	T	Vch Offset Enable
VCHOFFSET	QUANT	0	Vch Offset (V)
VCHFILTER	IQUANT	3	Vch Filter
ACHRANGE	IQUANT	2	Ach Range
ACHOFFSETENABLE	TOGGLE	F	Ach Offset Enable
ACHOFFSET	QUANT	0	Ach Offset (V)
ACHFILTER	IQUANT	3	Ach Filter
IERANGELOWERLIMIT	IQUANT	1	I/E Range Lower Limit
IERANGEMODE	TOGGLE	F	I/E AutoRange
IERANGE	IQUANT	6	I/E Range
POSFEEDENABLE	TOGGLE	F	Positive Feedback IR Comp
POSFEEDRESISTANCE	QUANT	0	Positive Feedback Resistance (ohm)
ACHSELECT	IQUANT	0	Ach Select
CABLEID	IQUANT	14	Cable ID
DCCALDATE	LABEL	8/19/2019	DC Calibration Date
ACCALDATE	LABEL	8/19/2019	AC Calibration Date
THERMOSELECT	IQUANT	1	Thermo Select
FRAMEWORKVERSION	QUANT	6.33	Framework Version
INSTRUMENTVERSION	LABEL	3.50	Instrument Version
ZCURVE	TABLE
	Pt	Time	Freq	Zreal	Zimag	Zsig	Zmod	Zphz	Idc	Vdc	IERange
	#	s	Hz	ohm	ohm	V	ohm	°	A	V	#
	0	1	1000078	1290.252	-2016.684	1	2394.111	-57.38934	1.489752E-008	-0.0257436	8
	1	3	794390.6	1423.565	-2366.668	1	2761.821	-58.97284	1.32289E-007	-0.0260864	8
	2	4	630984.4	1608.644	-2799.222	1	3228.526	-60.11509	7.726442E-007	-0.0264197	8
	3	5	501234.4	1815.198	-3338.642	1	3800.194	-61.46736	-1.250123E-006	-0.0260943	8
	4	7	398109.4	2124.711	-3970.342	1	4503.112	-61.84673	-4.747471E-007	-0.0260788	8
	5	8	316265.6	2508.789	-4753.707	1	5375.104	-62.17696	-5.359675E-007	-0.0261207	8
	6	10	251203.1	3009.952	-5641.684	1	6394.404	-61.91918	7.208322E-007	-0.0264549	8
	7	11	199546.9	3681.729	-6665.853	1	7615.033	-61.08695	-3.422554E-007	-0.0264163	8
	8	13	158578.1	4570.413	-7868.351	1	9099.43	-59.8494	-5.13161E-007	-0.026148	8
	9	15	125953.1	5780.778	-9051.893	1	10740.31	-57.43662	-1.880258E-007	-0.0264225	7
	10	16	100078.1	7143.958	-10346.13	1	12572.93	-55.37508	6.800862E-008	-0.0265471	7
	11	17	79453.13	8824.584	-11671.02	1	14631.67	-52.90667	-7.098939E-008	-0.0263543	7
	12	19	63140.62	10852.19	-12960.4	1	16903.91	-50.05939	3.233243E-009	-0.0265029	7
	13	20	50203.12	13191.92	-14130.45	1	19331.23	-46.96734	3.902891E-008	-0.0265888	7
	14	21	39890.62	15817.99	-15102.08	1	21869.65	-43.67362	3.932676E-008	-0.0265896	7
	15	23	31640.63	18714.69	-15732.96	1	24449.25	-40.05289	-4.3099E-008	-0.0264168	7
	16	24	25171.88	21714.42	-16079.84	1	27019.94	-36.52049	6.97953E-008	-0.0265621	7
	17	25	20015.62	24663.88	-15920.36	1	29355.84	-32.84196	1.118198E-008	-0.0265452	7
	18	27	15890.62	27565.05	-15683.59	1	31714.46	-29.63842	-7.058461E-009	-0.0264296	7
	19	28	12609.37	30397.89	-14656.06	1	33746.58	-25.74061	-6.778453E-009	-0.0264006	6
	20	30	10078.13	32674.62	-13897.93	1	35507.51	-23.04216	6.518238E-009	-0.0265062	6
	21	31	8015.625	34683.63	-13021.53	1	37047.46	-20.57801	-8.150506E-009	-0.026441	6
	22	32	6328.125	36577.54	-12171.27	1	38549.4	-18.405	-1.937995E-009	-0.0265132	6
	23	34	5015.625	38160.82	-11388.42	1	39823.92	-16.6168	6.821712E-009	-0.0266448	6
	24	35	3984.375	39497.61	-10770.53	1	40939.78	-15.25304	9.208733E-009	-0.0266769	6
	25	36	3170.956	40757.72	-10283.78	1	42035.08	-14.16101	1.802861E-008	-0.0268007	6
	26	38	2527.573	41883.75	-9955.67	1	43050.71	-13.37093	8.731952E-009	-0.0266866	6
	27	39	1976.103	43014.72	-9846.46	1	44127.31	-12.89339	7.048768E-009	-0.0264441	6
	28	40	1577.524	44044.68	-9824.05	1	45127	-12.57385	9.081215E-009	-0.0266888	6
	29	42	1265.625	44843.59	-9815.9	1	45905.34	-12.34684	-7.983457E-009	-0.0264174	6
	30	43	998.264	45933.85	-10444.3	1	47106.28	-12.80994	-5.072653E-009	-0.0263923	6
	31	45	796.875	46922.32	-11083.28	1	48213.52	-13.28996	-8.251776E-009	-0.0264465	6
	32	46	627.7902	47991.99	-12025.18	1	49475.61	-14.06678	-4.805087E-009	-0.0264032	6
	33	47	505.5147	48999.89	-13151.44	1	50734.11	-15.02395	2.088052E-008	-0.0267642	6
	34	49	397.9953	50233.3	-14741.16	1	52351.56	-16.35453	3.347032E-009	-0.0265147	6
	35	50	315.5048	51556.88	-16692.24	1	54191.72	-17.94006	4.172638E-009	-0.0265155	6
	36	51	252.4038	53012.87	-19009.31	1	56318.01	-19.72677	3.350309E-009	-0.0265104	6
	37	53	198.6229	54848.26	-21983.49	1	59089.81	-21.84119	3.295419E-009	-0.0265052	6
	38	54	158.3615	56815.34	-25314.32	1	62199.66	-24.01557	3.379283E-009	-0.0265066	6
	39	56	125.558	59270.56	-29473.2	1	66194.18	-26.43957	3.600152E-009	-0.0265101	6
	40	57	100.4464	61974.17	-34408.83	1	70885.58	-29.03958	3.52747E-009	-0.0265187	6
	41	58	79.00281	66094.69	-40369.27	1	77447.95	-31.41572	3.251904E-009	-0.0265081	6
	42	60	63.3446	70673.93	-48161.18	1	85523.7	-34.27271	3.206714E-009	-0.0265098	6
	43	61	49.86702	73825.66	-54610.62	1	91828.91	-36.49123	4.071083E-009	-0.0265097	6
	44	63	39.72458	80888.84	-62854.57	1	102438.8	-37.84895	2.827141E-009	-0.02651	5
	45	64	31.6723	88101.16	-72641.43	1	114186.6	-39.50637	3.212351E-009	-0.0265173	5
	46	66	24.93351	97379.1	-83904.48	1	128540.5	-40.74909	2.899783E-009	-0.0265091	5
	47	67	19.86229	107969.9	-95766.5	1	144321.6	-41.57219	3.456278E-009	-0.0265086	5
	48	68	15.83615	122549.4	-109221.3	1	164157.4	-41.70879	4.94438E-009	-0.0265141	5
	49	70	12.40079	133422.8	-124734.9	1	182648.4	-43.07252	2.668318E-009	-0.0265105	5
	50	71	9.93114	151671.2	-139124.3	1	205814.8	-42.52941	2.091332E-009	-0.0265092	5
	51	73	7.944915	170893.4	-156715	1	231870.9	-42.52187	3.093247E-009	-0.0265089	5
	52	74	6.317385	191342.2	-173449.8	1	258257	-42.19198	2.288862E-009	-0.0265056	5
	53	76	5.008013	215527.1	-192188.3	1	288770.3	-41.72379	2.459435E-009	-0.0265114	5
	54	79	3.945707	242695.2	-213348.5	1	323138.6	-41.31805	2.783439E-009	-0.0265063	5
	55	82	3.158693	270323.5	-234289.5	1	357723.8	-40.91548	3.003842E-009	-0.0265103	5
	56	85	2.504006	301962.4	-258382.8	1	397420.4	-40.55289	2.436526E-009	-0.0264981	5
	57	88	1.998082	334293.5	-283203.9	1	438128.5	-40.27032	3.191202E-009	-0.0265516	5
	58	91	1.584686	371173.1	-312258.6	1	485051.4	-40.07306	2.736981E-009	-0.0265018	5
	59	95	1.266892	410848.6	-342560.4	1	534924.5	-39.82092	2.976604E-009	-0.0265501	5
	60	99	0.999041	455785.3	-378998.1	1	592773	-39.74446	3.148707E-009	-0.0264656	5
