EXPLAIN
TAG	EISPOT
TITLE	LABEL	Potentiostatic EIS	Test &Identifier
DATE	LABEL	11/27/2019	Date
TIME	LABEL	13:06:05	Time
NOTES	NOTES	3	&Notes...
	
	
	
PSTAT	PSTAT	REF600-11020	Potentiostat
VDC	POTEN	0.00000E+000	T	DC &Voltage (V)
FREQINIT	QUANT	1.00000E+006	Initial Fre&q. (Hz)
FREQFINAL	QUANT	1.00000E+000	Final Fre&q. (Hz)
PTSPERDEC	QUANT	1.00000E+001	Points/&decade
VAC	QUANT	2.50000E+001	AC &Voltage (mV rms)
AREA	QUANT	1.00000E-002	&Area (cm^2)
CONDIT	TWOPARAM	T	5.00000E+000	0.00000E+000	Conditionin&g	Time(s)	E(V)
DELAY	TWOPARAM	T	5.00000E+000	0.00000E+000	Init. De&lay	Time(s)	Stab.(mV/s)
SPEED	SELECTOR	0	&Optimize for:
ZGUESS	QUANT	1.00000E+005	E&stimated Z (ohms)
OCVCURVE	TABLE	19
	Pt	T	Vf	Vm	Ach	Over
	#	s	V vs. Ref.	V	V	bits
	0	0.258333	3.46878E-003	3.46878E-003	5.57666E-004	...........
	1	0.516667	3.45833E-003	2.92211E-003	5.54899E-004	...........
	2	0.775	3.39537E-003	2.46476E-003	5.51166E-004	...........
	3	1.03333	3.22102E-003	2.02167E-003	5.54266E-004	...........
	4	1.29167	2.91739E-003	1.65739E-003	5.51866E-004	...........
	5	1.55	2.52741E-003	1.29692E-003	5.60466E-004	...........
	6	1.80833	2.11364E-003	9.98417E-004	5.62232E-004	...........
	7	2.06667	1.71837E-003	6.70803E-004	5.60699E-004	...........
	8	2.325	1.35622E-003	4.11701E-004	5.55199E-004	...........
	9	2.58333	1.02522E-003	1.19642E-004	5.59666E-004	...........
	10	2.84167	7.19392E-004	-9.20774E-005	5.53866E-004	...........
	11	3.1	4.34415E-004	-3.71340E-004	5.59599E-004	...........
	12	3.35833	1.67512E-004	-5.45528E-004	5.55666E-004	...........
	13	3.61667	-8.35363E-005	-8.05673E-004	5.52066E-004	...........
	14	3.875	-3.20043E-004	-9.37354E-004	5.56399E-004	...........
	15	4.13333	-5.41965E-004	-1.16564E-003	5.58799E-004	...........
	16	4.39167	-7.49007E-004	-1.29988E-003	5.59166E-004	...........
	17	4.65	-9.42490E-004	-1.49560E-003	5.55566E-004	...........
	18	4.90833	-1.12376E-003	-1.56827E-003	5.55133E-004	...........
EOC	QUANT	-0.0011238	Open Circuit (V)
PSTATMODEL	IQUANT	4	Pstat Model
PSTATSECTION	LABEL	REF600-11020	Pstat Section
PSTATSERIALNO	LABEL	11020	Pstat Serial Number
CTRLMODE	IQUANT	1	Control Mode
IESTAB	IQUANT	0	I/E Stability
CASPEED	IQUANT	1	Control Amp Speed
CONVENTION	IQUANT	1	Current Convention
ICHRANGE	IQUANT	2	Ich Range
ICHRANGEMODE	TOGGLE	F	Ich Auto Range
ICHOFFSETENABLE	TOGGLE	T	Ich Offset Enable
ICHOFFSET	QUANT	0	Ich Offset (V)
ICHFILTER	IQUANT	3	Ich Filter
VCHRANGE	IQUANT	2	Vch Range
VCHRANGEMODE	TOGGLE	F	Vch Auto Range
VCHOFFSETENABLE	TOGGLE	T	Vch Offset Enable
VCHOFFSET	QUANT	0	Vch Offset (V)
VCHFILTER	IQUANT	3	Vch Filter
ACHRANGE	IQUANT	2	Ach Range
ACHOFFSETENABLE	TOGGLE	F	Ach Offset Enable
ACHOFFSET	QUANT	0	Ach Offset (V)
ACHFILTER	IQUANT	3	Ach Filter
IERANGELOWERLIMIT	IQUANT	1	I/E Range Lower Limit
IERANGEMODE	TOGGLE	F	I/E AutoRange
IERANGE	IQUANT	4	I/E Range
POSFEEDENABLE	TOGGLE	F	Positive Feedback IR Comp
POSFEEDRESISTANCE	QUANT	0	Positive Feedback Resistance (ohm)
ACHSELECT	IQUANT	0	Ach Select
CABLEID	IQUANT	14	Cable ID
DCCALDATE	LABEL	8/19/2019	DC Calibration Date
ACCALDATE	LABEL	8/19/2019	AC Calibration Date
THERMOSELECT	IQUANT	1	Thermo Select
FRAMEWORKVERSION	QUANT	6.33	Framework Version
INSTRUMENTVERSION	LABEL	3.50	Instrument Version
ZCURVE	TABLE
	Pt	Time	Freq	Zreal	Zimag	Zsig	Zmod	Zphz	Idc	Vdc	IERange
	#	s	Hz	ohm	ohm	V	ohm	°	A	V	#
	0	1	1000078	2240.942	-1878.209	1	2923.951	-39.9675	-4.912842E-006	0.0008349	8
	1	2	794390.6	2629.571	-1873.002	1	3228.433	-35.46167	1.05037E-005	-4.921413E-005	8
	2	2	630984.4	3004.313	-1829.12	1	3517.326	-31.33436	-7.656172E-006	0.0011958	8
	3	2	501234.4	3306.922	-1730.251	1	3732.225	-27.61951	-2.729451E-006	0.001243	8
	4	3	398109.4	3607.659	-1602.394	1	3947.514	-23.94909	-1.332754E-006	0.0003554	8
	5	3	316265.6	3826.169	-1474.849	1	4100.579	-21.07984	1.85278E-006	0.0008503	8
	6	3	251203.1	4061.886	-1334.881	1	4275.608	-18.19238	-5.698446E-006	0.0013687	8
	7	4	199546.9	4214.39	-1197.325	1	4381.172	-15.86007	-5.430958E-006	0.0013592	8
	8	4	158578.1	4340.005	-1130.626	1	4484.859	-14.60172	5.742249E-006	-0.000539	8
	9	4	125953.1	4522.058	-978.403	1	4626.692	-12.20846	2.020468E-006	0.0005322	7
	10	4	100078.1	4580.667	-911.1021	1	4670.397	-11.24941	-1.215579E-006	0.0015825	7
	11	5	79453.13	4675.018	-894.2002	1	4759.768	-10.82829	6.080743E-007	0.0007175	7
	12	5	63140.62	4767.519	-885.9192	1	4849.133	-10.52686	-8.896283E-007	0.0021709	7
	13	5	50203.12	4859.868	-901.8911	1	4942.846	-10.51331	1.148445E-007	-0.0008833	7
	14	6	39890.62	4943.227	-921.0724	1	5028.307	-10.55489	1.107783E-006	-0.0006451	7
	15	6	31640.63	5028.959	-968.153	1	5121.304	-10.89701	-9.022706E-007	0.0021812	7
	16	6	25171.88	5126.582	-1033.387	1	5229.697	-11.39664	4.874359E-007	-0.0011831	7
	17	7	20015.62	5225.917	-1123.656	1	5345.354	-12.13476	-1.219286E-006	0.0015668	7
	18	7	15890.62	5358.755	-1240.44	1	5500.449	-13.03323	9.862212E-007	-0.0012153	7
	19	7	12609.37	5472.263	-1374.872	1	5642.334	-14.1033	-1.223841E-006	0.001571	7
	20	8	10078.13	5622.541	-1521.367	1	5824.734	-15.14073	7.745938E-007	-0.001291	7
	21	8	8015.625	5780.548	-1710.636	1	6028.351	-16.48505	1.255241E-007	-0.0008896	7
	22	8	6328.125	5958.518	-1954.319	1	6270.829	-18.15884	7.794632E-007	-0.0013012	7
	23	9	5015.625	6183.98	-2212.114	1	6567.728	-19.68298	1.106167E-006	-0.0006563	7
	24	9	3984.375	6398.539	-2503.634	1	6870.916	-21.36951	-6.267534E-007	0.0020861	7
	25	10	3170.956	6661.677	-2861.087	1	7250.086	-23.24277	-1.097335E-006	0.0021091	7
	26	10	2527.573	6974.967	-3261.293	1	7699.753	-25.05943	-7.31049E-007	0.0003113	7
	27	10	1976.103	7359.812	-3780.045	1	8273.788	-27.18531	6.135438E-007	0.0007052	7
	28	11	1577.524	7779.543	-4273.952	1	8876.258	-28.78366	1.109138E-006	-0.000665	7
	29	11	1265.625	8203.273	-4905.895	1	9558.32	-30.88116	8.476043E-007	0.0002492	7
	30	12	998.264	8728.768	-5558.172	1	10348.17	-32.48755	-9.03529E-007	0.0021699	7
	31	12	796.875	9317.396	-6345.858	1	11273.14	-34.25785	3.853506E-007	0.0010139	7
	32	12	627.7902	9984.22	-7250.171	1	12338.95	-35.98576	-4.990804E-008	-0.0009672	6
	33	12	505.5147	10614.4	-8187.056	1	13404.97	-37.64359	1.536293E-007	-0.0023672	6
	34	13	397.9953	11303	-9437.358	1	14724.86	-39.85995	1.261917E-009	0.0004361	6
	35	13	315.5048	11976.41	-10895.73	1	16191.09	-42.29485	-1.839609E-010	0.000435	6
	36	13	252.4038	12627.71	-12645.44	1	17870.82	-45.04019	-1.051601E-010	0.0004359	6
	37	14	198.6229	13349.16	-14996.76	1	20077.42	-48.32657	4.618914E-010	0.0004371	6
	38	14	158.3615	14053.42	-17817.79	1	22693	-51.73611	-6.294399E-010	0.0004395	6
	39	14	125.558	14899.59	-21442.44	1	26110.84	-55.20592	6.746522E-010	0.0004256	6
	40	15	100.4464	15785.14	-25790.88	1	30238.06	-58.53156	1.803654E-009	0.0004319	6
	41	15	79.00281	17059.89	-31490.65	1	35814.82	-61.55363	1.148924E-009	0.0004318	6
	42	15	63.3446	19343.71	-38568.64	1	43147.65	-63.36441	2.444837E-010	0.000433	6
	43	16	49.86702	21140.51	-47471.26	1	51965.77	-65.99503	1.126785E-009	0.0004292	6
	44	16	39.72458	23491.89	-57285.91	1	61915.62	-67.70238	1.130495E-009	0.0004238	6
	45	16	31.6723	26553.37	-69548.5	1	74445.12	-69.10332	1.307031E-009	0.0004287	6
	46	17	24.93351	31757.07	-85957.86	1	91636.59	-69.72328	9.434273E-010	0.0004171	6
	47	17	19.86229	38247.72	-104219.1	1	111015.8	-69.84719	3.165191E-010	0.0004397	5
	48	17	15.83615	43941.59	-126554.3	1	133965.8	-70.85221	-1.690786E-009	0.0004361	5
	49	18	12.40079	57233.31	-154269	1	164543.5	-69.6453	3.489354E-010	0.0004453	5
	50	18	9.93114	71987.95	-182024.6	1	195742.7	-68.42196	8.869052E-010	0.0004294	5
	51	19	7.944915	90065.69	-215773.8	1	233816.5	-67.34396	5.422709E-010	0.0004393	5
	52	19	6.317385	112193.1	-254617.5	1	278239.8	-66.22008	4.710944E-010	0.0004353	5
	53	20	5.008013	140417.6	-299374.8	1	330669.6	-64.87171	6.379702E-010	0.0004511	5
	54	21	3.945707	174107	-351736.3	1	392468.7	-63.66491	-9.055598E-010	0.0004398	5
	55	23	3.158693	209506.1	-403156.3	1	454343.3	-62.5407	6.806846E-010	0.0004163	5
	56	24	2.504006	251915.2	-464499.6	1	528413.8	-61.52739	3.235757E-010	0.0004321	5
	57	25	1.998082	295868.2	-532609.6	1	609270.8	-60.94754	1.552499E-010	0.0004202	5
	58	27	1.584686	346976.1	-616405.3	1	707352.8	-60.62473	1.486828E-010	0.0003869	5
	59	29	1.266892	399712.2	-712539.9	1	816996.3	-60.70897	1.503894E-010	0.0003986	5
	60	31	0.999041	462479	-832683.6	1	952496	-60.95187	1.707425E-010	0.0004316	5
