EXPLAIN
TAG	EISPOT
TITLE	LABEL	Potentiostatic IDE	Test &Identifier
DATE	LABEL	9/14/2019	Date
TIME	LABEL	13:50:32	Time
NOTES	NOTES	1	&Notes...
	
PSTAT	PSTAT	REF600-11020	Potentiostat
VDC	POTEN	0.00000E+000	T	DC &Voltage (V)
FREQINIT	QUANT	1.00000E+006	Initial Fre&q. (Hz)
FREQFINAL	QUANT	1.00000E+000	Final Fre&q. (Hz)
PTSPERDEC	QUANT	1.00000E+001	Points/&decade
VAC	QUANT	2.50000E+001	AC &Voltage (mV rms)
AREA	QUANT	1.00000E-002	&Area (cm^2)
CONDIT	TWOPARAM	T	5.00000E+000	0.00000E+000	Conditionin&g	Time(s)	E(V)
DELAY	TWOPARAM	T	5.00000E+000	0.00000E+000	Init. De&lay	Time(s)	Stab.(mV/s)
SPEED	SELECTOR	1	&Optimize for:
ZGUESS	QUANT	1.00000E+007	E&stimated Z (ohms)
OCVCURVE	TABLE	19
	Pt	T	Vf	Vm	Ach	Over
	#	s	V vs. Ref.	V	V	bits
	0	0.258333	1.32263E-002	1.32263E-002	5.42933E-004	...........
	1	0.516667	1.32259E-002	1.32052E-002	5.46899E-004	...........
	2	0.775	1.32240E-002	1.32159E-002	5.46433E-004	...........
	3	1.03333	1.32211E-002	1.32528E-002	5.46399E-004	...........
	4	1.29167	1.32221E-002	1.32976E-002	5.52766E-004	...........
	5	1.55	1.32343E-002	1.33701E-002	5.49166E-004	...........
	6	1.80833	1.32626E-002	1.34310E-002	5.46166E-004	...........
	7	2.06667	1.33070E-002	1.34949E-002	5.42333E-004	...........
	8	2.325	1.33636E-002	1.35952E-002	5.43299E-004	...........
	9	2.58333	1.34294E-002	1.36679E-002	5.44599E-004	...........
	10	2.84167	1.35025E-002	1.37371E-002	5.47433E-004	...........
	11	3.1	1.35796E-002	1.38082E-002	5.42433E-004	...........
	12	3.35833	1.36564E-002	1.38786E-002	5.51433E-004	...........
	13	3.61667	1.37311E-002	1.39734E-002	5.51399E-004	...........
	14	3.875	1.38053E-002	1.40306E-002	5.55399E-004	...........
	15	4.13333	1.38812E-002	1.41606E-002	5.45233E-004	...........
	16	4.39167	1.39620E-002	1.42659E-002	5.49899E-004	...........
	17	4.65	1.40501E-002	1.43053E-002	5.49733E-004	...........
	18	4.90833	1.41409E-002	1.43355E-002	5.42299E-004	...........
EOC	QUANT	0.0141409	Open Circuit (V)
PSTATMODEL	IQUANT	4	Pstat Model
PSTATSECTION	LABEL	REF600-11020	Pstat Section
PSTATSERIALNO	LABEL	11020	Pstat Serial Number
CTRLMODE	IQUANT	1	Control Mode
IESTAB	IQUANT	0	I/E Stability
CASPEED	IQUANT	1	Control Amp Speed
CONVENTION	IQUANT	1	Current Convention
ICHRANGE	IQUANT	2	Ich Range
ICHRANGEMODE	TOGGLE	F	Ich Auto Range
ICHOFFSETENABLE	TOGGLE	T	Ich Offset Enable
ICHOFFSET	QUANT	0	Ich Offset (V)
ICHFILTER	IQUANT	3	Ich Filter
VCHRANGE	IQUANT	2	Vch Range
VCHRANGEMODE	TOGGLE	F	Vch Auto Range
VCHOFFSETENABLE	TOGGLE	T	Vch Offset Enable
VCHOFFSET	QUANT	0	Vch Offset (V)
VCHFILTER	IQUANT	3	Vch Filter
ACHRANGE	IQUANT	2	Ach Range
ACHOFFSETENABLE	TOGGLE	F	Ach Offset Enable
ACHOFFSET	QUANT	0	Ach Offset (V)
ACHFILTER	IQUANT	3	Ach Filter
IERANGELOWERLIMIT	IQUANT	1	I/E Range Lower Limit
IERANGEMODE	TOGGLE	F	I/E AutoRange
IERANGE	IQUANT	3	I/E Range
POSFEEDENABLE	TOGGLE	F	Positive Feedback IR Comp
POSFEEDRESISTANCE	QUANT	0	Positive Feedback Resistance (ohm)
ACHSELECT	IQUANT	0	Ach Select
CABLEID	IQUANT	14	Cable ID
DCCALDATE	LABEL	8/19/2019	DC Calibration Date
ACCALDATE	LABEL	8/19/2019	AC Calibration Date
THERMOSELECT	IQUANT	1	Thermo Select
FRAMEWORKVERSION	QUANT	6.33	Framework Version
INSTRUMENTVERSION	LABEL	3.50	Instrument Version
ZCURVE	TABLE
	Pt	Time	Freq	Zreal	Zimag	Zsig	Zmod	Zphz	Idc	Vdc	IERange
	#	s	Hz	ohm	ohm	V	ohm	°	A	V	#
	0	2	1000078	2522.533	-2004.536	1	3222.008	-38.47247	1.179828E-006	0.0169642	8
	1	3	794390.6	2917.26	-1976.116	1	3523.555	-34.11322	-1.560821E-006	0.0167909	8
	2	5	630984.4	3289.735	-1867.018	1	3782.606	-29.57615	3.915134E-006	0.0155381	8
	3	6	501234.4	3640.052	-1734.782	1	4032.301	-25.48162	-1.907299E-006	0.0160385	8
	4	8	398109.4	3900.986	-1601.857	1	4217.065	-22.32446	-1.101743E-006	0.015953	8
	5	9	316265.6	4127.67	-1400.379	1	4358.752	-18.74034	-1.503483E-006	0.016364	8
	6	10	251203.1	4280.206	-1243.057	1	4457.057	-16.19435	-4.167678E-006	0.0167247	8
	7	12	199546.9	4428.228	-1117.991	1	4567.177	-14.16932	1.170628E-007	0.0157718	8
	8	13	158578.1	4528.482	-991.058	1	4635.661	-12.34455	-1.181357E-006	0.0159022	8
	9	15	125953.1	4661.911	-838.2636	1	4736.676	-10.19349	-7.741849E-007	0.0174178	7
	10	16	100078.1	4725.16	-787.9221	1	4790.403	-9.466987	5.990739E-008	0.0157481	7
	11	17	79453.13	4797.813	-758.5165	1	4857.402	-8.983895	-9.320812E-009	0.0158381	7
	12	19	63140.62	4867.144	-747.3563	1	4924.188	-8.729659	1.531382E-008	0.0159346	7
	13	20	50203.12	4934.512	-753.4538	1	4991.703	-8.681477	-6.273746E-008	0.0159282	7
	14	21	39890.62	5005.984	-776.3176	1	5065.822	-8.815092	-6.528469E-008	0.0159622	7
	15	23	31640.63	5084.236	-817.1569	1	5149.486	-9.130698	4.777759E-008	0.0156951	7
	16	24	25171.88	5167.165	-871.9165	1	5240.213	-9.57796	4.928404E-008	0.0156906	7
	17	25	20015.62	5257.963	-943.256	1	5341.901	-10.17043	8.314491E-008	0.0156666	7
	18	27	15890.62	5357.906	-1034.431	1	5456.849	-10.92744	4.85277E-008	0.0156925	7
	19	28	12609.37	5471.152	-1144.809	1	5589.641	-11.81832	1.19167E-007	0.0156696	7
	20	29	10078.13	5592.44	-1269.565	1	5734.734	-12.7902	-6.371984E-009	0.0158224	7
	21	31	8015.625	5731.146	-1418.798	1	5904.153	-13.90455	-8.109468E-008	0.0159455	7
	22	32	6328.125	5893.975	-1600.567	1	6107.435	-15.19284	-8.018515E-008	0.0159397	7
	23	34	5015.625	6071.674	-1805.964	1	6334.566	-16.56463	-5.470926E-009	0.0157714	7
	24	35	3984.375	6272.103	-2040.687	1	6595.731	-18.02278	-3.538791E-009	0.0157652	7
	25	37	3170.956	6499.599	-2311.042	1	6898.239	-19.5737	1.044244E-007	0.0157394	7
	26	38	2527.573	6755.99	-2611.827	1	7243.275	-21.13622	-6.042719E-009	0.0158185	7
	27	39	1976.103	7069.479	-2985.207	1	7673.917	-22.89273	4.917308E-008	0.0156858	7
	28	41	1577.524	7395.618	-3368.243	1	8126.514	-24.48631	1.200115E-007	0.0156597	7
	29	42	1265.625	7738.275	-3792.028	1	8617.446	-26.10649	-5.251545E-009	0.0158156	7
	30	43	998.264	8125.662	-4295.199	1	9191.034	-27.86079	-8.215122E-008	0.0159324	7
	31	45	796.875	8515.06	-4848.064	1	9798.47	-29.6551	-2.435536E-009	0.0159082	6
	32	46	627.7902	8917.823	-5549.185	1	10503.38	-31.89226	1.802728E-009	0.015784	6
	33	47	505.5147	9271.902	-6331.083	1	11227.23	-34.32623	-1.168978E-009	0.0156493	6
	34	49	397.9953	9661.75	-7408.234	1	12175.03	-37.47952	1.029737E-009	0.0157885	6
	35	50	315.5048	10032.59	-8734.759	1	13302.21	-41.04409	7.741198E-010	0.0157863	6
	36	51	252.4038	10401.56	-10343.95	1	14669.35	-44.8409	1.328226E-009	0.0157854	6
	37	53	198.6229	10834.99	-12529.9	1	16564.88	-49.14902	6.097682E-010	0.0157833	6
	38	54	158.3615	11299.11	-15142.27	1	18893.34	-53.26981	3.387794E-010	0.0157834	6
	39	55	125.558	11877.61	-18482.78	1	21970.22	-57.27394	3.544961E-010	0.0157859	6
	40	57	100.4464	12555.05	-22500.44	1	25766.24	-60.83886	1.293565E-009	0.0157843	6
	41	58	79.00281	13464.91	-27864.11	1	30946.93	-64.20856	-1.890103E-010	0.0157844	6
	42	59	63.3446	14885	-33625.63	1	36772.91	-66.12254	1.69538E-011	0.0157821	6
	43	61	49.86702	15935.89	-42121.71	1	45035.45	-69.27689	-1.522848E-010	0.015788	6
	44	62	39.72458	18211.67	-51411.66	1	54541.94	-70.49422	6.292583E-010	0.0157906	6
	45	64	31.6723	20562.22	-62796.93	1	66077.67	-71.86948	2.132748E-010	0.0157854	6
	46	65	24.93351	24254.3	-77569.27	1	81272.77	-72.63662	1.521071E-010	0.0157842	6
	47	66	19.86229	28724.46	-94548.38	1	98815.4	-73.10085	5.802498E-010	0.0157883	6
	48	68	15.83615	35580.53	-115746.3	1	121091.6	-72.91252	2.196197E-009	0.0157832	5
	49	69	12.40079	43051.36	-140628.8	1	147071	-72.97884	-1.076768E-009	0.0157882	5
	50	70	9.93114	51531.19	-171016.7	1	178611.8	-73.23127	2.665492E-010	0.0157854	5
	51	72	7.944915	63394.4	-205608.7	1	215159.9	-72.86414	9.000915E-011	0.0157833	5
	52	74	6.317385	77843.05	-247921.7	1	259855.1	-72.56863	1.903248E-010	0.015776	5
	53	76	5.008013	96906.4	-299233.9	1	314534.2	-72.05554	7.021386E-011	0.0157826	5
	54	78	3.945707	120885.3	-361887.3	1	381543.8	-71.52856	2.466373E-010	0.0158011	5
	55	81	3.158693	148438.8	-430681.2	1	455544.1	-70.98296	3.83528E-011	0.0157723	5
	56	84	2.504006	184178	-515713.3	1	547614.6	-70.3467	2.991041E-010	0.015781	5
	57	87	1.998082	226533.6	-613337.9	1	653835.6	-69.72852	2.04587E-010	0.0158229	5
	58	90	1.584686	276888.8	-728316.4	1	779174.1	-69.18437	1.351869E-010	0.0157939	5
	59	94	1.266892	339646.2	-862974.3	1	927407.2	-68.51658	1.060816E-010	0.0158291	5
	60	98	0.999041	419553.4	-1029550	1	1111755	-67.82854	3.617665E-011	0.0157544	4
