EXPLAIN
TAG	EISPOT
TITLE	LABEL	Potentiostatic EIS	Test &Identifier
DATE	LABEL	10/14/2019	Date
TIME	LABEL	9:53:27	Time
NOTES	NOTES	1	&Notes...
	
PSTAT	PSTAT	REF600-11020	Potentiostat
VDC	POTEN	0.00000E+000	T	DC &Voltage (V)
FREQINIT	QUANT	1.00000E+006	Initial Fre&q. (Hz)
FREQFINAL	QUANT	1.00000E+000	Final Fre&q. (Hz)
PTSPERDEC	QUANT	1.00000E+001	Points/&decade
VAC	QUANT	2.50000E+001	AC &Voltage (mV rms)
AREA	QUANT	1.00000E-002	&Area (cm^2)
CONDIT	TWOPARAM	T	5.00000E+000	0.00000E+000	Conditionin&g	Time(s)	E(V)
DELAY	TWOPARAM	T	5.00000E+000	0.00000E+000	Init. De&lay	Time(s)	Stab.(mV/s)
SPEED	SELECTOR	1	&Optimize for:
ZGUESS	QUANT	1.00000E+004	E&stimated Z (ohms)
OCVCURVE	TABLE	19
	Pt	T	Vf	Vm	Ach	Over
	#	s	V vs. Ref.	V	V	bits
	0	0.258333	5.66795E-003	5.66795E-003	5.58199E-004	...........
	1	0.516667	5.66577E-003	5.55394E-003	5.60366E-004	...........
	2	0.775	5.65275E-003	5.46471E-003	5.53099E-004	...........
	3	1.03333	5.61717E-003	5.38069E-003	5.58866E-004	...........
	4	1.29167	5.55630E-003	5.31855E-003	5.55133E-004	...........
	5	1.55	5.48036E-003	5.26796E-003	5.55533E-004	...........
	6	1.80833	5.40349E-003	5.21742E-003	5.56233E-004	...........
	7	2.06667	5.33472E-003	5.18108E-003	5.54766E-004	...........
	8	2.325	5.27656E-003	5.14829E-003	5.56366E-004	...........
	9	2.58333	5.22816E-003	5.12016E-003	5.51733E-004	...........
	10	2.84167	5.18785E-003	5.09746E-003	5.50933E-004	...........
	11	3.1	5.15405E-003	5.07598E-003	5.53966E-004	...........
	12	3.35833	5.12546E-003	5.06023E-003	5.52266E-004	...........
	13	3.61667	5.10123E-003	5.04957E-003	5.49999E-004	...........
	14	3.875	5.08101E-003	5.03873E-003	5.56533E-004	...........
	15	4.13333	5.06436E-003	5.01896E-003	5.57599E-004	...........
	16	4.39167	5.05008E-003	5.01295E-003	5.56033E-004	...........
	17	4.65	5.03690E-003	5.00182E-003	5.57632E-004	...........
	18	4.90833	5.02460E-003	4.99406E-003	5.56133E-004	...........
EOC	QUANT	0.0050246	Open Circuit (V)
PSTATMODEL	IQUANT	4	Pstat Model
PSTATSECTION	LABEL	REF600-11020	Pstat Section
PSTATSERIALNO	LABEL	11020	Pstat Serial Number
CTRLMODE	IQUANT	1	Control Mode
IESTAB	IQUANT	0	I/E Stability
CASPEED	IQUANT	1	Control Amp Speed
CONVENTION	IQUANT	1	Current Convention
ICHRANGE	IQUANT	2	Ich Range
ICHRANGEMODE	TOGGLE	F	Ich Auto Range
ICHOFFSETENABLE	TOGGLE	T	Ich Offset Enable
ICHOFFSET	QUANT	0	Ich Offset (V)
ICHFILTER	IQUANT	3	Ich Filter
VCHRANGE	IQUANT	2	Vch Range
VCHRANGEMODE	TOGGLE	F	Vch Auto Range
VCHOFFSETENABLE	TOGGLE	T	Vch Offset Enable
VCHOFFSET	QUANT	0	Vch Offset (V)
VCHFILTER	IQUANT	3	Vch Filter
ACHRANGE	IQUANT	2	Ach Range
ACHOFFSETENABLE	TOGGLE	F	Ach Offset Enable
ACHOFFSET	QUANT	0	Ach Offset (V)
ACHFILTER	IQUANT	3	Ach Filter
IERANGELOWERLIMIT	IQUANT	1	I/E Range Lower Limit
IERANGEMODE	TOGGLE	F	I/E AutoRange
IERANGE	IQUANT	5	I/E Range
POSFEEDENABLE	TOGGLE	F	Positive Feedback IR Comp
POSFEEDRESISTANCE	QUANT	0	Positive Feedback Resistance (ohm)
ACHSELECT	IQUANT	0	Ach Select
CABLEID	IQUANT	14	Cable ID
DCCALDATE	LABEL	8/19/2019	DC Calibration Date
ACCALDATE	LABEL	8/19/2019	AC Calibration Date
THERMOSELECT	IQUANT	1	Thermo Select
FRAMEWORKVERSION	QUANT	6.33	Framework Version
INSTRUMENTVERSION	LABEL	3.50	Instrument Version
ZCURVE	TABLE
	Pt	Time	Freq	Zreal	Zimag	Zsig	Zmod	Zphz	Idc	Vdc	IERange
	#	s	Hz	ohm	ohm	V	ohm	°	A	V	#
	0	2	1000078	2303.785	-1889.272	1	2979.392	-39.35426	9.135485E-006	0.0060466	8
	1	4	794390.6	2719.754	-1839.406	1	3283.363	-34.07102	-1.643899E-006	0.0064997	8
	2	5	630984.4	3079.682	-1715.562	1	3525.28	-29.12035	-4.711064E-006	0.0078718	8
	3	7	501234.4	3374.146	-1574.635	1	3723.485	-25.01736	-2.441886E-007	0.0069481	8
	4	8	398109.4	3628.942	-1386.271	1	3884.709	-20.90706	2.586665E-006	0.0060405	8
	5	9	316265.6	3812.267	-1200.524	1	3996.829	-17.47978	-1.599413E-006	0.0068419	8
	6	11	251203.1	3971.074	-1039.724	1	4104.931	-14.67208	1.180136E-006	0.0063423	8
	7	12	199546.9	4077.496	-876.5867	1	4170.657	-12.13287	2.432243E-006	0.0060405	8
	8	13	158578.1	4158.317	-770.0053	1	4229.008	-10.49077	-4.503641E-007	0.0066425	8
	9	15	125953.1	4226.096	-607.6799	1	4269.563	-8.182602	2.321544E-007	0.0058291	7
	10	16	100078.1	4273.08	-537.8212	1	4306.792	-7.173677	-6.245776E-008	0.0066293	7
	11	18	79453.13	4312.271	-487.0816	1	4339.693	-6.444385	-2.746081E-008	0.0065176	7
	12	19	63140.62	4348.209	-450.126	1	4371.445	-5.9102	-2.108896E-009	0.0066281	7
	13	20	50203.12	4383.473	-424.6765	1	4403.997	-5.533619	-1.229154E-008	0.0065442	7
	14	22	39890.62	4414.641	-412.6043	1	4433.881	-5.339507	-3.559626E-008	0.0065439	7
	15	23	31640.63	4447.93	-409.2496	1	4466.717	-5.256927	-2.528392E-008	0.0065133	7
	16	24	25171.88	4480.111	-417.9039	1	4499.56	-5.329119	-2.578399E-008	0.0065097	7
	17	26	20015.62	4501.535	-445.3936	1	4523.516	-5.650602	-2.639971E-008	0.0065112	7
	18	27	15890.62	4545.85	-467.5492	1	4569.831	-5.87233	-3.01002E-008	0.0065279	7
	19	28	12609.37	4580.091	-511.6491	1	4608.581	-6.374173	-1.219932E-008	0.0065394	7
	20	30	10078.13	4613.518	-569.3839	1	4648.521	-7.035663	3.635418E-008	0.0064015	7
	21	31	8015.625	4641.342	-624.24	1	4683.133	-7.660062	-2.930479E-008	0.0065244	7
	22	32	6328.125	4691.069	-747.9124	1	4750.316	-9.058612	3.683236E-008	0.0063968	7
	23	34	5015.625	4733.484	-875.9831	1	4813.857	-10.48459	-2.565896E-008	0.0065119	7
	24	35	3984.375	4765.584	-1026.52	1	4874.888	-12.15594	-1.860419E-009	0.0064714	7
	25	36	3170.956	4832.268	-1231.096	1	4986.623	-14.29295	6.216861E-008	0.006417	7
	26	38	2527.573	4893.234	-1471.1	1	5109.586	-16.73286	-5.839471E-008	0.0066076	7
	27	39	1976.103	4967.991	-1795.572	1	5282.52	-19.87129	3.734024E-008	0.0063901	7
	28	40	1577.524	5116.753	-2139.287	1	5545.963	-22.68954	-6.075439E-008	0.00661	7
	29	42	1265.625	5140.887	-2600.248	1	5761.077	-26.83017	-1.089291E-008	0.0065373	7
	30	43	998.264	5254.9	-3177.825	1	6141.055	-31.16285	7.459965E-008	0.0063549	7
	31	44	796.875	5385.137	-3860.631	1	6626.022	-35.63692	-2.246966E-008	0.0065824	7
	32	46	627.7902	5556.268	-4748.416	1	7308.869	-40.51738	3.637673E-008	0.0063953	7
	33	47	505.5147	5731.159	-5744.804	1	8114.736	-45.06813	8.090209E-008	0.0064582	7
	34	49	397.9953	5979.198	-7092.419	1	9276.487	-49.86775	5.076055E-009	0.0065236	7
	35	50	315.5048	6279.133	-8715.519	1	10741.87	-54.22897	1.244755E-009	0.0064605	6
	36	51	252.4038	6636.377	-10635.11	1	12535.83	-58.03557	5.894289E-010	0.00646	6
	37	53	198.6229	7127.336	-13174.71	1	14979.05	-61.58722	1.037374E-009	0.006458	6
	38	54	158.3615	7725.655	-16135.87	1	17890	-64.41547	1.081289E-009	0.0064575	6
	39	55	125.558	8542.064	-19860.49	1	21619.57	-66.72729	1.038438E-009	0.0064548	6
	40	57	100.4464	9538.91	-24238.54	1	26047.99	-68.51823	1.475501E-009	0.0064546	6
	41	58	79.00281	11101.64	-29960.93	1	31951.58	-69.66846	2.725064E-010	0.0064526	6
	42	59	63.3446	12900.21	-36031.72	1	38271.4	-70.30142	3.785627E-010	0.0064545	6
	43	61	49.86702	15692.13	-45019.11	1	47675.6	-70.78318	-1.558013E-010	0.0064565	6
	44	62	39.72458	18849.4	-54375.9	1	57550.31	-70.88113	6.388323E-010	0.006459	6
	45	64	31.6723	23522.19	-65641.02	1	69728.31	-70.28507	6.662346E-010	0.006455	6
	46	65	24.93351	29689	-79596.57	1	84953.23	-69.54482	8.10661E-010	0.0064503	6
	47	66	19.86229	37371.88	-94840.6	1	101938.2	-68.49311	1.352417E-009	0.0064617	6
	48	68	15.83615	46959.56	-112719	1	122109.7	-67.38303	-7.40477E-010	0.0064573	5
	49	69	12.40079	60637.6	-133181.6	1	146336.1	-65.52022	-3.053323E-010	0.0064615	5
	50	71	9.93114	75348.66	-154728.3	1	172099.6	-64.03513	-1.23712E-010	0.0064701	5
	51	72	7.944915	91947.55	-177417	1	199827.8	-62.60424	1.11687E-009	0.0064653	5
	52	74	6.317385	112489.4	-205195.3	1	234006.3	-61.26817	1.183686E-010	0.0064747	5
	53	76	5.008013	135382	-235414.2	1	271566.1	-60.09765	4.633939E-010	0.0064652	5
	54	78	3.945707	162046.5	-271136.6	1	315870.4	-59.13509	1.022939E-010	0.0064589	5
	55	81	3.158693	188930.6	-308966.8	1	362153.6	-58.55456	2.644747E-010	0.0064805	5
	56	84	2.504006	220786.2	-355811.3	1	418746	-58.17979	-2.201583E-010	0.0064599	5
	57	87	1.998082	255498.3	-407895.4	1	481308.7	-57.93771	-7.494693E-011	0.0064386	5
	58	90	1.584686	296016.2	-469071.9	1	554665.6	-57.7453	4.949762E-012	0.0065015	5
	59	94	1.266892	341349.8	-539647.8	1	638544.7	-57.68494	-5.73962E-011	0.0064387	5
	60	98	0.999041	395783.3	-626993.6	1	741461.7	-57.73825	1.633562E-010	0.0065094	5
