EXPLAIN
TAG	EISPOT
TITLE	LABEL	Potentiostatic IDE	Test &Identifier
DATE	LABEL	9/14/2019	Date
TIME	LABEL	9:21:46	Time
NOTES	NOTES	1	&Notes...
	
PSTAT	PSTAT	REF600-11020	Potentiostat
VDC	POTEN	0.00000E+000	T	DC &Voltage (V)
FREQINIT	QUANT	1.00000E+006	Initial Fre&q. (Hz)
FREQFINAL	QUANT	1.00000E+000	Final Fre&q. (Hz)
PTSPERDEC	QUANT	1.00000E+001	Points/&decade
VAC	QUANT	2.50000E+001	AC &Voltage (mV rms)
AREA	QUANT	1.00000E-002	&Area (cm^2)
CONDIT	TWOPARAM	T	5.00000E+000	0.00000E+000	Conditionin&g	Time(s)	E(V)
DELAY	TWOPARAM	T	5.00000E+000	0.00000E+000	Init. De&lay	Time(s)	Stab.(mV/s)
SPEED	SELECTOR	1	&Optimize for:
ZGUESS	QUANT	1.00000E+007	E&stimated Z (ohms)
OCVCURVE	TABLE	19
	Pt	T	Vf	Vm	Ach	Over
	#	s	V vs. Ref.	V	V	bits
	0	0.258333	1.14072E-002	1.14072E-002	5.63332E-004	...........
	1	0.516667	1.14143E-002	1.17799E-002	5.68432E-004	...........
	2	0.775	1.14581E-002	1.21360E-002	5.67066E-004	...........
	3	1.03333	1.15812E-002	1.24299E-002	5.68599E-004	...........
	4	1.29167	1.17992E-002	1.27848E-002	5.64999E-004	...........
	5	1.55	1.20880E-002	1.31270E-002	5.65832E-004	...........
	6	1.80833	1.24133E-002	1.34642E-002	5.63499E-004	...........
	7	2.06667	1.27522E-002	1.37769E-002	5.64999E-004	...........
	8	2.325	1.30913E-002	1.40726E-002	5.62199E-004	...........
	9	2.58333	1.34219E-002	1.43686E-002	5.61166E-004	...........
	10	2.84167	1.37395E-002	1.46382E-002	5.66232E-004	...........
	11	3.1	1.40438E-002	1.49418E-002	5.68832E-004	...........
	12	3.35833	1.43376E-002	1.52040E-002	5.63666E-004	...........
	13	3.61667	1.46244E-002	1.54679E-002	5.61532E-004	...........
	14	3.875	1.49046E-002	1.57144E-002	5.68899E-004	...........
	15	4.13333	1.51761E-002	1.59505E-002	5.61999E-004	...........
	16	4.39167	1.54371E-002	1.61798E-002	5.59132E-004	...........
	17	4.65	1.56871E-002	1.64106E-002	5.64932E-004	...........
	18	4.90833	1.59275E-002	1.66320E-002	5.62899E-004	...........
EOC	QUANT	0.0159275	Open Circuit (V)
PSTATMODEL	IQUANT	4	Pstat Model
PSTATSECTION	LABEL	REF600-11020	Pstat Section
PSTATSERIALNO	LABEL	11020	Pstat Serial Number
CTRLMODE	IQUANT	1	Control Mode
IESTAB	IQUANT	0	I/E Stability
CASPEED	IQUANT	1	Control Amp Speed
CONVENTION	IQUANT	1	Current Convention
ICHRANGE	IQUANT	2	Ich Range
ICHRANGEMODE	TOGGLE	F	Ich Auto Range
ICHOFFSETENABLE	TOGGLE	T	Ich Offset Enable
ICHOFFSET	QUANT	0	Ich Offset (V)
ICHFILTER	IQUANT	3	Ich Filter
VCHRANGE	IQUANT	2	Vch Range
VCHRANGEMODE	TOGGLE	F	Vch Auto Range
VCHOFFSETENABLE	TOGGLE	T	Vch Offset Enable
VCHOFFSET	QUANT	0	Vch Offset (V)
VCHFILTER	IQUANT	3	Vch Filter
ACHRANGE	IQUANT	2	Ach Range
ACHOFFSETENABLE	TOGGLE	F	Ach Offset Enable
ACHOFFSET	QUANT	0	Ach Offset (V)
ACHFILTER	IQUANT	3	Ach Filter
IERANGELOWERLIMIT	IQUANT	1	I/E Range Lower Limit
IERANGEMODE	TOGGLE	F	I/E AutoRange
IERANGE	IQUANT	3	I/E Range
POSFEEDENABLE	TOGGLE	F	Positive Feedback IR Comp
POSFEEDRESISTANCE	QUANT	0	Positive Feedback Resistance (ohm)
ACHSELECT	IQUANT	0	Ach Select
CABLEID	IQUANT	14	Cable ID
DCCALDATE	LABEL	8/19/2019	DC Calibration Date
ACCALDATE	LABEL	8/19/2019	AC Calibration Date
THERMOSELECT	IQUANT	1	Thermo Select
FRAMEWORKVERSION	QUANT	6.33	Framework Version
INSTRUMENTVERSION	LABEL	3.50	Instrument Version
ZCURVE	TABLE
	Pt	Time	Freq	Zreal	Zimag	Zsig	Zmod	Zphz	Idc	Vdc	IERange
	#	s	Hz	ohm	ohm	V	ohm	°	A	V	#
	0	2	1000078	2065.724	-1308.781	1	2445.429	-32.35714	-5.619303E-008	0.0184082	8
	1	3	794390.6	2318.429	-1225.214	1	2622.263	-27.85499	3.589235E-007	0.0182249	8
	2	5	630984.4	2542.422	-1114.525	1	2775.981	-23.67127	5.903269E-007	0.0175828	8
	3	6	501234.4	2716.671	-989.369	1	2891.22	-20.01083	-3.09456E-007	0.0178488	8
	4	7	398109.4	2882.044	-878.4556	1	3012.949	-16.95138	6.18159E-007	0.0174359	8
	5	9	316265.6	2960.537	-737.8779	1	3051.105	-13.99514	-2.097825E-006	0.0182033	8
	6	10	251203.1	3040.206	-648.3146	1	3108.563	-12.03784	-4.92205E-007	0.0176842	8
	7	12	199546.9	3104.189	-569.5354	1	3156.004	-10.39661	1.380787E-007	0.0177244	8
	8	13	158578.1	3143.887	-502.1069	1	3183.73	-9.074015	2.56261E-006	0.0170888	8
	9	14	125953.1	3209.103	-399.6709	1	3233.895	-7.099227	6.044402E-007	0.015978	7
	10	16	100078.1	3232.67	-362.669	1	3252.95	-6.401172	-8.255267E-008	0.0176963	7
	11	17	79453.13	3261.89	-347.6728	1	3280.366	-6.083976	4.417399E-008	0.017532	7
	12	18	63140.62	3290.611	-342.2724	1	3308.364	-5.938257	-4.332233E-008	0.0176734	7
	13	20	50203.12	3321.54	-342.8002	1	3339.182	-5.892361	-8.122748E-008	0.0178169	7
	14	21	39890.62	3357.26	-355.664	1	3376.046	-6.047289	-7.834664E-009	0.0175209	7
	15	22	31640.63	3388.863	-368.0219	1	3408.788	-6.197887	-1.022405E-008	0.017563	7
	16	24	25171.88	3425.5	-390.8889	1	3447.73	-6.509947	-2.837498E-008	0.0175629	7
	17	25	20015.62	3466.299	-420.2061	1	3491.676	-6.912019	1.568728E-008	0.0176666	7
	18	26	15890.62	3510.48	-459.8144	1	3540.466	-7.462309	1.066185E-007	0.0174791	7
	19	28	12609.37	3559.537	-504.6696	1	3595.135	-8.069587	-6.112789E-008	0.0176491	7
	20	29	10078.13	3612.532	-558.6536	1	3655.472	-8.790771	4.441621E-008	0.017429	7
	21	30	8015.625	3669.448	-623.2458	1	3722	-9.63954	1.254585E-007	0.0173854	7
	22	32	6328.125	3735.33	-701.2502	1	3800.584	-10.63263	4.647271E-008	0.0174278	7
	23	33	5015.625	3807.365	-792.7098	1	3889.012	-11.7612	1.970502E-008	0.017484	7
	24	34	3984.375	3883.289	-899.5475	1	3986.116	-13.04229	6.798032E-008	0.0174527	7
	25	36	3170.956	3967.78	-1024.511	1	4097.914	-14.47798	-8.211669E-008	0.0176718	7
	26	37	2527.573	4058.444	-1170.361	1	4223.827	-16.08633	-6.572E-009	0.0175098	7
	27	38	1976.103	4165.498	-1358.805	1	4381.521	-18.06657	8.605311E-008	0.0173829	7
	28	40	1577.524	4271.805	-1566.008	1	4549.802	-20.13252	6.863826E-008	0.0174546	7
	29	41	1265.625	4382.118	-1809.994	1	4741.206	-22.44263	-2.754206E-008	0.017554	7
	30	42	998.264	4516.012	-2127.75	1	4992.162	-25.2278	-3.859633E-008	0.017566	7
	31	44	796.875	4647.505	-2491.842	1	5273.384	-28.19877	-7.109571E-009	0.0175089	7
	32	45	627.7902	4799.679	-2966.027	1	5642.184	-31.71456	-6.758639E-008	0.0176934	7
	33	46	505.5147	4948.04	-3493.558	1	6057.065	-35.22396	6.54878E-008	0.0174385	7
	34	48	397.9953	5127.799	-4211.301	1	6635.463	-39.39519	5.849966E-009	0.0175846	7
	35	49	315.5048	5319.487	-5077.425	1	7353.719	-43.66627	5.197532E-009	0.0175813	7
	36	50	252.4038	5527.127	-6109.695	1	8238.78	-47.86597	4.64453E-009	0.0175868	7
	37	52	198.6229	5784.579	-7487.451	1	9461.674	-52.31141	5.061956E-009	0.0175843	7
	38	53	158.3615	6077.812	-9109.893	1	10951.25	-56.29013	6.166653E-010	0.0175186	6
	39	54	125.558	6440.712	-11169.58	1	12893.5	-60.03097	-3.982088E-010	0.0175288	6
	40	56	100.4464	6886.708	-13608.32	1	15251.66	-63.15757	-1.306288E-009	0.0175251	6
	41	57	79.00281	7499.286	-16859.23	1	18451.91	-66.01965	1.866007E-010	0.0175229	6
	42	58	63.3446	8039.504	-20540.03	1	22057.34	-68.62429	-5.82144E-010	0.0175247	6
	43	60	49.86702	9274.12	-25359.7	1	27002.29	-69.91238	4.001324E-010	0.0175113	6
	44	61	39.72458	10389.79	-31140.28	1	32827.8	-71.54899	-8.958315E-011	0.0175226	6
	45	62	31.6723	12093.48	-38082.03	1	39956.14	-72.38202	5.104112E-010	0.0175194	6
	46	64	24.93351	14219.03	-46979.67	1	49084.31	-73.16086	-5.537428E-010	0.0175213	6
	47	65	19.86229	17018.79	-57222.4	1	59699.6	-73.43674	-7.535344E-010	0.0175175	6
	48	66	15.83615	20326.86	-70043.41	1	72933.27	-73.81707	1.049056E-009	0.0175239	6
	49	68	12.40079	25163.38	-85810.3	1	89423.73	-73.65653	2.112312E-010	0.0175287	6
	50	69	9.93114	31688.58	-103082.5	1	107843.2	-72.91205	-1.16859E-009	0.0175263	5
	51	71	7.944915	39354.35	-124136.2	1	130225	-72.41006	-2.454432E-010	0.0175238	5
	52	72	6.317385	49321.29	-149269.9	1	157207.2	-71.71558	-1.212266E-010	0.0175227	5
	53	74	5.008013	62437.4	-179460	1	190011.3	-70.81628	-4.855986E-010	0.0175288	5
	54	77	3.945707	79036.99	-215799.3	1	229817.7	-69.88463	-6.185798E-010	0.0175247	5
	55	80	3.158693	98590.6	-255378.5	1	273748.5	-68.89058	-1.692378E-010	0.0175342	5
	56	83	2.504006	123735.3	-302829.2	1	327132.9	-67.77519	-7.060657E-010	0.0175313	5
	57	86	1.998082	153538.4	-355697.3	1	387420.5	-66.65234	-2.834768E-010	0.0174791	5
	58	89	1.584686	189616.8	-418517.8	1	459468.9	-65.62627	-4.006366E-010	0.0174902	5
	59	92	1.266892	232645.1	-486682.1	1	539428.6	-64.45114	-8.363742E-011	0.017496	5
	60	97	0.999041	285198.3	-569544.6	1	636960.8	-63.40067	-4.725743E-010	0.0175248	5
