EXPLAIN
TAG	EISPOT
TITLE	LABEL	Potentiostatic EIS	Test &Identifier
DATE	LABEL	9/20/2019	Date
TIME	LABEL	11:21:46	Time
NOTES	NOTES	1	&Notes...
	
PSTAT	PSTAT	REF600-11020	Potentiostat
VDC	POTEN	0.00000E+000	T	DC &Voltage (V)
FREQINIT	QUANT	1.00000E+006	Initial Fre&q. (Hz)
FREQFINAL	QUANT	1.00000E+000	Final Fre&q. (Hz)
PTSPERDEC	QUANT	1.00000E+001	Points/&decade
VAC	QUANT	2.50000E+001	AC &Voltage (mV rms)
AREA	QUANT	1.00000E-002	&Area (cm^2)
CONDIT	TWOPARAM	T	5.00000E+000	0.00000E+000	Conditionin&g	Time(s)	E(V)
DELAY	TWOPARAM	T	5.00000E+000	0.00000E+000	Init. De&lay	Time(s)	Stab.(mV/s)
SPEED	SELECTOR	1	&Optimize for:
ZGUESS	QUANT	1.00000E+004	E&stimated Z (ohms)
OCVCURVE	TABLE	19
	Pt	T	Vf	Vm	Ach	Over
	#	s	V vs. Ref.	V	V	bits
	0	0.258333	-6.16145E-004	-6.16145E-004	5.57399E-004	...........
	1	0.516667	-6.26415E-004	-1.15377E-003	5.63999E-004	...........
	2	0.775	-6.88949E-004	-1.63541E-003	5.67866E-004	...........
	3	1.03333	-8.63771E-004	-2.08169E-003	5.68866E-004	...........
	4	1.29167	-1.17139E-003	-2.48912E-003	5.69132E-004	...........
	5	1.55	-1.57155E-003	-2.87385E-003	5.68666E-004	...........
	6	1.80833	-2.00349E-003	-3.22662E-003	5.62732E-004	...........
	7	2.06667	-2.42497E-003	-3.56574E-003	5.59799E-004	...........
	8	2.325	-2.81900E-003	-3.87644E-003	5.63632E-004	...........
	9	2.58333	-3.18389E-003	-4.17653E-003	5.59966E-004	...........
	10	2.84167	-3.52331E-003	-4.45626E-003	5.62499E-004	...........
	11	3.1	-3.84134E-003	-4.72501E-003	5.67232E-004	...........
	12	3.35833	-4.14108E-003	-4.97561E-003	5.70232E-004	...........
	13	3.61667	-4.42471E-003	-5.22698E-003	5.69266E-004	...........
	14	3.875	-4.69424E-003	-5.45941E-003	5.64432E-004	...........
	15	4.13333	-4.95158E-003	-5.68206E-003	5.65399E-004	...........
	16	4.39167	-5.19763E-003	-5.88969E-003	5.66766E-004	...........
	17	4.65	-5.43222E-003	-6.09080E-003	5.63432E-004	...........
	18	4.90833	-5.65515E-003	-6.28136E-003	5.54899E-004	...........
EOC	QUANT	-0.0056552	Open Circuit (V)
PSTATMODEL	IQUANT	4	Pstat Model
PSTATSECTION	LABEL	REF600-11020	Pstat Section
PSTATSERIALNO	LABEL	11020	Pstat Serial Number
CTRLMODE	IQUANT	1	Control Mode
IESTAB	IQUANT	0	I/E Stability
CASPEED	IQUANT	1	Control Amp Speed
CONVENTION	IQUANT	1	Current Convention
ICHRANGE	IQUANT	2	Ich Range
ICHRANGEMODE	TOGGLE	F	Ich Auto Range
ICHOFFSETENABLE	TOGGLE	T	Ich Offset Enable
ICHOFFSET	QUANT	0	Ich Offset (V)
ICHFILTER	IQUANT	3	Ich Filter
VCHRANGE	IQUANT	2	Vch Range
VCHRANGEMODE	TOGGLE	F	Vch Auto Range
VCHOFFSETENABLE	TOGGLE	T	Vch Offset Enable
VCHOFFSET	QUANT	0	Vch Offset (V)
VCHFILTER	IQUANT	3	Vch Filter
ACHRANGE	IQUANT	2	Ach Range
ACHOFFSETENABLE	TOGGLE	F	Ach Offset Enable
ACHOFFSET	QUANT	0	Ach Offset (V)
ACHFILTER	IQUANT	3	Ach Filter
IERANGELOWERLIMIT	IQUANT	1	I/E Range Lower Limit
IERANGEMODE	TOGGLE	F	I/E AutoRange
IERANGE	IQUANT	6	I/E Range
POSFEEDENABLE	TOGGLE	F	Positive Feedback IR Comp
POSFEEDRESISTANCE	QUANT	0	Positive Feedback Resistance (ohm)
ACHSELECT	IQUANT	0	Ach Select
CABLEID	IQUANT	14	Cable ID
DCCALDATE	LABEL	8/19/2019	DC Calibration Date
ACCALDATE	LABEL	8/19/2019	AC Calibration Date
THERMOSELECT	IQUANT	1	Thermo Select
FRAMEWORKVERSION	QUANT	6.33	Framework Version
INSTRUMENTVERSION	LABEL	3.50	Instrument Version
ZCURVE	TABLE
	Pt	Time	Freq	Zreal	Zimag	Zsig	Zmod	Zphz	Idc	Vdc	IERange
	#	s	Hz	ohm	ohm	V	ohm	°	A	V	#
	0	2	1000078	2328.79	-2081.508	1	3123.449	-41.79082	3.000377E-006	-0.0045967	8
	1	3	794390.6	2746.209	-2073.018	1	3440.795	-37.04789	3.817473E-007	-0.0041268	8
	2	5	630984.4	3185.513	-2005.103	1	3764.032	-32.18813	3.90897E-006	-0.0048156	8
	3	6	501234.4	3548.836	-1888.378	1	4019.976	-28.01798	-7.303493E-007	-0.0041408	8
	4	8	398109.4	3863.751	-1706.178	1	4223.697	-23.82558	-3.65524E-006	-0.0033321	8
	5	9	316265.6	4143.724	-1530.072	1	4417.19	-20.26669	1.318741E-006	-0.0043652	8
	6	11	251203.1	4350.031	-1317.675	1	4545.221	-16.85217	1.341458E-006	-0.0046487	8
	7	12	199546.9	4493.291	-1159.634	1	4640.519	-14.47119	-4.631011E-006	-0.0030754	8
	8	14	158578.1	4618.923	-1013.811	1	4728.876	-12.37959	-2.214343E-006	-0.0037111	8
	9	15	125953.1	4744.411	-843.0411	1	4818.729	-10.0758	7.530858E-007	-0.0063528	7
	10	17	100078.1	4808.971	-749.4966	1	4867.027	-8.8585	-1.153672E-008	-0.0042425	7
	11	18	79453.13	4871.326	-686.9724	1	4919.527	-8.027129	-2.224133E-008	-0.0042316	7
	12	19	63140.62	4927.709	-640.8934	1	4969.212	-7.410242	-3.255679E-008	-0.0041933	7
	13	21	50203.12	4981.338	-612.2426	1	5018.822	-7.006925	-2.185378E-008	-0.0042363	7
	14	22	39890.62	5030.701	-599.6252	1	5066.311	-6.797197	-3.728088E-008	-0.0041743	7
	15	23	31640.63	5081.162	-601.4531	1	5116.635	-6.750645	9.093189E-008	-0.0043917	7
	16	25	25171.88	5133.243	-618.5662	1	5170.377	-6.871128	1.531691E-008	-0.0042913	7
	17	26	20015.62	5186.521	-650.2145	1	5227.12	-7.145674	1.544037E-008	-0.0042914	7
	18	27	15890.62	5246.125	-696.1456	1	5292.111	-7.558824	-1.143831E-008	-0.004254	7
	19	29	12609.37	5304.062	-761.0786	1	5358.387	-8.165622	-3.694177E-008	-0.0041903	7
	20	30	10078.13	5368.746	-841.8362	1	5434.347	-8.911593	-5.152187E-008	-0.0041755	7
	21	32	8015.625	5435.533	-945.7471	1	5517.196	-9.87028	-4.954584E-009	-0.0041648	7
	22	33	6328.125	5511.486	-1078.637	1	5616.042	-11.07323	-1.033814E-008	-0.0042587	7
	23	34	5015.625	5591.254	-1241.611	1	5727.454	-12.52011	1.454768E-007	-0.0044203	7
	24	36	3984.375	5680.206	-1440.293	1	5859.964	-14.22824	-8.899749E-010	-0.0041931	7
	25	37	3170.956	5777.654	-1680.946	1	6017.214	-16.22178	4.818077E-008	-0.0042532	7
	26	38	2527.573	5882.165	-1973.524	1	6204.406	-18.54711	4.748551E-008	-0.0042634	7
	27	40	1976.103	6014.902	-2369.345	1	6464.739	-21.5001	1.442304E-007	-0.0044357	7
	28	41	1577.524	6149.972	-2805.741	1	6759.759	-24.52343	-7.619969E-009	-0.004062	7
	29	42	1265.625	6324.425	-3349.299	1	7156.546	-27.90487	9.883313E-008	-0.0042642	7
	30	44	998.264	6486.834	-4012.267	1	7627.405	-31.73781	-3.607499E-008	-0.0041715	7
	31	45	796.875	6689.394	-4810.353	1	8239.387	-35.71997	-2.08038E-008	-0.0042432	7
	32	47	627.7902	6931.783	-5845.45	1	9067.464	-40.14034	-5.122839E-009	-0.0041751	7
	33	48	505.5147	7187.681	-6995.822	1	10030.17	-44.22501	4.139988E-009	-0.0044021	6
	34	49	397.9953	7517	-8563.657	1	11394.8	-48.72401	1.01271E-009	-0.0042548	6
	35	51	315.5048	7896.295	-10447.49	1	13095.86	-52.91773	1.385758E-009	-0.004253	6
	36	52	252.4038	8336.615	-12677.51	1	15172.95	-56.67144	1.512815E-009	-0.0042592	6
	37	53	198.6229	8921.516	-15631.26	1	17998.05	-60.2845	1.315325E-009	-0.0042531	6
	38	55	158.3615	9619.04	-19081.8	1	21369.17	-63.24755	8.897337E-010	-0.004257	6
	39	56	125.558	10524.36	-23413.96	1	25670.52	-65.79651	1.309457E-009	-0.0042567	6
	40	57	100.4464	11661.78	-28494.49	1	30788.52	-67.74247	6.805255E-010	-0.0042557	6
	41	59	79.00281	13198.88	-35296.23	1	37683.34	-69.49693	5.423358E-010	-0.0042566	6
	42	60	63.3446	15161.78	-43116.78	1	45704.88	-70.62606	1.315247E-009	-0.0042583	6
	43	62	49.86702	17534.67	-52601.36	1	55446.98	-71.56419	6.208584E-010	-0.0042609	6
	44	63	39.72458	21081.68	-64057.09	1	67436.98	-71.78323	1.124244E-009	-0.00426	6
	45	64	31.6723	25717.71	-77757.87	1	81900.47	-71.69883	1.266625E-009	-0.0042631	6
	46	66	24.93351	31542.96	-94988.61	1	100088.9	-71.63017	6.167612E-010	-0.0042701	6
	47	67	19.86229	39025.02	-114371	1	120845.7	-71.15963	4.659758E-010	-0.0042571	5
	48	69	15.83615	47777.62	-136690.8	1	144800.1	-70.73392	1.1826E-009	-0.0042586	5
	49	70	12.40079	62381.37	-167659.5	1	178888.6	-69.59119	-2.63067E-010	-0.0042551	5
	50	71	9.93114	77282.45	-197822.9	1	212382.8	-68.66116	7.6425E-010	-0.004263	5
	51	73	7.944915	96289.7	-232884.6	1	252005.8	-67.5366	-1.715105E-010	-0.0042585	5
	52	75	6.317385	121764.8	-275781.1	1	301466.2	-66.17725	3.9209E-010	-0.0042651	5
	53	77	5.008013	153394.1	-324573.9	1	358995.8	-64.70451	2.135261E-010	-0.0042518	5
	54	79	3.945707	193280.8	-380553.3	1	426823.5	-63.07425	1.339828E-010	-0.0042581	5
	55	82	3.158693	238920.5	-438201.9	1	499103.1	-61.39949	3.387826E-010	-0.0042547	5
	56	85	2.504006	295285.7	-503810.3	1	583967.9	-59.62522	5.829687E-011	-0.0042483	5
	57	88	1.998082	358454.6	-570948.1	1	674144.9	-57.87844	4.715353E-010	-0.0042945	5
	58	91	1.584686	433490.8	-648186.2	1	779781.8	-56.22638	9.472172E-011	-0.0042864	5
	59	95	1.266892	515343.9	-723363.7	1	888163.4	-54.5329	3.326156E-010	-0.004302	5
	60	99	0.999041	611058.1	-812881.9	1	1016941	-53.06715	9.176711E-011	-0.0042239	4
