EXPLAIN
TAG	EISPOT
TITLE	LABEL	Potentiostatic EIS	Test &Identifier
DATE	LABEL	10/4/2019	Date
TIME	LABEL	8:31:23	Time
NOTES	NOTES	2	&Notes...
	
	
PSTAT	PSTAT	REF600-11020	Potentiostat
VDC	POTEN	0.00000E+000	T	DC &Voltage (V)
FREQINIT	QUANT	1.00000E+006	Initial Fre&q. (Hz)
FREQFINAL	QUANT	1.00000E+000	Final Fre&q. (Hz)
PTSPERDEC	QUANT	1.00000E+001	Points/&decade
VAC	QUANT	2.50000E+001	AC &Voltage (mV rms)
AREA	QUANT	1.00000E-002	&Area (cm^2)
CONDIT	TWOPARAM	T	5.00000E+000	0.00000E+000	Conditionin&g	Time(s)	E(V)
DELAY	TWOPARAM	T	5.00000E+000	0.00000E+000	Init. De&lay	Time(s)	Stab.(mV/s)
SPEED	SELECTOR	1	&Optimize for:
ZGUESS	QUANT	1.00000E+004	E&stimated Z (ohms)
OCVCURVE	TABLE	19
	Pt	T	Vf	Vm	Ach	Over
	#	s	V vs. Ref.	V	V	bits
	0	0.258333	3.56528E-003	3.56528E-003	5.74279E-004	...........
	1	0.516667	3.56419E-003	3.50800E-003	5.71046E-004	...........
	2	0.775	3.55788E-003	3.47501E-003	5.69079E-004	...........
	3	1.03333	3.54148E-003	3.44886E-003	5.67013E-004	...........
	4	1.29167	3.51542E-003	3.43451E-003	5.66446E-004	...........
	5	1.55	3.48598E-003	3.41993E-003	5.70746E-004	...........
	6	1.80833	3.45966E-003	3.41549E-003	5.74812E-004	...........
	7	2.06667	3.43949E-003	3.40718E-003	5.67146E-004	...........
	8	2.325	3.42535E-003	3.40168E-003	5.61646E-004	...........
	9	2.58333	3.41556E-003	3.39680E-003	5.62379E-004	...........
	10	2.84167	3.40844E-003	3.39842E-003	5.63279E-004	...........
	11	3.1	3.40320E-003	3.39482E-003	5.61346E-004	...........
	12	3.35833	3.39960E-003	3.39394E-003	5.60746E-004	...........
	13	3.61667	3.39726E-003	3.39551E-003	5.58646E-004	...........
	14	3.875	3.39585E-003	3.39670E-003	5.67679E-004	...........
	15	4.13333	3.39540E-003	3.40149E-003	5.66413E-004	...........
	16	4.39167	3.39609E-003	3.40353E-003	5.67879E-004	...........
	17	4.65	3.39790E-003	3.40673E-003	5.71546E-004	...........
	18	4.90833	3.40040E-003	3.40506E-003	5.66746E-004	...........
EOC	QUANT	0.0034004	Open Circuit (V)
PSTATMODEL	IQUANT	4	Pstat Model
PSTATSECTION	LABEL	REF600-11020	Pstat Section
PSTATSERIALNO	LABEL	11020	Pstat Serial Number
CTRLMODE	IQUANT	1	Control Mode
IESTAB	IQUANT	0	I/E Stability
CASPEED	IQUANT	1	Control Amp Speed
CONVENTION	IQUANT	1	Current Convention
ICHRANGE	IQUANT	2	Ich Range
ICHRANGEMODE	TOGGLE	F	Ich Auto Range
ICHOFFSETENABLE	TOGGLE	T	Ich Offset Enable
ICHOFFSET	QUANT	0	Ich Offset (V)
ICHFILTER	IQUANT	3	Ich Filter
VCHRANGE	IQUANT	2	Vch Range
VCHRANGEMODE	TOGGLE	F	Vch Auto Range
VCHOFFSETENABLE	TOGGLE	T	Vch Offset Enable
VCHOFFSET	QUANT	0	Vch Offset (V)
VCHFILTER	IQUANT	3	Vch Filter
ACHRANGE	IQUANT	2	Ach Range
ACHOFFSETENABLE	TOGGLE	F	Ach Offset Enable
ACHOFFSET	QUANT	0	Ach Offset (V)
ACHFILTER	IQUANT	1	Ach Filter
IERANGELOWERLIMIT	IQUANT	1	I/E Range Lower Limit
IERANGEMODE	TOGGLE	F	I/E AutoRange
IERANGE	IQUANT	5	I/E Range
POSFEEDENABLE	TOGGLE	F	Positive Feedback IR Comp
POSFEEDRESISTANCE	QUANT	0	Positive Feedback Resistance (ohm)
ACHSELECT	IQUANT	0	Ach Select
CABLEID	IQUANT	14	Cable ID
DCCALDATE	LABEL	8/19/2019	DC Calibration Date
ACCALDATE	LABEL	8/19/2019	AC Calibration Date
THERMOSELECT	IQUANT	1	Thermo Select
FRAMEWORKVERSION	QUANT	6.33	Framework Version
INSTRUMENTVERSION	LABEL	3.50	Instrument Version
ZCURVE	TABLE
	Pt	Time	Freq	Zreal	Zimag	Zsig	Zmod	Zphz	Idc	Vdc	IERange
	#	s	Hz	ohm	ohm	V	ohm	°	A	V	#
	0	2	1000078	1197.68	-1350.619	1	1805.162	-48.43456	3.823197E-007	0.005061	8
	1	3	794390.6	1268.947	-1595.772	1	2038.803	-51.50852	-3.17523E-006	0.0060725	8
	2	4	630984.4	1354.651	-1903.418	1	2336.253	-54.56077	4.946808E-006	0.0045805	8
	3	6	501234.4	1460.758	-2311.759	1	2734.601	-57.71195	4.021928E-006	0.0041722	8
	4	7	398109.4	1610.836	-2800.468	1	3230.698	-60.09239	-2.726508E-006	0.0056028	8
	5	8	316265.6	1802.913	-3402.311	1	3850.482	-62.08051	1.458755E-006	0.0049957	8
	6	10	251203.1	2058.633	-4136.766	1	4620.693	-63.54308	3.564702E-006	0.0044932	8
	7	11	199546.9	2452.009	-5030.562	1	5596.329	-64.01436	1.879941E-006	0.0046536	8
	8	12	158578.1	2977.927	-6080.34	1	6770.419	-63.90609	-3.051794E-006	0.0057326	8
	9	14	125953.1	3782.054	-7264.365	1	8189.928	-62.49712	2.300874E-008	0.0058145	7
	10	16	100078.1	4734.142	-8562.231	1	9783.86	-61.06136	7.296539E-008	0.0049082	7
	11	17	79453.13	5996.683	-10011.3	1	11669.89	-59.07875	-2.530054E-009	0.0051036	7
	12	18	63140.62	7600.841	-11485.07	1	13772.42	-56.50332	-2.121994E-008	0.0050565	7
	13	20	50203.12	9536.33	-12960.07	1	16090.52	-53.65348	1.198504E-007	0.0048835	7
	14	21	39890.62	11824.08	-14221.9	1	18495.17	-50.25987	-2.094207E-009	0.0049953	7
	15	22	31640.63	14419.75	-15404.34	1	21100.31	-46.89083	1.213353E-007	0.0048788	7
	16	24	25171.88	17112.28	-16216.34	1	23575.41	-43.46015	-1.337682E-009	0.0049957	7
	17	25	20015.62	19843.63	-17019.85	1	26142.78	-40.61963	-2.005429E-009	0.0049948	7
	18	26	15890.62	22725.42	-17314.09	1	28569.61	-37.30313	-1.978957E-008	0.0051032	7
	19	28	12609.37	25715.5	-17397.51	1	31047.71	-34.07983	1.949386E-009	0.0051186	6
	20	29	10078.13	28267.09	-17667.16	1	33334.02	-32.00572	2.252226E-009	0.0048334	6
	21	30	8015.625	30793.89	-17992.01	1	35664.77	-30.29655	5.153844E-009	0.0049835	6
	22	32	6328.125	33348.74	-18383.5	1	38080.07	-28.86576	4.350928E-009	0.0048585	6
	23	33	5015.625	35885.4	-18948.01	1	40580.65	-27.8347	5.17025E-009	0.0049829	6
	24	34	3984.375	38428.67	-19619.21	1	43147.15	-27.04594	1.428875E-008	0.0047199	6
	25	36	3170.956	40998.3	-20449.95	1	45815.51	-26.51002	1.407701E-008	0.0047234	6
	26	37	2527.573	43649.36	-21406.21	1	48615.76	-26.12393	-4.109844E-009	0.0049234	6
	27	38	1976.103	46776.28	-22715.92	1	52000.32	-25.90255	1.166528E-008	0.0049005	6
	28	40	1577.524	49793.05	-24027.55	1	55287.17	-25.75955	4.53375E-009	0.0048568	6
	29	41	1265.625	52834.1	-25564.4	1	58693.95	-25.82056	-1.238653E-008	0.0051372	6
	30	42	998.264	56532.01	-27550.91	1	62888.16	-25.98232	3.531555E-009	0.0050197	6
	31	44	796.875	60287.5	-29481.56	1	67109.95	-26.05938	1.599002E-009	0.0048955	6
	32	45	627.7902	64569.98	-31556.41	1	71868.55	-26.04552	-4.050056E-009	0.0050059	6
	33	47	505.5147	68639.65	-33588.04	1	76417	-26.0743	-8.528573E-009	0.0051929	6
	34	48	397.9953	73410.28	-36090.16	1	81802.02	-26.17978	8.397517E-011	0.005017	6
	35	50	315.5048	78168.83	-38652.95	1	87203.3	-26.31149	-3.373768E-010	0.005018	6
	36	51	252.4038	82948.71	-41187.59	1	92611.59	-26.40637	-3.876671E-010	0.0050169	5
	37	52	198.6229	88100.92	-44862.35	1	98865.6	-26.9859	-1.315833E-010	0.0050205	5
	38	54	158.3615	93241.45	-49061.53	1	105361.3	-27.75233	1.796946E-010	0.0050169	5
	39	55	125.558	98753.6	-53975.85	1	112541.8	-28.65974	4.974487E-011	0.0050177	5
	40	56	100.4464	104998.9	-59984.32	1	120925.2	-29.73868	-1.030866E-010	0.0050131	5
	41	58	79.00281	111048.1	-66767.62	1	129574.6	-31.01638	-1.533981E-010	0.0050091	5
	42	59	63.3446	115911.5	-76496.79	1	138878.5	-33.42317	-2.826804E-010	0.0050106	5
	43	60	49.86702	127773.2	-83837.9	1	152822.7	-33.27073	-2.217495E-010	0.0050066	5
	44	62	39.72458	136860	-96810.7	1	167639.4	-35.27446	-1.360046E-010	0.0050132	5
	45	63	31.6723	146815	-110060.1	1	183488	-36.85712	-2.538213E-010	0.0050083	5
	46	65	24.93351	159025.6	-125421.8	1	202533.3	-38.26247	2.321189E-010	0.0050068	5
	47	66	19.86229	172569.7	-143181.3	1	224234.6	-39.68254	-2.93901E-010	0.005015	5
	48	67	15.83615	187903.7	-165934.9	1	250683.5	-41.44724	-9.53613E-010	0.0050138	5
	49	69	12.40079	206937	-188862.7	1	280164.3	-42.38538	-6.664926E-010	0.0050138	5
	50	70	9.93114	226279.6	-216996.3	1	313512.1	-43.80026	-3.237059E-010	0.0050141	5
	51	72	7.944915	249550.2	-247238.6	1	351286.5	-44.73339	-3.648821E-010	0.0050038	5
	52	73	6.317385	277541.7	-286619.2	1	398973.6	-45.92183	2.184853E-010	0.0050019	5
	53	75	5.008013	313025.9	-330341.2	1	455094	-46.54166	-1.090746E-010	0.0050158	5
	54	78	3.945707	355447.1	-380529	1	520715.8	-46.95187	-1.931823E-010	0.0050062	5
	55	81	3.158693	403105.5	-431731.8	1	590666.1	-46.96389	-1.26019E-010	0.005002	5
	56	84	2.504006	460370.5	-490234.7	1	672511	-46.79941	-1.474225E-012	0.005017	5
	57	87	1.998082	523820.4	-551604.2	1	760693.8	-46.47992	2.409639E-010	0.0050195	5
	58	90	1.584686	597488.9	-616864.6	1	858786.9	-45.91411	8.514759E-012	0.0049616	5
	59	93	1.266892	675795.4	-689507.8	1	965464	-45.57543	1.711426E-010	0.0050247	5
	60	98	0.999041	770028.3	-772681.4	1	1090862	-45.09853	-2.619775E-010	0.0049748	4
