EXPLAIN
TAG	EISPOT
TITLE	LABEL	Potentiostatic EIS	Test &Identifier
DATE	LABEL	11/3/2019	Date
TIME	LABEL	11:18:47	Time
NOTES	NOTES	1	&Notes...
	
PSTAT	PSTAT	REF600-11020	Potentiostat
VDC	POTEN	0.00000E+000	T	DC &Voltage (V)
FREQINIT	QUANT	1.00000E+006	Initial Fre&q. (Hz)
FREQFINAL	QUANT	1.00000E+000	Final Fre&q. (Hz)
PTSPERDEC	QUANT	1.00000E+001	Points/&decade
VAC	QUANT	2.50000E+001	AC &Voltage (mV rms)
AREA	QUANT	1.00000E-002	&Area (cm^2)
CONDIT	TWOPARAM	T	5.00000E+000	0.00000E+000	Conditionin&g	Time(s)	E(V)
DELAY	TWOPARAM	T	5.00000E+000	0.00000E+000	Init. De&lay	Time(s)	Stab.(mV/s)
SPEED	SELECTOR	1	&Optimize for:
ZGUESS	QUANT	1.00000E+005	E&stimated Z (ohms)
OCVCURVE	TABLE	19
	Pt	T	Vf	Vm	Ach	Over
	#	s	V vs. Ref.	V	V	bits
	0	0.258333	5.22071E-003	5.22071E-003	5.65666E-004	...........
	1	0.516667	5.21727E-003	5.04098E-003	5.66532E-004	...........
	2	0.775	5.19663E-003	4.89357E-003	5.68532E-004	...........
	3	1.03333	5.13989E-003	4.76275E-003	5.70066E-004	...........
	4	1.29167	5.04228E-003	4.64795E-003	5.66699E-004	...........
	5	1.55	4.91892E-003	4.54323E-003	5.67532E-004	...........
	6	1.80833	4.79026E-003	4.45157E-003	5.68266E-004	...........
	7	2.06667	4.66950E-003	4.36729E-003	5.71066E-004	...........
	8	2.325	4.56115E-003	4.28638E-003	5.71832E-004	...........
	9	2.58333	4.46461E-003	4.21847E-003	5.71499E-004	...........
	10	2.84167	4.37775E-003	4.15048E-003	5.74699E-004	...........
	11	3.1	4.29881E-003	4.09134E-003	5.74899E-004	...........
	12	3.35833	4.22647E-003	4.03013E-003	5.73899E-004	...........
	13	3.61667	4.15956E-003	3.97688E-003	5.65732E-004	...........
	14	3.875	4.09702E-003	3.92316E-003	5.75365E-004	...........
	15	4.13333	4.03810E-003	3.87271E-003	5.71766E-004	...........
	16	4.39167	3.98221E-003	3.82224E-003	5.73132E-004	...........
	17	4.65	3.92886E-003	3.77830E-003	5.71599E-004	...........
	18	4.90833	3.87772E-003	3.72947E-003	5.69266E-004	...........
EOC	QUANT	0.0038777	Open Circuit (V)
PSTATMODEL	IQUANT	4	Pstat Model
PSTATSECTION	LABEL	REF600-11020	Pstat Section
PSTATSERIALNO	LABEL	11020	Pstat Serial Number
CTRLMODE	IQUANT	1	Control Mode
IESTAB	IQUANT	0	I/E Stability
CASPEED	IQUANT	1	Control Amp Speed
CONVENTION	IQUANT	1	Current Convention
ICHRANGE	IQUANT	2	Ich Range
ICHRANGEMODE	TOGGLE	F	Ich Auto Range
ICHOFFSETENABLE	TOGGLE	T	Ich Offset Enable
ICHOFFSET	QUANT	0	Ich Offset (V)
ICHFILTER	IQUANT	3	Ich Filter
VCHRANGE	IQUANT	2	Vch Range
VCHRANGEMODE	TOGGLE	F	Vch Auto Range
VCHOFFSETENABLE	TOGGLE	T	Vch Offset Enable
VCHOFFSET	QUANT	0	Vch Offset (V)
VCHFILTER	IQUANT	3	Vch Filter
ACHRANGE	IQUANT	2	Ach Range
ACHOFFSETENABLE	TOGGLE	F	Ach Offset Enable
ACHOFFSET	QUANT	0	Ach Offset (V)
ACHFILTER	IQUANT	3	Ach Filter
IERANGELOWERLIMIT	IQUANT	1	I/E Range Lower Limit
IERANGEMODE	TOGGLE	F	I/E AutoRange
IERANGE	IQUANT	4	I/E Range
POSFEEDENABLE	TOGGLE	F	Positive Feedback IR Comp
POSFEEDRESISTANCE	QUANT	0	Positive Feedback Resistance (ohm)
ACHSELECT	IQUANT	0	Ach Select
CABLEID	IQUANT	14	Cable ID
DCCALDATE	LABEL	8/19/2019	DC Calibration Date
ACCALDATE	LABEL	8/19/2019	AC Calibration Date
THERMOSELECT	IQUANT	1	Thermo Select
FRAMEWORKVERSION	QUANT	6.33	Framework Version
INSTRUMENTVERSION	LABEL	3.50	Instrument Version
ZCURVE	TABLE
	Pt	Time	Freq	Zreal	Zimag	Zsig	Zmod	Zphz	Idc	Vdc	IERange
	#	s	Hz	ohm	ohm	V	ohm	°	A	V	#
	0	1	1000078	2001.535	-1482.387	1	2490.706	-36.52457	1.380934E-006	0.0067937	8
	1	3	794390.6	2297.331	-1459.313	1	2721.64	-32.42456	1.898176E-006	0.0062413	8
	2	4	630984.4	2575.047	-1391.814	1	2927.117	-28.39125	-2.730384E-006	0.0058487	8
	3	5	501234.4	2827.511	-1284.125	1	3105.446	-24.42535	-1.235169E-006	0.0060826	8
	4	7	398109.4	3027.804	-1176.215	1	3248.243	-21.22972	5.39253E-008	0.0052403	8
	5	8	316265.6	3194.713	-1041.475	1	3360.188	-18.05595	-4.641077E-006	0.0058898	8
	6	9	251203.1	3325.774	-920.53	1	3450.818	-15.47138	8.517277E-007	0.0059154	8
	7	11	199546.9	3445.064	-822.9053	1	3541.982	-13.43423	-1.584124E-006	0.0052957	8
	8	12	158578.1	3527.242	-720.2347	1	3600.025	-11.54069	-1.531347E-006	0.0053057	8
	9	14	125953.1	3651.337	-611.9308	1	3702.259	-9.51384	3.736917E-006	0.0010238	7
	10	15	100078.1	3677.269	-541.9543	1	3716.991	-8.383873	-3.068801E-007	0.0046283	7
	11	16	79453.13	3728.484	-516.8809	1	3764.141	-7.892628	6.146299E-007	0.0056773	7
	12	18	63140.62	3781.429	-490.3012	1	3813.083	-7.38777	1.094006E-006	0.0040065	7
	13	19	50203.12	3819.329	-478.5174	1	3849.188	-7.141282	3.933418E-007	0.0060142	7
	14	20	39890.62	3862.054	-474.2737	1	3891.066	-7.001068	7.255599E-008	0.0064443	7
	15	22	31640.63	3899.321	-476.5849	1	3928.338	-6.968274	-1.224247E-006	0.0065633	7
	16	23	25171.88	3956.129	-497.0752	1	3987.235	-7.161505	6.175771E-007	0.0056803	7
	17	24	20015.62	4000.837	-519.761	1	4034.457	-7.402015	1.199906E-007	0.0041038	7
	18	26	15890.62	4047.237	-558.2031	1	4085.55	-7.852806	-3.051955E-007	0.0046232	7
	19	27	12609.37	4102.624	-607.795	1	4147.401	-8.426954	1.200452E-007	0.0041009	7
	20	29	10078.13	4162.975	-665.9445	1	4215.903	-9.088513	1.020088E-006	0.0047599	7
	21	30	8015.625	4221.852	-743.2997	1	4286.785	-9.98517	1.108205E-006	0.0043301	7
	22	31	6328.125	4287.307	-837.6727	1	4368.375	-11.05542	1.022138E-006	0.0047531	7
	23	33	5015.625	4337.762	-951.573	1	4440.909	-12.37295	-7.277297E-007	0.0053027	7
	24	34	3984.375	4414.299	-1095.859	1	4548.291	-13.94195	6.173411E-007	0.0056726	7
	25	35	3170.956	4487.8	-1273.993	1	4665.127	-15.84814	7.851703E-007	0.0036917	7
	26	37	2527.573	4565.172	-1487.717	1	4801.468	-18.04996	8.357975E-007	0.0052597	7
	27	38	1976.103	4645.632	-1779.503	1	4974.789	-20.95927	-3.03714E-007	0.0046176	7
	28	39	1577.524	4754.149	-2100.582	1	5197.536	-23.83784	-3.041766E-007	0.0046179	7
	29	41	1265.625	4839.101	-2496.902	1	5445.312	-27.29305	-1.102479E-006	0.0071001	7
	30	42	998.264	4976.442	-3034.611	1	5828.708	-31.37464	1.110694E-006	0.0043313	7
	31	44	796.875	5109.303	-3647.788	1	6277.844	-35.52495	3.924183E-007	0.0060066	7
	32	45	627.7902	5275.968	-4461.402	1	6909.41	-40.21814	1.021351E-006	0.0047695	7
	33	46	505.5147	5448.183	-5368.647	1	7648.861	-44.57872	1.094864E-006	0.0040045	7
	34	48	397.9953	5696.847	-6572.913	1	8698.118	-49.08401	4.072107E-009	0.0055045	7
	35	49	315.5048	5981.828	-8047.958	1	10027.56	-53.37758	3.174416E-009	0.005505	7
	36	50	252.4038	6324.698	-9788.95	1	11654.41	-57.13325	1.605371E-009	0.0054407	6
	37	52	198.6229	6784.895	-12094.08	1	13867.28	-60.70715	4.746005E-010	0.0054461	6
	38	53	158.3615	7343.076	-14776.35	1	16500.34	-63.57501	1.138878E-009	0.0054332	6
	39	55	125.558	8074.711	-18155.65	1	19870.29	-66.02293	2.963364E-010	0.0054467	6
	40	56	100.4464	8996.414	-22130.6	1	23889.3	-67.87753	1.911287E-009	0.0054323	6
	41	57	79.00281	10234.17	-27325.73	1	29179.34	-69.46782	1.751042E-010	0.0054358	6
	42	59	63.3446	11920.66	-32848.29	1	34944.41	-70.05415	-1.758829E-010	0.0054367	6
	43	60	49.86702	14182.2	-40997.6	1	43381.31	-70.91808	9.533215E-010	0.0054266	6
	44	62	39.72458	17028.88	-49554.32	1	52398.61	-71.03519	5.917562E-010	0.005431	6
	45	63	31.6723	20670.97	-59777.05	1	63250.18	-70.92456	1.275243E-009	0.0054339	6
	46	64	24.93351	25925.19	-72918.95	1	77390.5	-70.42796	3.889503E-010	0.0054326	6
	47	66	19.86229	32376.34	-87480.41	1	93279.42	-69.69058	1.279946E-009	0.0054461	6
	48	67	15.83615	40849.74	-103914.5	1	111655.4	-68.53975	5.844573E-010	0.0054401	5
	49	68	12.40079	51680.97	-124673.1	1	134960.4	-67.48444	-1.037368E-011	0.005448	5
	50	70	9.93114	65926.52	-147075.2	1	161175.1	-65.85567	-1.458346E-010	0.005449	5
	51	72	7.944915	82422.44	-171139.3	1	189952.9	-64.28406	6.890111E-010	0.0054408	5
	52	73	6.317385	102313.2	-198127.4	1	222985.3	-62.68811	-1.044356E-010	0.0054569	5
	53	75	5.008013	126085.1	-227962.8	1	260508.2	-61.05323	1.284205E-010	0.0054374	5
	54	78	3.945707	153396.4	-261348.9	1	303040.8	-59.58958	4.772165E-010	0.0054511	5
	55	80	3.158693	181514.9	-296451.7	1	347608	-58.52121	-3.373265E-011	0.0054279	5
	56	84	2.504006	212874.7	-337495.7	1	399022.5	-57.7584	5.291111E-010	0.005438	5
	57	87	1.998082	245523.7	-383530.3	1	455387.1	-57.37394	3.219202E-010	0.00546	5
	58	90	1.584686	281550.9	-438119.3	1	520787.3	-57.27377	1.752066E-010	0.0053987	5
	59	93	1.266892	319139.4	-503607.1	1	596213.1	-57.63727	2.490453E-010	0.0054613	5
	60	98	0.999041	364253	-584536.3	1	688740.1	-58.07096	-2.422852E-010	0.0054008	5
