EXPLAIN
TAG	EISPOT
TITLE	LABEL	Potentiostatic EIS	Test &Identifier
DATE	LABEL	10/24/2019	Date
TIME	LABEL	10:49:55	Time
NOTES	NOTES	1	&Notes...
	
PSTAT	PSTAT	REF600-11020	Potentiostat
VDC	POTEN	0.00000E+000	T	DC &Voltage (V)
FREQINIT	QUANT	1.00000E+006	Initial Fre&q. (Hz)
FREQFINAL	QUANT	1.00000E+000	Final Fre&q. (Hz)
PTSPERDEC	QUANT	1.00000E+001	Points/&decade
VAC	QUANT	2.50000E+001	AC &Voltage (mV rms)
AREA	QUANT	1.00000E-002	&Area (cm^2)
CONDIT	TWOPARAM	T	5.00000E+000	0.00000E+000	Conditionin&g	Time(s)	E(V)
DELAY	TWOPARAM	T	5.00000E+000	0.00000E+000	Init. De&lay	Time(s)	Stab.(mV/s)
SPEED	SELECTOR	1	&Optimize for:
ZGUESS	QUANT	1.00000E+005	E&stimated Z (ohms)
OCVCURVE	TABLE	19
	Pt	T	Vf	Vm	Ach	Over
	#	s	V vs. Ref.	V	V	bits
	0	0.258333	9.42987E-003	9.42987E-003	5.42999E-004	...........
	1	0.516667	9.43299E-003	9.59301E-003	5.39899E-004	...........
	2	0.775	9.45268E-003	9.77654E-003	5.39966E-004	...........
	3	1.03333	9.51017E-003	9.95049E-003	5.39066E-004	...........
	4	1.29167	9.61642E-003	1.01180E-002	5.42066E-004	...........
	5	1.55	9.76221E-003	1.02940E-002	5.42833E-004	...........
	6	1.80833	9.92960E-003	1.04908E-002	5.37966E-004	...........
	7	2.06667	1.01057E-002	1.06404E-002	5.41633E-004	...........
	8	2.325	1.02833E-002	1.07881E-002	5.36299E-004	...........
	9	2.58333	1.04564E-002	1.09489E-002	5.32900E-004	...........
	10	2.84167	1.06217E-002	1.11046E-002	5.39866E-004	...........
	11	3.1	1.07806E-002	1.12547E-002	5.39433E-004	...........
	12	3.35833	1.09361E-002	1.13986E-002	5.39799E-004	...........
	13	3.61667	1.10891E-002	1.15425E-002	5.41399E-004	...........
	14	3.875	1.12390E-002	1.16753E-002	5.38099E-004	...........
	15	4.13333	1.13849E-002	1.18137E-002	5.44599E-004	...........
	16	4.39167	1.15267E-002	1.19401E-002	5.40166E-004	...........
	17	4.65	1.16644E-002	1.20654E-002	5.37866E-004	...........
	18	4.90833	1.17980E-002	1.21860E-002	5.46399E-004	...........
EOC	QUANT	0.011798	Open Circuit (V)
PSTATMODEL	IQUANT	4	Pstat Model
PSTATSECTION	LABEL	REF600-11020	Pstat Section
PSTATSERIALNO	LABEL	11020	Pstat Serial Number
CTRLMODE	IQUANT	1	Control Mode
IESTAB	IQUANT	0	I/E Stability
CASPEED	IQUANT	1	Control Amp Speed
CONVENTION	IQUANT	1	Current Convention
ICHRANGE	IQUANT	2	Ich Range
ICHRANGEMODE	TOGGLE	F	Ich Auto Range
ICHOFFSETENABLE	TOGGLE	T	Ich Offset Enable
ICHOFFSET	QUANT	0	Ich Offset (V)
ICHFILTER	IQUANT	3	Ich Filter
VCHRANGE	IQUANT	2	Vch Range
VCHRANGEMODE	TOGGLE	F	Vch Auto Range
VCHOFFSETENABLE	TOGGLE	T	Vch Offset Enable
VCHOFFSET	QUANT	0	Vch Offset (V)
VCHFILTER	IQUANT	3	Vch Filter
ACHRANGE	IQUANT	2	Ach Range
ACHOFFSETENABLE	TOGGLE	F	Ach Offset Enable
ACHOFFSET	QUANT	0	Ach Offset (V)
ACHFILTER	IQUANT	3	Ach Filter
IERANGELOWERLIMIT	IQUANT	1	I/E Range Lower Limit
IERANGEMODE	TOGGLE	F	I/E AutoRange
IERANGE	IQUANT	5	I/E Range
POSFEEDENABLE	TOGGLE	F	Positive Feedback IR Comp
POSFEEDRESISTANCE	QUANT	0	Positive Feedback Resistance (ohm)
ACHSELECT	IQUANT	0	Ach Select
CABLEID	IQUANT	14	Cable ID
DCCALDATE	LABEL	8/19/2019	DC Calibration Date
ACCALDATE	LABEL	8/19/2019	AC Calibration Date
THERMOSELECT	IQUANT	1	Thermo Select
FRAMEWORKVERSION	QUANT	6.33	Framework Version
INSTRUMENTVERSION	LABEL	3.50	Instrument Version
ZCURVE	TABLE
	Pt	Time	Freq	Zreal	Zimag	Zsig	Zmod	Zphz	Idc	Vdc	IERange
	#	s	Hz	ohm	ohm	V	ohm	°	A	V	#
	0	2	1000078	1980.119	-939.9451	1	2191.886	-25.39329	3.575557E-006	0.0133802	8
	1	3	794390.6	2142.039	-853.3971	1	2305.78	-21.72254	2.934934E-006	0.0128867	8
	2	5	630984.4	2271.232	-766.5321	1	2397.095	-18.64934	2.295755E-007	0.0135006	8
	3	6	501234.4	2368.464	-690.6223	1	2467.1	-16.2562	1.342535E-006	0.0131473	8
	4	7	398109.4	2450.837	-606.7282	1	2524.821	-13.90457	-9.442218E-007	0.0135113	8
	5	9	316265.6	2519.869	-536.9281	1	2576.438	-12.02857	8.163266E-007	0.0131611	8
	6	10	251203.1	2572.223	-491.7067	1	2618.799	-10.82211	-3.788581E-007	0.0134409	8
	7	11	199546.9	2612.667	-451.1755	1	2651.337	-9.79765	2.208326E-006	0.0128651	8
	8	13	158578.1	2657.556	-409.9167	1	2688.985	-8.768525	-1.61973E-006	0.0136013	8
	9	14	125953.1	2705.538	-368.8109	1	2730.56	-7.762544	1.112039E-006	0.0112665	7
	10	15	100078.1	2735.905	-359.6324	1	2759.44	-7.488548	5.580209E-008	0.0131631	7
	11	17	79453.13	2772.608	-367.4868	1	2796.855	-7.550086	-3.616366E-008	0.0133698	7
	12	18	63140.62	2811.626	-381.166	1	2837.345	-7.720397	-2.970797E-008	0.0132802	7
	13	19	50203.12	2853.982	-400.3402	1	2881.924	-7.985022	-7.498685E-009	0.0132887	7
	14	21	39890.62	2902.041	-423.6349	1	2932.799	-8.305275	-1.278381E-008	0.0132411	7
	15	22	31640.63	2951.627	-453.0607	1	2986.196	-8.726521	1.028398E-007	0.0131001	7
	16	23	25171.88	3005.336	-486.54	1	3044.465	-9.195946	5.686475E-008	0.0131522	7
	17	25	20015.62	3063.797	-524.8931	1	3108.434	-9.7216	-9.39896E-009	0.013353	7
	18	26	15890.62	3126.543	-571.9178	1	3178.422	-10.36613	2.422596E-008	0.0132298	7
	19	27	12609.37	3193.668	-625.023	1	3254.254	-11.07322	-4.681026E-008	0.0133263	7
	20	29	10078.13	3261.791	-683.2215	1	3332.577	-11.83026	5.70398E-008	0.0132246	7
	21	30	8015.625	3336.921	-754.918	1	3421.249	-12.74755	5.965416E-008	0.0132274	7
	22	31	6328.125	3414.934	-835.8644	1	3515.742	-13.75373	3.526496E-008	0.0131397	7
	23	33	5015.625	3495.842	-934.4708	1	3618.584	-14.96578	-3.734963E-008	0.013325	7
	24	34	3984.375	3579.333	-1047.903	1	3729.575	-16.31818	-5.423411E-009	0.0132747	7
	25	35	3170.956	3657.892	-1195.625	1	3848.336	-18.10058	-3.067682E-008	0.0132652	7
	26	37	2527.573	3743.627	-1372.892	1	3987.428	-20.13939	-3.696676E-008	0.0133651	7
	27	38	1976.103	3838.384	-1611.418	1	4162.915	-22.77349	-3.713813E-009	0.0132721	7
	28	39	1577.524	3948.071	-1880.647	1	4373.11	-25.47061	-2.773113E-008	0.0132688	7
	29	41	1265.625	4029.247	-2213.966	1	4597.442	-28.78765	5.320801E-008	0.0132267	7
	30	42	998.264	4148.354	-2656.363	1	4925.962	-32.63312	-5.415573E-008	0.0133377	7
	31	43	796.875	4273.606	-3174.671	1	5323.744	-36.60701	-2.889066E-008	0.0132579	7
	32	45	627.7902	4430.775	-3855.307	1	5873.258	-41.02718	-2.667285E-008	0.0132696	7
	33	46	505.5147	4592.619	-4624.415	1	6517.466	-45.19765	-3.609322E-008	0.0133623	7
	34	47	397.9953	4813.154	-5667.402	1	7435.449	-49.65976	4.156679E-009	0.0132725	7
	35	49	315.5048	5077.468	-6923.283	1	8585.601	-53.74405	5.491774E-009	0.0132716	7
	36	50	252.4038	5394.351	-8403.144	1	9985.58	-57.3018	6.053296E-009	0.0132686	7
	37	51	198.6229	5828.39	-10353.83	1	11881.58	-60.62392	9.273429E-010	0.0132107	6
	38	53	158.3615	6351.246	-12620.43	1	14128.47	-63.28613	1.066331E-009	0.0132078	6
	39	54	125.558	7040.903	-15444.58	1	16973.79	-65.49262	9.884426E-010	0.0132149	6
	40	55	100.4464	7877.798	-18739.78	1	20328.29	-67.19917	1.510573E-009	0.013207	6
	41	57	79.00281	9091.824	-23001.79	1	24733.45	-68.4328	1.547953E-009	0.013207	6
	42	58	63.3446	10252.67	-27743.55	1	29577.39	-69.71812	1.132881E-011	0.0132073	6
	43	60	49.86702	12575.68	-33902.52	1	36159.76	-69.64835	-1.280611E-010	0.0132038	6
	44	61	39.72458	14837.83	-41077.28	1	43674.98	-70.1394	6.362926E-010	0.0132096	6
	45	62	31.6723	17852.12	-49574.92	1	52691.28	-70.19585	-1.481549E-010	0.013206	6
	46	64	24.93351	21772.99	-60029.19	1	63855.83	-70.06396	7.679886E-010	0.0132116	6
	47	65	19.86229	26579.05	-71979.15	1	76729.68	-69.7328	8.418048E-010	0.0132133	6
	48	66	15.83615	31736.43	-85445.33	1	91148.81	-69.6238	-5.011401E-010	0.013212	6
	49	68	12.40079	39723.82	-103111.7	1	110498.9	-68.93081	1.652503E-009	0.0132186	5
	50	69	9.93114	49127.75	-122617.3	1	132092.9	-68.16603	7.992672E-010	0.0132189	5
	51	71	7.944915	60488.71	-144366.9	1	156526.9	-67.26665	2.208988E-010	0.0132104	5
	52	72	6.317385	73257.7	-170925.6	1	185963	-66.80031	5.994249E-010	0.0132005	5
	53	74	5.008013	90214.56	-202095.1	1	221316.7	-65.94418	-1.369416E-010	0.0132073	5
	54	77	3.945707	110528.2	-238376.1	1	262754	-65.12419	4.624282E-010	0.0132215	5
	55	79	3.158693	132751.7	-278569.9	1	308584.2	-64.52	-1.231868E-010	0.0132066	5
	56	83	2.504006	161640	-325726.7	1	363628	-63.60736	3.931856E-010	0.0132088	5
	57	85	1.998082	193069	-377756.1	1	424234.9	-62.92868	1.403026E-011	0.0132466	5
	58	89	1.584686	232308.9	-441258.8	1	498675	-62.2346	1.251289E-010	0.0132494	5
	59	92	1.266892	274543.3	-508471	1	577855.3	-61.63367	-7.860598E-011	0.0132474	5
	60	97	0.999041	324839.8	-591531.1	1	674855.4	-61.22657	1.548319E-010	0.0131868	5
