EXPLAIN
TAG	EISPOT
TITLE	LABEL	Potentiostatic EIS	Test &Identifier
DATE	LABEL	11/15/2019	Date
TIME	LABEL	11:53:13	Time
NOTES	NOTES	4	&Notes...
	
	
	
	
PSTAT	PSTAT	REF600-11020	Potentiostat
VDC	POTEN	0.00000E+000	T	DC &Voltage (V)
FREQINIT	QUANT	1.00000E+006	Initial Fre&q. (Hz)
FREQFINAL	QUANT	1.00000E+000	Final Fre&q. (Hz)
PTSPERDEC	QUANT	1.00000E+001	Points/&decade
VAC	QUANT	2.50000E+001	AC &Voltage (mV rms)
AREA	QUANT	1.00000E-002	&Area (cm^2)
CONDIT	TWOPARAM	T	5.00000E+000	0.00000E+000	Conditionin&g	Time(s)	E(V)
DELAY	TWOPARAM	T	5.00000E+000	0.00000E+000	Init. De&lay	Time(s)	Stab.(mV/s)
SPEED	SELECTOR	0	&Optimize for:
ZGUESS	QUANT	1.00000E+005	E&stimated Z (ohms)
OCVCURVE	TABLE	19
	Pt	T	Vf	Vm	Ach	Over
	#	s	V vs. Ref.	V	V	bits
	0	0.258333	5.28890E-003	5.28890E-003	5.57799E-004	...........
	1	0.516667	5.30930E-003	6.35685E-003	5.64566E-004	...........
	2	0.775	5.42029E-003	6.62146E-003	5.63666E-004	...........
	3	1.03333	5.69019E-003	7.05178E-003	5.67266E-004	...........
	4	1.29167	6.08314E-003	6.80010E-003	5.62266E-004	...........
	5	1.55	6.47142E-003	7.12014E-003	5.67899E-004	...........
	6	1.80833	6.76005E-003	7.30033E-003	5.62499E-004	...........
	7	2.06667	6.94615E-003	6.90490E-003	5.59766E-004	...........
	8	2.325	7.04770E-003	6.79703E-003	5.58866E-004	...........
	9	2.58333	7.05643E-003	6.81201E-003	5.59566E-004	...........
	10	2.84167	6.98990E-003	6.85362E-003	5.59466E-004	...........
	11	3.1	6.90912E-003	6.91857E-003	5.60232E-004	...........
	12	3.35833	6.86446E-003	6.92218E-003	5.66032E-004	...........
	13	3.61667	6.86346E-003	6.93645E-003	5.63932E-004	...........
	14	3.875	6.88619E-003	6.95448E-003	5.66066E-004	...........
	15	4.13333	6.91261E-003	6.96940E-003	5.58366E-004	...........
	16	4.39167	6.93490E-003	6.99288E-003	5.66266E-004	...........
	17	4.65	6.95376E-003	7.01099E-003	5.62099E-004	...........
	18	4.90833	6.97191E-003	7.03570E-003	5.59966E-004	...........
EOC	QUANT	0.0069719	Open Circuit (V)
PSTATMODEL	IQUANT	4	Pstat Model
PSTATSECTION	LABEL	REF600-11020	Pstat Section
PSTATSERIALNO	LABEL	11020	Pstat Serial Number
CTRLMODE	IQUANT	1	Control Mode
IESTAB	IQUANT	0	I/E Stability
CASPEED	IQUANT	1	Control Amp Speed
CONVENTION	IQUANT	1	Current Convention
ICHRANGE	IQUANT	2	Ich Range
ICHRANGEMODE	TOGGLE	F	Ich Auto Range
ICHOFFSETENABLE	TOGGLE	T	Ich Offset Enable
ICHOFFSET	QUANT	0	Ich Offset (V)
ICHFILTER	IQUANT	3	Ich Filter
VCHRANGE	IQUANT	2	Vch Range
VCHRANGEMODE	TOGGLE	F	Vch Auto Range
VCHOFFSETENABLE	TOGGLE	T	Vch Offset Enable
VCHOFFSET	QUANT	0	Vch Offset (V)
VCHFILTER	IQUANT	3	Vch Filter
ACHRANGE	IQUANT	2	Ach Range
ACHOFFSETENABLE	TOGGLE	F	Ach Offset Enable
ACHOFFSET	QUANT	0	Ach Offset (V)
ACHFILTER	IQUANT	3	Ach Filter
IERANGELOWERLIMIT	IQUANT	1	I/E Range Lower Limit
IERANGEMODE	TOGGLE	F	I/E AutoRange
IERANGE	IQUANT	5	I/E Range
POSFEEDENABLE	TOGGLE	F	Positive Feedback IR Comp
POSFEEDRESISTANCE	QUANT	0	Positive Feedback Resistance (ohm)
ACHSELECT	IQUANT	0	Ach Select
CABLEID	IQUANT	14	Cable ID
DCCALDATE	LABEL	8/19/2019	DC Calibration Date
ACCALDATE	LABEL	8/19/2019	AC Calibration Date
THERMOSELECT	IQUANT	1	Thermo Select
FRAMEWORKVERSION	QUANT	6.33	Framework Version
INSTRUMENTVERSION	LABEL	3.50	Instrument Version
ZCURVE	TABLE
	Pt	Time	Freq	Zreal	Zimag	Zsig	Zmod	Zphz	Idc	Vdc	IERange
	#	s	Hz	ohm	ohm	V	ohm	°	A	V	#
	0	1	1000078	2321.02	-1821.223	1	2950.252	-38.12004	-1.572405E-005	0.0107716	8
	1	1	794390.6	2688.42	-1789.799	1	3229.703	-33.65344	-2.818684E-006	0.0102297	8
	2	2	630984.4	3040.415	-1722.629	1	3494.506	-29.53489	-3.752046E-006	0.0094685	8
	3	2	501234.4	3347.98	-1581.928	1	3702.899	-25.29084	2.683129E-006	0.0090185	8
	4	2	398109.4	3605.676	-1410.228	1	3871.646	-21.36114	6.113269E-006	0.0078908	8
	5	3	316265.6	3816.767	-1262.142	1	4020.039	-18.2982	-6.911037E-006	0.0095731	8
	6	3	251203.1	3986.335	-1102.292	1	4135.93	-15.45707	2.457287E-007	0.0082725	8
	7	3	199546.9	4107.14	-952.633	1	4216.172	-13.05859	5.968041E-006	0.0078856	8
	8	3	158578.1	4186.938	-806.8789	1	4263.977	-10.90794	-3.007314E-006	0.0091518	8
	9	4	125953.1	4296.418	-672.9023	1	4348.794	-8.901317	-2.542507E-006	0.0122485	7
	10	4	100078.1	4362.067	-598.1028	1	4402.88	-7.807401	-3.016497E-007	0.0076092	7
	11	4	79453.13	4409.72	-544.5219	1	4443.212	-7.039373	-7.607279E-007	0.0083355	7
	12	5	63140.62	4454.736	-508.4884	1	4483.663	-6.511876	3.92362E-007	0.00914	7
	13	5	50203.12	4491.402	-479.1497	1	4516.888	-6.089371	-7.607373E-007	0.0083331	7
	14	5	39890.62	4528.104	-469.8215	1	4552.412	-5.92363	-7.582275E-007	0.0083329	7
	15	6	31640.63	4568.744	-468.0263	1	4592.654	-5.849028	5.469831E-007	0.0067422	7
	16	6	25171.88	4599.918	-480.8723	1	4624.985	-5.967985	-1.187439E-006	0.0102637	7
	17	6	20015.62	4644.545	-510.6758	1	4672.536	-6.274567	5.470941E-007	0.0067397	7
	18	7	15890.62	4680.139	-548.2924	1	4712.147	-6.681914	-3.051658E-007	0.0075949	7
	19	7	12609.37	4728.564	-607.0602	1	4767.373	-7.315702	6.318603E-007	0.0088031	7
	20	7	10078.13	4766.516	-676.5068	1	4814.284	-8.07798	-3.370061E-007	0.0100023	7
	21	7	8015.625	4821.209	-769.6738	1	4882.26	-9.070349	1.17039E-006	0.006989	7
	22	8	6328.125	4871.708	-884.4877	1	4951.349	-10.2903	-3.367529E-007	0.0100019	7
	23	8	5015.625	4936.545	-1032.12	1	5043.288	-11.80915	1.074591E-006	0.0078128	7
	24	8	3984.375	4993.276	-1208.698	1	5137.486	-13.60755	-1.317919E-006	0.0100682	7
	25	9	3170.956	5064.679	-1425.072	1	5261.35	-15.71526	-1.106067E-006	0.0090486	7
	26	9	2527.573	5150.77	-1693.789	1	5422.117	-18.20304	8.564941E-007	0.0066252	7
	27	9	1976.103	5251.972	-2051.233	1	5638.331	-21.33385	1.170763E-006	0.0069825	7
	28	10	1577.524	5353.498	-2452.202	1	5888.398	-24.61043	-3.028186E-007	0.0075799	7
	29	10	1265.625	5477.797	-2930.57	1	6212.447	-28.14636	8.690832E-007	0.0083367	7
	30	10	998.264	5629.903	-3559.774	1	6660.916	-32.30507	4.789461E-008	0.0095827	7
	31	11	796.875	5799.181	-4286.886	1	7211.649	-36.47266	-6.834472E-007	0.0102453	7
	32	11	627.7902	6008.512	-5235.36	1	7969.392	-41.06641	-1.302183E-006	0.0096602	7
	33	11	505.5147	6242.321	-6296.079	1	8866.069	-45.24565	3.958257E-007	0.0091264	7
	34	12	397.9953	6538.566	-7714.461	1	10112.65	-49.7163	-7.740902E-010	0.0085535	7
	35	12	315.5048	6883.133	-9413.234	1	11661.33	-53.82503	-5.843759E-010	0.0084942	6
	36	12	252.4038	7276.101	-11422.6	1	13543.17	-57.50321	3.659932E-010	0.00848	6
	37	13	198.6229	7784.506	-14083.23	1	16091.49	-61.06837	4.433475E-010	0.0084867	6
	38	13	158.3615	8361.468	-17191.14	1	19116.73	-64.06252	-4.164554E-010	0.0084908	6
	39	13	125.558	9131.203	-21110.07	1	23000.3	-66.60901	6.977632E-010	0.0084818	6
	40	13	100.4464	10056.92	-25760.43	1	27653.96	-68.67423	1.5025E-009	0.0084778	6
	41	14	79.00281	11405.38	-31924.32	1	33900.52	-70.34008	7.352402E-011	0.0084862	6
	42	14	63.3446	12598.88	-39158.61	1	41135.48	-72.16496	4.026288E-010	0.0084909	6
	43	14	49.86702	14736.08	-48060.57	1	50268.98	-72.95369	-3.269168E-010	0.008477	6
	44	15	39.72458	17796.04	-58676.29	1	61315.63	-73.12788	7.236063E-010	0.0084882	6
	45	15	31.6723	21417.82	-71645.12	1	74777.98	-73.35632	-6.173642E-010	0.0084863	6
	46	15	24.93351	26668.55	-87849.99	1	91808.67	-73.11333	1.193226E-010	0.0084739	6
	47	16	19.86229	33083	-106565.4	1	111582.5	-72.75315	1.001075E-009	0.0084949	5
	48	16	15.83615	42933.67	-129319.6	1	136260.3	-71.63401	-1.6393E-009	0.0084974	5
	49	16	12.40079	53033.85	-157769.5	1	166444.6	-71.42005	-6.203454E-010	0.0084916	5
	50	17	9.93114	69514.85	-186799.6	1	199314.8	-69.58795	-6.970221E-010	0.0084942	5
	51	17	7.944915	88228.7	-221020.5	1	237979.8	-68.23872	-6.939467E-010	0.008496	5
	52	18	6.317385	113625.4	-261013.8	1	284673.4	-66.47539	-3.688584E-010	0.0085066	5
	53	19	5.008013	145637.9	-305993.3	1	338883.9	-64.54783	-8.740395E-011	0.0084952	5
	54	20	3.945707	185781.3	-355425.3	1	401051	-62.40387	-8.383528E-011	0.008474	5
	55	21	3.158693	230705.9	-406740.3	1	467614	-60.43779	-3.51285E-011	0.0084689	5
	56	23	2.504006	283278.3	-458793.1	1	539200.9	-58.30706	4.961083E-010	0.0084753	5
	57	24	1.998082	343420.2	-518653.8	1	622044.4	-56.48996	-3.033446E-011	0.00844	5
	58	26	1.584686	409526.2	-582644.1	1	712169.8	-54.89756	-1.622442E-010	0.0084311	5
	59	28	1.266892	476382.3	-648593.8	1	804744.7	-53.70329	-1.175169E-010	0.0084559	5
	60	30	0.999041	552666.9	-726391.5	1	912735.1	-52.73471	-9.864289E-011	0.0084812	5
