EXPLAIN
TAG	EISPOT
TITLE	LABEL	Potentiostatic EIS	Test &Identifier
DATE	LABEL	10/2/2019	Date
TIME	LABEL	8:37:04	Time
NOTES	NOTES	2	&Notes...
	
	
PSTAT	PSTAT	REF600-11020	Potentiostat
VDC	POTEN	0.00000E+000	T	DC &Voltage (V)
FREQINIT	QUANT	1.00000E+006	Initial Fre&q. (Hz)
FREQFINAL	QUANT	1.00000E+000	Final Fre&q. (Hz)
PTSPERDEC	QUANT	1.00000E+001	Points/&decade
VAC	QUANT	2.50000E+001	AC &Voltage (mV rms)
AREA	QUANT	1.00000E-002	&Area (cm^2)
CONDIT	TWOPARAM	T	5.00000E+000	0.00000E+000	Conditionin&g	Time(s)	E(V)
DELAY	TWOPARAM	T	5.00000E+000	0.00000E+000	Init. De&lay	Time(s)	Stab.(mV/s)
SPEED	SELECTOR	1	&Optimize for:
ZGUESS	QUANT	1.00000E+004	E&stimated Z (ohms)
OCVCURVE	TABLE	19
	Pt	T	Vf	Vm	Ach	Over
	#	s	V vs. Ref.	V	V	bits
	0	0.258333	3.17974E-003	3.17974E-003	5.67999E-004	...........
	1	0.516667	3.17560E-003	2.96284E-003	5.66766E-004	...........
	2	0.775	3.15017E-003	2.75818E-003	5.66432E-004	...........
	3	1.03333	3.07872E-003	2.58357E-003	5.64666E-004	...........
	4	1.29167	2.95272E-003	2.41116E-003	5.66566E-004	...........
	5	1.55	2.78945E-003	2.28994E-003	5.65866E-004	...........
	6	1.80833	2.61637E-003	2.16769E-003	5.64332E-004	...........
	7	2.06667	2.45422E-003	2.06653E-003	5.63432E-004	...........
	8	2.325	2.31154E-003	1.96590E-003	5.66499E-004	...........
	9	2.58333	2.18927E-003	1.96257E-003	5.69999E-004	...........
	10	2.84167	2.08925E-003	1.92937E-003	5.66566E-004	...........
	11	3.1	2.01358E-003	1.82266E-003	5.66399E-004	...........
	12	3.35833	1.95389E-003	1.71108E-003	5.68132E-004	...........
	13	3.61667	1.89092E-003	1.56258E-003	5.74099E-004	...........
	14	3.875	1.80871E-003	1.45911E-003	5.70799E-004	...........
	15	4.13333	1.70749E-003	1.46310E-003	5.66666E-004	...........
	16	4.39167	1.60546E-003	1.45429E-003	5.68232E-004	...........
	17	4.65	1.52367E-003	1.34368E-003	5.65899E-004	...........
	18	4.90833	1.46416E-003	1.27214E-003	5.71932E-004	...........
EOC	QUANT	0.0014642	Open Circuit (V)
PSTATMODEL	IQUANT	4	Pstat Model
PSTATSECTION	LABEL	REF600-11020	Pstat Section
PSTATSERIALNO	LABEL	11020	Pstat Serial Number
CTRLMODE	IQUANT	1	Control Mode
IESTAB	IQUANT	0	I/E Stability
CASPEED	IQUANT	1	Control Amp Speed
CONVENTION	IQUANT	1	Current Convention
ICHRANGE	IQUANT	2	Ich Range
ICHRANGEMODE	TOGGLE	F	Ich Auto Range
ICHOFFSETENABLE	TOGGLE	T	Ich Offset Enable
ICHOFFSET	QUANT	0	Ich Offset (V)
ICHFILTER	IQUANT	3	Ich Filter
VCHRANGE	IQUANT	2	Vch Range
VCHRANGEMODE	TOGGLE	F	Vch Auto Range
VCHOFFSETENABLE	TOGGLE	T	Vch Offset Enable
VCHOFFSET	QUANT	0	Vch Offset (V)
VCHFILTER	IQUANT	3	Vch Filter
ACHRANGE	IQUANT	2	Ach Range
ACHOFFSETENABLE	TOGGLE	F	Ach Offset Enable
ACHOFFSET	QUANT	0	Ach Offset (V)
ACHFILTER	IQUANT	3	Ach Filter
IERANGELOWERLIMIT	IQUANT	1	I/E Range Lower Limit
IERANGEMODE	TOGGLE	F	I/E AutoRange
IERANGE	IQUANT	5	I/E Range
POSFEEDENABLE	TOGGLE	F	Positive Feedback IR Comp
POSFEEDRESISTANCE	QUANT	0	Positive Feedback Resistance (ohm)
ACHSELECT	IQUANT	0	Ach Select
CABLEID	IQUANT	14	Cable ID
DCCALDATE	LABEL	8/19/2019	DC Calibration Date
ACCALDATE	LABEL	8/19/2019	AC Calibration Date
THERMOSELECT	IQUANT	1	Thermo Select
FRAMEWORKVERSION	QUANT	6.33	Framework Version
INSTRUMENTVERSION	LABEL	3.50	Instrument Version
ZCURVE	TABLE
	Pt	Time	Freq	Zreal	Zimag	Zsig	Zmod	Zphz	Idc	Vdc	IERange
	#	s	Hz	ohm	ohm	V	ohm	°	A	V	#
	0	2	1000078	2059.009	-813.7736	1	2213.989	-21.56521	5.904154E-006	0.0028775	8
	1	3	794390.6	2174.271	-722.4686	1	2291.161	-18.38065	-3.420342E-006	0.0036968	8
	2	5	630984.4	2272.486	-628.976	1	2357.924	-15.47096	-2.370686E-006	0.0037113	8
	3	6	501234.4	2342.371	-535.5851	1	2402.822	-12.87933	-1.577733E-007	0.0033847	8
	4	7	398109.4	2397.265	-460.1498	1	2441.028	-10.86564	-2.742955E-006	0.0035178	8
	5	9	316265.6	2429.916	-396.4641	1	2462.047	-9.266704	9.982334E-007	0.0031122	8
	6	10	251203.1	2469.173	-344.6966	1	2493.117	-7.947133	2.759782E-006	0.0025402	8
	7	11	199546.9	2506.092	-315.6544	1	2525.892	-7.178879	-3.019873E-006	0.0036915	8
	8	13	158578.1	2530.019	-290.8857	1	2546.686	-6.558712	-3.148908E-007	0.0030927	8
	9	14	125953.1	2563.878	-244.4055	1	2575.501	-5.445351	7.128585E-007	0.0011614	7
	10	15	100078.1	2576.623	-228.3241	1	2586.72	-5.063964	-5.007806E-008	0.0031939	7
	11	17	79453.13	2597.548	-230.6656	1	2607.769	-5.074628	7.243385E-008	0.002902	7
	12	18	63140.62	2619.159	-238.5543	1	2630	-5.20417	4.420821E-008	0.0029174	7
	13	19	50203.12	2644.241	-249.2049	1	2655.958	-5.383904	7.374975E-008	0.0029034	7
	14	21	39890.62	2670.425	-264.5153	1	2683.494	-5.656901	-4.065021E-008	0.0030911	7
	15	22	31640.63	2698.727	-284.8503	1	2713.718	-6.025255	7.418114E-008	0.0028994	7
	16	23	25171.88	2729.403	-310.5266	1	2747.01	-6.490685	-3.173091E-009	0.0029992	7
	17	25	20015.62	2762.889	-341.698	1	2783.938	-7.050209	1.213204E-007	0.0028656	7
	18	26	15890.62	2800.357	-378.676	1	2825.844	-7.701062	-6.875234E-008	0.0031563	7
	19	27	12609.37	2841.195	-422.3063	1	2872.408	-8.454367	1.997929E-009	0.0030505	7
	20	29	10078.13	2885.387	-473.6999	1	2924.013	-9.323196	-2.655833E-009	0.0029985	7
	21	30	8015.625	2935.028	-532.9604	1	2983.024	-10.29198	-1.233839E-008	0.0030201	7
	22	31	6328.125	2990.48	-604.7398	1	3051.013	-11.43227	-2.097081E-008	0.0031801	7
	23	33	5015.625	3049.52	-687.7065	1	3126.102	-12.70836	6.733493E-008	0.0029299	7
	24	34	3984.375	3112.455	-784.9386	1	3209.907	-14.15443	2.680442E-008	0.0030236	7
	25	36	3170.956	3179.894	-899.5305	1	3304.676	-15.79518	-1.251343E-008	0.0030118	7
	26	37	2527.573	3250.146	-1035.294	1	3411.053	-17.66863	-6.806319E-008	0.0031513	7
	27	38	1976.103	3330.791	-1215.766	1	3545.737	-20.05249	-3.742463E-008	0.0030562	7
	28	40	1577.524	3407.449	-1417.19	1	3690.411	-22.58288	-3.831381E-008	0.0031214	7
	29	41	1265.625	3485.581	-1658.937	1	3860.226	-25.45177	1.225674E-007	0.0028582	7
	30	42	998.264	3575.667	-1981.435	1	4087.968	-28.99277	-3.243751E-008	0.0030505	7
	31	44	796.875	3670.746	-2364.931	1	4366.609	-32.79224	-1.051157E-008	0.0030789	7
	32	45	627.7902	3783.875	-2871.676	1	4750.182	-37.19577	-6.758119E-008	0.0031506	7
	33	46	505.5147	3899.371	-3440.021	1	5199.889	-41.4187	-3.421588E-009	0.0029901	7
	34	48	397.9953	4055.896	-4215.467	1	5849.826	-46.10521	5.600924E-009	0.0030604	7
	35	49	315.5048	4239.665	-5151.938	1	6672.122	-50.54814	5.221895E-009	0.003064	7
	36	50	252.4038	4456.251	-6258.031	1	7682.521	-54.54589	5.271372E-009	0.003059	7
	37	52	198.6229	4749.376	-7723.371	1	9066.809	-58.41116	5.470403E-009	0.0030631	7
	38	53	158.3615	5101.275	-9430.21	1	10721.56	-61.58881	7.211566E-010	0.0029998	6
	39	54	125.558	5559.198	-11570.67	1	12836.86	-64.33776	9.937988E-010	0.0030029	6
	40	56	100.4464	6121.563	-14083.63	1	15356.5	-66.50743	3.035059E-010	0.0030001	6
	41	57	79.00281	6893.091	-17393.11	1	18709.22	-68.381	6.759864E-010	0.0029938	6
	42	59	63.3446	7884.026	-21042.95	1	22471.39	-69.46085	6.098744E-010	0.002992	6
	43	60	49.86702	9064.877	-25977.58	1	27513.76	-70.76357	3.208191E-010	0.0029907	6
	44	61	39.72458	10620.94	-31505.17	1	33247.26	-71.37015	1.486205E-009	0.0029983	6
	45	63	31.6723	12639.14	-38228.04	1	40263.27	-71.70483	3.644091E-010	0.0029921	6
	46	64	24.93351	15267.71	-46672.48	1	49106.25	-71.88582	5.220188E-010	0.0030011	6
	47	65	19.86229	18504.98	-56352.96	1	59313.5	-71.82104	8.900339E-010	0.0029936	6
	48	67	15.83615	22327.58	-67971.6	1	71544.8	-71.81548	-2.551325E-010	0.0029957	6
	49	68	12.40079	27926.83	-82420.09	1	87022.86	-71.28181	-5.841416E-011	0.0030036	6
	50	70	9.93114	34092.48	-98614.9	1	104341.7	-70.92905	1.633602E-010	0.0030057	6
	51	71	7.944915	41639.91	-117403	1	124568.7	-70.47169	9.226479E-010	0.0030055	5
	52	73	6.317385	51135.41	-140481.2	1	149498.5	-69.99841	1.757482E-010	0.0030161	5
	53	75	5.008013	62890.91	-168029.7	1	179413.6	-69.4799	1.074735E-010	0.0029876	5
	54	77	3.945707	77872.76	-201113.6	1	215663.8	-68.83321	5.449015E-010	0.0030004	5
	55	80	3.158693	94787.79	-238206.5	1	256372.9	-68.30126	2.385794E-011	0.002994	5
	56	83	2.504006	116248.7	-282919.4	1	305871.2	-67.66274	6.097645E-010	0.0030016	5
	57	86	1.998082	141389.1	-333802.8	1	362512.3	-67.04391	2.978134E-010	0.0030302	5
	58	89	1.584686	173890.6	-394056.5	1	430718.5	-66.18892	2.34716E-010	0.0029591	5
	59	93	1.266892	209451.3	-463099.3	1	508262.5	-65.66364	3.193116E-010	0.0030242	5
	60	97	0.999041	257266	-548064	1	605441.9	-64.85423	8.863715E-012	0.0029623	5
