EXPLAIN
TAG	EISPOT
TITLE	LABEL	Potentiostatic EIS	Test &Identifier
DATE	LABEL	10/8/2019	Date
TIME	LABEL	9:01:40	Time
NOTES	NOTES	2	&Notes...
	
	
PSTAT	PSTAT	REF600-11020	Potentiostat
VDC	POTEN	0.00000E+000	T	DC &Voltage (V)
FREQINIT	QUANT	1.00000E+006	Initial Fre&q. (Hz)
FREQFINAL	QUANT	1.00000E+000	Final Fre&q. (Hz)
PTSPERDEC	QUANT	1.00000E+001	Points/&decade
VAC	QUANT	2.50000E+001	AC &Voltage (mV rms)
AREA	QUANT	1.00000E-002	&Area (cm^2)
CONDIT	TWOPARAM	T	5.00000E+000	0.00000E+000	Conditionin&g	Time(s)	E(V)
DELAY	TWOPARAM	T	5.00000E+000	0.00000E+000	Init. De&lay	Time(s)	Stab.(mV/s)
SPEED	SELECTOR	1	&Optimize for:
ZGUESS	QUANT	1.00000E+004	E&stimated Z (ohms)
OCVCURVE	TABLE	19
	Pt	T	Vf	Vm	Ach	Over
	#	s	V vs. Ref.	V	V	bits
	0	0.258333	6.30296E-003	6.30296E-003	5.16300E-004	...........
	1	0.516667	6.30307E-003	6.30906E-003	5.16000E-004	...........
	2	0.775	6.30410E-003	6.33126E-003	5.16633E-004	...........
	3	1.03333	6.30813E-003	6.35638E-003	5.11400E-004	...........
	4	1.29167	6.31786E-003	6.39018E-003	5.15800E-004	...........
	5	1.55	6.33500E-003	6.42785E-003	5.17366E-004	...........
	6	1.80833	6.35962E-003	6.46689E-003	5.17433E-004	...........
	7	2.06667	6.39031E-003	6.49465E-003	5.13666E-004	...........
	8	2.325	6.42457E-003	6.53677E-003	5.15733E-004	...........
	9	2.58333	6.46037E-003	6.58435E-003	5.15100E-004	...........
	10	2.84167	6.49787E-003	6.63481E-003	5.18866E-004	...........
	11	3.1	6.53845E-003	6.67675E-003	5.17666E-004	...........
	12	3.35833	6.58227E-003	6.72420E-003	5.15700E-004	...........
	13	3.61667	6.62788E-003	6.76667E-003	5.16766E-004	...........
	14	3.875	6.67371E-003	6.81144E-003	5.14233E-004	...........
	15	4.13333	6.71980E-003	6.89776E-003	5.18566E-004	...........
	16	4.39167	6.76764E-003	6.88843E-003	5.09733E-004	...........
	17	4.65	6.81604E-003	6.93745E-003	5.14033E-004	...........
	18	4.90833	6.86240E-003	7.07398E-003	5.15400E-004	...........
EOC	QUANT	0.0068624	Open Circuit (V)
PSTATMODEL	IQUANT	4	Pstat Model
PSTATSECTION	LABEL	REF600-11020	Pstat Section
PSTATSERIALNO	LABEL	11020	Pstat Serial Number
CTRLMODE	IQUANT	1	Control Mode
IESTAB	IQUANT	0	I/E Stability
CASPEED	IQUANT	1	Control Amp Speed
CONVENTION	IQUANT	1	Current Convention
ICHRANGE	IQUANT	2	Ich Range
ICHRANGEMODE	TOGGLE	F	Ich Auto Range
ICHOFFSETENABLE	TOGGLE	T	Ich Offset Enable
ICHOFFSET	QUANT	0	Ich Offset (V)
ICHFILTER	IQUANT	3	Ich Filter
VCHRANGE	IQUANT	2	Vch Range
VCHRANGEMODE	TOGGLE	F	Vch Auto Range
VCHOFFSETENABLE	TOGGLE	T	Vch Offset Enable
VCHOFFSET	QUANT	0	Vch Offset (V)
VCHFILTER	IQUANT	3	Vch Filter
ACHRANGE	IQUANT	2	Ach Range
ACHOFFSETENABLE	TOGGLE	F	Ach Offset Enable
ACHOFFSET	QUANT	0	Ach Offset (V)
ACHFILTER	IQUANT	3	Ach Filter
IERANGELOWERLIMIT	IQUANT	1	I/E Range Lower Limit
IERANGEMODE	TOGGLE	F	I/E AutoRange
IERANGE	IQUANT	6	I/E Range
POSFEEDENABLE	TOGGLE	F	Positive Feedback IR Comp
POSFEEDRESISTANCE	QUANT	0	Positive Feedback Resistance (ohm)
ACHSELECT	IQUANT	0	Ach Select
CABLEID	IQUANT	14	Cable ID
DCCALDATE	LABEL	8/19/2019	DC Calibration Date
ACCALDATE	LABEL	8/19/2019	AC Calibration Date
THERMOSELECT	IQUANT	1	Thermo Select
FRAMEWORKVERSION	QUANT	6.33	Framework Version
INSTRUMENTVERSION	LABEL	3.50	Instrument Version
ZCURVE	TABLE
	Pt	Time	Freq	Zreal	Zimag	Zsig	Zmod	Zphz	Idc	Vdc	IERange
	#	s	Hz	ohm	ohm	V	ohm	°	A	V	#
	0	2	1000078	2453.168	-1515.683	1	2883.631	-31.70973	6.396606E-006	0.0079169	8
	1	3	794390.6	2727.186	-1461.506	1	3094.115	-28.18698	-1.110848E-006	0.0084542	8
	2	4	630984.4	2988.482	-1360.421	1	3283.561	-24.47605	-3.528015E-006	0.0090756	8
	3	6	501234.4	3196.24	-1246.121	1	3430.563	-21.29936	-3.009065E-006	0.0089492	8
	4	7	398109.4	3391.341	-1114.4	1	3569.745	-18.1906	-2.6239E-006	0.0090323	8
	5	8	316265.6	3560.925	-984.104	1	3694.407	-15.44876	-9.451786E-007	0.0085919	8
	6	10	251203.1	3681.208	-870.4007	1	3782.709	-13.30295	-9.494246E-007	0.0086866	8
	7	11	199546.9	3767.874	-739.2256	1	3839.704	-11.09997	-8.724863E-009	0.0084362	8
	8	12	158578.1	3858.926	-643.6661	1	3912.239	-9.469716	-9.929468E-007	0.00868	8
	9	14	125953.1	3929.428	-523.3229	1	3964.123	-7.586036	6.710843E-007	0.0074573	7
	10	15	100078.1	3971.334	-460.4354	1	3997.937	-6.61333	-3.468053E-008	0.0083202	7
	11	17	79453.13	4007.727	-416.5025	1	4029.311	-5.933157	-4.140954E-008	0.0083911	7
	12	18	63140.62	4041.353	-382.1018	1	4059.376	-5.401145	-7.212726E-009	0.0083404	7
	13	19	50203.12	4072.068	-359.3356	1	4087.892	-5.042947	4.448809E-008	0.0081652	7
	14	21	39890.62	4100.593	-346.6994	1	4115.223	-4.832785	3.818565E-008	0.0082615	7
	15	22	31640.63	4126.288	-341.1153	1	4140.363	-4.725828	6.399539E-008	0.0081986	7
	16	23	25171.88	4153.072	-346.674	1	4167.516	-4.771652	9.13695E-008	0.0082394	7
	17	25	20015.62	4172.628	-362.0679	1	4188.308	-4.959256	-1.472625E-008	0.0084419	7
	18	26	15890.62	4206.288	-386.2699	1	4223.987	-5.246844	-5.021777E-009	0.0083382	7
	19	27	12609.37	4234.018	-421.8289	1	4254.979	-5.689519	-8.069148E-008	0.0084381	7
	20	29	10078.13	4262.3	-469.7027	1	4288.103	-6.288583	-3.869199E-008	0.0083174	7
	21	30	8015.625	4294.151	-534.3667	1	4327.272	-7.093455	-3.53306E-008	0.00833	7
	22	32	6328.125	4325.931	-616.5256	1	4369.643	-8.111093	8.543117E-008	0.0082454	7
	23	33	5015.625	4363.356	-722.6618	1	4422.795	-9.403998	8.974426E-008	0.0082423	7
	24	34	3984.375	4405.879	-849.2723	1	4486.985	-10.91045	-3.796378E-008	0.0083145	7
	25	36	3170.956	4449.64	-1012.868	1	4563.463	-12.82369	-1.892055E-008	0.0083539	7
	26	37	2527.573	4501.395	-1210.012	1	4661.189	-15.04591	-2.416752E-009	0.0083094	7
	27	38	1976.103	4567.798	-1469.189	1	4798.259	-17.8299	4.34989E-008	0.0081585	7
	28	40	1577.524	4638.031	-1765.623	1	4962.737	-20.84102	-1.949094E-008	0.0083561	7
	29	41	1265.625	4719.842	-2117.136	1	5172.927	-24.15913	-1.906588E-008	0.0082663	7
	30	42	998.264	4820.27	-2583.041	1	5468.739	-28.18555	6.576512E-008	0.0081889	7
	31	44	796.875	4931.31	-3125.367	1	5838.299	-32.36572	-4.902466E-008	0.0083322	7
	32	45	627.7902	5072.892	-3834.681	1	6359.168	-37.08623	-3.914533E-009	0.0083363	7
	33	46	505.5147	5215.592	-4623.409	1	6969.814	-41.55567	6.823532E-009	0.0082349	7
	34	48	397.9953	5409.208	-5698.805	1	7857.22	-46.49342	4.601535E-009	0.0083186	7
	35	49	315.5048	5639.646	-6994.575	1	8984.97	-51.12117	4.957331E-009	0.0083193	7
	36	51	252.4038	5916.705	-8526.646	1	10378.39	-55.24292	8.060279E-010	0.0082541	6
	37	52	198.6229	6285.721	-10559.37	1	12288.63	-59.23574	7.683477E-010	0.0082552	6
	38	53	158.3615	6730.878	-12932.89	1	14579.58	-62.50542	7.968777E-010	0.0082502	6
	39	55	125.558	7322.549	-15919.78	1	17523.1	-65.29919	6.646169E-010	0.0082499	6
	40	56	100.4464	8045.542	-19440.65	1	21039.71	-67.51771	4.445882E-010	0.0082479	6
	41	57	79.00281	9076.522	-24101.15	1	25753.62	-69.36357	7.83788E-010	0.0082523	6
	42	59	63.3446	10380.27	-29434	1	31210.74	-70.57416	2.179169E-010	0.0082522	6
	43	60	49.86702	11991.3	-36152.81	1	38089.59	-71.65015	-6.672796E-011	0.008253	6
	44	62	39.72458	14358.08	-44071.86	1	46351.74	-71.95502	9.107417E-010	0.0082552	6
	45	63	31.6723	17397.69	-53684.72	1	56433.4	-72.04397	7.184746E-010	0.0082523	6
	46	64	24.93351	21520.03	-65703.63	1	69138.11	-71.86473	1.00083E-009	0.0082418	6
	47	66	19.86229	26839.59	-79368.7	1	83783.97	-71.31635	1.39207E-009	0.0082496	6
	48	67	15.83615	33266.57	-95714.2	1	101330.6	-70.83453	1.725939E-009	0.0082532	6
	49	68	12.40079	43371.86	-115977.7	1	123822.3	-69.49586	5.893649E-010	0.0082512	5
	50	70	9.93114	55489.34	-136882	1	147701.5	-67.93331	1.07305E-009	0.0082473	5
	51	71	7.944915	70326.77	-161412.8	1	176068	-66.45748	-3.305888E-010	0.0082549	5
	52	73	6.317385	88952.8	-188729.6	1	208641.9	-64.76437	-3.057094E-010	0.0082572	5
	53	75	5.008013	112249.7	-219569.2	1	246598.1	-62.92266	-2.469087E-010	0.0082479	5
	54	78	3.945707	140577.9	-253571.8	1	289932.4	-60.99641	4.192308E-010	0.0082613	5
	55	80	3.158693	171482.7	-288457.3	1	335580	-59.26928	-1.73418E-010	0.0082491	5
	56	83	2.504006	207727	-327027.7	1	387424.3	-57.57642	4.315927E-010	0.0082512	5
	57	86	1.998082	245739.7	-367383.8	1	441994.2	-56.22179	1.44627E-011	0.0082968	5
	58	89	1.584686	286278.7	-413589	1	503002.3	-55.30973	1.829726E-010	0.0082508	5
	59	93	1.266892	330382.3	-464688.7	1	570164.9	-54.5881	3.237233E-011	0.008291	5
	60	97	0.999041	377920.3	-526834.1	1	648365.6	-54.34653	-6.779863E-011	0.0082136	5
