EXPLAIN
TAG	EISPOT
TITLE	LABEL	Potentiostatic IDE	Test &Identifier
DATE	LABEL	9/8/2019	Date
TIME	LABEL	10:33:25	Time
NOTES	NOTES	1	&Notes...
	
PSTAT	PSTAT	REF600-11020	Potentiostat
VDC	POTEN	0.00000E+000	T	DC &Voltage (V)
FREQINIT	QUANT	1.00000E+006	Initial Fre&q. (Hz)
FREQFINAL	QUANT	1.00000E+000	Final Fre&q. (Hz)
PTSPERDEC	QUANT	1.00000E+001	Points/&decade
VAC	QUANT	2.50000E+001	AC &Voltage (mV rms)
AREA	QUANT	1.00000E-002	&Area (cm^2)
CONDIT	TWOPARAM	T	5.00000E+000	0.00000E+000	Conditionin&g	Time(s)	E(V)
DELAY	TWOPARAM	T	5.00000E+000	0.00000E+000	Init. De&lay	Time(s)	Stab.(mV/s)
SPEED	SELECTOR	1	&Optimize for:
ZGUESS	QUANT	1.00000E+007	E&stimated Z (ohms)
OCVCURVE	TABLE	19
	Pt	T	Vf	Vm	Ach	Over
	#	s	V vs. Ref.	V	V	bits
	0	0.258333	8.30905E-003	8.30905E-003	5.77599E-004	...........
	1	0.516667	8.30925E-003	8.31988E-003	5.72932E-004	...........
	2	0.775	8.31106E-003	8.35789E-003	5.74165E-004	...........
	3	1.03333	8.31812E-003	8.40517E-003	5.83832E-004	...........
	4	1.29167	8.33529E-003	8.46240E-003	5.76566E-004	...........
	5	1.55	8.36551E-003	8.52194E-003	5.79465E-004	...........
	6	1.80833	8.40828E-003	8.58939E-003	5.72599E-004	...........
	7	2.06667	8.46092E-003	8.65471E-003	5.71666E-004	...........
	8	2.325	8.52046E-003	8.72586E-003	5.71499E-004	...........
	9	2.58333	8.58448E-003	8.79364E-003	5.72832E-004	...........
	10	2.84167	8.65128E-003	8.86379E-003	5.76832E-004	...........
	11	3.1	8.71960E-003	8.93173E-003	5.76666E-004	...........
	12	3.35833	8.78862E-003	9.00378E-003	5.78399E-004	...........
	13	3.61667	8.85797E-003	9.07203E-003	5.77999E-004	...........
	14	3.875	8.92742E-003	9.13542E-003	5.75265E-004	...........
	15	4.13333	8.99642E-003	9.20240E-003	5.76099E-004	...........
	16	4.39167	9.06428E-003	9.26617E-003	5.78332E-004	...........
	17	4.65	9.13086E-003	9.33178E-003	5.74399E-004	...........
	18	4.90833	9.19639E-003	9.39059E-003	5.74432E-004	...........
EOC	QUANT	0.0091964	Open Circuit (V)
PSTATMODEL	IQUANT	4	Pstat Model
PSTATSECTION	LABEL	REF600-11020	Pstat Section
PSTATSERIALNO	LABEL	11020	Pstat Serial Number
CTRLMODE	IQUANT	1	Control Mode
IESTAB	IQUANT	0	I/E Stability
CASPEED	IQUANT	1	Control Amp Speed
CONVENTION	IQUANT	1	Current Convention
ICHRANGE	IQUANT	2	Ich Range
ICHRANGEMODE	TOGGLE	F	Ich Auto Range
ICHOFFSETENABLE	TOGGLE	T	Ich Offset Enable
ICHOFFSET	QUANT	0	Ich Offset (V)
ICHFILTER	IQUANT	3	Ich Filter
VCHRANGE	IQUANT	2	Vch Range
VCHRANGEMODE	TOGGLE	F	Vch Auto Range
VCHOFFSETENABLE	TOGGLE	T	Vch Offset Enable
VCHOFFSET	QUANT	0	Vch Offset (V)
VCHFILTER	IQUANT	3	Vch Filter
ACHRANGE	IQUANT	2	Ach Range
ACHOFFSETENABLE	TOGGLE	F	Ach Offset Enable
ACHOFFSET	QUANT	0	Ach Offset (V)
ACHFILTER	IQUANT	3	Ach Filter
IERANGELOWERLIMIT	IQUANT	1	I/E Range Lower Limit
IERANGEMODE	TOGGLE	F	I/E AutoRange
IERANGE	IQUANT	3	I/E Range
POSFEEDENABLE	TOGGLE	F	Positive Feedback IR Comp
POSFEEDRESISTANCE	QUANT	0	Positive Feedback Resistance (ohm)
ACHSELECT	IQUANT	0	Ach Select
CABLEID	IQUANT	14	Cable ID
DCCALDATE	LABEL	8/19/2019	DC Calibration Date
ACCALDATE	LABEL	8/19/2019	AC Calibration Date
THERMOSELECT	IQUANT	1	Thermo Select
FRAMEWORKVERSION	QUANT	6.33	Framework Version
INSTRUMENTVERSION	LABEL	3.50	Instrument Version
ZCURVE	TABLE
	Pt	Time	Freq	Zreal	Zimag	Zsig	Zmod	Zphz	Idc	Vdc	IERange
	#	s	Hz	ohm	ohm	V	ohm	°	A	V	#
	0	2	1000078	2799.514	-1939.906	1	3405.953	-34.71978	2.785686E-006	0.0119508	8
	1	3	794390.6	3164.33	-1831.83	1	3656.308	-30.06653	-5.533596E-006	0.0122523	8
	2	4	630984.4	3501.378	-1723.187	1	3902.438	-26.20389	3.574584E-006	0.0104828	8
	3	6	501234.4	3793.561	-1565.482	1	4103.881	-22.42438	-5.65633E-006	0.012193	8
	4	7	398109.4	4049.669	-1364.301	1	4273.305	-18.61826	-3.176701E-006	0.0117582	8
	5	9	316265.6	4219.802	-1186.271	1	4383.374	-15.70174	1.748169E-006	0.0105331	8
	6	10	251203.1	4355.767	-1045.611	1	4479.51	-13.49856	4.453356E-007	0.010761	8
	7	11	199546.9	4451.819	-895.0267	1	4540.899	-11.36763	5.284929E-006	0.0099619	8
	8	13	158578.1	4578.256	-775.3387	1	4643.445	-9.61198	1.861365E-006	0.0105293	8
	9	14	125953.1	4639.712	-643.7351	1	4684.156	-7.899054	1.352606E-006	0.0078248	7
	10	16	100078.1	4687.935	-582.9926	1	4724.046	-7.08892	-1.118519E-008	0.0109151	7
	11	17	79453.13	4736.525	-542.009	1	4767.436	-6.528062	-4.652586E-008	0.0110221	7
	12	18	63140.62	4776.207	-515.1745	1	4803.91	-6.156276	1.401105E-007	0.0106709	7
	13	20	50203.12	4816.569	-500.3866	1	4842.491	-5.931101	-9.623975E-009	0.0109042	7
	14	21	39890.62	4851.588	-497.2183	1	4877	-5.851567	-5.373156E-008	0.0109807	7
	15	22	31640.63	4895.003	-515.4307	1	4922.065	-6.010942	8.07024E-008	0.0107394	7
	16	24	25171.88	4937.636	-542.2569	1	4967.323	-6.267174	-5.334244E-008	0.0109788	7
	17	25	20015.62	4981.556	-584.7407	1	5015.757	-6.694808	-1.359951E-008	0.0110062	7
	18	26	15890.62	5031.359	-643.1633	1	5072.301	-7.284664	-3.759342E-008	0.0110053	7
	19	28	12609.37	5081.258	-719.5966	1	5131.958	-8.060501	-5.579121E-008	0.0109809	7
	20	29	10078.13	5136.851	-810.7073	1	5200.431	-8.968553	-5.756489E-008	0.0109783	7
	21	30	8015.625	5201.941	-926.5561	1	5283.814	-10.09946	-6.058718E-008	0.0109547	7
	22	32	6328.125	5274.602	-1074.723	1	5382.979	-11.51662	1.401793E-007	0.010668	7
	23	33	5015.625	5358.196	-1252.438	1	5502.624	-13.15626	-3.384134E-008	0.010878	7
	24	34	3984.375	5452.139	-1467.448	1	5646.169	-15.06422	-9.623977E-009	0.0108964	7
	25	36	3170.956	5560.283	-1722.342	1	5820.928	-17.21079	-1.098665E-008	0.0109223	7
	26	37	2527.573	5681.384	-2028.632	1	6032.701	-19.64995	2.335864E-008	0.0107715	7
	27	38	1976.103	5836.239	-2428.164	1	6321.208	-22.58972	-4.509633E-008	0.0110015	7
	28	40	1577.524	6002.898	-2872.304	1	6654.691	-25.57048	-3.894708E-008	0.0109145	7
	29	41	1265.625	6186.528	-3388.767	1	7053.855	-28.71241	7.926499E-008	0.0107281	7
	30	42	998.264	6416.729	-4060.395	1	7593.498	-32.32492	-4.366786E-008	0.0110186	7
	31	44	796.875	6667.854	-4827.479	1	8231.939	-35.90427	-8.830272E-009	0.0108958	7
	32	45	627.7902	6968.627	-5811.811	1	9074.079	-39.82799	-7.231743E-008	0.0109784	7
	33	46	505.5147	7297.782	-6880.977	1	10030.23	-43.31619	-2.382077E-009	0.0107408	6
	34	48	397.9953	7697.333	-8347.357	1	11354.62	-47.31998	5.175098E-010	0.0108254	6
	35	49	315.5048	8154.908	-10081.08	1	12966.52	-51.0295	8.019166E-010	0.0108235	6
	36	50	252.4038	8671.53	-12109.04	1	14893.77	-54.39278	4.068149E-010	0.0108219	6
	37	52	198.6229	9331.56	-14777.26	1	17477	-57.72837	9.877462E-010	0.0108222	6
	38	53	158.3615	10088.82	-17868.22	1	20519.69	-60.5499	1.451415E-009	0.010824	6
	39	54	125.558	11027.81	-21745.71	1	24382.14	-63.10927	8.533323E-010	0.010816	6
	40	56	100.4464	12146.28	-26257.41	1	28930.67	-65.17545	3.150714E-010	0.0108235	6
	41	57	79.00281	13543.21	-32227.37	1	34957.43	-67.20594	5.998964E-010	0.0108226	6
	42	58	63.3446	15305.5	-38599.1	1	41522.87	-68.37045	9.805146E-010	0.0108233	6
	43	60	49.86702	17703.01	-47989.28	1	51150.44	-69.75123	1.251409E-009	0.0108198	6
	44	61	39.72458	20427.09	-57913.46	1	61410.38	-70.57136	8.943311E-010	0.010822	6
	45	62	31.6723	23889.67	-70444.95	1	74385.53	-71.2669	1.363602E-009	0.0108225	6
	46	64	24.93351	28576.7	-86080.63	1	90700.07	-71.63508	5.821937E-010	0.0108155	6
	47	65	19.86229	34418.82	-104218.6	1	109755	-71.72388	8.050901E-010	0.0108227	5
	48	66	15.83615	42369.98	-126196.4	1	133119.3	-71.44071	-1.622535E-010	0.0108241	5
	49	68	12.40079	52851.2	-153658.4	1	162493.5	-71.01922	8.528598E-010	0.0108239	5
	50	69	9.93114	65602.44	-184017	1	195361.1	-70.37875	2.725386E-010	0.0108341	5
	51	71	7.944915	81696.77	-219363	1	234082.2	-69.5733	4.988688E-010	0.0108237	5
	52	72	6.317385	102492	-261515.3	1	280882.3	-68.599	3.861918E-010	0.0108277	5
	53	74	5.008013	129411.8	-311313.8	1	337140.5	-67.42755	3.990275E-010	0.0108251	5
	54	77	3.945707	164104.8	-368963.4	1	403812.3	-66.02181	6.083981E-011	0.0108144	5
	55	80	3.158693	203812.4	-429724.6	1	475607.7	-64.62566	1.935333E-010	0.0108142	5
	56	83	2.504006	253255	-501082.4	1	561446	-63.18724	3.880263E-011	0.0108298	5
	57	86	1.998082	309750.8	-576781.7	1	654692.8	-61.76273	3.13989E-010	0.0107872	5
	58	89	1.584686	378947.2	-666834.3	1	766986.9	-60.39139	6.985849E-011	0.0107719	5
	59	92	1.266892	454165.1	-760079.3	1	885430.1	-59.1407	3.104551E-010	0.0108134	5
	60	97	0.999041	551453	-876620.4	1	1035646	-57.82735	-1.840585E-010	0.0108013	4
