EXPLAIN
TAG	EISPOT
TITLE	LABEL	Potentiostatic EIS	Test &Identifier
DATE	LABEL	9/26/2019	Date
TIME	LABEL	9:32:37	Time
NOTES	NOTES	2	&Notes...
	
	
PSTAT	PSTAT	REF600-11020	Potentiostat
VDC	POTEN	0.00000E+000	T	DC &Voltage (V)
FREQINIT	QUANT	1.00000E+006	Initial Fre&q. (Hz)
FREQFINAL	QUANT	1.00000E+000	Final Fre&q. (Hz)
PTSPERDEC	QUANT	1.00000E+001	Points/&decade
VAC	QUANT	2.50000E+001	AC &Voltage (mV rms)
AREA	QUANT	1.00000E-002	&Area (cm^2)
CONDIT	TWOPARAM	T	5.00000E+000	0.00000E+000	Conditionin&g	Time(s)	E(V)
DELAY	TWOPARAM	T	5.00000E+000	0.00000E+000	Init. De&lay	Time(s)	Stab.(mV/s)
SPEED	SELECTOR	1	&Optimize for:
ZGUESS	QUANT	1.00000E+004	E&stimated Z (ohms)
OCVCURVE	TABLE	19
	Pt	T	Vf	Vm	Ach	Over
	#	s	V vs. Ref.	V	V	bits
	0	0.258333	2.03576E-002	2.03576E-002	5.69532E-004	...........
	1	0.516667	2.03752E-002	2.12791E-002	5.71299E-004	...........
	2	0.775	2.04832E-002	2.21472E-002	5.73466E-004	...........
	3	1.03333	2.07882E-002	2.29705E-002	5.70032E-004	...........
	4	1.29167	2.13320E-002	2.37385E-002	5.68566E-004	...........
	5	1.55	2.20509E-002	2.44739E-002	5.71732E-004	...........
	6	1.80833	2.28417E-002	2.51737E-002	5.76099E-004	...........
	7	2.06667	2.36292E-002	2.58217E-002	5.68699E-004	...........
	8	2.325	2.43799E-002	2.64676E-002	5.73999E-004	...........
	9	2.58333	2.50877E-002	2.70654E-002	5.73866E-004	...........
	10	2.84167	2.57569E-002	2.76438E-002	5.72699E-004	...........
	11	3.1	2.63932E-002	2.81963E-002	5.72166E-004	...........
	12	3.35833	2.70005E-002	2.87316E-002	5.73999E-004	...........
	13	3.61667	2.75815E-002	2.92395E-002	5.74999E-004	...........
	14	3.875	2.81385E-002	2.97359E-002	5.71966E-004	...........
	15	4.13333	2.86735E-002	3.02119E-002	5.76599E-004	...........
	16	4.39167	2.91882E-002	3.06748E-002	5.71499E-004	...........
	17	4.65	2.96844E-002	3.11125E-002	5.72532E-004	...........
	18	4.90833	3.01629E-002	3.15458E-002	5.74865E-004	...........
EOC	QUANT	0.0301629	Open Circuit (V)
PSTATMODEL	IQUANT	4	Pstat Model
PSTATSECTION	LABEL	REF600-11020	Pstat Section
PSTATSERIALNO	LABEL	11020	Pstat Serial Number
CTRLMODE	IQUANT	1	Control Mode
IESTAB	IQUANT	0	I/E Stability
CASPEED	IQUANT	1	Control Amp Speed
CONVENTION	IQUANT	1	Current Convention
ICHRANGE	IQUANT	2	Ich Range
ICHRANGEMODE	TOGGLE	F	Ich Auto Range
ICHOFFSETENABLE	TOGGLE	T	Ich Offset Enable
ICHOFFSET	QUANT	0	Ich Offset (V)
ICHFILTER	IQUANT	3	Ich Filter
VCHRANGE	IQUANT	2	Vch Range
VCHRANGEMODE	TOGGLE	F	Vch Auto Range
VCHOFFSETENABLE	TOGGLE	T	Vch Offset Enable
VCHOFFSET	QUANT	0	Vch Offset (V)
VCHFILTER	IQUANT	3	Vch Filter
ACHRANGE	IQUANT	2	Ach Range
ACHOFFSETENABLE	TOGGLE	F	Ach Offset Enable
ACHOFFSET	QUANT	0	Ach Offset (V)
ACHFILTER	IQUANT	3	Ach Filter
IERANGELOWERLIMIT	IQUANT	1	I/E Range Lower Limit
IERANGEMODE	TOGGLE	F	I/E AutoRange
IERANGE	IQUANT	6	I/E Range
POSFEEDENABLE	TOGGLE	F	Positive Feedback IR Comp
POSFEEDRESISTANCE	QUANT	0	Positive Feedback Resistance (ohm)
ACHSELECT	IQUANT	0	Ach Select
CABLEID	IQUANT	14	Cable ID
DCCALDATE	LABEL	8/19/2019	DC Calibration Date
ACCALDATE	LABEL	8/19/2019	AC Calibration Date
THERMOSELECT	IQUANT	1	Thermo Select
FRAMEWORKVERSION	QUANT	6.33	Framework Version
INSTRUMENTVERSION	LABEL	3.50	Instrument Version
ZCURVE	TABLE
	Pt	Time	Freq	Zreal	Zimag	Zsig	Zmod	Zphz	Idc	Vdc	IERange
	#	s	Hz	ohm	ohm	V	ohm	°	A	V	#
	0	1	1000078	2124.118	-2128.584	1	3007.116	-45.06017	-5.770757E-006	0.0333448	8
	1	3	794390.6	2583.516	-2206.775	1	3397.707	-40.50313	1.663062E-006	0.0322387	8
	2	4	630984.4	3044.63	-2177.499	1	3743.163	-35.5721	-3.943805E-006	0.0326254	8
	3	6	501234.4	3477.972	-2109.497	1	4067.71	-31.2381	5.728834E-007	0.0320514	8
	4	7	398109.4	3883.829	-1959	1	4349.92	-26.76634	2.35583E-006	0.0313998	8
	5	9	316265.6	4211.175	-1803.704	1	4581.194	-23.18612	7.103037E-007	0.0318971	8
	6	10	251203.1	4510.847	-1592.169	1	4783.59	-19.44122	8.050784E-007	0.0316795	8
	7	12	199546.9	4709.359	-1393.298	1	4911.145	-16.48123	1.322084E-006	0.0314031	8
	8	13	158578.1	4861.166	-1215.781	1	5010.894	-14.04167	7.743351E-007	0.0318756	8
	9	15	125953.1	5022.504	-989.081	1	5118.967	-11.14069	9.849774E-008	0.0316955	7
	10	16	100078.1	5110.616	-853.8715	1	5181.457	-9.48525	-2.592463E-008	0.0317955	7
	11	18	79453.13	5185.294	-762.7884	1	5241.099	-8.368538	9.441206E-008	0.031739	7
	12	19	63140.62	5260.077	-686.6429	1	5304.704	-7.437256	-4.930127E-008	0.0318931	7
	13	20	50203.12	5278.59	-629.3502	1	5315.976	-6.799105	8.555462E-008	0.0316141	7
	14	22	39890.62	5317.861	-588.016	1	5350.271	-6.309779	1.169142E-008	0.031717	7
	15	23	31640.63	5372.593	-561.4993	1	5401.855	-5.966424	4.649303E-008	0.0317293	7
	16	24	25171.88	5442.475	-564.3562	1	5471.657	-5.920115	-1.013969E-008	0.0317436	7
	17	26	20015.62	5482.59	-573.5024	1	5512.504	-5.971666	4.734629E-008	0.0317308	7
	18	27	15890.62	5547.423	-618.0476	1	5581.746	-6.357201	7.370144E-008	0.0316722	7
	19	29	12609.37	5587.851	-646.5255	1	5625.128	-6.599889	-4.509132E-008	0.0318853	7
	20	30	10078.13	5634.903	-704.7824	1	5678.807	-7.129217	-2.466665E-008	0.031772	7
	21	31	8015.625	5684.78	-789.0836	1	5739.284	-7.902523	-5.524112E-008	0.0319735	7
	22	33	6328.125	5745.453	-892.7908	1	5814.405	-8.832601	-2.40737E-009	0.0318351	7
	23	34	5015.625	5806.393	-1027.625	1	5896.627	-10.03637	-5.505362E-008	0.0319643	7
	24	35	3984.375	5869.551	-1196.231	1	5990.209	-11.51929	7.331526E-008	0.0317783	8
	25	37	3170.956	5961.804	-1398.378	1	6123.607	-13.20045	9.508808E-008	0.0317178	7
	26	38	2527.573	6021.886	-1647.623	1	6243.218	-15.30196	-8.030879E-008	0.0319201	7
	27	40	1976.103	6124.836	-1991.326	1	6440.419	-18.01054	8.422784E-008	0.0315973	7
	28	41	1577.524	6223.695	-2367.33	1	6658.726	-20.8255	-3.922851E-008	0.0318011	7
	29	43	1265.625	6340.324	-2821.015	1	6939.584	-23.98583	-6.545466E-009	0.0319191	7
	30	44	998.264	6496.194	-3432.678	1	7347.368	-27.85259	4.938527E-008	0.0317357	7
	31	45	796.875	6665.531	-4133.331	1	7843.069	-31.80327	1.184315E-008	0.0317073	7
	32	47	627.7902	6867.734	-5051.999	1	8525.753	-36.3387	-2.189093E-008	0.031853	7
	33	48	505.5147	7112.706	-5988.168	1	9297.781	-40.09393	-3.261619E-008	0.0317932	7
	34	49	397.9953	7422.957	-7400.458	1	10481.75	-44.91304	-5.19793E-010	0.0317403	6
	35	51	315.5048	7753.479	-9059.035	1	11924.03	-49.44033	-8.383544E-011	0.0317413	6
	36	52	252.4038	8231.424	-10902.96	1	13661.29	-52.94823	3.956922E-010	0.0317393	6
	37	53	198.6229	8720.694	-13504.41	1	16075.44	-57.14699	-2.995931E-011	0.0317419	6
	38	55	158.3615	9416.254	-16114.81	1	18664.22	-59.70127	3.05288E-010	0.0317411	6
	39	56	125.558	10284.73	-19748.69	1	22266.26	-62.49039	1.515142E-010	0.0317438	6
	40	58	100.4464	11341.32	-24185.4	1	26712.53	-64.8766	-2.392277E-010	0.03174	6
	41	59	79.00281	12656.37	-29474.4	1	32076.85	-66.76122	-7.083464E-010	0.0317323	6
	42	60	63.3446	14122.78	-36271.89	1	38924.32	-68.72611	-2.296377E-010	0.0317299	6
	43	62	49.86702	16518.76	-43802.27	1	46813.55	-69.33749	4.118512E-010	0.0317268	6
	44	63	39.72458	19141.74	-53154.56	1	56496.14	-70.1953	2.571436E-010	0.0317351	6
	45	65	31.6723	22702.73	-64494.79	1	68373.91	-70.60748	-3.582274E-010	0.0317342	6
	46	66	24.93351	28070.07	-78799.85	1	83650.13	-70.3931	-3.399865E-010	0.031733	6
	47	67	19.86229	34797.62	-94949.77	1	101125.3	-69.8729	1.596486E-010	0.0317365	6
	48	69	15.83615	43512.89	-114973.6	1	122932.1	-69.27036	1.25827E-009	0.0317367	5
	49	70	12.40079	55567.97	-137646.1	1	148439.4	-68.01598	1.116608E-010	0.0317395	5
	50	72	9.93114	70128.52	-162936.5	1	177387.4	-66.71275	-9.290407E-010	0.031741	5
	51	73	7.944915	86198.16	-191865.3	1	210338.9	-65.80734	-7.389286E-010	0.0317375	5
	52	75	6.317385	109782.9	-223319.4	1	248845	-63.82146	-1.086888E-009	0.0317396	5
	53	77	5.008013	137907	-259838.8	1	294167.5	-62.04328	-8.87528E-010	0.0317303	5
	54	79	3.945707	173233.9	-300283.8	1	346670.4	-60.01933	-4.097818E-010	0.0317387	5
	55	82	3.158693	212933.6	-340989.6	1	402013.2	-58.01696	-9.305175E-010	0.0317179	5
	56	85	2.504006	258627.1	-385757.6	1	464431.8	-56.16055	-4.365723E-010	0.0317416	5
	57	88	1.998082	309148.6	-431245.1	1	530608.3	-54.36423	-3.100614E-010	0.0317204	5
	58	91	1.584686	368483.9	-481211.8	1	606090.1	-52.55722	-8.015639E-010	0.031685	5
	59	95	1.266892	427222.9	-530689.3	1	681285.9	-51.16475	-4.422694E-010	0.0317019	5
	60	99	0.999041	495266.2	-590924.8	1	771025.8	-50.03294	-9.485938E-010	0.0317424	5
