EXPLAIN
TAG	EISPOT
TITLE	LABEL	Potentiostatic EIS	Test &Identifier
DATE	LABEL	10/28/2019	Date
TIME	LABEL	9:05:39	Time
NOTES	NOTES	1	&Notes...
	
PSTAT	PSTAT	REF600-11020	Potentiostat
VDC	POTEN	0.00000E+000	T	DC &Voltage (V)
FREQINIT	QUANT	1.00000E+006	Initial Fre&q. (Hz)
FREQFINAL	QUANT	1.00000E+000	Final Fre&q. (Hz)
PTSPERDEC	QUANT	1.00000E+001	Points/&decade
VAC	QUANT	2.50000E+001	AC &Voltage (mV rms)
AREA	QUANT	1.00000E-002	&Area (cm^2)
CONDIT	TWOPARAM	T	5.00000E+000	0.00000E+000	Conditionin&g	Time(s)	E(V)
DELAY	TWOPARAM	T	5.00000E+000	0.00000E+000	Init. De&lay	Time(s)	Stab.(mV/s)
SPEED	SELECTOR	1	&Optimize for:
ZGUESS	QUANT	1.00000E+005	E&stimated Z (ohms)
OCVCURVE	TABLE	19
	Pt	T	Vf	Vm	Ach	Over
	#	s	V vs. Ref.	V	V	bits
	0	0.258333	7.31073E-003	7.31073E-003	5.72466E-004	...........
	1	0.516667	7.31324E-003	7.44199E-003	5.73599E-004	...........
	2	0.775	7.32946E-003	7.60973E-003	5.74266E-004	...........
	3	1.03333	7.37576E-003	7.64737E-003	5.76766E-004	...........
	4	1.29167	7.45608E-003	7.81191E-003	5.78799E-004	...........
	5	1.55	7.55926E-003	7.94830E-003	5.74466E-004	...........
	6	1.80833	7.67538E-003	8.07203E-003	5.73899E-004	...........
	7	2.06667	7.80069E-003	8.21048E-003	5.79765E-004	...........
	8	2.325	7.93126E-003	8.32370E-003	5.79432E-004	...........
	9	2.58333	8.06308E-003	8.48605E-003	5.73266E-004	...........
	10	2.84167	8.19410E-003	8.54633E-003	5.78932E-004	...........
	11	3.1	8.32104E-003	8.64768E-003	5.78432E-004	...........
	12	3.35833	8.43853E-003	8.75280E-003	5.74132E-004	...........
	13	3.61667	8.54642E-003	8.91234E-003	5.75299E-004	...........
	14	3.875	8.65246E-003	8.98505E-003	5.73099E-004	...........
	15	4.13333	8.76221E-003	9.08734E-003	5.75899E-004	...........
	16	4.39167	8.87284E-003	9.19972E-003	5.76232E-004	...........
	17	4.65	8.98071E-003	9.32124E-003	5.75499E-004	...........
	18	4.90833	9.08712E-003	9.40374E-003	5.75666E-004	...........
EOC	QUANT	0.0090871	Open Circuit (V)
PSTATMODEL	IQUANT	4	Pstat Model
PSTATSECTION	LABEL	REF600-11020	Pstat Section
PSTATSERIALNO	LABEL	11020	Pstat Serial Number
CTRLMODE	IQUANT	1	Control Mode
IESTAB	IQUANT	0	I/E Stability
CASPEED	IQUANT	1	Control Amp Speed
CONVENTION	IQUANT	1	Current Convention
ICHRANGE	IQUANT	2	Ich Range
ICHRANGEMODE	TOGGLE	F	Ich Auto Range
ICHOFFSETENABLE	TOGGLE	T	Ich Offset Enable
ICHOFFSET	QUANT	0	Ich Offset (V)
ICHFILTER	IQUANT	3	Ich Filter
VCHRANGE	IQUANT	2	Vch Range
VCHRANGEMODE	TOGGLE	F	Vch Auto Range
VCHOFFSETENABLE	TOGGLE	T	Vch Offset Enable
VCHOFFSET	QUANT	0	Vch Offset (V)
VCHFILTER	IQUANT	3	Vch Filter
ACHRANGE	IQUANT	2	Ach Range
ACHOFFSETENABLE	TOGGLE	F	Ach Offset Enable
ACHOFFSET	QUANT	0	Ach Offset (V)
ACHFILTER	IQUANT	3	Ach Filter
IERANGELOWERLIMIT	IQUANT	1	I/E Range Lower Limit
IERANGEMODE	TOGGLE	F	I/E AutoRange
IERANGE	IQUANT	5	I/E Range
POSFEEDENABLE	TOGGLE	F	Positive Feedback IR Comp
POSFEEDRESISTANCE	QUANT	0	Positive Feedback Resistance (ohm)
ACHSELECT	IQUANT	0	Ach Select
CABLEID	IQUANT	14	Cable ID
DCCALDATE	LABEL	8/19/2019	DC Calibration Date
ACCALDATE	LABEL	8/19/2019	AC Calibration Date
THERMOSELECT	IQUANT	1	Thermo Select
FRAMEWORKVERSION	QUANT	6.33	Framework Version
INSTRUMENTVERSION	LABEL	3.50	Instrument Version
ZCURVE	TABLE
	Pt	Time	Freq	Zreal	Zimag	Zsig	Zmod	Zphz	Idc	Vdc	IERange
	#	s	Hz	ohm	ohm	V	ohm	°	A	V	#
	0	1	1000078	2282.073	-1168.981	1	2564.055	-27.12357	-8.078937E-007	0.0109926	8
	1	3	794390.6	2469.865	-1053.873	1	2685.309	-23.10757	1.161295E-006	0.0108713	8
	2	4	630984.4	2639.7	-937.9329	1	2801.381	-19.56104	-4.165807E-006	0.0115046	8
	3	5	501234.4	2771.39	-825.2922	1	2891.662	-16.583	4.068556E-007	0.0105488	8
	4	7	398109.4	2855.756	-718.8301	1	2944.836	-14.12856	2.126915E-006	0.0100624	8
	5	8	316265.6	2942.015	-625.2417	1	3007.72	-11.99808	8.306579E-007	0.010328	8
	6	9	251203.1	3008.871	-552.4763	1	3059.173	-10.40451	-1.154534E-007	0.0104638	8
	7	11	199546.9	3072.432	-481.6445	1	3109.955	-8.909366	-3.146399E-006	0.0113242	8
	8	12	158578.1	3078.692	-450.1651	1	3111.429	-8.318814	5.856167E-007	0.0105499	8
	9	14	125953.1	3155.807	-340.0161	1	3174.072	-6.149495	2.128733E-007	0.0102111	7
	10	15	100078.1	3191.837	-309.6022	1	3206.817	-5.540251	-7.277945E-008	0.0106014	7
	11	16	79453.13	3206.07	-312.3998	1	3221.254	-5.565339	-5.797895E-008	0.0105918	7
	12	18	63140.62	3234.971	-314.4396	1	3250.217	-5.551718	4.737754E-008	0.0103565	7
	13	19	50203.12	3265.866	-321.0205	1	3281.605	-5.613893	-6.377826E-008	0.0106189	7
	14	21	39890.62	3297.426	-336.0346	1	3314.504	-5.81882	7.319354E-008	0.0103797	7
	15	22	31640.63	3332.438	-355.9529	1	3351.394	-6.096907	-6.822882E-008	0.0105822	7
	16	23	25171.88	3368.328	-382.0695	1	3389.928	-6.471402	-6.533624E-008	0.0106096	7
	17	25	20015.62	3409.785	-417.6101	1	3435.263	-6.982472	1.295559E-007	0.0103111	7
	18	26	15890.62	3454.13	-460.1782	1	3484.649	-7.588573	1.229149E-008	0.0104124	7
	19	27	12609.37	3505.952	-511.3903	1	3543.052	-8.298836	-1.157424E-008	0.0105195	7
	20	29	10078.13	3550.454	-569.1968	1	3595.791	-9.107965	1.314359E-007	0.0103095	7
	21	30	8015.625	3612.632	-637.9227	1	3668.522	-10.01412	8.701577E-008	0.0104387	7
	22	31	6328.125	3676.864	-721.7336	1	3747.029	-11.10543	-4.374822E-009	0.0105338	7
	23	33	5015.625	3746.299	-818.737	1	3834.721	-12.32791	1.344847E-007	0.0103037	7
	24	34	3984.375	3815.841	-932.252	1	3928.07	-13.72906	7.756446E-008	0.0103658	7
	25	36	3170.956	3892.048	-1071.984	1	4036.978	-15.39911	8.759239E-008	0.0103141	7
	26	37	2527.573	3968.896	-1239.573	1	4157.966	-17.34472	-5.78571E-008	0.0106786	7
	27	38	1976.103	4059.238	-1458.88	1	4313.438	-19.7683	8.785648E-008	0.010313	7
	28	40	1577.524	4143.425	-1702.741	1	4479.654	-22.34022	8.050079E-008	0.0103607	7
	29	41	1265.625	4238.11	-2013.105	1	4691.926	-25.40775	5.715609E-009	0.0104459	7
	30	42	998.264	4343.24	-2415.75	1	4969.868	-29.08322	-2.575257E-008	0.0105442	7
	31	44	796.875	4452.15	-2887.991	1	5306.801	-32.97041	-4.081049E-009	0.0105364	7
	32	45	627.7902	4585.424	-3512.218	1	5775.966	-37.45041	1.444215E-008	0.0105922	7
	33	46	505.5147	4725.197	-4209.979	1	6328.619	-41.69988	1.240091E-008	0.0104015	7
	34	48	397.9953	4902.592	-5167.755	1	7123.279	-46.50831	5.167402E-009	0.0105093	7
	35	49	315.5048	5115.778	-6325.953	1	8135.654	-51.03764	4.354904E-009	0.0105108	7
	36	51	252.4038	5368.528	-7698.809	1	9385.774	-55.11119	5.008812E-009	0.0105072	7
	37	52	198.6229	5712.753	-9523.87	1	11105.84	-59.04318	1.098655E-009	0.0104537	6
	38	53	158.3615	6126.284	-11651.29	1	13163.74	-62.26448	-1.452088E-012	0.0104461	6
	39	55	125.558	6677.451	-14335.15	1	15814.07	-65.02344	8.061283E-010	0.010445	6
	40	56	100.4464	7373.562	-17483.12	1	18974.43	-67.13226	-7.024251E-010	0.0104429	6
	41	57	79.00281	8326.981	-21693.55	1	23236.8	-69.00091	3.689035E-010	0.0104379	6
	42	59	63.3446	9250.048	-26233.43	1	27816.47	-70.57708	6.676646E-010	0.0104414	6
	43	60	49.86702	11312.22	-32266.55	1	34192.06	-70.68002	5.360825E-010	0.0104444	6
	44	62	39.72458	13342.63	-39461.43	1	41656.09	-71.31866	1.653314E-010	0.0104452	6
	45	63	31.6723	16013.26	-47927.39	1	50531.76	-71.52475	3.860639E-010	0.0104427	6
	46	64	24.93351	19912.87	-58459.43	1	61757.82	-71.18976	1.229072E-010	0.0104429	6
	47	66	19.86229	24712.67	-70370.73	1	74583.89	-70.64983	6.057191E-010	0.0104462	6
	48	67	15.83615	30912.17	-83765.16	1	89286.98	-69.74424	9.615856E-010	0.0104472	6
	49	69	12.40079	39064.97	-102526.4	1	109716.6	-69.14198	-6.538814E-010	0.0104427	5
	50	70	9.93114	48976.81	-120194.4	1	129789.9	-67.83009	6.168265E-010	0.0104456	5
	51	72	7.944915	61021.08	-141214	1	153834.2	-66.62997	-6.523306E-010	0.0104445	5
	52	73	6.317385	76000.11	-165954.9	1	182529.6	-65.39429	3.05123E-010	0.010432	5
	53	75	5.008013	94359.7	-194228	1	215935.8	-64.08862	3.253963E-011	0.0104494	5
	54	78	3.945707	116385.7	-226736.5	1	254862.9	-62.82819	-3.761677E-010	0.0104433	5
	55	80	3.158693	140511.3	-260844.3	1	296282.2	-61.6896	1.887621E-010	0.0104583	5
	56	84	2.504006	169345.3	-301234.7	1	345572.3	-60.65658	-4.56881E-010	0.0104527	5
	57	87	1.998082	200845.8	-344976.9	1	399184.3	-59.792	-2.725797E-011	0.0104028	5
	58	90	1.584686	236563.5	-396372.9	1	461599.1	-59.17038	-1.684274E-010	0.0104585	5
	59	93	1.266892	276868.7	-454793.3	1	532440.8	-58.66782	-1.026967E-010	0.0104075	5
	60	98	0.999041	324516	-525340.6	1	617489.5	-58.29534	5.699724E-011	0.010491	5
