EXPLAIN
TAG	EISPOT
TITLE	LABEL	Potentiostatic EIS	Test &Identifier
DATE	LABEL	11/15/2019	Date
TIME	LABEL	12:10:25	Time
NOTES	NOTES	4	&Notes...
	
	
	
	
PSTAT	PSTAT	REF600-11020	Potentiostat
VDC	POTEN	0.00000E+000	T	DC &Voltage (V)
FREQINIT	QUANT	1.00000E+006	Initial Fre&q. (Hz)
FREQFINAL	QUANT	1.00000E+000	Final Fre&q. (Hz)
PTSPERDEC	QUANT	1.00000E+001	Points/&decade
VAC	QUANT	2.50000E+001	AC &Voltage (mV rms)
AREA	QUANT	1.00000E-002	&Area (cm^2)
CONDIT	TWOPARAM	T	5.00000E+000	0.00000E+000	Conditionin&g	Time(s)	E(V)
DELAY	TWOPARAM	T	5.00000E+000	0.00000E+000	Init. De&lay	Time(s)	Stab.(mV/s)
SPEED	SELECTOR	0	&Optimize for:
ZGUESS	QUANT	1.00000E+005	E&stimated Z (ohms)
OCVCURVE	TABLE	19
	Pt	T	Vf	Vm	Ach	Over
	#	s	V vs. Ref.	V	V	bits
	0	0.258333	3.81337E-003	3.81337E-003	5.12267E-004	...........
	1	0.516667	3.80938E-003	3.60426E-003	5.14466E-004	...........
	2	0.775	3.78504E-003	3.41611E-003	5.17866E-004	...........
	3	1.03333	3.71720E-003	3.25493E-003	5.18233E-004	...........
	4	1.29167	3.59881E-003	3.10758E-003	5.17300E-004	...........
	5	1.55	3.44723E-003	2.98154E-003	5.12533E-004	...........
	6	1.80833	3.28772E-003	2.86719E-003	5.05467E-004	...........
	7	2.06667	3.13758E-003	2.76452E-003	5.12800E-004	...........
	8	2.325	3.00330E-003	2.67087E-003	5.13867E-004	...........
	9	2.58333	2.88473E-003	2.59036E-003	5.15300E-004	...........
	10	2.84167	2.77939E-003	2.50371E-003	5.17866E-004	...........
	11	3.1	2.68425E-003	2.42307E-003	5.16300E-004	...........
	12	3.35833	2.59600E-003	2.34320E-003	5.12600E-004	...........
	13	3.61667	2.51195E-003	2.26986E-003	5.17600E-004	...........
	14	3.875	2.43096E-003	2.20078E-003	5.15033E-004	...........
	15	4.13333	2.35311E-003	2.13342E-003	5.10600E-004	...........
	16	4.39167	2.27891E-003	2.07295E-003	5.17233E-004	...........
	17	4.65	2.20858E-003	2.01181E-003	5.15233E-004	...........
	18	4.90833	2.14199E-003	1.95258E-003	5.21333E-004	...........
EOC	QUANT	0.002142	Open Circuit (V)
PSTATMODEL	IQUANT	4	Pstat Model
PSTATSECTION	LABEL	REF600-11020	Pstat Section
PSTATSERIALNO	LABEL	11020	Pstat Serial Number
CTRLMODE	IQUANT	1	Control Mode
IESTAB	IQUANT	0	I/E Stability
CASPEED	IQUANT	1	Control Amp Speed
CONVENTION	IQUANT	1	Current Convention
ICHRANGE	IQUANT	2	Ich Range
ICHRANGEMODE	TOGGLE	F	Ich Auto Range
ICHOFFSETENABLE	TOGGLE	T	Ich Offset Enable
ICHOFFSET	QUANT	0	Ich Offset (V)
ICHFILTER	IQUANT	3	Ich Filter
VCHRANGE	IQUANT	2	Vch Range
VCHRANGEMODE	TOGGLE	F	Vch Auto Range
VCHOFFSETENABLE	TOGGLE	T	Vch Offset Enable
VCHOFFSET	QUANT	0	Vch Offset (V)
VCHFILTER	IQUANT	3	Vch Filter
ACHRANGE	IQUANT	2	Ach Range
ACHOFFSETENABLE	TOGGLE	F	Ach Offset Enable
ACHOFFSET	QUANT	0	Ach Offset (V)
ACHFILTER	IQUANT	3	Ach Filter
IERANGELOWERLIMIT	IQUANT	1	I/E Range Lower Limit
IERANGEMODE	TOGGLE	F	I/E AutoRange
IERANGE	IQUANT	4	I/E Range
POSFEEDENABLE	TOGGLE	F	Positive Feedback IR Comp
POSFEEDRESISTANCE	QUANT	0	Positive Feedback Resistance (ohm)
ACHSELECT	IQUANT	0	Ach Select
CABLEID	IQUANT	14	Cable ID
DCCALDATE	LABEL	8/19/2019	DC Calibration Date
ACCALDATE	LABEL	8/19/2019	AC Calibration Date
THERMOSELECT	IQUANT	1	Thermo Select
FRAMEWORKVERSION	QUANT	6.33	Framework Version
INSTRUMENTVERSION	LABEL	3.50	Instrument Version
ZCURVE	TABLE
	Pt	Time	Freq	Zreal	Zimag	Zsig	Zmod	Zphz	Idc	Vdc	IERange
	#	s	Hz	ohm	ohm	V	ohm	°	A	V	#
	0	1	1000078	2386.072	-1799.97	1	2988.851	-37.02964	-5.626786E-006	0.0041382	8
	1	2	794390.6	2752.989	-1738.131	1	3255.771	-32.26673	1.031891E-005	0.0027448	8
	2	2	630984.4	3082.95	-1616.546	1	3481.063	-27.67028	-4.00448E-006	0.004569	8
	3	2	501234.4	3374.598	-1465.65	1	3679.136	-23.47619	-2.071149E-007	0.0036359	8
	4	3	398109.4	3600.963	-1308.015	1	3831.167	-19.96306	-1.660187E-006	0.0036394	8
	5	3	316265.6	3757.832	-1133.171	1	3924.969	-16.78063	-2.922001E-006	0.0044529	8
	6	3	251203.1	3898.444	-976.124	1	4018.791	-14.05717	-1.319701E-006	0.0042675	8
	7	4	199546.9	3998.306	-845.2119	1	4086.666	-11.93617	4.088295E-006	0.0038191	8
	8	4	158578.1	4082.266	-735.68	1	4148.026	-10.21583	-1.632696E-006	0.0036057	8
	9	4	125953.1	4163.398	-579.9548	1	4203.598	-7.930182	-7.848917E-007	0.0073882	7
	10	5	100078.1	4209.541	-515.8497	1	4241.03	-6.986363	-3.078084E-007	0.0028529	7
	11	5	79453.13	4251.228	-472.2667	1	4277.379	-6.338968	1.193385E-006	0.0025951	7
	12	5	63140.62	4288.236	-438.755	1	4310.624	-5.841943	1.182945E-006	0.0022276	7
	13	6	50203.12	4317.808	-415.7833	1	4337.781	-5.500338	8.880234E-007	0.003591	7
	14	6	39890.62	4352.25	-405.3072	1	4371.081	-5.320376	1.193734E-006	0.0025858	7
	15	6	31640.63	4380.241	-405.9651	1	4399.014	-5.295103	1.489882E-007	0.0022744	7
	16	7	25171.88	4406.057	-417.1304	1	4425.758	-5.40819	-6.919669E-007	0.0055303	7
	17	7	20015.62	4436.253	-438.2434	1	4457.847	-5.641763	-3.356887E-007	0.0052741	7
	18	7	15890.62	4475.475	-476.6688	1	4500.788	-6.079475	4.01507E-007	0.0043913	7
	19	7	12609.37	4515.097	-528.3973	1	4545.911	-6.674907	1.09191E-006	0.0030529	7
	20	8	10078.13	4546.9	-588.1227	1	4584.778	-7.370053	-3.35409E-007	0.005268	7
	21	8	8015.625	4590.498	-670.3137	1	4639.18	-8.307729	8.672377E-007	0.0018552	7
	22	8	6328.125	4633.495	-776.585	1	4698.123	-9.51448	4.022118E-007	0.0043862	7
	23	9	5015.625	4676.197	-908.1092	1	4763.558	-10.98995	-1.121804E-006	0.0043086	7
	24	9	3984.375	4728	-1068.15	1	4847.157	-12.73055	-1.123955E-006	0.0043153	7
	25	9	3170.956	4788.231	-1269.386	1	4953.635	-14.84787	-9.862367E-007	0.0056018	7
	26	10	2527.573	4863.667	-1516.122	1	5094.496	-17.31351	1.079974E-006	0.0019545	7
	27	10	1976.103	4942.529	-1841.369	1	5274.395	-20.43318	-3.078662E-007	0.0028213	7
	28	10	1577.524	5024.741	-2201.334	1	5485.791	-23.65818	1.530717E-007	0.0022675	7
	29	11	1265.625	5148.624	-2657.723	1	5794.119	-27.30282	1.091029E-006	0.0030483	7
	30	11	998.264	5282.549	-3239.144	1	6196.562	-31.51572	8.693833E-007	0.0018476	7
	31	11	796.875	5437.895	-3907.143	1	6696.004	-35.69735	-3.354278E-007	0.0052629	7
	32	12	627.7902	5635.157	-4775.974	1	7386.807	-40.28233	6.015497E-008	0.0048465	7
	33	12	505.5147	5844.166	-5759.926	1	8205.548	-44.58407	1.093103E-006	0.0030447	7
	34	12	397.9953	6133.166	-7060.036	1	9351.996	-49.01863	5.855849E-009	0.0038072	7
	35	13	315.5048	6475.95	-8625.203	1	10785.73	-53.10015	-1.852263E-011	0.0037522	6
	36	13	252.4038	6880.418	-10470.55	1	12528.87	-56.69025	2.86449E-010	0.0037481	6
	37	13	198.6229	7423.844	-12902.87	1	14886.15	-60.08544	4.372934E-010	0.0037495	6
	38	14	158.3615	8078.686	-15735.37	1	17688.05	-62.82362	1.954584E-010	0.0037455	6
	39	14	125.558	8953.115	-19280.64	1	21257.97	-65.09184	-1.049398E-010	0.0037449	6
	40	14	100.4464	10035.81	-23446.97	1	25504.47	-66.82803	1.237526E-009	0.0037511	6
	41	15	79.00281	11564.48	-28815.56	1	31049.54	-68.13305	1.504436E-009	0.0037336	6
	42	15	63.3446	13893.54	-34963.04	1	37622.39	-68.32822	2.741762E-010	0.0037343	6
	43	15	49.86702	16552.75	-42862.82	1	45947.95	-68.88445	-4.12475E-010	0.0037286	6
	44	16	39.72458	19782.55	-51390.88	1	55066.98	-68.94614	4.022752E-010	0.0037445	6
	45	16	31.6723	24058.65	-61571.96	1	66105.41	-68.65741	6.896748E-010	0.0037389	6
	46	16	24.93351	30212.68	-74322.16	1	80228.35	-67.87778	-3.779285E-010	0.003743	6
	47	17	19.86229	37269.68	-88330.65	1	95871.4	-67.12347	-1.801891E-009	0.0037454	6
	48	17	15.83615	47352.43	-104026.5	1	114296.9	-65.52518	2.227331E-009	0.0037347	5
	49	17	12.40079	57113.57	-122234.3	1	134919.2	-64.95583	1.434525E-009	0.0037473	5
	50	18	9.93114	70829.27	-142796.7	1	159397.9	-63.61792	4.471425E-010	0.0037458	5
	51	18	7.944915	85673.26	-165069.4	1	185978	-62.57007	-3.729973E-010	0.0037433	5
	52	19	6.317385	103181.7	-191110.1	1	217185.5	-61.63507	-3.916948E-010	0.0037561	5
	53	20	5.008013	123489.1	-220758	1	252950	-60.77793	1.111014E-010	0.0037459	5
	54	21	3.945707	147938.4	-255094.6	1	294888.1	-59.88903	1.461547E-010	0.003725	5
	55	22	3.158693	172664.8	-293098.6	1	340176.3	-59.4976	2.314654E-010	0.0037441	5
	56	24	2.504006	202001.5	-338217.8	1	393949.2	-59.15212	1.295432E-010	0.003734	5
	57	25	1.998082	233855.8	-389727	1	454506	-59.03412	-1.720348E-011	0.0036909	5
	58	27	1.584686	270143	-450307.2	1	525122.6	-59.0401	1.14827E-010	0.0037377	5
	59	29	1.266892	311752.3	-520022.3	1	606310.7	-59.0574	1.601879E-010	0.003764	5
	60	31	0.999041	361656.5	-608381.7	1	707759.6	-59.27036	1.794718E-010	0.0037719	5
