EXPLAIN
TAG	EISPOT
TITLE	LABEL	Potentiostatic EIS	Test &Identifier
DATE	LABEL	9/22/2019	Date
TIME	LABEL	8:55:07	Time
NOTES	NOTES	1	&Notes...
	
PSTAT	PSTAT	REF600-11020	Potentiostat
VDC	POTEN	0.00000E+000	T	DC &Voltage (V)
FREQINIT	QUANT	1.00000E+006	Initial Fre&q. (Hz)
FREQFINAL	QUANT	1.00000E+000	Final Fre&q. (Hz)
PTSPERDEC	QUANT	1.00000E+001	Points/&decade
VAC	QUANT	2.50000E+001	AC &Voltage (mV rms)
AREA	QUANT	1.00000E-002	&Area (cm^2)
CONDIT	TWOPARAM	T	5.00000E+000	0.00000E+000	Conditionin&g	Time(s)	E(V)
DELAY	TWOPARAM	T	5.00000E+000	0.00000E+000	Init. De&lay	Time(s)	Stab.(mV/s)
SPEED	SELECTOR	1	&Optimize for:
ZGUESS	QUANT	1.00000E+004	E&stimated Z (ohms)
OCVCURVE	TABLE	19
	Pt	T	Vf	Vm	Ach	Over
	#	s	V vs. Ref.	V	V	bits
	0	0.258333	1.19408E-003	1.19408E-003	5.69166E-004	...........
	1	0.516667	1.19292E-003	1.13361E-003	5.70999E-004	...........
	2	0.775	1.18604E-003	1.08719E-003	5.62066E-004	...........
	3	1.03333	1.16738E-003	1.04932E-003	5.61299E-004	...........
	4	1.29167	1.13600E-003	1.01856E-003	5.59466E-004	...........
	5	1.55	1.09774E-003	9.95539E-004	5.62099E-004	...........
	6	1.80833	1.06001E-003	9.74461E-004	5.59999E-004	...........
	7	2.06667	1.02732E-003	9.63975E-004	5.62466E-004	...........
	8	2.325	1.00120E-003	9.56054E-004	5.59166E-004	...........
	9	2.58333	9.81686E-004	9.55227E-004	5.50866E-004	...........
	10	2.84167	9.68154E-004	9.45401E-004	5.56432E-004	...........
	11	3.1	9.59152E-004	9.42490E-004	5.52632E-004	...........
	12	3.35833	9.52711E-004	9.37228E-004	5.60366E-004	...........
	13	3.61667	9.47420E-004	9.36142E-004	5.62399E-004	...........
	14	3.875	9.42952E-004	9.37626E-004	5.55833E-004	...........
	15	4.13333	9.39809E-004	9.44852E-004	5.56799E-004	...........
	16	4.39167	9.38755E-004	9.46571E-004	5.58266E-004	...........
	17	4.65	9.39954E-004	9.47877E-004	5.58299E-004	...........
	18	4.90833	9.42588E-004	9.52986E-004	5.54066E-004	...........
EOC	QUANT	0.0009426	Open Circuit (V)
PSTATMODEL	IQUANT	4	Pstat Model
PSTATSECTION	LABEL	REF600-11020	Pstat Section
PSTATSERIALNO	LABEL	11020	Pstat Serial Number
CTRLMODE	IQUANT	1	Control Mode
IESTAB	IQUANT	0	I/E Stability
CASPEED	IQUANT	1	Control Amp Speed
CONVENTION	IQUANT	1	Current Convention
ICHRANGE	IQUANT	2	Ich Range
ICHRANGEMODE	TOGGLE	F	Ich Auto Range
ICHOFFSETENABLE	TOGGLE	T	Ich Offset Enable
ICHOFFSET	QUANT	0	Ich Offset (V)
ICHFILTER	IQUANT	3	Ich Filter
VCHRANGE	IQUANT	2	Vch Range
VCHRANGEMODE	TOGGLE	F	Vch Auto Range
VCHOFFSETENABLE	TOGGLE	T	Vch Offset Enable
VCHOFFSET	QUANT	0	Vch Offset (V)
VCHFILTER	IQUANT	3	Vch Filter
ACHRANGE	IQUANT	2	Ach Range
ACHOFFSETENABLE	TOGGLE	F	Ach Offset Enable
ACHOFFSET	QUANT	0	Ach Offset (V)
ACHFILTER	IQUANT	3	Ach Filter
IERANGELOWERLIMIT	IQUANT	1	I/E Range Lower Limit
IERANGEMODE	TOGGLE	F	I/E AutoRange
IERANGE	IQUANT	5	I/E Range
POSFEEDENABLE	TOGGLE	F	Positive Feedback IR Comp
POSFEEDRESISTANCE	QUANT	0	Positive Feedback Resistance (ohm)
ACHSELECT	IQUANT	0	Ach Select
CABLEID	IQUANT	14	Cable ID
DCCALDATE	LABEL	8/19/2019	DC Calibration Date
ACCALDATE	LABEL	8/19/2019	AC Calibration Date
THERMOSELECT	IQUANT	1	Thermo Select
FRAMEWORKVERSION	QUANT	6.33	Framework Version
INSTRUMENTVERSION	LABEL	3.50	Instrument Version
ZCURVE	TABLE
	Pt	Time	Freq	Zreal	Zimag	Zsig	Zmod	Zphz	Idc	Vdc	IERange
	#	s	Hz	ohm	ohm	V	ohm	°	A	V	#
	0	1	1000078	1322.482	-1875.778	1	2295.104	-54.81496	3.195532E-006	0.0036063	8
	1	3	794390.6	1459.985	-2220.558	1	2657.524	-56.67566	-5.172402E-006	0.0039256	8
	2	4	630984.4	1653.28	-2635.828	1	3111.418	-57.90267	2.107075E-006	0.0027026	8
	3	5	501234.4	1900.012	-3129.839	1	3661.412	-58.73957	3.518935E-006	0.0020572	8
	4	7	398109.4	2173.009	-3694.819	1	4286.45	-59.53923	-3.091294E-006	0.0031053	8
	5	8	316265.6	2578.017	-4396.435	1	5096.549	-59.61315	1.295456E-006	0.0024303	8
	6	10	251203.1	3120.626	-5159.519	1	6029.837	-58.83324	-3.970954E-006	0.0035795	8
	7	11	199546.9	3796.724	-6075.499	1	7164.272	-57.99776	-4.226244E-007	0.0026208	8
	8	13	158578.1	4653.531	-7067.4	1	8461.885	-56.63708	-5.265072E-007	0.0028833	8
	9	15	125953.1	5947.336	-8014.063	1	9979.78	-53.42043	1.516239E-007	0.0023385	7
	10	16	100078.1	7277.343	-9001.654	1	11575.38	-51.04636	1.203676E-008	0.0026947	7
	11	18	79453.13	8959.51	-9915.56	1	13363.8	-47.89965	-1.382145E-008	0.0026268	7
	12	19	63140.62	10901.5	-10649.02	1	15239.57	-44.32878	1.350537E-007	0.0023859	7
	13	20	50203.12	13016.68	-11081.43	1	17094.8	-40.40858	-4.734163E-008	0.0026844	7
	14	22	39890.62	15210.46	-11213.75	1	18897.26	-36.39911	-7.759152E-008	0.0027107	7
	15	23	31640.63	17377.16	-11048.77	1	20592.26	-32.44907	7.311777E-008	0.0024561	7
	16	24	25171.88	19326.72	-10583.7	1	22034.9	-28.70601	-6.183624E-008	0.0026386	7
	17	26	20015.62	21095.22	-10014.7	1	23351.71	-25.39545	-4.72741E-008	0.0026772	7
	18	27	15890.62	22617.43	-9298.251	1	24454.15	-22.34805	5.145861E-009	0.002502	7
	19	29	12609.37	24132.51	-8405.495	1	25554.46	-19.20353	-1.045346E-008	0.0026202	6
	20	30	10078.13	25198.13	-7829	1	26386.35	-17.25989	4.540948E-009	0.0025799	6
	21	31	8015.625	26176.75	-7332.668	1	27184.38	-15.6487	-2.156928E-009	0.0024924	6
	22	33	6328.125	27050.35	-6898.493	1	27916.13	-14.30685	-1.015919E-008	0.0026202	6
	23	34	5015.625	27844.87	-6596.16	1	28615.48	-13.32711	4.361714E-009	0.0025845	6
	24	35	3984.375	28562.29	-6384.667	1	29267.19	-12.60046	-4.297357E-009	0.0024394	6
	25	37	3170.956	29267.99	-6302.961	1	29938.98	-12.15323	1.7231E-009	0.0024055	6
	26	38	2527.573	29945.55	-6317.7	1	30604.73	-11.91316	-1.21618E-008	0.0026097	6
	27	39	1976.103	30671.71	-6465.598	1	31345.77	-11.90368	-1.044773E-010	0.0026109	6
	28	41	1577.524	31316.73	-6709.476	1	32027.4	-12.09257	-3.960008E-010	0.0026125	6
	29	42	1265.625	31927.81	-7199.587	1	32729.48	-12.70742	-4.854302E-009	0.0024421	6
	30	44	998.264	32697.4	-7581.43	1	33564.83	-13.05429	1.629165E-010	0.0023981	6
	31	45	796.875	33407.35	-8247.581	1	34410.37	-13.86783	-5.955381E-009	0.0026877	6
	32	46	627.7902	34188.21	-9187.49	1	35401.18	-15.04188	-7.032446E-009	0.0026613	6
	33	48	505.5147	34986.99	-10253.22	1	36458.44	-16.33365	9.179954E-010	0.0023986	6
	34	49	397.9953	35943.14	-11688.16	1	37795.8	-18.01374	-1.162561E-010	0.0025311	6
	35	50	315.5048	37027.41	-13412.91	1	39381.91	-19.91255	1.930121E-011	0.0025313	6
	36	52	252.4038	38229.8	-15412.8	1	41219.8	-21.95741	-6.18416E-011	0.0025314	6
	37	53	198.6229	39712.54	-17993.42	1	43598.73	-24.37488	-4.622868E-010	0.0025288	6
	38	54	158.3615	41383.33	-20891.29	1	46357.59	-26.78574	-7.533659E-010	0.0025267	6
	39	56	125.558	43422.89	-24382.09	1	49799.94	-29.31435	-5.074509E-010	0.0025243	6
	40	57	100.4464	45900.55	-28320.83	1	53934.5	-31.67476	-4.182776E-010	0.0025246	6
	41	58	79.00281	48958.38	-33387.62	1	59259.23	-34.29239	-2.812083E-010	0.0025251	6
	42	60	63.3446	51408.55	-38289.79	1	64101.07	-36.67924	-5.427925E-010	0.0025245	6
	43	61	49.86702	56827.98	-44759.89	1	72338.56	-38.22532	-7.077661E-010	0.0025234	6
	44	62	39.72458	61727.22	-52325.26	1	80920.84	-40.28746	-6.115046E-010	0.0025281	6
	45	64	31.6723	67701.55	-60282.03	1	90650	-41.68214	-1.649416E-010	0.0025208	6
	46	65	24.93351	75417.14	-69884.78	1	102818.4	-42.81952	-4.07055E-010	0.0025312	5
	47	67	19.86229	83902.09	-80124.66	1	116015.2	-43.68074	4.683582E-010	0.002537	5
	48	68	15.83615	93786.23	-90702.64	1	130471.6	-44.04243	-6.165289E-010	0.0025294	5
	49	69	12.40079	107332.4	-104621.9	1	149886.5	-44.26735	-1.175834E-009	0.0025384	5
	50	71	9.93114	120740.3	-116535.6	1	167805.7	-43.98478	-1.277766E-009	0.0025367	5
	51	72	7.944915	136022.7	-129752	1	187983.4	-43.6484	2.519166E-010	0.0025332	5
	52	74	6.317385	153551.2	-144722	1	211003.4	-43.30448	-1.257471E-010	0.0025249	5
	53	76	5.008013	173624.9	-160886.4	1	236706.7	-42.81919	-7.407487E-010	0.0025351	5
	54	79	3.945707	196231.9	-178909.4	1	265547.6	-42.35619	-1.06635E-009	0.0025302	5
	55	81	3.158693	219536.9	-196738.4	1	294792.3	-41.86516	-1.020957E-009	0.0025226	5
	56	85	2.504006	246042.1	-217470.6	1	328375.1	-41.47268	-5.718854E-010	0.0025379	5
	57	87	1.998082	274940.1	-239227.3	1	364447.1	-41.02676	-2.94435E-010	0.002551	5
	58	90	1.584686	306330.9	-262662.5	1	403522.3	-40.61133	-7.497116E-010	0.0024919	5
	59	94	1.266892	340768.3	-288999.5	1	446815.1	-40.30068	-6.152844E-010	0.0025535	5
	60	98	0.999041	380539.6	-318740.4	1	496392.8	-39.94958	-1.520225E-009	0.0024929	5
