EXPLAIN
TAG	EISPOT
TITLE	LABEL	Potentiostatic IDE	Test &Identifier
DATE	LABEL	9/12/2019	Date
TIME	LABEL	9:10:44	Time
NOTES	NOTES	1	&Notes...
	
PSTAT	PSTAT	REF600-11020	Potentiostat
VDC	POTEN	0.00000E+000	T	DC &Voltage (V)
FREQINIT	QUANT	1.00000E+006	Initial Fre&q. (Hz)
FREQFINAL	QUANT	1.00000E+000	Final Fre&q. (Hz)
PTSPERDEC	QUANT	1.00000E+001	Points/&decade
VAC	QUANT	2.50000E+001	AC &Voltage (mV rms)
AREA	QUANT	1.00000E-002	&Area (cm^2)
CONDIT	TWOPARAM	T	5.00000E+000	0.00000E+000	Conditionin&g	Time(s)	E(V)
DELAY	TWOPARAM	T	5.00000E+000	0.00000E+000	Init. De&lay	Time(s)	Stab.(mV/s)
SPEED	SELECTOR	1	&Optimize for:
ZGUESS	QUANT	1.00000E+007	E&stimated Z (ohms)
OCVCURVE	TABLE	19
	Pt	T	Vf	Vm	Ach	Over
	#	s	V vs. Ref.	V	V	bits
	0	0.258333	2.67289E-003	2.67289E-003	5.28833E-004	...........
	1	0.516667	2.66621E-003	2.32298E-003	5.27733E-004	...........
	2	0.775	2.62561E-003	2.01469E-003	5.30433E-004	...........
	3	1.03333	2.51255E-003	1.73541E-003	5.30466E-004	...........
	4	1.29167	2.31479E-003	1.48049E-003	5.36066E-004	...........
	5	1.55	2.05957E-003	1.24585E-003	5.30666E-004	...........
	6	1.80833	1.78678E-003	1.02912E-003	5.29166E-004	...........
	7	2.06667	1.52346E-003	8.22816E-004	5.32600E-004	...........
	8	2.325	1.27978E-003	6.33034E-004	5.25966E-004	...........
	9	2.58333	1.05580E-003	4.49792E-004	5.26366E-004	...........
	10	2.84167	8.48342E-004	2.79311E-004	5.32200E-004	...........
	11	3.1	6.54204E-004	1.10833E-004	5.36699E-004	...........
	12	3.35833	4.70987E-004	-3.99665E-005	5.28300E-004	...........
	13	3.61667	2.97335E-004	-1.87121E-004	5.21733E-004	...........
	14	3.875	1.32758E-004	-3.28748E-004	5.29033E-004	...........
	15	4.13333	-2.32413E-005	-4.63375E-004	5.27733E-004	...........
	16	4.39167	-1.71627E-004	-5.94114E-004	5.28866E-004	...........
	17	4.65	-3.13450E-004	-7.19621E-004	5.33300E-004	...........
	18	4.90833	-4.49503E-004	-8.39342E-004	5.35600E-004	...........
EOC	QUANT	-0.0004495	Open Circuit (V)
PSTATMODEL	IQUANT	4	Pstat Model
PSTATSECTION	LABEL	REF600-11020	Pstat Section
PSTATSERIALNO	LABEL	11020	Pstat Serial Number
CTRLMODE	IQUANT	1	Control Mode
IESTAB	IQUANT	0	I/E Stability
CASPEED	IQUANT	1	Control Amp Speed
CONVENTION	IQUANT	1	Current Convention
ICHRANGE	IQUANT	2	Ich Range
ICHRANGEMODE	TOGGLE	F	Ich Auto Range
ICHOFFSETENABLE	TOGGLE	T	Ich Offset Enable
ICHOFFSET	QUANT	0	Ich Offset (V)
ICHFILTER	IQUANT	3	Ich Filter
VCHRANGE	IQUANT	2	Vch Range
VCHRANGEMODE	TOGGLE	F	Vch Auto Range
VCHOFFSETENABLE	TOGGLE	T	Vch Offset Enable
VCHOFFSET	QUANT	0	Vch Offset (V)
VCHFILTER	IQUANT	3	Vch Filter
ACHRANGE	IQUANT	2	Ach Range
ACHOFFSETENABLE	TOGGLE	F	Ach Offset Enable
ACHOFFSET	QUANT	0	Ach Offset (V)
ACHFILTER	IQUANT	3	Ach Filter
IERANGELOWERLIMIT	IQUANT	1	I/E Range Lower Limit
IERANGEMODE	TOGGLE	F	I/E AutoRange
IERANGE	IQUANT	1	I/E Range
POSFEEDENABLE	TOGGLE	F	Positive Feedback IR Comp
POSFEEDRESISTANCE	QUANT	0	Positive Feedback Resistance (ohm)
ACHSELECT	IQUANT	0	Ach Select
CABLEID	IQUANT	14	Cable ID
DCCALDATE	LABEL	8/19/2019	DC Calibration Date
ACCALDATE	LABEL	8/19/2019	AC Calibration Date
THERMOSELECT	IQUANT	1	Thermo Select
FRAMEWORKVERSION	QUANT	6.33	Framework Version
INSTRUMENTVERSION	LABEL	3.50	Instrument Version
ZCURVE	TABLE
	Pt	Time	Freq	Zreal	Zimag	Zsig	Zmod	Zphz	Idc	Vdc	IERange
	#	s	Hz	ohm	ohm	V	ohm	°	A	V	#
	0	2	1000078	2402.599	-1606.913	1	2890.442	-33.77551	9.119174E-008	0.0013321	8
	1	4	794390.6	2715.614	-1510.66	1	3107.515	-29.0866	-2.045821E-006	0.0016226	8
	2	5	630984.4	2998.399	-1376.964	1	3299.458	-24.66615	-1.523525E-006	0.0014767	8
	3	7	501234.4	3226.503	-1224.884	1	3451.183	-20.78837	6.027285E-006	0.0001403	8
	4	9	398109.4	3418.962	-1055.368	1	3578.142	-17.15445	1.599389E-006	0.0007142	8
	5	10	316265.6	3529.417	-916.8411	1	3646.558	-14.56194	-9.207518E-007	0.0013242	8
	6	11	251203.1	3634.242	-793.5909	1	3719.879	-12.31803	1.61667E-006	0.0006402	8
	7	13	199546.9	3712.396	-683.3792	1	3774.771	-10.43026	2.006512E-006	0.0006962	8
	8	14	158578.1	3760.16	-612.5047	1	3809.72	-9.251837	-3.719634E-006	0.0018629	8
	9	15	125953.1	3821.326	-483.3763	1	3851.777	-7.209307	5.932021E-007	-0.0005031	7
	10	17	100078.1	3848.771	-441.7024	1	3874.034	-6.54688	1.319953E-007	0.0008808	7
	11	18	79453.13	3879.266	-419.2541	1	3901.856	-6.168335	1.345113E-007	0.0008713	7
	12	19	63140.62	3912.031	-408.6905	1	3933.321	-5.964065	-3.850603E-008	0.0010758	7
	13	21	50203.12	3943.053	-408.3284	1	3964.139	-5.912271	7.818958E-008	0.0009304	7
	14	22	39890.62	3974.345	-420.1118	1	3996.488	-6.034095	-4.447718E-008	0.0012239	7
	15	23	31640.63	4013.316	-439.6684	1	4037.328	-6.251958	-5.744767E-008	0.0012483	7
	16	25	25171.88	4051.789	-471.5421	1	4079.135	-6.63815	-5.53021E-008	0.0012421	7
	17	26	20015.62	4094.177	-514.6107	1	4126.392	-7.164126	8.015701E-008	0.0008886	7
	18	27	15890.62	4141.115	-568.9698	1	4180.02	-7.82319	8.668134E-008	0.0009976	7
	19	29	12609.37	4193.147	-639.0281	1	4241.562	-8.6651	-4.809245E-009	0.0010985	7
	20	30	10078.13	4249.773	-721.7726	1	4310.629	-9.63902	-6.066062E-008	0.001129	7
	21	31	8015.625	4310.201	-819.6555	1	4387.444	-10.76717	8.045236E-008	0.0008906	7
	22	33	6328.125	4381.999	-945.7841	1	4482.903	-12.17954	-5.853846E-008	0.001152	7
	23	34	5015.625	4458.971	-1095.489	1	4591.57	-13.80316	-5.86119E-008	0.0011502	7
	24	35	3984.375	4543.326	-1272.025	1	4718.036	-15.641	-3.09722E-008	0.0010568	7
	25	37	3170.956	4635.799	-1486.615	1	4868.333	-17.78008	7.273413E-008	0.0009352	7
	26	38	2527.573	4740.059	-1741.299	1	5049.78	-20.17122	-4.056012E-009	0.0010958	7
	27	39	1976.103	4866.629	-2077.364	1	5291.457	-23.11565	-2.828747E-008	0.0010995	7
	28	41	1577.524	4995.612	-2455.937	1	5566.666	-26.1796	-3.693707E-008	0.0011483	7
	29	42	1265.625	5135.913	-2901.056	1	5898.621	-29.46023	-2.13287E-008	0.0010249	7
	30	43	998.264	5310.945	-3482.69	1	6351.005	-33.25514	3.866213E-008	0.0009179	7
	31	45	796.875	5500.063	-4162.622	1	6897.689	-37.11959	1.426676E-008	0.0009738	7
	32	46	627.7902	5727.637	-5040.653	1	7629.811	-41.34966	-5.375499E-008	0.0012361	7
	33	47	505.5147	5968.062	-6017.574	1	8475.196	-45.23669	-6.035294E-008	0.0011235	7
	34	49	397.9953	6280.533	-7326.804	1	9650.24	-49.39684	5.926003E-009	0.0010565	7
	35	50	315.5048	6637.549	-8895.286	1	11098.79	-53.27017	1.062557E-009	0.0010015	6
	36	51	252.4038	7038.516	-10743.21	1	12843.57	-56.76882	3.483775E-010	0.000998	6
	37	53	198.6229	7550.13	-13181.08	1	15190.3	-60.19589	1.046935E-009	0.0009926	6
	38	54	158.3615	8129.318	-16022.85	1	17967.13	-63.09869	1.675333E-009	0.0009973	6
	39	55	125.558	8850.064	-19599.28	1	21504.78	-65.69842	1.166229E-009	0.0010038	6
	40	57	100.4464	9689	-23787.98	1	25685.5	-67.83862	1.485773E-009	0.0009979	6
	41	58	79.00281	10818.27	-29341.84	1	31272.64	-69.76119	1.041613E-009	0.0009956	6
	42	59	63.3446	12228.22	-36069.19	1	38085.64	-71.27225	1.349002E-009	0.0009939	6
	43	61	49.86702	13909.7	-43922.68	1	46072.57	-72.42773	7.74004E-010	0.0009912	6
	44	62	39.72458	16344.98	-53993.7	1	56413.45	-73.15788	1.267231E-009	0.0009963	6
	45	63	31.6723	19481.49	-65715.04	1	68541.92	-73.48733	9.495308E-010	0.0009983	6
	46	65	24.93351	23643.74	-81028.48	1	84407.59	-73.733	8.545718E-010	0.0009909	6
	47	66	19.86229	28831.26	-98551.1	1	102681.9	-73.6931	1.017451E-009	0.0009923	6
	48	67	15.83615	36466.13	-120770.2	1	126155.5	-73.19849	-1.088461E-009	0.0009985	5
	49	69	12.40079	44728.8	-145852.5	1	152556.9	-72.95071	-2.925988E-010	0.0009941	5
	50	70	9.93114	57817.46	-176057.9	1	185308.5	-71.81981	7.630785E-010	0.000992	5
	51	72	7.944915	73134.92	-210364.8	1	222715.2	-70.82961	4.552518E-010	0.0009966	5
	52	73	6.317385	93230.14	-251100	1	267848.9	-69.63069	5.008718E-010	0.0009947	5
	53	75	5.008013	119302.9	-299206.5	1	322114.4	-68.2613	1.762477E-010	0.0009965	5
	54	78	3.945707	152983.6	-355277.5	1	386815.3	-66.70314	5.035164E-010	0.0010072	5
	55	81	3.158693	192410.9	-414463.7	1	456948.7	-65.09735	2.762334E-010	0.0010154	5
	56	84	2.504006	242865.5	-483498.7	1	541068	-63.32924	2.442876E-010	0.0009948	5
	57	87	1.998082	299460.5	-557543.9	1	632875.8	-61.75946	-1.841272E-011	0.0010119	5
	58	90	1.584686	371669.5	-639200.9	1	739402.5	-59.82373	2.050126E-010	0.001056	5
	59	93	1.266892	448922.1	-728753.1	1	855927.6	-58.36635	-8.055183E-011	0.0009828	5
	60	98	0.999041	547055.4	-824610	1	989571	-56.43926	3.927116E-010	0.0010416	5
