EXPLAIN
TAG	EISPOT
TITLE	LABEL	Potentiostatic EIS	Test &Identifier
DATE	LABEL	10/20/2019	Date
TIME	LABEL	9:35:08	Time
NOTES	NOTES	1	&Notes...
	
PSTAT	PSTAT	REF600-11020	Potentiostat
VDC	POTEN	0.00000E+000	T	DC &Voltage (V)
FREQINIT	QUANT	1.00000E+006	Initial Fre&q. (Hz)
FREQFINAL	QUANT	1.00000E+000	Final Fre&q. (Hz)
PTSPERDEC	QUANT	1.00000E+001	Points/&decade
VAC	QUANT	2.50000E+001	AC &Voltage (mV rms)
AREA	QUANT	1.00000E-002	&Area (cm^2)
CONDIT	TWOPARAM	T	5.00000E+000	0.00000E+000	Conditionin&g	Time(s)	E(V)
DELAY	TWOPARAM	T	5.00000E+000	0.00000E+000	Init. De&lay	Time(s)	Stab.(mV/s)
SPEED	SELECTOR	1	&Optimize for:
ZGUESS	QUANT	1.00000E+005	E&stimated Z (ohms)
OCVCURVE	TABLE	19
	Pt	T	Vf	Vm	Ach	Over
	#	s	V vs. Ref.	V	V	bits
	0	0.258333	3.60459E-003	3.60459E-003	5.68599E-004	...........
	1	0.516667	3.60079E-003	3.40555E-003	5.61832E-004	...........
	2	0.775	3.57830E-003	3.26201E-003	5.57266E-004	...........
	3	1.03333	3.51807E-003	3.15162E-003	5.57466E-004	...........
	4	1.29167	3.41825E-003	3.05068E-003	5.52866E-004	...........
	5	1.55	3.29796E-003	2.96928E-003	5.46199E-004	...........
	6	1.80833	3.17921E-003	2.89588E-003	5.52766E-004	...........
	7	2.06667	3.07383E-003	2.83190E-003	5.53233E-004	...........
	8	2.325	2.98410E-003	2.77480E-003	5.59099E-004	...........
	9	2.58333	2.90768E-003	2.72245E-003	5.48599E-004	...........
	10	2.84167	2.84138E-003	2.67543E-003	5.51232E-004	...........
	11	3.1	2.78259E-003	2.62825E-003	5.52632E-004	...........
	12	3.35833	2.72939E-003	2.58896E-003	5.55299E-004	...........
	13	3.61667	2.68041E-003	2.54302E-003	5.53399E-004	...........
	14	3.875	2.63467E-003	2.51071E-003	5.64032E-004	...........
	15	4.13333	2.59178E-003	2.48028E-003	5.61032E-004	...........
	16	4.39167	2.55192E-003	2.43914E-003	5.60566E-004	...........
	17	4.65	2.51488E-003	2.41136E-003	5.59032E-004	...........
	18	4.90833	2.47979E-003	2.38048E-003	5.62332E-004	...........
EOC	QUANT	0.0024798	Open Circuit (V)
PSTATMODEL	IQUANT	4	Pstat Model
PSTATSECTION	LABEL	REF600-11020	Pstat Section
PSTATSERIALNO	LABEL	11020	Pstat Serial Number
CTRLMODE	IQUANT	1	Control Mode
IESTAB	IQUANT	0	I/E Stability
CASPEED	IQUANT	1	Control Amp Speed
CONVENTION	IQUANT	1	Current Convention
ICHRANGE	IQUANT	2	Ich Range
ICHRANGEMODE	TOGGLE	F	Ich Auto Range
ICHOFFSETENABLE	TOGGLE	T	Ich Offset Enable
ICHOFFSET	QUANT	0	Ich Offset (V)
ICHFILTER	IQUANT	3	Ich Filter
VCHRANGE	IQUANT	2	Vch Range
VCHRANGEMODE	TOGGLE	F	Vch Auto Range
VCHOFFSETENABLE	TOGGLE	T	Vch Offset Enable
VCHOFFSET	QUANT	0	Vch Offset (V)
VCHFILTER	IQUANT	3	Vch Filter
ACHRANGE	IQUANT	2	Ach Range
ACHOFFSETENABLE	TOGGLE	F	Ach Offset Enable
ACHOFFSET	QUANT	0	Ach Offset (V)
ACHFILTER	IQUANT	3	Ach Filter
IERANGELOWERLIMIT	IQUANT	1	I/E Range Lower Limit
IERANGEMODE	TOGGLE	F	I/E AutoRange
IERANGE	IQUANT	4	I/E Range
POSFEEDENABLE	TOGGLE	F	Positive Feedback IR Comp
POSFEEDRESISTANCE	QUANT	0	Positive Feedback Resistance (ohm)
ACHSELECT	IQUANT	0	Ach Select
CABLEID	IQUANT	14	Cable ID
DCCALDATE	LABEL	8/19/2019	DC Calibration Date
ACCALDATE	LABEL	8/19/2019	AC Calibration Date
THERMOSELECT	IQUANT	1	Thermo Select
FRAMEWORKVERSION	QUANT	6.33	Framework Version
INSTRUMENTVERSION	LABEL	3.50	Instrument Version
ZCURVE	TABLE
	Pt	Time	Freq	Zreal	Zimag	Zsig	Zmod	Zphz	Idc	Vdc	IERange
	#	s	Hz	ohm	ohm	V	ohm	°	A	V	#
	0	2	1000078	2272.406	-831.8507	1	2419.877	-20.10596	2.162921E-006	0.0048033	8
	1	3	794390.6	2399.229	-737.22	1	2509.939	-17.08081	-4.963142E-006	0.0053008	8
	2	5	630984.4	2490.919	-648.1885	1	2573.874	-14.58605	6.869793E-007	0.0044915	8
	3	6	501234.4	2577.417	-554.1097	1	2636.307	-12.13314	1.850563E-006	0.0035929	8
	4	7	398109.4	2633.064	-483.0393	1	2677.005	-10.3954	-3.576589E-006	0.0048186	8
	5	9	316265.6	2673.765	-411.5802	1	2705.257	-8.751013	1.309044E-006	0.0038056	8
	6	10	251203.1	2716.696	-357.9496	1	2740.176	-7.506009	-1.182085E-007	0.004017	8
	7	12	199546.9	2745.346	-322.852	1	2764.264	-6.707163	-3.168495E-006	0.0047224	8
	8	13	158578.1	2757.533	-281.8775	1	2771.903	-5.836554	-2.734004E-007	0.0040702	8
	9	14	125953.1	2808.015	-220.4506	1	2816.656	-4.488947	6.561561E-007	0.0032071	7
	10	16	100078.1	2818.317	-198.2489	1	2825.281	-4.023728	-3.99781E-008	0.0040622	7
	11	17	79453.13	2834.561	-194.7612	1	2841.244	-3.930584	-1.214787E-008	0.0040004	7
	12	18	63140.62	2853.29	-196.1001	1	2860.021	-3.931626	-3.678078E-008	0.0040629	7
	13	20	50203.12	2872.166	-200.9062	1	2879.184	-4.001286	-1.483097E-008	0.0040088	7
	14	21	39890.62	2891.403	-208.6845	1	2898.924	-4.128115	6.823663E-008	0.0039212	7
	15	22	31640.63	2912.554	-219.972	1	2920.849	-4.319091	8.017578E-008	0.0038716	7
	16	24	25171.88	2934.208	-235.5104	1	2943.644	-4.588933	-7.50657E-008	0.00416	7
	17	25	20015.62	2952.721	-257.2917	1	2963.909	-4.980014	-7.779889E-008	0.0041567	7
	18	27	15890.62	2981.154	-280.3736	1	2994.309	-5.37279	1.346739E-007	0.0038269	7
	19	28	12609.37	3004.489	-313.6143	1	3020.812	-5.959064	6.924304E-008	0.003918	7
	20	29	10078.13	3033.384	-351.5996	1	3053.693	-6.611651	-1.417617E-008	0.004009	7
	21	31	8015.625	3056.503	-386.2967	1	3080.817	-7.203147	7.107454E-008	0.0039184	7
	22	32	6328.125	3091.286	-460.3362	1	3125.374	-8.46991	-2.315552E-008	0.0041909	7
	23	33	5015.625	3124.955	-534.9951	1	3170.42	-9.7149	-3.503369E-008	0.0040652	7
	24	35	3984.375	3154.375	-633.3915	1	3217.338	-11.35388	-1.040691E-008	0.0040852	7
	25	36	3170.956	3200.724	-734.5482	1	3283.93	-12.92525	-3.771217E-008	0.0040538	7
	26	38	2527.573	3242.806	-868.1412	1	3357.001	-14.98737	-5.37081E-008	0.0041938	7
	27	39	1976.103	3294.445	-1046.534	1	3456.675	-17.6233	-5.334399E-008	0.004194	7
	28	40	1577.524	3371.522	-1209.61	1	3581.943	-19.73661	-3.997348E-008	0.0040788	7
	29	42	1265.625	3407.711	-1489.323	1	3718.948	-23.60749	-3.663704E-008	0.0040529	7
	30	43	998.264	3479.365	-1807.684	1	3920.931	-27.45388	-2.699217E-010	0.0040398	7
	31	44	796.875	3561.731	-2185.905	1	4179.008	-31.53826	-9.214586E-009	0.0040735	7
	32	46	627.7902	3661.608	-2675.787	1	4535.108	-36.15815	-2.245872E-008	0.0041914	7
	33	47	505.5147	3773.713	-3227.459	1	4965.623	-40.53864	-1.387769E-008	0.0040111	7
	34	49	397.9953	3923.765	-3970.046	1	5581.864	-45.33592	6.123566E-009	0.0040552	7
	35	50	315.5048	4105.423	-4865.511	1	6366.137	-49.84298	5.701626E-009	0.0040488	7
	36	51	252.4038	4325.801	-5919.363	1	7331.536	-53.8411	5.625926E-009	0.0040506	7
	37	53	198.6229	4628.751	-7308.438	1	8650.931	-57.65214	5.972824E-009	0.0040454	7
	38	54	158.3615	4997.532	-8916.755	1	10221.73	-60.73088	6.512525E-009	0.004046	7
	39	55	125.558	5492.44	-10928.96	1	12231.48	-63.31781	1.556713E-009	0.0039824	6
	40	57	100.4464	6113.335	-13265.18	1	14606.09	-65.25711	-1.818141E-010	0.0039797	6
	41	58	79.00281	6955.058	-16367.27	1	17783.71	-66.97758	-9.051757E-011	0.0039817	6
	42	60	63.3446	7803.607	-19772.2	1	21256.44	-68.46205	1.41748E-009	0.0039826	6
	43	61	49.86702	9474.297	-24008.37	1	25810.15	-68.46458	9.670151E-010	0.0039849	6
	44	62	39.72458	11216.69	-29134.24	1	31218.88	-68.94328	9.919997E-010	0.0039881	6
	45	64	31.6723	13529.33	-35068.31	1	37587.62	-68.90342	1.169201E-009	0.0039865	6
	46	65	24.93351	16453.78	-42455.68	1	45532.54	-68.81606	1.00833E-009	0.0039814	6
	47	67	19.86229	20110.47	-50646.6	1	54493.2	-68.34324	7.501735E-010	0.0039885	6
	48	68	15.83615	25246.15	-60311.61	1	65382.4	-67.28605	-2.54048E-009	0.0039848	6
	49	69	12.40079	30800.9	-72153.68	1	78452.84	-66.88338	-8.871653E-010	0.003992	6
	50	71	9.93114	37336.77	-84987.87	1	92827.65	-66.28321	4.167609E-010	0.00399	6
	51	72	7.944915	45520.13	-99658.2	1	109562	-65.45086	5.377085E-010	0.0039969	5
	52	74	6.317385	55289.72	-116950.2	1	129361.1	-64.69695	-1.642767E-010	0.0039859	5
	53	76	5.008013	67476.93	-137192.2	1	152888.3	-63.81009	-1.047837E-010	0.0039909	5
	54	79	3.945707	82150.04	-161055.3	1	180796.7	-62.97508	-4.809871E-011	0.0039943	5
	55	81	3.158693	98414.1	-186262.8	1	210663.6	-62.14975	4.350517E-010	0.003999	5
	56	85	2.504006	118120.7	-216318.4	1	246467.3	-61.36325	-3.627994E-010	0.0039925	5
	57	87	1.998082	139860.2	-248836.8	1	285448.1	-60.66158	1.379334E-010	0.0039448	5
	58	90	1.584686	164571.6	-286836	1	330694.3	-60.15503	2.453301E-011	0.0040054	5
	59	94	1.266892	191681.2	-330195.3	1	381799.2	-59.86447	7.155618E-011	0.0039521	5
	60	98	0.999041	223655.5	-382310.7	1	442925.8	-59.67195	3.417955E-010	0.0040345	5
