EXPLAIN
TAG	EISPOT
TITLE	LABEL	Potentiostatic EIS	Test &Identifier
DATE	LABEL	10/2/2019	Date
TIME	LABEL	8:55:07	Time
NOTES	NOTES	2	&Notes...
	
	
PSTAT	PSTAT	REF600-11020	Potentiostat
VDC	POTEN	0.00000E+000	T	DC &Voltage (V)
FREQINIT	QUANT	1.00000E+006	Initial Fre&q. (Hz)
FREQFINAL	QUANT	1.00000E+000	Final Fre&q. (Hz)
PTSPERDEC	QUANT	1.00000E+001	Points/&decade
VAC	QUANT	2.50000E+001	AC &Voltage (mV rms)
AREA	QUANT	1.00000E-002	&Area (cm^2)
CONDIT	TWOPARAM	T	5.00000E+000	0.00000E+000	Conditionin&g	Time(s)	E(V)
DELAY	TWOPARAM	T	5.00000E+000	0.00000E+000	Init. De&lay	Time(s)	Stab.(mV/s)
SPEED	SELECTOR	1	&Optimize for:
ZGUESS	QUANT	1.00000E+004	E&stimated Z (ohms)
OCVCURVE	TABLE	19
	Pt	T	Vf	Vm	Ach	Over
	#	s	V vs. Ref.	V	V	bits
	0	0.258333	1.06936E-003	1.06936E-003	5.75232E-004	...........
	1	0.516667	1.07201E-003	1.20786E-003	5.66832E-004	...........
	2	0.775	1.07194E-003	4.84960E-004	5.71966E-004	...........
	3	1.03333	1.02234E-003	4.42286E-005	5.69599E-004	...........
	4	1.29167	8.56146E-004	-3.91285E-005	5.67066E-004	...........
	5	1.55	5.75817E-004	-3.00851E-004	5.69932E-004	...........
	6	1.80833	2.67760E-004	-1.19613E-004	5.73199E-004	...........
	7	2.06667	2.09764E-005	-2.92654E-004	5.70099E-004	...........
	8	2.325	-1.42539E-004	-8.38961E-004	5.76099E-004	...........
	9	2.58333	-2.92359E-004	-1.61864E-003	5.74232E-004	...........
	10	2.84167	-5.42921E-004	-2.13171E-003	5.68432E-004	...........
	11	3.1	-9.58331E-004	-3.03841E-003	5.70666E-004	...........
	12	3.35833	-1.52899E-003	-3.97777E-003	5.71932E-004	...........
	13	3.61667	-2.22853E-003	-5.00121E-003	5.73132E-004	...........
	14	3.875	-3.03306E-003	-5.53108E-003	5.73399E-004	...........
	15	4.13333	-3.87152E-003	-5.38567E-003	5.70799E-004	...........
	16	4.39167	-4.58333E-003	-4.36142E-003	5.72932E-004	...........
	17	4.65	-4.96232E-003	-3.61281E-003	5.69399E-004	...........
	18	4.90833	-4.88974E-003	-2.84217E-003	5.65699E-004	...........
EOC	QUANT	-0.0048897	Open Circuit (V)
PSTATMODEL	IQUANT	4	Pstat Model
PSTATSECTION	LABEL	REF600-11020	Pstat Section
PSTATSERIALNO	LABEL	11020	Pstat Serial Number
CTRLMODE	IQUANT	1	Control Mode
IESTAB	IQUANT	0	I/E Stability
CASPEED	IQUANT	1	Control Amp Speed
CONVENTION	IQUANT	1	Current Convention
ICHRANGE	IQUANT	2	Ich Range
ICHRANGEMODE	TOGGLE	F	Ich Auto Range
ICHOFFSETENABLE	TOGGLE	T	Ich Offset Enable
ICHOFFSET	QUANT	0	Ich Offset (V)
ICHFILTER	IQUANT	3	Ich Filter
VCHRANGE	IQUANT	2	Vch Range
VCHRANGEMODE	TOGGLE	F	Vch Auto Range
VCHOFFSETENABLE	TOGGLE	T	Vch Offset Enable
VCHOFFSET	QUANT	0	Vch Offset (V)
VCHFILTER	IQUANT	3	Vch Filter
ACHRANGE	IQUANT	2	Ach Range
ACHOFFSETENABLE	TOGGLE	F	Ach Offset Enable
ACHOFFSET	QUANT	0	Ach Offset (V)
ACHFILTER	IQUANT	3	Ach Filter
IERANGELOWERLIMIT	IQUANT	1	I/E Range Lower Limit
IERANGEMODE	TOGGLE	F	I/E AutoRange
IERANGE	IQUANT	5	I/E Range
POSFEEDENABLE	TOGGLE	F	Positive Feedback IR Comp
POSFEEDRESISTANCE	QUANT	0	Positive Feedback Resistance (ohm)
ACHSELECT	IQUANT	0	Ach Select
CABLEID	IQUANT	14	Cable ID
DCCALDATE	LABEL	8/19/2019	DC Calibration Date
ACCALDATE	LABEL	8/19/2019	AC Calibration Date
THERMOSELECT	IQUANT	1	Thermo Select
FRAMEWORKVERSION	QUANT	6.33	Framework Version
INSTRUMENTVERSION	LABEL	3.50	Instrument Version
ZCURVE	TABLE
	Pt	Time	Freq	Zreal	Zimag	Zsig	Zmod	Zphz	Idc	Vdc	IERange
	#	s	Hz	ohm	ohm	V	ohm	°	A	V	#
	0	1	1000078	2391.052	-1479	1	2811.507	-31.73911	2.669359E-007	-0.002623	8
	1	3	794390.6	2683.321	-1376.572	1	3015.819	-27.15831	-6.023355E-007	-0.0031656	8
	2	4	630984.4	2911.481	-1225.435	1	3158.863	-22.8261	7.995899E-007	-0.0034415	8
	3	6	501234.4	3111.352	-1087.303	1	3295.867	-19.26264	-1.178109E-006	-0.0029937	8
	4	7	398109.4	3248.219	-931.8285	1	3379.236	-16.00679	1.141388E-007	-0.0035124	8
	5	8	316265.6	3359.371	-786.7012	1	3450.256	-13.18008	-2.049523E-006	-0.0030461	8
	6	10	251203.1	3413.113	-672.7447	1	3478.782	-11.1504	6.538868E-007	-0.0035712	8
	7	11	199546.9	3485.028	-588.4718	1	3534.363	-9.58439	-2.706095E-006	-0.0028869	8
	8	13	158578.1	3550.134	-518.2644	1	3587.764	-8.305623	3.545911E-006	-0.004103	8
	9	14	125953.1	3589.867	-420.9312	1	3614.461	-6.687699	3.725265E-007	-0.0042775	7
	10	15	100078.1	3619.694	-381.4863	1	3639.741	-6.016299	4.232843E-008	-0.0036212	7
	11	17	79453.13	3647.482	-359.4997	1	3665.156	-5.628953	8.390978E-009	-0.0035517	7
	12	18	63140.62	3674.954	-348.1754	1	3691.41	-5.412208	1.277869E-007	-0.0036805	7
	13	19	50203.12	3703.384	-344.9568	1	3719.415	-5.321539	3.933187E-012	-0.0034885	7
	14	21	39890.62	3732.282	-351.1174	1	3748.762	-5.374329	-7.349986E-008	-0.0033741	7
	15	22	31640.63	3763.016	-365.466	1	3780.721	-5.547198	-1.842989E-008	-0.0033603	7
	16	23	25171.88	3795.078	-388.4111	1	3814.902	-5.843647	-7.343264E-008	-0.0033692	7
	17	25	20015.62	3831.003	-421.4888	1	3854.12	-6.278458	-7.361551E-008	-0.0033749	7
	18	26	15890.62	3868.666	-464.1144	1	3896.406	-6.84094	7.683001E-008	-0.0035362	7
	19	28	12609.37	3909.389	-517.1973	1	3943.453	-7.536249	-1.647336E-008	-0.0033566	7
	20	29	10078.13	3951.745	-581.2166	1	3994.258	-8.366988	1.28173E-007	-0.0036892	7
	21	30	8015.625	4004.512	-662.3265	1	4058.916	-9.391419	6.752084E-008	-0.0036112	7
	22	32	6328.125	4054.163	-761.9982	1	4125.152	-10.64481	-3.970934E-008	-0.0034185	7
	23	33	5015.625	4110.638	-883.2262	1	4204.454	-12.12641	-1.720314E-008	-0.0033643	7
	24	34	3984.375	4172.628	-1030.412	1	4297.974	-13.87141	-4.1558E-008	-0.0034228	7
	25	36	3170.956	4239.28	-1208.546	1	4408.183	-15.91193	9.23797E-009	-0.003561	7
	26	37	2527.573	4313.017	-1426.545	1	4542.813	-18.30182	-1.611707E-008	-0.0033635	7
	27	38	1976.103	4402.477	-1716.514	1	4725.275	-21.30067	-3.798409E-008	-0.0034589	7
	28	40	1577.524	4497.515	-2043.104	1	4939.83	-24.43106	-1.487313E-008	-0.0035259	7
	29	41	1265.625	4599.954	-2430.888	1	5202.768	-27.85463	6.352415E-010	-0.0034935	7
	30	43	998.264	4727.374	-2939.315	1	5566.654	-31.8719	8.019244E-008	-0.0036632	7
	31	44	796.875	4861.375	-3534.729	1	6010.597	-36.02108	3.461641E-008	-0.0035373	7
	32	45	627.7902	5024.989	-4310.051	1	6620.201	-40.62046	-3.516186E-008	-0.003486	7
	33	47	505.5147	5205.16	-5186.134	1	7347.767	-44.8951	4.286674E-008	-0.0036452	7
	34	48	397.9953	5416.034	-6363.682	1	8356.427	-49.5994	5.30458E-009	-0.0034799	7
	35	49	315.5048	5671.173	-7791.56	1	9636.94	-53.95058	5.865883E-009	-0.0034829	7
	36	51	252.4038	5971.976	-9484.35	1	11207.92	-57.80276	1.401037E-009	-0.003543	6
	37	52	198.6229	6370.208	-11734.22	1	13351.83	-61.50359	1.233476E-009	-0.0035422	6
	38	54	158.3615	6847.249	-14363.85	1	15912.42	-64.51286	7.861651E-010	-0.0035428	6
	39	55	125.558	7471.543	-17685.95	1	19199.4	-67.09806	9.62218E-010	-0.0035438	6
	40	56	100.4464	8252.21	-21585.82	1	23109.45	-69.07825	6.108993E-010	-0.0035436	6
	41	58	79.00281	9325.971	-26794.92	1	28371.49	-70.80956	3.743455E-010	-0.0035465	6
	42	59	63.3446	10503.73	-32709.23	1	34354.36	-72.19691	1.201792E-009	-0.0035468	6
	43	60	49.86702	12421.17	-40128.55	1	42006.98	-72.80091	2.755028E-010	-0.003549	6
	44	62	39.72458	14799.74	-49122.02	1	51303.07	-73.23322	1.091818E-009	-0.0035424	6
	45	63	31.6723	17904.42	-59882.29	1	62501.65	-73.35368	9.881508E-010	-0.003543	6
	46	65	24.93351	22076.64	-73527.57	1	76770.32	-73.28762	1.021844E-009	-0.0035443	6
	47	66	19.86229	27393.63	-89110.52	1	93226.05	-72.91195	5.717299E-010	-0.0035448	6
	48	67	15.83615	34159.41	-107253.2	1	112561.6	-72.33368	7.834097E-010	-0.0035436	5
	49	69	12.40079	43420.7	-130669.3	1	137694.6	-71.61863	8.396062E-010	-0.0035427	5
	50	70	9.93114	55392.16	-156525	1	166037.3	-70.5118	2.741016E-010	-0.0035424	5
	51	72	7.944915	69823.28	-185762.4	1	198451.4	-69.40005	6.698848E-010	-0.0035374	5
	52	73	6.317385	88019.54	-220530.7	1	237447.3	-68.24178	3.01336E-012	-0.0035318	5
	53	75	5.008013	111613.4	-260796	1	283676.1	-66.83044	9.464396E-011	-0.0035486	5
	54	78	3.945707	141035.8	-307396.1	1	338206.3	-65.35396	5.124652E-010	-0.0035349	5
	55	81	3.158693	174283.6	-356867.8	1	397151.6	-63.97049	6.145981E-011	-0.0035576	5
	56	84	2.504006	215110.7	-414096.7	1	466635.5	-62.54948	5.393119E-010	-0.0035393	5
	57	87	1.998082	261080.5	-475944.4	1	542849.9	-61.25292	4.449602E-010	-0.0035254	5
	58	90	1.584686	314242.4	-548628.9	1	632251.4	-60.19688	4.234547E-010	-0.0035882	5
	59	94	1.266892	375916.1	-623074.3	1	727691.2	-58.89638	3.187261E-010	-0.0035365	5
	60	98	0.999041	444731.3	-721211.4	1	847308.6	-58.34016	5.273409E-011	-0.0035647	5
