EXPLAIN
TAG	EISPOT
TITLE	LABEL	Potentiostatic EIS	Test &Identifier
DATE	LABEL	11/15/2019	Date
TIME	LABEL	12:44:30	Time
NOTES	NOTES	4	&Notes...
	
	
	
	
PSTAT	PSTAT	REF600-11020	Potentiostat
VDC	POTEN	0.00000E+000	T	DC &Voltage (V)
FREQINIT	QUANT	1.00000E+006	Initial Fre&q. (Hz)
FREQFINAL	QUANT	1.00000E+000	Final Fre&q. (Hz)
PTSPERDEC	QUANT	1.00000E+001	Points/&decade
VAC	QUANT	2.50000E+001	AC &Voltage (mV rms)
AREA	QUANT	1.00000E-002	&Area (cm^2)
CONDIT	TWOPARAM	T	5.00000E+000	0.00000E+000	Conditionin&g	Time(s)	E(V)
DELAY	TWOPARAM	T	5.00000E+000	0.00000E+000	Init. De&lay	Time(s)	Stab.(mV/s)
SPEED	SELECTOR	0	&Optimize for:
ZGUESS	QUANT	1.00000E+005	E&stimated Z (ohms)
OCVCURVE	TABLE	19
	Pt	T	Vf	Vm	Ach	Over
	#	s	V vs. Ref.	V	V	bits
	0	0.258333	7.55223E-003	7.55223E-003	5.41166E-004	...........
	1	0.516667	7.54815E-003	7.33887E-003	5.43766E-004	...........
	2	0.775	7.52562E-003	7.26700E-003	5.40399E-004	...........
	3	1.03333	7.46913E-003	7.14570E-003	5.42966E-004	...........
	4	1.29167	7.38009E-003	7.04694E-003	5.42966E-004	...........
	5	1.55	7.27526E-003	7.01425E-003	5.40366E-004	...........
	6	1.80833	7.17315E-003	6.94557E-003	5.42033E-004	...........
	7	2.06667	7.08591E-003	6.91542E-003	5.38266E-004	...........
	8	2.325	7.01647E-003	6.86651E-003	5.39133E-004	...........
	9	2.58333	6.96099E-003	6.82384E-003	5.42366E-004	...........
	10	2.84167	6.91466E-003	6.83199E-003	5.44799E-004	...........
	11	3.1	6.87585E-003	6.78797E-003	5.42933E-004	...........
	12	3.35833	6.84532E-003	6.80906E-003	5.45633E-004	...........
	13	3.61667	6.82376E-003	6.81525E-003	5.44599E-004	...........
	14	3.875	6.81120E-003	6.78186E-003	5.42233E-004	...........
	15	4.13333	6.80529E-003	6.81471E-003	5.44766E-004	...........
	16	4.39167	6.80262E-003	6.80140E-003	5.43299E-004	...........
	17	4.65	6.80138E-003	6.77662E-003	5.46666E-004	...........
	18	4.90833	6.80036E-003	6.83068E-003	5.40633E-004	...........
EOC	QUANT	0.0068004	Open Circuit (V)
PSTATMODEL	IQUANT	4	Pstat Model
PSTATSECTION	LABEL	REF600-11020	Pstat Section
PSTATSERIALNO	LABEL	11020	Pstat Serial Number
CTRLMODE	IQUANT	1	Control Mode
IESTAB	IQUANT	0	I/E Stability
CASPEED	IQUANT	1	Control Amp Speed
CONVENTION	IQUANT	1	Current Convention
ICHRANGE	IQUANT	2	Ich Range
ICHRANGEMODE	TOGGLE	F	Ich Auto Range
ICHOFFSETENABLE	TOGGLE	T	Ich Offset Enable
ICHOFFSET	QUANT	0	Ich Offset (V)
ICHFILTER	IQUANT	3	Ich Filter
VCHRANGE	IQUANT	2	Vch Range
VCHRANGEMODE	TOGGLE	F	Vch Auto Range
VCHOFFSETENABLE	TOGGLE	T	Vch Offset Enable
VCHOFFSET	QUANT	0	Vch Offset (V)
VCHFILTER	IQUANT	3	Vch Filter
ACHRANGE	IQUANT	2	Ach Range
ACHOFFSETENABLE	TOGGLE	F	Ach Offset Enable
ACHOFFSET	QUANT	0	Ach Offset (V)
ACHFILTER	IQUANT	3	Ach Filter
IERANGELOWERLIMIT	IQUANT	1	I/E Range Lower Limit
IERANGEMODE	TOGGLE	F	I/E AutoRange
IERANGE	IQUANT	5	I/E Range
POSFEEDENABLE	TOGGLE	F	Positive Feedback IR Comp
POSFEEDRESISTANCE	QUANT	0	Positive Feedback Resistance (ohm)
ACHSELECT	IQUANT	0	Ach Select
CABLEID	IQUANT	14	Cable ID
DCCALDATE	LABEL	8/19/2019	DC Calibration Date
ACCALDATE	LABEL	8/19/2019	AC Calibration Date
THERMOSELECT	IQUANT	1	Thermo Select
FRAMEWORKVERSION	QUANT	6.33	Framework Version
INSTRUMENTVERSION	LABEL	3.50	Instrument Version
ZCURVE	TABLE
	Pt	Time	Freq	Zreal	Zimag	Zsig	Zmod	Zphz	Idc	Vdc	IERange
	#	s	Hz	ohm	ohm	V	ohm	°	A	V	#
	0	1	1000078	2316.505	-1964.642	1	3037.436	-40.30148	9.492286E-006	0.0072244	8
	1	2	794390.6	2706.354	-1956.487	1	3339.49	-35.86404	-2.49275E-006	0.0092051	8
	2	2	630984.4	3084.779	-1910.618	1	3628.543	-31.77281	-2.534148E-007	0.0081667	8
	3	2	501234.4	3448.904	-1789.396	1	3885.469	-27.42166	-1.481079E-006	0.0088709	8
	4	3	398109.4	3741.349	-1664.231	1	4094.796	-23.98051	-5.759063E-008	0.0080475	8
	5	3	316265.6	3975.349	-1498.172	1	4248.284	-20.6497	-4.722295E-006	0.0086929	8
	6	3	251203.1	4180.326	-1357.293	1	4395.153	-17.98789	-4.450545E-006	0.0086771	8
	7	3	199546.9	4348.361	-1210.883	1	4513.81	-15.56087	4.128306E-006	0.0083022	8
	8	4	158578.1	4474.371	-1106.813	1	4609.233	-13.89419	5.933534E-007	0.0087412	8
	9	4	125953.1	4632.729	-954.532	1	4730.043	-11.64235	4.086354E-006	0.00343	7
	10	4	100078.1	4724.176	-893.1942	1	4807.873	-10.70646	5.451844E-007	0.0064685	7
	11	5	79453.13	4809.736	-858.1411	1	4885.69	-10.11612	9.062852E-007	0.0080744	7
	12	5	63140.62	4892.02	-828.9383	1	4961.753	-9.61725	-1.145868E-006	0.0088571	7
	13	5	50203.12	4976.559	-830.6887	1	5045.412	-9.47646	6.564074E-007	0.0085528	7
	14	6	39890.62	5059.865	-840.8779	1	5129.26	-9.435516	1.081962E-006	0.0064456	7
	15	6	31640.63	5139.607	-868.2495	1	5212.429	-9.58862	-3.293082E-007	0.009786	7
	16	6	25171.88	5227.834	-914.8523	1	5307.279	-9.92605	-3.273501E-007	0.0097893	7
	17	7	20015.62	5319.759	-979.426	1	5409.169	-10.43196	-1.333698E-006	0.0094795	7
	18	7	15890.62	5426.021	-1061.878	1	5528.95	-11.0729	4.133555E-007	0.0088974	7
	19	7	12609.37	5544.814	-1166.192	1	5666.125	-11.8774	1.194837E-006	0.0066994	7
	20	8	10078.13	5654.232	-1284.967	1	5798.403	-12.80343	-9.88509E-007	0.0101374	7
	21	8	8015.625	5794.785	-1439.907	1	5971.002	-13.95443	6.584592E-007	0.0085534	7
	22	8	6328.125	5956.227	-1612.163	1	6170.551	-15.14527	4.130305E-007	0.0088985	7
	23	9	5015.625	6131.411	-1819.423	1	6395.663	-16.52763	4.166664E-007	0.0088979	7
	24	9	3984.375	6329.739	-2052.175	1	6654.098	-17.9633	7.043458E-008	0.0093636	7
	25	9	3170.956	6553.957	-2328.055	1	6955.156	-19.55574	1.207842E-006	0.0070638	7
	26	10	2527.573	6791.676	-2637.821	1	7285.942	-21.22569	-3.291769E-007	0.0073578	7
	27	10	1976.103	7087.132	-3019.46	1	7703.543	-23.07635	-1.204211E-006	0.0100614	7
	28	10	1577.524	7320.968	-3437.997	1	8088.041	-25.1552	-6.886524E-007	0.0100445	7
	29	11	1265.625	7714.008	-3882.325	1	8635.877	-26.71531	-3.230099E-007	0.0097801	7
	30	11	998.264	8076.054	-4455.694	1	9223.657	-28.88626	-1.147453E-006	0.0088441	7
	31	12	796.875	8458.245	-5092.819	1	9873.13	-31.05269	-6.86854E-007	0.0100434	7
	32	12	627.7902	8883.584	-5898.316	1	10663.4	-33.58244	-6.852671E-007	0.0100422	7
	33	12	505.5147	9284.409	-6786.887	1	11500.53	-36.16674	-1.170851E-007	0.0113142	6
	34	12	397.9953	9745.06	-7990.079	1	12601.89	-39.34868	7.000066E-010	0.0082507	6
	35	13	315.5048	10219.16	-9431.717	1	13906.42	-42.70529	-2.803738E-010	0.0082542	6
	36	13	252.4038	10708.49	-11153.81	1	15462.18	-46.1669	-8.367786E-011	0.0082534	6
	37	13	198.6229	11291.86	-13455.28	1	17565.61	-49.99617	1.026743E-010	0.0082573	6
	38	14	158.3615	11923.33	-16158.96	1	20081.78	-53.57722	-6.428243E-010	0.008251	6
	39	14	125.558	12693.87	-19605.88	1	23356.48	-57.07887	-1.031485E-011	0.0082552	6
	40	14	100.4464	13568.14	-23707.73	1	27315.77	-60.21712	-3.285345E-010	0.0082547	6
	41	15	79.00281	14924.95	-29124.56	1	32726.04	-62.86702	3.884096E-010	0.0082463	6
	42	15	63.3446	16135.06	-35658.57	1	39139.16	-65.65384	4.523219E-010	0.0082437	6
	43	15	49.86702	18116.33	-43629.96	1	47241.67	-67.45046	-8.19169E-010	0.0082471	6
	44	16	39.72458	21041.53	-52945.05	1	56973.02	-68.32603	4.35878E-010	0.0082444	6
	45	16	31.6723	24590.07	-64090.12	1	68645.58	-69.00921	-7.136288E-010	0.008251	6
	46	16	24.93351	29062.07	-78604.2	1	83804.67	-69.7093	-3.713502E-011	0.0082526	6
	47	17	19.86229	34957.16	-94779.03	1	101020.1	-69.75462	-1.399602E-010	0.0082477	6
	48	17	15.83615	41756.02	-114775.1	1	122134.8	-70.00826	8.564581E-010	0.0082452	5
	49	17	12.40079	52011.9	-138911.6	1	148329.6	-69.47288	5.370425E-010	0.0082459	5
	50	18	9.93114	64050.96	-164908.7	1	176910.7	-68.7737	2.796363E-010	0.0082509	5
	51	18	7.944915	78471.95	-196565.7	1	211650.5	-68.23738	-3.498717E-010	0.008249	5
	52	19	6.317385	96678.9	-232233.6	1	251553.7	-67.39802	1.141952E-010	0.008242	5
	53	20	5.008013	119310.7	-275134.6	1	299890.2	-66.55628	2.519926E-010	0.0082459	5
	54	21	3.945707	147217.4	-325208.7	1	356978.5	-65.6444	1.035435E-010	0.0082487	5
	55	22	3.158693	178719.3	-379584.1	1	419552.9	-64.78757	-1.62204E-010	0.0082434	5
	56	24	2.504006	217165.4	-443388.9	1	493715.1	-63.90506	6.243239E-011	0.0082385	5
	57	25	1.998082	258886.3	-514752.3	1	576187.5	-63.30063	5.248437E-011	0.0082621	5
	58	27	1.584686	310262.7	-598725.4	1	674340.5	-62.60657	-4.571419E-011	0.0082138	5
	59	29	1.266892	366220.9	-695409.6	1	785946.8	-62.22753	-5.260469E-011	0.0081989	5
	60	31	0.999041	432860.5	-815159.4	1	922958.9	-62.0311	-5.943379E-011	0.0082129	5
