EXPLAIN
TAG	EISPOT
TITLE	LABEL	Potentiostatic EIS	Test &Identifier
DATE	LABEL	10/8/2019	Date
TIME	LABEL	8:04:28	Time
NOTES	NOTES	2	&Notes...
	
	
PSTAT	PSTAT	REF600-11020	Potentiostat
VDC	POTEN	0.00000E+000	T	DC &Voltage (V)
FREQINIT	QUANT	1.00000E+006	Initial Fre&q. (Hz)
FREQFINAL	QUANT	1.00000E+000	Final Fre&q. (Hz)
PTSPERDEC	QUANT	1.00000E+001	Points/&decade
VAC	QUANT	2.50000E+001	AC &Voltage (mV rms)
AREA	QUANT	1.00000E-002	&Area (cm^2)
CONDIT	TWOPARAM	T	5.00000E+000	0.00000E+000	Conditionin&g	Time(s)	E(V)
DELAY	TWOPARAM	T	5.00000E+000	0.00000E+000	Init. De&lay	Time(s)	Stab.(mV/s)
SPEED	SELECTOR	1	&Optimize for:
ZGUESS	QUANT	1.00000E+004	E&stimated Z (ohms)
OCVCURVE	TABLE	19
	Pt	T	Vf	Vm	Ach	Over
	#	s	V vs. Ref.	V	V	bits
	0	0.258333	3.97733E-003	3.97733E-003	5.61932E-004	...........
	1	0.516667	3.97437E-003	3.82254E-003	5.58432E-004	...........
	2	0.775	3.95676E-003	3.70471E-003	5.59666E-004	...........
	3	1.03333	3.90956E-003	3.63171E-003	5.61966E-004	...........
	4	1.29167	3.83167E-003	3.54441E-003	5.65632E-004	...........
	5	1.55	3.73837E-003	3.48164E-003	5.62732E-004	...........
	6	1.80833	3.64628E-003	3.42287E-003	5.61099E-004	...........
	7	2.06667	3.56411E-003	3.38140E-003	5.66632E-004	...........
	8	2.325	3.49451E-003	3.35018E-003	5.67099E-004	...........
	9	2.58333	3.43772E-003	3.33065E-003	5.61099E-004	...........
	10	2.84167	3.39309E-003	3.30509E-003	5.55566E-004	...........
	11	3.1	3.35866E-003	3.28357E-003	5.62766E-004	...........
	12	3.35833	3.33149E-003	3.27917E-003	5.58699E-004	...........
	13	3.61667	3.30989E-003	3.28431E-003	5.65732E-004	...........
	14	3.875	3.29407E-003	3.26085E-003	5.57299E-004	...........
	15	4.13333	3.28311E-003	3.24975E-003	5.60866E-004	...........
	16	4.39167	3.27384E-003	3.24651E-003	5.62166E-004	...........
	17	4.65	3.26436E-003	3.24374E-003	5.57899E-004	...........
	18	4.90833	3.25531E-003	3.22693E-003	5.64899E-004	...........
EOC	QUANT	0.0032553	Open Circuit (V)
PSTATMODEL	IQUANT	4	Pstat Model
PSTATSECTION	LABEL	REF600-11020	Pstat Section
PSTATSERIALNO	LABEL	11020	Pstat Serial Number
CTRLMODE	IQUANT	1	Control Mode
IESTAB	IQUANT	0	I/E Stability
CASPEED	IQUANT	1	Control Amp Speed
CONVENTION	IQUANT	1	Current Convention
ICHRANGE	IQUANT	2	Ich Range
ICHRANGEMODE	TOGGLE	F	Ich Auto Range
ICHOFFSETENABLE	TOGGLE	T	Ich Offset Enable
ICHOFFSET	QUANT	0	Ich Offset (V)
ICHFILTER	IQUANT	3	Ich Filter
VCHRANGE	IQUANT	2	Vch Range
VCHRANGEMODE	TOGGLE	F	Vch Auto Range
VCHOFFSETENABLE	TOGGLE	T	Vch Offset Enable
VCHOFFSET	QUANT	0	Vch Offset (V)
VCHFILTER	IQUANT	3	Vch Filter
ACHRANGE	IQUANT	2	Ach Range
ACHOFFSETENABLE	TOGGLE	F	Ach Offset Enable
ACHOFFSET	QUANT	0	Ach Offset (V)
ACHFILTER	IQUANT	3	Ach Filter
IERANGELOWERLIMIT	IQUANT	1	I/E Range Lower Limit
IERANGEMODE	TOGGLE	F	I/E AutoRange
IERANGE	IQUANT	5	I/E Range
POSFEEDENABLE	TOGGLE	F	Positive Feedback IR Comp
POSFEEDRESISTANCE	QUANT	0	Positive Feedback Resistance (ohm)
ACHSELECT	IQUANT	0	Ach Select
CABLEID	IQUANT	14	Cable ID
DCCALDATE	LABEL	8/19/2019	DC Calibration Date
ACCALDATE	LABEL	8/19/2019	AC Calibration Date
THERMOSELECT	IQUANT	1	Thermo Select
FRAMEWORKVERSION	QUANT	6.33	Framework Version
INSTRUMENTVERSION	LABEL	3.50	Instrument Version
ZCURVE	TABLE
	Pt	Time	Freq	Zreal	Zimag	Zsig	Zmod	Zphz	Idc	Vdc	IERange
	#	s	Hz	ohm	ohm	V	ohm	°	A	V	#
	0	1	1000078	1830.885	-590.9207	1	1923.883	-17.88756	6.650611E-007	0.0052745	8
	1	3	794390.6	1908.233	-517.1788	1	1977.076	-15.1643	2.730922E-006	0.0045818	8
	2	4	630984.4	1966.775	-444.4177	1	2016.361	-12.73287	-1.281368E-006	0.0051257	8
	3	5	501234.4	2011.054	-382.9668	1	2047.194	-10.78179	-2.597748E-006	0.0055167	8
	4	7	398109.4	2046.535	-335.9798	1	2073.93	-9.323091	-4.079247E-006	0.005903	8
	5	8	316265.6	2075.918	-296.7294	1	2097.018	-8.134689	2.949591E-007	0.0049275	8
	6	9	251203.1	2103.096	-262.747	1	2119.445	-7.121263	-2.601498E-006	0.005367	8
	7	11	199546.9	2122.669	-243.8556	1	2136.631	-6.553499	-7.85268E-007	0.005137	8
	8	12	158578.1	2143.345	-227.6133	1	2155.397	-6.061826	2.857581E-006	0.0042695	8
	9	13	125953.1	2176.329	-196.7233	1	2185.202	-5.165059	-6.976853E-007	0.006619	7
	10	15	100078.1	2189.19	-188.1718	1	2197.262	-4.912783	-3.823447E-008	0.0048357	7
	11	16	79453.13	2207.596	-196.2105	1	2216.299	-5.079085	1.194511E-007	0.0046218	7
	12	17	63140.62	2228.046	-207.7978	1	2237.715	-5.328254	1.215091E-007	0.0046158	7
	13	19	50203.12	2250.975	-222.8411	1	2261.979	-5.653721	-3.054741E-008	0.0048138	7
	14	20	39890.62	2275.537	-242.3611	1	2288.407	-6.079496	-5.210042E-008	0.004945	7
	15	22	31640.63	2302.244	-265.1662	1	2317.464	-6.57022	-8.25688E-009	0.0048441	7
	16	23	25171.88	2330.875	-292.9968	1	2349.218	-7.164644	-1.143077E-008	0.0048386	7
	17	24	20015.62	2362.285	-326.4905	1	2384.74	-7.868977	6.969755E-008	0.0046594	7
	18	26	15890.62	2399.109	-366.0284	1	2426.87	-8.674636	-4.887013E-008	0.0049437	7
	19	27	12609.37	2439.251	-412.6245	1	2473.905	-9.60128	2.819818E-008	0.004779	7
	20	28	10078.13	2482.273	-465.3302	1	2525.512	-10.61751	2.710429E-008	0.0047767	7
	21	30	8015.625	2529.838	-526.1473	1	2583.972	-11.7487	1.243566E-007	0.004613	7
	22	31	6328.125	2586.198	-603.0498	1	2655.577	-13.12569	-3.524787E-008	0.0048253	7
	23	32	5015.625	2645.354	-689.8739	1	2733.829	-14.61645	1.547629E-008	0.0047309	7
	24	34	3984.375	2710.306	-794.4313	1	2824.337	-16.33665	-4.006404E-008	0.0049308	7
	25	35	3170.956	2777.121	-910.0359	1	2922.425	-18.14347	1.944807E-009	0.0048123	7
	26	37	2527.573	2849.032	-1050.45	1	3036.516	-20.23914	-4.261441E-008	0.0049359	7
	27	38	1976.103	2931.148	-1234.47	1	3180.495	-22.83868	-1.335726E-008	0.0048406	7
	28	39	1577.524	3010.441	-1440.085	1	3337.154	-25.56475	-3.399605E-008	0.0048271	7
	29	41	1265.625	3091.648	-1689.952	1	3523.383	-28.66183	-8.558221E-009	0.004756	7
	30	42	998.264	3185.165	-2020.368	1	3771.891	-32.38718	-3.29445E-008	0.0048117	7
	31	43	796.875	3282.644	-2410.806	1	4072.804	-36.29393	2.716542E-008	0.0047769	7
	32	45	627.7902	3397.66	-2926.526	1	4484.267	-40.73949	1.239467E-007	0.0046135	7
	33	46	505.5147	3525.261	-3505.905	1	4971.804	-44.84227	-3.448675E-008	0.0048143	7
	34	47	397.9953	3686.194	-4300.623	1	5664.22	-49.39912	4.809141E-009	0.0048128	7
	35	49	315.5048	3881.159	-5256.095	1	6533.753	-53.55743	5.056239E-009	0.0048172	7
	36	50	252.4038	4112.431	-6383.08	1	7593.141	-57.2075	4.488264E-009	0.0048177	7
	37	52	198.6229	4426.554	-7873.643	1	9032.643	-60.65535	5.331329E-009	0.0048166	7
	38	53	158.3615	4806.758	-9606.26	1	10741.75	-63.41764	9.999709E-010	0.0047574	6
	39	54	125.558	5303.638	-11774.5	1	12913.85	-65.75157	7.540089E-010	0.0047564	6
	40	56	100.4464	5912.524	-14316.58	1	15489.42	-67.56013	7.017763E-010	0.0047563	6
	41	57	79.00281	6769.657	-17632.41	1	18887.3	-68.99657	2.504139E-010	0.0047535	6
	42	58	63.3446	7833.009	-21313.34	1	22707.15	-69.82078	3.163946E-010	0.0047548	6
	43	60	49.86702	9107.143	-26236.14	1	27771.84	-70.85699	5.817945E-010	0.0047531	6
	44	61	39.72458	10829.24	-31728.82	1	33525.96	-71.15491	4.837346E-010	0.0047515	6
	45	63	31.6723	12953.6	-38374.61	1	40501.93	-71.34756	6.126562E-010	0.0047504	6
	46	64	24.93351	15779.26	-46719.12	1	49311.88	-71.33774	-6.055321E-011	0.0047472	6
	47	65	19.86229	19139.41	-56230.23	1	59398.28	-71.20267	5.337398E-010	0.0047457	6
	48	67	15.83615	23288.63	-67353.14	1	71265.74	-70.9262	7.229232E-010	0.0047482	6
	49	68	12.40079	29248.93	-81899.96	1	86966.1	-70.34683	-8.115026E-010	0.0047557	6
	50	70	9.93114	35300.38	-97463.4	1	103659.2	-70.09007	5.466116E-010	0.0047505	6
	51	71	7.944915	42991.1	-115650.6	1	123382.7	-69.60826	-4.069025E-010	0.004758	5
	52	73	6.317385	52630.05	-137916.4	1	147617.3	-69.11272	3.093785E-011	0.0047481	5
	53	75	5.008013	64582.58	-164623.2	1	176838.1	-68.57965	8.848845E-011	0.0047577	5
	54	77	3.945707	79448.52	-196664.6	1	212106.2	-68.00229	-4.828353E-011	0.0047532	5
	55	80	3.158693	96675.8	-232146.9	1	251472.4	-67.39108	9.616256E-011	0.0047512	5
	56	83	2.504006	118065.4	-275431.3	1	299669.6	-66.79729	-1.962574E-010	0.0047604	5
	57	86	1.998082	143255.4	-323770.2	1	354047	-66.13252	1.198964E-010	0.0047096	5
	58	89	1.584686	173357.7	-382671.7	1	420107.8	-65.62855	-5.542058E-011	0.004736	5
	59	93	1.266892	210510.6	-448211.4	1	495185	-64.84205	1.165207E-010	0.0047073	5
	60	97	0.999041	256360.1	-528972.9	1	587820.4	-64.14343	6.071386E-012	0.0047897	5
