EXPLAIN
TAG	EISPOT
TITLE	LABEL	Potentiostatic EIS	Test &Identifier
DATE	LABEL	10/16/2019	Date
TIME	LABEL	9:44:11	Time
NOTES	NOTES	1	&Notes...
	
PSTAT	PSTAT	REF600-11020	Potentiostat
VDC	POTEN	0.00000E+000	T	DC &Voltage (V)
FREQINIT	QUANT	1.00000E+006	Initial Fre&q. (Hz)
FREQFINAL	QUANT	1.00000E+000	Final Fre&q. (Hz)
PTSPERDEC	QUANT	1.00000E+001	Points/&decade
VAC	QUANT	2.50000E+001	AC &Voltage (mV rms)
AREA	QUANT	1.00000E-002	&Area (cm^2)
CONDIT	TWOPARAM	T	5.00000E+000	0.00000E+000	Conditionin&g	Time(s)	E(V)
DELAY	TWOPARAM	T	5.00000E+000	0.00000E+000	Init. De&lay	Time(s)	Stab.(mV/s)
SPEED	SELECTOR	0	&Optimize for:
ZGUESS	QUANT	1.00000E+005	E&stimated Z (ohms)
OCVCURVE	TABLE	19
	Pt	T	Vf	Vm	Ach	Over
	#	s	V vs. Ref.	V	V	bits
	0	0.258333	7.55198E-003	7.55198E-003	5.53933E-004	...........
	1	0.516667	7.55299E-003	7.60495E-003	5.50066E-004	...........
	2	0.775	7.55943E-003	7.66710E-003	5.51899E-004	...........
	3	1.03333	7.57851E-003	7.73155E-003	5.58832E-004	...........
	4	1.29167	7.61489E-003	7.81347E-003	5.54499E-004	...........
	5	1.55	7.66786E-003	7.89342E-003	5.47999E-004	...........
	6	1.80833	7.73347E-003	7.96463E-003	5.50266E-004	...........
	7	2.06667	7.80687E-003	8.05107E-003	5.51933E-004	...........
	8	2.325	7.88399E-003	8.12542E-003	5.49899E-004	...........
	9	2.58333	7.96232E-003	8.19401E-003	5.51866E-004	...........
	10	2.84167	8.03697E-003	8.10665E-003	5.51299E-004	...........
	11	3.1	8.07631E-003	7.10886E-003	5.50866E-004	...........
	12	3.35833	7.94467E-003	3.84402E-003	5.53799E-004	...........
	13	3.61667	7.39710E-003	3.46972E-003	5.54666E-004	...........
	14	3.875	6.37763E-003	4.66962E-003	5.53466E-004	...........
	15	4.13333	5.28020E-003	4.90134E-003	5.52399E-004	...........
	16	4.39167	4.61632E-003	5.34426E-003	5.47833E-004	...........
	17	4.65	4.52799E-003	5.86702E-003	5.52766E-004	...........
	18	4.90833	4.82490E-003	6.35351E-003	5.61099E-004	...........
EOC	QUANT	0.0048249	Open Circuit (V)
PSTATMODEL	IQUANT	4	Pstat Model
PSTATSECTION	LABEL	REF600-11020	Pstat Section
PSTATSERIALNO	LABEL	11020	Pstat Serial Number
CTRLMODE	IQUANT	1	Control Mode
IESTAB	IQUANT	0	I/E Stability
CASPEED	IQUANT	1	Control Amp Speed
CONVENTION	IQUANT	1	Current Convention
ICHRANGE	IQUANT	2	Ich Range
ICHRANGEMODE	TOGGLE	F	Ich Auto Range
ICHOFFSETENABLE	TOGGLE	T	Ich Offset Enable
ICHOFFSET	QUANT	0	Ich Offset (V)
ICHFILTER	IQUANT	3	Ich Filter
VCHRANGE	IQUANT	2	Vch Range
VCHRANGEMODE	TOGGLE	F	Vch Auto Range
VCHOFFSETENABLE	TOGGLE	T	Vch Offset Enable
VCHOFFSET	QUANT	0	Vch Offset (V)
VCHFILTER	IQUANT	3	Vch Filter
ACHRANGE	IQUANT	2	Ach Range
ACHOFFSETENABLE	TOGGLE	F	Ach Offset Enable
ACHOFFSET	QUANT	0	Ach Offset (V)
ACHFILTER	IQUANT	3	Ach Filter
IERANGELOWERLIMIT	IQUANT	1	I/E Range Lower Limit
IERANGEMODE	TOGGLE	F	I/E AutoRange
IERANGE	IQUANT	4	I/E Range
POSFEEDENABLE	TOGGLE	F	Positive Feedback IR Comp
POSFEEDRESISTANCE	QUANT	0	Positive Feedback Resistance (ohm)
ACHSELECT	IQUANT	0	Ach Select
CABLEID	IQUANT	14	Cable ID
DCCALDATE	LABEL	8/19/2019	DC Calibration Date
ACCALDATE	LABEL	8/19/2019	AC Calibration Date
THERMOSELECT	IQUANT	1	Thermo Select
FRAMEWORKVERSION	QUANT	6.33	Framework Version
INSTRUMENTVERSION	LABEL	3.50	Instrument Version
ZCURVE	TABLE
	Pt	Time	Freq	Zreal	Zimag	Zsig	Zmod	Zphz	Idc	Vdc	IERange
	#	s	Hz	ohm	ohm	V	ohm	°	A	V	#
	0	1	1000078	2424.017	-1867.046	1	3059.693	-37.60448	1.256118E-006	0.0066686	8
	1	1	794390.6	2793.761	-1843.679	1	3347.276	-33.42191	9.679616E-007	0.0064225	8
	2	1	630984.4	3142.302	-1777.846	1	3610.374	-29.50024	1.190411E-006	0.0062658	8
	3	2	501234.4	3464.593	-1684	1	3852.176	-25.92253	-5.734396E-007	0.0064753	8
	4	2	398109.4	3741.448	-1540.538	1	4046.194	-22.37938	2.877597E-006	0.0058801	8
	5	2	316265.6	3966.067	-1406.418	1	4208.051	-19.52516	-2.131891E-006	0.0067703	8
	6	3	251203.1	4156.369	-1257.379	1	4342.396	-16.83155	3.222595E-007	0.006363	8
	7	3	199546.9	4312.904	-1120.475	1	4456.076	-14.56327	6.46253E-007	0.0063402	8
	8	3	158578.1	4446.423	-1012.946	1	4560.344	-12.83361	-3.567469E-007	0.0063754	8
	9	4	125953.1	4600.476	-834.2242	1	4675.501	-10.27801	1.820042E-007	0.0061693	7
	10	4	100078.1	4665.902	-758.6795	1	4727.181	-9.235514	3.741368E-008	0.0062784	7
	11	4	79453.13	4735.617	-705.1677	1	4787.831	-8.469523	-5.464572E-008	0.0064188	7
	12	5	63140.62	4800.468	-668.663	1	4846.813	-7.929777	7.139243E-009	0.006255	7
	13	5	50203.12	4860.288	-645.313	1	4902.94	-7.563075	-5.496922E-008	0.0064116	7
	14	5	39890.62	4919.795	-638.5242	1	4961.059	-7.394896	-2.266013E-008	0.0063589	7
	15	6	31640.63	4976.125	-646.6799	1	5017.969	-7.404463	-5.950888E-008	0.0064171	7
	16	6	25171.88	5034.426	-671.0997	1	5078.958	-7.592887	3.719022E-008	0.006268	7
	17	6	20015.62	5100.258	-709.2499	1	5149.336	-7.916869	6.511122E-008	0.0061765	7
	18	7	15890.62	5160.813	-766.0169	1	5217.353	-8.442743	-1.963003E-008	0.006353	7
	19	7	12609.37	5234.583	-839.8796	1	5301.534	-9.115315	-1.180628E-009	0.0062866	7
	20	7	10078.13	5312.354	-929.0942	1	5392.988	-9.9203	1.016334E-007	0.0061623	7
	21	8	8015.625	5383.658	-1045.494	1	5484.234	-10.98992	-1.512473E-008	0.0062881	7
	22	8	6328.125	5493.463	-1187.402	1	5620.326	-12.19675	-2.911412E-008	0.0063099	7
	23	8	5015.625	5598.059	-1353.184	1	5759.285	-13.58909	-2.223822E-008	0.0063535	7
	24	8	3984.375	5702.875	-1518.825	1	5901.662	-14.9132	5.24001E-008	0.0062241	7
	25	9	3170.956	5847.22	-1788.929	1	6114.757	-17.01124	3.492585E-008	0.0061974	7
	26	9	2527.573	5988.465	-2072.431	1	6336.93	-19.08923	-1.849365E-008	0.0063427	7
	27	10	1976.103	6158.98	-2441.698	1	6625.325	-21.62562	-4.213434E-009	0.0063424	7
	28	10	1577.524	6292.971	-2899.789	1	6928.943	-24.74016	7.490683E-009	0.0062454	7
	29	10	1265.625	6531.522	-3318.542	1	7326.221	-26.93426	6.532278E-008	0.006166	7
	30	11	998.264	6758.617	-3945.806	1	7826.129	-30.27718	1.008854E-007	0.0061531	7
	31	11	796.875	6992.499	-4653.937	1	8399.653	-33.6462	-1.670357E-008	0.0062827	7
	32	11	627.7902	7284.417	-5578.936	1	9175.36	-37.44752	3.789952E-008	0.0062503	7
	33	12	505.5147	7574.466	-6599.591	1	10046.25	-41.06546	1.230588E-008	0.0060075	6
	34	12	397.9953	7936.525	-7985.963	1	11258.95	-45.17789	5.378237E-010	0.0062652	6
	35	12	315.5048	8341.652	-9646.87	1	12753.25	-49.15003	3.304521E-010	0.0062614	6
	36	13	252.4038	8791.093	-11608.22	1	14561.39	-52.86277	-1.762635E-010	0.0062563	6
	37	13	198.6229	9365.877	-14204.32	1	17014.18	-56.60041	2.249507E-010	0.0062611	6
	38	13	158.3615	10019.84	-17237.4	1	19938.03	-59.83121	1.610711E-010	0.006255	6
	39	14	125.558	10861.4	-21067.08	1	23702.15	-62.72606	5.894145E-010	0.0062594	6
	40	14	100.4464	11866.62	-25627.02	1	28241.12	-65.15346	5.655668E-011	0.0062614	6
	41	14	79.00281	13193.97	-31578.35	1	34223.86	-67.32401	-1.421283E-010	0.0062543	6
	42	15	63.3446	14696.07	-37885.05	1	40635.59	-68.79813	4.985802E-010	0.0062546	6
	43	15	49.86702	17228.43	-46822.73	1	49891.75	-69.7989	-4.155989E-010	0.0062572	6
	44	15	39.72458	20325.24	-57435.33	1	60925.63	-70.51212	2.233468E-010	0.0062623	6
	45	16	31.6723	24576.4	-69957.18	1	74148.55	-70.6433	-6.852299E-010	0.006261	6
	46	16	24.93351	30053.73	-85252.62	1	90394.89	-70.58114	4.05609E-010	0.0062586	6
	47	16	19.86229	37037	-102835.5	1	109301.8	-70.19312	-4.599549E-011	0.0062645	5
	48	17	15.83615	46050.29	-122875.8	1	131221.5	-69.45545	6.408417E-011	0.0062635	5
	49	17	12.40079	59948.63	-150098.3	1	161627.2	-68.22845	-2.416077E-010	0.006269	5
	50	17	9.93114	75132.2	-176162.1	1	191514.8	-66.90202	8.58954E-010	0.0062651	5
	51	18	7.944915	95055.7	-206029.8	1	226900.6	-65.23288	8.376727E-010	0.0062686	5
	52	18	6.317385	120868.6	-241077.2	1	269680.3	-63.37223	3.17205E-010	0.0062541	5
	53	19	5.008013	152094.4	-278820.9	1	317606.4	-61.38792	2.195125E-010	0.0062715	5
	54	20	3.945707	190095.5	-320505.5	1	372639.4	-59.32733	-1.6278E-010	0.0062642	5
	55	22	3.158693	231236.7	-361444	1	429082.9	-57.39059	-2.405804E-010	0.0062486	5
	56	23	2.504006	279337	-406715.4	1	493403.1	-55.51825	6.853957E-011	0.0062571	5
	57	25	1.998082	328426.7	-452779.5	1	559350.9	-54.04449	-7.211937E-011	0.0062491	5
	58	26	1.584686	384813.1	-504920.3	1	634843	-52.68801	-2.328277E-010	0.0062093	5
	59	28	1.266892	440210.8	-562555.3	1	714320.6	-51.95611	-2.33874E-010	0.0062201	5
	60	31	0.999041	501434.1	-632028.4	1	806781.3	-51.57248	-2.23002E-010	0.0062419	5
