EXPLAIN
TAG	EISPOT
TITLE	LABEL	Potentiostatic IDE	Test &Identifier
DATE	LABEL	9/18/2019	Date
TIME	LABEL	9:16:12	Time
NOTES	NOTES	1	&Notes...
	
PSTAT	PSTAT	REF600-11020	Potentiostat
VDC	POTEN	0.00000E+000	T	DC &Voltage (V)
FREQINIT	QUANT	1.00000E+006	Initial Fre&q. (Hz)
FREQFINAL	QUANT	1.00000E+000	Final Fre&q. (Hz)
PTSPERDEC	QUANT	1.00000E+001	Points/&decade
VAC	QUANT	2.50000E+001	AC &Voltage (mV rms)
AREA	QUANT	1.00000E-002	&Area (cm^2)
CONDIT	TWOPARAM	T	5.00000E+000	0.00000E+000	Conditionin&g	Time(s)	E(V)
DELAY	TWOPARAM	T	5.00000E+000	0.00000E+000	Init. De&lay	Time(s)	Stab.(mV/s)
SPEED	SELECTOR	1	&Optimize for:
ZGUESS	QUANT	1.00000E+007	E&stimated Z (ohms)
OCVCURVE	TABLE	19
	Pt	T	Vf	Vm	Ach	Over
	#	s	V vs. Ref.	V	V	bits
	0	0.258333	2.48816E-003	2.48816E-003	5.42966E-004	...........
	1	0.516667	2.48100E-003	2.11357E-003	5.48299E-004	...........
	2	0.775	2.43748E-003	1.78020E-003	5.51599E-004	...........
	3	1.03333	2.31609E-003	1.47960E-003	5.43466E-004	...........
	4	1.29167	2.10336E-003	1.20057E-003	5.48499E-004	...........
	5	1.55	1.82808E-003	9.40480E-004	5.54199E-004	...........
	6	1.80833	1.53238E-003	6.96135E-004	5.52066E-004	...........
	7	2.06667	1.24467E-003	4.66492E-004	5.46933E-004	...........
	8	2.325	9.75894E-004	2.56837E-004	5.46433E-004	...........
	9	2.58333	7.27434E-004	6.85099E-005	5.60632E-004	...........
	10	2.84167	4.98117E-004	-1.15543E-004	5.56499E-004	...........
	11	3.1	2.85855E-004	-3.13306E-004	5.43633E-004	...........
	12	3.35833	8.64027E-005	-4.93210E-004	5.48733E-004	...........
	13	3.61667	-1.04907E-004	-6.44975E-004	5.63399E-004	...........
	14	3.875	-2.88879E-004	-7.88142E-004	5.54433E-004	...........
	15	4.13333	-4.62538E-004	-9.31196E-004	5.50599E-004	...........
	16	4.39167	-6.23968E-004	-1.07012E-003	5.50733E-004	...........
	17	4.65	-7.74731E-004	-1.19974E-003	5.52133E-004	...........
	18	4.90833	-9.17698E-004	-1.32709E-003	5.44966E-004	...........
EOC	QUANT	-0.0009177	Open Circuit (V)
PSTATMODEL	IQUANT	4	Pstat Model
PSTATSECTION	LABEL	REF600-11020	Pstat Section
PSTATSERIALNO	LABEL	11020	Pstat Serial Number
CTRLMODE	IQUANT	1	Control Mode
IESTAB	IQUANT	0	I/E Stability
CASPEED	IQUANT	1	Control Amp Speed
CONVENTION	IQUANT	1	Current Convention
ICHRANGE	IQUANT	2	Ich Range
ICHRANGEMODE	TOGGLE	F	Ich Auto Range
ICHOFFSETENABLE	TOGGLE	T	Ich Offset Enable
ICHOFFSET	QUANT	0	Ich Offset (V)
ICHFILTER	IQUANT	3	Ich Filter
VCHRANGE	IQUANT	2	Vch Range
VCHRANGEMODE	TOGGLE	F	Vch Auto Range
VCHOFFSETENABLE	TOGGLE	T	Vch Offset Enable
VCHOFFSET	QUANT	0	Vch Offset (V)
VCHFILTER	IQUANT	3	Vch Filter
ACHRANGE	IQUANT	2	Ach Range
ACHOFFSETENABLE	TOGGLE	F	Ach Offset Enable
ACHOFFSET	QUANT	0	Ach Offset (V)
ACHFILTER	IQUANT	3	Ach Filter
IERANGELOWERLIMIT	IQUANT	1	I/E Range Lower Limit
IERANGEMODE	TOGGLE	F	I/E AutoRange
IERANGE	IQUANT	2	I/E Range
POSFEEDENABLE	TOGGLE	F	Positive Feedback IR Comp
POSFEEDRESISTANCE	QUANT	0	Positive Feedback Resistance (ohm)
ACHSELECT	IQUANT	0	Ach Select
CABLEID	IQUANT	14	Cable ID
DCCALDATE	LABEL	8/19/2019	DC Calibration Date
ACCALDATE	LABEL	8/19/2019	AC Calibration Date
THERMOSELECT	IQUANT	1	Thermo Select
FRAMEWORKVERSION	QUANT	6.33	Framework Version
INSTRUMENTVERSION	LABEL	3.50	Instrument Version
ZCURVE	TABLE
	Pt	Time	Freq	Zreal	Zimag	Zsig	Zmod	Zphz	Idc	Vdc	IERange
	#	s	Hz	ohm	ohm	V	ohm	°	A	V	#
	0	2	1000078	2347.385	-2083.858	1	3138.898	-41.59662	1.103738E-006	0.0009657	8
	1	3	794390.6	2777.312	-2060.924	1	3458.449	-36.57753	-5.28274E-007	0.0008297	8
	2	4	630984.4	3198.698	-1957.935	1	3750.357	-31.47096	-1.925673E-006	0.0012337	8
	3	6	501234.4	3550.76	-1799.791	1	3980.848	-26.87931	-1.61964E-006	0.001113	8
	4	7	398109.4	3859.301	-1626.713	1	4188.126	-22.85565	-1.692342E-006	0.0010559	8
	5	8	316265.6	4083.964	-1426.581	1	4325.956	-19.25497	-5.194714E-007	0.0008189	8
	6	10	251203.1	4249.503	-1256.124	1	4431.267	-16.46732	-9.666064E-007	0.0008678	8
	7	11	199546.9	4383.992	-1088.437	1	4517.088	-13.9432	-7.170133E-007	0.0007067	8
	8	12	158578.1	4491.987	-955.937	1	4592.577	-12.01386	-9.37557E-007	0.0008669	8
	9	14	125953.1	4594.382	-802.5776	1	4663.956	-9.90883	5.13433E-007	-0.0004963	7
	10	15	100078.1	4654.898	-726.59	1	4711.265	-8.871794	-1.309789E-008	0.0005332	7
	11	16	79453.13	4712.603	-673.7031	1	4760.515	-8.135752	-4.034066E-008	0.0006036	7
	12	18	63140.62	4766.408	-640.2562	1	4809.218	-7.650561	3.630975E-009	0.0005934	7
	13	19	50203.12	4818.066	-624.3852	1	4858.355	-7.383951	-1.277442E-008	0.0005187	7
	14	20	39890.62	4866.445	-630.8104	1	4907.159	-7.385753	5.715615E-009	0.0005957	7
	15	22	31640.63	4923.199	-641.9096	1	4964.871	-7.428584	-3.268335E-008	0.0005697	7
	16	23	25171.88	4979.662	-674.4332	1	5025.126	-7.713068	5.523018E-008	0.0004403	7
	17	24	20015.62	5039.591	-723.9844	1	5091.329	-8.17514	-3.304279E-008	0.0005657	7
	18	26	15890.62	5103.496	-788.3188	1	5164.021	-8.780877	3.52337E-008	0.0004738	7
	19	27	12609.37	5175.106	-873.3881	1	5248.289	-9.57938	4.563509E-008	0.000437	7
	20	28	10078.13	5248.993	-975.18	1	5338.811	-10.52465	-4.196687E-009	0.0005447	7
	21	30	8015.625	5333.69	-1101.28	1	5446.197	-11.66627	3.263713E-009	0.0004851	7
	22	31	6328.125	5430.543	-1261.399	1	5575.117	-13.0767	-6.173509E-009	0.0005623	7
	23	32	5015.625	5534.355	-1450.844	1	5721.366	-14.68966	5.749454E-008	0.0004922	7
	24	34	3984.375	5649.115	-1679.775	1	5893.568	-16.55994	2.918365E-009	0.0004792	7
	25	35	3170.956	5768.636	-1952.877	1	6090.229	-18.70268	-1.327027E-010	0.0004731	7
	26	36	2527.573	5904.338	-2281.939	1	6329.965	-21.13078	-3.70179E-009	0.0005459	7
	27	38	1976.103	6068.148	-2717.318	1	6648.777	-24.12284	4.472462E-009	0.0004702	7
	28	39	1577.524	6238.144	-3204.606	1	7013.126	-27.19008	6.522111E-009	0.0004782	7
	29	40	1265.625	6412.236	-3791.526	1	7449.325	-30.59563	1.118252E-009	0.0004745	7
	30	42	998.264	6639.478	-4546.873	1	8047.156	-34.40428	3.800684E-008	0.0004725	7
	31	43	796.875	6878.354	-5430.308	1	8763.561	-38.29031	-3.334629E-008	0.0005554	7
	32	44	627.7902	7166.534	-6583.014	1	9731.15	-42.56987	7.852008E-009	0.0005817	7
	33	46	505.5147	7470.341	-7857.732	1	10842.04	-46.44775	3.330954E-010	0.0005681	6
	34	47	397.9953	7863.699	-9584.82	1	12397.85	-50.63343	1.163951E-009	0.0004834	6
	35	48	315.5048	8308.883	-11658.4	1	14316.27	-54.52271	8.428906E-010	0.0004832	6
	36	50	252.4038	8815.488	-14101.3	1	16630.08	-57.98826	5.939497E-010	0.0004789	6
	37	51	198.6229	9470.983	-17334.62	1	19753.19	-61.34947	1.013525E-009	0.0004788	6
	38	52	158.3615	10226.85	-21111.24	1	23457.89	-64.1532	1.303616E-009	0.0004789	6
	39	54	125.558	11190.4	-25865.27	1	28182.22	-66.60467	1.18912E-009	0.000481	6
	40	55	100.4464	12335.71	-31484.07	1	33814.45	-68.60436	4.463391E-010	0.0004789	6
	41	56	79.00281	13998.51	-38900.12	1	41342.2	-70.20834	5.2879E-010	0.0004806	6
	42	58	63.3446	15692.5	-46871.28	1	49428.45	-71.48946	1.023335E-009	0.0004797	6
	43	59	49.86702	18710.07	-58575.11	1	61490.73	-72.28548	3.278537E-010	0.00048	6
	44	60	39.72458	21767.99	-71143.65	1	74399.36	-72.98734	9.282227E-010	0.0004808	6
	45	62	31.6723	26213.97	-86888.76	1	90756.98	-73.21166	1.202531E-009	0.0004821	6
	46	63	24.93351	32259.78	-106440.9	1	111222.1	-73.13916	6.682661E-010	0.000482	5
	47	64	19.86229	39965.55	-129075.6	1	135121.2	-72.79595	5.30856E-010	0.0004799	5
	48	66	15.83615	50776.65	-157312.3	1	165304.1	-72.11117	-6.946971E-010	0.0004842	5
	49	67	12.40079	65339.75	-190089.9	1	201006.1	-71.03058	1.480254E-009	0.0004796	5
	50	69	9.93114	81230.42	-228231.7	1	242256.3	-70.40874	6.41342E-010	0.0004781	5
	51	70	7.944915	102970.8	-270039.7	1	289006	-69.12728	1.026711E-009	0.0004822	5
	52	72	6.317385	132844.7	-322364.1	1	348663.6	-67.60368	6.060779E-010	0.0004829	5
	53	74	5.008013	171280.6	-381517.6	1	418201.8	-65.82252	4.180598E-010	0.0004901	5
	54	76	3.945707	221377.2	-448152.6	1	499848.6	-63.71167	1.789221E-010	0.0004841	5
	55	79	3.158693	278716.9	-515375.7	1	585914	-61.59533	7.795452E-011	0.0004707	5
	56	82	2.504006	350672.3	-589507.6	1	685922.9	-59.25343	5.750319E-010	0.0004854	5
	57	85	1.998082	432917.4	-663423.1	1	792179	-56.8735	3.160084E-010	0.0005222	5
	58	88	1.584686	524758.9	-741229.9	1	908181.5	-54.70315	3.731438E-010	0.0004961	5
	59	92	1.266892	626658.1	-818001.1	1	1030449	-52.54483	6.758097E-011	0.0005202	4
	60	96	0.999041	735806.2	-902003	1	1164053	-50.79426	2.821924E-010	0.0004501	4
