EXPLAIN
TAG	EISPOT
TITLE	LABEL	Potentiostatic EIS	Test &Identifier
DATE	LABEL	10/20/2019	Date
TIME	LABEL	9:52:47	Time
NOTES	NOTES	1	&Notes...
	
PSTAT	PSTAT	REF600-11020	Potentiostat
VDC	POTEN	0.00000E+000	T	DC &Voltage (V)
FREQINIT	QUANT	1.00000E+006	Initial Fre&q. (Hz)
FREQFINAL	QUANT	1.00000E+000	Final Fre&q. (Hz)
PTSPERDEC	QUANT	1.00000E+001	Points/&decade
VAC	QUANT	2.50000E+001	AC &Voltage (mV rms)
AREA	QUANT	1.00000E-002	&Area (cm^2)
CONDIT	TWOPARAM	T	5.00000E+000	0.00000E+000	Conditionin&g	Time(s)	E(V)
DELAY	TWOPARAM	T	5.00000E+000	0.00000E+000	Init. De&lay	Time(s)	Stab.(mV/s)
SPEED	SELECTOR	1	&Optimize for:
ZGUESS	QUANT	1.00000E+005	E&stimated Z (ohms)
OCVCURVE	TABLE	19
	Pt	T	Vf	Vm	Ach	Over
	#	s	V vs. Ref.	V	V	bits
	0	0.258333	3.14445E-003	3.14445E-003	5.42366E-004	...........
	1	0.516667	3.13575E-003	2.68914E-003	5.46266E-004	...........
	2	0.775	3.08577E-003	2.43703E-003	5.51433E-004	...........
	3	1.03333	2.95361E-003	2.08247E-003	5.48033E-004	...........
	4	1.29167	2.72767E-003	1.62794E-003	5.47299E-004	...........
	5	1.55	2.42584E-003	1.27502E-003	5.51666E-004	...........
	6	1.80833	2.07546E-003	1.02421E-003	5.51033E-004	...........
	7	2.06667	1.71236E-003	8.03725E-004	5.48833E-004	...........
	8	2.325	1.37459E-003	5.97207E-004	5.51899E-004	...........
	9	2.58333	1.08251E-003	3.81661E-004	5.50999E-004	...........
	10	2.84167	8.33240E-004	2.13017E-004	5.51866E-004	...........
	11	3.1	6.14927E-004	8.54136E-005	5.53233E-004	...........
	12	3.35833	4.19745E-004	-1.17695E-004	5.53633E-004	...........
	13	3.61667	2.40919E-004	-3.17249E-004	5.45599E-004	...........
	14	3.875	6.90454E-005	-3.92860E-004	5.51699E-004	...........
	15	4.13333	-9.64418E-005	-4.43755E-004	5.54233E-004	...........
	16	4.39167	-2.44155E-004	-6.31597E-004	5.51699E-004	...........
	17	4.65	-3.71394E-004	-7.84280E-004	5.48866E-004	...........
	18	4.90833	-4.91911E-004	-8.47951E-004	5.49966E-004	...........
EOC	QUANT	-0.0004919	Open Circuit (V)
PSTATMODEL	IQUANT	4	Pstat Model
PSTATSECTION	LABEL	REF600-11020	Pstat Section
PSTATSERIALNO	LABEL	11020	Pstat Serial Number
CTRLMODE	IQUANT	1	Control Mode
IESTAB	IQUANT	0	I/E Stability
CASPEED	IQUANT	1	Control Amp Speed
CONVENTION	IQUANT	1	Current Convention
ICHRANGE	IQUANT	2	Ich Range
ICHRANGEMODE	TOGGLE	F	Ich Auto Range
ICHOFFSETENABLE	TOGGLE	T	Ich Offset Enable
ICHOFFSET	QUANT	0	Ich Offset (V)
ICHFILTER	IQUANT	3	Ich Filter
VCHRANGE	IQUANT	2	Vch Range
VCHRANGEMODE	TOGGLE	F	Vch Auto Range
VCHOFFSETENABLE	TOGGLE	T	Vch Offset Enable
VCHOFFSET	QUANT	0	Vch Offset (V)
VCHFILTER	IQUANT	3	Vch Filter
ACHRANGE	IQUANT	2	Ach Range
ACHOFFSETENABLE	TOGGLE	F	Ach Offset Enable
ACHOFFSET	QUANT	0	Ach Offset (V)
ACHFILTER	IQUANT	3	Ach Filter
IERANGELOWERLIMIT	IQUANT	1	I/E Range Lower Limit
IERANGEMODE	TOGGLE	F	I/E AutoRange
IERANGE	IQUANT	3	I/E Range
POSFEEDENABLE	TOGGLE	F	Positive Feedback IR Comp
POSFEEDRESISTANCE	QUANT	0	Positive Feedback Resistance (ohm)
ACHSELECT	IQUANT	0	Ach Select
CABLEID	IQUANT	14	Cable ID
DCCALDATE	LABEL	8/19/2019	DC Calibration Date
ACCALDATE	LABEL	8/19/2019	AC Calibration Date
THERMOSELECT	IQUANT	1	Thermo Select
FRAMEWORKVERSION	QUANT	6.33	Framework Version
INSTRUMENTVERSION	LABEL	3.50	Instrument Version
ZCURVE	TABLE
	Pt	Time	Freq	Zreal	Zimag	Zsig	Zmod	Zphz	Idc	Vdc	IERange
	#	s	Hz	ohm	ohm	V	ohm	°	A	V	#
	0	2	1000078	2553.581	-1590.999	1	3008.663	-31.92481	-3.285707E-006	0.001592	8
	1	3	794390.6	2861.693	-1507.35	1	3234.407	-27.77729	7.986808E-006	-0.0001724	8
	2	5	630984.4	3122.03	-1370.478	1	3409.587	-23.70004	-1.948855E-006	0.0010868	8
	3	6	501234.4	3325.288	-1243.158	1	3550.068	-20.49825	-1.401463E-006	0.0016954	8
	4	8	398109.4	3516.133	-1090.068	1	3681.228	-17.22443	-3.592829E-006	0.0018084	8
	5	9	316265.6	3645.769	-957.208	1	3769.334	-14.71115	1.396377E-007	0.0009307	8
	6	10	251203.1	3751.01	-849.8806	1	3846.086	-12.76618	-3.582193E-006	0.0017466	8
	7	12	199546.9	3825.755	-750.6102	1	3898.695	-11.10039	-4.848849E-007	0.001263	8
	8	13	158578.1	3889.218	-681.8614	1	3948.538	-9.94409	-1.448461E-006	0.0012625	8
	9	15	125953.1	3974.959	-532.488	1	4010.467	-7.629953	4.162339E-007	0.0006455	7
	10	16	100078.1	4011.495	-526.4968	1	4045.898	-7.477164	4.788072E-008	0.0009726	7
	11	18	79453.13	4053.972	-518.1628	1	4086.953	-7.283828	1.24424E-007	0.0008833	7
	12	19	63140.62	4098.96	-522.7119	1	4132.154	-7.267308	-1.707344E-008	0.001086	7
	13	20	50203.12	4146.359	-538.5193	1	4181.184	-7.400018	4.80261E-008	0.0009649	7
	14	22	39890.62	4197.304	-566.275	1	4235.331	-7.683607	9.579666E-008	0.0008174	7
	15	23	31640.63	4252.144	-608.8104	1	4295.507	-8.148077	4.90403E-008	0.0009647	7
	16	24	25171.88	4312.688	-662.3075	1	4363.248	-8.730808	-6.826323E-008	0.0011387	7
	17	26	20015.62	4377.207	-731.8341	1	4437.964	-9.491607	-7.715509E-008	0.0011262	7
	18	27	15890.62	4456.392	-814.5324	1	4530.22	-10.3581	1.279354E-007	0.0008106	7
	19	29	12609.37	4541.305	-911.402	1	4631.858	-11.34803	-3.550564E-008	0.0010052	7
	20	30	10078.13	4635.261	-1023.582	1	4746.933	-12.4525	1.308421E-007	0.0008078	7
	21	31	8015.625	4746.851	-1161.031	1	4886.776	-13.74412	2.702165E-008	0.001087	7
	22	33	6328.125	4868.981	-1320.436	1	5044.852	-15.17329	-1.521692E-008	0.0010728	7
	23	34	5015.625	5010.631	-1502.916	1	5231.173	-16.69637	-1.228216E-008	0.0010723	7
	24	35	3984.375	5174.48	-1727.583	1	5455.253	-18.46241	-6.463774E-008	0.0011354	7
	25	37	3170.956	5345.006	-1959.393	1	5692.83	-20.13213	5.823996E-008	0.0008367	7
	26	38	2527.573	5544.344	-2240.382	1	5979.888	-22.00286	9.718432E-008	0.0008156	7
	27	40	1976.103	5787.736	-2596.315	1	6343.401	-24.16048	1.073283E-008	0.0009746	7
	28	41	1577.524	6061.279	-2998.502	1	6762.405	-26.3215	6.762299E-009	0.0009963	7
	29	42	1265.625	6324.3	-3383.456	1	7172.485	-28.14647	5.593477E-008	0.0008314	7
	30	44	998.264	6664.185	-3905.704	1	7724.37	-30.37345	2.898613E-008	0.0010797	7
	31	45	796.875	7012.789	-4476.536	1	8319.771	-32.55167	-1.499878E-008	0.0010739	7
	32	46	627.7902	7416.595	-5191.475	1	9053.026	-34.99129	7.925812E-009	0.0009957	7
	33	48	505.5147	7781.672	-5939.376	1	9789.31	-37.35275	1.987074E-008	0.000658	6
	34	49	397.9953	8200.409	-6955.181	1	10752.73	-40.30296	1.424031E-009	0.0009628	6
	35	51	315.5048	8613.078	-8172.974	1	11873.61	-43.49814	-1.035178E-010	0.0009588	6
	36	52	252.4038	9022.792	-9628.26	1	13195.24	-46.85935	1.211396E-009	0.0009575	6
	37	53	198.6229	9492.993	-11591.57	1	14982.71	-50.68402	7.521765E-010	0.0009549	6
	38	55	158.3615	9972.61	-13925.98	1	17128.51	-54.39298	1.019668E-009	0.0009553	6
	39	56	125.558	10566.94	-16909.11	1	19939.37	-57.99768	7.397903E-010	0.0009559	6
	40	57	100.4464	11211.79	-20439.65	1	23312.73	-61.25386	5.792642E-011	0.0009527	6
	41	59	79.00281	12147.61	-25321.68	1	28084.72	-64.37149	-7.664251E-010	0.0009527	6
	42	60	63.3446	12883.08	-31002	1	33572.27	-67.43436	1.290244E-009	0.0009593	6
	43	62	49.86702	14864.25	-37603.35	1	40434.61	-68.43158	-2.726118E-010	0.0009568	6
	44	63	39.72458	16599.95	-46417.82	1	49296.78	-70.32193	7.175529E-010	0.0009595	6
	45	64	31.6723	19114.01	-56613.92	1	59753.51	-71.34427	6.212535E-010	0.0009575	6
	46	66	24.93351	22298.98	-69862.27	1	73334.73	-72.29771	3.859834E-010	0.0009597	6
	47	67	19.86229	26376.14	-85119.27	1	89112.24	-72.78322	1.01202E-009	0.0009659	6
	48	69	15.83615	33217.78	-102827.7	1	108060	-72.09731	1.859036E-009	0.0009615	5
	49	70	12.40079	40421.14	-125545.8	1	131892.4	-72.15334	1.976499E-009	0.0009558	5
	50	72	9.93114	49030.85	-153041.1	1	160703.5	-72.23574	7.15082E-010	0.000954	5
	51	73	7.944915	60809.65	-182966.2	1	192806.8	-71.61554	-3.626635E-010	0.0009494	5
	52	75	6.317385	74605.29	-220250.1	1	232542.5	-71.28722	5.242882E-010	0.0009474	5
	53	77	5.008013	93114.94	-264366.5	1	280285.7	-70.59676	3.174159E-010	0.0009634	5
	54	79	3.945707	117886.1	-317128.4	1	338330.6	-69.60841	-2.983064E-010	0.0009553	5
	55	82	3.158693	144819.3	-375847.1	1	402782.4	-68.9276	1.347037E-010	0.0009699	5
	56	85	2.504006	179780.6	-446884.6	1	481691.7	-68.0852	-1.018405E-010	0.0009571	5
	57	88	1.998082	220336.7	-525740.9	1	570045.4	-67.26157	7.667706E-011	0.000924	5
	58	91	1.584686	271118.1	-618987.4	1	675759.2	-66.34646	8.775431E-011	0.000991	5
	59	95	1.266892	328283.9	-726733.5	1	797440.9	-65.6901	-5.309913E-011	0.0009308	5
	60	99	0.999041	402942.3	-856889.3	1	946901.1	-64.81529	1.365133E-010	0.0010006	5
