EXPLAIN
TAG	EISPOT
TITLE	LABEL	Potentiostatic EIS	Test &Identifier
DATE	LABEL	11/13/2019	Date
TIME	LABEL	0:04:38	Time
NOTES	NOTES	3	&Notes...
	
	
	
PSTAT	PSTAT	REF600-11020	Potentiostat
VDC	POTEN	0.00000E+000	T	DC &Voltage (V)
FREQINIT	QUANT	1.00000E+006	Initial Fre&q. (Hz)
FREQFINAL	QUANT	1.00000E+000	Final Fre&q. (Hz)
PTSPERDEC	QUANT	1.00000E+001	Points/&decade
VAC	QUANT	2.50000E+001	AC &Voltage (mV rms)
AREA	QUANT	1.00000E-002	&Area (cm^2)
CONDIT	TWOPARAM	T	5.00000E+000	0.00000E+000	Conditionin&g	Time(s)	E(V)
DELAY	TWOPARAM	T	5.00000E+000	0.00000E+000	Init. De&lay	Time(s)	Stab.(mV/s)
SPEED	SELECTOR	1	&Optimize for:
ZGUESS	QUANT	1.00000E+005	E&stimated Z (ohms)
OCVCURVE	TABLE	19
	Pt	T	Vf	Vm	Ach	Over
	#	s	V vs. Ref.	V	V	bits
	0	0.258333	4.93491E-003	4.93491E-003	5.52899E-004	...........
	1	0.516667	4.93880E-003	5.13864E-003	5.58566E-004	...........
	2	0.775	4.93887E-003	4.08440E-003	5.57632E-004	...........
	3	1.03333	4.88886E-003	4.58970E-003	5.50599E-004	...........
	4	1.29167	4.78039E-003	5.49027E-003	5.43199E-004	...........
	5	1.55	4.72840E-003	5.21077E-003	5.49033E-004	...........
	6	1.80833	4.83392E-003	5.48071E-003	5.48766E-004	...........
	7	2.06667	5.04014E-003	5.34912E-003	5.56899E-004	...........
	8	2.325	5.21035E-003	4.47863E-003	5.53233E-004	...........
	9	2.58333	5.24440E-003	5.12242E-003	5.49899E-004	...........
	10	2.84167	5.17006E-003	6.03942E-003	5.56766E-004	...........
	11	3.1	5.16575E-003	6.35761E-003	5.53133E-004	...........
	12	3.35833	5.36588E-003	5.95967E-003	5.53799E-004	...........
	13	3.61667	5.68140E-003	5.93627E-003	5.51699E-004	...........
	14	3.875	5.92513E-003	6.09247E-003	5.46666E-004	...........
	15	4.13333	6.03156E-003	6.16982E-003	5.55033E-004	...........
	16	4.39167	6.05182E-003	5.46870E-003	5.52899E-004	...........
	17	4.65	6.00245E-003	5.09973E-003	5.49499E-004	...........
	18	4.90833	5.85742E-003	5.79391E-003	5.45933E-004	...........
EOC	QUANT	0.0058574	Open Circuit (V)
PSTATMODEL	IQUANT	4	Pstat Model
PSTATSECTION	LABEL	REF600-11020	Pstat Section
PSTATSERIALNO	LABEL	11020	Pstat Serial Number
CTRLMODE	IQUANT	1	Control Mode
IESTAB	IQUANT	0	I/E Stability
CASPEED	IQUANT	1	Control Amp Speed
CONVENTION	IQUANT	1	Current Convention
ICHRANGE	IQUANT	2	Ich Range
ICHRANGEMODE	TOGGLE	F	Ich Auto Range
ICHOFFSETENABLE	TOGGLE	T	Ich Offset Enable
ICHOFFSET	QUANT	0	Ich Offset (V)
ICHFILTER	IQUANT	3	Ich Filter
VCHRANGE	IQUANT	2	Vch Range
VCHRANGEMODE	TOGGLE	F	Vch Auto Range
VCHOFFSETENABLE	TOGGLE	T	Vch Offset Enable
VCHOFFSET	QUANT	0	Vch Offset (V)
VCHFILTER	IQUANT	3	Vch Filter
ACHRANGE	IQUANT	2	Ach Range
ACHOFFSETENABLE	TOGGLE	F	Ach Offset Enable
ACHOFFSET	QUANT	0	Ach Offset (V)
ACHFILTER	IQUANT	3	Ach Filter
IERANGELOWERLIMIT	IQUANT	1	I/E Range Lower Limit
IERANGEMODE	TOGGLE	F	I/E AutoRange
IERANGE	IQUANT	5	I/E Range
POSFEEDENABLE	TOGGLE	F	Positive Feedback IR Comp
POSFEEDRESISTANCE	QUANT	0	Positive Feedback Resistance (ohm)
ACHSELECT	IQUANT	0	Ach Select
CABLEID	IQUANT	14	Cable ID
DCCALDATE	LABEL	8/19/2019	DC Calibration Date
ACCALDATE	LABEL	8/19/2019	AC Calibration Date
THERMOSELECT	IQUANT	1	Thermo Select
FRAMEWORKVERSION	QUANT	6.33	Framework Version
INSTRUMENTVERSION	LABEL	3.50	Instrument Version
ZCURVE	TABLE
	Pt	Time	Freq	Zreal	Zimag	Zsig	Zmod	Zphz	Idc	Vdc	IERange
	#	s	Hz	ohm	ohm	V	ohm	°	A	V	#
	0	1	1000078	2089.815	-1469.135	1	2554.542	-35.10712	-7.948365E-006	0.0077047	8
	1	2	794390.6	2363.06	-1438.696	1	2766.568	-31.33419	5.172711E-006	0.0070131	8
	2	4	630984.4	2620.321	-1384.147	1	2963.435	-27.84461	-2.629279E-006	0.0078946	8
	3	5	501234.4	2845.623	-1305.55	1	3130.82	-24.6453	7.303049E-006	0.0066227	8
	4	7	398109.4	3055.313	-1213.937	1	3287.641	-21.66892	-3.058325E-006	0.0072392	8
	5	8	316265.6	3233.947	-1134.425	1	3427.147	-19.33019	-1.086215E-006	0.0076953	8
	6	9	251203.1	3390.65	-1059.066	1	3552.2	-17.34614	-2.234925E-006	0.0072182	8
	7	11	199546.9	3539.282	-979.102	1	3672.214	-15.4635	-5.451947E-007	0.0070432	8
	8	12	158578.1	3665.859	-913.9638	1	3778.075	-13.99945	5.304803E-006	0.0063201	8
	9	13	125953.1	3811.651	-788.0356	1	3892.259	-11.68098	2.569334E-006	0.0056001	7
	10	15	100078.1	3902.243	-724.867	1	3968.997	-10.52312	6.950924E-007	0.0056636	7
	11	16	79453.13	3991.787	-674.8601	1	4048.432	-9.59581	5.718725E-007	0.0074387	7
	12	18	63140.62	4070.488	-630.1636	1	4118.978	-8.800258	9.863993E-007	0.0059213	7
	13	19	50203.12	4138.699	-591.7479	1	4180.789	-8.136956	5.720943E-007	0.0074311	7
	14	20	39890.62	4195.398	-560.5818	1	4232.685	-7.610682	-8.092283E-007	0.0088056	7
	15	22	31640.63	4255.829	-543.7338	1	4290.423	-7.280787	9.891918E-007	0.0059179	7
	16	23	25171.88	4307.18	-537.2946	1	4340.563	-7.11057	1.007799E-006	0.0062039	7
	17	24	20015.62	4347.239	-542.621	1	4380.973	-7.114844	-9.954115E-007	0.008755	7
	18	26	15890.62	4395.496	-561.006	1	4431.152	-7.273452	-9.95538E-007	0.0087572	7
	19	27	12609.37	4441.451	-596.6168	1	4481.344	-7.650702	3.735267E-007	0.0077213	7
	20	28	10078.13	4480.019	-642.0246	1	4525.789	-8.155441	-2.982649E-007	0.0065038	7
	21	30	8015.625	4524.566	-713.9713	1	4580.552	-8.967265	-5.535215E-007	0.008713	7
	22	31	6328.125	4574.897	-811.7105	1	4646.349	-10.06112	1.009748E-006	0.0062012	7
	23	33	5015.625	4624.17	-936.0839	1	4717.966	-11.4439	9.3896E-007	0.0065815	7
	24	34	3984.375	4668.449	-1088.729	1	4793.72	-13.12732	-2.983336E-007	0.0065026	7
	25	35	3170.956	4728.084	-1283.562	1	4899.215	-15.18837	8.951142E-008	0.0060304	7
	26	37	2527.573	4794.75	-1524.261	1	5031.202	-17.63557	-5.531152E-007	0.0087148	7
	27	38	1976.103	4877.064	-1851.169	1	5216.568	-20.78508	6.99518E-007	0.0056418	7
	28	39	1577.524	4958.517	-2221.026	1	5433.216	-24.12863	-1.118375E-006	0.00827	7
	29	41	1265.625	5062.921	-2662.705	1	5720.417	-27.7409	-6.804091E-007	0.0071407	7
	30	42	998.264	5190.756	-3252.436	1	6125.544	-32.07053	8.383698E-008	0.0081198	7
	31	44	796.875	5340.148	-3941.535	1	6637.234	-36.43084	3.76888E-007	0.0077258	7
	32	45	627.7902	5533.569	-4838.136	1	7350.371	-41.16401	9.962972E-007	0.0059002	7
	33	46	505.5147	5747.173	-5843.429	1	8196.075	-45.47581	8.941508E-007	0.0056919	7
	34	48	397.9953	6046.597	-7185.513	1	9391.108	-49.91945	1.527133E-009	0.0072891	7
	35	49	315.5048	6420.583	-8800.734	1	10893.89	-53.88735	1.242567E-009	0.0072196	6
	36	51	252.4038	6876.83	-10696.36	1	12716.24	-57.2625	1.470203E-009	0.0072137	6
	37	52	198.6229	7512.758	-13184.46	1	15174.7	-60.32468	4.554665E-010	0.0072181	6
	38	53	158.3615	8300.635	-16054.06	1	18073.01	-62.65911	7.908454E-010	0.0072194	6
	39	55	125.558	9367.292	-19610.74	1	21733.09	-64.46799	1.115006E-009	0.0072159	6
	40	56	100.4464	10729.87	-23737.25	1	26049.7	-65.67577	2.199833E-010	0.0072112	6
	41	57	79.00281	12618.28	-29058.47	1	31679.89	-66.52769	3.907496E-010	0.0072115	6
	42	59	63.3446	14762.52	-34790.8	1	37793.27	-67.00739	8.008041E-010	0.0072068	6
	43	60	49.86702	18506.82	-42021.66	1	45916.48	-66.23076	1.010359E-009	0.0072027	6
	44	62	39.72458	22590.61	-50288.56	1	55129.62	-65.80944	7.782053E-011	0.0072198	6
	45	63	31.6723	27926.25	-59632.89	1	65847.98	-64.90618	3.478904E-010	0.0072122	6
	46	64	24.93351	34986.28	-70463.18	1	78670.83	-63.59475	-8.982861E-011	0.0072176	6
	47	66	19.86229	43211.73	-81988.88	1	92679.18	-62.20881	-2.216917E-010	0.0072114	6
	48	67	15.83615	52401.59	-94578.19	1	108124.7	-61.0111	1.48828E-009	0.0072235	5
	49	69	12.40079	66080.44	-109430.3	1	127834.3	-58.87396	-1.055254E-009	0.0072273	5
	50	70	9.93114	78498.45	-124152.4	1	146887.2	-57.69587	3.773875E-010	0.0072159	5
	51	72	7.944915	92976.75	-140152.5	1	168188.6	-56.43983	-6.829309E-010	0.0072248	5
	52	73	6.317385	109364.3	-158431	1	192512.1	-55.38284	-1.022357E-010	0.0072057	5
	53	75	5.008013	127657.2	-179447.6	1	220222.2	-54.57235	-3.313868E-010	0.0072259	5
	54	78	3.945707	148286.4	-203896.2	1	252116.1	-53.97295	-1.123504E-010	0.0072117	5
	55	80	3.158693	169521.2	-230208.2	1	285890.3	-53.63273	-2.451538E-011	0.0072239	5
	56	84	2.504006	194104.9	-262191.3	1	326222.3	-53.4868	-3.253859E-010	0.0072273	5
	57	87	1.998082	220259.5	-297743.8	1	370358.8	-53.50737	2.011152E-010	0.0071791	5
	58	90	1.584686	250194.7	-341175.7	1	423081.9	-53.74625	-2.293139E-010	0.0072109	5
	59	93	1.266892	285320.4	-388741.2	1	482211	-53.72282	1.333694E-010	0.007178	5
	60	98	0.999041	324071.8	-449384	1	554047.4	-54.20286	-1.163109E-010	0.0072599	5
