EXPLAIN
TAG	EISPOT
TITLE	LABEL	Potentiostatic EIS	Test &Identifier
DATE	LABEL	11/22/2019	Date
TIME	LABEL	9:52:34	Time
NOTES	NOTES	4	&Notes...
	
	
	
	
PSTAT	PSTAT	REF600-11020	Potentiostat
VDC	POTEN	0.00000E+000	T	DC &Voltage (V)
FREQINIT	QUANT	1.00000E+006	Initial Fre&q. (Hz)
FREQFINAL	QUANT	1.00000E+000	Final Fre&q. (Hz)
PTSPERDEC	QUANT	1.00000E+001	Points/&decade
VAC	QUANT	2.50000E+001	AC &Voltage (mV rms)
AREA	QUANT	1.00000E-002	&Area (cm^2)
CONDIT	TWOPARAM	T	5.00000E+000	0.00000E+000	Conditionin&g	Time(s)	E(V)
DELAY	TWOPARAM	T	5.00000E+000	0.00000E+000	Init. De&lay	Time(s)	Stab.(mV/s)
SPEED	SELECTOR	0	&Optimize for:
ZGUESS	QUANT	1.00000E+005	E&stimated Z (ohms)
OCVCURVE	TABLE	19
	Pt	T	Vf	Vm	Ach	Over
	#	s	V vs. Ref.	V	V	bits
	0	0.258333	2.06119E-003	2.06119E-003	5.54533E-004	...........
	1	0.516667	2.05505E-003	1.73989E-003	5.48899E-004	...........
	2	0.775	2.01762E-003	1.44880E-003	5.50699E-004	...........
	3	1.03333	1.91339E-003	1.21215E-003	5.48466E-004	...........
	4	1.29167	1.73230E-003	9.93786E-004	5.55366E-004	...........
	5	1.55	1.50141E-003	7.66286E-004	5.54966E-004	...........
	6	1.80833	1.25711E-003	5.77769E-004	5.51499E-004	...........
	7	2.06667	1.02175E-003	4.00421E-004	5.58533E-004	...........
	8	2.325	8.04061E-004	2.43362E-004	5.57399E-004	...........
	9	2.58333	6.05927E-004	8.57509E-005	5.51666E-004	...........
	10	2.84167	4.25633E-004	-5.65672E-005	5.52166E-004	...........
	11	3.1	2.59671E-004	-1.97057E-004	5.57399E-004	...........
	12	3.35833	1.04606E-004	-3.29956E-004	5.56366E-004	...........
	13	3.61667	-4.18681E-005	-4.48175E-004	5.55899E-004	...........
	14	3.875	-1.80871E-004	-5.78113E-004	5.55699E-004	...........
	15	4.13333	-3.12536E-004	-6.54463E-004	5.53099E-004	...........
	16	4.39167	-4.36227E-004	-7.93455E-004	5.53799E-004	...........
	17	4.65	-5.52954E-004	-9.12904E-004	5.50433E-004	...........
	18	4.90833	-6.67074E-004	-1.02217E-003	5.49799E-004	...........
EOC	QUANT	-0.0006671	Open Circuit (V)
PSTATMODEL	IQUANT	4	Pstat Model
PSTATSECTION	LABEL	REF600-11020	Pstat Section
PSTATSERIALNO	LABEL	11020	Pstat Serial Number
CTRLMODE	IQUANT	1	Control Mode
IESTAB	IQUANT	0	I/E Stability
CASPEED	IQUANT	1	Control Amp Speed
CONVENTION	IQUANT	1	Current Convention
ICHRANGE	IQUANT	2	Ich Range
ICHRANGEMODE	TOGGLE	F	Ich Auto Range
ICHOFFSETENABLE	TOGGLE	T	Ich Offset Enable
ICHOFFSET	QUANT	0	Ich Offset (V)
ICHFILTER	IQUANT	3	Ich Filter
VCHRANGE	IQUANT	2	Vch Range
VCHRANGEMODE	TOGGLE	F	Vch Auto Range
VCHOFFSETENABLE	TOGGLE	T	Vch Offset Enable
VCHOFFSET	QUANT	0	Vch Offset (V)
VCHFILTER	IQUANT	3	Vch Filter
ACHRANGE	IQUANT	2	Ach Range
ACHOFFSETENABLE	TOGGLE	F	Ach Offset Enable
ACHOFFSET	QUANT	0	Ach Offset (V)
ACHFILTER	IQUANT	3	Ach Filter
IERANGELOWERLIMIT	IQUANT	1	I/E Range Lower Limit
IERANGEMODE	TOGGLE	F	I/E AutoRange
IERANGE	IQUANT	4	I/E Range
POSFEEDENABLE	TOGGLE	F	Positive Feedback IR Comp
POSFEEDRESISTANCE	QUANT	0	Positive Feedback Resistance (ohm)
ACHSELECT	IQUANT	0	Ach Select
CABLEID	IQUANT	14	Cable ID
DCCALDATE	LABEL	8/19/2019	DC Calibration Date
ACCALDATE	LABEL	8/19/2019	AC Calibration Date
THERMOSELECT	IQUANT	1	Thermo Select
FRAMEWORKVERSION	QUANT	6.33	Framework Version
INSTRUMENTVERSION	LABEL	3.50	Instrument Version
ZCURVE	TABLE
	Pt	Time	Freq	Zreal	Zimag	Zsig	Zmod	Zphz	Idc	Vdc	IERange
	#	s	Hz	ohm	ohm	V	ohm	°	A	V	#
	0	1	1000078	2195.125	-1159.235	1	2482.418	-27.83832	1.012374E-005	0.0003553	8
	1	1	794390.6	2397.674	-1051.874	1	2618.259	-23.68735	-3.687364E-006	0.0007161	8
	2	2	630984.4	2565.566	-932.6517	1	2729.83	-19.97756	3.204424E-006	0.0004204	8
	3	2	501234.4	2693.853	-821.1362	1	2816.222	-16.95219	3.935673E-006	0.0007982	8
	4	2	398109.4	2794.931	-703.5822	1	2882.129	-14.12977	-2.04917E-006	0.0005919	8
	5	3	316265.6	2864.943	-612.0059	1	2929.582	-12.05822	4.174816E-006	0.0007228	8
	6	3	251203.1	2913.824	-517.9051	1	2959.493	-10.07854	5.685868E-006	6.170263E-005	8
	7	3	199546.9	2960.739	-465.2719	1	2997.074	-8.930835	-4.665955E-006	0.0011439	8
	8	4	158578.1	2982.472	-429.7543	1	3013.276	-8.1995	6.840757E-006	2.359678E-005	8
	9	4	125953.1	3047.512	-324.0412	1	3064.691	-6.06944	-1.62628E-006	0.0038247	7
	10	4	100078.1	3080.976	-304.1546	1	3095.953	-5.637982	1.116129E-007	-0.0005475	7
	11	5	79453.13	3094.238	-298.9818	1	3108.649	-5.519091	1.033121E-006	-0.0003381	7
	12	5	63140.62	3118.855	-301.3503	1	3133.38	-5.518907	7.85239E-007	0.0005141	7
	13	5	50203.12	3145.308	-308.8056	1	3160.431	-5.607315	3.762067E-007	0.001217	7
	14	5	39890.62	3174.431	-323.5468	1	3190.876	-5.819649	1.035159E-006	-0.0003373	7
	15	6	31640.63	3201.537	-344.2884	1	3219.996	-6.137912	-1.161079E-006	0.0021107	7
	16	6	25171.88	3233.939	-376.3149	1	3255.761	-6.63733	1.035537E-006	-0.0003407	7
	17	6	20015.62	3269.142	-416.33	1	3295.545	-7.257633	1.037044E-006	-0.0003403	7
	18	7	15890.62	3302.864	-464.0095	1	3335.298	-7.996976	-1.156872E-006	0.0017679	7
	19	7	12609.37	3344.54	-525.3885	1	3385.555	-8.927547	-8.455301E-007	0.0023238	7
	20	7	10078.13	3390.857	-596.6676	1	3442.953	-9.97981	-1.036039E-006	0.0022704	7
	21	8	8015.625	3434.367	-682.9371	1	3501.611	-11.24677	-9.932111E-007	0.0012262	7
	22	8	6328.125	3487.021	-793.6282	1	3576.193	-12.82182	-8.438314E-007	0.0023194	7
	23	8	5015.625	3544.906	-926.3769	1	3663.951	-14.64537	-1.161014E-006	0.0021154	7
	24	9	3984.375	3605.521	-1088.68	1	3766.299	-16.80159	-1.156522E-006	0.0017672	7
	25	9	3170.956	3678.475	-1282.956	1	3895.787	-19.22744	-2.902591E-007	-7.214524E-005	7
	26	9	2527.573	3755.86	-1517.77	1	4050.94	-22.00399	-1.156582E-006	0.0017662	7
	27	10	1976.103	3852.449	-1836.447	1	4267.774	-25.48695	9.594237E-007	4.763406E-005	7
	28	10	1577.524	3965.175	-2177.065	1	4523.519	-28.76883	-8.459255E-007	0.0023225	7
	29	10	1265.625	4069.888	-2604.961	1	4832.165	-32.62157	-8.466912E-007	0.0023208	7
	30	10	998.264	4214.843	-3155.633	1	5265.256	-36.82202	-9.936258E-007	0.0012199	7
	31	11	796.875	4373.596	-3793.591	1	5789.618	-40.93787	7.909273E-007	0.0005155	7
	32	11	627.7902	4570.963	-4616.718	1	6496.752	-45.28533	-1.034933E-006	0.0022671	7
	33	11	505.5147	4769.417	-5542.415	1	7312.024	-49.28701	9.588846E-007	4.921984E-005	7
	34	12	397.9953	5039.633	-6782.965	1	8450.237	-53.38825	1.545605E-010	0.000756	7
	35	12	315.5048	5349.57	-8275.36	1	9853.91	-57.11953	1.826122E-009	0.000755	7
	36	13	252.4038	5714.841	-10038.8	1	11551.49	-60.34821	1.579773E-009	0.0006916	6
	37	13	198.6229	6194.899	-12374.5	1	13838.54	-63.40663	1.054952E-009	0.0006892	6
	38	13	158.3615	6768.683	-15096.01	1	16544.02	-65.84969	1.249607E-009	0.00069	6
	39	13	125.558	7521.889	-18516.89	1	19986.35	-67.89214	6.416901E-010	0.0006923	6
	40	14	100.4464	8475.19	-22539.82	1	24080.54	-69.39326	-3.916904E-010	0.0006934	6
	41	14	79.00281	9802.34	-27777.95	1	29456.75	-70.56298	5.972443E-011	0.0006873	6
	42	14	63.3446	11213.75	-34007.75	1	35808.87	-71.7505	6.989156E-010	0.0006875	6
	43	15	49.86702	13401.72	-41662.52	1	43764.96	-72.16841	7.021188E-010	0.000688	6
	44	15	39.72458	16413.19	-50425.52	1	53029.48	-71.97026	5.46435E-010	0.000682	6
	45	16	31.6723	20242.69	-61028.87	1	64298.44	-71.64981	-3.521973E-010	0.0006873	6
	46	16	24.93351	25153.96	-74300.76	1	78443.13	-71.29685	1.026594E-009	0.0006772	6
	47	16	19.86229	31563.27	-89417.37	1	94824.6	-70.55757	2.14205E-009	0.0006802	6
	48	16	15.83615	39709.81	-105743.5	1	112953.7	-69.41735	-7.733671E-010	0.0006897	5
	49	17	12.40079	50602	-127918.2	1	137563.2	-68.41719	1.794381E-009	0.0006903	5
	50	17	9.93114	63158.13	-151734.8	1	164354.5	-67.40096	-5.643212E-011	0.0006757	5
	51	18	7.944915	79305.55	-177238.7	1	194172.4	-65.89385	-1.369422E-010	0.0006921	5
	52	18	6.317385	98737.4	-207417	1	229719.1	-64.54399	-1.247868E-010	0.0007008	5
	53	19	5.008013	122574.6	-241480.5	1	270808.7	-63.08782	3.113518E-010	0.000699	5
	54	20	3.945707	151623.2	-280320.6	1	318699.3	-61.59139	1.340452E-010	0.000683	5
	55	21	3.158693	183335.2	-321189.6	1	369830.4	-60.28226	3.698946E-010	0.0006767	5
	56	23	2.504006	220563.8	-368325.4	1	429315.8	-59.08561	3.586324E-010	0.0006813	5
	57	24	1.998082	262090.7	-419067.8	1	494276.6	-57.97758	1.006236E-010	0.0006326	5
	58	26	1.584686	307971.7	-478358.6	1	568923.1	-57.22619	1.238287E-010	0.0006484	5
	59	28	1.266892	357943.3	-541631.1	1	649220.8	-56.54081	1.965957E-010	0.0006849	5
	60	30	0.999041	417358.3	-619892.6	1	747298.4	-56.0486	2.290223E-010	0.0007094	5
