EXPLAIN
TAG	EISPOT
TITLE	LABEL	Potentiostatic IDE	Test &Identifier
DATE	LABEL	9/14/2019	Date
TIME	LABEL	13:19:40	Time
NOTES	NOTES	1	&Notes...
	
PSTAT	PSTAT	REF600-11020	Potentiostat
VDC	POTEN	0.00000E+000	T	DC &Voltage (V)
FREQINIT	QUANT	1.00000E+006	Initial Fre&q. (Hz)
FREQFINAL	QUANT	1.00000E+000	Final Fre&q. (Hz)
PTSPERDEC	QUANT	1.00000E+001	Points/&decade
VAC	QUANT	2.50000E+001	AC &Voltage (mV rms)
AREA	QUANT	1.00000E-002	&Area (cm^2)
CONDIT	TWOPARAM	T	5.00000E+000	0.00000E+000	Conditionin&g	Time(s)	E(V)
DELAY	TWOPARAM	T	5.00000E+000	0.00000E+000	Init. De&lay	Time(s)	Stab.(mV/s)
SPEED	SELECTOR	1	&Optimize for:
ZGUESS	QUANT	1.00000E+007	E&stimated Z (ohms)
OCVCURVE	TABLE	19
	Pt	T	Vf	Vm	Ach	Over
	#	s	V vs. Ref.	V	V	bits
	0	0.258333	5.14786E-003	5.14786E-003	5.19966E-004	...........
	1	0.516667	5.14650E-003	5.07666E-003	5.09933E-004	...........
	2	0.775	5.13835E-003	5.01987E-003	5.07966E-004	...........
	3	1.03333	5.11601E-003	4.96667E-003	5.21166E-004	...........
	4	1.29167	5.07776E-003	4.93168E-003	5.15866E-004	...........
	5	1.55	5.03028E-003	4.90102E-003	5.08033E-004	...........
	6	1.80833	4.98293E-003	4.87807E-003	5.09667E-004	...........
	7	2.06667	4.94178E-003	4.85415E-003	5.16400E-004	...........
	8	2.325	4.90816E-003	4.83056E-003	5.13800E-004	...........
	9	2.58333	4.88040E-003	4.81379E-003	5.06567E-004	...........
	10	2.84167	4.85635E-003	4.79248E-003	5.19533E-004	...........
	11	3.1	4.83460E-003	4.77458E-003	5.21533E-004	...........
	12	3.35833	4.81440E-003	4.76078E-003	5.10033E-004	...........
	13	3.61667	4.79557E-003	4.74818E-003	5.05067E-004	...........
	14	3.875	4.77835E-003	4.73170E-003	5.10133E-004	...........
	15	4.13333	4.76262E-003	4.71575E-003	5.11367E-004	...........
	16	4.39167	4.74763E-003	4.70251E-003	5.04600E-004	...........
	17	4.65	4.73222E-003	4.65881E-003	5.05700E-004	...........
	18	4.90833	4.71454E-003	4.64303E-003	5.13566E-004	...........
EOC	QUANT	0.0047145	Open Circuit (V)
PSTATMODEL	IQUANT	4	Pstat Model
PSTATSECTION	LABEL	REF600-11020	Pstat Section
PSTATSERIALNO	LABEL	11020	Pstat Serial Number
CTRLMODE	IQUANT	1	Control Mode
IESTAB	IQUANT	0	I/E Stability
CASPEED	IQUANT	1	Control Amp Speed
CONVENTION	IQUANT	1	Current Convention
ICHRANGE	IQUANT	2	Ich Range
ICHRANGEMODE	TOGGLE	F	Ich Auto Range
ICHOFFSETENABLE	TOGGLE	T	Ich Offset Enable
ICHOFFSET	QUANT	0	Ich Offset (V)
ICHFILTER	IQUANT	3	Ich Filter
VCHRANGE	IQUANT	2	Vch Range
VCHRANGEMODE	TOGGLE	F	Vch Auto Range
VCHOFFSETENABLE	TOGGLE	T	Vch Offset Enable
VCHOFFSET	QUANT	0	Vch Offset (V)
VCHFILTER	IQUANT	3	Vch Filter
ACHRANGE	IQUANT	2	Ach Range
ACHOFFSETENABLE	TOGGLE	F	Ach Offset Enable
ACHOFFSET	QUANT	0	Ach Offset (V)
ACHFILTER	IQUANT	3	Ach Filter
IERANGELOWERLIMIT	IQUANT	1	I/E Range Lower Limit
IERANGEMODE	TOGGLE	F	I/E AutoRange
IERANGE	IQUANT	2	I/E Range
POSFEEDENABLE	TOGGLE	F	Positive Feedback IR Comp
POSFEEDRESISTANCE	QUANT	0	Positive Feedback Resistance (ohm)
ACHSELECT	IQUANT	0	Ach Select
CABLEID	IQUANT	14	Cable ID
DCCALDATE	LABEL	8/19/2019	DC Calibration Date
ACCALDATE	LABEL	8/19/2019	AC Calibration Date
THERMOSELECT	IQUANT	1	Thermo Select
FRAMEWORKVERSION	QUANT	6.33	Framework Version
INSTRUMENTVERSION	LABEL	3.50	Instrument Version
ZCURVE	TABLE
	Pt	Time	Freq	Zreal	Zimag	Zsig	Zmod	Zphz	Idc	Vdc	IERange
	#	s	Hz	ohm	ohm	V	ohm	°	A	V	#
	0	2	1000078	2252.429	-1628.06	1	2779.212	-35.85948	4.636662E-006	0.0060914	8
	1	4	794390.6	2570.839	-1552.698	1	3003.346	-31.13053	-3.565276E-006	0.007126	8
	2	5	630984.4	2863.526	-1432.304	1	3201.761	-26.57371	1.519488E-006	0.0065366	8
	3	6	501234.4	3110.682	-1287.107	1	3366.45	-22.47831	-7.977104E-007	0.0068041	8
	4	8	398109.4	3312.071	-1133.108	1	3500.536	-18.88657	-1.308489E-006	0.0064698	8
	5	9	316265.6	3487.074	-984.012	1	3623.254	-15.75846	-1.096173E-006	0.0067533	8
	6	10	251203.1	3546.756	-852.0643	1	3647.67	-13.50861	-1.119381E-006	0.0067332	8
	7	12	199546.9	3643.184	-732.3166	1	3716.057	-11.36557	-2.471489E-006	0.0068904	8
	8	13	158578.1	3712.723	-639.3466	1	3767.37	-9.77075	5.290039E-007	0.006399	8
	9	14	125953.1	3781.039	-514.5087	1	3815.885	-7.748987	2.516442E-007	0.0059281	7
	10	16	100078.1	3812.139	-456.2768	1	3839.348	-6.825292	-5.19016E-008	0.0064226	7
	11	17	79453.13	3846.453	-421.1204	1	3869.437	-6.248017	2.582461E-008	0.0064028	7
	12	19	63140.62	3879.852	-398.1586	1	3900.229	-5.859302	5.957295E-008	0.0062488	7
	13	20	50203.12	3912.705	-383.6952	1	3931.474	-5.600741	3.784104E-009	0.0063073	7
	14	21	39890.62	3941.552	-379.0271	1	3959.734	-5.492782	-6.351413E-008	0.0064329	7
	15	23	31640.63	3979.138	-383.4052	1	3997.567	-5.503678	-4.725255E-008	0.0064206	7
	16	24	25171.88	4012.389	-398.3407	1	4032.114	-5.669614	4.642026E-009	0.0063006	7
	17	25	20015.62	4048.299	-420.4446	1	4070.073	-5.929317	-1.826108E-008	0.0063151	7
	18	27	15890.62	4082.412	-452.7164	1	4107.437	-6.327922	9.26603E-008	0.0062524	7
	19	28	12609.37	4122.833	-495.2105	1	4152.467	-6.84922	-3.162071E-008	0.0063376	7
	20	29	10078.13	4163.317	-548.993	1	4199.357	-7.51193	-1.814545E-008	0.0063738	7
	21	31	8015.625	4205.321	-619.2492	1	4250.669	-8.376817	-5.009665E-008	0.0064039	7
	22	32	6328.125	4250.8	-708.4183	1	4309.427	-9.461688	9.064281E-008	0.00626	7
	23	33	5015.625	4299.954	-819.5406	1	4377.356	-10.79075	6.517292E-009	0.0062974	7
	24	35	3984.375	4352.879	-957.66	1	4456.979	-12.40776	8.807373E-008	0.0062636	7
	25	36	3170.956	4411.362	-1125.531	1	4552.684	-14.31328	-4.468188E-008	0.0064076	7
	26	37	2527.573	4476.569	-1329.643	1	4669.863	-16.54262	-4.841833E-008	0.0063899	7
	27	39	1976.103	4557.5	-1603.648	1	4831.407	-19.38545	3.301621E-008	0.0062245	7
	28	40	1577.524	4647.981	-1915.881	1	5027.358	-22.40128	-4.331922E-008	0.0063646	7
	29	41	1265.625	4734.364	-2265.483	1	5248.487	-25.572	-2.105991E-008	0.006375	7
	30	42	998.264	4866.001	-2763.823	1	5596.131	-29.59599	8.019417E-008	0.006276	7
	31	44	796.875	5004.013	-3319.687	1	6005.037	-33.56049	-3.134569E-008	0.0063377	7
	32	45	627.7902	5168.408	-4044.9	1	6563.053	-38.04745	4.914861E-008	0.006273	7
	33	46	505.5147	5338.331	-4852.351	1	7214.09	-42.26971	3.105826E-008	0.0063664	7
	34	48	397.9953	5560.121	-5943.667	1	8138.926	-46.90958	6.758076E-009	0.0063515	7
	35	49	315.5048	5812.443	-7257.014	1	9297.782	-51.30732	6.646777E-009	0.0063529	7
	36	50	252.4038	6105.883	-8809.919	1	10718.98	-55.27536	8.935401E-010	0.0062904	6
	37	52	198.6229	6485.955	-10874.77	1	12662.08	-59.18721	1.27096E-009	0.0062948	6
	38	53	158.3615	6930.623	-13288.47	1	14987.23	-62.45564	1.227513E-009	0.0062917	6
	39	54	125.558	7513.684	-16334.61	1	17979.85	-65.29826	1.757289E-009	0.0062907	6
	40	56	100.4464	8210.893	-19926.53	1	21551.92	-67.60548	9.230752E-011	0.0062857	6
	41	57	79.00281	9188.29	-24658.74	1	26314.98	-69.5637	1.751873E-009	0.006287	6
	42	58	63.3446	10620.45	-30233.53	1	32044.66	-70.64462	8.808161E-010	0.0062866	6
	43	60	49.86702	11903.86	-37060.78	1	38925.61	-72.19307	3.309825E-010	0.0062844	6
	44	61	39.72458	14283.28	-45338.36	1	47535.03	-72.51362	1.058611E-009	0.0062912	6
	45	63	31.6723	16992.42	-55233.02	1	57787.79	-72.89951	7.193668E-010	0.0062885	6
	46	64	24.93351	20916.49	-67801.25	1	70954.27	-72.85516	1.062713E-009	0.0062888	6
	47	65	19.86229	25915.73	-82130.52	1	86122.28	-72.48727	1.13442E-009	0.006294	6
	48	67	15.83615	32141.81	-99926.4	1	104968.5	-72.16936	2.433725E-009	0.0062952	6
	49	68	12.40079	40621.93	-121534.8	1	128143.9	-71.51825	9.497416E-010	0.0062996	5
	50	70	9.93114	51586.48	-144366.3	1	153306.2	-70.33664	1.213106E-010	0.0062984	5
	51	71	7.944915	65380.58	-171329.9	1	183380.9	-69.11283	6.628899E-011	0.0062917	5
	52	73	6.317385	82885.01	-203480.4	1	219713.9	-67.83714	9.25006E-010	0.0062918	5
	53	75	5.008013	105594.1	-241283.9	1	263378.2	-66.36416	5.047463E-010	0.0062999	5
	54	77	3.945707	134138	-284059	1	314137.8	-64.72244	-6.775289E-011	0.006293	5
	55	80	3.158693	167139	-328699.6	1	368753.1	-63.04732	3.589162E-010	0.0062959	5
	56	83	2.504006	207949.3	-380308.3	1	433448.1	-61.33055	-2.010377E-010	0.0062981	5
	57	86	1.998082	253748	-433142.1	1	501996.1	-59.63691	2.686759E-010	0.0062516	5
	58	89	1.584686	307720.2	-493983.2	1	581988.9	-58.07972	1.970942E-011	0.0062959	5
	59	93	1.266892	368398.3	-557031.4	1	667833.3	-56.52094	1.176258E-010	0.0062586	5
	60	97	0.999041	439271.8	-628386.6	1	766700.3	-55.04464	2.190096E-010	0.0063382	5
