EXPLAIN
TAG	EISPOT
TITLE	LABEL	Potentiostatic EIS	Test &Identifier
DATE	LABEL	11/12/2019	Date
TIME	LABEL	23:54:19	Time
NOTES	NOTES	3	&Notes...
	
	
	
PSTAT	PSTAT	REF600-11020	Potentiostat
VDC	POTEN	0.00000E+000	T	DC &Voltage (V)
FREQINIT	QUANT	1.00000E+006	Initial Fre&q. (Hz)
FREQFINAL	QUANT	1.00000E+000	Final Fre&q. (Hz)
PTSPERDEC	QUANT	1.00000E+001	Points/&decade
VAC	QUANT	2.50000E+001	AC &Voltage (mV rms)
AREA	QUANT	1.00000E-002	&Area (cm^2)
CONDIT	TWOPARAM	T	5.00000E+000	0.00000E+000	Conditionin&g	Time(s)	E(V)
DELAY	TWOPARAM	T	5.00000E+000	0.00000E+000	Init. De&lay	Time(s)	Stab.(mV/s)
SPEED	SELECTOR	1	&Optimize for:
ZGUESS	QUANT	1.00000E+005	E&stimated Z (ohms)
OCVCURVE	TABLE	19
	Pt	T	Vf	Vm	Ach	Over
	#	s	V vs. Ref.	V	V	bits
	0	0.258333	8.69000E-002	8.69000E-002	5.88774E-004	...........
	1	0.516667	8.70389E-002	9.41705E-002	5.87940E-004	...........
	2	0.775	8.76639E-002	8.91313E-002	5.89707E-004	...........
	3	1.03333	8.85909E-002	7.99285E-002	5.89440E-004	...........
	4	1.29167	8.86828E-002	8.49272E-002	5.85240E-004	...........
	5	1.55	8.73234E-002	8.22243E-002	5.92340E-004	...........
	6	1.80833	8.53986E-002	8.42425E-002	5.85607E-004	...........
	7	2.06667	8.40298E-002	8.38048E-002	5.86674E-004	...........
	8	2.325	8.35065E-002	8.41876E-002	5.88807E-004	...........
	9	2.58333	8.35453E-002	8.41021E-002	5.87907E-004	...........
	10	2.84167	8.37991E-002	8.53311E-002	5.90540E-004	...........
	11	3.1	8.40876E-002	8.36987E-002	5.89607E-004	...........
	12	3.35833	8.43416E-002	8.58173E-002	5.92607E-004	...........
	13	3.61667	8.45178E-002	8.32307E-002	5.98840E-004	...........
	14	3.875	8.45723E-002	8.43216E-002	5.92740E-004	...........
	15	4.13333	8.44674E-002	8.37431E-002	5.93740E-004	...........
	16	4.39167	8.42608E-002	8.39984E-002	5.90240E-004	...........
	17	4.65	8.40508E-002	8.26850E-002	5.93540E-004	...........
	18	4.90833	8.38328E-002	8.32884E-002	5.97407E-004	...........
EOC	QUANT	0.0838328	Open Circuit (V)
PSTATMODEL	IQUANT	4	Pstat Model
PSTATSECTION	LABEL	REF600-11020	Pstat Section
PSTATSERIALNO	LABEL	11020	Pstat Serial Number
CTRLMODE	IQUANT	1	Control Mode
IESTAB	IQUANT	0	I/E Stability
CASPEED	IQUANT	1	Control Amp Speed
CONVENTION	IQUANT	1	Current Convention
ICHRANGE	IQUANT	2	Ich Range
ICHRANGEMODE	TOGGLE	F	Ich Auto Range
ICHOFFSETENABLE	TOGGLE	T	Ich Offset Enable
ICHOFFSET	QUANT	0	Ich Offset (V)
ICHFILTER	IQUANT	3	Ich Filter
VCHRANGE	IQUANT	2	Vch Range
VCHRANGEMODE	TOGGLE	F	Vch Auto Range
VCHOFFSETENABLE	TOGGLE	T	Vch Offset Enable
VCHOFFSET	QUANT	0	Vch Offset (V)
VCHFILTER	IQUANT	3	Vch Filter
ACHRANGE	IQUANT	2	Ach Range
ACHOFFSETENABLE	TOGGLE	F	Ach Offset Enable
ACHOFFSET	QUANT	0	Ach Offset (V)
ACHFILTER	IQUANT	2	Ach Filter
IERANGELOWERLIMIT	IQUANT	1	I/E Range Lower Limit
IERANGEMODE	TOGGLE	F	I/E AutoRange
IERANGE	IQUANT	6	I/E Range
POSFEEDENABLE	TOGGLE	F	Positive Feedback IR Comp
POSFEEDRESISTANCE	QUANT	0	Positive Feedback Resistance (ohm)
ACHSELECT	IQUANT	0	Ach Select
CABLEID	IQUANT	14	Cable ID
DCCALDATE	LABEL	8/19/2019	DC Calibration Date
ACCALDATE	LABEL	8/19/2019	AC Calibration Date
THERMOSELECT	IQUANT	1	Thermo Select
FRAMEWORKVERSION	QUANT	6.33	Framework Version
INSTRUMENTVERSION	LABEL	3.50	Instrument Version
ZCURVE	TABLE
	Pt	Time	Freq	Zreal	Zimag	Zsig	Zmod	Zphz	Idc	Vdc	IERange
	#	s	Hz	ohm	ohm	V	ohm	°	A	V	#
	0	1	1000078	769.1152	-8082.243	1	8118.755	-84.56404	-2.020931E-007	0.0853659	8
	1	3	794390.6	878.0119	-10304.73	1	10342.07	-85.12989	-4.007005E-006	0.0860589	8
	2	5	630984.4	907.4235	-12919.35	1	12951.17	-85.98228	-1.489463E-006	0.0851838	8
	3	7	501234.4	928.4124	-16242.74	1	16269.26	-86.72861	1.112679E-007	0.0850498	8
	4	9	398109.4	1098.32	-20016.72	1	20046.83	-86.85932	1.703026E-006	0.0856003	8
	5	10	316265.6	1661.886	-24820.45	1	24876.03	-86.1694	1.479434E-006	0.0848652	8
	6	12	251203.1	1993.088	-31450.2	1	31513.29	-86.37386	-7.143578E-007	0.0856745	8
	7	14	199546.9	2197.581	-39043.3	1	39105.1	-86.77847	-4.924012E-007	0.0849868	8
	8	15	158578.1	3965.08	-49459.19	1	49617.87	-85.41647	-8.114067E-007	0.085665	8
	9	17	125953.1	4160	-62936.85	1	63074.18	-86.21836	-2.544438E-006	0.0856688	7
	10	19	100078.1	6372.41	-74911.14	1	75181.69	-85.13777	3.277513E-007	0.0861071	7
	11	21	79453.13	6496.407	-94928.7	1	95150.7	-86.08509	2.847755E-007	0.0833633	7
	12	22	63140.62	7866.352	-118563.4	1	118824	-86.20415	-7.880112E-007	0.0848076	7
	13	24	50203.12	10254.22	-147869.7	1	148224.8	-86.0331	-1.175473E-006	0.0872473	7
	14	26	39890.62	12791.69	-184703.5	1	185145.9	-86.03829	-1.488517E-006	0.0868321	7
	15	28	31640.63	16815.99	-232793.2	1	233399.8	-85.86837	9.38287E-007	0.0851713	7
	16	29	25171.88	21549.97	-293938.8	1	294727.7	-85.80689	1.079394E-006	0.0829867	7
	17	31	20015.62	41440.52	-361499	1	363866.6	-83.46043	1.342565E-006	0.0839909	7
	18	33	15890.62	29323.79	-446404.8	1	447366.9	-86.24171	7.385312E-007	0.083039	7
	19	34	12609.37	47004.26	-548948.9	1	550957.6	-85.10593	2.768675E-007	0.0815281	6
	20	36	10078.13	65681.61	-710206.5	1	713237.3	-84.71618	-4.828537E-008	0.082676	6
	21	38	8015.625	60257.31	-910209.8	1	912202.1	-86.21246	2.506525E-007	0.0809736	6
	22	40	6328.125	123389.2	-1087604	1	1094581	-83.52744	1.984276E-007	0.0808241	6
	23	41	5015.625	150284.4	-1343529	1	1351908	-83.61754	-2.212865E-007	0.085476	6
	24	43	3984.375	221185.4	-1444619	1	1461453	-81.29505	1.627607E-007	0.0857609	6
	25	45	3170.956	255450	-2076957	1	2092607	-82.98827	7.986234E-008	0.0870733	6
	26	46	2527.573	470798.3	-2564043	1	2606908	-79.5955	2.289578E-007	0.0844039	6
	27	48	1976.103	170158.2	-3299601	1	3303986	-87.04791	4.463339E-008	0.0816934	6
	28	50	1577.524	1870722	-1593255	1	2457247	-40.42035	7.8761E-008	0.0870751	6
	29	52	1265.625	1003391	-4691955	1	4798045	-77.92892	2.849437E-008	0.0817847	5
	30	54	998.264	1264774	-5959356	1	6092092	-78.01772	2.132652E-008	0.0850017	5
	31	56	796.875	2138189	-7539578	1	7836906	-74.16692	1.591361E-008	0.0808956	5
	32	57	627.7902	2804964	-8629045	1	9073491	-71.99269	2.274115E-008	0.0808133	5
	33	59	505.5147	3552080	-1.040663E+007	1	1.099614E+007	-71.15376	-2.40641E-008	0.090025	5
	34	60	397.9953	4756482	-1.271662E+007	1	1.357706E+007	-69.49236	8.916817E-011	0.0851834	5
	35	62	315.5048	8454431	-1.492085E+007	1	1.714961E+007	-60.46331	6.248227E-010	0.0851798	5
	36	64	252.4038	8829712	-1.638144E+007	1	1.860955E+007	-61.67502	-2.043208E-010	0.0851808	5
	37	65	198.6229	1.156261E+007	-1.896077E+007	1	2.220822E+007	-58.62443	3.803847E-010	0.0851678	5
	38	67	158.3615	1.88625E+007	-2.112578E+007	1	2.832124E+007	-48.2394	5.447797E-010	0.0851791	5
	39	68	125.558	2.170034E+007	-2.456256E+007	1	3.277536E+007	-48.54029	4.459695E-010	0.0851696	4
	40	70	100.4464	2.730807E+007	-2.674015E+007	1	3.821997E+007	-44.39798	3.352798E-010	0.0851655	4
	41	72	79.00281	-1.248142E+007	-4.38086E+007	1	4.555194E+007	-105.9027	3.572256E-010	0.0851707	4
	42	73	63.3446	-4996075	7049367	1	8640274	125.3262	3.874794E-010	0.0851846	4
	43	75	49.86702	2.702331E+007	-1.117344E+008	1	1.149558E+008	-76.40392	2.236346E-010	0.0851683	5
	44	77	39.72458	1.246055E+007	-3.555763E+007	1	3.767772E+007	-70.68788	4.484075E-010	0.0851727	4
	45	79	31.6723	1.96331E+007	-2.883783E+007	1	3.488666E+007	-55.75256	4.012511E-010	0.0851796	4
	46	81	24.93351	6.215569E+007	-9.891345E+006	1	6.293782E+007	-9.042126	1.986534E-010	0.085168	4
	47	82	19.86229	7.359654E+007	-3.990974E+007	1	8.372119E+007	-28.46998	3.83041E-010	0.0851771	5
	48	84	15.83615	-1.665957E+008	5.228159E+007	1	1.746067E+008	162.5769	5.173273E-010	0.0851838	5
	49	86	12.40079	1.84452E+007	2623983	1	1.863091E+007	8.096475	-3.648464E-010	0.0851797	4
	50	88	9.93114	8.592246E+007	1.684086E+007	1	8.755731E+007	11.08943	3.821354E-010	0.0851757	4
	51	90	7.944915	5.68059E+007	-7928179	1	5.735648E+007	-7.945228	2.784805E-010	0.0851738	5
	52	92	6.317385	6.932956E+007	-1.467177E+007	1	7.0865E+007	-11.94884	2.693294E-010	0.0851922	4
	53	94	5.008013	7.858848E+007	-2.290414E+007	1	8.18581E+007	-16.24845	2.506964E-010	0.0851613	5
	54	98	3.945707	6.980403E+007	-1.763882E+007	1	7.199813E+007	-14.18124	2.858869E-010	0.0851637	5
	55	101	3.158693	7.282272E+007	-406575.9	1	7.282386E+007	-0.3198842	3.392263E-010	0.0851631	5
	56	106	2.504006	1.540875E+008	-4.591727E+007	1	1.607835E+008	-16.59379	4.388008E-011	0.0851545	3
	57	110	1.998082	1.581154E+008	-8830959	1	1.583618E+008	-3.196725	1.419872E-010	0.0851965	3
	58	115	1.584686	1.551565E+008	-18603.68	1	1.551565E+008	-0.0068699	-9.794814E-012	0.0851493	3
	59	122	1.266892	3.288809E+008	-7.845675E+007	1	3.381096E+008	-13.41752	9.04696E-011	0.0851108	2
	60	129	0.999041	3.636776E+008	-4.3521E+007	1	3.662724E+008	-6.824088	8.978191E-011	0.0850667	2
