EXPLAIN
TAG	EISPOT
TITLE	LABEL	Potentiostatic EIS	Test &Identifier
DATE	LABEL	11/27/2019	Date
TIME	LABEL	12:35:11	Time
NOTES	NOTES	3	&Notes...
	
	
	
PSTAT	PSTAT	REF600-11020	Potentiostat
VDC	POTEN	0.00000E+000	T	DC &Voltage (V)
FREQINIT	QUANT	1.00000E+006	Initial Fre&q. (Hz)
FREQFINAL	QUANT	1.00000E+000	Final Fre&q. (Hz)
PTSPERDEC	QUANT	1.00000E+001	Points/&decade
VAC	QUANT	2.50000E+001	AC &Voltage (mV rms)
AREA	QUANT	1.00000E-002	&Area (cm^2)
CONDIT	TWOPARAM	T	5.00000E+000	0.00000E+000	Conditionin&g	Time(s)	E(V)
DELAY	TWOPARAM	T	5.00000E+000	0.00000E+000	Init. De&lay	Time(s)	Stab.(mV/s)
SPEED	SELECTOR	0	&Optimize for:
ZGUESS	QUANT	1.00000E+005	E&stimated Z (ohms)
OCVCURVE	TABLE	19
	Pt	T	Vf	Vm	Ach	Over
	#	s	V vs. Ref.	V	V	bits
	0	0.258333	-5.84923E-003	-5.84923E-003	5.50499E-004	...........
	1	0.516667	-5.86092E-003	-6.46149E-003	5.52099E-004	...........
	2	0.775	-5.93328E-003	-7.06977E-003	5.61166E-004	...........
	3	1.03333	-6.13861E-003	-7.59428E-003	5.53233E-004	...........
	4	1.29167	-6.50491E-003	-8.12051E-003	5.49033E-004	...........
	5	1.55	-6.98764E-003	-8.59239E-003	5.48166E-004	...........
	6	1.80833	-7.51545E-003	-9.04425E-003	5.48399E-004	...........
	7	2.06667	-8.03658E-003	-9.45660E-003	5.49499E-004	...........
	8	2.325	-8.52749E-003	-9.84460E-003	5.50299E-004	...........
	9	2.58333	-8.98269E-003	-1.02058E-002	5.50499E-004	...........
	10	2.84167	-9.40484E-003	-1.05780E-002	5.51832E-004	...........
	11	3.1	-9.80016E-003	-1.09142E-002	5.50533E-004	...........
	12	3.35833	-1.01756E-002	-1.12595E-002	5.43933E-004	...........
	13	3.61667	-1.05360E-002	-1.15679E-002	5.45466E-004	...........
	14	3.875	-1.08836E-002	-1.19078E-002	5.44033E-004	...........
	15	4.13333	-1.12199E-002	-1.21798E-002	5.49033E-004	...........
	16	4.39167	-1.15455E-002	-1.25068E-002	5.52333E-004	...........
	17	4.65	-1.18603E-002	-1.27418E-002	5.52033E-004	...........
	18	4.90833	-1.21638E-002	-1.30698E-002	5.53833E-004	...........
EOC	QUANT	-0.0121638	Open Circuit (V)
PSTATMODEL	IQUANT	4	Pstat Model
PSTATSECTION	LABEL	REF600-11020	Pstat Section
PSTATSERIALNO	LABEL	11020	Pstat Serial Number
CTRLMODE	IQUANT	1	Control Mode
IESTAB	IQUANT	0	I/E Stability
CASPEED	IQUANT	1	Control Amp Speed
CONVENTION	IQUANT	1	Current Convention
ICHRANGE	IQUANT	2	Ich Range
ICHRANGEMODE	TOGGLE	F	Ich Auto Range
ICHOFFSETENABLE	TOGGLE	T	Ich Offset Enable
ICHOFFSET	QUANT	0	Ich Offset (V)
ICHFILTER	IQUANT	3	Ich Filter
VCHRANGE	IQUANT	2	Vch Range
VCHRANGEMODE	TOGGLE	F	Vch Auto Range
VCHOFFSETENABLE	TOGGLE	T	Vch Offset Enable
VCHOFFSET	QUANT	0	Vch Offset (V)
VCHFILTER	IQUANT	3	Vch Filter
ACHRANGE	IQUANT	2	Ach Range
ACHOFFSETENABLE	TOGGLE	F	Ach Offset Enable
ACHOFFSET	QUANT	0	Ach Offset (V)
ACHFILTER	IQUANT	3	Ach Filter
IERANGELOWERLIMIT	IQUANT	1	I/E Range Lower Limit
IERANGEMODE	TOGGLE	F	I/E AutoRange
IERANGE	IQUANT	5	I/E Range
POSFEEDENABLE	TOGGLE	F	Positive Feedback IR Comp
POSFEEDRESISTANCE	QUANT	0	Positive Feedback Resistance (ohm)
ACHSELECT	IQUANT	0	Ach Select
CABLEID	IQUANT	14	Cable ID
DCCALDATE	LABEL	8/19/2019	DC Calibration Date
ACCALDATE	LABEL	8/19/2019	AC Calibration Date
THERMOSELECT	IQUANT	1	Thermo Select
FRAMEWORKVERSION	QUANT	6.33	Framework Version
INSTRUMENTVERSION	LABEL	3.50	Instrument Version
ZCURVE	TABLE
	Pt	Time	Freq	Zreal	Zimag	Zsig	Zmod	Zphz	Idc	Vdc	IERange
	#	s	Hz	ohm	ohm	V	ohm	°	A	V	#
	0	1	1000078	1234.277	-2707.002	1	2975.113	-65.48904	-2.508924E-006	-0.0094434	8
	1	1	794390.6	1395.573	-3270.977	1	3556.25	-66.89433	-4.718681E-006	-0.0100167	8
	2	2	630984.4	1612.326	-3932.24	1	4249.954	-67.70503	1.776753E-006	-0.010153	8
	3	2	501234.4	1833.995	-4747.658	1	5089.577	-68.87872	-1.749736E-006	-0.0102345	8
	4	2	398109.4	2144.156	-5722.02	1	6110.558	-69.45802	1.824119E-006	-0.0103856	8
	5	3	316265.6	2541.474	-6894.856	1	7348.342	-69.7659	2.187151E-006	-0.0111897	8
	6	3	251203.1	3019.424	-8317.324	1	8848.436	-70.04767	-2.276395E-006	-0.0108324	8
	7	4	199546.9	3638.432	-10068.17	1	10705.43	-70.13118	-5.264849E-006	-0.0099306	8
	8	5	158578.1	4638.413	-12069.95	1	12930.53	-68.97852	-1.374971E-006	-0.0103304	8
	9	5	125953.1	5717.737	-14418.58	1	15510.9	-68.36903	-3.208797E-006	-0.0081537	7
	10	6	100078.1	7348.033	-17142.4	1	18650.89	-66.79777	-3.267581E-007	-0.0091533	7
	11	6	79453.13	8825.919	-20619.49	1	22429	-66.82725	-1.414447E-006	-0.009492	7
	12	6	63140.62	11024.04	-24759.46	1	27102.77	-65.99919	-8.856123E-007	-0.0109004	7
	13	7	50203.12	14025	-28548.01	1	31807.06	-63.83615	-1.423217E-006	-0.0090803	7
	14	7	39890.62	17193	-33784.7	1	37907.85	-63.02851	1.285451E-006	-0.0125213	7
	15	7	31640.63	22280.8	-38607.87	1	44575.79	-60.01054	-7.140652E-007	-0.0088994	7
	16	8	25171.88	27122.07	-44963.69	1	52510.38	-58.90164	-1.418972E-006	-0.0095067	7
	17	8	20015.62	33710.34	-51014.88	1	61146.59	-56.5435	1.30673E-006	-0.0121306	7
	18	8	15890.62	40379.7	-58512.71	1	71093.3	-55.3904	9.023749E-007	-0.0128721	7
	19	9	12609.37	50762.21	-62393.27	1	80434.59	-50.86872	-2.500791E-007	-0.0080584	6
	20	9	10078.13	59946.1	-68442.82	1	90983.27	-48.78629	-5.022493E-008	-0.0125188	6
	21	10	8015.625	71483.11	-76322.51	1	104570.4	-46.87529	-6.772344E-008	-0.0078411	6
	22	10	6328.125	84636.32	-79280.55	1	115968.6	-43.1286	-6.304598E-008	-0.007844	6
	23	10	5015.625	100724.1	-86460.6	1	132743.3	-40.64248	2.210016E-007	-0.013207	6
	24	11	3984.375	118044.5	-94480.88	1	151199	-38.6732	2.170745E-007	-0.0125678	6
	25	11	3170.956	130856.1	-95792.6	1	162171.4	-36.20581	1.402137E-007	-0.0141494	6
	26	12	2527.573	151700	-91198.8	1	177003.2	-31.01338	1.833816E-008	-0.0133452	6
	27	12	1976.103	167076.5	-82870.34	1	186499.4	-26.38153	-1.813012E-007	-0.0103238	6
	28	12	1577.524	174613.6	-83516.8	1	193558.7	-25.56155	-2.024952E-007	-0.007095	6
	29	13	1265.625	192291.1	-81484.16	1	208843.3	-22.96501	1.174019E-008	-0.0100314	5
	30	13	998.264	204407.5	-79378.26	1	219279.1	-21.22285	5.115743E-009	-0.013653	5
	31	13	796.875	215223.9	-76689.73	1	228479	-19.61227	2.110405E-008	-0.0139654	5
	32	14	627.7902	223735.8	-76044.04	1	236305.8	-18.77203	-4.5726E-010	-0.0130074	5
	33	14	505.5147	233849.5	-76562.96	1	246063.9	-18.12859	-9.461599E-010	-0.0129744	5
	34	14	397.9953	242372.3	-76114.52	1	254042.8	-17.43436	4.041754E-011	-0.0108176	5
	35	15	315.5048	252830.2	-77801.2	1	264530.1	-17.10424	1.19753E-009	-0.0108083	5
	36	15	252.4038	261193.6	-79701.42	1	273083.2	-16.96921	1.48683E-009	-0.0108158	5
	37	15	198.6229	270177.8	-81311.78	1	282148.3	-16.74951	4.811674E-010	-0.010813	5
	38	16	158.3615	280001.2	-87851.99	1	293459.8	-17.41955	-9.880399E-011	-0.0108101	5
	39	16	125.558	289608.1	-93921.55	1	304457.1	-17.96817	1.588599E-010	-0.0108117	5
	40	16	100.4464	302202.1	-95690.3	1	316990.1	-17.57005	8.852959E-010	-0.0108091	5
	41	17	79.00281	316065.4	-104394.2	1	332859.6	-18.27803	-2.461643E-010	-0.0108059	5
	42	17	63.3446	315431.9	-156307.9	1	352036.2	-26.36007	1.236501E-009	-0.0108084	5
	43	17	49.86702	340629.4	-136777.8	1	367064.7	-21.87765	5.755854E-010	-0.0108155	5
	44	18	39.72458	350376.6	-145849.3	1	379520.5	-22.60022	9.892923E-010	-0.0108202	5
	45	18	31.6723	362101.3	-172570	1	401120.6	-25.48151	1.166958E-009	-0.0108097	5
	46	19	24.93351	393987.4	-190488.2	1	437620.6	-25.80321	7.631083E-010	-0.0108256	5
	47	19	19.86229	418934.1	-210810.8	1	468985.1	-26.71188	7.267631E-010	-0.0108139	5
	48	19	15.83615	431428.6	-227132.7	1	487565.2	-27.7653	1.608163E-009	-0.010822	5
	49	19	12.40079	488258.5	-254447.6	1	550581.4	-27.52551	1.013623E-009	-0.0108217	5
	50	20	9.93114	514748.1	-293332.8	1	592460.8	-29.67695	5.565428E-010	-0.0108023	5
	51	20	7.944915	554401	-321328.9	1	640790.7	-30.09643	1.216115E-009	-0.0108179	6
	52	21	6.317385	591501.1	-352331.1	1	688484.4	-30.78039	5.426228E-010	-0.0108022	6
	53	22	5.008013	634559.4	-389602	1	744617.6	-31.54878	7.821713E-010	-0.010821	6
	54	24	3.945707	686968.3	-431615.2	1	811305.8	-32.14073	4.772985E-010	-0.0108134	6
	55	25	3.158693	735409.1	-474211.5	1	875044.7	-32.81501	4.15503E-010	-0.0108391	6
	56	28	2.504006	791681.4	-526254.2	1	950633	-33.61317	6.994818E-010	-0.0108354	5
	57	29	1.998082	851305.9	-585396.6	1	1033156	-34.51418	5.701427E-010	-0.0108307	4
	58	30	1.584686	919454.4	-652434.5	1	1127416	-35.35909	5.120338E-010	-0.0108713	4
	59	32	1.266892	989554	-732335.4	1	1231070	-36.50388	1.893839E-010	-0.0108631	4
	60	35	0.999041	1081125	-839320.4	1	1368681	-37.82363	4.275964E-010	-0.0108426	4
