EXPLAIN
TAG	EISPOT
TITLE	LABEL	Potentiostatic EIS	Test &Identifier
DATE	LABEL	10/31/2019	Date
TIME	LABEL	23:38:47	Time
NOTES	NOTES	1	&Notes...
	
PSTAT	PSTAT	REF600-11020	Potentiostat
VDC	POTEN	0.00000E+000	T	DC &Voltage (V)
FREQINIT	QUANT	1.00000E+006	Initial Fre&q. (Hz)
FREQFINAL	QUANT	1.00000E+000	Final Fre&q. (Hz)
PTSPERDEC	QUANT	1.00000E+001	Points/&decade
VAC	QUANT	2.50000E+001	AC &Voltage (mV rms)
AREA	QUANT	1.00000E-002	&Area (cm^2)
CONDIT	TWOPARAM	T	5.00000E+000	0.00000E+000	Conditionin&g	Time(s)	E(V)
DELAY	TWOPARAM	T	5.00000E+000	0.00000E+000	Init. De&lay	Time(s)	Stab.(mV/s)
SPEED	SELECTOR	0	&Optimize for:
ZGUESS	QUANT	1.00000E+005	E&stimated Z (ohms)
OCVCURVE	TABLE	19
	Pt	T	Vf	Vm	Ach	Over
	#	s	V vs. Ref.	V	V	bits
	0	0.258333	1.61438E-001	1.61438E-001	5.31066E-004	...........
	1	0.516667	1.60926E-001	1.34660E-001	5.34033E-004	...........
	2	0.775	1.57403E-001	8.92535E-002	5.35099E-004	...........
	3	1.03333	1.45907E-001	3.22946E-002	5.31933E-004	...........
	4	1.29167	1.21920E-001	-1.40929E-002	5.34500E-004	...........
	5	1.55	8.65901E-002	8.43376E-003	5.33600E-004	...........
	6	1.80833	4.96283E-002	2.26332E-002	5.32366E-004	...........
	7	2.06667	2.37711E-002	2.77294E-002	5.32366E-004	.........v.
	8	2.325	1.42642E-002	3.08103E-002	5.37033E-004	...........
	9	2.58333	1.64358E-002	3.36556E-002	5.34633E-004	...........
	10	2.84167	2.27797E-002	3.80103E-002	5.35233E-004	...........
	11	3.1	2.87283E-002	3.41928E-002	5.30966E-004	...........
	12	3.35833	3.28222E-002	3.76778E-002	5.34566E-004	...........
	13	3.61667	3.51491E-002	3.96814E-002	5.25166E-004	...........
	14	3.875	3.64464E-002	3.64518E-002	5.28800E-004	...........
	15	4.13333	3.72970E-002	3.92193E-002	5.35766E-004	...........
	16	4.39167	3.78676E-002	4.03024E-002	5.28366E-004	...........
	17	4.65	3.83148E-002	3.78076E-002	5.31100E-004	...........
	18	4.90833	3.86903E-002	3.83129E-002	5.30866E-004	...........
EOC	QUANT	0.0386903	Open Circuit (V)
PSTATMODEL	IQUANT	4	Pstat Model
PSTATSECTION	LABEL	REF600-11020	Pstat Section
PSTATSERIALNO	LABEL	11020	Pstat Serial Number
CTRLMODE	IQUANT	1	Control Mode
IESTAB	IQUANT	0	I/E Stability
CASPEED	IQUANT	1	Control Amp Speed
CONVENTION	IQUANT	1	Current Convention
ICHRANGE	IQUANT	2	Ich Range
ICHRANGEMODE	TOGGLE	F	Ich Auto Range
ICHOFFSETENABLE	TOGGLE	T	Ich Offset Enable
ICHOFFSET	QUANT	0	Ich Offset (V)
ICHFILTER	IQUANT	3	Ich Filter
VCHRANGE	IQUANT	2	Vch Range
VCHRANGEMODE	TOGGLE	F	Vch Auto Range
VCHOFFSETENABLE	TOGGLE	T	Vch Offset Enable
VCHOFFSET	QUANT	0	Vch Offset (V)
VCHFILTER	IQUANT	3	Vch Filter
ACHRANGE	IQUANT	2	Ach Range
ACHOFFSETENABLE	TOGGLE	F	Ach Offset Enable
ACHOFFSET	QUANT	0	Ach Offset (V)
ACHFILTER	IQUANT	3	Ach Filter
IERANGELOWERLIMIT	IQUANT	1	I/E Range Lower Limit
IERANGEMODE	TOGGLE	F	I/E AutoRange
IERANGE	IQUANT	5	I/E Range
POSFEEDENABLE	TOGGLE	F	Positive Feedback IR Comp
POSFEEDRESISTANCE	QUANT	0	Positive Feedback Resistance (ohm)
ACHSELECT	IQUANT	0	Ach Select
CABLEID	IQUANT	14	Cable ID
DCCALDATE	LABEL	8/19/2019	DC Calibration Date
ACCALDATE	LABEL	8/19/2019	AC Calibration Date
THERMOSELECT	IQUANT	1	Thermo Select
FRAMEWORKVERSION	QUANT	6.33	Framework Version
INSTRUMENTVERSION	LABEL	3.50	Instrument Version
ZCURVE	TABLE
	Pt	Time	Freq	Zreal	Zimag	Zsig	Zmod	Zphz	Idc	Vdc	IERange
	#	s	Hz	ohm	ohm	V	ohm	°	A	V	#
	0	1	1000078	570.1922	-8465.221	1	8484.402	-86.14655	-4.695356E-006	0.0411358	8
	1	1	794390.6	732.3257	-10739.81	1	10764.75	-86.09916	-6.488266E-006	0.0411621	8
	2	2	630984.4	997.376	-13449.84	1	13486.77	-85.75898	-5.329392E-006	0.0409525	8
	3	2	501234.4	1239.829	-16568.67	1	16614.99	-85.72055	2.241052E-007	0.0400892	8
	4	3	398109.4	918.6023	-21047.2	1	21067.23	-87.50092	6.700248E-007	0.0407751	8
	5	3	316265.6	1471.891	-26196.77	1	26238.09	-86.78416	6.131475E-007	0.0407183	8
	6	4	251203.1	2386.938	-32326.19	1	32414.2	-85.77699	-1.842551E-006	0.0404507	8
	7	5	199546.9	2020.471	-40947.82	1	40997.64	-87.17517	-2.251101E-006	0.0401961	8
	8	6	158578.1	7166.127	-52340.5	1	52828.8	-82.2039	5.992957E-006	0.0391913	8
	9	6	125953.1	5515.11	-65321.81	1	65554.22	-85.17397	3.654995E-006	0.0327169	7
	10	6	100078.1	6252.354	-78815.65	1	79063.26	-85.46429	-1.264455E-006	0.042473	7
	11	7	79453.13	7386.124	-98953.6	1	99228.9	-85.73123	-2.70374E-007	0.0389519	7
	12	7	63140.62	8387.922	-123664.5	1	123948.7	-86.11968	7.826683E-007	0.0379518	7
	13	8	50203.12	9301.112	-154180.7	1	154461	-86.54775	-2.696307E-007	0.0389525	7
	14	8	39890.62	8026.753	-189055.4	1	189225.7	-87.56885	2.991358E-007	0.038296	7
	15	8	31640.63	15076.86	-240404.1	1	240876.4	-86.41142	1.373711E-006	0.0380841	7
	16	9	25171.88	23290.93	-300668.3	1	301569	-85.5705	-8.402158E-007	0.0398311	7
	17	9	20015.62	10339.55	-342329.2	1	342485.3	-88.26999	-8.460316E-007	0.0398293	7
	18	10	15890.62	42914.84	-457074.8	1	459085	-84.63622	1.464779E-006	0.0384533	7
	19	11	12609.37	44125.86	-584218.4	1	585882.4	-85.68066	2.959113E-007	0.0372633	6
	20	11	10078.13	62955.11	-729445.1	1	732156.7	-85.06728	-2.996547E-007	0.0421986	6
	21	11	8015.625	36529	-859180.4	1	859956.6	-87.56548	-1.144743E-007	0.0444036	6
	22	12	6328.125	113166.8	-1131145	1	1136792	-84.28678	8.362625E-008	0.0422684	6
	23	12	5015.625	128797.6	-1399995	1	1405907	-84.74367	-2.115375E-007	0.0450965	6
	24	13	3984.375	36339.9	-1565125	1	1565547	-88.66991	2.13052E-007	0.0355685	6
	25	13	3170.956	251778	-2130164	1	2144992	-83.25911	2.874712E-007	0.0381634	6
	26	14	2527.573	315707.8	-2617631	1	2636601	-83.12288	-2.891185E-007	0.0452621	6
	27	14	1976.103	2187.978	-4626992	1	4626992	-89.97291	4.754764E-008	0.036479	6
	28	15	1577.524	527857.2	-2951315	1	2998149	-79.85959	-1.157999E-007	0.0444582	6
	29	16	1265.625	750079.8	-5533470	1	5584076	-82.28043	9.351489E-009	0.036131	5
	30	16	998.264	1945981	-6276056	1	6570823	-72.7732	-1.150223E-007	0.0444663	6
	31	17	796.875	894309.3	-8296197	1	8344260	-83.84742	1.314372E-008	0.04156	5
	32	17	627.7902	1346885	-9.823193E+006	1	9.915101E+006	-82.1927	-3.299257E-008	0.0430316	5
	33	18	505.5147	1742199	-1.263085E+007	1	1.275044E+007	-82.14663	-3.476864E-008	0.0444105	5
	34	18	397.9953	1836299	-1.736316E+007	1	1.745999E+007	-83.96293	1.251618E-010	0.0402274	5
	35	19	315.5048	1178676	-1.923829E+007	1	1.927437E+007	-86.49403	2.979998E-010	0.0402244	5
	36	19	252.4038	5232618	-2.560799E+007	1	2.613713E+007	-78.45142	-7.845687E-010	0.0402197	5
	37	20	198.6229	1.106053E+007	-2.662946E+007	1	2.883511E+007	-67.44448	-2.918159E-010	0.0402209	5
	38	20	158.3615	3242809	-3.916208E+007	1	3.929611E+007	-85.26643	-7.980168E-010	0.0402317	5
	39	21	125.558	5295163	-6.357982E+007	1	6.379994E+007	-85.23918	-1.253176E-010	0.0402224	4
	40	21	100.4464	9180706	-1.350551E+007	1	1.633047E+007	-55.79312	-8.403085E-010	0.0402221	5
	41	22	79.00281	-4779166	-9.924322E+006	1	1.101511E+007	-115.7136	1.685626E-010	0.0402293	4
	42	22	63.3446	-4289543	1454972	1	4529583	161.2636	-5.836529E-011	0.0402118	4
	43	23	49.86702	3.004551E+007	1.725445E+007	1	3.464749E+007	29.86777	-1.465582E-010	0.0402138	4
	44	24	39.72458	-1.686054E+007	-4.168262E+007	1	4.496352E+007	-112.0232	-1.735748E-010	0.0402159	4
	45	24	31.6723	1.681337E+007	1.246692E+007	1	2.093116E+007	36.55651	-4.959089E-010	0.0402147	4
	46	24	24.93351	3.62205E+007	-6.989873E+007	1	7.872583E+007	-62.60747	9.797497E-011	0.0402234	4
	47	25	19.86229	-1.2405E+008	6.928819E+007	1	1.420889E+008	150.8144	2.804709E-010	0.0402261	5
	48	25	15.83615	-1047748	-1.406635E+007	1	1.410531E+007	-94.25988	-1.079701E-009	0.040229	4
	49	26	12.40079	1.291465E+007	9078844	1	1.57865E+007	35.10675	9.670387E-010	0.040215	4
	50	27	9.93114	4.201461E+007	1.146984E+007	1	4.35521E+007	15.26948	-2.469175E-010	0.0402354	4
	51	27	7.944915	5.336046E+007	8.571391E+007	1	1.009664E+008	58.09603	-1.581333E-010	0.0402133	4
	52	28	6.317385	1.247814E+008	-2.33288E+007	1	1.269434E+008	-10.58962	-1.297188E-011	0.0402173	4
	53	30	5.008013	1.644704E+008	-1.891514E+007	1	1.655546E+008	-6.560554	2.58505E-011	0.0402391	4
	54	32	3.945707	2.738974E+008	1.632622E+008	1	3.188641E+008	30.79793	9.138709E-011	0.0402253	4
	55	34	3.158693	1.264956E+008	-3.494366E+007	1	1.312333E+008	-15.4425	-9.285398E-012	0.0402125	4
	56	36	2.504006	4.749724E+008	-9.416838E+007	1	4.842173E+008	-11.21408	2.254983E-011	0.0402153	3
	57	38	1.998082	4.779382E+008	-4.740164E+007	1	4.802831E+008	-5.664041	2.546434E-011	0.0401678	3
	58	41	1.584686	5.01431E+008	-2.66807E+007	1	5.021404E+008	-3.045785	2.570236E-011	0.0401827	3
	59	44	1.266892	4.973573E+009	-1.231466E+009	1	5.123762E+009	-13.90685	-2.877989E-012	0.0402269	2
	60	48	0.999041	4.994774E+009	-1.001921E+009	1	5.094272E+009	-11.34264	-3.458913E-012	0.0402574	2
