EXPLAIN
TAG	EISPOT
TITLE	LABEL	Potentiostatic IDE	Test &Identifier
DATE	LABEL	9/6/2019	Date
TIME	LABEL	8:45:31	Time
NOTES	NOTES	1	&Notes...
	
PSTAT	PSTAT	REF600-11020	Potentiostat
VDC	POTEN	0.00000E+000	T	DC &Voltage (V)
FREQINIT	QUANT	1.00000E+006	Initial Fre&q. (Hz)
FREQFINAL	QUANT	1.00000E+000	Final Fre&q. (Hz)
PTSPERDEC	QUANT	1.00000E+001	Points/&decade
VAC	QUANT	2.50000E+001	AC &Voltage (mV rms)
AREA	QUANT	1.00000E-002	&Area (cm^2)
CONDIT	TWOPARAM	T	5.00000E+000	0.00000E+000	Conditionin&g	Time(s)	E(V)
DELAY	TWOPARAM	T	5.00000E+000	0.00000E+000	Init. De&lay	Time(s)	Stab.(mV/s)
SPEED	SELECTOR	1	&Optimize for:
ZGUESS	QUANT	1.00000E+007	E&stimated Z (ohms)
OCVCURVE	TABLE	19
	Pt	T	Vf	Vm	Ach	Over
	#	s	V vs. Ref.	V	V	bits
	0	0.258333	1.01026E-002	1.01026E-002	5.47699E-004	...........
	1	0.516667	1.01026E-002	1.00993E-002	5.46833E-004	...........
	2	0.775	1.01029E-002	1.01323E-002	5.44733E-004	...........
	3	1.03333	1.01062E-002	1.01720E-002	5.43666E-004	...........
	4	1.29167	1.01175E-002	1.02262E-002	5.41566E-004	...........
	5	1.55	1.01412E-002	1.02886E-002	5.38733E-004	...........
	6	1.80833	1.01787E-002	1.03572E-002	5.44166E-004	...........
	7	2.06667	1.02284E-002	1.04282E-002	5.45199E-004	...........
	8	2.325	1.02877E-002	1.04992E-002	5.44133E-004	...........
	9	2.58333	1.03534E-002	1.05787E-002	5.42299E-004	...........
	10	2.84167	1.04236E-002	1.06578E-002	5.42833E-004	...........
	11	3.1	1.04970E-002	1.07280E-002	5.42933E-004	...........
	12	3.35833	1.05721E-002	1.07890E-002	5.42133E-004	...........
	13	3.61667	1.06467E-002	1.08826E-002	5.43833E-004	...........
	14	3.875	1.07204E-002	1.09551E-002	5.38066E-004	...........
	15	4.13333	1.07949E-002	1.10210E-002	5.41066E-004	...........
	16	4.39167	1.08698E-002	1.10755E-002	5.44066E-004	...........
	17	4.65	1.09422E-002	1.11429E-002	5.43266E-004	...........
	18	4.90833	1.10109E-002	1.12450E-002	5.42566E-004	...........
EOC	QUANT	0.0110109	Open Circuit (V)
PSTATMODEL	IQUANT	4	Pstat Model
PSTATSECTION	LABEL	REF600-11020	Pstat Section
PSTATSERIALNO	LABEL	11020	Pstat Serial Number
CTRLMODE	IQUANT	1	Control Mode
IESTAB	IQUANT	0	I/E Stability
CASPEED	IQUANT	1	Control Amp Speed
CONVENTION	IQUANT	1	Current Convention
ICHRANGE	IQUANT	2	Ich Range
ICHRANGEMODE	TOGGLE	F	Ich Auto Range
ICHOFFSETENABLE	TOGGLE	T	Ich Offset Enable
ICHOFFSET	QUANT	0	Ich Offset (V)
ICHFILTER	IQUANT	3	Ich Filter
VCHRANGE	IQUANT	2	Vch Range
VCHRANGEMODE	TOGGLE	F	Vch Auto Range
VCHOFFSETENABLE	TOGGLE	T	Vch Offset Enable
VCHOFFSET	QUANT	0	Vch Offset (V)
VCHFILTER	IQUANT	3	Vch Filter
ACHRANGE	IQUANT	2	Ach Range
ACHOFFSETENABLE	TOGGLE	F	Ach Offset Enable
ACHOFFSET	QUANT	0	Ach Offset (V)
ACHFILTER	IQUANT	3	Ach Filter
IERANGELOWERLIMIT	IQUANT	1	I/E Range Lower Limit
IERANGEMODE	TOGGLE	F	I/E AutoRange
IERANGE	IQUANT	3	I/E Range
POSFEEDENABLE	TOGGLE	F	Positive Feedback IR Comp
POSFEEDRESISTANCE	QUANT	0	Positive Feedback Resistance (ohm)
ACHSELECT	IQUANT	0	Ach Select
CABLEID	IQUANT	14	Cable ID
DCCALDATE	LABEL	8/19/2019	DC Calibration Date
ACCALDATE	LABEL	8/19/2019	AC Calibration Date
THERMOSELECT	IQUANT	1	Thermo Select
FRAMEWORKVERSION	QUANT	6.33	Framework Version
INSTRUMENTVERSION	LABEL	3.50	Instrument Version
ZCURVE	TABLE
	Pt	Time	Freq	Zreal	Zimag	Zsig	Zmod	Zphz	Idc	Vdc	IERange
	#	s	Hz	ohm	ohm	V	ohm	°	A	V	#
	0	2	1000078	2550.846	-1873.931	1	3165.191	-36.30217	1.695222E-006	0.0130062	8
	1	3	794390.6	2926.861	-1788.061	1	3429.822	-31.42135	-8.598219E-007	0.0131525	8
	2	5	630984.4	3264.238	-1655.58	1	3660.081	-26.89354	-5.65389E-007	0.0130222	8
	3	6	501234.4	3536.176	-1474.128	1	3831.134	-22.62982	9.256548E-007	0.0125479	8
	4	7	398109.4	3747.084	-1295.03	1	3964.56	-19.06566	-5.94563E-007	0.0128327	8
	5	9	316265.6	3902.719	-1128.112	1	4062.494	-16.12236	1.688154E-007	0.0126052	8
	6	10	251203.1	4020.515	-965.126	1	4134.732	-13.49847	-2.466269E-007	0.0128106	8
	7	11	199546.9	4116.253	-847.238	1	4202.542	-11.63062	-4.917746E-007	0.0127916	8
	8	13	158578.1	4201.586	-748.936	1	4267.813	-10.10687	-2.508144E-006	0.0132321	8
	9	14	125953.1	4265.694	-634.7614	1	4312.664	-8.463855	-2.039506E-007	0.0131669	7
	10	15	100078.1	4308.32	-577.529	1	4346.857	-7.634967	-2.538081E-008	0.0126579	7
	11	17	79453.13	4352.174	-545.4773	1	4386.224	-7.143883	-3.680423E-008	0.0126897	7
	12	18	63140.62	4394.667	-529.0234	1	4426.395	-6.86415	-2.508231E-008	0.0126469	7
	13	19	50203.12	4439.26	-525.554	1	4470.262	-6.751691	4.360045E-008	0.0125498	7
	14	21	39890.62	4478.503	-536.2202	1	4510.49	-6.827636	2.014883E-008	0.0126148	7
	15	22	31640.63	4520.684	-560.11	1	4555.25	-7.062918	1.403395E-008	0.0125793	7
	16	23	25171.88	4565.589	-599.959	1	4604.841	-7.48628	7.602591E-010	0.0125929	7
	17	25	20015.62	4613.375	-655.8264	1	4659.758	-8.090819	-3.60129E-009	0.0126519	7
	18	26	15890.62	4666.428	-732.7278	1	4723.604	-8.923784	-1.691637E-009	0.0126502	7
	19	27	12609.37	4722.041	-826.6992	1	4793.861	-9.93027	-2.128963E-008	0.0126633	7
	20	29	10078.13	4783.693	-945.5477	1	4876.247	-11.18099	-2.379623E-008	0.0126518	7
	21	30	8015.625	4850.402	-1090.88	1	4971.561	-12.6752	-2.381966E-008	0.0126445	7
	22	31	6328.125	4932.331	-1280.77	1	5095.906	-14.55642	-4.91395E-009	0.0126499	7
	23	33	5015.625	5025.865	-1505.992	1	5246.649	-16.68075	-2.400406E-008	0.0126437	7
	24	34	3984.375	5131.866	-1776.608	1	5430.689	-19.09542	-2.411971E-008	0.012642	7
	25	35	3170.956	5254.055	-2107.679	1	5661.042	-21.85833	4.822296E-008	0.0125582	7
	26	37	2527.573	5395.778	-2497.684	1	5945.826	-24.83923	-2.045985E-008	0.0126407	7
	27	38	1976.103	5578.832	-3016.228	1	6342.002	-28.39813	4.208148E-008	0.0126274	7
	28	39	1577.524	5786.024	-3586.285	1	6807.313	-31.7914	-1.488409E-008	0.0126217	7
	29	41	1265.625	6026.356	-4246.671	1	7372.326	-35.17171	1.494795E-008	0.0125715	7
	30	42	998.264	6336.202	-5115.505	1	8143.455	-38.91552	-1.120823E-008	0.0127051	7
	31	43	796.875	6670.855	-6088.028	1	9031.301	-42.38454	-2.783069E-008	0.0126774	7
	32	45	627.7902	7115.972	-7320.155	1	10208.9	-45.81033	-4.555192E-009	0.012614	6
	33	46	505.5147	7568.266	-8667.134	1	11506.43	-48.87207	4.11527E-009	0.0124333	6
	34	47	397.9953	8173.743	-10442.42	1	13261	-51.94814	7.396175E-010	0.0125763	6
	35	49	315.5048	8853.978	-12530.3	1	15342.79	-54.75476	8.827294E-010	0.0125695	6
	36	50	252.4038	9621.58	-14945.36	1	17774.66	-57.22724	5.396425E-010	0.012572	6
	37	51	198.6229	10590.83	-18088.74	1	20961.11	-59.65133	7.341897E-010	0.0125718	6
	38	53	158.3615	11683.33	-21695.69	1	24641.49	-61.69713	5.010519E-010	0.0125669	6
	39	54	125.558	13022.98	-26182.96	1	29242.87	-63.55499	7.249947E-010	0.0125737	6
	40	55	100.4464	14554.28	-31389.32	1	34599.37	-65.12428	9.359098E-010	0.0125686	6
	41	57	79.00281	16597.62	-38221.25	1	41669.47	-66.52705	8.801374E-010	0.0125676	6
	42	58	63.3446	18737.78	-45888.55	1	49566.76	-67.78822	6.71727E-010	0.0125665	6
	43	59	49.86702	21925.11	-55598.35	1	59765.27	-68.47829	6.364873E-010	0.0125656	6
	44	61	39.72458	25515.06	-67157.24	1	71840.89	-69.19671	7.08078E-010	0.01257	6
	45	62	31.6723	29897.87	-80758.34	1	86114.99	-69.68475	4.289282E-010	0.0125678	6
	46	63	24.93351	35780.12	-98213	1	104527.5	-69.98273	6.539846E-010	0.0125695	6
	47	65	19.86229	42737.15	-118015.7	1	125515.6	-70.0931	6.334817E-010	0.0125746	5
	48	66	15.83615	51435.55	-141870.8	1	150907	-70.07178	2.896363E-010	0.0125746	5
	49	67	12.40079	63042.38	-172196.8	1	183374.2	-69.89199	1.167915E-010	0.012582	5
	50	69	9.93114	76483.16	-205256.4	1	219043	-69.56347	3.440659E-010	0.0125727	5
	51	70	7.944915	93508.93	-243940.1	1	261248.4	-69.0268	4.802219E-010	0.0125829	5
	52	72	6.317385	114336.5	-291493.5	1	313115.5	-68.58272	-1.095557E-010	0.0125949	5
	53	74	5.008013	142083.6	-347404.2	1	375336.4	-67.7561	6.516557E-012	0.0125751	5
	54	76	3.945707	177080.4	-414218	1	450482	-66.85303	2.033634E-010	0.0125875	5
	55	79	3.158693	217336.3	-487555	1	533802.3	-65.97424	-5.697614E-011	0.0125685	5
	56	82	2.504006	270109.8	-574150.9	1	634514.4	-64.80532	3.348523E-010	0.0125706	5
	57	85	1.998082	331631.4	-668684.1	1	746403.2	-63.62106	-3.716961E-011	0.0126082	5
	58	88	1.584686	408240.3	-779822.1	1	880217.4	-62.36774	1.519026E-010	0.0126096	5
	59	91	1.266892	498113.4	-897992.5	1	1026892	-60.98302	-1.2595E-010	0.0126056	4
	60	96	0.999041	606825.9	-1035806	1	1200472	-59.63614	1.664935E-010	0.0125708	4
