EXPLAIN
TAG	EISPOT
TITLE	LABEL	Potentiostatic EIS	Test &Identifier
DATE	LABEL	11/22/2019	Date
TIME	LABEL	0:52:58	Time
NOTES	NOTES	4	&Notes...
	
	
	
	
PSTAT	PSTAT	REF600-11020	Potentiostat
VDC	POTEN	0.00000E+000	T	DC &Voltage (V)
FREQINIT	QUANT	1.00000E+006	Initial Fre&q. (Hz)
FREQFINAL	QUANT	1.00000E+000	Final Fre&q. (Hz)
PTSPERDEC	QUANT	1.00000E+001	Points/&decade
VAC	QUANT	2.50000E+001	AC &Voltage (mV rms)
AREA	QUANT	1.00000E-002	&Area (cm^2)
CONDIT	TWOPARAM	T	5.00000E+000	0.00000E+000	Conditionin&g	Time(s)	E(V)
DELAY	TWOPARAM	T	5.00000E+000	0.00000E+000	Init. De&lay	Time(s)	Stab.(mV/s)
SPEED	SELECTOR	1	&Optimize for:
ZGUESS	QUANT	1.00000E+005	E&stimated Z (ohms)
OCVCURVE	TABLE	19
	Pt	T	Vf	Vm	Ach	Over
	#	s	V vs. Ref.	V	V	bits
	0	0.258333	5.36544E-003	5.36544E-003	5.59766E-004	...........
	1	0.516667	5.36368E-003	5.27374E-003	5.56966E-004	...........
	2	0.775	5.35450E-003	5.26897E-003	5.59832E-004	...........
	3	1.03333	5.33345E-003	5.25022E-003	5.55233E-004	...........
	4	1.29167	5.30526E-003	5.26054E-003	5.63366E-004	...........
	5	1.55	5.28070E-003	5.28023E-003	5.58132E-004	...........
	6	1.80833	5.26744E-003	5.27851E-003	5.60599E-004	...........
	7	2.06667	5.26588E-003	5.28816E-003	5.57699E-004	...........
	8	2.325	5.27141E-003	5.29980E-003	5.56799E-004	...........
	9	2.58333	5.27968E-003	5.31133E-003	5.54366E-004	...........
	10	2.84167	5.28909E-003	5.32354E-003	5.57233E-004	...........
	11	3.1	5.29943E-003	5.33231E-003	5.55533E-004	...........
	12	3.35833	5.31044E-003	5.34921E-003	5.54499E-004	...........
	13	3.61667	5.32205E-003	5.36450E-003	5.61499E-004	...........
	14	3.875	5.33475E-003	5.38640E-003	5.55533E-004	...........
	15	4.13333	5.34921E-003	5.40159E-003	5.57966E-004	...........
	16	4.39167	5.36549E-003	5.42044E-003	5.54266E-004	...........
	17	4.65	5.38285E-003	5.43357E-003	5.55666E-004	...........
	18	4.90833	5.40010E-003	5.44181E-003	5.59066E-004	...........
EOC	QUANT	0.0054001	Open Circuit (V)
PSTATMODEL	IQUANT	4	Pstat Model
PSTATSECTION	LABEL	REF600-11020	Pstat Section
PSTATSERIALNO	LABEL	11020	Pstat Serial Number
CTRLMODE	IQUANT	1	Control Mode
IESTAB	IQUANT	0	I/E Stability
CASPEED	IQUANT	1	Control Amp Speed
CONVENTION	IQUANT	1	Current Convention
ICHRANGE	IQUANT	2	Ich Range
ICHRANGEMODE	TOGGLE	F	Ich Auto Range
ICHOFFSETENABLE	TOGGLE	T	Ich Offset Enable
ICHOFFSET	QUANT	0	Ich Offset (V)
ICHFILTER	IQUANT	3	Ich Filter
VCHRANGE	IQUANT	2	Vch Range
VCHRANGEMODE	TOGGLE	F	Vch Auto Range
VCHOFFSETENABLE	TOGGLE	T	Vch Offset Enable
VCHOFFSET	QUANT	0	Vch Offset (V)
VCHFILTER	IQUANT	3	Vch Filter
ACHRANGE	IQUANT	2	Ach Range
ACHOFFSETENABLE	TOGGLE	F	Ach Offset Enable
ACHOFFSET	QUANT	0	Ach Offset (V)
ACHFILTER	IQUANT	3	Ach Filter
IERANGELOWERLIMIT	IQUANT	1	I/E Range Lower Limit
IERANGEMODE	TOGGLE	F	I/E AutoRange
IERANGE	IQUANT	5	I/E Range
POSFEEDENABLE	TOGGLE	F	Positive Feedback IR Comp
POSFEEDRESISTANCE	QUANT	0	Positive Feedback Resistance (ohm)
ACHSELECT	IQUANT	0	Ach Select
CABLEID	IQUANT	14	Cable ID
DCCALDATE	LABEL	8/19/2019	DC Calibration Date
ACCALDATE	LABEL	8/19/2019	AC Calibration Date
THERMOSELECT	IQUANT	1	Thermo Select
FRAMEWORKVERSION	QUANT	6.33	Framework Version
INSTRUMENTVERSION	LABEL	3.50	Instrument Version
ZCURVE	TABLE
	Pt	Time	Freq	Zreal	Zimag	Zsig	Zmod	Zphz	Idc	Vdc	IERange
	#	s	Hz	ohm	ohm	V	ohm	°	A	V	#
	0	2	1000078	1893.514	-1491.371	1	2410.308	-38.2247	7.526945E-006	0.0059902	8
	1	3	794390.6	2166.639	-1541.24	1	2658.9	-35.42617	2.534008E-006	0.0072941	8
	2	5	630984.4	2447.756	-1562.389	1	2903.889	-32.54986	1.741902E-006	0.0075365	8
	3	6	501234.4	2737.745	-1550.045	1	3146.091	-29.5175	-5.086432E-007	0.0068188	8
	4	7	398109.4	3009.26	-1515.004	1	3369.107	-26.72285	-8.924301E-007	0.0075432	8
	5	9	316265.6	3272.281	-1456.803	1	3581.912	-23.99838	-6.03669E-006	0.0079325	8
	6	10	251203.1	3518.521	-1380.518	1	3779.658	-21.42293	-2.381787E-008	0.0067655	8
	7	11	199546.9	3733.082	-1275.163	1	3944.862	-18.85938	-8.656706E-007	0.007482	8
	8	13	158578.1	3904.621	-1180.503	1	4079.173	-16.82189	6.815282E-006	0.0062941	8
	9	14	125953.1	4131.274	-1032.72	1	4258.396	-14.03496	1.29435E-006	0.0083227	7
	10	16	100078.1	4250.059	-913.9988	1	4347.229	-12.13692	8.054456E-008	0.0056578	7
	11	17	79453.13	4348.257	-834.6163	1	4427.632	-10.86536	-1.254825E-006	0.0081597	7
	12	18	63140.62	4446.162	-761.2825	1	4510.866	-9.7161	-1.090531E-006	0.0075851	7
	13	20	50203.12	4536.67	-703.447	1	4590.884	-8.813977	8.092897E-008	0.0056446	7
	14	21	39890.62	4611.783	-657.6384	1	4658.436	-8.115642	4.628388E-007	0.0053122	7
	15	22	31640.63	4688.491	-631.1569	1	4730.783	-7.666971	8.803254E-007	0.0067147	7
	16	24	25171.88	4742.531	-609.3521	1	4781.518	-7.321631	7.728795E-007	0.0051829	7
	17	25	20015.62	4784.296	-603.8903	1	4822.258	-7.194025	-3.516768E-007	0.0061808	7
	18	26	15890.62	4847.299	-612.4177	1	4885.833	-7.200714	-6.106137E-007	0.0086213	7
	19	28	12609.37	4900.4	-629.9594	1	4940.726	-7.325347	-1.255825E-006	0.0081463	7
	20	29	10078.13	4994.244	-671.5421	1	5039.19	-7.65824	1.136746E-006	0.0057887	7
	21	31	8015.625	5052.169	-700.653	1	5100.522	-7.895623	4.655236E-007	0.0053096	7
	22	32	6328.125	5131.121	-756.9063	1	5186.647	-8.391348	7.740188E-007	0.0051791	7
	23	33	5015.625	5206.321	-825.7692	1	5271.401	-9.012549	4.295812E-007	0.0074967	7
	24	35	3984.375	5285.514	-896.8438	1	5361.062	-9.6302	1.030242E-007	0.007944	7
	25	36	3170.956	5346.541	-1003.991	1	5439.991	-10.63533	8.226198E-008	0.0056375	7
	26	37	2527.573	5441.261	-1131.947	1	5557.753	-11.75164	1.137154E-006	0.0057815	7
	27	39	1976.103	5490.5	-1291.058	1	5640.25	-13.23237	-1.254206E-006	0.0085078	7
	28	40	1577.524	5603.566	-1479.185	1	5795.511	-14.78718	4.667299E-007	0.005302	7
	29	42	1265.625	5666.806	-1742.641	1	5928.7	-17.09357	4.280341E-007	0.0074837	7
	30	43	998.264	5756.743	-2079.576	1	6120.843	-19.86184	6.564306E-007	0.0071451	7
	31	44	796.875	5838.452	-2472.593	1	6340.444	-22.95272	4.311501E-007	0.0074848	7
	32	46	627.7902	5933.863	-2984.049	1	6641.933	-26.69712	-3.480361E-007	0.006163	7
	33	47	505.5147	6071.082	-3605.348	1	7060.918	-30.70421	1.137704E-006	0.0057732	7
	34	49	397.9953	6204.935	-4399.264	1	7606.23	-35.33643	4.527721E-009	0.0070039	7
	35	50	315.5048	6384.595	-5383.865	1	8351.59	-40.13955	2.213374E-009	0.0070111	7
	36	51	252.4038	6597.844	-6551.733	1	9298.213	-44.79908	6.450616E-009	0.007004	7
	37	53	198.6229	6891.84	-8098.822	1	10634.3	-49.60327	9.84955E-010	0.0069439	6
	38	54	158.3615	7245.709	-9901.36	1	12269.37	-53.80375	9.563633E-011	0.0069443	6
	39	55	125.558	7711.72	-12161.65	1	14400.57	-57.62116	1.659514E-010	0.0069489	6
	40	57	100.4464	8296.658	-14814.79	1	16979.77	-60.75007	3.669028E-010	0.0069443	6
	41	58	79.00281	9058.377	-18289.49	1	20409.79	-63.65181	-2.463019E-011	0.0069383	6
	42	60	63.3446	9895.52	-22100.32	1	24214.58	-65.87933	1.213653E-010	0.0069479	6
	43	61	49.86702	11376.92	-27251.66	1	29531.12	-67.34062	1.144754E-009	0.0069376	6
	44	62	39.72458	12808.29	-33144.65	1	35533.36	-68.87167	1.123458E-009	0.006945	6
	45	64	31.6723	14703.97	-40294.21	1	42893.24	-69.95221	8.175949E-010	0.0069503	6
	46	65	24.93351	17290.8	-49353.02	1	52294.28	-70.69212	-1.436887E-010	0.0069487	6
	47	67	19.86229	20411.46	-59781.31	1	63169.88	-71.14827	6.818066E-010	0.0069586	6
	48	68	15.83615	24475.84	-72708.98	1	76718.07	-71.39535	2.108803E-009	0.0069462	6
	49	69	12.40079	29506.75	-88832.7	1	93605.01	-71.62553	1.076964E-009	0.006945	6
	50	71	9.93114	35976.37	-106482.1	1	112395.5	-71.33179	8.437329E-011	0.0069553	5
	51	72	7.944915	43979.36	-127775.8	1	135132.7	-71.00697	-9.178271E-011	0.00694	5
	52	74	6.317385	54287.27	-153273	1	162603	-70.49654	4.658267E-010	0.0069391	5
	53	76	5.008013	67845.42	-183904.4	1	196020	-69.75014	2.937507E-010	0.0069516	5
	54	79	3.945707	85322.98	-220966.2	1	236867.2	-68.88664	4.003822E-011	0.0069453	5
	55	81	3.158693	105640.5	-260896.2	1	281472.5	-67.95629	1.195271E-010	0.0069689	5
	56	85	2.504006	131712.2	-309047.9	1	335944.5	-66.91693	2.113532E-010	0.0069398	5
	57	87	1.998082	162406.6	-362203.2	1	396947.2	-65.84924	-7.170908E-011	0.0069861	5
	58	91	1.584686	199290.1	-425127.4	1	469520.9	-64.88388	1.785307E-010	0.0069664	5
	59	94	1.266892	243177.8	-494090.8	1	550691.5	-63.79486	-3.527841E-011	0.0069887	5
	60	99	0.999041	298266.3	-577056.9	1	649582.6	-62.66669	6.703989E-011	0.0069063	5
