EXPLAIN
TAG	EISPOT
TITLE	LABEL	Potentiostatic IDE	Test &Identifier
DATE	LABEL	9/14/2019	Date
TIME	LABEL	9:48:11	Time
NOTES	NOTES	1	&Notes...
	
PSTAT	PSTAT	REF600-11020	Potentiostat
VDC	POTEN	0.00000E+000	T	DC &Voltage (V)
FREQINIT	QUANT	1.00000E+006	Initial Fre&q. (Hz)
FREQFINAL	QUANT	1.00000E+000	Final Fre&q. (Hz)
PTSPERDEC	QUANT	1.00000E+001	Points/&decade
VAC	QUANT	2.50000E+001	AC &Voltage (mV rms)
AREA	QUANT	1.00000E-002	&Area (cm^2)
CONDIT	TWOPARAM	T	5.00000E+000	0.00000E+000	Conditionin&g	Time(s)	E(V)
DELAY	TWOPARAM	T	5.00000E+000	0.00000E+000	Init. De&lay	Time(s)	Stab.(mV/s)
SPEED	SELECTOR	1	&Optimize for:
ZGUESS	QUANT	1.00000E+007	E&stimated Z (ohms)
OCVCURVE	TABLE	19
	Pt	T	Vf	Vm	Ach	Over
	#	s	V vs. Ref.	V	V	bits
	0	0.258333	4.56011E-003	4.56011E-003	5.59499E-004	...........
	1	0.516667	4.56033E-003	4.57147E-003	5.62266E-004	...........
	2	0.775	4.56167E-003	4.58257E-003	5.62932E-004	...........
	3	1.03333	4.56568E-003	4.60391E-003	5.61332E-004	...........
	4	1.29167	4.57375E-003	4.62218E-003	5.61966E-004	...........
	5	1.55	4.58625E-003	4.64096E-003	5.66966E-004	...........
	6	1.80833	4.60236E-003	4.66346E-003	5.65532E-004	...........
	7	2.06667	4.62144E-003	4.71635E-003	5.63899E-004	...........
	8	2.325	4.64441E-003	4.73190E-003	5.61766E-004	...........
	9	2.58333	4.67137E-003	4.73935E-003	5.63332E-004	...........
	10	2.84167	4.69892E-003	4.76754E-003	5.65332E-004	...........
	11	3.1	4.72347E-003	4.79238E-003	5.61666E-004	...........
	12	3.35833	4.74610E-003	4.84827E-003	5.64699E-004	...........
	13	3.61667	4.76965E-003	4.79138E-003	5.60766E-004	...........
	14	3.875	4.79262E-003	4.86600E-003	5.58999E-004	...........
	15	4.13333	4.81184E-003	4.85665E-003	5.60532E-004	...........
	16	4.39167	4.82391E-003	4.64343E-003	5.60666E-004	...........
	17	4.65	4.82145E-003	4.89949E-003	5.62199E-004	...........
	18	4.90833	4.80971E-003	4.91776E-003	5.59532E-004	...........
EOC	QUANT	0.0048097	Open Circuit (V)
PSTATMODEL	IQUANT	4	Pstat Model
PSTATSECTION	LABEL	REF600-11020	Pstat Section
PSTATSERIALNO	LABEL	11020	Pstat Serial Number
CTRLMODE	IQUANT	1	Control Mode
IESTAB	IQUANT	0	I/E Stability
CASPEED	IQUANT	1	Control Amp Speed
CONVENTION	IQUANT	1	Current Convention
ICHRANGE	IQUANT	2	Ich Range
ICHRANGEMODE	TOGGLE	F	Ich Auto Range
ICHOFFSETENABLE	TOGGLE	T	Ich Offset Enable
ICHOFFSET	QUANT	0	Ich Offset (V)
ICHFILTER	IQUANT	3	Ich Filter
VCHRANGE	IQUANT	2	Vch Range
VCHRANGEMODE	TOGGLE	F	Vch Auto Range
VCHOFFSETENABLE	TOGGLE	T	Vch Offset Enable
VCHOFFSET	QUANT	0	Vch Offset (V)
VCHFILTER	IQUANT	3	Vch Filter
ACHRANGE	IQUANT	2	Ach Range
ACHOFFSETENABLE	TOGGLE	F	Ach Offset Enable
ACHOFFSET	QUANT	0	Ach Offset (V)
ACHFILTER	IQUANT	3	Ach Filter
IERANGELOWERLIMIT	IQUANT	1	I/E Range Lower Limit
IERANGEMODE	TOGGLE	F	I/E AutoRange
IERANGE	IQUANT	2	I/E Range
POSFEEDENABLE	TOGGLE	F	Positive Feedback IR Comp
POSFEEDRESISTANCE	QUANT	0	Positive Feedback Resistance (ohm)
ACHSELECT	IQUANT	0	Ach Select
CABLEID	IQUANT	14	Cable ID
DCCALDATE	LABEL	8/19/2019	DC Calibration Date
ACCALDATE	LABEL	8/19/2019	AC Calibration Date
THERMOSELECT	IQUANT	1	Thermo Select
FRAMEWORKVERSION	QUANT	6.33	Framework Version
INSTRUMENTVERSION	LABEL	3.50	Instrument Version
ZCURVE	TABLE
	Pt	Time	Freq	Zreal	Zimag	Zsig	Zmod	Zphz	Idc	Vdc	IERange
	#	s	Hz	ohm	ohm	V	ohm	°	A	V	#
	0	2	1000078	2458.448	-1114.631	1	2699.327	-24.38897	3.596275E-006	0.0055677	8
	1	4	794390.6	2647.406	-972.489	1	2820.372	-20.17014	-9.436679E-007	0.0069	8
	2	5	630984.4	2772.211	-838.0381	1	2896.112	-16.82004	2.273279E-006	0.0061183	8
	3	6	501234.4	2877.897	-713.5508	1	2965.037	-13.9252	-1.056225E-007	0.0066342	8
	4	8	398109.4	2933.73	-581.3334	1	2990.772	-11.20825	2.166427E-006	0.0060055	8
	5	9	316265.6	3006.648	-516.5134	1	3050.691	-9.74772	-8.376395E-007	0.0063349	8
	6	10	251203.1	3063.981	-432.0965	1	3094.299	-8.027177	-1.557237E-006	0.0068349	8
	7	12	199546.9	3071.717	-370.6795	1	3094.002	-6.880897	3.914773E-006	0.005703	8
	8	13	158578.1	3095.556	-316.1466	1	3111.658	-5.831352	-3.926604E-008	0.0065696	8
	9	15	125953.1	3132.41	-236.6172	1	3141.334	-4.319826	-1.038478E-006	0.007896	7
	10	16	100078.1	3141.481	-214.3932	1	3148.788	-3.904148	-1.621084E-008	0.006401	7
	11	17	79453.13	3155.793	-203.9027	1	3162.373	-3.696867	1.063574E-007	0.0062006	7
	12	19	63140.62	3171.429	-197.8957	1	3177.597	-3.5706	-3.662297E-008	0.0064356	7
	13	20	50203.12	3188.579	-194.5854	1	3194.511	-3.492188	-6.693962E-008	0.0064447	7
	14	21	39890.62	3205.785	-200.0177	1	3212.019	-3.570213	1.825172E-008	0.0062838	7
	15	23	31640.63	3219.974	-202.526	1	3226.337	-3.598979	8.0503E-009	0.0064419	7
	16	24	25171.88	3236.111	-214.0824	1	3243.185	-3.784843	8.948875E-009	0.006442	7
	17	25	20015.62	3252.285	-229.7536	1	3260.391	-4.040875	-5.012397E-009	0.0063437	7
	18	27	15890.62	3271.445	-253.4875	1	3281.251	-4.430702	-1.159301E-008	0.0064082	7
	19	28	12609.37	3287.664	-284.4427	1	3299.946	-4.944813	6.234053E-008	0.0062506	7
	20	29	10078.13	3306.467	-322.2203	1	3322.13	-5.565987	-1.147736E-008	0.006403	7
	21	30	8015.625	3327.001	-373.5558	1	3347.907	-6.40634	-6.523777E-008	0.0064375	7
	22	32	6328.125	3350.999	-437.6561	1	3379.458	-7.44098	7.508132E-008	0.0062025	7
	23	33	5015.625	3377.904	-516.798	1	3417.208	-8.698443	3.911703E-008	0.0063122	7
	24	34	3984.375	3408.322	-613.1074	1	3463.027	-10.19761	8.039381E-009	0.0063256	7
	25	36	3170.956	3443.038	-731.4255	1	3519.871	-11.9934	7.350923E-008	0.0061929	7
	26	37	2527.573	3484.554	-873.9819	1	3592.486	-14.08024	-1.856582E-008	0.0063232	7
	27	38	1976.103	3534.996	-1062.633	1	3691.258	-16.73098	-6.689216E-009	0.0063935	7
	28	40	1577.524	3589.798	-1275.609	1	3809.701	-19.5623	-1.855959E-008	0.0063851	7
	29	41	1265.625	3654.479	-1530.585	1	3962.059	-22.72513	-4.227928E-009	0.0063552	7
	30	42	998.264	3726.304	-1855.063	1	4162.523	-26.46547	-6.692671E-009	0.0063914	7
	31	44	796.875	3810.062	-2239.632	1	4419.562	-30.44788	4.201901E-008	0.0062212	7
	32	45	627.7902	3910.96	-2743.26	1	4777.143	-35.04693	-8.701634E-009	0.006373	7
	33	46	505.5147	4018.699	-3300.392	1	5200.243	-39.39485	-2.819839E-008	0.0063618	7
	34	48	397.9953	4158.225	-4061.154	1	5812.384	-44.32337	6.02458E-009	0.006374	7
	35	49	315.5048	4320.121	-4976.115	1	6589.778	-49.03642	7.730034E-009	0.0063676	7
	36	50	252.4038	4509.124	-6059.12	1	7552.822	-53.34382	6.346127E-009	0.0063584	7
	37	52	198.6229	4761.205	-7497.408	1	8881.452	-57.58255	6.905768E-009	0.0063618	7
	38	53	158.3615	5061.409	-9179.495	1	10482.41	-61.12845	9.959461E-010	0.0063017	6
	39	55	125.558	5450.34	-11300.92	1	12546.6	-64.25238	1.727399E-009	0.0063037	6
	40	56	100.4464	5935.426	-13798.34	1	15020.77	-66.7248	4.914833E-010	0.0063046	6
	41	57	79.00281	6618.14	-17107.25	1	18342.78	-68.85045	1.839675E-009	0.0063038	6
	42	59	63.3446	7301.617	-20922.12	1	22159.62	-70.76151	1.133061E-009	0.0062991	6
	43	60	49.86702	8617.281	-25709.43	1	27115.17	-71.46989	2.852767E-010	0.0063	6
	44	61	39.72458	10030.95	-31529.1	1	33086.31	-72.35158	1.709083E-009	0.0062996	6
	45	63	31.6723	11891.24	-38544.44	1	40337.02	-72.85463	1.807676E-009	0.006302	6
	46	64	24.93351	14585.56	-47318.61	1	49515.55	-72.86854	1.24555E-009	0.0063015	6
	47	65	19.86229	18006.08	-57411.16	1	60168.6	-72.58681	2.110503E-009	0.0063035	6
	48	67	15.83615	22895.21	-69602.71	1	73271.6	-71.79183	3.528395E-009	0.0062978	6
	49	68	12.40079	28390.49	-85084.3	1	89695.92	-71.54745	1.345983E-009	0.0062966	6
	50	70	9.93114	36414.98	-101317.1	1	107662.5	-70.23076	1.939748E-010	0.006298	5
	51	71	7.944915	46114.68	-120329.4	1	128863.2	-69.03132	-2.856075E-011	0.0062934	5
	52	73	6.317385	58820.26	-142795.7	1	154435.9	-67.61231	-5.740141E-011	0.006304	5
	53	75	5.008013	75108.49	-168570.8	1	184546.4	-65.98413	1.419575E-010	0.006295	5
	54	77	3.945707	95794.9	-197950.6	1	219911.6	-64.17612	7.076137E-010	0.006301	5
	55	80	3.158693	119180.6	-227894	1	257176.4	-62.392	4.674598E-010	0.0063136	5
	56	83	2.504006	147903	-262815	1	301574.2	-60.63073	-2.27958E-010	0.0062951	5
	57	86	1.998082	180284.3	-298365	1	348603	-58.85792	5.468759E-011	0.0062565	5
	58	89	1.584686	216790	-338037.9	1	401581.3	-57.3272	-8.538633E-011	0.0062898	5
	59	93	1.266892	256547.5	-378598.9	1	457333.3	-55.87751	2.596284E-010	0.0062545	5
	60	97	0.999041	301415.2	-427054.4	1	522710.8	-54.78553	7.863316E-011	0.0063384	5
