EXPLAIN
TAG	EISPOT
TITLE	LABEL	Potentiostatic EIS	Test &Identifier
DATE	LABEL	10/22/2019	Date
TIME	LABEL	9:45:24	Time
NOTES	NOTES	1	&Notes...
	
PSTAT	PSTAT	REF600-11020	Potentiostat
VDC	POTEN	0.00000E+000	T	DC &Voltage (V)
FREQINIT	QUANT	1.00000E+006	Initial Fre&q. (Hz)
FREQFINAL	QUANT	1.00000E+000	Final Fre&q. (Hz)
PTSPERDEC	QUANT	1.00000E+001	Points/&decade
VAC	QUANT	2.50000E+001	AC &Voltage (mV rms)
AREA	QUANT	1.00000E-002	&Area (cm^2)
CONDIT	TWOPARAM	T	5.00000E+000	0.00000E+000	Conditionin&g	Time(s)	E(V)
DELAY	TWOPARAM	T	5.00000E+000	0.00000E+000	Init. De&lay	Time(s)	Stab.(mV/s)
SPEED	SELECTOR	1	&Optimize for:
ZGUESS	QUANT	1.00000E+005	E&stimated Z (ohms)
OCVCURVE	TABLE	19
	Pt	T	Vf	Vm	Ach	Over
	#	s	V vs. Ref.	V	V	bits
	0	0.258333	9.39324E-003	9.39324E-003	5.58632E-004	...........
	1	0.516667	9.39253E-003	9.35598E-003	5.57766E-004	...........
	2	0.775	9.39227E-003	9.53597E-003	5.55266E-004	...........
	3	1.03333	9.40534E-003	9.71542E-003	5.50733E-004	...........
	4	1.29167	9.45519E-003	9.85774E-003	5.55833E-004	...........
	5	1.55	9.55462E-003	1.00711E-002	5.50833E-004	...........
	6	1.80833	9.69417E-003	1.01471E-002	5.58866E-004	...........
	7	2.06667	9.85331E-003	1.03877E-002	5.58266E-004	...........
	8	2.325	1.00149E-002	1.04058E-002	5.58199E-004	...........
	9	2.58333	1.01687E-002	1.05967E-002	5.54166E-004	...........
	10	2.84167	1.03154E-002	1.09790E-002	5.52166E-004	...........
	11	3.1	1.04825E-002	1.15265E-002	5.54766E-004	...........
	12	3.35833	1.07113E-002	1.15799E-002	5.55099E-004	...........
	13	3.61667	1.10000E-002	1.17247E-002	5.54299E-004	...........
	14	3.875	1.12858E-002	1.16351E-002	5.47799E-004	...........
	15	4.13333	1.14967E-002	1.15092E-002	5.49899E-004	...........
	16	4.39167	1.16009E-002	1.15661E-002	5.50666E-004	...........
	17	4.65	1.16176E-002	1.15731E-002	5.52266E-004	...........
	18	4.90833	1.15984E-002	1.16805E-002	5.53999E-004	...........
EOC	QUANT	0.0115984	Open Circuit (V)
PSTATMODEL	IQUANT	4	Pstat Model
PSTATSECTION	LABEL	REF600-11020	Pstat Section
PSTATSERIALNO	LABEL	11020	Pstat Serial Number
CTRLMODE	IQUANT	1	Control Mode
IESTAB	IQUANT	0	I/E Stability
CASPEED	IQUANT	1	Control Amp Speed
CONVENTION	IQUANT	1	Current Convention
ICHRANGE	IQUANT	2	Ich Range
ICHRANGEMODE	TOGGLE	F	Ich Auto Range
ICHOFFSETENABLE	TOGGLE	T	Ich Offset Enable
ICHOFFSET	QUANT	0	Ich Offset (V)
ICHFILTER	IQUANT	3	Ich Filter
VCHRANGE	IQUANT	2	Vch Range
VCHRANGEMODE	TOGGLE	F	Vch Auto Range
VCHOFFSETENABLE	TOGGLE	T	Vch Offset Enable
VCHOFFSET	QUANT	0	Vch Offset (V)
VCHFILTER	IQUANT	3	Vch Filter
ACHRANGE	IQUANT	2	Ach Range
ACHOFFSETENABLE	TOGGLE	F	Ach Offset Enable
ACHOFFSET	QUANT	0	Ach Offset (V)
ACHFILTER	IQUANT	3	Ach Filter
IERANGELOWERLIMIT	IQUANT	1	I/E Range Lower Limit
IERANGEMODE	TOGGLE	F	I/E AutoRange
IERANGE	IQUANT	5	I/E Range
POSFEEDENABLE	TOGGLE	F	Positive Feedback IR Comp
POSFEEDRESISTANCE	QUANT	0	Positive Feedback Resistance (ohm)
ACHSELECT	IQUANT	0	Ach Select
CABLEID	IQUANT	14	Cable ID
DCCALDATE	LABEL	8/19/2019	DC Calibration Date
ACCALDATE	LABEL	8/19/2019	AC Calibration Date
THERMOSELECT	IQUANT	1	Thermo Select
FRAMEWORKVERSION	QUANT	6.33	Framework Version
INSTRUMENTVERSION	LABEL	3.50	Instrument Version
ZCURVE	TABLE
	Pt	Time	Freq	Zreal	Zimag	Zsig	Zmod	Zphz	Idc	Vdc	IERange
	#	s	Hz	ohm	ohm	V	ohm	°	A	V	#
	0	2	1000078	2555.994	-2019.755	1	3257.686	-38.31591	1.540173E-006	0.0128051	8
	1	4	794390.6	2969.173	-1968.334	1	3562.349	-33.54133	-6.404921E-007	0.0135162	8
	2	5	630984.4	3365.452	-1870.223	1	3850.195	-29.06146	3.301453E-006	0.0125584	8
	3	6	501234.4	3703.356	-1716.941	1	4082	-24.87326	-2.842778E-006	0.0136303	8
	4	8	398109.4	3953.733	-1509.525	1	4232.1	-20.89673	-9.86069E-008	0.0130856	8
	5	9	316265.6	4181.613	-1330.608	1	4388.212	-17.6513	3.110792E-006	0.0124466	8
	6	11	251203.1	4352.254	-1149.915	1	4501.603	-14.8	9.019702E-007	0.012853	8
	7	12	199546.9	4483.821	-984.673	1	4590.668	-12.38587	1.502168E-006	0.0129113	8
	8	14	158578.1	4577.251	-854.2598	1	4656.285	-10.57158	1.12752E-006	0.0128254	8
	9	15	125953.1	4681.205	-710.1963	1	4734.771	-8.62669	-7.231775E-007	0.0138249	7
	10	16	100078.1	4722.71	-608.1581	1	4761.707	-7.337774	-6.074816E-008	0.0132182	7
	11	18	79453.13	4768.362	-553.4658	1	4800.375	-6.620719	-3.7745E-008	0.01305	7
	12	19	63140.62	4810.91	-515.189	1	4838.417	-6.112375	-4.145801E-008	0.0130505	7
	13	20	50203.12	4850.68	-490.8341	1	4875.45	-5.77802	8.193692E-008	0.0128519	7
	14	22	39890.62	4889.779	-478.9394	1	4913.179	-5.594108	9.397295E-008	0.0129582	7
	15	23	31640.63	4926.32	-483.6414	1	4950.004	-5.607044	-3.859824E-008	0.0130451	7
	16	25	25171.88	4967.129	-498.9301	1	4992.125	-5.735913	4.010781E-008	0.0128954	7
	17	26	20015.62	4986.132	-528.6843	1	5014.083	-6.052511	9.416672E-008	0.0129641	7
	18	27	15890.62	5051.479	-569.8338	1	5083.518	-6.436062	1.3671E-007	0.0128197	7
	19	29	12609.37	5098.582	-622.8581	1	5136.486	-6.964914	-7.979291E-008	0.0131586	7
	20	30	10078.13	5143.947	-695.8032	1	5190.793	-7.703437	-7.180804E-010	0.0130567	7
	21	31	8015.625	5188.69	-790.4719	1	5248.557	-8.662131	-4.72666E-008	0.0130577	7
	22	33	6328.125	5255.052	-902.4109	1	5331.971	-9.74394	-5.957298E-008	0.0131987	7
	23	34	5015.625	5316.04	-1048.521	1	5418.457	-11.15765	4.238467E-008	0.0129671	7
	24	35	3984.375	5377.869	-1236.447	1	5518.177	-12.94808	-1.565068E-009	0.0130298	7
	25	37	3170.956	5454.737	-1447.282	1	5643.472	-14.85967	-1.663901E-008	0.0129843	7
	26	38	2527.573	5536.24	-1714.258	1	5795.57	-17.20478	9.362914E-008	0.0129527	7
	27	39	1976.103	5639.497	-2071.215	1	6007.816	-20.16674	-3.147696E-008	0.0130432	7
	28	41	1577.524	5785.872	-2502.592	1	6303.91	-23.39017	-1.661193E-009	0.0130281	7
	29	42	1265.625	5882.694	-2959.086	1	6585.004	-26.7031	-1.613037E-008	0.0129818	7
	30	43	998.264	6037.379	-3593.275	1	7025.779	-30.7599	-3.971924E-008	0.0131028	7
	31	45	796.875	6224.757	-4326.933	1	7580.894	-34.80381	-8.413529E-009	0.0131567	7
	32	46	627.7902	6454.41	-5269.106	1	8332.04	-39.22674	3.916668E-008	0.0128844	7
	33	47	505.5147	6687.797	-6327.886	1	9206.996	-43.41606	-7.421984E-009	0.0131598	7
	34	49	397.9953	7002.952	-7735.993	1	10434.89	-47.84726	1.056446E-009	0.0129795	6
	35	50	315.5048	7362.43	-9438.711	1	11970.57	-52.04488	3.937227E-010	0.012976	6
	36	51	252.4038	7778.028	-11446.84	1	13839.36	-55.80423	4.183459E-010	0.0129702	6
	37	53	198.6229	8335.962	-14103.37	1	16382.71	-59.41429	8.969248E-010	0.0129793	6
	38	54	158.3615	8996.894	-17201.1	1	19411.9	-62.38856	1.244917E-009	0.0129719	6
	39	56	125.558	9862.85	-21085	1	23277.74	-64.9314	8.776473E-010	0.012976	6
	40	57	100.4464	10911.05	-25651.98	1	27876.06	-66.95756	1.505405E-009	0.0129738	6
	41	58	79.00281	12469.54	-31611.34	1	33981.85	-68.47253	-1.372664E-011	0.012971	6
	42	60	63.3446	14028.58	-38028.07	1	40533.14	-69.75095	6.967296E-010	0.0129699	6
	43	61	49.86702	16991.29	-47162.34	1	50129.73	-70.18731	2.31747E-010	0.0129686	6
	44	62	39.72458	19952.66	-57348.68	1	60720.5	-70.81628	4.495516E-010	0.0129749	6
	45	64	31.6723	24010.22	-69317.75	1	73358.3	-70.89498	2.977189E-010	0.0129777	6
	46	65	24.93351	29864.39	-84662.7	1	89775.59	-70.56993	9.586164E-010	0.0129706	6
	47	67	19.86229	37145.84	-101888.4	1	108448.4	-69.96947	3.760914E-010	0.0129849	5
	48	68	15.83615	47198.06	-121422.1	1	130272.7	-68.75836	-6.162547E-010	0.0129776	5
	49	69	12.40079	58438.55	-146872.4	1	158071.4	-68.30306	9.434249E-011	0.0129817	5
	50	71	9.93114	75202.64	-173204.6	1	188826	-66.5303	6.726593E-010	0.0129749	5
	51	72	7.944915	94399.14	-203692.3	1	224503.3	-65.13511	1.632008E-010	0.0129714	5
	52	74	6.317385	118180.4	-235906	1	263852.7	-63.39077	3.783569E-010	0.0129617	5
	53	76	5.008013	147908.6	-273193.8	1	310663.5	-61.56866	-1.675712E-010	0.0129757	5
	54	79	3.945707	182432.7	-314119.2	1	363252.8	-59.85303	1.067597E-010	0.0129786	5
	55	81	3.158693	219519.6	-355901.3	1	418156.2	-58.33375	-1.280678E-010	0.012966	5
	56	85	2.504006	261917	-404041.2	1	481507.8	-57.04694	3.33668E-010	0.0129866	5
	57	87	1.998082	307689	-455406.5	1	549606.8	-55.95562	3.038773E-010	0.0129983	5
	58	90	1.584686	358494.4	-513582.1	1	626326.4	-55.0839	1.232908E-010	0.0129405	5
	59	94	1.266892	411973.9	-580710.1	1	712001.9	-54.64692	1.590887E-010	0.0130057	5
	60	98	0.999041	474605.2	-661783.3	1	814375.4	-54.35338	-1.401154E-010	0.0129347	5
