EXPLAIN
TAG	EISPOT
TITLE	LABEL	Potentiostatic EIS	Test &Identifier
DATE	LABEL	11/5/2019	Date
TIME	LABEL	10:50:02	Time
NOTES	NOTES	2	&Notes...
	
	
PSTAT	PSTAT	REF600-11020	Potentiostat
VDC	POTEN	0.00000E+000	T	DC &Voltage (V)
FREQINIT	QUANT	1.00000E+006	Initial Fre&q. (Hz)
FREQFINAL	QUANT	1.00000E+000	Final Fre&q. (Hz)
PTSPERDEC	QUANT	1.00000E+001	Points/&decade
VAC	QUANT	2.50000E+001	AC &Voltage (mV rms)
AREA	QUANT	1.00000E-002	&Area (cm^2)
CONDIT	TWOPARAM	T	5.00000E+000	0.00000E+000	Conditionin&g	Time(s)	E(V)
DELAY	TWOPARAM	T	5.00000E+000	0.00000E+000	Init. De&lay	Time(s)	Stab.(mV/s)
SPEED	SELECTOR	1	&Optimize for:
ZGUESS	QUANT	1.00000E+005	E&stimated Z (ohms)
OCVCURVE	TABLE	19
	Pt	T	Vf	Vm	Ach	Over
	#	s	V vs. Ref.	V	V	bits
	0	0.258333	3.97608E-003	3.97608E-003	5.68699E-004	...........
	1	0.516667	3.97010E-003	3.66345E-003	5.74165E-004	...........
	2	0.775	3.93377E-003	3.38513E-003	5.82499E-004	...........
	3	1.03333	3.83265E-003	3.14419E-003	5.77532E-004	...........
	4	1.29167	3.65625E-003	2.92062E-003	5.73866E-004	...........
	5	1.55	3.43002E-003	2.72587E-003	5.74699E-004	...........
	6	1.80833	3.19073E-003	2.54754E-003	5.73532E-004	...........
	7	2.06667	2.96335E-003	2.38167E-003	5.68966E-004	...........
	8	2.325	2.75727E-003	2.23527E-003	5.65099E-004	...........
	9	2.58333	2.57244E-003	2.09559E-003	5.74232E-004	...........
	10	2.84167	2.40568E-003	1.96888E-003	5.74532E-004	...........
	11	3.1	2.25371E-003	1.84835E-003	5.71366E-004	...........
	12	3.35833	2.11397E-003	1.74074E-003	5.74165E-004	...........
	13	3.61667	1.98466E-003	1.63180E-003	5.73466E-004	...........
	14	3.875	1.86434E-003	1.53402E-003	5.77866E-004	...........
	15	4.13333	1.75165E-003	1.44042E-003	5.66266E-004	...........
	16	4.39167	1.64567E-003	1.35479E-003	5.70732E-004	...........
	17	4.65	1.54601E-003	1.27086E-003	5.73666E-004	...........
	18	4.90833	1.45225E-003	1.18778E-003	5.73466E-004	...........
EOC	QUANT	0.0014522	Open Circuit (V)
PSTATMODEL	IQUANT	4	Pstat Model
PSTATSECTION	LABEL	REF600-11020	Pstat Section
PSTATSERIALNO	LABEL	11020	Pstat Serial Number
CTRLMODE	IQUANT	1	Control Mode
IESTAB	IQUANT	0	I/E Stability
CASPEED	IQUANT	1	Control Amp Speed
CONVENTION	IQUANT	1	Current Convention
ICHRANGE	IQUANT	2	Ich Range
ICHRANGEMODE	TOGGLE	F	Ich Auto Range
ICHOFFSETENABLE	TOGGLE	T	Ich Offset Enable
ICHOFFSET	QUANT	0	Ich Offset (V)
ICHFILTER	IQUANT	3	Ich Filter
VCHRANGE	IQUANT	2	Vch Range
VCHRANGEMODE	TOGGLE	F	Vch Auto Range
VCHOFFSETENABLE	TOGGLE	T	Vch Offset Enable
VCHOFFSET	QUANT	0	Vch Offset (V)
VCHFILTER	IQUANT	3	Vch Filter
ACHRANGE	IQUANT	2	Ach Range
ACHOFFSETENABLE	TOGGLE	F	Ach Offset Enable
ACHOFFSET	QUANT	0	Ach Offset (V)
ACHFILTER	IQUANT	3	Ach Filter
IERANGELOWERLIMIT	IQUANT	1	I/E Range Lower Limit
IERANGEMODE	TOGGLE	F	I/E AutoRange
IERANGE	IQUANT	4	I/E Range
POSFEEDENABLE	TOGGLE	F	Positive Feedback IR Comp
POSFEEDRESISTANCE	QUANT	0	Positive Feedback Resistance (ohm)
ACHSELECT	IQUANT	0	Ach Select
CABLEID	IQUANT	14	Cable ID
DCCALDATE	LABEL	8/19/2019	DC Calibration Date
ACCALDATE	LABEL	8/19/2019	AC Calibration Date
THERMOSELECT	IQUANT	1	Thermo Select
FRAMEWORKVERSION	QUANT	6.33	Framework Version
INSTRUMENTVERSION	LABEL	3.50	Instrument Version
ZCURVE	TABLE
	Pt	Time	Freq	Zreal	Zimag	Zsig	Zmod	Zphz	Idc	Vdc	IERange
	#	s	Hz	ohm	ohm	V	ohm	°	A	V	#
	0	2	1000078	2301.436	-1740.81	1	2885.659	-37.10391	-4.212216E-006	0.0045375	8
	1	3	794390.6	2647.518	-1689.399	1	3140.609	-32.54222	4.156104E-006	0.0037413	8
	2	4	630984.4	2964.256	-1594.114	1	3365.711	-28.27041	7.92155E-006	0.0022621	8
	3	6	501234.4	3243.448	-1475.178	1	3563.16	-24.45689	3.496345E-006	0.003098	8
	4	7	398109.4	3478.999	-1330.262	1	3724.652	-20.92532	-8.080105E-007	0.0035949	8
	5	8	316265.6	3641.61	-1179.755	1	3827.942	-17.95053	-2.037289E-006	0.003151	8
	6	10	251203.1	3794.831	-1053.547	1	3938.363	-15.51609	-3.064292E-006	0.0036355	8
	7	11	199546.9	3933.204	-931.7592	1	4042.063	-13.32744	6.605018E-006	0.0022545	8
	8	13	158578.1	4020.901	-854.5275	1	4110.701	-11.99807	2.713787E-006	0.002398	8
	9	14	125953.1	4140.81	-698.0288	1	4199.232	-9.56856	-2.548306E-006	0.0038254	7
	10	16	100078.1	4189.893	-638.3939	1	4238.248	-8.663254	-3.18266E-007	0.0020231	7
	11	17	79453.13	4252.14	-610.5034	1	4295.743	-8.170438	5.627134E-007	0.0011184	7
	12	18	63140.62	4305.938	-590.6288	1	4346.256	-7.810301	-1.158019E-006	0.0035431	7
	13	20	50203.12	4365.645	-587.3662	1	4404.98	-7.662722	1.1278E-006	0.0022215	7
	14	21	39890.62	4420.601	-592.1369	1	4460.083	-7.629323	-1.354892E-006	0.0041718	7
	15	23	31640.63	4483.459	-615.2559	1	4525.478	-7.813777	1.222605E-006	0.0013619	7
	16	24	25171.88	4542.753	-644.8231	1	4588.29	-8.078904	-1.012465E-006	0.0048644	7
	17	25	20015.62	4614.212	-692.4016	1	4665.873	-8.534042	1.111322E-006	0.0011013	7
	18	27	15890.62	4686.528	-746.7098	1	4745.642	-9.052906	6.715892E-007	0.0032409	7
	19	28	12609.37	4768.288	-814.9694	1	4837.431	-9.69896	-1.012803E-006	0.0048639	7
	20	29	10078.13	4860.155	-897.8785	1	4942.397	-10.46697	1.110922E-006	0.0011042	7
	21	31	8015.625	4955.434	-995.797	1	5054.497	-11.36229	1.109693E-006	0.0010982	7
	22	32	6328.125	5068.645	-1111.789	1	5189.146	-12.3717	6.307499E-008	0.0040812	7
	23	33	5015.625	5192.126	-1246.61	1	5339.683	-13.50095	5.645324E-007	0.0011083	7
	24	35	3984.375	5332.946	-1392.794	1	5511.823	-14.63687	-3.206226E-007	0.0020006	7
	25	36	3170.956	5480.179	-1569.299	1	5700.444	-15.97955	1.224411E-006	0.0013613	7
	26	37	2527.573	5638.868	-1764.381	1	5908.458	-17.37471	-1.157044E-006	0.0035293	7
	27	39	1976.103	5818.65	-2015.037	1	6157.684	-19.10131	-1.374191E-006	0.0045937	7
	28	40	1577.524	6012.552	-2260.899	1	6423.585	-20.60776	-1.233105E-006	0.0047778	7
	29	42	1265.625	6187.819	-2589.436	1	6707.778	-22.708	-3.207758E-007	0.0019959	7
	30	43	998.264	6391.683	-2986.204	1	7054.858	-25.04205	1.224112E-006	0.001351	7
	31	45	796.875	6582.938	-3446.168	1	7430.42	-27.63206	4.24656E-007	0.0035969	7
	32	46	627.7902	6795.609	-4052.973	1	7912.452	-30.8123	-1.350325E-006	0.0041616	7
	33	48	505.5147	6996.016	-4744.007	1	8452.801	-34.14125	-1.160634E-006	0.003529	7
	34	49	397.9953	7237.075	-5712.325	1	9219.865	-38.28453	3.290064E-009	0.0030125	7
	35	51	315.5048	7506.021	-6879.662	1	10181.85	-42.50689	7.257838E-010	0.0029481	6
	36	52	252.4038	7806.161	-8280.678	1	11380.06	-46.68958	3.184764E-010	0.0029513	6
	37	53	198.6229	8198.952	-10152.93	1	13050.09	-51.07755	6.976534E-010	0.0029521	6
	38	55	158.3615	8671.724	-12344.37	1	15085.83	-54.91257	2.088612E-010	0.0029437	6
	39	56	125.558	9287.783	-15119.85	1	17744.65	-58.43853	1.63858E-010	0.0029527	6
	40	57	100.4464	10083.12	-18365.39	1	20951.3	-61.23197	3.506067E-010	0.0029353	6
	41	59	79.00281	11183.63	-22619.45	1	25233.18	-63.69105	-4.027331E-011	0.0029362	6
	42	60	63.3446	12403.09	-27704.54	1	30354.21	-65.88235	4.648263E-010	0.0029386	6
	43	62	49.86702	14100.04	-33669.98	1	36503.13	-67.27743	-1.440793E-010	0.0029368	6
	44	63	39.72458	16653.99	-40928.58	1	44187.15	-67.85841	4.694743E-010	0.0029424	6
	45	65	31.6723	19618.52	-49535.46	1	53278.97	-68.39396	6.718111E-010	0.0029434	6
	46	66	24.93351	23896.17	-60131.32	1	64705.51	-68.32714	3.695009E-010	0.002942	6
	47	67	19.86229	29149.97	-72199.98	1	77862.43	-68.01413	6.246279E-010	0.002948	6
	48	69	15.83615	35193.09	-85971.08	1	92895.53	-67.73779	1.287448E-009	0.0029458	6
	49	70	12.40079	44390.63	-104080.5	1	113151.5	-66.9016	-9.463924E-010	0.0029558	5
	50	72	9.93114	55043.3	-121285.3	1	133191.2	-65.58987	7.801703E-011	0.0029577	5
	51	73	7.944915	67043.1	-140649.4	1	155810.9	-64.51434	1.002616E-009	0.0029503	5
	52	75	6.317385	81691.11	-164332.9	1	183517.7	-63.56769	-2.593968E-010	0.0029551	5
	53	77	5.008013	98738.4	-190808.5	1	214842.2	-62.63963	-8.670796E-011	0.0029423	5
	54	79	3.945707	117940.1	-222031.2	1	251411.5	-62.02335	1.715511E-010	0.0029447	5
	55	82	3.158693	137407.3	-255574.3	1	290170.6	-61.73569	1.808996E-010	0.0029528	5
	56	86	2.504006	159279.8	-297170.9	1	337165.5	-61.80925	-1.577005E-010	0.0029531	5
	57	88	1.998082	182363.6	-345305.4	1	390502.6	-62.16045	1.008062E-010	0.002904	5
	58	91	1.584686	208922.5	-404404.7	1	455183.2	-62.67833	1.11592E-010	0.0029865	5
	59	95	1.266892	237704	-475607.4	1	531700.6	-63.44455	3.186494E-011	0.0029315	5
	60	99	0.999041	274605.2	-566811.6	1	629828	-64.15105	2.377954E-010	0.0029807	5
