EXPLAIN
TAG	EISPOT
TITLE	LABEL	Potentiostatic EIS	Test &Identifier
DATE	LABEL	10/26/2019	Date
TIME	LABEL	10:16:26	Time
NOTES	NOTES	1	&Notes...
	
PSTAT	PSTAT	REF600-11020	Potentiostat
VDC	POTEN	0.00000E+000	T	DC &Voltage (V)
FREQINIT	QUANT	1.00000E+006	Initial Fre&q. (Hz)
FREQFINAL	QUANT	1.00000E+000	Final Fre&q. (Hz)
PTSPERDEC	QUANT	1.00000E+001	Points/&decade
VAC	QUANT	2.50000E+001	AC &Voltage (mV rms)
AREA	QUANT	1.00000E-002	&Area (cm^2)
CONDIT	TWOPARAM	T	5.00000E+000	0.00000E+000	Conditionin&g	Time(s)	E(V)
DELAY	TWOPARAM	T	5.00000E+000	0.00000E+000	Init. De&lay	Time(s)	Stab.(mV/s)
SPEED	SELECTOR	0	&Optimize for:
ZGUESS	QUANT	1.00000E+005	E&stimated Z (ohms)
OCVCURVE	TABLE	19
	Pt	T	Vf	Vm	Ach	Over
	#	s	V vs. Ref.	V	V	bits
	0	0.258333	6.00961E-003	6.00961E-003	6.21598E-004	...........
	1	0.516667	6.00893E-003	5.97410E-003	6.21498E-004	...........
	2	0.775	6.00502E-003	5.95398E-003	6.27131E-004	...........
	3	1.03333	5.99509E-003	5.94846E-003	6.25631E-004	...........
	4	1.29167	5.98031E-003	5.95204E-003	6.25965E-004	...........
	5	1.55	5.96606E-003	5.95930E-003	6.24731E-004	...........
	6	1.80833	5.95746E-003	5.97241E-003	6.29298E-004	...........
	7	2.06667	5.95637E-003	5.98572E-003	6.27431E-004	...........
	8	2.325	5.96194E-003	6.00159E-003	6.24498E-004	...........
	9	2.58333	5.97226E-003	6.01764E-003	6.18098E-004	...........
	10	2.84167	5.98569E-003	6.04105E-003	6.17865E-004	...........
	11	3.1	6.00146E-003	6.06170E-003	6.16598E-004	...........
	12	3.35833	6.01941E-003	6.08357E-003	6.17632E-004	...........
	13	3.61667	6.03929E-003	6.10954E-003	6.23132E-004	...........
	14	3.875	6.06077E-003	6.13473E-003	6.24831E-004	...........
	15	4.13333	6.08370E-003	6.16135E-003	6.20765E-004	...........
	16	4.39167	6.10791E-003	6.18460E-003	6.23531E-004	...........
	17	4.65	6.13286E-003	6.20783E-003	6.21865E-004	...........
	18	4.90833	6.15788E-003	6.23613E-003	6.30898E-004	...........
EOC	QUANT	0.0061579	Open Circuit (V)
PSTATMODEL	IQUANT	4	Pstat Model
PSTATSECTION	LABEL	REF600-11020	Pstat Section
PSTATSERIALNO	LABEL	11020	Pstat Serial Number
CTRLMODE	IQUANT	1	Control Mode
IESTAB	IQUANT	0	I/E Stability
CASPEED	IQUANT	1	Control Amp Speed
CONVENTION	IQUANT	1	Current Convention
ICHRANGE	IQUANT	2	Ich Range
ICHRANGEMODE	TOGGLE	F	Ich Auto Range
ICHOFFSETENABLE	TOGGLE	T	Ich Offset Enable
ICHOFFSET	QUANT	0	Ich Offset (V)
ICHFILTER	IQUANT	3	Ich Filter
VCHRANGE	IQUANT	2	Vch Range
VCHRANGEMODE	TOGGLE	F	Vch Auto Range
VCHOFFSETENABLE	TOGGLE	T	Vch Offset Enable
VCHOFFSET	QUANT	0	Vch Offset (V)
VCHFILTER	IQUANT	3	Vch Filter
ACHRANGE	IQUANT	2	Ach Range
ACHOFFSETENABLE	TOGGLE	F	Ach Offset Enable
ACHOFFSET	QUANT	0	Ach Offset (V)
ACHFILTER	IQUANT	3	Ach Filter
IERANGELOWERLIMIT	IQUANT	1	I/E Range Lower Limit
IERANGEMODE	TOGGLE	F	I/E AutoRange
IERANGE	IQUANT	5	I/E Range
POSFEEDENABLE	TOGGLE	F	Positive Feedback IR Comp
POSFEEDRESISTANCE	QUANT	0	Positive Feedback Resistance (ohm)
ACHSELECT	IQUANT	0	Ach Select
CABLEID	IQUANT	14	Cable ID
DCCALDATE	LABEL	8/19/2019	DC Calibration Date
ACCALDATE	LABEL	8/19/2019	AC Calibration Date
THERMOSELECT	IQUANT	1	Thermo Select
FRAMEWORKVERSION	QUANT	6.33	Framework Version
INSTRUMENTVERSION	LABEL	3.50	Instrument Version
ZCURVE	TABLE
	Pt	Time	Freq	Zreal	Zimag	Zsig	Zmod	Zphz	Idc	Vdc	IERange
	#	s	Hz	ohm	ohm	V	ohm	°	A	V	#
	0	1	1000078	2235.6	-1357.467	1	2615.459	-31.26631	-1.056069E-006	0.0094433	8
	1	2	794390.6	2486.24	-1268.782	1	2791.272	-27.0362	-1.050945E-006	0.0086115	8
	2	2	630984.4	2712.037	-1154.753	1	2947.643	-23.06373	3.589067E-006	0.0075693	8
	3	2	501234.4	2885.603	-1009.781	1	3057.182	-19.28685	2.498024E-007	0.0077522	8
	4	3	398109.4	3019.934	-878.0426	1	3144.989	-16.21173	2.996655E-006	0.0073714	8
	5	3	316265.6	3125.143	-758.0518	1	3215.768	-13.63464	2.759929E-006	0.0074075	8
	6	3	251203.1	3205.489	-644.3133	1	3269.602	-11.36519	1.647616E-007	0.0078692	8
	7	4	199546.9	3265.626	-556.1757	1	3312.649	-9.66543	1.493521E-006	0.0074987	8
	8	4	158578.1	3310.544	-487.0803	1	3346.184	-8.369877	1.276904E-006	0.0076188	8
	9	4	125953.1	3348.394	-392.5564	1	3371.327	-6.686674	-1.621496E-007	0.0088082	7
	10	5	100078.1	3382.486	-349.3562	1	3400.48	-5.896819	6.321952E-009	0.0077685	7
	11	5	79453.13	3407.16	-327.0605	1	3422.821	-5.483144	3.169104E-008	0.0077785	7
	12	5	63140.62	3432.116	-313.7581	1	3446.428	-5.223361	-4.223214E-009	0.0077925	7
	13	6	50203.12	3455.993	-309.2975	1	3469.805	-5.114119	-2.750769E-008	0.0078097	7
	14	6	39890.62	3480.792	-311.1344	1	3494.67	-5.107871	-5.807429E-008	0.0078878	7
	15	6	31640.63	3506.349	-322.9612	1	3521.191	-5.262526	-3.649171E-008	0.0078948	7
	16	7	25171.88	3532.68	-341.2513	1	3549.124	-5.517562	-2.785616E-008	0.0078106	7
	17	7	20015.62	3560.697	-373.5595	1	3580.239	-5.989101	-5.846032E-008	0.0078844	7
	18	7	15890.62	3589.094	-405.682	1	3611.949	-6.448878	7.753382E-009	0.0078814	7
	19	7	12609.37	3621.095	-455.4583	1	3649.626	-7.168968	-1.244935E-008	0.007833	7
	20	8	10078.13	3654.269	-514.8239	1	3690.356	-8.019217	8.561326E-009	0.0077494	7
	21	8	8015.625	3689.476	-589.0289	1	3736.2	-9.070783	-4.266911E-008	0.0078545	7
	22	8	6328.125	3729.302	-687.0319	1	3792.058	-10.4383	-1.319321E-008	0.0077755	7
	23	9	5015.625	3771.912	-807.64	1	3857.409	-12.08565	9.297439E-008	0.0076614	7
	24	9	3984.375	3819.831	-953.295	1	3936.989	-14.01277	-1.425897E-008	0.0078288	7
	25	9	3170.956	3873.863	-1134.117	1	4036.463	-16.31799	4.596954E-008	0.0077251	7
	26	10	2527.573	3934.609	-1352.609	1	4160.612	-18.97154	-5.88151E-008	0.0078707	7
	27	10	1976.103	4011.405	-1646.601	1	4336.204	-22.31717	-7.726854E-009	0.0078378	7
	28	10	1577.524	4100.123	-1997.745	1	4560.919	-25.97721	-1.128046E-008	0.0077692	7
	29	11	1265.625	4190.809	-2367.204	1	4813.163	-29.46019	4.578357E-008	0.0077233	7
	30	11	998.264	4310.081	-2884.134	1	5186.042	-33.78886	-3.555424E-008	0.0078768	7
	31	11	796.875	4442.695	-3478.943	1	5642.747	-38.06345	-4.359893E-008	0.0078482	7
	32	12	627.7902	4606.754	-4256.689	1	6272.287	-42.73826	-4.528474E-008	0.0078501	7
	33	12	505.5147	4778.303	-5124.316	1	7006.482	-47.00119	7.130173E-009	0.0077425	7
	34	12	397.9953	5007.042	-6303.542	1	8050.162	-51.53911	2.484395E-009	0.0078248	7
	35	13	315.5048	5275.165	-7718.755	1	9349.146	-55.65045	2.219772E-009	0.0078229	7
	36	13	252.4038	5591.689	-9395.387	1	10933.45	-59.2409	7.31026E-010	0.00776	6
	37	13	198.6229	6015.583	-11616.73	1	13081.88	-62.62316	5.654097E-010	0.00776	6
	38	14	158.3615	6525.932	-14204.84	1	15632.18	-65.32519	9.801655E-010	0.0077567	6
	39	14	125.558	7202.823	-17469.01	1	18895.69	-67.59267	7.651418E-010	0.0077575	6
	40	14	100.4464	8014.265	-21310.72	1	22767.85	-69.39036	-5.376842E-010	0.0077584	6
	41	15	79.00281	9200.374	-26300.57	1	27863.36	-70.71931	-7.536626E-010	0.0077546	6
	42	15	63.3446	10922.24	-32251.48	1	34050.74	-71.29089	7.048573E-010	0.007754	6
	43	15	49.86702	12868.68	-39705.69	1	41739.01	-72.04241	1.162335E-009	0.0077554	6
	44	16	39.72458	15339.2	-47933.7	1	50328.23	-72.25488	3.796213E-010	0.00776	6
	45	16	31.6723	18522.34	-57989.86	1	60876.11	-72.28618	7.508437E-010	0.0077572	6
	46	16	24.93351	23276.6	-71117.55	1	74829.85	-71.87686	4.663984E-010	0.007761	6
	47	17	19.86229	29266.24	-85779.72	1	90634.84	-71.16144	2.946257E-010	0.0077645	6
	48	17	15.83615	36992.43	-101681	1	108201.1	-70.00818	1.733642E-009	0.0077633	5
	49	17	12.40079	46601.26	-125298.4	1	133683.8	-69.59871	-7.836974E-011	0.0077669	5
	50	18	9.93114	60059.76	-146968.4	1	158766.8	-67.77225	4.023163E-010	0.0077633	5
	51	18	7.944915	75916.14	-172942.3	1	188871.1	-66.30006	5.723972E-010	0.0077598	5
	52	19	6.317385	95397	-202266.2	1	223634.1	-64.74952	5.882084E-010	0.0077504	5
	53	20	5.008013	120154.6	-235783.6	1	264633.8	-62.99675	4.254273E-010	0.0077639	5
	54	21	3.945707	150507.4	-272646.5	1	311429.9	-61.10025	-1.173631E-010	0.0077621	5
	55	22	3.158693	183323.7	-310067.8	1	360207.7	-59.40683	-1.832486E-010	0.0077456	5
	56	24	2.504006	222271.5	-351804.5	1	416138.2	-57.71513	1.694322E-010	0.0077517	5
	57	25	1.998082	262330.2	-395482.2	1	474576.9	-56.44299	9.335832E-012	0.0077471	5
	58	27	1.584686	308945.6	-446060.6	1	542602.5	-55.29318	-1.53089E-010	0.0077098	5
	59	28	1.266892	355278.3	-502465.8	1	615381.6	-54.73703	-1.436895E-010	0.0077177	5
	60	31	0.999041	407240.7	-570728.6	1	701124.8	-54.49043	-1.43741E-010	0.0077383	5
