EXPLAIN
TAG	EISPOT
TITLE	LABEL	Potentiostatic EIS	Test &Identifier
DATE	LABEL	11/20/2019	Date
TIME	LABEL	11:26:54	Time
NOTES	NOTES	4	&Notes...
	
	
	
	
PSTAT	PSTAT	REF600-11020	Potentiostat
VDC	POTEN	0.00000E+000	T	DC &Voltage (V)
FREQINIT	QUANT	1.00000E+006	Initial Fre&q. (Hz)
FREQFINAL	QUANT	1.00000E+000	Final Fre&q. (Hz)
PTSPERDEC	QUANT	1.00000E+001	Points/&decade
VAC	QUANT	2.50000E+001	AC &Voltage (mV rms)
AREA	QUANT	1.00000E-002	&Area (cm^2)
CONDIT	TWOPARAM	T	5.00000E+000	0.00000E+000	Conditionin&g	Time(s)	E(V)
DELAY	TWOPARAM	T	5.00000E+000	0.00000E+000	Init. De&lay	Time(s)	Stab.(mV/s)
SPEED	SELECTOR	1	&Optimize for:
ZGUESS	QUANT	1.00000E+005	E&stimated Z (ohms)
OCVCURVE	TABLE	19
	Pt	T	Vf	Vm	Ach	Over
	#	s	V vs. Ref.	V	V	bits
	0	0.258333	-3.09003E-003	-3.09003E-003	5.23000E-004	...........
	1	0.516667	-3.06759E-003	-1.91510E-003	5.19166E-004	...........
	2	0.775	-2.91380E-003	3.42151E-005	5.17000E-004	...........
	3	1.03333	-2.38149E-003	4.21810E-003	5.20866E-004	...........
	4	1.29167	-1.17947E-003	5.83022E-003	5.18300E-004	...........
	5	1.55	7.10875E-004	6.02978E-003	5.15200E-004	...........
	6	1.80833	2.82654E-003	5.97440E-003	5.19866E-004	...........
	7	2.06667	4.53393E-003	5.79741E-003	5.25533E-004	...........
	8	2.325	5.50474E-003	4.87379E-003	5.18066E-004	...........
	9	2.58333	5.71725E-003	1.11684E-003	5.21300E-004	...........
	10	2.84167	5.18648E-003	1.19746E-003	5.22800E-004	...........
	11	3.1	4.07642E-003	2.54048E-003	5.19600E-004	...........
	12	3.35833	2.93306E-003	3.07047E-003	5.23633E-004	...........
	13	3.61667	2.32711E-003	3.17748E-003	5.23700E-004	...........
	14	3.875	2.34264E-003	3.33690E-003	5.26400E-004	...........
	15	4.13333	2.66935E-003	3.33771E-003	5.21200E-004	...........
	16	4.39167	3.00219E-003	3.28931E-003	5.26400E-004	...........
	17	4.65	3.21139E-003	3.23921E-003	5.27033E-004	...........
	18	4.90833	3.29312E-003	3.15439E-003	5.24566E-004	...........
EOC	QUANT	0.0032931	Open Circuit (V)
PSTATMODEL	IQUANT	4	Pstat Model
PSTATSECTION	LABEL	REF600-11020	Pstat Section
PSTATSERIALNO	LABEL	11020	Pstat Serial Number
CTRLMODE	IQUANT	1	Control Mode
IESTAB	IQUANT	0	I/E Stability
CASPEED	IQUANT	1	Control Amp Speed
CONVENTION	IQUANT	1	Current Convention
ICHRANGE	IQUANT	2	Ich Range
ICHRANGEMODE	TOGGLE	F	Ich Auto Range
ICHOFFSETENABLE	TOGGLE	T	Ich Offset Enable
ICHOFFSET	QUANT	0	Ich Offset (V)
ICHFILTER	IQUANT	3	Ich Filter
VCHRANGE	IQUANT	2	Vch Range
VCHRANGEMODE	TOGGLE	F	Vch Auto Range
VCHOFFSETENABLE	TOGGLE	T	Vch Offset Enable
VCHOFFSET	QUANT	0	Vch Offset (V)
VCHFILTER	IQUANT	3	Vch Filter
ACHRANGE	IQUANT	2	Ach Range
ACHOFFSETENABLE	TOGGLE	F	Ach Offset Enable
ACHOFFSET	QUANT	0	Ach Offset (V)
ACHFILTER	IQUANT	3	Ach Filter
IERANGELOWERLIMIT	IQUANT	1	I/E Range Lower Limit
IERANGEMODE	TOGGLE	F	I/E AutoRange
IERANGE	IQUANT	4	I/E Range
POSFEEDENABLE	TOGGLE	F	Positive Feedback IR Comp
POSFEEDRESISTANCE	QUANT	0	Positive Feedback Resistance (ohm)
ACHSELECT	IQUANT	0	Ach Select
CABLEID	IQUANT	14	Cable ID
DCCALDATE	LABEL	8/19/2019	DC Calibration Date
ACCALDATE	LABEL	8/19/2019	AC Calibration Date
THERMOSELECT	IQUANT	1	Thermo Select
FRAMEWORKVERSION	QUANT	6.33	Framework Version
INSTRUMENTVERSION	LABEL	3.50	Instrument Version
ZCURVE	TABLE
	Pt	Time	Freq	Zreal	Zimag	Zsig	Zmod	Zphz	Idc	Vdc	IERange
	#	s	Hz	ohm	ohm	V	ohm	°	A	V	#
	0	1	1000078	1921.497	-1807.734	1	2638.191	-43.2527	-4.937597E-006	0.0061409	8
	1	3	794390.6	2261.194	-1900.16	1	2953.575	-40.04151	8.881517E-006	0.0038166	8
	2	4	630984.4	2619.493	-1959.561	1	3271.333	-36.79901	-1.176793E-006	0.0054216	8
	3	5	501234.4	2990.932	-1974.72	1	3584.019	-33.43422	-3.467027E-006	0.0054859	8
	4	7	398109.4	3357.765	-1954.469	1	3885.168	-30.20258	6.079947E-006	0.0037627	8
	5	8	316265.6	3714.079	-1874.935	1	4160.5	-26.78549	1.413277E-006	0.0051045	8
	6	9	251203.1	4023.941	-1775.022	1	4398.046	-23.80301	1.660922E-006	0.0050872	8
	7	11	199546.9	4326.069	-1640.777	1	4626.772	-20.77057	-2.923375E-007	0.0045776	8
	8	12	158578.1	4573.617	-1458.746	1	4800.616	-17.68998	-1.178034E-006	0.0051794	8
	9	13	125953.1	4824.228	-1313.185	1	4999.763	-15.22733	2.473926E-006	-0.0006436	7
	10	15	100078.1	4984.713	-1177.802	1	5121.971	-13.29418	8.200188E-007	0.0045298	7
	11	16	79453.13	5106.827	-1054.06	1	5214.473	-11.6622	-8.519559E-007	0.0064056	7
	12	17	63140.62	5216.959	-945.384	1	5301.926	-10.27131	-1.175853E-006	0.0061965	7
	13	19	50203.12	5323.161	-855.8419	1	5391.522	-9.133679	7.770668E-008	0.0035008	7
	14	20	39890.62	5404.402	-786.0682	1	5461.27	-8.275616	7.930532E-008	0.0034989	7
	15	22	31640.63	5465.782	-735.7917	1	5515.085	-7.666941	-1.173795E-006	0.0058441	7
	16	23	25171.88	5529.824	-702.4467	1	5574.261	-7.239439	-1.02004E-006	0.0053087	7
	17	24	20015.62	5610.407	-696.4523	1	5653.469	-7.076257	3.93631E-007	0.0052667	7
	18	26	15890.62	5655.541	-682.641	1	5696.59	-6.88248	-1.17432E-006	0.0058387	7
	19	27	12609.37	5747.906	-695.9529	1	5789.885	-6.903732	9.898685E-007	0.00404	7
	20	28	10078.13	5796.452	-718.5402	1	5840.818	-7.066454	-5.762293E-007	0.0062933	7
	21	30	8015.625	5874.136	-771.9679	1	5924.645	-7.486799	-2.599315E-007	0.0060556	7
	22	31	6328.125	5961.621	-814.467	1	6016.999	-7.779495	9.886949E-007	0.0040483	7
	23	32	5015.625	6022.844	-874.4365	1	6085.991	-8.260859	8.074301E-008	0.0034953	7
	24	34	3984.375	6135.329	-956.701	1	6209.471	-8.862939	9.898856E-007	0.0040473	7
	25	35	3170.956	6185.992	-1051.882	1	6274.787	-9.65042	-2.584016E-007	0.0060542	7
	26	37	2527.573	6262.662	-1171.766	1	6371.339	-10.5977	8.068677E-008	0.0034908	7
	27	38	1976.103	6351.059	-1334.919	1	6489.834	-11.87012	-2.533664E-007	0.0060553	7
	28	40	1577.524	6331.966	-1481.914	1	6503.065	-13.17225	-1.171996E-006	0.0058421	7
	29	41	1265.625	6499.612	-1765.857	1	6735.222	-15.1996	-1.04392E-006	0.0063432	7
	30	43	998.264	6585.248	-2083.804	1	6907.079	-17.5592	-1.172691E-006	0.0061829	7
	31	44	796.875	6683.66	-2478.378	1	7128.371	-20.34536	-8.466724E-007	0.0063871	7
	32	45	627.7902	6807.517	-3021.917	1	7448.105	-23.93686	9.896428E-007	0.0040403	7
	33	47	505.5147	6909.928	-3589.73	1	7786.736	-27.45202	-2.543666E-007	0.0060461	7
	34	48	397.9953	7060.92	-4393.114	1	8316.011	-31.88876	3.36003E-009	0.0047897	7
	35	50	315.5048	7238.993	-5367.864	1	9012.046	-36.5577	3.980793E-009	0.0047885	7
	36	51	252.4038	7451.498	-6521.276	1	9902.11	-41.19122	1.443215E-009	0.0047316	6
	37	52	198.6229	7738.811	-8054.343	1	11169.67	-46.14456	9.693364E-010	0.0047231	6
	38	54	158.3615	8083.738	-9842.67	1	12736.76	-50.60392	5.432382E-010	0.0047271	6
	39	55	125.558	8536.87	-12085.39	1	14796.44	-54.7634	8.351282E-010	0.0047195	6
	40	56	100.4464	9104.11	-14720.3	1	17308.15	-58.26432	1.11165E-009	0.004719	6
	41	58	79.00281	9887.86	-18168.96	1	20685.28	-61.44422	8.046448E-010	0.0047184	6
	42	59	63.3446	10816.43	-21925.04	1	24447.95	-63.74118	4.054652E-010	0.0047227	6
	43	60	49.86702	12055.05	-27202.35	1	29753.85	-66.09889	7.263411E-010	0.0047203	6
	44	62	39.72458	13493.5	-33023.23	1	35673.63	-67.77477	1.419792E-009	0.0047245	6
	45	63	31.6723	15397.98	-40091.55	1	42946.83	-68.98969	1.82468E-010	0.0047215	6
	46	65	24.93351	17851.66	-49125.73	1	52268.72	-70.0295	8.089339E-010	0.0047194	6
	47	66	19.86229	20818.98	-59524.52	1	63060.27	-70.72248	8.412041E-010	0.0047384	6
	48	67	15.83615	24834.05	-72015.43	1	76177.11	-70.97358	1.429257E-010	0.0047259	6
	49	69	12.40079	29689.11	-88436.76	1	93287.21	-71.44258	1.031021E-009	0.0047344	6
	50	70	9.93114	35667.62	-106118.9	1	111952.7	-71.42199	2.909186E-010	0.0047382	5
	51	72	7.944915	43065.26	-127505.6	1	134582	-71.33751	4.379877E-010	0.0047353	5
	52	73	6.317385	52961.68	-153407.8	1	162292.6	-70.95355	4.436995E-010	0.0047222	5
	53	75	5.008013	65591.72	-184774.3	1	196071	-70.45601	-1.649613E-010	0.0047301	5
	54	78	3.945707	81980.7	-222761	1	237367.4	-69.79533	1.844354E-010	0.0047288	5
	55	81	3.158693	101050.8	-264121.8	1	282792.5	-69.06357	2.506417E-010	0.0047266	5
	56	84	2.504006	125988.3	-314694.6	1	338977.5	-68.18125	5.1139E-010	0.0047385	5
	57	87	1.998082	154208.5	-371428.3	1	402168.1	-67.4529	3.581918E-010	0.0047425	5
	58	90	1.584686	192447.9	-437554.9	1	478006.8	-66.25887	2.534253E-010	0.0046866	5
	59	93	1.266892	234233.9	-512418.5	1	563416.6	-65.43417	4.058489E-010	0.0047521	5
	60	98	0.999041	289736.7	-603393	1	669350.8	-64.35065	5.095923E-011	0.0046951	5
