EXPLAIN
TAG	EISPOT
TITLE	LABEL	Potentiostatic EIS	Test &Identifier
DATE	LABEL	11/12/2019	Date
TIME	LABEL	21:47:41	Time
NOTES	NOTES	3	&Notes...
	
	
	
PSTAT	PSTAT	REF600-11020	Potentiostat
VDC	POTEN	0.00000E+000	T	DC &Voltage (V)
FREQINIT	QUANT	1.00000E+006	Initial Fre&q. (Hz)
FREQFINAL	QUANT	1.00000E+000	Final Fre&q. (Hz)
PTSPERDEC	QUANT	1.00000E+001	Points/&decade
VAC	QUANT	2.50000E+001	AC &Voltage (mV rms)
AREA	QUANT	1.00000E-002	&Area (cm^2)
CONDIT	TWOPARAM	T	5.00000E+000	0.00000E+000	Conditionin&g	Time(s)	E(V)
DELAY	TWOPARAM	T	5.00000E+000	0.00000E+000	Init. De&lay	Time(s)	Stab.(mV/s)
SPEED	SELECTOR	1	&Optimize for:
ZGUESS	QUANT	1.00000E+005	E&stimated Z (ohms)
OCVCURVE	TABLE	19
	Pt	T	Vf	Vm	Ach	Over
	#	s	V vs. Ref.	V	V	bits
	0	0.258333	5.64435E-003	5.64435E-003	5.49066E-004	...........
	1	0.516667	5.64371E-003	5.61072E-003	5.41866E-004	...........
	2	0.775	5.63987E-003	5.58461E-003	5.32966E-004	...........
	3	1.03333	5.62433E-003	5.29458E-003	5.44399E-004	...........
	4	1.29167	5.57487E-003	5.00226E-003	5.43233E-004	...........
	5	1.55	5.46957E-003	5.12822E-003	5.36566E-004	...........
	6	1.80833	5.32931E-003	5.24365E-003	5.44433E-004	...........
	7	2.06667	5.21768E-003	5.23657E-003	5.43266E-004	...........
	8	2.325	5.17627E-003	5.28377E-003	5.35899E-004	...........
	9	2.58333	5.19201E-003	5.32080E-003	5.32933E-004	...........
	10	2.84167	5.23331E-003	5.44028E-003	5.38466E-004	...........
	11	3.1	5.28585E-003	5.52463E-003	5.39699E-004	...........
	12	3.35833	5.35035E-003	5.59042E-003	5.35066E-004	...........
	13	3.61667	5.42536E-003	5.63800E-003	5.38599E-004	...........
	14	3.875	5.50181E-003	5.68192E-003	5.38099E-004	...........
	15	4.13333	5.57010E-003	5.70345E-003	5.35633E-004	...........
	16	4.39167	5.62552E-003	5.72877E-003	5.35233E-004	...........
	17	4.65	5.66831E-003	5.76851E-003	5.36233E-004	...........
	18	4.90833	5.69651E-003	5.48250E-003	5.37833E-004	...........
EOC	QUANT	0.0056965	Open Circuit (V)
PSTATMODEL	IQUANT	4	Pstat Model
PSTATSECTION	LABEL	REF600-11020	Pstat Section
PSTATSERIALNO	LABEL	11020	Pstat Serial Number
CTRLMODE	IQUANT	1	Control Mode
IESTAB	IQUANT	0	I/E Stability
CASPEED	IQUANT	1	Control Amp Speed
CONVENTION	IQUANT	1	Current Convention
ICHRANGE	IQUANT	2	Ich Range
ICHRANGEMODE	TOGGLE	F	Ich Auto Range
ICHOFFSETENABLE	TOGGLE	T	Ich Offset Enable
ICHOFFSET	QUANT	0	Ich Offset (V)
ICHFILTER	IQUANT	3	Ich Filter
VCHRANGE	IQUANT	2	Vch Range
VCHRANGEMODE	TOGGLE	F	Vch Auto Range
VCHOFFSETENABLE	TOGGLE	T	Vch Offset Enable
VCHOFFSET	QUANT	0	Vch Offset (V)
VCHFILTER	IQUANT	3	Vch Filter
ACHRANGE	IQUANT	2	Ach Range
ACHOFFSETENABLE	TOGGLE	F	Ach Offset Enable
ACHOFFSET	QUANT	0	Ach Offset (V)
ACHFILTER	IQUANT	3	Ach Filter
IERANGELOWERLIMIT	IQUANT	1	I/E Range Lower Limit
IERANGEMODE	TOGGLE	F	I/E AutoRange
IERANGE	IQUANT	5	I/E Range
POSFEEDENABLE	TOGGLE	F	Positive Feedback IR Comp
POSFEEDRESISTANCE	QUANT	0	Positive Feedback Resistance (ohm)
ACHSELECT	IQUANT	0	Ach Select
CABLEID	IQUANT	14	Cable ID
DCCALDATE	LABEL	8/19/2019	DC Calibration Date
ACCALDATE	LABEL	8/19/2019	AC Calibration Date
THERMOSELECT	IQUANT	1	Thermo Select
FRAMEWORKVERSION	QUANT	6.33	Framework Version
INSTRUMENTVERSION	LABEL	3.50	Instrument Version
ZCURVE	TABLE
	Pt	Time	Freq	Zreal	Zimag	Zsig	Zmod	Zphz	Idc	Vdc	IERange
	#	s	Hz	ohm	ohm	V	ohm	°	A	V	#
	0	1	1000078	1883.652	-1061.071	1	2161.948	-29.39278	-9.01762E-006	0.0087855	8
	1	3	794390.6	2083.777	-980.816	1	2303.069	-25.20596	2.794024E-006	0.0082117	8
	2	4	630984.4	2245.932	-882.3298	1	2413.03	-21.44773	-3.24822E-006	0.0074264	8
	3	6	501234.4	2375.619	-778.0062	1	2499.772	-18.13342	1.29857E-007	0.0078579	8
	4	7	398109.4	2477.484	-681.5009	1	2569.508	-15.38039	-3.315885E-007	0.0077694	8
	5	8	316265.6	2548.186	-595.6562	1	2616.879	-13.15704	1.615306E-006	0.0069266	8
	6	10	251203.1	2613.207	-518.7974	1	2664.207	-11.22887	-1.206056E-007	0.0070279	8
	7	11	199546.9	2660.527	-455.5298	1	2699.242	-9.71585	-1.385323E-006	0.007116	8
	8	12	158578.1	2688.101	-403.399	1	2718.201	-8.534598	1.547468E-006	0.0069318	8
	9	14	125953.1	2746.034	-340.946	1	2767.119	-7.077592	1.268547E-006	0.0028889	7
	10	15	100078.1	2767.215	-314.1004	1	2784.984	-6.475801	7.784896E-007	0.005898	7
	11	17	79453.13	2791.803	-306.0997	1	2808.534	-6.257049	-8.585351E-007	0.0077081	7
	12	18	63140.62	2818.63	-305.6757	1	2835.156	-6.189442	-2.628258E-007	0.0065884	7
	13	19	50203.12	2846.224	-310.8578	1	2863.15	-6.233003	-2.633539E-007	0.0065813	7
	14	21	39890.62	2874.651	-322.6869	1	2892.706	-6.404785	-4.890518E-007	0.0085475	7
	15	22	31640.63	2907.643	-342.528	1	2927.749	-6.71863	6.168333E-007	0.0058286	7
	16	24	25171.88	2940.488	-368.0919	1	2963.437	-7.135203	-6.050301E-007	0.007149	7
	17	25	20015.62	2978.257	-400.7363	1	3005.096	-7.66335	8.736573E-007	0.0060612	7
	18	26	15890.62	3018.469	-442.0368	1	3050.664	-8.331405	8.929724E-007	0.0063122	7
	19	28	12609.37	3062.922	-492.6501	1	3102.289	-9.137375	8.309672E-007	0.0066421	7
	20	29	10078.13	3108.673	-552.0519	1	3157.31	-10.06986	-2.627522E-007	0.0065851	7
	21	30	8015.625	3163.232	-620.0776	1	3223.435	-11.09086	6.92803E-007	0.0070372	7
	22	32	6328.125	3223.83	-707.6579	1	3300.585	-12.38055	-7.198489E-007	0.0086214	7
	23	33	5015.625	3290.842	-809.2037	1	3388.871	-13.8147	-8.631746E-007	0.0077018	7
	24	35	3984.375	3371.069	-931.9872	1	3497.529	-15.45433	8.132439E-008	0.0061546	7
	25	36	3170.956	3444.448	-1069.137	1	3606.56	-17.24405	-4.912599E-007	0.0085418	7
	26	37	2527.573	3532.337	-1234.381	1	3741.804	-19.26205	-9.981337E-007	0.0084505	7
	27	39	1976.103	3639.258	-1450.646	1	3917.725	-21.73274	-9.980728E-007	0.0084471	7
	28	40	1577.524	3742.633	-1693.617	1	4107.997	-24.34771	-7.180267E-007	0.0086232	7
	29	42	1265.625	3858.556	-1965.749	1	4330.43	-26.99666	-9.955584E-007	0.0084509	7
	30	43	998.264	3995.288	-2325.996	1	4623.05	-30.20732	8.065429E-008	0.0080109	7
	31	44	796.875	4135.21	-2742.957	1	4962.235	-33.55701	-8.622433E-007	0.0076987	7
	32	46	627.7902	4290.654	-3283.721	1	5403.012	-37.42753	-4.901196E-007	0.0085414	7
	33	47	505.5147	4447.13	-3884.799	1	5904.966	-41.1389	-7.171766E-007	0.0086169	7
	34	48	397.9953	4631.326	-4711.721	1	6606.776	-45.49301	5.965615E-009	0.0072716	7
	35	50	315.5048	4836.952	-5709.206	1	7482.723	-49.72807	1.839587E-009	0.0072764	7
	36	51	252.4038	5065.955	-6895.6	1	8556.471	-53.69658	2.113695E-009	0.0072728	7
	37	53	198.6229	5359.313	-8479.216	1	10030.92	-57.70495	5.157264E-009	0.0072653	7
	38	54	158.3615	5703.097	-10338.87	1	11807.52	-61.11813	9.868197E-010	0.0072023	6
	39	55	125.558	6140.773	-12690.02	1	14097.72	-64.1774	8.471167E-010	0.0072108	6
	40	57	100.4464	6666.608	-15463.25	1	16839.11	-66.67786	-2.755763E-010	0.0072174	6
	41	58	79.00281	7414.63	-19133.35	1	20519.79	-68.81746	9.986769E-010	0.0072059	6
	42	60	63.3446	8320.344	-23398.52	1	24833.82	-70.42498	8.979245E-011	0.007202	6
	43	61	49.86702	9418.408	-28788.67	1	30290.16	-71.88414	-3.558256E-010	0.0072115	6
	44	63	39.72458	11008.98	-35197.72	1	36879.23	-72.63161	2.15925E-010	0.0072083	6
	45	64	31.6723	13064.14	-42935.97	1	44879.5	-73.07655	1.049542E-009	0.0072055	6
	46	65	24.93351	15702.41	-52825.05	1	55109.45	-73.44525	7.820529E-010	0.0072021	6
	47	67	19.86229	19049.54	-64220.43	1	66986.19	-73.4782	3.852844E-010	0.0072043	6
	48	68	15.83615	23115.38	-78108.41	1	81457.02	-73.51443	-1.062772E-009	0.0072023	6
	49	70	12.40079	29389.59	-95508.4	1	99928	-72.89596	1.440718E-011	0.0072056	6
	50	71	9.93114	36910.75	-114561.8	1	120361.1	-72.14153	-2.471361E-010	0.0072059	5
	51	73	7.944915	45997.93	-136921.4	1	144441.3	-71.43053	1.000163E-009	0.0072165	5
	52	74	6.317385	58251.36	-164377	1	174393.3	-70.48687	3.87899E-010	0.0072243	5
	53	76	5.008013	73731.78	-196618.2	1	209988.3	-69.44396	5.215083E-011	0.0072028	5
	54	79	3.945707	94038.26	-234706.7	1	252844.7	-68.16586	3.663747E-010	0.0072134	5
	55	82	3.158693	117281.4	-275783	1	299685.2	-66.96156	-2.158786E-011	0.0071933	5
	56	85	2.504006	147064.4	-324455.2	1	356229.1	-65.61684	1.796565E-010	0.0072124	5
	57	88	1.998082	181616.6	-377434.2	1	418857	-64.30373	5.213389E-010	0.0071751	5
	58	91	1.584686	224649.6	-442205	1	495996.7	-63.06845	-1.923056E-010	0.0071957	5
	59	95	1.266892	272729.3	-507480.3	1	576122.9	-61.74559	1.556245E-010	0.0071664	5
	60	99	0.999041	333872.6	-587435.6	1	675685.9	-60.388	1.67599E-010	0.0072515	5
