EXPLAIN
TAG	EISPOT
TITLE	LABEL	Potentiostatic EIS	Test &Identifier
DATE	LABEL	10/26/2019	Date
TIME	LABEL	9:50:01	Time
NOTES	NOTES	1	&Notes...
	
PSTAT	PSTAT	REF600-11020	Potentiostat
VDC	POTEN	0.00000E+000	T	DC &Voltage (V)
FREQINIT	QUANT	1.00000E+006	Initial Fre&q. (Hz)
FREQFINAL	QUANT	1.00000E+000	Final Fre&q. (Hz)
PTSPERDEC	QUANT	1.00000E+001	Points/&decade
VAC	QUANT	2.50000E+001	AC &Voltage (mV rms)
AREA	QUANT	1.00000E-002	&Area (cm^2)
CONDIT	TWOPARAM	T	5.00000E+000	0.00000E+000	Conditionin&g	Time(s)	E(V)
DELAY	TWOPARAM	T	5.00000E+000	0.00000E+000	Init. De&lay	Time(s)	Stab.(mV/s)
SPEED	SELECTOR	0	&Optimize for:
ZGUESS	QUANT	1.00000E+005	E&stimated Z (ohms)
OCVCURVE	TABLE	19
	Pt	T	Vf	Vm	Ach	Over
	#	s	V vs. Ref.	V	V	bits
	0	0.258333	6.29001E-003	6.29001E-003	5.43466E-004	...........
	1	0.516667	6.29082E-003	6.33220E-003	5.39599E-004	...........
	2	0.775	6.29552E-003	6.35895E-003	5.46633E-004	...........
	3	1.03333	6.30832E-003	6.40327E-003	5.41766E-004	...........
	4	1.29167	6.33157E-003	6.46806E-003	5.37966E-004	...........
	5	1.55	6.36557E-003	6.51708E-003	5.36499E-004	...........
	6	1.80833	6.40939E-003	6.58205E-003	5.36233E-004	...........
	7	2.06667	6.46099E-003	6.65155E-003	5.44533E-004	...........
	8	2.325	6.51844E-003	6.71995E-003	5.37333E-004	...........
	9	2.58333	6.58134E-003	6.82351E-003	5.38199E-004	...........
	10	2.84167	6.64991E-003	6.85636E-003	5.47066E-004	...........
	11	3.1	6.72148E-003	6.90382E-003	5.40966E-004	...........
	12	3.35833	6.78941E-003	6.95049E-003	5.39633E-004	...........
	13	3.61667	6.84896E-003	7.00520E-003	5.42599E-004	...........
	14	3.875	6.90147E-003	7.05320E-003	5.41866E-004	...........
	15	4.13333	6.95104E-003	7.10475E-003	5.42399E-004	...........
	16	4.39167	7.00033E-003	7.15265E-003	5.40533E-004	...........
	17	4.65	7.05008E-003	7.20910E-003	5.39599E-004	...........
	18	4.90833	7.10041E-003	7.25740E-003	5.35200E-004	...........
EOC	QUANT	0.0071004	Open Circuit (V)
PSTATMODEL	IQUANT	4	Pstat Model
PSTATSECTION	LABEL	REF600-11020	Pstat Section
PSTATSERIALNO	LABEL	11020	Pstat Serial Number
CTRLMODE	IQUANT	1	Control Mode
IESTAB	IQUANT	0	I/E Stability
CASPEED	IQUANT	1	Control Amp Speed
CONVENTION	IQUANT	1	Current Convention
ICHRANGE	IQUANT	2	Ich Range
ICHRANGEMODE	TOGGLE	F	Ich Auto Range
ICHOFFSETENABLE	TOGGLE	T	Ich Offset Enable
ICHOFFSET	QUANT	0	Ich Offset (V)
ICHFILTER	IQUANT	3	Ich Filter
VCHRANGE	IQUANT	2	Vch Range
VCHRANGEMODE	TOGGLE	F	Vch Auto Range
VCHOFFSETENABLE	TOGGLE	T	Vch Offset Enable
VCHOFFSET	QUANT	0	Vch Offset (V)
VCHFILTER	IQUANT	3	Vch Filter
ACHRANGE	IQUANT	2	Ach Range
ACHOFFSETENABLE	TOGGLE	F	Ach Offset Enable
ACHOFFSET	QUANT	0	Ach Offset (V)
ACHFILTER	IQUANT	3	Ach Filter
IERANGELOWERLIMIT	IQUANT	1	I/E Range Lower Limit
IERANGEMODE	TOGGLE	F	I/E AutoRange
IERANGE	IQUANT	5	I/E Range
POSFEEDENABLE	TOGGLE	F	Positive Feedback IR Comp
POSFEEDRESISTANCE	QUANT	0	Positive Feedback Resistance (ohm)
ACHSELECT	IQUANT	0	Ach Select
CABLEID	IQUANT	14	Cable ID
DCCALDATE	LABEL	8/19/2019	DC Calibration Date
ACCALDATE	LABEL	8/19/2019	AC Calibration Date
THERMOSELECT	IQUANT	1	Thermo Select
FRAMEWORKVERSION	QUANT	6.33	Framework Version
INSTRUMENTVERSION	LABEL	3.50	Instrument Version
ZCURVE	TABLE
	Pt	Time	Freq	Zreal	Zimag	Zsig	Zmod	Zphz	Idc	Vdc	IERange
	#	s	Hz	ohm	ohm	V	ohm	°	A	V	#
	0	1	1000078	1819.632	-616.3942	1	1921.198	-18.71364	-1.821392E-006	0.0095779	8
	1	2	794390.6	1900.023	-539.2366	1	1975.06	-15.84423	4.302834E-006	0.0081872	8
	2	2	630984.4	1961.741	-466.1818	1	2016.371	-13.36764	-6.784364E-007	0.0087336	8
	3	2	501234.4	2013.116	-402.2169	1	2052.904	-11.29881	2.087792E-007	0.0086782	8
	4	3	398109.4	2048.213	-349.5817	1	2077.832	-9.68571	-1.131439E-006	0.0088659	8
	5	3	316265.6	2077.032	-304.1682	1	2099.185	-8.331384	-3.271533E-007	0.0086232	8
	6	3	251203.1	2100.778	-272.3361	1	2118.357	-7.386391	2.464267E-007	0.0085896	8
	7	3	199546.9	2124.678	-248.7861	1	2139.194	-6.678555	-2.944347E-006	0.0091034	8
	8	4	158578.1	2138.746	-230.8655	1	2151.17	-6.160901	-1.924222E-006	0.0091021	8
	9	4	125953.1	2172.472	-197.3375	1	2181.416	-5.190245	2.956517E-007	0.0084788	7
	10	4	100078.1	2186.623	-191.0018	1	2194.949	-4.992124	-7.434917E-009	0.0085281	7
	11	5	79453.13	2203.877	-198.3036	1	2212.781	-5.141595	-2.440915E-008	0.0085485	7
	12	5	63140.62	2222.936	-210.1229	1	2232.845	-5.399837	6.86854E-009	0.0084937	7
	13	5	50203.12	2244.035	-224.6661	1	2255.254	-5.71723	-5.092057E-008	0.008613	7
	14	6	39890.62	2267.505	-243.7586	1	2280.569	-6.13578	5.240193E-010	0.0086198	7
	15	6	31640.63	2293.061	-266.9596	1	2308.549	-6.640515	-2.251975E-008	0.0085408	7
	16	6	25171.88	2321.219	-294.7531	1	2339.858	-7.236804	3.350194E-008	0.0084342	7
	17	7	20015.62	2354.02	-327.9711	1	2376.757	-7.93161	8.150067E-009	0.008492	7
	18	7	15890.62	2387.601	-367.7261	1	2415.752	-8.755607	6.540947E-008	0.0084912	7
	19	7	12609.37	2426.261	-413.9625	1	2461.322	-9.68243	5.717087E-008	0.008429	7
	20	8	10078.13	2468.557	-465.4284	1	2512.051	-10.67736	-4.702772E-008	0.0086287	7
	21	8	8015.625	2515.466	-529.9655	1	2570.687	-11.89724	6.775204E-008	0.0084891	7
	22	8	6328.125	2568.734	-602.0343	1	2638.34	-13.19034	-2.551216E-008	0.0086044	7
	23	9	5015.625	2626.298	-687.2692	1	2714.733	-14.66474	-5.731288E-009	0.0085295	7
	24	9	3984.375	2689.957	-788.4166	1	2803.117	-16.33567	-2.291795E-008	0.0085439	7
	25	9	3170.956	2750.548	-905.7791	1	2895.851	-18.22716	3.260367E-008	0.0084382	7
	26	10	2527.573	2817.793	-1047.678	1	3006.258	-20.39555	-6.003156E-009	0.0085273	7
	27	10	1976.103	2893.501	-1234.845	1	3145.98	-23.1111	-2.29633E-008	0.0085404	7
	28	10	1577.524	2966.433	-1454.482	1	3303.823	-26.11933	-4.449748E-008	0.0085936	7
	29	10	1265.625	3043.489	-1699.133	1	3485.668	-29.17394	3.55853E-008	0.0084282	7
	30	11	998.264	3132.46	-2038.262	1	3737.221	-33.05167	3.542591E-008	0.0084294	7
	31	11	796.875	3225.317	-2441.484	1	4045.184	-37.12481	-4.927626E-008	0.0086039	7
	32	11	627.7902	3338.62	-2969.716	1	4468.288	-41.65322	-8.712052E-009	0.0085126	7
	33	12	505.5147	3461.393	-3564.13	1	4968.326	-45.8378	-2.363211E-008	0.0085327	7
	34	12	397.9953	3621.919	-4376.902	1	5681.16	-50.39199	4.053822E-009	0.008563	7
	35	12	315.5048	3817.561	-5355.541	1	6576.898	-54.5178	3.724792E-009	0.0085626	7
	36	13	252.4038	4050.077	-6508.91	1	7666.096	-58.10865	2.912043E-009	0.008562	7
	37	13	198.6229	4369.044	-8031.945	1	9143.341	-61.45565	2.241641E-009	0.0085613	7
	38	13	158.3615	4757.755	-9803.47	1	10896.99	-64.11208	7.974945E-010	0.0084952	6
	39	14	125.558	5261.551	-12014.63	1	13116.22	-66.35001	5.333328E-010	0.0084982	6
	40	14	100.4464	5899.458	-14601.76	1	15748.5	-68.00012	-5.749448E-010	0.0084963	6
	41	14	79.00281	6760.208	-18012.82	1	19239.6	-69.4289	-7.968622E-010	0.0084931	6
	42	15	63.3446	7666.816	-21612.72	1	22932.29	-70.46856	1.060607E-010	0.0084929	6
	43	15	49.86702	9147.754	-26543.79	1	28075.86	-70.98457	-8.582379E-010	0.0084905	6
	44	15	39.72458	10878.39	-32338.6	1	34119.27	-71.40756	-1.733805E-010	0.0084951	6
	45	16	31.6723	13108.52	-39142.12	1	41278.8	-71.48454	-9.777245E-010	0.0084937	6
	46	16	24.93351	16003.58	-47533.38	1	50155.13	-71.3926	2.46358E-010	0.008492	6
	47	16	19.86229	19417.03	-57139.29	1	60348.31	-71.23125	4.321639E-010	0.0084982	6
	48	17	15.83615	23472.37	-69261.88	1	73131.11	-71.27883	-2.222256E-009	0.0084958	6
	49	17	12.40079	29329.9	-82981	1	88011.87	-70.53388	1.150776E-009	0.0084977	6
	50	17	9.93114	35976.53	-98742.2	1	105092.1	-69.9809	1.21128E-011	0.0084932	5
	51	18	7.944915	43953	-117404.1	1	125361.8	-69.47543	-4.795768E-010	0.0084982	5
	52	19	6.317385	53491.75	-139869.9	1	149749.6	-69.07118	-6.006973E-010	0.0085102	5
	53	19	5.008013	65734.7	-166812.9	1	179297.5	-68.49247	-3.914786E-010	0.0084917	5
	54	20	3.945707	80867.32	-199075	1	214873	-67.89226	-1.189019E-010	0.0084876	5
	55	22	3.158693	98165.4	-234668	1	254372.8	-67.29966	8.819515E-011	0.0085045	5
	56	23	2.504006	120058	-277885.2	1	302711.3	-66.63364	-1.343646E-010	0.0084996	5
	57	25	1.998082	144933.7	-326716.8	1	357420.9	-66.07761	-1.453342E-010	0.008473	5
	58	26	1.584686	176790.8	-384322	1	423034.8	-65.29723	-2.820765E-012	0.0085174	5
	59	28	1.266892	213471.4	-450649.8	1	498653.5	-64.65323	1.152859E-011	0.0085311	5
	60	31	0.999041	258962.5	-531939.5	1	591625.9	-64.04193	2.811196E-011	0.0085213	5
