EXPLAIN
TAG	EISPOT
TITLE	LABEL	Potentiostatic IDE	Test &Identifier
DATE	LABEL	9/10/2019	Date
TIME	LABEL	9:56:18	Time
NOTES	NOTES	1	&Notes...
	
PSTAT	PSTAT	REF600-11020	Potentiostat
VDC	POTEN	0.00000E+000	T	DC &Voltage (V)
FREQINIT	QUANT	1.00000E+006	Initial Fre&q. (Hz)
FREQFINAL	QUANT	1.00000E+000	Final Fre&q. (Hz)
PTSPERDEC	QUANT	1.00000E+001	Points/&decade
VAC	QUANT	2.50000E+001	AC &Voltage (mV rms)
AREA	QUANT	1.00000E-002	&Area (cm^2)
CONDIT	TWOPARAM	T	5.00000E+000	0.00000E+000	Conditionin&g	Time(s)	E(V)
DELAY	TWOPARAM	T	5.00000E+000	0.00000E+000	Init. De&lay	Time(s)	Stab.(mV/s)
SPEED	SELECTOR	1	&Optimize for:
ZGUESS	QUANT	1.00000E+007	E&stimated Z (ohms)
OCVCURVE	TABLE	19
	Pt	T	Vf	Vm	Ach	Over
	#	s	V vs. Ref.	V	V	bits
	0	0.258333	2.09671E-003	2.09671E-003	5.75066E-004	...........
	1	0.516667	2.08797E-003	1.63910E-003	5.77399E-004	...........
	2	0.775	2.03462E-003	1.22263E-003	5.71366E-004	...........
	3	1.03333	1.88508E-003	8.38215E-004	5.71599E-004	...........
	4	1.29167	1.62111E-003	4.78134E-004	5.71999E-004	...........
	5	1.55	1.27615E-003	1.39011E-004	5.69099E-004	...........
	6	1.80833	9.01315E-004	-1.80877E-004	5.65999E-004	...........
	7	2.06667	5.32191E-004	-4.87676E-004	5.69499E-004	...........
	8	2.325	1.83122E-004	-7.78839E-004	5.73799E-004	...........
	9	2.58333	-1.44463E-004	-1.05704E-003	5.69866E-004	...........
	10	2.84167	-4.53521E-004	-1.32540E-003	5.69532E-004	...........
	11	3.1	-7.47325E-004	-1.58933E-003	5.71899E-004	...........
	12	3.35833	-1.02862E-003	-1.83770E-003	5.73332E-004	...........
	13	3.61667	-1.29936E-003	-2.08040E-003	5.71999E-004	...........
	14	3.875	-1.56046E-003	-2.31389E-003	5.70032E-004	...........
	15	4.13333	-1.81240E-003	-2.54503E-003	5.71999E-004	...........
	16	4.39167	-2.05595E-003	-2.76401E-003	5.73032E-004	...........
	17	4.65	-2.29187E-003	-2.97825E-003	5.69799E-004	...........
	18	4.90833	-2.52062E-003	-3.18960E-003	5.68999E-004	...........
EOC	QUANT	-0.0025206	Open Circuit (V)
PSTATMODEL	IQUANT	4	Pstat Model
PSTATSECTION	LABEL	REF600-11020	Pstat Section
PSTATSERIALNO	LABEL	11020	Pstat Serial Number
CTRLMODE	IQUANT	1	Control Mode
IESTAB	IQUANT	0	I/E Stability
CASPEED	IQUANT	1	Control Amp Speed
CONVENTION	IQUANT	1	Current Convention
ICHRANGE	IQUANT	2	Ich Range
ICHRANGEMODE	TOGGLE	F	Ich Auto Range
ICHOFFSETENABLE	TOGGLE	T	Ich Offset Enable
ICHOFFSET	QUANT	0	Ich Offset (V)
ICHFILTER	IQUANT	3	Ich Filter
VCHRANGE	IQUANT	2	Vch Range
VCHRANGEMODE	TOGGLE	F	Vch Auto Range
VCHOFFSETENABLE	TOGGLE	T	Vch Offset Enable
VCHOFFSET	QUANT	0	Vch Offset (V)
VCHFILTER	IQUANT	3	Vch Filter
ACHRANGE	IQUANT	2	Ach Range
ACHOFFSETENABLE	TOGGLE	F	Ach Offset Enable
ACHOFFSET	QUANT	0	Ach Offset (V)
ACHFILTER	IQUANT	3	Ach Filter
IERANGELOWERLIMIT	IQUANT	1	I/E Range Lower Limit
IERANGEMODE	TOGGLE	F	I/E AutoRange
IERANGE	IQUANT	2	I/E Range
POSFEEDENABLE	TOGGLE	F	Positive Feedback IR Comp
POSFEEDRESISTANCE	QUANT	0	Positive Feedback Resistance (ohm)
ACHSELECT	IQUANT	0	Ach Select
CABLEID	IQUANT	14	Cable ID
DCCALDATE	LABEL	8/19/2019	DC Calibration Date
ACCALDATE	LABEL	8/19/2019	AC Calibration Date
THERMOSELECT	IQUANT	1	Thermo Select
FRAMEWORKVERSION	QUANT	6.33	Framework Version
INSTRUMENTVERSION	LABEL	3.50	Instrument Version
ZCURVE	TABLE
	Pt	Time	Freq	Zreal	Zimag	Zsig	Zmod	Zphz	Idc	Vdc	IERange
	#	s	Hz	ohm	ohm	V	ohm	°	A	V	#
	0	2	1000078	2733.009	-1849.772	1	3300.151	-34.09117	-1.105813E-006	9.460049E-005	8
	1	3	794390.6	3103.78	-1745.407	1	3560.884	-29.35117	-1.91026E-007	-0.0004994	8
	2	4	630984.4	3434.488	-1618.403	1	3796.701	-25.2308	-3.645441E-006	-8.124975E-006	8
	3	6	501234.4	3675.486	-1418.319	1	3939.648	-21.10091	-7.91992E-007	-0.0004282	8
	4	7	398109.4	3884.176	-1229.476	1	4074.117	-17.56438	-5.088127E-007	-0.0005972	8
	5	9	316265.6	4015.365	-1056.563	1	4152.046	-14.74207	-1.479077E-007	-0.0007165	8
	6	10	251203.1	4147.767	-912.1306	1	4246.875	-12.40244	-2.468983E-006	-0.0003527	8
	7	11	199546.9	4214.309	-786.1628	1	4287.01	-10.56685	3.446634E-006	-0.0016097	8
	8	12	158578.1	4295.966	-685.3457	1	4350.29	-9.064152	-1.492773E-006	-0.0005785	8
	9	14	125953.1	4369.125	-570.7406	1	4406.246	-7.442428	2.308641E-007	-0.0011302	7
	10	15	100078.1	4403.22	-507.0551	1	4432.319	-6.568992	-2.294924E-008	-0.0009244	7
	11	16	79453.13	4438.282	-470.3372	1	4463.134	-6.049218	5.172029E-008	-0.0010066	7
	12	18	63140.62	4474.271	-447.285	1	4496.572	-5.708793	-4.072978E-008	-0.0008718	7
	13	19	50203.12	4507.04	-436.062	1	4528.085	-5.526242	6.603166E-008	-0.0010614	7
	14	20	39890.62	4540.624	-437.6294	1	4561.665	-5.505215	-5.596311E-008	-0.0007595	7
	15	22	31640.63	4573.387	-448.7776	1	4595.353	-5.604381	-5.654286E-008	-0.0008512	7
	16	23	25171.88	4607.872	-475.6455	1	4632.355	-5.893458	1.624204E-008	-0.0009972	7
	17	24	20015.62	4645.049	-515.0577	1	4673.518	-6.327289	-3.41445E-008	-0.0008471	7
	18	26	15890.62	4685.306	-570.1439	1	4719.868	-6.938077	-2.289611E-008	-0.0009278	7
	19	27	12609.37	4728.187	-639.3021	1	4771.211	-7.700311	3.45758E-008	-0.0010353	7
	20	28	10078.13	4775.606	-727.4639	1	4830.695	-8.661234	7.685813E-008	-0.0009874	7
	21	30	8015.625	4829.625	-833.4872	1	4901.018	-9.79155	3.77481E-008	-0.0009737	7
	22	31	6328.125	4892.671	-972.302	1	4988.346	-11.23974	-1.576011E-009	-0.0009355	7
	23	32	5015.625	4962.586	-1139.291	1	5091.684	-12.9297	9.141478E-008	-0.0010598	7
	24	34	3984.375	5043.168	-1340.558	1	5218.299	-14.88594	3.674014E-008	-0.0009754	7
	25	35	3170.956	5135.257	-1584.533	1	5374.161	-17.14811	-4.497254E-008	-0.000857	7
	26	36	2527.573	5241.02	-1873.53	1	5565.825	-19.67067	-4.561326E-008	-0.0008574	7
	27	38	1976.103	5373.036	-2254.464	1	5826.845	-22.76236	3.584939E-008	-0.001039	7
	28	39	1577.524	5515.402	-2682.173	1	6133.002	-25.93393	7.593924E-008	-0.0009967	7
	29	40	1265.625	5674.864	-3180.731	1	6505.47	-29.2704	-4.510995E-008	-0.0008591	7
	30	42	998.264	5872.357	-3827.553	1	7009.618	-33.09597	-4.177108E-008	-0.0008874	7
	31	43	796.875	6093.399	-4576.375	1	7620.546	-36.90794	-8.148937E-009	-0.0009702	7
	32	44	627.7902	6357.382	-5543.409	1	8434.79	-41.08726	-9.288753E-010	-0.0009311	7
	33	46	505.5147	6642.208	-6604.015	1	9366.532	-44.8348	1.38273E-010	-0.0009367	7
	34	47	397.9953	7009.321	-8030.068	1	10658.92	-48.8828	1.432023E-009	-0.000978	6
	35	48	315.5048	7426.729	-9733.11	1	12242.95	-52.655	8.628573E-010	-0.0009743	6
	36	50	252.4038	7900.173	-11731.47	1	14143.56	-56.04301	1.259862E-009	-0.0009781	6
	37	51	198.6229	8511.572	-14362.41	1	16695.08	-59.34781	1.066474E-009	-0.0009734	6
	38	52	158.3615	9211.819	-17412.97	1	19699.47	-62.12024	1.322602E-009	-0.0009738	6
	39	54	125.558	10094.56	-21242.16	1	23518.71	-64.5823	1.13167E-009	-0.0009703	6
	40	55	100.4464	11151.62	-25736.99	1	28049.09	-66.57333	1.164961E-009	-0.0009707	6
	41	56	79.00281	12544.38	-31669.82	1	34063.75	-68.39154	1.070527E-009	-0.0009732	6
	42	58	63.3446	13951.5	-38248.36	1	40713.41	-69.96001	6.664115E-010	-0.0009783	6
	43	59	49.86702	16453.46	-46895.73	1	49698.35	-70.66648	7.415786E-010	-0.0009764	6
	44	61	39.72458	18968.63	-57128.26	1	60195.07	-71.63199	7.743967E-010	-0.0009762	6
	45	62	31.6723	22365.1	-69278.13	1	72798.74	-72.10833	8.319264E-010	-0.0009824	6
	46	63	24.93351	26982.77	-85137.84	1	89311.38	-72.41501	6.567963E-010	-0.0009806	6
	47	65	19.86229	32653.02	-103226.2	1	108267.6	-72.44655	1.024085E-009	-0.0009765	5
	48	66	15.83615	40076.42	-124609.2	1	130895.3	-72.17133	5.825801E-010	-0.0009739	5
	49	68	12.40079	50661.43	-153221.3	1	161379.5	-71.70393	1.018362E-009	-0.0009778	5
	50	69	9.93114	62976.5	-183138.7	1	193664.2	-71.02327	9.623049E-010	-0.0009801	5
	51	70	7.944915	79123.67	-218786.8	1	232654.8	-70.11761	8.763308E-010	-0.0009734	5
	52	72	6.317385	100059.2	-261336.1	1	279836.3	-69.04937	3.695002E-010	-0.0009534	5
	53	74	5.008013	127495.1	-310920.5	1	336045.5	-67.70358	4.551494E-010	-0.0009692	5
	54	77	3.945707	162877.5	-369019.8	1	403366.7	-66.18436	5.367362E-010	-0.0009696	5
	55	79	3.158693	204335.5	-429885.1	1	475977.1	-64.57706	3.009184E-010	-0.0009627	5
	56	83	2.504006	256099.8	-500516.3	1	562231	-62.90248	2.352303E-010	-0.0009839	5
	57	85	1.998082	315867.9	-576158.5	1	657062.5	-61.26709	1.233114E-010	-0.0010074	5
	58	88	1.584686	387198.3	-658228.9	1	763667.4	-59.53414	1.568617E-010	-0.0009554	5
	59	92	1.266892	467566.9	-746803.9	1	881098.8	-57.9497	1.685379E-010	-0.0010188	5
	60	96	0.999041	564223.2	-847241.6	1	1017923	-56.33825	3.375315E-010	-0.0009403	4
