EXPLAIN
TAG	EISPOT
TITLE	LABEL	Potentiostatic EIS	Test &Identifier
DATE	LABEL	10/26/2019	Date
TIME	LABEL	9:58:37	Time
NOTES	NOTES	1	&Notes...
	
PSTAT	PSTAT	REF600-11020	Potentiostat
VDC	POTEN	0.00000E+000	T	DC &Voltage (V)
FREQINIT	QUANT	1.00000E+006	Initial Fre&q. (Hz)
FREQFINAL	QUANT	1.00000E+000	Final Fre&q. (Hz)
PTSPERDEC	QUANT	1.00000E+001	Points/&decade
VAC	QUANT	2.50000E+001	AC &Voltage (mV rms)
AREA	QUANT	1.00000E-002	&Area (cm^2)
CONDIT	TWOPARAM	T	5.00000E+000	0.00000E+000	Conditionin&g	Time(s)	E(V)
DELAY	TWOPARAM	T	5.00000E+000	0.00000E+000	Init. De&lay	Time(s)	Stab.(mV/s)
SPEED	SELECTOR	0	&Optimize for:
ZGUESS	QUANT	1.00000E+005	E&stimated Z (ohms)
OCVCURVE	TABLE	19
	Pt	T	Vf	Vm	Ach	Over
	#	s	V vs. Ref.	V	V	bits
	0	0.258333	7.30211E-003	7.30211E-003	5.27233E-004	...........
	1	0.516667	7.30240E-003	7.31743E-003	5.26000E-004	...........
	2	0.775	7.30461E-003	7.35339E-003	5.26433E-004	...........
	3	1.03333	7.31243E-003	7.39897E-003	5.29266E-004	...........
	4	1.29167	7.33014E-003	7.45175E-003	5.31666E-004	...........
	5	1.55	7.35931E-003	7.47623E-003	5.24533E-004	...........
	6	1.80833	7.39684E-003	7.52312E-003	5.28500E-004	...........
	7	2.06667	7.43912E-003	7.64477E-003	5.35000E-004	...........
	8	2.325	7.48843E-003	7.70163E-003	5.30200E-004	...........
	9	2.58333	7.54902E-003	7.75722E-003	5.29266E-004	...........
	10	2.84167	7.61765E-003	7.80796E-003	5.27866E-004	...........
	11	3.1	7.68513E-003	7.83410E-003	5.31933E-004	...........
	12	3.35833	7.74457E-003	7.88704E-003	5.31366E-004	...........
	13	3.61667	7.79555E-003	7.95955E-003	5.26500E-004	...........
	14	3.875	7.84458E-003	8.06593E-003	5.30233E-004	...........
	15	4.13333	7.90058E-003	8.10887E-003	5.33433E-004	...........
	16	4.39167	7.96590E-003	8.15129E-003	5.27666E-004	...........
	17	4.65	8.03185E-003	8.12020E-003	5.22366E-004	...........
	18	4.90833	8.08789E-003	8.29943E-003	5.22866E-004	...........
EOC	QUANT	0.0080879	Open Circuit (V)
PSTATMODEL	IQUANT	4	Pstat Model
PSTATSECTION	LABEL	REF600-11020	Pstat Section
PSTATSERIALNO	LABEL	11020	Pstat Serial Number
CTRLMODE	IQUANT	1	Control Mode
IESTAB	IQUANT	0	I/E Stability
CASPEED	IQUANT	1	Control Amp Speed
CONVENTION	IQUANT	1	Current Convention
ICHRANGE	IQUANT	2	Ich Range
ICHRANGEMODE	TOGGLE	F	Ich Auto Range
ICHOFFSETENABLE	TOGGLE	T	Ich Offset Enable
ICHOFFSET	QUANT	0	Ich Offset (V)
ICHFILTER	IQUANT	3	Ich Filter
VCHRANGE	IQUANT	2	Vch Range
VCHRANGEMODE	TOGGLE	F	Vch Auto Range
VCHOFFSETENABLE	TOGGLE	T	Vch Offset Enable
VCHOFFSET	QUANT	0	Vch Offset (V)
VCHFILTER	IQUANT	3	Vch Filter
ACHRANGE	IQUANT	2	Ach Range
ACHOFFSETENABLE	TOGGLE	F	Ach Offset Enable
ACHOFFSET	QUANT	0	Ach Offset (V)
ACHFILTER	IQUANT	3	Ach Filter
IERANGELOWERLIMIT	IQUANT	1	I/E Range Lower Limit
IERANGEMODE	TOGGLE	F	I/E AutoRange
IERANGE	IQUANT	5	I/E Range
POSFEEDENABLE	TOGGLE	F	Positive Feedback IR Comp
POSFEEDRESISTANCE	QUANT	0	Positive Feedback Resistance (ohm)
ACHSELECT	IQUANT	0	Ach Select
CABLEID	IQUANT	14	Cable ID
DCCALDATE	LABEL	8/19/2019	DC Calibration Date
ACCALDATE	LABEL	8/19/2019	AC Calibration Date
THERMOSELECT	IQUANT	1	Thermo Select
FRAMEWORKVERSION	QUANT	6.33	Framework Version
INSTRUMENTVERSION	LABEL	3.50	Instrument Version
ZCURVE	TABLE
	Pt	Time	Freq	Zreal	Zimag	Zsig	Zmod	Zphz	Idc	Vdc	IERange
	#	s	Hz	ohm	ohm	V	ohm	°	A	V	#
	0	1	1000078	2154.037	-1068.921	1	2404.677	-26.39248	-2.647282E-006	0.0109844	8
	1	1	794390.6	2341.672	-971.922	1	2535.362	-22.54111	-2.184478E-007	0.0103054	8
	2	2	630984.4	2491.132	-853.1118	1	2633.162	-18.90425	-4.332528E-007	0.0096292	8
	3	2	501234.4	2603.677	-743.24	1	2707.682	-15.93181	1.793439E-006	0.0092493	8
	4	2	398109.4	2688.399	-631.308	1	2761.529	-13.21514	1.302715E-006	0.0093283	8
	5	3	316265.6	2751.756	-547.2934	1	2805.653	-11.2487	-2.872737E-007	0.0095463	8
	6	3	251203.1	2799.301	-468.0656	1	2838.164	-9.492497	-1.412692E-006	0.0098233	8
	7	3	199546.9	2829.629	-407.6588	1	2858.843	-8.198076	-3.634921E-007	0.0094697	8
	8	4	158578.1	2865.461	-362.2689	1	2888.27	-7.205451	2.730392E-006	0.0090815	8
	9	4	125953.1	2895.445	-294.8546	1	2910.419	-5.814612	9.325836E-008	0.0095355	7
	10	4	100078.1	2922.473	-271.6882	1	2935.074	-5.311246	3.572754E-008	0.009419	7
	11	5	79453.13	2942.913	-265.0393	1	2954.823	-5.146185	1.093196E-008	0.0094686	7
	12	5	63140.62	2964.062	-265.2815	1	2975.909	-5.114307	9.389953E-008	0.0093848	7
	13	5	50203.12	2986.008	-271.6083	1	2998.335	-5.197342	9.110696E-008	0.0093822	7
	14	5	39890.62	3009.577	-283.7556	1	3022.924	-5.386166	-1.16555E-008	0.0095644	7
	15	6	31640.63	3035.167	-302.9485	1	3050.249	-5.699972	9.520845E-009	0.0094583	7
	16	6	25171.88	3061.393	-328.972	1	3079.018	-6.133369	-4.689622E-008	0.0095783	7
	17	6	20015.62	3095.015	-359.0322	1	3115.77	-6.616929	9.153046E-008	0.0093789	7
	18	7	15890.62	3122.19	-405.7211	1	3148.441	-7.403958	-1.269784E-008	0.0095434	7
	19	7	12609.37	3156.22	-458.3455	1	3189.326	-8.262719	-1.197272E-008	0.0095629	7
	20	7	10078.13	3192.887	-522.3954	1	3235.34	-9.291964	-5.661164E-008	0.0095922	7
	21	8	8015.625	3232.158	-599.9858	1	3287.374	-10.51612	-3.430545E-008	0.0095866	7
	22	8	6328.125	3277.014	-699.5145	1	3350.842	-12.04957	-2.4676E-008	0.0095106	7
	23	8	5015.625	3324.28	-818.7335	1	3423.618	-13.83595	-8.686372E-009	0.0094822	7
	24	9	3984.375	3376.995	-963.024	1	3511.625	-15.91665	3.701209E-008	0.0094032	7
	25	9	3170.956	3433.094	-1142.992	1	3618.365	-18.41434	3.746587E-009	0.0095934	7
	26	9	2527.573	3498.13	-1356.269	1	3751.85	-21.19194	-2.353833E-008	0.0095088	7
	27	10	1976.103	3577.782	-1644.744	1	3937.729	-24.68873	-8.17064E-009	0.0094811	7
	28	10	1577.524	3663.958	-1971.1	1	4160.507	-28.27892	-7.443981E-009	0.0094845	7
	29	10	1265.625	3750.621	-2352.976	1	4427.602	-32.10237	-7.744045E-009	0.0094775	7
	30	11	998.264	3860.137	-2863.995	1	4806.571	-36.57325	9.308483E-008	0.0093718	7
	31	11	796.875	3983.2	-3460.875	1	5276.698	-40.98633	1.782276E-009	0.0094981	7
	32	11	627.7902	4133.298	-4240.841	1	5921.899	-45.73577	-2.454582E-008	0.0095083	7
	33	12	505.5147	4287.971	-5120.731	1	6678.966	-50.05804	-6.080629E-008	0.0096809	7
	34	12	397.9953	4501.365	-6311.861	1	7752.54	-54.50506	7.15934E-010	0.0095354	7
	35	12	315.5048	4756.786	-7753.63	1	9096.472	-58.47124	2.261337E-009	0.009536	7
	36	13	252.4038	5064.12	-9461.709	1	10731.69	-61.84331	9.800784E-010	0.0094735	6
	37	13	198.6229	5482.434	-11724.86	1	12943.31	-64.93965	6.322104E-010	0.009474	6
	38	13	158.3615	5999.335	-14362.87	1	15565.48	-67.32983	8.707678E-010	0.0094703	6
	39	14	125.558	6682.892	-17681.23	1	18902.04	-69.29515	7.021176E-010	0.0094736	6
	40	14	100.4464	7511.568	-21577.24	1	22847.34	-70.80574	-5.258558E-010	0.0094688	6
	41	14	79.00281	8761.232	-26636.74	1	28040.6	-71.79317	-7.002671E-010	0.0094697	6
	42	15	63.3446	10287.52	-32784.33	1	34360.52	-72.57846	6.895372E-010	0.0094685	6
	43	15	49.86702	12277.46	-40253.57	1	42084.27	-73.03814	7.591599E-010	0.0094678	6
	44	15	39.72458	15034.67	-48586.4	1	50859.41	-72.80574	3.448482E-010	0.0094722	6
	45	16	31.6723	18399.08	-58654.06	1	61472.15	-72.58398	6.957044E-010	0.0094685	6
	46	16	24.93351	23122.88	-71922.68	1	75548.26	-72.17759	2.593545E-011	0.0094677	6
	47	16	19.86229	29123.48	-86712.55	1	91472.63	-71.43474	-5.517307E-010	0.0094736	6
	48	16	15.83615	37674.19	-102664	1	109358.4	-69.84859	2.218072E-009	0.0094713	5
	49	17	12.40079	47244.32	-124771.4	1	133416.4	-69.26097	-1.332088E-009	0.0094777	5
	50	17	9.93114	59667.81	-147740.5	1	159334.6	-68.00775	2.021146E-010	0.0094755	5
	51	18	7.944915	74547.64	-173782.4	1	189097	-66.78206	2.403844E-010	0.0094734	5
	52	18	6.317385	92638.25	-203303	1	223414.3	-65.50286	3.576072E-010	0.0094658	5
	53	19	5.008013	115316	-237814.7	1	264298.4	-64.13132	3.260488E-010	0.0094814	5
	54	20	3.945707	143063.8	-277294.2	1	312024.5	-62.70953	-1.815309E-010	0.0094746	5
	55	22	3.158693	173319.9	-318485.6	1	362591.9	-61.44496	-2.009915E-010	0.0094581	5
	56	23	2.504006	209611.5	-366880.3	1	422537.7	-60.25917	6.452332E-011	0.0094614	5
	57	25	1.998082	248598.2	-418662.3	1	486907.8	-59.29852	-9.667678E-011	0.0094443	5
	58	26	1.584686	295409.7	-480603.6	1	564133.6	-58.42246	-1.890869E-010	0.0094122	5
	59	28	1.266892	343881.2	-548878.8	1	647705.4	-57.93221	-2.042218E-010	0.0094278	5
	60	31	0.999041	401102.6	-630816.2	1	747537.5	-57.54988	-1.682965E-010	0.0094538	5
