EXPLAIN
TAG	EISPOT
TITLE	LABEL	Potentiostatic EIS	Test &Identifier
DATE	LABEL	11/9/2019	Date
TIME	LABEL	9:47:46	Time
NOTES	NOTES	2	&Notes...
	
	
PSTAT	PSTAT	REF600-11020	Potentiostat
VDC	POTEN	0.00000E+000	T	DC &Voltage (V)
FREQINIT	QUANT	1.00000E+006	Initial Fre&q. (Hz)
FREQFINAL	QUANT	1.00000E+000	Final Fre&q. (Hz)
PTSPERDEC	QUANT	1.00000E+001	Points/&decade
VAC	QUANT	2.50000E+001	AC &Voltage (mV rms)
AREA	QUANT	1.00000E-002	&Area (cm^2)
CONDIT	TWOPARAM	T	5.00000E+000	0.00000E+000	Conditionin&g	Time(s)	E(V)
DELAY	TWOPARAM	T	5.00000E+000	0.00000E+000	Init. De&lay	Time(s)	Stab.(mV/s)
SPEED	SELECTOR	0	&Optimize for:
ZGUESS	QUANT	1.00000E+005	E&stimated Z (ohms)
OCVCURVE	TABLE	19
	Pt	T	Vf	Vm	Ach	Over
	#	s	V vs. Ref.	V	V	bits
	0	0.258333	3.87023E-003	3.87023E-003	5.56266E-004	...........
	1	0.516667	3.87012E-003	3.86445E-003	5.57599E-004	...........
	2	0.775	3.86594E-003	3.67570E-003	5.56333E-004	...........
	3	1.03333	3.84527E-003	3.64033E-003	5.58399E-004	...........
	4	1.29167	3.79774E-003	3.59827E-003	5.63566E-004	...........
	5	1.55	3.73204E-003	3.59872E-003	5.59132E-004	...........
	6	1.80833	3.66927E-003	3.55617E-003	5.60466E-004	...........
	7	2.06667	3.62189E-003	3.53526E-003	5.60499E-004	...........
	8	2.325	3.58633E-003	3.41833E-003	5.57166E-004	...........
	9	2.58333	3.55082E-003	3.42928E-003	5.59599E-004	...........
	10	2.84167	3.51022E-003	3.45508E-003	5.57899E-004	...........
	11	3.1	3.47479E-003	3.51588E-003	5.55933E-004	...........
	12	3.35833	3.45933E-003	3.49226E-003	5.57732E-004	...........
	13	3.61667	3.46443E-003	3.46429E-003	5.55633E-004	...........
	14	3.875	3.47339E-003	3.35273E-003	5.51933E-004	...........
	15	4.13333	3.46137E-003	3.08914E-003	5.60466E-004	...........
	16	4.39167	3.40497E-003	2.98838E-003	5.51566E-004	...........
	17	4.65	3.29957E-003	2.96138E-003	5.56399E-004	...........
	18	4.90833	3.17154E-003	2.91006E-003	5.54433E-004	...........
EOC	QUANT	0.0031715	Open Circuit (V)
PSTATMODEL	IQUANT	4	Pstat Model
PSTATSECTION	LABEL	REF600-11020	Pstat Section
PSTATSERIALNO	LABEL	11020	Pstat Serial Number
CTRLMODE	IQUANT	1	Control Mode
IESTAB	IQUANT	0	I/E Stability
CASPEED	IQUANT	1	Control Amp Speed
CONVENTION	IQUANT	1	Current Convention
ICHRANGE	IQUANT	2	Ich Range
ICHRANGEMODE	TOGGLE	F	Ich Auto Range
ICHOFFSETENABLE	TOGGLE	T	Ich Offset Enable
ICHOFFSET	QUANT	0	Ich Offset (V)
ICHFILTER	IQUANT	3	Ich Filter
VCHRANGE	IQUANT	2	Vch Range
VCHRANGEMODE	TOGGLE	F	Vch Auto Range
VCHOFFSETENABLE	TOGGLE	T	Vch Offset Enable
VCHOFFSET	QUANT	0	Vch Offset (V)
VCHFILTER	IQUANT	3	Vch Filter
ACHRANGE	IQUANT	2	Ach Range
ACHOFFSETENABLE	TOGGLE	F	Ach Offset Enable
ACHOFFSET	QUANT	0	Ach Offset (V)
ACHFILTER	IQUANT	3	Ach Filter
IERANGELOWERLIMIT	IQUANT	1	I/E Range Lower Limit
IERANGEMODE	TOGGLE	F	I/E AutoRange
IERANGE	IQUANT	4	I/E Range
POSFEEDENABLE	TOGGLE	F	Positive Feedback IR Comp
POSFEEDRESISTANCE	QUANT	0	Positive Feedback Resistance (ohm)
ACHSELECT	IQUANT	0	Ach Select
CABLEID	IQUANT	14	Cable ID
DCCALDATE	LABEL	8/19/2019	DC Calibration Date
ACCALDATE	LABEL	8/19/2019	AC Calibration Date
THERMOSELECT	IQUANT	1	Thermo Select
FRAMEWORKVERSION	QUANT	6.33	Framework Version
INSTRUMENTVERSION	LABEL	3.50	Instrument Version
ZCURVE	TABLE
	Pt	Time	Freq	Zreal	Zimag	Zsig	Zmod	Zphz	Idc	Vdc	IERange
	#	s	Hz	ohm	ohm	V	ohm	°	A	V	#
	0	1	1000078	2292.344	-1432.901	1	2703.34	-32.00872	2.726333E-006	0.0060749	8
	1	2	794390.6	2570.01	-1366.579	1	2910.754	-28.0014	-8.339733E-006	0.0057558	8
	2	2	630984.4	2798.394	-1237.065	1	3059.63	-23.84842	-2.244892E-006	0.0058408	8
	3	2	501234.4	2993.931	-1107.363	1	3192.158	-20.29788	-7.966504E-006	0.0061494	8
	4	3	398109.4	3155.291	-982.979	1	3304.862	-17.30355	-4.176267E-007	0.0054391	8
	5	3	316265.6	3286.974	-867.1295	1	3399.428	-14.77838	5.00047E-006	0.0047855	8
	6	3	251203.1	3375.652	-743.8444	1	3456.635	-12.42686	-2.006031E-006	0.0053625	8
	7	4	199546.9	3457.642	-662.9607	1	3520.625	-10.85404	-4.016132E-008	0.0044561	8
	8	4	158578.1	3533.445	-616.3165	1	3586.792	-9.8942	-1.742972E-006	0.005341	8
	9	4	125953.1	3580.092	-471.5998	1	3611.02	-7.504276	6.882552E-007	0.0075668	7
	10	5	100078.1	3624.766	-434.5221	1	3650.717	-6.835764	-1.497038E-006	0.0061168	7
	11	5	79453.13	3658.539	-412.1515	1	3681.681	-6.427538	-1.113174E-006	0.0068648	7
	12	5	63140.62	3692.242	-400.6102	1	3713.912	-6.192399	1.671157E-007	0.0030806	7
	13	5	50203.12	3721.872	-395.3767	1	3742.813	-6.063824	-1.51835E-006	0.0065737	7
	14	6	39890.62	3762.191	-404.9438	1	3783.922	-6.143384	-1.119869E-006	0.0068574	7
	15	6	31640.63	3796.19	-417.1531	1	3819.041	-6.270918	1.347395E-006	0.0034054	7
	16	6	25171.88	3833.396	-440.537	1	3858.626	-6.555719	4.712119E-007	0.0054507	7
	17	7	20015.62	3882.889	-477.0574	1	3912.086	-7.00434	1.352899E-006	0.0034035	7
	18	7	15890.62	3926.753	-511.9471	1	3959.985	-7.427991	6.759273E-008	0.005987	7
	19	7	12609.37	3962.465	-575.7499	1	4004.075	-8.267274	1.012453E-006	0.0045375	7
	20	8	10078.13	3990.824	-652.6595	1	4043.84	-9.287933	-8.823461E-007	0.0045467	7
	21	8	8015.625	4071.047	-736.0175	1	4137.045	-10.24799	9.736319E-007	0.0025939	7
	22	8	6328.125	4113.183	-837.7463	1	4197.629	-11.51217	-1.354242E-006	0.0067792	7
	23	9	5015.625	4183.191	-971.888	1	4294.607	-13.07958	-1.521141E-006	0.0065726	7
	24	9	3984.375	4245.311	-1143.15	1	4396.528	-15.07078	-1.358278E-006	0.0067729	7
	25	9	3170.956	4320.028	-1339.267	1	4522.862	-17.22414	-3.633034E-007	0.0037049	7
	26	10	2527.573	4396.712	-1580.555	1	4672.176	-19.77278	-1.501384E-006	0.0060988	7
	27	10	1976.103	4489.136	-1902.601	1	4875.677	-22.96836	6.093244E-007	0.0027142	7
	28	10	1577.524	4619.655	-2273.526	1	5148.799	-26.20373	7.371434E-007	0.0050582	7
	29	11	1265.625	4701.913	-2703.673	1	5423.821	-29.89957	-3.796494E-007	0.0064659	7
	30	11	998.264	4868.682	-3293.936	1	5878.271	-34.08055	7.306821E-007	0.0050605	7
	31	11	796.875	5023.699	-3944.179	1	6387.026	-38.13598	-1.500474E-006	0.0060956	7
	32	11	627.7902	5219.616	-4809.517	1	7097.594	-42.65844	-1.363197E-006	0.0067675	7
	33	12	505.5147	5434.924	-5768.596	1	7925.597	-46.70592	-3.679191E-007	0.0036969	7
	34	12	397.9953	5707.335	-7074.524	1	9089.695	-51.10533	7.544642E-010	0.0048096	7
	35	13	315.5048	6026.824	-8632.13	1	10527.88	-55.07783	-6.675189E-010	0.0047477	6
	36	13	252.4038	6401.509	-10474.33	1	12275.62	-58.56833	1.608497E-009	0.004748	6
	37	13	198.6229	6886.623	-12911.32	1	14633.11	-61.92549	4.679572E-010	0.0047463	6
	38	14	158.3615	7474.202	-15767.24	1	17449.06	-64.63747	1.134864E-009	0.0047489	6
	39	14	125.558	8241.229	-19352.82	1	21034.48	-66.93369	1.077158E-009	0.0047466	6
	40	14	100.4464	9251.053	-23532	1	25285.11	-68.53889	6.713848E-010	0.0047392	6
	41	14	79.00281	10679.31	-29095.11	1	30993.11	-69.84443	1.244248E-009	0.004731	6
	42	15	63.3446	11440.84	-35649.62	1	37440.46	-72.20729	-8.62846E-010	0.0047366	6
	43	15	49.86702	13830.35	-43568.83	1	45711.28	-72.38865	1.232267E-009	0.0047407	6
	44	16	39.72458	17442.04	-53133.37	1	55922.98	-71.8266	1.070136E-009	0.0047414	6
	45	16	31.6723	21776.11	-64281.21	1	67869.52	-71.28551	1.230145E-009	0.0047428	6
	46	16	24.93351	26756.05	-78394.26	1	82834.45	-71.15517	-2.256597E-010	0.0047322	6
	47	17	19.86229	33607.89	-94479.11	1	100278.6	-70.41863	6.298244E-010	0.0047317	6
	48	17	15.83615	39964.88	-112126.6	1	119036	-70.38258	2.073223E-009	0.0047449	5
	49	17	12.40079	52752.81	-136242.4	1	146098.8	-68.83369	-1.144789E-009	0.0047321	5
	50	18	9.93114	69834.38	-159835.9	1	174425.8	-66.39886	-6.536015E-010	0.004736	5
	51	18	7.944915	87853.48	-186744.9	1	206378	-64.80553	-1.180968E-010	0.0047432	5
	52	19	6.317385	110223.5	-216687.6	1	243110.5	-63.03871	-7.539837E-012	0.0047391	5
	53	20	5.008013	137560.1	-250327.6	1	285633.8	-61.21031	-3.770762E-010	0.0047323	5
	54	21	3.945707	169608.8	-285905.4	1	332429	-59.32214	-4.539316E-011	0.0047351	5
	55	22	3.158693	205843	-323066.3	1	383070.7	-57.49658	3.700241E-011	0.0047574	5
	56	3849	2.504006	246150.5	-365005	1	440248.5	-56.00523	-1.986112E-010	0.0047457	5
	57	3851	1.998082	287573.2	-407995	1	499157.5	-54.8221	3.472813E-011	0.0047638	5
	58	3852	1.584686	334418.9	-459557	1	568356.1	-53.95668	1.681569E-010	0.0047917	5
	59	3854	1.266892	380735.4	-516534.4	1	641690.9	-53.60623	1.301024E-010	0.0047642	5
	60	3857	0.999041	434102.2	-586108.4	1	729361.3	-53.47444	9.634482E-011	0.0047358	5
