EXPLAIN
TAG	EISPOT
TITLE	LABEL	Potentiostatic EIS	Test &Identifier
DATE	LABEL	10/18/2019	Date
TIME	LABEL	10:20:23	Time
NOTES	NOTES	1	&Notes...
	
PSTAT	PSTAT	REF600-11020	Potentiostat
VDC	POTEN	0.00000E+000	T	DC &Voltage (V)
FREQINIT	QUANT	1.00000E+006	Initial Fre&q. (Hz)
FREQFINAL	QUANT	1.00000E+000	Final Fre&q. (Hz)
PTSPERDEC	QUANT	1.00000E+001	Points/&decade
VAC	QUANT	2.50000E+001	AC &Voltage (mV rms)
AREA	QUANT	1.00000E-002	&Area (cm^2)
CONDIT	TWOPARAM	T	5.00000E+000	0.00000E+000	Conditionin&g	Time(s)	E(V)
DELAY	TWOPARAM	T	5.00000E+000	0.00000E+000	Init. De&lay	Time(s)	Stab.(mV/s)
SPEED	SELECTOR	0	&Optimize for:
ZGUESS	QUANT	1.00000E+005	E&stimated Z (ohms)
OCVCURVE	TABLE	19
	Pt	T	Vf	Vm	Ach	Over
	#	s	V vs. Ref.	V	V	bits
	0	0.258333	6.22357E-003	6.22357E-003	5.57066E-004	...........
	1	0.516667	6.22234E-003	6.15922E-003	5.56099E-004	...........
	2	0.775	6.21564E-003	6.14291E-003	5.55233E-004	...........
	3	1.03333	6.19815E-003	6.05422E-003	5.55266E-004	...........
	4	1.29167	6.16584E-003	5.94772E-003	5.58732E-004	...........
	5	1.55	6.11542E-003	5.87502E-003	5.65399E-004	...........
	6	1.80833	6.04811E-003	5.84977E-003	5.60166E-004	...........
	7	2.06667	5.97444E-003	5.80190E-003	5.65066E-004	...........
	8	2.325	5.90765E-003	5.77268E-003	5.66499E-004	...........
	9	2.58333	5.85356E-003	5.73552E-003	5.75066E-004	...........
	10	2.84167	5.81054E-003	5.72185E-003	5.63699E-004	...........
	11	3.1	5.77579E-003	5.71588E-003	5.67566E-004	...........
	12	3.35833	5.74931E-003	5.73629E-003	5.70599E-004	...........
	13	3.61667	5.73349E-003	5.75514E-003	5.62932E-004	...........
	14	3.875	5.72966E-003	5.74896E-003	5.66899E-004	...........
	15	4.13333	5.73522E-003	5.77965E-003	5.65799E-004	...........
	16	4.39167	5.74590E-003	5.79586E-003	5.57599E-004	...........
	17	4.65	5.76042E-003	5.85297E-003	5.63632E-004	...........
	18	4.90833	5.78058E-003	5.86923E-003	5.61332E-004	...........
EOC	QUANT	0.0057806	Open Circuit (V)
PSTATMODEL	IQUANT	4	Pstat Model
PSTATSECTION	LABEL	REF600-11020	Pstat Section
PSTATSERIALNO	LABEL	11020	Pstat Serial Number
CTRLMODE	IQUANT	1	Control Mode
IESTAB	IQUANT	0	I/E Stability
CASPEED	IQUANT	1	Control Amp Speed
CONVENTION	IQUANT	1	Current Convention
ICHRANGE	IQUANT	2	Ich Range
ICHRANGEMODE	TOGGLE	F	Ich Auto Range
ICHOFFSETENABLE	TOGGLE	T	Ich Offset Enable
ICHOFFSET	QUANT	0	Ich Offset (V)
ICHFILTER	IQUANT	3	Ich Filter
VCHRANGE	IQUANT	2	Vch Range
VCHRANGEMODE	TOGGLE	F	Vch Auto Range
VCHOFFSETENABLE	TOGGLE	T	Vch Offset Enable
VCHOFFSET	QUANT	0	Vch Offset (V)
VCHFILTER	IQUANT	3	Vch Filter
ACHRANGE	IQUANT	2	Ach Range
ACHOFFSETENABLE	TOGGLE	F	Ach Offset Enable
ACHOFFSET	QUANT	0	Ach Offset (V)
ACHFILTER	IQUANT	3	Ach Filter
IERANGELOWERLIMIT	IQUANT	1	I/E Range Lower Limit
IERANGEMODE	TOGGLE	F	I/E AutoRange
IERANGE	IQUANT	5	I/E Range
POSFEEDENABLE	TOGGLE	F	Positive Feedback IR Comp
POSFEEDRESISTANCE	QUANT	0	Positive Feedback Resistance (ohm)
ACHSELECT	IQUANT	0	Ach Select
CABLEID	IQUANT	14	Cable ID
DCCALDATE	LABEL	8/19/2019	DC Calibration Date
ACCALDATE	LABEL	8/19/2019	AC Calibration Date
THERMOSELECT	IQUANT	1	Thermo Select
FRAMEWORKVERSION	QUANT	6.33	Framework Version
INSTRUMENTVERSION	LABEL	3.50	Instrument Version
ZCURVE	TABLE
	Pt	Time	Freq	Zreal	Zimag	Zsig	Zmod	Zphz	Idc	Vdc	IERange
	#	s	Hz	ohm	ohm	V	ohm	°	A	V	#
	0	2	1000078	2766.776	-2083.613	1	3463.595	-36.9828	-2.320544E-007	0.0083233	8
	1	2	794390.6	3184.017	-2059.836	1	3792.214	-32.90004	1.713048E-006	0.0074468	8
	2	2	630984.4	3575.218	-1945.708	1	4070.376	-28.55595	4.432525E-007	0.0073658	8
	3	3	501234.4	3945.04	-1794.225	1	4333.887	-24.45629	-3.72782E-007	0.0074795	8
	4	3	398109.4	4219.751	-1589.236	1	4509.099	-20.63729	-2.141273E-006	0.0078613	8
	5	3	316265.6	4470.991	-1414.392	1	4689.377	-17.5547	2.91392E-006	0.0068016	8
	6	3	251203.1	4703.983	-1251.263	1	4867.558	-14.89579	-3.352597E-006	0.0078724	8
	7	4	199546.9	4795.043	-1055.127	1	4909.759	-12.40989	2.788357E-006	0.0068048	8
	8	4	158578.1	4890.368	-927.4084	1	4977.528	-10.73805	3.729345E-006	0.0067761	8
	9	4	125953.1	5050.162	-734.6132	1	5103.312	-8.276384	4.325973E-007	0.00606	7
	10	5	100078.1	5072.148	-632.4206	1	5111.423	-7.107243	8.124932E-008	0.0071677	7
	11	5	79453.13	5123.101	-565.7906	1	5154.249	-6.302155	-8.642617E-009	0.0073825	7
	12	5	63140.62	5167.53	-516.8571	1	5193.313	-5.711736	-2.050514E-008	0.0073084	7
	13	6	50203.12	5207.127	-481.9933	1	5229.388	-5.288465	8.205883E-008	0.0071592	7
	14	6	39890.62	5245.387	-460.6363	1	5265.574	-5.018692	-4.152519E-008	0.0073594	7
	15	6	31640.63	5281.129	-450.4997	1	5300.309	-4.875737	8.224478E-008	0.0071591	7
	16	7	25171.88	5315.327	-452.4844	1	5334.551	-4.865758	-5.907863E-009	0.007359	7
	17	7	20015.62	5375.852	-439.7976	1	5393.812	-4.676943	-1.881116E-008	0.0073062	7
	18	7	15890.62	5390.097	-489.6114	1	5412.289	-5.190238	9.363385E-008	0.0072702	7
	19	8	12609.37	5428.428	-530.7461	1	5454.313	-5.584151	4.350201E-008	0.007282	7
	20	8	10078.13	5465.29	-583.1247	1	5496.31	-6.090191	1.389306E-007	0.0071191	7
	21	8	8015.625	5477.183	-685.0659	1	5519.859	-7.129323	-7.420547E-009	0.007347	7
	22	8	6328.125	5546.692	-748.692	1	5596.993	-7.687318	-4.264879E-008	0.0073564	7
	23	9	5015.625	5592.01	-868.2733	1	5659.017	-8.825858	-3.46274E-008	0.0073573	7
	24	9	3984.375	5651.943	-1013.618	1	5742.115	-10.16733	-4.405367E-008	0.0073594	7
	25	9	3170.956	5695.636	-1204.569	1	5821.62	-11.94151	-5.692193E-009	0.0073796	7
	26	10	2527.573	5758.052	-1429.754	1	5932.904	-13.94481	-1.899401E-008	0.0072933	7
	27	10	1976.103	5837.051	-1732.808	1	6088.825	-16.53424	-3.537437E-008	0.0073533	7
	28	11	1577.524	5945.622	-2113.313	1	6310.033	-19.56726	-8.289491E-008	0.0074635	7
	29	11	1265.625	6004.282	-2491.439	1	6500.667	-22.5357	9.422687E-008	0.0072576	7
	30	11	998.264	6112.502	-3036.288	1	6825.081	-26.41516	-2.079876E-008	0.0072953	7
	31	12	796.875	6239.571	-3681.193	1	7244.544	-30.53956	-5.9538E-009	0.0073623	7
	32	12	627.7902	6393.095	-4517.935	1	7828.372	-35.24846	-4.675004E-008	0.0074219	7
	33	12	505.5147	6562.089	-5457.803	1	8535.141	-39.75089	-3.356508E-008	0.0073608	7
	34	13	397.9953	6778.657	-6736.173	1	9556.48	-44.81989	1.696425E-009	0.0073464	7
	35	13	315.5048	7047.113	-8275.515	1	10869.5	-49.58355	-3.181093E-010	0.0072838	6
	36	13	252.4038	7360.722	-10107.18	1	12503.41	-53.9354	-6.435432E-010	0.0072791	6
	37	13	198.6229	7787.906	-12533.86	1	14756.32	-58.14527	1.39786E-010	0.0072869	6
	38	14	158.3615	8311.9	-15367.48	1	17471.32	-61.59211	-4.662354E-010	0.0072775	6
	39	14	125.558	9003.334	-18943.96	1	20974.6	-64.58006	-1.04938E-010	0.0072823	6
	40	14	100.4464	9923.16	-23146.53	1	25183.94	-66.79468	1.391123E-009	0.0072709	6
	41	15	79.00281	11224.3	-28775.32	1	30886.96	-68.69089	-4.195075E-010	0.0072696	6
	42	15	63.3446	12553.05	-35535.34	1	37687.39	-70.54396	9.914509E-010	0.0072671	6
	43	15	49.86702	14602.79	-43615.28	1	45994.94	-71.48899	-1.169993E-009	0.0072672	6
	44	16	39.72458	17784.07	-52717.55	1	55636.43	-71.35837	4.554109E-010	0.0072715	6
	45	16	31.6723	21612.87	-64312.6	1	67847.08	-71.42458	-6.113821E-010	0.0072692	6
	46	16	24.93351	26883.57	-78166.34	1	82660.17	-71.02049	7.40245E-010	0.0072661	6
	47	17	19.86229	33429.39	-94043.72	1	99808.5	-70.4314	8.134423E-010	0.0072684	6
	48	17	15.83615	41161.69	-114646.5	1	121811.7	-70.25027	-2.259008E-009	0.0072736	5
	49	17	12.40079	54985.66	-135966.5	1	146664	-67.98131	-9.566063E-010	0.0072805	5
	50	18	9.93114	67752.48	-159335.9	1	173142.5	-66.96394	9.249925E-010	0.0072782	5
	51	18	7.944915	84996.47	-185688.2	1	204216.8	-65.40465	1.031758E-009	0.0072751	5
	52	19	6.317385	106354	-216755.2	1	241441.5	-63.86448	5.415765E-010	0.0072643	5
	53	20	5.008013	131711.7	-252016.2	1	284359.2	-62.407	5.138986E-010	0.007278	5
	54	21	3.945707	160163.5	-291345.3	1	332467.2	-61.20074	2.874214E-010	0.0072756	5
	55	22	3.158693	192567	-332438.5	1	384184.1	-59.91818	-1.054863E-010	0.0072597	5
	56	24	2.504006	229870.7	-380915	1	444900.8	-58.89029	1.224298E-010	0.0072586	5
	57	25	1.998082	269187	-434614.2	1	511225.2	-58.22717	1.344023E-010	0.0072832	5
	58	27	1.584686	316054.5	-496652.9	1	588688.9	-57.52859	-3.448797E-011	0.0072391	5
	59	29	1.266892	366819.8	-568031.9	1	676178.3	-57.14671	-7.198945E-011	0.0072196	5
	60	31	0.999041	425695.1	-655702.6	1	781768.7	-57.00757	-2.82208E-010	0.0072309	5
