EXPLAIN
TAG	EISPOT
TITLE	LABEL	Potentiostatic EIS	Test &Identifier
DATE	LABEL	10/28/2019	Date
TIME	LABEL	10:25:48	Time
NOTES	NOTES	1	&Notes...
	
PSTAT	PSTAT	REF600-11020	Potentiostat
VDC	POTEN	0.00000E+000	T	DC &Voltage (V)
FREQINIT	QUANT	1.00000E+006	Initial Fre&q. (Hz)
FREQFINAL	QUANT	1.00000E+000	Final Fre&q. (Hz)
PTSPERDEC	QUANT	1.00000E+001	Points/&decade
VAC	QUANT	2.50000E+001	AC &Voltage (mV rms)
AREA	QUANT	1.00000E-002	&Area (cm^2)
CONDIT	TWOPARAM	T	5.00000E+000	0.00000E+000	Conditionin&g	Time(s)	E(V)
DELAY	TWOPARAM	T	5.00000E+000	0.00000E+000	Init. De&lay	Time(s)	Stab.(mV/s)
SPEED	SELECTOR	1	&Optimize for:
ZGUESS	QUANT	1.00000E+005	E&stimated Z (ohms)
OCVCURVE	TABLE	19
	Pt	T	Vf	Vm	Ach	Over
	#	s	V vs. Ref.	V	V	bits
	0	0.258333	6.57935E-003	6.57935E-003	5.38033E-004	...........
	1	0.516667	6.57861E-003	6.54037E-003	5.34900E-004	...........
	2	0.775	6.57423E-003	6.51375E-003	5.39899E-004	...........
	3	1.03333	6.56294E-003	6.51079E-003	5.42699E-004	...........
	4	1.29167	6.54585E-003	6.50555E-003	5.36533E-004	...........
	5	1.55	6.52887E-003	6.52138E-003	5.32233E-004	...........
	6	1.80833	6.51806E-003	6.53757E-003	5.38333E-004	...........
	7	2.06667	6.51648E-003	6.55787E-003	5.37166E-004	...........
	8	2.325	6.52400E-003	6.58270E-003	5.34633E-004	...........
	9	2.58333	6.53876E-003	6.61009E-003	5.38999E-004	...........
	10	2.84167	6.55884E-003	6.64409E-003	5.38766E-004	...........
	11	3.1	6.58321E-003	6.67880E-003	5.37466E-004	...........
	12	3.35833	6.61131E-003	6.71056E-003	5.29833E-004	...........
	13	3.61667	6.64227E-003	6.74204E-003	5.40633E-004	...........
	14	3.875	6.67471E-003	6.77678E-003	5.41399E-004	...........
	15	4.13333	6.70762E-003	6.81095E-003	5.35033E-004	...........
	16	4.39167	6.74089E-003	6.84984E-003	5.35566E-004	...........
	17	4.65	6.77497E-003	6.88655E-003	5.35666E-004	...........
	18	4.90833	6.81021E-003	6.92231E-003	5.43666E-004	...........
EOC	QUANT	0.0068102	Open Circuit (V)
PSTATMODEL	IQUANT	4	Pstat Model
PSTATSECTION	LABEL	REF600-11020	Pstat Section
PSTATSERIALNO	LABEL	11020	Pstat Serial Number
CTRLMODE	IQUANT	1	Control Mode
IESTAB	IQUANT	0	I/E Stability
CASPEED	IQUANT	1	Control Amp Speed
CONVENTION	IQUANT	1	Current Convention
ICHRANGE	IQUANT	2	Ich Range
ICHRANGEMODE	TOGGLE	F	Ich Auto Range
ICHOFFSETENABLE	TOGGLE	T	Ich Offset Enable
ICHOFFSET	QUANT	0	Ich Offset (V)
ICHFILTER	IQUANT	3	Ich Filter
VCHRANGE	IQUANT	2	Vch Range
VCHRANGEMODE	TOGGLE	F	Vch Auto Range
VCHOFFSETENABLE	TOGGLE	T	Vch Offset Enable
VCHOFFSET	QUANT	0	Vch Offset (V)
VCHFILTER	IQUANT	3	Vch Filter
ACHRANGE	IQUANT	2	Ach Range
ACHOFFSETENABLE	TOGGLE	F	Ach Offset Enable
ACHOFFSET	QUANT	0	Ach Offset (V)
ACHFILTER	IQUANT	3	Ach Filter
IERANGELOWERLIMIT	IQUANT	1	I/E Range Lower Limit
IERANGEMODE	TOGGLE	F	I/E AutoRange
IERANGE	IQUANT	5	I/E Range
POSFEEDENABLE	TOGGLE	F	Positive Feedback IR Comp
POSFEEDRESISTANCE	QUANT	0	Positive Feedback Resistance (ohm)
ACHSELECT	IQUANT	0	Ach Select
CABLEID	IQUANT	14	Cable ID
DCCALDATE	LABEL	8/19/2019	DC Calibration Date
ACCALDATE	LABEL	8/19/2019	AC Calibration Date
THERMOSELECT	IQUANT	1	Thermo Select
FRAMEWORKVERSION	QUANT	6.33	Framework Version
INSTRUMENTVERSION	LABEL	3.50	Instrument Version
ZCURVE	TABLE
	Pt	Time	Freq	Zreal	Zimag	Zsig	Zmod	Zphz	Idc	Vdc	IERange
	#	s	Hz	ohm	ohm	V	ohm	°	A	V	#
	0	1	1000078	2492.175	-1693.521	1	3013.13	-34.19749	-4.14874E-006	0.0090441	8
	1	3	794390.6	2811.717	-1613.133	1	3241.597	-29.84368	4.12989E-006	0.0080025	8
	2	4	630984.4	3106.186	-1474.445	1	3438.368	-25.39277	-2.45169E-006	0.0087556	8
	3	6	501234.4	3366.939	-1327.129	1	3619.053	-21.51261	-3.531418E-006	0.0090561	8
	4	7	398109.4	3553.671	-1172.104	1	3741.979	-18.25406	-3.331556E-007	0.008439	8
	5	9	316265.6	3704.795	-1027.353	1	3844.602	-15.49889	1.891552E-007	0.0083631	8
	6	10	251203.1	3814.011	-885.2574	1	3915.4	-13.06735	-7.596575E-007	0.0085733	8
	7	12	199546.9	3923.742	-740.9277	1	3993.085	-10.69336	-5.484952E-006	0.0095836	8
	8	13	158578.1	3969.486	-664.5594	1	4024.731	-9.50415	1.036309E-006	0.0081146	8
	9	15	125953.1	4068.508	-520.5152	1	4101.67	-7.290679	9.353228E-007	0.006256	7
	10	16	100078.1	4108.084	-459.3464	1	4133.686	-6.380039	-5.183914E-008	0.0083074	7
	11	18	79453.13	4126.382	-433.4776	1	4149.088	-5.996943	-5.867127E-008	0.0084558	7
	12	19	63140.62	4162.236	-414.2448	1	4182.799	-5.683621	-2.228823E-008	0.0084421	7
	13	20	50203.12	4196.387	-406.5467	1	4216.034	-5.533556	9.568878E-008	0.0080706	7
	14	22	39890.62	4230.099	-406.0074	1	4249.539	-5.482488	-6.119352E-008	0.0083897	7
	15	23	31640.63	4264.96	-418.5676	1	4285.45	-5.605118	9.735155E-008	0.0080687	7
	16	24	25171.88	4301.032	-439.2057	1	4323.399	-5.830626	1.61054E-007	0.0080304	7
	17	26	20015.62	4336.192	-472.2604	1	4361.834	-6.21566	-1.805169E-008	0.0084311	7
	18	27	15890.62	4378.482	-515.6371	1	4408.74	-6.716569	8.538895E-008	0.0081214	7
	19	29	12609.37	4423.858	-567.5018	1	4460.11	-7.310098	-9.080135E-009	0.0082948	7
	20	30	10078.13	4473.47	-636.9927	1	4518.594	-8.104064	-2.309772E-008	0.0082455	7
	21	31	8015.625	4520.352	-720.1182	1	4577.352	-9.05149	8.333089E-008	0.0081271	7
	22	33	6328.125	4580.051	-831.1069	1	4654.847	-10.28511	1.571073E-008	0.0081801	7
	23	34	5015.625	4639.474	-961.407	1	4738.04	-11.70732	-4.946379E-008	0.0082965	7
	24	35	3984.375	4700.527	-1138.243	1	4836.378	-13.61228	9.721715E-008	0.0080686	7
	25	37	3170.956	4774.152	-1318.322	1	4952.827	-15.43682	4.942314E-008	0.0081044	7
	26	38	2527.573	4851.01	-1557.92	1	5095.039	-17.80462	9.508092E-008	0.0082195	7
	27	39	1976.103	4948.106	-1872.437	1	5290.536	-20.72739	-4.896997E-008	0.0082867	7
	28	41	1577.524	5092.846	-2119.589	1	5516.316	-22.59657	1.602992E-007	0.0080228	7
	29	42	1265.625	5158.316	-2669.578	1	5808.173	-27.36287	9.312988E-008	0.008214	7
	30	44	998.264	5303.283	-3233.119	1	6211.109	-31.36836	-5.179258E-008	0.0083229	7
	31	45	796.875	5452.625	-3896.284	1	6701.652	-35.54848	4.569212E-008	0.0082033	7
	32	47	627.7902	5638.938	-4748.452	1	7371.935	-40.10015	8.737327E-008	0.0081127	7
	33	48	505.5147	5849.633	-5715.583	1	8178.392	-44.33592	-7.791722E-008	0.0083767	7
	34	49	397.9953	6114.336	-7000.239	1	9294.539	-48.86452	3.522553E-009	0.0082788	7
	35	51	315.5048	6426.121	-8550.127	1	10695.78	-53.07214	6.084215E-010	0.0082198	6
	36	52	252.4038	6781.871	-10385.09	1	12403.38	-56.8539	-3.536613E-010	0.00822	6
	37	53	198.6229	7252.63	-12815.9	1	14725.76	-60.49411	3.845475E-010	0.0082189	6
	38	55	158.3615	7812.288	-15660.08	1	17500.57	-63.48693	1.528436E-009	0.0082183	6
	39	56	125.558	8551.87	-19237.83	1	21052.99	-66.03323	1.045554E-009	0.0082181	6
	40	57	100.4464	9438.166	-23426.27	1	25256.07	-68.05608	2.087417E-009	0.0082154	6
	41	59	79.00281	10818.05	-28966.35	1	30920.54	-69.52086	-1.418695E-010	0.008216	6
	42	60	63.3446	12765.07	-35080.9	1	37331.17	-70.0048	-2.040117E-010	0.0082139	6
	43	62	49.86702	14386.45	-43826.27	1	46127.12	-71.82702	3.759082E-010	0.0082128	6
	44	63	39.72458	17295.9	-53023.82	1	55773.41	-71.93413	7.656039E-010	0.0082232	6
	45	64	31.6723	20942.8	-64446.54	1	67763.98	-71.99771	-1.441376E-010	0.0082232	6
	46	66	24.93351	26258.55	-78665.36	1	82932.2	-71.54095	7.619661E-010	0.0082236	6
	47	67	19.86229	32847.82	-94768.16	1	100299.5	-70.88305	1.219458E-010	0.0082206	6
	48	69	15.83615	41312.86	-112937.3	1	120256.3	-69.9073	2.098705E-010	0.0082209	5
	49	70	12.40079	52579.63	-137627.6	1	147329.5	-69.091	5.101927E-010	0.0082274	5
	50	72	9.93114	66493.62	-161984.5	1	175101.1	-67.68216	6.880356E-010	0.0082246	5
	51	73	7.944915	86009.6	-190894.8	1	209376.4	-65.74557	5.393177E-010	0.0082229	5
	52	75	6.317385	106643.5	-222850.7	1	247053.2	-64.4269	2.170732E-010	0.0082117	5
	53	77	5.008013	134222.5	-259168.9	1	291863.3	-62.62055	1.903925E-011	0.0082191	5
	54	80	3.945707	167141	-299380.1	1	342876.9	-60.82579	-1.222457E-010	0.0082163	5
	55	82	3.158693	203086	-340227.7	1	396230.8	-59.16652	1.700741E-010	0.0082194	5
	56	86	2.504006	245121	-386576.4	1	457739.7	-57.62196	-2.391574E-010	0.0082199	5
	57	88	1.998082	289228.1	-434616.8	1	522058.2	-56.35709	1.168002E-010	0.0081765	5
	58	91	1.584686	337599.1	-490792.8	1	595693.4	-55.47728	-5.084618E-011	0.0082248	5
	59	95	1.266892	389334.4	-553340.6	1	676584.9	-54.86951	-1.254646E-011	0.008177	5
	60	99	0.999041	448134	-629539	1	772750.6	-54.55504	1.375721E-010	0.0082626	5
