EXPLAIN
TAG	EISPOT
TITLE	LABEL	Potentiostatic EIS	Test &Identifier
DATE	LABEL	10/24/2019	Date
TIME	LABEL	9:51:09	Time
NOTES	NOTES	1	&Notes...
	
PSTAT	PSTAT	REF600-11020	Potentiostat
VDC	POTEN	0.00000E+000	T	DC &Voltage (V)
FREQINIT	QUANT	1.00000E+006	Initial Fre&q. (Hz)
FREQFINAL	QUANT	1.00000E+000	Final Fre&q. (Hz)
PTSPERDEC	QUANT	1.00000E+001	Points/&decade
VAC	QUANT	2.50000E+001	AC &Voltage (mV rms)
AREA	QUANT	1.00000E-002	&Area (cm^2)
CONDIT	TWOPARAM	T	5.00000E+000	0.00000E+000	Conditionin&g	Time(s)	E(V)
DELAY	TWOPARAM	T	5.00000E+000	0.00000E+000	Init. De&lay	Time(s)	Stab.(mV/s)
SPEED	SELECTOR	1	&Optimize for:
ZGUESS	QUANT	1.00000E+005	E&stimated Z (ohms)
OCVCURVE	TABLE	19
	Pt	T	Vf	Vm	Ach	Over
	#	s	V vs. Ref.	V	V	bits
	0	0.258333	6.54678E-003	6.54678E-003	5.34933E-004	...........
	1	0.516667	6.55227E-003	6.83430E-003	5.37433E-004	...........
	2	0.775	6.57455E-003	6.50744E-003	5.38533E-004	...........
	3	1.03333	6.60705E-003	6.58814E-003	5.39266E-004	...........
	4	1.29167	6.62360E-003	6.62522E-003	5.40033E-004	...........
	5	1.55	6.61774E-003	6.58444E-003	5.37966E-004	...........
	6	1.80833	6.60624E-003	6.58217E-003	5.37966E-004	...........
	7	2.06667	6.59835E-003	6.59569E-003	5.44333E-004	...........
	8	2.325	6.59297E-003	6.57193E-003	5.45233E-004	...........
	9	2.58333	6.59192E-003	6.74748E-003	5.38533E-004	...........
	10	2.84167	6.60846E-003	6.94255E-003	5.31466E-004	...........
	11	3.1	6.65854E-003	6.78450E-003	5.40333E-004	...........
	12	3.35833	6.73162E-003	6.83670E-003	5.43733E-004	...........
	13	3.61667	6.79438E-003	6.90182E-003	5.44733E-004	...........
	14	3.875	6.83342E-003	6.94594E-003	5.39099E-004	...........
	15	4.13333	6.86405E-003	7.01984E-003	5.39299E-004	...........
	16	4.39167	6.90174E-003	7.04458E-003	5.41666E-004	...........
	17	4.65	6.95355E-003	7.37810E-003	5.41499E-004	...........
	18	4.90833	7.02757E-003	7.24572E-003	5.41633E-004	...........
EOC	QUANT	0.0070276	Open Circuit (V)
PSTATMODEL	IQUANT	4	Pstat Model
PSTATSECTION	LABEL	REF600-11020	Pstat Section
PSTATSERIALNO	LABEL	11020	Pstat Serial Number
CTRLMODE	IQUANT	1	Control Mode
IESTAB	IQUANT	0	I/E Stability
CASPEED	IQUANT	1	Control Amp Speed
CONVENTION	IQUANT	1	Current Convention
ICHRANGE	IQUANT	2	Ich Range
ICHRANGEMODE	TOGGLE	F	Ich Auto Range
ICHOFFSETENABLE	TOGGLE	T	Ich Offset Enable
ICHOFFSET	QUANT	0	Ich Offset (V)
ICHFILTER	IQUANT	3	Ich Filter
VCHRANGE	IQUANT	2	Vch Range
VCHRANGEMODE	TOGGLE	F	Vch Auto Range
VCHOFFSETENABLE	TOGGLE	T	Vch Offset Enable
VCHOFFSET	QUANT	0	Vch Offset (V)
VCHFILTER	IQUANT	3	Vch Filter
ACHRANGE	IQUANT	2	Ach Range
ACHOFFSETENABLE	TOGGLE	F	Ach Offset Enable
ACHOFFSET	QUANT	0	Ach Offset (V)
ACHFILTER	IQUANT	3	Ach Filter
IERANGELOWERLIMIT	IQUANT	1	I/E Range Lower Limit
IERANGEMODE	TOGGLE	F	I/E AutoRange
IERANGE	IQUANT	5	I/E Range
POSFEEDENABLE	TOGGLE	F	Positive Feedback IR Comp
POSFEEDRESISTANCE	QUANT	0	Positive Feedback Resistance (ohm)
ACHSELECT	IQUANT	0	Ach Select
CABLEID	IQUANT	14	Cable ID
DCCALDATE	LABEL	8/19/2019	DC Calibration Date
ACCALDATE	LABEL	8/19/2019	AC Calibration Date
THERMOSELECT	IQUANT	1	Thermo Select
FRAMEWORKVERSION	QUANT	6.33	Framework Version
INSTRUMENTVERSION	LABEL	3.50	Instrument Version
ZCURVE	TABLE
	Pt	Time	Freq	Zreal	Zimag	Zsig	Zmod	Zphz	Idc	Vdc	IERange
	#	s	Hz	ohm	ohm	V	ohm	°	A	V	#
	0	1	1000078	2402.973	-1974.223	1	3109.958	-39.40567	2.022603E-006	0.0090499	8
	1	3	794390.6	2796.865	-1991.183	1	3433.258	-35.44835	-2.638508E-006	0.0091922	8
	2	4	630984.4	3172.699	-1944.64	1	3721.242	-31.50535	-3.439703E-006	0.0094592	8
	3	5	501234.4	3533.052	-1823.295	1	3975.785	-27.29681	-1.06051E-006	0.0089355	8
	4	7	398109.4	3846.281	-1682.634	1	4198.23	-23.62795	-1.416513E-006	0.0088694	8
	5	8	316265.6	4115.111	-1539.048	1	4393.496	-20.50576	1.991215E-007	0.0086144	8
	6	10	251203.1	4334.571	-1375.861	1	4547.691	-17.61025	-3.371074E-006	0.0091871	8
	7	11	199546.9	4499.557	-1223.692	1	4662.986	-15.2141	-1.266662E-006	0.0088096	8
	8	12	158578.1	4648.22	-1089.937	1	4774.297	-13.19657	-7.603856E-007	0.0088562	8
	9	14	125953.1	4804.518	-929.6817	1	4893.639	-10.95148	-6.426371E-007	0.0099473	7
	10	15	100078.1	4870.847	-837.545	1	4942.331	-9.75663	5.097179E-008	0.0084453	7
	11	17	79453.13	4950.077	-772.6346	1	5010.013	-8.871451	-6.416892E-008	0.0086038	7
	12	18	63140.62	5020.776	-727.1024	1	5073.152	-8.240213	1.006145E-007	0.0083725	7
	13	19	50203.12	5084.656	-697.8975	1	5132.328	-7.815332	3.138005E-008	0.0084142	7
	14	21	39890.62	5147.354	-686.0594	1	5192.874	-7.59186	-5.817221E-009	0.0085207	7
	15	22	31640.63	5208.466	-690.2974	1	5254.011	-7.549625	-5.13625E-008	0.0086024	7
	16	24	25171.88	5270.238	-711.1993	1	5318.009	-7.685427	-2.683963E-009	0.0085227	7
	17	25	20015.62	5328.697	-729.7005	1	5378.427	-7.797464	-3.149664E-009	0.0085528	7
	18	26	15890.62	5404.013	-803.6705	1	5463.446	-8.458879	1.023029E-008	0.0084467	7
	19	28	12609.37	5482.814	-875.9827	1	5552.351	-9.077361	1.001988E-007	0.0083651	7
	20	29	10078.13	5560.473	-964.763	1	5643.547	-9.84304	-4.969818E-008	0.0085995	7
	21	30	8015.625	5654.935	-1058.289	1	5753.109	-10.59997	5.737733E-008	0.0084124	7
	22	31	6328.125	5751.58	-1221.713	1	5879.902	-11.99215	1.010223E-007	0.0083661	7
	23	33	5015.625	5862.986	-1392.977	1	6026.192	-13.36501	-5.122029E-008	0.0086037	7
	24	34	3984.375	5960.183	-1591.233	1	6168.939	-14.94803	-3.635764E-008	0.0085977	7
	25	35	3170.956	6118.12	-1834.195	1	6387.148	-16.68858	-1.312899E-008	0.008544	7
	26	37	2527.573	6268.064	-2116.88	1	6615.875	-18.6611	-4.040226E-008	0.0085575	7
	27	38	1976.103	6442.166	-2489.486	1	6906.45	-21.12834	7.594621E-009	0.0084493	7
	28	39	1577.524	6682.624	-2912.296	1	7289.645	-23.54764	1.014069E-007	0.0083654	7
	29	41	1265.625	6819.493	-3374.195	1	7608.592	-26.3256	-7.882196E-009	0.0084769	7
	30	42	998.264	7052.024	-4000.442	1	8107.687	-29.56519	-3.65615E-009	0.0085462	7
	31	43	796.875	7293.162	-4725.113	1	8690.046	-32.9385	-3.772725E-009	0.0085177	7
	32	45	627.7902	7581.638	-5656.601	1	9459.301	-36.72633	-2.305812E-009	0.00855	7
	33	46	505.5147	7881.093	-6690.941	1	10338.29	-40.33081	4.329385E-009	0.0082873	6
	34	47	397.9953	8247.233	-8092.95	1	11554.77	-44.45903	1.596429E-010	0.008481	6
	35	49	315.5048	8653.493	-9773.14	1	13053.63	-48.47715	1.137439E-009	0.0084792	6
	36	50	252.4038	9108.156	-11757.28	1	14872.53	-52.23569	1.224695E-009	0.0084755	6
	37	51	198.6229	9683.19	-14387.22	1	17342.32	-56.05784	1.006694E-009	0.0084716	6
	38	53	158.3615	10341.34	-17468.39	1	20299.95	-59.37433	1.373011E-011	0.0084666	6
	39	54	125.558	11180.21	-21351.75	1	24101.75	-62.36253	5.875018E-010	0.0084697	6
	40	56	100.4464	12152.12	-25937.25	1	28642.89	-64.89597	9.209542E-010	0.0084714	6
	41	57	79.00281	13626.5	-31916.36	1	34703.54	-66.88022	6.306239E-010	0.008473	6
	42	58	63.3446	14899.01	-38623.2	1	41397.25	-68.90574	1.105844E-009	0.0084718	6
	43	60	49.86702	17986.25	-47796.48	1	51068.66	-69.37823	8.587814E-010	0.0084702	6
	44	61	39.72458	20662.42	-58343.73	1	61894.48	-70.49841	9.214845E-010	0.0084733	6
	45	62	31.6723	24668.04	-70972.73	1	75137.48	-70.83405	2.009309E-011	0.0084724	6
	46	64	24.93351	30334.93	-86717.09	1	91869.8	-70.71941	-1.113223E-011	0.0084749	6
	47	65	19.86229	37570.48	-104901.1	1	111426.1	-70.29494	8.84508E-010	0.0084792	5
	48	67	15.83615	48421.7	-126029.9	1	135011.8	-68.98283	1.993061E-009	0.0084749	5
	49	68	12.40079	59881	-152647.1	1	163972.2	-68.58073	-1.171236E-010	0.0084813	5
	50	69	9.93114	76131.14	-180135.3	1	195562.4	-67.08947	-3.654664E-010	0.0084794	5
	51	71	7.944915	97023.6	-212463.4	1	233568.6	-65.4557	2.500689E-011	0.0084727	5
	52	73	6.317385	122492.5	-247124	1	275816.4	-63.63366	-2.595751E-010	0.0084799	5
	53	75	5.008013	154634	-286408.6	1	325486.6	-61.63508	-1.970572E-011	0.0084751	5
	54	77	3.945707	194132.3	-329194	1	382172.8	-59.47129	1.35162E-010	0.0084769	5
	55	80	3.158693	236743.7	-371301.6	1	440354.9	-57.47821	1.391596E-010	0.0084847	5
	56	83	2.504006	286295.7	-417850.3	1	506521.5	-55.58249	-8.166571E-011	0.0084651	5
	57	86	1.998082	338066.3	-466659.2	1	576246.1	-54.07895	-2.720025E-010	0.0084467	5
	58	89	1.584686	394391.9	-518412.7	1	651380.6	-52.73727	-1.588336E-010	0.0085148	5
	59	92	1.266892	454752.2	-575430.2	1	733429.9	-51.68132	-1.786411E-010	0.0084503	5
	60	97	0.999041	521132.1	-644662.3	1	828956.1	-51.04861	2.948363E-010	0.0085032	5
