EXPLAIN
TAG	EISPOT
TITLE	LABEL	Potentiostatic EIS	Test &Identifier
DATE	LABEL	10/22/2019	Date
TIME	LABEL	9:51:50	Time
NOTES	NOTES	1	&Notes...
	
PSTAT	PSTAT	REF600-11020	Potentiostat
VDC	POTEN	0.00000E+000	T	DC &Voltage (V)
FREQINIT	QUANT	1.00000E+006	Initial Fre&q. (Hz)
FREQFINAL	QUANT	1.00000E+000	Final Fre&q. (Hz)
PTSPERDEC	QUANT	1.00000E+001	Points/&decade
VAC	QUANT	2.50000E+001	AC &Voltage (mV rms)
AREA	QUANT	1.00000E-002	&Area (cm^2)
CONDIT	TWOPARAM	T	5.00000E+000	0.00000E+000	Conditionin&g	Time(s)	E(V)
DELAY	TWOPARAM	T	5.00000E+000	0.00000E+000	Init. De&lay	Time(s)	Stab.(mV/s)
SPEED	SELECTOR	1	&Optimize for:
ZGUESS	QUANT	1.00000E+005	E&stimated Z (ohms)
OCVCURVE	TABLE	19
	Pt	T	Vf	Vm	Ach	Over
	#	s	V vs. Ref.	V	V	bits
	0	0.258333	3.55065E-003	3.55065E-003	5.78232E-004	...........
	1	0.516667	3.54803E-003	3.41327E-003	5.80266E-004	...........
	2	0.775	3.53235E-003	3.30614E-003	5.84699E-004	...........
	3	1.03333	3.48982E-003	3.22115E-003	5.80165E-004	...........
	4	1.29167	3.41931E-003	3.20619E-003	5.83132E-004	...........
	5	1.55	3.33626E-003	3.08307E-003	5.88799E-004	...........
	6	1.80833	3.25459E-003	2.98648E-003	5.78599E-004	...........
	7	2.06667	3.17367E-003	2.88326E-003	5.81099E-004	...........
	8	2.325	3.08771E-003	2.83059E-003	5.83565E-004	...........
	9	2.58333	2.99955E-003	2.81594E-003	5.83732E-004	...........
	10	2.84167	2.92048E-003	2.78083E-003	5.79399E-004	...........
	11	3.1	2.85893E-003	2.72527E-003	5.82299E-004	...........
	12	3.35833	2.81227E-003	2.68415E-003	5.87632E-004	...........
	13	3.61667	2.77124E-003	2.62891E-003	5.84232E-004	...........
	14	3.875	2.73001E-003	2.64070E-003	5.85365E-004	...........
	15	4.13333	2.69069E-003	2.61970E-003	5.87032E-004	...........
	16	4.39167	2.65870E-003	2.59085E-003	5.84165E-004	...........
	17	4.65	2.63398E-003	2.53432E-003	5.87232E-004	...........
	18	4.90833	2.60970E-003	2.50064E-003	5.88032E-004	...........
EOC	QUANT	0.0026097	Open Circuit (V)
PSTATMODEL	IQUANT	4	Pstat Model
PSTATSECTION	LABEL	REF600-11020	Pstat Section
PSTATSERIALNO	LABEL	11020	Pstat Serial Number
CTRLMODE	IQUANT	1	Control Mode
IESTAB	IQUANT	0	I/E Stability
CASPEED	IQUANT	1	Control Amp Speed
CONVENTION	IQUANT	1	Current Convention
ICHRANGE	IQUANT	2	Ich Range
ICHRANGEMODE	TOGGLE	F	Ich Auto Range
ICHOFFSETENABLE	TOGGLE	T	Ich Offset Enable
ICHOFFSET	QUANT	0	Ich Offset (V)
ICHFILTER	IQUANT	3	Ich Filter
VCHRANGE	IQUANT	2	Vch Range
VCHRANGEMODE	TOGGLE	F	Vch Auto Range
VCHOFFSETENABLE	TOGGLE	T	Vch Offset Enable
VCHOFFSET	QUANT	0	Vch Offset (V)
VCHFILTER	IQUANT	3	Vch Filter
ACHRANGE	IQUANT	2	Ach Range
ACHOFFSETENABLE	TOGGLE	F	Ach Offset Enable
ACHOFFSET	QUANT	0	Ach Offset (V)
ACHFILTER	IQUANT	3	Ach Filter
IERANGELOWERLIMIT	IQUANT	1	I/E Range Lower Limit
IERANGEMODE	TOGGLE	F	I/E AutoRange
IERANGE	IQUANT	4	I/E Range
POSFEEDENABLE	TOGGLE	F	Positive Feedback IR Comp
POSFEEDRESISTANCE	QUANT	0	Positive Feedback Resistance (ohm)
ACHSELECT	IQUANT	0	Ach Select
CABLEID	IQUANT	14	Cable ID
DCCALDATE	LABEL	8/19/2019	DC Calibration Date
ACCALDATE	LABEL	8/19/2019	AC Calibration Date
THERMOSELECT	IQUANT	1	Thermo Select
FRAMEWORKVERSION	QUANT	6.33	Framework Version
INSTRUMENTVERSION	LABEL	3.50	Instrument Version
ZCURVE	TABLE
	Pt	Time	Freq	Zreal	Zimag	Zsig	Zmod	Zphz	Idc	Vdc	IERange
	#	s	Hz	ohm	ohm	V	ohm	°	A	V	#
	0	2	1000078	2007.776	-852.5853	1	2181.299	-23.0081	4.103767E-006	0.0037373	8
	1	3	794390.6	2154.37	-772.6078	1	2288.719	-19.72903	3.328379E-006	0.003414	8
	2	4	630984.4	2258.156	-691.0383	1	2361.526	-17.01509	2.939174E-007	0.003895	8
	3	6	501234.4	2342.844	-620.4119	1	2423.598	-14.83213	-3.124733E-006	0.0048044	8
	4	7	398109.4	2409.31	-552.8827	1	2471.934	-12.92433	4.323892E-006	0.0033908	8
	5	8	316265.6	2468.807	-495.8662	1	2518.113	-11.35689	-2.371108E-006	0.0044846	8
	6	10	251203.1	2512.615	-451.2747	1	2552.819	-10.18197	3.024201E-006	0.0034764	8
	7	11	199546.9	2559.321	-409.034	1	2591.801	-9.080294	2.859055E-006	0.0034863	8
	8	12	158578.1	2597.901	-390.6171	1	2627.104	-8.550865	9.546752E-007	0.0038628	8
	9	14	125953.1	2643.897	-347.2885	1	2666.608	-7.483232	-6.567154E-007	0.0061654	7
	10	15	100078.1	2685.537	-336.7784	1	2706.571	-7.147836	-1.647811E-008	0.0041753	7
	11	17	79453.13	2721.61	-345.6123	1	2743.467	-7.23715	1.228486E-007	0.0038504	7
	12	18	63140.62	2760.308	-358.8431	1	2783.535	-7.406975	1.469671E-009	0.0040376	7
	13	19	50203.12	2802.265	-376.7604	1	2827.479	-7.657414	-5.209851E-008	0.00418	7
	14	21	39890.62	2846.335	-398.0728	1	2874.037	-7.961434	-8.956676E-009	0.0040667	7
	15	22	31640.63	2894.488	-424.1853	1	2925.405	-8.33731	-3.904983E-008	0.0040526	7
	16	23	25171.88	2944.191	-454.974	1	2979.138	-8.78459	3.133317E-008	0.0040004	7
	17	25	20015.62	2997.945	-489.7758	1	3037.689	-9.278472	4.184083E-008	0.0038998	7
	18	26	15890.62	3056.014	-535.4418	1	3102.566	-9.93788	-2.992832E-008	0.0040466	7
	19	27	12609.37	3119.053	-586.7244	1	3173.758	-10.6534	-1.118984E-008	0.0039964	7
	20	29	10078.13	3186.324	-643.0381	1	3250.563	-11.40972	-3.329125E-008	0.0040408	7
	21	30	8015.625	3257.24	-711.8484	1	3334.118	-12.32779	-5.148121E-008	0.0041794	7
	22	32	6328.125	3341.328	-787.9296	1	3432.974	-13.2687	3.08003E-008	0.0039977	7
	23	33	5015.625	3427.532	-876.991	1	3537.949	-14.35216	-5.060459E-008	0.004179	7
	24	34	3984.375	3512.796	-984.313	1	3648.097	-15.65329	-2.903289E-008	0.0040431	7
	25	36	3170.956	3608.18	-1099.664	1	3772.032	-16.94963	2.062005E-009	0.0040311	7
	26	37	2527.573	3700.811	-1240.705	1	3903.249	-18.53385	-1.565139E-008	0.0041576	7
	27	38	1976.103	3803.815	-1429.092	1	4063.411	-20.59118	6.496277E-008	0.0039206	7
	28	40	1577.524	3921.287	-1650.174	1	4254.358	-22.82256	-3.351473E-008	0.0040401	7
	29	41	1265.625	3998.044	-1904.748	1	4428.592	-25.47407	-7.014473E-008	0.0041455	7
	30	43	998.264	4107.515	-2253.629	1	4685.139	-28.75181	-9.64969E-009	0.0040668	7
	31	44	796.875	4222.926	-2665.314	1	4993.696	-32.25821	-9.264554E-009	0.0039974	7
	32	45	627.7902	4356.853	-3212.111	1	5412.931	-36.39968	4.480738E-009	0.0040298	7
	33	47	505.5147	4495.373	-3828.227	1	5904.549	-40.41747	7.784575E-008	0.0039748	7
	34	48	397.9953	4673.7	-4665.071	1	6603.511	-44.94706	5.770611E-009	0.0040438	7
	35	49	315.5048	4881.758	-5679.518	1	7489.225	-49.31971	5.427389E-009	0.0040436	7
	36	51	252.4038	5124.167	-6879.675	1	8578.287	-53.32026	5.704238E-009	0.0040416	7
	37	52	198.6229	5448.398	-8470.104	1	10071.13	-57.24883	5.436604E-009	0.0040416	7
	38	53	158.3615	5833.949	-10323.84	1	11858.19	-60.52944	4.753695E-010	0.0039807	6
	39	55	125.558	6329.502	-12652.99	1	14147.82	-63.42406	5.741567E-010	0.0039835	6
	40	56	100.4464	6943.335	-15395.99	1	16889.24	-65.72542	4.905871E-010	0.0039837	6
	41	58	79.00281	7755.311	-18996.2	1	20518.29	-67.79197	-2.22817E-011	0.0039834	6
	42	59	63.3446	8633.02	-23000.45	1	24567.25	-69.42681	9.655351E-010	0.0039776	6
	43	60	49.86702	10218.57	-28278.38	1	30068.03	-70.13237	8.095566E-010	0.0039813	6
	44	62	39.72458	11877.35	-34477.43	1	36465.94	-70.99136	8.880816E-010	0.003981	6
	45	63	31.6723	14106.98	-41943.03	1	44251.83	-71.41032	1.247112E-009	0.0039825	6
	46	65	24.93351	17090.7	-51263.78	1	54037.64	-71.56226	6.548485E-010	0.0039835	6
	47	66	19.86229	20944.62	-62041.36	1	65481.35	-71.34576	4.708429E-010	0.0039818	6
	48	67	15.83615	25978.09	-74473.4	1	78874.26	-70.77001	1.013569E-011	0.003981	6
	49	69	12.40079	32277.37	-91066.17	1	96617.2	-70.4837	-1.357665E-010	0.0039839	6
	50	70	9.93114	40575.94	-108290.9	1	115643.1	-69.45933	-9.666284E-011	0.0039902	5
	51	72	7.944915	50593.83	-128502.1	1	138103.3	-68.50945	-1.341894E-010	0.0039917	5
	52	73	6.317385	63479.91	-152256.6	1	164960	-67.36742	-1.955987E-010	0.003982	5
	53	75	5.008013	79898.74	-180059.8	1	196990.8	-66.0715	-9.759293E-011	0.0039882	5
	54	78	3.945707	100781.3	-212237	1	234949.8	-64.59918	-1.625153E-011	0.0039859	5
	55	81	3.158693	124650.1	-245958.9	1	275741.6	-63.12445	2.692733E-010	0.003988	5
	56	84	2.504006	154172.6	-284608.2	1	323683.5	-61.55553	-1.381999E-010	0.0039904	5
	57	87	1.998082	187170.7	-325080.6	1	375113.7	-60.06808	3.879906E-010	0.0039457	5
	58	90	1.584686	226102.8	-372054	1	435369.5	-58.71233	-6.136759E-011	0.0039543	5
	59	93	1.266892	267826.3	-419154.6	1	497414.8	-57.42273	2.334975E-010	0.0039454	5
	60	98	0.999041	314337.3	-475656.8	1	570138	-56.54132	2.259903E-012	0.004015	5
