EXPLAIN
TAG	EISPOT
TITLE	LABEL	Potentiostatic IDE	Test &Identifier
DATE	LABEL	9/6/2019	Date
TIME	LABEL	8:25:14	Time
NOTES	NOTES	1	&Notes...
	
PSTAT	PSTAT	REF600-11020	Potentiostat
VDC	POTEN	0.00000E+000	T	DC &Voltage (V)
FREQINIT	QUANT	1.00000E+006	Initial Fre&q. (Hz)
FREQFINAL	QUANT	1.00000E+000	Final Fre&q. (Hz)
PTSPERDEC	QUANT	1.00000E+001	Points/&decade
VAC	QUANT	2.50000E+001	AC &Voltage (mV rms)
AREA	QUANT	1.00000E-002	&Area (cm^2)
CONDIT	TWOPARAM	T	5.00000E+000	0.00000E+000	Conditionin&g	Time(s)	E(V)
DELAY	TWOPARAM	T	5.00000E+000	0.00000E+000	Init. De&lay	Time(s)	Stab.(mV/s)
SPEED	SELECTOR	1	&Optimize for:
ZGUESS	QUANT	1.00000E+007	E&stimated Z (ohms)
OCVCURVE	TABLE	19
	Pt	T	Vf	Vm	Ach	Over
	#	s	V vs. Ref.	V	V	bits
	0	0.258333	8.83467E-003	8.83467E-003	6.38731E-004	...........
	1	0.516667	8.83353E-003	8.77459E-003	6.38465E-004	...........
	2	0.775	8.82689E-003	8.73910E-003	6.41231E-004	...........
	3	1.03333	8.80989E-003	8.72683E-003	6.38965E-004	...........
	4	1.29167	8.78414E-003	8.72621E-003	6.37031E-004	...........
	5	1.55	8.75831E-003	8.73799E-003	6.35431E-004	...........
	6	1.80833	8.74098E-003	8.75395E-003	6.34665E-004	...........
	7	2.06667	8.73571E-003	8.77592E-003	6.33831E-004	...........
	8	2.325	8.74165E-003	8.80284E-003	6.35998E-004	...........
	9	2.58333	8.75630E-003	8.83495E-003	6.35865E-004	...........
	10	2.84167	8.77741E-003	8.86385E-003	6.36898E-004	...........
	11	3.1	8.80318E-003	8.89665E-003	6.42264E-004	...........
	12	3.35833	8.83203E-003	8.93160E-003	6.39198E-004	...........
	13	3.61667	8.86295E-003	8.96695E-003	6.38198E-004	...........
	14	3.875	8.89552E-003	9.00298E-003	6.39131E-004	...........
	15	4.13333	8.92956E-003	9.04189E-003	6.35631E-004	...........
	16	4.39167	8.96486E-003	9.07751E-003	6.33831E-004	...........
	17	4.65	9.00114E-003	9.11511E-003	6.40865E-004	...........
	18	4.90833	9.03799E-003	9.15291E-003	6.35965E-004	...........
EOC	QUANT	0.009038	Open Circuit (V)
PSTATMODEL	IQUANT	4	Pstat Model
PSTATSECTION	LABEL	REF600-11020	Pstat Section
PSTATSERIALNO	LABEL	11020	Pstat Serial Number
CTRLMODE	IQUANT	1	Control Mode
IESTAB	IQUANT	0	I/E Stability
CASPEED	IQUANT	1	Control Amp Speed
CONVENTION	IQUANT	1	Current Convention
ICHRANGE	IQUANT	2	Ich Range
ICHRANGEMODE	TOGGLE	F	Ich Auto Range
ICHOFFSETENABLE	TOGGLE	T	Ich Offset Enable
ICHOFFSET	QUANT	0	Ich Offset (V)
ICHFILTER	IQUANT	3	Ich Filter
VCHRANGE	IQUANT	2	Vch Range
VCHRANGEMODE	TOGGLE	F	Vch Auto Range
VCHOFFSETENABLE	TOGGLE	T	Vch Offset Enable
VCHOFFSET	QUANT	0	Vch Offset (V)
VCHFILTER	IQUANT	3	Vch Filter
ACHRANGE	IQUANT	2	Ach Range
ACHOFFSETENABLE	TOGGLE	F	Ach Offset Enable
ACHOFFSET	QUANT	0	Ach Offset (V)
ACHFILTER	IQUANT	3	Ach Filter
IERANGELOWERLIMIT	IQUANT	1	I/E Range Lower Limit
IERANGEMODE	TOGGLE	F	I/E AutoRange
IERANGE	IQUANT	3	I/E Range
POSFEEDENABLE	TOGGLE	F	Positive Feedback IR Comp
POSFEEDRESISTANCE	QUANT	0	Positive Feedback Resistance (ohm)
ACHSELECT	IQUANT	0	Ach Select
CABLEID	IQUANT	14	Cable ID
DCCALDATE	LABEL	8/19/2019	DC Calibration Date
ACCALDATE	LABEL	8/19/2019	AC Calibration Date
THERMOSELECT	IQUANT	1	Thermo Select
FRAMEWORKVERSION	QUANT	6.33	Framework Version
INSTRUMENTVERSION	LABEL	3.50	Instrument Version
ZCURVE	TABLE
	Pt	Time	Freq	Zreal	Zimag	Zsig	Zmod	Zphz	Idc	Vdc	IERange
	#	s	Hz	ohm	ohm	V	ohm	°	A	V	#
	0	2	1000078	2481.834	-1831.467	1	3084.44	-36.42543	-2.816329E-007	0.0111483	8
	1	3	794390.6	2864.159	-1747.965	1	3355.412	-31.39526	-1.181629E-006	0.0111953	8
	2	4	630984.4	3185.066	-1604.201	1	3566.245	-26.73272	-1.123878E-006	0.0109966	8
	3	6	501234.4	3455.253	-1426.991	1	3738.326	-22.44023	-9.964346E-008	0.0109039	8
	4	7	398109.4	3656.893	-1253.687	1	3865.824	-18.92317	1.313762E-006	0.0104461	8
	5	8	316265.6	3815.456	-1087.659	1	3967.456	-15.91107	-2.819711E-006	0.0112788	8
	6	10	251203.1	3931.466	-947.3777	1	4044.002	-13.54844	4.49207E-007	0.0105753	8
	7	11	199546.9	4030.179	-809.279	1	4110.629	-11.35426	-6.816482E-007	0.0108304	8
	8	12	158578.1	4099.237	-712.3436	1	4160.67	-9.85811	2.322992E-006	0.0102358	8
	9	14	125953.1	4156.005	-605.4686	1	4199.878	-8.288836	-2.512313E-007	0.0111681	7
	10	15	100078.1	4197.533	-549.7349	1	4233.378	-7.461344	-9.112987E-009	0.0106672	7
	11	16	79453.13	4239.43	-519.1448	1	4271.098	-6.981469	-3.198015E-008	0.01069	7
	12	18	63140.62	4279.293	-501.4273	1	4308.571	-6.683173	-2.451976E-008	0.0106515	7
	13	19	50203.12	4317.524	-497.7109	1	4346.117	-6.575855	-3.882326E-008	0.0106814	7
	14	20	39890.62	4357.799	-508.517	1	4387.368	-6.655815	-2.510109E-008	0.0106479	7
	15	22	31640.63	4397.038	-532.7746	1	4429.197	-6.908663	2.809056E-008	0.0105412	7
	16	23	25171.88	4439.319	-570.77	1	4475.861	-7.326412	-2.166E-008	0.0106978	7
	17	24	20015.62	4485.629	-625.2166	1	4528.992	-7.934886	4.998417E-008	0.0105182	7
	18	26	15890.62	4534.101	-697.3362	1	4587.412	-8.743474	-2.621374E-008	0.0106406	7
	19	27	12609.37	4590.453	-787.6835	1	4657.542	-9.73666	7.693625E-008	0.0105095	7
	20	28	10078.13	4646.944	-895.9839	1	4732.534	-10.91336	-2.213662E-008	0.0106494	7
	21	30	8015.625	4716.175	-1036.053	1	4828.634	-12.38997	4.916528E-008	0.0105199	7
	22	31	6328.125	4793.963	-1212.508	1	4944.922	-14.19381	1.84064E-008	0.0105991	7
	23	32	5015.625	4885.625	-1424.27	1	5088.996	-16.2526	-2.325553E-008	0.0106464	7
	24	34	3984.375	4987.568	-1677.121	1	5261.993	-18.58575	-6.053174E-009	0.0106349	7
	25	35	3170.956	5105.976	-1981.011	1	5476.805	-21.2052	1.741407E-008	0.0105934	7
	26	36	2527.573	5243.65	-2345.625	1	5744.374	-24.10025	-1.776572E-008	0.0107002	7
	27	38	1976.103	5420.42	-2822.824	1	6111.406	-27.50941	5.029356E-008	0.0105193	7
	28	39	1577.524	5611.307	-3350.438	1	6535.457	-30.84087	-2.172925E-008	0.0106968	7
	29	40	1265.625	5834.904	-3957.187	1	7050.208	-34.14482	-2.479701E-008	0.0106385	7
	30	42	998.264	6113.551	-4757.071	1	7746.304	-37.88717	-1.632107E-008	0.0106103	7
	31	43	796.875	6429.873	-5664.11	1	8568.862	-41.377	4.442603E-008	0.0105392	7
	32	44	627.7902	6814.166	-6811.426	1	9634.75	-44.98848	1.510022E-008	0.0105664	7
	33	46	505.5147	7225.988	-8072.035	1	10833.87	-48.16548	-4.856487E-009	0.0105966	6
	34	47	397.9953	7751.296	-9741.7	1	12449.23	-51.49136	7.130285E-010	0.0105751	6
	35	48	315.5048	8346.361	-11713.23	1	14382.68	-54.52792	5.639532E-010	0.010575	6
	36	50	252.4038	9014.014	-14006.88	1	16656.69	-57.23703	8.670347E-010	0.0105683	6
	37	51	198.6229	9859.65	-17005.67	1	19657.2	-59.89543	6.158206E-010	0.0105698	6
	38	52	158.3615	10809.66	-20461.47	1	23141.32	-62.15279	5.812094E-010	0.01057	6
	39	54	125.558	11982.91	-24777.33	1	27522.83	-64.19048	5.999819E-010	0.0105704	6
	40	55	100.4464	13335.32	-29810.63	1	32657.38	-65.8994	9.209542E-010	0.0105683	6
	41	56	79.00281	15112.58	-36414.3	1	39425.77	-67.46069	3.571551E-010	0.0105699	6
	42	58	63.3446	17271.85	-43695.13	1	46984.91	-68.43206	4.482622E-010	0.0105668	6
	43	59	49.86702	19839.77	-53562.39	1	57118.7	-69.67513	4.497459E-010	0.0105565	6
	44	60	39.72458	23098.92	-64643.7	1	68646.69	-70.33683	5.247544E-010	0.0105678	6
	45	62	31.6723	27002.1	-78119.18	1	82654.22	-70.93216	5.977685E-010	0.010566	6
	46	63	24.93351	32389.3	-95351.3	1	100702.2	-71.2382	3.18567E-010	0.0105699	6
	47	64	19.86229	38746.11	-115035.4	1	121385.3	-71.38549	4.521457E-010	0.0105659	5
	48	66	15.83615	47069.01	-138611.2	1	146385	-71.24376	-8.229159E-011	0.0105687	5
	49	67	12.40079	57492.51	-169342.6	1	178836	-71.24744	5.391513E-010	0.0105684	5
	50	68	9.93114	70415.98	-202391.9	1	214291.6	-70.81625	4.553724E-010	0.0105758	5
	51	70	7.944915	86498.91	-241631.6	1	256647.4	-70.30373	6.201022E-010	0.0105694	5
	52	72	6.317385	107176.4	-289383.3	1	308592.7	-69.67732	4.41633E-010	0.0105585	5
	53	73	5.008013	133972.9	-346516.6	1	371513.8	-68.86211	3.410194E-010	0.0105754	5
	54	76	3.945707	168339.9	-415570.2	1	448371.4	-67.94804	1.022909E-012	0.0105712	5
	55	78	3.158693	209890	-489588.3	1	532682.4	-66.79484	1.75678E-010	0.0105733	5
	56	81	2.504006	263218.7	-578120.7	1	635222.5	-65.5202	-5.320918E-011	0.0105808	5
	57	84	1.998082	326079.4	-672627.3	1	747499.3	-64.1366	3.049032E-010	0.0105568	5
	58	87	1.584686	407787.9	-784776.5	1	884401	-62.54258	7.321507E-011	0.0105222	5
	59	91	1.266892	499185.1	-902036.4	1	1030949	-61.03995	2.047207E-010	0.0105598	4
	60	95	0.999041	615726.8	-1042820	1	1211030	-59.44053	-1.800694E-010	0.0105619	4
