EXPLAIN
TAG	EISPOT
TITLE	LABEL	Potentiostatic EIS	Test &Identifier
DATE	LABEL	10/14/2019	Date
TIME	LABEL	10:04:21	Time
NOTES	NOTES	1	&Notes...
	
PSTAT	PSTAT	REF600-11020	Potentiostat
VDC	POTEN	0.00000E+000	T	DC &Voltage (V)
FREQINIT	QUANT	1.00000E+006	Initial Fre&q. (Hz)
FREQFINAL	QUANT	1.00000E+000	Final Fre&q. (Hz)
PTSPERDEC	QUANT	1.00000E+001	Points/&decade
VAC	QUANT	2.50000E+001	AC &Voltage (mV rms)
AREA	QUANT	1.00000E-002	&Area (cm^2)
CONDIT	TWOPARAM	T	5.00000E+000	0.00000E+000	Conditionin&g	Time(s)	E(V)
DELAY	TWOPARAM	T	5.00000E+000	0.00000E+000	Init. De&lay	Time(s)	Stab.(mV/s)
SPEED	SELECTOR	1	&Optimize for:
ZGUESS	QUANT	1.00000E+004	E&stimated Z (ohms)
OCVCURVE	TABLE	19
	Pt	T	Vf	Vm	Ach	Over
	#	s	V vs. Ref.	V	V	bits
	0	0.258333	5.53700E-003	5.53700E-003	5.57599E-004	...........
	1	0.516667	5.53608E-003	5.48884E-003	5.52733E-004	...........
	2	0.775	5.53060E-003	5.45229E-003	5.50566E-004	...........
	3	1.03333	5.51608E-003	5.43790E-003	5.47433E-004	...........
	4	1.29167	5.49298E-003	5.42537E-003	5.51366E-004	...........
	5	1.55	5.46760E-003	5.42287E-003	5.57499E-004	...........
	6	1.80833	5.44660E-003	5.42576E-003	5.53766E-004	...........
	7	2.06667	5.43318E-003	5.43089E-003	5.50066E-004	...........
	8	2.325	5.42744E-003	5.44441E-003	5.49033E-004	...........
	9	2.58333	5.42829E-003	5.45946E-003	5.50599E-004	...........
	10	2.84167	5.43456E-003	5.47345E-003	5.50666E-004	...........
	11	3.1	5.44496E-003	5.48885E-003	5.46799E-004	...........
	12	3.35833	5.45798E-003	5.50091E-003	5.46833E-004	...........
	13	3.61667	5.47219E-003	5.51937E-003	5.51366E-004	...........
	14	3.875	5.48704E-003	5.54409E-003	5.57866E-004	...........
	15	4.13333	5.50318E-003	5.56537E-003	5.51033E-004	...........
	16	4.39167	5.52142E-003	5.58464E-003	5.55766E-004	...........
	17	4.65	5.54149E-003	5.60554E-003	5.50833E-004	...........
	18	4.90833	5.56237E-003	5.62721E-003	5.49899E-004	...........
EOC	QUANT	0.0055624	Open Circuit (V)
PSTATMODEL	IQUANT	4	Pstat Model
PSTATSECTION	LABEL	REF600-11020	Pstat Section
PSTATSERIALNO	LABEL	11020	Pstat Serial Number
CTRLMODE	IQUANT	1	Control Mode
IESTAB	IQUANT	0	I/E Stability
CASPEED	IQUANT	1	Control Amp Speed
CONVENTION	IQUANT	1	Current Convention
ICHRANGE	IQUANT	2	Ich Range
ICHRANGEMODE	TOGGLE	F	Ich Auto Range
ICHOFFSETENABLE	TOGGLE	T	Ich Offset Enable
ICHOFFSET	QUANT	0	Ich Offset (V)
ICHFILTER	IQUANT	3	Ich Filter
VCHRANGE	IQUANT	2	Vch Range
VCHRANGEMODE	TOGGLE	F	Vch Auto Range
VCHOFFSETENABLE	TOGGLE	T	Vch Offset Enable
VCHOFFSET	QUANT	0	Vch Offset (V)
VCHFILTER	IQUANT	3	Vch Filter
ACHRANGE	IQUANT	2	Ach Range
ACHOFFSETENABLE	TOGGLE	F	Ach Offset Enable
ACHOFFSET	QUANT	0	Ach Offset (V)
ACHFILTER	IQUANT	3	Ach Filter
IERANGELOWERLIMIT	IQUANT	1	I/E Range Lower Limit
IERANGEMODE	TOGGLE	F	I/E AutoRange
IERANGE	IQUANT	6	I/E Range
POSFEEDENABLE	TOGGLE	F	Positive Feedback IR Comp
POSFEEDRESISTANCE	QUANT	0	Positive Feedback Resistance (ohm)
ACHSELECT	IQUANT	0	Ach Select
CABLEID	IQUANT	14	Cable ID
DCCALDATE	LABEL	8/19/2019	DC Calibration Date
ACCALDATE	LABEL	8/19/2019	AC Calibration Date
THERMOSELECT	IQUANT	1	Thermo Select
FRAMEWORKVERSION	QUANT	6.33	Framework Version
INSTRUMENTVERSION	LABEL	3.50	Instrument Version
ZCURVE	TABLE
	Pt	Time	Freq	Zreal	Zimag	Zsig	Zmod	Zphz	Idc	Vdc	IERange
	#	s	Hz	ohm	ohm	V	ohm	°	A	V	#
	0	2	1000078	2364.198	-1324.184	1	2709.778	-29.25313	4.185125E-006	0.0075926	8
	1	3	794390.6	2608.073	-1225.739	1	2881.75	-25.17253	-5.164382E-006	0.008142	8
	2	5	630984.4	2811.035	-1091.655	1	3015.564	-21.2235	9.173957E-007	0.0072232	8
	3	6	501234.4	2957.449	-961.534	1	3109.832	-18.01052	1.130608E-006	0.0069059	8
	4	7	398109.4	3093.514	-846.8499	1	3207.333	-15.30965	-3.17786E-006	0.0077745	8
	5	9	316265.6	3174.485	-721.5846	1	3255.463	-12.80616	4.054665E-006	0.0063796	8
	6	10	251203.1	3243.077	-621.1699	1	3302.03	-10.84295	-3.034584E-006	0.0077041	8
	7	11	199546.9	3297.79	-533.5754	1	3340.677	-9.190688	-9.490819E-007	0.0073021	8
	8	13	158578.1	3342.757	-473.2428	1	3376.09	-8.057963	-2.758086E-006	0.0076426	8
	9	14	125953.1	3391.743	-382.5959	1	3413.253	-6.435883	-7.94829E-007	0.0090212	7
	10	15	100078.1	3414.766	-354.7345	1	3433.142	-5.930757	-4.414117E-008	0.007153	7
	11	17	79453.13	3442.189	-343.1399	1	3459.25	-5.69281	-3.97765E-008	0.0070761	7
	12	18	63140.62	3470.396	-339.5428	1	3486.967	-5.58802	-1.518565E-008	0.0070986	7
	13	19	50203.12	3498.195	-343.0449	1	3514.975	-5.600712	4.151733E-008	0.0069177	7
	14	21	39890.62	3528.31	-355.9072	1	3546.215	-5.760048	6.326879E-008	0.0069501	7
	15	22	31640.63	3560.947	-376.9154	1	3580.839	-6.042086	-4.397866E-008	0.0071446	7
	16	23	25171.88	3595.303	-405.86	1	3618.138	-6.440635	-1.501533E-008	0.0071903	7
	17	25	20015.62	3637.093	-434.1785	1	3662.916	-6.807477	-2.993407E-009	0.007067	7
	18	26	15890.62	3678.306	-493.4041	1	3711.251	-7.63999	-1.488722E-008	0.0070349	7
	19	27	12609.37	3725.741	-552.5536	1	3766.492	-8.435877	3.692299E-008	0.0070183	7
	20	29	10078.13	3779.058	-621.1027	1	3829.758	-9.333342	-7.153557E-008	0.0071727	7
	21	30	8015.625	3835.996	-705.5291	1	3900.338	-10.42156	-4.286599E-008	0.0071422	7
	22	31	6328.125	3909.65	-804.316	1	3991.527	-11.62503	8.028667E-008	0.0070045	7
	23	33	5015.625	3984.837	-921.0629	1	4089.9	-13.01489	8.18494E-008	0.0070022	7
	24	34	3984.375	4066.214	-1055.604	1	4200.999	-14.55295	6.268901E-008	0.0069448	7
	25	36	3170.956	4160.149	-1218.201	1	4334.842	-16.32141	-5.287362E-008	0.0072071	7
	26	37	2527.573	4258.816	-1407.554	1	4485.39	-18.28891	-1.27494E-008	0.0070944	7
	27	38	1976.103	4374.622	-1656.451	1	4677.729	-20.73917	8.051799E-008	0.0070097	7
	28	40	1577.524	4485.708	-1916.982	1	4878.155	-23.1396	-3.486025E-008	0.0070687	7
	29	41	1265.625	4614.095	-2250.669	1	5133.75	-26.00225	1.31289E-007	0.0068513	7
	30	42	998.264	4759.004	-2673.045	1	5458.323	-29.32212	-3.784971E-008	0.007082	7
	31	44	796.875	4911.765	-3157.298	1	5839.004	-32.73304	4.080009E-008	0.0069163	7
	32	45	627.7902	5083.169	-3797.587	1	6345.099	-36.76305	1.470607E-008	0.0069798	7
	33	46	505.5147	5257.211	-4507.433	1	6924.971	-40.60916	6.246519E-008	0.0069439	7
	34	48	397.9953	5474.891	-5481.98	1	7747.68	-45.03708	4.974677E-009	0.0070638	7
	35	49	315.5048	5720.903	-6658.736	1	8778.81	-49.33223	3.616381E-009	0.0070632	7
	36	50	252.4038	6003.096	-8053.114	1	10044.39	-53.29776	7.495733E-010	0.007	6
	37	52	198.6229	6367.327	-9912.45	1	11781.32	-57.28506	9.574287E-010	0.0069981	6
	38	53	158.3615	6802.425	-12085.71	1	13868.57	-60.62707	1.255873E-009	0.0069979	6
	39	54	125.558	7365.371	-14833.79	1	16561.71	-63.59438	7.875391E-010	0.0070038	6
	40	56	100.4464	8084.284	-18068.96	1	19795.03	-65.89565	1.315019E-009	0.006996	6
	41	57	79.00281	9027.217	-22316.16	1	24072.84	-67.97594	-1.083246E-011	0.0069971	6
	42	59	63.3446	10027.83	-27213.84	1	29002.59	-69.77204	7.245479E-010	0.0069956	6
	43	60	49.86702	12021.02	-33290.81	1	35394.67	-70.14579	2.703646E-011	0.0069922	6
	44	61	39.72458	14145.07	-40781.47	1	43164.93	-70.87087	5.18405E-011	0.0069985	6
	45	63	31.6723	16936.79	-49363.09	1	52187.84	-71.06258	1.028111E-009	0.0069969	6
	46	64	24.93351	20972.71	-60489.98	1	64022.59	-70.87786	-9.836959E-011	0.006993	6
	47	65	19.86229	25961.63	-72944.68	1	77426.95	-70.40893	-2.286435E-010	0.006992	6
	48	67	15.83615	32038.62	-88060.64	1	93707.79	-70.00738	2.356177E-009	0.0069953	6
	49	68	12.40079	41432.56	-105593.8	1	113431.5	-68.5761	7.066089E-010	0.0070007	5
	50	70	9.93114	52486.68	-124566	1	135172.3	-67.15157	5.82281E-010	0.0069912	5
	51	71	7.944915	65265.75	-146036.4	1	159957	-65.91945	-5.600805E-011	0.0069959	5
	52	73	6.317385	81695.52	-170408.2	1	188979.2	-64.38644	1.664847E-010	0.0069875	5
	53	75	5.008013	101399	-198045.4	1	222494.4	-62.88762	-1.752912E-010	0.0069934	5
	54	77	3.945707	124957.1	-229378.6	1	261206.5	-61.42006	2.383808E-010	0.0069945	5
	55	80	3.158693	149885.9	-261882.1	1	301741.6	-60.21572	-1.181239E-010	0.0069766	5
	56	83	2.504006	178744.8	-300097.4	1	349296.6	-59.22102	3.570646E-010	0.0069949	5
	57	86	1.998082	209832.6	-341134.6	1	400502.8	-58.40424	3.161246E-010	0.0070207	5
	58	89	1.584686	244414.4	-389490.3	1	459827.2	-57.89075	2.799176E-010	0.0069679	5
	59	93	1.266892	280511	-446694.9	1	527468.3	-57.87241	1.542003E-010	0.0070336	5
	60	97	0.999041	323474.9	-516212.8	1	609189.3	-57.92746	-5.869819E-011	0.0069491	5
