EXPLAIN
TAG	EISPOT
TITLE	LABEL	Potentiostatic EIS	Test &Identifier
DATE	LABEL	9/20/2019	Date
TIME	LABEL	11:49:02	Time
NOTES	NOTES	1	&Notes...
	
PSTAT	PSTAT	REF600-11020	Potentiostat
VDC	POTEN	0.00000E+000	T	DC &Voltage (V)
FREQINIT	QUANT	1.00000E+006	Initial Fre&q. (Hz)
FREQFINAL	QUANT	1.00000E+000	Final Fre&q. (Hz)
PTSPERDEC	QUANT	1.00000E+001	Points/&decade
VAC	QUANT	2.50000E+001	AC &Voltage (mV rms)
AREA	QUANT	1.00000E-002	&Area (cm^2)
CONDIT	TWOPARAM	T	5.00000E+000	0.00000E+000	Conditionin&g	Time(s)	E(V)
DELAY	TWOPARAM	T	5.00000E+000	0.00000E+000	Init. De&lay	Time(s)	Stab.(mV/s)
SPEED	SELECTOR	1	&Optimize for:
ZGUESS	QUANT	1.00000E+004	E&stimated Z (ohms)
OCVCURVE	TABLE	19
	Pt	T	Vf	Vm	Ach	Over
	#	s	V vs. Ref.	V	V	bits
	0	0.258333	-3.75367E-002	-3.75367E-002	5.62999E-004	...........
	1	0.516667	-3.75481E-002	-3.81333E-002	5.65799E-004	...........
	2	0.775	-3.76140E-002	-3.84890E-002	5.69366E-004	...........
	3	1.03333	-3.77888E-002	-3.89057E-002	5.68099E-004	...........
	4	1.29167	-3.80784E-002	-3.91178E-002	5.71332E-004	...........
	5	1.55	-3.84172E-002	-3.87892E-002	5.67732E-004	...........
	6	1.80833	-3.86104E-002	-3.41315E-002	5.68766E-004	...........
	7	2.06667	-3.82692E-002	-3.26519E-002	5.72232E-004	...........
	8	2.325	-3.72994E-002	-4.19513E-002	5.70332E-004	...........
	9	2.58333	-3.64536E-002	-3.57777E-002	5.63899E-004	...........
	10	2.84167	-3.65977E-002	-4.58031E-002	5.68999E-004	...........
	11	3.1	-3.76243E-002	-3.14402E-002	5.66966E-004	...........
	12	3.35833	-3.84614E-002	-3.55465E-002	5.73166E-004	...........
	13	3.61667	-3.82291E-002	-3.97651E-002	5.69866E-004	...........
	14	3.875	-3.74876E-002	-4.06367E-002	5.68732E-004	...........
	15	4.13333	-3.77017E-002	-5.27168E-002	5.68266E-004	...........
	16	4.39167	-3.96172E-002	-4.28480E-002	5.70199E-004	...........
	17	4.65	-4.22747E-002	-3.56106E-002	5.74532E-004	...........
	18	4.90833	-4.33072E-002	-2.54449E-002	5.70732E-004	...........
EOC	QUANT	-0.0433072	Open Circuit (V)
PSTATMODEL	IQUANT	4	Pstat Model
PSTATSECTION	LABEL	REF600-11020	Pstat Section
PSTATSERIALNO	LABEL	11020	Pstat Serial Number
CTRLMODE	IQUANT	1	Control Mode
IESTAB	IQUANT	0	I/E Stability
CASPEED	IQUANT	1	Control Amp Speed
CONVENTION	IQUANT	1	Current Convention
ICHRANGE	IQUANT	2	Ich Range
ICHRANGEMODE	TOGGLE	F	Ich Auto Range
ICHOFFSETENABLE	TOGGLE	T	Ich Offset Enable
ICHOFFSET	QUANT	0	Ich Offset (V)
ICHFILTER	IQUANT	3	Ich Filter
VCHRANGE	IQUANT	2	Vch Range
VCHRANGEMODE	TOGGLE	F	Vch Auto Range
VCHOFFSETENABLE	TOGGLE	T	Vch Offset Enable
VCHOFFSET	QUANT	0	Vch Offset (V)
VCHFILTER	IQUANT	3	Vch Filter
ACHRANGE	IQUANT	2	Ach Range
ACHOFFSETENABLE	TOGGLE	F	Ach Offset Enable
ACHOFFSET	QUANT	0	Ach Offset (V)
ACHFILTER	IQUANT	3	Ach Filter
IERANGELOWERLIMIT	IQUANT	1	I/E Range Lower Limit
IERANGEMODE	TOGGLE	F	I/E AutoRange
IERANGE	IQUANT	6	I/E Range
POSFEEDENABLE	TOGGLE	F	Positive Feedback IR Comp
POSFEEDRESISTANCE	QUANT	0	Positive Feedback Resistance (ohm)
ACHSELECT	IQUANT	0	Ach Select
CABLEID	IQUANT	14	Cable ID
DCCALDATE	LABEL	8/19/2019	DC Calibration Date
ACCALDATE	LABEL	8/19/2019	AC Calibration Date
THERMOSELECT	IQUANT	1	Thermo Select
FRAMEWORKVERSION	QUANT	6.33	Framework Version
INSTRUMENTVERSION	LABEL	3.50	Instrument Version
ZCURVE	TABLE
	Pt	Time	Freq	Zreal	Zimag	Zsig	Zmod	Zphz	Idc	Vdc	IERange
	#	s	Hz	ohm	ohm	V	ohm	°	A	V	#
	0	2	1000078	824.1053	-8566.025	1	8605.576	-84.5047	5.608187E-006	-0.0423039	8
	1	4	794390.6	918.0533	-10585.72	1	10625.45	-85.04339	5.088191E-006	-0.0421128	8
	2	6	630984.4	1079.482	-13053.44	1	13098	-85.27256	2.568264E-006	-0.0419473	8
	3	7	501234.4	1263.376	-16455.5	1	16503.93	-85.60971	2.201631E-006	-0.0421025	8
	4	9	398109.4	1410.947	-20125.52	1	20174.92	-85.98971	3.612616E-006	-0.0423113	8
	5	11	316265.6	1319.192	-25449.3	1	25483.47	-87.03267	-2.324672E-006	-0.0411336	8
	6	12	251203.1	2316.117	-31405.63	1	31490.92	-85.78216	-2.231945E-006	-0.0411727	8
	7	14	199546.9	2973.454	-40210.19	1	40319.98	-85.77081	-2.779438E-006	-0.0412207	8
	8	16	158578.1	3187.423	-48164.81	1	48270.16	-86.21384	-1.199187E-006	-0.0413557	8
	9	17	125953.1	5696.097	-62227.58	1	62487.74	-84.76992	7.750749E-007	-0.043334	7
	10	19	100078.1	5613.427	-76922.48	1	77127.02	-85.82623	-4.411477E-008	-0.0416544	7
	11	20	79453.13	6689.476	-96104.2	1	96336.7	-86.01826	1.617128E-007	-0.0419146	7
	12	22	63140.62	8078.324	-119868.2	1	120140.1	-86.14448	-6.568091E-008	-0.0416471	7
	13	24	50203.12	10567.18	-149561.2	1	149934	-85.9585	7.357262E-008	-0.0418053	7
	14	25	39890.62	8911.958	-185023.3	1	185237.8	-87.24239	7.467539E-008	-0.0418075	7
	15	27	31640.63	16662.66	-233124.3	1	233719	-85.91171	-1.315692E-008	-0.0417482	7
	16	28	25171.88	19647.69	-290875.5	1	291538.3	-86.13573	-1.627933E-008	-0.0416685	7
	17	30	20015.62	20746.11	-362883.1	1	363475.6	-86.72795	1.627799E-007	-0.0419366	7
	18	32	15890.62	33973.09	-484653.2	1	485842.4	-85.99026	-2.621127E-008	-0.0417359	7
	19	33	12609.37	44676.35	-566566.7	1	568325.4	-85.49129	1.616135E-008	-0.0418254	6
	20	35	10078.13	50088.97	-705028.3	1	706805.4	-85.93623	-6.092939E-009	-0.04185	6
	21	36	8015.625	74293.23	-876553.4	1	879696.2	-85.15541	-8.913203E-009	-0.0416159	6
	22	38	6328.125	93170.38	-1105982	1	1109899	-85.18465	6.398675E-009	-0.0417158	6
	23	40	5015.625	100886.1	-1378767	1	1382453	-85.81506	1.652629E-008	-0.0418229	6
	24	42	3984.375	153509.8	-1746924	1	1753655	-84.97807	4.924019E-009	-0.0419442	6
	25	43	3170.956	235836.1	-2170574	1	2183349	-83.79906	6.276105E-009	-0.0417128	6
	26	45	2527.573	312004.6	-2681236	1	2699328	-83.36257	9.041769E-009	-0.0419786	6
	27	47	1976.103	374514.8	-3444227	1	3464529	-83.79421	5.832141E-009	-0.0416771	6
	28	48	1577.524	422930.2	-4363867	1	4384313	-84.46439	2.649957E-008	-0.0421006	6
	29	50	1265.625	657960.8	-4969802	1	5013167	-82.45837	6.067076E-010	-0.0419217	5
	30	52	998.264	1218061	-6564712	1	6676760	-79.4885	-1.233273E-009	-0.0415921	5
	31	53	796.875	1338405	-7993211	1	8104490	-80.49442	-2.046034E-009	-0.0416034	5
	32	55	627.7902	2211065	-1.000512E+007	1	1.024653E+007	-77.53831	-6.915059E-010	-0.0415033	5
	33	56	505.5147	3344570	-1.166864E+007	1	1.21385E+007	-74.00616	6.866966E-010	-0.0416958	5
	34	58	397.9953	4980665	-1.445733E+007	1	1.529122E+007	-70.99076	-1.066644E-010	-0.0417344	5
	35	59	315.5048	6721542	-1.701404E+007	1	1.829362E+007	-68.44308	-4.740246E-010	-0.0417348	5
	36	61	252.4038	1.09811E+007	-1.782269E+007	1	2.093402E+007	-58.36152	5.617743E-010	-0.0417385	5
	37	62	198.6229	1.377736E+007	-2.159597E+007	1	2.561643E+007	-57.46375	2.58548E-010	-0.04174	5
	38	64	158.3615	1.366415E+007	-2.051547E+007	1	2.464941E+007	-56.33475	7.564389E-011	-0.0417435	5
	39	65	125.558	2.99082E+007	-3.660734E+007	1	4.727153E+007	-50.75117	9.566448E-011	-0.0417467	4
	40	67	100.4464	2.4779E+007	-2.913994E+007	1	3.825095E+007	-49.62399	1.103662E-010	-0.0417382	4
	41	69	79.00281	8952014	-2.346838E+007	1	2.511779E+007	-69.12065	2.830992E-010	-0.0417387	4
	42	70	63.3446	-7388658	2410132	1	7771808	161.934	4.136024E-010	-0.0417405	4
	43	72	49.86702	2.27744E+007	-1.177378E+007	1	2.563777E+007	-27.3378	-1.619661E-011	-0.0417435	5
	44	74	39.72458	5693902	-6.047019E+007	1	6.073767E+007	-84.62086	-3.39489E-012	-0.0417418	4
	45	75	31.6723	5.236853E+007	-1.163362E+008	1	1.275797E+008	-65.76521	1.39519E-010	-0.0417388	5
	46	77	24.93351	6.178577E+007	-2.14817E+007	1	6.541364E+007	-19.17156	5.402922E-011	-0.0417404	4
	47	79	19.86229	3.307333E+007	-2.593985E+007	1	4.203238E+007	-38.10756	2.603528E-010	-0.0417341	5
	48	81	15.83615	6836849	-1.095893E+007	1	1.291669E+007	-58.04158	1.14729E-009	-0.0417435	4
	49	82	12.40079	-1.432329E+007	5.017061E+007	1	5.217515E+007	105.9336	5.537437E-010	-0.0417314	4
	50	84	9.93114	1.211428E+008	-6.283396E+007	1	1.364686E+008	-27.41472	-1.433052E-010	-0.041744	4
	51	86	7.944915	2.624211E+007	-1.039695E+007	1	2.822667E+007	-21.61314	3.38438E-010	-0.0417387	4
	52	88	6.317385	5.605632E+007	-4657431	1	5.624946E+007	-4.749503	1.169654E-010	-0.0417244	4
	53	91	5.008013	6.48333E+007	-1.032473E+007	1	6.565026E+007	-9.048392	8.230569E-012	-0.0417447	4
	54	94	3.945707	5.94652E+007	7675130	1	5.995846E+007	7.354465	1.410178E-010	-0.0417394	5
	55	97	3.158693	5.941914E+007	-2929148	1	5.94913E+007	-2.822189	1.169464E-010	-0.0417412	5
	56	101	2.504006	1.301255E+008	-4971654	1	1.302204E+008	-2.188013	5.193682E-011	-0.0417415	3
	57	105	1.998082	1.321857E+008	-6486369	1	1.323447E+008	-2.809258	5.454965E-011	-0.0417889	3
	58	110	1.584686	1.419675E+008	-8453285	1	1.42219E+008	-3.407584	6.820895E-011	-0.0417659	3
	59	115	1.266892	3.090673E+008	2.724173E+007	1	3.102655E+008	5.037133	7.854529E-012	-0.0417903	2
	60	122	0.999041	2.240607E+008	-1.802446E+007	1	2.247845E+008	-4.599228	7.925107E-012	-0.0417046	2
