EXPLAIN
TAG	EISPOT
TITLE	LABEL	Potentiostatic EIS	Test &Identifier
DATE	LABEL	9/26/2019	Date
TIME	LABEL	11:39:45	Time
NOTES	NOTES	2	&Notes...
	
	
PSTAT	PSTAT	REF600-11020	Potentiostat
VDC	POTEN	0.00000E+000	T	DC &Voltage (V)
FREQINIT	QUANT	1.00000E+006	Initial Fre&q. (Hz)
FREQFINAL	QUANT	1.00000E+000	Final Fre&q. (Hz)
PTSPERDEC	QUANT	1.00000E+001	Points/&decade
VAC	QUANT	2.50000E+001	AC &Voltage (mV rms)
AREA	QUANT	1.00000E-002	&Area (cm^2)
CONDIT	TWOPARAM	T	5.00000E+000	0.00000E+000	Conditionin&g	Time(s)	E(V)
DELAY	TWOPARAM	T	5.00000E+000	0.00000E+000	Init. De&lay	Time(s)	Stab.(mV/s)
SPEED	SELECTOR	1	&Optimize for:
ZGUESS	QUANT	1.00000E+004	E&stimated Z (ohms)
OCVCURVE	TABLE	19
	Pt	T	Vf	Vm	Ach	Over
	#	s	V vs. Ref.	V	V	bits
	0	0.258333	6.83433E-002	6.83433E-002	5.81165E-004	...........
	1	0.516667	6.83756E-002	7.00343E-002	5.76732E-004	...........
	2	0.775	6.85742E-002	7.16480E-002	5.77532E-004	...........
	3	1.03333	6.91387E-002	7.33071E-002	5.79166E-004	...........
	4	1.29167	7.01577E-002	7.48153E-002	5.74599E-004	...........
	5	1.55	7.15264E-002	7.62222E-002	5.80899E-004	...........
	6	1.80833	7.30438E-002	7.71371E-002	5.74832E-004	...........
	7	2.06667	7.45208E-002	7.79462E-002	5.74599E-004	...........
	8	2.325	7.58290E-002	7.87402E-002	5.77832E-004	...........
	9	2.58333	7.69317E-002	7.97204E-002	5.71966E-004	...........
	10	2.84167	7.78827E-002	8.06167E-002	5.73266E-004	...........
	11	3.1	7.87676E-002	8.13980E-002	5.80199E-004	...........
	12	3.35833	7.96347E-002	8.21429E-002	5.75432E-004	...........
	13	3.61667	8.04851E-002	8.30012E-002	5.76732E-004	...........
	14	3.875	8.13146E-002	8.39672E-002	5.80165E-004	...........
	15	4.13333	8.21200E-002	8.36245E-002	5.80465E-004	...........
	16	4.39167	8.28563E-002	8.47737E-002	5.77932E-004	...........
	17	4.65	8.34951E-002	8.58140E-002	5.78032E-004	...........
	18	4.90833	8.40931E-002	8.52604E-002	5.80165E-004	...........
EOC	QUANT	0.0840931	Open Circuit (V)
PSTATMODEL	IQUANT	4	Pstat Model
PSTATSECTION	LABEL	REF600-11020	Pstat Section
PSTATSERIALNO	LABEL	11020	Pstat Serial Number
CTRLMODE	IQUANT	1	Control Mode
IESTAB	IQUANT	0	I/E Stability
CASPEED	IQUANT	1	Control Amp Speed
CONVENTION	IQUANT	1	Current Convention
ICHRANGE	IQUANT	2	Ich Range
ICHRANGEMODE	TOGGLE	F	Ich Auto Range
ICHOFFSETENABLE	TOGGLE	T	Ich Offset Enable
ICHOFFSET	QUANT	0	Ich Offset (V)
ICHFILTER	IQUANT	3	Ich Filter
VCHRANGE	IQUANT	2	Vch Range
VCHRANGEMODE	TOGGLE	F	Vch Auto Range
VCHOFFSETENABLE	TOGGLE	T	Vch Offset Enable
VCHOFFSET	QUANT	0	Vch Offset (V)
VCHFILTER	IQUANT	3	Vch Filter
ACHRANGE	IQUANT	2	Ach Range
ACHOFFSETENABLE	TOGGLE	F	Ach Offset Enable
ACHOFFSET	QUANT	0	Ach Offset (V)
ACHFILTER	IQUANT	3	Ach Filter
IERANGELOWERLIMIT	IQUANT	1	I/E Range Lower Limit
IERANGEMODE	TOGGLE	F	I/E AutoRange
IERANGE	IQUANT	7	I/E Range
POSFEEDENABLE	TOGGLE	F	Positive Feedback IR Comp
POSFEEDRESISTANCE	QUANT	0	Positive Feedback Resistance (ohm)
ACHSELECT	IQUANT	0	Ach Select
CABLEID	IQUANT	14	Cable ID
DCCALDATE	LABEL	8/19/2019	DC Calibration Date
ACCALDATE	LABEL	8/19/2019	AC Calibration Date
THERMOSELECT	IQUANT	1	Thermo Select
FRAMEWORKVERSION	QUANT	6.33	Framework Version
INSTRUMENTVERSION	LABEL	3.50	Instrument Version
ZCURVE	TABLE
	Pt	Time	Freq	Zreal	Zimag	Zsig	Zmod	Zphz	Idc	Vdc	IERange
	#	s	Hz	ohm	ohm	V	ohm	°	A	V	#
	0	1	1000078	863.2213	-8847.314	1	8889.326	-84.42736	2.365712E-006	0.0854837	8
	1	3	794390.6	854.171	-10840.94	1	10874.54	-85.4949	2.242876E-006	0.0853112	8
	2	5	630984.4	1316.36	-13528.69	1	13592.58	-84.44254	6.713109E-007	0.0860183	8
	3	6	501234.4	1128.329	-16131.39	1	16170.8	-85.99889	-3.090906E-007	0.0856379	8
	4	8	398109.4	1573.884	-20888.53	1	20947.74	-85.69109	3.10502E-006	0.0849475	8
	5	10	316265.6	2313.76	-26486.66	1	26587.53	-85.00756	1.140341E-006	0.0852224	8
	6	12	251203.1	1772.498	-32663.59	1	32711.64	-86.89388	1.174396E-006	0.0853199	8
	7	13	199546.9	3154.61	-40879.25	1	41000.79	-85.58729	3.769092E-006	0.0848534	8
	8	15	158578.1	2614.221	-52174.98	1	52240.44	-87.1316	-2.267886E-006	0.0860221	8
	9	17	125953.1	5528.16	-64086.83	1	64324.82	-85.06985	-5.285821E-007	0.0877439	7
	10	18	100078.1	6908.759	-79407.55	1	79707.53	-85.02757	-4.439566E-008	0.0856304	7
	11	20	79453.13	9604.74	-99087.2	1	99551.6	-84.46349	-6.150847E-008	0.0856309	7
	12	22	63140.62	12820.96	-124141.5	1	124801.8	-84.10357	1.134006E-007	0.0854439	7
	13	24	50203.12	16210.62	-153193.4	1	154048.7	-83.95956	-9.893115E-008	0.0856639	7
	14	26	39890.62	19012.74	-191679.8	1	192620.4	-84.33536	-9.913921E-008	0.0856643	7
	15	27	31640.63	31679.35	-238820.3	1	240912.3	-82.44386	-2.992612E-008	0.0854788	7
	16	29	25171.88	41661.59	-296602.8	1	299514.5	-82.00439	-9.994277E-009	0.0854525	7
	17	31	20015.62	58555.54	-368017.4	1	372646.7	-80.9594	-3.064892E-008	0.0854777	7
	18	32	15890.62	87657.48	-529200.6	1	536411.4	-80.59485	1.226806E-009	0.0855672	7
	19	34	12609.37	133464.3	-560339.4	1	576014.8	-76.60265	3.748854E-009	0.085196	6
	20	36	10078.13	183145.5	-685477.3	1	709521.9	-75.04115	1.613316E-008	0.085379	6
	21	37	8015.625	246051.9	-828269.1	1	864043.5	-73.45502	4.502855E-009	0.0855352	6
	22	39	6328.125	368285.8	-1000571	1	1066197	-69.79256	-6.390944E-009	0.0853557	6
	23	41	5015.625	513128.4	-1160546	1	1268924	-66.14767	-1.6328E-008	0.0855732	6
	24	42	3984.375	742423.2	-1384404	1	1570913	-61.79639	-1.013413E-008	0.0857349	6
	25	44	3170.956	963220	-1539804	1	1816257	-57.97208	-1.166659E-008	0.0855364	6
	26	46	2527.573	1298614	-1695390	1	2135590	-52.54905	8.064606E-009	0.0852317	6
	27	47	1976.103	1567604	-1900239	1	2463390	-50.47905	4.953624E-009	0.0854941	6
	28	49	1577.524	1967062	-1865401	1	2710914	-43.48051	4.868746E-009	0.0854937	6
	29	51	1265.625	2523247	-1870922	1	3141198	-36.55598	-2.509476E-009	0.0856254	5
	30	53	998.264	2859036	-1808774	1	3383157	-32.31957	-1.957976E-009	0.0856796	5
	31	54	796.875	3154950	-1473202	1	3481958	-25.0302	2.185722E-009	0.0850527	5
	32	56	627.7902	3411489	-1406385	1	3690010	-22.40389	-1.094992E-009	0.0854133	5
	33	57	505.5147	3585805	-1180263	1	3775052	-18.21888	1.227093E-009	0.0850041	5
	34	59	397.9953	3767440	-937380.9	1	3882304	-13.97212	-1.482681E-009	0.085466	5
	35	60	315.5048	3892449	-918098.4	1	3999258	-13.27159	-4.680364E-011	0.0854676	5
	36	62	252.4038	3787787	-771905.4	1	3865639	-11.51847	-1.025718E-009	0.0854627	5
	37	63	198.6229	4013577	-562312.8	1	4052776	-7.975379	-9.853105E-010	0.0854673	5
	38	64	158.3615	4169613	-782609.9	1	4242423	-10.63037	-9.891076E-010	0.0854657	5
	39	66	125.558	4381016	-571210.9	1	4418097	-7.428504	-1.269195E-009	0.0854623	4
	40	67	100.4464	4081259	-446066.4	1	4105563	-6.237458	-8.292744E-010	0.0854605	4
	41	69	79.00281	4669604	-1140553	1	4806877	-13.72579	-6.5985E-010	0.0854645	5
	42	71	63.3446	2070958	-5695280	1	6060122	-70.01736	-4.148697E-010	0.0854576	4
	43	73	49.86702	3806560	-470115.8	1	3835481	-7.040463	-1.036121E-009	0.0854628	5
	44	74	39.72458	4107456	-697468.4	1	4166252	-9.63721	-5.6091E-010	0.0854707	4
	45	76	31.6723	3954922	37188.67	1	3955097	0.5387442	-5.758027E-010	0.0854688	4
	46	77	24.93351	4400440	-443546.6	1	4422737	-5.755743	-7.623345E-010	0.0854676	4
	47	79	19.86229	4592264	-339266.9	1	4604779	-4.225218	-9.735021E-010	0.0854656	4
	48	80	15.83615	4047971	149786.1	1	4050742	2.119135	-5.536968E-010	0.0854621	4
	49	82	12.40079	4160943	-592173.4	1	4202870	-8.099777	-5.871748E-010	0.0854617	4
	50	83	9.93114	4372085	-74978.2	1	4372728	-0.982486	-5.265799E-010	0.0854609	4
	51	85	7.944915	4178962	-284046.1	1	4188604	-3.888442	-1.202668E-009	0.0854656	4
	52	86	6.317385	4602289	-512079.8	1	4630690	-6.348976	-7.742742E-010	0.085464	4
	53	89	5.008013	4633168	-637386.4	1	4676804	-7.833031	-7.290083E-010	0.0854639	4
	54	91	3.945707	4654454	-708805.3	1	4708115	-8.658784	-8.577967E-010	0.0854715	4
	55	94	3.158693	4841720	-687505.4	1	4890288	-8.081749	-8.066005E-010	0.0854675	4
	56	98	2.504006	4941226	-767041	1	5000407	-8.823766	-7.358263E-010	0.0854637	4
	57	101	1.998082	5045916	-842079.1	1	5115698	-9.474399	-7.826852E-010	0.0855127	4
	58	106	1.584686	5170330	-918113.4	1	5251214	-10.06925	-7.32508E-010	0.0854577	4
	59	110	1.266892	5304603	-989479	1	5396099	-10.56608	-7.453581E-010	0.0855064	4
	60	115	0.999041	5453967	-1081053	1	5560075	-11.2115	-8.046842E-010	0.0854232	4
