EXPLAIN
TAG	EISPOT
TITLE	LABEL	Potentiostatic EIS	Test &Identifier
DATE	LABEL	11/9/2019	Date
TIME	LABEL	9:35:56	Time
NOTES	NOTES	2	&Notes...
	
	
PSTAT	PSTAT	REF600-11020	Potentiostat
VDC	POTEN	0.00000E+000	T	DC &Voltage (V)
FREQINIT	QUANT	1.00000E+006	Initial Fre&q. (Hz)
FREQFINAL	QUANT	1.00000E+000	Final Fre&q. (Hz)
PTSPERDEC	QUANT	1.00000E+001	Points/&decade
VAC	QUANT	2.50000E+001	AC &Voltage (mV rms)
AREA	QUANT	1.00000E-002	&Area (cm^2)
CONDIT	TWOPARAM	T	5.00000E+000	0.00000E+000	Conditionin&g	Time(s)	E(V)
DELAY	TWOPARAM	T	5.00000E+000	0.00000E+000	Init. De&lay	Time(s)	Stab.(mV/s)
SPEED	SELECTOR	0	&Optimize for:
ZGUESS	QUANT	1.00000E+005	E&stimated Z (ohms)
OCVCURVE	TABLE	19
	Pt	T	Vf	Vm	Ach	Over
	#	s	V vs. Ref.	V	V	bits
	0	0.258333	4.42590E-003	4.42590E-003	5.54233E-004	...........
	1	0.516667	4.42086E-003	4.16172E-003	5.52932E-004	...........
	2	0.775	4.39137E-003	3.98994E-003	5.57432E-004	...........
	3	1.03333	4.31192E-003	3.77148E-003	5.55833E-004	...........
	4	1.29167	4.17650E-003	3.64237E-003	5.53166E-004	...........
	5	1.55	4.00489E-003	3.44023E-003	5.54499E-004	...........
	6	1.80833	3.82184E-003	3.27161E-003	5.58199E-004	...........
	7	2.06667	3.64116E-003	3.15709E-003	5.57632E-004	...........
	8	2.325	3.46924E-003	3.01946E-003	5.57299E-004	...........
	9	2.58333	3.31132E-003	2.92017E-003	5.54633E-004	...........
	10	2.84167	3.16873E-003	2.74892E-003	5.53566E-004	...........
	11	3.1	3.03642E-003	2.65533E-003	5.53433E-004	...........
	12	3.35833	2.90731E-003	2.48253E-003	5.55033E-004	...........
	13	3.61667	2.77820E-003	2.43682E-003	5.50466E-004	...........
	14	3.875	2.65177E-003	2.29049E-003	5.52099E-004	...........
	15	4.13333	2.53432E-003	2.30844E-003	5.51633E-004	...........
	16	4.39167	2.43368E-003	2.25875E-003	5.55066E-004	...........
	17	4.65	2.35738E-003	2.27588E-003	5.59566E-004	...........
	18	4.90833	2.30880E-003	2.30200E-003	5.59132E-004	...........
EOC	QUANT	0.0023088	Open Circuit (V)
PSTATMODEL	IQUANT	4	Pstat Model
PSTATSECTION	LABEL	REF600-11020	Pstat Section
PSTATSERIALNO	LABEL	11020	Pstat Serial Number
CTRLMODE	IQUANT	1	Control Mode
IESTAB	IQUANT	0	I/E Stability
CASPEED	IQUANT	1	Control Amp Speed
CONVENTION	IQUANT	1	Current Convention
ICHRANGE	IQUANT	2	Ich Range
ICHRANGEMODE	TOGGLE	F	Ich Auto Range
ICHOFFSETENABLE	TOGGLE	T	Ich Offset Enable
ICHOFFSET	QUANT	0	Ich Offset (V)
ICHFILTER	IQUANT	3	Ich Filter
VCHRANGE	IQUANT	2	Vch Range
VCHRANGEMODE	TOGGLE	F	Vch Auto Range
VCHOFFSETENABLE	TOGGLE	T	Vch Offset Enable
VCHOFFSET	QUANT	0	Vch Offset (V)
VCHFILTER	IQUANT	3	Vch Filter
ACHRANGE	IQUANT	2	Ach Range
ACHOFFSETENABLE	TOGGLE	F	Ach Offset Enable
ACHOFFSET	QUANT	0	Ach Offset (V)
ACHFILTER	IQUANT	3	Ach Filter
IERANGELOWERLIMIT	IQUANT	1	I/E Range Lower Limit
IERANGEMODE	TOGGLE	F	I/E AutoRange
IERANGE	IQUANT	4	I/E Range
POSFEEDENABLE	TOGGLE	F	Positive Feedback IR Comp
POSFEEDRESISTANCE	QUANT	0	Positive Feedback Resistance (ohm)
ACHSELECT	IQUANT	0	Ach Select
CABLEID	IQUANT	14	Cable ID
DCCALDATE	LABEL	8/19/2019	DC Calibration Date
ACCALDATE	LABEL	8/19/2019	AC Calibration Date
THERMOSELECT	IQUANT	1	Thermo Select
FRAMEWORKVERSION	QUANT	6.33	Framework Version
INSTRUMENTVERSION	LABEL	3.50	Instrument Version
ZCURVE	TABLE
	Pt	Time	Freq	Zreal	Zimag	Zsig	Zmod	Zphz	Idc	Vdc	IERange
	#	s	Hz	ohm	ohm	V	ohm	°	A	V	#
	0	1	1000078	2254.418	-1380.987	1	2643.771	-31.49036	-6.304389E-006	0.0039086	8
	1	1	794390.6	2510.504	-1306.131	1	2829.948	-27.48645	-7.486437E-006	0.0055668	8
	2	1	630984.4	2750.613	-1181.622	1	2993.677	-23.24764	-2.342458E-006	0.0048031	8
	3	2	501234.4	2945.729	-1068.976	1	3133.692	-19.94534	-5.812478E-008	0.0035549	8
	4	2	398109.4	3071.564	-943.493	1	3213.205	-17.0754	-5.883253E-006	0.0043286	8
	5	2	316265.6	3206.485	-823.1195	1	3310.449	-14.39722	-4.202532E-006	0.0045496	8
	6	3	251203.1	3288.763	-697.6997	1	3361.956	-11.97752	-7.025556E-007	0.0034869	8
	7	3	199546.9	3364.161	-603.3529	1	3417.837	-10.16774	-3.056322E-006	0.0037457	8
	8	3	158578.1	3382.758	-523.5888	1	3423.039	-8.798515	-3.010816E-006	0.0037508	8
	9	4	125953.1	3471.895	-402.356	1	3495.131	-6.610489	-2.725293E-006	0.0047408	7
	10	4	100078.1	3510.98	-380.3724	1	3531.525	-6.183192	1.006986E-006	0.003561	7
	11	4	79453.13	3534.258	-350.4178	1	3551.588	-5.662308	9.988681E-007	0.0035609	7
	12	4	63140.62	3564.136	-332.9711	1	3579.656	-5.337233	1.320996E-006	0.0024437	7
	13	5	50203.12	3587.838	-320.8695	1	3602.157	-5.110512	1.001765E-006	0.0035527	7
	14	5	39890.62	3612.339	-323.77	1	3626.819	-5.121673	7.372544E-007	0.0040693	7
	15	5	31640.63	3638.68	-331.6969	1	3653.767	-5.208606	1.224386E-006	0.0029485	7
	16	6	25171.88	3666.269	-340.9625	1	3682.09	-5.313216	9.492223E-007	0.0016458	7
	17	6	20015.62	3687.135	-370.8851	1	3705.741	-5.744003	1.331326E-006	0.0020268	7
	18	6	15890.62	3715.723	-405.7571	1	3737.812	-6.232007	-1.262051E-006	0.0044028	7
	19	7	12609.37	3746.588	-454.6941	1	3774.079	-6.9197	-7.681273E-007	0.0057402	7
	20	7	10078.13	3786.537	-517.8161	1	3821.78	-7.787004	7.52376E-008	0.0049667	7
	21	7	8015.625	3807.009	-595.6397	1	3853.324	-8.892331	-1.499758E-006	0.0055625	7
	22	7	6328.125	3850.659	-698.3618	1	3913.475	-10.27952	-1.270021E-006	0.0044078	7
	23	8	5015.625	3897.328	-815.341	1	3981.702	-11.81615	1.329015E-006	0.0024232	7
	24	8	3984.375	3933.136	-970.352	1	4051.067	-13.8588	-8.835087E-007	0.0035783	7
	25	8	3170.956	3978.201	-1158.125	1	4143.348	-16.23121	-1.260318E-006	0.0043941	7
	26	9	2527.573	4048.804	-1379.42	1	4277.337	-18.81388	4.671629E-007	0.0044356	7
	27	9	1976.103	4112.794	-1688.484	1	4445.903	-22.32032	-7.629579E-007	0.0057375	7
	28	9	1577.524	4206.091	-2037.996	1	4673.824	-25.85178	4.6896E-007	0.0044354	7
	29	10	1265.625	4288.01	-2429.271	1	4928.325	-29.5327	1.197587E-006	0.0017433	7
	30	10	998.264	4396.92	-2970.534	1	5306.315	-34.04274	-1.339418E-006	0.0057523	7
	31	10	796.875	4513.936	-3623.398	1	5788.318	-38.75449	-1.340638E-006	0.0057497	7
	32	10	627.7902	4676.162	-4431.492	1	6442.408	-43.46116	-1.334205E-006	0.0057492	7
	33	11	505.5147	4851.794	-5342.319	1	7216.667	-47.75486	-1.267287E-006	0.0043896	7
	34	11	397.9953	5068.841	-6627.501	1	8343.675	-52.59054	2.965595E-009	0.0038151	7
	35	11	315.5048	5343.959	-8140.756	1	9738.06	-56.7173	-4.885672E-010	0.0038104	7
	36	12	252.4038	5673.833	-9932.04	1	11438.44	-60.26216	-2.2925E-010	0.0037551	6
	37	12	198.6229	6122.822	-12295.81	1	13735.94	-63.52854	1.379015E-009	0.0037485	6
	38	12	158.3615	6681.28	-15074.94	1	16489.19	-66.09686	9.335003E-010	0.0037534	6
	39	13	125.558	7407.138	-18530.45	1	19956.03	-68.21203	5.934196E-010	0.0037547	6
	40	13	100.4464	8359.301	-22672.4	1	24164.35	-69.7611	2.570565E-010	0.0037533	6
	41	13	79.00281	9666.42	-27874.79	1	29503.28	-70.87447	2.242289E-009	0.0037424	6
	42	14	63.3446	11899.55	-33686.66	1	35726.61	-70.54462	-9.087027E-011	0.0037378	6
	43	14	49.86702	14120.65	-41794.67	1	44115.61	-71.33206	-1.13913E-009	0.0037432	6
	44	14	39.72458	16583.59	-50884.07	1	53518.26	-71.94874	8.267476E-010	0.0037496	6
	45	15	31.6723	20356.4	-62041.62	1	65295.83	-71.83488	1.148885E-009	0.0037358	6
	46	15	24.93351	25645.12	-75133.09	1	79389.26	-71.15373	-1.119273E-009	0.0037439	6
	47	15	19.86229	32685.29	-89998.23	1	95749.7	-70.04014	-1.009994E-009	0.0037528	6
	48	15	15.83615	41343.77	-109502	1	117047	-69.31539	1.253583E-009	0.0037475	5
	49	16	12.40079	55992.74	-128514.9	1	140183	-66.45769	-2.065058E-009	0.0037511	5
	50	16	9.93114	67283.63	-152073.5	1	166293.2	-66.13342	1.002222E-009	0.0037453	5
	51	17	7.944915	85428.53	-176100.7	1	195728.1	-64.12142	3.798435E-010	0.0037353	5
	52	17	6.317385	107631.3	-204497.4	1	231092.3	-62.24123	6.691681E-011	0.0037577	5
	53	18	5.008013	134340.4	-234539.3	1	270288.8	-60.19661	2.995675E-011	0.0037475	5
	54	19	3.945707	167728.4	-267130.9	1	315423.1	-57.87576	3.793209E-010	0.0037404	5
	55	20	3.158693	199987.3	-300587.5	1	361037.1	-56.36333	3.179225E-010	0.0037524	5
	56	22	2.504006	237644.2	-336580.6	1	412020.9	-54.77583	1.547225E-010	0.0037583	5
	57	23	1.998082	276916.3	-375243.3	1	466358.4	-53.57398	-3.440527E-011	0.0036971	5
	58	25	1.584686	316992.5	-419256.1	1	525604.3	-52.90768	2.318585E-011	0.0037174	5
	59	27	1.266892	359922.5	-468690	1	590943.8	-52.47815	9.162737E-011	0.0037486	5
	60	29	0.999041	407458	-531000.4	1	669315.6	-52.49952	1.193498E-010	0.0037704	5
