EXPLAIN
TAG	EISPOT
TITLE	LABEL	Potentiostatic IDE	Test &Identifier
DATE	LABEL	9/10/2019	Date
TIME	LABEL	10:22:10	Time
NOTES	NOTES	1	&Notes...
	
PSTAT	PSTAT	REF600-11020	Potentiostat
VDC	POTEN	0.00000E+000	T	DC &Voltage (V)
FREQINIT	QUANT	1.00000E+006	Initial Fre&q. (Hz)
FREQFINAL	QUANT	1.00000E+000	Final Fre&q. (Hz)
PTSPERDEC	QUANT	1.00000E+001	Points/&decade
VAC	QUANT	2.50000E+001	AC &Voltage (mV rms)
AREA	QUANT	1.00000E-002	&Area (cm^2)
CONDIT	TWOPARAM	T	5.00000E+000	0.00000E+000	Conditionin&g	Time(s)	E(V)
DELAY	TWOPARAM	T	5.00000E+000	0.00000E+000	Init. De&lay	Time(s)	Stab.(mV/s)
SPEED	SELECTOR	1	&Optimize for:
ZGUESS	QUANT	1.00000E+007	E&stimated Z (ohms)
OCVCURVE	TABLE	18
	Pt	T	Vf	Vm	Ach	Over
	#	s	V vs. Ref.	V	V	bits
	0	0.258333	5.94631E-003	5.94631E-003	5.58999E-004	...........
	1	0.516667	5.94373E-003	5.81133E-003	5.57466E-004	...........
	2	0.775	5.92825E-003	5.70199E-003	5.58166E-004	...........
	3	1.03333	5.88596E-003	5.61361E-003	5.54733E-004	...........
	4	1.29167	5.81408E-003	5.53467E-003	5.62066E-004	...........
	5	1.55	5.72496E-003	5.46914E-003	5.62432E-004	...........
	6	1.80833	5.63443E-003	5.40794E-003	5.56966E-004	...........
	7	2.06667	5.55203E-003	5.35796E-003	5.61399E-004	...........
	8	2.325	5.48044E-003	5.30986E-003	5.60866E-004	...........
	9	2.58333	5.41866E-003	5.26677E-003	5.61532E-004	...........
	10	2.84167	5.36459E-003	5.22606E-003	5.57866E-004	...........
	11	3.1	5.31628E-003	5.19284E-003	5.57732E-004	...........
	12	3.35833	5.27255E-003	5.15866E-003	5.61066E-004	...........
	13	3.61667	5.23278E-003	5.12604E-003	5.50833E-004	...........
	14	3.875	5.19622E-003	5.09474E-003	5.52432E-004	...........
	15	4.13333	5.16202E-003	5.06736E-003	5.51333E-004	...........
	16	4.39167	5.12968E-003	5.03925E-003	5.55966E-004	...........
	17	4.65	5.09908E-003	5.01449E-003	5.59266E-004	...........
EOC	QUANT	0.0050702	Open Circuit (V)
PSTATMODEL	IQUANT	4	Pstat Model
PSTATSECTION	LABEL	REF600-11020	Pstat Section
PSTATSERIALNO	LABEL	11020	Pstat Serial Number
CTRLMODE	IQUANT	1	Control Mode
IESTAB	IQUANT	0	I/E Stability
CASPEED	IQUANT	1	Control Amp Speed
CONVENTION	IQUANT	1	Current Convention
ICHRANGE	IQUANT	2	Ich Range
ICHRANGEMODE	TOGGLE	F	Ich Auto Range
ICHOFFSETENABLE	TOGGLE	T	Ich Offset Enable
ICHOFFSET	QUANT	0	Ich Offset (V)
ICHFILTER	IQUANT	3	Ich Filter
VCHRANGE	IQUANT	2	Vch Range
VCHRANGEMODE	TOGGLE	F	Vch Auto Range
VCHOFFSETENABLE	TOGGLE	T	Vch Offset Enable
VCHOFFSET	QUANT	0	Vch Offset (V)
VCHFILTER	IQUANT	3	Vch Filter
ACHRANGE	IQUANT	2	Ach Range
ACHOFFSETENABLE	TOGGLE	F	Ach Offset Enable
ACHOFFSET	QUANT	0	Ach Offset (V)
ACHFILTER	IQUANT	3	Ach Filter
IERANGELOWERLIMIT	IQUANT	1	I/E Range Lower Limit
IERANGEMODE	TOGGLE	F	I/E AutoRange
IERANGE	IQUANT	2	I/E Range
POSFEEDENABLE	TOGGLE	F	Positive Feedback IR Comp
POSFEEDRESISTANCE	QUANT	0	Positive Feedback Resistance (ohm)
ACHSELECT	IQUANT	0	Ach Select
CABLEID	IQUANT	14	Cable ID
DCCALDATE	LABEL	8/19/2019	DC Calibration Date
ACCALDATE	LABEL	8/19/2019	AC Calibration Date
THERMOSELECT	IQUANT	1	Thermo Select
FRAMEWORKVERSION	QUANT	6.33	Framework Version
INSTRUMENTVERSION	LABEL	3.50	Instrument Version
ZCURVE	TABLE
	Pt	Time	Freq	Zreal	Zimag	Zsig	Zmod	Zphz	Idc	Vdc	IERange
	#	s	Hz	ohm	ohm	V	ohm	°	A	V	#
	0	2	1000078	2592.366	-1704.922	1	3102.76	-33.33173	-4.117392E-006	0.0076229	8
	1	3	794390.6	2928.84	-1627.404	1	3350.604	-29.05865	4.381485E-006	0.006305	8
	2	4	630984.4	3209.6	-1505.508	1	3545.15	-25.12959	3.133223E-006	0.0060952	8
	3	6	501234.4	3474.091	-1361.436	1	3731.329	-21.39935	5.119273E-007	0.0065755	8
	4	7	398109.4	3684.786	-1212.996	1	3879.305	-18.22104	3.654236E-006	0.0060182	8
	5	8	316265.6	3812.531	-1055.606	1	3955.969	-15.47624	-1.929901E-006	0.0070702	8
	6	10	251203.1	3950.362	-921.4037	1	4056.395	-13.12924	-1.575954E-006	0.0070493	8
	7	11	199546.9	4043.278	-792.1575	1	4120.147	-11.08496	4.668533E-007	0.0065447	8
	8	12	158578.1	4121.584	-708.2561	1	4181.996	-9.75052	1.294111E-006	0.0063304	8
	9	14	125953.1	4185.158	-580.9529	1	4225.288	-7.902878	4.301801E-007	0.0055433	7
	10	15	100078.1	4225.354	-518.3234	1	4257.026	-6.993524	-1.258843E-008	0.0066282	7
	11	16	79453.13	4265.63	-481.6761	1	4292.74	-6.442564	-1.906589E-008	0.0065884	7
	12	18	63140.62	4304.293	-456.0778	1	4328.388	-6.048425	-2.666067E-008	0.0065953	7
	13	19	50203.12	4340.473	-445.4813	1	4363.273	-5.859993	-4.160714E-009	0.0066365	7
	14	20	39890.62	4379.376	-444.3247	1	4401.858	-5.793317	-3.532528E-009	0.0066326	7
	15	22	31640.63	4416.313	-457.2321	1	4439.919	-5.910917	5.941977E-008	0.0065022	7
	16	23	25171.88	4457.066	-478.4417	1	4482.672	-6.126926	1.469651E-008	0.0065222	7
	17	24	20015.62	4499.338	-511.8655	1	4528.361	-6.490329	-2.193191E-008	0.0066325	7
	18	26	15890.62	4551.295	-549.8709	1	4584.392	-6.888878	3.217859E-008	0.0065502	7
	19	27	12609.37	4596.383	-615.147	1	4637.364	-7.622761	5.917289E-008	0.0064983	7
	20	28	10078.13	4650.568	-681.7402	1	4700.272	-8.339753	3.395851E-008	0.0065497	7
	21	30	8015.625	4708.569	-772.9033	1	4771.583	-9.321869	-4.804014E-008	0.006646	7
	22	31	6328.125	4777.168	-883.2445	1	4858.133	-10.47505	-2.852499E-008	0.0066639	7
	23	32	5015.625	4850.642	-1014.298	1	4955.555	-11.81071	-2.899694E-008	0.0065958	7
	24	34	3984.375	4931.014	-1174.172	1	5068.884	-13.39383	-2.80515E-008	0.0066601	7
	25	35	3170.956	5019.81	-1365.318	1	5202.171	-15.21558	1.094601E-008	0.0066676	7
	26	36	2527.573	5116.992	-1593.277	1	5359.304	-17.29501	6.402043E-008	0.0064543	7
	27	38	1976.103	5238.036	-1894.922	1	5570.255	-19.88819	-2.111929E-008	0.0066301	7
	28	39	1577.524	5361.667	-2232.425	1	5807.857	-22.60527	-2.353527E-008	0.0066311	7
	29	40	1265.625	5499.459	-2623.787	1	6093.3	-25.50576	3.436952E-008	0.0065494	7
	30	42	998.264	5666.897	-3141.177	1	6479.252	-28.99973	3.63269E-008	0.0065458	7
	31	43	796.875	5845.523	-3737.897	1	6938.445	-32.59672	-4.205779E-008	0.0066583	7
	32	44	627.7902	6062.898	-4503.777	1	7552.664	-36.60653	-3.836366E-008	0.0066385	7
	33	46	505.5147	6285.685	-5356.819	1	8258.653	-40.43847	3.374895E-008	0.0065479	7
	34	47	397.9953	6578.275	-6502.387	1	9249.58	-44.6676	5.234414E-009	0.0066097	7
	35	48	315.5048	6902.231	-7869.236	1	10467.36	-48.74549	9.964435E-010	0.0065475	6
	36	50	252.4038	7260.596	-9477.684	1	11939.13	-52.54526	6.870859E-010	0.0065429	6
	37	51	198.6229	7708.702	-11601.3	1	13928.9	-56.39719	1.070972E-009	0.0065473	6
	38	52	158.3615	8206.421	-14075.59	1	16293.17	-59.75674	7.095897E-010	0.0065467	6
	39	54	125.558	8815.285	-17197.73	1	19325.4	-62.86103	1.147139E-009	0.0065452	6
	40	55	100.4464	9513.43	-20883.61	1	22948.43	-65.50858	3.811799E-010	0.0065546	6
	41	56	79.00281	10469.98	-25815.46	1	27857.83	-67.92399	1.176528E-009	0.0065487	6
	42	58	63.3446	11539.24	-31521.7	1	33567.42	-69.89369	7.90179E-010	0.0065521	6
	43	59	49.86702	12943.63	-38751.37	1	40855.92	-71.52979	6.693002E-010	0.0065418	6
	44	60	39.72458	14877.81	-47541.42	1	49815.02	-72.6228	1.120337E-009	0.0065435	6
	45	62	31.6723	17303	-58065.82	1	60589.05	-73.4065	1.146876E-009	0.0065417	6
	46	63	24.93351	20648.13	-71777.55	1	74688.44	-73.95115	5.827261E-010	0.0065488	6
	47	65	19.86229	24865.54	-87664.28	1	91122.56	-74.16428	5.580569E-010	0.0065425	6
	48	66	15.83615	30999.65	-106773.9	1	111182.9	-73.8104	-4.308141E-010	0.0065467	5
	49	67	12.40079	38290.45	-131588.3	1	137046.1	-73.7757	5.864705E-010	0.0065452	5
	50	69	9.93114	48127.31	-158427.1	1	165575.9	-73.10217	5.384994E-010	0.0065529	5
	51	70	7.944915	61051	-190240.4	1	199796.5	-72.20778	8.622211E-010	0.0065492	5
	52	72	6.317385	77648.82	-228715.7	1	241537.2	-71.24768	7.705243E-010	0.0065393	5
	53	74	5.008013	99809.4	-274537.7	1	292117.9	-70.02103	1.273795E-010	0.0065458	5
	54	76	3.945707	128398.6	-328392	1	352601.1	-68.64491	4.719976E-010	0.0065527	5
	55	79	3.158693	162576.3	-386273.6	1	419092.3	-67.17456	1.919202E-010	0.0065553	5
	56	82	2.504006	205982.1	-454264.2	1	498783.1	-65.6085	1.938366E-010	0.0065393	5
	57	85	1.998082	256600.5	-528827.3	1	587794.3	-64.11615	-1.170046E-011	0.0065297	5
	58	88	1.584686	320430.6	-610802.4	1	689750.2	-62.31823	1.277954E-010	0.0065853	5
	59	92	1.266892	391724.2	-701328.3	1	803311.4	-60.81462	3.851633E-011	0.0065107	5
	60	96	0.999041	480808.9	-803082.6	1	936012.3	-59.09087	2.51237E-010	0.0065859	5
