EXPLAIN
TAG	EISPOT
TITLE	LABEL	Potentiostatic EIS	Test &Identifier
DATE	LABEL	10/16/2019	Date
TIME	LABEL	9:25:14	Time
NOTES	NOTES	1	&Notes...
	
PSTAT	PSTAT	REF600-11020	Potentiostat
VDC	POTEN	0.00000E+000	T	DC &Voltage (V)
FREQINIT	QUANT	1.00000E+006	Initial Fre&q. (Hz)
FREQFINAL	QUANT	1.00000E+000	Final Fre&q. (Hz)
PTSPERDEC	QUANT	1.00000E+001	Points/&decade
VAC	QUANT	2.50000E+001	AC &Voltage (mV rms)
AREA	QUANT	1.00000E-002	&Area (cm^2)
CONDIT	TWOPARAM	T	5.00000E+000	0.00000E+000	Conditionin&g	Time(s)	E(V)
DELAY	TWOPARAM	T	5.00000E+000	0.00000E+000	Init. De&lay	Time(s)	Stab.(mV/s)
SPEED	SELECTOR	0	&Optimize for:
ZGUESS	QUANT	1.00000E+005	E&stimated Z (ohms)
OCVCURVE	TABLE	19
	Pt	T	Vf	Vm	Ach	Over
	#	s	V vs. Ref.	V	V	bits
	0	0.258333	7.08086E-003	7.08086E-003	5.79232E-004	...........
	1	0.516667	7.07976E-003	7.02352E-003	5.72399E-004	...........
	2	0.775	7.07368E-003	7.00297E-003	5.73932E-004	...........
	3	1.03333	7.05868E-003	6.98618E-003	5.71466E-004	...........
	4	1.29167	7.03655E-003	6.98618E-003	5.70399E-004	...........
	5	1.55	7.01445E-003	6.99289E-003	5.72566E-004	...........
	6	1.80833	6.99911E-003	7.00516E-003	5.70599E-004	...........
	7	2.06667	6.99287E-003	6.99645E-003	5.72599E-004	...........
	8	2.325	6.99381E-003	7.02389E-003	5.76132E-004	...........
	9	2.58333	7.00196E-003	7.18247E-003	5.73999E-004	...........
	10	2.84167	7.02543E-003	7.19801E-003	5.73965E-004	...........
	11	3.1	7.06799E-003	7.10893E-003	5.76566E-004	...........
	12	3.35833	7.11691E-003	7.34237E-003	5.74865E-004	...........
	13	3.61667	7.16290E-003	7.32382E-003	5.70499E-004	...........
	14	3.875	7.20938E-003	7.20554E-003	5.68866E-004	...........
	15	4.13333	7.24641E-003	7.15008E-003	5.64966E-004	...........
	16	4.39167	7.25244E-003	7.14616E-003	5.71699E-004	...........
	17	4.65	7.22578E-003	7.10287E-003	5.70599E-004	...........
	18	4.90833	7.18452E-003	7.05998E-003	5.67066E-004	...........
EOC	QUANT	0.0071845	Open Circuit (V)
PSTATMODEL	IQUANT	4	Pstat Model
PSTATSECTION	LABEL	REF600-11020	Pstat Section
PSTATSERIALNO	LABEL	11020	Pstat Serial Number
CTRLMODE	IQUANT	1	Control Mode
IESTAB	IQUANT	0	I/E Stability
CASPEED	IQUANT	1	Control Amp Speed
CONVENTION	IQUANT	1	Current Convention
ICHRANGE	IQUANT	2	Ich Range
ICHRANGEMODE	TOGGLE	F	Ich Auto Range
ICHOFFSETENABLE	TOGGLE	T	Ich Offset Enable
ICHOFFSET	QUANT	0	Ich Offset (V)
ICHFILTER	IQUANT	3	Ich Filter
VCHRANGE	IQUANT	2	Vch Range
VCHRANGEMODE	TOGGLE	F	Vch Auto Range
VCHOFFSETENABLE	TOGGLE	T	Vch Offset Enable
VCHOFFSET	QUANT	0	Vch Offset (V)
VCHFILTER	IQUANT	3	Vch Filter
ACHRANGE	IQUANT	2	Ach Range
ACHOFFSETENABLE	TOGGLE	F	Ach Offset Enable
ACHOFFSET	QUANT	0	Ach Offset (V)
ACHFILTER	IQUANT	3	Ach Filter
IERANGELOWERLIMIT	IQUANT	1	I/E Range Lower Limit
IERANGEMODE	TOGGLE	F	I/E AutoRange
IERANGE	IQUANT	5	I/E Range
POSFEEDENABLE	TOGGLE	F	Positive Feedback IR Comp
POSFEEDRESISTANCE	QUANT	0	Positive Feedback Resistance (ohm)
ACHSELECT	IQUANT	0	Ach Select
CABLEID	IQUANT	14	Cable ID
DCCALDATE	LABEL	8/19/2019	DC Calibration Date
ACCALDATE	LABEL	8/19/2019	AC Calibration Date
THERMOSELECT	IQUANT	1	Thermo Select
FRAMEWORKVERSION	QUANT	6.33	Framework Version
INSTRUMENTVERSION	LABEL	3.50	Instrument Version
ZCURVE	TABLE
	Pt	Time	Freq	Zreal	Zimag	Zsig	Zmod	Zphz	Idc	Vdc	IERange
	#	s	Hz	ohm	ohm	V	ohm	°	A	V	#
	0	2	1000078	2469.237	-1362.599	1	2820.25	-28.89123	-1.797714E-006	0.009727	8
	1	2	794390.6	2714.172	-1235.658	1	2982.211	-24.47795	5.733474E-007	0.0091698	8
	2	2	630984.4	2910.804	-1105.175	1	3113.55	-20.79078	1.187271E-006	0.0087248	8
	3	3	501234.4	3064.36	-964.011	1	3212.417	-17.46295	-1.66552E-006	0.0092271	8
	4	3	398109.4	3179.754	-822.3988	1	3284.384	-14.50099	3.439596E-006	0.0082866	8
	5	3	316265.6	3258.774	-711.0609	1	3335.449	-12.30895	7.856218E-007	0.0085351	8
	6	4	251203.1	3320.914	-615.5636	1	3377.483	-10.50114	-4.146619E-007	0.0089833	8
	7	4	199546.9	3367.44	-532.4138	1	3409.27	-8.984457	-6.065047E-007	0.008983	8
	8	4	158578.1	3417.685	-476.3143	1	3450.717	-7.934065	3.11683E-006	0.0082744	8
	9	5	125953.1	3465.889	-395.6516	1	3488.399	-6.512457	-4.54998E-007	0.0091757	7
	10	5	100078.1	3495.309	-355.677	1	3513.359	-5.810326	-1.107575E-008	0.0088493	7
	11	5	79453.13	3522.656	-345.9594	1	3539.604	-5.60902	-4.140643E-008	0.0089441	7
	12	6	63140.62	3551.026	-347.0608	1	3567.945	-5.582095	-1.120548E-008	0.0089251	7
	13	6	50203.12	3581.916	-354.5277	1	3599.418	-5.652562	-1.011313E-008	0.0088404	7
	14	6	39890.62	3614.415	-370.6759	1	3633.372	-5.855492	-4.095102E-009	0.00877	7
	15	7	31640.63	3649.442	-394.7099	1	3670.726	-6.172899	-5.710704E-008	0.0089053	7
	16	7	25171.88	3686.695	-427.15	1	3711.357	-6.60897	-5.658352E-008	0.0089001	7
	17	7	20015.62	3728.76	-453.5147	1	3756.238	-6.934604	-9.783394E-009	0.0089226	7
	18	7	15890.62	3773.198	-519.0298	1	3808.729	-7.832283	6.284841E-008	0.0086765	7
	19	8	12609.37	3823.275	-581.9466	1	3867.311	-8.65465	-5.869785E-008	0.0089051	7
	20	8	10078.13	3875.742	-653.747	1	3930.492	-9.57433	-4.228309E-008	0.0089417	7
	21	8	8015.625	3938.513	-744.8023	1	4008.318	-10.7086	6.128881E-008	0.0087763	7
	22	9	6328.125	3998.165	-851.9675	1	4087.93	-12.02922	-3.088158E-008	0.0088319	7
	23	9	5015.625	4067.67	-982.358	1	4184.61	-13.57717	-3.618855E-008	0.0088561	7
	24	9	3984.375	4143.096	-1142.204	1	4297.659	-15.41293	6.150132E-008	0.0087859	7
	25	10	3170.956	4221.895	-1329.24	1	4426.203	-17.47632	-1.988475E-008	0.0088017	7
	26	10	2527.573	4309.086	-1556.916	1	4581.726	-19.8653	-3.059558E-008	0.0088285	7
	27	10	1976.103	4414.998	-1863.212	1	4792.052	-22.88066	-3.64495E-008	0.0088335	7
	28	11	1577.524	4525.544	-2176.128	1	5021.562	-25.68078	-3.4643E-008	0.0088243	7
	29	11	1265.625	4642.354	-2611.423	1	5326.442	-29.35868	-3.545875E-008	0.008825	7
	30	11	998.264	4788.384	-3147.658	1	5730.303	-33.31903	-2.167216E-008	0.0087991	7
	31	12	796.875	4948.189	-3771.46	1	6221.615	-37.31429	-1.003184E-008	0.0088282	7
	32	12	627.7902	5138.425	-4579.177	1	6882.752	-41.70626	1.053962E-007	0.0086491	7
	33	12	505.5147	5335.788	-5479.44	1	7648.196	-45.76098	-3.647579E-008	0.0088806	7
	34	13	397.9953	5590.449	-6700.939	1	8726.724	-50.16249	1.130216E-009	0.0088247	7
	35	13	315.5048	5882.48	-8174.455	1	10071.01	-54.26055	1.410193E-010	0.008763	6
	36	13	252.4038	6214.288	-9921.42	1	11706.92	-57.939	1.16234E-009	0.0087626	6
	37	14	198.6229	6653.651	-12242.28	1	13933.58	-61.47603	2.417631E-010	0.0087634	6
	38	14	158.3615	7173.135	-14954.98	1	16586.29	-64.37535	7.899587E-010	0.0087618	6
	39	14	125.558	7858.193	-18378.8	1	19988.29	-66.84998	5.290043E-010	0.0087628	6
	40	15	100.4464	8710.102	-22430	1	24061.81	-68.77763	-8.232204E-010	0.0087626	6
	41	15	79.00281	9943.99	-27686.7	1	29418.3	-70.24368	-3.833031E-010	0.0087563	6
	42	15	63.3446	11244.51	-34057.69	1	35865.93	-71.72881	6.198438E-010	0.0087568	6
	43	16	49.86702	13255.58	-41849.11	1	43898.27	-72.42455	9.173808E-010	0.0087544	6
	44	16	39.72458	16047.17	-50663.54	1	53144.2	-72.42492	3.255102E-010	0.0087569	6
	45	16	31.6723	19400.43	-61325.13	1	64320.67	-72.44505	3.398541E-010	0.0087584	6
	46	17	24.93351	23971.58	-75214.53	1	78942.15	-72.32243	1.814553E-010	0.0087499	6
	47	17	19.86229	29649.88	-90742.67	1	95463.9	-71.90536	6.116201E-010	0.0087584	6
	48	17	15.83615	37443.27	-110328.4	1	116509.1	-71.25381	-2.026032E-009	0.0087536	5
	49	17	12.40079	48044.44	-133317.3	1	141710.2	-70.18202	5.959772E-010	0.0087543	5
	50	18	9.93114	59029.45	-156556.1	1	167315	-69.34106	-5.444379E-010	0.0087588	5
	51	18	7.944915	73829.32	-184934.6	1	199127	-68.2372	1.997E-011	0.0087489	5
	52	19	6.317385	91664.35	-219190.9	1	237585.8	-67.3056	2.743908E-010	0.008747	5
	53	20	5.008013	114743.3	-258702.2	1	283006.8	-66.08107	4.467587E-011	0.0087528	5
	54	21	3.945707	142349.5	-305331	1	336883.3	-65.00441	1.990481E-010	0.0087615	5
	55	22	3.158693	174438.5	-354402.8	1	395006.5	-63.7934	-2.112346E-010	0.0087587	5
	56	24	2.504006	213391	-412370.5	1	464311.5	-62.63962	-7.70739E-011	0.0087491	5
	57	25	1.998082	257693.9	-475990	1	541269.5	-61.56954	7.634367E-011	0.0087953	5
	58	27	1.584686	309629.3	-548994.5	1	630289.9	-60.57728	-3.03742E-012	0.0087596	5
	59	29	1.266892	369842.3	-628744.9	1	729454.3	-59.53498	-6.506195E-011	0.0087218	5
	60	31	0.999041	442718.3	-726093.2	1	850418	-58.62823	-1.049147E-010	0.0087104	5
