EXPLAIN
TAG	EISPOT
TITLE	LABEL	Potentiostatic EIS	Test &Identifier
DATE	LABEL	11/7/2019	Date
TIME	LABEL	8:33:26	Time
NOTES	NOTES	2	&Notes...
	
	
PSTAT	PSTAT	REF600-11020	Potentiostat
VDC	POTEN	0.00000E+000	T	DC &Voltage (V)
FREQINIT	QUANT	1.00000E+006	Initial Fre&q. (Hz)
FREQFINAL	QUANT	1.00000E+000	Final Fre&q. (Hz)
PTSPERDEC	QUANT	1.00000E+001	Points/&decade
VAC	QUANT	2.50000E+001	AC &Voltage (mV rms)
AREA	QUANT	1.00000E-002	&Area (cm^2)
CONDIT	TWOPARAM	T	5.00000E+000	0.00000E+000	Conditionin&g	Time(s)	E(V)
DELAY	TWOPARAM	T	5.00000E+000	0.00000E+000	Init. De&lay	Time(s)	Stab.(mV/s)
SPEED	SELECTOR	1	&Optimize for:
ZGUESS	QUANT	1.00000E+005	E&stimated Z (ohms)
OCVCURVE	TABLE	19
	Pt	T	Vf	Vm	Ach	Over
	#	s	V vs. Ref.	V	V	bits
	0	0.258333	4.13657E-003	4.13657E-003	5.77732E-004	...........
	1	0.516667	4.13485E-003	4.04628E-003	5.73432E-004	...........
	2	0.775	4.12471E-003	3.98420E-003	5.79166E-004	...........
	3	1.03333	4.09764E-003	3.93174E-003	5.78199E-004	...........
	4	1.29167	4.05283E-003	3.88838E-003	5.81432E-004	...........
	5	1.55	3.99884E-003	3.85207E-003	5.83332E-004	...........
	6	1.80833	3.94559E-003	3.81910E-003	5.79899E-004	...........
	7	2.06667	3.89831E-003	3.78188E-003	5.81565E-004	...........
	8	2.325	3.85745E-003	3.75761E-003	5.82965E-004	...........
	9	2.58333	3.82151E-003	3.73067E-003	5.78299E-004	...........
	10	2.84167	3.78867E-003	3.66946E-003	5.80199E-004	...........
	11	3.1	3.75667E-003	3.68125E-003	5.79332E-004	...........
	12	3.35833	3.72541E-003	3.65719E-003	5.80732E-004	...........
	13	3.61667	3.69780E-003	3.62960E-003	5.83365E-004	...........
	14	3.875	3.67487E-003	3.61100E-003	5.83732E-004	...........
	15	4.13333	3.65414E-003	3.59089E-003	5.83199E-004	...........
	16	4.39167	3.63388E-003	3.58664E-003	5.80932E-004	...........
	17	4.65	3.61523E-003	3.58653E-003	5.80799E-004	...........
	18	4.90833	3.60029E-003	3.56685E-003	5.83499E-004	...........
EOC	QUANT	0.0036003	Open Circuit (V)
PSTATMODEL	IQUANT	4	Pstat Model
PSTATSECTION	LABEL	REF600-11020	Pstat Section
PSTATSERIALNO	LABEL	11020	Pstat Serial Number
CTRLMODE	IQUANT	1	Control Mode
IESTAB	IQUANT	0	I/E Stability
CASPEED	IQUANT	1	Control Amp Speed
CONVENTION	IQUANT	1	Current Convention
ICHRANGE	IQUANT	2	Ich Range
ICHRANGEMODE	TOGGLE	F	Ich Auto Range
ICHOFFSETENABLE	TOGGLE	T	Ich Offset Enable
ICHOFFSET	QUANT	0	Ich Offset (V)
ICHFILTER	IQUANT	3	Ich Filter
VCHRANGE	IQUANT	2	Vch Range
VCHRANGEMODE	TOGGLE	F	Vch Auto Range
VCHOFFSETENABLE	TOGGLE	T	Vch Offset Enable
VCHOFFSET	QUANT	0	Vch Offset (V)
VCHFILTER	IQUANT	3	Vch Filter
ACHRANGE	IQUANT	2	Ach Range
ACHOFFSETENABLE	TOGGLE	F	Ach Offset Enable
ACHOFFSET	QUANT	0	Ach Offset (V)
ACHFILTER	IQUANT	3	Ach Filter
IERANGELOWERLIMIT	IQUANT	1	I/E Range Lower Limit
IERANGEMODE	TOGGLE	F	I/E AutoRange
IERANGE	IQUANT	4	I/E Range
POSFEEDENABLE	TOGGLE	F	Positive Feedback IR Comp
POSFEEDRESISTANCE	QUANT	0	Positive Feedback Resistance (ohm)
ACHSELECT	IQUANT	0	Ach Select
CABLEID	IQUANT	14	Cable ID
DCCALDATE	LABEL	8/19/2019	DC Calibration Date
ACCALDATE	LABEL	8/19/2019	AC Calibration Date
THERMOSELECT	IQUANT	1	Thermo Select
FRAMEWORKVERSION	QUANT	6.33	Framework Version
INSTRUMENTVERSION	LABEL	3.50	Instrument Version
ZCURVE	TABLE
	Pt	Time	Freq	Zreal	Zimag	Zsig	Zmod	Zphz	Idc	Vdc	IERange
	#	s	Hz	ohm	ohm	V	ohm	°	A	V	#
	0	1	1000078	1260.403	-2124.232	1	2470.016	-59.31742	-7.740944E-006	0.0070569	8
	1	2	794390.6	1439.867	-2524.758	1	2906.479	-60.30392	2.254599E-006	0.0049632	8
	2	4	630984.4	1668.291	-2997.22	1	3430.236	-60.89913	-2.559249E-006	0.0048965	8
	3	5	501234.4	1942.017	-3553.625	1	4049.652	-61.34387	-6.333476E-008	0.004801	8
	4	7	398109.4	2326.27	-4188.197	1	4790.879	-60.95069	2.217534E-006	0.0054233	8
	5	8	316265.6	2762.936	-4943.313	1	5663.051	-60.79813	-8.35124E-007	0.0047072	8
	6	10	251203.1	3351.145	-5791.74	1	6691.369	-59.946	-3.236541E-006	0.0056751	8
	7	11	199546.9	4101.214	-6730.279	1	7881.41	-58.64323	6.912557E-006	0.0042094	8
	8	13	158578.1	5003.077	-7644.717	1	9136.327	-56.7973	-4.993418E-007	0.0055623	8
	9	15	125953.1	6042.166	-8767.991	1	10648.26	-55.42864	-3.169188E-006	0.0095971	7
	10	17	100078.1	7136.803	-9973.95	1	12264.32	-54.41459	-1.069041E-006	0.004919	7
	11	18	79453.13	8344.526	-11258.25	1	14013.54	-53.45445	4.891837E-008	0.0032374	7
	12	20	63140.62	9717.56	-12689.05	1	15982.58	-52.55431	-1.077585E-006	0.004908	7
	13	21	50203.12	11211.69	-14251.32	1	18132.9	-51.80743	-3.355837E-007	0.0068228	7
	14	23	39890.62	12968.47	-16228.61	1	20773.75	-51.37124	-1.475295E-006	0.0072446	7
	15	24	31640.63	15061.62	-18790.69	1	24081.99	-51.28619	1.010468E-006	0.0025383	7
	16	26	25171.88	17705.52	-20977.7	1	27450.86	-49.83509	1.539242E-007	0.0062826	7
	17	27	20015.62	20785.06	-24419.35	1	32067.49	-49.59651	1.322545E-006	0.0025945	7
	18	29	15890.62	25114.61	-26354.66	1	36404.83	-46.38016	-3.334904E-007	0.0068074	7
	19	31	12609.37	30711.49	-28922.25	1	42186.4	-43.28142	2.104753E-007	0.0012983	6
	20	32	10078.13	35988.17	-30505.18	1	47177.47	-40.2861	-2.745157E-007	0.0079144	6
	21	34	8015.625	41993.13	-31603.48	1	52556.66	-36.96465	-1.617805E-007	0.0088635	6
	22	35	6328.125	48699.88	-32240.95	1	58405.11	-33.5059	1.634391E-007	0.0012159	6
	23	37	5015.625	54536.62	-31233.65	1	62847.31	-29.80019	-2.669733E-007	0.0087253	6
	24	38	3984.375	60077.25	-28944.93	1	66686.46	-25.72454	-2.671694E-007	0.0087289	6
	25	40	3170.956	64366.66	-27453.32	1	69976.8	-23.09896	-3.359981E-007	0.0068071	7
	26	42	2527.573	69339.02	-25891.52	1	74015.34	-20.47587	6.969353E-010	0.0074379	6
	27	44	1976.103	72761.76	-23876.2	1	76579.02	-18.16685	-2.475753E-007	0.0067086	6
	28	45	1577.524	73278.76	-22467.21	1	76645.63	-17.0455	-2.670042E-007	0.008731	6
	29	47	1265.625	78498.86	-20457.79	1	81120.84	-14.60708	2.385628E-007	0.003065	6
	30	49	998.264	80480.05	-19070.96	1	82708.77	-13.3312	2.454714E-007	0.0023561	6
	31	50	796.875	81642.95	-18272.01	1	83662.63	-12.61514	8.001039E-008	0.0064143	6
	32	52	627.7902	83045.7	-18118.14	1	84999.15	-12.30741	-1.279878E-007	0.0040952	6
	33	53	505.5147	85058.04	-18812.53	1	87113.61	-12.4715	2.443783E-007	0.0023553	6
	34	55	397.9953	86340.46	-19650.24	1	88548.33	-12.82156	3.688748E-010	0.0049654	6
	35	56	315.5048	88223.3	-20709.34	1	90621.34	-13.21031	1.527223E-009	0.0049414	5
	36	58	252.4038	90104.27	-23059.18	1	93008.09	-14.35485	4.871673E-011	0.0049458	5
	37	59	198.6229	91796.51	-26030.53	1	95415.9	-15.83162	7.322585E-010	0.0049518	5
	38	60	158.3615	94437.5	-29777.39	1	99020.9	-17.50075	4.005852E-010	0.0049522	5
	39	62	125.558	97137.7	-34106.28	1	102951.3	-19.34682	8.676762E-010	0.0049548	5
	40	63	100.4464	100265.8	-39081.96	1	107613.4	-21.29501	4.437326E-010	0.0049394	5
	41	65	79.00281	105206.1	-45399.34	1	114583.7	-23.34153	1.123687E-010	0.0049304	5
	42	66	63.3446	104882.1	-53658.25	1	117811.1	-27.09454	6.671039E-011	0.0049464	5
	43	68	49.86702	114499.5	-60426.56	1	129466.2	-27.82264	4.367249E-011	0.0049445	5
	44	70	39.72458	121826.9	-70032.01	1	140521.4	-29.89239	1.931296E-010	0.0049521	5
	45	71	31.6723	129360.9	-80367.8	1	152293.2	-31.85137	7.350216E-010	0.0049528	5
	46	73	24.93351	138501.7	-91828.52	1	166178.2	-33.54493	8.572979E-010	0.0049349	5
	47	74	19.86229	149153.7	-104786.2	1	182282.7	-35.08952	7.557875E-010	0.0049485	5
	48	75	15.83615	157844.6	-121353.9	1	199102.2	-37.55376	-9.220889E-010	0.0049473	5
	49	77	12.40079	178957.9	-136576	1	225119.8	-37.34993	2.059156E-009	0.0049473	5
	50	78	9.93114	190946.7	-156325.2	1	246775.7	-39.30667	-1.072273E-010	0.004943	5
	51	80	7.944915	206196.7	-175693.9	1	270897.4	-40.43329	1.284033E-009	0.0049497	5
	52	81	6.317385	227308.5	-201650.2	1	303861.8	-41.57691	-2.238532E-010	0.0049619	5
	53	83	5.008013	250334.9	-230488.4	1	340283	-42.6364	-6.150739E-011	0.004931	5
	54	86	3.945707	276551.7	-263995.3	1	382327.6	-43.66932	4.817375E-010	0.0049355	5
	55	89	3.158693	304842.2	-299354.1	1	427248.9	-44.47958	-4.049584E-011	0.0049185	5
	56	92	2.504006	338003	-342392.5	1	481122.3	-45.36963	3.722859E-010	0.0049533	5
	57	95	1.998082	373639.2	-390011.6	1	540106.7	-46.22821	4.759463E-010	0.0049322	5
	58	98	1.584686	416884.9	-445826.7	1	610372.4	-46.92141	5.268829E-011	0.0048929	5
	59	102	1.266892	461055.3	-508570.7	1	686451.9	-47.80547	3.633307E-010	0.0049218	5
	60	106	0.999041	516743.8	-586662.3	1	781790.8	-48.62576	-1.757504E-010	0.0049418	5
