EXPLAIN
TAG	EISPOT
TITLE	LABEL	Potentiostatic EIS	Test &Identifier
DATE	LABEL	11/27/2019	Date
TIME	LABEL	13:31:14	Time
NOTES	NOTES	3	&Notes...
	
	
	
PSTAT	PSTAT	REF600-11020	Potentiostat
VDC	POTEN	0.00000E+000	T	DC &Voltage (V)
FREQINIT	QUANT	1.00000E+006	Initial Fre&q. (Hz)
FREQFINAL	QUANT	1.00000E+000	Final Fre&q. (Hz)
PTSPERDEC	QUANT	1.00000E+001	Points/&decade
VAC	QUANT	2.50000E+001	AC &Voltage (mV rms)
AREA	QUANT	1.00000E-002	&Area (cm^2)
CONDIT	TWOPARAM	T	5.00000E+000	0.00000E+000	Conditionin&g	Time(s)	E(V)
DELAY	TWOPARAM	T	5.00000E+000	0.00000E+000	Init. De&lay	Time(s)	Stab.(mV/s)
SPEED	SELECTOR	0	&Optimize for:
ZGUESS	QUANT	1.00000E+005	E&stimated Z (ohms)
OCVCURVE	TABLE	19
	Pt	T	Vf	Vm	Ach	Over
	#	s	V vs. Ref.	V	V	bits
	0	0.258333	4.86766E-003	4.86766E-003	5.40266E-004	...........
	1	0.516667	4.85823E-003	4.37390E-003	5.36966E-004	...........
	2	0.775	4.82693E-003	5.29951E-003	5.37266E-004	...........
	3	1.03333	4.82515E-003	6.09745E-003	5.33300E-004	...........
	4	1.29167	4.96864E-003	5.96584E-003	5.34733E-004	...........
	5	1.55	5.27585E-003	5.83757E-003	5.35899E-004	...........
	6	1.80833	5.59914E-003	5.65936E-003	5.32900E-004	...........
	7	2.06667	5.79108E-003	5.91209E-003	5.29000E-004	...........
	8	2.325	5.85044E-003	6.11393E-003	5.33200E-004	...........
	9	2.58333	5.87351E-003	6.04993E-003	5.38466E-004	...........
	10	2.84167	5.92031E-003	5.89377E-003	5.34800E-004	...........
	11	3.1	5.96565E-003	5.75317E-003	5.38566E-004	...........
	12	3.35833	5.96087E-003	5.68339E-003	5.40199E-004	...........
	13	3.61667	5.89815E-003	5.65279E-003	5.34500E-004	...........
	14	3.875	5.81260E-003	5.81842E-003	5.36199E-004	...........
	15	4.13333	5.75069E-003	5.81037E-003	5.37966E-004	...........
	16	4.39167	5.73657E-003	5.81585E-003	5.38199E-004	...........
	17	4.65	5.75762E-003	5.79855E-003	5.35899E-004	...........
	18	4.90833	5.78490E-003	5.80886E-003	5.44399E-004	...........
EOC	QUANT	0.0057849	Open Circuit (V)
PSTATMODEL	IQUANT	4	Pstat Model
PSTATSECTION	LABEL	REF600-11020	Pstat Section
PSTATSERIALNO	LABEL	11020	Pstat Serial Number
CTRLMODE	IQUANT	1	Control Mode
IESTAB	IQUANT	0	I/E Stability
CASPEED	IQUANT	1	Control Amp Speed
CONVENTION	IQUANT	1	Current Convention
ICHRANGE	IQUANT	2	Ich Range
ICHRANGEMODE	TOGGLE	F	Ich Auto Range
ICHOFFSETENABLE	TOGGLE	T	Ich Offset Enable
ICHOFFSET	QUANT	0	Ich Offset (V)
ICHFILTER	IQUANT	3	Ich Filter
VCHRANGE	IQUANT	2	Vch Range
VCHRANGEMODE	TOGGLE	F	Vch Auto Range
VCHOFFSETENABLE	TOGGLE	T	Vch Offset Enable
VCHOFFSET	QUANT	0	Vch Offset (V)
VCHFILTER	IQUANT	3	Vch Filter
ACHRANGE	IQUANT	2	Ach Range
ACHOFFSETENABLE	TOGGLE	F	Ach Offset Enable
ACHOFFSET	QUANT	0	Ach Offset (V)
ACHFILTER	IQUANT	3	Ach Filter
IERANGELOWERLIMIT	IQUANT	1	I/E Range Lower Limit
IERANGEMODE	TOGGLE	F	I/E AutoRange
IERANGE	IQUANT	5	I/E Range
POSFEEDENABLE	TOGGLE	F	Positive Feedback IR Comp
POSFEEDRESISTANCE	QUANT	0	Positive Feedback Resistance (ohm)
ACHSELECT	IQUANT	0	Ach Select
CABLEID	IQUANT	14	Cable ID
DCCALDATE	LABEL	8/19/2019	DC Calibration Date
ACCALDATE	LABEL	8/19/2019	AC Calibration Date
THERMOSELECT	IQUANT	1	Thermo Select
FRAMEWORKVERSION	QUANT	6.33	Framework Version
INSTRUMENTVERSION	LABEL	3.50	Instrument Version
ZCURVE	TABLE
	Pt	Time	Freq	Zreal	Zimag	Zsig	Zmod	Zphz	Idc	Vdc	IERange
	#	s	Hz	ohm	ohm	V	ohm	°	A	V	#
	0	1	1000078	2180.947	-1630.678	1	2723.167	-36.78518	-4.319947E-006	0.0087775	8
	1	2	794390.6	2517.595	-1574.822	1	2969.571	-32.02706	8.62194E-006	0.0063641	8
	2	2	630984.4	2817.362	-1469.336	1	3177.495	-27.54335	-4.379699E-006	0.0077679	8
	3	2	501234.4	3062.974	-1334.989	1	3341.258	-23.54985	-1.655643E-006	0.0076493	8
	4	2	398109.4	3248.851	-1185.143	1	3458.264	-20.04138	-5.411856E-006	0.0082189	8
	5	3	316265.6	3419.928	-1027.116	1	3570.837	-16.71673	6.776863E-006	0.0066301	8
	6	3	251203.1	3534.155	-897.9041	1	3646.434	-14.25523	4.535237E-007	0.0076951	8
	7	3	199546.9	3628.798	-781.6389	1	3712.025	-12.15572	-4.125799E-006	0.0076913	8
	8	4	158578.1	3705.869	-688.0504	1	3769.201	-10.51806	-2.60817E-007	0.0077561	8
	9	4	125953.1	3772.221	-571.3033	1	3815.238	-8.612005	-1.566918E-006	0.0069728	7
	10	4	100078.1	3814.442	-521.1365	1	3849.877	-7.779696	9.837489E-007	0.0059767	7
	11	5	79453.13	3856.31	-490.2354	1	3887.346	-7.244894	-2.884714E-007	0.0065358	7
	12	5	63140.62	3893.708	-473.6299	1	3922.409	-6.935375	-8.166277E-007	0.0088377	7
	13	5	50203.12	3936.229	-472.8211	1	3964.525	-6.84957	9.264989E-007	0.0066386	7
	14	6	39890.62	3976.772	-478.4487	1	4005.45	-6.860328	3.574995E-007	0.0077774	7
	15	6	31640.63	4019.595	-497.3017	1	4050.241	-7.052757	5.60524E-007	0.0074741	7
	16	6	25171.88	4063.209	-526.3955	1	4097.165	-7.381649	-1.115328E-006	0.0082898	7
	17	7	20015.62	4114.451	-570.6509	1	4153.835	-7.896224	5.611803E-007	0.0074718	7
	18	7	15890.62	4167.423	-622.4096	1	4213.646	-8.494407	4.375088E-007	0.0057701	7
	19	7	12609.37	4226.514	-690.9724	1	4282.623	-9.284872	5.601599E-007	0.0074783	7
	20	8	10078.13	4285.072	-766.8752	1	4353.153	-10.14649	-5.643824E-007	0.0087508	7
	21	8	8015.625	4351.652	-870.0775	1	4437.782	-11.30673	7.655566E-007	0.0070753	7
	22	8	6328.125	4426.022	-990.433	1	4535.486	-12.61356	-1.11788E-006	0.0082919	7
	23	8	5015.625	4507.53	-1137.804	1	4648.917	-14.16683	-1.119231E-006	0.0086177	7
	24	9	3984.375	4596.863	-1305.026	1	4778.519	-15.84897	9.272834E-007	0.0066311	7
	25	9	3170.956	4690.812	-1534.617	1	4935.46	-18.11571	9.887542E-007	0.005956	7
	26	9	2527.573	4794.243	-1796.444	1	5119.763	-20.5414	9.872603E-007	0.0059526	7
	27	10	1976.103	4912.453	-2145.178	1	5360.409	-23.59001	-2.871446E-007	0.0065117	7
	28	10	1577.524	5060.761	-2534.227	1	5659.824	-26.59988	9.888871E-007	0.0059517	7
	29	10	1265.625	5184.117	-3000.385	1	5989.773	-30.06075	1.002303E-006	0.0062499	7
	30	11	998.264	5356.773	-3610.911	1	6460.162	-33.98325	7.675847E-007	0.0070675	7
	31	11	796.875	5550.944	-4315.685	1	7031.225	-37.86394	-8.166668E-007	0.0088176	7
	32	12	627.7902	5781.792	-5232.833	1	7798.183	-42.14679	-2.573746E-007	0.0085221	7
	33	12	505.5147	6023.842	-6256.644	1	8685.176	-46.08603	-6.781323E-007	0.0071433	7
	34	12	397.9953	6332.265	-7638.383	1	9921.82	-50.34107	-4.678652E-011	0.0073117	7
	35	13	315.5048	6688.979	-9290.885	1	11448.27	-54.24797	-2.0652E-010	0.0072536	6
	36	13	252.4038	7097.469	-11248.1	1	13300.14	-57.74837	3.048448E-010	0.0072476	6
	37	13	198.6229	7628.013	-13842.43	1	15805.04	-61.14259	-3.444825E-011	0.007253	6
	38	14	158.3615	8245.29	-16869.9	1	18777.07	-63.95258	-1.222228E-010	0.0072515	6
	39	14	125.558	9059.684	-20681.37	1	22578.68	-66.34369	1.263377E-010	0.0072438	6
	40	14	100.4464	10018.07	-25157.07	1	27078.4	-68.28652	4.532671E-010	0.0072504	6
	41	15	79.00281	11396.17	-31032.54	1	33058.9	-69.83511	-1.248782E-009	0.0072469	6
	42	15	63.3446	13522.16	-38053.11	1	40384.25	-70.43735	9.602855E-011	0.0072441	6
	43	15	49.86702	15761.91	-46840.96	1	49421.79	-71.402	-1.084437E-009	0.0072466	6
	44	16	39.72458	18616.19	-56524.68	1	59511.36	-71.7709	2.463997E-010	0.0072363	6
	45	16	31.6723	22444.47	-68442.27	1	72028.46	-71.84399	2.879068E-010	0.0072355	6
	46	16	24.93351	27966.88	-83849.54	1	88390.56	-71.55458	-4.582188E-010	0.0072323	6
	47	17	19.86229	34718.77	-101253.3	1	107040.3	-71.07366	-1.569881E-009	0.007232	5
	48	17	15.83615	42994.96	-120002	1	127471.8	-70.28814	-1.218034E-009	0.0072391	5
	49	17	12.40079	54859.49	-145893.7	1	155867	-69.39255	2.108533E-009	0.0072474	5
	50	18	9.93114	70751.34	-173914.2	1	187754.9	-67.86265	4.457553E-010	0.0072434	5
	51	18	7.944915	88622.15	-205000.5	1	223336.3	-66.62107	-6.324603E-010	0.007258	5
	52	19	6.317385	112725.6	-239601.6	1	264794.3	-64.80437	-4.293184E-010	0.0072472	5
	53	20	5.008013	142677.5	-278897.6	1	313274.3	-62.90678	2.737685E-010	0.0072433	5
	54	21	3.945707	179263.2	-324549.1	1	370766	-61.08614	-2.952319E-010	0.0072312	5
	55	22	3.158693	219987	-367938.3	1	428687.3	-59.12518	1.103509E-010	0.0072334	5
	56	36	2.504006	269179.5	-419443.1	1	498387.5	-57.30949	-3.465627E-010	0.0072259	5
	57	38	1.998082	322364.2	-468686.1	1	568845.6	-55.47965	1.148919E-010	0.0072679	5
	58	39	1.584686	380639.8	-526695.8	1	649842.4	-54.1446	2.17647E-010	0.0072742	5
	59	41	1.266892	439801.2	-585771.8	1	732498.3	-53.10055	9.937156E-011	0.0072347	5
	60	44	0.999041	505692.4	-655757.3	1	828095.6	-52.3621	-1.447736E-010	0.0072053	5
