EXPLAIN
TAG	EISPOT
TITLE	LABEL	Potentiostatic EIS	Test &Identifier
DATE	LABEL	9/20/2019	Date
TIME	LABEL	9:50:38	Time
NOTES	NOTES	1	&Notes...
	
PSTAT	PSTAT	REF600-11020	Potentiostat
VDC	POTEN	0.00000E+000	T	DC &Voltage (V)
FREQINIT	QUANT	1.00000E+006	Initial Fre&q. (Hz)
FREQFINAL	QUANT	1.00000E+000	Final Fre&q. (Hz)
PTSPERDEC	QUANT	1.00000E+001	Points/&decade
VAC	QUANT	2.50000E+001	AC &Voltage (mV rms)
AREA	QUANT	1.00000E-002	&Area (cm^2)
CONDIT	TWOPARAM	T	5.00000E+000	0.00000E+000	Conditionin&g	Time(s)	E(V)
DELAY	TWOPARAM	T	5.00000E+000	0.00000E+000	Init. De&lay	Time(s)	Stab.(mV/s)
SPEED	SELECTOR	1	&Optimize for:
ZGUESS	QUANT	1.00000E+004	E&stimated Z (ohms)
OCVCURVE	TABLE	19
	Pt	T	Vf	Vm	Ach	Over
	#	s	V vs. Ref.	V	V	bits
	0	0.258333	1.04343E-001	1.04343E-001	5.72566E-004	...........
	1	0.516667	1.04454E-001	1.10114E-001	5.73866E-004	...........
	2	0.775	1.05122E-001	1.15110E-001	5.76499E-004	...........
	3	1.03333	1.06973E-001	1.19497E-001	5.79699E-004	...........
	4	1.29167	1.10187E-001	1.23384E-001	5.76466E-004	...........
	5	1.55	1.14284E-001	1.26849E-001	5.79032E-004	...........
	6	1.80833	1.18584E-001	1.29960E-001	5.78899E-004	...........
	7	2.06667	1.22632E-001	1.32761E-001	5.75899E-004	...........
	8	2.325	1.26264E-001	1.35308E-001	5.75265E-004	...........
	9	2.58333	1.29486E-001	1.37641E-001	5.77532E-004	...........
	10	2.84167	1.32363E-001	1.39791E-001	5.77732E-004	...........
	11	3.1	1.34961E-001	1.41777E-001	5.76499E-004	...........
	12	3.35833	1.37331E-001	1.43617E-001	5.78532E-004	...........
	13	3.61667	1.39508E-001	1.45333E-001	5.77266E-004	...........
	14	3.875	1.41519E-001	1.46944E-001	5.79732E-004	...........
	15	4.13333	1.43384E-001	1.48447E-001	5.77932E-004	...........
	16	4.39167	1.45121E-001	1.49861E-001	5.79199E-004	...........
	17	4.65	1.46744E-001	1.51187E-001	5.71866E-004	...........
	18	4.90833	1.48263E-001	1.52446E-001	5.75432E-004	...........
EOC	QUANT	0.1482632	Open Circuit (V)
PSTATMODEL	IQUANT	4	Pstat Model
PSTATSECTION	LABEL	REF600-11020	Pstat Section
PSTATSERIALNO	LABEL	11020	Pstat Serial Number
CTRLMODE	IQUANT	1	Control Mode
IESTAB	IQUANT	0	I/E Stability
CASPEED	IQUANT	1	Control Amp Speed
CONVENTION	IQUANT	1	Current Convention
ICHRANGE	IQUANT	2	Ich Range
ICHRANGEMODE	TOGGLE	F	Ich Auto Range
ICHOFFSETENABLE	TOGGLE	T	Ich Offset Enable
ICHOFFSET	QUANT	0	Ich Offset (V)
ICHFILTER	IQUANT	3	Ich Filter
VCHRANGE	IQUANT	2	Vch Range
VCHRANGEMODE	TOGGLE	F	Vch Auto Range
VCHOFFSETENABLE	TOGGLE	T	Vch Offset Enable
VCHOFFSET	QUANT	0	Vch Offset (V)
VCHFILTER	IQUANT	3	Vch Filter
ACHRANGE	IQUANT	2	Ach Range
ACHOFFSETENABLE	TOGGLE	F	Ach Offset Enable
ACHOFFSET	QUANT	0	Ach Offset (V)
ACHFILTER	IQUANT	3	Ach Filter
IERANGELOWERLIMIT	IQUANT	1	I/E Range Lower Limit
IERANGEMODE	TOGGLE	F	I/E AutoRange
IERANGE	IQUANT	7	I/E Range
POSFEEDENABLE	TOGGLE	F	Positive Feedback IR Comp
POSFEEDRESISTANCE	QUANT	0	Positive Feedback Resistance (ohm)
ACHSELECT	IQUANT	0	Ach Select
CABLEID	IQUANT	14	Cable ID
DCCALDATE	LABEL	8/19/2019	DC Calibration Date
ACCALDATE	LABEL	8/19/2019	AC Calibration Date
THERMOSELECT	IQUANT	1	Thermo Select
FRAMEWORKVERSION	QUANT	6.33	Framework Version
INSTRUMENTVERSION	LABEL	3.50	Instrument Version
ZCURVE	TABLE
	Pt	Time	Freq	Zreal	Zimag	Zsig	Zmod	Zphz	Idc	Vdc	IERange
	#	s	Hz	ohm	ohm	V	ohm	°	A	V	#
	0	1	1000078	2080.753	-882.4129	1	2260.129	-22.981	-3.348704E-006	0.1509073	8
	1	3	794390.6	2209.112	-781.6271	1	2343.313	-19.48478	9.224596E-007	0.1500393	8
	2	4	630984.4	2315.242	-684.6999	1	2414.365	-16.47483	-5.981545E-007	0.1501379	8
	3	5	501234.4	2400.514	-600.9619	1	2474.596	-14.05496	-1.104756E-006	0.1501508	8
	4	7	398109.4	2456.731	-514.3264	1	2509.992	-11.82432	-1.273501E-007	0.1497917	8
	5	8	316265.6	2513.144	-456.5136	1	2554.27	-10.29554	2.079845E-006	0.1493876	8
	6	9	251203.1	2545.128	-408.5948	1	2577.718	-9.12044	-1.149834E-006	0.1500427	8
	7	11	199546.9	2582.267	-366.2224	1	2608.107	-8.071974	-1.903157E-007	0.1497701	8
	8	12	158578.1	2611.585	-341.3538	1	2633.8	-7.446771	1.340293E-006	0.149386	8
	9	13	125953.1	2659.31	-292.8335	1	2675.384	-6.283885	5.521375E-007	0.148612	7
	10	15	100078.1	2683.597	-281.7798	1	2698.35	-5.994136	-6.431902E-008	0.1498667	7
	11	16	79453.13	2712.427	-285.5011	1	2727.411	-6.008641	1.413535E-008	0.1496564	7
	12	17	63140.62	2743.019	-294.2801	1	2758.759	-6.123458	-6.568954E-008	0.1498987	7
	13	19	50203.12	2775.811	-305.6547	1	2792.588	-6.283733	-4.280664E-008	0.1498976	7
	14	20	39890.62	2814.035	-320.2436	1	2832.198	-6.49246	-5.526142E-008	0.1497915	7
	15	22	31640.63	2847.839	-342.1257	1	2868.316	-6.85041	-3.18645E-008	0.1497298	7
	16	23	25171.88	2887.573	-366.9763	1	2910.798	-7.242789	-3.478049E-008	0.149819	7
	17	24	20015.62	2930.602	-397.0977	1	2957.383	-7.716603	-6.037778E-008	0.1498184	7
	18	26	15890.62	2976.367	-431.3899	1	3007.468	-8.246929	4.400676E-008	0.1496241	7
	19	27	12609.37	3027.376	-475.2245	1	3064.448	-8.921245	3.770276E-008	0.1496547	7
	20	28	10078.13	3081.434	-521.4073	1	3125.236	-9.60401	-5.428319E-008	0.1497838	7
	21	30	8015.625	3139.318	-578.1232	1	3192.107	-10.43443	-2.869063E-008	0.1497327	7
	22	31	6328.125	3205.464	-646.1532	1	3269.94	-11.39688	-2.28055E-008	0.1497753	7
	23	32	5015.625	3274.914	-723.1046	1	3353.795	-12.45119	3.883105E-008	0.149656	7
	24	34	3984.375	3349.039	-811.7463	1	3446.011	-13.6247	-6.358916E-008	0.1498086	7
	25	35	3170.956	3428.01	-916.3437	1	3548.371	-14.96586	1.631703E-008	0.1496367	7
	26	36	2527.573	3510.831	-1037.719	1	3660.983	-16.46644	1.722034E-008	0.1496397	7
	27	38	1976.103	3603.713	-1197.892	1	3797.591	-18.38706	-4.29238E-008	0.1498986	7
	28	39	1577.524	3694.924	-1375.463	1	3942.634	-20.41816	-3.312874E-008	0.1497292	7
	29	40	1265.625	3786.457	-1587.437	1	4105.754	-22.74542	-5.847281E-008	0.1497817	7
	30	42	998.264	3895.455	-1864.828	1	4318.813	-25.58131	1.598058E-008	0.1496422	7
	31	43	796.875	4006.504	-2196.432	1	4569.068	-28.73228	-5.307677E-008	0.1497864	7
	32	44	627.7902	4136.191	-2635.066	1	4904.248	-32.50021	-3.706138E-008	0.1497439	7
	33	46	505.5147	4275.665	-3123.114	1	5294.823	-36.14586	1.639519E-008	0.149634	7
	34	47	397.9953	4460.127	-3791.954	1	5854.199	-40.37084	-1.782414E-008	0.1497868	7
	35	48	315.5048	4684.383	-4594.888	1	6561.741	-44.44742	-2.000656E-008	0.1497894	7
	36	50	252.4038	4957.881	-5536.005	1	7431.55	-48.15332	-1.96205E-008	0.1497886	7
	37	51	198.6229	5340.102	-6770.712	1	8623.18	-51.73694	-1.951775E-008	0.1497904	7
	38	53	158.3615	5813.625	-8186.321	1	10040.62	-54.61903	-2.002501E-008	0.1497881	7
	39	54	125.558	6457.051	-9926.53	1	11841.85	-56.95664	-2.369477E-008	0.1497252	6
	40	55	100.4464	7268.183	-11915.73	1	13957.47	-58.61825	-2.258845E-008	0.1497285	6
	41	57	79.00281	8417.702	-14446.43	1	16719.96	-59.77134	-2.34849E-008	0.1497233	6
	42	58	63.3446	9849.52	-17180.37	1	19803.49	-60.17432	-2.325597E-008	0.1497211	6
	43	59	49.86702	11603.44	-20526.47	1	23579.14	-60.52089	-2.283288E-008	0.1497213	6
	44	61	39.72458	13960.38	-24130.01	1	27877.41	-59.94854	-2.447178E-008	0.1497263	6
	45	62	31.6723	16808.7	-28189.96	1	32820.82	-59.19384	-2.356207E-008	0.1497162	6
	46	64	24.93351	20516.96	-32840.18	1	38722.38	-58.00485	-2.375263E-008	0.1497144	6
	47	65	19.86229	24691	-37660.51	1	45032.87	-56.75033	-2.52883E-008	0.149714	6
	48	66	15.83615	29757.7	-42850.18	1	52169.52	-55.2216	-2.092641E-008	0.1497103	6
	49	68	12.40079	35718.33	-48799.25	1	60474.5	-53.79795	-2.506431E-008	0.1497226	6
	50	69	9.93114	41887.97	-54551.97	1	68778.77	-52.48099	-2.484927E-008	0.1497286	6
	51	71	7.944915	48770.77	-60779.54	1	77927.79	-51.25572	-2.176685E-008	0.1497253	6
	52	72	6.317385	56318.27	-67732.87	1	88087.96	-50.25728	-2.183106E-008	0.1497291	6
	53	74	5.008013	65114.14	-75745.47	1	99886.1	-49.31619	-2.423659E-008	0.1497099	6
	54	77	3.945707	74841.66	-84644.66	1	112986.7	-48.51733	-2.259395E-008	0.1497381	5
	55	79	3.158693	84967.34	-94320.55	1	126948.1	-47.98634	-2.409414E-008	0.1497246	5
	56	82	2.504006	96715.8	-105479.6	1	143108	-47.48183	-2.168697E-008	0.1497337	5
	57	85	1.998082	109519	-117839.3	1	160874.3	-47.09584	-2.306195E-008	0.1497774	5
	58	88	1.584686	124022.6	-132440.4	1	181444.4	-46.87994	-2.253745E-008	0.1497487	5
	59	92	1.266892	140620.2	-147819.4	1	204021.1	-46.42974	-2.313707E-008	0.1497831	5
	60	96	0.999041	160248.8	-166371.7	1	230996.1	-46.07397	-2.275368E-008	0.1497058	5
