EXPLAIN
TAG	EISPOT
TITLE	LABEL	Potentiostatic EIS	Test &Identifier
DATE	LABEL	10/22/2019	Date
TIME	LABEL	9:36:44	Time
NOTES	NOTES	1	&Notes...
	
PSTAT	PSTAT	REF600-11020	Potentiostat
VDC	POTEN	0.00000E+000	T	DC &Voltage (V)
FREQINIT	QUANT	1.00000E+006	Initial Fre&q. (Hz)
FREQFINAL	QUANT	1.00000E+000	Final Fre&q. (Hz)
PTSPERDEC	QUANT	1.00000E+001	Points/&decade
VAC	QUANT	2.50000E+001	AC &Voltage (mV rms)
AREA	QUANT	1.00000E-002	&Area (cm^2)
CONDIT	TWOPARAM	T	5.00000E+000	0.00000E+000	Conditionin&g	Time(s)	E(V)
DELAY	TWOPARAM	T	5.00000E+000	0.00000E+000	Init. De&lay	Time(s)	Stab.(mV/s)
SPEED	SELECTOR	1	&Optimize for:
ZGUESS	QUANT	1.00000E+005	E&stimated Z (ohms)
OCVCURVE	TABLE	19
	Pt	T	Vf	Vm	Ach	Over
	#	s	V vs. Ref.	V	V	bits
	0	0.258333	6.94022E-003	6.94022E-003	5.53966E-004	...........
	1	0.516667	6.93225E-003	6.52283E-003	5.50833E-004	...........
	2	0.775	6.88396E-003	6.16281E-003	5.52399E-004	...........
	3	1.03333	6.75024E-003	5.84905E-003	5.48399E-004	...........
	4	1.29167	6.51851E-003	5.57348E-003	5.55066E-004	...........
	5	1.55	6.22392E-003	5.32487E-003	5.50766E-004	...........
	6	1.80833	5.91582E-003	5.10816E-003	5.54299E-004	...........
	7	2.06667	5.62684E-003	4.90785E-003	5.52133E-004	...........
	8	2.325	5.36858E-003	4.72839E-003	5.52232E-004	...........
	9	2.58333	5.14020E-003	4.56585E-003	5.54099E-004	...........
	10	2.84167	4.93686E-003	4.41554E-003	5.57099E-004	...........
	11	3.1	4.75382E-003	4.27407E-003	5.56499E-004	...........
	12	3.35833	4.58731E-003	4.14753E-003	5.57266E-004	...........
	13	3.61667	4.43449E-003	4.02409E-003	5.56999E-004	...........
	14	3.875	4.29339E-003	3.91525E-003	5.54999E-004	...........
	15	4.13333	4.16263E-003	3.80956E-003	5.57699E-004	...........
	16	4.39167	4.04112E-003	3.70684E-003	5.57666E-004	...........
	17	4.65	3.92764E-003	3.61698E-003	5.52966E-004	...........
	18	4.90833	3.82121E-003	3.53099E-003	5.57732E-004	...........
EOC	QUANT	0.0038212	Open Circuit (V)
PSTATMODEL	IQUANT	4	Pstat Model
PSTATSECTION	LABEL	REF600-11020	Pstat Section
PSTATSERIALNO	LABEL	11020	Pstat Serial Number
CTRLMODE	IQUANT	1	Control Mode
IESTAB	IQUANT	0	I/E Stability
CASPEED	IQUANT	1	Control Amp Speed
CONVENTION	IQUANT	1	Current Convention
ICHRANGE	IQUANT	2	Ich Range
ICHRANGEMODE	TOGGLE	F	Ich Auto Range
ICHOFFSETENABLE	TOGGLE	T	Ich Offset Enable
ICHOFFSET	QUANT	0	Ich Offset (V)
ICHFILTER	IQUANT	3	Ich Filter
VCHRANGE	IQUANT	2	Vch Range
VCHRANGEMODE	TOGGLE	F	Vch Auto Range
VCHOFFSETENABLE	TOGGLE	T	Vch Offset Enable
VCHOFFSET	QUANT	0	Vch Offset (V)
VCHFILTER	IQUANT	3	Vch Filter
ACHRANGE	IQUANT	2	Ach Range
ACHOFFSETENABLE	TOGGLE	F	Ach Offset Enable
ACHOFFSET	QUANT	0	Ach Offset (V)
ACHFILTER	IQUANT	3	Ach Filter
IERANGELOWERLIMIT	IQUANT	1	I/E Range Lower Limit
IERANGEMODE	TOGGLE	F	I/E AutoRange
IERANGE	IQUANT	4	I/E Range
POSFEEDENABLE	TOGGLE	F	Positive Feedback IR Comp
POSFEEDRESISTANCE	QUANT	0	Positive Feedback Resistance (ohm)
ACHSELECT	IQUANT	0	Ach Select
CABLEID	IQUANT	14	Cable ID
DCCALDATE	LABEL	8/19/2019	DC Calibration Date
ACCALDATE	LABEL	8/19/2019	AC Calibration Date
THERMOSELECT	IQUANT	1	Thermo Select
FRAMEWORKVERSION	QUANT	6.33	Framework Version
INSTRUMENTVERSION	LABEL	3.50	Instrument Version
ZCURVE	TABLE
	Pt	Time	Freq	Zreal	Zimag	Zsig	Zmod	Zphz	Idc	Vdc	IERange
	#	s	Hz	ohm	ohm	V	ohm	°	A	V	#
	0	2	1000078	2773.489	-1927.627	1	3377.572	-34.80003	-2.921437E-007	0.0065155	8
	1	3	794390.6	3143.663	-1891.595	1	3668.889	-31.03603	-3.751363E-006	0.0063482	8
	2	4	630984.4	3488.206	-1776.174	1	3914.38	-26.98493	-2.659481E-006	0.0061706	8
	3	6	501234.4	3793.048	-1616.084	1	4122.977	-23.07714	-2.921223E-006	0.006097	8
	4	7	398109.4	4024.4	-1463.929	1	4282.393	-19.98952	3.069884E-006	0.0047164	8
	5	9	316265.6	4205.308	-1321.353	1	4408.014	-17.44328	-3.22946E-006	0.0059804	8
	6	10	251203.1	4384.091	-1186.785	1	4541.884	-15.14709	-3.609241E-008	0.0054297	8
	7	12	199546.9	4517.147	-1045.239	1	4636.501	-13.02857	-3.047571E-006	0.0057543	8
	8	13	158578.1	4614.547	-947.4937	1	4710.816	-11.60314	-4.186791E-006	0.0062924	8
	9	15	125953.1	4705.931	-791.4482	1	4772.02	-9.54672	-4.098006E-007	0.0063775	7
	10	16	100078.1	4786.733	-771.769	1	4848.55	-9.159026	-4.106577E-008	0.005356	7
	11	18	79453.13	4857.482	-757.4999	1	4916.191	-8.863599	-5.016857E-008	0.0053059	7
	12	19	63140.62	4923.506	-755.8236	1	4981.183	-8.72753	-8.367939E-008	0.0054018	7
	13	20	50203.12	4995.31	-772.6496	1	5054.711	-8.792548	-3.368507E-008	0.005289	7
	14	22	39890.62	5069.449	-809.0214	1	5133.598	-9.067239	-4.36833E-008	0.0053473	7
	15	23	31640.63	5150.114	-861.5494	1	5221.68	-9.496925	1.268532E-008	0.0051875	7
	16	24	25171.88	5237.314	-929.1689	1	5319.099	-10.06035	-3.670577E-008	0.0052771	7
	17	26	20015.62	5326.07	-1026.045	1	5424.001	-10.9042	-3.038463E-008	0.0052671	7
	18	27	15890.62	5444.712	-1124.153	1	5559.551	-11.66577	-1.365734E-008	0.0052259	7
	19	28	12609.37	5565.889	-1255.098	1	5705.646	-12.70755	-1.007718E-008	0.0053999	7
	20	30	10078.13	5696.408	-1398.495	1	5865.565	-13.79357	4.311913E-008	0.0051237	7
	21	31	8015.625	5859.438	-1567.735	1	6065.542	-14.97904	-3.838415E-008	0.0053437	7
	22	33	6328.125	6024.227	-1785.098	1	6283.143	-16.5056	-5.735473E-008	0.005439	7
	23	34	5015.625	6220.745	-2025.574	1	6542.218	-18.03608	1.401877E-007	0.0050436	7
	24	35	3984.375	6401.181	-2322.107	1	6809.354	-19.93886	9.765109E-008	0.0051939	7
	25	37	3170.956	6695.299	-2611.754	1	7186.675	-21.31015	-3.155214E-008	0.0052845	7
	26	38	2527.573	6985.413	-2968.076	1	7589.827	-23.02046	-3.621931E-009	0.0052951	7
	27	39	1976.103	7338.024	-3408.635	1	8091.069	-24.91566	9.598617E-008	0.0051871	7
	28	41	1577.524	7760.331	-3984.929	1	8723.668	-27.18049	-1.99065E-008	0.0053153	7
	29	42	1265.625	8118.047	-4357.537	1	9213.621	-28.22564	6.457347E-008	0.0051533	7
	30	43	998.264	8598.229	-4948.08	1	9920.33	-29.91942	-1.166226E-009	0.0053099	6
	31	45	796.875	9081.805	-5588.833	1	10663.69	-31.60764	-8.438809E-009	0.0054086	6
	32	46	627.7902	9599.9	-6376.862	1	11524.86	-33.59463	6.913953E-009	0.0050484	6
	33	48	505.5147	10075.26	-7227.966	1	12399.78	-35.65555	-9.411449E-009	0.0054022	6
	34	49	397.9953	10580.62	-8378.924	1	13496.51	-38.37615	9.180035E-011	0.0052171	6
	35	50	315.5048	11062.82	-9787.25	1	14770.79	-41.4991	3.804988E-010	0.0052124	6
	36	52	252.4038	11535.45	-11492.17	1	16283.02	-44.89231	7.467043E-010	0.0052107	6
	37	53	198.6229	12069.25	-13811.44	1	18341.82	-48.85113	8.179926E-010	0.0052116	6
	38	54	158.3615	12634	-16575.75	1	20841.63	-52.68544	6.774362E-010	0.0052105	6
	39	56	125.558	13316.36	-20144.35	1	24147.88	-56.53342	8.010732E-010	0.005217	6
	40	57	100.4464	14141.73	-24399.08	1	28201.13	-59.90338	-1.611047E-010	0.0052184	6
	41	59	79.00281	15178.46	-30148.95	1	33754.18	-63.27708	2.279719E-010	0.0052139	6
	42	60	63.3446	16214.07	-36339.96	1	39793.08	-65.95465	4.326324E-010	0.0052129	6
	43	61	49.86702	18585.47	-45107.01	1	48785.88	-67.60683	-1.870526E-010	0.0052137	6
	44	63	39.72458	20658.4	-55217.09	1	58955.03	-69.48764	9.566451E-010	0.0052154	6
	45	64	31.6723	23387.24	-67462.16	1	71401.02	-70.88	7.700885E-010	0.0052119	6
	46	66	24.93351	27578.05	-83021.11	1	87481.73	-71.62449	6.214794E-010	0.0052173	6
	47	67	19.86229	32599.52	-100905.5	1	106040.8	-72.09592	3.037843E-010	0.0052176	5
	48	68	15.83615	38874.26	-122050.2	1	128091.6	-72.33278	3.377219E-012	0.0052217	5
	49	70	12.40079	48222.66	-151810.5	1	159285.5	-72.37753	1.073207E-009	0.0052232	5
	50	71	9.93114	58195.24	-181442.1	1	190546.3	-72.21702	1.261149E-010	0.0052245	5
	51	73	7.944915	71874.02	-217655	1	229215.2	-71.72575	3.877804E-010	0.0052222	5
	52	74	6.317385	89497.41	-261784.6	1	276660.3	-71.12576	6.82786E-011	0.005238	5
	53	76	5.008013	112130	-314657.3	1	334039.4	-70.38617	9.864271E-011	0.0052141	5
	54	79	3.945707	140896.6	-377586.7	1	403018	-69.53692	2.315659E-010	0.0052232	5
	55	82	3.158693	174552.8	-446757.5	1	479646.7	-68.65889	-5.127428E-013	0.0052166	5
	56	85	2.504006	217226.2	-529453.1	1	572282.9	-67.69244	2.685624E-010	0.0052189	5
	57	88	1.998082	266871.7	-621644.7	1	676507.7	-66.76618	8.929506E-011	0.0052631	5
	58	91	1.584686	325345.6	-730058.4	1	799271.6	-65.98018	7.742302E-011	0.0052156	5
	59	94	1.266892	395590.1	-853677.3	1	940880.6	-65.13721	8.851352E-011	0.0052589	5
	60	99	0.999041	482676.5	-1004977	1	1114879	-64.34566	3.040304E-011	0.0051783	4
