EXPLAIN
TAG	EISPOT
TITLE	LABEL	Potentiostatic EIS	Test &Identifier
DATE	LABEL	11/22/2019	Date
TIME	LABEL	0:08:34	Time
NOTES	NOTES	4	&Notes...
	
	
	
	
PSTAT	PSTAT	REF600-11020	Potentiostat
VDC	POTEN	0.00000E+000	T	DC &Voltage (V)
FREQINIT	QUANT	1.00000E+006	Initial Fre&q. (Hz)
FREQFINAL	QUANT	1.00000E+000	Final Fre&q. (Hz)
PTSPERDEC	QUANT	1.00000E+001	Points/&decade
VAC	QUANT	2.50000E+001	AC &Voltage (mV rms)
AREA	QUANT	1.00000E-002	&Area (cm^2)
CONDIT	TWOPARAM	T	5.00000E+000	0.00000E+000	Conditionin&g	Time(s)	E(V)
DELAY	TWOPARAM	T	5.00000E+000	0.00000E+000	Init. De&lay	Time(s)	Stab.(mV/s)
SPEED	SELECTOR	1	&Optimize for:
ZGUESS	QUANT	1.00000E+005	E&stimated Z (ohms)
OCVCURVE	TABLE	19
	Pt	T	Vf	Vm	Ach	Over
	#	s	V vs. Ref.	V	V	bits
	0	0.258333	8.97465E-003	8.97465E-003	5.67732E-004	...........
	1	0.516667	8.97293E-003	8.88456E-003	5.63899E-004	...........
	2	0.775	8.96291E-003	8.82792E-003	5.67466E-004	...........
	3	1.03333	8.93662E-003	8.78539E-003	5.63899E-004	...........
	4	1.29167	8.89441E-003	8.76081E-003	5.69066E-004	...........
	5	1.55	8.84644E-003	8.74601E-003	5.66999E-004	...........
	6	1.80833	8.80402E-003	8.74229E-003	5.62766E-004	...........
	7	2.06667	8.77326E-003	8.74518E-003	5.65299E-004	...........
	8	2.325	8.75507E-003	8.75333E-003	5.61099E-004	...........
	9	2.58333	8.74760E-003	8.76391E-003	5.61866E-004	...........
	10	2.84167	8.74823E-003	8.77819E-003	5.63366E-004	...........
	11	3.1	8.75469E-003	8.79884E-003	5.60066E-004	...........
	12	3.35833	8.76561E-003	8.81860E-003	5.63299E-004	...........
	13	3.61667	8.78029E-003	8.84098E-003	5.63099E-004	...........
	14	3.875	8.79804E-003	8.86322E-003	5.60132E-004	...........
	15	4.13333	8.81806E-003	8.88820E-003	5.69332E-004	...........
	16	4.39167	8.83968E-003	8.91163E-003	5.65499E-004	...........
	17	4.65	8.86253E-003	8.93934E-003	5.67899E-004	...........
	18	4.90833	8.88637E-003	8.96256E-003	5.70332E-004	...........
EOC	QUANT	0.0088864	Open Circuit (V)
PSTATMODEL	IQUANT	4	Pstat Model
PSTATSECTION	LABEL	REF600-11020	Pstat Section
PSTATSERIALNO	LABEL	11020	Pstat Serial Number
CTRLMODE	IQUANT	1	Control Mode
IESTAB	IQUANT	0	I/E Stability
CASPEED	IQUANT	1	Control Amp Speed
CONVENTION	IQUANT	1	Current Convention
ICHRANGE	IQUANT	2	Ich Range
ICHRANGEMODE	TOGGLE	F	Ich Auto Range
ICHOFFSETENABLE	TOGGLE	T	Ich Offset Enable
ICHOFFSET	QUANT	0	Ich Offset (V)
ICHFILTER	IQUANT	3	Ich Filter
VCHRANGE	IQUANT	2	Vch Range
VCHRANGEMODE	TOGGLE	F	Vch Auto Range
VCHOFFSETENABLE	TOGGLE	T	Vch Offset Enable
VCHOFFSET	QUANT	0	Vch Offset (V)
VCHFILTER	IQUANT	3	Vch Filter
ACHRANGE	IQUANT	2	Ach Range
ACHOFFSETENABLE	TOGGLE	F	Ach Offset Enable
ACHOFFSET	QUANT	0	Ach Offset (V)
ACHFILTER	IQUANT	3	Ach Filter
IERANGELOWERLIMIT	IQUANT	1	I/E Range Lower Limit
IERANGEMODE	TOGGLE	F	I/E AutoRange
IERANGE	IQUANT	5	I/E Range
POSFEEDENABLE	TOGGLE	F	Positive Feedback IR Comp
POSFEEDRESISTANCE	QUANT	0	Positive Feedback Resistance (ohm)
ACHSELECT	IQUANT	0	Ach Select
CABLEID	IQUANT	14	Cable ID
DCCALDATE	LABEL	8/19/2019	DC Calibration Date
ACCALDATE	LABEL	8/19/2019	AC Calibration Date
THERMOSELECT	IQUANT	1	Thermo Select
FRAMEWORKVERSION	QUANT	6.33	Framework Version
INSTRUMENTVERSION	LABEL	3.50	Instrument Version
ZCURVE	TABLE
	Pt	Time	Freq	Zreal	Zimag	Zsig	Zmod	Zphz	Idc	Vdc	IERange
	#	s	Hz	ohm	ohm	V	ohm	°	A	V	#
	0	1	1000078	2017.585	-1494.96	1	2511.087	-36.53716	-2.126466E-006	0.0109091	8
	1	2	794390.6	2324.094	-1461.679	1	2745.527	-32.16678	7.086367E-007	0.0104907	8
	2	4	630984.4	2589.816	-1397.382	1	2942.758	-28.34989	6.858464E-006	0.009898	8
	3	5	501234.4	2831.623	-1298.297	1	3115.07	-24.63141	-1.720005E-006	0.0103126	8
	4	7	398109.4	3039.2	-1184.659	1	3261.925	-21.2955	-6.138217E-006	0.0114711	8
	5	8	316265.6	3202.938	-1066.164	1	3375.725	-18.41108	-3.793718E-009	0.0109824	8
	6	9	251203.1	3329.448	-951.037	1	3462.614	-15.94168	-2.751255E-006	0.0110541	8
	7	11	199546.9	3446.093	-868.0483	1	3553.74	-14.1383	-5.861079E-006	0.0113696	8
	8	12	158578.1	3540.202	-768.9785	1	3622.756	-12.25503	6.672626E-008	0.0101954	8
	9	13	125953.1	3633.592	-682.7799	1	3697.185	-10.64222	3.978013E-006	0.0036883	7
	10	15	100078.1	3688.099	-662.0211	1	3747.045	-10.17633	-1.09001E-006	0.0120908	7
	11	16	79453.13	3748.627	-657.0383	1	3805.772	-9.9415	1.100691E-006	0.009312	7
	12	17	63140.62	3807.263	-661.928	1	3864.375	-9.86282	-3.159798E-007	0.0096288	7
	13	19	50203.12	3865.626	-682.4091	1	3925.398	-10.01143	-1.223985E-006	0.0119207	7
	14	20	39890.62	3929.278	-720.3997	1	3994.772	-10.38931	-8.845854E-007	0.0121356	7
	15	21	31640.63	4003.073	-775.7536	1	4077.547	-10.96738	4.739404E-007	0.0088079	7
	16	23	25171.88	4077.075	-845.8214	1	4163.887	-11.72021	1.058214E-007	0.0091145	7
	17	24	20015.62	4165.518	-933.66	1	4268.871	-12.63349	1.084714E-006	0.0089959	7
	18	25	15890.62	4251.226	-1041.707	1	4376.994	-13.7683	-1.216737E-006	0.0115586	7
	19	27	12609.37	4357.666	-1174.022	1	4513.045	-15.07834	-1.215801E-006	0.01156	7
	20	28	10078.13	4480.178	-1327.58	1	4672.736	-16.50577	7.697525E-007	0.0086988	7
	21	29	8015.625	4611.412	-1505.588	1	4850.971	-18.08143	-1.050972E-006	0.0109993	7
	22	31	6328.125	4767.307	-1724.178	1	5069.517	-19.88339	-8.849808E-007	0.0121441	7
	23	32	5015.625	4954.244	-1979.219	1	5334.964	-21.7767	7.704027E-007	0.0086961	7
	24	33	3984.375	5160.855	-2270.517	1	5638.233	-23.74708	6.248172E-007	0.0106551	7
	25	35	3170.956	5384.543	-2599.094	1	5979.013	-25.76638	-1.050263E-006	0.0110019	7
	26	36	2527.573	5653.538	-2985.115	1	6393.23	-27.83442	1.080639E-007	0.0091104	7
	27	38	1976.103	5984.59	-3469.442	1	6917.539	-30.10212	7.67696E-007	0.0086963	7
	28	39	1577.524	6311.583	-3970.145	1	7456.415	-32.17093	1.021467E-006	0.0097322	7
	29	40	1265.625	6712.61	-4552.923	1	8110.995	-34.14764	1.079623E-007	0.0091154	7
	30	42	998.264	7192.325	-5279.626	1	8922.106	-36.28105	9.110521E-008	0.0114085	7
	31	43	796.875	7709.635	-6060.738	1	9806.68	-38.17178	-5.19659E-008	0.0127153	6
	32	45	627.7902	8332.297	-7029.817	1	10901.63	-40.15376	-1.075834E-007	0.0131402	6
	33	46	505.5147	8972.384	-8034.921	1	12044.24	-41.84498	-1.530986E-007	0.0108851	6
	34	47	397.9953	9762.98	-9313.198	1	13492.64	-43.64932	-3.052966E-010	0.0104359	6
	35	49	315.5048	10587.54	-10751.06	1	15089.11	-45.43907	7.919884E-011	0.0104251	6
	36	50	252.4038	11422.7	-12375.17	1	16841.11	-47.29195	1.226842E-009	0.0104237	6
	37	51	198.6229	12346.95	-14468.74	1	19020.82	-49.5241	9.03554E-010	0.010422	6
	38	53	158.3615	13240.66	-16901.38	1	21470.26	-51.9246	5.58886E-010	0.0104266	6
	39	54	125.558	14202.09	-19990.81	1	24522.07	-54.60883	8.149604E-010	0.0104162	6
	40	55	100.4464	15157.45	-23667.29	1	28104.96	-57.36292	1.160939E-009	0.0104153	6
	41	57	79.00281	16359.25	-28604.07	1	32951.75	-60.23388	2.842311E-010	0.0104176	6
	42	58	63.3446	17310.69	-34348.88	1	38464.34	-63.25342	9.492624E-010	0.0104116	6
	43	60	49.86702	19469.14	-41892.8	1	46195.82	-65.07396	1.255317E-009	0.0104093	6
	44	61	39.72458	21367.52	-51192.63	1	55473.02	-67.34461	6.390271E-010	0.0104275	6
	45	62	31.6723	23959.27	-62228.06	1	66681.16	-68.94212	1.570164E-010	0.0104277	6
	46	64	24.93351	27434.88	-76770.41	1	81525.26	-70.33501	-4.938652E-011	0.0104327	6
	47	65	19.86229	31903.69	-93393.04	1	98692	-71.13949	6.796367E-010	0.010417	6
	48	66	15.83615	37323.3	-113020.2	1	119023.5	-71.72494	-3.849557E-010	0.0104375	5
	49	68	12.40079	46888.47	-139418.8	1	147092.2	-71.41149	1.216729E-009	0.0104316	5
	50	69	9.93114	55794.51	-169045.3	1	178015	-71.73419	2.105715E-010	0.0104278	5
	51	71	7.944915	69198.78	-202959.9	1	214432.2	-71.17329	8.421834E-011	0.0104243	5
	52	72	6.317385	85776.54	-244289.1	1	258910.7	-70.65244	-1.91999E-010	0.0104348	5
	53	74	5.008013	108157.7	-293767.5	1	313045.4	-69.78757	-1.902426E-011	0.0104129	5
	54	77	3.945707	137523.9	-352778.4	1	378636.3	-68.70263	2.235911E-010	0.0104305	5
	55	80	3.158693	172471.1	-416129.8	1	450455.7	-67.48772	-8.630147E-012	0.0104268	5
	56	83	2.504006	217398.6	-491164.5	1	537126.4	-66.12492	2.60055E-010	0.0104185	5
	57	86	1.998082	270218	-572293.2	1	632880.1	-64.72486	-3.876432E-011	0.0104613	5
	58	89	1.584686	334434.4	-667602.3	1	746685.5	-63.39149	1.152228E-010	0.0104567	5
	59	92	1.266892	409068.6	-767647.5	1	869838.9	-61.94747	-6.822198E-011	0.010463	5
	60	97	0.999041	498434.7	-887900.4	1	1018236	-60.69174	1.40379E-010	0.0104141	5
