EXPLAIN
TAG	EISPOT
TITLE	LABEL	Potentiostatic EIS	Test &Identifier
DATE	LABEL	9/26/2019	Date
TIME	LABEL	11:06:58	Time
NOTES	NOTES	2	&Notes...
	
	
PSTAT	PSTAT	REF600-11020	Potentiostat
VDC	POTEN	0.00000E+000	T	DC &Voltage (V)
FREQINIT	QUANT	1.00000E+006	Initial Fre&q. (Hz)
FREQFINAL	QUANT	1.00000E+000	Final Fre&q. (Hz)
PTSPERDEC	QUANT	1.00000E+001	Points/&decade
VAC	QUANT	2.50000E+001	AC &Voltage (mV rms)
AREA	QUANT	1.00000E-002	&Area (cm^2)
CONDIT	TWOPARAM	T	5.00000E+000	0.00000E+000	Conditionin&g	Time(s)	E(V)
DELAY	TWOPARAM	T	5.00000E+000	0.00000E+000	Init. De&lay	Time(s)	Stab.(mV/s)
SPEED	SELECTOR	1	&Optimize for:
ZGUESS	QUANT	1.00000E+004	E&stimated Z (ohms)
OCVCURVE	TABLE	19
	Pt	T	Vf	Vm	Ach	Over
	#	s	V vs. Ref.	V	V	bits
	0	0.258333	3.81108E-002	3.81108E-002	5.79512E-004	...........
	1	0.516667	3.81563E-002	4.04927E-002	5.79146E-004	...........
	2	0.775	3.84350E-002	4.27157E-002	5.82279E-004	...........
	3	1.03333	3.92200E-002	4.47781E-002	5.76379E-004	...........
	4	1.29167	4.06132E-002	4.67008E-002	5.78812E-004	...........
	5	1.55	4.24391E-002	4.82875E-002	5.84546E-004	...........
	6	1.80833	4.44145E-002	5.00552E-002	5.81746E-004	...........
	7	2.06667	4.66109E-002	6.57989E-002	5.84812E-004	...........
	8	2.325	4.97754E-002	6.47200E-002	5.79579E-004	...........
	9	2.58333	5.42856E-002	6.33591E-002	5.86479E-004	...........
	10	2.84167	5.89418E-002	6.28631E-002	5.82212E-004	...........
	11	3.1	6.20839E-002	6.28593E-002	5.88979E-004	...........
	12	3.35833	6.33378E-002	6.29300E-002	5.82812E-004	...........
	13	3.61667	6.34824E-002	6.47590E-002	5.82846E-004	...........
	14	3.875	6.34455E-002	6.56546E-002	5.80212E-004	...........
	15	4.13333	6.37601E-002	6.65247E-002	5.76079E-004	...........
	16	4.39167	6.44857E-002	6.74749E-002	5.78846E-004	...........
	17	4.65	6.54287E-002	6.83850E-002	5.77479E-004	...........
	18	4.90833	6.64146E-002	6.92722E-002	5.81046E-004	...........
EOC	QUANT	0.0664146	Open Circuit (V)
PSTATMODEL	IQUANT	4	Pstat Model
PSTATSECTION	LABEL	REF600-11020	Pstat Section
PSTATSERIALNO	LABEL	11020	Pstat Serial Number
CTRLMODE	IQUANT	1	Control Mode
IESTAB	IQUANT	0	I/E Stability
CASPEED	IQUANT	1	Control Amp Speed
CONVENTION	IQUANT	1	Current Convention
ICHRANGE	IQUANT	2	Ich Range
ICHRANGEMODE	TOGGLE	F	Ich Auto Range
ICHOFFSETENABLE	TOGGLE	T	Ich Offset Enable
ICHOFFSET	QUANT	0	Ich Offset (V)
ICHFILTER	IQUANT	3	Ich Filter
VCHRANGE	IQUANT	2	Vch Range
VCHRANGEMODE	TOGGLE	F	Vch Auto Range
VCHOFFSETENABLE	TOGGLE	T	Vch Offset Enable
VCHOFFSET	QUANT	0	Vch Offset (V)
VCHFILTER	IQUANT	3	Vch Filter
ACHRANGE	IQUANT	2	Ach Range
ACHOFFSETENABLE	TOGGLE	F	Ach Offset Enable
ACHOFFSET	QUANT	0	Ach Offset (V)
ACHFILTER	IQUANT	1	Ach Filter
IERANGELOWERLIMIT	IQUANT	1	I/E Range Lower Limit
IERANGEMODE	TOGGLE	F	I/E AutoRange
IERANGE	IQUANT	7	I/E Range
POSFEEDENABLE	TOGGLE	F	Positive Feedback IR Comp
POSFEEDRESISTANCE	QUANT	0	Positive Feedback Resistance (ohm)
ACHSELECT	IQUANT	0	Ach Select
CABLEID	IQUANT	14	Cable ID
DCCALDATE	LABEL	8/19/2019	DC Calibration Date
ACCALDATE	LABEL	8/19/2019	AC Calibration Date
THERMOSELECT	IQUANT	1	Thermo Select
FRAMEWORKVERSION	QUANT	6.33	Framework Version
INSTRUMENTVERSION	LABEL	3.50	Instrument Version
ZCURVE	TABLE
	Pt	Time	Freq	Zreal	Zimag	Zsig	Zmod	Zphz	Idc	Vdc	IERange
	#	s	Hz	ohm	ohm	V	ohm	°	A	V	#
	0	1	1000078	1913.52	-2300.43	1	2992.246	-50.24599	1.109725E-006	0.0689084	8
	1	3	794390.6	2274.512	-2539.445	1	3409.133	-48.15005	-2.08353E-007	0.0685432	8
	2	4	630984.4	2702.576	-2750.331	1	3855.935	-45.50176	2.014561E-007	0.0683697	8
	3	6	501234.4	3239.892	-2961.874	1	4389.715	-42.43321	-1.107209E-006	0.0685746	8
	4	7	398109.4	3784.38	-3120.438	1	4904.963	-39.50753	8.470401E-007	0.0682028	8
	5	9	316265.6	4409.969	-3212.494	1	5456.001	-36.07191	-1.044001E-006	0.0684399	8
	6	10	251203.1	5050.955	-3182.536	1	5969.981	-32.21445	-3.96909E-008	0.0682298	8
	7	12	199546.9	5630.257	-3048.621	1	6402.646	-28.43427	1.753191E-006	0.0677337	8
	8	14	158578.1	6221.26	-2894.386	1	6861.6	-24.94979	3.729085E-006	0.0674895	8
	9	16	125953.1	6707.699	-2556.059	1	7178.208	-20.86002	5.900899E-007	0.0662584	7
	10	17	100078.1	7134.329	-2333.966	1	7506.4	-18.11529	-2.926396E-008	0.0681446	7
	11	19	79453.13	7464.487	-2098.624	1	7753.888	-15.70321	8.893078E-008	0.0678704	7
	12	20	63140.62	7717.66	-1863.027	1	7939.342	-13.57144	-8.487527E-008	0.0681907	7
	13	22	50203.12	7950.472	-1657.671	1	8121.446	-11.77743	1.468776E-007	0.0678431	7
	14	24	39890.62	8118.787	-1475.78	1	8251.825	-10.30236	-8.516824E-009	0.0680732	7
	15	25	31640.63	8263.701	-1321.127	1	8368.64	-9.083076	-4.339945E-008	0.0680914	7
	16	27	25171.88	8377.178	-1202.224	1	8463.005	-8.166858	-4.646627E-008	0.0681401	7
	17	28	20015.62	8478.362	-1115.74	1	8551.462	-7.496957	-5.792453E-009	0.0679899	7
	18	30	15890.62	8571.721	-1056.989	1	8636.645	-7.029723	4.880735E-008	0.0678999	7
	19	31	12609.37	8660.477	-1028.619	1	8721.348	-6.773384	-9.00578E-009	0.0680707	7
	20	33	10078.13	8767.448	-926.0082	1	8816.215	-6.029164	-1.021917E-008	0.0681976	6
	21	35	8015.625	8845.961	-970.32	1	8899.02	-6.25979	-9.566445E-009	0.0680786	6
	22	36	6328.125	8918.69	-1038.945	1	8979	-6.644482	-1.411701E-011	0.0681181	6
	23	38	5015.625	8990.841	-1138.364	1	9062.62	-7.216034	-1.850452E-009	0.0679731	6
	24	39	3984.375	9075.734	-1274.474	1	9164.782	-7.99358	2.316061E-010	0.0680624	6
	25	41	3170.956	9154.467	-1447.999	1	9268.277	-8.98824	7.942277E-009	0.067981	6
	26	43	2527.573	9243.75	-1665.522	1	9392.597	-10.21386	2.302171E-009	0.0678632	6
	27	44	1976.103	9351.263	-1965.762	1	9555.64	-11.8715	7.328996E-009	0.0679745	6
	28	46	1577.524	9461.027	-2312.476	1	9739.54	-13.73501	1.740934E-009	0.0680102	6
	29	47	1265.625	9574.62	-2728.226	1	9955.73	-15.90456	-1.081544E-008	0.0681369	6
	30	49	998.264	9724.39	-3271.192	1	10259.84	-18.59245	-2.096727E-009	0.0679629	6
	31	50	796.875	9890.37	-3911.14	1	10635.62	-21.57629	-8.806346E-009	0.06801	6
	32	52	627.7902	10089.34	-4738.835	1	11146.81	-25.15885	-1.304639E-008	0.068064	6
	33	53	505.5147	10295.37	-5657.583	1	11747.46	-28.78998	1.767685E-008	0.067651	6
	34	54	397.9953	10578.72	-6912.269	1	12636.8	-33.16111	-9.465495E-010	0.0679976	6
	35	56	315.5048	10901.53	-8411.813	1	13769.6	-37.6544	-1.028448E-009	0.0679939	6
	36	57	252.4038	11273.86	-10177.49	1	15188.2	-42.07418	-3.065526E-010	0.0679969	6
	37	59	198.6229	11769.38	-12508.57	1	17175.05	-46.74394	-7.435227E-010	0.0679955	6
	38	60	158.3615	12355.19	-15217.16	1	19601.34	-50.92599	-7.772179E-010	0.0679936	6
	39	61	125.558	13089.28	-18616.43	1	22757.43	-54.88881	-8.486161E-010	0.0679946	6
	40	63	100.4464	13972.36	-22588.11	1	26560.3	-58.26025	-1.930522E-009	0.0679936	6
	41	64	79.00281	15302.7	-27915.15	1	31834.39	-61.26905	-6.406241E-010	0.0679965	6
	42	65	63.3446	16341.79	-33956.54	1	37684.22	-64.30053	-1.710451E-009	0.0679954	6
	43	67	49.86702	19058.85	-41423.66	1	45597.8	-65.29305	-2.165823E-009	0.0679951	6
	44	68	39.72458	21261	-50506.73	1	54799.27	-67.17115	-1.409281E-009	0.0679928	6
	45	70	31.6723	24314.8	-61448.55	1	66084.3	-68.41161	-3.626896E-010	0.0679882	6
	46	71	24.93351	28763.63	-74937.2	1	80267.87	-69.00138	-8.673353E-010	0.0679921	6
	47	72	19.86229	34015.45	-90698.59	1	96867.4	-69.44203	-1.188376E-009	0.0679962	6
	48	74	15.83615	40666.43	-109452.4	1	116763	-69.61774	-1.379172E-009	0.0679984	5
	49	75	12.40079	50109.01	-132495.5	1	141654.4	-69.28368	-1.311697E-009	0.0679993	5
	50	77	9.93114	61228.42	-159035.6	1	170414.9	-68.94338	-1.277961E-009	0.0679995	5
	51	78	7.944915	75065.69	-187506	1	201973.6	-68.18192	-2.248213E-009	0.0679949	5
	52	80	6.317385	92919.84	-224686.2	1	243141.9	-67.53227	-1.100694E-009	0.0679905	5
	53	82	5.008013	115758.4	-266868.3	1	290892.9	-66.55043	-1.3497E-009	0.0680089	5
	54	85	3.945707	144784.8	-317159.1	1	348643.8	-65.46306	-1.65009E-009	0.0679885	5
	55	87	3.158693	178557.9	-370720.6	1	411481.1	-64.28216	-1.874144E-009	0.0680135	5
	56	91	2.504006	223085.7	-443786.6	1	496702.9	-63.31192	-6.303961E-010	0.0679866	5
	57	93	1.998082	276696.5	-531208.8	1	598952.2	-62.48585	1.774965E-009	0.0679989	5
	58	96	1.584686	339180.8	-615051.3	1	702375.8	-61.12469	1.312944E-009	0.0680496	5
	59	100	1.266892	407036	-703664.2	1	812909.3	-59.95268	6.027531E-010	0.0680127	5
	60	104	0.999041	490685	-810395.9	1	947371.8	-58.8056	6.463082E-010	0.0680006	5
