EXPLAIN
TAG	EISPOT
TITLE	LABEL	Potentiostatic EIS	Test &Identifier
DATE	LABEL	10/26/2019	Date
TIME	LABEL	10:26:11	Time
NOTES	NOTES	1	&Notes...
	
PSTAT	PSTAT	REF600-11020	Potentiostat
VDC	POTEN	0.00000E+000	T	DC &Voltage (V)
FREQINIT	QUANT	1.00000E+006	Initial Fre&q. (Hz)
FREQFINAL	QUANT	1.00000E+000	Final Fre&q. (Hz)
PTSPERDEC	QUANT	1.00000E+001	Points/&decade
VAC	QUANT	2.50000E+001	AC &Voltage (mV rms)
AREA	QUANT	1.00000E-002	&Area (cm^2)
CONDIT	TWOPARAM	T	5.00000E+000	0.00000E+000	Conditionin&g	Time(s)	E(V)
DELAY	TWOPARAM	T	5.00000E+000	0.00000E+000	Init. De&lay	Time(s)	Stab.(mV/s)
SPEED	SELECTOR	0	&Optimize for:
ZGUESS	QUANT	1.00000E+005	E&stimated Z (ohms)
OCVCURVE	TABLE	19
	Pt	T	Vf	Vm	Ach	Over
	#	s	V vs. Ref.	V	V	bits
	0	0.258333	7.68708E-003	7.68708E-003	5.46099E-004	...........
	1	0.516667	7.68644E-003	7.65364E-003	5.48533E-004	...........
	2	0.775	7.68292E-003	7.64314E-003	5.43266E-004	...........
	3	1.03333	7.67445E-003	7.64023E-003	5.47466E-004	...........
	4	1.29167	7.66279E-003	7.65219E-003	5.46066E-004	...........
	5	1.55	7.65326E-003	7.66880E-003	5.46199E-004	...........
	6	1.80833	7.65077E-003	7.69279E-003	5.39966E-004	...........
	7	2.06667	7.65715E-003	7.71438E-003	5.44133E-004	...........
	8	2.325	7.67150E-003	7.74792E-003	5.49733E-004	...........
	9	2.58333	7.69194E-003	7.77710E-003	5.48433E-004	...........
	10	2.84167	7.71701E-003	7.81303E-003	5.50899E-004	...........
	11	3.1	7.74569E-003	7.84890E-003	5.50233E-004	...........
	12	3.35833	7.77718E-003	7.88148E-003	5.45966E-004	...........
	13	3.61667	7.81057E-003	7.91705E-003	5.42633E-004	...........
	14	3.875	7.84499E-003	7.95730E-003	5.47633E-004	...........
	15	4.13333	7.88021E-003	7.99479E-003	5.43166E-004	...........
	16	4.39167	7.91643E-003	8.02905E-003	5.39366E-004	...........
	17	4.65	7.95341E-003	8.06992E-003	5.44466E-004	...........
	18	4.90833	7.99063E-003	8.10130E-003	5.50333E-004	...........
EOC	QUANT	0.0079906	Open Circuit (V)
PSTATMODEL	IQUANT	4	Pstat Model
PSTATSECTION	LABEL	REF600-11020	Pstat Section
PSTATSERIALNO	LABEL	11020	Pstat Serial Number
CTRLMODE	IQUANT	1	Control Mode
IESTAB	IQUANT	0	I/E Stability
CASPEED	IQUANT	1	Control Amp Speed
CONVENTION	IQUANT	1	Current Convention
ICHRANGE	IQUANT	2	Ich Range
ICHRANGEMODE	TOGGLE	F	Ich Auto Range
ICHOFFSETENABLE	TOGGLE	T	Ich Offset Enable
ICHOFFSET	QUANT	0	Ich Offset (V)
ICHFILTER	IQUANT	3	Ich Filter
VCHRANGE	IQUANT	2	Vch Range
VCHRANGEMODE	TOGGLE	F	Vch Auto Range
VCHOFFSETENABLE	TOGGLE	T	Vch Offset Enable
VCHOFFSET	QUANT	0	Vch Offset (V)
VCHFILTER	IQUANT	3	Vch Filter
ACHRANGE	IQUANT	2	Ach Range
ACHOFFSETENABLE	TOGGLE	F	Ach Offset Enable
ACHOFFSET	QUANT	0	Ach Offset (V)
ACHFILTER	IQUANT	3	Ach Filter
IERANGELOWERLIMIT	IQUANT	1	I/E Range Lower Limit
IERANGEMODE	TOGGLE	F	I/E AutoRange
IERANGE	IQUANT	5	I/E Range
POSFEEDENABLE	TOGGLE	F	Positive Feedback IR Comp
POSFEEDRESISTANCE	QUANT	0	Positive Feedback Resistance (ohm)
ACHSELECT	IQUANT	0	Ach Select
CABLEID	IQUANT	14	Cable ID
DCCALDATE	LABEL	8/19/2019	DC Calibration Date
ACCALDATE	LABEL	8/19/2019	AC Calibration Date
THERMOSELECT	IQUANT	1	Thermo Select
FRAMEWORKVERSION	QUANT	6.33	Framework Version
INSTRUMENTVERSION	LABEL	3.50	Instrument Version
ZCURVE	TABLE
	Pt	Time	Freq	Zreal	Zimag	Zsig	Zmod	Zphz	Idc	Vdc	IERange
	#	s	Hz	ohm	ohm	V	ohm	°	A	V	#
	0	1	1000078	2139.869	-1301.025	1	2504.337	-31.2993	2.294356E-006	0.0098742	8
	1	2	794390.6	2381.865	-1231.143	1	2681.23	-27.33363	6.261124E-007	0.0096098	8
	2	2	630984.4	2584.216	-1136.701	1	2823.165	-23.74292	-1.026546E-006	0.0100722	8
	3	2	501234.4	2765.344	-1021.934	1	2948.131	-20.28182	-1.728479E-006	0.0100173	8
	4	3	398109.4	2903.275	-923.0521	1	3046.479	-17.63727	3.801226E-008	0.009569	8
	5	3	316265.6	3011.007	-819.1273	1	3120.438	-15.21869	-2.492654E-007	0.0096982	8
	6	3	251203.1	3105.293	-733.7145	1	3190.796	-13.29396	3.218394E-006	0.0089684	8
	7	4	199546.9	3167.493	-668.8489	1	3237.34	-11.92344	1.999851E-006	0.0091361	8
	8	4	158578.1	3243.875	-612.5703	1	3301.207	-10.69376	-1.380338E-007	0.009531	8
	9	4	125953.1	3314.362	-537.6006	1	3357.679	-9.213326	-4.5063E-007	0.0103151	7
	10	5	100078.1	3358.426	-513.8793	1	3397.513	-8.699466	-2.758734E-008	0.0095525	7
	11	5	79453.13	3406.358	-511.0749	1	3444.485	-8.532758	1.056589E-007	0.0093733	7
	12	5	63140.62	3458.147	-518.3469	1	3496.779	-8.524686	-4.556792E-008	0.0096695	7
	13	6	50203.12	3511.114	-534.201	1	3551.52	-8.650965	6.584469E-009	0.0094778	7
	14	6	39890.62	3566.301	-559.3212	1	3609.895	-8.913382	-3.431952E-008	0.0095651	7
	15	6	31640.63	3626.246	-594.6006	1	3674.672	-9.312001	-1.530285E-008	0.0095073	7
	16	7	25171.88	3688.031	-639.4077	1	3743.049	-9.83581	5.078581E-008	0.0094347	7
	17	7	20015.62	3755.259	-698.2064	1	3819.615	-10.5326	-7.276794E-009	0.00956	7
	18	7	15890.62	3829.315	-766.1289	1	3905.202	-11.31376	-4.282536E-008	0.0095707	7
	19	7	12609.37	3908.323	-849.0824	1	3999.491	-12.25703	4.926434E-009	0.0094627	7
	20	8	10078.13	3989.436	-945.7962	1	4100.016	-13.33718	6.710525E-008	0.0094744	7
	21	8	8015.625	4079.697	-1062.863	1	4215.875	-14.60238	-4.819955E-008	0.0096677	7
	22	8	6328.125	4182.767	-1206.373	1	4353.26	-16.08836	3.414915E-008	0.009408	7
	23	9	5015.625	4291.478	-1378.718	1	4507.51	-17.8106	-2.739671E-008	0.009526	7
	24	9	3984.375	4407.344	-1583.094	1	4683.041	-19.75802	2.049496E-009	0.0094807	7
	25	9	3170.956	4527.799	-1822.606	1	4880.866	-21.92661	-4.924031E-008	0.0095986	7
	26	10	2527.573	4656.733	-2113.29	1	5113.82	-24.4092	3.385538E-008	0.0094069	7
	27	10	1976.103	4813.501	-2502.809	1	5425.297	-27.47245	5.307207E-008	0.0094326	7
	28	10	1577.524	4974.146	-2939.511	1	5777.789	-30.5813	-4.24394E-008	0.0095761	7
	29	11	1265.625	5136.285	-3465.604	1	6196.115	-34.00871	9.642016E-008	0.0093752	7
	30	11	998.264	5342.721	-4158.121	1	6770.128	-37.89283	2.345522E-009	0.0096008	7
	31	11	796.875	5569.357	-4959.681	1	7457.625	-41.68603	-1.982194E-008	0.009505	7
	32	12	627.7902	5853.279	-6003.066	1	8384.371	-45.72381	-2.768234E-008	0.0095148	7
	33	12	505.5147	6142.648	-7157.088	1	9431.651	-49.3618	5.033575E-008	0.0094179	7
	34	12	397.9953	6543.665	-8721.724	1	10903.58	-53.12013	7.187365E-010	0.0094792	6
	35	13	315.5048	6998.912	-10587.39	1	12691.63	-56.53285	1.25198E-009	0.0094796	6
	36	13	252.4038	7527.95	-12774.3	1	14827.43	-59.48898	9.942012E-010	0.009474	6
	37	13	198.6229	8222.347	-15647.21	1	17676.03	-62.27882	5.598941E-011	0.0094767	6
	38	14	158.3615	9038.865	-18977.8	1	21020.42	-64.53218	8.006574E-010	0.0094741	6
	39	14	125.558	10063.49	-23139.26	1	25232.9	-66.49532	4.010153E-010	0.0094758	6
	40	14	100.4464	11244.69	-28053.47	1	30223.18	-68.15758	4.626395E-010	0.0094734	6
	41	15	79.00281	12851.33	-34415.57	1	36736.74	-69.52356	1.091624E-009	0.0094746	6
	42	15	63.3446	15569.07	-41564.13	1	44384.38	-69.46508	-3.086136E-011	0.0094702	6
	43	15	49.86702	18166.19	-51199.44	1	54326.73	-70.46469	6.219518E-011	0.0094706	6
	44	16	39.72458	21196.55	-61940.43	1	65466.87	-71.10861	5.204596E-010	0.009473	6
	45	16	31.6723	25591.27	-75059.43	1	79302.15	-71.17336	4.656074E-010	0.0094704	6
	46	16	24.93351	32339.96	-91569.91	1	97112.9	-70.54819	4.169238E-010	0.0094707	6
	47	17	19.86229	40628.72	-110052.9	1	117313	-69.73714	1.345773E-009	0.0094792	5
	48	17	15.83615	50486.09	-131276.5	1	140649.8	-68.96435	-2.796792E-010	0.0094745	5
	49	17	12.40079	64388.64	-157216.9	1	169891.3	-67.72831	-1.401676E-009	0.0094749	5
	50	18	9.93114	83915.38	-185209.1	1	203332.7	-65.62545	-4.075376E-010	0.0094762	5
	51	18	7.944915	104777.4	-215452.7	1	239579.1	-64.06574	3.210285E-010	0.0094661	5
	52	19	6.317385	131025.3	-248342.2	1	280787.2	-62.18388	1.143962E-010	0.0094687	5
	53	20	5.008013	161812.6	-285578.2	1	328235	-60.4635	-2.719248E-010	0.0094633	5
	54	21	3.945707	198707.1	-325358.2	1	381238	-58.58619	3.036061E-012	0.0094682	5
	55	22	3.158693	237193.9	-368280.7	1	438054.4	-57.21614	-1.641379E-010	0.0094715	5
	56	24	2.504006	280609.8	-416425.1	1	502147.1	-56.02577	-1.737913E-010	0.009462	5
	57	25	1.998082	326768	-467934.1	1	570736.1	-55.07261	7.796785E-011	0.0095083	5
	58	26	1.584686	375794.5	-529978.1	1	649690.9	-54.66048	3.572207E-011	0.009493	5
	59	28	1.266892	428011.1	-597621.9	1	735081.9	-54.39013	-3.402688E-011	0.0094512	5
	60	31	0.999041	489678.4	-683847.6	1	841090.1	-54.39493	-7.044833E-011	0.009429	5
