EXPLAIN
TAG	EISPOT
TITLE	LABEL	Potentiostatic IDE	Test &Identifier
DATE	LABEL	9/18/2019	Date
TIME	LABEL	9:47:36	Time
NOTES	NOTES	1	&Notes...
	
PSTAT	PSTAT	REF600-11020	Potentiostat
VDC	POTEN	0.00000E+000	T	DC &Voltage (V)
FREQINIT	QUANT	1.00000E+006	Initial Fre&q. (Hz)
FREQFINAL	QUANT	1.00000E+000	Final Fre&q. (Hz)
PTSPERDEC	QUANT	1.00000E+001	Points/&decade
VAC	QUANT	2.50000E+001	AC &Voltage (mV rms)
AREA	QUANT	1.00000E-002	&Area (cm^2)
CONDIT	TWOPARAM	T	5.00000E+000	0.00000E+000	Conditionin&g	Time(s)	E(V)
DELAY	TWOPARAM	T	5.00000E+000	0.00000E+000	Init. De&lay	Time(s)	Stab.(mV/s)
SPEED	SELECTOR	1	&Optimize for:
ZGUESS	QUANT	1.00000E+007	E&stimated Z (ohms)
OCVCURVE	TABLE	19
	Pt	T	Vf	Vm	Ach	Over
	#	s	V vs. Ref.	V	V	bits
	0	0.258333	6.85152E-003	6.85152E-003	6.36731E-004	...........
	1	0.516667	6.84374E-003	6.44452E-003	6.48131E-004	...........
	2	0.775	6.79878E-003	6.20441E-003	6.42531E-004	...........
	3	1.03333	6.68511E-003	6.19713E-003	6.37631E-004	...........
	4	1.29167	6.52044E-003	6.30558E-003	6.37331E-004	...........
	5	1.55	6.37271E-003	6.34870E-003	6.37098E-004	...........
	6	1.80833	6.29662E-003	6.40315E-003	6.38265E-004	...........
	7	2.06667	6.29424E-003	6.47031E-003	6.41131E-004	...........
	8	2.325	6.33547E-003	6.47930E-003	6.43931E-004	...........
	9	2.58333	6.38995E-003	6.51274E-003	6.40698E-004	...........
	10	2.84167	6.43903E-003	6.51444E-003	6.39031E-004	...........
	11	3.1	6.47624E-003	6.56670E-003	6.38398E-004	...........
	12	3.35833	6.50590E-003	6.65389E-003	6.32365E-004	...........
	13	3.61667	6.53676E-003	6.59645E-003	6.35565E-004	...........
	14	3.875	6.56870E-003	6.56261E-003	6.40664E-004	...........
	15	4.13333	6.59000E-003	6.58645E-003	6.36331E-004	...........
	16	4.39167	6.59678E-003	6.70251E-003	6.38898E-004	...........
	17	4.65	6.60404E-003	6.71244E-003	6.36765E-004	...........
	18	4.90833	6.62649E-003	6.70771E-003	6.35731E-004	...........
EOC	QUANT	0.0066265	Open Circuit (V)
PSTATMODEL	IQUANT	4	Pstat Model
PSTATSECTION	LABEL	REF600-11020	Pstat Section
PSTATSERIALNO	LABEL	11020	Pstat Serial Number
CTRLMODE	IQUANT	1	Control Mode
IESTAB	IQUANT	0	I/E Stability
CASPEED	IQUANT	1	Control Amp Speed
CONVENTION	IQUANT	1	Current Convention
ICHRANGE	IQUANT	2	Ich Range
ICHRANGEMODE	TOGGLE	F	Ich Auto Range
ICHOFFSETENABLE	TOGGLE	T	Ich Offset Enable
ICHOFFSET	QUANT	0	Ich Offset (V)
ICHFILTER	IQUANT	3	Ich Filter
VCHRANGE	IQUANT	2	Vch Range
VCHRANGEMODE	TOGGLE	F	Vch Auto Range
VCHOFFSETENABLE	TOGGLE	T	Vch Offset Enable
VCHOFFSET	QUANT	0	Vch Offset (V)
VCHFILTER	IQUANT	3	Vch Filter
ACHRANGE	IQUANT	2	Ach Range
ACHOFFSETENABLE	TOGGLE	F	Ach Offset Enable
ACHOFFSET	QUANT	0	Ach Offset (V)
ACHFILTER	IQUANT	3	Ach Filter
IERANGELOWERLIMIT	IQUANT	1	I/E Range Lower Limit
IERANGEMODE	TOGGLE	F	I/E AutoRange
IERANGE	IQUANT	3	I/E Range
POSFEEDENABLE	TOGGLE	F	Positive Feedback IR Comp
POSFEEDRESISTANCE	QUANT	0	Positive Feedback Resistance (ohm)
ACHSELECT	IQUANT	0	Ach Select
CABLEID	IQUANT	14	Cable ID
DCCALDATE	LABEL	8/19/2019	DC Calibration Date
ACCALDATE	LABEL	8/19/2019	AC Calibration Date
THERMOSELECT	IQUANT	1	Thermo Select
FRAMEWORKVERSION	QUANT	6.33	Framework Version
INSTRUMENTVERSION	LABEL	3.50	Instrument Version
ZCURVE	TABLE
	Pt	Time	Freq	Zreal	Zimag	Zsig	Zmod	Zphz	Idc	Vdc	IERange
	#	s	Hz	ohm	ohm	V	ohm	°	A	V	#
	0	2	1000078	2460.333	-1667.854	1	2972.369	-34.13326	5.181191E-006	0.0080946	8
	1	3	794390.6	2789.966	-1556.351	1	3194.705	-29.15447	-3.167025E-006	0.0091166	8
	2	5	630984.4	3063.073	-1412.436	1	3373.039	-24.75525	1.490076E-006	0.0084367	8
	3	6	501234.4	3293.512	-1249.97	1	3522.733	-20.783	5.421268E-007	0.0083157	8
	4	7	398109.4	3443.716	-1099.844	1	3615.085	-17.71229	-1.105742E-006	0.0087268	8
	5	9	316265.6	3582.898	-921.202	1	3699.428	-14.41905	3.642892E-006	0.0077309	8
	6	10	251203.1	3675.911	-802.1254	1	3762.41	-12.30963	-7.022528E-007	0.0085429	8
	7	11	199546.9	3730.246	-686.4624	1	3792.884	-10.42725	6.38653E-007	0.0082628	8
	8	13	158578.1	3800.931	-607.484	1	3849.171	-9.080503	3.066764E-006	0.0077067	8
	9	14	125953.1	3856.744	-509.2232	1	3890.217	-7.521511	-8.148902E-007	0.0097376	7
	10	15	100078.1	3888.835	-459.239	1	3915.858	-6.734962	5.27986E-008	0.0082489	7
	11	17	79453.13	3923.409	-429.9027	1	3946.892	-6.253168	-2.435099E-008	0.0083871	7
	12	18	63140.62	3956.41	-414.0189	1	3978.013	-5.973979	-6.340719E-009	0.0083702	7
	13	19	50203.12	3989.259	-407.2581	1	4009.993	-5.829056	-3.387417E-008	0.0083751	7
	14	21	39890.62	4024.413	-409.4497	1	4045.188	-5.809368	-3.971246E-008	0.0084513	7
	15	22	31640.63	4057.911	-427.7221	1	4080.39	-6.017017	5.524012E-010	0.0083929	7
	16	23	25171.88	4094.468	-453.2644	1	4119.48	-6.317017	5.518642E-008	0.0082357	7
	17	25	20015.62	4135.426	-489.6794	1	4164.316	-6.752999	-2.303674E-008	0.0083759	7
	18	26	15890.62	4177.536	-536.0651	1	4211.79	-7.312284	-1.352293E-008	0.008318	7
	19	27	12609.37	4225.21	-600.5538	1	4267.677	-8.089597	6.745059E-008	0.0082338	7
	20	29	10078.13	4273.343	-675.4202	1	4326.39	-8.981546	-3.82732E-008	0.0084435	7
	21	30	8015.625	4330.368	-766.1884	1	4397.628	-10.03371	5.287985E-008	0.0082929	7
	22	31	6328.125	4394.754	-884.3666	1	4482.853	-11.37781	-3.89936E-008	0.0083882	7
	23	33	5015.625	4464.632	-1024.182	1	4580.6	-12.92006	-2.471821E-008	0.0083696	7
	24	34	3984.375	4541.354	-1192.441	1	4695.297	-14.71227	7.156424E-009	0.0082841	7
	25	35	3170.956	4626.133	-1394.931	1	4831.867	-16.77978	5.413628E-008	0.0083016	7
	26	37	2527.573	4720.968	-1636.741	1	4996.645	-19.12123	1.960813E-008	0.0082646	7
	27	38	1976.103	4836.345	-1958.406	1	5217.814	-22.04475	5.806805E-008	0.0082382	7
	28	39	1577.524	4957.953	-2317.923	1	5473.031	-25.05685	5.353306E-008	0.0082953	7
	29	41	1265.625	5093.909	-2740.675	1	5784.394	-28.28158	4.491624E-008	0.0082393	7
	30	42	998.264	5257.64	-3299.346	1	6207.13	-32.10965	4.287992E-009	0.0084014	7
	31	43	796.875	5436.948	-3943.514	1	6716.525	-35.95404	-5.286227E-009	0.0083387	7
	32	45	627.7902	5656.032	-4773.772	1	7401.324	-40.16485	5.521715E-008	0.0082285	7
	33	46	505.5147	5890.715	-5691.684	1	8191.202	-44.01553	-3.380902E-008	0.0083555	7
	34	47	397.9953	6188.826	-6939.502	1	9298.293	-48.2726	5.292585E-009	0.008341	7
	35	49	315.5048	6533.813	-8424.331	1	10661.15	-52.20326	8.865891E-010	0.0082843	6
	36	50	252.4038	6925.537	-10170.3	1	12304.39	-55.74681	8.072262E-010	0.0082842	6
	37	51	198.6229	7427.844	-12471.07	1	14515.52	-59.22172	9.174254E-010	0.0082836	6
	38	53	158.3615	8000.167	-15146.67	1	17129.63	-62.15788	1.361011E-009	0.0082784	6
	39	54	125.558	8721.843	-18513.39	1	20465	-64.77441	9.363461E-010	0.0082847	6
	40	55	100.4464	9583.69	-22457.55	1	24416.98	-66.88978	8.716359E-010	0.008278	6
	41	57	79.00281	10728.34	-27752.25	1	29753.73	-68.86472	6.295864E-010	0.0082787	6
	42	58	63.3446	12163.38	-33443.72	1	35586.94	-70.01382	5.745233E-010	0.008276	6
	43	59	49.86702	13992.47	-41593.02	1	43883.58	-71.40634	9.119112E-010	0.0082716	6
	44	61	39.72458	16293.69	-50515.14	1	53077.91	-72.12286	1.324073E-009	0.0082795	6
	45	62	31.6723	19381.25	-61600.36	1	64577.38	-72.53492	1.055793E-009	0.0082705	6
	46	63	24.93351	23547.59	-75674.8	1	79253.8	-72.71552	7.639364E-010	0.0082821	6
	47	65	19.86229	29022.25	-91884.29	1	96358.8	-72.47094	1.054995E-009	0.0082772	6
	48	66	15.83615	35357.41	-110688	1	116198	-72.28481	9.949791E-010	0.0082842	5
	49	67	12.40079	46905.62	-135981.1	1	143843.6	-70.96853	1.557576E-009	0.0082855	5
	50	69	9.93114	58371.99	-162291.3	1	172469.6	-70.21765	9.681784E-010	0.0082878	5
	51	70	7.944915	74868.01	-191978.4	1	206060.5	-68.69514	-7.218957E-009	0.0082967	5
	52	72	6.317385	95636.1	-229350.8	1	248491.6	-67.36454	-9.870522E-010	0.0083055	5
	53	74	5.008013	122910	-270386	1	297010.9	-65.55478	1.572016E-010	0.0082918	5
	54	77	3.945707	158143.3	-316937	1	354201	-63.482	4.624011E-011	0.0082778	5
	55	79	3.158693	197584.7	-363343.7	1	413592	-61.46285	4.501828E-010	0.0083004	5
	56	83	2.504006	246288.1	-415966.6	1	483410.8	-59.37081	-1.620073E-010	0.0082816	5
	57	85	1.998082	300403.8	-468244.4	1	556323	-57.31767	6.964505E-011	0.0082441	5
	58	88	1.584686	360294.1	-524949.4	1	636697.5	-55.53661	-2.578246E-011	0.0083033	5
	59	92	1.266892	425997	-586904.7	1	725210.7	-54.02647	-3.394113E-011	0.0082374	5
	60	96	0.999041	496353.7	-652205	1	819596.4	-52.72744	1.137445E-010	0.0083214	5
