EXPLAIN
TAG	EISPOT
TITLE	LABEL	Potentiostatic EIS	Test &Identifier
DATE	LABEL	10/10/2019	Date
TIME	LABEL	10:09:29	Time
NOTES	NOTES	1	&Notes...
	
PSTAT	PSTAT	REF600-11020	Potentiostat
VDC	POTEN	0.00000E+000	T	DC &Voltage (V)
FREQINIT	QUANT	1.00000E+006	Initial Fre&q. (Hz)
FREQFINAL	QUANT	1.00000E+000	Final Fre&q. (Hz)
PTSPERDEC	QUANT	1.00000E+001	Points/&decade
VAC	QUANT	2.50000E+001	AC &Voltage (mV rms)
AREA	QUANT	1.00000E-002	&Area (cm^2)
CONDIT	TWOPARAM	T	5.00000E+000	0.00000E+000	Conditionin&g	Time(s)	E(V)
DELAY	TWOPARAM	T	5.00000E+000	0.00000E+000	Init. De&lay	Time(s)	Stab.(mV/s)
SPEED	SELECTOR	1	&Optimize for:
ZGUESS	QUANT	1.00000E+004	E&stimated Z (ohms)
OCVCURVE	TABLE	19
	Pt	T	Vf	Vm	Ach	Over
	#	s	V vs. Ref.	V	V	bits
	0	0.258333	4.92640E-003	4.92640E-003	5.71532E-004	...........
	1	0.516667	4.92255E-003	4.72475E-003	5.64066E-004	...........
	2	0.775	4.89979E-003	4.58043E-003	5.68032E-004	...........
	3	1.03333	4.83891E-003	4.47021E-003	5.67166E-004	...........
	4	1.29167	4.73635E-003	4.27217E-003	5.74765E-004	...........
	5	1.55	4.60542E-003	4.17750E-003	5.68099E-004	...........
	6	1.80833	4.46335E-003	4.09627E-003	5.65599E-004	...........
	7	2.06667	4.33239E-003	4.30845E-003	5.64199E-004	...........
	8	2.325	4.23990E-003	4.09418E-003	5.61832E-004	...........
	9	2.58333	4.18779E-003	3.83188E-003	5.70966E-004	...........
	10	2.84167	4.13567E-003	3.81194E-003	5.65899E-004	...........
	11	3.1	4.04927E-003	3.76648E-003	5.66932E-004	...........
	12	3.35833	3.94257E-003	3.73401E-003	5.62932E-004	...........
	13	3.61667	3.84869E-003	3.69237E-003	5.60132E-004	...........
	14	3.875	3.78087E-003	3.65756E-003	5.64299E-004	...........
	15	4.13333	3.73258E-003	3.60776E-003	5.60499E-004	...........
	16	4.39167	3.69263E-003	3.56657E-003	5.64799E-004	...........
	17	4.65	3.65355E-003	3.52887E-003	5.67566E-004	...........
	18	4.90833	3.61352E-003	3.50784E-003	5.61366E-004	...........
EOC	QUANT	0.0036135	Open Circuit (V)
PSTATMODEL	IQUANT	4	Pstat Model
PSTATSECTION	LABEL	REF600-11020	Pstat Section
PSTATSERIALNO	LABEL	11020	Pstat Serial Number
CTRLMODE	IQUANT	1	Control Mode
IESTAB	IQUANT	0	I/E Stability
CASPEED	IQUANT	1	Control Amp Speed
CONVENTION	IQUANT	1	Current Convention
ICHRANGE	IQUANT	2	Ich Range
ICHRANGEMODE	TOGGLE	F	Ich Auto Range
ICHOFFSETENABLE	TOGGLE	T	Ich Offset Enable
ICHOFFSET	QUANT	0	Ich Offset (V)
ICHFILTER	IQUANT	3	Ich Filter
VCHRANGE	IQUANT	2	Vch Range
VCHRANGEMODE	TOGGLE	F	Vch Auto Range
VCHOFFSETENABLE	TOGGLE	T	Vch Offset Enable
VCHOFFSET	QUANT	0	Vch Offset (V)
VCHFILTER	IQUANT	3	Vch Filter
ACHRANGE	IQUANT	2	Ach Range
ACHOFFSETENABLE	TOGGLE	F	Ach Offset Enable
ACHOFFSET	QUANT	0	Ach Offset (V)
ACHFILTER	IQUANT	3	Ach Filter
IERANGELOWERLIMIT	IQUANT	1	I/E Range Lower Limit
IERANGEMODE	TOGGLE	F	I/E AutoRange
IERANGE	IQUANT	5	I/E Range
POSFEEDENABLE	TOGGLE	F	Positive Feedback IR Comp
POSFEEDRESISTANCE	QUANT	0	Positive Feedback Resistance (ohm)
ACHSELECT	IQUANT	0	Ach Select
CABLEID	IQUANT	14	Cable ID
DCCALDATE	LABEL	8/19/2019	DC Calibration Date
ACCALDATE	LABEL	8/19/2019	AC Calibration Date
THERMOSELECT	IQUANT	1	Thermo Select
FRAMEWORKVERSION	QUANT	6.33	Framework Version
INSTRUMENTVERSION	LABEL	3.50	Instrument Version
ZCURVE	TABLE
	Pt	Time	Freq	Zreal	Zimag	Zsig	Zmod	Zphz	Idc	Vdc	IERange
	#	s	Hz	ohm	ohm	V	ohm	°	A	V	#
	0	1	1000078	2677.536	-2105.438	1	3406.181	-38.17918	-4.716805E-008	0.0056533	8
	1	3	794390.6	3086.703	-2062.083	1	3712.131	-33.74504	2.334731E-006	0.0046808	8
	2	4	630984.4	3487.324	-1926.436	1	3984.041	-28.91674	-6.036883E-006	0.0065437	8
	3	6	501234.4	3842.615	-1773.117	1	4231.978	-24.77025	-2.512088E-006	0.0056696	8
	4	7	398109.4	4115.422	-1584.4	1	4409.878	-21.05625	-2.843057E-007	0.0053097	8
	5	9	316265.6	4354.889	-1376.349	1	4567.208	-17.53897	4.34967E-006	0.0042724	8
	6	10	251203.1	4534.683	-1173.42	1	4684.043	-14.50795	1.654485E-006	0.0045285	8
	7	12	199546.9	4652.579	-1029.452	1	4765.109	-12.47652	1.257962E-006	0.0048115	8
	8	13	158578.1	4768.052	-889.0655	1	4850.233	-10.56225	-1.109066E-006	0.0054556	8
	9	15	125953.1	4845.701	-724.705	1	4899.594	-8.505899	6.94865E-007	0.0036056	7
	10	16	100078.1	4893.295	-629.2353	1	4933.586	-7.327528	9.835168E-008	0.0049903	7
	11	18	79453.13	4941.681	-572.0898	1	4974.686	-6.603636	-1.604049E-008	0.0050101	7
	12	19	63140.62	4985.914	-530.4097	1	5014.048	-6.072381	1.615767E-008	0.0049522	7
	13	20	50203.12	5024.903	-503.0459	1	5050.021	-5.716866	-1.541384E-008	0.0051979	7
	14	22	39890.62	5064.801	-491.2277	1	5088.567	-5.539708	-5.162032E-008	0.0051456	7
	15	23	31640.63	5104.777	-489.334	1	5128.177	-5.475531	-1.546384E-008	0.0051919	7
	16	24	25171.88	5145.392	-502.6664	1	5169.887	-5.579664	-1.328855E-008	0.0050016	7
	17	26	20015.62	5173.647	-504.0107	1	5198.139	-5.564131	-4.46725E-008	0.0050719	7
	18	27	15890.62	5232.068	-568.0326	1	5262.813	-6.196192	-1.346356E-008	0.0049925	7
	19	28	12609.37	5276.099	-621.5336	1	5312.582	-6.718577	4.812921E-008	0.0049898	7
	20	30	10078.13	5326.413	-686.4113	1	5370.459	-7.343198	8.9327E-008	0.0048584	7
	21	31	8015.625	5384.749	-769.585	1	5439.465	-8.133596	1.416363E-008	0.004964	7
	22	32	6328.125	5438.278	-883.7611	1	5509.619	-9.230306	-2.64804E-009	0.0050571	7
	23	34	5015.625	5499.811	-1021.44	1	5593.859	-10.52126	9.29228E-008	0.0048524	7
	24	35	3984.375	5564.362	-1177.356	1	5687.556	-11.94693	5.221882E-008	0.0048826	7
	25	36	3170.956	5643.643	-1394.172	1	5813.296	-13.87619	1.529817E-008	0.004958	7
	26	38	2527.573	5723.165	-1649.434	1	5956.11	-16.07715	-1.262283E-008	0.0049909	7
	27	39	1976.103	5826.929	-1987.393	1	6156.528	-18.83299	-3.621142E-009	0.0050554	7
	28	41	1577.524	6024.703	-2337.007	1	6462.093	-21.20148	-1.087183E-008	0.0049956	7
	29	42	1265.625	6060.876	-2813.974	1	6682.265	-24.90474	8.95506E-008	0.0048569	7
	30	43	998.264	6216.234	-3402.866	1	7086.682	-28.697	-2.927247E-009	0.0050777	7
	31	45	796.875	6392.388	-4093.386	1	7590.681	-32.63359	1.516839E-007	0.0048116	7
	32	46	627.7902	6605.501	-4978.5	1	8271.523	-37.00497	-4.437333E-008	0.0050639	7
	33	47	505.5147	6834.137	-5964.939	1	9071.159	-41.11495	-3.437565E-008	0.0050764	7
	34	49	397.9953	7136.132	-7288.867	1	10200.59	-45.60664	1.623886E-009	0.004998	6
	35	50	315.5048	7475.429	-8881.265	1	11608.57	-49.91242	4.077832E-010	0.0049967	6
	36	51	252.4038	7859.643	-10759.4	1	13324.36	-53.85221	7.801007E-010	0.0049928	6
	37	53	198.6229	8370.344	-13248.74	1	15671.37	-57.71595	9.416518E-010	0.0049938	6
	38	54	158.3615	8969.376	-16148.4	1	18472.15	-60.9507	5.437124E-010	0.0049892	6
	39	55	125.558	9747.68	-19808.54	1	22077.04	-63.79843	9.589093E-010	0.0049894	6
	40	57	100.4464	10689.99	-24148.22	1	26408.57	-66.12189	-4.969561E-011	0.0049899	6
	41	58	79.00281	12016.15	-29770.74	1	32104.28	-68.01987	-2.258266E-011	0.0049859	6
	42	59	63.3446	13408.59	-36499.17	1	38884.18	-69.82833	5.151428E-010	0.0049938	6
	43	61	49.86702	16010.35	-44322.57	1	47125.59	-70.13909	5.880439E-010	0.004991	6
	44	62	39.72458	19134.18	-54288.11	1	57561.41	-70.58468	6.153925E-010	0.0049937	6
	45	64	31.6723	22883.65	-65723.45	1	69593.34	-70.80286	9.848009E-010	0.004989	6
	46	65	24.93351	28506.3	-80336.75	1	85244.37	-70.46353	4.981217E-010	0.0049857	6
	47	66	19.86229	35397.04	-96579.9	1	102862.2	-69.87186	1.622725E-009	0.0049921	6
	48	68	15.83615	43328.87	-116681.4	1	124466.6	-69.62785	2.274088E-009	0.0049925	5
	49	69	12.40079	56575.67	-139950.9	1	150953.8	-67.98879	5.68789E-010	0.0049894	5
	50	71	9.93114	71668.8	-164584.1	1	179511.4	-66.46909	5.344247E-010	0.004993	5
	51	72	7.944915	90432.42	-191325.4	1	211621	-64.70164	6.963654E-010	0.0049986	5
	52	74	6.317385	112098.6	-223617.3	1	250141.6	-63.37556	-1.998125E-010	0.0050128	5
	53	76	5.008013	139989.2	-258537	1	294004.1	-61.56593	3.556806E-010	0.0050029	5
	54	78	3.945707	172982.8	-297644.5	1	344260.5	-59.83603	3.118123E-010	0.0049984	5
	55	81	3.158693	207491.7	-336976.8	1	395735	-58.37754	3.236099E-010	0.0050157	5
	56	84	2.504006	247879.1	-382999.3	1	456215.5	-57.08885	-1.637433E-010	0.0049867	5
	57	87	1.998082	289693.5	-431308.1	1	519566.2	-56.11222	3.23826E-012	0.0049514	5
	58	90	1.584686	335814.3	-486372.6	1	591041.1	-55.377	2.563457E-011	0.0050011	5
	59	94	1.266892	386247.4	-550339.9	1	672354.9	-54.9375	7.245569E-011	0.0049483	5
	60	98	0.999041	441471.7	-627360.2	1	767123.3	-54.86605	1.46966E-010	0.005037	5
