EXPLAIN
TAG	EISPOT
TITLE	LABEL	Potentiostatic IDE	Test &Identifier
DATE	LABEL	9/12/2019	Date
TIME	LABEL	10:16:24	Time
NOTES	NOTES	1	&Notes...
	
PSTAT	PSTAT	REF600-11020	Potentiostat
VDC	POTEN	0.00000E+000	T	DC &Voltage (V)
FREQINIT	QUANT	1.00000E+006	Initial Fre&q. (Hz)
FREQFINAL	QUANT	1.00000E+000	Final Fre&q. (Hz)
PTSPERDEC	QUANT	1.00000E+001	Points/&decade
VAC	QUANT	2.50000E+001	AC &Voltage (mV rms)
AREA	QUANT	1.00000E-002	&Area (cm^2)
CONDIT	TWOPARAM	T	5.00000E+000	0.00000E+000	Conditionin&g	Time(s)	E(V)
DELAY	TWOPARAM	T	5.00000E+000	0.00000E+000	Init. De&lay	Time(s)	Stab.(mV/s)
SPEED	SELECTOR	1	&Optimize for:
ZGUESS	QUANT	1.00000E+007	E&stimated Z (ohms)
OCVCURVE	TABLE	19
	Pt	T	Vf	Vm	Ach	Over
	#	s	V vs. Ref.	V	V	bits
	0	0.258333	1.33537E-002	1.33537E-002	5.75132E-004	...........
	1	0.516667	1.33607E-002	1.37209E-002	5.74399E-004	...........
	2	0.775	1.34041E-002	1.40811E-002	5.64999E-004	...........
	3	1.03333	1.35273E-002	1.44246E-002	5.72966E-004	...........
	4	1.29167	1.37492E-002	1.47594E-002	5.70032E-004	...........
	5	1.55	1.40464E-002	1.50811E-002	5.69666E-004	...........
	6	1.80833	1.43787E-002	1.53849E-002	5.70066E-004	...........
	7	2.06667	1.47151E-002	1.56754E-002	5.66932E-004	...........
	8	2.325	1.50404E-002	1.59593E-002	5.65632E-004	...........
	9	2.58333	1.53503E-002	1.62262E-002	5.68566E-004	...........
	10	2.84167	1.56455E-002	1.64849E-002	5.70499E-004	...........
	11	3.1	1.59276E-002	1.67326E-002	5.65566E-004	...........
	12	3.35833	1.61979E-002	1.69725E-002	5.69532E-004	...........
	13	3.61667	1.64573E-002	1.71968E-002	5.65632E-004	...........
	14	3.875	1.67054E-002	1.73745E-002	5.65099E-004	...........
	15	4.13333	1.69412E-002	1.76559E-002	5.69032E-004	...........
	16	4.39167	1.71691E-002	1.79243E-002	5.67566E-004	...........
	17	4.65	1.73978E-002	1.80398E-002	5.68666E-004	...........
	18	4.90833	1.76262E-002	1.82305E-002	5.66632E-004	...........
EOC	QUANT	0.0176262	Open Circuit (V)
PSTATMODEL	IQUANT	4	Pstat Model
PSTATSECTION	LABEL	REF600-11020	Pstat Section
PSTATSERIALNO	LABEL	11020	Pstat Serial Number
CTRLMODE	IQUANT	1	Control Mode
IESTAB	IQUANT	0	I/E Stability
CASPEED	IQUANT	1	Control Amp Speed
CONVENTION	IQUANT	1	Current Convention
ICHRANGE	IQUANT	2	Ich Range
ICHRANGEMODE	TOGGLE	F	Ich Auto Range
ICHOFFSETENABLE	TOGGLE	T	Ich Offset Enable
ICHOFFSET	QUANT	0	Ich Offset (V)
ICHFILTER	IQUANT	3	Ich Filter
VCHRANGE	IQUANT	2	Vch Range
VCHRANGEMODE	TOGGLE	F	Vch Auto Range
VCHOFFSETENABLE	TOGGLE	T	Vch Offset Enable
VCHOFFSET	QUANT	0	Vch Offset (V)
VCHFILTER	IQUANT	3	Vch Filter
ACHRANGE	IQUANT	2	Ach Range
ACHOFFSETENABLE	TOGGLE	F	Ach Offset Enable
ACHOFFSET	QUANT	0	Ach Offset (V)
ACHFILTER	IQUANT	3	Ach Filter
IERANGELOWERLIMIT	IQUANT	1	I/E Range Lower Limit
IERANGEMODE	TOGGLE	F	I/E AutoRange
IERANGE	IQUANT	3	I/E Range
POSFEEDENABLE	TOGGLE	F	Positive Feedback IR Comp
POSFEEDRESISTANCE	QUANT	0	Positive Feedback Resistance (ohm)
ACHSELECT	IQUANT	0	Ach Select
CABLEID	IQUANT	14	Cable ID
DCCALDATE	LABEL	8/19/2019	DC Calibration Date
ACCALDATE	LABEL	8/19/2019	AC Calibration Date
THERMOSELECT	IQUANT	1	Thermo Select
FRAMEWORKVERSION	QUANT	6.33	Framework Version
INSTRUMENTVERSION	LABEL	3.50	Instrument Version
ZCURVE	TABLE
	Pt	Time	Freq	Zreal	Zimag	Zsig	Zmod	Zphz	Idc	Vdc	IERange
	#	s	Hz	ohm	ohm	V	ohm	°	A	V	#
	0	2	1000078	2546.877	-1950.574	1	3208.009	-37.44739	4.978958E-006	0.0195703	8
	1	4	794390.6	2975.464	-1884.14	1	3521.842	-32.34304	-6.529439E-006	0.0207897	8
	2	5	630984.4	3331.035	-1784.119	1	3778.74	-28.17373	2.082218E-006	0.0194116	8
	3	7	501234.4	3638.37	-1605.594	1	3976.892	-23.81162	2.113444E-006	0.0190771	8
	4	8	398109.4	3890.28	-1464.704	1	4156.877	-20.63153	4.499479E-006	0.0185983	8
	5	9	316265.6	4079.686	-1269.731	1	4272.71	-17.28784	2.867389E-008	0.0195918	8
	6	11	251203.1	4227.632	-1109.741	1	4370.857	-14.70815	1.744304E-007	0.0193773	8
	7	12	199546.9	4339.613	-964.437	1	4445.49	-12.5298	4.646949E-007	0.0192067	8
	8	14	158578.1	4435.553	-851.1841	1	4516.486	-10.86302	-3.572961E-006	0.0201628	8
	9	15	125953.1	4531.634	-697.0959	1	4584.937	-8.745193	-5.764597E-007	0.0206662	7
	10	16	100078.1	4584.514	-640.1982	1	4628.998	-7.949584	7.657997E-008	0.0193519	7
	11	18	79453.13	4636.379	-608.0113	1	4676.077	-7.471092	5.046548E-008	0.0192195	7
	12	19	63140.62	4687.806	-586.9315	1	4724.406	-7.136518	-3.516185E-008	0.0193751	7
	13	20	50203.12	4735.8	-581.4138	1	4771.356	-6.999174	-1.020685E-008	0.0194013	7
	14	22	39890.62	4789.319	-589.8824	1	4825.509	-7.021544	-3.539156E-008	0.0193667	7
	15	23	31640.63	4842.968	-612.4366	1	4881.538	-7.207307	-1.05413E-008	0.0194001	7
	16	24	25171.88	4899.639	-649.371	1	4942.484	-7.549666	-4.8709E-008	0.0193986	7
	17	26	20015.62	4961.424	-699.451	1	5010.485	-8.024554	-4.462876E-008	0.0193935	7
	18	27	15890.62	5025.962	-763.3149	1	5083.595	-8.635768	-3.375538E-008	0.0193648	7
	19	28	12609.37	5101.487	-848.8437	1	5171.625	-9.446978	-3.959525E-008	0.0195004	7
	20	30	10078.13	5182.647	-944.916	1	5268.083	-10.33284	-1.044909E-008	0.0193962	7
	21	31	8015.625	5269.431	-1064.058	1	5375.791	-11.41624	-1.093665E-008	0.0193949	7
	22	32	6328.125	5369.636	-1213.175	1	5504.978	-12.73123	1.50451E-007	0.0191403	7
	23	34	5015.625	5481.939	-1389.376	1	5655.265	-14.22192	-1.825014E-008	0.0195079	7
	24	35	3984.375	5603.546	-1596.093	1	5826.426	-15.89887	2.701695E-008	0.0192611	7
	25	36	3170.956	5740.677	-1844.044	1	6029.583	-17.80827	-2.197723E-008	0.0193418	7
	26	38	2527.573	5894.487	-2135.008	1	6269.229	-19.9106	-7.012376E-009	0.0193874	7
	27	39	1976.103	6079.233	-2512.457	1	6577.957	-22.45458	-1.185274E-008	0.0193898	7
	28	40	1577.524	6270.027	-2927.631	1	6919.846	-25.02903	3.790467E-008	0.0193245	7
	29	42	1265.625	6478.432	-3422.06	1	7326.703	-27.84407	-1.018813E-008	0.0193892	7
	30	43	998.264	6735.408	-4026.176	1	7847.026	-30.86941	-4.480883E-008	0.019389	7
	31	44	796.875	6998.532	-4739.63	1	8452.428	-34.10712	-7.324095E-008	0.0194632	7
	32	46	627.7902	7309.999	-5658.755	1	9244.327	-37.74387	-1.682358E-008	0.0195093	7
	33	47	505.5147	7630.081	-6657.034	1	10125.92	-41.10379	1.960461E-008	0.0189547	6
	34	48	397.9953	8021.792	-8022.162	1	11344.79	-45.00132	4.697592E-010	0.0193042	6
	35	50	315.5048	8458.78	-9649.63	1	12832.24	-48.76249	1.554205E-009	0.0193008	6
	36	51	252.4038	8940.596	-11565.92	1	14618.64	-52.29554	5.101544E-010	0.0192971	6
	37	52	198.6229	9548.03	-14089.87	1	17020.26	-55.8764	1.205943E-009	0.0192977	6
	38	54	158.3615	10233	-17031.32	1	19869.07	-59.00111	1.587147E-009	0.0192958	6
	39	55	125.558	11084.63	-20721.13	1	23499.66	-61.85574	9.778319E-010	0.0192934	6
	40	56	100.4464	12060.35	-25084.18	1	27832.86	-64.32198	1.221966E-010	0.0192946	6
	41	58	79.00281	13439.99	-30774.78	1	33581.55	-66.4081	3.292867E-010	0.0192939	6
	42	59	63.3446	14874.91	-36839.67	1	39729.39	-68.01242	8.673756E-010	0.0192947	6
	43	61	49.86702	17073.59	-46133.94	1	49191.95	-69.69112	1.485425E-009	0.0192983	6
	44	62	39.72458	19406.64	-55755.15	1	59036.04	-70.80858	8.951135E-010	0.0193015	6
	45	63	31.6723	22529.01	-68141.05	1	71768.78	-71.70492	1.344289E-009	0.0192983	6
	46	65	24.93351	27046.51	-83439.66	1	87713.68	-72.04018	7.905955E-010	0.0192908	6
	47	66	19.86229	32733.85	-101349.5	1	106504.6	-72.10058	5.550032E-010	0.0192955	5
	48	67	15.83615	39758.58	-124137	1	130348.6	-72.24079	-1.279951E-009	0.0192995	5
	49	69	12.40079	51477.94	-150511.5	1	159071.3	-71.11829	1.529006E-009	0.019302	5
	50	70	9.93114	62416.11	-179891.2	1	190411.7	-70.86497	7.128811E-010	0.0192967	5
	51	72	7.944915	77376.23	-215539.8	1	229007.6	-70.25246	1.26052E-010	0.019303	5
	52	73	6.317385	98409.2	-257185	1	275369.7	-69.06116	7.543779E-011	0.019314	5
	53	75	5.008013	125317.3	-306034.8	1	330698.8	-67.73154	3.049829E-010	0.0193069	5
	54	78	3.945707	159576.2	-364188.1	1	397614.8	-66.33842	-5.695307E-011	0.0192959	5
	55	80	3.158693	200006.1	-425581.7	1	470236.3	-64.82838	1.900488E-010	0.0192957	5
	56	84	2.504006	252786.4	-496589.2	1	557226.9	-63.02184	-4.879855E-012	0.019306	5
	57	86	1.998082	312162.5	-570310.6	1	650153.6	-61.30568	3.264171E-010	0.0192751	5
	58	89	1.584686	386952.1	-656579.4	1	762121	-59.48722	-6.82544E-011	0.0192566	5
	59	93	1.266892	469071.7	-741010.5	1	876997.6	-57.66552	2.64036E-010	0.0192769	5
	60	97	0.999041	571232.1	-842597	1	1017976	-55.865	-2.532493E-010	0.0193089	4
