EXPLAIN
TAG	EISPOT
TITLE	LABEL	Potentiostatic IDE	Test &Identifier
DATE	LABEL	9/4/2019	Date
TIME	LABEL	11:14:57	Time
NOTES	NOTES	1	&Notes...
	
PSTAT	PSTAT	REF600-11020	Potentiostat
VDC	POTEN	0.00000E+000	T	DC &Voltage (V)
FREQINIT	QUANT	1.00000E+006	Initial Fre&q. (Hz)
FREQFINAL	QUANT	1.00000E+000	Final Fre&q. (Hz)
PTSPERDEC	QUANT	1.00000E+001	Points/&decade
VAC	QUANT	2.50000E+001	AC &Voltage (mV rms)
AREA	QUANT	1.00000E-002	&Area (cm^2)
CONDIT	TWOPARAM	T	5.00000E+000	0.00000E+000	Conditionin&g	Time(s)	E(V)
DELAY	TWOPARAM	T	5.00000E+000	0.00000E+000	Init. De&lay	Time(s)	Stab.(mV/s)
SPEED	SELECTOR	1	&Optimize for:
ZGUESS	QUANT	1.00000E+007	E&stimated Z (ohms)
OCVCURVE	TABLE	19
	Pt	T	Vf	Vm	Ach	Over
	#	s	V vs. Ref.	V	V	bits
	0	0.258333	6.61254E-002	6.61254E-002	5.62832E-004	...........
	1	0.516667	6.61406E-002	6.69253E-002	5.62566E-004	...........
	2	0.775	6.62353E-002	6.77242E-002	5.62499E-004	...........
	3	1.03333	6.65055E-002	6.84909E-002	5.63266E-004	...........
	4	1.29167	6.69946E-002	6.92570E-002	5.57999E-004	...........
	5	1.55	6.76548E-002	7.00088E-002	5.59032E-004	...........
	6	1.80833	6.84014E-002	7.07434E-002	5.56633E-004	...........
	7	2.06667	6.91690E-002	7.13876E-002	5.58666E-004	...........
	8	2.325	6.99217E-002	7.20951E-002	5.60099E-004	...........
	9	2.58333	7.06463E-002	7.27375E-002	5.62899E-004	...........
	10	2.84167	7.13442E-002	7.33946E-002	5.57632E-004	...........
	11	3.1	7.20202E-002	7.39428E-002	5.61266E-004	...........
	12	3.35833	7.26736E-002	7.45509E-002	5.58866E-004	...........
	13	3.61667	7.33009E-002	7.50866E-002	5.55766E-004	...........
	14	3.875	7.39021E-002	7.56430E-002	5.60632E-004	...........
	15	4.13333	7.44804E-002	7.61308E-002	5.59332E-004	...........
	16	4.39167	7.50371E-002	7.66340E-002	5.61566E-004	...........
	17	4.65	7.55721E-002	7.71055E-002	5.65132E-004	...........
	18	4.90833	7.60859E-002	7.75660E-002	5.63232E-004	...........
EOC	QUANT	0.0760859	Open Circuit (V)
PSTATMODEL	IQUANT	4	Pstat Model
PSTATSECTION	LABEL	REF600-11020	Pstat Section
PSTATSERIALNO	LABEL	11020	Pstat Serial Number
CTRLMODE	IQUANT	1	Control Mode
IESTAB	IQUANT	0	I/E Stability
CASPEED	IQUANT	1	Control Amp Speed
CONVENTION	IQUANT	1	Current Convention
ICHRANGE	IQUANT	2	Ich Range
ICHRANGEMODE	TOGGLE	F	Ich Auto Range
ICHOFFSETENABLE	TOGGLE	T	Ich Offset Enable
ICHOFFSET	QUANT	0	Ich Offset (V)
ICHFILTER	IQUANT	3	Ich Filter
VCHRANGE	IQUANT	2	Vch Range
VCHRANGEMODE	TOGGLE	F	Vch Auto Range
VCHOFFSETENABLE	TOGGLE	T	Vch Offset Enable
VCHOFFSET	QUANT	0	Vch Offset (V)
VCHFILTER	IQUANT	3	Vch Filter
ACHRANGE	IQUANT	2	Ach Range
ACHOFFSETENABLE	TOGGLE	F	Ach Offset Enable
ACHOFFSET	QUANT	0	Ach Offset (V)
ACHFILTER	IQUANT	3	Ach Filter
IERANGELOWERLIMIT	IQUANT	1	I/E Range Lower Limit
IERANGEMODE	TOGGLE	F	I/E AutoRange
IERANGE	IQUANT	4	I/E Range
POSFEEDENABLE	TOGGLE	F	Positive Feedback IR Comp
POSFEEDRESISTANCE	QUANT	0	Positive Feedback Resistance (ohm)
ACHSELECT	IQUANT	0	Ach Select
CABLEID	IQUANT	14	Cable ID
DCCALDATE	LABEL	8/19/2019	DC Calibration Date
ACCALDATE	LABEL	8/19/2019	AC Calibration Date
THERMOSELECT	IQUANT	1	Thermo Select
FRAMEWORKVERSION	QUANT	6.33	Framework Version
INSTRUMENTVERSION	LABEL	3.50	Instrument Version
ZCURVE	TABLE
	Pt	Time	Freq	Zreal	Zimag	Zsig	Zmod	Zphz	Idc	Vdc	IERange
	#	s	Hz	ohm	ohm	V	ohm	°	A	V	#
	0	2	1000078	2511.384	-1785.937	1	3081.658	-35.41802	9.11712E-006	0.0776627	8
	1	4	794390.6	2835.671	-1732.528	1	3323.054	-31.42395	1.568098E-005	0.0766599	8
	2	5	630984.4	3138.973	-1616.442	1	3530.727	-27.2466	9.235223E-006	0.0775216	8
	3	7	501234.4	3387.823	-1471.809	1	3693.72	-23.4821	1.055241E-005	0.0774409	8
	4	8	398109.4	3576.56	-1331.845	1	3816.49	-20.4244	1.055902E-005	0.0775601	8
	5	10	316265.6	3734.569	-1206.034	1	3924.477	-17.89724	1.231151E-005	0.0770014	8
	6	11	251203.1	3877.37	-1117.824	1	4035.285	-16.08198	1.029863E-005	0.0773832	8
	7	13	199546.9	3994.524	-981.685	1	4113.383	-13.80724	1.120028E-005	0.0772903	8
	8	14	158578.1	4088.896	-981.107	1	4204.954	-13.49271	1.328308E-005	0.0767331	8
	9	16	125953.1	4175.408	-945.5853	1	4281.14	-12.76027	1.35317E-006	0.0762906	7
	10	18	100078.1	4246.131	-939.5708	1	4348.841	-12.47719	1.147832E-006	0.0772398	7
	11	19	79453.13	4322.122	-971.665	1	4429.997	-12.67013	1.085683E-006	0.0773737	7
	12	20	63140.62	4404.784	-1030.137	1	4523.638	-13.16306	1.10807E-006	0.0773442	7
	13	22	50203.12	4490.319	-1113.669	1	4626.362	-13.92918	1.149193E-006	0.0772307	7
	14	23	39890.62	4581.663	-1225.276	1	4742.671	-14.97226	1.090749E-006	0.0773425	7
	15	24	31640.63	4691.675	-1374.144	1	4888.771	-16.32477	1.110355E-006	0.0773461	7
	16	26	25171.88	4809.802	-1556.425	1	5055.359	-17.93129	1.130795E-006	0.0773123	7
	17	27	20015.62	4945.6	-1777.887	1	5255.458	-19.77294	1.111951E-006	0.0773425	7
	18	28	15890.62	5100.093	-2044.307	1	5494.556	-21.84275	1.089357E-006	0.0773334	7
	19	30	12609.37	5288.168	-2371.184	1	5795.45	-24.15119	1.108036E-006	0.0773434	7
	20	31	10078.13	5484.256	-2745.139	1	6132.932	-26.59022	1.101943E-006	0.0773827	7
	21	32	8015.625	5720.876	-3200.464	1	6555.257	-29.22422	1.168252E-006	0.0772536	7
	22	34	6328.125	6005.708	-3753.439	1	7082.148	-32.00451	1.121646E-006	0.0773606	7
	23	35	5015.625	6332.826	-4389.678	1	7705.45	-34.72825	1.113655E-006	0.0772983	7
	24	36	3984.375	6711.389	-5143.325	1	8455.563	-37.46503	1.112958E-006	0.0773009	7
	25	38	3170.956	7151.082	-6037.423	1	9358.87	-40.1733	1.083856E-006	0.0773632	7
	26	39	2527.573	7659.786	-7083.75	1	10433.21	-42.76257	1.084115E-006	0.0773529	7
	27	40	1976.103	8296.123	-8437.302	1	11832.74	-45.48339	1.109074E-006	0.0773412	7
	28	42	1577.524	9003.465	-9894.29	1	13377.57	-47.69888	1.108487E-006	0.0773424	7
	29	43	1265.625	9810.33	-11550.42	1	15154.36	-49.65713	1.11396E-007	0.0771749	6
	30	44	998.264	10824.07	-13697.7	1	17458.16	-51.68384	1.178687E-007	0.0771225	6
	31	46	796.875	11956.56	-16105.97	1	20058.96	-53.41098	1.060557E-007	0.0773013	6
	32	47	627.7902	13376.53	-19072.66	1	23295.88	-54.95626	1.041204E-007	0.0773191	6
	33	48	505.5147	14862.6	-22279.64	1	26782.07	-56.29302	1.10564E-007	0.0772827	6
	34	50	397.9953	16843.83	-26487.5	1	31389.53	-57.54706	1.107848E-007	0.0769131	6
	35	51	315.5048	19108.21	-31306.41	1	36677.17	-58.60174	1.106295E-007	0.0769118	6
	36	52	252.4038	21676.37	-36769.48	1	42683.25	-59.47977	1.107407E-007	0.0769159	6
	37	54	198.6229	24933.21	-43704.93	1	50316.86	-60.2957	1.109964E-007	0.076916	6
	38	55	158.3615	28586.83	-51487.7	1	58891.34	-60.96024	1.111071E-007	0.0769108	6
	39	56	125.558	33019.37	-60851.95	1	69233.22	-61.51494	1.110559E-007	0.0769107	6
	40	58	100.4464	37993.08	-71525.92	1	80990.32	-62.02369	1.104313E-007	0.076909	6
	41	59	79.00281	44514.67	-84631.14	1	95624.2	-62.25632	1.106012E-007	0.0769104	6
	42	60	63.3446	51847.25	-101036.1	1	113562.5	-62.83512	1.110824E-007	0.0769085	6
	43	62	49.86702	59835.81	-117252.5	1	131637.6	-62.96405	1.105882E-007	0.0769068	6
	44	63	39.72458	70812.55	-139108.3	1	156094.6	-63.0218	1.100329E-008	0.0769206	5
	45	64	31.6723	82171.09	-163382.2	1	182882	-63.30045	1.104311E-008	0.0769151	5
	46	66	24.93351	97612.5	-193347.6	1	216590.6	-63.21284	1.126297E-008	0.0769189	5
	47	67	19.86229	114179.2	-227199.5	1	254276.4	-63.31817	1.125684E-008	0.0769217	5
	48	68	15.83615	132637.4	-268125.9	1	299139.1	-63.67918	1.137103E-008	0.0769137	5
	49	70	12.40079	156851.1	-316874.6	1	353570	-63.66485	1.142315E-008	0.0769182	5
	50	71	9.93114	185132.8	-372419.5	1	415897.2	-63.56765	1.124291E-008	0.076913	5
	51	73	7.944915	216427.4	-436074.7	1	486828.5	-63.60442	1.12316E-008	0.0769083	5
	52	74	6.317385	252645.8	-512398.4	1	571298.5	-63.7537	1.115642E-008	0.0769245	5
	53	76	5.008013	297559.9	-604961.6	1	674181.3	-63.80901	1.126168E-008	0.0769164	5
	54	79	3.945707	352730.7	-719917.4	1	801685.8	-63.897	1.11072E-007	0.076917	6
	55	82	3.158693	414591.6	-842750.3	1	939209.4	-63.80509	1.113512E-008	0.0769009	5
	56	86	2.504006	491324.3	-995950	1	1110547	-63.74184	1.114273E-008	0.0772014	5
	57	88	1.998082	580445.8	-1168792	1	1304987	-63.59007	1.115628E-008	0.0772057	5
	58	91	1.584686	697137.7	-1377177	1	1543573	-63.15111	1.114746E-009	0.0771634	4
	59	95	1.266892	826384.8	-1614233	1	1813466	-62.89044	1.173865E-009	0.0772073	4
	60	99	0.999041	1000074	-1905620	1	2152100	-62.3094	1.060845E-009	0.0771679	4
