EXPLAIN
TAG	EISPOT
TITLE	LABEL	Potentiostatic IDE	Test &Identifier
DATE	LABEL	9/4/2019	Date
TIME	LABEL	12:01:47	Time
NOTES	NOTES	1	&Notes...
	
PSTAT	PSTAT	REF600-11020	Potentiostat
VDC	POTEN	0.00000E+000	T	DC &Voltage (V)
FREQINIT	QUANT	1.00000E+006	Initial Fre&q. (Hz)
FREQFINAL	QUANT	1.00000E+000	Final Fre&q. (Hz)
PTSPERDEC	QUANT	1.00000E+001	Points/&decade
VAC	QUANT	2.50000E+001	AC &Voltage (mV rms)
AREA	QUANT	1.00000E-002	&Area (cm^2)
CONDIT	TWOPARAM	T	5.00000E+000	0.00000E+000	Conditionin&g	Time(s)	E(V)
DELAY	TWOPARAM	T	5.00000E+000	0.00000E+000	Init. De&lay	Time(s)	Stab.(mV/s)
SPEED	SELECTOR	1	&Optimize for:
ZGUESS	QUANT	1.00000E+007	E&stimated Z (ohms)
OCVCURVE	TABLE	19
	Pt	T	Vf	Vm	Ach	Over
	#	s	V vs. Ref.	V	V	bits
	0	0.258333	6.50893E-002	6.50893E-002	5.66332E-004	...........
	1	0.516667	6.51060E-002	6.59643E-002	5.67766E-004	...........
	2	0.775	6.52107E-002	6.68985E-002	5.66066E-004	...........
	3	1.03333	6.55135E-002	6.78002E-002	5.63932E-004	...........
	4	1.29167	6.60688E-002	6.86808E-002	5.63932E-004	...........
	5	1.55	6.68261E-002	6.95173E-002	5.62632E-004	...........
	6	1.80833	6.76849E-002	7.03372E-002	5.67299E-004	...........
	7	2.06667	6.85639E-002	7.11115E-002	5.65232E-004	...........
	8	2.325	6.94212E-002	7.18666E-002	5.66866E-004	...........
	9	2.58333	7.02436E-002	7.25877E-002	5.63299E-004	...........
	10	2.84167	7.10308E-002	7.32751E-002	5.67632E-004	...........
	11	3.1	7.17850E-002	7.39359E-002	5.67966E-004	...........
	12	3.35833	7.25079E-002	7.45693E-002	5.70399E-004	...........
	13	3.61667	7.32007E-002	7.51844E-002	5.73965E-004	...........
	14	3.875	7.38660E-002	7.57996E-002	5.71832E-004	...........
	15	4.13333	7.45072E-002	7.63524E-002	5.65599E-004	...........
	16	4.39167	7.51264E-002	7.68986E-002	5.70032E-004	...........
	17	4.65	7.57236E-002	7.74919E-002	5.67799E-004	...........
	18	4.90833	7.63015E-002	7.79749E-002	5.68299E-004	...........
EOC	QUANT	0.0763015	Open Circuit (V)
PSTATMODEL	IQUANT	4	Pstat Model
PSTATSECTION	LABEL	REF600-11020	Pstat Section
PSTATSERIALNO	LABEL	11020	Pstat Serial Number
CTRLMODE	IQUANT	1	Control Mode
IESTAB	IQUANT	0	I/E Stability
CASPEED	IQUANT	1	Control Amp Speed
CONVENTION	IQUANT	1	Current Convention
ICHRANGE	IQUANT	2	Ich Range
ICHRANGEMODE	TOGGLE	F	Ich Auto Range
ICHOFFSETENABLE	TOGGLE	T	Ich Offset Enable
ICHOFFSET	QUANT	0	Ich Offset (V)
ICHFILTER	IQUANT	3	Ich Filter
VCHRANGE	IQUANT	2	Vch Range
VCHRANGEMODE	TOGGLE	F	Vch Auto Range
VCHOFFSETENABLE	TOGGLE	T	Vch Offset Enable
VCHOFFSET	QUANT	0	Vch Offset (V)
VCHFILTER	IQUANT	3	Vch Filter
ACHRANGE	IQUANT	2	Ach Range
ACHOFFSETENABLE	TOGGLE	F	Ach Offset Enable
ACHOFFSET	QUANT	0	Ach Offset (V)
ACHFILTER	IQUANT	3	Ach Filter
IERANGELOWERLIMIT	IQUANT	1	I/E Range Lower Limit
IERANGEMODE	TOGGLE	F	I/E AutoRange
IERANGE	IQUANT	4	I/E Range
POSFEEDENABLE	TOGGLE	F	Positive Feedback IR Comp
POSFEEDRESISTANCE	QUANT	0	Positive Feedback Resistance (ohm)
ACHSELECT	IQUANT	0	Ach Select
CABLEID	IQUANT	14	Cable ID
DCCALDATE	LABEL	8/19/2019	DC Calibration Date
ACCALDATE	LABEL	8/19/2019	AC Calibration Date
THERMOSELECT	IQUANT	1	Thermo Select
FRAMEWORKVERSION	QUANT	6.33	Framework Version
INSTRUMENTVERSION	LABEL	3.50	Instrument Version
ZCURVE	TABLE
	Pt	Time	Freq	Zreal	Zimag	Zsig	Zmod	Zphz	Idc	Vdc	IERange
	#	s	Hz	ohm	ohm	V	ohm	°	A	V	#
	0	2	1000078	2358.371	-1952.889	1	3061.975	-39.62703	1.069575E-005	0.0773245	8
	1	3	794390.6	2740.73	-1882.153	1	3324.771	-34.47871	9.379397E-006	0.0775729	8
	2	5	630984.4	3084.127	-1745.803	1	3543.962	-29.51249	9.115084E-006	0.0775815	8
	3	6	501234.4	3353.282	-1592.52	1	3712.226	-25.40368	9.827706E-006	0.0775179	8
	4	8	398109.4	3591.599	-1445.607	1	3871.61	-21.92463	8.404138E-006	0.0776202	8
	5	9	316265.6	3761.005	-1279.915	1	3972.825	-18.79405	8.30162E-006	0.077828	8
	6	11	251203.1	3893.389	-1145.001	1	4058.264	-16.388	1.091397E-005	0.0770527	8
	7	12	199546.9	4010.941	-1075.424	1	4152.612	-15.00927	1.111029E-005	0.0771241	8
	8	14	158578.1	4117.339	-974.915	1	4231.187	-13.32131	8.257198E-006	0.0776243	8
	9	15	125953.1	4192.23	-934.14	1	4295.045	-12.5618	6.615481E-007	0.0775723	7
	10	17	100078.1	4261.226	-915.358	1	4358.432	-12.12353	9.527415E-007	0.0774933	7
	11	18	79453.13	4331.391	-934.3711	1	4431.027	-12.17335	9.281835E-007	0.0774838	7
	12	20	63140.62	4407.499	-980.681	1	4515.283	-12.54413	9.261535E-007	0.0774844	7
	13	21	50203.12	4484.747	-1050.4	1	4606.115	-13.18198	8.912222E-007	0.0775308	7
	14	22	39890.62	4571.958	-1155.815	1	4715.794	-14.18741	9.290196E-007	0.0774783	7
	15	24	31640.63	4668.607	-1293.451	1	4844.472	-15.48555	8.750887E-007	0.0775852	7
	16	25	25171.88	4774.147	-1460.958	1	4992.683	-17.01487	9.292055E-007	0.0774798	7
	17	26	20015.62	4898.871	-1668.825	1	5175.317	-18.81167	8.642232E-007	0.0776315	7
	18	28	15890.62	5042.023	-1923.523	1	5396.475	-20.88177	8.728916E-007	0.0775951	7
	19	29	12609.37	5203.315	-2232.32	1	5661.956	-23.22024	8.87292E-007	0.0776065	7
	20	30	10078.13	5388.736	-2585.959	1	5977.095	-25.63552	8.867528E-007	0.0775985	7
	21	32	8015.625	5604.962	-3012.506	1	6363.238	-28.25675	8.645472E-007	0.0776225	7
	22	33	6328.125	5868.832	-3543.511	1	6855.63	-31.12294	8.768146E-007	0.0775838	7
	23	34	5015.625	6170.132	-4159.976	1	7441.5	-33.98831	8.988342E-007	0.0776326	7
	24	36	3984.375	6512.787	-4897.716	1	8148.866	-36.94373	8.683988E-007	0.0776341	7
	25	37	3170.956	6917.798	-5760.97	1	9002.483	-39.78669	8.889204E-007	0.07762	7
	26	38	2527.573	7393.238	-6753.022	1	10013.16	-42.40874	8.610114E-007	0.0776161	7
	27	40	1976.103	7989.613	-8071.269	1	11356.91	-45.29129	8.75346E-007	0.0775778	7
	28	41	1577.524	8650.965	-9477.268	1	12831.91	-47.60979	9.422532E-008	0.077376	6
	29	42	1265.625	9404.383	-11123.25	1	14566.02	-49.78645	8.346611E-008	0.0775735	6
	30	44	998.264	10362.23	-13219	1	16796.36	-51.90751	8.519609E-008	0.0775675	6
	31	45	796.875	11435.51	-15579.42	1	19325.87	-53.72081	8.292793E-008	0.0776364	6
	32	47	627.7902	12790.16	-18524	1	22510.59	-55.37632	8.147202E-008	0.0776079	6
	33	48	505.5147	14249.8	-21664.55	1	25930.86	-56.66519	8.842052E-008	0.0775991	6
	34	49	397.9953	16198.45	-25799.9	1	30463.5	-57.87738	8.849085E-008	0.0771757	6
	35	51	315.5048	18441.55	-30532.64	1	35669.78	-58.86825	8.807394E-008	0.0771746	6
	36	52	252.4038	21008.88	-35873.36	1	41572.48	-59.64504	8.836386E-008	0.0771719	6
	37	53	198.6229	24308.99	-42636.59	1	49079.59	-60.31063	8.810074E-008	0.0771762	6
	38	54	158.3615	28062.6	-50168.3	1	57483.63	-60.7787	8.829167E-008	0.0771659	6
	39	56	125.558	32614.64	-59192.61	1	67583.13	-61.1456	8.805382E-008	0.0771659	6
	40	57	100.4464	37926.29	-69351.27	1	79044.3	-61.32697	8.838286E-008	0.0771639	6
	41	59	79.00281	44506	-81847.2	1	93165.17	-61.464	8.800774E-008	0.077162	6
	42	60	63.3446	51458.48	-96988.8	1	109794.4	-62.05133	8.799465E-008	0.077161	6
	43	61	49.86702	61002.45	-112127.4	1	127647.3	-61.45177	8.797046E-008	0.0771599	6
	44	63	39.72458	71499.87	-132030.3	1	150147.3	-61.56261	8.9808E-009	0.0771733	5
	45	64	31.6723	83544.81	-154253.4	1	175424.8	-61.55969	8.781437E-009	0.0771694	5
	46	65	24.93351	97766.9	-181252.2	1	205938.7	-61.65771	9.029947E-009	0.0771644	5
	47	67	19.86229	113700.6	-211703	1	240303.9	-61.76081	8.957733E-009	0.0771705	5
	48	68	15.83615	130258.3	-248451.6	1	280527.1	-62.33286	9.188915E-009	0.0771643	5
	49	69	12.40079	155915.1	-291087.3	1	330214.1	-61.82516	9.385575E-009	0.0771686	5
	50	71	9.93114	178685.5	-340798.2	1	384801.1	-62.33132	9.199669E-009	0.0771697	5
	51	72	7.944915	207211.8	-400392.6	1	450833.6	-62.63747	8.939674E-009	0.077175	5
	52	74	6.317385	240291	-470478.3	1	528289.3	-62.94489	9.021957E-009	0.0771726	5
	53	76	5.008013	280574.1	-556153.9	1	622919.7	-63.22951	8.909737E-009	0.0771759	5
	54	79	3.945707	329850.2	-662199.4	1	739803.5	-63.5215	8.862041E-008	0.0771686	6
	55	82	3.158693	385980.5	-776816.9	1	867424.6	-63.57839	8.845199E-009	0.0771745	5
	56	85	2.504006	455764.1	-918537.2	1	1025393	-63.6101	8.853478E-009	0.0774502	5
	57	88	1.998082	536667.7	-1079002	1	1205096	-63.55542	8.733548E-009	0.0774853	5
	58	91	1.584686	638360.7	-1276655	1	1427358	-63.43375	9.018847E-010	0.0774936	4
	59	95	1.266892	762681.5	-1494969	1	1678277	-62.97089	8.71285E-010	0.0774835	4
	60	99	0.999041	909961.3	-1763828	1	1984721	-62.71073	9.234472E-010	0.0774343	4
