EXPLAIN
TAG	EISPOT
TITLE	LABEL	Potentiostatic IDE	Test &Identifier
DATE	LABEL	9/6/2019	Date
TIME	LABEL	7:52:04	Time
NOTES	NOTES	1	&Notes...
	
PSTAT	PSTAT	REF600-11020	Potentiostat
VDC	POTEN	0.00000E+000	T	DC &Voltage (V)
FREQINIT	QUANT	1.00000E+006	Initial Fre&q. (Hz)
FREQFINAL	QUANT	1.00000E+000	Final Fre&q. (Hz)
PTSPERDEC	QUANT	1.00000E+001	Points/&decade
VAC	QUANT	2.50000E+001	AC &Voltage (mV rms)
AREA	QUANT	1.00000E-002	&Area (cm^2)
CONDIT	TWOPARAM	T	5.00000E+000	0.00000E+000	Conditionin&g	Time(s)	E(V)
DELAY	TWOPARAM	T	5.00000E+000	0.00000E+000	Init. De&lay	Time(s)	Stab.(mV/s)
SPEED	SELECTOR	1	&Optimize for:
ZGUESS	QUANT	1.00000E+007	E&stimated Z (ohms)
OCVCURVE	TABLE	19
	Pt	T	Vf	Vm	Ach	Over
	#	s	V vs. Ref.	V	V	bits
	0	0.258333	5.06281E-003	5.06281E-003	5.41133E-004	...........
	1	0.516667	5.06137E-003	4.98749E-003	5.43266E-004	...........
	2	0.775	5.04887E-003	4.72432E-003	5.35799E-004	...........
	3	1.03333	5.00105E-003	4.45684E-003	5.47999E-004	...........
	4	1.29167	4.89149E-003	4.24300E-003	5.47533E-004	...........
	5	1.55	4.71772E-003	4.05321E-003	5.39499E-004	...........
	6	1.80833	4.50616E-003	3.88238E-003	5.48833E-004	...........
	7	2.06667	4.28975E-003	3.72355E-003	5.49866E-004	...........
	8	2.325	4.08890E-003	3.60168E-003	5.53899E-004	...........
	9	2.58333	3.91149E-003	3.52747E-003	5.44433E-004	...........
	10	2.84167	3.75871E-003	3.33343E-003	5.44466E-004	...........
	11	3.1	3.62354E-003	3.20875E-003	5.43633E-004	...........
	12	3.35833	3.49324E-003	3.09674E-003	5.44499E-004	...........
	13	3.61667	3.36194E-003	2.99355E-003	5.43299E-004	...........
	14	3.875	3.23398E-003	2.89082E-003	5.44699E-004	...........
	15	4.13333	3.11456E-003	2.79241E-003	5.48599E-004	...........
	16	4.39167	3.00433E-003	2.70253E-003	5.48533E-004	...........
	17	4.65	2.90148E-003	2.61603E-003	5.41799E-004	...........
	18	4.90833	2.80449E-003	2.53058E-003	5.43233E-004	...........
EOC	QUANT	0.0028045	Open Circuit (V)
PSTATMODEL	IQUANT	4	Pstat Model
PSTATSECTION	LABEL	REF600-11020	Pstat Section
PSTATSERIALNO	LABEL	11020	Pstat Serial Number
CTRLMODE	IQUANT	1	Control Mode
IESTAB	IQUANT	0	I/E Stability
CASPEED	IQUANT	1	Control Amp Speed
CONVENTION	IQUANT	1	Current Convention
ICHRANGE	IQUANT	2	Ich Range
ICHRANGEMODE	TOGGLE	F	Ich Auto Range
ICHOFFSETENABLE	TOGGLE	T	Ich Offset Enable
ICHOFFSET	QUANT	0	Ich Offset (V)
ICHFILTER	IQUANT	3	Ich Filter
VCHRANGE	IQUANT	2	Vch Range
VCHRANGEMODE	TOGGLE	F	Vch Auto Range
VCHOFFSETENABLE	TOGGLE	T	Vch Offset Enable
VCHOFFSET	QUANT	0	Vch Offset (V)
VCHFILTER	IQUANT	3	Vch Filter
ACHRANGE	IQUANT	2	Ach Range
ACHOFFSETENABLE	TOGGLE	F	Ach Offset Enable
ACHOFFSET	QUANT	0	Ach Offset (V)
ACHFILTER	IQUANT	3	Ach Filter
IERANGELOWERLIMIT	IQUANT	1	I/E Range Lower Limit
IERANGEMODE	TOGGLE	F	I/E AutoRange
IERANGE	IQUANT	2	I/E Range
POSFEEDENABLE	TOGGLE	F	Positive Feedback IR Comp
POSFEEDRESISTANCE	QUANT	0	Positive Feedback Resistance (ohm)
ACHSELECT	IQUANT	0	Ach Select
CABLEID	IQUANT	14	Cable ID
DCCALDATE	LABEL	8/19/2019	DC Calibration Date
ACCALDATE	LABEL	8/19/2019	AC Calibration Date
THERMOSELECT	IQUANT	1	Thermo Select
FRAMEWORKVERSION	QUANT	6.33	Framework Version
INSTRUMENTVERSION	LABEL	3.50	Instrument Version
ZCURVE	TABLE
	Pt	Time	Freq	Zreal	Zimag	Zsig	Zmod	Zphz	Idc	Vdc	IERange
	#	s	Hz	ohm	ohm	V	ohm	°	A	V	#
	0	2	1000078	2305.538	-1656.663	1	2839.021	-35.69945	-3.524571E-007	0.0052562	8
	1	3	794390.6	2652.54	-1578.918	1	3086.9	-30.76312	1.229558E-006	0.0045468	8
	2	5	630984.4	2923.918	-1443.341	1	3260.756	-26.27244	2.60713E-007	0.0045242	8
	3	6	501234.4	3160.754	-1282.641	1	3411.089	-22.08742	-6.233384E-007	0.0047067	8
	4	7	398109.4	3339.715	-1114.226	1	3520.681	-18.45019	-6.722436E-007	0.0046638	8
	5	9	316265.6	3479.753	-959.098	1	3609.508	-15.4094	-6.714688E-007	0.0046316	8
	6	10	251203.1	3578.42	-820.7936	1	3671.347	-12.91865	-7.047534E-007	0.0046613	8
	7	11	199546.9	3650.377	-714.6985	1	3719.683	-11.07768	1.267976E-006	0.0042138	8
	8	13	158578.1	3709.59	-631.0673	1	3762.885	-9.6546	1.269685E-006	0.0041082	8
	9	14	125953.1	3768.071	-545.3104	1	3807.324	-8.234604	4.213529E-007	0.0038046	7
	10	15	100078.1	3803.76	-493.197	1	3835.601	-7.387776	1.465002E-009	0.0043698	7
	11	17	79453.13	3840.161	-468.9366	1	3868.687	-6.962134	-2.508856E-008	0.0044311	7
	12	18	63140.62	3875.261	-458.1164	1	3902.246	-6.741965	2.90594E-008	0.0043195	7
	13	20	50203.12	3912.061	-458.7857	1	3938.871	-6.688792	-6.279755E-009	0.0044208	7
	14	21	39890.62	3947.041	-473.999	1	3975.4	-6.84784	-2.982359E-008	0.0044594	7
	15	22	31640.63	3987.031	-499.2592	1	4018.168	-7.137472	-2.395248E-008	0.0044191	7
	16	24	25171.88	4026.672	-537.4961	1	4062.387	-7.603122	-2.624972E-008	0.0044164	7
	17	25	20015.62	4071.289	-590.7944	1	4113.932	-8.256693	-3.087061E-008	0.0044598	7
	18	26	15890.62	4118.319	-660.6726	1	4170.976	-9.113899	-1.559668E-008	0.004392	7
	19	28	12609.37	4171.791	-748.0004	1	4238.319	-10.1651	-2.457288E-008	0.004433	7
	20	29	10078.13	4229.881	-854.6382	1	4315.356	-11.4227	-2.494327E-008	0.0044153	7
	21	31	8015.625	4293.144	-985.777	1	4404.866	-12.93189	-2.301114E-009	0.0044159	7
	22	32	6328.125	4371.761	-1152.464	1	4521.114	-14.76808	2.096349E-009	0.0043585	7
	23	33	5015.625	4457.141	-1351.967	1	4657.673	-16.87391	-2.119275E-008	0.0044653	7
	24	35	3984.375	4556.754	-1590.437	1	4826.334	-19.24045	5.288143E-008	0.0042908	7
	25	36	3170.956	4668.86	-1878.232	1	5032.495	-21.91439	-2.234602E-008	0.0044683	7
	26	38	2527.573	4803.071	-2224.216	1	5293.074	-24.84801	-6.078197E-009	0.0044103	7
	27	39	1976.103	4973.545	-2674.759	1	5647.166	-28.27124	3.483676E-008	0.0043071	7
	28	40	1577.524	5160.619	-3175.759	1	6059.491	-31.60744	4.046252E-008	0.0043917	7
	29	41	1265.625	5372.28	-3753.839	1	6553.831	-34.94363	-8.835453E-009	0.0044303	7
	30	43	998.264	5646.253	-4503.91	1	7222.561	-38.5787	-2.40605E-008	0.0044723	7
	31	44	796.875	5954.422	-5352.199	1	8006.321	-41.95114	4.489078E-008	0.0043175	7
	32	45	627.7902	6337.777	-6432.013	1	9029.851	-45.42281	-1.110352E-008	0.004388	7
	33	47	505.5147	6741.555	-7610.044	1	10166.68	-48.46304	9.144227E-009	0.0041507	6
	34	48	397.9953	7269.82	-9160.396	1	11694.58	-51.56398	6.494723E-010	0.004349	6
	35	49	315.5048	7867.862	-10989.11	1	13515.32	-54.39851	6.131732E-010	0.0043429	6
	36	51	252.4038	8541.885	-13106.54	1	15644.33	-56.90663	7.508134E-010	0.0043434	6
	37	52	198.6229	9395.921	-15860.83	1	18435	-59.3576	7.035273E-010	0.0043465	6
	38	53	158.3615	10360.08	-19023.41	1	21661.52	-61.42744	8.22758E-010	0.0043393	6
	39	55	125.558	11538.77	-22941.11	1	25679.52	-63.29882	7.521E-010	0.0043421	6
	40	56	100.4464	12917.34	-27506.45	1	30388.52	-64.84472	6.311853E-010	0.0043443	6
	41	57	79.00281	14719.42	-33461.41	1	36555.81	-66.25568	6.207336E-010	0.0043438	6
	42	59	63.3446	16621.75	-40110.24	1	43417.9	-67.49081	6.77665E-010	0.0043431	6
	43	60	49.86702	19458.11	-48650.34	1	52397.27	-68.20065	5.8609E-010	0.0043387	6
	44	62	39.72458	22568.95	-58672.23	1	62863.25	-68.96019	6.987997E-010	0.004348	6
	45	63	31.6723	26471.22	-70582.62	1	75383.23	-69.44201	9.584391E-010	0.0043463	6
	46	64	24.93351	31479.99	-85700.86	1	91299.66	-69.8305	6.339202E-010	0.004346	6
	47	66	19.86229	37484.53	-102952.7	1	109564.3	-69.9937	3.187067E-010	0.0043507	5
	48	67	15.83615	44556.4	-123581.7	1	131368.6	-70.17363	4.794491E-010	0.0043511	5
	49	68	12.40079	54857.81	-150662.5	1	160338.9	-69.9929	4.702683E-010	0.0043601	5
	50	70	9.93114	66421.79	-179142	1	191059.4	-69.65636	6.082296E-010	0.0043425	5
	51	71	7.944915	80456.16	-213527.4	1	228182.2	-69.35381	1.154428E-010	0.0043558	5
	52	73	6.317385	98726.3	-255332.4	1	273754.5	-68.86062	1.132348E-010	0.0043706	5
	53	75	5.008013	122159	-304954.9	1	328512.3	-68.16991	1.241942E-010	0.0043473	5
	54	77	3.945707	152494.5	-364610	1	395215.2	-67.30337	2.813275E-010	0.0043528	5
	55	80	3.158693	187210.1	-428712.3	1	467805.4	-66.41006	2.872645E-010	0.0043699	5
	56	83	2.504006	232437.4	-506603.6	1	557381.7	-65.35362	-1.395715E-011	0.0043487	5
	57	86	1.998082	287045.3	-590864.4	1	656898.6	-64.08926	1.423699E-010	0.0043042	5
	58	89	1.584686	353424	-689756.2	1	775030.4	-62.86986	2.758708E-010	0.0043956	5
	59	93	1.266892	429223.2	-794942.4	1	903419.1	-61.63351	-4.463668E-011	0.0043713	5
	60	97	0.999041	524422.7	-920696.2	1	1059576	-60.33443	2.83503E-010	0.0043609	4
