EXPLAIN
TAG	EISPOT
TITLE	LABEL	Potentiostatic EIS	Test &Identifier
DATE	LABEL	8/14/2018	Date
TIME	LABEL	5:35:41	Time
NOTES	NOTES	1	&Notes...
	
PSTAT	PSTAT	REF600-11020	Potentiostat
VDC	POTEN	0.00000E+000	T	DC &Voltage (V)
FREQINIT	QUANT	1.00000E+006	Initial Fre&q. (Hz)
FREQFINAL	QUANT	1.00000E+000	Final Fre&q. (Hz)
PTSPERDEC	QUANT	1.00000E+001	Points/&decade
VAC	QUANT	2.50000E+001	AC &Voltage (mV rms)
AREA	QUANT	1.00000E-002	&Area (cm^2)
CONDIT	TWOPARAM	T	5.00000E+000	0.00000E+000	Conditionin&g	Time(s)	E(V)
DELAY	TWOPARAM	T	5.00000E+000	0.00000E+000	Init. De&lay	Time(s)	Stab.(mV/s)
SPEED	SELECTOR	0	&Optimize for:
ZGUESS	QUANT	1.00000E+005	E&stimated Z (ohms)
OCVCURVE	TABLE	19
	Pt	T	Vf	Vm	Ach	Over
	#	s	V vs. Ref.	V	V	bits
	0	0.258333	3.20233E-002	3.20233E-002	5.56133E-004	...........
	1	0.516667	3.20638E-002	3.41446E-002	5.57199E-004	...........
	2	0.775	3.23144E-002	3.62469E-002	5.57799E-004	...........
	3	1.03333	3.30287E-002	3.82398E-002	5.57666E-004	...........
	4	1.29167	3.43143E-002	4.00770E-002	5.60166E-004	...........
	5	1.55	3.60273E-002	4.18036E-002	5.56699E-004	...........
	6	1.80833	3.79168E-002	4.34205E-002	5.57833E-004	...........
	7	2.06667	3.97931E-002	4.50039E-002	5.48633E-004	...........
	8	2.325	4.15743E-002	4.65559E-002	5.61799E-004	...........
	9	2.58333	4.32556E-002	4.80848E-002	5.67199E-004	...........
	10	2.84167	4.48617E-002	4.95234E-002	5.66399E-004	...........
	11	3.1	4.64123E-002	5.08501E-002	5.54099E-004	...........
	12	3.35833	4.79076E-002	5.21139E-002	5.54966E-004	...........
	13	3.61667	4.93370E-002	5.33637E-002	5.54033E-004	...........
	14	3.875	5.06956E-002	5.45426E-002	5.55666E-004	...........
	15	4.13333	5.19909E-002	5.57362E-002	5.56466E-004	...........
	16	4.39167	5.32361E-002	5.68854E-002	5.56432E-004	...........
	17	4.65	5.44485E-002	5.82339E-002	5.46999E-004	...........
	18	4.90833	5.56551E-002	5.96155E-002	5.52632E-004	...........
EOC	QUANT	0.0556551	Open Circuit (V)
PSTATMODEL	IQUANT	4	Pstat Model
PSTATSECTION	LABEL	REF600-11020	Pstat Section
PSTATSERIALNO	LABEL	11020	Pstat Serial Number
CTRLMODE	IQUANT	1	Control Mode
IESTAB	IQUANT	0	I/E Stability
CASPEED	IQUANT	1	Control Amp Speed
CONVENTION	IQUANT	1	Current Convention
ICHRANGE	IQUANT	2	Ich Range
ICHRANGEMODE	TOGGLE	F	Ich Auto Range
ICHOFFSETENABLE	TOGGLE	T	Ich Offset Enable
ICHOFFSET	QUANT	0	Ich Offset (V)
ICHFILTER	IQUANT	3	Ich Filter
VCHRANGE	IQUANT	2	Vch Range
VCHRANGEMODE	TOGGLE	F	Vch Auto Range
VCHOFFSETENABLE	TOGGLE	T	Vch Offset Enable
VCHOFFSET	QUANT	0	Vch Offset (V)
VCHFILTER	IQUANT	3	Vch Filter
ACHRANGE	IQUANT	2	Ach Range
ACHOFFSETENABLE	TOGGLE	F	Ach Offset Enable
ACHOFFSET	QUANT	0	Ach Offset (V)
ACHFILTER	IQUANT	3	Ach Filter
IERANGELOWERLIMIT	IQUANT	1	I/E Range Lower Limit
IERANGEMODE	TOGGLE	F	I/E AutoRange
IERANGE	IQUANT	6	I/E Range
POSFEEDENABLE	TOGGLE	F	Positive Feedback IR Comp
POSFEEDRESISTANCE	QUANT	0	Positive Feedback Resistance (ohm)
ACHSELECT	IQUANT	0	Ach Select
CABLEID	IQUANT	14	Cable ID
DCCALDATE	LABEL	8/19/2019	DC Calibration Date
ACCALDATE	LABEL	8/19/2019	AC Calibration Date
THERMOSELECT	IQUANT	1	Thermo Select
FRAMEWORKVERSION	QUANT	6.33	Framework Version
INSTRUMENTVERSION	LABEL	3.50	Instrument Version
ZCURVE	TABLE
	Pt	Time	Freq	Zreal	Zimag	Zsig	Zmod	Zphz	Idc	Vdc	IERange
	#	s	Hz	ohm	ohm	V	ohm	°	A	V	#
	0	1	1000078	2405.354	-1750.932	1	2975.146	-36.05204	-2.764502E-006	0.0587059	8
	1	1	794390.6	2736.315	-1752.027	1	3249.156	-32.63091	2.947688E-006	0.0573121	8
	2	2	630984.4	3058.998	-1676.466	1	3488.267	-28.72468	-5.840466E-007	0.0573885	8
	3	2	501234.4	3361.311	-1566.825	1	3708.551	-24.99187	1.594531E-006	0.0570442	8
	4	2	398109.4	3628.826	-1414.156	1	3894.639	-21.29089	-4.20369E-006	0.0581111	8
	5	3	316265.6	3840.284	-1260.181	1	4041.762	-18.16714	-1.00629E-006	0.0575605	8
	6	3	251203.1	4023.797	-1132.588	1	4180.156	-15.72044	1.601559E-006	0.0570095	8
	7	3	199546.9	4146.78	-991.482	1	4263.663	-13.4468	-2.988179E-006	0.0579132	8
	8	4	158578.1	4275.189	-872.0482	1	4363.223	-11.52897	-2.191707E-006	0.0577739	8
	9	4	125953.1	4377.086	-686.274	1	4430.559	-8.91074	-1.086995E-007	0.0571896	7
	10	4	100078.1	4426.636	-615.1109	1	4469.168	-7.910977	-3.962025E-008	0.0573563	7
	11	5	79453.13	4501.317	-566.2344	1	4536.792	-7.169751	-6.750532E-008	0.0574898	7
	12	5	63140.62	4549.652	-525.6199	1	4579.914	-6.590148	-6.708807E-008	0.0574882	7
	13	5	50203.12	4596.761	-497.553	1	4623.61	-6.177639	-6.926177E-008	0.0573819	7
	14	6	39890.62	4639.943	-483.7977	1	4665.097	-5.952608	-3.719338E-008	0.0573394	7
	15	6	31640.63	4681.494	-480.9447	1	4706.133	-5.8656	-7.0502E-009	0.0573177	7
	16	6	25171.88	4723.184	-490.218	1	4748.555	-5.925498	-7.029476E-008	0.0574887	7
	17	7	20015.62	4766.314	-511.8893	1	4793.723	-6.129917	-6.78022E-008	0.057381	7
	18	7	15890.62	4811.502	-548.8145	1	4842.701	-6.507206	-1.576388E-008	0.0572934	7
	19	7	12609.37	4858.839	-595.4312	1	4895.187	-6.986533	3.932957E-008	0.0572171	7
	20	7	10078.13	4892.216	-665.082	1	4937.217	-7.741727	3.029306E-009	0.0572009	7
	21	8	8015.625	4953.785	-745.2157	1	5009.524	-8.555061	-6.737403E-008	0.0574733	7
	22	8	6328.125	5015.501	-847.5916	1	5086.616	-9.59204	9.064281E-008	0.0571945	7
	23	8	5015.625	5072.529	-981.294	1	5166.574	-10.94878	-1.587642E-008	0.0572935	7
	24	9	3984.375	5139.973	-1147.071	1	5266.412	-12.58037	-2.944701E-008	0.0572535	7
	25	9	3170.956	5206.626	-1344.098	1	5377.319	-14.47496	3.180197E-008	0.0571461	7
	26	9	2527.573	5284.484	-1589.586	1	5518.383	-16.74142	-2.728107E-008	0.0572506	7
	27	10	1976.103	5379.33	-1927.245	1	5714.146	-19.71101	-2.850467E-008	0.0572505	7
	28	10	1577.524	5474.691	-2300.304	1	5938.32	-22.79071	-6.740061E-008	0.0574743	7
	29	10	1265.625	5593.698	-2731.145	1	6224.838	-26.02413	2.926553E-008	0.0571398	7
	30	11	998.264	5737.82	-3322.448	1	6630.328	-30.07271	7.440482E-008	0.0571	7
	31	11	796.875	5890.497	-4005.582	1	7123.387	-34.21599	-6.781551E-008	0.0574671	7
	32	11	627.7902	6086.981	-4894.82	1	7810.929	-38.80436	-1.888131E-008	0.0572825	7
	33	12	505.5147	6294.493	-5877.022	1	8611.622	-43.03558	3.02127E-008	0.0571318	7
	34	12	397.9953	6569.131	-7219.008	1	9760.51	-47.69853	-1.386107E-009	0.0572778	7
	35	12	315.5048	6891.933	-8822.415	1	11195.26	-52.0036	-2.66651E-009	0.0572186	6
	36	13	252.4038	7264.134	-10725.29	1	12953.74	-55.89059	-2.747119E-009	0.0572147	6
	37	13	198.6229	7764.866	-13242.52	1	15351.14	-59.6144	-2.16265E-009	0.0572194	6
	38	13	158.3615	8357.275	-16174.76	1	18206.23	-62.67522	-1.604323E-009	0.0572132	6
	39	14	125.558	9148.431	-19872.53	1	21877.19	-65.28075	-1.882423E-009	0.0572163	6
	40	14	100.4464	10091.97	-24228.11	1	26245.94	-67.38634	-3.352791E-009	0.0572166	6
	41	14	79.00281	11461.06	-29873.02	1	31996.14	-69.01023	-3.230541E-009	0.0572131	6
	42	15	63.3446	13541.51	-36645.87	1	39067.79	-69.71954	-1.767021E-009	0.0572135	6
	43	15	49.86702	15823.63	-45086.48	1	47782.61	-70.66088	-1.282116E-009	0.0572117	6
	44	15	39.72458	18667.54	-54454.79	1	57565.62	-71.07787	-2.350221E-009	0.0572152	6
	45	16	31.6723	22483.78	-65783.55	1	69519.75	-71.13039	-2.571678E-009	0.0572097	6
	46	16	24.93351	28099.87	-80559.72	1	85319.81	-70.77083	-2.916813E-009	0.0572127	6
	47	16	19.86229	35019.81	-96861.8	1	102998	-70.12284	-3.280438E-009	0.057212	6
	48	16	15.83615	45235.65	-116853.9	1	125304.1	-68.83794	-9.068685E-011	0.0572151	5
	49	17	12.40079	57428.27	-140229.7	1	151533.4	-67.72943	-2.6855E-009	0.0572205	5
	50	17	9.93114	71670.74	-164300.3	1	179252	-66.4323	-1.237451E-009	0.0572162	5
	51	18	7.944915	90438.03	-192803.2	1	212960.4	-64.87018	-1.963572E-009	0.0572212	5
	52	18	6.317385	113506.5	-223917.8	1	251043.7	-63.11902	-1.777081E-009	0.0572144	5
	53	19	5.008013	142013.4	-258527.3	1	294964.7	-61.21926	-1.769159E-009	0.0572243	5
	54	20	3.945707	177507	-297938.7	1	346808.6	-59.2142	-2.301645E-009	0.0572134	5
	55	22	3.158693	213207.9	-335658	1	397648	-57.57653	-1.993715E-009	0.0571998	5
	56	23	2.504006	256038.8	-379034.1	1	457408.7	-55.96084	-1.676856E-009	0.0572081	5
	57	25	1.998082	300236.6	-423880.4	1	519438.7	-54.68987	-1.824825E-009	0.0571921	5
	58	26	1.584686	351022.5	-476894.9	1	592153.3	-53.64476	-1.875381E-009	0.0571631	5
	59	28	1.266892	402299.9	-535806.9	1	670025.6	-53.09968	-1.796555E-009	0.0571799	5
	60	31	0.999041	461146.3	-606785.1	1	762131.3	-52.76579	-1.705969E-009	0.0572085	5
