EXPLAIN
TAG	EISPOT
TITLE	LABEL	Potentiostatic IDE	Test &Identifier
DATE	LABEL	9/8/2019	Date
TIME	LABEL	9:00:22	Time
NOTES	NOTES	1	&Notes...
	
PSTAT	PSTAT	REF600-11020	Potentiostat
VDC	POTEN	0.00000E+000	T	DC &Voltage (V)
FREQINIT	QUANT	1.00000E+006	Initial Fre&q. (Hz)
FREQFINAL	QUANT	1.00000E+000	Final Fre&q. (Hz)
PTSPERDEC	QUANT	1.00000E+001	Points/&decade
VAC	QUANT	2.50000E+001	AC &Voltage (mV rms)
AREA	QUANT	1.00000E-002	&Area (cm^2)
CONDIT	TWOPARAM	T	5.00000E+000	0.00000E+000	Conditionin&g	Time(s)	E(V)
DELAY	TWOPARAM	T	5.00000E+000	0.00000E+000	Init. De&lay	Time(s)	Stab.(mV/s)
SPEED	SELECTOR	1	&Optimize for:
ZGUESS	QUANT	1.00000E+007	E&stimated Z (ohms)
OCVCURVE	TABLE	19
	Pt	T	Vf	Vm	Ach	Over
	#	s	V vs. Ref.	V	V	bits
	0	0.258333	5.08307E-002	5.08307E-002	5.39533E-004	...........
	1	0.516667	5.08958E-002	5.42408E-002	5.40533E-004	...........
	2	0.775	5.12941E-002	5.73821E-002	5.43699E-004	...........
	3	1.03333	5.24129E-002	6.02838E-002	5.47133E-004	...........
	4	1.29167	5.43923E-002	6.29813E-002	5.45733E-004	...........
	5	1.55	5.69828E-002	6.54986E-002	5.43499E-004	...........
	6	1.80833	5.97966E-002	6.78599E-002	5.43033E-004	...........
	7	2.06667	6.25584E-002	7.00781E-002	5.46333E-004	...........
	8	2.325	6.51530E-002	7.21667E-002	5.43466E-004	...........
	9	2.58333	6.75643E-002	7.41403E-002	5.48233E-004	...........
	10	2.84167	6.98128E-002	7.60160E-002	5.47866E-004	...........
	11	3.1	7.19232E-002	7.77937E-002	5.44633E-004	...........
	12	3.35833	7.39148E-002	7.94865E-002	5.48699E-004	...........
	13	3.61667	7.58013E-002	8.10949E-002	5.47799E-004	...........
	14	3.875	7.75921E-002	8.26352E-002	5.47733E-004	...........
	15	4.13333	7.92951E-002	8.41033E-002	5.47533E-004	...........
	16	4.39167	8.09173E-002	8.55129E-002	5.45933E-004	...........
	17	4.65	8.24676E-002	8.69972E-002	5.41099E-004	...........
	18	4.90833	8.39637E-002	8.84707E-002	5.48733E-004	...........
EOC	QUANT	0.0839637	Open Circuit (V)
PSTATMODEL	IQUANT	4	Pstat Model
PSTATSECTION	LABEL	REF600-11020	Pstat Section
PSTATSERIALNO	LABEL	11020	Pstat Serial Number
CTRLMODE	IQUANT	1	Control Mode
IESTAB	IQUANT	0	I/E Stability
CASPEED	IQUANT	1	Control Amp Speed
CONVENTION	IQUANT	1	Current Convention
ICHRANGE	IQUANT	2	Ich Range
ICHRANGEMODE	TOGGLE	F	Ich Auto Range
ICHOFFSETENABLE	TOGGLE	T	Ich Offset Enable
ICHOFFSET	QUANT	0	Ich Offset (V)
ICHFILTER	IQUANT	3	Ich Filter
VCHRANGE	IQUANT	2	Vch Range
VCHRANGEMODE	TOGGLE	F	Vch Auto Range
VCHOFFSETENABLE	TOGGLE	T	Vch Offset Enable
VCHOFFSET	QUANT	0	Vch Offset (V)
VCHFILTER	IQUANT	3	Vch Filter
ACHRANGE	IQUANT	2	Ach Range
ACHOFFSETENABLE	TOGGLE	F	Ach Offset Enable
ACHOFFSET	QUANT	0	Ach Offset (V)
ACHFILTER	IQUANT	3	Ach Filter
IERANGELOWERLIMIT	IQUANT	1	I/E Range Lower Limit
IERANGEMODE	TOGGLE	F	I/E AutoRange
IERANGE	IQUANT	4	I/E Range
POSFEEDENABLE	TOGGLE	F	Positive Feedback IR Comp
POSFEEDRESISTANCE	QUANT	0	Positive Feedback Resistance (ohm)
ACHSELECT	IQUANT	0	Ach Select
CABLEID	IQUANT	14	Cable ID
DCCALDATE	LABEL	8/19/2019	DC Calibration Date
ACCALDATE	LABEL	8/19/2019	AC Calibration Date
THERMOSELECT	IQUANT	1	Thermo Select
FRAMEWORKVERSION	QUANT	6.33	Framework Version
INSTRUMENTVERSION	LABEL	3.50	Instrument Version
ZCURVE	TABLE
	Pt	Time	Freq	Zreal	Zimag	Zsig	Zmod	Zphz	Idc	Vdc	IERange
	#	s	Hz	ohm	ohm	V	ohm	°	A	V	#
	0	2	1000078	2362.332	-1778.324	1	2956.865	-36.97182	-1.047534E-006	0.0860107	8
	1	3	794390.6	2715.555	-1751.606	1	3231.465	-32.8231	3.712363E-006	0.0853515	8
	2	5	630984.4	3043.735	-1666.546	1	3470.115	-28.70217	-1.811453E-006	0.08601	8
	3	6	501234.4	3318.069	-1559.297	1	3666.196	-25.17076	7.018144E-006	0.084467	8
	4	8	398109.4	3541.543	-1406.045	1	3810.445	-21.6538	-9.843395E-007	0.0860043	8
	5	9	316265.6	3744.158	-1282.344	1	3957.667	-18.90592	2.278243E-006	0.0852116	8
	6	11	251203.1	3916.272	-1153.181	1	4082.526	-16.40754	2.24038E-006	0.0849881	8
	7	12	199546.9	4057.48	-1036.393	1	4187.751	-14.32857	-4.252653E-007	0.0859409	8
	8	14	158578.1	4191.17	-937.5959	1	4294.764	-12.60987	1.911943E-006	0.0851208	8
	9	16	125953.1	4292.45	-841.3963	1	4374.137	-11.09037	5.624797E-007	0.0841659	7
	10	17	100078.1	4372.011	-803.4023	1	4445.215	-10.41253	-4.66837E-008	0.0857257	7
	11	18	79453.13	4444.988	-785.5379	1	4513.867	-10.02208	-3.79841E-008	0.0855885	7
	12	20	63140.62	4521.161	-784.17	1	4588.662	-9.83974	2.466663E-008	0.0854757	7
	13	21	50203.12	4599.201	-796.9742	1	4667.742	-9.8309	-1.38308E-008	0.0856097	7
	14	22	39890.62	4677.201	-827.0679	1	4749.763	-10.02793	3.739494E-008	0.0855362	7
	15	24	31640.63	4760.902	-877.7248	1	4841.135	-10.44582	-4.986384E-008	0.0856027	7
	16	25	25171.88	4848.575	-943.882	1	4939.594	-11.01611	-6.122946E-008	0.0856885	7
	17	26	20015.62	4944.644	-1027.524	1	5050.278	-11.7393	1.501275E-007	0.0853439	7
	18	28	15890.62	5052.33	-1136.457	1	5178.568	-12.67696	-1.402145E-008	0.0856041	7
	19	29	12609.37	5170.047	-1264.145	1	5322.354	-13.73999	2.549019E-008	0.0854703	7
	20	30	10078.13	5301.497	-1410.54	1	5485.936	-14.8992	9.004582E-008	0.0854098	7
	21	32	8015.625	5445.42	-1592.64	1	5673.544	-16.30279	3.656513E-008	0.0855297	7
	22	33	6328.125	5618.035	-1811.86	1	5902.979	-17.87492	-3.500557E-008	0.0855704	7
	23	34	5015.625	5810.228	-2062.406	1	6165.409	-19.54289	-1.298023E-008	0.0856055	7
	24	36	3984.375	6023.677	-2352.939	1	6466.916	-21.33637	-5.115622E-008	0.0856008	7
	25	37	3170.956	6270.421	-2685.549	1	6821.316	-23.18489	-4.451891E-008	0.0857051	7
	26	38	2527.573	6545.218	-3067.991	1	7228.585	-25.11426	-2.473747E-008	0.0855614	7
	27	40	1976.103	6889.587	-3551.182	1	7750.956	-27.26848	9.775346E-008	0.0853643	7
	28	41	1577.524	7248.278	-4070.756	1	8313.157	-29.31931	-3.580709E-008	0.0855725	7
	29	43	1265.625	7652.339	-4653.52	1	8956.201	-31.30451	-6.038263E-008	0.085682	7
	30	44	998.264	8150.526	-5360.657	1	9755.39	-33.33319	-3.141122E-009	0.0855312	6
	31	45	796.875	8691.429	-6159.665	1	10652.81	-35.32542	-7.721678E-009	0.0855731	6
	32	47	627.7902	9340.748	-7120.393	1	11745.19	-37.31804	1.85376E-009	0.0853986	6
	33	48	505.5147	10013.72	-8127.473	1	12896.91	-39.06396	-7.937525E-009	0.0855822	6
	34	49	397.9953	10848.58	-9409.71	1	14360.86	-40.93731	-1.52177E-009	0.0855254	6
	35	51	315.5048	11750.01	-10846.02	1	15990.59	-42.70902	-1.072666E-009	0.085521	6
	36	52	252.4038	12696.34	-12444.69	1	17778.29	-44.42651	-1.839371E-009	0.085522	6
	37	53	198.6229	13783.59	-14463.11	1	19979.21	-46.37809	-1.080685E-009	0.0855248	6
	38	55	158.3615	14882.16	-16742.46	1	22400.64	-48.36652	-1.7173E-009	0.0855248	6
	39	56	125.558	16058.71	-19561.9	1	25309.09	-50.61683	-1.063759E-009	0.0855216	6
	40	57	100.4464	17252.67	-22896.57	1	28668.93	-53.00182	-1.290269E-009	0.0855239	6
	41	59	79.00281	18587.71	-27337.94	1	33058.52	-55.78729	-1.163609E-009	0.0855186	6
	42	60	63.3446	20062.32	-31980.97	1	37752.87	-57.89911	-1.557932E-009	0.085516	6
	43	61	49.86702	21594.06	-39293.87	1	44836.5	-61.20888	-1.305948E-009	0.0855152	6
	44	63	39.72458	23402.26	-47064.08	1	52561.33	-63.56148	-1.191675E-009	0.0855209	6
	45	64	31.6723	25550.92	-57136.08	1	62588.98	-65.90609	-7.872981E-010	0.0855152	6
	46	65	24.93351	28407.49	-70020.3	1	75563.41	-67.91743	-1.52595E-009	0.0855204	6
	47	67	19.86229	32106.58	-85282.46	1	91125.91	-69.36997	-2.327457E-010	0.0855143	6
	48	68	15.83615	36942.98	-103002.7	1	109427.4	-70.26911	-2.732972E-009	0.08552	5
	49	70	12.40079	42678.52	-128103.1	1	135025.4	-71.57411	-4.842691E-010	0.0855242	5
	50	71	9.93114	50971.27	-155621	1	163755.8	-71.86458	-1.512619E-009	0.0855225	5
	51	73	7.944915	61874.36	-188784.3	1	198665.4	-71.85336	-1.448893E-009	0.0855209	5
	52	74	6.317385	75304.68	-227946.5	1	240063.3	-71.71845	-1.133363E-009	0.0855148	5
	53	76	5.008013	93668.34	-276102.8	1	291558.8	-71.26041	-1.508737E-009	0.0855203	5
	54	79	3.945707	118429.7	-334550.7	1	354894	-70.50623	-1.407831E-009	0.0855182	5
	55	81	3.158693	147709.6	-398358	1	424861.4	-69.65542	-1.195925E-009	0.0855347	5
	56	85	2.504006	186647.9	-475612.3	1	510925.2	-68.57312	-1.492925E-009	0.0855248	5
	57	88	1.998082	233819.2	-561780.9	1	608497.6	-67.4024	-1.277588E-009	0.0854798	5
	58	91	1.584686	291033.2	-661953.4	1	723106.2	-66.26692	-1.309055E-009	0.085477	5
	59	94	1.266892	360140.8	-770785.8	1	850771.5	-64.95621	-1.108192E-009	0.0854839	5
	60	98	0.999041	445976.4	-906645.3	1	1010396	-63.80755	-1.264269E-009	0.0855141	5
