EXPLAIN
TAG	EISPOT
TITLE	LABEL	Potentiostatic EIS	Test &Identifier
DATE	LABEL	10/6/2019	Date
TIME	LABEL	9:44:11	Time
NOTES	NOTES	2	&Notes...
	
	
PSTAT	PSTAT	REF600-11020	Potentiostat
VDC	POTEN	0.00000E+000	T	DC &Voltage (V)
FREQINIT	QUANT	1.00000E+006	Initial Fre&q. (Hz)
FREQFINAL	QUANT	1.00000E+000	Final Fre&q. (Hz)
PTSPERDEC	QUANT	1.00000E+001	Points/&decade
VAC	QUANT	2.50000E+001	AC &Voltage (mV rms)
AREA	QUANT	1.00000E-002	&Area (cm^2)
CONDIT	TWOPARAM	T	5.00000E+000	0.00000E+000	Conditionin&g	Time(s)	E(V)
DELAY	TWOPARAM	T	5.00000E+000	0.00000E+000	Init. De&lay	Time(s)	Stab.(mV/s)
SPEED	SELECTOR	1	&Optimize for:
ZGUESS	QUANT	1.00000E+004	E&stimated Z (ohms)
OCVCURVE	TABLE	19
	Pt	T	Vf	Vm	Ach	Over
	#	s	V vs. Ref.	V	V	bits
	0	0.258333	9.84493E-003	9.84493E-003	5.46799E-004	...........
	1	0.516667	9.84877E-003	1.00456E-002	5.51966E-004	...........
	2	0.775	9.87266E-003	1.02542E-002	5.45299E-004	...........
	3	1.03333	9.94133E-003	1.04504E-002	5.47099E-004	...........
	4	1.29167	1.00662E-002	1.06405E-002	5.43633E-004	...........
	5	1.55	1.02346E-002	1.08237E-002	5.48033E-004	...........
	6	1.80833	1.04238E-002	1.10077E-002	5.45666E-004	...........
	7	2.06667	1.06167E-002	1.11821E-002	5.45699E-004	...........
	8	2.325	1.08055E-002	1.13556E-002	5.47933E-004	...........
	9	2.58333	1.09885E-002	1.15225E-002	5.46333E-004	...........
	10	2.84167	1.11659E-002	1.16851E-002	5.49199E-004	...........
	11	3.1	1.13381E-002	1.18281E-002	5.48533E-004	...........
	12	3.35833	1.15030E-002	1.19167E-002	5.47166E-004	...........
	13	3.61667	1.16554E-002	1.20222E-002	5.48399E-004	...........
	14	3.875	1.17915E-002	1.21905E-002	5.42066E-004	...........
	15	4.13333	1.19190E-002	1.24507E-002	5.47399E-004	...........
	16	4.39167	1.20582E-002	1.26415E-002	5.37466E-004	...........
	17	4.65	1.22237E-002	1.27933E-002	5.44166E-004	...........
	18	4.90833	1.24095E-002	1.29536E-002	5.46933E-004	...........
EOC	QUANT	0.0124095	Open Circuit (V)
PSTATMODEL	IQUANT	4	Pstat Model
PSTATSECTION	LABEL	REF600-11020	Pstat Section
PSTATSERIALNO	LABEL	11020	Pstat Serial Number
CTRLMODE	IQUANT	1	Control Mode
IESTAB	IQUANT	0	I/E Stability
CASPEED	IQUANT	1	Control Amp Speed
CONVENTION	IQUANT	1	Current Convention
ICHRANGE	IQUANT	2	Ich Range
ICHRANGEMODE	TOGGLE	F	Ich Auto Range
ICHOFFSETENABLE	TOGGLE	T	Ich Offset Enable
ICHOFFSET	QUANT	0	Ich Offset (V)
ICHFILTER	IQUANT	3	Ich Filter
VCHRANGE	IQUANT	2	Vch Range
VCHRANGEMODE	TOGGLE	F	Vch Auto Range
VCHOFFSETENABLE	TOGGLE	T	Vch Offset Enable
VCHOFFSET	QUANT	0	Vch Offset (V)
VCHFILTER	IQUANT	3	Vch Filter
ACHRANGE	IQUANT	2	Ach Range
ACHOFFSETENABLE	TOGGLE	F	Ach Offset Enable
ACHOFFSET	QUANT	0	Ach Offset (V)
ACHFILTER	IQUANT	3	Ach Filter
IERANGELOWERLIMIT	IQUANT	1	I/E Range Lower Limit
IERANGEMODE	TOGGLE	F	I/E AutoRange
IERANGE	IQUANT	6	I/E Range
POSFEEDENABLE	TOGGLE	F	Positive Feedback IR Comp
POSFEEDRESISTANCE	QUANT	0	Positive Feedback Resistance (ohm)
ACHSELECT	IQUANT	0	Ach Select
CABLEID	IQUANT	14	Cable ID
DCCALDATE	LABEL	8/19/2019	DC Calibration Date
ACCALDATE	LABEL	8/19/2019	AC Calibration Date
THERMOSELECT	IQUANT	1	Thermo Select
FRAMEWORKVERSION	QUANT	6.33	Framework Version
INSTRUMENTVERSION	LABEL	3.50	Instrument Version
ZCURVE	TABLE
	Pt	Time	Freq	Zreal	Zimag	Zsig	Zmod	Zphz	Idc	Vdc	IERange
	#	s	Hz	ohm	ohm	V	ohm	°	A	V	#
	0	1	1000078	2393.044	-2001.89	1	3119.972	-39.914	-1.524353E-006	0.0150825	8
	1	3	794390.6	2776.588	-1972.638	1	3405.986	-35.39204	-2.432027E-006	0.0152734	8
	2	4	630984.4	3174.799	-1936.083	1	3718.57	-31.37602	1.0441E-006	0.0143484	8
	3	6	501234.4	3538.462	-1819.291	1	3978.76	-27.20984	-2.602156E-006	0.0147064	8
	4	7	398109.4	3854.447	-1650.066	1	4192.789	-23.17548	-2.158544E-006	0.0147783	8
	5	9	316265.6	4113.269	-1503.058	1	4379.289	-20.07316	-3.974717E-007	0.0141327	8
	6	10	251203.1	4312.375	-1301.39	1	4504.463	-16.79278	-4.430065E-006	0.0148908	8
	7	12	199546.9	4470.621	-1153.979	1	4617.155	-14.47354	-2.09477E-006	0.0145444	8
	8	13	158578.1	4587.465	-998.004	1	4694.768	-12.27347	-1.997722E-006	0.0144571	8
	9	14	125953.1	4728.619	-826.3079	1	4800.273	-9.91213	6.01634E-007	0.0125152	7
	10	16	100078.1	4794.268	-728.9022	1	4849.361	-8.64483	-8.369113E-009	0.0139974	7
	11	17	79453.13	4857.33	-664.4336	1	4902.563	-7.789142	5.775707E-008	0.0139549	7
	12	18	63140.62	4910.526	-612.4234	1	4948.569	-7.109019	1.884396E-008	0.0141328	7
	13	20	50203.12	4961.195	-581.9505	1	4995.21	-6.690248	-4.952942E-008	0.0141541	7
	14	21	39890.62	5008.579	-564.3951	1	5040.278	-6.429292	-6.29226E-009	0.0139789	7
	15	23	31640.63	5053.605	-563.2152	1	5084.893	-6.359269	-8.284747E-009	0.0140233	7
	16	24	25171.88	5100.575	-577.1316	1	5133.122	-6.455578	1.892053E-008	0.0141326	7
	17	25	20015.62	5153.133	-611.6276	1	5189.303	-6.768795	-1.253687E-008	0.0140658	7
	18	27	15890.62	5200.586	-649.6627	1	5241.007	-7.120563	4.838392E-008	0.0139855	7
	19	28	12609.37	5252.218	-707.1813	1	5299.613	-7.668433	-4.785818E-009	0.0139851	7
	20	29	10078.13	5310.38	-783.7516	1	5367.905	-8.395596	1.10594E-007	0.0139376	7
	21	31	8015.625	5366.642	-887.6478	1	5439.555	-9.391749	-6.992283E-008	0.0141665	7
	22	32	6328.125	5435.71	-1010.239	1	5528.791	-10.52842	8.668916E-008	0.0138565	7
	23	33	5015.625	5507.473	-1169.355	1	5630.245	-11.98712	-6.91024E-008	0.0141674	7
	24	35	3984.375	5579.396	-1369.911	1	5745.113	-13.79497	1.109534E-007	0.0139262	7
	25	36	3170.956	5670.128	-1599.567	1	5891.432	-15.75399	-8.083838E-008	0.014276	7
	26	37	2527.573	5764.521	-1889.505	1	6066.294	-18.14821	5.152027E-008	0.0138807	7
	27	39	1976.103	5883.57	-2275.88	1	6308.41	-21.14745	-8.45703E-008	0.0141453	7
	28	41	1577.524	6008.151	-2725.395	1	6597.398	-24.39982	4.886648E-008	0.0139832	7
	29	42	1265.625	6156.722	-3235.149	1	6954.956	-27.72041	6.007409E-008	0.0139385	7
	30	43	998.264	6339.193	-3920.433	1	7453.534	-31.73445	2.128179E-008	0.0141313	7
	31	45	796.875	6546.838	-4712.569	1	8066.561	-35.74723	-8.03985E-008	0.0142817	7
	32	46	627.7902	6808.939	-5732.669	1	8900.851	-40.09512	-5.678892E-008	0.0141051	7
	33	47	505.5147	7099.518	-6870.149	1	9879.38	-44.05935	5.604875E-009	0.013752	6
	34	49	397.9953	7489.911	-8389.011	1	11246.08	-48.24075	7.828218E-010	0.0139962	6
	35	50	315.5048	7941.672	-10202.6	1	12929.16	-52.10293	7.784914E-010	0.0139984	6
	36	51	252.4038	8470.877	-12328.46	1	14958.16	-55.50706	1.212198E-009	0.0139981	6
	37	53	198.6229	9176.664	-15122.69	1	17689.17	-58.75002	6.787247E-010	0.0139951	6
	38	54	158.3615	10023.29	-18357.65	1	20915.78	-61.36544	8.54459E-010	0.0139942	6
	39	56	125.558	11124.76	-22411.16	1	25020.4	-63.60049	5.609346E-010	0.013996	6
	40	57	100.4464	12496.14	-27154.12	1	29891.47	-65.28843	8.334411E-010	0.0139946	6
	41	58	79.00281	14512.64	-33250.59	1	36279.73	-66.42052	8.55137E-010	0.0139926	6
	42	60	63.3446	17196.85	-40242.51	1	43762.89	-66.86151	-1.105596E-010	0.0139954	6
	43	61	49.86702	20052.28	-48999.42	1	52943.72	-67.7439	-2.597223E-010	0.0139901	6
	44	63	39.72458	24613.07	-58847.66	1	63787.54	-67.30285	8.046719E-010	0.0139948	6
	45	64	31.6723	30365.82	-70088.71	1	76383.97	-66.57541	3.047839E-010	0.0139959	6
	46	65	24.93351	38083.43	-84197.58	1	92409.84	-65.66228	8.159755E-010	0.013995	6
	47	67	19.86229	47433.36	-99072.9	1	109842.4	-64.41618	8.40366E-010	0.0139994	5
	48	68	15.83615	58780.94	-116035.5	1	130074.8	-63.13427	-8.15855E-011	0.0140026	5
	49	69	12.40079	75151.62	-134858.1	1	154384.2	-60.87064	1.552027E-009	0.0139979	5
	50	71	9.93114	91100.39	-154562.8	1	179412.8	-59.48462	-3.764127E-011	0.0140012	5
	51	72	7.944915	109024	-174799	1	206011.9	-58.04778	8.35001E-010	0.0139951	5
	52	74	6.317385	130896.6	-197336.8	1	236803.2	-56.44307	4.502794E-010	0.0140102	5
	53	76	5.008013	154263.2	-222564.6	1	270799.1	-55.27353	3.693006E-010	0.0140044	5
	54	79	3.945707	180132.4	-251729.4	1	309540.6	-54.41327	5.751589E-011	0.0140015	5
	55	81	3.158693	205461.2	-282768.9	1	349531.9	-53.99767	6.878864E-011	0.0140109	5
	56	85	2.504006	233575.1	-321314.4	1	397240.8	-53.98523	3.220821E-012	0.0139879	5
	57	87	1.998082	262591.4	-365561.8	1	450099.7	-54.30945	-1.887715E-010	0.0140146	5
	58	91	1.584686	296775.7	-420691.3	1	514836.9	-54.79903	9.718659E-011	0.014049	5
	59	94	1.266892	332076.5	-483596.5	1	586634.8	-55.52336	-1.60587E-010	0.0140166	5
	60	98	0.999041	375427.7	-564557.9	1	677990.9	-56.37633	1.816571E-010	0.0139889	5
