EXPLAIN
TAG	EISPOT
TITLE	LABEL	Potentiostatic EIS	Test &Identifier
DATE	LABEL	9/26/2019	Date
TIME	LABEL	9:54:42	Time
NOTES	NOTES	2	&Notes...
	
	
PSTAT	PSTAT	REF600-11020	Potentiostat
VDC	POTEN	0.00000E+000	T	DC &Voltage (V)
FREQINIT	QUANT	1.00000E+006	Initial Fre&q. (Hz)
FREQFINAL	QUANT	1.00000E+000	Final Fre&q. (Hz)
PTSPERDEC	QUANT	1.00000E+001	Points/&decade
VAC	QUANT	2.50000E+001	AC &Voltage (mV rms)
AREA	QUANT	1.00000E-002	&Area (cm^2)
CONDIT	TWOPARAM	T	5.00000E+000	0.00000E+000	Conditionin&g	Time(s)	E(V)
DELAY	TWOPARAM	T	5.00000E+000	0.00000E+000	Init. De&lay	Time(s)	Stab.(mV/s)
SPEED	SELECTOR	1	&Optimize for:
ZGUESS	QUANT	1.00000E+004	E&stimated Z (ohms)
OCVCURVE	TABLE	19
	Pt	T	Vf	Vm	Ach	Over
	#	s	V vs. Ref.	V	V	bits
	0	0.258333	9.32683E-002	9.32683E-002	5.71732E-004	...........
	1	0.516667	9.33874E-002	9.95000E-002	5.69566E-004	...........
	2	0.775	9.41019E-002	1.04541E-001	5.67832E-004	...........
	3	1.03333	9.60708E-002	1.09520E-001	5.69532E-004	...........
	4	1.29167	9.95211E-002	1.15462E-001	5.69632E-004	...........
	5	1.55	1.04052E-001	1.18098E-001	5.70699E-004	...........
	6	1.80833	1.08978E-001	1.22527E-001	5.71166E-004	...........
	7	2.06667	1.13757E-001	1.28112E-001	5.67732E-004	...........
	8	2.325	1.18257E-001	1.30420E-001	5.68832E-004	...........
	9	2.58333	1.22546E-001	1.33869E-001	5.70166E-004	...........
	10	2.84167	1.26546E-001	1.36351E-001	5.70032E-004	...........
	11	3.1	1.30160E-001	1.40910E-001	5.72966E-004	...........
	12	3.35833	1.33536E-001	1.44908E-001	5.66766E-004	...........
	13	3.61667	1.36967E-001	1.48574E-001	5.71532E-004	...........
	14	3.875	1.40596E-001	1.51490E-001	5.69832E-004	...........
	15	4.13333	1.44264E-001	1.52954E-001	5.67232E-004	...........
	16	4.39167	1.47670E-001	1.56407E-001	5.69466E-004	...........
	17	4.65	1.50677E-001	1.59086E-001	5.65832E-004	...........
	18	4.90833	1.53391E-001	1.59803E-001	5.68032E-004	...........
EOC	QUANT	0.1533906	Open Circuit (V)
PSTATMODEL	IQUANT	4	Pstat Model
PSTATSECTION	LABEL	REF600-11020	Pstat Section
PSTATSERIALNO	LABEL	11020	Pstat Serial Number
CTRLMODE	IQUANT	1	Control Mode
IESTAB	IQUANT	0	I/E Stability
CASPEED	IQUANT	1	Control Amp Speed
CONVENTION	IQUANT	1	Current Convention
ICHRANGE	IQUANT	2	Ich Range
ICHRANGEMODE	TOGGLE	F	Ich Auto Range
ICHOFFSETENABLE	TOGGLE	T	Ich Offset Enable
ICHOFFSET	QUANT	0	Ich Offset (V)
ICHFILTER	IQUANT	3	Ich Filter
VCHRANGE	IQUANT	2	Vch Range
VCHRANGEMODE	TOGGLE	F	Vch Auto Range
VCHOFFSETENABLE	TOGGLE	T	Vch Offset Enable
VCHOFFSET	QUANT	0	Vch Offset (V)
VCHFILTER	IQUANT	3	Vch Filter
ACHRANGE	IQUANT	2	Ach Range
ACHOFFSETENABLE	TOGGLE	F	Ach Offset Enable
ACHOFFSET	QUANT	0	Ach Offset (V)
ACHFILTER	IQUANT	3	Ach Filter
IERANGELOWERLIMIT	IQUANT	1	I/E Range Lower Limit
IERANGEMODE	TOGGLE	F	I/E AutoRange
IERANGE	IQUANT	7	I/E Range
POSFEEDENABLE	TOGGLE	F	Positive Feedback IR Comp
POSFEEDRESISTANCE	QUANT	0	Positive Feedback Resistance (ohm)
ACHSELECT	IQUANT	0	Ach Select
CABLEID	IQUANT	14	Cable ID
DCCALDATE	LABEL	8/19/2019	DC Calibration Date
ACCALDATE	LABEL	8/19/2019	AC Calibration Date
THERMOSELECT	IQUANT	1	Thermo Select
FRAMEWORKVERSION	QUANT	6.33	Framework Version
INSTRUMENTVERSION	LABEL	3.50	Instrument Version
ZCURVE	TABLE
	Pt	Time	Freq	Zreal	Zimag	Zsig	Zmod	Zphz	Idc	Vdc	IERange
	#	s	Hz	ohm	ohm	V	ohm	°	A	V	#
	0	2	1000078	1866.644	-2319.207	1	2977.093	-51.1707	-4.747762E-006	0.1568992	8
	1	3	794390.6	2263.944	-2573.64	1	3427.691	-48.663	8.002498E-006	0.1544071	8
	2	5	630984.4	2729.231	-2809.381	1	3916.801	-45.82907	-2.975519E-006	0.1556191	8
	3	6	501234.4	3274.387	-2976.77	1	4425.242	-42.27421	-4.292993E-006	0.1563203	8
	4	8	398109.4	3831.859	-3082.739	1	4917.969	-38.81675	-4.086327E-006	0.1561958	8
	5	9	316265.6	4476.565	-3101.382	1	5445.935	-34.71437	1.860754E-007	0.1551918	8
	6	11	251203.1	5072.89	-3045.053	1	5916.634	-30.97471	-3.090808E-006	0.1557396	8
	7	12	199546.9	5657.079	-2915.582	1	6364.209	-27.26596	-1.762042E-007	0.155234	8
	8	14	158578.1	6130.812	-2719.465	1	6706.887	-23.9208	-9.107001E-007	0.1553063	8
	9	16	125953.1	6663.119	-2420.947	1	7089.298	-19.96787	-6.960974E-007	0.1570732	7
	10	18	100078.1	7002.358	-2169.251	1	7330.666	-17.21239	7.979099E-008	0.1548672	7
	11	19	79453.13	7291.195	-1948.52	1	7547.069	-14.96223	3.102449E-009	0.1549693	7
	12	21	63140.62	7532.601	-1741.321	1	7731.253	-13.01649	3.518895E-009	0.1549681	7
	13	22	50203.12	7722.898	-1556.875	1	7878.262	-11.39761	-1.645056E-008	0.1549875	7
	14	24	39890.62	7890.804	-1404.392	1	8014.806	-10.09174	-5.509107E-008	0.1551369	7
	15	25	31640.63	8033.555	-1278.645	1	8134.675	-9.04351	-5.912122E-008	0.1552192	7
	16	27	25171.88	8148.043	-1176.293	1	8232.513	-8.214753	-1.448779E-008	0.1550637	7
	17	29	20015.62	8254.985	-1107.464	1	8328.941	-7.641009	5.764114E-009	0.1549612	7
	18	30	15890.62	8343.018	-1059.534	1	8410.027	-7.237618	-6.25091E-008	0.1550843	7
	19	32	12609.37	8431.777	-1052.742	1	8497.243	-7.116786	9.296492E-008	0.1549745	7
	20	33	10078.13	8510.744	-1068.507	1	8577.557	-7.155933	-2.898266E-008	0.1551122	7
	21	35	8015.625	8599.229	-1106.804	1	8670.165	-7.334199	3.872673E-008	0.1548944	7
	22	36	6328.125	8675.243	-1191.369	1	8756.666	-7.8195	-1.503792E-008	0.1549781	7
	23	38	5015.625	8777.428	-1257.776	1	8867.087	-8.154779	7.455957E-011	0.155005	6
	24	40	3984.375	8865.19	-1420.889	1	8978.337	-9.105766	-1.12858E-008	0.1550098	6
	25	41	3170.956	8951.234	-1630.287	1	9098.485	-10.32213	-5.935976E-009	0.1550976	6
	26	43	2527.573	9048.387	-1891.771	1	9244.03	-11.80888	-4.223755E-010	0.1550001	6
	27	44	1976.103	9165.855	-2246.616	1	9437.171	-13.77209	-1.278176E-008	0.1550756	6
	28	46	1577.524	9287.08	-2650.757	1	9657.97	-15.93002	-1.202778E-008	0.1551883	6
	29	48	1265.625	9429.892	-3128.194	1	9935.21	-18.35232	-1.142409E-008	0.1550073	6
	30	49	998.264	9597.88	-3770.001	1	10311.75	-21.44466	-1.047748E-008	0.1550124	6
	31	50	796.875	9789.82	-4507.176	1	10777.53	-24.72106	-5.583596E-009	0.1551033	6
	32	52	627.7902	10023.73	-5462.824	1	11415.67	-28.58991	-1.339037E-008	0.1550611	6
	33	53	505.5147	10262.89	-6535.696	1	12167.26	-32.49012	-5.187503E-010	0.1550043	6
	34	55	397.9953	10580.96	-7966.439	1	13244.66	-36.9762	-3.406228E-009	0.1549973	6
	35	56	315.5048	10939.26	-9691.58	1	14614.86	-41.53915	-3.878646E-009	0.154992	6
	36	57	252.4038	11346.7	-11720.91	1	16313.41	-45.9294	-2.574031E-009	0.1549929	6
	37	59	198.6229	11875.75	-14416.2	1	18677.8	-50.51904	-2.532624E-009	0.1549971	6
	38	60	158.3615	12484.55	-17560.71	1	21546.29	-54.58959	-1.982509E-009	0.1549964	6
	39	61	125.558	13260.68	-21535.19	1	25290.51	-58.37657	-2.751641E-009	0.154986	6
	40	63	100.4464	14168.24	-26226.54	1	29808.9	-61.62097	-3.369098E-009	0.1549908	6
	41	64	79.00281	15477.76	-32524.57	1	36019.56	-64.55121	-3.040154E-009	0.1549924	6
	42	66	63.3446	16699.37	-39030.95	1	42453.31	-66.83637	-2.502428E-009	0.1549924	6
	43	67	49.86702	19687.24	-48804.58	1	52625.79	-68.03138	-2.389286E-009	0.1549813	6
	44	68	39.72458	22106.89	-59405.56	1	63385.61	-69.58801	-2.639126E-009	0.1549957	6
	45	70	31.6723	25662.46	-72540.93	1	76946.4	-70.51799	-3.441696E-009	0.1549885	6
	46	71	24.93351	30542.04	-88826.63	1	93930.75	-71.02504	-2.919251E-009	0.1549814	6
	47	73	19.86229	36953.36	-107742.6	1	113903.5	-71.06915	-2.493392E-009	0.1549934	5
	48	74	15.83615	45391.7	-129360.4	1	137093.1	-70.66437	-3.472808E-009	0.1549929	5
	49	76	12.40079	54222.8	-160209	1	169136.2	-71.30159	-1.949379E-009	0.1550009	5
	50	77	9.93114	68950.56	-190720.3	1	202801.4	-70.1237	-2.844361E-009	0.1550002	5
	51	79	7.944915	87816.48	-228529.4	1	244821.2	-68.97984	-2.990001E-009	0.15499	5
	52	80	6.317385	109087.3	-270970.3	1	292104.3	-68.07124	-2.849671E-009	0.1550115	5
	53	82	5.008013	137967.4	-322772.5	1	351023	-66.85597	-2.287021E-009	0.154991	5
	54	85	3.945707	176626	-381447.6	1	420355.8	-65.15391	-2.633521E-009	0.1549885	5
	55	87	3.158693	220821.6	-443764.3	1	495670.2	-63.5446	-2.667134E-009	0.1549913	5
	56	91	2.504006	278153.8	-514296.2	1	584696.6	-61.59355	-2.467984E-009	0.1549828	5
	57	94	1.998082	344721.1	-590354.3	1	683630.6	-59.71839	-2.78148E-009	0.1550279	5
	58	97	1.584686	425415.8	-674096.8	1	797110.5	-57.74438	-2.433775E-009	0.1550228	5
	59	100	1.266892	516524.6	-757225.1	1	916617.4	-55.701	-2.63828E-009	0.1550347	5
	60	105	0.999041	629357.1	-850040.6	1	1057667	-53.48432	-2.372186E-009	0.1549567	5
