EXPLAIN
TAG	EISPOT
TITLE	LABEL	Potentiostatic EIS	Test &Identifier
DATE	LABEL	11/27/2019	Date
TIME	LABEL	13:08:28	Time
NOTES	NOTES	3	&Notes...
	
	
	
PSTAT	PSTAT	REF600-11020	Potentiostat
VDC	POTEN	0.00000E+000	T	DC &Voltage (V)
FREQINIT	QUANT	1.00000E+006	Initial Fre&q. (Hz)
FREQFINAL	QUANT	1.00000E+000	Final Fre&q. (Hz)
PTSPERDEC	QUANT	1.00000E+001	Points/&decade
VAC	QUANT	2.50000E+001	AC &Voltage (mV rms)
AREA	QUANT	1.00000E-002	&Area (cm^2)
CONDIT	TWOPARAM	T	5.00000E+000	0.00000E+000	Conditionin&g	Time(s)	E(V)
DELAY	TWOPARAM	T	5.00000E+000	0.00000E+000	Init. De&lay	Time(s)	Stab.(mV/s)
SPEED	SELECTOR	0	&Optimize for:
ZGUESS	QUANT	1.00000E+005	E&stimated Z (ohms)
OCVCURVE	TABLE	19
	Pt	T	Vf	Vm	Ach	Over
	#	s	V vs. Ref.	V	V	bits
	0	0.258333	7.57910E-003	7.57910E-003	5.54033E-004	...........
	1	0.516667	7.57237E-003	7.22709E-003	5.55066E-004	...........
	2	0.775	7.53874E-003	7.29446E-003	5.60999E-004	...........
	3	1.03333	7.46772E-003	7.28927E-003	5.53433E-004	...........
	4	1.29167	7.37726E-003	6.92322E-003	5.54299E-004	...........
	5	1.55	7.28518E-003	7.20282E-003	5.58132E-004	...........
	6	1.80833	7.20489E-003	7.30577E-003	5.58932E-004	...........
	7	2.06667	7.16035E-003	6.97425E-003	5.61999E-004	...........
	8	2.325	7.15103E-003	7.22626E-003	5.57666E-004	...........
	9	2.58333	7.14649E-003	6.97639E-003	5.56399E-004	...........
	10	2.84167	7.13317E-003	7.27497E-003	5.54166E-004	...........
	11	3.1	7.12554E-003	7.21524E-003	5.58299E-004	...........
	12	3.35833	7.13606E-003	7.01255E-003	5.51066E-004	...........
	13	3.61667	7.15187E-003	7.26529E-003	5.50033E-004	...........
	14	3.875	7.15497E-003	7.00216E-003	5.53133E-004	...........
	15	4.13333	7.14527E-003	7.14140E-003	5.57933E-004	...........
	16	4.39167	7.13482E-003	7.38502E-003	5.58533E-004	...........
	17	4.65	7.14230E-003	7.07605E-003	5.57566E-004	...........
	18	4.90833	7.16955E-003	7.25206E-003	5.56733E-004	...........
EOC	QUANT	0.0071695	Open Circuit (V)
PSTATMODEL	IQUANT	4	Pstat Model
PSTATSECTION	LABEL	REF600-11020	Pstat Section
PSTATSERIALNO	LABEL	11020	Pstat Serial Number
CTRLMODE	IQUANT	1	Control Mode
IESTAB	IQUANT	0	I/E Stability
CASPEED	IQUANT	1	Control Amp Speed
CONVENTION	IQUANT	1	Current Convention
ICHRANGE	IQUANT	2	Ich Range
ICHRANGEMODE	TOGGLE	F	Ich Auto Range
ICHOFFSETENABLE	TOGGLE	T	Ich Offset Enable
ICHOFFSET	QUANT	0	Ich Offset (V)
ICHFILTER	IQUANT	3	Ich Filter
VCHRANGE	IQUANT	2	Vch Range
VCHRANGEMODE	TOGGLE	F	Vch Auto Range
VCHOFFSETENABLE	TOGGLE	T	Vch Offset Enable
VCHOFFSET	QUANT	0	Vch Offset (V)
VCHFILTER	IQUANT	3	Vch Filter
ACHRANGE	IQUANT	2	Ach Range
ACHOFFSETENABLE	TOGGLE	F	Ach Offset Enable
ACHOFFSET	QUANT	0	Ach Offset (V)
ACHFILTER	IQUANT	3	Ach Filter
IERANGELOWERLIMIT	IQUANT	1	I/E Range Lower Limit
IERANGEMODE	TOGGLE	F	I/E AutoRange
IERANGE	IQUANT	5	I/E Range
POSFEEDENABLE	TOGGLE	F	Positive Feedback IR Comp
POSFEEDRESISTANCE	QUANT	0	Positive Feedback Resistance (ohm)
ACHSELECT	IQUANT	0	Ach Select
CABLEID	IQUANT	14	Cable ID
DCCALDATE	LABEL	8/19/2019	DC Calibration Date
ACCALDATE	LABEL	8/19/2019	AC Calibration Date
THERMOSELECT	IQUANT	1	Thermo Select
FRAMEWORKVERSION	QUANT	6.33	Framework Version
INSTRUMENTVERSION	LABEL	3.50	Instrument Version
ZCURVE	TABLE
	Pt	Time	Freq	Zreal	Zimag	Zsig	Zmod	Zphz	Idc	Vdc	IERange
	#	s	Hz	ohm	ohm	V	ohm	°	A	V	#
	0	1	1000078	2196.446	-1725.129	1	2792.927	-38.14674	-5.273349E-006	0.0100411	8
	1	2	794390.6	2531.349	-1676.647	1	3036.26	-33.51863	6.656732E-006	0.0091003	8
	2	2	630984.4	2841.794	-1611.338	1	3266.833	-29.55386	-3.190253E-006	0.0087765	8
	3	2	501234.4	3114.063	-1521.805	1	3466.018	-26.04421	2.886737E-007	0.0086145	8
	4	3	398109.4	3346.801	-1392.578	1	3624.962	-22.59181	5.73198E-006	0.0077634	8
	5	3	316265.6	3549.506	-1278.58	1	3772.765	-19.8097	-4.791741E-007	0.0085594	8
	6	3	251203.1	3706.063	-1168.01	1	3885.763	-17.49287	-1.410685E-006	0.0086188	8
	7	4	199546.9	3852.636	-1065.373	1	3997.227	-15.45777	-1.371888E-006	0.0086228	8
	8	4	158578.1	3961.215	-1002.277	1	4086.048	-14.19913	-5.278948E-006	0.0096102	8
	9	4	125953.1	4093.537	-913.0055	1	4194.118	-12.57323	3.561767E-006	0.0045271	7
	10	5	100078.1	4167.781	-857.4158	1	4255.063	-11.62497	9.195761E-007	0.0072008	7
	11	5	79453.13	4257.639	-854.2621	1	4342.494	-11.34531	-6.855707E-007	0.0086301	7
	12	5	63140.62	4345.653	-869.7044	1	4431.826	-11.31721	4.527109E-007	0.0072139	7
	13	6	50203.12	4428.066	-894.5558	1	4517.521	-11.42115	-5.783796E-007	0.0102763	7
	14	6	39890.62	4519.385	-935.7308	1	4615.239	-11.69771	-6.855614E-007	0.0086307	7
	15	6	31640.63	4622.365	-994.686	1	4728.177	-12.14427	1.100658E-007	0.007495	7
	16	7	25171.88	4725.626	-1074.739	1	4846.298	-12.81272	4.566364E-007	0.007208	7
	17	7	20015.62	4838.427	-1181.532	1	4980.602	-13.72292	-9.802578E-007	0.0092643	7
	18	7	15890.62	4961.805	-1293.55	1	5127.648	-14.61186	-2.702157E-007	0.0100491	7
	19	7	12609.37	5101.74	-1438.785	1	5300.74	-15.74943	-2.913936E-007	0.007983	7
	20	8	10078.13	5267.377	-1606.952	1	5507.046	-16.9657	1.034312E-006	0.0077054	7
	21	8	8015.625	5434.388	-1808.016	1	5727.259	-18.40223	9.529931E-007	0.0080991	7
	22	8	6328.125	5633.8	-2035.955	1	5990.394	-19.86895	-8.373821E-007	0.0103484	7
	23	9	5015.625	5863.281	-2312.464	1	6302.821	-21.52416	5.714708E-007	0.0089648	7
	24	9	3984.375	6121.261	-2622.06	1	6659.207	-23.18801	1.020418E-006	0.0073893	7
	25	10	3170.956	6409.442	-2987.04	1	7071.305	-24.98728	9.529786E-007	0.0080975	7
	26	10	2527.573	6722.819	-3389.569	1	7528.976	-26.75672	9.129375E-007	0.0071865	7
	27	10	1976.103	7150.7	-3891.658	1	8141.1	-28.55656	-2.689867E-007	0.0100358	7
	28	11	1577.524	7571.259	-4446.003	1	8780.143	-30.42236	1.02433E-007	0.0074807	7
	29	11	1265.625	8036.518	-4967.505	1	9447.842	-31.7209	7.291946E-008	0.0096643	7
	30	11	998.264	8610.234	-5644.826	1	10295.64	-33.24865	-4.592227E-008	0.0109038	6
	31	12	796.875	9155.985	-6368.844	1	11153.22	-34.82222	-9.977527E-008	0.0082389	6
	32	12	627.7902	9779.24	-7262.411	1	12180.97	-36.59889	1.443757E-007	0.0061532	6
	33	12	505.5147	10376.25	-8212.292	1	13232.85	-38.35987	6.591421E-008	0.0063047	6
	34	13	397.9953	11014.84	-9485.75	1	14536.38	-40.73434	7.967637E-010	0.0087333	6
	35	13	315.5048	11643.54	-11012.89	1	16026.72	-43.40558	4.182961E-010	0.0087344	6
	36	13	252.4038	12254.92	-12841.8	1	17750.91	-46.33958	-2.192398E-010	0.0087338	6
	37	13	198.6229	12949.47	-15299.98	1	20044.41	-49.75637	2.77688E-010	0.0087231	6
	38	14	158.3615	13646.78	-18243.98	1	22783.28	-53.20294	-2.367549E-010	0.0087245	6
	39	14	125.558	14477.82	-22025.49	1	26357.72	-56.68223	6.723949E-010	0.008723	6
	40	14	100.4464	15385.04	-26547.11	1	30683.04	-59.90611	1.023872E-009	0.0087285	6
	41	15	79.00281	16634.87	-32508.27	1	36517.21	-62.90063	9.736395E-010	0.0087289	6
	42	15	63.3446	18762.35	-39697.95	1	43908.46	-64.70329	-5.993727E-010	0.008725	6
	43	15	49.86702	20701.21	-48851.47	1	53056.63	-67.03481	-6.339896E-010	0.0087136	6
	44	16	39.72458	22907	-59297.15	1	63567.94	-68.87802	3.395761E-010	0.0087169	6
	45	16	31.6723	26197.49	-72038.06	1	76653.71	-70.0156	8.027045E-010	0.0087198	6
	46	17	24.93351	31093.33	-89087.04	1	94357.28	-70.75989	2.179283E-010	0.0087258	6
	47	17	19.86229	37327.34	-108126.8	1	114388.5	-70.9544	3.436283E-010	0.0087245	5
	48	17	15.83615	44482.24	-132890.2	1	140137.4	-71.4931	1.338388E-009	0.0087203	5
	49	17	12.40079	56109.51	-161177.7	1	170665	-70.80587	-3.268445E-010	0.0087235	5
	50	18	9.93114	69648.04	-191062.1	1	203360.7	-69.97164	3.887021E-010	0.0087258	5
	51	18	7.944915	86927.8	-227879.1	1	243896.1	-69.11992	-2.50243E-010	0.0087284	5
	52	19	6.317385	109781.3	-273501.3	1	294711.5	-68.12986	-2.270231E-010	0.0087381	5
	53	20	5.008013	135948.9	-327301.2	1	354412.4	-67.44379	-1.065926E-010	0.0087356	5
	54	21	3.945707	173979.5	-384274.6	1	421824.4	-65.64146	-1.671088E-010	0.0087208	5
	55	22	3.158693	216508.3	-447820.4	1	497412.3	-64.19757	9.323241E-011	0.0087278	5
	56	24	2.504006	270875.9	-520489.2	1	586756.1	-62.50637	6.232891E-011	0.0087209	5
	57	25	1.998082	333397.7	-598029.8	1	684685.1	-60.86061	-1.075454E-010	0.0086766	5
	58	27	1.584686	405766.3	-684270.8	1	795533	-59.33245	-4.712678E-011	0.0087144	5
	59	29	1.266892	486226.8	-774353.1	1	914351.8	-57.87473	2.852405E-011	0.0087481	5
	60	31	0.999041	582530.8	-880934.9	1	1056120	-56.52476	9.23078E-011	0.0087597	4
