EXPLAIN
TAG	EISPOT
TITLE	LABEL	Potentiostatic IDE	Test &Identifier
DATE	LABEL	9/12/2019	Date
TIME	LABEL	10:57:09	Time
NOTES	NOTES	1	&Notes...
	
PSTAT	PSTAT	REF600-11020	Potentiostat
VDC	POTEN	0.00000E+000	T	DC &Voltage (V)
FREQINIT	QUANT	1.00000E+006	Initial Fre&q. (Hz)
FREQFINAL	QUANT	1.00000E+000	Final Fre&q. (Hz)
PTSPERDEC	QUANT	1.00000E+001	Points/&decade
VAC	QUANT	2.50000E+001	AC &Voltage (mV rms)
AREA	QUANT	1.00000E-002	&Area (cm^2)
CONDIT	TWOPARAM	T	5.00000E+000	0.00000E+000	Conditionin&g	Time(s)	E(V)
DELAY	TWOPARAM	T	5.00000E+000	0.00000E+000	Init. De&lay	Time(s)	Stab.(mV/s)
SPEED	SELECTOR	1	&Optimize for:
ZGUESS	QUANT	1.00000E+007	E&stimated Z (ohms)
OCVCURVE	TABLE	19
	Pt	T	Vf	Vm	Ach	Over
	#	s	V vs. Ref.	V	V	bits
	0	0.258333	1.94801E-003	1.94801E-003	5.67099E-004	...........
	1	0.516667	1.93943E-003	1.49873E-003	5.64099E-004	...........
	2	0.775	1.88604E-003	1.03720E-003	5.66066E-004	...........
	3	1.03333	1.73743E-003	8.39162E-004	5.66466E-004	...........
	4	1.29167	1.48387E-003	4.54829E-004	5.66499E-004	...........
	5	1.55	1.16740E-003	1.40410E-004	5.65466E-004	...........
	6	1.80833	8.32861E-004	-1.55318E-004	5.69232E-004	...........
	7	2.06667	5.02105E-004	-4.24035E-004	5.64599E-004	...........
	8	2.325	1.84875E-004	-6.89477E-004	5.67899E-004	...........
	9	2.58333	-1.13946E-004	-9.31128E-004	5.62766E-004	...........
	10	2.84167	-3.93866E-004	-1.16741E-003	5.67066E-004	...........
	11	3.1	-6.56753E-004	-1.38787E-003	5.66132E-004	...........
	12	3.35833	-9.04996E-004	-1.60764E-003	5.66866E-004	...........
	13	3.61667	-1.14099E-003	-1.81525E-003	5.70199E-004	...........
	14	3.875	-1.36685E-003	-2.01286E-003	5.75165E-004	...........
	15	4.13333	-1.58336E-003	-2.18405E-003	5.69666E-004	...........
	16	4.39167	-1.79004E-003	-2.38765E-003	5.69166E-004	...........
	17	4.65	-1.98748E-003	-2.56423E-003	5.69632E-004	...........
	18	4.90833	-2.17827E-003	-2.73586E-003	5.69699E-004	...........
EOC	QUANT	-0.0021783	Open Circuit (V)
PSTATMODEL	IQUANT	4	Pstat Model
PSTATSECTION	LABEL	REF600-11020	Pstat Section
PSTATSERIALNO	LABEL	11020	Pstat Serial Number
CTRLMODE	IQUANT	1	Control Mode
IESTAB	IQUANT	0	I/E Stability
CASPEED	IQUANT	1	Control Amp Speed
CONVENTION	IQUANT	1	Current Convention
ICHRANGE	IQUANT	2	Ich Range
ICHRANGEMODE	TOGGLE	F	Ich Auto Range
ICHOFFSETENABLE	TOGGLE	T	Ich Offset Enable
ICHOFFSET	QUANT	0	Ich Offset (V)
ICHFILTER	IQUANT	3	Ich Filter
VCHRANGE	IQUANT	2	Vch Range
VCHRANGEMODE	TOGGLE	F	Vch Auto Range
VCHOFFSETENABLE	TOGGLE	T	Vch Offset Enable
VCHOFFSET	QUANT	0	Vch Offset (V)
VCHFILTER	IQUANT	3	Vch Filter
ACHRANGE	IQUANT	2	Ach Range
ACHOFFSETENABLE	TOGGLE	F	Ach Offset Enable
ACHOFFSET	QUANT	0	Ach Offset (V)
ACHFILTER	IQUANT	3	Ach Filter
IERANGELOWERLIMIT	IQUANT	1	I/E Range Lower Limit
IERANGEMODE	TOGGLE	F	I/E AutoRange
IERANGE	IQUANT	2	I/E Range
POSFEEDENABLE	TOGGLE	F	Positive Feedback IR Comp
POSFEEDRESISTANCE	QUANT	0	Positive Feedback Resistance (ohm)
ACHSELECT	IQUANT	0	Ach Select
CABLEID	IQUANT	14	Cable ID
DCCALDATE	LABEL	8/19/2019	DC Calibration Date
ACCALDATE	LABEL	8/19/2019	AC Calibration Date
THERMOSELECT	IQUANT	1	Thermo Select
FRAMEWORKVERSION	QUANT	6.33	Framework Version
INSTRUMENTVERSION	LABEL	3.50	Instrument Version
ZCURVE	TABLE
	Pt	Time	Freq	Zreal	Zimag	Zsig	Zmod	Zphz	Idc	Vdc	IERange
	#	s	Hz	ohm	ohm	V	ohm	°	A	V	#
	0	3	1000078	2609.509	-1880.634	1	3216.57	-35.77974	-3.501201E-006	0.0004347	8
	1	4	794390.6	2992.082	-1815.89	1	3500.002	-31.2535	4.432175E-006	-0.0012244	8
	2	5	630984.4	3334.79	-1665.809	1	3727.699	-26.54325	1.776081E-006	-0.0009893	8
	3	7	501234.4	3614.945	-1472.694	1	3903.416	-22.16552	2.539726E-006	-0.0011275	8
	4	9	398109.4	3829.348	-1290.315	1	4040.893	-18.62146	2.44256E-008	-0.0007191	8
	5	10	316265.6	3995.419	-1127.259	1	4151.396	-15.75577	2.468092E-006	-0.0013088	8
	6	11	251203.1	4107.33	-958.155	1	4217.608	-13.13109	2.343972E-006	-0.0013053	8
	7	13	199546.9	4201.269	-831.8879	1	4282.838	-11.20019	-3.5616E-006	8.262255E-005	8
	8	14	158578.1	4291.904	-714.4268	1	4350.959	-9.450753	-3.434285E-006	0.0001144	8
	9	15	125953.1	4352.921	-568.9454	1	4389.945	-7.44659	-5.599865E-007	0.000623	7
	10	17	100078.1	4391.153	-509.3204	1	4420.592	-6.616051	-3.982656E-008	-0.000604	7
	11	18	79453.13	4426.674	-470.7587	1	4451.635	-6.070357	-1.020999E-008	-0.00061	7
	12	19	63140.62	4461.431	-445.9806	1	4483.666	-5.708528	-2.244828E-009	-0.0007164	7
	13	21	50203.12	4494.794	-432.4842	1	4515.553	-5.496018	2.336492E-008	-0.0007511	7
	14	22	39890.62	4526.399	-429.2796	1	4546.71	-5.417675	-1.762193E-008	-0.0005092	7
	15	23	31640.63	4561.047	-444.2993	1	4582.636	-5.563724	4.836515E-008	-0.0008197	7
	16	25	25171.88	4593.238	-468.0899	1	4617.027	-5.818838	8.142747E-008	-0.0007092	7
	17	26	20015.62	4629.849	-504.8216	1	4657.289	-6.222738	-4.691032E-008	-0.000633	7
	18	27	15890.62	4669.708	-561.4612	1	4703.341	-6.856032	-3.832164E-008	-0.0006264	7
	19	29	12609.37	4711.028	-625.0638	1	4752.314	-7.557916	3.806689E-008	-0.0007047	7
	20	30	10078.13	4760.11	-709.7862	1	4812.737	-8.480961	-3.840289E-008	-0.0006271	7
	21	31	8015.625	4808.563	-814.69	1	4877.089	-9.61601	-4.572266E-008	-0.0006305	7
	22	33	6328.125	4867.599	-950.228	1	4959.481	-11.04608	3.887483E-008	-0.0007088	7
	23	34	5015.625	4935.279	-1115.669	1	5059.812	-12.73818	-7.331234E-008	-0.0005549	7
	24	35	3984.375	5010.19	-1313.561	1	5179.522	-14.69104	8.222449E-008	-0.0007101	7
	25	37	3170.956	5096.287	-1551.486	1	5327.218	-16.93206	-3.947336E-008	-0.0006319	7
	26	38	2527.573	5196.14	-1839.001	1	5511.968	-19.48972	3.81419E-008	-0.0006997	7
	27	39	1976.103	5318.631	-2219.149	1	5763.025	-22.64788	5.133122E-008	-0.0008237	7
	28	41	1577.524	5454.126	-2645.914	1	6062.042	-25.87902	-3.29756E-008	-0.0006677	7
	29	42	1265.625	5600.577	-3143.561	1	6422.495	-29.30516	-5.153659E-008	-0.0005656	7
	30	43	998.264	5785.332	-3792.976	1	6917.855	-33.24963	-4.828915E-008	-0.000643	7
	31	45	796.875	5991.027	-4545.186	1	7520.048	-37.18634	-3.358787E-009	-0.0007361	7
	32	46	627.7902	6237.775	-5517.334	1	8327.714	-41.49287	-3.511271E-008	-0.0006285	7
	33	47	505.5147	6493.058	-6605.452	1	9262.386	-45.49162	-8.777166E-009	-0.0006443	7
	34	49	397.9953	6844.236	-8050.642	1	10566.76	-49.63055	8.864665E-010	-0.0007249	6
	35	50	315.5048	7236.583	-9788.09	1	12172.71	-53.52356	2.049877E-009	-0.0007198	6
	36	51	252.4038	7683.096	-11830.02	1	14106	-56.99798	9.500606E-010	-0.0007231	6
	37	53	198.6229	8263.074	-14526.94	1	16712.58	-60.36833	1.636855E-009	-0.0007241	6
	38	54	158.3615	8926.278	-17655.79	1	19783.96	-63.1801	8.825918E-010	-0.0007291	6
	39	55	125.558	9765.42	-21586.12	1	23692.27	-65.65832	1.241062E-009	-0.0007236	6
	40	57	100.4464	10740.96	-26231.66	1	28345.52	-67.73259	1.399367E-009	-0.0007299	6
	41	58	79.00281	12025.02	-32333.1	1	34496.82	-69.59931	1.313526E-009	-0.0007305	6
	42	59	63.3446	14034.63	-39011.44	1	41459.17	-70.21346	7.479887E-010	-0.0007296	6
	43	61	49.86702	15552.32	-48493.44	1	50926.3	-72.21844	6.157849E-010	-0.0007321	6
	44	62	39.72458	18261.97	-58891.92	1	61658.39	-72.77171	8.810493E-010	-0.0007295	6
	45	63	31.6723	21697.63	-71474.46	1	74695.29	-73.11319	1.430999E-009	-0.0007272	6
	46	65	24.93351	26315.76	-88231.98	1	92072.81	-73.39245	1.25478E-009	-0.0007283	6
	47	66	19.86229	32128.09	-107310.2	1	112016.4	-73.33258	4.361697E-010	-0.0007281	5
	48	67	15.83615	39142.43	-130343.6	1	136094	-73.28488	6.644563E-010	-0.0007225	5
	49	69	12.40079	51022.9	-160022.5	1	167960	-72.31521	9.413793E-010	-0.0007296	5
	50	70	9.93114	64425.48	-191472.6	1	202020.8	-71.40327	2.87866E-010	-0.0007174	5
	51	72	7.944915	80843.23	-228892.3	1	242749.5	-70.54712	8.941747E-010	-0.0007319	5
	52	73	6.317385	104496.6	-273189.5	1	292492.8	-69.06785	7.708044E-010	-0.0007362	5
	53	75	5.008013	134725.6	-325167	1	351972.4	-67.49443	1.818499E-010	-0.0007235	5
	54	78	3.945707	173051.6	-384599.6	1	421738.9	-65.77451	5.076002E-010	-0.0007121	5
	55	81	3.158693	219246.3	-446483.4	1	497409.7	-63.84659	8.365949E-011	-0.0007248	5
	56	84	2.504006	276689.7	-515662.6	1	585205.2	-61.78327	4.85752E-010	-0.0007316	5
	57	87	1.998082	340505.3	-588621.7	1	680014.3	-59.95152	-4.075731E-012	-0.0007016	5
	58	90	1.584686	418519.8	-667893.9	1	788188.4	-57.92767	2.37713E-010	-0.0006692	5
	59	93	1.266892	499346.3	-751833.4	1	902552.1	-56.40902	-4.958619E-011	-0.0007219	5
	60	98	0.999041	597290.1	-846120.3	1	1035700	-54.78111	3.639877E-010	-0.000693	4
