EXPLAIN
TAG	EISPOT
TITLE	LABEL	Potentiostatic EIS	Test &Identifier
DATE	LABEL	10/18/2019	Date
TIME	LABEL	9:52:46	Time
NOTES	NOTES	1	&Notes...
	
PSTAT	PSTAT	REF600-11020	Potentiostat
VDC	POTEN	0.00000E+000	T	DC &Voltage (V)
FREQINIT	QUANT	1.00000E+006	Initial Fre&q. (Hz)
FREQFINAL	QUANT	1.00000E+000	Final Fre&q. (Hz)
PTSPERDEC	QUANT	1.00000E+001	Points/&decade
VAC	QUANT	2.50000E+001	AC &Voltage (mV rms)
AREA	QUANT	1.00000E-002	&Area (cm^2)
CONDIT	TWOPARAM	T	5.00000E+000	0.00000E+000	Conditionin&g	Time(s)	E(V)
DELAY	TWOPARAM	T	5.00000E+000	0.00000E+000	Init. De&lay	Time(s)	Stab.(mV/s)
SPEED	SELECTOR	0	&Optimize for:
ZGUESS	QUANT	1.00000E+005	E&stimated Z (ohms)
OCVCURVE	TABLE	19
	Pt	T	Vf	Vm	Ach	Over
	#	s	V vs. Ref.	V	V	bits
	0	0.258333	5.72821E-003	5.72821E-003	5.32133E-004	...........
	1	0.516667	5.72431E-003	5.52409E-003	5.32566E-004	...........
	2	0.775	5.70067E-003	5.34699E-003	5.33533E-004	...........
	3	1.03333	5.63530E-003	5.20018E-003	5.30300E-004	...........
	4	1.29167	5.52283E-003	5.08755E-003	5.30033E-004	...........
	5	1.55	5.38273E-003	4.99718E-003	5.34866E-004	...........
	6	1.80833	5.24209E-003	4.91451E-003	5.38533E-004	...........
	7	2.06667	5.11795E-003	4.84197E-003	5.33100E-004	...........
	8	2.325	5.01414E-003	4.77754E-003	5.29033E-004	...........
	9	2.58333	4.92719E-003	4.71777E-003	5.30700E-004	...........
	10	2.84167	4.85114E-003	4.60262E-003	5.31000E-004	...........
	11	3.1	4.77623E-003	4.42372E-003	5.27400E-004	...........
	12	3.35833	4.69268E-003	4.52292E-003	5.35833E-004	...........
	13	3.61667	4.60689E-003	4.48770E-003	5.28700E-004	...........
	14	3.875	4.53961E-003	4.44662E-003	5.36299E-004	...........
	15	4.13333	4.49875E-003	4.42071E-003	5.30433E-004	...........
	16	4.39167	4.47344E-003	4.43618E-003	5.26500E-004	...........
	17	4.65	4.45355E-003	4.39642E-003	5.37666E-004	...........
	18	4.90833	4.43573E-003	4.35180E-003	5.36799E-004	...........
EOC	QUANT	0.0044357	Open Circuit (V)
PSTATMODEL	IQUANT	4	Pstat Model
PSTATSECTION	LABEL	REF600-11020	Pstat Section
PSTATSERIALNO	LABEL	11020	Pstat Serial Number
CTRLMODE	IQUANT	1	Control Mode
IESTAB	IQUANT	0	I/E Stability
CASPEED	IQUANT	1	Control Amp Speed
CONVENTION	IQUANT	1	Current Convention
ICHRANGE	IQUANT	2	Ich Range
ICHRANGEMODE	TOGGLE	F	Ich Auto Range
ICHOFFSETENABLE	TOGGLE	T	Ich Offset Enable
ICHOFFSET	QUANT	0	Ich Offset (V)
ICHFILTER	IQUANT	3	Ich Filter
VCHRANGE	IQUANT	2	Vch Range
VCHRANGEMODE	TOGGLE	F	Vch Auto Range
VCHOFFSETENABLE	TOGGLE	T	Vch Offset Enable
VCHOFFSET	QUANT	0	Vch Offset (V)
VCHFILTER	IQUANT	3	Vch Filter
ACHRANGE	IQUANT	2	Ach Range
ACHOFFSETENABLE	TOGGLE	F	Ach Offset Enable
ACHOFFSET	QUANT	0	Ach Offset (V)
ACHFILTER	IQUANT	3	Ach Filter
IERANGELOWERLIMIT	IQUANT	1	I/E Range Lower Limit
IERANGEMODE	TOGGLE	F	I/E AutoRange
IERANGE	IQUANT	4	I/E Range
POSFEEDENABLE	TOGGLE	F	Positive Feedback IR Comp
POSFEEDRESISTANCE	QUANT	0	Positive Feedback Resistance (ohm)
ACHSELECT	IQUANT	0	Ach Select
CABLEID	IQUANT	14	Cable ID
DCCALDATE	LABEL	8/19/2019	DC Calibration Date
ACCALDATE	LABEL	8/19/2019	AC Calibration Date
THERMOSELECT	IQUANT	1	Thermo Select
FRAMEWORKVERSION	QUANT	6.33	Framework Version
INSTRUMENTVERSION	LABEL	3.50	Instrument Version
ZCURVE	TABLE
	Pt	Time	Freq	Zreal	Zimag	Zsig	Zmod	Zphz	Idc	Vdc	IERange
	#	s	Hz	ohm	ohm	V	ohm	°	A	V	#
	0	1	1000078	2371.779	-1387.887	1	2748.011	-30.33477	1.925507E-006	0.0064576	8
	1	1	794390.6	2615.041	-1306.485	1	2923.242	-26.54691	-1.013402E-006	0.0064565	8
	2	2	630984.4	2829.618	-1195.911	1	3071.961	-22.91088	4.85464E-006	0.0054359	8
	3	2	501234.4	3014.255	-1087.32	1	3204.372	-19.83568	1.063598E-006	0.0060282	8
	4	2	398109.4	3156.454	-959.499	1	3299.066	-16.90823	-6.15669E-007	0.0061818	8
	5	3	316265.6	3273.153	-862.9681	1	3385.002	-14.76995	-1.467781E-007	0.006239	8
	6	3	251203.1	3364.982	-758.5132	1	3449.412	-12.70295	2.880952E-006	0.0055384	8
	7	3	199546.9	3427.456	-705.6641	1	3499.345	-11.63382	-1.372862E-006	0.0063843	8
	8	4	158578.1	3501.142	-651.6783	1	3561.275	-10.54398	2.711614E-006	0.0055421	8
	9	4	125953.1	3580.482	-545.3533	1	3621.776	-8.660319	7.056166E-007	0.0050285	7
	10	4	100078.1	3630.19	-532.5991	1	3669.052	-8.346539	-1.654528E-008	0.0061305	7
	11	5	79453.13	3684.457	-533.1016	1	3722.824	-8.232952	-5.302986E-008	0.0062345	7
	12	5	63140.62	3737.239	-545.2738	1	3776.808	-8.301044	-1.577946E-008	0.0060384	7
	13	5	50203.12	3793.52	-564.3735	1	3835.272	-8.462001	-5.438166E-008	0.0062293	7
	14	6	39890.62	3854.058	-594.6582	1	3899.665	-8.771229	-3.34663E-008	0.0060838	7
	15	6	31640.63	3918.458	-633.7214	1	3969.372	-9.186745	-1.682964E-008	0.0060375	7
	16	6	25171.88	3986.773	-685.0457	1	4045.201	-9.7499	-1.704219E-008	0.0060394	7
	17	7	20015.62	4059.107	-748.4062	1	4127.525	-10.4467	-6.136024E-009	0.0061032	7
	18	7	15890.62	4142.146	-818.9703	1	4222.332	-11.18407	6.372824E-008	0.0059636	7
	19	7	12609.37	4228.117	-906.5829	1	4324.218	-12.10199	-3.356786E-008	0.0060966	7
	20	7	10078.13	4322.842	-1007.557	1	4438.708	-13.12011	-4.573515E-008	0.0060864	7
	21	8	8015.625	4443.749	-1140.371	1	4587.739	-14.39287	1.325829E-007	0.0058594	7
	22	8	6328.125	4538.963	-1277.041	1	4715.19	-15.71399	8.926294E-008	0.006003	7
	23	8	5015.625	4658.044	-1449.592	1	4878.391	-17.28624	-5.382689E-008	0.0062292	7
	24	9	3984.375	4766.222	-1613.085	1	5031.79	-18.69793	-7.816769E-008	0.0061876	7
	25	9	3170.956	4923.98	-1892.046	1	5274.98	-21.01934	-3.149678E-009	0.0060732	7
	26	9	2527.573	5067.688	-2181.905	1	5517.442	-23.29441	-4.297696E-008	0.0060901	7
	27	10	1976.103	5234.653	-2566.407	1	5829.926	-26.11744	-5.367841E-008	0.0062201	7
	28	10	1577.524	5519.902	-3007.177	1	6285.891	-28.58102	-4.157834E-008	0.0061375	7
	29	10	1265.625	5581.657	-3513.037	1	6595.174	-32.18588	-9.905908E-009	0.0061861	7
	30	11	998.264	5799.48	-4189.744	1	7154.574	-35.84564	-1.766519E-008	0.0061041	7
	31	11	796.875	6034.475	-4985.194	1	7827.327	-39.56076	6.031662E-008	0.0059513	7
	32	11	627.7902	6325.705	-6012.947	1	8727.547	-43.54799	3.724628E-008	0.0059264	7
	33	12	505.5147	6616.668	-7152.767	1	9743.84	-47.22963	7.579443E-009	0.0059806	7
	34	12	397.9953	7013.114	-8700.896	1	11175.39	-51.13042	-5.164861E-010	0.0060089	6
	35	12	315.5048	7463.274	-10550.32	1	12923.22	-54.72449	1.600308E-009	0.0060108	6
	36	13	252.4038	7978.704	-12719.85	1	15015.13	-57.90143	1.576698E-009	0.0060073	6
	37	13	198.6229	8653.587	-15575.61	1	17818.09	-60.94408	5.344858E-011	0.0060097	6
	38	13	158.3615	9435.53	-18883.85	1	21109.93	-63.45048	1.32684E-009	0.0060062	6
	39	13	125.558	10411.99	-23032.71	1	25276.77	-65.67454	3.69583E-010	0.0060081	6
	40	14	100.4464	11616.06	-27977.54	1	30293.16	-67.45215	6.789586E-010	0.0060096	6
	41	14	79.00281	13102.11	-34484.2	1	36889.37	-69.19595	1.235653E-009	0.0060044	6
	42	14	63.3446	15150.56	-40766.24	1	43490.53	-69.61268	-3.362161E-010	0.0060009	6
	43	15	49.86702	17994.07	-50558.3	1	53664.97	-70.40899	-1.04693E-009	0.0060031	6
	44	15	39.72458	21092.77	-62061.89	1	65548.33	-71.22881	5.284649E-010	0.0060042	6
	45	16	31.6723	25028.87	-75195.73	1	79251.76	-71.59	-4.19928E-010	0.0060002	6
	46	16	24.93351	31714.14	-92357.73	1	97651.1	-71.04836	-8.349995E-012	0.0060001	6
	47	16	19.86229	40093.53	-111211.4	1	118217.9	-70.17493	1.976857E-010	0.0060073	5
	48	16	15.83615	47595.67	-134747.4	1	142906.3	-70.54568	1.865596E-009	0.0060045	5
	49	17	12.40079	66128.8	-160993	1	174045.3	-67.6693	-2.174131E-010	0.0060075	5
	50	17	9.93114	81780.59	-189242.6	1	206157.3	-66.62856	1.832261E-010	0.0060026	5
	51	18	7.944915	103032	-220380.2	1	243275.6	-64.94301	-4.089201E-010	0.0060133	5
	52	18	6.317385	129842.5	-256173	1	287199.7	-63.12161	-3.412572E-010	0.0060238	5
	53	19	5.008013	162584.3	-295185.7	1	336998.9	-61.15461	-4.406922E-011	0.0060177	5
	54	20	3.945707	199965.2	-339609.6	1	394107.6	-59.51004	-1.879978E-010	0.0060014	5
	55	22	3.158693	240616.8	-382906	1	452231.6	-57.85489	1.747921E-010	0.0060075	5
	56	23	2.504006	286044.2	-432687.9	1	518690.8	-56.53184	1.193749E-010	0.0060053	5
	57	24	1.998082	334384.7	-486848.8	1	590622.4	-55.51736	-5.893965E-011	0.0059695	5
	58	26	1.584686	385460.4	-549794.1	1	671456.1	-54.96572	-5.651868E-012	0.0059925	5
	59	28	1.266892	440262.6	-619534.6	1	760035.7	-54.60109	6.376189E-011	0.0060296	5
	60	31	0.999041	503524.4	-709201.3	1	869772	-54.62571	9.503191E-011	0.0060485	5
