EXPLAIN
TAG	EISPOT
TITLE	LABEL	Potentiostatic IDE	Test &Identifier
DATE	LABEL	9/16/2019	Date
TIME	LABEL	10:26:39	Time
NOTES	NOTES	1	&Notes...
	
PSTAT	PSTAT	REF600-11020	Potentiostat
VDC	POTEN	0.00000E+000	T	DC &Voltage (V)
FREQINIT	QUANT	1.00000E+006	Initial Fre&q. (Hz)
FREQFINAL	QUANT	1.00000E+000	Final Fre&q. (Hz)
PTSPERDEC	QUANT	1.00000E+001	Points/&decade
VAC	QUANT	2.50000E+001	AC &Voltage (mV rms)
AREA	QUANT	1.00000E-002	&Area (cm^2)
CONDIT	TWOPARAM	T	5.00000E+000	0.00000E+000	Conditionin&g	Time(s)	E(V)
DELAY	TWOPARAM	T	5.00000E+000	0.00000E+000	Init. De&lay	Time(s)	Stab.(mV/s)
SPEED	SELECTOR	1	&Optimize for:
ZGUESS	QUANT	1.00000E+007	E&stimated Z (ohms)
OCVCURVE	TABLE	19
	Pt	T	Vf	Vm	Ach	Over
	#	s	V vs. Ref.	V	V	bits
	0	0.258333	1.98965E-003	1.98965E-003	5.19433E-004	...........
	1	0.516667	1.99968E-003	2.51462E-003	5.07800E-004	...........
	2	0.775	2.01894E-003	7.96998E-004	5.10867E-004	...........
	3	1.03333	1.93623E-003	-6.71495E-004	5.22966E-004	...........
	4	1.29167	1.53629E-003	-1.79662E-003	5.18533E-004	...........
	5	1.55	7.27189E-004	-2.52233E-003	5.13100E-004	...........
	6	1.80833	-3.30772E-004	-3.04231E-003	5.15833E-004	...........
	7	2.06667	-1.37936E-003	-3.54852E-003	5.16033E-004	...........
	8	2.325	-2.25830E-003	-4.06947E-003	5.15366E-004	...........
	9	2.58333	-2.95326E-003	-4.63423E-003	5.04733E-004	...........
	10	2.84167	-3.53050E-003	-5.08996E-003	5.19600E-004	...........
	11	3.1	-4.05246E-003	-5.39965E-003	5.16333E-004	...........
	12	3.35833	-4.57023E-003	-7.47577E-003	5.09833E-004	...........
	13	3.61667	-5.18010E-003	-7.82680E-003	5.05800E-004	...........
	14	3.875	-5.93263E-003	-7.12439E-003	5.17900E-004	...........
	15	4.13333	-6.65446E-003	-6.68120E-003	5.13200E-004	...........
	16	4.39167	-7.07348E-003	-6.74286E-003	4.98667E-004	...........
	17	4.65	-7.12846E-003	-6.74540E-003	4.99133E-004	...........
	18	4.90833	-6.99229E-003	-6.77936E-003	5.13233E-004	...........
EOC	QUANT	-0.0069923	Open Circuit (V)
PSTATMODEL	IQUANT	4	Pstat Model
PSTATSECTION	LABEL	REF600-11020	Pstat Section
PSTATSERIALNO	LABEL	11020	Pstat Serial Number
CTRLMODE	IQUANT	1	Control Mode
IESTAB	IQUANT	0	I/E Stability
CASPEED	IQUANT	1	Control Amp Speed
CONVENTION	IQUANT	1	Current Convention
ICHRANGE	IQUANT	2	Ich Range
ICHRANGEMODE	TOGGLE	F	Ich Auto Range
ICHOFFSETENABLE	TOGGLE	T	Ich Offset Enable
ICHOFFSET	QUANT	0	Ich Offset (V)
ICHFILTER	IQUANT	3	Ich Filter
VCHRANGE	IQUANT	2	Vch Range
VCHRANGEMODE	TOGGLE	F	Vch Auto Range
VCHOFFSETENABLE	TOGGLE	T	Vch Offset Enable
VCHOFFSET	QUANT	0	Vch Offset (V)
VCHFILTER	IQUANT	3	Vch Filter
ACHRANGE	IQUANT	2	Ach Range
ACHOFFSETENABLE	TOGGLE	F	Ach Offset Enable
ACHOFFSET	QUANT	0	Ach Offset (V)
ACHFILTER	IQUANT	3	Ach Filter
IERANGELOWERLIMIT	IQUANT	1	I/E Range Lower Limit
IERANGEMODE	TOGGLE	F	I/E AutoRange
IERANGE	IQUANT	3	I/E Range
POSFEEDENABLE	TOGGLE	F	Positive Feedback IR Comp
POSFEEDRESISTANCE	QUANT	0	Positive Feedback Resistance (ohm)
ACHSELECT	IQUANT	0	Ach Select
CABLEID	IQUANT	14	Cable ID
DCCALDATE	LABEL	8/19/2019	DC Calibration Date
ACCALDATE	LABEL	8/19/2019	AC Calibration Date
THERMOSELECT	IQUANT	1	Thermo Select
FRAMEWORKVERSION	QUANT	6.33	Framework Version
INSTRUMENTVERSION	LABEL	3.50	Instrument Version
ZCURVE	TABLE
	Pt	Time	Freq	Zreal	Zimag	Zsig	Zmod	Zphz	Idc	Vdc	IERange
	#	s	Hz	ohm	ohm	V	ohm	°	A	V	#
	0	2	1000078	2482.469	-1999.815	1	3187.776	-38.85405	5.699004E-006	-0.0064206	8
	1	4	794390.6	2868.338	-1976.993	1	3483.657	-34.57643	-2.954102E-006	-0.0048266	8
	2	5	630984.4	3239.941	-1904.677	1	3758.325	-30.45016	-2.600846E-006	-0.0048158	8
	3	7	501234.4	3578.775	-1788.796	1	4000.927	-26.55747	3.618128E-007	-0.0054848	8
	4	8	398109.4	3874.318	-1673.363	1	4220.247	-23.36007	3.308301E-006	-0.0060457	8
	5	9	316265.6	4118.675	-1508.808	1	4386.341	-20.11947	5.630809E-006	-0.0064867	8
	6	11	251203.1	4378.25	-1376.9	1	4589.655	-17.45765	2.186252E-006	-0.0058984	8
	7	13	199546.9	4507.086	-1230.933	1	4672.154	-15.27556	-7.430978E-007	-0.0051034	8
	8	14	158578.1	4640.215	-1127.433	1	4775.217	-13.65653	-1.184252E-006	-0.0051714	8
	9	16	125953.1	4790.566	-968.041	1	4887.395	-11.42406	1.483039E-006	-0.0080317	7
	10	17	100078.1	4879.243	-900.6042	1	4961.663	-10.45788	-8.2659E-008	-0.0053182	7
	11	18	79453.13	4963.537	-865.6298	1	5038.454	-9.89276	-1.409803E-008	-0.005388	7
	12	20	63140.62	5044.979	-848.8438	1	5115.892	-9.55085	-5.899476E-008	-0.0053345	7
	13	21	50203.12	5124.737	-851.5853	1	5195.01	-9.434715	1.502244E-007	-0.005676	7
	14	22	39890.62	5206.558	-864.5273	1	5277.846	-9.42771	-4.296448E-008	-0.0054277	7
	15	24	31640.63	5289.641	-915.2261	1	5368.234	-9.81627	-2.101773E-008	-0.0054768	7
	16	25	25171.88	5381.087	-976.421	1	5468.957	-10.28465	8.746736E-008	-0.0054938	7
	17	26	20015.62	5478.445	-1057.013	1	5579.484	-10.92048	1.522028E-007	-0.0056798	7
	18	28	15890.62	5589.014	-1153.511	1	5706.808	-11.66148	8.257609E-008	-0.0056014	7
	19	29	12609.37	5709.738	-1282.137	1	5851.921	-12.65599	-1.996133E-008	-0.0054767	7
	20	30	10078.13	5838.644	-1428.231	1	6010.791	-13.74559	2.352428E-008	-0.0055524	7
	21	32	8015.625	5988.181	-1602.079	1	6198.787	-14.97813	-8.127566E-008	-0.0053329	7
	22	33	6328.125	6165.184	-1812.652	1	6426.134	-16.38409	2.371742E-008	-0.0055555	7
	23	34	5015.625	6358.104	-2054.969	1	6681.945	-17.91107	-5.731098E-008	-0.0053437	7
	24	36	3984.375	6579.703	-2338.235	1	6982.824	-19.56373	-4.176509E-008	-0.0054475	7
	25	37	3170.956	6828.432	-2659.512	1	7328.062	-21.27973	-5.550776E-008	-0.005333	7
	26	38	2527.573	7113.846	-3033.15	1	7733.486	-23.09208	-1.96799E-008	-0.0053054	7
	27	40	1976.103	7471.122	-3494.902	1	8248.151	-25.06963	-8.859977E-009	-0.005435	7
	28	41	1577.524	7841.595	-3980.309	1	8793.945	-26.91186	8.240888E-008	-0.0056045	7
	29	42	1265.625	8238.313	-4511.123	1	9392.553	-28.70416	-4.280883E-008	-0.005433	7
	30	44	998.264	8776.43	-5164.972	1	10183.45	-30.47702	7.754696E-009	-0.0057631	6
	31	45	796.875	9320.205	-5867.396	1	11013.29	-32.19185	-6.799539E-009	-0.0054604	6
	32	46	627.7902	9951.19	-6703.792	1	11998.63	-33.96685	-5.616984E-009	-0.0054595	6
	33	48	505.5147	10563.02	-7573.884	1	12997.74	-35.64123	-2.897357E-009	-0.005585	6
	34	49	397.9953	11262.81	-8675.817	1	14216.92	-37.6073	1.556976E-010	-0.0054997	6
	35	50	315.5048	11953.17	-9955.65	1	15556.13	-39.7905	1.462038E-009	-0.0054991	6
	36	52	252.4038	12615.54	-11455.37	1	17040.46	-42.24057	5.570154E-010	-0.0054977	6
	37	53	198.6229	13320.49	-13450.55	1	18930.21	-45.27834	9.721167E-010	-0.0054992	6
	38	54	158.3615	14005.16	-15830.38	1	21136.36	-48.50077	3.101955E-010	-0.0055013	6
	39	56	125.558	14728.75	-18887.33	1	23951.35	-52.05213	9.936308E-010	-0.0054993	6
	40	57	100.4464	15533.83	-22593.5	1	27418.36	-55.49009	2.900744E-010	-0.0055001	6
	41	58	79.00281	16454.79	-27511.2	1	32056.61	-59.11583	-1.685053E-011	-0.0054995	6
	42	60	63.3446	17292.89	-33630.49	1	37816.05	-62.78764	8.883844E-011	-0.0055007	6
	43	61	49.86702	19034.11	-40805.7	1	45026.68	-64.99297	1.042008E-009	-0.0055069	6
	44	62	39.72458	20612.39	-50223.57	1	54288.84	-67.68613	6.577798E-010	-0.0055038	6
	45	64	31.6723	22895.78	-61280.35	1	65417.87	-69.51313	5.120852E-010	-0.0055017	6
	46	65	24.93351	25910.73	-75874.21	1	80176.45	-71.14517	7.738124E-010	-0.0055032	6
	47	67	19.86229	29906.22	-92874.06	1	97570.4	-72.15101	5.254358E-010	-0.0054918	6
	48	68	15.83615	33688.09	-112690	1	117617.7	-73.35624	-8.386831E-010	-0.005497	5
	49	69	12.40079	41083.34	-141328.1	1	147178.4	-73.79113	1.131935E-009	-0.0054917	5
	50	71	9.93114	50501.8	-169973.2	1	177317	-73.45247	6.060557E-010	-0.0054942	5
	51	72	7.944915	62209.96	-206913	1	216062.7	-73.2662	5.264272E-011	-0.0054925	5
	52	74	6.317385	76292.67	-249391	1	260799.6	-72.9903	4.79226E-010	-0.0054965	5
	53	76	5.008013	95788.3	-302469.7	1	317274.8	-72.42767	3.477614E-010	-0.0054898	5
	54	78	3.945707	121385.8	-367123.7	1	386670.8	-71.70405	1.103286E-010	-0.0055038	5
	55	81	3.158693	151977.1	-438390.8	1	463986.6	-70.88008	3.356291E-010	-0.0054879	5
	56	84	2.504006	192862.8	-524603.6	1	558931.9	-69.8148	1.550252E-010	-0.0054902	5
	57	87	1.998082	242159.3	-620933.6	1	666483.1	-68.6946	2.96273E-010	-0.0055411	5
	58	90	1.584686	303097.5	-735680.4	1	795671.9	-67.60853	1.692304E-010	-0.0055151	5
	59	94	1.266892	378949.9	-863194.5	1	942713	-66.2981	2.654956E-010	-0.0055422	5
	60	98	0.999041	474186.3	-1017835	1	1122871	-65.02024	1.054953E-010	-0.0054804	4
