EXPLAIN
TAG	EISPOT
TITLE	LABEL	Potentiostatic EIS	Test &Identifier
DATE	LABEL	10/26/2019	Date
TIME	LABEL	9:52:22	Time
NOTES	NOTES	1	&Notes...
	
PSTAT	PSTAT	REF600-11020	Potentiostat
VDC	POTEN	0.00000E+000	T	DC &Voltage (V)
FREQINIT	QUANT	1.00000E+006	Initial Fre&q. (Hz)
FREQFINAL	QUANT	1.00000E+000	Final Fre&q. (Hz)
PTSPERDEC	QUANT	1.00000E+001	Points/&decade
VAC	QUANT	2.50000E+001	AC &Voltage (mV rms)
AREA	QUANT	1.00000E-002	&Area (cm^2)
CONDIT	TWOPARAM	T	5.00000E+000	0.00000E+000	Conditionin&g	Time(s)	E(V)
DELAY	TWOPARAM	T	5.00000E+000	0.00000E+000	Init. De&lay	Time(s)	Stab.(mV/s)
SPEED	SELECTOR	0	&Optimize for:
ZGUESS	QUANT	1.00000E+005	E&stimated Z (ohms)
OCVCURVE	TABLE	19
	Pt	T	Vf	Vm	Ach	Over
	#	s	V vs. Ref.	V	V	bits
	0	0.258333	5.00765E-002	5.00765E-002	5.41833E-004	...........
	1	0.516667	5.00374E-002	4.80305E-002	5.46799E-004	...........
	2	0.775	4.98432E-002	4.84922E-002	5.52832E-004	...........
	3	1.03333	4.94338E-002	4.82725E-002	5.53333E-004	...........
	4	1.29167	4.89620E-002	4.91477E-002	5.52899E-004	...........
	5	1.55	4.86453E-002	4.77836E-002	5.44466E-004	...........
	6	1.80833	4.85101E-002	4.85431E-002	5.47566E-004	...........
	7	2.06667	4.84256E-002	4.74911E-002	5.53533E-004	...........
	8	2.325	4.82896E-002	4.76622E-002	5.47933E-004	...........
	9	2.58333	4.80890E-002	4.75983E-002	5.41866E-004	...........
	10	2.84167	4.78363E-002	4.55424E-002	5.50599E-004	...........
	11	3.1	4.74788E-002	4.58857E-002	5.45166E-004	...........
	12	3.35833	4.69960E-002	4.70340E-002	5.43633E-004	...........
	13	3.61667	4.65731E-002	4.65577E-002	5.44933E-004	...........
	14	3.875	4.64158E-002	4.69332E-002	5.52932E-004	...........
	15	4.13333	4.65022E-002	4.72913E-002	5.56666E-004	...........
	16	4.39167	4.66976E-002	4.71922E-002	5.38733E-004	...........
	17	4.65	4.69017E-002	4.68312E-002	5.52632E-004	...........
	18	4.90833	4.70261E-002	4.65297E-002	5.54999E-004	...........
EOC	QUANT	0.0470261	Open Circuit (V)
PSTATMODEL	IQUANT	4	Pstat Model
PSTATSECTION	LABEL	REF600-11020	Pstat Section
PSTATSERIALNO	LABEL	11020	Pstat Serial Number
CTRLMODE	IQUANT	1	Control Mode
IESTAB	IQUANT	0	I/E Stability
CASPEED	IQUANT	1	Control Amp Speed
CONVENTION	IQUANT	1	Current Convention
ICHRANGE	IQUANT	2	Ich Range
ICHRANGEMODE	TOGGLE	F	Ich Auto Range
ICHOFFSETENABLE	TOGGLE	T	Ich Offset Enable
ICHOFFSET	QUANT	0	Ich Offset (V)
ICHFILTER	IQUANT	3	Ich Filter
VCHRANGE	IQUANT	2	Vch Range
VCHRANGEMODE	TOGGLE	F	Vch Auto Range
VCHOFFSETENABLE	TOGGLE	T	Vch Offset Enable
VCHOFFSET	QUANT	0	Vch Offset (V)
VCHFILTER	IQUANT	3	Vch Filter
ACHRANGE	IQUANT	2	Ach Range
ACHOFFSETENABLE	TOGGLE	F	Ach Offset Enable
ACHOFFSET	QUANT	0	Ach Offset (V)
ACHFILTER	IQUANT	3	Ach Filter
IERANGELOWERLIMIT	IQUANT	1	I/E Range Lower Limit
IERANGEMODE	TOGGLE	F	I/E AutoRange
IERANGE	IQUANT	5	I/E Range
POSFEEDENABLE	TOGGLE	F	Positive Feedback IR Comp
POSFEEDRESISTANCE	QUANT	0	Positive Feedback Resistance (ohm)
ACHSELECT	IQUANT	0	Ach Select
CABLEID	IQUANT	14	Cable ID
DCCALDATE	LABEL	8/19/2019	DC Calibration Date
ACCALDATE	LABEL	8/19/2019	AC Calibration Date
THERMOSELECT	IQUANT	1	Thermo Select
FRAMEWORKVERSION	QUANT	6.33	Framework Version
INSTRUMENTVERSION	LABEL	3.50	Instrument Version
ZCURVE	TABLE
	Pt	Time	Freq	Zreal	Zimag	Zsig	Zmod	Zphz	Idc	Vdc	IERange
	#	s	Hz	ohm	ohm	V	ohm	°	A	V	#
	0	1	1000078	1067.73	-9595.89	1	9655.11	-83.65084	2.116335E-006	0.0488982	8
	1	1	794390.6	959.352	-11695.08	1	11734.36	-85.3105	3.789079E-006	0.0479108	8
	2	2	630984.4	1002.458	-14530.86	1	14565.4	-86.05352	1.011207E-006	0.0487097	8
	3	2	501234.4	1077.045	-17764.25	1	17796.87	-86.53041	-2.210645E-007	0.0487143	8
	4	3	398109.4	1241.124	-22312.38	1	22346.88	-86.81621	8.453094E-007	0.0485191	8
	5	3	316265.6	1912.588	-28549.48	1	28613.47	-86.16737	-2.574685E-006	0.0490665	8
	6	3	251203.1	2357.291	-35206.19	1	35285.02	-86.16938	1.748767E-008	0.0486278	8
	7	4	199546.9	3691.288	-44252.21	1	44405.89	-85.23173	2.432524E-007	0.048574	8
	8	4	158578.1	1344.474	-54018.32	1	54035.05	-88.57425	-2.408643E-006	0.0490418	8
	9	4	125953.1	7506.182	-66503.16	1	66925.43	-83.5603	-4.420612E-007	0.0500497	7
	10	5	100078.1	5751.955	-86122.05	1	86313.92	-86.17898	1.394674E-008	0.0486277	7
	11	5	79453.13	6603.39	-107828.7	1	108030.7	-86.49561	-8.276691E-008	0.0487679	7
	12	5	63140.62	8709.825	-134399.2	1	134681.1	-86.29209	1.303026E-008	0.0484327	7
	13	6	50203.12	10950.91	-166605.4	1	166964.9	-86.23938	5.021244E-008	0.0484456	7
	14	6	39890.62	14894.94	-209674.1	1	210202.5	-85.93661	5.078966E-009	0.0484666	7
	15	6	31640.63	16695.68	-257998.6	1	258538.2	-86.29742	-6.622646E-008	0.0486542	7
	16	7	25171.88	22404.79	-324708.1	1	325480.2	-86.05286	-4.56141E-008	0.0485704	7
	17	7	20015.62	20727.01	-401154.3	1	401689.4	-87.04225	-1.178449E-008	0.0484563	7
	18	7	15890.62	44813.03	-505696.8	1	507678.5	-84.93588	-4.673356E-008	0.0485137	7
	19	8	12609.37	59493.16	-645641	1	648376.3	-84.7353	-1.024468E-008	0.0486144	6
	20	8	10078.13	56739.27	-780951.6	1	783010.1	-85.84454	4.028561E-009	0.0482914	6
	21	8	8015.625	122461.3	-1031398	1	1038643	-83.22878	-5.663391E-009	0.0486346	6
	22	9	6328.125	87656.6	-1239230	1	1242326	-85.95393	1.784777E-008	0.0481155	6
	23	9	5015.625	160695	-1502327	1	1510897	-83.89462	-1.28908E-008	0.0485538	6
	24	10	3984.375	66123.04	-2450260	1	2451151	-88.45419	-9.559558E-009	0.0485439	6
	25	10	3170.956	92711.19	-2326146	1	2327993	-87.71762	2.308264E-009	0.0485247	6
	26	11	2527.573	222333.8	-3021891	1	3030059	-85.79208	-5.71982E-009	0.0486405	6
	27	11	1976.103	-126260.8	-3767299	1	3769414	-91.91955	1.866662E-010	0.0484035	6
	28	12	1577.524	470800.4	-5539017	1	5558990	-85.1417	-6.433176E-009	0.0486353	6
	29	12	1265.625	640358.3	-5591343	1	5627893	-83.46657	-1.323315E-009	0.0486287	5
	30	13	998.264	1142301	-6950353	1	7043597	-80.66679	-8.652094E-010	0.048485	5
	31	13	796.875	3079168	-9442589	1	9.931956E+006	-71.93919	7.912462E-009	0.0482746	6
	32	14	627.7902	2034333	-1.175176E+007	1	1.192654E+007	-80.17892	-1.594334E-009	0.0485767	5
	33	14	505.5147	2074903	-1.206622E+007	1	1.224332E+007	-80.24286	-7.708881E-010	0.048479	5
	34	15	397.9953	456740.3	-1.878783E+007	1	1.879338E+007	-88.60739	1.793483E-010	0.048466	5
	35	15	315.5048	652490.1	-1.897137E+007	1	1.898259E+007	-88.03018	6.874424E-010	0.0484668	5
	36	16	252.4038	5981874	-1.956753E+007	1	2.046145E+007	-73.0014	-4.401028E-010	0.0484633	5
	37	16	198.6229	1.351916E+007	-4.231605E+007	1	4.442315E+007	-72.28233	-1.209678E-010	0.0484657	5
	38	17	158.3615	3.261359E+007	-2.834225E+007	1	4.320798E+007	-40.99168	7.130553E-010	0.0484641	5
	39	17	125.558	3410357	-3.240356E+007	1	3.258253E+007	-83.99194	-1.593726E-010	0.0484684	4
	40	18	100.4464	-4944591	-1.488172E+007	1	1.568166E+007	-108.3796	7.213276E-010	0.0484624	4
	41	18	79.00281	-3668386	1.229005E+007	1	1.282585E+007	106.6195	1.062504E-010	0.048465	4
	42	18	63.3446	3417483	2501158	1	4234971	36.19933	5.307448E-010	0.0484623	4
	43	19	49.86702	1.084093E+007	-2.531896E+007	1	2.754225E+007	-66.82063	3.849004E-011	0.0484607	4
	44	20	39.72458	1.759115E+007	3.711866E+007	1	4.107607E+007	64.64296	-3.161212E-010	0.0484672	4
	45	20	31.6723	4410877	-2.344281E+007	1	2.385416E+007	-79.34411	-1.439623E-010	0.0484652	4
	46	21	24.93351	1.958534E+008	2.074851E+007	1	1.969494E+008	6.0473	9.625944E-011	0.0484591	4
	47	21	19.86229	-1852986	-4.509596E+007	1	4.513402E+007	-92.35295	-2.956245E-010	0.0484665	4
	48	22	15.83615	347258.6	-1.92947E+007	1	1.929783E+007	-88.96893	-6.405869E-010	0.0484655	4
	49	22	12.40079	-3.645638E+007	7.09177E+007	1	7.97395E+007	117.2062	-7.884269E-011	0.048462	4
	50	23	9.93114	5.918185E+007	6.767394E+007	1	8.990135E+007	48.82983	-1.556665E-010	0.0484717	5
	51	24	7.944915	2.911738E+007	-3.970648E+007	1	4.923846E+007	-53.74682	3.300824E-010	0.0484714	4
	52	25	6.317385	2.076514E+008	-5.338656E+007	1	2.144043E+008	-14.41831	1.99268E-011	0.0484571	4
	53	26	5.008013	1.200315E+008	-1.966732E+008	1	2.304081E+008	-58.60389	8.881105E-011	0.0484662	4
	54	28	3.945707	2.634969E+007	-2.317092E+008	1	2.332026E+008	-83.51227	1.163939E-010	0.0484675	4
	55	30	3.158693	2.311042E+008	-4.400977E+007	1	2.352573E+008	-10.78189	3.383048E-011	0.0484772	4
	56	32	2.504006	9.046838E+008	-1.707638E+008	1	9.20659E+008	-10.68912	9.785955E-012	0.0484618	3
	58	40	1.584686	9.061358E+008	-1.290252E+008	1	9.152757E+008	-8.103905	9.150364E-012	0.0484893	3
	59	43	1.266892	9.787145E+009	-2.636257E+009	1	1.013598E+010	-15.07535	-9.110475E-012	0.0485028	2
	60	47	0.999041	9.880622E+009	-2.637006E+009	1	1.022646E+010	-14.94318	-9.171447E-012	0.0484689	2
