EXPLAIN
TAG	EISPOT
TITLE	LABEL	Potentiostatic EIS	Test &Identifier
DATE	LABEL	10/20/2019	Date
TIME	LABEL	10:37:19	Time
NOTES	NOTES	1	&Notes...
	
PSTAT	PSTAT	REF600-11020	Potentiostat
VDC	POTEN	0.00000E+000	T	DC &Voltage (V)
FREQINIT	QUANT	1.00000E+006	Initial Fre&q. (Hz)
FREQFINAL	QUANT	1.00000E+000	Final Fre&q. (Hz)
PTSPERDEC	QUANT	1.00000E+001	Points/&decade
VAC	QUANT	2.50000E+001	AC &Voltage (mV rms)
AREA	QUANT	1.00000E-002	&Area (cm^2)
CONDIT	TWOPARAM	T	5.00000E+000	0.00000E+000	Conditionin&g	Time(s)	E(V)
DELAY	TWOPARAM	T	5.00000E+000	0.00000E+000	Init. De&lay	Time(s)	Stab.(mV/s)
SPEED	SELECTOR	1	&Optimize for:
ZGUESS	QUANT	1.00000E+005	E&stimated Z (ohms)
OCVCURVE	TABLE	19
	Pt	T	Vf	Vm	Ach	Over
	#	s	V vs. Ref.	V	V	bits
	0	0.258333	5.87584E-003	5.87584E-003	5.51266E-004	...........
	1	0.516667	5.87363E-003	5.76017E-003	5.53299E-004	...........
	2	0.775	5.86035E-003	5.66601E-003	5.49699E-004	...........
	3	1.03333	5.82400E-003	5.58656E-003	5.52799E-004	...........
	4	1.29167	5.76207E-003	5.52653E-003	5.47633E-004	...........
	5	1.55	5.68552E-003	5.47063E-003	5.46766E-004	...........
	6	1.80833	5.60868E-003	5.42709E-003	5.57666E-004	...........
	7	2.06667	5.54028E-003	5.38619E-003	5.61332E-004	...........
	8	2.325	5.48257E-003	5.35469E-003	5.55733E-004	...........
	9	2.58333	5.43441E-003	5.32304E-003	5.61099E-004	...........
	10	2.84167	5.39388E-003	5.30233E-003	5.56233E-004	...........
	11	3.1	5.35949E-003	5.28133E-003	5.58399E-004	...........
	12	3.35833	5.33041E-003	5.26646E-003	5.49499E-004	...........
	13	3.61667	5.30598E-003	5.24746E-003	5.55233E-004	...........
	14	3.875	5.28529E-003	5.23654E-003	5.58732E-004	...........
	15	4.13333	5.26737E-003	5.22283E-003	5.57699E-004	...........
	16	4.39167	5.25158E-003	5.21210E-003	5.61566E-004	...........
	17	4.65	5.23755E-003	5.20177E-003	5.58132E-004	...........
	18	4.90833	5.22555E-003	5.22334E-003	5.56199E-004	...........
EOC	QUANT	0.0052256	Open Circuit (V)
PSTATMODEL	IQUANT	4	Pstat Model
PSTATSECTION	LABEL	REF600-11020	Pstat Section
PSTATSERIALNO	LABEL	11020	Pstat Serial Number
CTRLMODE	IQUANT	1	Control Mode
IESTAB	IQUANT	0	I/E Stability
CASPEED	IQUANT	1	Control Amp Speed
CONVENTION	IQUANT	1	Current Convention
ICHRANGE	IQUANT	2	Ich Range
ICHRANGEMODE	TOGGLE	F	Ich Auto Range
ICHOFFSETENABLE	TOGGLE	T	Ich Offset Enable
ICHOFFSET	QUANT	0	Ich Offset (V)
ICHFILTER	IQUANT	3	Ich Filter
VCHRANGE	IQUANT	2	Vch Range
VCHRANGEMODE	TOGGLE	F	Vch Auto Range
VCHOFFSETENABLE	TOGGLE	T	Vch Offset Enable
VCHOFFSET	QUANT	0	Vch Offset (V)
VCHFILTER	IQUANT	3	Vch Filter
ACHRANGE	IQUANT	2	Ach Range
ACHOFFSETENABLE	TOGGLE	F	Ach Offset Enable
ACHOFFSET	QUANT	0	Ach Offset (V)
ACHFILTER	IQUANT	3	Ach Filter
IERANGELOWERLIMIT	IQUANT	1	I/E Range Lower Limit
IERANGEMODE	TOGGLE	F	I/E AutoRange
IERANGE	IQUANT	4	I/E Range
POSFEEDENABLE	TOGGLE	F	Positive Feedback IR Comp
POSFEEDRESISTANCE	QUANT	0	Positive Feedback Resistance (ohm)
ACHSELECT	IQUANT	0	Ach Select
CABLEID	IQUANT	14	Cable ID
DCCALDATE	LABEL	8/19/2019	DC Calibration Date
ACCALDATE	LABEL	8/19/2019	AC Calibration Date
THERMOSELECT	IQUANT	1	Thermo Select
FRAMEWORKVERSION	QUANT	6.33	Framework Version
INSTRUMENTVERSION	LABEL	3.50	Instrument Version
ZCURVE	TABLE
	Pt	Time	Freq	Zreal	Zimag	Zsig	Zmod	Zphz	Idc	Vdc	IERange
	#	s	Hz	ohm	ohm	V	ohm	°	A	V	#
	0	2	1000078	2767.964	-2019.567	1	3426.409	-36.11531	-7.311991E-006	0.0084819	8
	1	3	794390.6	3165.65	-1961.156	1	3723.906	-31.77868	-1.449127E-006	0.0079894	8
	2	5	630984.4	3540.475	-1851.685	1	3995.46	-27.60978	-1.764179E-006	0.0074577	8
	3	6	501234.4	3857.908	-1713.881	1	4221.475	-23.95325	-1.914307E-007	0.0069305	8
	4	7	398109.4	4133.687	-1523.457	1	4405.484	-20.2312	2.401019E-006	0.0063078	8
	5	9	316265.6	4349.133	-1328.907	1	4547.632	-16.99088	-4.703833E-007	0.0068271	8
	6	10	251203.1	4528.578	-1131.564	1	4667.81	-14.02933	3.690672E-006	0.0061692	8
	7	12	199546.9	4639.317	-983.177	1	4742.352	-11.96525	-9.037251E-007	0.0070298	8
	8	13	158578.1	4736.956	-862.1907	1	4814.782	-10.31569	4.351126E-007	0.006694	8
	9	15	125953.1	4853.873	-667.9979	1	4899.623	-7.835916	4.742814E-007	0.0058297	7
	10	16	100078.1	4882.723	-600.6539	1	4919.529	-7.013073	6.643014E-008	0.0067101	7
	11	18	79453.13	4931.877	-549.9902	1	4962.449	-6.363186	-5.390033E-008	0.0069318	7
	12	19	63140.62	4973.971	-511.2213	1	5000.174	-5.868215	-7.035568E-008	0.0068863	7
	13	20	50203.12	5015.319	-486.7753	1	5038.886	-5.543632	-2.528706E-008	0.0068374	7
	14	22	39890.62	5051.89	-476.8802	1	5074.348	-5.392536	1.013458E-007	0.0067194	7
	15	23	31640.63	5091.563	-477.0547	1	5113.862	-5.352709	1.023257E-007	0.0067179	7
	16	24	25171.88	5130.796	-489.4992	1	5154.094	-5.44976	2.406967E-008	0.0068743	7
	17	26	20015.62	5127.817	-510.5719	1	5153.173	-5.686145	2.238975E-008	0.006886	7
	18	27	15890.62	5210.506	-556.2458	1	5240.113	-6.093513	-5.99699E-008	0.0068861	7
	19	28	12609.37	5251.382	-610.5047	1	5286.75	-6.63121	-5.099056E-008	0.0068255	7
	20	30	10078.13	5295.405	-683.1811	1	5339.293	-7.351347	9.06897E-008	0.0066084	7
	21	31	8015.625	5346.753	-778.1846	1	5403.086	-8.280878	1.595762E-008	0.0066962	7
	22	33	6328.125	5393.956	-893.992	1	5467.539	-9.410632	1.050917E-007	0.006707	7
	23	34	5015.625	5450.61	-1042.245	1	5549.362	-10.82521	5.375028E-008	0.0067309	7
	24	35	3984.375	5528.69	-1248.089	1	5667.816	-12.72115	6.542843E-008	0.006685	7
	25	37	3170.956	5577.815	-1454.096	1	5764.236	-14.61139	-2.080986E-008	0.0068173	7
	26	38	2527.573	5651.664	-1730.25	1	5910.589	-17.0219	1.252241E-007	0.0066064	7
	27	39	1976.103	5746.534	-2106.44	1	6120.437	-20.13084	1.610764E-008	0.0066898	7
	28	41	1577.524	5810.215	-2521.985	1	6333.957	-23.46376	-2.150281E-008	0.0068152	7
	29	42	1265.625	5955.632	-3032.707	1	6683.328	-26.98595	-4.311075E-008	0.0067983	7
	30	44	998.264	6103.546	-3702.735	1	7138.874	-31.24323	1.060211E-007	0.0066938	7
	31	45	796.875	6258.409	-4485.774	1	7699.99	-35.63142	5.321096E-008	0.0067147	7
	32	47	627.7902	6466.409	-5507.667	1	8494.048	-40.4222	-7.402843E-008	0.0068881	7
	33	48	505.5147	6686.865	-6654.614	1	9433.878	-44.8615	-6.478636E-008	0.0070054	7
	34	49	397.9953	7007.699	-8202.694	1	10788.51	-49.49218	5.860795E-010	0.0067419	6
	35	51	315.5048	7385.383	-10069.72	1	12487.72	-53.74274	1.771569E-009	0.0067444	6
	36	52	252.4038	7853.029	-12271.26	1	14568.94	-57.38267	-3.137765E-010	0.0067342	6
	37	54	198.6229	8503.646	-15171.84	1	17392.43	-60.72985	5.705099E-010	0.0067351	6
	38	55	158.3615	9310.618	-18539.88	1	20746.44	-63.33447	-7.924293E-012	0.0067343	6
	39	56	125.558	10434.02	-22762.05	1	25039.56	-65.37349	9.983121E-010	0.0067371	6
	40	58	100.4464	11811.46	-27613.82	1	30033.88	-66.8418	1.253813E-009	0.0067387	6
	41	59	79.00281	14010.28	-34202.36	1	36960.65	-67.72456	3.940627E-011	0.0067366	6
	42	60	63.3446	16310.42	-41933.3	1	44993.68	-68.7459	1.293992E-009	0.0067309	6
	43	62	49.86702	19807.28	-49714.49	1	53515.03	-68.27664	1.467451E-009	0.006734	6
	44	63	39.72458	24979.8	-60219.2	1	65194.66	-67.47061	5.640188E-010	0.0067414	6
	45	65	31.6723	31225.72	-71690.36	1	78195.61	-66.46381	5.926554E-010	0.0067371	6
	46	66	24.93351	40111.23	-85567.58	1	94502.49	-64.88438	3.185364E-010	0.0067351	6
	47	68	19.86229	50196.94	-99848.6	1	111756.3	-63.30993	-7.685759E-011	0.0067368	5
	48	69	15.83615	61276.57	-114316.2	1	129703.5	-61.80748	1.889737E-009	0.0067384	5
	49	70	12.40079	78267.03	-133710.3	1	154932.8	-59.65752	-2.764766E-010	0.0067386	5
	50	72	9.93114	96081.4	-149479	1	177695.3	-57.26809	9.802742E-010	0.0067368	5
	51	73	7.944915	113314.8	-167937	1	202590.9	-55.99067	5.337337E-010	0.0067399	5
	52	75	6.317385	132961.3	-187707.4	1	230027.8	-54.6884	6.542597E-010	0.006744	5
	53	77	5.008013	154129.7	-210845.8	1	261174.1	-53.83296	3.63893E-010	0.0067469	5
	54	80	3.945707	176616.4	-238807.4	1	297022.5	-53.51423	3.66059E-010	0.006745	5
	55	82	3.158693	199010.5	-269294.7	1	334850.4	-53.53536	-1.129166E-011	0.0067469	5
	56	86	2.504006	223809.7	-307631.6	1	380431.3	-53.96317	4.232419E-010	0.0067376	5
	57	89	1.998082	250190.6	-352235.1	1	432047.3	-54.61403	2.445184E-011	0.0067827	5
	58	92	1.584686	279478.3	-407755.4	1	494340.5	-55.57299	1.758871E-010	0.0067381	5
	59	95	1.266892	313980	-472982.6	1	567711.2	-56.4226	1.017991E-010	0.006781	5
	60	100	0.999041	355474.5	-555167.2	1	659221.3	-57.3685	-4.515021E-011	0.0067011	5
