EXPLAIN
TAG	EISPOT
TITLE	LABEL	Potentiostatic EIS	Test &Identifier
DATE	LABEL	11/27/2019	Date
TIME	LABEL	14:01:20	Time
NOTES	NOTES	3	&Notes...
	
	
	
PSTAT	PSTAT	REF600-11020	Potentiostat
VDC	POTEN	0.00000E+000	T	DC &Voltage (V)
FREQINIT	QUANT	1.00000E+006	Initial Fre&q. (Hz)
FREQFINAL	QUANT	1.00000E+000	Final Fre&q. (Hz)
PTSPERDEC	QUANT	1.00000E+001	Points/&decade
VAC	QUANT	2.50000E+001	AC &Voltage (mV rms)
AREA	QUANT	1.00000E-002	&Area (cm^2)
CONDIT	TWOPARAM	T	5.00000E+000	0.00000E+000	Conditionin&g	Time(s)	E(V)
DELAY	TWOPARAM	T	5.00000E+000	0.00000E+000	Init. De&lay	Time(s)	Stab.(mV/s)
SPEED	SELECTOR	1	&Optimize for:
ZGUESS	QUANT	1.00000E+005	E&stimated Z (ohms)
OCVCURVE	TABLE	19
	Pt	T	Vf	Vm	Ach	Over
	#	s	V vs. Ref.	V	V	bits
	0	0.258333	6.73870E-002	6.73870E-002	5.38533E-004	...........
	1	0.516667	6.74860E-002	7.25676E-002	5.37633E-004	...........
	2	0.775	6.80880E-002	7.71795E-002	5.43999E-004	...........
	3	1.03333	6.97711E-002	8.15526E-002	5.40766E-004	...........
	4	1.29167	7.27363E-002	8.54912E-002	5.39699E-004	...........
	5	1.55	7.65992E-002	8.90825E-002	5.42166E-004	...........
	6	1.80833	8.07676E-002	9.25488E-002	5.47433E-004	...........
	7	2.06667	8.48238E-002	9.56821E-002	5.38333E-004	...........
	8	2.325	8.85978E-002	9.85456E-002	5.36366E-004	...........
	9	2.58333	9.20674E-002	1.01378E-001	5.42399E-004	...........
	10	2.84167	9.52642E-002	1.03871E-001	5.45999E-004	...........
	11	3.1	9.82283E-002	1.06254E-001	5.49499E-004	...........
	12	3.35833	1.00990E-001	1.08590E-001	5.43466E-004	...........
	13	3.61667	1.03572E-001	1.10656E-001	5.47166E-004	...........
	14	3.875	1.05996E-001	1.12646E-001	5.47133E-004	...........
	15	4.13333	1.08273E-001	1.14587E-001	5.41999E-004	...........
	16	4.39167	1.10413E-001	1.16292E-001	5.44899E-004	...........
	17	4.65	1.12427E-001	1.17986E-001	5.43766E-004	...........
	18	4.90833	1.14323E-001	1.19642E-001	5.43199E-004	...........
EOC	QUANT	0.1143227	Open Circuit (V)
PSTATMODEL	IQUANT	4	Pstat Model
PSTATSECTION	LABEL	REF600-11020	Pstat Section
PSTATSERIALNO	LABEL	11020	Pstat Serial Number
CTRLMODE	IQUANT	1	Control Mode
IESTAB	IQUANT	0	I/E Stability
CASPEED	IQUANT	1	Control Amp Speed
CONVENTION	IQUANT	1	Current Convention
ICHRANGE	IQUANT	2	Ich Range
ICHRANGEMODE	TOGGLE	F	Ich Auto Range
ICHOFFSETENABLE	TOGGLE	T	Ich Offset Enable
ICHOFFSET	QUANT	0	Ich Offset (V)
ICHFILTER	IQUANT	3	Ich Filter
VCHRANGE	IQUANT	2	Vch Range
VCHRANGEMODE	TOGGLE	F	Vch Auto Range
VCHOFFSETENABLE	TOGGLE	T	Vch Offset Enable
VCHOFFSET	QUANT	0	Vch Offset (V)
VCHFILTER	IQUANT	3	Vch Filter
ACHRANGE	IQUANT	2	Ach Range
ACHOFFSETENABLE	TOGGLE	F	Ach Offset Enable
ACHOFFSET	QUANT	0	Ach Offset (V)
ACHFILTER	IQUANT	3	Ach Filter
IERANGELOWERLIMIT	IQUANT	1	I/E Range Lower Limit
IERANGEMODE	TOGGLE	F	I/E AutoRange
IERANGE	IQUANT	6	I/E Range
POSFEEDENABLE	TOGGLE	F	Positive Feedback IR Comp
POSFEEDRESISTANCE	QUANT	0	Positive Feedback Resistance (ohm)
ACHSELECT	IQUANT	0	Ach Select
CABLEID	IQUANT	14	Cable ID
DCCALDATE	LABEL	8/19/2019	DC Calibration Date
ACCALDATE	LABEL	8/19/2019	AC Calibration Date
THERMOSELECT	IQUANT	1	Thermo Select
FRAMEWORKVERSION	QUANT	6.33	Framework Version
INSTRUMENTVERSION	LABEL	3.50	Instrument Version
ZCURVE	TABLE
	Pt	Time	Freq	Zreal	Zimag	Zsig	Zmod	Zphz	Idc	Vdc	IERange
	#	s	Hz	ohm	ohm	V	ohm	°	A	V	#
	0	1	1000078	1643.183	-1189.368	1	2028.459	-35.89776	-2.875637E-006	0.1168373	8
	1	3	794390.6	1852.037	-1256.207	1	2237.878	-34.1484	-3.334365E-006	0.1167026	8
	2	4	630984.4	2068.629	-1293.158	1	2439.566	-32.01067	5.184871E-006	0.1158156	8
	3	5	501234.4	2289.347	-1318.595	1	2641.931	-29.94065	6.343537E-006	0.1150235	8
	4	7	398109.4	2515.059	-1321.478	1	2841.096	-27.71861	-1.25376E-006	0.1154911	8
	5	8	316265.6	2735.099	-1308.043	1	3031.789	-25.55915	8.261911E-007	0.1161157	8
	6	9	251203.1	2945.007	-1281.861	1	3211.889	-23.52185	-2.383281E-006	0.1162398	8
	7	11	199546.9	3136.669	-1254.162	1	3378.108	-21.79345	1.781029E-006	0.1153303	8
	8	12	158578.1	3327.023	-1218.981	1	3543.303	-20.12222	5.269867E-006	0.1150797	8
	9	14	125953.1	3524.037	-1174.276	1	3714.534	-18.42906	6.374632E-007	0.1175186	7
	10	15	100078.1	3680.964	-1144.712	1	3854.849	-17.27474	8.506042E-007	0.1141674	7
	11	16	79453.13	3830.674	-1150.532	1	3999.723	-16.71749	1.003916E-006	0.1146044	7
	12	18	63140.62	3949.907	-1153.922	1	4115.009	-16.28514	-7.792429E-007	0.1172449	7
	13	19	50203.12	4092.313	-1166.922	1	4255.436	-15.91548	-1.125457E-006	0.1167733	7
	14	20	39890.62	4241.472	-1205.479	1	4409.452	-15.8658	-9.781872E-007	0.1172158	7
	15	22	31640.63	4397.186	-1254.8	1	4572.72	-15.92686	-7.77538E-007	0.1172437	7
	16	23	25171.88	4551.34	-1310.878	1	4736.359	-16.06747	-1.126493E-006	0.1167678	7
	17	24	20015.62	4747.72	-1402.984	1	4950.678	-16.46278	6.106192E-007	0.1157913	7
	18	26	15890.62	4935.02	-1494.135	1	5156.245	-16.84431	8.006771E-007	0.1153993	7
	19	28	12609.37	5099.147	-1582.089	1	5338.943	-17.2373	-9.923211E-007	0.1162667	7
	20	29	10078.13	5334.674	-1715.911	1	5603.847	-17.83051	6.117029E-007	0.1157913	7
	21	31	8015.625	5526.622	-1824.306	1	5819.935	-18.26776	-1.128667E-006	0.1167682	7
	22	32	6328.125	5820.172	-2003.58	1	6155.383	-18.9959	8.032133E-007	0.1153944	7
	23	34	5015.625	6083.091	-2171.634	1	6459.101	-19.64631	8.559073E-007	0.114136	7
	24	35	3984.375	6350.653	-2351.625	1	6772.07	-20.31942	6.50877E-007	0.1140943	7
	25	37	3170.956	6652.03	-2572.074	1	7131.975	-21.13949	9.724902E-007	0.1143117	7
	26	39	2527.573	6957.992	-2817.801	1	7506.907	-22.04663	1.010664E-006	0.1145813	7
	27	40	1976.103	7306.289	-3123.92	1	7946.114	-23.1499	9.555847E-007	0.1149455	7
	28	42	1577.524	7661.354	-3421.817	1	8390.779	-24.06713	6.533969E-007	0.1140887	7
	29	43	1265.625	7934.227	-3751.299	1	8776.343	-25.30477	-1.113801E-006	0.1170692	7
	30	45	998.264	8324.249	-4204.432	1	9325.79	-26.79754	-1.131152E-006	0.1167595	7
	31	46	796.875	8730.309	-4705.508	1	9917.67	-28.32402	-1.113025E-006	0.1170738	7
	32	48	627.7902	9185.968	-5376.675	1	10643.81	-30.34103	-5.123109E-007	0.1171302	7
	33	49	505.5147	9614.98	-6115.734	1	11395.18	-32.45893	-3.758533E-008	0.117582	6
	34	50	397.9953	10065.69	-7087.773	1	12310.75	-35.15135	-1.32133E-009	0.115658	6
	35	52	315.5048	10525.96	-8280.901	1	13392.87	-38.19257	-2.364803E-010	0.1156574	6
	36	53	252.4038	11005.92	-9713.59	1	14679.38	-41.43095	-4.108604E-010	0.1156512	6
	37	54	198.6229	11600.35	-11626.67	1	16423.99	-45.06495	-1.118182E-009	0.1156584	6
	38	56	158.3615	12264.22	-13879.34	1	18521.53	-48.53518	-9.795832E-010	0.1156522	6
	39	57	125.558	13093.72	-16719.13	1	21236.17	-51.93344	-2.072031E-009	0.1156567	6
	40	59	100.4464	14062.45	-20042.77	1	24483.97	-54.94565	-1.913872E-009	0.1156617	6
	41	60	79.00281	15409.61	-24460.33	1	28909.58	-57.78974	-2.857316E-009	0.1156534	6
	42	61	63.3446	16719.36	-29002.13	1	33476.27	-60.0371	-1.763582E-009	0.1156498	6
	43	63	49.86702	19254.77	-35717.79	1	40577.17	-61.67175	-3.184702E-009	0.1156555	6
	44	64	39.72458	21468.12	-42904.85	1	47976.1	-63.41819	-1.965015E-009	0.1156649	6
	45	66	31.6723	24559.15	-51575.29	1	57124.1	-64.53712	-2.092153E-009	0.1156444	6
	46	67	24.93351	28784.33	-62297.95	1	68626.32	-65.20103	-1.592937E-009	0.1156539	6
	47	68	19.86229	33656.99	-74544.73	1	81790.64	-65.7008	-2.427633E-009	0.1156473	6
	48	70	15.83615	39887.7	-88627.42	1	97189.8	-65.76937	-1.688087E-009	0.1156497	6
	49	71	12.40079	47144.88	-107851.9	1	117705.9	-66.38861	-1.423107E-009	0.1156569	5
	50	72	9.93114	57137.98	-126807.6	1	139086	-65.74426	-2.510779E-009	0.1156643	5
	51	74	7.944915	68019.79	-149691.5	1	164421	-65.56297	-1.55377E-009	0.1156584	5
	52	76	6.317385	81968.38	-177125.1	1	195172	-65.16666	-1.820286E-009	0.115662	5
	53	78	5.008013	99249.8	-209948.7	1	232226.1	-64.69832	-1.990643E-009	0.1156548	5
	54	80	3.945707	120379.6	-248519.9	1	276140.2	-64.15509	-2.271932E-009	0.1156588	5
	55	83	3.158693	144747.8	-290544.9	1	324604.8	-63.51777	-2.165906E-009	0.1156483	5
	56	86	2.504006	174748.3	-341015	1	383181.7	-62.86777	-2.05071E-009	0.1156583	5
	57	89	1.998082	209636.4	-397100.5	1	449039.2	-62.16963	-1.892635E-009	0.1156587	5
	58	92	1.584686	254073	-462382.3	1	527589.4	-61.21178	-2.060396E-009	0.11561	5
	59	96	1.266892	303326.2	-535384.6	1	615340.1	-60.46595	-1.888577E-009	0.1156714	5
	60	100	0.999041	367749.3	-622891.8	1	723348.9	-59.44281	-2.230585E-009	0.1156205	5
