EXPLAIN
TAG	EISPOT
TITLE	LABEL	Potentiostatic IDE	Test &Identifier
DATE	LABEL	9/8/2019	Date
TIME	LABEL	11:34:47	Time
NOTES	NOTES	1	&Notes...
	
PSTAT	PSTAT	REF600-11020	Potentiostat
VDC	POTEN	0.00000E+000	T	DC &Voltage (V)
FREQINIT	QUANT	1.00000E+006	Initial Fre&q. (Hz)
FREQFINAL	QUANT	1.00000E+000	Final Fre&q. (Hz)
PTSPERDEC	QUANT	1.00000E+001	Points/&decade
VAC	QUANT	2.50000E+001	AC &Voltage (mV rms)
AREA	QUANT	1.00000E-002	&Area (cm^2)
CONDIT	TWOPARAM	T	5.00000E+000	0.00000E+000	Conditionin&g	Time(s)	E(V)
DELAY	TWOPARAM	T	5.00000E+000	0.00000E+000	Init. De&lay	Time(s)	Stab.(mV/s)
SPEED	SELECTOR	1	&Optimize for:
ZGUESS	QUANT	1.00000E+007	E&stimated Z (ohms)
OCVCURVE	TABLE	19
	Pt	T	Vf	Vm	Ach	Over
	#	s	V vs. Ref.	V	V	bits
	0	0.258333	2.77035E-003	2.77035E-003	5.61132E-004	...........
	1	0.516667	2.75919E-003	2.18598E-003	5.70032E-004	...........
	2	0.775	2.69138E-003	1.67081E-003	5.71499E-004	...........
	3	1.03333	2.50246E-003	1.20035E-003	5.65032E-004	...........
	4	1.29167	2.17177E-003	7.76879E-004	5.65732E-004	...........
	5	1.55	1.74481E-003	3.86600E-004	5.64566E-004	...........
	6	1.80833	1.28879E-003	2.96278E-005	5.56933E-004	...........
	7	2.06667	8.49711E-004	-3.07203E-004	5.64832E-004	...........
	8	2.325	4.45153E-004	-6.18294E-004	5.65899E-004	...........
	9	2.58333	7.55009E-005	-9.09202E-004	5.66299E-004	...........
	10	2.84167	-2.64390E-004	-1.18025E-003	5.59832E-004	...........
	11	3.1	-5.79428E-004	-1.43887E-003	5.65699E-004	...........
	12	3.35833	-8.73383E-004	-1.68681E-003	5.64832E-004	...........
	13	3.61667	-1.14939E-003	-1.91408E-003	5.64999E-004	...........
	14	3.875	-1.40972E-003	-2.13278E-003	5.64099E-004	...........
	15	4.13333	-1.65565E-003	-2.34264E-003	5.62432E-004	...........
	16	4.39167	-1.88828E-003	-2.54188E-003	5.62266E-004	...........
	17	4.65	-2.10904E-003	-2.73170E-003	5.62599E-004	...........
	18	4.90833	-2.31919E-003	-2.91419E-003	5.59932E-004	...........
EOC	QUANT	-0.0023192	Open Circuit (V)
PSTATMODEL	IQUANT	4	Pstat Model
PSTATSECTION	LABEL	REF600-11020	Pstat Section
PSTATSERIALNO	LABEL	11020	Pstat Serial Number
CTRLMODE	IQUANT	1	Control Mode
IESTAB	IQUANT	0	I/E Stability
CASPEED	IQUANT	1	Control Amp Speed
CONVENTION	IQUANT	1	Current Convention
ICHRANGE	IQUANT	2	Ich Range
ICHRANGEMODE	TOGGLE	F	Ich Auto Range
ICHOFFSETENABLE	TOGGLE	T	Ich Offset Enable
ICHOFFSET	QUANT	0	Ich Offset (V)
ICHFILTER	IQUANT	3	Ich Filter
VCHRANGE	IQUANT	2	Vch Range
VCHRANGEMODE	TOGGLE	F	Vch Auto Range
VCHOFFSETENABLE	TOGGLE	T	Vch Offset Enable
VCHOFFSET	QUANT	0	Vch Offset (V)
VCHFILTER	IQUANT	3	Vch Filter
ACHRANGE	IQUANT	2	Ach Range
ACHOFFSETENABLE	TOGGLE	F	Ach Offset Enable
ACHOFFSET	QUANT	0	Ach Offset (V)
ACHFILTER	IQUANT	3	Ach Filter
IERANGELOWERLIMIT	IQUANT	1	I/E Range Lower Limit
IERANGEMODE	TOGGLE	F	I/E AutoRange
IERANGE	IQUANT	2	I/E Range
POSFEEDENABLE	TOGGLE	F	Positive Feedback IR Comp
POSFEEDRESISTANCE	QUANT	0	Positive Feedback Resistance (ohm)
ACHSELECT	IQUANT	0	Ach Select
CABLEID	IQUANT	14	Cable ID
DCCALDATE	LABEL	8/19/2019	DC Calibration Date
ACCALDATE	LABEL	8/19/2019	AC Calibration Date
THERMOSELECT	IQUANT	1	Thermo Select
FRAMEWORKVERSION	QUANT	6.33	Framework Version
INSTRUMENTVERSION	LABEL	3.50	Instrument Version
ZCURVE	TABLE
	Pt	Time	Freq	Zreal	Zimag	Zsig	Zmod	Zphz	Idc	Vdc	IERange
	#	s	Hz	ohm	ohm	V	ohm	°	A	V	#
	0	2	1000078	2548.449	-1876.966	1	3165.058	-36.37214	-1.529971E-006	-3.667418E-005	8
	1	4	794390.6	2915.807	-1833.223	1	3444.218	-32.15836	-1.93553E-006	9.230505E-005	8
	2	5	630984.4	3262.68	-1764.597	1	3709.297	-28.40642	2.269586E-006	-0.0006974	8
	3	7	501234.4	3566.643	-1659.975	1	3934.013	-24.95806	-8.508517E-007	-0.0003727	8
	4	8	398109.4	3814.077	-1524.027	1	4107.292	-21.78064	-9.950069E-007	-0.0001116	8
	5	10	316265.6	4048.427	-1416.175	1	4288.976	-19.28028	1.866614E-006	-0.0010358	8
	6	11	251203.1	4231.444	-1261.657	1	4415.529	-16.6026	-4.661317E-006	0.0004235	8
	7	13	199546.9	4386.542	-1179.392	1	4542.326	-15.049	-1.597271E-006	-0.0002983	8
	8	15	158578.1	4515.06	-1076.512	1	4641.621	-13.41048	-3.206568E-006	7.312073E-005	8
	9	16	125953.1	4661.887	-970.392	1	4761.812	-11.75845	-5.618052E-007	0.000617	7
	10	17	100078.1	4745.76	-907.7332	1	4831.792	-10.82832	8.151811E-008	-0.0007962	7
	11	18	79453.13	4839.376	-884.7177	1	4919.583	-10.3602	3.447578E-008	-0.0006886	7
	12	20	63140.62	4930.066	-874.8464	1	5007.085	-10.06246	-1.788292E-008	-0.0006052	7
	13	21	50203.12	5021.125	-883.3209	1	5098.23	-9.97743	-1.653899E-008	-0.0005257	7
	14	22	39890.62	5112.499	-906.4523	1	5192.235	-10.05413	8.335275E-008	-0.0007997	7
	15	24	31640.63	5209.743	-949.3359	1	5295.532	-10.32731	-7.881571E-009	-0.0006104	7
	16	25	25171.88	5311.018	-1004.929	1	5405.256	-10.71461	-2.013949E-008	-0.0006707	7
	17	26	20015.62	5417.936	-1081.432	1	5524.81	-11.28802	-5.123904E-008	-0.0005587	7
	18	28	15890.62	5526.692	-1183.49	1	5651.988	-12.08681	7.561168E-009	-0.0007414	7
	19	29	12609.37	5666.049	-1290.413	1	5811.134	-12.82998	-3.658079E-008	-0.0006429	7
	20	30	10078.13	5803.665	-1424.884	1	5976.02	-13.7941	-5.08593E-008	-0.0005595	7
	21	32	8015.625	5957.428	-1584.838	1	6164.629	-14.89721	-4.034755E-008	-0.0006025	7
	22	33	6328.125	6136.74	-1778.533	1	6389.269	-16.1625	-2.08549E-008	-0.0006717	7
	23	34	5015.625	6332.264	-2003.578	1	6641.678	-17.55778	-3.67777E-008	-0.0005418	7
	24	36	3984.375	6554.75	-2261.839	1	6934.022	-19.03795	-9.34646E-009	-0.0006203	7
	25	37	3170.956	6797.96	-2555.324	1	7262.365	-20.60102	2.396527E-008	-0.0007544	7
	26	38	2527.573	7073.329	-2897.689	1	7643.859	-22.27715	-6.083896E-008	-0.0005683	7
	27	40	1976.103	7416.733	-3327.088	1	8128.803	-24.16063	-1.088713E-008	-0.0006358	7
	28	41	1577.524	7777.741	-3781.161	1	8648.146	-25.92677	1.380371E-007	-0.0008709	7
	29	42	1265.625	8180.036	-4289.481	1	9236.483	-27.6718	-1.666182E-008	-0.0005328	7
	30	44	998.264	8674.657	-4893.825	1	9959.88	-29.4296	-1.363828E-009	-0.0008528	6
	31	45	796.875	9207.807	-5555.878	1	10754.14	-31.10627	1.423143E-008	-0.0008883	6
	32	46	627.7902	9855.9	-6346.639	1	11722.57	-32.77924	-9.760561E-009	-0.0006489	6
	33	48	505.5147	10503.94	-7155.077	1	12709.36	-34.26193	-8.427737E-009	-0.0006412	6
	34	49	397.9953	11274.23	-8145.835	1	13909.1	-35.84878	1.19003E-009	-0.0007244	6
	35	50	315.5048	12066.65	-9251.822	1	15205.27	-37.47834	4.039295E-010	-0.0007154	6
	36	52	252.4038	12842.12	-10489.67	1	16581.71	-39.24258	1.228404E-009	-0.000719	6
	37	53	198.6229	13677.97	-12090.95	1	18255.89	-41.4758	1.036579E-009	-0.0007215	6
	38	54	158.3615	14460.28	-13958.45	1	20098.21	-43.98835	1.023682E-009	-0.0007244	6
	39	56	125.558	15262.87	-16353.97	1	22369.79	-46.97649	6.453309E-010	-0.0007249	6
	40	57	100.4464	16060.47	-19262.38	1	25079.44	-50.17954	1.430857E-009	-0.0007194	6
	41	58	79.00281	16994.98	-23218.72	1	28773.92	-53.79768	9.108745E-010	-0.0007225	6
	42	60	63.3446	17744.71	-27745.34	1	32934.46	-57.39879	5.685876E-010	-0.000718	6
	43	61	49.86702	19364.58	-33907.35	1	39047.35	-60.26919	2.469298E-011	-0.0007232	6
	44	63	39.72458	20681.91	-41211.33	1	46109.82	-63.35021	5.33936E-010	-0.0007203	6
	45	64	31.6723	22606.17	-50047.19	1	54915.94	-65.69144	2.58596E-010	-0.0007227	6
	46	65	24.93351	25132.48	-61798.69	1	66713.71	-67.86926	7.758016E-010	-0.0007275	6
	47	67	19.86229	28250.58	-75440.06	1	80556.18	-69.47022	9.96396E-010	-0.0007196	6
	48	68	15.83615	31789.14	-91792.04	1	97140.8	-70.89816	2.576398E-011	-0.0007276	6
	49	69	12.40079	37608.68	-113645.7	1	119707	-71.68912	-7.537246E-011	-0.0007192	5
	50	71	9.93114	45015.87	-137127.2	1	144327.1	-71.82613	7.061244E-010	-0.0007201	5
	51	72	7.944915	53948.4	-165929.4	1	174479.2	-71.98917	5.218946E-010	-0.0007179	5
	52	74	6.317385	65275.37	-200808.3	1	211151.2	-71.99257	2.574878E-010	-0.0007036	5
	53	76	5.008013	80121.09	-243282.5	1	256136.2	-71.77155	2.715606E-010	-0.0007187	5
	54	78	3.945707	100629	-295159.1	1	311841.4	-71.17415	-2.722888E-010	-0.0007257	5
	55	81	3.158693	121377.7	-352865.8	1	373157.9	-71.01796	3.817313E-010	-0.0007168	5
	56	84	2.504006	150017.6	-424235.3	1	449978.8	-70.52544	3.898327E-011	-0.000721	5
	57	87	1.998082	184862.5	-504377.8	1	537188.1	-69.87132	2.885953E-010	-0.0007596	5
	58	90	1.584686	228034.9	-604157.4	1	645760.1	-69.32134	1.294784E-010	-0.0007724	5
	59	94	1.266892	280457	-713637.7	1	766769.1	-68.54536	1.99851E-010	-0.0007378	5
	60	98	0.999041	348668.2	-856725	1	924957.9	-67.85476	6.632822E-011	-0.0007385	5
