EXPLAIN
TAG	EISPOT
TITLE	LABEL	Potentiostatic EIS	Test &Identifier
DATE	LABEL	10/10/2019	Date
TIME	LABEL	10:20:28	Time
NOTES	NOTES	1	&Notes...
	
PSTAT	PSTAT	REF600-11020	Potentiostat
VDC	POTEN	0.00000E+000	T	DC &Voltage (V)
FREQINIT	QUANT	1.00000E+006	Initial Fre&q. (Hz)
FREQFINAL	QUANT	1.00000E+000	Final Fre&q. (Hz)
PTSPERDEC	QUANT	1.00000E+001	Points/&decade
VAC	QUANT	2.50000E+001	AC &Voltage (mV rms)
AREA	QUANT	1.00000E-002	&Area (cm^2)
CONDIT	TWOPARAM	T	5.00000E+000	0.00000E+000	Conditionin&g	Time(s)	E(V)
DELAY	TWOPARAM	T	5.00000E+000	0.00000E+000	Init. De&lay	Time(s)	Stab.(mV/s)
SPEED	SELECTOR	1	&Optimize for:
ZGUESS	QUANT	1.00000E+004	E&stimated Z (ohms)
OCVCURVE	TABLE	19
	Pt	T	Vf	Vm	Ach	Over
	#	s	V vs. Ref.	V	V	bits
	0	0.258333	9.54647E-003	9.54647E-003	5.71599E-004	...........
	1	0.516667	9.54157E-003	9.28999E-003	5.67866E-004	...........
	2	0.775	9.51202E-003	9.07494E-003	5.70266E-004	...........
	3	1.03333	9.43962E-003	9.36152E-003	5.71099E-004	...........
	4	1.29167	9.36330E-003	1.00901E-002	5.70932E-004	...........
	5	1.55	9.40542E-003	1.13337E-002	5.68632E-004	...........
	6	1.80833	9.70324E-003	1.20434E-002	5.69099E-004	...........
	7	2.06667	1.02575E-002	1.10312E-002	5.63399E-004	...........
	8	2.325	1.08348E-002	1.04438E-002	5.72966E-004	...........
	9	2.58333	1.11160E-002	9.72123E-003	5.68966E-004	...........
	10	2.84167	1.09755E-002	9.50748E-003	5.72232E-004	...........
	11	3.1	1.05497E-002	9.43714E-003	5.72166E-004	...........
	12	3.35833	1.00822E-002	9.83843E-003	5.71132E-004	...........
	13	3.61667	9.75886E-003	9.55167E-003	5.66099E-004	...........
	14	3.875	9.61828E-003	9.41002E-003	5.74865E-004	...........
	15	4.13333	9.57125E-003	9.26702E-003	5.72132E-004	...........
	16	4.39167	9.51100E-003	8.87068E-003	5.66632E-004	...........
	17	4.65	9.38373E-003	8.58937E-003	5.65466E-004	...........
	18	4.90833	9.18341E-003	8.47825E-003	5.68166E-004	...........
EOC	QUANT	0.0091834	Open Circuit (V)
PSTATMODEL	IQUANT	4	Pstat Model
PSTATSECTION	LABEL	REF600-11020	Pstat Section
PSTATSERIALNO	LABEL	11020	Pstat Serial Number
CTRLMODE	IQUANT	1	Control Mode
IESTAB	IQUANT	0	I/E Stability
CASPEED	IQUANT	1	Control Amp Speed
CONVENTION	IQUANT	1	Current Convention
ICHRANGE	IQUANT	2	Ich Range
ICHRANGEMODE	TOGGLE	F	Ich Auto Range
ICHOFFSETENABLE	TOGGLE	T	Ich Offset Enable
ICHOFFSET	QUANT	0	Ich Offset (V)
ICHFILTER	IQUANT	3	Ich Filter
VCHRANGE	IQUANT	2	Vch Range
VCHRANGEMODE	TOGGLE	F	Vch Auto Range
VCHOFFSETENABLE	TOGGLE	T	Vch Offset Enable
VCHOFFSET	QUANT	0	Vch Offset (V)
VCHFILTER	IQUANT	3	Vch Filter
ACHRANGE	IQUANT	2	Ach Range
ACHOFFSETENABLE	TOGGLE	F	Ach Offset Enable
ACHOFFSET	QUANT	0	Ach Offset (V)
ACHFILTER	IQUANT	3	Ach Filter
IERANGELOWERLIMIT	IQUANT	1	I/E Range Lower Limit
IERANGEMODE	TOGGLE	F	I/E AutoRange
IERANGE	IQUANT	6	I/E Range
POSFEEDENABLE	TOGGLE	F	Positive Feedback IR Comp
POSFEEDRESISTANCE	QUANT	0	Positive Feedback Resistance (ohm)
ACHSELECT	IQUANT	0	Ach Select
CABLEID	IQUANT	14	Cable ID
DCCALDATE	LABEL	8/19/2019	DC Calibration Date
ACCALDATE	LABEL	8/19/2019	AC Calibration Date
THERMOSELECT	IQUANT	1	Thermo Select
FRAMEWORKVERSION	QUANT	6.33	Framework Version
INSTRUMENTVERSION	LABEL	3.50	Instrument Version
ZCURVE	TABLE
	Pt	Time	Freq	Zreal	Zimag	Zsig	Zmod	Zphz	Idc	Vdc	IERange
	#	s	Hz	ohm	ohm	V	ohm	°	A	V	#
	0	1	1000078	2948.563	-2099.559	1	3619.692	-35.45321	1.211938E-006	0.0112215	8
	1	3	794390.6	3391.78	-2016.306	1	3945.841	-30.73015	3.38807E-006	0.0103978	8
	2	4	630984.4	3764.318	-1906.852	1	4219.736	-26.86494	-1.733857E-007	0.0108838	8
	3	6	501234.4	4045.664	-1734.916	1	4401.969	-23.21127	2.333671E-007	0.010854	8
	4	7	398109.4	4330.22	-1557.325	1	4601.746	-19.78067	2.400128E-007	0.0106335	8
	5	8	316265.6	4523.423	-1379.001	1	4728.954	-16.95426	3.225097E-006	0.010136	8
	6	10	251203.1	4686.982	-1217.061	1	4842.42	-14.55641	5.482152E-007	0.0107271	8
	7	11	199546.9	4816.663	-1095.986	1	4939.78	-12.81886	7.693083E-007	0.0107215	8
	8	13	158578.1	4901.851	-959.945	1	4994.961	-11.08019	-2.98647E-006	0.0114356	8
	9	14	125953.1	5032.685	-827.6921	1	5100.293	-9.339449	-1.332784E-006	0.0137484	7
	10	15	100078.1	5095.298	-782.6347	1	5155.054	-8.73235	4.857457E-008	0.0107481	7
	11	17	79453.13	5163.184	-761.0818	1	5218.976	-8.38533	9.383231E-008	0.0106021	7
	12	18	63140.62	5232.38	-756.168	1	5286.738	-8.223282	-6.821322E-008	0.0109001	7
	13	19	50203.12	5303.263	-768.0602	1	5358.592	-8.240727	-3.613541E-008	0.0108531	7
	14	21	39890.62	5378.445	-794.3301	1	5436.785	-8.401152	9.86142E-008	0.0107148	7
	15	22	31640.63	5454.496	-842.9232	1	5519.243	-8.784843	5.235947E-008	0.0107261	7
	16	23	25171.88	5539.818	-906.8915	1	5613.559	-9.297093	-3.919521E-008	0.0107983	7
	17	25	20015.62	5637.075	-979.024	1	5721.459	-9.85262	9.597323E-008	0.0105959	7
	18	26	15890.62	5738.805	-1091.121	1	5841.611	-10.76518	-5.874942E-008	0.0109784	7
	19	27	12609.37	5854.177	-1210.197	1	5977.957	-11.67987	-2.36518E-009	0.0108295	7
	20	29	10078.13	5978.185	-1347.199	1	6128.103	-12.69961	4.952519E-009	0.0107094	7
	21	30	8015.625	6118.642	-1514.23	1	6303.228	-13.90017	-6.391812E-008	0.0109877	7
	22	32	6328.125	6291.181	-1714.806	1	6520.699	-15.24689	3.425751E-009	0.0107123	7
	23	33	5015.625	6476.657	-1946.291	1	6762.775	-16.72597	9.053242E-009	0.0108849	7
	24	34	3984.375	6697.886	-2207.893	1	7052.409	-18.2443	-1.356953E-008	0.0108086	7
	25	36	3170.956	6929.868	-2516.372	1	7372.598	-19.95696	-8.351368E-010	0.0109077	7
	26	37	2527.573	7191.508	-2880.274	1	7746.855	-21.82662	4.639162E-008	0.0106241	7
	27	38	1976.103	7536.093	-3293.302	1	8224.266	-23.60552	-2.843548E-009	0.0108153	7
	28	40	1577.524	7876.255	-3685.02	1	8695.676	-25.07322	-5.417382E-008	0.0108225	7
	29	41	1265.625	8280.602	-4216.853	1	9292.481	-26.98723	-1.088608E-009	0.0108181	7
	30	43	998.264	8746.9	-4797.96	1	9976.41	-28.7462	-9.988346E-009	0.0108675	6
	31	44	796.875	9205.522	-5425.256	1	10685.27	-30.51289	5.95937E-010	0.010701	6
	32	45	627.7902	9701.39	-6196.014	1	11511.19	-32.56527	3.622543E-010	0.0108675	6
	33	47	505.5147	10157.88	-7035.219	1	12356.24	-34.70599	7.73229E-009	0.0105481	6
	34	48	397.9953	10641.19	-8164.565	1	13412.5	-37.49759	1.332588E-009	0.0107364	6
	35	49	315.5048	11103.92	-9552.41	1	14647.38	-40.70454	1.27911E-011	0.0107326	6
	36	51	252.4038	11556.06	-11230.22	1	16113.98	-44.18073	3.513459E-010	0.0107247	6
	37	52	198.6229	12069.04	-13516.69	1	18120.78	-48.23834	9.44377E-010	0.0107281	6
	38	53	158.3615	12615.74	-16242.1	1	20566.06	-52.16241	-2.265996E-011	0.0107283	6
	39	55	125.558	13271.96	-19742.85	1	23789.18	-56.08937	5.444457E-010	0.0107289	6
	40	56	100.4464	14025.54	-23931.24	1	27738.42	-59.62642	1.081912E-009	0.0107248	6
	41	58	79.00281	15165.87	-29608.86	1	33266.92	-62.87815	-1.374417E-010	0.0107242	6
	42	59	63.3446	15993.87	-36046.96	1	39435.86	-66.07336	3.576228E-010	0.0107247	6
	43	60	49.86702	18301.61	-44046.57	1	47697.47	-67.43682	-7.89476E-010	0.0107254	6
	44	62	39.72458	20439.38	-54214.81	1	57939.75	-69.34319	1.096703E-009	0.010734	6
	45	63	31.6723	23372.22	-66243.91	1	70246.11	-70.5661	9.354627E-010	0.0107286	6
	46	65	24.93351	27208.1	-81486.19	1	85908.55	-71.53593	1.916738E-009	0.010728	6
	47	66	19.86229	32026.49	-99075.3	1	104123	-72.08636	7.928926E-010	0.0107276	6
	48	67	15.83615	38877.29	-118947.8	1	125140	-71.90036	-9.857991E-010	0.0107301	5
	49	69	12.40079	46746.43	-147252.2	1	154494.1	-72.38753	-3.47508E-011	0.0107389	5
	50	70	9.93114	57560.29	-177716.8	1	186805.9	-72.0535	-1.199884E-010	0.0107399	5
	51	72	7.944915	70425.97	-212280.5	1	223657.9	-71.64628	8.93529E-010	0.0107392	5
	52	73	6.317385	86451.39	-256900.3	1	271056.4	-71.40102	-1.312565E-011	0.0107508	5
	53	75	5.008013	107608.7	-309176.6	1	327368	-70.80958	9.700211E-011	0.0107309	5
	54	78	3.945707	134499	-371660.3	1	395248.5	-70.10548	3.41627E-010	0.010744	5
	55	81	3.158693	165783.8	-440634.1	1	470789.4	-69.38174	5.562468E-011	0.0107288	5
	56	84	2.504006	206409.2	-524161.4	1	563338.3	-68.50601	4.094299E-010	0.0107347	5
	57	87	1.998082	251846.9	-618890.6	1	668171	-67.85698	4.316946E-010	0.0107797	5
	58	90	1.584686	308375.7	-728797.6	1	791354.2	-67.06535	1.753633E-010	0.0107183	5
	59	94	1.266892	374542	-860453.8	1	938436.1	-66.47726	4.09965E-010	0.0107737	5
	60	98	0.999041	456296	-1017419	1	1115055	-65.84454	-1.826954E-011	0.0106954	4
