EXPLAIN
TAG	EISPOT
TITLE	LABEL	Potentiostatic EIS	Test &Identifier
DATE	LABEL	11/9/2019	Date
TIME	LABEL	9:42:45	Time
NOTES	NOTES	2	&Notes...
	
	
PSTAT	PSTAT	REF600-11020	Potentiostat
VDC	POTEN	0.00000E+000	T	DC &Voltage (V)
FREQINIT	QUANT	1.00000E+006	Initial Fre&q. (Hz)
FREQFINAL	QUANT	1.00000E+000	Final Fre&q. (Hz)
PTSPERDEC	QUANT	1.00000E+001	Points/&decade
VAC	QUANT	2.50000E+001	AC &Voltage (mV rms)
AREA	QUANT	1.00000E-002	&Area (cm^2)
CONDIT	TWOPARAM	T	5.00000E+000	0.00000E+000	Conditionin&g	Time(s)	E(V)
DELAY	TWOPARAM	T	5.00000E+000	0.00000E+000	Init. De&lay	Time(s)	Stab.(mV/s)
SPEED	SELECTOR	0	&Optimize for:
ZGUESS	QUANT	1.00000E+005	E&stimated Z (ohms)
OCVCURVE	TABLE	19
	Pt	T	Vf	Vm	Ach	Over
	#	s	V vs. Ref.	V	V	bits
	0	0.258333	5.41254E-003	5.41254E-003	5.54166E-004	...........
	1	0.516667	5.40655E-003	5.09917E-003	5.52033E-004	...........
	2	0.775	5.37806E-003	5.23489E-003	5.50433E-004	...........
	3	1.03333	5.32122E-003	5.17126E-003	5.56966E-004	...........
	4	1.29167	5.25238E-003	4.88978E-003	5.59599E-004	...........
	5	1.55	5.17243E-003	4.59352E-003	5.62466E-004	...........
	6	1.80833	5.05880E-003	4.76884E-003	5.62832E-004	...........
	7	2.06667	4.91923E-003	4.66131E-003	5.62699E-004	...........
	8	2.325	4.79507E-003	4.49411E-003	5.65132E-004	...........
	9	2.58333	4.69803E-003	4.26245E-003	5.60466E-004	...........
	10	2.84167	4.60273E-003	4.43369E-003	5.66999E-004	...........
	11	3.1	4.50335E-003	4.33422E-003	5.62666E-004	...........
	12	3.35833	4.42073E-003	4.17494E-003	5.58632E-004	...........
	13	3.61667	4.35431E-003	4.00864E-003	5.56633E-004	...........
	14	3.875	4.28139E-003	4.17249E-003	5.55166E-004	...........
	15	4.13333	4.20375E-003	4.11966E-003	5.59432E-004	...........
	16	4.39167	4.14601E-003	4.02281E-003	5.63699E-004	...........
	17	4.65	4.10941E-003	3.87101E-003	5.63299E-004	...........
	18	4.90833	4.07244E-003	4.11811E-003	5.61999E-004	...........
EOC	QUANT	0.0040724	Open Circuit (V)
PSTATMODEL	IQUANT	4	Pstat Model
PSTATSECTION	LABEL	REF600-11020	Pstat Section
PSTATSERIALNO	LABEL	11020	Pstat Serial Number
CTRLMODE	IQUANT	1	Control Mode
IESTAB	IQUANT	0	I/E Stability
CASPEED	IQUANT	1	Control Amp Speed
CONVENTION	IQUANT	1	Current Convention
ICHRANGE	IQUANT	2	Ich Range
ICHRANGEMODE	TOGGLE	F	Ich Auto Range
ICHOFFSETENABLE	TOGGLE	T	Ich Offset Enable
ICHOFFSET	QUANT	0	Ich Offset (V)
ICHFILTER	IQUANT	3	Ich Filter
VCHRANGE	IQUANT	2	Vch Range
VCHRANGEMODE	TOGGLE	F	Vch Auto Range
VCHOFFSETENABLE	TOGGLE	T	Vch Offset Enable
VCHOFFSET	QUANT	0	Vch Offset (V)
VCHFILTER	IQUANT	3	Vch Filter
ACHRANGE	IQUANT	2	Ach Range
ACHOFFSETENABLE	TOGGLE	F	Ach Offset Enable
ACHOFFSET	QUANT	0	Ach Offset (V)
ACHFILTER	IQUANT	3	Ach Filter
IERANGELOWERLIMIT	IQUANT	1	I/E Range Lower Limit
IERANGEMODE	TOGGLE	F	I/E AutoRange
IERANGE	IQUANT	4	I/E Range
POSFEEDENABLE	TOGGLE	F	Positive Feedback IR Comp
POSFEEDRESISTANCE	QUANT	0	Positive Feedback Resistance (ohm)
ACHSELECT	IQUANT	0	Ach Select
CABLEID	IQUANT	14	Cable ID
DCCALDATE	LABEL	8/19/2019	DC Calibration Date
ACCALDATE	LABEL	8/19/2019	AC Calibration Date
THERMOSELECT	IQUANT	1	Thermo Select
FRAMEWORKVERSION	QUANT	6.33	Framework Version
INSTRUMENTVERSION	LABEL	3.50	Instrument Version
ZCURVE	TABLE
	Pt	Time	Freq	Zreal	Zimag	Zsig	Zmod	Zphz	Idc	Vdc	IERange
	#	s	Hz	ohm	ohm	V	ohm	°	A	V	#
	0	1	1000078	2457.48	-1714.63	1	2996.526	-34.90421	1.139961E-006	0.0061255	8
	1	1	794390.6	2771.677	-1671.711	1	3236.79	-31.09589	-8.173716E-007	0.0054475	8
	2	2	630984.4	3066.332	-1597.741	1	3457.624	-27.52219	-2.098435E-006	0.0054068	8
	3	2	501234.4	3300.446	-1484.765	1	3619.042	-24.22146	2.798119E-006	0.0060571	8
	4	2	398109.4	3595.629	-1393.567	1	3856.239	-21.18496	7.538235E-006	0.0046524	8
	5	2	316265.6	3771.767	-1272.706	1	3980.705	-18.64592	-7.517085E-007	0.0052237	8
	6	3	251203.1	3926.762	-1162.387	1	4095.193	-16.48964	-2.421212E-006	0.0057206	8
	7	3	199546.9	4042.489	-1043.077	1	4174.892	-14.46836	4.867891E-006	0.0055093	8
	8	3	158578.1	4158.231	-954.667	1	4266.413	-12.93017	-2.002815E-006	0.0052883	8
	9	4	125953.1	4323.875	-846.2291	1	4405.905	-11.07344	4.805972E-006	-0.000166	7
	10	4	100078.1	4375.771	-809.7682	1	4450.067	-10.48439	7.709652E-007	0.0058177	7
	11	4	79453.13	4447.403	-797.8088	1	4518.395	-10.16998	7.791922E-008	0.0067817	7
	12	5	63140.62	4530.511	-794.8755	1	4599.713	-9.95123	-3.882287E-007	0.0072867	7
	13	5	50203.12	4624.131	-818.4588	1	4696.005	-10.03724	1.405725E-006	0.0036308	7
	14	5	39890.62	4690.249	-852.3289	1	4767.064	-10.2996	-3.996005E-007	0.007288	7
	15	6	31640.63	4784.702	-919.7182	1	4872.295	-10.88071	4.830385E-007	0.0062252	7
	16	6	25171.88	4867.513	-990.135	1	4967.197	-11.49806	-8.136163E-007	0.0075817	7
	17	6	20015.62	4971.158	-1076.584	1	5086.398	-12.21961	-8.112692E-007	0.0075778	7
	18	7	15890.62	5082.863	-1183.99	1	5218.939	-13.11252	7.519382E-008	0.0067805	7
	19	7	12609.37	5222.801	-1319.687	1	5386.95	-14.18056	1.063641E-006	0.0052577	7
	20	7	10078.13	5364.057	-1461.211	1	5559.518	-15.23808	7.683466E-008	0.0067751	7
	21	8	8015.625	5511.849	-1663.331	1	5757.356	-16.79244	1.016271E-006	0.003221	7
	22	8	6328.125	5681.082	-1870.182	1	5980.992	-18.22127	-1.573829E-006	0.0068938	7
	23	8	5015.625	5901.465	-2158.121	1	6283.691	-20.08708	-9.205325E-007	0.0052683	7
	24	9	3984.375	6112.358	-2430.012	1	6577.681	-21.68065	4.736466E-007	0.0062185	7
	25	9	3170.956	6393.299	-2785.576	1	6973.787	-23.54288	1.412346E-006	0.0036329	7
	26	9	2527.573	6678.508	-3145.704	1	7382.271	-25.22133	1.417332E-006	0.0036263	7
	27	10	1976.103	7059.507	-3657.721	1	7950.821	-27.38989	1.304316E-006	0.0046126	7
	28	10	1577.524	7347.457	-4157.229	1	8442.018	-29.5014	6.420889E-007	0.003333	7
	29	11	1265.625	7780.931	-4735.69	1	9108.768	-31.32585	6.443698E-007	0.0033342	7
	30	11	998.264	8271.642	-5456.893	1	9909.48	-33.41328	1.072264E-006	0.0052449	7
	31	11	796.875	8855.766	-6220.645	1	10822.25	-35.08574	1.405625E-006	0.0036183	7
	32	12	627.7902	9358.263	-7191.457	1	11802.29	-37.54086	-3.913956E-007	0.0072738	7
	33	12	505.5147	9930.39	-8221.482	1	12892.06	-39.62175	8.606084E-008	0.0066933	6
	34	13	397.9953	10583.44	-9562.4	1	14263.54	-42.09861	1.632981E-009	0.0054615	6
	35	13	315.5048	11224.57	-11170.28	1	15835.59	-44.86111	1.667685E-009	0.0054709	6
	36	13	252.4038	11853.31	-13070.23	1	17644.6	-47.7953	1.457725E-009	0.005461	6
	37	14	198.6229	12572.31	-15620.2	1	20051.27	-51.17028	1.606832E-010	0.0054568	6
	38	14	158.3615	13343.23	-18655.37	1	22936.1	-54.4258	-2.110798E-010	0.0054527	6
	39	14	125.558	14246.39	-22537.39	1	26662.58	-57.70211	-2.377894E-010	0.0054595	6
	40	14	100.4464	15281.46	-27105.99	1	31116.85	-60.58713	-1.236909E-009	0.0054664	6
	41	15	79.00281	16929.27	-33363.66	1	37413.02	-63.096	6.811517E-010	0.0054552	6
	42	15	63.3446	17307.27	-40795.51	1	44314.96	-67.01118	1.232423E-009	0.0054629	6
	43	16	49.86702	20022.77	-49922.24	1	53787.93	-68.14531	-1.103969E-009	0.0054578	6
	44	16	39.72458	24043.12	-61039.59	1	65604.13	-68.50082	-4.857256E-010	0.0054683	6
	45	16	31.6723	28914.07	-73993.2	1	79441.91	-68.65611	-9.463134E-010	0.0054492	6
	46	17	24.93351	34424.04	-90473.34	1	96801	-69.16877	1.506623E-009	0.0054454	6
	47	17	19.86229	41940.67	-109301.5	1	117072	-69.00742	1.679771E-009	0.0054731	5
	48	17	15.83615	54960.61	-127927.9	1	139234.4	-66.75059	3.604137E-009	0.00545	5
	49	17	12.40079	68723.09	-154822	1	169389.2	-66.0643	-2.873711E-009	0.0054554	5
	50	18	9.93114	84895.43	-186430.2	1	204849.8	-65.51672	8.478218E-010	0.0054706	5
	51	18	7.944915	109059.4	-215357.6	1	241397.7	-63.14186	4.632843E-010	0.0054687	5
	52	19	6.317385	135513.3	-249489.2	1	283916.7	-61.49083	6.80243E-010	0.0054441	5
	53	20	5.008013	168856.1	-285264.4	1	331493.8	-59.3775	2.046078E-010	0.0054649	5
	54	21	3.945707	205457	-324068.7	1	383709.7	-57.62563	3.391279E-010	0.0054607	5
	55	22	3.158693	243801.2	-362140.2	1	436559.9	-56.05064	-1.555845E-011	0.0054522	5
	56	24	2.504006	284346.3	-405922.8	1	495606.9	-54.98901	1.197348E-010	0.0054531	5
	57	25	1.998082	324745.6	-455577.9	1	559473.8	-54.51792	2.434393E-010	0.0054983	5
	58	27	1.584686	366614.1	-514885.8	1	632070.6	-54.54799	1.084674E-010	0.005455	5
	59	29	1.266892	411020.9	-585795.8	1	715608	-54.94476	5.244782E-011	0.0054246	5
	60	31	0.999041	461651.3	-680027.9	1	821924.4	-55.82855	4.634794E-011	0.0054162	5
