EXPLAIN
TAG	EISPOT
TITLE	LABEL	Potentiostatic EIS	Test &Identifier
DATE	LABEL	8/14/2018	Date
TIME	LABEL	5:32:21	Time
NOTES	NOTES	1	&Notes...
	
PSTAT	PSTAT	REF600-11020	Potentiostat
VDC	POTEN	0.00000E+000	T	DC &Voltage (V)
FREQINIT	QUANT	1.00000E+006	Initial Fre&q. (Hz)
FREQFINAL	QUANT	1.00000E+000	Final Fre&q. (Hz)
PTSPERDEC	QUANT	1.00000E+001	Points/&decade
VAC	QUANT	2.50000E+001	AC &Voltage (mV rms)
AREA	QUANT	1.00000E-002	&Area (cm^2)
CONDIT	TWOPARAM	T	5.00000E+000	0.00000E+000	Conditionin&g	Time(s)	E(V)
DELAY	TWOPARAM	T	5.00000E+000	0.00000E+000	Init. De&lay	Time(s)	Stab.(mV/s)
SPEED	SELECTOR	0	&Optimize for:
ZGUESS	QUANT	1.00000E+005	E&stimated Z (ohms)
OCVCURVE	TABLE	19
	Pt	T	Vf	Vm	Ach	Over
	#	s	V vs. Ref.	V	V	bits
	0	0.258333	3.14355E-002	3.14355E-002	5.48299E-004	...........
	1	0.516667	3.14614E-002	3.27947E-002	5.43199E-004	...........
	2	0.775	3.16220E-002	3.41432E-002	5.41899E-004	...........
	3	1.03333	3.20797E-002	3.54135E-002	5.42199E-004	...........
	4	1.29167	3.29036E-002	3.66113E-002	5.47433E-004	...........
	5	1.55	3.40026E-002	3.77459E-002	5.52166E-004	...........
	6	1.80833	3.52201E-002	3.88298E-002	5.52699E-004	...........
	7	2.06667	3.64380E-002	3.98610E-002	5.49133E-004	...........
	8	2.325	3.76030E-002	4.08394E-002	5.58132E-004	...........
	9	2.58333	3.87034E-002	4.17756E-002	5.53833E-004	...........
	10	2.84167	3.97437E-002	4.26686E-002	5.53799E-004	...........
	11	3.1	4.07314E-002	4.35226E-002	5.51799E-004	...........
	12	3.35833	4.16722E-002	4.43390E-002	5.55233E-004	...........
	13	3.61667	4.25702E-002	4.51115E-002	5.48766E-004	...........
	14	3.875	4.34278E-002	4.58644E-002	5.52266E-004	...........
	15	4.13333	4.42476E-002	4.66074E-002	5.58732E-004	...........
	16	4.39167	4.50343E-002	4.72941E-002	5.54499E-004	...........
	17	4.65	4.57913E-002	4.79424E-002	5.50733E-004	...........
	18	4.90833	4.65183E-002	4.85989E-002	5.53799E-004	...........
EOC	QUANT	0.0465183	Open Circuit (V)
PSTATMODEL	IQUANT	4	Pstat Model
PSTATSECTION	LABEL	REF600-11020	Pstat Section
PSTATSERIALNO	LABEL	11020	Pstat Serial Number
CTRLMODE	IQUANT	1	Control Mode
IESTAB	IQUANT	0	I/E Stability
CASPEED	IQUANT	1	Control Amp Speed
CONVENTION	IQUANT	1	Current Convention
ICHRANGE	IQUANT	2	Ich Range
ICHRANGEMODE	TOGGLE	F	Ich Auto Range
ICHOFFSETENABLE	TOGGLE	T	Ich Offset Enable
ICHOFFSET	QUANT	0	Ich Offset (V)
ICHFILTER	IQUANT	3	Ich Filter
VCHRANGE	IQUANT	2	Vch Range
VCHRANGEMODE	TOGGLE	F	Vch Auto Range
VCHOFFSETENABLE	TOGGLE	T	Vch Offset Enable
VCHOFFSET	QUANT	0	Vch Offset (V)
VCHFILTER	IQUANT	3	Vch Filter
ACHRANGE	IQUANT	2	Ach Range
ACHOFFSETENABLE	TOGGLE	F	Ach Offset Enable
ACHOFFSET	QUANT	0	Ach Offset (V)
ACHFILTER	IQUANT	3	Ach Filter
IERANGELOWERLIMIT	IQUANT	1	I/E Range Lower Limit
IERANGEMODE	TOGGLE	F	I/E AutoRange
IERANGE	IQUANT	5	I/E Range
POSFEEDENABLE	TOGGLE	F	Positive Feedback IR Comp
POSFEEDRESISTANCE	QUANT	0	Positive Feedback Resistance (ohm)
ACHSELECT	IQUANT	0	Ach Select
CABLEID	IQUANT	14	Cable ID
DCCALDATE	LABEL	8/19/2019	DC Calibration Date
ACCALDATE	LABEL	8/19/2019	AC Calibration Date
THERMOSELECT	IQUANT	1	Thermo Select
FRAMEWORKVERSION	QUANT	6.33	Framework Version
INSTRUMENTVERSION	LABEL	3.50	Instrument Version
ZCURVE	TABLE
	Pt	Time	Freq	Zreal	Zimag	Zsig	Zmod	Zphz	Idc	Vdc	IERange
	#	s	Hz	ohm	ohm	V	ohm	°	A	V	#
	0	1	1000078	2252.882	-1979.5	1	2998.982	-41.30423	-1.428398E-006	0.0493953	8
	1	2	794390.6	2596.018	-2031.619	1	3296.48	-38.0464	5.310314E-006	0.0476404	8
	2	2	630984.4	2932.948	-2112.151	1	3614.327	-35.7594	3.605969E-006	0.0472402	8
	3	2	501234.4	3351.47	-2135.816	1	3974.174	-32.50845	3.970423E-006	0.0472082	8
	4	3	398109.4	3719.899	-2132.066	1	4287.581	-29.81924	-9.010379E-007	0.0483428	8
	5	3	316265.6	4103.676	-2096.738	1	4608.304	-27.06437	-2.110968E-006	0.0486408	8
	6	3	251203.1	4480.41	-2025.034	1	4916.792	-24.32179	-3.799836E-007	0.0482769	8
	7	4	199546.9	4815.939	-1922.856	1	5185.62	-21.76531	3.327996E-006	0.0474318	8
	8	4	158578.1	5084.803	-1842.204	1	5408.229	-19.91525	1.790754E-008	0.0479537	8
	9	4	125953.1	5452.534	-1552.248	1	5669.18	-15.89079	-6.842832E-007	0.0494378	7
	10	4	100078.1	5659.6	-1411.981	1	5833.075	-14.00842	1.201406E-007	0.0478519	7
	11	5	79453.13	5847.416	-1277.847	1	5985.413	-12.32716	1.19614E-007	0.0478459	7
	12	5	63140.62	5974.649	-1211.589	1	6096.259	-11.46347	-2.374629E-008	0.0480188	8
	13	6	50203.12	6130.585	-1052.313	1	6220.244	-9.73988	-4.30451E-009	0.0480535	7
	14	6	39890.62	6235.197	-968.408	1	6309.952	-8.828251	-3.019382E-008	0.0479998	7
	15	6	31640.63	6328.139	-905.5281	1	6392.599	-8.143484	-1.392632E-008	0.0479898	7
	16	7	25171.88	6414.035	-865.9224	1	6472.223	-7.68869	-3.975295E-008	0.0480931	7
	17	7	20015.62	6473.247	-839.2563	1	6527.425	-7.38719	-7.938457E-009	0.0479594	7
	18	7	15890.62	6554.557	-851.9318	1	6609.69	-7.405531	-1.381428E-008	0.0479904	7
	19	8	12609.37	6622.493	-877.9031	1	6680.429	-7.55132	-3.017415E-008	0.0480003	7
	20	8	10078.13	6692.082	-928.8225	1	6756.231	-7.901844	6.482944E-008	0.0478996	7
	21	8	8015.625	6741.823	-1000.578	1	6815.668	-8.441849	-7.657499E-008	0.0481023	7
	22	8	6328.125	6828.274	-1128.056	1	6920.827	-9.380748	2.917879E-008	0.0478877	7
	23	9	5015.625	6902.866	-1277.322	1	7020.051	-10.48356	2.888891E-008	0.0478882	7
	24	9	3984.375	6995.751	-1490.24	1	7152.716	-12.02544	-3.923116E-008	0.0480835	7
	25	9	3170.956	7076.018	-1712.212	1	7280.226	-13.60262	-6.77474E-008	0.0482151	7
	26	10	2527.573	7171.353	-2012.559	1	7448.402	-15.67617	9.497089E-008	0.0479296	7
	27	10	1976.103	7289.493	-2429.518	1	7683.701	-18.43273	4.415865E-008	0.0479488	7
	28	10	1577.524	7322.887	-2910.476	1	7880.073	-21.67531	-4.397118E-008	0.0480141	7
	29	11	1265.625	7567.109	-3433.017	1	8309.438	-24.40266	7.079774E-008	0.0478446	7
	30	11	998.264	7756.845	-4168.706	1	8806.063	-28.2546	6.603755E-008	0.0478941	7
	31	11	796.875	7959.237	-5008.429	1	9403.926	-32.18056	-5.177036E-008	0.048055	7
	32	12	627.7902	8242.023	-6098.604	1	10253	-36.49923	1.508689E-008	0.0476572	6
	33	12	505.5147	8544.577	-7315.936	1	11248.68	-40.5704	-1.194878E-008	0.0480084	6
	34	12	397.9953	8940.388	-8955.278	1	12654.15	-45.04768	-1.530828E-009	0.0479694	6
	35	13	315.5048	9415.195	-10911.42	1	14411.97	-49.20989	-4.504125E-010	0.0479668	6
	36	13	252.4038	9981.81	-13210.13	1	16557.3	-52.92467	-3.753064E-010	0.0479665	6
	37	13	198.6229	10754.39	-16238.26	1	19476.6	-56.484	-9.193336E-010	0.0479668	6
	38	14	158.3615	11690.19	-19746.35	1	22947.31	-59.37372	-5.620122E-010	0.0479658	6
	39	14	125.558	12968.96	-24111.51	1	27378.08	-61.72533	-1.516431E-009	0.0479654	6
	40	14	100.4464	14514.25	-29184.21	1	32594.2	-63.55735	-4.546204E-011	0.0479639	6
	41	15	79.00281	16847.38	-35648.72	1	39429.25	-64.70484	-4.155994E-010	0.0479623	6
	42	15	63.3446	20136.31	-43536.64	1	47967.8	-65.17879	-1.521991E-009	0.0479606	6
	43	15	49.86702	24000.04	-52701.76	1	57909.22	-65.51579	-2.110736E-009	0.0479567	6
	44	16	39.72458	28882.14	-62423.35	1	68781.2	-65.17088	-1.136002E-009	0.0479643	6
	45	16	31.6723	35698.98	-74081.98	1	82234.77	-64.27129	-2.634831E-009	0.0479605	6
	46	16	24.93351	44070.97	-87993.54	1	98413	-63.39631	-5.663897E-010	0.0479612	6
	47	17	19.86229	54274.32	-102715.7	1	116173.2	-62.14832	5.52541E-010	0.0479744	5
	48	17	15.83615	67320.91	-116834.8	1	134842.4	-60.0492	3.062399E-010	0.0479652	5
	49	17	12.40079	83374.48	-136607.3	1	160040.2	-58.60335	-2.291058E-009	0.0479707	5
	50	18	9.93114	99517.3	-155823	1	184890.5	-57.43542	-8.538434E-010	0.047969	5
	51	18	7.944915	117537.8	-174914.2	1	210737.1	-56.09993	-4.032835E-011	0.047961	5
	52	19	6.317385	138712	-196541.6	1	240561	-54.78694	-5.126028E-010	0.0479506	5
	53	20	5.008013	161454.4	-221472	1	274075.5	-53.90772	-8.770123E-010	0.0479623	5
	54	21	3.945707	185822.5	-250454.5	1	311861.2	-53.42675	-1.037823E-009	0.0479741	5
	55	22	3.158693	210316.9	-283572.5	1	353053.2	-53.43682	-1.20087E-009	0.0479675	5
	56	24	2.504006	238217.4	-323727	1	401928.7	-53.65218	-1.053066E-009	0.0479596	5
	57	25	1.998082	268693.2	-370489.2	1	457666.1	-54.04892	-8.414261E-010	0.0480014	5
	58	26	1.584686	303192.9	-426959.4	1	523660.4	-54.62064	-9.492209E-010	0.047964	5
	59	28	1.266892	343837.8	-491865.9	1	600130.4	-55.04461	-9.954507E-010	0.0479327	5
	60	31	0.999041	394395.8	-574496.9	1	696846.3	-55.53016	-1.004302E-009	0.0479216	5
