EXPLAIN
TAG	EISPOT
TITLE	LABEL	Potentiostatic EIS	Test &Identifier
DATE	LABEL	10/26/2019	Date
TIME	LABEL	10:31:05	Time
NOTES	NOTES	1	&Notes...
	
PSTAT	PSTAT	REF600-11020	Potentiostat
VDC	POTEN	0.00000E+000	T	DC &Voltage (V)
FREQINIT	QUANT	1.00000E+006	Initial Fre&q. (Hz)
FREQFINAL	QUANT	1.00000E+000	Final Fre&q. (Hz)
PTSPERDEC	QUANT	1.00000E+001	Points/&decade
VAC	QUANT	2.50000E+001	AC &Voltage (mV rms)
AREA	QUANT	1.00000E-002	&Area (cm^2)
CONDIT	TWOPARAM	T	5.00000E+000	0.00000E+000	Conditionin&g	Time(s)	E(V)
DELAY	TWOPARAM	T	5.00000E+000	0.00000E+000	Init. De&lay	Time(s)	Stab.(mV/s)
SPEED	SELECTOR	0	&Optimize for:
ZGUESS	QUANT	1.00000E+005	E&stimated Z (ohms)
OCVCURVE	TABLE	19
	Pt	T	Vf	Vm	Ach	Over
	#	s	V vs. Ref.	V	V	bits
	0	0.258333	5.63217E-003	5.63217E-003	5.36766E-004	...........
	1	0.516667	5.63328E-003	5.69020E-003	5.32000E-004	...........
	2	0.775	5.64049E-003	5.76640E-003	5.31633E-004	...........
	3	1.03333	5.66210E-003	5.83252E-003	5.25633E-004	...........
	4	1.29167	5.70283E-003	5.89775E-003	5.32433E-004	...........
	5	1.55	5.75976E-003	5.98875E-003	5.34566E-004	...........
	6	1.80833	5.82697E-003	6.05785E-003	5.29999E-004	...........
	7	2.06667	5.90011E-003	6.13601E-003	5.31600E-004	...........
	8	2.325	5.97653E-003	6.23157E-003	5.31066E-004	...........
	9	2.58333	6.05507E-003	6.29724E-003	5.28966E-004	...........
	10	2.84167	6.13520E-003	6.38384E-003	5.25666E-004	...........
	11	3.1	6.21600E-003	6.47234E-003	5.31766E-004	...........
	12	3.35833	6.29672E-003	6.52207E-003	5.29000E-004	...........
	13	3.61667	6.37593E-003	6.59840E-003	5.29000E-004	...........
	14	3.875	6.45193E-003	6.69087E-003	5.27566E-004	...........
	15	4.13333	6.52596E-003	6.76075E-003	5.30966E-004	...........
	16	4.39167	6.60154E-003	6.86330E-003	5.26200E-004	...........
	17	4.65	6.68097E-003	6.94595E-003	5.29433E-004	...........
	18	4.90833	6.76417E-003	7.01108E-003	5.29499E-004	...........
EOC	QUANT	0.0067642	Open Circuit (V)
PSTATMODEL	IQUANT	4	Pstat Model
PSTATSECTION	LABEL	REF600-11020	Pstat Section
PSTATSERIALNO	LABEL	11020	Pstat Serial Number
CTRLMODE	IQUANT	1	Control Mode
IESTAB	IQUANT	0	I/E Stability
CASPEED	IQUANT	1	Control Amp Speed
CONVENTION	IQUANT	1	Current Convention
ICHRANGE	IQUANT	2	Ich Range
ICHRANGEMODE	TOGGLE	F	Ich Auto Range
ICHOFFSETENABLE	TOGGLE	T	Ich Offset Enable
ICHOFFSET	QUANT	0	Ich Offset (V)
ICHFILTER	IQUANT	3	Ich Filter
VCHRANGE	IQUANT	2	Vch Range
VCHRANGEMODE	TOGGLE	F	Vch Auto Range
VCHOFFSETENABLE	TOGGLE	T	Vch Offset Enable
VCHOFFSET	QUANT	0	Vch Offset (V)
VCHFILTER	IQUANT	3	Vch Filter
ACHRANGE	IQUANT	2	Ach Range
ACHOFFSETENABLE	TOGGLE	F	Ach Offset Enable
ACHOFFSET	QUANT	0	Ach Offset (V)
ACHFILTER	IQUANT	3	Ach Filter
IERANGELOWERLIMIT	IQUANT	1	I/E Range Lower Limit
IERANGEMODE	TOGGLE	F	I/E AutoRange
IERANGE	IQUANT	5	I/E Range
POSFEEDENABLE	TOGGLE	F	Positive Feedback IR Comp
POSFEEDRESISTANCE	QUANT	0	Positive Feedback Resistance (ohm)
ACHSELECT	IQUANT	0	Ach Select
CABLEID	IQUANT	14	Cable ID
DCCALDATE	LABEL	8/19/2019	DC Calibration Date
ACCALDATE	LABEL	8/19/2019	AC Calibration Date
THERMOSELECT	IQUANT	1	Thermo Select
FRAMEWORKVERSION	QUANT	6.33	Framework Version
INSTRUMENTVERSION	LABEL	3.50	Instrument Version
ZCURVE	TABLE
	Pt	Time	Freq	Zreal	Zimag	Zsig	Zmod	Zphz	Idc	Vdc	IERange
	#	s	Hz	ohm	ohm	V	ohm	°	A	V	#
	0	2	1000078	1998.737	-1111.103	1	2286.81	-29.0698	2.685385E-006	0.0078592	8
	1	2	794390.6	2207.195	-1064.159	1	2450.335	-25.74021	1.092997E-008	0.0085894	8
	2	2	630984.4	2375.244	-1011.459	1	2581.633	-23.06594	3.167787E-007	0.0085246	8
	3	3	501234.4	2526.028	-955.355	1	2700.652	-20.71685	1.717304E-006	0.0080933	8
	4	3	398109.4	2658.867	-896.4523	1	2805.922	-18.63183	9.314671E-007	0.0082566	8
	5	3	316265.6	2785.64	-843.4283	1	2910.526	-16.84512	2.30491E-007	0.0083654	8
	6	4	251203.1	2900.227	-789.0528	1	3005.648	-15.21984	2.854719E-006	0.0078234	8
	7	4	199546.9	2996.228	-736.1954	1	3085.347	-13.80453	9.755724E-007	0.0082284	8
	8	4	158578.1	3081.435	-708.7294	1	3161.888	-12.95275	-1.732034E-006	0.0086988	8
	9	5	125953.1	3184.814	-639.4173	1	3248.368	-11.35239	-8.858246E-007	0.0096708	7
	10	5	100078.1	3251.827	-623.9896	1	3311.155	-10.86239	9.65827E-008	0.0081597	7
	11	5	79453.13	3328.723	-623.9876	1	3386.703	-10.61719	-4.735101E-008	0.0083553	7
	12	6	63140.62	3402.205	-631.5317	1	3460.322	-10.5158	7.660962E-008	0.0082244	7
	13	6	50203.12	3477.539	-644.9893	1	3536.847	-10.50741	-6.276093E-008	0.0083759	7
	14	6	39890.62	3556.383	-666.2578	1	3618.254	-10.61088	-5.445509E-008	0.0083908	7
	15	7	31640.63	3637.652	-694.8299	1	3703.417	-10.81384	2.91211E-009	0.0082743	7
	16	7	25171.88	3722.716	-731.2234	1	3793.85	-11.11268	-5.558176E-008	0.0083847	7
	17	7	20015.62	3813.663	-773.194	1	3891.254	-11.46098	-6.147318E-008	0.0084597	7
	18	8	15890.62	3907.153	-823.0898	1	3992.909	-11.89612	-1.247279E-008	0.008331	7
	19	8	12609.37	4009.991	-884.3939	1	4106.358	-12.43734	-1.037724E-008	0.0082789	7
	20	8	10078.13	4113.321	-950.532	1	4221.721	-13.01187	7.776605E-008	0.0082151	7
	21	8	8015.625	4224.879	-1032.298	1	4349.166	-13.7305	1.0846E-008	0.0082278	7
	22	9	6328.125	4347.64	-1124.686	1	4490.756	-14.50382	6.875132E-009	0.0082718	7
	23	9	5015.625	4468.251	-1230.221	1	4634.513	-15.39355	-6.131069E-008	0.0084672	7
	24	9	3984.375	4589.329	-1354.827	1	4785.133	-16.44726	6.889198E-009	0.0083631	7
	25	10	3170.956	4708.153	-1502.471	1	4942.077	-17.69899	-6.712652E-009	0.0082466	7
	26	10	2527.573	4823.713	-1687.979	1	5110.527	-19.28665	-3.338658E-008	0.0083578	7
	27	10	1976.103	4947.066	-1945.53	1	5315.877	-21.4682	-5.36081E-008	0.0083867	7
	28	11	1577.524	5067.063	-2245.585	1	5542.362	-23.90162	6.51727E-009	0.0083608	7
	29	11	1265.625	5181.355	-2618.979	1	5805.644	-26.81487	-2.867344E-008	0.0082831	7
	30	11	998.264	5325.564	-3128.926	1	6176.716	-30.43549	7.742294E-008	0.0082154	7
	31	12	796.875	5490.917	-3731.276	1	6638.719	-34.19752	9.903983E-009	0.0082251	7
	32	12	627.7902	5702.769	-4532.007	1	7284.275	-38.47427	2.903164E-008	0.0082538	7
	33	12	505.5147	5946.678	-5423.88	1	8048.693	-42.3675	7.914512E-008	0.0082117	7
	34	13	397.9953	6297.421	-6623.263	1	9139.208	-46.44462	1.120146E-009	0.0083091	7
	35	13	315.5048	6742.651	-8046.264	1	10497.89	-50.03749	1.055372E-009	0.0082468	6
	36	13	252.4038	7294.548	-9691.13	1	12129.65	-53.03109	-1.874376E-010	0.0082453	6
	37	14	198.6229	8071.833	-11815.22	1	14309.22	-55.66018	5.759824E-010	0.0082468	6
	38	14	158.3615	9029.018	-14207.14	1	16833.47	-57.56294	8.587159E-010	0.0082439	6
	39	14	125.558	10312.08	-17093.39	1	19963.04	-58.89831	4.279418E-010	0.0082469	6
	40	15	100.4464	11932.69	-20326.2	1	23569.97	-59.58452	-1.081956E-009	0.0082433	6
	41	15	79.00281	14168.88	-24365.15	1	28185.41	-59.82104	2.985549E-010	0.0082398	6
	42	15	63.3446	16306.84	-28408.3	1	32755.83	-60.14345	-8.024573E-011	0.00824	6
	43	16	49.86702	19824.57	-33383.86	1	38826.49	-59.29659	8.993461E-011	0.008237	6
	44	16	39.72458	23844.97	-38809.63	1	45549.64	-58.43307	4.802209E-010	0.0082432	6
	45	16	31.6723	28422.33	-44580.8	1	52870.38	-57.4806	1.250683E-009	0.00824	6
	46	17	24.93351	33509.61	-51055.68	1	61070.26	-56.72173	-6.034373E-010	0.0082412	6
	47	17	19.86229	38807.77	-58061.57	1	69836.88	-56.24163	-6.124395E-010	0.0082412	6
	48	17	15.83615	44531.76	-66718.49	1	80214.93	-56.27858	1.285729E-009	0.0082357	6
	49	18	12.40079	50965.51	-76370.9	1	91815.02	-56.28315	5.300724E-010	0.0082335	6
	50	18	9.93114	57218.11	-87132.95	1	104240.4	-56.70806	1.043421E-010	0.0082362	5
	51	18	7.944915	63968.05	-100733.5	1	119327.9	-57.58353	-7.682122E-010	0.0082422	5
	52	19	6.317385	71604.01	-117699.5	1	137769	-58.68523	-7.515614E-010	0.0082527	5
	53	20	5.008013	80611.6	-138598.4	1	160336.4	-59.81687	-3.268056E-010	0.008243	5
	54	21	3.945707	91800.57	-164492.6	1	188375	-60.83484	-1.51304E-010	0.0082313	5
	55	22	3.158693	103921.1	-194166.9	1	220228	-61.84362	2.311163E-011	0.0082474	5
	56	24	2.504006	119533.2	-230717	1	259843.2	-62.61158	-1.359221E-010	0.0082435	5
	57	25	1.998082	137767.4	-273164.1	1	305938.7	-63.2364	-2.92714E-010	0.0082026	5
	58	27	1.584686	160507.3	-323534	1	361160.4	-63.6137	-1.152797E-010	0.0082492	5
	59	29	1.266892	188082.5	-381768.5	1	425584.6	-63.77233	-6.028449E-011	0.0082685	5
	60	31	0.999041	222355.6	-454716.3	1	506170.9	-63.94144	-5.124331E-011	0.0082754	5
