EXPLAIN
TAG	EISPOT
TITLE	LABEL	Potentiostatic EIS	Test &Identifier
DATE	LABEL	10/22/2019	Date
TIME	LABEL	7:56:30	Time
NOTES	NOTES	1	&Notes...
	
PSTAT	PSTAT	REF600-11020	Potentiostat
VDC	POTEN	0.00000E+000	T	DC &Voltage (V)
FREQINIT	QUANT	1.00000E+006	Initial Fre&q. (Hz)
FREQFINAL	QUANT	1.00000E+000	Final Fre&q. (Hz)
PTSPERDEC	QUANT	1.00000E+001	Points/&decade
VAC	QUANT	2.50000E+001	AC &Voltage (mV rms)
AREA	QUANT	1.00000E-002	&Area (cm^2)
CONDIT	TWOPARAM	T	5.00000E+000	0.00000E+000	Conditionin&g	Time(s)	E(V)
DELAY	TWOPARAM	T	5.00000E+000	0.00000E+000	Init. De&lay	Time(s)	Stab.(mV/s)
SPEED	SELECTOR	1	&Optimize for:
ZGUESS	QUANT	1.00000E+005	E&stimated Z (ohms)
OCVCURVE	TABLE	19
	Pt	T	Vf	Vm	Ach	Over
	#	s	V vs. Ref.	V	V	bits
	0	0.258333	-2.71118E-003	-2.71118E-003	5.61699E-004	...........
	1	0.516667	-2.71966E-003	-3.15530E-003	5.62366E-004	...........
	2	0.775	-2.77146E-003	-3.56039E-003	5.60966E-004	...........
	3	1.03333	-2.91641E-003	-3.91928E-003	5.66066E-004	...........
	4	1.29167	-3.17157E-003	-4.27810E-003	5.57966E-004	...........
	5	1.55	-3.50421E-003	-4.59706E-003	5.62899E-004	...........
	6	1.80833	-3.86640E-003	-4.96497E-003	5.58932E-004	...........
	7	2.06667	-4.22724E-003	-5.24181E-003	5.55699E-004	...........
	8	2.325	-4.57475E-003	-5.55390E-003	5.64666E-004	...........
	9	2.58333	-4.90602E-003	-5.86631E-003	5.65032E-004	...........
	10	2.84167	-5.22306E-003	-6.14084E-003	5.61299E-004	...........
	11	3.1	-5.52936E-003	-6.40775E-003	5.55799E-004	...........
	12	3.35833	-5.82511E-003	-6.66341E-003	5.59199E-004	...........
	13	3.61667	-6.10835E-003	-6.90985E-003	5.62932E-004	...........
	14	3.875	-6.37878E-003	-7.16209E-003	5.64599E-004	...........
	15	4.13333	-6.63875E-003	-7.40887E-003	5.60266E-004	...........
	16	4.39167	-6.89188E-003	-7.65152E-003	5.60032E-004	...........
	17	4.65	-7.14073E-003	-7.87857E-003	5.59932E-004	...........
	18	4.90833	-7.38550E-003	-8.11191E-003	5.62399E-004	...........
EOC	QUANT	-0.0073855	Open Circuit (V)
PSTATMODEL	IQUANT	4	Pstat Model
PSTATSECTION	LABEL	REF600-11020	Pstat Section
PSTATSERIALNO	LABEL	11020	Pstat Serial Number
CTRLMODE	IQUANT	1	Control Mode
IESTAB	IQUANT	0	I/E Stability
CASPEED	IQUANT	1	Control Amp Speed
CONVENTION	IQUANT	1	Current Convention
ICHRANGE	IQUANT	2	Ich Range
ICHRANGEMODE	TOGGLE	F	Ich Auto Range
ICHOFFSETENABLE	TOGGLE	T	Ich Offset Enable
ICHOFFSET	QUANT	0	Ich Offset (V)
ICHFILTER	IQUANT	3	Ich Filter
VCHRANGE	IQUANT	2	Vch Range
VCHRANGEMODE	TOGGLE	F	Vch Auto Range
VCHOFFSETENABLE	TOGGLE	T	Vch Offset Enable
VCHOFFSET	QUANT	0	Vch Offset (V)
VCHFILTER	IQUANT	3	Vch Filter
ACHRANGE	IQUANT	2	Ach Range
ACHOFFSETENABLE	TOGGLE	F	Ach Offset Enable
ACHOFFSET	QUANT	0	Ach Offset (V)
ACHFILTER	IQUANT	3	Ach Filter
IERANGELOWERLIMIT	IQUANT	1	I/E Range Lower Limit
IERANGEMODE	TOGGLE	F	I/E AutoRange
IERANGE	IQUANT	5	I/E Range
POSFEEDENABLE	TOGGLE	F	Positive Feedback IR Comp
POSFEEDRESISTANCE	QUANT	0	Positive Feedback Resistance (ohm)
ACHSELECT	IQUANT	0	Ach Select
CABLEID	IQUANT	14	Cable ID
DCCALDATE	LABEL	8/19/2019	DC Calibration Date
ACCALDATE	LABEL	8/19/2019	AC Calibration Date
THERMOSELECT	IQUANT	1	Thermo Select
FRAMEWORKVERSION	QUANT	6.33	Framework Version
INSTRUMENTVERSION	LABEL	3.50	Instrument Version
ZCURVE	TABLE
	Pt	Time	Freq	Zreal	Zimag	Zsig	Zmod	Zphz	Idc	Vdc	IERange
	#	s	Hz	ohm	ohm	V	ohm	°	A	V	#
	0	1	1000078	2252.117	-1190.379	1	2547.358	-27.85914	-4.04819E-007	-0.00504	8
	1	2	794390.6	2460.544	-1084.953	1	2689.127	-23.79462	-1.776605E-007	-0.0055567	8
	2	3	630984.4	2630.914	-987.076	1	2809.987	-20.56527	1.593902E-006	-0.0059822	8
	3	5	501234.4	2777.225	-873.7975	1	2911.443	-17.46512	9.032964E-007	-0.0061609	8
	4	6	398109.4	2885.004	-751.4093	1	2981.252	-14.59855	-3.129065E-006	-0.0053311	8
	5	8	316265.6	2972.216	-662.9153	1	3045.246	-12.57331	3.982293E-006	-0.0067019	8
	6	9	251203.1	3030.598	-571.4903	1	3084.011	-10.67906	-4.345919E-006	-0.0049974	8
	7	10	199546.9	3092.453	-514.4334	1	3134.949	-9.444737	-1.099011E-006	-0.0057203	8
	8	12	158578.1	3141.804	-450.118	1	3173.884	-8.153133	-2.770228E-006	-0.0053975	8
	9	13	125953.1	3194.579	-379.5317	1	3217.045	-6.775263	-4.584644E-007	-0.0048385	7
	10	14	100078.1	3220.165	-341.6019	1	3238.233	-6.055411	3.183634E-008	-0.0060384	7
	11	16	79453.13	3250.895	-331.9572	1	3267.799	-5.83041	-1.312288E-008	-0.0060396	7
	12	17	63140.62	3281.683	-329.2267	1	3298.156	-5.728889	-3.74762E-008	-0.0059923	7
	13	18	50203.12	3313.149	-331.5753	1	3329.699	-5.715052	-1.212899E-008	-0.0060456	7
	14	20	39890.62	3345.465	-341.9514	1	3362.896	-5.836129	3.397883E-008	-0.0060546	7
	15	21	31640.63	3379.641	-358.8644	1	3398.641	-6.061193	7.525477E-008	-0.0061703	7
	16	22	25171.88	3415.162	-382.6882	1	3436.536	-6.393645	-5.122807E-008	-0.0058542	7
	17	24	20015.62	3452.231	-410.5299	1	3476.555	-6.78161	7.054861E-009	-0.0060785	7
	18	25	15890.62	3494.655	-455.4724	1	3524.211	-7.425732	-1.298071E-008	-0.0058816	7
	19	26	12609.37	3538.161	-505.6573	1	3574.112	-8.133368	-5.179535E-008	-0.0058599	7
	20	28	10078.13	3584.563	-565.3997	1	3628.88	-8.96352	-4.212217E-008	-0.0059921	7
	21	29	8015.625	3625.324	-638.612	1	3681.141	-9.99034	1.275447E-007	-0.006215	7
	22	31	6328.125	3687.124	-733.4615	1	3759.368	-11.2507	-1.22509E-008	-0.0060566	7
	23	32	5015.625	3743.704	-847.7407	1	3838.487	-12.75913	1.214994E-009	-0.0060147	7
	24	33	3984.375	3804.066	-978.502	1	3927.898	-14.42521	-4.270114E-009	-0.005986	7
	25	35	3170.956	3868.617	-1151.193	1	4036.266	-16.57154	7.608143E-008	-0.0061809	7
	26	36	2527.573	3939.301	-1354.764	1	4165.75	-18.9786	4.017814E-008	-0.006145	7
	27	37	1976.103	4024.063	-1630.011	1	4341.661	-22.0512	8.131965E-008	-0.0060713	7
	28	39	1577.524	4109.554	-1925.071	1	4538.098	-25.10017	-3.436327E-008	-0.0060021	7
	29	40	1265.625	4204.53	-2310.104	1	4797.359	-28.78581	1.638494E-009	-0.006022	7
	30	41	998.264	4320.141	-2798.805	1	5147.517	-32.9372	4.191984E-008	-0.0061468	7
	31	43	796.875	4449.419	-3379.546	1	5587.366	-37.2184	-1.226809E-008	-0.0060518	7
	32	44	627.7902	4611.904	-4139.556	1	6197.224	-41.91053	-3.896619E-008	-0.0059921	7
	33	45	505.5147	4793.039	-4985.196	1	6915.591	-46.12581	-3.218631E-008	-0.0059866	7
	34	47	397.9953	5038.703	-6139.784	1	7942.636	-50.62548	5.036671E-009	-0.0059967	7
	35	48	315.5048	5347.238	-7524.522	1	9231.001	-54.60082	6.020289E-009	-0.0060017	7
	36	49	252.4038	5730.644	-9153.601	1	10799.48	-57.95123	1.993687E-009	-0.0060628	6
	37	51	198.6229	6267.016	-11298.14	1	12919.89	-60.98312	1.536626E-009	-0.0060632	6
	38	52	158.3615	6940.496	-13773.84	1	15423.66	-63.25694	1.61663E-009	-0.0060611	6
	39	54	125.558	7849.478	-16845.15	1	18584.23	-65.0155	1.623764E-009	-0.0060574	6
	40	55	100.4464	9010.132	-20423.03	1	22322.25	-66.19412	1.782031E-009	-0.0060619	6
	41	56	79.00281	10650.12	-24968.39	1	27144.9	-66.89961	1.117411E-009	-0.0060671	6
	42	58	63.3446	12566.66	-29852.57	1	32389.77	-67.17097	1.187418E-009	-0.0060636	6
	43	59	49.86702	15856.14	-36483.5	1	39780.18	-66.50969	7.908064E-010	-0.0060691	6
	44	61	39.72458	19354.19	-43529.72	1	47638.45	-66.02911	9.94735E-010	-0.0060657	6
	45	62	31.6723	24173.38	-51601.45	1	56983	-64.89864	1.907019E-009	-0.0060666	6
	46	63	24.93351	30465.78	-61069.46	1	68246.92	-63.48672	1.310245E-009	-0.0060646	6
	47	65	19.86229	38134.42	-70994.86	1	80588.48	-61.75783	2.190454E-009	-0.0060638	6
	48	66	15.83615	46691.11	-81672.82	1	94077.14	-60.24406	1.670817E-009	-0.0060704	6
	49	67	12.40079	59546.25	-94513.21	1	111707.2	-57.7878	2.251614E-009	-0.0060624	5
	50	69	9.93114	71556.39	-105520.8	1	127494.9	-55.85779	4.904141E-010	-0.0060652	5
	51	70	7.944915	85608.88	-117848	1	145660.7	-54.00405	7.619986E-010	-0.0060677	5
	52	72	6.317385	101109.1	-130730.6	1	165268.1	-52.28107	1.821921E-009	-0.0060734	5
	53	74	5.008013	118277.2	-145100.1	1	187199.2	-50.81507	1.065377E-009	-0.0060598	5
	54	76	3.945707	136362.5	-160999.1	1	210986.8	-49.73618	6.45867E-010	-0.0060624	5
	55	79	3.158693	154307.8	-177983.2	1	235560.8	-49.07537	1.277592E-009	-0.0060659	5
	56	82	2.504006	173796.7	-198609.4	1	263914.7	-48.81188	5.286246E-010	-0.0060591	5
	57	85	1.998082	193412.7	-222092.8	1	294505.8	-48.94856	1.181133E-009	-0.0061022	5
	58	88	1.584686	215120.6	-252099.5	1	331407.7	-49.52533	7.439513E-010	-0.0060666	5
	59	92	1.266892	239165.5	-286194.3	1	372970.9	-50.11533	1.095394E-009	-0.0061052	5
	60	96	0.999041	267691.7	-330277.5	1	425137.7	-50.97505	9.093148E-010	-0.0060243	5
