EXPLAIN
TAG	EISPOT
TITLE	LABEL	Potentiostatic EIS	Test &Identifier
DATE	LABEL	11/20/2019	Date
TIME	LABEL	10:13:47	Time
NOTES	NOTES	4	&Notes...
	
	
	
	
PSTAT	PSTAT	REF600-11020	Potentiostat
VDC	POTEN	0.00000E+000	T	DC &Voltage (V)
FREQINIT	QUANT	1.00000E+006	Initial Fre&q. (Hz)
FREQFINAL	QUANT	1.00000E+000	Final Fre&q. (Hz)
PTSPERDEC	QUANT	1.00000E+001	Points/&decade
VAC	QUANT	2.50000E+001	AC &Voltage (mV rms)
AREA	QUANT	1.00000E-002	&Area (cm^2)
CONDIT	TWOPARAM	T	5.00000E+000	0.00000E+000	Conditionin&g	Time(s)	E(V)
DELAY	TWOPARAM	T	5.00000E+000	0.00000E+000	Init. De&lay	Time(s)	Stab.(mV/s)
SPEED	SELECTOR	0	&Optimize for:
ZGUESS	QUANT	1.00000E+005	E&stimated Z (ohms)
OCVCURVE	TABLE	19
	Pt	T	Vf	Vm	Ach	Over
	#	s	V vs. Ref.	V	V	bits
	0	0.258333	5.44790E-004	5.44790E-004	4.96067E-004	...........
	1	0.516667	5.37072E-004	1.40791E-004	4.97767E-004	...........
	2	0.775	4.90049E-004	-2.22818E-004	4.98567E-004	...........
	3	1.03333	3.58398E-004	-5.64203E-004	4.99700E-004	...........
	4	1.29167	1.26095E-004	-8.79697E-004	4.99467E-004	...........
	5	1.55	-1.77513E-004	-1.17849E-003	4.97167E-004	...........
	6	1.80833	-5.07428E-004	-1.45753E-003	4.95367E-004	...........
	7	2.06667	-8.32403E-004	-1.74289E-003	4.95367E-004	...........
	8	2.325	-1.14092E-003	-2.01488E-003	4.97233E-004	...........
	9	2.58333	-1.43284E-003	-2.22534E-003	4.98867E-004	...........
	10	2.84167	-1.70740E-003	-2.39825E-003	4.97333E-004	...........
	11	3.1	-1.95592E-003	-2.43684E-003	5.05333E-004	...........
	12	3.35833	-2.16753E-003	-2.73274E-003	5.02733E-004	...........
	13	3.61667	-2.34581E-003	-2.82750E-003	4.96567E-004	...........
	14	3.875	-2.50965E-003	-3.04126E-003	4.98133E-004	...........
	15	4.13333	-2.66946E-003	-2.95408E-003	5.00700E-004	...........
	16	4.39167	-2.81875E-003	-3.37832E-003	5.01500E-004	...........
	17	4.65	-2.97155E-003	-4.08472E-003	4.99133E-004	...........
	18	4.90833	-3.17698E-003	-3.87627E-003	5.00533E-004	...........
EOC	QUANT	-0.003177	Open Circuit (V)
PSTATMODEL	IQUANT	4	Pstat Model
PSTATSECTION	LABEL	REF600-11020	Pstat Section
PSTATSERIALNO	LABEL	11020	Pstat Serial Number
CTRLMODE	IQUANT	1	Control Mode
IESTAB	IQUANT	0	I/E Stability
CASPEED	IQUANT	1	Control Amp Speed
CONVENTION	IQUANT	1	Current Convention
ICHRANGE	IQUANT	2	Ich Range
ICHRANGEMODE	TOGGLE	F	Ich Auto Range
ICHOFFSETENABLE	TOGGLE	T	Ich Offset Enable
ICHOFFSET	QUANT	0	Ich Offset (V)
ICHFILTER	IQUANT	3	Ich Filter
VCHRANGE	IQUANT	2	Vch Range
VCHRANGEMODE	TOGGLE	F	Vch Auto Range
VCHOFFSETENABLE	TOGGLE	T	Vch Offset Enable
VCHOFFSET	QUANT	0	Vch Offset (V)
VCHFILTER	IQUANT	3	Vch Filter
ACHRANGE	IQUANT	2	Ach Range
ACHOFFSETENABLE	TOGGLE	F	Ach Offset Enable
ACHOFFSET	QUANT	0	Ach Offset (V)
ACHFILTER	IQUANT	3	Ach Filter
IERANGELOWERLIMIT	IQUANT	1	I/E Range Lower Limit
IERANGEMODE	TOGGLE	F	I/E AutoRange
IERANGE	IQUANT	4	I/E Range
POSFEEDENABLE	TOGGLE	F	Positive Feedback IR Comp
POSFEEDRESISTANCE	QUANT	0	Positive Feedback Resistance (ohm)
ACHSELECT	IQUANT	0	Ach Select
CABLEID	IQUANT	14	Cable ID
DCCALDATE	LABEL	8/19/2019	DC Calibration Date
ACCALDATE	LABEL	8/19/2019	AC Calibration Date
THERMOSELECT	IQUANT	1	Thermo Select
FRAMEWORKVERSION	QUANT	6.33	Framework Version
INSTRUMENTVERSION	LABEL	3.50	Instrument Version
ZCURVE	TABLE
	Pt	Time	Freq	Zreal	Zimag	Zsig	Zmod	Zphz	Idc	Vdc	IERange
	#	s	Hz	ohm	ohm	V	ohm	°	A	V	#
	0	2	1000078	2245.925	-1753.922	1	2849.635	-37.98754	-1.024693E-006	-0.0005857	8
	1	2	794390.6	2612.37	-1702.026	1	3117.911	-33.08528	-4.119616E-007	-0.0017422	8
	2	2	630984.4	2943.844	-1604.463	1	3352.689	-28.5914	-5.0652E-006	-0.0011194	8
	3	3	501234.4	3229.795	-1463.858	1	3546.048	-24.38173	-4.090365E-006	-0.0012271	8
	4	3	398109.4	3466.295	-1299.982	1	3702.048	-20.5578	-4.532097E-007	-0.0012597	8
	5	3	316265.6	3637.952	-1148.714	1	3815.002	-17.52395	-7.615367E-007	-0.0012989	8
	6	4	251203.1	3775.777	-1006.505	1	3907.626	-14.9262	-1.488001E-006	-0.001918	8
	7	4	199546.9	3883.233	-876.4711	1	3980.917	-12.71891	-5.989248E-007	-0.0019751	8
	8	4	158578.1	3988.927	-766.9537	1	4061.989	-10.88348	7.200551E-007	-0.0013548	8
	9	5	125953.1	4060.578	-646.0629	1	4111.653	-9.040336	-3.054173E-006	0.0021499	7
	10	5	100078.1	4105.001	-580.4736	1	4145.84	-8.048628	-1.185947E-006	-0.000682	7
	11	5	79453.13	4155.071	-543.6589	1	4190.487	-7.454363	4.75078E-007	-0.0033638	7
	12	6	63140.62	4201.667	-521.2106	1	4233.871	-7.071334	1.062394E-006	-0.0028365	7
	13	6	50203.12	4244.931	-506.5987	1	4275.054	-6.805607	-2.866586E-007	-0.0004331	7
	14	6	39890.62	4293.362	-508.8694	1	4323.414	-6.75943	7.994316E-007	-0.0019601	7
	15	6	31640.63	4333.79	-519.9963	1	4364.875	-6.842011	7.856906E-007	-0.0019539	7
	16	7	25171.88	4382.131	-542.5617	1	4415.591	-7.058003	3.561149E-007	-0.0012511	7
	17	7	20015.62	4434.716	-575.677	1	4471.925	-7.396289	-1.130264E-006	-0.0007553	7
	18	7	15890.62	4494.138	-623.1155	1	4537.13	-7.893776	-6.723987E-007	-0.0019042	7
	19	8	12609.37	4556.206	-680.633	1	4606.764	-8.496352	-1.019862E-006	-0.0002544	7
	20	8	10078.13	4624.215	-750.6167	1	4684.74	-9.220008	-5.672406E-007	-0.0002907	7
	21	8	8015.625	4705.617	-835.7518	1	4779.259	-10.07113	5.568079E-007	-0.0015593	7
	22	9	6328.125	4786.972	-941.6815	1	4878.715	-11.12898	-1.105205E-006	-0.0004535	7
	23	9	5015.625	4883.331	-1061.916	1	4997.458	-12.26839	6.350317E-008	-0.0008907	7
	24	9	3984.375	4984.822	-1209.248	1	5129.399	-13.63574	-2.645666E-007	-0.0005377	7
	25	10	3170.956	5097.396	-1367.733	1	5277.702	-15.01982	-2.708393E-007	-0.002529	7
	26	10	2527.573	5214	-1562.765	1	5443.164	-16.68477	-5.636323E-007	-0.0003292	7
	27	10	1976.103	5352.442	-1816.104	1	5652.156	-18.74227	-1.095653E-006	-0.0007871	7
	28	11	1577.524	5475.555	-2092.74	1	5861.848	-20.9167	-2.719832E-007	-0.0025297	7
	29	11	1265.625	5631.689	-2429.988	1	6133.577	-23.33946	9.772887E-007	-0.0030694	7
	30	11	998.264	5794.604	-2861.671	1	6462.709	-26.28251	5.442644E-007	-0.001568	7
	31	12	796.875	5961.545	-3365.301	1	6845.821	-29.4448	3.462164E-007	-0.0012824	7
	32	12	627.7902	6154.086	-4032.934	1	7357.808	-33.23788	9.758036E-007	-0.0030724	7
	33	12	505.5147	6349.863	-4762.254	1	7937.243	-36.86907	-2.629266E-007	-0.000549	7
	34	13	397.9953	6584.987	-5774.61	1	8758.32	-41.24868	2.410598E-009	-0.0017442	7
	35	13	315.5048	6855.406	-6990.281	1	9790.84	-45.55812	8.960818E-011	-0.0017979	6
	36	13	252.4038	7158.959	-8436.401	1	11064.52	-49.68274	4.647855E-010	-0.0018061	6
	37	14	198.6229	7550.313	-10357.36	1	12817.26	-53.90868	2.882209E-010	-0.0018007	6
	38	14	158.3615	8007.616	-12607.93	1	14935.93	-57.57934	1.173941E-009	-0.0018088	6
	39	14	125.558	8596.049	-15444.39	1	17675.44	-60.90053	6.849361E-010	-0.0018014	6
	40	15	100.4464	9322.773	-18803.3	1	20987.57	-63.62755	1.59953E-010	-0.0018036	6
	41	15	79.00281	10304.69	-23228.62	1	25411.71	-66.07694	-4.103753E-010	-0.0018043	6
	42	15	63.3446	11551.03	-28012.87	1	30300.95	-67.59134	3.026401E-009	-0.0018129	6
	43	16	49.86702	13289.33	-34595.62	1	37060.26	-68.98656	9.877055E-010	-0.0018056	6
	44	16	39.72458	15325.66	-42271.11	1	44963.57	-70.07156	1.918487E-009	-0.0018066	6
	45	16	31.6723	18228.27	-51642.9	1	54765.49	-70.55862	2.825884E-009	-0.0018071	6
	46	17	24.93351	21996.28	-62874.69	1	66611.28	-70.71796	8.883169E-010	-0.0018031	6
	47	17	19.86229	26768.47	-75903.34	1	80485.21	-70.57402	2.14197E-009	-0.0018008	6
	48	17	15.83615	32821.47	-91637.32	1	97337.8	-70.29414	-1.78715E-010	-0.0018013	6
	49	17	12.40079	41101.36	-111065.5	1	118426.6	-69.69229	8.378148E-010	-0.0017936	5
	50	18	9.93114	51901.16	-132131.2	1	141959.1	-68.55509	2.593612E-011	-0.0017948	5
	51	18	7.944915	64577.82	-155972	1	168812.2	-67.50875	1.10762E-009	-0.0018049	5
	52	19	6.317385	81214.95	-183824.2	1	200965.7	-66.16379	1.098741E-009	-0.0018099	5
	53	20	5.008013	101943	-216557.1	1	239352	-64.79156	-5.414681E-011	-0.0018025	5
	54	21	3.945707	132429.2	-252747.1	1	285339.4	-62.34729	7.597127E-009	-0.001797	5
	55	22	3.158693	153555.3	-291759.1	1	329700.8	-62.24178	-4.893593E-010	-0.0017972	5
	56	24	2.504006	191314.5	-335809.5	1	386483.2	-60.32935	1.713483E-009	-0.0018088	5
	57	25	1.998082	229787.3	-383998.9	1	447501.2	-59.10344	1.543381E-009	-0.001763	5
	58	26	1.584686	273884.7	-434382.2	1	513518	-57.76793	3.400104E-010	-0.0017963	5
	59	28	1.266892	326983.3	-487037.8	1	586620.7	-56.12372	-3.297566E-010	-0.0018302	5
	60	31	0.999041	373600.2	-560409.3	1	673524.8	-56.31036	7.768728E-010	-0.0018397	5
