EXPLAIN
TAG	EISPOT
TITLE	LABEL	Potentiostatic EIS	Test &Identifier
DATE	LABEL	11/13/2019	Date
TIME	LABEL	0:35:46	Time
NOTES	NOTES	3	&Notes...
	
	
	
PSTAT	PSTAT	REF600-11020	Potentiostat
VDC	POTEN	0.00000E+000	T	DC &Voltage (V)
FREQINIT	QUANT	1.00000E+006	Initial Fre&q. (Hz)
FREQFINAL	QUANT	1.00000E+000	Final Fre&q. (Hz)
PTSPERDEC	QUANT	1.00000E+001	Points/&decade
VAC	QUANT	2.50000E+001	AC &Voltage (mV rms)
AREA	QUANT	1.00000E-002	&Area (cm^2)
CONDIT	TWOPARAM	T	5.00000E+000	0.00000E+000	Conditionin&g	Time(s)	E(V)
DELAY	TWOPARAM	T	5.00000E+000	0.00000E+000	Init. De&lay	Time(s)	Stab.(mV/s)
SPEED	SELECTOR	1	&Optimize for:
ZGUESS	QUANT	1.00000E+005	E&stimated Z (ohms)
OCVCURVE	TABLE	19
	Pt	T	Vf	Vm	Ach	Over
	#	s	V vs. Ref.	V	V	bits
	0	0.258333	1.12037E-002	1.12037E-002	5.75365E-004	...........
	1	0.516667	1.12080E-002	1.14300E-002	5.74066E-004	...........
	2	0.775	1.12347E-002	1.16524E-002	5.76966E-004	...........
	3	1.03333	1.13109E-002	1.18729E-002	5.70699E-004	...........
	4	1.29167	1.14487E-002	1.20857E-002	5.71066E-004	...........
	5	1.55	1.16348E-002	1.22955E-002	5.70866E-004	...........
	6	1.80833	1.18451E-002	1.25010E-002	5.72466E-004	...........
	7	2.06667	1.20610E-002	1.27029E-002	5.71299E-004	...........
	8	2.325	1.22739E-002	1.28971E-002	5.73332E-004	...........
	9	2.58333	1.24811E-002	1.30841E-002	5.72466E-004	...........
	10	2.84167	1.26822E-002	1.32692E-002	5.70399E-004	...........
	11	3.1	1.28771E-002	1.34426E-002	5.70632E-004	...........
	12	3.35833	1.30660E-002	1.36136E-002	5.76399E-004	...........
	13	3.61667	1.32488E-002	1.37777E-002	5.81299E-004	...........
	14	3.875	1.34254E-002	1.39405E-002	5.68732E-004	...........
	15	4.13333	1.35965E-002	1.40975E-002	5.66632E-004	...........
	16	4.39167	1.37627E-002	1.42525E-002	5.69966E-004	...........
	17	4.65	1.39247E-002	1.43993E-002	5.73099E-004	...........
	18	4.90833	1.40826E-002	1.45483E-002	5.67999E-004	...........
EOC	QUANT	0.0140826	Open Circuit (V)
PSTATMODEL	IQUANT	4	Pstat Model
PSTATSECTION	LABEL	REF600-11020	Pstat Section
PSTATSERIALNO	LABEL	11020	Pstat Serial Number
CTRLMODE	IQUANT	1	Control Mode
IESTAB	IQUANT	0	I/E Stability
CASPEED	IQUANT	1	Control Amp Speed
CONVENTION	IQUANT	1	Current Convention
ICHRANGE	IQUANT	2	Ich Range
ICHRANGEMODE	TOGGLE	F	Ich Auto Range
ICHOFFSETENABLE	TOGGLE	T	Ich Offset Enable
ICHOFFSET	QUANT	0	Ich Offset (V)
ICHFILTER	IQUANT	3	Ich Filter
VCHRANGE	IQUANT	2	Vch Range
VCHRANGEMODE	TOGGLE	F	Vch Auto Range
VCHOFFSETENABLE	TOGGLE	T	Vch Offset Enable
VCHOFFSET	QUANT	0	Vch Offset (V)
VCHFILTER	IQUANT	3	Vch Filter
ACHRANGE	IQUANT	2	Ach Range
ACHOFFSETENABLE	TOGGLE	F	Ach Offset Enable
ACHOFFSET	QUANT	0	Ach Offset (V)
ACHFILTER	IQUANT	3	Ach Filter
IERANGELOWERLIMIT	IQUANT	1	I/E Range Lower Limit
IERANGEMODE	TOGGLE	F	I/E AutoRange
IERANGE	IQUANT	5	I/E Range
POSFEEDENABLE	TOGGLE	F	Positive Feedback IR Comp
POSFEEDRESISTANCE	QUANT	0	Positive Feedback Resistance (ohm)
ACHSELECT	IQUANT	0	Ach Select
CABLEID	IQUANT	14	Cable ID
DCCALDATE	LABEL	8/19/2019	DC Calibration Date
ACCALDATE	LABEL	8/19/2019	AC Calibration Date
THERMOSELECT	IQUANT	1	Thermo Select
FRAMEWORKVERSION	QUANT	6.33	Framework Version
INSTRUMENTVERSION	LABEL	3.50	Instrument Version
ZCURVE	TABLE
	Pt	Time	Freq	Zreal	Zimag	Zsig	Zmod	Zphz	Idc	Vdc	IERange
	#	s	Hz	ohm	ohm	V	ohm	°	A	V	#
	0	1	1000078	2129.463	-1578.569	1	2650.753	-36.54951	-2.803506E-007	0.0157841	8
	1	2	794390.6	2446.369	-1562.994	1	2903.045	-32.57465	-3.062602E-006	0.0164907	8
	2	4	630984.4	2734.639	-1487.76	1	3113.147	-28.54807	-5.787267E-006	0.0166592	8
	3	5	501234.4	3001.176	-1386.486	1	3305.965	-24.79604	7.625368E-007	0.0153052	8
	4	7	398109.4	3229.4	-1269.089	1	3469.814	-21.45382	1.813602E-006	0.0158642	8
	5	8	316265.6	3397.997	-1154.703	1	3588.833	-18.76872	-9.053865E-007	0.015973	8
	6	9	251203.1	3553.514	-1036.409	1	3701.568	-16.25973	-4.386601E-006	0.0158922	8
	7	11	199546.9	3686.049	-934.0347	1	3802.549	-14.2193	-1.488788E-007	0.0152796	8
	8	12	158578.1	3783.128	-839.0496	1	3875.057	-12.50506	-7.596506E-007	0.0159421	8
	9	13	125953.1	3886.262	-733.4718	1	3954.872	-10.68797	-1.407641E-006	0.0193007	7
	10	15	100078.1	3953.601	-685.8042	1	4012.641	-9.84079	1.044767E-006	0.0140863	7
	11	16	79453.13	4023.354	-653.1733	1	4076.029	-9.221262	7.809265E-008	0.0164208	7
	12	18	63140.62	4090.248	-639.5776	1	4139.95	-8.887174	9.420276E-007	0.0138566	7
	13	19	50203.12	4151.657	-636.3823	1	4200.147	-8.714691	6.01439E-007	0.0156807	7
	14	20	39890.62	4216.415	-645.6011	1	4265.555	-8.705297	8.174075E-007	0.0152526	7
	15	22	31640.63	4280.249	-665.6501	1	4331.699	-8.839641	-7.164563E-007	0.0153601	7
	16	23	25171.88	4349.046	-701.0261	1	4405.184	-9.156787	-1.184117E-006	0.0169066	7
	17	24	20015.62	4415.992	-749.6834	1	4479.175	-9.63499	-1.056754E-006	0.0170659	7
	18	26	15890.62	4504.39	-811.9644	1	4576.987	-10.21844	-3.088835E-007	0.0146894	7
	19	27	12609.37	4598.494	-889.5233	1	4683.737	-10.94796	1.067284E-006	0.0143814	7
	20	29	10078.13	4685.37	-986.544	1	4788.106	-11.89042	7.450147E-007	0.0137768	7
	21	30	8015.625	4789.024	-1091.583	1	4911.854	-12.8403	-1.184439E-006	0.0168979	7
	22	31	6328.125	4918.722	-1217.366	1	5067.129	-13.90115	8.168011E-007	0.0152447	7
	23	33	5015.625	5052.933	-1365.997	1	5234.318	-15.1276	-2.704282E-007	0.0167932	7
	24	34	3984.375	5206.863	-1537.411	1	5429.093	-16.45009	4.606542E-007	0.013881	7
	25	35	3170.956	5372.303	-1733.968	1	5645.2	-17.88804	4.60837E-007	0.0138803	7
	26	37	2527.573	5552.165	-1954.284	1	5886.065	-19.39136	-1.01996E-006	0.0159994	7
	27	38	1976.103	5769.406	-2231.773	1	6186.021	-21.14791	-1.184536E-006	0.0168955	7
	28	39	1577.524	5981.596	-2519.468	1	6490.547	-22.84098	-1.181968E-006	0.0165533	7
	29	41	1265.625	6205.99	-2848.875	1	6828.646	-24.65761	-1.183639E-006	0.0169001	7
	30	42	998.264	6460.343	-3269.938	1	7240.755	-26.8465	-8.610192E-007	0.0171184	7
	31	44	796.875	6703.316	-3752.926	1	7682.376	-29.24277	-7.212657E-007	0.0153539	7
	32	45	627.7902	6967.169	-4384.246	1	8231.832	-32.18106	9.892035E-007	0.0147865	7
	33	47	505.5147	7216.624	-5074.281	1	8822.017	-35.1125	-2.675879E-007	0.0167969	7
	34	48	397.9953	7510.771	-6045.373	1	9641.48	-38.83037	5.146898E-009	0.0155103	7
	35	50	315.5048	7824.994	-7221.399	1	10647.96	-42.70278	8.514202E-010	0.0154467	6
	36	51	252.4038	8164.926	-8629.22	1	11879.79	-46.58361	-4.544649E-010	0.0154515	6
	37	52	198.6229	8599.373	-10514.93	1	13583.56	-50.72285	1.907765E-010	0.0154448	6
	38	54	158.3615	9102.818	-12732.74	1	15651.96	-54.43847	-1.673048E-010	0.0154496	6
	39	55	125.558	9754.65	-15530.72	1	18340.02	-57.86758	5.929046E-010	0.0154443	6
	40	56	100.4464	10551.65	-18829.87	1	21584.75	-60.73515	-1.657583E-010	0.0154414	6
	41	58	79.00281	11661.94	-23160.18	1	25930.58	-63.27319	7.530499E-010	0.0154329	6
	42	59	63.3446	12874.17	-28052.83	1	30865.93	-65.34839	7.351724E-010	0.0154311	6
	43	61	49.86702	14958.98	-34251.24	1	37375.37	-66.40705	6.169517E-010	0.0154404	6
	44	62	39.72458	17337.21	-41665.66	1	45128.77	-67.40765	3.907524E-010	0.0154388	6
	45	63	31.6723	20541.01	-50366.34	1	54393.95	-67.81279	5.003647E-010	0.0154389	6
	46	65	24.93351	24810.99	-61253.13	1	66087.3	-67.94926	1.104067E-010	0.0154385	6
	47	66	19.86229	30133.33	-73420.66	1	79363.79	-67.68575	-9.066984E-010	0.0154477	6
	48	68	15.83615	36943.22	-86978.98	1	94499.45	-66.98726	-7.401613E-011	0.0154369	6
	49	69	12.40079	45945.7	-104709.8	1	114346.6	-66.30858	-6.912262E-011	0.0154551	5
	50	70	9.93114	56988.16	-122959.5	1	135523.7	-65.13364	-4.085644E-010	0.0154503	5
	51	72	7.944915	69721.38	-143202.1	1	159273.1	-64.03976	3.556389E-010	0.0154524	5
	52	74	6.317385	84752.03	-166339.5	1	186686.2	-63.00059	1.562613E-010	0.0154727	5
	53	76	5.008013	102106.3	-192911.1	1	218266.8	-62.1081	8.930173E-011	0.0154508	5
	54	78	3.945707	121697.1	-223891.2	1	254828.3	-61.47349	2.717494E-011	0.0154614	5
	55	81	3.158693	141799.3	-257265.7	1	293756.2	-61.13741	-5.537273E-011	0.0154631	5
	56	84	2.504006	164338.7	-298503.8	1	340751.7	-61.16539	1.178247E-011	0.0154413	5
	57	87	1.998082	188277.7	-345938.8	1	393855.5	-61.4427	-1.623123E-010	0.0154771	5
	58	90	1.584686	215568.7	-406204	1	459860.4	-62.04552	-2.548041E-011	0.0154756	5
	59	94	1.266892	250706.9	-473436.9	1	535720.5	-62.0967	1.771704E-010	0.0154846	5
	60	98	0.999041	284475.9	-564656.9	1	632268.9	-63.26089	1.507473E-011	0.0154196	5
