EXPLAIN
TAG	EISPOT
TITLE	LABEL	Potentiostatic EIS	Test &Identifier
DATE	LABEL	8/16/2017	Date
TIME	LABEL	16:57:56	Time
NOTES	NOTES	1	&Notes...
	
PSTAT	PSTAT	REF600-11020	Potentiostat
VDC	POTEN	0.00000E+000	T	DC &Voltage (V)
FREQINIT	QUANT	1.00000E+006	Initial Fre&q. (Hz)
FREQFINAL	QUANT	1.00000E+000	Final Fre&q. (Hz)
PTSPERDEC	QUANT	1.00000E+001	Points/&decade
VAC	QUANT	2.50000E+001	AC &Voltage (mV rms)
AREA	QUANT	1.00000E-002	&Area (cm^2)
CONDIT	TWOPARAM	T	5.00000E+000	0.00000E+000	Conditionin&g	Time(s)	E(V)
DELAY	TWOPARAM	T	5.00000E+000	0.00000E+000	Init. De&lay	Time(s)	Stab.(mV/s)
SPEED	SELECTOR	0	&Optimize for:
ZGUESS	QUANT	1.00000E+005	E&stimated Z (ohms)
OCVCURVE	TABLE	19
	Pt	T	Vf	Vm	Ach	Over
	#	s	V vs. Ref.	V	V	bits
	0	0.258333	1.04978E-002	1.04978E-002	5.50833E-004	...........
	1	0.516667	1.05010E-002	1.06666E-002	5.29200E-004	...........
	2	0.775	1.05212E-002	1.08433E-002	5.30666E-004	...........
	3	1.03333	1.05790E-002	1.10086E-002	5.53333E-004	...........
	4	1.29167	1.06846E-002	1.11834E-002	5.51866E-004	...........
	5	1.55	1.08283E-002	1.13454E-002	5.36099E-004	...........
	6	1.80833	1.09921E-002	1.15081E-002	5.31066E-004	...........
	7	2.06667	1.11612E-002	1.16552E-002	5.39099E-004	...........
	8	2.325	1.13276E-002	1.18094E-002	5.41299E-004	...........
	9	2.58333	1.14881E-002	1.19460E-002	5.32933E-004	...........
	10	2.84167	1.16424E-002	1.20852E-002	5.35099E-004	...........
	11	3.1	1.17905E-002	1.22149E-002	5.49166E-004	...........
	12	3.35833	1.19329E-002	1.23427E-002	5.51133E-004	...........
	13	3.61667	1.20699E-002	1.24607E-002	5.38199E-004	...........
	14	3.875	1.22015E-002	1.25818E-002	5.42133E-004	...........
	15	4.13333	1.23281E-002	1.26907E-002	5.49066E-004	...........
	16	4.39167	1.24500E-002	1.28009E-002	5.41066E-004	...........
	17	4.65	1.25673E-002	1.29052E-002	5.33766E-004	...........
	18	4.90833	1.26804E-002	1.30089E-002	5.41466E-004	...........
EOC	QUANT	0.0126804	Open Circuit (V)
PSTATMODEL	IQUANT	4	Pstat Model
PSTATSECTION	LABEL	REF600-11020	Pstat Section
PSTATSERIALNO	LABEL	11020	Pstat Serial Number
CTRLMODE	IQUANT	1	Control Mode
IESTAB	IQUANT	0	I/E Stability
CASPEED	IQUANT	1	Control Amp Speed
CONVENTION	IQUANT	1	Current Convention
ICHRANGE	IQUANT	2	Ich Range
ICHRANGEMODE	TOGGLE	F	Ich Auto Range
ICHOFFSETENABLE	TOGGLE	T	Ich Offset Enable
ICHOFFSET	QUANT	0	Ich Offset (V)
ICHFILTER	IQUANT	3	Ich Filter
VCHRANGE	IQUANT	2	Vch Range
VCHRANGEMODE	TOGGLE	F	Vch Auto Range
VCHOFFSETENABLE	TOGGLE	T	Vch Offset Enable
VCHOFFSET	QUANT	0	Vch Offset (V)
VCHFILTER	IQUANT	3	Vch Filter
ACHRANGE	IQUANT	2	Ach Range
ACHOFFSETENABLE	TOGGLE	F	Ach Offset Enable
ACHOFFSET	QUANT	0	Ach Offset (V)
ACHFILTER	IQUANT	3	Ach Filter
IERANGELOWERLIMIT	IQUANT	1	I/E Range Lower Limit
IERANGEMODE	TOGGLE	F	I/E AutoRange
IERANGE	IQUANT	5	I/E Range
POSFEEDENABLE	TOGGLE	F	Positive Feedback IR Comp
POSFEEDRESISTANCE	QUANT	0	Positive Feedback Resistance (ohm)
ACHSELECT	IQUANT	0	Ach Select
CABLEID	IQUANT	14	Cable ID
DCCALDATE	LABEL	8/19/2019	DC Calibration Date
ACCALDATE	LABEL	8/19/2019	AC Calibration Date
THERMOSELECT	IQUANT	1	Thermo Select
FRAMEWORKVERSION	QUANT	6.33	Framework Version
INSTRUMENTVERSION	LABEL	3.50	Instrument Version
ZCURVE	TABLE
	Pt	Time	Freq	Zreal	Zimag	Zsig	Zmod	Zphz	Idc	Vdc	IERange
	#	s	Hz	ohm	ohm	V	ohm	°	A	V	#
	0	1	1000078	2236.052	-1788.428	1	2863.286	-38.65335	-3.5618E-006	0.0158117	8
	1	2	794390.6	2606.082	-1808.483	1	3172.109	-34.75861	-1.283844E-006	0.0148198	8
	2	2	630984.4	2972.6	-1748.189	1	3448.553	-30.45983	8.54531E-006	0.0136494	8
	3	2	501234.4	3291.475	-1625.577	1	3671.009	-26.28362	-4.700001E-007	0.0148671	8
	4	3	398109.4	3574.388	-1490.271	1	3872.617	-22.63274	6.347723E-006	0.0132335	8
	5	3	316265.6	3825.259	-1331.041	1	4050.219	-19.1859	-2.961123E-006	0.014262	8
	6	3	251203.1	3995.055	-1193.527	1	4169.529	-16.63358	6.272213E-006	0.01361	8
	7	4	199546.9	4132.937	-999.757	1	4252.139	-13.59861	-2.041723E-006	0.0144524	8
	8	4	158578.1	4261.61	-898.214	1	4355.24	-11.90195	3.81893E-006	0.0143277	8
	9	4	125953.1	4341.038	-685.0662	1	4394.761	-8.96798	-1.093202E-006	0.0153811	7
	10	5	100078.1	4426.735	-596.7939	1	4466.782	-7.678084	1.39015E-007	0.0128535	7
	11	5	79453.13	4470.127	-545.1312	1	4503.244	-6.952878	-3.260187E-007	0.0157501	7
	12	5	63140.62	4528.226	-488.1429	1	4554.46	-6.152727	8.333878E-007	0.0124342	7
	13	5	50203.12	4567.248	-457.7421	1	4590.129	-5.723228	1.061974E-006	0.0135811	7
	14	6	39890.62	4596.121	-431.544	1	4616.335	-5.363952	6.30557E-007	0.0145409	7
	15	6	31640.63	4630.639	-421.779	1	4649.808	-5.204392	8.622401E-007	0.0141062	7
	16	6	25171.88	4645.085	-417.3663	1	4663.798	-5.134306	-6.708032E-007	0.01599	7
	17	7	20015.62	4674.22	-427.3232	1	4693.712	-5.223533	-6.708781E-007	0.0159875	7
	18	7	15890.62	4717.914	-453.1331	1	4739.625	-5.486158	5.305809E-007	0.0125308	7
	19	7	12609.37	4743.918	-490.713	1	4769.23	-5.905697	5.510357E-008	0.0153329	7
	20	8	10078.13	4796.809	-544.0318	1	4827.562	-6.470572	1.045151E-006	0.0125216	7
	21	8	8015.625	4807.811	-615.8896	1	4847.098	-7.29994	1.397261E-007	0.0128318	7
	22	8	6328.125	4852.569	-713.708	1	4904.773	-8.366983	6.303586E-007	0.0145344	7
	23	9	5015.625	4876.962	-833.1562	1	4947.617	-9.69454	-6.697592E-007	0.0159751	7
	24	9	3984.375	4934.467	-987.434	1	5032.294	-11.31597	1.062052E-006	0.0135698	7
	25	9	3170.956	4967.819	-1167.219	1	5103.1	-13.22216	-7.517658E-007	0.0140883	7
	26	10	2527.573	5021.865	-1394.47	1	5211.878	-15.5189	-7.52433E-007	0.0140949	7
	27	10	1976.103	5113.328	-1713.46	1	5392.779	-18.52584	1.045088E-006	0.0125161	7
	28	10	1577.524	5151.249	-2057.461	1	5546.937	-21.77227	-6.704828E-007	0.0159818	7
	29	11	1265.625	5242.821	-2463.791	1	5792.878	-25.17053	-1.29534E-006	0.0158103	7
	30	11	998.264	5346.401	-3016.107	1	6138.478	-29.42899	-1.279166E-006	0.0154073	7
	31	11	796.875	5480.042	-3696.49	1	6610.211	-34.00112	1.159995E-006	0.0131133	7
	32	12	627.7902	5619.25	-4550.282	1	7230.562	-38.9994	8.325931E-007	0.0124181	7
	33	12	505.5147	5782.179	-5473.064	1	7961.66	-43.42682	-9.566218E-007	0.0160582	7
	34	12	397.9953	5996.291	-6798.726	1	9065.219	-48.58858	1.627168E-009	0.0143144	7
	35	13	315.5048	6264.469	-8370.737	1	10455.28	-53.18966	6.934383E-010	0.0142639	6
	36	13	252.4038	6584.692	-10237.61	1	12172.38	-57.25143	6.284813E-010	0.0142579	6
	37	13	198.6229	7028.501	-12708.9	1	14522.95	-61.05576	5.189266E-011	0.0142614	6
	38	14	158.3615	7569.052	-15593.94	1	17333.82	-64.1088	8.131728E-010	0.0142568	6
	39	14	125.558	8304.897	-19227.36	1	20944.27	-66.63897	4.836783E-010	0.0142506	6
	40	14	100.4464	9252.804	-23527.53	1	25281.59	-68.53149	-6.598044E-010	0.0142468	6
	41	15	79.00281	10572.79	-29216.28	1	31070.48	-70.10582	-3.872787E-011	0.0142532	6
	42	15	63.3446	11824.8	-35513.8	1	37430.69	-71.58412	5.885915E-010	0.0142485	6
	43	15	49.86702	14328.62	-43749.39	1	46036.05	-71.86555	6.568035E-010	0.0142484	6
	44	16	39.72458	17725.65	-53270.28	1	56141.98	-71.59517	-2.21825E-010	0.0142465	6
	45	16	31.6723	22061.29	-64591.06	1	68254.71	-71.14223	-9.118677E-010	0.0142486	6
	46	16	24.93351	27671.24	-78380.88	1	83121.95	-70.55515	8.702933E-010	0.0142328	6
	47	17	19.86229	34700.67	-93923.67	1	100128.9	-69.72295	1.271234E-009	0.0142502	6
	48	17	15.83615	44531.59	-111904.9	1	120439.9	-68.30034	3.898399E-010	0.0142447	5
	49	17	12.40079	57138.41	-133849.3	1	145535	-66.88303	-7.687085E-010	0.0142512	5
	50	18	9.93114	70406.43	-156369.8	1	171489.3	-65.76006	5.387858E-010	0.0142508	5
	51	18	7.944915	87274.64	-180900.4	1	200852.7	-64.24521	1.036618E-009	0.0142465	5
	52	19	6.317385	108092.4	-209594	1	235825.4	-62.71881	6.004185E-010	0.0142329	5
	53	20	5.008013	132274	-242291.3	1	276046.1	-61.36857	2.062399E-010	0.0142542	5
	54	21	3.945707	159422.8	-279794.7	1	322025.9	-60.32616	1.494542E-010	0.0142486	5
	55	22	3.158693	188874.8	-319332.8	1	371008.3	-59.39708	-2.143209E-010	0.0142397	5
	56	24	2.504006	222598.3	-366178.7	1	428528.8	-58.70478	-9.886351E-011	0.0142397	5
	57	25	1.998082	259168.4	-419097.3	1	492758.3	-58.26749	7.313971E-011	0.0142792	5
	58	27	1.584686	300392	-480905	1	567014.1	-58.00949	-6.913611E-011	0.0142409	5
	59	29	1.266892	347127.8	-551202.7	1	651400.1	-57.79874	-1.279161E-010	0.0142072	5
	60	31	0.999041	402189.4	-639788.4	1	755702.1	-57.84535	-1.644004E-010	0.0141986	5
