EXPLAIN
TAG	EISPOT
TITLE	LABEL	Potentiostatic EIS	Test &Identifier
DATE	LABEL	11/22/2019	Date
TIME	LABEL	0:32:00	Time
NOTES	NOTES	4	&Notes...
	
	
	
	
PSTAT	PSTAT	REF600-11020	Potentiostat
VDC	POTEN	0.00000E+000	T	DC &Voltage (V)
FREQINIT	QUANT	1.00000E+006	Initial Fre&q. (Hz)
FREQFINAL	QUANT	1.00000E+000	Final Fre&q. (Hz)
PTSPERDEC	QUANT	1.00000E+001	Points/&decade
VAC	QUANT	2.50000E+001	AC &Voltage (mV rms)
AREA	QUANT	1.00000E-002	&Area (cm^2)
CONDIT	TWOPARAM	T	5.00000E+000	0.00000E+000	Conditionin&g	Time(s)	E(V)
DELAY	TWOPARAM	T	5.00000E+000	0.00000E+000	Init. De&lay	Time(s)	Stab.(mV/s)
SPEED	SELECTOR	1	&Optimize for:
ZGUESS	QUANT	1.00000E+005	E&stimated Z (ohms)
OCVCURVE	TABLE	19
	Pt	T	Vf	Vm	Ach	Over
	#	s	V vs. Ref.	V	V	bits
	0	0.258333	4.99673E-003	4.99673E-003	5.62732E-004	...........
	1	0.516667	4.99560E-003	4.93773E-003	5.59199E-004	...........
	2	0.775	4.98894E-003	4.89569E-003	5.57599E-004	...........
	3	1.03333	4.97111E-003	4.86109E-003	5.60332E-004	...........
	4	1.29167	4.94147E-003	4.83236E-003	5.59366E-004	...........
	5	1.55	4.90589E-003	4.82040E-003	5.54266E-004	...........
	6	1.80833	4.87191E-003	4.80667E-003	5.54166E-004	...........
	7	2.06667	4.84437E-003	4.80082E-003	5.58832E-004	...........
	8	2.325	4.82453E-003	4.79696E-003	5.56933E-004	...........
	9	2.58333	4.81137E-003	4.79649E-003	5.53133E-004	...........
	10	2.84167	4.80333E-003	4.79707E-003	5.54899E-004	...........
	11	3.1	4.79902E-003	4.79737E-003	5.54433E-004	...........
	12	3.35833	4.79720E-003	4.79679E-003	5.50999E-004	...........
	13	3.61667	4.79691E-003	4.80548E-003	5.51533E-004	...........
	14	3.875	4.79785E-003	4.80811E-003	5.53699E-004	...........
	15	4.13333	4.80022E-003	4.81546E-003	5.49399E-004	...........
	16	4.39167	4.80400E-003	4.81785E-003	5.53299E-004	...........
	17	4.65	4.80879E-003	4.83242E-003	5.56633E-004	...........
	18	4.90833	4.81446E-003	4.83395E-003	5.62599E-004	...........
EOC	QUANT	0.0048145	Open Circuit (V)
PSTATMODEL	IQUANT	4	Pstat Model
PSTATSECTION	LABEL	REF600-11020	Pstat Section
PSTATSERIALNO	LABEL	11020	Pstat Serial Number
CTRLMODE	IQUANT	1	Control Mode
IESTAB	IQUANT	0	I/E Stability
CASPEED	IQUANT	1	Control Amp Speed
CONVENTION	IQUANT	1	Current Convention
ICHRANGE	IQUANT	2	Ich Range
ICHRANGEMODE	TOGGLE	F	Ich Auto Range
ICHOFFSETENABLE	TOGGLE	T	Ich Offset Enable
ICHOFFSET	QUANT	0	Ich Offset (V)
ICHFILTER	IQUANT	3	Ich Filter
VCHRANGE	IQUANT	2	Vch Range
VCHRANGEMODE	TOGGLE	F	Vch Auto Range
VCHOFFSETENABLE	TOGGLE	T	Vch Offset Enable
VCHOFFSET	QUANT	0	Vch Offset (V)
VCHFILTER	IQUANT	3	Vch Filter
ACHRANGE	IQUANT	2	Ach Range
ACHOFFSETENABLE	TOGGLE	F	Ach Offset Enable
ACHOFFSET	QUANT	0	Ach Offset (V)
ACHFILTER	IQUANT	3	Ach Filter
IERANGELOWERLIMIT	IQUANT	1	I/E Range Lower Limit
IERANGEMODE	TOGGLE	F	I/E AutoRange
IERANGE	IQUANT	4	I/E Range
POSFEEDENABLE	TOGGLE	F	Positive Feedback IR Comp
POSFEEDRESISTANCE	QUANT	0	Positive Feedback Resistance (ohm)
ACHSELECT	IQUANT	0	Ach Select
CABLEID	IQUANT	14	Cable ID
DCCALDATE	LABEL	8/19/2019	DC Calibration Date
ACCALDATE	LABEL	8/19/2019	AC Calibration Date
THERMOSELECT	IQUANT	1	Thermo Select
FRAMEWORKVERSION	QUANT	6.33	Framework Version
INSTRUMENTVERSION	LABEL	3.50	Instrument Version
ZCURVE	TABLE
	Pt	Time	Freq	Zreal	Zimag	Zsig	Zmod	Zphz	Idc	Vdc	IERange
	#	s	Hz	ohm	ohm	V	ohm	°	A	V	#
	0	2	1000078	2210.762	-1568.087	1	2710.418	-35.34797	6.111238E-006	0.0052556	8
	1	3	794390.6	2527.583	-1524.932	1	2951.964	-31.10327	-1.197192E-006	0.0071066	8
	2	4	630984.4	2817.252	-1419.118	1	3154.49	-26.73551	7.361152E-006	0.0051586	8
	3	6	501234.4	3062.269	-1295.829	1	3325.156	-22.93613	-3.436917E-006	0.0065744	8
	4	7	398109.4	3248.911	-1159.486	1	3449.613	-19.64069	4.687275E-008	0.0060403	8
	5	9	316265.6	3406.861	-1017.539	1	3555.572	-16.6295	7.109024E-006	0.0055141	8
	6	10	251203.1	3535.297	-891.2485	1	3645.909	-14.14943	-4.736018E-006	0.0066296	8
	7	11	199546.9	3621.996	-786.0266	1	3706.304	-12.24417	1.005215E-007	0.0059832	8
	8	13	158578.1	3720.676	-702.6695	1	3786.446	-10.69466	6.831771E-006	0.0055336	8
	9	14	125953.1	3780.183	-567.4543	1	3822.537	-8.537093	-2.358953E-006	0.0070545	7
	10	15	100078.1	3825.898	-518.8405	1	3860.919	-7.722922	7.401243E-008	0.0072239	7
	11	17	79453.13	3870.307	-487.0806	1	3900.836	-7.172999	-2.896809E-007	0.0076155	7
	12	18	63140.62	3914.52	-468.1331	1	3942.412	-6.819551	-3.108041E-007	0.0053965	7
	13	19	50203.12	3953.08	-458.503	1	3979.581	-6.615963	-6.22584E-007	0.0078537	7
	14	21	39890.62	3998.508	-460.7647	1	4024.969	-6.573437	4.876969E-007	0.0045686	7
	15	22	31640.63	4036.205	-472.3257	1	4063.747	-6.674522	-6.218808E-007	0.0078436	7
	16	24	25171.88	4082.752	-495.5847	1	4112.721	-6.920986	7.84564E-007	0.0044597	7
	17	25	20015.62	4115.784	-525.7327	1	4149.225	-7.2793	-1.233105E-006	0.007706	7
	18	26	15890.62	4175.989	-574.8081	1	4215.363	-7.837286	1.094358E-006	0.0047742	7
	19	28	12609.37	4221.874	-634.4788	1	4269.283	-8.546662	7.685809E-008	0.0072072	7
	20	29	10078.13	4275.807	-706.7219	1	4333.818	-9.385218	-3.100446E-007	0.0053974	7
	21	30	8015.625	4337.764	-796.8606	1	4410.35	-10.40935	-2.884542E-007	0.0076078	7
	22	32	6328.125	4396.694	-914.0687	1	4490.706	-11.74444	-6.236467E-007	0.007848	7
	23	33	5015.625	4469.159	-1057.699	1	4592.614	-13.31499	8.445284E-007	0.0060133	7
	24	34	3984.375	4540.509	-1229.942	1	4704.145	-15.15667	1.024228E-006	0.0055206	7
	25	36	3170.956	4619.226	-1437.599	1	4837.762	-17.28723	-8.99289E-007	0.0079347	7
	26	37	2527.573	4707.39	-1693.738	1	5002.826	-19.78893	-1.231828E-006	0.0077085	7
	27	38	1976.103	4816.265	-2035.577	1	5228.765	-22.91118	-1.226618E-006	0.0073395	7
	28	40	1577.524	4927.168	-2436.374	1	5496.627	-26.31136	-3.082569E-007	0.0053921	7
	29	41	1265.625	5063.562	-2883.458	1	5827.005	-29.65945	1.110969E-006	0.0050942	7
	30	43	998.264	5222.067	-3478.808	1	6274.719	-33.67054	-2.89068E-007	0.007592	7
	31	44	796.875	5402.479	-4179.018	1	6830.151	-37.72328	-1.225421E-006	0.0073347	7
	32	45	627.7902	5626.605	-5082.206	1	7582.051	-42.08978	-6.175258E-007	0.0078439	7
	33	47	505.5147	5863.61	-6098.251	1	8459.94	-46.12376	1.094306E-006	0.0047673	7
	34	48	397.9953	6182.245	-7442.332	1	9675.15	-50.28404	7.476903E-009	0.0062638	7
	35	50	315.5048	6550.181	-9054.128	1	11175.07	-54.11626	6.65952E-010	0.0062061	6
	36	51	252.4038	6968.025	-10952.44	1	12981.11	-57.53517	1.796196E-010	0.0061985	6
	37	52	198.6229	7510.195	-13457.77	1	15411.51	-60.83601	2.677415E-010	0.0062021	6
	38	54	158.3615	8136.751	-16377.11	1	18287.05	-63.58012	8.955416E-010	0.0061917	6
	39	55	125.558	8949.01	-20041.53	1	21948.75	-65.93813	1.327649E-010	0.0062	6
	40	56	100.4464	9910.64	-24352.55	1	26291.97	-67.85538	8.495291E-010	0.0062074	6
	41	58	79.00281	11254.44	-30078.31	1	32114.9	-69.48559	1.509903E-009	0.0061969	6
	42	59	63.3446	12660.48	-36335.7	1	38478.19	-70.79008	3.873151E-010	0.0062104	6
	43	61	49.86702	15513.64	-44819.45	1	47428.43	-70.9074	1.625991E-010	0.006201	6
	44	62	39.72458	18306.87	-54683.74	1	57666.74	-71.49063	5.731989E-010	0.0062138	6
	45	63	31.6723	22172.98	-66420.98	1	70024.2	-71.5397	3.839484E-010	0.0062036	6
	46	65	24.93351	27671.08	-80967.19	1	85565.03	-71.1318	6.161039E-010	0.0061934	6
	47	66	19.86229	34669.21	-97556.4	1	103533.6	-70.436	1.248028E-011	0.0061952	6
	48	68	15.83615	43804.21	-115787.6	1	123796.5	-69.27761	-2.69561E-010	0.006197	5
	49	69	12.40079	56158.5	-141312.5	1	152062.5	-68.32681	1.107497E-010	0.0062072	5
	50	71	9.93114	71258.27	-166683.9	1	181276.7	-66.85303	-1.980318E-011	0.0062093	5
	51	72	7.944915	89942.41	-195266.3	1	214985	-65.26853	3.263202E-010	0.0062017	5
	52	74	6.317385	114069.1	-226775.3	1	253848	-63.29737	-2.301042E-010	0.0062107	5
	53	76	5.008013	143569.7	-262011.7	1	298768.2	-61.2794	1.082146E-010	0.0061948	5
	54	78	3.945707	179146.1	-300965.6	1	350248	-59.23729	4.824811E-010	0.0062041	5
	55	81	3.158693	217582.1	-339540.3	1	403273.6	-57.34769	-1.346967E-010	0.0061965	5
	56	84	2.504006	262218.5	-382339.3	1	463618.3	-55.55664	6.137558E-010	0.0062088	5
	57	87	1.998082	309849.3	-426191.8	1	526921.3	-53.98215	1.916851E-010	0.0062417	5
	58	90	1.584686	361325.8	-474908.6	1	596736.6	-52.73495	2.188422E-010	0.0061753	5
	59	94	1.266892	416394.6	-529079.9	1	673283.1	-51.79667	1.971632E-010	0.0062373	5
	60	98	0.999041	478592	-592893.4	1	761953.4	-51.08904	-1.567903E-010	0.0061623	5
