EXPLAIN
TAG	EISPOT
TITLE	LABEL	Potentiostatic IDE	Test &Identifier
DATE	LABEL	9/14/2019	Date
TIME	LABEL	13:22:04	Time
NOTES	NOTES	1	&Notes...
	
PSTAT	PSTAT	REF600-11020	Potentiostat
VDC	POTEN	0.00000E+000	T	DC &Voltage (V)
FREQINIT	QUANT	1.00000E+006	Initial Fre&q. (Hz)
FREQFINAL	QUANT	1.00000E+000	Final Fre&q. (Hz)
PTSPERDEC	QUANT	1.00000E+001	Points/&decade
VAC	QUANT	2.50000E+001	AC &Voltage (mV rms)
AREA	QUANT	1.00000E-002	&Area (cm^2)
CONDIT	TWOPARAM	T	5.00000E+000	0.00000E+000	Conditionin&g	Time(s)	E(V)
DELAY	TWOPARAM	T	5.00000E+000	0.00000E+000	Init. De&lay	Time(s)	Stab.(mV/s)
SPEED	SELECTOR	1	&Optimize for:
ZGUESS	QUANT	1.00000E+007	E&stimated Z (ohms)
OCVCURVE	TABLE	19
	Pt	T	Vf	Vm	Ach	Over
	#	s	V vs. Ref.	V	V	bits
	0	0.258333	7.61129E-003	7.61129E-003	5.62899E-004	...........
	1	0.516667	7.61269E-003	7.68472E-003	5.64632E-004	...........
	2	0.775	7.62123E-003	7.75062E-003	5.59532E-004	...........
	3	1.03333	7.64682E-003	7.90029E-003	5.57699E-004	...........
	4	1.29167	7.69692E-003	7.91733E-003	5.57966E-004	...........
	5	1.55	7.76771E-003	7.98946E-003	5.59999E-004	...........
	6	1.80833	7.84357E-003	7.97258E-003	5.62832E-004	...........
	7	2.06667	7.90941E-003	8.08624E-003	5.61832E-004	...........
	8	2.325	7.96443E-003	8.19328E-003	5.67799E-004	...........
	9	2.58333	8.01907E-003	8.13356E-003	5.61999E-004	...........
	10	2.84167	8.07451E-003	8.14175E-003	5.63066E-004	...........
	11	3.1	8.11646E-003	8.09534E-003	5.64599E-004	...........
	12	3.35833	8.13327E-003	8.07759E-003	5.63366E-004	...........
	13	3.61667	8.12732E-003	8.07651E-003	5.59966E-004	...........
	14	3.875	8.11097E-003	8.13008E-003	5.59099E-004	...........
	15	4.13333	8.09987E-003	8.16779E-003	5.62566E-004	...........
	16	4.39167	8.10585E-003	8.23891E-003	5.60566E-004	...........
	17	4.65	8.13080E-003	8.21285E-003	5.66232E-004	...........
	18	4.90833	8.16535E-003	8.22621E-003	5.62832E-004	...........
EOC	QUANT	0.0081654	Open Circuit (V)
PSTATMODEL	IQUANT	4	Pstat Model
PSTATSECTION	LABEL	REF600-11020	Pstat Section
PSTATSERIALNO	LABEL	11020	Pstat Serial Number
CTRLMODE	IQUANT	1	Control Mode
IESTAB	IQUANT	0	I/E Stability
CASPEED	IQUANT	1	Control Amp Speed
CONVENTION	IQUANT	1	Current Convention
ICHRANGE	IQUANT	2	Ich Range
ICHRANGEMODE	TOGGLE	F	Ich Auto Range
ICHOFFSETENABLE	TOGGLE	T	Ich Offset Enable
ICHOFFSET	QUANT	0	Ich Offset (V)
ICHFILTER	IQUANT	3	Ich Filter
VCHRANGE	IQUANT	2	Vch Range
VCHRANGEMODE	TOGGLE	F	Vch Auto Range
VCHOFFSETENABLE	TOGGLE	T	Vch Offset Enable
VCHOFFSET	QUANT	0	Vch Offset (V)
VCHFILTER	IQUANT	3	Vch Filter
ACHRANGE	IQUANT	2	Ach Range
ACHOFFSETENABLE	TOGGLE	F	Ach Offset Enable
ACHOFFSET	QUANT	0	Ach Offset (V)
ACHFILTER	IQUANT	3	Ach Filter
IERANGELOWERLIMIT	IQUANT	1	I/E Range Lower Limit
IERANGEMODE	TOGGLE	F	I/E AutoRange
IERANGE	IQUANT	3	I/E Range
POSFEEDENABLE	TOGGLE	F	Positive Feedback IR Comp
POSFEEDRESISTANCE	QUANT	0	Positive Feedback Resistance (ohm)
ACHSELECT	IQUANT	0	Ach Select
CABLEID	IQUANT	14	Cable ID
DCCALDATE	LABEL	8/19/2019	DC Calibration Date
ACCALDATE	LABEL	8/19/2019	AC Calibration Date
THERMOSELECT	IQUANT	1	Thermo Select
FRAMEWORKVERSION	QUANT	6.33	Framework Version
INSTRUMENTVERSION	LABEL	3.50	Instrument Version
ZCURVE	TABLE
	Pt	Time	Freq	Zreal	Zimag	Zsig	Zmod	Zphz	Idc	Vdc	IERange
	#	s	Hz	ohm	ohm	V	ohm	°	A	V	#
	0	2	1000078	2450.399	-2117.75	1	3238.722	-40.83511	3.074045E-006	0.010397	8
	1	4	794390.6	2897.71	-2078.601	1	3566.134	-35.65283	-1.916695E-006	0.0103813	8
	2	5	630984.4	3308.686	-1979.916	1	3855.835	-30.89628	-4.965614E-007	0.0103513	8
	3	6	501234.4	3672.835	-1812.784	1	4095.84	-26.26934	1.771395E-006	0.0096072	8
	4	8	398109.4	3978.252	-1636.364	1	4301.648	-22.3587	-8.393606E-007	0.0099907	8
	5	9	316265.6	4194.07	-1453.583	1	4438.82	-19.11532	5.754272E-007	0.0098097	8
	6	11	251203.1	4385.213	-1281.757	1	4568.698	-16.29315	-2.233327E-006	0.0103361	8
	7	12	199546.9	4547.197	-1127.965	1	4685.009	-13.93143	2.827036E-006	0.0093825	8
	8	13	158578.1	4625.695	-985.661	1	4729.543	-12.0289	1.822711E-006	0.0094338	8
	9	15	125953.1	4763.302	-826.3237	1	4834.445	-9.84156	-1.147226E-007	0.0097973	7
	10	16	100078.1	4805.22	-749.5718	1	4863.332	-8.86618	2.904224E-008	0.0098725	7
	11	18	79453.13	4866.577	-706.009	1	4917.522	-8.254484	5.047483E-008	0.0098343	7
	12	19	63140.62	4924.824	-681.0741	1	4971.695	-7.873725	-3.846542E-008	0.0099213	7
	13	20	50203.12	4982.717	-674.2877	1	5028.134	-7.706752	-4.847614E-008	0.0098701	7
	14	21	39890.62	5045.259	-684.0588	1	5091.422	-7.721334	-3.990468E-008	0.009878	7
	15	23	31640.63	5103.159	-710.4026	1	5152.369	-7.925122	-3.784032E-008	0.0099123	7
	16	24	25171.88	5168.369	-752.5801	1	5222.874	-8.284767	-4.649774E-008	0.0098826	7
	17	25	20015.62	5239.057	-812.0319	1	5301.614	-8.810499	-2.653252E-008	0.0099157	7
	18	27	15890.62	5320.314	-889.0429	1	5394.083	-9.48667	9.46027E-008	0.0096678	7
	19	28	12609.37	5399.152	-984.652	1	5488.204	-10.33554	7.948737E-009	0.0097645	7
	20	29	10078.13	5489.539	-1098.371	1	5598.344	-11.31458	1.395892E-008	0.0098126	7
	21	31	8015.625	5590.417	-1243.567	1	5727.061	-12.54103	9.42261E-008	0.0096657	7
	22	32	6328.125	5705.751	-1419.403	1	5879.651	-13.96974	1.09335E-008	0.0097425	7
	23	33	5015.625	5831.166	-1629.652	1	6054.606	-15.61423	-3.997344E-008	0.0098697	7
	24	35	3984.375	5964.55	-1877.723	1	6253.136	-17.47472	3.224452E-008	0.0098514	7
	25	36	3170.956	6118.193	-2173.369	1	6492.751	-19.55659	5.526422E-008	0.0098307	7
	26	37	2527.573	6285.913	-2525.093	1	6774.126	-21.88565	-3.618324E-008	0.0098321	7
	27	39	1976.103	6489.44	-2991.651	1	7145.825	-24.74984	-2.486186E-008	0.0099171	7
	28	40	1577.524	6697.852	-3498.959	1	7556.714	-27.58257	1.005837E-008	0.0097435	7
	29	41	1265.625	6906.689	-4133.258	1	8048.986	-30.89811	-2.399049E-008	0.0099147	7
	30	43	998.264	7202.842	-4889.572	1	8705.679	-34.1702	-3.874132E-008	0.009912	7
	31	44	796.875	7499.442	-5781.983	1	9469.581	-37.63181	1.318974E-008	0.0098182	7
	32	45	627.7902	7855.996	-6943.979	1	10485.01	-41.47373	1.050262E-008	0.0095473	6
	33	47	505.5147	8221.835	-8234.277	1	11636.23	-45.04332	-1.085068E-009	0.0098704	6
	34	48	397.9953	8683.529	-9969.09	1	13220.68	-48.94265	2.534399E-010	0.0097822	6
	35	49	315.5048	9202.688	-12044.27	1	15157.64	-52.61758	1.408426E-009	0.00978	6
	36	51	252.4038	9787.88	-14489.1	1	17485.33	-55.95964	1.207499E-009	0.0097825	6
	37	52	198.6229	10534.08	-17713.63	1	20609.21	-59.26057	7.709117E-010	0.0097852	6
	38	53	158.3615	11391.13	-21461.62	1	24297.31	-62.0421	1.361879E-009	0.0097825	6
	39	55	125.558	12454.98	-26168.21	1	28981.05	-64.54749	7.486084E-010	0.0097804	6
	40	56	100.4464	13755.71	-31688.62	1	34545.45	-66.53482	1.643146E-009	0.0097788	6
	41	57	79.00281	15317.96	-38979.74	1	41881.5	-68.54655	1.244767E-009	0.0097729	6
	42	59	63.3446	18058.08	-47532.76	1	50847.39	-69.19781	2.007276E-010	0.0097747	6
	43	60	49.86702	19825.64	-57860.16	1	61162.52	-71.08611	1.492327E-011	0.0097743	6
	44	62	39.72458	23810.06	-70776.95	1	74674.59	-71.40656	1.026672E-009	0.0097794	6
	45	63	31.6723	28050.22	-86043.09	1	90499.88	-71.94393	9.683173E-010	0.0097769	6
	46	65	24.93351	34739.61	-105598.6	1	111166.1	-71.78994	-1.5189E-010	0.0097822	5
	47	66	19.86229	43159.28	-127674.8	1	134772.3	-71.32265	4.45618E-010	0.0097857	5
	48	67	15.83615	55380.61	-156048.8	1	165584.5	-70.46059	-1.59895E-009	0.0097872	5
	49	69	12.40079	70039.95	-189820	1	202329.5	-69.7469	1.405485E-009	0.0097818	5
	50	70	9.93114	86771.11	-222679.3	1	238988	-68.7107	5.017282E-010	0.0097839	5
	51	72	7.944915	108157.8	-262086.8	1	283527.1	-67.57507	-5.565463E-010	0.009789	5
	52	73	6.317385	140094	-309786.1	1	339990.8	-65.66618	-9.040467E-011	0.0097985	5
	53	75	5.008013	178097.8	-362199.3	1	403617.6	-63.8161	4.176604E-010	0.009786	5
	54	78	3.945707	226238.6	-421754.2	1	478602.7	-61.78987	2.017489E-011	0.0097758	5
	55	80	3.158693	279370.3	-481897.8	1	557021.8	-59.89788	3.348197E-010	0.0097923	5
	56	84	2.504006	344841.6	-548383.1	1	647796.1	-57.83695	-1.194964E-010	0.0097868	5
	57	86	1.998082	414921.8	-614201.1	1	741217.3	-55.95911	3.1289E-010	0.0097445	5
	58	90	1.584686	497227.3	-689521.9	1	850103.2	-54.20392	2.353964E-011	0.0097427	5
	59	93	1.266892	580462.3	-763389.4	1	959010	-52.75155	3.06055E-010	0.0097563	5
	60	97	0.999041	678916.1	-855002.8	1	1091768	-51.54862	-1.404648E-010	0.0097805	4
