EXPLAIN
TAG	EISPOT
TITLE	LABEL	Potentiostatic EIS	Test &Identifier
DATE	LABEL	10/12/2019	Date
TIME	LABEL	9:35:18	Time
NOTES	NOTES	1	&Notes...
	
PSTAT	PSTAT	REF600-11020	Potentiostat
VDC	POTEN	0.00000E+000	T	DC &Voltage (V)
FREQINIT	QUANT	1.00000E+006	Initial Fre&q. (Hz)
FREQFINAL	QUANT	1.00000E+000	Final Fre&q. (Hz)
PTSPERDEC	QUANT	1.00000E+001	Points/&decade
VAC	QUANT	2.50000E+001	AC &Voltage (mV rms)
AREA	QUANT	1.00000E-002	&Area (cm^2)
CONDIT	TWOPARAM	T	5.00000E+000	0.00000E+000	Conditionin&g	Time(s)	E(V)
DELAY	TWOPARAM	T	5.00000E+000	0.00000E+000	Init. De&lay	Time(s)	Stab.(mV/s)
SPEED	SELECTOR	1	&Optimize for:
ZGUESS	QUANT	1.00000E+004	E&stimated Z (ohms)
OCVCURVE	TABLE	19
	Pt	T	Vf	Vm	Ach	Over
	#	s	V vs. Ref.	V	V	bits
	0	0.258333	4.16785E-003	4.16785E-003	5.54466E-004	...........
	1	0.516667	4.16630E-003	4.08665E-003	5.52366E-004	...........
	2	0.775	4.16578E-003	4.48090E-003	5.54366E-004	...........
	3	1.03333	4.18833E-003	4.55110E-003	5.53299E-004	...........
	4	1.29167	4.26177E-003	4.66270E-003	5.52966E-004	...........
	5	1.55	4.37609E-003	4.47289E-003	5.58599E-004	...........
	6	1.80833	4.47967E-003	4.47651E-003	5.61599E-004	...........
	7	2.06667	4.52332E-003	4.15818E-003	5.54966E-004	...........
	8	2.325	4.49038E-003	4.17518E-003	5.52499E-004	...........
	9	2.58333	4.40134E-003	4.25060E-003	5.56166E-004	...........
	10	2.84167	4.30339E-003	4.13508E-003	5.55199E-004	...........
	11	3.1	4.22980E-003	3.96724E-003	5.58632E-004	...........
	12	3.35833	4.17026E-003	3.92853E-003	5.58866E-004	...........
	13	3.61667	4.10153E-003	3.88510E-003	5.50366E-004	...........
	14	3.875	4.02539E-003	3.91710E-003	5.52466E-004	...........
	15	4.13333	3.95930E-003	3.78161E-003	5.55299E-004	...........
	16	4.39167	3.90669E-003	3.68075E-003	5.54366E-004	...........
	17	4.65	3.85183E-003	3.59155E-003	5.50366E-004	...........
	18	4.90833	3.78605E-003	3.77131E-003	5.56033E-004	...........
EOC	QUANT	0.003786	Open Circuit (V)
PSTATMODEL	IQUANT	4	Pstat Model
PSTATSECTION	LABEL	REF600-11020	Pstat Section
PSTATSERIALNO	LABEL	11020	Pstat Serial Number
CTRLMODE	IQUANT	1	Control Mode
IESTAB	IQUANT	0	I/E Stability
CASPEED	IQUANT	1	Control Amp Speed
CONVENTION	IQUANT	1	Current Convention
ICHRANGE	IQUANT	2	Ich Range
ICHRANGEMODE	TOGGLE	F	Ich Auto Range
ICHOFFSETENABLE	TOGGLE	T	Ich Offset Enable
ICHOFFSET	QUANT	0	Ich Offset (V)
ICHFILTER	IQUANT	3	Ich Filter
VCHRANGE	IQUANT	2	Vch Range
VCHRANGEMODE	TOGGLE	F	Vch Auto Range
VCHOFFSETENABLE	TOGGLE	T	Vch Offset Enable
VCHOFFSET	QUANT	0	Vch Offset (V)
VCHFILTER	IQUANT	3	Vch Filter
ACHRANGE	IQUANT	2	Ach Range
ACHOFFSETENABLE	TOGGLE	F	Ach Offset Enable
ACHOFFSET	QUANT	0	Ach Offset (V)
ACHFILTER	IQUANT	3	Ach Filter
IERANGELOWERLIMIT	IQUANT	1	I/E Range Lower Limit
IERANGEMODE	TOGGLE	F	I/E AutoRange
IERANGE	IQUANT	5	I/E Range
POSFEEDENABLE	TOGGLE	F	Positive Feedback IR Comp
POSFEEDRESISTANCE	QUANT	0	Positive Feedback Resistance (ohm)
ACHSELECT	IQUANT	0	Ach Select
CABLEID	IQUANT	14	Cable ID
DCCALDATE	LABEL	8/19/2019	DC Calibration Date
ACCALDATE	LABEL	8/19/2019	AC Calibration Date
THERMOSELECT	IQUANT	1	Thermo Select
FRAMEWORKVERSION	QUANT	6.33	Framework Version
INSTRUMENTVERSION	LABEL	3.50	Instrument Version
ZCURVE	TABLE
	Pt	Time	Freq	Zreal	Zimag	Zsig	Zmod	Zphz	Idc	Vdc	IERange
	#	s	Hz	ohm	ohm	V	ohm	°	A	V	#
	0	2	1000078	2532.794	-1017.307	1	2729.462	-21.88306	4.185436E-006	0.0053608	8
	1	3	794390.6	2684.608	-935.1963	1	2842.835	-19.20603	1.381384E-006	0.0051047	8
	2	4	630984.4	2818.805	-807.6934	1	2932.24	-15.98899	-2.544761E-006	0.0059642	8
	3	6	501234.4	2933.014	-724.2403	1	3021.108	-13.87041	2.957021E-006	0.0049076	8
	4	7	398109.4	3006.638	-614.3973	1	3068.771	-11.54921	3.28421E-006	0.0048269	8
	5	8	316265.6	3071.699	-539.6839	1	3118.749	-9.96491	-6.152431E-007	0.0053467	8
	6	10	251203.1	3114.155	-464.816	1	3148.653	-8.489246	-7.617463E-007	0.005204	8
	7	11	199546.9	3165.333	-400.8864	1	3190.618	-7.218026	-2.838384E-007	0.0053209	8
	8	12	158578.1	3185.591	-341.3464	1	3203.827	-6.116092	-8.12335E-007	0.0053638	8
	9	14	125953.1	3247.437	-262.9433	1	3258.065	-4.62911	6.789703E-007	0.0036521	7
	10	15	100078.1	3259.951	-235.0473	1	3268.414	-4.123974	1.023507E-007	0.0052122	7
	11	16	79453.13	3278.798	-219.0775	1	3286.108	-3.822616	1.980348E-008	0.0052096	7
	12	18	63140.62	3296.331	-211.5822	1	3303.114	-3.672616	5.320329E-008	0.0051374	7
	13	19	50203.12	3316.399	-196.5217	1	3322.217	-3.391241	9.272593E-008	0.0051033	7
	14	20	39890.62	3332.775	-197.8488	1	3338.643	-3.397352	1.488094E-008	0.0052507	7
	15	22	31640.63	3349.336	-203.2429	1	3355.497	-3.472538	-8.556557E-008	0.0054064	7
	16	23	25171.88	3364.232	-211.3456	1	3370.864	-3.594674	8.999582E-008	0.0051133	7
	17	25	20015.62	3389.167	-225.2072	1	3396.641	-3.801667	-2.325398E-008	0.0053611	7
	18	26	15890.62	3397.063	-246.2723	1	3405.979	-4.14644	-2.404781E-008	0.0053686	7
	19	27	12609.37	3413.524	-276.4797	1	3424.703	-4.630585	-4.46975E-008	0.0053738	7
	20	29	10078.13	3429.283	-311.4457	1	3443.397	-5.189336	3.968535E-009	0.0053912	7
	21	30	8015.625	3457.76	-358.6626	1	3476.312	-5.921934	6.148727E-008	0.0051786	7
	22	31	6328.125	3469.755	-423.441	1	3495.497	-6.957841	-7.026505E-008	0.0053728	7
	23	33	5015.625	3493.295	-500.3056	1	3528.94	-8.15041	6.029025E-008	0.0051753	7
	24	34	3984.375	3515.616	-593.9216	1	3565.431	-9.5889	-5.502082E-008	0.0053495	7
	25	35	3170.956	3551.289	-712.64	1	3622.087	-11.34688	-3.065028E-008	0.0052777	7
	26	37	2527.573	3586.203	-855.6993	1	3686.879	-13.42034	-7.791921E-008	0.0055093	7
	27	38	1976.103	3630.768	-1045.23	1	3778.224	-16.06012	9.482152E-008	0.0052077	7
	28	39	1577.524	3683.589	-1259.735	1	3893.04	-18.87996	-1.956282E-008	0.0052572	7
	29	41	1265.625	3734.313	-1516.171	1	4030.368	-22.09767	-1.379102E-009	0.0052306	7
	30	42	998.264	3801.278	-1855.155	1	4229.813	-26.01398	9.4651E-008	0.0052085	7
	31	43	796.875	3879.315	-2251.01	1	4485.101	-30.12487	1.579981E-008	0.005216	7
	32	45	627.7902	3977.128	-2770.017	1	4846.704	-34.8567	-7.642092E-008	0.005509	7
	33	46	505.5147	4082.267	-3345.25	1	5277.84	-39.33321	-1.955502E-008	0.0052573	7
	34	47	397.9953	4220.345	-4131.052	1	5905.667	-44.38742	5.913453E-009	0.0053037	7
	35	49	315.5048	4387.636	-5074.55	1	6708.383	-49.15214	6.590065E-009	0.0052948	7
	36	50	252.4038	4587.399	-6191.766	1	7705.984	-53.46573	7.119265E-009	0.0052951	7
	37	52	198.6229	4858.914	-7670.609	1	9080.049	-57.64797	6.7407E-009	0.0052995	7
	38	53	158.3615	5191.217	-9394.33	1	10733.23	-61.07538	9.062208E-010	0.0052387	6
	39	54	125.558	5623.313	-11565.98	1	12860.54	-64.07124	1.233414E-009	0.0052377	6
	40	56	100.4464	6153.686	-14116.15	1	15399.14	-66.44605	1.813752E-009	0.0052364	6
	41	57	79.00281	6949.219	-17489.13	1	18819.17	-68.32985	5.811819E-010	0.0052359	6
	42	58	63.3446	7892.679	-21126.93	1	22553.08	-69.51513	6.601849E-010	0.0052344	6
	43	60	49.86702	9230.156	-26296.27	1	27869.15	-70.65861	4.782683E-010	0.0052293	6
	44	61	39.72458	10785.97	-31969.33	1	33739.81	-71.35638	1.085566E-009	0.0052348	6
	45	63	31.6723	13056.58	-38822.48	1	40959.24	-71.41144	1.04329E-009	0.0052317	6
	46	64	24.93351	16034.5	-47548.92	1	50179.72	-71.36481	1.188667E-009	0.0052306	6
	47	65	19.86229	19797.49	-57357.35	1	60677.89	-70.95734	1.934308E-009	0.0052419	6
	48	67	15.83615	24669.05	-69197.17	1	73462.99	-70.37865	-8.927137E-010	0.0052329	6
	49	68	12.40079	31724.26	-83452.96	1	89279.48	-69.18593	-3.055809E-010	0.0052329	6
	50	69	9.93114	39867.21	-98750.5	1	106494.4	-68.01525	6.436673E-010	0.0052343	5
	51	71	7.944915	49893.4	-116269.2	1	126522.2	-66.77488	-1.878626E-010	0.0052395	5
	52	73	6.317385	62631.14	-136440.3	1	150128.7	-65.34313	-4.267953E-010	0.0052372	5
	53	75	5.008013	78329.57	-159493.6	1	177690	-63.84369	-2.866002E-010	0.0052329	5
	54	77	3.945707	97492.4	-185597.3	1	209645.3	-62.28751	5.262037E-010	0.0052476	5
	55	80	3.158693	118723.1	-213063.2	1	243908	-60.87256	-3.610818E-010	0.0052317	5
	56	83	2.504006	143857.9	-244057.2	1	283300.2	-59.48306	6.135035E-010	0.0052302	5
	57	86	1.998082	171432.3	-277299.1	1	326012	-58.27476	5.878451E-011	0.0052778	5
	58	89	1.584686	201437.9	-315443.6	1	374275.1	-57.43826	1.746255E-010	0.0052396	5
	59	93	1.266892	234963.4	-357392	1	427711.2	-56.67753	-4.679191E-011	0.0052813	5
	60	97	0.999041	271880.5	-408324.2	1	490558.5	-56.34255	-4.620541E-011	0.0051998	5
