EXPLAIN
TAG	EISPOT
TITLE	LABEL	Potentiostatic EIS	Test &Identifier
DATE	LABEL	11/27/2019	Date
TIME	LABEL	11:49:46	Time
NOTES	NOTES	3	&Notes...
	
	
	
PSTAT	PSTAT	REF600-11020	Potentiostat
VDC	POTEN	0.00000E+000	T	DC &Voltage (V)
FREQINIT	QUANT	1.00000E+006	Initial Fre&q. (Hz)
FREQFINAL	QUANT	1.00000E+000	Final Fre&q. (Hz)
PTSPERDEC	QUANT	1.00000E+001	Points/&decade
VAC	QUANT	2.50000E+001	AC &Voltage (mV rms)
AREA	QUANT	1.00000E-002	&Area (cm^2)
CONDIT	TWOPARAM	T	5.00000E+000	0.00000E+000	Conditionin&g	Time(s)	E(V)
DELAY	TWOPARAM	T	5.00000E+000	0.00000E+000	Init. De&lay	Time(s)	Stab.(mV/s)
SPEED	SELECTOR	0	&Optimize for:
ZGUESS	QUANT	1.00000E+005	E&stimated Z (ohms)
OCVCURVE	TABLE	19
	Pt	T	Vf	Vm	Ach	Over
	#	s	V vs. Ref.	V	V	bits
	0	0.258333	-2.43191E-003	-2.43191E-003	5.37233E-004	...........
	1	0.516667	-2.44321E-003	-3.02314E-003	5.37566E-004	...........
	2	0.775	-2.49712E-003	-2.77515E-003	5.42999E-004	...........
	3	1.03333	-2.60609E-003	-2.94439E-003	5.45999E-004	...........
	4	1.29167	-2.74052E-003	-3.36515E-003	5.42566E-004	...........
	5	1.55	-2.88498E-003	-3.47764E-003	5.46199E-004	...........
	6	1.80833	-3.04714E-003	-3.19431E-003	5.43233E-004	...........
	7	2.06667	-3.21915E-003	-4.50001E-003	5.51333E-004	...........
	8	2.325	-3.41459E-003	-3.96158E-003	5.45099E-004	...........
	9	2.58333	-3.65053E-003	-3.99701E-003	5.38099E-004	...........
	10	2.84167	-3.86816E-003	-4.08586E-003	5.36533E-004	...........
	11	3.1	-3.99960E-003	-4.11658E-003	5.39899E-004	...........
	12	3.35833	-4.05913E-003	-4.24898E-003	5.41066E-004	...........
	13	3.61667	-4.08850E-003	-3.71188E-003	5.44166E-004	...........
	14	3.875	-4.09781E-003	-4.57598E-003	5.39566E-004	...........
	15	4.13333	-4.10712E-003	-4.29157E-003	5.38766E-004	...........
	16	4.39167	-4.15721E-003	-4.41584E-003	5.40599E-004	...........
	17	4.65	-4.23843E-003	-4.09694E-003	5.35433E-004	...........
	18	4.90833	-4.29513E-003	-4.43596E-003	5.36866E-004	...........
EOC	QUANT	-0.0042951	Open Circuit (V)
PSTATMODEL	IQUANT	4	Pstat Model
PSTATSECTION	LABEL	REF600-11020	Pstat Section
PSTATSERIALNO	LABEL	11020	Pstat Serial Number
CTRLMODE	IQUANT	1	Control Mode
IESTAB	IQUANT	0	I/E Stability
CASPEED	IQUANT	1	Control Amp Speed
CONVENTION	IQUANT	1	Current Convention
ICHRANGE	IQUANT	2	Ich Range
ICHRANGEMODE	TOGGLE	F	Ich Auto Range
ICHOFFSETENABLE	TOGGLE	T	Ich Offset Enable
ICHOFFSET	QUANT	0	Ich Offset (V)
ICHFILTER	IQUANT	3	Ich Filter
VCHRANGE	IQUANT	2	Vch Range
VCHRANGEMODE	TOGGLE	F	Vch Auto Range
VCHOFFSETENABLE	TOGGLE	T	Vch Offset Enable
VCHOFFSET	QUANT	0	Vch Offset (V)
VCHFILTER	IQUANT	3	Vch Filter
ACHRANGE	IQUANT	2	Ach Range
ACHOFFSETENABLE	TOGGLE	F	Ach Offset Enable
ACHOFFSET	QUANT	0	Ach Offset (V)
ACHFILTER	IQUANT	3	Ach Filter
IERANGELOWERLIMIT	IQUANT	1	I/E Range Lower Limit
IERANGEMODE	TOGGLE	F	I/E AutoRange
IERANGE	IQUANT	4	I/E Range
POSFEEDENABLE	TOGGLE	F	Positive Feedback IR Comp
POSFEEDRESISTANCE	QUANT	0	Positive Feedback Resistance (ohm)
ACHSELECT	IQUANT	0	Ach Select
CABLEID	IQUANT	14	Cable ID
DCCALDATE	LABEL	8/19/2019	DC Calibration Date
ACCALDATE	LABEL	8/19/2019	AC Calibration Date
THERMOSELECT	IQUANT	1	Thermo Select
FRAMEWORKVERSION	QUANT	6.33	Framework Version
INSTRUMENTVERSION	LABEL	3.50	Instrument Version
ZCURVE	TABLE
	Pt	Time	Freq	Zreal	Zimag	Zsig	Zmod	Zphz	Idc	Vdc	IERange
	#	s	Hz	ohm	ohm	V	ohm	°	A	V	#
	0	1	1000078	1004.222	-7815.375	1	7879.628	-82.67801	6.716017E-006	-0.002948	8
	1	2	794390.6	1101.497	-9694.72	1	9757.09	-83.51795	-1.545932E-006	-0.0026306	8
	2	2	630984.4	1173.542	-12211.3	1	12267.56	-84.51057	-1.860593E-007	-0.0019386	8
	3	3	501234.4	1740.407	-15217.86	1	15317.06	-83.47565	-5.497703E-007	-0.0028979	8
	4	3	398109.4	1959.217	-19174.57	1	19274.4	-84.16589	6.144171E-006	-0.0037647	8
	5	4	316265.6	2834.519	-23358.54	1	23529.89	-83.08109	6.027664E-006	-0.003781	8
	6	5	251203.1	3509.801	-28749.04	1	28962.49	-83.03954	-3.804691E-008	-0.0029813	8
	7	5	199546.9	4490.873	-35334.02	1	35618.27	-82.75668	2.23794E-008	-0.0029931	8
	8	6	158578.1	7259.596	-44526.6	1	45114.52	-80.74	-5.225307E-007	-0.0029846	8
	9	6	125953.1	7209.579	-54756.92	1	55229.51	-82.49928	-1.743907E-006	-0.0037072	7
	10	7	100078.1	10207.79	-66267.52	1	67049.11	-81.24304	2.683682E-007	-0.0045716	7
	11	7	79453.13	15075.62	-81867.39	1	83243.88	-79.56606	3.232816E-007	-0.0018926	7
	12	8	63140.62	19699.67	-100159.3	1	102078.2	-78.8729	-1.359664E-006	-0.0008914	7
	13	8	50203.12	19102.43	-123336.6	1	124807.1	-81.19595	1.269927E-006	-0.0047851	7
	14	8	39890.62	26149.28	-149686.8	1	151953.7	-80.09081	1.176116E-006	-0.0034312	7
	15	9	31640.63	31849.4	-176584	1	179433.2	-79.77582	1.059391E-006	-0.0049597	7
	16	9	25171.88	37307.88	-218751.1	1	221909.7	-80.32136	2.724653E-007	-0.0045792	7
	17	10	20015.62	32807.32	-278373.2	1	280299.7	-83.27848	1.183895E-006	-0.0034366	7
	18	10	15890.62	80054.83	-352478.5	1	361455.3	-77.20407	7.193383E-007	-0.0049044	7
	19	11	12609.37	72953.23	-417491.2	1	423817.3	-80.0881	-2.620378E-007	0.0017765	6
	20	12	10078.13	68605.59	-557186.5	1	561394.3	-82.98058	7.94779E-008	-0.0009683	6
	21	12	8015.625	164350.6	-738101.1	1	756177.4	-77.44692	-9.903817E-008	0.0010316	6
	22	12	6328.125	121703.8	-755915	1	765649.6	-80.85376	-3.052256E-007	0.0013964	6
	23	13	5015.625	272233.6	-962971	1	1000712	-74.2143	2.625023E-007	-0.0047311	6
	24	13	3984.375	494571.1	-1288371	1	1380036	-68.99954	-1.118155E-008	0.0001727	6
	25	14	3170.956	157356.1	-1390069	1	1398947	-83.5416	-1.051661E-007	0.0010486	6
	26	14	2527.573	575214.8	-1510557	1	1616370	-69.15334	-1.024163E-007	0.0010447	6
	27	15	1976.103	171045.6	-2343577	1	2349810	-85.82568	-1.351034E-007	-0.0039733	6
	28	15	1577.524	121106.6	-2959243	1	2961721	-87.65649	-4.738009E-008	-0.00524	6
	29	16	1265.625	1065520	-2974550	1	3159633	-70.29185	-8.732514E-010	-0.0056926	5
	30	16	998.264	1638932	-3808809	1	4146459	-66.71777	-1.227859E-010	-0.0056991	5
	31	17	796.875	1846364	-4099133	1	4495771	-65.75186	2.774046E-008	-0.0061141	5
	32	17	627.7902	3050368	-5106066	1	5947828	-59.14587	-2.489423E-008	-0.0016909	5
	33	18	505.5147	3801121	-7725045	1	8609579	-63.80043	-3.122094E-007	0.0004557	6
	34	18	397.9953	5739390	-5491325	1	7943252	-43.73465	4.964948E-010	-0.0028031	5
	35	19	315.5048	6557916	-5664786	1	8665799	-40.82074	8.23721E-010	-0.002793	6
	36	19	252.4038	8105659	-5921390	1	1.003816E+007	-36.14908	2.48054E-010	-0.0028036	6
	37	20	198.6229	1.134876E+007	-5672671	1	1.268753E+007	-26.55816	4.753929E-011	-0.0027977	5
	38	20	158.3615	9164251	-5950080	1	1.092643E+007	-32.99448	-6.049376E-010	-0.0028037	5
	39	21	125.558	1.041612E+007	-6011489	1	1.202637E+007	-29.99066	3.20655E-010	-0.0028023	5
	40	21	100.4464	7748715	-3059166	1	8330731	-21.54394	-7.703679E-010	-0.0027927	5
	41	22	79.00281	4553348	-6597342	1	8016103	-55.38737	7.244167E-010	-0.0027931	6
	42	23	63.3446	3220578	-828085.9	1	3325334	-14.41973	-4.963219E-010	-0.002798	6
	43	23	49.86702	9.888043E+006	-4621428	1	1.091471E+007	-25.05023	1.312524E-010	-0.0028057	5
	44	24	39.72458	1.318116E+007	482653.9	1	1.318999E+007	2.09706	1.423865E-010	-0.002808	5
	45	25	31.6723	1.319236E+007	-4.38203E+007	1	4.576305E+007	-73.24527	8.644476E-010	-0.0027955	5
	46	25	24.93351	1.509045E+007	-4298327	1	1.569067E+007	-15.89895	1.989316E-010	-0.0027935	5
	47	26	19.86229	1.933545E+007	2441145	1	1.948894E+007	7.195654	4.634728E-010	-0.0027996	5
	48	27	15.83615	6930234	-587971.8	1	6955131	-4.849449	1.336904E-009	-0.0028041	5
	49	27	12.40079	8400583	9.707802E+006	1	1.283788E+007	49.12894	1.855915E-009	-0.0028019	6
	50	28	9.93114	1.412084E+007	-1212855	1	1.417283E+007	-4.909151	2.455349E-010	-0.0028022	5
	51	29	7.944915	1.754711E+007	-7348273	1	1.902363E+007	-22.72266	-2.556165E-010	-0.0027986	5
	52	30	6.317385	1.581767E+007	-1610390	1	1.589943E+007	-5.813229	8.966976E-011	-0.0028091	5
	53	32	5.008013	1.627198E+007	-1989454	1	1.639314E+007	-6.970537	6.101831E-011	-0.0027967	5
	54	33	3.945707	1.709677E+007	-3808023	1	1.751573E+007	-12.55672	2.550096E-010	-0.00281	5
	55	35	3.158693	1.664377E+007	-1706210	1	1.6731E+007	-5.853141	1.20999E-010	-0.0028003	5
	56	38	2.504006	4.733921E+007	-5321159	1	4.763734E+007	-6.413405	-7.592587E-011	-0.0027982	3
	57	40	1.998082	4.806944E+007	-5502614	1	4.838336E+007	-6.530348	-7.913797E-011	-0.0028217	3
	58	43	1.584686	5.031372E+007	-5998525	1	5.067004E+007	-6.798851	-7.974067E-011	-0.0027756	3
	59	46	1.266892	4.943557E+007	-5857798	1	4.978141E+007	-6.757672	-7.62833E-011	-0.0027703	3
	60	48	0.999041	5.066589E+007	-6341630	1	5.106122E+007	-7.134363	-7.745275E-011	-0.0027884	3
