EXPLAIN
TAG	EISPOT
TITLE	LABEL	Potentiostatic EIS	Test &Identifier
DATE	LABEL	11/22/2019	Date
TIME	LABEL	10:33:21	Time
NOTES	NOTES	4	&Notes...
	
	
	
	
PSTAT	PSTAT	REF600-11020	Potentiostat
VDC	POTEN	0.00000E+000	T	DC &Voltage (V)
FREQINIT	QUANT	1.00000E+006	Initial Fre&q. (Hz)
FREQFINAL	QUANT	1.00000E+000	Final Fre&q. (Hz)
PTSPERDEC	QUANT	1.00000E+001	Points/&decade
VAC	QUANT	2.50000E+001	AC &Voltage (mV rms)
AREA	QUANT	1.00000E-002	&Area (cm^2)
CONDIT	TWOPARAM	T	5.00000E+000	0.00000E+000	Conditionin&g	Time(s)	E(V)
DELAY	TWOPARAM	T	5.00000E+000	0.00000E+000	Init. De&lay	Time(s)	Stab.(mV/s)
SPEED	SELECTOR	0	&Optimize for:
ZGUESS	QUANT	1.00000E+005	E&stimated Z (ohms)
OCVCURVE	TABLE	19
	Pt	T	Vf	Vm	Ach	Over
	#	s	V vs. Ref.	V	V	bits
	0	0.258333	6.20766E-002	6.20766E-002	5.56866E-004	...........
	1	0.516667	6.21402E-002	6.54080E-002	5.55333E-004	...........
	2	0.775	6.25274E-002	6.83787E-002	5.53799E-004	...........
	3	1.03333	6.36079E-002	7.10698E-002	5.55766E-004	...........
	4	1.29167	6.55022E-002	7.35174E-002	5.54433E-004	...........
	5	1.55	6.79515E-002	7.57717E-002	5.54733E-004	...........
	6	1.80833	7.05725E-002	7.78574E-002	5.58066E-004	...........
	7	2.06667	7.31030E-002	7.97991E-002	5.59132E-004	...........
	8	2.325	7.54417E-002	8.16141E-002	5.56466E-004	...........
	9	2.58333	7.75841E-002	8.33205E-002	5.60132E-004	...........
	10	2.84167	7.95591E-002	8.49305E-002	5.53799E-004	...........
	11	3.1	8.13969E-002	8.64584E-002	5.56699E-004	...........
	12	3.35833	8.31203E-002	8.79065E-002	5.60666E-004	...........
	13	3.61667	8.47453E-002	8.92834E-002	5.59332E-004	...........
	14	3.875	8.62832E-002	9.06032E-002	5.59332E-004	...........
	15	4.13333	8.77431E-002	9.18677E-002	5.62066E-004	...........
	16	4.39167	8.91333E-002	9.30859E-002	5.54966E-004	...........
	17	4.65	9.04615E-002	9.42508E-002	5.59832E-004	...........
	18	4.90833	9.17339E-002	9.53766E-002	5.58499E-004	...........
EOC	QUANT	0.0917339	Open Circuit (V)
PSTATMODEL	IQUANT	4	Pstat Model
PSTATSECTION	LABEL	REF600-11020	Pstat Section
PSTATSERIALNO	LABEL	11020	Pstat Serial Number
CTRLMODE	IQUANT	1	Control Mode
IESTAB	IQUANT	0	I/E Stability
CASPEED	IQUANT	1	Control Amp Speed
CONVENTION	IQUANT	1	Current Convention
ICHRANGE	IQUANT	2	Ich Range
ICHRANGEMODE	TOGGLE	F	Ich Auto Range
ICHOFFSETENABLE	TOGGLE	T	Ich Offset Enable
ICHOFFSET	QUANT	0	Ich Offset (V)
ICHFILTER	IQUANT	3	Ich Filter
VCHRANGE	IQUANT	2	Vch Range
VCHRANGEMODE	TOGGLE	F	Vch Auto Range
VCHOFFSETENABLE	TOGGLE	T	Vch Offset Enable
VCHOFFSET	QUANT	0	Vch Offset (V)
VCHFILTER	IQUANT	3	Vch Filter
ACHRANGE	IQUANT	2	Ach Range
ACHOFFSETENABLE	TOGGLE	F	Ach Offset Enable
ACHOFFSET	QUANT	0	Ach Offset (V)
ACHFILTER	IQUANT	3	Ach Filter
IERANGELOWERLIMIT	IQUANT	1	I/E Range Lower Limit
IERANGEMODE	TOGGLE	F	I/E AutoRange
IERANGE	IQUANT	6	I/E Range
POSFEEDENABLE	TOGGLE	F	Positive Feedback IR Comp
POSFEEDRESISTANCE	QUANT	0	Positive Feedback Resistance (ohm)
ACHSELECT	IQUANT	0	Ach Select
CABLEID	IQUANT	14	Cable ID
DCCALDATE	LABEL	8/19/2019	DC Calibration Date
ACCALDATE	LABEL	8/19/2019	AC Calibration Date
THERMOSELECT	IQUANT	1	Thermo Select
FRAMEWORKVERSION	QUANT	6.33	Framework Version
INSTRUMENTVERSION	LABEL	3.50	Instrument Version
ZCURVE	TABLE
	Pt	Time	Freq	Zreal	Zimag	Zsig	Zmod	Zphz	Idc	Vdc	IERange
	#	s	Hz	ohm	ohm	V	ohm	°	A	V	#
	0	1	1000078	2281.896	-2266.855	1	3216.47	-44.81055	9.249374E-006	0.0928506	8
	1	1	794390.6	2719.11	-2347.867	1	3592.498	-40.8096	1.903584E-006	0.093557	8
	2	2	630984.4	3187.505	-2389.854	1	3983.916	-36.86098	1.726085E-006	0.0938136	8
	3	2	501234.4	3673.077	-2338.766	1	4354.46	-32.48621	-1.230893E-006	0.0938458	8
	4	2	398109.4	4093.74	-2233.563	1	4663.422	-28.61709	-2.165285E-006	0.0934638	8
	5	3	316265.6	4490.842	-2101.253	1	4958.117	-25.07477	4.163523E-006	0.0932259	8
	6	3	251203.1	4857.804	-1922.936	1	5224.552	-21.59587	3.815736E-006	0.0932209	8
	7	3	199546.9	5115.409	-1762.846	1	5410.641	-19.01471	5.810255E-006	0.0925405	8
	8	4	158578.1	5362.28	-1541.058	1	5579.328	-16.03405	5.882854E-006	0.0921422	8
	9	4	125953.1	5590.558	-1286.134	1	5736.591	-12.95574	-1.921375E-006	0.092777	7
	10	4	100078.1	5759.586	-1157.205	1	5874.688	-11.3605	1.212996E-006	0.0919779	7
	11	5	79453.13	5881.167	-1035.54	1	5971.638	-9.98612	1.199755E-006	0.0916073	7
	12	5	63140.62	5981.148	-936.6636	1	6054.046	-8.900381	1.08295E-006	0.0913441	7
	13	5	50203.12	6024.661	-858.8986	1	6085.577	-8.113631	-1.002933E-006	0.0950734	7
	14	6	39890.62	6097.256	-798.8291	1	6149.363	-7.464066	-1.346337E-006	0.0944017	7
	15	6	31640.63	6168.965	-762.4219	1	6215.9	-7.045454	-1.348297E-006	0.0944024	7
	16	7	25171.88	6272.428	-756.5246	1	6317.886	-6.877288	6.636569E-007	0.0934592	7
	17	7	20015.62	6319.47	-743.5732	1	6363.065	-6.710787	-3.446212E-007	0.0922722	7
	18	8	15890.62	6394.591	-777.3755	1	6441.669	-6.931303	4.103239E-007	0.0938264	7
	19	8	12609.37	6471.484	-812.3619	1	6522.273	-7.154883	9.12747E-007	0.0929776	7
	20	8	10078.13	6491.076	-870	1	6549.12	-7.633868	-1.357215E-006	0.0948011	7
	21	9	8015.625	6548.633	-947.0316	1	6616.756	-8.228789	-1.356201E-006	0.0947977	7
	22	9	6328.125	6672.426	-1067.105	1	6757.217	-9.08623	6.627848E-007	0.0934599	7
	23	10	5015.625	6762.947	-1206.68	1	6869.755	-10.11655	1.082262E-006	0.091333	7
	24	10	3984.375	6840.049	-1377.707	1	6977.417	-11.38801	-8.097893E-007	0.0930271	7
	25	10	3170.956	6903.079	-1596.272	1	7085.237	-13.02026	-6.999118E-007	0.0949784	7
	26	11	2527.573	7020.732	-1863.559	1	7263.851	-14.86559	4.090643E-007	0.0938221	7
	27	11	1976.103	7110.199	-2210.398	1	7445.857	-17.26927	-1.347388E-006	0.0943879	7
	28	12	1577.524	7176.875	-2536.948	1	7612.071	-19.46795	-1.216158E-006	0.0949891	7
	29	12	1265.625	7383.649	-3110.567	1	8012.11	-22.84461	-1.000073E-006	0.0950584	7
	30	12	998.264	7584.744	-3765.415	1	8467.979	-26.40191	4.151214E-007	0.0938161	7
	31	13	796.875	7753.606	-4498.2	1	8963.939	-30.11986	-9.98023E-007	0.0950574	7
	32	13	627.7902	8001.402	-5452.977	1	9682.84	-34.27453	-1.355059E-006	0.0947982	7
	33	13	505.5147	8301.646	-6567.671	1	10585.44	-38.34853	1.117932E-006	0.0924256	7
	34	14	397.9953	8634.749	-7985.883	1	11761.51	-42.76432	-5.541562E-009	0.0932342	7
	35	14	315.5048	9042.007	-9700.81	1	13261.36	-47.0131	-5.008649E-009	0.0931771	6
	36	14	252.4038	9504.27	-11719.78	1	15089.22	-50.95933	-3.87888E-009	0.0931686	6
	37	14	198.6229	10104.77	-14373.91	1	17570.3	-54.893	-4.216038E-009	0.093167	6
	38	15	158.3615	10802.96	-17465.82	1	20536.77	-58.26237	-3.702144E-009	0.0931624	6
	39	15	125.558	11684.82	-21349.36	1	24337.83	-61.30747	-3.892929E-009	0.0931728	6
	40	15	100.4464	12757.12	-25896.4	1	28868.11	-63.77415	-2.81055E-009	0.0931619	6
	41	16	79.00281	14169.11	-31903.58	1	34908.48	-66.0529	-4.095233E-009	0.0931657	6
	42	16	63.3446	16445.86	-38858.21	1	42195.1	-67.06058	-4.596133E-009	0.0931652	6
	43	16	49.86702	18827.37	-47751.68	1	51329.26	-68.48184	-3.694921E-009	0.0931559	6
	44	17	39.72458	21777.68	-57858.79	1	61821.57	-69.37399	-4.102199E-009	0.0931674	6
	45	17	31.6723	25760.46	-70010.23	1	74599.16	-69.79877	-4.060481E-009	0.0931564	6
	46	17	24.93351	31812.78	-85817.79	1	91524.56	-69.66019	-4.175849E-009	0.0931527	6
	47	18	19.86229	39210.93	-103116.9	1	110320.4	-69.18034	-4.857971E-009	0.0931736	5
	48	18	15.83615	50345.03	-124282.9	1	134092.7	-67.94791	-2.172954E-009	0.093175	5
	49	18	12.40079	64117.46	-149272.7	1	162460.4	-66.75491	-5.03564E-009	0.093182	5
	50	19	9.93114	78825.02	-175818.1	1	192679.5	-65.85175	-3.455347E-009	0.0931732	5
	51	19	7.944915	99431.1	-205659.1	1	228434.3	-64.19738	-3.425143E-009	0.0931693	5
	52	20	6.317385	125955	-238805.9	1	269986.9	-62.19119	-3.595207E-009	0.0931679	5
	53	21	5.008013	158692.9	-275279.8	1	317745.8	-60.03748	-3.864593E-009	0.0931629	5
	54	22	3.945707	198340.9	-314331.8	1	371676.8	-57.7484	-3.609844E-009	0.093172	5
	55	23	3.158693	241376.9	-353779.7	1	428279	-55.69506	-3.835988E-009	0.0931743	5
	56	25	2.504006	291546.8	-395562.4	1	491395.1	-53.60816	-3.734176E-009	0.0931625	5
	57	26	1.998082	346161.7	-437523	1	557901.8	-51.64948	-3.412115E-009	0.0932027	5
	58	28	1.584686	405776.6	-483262.4	1	631028.7	-49.98113	-3.364394E-009	0.0931804	5
	59	30	1.266892	469666.6	-528946.3	1	707369	-48.39721	-3.338817E-009	0.0931387	5
	60	32	0.999041	543922.8	-582452.5	1	796933.4	-46.95914	-3.303837E-009	0.0931123	5
