EXPLAIN
TAG	EISPOT
TITLE	LABEL	Potentiostatic EIS	Test &Identifier
DATE	LABEL	10/26/2019	Date
TIME	LABEL	10:44:41	Time
NOTES	NOTES	1	&Notes...
	
PSTAT	PSTAT	REF600-11020	Potentiostat
VDC	POTEN	0.00000E+000	T	DC &Voltage (V)
FREQINIT	QUANT	1.00000E+006	Initial Fre&q. (Hz)
FREQFINAL	QUANT	1.00000E+000	Final Fre&q. (Hz)
PTSPERDEC	QUANT	1.00000E+001	Points/&decade
VAC	QUANT	2.50000E+001	AC &Voltage (mV rms)
AREA	QUANT	1.00000E-002	&Area (cm^2)
CONDIT	TWOPARAM	T	5.00000E+000	0.00000E+000	Conditionin&g	Time(s)	E(V)
DELAY	TWOPARAM	T	5.00000E+000	0.00000E+000	Init. De&lay	Time(s)	Stab.(mV/s)
SPEED	SELECTOR	0	&Optimize for:
ZGUESS	QUANT	1.00000E+005	E&stimated Z (ohms)
OCVCURVE	TABLE	19
	Pt	T	Vf	Vm	Ach	Over
	#	s	V vs. Ref.	V	V	bits
	0	0.258333	4.59098E-003	4.59098E-003	5.83365E-004	...........
	1	0.516667	4.58947E-003	4.51186E-003	5.90399E-004	...........
	2	0.775	4.58040E-003	4.44809E-003	5.83965E-004	...........
	3	1.03333	4.55552E-003	4.38981E-003	5.79199E-004	...........
	4	1.29167	4.51446E-003	4.42963E-003	5.71766E-004	...........
	5	1.55	4.46919E-003	4.37929E-003	5.87499E-004	...........
	6	1.80833	4.43424E-003	4.45037E-003	5.95632E-004	...........
	7	2.06667	4.41796E-003	4.50100E-003	5.76799E-004	...........
	8	2.325	4.42307E-003	4.49408E-003	5.74799E-004	...........
	9	2.58333	4.44416E-003	4.48513E-003	5.94699E-004	...........
	10	2.84167	4.46716E-003	4.46115E-003	5.82265E-004	...........
	11	3.1	4.47887E-003	4.42088E-003	5.79032E-004	...........
	12	3.35833	4.47469E-003	4.41559E-003	5.77299E-004	...........
	13	3.61667	4.45848E-003	4.40648E-003	5.93599E-004	...........
	14	3.875	4.43823E-003	4.38717E-003	5.87732E-004	...........
	15	4.13333	4.41965E-003	4.36900E-003	5.73599E-004	...........
	16	4.39167	4.40339E-003	4.36141E-003	5.89199E-004	...........
	17	4.65	4.38832E-003	4.34651E-003	5.97498E-004	...........
	18	4.90833	4.37418E-003	4.33795E-003	5.78566E-004	...........
EOC	QUANT	0.0043742	Open Circuit (V)
PSTATMODEL	IQUANT	4	Pstat Model
PSTATSECTION	LABEL	REF600-11020	Pstat Section
PSTATSERIALNO	LABEL	11020	Pstat Serial Number
CTRLMODE	IQUANT	1	Control Mode
IESTAB	IQUANT	0	I/E Stability
CASPEED	IQUANT	1	Control Amp Speed
CONVENTION	IQUANT	1	Current Convention
ICHRANGE	IQUANT	2	Ich Range
ICHRANGEMODE	TOGGLE	F	Ich Auto Range
ICHOFFSETENABLE	TOGGLE	T	Ich Offset Enable
ICHOFFSET	QUANT	0	Ich Offset (V)
ICHFILTER	IQUANT	3	Ich Filter
VCHRANGE	IQUANT	2	Vch Range
VCHRANGEMODE	TOGGLE	F	Vch Auto Range
VCHOFFSETENABLE	TOGGLE	T	Vch Offset Enable
VCHOFFSET	QUANT	0	Vch Offset (V)
VCHFILTER	IQUANT	3	Vch Filter
ACHRANGE	IQUANT	2	Ach Range
ACHOFFSETENABLE	TOGGLE	F	Ach Offset Enable
ACHOFFSET	QUANT	0	Ach Offset (V)
ACHFILTER	IQUANT	3	Ach Filter
IERANGELOWERLIMIT	IQUANT	1	I/E Range Lower Limit
IERANGEMODE	TOGGLE	F	I/E AutoRange
IERANGE	IQUANT	4	I/E Range
POSFEEDENABLE	TOGGLE	F	Positive Feedback IR Comp
POSFEEDRESISTANCE	QUANT	0	Positive Feedback Resistance (ohm)
ACHSELECT	IQUANT	0	Ach Select
CABLEID	IQUANT	14	Cable ID
DCCALDATE	LABEL	8/19/2019	DC Calibration Date
ACCALDATE	LABEL	8/19/2019	AC Calibration Date
THERMOSELECT	IQUANT	1	Thermo Select
FRAMEWORKVERSION	QUANT	6.33	Framework Version
INSTRUMENTVERSION	LABEL	3.50	Instrument Version
ZCURVE	TABLE
	Pt	Time	Freq	Zreal	Zimag	Zsig	Zmod	Zphz	Idc	Vdc	IERange
	#	s	Hz	ohm	ohm	V	ohm	°	A	V	#
	0	1	1000078	2367.55	-1488.088	1	2796.373	-32.15079	-6.896899E-008	0.0063543	8
	1	2	794390.6	2633.416	-1411.836	1	2988.002	-28.19681	-3.170683E-006	0.0067333	8
	2	2	630984.4	2875.961	-1326.069	1	3166.956	-24.75383	7.922458E-007	0.0060236	8
	3	2	501234.4	3081.882	-1215.854	1	3313.049	-21.53007	-1.092722E-006	0.0062524	8
	4	3	398109.4	3263.102	-1097.802	1	3442.819	-18.59444	1.643174E-007	0.0058968	8
	5	3	316265.6	3410.846	-990.484	1	3551.75	-16.1929	-9.129861E-007	0.0061561	8
	6	3	251203.1	3548.281	-891.9471	1	3658.67	-14.11034	-4.867994E-007	0.0058752	8
	7	4	199546.9	3653.706	-786.1867	1	3737.333	-12.14347	-3.000267E-006	0.0063541	8
	8	4	158578.1	3732.596	-712.9846	1	3800.082	-10.81413	2.804923E-006	0.0053457	8
	9	4	125953.1	3837.806	-590.5196	1	3882.972	-8.747443	-3.82909E-008	0.0054746	7
	10	4	100078.1	3885.745	-534.6693	1	3922.357	-7.834566	8.869161E-009	0.0057337	7
	11	5	79453.13	3938.07	-494.484	1	3968.993	-7.156893	-2.62106E-008	0.0057907	7
	12	5	63140.62	3986.533	-463.9394	1	4013.438	-6.638031	-3.085567E-009	0.0057888	7
	13	5	50203.12	4030.238	-440.3495	1	4054.223	-6.235484	4.933719E-008	0.0057092	7
	14	6	39890.62	4070.869	-427.7814	1	4093.284	-5.998827	9.848763E-008	0.0056404	7
	15	6	31640.63	4108.477	-423.8778	1	4130.285	-5.890451	-1.039596E-008	0.0057559	7
	16	6	25171.88	4145.705	-430.1522	1	4167.961	-5.923728	4.982629E-008	0.0057011	7
	17	7	20015.62	4178.728	-445.4019	1	4202.398	-6.084066	-4.713531E-008	0.0058466	7
	18	7	15890.62	4216.419	-474.5146	1	4243.036	-6.421033	3.865601E-008	0.0056678	7
	19	7	12609.37	4252.828	-514.1913	1	4283.8	-6.893926	-7.917516E-009	0.0058273	7
	20	8	10078.13	4287.628	-570.1277	1	4325.367	-7.574211	-4.75776E-008	0.0058456	7
	21	8	8015.625	4320.117	-643.8493	1	4367.831	-8.476693	-1.58295E-008	0.0058136	7
	22	8	6328.125	4363.097	-743.352	1	4425.968	-9.66879	9.857826E-008	0.0056379	7
	23	9	5015.625	4403.978	-867.1624	1	4488.54	-11.13929	-2.737171E-008	0.0057802	7
	24	9	3984.375	4454.397	-1020.776	1	4569.862	-12.90712	-3.254582E-008	0.0057857	7
	25	9	3170.956	4503.404	-1215.481	1	4664.552	-15.10438	-2.73399E-009	0.0057746	7
	26	10	2527.573	4562.26	-1450.338	1	4787.243	-17.63541	-5.295261E-009	0.0057585	7
	27	10	1976.103	4635.623	-1770.179	1	4962.109	-20.90007	3.178166E-008	0.005742	7
	28	10	1577.524	4720.167	-2139.723	1	5182.509	-24.3855	5.065769E-008	0.005695	7
	29	11	1265.625	4811.168	-2564.738	1	5452.084	-28.06118	5.576525E-009	0.0058599	7
	30	11	998.264	4932.827	-3139.489	1	5847.15	-32.47464	-4.834939E-008	0.0058417	7
	31	11	796.875	5070.287	-3812.297	1	6343.612	-36.93914	-6.096847E-008	0.0058575	7
	32	11	627.7902	5249.264	-4686.41	1	7036.847	-41.75767	-6.040522E-008	0.0059542	7
	33	12	505.5147	5452.657	-5664.794	1	7862.656	-46.09316	-6.171515E-008	0.0059561	7
	34	12	397.9953	5739.841	-6982.097	1	9038.554	-50.57706	1.528703E-009	0.0058024	7
	35	12	315.5048	6097.866	-8560.948	1	10510.65	-54.53816	-5.873487E-010	0.0057424	6
	36	13	252.4038	6536.837	-10414.84	1	12296.3	-57.8857	-1.4719E-010	0.0057365	6
	37	13	198.6229	7150.832	-12845.05	1	14701.35	-60.89534	2.358986E-010	0.0057391	6
	38	13	158.3615	7905.9	-15650.28	1	17533.81	-63.1989	-2.833945E-010	0.0057422	6
	39	14	125.558	8940.431	-19129.32	1	21115.45	-64.95013	1.1714E-010	0.0057408	6
	40	14	100.4464	10284.48	-23147.66	1	25329.52	-66.04446	1.201367E-009	0.005736	6
	41	14	79.00281	12212.25	-28392.7	1	30907.67	-66.72652	-3.809621E-010	0.0057325	6
	42	15	63.3446	13989.02	-33937.1	1	36707.21	-67.59834	-3.262138E-010	0.0057315	6
	43	15	49.86702	17428.24	-41118.17	1	44659.24	-67.02998	4.290376E-010	0.0057288	6
	44	15	39.72458	21727.57	-49316.52	1	53890.7	-66.22296	7.425575E-010	0.005736	6
	45	16	31.6723	27145.93	-58476.35	1	64470.03	-65.0983	1.573269E-009	0.0057309	6
	46	16	24.93351	33913.05	-69043.94	1	76923.08	-63.84062	-4.00337E-010	0.0057276	6
	47	16	19.86229	41829.25	-80401.21	1	90631.34	-62.514	-2.470052E-010	0.0057315	6
	48	17	15.83615	51533.2	-94147.46	1	107328.5	-61.30516	1.500587E-009	0.0057331	5
	49	17	12.40079	64399.75	-107158.3	1	125020.9	-58.99508	1.761674E-009	0.0057316	5
	50	17	9.93114	76408.45	-121698.9	1	143697.2	-57.87741	-9.727326E-010	0.0057342	5
	51	18	7.944915	90732.27	-137059.9	1	164370.8	-56.49584	-1.394847E-009	0.005738	5
	52	19	6.317385	107153	-154898.3	1	188348.7	-55.32592	-8.406731E-010	0.0057489	5
	53	19	5.008013	125182.4	-175112.4	1	215255.6	-54.44019	-5.510417E-010	0.0057302	5
	54	20	3.945707	144934.3	-198291.8	1	245612.7	-53.8364	6.366931E-011	0.0057281	5
	55	22	3.158693	164751.5	-223427.6	1	277602.1	-53.59561	9.671416E-011	0.00575	5
	56	23	2.504006	187719.9	-254378.3	1	316144.1	-53.57432	-2.373936E-010	0.0057414	5
	57	25	1.998082	211048	-289395.4	1	358177.3	-53.89777	-9.683044E-011	0.0057337	5
	58	26	1.584686	239043.8	-331871.6	1	408999.6	-54.23517	1.125952E-010	0.0057795	5
	59	28	1.266892	268258.3	-381790.2	1	466611.5	-54.90686	1.041478E-010	0.0057672	5
	60	31	0.999041	302610.9	-443869.2	1	537208.8	-55.71552	9.78733E-011	0.0057481	5
