EXPLAIN
TAG	EISPOT
TITLE	LABEL	Potentiostatic EIS	Test &Identifier
DATE	LABEL	11/7/2019	Date
TIME	LABEL	10:35:42	Time
NOTES	NOTES	2	&Notes...
	
	
PSTAT	PSTAT	REF600-11020	Potentiostat
VDC	POTEN	0.00000E+000	T	DC &Voltage (V)
FREQINIT	QUANT	1.00000E+006	Initial Fre&q. (Hz)
FREQFINAL	QUANT	1.00000E+000	Final Fre&q. (Hz)
PTSPERDEC	QUANT	1.00000E+001	Points/&decade
VAC	QUANT	2.50000E+001	AC &Voltage (mV rms)
AREA	QUANT	1.00000E-002	&Area (cm^2)
CONDIT	TWOPARAM	T	5.00000E+000	0.00000E+000	Conditionin&g	Time(s)	E(V)
DELAY	TWOPARAM	T	5.00000E+000	0.00000E+000	Init. De&lay	Time(s)	Stab.(mV/s)
SPEED	SELECTOR	1	&Optimize for:
ZGUESS	QUANT	1.00000E+005	E&stimated Z (ohms)
OCVCURVE	TABLE	19
	Pt	T	Vf	Vm	Ach	Over
	#	s	V vs. Ref.	V	V	bits
	0	0.258333	3.08017E-003	3.08017E-003	5.79232E-004	...........
	1	0.516667	3.07451E-003	2.78363E-003	5.82565E-004	...........
	2	0.775	3.04049E-003	2.54307E-003	5.85832E-004	...........
	3	1.03333	2.94738E-003	2.34026E-003	5.78799E-004	...........
	4	1.29167	2.78855E-003	2.16805E-003	5.75465E-004	...........
	5	1.55	2.59065E-003	2.01233E-003	5.72499E-004	...........
	6	1.80833	2.38828E-003	1.87233E-003	5.80399E-004	...........
	7	2.06667	2.20227E-003	1.75152E-003	5.80232E-004	...........
	8	2.325	2.03834E-003	1.63176E-003	5.83332E-004	...........
	9	2.58333	1.89417E-003	1.52509E-003	5.87232E-004	...........
	10	2.84167	1.76506E-003	1.42090E-003	5.84432E-004	...........
	11	3.1	1.64681E-003	1.32253E-003	5.79266E-004	...........
	12	3.35833	1.53663E-003	1.23443E-003	5.77432E-004	...........
	13	3.61667	1.43314E-003	1.14817E-003	5.72599E-004	...........
	14	3.875	1.33579E-003	1.06388E-003	5.71532E-004	...........
	15	4.13333	1.24382E-003	9.78089E-004	5.77232E-004	...........
	16	4.39167	1.15594E-003	9.04872E-004	5.74466E-004	...........
	17	4.65	1.07126E-003	8.27117E-004	5.75999E-004	...........
	18	4.90833	9.89418E-004	7.42046E-004	5.78032E-004	...........
EOC	QUANT	0.0009894	Open Circuit (V)
PSTATMODEL	IQUANT	4	Pstat Model
PSTATSECTION	LABEL	REF600-11020	Pstat Section
PSTATSERIALNO	LABEL	11020	Pstat Serial Number
CTRLMODE	IQUANT	1	Control Mode
IESTAB	IQUANT	0	I/E Stability
CASPEED	IQUANT	1	Control Amp Speed
CONVENTION	IQUANT	1	Current Convention
ICHRANGE	IQUANT	2	Ich Range
ICHRANGEMODE	TOGGLE	F	Ich Auto Range
ICHOFFSETENABLE	TOGGLE	T	Ich Offset Enable
ICHOFFSET	QUANT	0	Ich Offset (V)
ICHFILTER	IQUANT	3	Ich Filter
VCHRANGE	IQUANT	2	Vch Range
VCHRANGEMODE	TOGGLE	F	Vch Auto Range
VCHOFFSETENABLE	TOGGLE	T	Vch Offset Enable
VCHOFFSET	QUANT	0	Vch Offset (V)
VCHFILTER	IQUANT	3	Vch Filter
ACHRANGE	IQUANT	2	Ach Range
ACHOFFSETENABLE	TOGGLE	F	Ach Offset Enable
ACHOFFSET	QUANT	0	Ach Offset (V)
ACHFILTER	IQUANT	3	Ach Filter
IERANGELOWERLIMIT	IQUANT	1	I/E Range Lower Limit
IERANGEMODE	TOGGLE	F	I/E AutoRange
IERANGE	IQUANT	4	I/E Range
POSFEEDENABLE	TOGGLE	F	Positive Feedback IR Comp
POSFEEDRESISTANCE	QUANT	0	Positive Feedback Resistance (ohm)
ACHSELECT	IQUANT	0	Ach Select
CABLEID	IQUANT	14	Cable ID
DCCALDATE	LABEL	8/19/2019	DC Calibration Date
ACCALDATE	LABEL	8/19/2019	AC Calibration Date
THERMOSELECT	IQUANT	1	Thermo Select
FRAMEWORKVERSION	QUANT	6.33	Framework Version
INSTRUMENTVERSION	LABEL	3.50	Instrument Version
ZCURVE	TABLE
	Pt	Time	Freq	Zreal	Zimag	Zsig	Zmod	Zphz	Idc	Vdc	IERange
	#	s	Hz	ohm	ohm	V	ohm	°	A	V	#
	0	1	1000078	2077.18	-1463.94	1	2541.219	-35.17514	5.247274E-006	0.0024489	8
	1	3	794390.6	2336.21	-1491.213	1	2771.569	-32.55026	-2.860422E-006	0.0025288	8
	2	4	630984.4	2630.44	-1459.109	1	3008.025	-29.0172	8.617753E-006	0.0018025	8
	3	6	501234.4	2881.114	-1402.196	1	3204.211	-25.95152	-1.653569E-006	0.0032517	8
	4	7	398109.4	3121.97	-1321.365	1	3390.088	-22.94037	-4.176155E-006	0.0032819	8
	5	9	316265.6	3345.63	-1205.829	1	3556.3	-19.82013	8.267588E-006	0.001696	8
	6	10	251203.1	3512.884	-1112.229	1	3684.753	-17.56852	-6.278238E-007	0.0022487	8
	7	11	199546.9	3666.237	-998.558	1	3799.791	-15.23585	-2.848124E-006	0.0024711	8
	8	13	158578.1	3821.551	-873.6308	1	3920.138	-12.8769	-7.351165E-007	0.0022299	8
	9	15	125953.1	3954.234	-752.4427	1	4025.187	-10.77389	2.436104E-006	0.002404	7
	10	16	100078.1	3981.135	-634.3698	1	4031.359	-9.053623	-1.218456E-006	0.0031498	7
	11	17	79453.13	4072.353	-598.6177	1	4116.115	-8.362336	-1.219164E-006	0.0031436	7
	12	19	63140.62	4136.627	-558.9303	1	4174.217	-7.695053	-3.101009E-007	0.0040602	7
	13	20	50203.12	4189.075	-521.0936	1	4221.361	-7.090796	-1.01528E-006	0.004447	7
	14	21	39890.62	4244.354	-501.0828	1	4273.83	-6.733098	1.046478E-007	0.0035918	7
	15	23	31640.63	4299.843	-489.3333	1	4327.597	-6.492476	1.274268E-006	0.0011659	7
	16	24	25171.88	4324.218	-484.7657	1	4351.306	-6.396427	-1.254287E-006	0.0043868	7
	17	26	20015.62	4371.675	-495.496	1	4399.666	-6.466443	-1.251917E-006	0.0043839	7
	18	27	15890.62	4440.489	-518.3025	1	4470.636	-6.657549	7.299253E-007	0.0026997	7
	19	28	12609.37	4478.717	-545.1072	1	4511.768	-6.939372	-1.253364E-006	0.0043877	7
	20	30	10078.13	4556.36	-562.5004	1	4590.951	-7.037777	9.814829E-007	0.0022131	7
	21	31	8015.625	4609.438	-628.7241	1	4652.119	-7.767171	1.24778E-006	0.000792	7
	22	32	6328.125	4677.603	-683.3145	1	4727.249	-8.311107	9.779543E-007	0.0022057	7
	23	34	5015.625	4728.986	-749.3752	1	4787.993	-9.00446	-1.017314E-006	0.0044432	7
	24	35	3984.375	4793.163	-837.0946	1	4865.71	-9.90642	1.07206E-007	0.0009522	7
	25	37	3170.956	4861.006	-926.6888	1	4948.549	-10.7932	-1.253378E-006	0.0043822	7
	26	38	2527.573	4934.138	-1052.175	1	5045.076	-12.03767	-3.101642E-007	0.004045	7
	27	39	1976.103	5018.527	-1225.436	1	5165.976	-13.7221	9.772417E-007	0.0022112	7
	28	41	1577.524	5062.494	-1348.623	1	5239.048	-14.91688	-3.096664E-007	0.0040446	7
	29	42	1265.625	5145.551	-1663.337	1	5407.716	-17.91381	1.250531E-006	0.000791	7
	30	44	998.264	5225.485	-1995.39	1	5593.503	-20.89973	1.276574E-006	0.0011562	7
	31	45	796.875	5301.644	-2393.688	1	5816.972	-24.29914	1.277703E-006	0.0011596	7
	32	46	627.7902	5397.853	-2908.641	1	6131.64	-28.31808	4.721781E-007	0.003088	7
	33	48	505.5147	5506.226	-3499.985	1	6524.448	-32.44173	1.275078E-006	0.0011583	7
	34	49	397.9953	5643.297	-4288.901	1	7088.123	-37.23481	8.092612E-009	0.0025244	7
	35	51	315.5048	5813.495	-5259.763	1	7839.759	-42.13724	7.123415E-009	0.0025209	7
	36	52	252.4038	6019.516	-6408.537	1	8792.265	-46.79288	3.155626E-009	0.0025246	7
	37	53	198.6229	6307.449	-7930.824	1	10133.21	-51.50448	2.575248E-010	0.0024685	6
	38	55	158.3615	6649.53	-9706.03	1	11765.34	-55.58523	-1.682497E-010	0.0024662	6
	39	56	125.558	7107.174	-11927.7	1	13884.6	-59.21121	3.831641E-010	0.0024559	6
	40	58	100.4464	7679.791	-14516.84	1	16423.09	-62.11998	2.477009E-010	0.002461	6
	41	59	79.00281	8475.346	-17958	1	19857.52	-64.73486	1.425301E-009	0.0024582	6
	42	60	63.3446	9342.658	-21953	1	23858.32	-66.94659	3.982811E-010	0.0024519	6
	43	62	49.86702	10469.19	-26676.68	1	28657.44	-68.5726	1.702636E-009	0.0024493	6
	44	63	39.72458	12059.96	-32558.86	1	34720.62	-69.67512	-4.680441E-011	0.0024663	6
	45	65	31.6723	13893.03	-39502.56	1	41874.44	-70.62325	-2.771901E-010	0.0024618	6
	46	66	24.93351	16446.51	-48433.98	1	51150.16	-71.24429	1.594738E-010	0.0024647	6
	47	67	19.86229	19476.11	-58742.78	1	61887.26	-71.65711	1.115065E-009	0.0024575	6
	48	69	15.83615	22809.81	-71539.96	1	75088.3	-72.31563	-2.171586E-009	0.00245	6
	49	70	12.40079	28524.19	-86940.39	1	91500.06	-71.8359	-6.896197E-011	0.002464	6
	50	72	9.93114	34346.02	-104484.1	1	109984.4	-71.80327	1.099267E-009	0.0024557	5
	51	73	7.944915	41447.09	-125346.8	1	132021.6	-71.70306	1.074048E-009	0.002466	5
	52	75	6.317385	52081.98	-150639.7	1	159389	-70.92775	2.151782E-011	0.0024646	5
	53	77	5.008013	64968.14	-181265.7	1	192556.7	-70.28162	2.4095E-010	0.0024774	5
	54	79	3.945707	81377.53	-217943.9	1	232641	-69.52499	3.965621E-010	0.0024782	5
	55	82	3.158693	100824.1	-258139.5	1	277130.8	-68.66539	5.545226E-011	0.0024618	5
	56	85	2.504006	125752.5	-306370.6	1	331174.6	-67.68387	5.790373E-010	0.0024658	5
	57	88	1.998082	155187	-360112.1	1	392127.2	-66.68681	2.575513E-010	0.0025051	5
	58	91	1.584686	191249.4	-422472.3	1	463744.7	-65.64417	2.434825E-010	0.0024449	5
	59	95	1.266892	232905.1	-493843.8	1	546009.6	-64.75064	2.567965E-010	0.0024972	5
	60	99	0.999041	286066.3	-579545.9	1	646302.9	-63.72886	-7.58578E-012	0.0024307	5
