EXPLAIN
TAG	EISPOT
TITLE	LABEL	Potentiostatic IDE	Test &Identifier
DATE	LABEL	9/6/2019	Date
TIME	LABEL	6:58:57	Time
NOTES	NOTES	1	&Notes...
	
PSTAT	PSTAT	REF600-11020	Potentiostat
VDC	POTEN	0.00000E+000	T	DC &Voltage (V)
FREQINIT	QUANT	1.00000E+006	Initial Fre&q. (Hz)
FREQFINAL	QUANT	1.00000E+000	Final Fre&q. (Hz)
PTSPERDEC	QUANT	1.00000E+001	Points/&decade
VAC	QUANT	2.50000E+001	AC &Voltage (mV rms)
AREA	QUANT	1.00000E-002	&Area (cm^2)
CONDIT	TWOPARAM	T	5.00000E+000	0.00000E+000	Conditionin&g	Time(s)	E(V)
DELAY	TWOPARAM	T	5.00000E+000	0.00000E+000	Init. De&lay	Time(s)	Stab.(mV/s)
SPEED	SELECTOR	1	&Optimize for:
ZGUESS	QUANT	1.00000E+007	E&stimated Z (ohms)
OCVCURVE	TABLE	19
	Pt	T	Vf	Vm	Ach	Over
	#	s	V vs. Ref.	V	V	bits
	0	0.258333	7.80999E-003	7.80999E-003	5.61132E-004	...........
	1	0.516667	7.80847E-003	7.73059E-003	5.63932E-004	...........
	2	0.775	7.80001E-003	7.69983E-003	5.64066E-004	...........
	3	1.03333	7.77928E-003	7.69088E-003	5.64699E-004	...........
	4	1.29167	7.74955E-003	7.69092E-003	5.61332E-004	...........
	5	1.55	7.72119E-003	7.68577E-003	5.61599E-004	...........
	6	1.80833	7.70218E-003	7.71385E-003	5.62932E-004	...........
	7	2.06667	7.69586E-003	7.77870E-003	5.63966E-004	...........
	8	2.325	7.70426E-003	7.78482E-003	5.68632E-004	...........
	9	2.58333	7.72626E-003	7.81845E-003	5.66666E-004	...........
	10	2.84167	7.75553E-003	7.84295E-003	5.65299E-004	...........
	11	3.1	7.78540E-003	7.85748E-003	5.67599E-004	...........
	12	3.35833	7.81284E-003	7.89017E-003	5.67132E-004	...........
	13	3.61667	7.83782E-003	7.91055E-003	5.62599E-004	...........
	14	3.875	7.86252E-003	7.97929E-003	5.58766E-004	...........
	15	4.13333	7.89156E-003	8.04903E-003	5.61766E-004	...........
	16	4.39167	7.93014E-003	8.09476E-003	5.59466E-004	...........
	17	4.65	7.98156E-003	8.27447E-003	5.61166E-004	...........
	18	4.90833	8.04608E-003	8.17961E-003	5.66499E-004	...........
EOC	QUANT	0.0080461	Open Circuit (V)
PSTATMODEL	IQUANT	4	Pstat Model
PSTATSECTION	LABEL	REF600-11020	Pstat Section
PSTATSERIALNO	LABEL	11020	Pstat Serial Number
CTRLMODE	IQUANT	1	Control Mode
IESTAB	IQUANT	0	I/E Stability
CASPEED	IQUANT	1	Control Amp Speed
CONVENTION	IQUANT	1	Current Convention
ICHRANGE	IQUANT	2	Ich Range
ICHRANGEMODE	TOGGLE	F	Ich Auto Range
ICHOFFSETENABLE	TOGGLE	T	Ich Offset Enable
ICHOFFSET	QUANT	0	Ich Offset (V)
ICHFILTER	IQUANT	3	Ich Filter
VCHRANGE	IQUANT	2	Vch Range
VCHRANGEMODE	TOGGLE	F	Vch Auto Range
VCHOFFSETENABLE	TOGGLE	T	Vch Offset Enable
VCHOFFSET	QUANT	0	Vch Offset (V)
VCHFILTER	IQUANT	3	Vch Filter
ACHRANGE	IQUANT	2	Ach Range
ACHOFFSETENABLE	TOGGLE	F	Ach Offset Enable
ACHOFFSET	QUANT	0	Ach Offset (V)
ACHFILTER	IQUANT	3	Ach Filter
IERANGELOWERLIMIT	IQUANT	1	I/E Range Lower Limit
IERANGEMODE	TOGGLE	F	I/E AutoRange
IERANGE	IQUANT	3	I/E Range
POSFEEDENABLE	TOGGLE	F	Positive Feedback IR Comp
POSFEEDRESISTANCE	QUANT	0	Positive Feedback Resistance (ohm)
ACHSELECT	IQUANT	0	Ach Select
CABLEID	IQUANT	14	Cable ID
DCCALDATE	LABEL	8/19/2019	DC Calibration Date
ACCALDATE	LABEL	8/19/2019	AC Calibration Date
THERMOSELECT	IQUANT	1	Thermo Select
FRAMEWORKVERSION	QUANT	6.33	Framework Version
INSTRUMENTVERSION	LABEL	3.50	Instrument Version
ZCURVE	TABLE
	Pt	Time	Freq	Zreal	Zimag	Zsig	Zmod	Zphz	Idc	Vdc	IERange
	#	s	Hz	ohm	ohm	V	ohm	°	A	V	#
	0	2	1000078	2442.389	-1337.187	1	2784.481	-28.70032	2.516703E-006	0.0098423	8
	1	3	794390.6	2672.514	-1217.476	1	2936.763	-24.49186	-1.855425E-006	0.0102568	8
	2	5	630984.4	2863.164	-1069.094	1	3056.251	-20.47542	-3.47443E-007	0.0100453	8
	3	6	501234.4	3001.658	-928.5094	1	3141.987	-17.18852	-3.042222E-006	0.0104326	8
	4	7	398109.4	3119.37	-790.9789	1	3218.092	-14.2286	1.439332E-006	0.0094633	8
	5	9	316265.6	3185.417	-692.2525	1	3259.769	-12.26083	3.246284E-006	0.0090917	8
	6	10	251203.1	3246.085	-600.9582	1	3301.245	-10.4886	3.173505E-006	0.0090796	8
	7	11	199546.9	3301.249	-524.6483	1	3342.679	-9.030164	-2.802634E-006	0.0102588	8
	8	13	158578.1	3338.929	-465.0026	1	3371.153	-7.928416	1.373528E-006	0.0093103	8
	9	14	125953.1	3390.966	-408.2495	1	3415.452	-6.864987	2.310838E-007	0.0091097	7
	10	15	100078.1	3416.685	-380.8999	1	3437.851	-6.3612	-2.760613E-008	0.009648	7
	11	17	79453.13	3446.747	-373.0923	1	3466.88	-6.177915	-2.688256E-008	0.0096295	7
	12	18	63140.62	3478.329	-373.6192	1	3498.337	-6.13083	-3.261927E-008	0.0096714	7
	13	19	50203.12	3511.735	-383.0192	1	3532.561	-6.224552	-2.262889E-008	0.0096792	7
	14	21	39890.62	3545.367	-399.707	1	3567.828	-6.432402	-1.316585E-009	0.0096218	7
	15	22	31640.63	3583.847	-426.4526	1	3609.13	-6.785887	-1.436057E-008	0.0095974	7
	16	23	25171.88	3622.459	-462.8354	1	3651.907	-7.281134	3.46586E-008	0.0096096	7
	17	25	20015.62	3663.865	-508.907	1	3699.04	-7.907727	-2.213037E-008	0.0096683	7
	18	26	15890.62	3714.198	-565.8344	1	3757.051	-8.662046	-1.32104E-008	0.0095928	7
	19	27	12609.37	3768.445	-638.0981	1	3822.087	-9.61055	-1.294473E-008	0.0095939	7
	20	29	10078.13	3824.71	-719.8231	1	3891.857	-10.65858	4.946223E-008	0.0095127	7
	21	30	8015.625	3890.761	-819.6159	1	3976.153	-11.89583	7.804577E-008	0.0094881	7
	22	31	6328.125	3966.959	-948.8403	1	4078.855	-13.45162	3.281303E-008	0.0095072	7
	23	33	5015.625	4051.068	-1095.445	1	4196.564	-15.13142	1.316037E-008	0.0095857	7
	24	34	3984.375	4144.858	-1266.106	1	4333.921	-16.98604	-5.09056E-009	0.0096263	7
	25	35	3170.956	4253.522	-1474.777	1	4501.935	-19.1224	5.252823E-008	0.0095193	7
	26	37	2527.573	4367.799	-1715.711	1	4692.689	-21.44535	-3.562441E-008	0.0096366	7
	27	38	1976.103	4515.263	-2031.739	1	4951.319	-24.22639	-2.039264E-008	0.009664	7
	28	39	1577.524	4666.195	-2377.432	1	5236.942	-26.9989	5.006071E-008	0.0095145	7
	29	41	1265.625	4834.064	-2786.855	1	5579.851	-29.9636	-3.155198E-008	0.0096591	7
	30	42	998.264	5045.233	-3308.516	1	6033.295	-33.25569	-2.175723E-008	0.0096179	7
	31	43	796.875	5268.231	-3903.326	1	6556.692	-36.5354	-9.313793E-009	0.009639	7
	32	45	627.7902	5537.493	-4667.562	1	7242.234	-40.12759	1.816974E-008	0.0095941	7
	33	46	505.5147	5818.647	-5504.688	1	8009.884	-43.41179	-1.692421E-008	0.0096845	7
	34	47	397.9953	6185.692	-6621.505	1	9061.298	-46.94895	4.705889E-009	0.0096192	7
	35	49	315.5048	6595.627	-7943.099	1	10324.49	-50.29514	1.017539E-009	0.0095543	6
	36	50	252.4038	7052.325	-9484.473	1	11819.07	-53.36679	8.824191E-010	0.009554	6
	37	51	198.6229	7632.098	-11497.92	1	13800.4	-56.42457	6.668148E-010	0.0095587	6
	38	53	158.3615	8289.011	-13820.89	1	16115.98	-59.04699	8.348277E-010	0.0095478	6
	39	54	125.558	9085.451	-16711.36	1	19021.44	-61.46844	9.528436E-010	0.0095525	6
	40	56	100.4464	10017.26	-20067.1	1	22428.42	-63.47216	4.774002E-010	0.0095492	6
	41	57	79.00281	11243.31	-24484.79	1	26942.85	-65.33562	9.963009E-010	0.0095446	6
	42	58	63.3446	12631.39	-29293.38	1	31900.69	-66.67416	4.460705E-010	0.0095395	6
	43	60	49.86702	14342.01	-35899.17	1	38658.04	-68.22289	7.517358E-010	0.0095414	6
	44	61	39.72458	16421.68	-43273.8	1	46284.91	-69.21909	6.150013E-010	0.0095484	6
	45	62	31.6723	18923.4	-52291.39	1	55610.12	-70.10564	8.830012E-010	0.0095432	6
	46	64	24.93351	22132.98	-63808.86	1	67538.43	-70.87019	5.142065E-010	0.0095444	6
	47	65	19.86229	25905.58	-77116.39	1	81351.32	-71.43134	1.099065E-009	0.0095553	6
	48	66	15.83615	30986.17	-93145.98	1	98164.7	-71.59965	1.492045E-009	0.0095434	6
	49	68	12.40079	37074.94	-113980.2	1	119858.4	-71.98158	-8.930526E-011	0.0095582	5
	50	69	9.93114	44492.74	-137499.3	1	144518.7	-72.06918	1.865327E-010	0.0095528	5
	51	71	7.944915	53880.81	-165202.3	1	173766.9	-71.93623	3.335288E-010	0.0095473	5
	52	72	6.317385	66225.79	-199337.2	1	210050.4	-71.62196	4.183904E-010	0.0095425	5
	53	74	5.008013	82238.5	-240736	1	254395.4	-71.13918	1.485592E-011	0.0095467	5
	54	77	3.945707	103272.5	-290879.5	1	308668.2	-70.45334	3.340264E-010	0.0095594	5
	55	79	3.158693	128712	-346391.7	1	369532.1	-69.61597	5.115755E-011	0.0095541	5
	56	83	2.504006	161754.3	-413220.6	1	443751.9	-68.62225	2.419253E-010	0.0095357	5
	57	85	1.998082	200919.7	-488035.4	1	527775.8	-67.62348	-8.101559E-011	0.0095596	5
	58	89	1.584686	252957.6	-576834.8	1	629861.9	-66.32126	1.498706E-010	0.0096021	5
	59	92	1.266892	311110.8	-673633.3	1	742005.3	-65.21062	-1.213866E-010	0.0095478	5
	60	97	0.999041	387004.2	-788199.3	1	878083.3	-63.84906	2.917996E-010	0.0095522	5
