EXPLAIN
TAG	EISPOT
TITLE	LABEL	Potentiostatic EIS	Test &Identifier
DATE	LABEL	8/16/2017	Date
TIME	LABEL	17:05:38	Time
NOTES	NOTES	1	&Notes...
	
PSTAT	PSTAT	REF600-11020	Potentiostat
VDC	POTEN	0.00000E+000	T	DC &Voltage (V)
FREQINIT	QUANT	1.00000E+006	Initial Fre&q. (Hz)
FREQFINAL	QUANT	1.00000E+000	Final Fre&q. (Hz)
PTSPERDEC	QUANT	1.00000E+001	Points/&decade
VAC	QUANT	2.50000E+001	AC &Voltage (mV rms)
AREA	QUANT	1.00000E-002	&Area (cm^2)
CONDIT	TWOPARAM	T	5.00000E+000	0.00000E+000	Conditionin&g	Time(s)	E(V)
DELAY	TWOPARAM	T	5.00000E+000	0.00000E+000	Init. De&lay	Time(s)	Stab.(mV/s)
SPEED	SELECTOR	0	&Optimize for:
ZGUESS	QUANT	1.00000E+005	E&stimated Z (ohms)
OCVCURVE	TABLE	19
	Pt	T	Vf	Vm	Ach	Over
	#	s	V vs. Ref.	V	V	bits
	0	0.258333	6.31790E-003	6.31790E-003	5.65932E-004	...........
	1	0.516667	6.31921E-003	6.38684E-003	5.63232E-004	...........
	2	0.775	6.32725E-003	6.44934E-003	5.71399E-004	...........
	3	1.03333	6.34985E-003	6.51246E-003	5.62199E-004	...........
	4	1.29167	6.39019E-003	6.57224E-003	5.60566E-004	...........
	5	1.55	6.44402E-003	6.63557E-003	5.61732E-004	...........
	6	1.80833	6.50461E-003	6.69882E-003	5.64199E-004	...........
	7	2.06667	6.56745E-003	6.76415E-003	5.62832E-004	...........
	8	2.325	6.63086E-003	6.82632E-003	5.66199E-004	...........
	9	2.58333	6.69448E-003	6.88988E-003	5.63866E-004	...........
	10	2.84167	6.75819E-003	6.95778E-003	5.61366E-004	...........
	11	3.1	6.82216E-003	7.02234E-003	5.63366E-004	...........
	12	3.35833	6.88675E-003	7.08951E-003	5.67466E-004	...........
	13	3.61667	6.95220E-003	7.16367E-003	5.68132E-004	...........
	14	3.875	7.01953E-003	7.26475E-003	5.62632E-004	...........
	15	4.13333	7.09120E-003	7.34434E-003	5.62332E-004	...........
	16	4.39167	7.16897E-003	7.42304E-003	5.60599E-004	...........
	17	4.65	7.25106E-003	7.49642E-003	5.63766E-004	...........
	18	4.90833	7.33335E-003	7.56725E-003	5.62032E-004	...........
EOC	QUANT	0.0073334	Open Circuit (V)
PSTATMODEL	IQUANT	4	Pstat Model
PSTATSECTION	LABEL	REF600-11020	Pstat Section
PSTATSERIALNO	LABEL	11020	Pstat Serial Number
CTRLMODE	IQUANT	1	Control Mode
IESTAB	IQUANT	0	I/E Stability
CASPEED	IQUANT	1	Control Amp Speed
CONVENTION	IQUANT	1	Current Convention
ICHRANGE	IQUANT	2	Ich Range
ICHRANGEMODE	TOGGLE	F	Ich Auto Range
ICHOFFSETENABLE	TOGGLE	T	Ich Offset Enable
ICHOFFSET	QUANT	0	Ich Offset (V)
ICHFILTER	IQUANT	3	Ich Filter
VCHRANGE	IQUANT	2	Vch Range
VCHRANGEMODE	TOGGLE	F	Vch Auto Range
VCHOFFSETENABLE	TOGGLE	T	Vch Offset Enable
VCHOFFSET	QUANT	0	Vch Offset (V)
VCHFILTER	IQUANT	3	Vch Filter
ACHRANGE	IQUANT	2	Ach Range
ACHOFFSETENABLE	TOGGLE	F	Ach Offset Enable
ACHOFFSET	QUANT	0	Ach Offset (V)
ACHFILTER	IQUANT	3	Ach Filter
IERANGELOWERLIMIT	IQUANT	1	I/E Range Lower Limit
IERANGEMODE	TOGGLE	F	I/E AutoRange
IERANGE	IQUANT	5	I/E Range
POSFEEDENABLE	TOGGLE	F	Positive Feedback IR Comp
POSFEEDRESISTANCE	QUANT	0	Positive Feedback Resistance (ohm)
ACHSELECT	IQUANT	0	Ach Select
CABLEID	IQUANT	14	Cable ID
DCCALDATE	LABEL	8/19/2019	DC Calibration Date
ACCALDATE	LABEL	8/19/2019	AC Calibration Date
THERMOSELECT	IQUANT	1	Thermo Select
FRAMEWORKVERSION	QUANT	6.33	Framework Version
INSTRUMENTVERSION	LABEL	3.50	Instrument Version
ZCURVE	TABLE
	Pt	Time	Freq	Zreal	Zimag	Zsig	Zmod	Zphz	Idc	Vdc	IERange
	#	s	Hz	ohm	ohm	V	ohm	°	A	V	#
	0	1	1000078	1990.545	-1456.792	1	2466.68	-36.19875	5.35415E-007	0.0087303	8
	1	1	794390.6	2234.265	-1467.043	1	2672.855	-33.28934	1.525101E-005	0.0073784	8
	2	2	630984.4	2485.429	-1459.113	1	2882.077	-30.41579	-1.507313E-006	0.0097042	8
	3	2	501234.4	2730.711	-1448.91	1	3091.298	-27.95033	7.967189E-006	0.0087359	8
	4	2	398109.4	2966.2	-1418.395	1	3287.885	-25.55647	-1.09436E-006	0.0083259	8
	5	3	316265.6	3199.254	-1390.942	1	3488.545	-23.498	-2.245143E-006	0.0095575	8
	6	3	251203.1	3412.501	-1354.229	1	3671.389	-21.64533	1.195698E-005	0.0074365	8
	7	3	199546.9	3642.073	-1292.816	1	3864.721	-19.54318	-9.71898E-006	0.0102199	8
	8	4	158578.1	3834.495	-1241.854	1	4030.577	-17.94526	-1.775257E-007	0.0083206	8
	9	4	125953.1	4127.579	-1085.126	1	4267.833	-14.72955	3.821574E-006	0.0079635	7
	10	4	100078.1	4247.243	-982.307	1	4359.358	-13.02246	-1.415561E-006	0.0116419	7
	11	4	79453.13	4403.64	-894.6761	1	4493.605	-11.48433	1.186905E-006	0.0058261	7
	12	5	63140.62	4531.071	-824.9867	1	4605.563	-10.31899	1.144224E-006	0.008937	7
	13	5	50203.12	4611.203	-740.5482	1	4670.289	-9.123661	-1.793911E-006	0.0116051	7
	14	5	39890.62	4708.691	-676.9028	1	4757.097	-8.18057	2.646009E-007	0.0102524	7
	15	6	31640.63	4783.237	-620.3354	1	4823.294	-7.389415	1.50387E-006	0.0081744	7
	16	6	25171.88	4827.763	-576.6072	1	4862.075	-6.810898	1.187233E-006	0.0058074	7
	17	6	20015.62	4874.293	-553.1791	1	4905.583	-6.474744	1.187569E-006	0.0058091	7
	18	7	15890.62	4922.96	-548.7579	1	4953.451	-6.360452	2.634398E-007	0.0102367	7
	19	7	12609.37	4966.626	-556.9596	1	4997.757	-6.398442	1.790256E-006	0.0061952	7
	20	7	10078.13	5011.355	-601.2511	1	5047.295	-6.841516	1.493193E-006	0.0081796	7
	21	8	8015.625	5027.224	-617.9554	1	5065.062	-7.007747	-3.462214E-007	0.0109388	7
	22	8	6328.125	5045.848	-683.9158	1	5091.986	-7.718849	-2.042159E-006	0.0113464	7
	23	8	5015.625	5091.167	-774.7777	1	5149.783	-8.652925	1.809073E-008	0.0066676	7
	24	9	3984.375	5154.858	-901.159	1	5233.034	-9.9161	1.496938E-006	0.0081778	7
	25	9	3170.956	5188.73	-1052.158	1	5294.333	-11.46288	7.856594E-007	0.009492	7
	26	9	2527.573	5231.16	-1246.637	1	5377.651	-13.40413	2.64379E-007	0.0102354	7
	27	10	1976.103	5291.089	-1517.865	1	5504.501	-16.0067	1.765169E-006	0.0073673	7
	28	10	1577.524	5326.447	-1800.723	1	5622.601	-18.67896	1.735469E-008	0.0066622	7
	29	10	1265.625	5400.336	-2181.472	1	5824.298	-21.9963	6.579107E-007	0.0060749	7
	30	11	998.264	5504.877	-2694.231	1	6128.83	-26.07834	1.86555E-006	0.0066798	7
	31	11	796.875	5607.552	-3278.507	1	6495.633	-30.31309	1.765116E-006	0.0073599	7
	32	11	627.7902	5728.41	-4018.912	1	6997.595	-35.05256	6.589519E-007	0.0060803	7
	33	12	505.5147	5891.974	-4905.239	1	7666.598	-39.77836	1.765122E-006	0.0073627	7
	34	12	397.9953	6085.419	-6030.107	1	8567.061	-44.73843	2.086915E-009	0.008802	7
	35	12	315.5048	6341.959	-7418.619	1	9759.94	-49.47384	5.523491E-009	0.0087882	7
	36	13	252.4038	6664.143	-9053.093	1	11241.41	-53.64256	-1.780829E-010	0.0087403	6
	37	13	198.6229	7098.413	-11216.98	1	13274.34	-57.67326	7.502112E-010	0.0087291	6
	38	13	158.3615	7632.813	-13728.23	1	15707.45	-60.9262	2.521753E-010	0.0087201	6
	39	14	125.558	8354.265	-16873.31	1	18828.24	-63.65921	-5.162657E-010	0.0087396	6
	40	14	100.4464	9271.708	-20534.18	1	22530.36	-65.6996	1.394703E-009	0.0087259	6
	41	14	79.00281	10593.64	-25348.13	1	27472.77	-67.3187	-4.335683E-010	0.00873	6
	42	15	63.3446	12058.46	-30964.3	1	33229.42	-68.72252	-2.671442E-010	0.008718	6
	43	15	49.86702	14246.23	-37846.78	1	40439.26	-69.37273	-8.860489E-011	0.0087312	6
	44	15	39.72458	17153.85	-45659.12	1	48775.1	-69.4091	2.376092E-010	0.0087322	6
	45	16	31.6723	20761.58	-54955.17	1	58746.18	-69.30387	9.026498E-010	0.0087258	6
	46	16	24.93351	25604.9	-66753.87	1	71496.09	-69.0146	-5.034244E-010	0.0087352	6
	47	16	19.86229	31678.34	-79926.29	1	85975.16	-68.37938	9.475992E-010	0.0087199	6
	48	17	15.83615	40197.7	-94368.79	1	102573.5	-66.92774	-2.210848E-009	0.0087135	6
	49	17	12.40079	50271.54	-113734.4	1	124349.3	-66.15418	-1.79127E-009	0.0087385	5
	50	17	9.93114	62296.4	-133448.9	1	147273.4	-64.97598	6.286334E-010	0.0087222	5
	51	18	7.944915	77132.95	-155522.5	1	173599.4	-63.62043	2.180394E-010	0.0087421	5
	52	18	6.317385	95679.8	-180465.4	1	204260.6	-62.06819	2.721358E-010	0.0087359	5
	53	19	5.008013	118485.4	-207954.5	1	239340.5	-60.32698	3.350895E-010	0.0087466	5
	54	20	3.945707	145739.9	-238623.3	1	279609	-58.58538	-2.779053E-010	0.0087237	5
	55	22	3.158693	174600.1	-269144	1	320817.2	-57.02757	-2.800716E-010	0.0087151	5
	56	23	2.504006	208455.2	-303690.9	1	368350	-55.53407	1.029885E-010	0.0087187	5
	57	25	1.998082	242484	-339181.7	1	416944.5	-54.43869	-2.378368E-011	0.0087062	5
	58	26	1.584686	282218.4	-381092.3	1	474213.6	-53.47815	-3.768298E-010	0.0086747	5
	59	28	1.266892	318120.9	-428194.7	1	533433.8	-53.39005	-2.030632E-010	0.0086929	5
	60	31	0.999041	359047.5	-486774.5	1	604867.3	-53.58731	-3.62446E-010	0.0087177	5
