EXPLAIN
TAG	EISPOT
TITLE	LABEL	Potentiostatic EIS	Test &Identifier
DATE	LABEL	10/28/2019	Date
TIME	LABEL	10:50:43	Time
NOTES	NOTES	1	&Notes...
	
PSTAT	PSTAT	REF600-11020	Potentiostat
VDC	POTEN	0.00000E+000	T	DC &Voltage (V)
FREQINIT	QUANT	1.00000E+006	Initial Fre&q. (Hz)
FREQFINAL	QUANT	1.00000E+000	Final Fre&q. (Hz)
PTSPERDEC	QUANT	1.00000E+001	Points/&decade
VAC	QUANT	2.50000E+001	AC &Voltage (mV rms)
AREA	QUANT	1.00000E-002	&Area (cm^2)
CONDIT	TWOPARAM	T	5.00000E+000	0.00000E+000	Conditionin&g	Time(s)	E(V)
DELAY	TWOPARAM	T	5.00000E+000	0.00000E+000	Init. De&lay	Time(s)	Stab.(mV/s)
SPEED	SELECTOR	1	&Optimize for:
ZGUESS	QUANT	1.00000E+005	E&stimated Z (ohms)
OCVCURVE	TABLE	19
	Pt	T	Vf	Vm	Ach	Over
	#	s	V vs. Ref.	V	V	bits
	0	0.258333	6.00389E-003	6.00389E-003	5.61932E-004	...........
	1	0.516667	6.00179E-003	5.89384E-003	5.54966E-004	...........
	2	0.775	5.98936E-003	5.81479E-003	5.51366E-004	...........
	3	1.03333	5.95631E-003	5.76503E-003	5.60666E-004	...........
	4	1.29167	5.90279E-003	5.73486E-003	5.55799E-004	...........
	5	1.55	5.84237E-003	5.74062E-003	5.52432E-004	...........
	6	1.80833	5.79113E-003	5.72753E-003	5.52266E-004	...........
	7	2.06667	5.75659E-003	5.69851E-003	5.49866E-004	...........
	8	2.325	5.73489E-003	5.66676E-003	5.53133E-004	...........
	9	2.58333	5.71730E-003	5.67284E-003	5.52866E-004	...........
	10	2.84167	5.69775E-003	5.56265E-003	5.49833E-004	...........
	11	3.1	5.67366E-003	5.64146E-003	5.53699E-004	...........
	12	3.35833	5.65305E-003	5.88953E-003	5.58332E-004	...........
	13	3.61667	5.66089E-003	5.89316E-003	5.55699E-004	...........
	14	3.875	5.71312E-003	5.92534E-003	5.51033E-004	...........
	15	4.13333	5.78981E-003	5.88967E-003	5.51766E-004	...........
	16	4.39167	5.85575E-003	5.93170E-003	5.54833E-004	...........
	17	4.65	5.89333E-003	5.84382E-003	5.52799E-004	...........
	18	4.90833	5.90372E-003	5.85513E-003	5.54199E-004	...........
EOC	QUANT	0.0059037	Open Circuit (V)
PSTATMODEL	IQUANT	4	Pstat Model
PSTATSECTION	LABEL	REF600-11020	Pstat Section
PSTATSERIALNO	LABEL	11020	Pstat Serial Number
CTRLMODE	IQUANT	1	Control Mode
IESTAB	IQUANT	0	I/E Stability
CASPEED	IQUANT	1	Control Amp Speed
CONVENTION	IQUANT	1	Current Convention
ICHRANGE	IQUANT	2	Ich Range
ICHRANGEMODE	TOGGLE	F	Ich Auto Range
ICHOFFSETENABLE	TOGGLE	T	Ich Offset Enable
ICHOFFSET	QUANT	0	Ich Offset (V)
ICHFILTER	IQUANT	3	Ich Filter
VCHRANGE	IQUANT	2	Vch Range
VCHRANGEMODE	TOGGLE	F	Vch Auto Range
VCHOFFSETENABLE	TOGGLE	T	Vch Offset Enable
VCHOFFSET	QUANT	0	Vch Offset (V)
VCHFILTER	IQUANT	3	Vch Filter
ACHRANGE	IQUANT	2	Ach Range
ACHOFFSETENABLE	TOGGLE	F	Ach Offset Enable
ACHOFFSET	QUANT	0	Ach Offset (V)
ACHFILTER	IQUANT	3	Ach Filter
IERANGELOWERLIMIT	IQUANT	1	I/E Range Lower Limit
IERANGEMODE	TOGGLE	F	I/E AutoRange
IERANGE	IQUANT	5	I/E Range
POSFEEDENABLE	TOGGLE	F	Positive Feedback IR Comp
POSFEEDRESISTANCE	QUANT	0	Positive Feedback Resistance (ohm)
ACHSELECT	IQUANT	0	Ach Select
CABLEID	IQUANT	14	Cable ID
DCCALDATE	LABEL	8/19/2019	DC Calibration Date
ACCALDATE	LABEL	8/19/2019	AC Calibration Date
THERMOSELECT	IQUANT	1	Thermo Select
FRAMEWORKVERSION	QUANT	6.33	Framework Version
INSTRUMENTVERSION	LABEL	3.50	Instrument Version
ZCURVE	TABLE
	Pt	Time	Freq	Zreal	Zimag	Zsig	Zmod	Zphz	Idc	Vdc	IERange
	#	s	Hz	ohm	ohm	V	ohm	°	A	V	#
	0	2	1000078	2315.546	-1551.1	1	2787.053	-33.8167	2.760255E-006	0.0075619	8
	1	3	794390.6	2618.652	-1467.765	1	3001.944	-29.2708	-5.392622E-006	0.0087945	8
	2	5	630984.4	2885.627	-1368.721	1	3193.782	-25.37608	1.222949E-006	0.0077353	8
	3	6	501234.4	3121.725	-1230.961	1	3355.657	-21.52035	4.614737E-006	0.0067679	8
	4	7	398109.4	3287.827	-1122.583	1	3474.191	-18.85176	-2.359197E-007	0.0075534	8
	5	9	316265.6	3434.802	-980.998	1	3572.145	-15.93963	-2.529536E-007	0.007647	8
	6	10	251203.1	3542.955	-850.0037	1	3643.492	-13.49106	9.65977E-008	0.0075431	8
	7	12	199546.9	3643.472	-745.1009	1	3718.88	-11.55779	-3.441193E-007	0.0077046	8
	8	13	158578.1	3722.293	-703.2203	1	3788.137	-10.6983	-2.77047E-006	0.0079672	8
	9	15	125953.1	3790.881	-539.5969	1	3829.091	-8.101107	4.604288E-007	0.0064936	7
	10	16	100078.1	3839.578	-492.185	1	3870.995	-7.304753	-5.436133E-008	0.0075694	7
	11	17	79453.13	3883.449	-470.8936	1	3911.895	-6.913735	-2.496671E-008	0.007596	7
	12	19	63140.62	3925.227	-458.1669	1	3951.876	-6.657647	-5.364716E-008	0.0076177	7
	13	20	50203.12	3968.403	-455.3459	1	3994.442	-6.545655	-5.436288E-008	0.0075598	7
	14	22	39890.62	4010.052	-461.7542	1	4036.55	-6.568631	-5.728673E-008	0.0076232	7
	15	23	31640.63	4056.694	-477.8033	1	4084.735	-6.717431	-5.438478E-008	0.0076172	7
	16	24	25171.88	4104.566	-502.7146	1	4135.237	-6.982635	8.786901E-008	0.0073295	7
	17	26	20015.62	4152.715	-535.6047	1	4187.113	-7.349265	-1.945502E-008	0.0075812	7
	18	27	15890.62	4207.562	-586.6362	1	4248.26	-7.937255	8.887071E-008	0.0073244	7
	19	28	12609.37	4266.417	-638.2348	1	4313.891	-8.508073	-4.095094E-009	0.0075544	7
	20	30	10078.13	4317.519	-709.7988	1	4375.475	-9.335899	-4.122674E-008	0.0075351	7
	21	31	8015.625	4387.515	-785.2626	1	4457.233	-10.14717	-2.362037E-009	0.0076445	7
	22	32	6328.125	4460.896	-891.7275	1	4549.151	-11.30435	-2.248199E-008	0.0075816	7
	23	34	5015.625	4533.785	-1016.949	1	4646.438	-12.64245	-5.41535E-008	0.0075472	7
	24	35	3984.375	4613.083	-1171.18	1	4759.432	-14.24541	-4.838082E-008	0.0076012	7
	25	36	3170.956	4687.963	-1356.61	1	4880.306	-16.13947	1.44783E-007	0.0073055	7
	26	38	2527.573	4774.069	-1583.406	1	5029.802	-18.34903	-1.601015E-009	0.0074396	7
	27	39	1976.103	4876.564	-1891.469	1	5230.539	-21.19974	4.197211E-008	0.007464	7
	28	40	1577.524	4965.624	-2261.257	1	5456.253	-24.48368	-2.370717E-008	0.0075858	7
	29	42	1265.625	5102.931	-2647.843	1	5748.998	-27.4242	-5.174379E-008	0.0075753	7
	30	43	998.264	5243.401	-3198.74	1	6142.083	-31.3853	9.068343E-008	0.007323	7
	31	44	796.875	5400.653	-3834.874	1	6623.693	-35.37765	-3.979499E-008	0.0075246	7
	32	46	627.7902	5589.098	-4671.528	1	7284.311	-39.88985	9.507143E-010	0.0076403	7
	33	47	505.5147	5792.831	-5589.826	1	8050.034	-43.97826	4.1723E-008	0.0074587	7
	34	48	397.9953	6055.021	-6850.116	1	9142.612	-48.52558	4.661247E-009	0.0075326	7
	35	50	315.5048	6362.136	-8358.72	1	10504.52	-52.72387	1.235689E-009	0.0074709	6
	36	51	252.4038	6706.876	-10146.46	1	12162.77	-56.53505	6.474286E-010	0.0074714	6
	37	52	198.6229	7172.879	-12517.44	1	14426.94	-60.18596	8.922367E-010	0.0074707	6
	38	54	158.3615	7719.958	-15291.98	1	17130.16	-63.21367	-1.87176E-010	0.0074699	6
	39	55	125.558	8445.002	-18783.93	1	20595	-65.79196	1.157029E-009	0.0074673	6
	40	57	100.4464	9337.204	-22937.38	1	24765.03	-67.85005	3.224393E-012	0.0074606	6
	41	58	79.00281	10689.99	-28273.83	1	30227.23	-69.289	7.57988E-010	0.00746	6
	42	59	63.3446	12129.43	-33954.02	1	36055.49	-70.34168	-2.179981E-011	0.0074604	6
	43	61	49.86702	14617.43	-42687.86	1	45121.2	-71.09747	5.544442E-010	0.0074597	6
	44	62	39.72458	17082.99	-51710.76	1	54459.45	-71.71869	6.589522E-010	0.0074639	6
	45	63	31.6723	21038.84	-62850.66	1	66278.48	-71.49237	-1.958159E-010	0.0074673	6
	46	65	24.93351	26032.03	-76595.38	1	80898.2	-71.22894	2.292429E-010	0.0074584	6
	47	66	19.86229	32444.99	-92121.2	1	97667.8	-70.59779	-3.283837E-010	0.0074644	6
	48	68	15.83615	40654.92	-110107.7	1	117373.4	-69.7344	8.557168E-010	0.0074659	5
	49	69	12.40079	52888.42	-132177.4	1	142365.9	-68.19206	-2.704608E-010	0.0074701	5
	50	71	9.93114	66376.01	-156788.8	1	170260.1	-67.0548	-5.174412E-011	0.0074651	5
	51	72	7.944915	84825.87	-182487.6	1	201239	-65.06954	-4.422823E-010	0.0074635	5
	52	74	6.317385	105618.4	-213423.8	1	238128.1	-63.67029	6.608669E-010	0.0074614	5
	53	76	5.008013	131762.9	-246664.3	1	279651.2	-61.8898	2.510357E-010	0.0074743	5
	54	78	3.945707	162633.9	-284205.8	1	327448.8	-60.2201	-1.073851E-010	0.0074594	5
	55	81	3.158693	194915.8	-322129	1	376509.3	-58.82245	1.990821E-010	0.00747	5
	56	84	2.504006	231940.1	-365932.5	1	433246.8	-57.63213	-8.374133E-011	0.0074722	5
	57	87	1.998082	269522.8	-413111.1	1	493257.8	-56.87868	2.860723E-010	0.0074313	5
	58	90	1.584686	312130.9	-471404.2	1	565373.8	-56.49026	-1.281871E-011	0.0074259	5
	59	94	1.266892	355394.1	-535076.1	1	642348.4	-56.40815	2.306703E-010	0.0074367	5
	60	98	0.999041	406567.8	-618506.1	1	740167	-56.68154	-1.514947E-010	0.0074728	5
