EXPLAIN
TAG	EISPOT
TITLE	LABEL	Potentiostatic EIS	Test &Identifier
DATE	LABEL	10/16/2019	Date
TIME	LABEL	10:20:20	Time
NOTES	NOTES	1	&Notes...
	
PSTAT	PSTAT	REF600-11020	Potentiostat
VDC	POTEN	0.00000E+000	T	DC &Voltage (V)
FREQINIT	QUANT	1.00000E+006	Initial Fre&q. (Hz)
FREQFINAL	QUANT	1.00000E+000	Final Fre&q. (Hz)
PTSPERDEC	QUANT	1.00000E+001	Points/&decade
VAC	QUANT	2.50000E+001	AC &Voltage (mV rms)
AREA	QUANT	1.00000E-002	&Area (cm^2)
CONDIT	TWOPARAM	T	5.00000E+000	0.00000E+000	Conditionin&g	Time(s)	E(V)
DELAY	TWOPARAM	T	5.00000E+000	0.00000E+000	Init. De&lay	Time(s)	Stab.(mV/s)
SPEED	SELECTOR	0	&Optimize for:
ZGUESS	QUANT	1.00000E+005	E&stimated Z (ohms)
OCVCURVE	TABLE	19
	Pt	T	Vf	Vm	Ach	Over
	#	s	V vs. Ref.	V	V	bits
	0	0.258333	6.53572E-003	6.53572E-003	5.38899E-004	...........
	1	0.516667	6.54265E-003	6.89851E-003	5.38099E-004	...........
	2	0.775	6.58169E-003	7.05808E-003	5.38833E-004	...........
	3	1.03333	6.67437E-003	6.89438E-003	5.41866E-004	...........
	4	1.29167	6.79155E-003	6.76048E-003	5.38933E-004	...........
	5	1.55	6.86424E-003	6.58325E-003	5.37099E-004	...........
	6	1.80833	6.85005E-003	6.50440E-003	5.44199E-004	...........
	7	2.06667	6.76556E-003	6.55086E-003	5.35799E-004	...........
	8	2.325	6.66742E-003	6.79200E-003	5.42733E-004	...........
	9	2.58333	6.61485E-003	6.74127E-003	5.42666E-004	...........
	10	2.84167	6.62790E-003	6.76569E-003	5.39499E-004	...........
	11	3.1	6.67835E-003	6.80348E-003	5.40733E-004	...........
	12	3.35833	6.72994E-003	6.84046E-003	5.34866E-004	...........
	13	3.61667	6.77065E-003	6.87350E-003	5.38499E-004	...........
	14	3.875	6.80498E-003	6.91051E-003	5.40499E-004	...........
	15	4.13333	6.83874E-003	6.97456E-003	5.41666E-004	...........
	16	4.39167	6.87610E-003	7.03155E-003	5.35399E-004	...........
	17	4.65	6.91962E-003	7.06674E-003	5.37233E-004	...........
	18	4.90833	6.96883E-003	7.15474E-003	5.38233E-004	...........
EOC	QUANT	0.0069688	Open Circuit (V)
PSTATMODEL	IQUANT	4	Pstat Model
PSTATSECTION	LABEL	REF600-11020	Pstat Section
PSTATSERIALNO	LABEL	11020	Pstat Serial Number
CTRLMODE	IQUANT	1	Control Mode
IESTAB	IQUANT	0	I/E Stability
CASPEED	IQUANT	1	Control Amp Speed
CONVENTION	IQUANT	1	Current Convention
ICHRANGE	IQUANT	2	Ich Range
ICHRANGEMODE	TOGGLE	F	Ich Auto Range
ICHOFFSETENABLE	TOGGLE	T	Ich Offset Enable
ICHOFFSET	QUANT	0	Ich Offset (V)
ICHFILTER	IQUANT	3	Ich Filter
VCHRANGE	IQUANT	2	Vch Range
VCHRANGEMODE	TOGGLE	F	Vch Auto Range
VCHOFFSETENABLE	TOGGLE	T	Vch Offset Enable
VCHOFFSET	QUANT	0	Vch Offset (V)
VCHFILTER	IQUANT	3	Vch Filter
ACHRANGE	IQUANT	2	Ach Range
ACHOFFSETENABLE	TOGGLE	F	Ach Offset Enable
ACHOFFSET	QUANT	0	Ach Offset (V)
ACHFILTER	IQUANT	3	Ach Filter
IERANGELOWERLIMIT	IQUANT	1	I/E Range Lower Limit
IERANGEMODE	TOGGLE	F	I/E AutoRange
IERANGE	IQUANT	5	I/E Range
POSFEEDENABLE	TOGGLE	F	Positive Feedback IR Comp
POSFEEDRESISTANCE	QUANT	0	Positive Feedback Resistance (ohm)
ACHSELECT	IQUANT	0	Ach Select
CABLEID	IQUANT	14	Cable ID
DCCALDATE	LABEL	8/19/2019	DC Calibration Date
ACCALDATE	LABEL	8/19/2019	AC Calibration Date
THERMOSELECT	IQUANT	1	Thermo Select
FRAMEWORKVERSION	QUANT	6.33	Framework Version
INSTRUMENTVERSION	LABEL	3.50	Instrument Version
ZCURVE	TABLE
	Pt	Time	Freq	Zreal	Zimag	Zsig	Zmod	Zphz	Idc	Vdc	IERange
	#	s	Hz	ohm	ohm	V	ohm	°	A	V	#
	0	1	1000078	2415.958	-1231.951	1	2711.928	-27.01806	-5.817869E-006	0.0101464	8
	1	1	794390.6	2628	-1109.151	1	2852.472	-22.88226	4.848388E-007	0.0092911	8
	2	2	630984.4	2796.496	-977.61	1	2962.45	-19.26882	-1.630262E-007	0.0089126	8
	3	2	501234.4	2930.34	-851.9014	1	3051.66	-16.21008	6.217467E-007	0.0087208	8
	4	2	398109.4	3033.632	-735.3627	1	3121.487	-13.62586	3.665686E-006	0.0078515	8
	5	3	316265.6	3103.008	-634.8088	1	3167.277	-11.56195	3.400758E-006	0.0080272	8
	6	3	251203.1	3167.908	-536.8943	1	3213.082	-9.61904	3.400413E-006	0.0080285	8
	7	3	199546.9	3204.367	-486.5546	1	3241.096	-8.633904	3.370384E-006	0.0080406	8
	8	3	158578.1	3231.1	-437.8366	1	3260.63	-7.716973	4.837071E-007	0.0086269	8
	9	4	125953.1	3282.979	-345.695	1	3301.129	-6.011048	-1.98294E-007	0.0096615	7
	10	4	100078.1	3310.319	-315.7316	1	3325.342	-5.448277	3.260208E-008	0.0085423	7
	11	4	79453.13	3333.681	-309.1258	1	3347.983	-5.297776	5.965645E-009	0.0086552	7
	12	5	63140.62	3359.836	-311.1807	1	3374.216	-5.291514	-3.160197E-008	0.0085705	7
	13	5	50203.12	3386.565	-319.9784	1	3401.648	-5.397548	-1.138831E-008	0.0085392	7
	14	5	39890.62	3415.044	-334.9619	1	3431.432	-5.601893	-1.896433E-008	0.0085995	7
	15	6	31640.63	3446.128	-358.8983	1	3464.767	-5.945656	-6.192482E-008	0.0087391	7
	16	6	25171.88	3480.145	-390.4702	1	3501.982	-6.401779	-3.593382E-008	0.0086423	7
	17	6	20015.62	3511.909	-411.4637	1	3535.931	-6.682445	-1.665072E-009	0.0085533	7
	18	7	15890.62	3560.406	-479.8305	1	3592.593	-7.675421	-9.603114E-010	0.0085529	7
	19	7	12609.37	3606.677	-538.2521	1	3646.619	-8.488046	-5.039672E-008	0.0086191	7
	20	7	10078.13	3659.436	-606.8521	1	3709.412	-9.415793	-5.032481E-008	0.0086211	7
	21	8	8015.625	3718.563	-700.6248	1	3783.991	-10.67017	-6.014489E-008	0.0086284	7
	22	8	6328.125	3786.227	-789.687	1	3867.702	-11.78119	-7.826858E-009	0.0085437	7
	23	8	5015.625	3859.716	-905.2602	1	3964.455	-13.19961	-2.509016E-008	0.0085493	7
	24	8	3984.375	3947.294	-1035.593	1	4080.881	-14.70054	-8.017501E-009	0.0085453	7
	25	9	3170.956	4029.955	-1201.049	1	4205.123	-16.59566	-2.510261E-008	0.0085439	7
	26	9	2527.573	4126.206	-1390.539	1	4354.213	-18.62391	-1.804856E-008	0.0085826	7
	27	9	1976.103	4239.078	-1635.988	1	4543.813	-21.10311	8.975431E-009	0.0084866	7
	28	10	1577.524	4341.423	-1898.158	1	4738.244	-23.61592	6.382821E-008	0.0084219	7
	29	10	1265.625	4473.041	-2228.399	1	4997.385	-26.48176	7.792701E-008	0.0084838	7
	30	10	998.264	4617.247	-2647.351	1	5322.353	-29.82829	-4.755587E-008	0.0086151	7
	31	11	796.875	4763.217	-3135.805	1	5702.764	-33.35841	-2.443537E-008	0.0085416	7
	32	11	627.7902	4932.879	-3778.558	1	6213.759	-37.45191	-3.175685E-008	0.008555	7
	33	11	505.5147	5105.235	-4485.857	1	6796.053	-41.30505	-6.350732E-009	0.0085318	7
	34	12	397.9953	5320.302	-5458.518	1	7622.403	-45.73466	1.585689E-009	0.0085702	7
	35	12	315.5048	5565.099	-6632.209	1	8657.744	-49.99993	1.985216E-009	0.0085683	7
	36	12	252.4038	5844.177	-8026.518	1	9928.72	-53.94131	3.083351E-009	0.0085658	7
	37	13	198.6229	6214.176	-9879.28	1	11671.17	-57.82967	1.082832E-009	0.0085048	6
	38	13	158.3615	6651.016	-12047.34	1	13761.33	-61.09808	-2.045857E-010	0.0085029	6
	39	13	125.558	7221.925	-14784.97	1	16454.53	-63.96615	1.399009E-010	0.0084989	6
	40	14	100.4464	7928.484	-18026.58	1	19693.11	-66.25906	-2.566116E-010	0.0085032	6
	41	14	79.00281	8882.821	-22273.04	1	23979.01	-68.25715	-8.846525E-010	0.0085031	6
	42	14	63.3446	10256.84	-26844.65	1	28737.4	-69.08907	-1.052478E-010	0.0085028	6
	43	15	49.86702	12003.14	-33241.52	1	35342.24	-70.1459	-5.570291E-010	0.0085026	6
	44	15	39.72458	14030.23	-40523.34	1	42883.43	-70.90282	8.480388E-010	0.0085056	6
	45	15	31.6723	16794.4	-49154.13	1	51944.01	-71.13634	3.536949E-010	0.0085019	6
	46	16	24.93351	20862.12	-60117.3	1	63634.25	-70.86202	7.092317E-010	0.0084998	6
	47	16	19.86229	25848.49	-72523.09	1	76991.84	-70.38305	2.259642E-009	0.0085036	6
	48	16	15.83615	33314.71	-86715.16	1	92894.5	-68.98395	-2.549682E-009	0.0084978	6
	49	17	12.40079	41442.44	-105544.2	1	113388.9	-68.5623	-2.499354E-010	0.0085017	5
	50	17	9.93114	52140.96	-123292.8	1	133864.8	-67.07632	-4.173217E-010	0.0084989	5
	51	17	7.944915	64935.12	-144397.4	1	158326.2	-65.78668	-8.213428E-010	0.0085128	5
	52	18	6.317385	81061.82	-168595.4	1	187070.6	-64.32143	-5.857199E-010	0.0085195	5
	53	19	5.008013	100854.9	-195895.3	1	220333.1	-62.75874	-2.38296E-010	0.0085108	5
	54	20	3.945707	123370.1	-227174.8	1	258512.2	-61.49527	-3.201622E-010	0.0084986	5
	55	21	3.158693	148287.1	-259214.1	1	298631.9	-60.22767	1.668613E-010	0.0085085	5
	56	23	2.504006	176147.2	-296663.8	1	345017.8	-59.29985	1.006774E-011	0.0085057	5
	57	24	1.998082	206076.1	-338269.1	1	396097.6	-58.6499	-2.072215E-010	0.0084645	5
	58	26	1.584686	238083.2	-386911.2	1	454294.9	-58.39421	-2.558293E-011	0.0084957	5
	59	28	1.266892	274082.8	-442881.3	1	520831.3	-58.24818	1.821159E-011	0.008526	5
	60	30	0.999041	315534.3	-514691.7	1	603713	-58.48942	4.179104E-011	0.008534	5
