EXPLAIN
TAG	EISPOT
TITLE	LABEL	Potentiostatic EIS	Test &Identifier
DATE	LABEL	9/24/2019	Date
TIME	LABEL	9:44:10	Time
NOTES	NOTES	1	&Notes...
	
PSTAT	PSTAT	REF600-11020	Potentiostat
VDC	POTEN	0.00000E+000	T	DC &Voltage (V)
FREQINIT	QUANT	1.00000E+006	Initial Fre&q. (Hz)
FREQFINAL	QUANT	1.00000E+000	Final Fre&q. (Hz)
PTSPERDEC	QUANT	1.00000E+001	Points/&decade
VAC	QUANT	2.50000E+001	AC &Voltage (mV rms)
AREA	QUANT	1.00000E-002	&Area (cm^2)
CONDIT	TWOPARAM	T	5.00000E+000	0.00000E+000	Conditionin&g	Time(s)	E(V)
DELAY	TWOPARAM	T	5.00000E+000	0.00000E+000	Init. De&lay	Time(s)	Stab.(mV/s)
SPEED	SELECTOR	1	&Optimize for:
ZGUESS	QUANT	1.00000E+004	E&stimated Z (ohms)
OCVCURVE	TABLE	19
	Pt	T	Vf	Vm	Ach	Over
	#	s	V vs. Ref.	V	V	bits
	0	0.258333	-3.46252E-003	-3.46252E-003	5.65266E-004	...........
	1	0.516667	-3.47727E-003	-4.23472E-003	5.64299E-004	...........
	2	0.775	-3.56746E-003	-4.94594E-003	5.66932E-004	...........
	3	1.03333	-3.79080E-003	-4.03264E-003	5.65766E-004	...........
	4	1.29167	-4.03143E-003	-1.93293E-003	5.62266E-004	...........
	5	1.55	-4.00377E-003	-2.54640E-003	5.68466E-004	...........
	6	1.80833	-3.62608E-003	-3.85263E-003	5.62832E-004	...........
	7	2.06667	-3.26211E-003	-5.85952E-003	5.66132E-004	...........
	8	2.325	-3.36939E-003	-5.58568E-003	5.64832E-004	...........
	9	2.58333	-4.01466E-003	-6.90553E-003	5.66466E-004	...........
	10	2.84167	-4.92307E-003	-7.82393E-003	5.67566E-004	...........
	11	3.1	-5.85724E-003	-8.17321E-003	5.66299E-004	...........
	12	3.35833	-6.72317E-003	-8.48140E-003	5.70766E-004	...........
	13	3.61667	-7.46430E-003	-9.16418E-003	5.64032E-004	...........
	14	3.875	-8.06944E-003	-9.67792E-003	5.62632E-004	...........
	15	4.13333	-8.59448E-003	-1.00442E-002	5.66066E-004	...........
	16	4.39167	-9.09135E-003	-1.05093E-002	5.65699E-004	...........
	17	4.65	-9.56930E-003	-1.09144E-002	5.67699E-004	...........
	18	4.90833	-1.00234E-002	-1.12806E-002	5.67866E-004	...........
EOC	QUANT	-0.0100234	Open Circuit (V)
PSTATMODEL	IQUANT	4	Pstat Model
PSTATSECTION	LABEL	REF600-11020	Pstat Section
PSTATSERIALNO	LABEL	11020	Pstat Serial Number
CTRLMODE	IQUANT	1	Control Mode
IESTAB	IQUANT	0	I/E Stability
CASPEED	IQUANT	1	Control Amp Speed
CONVENTION	IQUANT	1	Current Convention
ICHRANGE	IQUANT	2	Ich Range
ICHRANGEMODE	TOGGLE	F	Ich Auto Range
ICHOFFSETENABLE	TOGGLE	T	Ich Offset Enable
ICHOFFSET	QUANT	0	Ich Offset (V)
ICHFILTER	IQUANT	3	Ich Filter
VCHRANGE	IQUANT	2	Vch Range
VCHRANGEMODE	TOGGLE	F	Vch Auto Range
VCHOFFSETENABLE	TOGGLE	T	Vch Offset Enable
VCHOFFSET	QUANT	0	Vch Offset (V)
VCHFILTER	IQUANT	3	Vch Filter
ACHRANGE	IQUANT	2	Ach Range
ACHOFFSETENABLE	TOGGLE	F	Ach Offset Enable
ACHOFFSET	QUANT	0	Ach Offset (V)
ACHFILTER	IQUANT	3	Ach Filter
IERANGELOWERLIMIT	IQUANT	1	I/E Range Lower Limit
IERANGEMODE	TOGGLE	F	I/E AutoRange
IERANGE	IQUANT	6	I/E Range
POSFEEDENABLE	TOGGLE	F	Positive Feedback IR Comp
POSFEEDRESISTANCE	QUANT	0	Positive Feedback Resistance (ohm)
ACHSELECT	IQUANT	0	Ach Select
CABLEID	IQUANT	14	Cable ID
DCCALDATE	LABEL	8/19/2019	DC Calibration Date
ACCALDATE	LABEL	8/19/2019	AC Calibration Date
THERMOSELECT	IQUANT	1	Thermo Select
FRAMEWORKVERSION	QUANT	6.33	Framework Version
INSTRUMENTVERSION	LABEL	3.50	Instrument Version
ZCURVE	TABLE
	Pt	Time	Freq	Zreal	Zimag	Zsig	Zmod	Zphz	Idc	Vdc	IERange
	#	s	Hz	ohm	ohm	V	ohm	°	A	V	#
	0	1	1000078	2081.793	-2154.743	1	2996.127	-45.9865	6.030344E-006	-0.0088741	8
	1	3	794390.6	2507.886	-2243.242	1	3364.762	-41.81184	-3.044078E-006	-0.0076928	8
	2	4	630984.4	2966.506	-2284.752	1	3744.363	-37.60285	-1.061211E-006	-0.0079279	8
	3	6	501234.4	3424.18	-2247.496	1	4095.882	-33.27931	4.344351E-007	-0.0084896	8
	4	7	398109.4	3847.011	-2142.031	1	4403.157	-29.10923	-1.6685E-006	-0.0080934	8
	5	8	316265.6	4229.996	-1993.634	1	4676.264	-25.23492	-2.992237E-007	-0.0084666	8
	6	10	251203.1	4553.618	-1808.409	1	4899.569	-21.65985	-6.338168E-007	-0.0083341	8
	7	11	199546.9	4824.996	-1620.473	1	5089.845	-18.56461	-3.483035E-006	-0.007778	8
	8	13	158578.1	5053.955	-1399.053	1	5244.026	-15.47334	-5.35511E-007	-0.0083491	8
	9	14	125953.1	5226.963	-1190.649	1	5360.857	-12.83243	1.405115E-007	-0.0094371	7
	10	15	100078.1	5345.417	-1044.844	1	5446.575	-11.0599	-1.707031E-008	-0.0085143	7
	11	17	79453.13	5445.077	-934.6523	1	5524.712	-9.73995	1.00727E-007	-0.0085763	7
	12	18	63140.62	5527.506	-842.9731	1	5591.416	-8.671089	-4.684155E-008	-0.0083661	7
	13	20	50203.12	5595.241	-780.2591	1	5649.383	-7.938728	-7.195534E-009	-0.0084828	7
	14	21	39890.62	5657.7	-733.9106	1	5705.102	-7.391074	-5.226261E-008	-0.0084239	7
	15	22	31640.63	5717.772	-707.9692	1	5761.436	-7.058385	-5.138904E-008	-0.0084234	7
	16	24	25171.88	5772.675	-700.1034	1	5814.974	-6.914995	2.344838E-009	-0.0085247	7
	17	25	20015.62	5829.916	-714.7731	1	5873.57	-6.989828	1.015896E-007	-0.0085833	7
	18	26	15890.62	5889.885	-746.3019	1	5936.979	-7.221412	1.194717E-007	-0.0086607	7
	19	28	12609.37	5952.276	-805.795	1	6006.571	-7.709601	2.464163E-008	-0.0084166	7
	20	29	10078.13	6009.344	-870.2393	1	6072.029	-8.239969	-5.07385E-008	-0.008425	7
	21	30	8015.625	6077.395	-965.288	1	6153.577	-9.025043	5.995548E-008	-0.0085904	7
	22	32	6328.125	6146.757	-1088.722	1	6242.43	-10.04414	-7.059903E-008	-0.0084031	7
	23	33	5015.625	6225.06	-1246.809	1	6348.693	-11.32584	-5.960426E-008	-0.0082924	7
	24	34	3984.375	6307.952	-1437.878	1	6469.757	-12.84099	2.599429E-008	-0.0084261	7
	25	36	3170.956	6396.902	-1681.458	1	6614.201	-14.72733	-1.615402E-009	-0.0084543	7
	26	37	2527.573	6500.044	-1974.532	1	6793.332	-16.89732	-1.532038E-008	-0.0084619	7
	27	39	1976.103	6628.279	-2370.426	1	7039.389	-19.67823	-4.619555E-008	-0.0083764	7
	28	40	1577.524	6763.254	-2806.969	1	7322.615	-22.54003	-2.613358E-009	-0.0084502	7
	29	41	1265.625	6908.63	-3336.651	1	7672.184	-25.77909	-4.959399E-008	-0.008431	7
	30	43	998.264	7093.211	-4028.108	1	8157.163	-29.59147	2.614027E-008	-0.008414	7
	31	44	796.875	7296.742	-4838.064	1	8754.959	-33.54615	2.813208E-008	-0.0084159	7
	32	45	627.7902	7544.1	-5884.31	1	9567.58	-37.95382	-5.925662E-008	-0.0082855	7
	33	47	505.5147	7802.185	-7028.65	1	10501.24	-42.01432	2.584473E-009	-0.0085187	6
	34	48	397.9953	8169.771	-8610.771	1	11869.73	-46.50541	1.72079E-009	-0.0085356	6
	35	50	315.5048	8579.825	-10495.2	1	13555.91	-50.73401	2.350894E-009	-0.0085383	6
	36	51	252.4038	9061.53	-12713.19	1	15612.06	-54.52002	6.894644E-010	-0.0085384	6
	37	52	198.6229	9697.34	-15645.06	1	18406.69	-58.20797	1.809917E-009	-0.0085337	6
	38	54	158.3615	10457.81	-19057.69	1	21738.47	-61.24444	7.950748E-010	-0.0085369	6
	39	55	125.558	11458.47	-23328.04	1	25990.27	-63.84025	1.329079E-009	-0.0085368	6
	40	56	100.4464	12685.36	-28365.74	1	31073.04	-65.90548	4.974637E-010	-0.0085333	6
	41	58	79.00281	14297.96	-34982.45	1	37791.58	-67.76928	1.136161E-009	-0.0085403	6
	42	59	63.3446	15835.88	-42285.98	1	45153.95	-69.46934	1.489017E-009	-0.0085413	6
	43	61	49.86702	19698.9	-51693.85	1	55319.99	-69.13973	1.035366E-009	-0.008546	6
	44	62	39.72458	23110.96	-62945.7	1	67054.28	-69.83893	9.929788E-010	-0.0085379	6
	45	63	31.6723	27663.69	-76082.99	1	80956.17	-70.01879	1.844601E-009	-0.0085454	6
	46	65	24.93351	34689.38	-92783.15	1	99055.9	-69.50044	9.463956E-010	-0.008539	6
	47	67	19.86229	43022.68	-111450.9	1	119466.6	-68.89223	1.554883E-009	-0.0085285	5
	48	68	15.83615	54540.83	-134427.7	1	145070.7	-67.91632	2.477374E-009	-0.0085312	5
	49	69	12.40079	70241.46	-159321.4	1	174118.3	-66.20832	1.358296E-009	-0.0085333	5
	50	71	9.93114	88786.46	-187190.7	1	207179.6	-64.62453	9.295439E-010	-0.0085336	5
	51	72	7.944915	110817.6	-216804	1	243484.2	-62.92652	1.537094E-009	-0.008536	5
	52	74	6.317385	140323.5	-249883	1	286587.2	-60.68331	1.303046E-009	-0.0085313	5
	53	76	5.008013	175281	-286005.7	1	335444	-58.49759	9.662338E-010	-0.0085212	5
	54	79	3.945707	216462.4	-324097	1	389736.9	-56.26128	3.055709E-010	-0.0085294	5
	55	81	3.158693	260261	-359327.4	1	443680.1	-54.08417	8.626073E-010	-0.0085227	5
	56	85	2.504006	310256.1	-398551	1	505076	-52.10066	2.181605E-010	-0.0085275	5
	57	87	1.998082	359548.4	-436719.7	1	565684.7	-50.53559	6.918061E-010	-0.0085728	5
	58	91	1.584686	412370.1	-481658	1	634069	-49.43161	4.621666E-010	-0.008545	5
	59	94	1.266892	465154	-528171.4	1	703799.1	-48.63003	7.323024E-010	-0.0085723	5
	60	98	0.999041	522236.8	-588486.4	1	786795.8	-48.41339	5.060918E-010	-0.0084913	5
