EXPLAIN
TAG	EISPOT
TITLE	LABEL	Potentiostatic EIS	Test &Identifier
DATE	LABEL	11/20/2019	Date
TIME	LABEL	12:02:46	Time
NOTES	NOTES	4	&Notes...
	
	
	
	
PSTAT	PSTAT	REF600-11020	Potentiostat
VDC	POTEN	0.00000E+000	T	DC &Voltage (V)
FREQINIT	QUANT	1.00000E+006	Initial Fre&q. (Hz)
FREQFINAL	QUANT	1.00000E+000	Final Fre&q. (Hz)
PTSPERDEC	QUANT	1.00000E+001	Points/&decade
VAC	QUANT	2.50000E+001	AC &Voltage (mV rms)
AREA	QUANT	1.00000E-002	&Area (cm^2)
CONDIT	TWOPARAM	T	5.00000E+000	0.00000E+000	Conditionin&g	Time(s)	E(V)
DELAY	TWOPARAM	T	5.00000E+000	0.00000E+000	Init. De&lay	Time(s)	Stab.(mV/s)
SPEED	SELECTOR	1	&Optimize for:
ZGUESS	QUANT	1.00000E+005	E&stimated Z (ohms)
OCVCURVE	TABLE	19
	Pt	T	Vf	Vm	Ach	Over
	#	s	V vs. Ref.	V	V	bits
	0	0.258333	-5.72628E-003	-5.72628E-003	5.42933E-004	...........
	1	0.516667	-5.73943E-003	-6.41503E-003	5.44199E-004	...........
	2	0.775	-5.81842E-003	-6.97327E-003	5.43966E-004	...........
	3	1.03333	-6.03522E-003	-7.47499E-003	5.52099E-004	...........
	4	1.29167	-6.40812E-003	-7.92980E-003	5.50566E-004	...........
	5	1.55	-6.88072E-003	-8.33805E-003	5.46599E-004	...........
	6	1.80833	-7.37671E-003	-8.70764E-003	5.48833E-004	...........
	7	2.06667	-7.84661E-003	-9.04973E-003	5.51066E-004	...........
	8	2.325	-8.27167E-003	-9.30221E-003	5.52033E-004	...........
	9	2.58333	-8.65018E-003	-9.64728E-003	5.50033E-004	...........
	10	2.84167	-8.98967E-003	-9.90694E-003	5.53099E-004	...........
	11	3.1	-9.30296E-003	-1.01971E-002	5.44999E-004	...........
	12	3.35833	-9.60072E-003	-1.04658E-002	5.50566E-004	...........
	13	3.61667	-9.88618E-003	-1.06228E-002	5.52166E-004	...........
	14	3.875	-1.01531E-002	-1.07860E-002	5.45266E-004	...........
	15	4.13333	-1.03914E-002	-1.10001E-002	5.44266E-004	...........
	16	4.39167	-1.06003E-002	-1.11469E-002	5.47366E-004	...........
	17	4.65	-1.07887E-002	-1.12968E-002	5.48933E-004	...........
	18	4.90833	-1.09615E-002	-1.13172E-002	5.43866E-004	...........
EOC	QUANT	-0.0109615	Open Circuit (V)
PSTATMODEL	IQUANT	4	Pstat Model
PSTATSECTION	LABEL	REF600-11020	Pstat Section
PSTATSERIALNO	LABEL	11020	Pstat Serial Number
CTRLMODE	IQUANT	1	Control Mode
IESTAB	IQUANT	0	I/E Stability
CASPEED	IQUANT	1	Control Amp Speed
CONVENTION	IQUANT	1	Current Convention
ICHRANGE	IQUANT	2	Ich Range
ICHRANGEMODE	TOGGLE	F	Ich Auto Range
ICHOFFSETENABLE	TOGGLE	T	Ich Offset Enable
ICHOFFSET	QUANT	0	Ich Offset (V)
ICHFILTER	IQUANT	3	Ich Filter
VCHRANGE	IQUANT	2	Vch Range
VCHRANGEMODE	TOGGLE	F	Vch Auto Range
VCHOFFSETENABLE	TOGGLE	T	Vch Offset Enable
VCHOFFSET	QUANT	0	Vch Offset (V)
VCHFILTER	IQUANT	3	Vch Filter
ACHRANGE	IQUANT	2	Ach Range
ACHOFFSETENABLE	TOGGLE	F	Ach Offset Enable
ACHOFFSET	QUANT	0	Ach Offset (V)
ACHFILTER	IQUANT	3	Ach Filter
IERANGELOWERLIMIT	IQUANT	1	I/E Range Lower Limit
IERANGEMODE	TOGGLE	F	I/E AutoRange
IERANGE	IQUANT	5	I/E Range
POSFEEDENABLE	TOGGLE	F	Positive Feedback IR Comp
POSFEEDRESISTANCE	QUANT	0	Positive Feedback Resistance (ohm)
ACHSELECT	IQUANT	0	Ach Select
CABLEID	IQUANT	14	Cable ID
DCCALDATE	LABEL	8/19/2019	DC Calibration Date
ACCALDATE	LABEL	8/19/2019	AC Calibration Date
THERMOSELECT	IQUANT	1	Thermo Select
FRAMEWORKVERSION	QUANT	6.33	Framework Version
INSTRUMENTVERSION	LABEL	3.50	Instrument Version
ZCURVE	TABLE
	Pt	Time	Freq	Zreal	Zimag	Zsig	Zmod	Zphz	Idc	Vdc	IERange
	#	s	Hz	ohm	ohm	V	ohm	°	A	V	#
	0	2	1000078	1979.778	-2023.38	1	2830.828	-45.62404	1.06236E-005	-0.0099601	8
	1	3	794390.6	2370.233	-2144.381	1	3196.306	-42.13605	-3.828546E-006	-0.0095601	8
	2	4	630984.4	2788.657	-2193.966	1	3548.252	-38.19377	-5.460226E-006	-0.0083997	8
	3	6	501234.4	3217.225	-2205.618	1	3900.678	-34.43319	2.887607E-006	-0.009889	8
	4	7	398109.4	3624.443	-2151.418	1	4214.876	-30.69277	-5.88666E-006	-0.0086242	8
	5	8	316265.6	4013.57	-2045.681	1	4504.837	-27.00753	6.763005E-006	-0.0101802	8
	6	10	251203.1	4350.422	-1913.439	1	4752.623	-23.74125	1.670224E-006	-0.0099187	8
	7	11	199546.9	4671.765	-1761.144	1	4992.696	-20.65525	6.179032E-006	-0.0101595	8
	8	13	158578.1	4950.095	-1622.715	1	5209.285	-18.14992	5.077646E-006	-0.010094	8
	9	14	125953.1	5206.035	-1362.696	1	5381.425	-14.66826	2.798438E-006	-0.0114055	7
	10	16	100078.1	5354.031	-1192.98	1	5485.33	-12.56139	-1.188227E-006	-0.0080881	7
	11	17	79453.13	5490.933	-1057.056	1	5591.754	-10.89667	1.022053E-007	-0.0108326	7
	12	18	63140.62	5603.499	-931.595	1	5680.411	-9.439225	-6.013531E-007	-0.0079609	7
	13	20	50203.12	5689.262	-831.4144	1	5749.692	-8.314207	1.01524E-007	-0.0108387	7
	14	21	39890.62	5756.952	-752.0296	1	5805.863	-7.442395	1.01288E-007	-0.0108394	7
	15	22	31640.63	5825.29	-693.7726	1	5866.457	-6.791746	7.196684E-008	-0.0085853	7
	16	24	25171.88	5889.347	-654.3729	1	5925.59	-6.340201	8.195406E-007	-0.0097435	7
	17	25	20015.62	5932.688	-630.8397	1	5966.134	-6.069617	1.063174E-006	-0.0109597	7
	18	26	15890.62	5970.546	-632.6517	1	6003.971	-6.048612	-8.707007E-007	-0.0078939	7
	19	28	12609.37	6021.352	-645.6273	1	6055.866	-6.120043	8.183545E-007	-0.0097492	7
	20	29	10078.13	6067.731	-685.09	1	6106.284	-6.441821	3.752754E-007	-0.0090042	7
	21	31	8015.625	6103.808	-738.6747	1	6148.342	-6.900303	7.550052E-007	-0.0112592	7
	22	33	6328.125	6159.469	-821.673	1	6214.033	-7.598395	3.785508E-007	-0.0090076	7
	23	34	5015.625	6196.152	-923.7469	1	6264.631	-8.479429	-7.198286E-007	-0.009666	7
	24	36	3984.375	6268.049	-1061.341	1	6357.271	-9.61048	7.557491E-007	-0.0112622	7
	25	37	3170.956	6321.668	-1249.538	1	6443.977	-11.18093	3.818512E-007	-0.0090081	7
	26	39	2527.573	6384.311	-1472.266	1	6551.87	-12.98579	1.062908E-006	-0.010974	7
	27	40	1976.103	6470.613	-1776.174	1	6709.965	-15.34954	1.062824E-006	-0.0109681	7
	28	42	1577.524	6596.947	-2142.26	1	6936.064	-17.99043	1.064955E-006	-0.0109681	7
	29	43	1265.625	6645.747	-2526.448	1	7109.774	-20.81481	4.679848E-007	-0.0111489	7
	30	45	998.264	6769.273	-3063.251	1	7430.112	-24.34784	9.621804E-008	-0.010851	7
	31	46	796.875	6930.053	-3698.138	1	7855.053	-28.08607	6.054434E-007	-0.0093355	7
	32	48	627.7902	7084.011	-4530.268	1	8408.719	-32.59916	9.546028E-007	-0.0111891	7
	33	49	505.5147	7256.659	-5429.72	1	9063.165	-36.80529	7.971397E-008	-0.0086005	7
	34	50	397.9953	7510.226	-6671.867	1	10045.76	-41.61696	1.818867E-009	-0.0095769	6
	35	52	315.5048	7794.451	-8170.658	1	11292.17	-46.34989	4.660723E-010	-0.0095709	6
	36	53	252.4038	8128.295	-9939.61	1	12839.98	-50.72479	6.517497E-010	-0.0095792	6
	37	55	198.6229	8581.89	-12285.62	1	14986.17	-55.0645	8.332436E-010	-0.0095713	6
	38	56	158.3615	9127.296	-15015.01	1	17571.51	-58.70549	2.039351E-010	-0.0095666	6
	39	57	125.558	9833.5	-18439.48	1	20897.66	-61.92966	8.505677E-010	-0.0095642	6
	40	59	100.4464	10727.19	-22465.32	1	24895.04	-64.47552	3.179683E-011	-0.0095775	6
	41	60	79.00281	11905.66	-27759.16	1	30204.57	-66.78593	-2.520358E-010	-0.0095726	6
	42	61	63.3446	13030.85	-33729.85	1	36159.45	-68.87696	1.11647E-009	-0.0095703	6
	43	63	49.86702	15666.76	-41326.39	1	44196.36	-69.23838	2.422936E-010	-0.0095816	6
	44	64	39.72458	18215.02	-50646.47	1	53822.41	-70.21886	1.102171E-009	-0.0095785	6
	45	65	31.6723	21618.51	-61257.61	1	64960.41	-70.56148	8.713936E-010	-0.00957	6
	46	67	24.93351	26388.67	-75102.87	1	79604.04	-70.64021	1.20943E-009	-0.0095725	6
	47	68	19.86229	32122.67	-90776.91	1	96292.9	-70.51296	1.541387E-009	-0.0095701	6
	48	70	15.83615	40372.4	-108224	1	115509.2	-69.54224	-1.442813E-010	-0.0095788	5
	49	71	12.40079	51303.86	-132945.3	1	142501	-68.8983	1.815945E-009	-0.0095717	5
	50	72	9.93114	63651.45	-156674.4	1	169110.5	-67.88978	9.088127E-010	-0.0095686	5
	51	74	7.944915	78880.12	-184443.8	1	200603.1	-66.84531	-4.247696E-010	-0.0095791	5
	52	76	6.317385	99866.1	-217637.4	1	239456.2	-65.35128	-1.543512E-011	-0.0095735	5
	53	78	5.008013	125695.5	-254940.6	1	284243	-63.75493	1.572044E-010	-0.0095662	5
	54	80	3.945707	157570.3	-296393.5	1	335674.7	-62.00376	1.488033E-010	-0.0095817	5
	55	83	3.158693	193651.8	-339360.6	1	390725.8	-60.28931	1.737276E-010	-0.0095841	5
	56	87	2.504006	235888.7	-387415.6	1	453579.5	-58.6637	1.213218E-010	-0.009563	5
	57	89	1.998082	281211.4	-437423.9	1	520018.8	-57.26381	4.65581E-010	-0.0095966	5
	58	92	1.584686	334659.2	-495031.3	1	597538.9	-55.93988	6.381688E-011	-0.009623	5
	59	96	1.266892	387724.8	-554841.4	1	676889.6	-55.05403	3.392538E-010	-0.0096012	5
	60	100	0.999041	450256.4	-630168.2	1	774495.2	-54.45412	-1.001365E-010	-0.0095728	5
