EXPLAIN
TAG	EISPOT
TITLE	LABEL	Potentiostatic EIS	Test &Identifier
DATE	LABEL	10/14/2019	Date
TIME	LABEL	10:48:58	Time
NOTES	NOTES	1	&Notes...
	
PSTAT	PSTAT	REF600-11020	Potentiostat
VDC	POTEN	0.00000E+000	T	DC &Voltage (V)
FREQINIT	QUANT	1.00000E+006	Initial Fre&q. (Hz)
FREQFINAL	QUANT	1.00000E+000	Final Fre&q. (Hz)
PTSPERDEC	QUANT	1.00000E+001	Points/&decade
VAC	QUANT	2.50000E+001	AC &Voltage (mV rms)
AREA	QUANT	1.00000E-002	&Area (cm^2)
CONDIT	TWOPARAM	T	5.00000E+000	0.00000E+000	Conditionin&g	Time(s)	E(V)
DELAY	TWOPARAM	T	5.00000E+000	0.00000E+000	Init. De&lay	Time(s)	Stab.(mV/s)
SPEED	SELECTOR	1	&Optimize for:
ZGUESS	QUANT	1.00000E+004	E&stimated Z (ohms)
OCVCURVE	TABLE	19
	Pt	T	Vf	Vm	Ach	Over
	#	s	V vs. Ref.	V	V	bits
	0	0.258333	3.52378E-003	3.52378E-003	5.48566E-004	...........
	1	0.516667	3.52050E-003	3.35241E-003	5.54999E-004	...........
	2	0.775	3.49907E-003	3.12060E-003	5.52899E-004	...........
	3	1.03333	3.43415E-003	2.90299E-003	5.56666E-004	...........
	4	1.29167	3.31022E-003	2.71353E-003	5.51299E-004	...........
	5	1.55	3.13726E-003	2.53121E-003	5.51666E-004	...........
	6	1.80833	2.94151E-003	2.38893E-003	5.54766E-004	...........
	7	2.06667	2.74753E-003	2.25122E-003	5.57966E-004	...........
	8	2.325	2.56957E-003	2.13504E-003	5.51066E-004	...........
	9	2.58333	2.40786E-003	1.80347E-003	5.53066E-004	...........
	10	2.84167	2.25032E-003	1.85543E-003	5.56699E-004	...........
	11	3.1	2.09443E-003	1.81030E-003	5.49433E-004	...........
	12	3.35833	1.95819E-003	1.62789E-003	5.45466E-004	...........
	13	3.61667	1.85050E-003	1.56259E-003	5.54966E-004	...........
	14	3.875	1.75651E-003	1.45451E-003	5.43766E-004	...........
	15	4.13333	1.66227E-003	1.38866E-003	5.45299E-004	...........
	16	4.39167	1.56800E-003	1.31948E-003	5.48666E-004	...........
	17	4.65	1.47913E-003	1.24640E-003	5.48933E-004	...........
	18	4.90833	1.39831E-003	1.18382E-003	5.49233E-004	...........
EOC	QUANT	0.0013983	Open Circuit (V)
PSTATMODEL	IQUANT	4	Pstat Model
PSTATSECTION	LABEL	REF600-11020	Pstat Section
PSTATSERIALNO	LABEL	11020	Pstat Serial Number
CTRLMODE	IQUANT	1	Control Mode
IESTAB	IQUANT	0	I/E Stability
CASPEED	IQUANT	1	Control Amp Speed
CONVENTION	IQUANT	1	Current Convention
ICHRANGE	IQUANT	2	Ich Range
ICHRANGEMODE	TOGGLE	F	Ich Auto Range
ICHOFFSETENABLE	TOGGLE	T	Ich Offset Enable
ICHOFFSET	QUANT	0	Ich Offset (V)
ICHFILTER	IQUANT	3	Ich Filter
VCHRANGE	IQUANT	2	Vch Range
VCHRANGEMODE	TOGGLE	F	Vch Auto Range
VCHOFFSETENABLE	TOGGLE	T	Vch Offset Enable
VCHOFFSET	QUANT	0	Vch Offset (V)
VCHFILTER	IQUANT	3	Vch Filter
ACHRANGE	IQUANT	2	Ach Range
ACHOFFSETENABLE	TOGGLE	F	Ach Offset Enable
ACHOFFSET	QUANT	0	Ach Offset (V)
ACHFILTER	IQUANT	3	Ach Filter
IERANGELOWERLIMIT	IQUANT	1	I/E Range Lower Limit
IERANGEMODE	TOGGLE	F	I/E AutoRange
IERANGE	IQUANT	5	I/E Range
POSFEEDENABLE	TOGGLE	F	Positive Feedback IR Comp
POSFEEDRESISTANCE	QUANT	0	Positive Feedback Resistance (ohm)
ACHSELECT	IQUANT	0	Ach Select
CABLEID	IQUANT	14	Cable ID
DCCALDATE	LABEL	8/19/2019	DC Calibration Date
ACCALDATE	LABEL	8/19/2019	AC Calibration Date
THERMOSELECT	IQUANT	1	Thermo Select
FRAMEWORKVERSION	QUANT	6.33	Framework Version
INSTRUMENTVERSION	LABEL	3.50	Instrument Version
ZCURVE	TABLE
	Pt	Time	Freq	Zreal	Zimag	Zsig	Zmod	Zphz	Idc	Vdc	IERange
	#	s	Hz	ohm	ohm	V	ohm	°	A	V	#
	0	1	1000078	2397.639	-2152.691	1	3222.228	-41.9187	9.6227E-007	0.00386	8
	1	3	794390.6	2833.352	-2159.86	1	3562.707	-37.31821	-3.917731E-006	0.0041317	8
	2	4	630984.4	3267.365	-2128.655	1	3899.595	-33.08384	-3.486956E-007	0.0036031	8
	3	6	501234.4	3679.069	-2030.423	1	4202.162	-28.89366	-2.572742E-007	0.0030905	8
	4	7	398109.4	4019.615	-1867.069	1	4432.07	-24.91438	3.659698E-006	0.0025526	8
	5	9	316265.6	4349.633	-1675.806	1	4661.291	-21.07044	-3.353707E-008	0.0031189	8
	6	10	251203.1	4588.809	-1495.345	1	4826.306	-18.04912	-9.77465E-007	0.0032593	8
	7	12	199546.9	4779.218	-1313.904	1	4956.538	-15.37201	-6.061376E-007	0.0033436	8
	8	13	158578.1	4917.58	-1151.405	1	5050.577	-13.17788	3.357105E-006	0.002543	8
	9	15	125953.1	5058.454	-968.795	1	5150.391	-10.842	1.106414E-006	0.0005438	7
	10	16	100078.1	5144.323	-828.614	1	5210.629	-9.150237	-4.035943E-008	0.0031488	7
	11	17	79453.13	5215.424	-745.2062	1	5268.395	-8.13167	-4.457564E-008	0.0030959	7
	12	19	63140.62	5275.183	-681.4131	1	5319.011	-7.360332	3.536964E-008	0.002924	7
	13	20	50203.12	5330.192	-636.0662	1	5368.01	-6.805079	-2.982362E-008	0.0030465	7
	14	21	39890.62	5378.668	-607.2577	1	5412.84	-6.441481	-3.496178E-008	0.0030488	7
	15	23	31640.63	5428.84	-597.7983	1	5461.654	-6.283826	8.977613E-010	0.0030024	7
	16	24	25171.88	5477.394	-603.1229	1	5510.499	-6.283599	1.362761E-008	0.0031205	7
	17	25	20015.62	5520.243	-627.0844	1	5555.747	-6.480861	1.051626E-008	0.0029755	7
	18	27	15890.62	5577.52	-662.731	1	5616.755	-6.776217	-2.860783E-008	0.0030456	7
	19	28	12609.37	5631.197	-720.2443	1	5677.071	-7.288701	-5.741957E-008	0.0032247	7
	20	30	10078.13	5685.457	-785.4218	1	5739.452	-7.865387	2.17764E-009	0.0029995	7
	21	31	8015.625	5744.847	-879.5867	1	5811.793	-8.704888	-3.974684E-008	0.0031358	7
	22	32	6328.125	5807.315	-1008.234	1	5894.188	-9.8492	-3.416866E-009	0.0030701	7
	23	34	5015.625	5873.644	-1165.743	1	5988.209	-11.22563	-1.82439E-008	0.0030697	7
	24	35	3984.375	5949.109	-1362.571	1	6103.155	-12.9004	-3.594073E-008	0.0030404	7
	25	37	3170.956	6027.616	-1593.762	1	6234.76	-14.81063	3.465485E-008	0.0029129	7
	26	38	2527.573	6120.586	-1885.649	1	6404.471	-17.12318	-3.648577E-008	0.0030344	7
	27	39	1976.103	6230.883	-2274.092	1	6632.903	-20.05062	-3.644811E-008	0.0030387	7
	28	41	1577.524	6434.116	-2688.635	1	6973.278	-22.67867	7.014207E-009	0.0029575	7
	29	42	1265.625	6488.092	-3238.921	1	7251.617	-26.52883	-5.931469E-008	0.0031012	7
	30	44	998.264	6660.237	-3926.555	1	7731.533	-30.52155	-4.013753E-008	0.0030762	7
	31	45	796.875	6850.686	-4731.745	1	8325.941	-34.63271	-3.935712E-008	0.0031293	7
	32	46	627.7902	7086.1	-5766.768	1	9136.105	-39.13918	3.83428E-009	0.0029832	7
	33	48	505.5147	7332.601	-6927.802	1	10087.69	-43.37403	-1.265542E-009	0.0030828	6
	34	49	397.9953	7662.226	-8501.904	1	11445.18	-47.97367	3.992671E-010	0.0029755	6
	35	50	315.5048	8047.602	-10390.44	1	13142.49	-52.24151	2.176394E-010	0.0029752	6
	36	52	252.4038	8502.377	-12620.7	1	15217.51	-56.03244	6.341917E-010	0.0029735	6
	37	53	198.6229	9109.003	-15568	1	18037.09	-59.66764	5.697224E-010	0.0029764	6
	38	54	158.3615	9837.16	-18998.83	1	21394.51	-62.62592	1.234639E-009	0.0029728	6
	39	56	125.558	10799.3	-23313.06	1	25692.87	-65.14503	6.713606E-010	0.0029701	6
	40	57	100.4464	12004.67	-28351.49	1	30788.3	-67.05109	1.336857E-009	0.0029718	6
	41	59	79.00281	13730.19	-35096.9	1	37687.01	-68.63416	5.811408E-010	0.0029644	6
	42	60	63.3446	16124.2	-42685.18	1	45629.1	-69.30608	2.438598E-010	0.0029652	6
	43	61	49.86702	18366.19	-52546.27	1	55663.52	-70.73425	8.783134E-010	0.0029652	6
	44	63	39.72458	22318.89	-63670.42	1	67468.92	-70.68251	8.128768E-010	0.0029722	6
	45	64	31.6723	27336.21	-76814.53	1	81533.68	-70.41073	2.804498E-010	0.0029724	6
	46	66	24.93351	34335.05	-93811.06	1	99897	-69.89726	5.521579E-010	0.0029764	6
	47	67	19.86229	43153.47	-112538.2	1	120528.3	-69.02037	1.338144E-010	0.0029806	5
	48	69	15.83615	55116.18	-134649.2	1	145493	-67.73917	-1.078776E-010	0.0029804	5
	49	70	12.40079	72590.46	-160560.2	1	176207.1	-65.67192	-1.057967E-009	0.0029814	5
	50	71	9.93114	90002.95	-187364.8	1	207860.8	-64.34214	5.115059E-010	0.0029807	5
	51	73	7.944915	112257	-216820.7	1	244157.4	-62.62754	-2.020741E-010	0.0029881	5
	52	75	6.317385	141757.2	-248221.6	1	285848	-60.26968	-2.372077E-010	0.0029845	5
	53	77	5.008013	175345.7	-282297.7	1	332322.3	-58.15403	-1.753657E-010	0.0029814	5
	54	79	3.945707	214562.1	-318340.1	1	383897.6	-56.01992	2.396169E-010	0.0029857	5
	55	82	3.158693	253818.9	-354115.4	1	435685.4	-54.36823	3.555443E-012	0.0029733	5
	56	85	2.504006	296935	-394355.1	1	493646	-53.02158	2.236579E-010	0.0029934	5
	57	88	1.998082	340094.1	-437635.1	1	554245.8	-52.14858	3.924449E-010	0.0029716	5
	58	91	1.584686	387922.8	-489416.1	1	624509.6	-51.59882	1.224003E-011	0.0029395	5
	59	95	1.266892	432833.3	-547542.8	1	697959.8	-51.67358	2.488288E-010	0.0029675	5
	60	99	0.999041	484713.7	-624624	1	790634.3	-52.18822	-1.036763E-010	0.0029943	5
