EXPLAIN
TAG	EISPOT
TITLE	LABEL	Potentiostatic EIS	Test &Identifier
DATE	LABEL	10/14/2019	Date
TIME	LABEL	9:44:11	Time
NOTES	NOTES	1	&Notes...
	
PSTAT	PSTAT	REF600-11020	Potentiostat
VDC	POTEN	0.00000E+000	T	DC &Voltage (V)
FREQINIT	QUANT	1.00000E+006	Initial Fre&q. (Hz)
FREQFINAL	QUANT	1.00000E+000	Final Fre&q. (Hz)
PTSPERDEC	QUANT	1.00000E+001	Points/&decade
VAC	QUANT	2.50000E+001	AC &Voltage (mV rms)
AREA	QUANT	1.00000E-002	&Area (cm^2)
CONDIT	TWOPARAM	T	5.00000E+000	0.00000E+000	Conditionin&g	Time(s)	E(V)
DELAY	TWOPARAM	T	5.00000E+000	0.00000E+000	Init. De&lay	Time(s)	Stab.(mV/s)
SPEED	SELECTOR	1	&Optimize for:
ZGUESS	QUANT	1.00000E+004	E&stimated Z (ohms)
OCVCURVE	TABLE	19
	Pt	T	Vf	Vm	Ach	Over
	#	s	V vs. Ref.	V	V	bits
	0	0.258333	8.72947E-003	8.72947E-003	5.60866E-004	...........
	1	0.516667	8.73222E-003	8.87322E-003	5.59766E-004	...........
	2	0.775	8.74917E-003	9.01397E-003	5.60066E-004	...........
	3	1.03333	8.79795E-003	9.17824E-003	5.53866E-004	...........
	4	1.29167	8.88805E-003	9.32657E-003	5.51399E-004	...........
	5	1.55	9.01288E-003	9.46577E-003	5.58599E-004	...........
	6	1.80833	9.15662E-003	9.60172E-003	5.58166E-004	...........
	7	2.06667	9.30377E-003	9.68517E-003	5.56633E-004	...........
	8	2.325	9.44263E-003	9.77536E-003	5.56366E-004	...........
	9	2.58333	9.56796E-003	9.96680E-003	5.64599E-004	...........
	10	2.84167	9.68661E-003	1.01272E-002	5.65032E-004	...........
	11	3.1	9.81172E-003	1.02023E-002	5.65199E-004	...........
	12	3.35833	9.94640E-003	1.03797E-002	5.65132E-004	...........
	13	3.61667	1.00846E-002	1.05371E-002	5.65199E-004	...........
	14	3.875	1.02239E-002	1.06296E-002	5.62932E-004	...........
	15	4.13333	1.03627E-002	1.07210E-002	5.62232E-004	...........
	16	4.39167	1.04939E-002	1.08369E-002	5.69866E-004	...........
	17	4.65	1.06128E-002	1.09437E-002	5.61732E-004	...........
	18	4.90833	1.07225E-002	1.10426E-002	5.62632E-004	...........
EOC	QUANT	0.0107225	Open Circuit (V)
PSTATMODEL	IQUANT	4	Pstat Model
PSTATSECTION	LABEL	REF600-11020	Pstat Section
PSTATSERIALNO	LABEL	11020	Pstat Serial Number
CTRLMODE	IQUANT	1	Control Mode
IESTAB	IQUANT	0	I/E Stability
CASPEED	IQUANT	1	Control Amp Speed
CONVENTION	IQUANT	1	Current Convention
ICHRANGE	IQUANT	2	Ich Range
ICHRANGEMODE	TOGGLE	F	Ich Auto Range
ICHOFFSETENABLE	TOGGLE	T	Ich Offset Enable
ICHOFFSET	QUANT	0	Ich Offset (V)
ICHFILTER	IQUANT	3	Ich Filter
VCHRANGE	IQUANT	2	Vch Range
VCHRANGEMODE	TOGGLE	F	Vch Auto Range
VCHOFFSETENABLE	TOGGLE	T	Vch Offset Enable
VCHOFFSET	QUANT	0	Vch Offset (V)
VCHFILTER	IQUANT	3	Vch Filter
ACHRANGE	IQUANT	2	Ach Range
ACHOFFSETENABLE	TOGGLE	F	Ach Offset Enable
ACHOFFSET	QUANT	0	Ach Offset (V)
ACHFILTER	IQUANT	3	Ach Filter
IERANGELOWERLIMIT	IQUANT	1	I/E Range Lower Limit
IERANGEMODE	TOGGLE	F	I/E AutoRange
IERANGE	IQUANT	6	I/E Range
POSFEEDENABLE	TOGGLE	F	Positive Feedback IR Comp
POSFEEDRESISTANCE	QUANT	0	Positive Feedback Resistance (ohm)
ACHSELECT	IQUANT	0	Ach Select
CABLEID	IQUANT	14	Cable ID
DCCALDATE	LABEL	8/19/2019	DC Calibration Date
ACCALDATE	LABEL	8/19/2019	AC Calibration Date
THERMOSELECT	IQUANT	1	Thermo Select
FRAMEWORKVERSION	QUANT	6.33	Framework Version
INSTRUMENTVERSION	LABEL	3.50	Instrument Version
ZCURVE	TABLE
	Pt	Time	Freq	Zreal	Zimag	Zsig	Zmod	Zphz	Idc	Vdc	IERange
	#	s	Hz	ohm	ohm	V	ohm	°	A	V	#
	0	2	1000078	2361.749	-1520.109	1	2808.663	-32.76684	-1.434611E-006	0.0134944	8
	1	3	794390.6	2648.861	-1442.148	1	3016	-28.56568	1.74485E-006	0.0123797	8
	2	5	630984.4	2916.934	-1304.039	1	3195.156	-24.08742	-1.739171E-006	0.0127679	8
	3	6	501234.4	3102.662	-1134.14	1	3303.45	-20.07927	3.124642E-006	0.0118635	8
	4	8	398109.4	3268.043	-987.949	1	3414.111	-16.82037	-7.853573E-007	0.0125469	8
	5	9	316265.6	3383.344	-853.9764	1	3489.455	-14.16592	-1.025658E-006	0.0126857	8
	6	10	251203.1	3478.002	-729.7007	1	3553.725	-11.84905	-1.703414E-007	0.0122879	8
	7	12	199546.9	3555.423	-615.8459	1	3608.365	-9.82688	-1.98448E-006	0.0126909	8
	8	13	158578.1	3611.096	-538.6382	1	3651.047	-8.483803	-4.335156E-006	0.0133173	8
	9	14	125953.1	3667.924	-429.4326	1	3692.977	-6.677666	7.116271E-007	0.0104358	7
	10	16	100078.1	3683.516	-386.9213	1	3703.781	-5.996433	-2.054265E-008	0.0124377	7
	11	17	79453.13	3712.652	-359.1646	1	3729.984	-5.52564	-5.216726E-008	0.0124407	7
	12	18	63140.62	3741.381	-340.8535	1	3756.875	-5.205486	1.218971E-007	0.0121087	7
	13	20	50203.12	3768.422	-329.8729	1	3782.832	-5.002696	-3.771688E-008	0.0123088	7
	14	21	39890.62	3795.356	-329.729	1	3809.652	-4.965217	-4.534761E-008	0.012379	7
	15	23	31640.63	3822.535	-334.9273	1	3837.18	-5.007421	3.199107E-008	0.0122534	7
	16	24	25171.88	3850.989	-349.7839	1	3866.842	-5.189913	-1.126168E-008	0.0123242	7
	17	25	20015.62	3878.627	-375.6692	1	3896.777	-5.532198	1.079601E-008	0.0122201	7
	18	27	15890.62	3912.798	-403.9652	1	3933.596	-5.894448	-6.778259E-009	0.0123283	7
	19	28	12609.37	3946.305	-447.43	1	3971.589	-6.468541	-1.922842E-008	0.0124248	7
	20	29	10078.13	3980.675	-499.827	1	4011.933	-7.156796	-3.731214E-008	0.0123074	7
	21	31	8015.625	4009.33	-569.2841	1	4049.545	-8.081397	1.239645E-007	0.0121059	7
	22	32	6328.125	4056.082	-657.3318	1	4109.001	-9.205366	-4.7712E-008	0.0124296	7
	23	33	5015.625	4097.292	-766.8219	1	4168.431	-10.60047	-5.047016E-008	0.0124418	7
	24	35	3984.375	4139.721	-900.9175	1	4236.62	-12.2777	-1.628268E-008	0.0122686	7
	25	36	3170.956	4192.302	-1068.491	1	4326.323	-14.29855	-3.704648E-008	0.0123011	7
	26	37	2527.573	4247.611	-1272.671	1	4434.173	-16.67929	3.227705E-008	0.0122514	7
	27	39	1976.103	4319.028	-1548.375	1	4588.188	-19.72279	7.601425E-008	0.0122482	7
	28	40	1577.524	4397.102	-1855.285	1	4772.482	-22.87652	-1.832516E-008	0.0124253	7
	29	41	1265.625	4480.085	-2229.073	1	5003.991	-26.45271	-4.755102E-008	0.0124396	7
	30	43	998.264	4587.994	-2719.891	1	5333.619	-30.66064	-3.306778E-008	0.0123138	7
	31	44	796.875	4709.59	-3287.034	1	5743.243	-34.91292	-3.748404E-008	0.012314	7
	32	45	627.7902	4855.355	-4032.33	1	6311.431	-39.70934	-6.976205E-008	0.0123999	7
	33	47	505.5147	5019.648	-4864.706	1	6990.152	-44.10194	-4.774342E-008	0.0124337	7
	34	48	397.9953	5234.989	-5981.219	1	7948.59	-48.80636	4.885588E-009	0.0122988	7
	35	49	315.5048	5488.077	-7332.389	1	9158.762	-53.18623	4.976862E-009	0.0122937	7
	36	51	252.4038	5787.905	-8927.998	1	10639.97	-57.04518	1.092591E-009	0.0122302	6
	37	52	198.6229	6188.515	-11042.42	1	12658.31	-60.73237	4.378521E-010	0.0122284	6
	38	54	158.3615	6672.629	-13514.05	1	15071.62	-63.72192	1.472402E-010	0.0122315	6
	39	55	125.558	7306.85	-16620.38	1	18155.63	-66.26817	4.333362E-010	0.0122329	6
	40	56	100.4464	8115	-20294.54	1	21856.85	-68.20544	4.425724E-010	0.0122269	6
	41	58	79.00281	9217.635	-25054.18	1	26696	-69.80103	4.337344E-010	0.0122252	6
	42	59	63.3446	10372.35	-30564.71	1	32276.73	-71.255	1.64788E-010	0.0122239	6
	43	60	49.86702	12617.46	-37437.65	1	39506.68	-71.37486	1.856456E-010	0.0122205	6
	44	62	39.72458	15135.2	-45761.91	1	48199.86	-71.69898	1.013293E-009	0.012229	6
	45	63	31.6723	18410.83	-55336.68	1	58319.01	-71.59742	3.320387E-010	0.0122214	6
	46	65	24.93351	22960.62	-67711.95	1	71498.93	-71.26859	1.625997E-010	0.0122246	6
	47	66	19.86229	28709.64	-81354.37	1	86271.52	-70.56226	9.010725E-010	0.0122191	6
	48	67	15.83615	35629.71	-98006.3	1	104281.9	-70.02151	-1.130948E-009	0.0122229	6
	49	69	12.40079	45593.59	-118040.8	1	126540.1	-68.88081	1.012061E-009	0.0122369	5
	50	70	9.93114	57380.78	-138257.1	1	149691.6	-67.46011	3.59847E-010	0.0122313	5
	51	72	7.944915	71183.7	-161556.2	1	176543.3	-66.22111	-1.560633E-010	0.012225	5
	52	73	6.317385	87993.65	-189342.1	1	208790.1	-65.07412	5.97516E-010	0.0122191	5
	53	75	5.008013	108588	-221451.9	1	246642.1	-63.87918	1.833078E-010	0.0122361	5
	54	78	3.945707	133372.2	-258547.8	1	290921.1	-62.71301	-1.163765E-010	0.0122253	5
	55	80	3.158693	160332	-297546.1	1	337994.2	-61.6821	2.10587E-011	0.012224	5
	56	84	2.504006	192164.2	-343953.8	1	393994.1	-60.80826	4.065857E-011	0.0122398	5
	57	86	1.998082	226982.7	-394738.8	1	455345.9	-60.10023	4.571265E-010	0.0122238	5
	58	90	1.584686	272745.8	-455745.8	1	531125.7	-59.10115	6.321616E-011	0.0121789	5
	59	93	1.266892	313999.2	-521974.1	1	609140.8	-58.97053	1.786258E-010	0.012228	5
	60	97	0.999041	368782.4	-606017.6	1	709406.6	-58.67805	-2.360025E-010	0.012208	5
