EXPLAIN
TAG	EISPOT
TITLE	LABEL	Potentiostatic IDE	Test &Identifier
DATE	LABEL	9/10/2019	Date
TIME	LABEL	8:33:42	Time
NOTES	NOTES	1	&Notes...
	
PSTAT	PSTAT	REF600-11020	Potentiostat
VDC	POTEN	0.00000E+000	T	DC &Voltage (V)
FREQINIT	QUANT	1.00000E+006	Initial Fre&q. (Hz)
FREQFINAL	QUANT	1.00000E+000	Final Fre&q. (Hz)
PTSPERDEC	QUANT	1.00000E+001	Points/&decade
VAC	QUANT	2.50000E+001	AC &Voltage (mV rms)
AREA	QUANT	1.00000E-002	&Area (cm^2)
CONDIT	TWOPARAM	T	5.00000E+000	0.00000E+000	Conditionin&g	Time(s)	E(V)
DELAY	TWOPARAM	T	5.00000E+000	0.00000E+000	Init. De&lay	Time(s)	Stab.(mV/s)
SPEED	SELECTOR	1	&Optimize for:
ZGUESS	QUANT	1.00000E+007	E&stimated Z (ohms)
OCVCURVE	TABLE	19
	Pt	T	Vf	Vm	Ach	Over
	#	s	V vs. Ref.	V	V	bits
	0	0.258333	5.31340E-003	5.31340E-003	5.64299E-004	...........
	1	0.516667	5.31021E-003	5.14635E-003	5.67099E-004	...........
	2	0.775	5.29087E-003	5.00138E-003	5.66266E-004	...........
	3	1.03333	5.23724E-003	4.87446E-003	5.65099E-004	...........
	4	1.29167	5.14416E-003	4.76356E-003	5.67566E-004	...........
	5	1.55	5.02563E-003	4.66323E-003	5.67099E-004	...........
	6	1.80833	4.90155E-003	4.57754E-003	5.63799E-004	...........
	7	2.06667	4.78515E-003	4.49262E-003	5.58199E-004	...........
	8	2.325	4.68093E-003	4.41848E-003	5.64799E-004	...........
	9	2.58333	4.58808E-003	4.34610E-003	5.61699E-004	...........
	10	2.84167	4.50418E-003	4.28256E-003	5.64966E-004	...........
	11	3.1	4.42722E-003	4.21828E-003	5.60166E-004	...........
	12	3.35833	4.35585E-003	4.16047E-003	5.62499E-004	...........
	13	3.61667	4.28903E-003	4.10040E-003	5.65199E-004	...........
	14	3.875	4.22591E-003	4.05148E-003	5.65332E-004	...........
	15	4.13333	4.16606E-003	3.99814E-003	5.64799E-004	...........
	16	4.39167	4.10933E-003	3.94876E-003	5.64966E-004	...........
	17	4.65	4.05536E-003	3.89949E-003	5.68466E-004	...........
	18	4.90833	4.00355E-003	3.85455E-003	5.62132E-004	...........
EOC	QUANT	0.0040035	Open Circuit (V)
PSTATMODEL	IQUANT	4	Pstat Model
PSTATSECTION	LABEL	REF600-11020	Pstat Section
PSTATSERIALNO	LABEL	11020	Pstat Serial Number
CTRLMODE	IQUANT	1	Control Mode
IESTAB	IQUANT	0	I/E Stability
CASPEED	IQUANT	1	Control Amp Speed
CONVENTION	IQUANT	1	Current Convention
ICHRANGE	IQUANT	2	Ich Range
ICHRANGEMODE	TOGGLE	F	Ich Auto Range
ICHOFFSETENABLE	TOGGLE	T	Ich Offset Enable
ICHOFFSET	QUANT	0	Ich Offset (V)
ICHFILTER	IQUANT	3	Ich Filter
VCHRANGE	IQUANT	2	Vch Range
VCHRANGEMODE	TOGGLE	F	Vch Auto Range
VCHOFFSETENABLE	TOGGLE	T	Vch Offset Enable
VCHOFFSET	QUANT	0	Vch Offset (V)
VCHFILTER	IQUANT	3	Vch Filter
ACHRANGE	IQUANT	2	Ach Range
ACHOFFSETENABLE	TOGGLE	F	Ach Offset Enable
ACHOFFSET	QUANT	0	Ach Offset (V)
ACHFILTER	IQUANT	3	Ach Filter
IERANGELOWERLIMIT	IQUANT	1	I/E Range Lower Limit
IERANGEMODE	TOGGLE	F	I/E AutoRange
IERANGE	IQUANT	2	I/E Range
POSFEEDENABLE	TOGGLE	F	Positive Feedback IR Comp
POSFEEDRESISTANCE	QUANT	0	Positive Feedback Resistance (ohm)
ACHSELECT	IQUANT	0	Ach Select
CABLEID	IQUANT	14	Cable ID
DCCALDATE	LABEL	8/19/2019	DC Calibration Date
ACCALDATE	LABEL	8/19/2019	AC Calibration Date
THERMOSELECT	IQUANT	1	Thermo Select
FRAMEWORKVERSION	QUANT	6.33	Framework Version
INSTRUMENTVERSION	LABEL	3.50	Instrument Version
ZCURVE	TABLE
	Pt	Time	Freq	Zreal	Zimag	Zsig	Zmod	Zphz	Idc	Vdc	IERange
	#	s	Hz	ohm	ohm	V	ohm	°	A	V	#
	0	1	1000078	2573.173	-1777.527	1	3127.431	-34.63639	1.257455E-006	0.0063898	8
	1	3	794390.6	2921.638	-1680.599	1	3370.516	-29.90858	4.188336E-006	0.0051596	8
	2	4	630984.4	3236.941	-1528.885	1	3579.843	-25.28248	-1.102866E-006	0.005901	8
	3	6	501234.4	3472.711	-1364.073	1	3731.007	-21.44478	-3.612165E-006	0.0064394	8
	4	7	398109.4	3667.741	-1186.819	1	3854.979	-17.9307	2.240551E-006	0.0052734	8
	5	8	316265.6	3823.503	-1036.129	1	3961.406	-15.1624	2.720188E-007	0.0054955	8
	6	10	251203.1	3922.093	-879.7124	1	4019.541	-12.64202	1.445565E-006	0.0053023	8
	7	11	199546.9	3983.678	-760.5177	1	4055.624	-10.80819	-1.187676E-006	0.0058559	8
	8	12	158578.1	4053.844	-662.6089	1	4107.64	-9.28302	-5.570712E-007	0.0058572	8
	9	14	125953.1	4123.287	-559.3756	1	4161.057	-7.725726	-6.189273E-007	0.006842	7
	10	15	100078.1	4164.587	-504.3945	1	4195.021	-6.90575	-8.38006E-009	0.0055739	7
	11	16	79453.13	4198.154	-474.1881	1	4224.85	-6.444335	-6.173523E-009	0.0055675	7
	12	18	63140.62	4234.163	-455.024	1	4258.542	-6.133747	-2.988767E-008	0.0055645	7
	13	19	50203.12	4273.339	-453.7795	1	4297.364	-6.061439	-6.597E-009	0.0055588	7
	14	20	39890.62	4310.716	-462.257	1	4335.43	-6.120688	-6.236395E-008	0.0057509	7
	15	22	31640.63	4351.257	-482.2791	1	4377.902	-6.324662	6.403206E-009	0.0056424	7
	16	23	25171.88	4394.101	-512.9357	1	4423.938	-6.658164	-3.941954E-009	0.0055218	7
	17	24	20015.62	4439.926	-556.5335	1	4474.67	-7.144619	-5.195161E-008	0.0056594	7
	18	26	15890.62	4493.917	-616.1917	1	4535.966	-7.807528	3.310058E-008	0.0055237	7
	19	27	12609.37	4548.289	-682.1931	1	4599.165	-8.530146	7.860523E-008	0.0055056	7
	20	28	10078.13	4608.826	-764.8314	1	4671.856	-9.422326	4.770146E-009	0.0055512	7
	21	30	8015.625	4675.637	-870.1649	1	4755.919	-10.54249	-3.156915E-008	0.0056389	7
	22	31	6328.125	4751.967	-997.981	1	4855.631	-11.86056	3.714334E-008	0.0054572	7
	23	32	5015.625	4835.351	-1153.043	1	4970.928	-13.41233	-5.068739E-008	0.0056567	7
	24	34	3984.375	4926.306	-1336.072	1	5104.271	-15.17426	-5.872286E-008	0.0056406	7
	25	35	3170.956	5027.794	-1551.337	1	5261.688	-17.14772	3.44242E-008	0.0055335	7
	26	36	2527.573	5139.7	-1815.184	1	5450.817	-19.45166	-4.81558E-008	0.0056571	7
	27	38	1976.103	5276.149	-2163.747	1	5702.591	-22.29852	-1.2166E-009	0.0055236	7
	28	39	1577.524	5411.057	-2547.197	1	5980.614	-25.20821	6.88195E-008	0.0054271	7
	29	40	1265.625	5564.531	-3003.139	1	6323.2	-28.35543	3.672888E-008	0.0055225	7
	30	42	998.264	5751.125	-3599.589	1	6784.724	-32.04216	3.842215E-008	0.0054552	7
	31	43	796.875	5952.88	-4299.973	1	7343.47	-35.84189	-5.923108E-008	0.0056395	7
	32	44	627.7902	6196.773	-5191.618	1	8084.114	-39.95607	3.648214E-008	0.005453	7
	33	46	505.5147	6447.509	-6197.864	1	8943.371	-43.86901	3.54259E-008	0.0054453	7
	34	47	397.9953	6784.769	-7527.136	1	10133.65	-47.96931	1.200031E-009	0.0055216	6
	35	48	315.5048	7162.63	-9129.817	1	11604.17	-51.88469	7.851788E-010	0.0055259	6
	36	50	252.4038	7591.265	-11009.59	1	13373.04	-55.41319	1.111396E-009	0.0055277	6
	37	51	198.6229	8139.724	-13488.56	1	15754.25	-58.89096	9.568897E-010	0.0055264	6
	38	52	158.3615	8764.961	-16370.86	1	18569.59	-61.8354	8.517893E-010	0.0055241	6
	39	54	125.558	9536.88	-19989.05	1	22147.55	-64.49394	1.194698E-009	0.0055228	6
	40	55	100.4464	10464.62	-24246.98	1	26408.79	-66.65571	1.101567E-009	0.0055243	6
	41	56	79.00281	11707.26	-29885.5	1	32096.77	-68.60788	6.827164E-010	0.0055233	6
	42	58	63.3446	12983.17	-36118.33	1	38380.94	-70.22842	9.927037E-010	0.0055209	6
	43	59	49.86702	15193.32	-44725.38	1	47235.54	-71.23725	7.59162E-010	0.0055158	6
	44	60	39.72458	17451.85	-54568.73	1	57291.48	-72.26499	5.063936E-010	0.0055279	6
	45	62	31.6723	20687.84	-66381.23	1	69530.25	-72.69025	9.341248E-010	0.0055215	6
	46	63	24.93351	25072.85	-81764.31	1	85522.22	-72.95196	8.955145E-010	0.0055171	6
	47	64	19.86229	30612.93	-99319.6	1	103930.4	-72.86932	1.15919E-009	0.0055222	6
	48	66	15.83615	37651.73	-120101.3	1	125864.9	-72.5938	5.104289E-010	0.0055254	5
	49	67	12.40079	48376.58	-147430.5	1	155164.5	-71.8337	9.336185E-010	0.0055199	5
	50	68	9.93114	60378.31	-176213	1	186270.2	-71.0863	6.885839E-010	0.0055263	5
	51	70	7.944915	76524.59	-210003.5	1	223511.7	-69.97842	6.942449E-010	0.0055204	5
	52	72	6.317385	97044.7	-250547	1	268684.7	-68.82704	3.775807E-010	0.0055159	5
	53	74	5.008013	123676.6	-297937.4	1	322587.3	-67.45621	2.778959E-011	0.0055163	5
	54	76	3.945707	158295.6	-352542.3	1	386450	-65.81936	4.606224E-010	0.0055329	5
	55	79	3.158693	198543.7	-409846.7	1	455405.3	-64.15287	2.663095E-010	0.0055384	5
	56	82	2.504006	248608.6	-476970.7	1	537872.9	-62.47039	-2.246677E-011	0.0055192	5
	57	85	1.998082	306376.3	-547311.3	1	627228.9	-60.76058	1.6772E-011	0.0055011	5
	58	88	1.584686	375847.5	-623634.6	1	728135.6	-58.92378	8.741877E-011	0.0055515	5
	59	91	1.266892	453153.7	-706059.9	1	838968.9	-57.3074	9.688109E-011	0.0054786	5
	60	96	0.999041	545276.1	-797227.3	1	965866	-55.62921	1.879387E-010	0.0055652	5
