EXPLAIN
TAG	EISPOT
TITLE	LABEL	Potentiostatic EIS	Test &Identifier
DATE	LABEL	11/22/2019	Date
TIME	LABEL	10:20:35	Time
NOTES	NOTES	4	&Notes...
	
	
	
	
PSTAT	PSTAT	REF600-11020	Potentiostat
VDC	POTEN	0.00000E+000	T	DC &Voltage (V)
FREQINIT	QUANT	1.00000E+006	Initial Fre&q. (Hz)
FREQFINAL	QUANT	1.00000E+000	Final Fre&q. (Hz)
PTSPERDEC	QUANT	1.00000E+001	Points/&decade
VAC	QUANT	2.50000E+001	AC &Voltage (mV rms)
AREA	QUANT	1.00000E-002	&Area (cm^2)
CONDIT	TWOPARAM	T	5.00000E+000	0.00000E+000	Conditionin&g	Time(s)	E(V)
DELAY	TWOPARAM	T	5.00000E+000	0.00000E+000	Init. De&lay	Time(s)	Stab.(mV/s)
SPEED	SELECTOR	0	&Optimize for:
ZGUESS	QUANT	1.00000E+005	E&stimated Z (ohms)
OCVCURVE	TABLE	19
	Pt	T	Vf	Vm	Ach	Over
	#	s	V vs. Ref.	V	V	bits
	0	0.258333	4.16614E-003	4.16614E-003	5.57699E-004	...........
	1	0.516667	4.16288E-003	3.99564E-003	5.55933E-004	...........
	2	0.775	4.14317E-003	3.84892E-003	5.56366E-004	...........
	3	1.03333	4.09004E-003	3.79735E-003	5.52266E-004	...........
	4	1.29167	4.00284E-003	3.67354E-003	5.53399E-004	...........
	5	1.55	3.89878E-003	3.59347E-003	5.49299E-004	...........
	6	1.80833	3.79493E-003	3.55685E-003	5.50299E-004	...........
	7	2.06667	3.70044E-003	3.45576E-003	5.55466E-004	...........
	8	2.325	3.61752E-003	3.39468E-003	5.55833E-004	...........
	9	2.58333	3.54325E-003	3.37240E-003	5.60432E-004	...........
	10	2.84167	3.47578E-003	3.29472E-003	5.53233E-004	...........
	11	3.1	3.41544E-003	3.25729E-003	5.55599E-004	...........
	12	3.35833	3.36134E-003	3.24434E-003	5.59332E-004	...........
	13	3.61667	3.31281E-003	3.16682E-003	5.51232E-004	...........
	14	3.875	3.26902E-003	3.15128E-003	5.56933E-004	...........
	15	4.13333	3.22813E-003	3.13294E-003	5.60532E-004	...........
	16	4.39167	3.18988E-003	3.06309E-003	5.60699E-004	...........
	17	4.65	3.15418E-003	3.06296E-003	5.59632E-004	...........
	18	4.90833	3.11978E-003	3.02002E-003	5.56199E-004	...........
EOC	QUANT	0.0031198	Open Circuit (V)
PSTATMODEL	IQUANT	4	Pstat Model
PSTATSECTION	LABEL	REF600-11020	Pstat Section
PSTATSERIALNO	LABEL	11020	Pstat Serial Number
CTRLMODE	IQUANT	1	Control Mode
IESTAB	IQUANT	0	I/E Stability
CASPEED	IQUANT	1	Control Amp Speed
CONVENTION	IQUANT	1	Current Convention
ICHRANGE	IQUANT	2	Ich Range
ICHRANGEMODE	TOGGLE	F	Ich Auto Range
ICHOFFSETENABLE	TOGGLE	T	Ich Offset Enable
ICHOFFSET	QUANT	0	Ich Offset (V)
ICHFILTER	IQUANT	3	Ich Filter
VCHRANGE	IQUANT	2	Vch Range
VCHRANGEMODE	TOGGLE	F	Vch Auto Range
VCHOFFSETENABLE	TOGGLE	T	Vch Offset Enable
VCHOFFSET	QUANT	0	Vch Offset (V)
VCHFILTER	IQUANT	3	Vch Filter
ACHRANGE	IQUANT	2	Ach Range
ACHOFFSETENABLE	TOGGLE	F	Ach Offset Enable
ACHOFFSET	QUANT	0	Ach Offset (V)
ACHFILTER	IQUANT	3	Ach Filter
IERANGELOWERLIMIT	IQUANT	1	I/E Range Lower Limit
IERANGEMODE	TOGGLE	F	I/E AutoRange
IERANGE	IQUANT	4	I/E Range
POSFEEDENABLE	TOGGLE	F	Positive Feedback IR Comp
POSFEEDRESISTANCE	QUANT	0	Positive Feedback Resistance (ohm)
ACHSELECT	IQUANT	0	Ach Select
CABLEID	IQUANT	14	Cable ID
DCCALDATE	LABEL	8/19/2019	DC Calibration Date
ACCALDATE	LABEL	8/19/2019	AC Calibration Date
THERMOSELECT	IQUANT	1	Thermo Select
FRAMEWORKVERSION	QUANT	6.33	Framework Version
INSTRUMENTVERSION	LABEL	3.50	Instrument Version
ZCURVE	TABLE
	Pt	Time	Freq	Zreal	Zimag	Zsig	Zmod	Zphz	Idc	Vdc	IERange
	#	s	Hz	ohm	ohm	V	ohm	°	A	V	#
	0	1	1000078	2328.955	-1750.792	1	2913.641	-36.93401	-7.283676E-006	0.006393	8
	1	1	794390.6	2664.234	-1716.134	1	3169.11	-32.78712	5.155794E-006	0.0042355	8
	2	2	630984.4	3026.481	-1617.579	1	3431.64	-28.1234	1.048052E-006	0.005028	8
	3	2	501234.4	3305.169	-1482.453	1	3622.404	-24.15746	-8.697067E-007	0.0042905	8
	4	2	398109.4	3537.107	-1334.219	1	3780.379	-20.6668	-1.993548E-007	0.0042718	8
	5	2	316265.6	3720.778	-1175.173	1	3901.95	-17.52823	4.122358E-006	0.0044921	8
	6	3	251203.1	3888.942	-1031.333	1	4023.372	-14.85274	-3.839265E-006	0.0051213	8
	7	3	199546.9	4003.361	-896.8284	1	4102.584	-12.62687	-1.509198E-006	0.0043319	8
	8	3	158578.1	4106.044	-675.2401	1	4161.196	-9.338719	-2.557654E-006	0.0050619	8
	9	4	125953.1	4195.255	-612.8828	1	4239.787	-8.311517	2.758742E-006	-0.0013591	7
	10	4	100078.1	4229.089	-537.7427	1	4263.14	-7.246463	-1.264956E-006	0.0056496	7
	11	4	79453.13	4273.542	-495.7138	1	4302.197	-6.616511	1.013756E-006	0.0027659	7
	12	5	63140.62	4314.494	-460.685	1	4339.019	-6.09473	8.049527E-007	0.0026774	7
	13	5	50203.12	4346.906	-435.8376	1	4368.701	-5.725562	-9.315027E-007	0.0062574	7
	14	5	39890.62	4379.94	-422.5058	1	4400.271	-5.509921	-3.044313E-007	0.0059167	7
	15	6	31640.63	4411.979	-427.1604	1	4432.609	-5.530045	-1.271871E-006	0.0060117	7
	16	6	25171.88	4443.957	-442.505	1	4465.933	-5.686457	-1.087587E-006	0.0050508	7
	17	6	20015.62	4480.236	-470.9729	1	4504.923	-6.001026	-3.23959E-007	0.003637	7
	18	7	15890.62	4516.585	-505.5939	1	4544.795	-6.387192	1.014609E-006	0.0027601	7
	19	7	12609.37	4550.25	-558.7245	1	4584.424	-7.000299	1.125045E-006	0.002994	7
	20	7	10078.13	4589.692	-630.558	1	4632.804	-7.822649	1.139898E-006	0.0033348	7
	21	7	8015.625	4629.936	-726.1508	1	4686.534	-8.913555	1.053799E-006	0.0037708	7
	22	8	6328.125	4674.425	-840.329	1	4749.358	-10.1913	1.126664E-006	0.0029921	7
	23	8	5015.625	4720.999	-987.304	1	4823.132	-11.81205	1.188873E-007	0.0030962	7
	24	8	3984.375	4774.357	-1168.381	1	4915.241	-13.75117	-1.137918E-006	0.0061926	7
	25	9	3170.956	4835.998	-1394.617	1	5033.074	-16.08663	8.621261E-007	0.0042813	7
	26	9	2527.573	4900.115	-1668.47	1	5176.381	-18.80351	-1.137921E-006	0.006191	7
	27	9	1976.103	4988.077	-2039.141	1	5388.786	-22.2349	-1.2698E-006	0.0060101	7
	28	10	1577.524	5101.687	-2470.512	1	5668.389	-25.83877	6.306492E-007	0.0047237	7
	29	10	1265.625	5203.678	-2962.016	1	5987.637	-29.64922	1.052418E-006	0.0037649	7
	30	10	998.264	5354.979	-3624.267	1	6466.151	-34.09027	6.303281E-007	0.0047286	7
	31	11	796.875	5530.396	-4388.077	1	7059.781	-38.43014	6.329283E-007	0.004726	7
	32	11	627.7902	5754.427	-5379.921	1	7877.625	-43.07357	5.011606E-007	0.0027738	7
	33	12	505.5147	6014.071	-6470.848	1	8834.077	-47.09531	-1.134414E-006	0.0061894	7
	34	12	397.9953	6356.535	-7946.523	1	10176.09	-51.3432	4.054045E-009	0.0045314	7
	35	12	315.5048	6771.02	-9696.74	1	11826.81	-55.07425	7.065799E-010	0.0044747	6
	36	13	252.4038	7255.996	-11751.09	1	13810.78	-58.30573	1.298381E-010	0.0044649	6
	37	13	198.6229	7905.762	-14443.91	1	16465.95	-61.30624	9.004316E-010	0.0044651	6
	38	13	158.3615	8674.88	-17569.15	1	19594.1	-63.72185	1.702245E-010	0.0044614	6
	39	14	125.558	9686.71	-21477.21	1	23560.62	-65.72354	6.993255E-010	0.0044616	6
	40	14	100.4464	10965.66	-26017.68	1	28234.12	-67.14606	4.570578E-010	0.0044586	6
	41	14	79.00281	12818.58	-32010.6	1	34481.8	-68.17648	-2.218256E-010	0.0044682	6
	42	15	63.3446	14904.02	-39125.94	1	41868.47	-69.14694	-5.696816E-010	0.0044653	6
	43	15	49.86702	17980.5	-47597.13	1	50880.11	-69.30521	-1.671317E-010	0.0044534	6
	44	15	39.72458	22237.37	-57043.46	1	61224.64	-68.70256	5.663597E-010	0.0044647	6
	45	16	31.6723	27605.61	-68276.82	1	73646.41	-67.98559	1.28377E-009	0.0044621	6
	46	16	24.93351	34667.98	-82037.93	1	89062.29	-67.09182	-1.067861E-009	0.0044696	6
	47	16	19.86229	43289.99	-97020.9	1	106240.6	-65.95393	-1.232836E-009	0.0044588	5
	48	16	15.83615	54930.11	-114646.9	1	127126.9	-64.3998	1.513318E-009	0.0044685	5
	49	17	12.40079	68099.99	-133855.1	1	150182.6	-63.03488	5.712091E-010	0.0044689	5
	50	17	9.93114	84381.69	-153353.7	1	175036.1	-61.17855	9.580011E-010	0.0044717	5
	51	18	7.944915	102627.9	-175627.3	1	203414.4	-59.70009	6.306566E-011	0.0044744	5
	52	18	6.317385	124042.8	-200456.6	1	235731.8	-58.25072	-2.257334E-011	0.0044695	5
	53	19	5.008013	148996.4	-228149.4	1	272492.3	-56.85285	3.616534E-010	0.0044734	5
	54	20	3.945707	177966.2	-258933.5	1	314195	-55.49907	1.112149E-011	0.004456	5
	55	22	3.158693	208374.7	-290729.1	1	357691.8	-54.36964	7.412139E-011	0.0044576	5
	56	23	2.504006	243009.1	-327842.9	1	408086.3	-53.45281	3.346422E-010	0.004462	5
	57	25	1.998082	279050.5	-367091	1	461112.8	-52.7591	5.320295E-011	0.004432	5
	58	26	1.584686	319974.4	-414845.1	1	523908.4	-52.35661	-6.632462E-011	0.0044119	5
	59	28	1.266892	360800.2	-467390.1	1	590449.3	-52.33377	2.770686E-012	0.004444	5
	60	31	0.999041	408478.3	-531980.1	1	670714.1	-52.48133	2.377004E-011	0.0044688	5
