EXPLAIN
TAG	EISPOT
TITLE	LABEL	Potentiostatic IDE	Test &Identifier
DATE	LABEL	9/6/2019	Date
TIME	LABEL	8:12:08	Time
NOTES	NOTES	1	&Notes...
	
PSTAT	PSTAT	REF600-11020	Potentiostat
VDC	POTEN	0.00000E+000	T	DC &Voltage (V)
FREQINIT	QUANT	1.00000E+006	Initial Fre&q. (Hz)
FREQFINAL	QUANT	1.00000E+000	Final Fre&q. (Hz)
PTSPERDEC	QUANT	1.00000E+001	Points/&decade
VAC	QUANT	2.50000E+001	AC &Voltage (mV rms)
AREA	QUANT	1.00000E-002	&Area (cm^2)
CONDIT	TWOPARAM	T	5.00000E+000	0.00000E+000	Conditionin&g	Time(s)	E(V)
DELAY	TWOPARAM	T	5.00000E+000	0.00000E+000	Init. De&lay	Time(s)	Stab.(mV/s)
SPEED	SELECTOR	1	&Optimize for:
ZGUESS	QUANT	1.00000E+007	E&stimated Z (ohms)
OCVCURVE	TABLE	19
	Pt	T	Vf	Vm	Ach	Over
	#	s	V vs. Ref.	V	V	bits
	0	0.258333	7.22087E-003	7.22087E-003	5.69999E-004	...........
	1	0.516667	7.21699E-003	7.01763E-003	5.64632E-004	...........
	2	0.775	7.19362E-003	6.85006E-003	5.65932E-004	...........
	3	1.03333	7.12960E-003	6.71407E-003	5.69566E-004	...........
	4	1.29167	7.02048E-003	6.59824E-003	5.70832E-004	...........
	5	1.55	6.88510E-003	6.49774E-003	5.67532E-004	...........
	6	1.80833	6.74788E-003	6.40895E-003	5.68366E-004	...........
	7	2.06667	6.62361E-003	6.33559E-003	5.67699E-004	...........
	8	2.325	6.51651E-003	6.26755E-003	5.67066E-004	...........
	9	2.58333	6.42514E-003	6.20481E-003	5.64832E-004	...........
	10	2.84167	6.34623E-003	6.15152E-003	5.70232E-004	...........
	11	3.1	6.27683E-003	6.10487E-003	5.67966E-004	...........
	12	3.35833	6.21515E-003	6.05900E-003	5.63566E-004	...........
	13	3.61667	6.16007E-003	6.01825E-003	5.69666E-004	...........
	14	3.875	6.11039E-003	5.97795E-003	5.68032E-004	...........
	15	4.13333	6.06493E-003	5.94303E-003	5.68266E-004	...........
	16	4.39167	6.02285E-003	5.90960E-003	5.70666E-004	...........
	17	4.65	5.98379E-003	5.87937E-003	5.65766E-004	...........
	18	4.90833	5.94756E-003	5.84825E-003	5.69932E-004	...........
EOC	QUANT	0.0059476	Open Circuit (V)
PSTATMODEL	IQUANT	4	Pstat Model
PSTATSECTION	LABEL	REF600-11020	Pstat Section
PSTATSERIALNO	LABEL	11020	Pstat Serial Number
CTRLMODE	IQUANT	1	Control Mode
IESTAB	IQUANT	0	I/E Stability
CASPEED	IQUANT	1	Control Amp Speed
CONVENTION	IQUANT	1	Current Convention
ICHRANGE	IQUANT	2	Ich Range
ICHRANGEMODE	TOGGLE	F	Ich Auto Range
ICHOFFSETENABLE	TOGGLE	T	Ich Offset Enable
ICHOFFSET	QUANT	0	Ich Offset (V)
ICHFILTER	IQUANT	3	Ich Filter
VCHRANGE	IQUANT	2	Vch Range
VCHRANGEMODE	TOGGLE	F	Vch Auto Range
VCHOFFSETENABLE	TOGGLE	T	Vch Offset Enable
VCHOFFSET	QUANT	0	Vch Offset (V)
VCHFILTER	IQUANT	3	Vch Filter
ACHRANGE	IQUANT	2	Ach Range
ACHOFFSETENABLE	TOGGLE	F	Ach Offset Enable
ACHOFFSET	QUANT	0	Ach Offset (V)
ACHFILTER	IQUANT	3	Ach Filter
IERANGELOWERLIMIT	IQUANT	1	I/E Range Lower Limit
IERANGEMODE	TOGGLE	F	I/E AutoRange
IERANGE	IQUANT	3	I/E Range
POSFEEDENABLE	TOGGLE	F	Positive Feedback IR Comp
POSFEEDRESISTANCE	QUANT	0	Positive Feedback Resistance (ohm)
ACHSELECT	IQUANT	0	Ach Select
CABLEID	IQUANT	14	Cable ID
DCCALDATE	LABEL	8/19/2019	DC Calibration Date
ACCALDATE	LABEL	8/19/2019	AC Calibration Date
THERMOSELECT	IQUANT	1	Thermo Select
FRAMEWORKVERSION	QUANT	6.33	Framework Version
INSTRUMENTVERSION	LABEL	3.50	Instrument Version
ZCURVE	TABLE
	Pt	Time	Freq	Zreal	Zimag	Zsig	Zmod	Zphz	Idc	Vdc	IERange
	#	s	Hz	ohm	ohm	V	ohm	°	A	V	#
	0	2	1000078	2425.668	-1786.5	1	3012.549	-36.37157	-1.20291E-006	0.0086518	8
	1	4	794390.6	2792.153	-1693.257	1	3265.461	-31.23405	-9.939176E-008	0.0081606	8
	2	5	630984.4	3116.762	-1558.595	1	3484.742	-26.56819	3.352291E-007	0.0078127	8
	3	6	501234.4	3363.776	-1399.464	1	3643.28	-22.58924	3.367887E-006	0.0072077	8
	4	8	398109.4	3568.989	-1228.085	1	3774.371	-18.98829	1.944786E-007	0.0076043	8
	5	9	316265.6	3722.693	-1044.384	1	3866.417	-15.67121	8.344985E-007	0.0074996	8
	6	10	251203.1	3828.36	-897.6246	1	3932.184	-13.19561	-7.673415E-007	0.0079026	8
	7	12	199546.9	3898.827	-788.5437	1	3977.77	-11.43392	1.233308E-006	0.0074652	8
	8	13	158578.1	3972.415	-695.916	1	4032.912	-9.93665	-3.497915E-007	0.007845	8
	9	14	125953.1	4038.734	-589.621	1	4081.547	-8.306022	-6.430786E-007	0.0092227	7
	10	16	100078.1	4075.612	-542.6414	1	4111.578	-7.583957	-3.919519E-008	0.0077087	7
	11	17	79453.13	4115.496	-515.8535	1	4147.699	-7.144433	-1.247277E-008	0.0076427	7
	12	18	63140.62	4153.258	-504.7825	1	4183.821	-6.929679	-2.491671E-008	0.0076748	7
	13	20	50203.12	4192.346	-508.3721	1	4223.056	-6.914042	4.677903E-008	0.0075663	7
	14	21	39890.62	4231.53	-526.5026	1	4264.159	-7.092501	-2.533863E-008	0.0076581	7
	15	22	31640.63	4271.635	-557.6944	1	4307.887	-7.438327	7.585797E-008	0.007533	7
	16	24	25171.88	4316.038	-603.7349	1	4358.059	-7.962965	-7.870637E-009	0.0076666	7
	17	25	20015.62	4363.585	-667.0259	1	4414.272	-8.691063	-2.541676E-008	0.007652	7
	18	26	15890.62	4416.71	-749.6506	1	4479.877	-9.63304	1.820326E-008	0.0076198	7
	19	27	12609.37	4477.824	-853.584	1	4558.456	-10.79251	-2.405408E-008	0.0076538	7
	20	29	10078.13	4544.455	-976.822	1	4648.252	-12.13104	-3.640575E-008	0.0076903	7
	21	30	8015.625	4619.031	-1131.203	1	4755.53	-13.76092	2.955011E-008	0.0075525	7
	22	31	6328.125	4706.248	-1326.244	1	4889.549	-15.7381	-1.128203E-008	0.0076349	7
	23	33	5015.625	4805.858	-1557.714	1	5052.004	-17.95897	3.096437E-008	0.0075488	7
	24	34	3984.375	4922.085	-1838.156	1	5254.116	-20.47818	-3.366876E-009	0.0076617	7
	25	35	3170.956	5054.007	-2168.555	1	5499.602	-23.22302	1.610296E-008	0.0076078	7
	26	37	2527.573	5210.508	-2566.33	1	5808.222	-26.22162	-6.571992E-009	0.0076423	7
	27	38	1976.103	5410.628	-3085.863	1	6228.76	-29.69757	4.59961E-008	0.0075421	7
	28	39	1577.524	5630.632	-3659.802	1	6715.517	-33.02308	3.180634E-008	0.0075487	7
	29	41	1265.625	5883.267	-4330.992	1	7305.5	-36.3588	-2.799666E-008	0.0076971	7
	30	42	998.264	6207.517	-5184.175	1	8087.58	-39.86677	-1.55562E-008	0.0076145	7
	31	43	796.875	6566.823	-6154.928	1	9000.351	-43.14557	-2.057533E-008	0.0077024	7
	32	45	627.7902	7028.129	-7382.264	1	10192.76	-46.40776	1.030433E-008	0.0073948	6
	33	46	505.5147	7504.338	-8716.981	1	11502.21	-49.27526	8.297025E-010	0.0075895	6
	34	47	397.9953	8127.061	-10477.15	1	13259.71	-52.19949	7.654891E-010	0.0075819	6
	35	49	315.5048	8830.252	-12543.21	1	15339.67	-54.85497	6.91618E-010	0.007585	6
	36	50	252.4038	9616.77	-14933.03	1	17761.69	-57.21873	5.095584E-010	0.0075806	6
	37	51	198.6229	10610.87	-18038.2	1	20927.66	-59.53406	8.453405E-010	0.0075776	6
	38	53	158.3615	11726.44	-21602.73	1	24580.22	-61.5059	8.709709E-010	0.0075794	6
	39	54	125.558	13087.08	-26025.31	1	29130.54	-63.30402	6.0849E-010	0.0075817	6
	40	55	100.4464	14671.97	-31160.53	1	34441.91	-64.78654	4.597343E-010	0.0075813	6
	41	57	79.00281	16737.41	-37869.53	1	41403.41	-66.15574	8.371642E-010	0.0075776	6
	42	58	63.3446	18886.97	-45263.76	1	49046.16	-67.35095	5.532738E-010	0.0075786	6
	43	59	49.86702	22218.76	-54965.2	1	59286.14	-67.98981	3.227754E-010	0.007578	6
	44	61	39.72458	25676.7	-66174.65	1	70981.52	-68.79304	4.875808E-010	0.0075892	6
	45	62	31.6723	30180.96	-79580.74	1	85111.6	-69.23079	2.33971E-010	0.0075806	6
	46	63	24.93351	35835.65	-96498.2	1	102937.3	-69.62697	2.862184E-010	0.0075848	6
	47	65	19.86229	42638.75	-115809.4	1	123409.4	-69.78728	6.643796E-010	0.0075872	5
	48	66	15.83615	51459.9	-138853.8	1	148082.7	-69.66505	9.246987E-010	0.007586	5
	49	67	12.40079	62229.26	-168348.8	1	179482	-69.71343	-9.411584E-012	0.00759	5
	50	69	9.93114	75050.76	-201084.7	1	214633.8	-69.53294	5.863796E-010	0.0075853	5
	51	70	7.944915	90596.37	-239735.8	1	256282.9	-69.29838	2.030862E-010	0.0075947	5
	52	72	6.317385	110943.9	-286235.4	1	306984.1	-68.81384	2.415734E-010	0.0076033	5
	53	74	5.008013	136243.7	-342327.1	1	368442.9	-68.29781	2.320695E-012	0.0075793	5
	54	76	3.945707	169207.7	-410109.8	1	443645.5	-67.57939	3.411353E-010	0.0075971	5
	55	79	3.158693	208297.5	-483423.3	1	526389.5	-66.68975	1.461565E-010	0.007603	5
	56	82	2.504006	258277.8	-572807.4	1	628343.6	-65.72948	1.900163E-012	0.0075823	5
	57	85	1.998082	318683.4	-671066.1	1	742892.3	-64.59737	2.836116E-011	0.0075531	5
	58	88	1.584686	394545.5	-783074.8	1	876853.6	-63.25914	3.805768E-011	0.0075972	5
	59	91	1.266892	485904.2	-907328.2	1	1029246	-61.82948	4.160088E-011	0.0075418	4
	60	96	0.999041	599200.7	-1049694	1	1208676	-60.28082	9.821421E-011	0.0076317	4
