EXPLAIN
TAG	EISPOT
TITLE	LABEL	Potentiostatic IDE	Test &Identifier
DATE	LABEL	9/6/2019	Date
TIME	LABEL	7:13:26	Time
NOTES	NOTES	1	&Notes...
	
PSTAT	PSTAT	REF600-11020	Potentiostat
VDC	POTEN	0.00000E+000	T	DC &Voltage (V)
FREQINIT	QUANT	1.00000E+006	Initial Fre&q. (Hz)
FREQFINAL	QUANT	1.00000E+000	Final Fre&q. (Hz)
PTSPERDEC	QUANT	1.00000E+001	Points/&decade
VAC	QUANT	2.50000E+001	AC &Voltage (mV rms)
AREA	QUANT	1.00000E-002	&Area (cm^2)
CONDIT	TWOPARAM	T	5.00000E+000	0.00000E+000	Conditionin&g	Time(s)	E(V)
DELAY	TWOPARAM	T	5.00000E+000	0.00000E+000	Init. De&lay	Time(s)	Stab.(mV/s)
SPEED	SELECTOR	1	&Optimize for:
ZGUESS	QUANT	1.00000E+007	E&stimated Z (ohms)
OCVCURVE	TABLE	19
	Pt	T	Vf	Vm	Ach	Over
	#	s	V vs. Ref.	V	V	bits
	0	0.258333	6.81512E-003	6.81512E-003	5.74665E-004	...........
	1	0.516667	6.81472E-003	6.79399E-003	5.74299E-004	...........
	2	0.775	6.81260E-003	6.79291E-003	5.70532E-004	...........
	3	1.03333	6.80807E-003	6.80536E-003	5.74966E-004	...........
	4	1.29167	6.80354E-003	6.82315E-003	5.75465E-004	...........
	5	1.55	6.80356E-003	6.85142E-003	5.72366E-004	...........
	6	1.80833	6.81157E-003	6.88488E-003	5.76699E-004	...........
	7	2.06667	6.82839E-003	6.91622E-003	5.75899E-004	...........
	8	2.325	6.85276E-003	6.95329E-003	5.77399E-004	...........
	9	2.58333	6.88253E-003	6.99322E-003	5.74499E-004	...........
	10	2.84167	6.91599E-003	7.03205E-003	5.72066E-004	...........
	11	3.1	6.95209E-003	7.06963E-003	5.72066E-004	...........
	12	3.35833	6.98983E-003	7.10866E-003	5.68699E-004	...........
	13	3.61667	7.02833E-003	7.14890E-003	5.70499E-004	...........
	14	3.875	7.06714E-003	7.18815E-003	5.77232E-004	...........
	15	4.13333	7.10630E-003	7.23118E-003	5.77699E-004	...........
	16	4.39167	7.14600E-003	7.27077E-003	5.72599E-004	...........
	17	4.65	7.18632E-003	7.31357E-003	5.74099E-004	...........
	18	4.90833	7.22719E-003	7.35422E-003	5.75732E-004	...........
EOC	QUANT	0.0072272	Open Circuit (V)
PSTATMODEL	IQUANT	4	Pstat Model
PSTATSECTION	LABEL	REF600-11020	Pstat Section
PSTATSERIALNO	LABEL	11020	Pstat Serial Number
CTRLMODE	IQUANT	1	Control Mode
IESTAB	IQUANT	0	I/E Stability
CASPEED	IQUANT	1	Control Amp Speed
CONVENTION	IQUANT	1	Current Convention
ICHRANGE	IQUANT	2	Ich Range
ICHRANGEMODE	TOGGLE	F	Ich Auto Range
ICHOFFSETENABLE	TOGGLE	T	Ich Offset Enable
ICHOFFSET	QUANT	0	Ich Offset (V)
ICHFILTER	IQUANT	3	Ich Filter
VCHRANGE	IQUANT	2	Vch Range
VCHRANGEMODE	TOGGLE	F	Vch Auto Range
VCHOFFSETENABLE	TOGGLE	T	Vch Offset Enable
VCHOFFSET	QUANT	0	Vch Offset (V)
VCHFILTER	IQUANT	3	Vch Filter
ACHRANGE	IQUANT	2	Ach Range
ACHOFFSETENABLE	TOGGLE	F	Ach Offset Enable
ACHOFFSET	QUANT	0	Ach Offset (V)
ACHFILTER	IQUANT	3	Ach Filter
IERANGELOWERLIMIT	IQUANT	1	I/E Range Lower Limit
IERANGEMODE	TOGGLE	F	I/E AutoRange
IERANGE	IQUANT	3	I/E Range
POSFEEDENABLE	TOGGLE	F	Positive Feedback IR Comp
POSFEEDRESISTANCE	QUANT	0	Positive Feedback Resistance (ohm)
ACHSELECT	IQUANT	0	Ach Select
CABLEID	IQUANT	14	Cable ID
DCCALDATE	LABEL	8/19/2019	DC Calibration Date
ACCALDATE	LABEL	8/19/2019	AC Calibration Date
THERMOSELECT	IQUANT	1	Thermo Select
FRAMEWORKVERSION	QUANT	6.33	Framework Version
INSTRUMENTVERSION	LABEL	3.50	Instrument Version
ZCURVE	TABLE
	Pt	Time	Freq	Zreal	Zimag	Zsig	Zmod	Zphz	Idc	Vdc	IERange
	#	s	Hz	ohm	ohm	V	ohm	°	A	V	#
	0	2	1000078	2189.421	-1276.583	1	2534.409	-30.24513	-2.310985E-007	0.0098247	8
	1	4	794390.6	2414.178	-1166.632	1	2681.284	-25.79179	-2.77987E-007	0.0094004	8
	2	5	630984.4	2613.447	-1029.732	1	2808.995	-21.50507	1.315626E-006	0.0089157	8
	3	6	501234.4	2757.793	-904.3951	1	2902.302	-18.15647	-7.052907E-007	0.0091851	8
	4	8	398109.4	2863.991	-778.3864	1	2967.883	-15.20479	-8.534128E-007	0.0091299	8
	5	9	316265.6	2952.663	-671.597	1	3028.078	-12.81418	5.370779E-007	0.008826	8
	6	10	251203.1	3016.362	-582.6314	1	3072.117	-10.93244	-1.91478E-006	0.0093427	8
	7	12	199546.9	3063.122	-504.9382	1	3104.461	-9.360703	-5.832347E-007	0.0090803	8
	8	13	158578.1	3095.983	-451.9263	1	3128.793	-8.304915	2.282886E-006	0.0085106	8
	9	14	125953.1	3148.439	-383.7942	1	3171.745	-6.950057	6.01204E-007	0.0078451	7
	10	16	100078.1	3168.551	-348.4651	1	3187.655	-6.275949	2.401496E-008	0.0088248	7
	11	17	79453.13	3194.506	-336.0475	1	3212.132	-6.005169	2.267259E-008	0.0088196	7
	12	18	63140.62	3221.843	-331.6067	1	3238.863	-5.87645	3.624008E-008	0.0088796	7
	13	20	50203.12	3249.642	-333.4449	1	3266.705	-5.858602	4.252064E-008	0.0088117	7
	14	21	39890.62	3276.651	-345.2972	1	3294.795	-6.015691	4.102826E-008	0.0088089	7
	15	22	31640.63	3307.664	-362.5569	1	3327.475	-6.255285	-5.607825E-009	0.0089094	7
	16	24	25171.88	3339.37	-390.9739	1	3362.18	-6.677796	-1.004042E-009	0.0088899	7
	17	25	20015.62	3372.521	-426.9602	1	3399.44	-7.215246	4.066255E-008	0.0088692	7
	18	26	15890.62	3407.203	-475.8068	1	3440.265	-7.949792	-2.658251E-008	0.0089638	7
	19	28	12609.37	3449.643	-534.4139	1	3490.792	-8.80618	4.346294E-008	0.008787	7
	20	29	10078.13	3492.398	-604.992	1	3544.412	-9.82788	-2.124498E-009	0.008892	7
	21	30	8015.625	3539.667	-695.4409	1	3607.337	-11.11537	-2.091459E-008	0.0089322	7
	22	32	6328.125	3595.475	-809.2067	1	3685.412	-12.68379	2.289196E-010	0.00885	7
	23	33	5015.625	3655.074	-946.0321	1	3775.519	-14.51125	-7.744029E-009	0.0089588	7
	24	34	3984.375	3724.348	-1109.171	1	3886.004	-16.58439	-2.048488E-008	0.0089063	7
	25	35	3170.956	3803.63	-1308.358	1	4022.363	-18.982	1.040065E-008	0.0088603	7
	26	37	2527.573	3894.24	-1543.276	1	4188.891	-21.61828	-5.423368E-009	0.0089169	7
	27	38	1976.103	4010.569	-1857.107	1	4419.673	-24.84665	-5.851597E-009	0.0089511	7
	28	40	1577.524	4135.188	-2202.497	1	4685.166	-28.04079	-2.075206E-008	0.0089065	7
	29	41	1265.625	4279.372	-2606.545	1	5010.698	-31.34539	4.621175E-008	0.0087906	7
	30	42	998.264	4462.431	-3132.138	1	5451.933	-35.06465	-6.602396E-009	0.0089005	7
	31	43	796.875	4667.767	-3733.509	1	5977.218	-38.65453	-1.900494E-008	0.008892	7
	32	45	627.7902	4919.955	-4488.834	1	6660	-42.37648	-8.176911E-009	0.0089113	7
	33	46	505.5147	5198.597	-5310.496	1	7431.472	-45.61005	-4.595507E-009	0.0089207	7
	34	47	397.9953	5562.179	-6425.07	1	8498.197	-49.11728	4.148845E-009	0.0088973	7
	35	49	315.5048	5977.274	-7723.89	1	9766.59	-52.26485	5.166882E-009	0.0088967	7
	36	50	252.4038	6453.292	-9227.652	1	11260.31	-55.03326	7.689249E-010	0.0088291	6
	37	51	198.6229	7060.314	-11181.73	1	13224.19	-57.73106	9.582457E-010	0.0088394	6
	38	53	158.3615	7752.154	-13419.19	1	15497.43	-59.98533	9.857462E-010	0.008829	6
	39	54	125.558	8604.558	-16185.98	1	18330.97	-62.00465	8.354674E-010	0.0088326	6
	40	55	100.4464	9591.78	-19396.61	1	21638.64	-63.68723	7.636025E-010	0.008835	6
	41	57	79.00281	10885.2	-23572.9	1	25964.77	-65.21403	6.548648E-010	0.0088317	6
	42	58	63.3446	12349.55	-28255.37	1	30836.3	-66.39135	3.716883E-010	0.0088282	6
	43	60	49.86702	14253.39	-34179.63	1	37032.5	-67.36317	4.85295E-010	0.0088265	6
	44	61	39.72458	16532.11	-41146.46	1	44343.46	-68.11039	7.933437E-010	0.0088288	6
	45	62	31.6723	19218.73	-49351.67	1	52961.75	-68.72285	6.829764E-010	0.0088253	6
	46	64	24.93351	22744.46	-59845.2	1	64021.54	-69.19046	7.282946E-010	0.0088282	6
	47	65	19.86229	26813.26	-71834.69	1	76675.77	-69.53123	1.280063E-009	0.0088376	6
	48	66	15.83615	31948.19	-86008.54	1	91750.51	-69.6223	1.167941E-009	0.0088274	6
	49	67	12.40079	38381.19	-104560.1	1	111381.9	-69.84317	8.804992E-010	0.0088332	5
	50	69	9.93114	45706.18	-124919.6	1	133018.7	-69.90321	7.04913E-010	0.0088328	5
	51	70	7.944915	54727.07	-149212.8	1	158932.4	-69.85838	-1.560045E-010	0.0088346	5
	52	72	6.317385	66425.84	-179172.8	1	191089.7	-69.65844	-1.200708E-010	0.0088511	5
	53	74	5.008013	81504.35	-215176.1	1	230095	-69.25433	7.644859E-011	0.0088328	5
	54	76	3.945707	101046.3	-258610.3	1	277650.2	-68.65802	3.866935E-010	0.0088394	5
	55	79	3.158693	124226.7	-306672.6	1	330878.2	-67.94814	1.486302E-011	0.0088226	5
	56	82	2.504006	154230.7	-364535.9	1	395820	-67.06738	3.31922E-010	0.008843	5
	57	85	1.998082	190225.7	-428358.6	1	468697	-66.05492	3.698473E-010	0.0088333	5
	58	88	1.584686	237314.9	-504086.3	1	557154.7	-64.78977	6.322939E-011	0.0087899	5
	59	92	1.266892	289212.6	-585574.4	1	653101.3	-63.71544	2.81717E-010	0.0088355	5
	60	96	0.999041	357377.8	-685496	1	773061.2	-62.46508	-1.916513E-010	0.00881	5
