EXPLAIN
TAG	EISPOT
TITLE	LABEL	Potentiostatic IDE	Test &Identifier
DATE	LABEL	9/18/2019	Date
TIME	LABEL	8:29:23	Time
NOTES	NOTES	1	&Notes...
	
PSTAT	PSTAT	REF600-11020	Potentiostat
VDC	POTEN	0.00000E+000	T	DC &Voltage (V)
FREQINIT	QUANT	1.00000E+006	Initial Fre&q. (Hz)
FREQFINAL	QUANT	1.00000E+000	Final Fre&q. (Hz)
PTSPERDEC	QUANT	1.00000E+001	Points/&decade
VAC	QUANT	2.50000E+001	AC &Voltage (mV rms)
AREA	QUANT	1.00000E-002	&Area (cm^2)
CONDIT	TWOPARAM	T	5.00000E+000	0.00000E+000	Conditionin&g	Time(s)	E(V)
DELAY	TWOPARAM	T	5.00000E+000	0.00000E+000	Init. De&lay	Time(s)	Stab.(mV/s)
SPEED	SELECTOR	1	&Optimize for:
ZGUESS	QUANT	1.00000E+007	E&stimated Z (ohms)
OCVCURVE	TABLE	19
	Pt	T	Vf	Vm	Ach	Over
	#	s	V vs. Ref.	V	V	bits
	0	0.258333	1.02212E-002	1.02212E-002	5.68466E-004	...........
	1	0.516667	1.02290E-002	1.06301E-002	5.66366E-004	...........
	2	0.775	1.02762E-002	1.09772E-002	5.62799E-004	...........
	3	1.03333	1.04076E-002	1.13354E-002	5.65466E-004	...........
	4	1.29167	1.06397E-002	1.16704E-002	5.64166E-004	...........
	5	1.55	1.09460E-002	1.19964E-002	5.62332E-004	...........
	6	1.80833	1.12849E-002	1.23012E-002	5.63899E-004	...........
	7	2.06667	1.16253E-002	1.25560E-002	5.68432E-004	...........
	8	2.325	1.19494E-002	1.28099E-002	5.68632E-004	...........
	9	2.58333	1.22511E-002	1.31345E-002	5.61266E-004	...........
	10	2.84167	1.25365E-002	1.34048E-002	5.68132E-004	...........
	11	3.1	1.28176E-002	1.37166E-002	5.66732E-004	...........
	12	3.35833	1.31039E-002	1.40637E-002	5.64599E-004	...........
	13	3.61667	1.33981E-002	1.42476E-002	5.61499E-004	...........
	14	3.875	1.36917E-002	1.44235E-002	5.56466E-004	...........
	15	4.13333	1.39661E-002	1.46828E-002	5.62699E-004	...........
	16	4.39167	1.42121E-002	1.49017E-002	5.57099E-004	...........
	17	4.65	1.44389E-002	1.50960E-002	5.57399E-004	...........
	18	4.90833	1.46570E-002	1.52608E-002	5.60832E-004	...........
EOC	QUANT	0.014657	Open Circuit (V)
PSTATMODEL	IQUANT	4	Pstat Model
PSTATSECTION	LABEL	REF600-11020	Pstat Section
PSTATSERIALNO	LABEL	11020	Pstat Serial Number
CTRLMODE	IQUANT	1	Control Mode
IESTAB	IQUANT	0	I/E Stability
CASPEED	IQUANT	1	Control Amp Speed
CONVENTION	IQUANT	1	Current Convention
ICHRANGE	IQUANT	2	Ich Range
ICHRANGEMODE	TOGGLE	F	Ich Auto Range
ICHOFFSETENABLE	TOGGLE	T	Ich Offset Enable
ICHOFFSET	QUANT	0	Ich Offset (V)
ICHFILTER	IQUANT	3	Ich Filter
VCHRANGE	IQUANT	2	Vch Range
VCHRANGEMODE	TOGGLE	F	Vch Auto Range
VCHOFFSETENABLE	TOGGLE	T	Vch Offset Enable
VCHOFFSET	QUANT	0	Vch Offset (V)
VCHFILTER	IQUANT	3	Vch Filter
ACHRANGE	IQUANT	2	Ach Range
ACHOFFSETENABLE	TOGGLE	F	Ach Offset Enable
ACHOFFSET	QUANT	0	Ach Offset (V)
ACHFILTER	IQUANT	3	Ach Filter
IERANGELOWERLIMIT	IQUANT	1	I/E Range Lower Limit
IERANGEMODE	TOGGLE	F	I/E AutoRange
IERANGE	IQUANT	3	I/E Range
POSFEEDENABLE	TOGGLE	F	Positive Feedback IR Comp
POSFEEDRESISTANCE	QUANT	0	Positive Feedback Resistance (ohm)
ACHSELECT	IQUANT	0	Ach Select
CABLEID	IQUANT	14	Cable ID
DCCALDATE	LABEL	8/19/2019	DC Calibration Date
ACCALDATE	LABEL	8/19/2019	AC Calibration Date
THERMOSELECT	IQUANT	1	Thermo Select
FRAMEWORKVERSION	QUANT	6.33	Framework Version
INSTRUMENTVERSION	LABEL	3.50	Instrument Version
ZCURVE	TABLE
	Pt	Time	Freq	Zreal	Zimag	Zsig	Zmod	Zphz	Idc	Vdc	IERange
	#	s	Hz	ohm	ohm	V	ohm	°	A	V	#
	0	2	1000078	2215.427	-1363.642	1	2601.468	-31.61318	3.00947E-006	0.0166585	8
	1	3	794390.6	2465.192	-1263.998	1	2770.354	-27.14595	-3.768331E-006	0.0172221	8
	2	5	630984.4	2698.052	-1133.274	1	2926.396	-22.78407	4.799434E-006	0.0157546	8
	3	6	501234.4	2869.247	-1000.321	1	3038.622	-19.22036	7.259468E-007	0.0161847	8
	4	7	398109.4	3001.757	-859.7609	1	3122.456	-15.98273	-3.483402E-006	0.0171396	8
	5	9	316265.6	3082.947	-748.2922	1	3172.46	-13.64299	1.085905E-006	0.0163537	8
	6	10	251203.1	3157.045	-644.1514	1	3222.09	-11.53212	-1.061168E-006	0.0165186	8
	7	11	199546.9	3203.055	-549.6923	1	3249.88	-9.73796	-2.905181E-006	0.0170188	8
	8	13	158578.1	3254.754	-478.334	1	3289.715	-8.360609	-9.226544E-007	0.0165032	8
	9	14	125953.1	3306.754	-405.5986	1	3331.536	-6.992836	3.088779E-007	0.0153698	7
	10	15	100078.1	3330.16	-367.9286	1	3350.424	-6.304683	-1.75985E-008	0.0163485	7
	11	17	79453.13	3357.081	-348.8332	1	3375.156	-5.932297	4.782758E-008	0.0162868	7
	12	18	63140.62	3384.666	-339.4567	1	3401.646	-5.727187	1.822982E-008	0.0162451	7
	13	19	50203.12	3412.169	-339.2861	1	3428.996	-5.678492	-3.347877E-008	0.016361	7
	14	21	39890.62	3441.584	-345.5962	1	3458.893	-5.734291	-3.735278E-008	0.0163863	7
	15	22	31640.63	3473.369	-361.673	1	3492.148	-5.944639	1.452618E-008	0.0163302	7
	16	23	25171.88	3507.128	-384.9507	1	3528.191	-6.263847	-3.226143E-008	0.0163542	7
	17	25	20015.62	3545.577	-415.9372	1	3569.89	-6.690877	2.617623E-008	0.016268	7
	18	26	15890.62	3586.335	-457.1786	1	3615.358	-7.264765	6.086064E-008	0.0161636	7
	19	27	12609.37	3632.882	-506.0264	1	3667.955	-7.929743	-2.906257E-008	0.016397	7
	20	28	10078.13	3681.897	-563.3195	1	3724.741	-8.698631	-3.382573E-008	0.0163408	7
	21	30	8015.625	3735.697	-631.5836	1	3788.711	-9.59609	-6.432921E-009	0.0162657	7
	22	31	6328.125	3796.3	-716.614	1	3863.344	-10.68974	-2.655442E-008	0.0164004	7
	23	32	5015.625	3860.498	-816.4676	1	3945.892	-11.94168	-3.289123E-008	0.0163303	7
	24	34	3984.375	3928.697	-935.2527	1	4038.485	-13.39041	-1.480905E-008	0.016321	7
	25	35	3170.956	4001.023	-1078.341	1	4143.791	-15.08375	2.295701E-008	0.0162562	7
	26	36	2527.573	4078.99	-1249.341	1	4266.03	-17.02913	-5.323459E-008	0.0163943	7
	27	38	1976.103	4170.608	-1477.256	1	4424.506	-19.50447	2.85896E-009	0.0162874	7
	28	39	1577.524	4263.792	-1736.362	1	4603.79	-22.15784	-2.606215E-008	0.0163956	7
	29	40	1265.625	4362.417	-2042.745	1	4817	-25.09182	1.345884E-008	0.0163258	7
	30	42	998.264	4480.599	-2441.408	1	5102.571	-28.58527	1.216579E-008	0.0163225	7
	31	43	796.875	4605.763	-2908.669	1	5447.33	-32.27356	3.190257E-009	0.0162868	7
	32	44	627.7902	4753.527	-3522.297	1	5916.3	-36.53793	7.441201E-009	0.0163552	7
	33	46	505.5147	4907.855	-4201.325	1	6460.509	-40.56488	3.661083E-009	0.0162869	7
	34	47	397.9953	5099.448	-5134.079	1	7236.238	-45.19389	5.109567E-009	0.0163311	7
	35	48	315.5048	5320.576	-6257.245	1	8213.504	-49.62527	5.176111E-009	0.016327	7
	36	50	252.4038	5574.723	-7589.333	1	9416.768	-53.70096	5.045341E-009	0.0163255	7
	37	51	198.6229	5914.272	-9360.871	1	11072.69	-57.71498	4.421205E-010	0.0162682	6
	38	53	158.3615	6314.907	-11434.86	1	13062.7	-61.0903	8.004323E-010	0.0162698	6
	39	54	125.558	6844.644	-14052.12	1	15630.46	-64.02976	3.350699E-010	0.0162718	6
	40	55	100.4464	7511.769	-17131.31	1	18705.84	-66.32343	1.829525E-010	0.0162692	6
	41	57	79.00281	8452.098	-21211.51	1	22833.45	-68.27433	8.041167E-010	0.0162685	6
	42	58	63.3446	9619.85	-25662.98	1	27406.75	-69.45132	4.102249E-011	0.016266	6
	43	59	49.86702	11140.54	-31885.07	1	33775.28	-70.74075	7.536871E-010	0.0162669	6
	44	61	39.72458	13255.49	-38722.36	1	40928.34	-71.10284	6.20862E-010	0.0162699	6
	45	62	31.6723	15852.75	-47033.18	1	49632.95	-71.37337	8.89699E-010	0.0162686	6
	46	63	24.93351	19696.88	-57488.13	1	60768.84	-71.08725	5.629642E-010	0.0162674	6
	47	65	19.86229	24386.4	-69358.57	1	73520.8	-70.62838	1.270884E-009	0.0162758	6
	48	66	15.83615	30131.02	-83119.74	1	88412.5	-70.07435	3.063479E-010	0.016271	6
	49	67	12.40079	38838.45	-101114.5	1	108317	-68.98804	1.102082E-010	0.0162771	5
	50	69	9.93114	49029.83	-119205.8	1	128895.1	-67.64244	3.451866E-010	0.01626	5
	51	70	7.944915	61695.54	-140215.9	1	153188.9	-66.25032	-6.658063E-011	0.0162759	5
	52	72	6.317385	77784.95	-165032.8	1	182445.4	-64.76408	-1.884839E-010	0.0162802	5
	53	74	5.008013	97808	-194979.4	1	218136.1	-63.36016	3.447072E-011	0.0162802	5
	54	76	3.945707	123192.8	-227560	1	258766.3	-61.57047	-6.015907E-010	0.0162692	5
	55	79	3.158693	151600.8	-260193.9	1	301137.3	-59.77297	-5.305839E-010	0.0162571	5
	56	82	2.504006	186219.6	-297471.7	1	350951.7	-57.95311	2.143278E-010	0.0162788	5
	57	85	1.998082	225946.2	-335722.3	1	404674.2	-56.05885	-6.786094E-011	0.0163119	5
	58	88	1.584686	270726.9	-377317.8	1	464393.9	-54.34042	-6.305805E-012	0.0162768	5
	59	92	1.266892	321471.9	-419583.1	1	528577.5	-52.54175	-2.56996E-010	0.0163124	5
	60	96	0.999041	378669.7	-466505.4	1	600847.8	-50.93323	-3.357671E-010	0.0162302	5
