EXPLAIN
TAG	EISPOT
TITLE	LABEL	Potentiostatic EIS	Test &Identifier
DATE	LABEL	9/20/2019	Date
TIME	LABEL	10:11:21	Time
NOTES	NOTES	1	&Notes...
	
PSTAT	PSTAT	REF600-11020	Potentiostat
VDC	POTEN	0.00000E+000	T	DC &Voltage (V)
FREQINIT	QUANT	1.00000E+006	Initial Fre&q. (Hz)
FREQFINAL	QUANT	1.00000E+000	Final Fre&q. (Hz)
PTSPERDEC	QUANT	1.00000E+001	Points/&decade
VAC	QUANT	2.50000E+001	AC &Voltage (mV rms)
AREA	QUANT	1.00000E-002	&Area (cm^2)
CONDIT	TWOPARAM	T	5.00000E+000	0.00000E+000	Conditionin&g	Time(s)	E(V)
DELAY	TWOPARAM	T	5.00000E+000	0.00000E+000	Init. De&lay	Time(s)	Stab.(mV/s)
SPEED	SELECTOR	1	&Optimize for:
ZGUESS	QUANT	1.00000E+004	E&stimated Z (ohms)
OCVCURVE	TABLE	19
	Pt	T	Vf	Vm	Ach	Over
	#	s	V vs. Ref.	V	V	bits
	0	0.258333	3.70738E-002	3.70738E-002	5.86232E-004	...........
	1	0.516667	3.71067E-002	3.87978E-002	5.81865E-004	...........
	2	0.775	3.73069E-002	4.03224E-002	5.78299E-004	...........
	3	1.03333	3.78642E-002	4.16848E-002	5.78699E-004	...........
	4	1.29167	3.88380E-002	4.29160E-002	5.81465E-004	...........
	5	1.55	4.00908E-002	4.40340E-002	5.77199E-004	...........
	6	1.80833	4.14223E-002	4.50601E-002	5.78999E-004	...........
	7	2.06667	4.26965E-002	4.60019E-002	5.76232E-004	...........
	8	2.325	4.38618E-002	4.68735E-002	5.80065E-004	...........
	9	2.58333	4.49171E-002	4.76852E-002	5.75932E-004	...........
	10	2.84167	4.58787E-002	4.84394E-002	5.77199E-004	...........
	11	3.1	4.67630E-002	4.91445E-002	5.78199E-004	...........
	12	3.35833	4.75824E-002	4.98086E-002	5.77966E-004	...........
	13	3.61667	4.83456E-002	5.04320E-002	5.81265E-004	...........
	14	3.875	4.90588E-002	5.10058E-002	5.81365E-004	...........
	15	4.13333	4.97263E-002	5.15470E-002	5.77266E-004	...........
	16	4.39167	5.03509E-002	5.20691E-002	5.72132E-004	...........
	17	4.65	5.09365E-002	5.25682E-002	5.71499E-004	...........
	18	4.90833	5.14886E-002	5.30384E-002	5.72432E-004	...........
EOC	QUANT	0.0514886	Open Circuit (V)
PSTATMODEL	IQUANT	4	Pstat Model
PSTATSECTION	LABEL	REF600-11020	Pstat Section
PSTATSERIALNO	LABEL	11020	Pstat Serial Number
CTRLMODE	IQUANT	1	Control Mode
IESTAB	IQUANT	0	I/E Stability
CASPEED	IQUANT	1	Control Amp Speed
CONVENTION	IQUANT	1	Current Convention
ICHRANGE	IQUANT	2	Ich Range
ICHRANGEMODE	TOGGLE	F	Ich Auto Range
ICHOFFSETENABLE	TOGGLE	T	Ich Offset Enable
ICHOFFSET	QUANT	0	Ich Offset (V)
ICHFILTER	IQUANT	3	Ich Filter
VCHRANGE	IQUANT	2	Vch Range
VCHRANGEMODE	TOGGLE	F	Vch Auto Range
VCHOFFSETENABLE	TOGGLE	T	Vch Offset Enable
VCHOFFSET	QUANT	0	Vch Offset (V)
VCHFILTER	IQUANT	3	Vch Filter
ACHRANGE	IQUANT	2	Ach Range
ACHOFFSETENABLE	TOGGLE	F	Ach Offset Enable
ACHOFFSET	QUANT	0	Ach Offset (V)
ACHFILTER	IQUANT	3	Ach Filter
IERANGELOWERLIMIT	IQUANT	1	I/E Range Lower Limit
IERANGEMODE	TOGGLE	F	I/E AutoRange
IERANGE	IQUANT	6	I/E Range
POSFEEDENABLE	TOGGLE	F	Positive Feedback IR Comp
POSFEEDRESISTANCE	QUANT	0	Positive Feedback Resistance (ohm)
ACHSELECT	IQUANT	0	Ach Select
CABLEID	IQUANT	14	Cable ID
DCCALDATE	LABEL	8/19/2019	DC Calibration Date
ACCALDATE	LABEL	8/19/2019	AC Calibration Date
THERMOSELECT	IQUANT	1	Thermo Select
FRAMEWORKVERSION	QUANT	6.33	Framework Version
INSTRUMENTVERSION	LABEL	3.50	Instrument Version
ZCURVE	TABLE
	Pt	Time	Freq	Zreal	Zimag	Zsig	Zmod	Zphz	Idc	Vdc	IERange
	#	s	Hz	ohm	ohm	V	ohm	°	A	V	#
	0	1	1000078	2277.909	-1553.111	1	2756.995	-34.28673	-2.791634E-008	0.0539575	8
	1	3	794390.6	2582.585	-1510.277	1	2991.769	-30.31879	-5.656499E-008	0.0533634	8
	2	4	630984.4	2868.922	-1409.62	1	3196.52	-26.1668	-5.287151E-006	0.0545622	8
	3	5	501234.4	3086.115	-1293.223	1	3346.122	-22.73591	-4.140691E-006	0.0543742	8
	4	7	398109.4	3277.417	-1149.945	1	3473.303	-19.33441	5.282935E-006	0.0522215	8
	5	8	316265.6	3445.66	-1012.91	1	3591.457	-16.3816	-4.842802E-006	0.0542022	8
	6	10	251203.1	3546.448	-891.7676	1	3656.849	-14.11461	-2.502119E-006	0.0535048	8
	7	11	199546.9	3653.346	-775.6807	1	3734.785	-11.98706	4.68191E-006	0.0522407	8
	8	13	158578.1	3740.009	-691.503	1	3803.399	-10.47531	-6.859321E-007	0.0534139	8
	9	14	125953.1	3830.782	-574.136	1	3873.567	-8.523726	1.386565E-006	0.0506249	7
	10	15	100078.1	3874.165	-519.2074	1	3908.802	-7.633176	-5.074831E-008	0.0531254	7
	11	17	79453.13	3919.895	-487.1432	1	3950.049	-7.084086	-5.975112E-008	0.0532559	7
	12	18	63140.62	3964.744	-465.204	1	3991.943	-6.692212	7.379519E-008	0.053038	7
	13	19	50203.12	4005.814	-453.0291	1	4031.35	-6.45233	-5.333616E-008	0.0531803	7
	14	21	39890.62	4050.154	-451.2904	1	4075.219	-6.357985	-4.971852E-008	0.053112	7
	15	22	31640.63	4091.886	-457.896	1	4117.427	-6.385028	-8.403881E-008	0.0532007	7
	16	23	25171.88	4135.984	-474.6279	1	4163.128	-6.546384	-5.817278E-008	0.0532411	7
	17	25	20015.62	4182.813	-500.7998	1	4212.686	-6.827409	7.329042E-008	0.0529127	7
	18	26	15890.62	4235.299	-533.9391	1	4268.823	-7.185304	-1.730782E-008	0.0530317	7
	19	27	12609.37	4286.831	-584.1714	1	4326.451	-7.759964	-5.100617E-008	0.0531028	7
	20	29	10078.13	4340.433	-641.3597	1	4387.562	-8.40543	-5.110619E-008	0.0531005	7
	21	30	8015.625	4400.707	-713.0569	1	4458.102	-9.203781	-4.741349E-008	0.0531151	7
	22	32	6328.125	4465.694	-805.3185	1	4537.727	-10.22253	3.043461E-008	0.0530324	7
	23	33	5015.625	4535.351	-915.0173	1	4626.734	-11.40644	-2.102084E-008	0.0532158	7
	24	34	3984.375	4606.441	-1048.768	1	4724.321	-12.82614	-4.574141E-008	0.0531199	7
	25	36	3170.956	4686.209	-1212.087	1	4840.425	-14.50172	6.987665E-009	0.0530063	7
	26	37	2527.573	4772.299	-1409.723	1	4976.159	-16.45699	-1.552166E-008	0.0531194	7
	27	38	1976.103	4876.726	-1672.711	1	5155.62	-18.93191	3.058776E-008	0.0530361	7
	28	40	1577.524	4981.419	-1967.97	1	5356.066	-21.5571	-4.02891E-008	0.0530907	7
	29	41	1265.625	5098.693	-2313.14	1	5598.865	-24.40252	-5.064208E-008	0.0530968	7
	30	42	998.264	5249.879	-2776.994	1	5939.102	-27.8772	7.362905E-008	0.052903	7
	31	44	796.875	5413.739	-3312.204	1	6346.595	-31.4589	-2.549914E-008	0.053049	7
	32	45	627.7902	5615.678	-4001.968	1	6895.766	-35.47527	-1.908692E-008	0.0531173	7
	33	46	505.5147	5830.725	-4762.217	1	7528.351	-39.24007	5.962902E-008	0.0529499	7
	34	48	397.9953	6117.65	-5792.361	1	8424.79	-43.43552	-2.811283E-009	0.0530941	7
	35	49	315.5048	6458.765	-7021.25	1	9540.1	-47.38941	-1.686086E-009	0.0530938	7
	36	50	252.4038	6867.538	-8459.436	1	10896.11	-50.92962	-7.32509E-009	0.053032	6
	37	52	198.6229	7423.748	-10346.37	1	12734.18	-54.33972	-6.637271E-009	0.0530338	6
	38	53	158.3615	8103.208	-12521.9	1	14915.09	-57.09217	-7.140296E-009	0.0530355	6
	39	54	125.558	9008.229	-15203.93	1	17672.23	-59.35355	-6.820533E-009	0.0530332	6
	40	56	100.4464	10132.04	-18290.77	1	20909.58	-61.01606	-7.72252E-009	0.053029	6
	41	57	79.00281	11726.89	-22277.66	1	25175.66	-62.23783	-7.289894E-009	0.0530318	6
	42	59	63.3446	13843.43	-26678.03	1	30055.92	-62.57486	-7.60901E-009	0.0530279	6
	43	60	49.86702	16256.81	-32042.05	1	35930.17	-63.09866	-7.933354E-009	0.0530291	6
	44	61	39.72458	19774.79	-37950.22	1	42793.24	-62.47726	-7.567095E-009	0.0530301	6
	45	63	31.6723	23899.85	-44750.68	1	50732.89	-61.8948	-7.388138E-009	0.0530244	6
	46	64	24.93351	29718.84	-52825.48	1	60611.39	-60.63853	-6.849544E-009	0.0530231	6
	47	65	19.86229	36358.63	-61221.62	1	71204.2	-59.29454	-8.131562E-009	0.0530254	6
	48	67	15.83615	44977.01	-70542.33	1	83660.93	-57.47886	-4.815711E-009	0.053024	6
	49	68	12.40079	55469.73	-80876.74	1	98071.1	-55.55552	-7.857376E-009	0.053031	6
	50	70	9.93114	66599.69	-90462.77	1	112334.5	-53.63909	-7.815166E-009	0.0530401	5
	51	71	7.944915	79390.97	-100413.5	1	128007	-51.66868	-5.563268E-009	0.0530436	5
	52	73	6.317385	94505.91	-111078.7	1	145841.8	-49.60881	-6.507419E-009	0.0530474	5
	53	75	5.008013	111304.7	-121796.9	1	164994.6	-47.57723	-6.326755E-009	0.0530473	5
	54	77	3.945707	130189.5	-132914.6	1	186052.7	-45.59343	-7.645076E-009	0.0530334	5
	55	80	3.158693	149256.1	-143537.3	1	207075.7	-43.88104	-6.666369E-009	0.0530452	5
	56	83	2.504006	170646.1	-154744.1	1	230360.2	-42.20214	-7.987117E-009	0.053043	5
	57	86	1.998082	191987.6	-165631.7	1	253560.8	-40.78503	-6.735176E-009	0.0529955	5
	58	89	1.584686	215865.5	-178284.6	1	279970.2	-39.55351	-7.559077E-009	0.0530091	5
	59	93	1.266892	239782.3	-190493.9	1	306240.9	-38.46522	-6.610965E-009	0.0529924	5
	60	97	0.999041	267211.6	-205468	1	337074.4	-37.5579	-7.669245E-009	0.053056	5
