EXPLAIN
TAG	EISPOT
TITLE	LABEL	Potentiostatic IDE	Test &Identifier
DATE	LABEL	9/8/2019	Date
TIME	LABEL	8:08:08	Time
NOTES	NOTES	1	&Notes...
	
PSTAT	PSTAT	REF600-11020	Potentiostat
VDC	POTEN	0.00000E+000	T	DC &Voltage (V)
FREQINIT	QUANT	1.00000E+006	Initial Fre&q. (Hz)
FREQFINAL	QUANT	1.00000E+000	Final Fre&q. (Hz)
PTSPERDEC	QUANT	1.00000E+001	Points/&decade
VAC	QUANT	2.50000E+001	AC &Voltage (mV rms)
AREA	QUANT	1.00000E-002	&Area (cm^2)
CONDIT	TWOPARAM	T	5.00000E+000	0.00000E+000	Conditionin&g	Time(s)	E(V)
DELAY	TWOPARAM	T	5.00000E+000	0.00000E+000	Init. De&lay	Time(s)	Stab.(mV/s)
SPEED	SELECTOR	1	&Optimize for:
ZGUESS	QUANT	1.00000E+007	E&stimated Z (ohms)
OCVCURVE	TABLE	19
	Pt	T	Vf	Vm	Ach	Over
	#	s	V vs. Ref.	V	V	bits
	0	0.258333	1.57929E-002	1.57929E-002	5.64366E-004	...........
	1	0.516667	1.58058E-002	1.64695E-002	5.63732E-004	...........
	2	0.775	1.58846E-002	1.70795E-002	5.65132E-004	...........
	3	1.03333	1.61051E-002	1.76489E-002	5.67966E-004	...........
	4	1.29167	1.64942E-002	1.81763E-002	5.63932E-004	...........
	5	1.55	1.70022E-002	1.86694E-002	5.61532E-004	...........
	6	1.80833	1.75531E-002	1.91240E-002	5.57132E-004	...........
	7	2.06667	1.80927E-002	1.95447E-002	5.60699E-004	...........
	8	2.325	1.85974E-002	1.99439E-002	5.63832E-004	...........
	9	2.58333	1.90632E-002	2.03211E-002	5.63999E-004	...........
	10	2.84167	1.94946E-002	2.06779E-002	5.60632E-004	...........
	11	3.1	1.98978E-002	2.10135E-002	5.65599E-004	...........
	12	3.35833	2.02772E-002	2.13278E-002	5.65766E-004	...........
	13	3.61667	2.06349E-002	2.16212E-002	5.61966E-004	...........
	14	3.875	2.09719E-002	2.19055E-002	5.65899E-004	...........
	15	4.13333	2.12895E-002	2.21833E-002	5.68632E-004	...........
	16	4.39167	2.15903E-002	2.24462E-002	5.60599E-004	...........
	17	4.65	2.18774E-002	2.26895E-002	5.57866E-004	...........
	18	4.90833	2.21518E-002	2.29239E-002	5.58599E-004	...........
EOC	QUANT	0.0221518	Open Circuit (V)
PSTATMODEL	IQUANT	4	Pstat Model
PSTATSECTION	LABEL	REF600-11020	Pstat Section
PSTATSERIALNO	LABEL	11020	Pstat Serial Number
CTRLMODE	IQUANT	1	Control Mode
IESTAB	IQUANT	0	I/E Stability
CASPEED	IQUANT	1	Control Amp Speed
CONVENTION	IQUANT	1	Current Convention
ICHRANGE	IQUANT	2	Ich Range
ICHRANGEMODE	TOGGLE	F	Ich Auto Range
ICHOFFSETENABLE	TOGGLE	T	Ich Offset Enable
ICHOFFSET	QUANT	0	Ich Offset (V)
ICHFILTER	IQUANT	3	Ich Filter
VCHRANGE	IQUANT	2	Vch Range
VCHRANGEMODE	TOGGLE	F	Vch Auto Range
VCHOFFSETENABLE	TOGGLE	T	Vch Offset Enable
VCHOFFSET	QUANT	0	Vch Offset (V)
VCHFILTER	IQUANT	3	Vch Filter
ACHRANGE	IQUANT	2	Ach Range
ACHOFFSETENABLE	TOGGLE	F	Ach Offset Enable
ACHOFFSET	QUANT	0	Ach Offset (V)
ACHFILTER	IQUANT	3	Ach Filter
IERANGELOWERLIMIT	IQUANT	1	I/E Range Lower Limit
IERANGEMODE	TOGGLE	F	I/E AutoRange
IERANGE	IQUANT	3	I/E Range
POSFEEDENABLE	TOGGLE	F	Positive Feedback IR Comp
POSFEEDRESISTANCE	QUANT	0	Positive Feedback Resistance (ohm)
ACHSELECT	IQUANT	0	Ach Select
CABLEID	IQUANT	14	Cable ID
DCCALDATE	LABEL	8/19/2019	DC Calibration Date
ACCALDATE	LABEL	8/19/2019	AC Calibration Date
THERMOSELECT	IQUANT	1	Thermo Select
FRAMEWORKVERSION	QUANT	6.33	Framework Version
INSTRUMENTVERSION	LABEL	3.50	Instrument Version
ZCURVE	TABLE
	Pt	Time	Freq	Zreal	Zimag	Zsig	Zmod	Zphz	Idc	Vdc	IERange
	#	s	Hz	ohm	ohm	V	ohm	°	A	V	#
	0	1	1000078	2493.634	-1398.045	1	2858.801	-29.27698	1.242777E-006	0.0239493	8
	1	3	794390.6	2774.06	-1295.59	1	3061.693	-25.03433	6.473587E-007	0.0241144	8
	2	4	630984.4	2976.776	-1154.052	1	3192.652	-21.19057	3.476471E-007	0.0239456	8
	3	6	501234.4	3131.825	-1007.571	1	3289.913	-17.83403	-2.393944E-006	0.0243178	8
	4	7	398109.4	3267.438	-851.5352	1	3376.575	-14.60709	1.15766E-006	0.0237497	8
	5	8	316265.6	3356.828	-743.5414	1	3438.19	-12.48943	-1.871546E-006	0.0242841	8
	6	10	251203.1	3434.479	-640.4637	1	3493.686	-10.56322	1.973974E-006	0.0234166	8
	7	11	199546.9	3480.773	-545.1528	1	3523.205	-8.901258	2.347816E-006	0.0234698	8
	8	13	158578.1	3532.452	-481.0403	1	3565.055	-7.754693	3.00151E-006	0.0231883	8
	9	14	125953.1	3587.539	-390.8715	1	3608.769	-6.217995	6.936E-007	0.0230983	7
	10	15	100078.1	3609.953	-359.3358	1	3627.793	-5.684514	7.609636E-009	0.0238085	7
	11	17	79453.13	3637.228	-346.9638	1	3653.739	-5.449092	-1.070382E-008	0.0239358	7
	12	18	63140.62	3665.174	-343.1762	1	3681.205	-5.349102	2.960321E-008	0.0238659	7
	13	20	50203.12	3697.506	-347.7624	1	3713.824	-5.373048	1.41156E-007	0.0236706	7
	14	21	39890.62	3727.604	-356.7174	1	3744.633	-5.466341	1.428578E-007	0.0236763	7
	15	22	31640.63	3758.409	-381.427	1	3777.714	-5.794897	-2.954544E-008	0.0240361	7
	16	24	25171.88	3792.49	-410.4451	1	3814.635	-6.176839	1.448283E-007	0.0236685	7
	17	25	20015.62	3829.498	-449.6793	1	3855.809	-6.697295	-6.774597E-008	0.0240095	7
	18	26	15890.62	3872.89	-497.3887	1	3904.699	-7.31834	-6.144667E-008	0.0239595	7
	19	28	12609.37	3917.265	-560.7143	1	3957.191	-8.145942	-2.239605E-008	0.0239221	7
	20	29	10078.13	3967.867	-632.1069	1	4017.901	-9.051528	-2.634971E-008	0.0240249	7
	21	30	8015.625	4024.729	-719.8696	1	4088.6	-10.14079	-4.522261E-008	0.0239038	7
	22	32	6328.125	4089.604	-829.071	1	4172.795	-11.46006	-5.974642E-008	0.0239142	7
	23	33	5015.625	4160.806	-957.92	1	4269.651	-12.96498	-3.738559E-008	0.0239996	7
	24	34	3984.375	4240.735	-1111.997	1	4384.104	-14.69319	6.196547E-008	0.0236832	7
	25	36	3170.956	4328.579	-1292.649	1	4517.47	-16.62727	1.481866E-007	0.0236775	7
	26	37	2527.573	4428.119	-1508.438	1	4677.993	-18.8114	-6.610355E-008	0.0239639	7
	27	38	1976.103	4549.447	-1789.706	1	4888.816	-21.47417	8.758926E-008	0.0236843	7
	28	40	1577.524	4672.775	-2102.665	1	5124.064	-24.22689	9.859234E-008	0.0236904	7
	29	41	1265.625	4815.618	-2473.338	1	5413.647	-27.18538	-2.519953E-008	0.0240193	7
	30	42	998.264	4981.614	-2945.275	1	5787.152	-30.59282	5.852803E-008	0.0238984	7
	31	44	796.875	5166.945	-3493.292	1	6237.02	-34.06202	9.389325E-008	0.0236865	7
	32	45	627.7902	5388.429	-4202.382	1	6833.387	-37.95031	9.312526E-008	0.0237004	7
	33	46	505.5147	5618.383	-4983.353	1	7509.996	-41.57215	1.474288E-007	0.0236711	7
	34	48	397.9953	5933.549	-6036.17	1	8464.181	-45.4912	-1.020413E-009	0.0239001	7
	35	49	315.5048	6290.577	-7286.295	1	9626.08	-49.19452	-7.650262E-010	0.0238996	7
	36	50	252.4038	6709.198	-8745.861	1	11022.86	-52.50716	-7.306121E-009	0.0238366	6
	37	52	198.6229	7257.853	-10660.11	1	12896.29	-55.75132	-6.206155E-009	0.023836	6
	38	53	158.3615	7898.12	-12865.9	1	15096.75	-58.45507	-7.010588E-009	0.0238411	6
	39	54	125.558	8720.913	-15603.47	1	17875.2	-60.79881	-6.119061E-009	0.023834	6
	40	56	100.4464	9731.66	-18795.67	1	21165.6	-62.62664	-5.622258E-009	0.0238342	6
	41	57	79.00281	11108.29	-22959.15	1	25505.22	-64.18098	-7.123729E-009	0.0238314	6
	42	58	63.3446	12620.79	-27256.66	1	30036.81	-65.15421	-6.537001E-009	0.0238324	6
	43	60	49.86702	15119.9	-33531.59	1	36782.87	-65.72866	-7.487985E-009	0.0238271	6
	44	61	39.72458	17695.17	-40093.66	1	43824.88	-66.18593	-5.855159E-009	0.0238324	6
	45	62	31.6723	21241.01	-48135.36	1	52613.63	-66.18925	-7.03765E-009	0.0238273	6
	46	64	24.93351	26156.18	-57728.18	1	63377.35	-65.6251	-5.974118E-009	0.0238311	6
	47	65	19.86229	32100.3	-68429.92	1	75584.95	-64.86884	-6.003638E-009	0.0238346	6
	48	66	15.83615	39573.09	-80820.56	1	89988.84	-63.91172	-6.622505E-009	0.0238276	6
	49	68	12.40079	49311.56	-95946.8	1	107876.8	-62.79924	-6.621551E-009	0.0238336	5
	50	69	9.93114	60594.77	-110265.9	1	125818.5	-61.20975	-6.759817E-009	0.023827	5
	51	71	7.944915	74120.6	-126299.6	1	146442.7	-59.59289	-6.83266E-009	0.0238279	5
	52	72	6.317385	90138.58	-144412.1	1	170234.6	-58.02858	-6.296362E-009	0.0238308	5
	53	74	5.008013	109093.2	-164495	1	197382.7	-56.44762	-6.746517E-009	0.0238341	5
	54	77	3.945707	131508.9	-186842.5	1	228483.5	-54.86024	-7.332249E-009	0.023827	5
	55	79	3.158693	154880.4	-209149.7	1	260252.8	-53.47916	-7.379052E-009	0.0238137	5
	56	83	2.504006	182176.7	-234538.2	1	296979	-52.16185	-6.752353E-009	0.02384	5
	57	85	1.998082	211333.4	-261475.1	1	336200.9	-51.05363	-6.487725E-009	0.0238289	5
	58	89	1.584686	245269.4	-291367.7	1	380857.2	-49.90977	-6.944176E-009	0.0237925	5
	59	92	1.266892	281117.4	-324800.8	1	429560.8	-49.12358	-6.739224E-009	0.0238567	5
	60	96	0.999041	324117.7	-363290.7	1	486859.7	-48.26155	-7.303981E-009	0.0238021	5
