EXPLAIN
TAG	EISPOT
TITLE	LABEL	Potentiostatic EIS	Test &Identifier
DATE	LABEL	9/26/2019	Date
TIME	LABEL	9:35:34	Time
NOTES	NOTES	2	&Notes...
	
	
PSTAT	PSTAT	REF600-11020	Potentiostat
VDC	POTEN	0.00000E+000	T	DC &Voltage (V)
FREQINIT	QUANT	1.00000E+006	Initial Fre&q. (Hz)
FREQFINAL	QUANT	1.00000E+000	Final Fre&q. (Hz)
PTSPERDEC	QUANT	1.00000E+001	Points/&decade
VAC	QUANT	2.50000E+001	AC &Voltage (mV rms)
AREA	QUANT	1.00000E-002	&Area (cm^2)
CONDIT	TWOPARAM	T	5.00000E+000	0.00000E+000	Conditionin&g	Time(s)	E(V)
DELAY	TWOPARAM	T	5.00000E+000	0.00000E+000	Init. De&lay	Time(s)	Stab.(mV/s)
SPEED	SELECTOR	1	&Optimize for:
ZGUESS	QUANT	1.00000E+004	E&stimated Z (ohms)
OCVCURVE	TABLE	19
	Pt	T	Vf	Vm	Ach	Over
	#	s	V vs. Ref.	V	V	bits
	0	0.258333	1.70924E-002	1.70924E-002	5.74632E-004	...........
	1	0.516667	1.71057E-002	1.77876E-002	5.66032E-004	...........
	2	0.775	1.71875E-002	1.84578E-002	5.70932E-004	...........
	3	1.03333	1.74195E-002	1.91019E-002	5.70932E-004	...........
	4	1.29167	1.78361E-002	1.97180E-002	5.68699E-004	...........
	5	1.55	1.83920E-002	2.03049E-002	5.68732E-004	...........
	6	1.80833	1.90104E-002	2.08695E-002	5.70532E-004	...........
	7	2.06667	1.96334E-002	2.14114E-002	5.73132E-004	...........
	8	2.325	2.02343E-002	2.19269E-002	5.71599E-004	...........
	9	2.58333	2.08066E-002	2.24279E-002	5.70666E-004	...........
	10	2.84167	2.13520E-002	2.29060E-002	5.71766E-004	...........
	11	3.1	2.18737E-002	2.33687E-002	5.74032E-004	...........
	12	3.35833	2.23742E-002	2.37977E-002	5.72599E-004	...........
	13	3.61667	2.28544E-002	2.42278E-002	5.67232E-004	...........
	14	3.875	2.33148E-002	2.46348E-002	5.71699E-004	...........
	15	4.13333	2.37568E-002	2.50283E-002	5.68599E-004	...........
	16	4.39167	2.41822E-002	2.54113E-002	5.69966E-004	...........
	17	4.65	2.45927E-002	2.57853E-002	5.65632E-004	...........
	18	4.90833	2.49895E-002	2.61448E-002	5.63332E-004	...........
EOC	QUANT	0.0249895	Open Circuit (V)
PSTATMODEL	IQUANT	4	Pstat Model
PSTATSECTION	LABEL	REF600-11020	Pstat Section
PSTATSERIALNO	LABEL	11020	Pstat Serial Number
CTRLMODE	IQUANT	1	Control Mode
IESTAB	IQUANT	0	I/E Stability
CASPEED	IQUANT	1	Control Amp Speed
CONVENTION	IQUANT	1	Current Convention
ICHRANGE	IQUANT	2	Ich Range
ICHRANGEMODE	TOGGLE	F	Ich Auto Range
ICHOFFSETENABLE	TOGGLE	T	Ich Offset Enable
ICHOFFSET	QUANT	0	Ich Offset (V)
ICHFILTER	IQUANT	3	Ich Filter
VCHRANGE	IQUANT	2	Vch Range
VCHRANGEMODE	TOGGLE	F	Vch Auto Range
VCHOFFSETENABLE	TOGGLE	T	Vch Offset Enable
VCHOFFSET	QUANT	0	Vch Offset (V)
VCHFILTER	IQUANT	3	Vch Filter
ACHRANGE	IQUANT	2	Ach Range
ACHOFFSETENABLE	TOGGLE	F	Ach Offset Enable
ACHOFFSET	QUANT	0	Ach Offset (V)
ACHFILTER	IQUANT	3	Ach Filter
IERANGELOWERLIMIT	IQUANT	1	I/E Range Lower Limit
IERANGEMODE	TOGGLE	F	I/E AutoRange
IERANGE	IQUANT	6	I/E Range
POSFEEDENABLE	TOGGLE	F	Positive Feedback IR Comp
POSFEEDRESISTANCE	QUANT	0	Positive Feedback Resistance (ohm)
ACHSELECT	IQUANT	0	Ach Select
CABLEID	IQUANT	14	Cable ID
DCCALDATE	LABEL	8/19/2019	DC Calibration Date
ACCALDATE	LABEL	8/19/2019	AC Calibration Date
THERMOSELECT	IQUANT	1	Thermo Select
FRAMEWORKVERSION	QUANT	6.33	Framework Version
INSTRUMENTVERSION	LABEL	3.50	Instrument Version
ZCURVE	TABLE
	Pt	Time	Freq	Zreal	Zimag	Zsig	Zmod	Zphz	Idc	Vdc	IERange
	#	s	Hz	ohm	ohm	V	ohm	°	A	V	#
	0	2	1000078	1995.971	-2248.956	1	3006.942	-48.41063	-1.623727E-006	0.0274046	8
	1	4	794390.6	2420.254	-2418.639	1	3421.614	-44.98088	-3.647509E-006	0.0279597	8
	2	5	630984.4	2901.523	-2532.094	1	3851.018	-41.11047	-3.00101E-006	0.0276944	8
	3	6	501234.4	3392.158	-2559.497	1	4249.442	-37.03577	9.354793E-008	0.0269526	8
	4	8	398109.4	3901.957	-2553.956	1	4663.47	-33.20603	-3.411001E-006	0.0274138	8
	5	9	316265.6	4400.024	-2483.169	1	5052.36	-29.43836	1.485848E-006	0.0264097	8
	6	11	251203.1	4846.476	-2344.329	1	5383.699	-25.81391	-2.310452E-006	0.0270873	8
	7	12	199546.9	5238.309	-2118.126	1	5650.339	-22.0161	6.976145E-007	0.0267043	8
	8	14	158578.1	5572.954	-1923.024	1	5895.408	-19.0377	-3.095239E-007	0.0267942	8
	9	16	125953.1	5883.238	-1647.73	1	6109.624	-15.64607	3.351356E-007	0.0256067	7
	10	17	100078.1	6071.009	-1448.408	1	6241.397	-13.41866	-1.982299E-009	0.0266388	7
	11	19	79453.13	6230.173	-1284.044	1	6361.119	-11.64565	-2.558493E-008	0.026668	7
	12	20	63140.62	6361.196	-1142.609	1	6463	-10.18298	8.474434E-008	0.0264076	7
	13	22	50203.12	6468.899	-1028.342	1	6550.125	-9.03256	-7.750156E-009	0.02673	7
	14	23	39890.62	6552.846	-941.3073	1	6620.109	-8.174539	7.210104E-008	0.0264652	7
	15	24	31640.63	6632.984	-881.5623	1	6691.311	-7.570576	4.621705E-008	0.0265273	7
	16	26	25171.88	6701.895	-847.8516	1	6755.313	-7.210143	-4.087949E-008	0.0266037	7
	17	27	20015.62	6769.448	-836.7504	1	6820.966	-7.046412	8.522314E-008	0.0264117	7
	18	28	15890.62	6836.661	-848.4565	1	6889.108	-7.07446	-2.960643E-008	0.0265735	7
	19	30	12609.37	6904.6	-885.9703	1	6961.21	-7.312006	9.494979E-008	0.0265304	7
	20	31	10078.13	6966.729	-946.5905	1	7030.744	-7.737566	4.414753E-008	0.0264372	7
	21	32	8015.625	7033.82	-1031.944	1	7109.116	-8.346418	-4.15293E-008	0.0265989	7
	22	34	6328.125	7110.224	-1155.813	1	7203.554	-9.233038	-9.725114E-009	0.0266079	7
	23	35	5015.625	7188.271	-1314.905	1	7307.544	-10.36615	4.305553E-008	0.0264387	7
	24	37	3984.375	7267.723	-1514.778	1	7423.904	-11.77334	8.641283E-008	0.0264012	7
	25	38	3170.956	7359.725	-1766.859	1	7568.84	-13.4996	-4.091609E-008	0.0266302	7
	26	39	2527.573	7466.3	-2080.746	1	7750.815	-15.57235	-2.221962E-008	0.0266616	7
	27	41	1976.103	7600.683	-2497.871	1	8000.608	-18.19247	-2.183766E-009	0.0266263	7
	28	42	1577.524	7732.227	-2967.258	1	8282.025	-20.99441	4.875863E-008	0.0265278	7
	29	43	1265.625	7871.333	-3546.451	1	8633.377	-24.25408	9.600743E-008	0.0265268	7
	30	45	998.264	8065.075	-4275.182	1	9128.122	-27.92743	-2.134154E-008	0.0266579	7
	31	46	796.875	8284.163	-5138.771	1	9748.55	-31.81185	-7.22817E-009	0.0265445	6
	32	47	627.7902	8515.248	-6257.372	1	10567.13	-36.31005	-8.606585E-009	0.0266136	6
	33	49	505.5147	8602.023	-7270.004	1	11262.67	-40.20284	7.888422E-009	0.0265872	6
	34	50	397.9953	8972.896	-8910.363	1	12645.45	-44.79966	2.949779E-009	0.0265436	6
	35	52	315.5048	9409.838	-10876.63	1	14382.15	-49.13551	2.802045E-009	0.0265431	6
	36	53	252.4038	9909.22	-13190.51	1	16497.95	-53.0847	6.138742E-010	0.0265409	6
	37	54	198.6229	10580.18	-16248.07	1	19389.17	-56.92921	1.173702E-009	0.0265397	6
	38	56	158.3615	11391.93	-19804.14	1	22846.88	-60.09122	3.365347E-010	0.0265407	6
	39	57	125.558	12442.72	-24251.03	1	27256.81	-62.83854	9.901349E-010	0.0265352	6
	40	58	100.4464	13704.71	-29452.81	1	32485.18	-65.04694	2.120439E-009	0.0265343	6
	41	60	79.00281	15581.2	-36471.43	1	39660.3	-66.86703	8.694601E-010	0.0265351	6
	42	61	63.3446	18309.66	-44447.71	1	48071.22	-67.61142	8.133061E-010	0.0265307	6
	43	63	49.86702	20600.81	-54587.27	1	58345.21	-69.32388	-4.277119E-010	0.0265333	6
	44	64	39.72458	24868.21	-65744.91	1	70290.98	-69.28073	1.147296E-009	0.0265379	6
	45	65	31.6723	30225.39	-79470.08	1	85023.92	-69.17635	7.856157E-010	0.0265341	6
	46	67	24.93351	37468.45	-96494.6	1	103513.8	-68.77902	3.910756E-010	0.026535	6
	47	68	19.86229	46504.93	-115626.4	1	124628.1	-68.09	9.64586E-010	0.0265495	5
	48	70	15.83615	57886.02	-136840.1	1	148579.9	-67.07069	5.944148E-010	0.0265454	5
	49	71	12.40079	76953.55	-165848	1	182831.7	-65.10868	-8.616308E-010	0.026541	5
	50	73	9.93114	95632.2	-192375.2	1	214834.2	-63.56745	4.530407E-010	0.0265396	5
	51	74	7.944915	119492.1	-222855	1	252869	-61.80034	2.33108E-010	0.0265345	5
	52	76	6.317385	150941	-253359.7	1	294914.1	-59.21529	5.940062E-010	0.0265451	5
	53	78	5.008013	187617.7	-287128.8	1	342991.8	-56.83832	3.409872E-010	0.0265487	5
	54	80	3.945707	229895.3	-322688.2	1	396206.4	-54.53249	-1.722263E-010	0.0265332	5
	55	83	3.158693	273699.2	-357111.8	1	449933.4	-52.53256	2.111081E-010	0.0265462	5
	56	87	2.504006	323215.5	-393490.2	1	509217.8	-50.60008	-3.77267E-010	0.0265425	5
	57	89	1.998082	371758.4	-429642	1	568151.9	-49.13119	1.990118E-010	0.026506	5
	58	92	1.584686	425564.3	-472763.5	1	636089.8	-48.00762	-2.091659E-010	0.0264969	5
	59	96	1.266892	476458.7	-518152.6	1	703914	-47.40042	1.53275E-010	0.0265136	5
	60	100	0.999041	534085.6	-575740.6	1	785318.1	-47.14947	-4.164643E-010	0.0265382	5
