EXPLAIN
TAG	EISPOT
TITLE	LABEL	Potentiostatic EIS	Test &Identifier
DATE	LABEL	10/14/2019	Date
TIME	LABEL	9:21:38	Time
NOTES	NOTES	1	&Notes...
	
PSTAT	PSTAT	REF600-11020	Potentiostat
VDC	POTEN	0.00000E+000	T	DC &Voltage (V)
FREQINIT	QUANT	1.00000E+006	Initial Fre&q. (Hz)
FREQFINAL	QUANT	1.00000E+000	Final Fre&q. (Hz)
PTSPERDEC	QUANT	1.00000E+001	Points/&decade
VAC	QUANT	2.50000E+001	AC &Voltage (mV rms)
AREA	QUANT	1.00000E-002	&Area (cm^2)
CONDIT	TWOPARAM	T	5.00000E+000	0.00000E+000	Conditionin&g	Time(s)	E(V)
DELAY	TWOPARAM	T	5.00000E+000	0.00000E+000	Init. De&lay	Time(s)	Stab.(mV/s)
SPEED	SELECTOR	1	&Optimize for:
ZGUESS	QUANT	1.00000E+004	E&stimated Z (ohms)
OCVCURVE	TABLE	19
	Pt	T	Vf	Vm	Ach	Over
	#	s	V vs. Ref.	V	V	bits
	0	0.258333	6.73614E-003	6.73614E-003	5.72432E-004	...........
	1	0.516667	6.73713E-003	6.78816E-003	5.77332E-004	...........
	2	0.775	6.74337E-003	6.84461E-003	5.76932E-004	...........
	3	1.03333	6.76173E-003	6.91218E-003	5.78332E-004	...........
	4	1.29167	6.79672E-003	6.98493E-003	5.77466E-004	...........
	5	1.55	6.84756E-003	7.05862E-003	5.78999E-004	...........
	6	1.80833	6.91010E-003	7.13511E-003	5.72166E-004	...........
	7	2.06667	6.97993E-003	7.21465E-003	5.73632E-004	...........
	8	2.325	7.05393E-003	7.29278E-003	5.74532E-004	...........
	9	2.58333	7.13029E-003	7.36756E-003	5.76399E-004	...........
	10	2.84167	7.20773E-003	7.44726E-003	5.74099E-004	...........
	11	3.1	7.28537E-003	7.52399E-003	5.75699E-004	...........
	12	3.35833	7.36298E-003	7.60205E-003	5.78099E-004	...........
	13	3.61667	7.44053E-003	7.67661E-003	5.74565E-004	...........
	14	3.875	7.51788E-003	7.75403E-003	5.76966E-004	...........
	15	4.13333	7.59467E-003	7.82163E-003	5.80632E-004	...........
	16	4.39167	7.67044E-003	7.89858E-003	5.79199E-004	...........
	17	4.65	7.74490E-003	7.96677E-003	5.78299E-004	...........
	18	4.90833	7.81812E-003	8.03748E-003	5.78699E-004	...........
EOC	QUANT	0.0078181	Open Circuit (V)
PSTATMODEL	IQUANT	4	Pstat Model
PSTATSECTION	LABEL	REF600-11020	Pstat Section
PSTATSERIALNO	LABEL	11020	Pstat Serial Number
CTRLMODE	IQUANT	1	Control Mode
IESTAB	IQUANT	0	I/E Stability
CASPEED	IQUANT	1	Control Amp Speed
CONVENTION	IQUANT	1	Current Convention
ICHRANGE	IQUANT	2	Ich Range
ICHRANGEMODE	TOGGLE	F	Ich Auto Range
ICHOFFSETENABLE	TOGGLE	T	Ich Offset Enable
ICHOFFSET	QUANT	0	Ich Offset (V)
ICHFILTER	IQUANT	3	Ich Filter
VCHRANGE	IQUANT	2	Vch Range
VCHRANGEMODE	TOGGLE	F	Vch Auto Range
VCHOFFSETENABLE	TOGGLE	T	Vch Offset Enable
VCHOFFSET	QUANT	0	Vch Offset (V)
VCHFILTER	IQUANT	3	Vch Filter
ACHRANGE	IQUANT	2	Ach Range
ACHOFFSETENABLE	TOGGLE	F	Ach Offset Enable
ACHOFFSET	QUANT	0	Ach Offset (V)
ACHFILTER	IQUANT	3	Ach Filter
IERANGELOWERLIMIT	IQUANT	1	I/E Range Lower Limit
IERANGEMODE	TOGGLE	F	I/E AutoRange
IERANGE	IQUANT	6	I/E Range
POSFEEDENABLE	TOGGLE	F	Positive Feedback IR Comp
POSFEEDRESISTANCE	QUANT	0	Positive Feedback Resistance (ohm)
ACHSELECT	IQUANT	0	Ach Select
CABLEID	IQUANT	14	Cable ID
DCCALDATE	LABEL	8/19/2019	DC Calibration Date
ACCALDATE	LABEL	8/19/2019	AC Calibration Date
THERMOSELECT	IQUANT	1	Thermo Select
FRAMEWORKVERSION	QUANT	6.33	Framework Version
INSTRUMENTVERSION	LABEL	3.50	Instrument Version
ZCURVE	TABLE
	Pt	Time	Freq	Zreal	Zimag	Zsig	Zmod	Zphz	Idc	Vdc	IERange
	#	s	Hz	ohm	ohm	V	ohm	°	A	V	#
	0	2	1000078	1360.577	-2205.711	1	2591.589	-58.33194	2.401435E-006	0.0090969	8
	1	3	794390.6	1541.673	-2596.626	1	3019.805	-59.30148	-1.259527E-006	0.0097682	8
	2	4	630984.4	1730.942	-3075.166	1	3528.853	-60.62582	1.619322E-006	0.0093839	8
	3	6	501234.4	2006.588	-3661.195	1	4175.015	-61.27421	4.185383E-006	0.0086539	8
	4	7	398109.4	2347.006	-4364.385	1	4955.431	-61.73027	-3.141216E-006	0.0097542	8
	5	9	316265.6	2823.928	-5189.28	1	5907.893	-61.44563	-4.077731E-006	0.0103041	8
	6	10	251203.1	3394.249	-6093.981	1	6975.495	-60.8829	-1.045591E-006	0.0095419	8
	7	12	199546.9	4168.675	-7281.182	1	8390.081	-60.20769	-8.939667E-007	0.009623	8
	8	14	158578.1	5036.922	-8350.966	1	9752.4	-58.90353	-1.448786E-007	0.0092901	8
	9	16	125953.1	6362.755	-9590.54	1	11509.26	-56.43807	-4.506727E-007	0.0100279	7
	10	17	100078.1	7734.754	-11014.58	1	13459.1	-54.92236	-1.85695E-008	0.0092719	7
	11	19	79453.13	9483.025	-12481.77	1	15675.53	-52.77424	-1.770072E-008	0.0093681	7
	12	20	63140.62	11607.05	-13923.55	1	18127.02	-50.18449	-8.060279E-008	0.0094315	7
	13	22	50203.12	14118.89	-15283.1	1	20806.64	-47.26752	-9.189691E-009	0.0093304	7
	14	23	39890.62	17057.1	-16313.23	1	23602.24	-43.72302	-3.168869E-008	0.0093154	7
	15	25	31640.63	20271.63	-17097.6	1	26519.18	-40.14511	7.784147E-008	0.0091272	7
	16	27	25171.88	23572.05	-17344.16	1	29265.36	-36.34539	-2.691516E-008	0.0092806	7
	17	28	20015.62	26492.7	-16593.9	1	31260.53	-32.06128	-8.791978E-009	0.0093262	7
	18	30	15890.62	30028.79	-16523.32	1	34274.6	-28.82177	-3.104149E-008	0.0093121	7
	19	31	12609.37	33057.02	-15394.91	1	36466.01	-24.97176	1.731274E-008	0.0089135	6
	20	33	10078.13	35387.27	-14406.68	1	38207.48	-22.15197	1.743337E-008	0.0090013	6
	21	34	8015.625	37334.93	-13347.89	1	39649.25	-19.67286	6.824213E-009	0.0090664	6
	22	36	6328.125	39222.94	-12397.18	1	41135.5	-17.54016	-4.461131E-009	0.0092354	6
	23	37	5015.625	40768.27	-11560.77	1	42375.74	-15.83189	5.068832E-009	0.0092352	6
	24	39	3984.375	42009.45	-11021.18	1	43431.1	-14.70027	3.965563E-009	0.0093003	6
	25	40	3170.956	43282.22	-10390.76	1	44512	-13.49952	3.185931E-009	0.009061	6
	26	41	2527.573	44333.62	-10115.4	1	45472.98	-12.85289	-1.096852E-008	0.0093285	6
	27	43	1976.103	45491.51	-9887.19	1	46553.56	-12.26204	1.840447E-009	0.0091242	6
	28	44	1577.524	46243.36	-10056.6	1	47324.23	-12.26915	4.379677E-009	0.0092514	6
	29	45	1265.625	47385.25	-10387.78	1	48510.5	-12.36476	3.015438E-009	0.0090586	6
	30	47	998.264	48424.11	-10914.51	1	49638.9	-12.70188	4.327321E-010	0.009299	6
	31	48	796.875	49366.97	-11662.44	1	50725.84	-13.29184	-7.35729E-009	0.0093918	6
	32	50	627.7902	50446.43	-12801.71	1	52045.42	-14.23928	-6.01705E-009	0.0094067	6
	33	51	505.5147	51464.71	-14152.95	1	53375.3	-15.37641	-3.521491E-009	0.0091453	6
	34	52	397.9953	52739.43	-15994.3	1	55111.39	-16.87099	6.703021E-010	0.0092323	6
	35	54	315.5048	54115.6	-18288.94	1	57122.53	-18.67323	-1.579103E-010	0.0092365	6
	36	55	252.4038	55637.69	-20992.25	1	59466.18	-20.67162	1.102366E-009	0.009234	6
	37	56	198.6229	57555.18	-24543.46	1	62569.8	-23.09503	-2.98079E-011	0.0092336	6
	38	58	158.3615	59711.25	-28584.36	1	66200.45	-25.58089	1.855273E-010	0.0092273	6
	39	59	125.558	62468.18	-33449.17	1	70859.86	-28.16724	7.411338E-011	0.0092317	6
	40	60	100.4464	65458.19	-38817.18	1	76102.22	-30.66825	9.337933E-010	0.0092239	6
	41	62	79.00281	69708.98	-46157.69	1	83605.47	-33.51047	-2.718246E-010	0.0092233	6
	42	63	63.3446	75322.86	-52358.31	1	91732.91	-34.80388	-3.555196E-010	0.0092233	6
	43	65	49.86702	79856.98	-63590.39	1	102082.7	-38.53043	5.100027E-010	0.0092276	5
	44	66	39.72458	86262.34	-72825.2	1	112892.4	-40.17204	-1.419363E-010	0.0092327	5
	45	67	31.6723	93543.35	-84090.99	1	125784.2	-41.95403	9.277112E-010	0.0092293	5
	46	69	24.93351	103385.8	-98065.8	1	142497.4	-43.48727	3.76312E-010	0.009226	5
	47	70	19.86229	113876	-113237.2	1	160593.9	-44.83885	8.216087E-010	0.0092297	5
	48	72	15.83615	126173	-130466.3	1	181496.8	-45.95842	-6.649305E-010	0.0092283	5
	49	73	12.40079	143254.8	-152254.8	1	209053.7	-46.74445	-4.375516E-010	0.0092282	5
	50	75	9.93114	158957.3	-172167.6	1	234326.9	-47.28461	2.987906E-010	0.0092213	5
	51	76	7.944915	178099.5	-195960.2	1	264801.5	-47.73371	-2.525127E-010	0.0092251	5
	52	78	6.317385	198597	-223523.7	1	299004.4	-48.37946	4.793144E-011	0.0092148	5
	53	80	5.008013	223049	-255908.5	1	339470.2	-48.9247	-1.358098E-010	0.009231	5
	54	82	3.945707	250847.1	-294410.9	1	386784.3	-49.56799	-2.479439E-010	0.0092266	5
	55	85	3.158693	279815.3	-333889.2	1	435635.8	-50.03536	1.280838E-009	0.0092341	5
	56	88	2.504006	315478.2	-386520.4	1	498923.4	-50.77866	-4.376195E-010	0.0092385	5
	57	91	1.998082	353424.8	-443147.3	1	566823.3	-51.42646	5.025392E-011	0.0091857	5
	58	94	1.584686	397171.6	-511895.2	1	647905.9	-52.19267	-1.708636E-010	0.0092337	5
	59	98	1.266892	449089.8	-589308.3	1	740922.3	-52.69033	-6.705161E-011	0.0091809	5
	60	102	0.999041	511466.7	-684135.8	1	854189.7	-53.21785	-6.954933E-011	0.0092655	5
