EXPLAIN
TAG	EISPOT
TITLE	LABEL	Potentiostatic EIS	Test &Identifier
DATE	LABEL	11/7/2019	Date
TIME	LABEL	11:11:51	Time
NOTES	NOTES	2	&Notes...
	
	
PSTAT	PSTAT	REF600-11020	Potentiostat
VDC	POTEN	0.00000E+000	T	DC &Voltage (V)
FREQINIT	QUANT	1.00000E+006	Initial Fre&q. (Hz)
FREQFINAL	QUANT	1.00000E+000	Final Fre&q. (Hz)
PTSPERDEC	QUANT	1.00000E+001	Points/&decade
VAC	QUANT	2.50000E+001	AC &Voltage (mV rms)
AREA	QUANT	1.00000E-002	&Area (cm^2)
CONDIT	TWOPARAM	T	5.00000E+000	0.00000E+000	Conditionin&g	Time(s)	E(V)
DELAY	TWOPARAM	T	5.00000E+000	0.00000E+000	Init. De&lay	Time(s)	Stab.(mV/s)
SPEED	SELECTOR	1	&Optimize for:
ZGUESS	QUANT	1.00000E+005	E&stimated Z (ohms)
OCVCURVE	TABLE	19
	Pt	T	Vf	Vm	Ach	Over
	#	s	V vs. Ref.	V	V	bits
	0	0.258333	4.82212E-003	4.82212E-003	5.32333E-004	...........
	1	0.516667	4.81968E-003	4.69441E-003	5.26600E-004	...........
	2	0.775	4.80496E-003	4.58714E-003	5.28133E-004	...........
	3	1.03333	4.76475E-003	4.51323E-003	5.32600E-004	...........
	4	1.29167	4.69728E-003	4.46029E-003	5.34633E-004	...........
	5	1.55	4.61636E-003	4.40673E-003	5.20966E-004	...........
	6	1.80833	4.53864E-003	4.37270E-003	5.14166E-004	...........
	7	2.06667	4.47292E-003	4.33912E-003	5.32233E-004	...........
	8	2.325	4.42032E-003	4.30857E-003	5.32166E-004	...........
	9	2.58333	4.37844E-003	4.29348E-003	5.21800E-004	...........
	10	2.84167	4.34471E-003	4.27540E-003	5.17300E-004	...........
	11	3.1	4.31761E-003	4.26079E-003	5.27766E-004	...........
	12	3.35833	4.29571E-003	4.23811E-003	5.27600E-004	...........
	13	3.61667	4.27696E-003	4.22711E-003	5.19066E-004	...........
	14	3.875	4.25953E-003	4.20573E-003	5.22933E-004	...........
	15	4.13333	4.24265E-003	4.19750E-003	5.30099E-004	...........
	16	4.39167	4.22667E-003	4.19481E-003	5.32200E-004	...........
	17	4.65	4.21277E-003	4.18454E-003	5.18733E-004	...........
	18	4.90833	4.20183E-003	4.18082E-003	5.15666E-004	...........
EOC	QUANT	0.0042018	Open Circuit (V)
PSTATMODEL	IQUANT	4	Pstat Model
PSTATSECTION	LABEL	REF600-11020	Pstat Section
PSTATSERIALNO	LABEL	11020	Pstat Serial Number
CTRLMODE	IQUANT	1	Control Mode
IESTAB	IQUANT	0	I/E Stability
CASPEED	IQUANT	1	Control Amp Speed
CONVENTION	IQUANT	1	Current Convention
ICHRANGE	IQUANT	2	Ich Range
ICHRANGEMODE	TOGGLE	F	Ich Auto Range
ICHOFFSETENABLE	TOGGLE	T	Ich Offset Enable
ICHOFFSET	QUANT	0	Ich Offset (V)
ICHFILTER	IQUANT	3	Ich Filter
VCHRANGE	IQUANT	2	Vch Range
VCHRANGEMODE	TOGGLE	F	Vch Auto Range
VCHOFFSETENABLE	TOGGLE	T	Vch Offset Enable
VCHOFFSET	QUANT	0	Vch Offset (V)
VCHFILTER	IQUANT	3	Vch Filter
ACHRANGE	IQUANT	2	Ach Range
ACHOFFSETENABLE	TOGGLE	F	Ach Offset Enable
ACHOFFSET	QUANT	0	Ach Offset (V)
ACHFILTER	IQUANT	3	Ach Filter
IERANGELOWERLIMIT	IQUANT	1	I/E Range Lower Limit
IERANGEMODE	TOGGLE	F	I/E AutoRange
IERANGE	IQUANT	4	I/E Range
POSFEEDENABLE	TOGGLE	F	Positive Feedback IR Comp
POSFEEDRESISTANCE	QUANT	0	Positive Feedback Resistance (ohm)
ACHSELECT	IQUANT	0	Ach Select
CABLEID	IQUANT	14	Cable ID
DCCALDATE	LABEL	8/19/2019	DC Calibration Date
ACCALDATE	LABEL	8/19/2019	AC Calibration Date
THERMOSELECT	IQUANT	1	Thermo Select
FRAMEWORKVERSION	QUANT	6.33	Framework Version
INSTRUMENTVERSION	LABEL	3.50	Instrument Version
ZCURVE	TABLE
	Pt	Time	Freq	Zreal	Zimag	Zsig	Zmod	Zphz	Idc	Vdc	IERange
	#	s	Hz	ohm	ohm	V	ohm	°	A	V	#
	0	1	1000078	2310.444	-1648.257	1	2838.116	-35.50383	2.652647E-006	0.0070375	8
	1	3	794390.6	2628.581	-1597.19	1	3075.785	-31.28389	-7.607831E-006	0.0065794	8
	2	4	630984.4	2936.432	-1504.12	1	3299.243	-27.12275	4.164626E-006	0.0063282	8
	3	6	501234.4	3190.753	-1387.995	1	3479.574	-23.50929	-8.159695E-006	0.0069534	8
	4	7	398109.4	3405.324	-1253.452	1	3628.688	-20.20794	8.962052E-006	0.0049336	8
	5	9	316265.6	3594.851	-1107.617	1	3761.618	-17.1247	-9.786634E-007	0.0063277	8
	6	10	251203.1	3738.869	-991.083	1	3867.995	-14.84627	7.014141E-006	0.0049381	8
	7	12	199546.9	3848.887	-870.929	1	3946.194	-12.75021	6.74194E-006	0.004944	8
	8	14	158578.1	3943.187	-802.6863	1	4024.056	-11.50608	-3.328363E-006	0.0064216	8
	9	15	125953.1	4051.31	-616.2127	1	4097.906	-8.64852	-8.594343E-007	0.0096763	7
	10	17	100078.1	4106.646	-545.409	1	4142.706	-7.565254	6.305937E-008	0.006896	7
	11	18	79453.13	4147.196	-513.9285	1	4178.918	-7.064189	1.590365E-007	0.0041301	7
	12	19	63140.62	4193.057	-486.1694	1	4221.148	-6.613701	-3.343057E-007	0.0047243	7
	13	21	50203.12	4234.522	-469.8636	1	4260.51	-6.331653	-1.41266E-006	0.0069803	7
	14	22	39890.62	4278.648	-462.7934	1	4303.604	-6.173311	-3.351089E-007	0.0047196	7
	15	23	31640.63	4323.576	-467.3005	1	4348.756	-6.168694	1.569143E-007	0.0041248	7
	16	25	25171.88	4369.952	-483.4594	1	4396.614	-6.31311	5.860494E-007	0.0037875	7
	17	26	20015.62	4415.723	-503.5787	1	4444.345	-6.506028	1.57105E-007	0.0041274	7
	18	28	15890.62	4472.043	-534.8382	1	4503.912	-6.81995	1.572253E-007	0.0041219	7
	19	29	12609.37	4528.093	-571.2774	1	4563.988	-7.190611	9.557294E-007	0.0055208	7
	20	30	10078.13	4585.419	-624.4515	1	4627.744	-7.754947	9.254519E-007	0.0036697	7
	21	32	8015.625	4636.755	-689.0732	1	4687.677	-8.452922	-1.20456E-006	0.0063086	7
	22	33	6328.125	4701.573	-767.5332	1	4763.811	-9.271765	5.876761E-007	0.0037818	7
	23	34	5015.625	4760.529	-864.6938	1	4838.422	-10.29486	4.385918E-007	0.0063764	7
	24	36	3984.375	4815.347	-982.878	1	4914.633	-11.53638	-1.412922E-006	0.0069774	7
	25	37	3170.956	4882.632	-1132.108	1	5012.162	-13.05418	-7.384717E-007	0.0076046	7
	26	39	2527.573	4954.171	-1317.255	1	5126.302	-14.88976	9.570406E-007	0.0055142	7
	27	40	1976.103	5033.376	-1574.542	1	5273.903	-17.37074	1.176038E-006	0.0049363	7
	28	41	1577.524	5091.891	-1863.911	1	5422.317	-20.1054	-3.540475E-007	0.0073301	7
	29	43	1265.625	5190.565	-2217.63	1	5644.453	-23.13424	9.564154E-007	0.0055113	7
	30	44	998.264	5301.039	-2691.663	1	5945.256	-26.9197	7.0239E-007	0.0059933	7
	31	46	796.875	5416.618	-3250.735	1	6317.201	-30.9697	1.276003E-006	0.0040385	7
	32	47	627.7902	5572.625	-3980.586	1	6848.3	-35.53863	7.033746E-007	0.0059955	7
	33	49	505.5147	5741.925	-4793.545	1	7479.824	-39.85622	1.609758E-007	0.0041167	7
	34	50	397.9953	5974.853	-5889.453	1	8389.548	-44.58759	3.52985E-009	0.0057609	7
	35	51	315.5048	6263.076	-7211.16	1	9551.28	-49.02485	3.983454E-009	0.0057633	7
	36	53	252.4038	6619.546	-8759.073	1	10979.06	-52.92035	3.46243E-009	0.0057022	6
	37	54	198.6229	7102.079	-10792.57	1	12919.71	-56.65297	1.938702E-010	0.0057022	6
	38	56	158.3615	7693.48	-13135	1	15222.28	-59.64149	1.682026E-009	0.00569	6
	39	57	125.558	8461.094	-16040.23	1	18135.03	-62.18872	5.11465E-010	0.0057008	6
	40	58	100.4464	9419.906	-19435.55	1	21598.04	-64.14174	9.923237E-011	0.0056962	6
	41	60	79.00281	10685.84	-23720.4	1	26016.24	-65.74883	1.155968E-009	0.0056956	6
	42	61	63.3446	12377.25	-28335.96	1	30921.24	-66.40412	4.873308E-010	0.0056839	6
	43	63	49.86702	14357.72	-35154.06	1	37973.05	-67.78378	1.3369E-010	0.005685	6
	44	64	39.72458	16776.53	-42184.38	1	45397.95	-68.31252	1.041927E-010	0.0056967	6
	45	65	31.6723	19860.43	-50888.24	1	54626.46	-68.68052	1.279928E-009	0.0056954	6
	46	67	24.93351	24112.34	-61588.09	1	66139.99	-68.61917	-2.011983E-010	0.0056995	6
	47	68	19.86229	29422.02	-73949.65	1	79587.72	-68.30409	4.986374E-010	0.0056816	6
	48	69	15.83615	35709.03	-88472.59	1	95407.2	-68.02016	-5.732178E-010	0.0056781	6
	49	71	12.40079	44945.48	-105826.6	1	114975.5	-66.98864	-2.104797E-011	0.0057086	5
	50	72	9.93114	56098.82	-124762.8	1	136794.9	-65.78923	8.001784E-010	0.0056907	5
	51	74	7.944915	68501.77	-146365	1	161602	-64.91946	5.901017E-010	0.005698	5
	52	76	6.317385	85507.79	-169847.4	1	190157.1	-63.27753	7.008627E-010	0.0056915	5
	53	78	5.008013	105379.1	-197038.9	1	223448.2	-61.86152	3.768137E-010	0.0057081	5
	54	80	3.945707	128731.7	-227963.7	1	261800.1	-60.54647	1.527214E-010	0.0056853	5
	55	83	3.158693	152944.3	-259875.3	1	301541.2	-59.52193	2.82724E-010	0.0057141	5
	56	86	2.504006	181265	-297544.8	1	348410.6	-58.65013	-2.352061E-010	0.005692	5
	57	89	1.998082	210877.1	-339241.4	1	399441.9	-58.13435	-1.085945E-010	0.0056661	5
	58	92	1.584686	244128	-387759	1	458209	-57.80602	5.511899E-011	0.005731	5
	59	96	1.266892	278246.8	-445451.6	1	525212.7	-58.00946	-8.276807E-011	0.0056868	5
	60	100	0.999041	319897.1	-518176.3	1	608967	-58.31082	3.178154E-010	0.0057225	5
