EXPLAIN
TAG	EISPOT
TITLE	LABEL	Potentiostatic IDE	Test &Identifier
DATE	LABEL	9/12/2019	Date
TIME	LABEL	9:47:18	Time
NOTES	NOTES	1	&Notes...
	
PSTAT	PSTAT	REF600-11020	Potentiostat
VDC	POTEN	0.00000E+000	T	DC &Voltage (V)
FREQINIT	QUANT	1.00000E+006	Initial Fre&q. (Hz)
FREQFINAL	QUANT	1.00000E+000	Final Fre&q. (Hz)
PTSPERDEC	QUANT	1.00000E+001	Points/&decade
VAC	QUANT	2.50000E+001	AC &Voltage (mV rms)
AREA	QUANT	1.00000E-002	&Area (cm^2)
CONDIT	TWOPARAM	T	5.00000E+000	0.00000E+000	Conditionin&g	Time(s)	E(V)
DELAY	TWOPARAM	T	5.00000E+000	0.00000E+000	Init. De&lay	Time(s)	Stab.(mV/s)
SPEED	SELECTOR	1	&Optimize for:
ZGUESS	QUANT	1.00000E+007	E&stimated Z (ohms)
OCVCURVE	TABLE	19
	Pt	T	Vf	Vm	Ach	Over
	#	s	V vs. Ref.	V	V	bits
	0	0.258333	2.58669E-003	2.58669E-003	5.31600E-004	...........
	1	0.516667	2.58047E-003	2.26119E-003	5.42166E-004	...........
	2	0.775	2.54255E-003	1.96628E-003	5.45299E-004	...........
	3	1.03333	2.43630E-003	1.69197E-003	5.40499E-004	...........
	4	1.29167	2.24881E-003	1.43945E-003	5.38833E-004	...........
	5	1.55	2.00410E-003	1.20488E-003	5.40066E-004	...........
	6	1.80833	1.73907E-003	9.81971E-004	5.39166E-004	...........
	7	2.06667	1.47951E-003	7.69265E-004	5.35633E-004	...........
	8	2.325	1.23550E-003	5.67512E-004	5.38899E-004	...........
	9	2.58333	1.00747E-003	3.72729E-004	5.38566E-004	...........
	10	2.84167	7.92862E-004	1.92847E-004	5.42599E-004	...........
	11	3.1	5.89423E-004	1.41960E-005	5.38766E-004	...........
	12	3.35833	3.95701E-004	-1.58209E-004	5.40333E-004	...........
	13	3.61667	2.10314E-004	-3.23691E-004	5.34666E-004	...........
	14	3.875	3.19392E-005	-4.83225E-004	5.37566E-004	...........
	15	4.13333	-1.40212E-004	-6.38480E-004	5.44766E-004	...........
	16	4.39167	-3.06498E-004	-7.88216E-004	5.42633E-004	...........
	17	4.65	-4.67184E-004	-9.32049E-004	5.43066E-004	...........
	18	4.90833	-6.22496E-004	-1.07297E-003	5.42366E-004	...........
EOC	QUANT	-0.0006225	Open Circuit (V)
PSTATMODEL	IQUANT	4	Pstat Model
PSTATSECTION	LABEL	REF600-11020	Pstat Section
PSTATSERIALNO	LABEL	11020	Pstat Serial Number
CTRLMODE	IQUANT	1	Control Mode
IESTAB	IQUANT	0	I/E Stability
CASPEED	IQUANT	1	Control Amp Speed
CONVENTION	IQUANT	1	Current Convention
ICHRANGE	IQUANT	2	Ich Range
ICHRANGEMODE	TOGGLE	F	Ich Auto Range
ICHOFFSETENABLE	TOGGLE	T	Ich Offset Enable
ICHOFFSET	QUANT	0	Ich Offset (V)
ICHFILTER	IQUANT	3	Ich Filter
VCHRANGE	IQUANT	2	Vch Range
VCHRANGEMODE	TOGGLE	F	Vch Auto Range
VCHOFFSETENABLE	TOGGLE	T	Vch Offset Enable
VCHOFFSET	QUANT	0	Vch Offset (V)
VCHFILTER	IQUANT	3	Vch Filter
ACHRANGE	IQUANT	2	Ach Range
ACHOFFSETENABLE	TOGGLE	F	Ach Offset Enable
ACHOFFSET	QUANT	0	Ach Offset (V)
ACHFILTER	IQUANT	3	Ach Filter
IERANGELOWERLIMIT	IQUANT	1	I/E Range Lower Limit
IERANGEMODE	TOGGLE	F	I/E AutoRange
IERANGE	IQUANT	2	I/E Range
POSFEEDENABLE	TOGGLE	F	Positive Feedback IR Comp
POSFEEDRESISTANCE	QUANT	0	Positive Feedback Resistance (ohm)
ACHSELECT	IQUANT	0	Ach Select
CABLEID	IQUANT	14	Cable ID
DCCALDATE	LABEL	8/19/2019	DC Calibration Date
ACCALDATE	LABEL	8/19/2019	AC Calibration Date
THERMOSELECT	IQUANT	1	Thermo Select
FRAMEWORKVERSION	QUANT	6.33	Framework Version
INSTRUMENTVERSION	LABEL	3.50	Instrument Version
ZCURVE	TABLE
	Pt	Time	Freq	Zreal	Zimag	Zsig	Zmod	Zphz	Idc	Vdc	IERange
	#	s	Hz	ohm	ohm	V	ohm	°	A	V	#
	0	2	1000078	2488.263	-1623.492	1	2971.056	-33.12284	-6.615425E-006	0.0030988	8
	1	3	794390.6	2815.998	-1518.227	1	3199.196	-28.33105	1.469052E-006	0.0018329	8
	2	4	630984.4	3078.498	-1369.611	1	3369.419	-23.98408	5.88914E-006	0.0002542	8
	3	6	501234.4	3300.57	-1186.603	1	3507.39	-19.77426	-2.944806E-006	0.001634	8
	4	7	398109.4	3447.52	-1050.498	1	3604.017	-16.94658	-1.776536E-006	0.0015522	8
	5	9	316265.6	3579.028	-889.825	1	3687.984	-13.96191	1.5703E-006	0.0007358	8
	6	10	251203.1	3668.474	-760.8958	1	3746.554	-11.71784	-7.272056E-007	0.0013186	8
	7	12	199546.9	3727.108	-659.4871	1	3785.005	-10.03425	3.991026E-006	0.0003787	8
	8	13	158578.1	3784.841	-557.5256	1	3825.684	-8.379685	1.355711E-006	0.0007335	8
	9	14	125953.1	3857.385	-449.4537	1	3883.481	-6.646006	-8.646823E-007	0.0036893	7
	10	16	100078.1	3871.093	-404.0334	1	3892.121	-5.958497	-1.052722E-008	0.0011212	7
	11	17	79453.13	3901.196	-374.8513	1	3919.164	-5.488488	2.008163E-008	0.0009897	7
	12	18	63140.62	3929.908	-358.1685	1	3946.196	-5.207502	7.87318E-008	0.0010332	7
	13	20	50203.12	3958.243	-349.6664	1	3973.657	-5.048335	-1.76829E-008	0.0012149	7
	14	21	39890.62	3981.971	-345.4688	1	3996.929	-4.958466	-1.734062E-008	0.0012154	7
	15	22	31640.63	4017.089	-357.9988	1	4033.01	-5.092686	7.620805E-008	0.0009355	7
	16	24	25171.88	4048.813	-374.4135	1	4066.088	-5.283394	-4.056259E-008	0.0011156	7
	17	25	20015.62	4080.217	-399.9343	1	4099.771	-5.59813	-3.582754E-008	0.0010771	7
	18	26	15890.62	4117.78	-436.8038	1	4140.883	-6.055149	-4.643054E-008	0.0010928	7
	19	28	12609.37	4146.57	-484.1045	1	4174.734	-6.659031	7.756289E-008	0.0009326	7
	20	29	10078.13	4182.982	-540.6328	1	4217.774	-7.364412	3.665889E-008	0.0010295	7
	21	30	8015.625	4222.128	-618.5057	1	4267.19	-8.334064	-1.640772E-008	0.0012075	7
	22	32	6328.125	4265.005	-716.215	1	4324.723	-9.53264	-4.095324E-008	0.0011174	7
	23	33	5015.625	4313.429	-836.2976	1	4393.752	-10.9725	-3.463365E-008	0.0010719	7
	24	34	3984.375	4364.534	-983.28	1	4473.924	-12.69612	8.812216E-008	0.0008842	7
	25	36	3170.956	4422.532	-1163.91	1	4573.125	-14.7446	-4.248782E-008	0.0011025	7
	26	37	2527.573	4487.87	-1382.539	1	4695.998	-17.12204	-4.200026E-008	0.0011079	7
	27	38	1976.103	4571.734	-1677.144	1	4869.657	-20.1456	-4.182523E-008	0.001108	7
	28	40	1577.524	4661.51	-2006.534	1	5075.022	-23.28933	-7.840915E-009	0.0010961	7
	29	41	1265.625	4764.525	-2404.04	1	5336.675	-26.77417	-7.020411E-008	0.0011802	7
	30	42	998.264	4896.53	-2916.668	1	5699.382	-30.78057	-4.16575E-008	0.0012044	7
	31	44	796.875	5046.376	-3516.245	1	6150.601	-34.86824	-4.969352E-008	0.0011728	7
	32	45	627.7902	5235.828	-4284.521	1	6765.428	-39.29375	7.61535E-008	0.0009318	7
	33	46	505.5147	5448.507	-5135.47	1	7487.274	-43.30589	-4.802362E-008	0.0010872	7
	34	48	397.9953	5715.242	-6274.956	1	8487.583	-47.67268	6.054668E-009	0.0010739	7
	35	49	315.5048	6026.443	-7632.195	1	9724.63	-51.70509	6.423777E-009	0.0010735	7
	36	50	252.4038	6382.776	-9221.111	1	11214.67	-55.30934	1.251602E-009	0.0010133	6
	37	52	198.6229	6837.467	-11314.67	1	13220.17	-58.8554	1.312582E-009	0.0010129	6
	38	53	158.3615	7354.252	-13754.96	1	15597.56	-61.86827	1.537597E-009	0.0010135	6
	39	54	125.558	8001.253	-16818.35	1	18624.63	-64.55744	1.19871E-009	0.0010178	6
	40	56	100.4464	8753.438	-20441.11	1	22236.49	-66.81808	1.660812E-009	0.0010122	6
	41	57	79.00281	9858.38	-25247.96	1	27104.38	-68.67123	1.736501E-009	0.0010118	6
	42	58	63.3446	10802.04	-30583.38	1	32434.96	-70.5468	4.932669E-010	0.0010135	6
	43	60	49.86702	12966.94	-37628.56	1	39800.12	-70.98586	7.572074E-010	0.0010132	6
	44	61	39.72458	14937.52	-46013.88	1	48377.75	-72.01498	1.416468E-009	0.0010231	6
	45	62	31.6723	17841.02	-55870.38	1	58649.82	-72.29021	1.223225E-009	0.0010153	6
	46	64	24.93351	21744.61	-68698.83	1	72058.02	-72.43633	8.067444E-010	0.0010111	6
	47	65	19.86229	26569.75	-83204.58	1	87343.88	-72.29014	1.18767E-009	0.0010118	6
	48	66	15.83615	32354.75	-100617.6	1	105691.7	-72.17421	2.744086E-010	0.0010133	5
	49	68	12.40079	41315.28	-122149.7	1	128947.7	-71.31268	3.364381E-010	0.0010158	5
	50	69	9.93114	52297.36	-146235.2	1	155305.4	-70.32169	9.038392E-010	0.0010152	5
	51	71	7.944915	65465.49	-173454.8	1	185397.6	-69.32243	9.181869E-010	0.0010195	5
	52	72	6.317385	82106.82	-206015.1	1	221774.1	-68.27036	8.558128E-010	0.0010138	5
	53	74	5.008013	103707.2	-244820.6	1	265880.3	-67.04224	4.865188E-010	0.0010238	5
	54	77	3.945707	130846.2	-289229.3	1	317449.7	-65.65818	4.954014E-010	0.0010277	5
	55	79	3.158693	161720.2	-337169	1	373947	-64.3757	1.068982E-010	0.0010112	5
	56	83	2.504006	201121.6	-392267.7	1	440821.8	-62.85509	7.007733E-010	0.0010173	5
	57	85	1.998082	245929.7	-451795.1	1	514393	-61.43882	1.590678E-010	0.0010574	5
	58	89	1.584686	298455.9	-519644.3	1	599254.6	-60.12924	4.626713E-010	0.0010416	5
	59	92	1.266892	359678.8	-591849.9	1	692571.4	-58.71213	2.231801E-010	0.0010623	5
	60	97	0.999041	430450.8	-675494.8	1	800987.6	-57.49317	2.164407E-010	0.0009784	5
