EXPLAIN
TAG	EISPOT
TITLE	LABEL	Potentiostatic IDE	Test &Identifier
DATE	LABEL	9/8/2019	Date
TIME	LABEL	7:56:46	Time
NOTES	NOTES	1	&Notes...
	
PSTAT	PSTAT	REF600-11020	Potentiostat
VDC	POTEN	0.00000E+000	T	DC &Voltage (V)
FREQINIT	QUANT	1.00000E+006	Initial Fre&q. (Hz)
FREQFINAL	QUANT	1.00000E+000	Final Fre&q. (Hz)
PTSPERDEC	QUANT	1.00000E+001	Points/&decade
VAC	QUANT	2.50000E+001	AC &Voltage (mV rms)
AREA	QUANT	1.00000E-002	&Area (cm^2)
CONDIT	TWOPARAM	T	5.00000E+000	0.00000E+000	Conditionin&g	Time(s)	E(V)
DELAY	TWOPARAM	T	5.00000E+000	0.00000E+000	Init. De&lay	Time(s)	Stab.(mV/s)
SPEED	SELECTOR	1	&Optimize for:
ZGUESS	QUANT	1.00000E+007	E&stimated Z (ohms)
OCVCURVE	TABLE	19
	Pt	T	Vf	Vm	Ach	Over
	#	s	V vs. Ref.	V	V	bits
	0	0.258333	2.04695E-002	2.04695E-002	5.69866E-004	...........
	1	0.516667	2.04878E-002	2.14291E-002	5.68766E-004	...........
	2	0.775	2.05996E-002	2.22968E-002	5.73132E-004	...........
	3	1.03333	2.09123E-002	2.30858E-002	5.74066E-004	...........
	4	1.29167	2.14624E-002	2.38151E-002	5.74232E-004	...........
	5	1.55	2.21771E-002	2.44873E-002	5.70366E-004	...........
	6	1.80833	2.29466E-002	2.51049E-002	5.71299E-004	...........
	7	2.06667	2.36937E-002	2.56726E-002	5.72832E-004	...........
	8	2.325	2.43860E-002	2.62046E-002	5.73299E-004	...........
	9	2.58333	2.50193E-002	2.66970E-002	5.71732E-004	...........
	10	2.84167	2.56000E-002	2.71463E-002	5.78366E-004	...........
	11	3.1	2.61354E-002	2.75700E-002	5.74499E-004	...........
	12	3.35833	2.66305E-002	2.79655E-002	5.70366E-004	...........
	13	3.61667	2.70898E-002	2.83340E-002	5.72166E-004	...........
	14	3.875	2.75171E-002	2.86786E-002	5.72966E-004	...........
	15	4.13333	2.79156E-002	2.90007E-002	5.71966E-004	...........
	16	4.39167	2.82877E-002	2.93065E-002	5.73099E-004	...........
	17	4.65	2.86359E-002	2.95925E-002	5.76966E-004	...........
	18	4.90833	2.89625E-002	2.98661E-002	5.71832E-004	...........
EOC	QUANT	0.0289625	Open Circuit (V)
PSTATMODEL	IQUANT	4	Pstat Model
PSTATSECTION	LABEL	REF600-11020	Pstat Section
PSTATSERIALNO	LABEL	11020	Pstat Serial Number
CTRLMODE	IQUANT	1	Control Mode
IESTAB	IQUANT	0	I/E Stability
CASPEED	IQUANT	1	Control Amp Speed
CONVENTION	IQUANT	1	Current Convention
ICHRANGE	IQUANT	2	Ich Range
ICHRANGEMODE	TOGGLE	F	Ich Auto Range
ICHOFFSETENABLE	TOGGLE	T	Ich Offset Enable
ICHOFFSET	QUANT	0	Ich Offset (V)
ICHFILTER	IQUANT	3	Ich Filter
VCHRANGE	IQUANT	2	Vch Range
VCHRANGEMODE	TOGGLE	F	Vch Auto Range
VCHOFFSETENABLE	TOGGLE	T	Vch Offset Enable
VCHOFFSET	QUANT	0	Vch Offset (V)
VCHFILTER	IQUANT	3	Vch Filter
ACHRANGE	IQUANT	2	Ach Range
ACHOFFSETENABLE	TOGGLE	F	Ach Offset Enable
ACHOFFSET	QUANT	0	Ach Offset (V)
ACHFILTER	IQUANT	3	Ach Filter
IERANGELOWERLIMIT	IQUANT	1	I/E Range Lower Limit
IERANGEMODE	TOGGLE	F	I/E AutoRange
IERANGE	IQUANT	3	I/E Range
POSFEEDENABLE	TOGGLE	F	Positive Feedback IR Comp
POSFEEDRESISTANCE	QUANT	0	Positive Feedback Resistance (ohm)
ACHSELECT	IQUANT	0	Ach Select
CABLEID	IQUANT	14	Cable ID
DCCALDATE	LABEL	8/19/2019	DC Calibration Date
ACCALDATE	LABEL	8/19/2019	AC Calibration Date
THERMOSELECT	IQUANT	1	Thermo Select
FRAMEWORKVERSION	QUANT	6.33	Framework Version
INSTRUMENTVERSION	LABEL	3.50	Instrument Version
ZCURVE	TABLE
	Pt	Time	Freq	Zreal	Zimag	Zsig	Zmod	Zphz	Idc	Vdc	IERange
	#	s	Hz	ohm	ohm	V	ohm	°	A	V	#
	0	2	1000078	2259.568	-1323.254	1	2618.521	-30.3542	6.966577E-006	0.029843	8
	1	3	794390.6	2507.19	-1224.274	1	2790.135	-26.02649	-9.563336E-006	0.032675	8
	2	5	630984.4	2712.553	-1130.101	1	2938.549	-22.61753	-3.7335E-007	0.0313518	8
	3	6	501234.4	2880.783	-997.935	1	3048.735	-19.10666	-9.98141E-007	0.0310939	8
	4	7	398109.4	3017.584	-878.235	1	3142.787	-16.22706	4.889597E-006	0.0297961	8
	5	9	316265.6	3122.128	-758.296	1	3212.896	-13.65154	-2.971031E-007	0.0305269	8
	6	10	251203.1	3215.287	-669.179	1	3284.185	-11.7568	1.091756E-006	0.0304468	8
	7	12	199546.9	3264.275	-606.833	1	3320.202	-10.53114	-4.37212E-006	0.0315863	8
	8	13	158578.1	3320.939	-522.1094	1	3361.731	-8.934759	2.918819E-006	0.0300808	8
	9	14	125953.1	3387.58	-427.5437	1	3414.454	-7.19322	-6.112641E-007	0.0314694	7
	10	16	100078.1	3420.295	-396.775	1	3443.232	-6.617082	2.326645E-008	0.0304961	7
	11	17	79453.13	3455.612	-381.7113	1	3476.63	-6.303411	-3.724804E-008	0.030598	7
	12	18	63140.62	3490.91	-372.5765	1	3510.736	-6.091982	4.761815E-008	0.0304314	7
	13	20	50203.12	3526.793	-368.8784	1	3546.032	-5.971035	-2.129116E-008	0.0307459	7
	14	21	39890.62	3563.448	-372.5735	1	3582.872	-5.968829	-5.001544E-008	0.0306203	7
	15	22	31640.63	3598.982	-386.8905	1	3619.718	-6.135733	-3.825291E-008	0.0305881	7
	16	24	25171.88	3635.243	-406.2667	1	3657.874	-6.37679	1.501025E-007	0.0303552	7
	17	25	20015.62	3673.79	-435.283	1	3699.487	-6.757095	-1.659214E-008	0.0306393	7
	18	26	15890.62	3713.732	-475.4338	1	3744.041	-7.295352	-5.844E-008	0.0306976	7
	19	28	12609.37	3759.116	-522.5195	1	3795.257	-7.913444	2.521515E-008	0.0304852	7
	20	29	10078.13	3803.736	-582.4188	1	3848.067	-8.705379	-4.715565E-008	0.0307335	7
	21	30	8015.625	3850.472	-658.6424	1	3906.398	-9.70678	8.356841E-008	0.0304282	7
	22	32	6328.125	3906.504	-753.6964	1	3978.547	-10.92011	5.072489E-008	0.0304226	7
	23	33	5015.625	3966.318	-871.2702	1	4060.886	-12.38923	8.371531E-008	0.0304352	7
	24	34	3984.375	4031.211	-1014.533	1	4156.915	-14.12624	5.054673E-008	0.0304214	7
	25	36	3170.956	4104.936	-1184.738	1	4272.481	-16.09883	1.519152E-007	0.0303516	7
	26	37	2527.573	4187.13	-1392.089	1	4412.479	-18.39034	-1.562009E-008	0.0306343	7
	27	38	1976.103	4290.884	-1667.876	1	4603.64	-21.24121	-5.063425E-008	0.0306462	7
	28	40	1577.524	4400.791	-1976.044	1	4824.076	-24.18105	-4.710096E-008	0.0306135	7
	29	41	1265.625	4526.794	-2336.233	1	5094.1	-27.29781	3.580723E-008	0.0305463	7
	30	42	998.264	4691.397	-2809.476	1	5468.305	-30.91558	-2.393287E-008	0.0305617	7
	31	44	796.875	4876.878	-3352.643	1	5918.121	-34.50684	7.835364E-008	0.0305534	7
	32	45	627.7902	5115.547	-4044.727	1	6521.398	-38.33248	1.49543E-007	0.0303576	7
	33	46	505.5147	5377.111	-4797.786	1	7206.391	-41.74129	-1.489268E-008	0.0306329	7
	34	48	397.9953	5728.206	-5803.84	1	8154.563	-45.37577	5.357371E-009	0.0305937	7
	35	49	315.5048	6149.379	-6981.942	1	9303.891	-48.62786	6.531295E-009	0.0305909	7
	36	50	252.4038	6649.438	-8337.601	1	10664.46	-51.42679	-8.87736E-010	0.030538	6
	37	52	198.6229	7317.017	-10088.42	1	12462.54	-54.04704	-1.059418E-009	0.0305381	6
	38	53	158.3615	8111.089	-12078.95	1	14549.6	-56.1184	-9.265478E-010	0.0305355	6
	39	54	125.558	9148.206	-14504.31	1	17148.32	-57.75942	-1.125361E-009	0.0305375	6
	40	56	100.4464	10432.14	-17262.34	1	20169.72	-58.85419	-1.698536E-009	0.0305319	6
	41	57	79.00281	12187.6	-20700.97	1	24022.23	-59.51273	-9.664215E-010	0.0305335	6
	42	58	63.3446	14409.03	-24234.73	1	28194.72	-59.26593	-8.897243E-010	0.0305321	6
	43	60	49.86702	17220.6	-29159.15	1	33864.51	-59.43507	-1.225858E-009	0.0305291	6
	44	61	39.72458	20794.13	-33835.2	1	39714.18	-58.42632	-9.383226E-010	0.0305392	6
	45	63	31.6723	25008.95	-39147.95	1	46454.38	-57.42827	-1.298972E-009	0.0305323	6
	46	64	24.93351	30538.76	-45073.15	1	54444.51	-55.88088	-1.220703E-009	0.0305283	6
	47	65	19.86229	36617.7	-51034.85	1	62812.51	-54.34042	-1.536446E-009	0.0305328	6
	48	67	15.83615	43716.11	-57149.25	1	71952.31	-52.58596	-7.422625E-010	0.0305298	6
	49	68	12.40079	52466.69	-64396.13	1	83063.92	-50.82861	-1.392821E-010	0.030533	6
	50	69	9.93114	60438.07	-71077.57	1	93299.42	-49.6251	-3.042746E-010	0.0305349	6
	51	71	7.944915	69458.57	-78190.59	1	104586.1	-48.38455	-1.758324E-009	0.0305473	5
	52	73	6.317385	79536.56	-86124.63	1	117232.8	-47.27736	-1.311301E-009	0.0305547	5
	53	75	5.008013	90367.44	-95258.7	1	131303	-46.5094	-4.354763E-010	0.0305555	5
	54	77	3.945707	102551.7	-105800.6	1	147345.2	-45.89335	-2.091675E-009	0.0305355	5
	55	80	3.158693	114987.7	-116932	1	163997.8	-45.48032	-1.225277E-009	0.0305379	5
	56	83	2.504006	128936.8	-130263.1	1	183284.4	-45.29316	-1.595618E-009	0.0305447	5
	57	86	1.998082	143734.8	-145382.3	1	204440	-45.32648	-7.015176E-010	0.0305425	5
	58	89	1.584686	161015.9	-162547	1	228796.1	-45.27113	-1.435998E-009	0.0304913	5
	59	92	1.266892	179677.7	-182691.6	1	256242.7	-45.47653	-9.981888E-010	0.030562	5
	60	97	0.999041	202471.5	-206245.7	1	289019	-45.52906	-1.825858E-009	0.0304936	5
