EXPLAIN
TAG	EISPOT
TITLE	LABEL	Potentiostatic EIS	Test &Identifier
DATE	LABEL	9/24/2019	Date
TIME	LABEL	9:46:24	Time
NOTES	NOTES	1	&Notes...
	
PSTAT	PSTAT	REF600-11020	Potentiostat
VDC	POTEN	0.00000E+000	T	DC &Voltage (V)
FREQINIT	QUANT	1.00000E+006	Initial Fre&q. (Hz)
FREQFINAL	QUANT	1.00000E+000	Final Fre&q. (Hz)
PTSPERDEC	QUANT	1.00000E+001	Points/&decade
VAC	QUANT	2.50000E+001	AC &Voltage (mV rms)
AREA	QUANT	1.00000E-002	&Area (cm^2)
CONDIT	TWOPARAM	T	5.00000E+000	0.00000E+000	Conditionin&g	Time(s)	E(V)
DELAY	TWOPARAM	T	5.00000E+000	0.00000E+000	Init. De&lay	Time(s)	Stab.(mV/s)
SPEED	SELECTOR	1	&Optimize for:
ZGUESS	QUANT	1.00000E+004	E&stimated Z (ohms)
OCVCURVE	TABLE	19
	Pt	T	Vf	Vm	Ach	Over
	#	s	V vs. Ref.	V	V	bits
	0	0.258333	3.92782E-003	3.92782E-003	5.65899E-004	...........
	1	0.516667	3.92499E-003	3.77939E-003	5.72432E-004	...........
	2	0.775	3.90782E-003	3.65152E-003	5.67432E-004	...........
	3	1.03333	3.86024E-003	3.53796E-003	5.70099E-004	...........
	4	1.29167	3.77756E-003	3.43388E-003	5.69099E-004	...........
	5	1.55	3.67168E-003	3.33911E-003	5.60899E-004	...........
	6	1.80833	3.55942E-003	3.25133E-003	5.65432E-004	...........
	7	2.06667	3.45194E-003	3.17300E-003	5.72532E-004	...........
	8	2.325	3.35331E-003	3.09044E-003	5.72366E-004	...........
	9	2.58333	3.26318E-003	3.01853E-003	5.73666E-004	...........
	10	2.84167	3.17966E-003	2.95143E-003	5.69832E-004	...........
	11	3.1	3.10138E-003	2.88493E-003	5.72932E-004	...........
	12	3.35833	3.02777E-003	2.82211E-003	5.66066E-004	...........
	13	3.61667	2.95820E-003	2.76027E-003	5.66499E-004	...........
	14	3.875	2.89183E-003	2.69815E-003	5.61332E-004	...........
	15	4.13333	2.82786E-003	2.64347E-003	5.67732E-004	...........
	16	4.39167	2.76882E-003	2.73815E-003	5.65932E-004	...........
	17	4.65	2.72028E-003	2.49026E-003	5.72166E-004	...........
	18	4.90833	2.67695E-003	2.45408E-003	5.67832E-004	...........
EOC	QUANT	0.002677	Open Circuit (V)
PSTATMODEL	IQUANT	4	Pstat Model
PSTATSECTION	LABEL	REF600-11020	Pstat Section
PSTATSERIALNO	LABEL	11020	Pstat Serial Number
CTRLMODE	IQUANT	1	Control Mode
IESTAB	IQUANT	0	I/E Stability
CASPEED	IQUANT	1	Control Amp Speed
CONVENTION	IQUANT	1	Current Convention
ICHRANGE	IQUANT	2	Ich Range
ICHRANGEMODE	TOGGLE	F	Ich Auto Range
ICHOFFSETENABLE	TOGGLE	T	Ich Offset Enable
ICHOFFSET	QUANT	0	Ich Offset (V)
ICHFILTER	IQUANT	3	Ich Filter
VCHRANGE	IQUANT	2	Vch Range
VCHRANGEMODE	TOGGLE	F	Vch Auto Range
VCHOFFSETENABLE	TOGGLE	T	Vch Offset Enable
VCHOFFSET	QUANT	0	Vch Offset (V)
VCHFILTER	IQUANT	3	Vch Filter
ACHRANGE	IQUANT	2	Ach Range
ACHOFFSETENABLE	TOGGLE	F	Ach Offset Enable
ACHOFFSET	QUANT	0	Ach Offset (V)
ACHFILTER	IQUANT	3	Ach Filter
IERANGELOWERLIMIT	IQUANT	1	I/E Range Lower Limit
IERANGEMODE	TOGGLE	F	I/E AutoRange
IERANGE	IQUANT	5	I/E Range
POSFEEDENABLE	TOGGLE	F	Positive Feedback IR Comp
POSFEEDRESISTANCE	QUANT	0	Positive Feedback Resistance (ohm)
ACHSELECT	IQUANT	0	Ach Select
CABLEID	IQUANT	14	Cable ID
DCCALDATE	LABEL	8/19/2019	DC Calibration Date
ACCALDATE	LABEL	8/19/2019	AC Calibration Date
THERMOSELECT	IQUANT	1	Thermo Select
FRAMEWORKVERSION	QUANT	6.33	Framework Version
INSTRUMENTVERSION	LABEL	3.50	Instrument Version
ZCURVE	TABLE
	Pt	Time	Freq	Zreal	Zimag	Zsig	Zmod	Zphz	Idc	Vdc	IERange
	#	s	Hz	ohm	ohm	V	ohm	°	A	V	#
	0	1	1000078	2109.195	-2115.895	1	2987.594	-45.09087	-5.597892E-008	0.0051774	8
	1	3	794390.6	2520.426	-2210.176	1	3352.227	-41.24771	5.038117E-006	0.0037908	8
	2	4	630984.4	2951.715	-2252.262	1	3712.857	-37.3449	-5.401168E-007	0.0045485	8
	3	6	501234.4	3384.699	-2257.471	1	4068.46	-33.70184	-1.531685E-006	0.0047661	8
	4	7	398109.4	3806.039	-2158.685	1	4375.598	-29.56076	4.240885E-006	0.0036473	8
	5	8	316265.6	4183.815	-2021.395	1	4646.541	-25.78734	-2.253394E-006	0.0049344	8
	6	10	251203.1	4548.953	-1860.288	1	4914.635	-22.24204	8.617727E-007	0.0043389	8
	7	11	199546.9	4827.149	-1688.343	1	5113.89	-19.27779	-5.880424E-007	0.0044684	8
	8	13	158578.1	5053.28	-1502.222	1	5271.841	-16.55598	-1.05157E-006	0.0046275	8
	9	14	125953.1	5276.294	-1273.944	1	5427.91	-13.57408	1.923521E-007	0.0041214	7
	10	16	100078.1	5403.549	-1131.732	1	5520.794	-11.82918	-3.446016E-008	0.0043361	7
	11	17	79453.13	5517.498	-1018.582	1	5610.73	-10.45957	-7.565897E-009	0.004346	7
	12	18	63140.62	5609.3	-924.9123	1	5685.043	-9.363197	1.543161E-009	0.0042912	7
	13	20	50203.12	5688.164	-859.3691	1	5752.714	-8.591288	-5.689606E-008	0.004429	7
	14	21	39890.62	5768.824	-811.6528	1	5825.642	-8.008741	1.00141E-007	0.0042365	7
	15	23	31640.63	5830.908	-787.3451	1	5883.826	-7.690112	5.111241E-008	0.0042573	7
	16	24	25171.88	5892.234	-784.7234	1	5944.259	-7.58597	-7.223407E-008	0.0044223	7
	17	25	20015.62	5961.399	-801.5679	1	6015.047	-7.658042	4.962941E-008	0.0042574	7
	18	27	15890.62	6031.825	-835.3539	1	6089.395	-7.884799	2.595976E-008	0.0043984	7
	19	28	12609.37	6101.203	-893.5137	1	6166.283	-8.331671	6.057525E-008	0.004223	7
	20	30	10078.13	6174.381	-968.892	1	6249.939	-8.918198	-6.899255E-009	0.0043282	7
	21	31	8015.625	6258.69	-1065.931	1	6348.812	-9.66542	-7.125533E-009	0.0043345	7
	22	32	6328.125	6355.545	-1201.271	1	6468.076	-10.7033	-4.772887E-008	0.004439	7
	23	34	5015.625	6456.946	-1355.517	1	6597.695	-11.85603	1.519377E-008	0.0042265	7
	24	35	3984.375	6569.396	-1550.985	1	6750.001	-13.28386	1.034655E-007	0.004236	7
	25	36	3170.956	6690.611	-1775.44	1	6922.172	-14.86166	-1.440419E-008	0.004284	7
	26	38	2527.573	6826.31	-2053.823	1	7128.583	-16.7449	-7.215004E-008	0.0044226	7
	27	39	1976.103	6991.146	-2418.279	1	7397.581	-19.0808	6.154445E-008	0.004225	7
	28	40	1577.524	7160.053	-2826.276	1	7697.674	-21.54056	5.350491E-008	0.00426	7
	29	42	1265.625	7319.469	-3297.08	1	8027.787	-24.24934	-2.322409E-010	0.0043667	7
	30	43	998.264	7566.733	-3915.027	1	8519.56	-27.35704	2.631233E-008	0.0043985	7
	31	45	796.875	7803.083	-4635.822	1	9076.285	-30.7146	-4.556672E-008	0.0044362	7
	32	46	627.7902	8092.062	-5549.725	1	9812.28	-34.44324	5.172776E-009	0.00406	6
	33	47	505.5147	8380.513	-6572.444	1	10650.35	-38.10543	1.825783E-009	0.0042973	6
	34	49	397.9953	8756.628	-7948.828	1	11826.34	-42.23159	4.808734E-010	0.0042865	6
	35	50	315.5048	9176.735	-9595.61	1	13277.35	-46.27824	4.097025E-010	0.004278	6
	36	51	252.4038	9648.28	-11529.4	1	15033.84	-50.076	3.974431E-010	0.0042823	6
	37	53	198.6229	10254.45	-14084.95	1	17422.39	-53.94379	8.457346E-010	0.0042802	6
	38	54	158.3615	10949.2	-17048.43	1	20261.63	-57.28977	1.605675E-009	0.0042768	6
	39	55	125.558	11819.48	-20787.31	1	23912.6	-60.37782	1.47772E-009	0.0042813	6
	40	57	100.4464	12850.79	-25220.45	1	28305.72	-62.9994	1.441556E-009	0.0042698	6
	41	58	79.00281	14205.81	-30989.13	1	34090.04	-65.37268	2.378726E-010	0.004268	6
	42	60	63.3446	15675.29	-37135.08	1	40307.93	-67.11464	1.439323E-009	0.0042668	6
	43	61	49.86702	18647.66	-46158.73	1	49783.17	-68.00179	1.108814E-009	0.0042679	6
	44	62	39.72458	21326.37	-56102.38	1	60019.09	-69.18655	1.010949E-009	0.0042726	6
	45	64	31.6723	25174.06	-67662.52	1	72193.84	-69.59212	1.641606E-009	0.0042756	6
	46	65	24.93351	30488.72	-82998.73	1	88421.45	-69.82972	1.185239E-009	0.0042696	6
	47	67	19.86229	37221.04	-100257.7	1	106944	-69.63238	2.638595E-010	0.0042773	5
	48	68	15.83615	46815.5	-121266.6	1	129989.6	-68.8907	2.272056E-009	0.0042754	5
	49	69	12.40079	58198.89	-147394.8	1	158468.7	-68.45339	1.680833E-009	0.0042861	5
	50	71	9.93114	73424.39	-172615.3	1	187582.5	-66.95683	2.156619E-010	0.0042842	5
	51	72	7.944915	93092.63	-202829.5	1	223172.7	-65.3463	8.617363E-010	0.0042832	5
	52	74	6.317385	116681.9	-238212.8	1	265254.6	-63.90336	2.510972E-010	0.0042713	5
	53	76	5.008013	147306.7	-277282.5	1	313982.3	-62.02048	9.460948E-011	0.0042753	5
	54	79	3.945707	185555.2	-320156.8	1	370042	-59.90445	3.170129E-010	0.0042758	5
	55	81	3.158693	229045.9	-363085.3	1	429293.6	-57.75495	4.612365E-010	0.0042811	5
	56	85	2.504006	279519.8	-409200.8	1	495556.8	-55.66352	3.324469E-010	0.0042955	5
	57	88	1.998082	333762.8	-455259.5	1	564498.8	-53.75387	8.095707E-010	0.0042612	5
	58	91	1.584686	397366.9	-504653.7	1	642320.6	-51.78292	3.724814E-010	0.0042302	5
	59	94	1.266892	459386.3	-554770.9	1	720282.3	-50.37304	7.280518E-010	0.0042726	5
	60	99	0.999041	531661.8	-613878.5	1	812102.9	-49.10514	7.678048E-011	0.0042682	5
