EXPLAIN
TAG	EISPOT
TITLE	LABEL	Potentiostatic EIS	Test &Identifier
DATE	LABEL	11/22/2019	Date
TIME	LABEL	10:30:58	Time
NOTES	NOTES	4	&Notes...
	
	
	
	
PSTAT	PSTAT	REF600-11020	Potentiostat
VDC	POTEN	0.00000E+000	T	DC &Voltage (V)
FREQINIT	QUANT	1.00000E+006	Initial Fre&q. (Hz)
FREQFINAL	QUANT	1.00000E+000	Final Fre&q. (Hz)
PTSPERDEC	QUANT	1.00000E+001	Points/&decade
VAC	QUANT	2.50000E+001	AC &Voltage (mV rms)
AREA	QUANT	1.00000E-002	&Area (cm^2)
CONDIT	TWOPARAM	T	5.00000E+000	0.00000E+000	Conditionin&g	Time(s)	E(V)
DELAY	TWOPARAM	T	5.00000E+000	0.00000E+000	Init. De&lay	Time(s)	Stab.(mV/s)
SPEED	SELECTOR	0	&Optimize for:
ZGUESS	QUANT	1.00000E+005	E&stimated Z (ohms)
OCVCURVE	TABLE	19
	Pt	T	Vf	Vm	Ach	Over
	#	s	V vs. Ref.	V	V	bits
	0	0.258333	1.08459E-001	1.08459E-001	5.56233E-004	...........
	1	0.516667	1.08561E-001	1.13820E-001	5.55933E-004	...........
	2	0.775	1.09182E-001	1.18453E-001	5.61932E-004	...........
	3	1.03333	1.10901E-001	1.22516E-001	5.54533E-004	...........
	4	1.29167	1.13884E-001	1.26121E-001	5.54666E-004	...........
	5	1.55	1.17684E-001	1.29356E-001	5.48766E-004	...........
	6	1.80833	1.21674E-001	1.32280E-001	5.53233E-004	...........
	7	2.06667	1.25437E-001	1.34953E-001	5.53199E-004	...........
	8	2.325	1.28829E-001	1.37411E-001	5.51099E-004	...........
	9	2.58333	1.31861E-001	1.39691E-001	5.52066E-004	...........
	10	2.84167	1.34597E-001	1.41813E-001	5.56666E-004	...........
	11	3.1	1.37097E-001	1.43797E-001	5.59232E-004	...........
	12	3.35833	1.39404E-001	1.45659E-001	5.60399E-004	...........
	13	3.61667	1.41550E-001	1.47419E-001	5.61199E-004	...........
	14	3.875	1.43556E-001	1.49085E-001	5.58232E-004	...........
	15	4.13333	1.45439E-001	1.50669E-001	5.57266E-004	...........
	16	4.39167	1.47215E-001	1.52179E-001	5.55833E-004	...........
	17	4.65	1.48896E-001	1.53616E-001	5.57966E-004	...........
	18	4.90833	1.50492E-001	1.54996E-001	5.52932E-004	...........
EOC	QUANT	0.1504916	Open Circuit (V)
PSTATMODEL	IQUANT	4	Pstat Model
PSTATSECTION	LABEL	REF600-11020	Pstat Section
PSTATSERIALNO	LABEL	11020	Pstat Serial Number
CTRLMODE	IQUANT	1	Control Mode
IESTAB	IQUANT	0	I/E Stability
CASPEED	IQUANT	1	Control Amp Speed
CONVENTION	IQUANT	1	Current Convention
ICHRANGE	IQUANT	2	Ich Range
ICHRANGEMODE	TOGGLE	F	Ich Auto Range
ICHOFFSETENABLE	TOGGLE	T	Ich Offset Enable
ICHOFFSET	QUANT	0	Ich Offset (V)
ICHFILTER	IQUANT	3	Ich Filter
VCHRANGE	IQUANT	2	Vch Range
VCHRANGEMODE	TOGGLE	F	Vch Auto Range
VCHOFFSETENABLE	TOGGLE	T	Vch Offset Enable
VCHOFFSET	QUANT	0	Vch Offset (V)
VCHFILTER	IQUANT	3	Vch Filter
ACHRANGE	IQUANT	2	Ach Range
ACHOFFSETENABLE	TOGGLE	F	Ach Offset Enable
ACHOFFSET	QUANT	0	Ach Offset (V)
ACHFILTER	IQUANT	3	Ach Filter
IERANGELOWERLIMIT	IQUANT	1	I/E Range Lower Limit
IERANGEMODE	TOGGLE	F	I/E AutoRange
IERANGE	IQUANT	6	I/E Range
POSFEEDENABLE	TOGGLE	F	Positive Feedback IR Comp
POSFEEDRESISTANCE	QUANT	0	Positive Feedback Resistance (ohm)
ACHSELECT	IQUANT	0	Ach Select
CABLEID	IQUANT	14	Cable ID
DCCALDATE	LABEL	8/19/2019	DC Calibration Date
ACCALDATE	LABEL	8/19/2019	AC Calibration Date
THERMOSELECT	IQUANT	1	Thermo Select
FRAMEWORKVERSION	QUANT	6.33	Framework Version
INSTRUMENTVERSION	LABEL	3.50	Instrument Version
ZCURVE	TABLE
	Pt	Time	Freq	Zreal	Zimag	Zsig	Zmod	Zphz	Idc	Vdc	IERange
	#	s	Hz	ohm	ohm	V	ohm	°	A	V	#
	0	1	1000078	2335.296	-1462.052	1	2755.214	-32.04932	-4.011595E-006	0.1533555	8
	1	2	794390.6	2606.739	-1427.417	1	2971.97	-28.70454	3.290228E-007	0.1529385	8
	2	2	630984.4	2871.045	-1370.382	1	3181.328	-25.51566	2.343111E-006	0.1516628	8
	3	2	501234.4	3076.434	-1289.805	1	3335.872	-22.74602	-2.146838E-006	0.1518764	8
	4	3	398109.4	3272.109	-1190.503	1	3481.953	-19.99309	6.468206E-006	0.1512899	8
	5	3	316265.6	3448.7	-1119.688	1	3625.912	-17.98704	-4.634507E-007	0.1517219	8
	6	3	251203.1	3605.199	-1022.948	1	3747.517	-15.8409	-2.132251E-006	0.1521794	8
	7	4	199546.9	3748.732	-935.6216	1	3863.726	-14.01378	-6.274772E-007	0.1517296	8
	8	4	158578.1	3888.951	-904.0257	1	3992.644	-13.08656	1.82671E-006	0.1523131	8
	9	4	125953.1	3988.005	-735.0308	1	4055.176	-10.44301	-2.892979E-006	0.154345	7
	10	5	100078.1	4074.931	-681.7573	1	4131.568	-9.497915	1.103011E-006	0.1504845	7
	11	5	79453.13	4139.447	-648.9505	1	4190.007	-8.909867	-6.428525E-007	0.1536299	7
	12	5	63140.62	4214.793	-615.9175	1	4259.559	-8.313918	-7.649675E-007	0.1518364	7
	13	6	50203.12	4299.784	-602.3297	1	4341.768	-7.974314	1.038155E-006	0.1512391	7
	14	6	39890.62	4369.079	-587.5864	1	4408.413	-7.659606	1.122444E-006	0.1508067	7
	15	6	31640.63	4430.733	-579.9248	1	4468.524	-7.456876	7.837342E-007	0.1501638	7
	16	7	25171.88	4496.815	-584.1873	1	4534.603	-7.401917	1.123418E-006	0.1508122	7
	17	7	20015.62	4554.536	-605.8748	1	4594.658	-7.577379	-3.332243E-007	0.1511214	7
	18	7	15890.62	4610.73	-617.3961	1	4651.883	-7.626777	7.117766E-008	0.152966	7
	19	7	12609.37	4678.191	-651.7579	1	4723.374	-7.931302	6.292631E-007	0.1521782	7
	20	8	10078.13	4728.314	-693.4662	1	4778.896	-8.343656	-3.335322E-007	0.1511185	7
	21	8	8015.625	4791.96	-748.3936	1	4850.049	-8.876572	-7.658005E-007	0.1518287	7
	22	8	6328.125	4872.099	-835.6258	1	4943.239	-9.73225	1.106122E-006	0.1504682	7
	23	9	5015.625	4927.229	-933.1025	1	5014.805	-10.7235	-3.044595E-007	0.1533695	7
	24	9	3984.375	5012.226	-1065.589	1	5124.245	-12.00227	1.122705E-006	0.1508024	7
	25	9	3170.956	5062.572	-1211.792	1	5205.581	-13.46122	-1.263787E-006	0.153103	7
	26	10	2527.573	5159.592	-1406.755	1	5347.929	-15.25092	1.0387E-006	0.1512304	7
	27	10	1976.103	5242.966	-1668.36	1	5502.011	-17.65155	7.002281E-008	0.1529568	7
	28	10	1577.524	5271.197	-1938.977	1	5616.507	-20.19573	-1.268617E-006	0.1534749	7
	29	11	1265.625	5414.036	-2316.643	1	5888.855	-23.16588	-1.265028E-006	0.1531005	7
	30	11	998.264	5541.547	-2794.955	1	6206.49	-26.76472	-3.318047E-007	0.1511071	7
	31	11	796.875	5676.567	-3359.934	1	6596.406	-30.6211	7.46881E-008	0.1529557	7
	32	12	627.7902	5849.147	-4108.25	1	7147.744	-35.08295	8.556927E-007	0.1517384	7
	33	12	505.5147	6018.475	-4914.145	1	7769.869	-39.23198	-1.088198E-006	0.1525059	7
	34	12	397.9953	6274.936	-6037.552	1	8707.862	-43.89548	-5.96588E-009	0.1519989	7
	35	13	315.5048	6577.949	-7373.37	1	9881.09	-48.26313	-7.136824E-009	0.1519978	7
	36	13	252.4038	6948.769	-8939.197	1	11322.31	-52.14075	-6.616004E-009	0.1519373	6
	37	13	198.6229	7448.324	-10998.47	1	13283.22	-55.89357	-6.758354E-009	0.1519372	6
	38	14	158.3615	8052.736	-13375.11	1	15612.18	-58.94917	-6.266299E-009	0.1519346	6
	39	14	125.558	8853.051	-16340.67	1	18584.78	-61.55204	-5.841425E-009	0.1519268	6
	40	14	100.4464	9831.1	-19794.11	1	22101.07	-63.58788	-5.203455E-009	0.151934	6
	41	15	79.00281	11249.74	-24322.2	1	26797.88	-65.17805	-5.908999E-009	0.1519325	6
	42	15	63.3446	12749.71	-29061.99	1	31735.69	-66.31259	-6.427928E-009	0.1519209	6
	43	15	49.86702	15202.05	-35525.9	1	38641.84	-66.83321	-6.497233E-009	0.1519241	6
	44	16	39.72458	18175.57	-43035.5	1	46716.23	-67.10377	-6.093276E-009	0.1519196	6
	45	16	31.6723	22028.97	-51670.8	1	56170.7	-66.90985	-6.274381E-009	0.1519181	6
	46	16	24.93351	27332.94	-62161.34	1	67905.24	-66.26444	-5.457804E-009	0.151929	6
	47	17	19.86229	33758.69	-73851.41	1	81201.48	-65.43408	-3.484918E-009	0.151927	6
	48	17	15.83615	41839.96	-86551.8	1	96134.3	-64.20044	-6.932389E-009	0.1519254	6
	49	17	12.40079	52284.83	-101948.3	1	114573.8	-62.8487	-7.789828E-009	0.1519391	5
	50	18	9.93114	64965.62	-118085	1	134776.1	-61.18219	-6.033429E-009	0.1519326	5
	51	18	7.944915	79384.23	-135004.6	1	156614.5	-59.54399	-5.070657E-009	0.1519341	5
	52	19	6.317385	96077.1	-154260.7	1	181733.8	-58.0844	-5.045115E-009	0.151926	5
	53	19	5.008013	115637.9	-175407.7	1	210095.2	-56.60505	-5.34191E-009	0.1519328	5
	54	21	3.945707	137923.7	-199030.3	1	242148.7	-55.27888	-5.236813E-009	0.1519262	5
	55	22	3.158693	160871.8	-224510.9	1	276197.2	-54.37675	-5.637261E-009	0.151921	5
	56	24	2.504006	187810.7	-254068.4	1	315948.8	-53.52771	-5.152251E-009	0.1519144	5
	57	25	1.998082	216683.6	-287308.3	1	359858.1	-52.97696	-4.863546E-009	0.1519605	5
	58	26	1.584686	250933.9	-324572.7	1	410262.5	-52.29165	-4.722943E-009	0.1519107	5
	59	28	1.266892	290313.1	-368435.5	1	469069.8	-51.76324	-4.795868E-009	0.1518798	5
	60	31	0.999041	338679.2	-421075	1	540377.4	-51.18957	-4.672485E-009	0.1518719	5
