EXPLAIN
TAG	EISPOT
TITLE	LABEL	Potentiostatic EIS	Test &Identifier
DATE	LABEL	11/15/2019	Date
TIME	LABEL	9:41:12	Time
NOTES	NOTES	4	&Notes...
	
	
	
	
PSTAT	PSTAT	REF600-11020	Potentiostat
VDC	POTEN	0.00000E+000	T	DC &Voltage (V)
FREQINIT	QUANT	1.00000E+006	Initial Fre&q. (Hz)
FREQFINAL	QUANT	1.00000E+000	Final Fre&q. (Hz)
PTSPERDEC	QUANT	1.00000E+001	Points/&decade
VAC	QUANT	2.50000E+001	AC &Voltage (mV rms)
AREA	QUANT	1.00000E-002	&Area (cm^2)
CONDIT	TWOPARAM	T	5.00000E+000	0.00000E+000	Conditionin&g	Time(s)	E(V)
DELAY	TWOPARAM	T	5.00000E+000	0.00000E+000	Init. De&lay	Time(s)	Stab.(mV/s)
SPEED	SELECTOR	0	&Optimize for:
ZGUESS	QUANT	1.00000E+005	E&stimated Z (ohms)
OCVCURVE	TABLE	19
	Pt	T	Vf	Vm	Ach	Over
	#	s	V vs. Ref.	V	V	bits
	0	0.258333	6.69385E-003	6.69385E-003	5.44499E-004	...........
	1	0.516667	6.69569E-003	6.79023E-003	5.44433E-004	...........
	2	0.775	6.70730E-003	6.89754E-003	5.43033E-004	...........
	3	1.03333	6.74134E-003	7.01000E-003	5.43799E-004	...........
	4	1.29167	6.80516E-003	7.12645E-003	5.47699E-004	...........
	5	1.55	6.89508E-003	7.24266E-003	5.47833E-004	...........
	6	1.80833	7.00129E-003	7.34850E-003	5.46733E-004	...........
	7	2.06667	7.11473E-003	7.48085E-003	5.44766E-004	...........
	8	2.325	7.23072E-003	7.59710E-003	5.42633E-004	...........
	9	2.58333	7.34831E-003	7.71153E-003	5.41266E-004	...........
	10	2.84167	7.46692E-003	7.82678E-003	5.42566E-004	...........
	11	3.1	7.58511E-003	7.94070E-003	5.44166E-004	...........
	12	3.35833	7.70188E-003	8.05395E-003	5.44366E-004	...........
	13	3.61667	7.81711E-003	8.16209E-003	5.50333E-004	...........
	14	3.875	7.93087E-003	8.27490E-003	5.42666E-004	...........
	15	4.13333	8.04324E-003	8.38238E-003	5.44733E-004	...........
	16	4.39167	8.15440E-003	8.49104E-003	5.46066E-004	...........
	17	4.65	8.26500E-003	8.62291E-003	5.48166E-004	...........
	18	4.90833	8.37644E-003	8.72114E-003	5.40466E-004	...........
EOC	QUANT	0.0083764	Open Circuit (V)
PSTATMODEL	IQUANT	4	Pstat Model
PSTATSECTION	LABEL	REF600-11020	Pstat Section
PSTATSERIALNO	LABEL	11020	Pstat Serial Number
CTRLMODE	IQUANT	1	Control Mode
IESTAB	IQUANT	0	I/E Stability
CASPEED	IQUANT	1	Control Amp Speed
CONVENTION	IQUANT	1	Current Convention
ICHRANGE	IQUANT	2	Ich Range
ICHRANGEMODE	TOGGLE	F	Ich Auto Range
ICHOFFSETENABLE	TOGGLE	T	Ich Offset Enable
ICHOFFSET	QUANT	0	Ich Offset (V)
ICHFILTER	IQUANT	3	Ich Filter
VCHRANGE	IQUANT	2	Vch Range
VCHRANGEMODE	TOGGLE	F	Vch Auto Range
VCHOFFSETENABLE	TOGGLE	T	Vch Offset Enable
VCHOFFSET	QUANT	0	Vch Offset (V)
VCHFILTER	IQUANT	3	Vch Filter
ACHRANGE	IQUANT	2	Ach Range
ACHOFFSETENABLE	TOGGLE	F	Ach Offset Enable
ACHOFFSET	QUANT	0	Ach Offset (V)
ACHFILTER	IQUANT	3	Ach Filter
IERANGELOWERLIMIT	IQUANT	1	I/E Range Lower Limit
IERANGEMODE	TOGGLE	F	I/E AutoRange
IERANGE	IQUANT	5	I/E Range
POSFEEDENABLE	TOGGLE	F	Positive Feedback IR Comp
POSFEEDRESISTANCE	QUANT	0	Positive Feedback Resistance (ohm)
ACHSELECT	IQUANT	0	Ach Select
CABLEID	IQUANT	14	Cable ID
DCCALDATE	LABEL	8/19/2019	DC Calibration Date
ACCALDATE	LABEL	8/19/2019	AC Calibration Date
THERMOSELECT	IQUANT	1	Thermo Select
FRAMEWORKVERSION	QUANT	6.33	Framework Version
INSTRUMENTVERSION	LABEL	3.50	Instrument Version
ZCURVE	TABLE
	Pt	Time	Freq	Zreal	Zimag	Zsig	Zmod	Zphz	Idc	Vdc	IERange
	#	s	Hz	ohm	ohm	V	ohm	°	A	V	#
	0	1	1000078	1986.385	-1016.334	1	2231.291	-27.09657	2.334314E-006	0.009919	8
	1	2	794390.6	2172.787	-937.2646	1	2366.319	-23.33369	-1.956309E-006	0.0109752	8
	2	2	630984.4	2319.483	-836.4835	1	2465.706	-19.83101	-1.376819E-006	0.0099819	8
	3	2	501234.4	2434.697	-732.8148	1	2542.59	-16.75117	1.44199E-007	0.0098078	8
	4	3	398109.4	2522.735	-639.0858	1	2602.426	-14.2157	-4.653376E-006	0.0104282	8
	5	3	316265.6	2593.81	-554.4018	1	2652.397	-12.06488	-6.105134E-007	0.0105094	8
	6	3	251203.1	2647.49	-485.5191	1	2691.641	-10.39191	-4.395889E-006	0.010373	8
	7	4	199546.9	2689.05	-427.3491	1	2722.795	-9.030043	-2.422732E-007	0.010494	8
	8	4	158578.1	2723.293	-380.014	1	2749.679	-7.943877	-4.314559E-006	0.0103638	8
	9	4	125953.1	2769.622	-316.3295	1	2787.628	-6.515744	-1.406394E-006	0.0137503	7
	10	5	100078.1	2792.831	-292.9382	1	2808.152	-5.987821	-8.409545E-007	0.0115839	7
	11	5	79453.13	2816.429	-287.0946	1	2831.024	-5.820379	-6.60716E-007	0.0098437	7
	12	5	63140.62	2840.329	-286.8362	1	2854.776	-5.766576	-2.758197E-007	0.0112801	7
	13	5	50203.12	2867.072	-294.5908	1	2882.167	-5.866536	3.641692E-007	0.0104939	7
	14	6	39890.62	2894.171	-306.2252	1	2910.326	-6.039854	-9.675748E-007	0.01048	7
	15	6	31640.63	2924.243	-326.7507	1	2942.441	-6.375701	4.652955E-007	0.008457	7
	16	6	25171.88	2955.092	-353.131	1	2976.117	-6.814481	1.011928E-006	0.0086644	7
	17	7	20015.62	2987.67	-385.6055	1	3012.451	-7.354261	-1.153022E-006	0.0113671	7
	18	7	15890.62	3023.659	-428.3275	1	3053.847	-8.062795	6.247493E-008	0.0109064	7
	19	7	12609.37	3063.622	-480.3537	1	3101.051	-8.911014	7.348244E-007	0.0083635	7
	20	8	10078.13	3102.521	-541.2885	1	3149.385	-9.89663	-6.625833E-007	0.0098309	7
	21	8	8015.625	3149.353	-617.3181	1	3209.285	-11.09018	9.393397E-007	0.0093561	7
	22	8	6328.125	3194.896	-712.1321	1	3273.3	-12.56563	-1.155583E-006	0.0113673	7
	23	9	5015.625	3247.002	-828.063	1	3350.927	-14.30684	-9.724864E-007	0.0104699	7
	24	9	3984.375	3300.632	-966.953	1	3439.356	-16.32848	-2.774042E-007	0.0112646	7
	25	9	3170.956	3362.136	-1139.828	1	3550.094	-18.72763	1.268665E-007	0.0087138	7
	26	10	2527.573	3428.079	-1348.222	1	3683.67	-21.46911	1.025984E-006	0.0089541	7
	27	10	1976.103	3507.103	-1627.863	1	3866.485	-24.89892	9.188572E-007	0.0084422	7
	28	10	1577.524	3587.204	-1943.905	1	4080.049	-28.45326	5.689611E-007	0.0101944	7
	29	11	1265.625	3675.978	-2321.186	1	4347.496	-32.27024	-2.658761E-007	0.0091805	7
	30	11	998.264	3786.153	-2824.868	1	4723.858	-36.72681	7.373115E-007	0.0083524	7
	31	11	796.875	3910.616	-3412.279	1	5190.045	-41.10692	-1.15503E-006	0.0113587	7
	32	11	627.7902	4063.213	-4192.864	1	5838.648	-45.89968	7.354987E-007	0.0083548	7
	33	12	505.5147	4241.262	-5053.026	1	6597.073	-49.99155	-5.866996E-007	0.0114845	7
	34	12	397.9953	4473.331	-6231.659	1	7671.001	-54.32772	4.918753E-009	0.0100192	7
	35	12	315.5048	4765.724	-7648.609	1	9011.845	-58.07364	5.822603E-009	0.0100206	7
	36	13	252.4038	5128.231	-9313.196	1	10631.76	-61.161	6.933245E-010	0.0099672	6
	37	13	198.6229	5634.121	-11509.15	1	12814.21	-63.91668	1.356595E-010	0.0099598	6
	38	13	158.3615	6259.284	-14052.66	1	15383.62	-65.99103	-1.445426E-010	0.0099641	6
	39	14	125.558	7102.914	-17220.54	1	18627.89	-67.58544	4.960563E-011	0.0099691	6
	40	14	100.4464	8179.874	-20888.53	1	22433.03	-68.61487	8.245429E-010	0.0099625	6
	41	14	79.00281	9738.01	-25656.34	1	27442.24	-69.21546	-1.390043E-010	0.0099575	6
	42	15	63.3446	11319.13	-31159.64	1	33151.86	-70.03582	-5.178044E-010	0.00996	6
	43	15	49.86702	14020.17	-37813.96	1	40329.41	-69.65688	-2.616743E-010	0.0099562	6
	44	15	39.72458	17505.66	-45391.44	1	48650.09	-68.91038	1.120338E-009	0.0099569	6
	45	16	31.6723	21792.61	-54256.03	1	58469.09	-68.11653	5.360836E-010	0.0099508	6
	46	16	24.93351	27771.74	-65012.26	1	70695.57	-66.86894	1.16968E-010	0.0099573	6
	47	16	19.86229	34799.65	-76603.4	1	84137.37	-65.56849	1.230996E-009	0.0099601	6
	48	17	15.83615	43540.71	-89806.75	1	99805	-64.13465	-6.93666E-010	0.0099528	6
	49	17	12.40079	54611.32	-105345	1	118659	-62.59757	-3.416335E-010	0.0099525	5
	50	17	9.93114	67422.64	-120019.9	1	137661.2	-60.67438	-1.11186E-009	0.0099513	5
	51	18	7.944915	81838.1	-136327	1	159004.8	-59.0233	-1.520649E-009	0.0099557	5
	52	18	6.317385	98507.5	-154789.7	1	183476.4	-57.52749	-1.089042E-009	0.0099798	5
	53	19	5.008013	117273.8	-175270.2	1	210885.7	-56.2134	-6.436708E-010	0.0099495	5
	54	20	3.945707	137411.4	-198432.8	1	241365.8	-55.29805	-3.109569E-010	0.0099439	5
	55	22	3.158693	157989.5	-223187.8	1	273447.4	-54.7062	-3.486229E-011	0.0099671	5
	56	23	2.504006	180663.5	-253117.1	1	310978.3	-54.48248	-2.961239E-010	0.0099615	5
	57	25	1.998082	203657.4	-288072.2	1	352791.7	-54.74097	-3.480964E-010	0.0099356	5
	58	26	1.584686	229970.2	-330133.5	1	402336.2	-55.13903	-1.410103E-010	0.0099806	5
	59	28	1.266892	258978.3	-380778.1	1	460501.6	-55.77924	-7.788202E-011	0.0099875	5
	60	31	0.999041	293405	-445738.5	1	533637.9	-56.6453	-4.206087E-011	0.0099847	5
