EXPLAIN
TAG	EISPOT
TITLE	LABEL	Potentiostatic EIS	Test &Identifier
DATE	LABEL	10/20/2019	Date
TIME	LABEL	8:56:35	Time
NOTES	NOTES	1	&Notes...
	
PSTAT	PSTAT	REF600-11020	Potentiostat
VDC	POTEN	0.00000E+000	T	DC &Voltage (V)
FREQINIT	QUANT	1.00000E+006	Initial Fre&q. (Hz)
FREQFINAL	QUANT	1.00000E+000	Final Fre&q. (Hz)
PTSPERDEC	QUANT	1.00000E+001	Points/&decade
VAC	QUANT	2.50000E+001	AC &Voltage (mV rms)
AREA	QUANT	1.00000E-002	&Area (cm^2)
CONDIT	TWOPARAM	T	5.00000E+000	0.00000E+000	Conditionin&g	Time(s)	E(V)
DELAY	TWOPARAM	T	5.00000E+000	0.00000E+000	Init. De&lay	Time(s)	Stab.(mV/s)
SPEED	SELECTOR	1	&Optimize for:
ZGUESS	QUANT	1.00000E+005	E&stimated Z (ohms)
OCVCURVE	TABLE	19
	Pt	T	Vf	Vm	Ach	Over
	#	s	V vs. Ref.	V	V	bits
	0	0.258333	3.09839E-003	3.09839E-003	5.40266E-004	...........
	1	0.516667	3.09667E-003	3.00820E-003	5.42766E-004	...........
	2	0.775	3.08403E-003	2.81516E-003	5.45866E-004	...........
	3	1.03333	3.04984E-003	3.06857E-003	5.45299E-004	...........
	4	1.29167	3.00316E-003	2.84868E-003	5.46299E-004	...........
	5	1.55	2.96291E-003	2.82219E-003	5.48066E-004	...........
	6	1.80833	2.92965E-003	2.90517E-003	5.54033E-004	...........
	7	2.06667	2.90150E-003	2.97743E-003	5.44933E-004	...........
	8	2.325	2.88571E-003	2.62989E-003	5.46566E-004	...........
	9	2.58333	2.87009E-003	2.74761E-003	5.38099E-004	...........
	10	2.84167	2.83567E-003	2.84674E-003	5.51166E-004	...........
	11	3.1	2.79664E-003	2.74724E-003	5.44133E-004	...........
	12	3.35833	2.77573E-003	2.71789E-003	5.44199E-004	...........
	13	3.61667	2.76737E-003	2.75186E-003	5.44966E-004	...........
	14	3.875	2.75741E-003	2.69901E-003	5.50733E-004	...........
	15	4.13333	2.74407E-003	2.71086E-003	5.44799E-004	...........
	16	4.39167	2.73060E-003	2.71330E-003	5.47566E-004	...........
	17	4.65	2.71978E-003	2.71126E-003	5.46799E-004	...........
	18	4.90833	2.71244E-003	2.65339E-003	5.45266E-004	...........
EOC	QUANT	0.0027124	Open Circuit (V)
PSTATMODEL	IQUANT	4	Pstat Model
PSTATSECTION	LABEL	REF600-11020	Pstat Section
PSTATSERIALNO	LABEL	11020	Pstat Serial Number
CTRLMODE	IQUANT	1	Control Mode
IESTAB	IQUANT	0	I/E Stability
CASPEED	IQUANT	1	Control Amp Speed
CONVENTION	IQUANT	1	Current Convention
ICHRANGE	IQUANT	2	Ich Range
ICHRANGEMODE	TOGGLE	F	Ich Auto Range
ICHOFFSETENABLE	TOGGLE	T	Ich Offset Enable
ICHOFFSET	QUANT	0	Ich Offset (V)
ICHFILTER	IQUANT	3	Ich Filter
VCHRANGE	IQUANT	2	Vch Range
VCHRANGEMODE	TOGGLE	F	Vch Auto Range
VCHOFFSETENABLE	TOGGLE	T	Vch Offset Enable
VCHOFFSET	QUANT	0	Vch Offset (V)
VCHFILTER	IQUANT	3	Vch Filter
ACHRANGE	IQUANT	2	Ach Range
ACHOFFSETENABLE	TOGGLE	F	Ach Offset Enable
ACHOFFSET	QUANT	0	Ach Offset (V)
ACHFILTER	IQUANT	3	Ach Filter
IERANGELOWERLIMIT	IQUANT	1	I/E Range Lower Limit
IERANGEMODE	TOGGLE	F	I/E AutoRange
IERANGE	IQUANT	4	I/E Range
POSFEEDENABLE	TOGGLE	F	Positive Feedback IR Comp
POSFEEDRESISTANCE	QUANT	0	Positive Feedback Resistance (ohm)
ACHSELECT	IQUANT	0	Ach Select
CABLEID	IQUANT	14	Cable ID
DCCALDATE	LABEL	8/19/2019	DC Calibration Date
ACCALDATE	LABEL	8/19/2019	AC Calibration Date
THERMOSELECT	IQUANT	1	Thermo Select
FRAMEWORKVERSION	QUANT	6.33	Framework Version
INSTRUMENTVERSION	LABEL	3.50	Instrument Version
ZCURVE	TABLE
	Pt	Time	Freq	Zreal	Zimag	Zsig	Zmod	Zphz	Idc	Vdc	IERange
	#	s	Hz	ohm	ohm	V	ohm	°	A	V	#
	0	2	1000078	1367.375	-1575.72	1	2086.291	-49.04927	-2.173144E-007	0.0044962	8
	1	3	794390.6	1450.232	-1874.897	1	2370.319	-52.27807	1.841592E-006	0.0043951	8
	2	4	630984.4	1563.956	-2230.323	1	2724.022	-54.96095	-1.453476E-006	0.0048201	8
	3	6	501234.4	1686.714	-2690.248	1	3175.286	-57.91339	2.833102E-007	0.0045449	8
	4	7	398109.4	1872.704	-3245.104	1	3746.695	-60.01136	-3.359305E-006	0.0051592	8
	5	9	316265.6	2080.279	-3952.075	1	4466.146	-62.23874	1.2282E-006	0.0041222	8
	6	10	251203.1	2438.381	-4767.322	1	5354.724	-62.91125	-1.792399E-006	0.0047364	8
	7	12	199546.9	2846.238	-5786.742	1	6448.833	-63.8095	2.034153E-006	0.0039535	8
	8	13	158578.1	3399.366	-7020.356	1	7800.07	-64.16301	-3.024944E-006	0.0050283	8
	9	15	125953.1	4399.761	-8342.127	1	9431.276	-62.19217	7.033266E-007	0.0033781	7
	10	17	100078.1	5391.972	-9837.41	1	11218.2	-61.27245	3.757981E-009	0.0042798	7
	11	18	79453.13	6763.179	-11547.95	1	13382.67	-59.64418	-8.151216E-008	0.004488	7
	12	20	63140.62	8540.738	-13362.46	1	15858.73	-57.41494	5.214037E-008	0.00427	7
	13	21	50203.12	10714.52	-15176.1	1	18577.27	-54.77741	1.471756E-007	0.0041256	7
	14	23	39890.62	13343.5	-16890.71	1	21525.46	-51.69161	1.792845E-008	0.0044426	7
	15	25	31640.63	16368.22	-18371.24	1	24605.31	-48.29992	3.667867E-008	0.004196	7
	16	26	25171.88	19590	-19554.24	1	27679.17	-44.94766	-4.63682E-008	0.004362	7
	17	28	20015.62	22657.96	-20856.45	1	30795.69	-42.62929	-4.712025E-008	0.0043628	7
	18	29	15890.62	26536.17	-21246.94	1	33994.13	-38.68351	8.540915E-008	0.0041471	7
	19	31	12609.37	30369.18	-21407.77	1	37156.15	-35.18068	4.277561E-009	0.0043359	6
	20	32	10078.13	33618.96	-21772.19	1	40053.25	-32.92776	-4.810709E-009	0.0044567	6
	21	34	8015.625	37143.43	-22460.72	1	43406.43	-31.16146	-9.950191E-009	0.0043634	6
	22	36	6328.125	40089.28	-22606.3	1	46023.85	-29.4186	1.853929E-008	0.0040125	6
	23	37	5015.625	43221.54	-23138.41	1	49025.38	-28.16213	1.833395E-008	0.0039323	6
	24	39	3984.375	46109.02	-23657.94	1	51824.12	-27.16177	-1.181192E-008	0.004367	6
	25	40	3170.956	49576.66	-24704.07	1	55390.76	-26.48709	-9.278317E-009	0.0043575	6
	26	42	2527.573	52887.98	-25821.78	1	58854.93	-26.02327	-1.992704E-009	0.0042482	6
	27	43	1976.103	56412.54	-27096.46	1	62582.68	-25.65623	5.602323E-009	0.004264	6
	28	44	1577.524	57193.69	-24381.96	1	62173.93	-23.08879	-6.284342E-009	0.0043804	6
	29	46	1265.625	63952.71	-30164.18	1	70709.46	-25.25156	-1.05899E-009	0.0042418	6
	30	48	998.264	68444.81	-31837.93	1	75487.39	-24.94606	-1.768248E-009	0.0042429	6
	31	49	796.875	73482.77	-34718.87	1	81271.88	-25.28962	1.097973E-007	0.0042373	7
	32	51	627.7902	77808.33	-36223.88	1	85827.19	-24.96446	3.653451E-009	0.0040839	6
	33	52	505.5147	82669.77	-38461.94	1	91179.01	-24.95011	1.849318E-008	0.004005	6
	34	54	397.9953	88356.18	-40434.47	1	97168.7	-24.59027	-5.663005E-010	0.0042764	5
	35	55	315.5048	93745.04	-43249.04	1	103240.6	-24.76612	1.48997E-010	0.0042733	5
	36	56	252.4038	99087.5	-46001.01	1	109244.8	-24.90291	-4.548787E-010	0.0042718	5
	37	58	198.6229	104942.8	-49805.19	1	116161.7	-25.38873	1.901259E-010	0.0042763	5
	38	59	158.3615	110766.4	-54055.67	1	123252.6	-26.01307	-5.078344E-010	0.0042793	5
	39	61	125.558	117129.6	-59096.52	1	131193.5	-26.77275	-2.094681E-010	0.0042789	5
	40	62	100.4464	123880.8	-65094.93	1	139942.2	-27.72032	2.531982E-010	0.0042729	5
	41	64	79.00281	130063.6	-73032.79	1	149165.4	-29.31491	2.541677E-010	0.0042758	5
	42	65	63.3446	131181.4	-87773.18	1	157837.6	-33.78639	6.575724E-010	0.0042742	5
	43	67	49.86702	147293.3	-91296.6	1	173292.8	-31.79182	-2.312041E-010	0.0042691	5
	44	68	39.72458	158482.2	-104042.1	1	189582.1	-33.28452	2.58971E-010	0.0042798	5
	45	70	31.6723	170870.4	-116422.8	1	206763.1	-34.26861	2.116875E-010	0.0042757	5
	46	71	24.93351	182971	-133026.2	1	226217.5	-36.01845	1.321467E-010	0.004272	5
	47	73	19.86229	195329.4	-149711.8	1	246104.1	-37.46866	3.061997E-010	0.0042767	5
	48	74	15.83615	213957.5	-163224.9	1	269109.9	-37.33945	1.917315E-009	0.0042736	5
	49	75	12.40079	230062.6	-201532.4	1	305849.8	-41.21801	9.392334E-012	0.0042742	5
	50	77	9.93114	251563.5	-228021.4	1	339526.1	-42.1897	3.660334E-010	0.0042759	5
	51	78	7.944915	275336.8	-266032.2	1	382862.3	-44.01534	-4.452705E-010	0.0042771	5
	52	80	6.317385	308461.4	-299146.9	1	429694.4	-44.12174	-1.891023E-010	0.0042737	5
	53	82	5.008013	345336.3	-344374.7	1	487699.8	-44.92012	2.640169E-011	0.0042622	5
	54	85	3.945707	389732.5	-393508.8	1	553841.7	-45.27624	5.586231E-011	0.0042742	5
	55	87	3.158693	441994.2	-448408.3	1	629625.9	-45.41272	-7.588571E-011	0.0042728	5
	56	91	2.504006	502818.3	-506742.3	1	713872.6	-45.2227	2.109743E-010	0.0042621	5
	57	94	1.998082	567486.9	-567857.4	1	802809.7	-45.0187	-2.955211E-010	0.0043023	5
	58	97	1.584686	645898.6	-634096.7	1	905131.8	-44.47173	1.49412E-010	0.0043073	5
	59	100	1.266892	726176.5	-702946.3	1	1010676	-44.06875	-2.494369E-010	0.0043027	4
	60	105	0.999041	818308.1	-785202.8	1	1134095	-43.81727	2.590173E-010	0.0042576	4
