EXPLAIN
TAG	EISPOT
TITLE	LABEL	Potentiostatic IDE	Test &Identifier
DATE	LABEL	9/10/2019	Date
TIME	LABEL	9:39:54	Time
NOTES	NOTES	1	&Notes...
	
PSTAT	PSTAT	REF600-11020	Potentiostat
VDC	POTEN	0.00000E+000	T	DC &Voltage (V)
FREQINIT	QUANT	1.00000E+006	Initial Fre&q. (Hz)
FREQFINAL	QUANT	1.00000E+000	Final Fre&q. (Hz)
PTSPERDEC	QUANT	1.00000E+001	Points/&decade
VAC	QUANT	2.50000E+001	AC &Voltage (mV rms)
AREA	QUANT	1.00000E-002	&Area (cm^2)
CONDIT	TWOPARAM	T	5.00000E+000	0.00000E+000	Conditionin&g	Time(s)	E(V)
DELAY	TWOPARAM	T	5.00000E+000	0.00000E+000	Init. De&lay	Time(s)	Stab.(mV/s)
SPEED	SELECTOR	1	&Optimize for:
ZGUESS	QUANT	1.00000E+007	E&stimated Z (ohms)
OCVCURVE	TABLE	19
	Pt	T	Vf	Vm	Ach	Over
	#	s	V vs. Ref.	V	V	bits
	0	0.258333	2.32968E-003	2.32968E-003	5.36799E-004	...........
	1	0.516667	2.32182E-003	1.91854E-003	5.41499E-004	...........
	2	0.775	2.27406E-003	1.55298E-003	5.41399E-004	...........
	3	1.03333	2.14078E-003	1.21907E-003	5.44366E-004	...........
	4	1.29167	1.90709E-003	9.18570E-004	5.43399E-004	...........
	5	1.55	1.60478E-003	6.35285E-004	5.40533E-004	...........
	6	1.80833	1.28079E-003	3.72999E-004	5.40599E-004	...........
	7	2.06667	9.66924E-004	1.26169E-004	5.39133E-004	...........
	8	2.325	6.75121E-004	-1.06314E-004	5.43066E-004	...........
	9	2.58333	4.05665E-004	-3.30081E-004	5.35566E-004	...........
	10	2.84167	1.54757E-004	-5.45830E-004	5.38799E-004	...........
	11	3.1	-8.14700E-005	-7.36913E-004	5.40199E-004	...........
	12	3.35833	-3.05334E-004	-9.40907E-004	5.40166E-004	...........
	13	3.61667	-5.18143E-004	-1.11931E-003	5.35666E-004	...........
	14	3.875	-7.21144E-004	-1.29793E-003	5.41266E-004	...........
	15	4.13333	-9.15244E-004	-1.46827E-003	5.38199E-004	...........
	16	4.39167	-1.10105E-003	-1.63431E-003	5.43533E-004	...........
	17	4.65	-1.27931E-003	-1.78776E-003	5.38499E-004	...........
	18	4.90833	-1.45057E-003	-1.94379E-003	5.35699E-004	...........
EOC	QUANT	-0.0014506	Open Circuit (V)
PSTATMODEL	IQUANT	4	Pstat Model
PSTATSECTION	LABEL	REF600-11020	Pstat Section
PSTATSERIALNO	LABEL	11020	Pstat Serial Number
CTRLMODE	IQUANT	1	Control Mode
IESTAB	IQUANT	0	I/E Stability
CASPEED	IQUANT	1	Control Amp Speed
CONVENTION	IQUANT	1	Current Convention
ICHRANGE	IQUANT	2	Ich Range
ICHRANGEMODE	TOGGLE	F	Ich Auto Range
ICHOFFSETENABLE	TOGGLE	T	Ich Offset Enable
ICHOFFSET	QUANT	0	Ich Offset (V)
ICHFILTER	IQUANT	3	Ich Filter
VCHRANGE	IQUANT	2	Vch Range
VCHRANGEMODE	TOGGLE	F	Vch Auto Range
VCHOFFSETENABLE	TOGGLE	T	Vch Offset Enable
VCHOFFSET	QUANT	0	Vch Offset (V)
VCHFILTER	IQUANT	3	Vch Filter
ACHRANGE	IQUANT	2	Ach Range
ACHOFFSETENABLE	TOGGLE	F	Ach Offset Enable
ACHOFFSET	QUANT	0	Ach Offset (V)
ACHFILTER	IQUANT	3	Ach Filter
IERANGELOWERLIMIT	IQUANT	1	I/E Range Lower Limit
IERANGEMODE	TOGGLE	F	I/E AutoRange
IERANGE	IQUANT	2	I/E Range
POSFEEDENABLE	TOGGLE	F	Positive Feedback IR Comp
POSFEEDRESISTANCE	QUANT	0	Positive Feedback Resistance (ohm)
ACHSELECT	IQUANT	0	Ach Select
CABLEID	IQUANT	14	Cable ID
DCCALDATE	LABEL	8/19/2019	DC Calibration Date
ACCALDATE	LABEL	8/19/2019	AC Calibration Date
THERMOSELECT	IQUANT	1	Thermo Select
FRAMEWORKVERSION	QUANT	6.33	Framework Version
INSTRUMENTVERSION	LABEL	3.50	Instrument Version
ZCURVE	TABLE
	Pt	Time	Freq	Zreal	Zimag	Zsig	Zmod	Zphz	Idc	Vdc	IERange
	#	s	Hz	ohm	ohm	V	ohm	°	A	V	#
	0	2	1000078	2606.55	-1877.87	1	3212.553	-35.7706	-1.931077E-006	0.0010083	8
	1	3	794390.6	2971.813	-1800.934	1	3474.916	-31.21607	-2.665403E-006	0.0012132	8
	2	5	630984.4	3320.657	-1681.185	1	3721.981	-26.85221	3.445619E-008	0.0002452	8
	3	6	501234.4	3610.309	-1508.629	1	3912.837	-22.67844	1.473606E-006	-8.874542E-005	8
	4	7	398109.4	3832.364	-1330.236	1	4056.667	-19.14219	-1.509721E-006	0.0004519	8
	5	9	316265.6	4004.374	-1167.394	1	4171.069	-16.25297	4.169707E-007	1.204978E-005	8
	6	10	251203.1	4147.925	-1002.414	1	4267.332	-13.58598	1.559161E-006	-0.0002008	8
	7	11	199546.9	4239.139	-867.0325	1	4326.898	-11.5593	6.513786E-008	0.0002095	8
	8	13	158578.1	4310.992	-755.6033	1	4376.71	-9.94146	-1.521682E-007	0.0002682	8
	9	14	125953.1	4394.763	-637.6247	1	4440.777	-8.255292	3.242998E-007	-0.0011154	7
	10	15	100078.1	4440.645	-574.364	1	4477.636	-7.369862	-4.426373E-009	6.633248E-005	7
	11	17	79453.13	4483.614	-532.3773	1	4515.11	-6.771507	-4.157208E-008	0.000125	7
	12	18	63140.62	4523.201	-509.1835	1	4551.771	-6.422832	-1.550291E-008	9.476183E-005	7
	13	19	50203.12	4564.141	-498.4088	1	4591.274	-6.232063	-2.327273E-008	5.655918E-005	7
	14	21	39890.62	4602.569	-501.8547	1	4629.849	-6.22283	-5.968238E-008	0.0002469	7
	15	22	31640.63	4643.487	-517.3915	1	4672.223	-6.357846	5.094365E-008	-1.003355E-005	7
	16	23	25171.88	4688.956	-547.6803	1	4720.833	-6.662085	-3.129334E-009	5.341859E-005	7
	17	25	20015.62	4736.861	-586.5549	1	4773.039	-7.058876	3.41101E-008	2.369259E-005	7
	18	26	15890.62	4785.858	-642.4312	1	4828.784	-7.645414	-4.19987E-008	0.0001186	7
	19	27	12609.37	4846.649	-719.8696	1	4899.818	-8.44834	-3.458206E-008	0.000145	7
	20	29	10078.13	4908.338	-806.7629	1	4974.199	-9.334006	-5.709296E-008	0.0001391	7
	21	30	8015.625	4977.46	-918.6696	1	5061.528	-10.45717	-5.758675E-008	0.0001334	7
	22	31	6328.125	5056.926	-1061.856	1	5167.208	-11.85871	-6.10319E-009	4.565315E-005	7
	23	33	5015.625	5148.759	-1221.478	1	5291.666	-13.34597	-4.382639E-009	4.557505E-005	7
	24	34	3984.375	5245.438	-1420.688	1	5434.424	-15.15457	7.529071E-008	-6.275798E-006	7
	25	35	3170.956	5359.663	-1655.4	1	5609.486	-17.16396	7.556419E-008	-9.916303E-006	7
	26	37	2527.573	5484.605	-1925.88	1	5812.909	-19.34836	6.457833E-008	-7.482159E-005	7
	27	38	1976.103	5641.839	-2294.72	1	6090.656	-22.13318	2.898037E-009	6.152788E-005	7
	28	39	1577.524	5804.131	-2691.221	1	6397.704	-24.8759	-3.220785E-008	0.0001431	7
	29	41	1265.625	5980.129	-3153.755	1	6760.778	-27.80592	-1.210543E-008	9.169144E-005	7
	30	42	998.264	6196.92	-3758.346	1	7247.55	-31.23623	-5.685802E-008	0.0001446	7
	31	43	796.875	6427.527	-4449.14	1	7817.157	-34.69102	-1.030908E-008	0.0001064	7
	32	44	627.7902	6703.226	-5345.426	1	8573.612	-38.57029	-5.792327E-008	0.0001395	7
	33	46	505.5147	6990.291	-6326.452	1	9428.052	-42.14617	-5.845925E-008	0.0001374	7
	34	47	397.9953	7363.484	-7651.197	1	10618.93	-46.09777	1.170364E-009	2.491277E-005	6
	35	48	315.5048	7771.989	-9229.78	1	12066.18	-49.90076	7.861328E-010	2.032512E-005	6
	36	50	252.4038	8228.559	-11079.96	1	13801.26	-53.40049	6.230576E-010	1.521774E-005	6
	37	51	198.6229	8799.134	-13515.87	1	16127.73	-56.93497	8.807085E-010	2.028604E-005	6
	38	52	158.3615	9434.902	-16342.27	1	18870.27	-60.00081	9.759091E-010	1.973925E-005	6
	39	54	125.558	10204.96	-19901.03	1	22364.98	-62.8519	7.750313E-010	1.955684E-005	6
	40	55	100.4464	11103.53	-24096.4	1	26531.58	-65.25993	4.805072E-010	1.730623E-005	6
	41	56	79.00281	12278.59	-29628.72	1	32072.19	-67.49014	5.517103E-010	1.348933E-005	6
	42	58	63.3446	13424.11	-35869.93	1	38299.59	-69.48193	8.864389E-010	1.447369E-005	6
	43	59	49.86702	15549.52	-44319.48	1	46968.12	-70.66654	1.166632E-009	1.040331E-005	6
	44	61	39.72458	17644.93	-54161.87	1	56963.6	-71.95535	7.38844E-010	1.48857E-005	6
	45	62	31.6723	20415.05	-66003.29	1	69088.41	-72.81297	8.082149E-010	1.823251E-005	6
	46	63	24.93351	24532.15	-81402.66	1	85018.94	-73.22887	1.015499E-009	9.832998E-006	6
	47	65	19.86229	29650.04	-99225.8	1	103561	-73.36313	7.797248E-010	1.333297E-005	6
	48	66	15.83615	36740.68	-120399.5	1	125880.5	-73.03009	-1.701825E-010	1.622339E-005	5
	49	67	12.40079	46161.85	-148570.7	1	155576.9	-72.73965	5.259639E-011	2.21738E-005	5
	50	69	9.93114	57099.69	-178197.9	1	187122.6	-72.23306	2.052976E-010	2.257101E-005	5
	51	70	7.944915	71865.95	-213415.7	1	225191	-71.38948	2.594638E-010	1.804364E-005	5
	52	72	6.317385	91389.77	-256049.5	1	271870.3	-70.35739	6.508666E-010	8.771012E-006	5
	53	74	5.008013	116976.9	-306432.4	1	328000.6	-69.10625	3.261063E-010	2.331824E-005	5
	54	77	3.945707	150230.5	-365708	1	395362.5	-67.66746	6.541761E-011	1.738174E-005	5
	55	79	3.158693	189669.2	-428439.9	1	468545.7	-66.12115	2.562608E-010	1.96487E-005	5
	56	82	2.504006	239215.3	-501712.7	1	555823.4	-64.50832	3.306248E-010	2.531842E-005	5
	57	85	1.998082	297559.2	-580842.9	1	652625.4	-62.87445	4.881347E-010	3.163706E-005	5
	58	88	1.584686	369891.1	-668139.1	1	763694.5	-61.03048	2.941165E-010	-1.869005E-005	5
	59	92	1.266892	451659	-763732.7	1	887290	-59.40062	3.118484E-010	5.537483E-005	5
	60	96	0.999041	551558.6	-871154.3	1	1031080	-57.66065	9.182336E-011	-2.704327E-005	4
