EXPLAIN
TAG	EISPOT
TITLE	LABEL	Potentiostatic IDE	Test &Identifier
DATE	LABEL	9/14/2019	Date
TIME	LABEL	11:56:38	Time
NOTES	NOTES	1	&Notes...
	
PSTAT	PSTAT	REF600-11020	Potentiostat
VDC	POTEN	0.00000E+000	T	DC &Voltage (V)
FREQINIT	QUANT	1.00000E+006	Initial Fre&q. (Hz)
FREQFINAL	QUANT	1.00000E+000	Final Fre&q. (Hz)
PTSPERDEC	QUANT	1.00000E+001	Points/&decade
VAC	QUANT	2.50000E+001	AC &Voltage (mV rms)
AREA	QUANT	1.00000E-002	&Area (cm^2)
CONDIT	TWOPARAM	T	5.00000E+000	0.00000E+000	Conditionin&g	Time(s)	E(V)
DELAY	TWOPARAM	T	5.00000E+000	0.00000E+000	Init. De&lay	Time(s)	Stab.(mV/s)
SPEED	SELECTOR	1	&Optimize for:
ZGUESS	QUANT	1.00000E+007	E&stimated Z (ohms)
OCVCURVE	TABLE	19
	Pt	T	Vf	Vm	Ach	Over
	#	s	V vs. Ref.	V	V	bits
	0	0.258333	6.59623E-003	6.59623E-003	5.66799E-004	...........
	1	0.516667	6.59656E-003	6.61337E-003	5.64099E-004	...........
	2	0.775	6.59860E-003	6.63119E-003	5.63999E-004	...........
	3	1.03333	6.60482E-003	6.66672E-003	5.65199E-004	...........
	4	1.29167	6.61787E-003	6.71023E-003	5.61899E-004	...........
	5	1.55	6.63971E-003	6.75791E-003	5.67299E-004	...........
	6	1.80833	6.67079E-003	6.80046E-003	5.69899E-004	...........
	7	2.06667	6.70969E-003	6.86370E-003	5.68899E-004	...........
	8	2.325	6.75455E-003	6.91692E-003	5.66499E-004	...........
	9	2.58333	6.80347E-003	6.93438E-003	5.64432E-004	...........
	10	2.84167	6.85284E-003	6.98956E-003	5.67066E-004	...........
	11	3.1	6.89932E-003	7.04091E-003	5.63899E-004	...........
	12	3.35833	6.94364E-003	7.08644E-003	5.67232E-004	...........
	13	3.61667	6.98857E-003	7.13138E-003	5.65799E-004	...........
	14	3.875	7.03501E-003	7.18572E-003	5.65732E-004	...........
	15	4.13333	7.08276E-003	7.24476E-003	5.69632E-004	...........
	16	4.39167	7.13209E-003	7.28148E-003	5.68899E-004	...........
	17	4.65	7.18230E-003	7.32129E-003	5.68466E-004	...........
	18	4.90833	7.23108E-003	7.36808E-003	5.66066E-004	...........
EOC	QUANT	0.0072311	Open Circuit (V)
PSTATMODEL	IQUANT	4	Pstat Model
PSTATSECTION	LABEL	REF600-11020	Pstat Section
PSTATSERIALNO	LABEL	11020	Pstat Serial Number
CTRLMODE	IQUANT	1	Control Mode
IESTAB	IQUANT	0	I/E Stability
CASPEED	IQUANT	1	Control Amp Speed
CONVENTION	IQUANT	1	Current Convention
ICHRANGE	IQUANT	2	Ich Range
ICHRANGEMODE	TOGGLE	F	Ich Auto Range
ICHOFFSETENABLE	TOGGLE	T	Ich Offset Enable
ICHOFFSET	QUANT	0	Ich Offset (V)
ICHFILTER	IQUANT	3	Ich Filter
VCHRANGE	IQUANT	2	Vch Range
VCHRANGEMODE	TOGGLE	F	Vch Auto Range
VCHOFFSETENABLE	TOGGLE	T	Vch Offset Enable
VCHOFFSET	QUANT	0	Vch Offset (V)
VCHFILTER	IQUANT	3	Vch Filter
ACHRANGE	IQUANT	2	Ach Range
ACHOFFSETENABLE	TOGGLE	F	Ach Offset Enable
ACHOFFSET	QUANT	0	Ach Offset (V)
ACHFILTER	IQUANT	3	Ach Filter
IERANGELOWERLIMIT	IQUANT	1	I/E Range Lower Limit
IERANGEMODE	TOGGLE	F	I/E AutoRange
IERANGE	IQUANT	3	I/E Range
POSFEEDENABLE	TOGGLE	F	Positive Feedback IR Comp
POSFEEDRESISTANCE	QUANT	0	Positive Feedback Resistance (ohm)
ACHSELECT	IQUANT	0	Ach Select
CABLEID	IQUANT	14	Cable ID
DCCALDATE	LABEL	8/19/2019	DC Calibration Date
ACCALDATE	LABEL	8/19/2019	AC Calibration Date
THERMOSELECT	IQUANT	1	Thermo Select
FRAMEWORKVERSION	QUANT	6.33	Framework Version
INSTRUMENTVERSION	LABEL	3.50	Instrument Version
ZCURVE	TABLE
	Pt	Time	Freq	Zreal	Zimag	Zsig	Zmod	Zphz	Idc	Vdc	IERange
	#	s	Hz	ohm	ohm	V	ohm	°	A	V	#
	0	2	1000078	2303.494	-1679.414	1	2850.704	-36.09477	5.352365E-006	0.0089672	8
	1	3	794390.6	2653.297	-1587.204	1	3091.796	-30.8879	5.970539E-007	0.0087917	8
	2	4	630984.4	2948.569	-1458.417	1	3289.535	-26.31786	-4.430798E-006	0.0100099	8
	3	6	501234.4	3191.633	-1293.504	1	3443.788	-22.06171	2.514052E-007	0.0093416	8
	4	7	398109.4	3390.853	-1143.905	1	3578.603	-18.64184	-3.828151E-006	0.009734	8
	5	8	316265.6	3522.937	-975.815	1	3655.585	-15.48214	-9.542676E-007	0.0092266	8
	6	10	251203.1	3626.338	-834.1235	1	3721.033	-12.95375	-1.6081E-006	0.0091784	8
	7	11	199546.9	3698.02	-731.0372	1	3769.585	-11.18225	8.255891E-007	0.0086742	8
	8	13	158578.1	3774.556	-626.2416	1	3826.154	-9.420208	1.686254E-006	0.0084457	8
	9	14	125953.1	3839.769	-495.4184	1	3871.597	-7.351856	1.366846E-006	0.0057664	7
	10	16	100078.1	3865.362	-442.4095	1	3890.598	-6.529368	-4.212346E-009	0.0088935	7
	11	17	79453.13	3897.193	-409.0324	1	3918.599	-5.99158	-4.492097E-008	0.0088859	7
	12	18	63140.62	3926.915	-388.8789	1	3946.124	-5.655511	-4.303322E-008	0.0088786	7
	13	20	50203.12	3954.661	-377.9664	1	3972.682	-5.459456	-4.508196E-008	0.0089025	7
	14	21	39890.62	3987.773	-377.8342	1	4005.632	-5.412512	6.54847E-008	0.0088341	7
	15	22	31640.63	4017.457	-388.4799	1	4036.196	-5.523212	1.339034E-007	0.0086548	7
	16	24	25171.88	4049.054	-409.218	1	4069.681	-5.771008	-4.137306E-009	0.0088794	7
	17	25	20015.62	4083.948	-437.9322	1	4107.361	-6.120584	-2.137244E-008	0.0088369	7
	18	26	15890.62	4124.798	-476.5762	1	4152.238	-6.59069	7.850993E-008	0.0087023	7
	19	28	12609.37	4162.518	-532.1636	1	4196.398	-7.285547	-3.852168E-008	0.008968	7
	20	29	10078.13	4203.747	-595.9009	1	4245.772	-8.068192	8.657664E-008	0.0086697	7
	21	30	8015.625	4252.011	-678.3279	1	4305.778	-9.064078	1.350441E-007	0.008646	7
	22	32	6328.125	4305.083	-781.6618	1	4375.469	-10.29093	8.667665E-008	0.0086617	7
	23	33	5015.625	4362.404	-908.23	1	4455.946	-11.76068	3.019708E-008	0.0088073	7
	24	34	3984.375	4425.871	-1062.46	1	4551.61	-13.4988	1.337862E-007	0.0086381	7
	25	36	3170.956	4495.919	-1245.985	1	4665.38	-15.49002	-4.032661E-008	0.0088606	7
	26	37	2527.573	4575.756	-1470.358	1	4806.194	-17.81411	-4.304884E-008	0.0088693	7
	27	38	1976.103	4674.253	-1770.57	1	4998.356	-20.74629	-2.047233E-008	0.0088299	7
	28	40	1577.524	4776.579	-2102.52	1	5218.841	-23.75778	8.047734E-008	0.0086916	7
	29	41	1265.625	4893.235	-2507.829	1	5498.45	-27.13557	-9.781805E-009	0.0088667	7
	30	42	998.264	5040.202	-3015.914	1	5873.617	-30.89511	3.358884E-008	0.0088119	7
	31	44	796.875	5200.432	-3617.035	1	6334.622	-34.81961	-2.060204E-008	0.0088261	7
	32	45	627.7902	5400.835	-4388.096	1	6958.765	-39.09333	-3.929452E-008	0.008895	7
	33	46	505.5147	5614.934	-5245.576	1	7683.98	-43.05216	3.395367E-008	0.008807	7
	34	48	397.9953	5887.329	-6399.499	1	8695.645	-47.38696	6.328307E-009	0.008849	7
	35	49	315.5048	6199.825	-7774.827	1	9944.13	-51.43034	6.367505E-009	0.0088473	7
	36	50	252.4038	6558.704	-9389.694	1	11453.51	-55.06569	6.239791E-010	0.0087826	6
	37	52	198.6229	7014.854	-11521.57	1	13489.06	-58.66505	1.361626E-009	0.008787	6
	38	53	158.3615	7536.357	-14005.63	1	15904.54	-61.71553	1.519746E-009	0.0087888	6
	39	54	125.558	8185.941	-17130.38	1	18985.78	-64.45869	9.276588E-010	0.0087858	6
	40	56	100.4464	8947.112	-20818.99	1	22660.12	-66.74403	2.070684E-009	0.0087894	6
	41	57	79.00281	9966.46	-25692.97	1	27558.28	-68.79841	1.740566E-010	0.0087883	6
	42	58	63.3446	11549.37	-31190.93	1	33260.51	-69.68143	1.034897E-009	0.0087747	6
	43	60	49.86702	12774.43	-38608.04	1	40666.53	-71.69192	-6.828986E-011	0.0087839	6
	44	61	39.72458	15201.57	-46940.99	1	49341.1	-72.05576	1.046307E-009	0.0087876	6
	45	62	31.6723	17802.97	-57189.43	1	59896.38	-72.70872	1.352704E-009	0.0087888	6
	46	64	24.93351	21921.49	-70201.23	1	73544.3	-72.65816	1.294253E-009	0.0087811	6
	47	65	19.86229	26882.04	-85140.4	1	89283.43	-72.47713	1.098478E-009	0.008785	6
	48	66	15.83615	34129.34	-102621.2	1	108147.7	-71.60413	-6.442211E-010	0.0087883	5
	49	68	12.40079	43312.27	-126234.9	1	133458.6	-71.06246	-4.514311E-010	0.0087935	5
	50	69	9.93114	53324.07	-150473.1	1	159642.1	-70.48689	3.702763E-010	0.008787	5
	51	71	7.944915	68107.56	-178787.3	1	191320.5	-69.14607	4.010105E-010	0.0087828	5
	52	72	6.317385	85622.38	-212857.4	1	229432.9	-68.08743	7.458758E-010	0.008778	5
	53	74	5.008013	109547.5	-252485.9	1	275226.8	-66.54515	7.242035E-012	0.0087895	5
	54	77	3.945707	140158.6	-297803.6	1	329137.3	-64.7964	2.97826E-010	0.0087997	5
	55	79	3.158693	175364.3	-345077.7	1	387080.4	-63.06088	-5.536814E-011	0.0087753	5
	56	83	2.504006	219573.1	-397919.7	1	454480.4	-61.10997	5.617111E-010	0.0087958	5
	57	86	1.998082	269876.4	-453115.1	1	527396.1	-59.22187	5.577495E-010	0.0087972	5
	58	89	1.584686	330582.3	-512472.9	1	609846.8	-57.17504	1.743488E-010	0.0087396	5
	59	92	1.266892	393519.8	-574763	1	696570.4	-55.60194	3.856157E-010	0.0088103	5
	60	97	0.999041	469375.7	-645506.1	1	798117.5	-53.97746	-1.063443E-010	0.0087505	5
