EXPLAIN
TAG	EISPOT
TITLE	LABEL	Potentiostatic IDE	Test &Identifier
DATE	LABEL	9/18/2019	Date
TIME	LABEL	8:42:00	Time
NOTES	NOTES	1	&Notes...
	
PSTAT	PSTAT	REF600-11020	Potentiostat
VDC	POTEN	0.00000E+000	T	DC &Voltage (V)
FREQINIT	QUANT	1.00000E+006	Initial Fre&q. (Hz)
FREQFINAL	QUANT	1.00000E+000	Final Fre&q. (Hz)
PTSPERDEC	QUANT	1.00000E+001	Points/&decade
VAC	QUANT	2.50000E+001	AC &Voltage (mV rms)
AREA	QUANT	1.00000E-002	&Area (cm^2)
CONDIT	TWOPARAM	T	5.00000E+000	0.00000E+000	Conditionin&g	Time(s)	E(V)
DELAY	TWOPARAM	T	5.00000E+000	0.00000E+000	Init. De&lay	Time(s)	Stab.(mV/s)
SPEED	SELECTOR	1	&Optimize for:
ZGUESS	QUANT	1.00000E+007	E&stimated Z (ohms)
OCVCURVE	TABLE	19
	Pt	T	Vf	Vm	Ach	Over
	#	s	V vs. Ref.	V	V	bits
	0	0.258333	3.48624E-003	3.48624E-003	5.70466E-004	...........
	1	0.516667	3.48382E-003	3.35961E-003	5.74565E-004	...........
	2	0.775	3.46909E-003	3.24587E-003	5.72999E-004	...........
	3	1.03333	3.42796E-003	3.14469E-003	5.75465E-004	...........
	4	1.29167	3.35593E-003	3.05401E-003	5.76399E-004	...........
	5	1.55	3.26301E-003	2.96463E-003	5.69466E-004	...........
	6	1.80833	3.16348E-003	2.87599E-003	5.72466E-004	...........
	7	2.06667	3.06686E-003	2.82839E-003	5.75132E-004	...........
	8	2.325	2.97797E-003	2.75256E-003	5.74466E-004	...........
	9	2.58333	2.89832E-003	2.67661E-003	5.74632E-004	...........
	10	2.84167	2.82600E-003	2.64201E-003	5.75499E-004	...........
	11	3.1	2.75901E-003	2.58392E-003	5.71266E-004	...........
	12	3.35833	2.69742E-003	2.52450E-003	5.69432E-004	...........
	13	3.61667	2.64038E-003	2.47218E-003	5.70166E-004	...........
	14	3.875	2.58556E-003	2.42696E-003	5.66466E-004	...........
	15	4.13333	2.53201E-003	2.38007E-003	5.73866E-004	...........
	16	4.39167	2.48044E-003	2.33415E-003	5.72932E-004	...........
	17	4.65	2.43132E-003	2.29165E-003	5.75232E-004	...........
	18	4.90833	2.38435E-003	2.24719E-003	5.72899E-004	...........
EOC	QUANT	0.0023844	Open Circuit (V)
PSTATMODEL	IQUANT	4	Pstat Model
PSTATSECTION	LABEL	REF600-11020	Pstat Section
PSTATSERIALNO	LABEL	11020	Pstat Serial Number
CTRLMODE	IQUANT	1	Control Mode
IESTAB	IQUANT	0	I/E Stability
CASPEED	IQUANT	1	Control Amp Speed
CONVENTION	IQUANT	1	Current Convention
ICHRANGE	IQUANT	2	Ich Range
ICHRANGEMODE	TOGGLE	F	Ich Auto Range
ICHOFFSETENABLE	TOGGLE	T	Ich Offset Enable
ICHOFFSET	QUANT	0	Ich Offset (V)
ICHFILTER	IQUANT	3	Ich Filter
VCHRANGE	IQUANT	2	Vch Range
VCHRANGEMODE	TOGGLE	F	Vch Auto Range
VCHOFFSETENABLE	TOGGLE	T	Vch Offset Enable
VCHOFFSET	QUANT	0	Vch Offset (V)
VCHFILTER	IQUANT	3	Vch Filter
ACHRANGE	IQUANT	2	Ach Range
ACHOFFSETENABLE	TOGGLE	F	Ach Offset Enable
ACHOFFSET	QUANT	0	Ach Offset (V)
ACHFILTER	IQUANT	3	Ach Filter
IERANGELOWERLIMIT	IQUANT	1	I/E Range Lower Limit
IERANGEMODE	TOGGLE	F	I/E AutoRange
IERANGE	IQUANT	2	I/E Range
POSFEEDENABLE	TOGGLE	F	Positive Feedback IR Comp
POSFEEDRESISTANCE	QUANT	0	Positive Feedback Resistance (ohm)
ACHSELECT	IQUANT	0	Ach Select
CABLEID	IQUANT	14	Cable ID
DCCALDATE	LABEL	8/19/2019	DC Calibration Date
ACCALDATE	LABEL	8/19/2019	AC Calibration Date
THERMOSELECT	IQUANT	1	Thermo Select
FRAMEWORKVERSION	QUANT	6.33	Framework Version
INSTRUMENTVERSION	LABEL	3.50	Instrument Version
ZCURVE	TABLE
	Pt	Time	Freq	Zreal	Zimag	Zsig	Zmod	Zphz	Idc	Vdc	IERange
	#	s	Hz	ohm	ohm	V	ohm	°	A	V	#
	0	2	1000078	2250.031	-1514.887	1	2712.475	-33.95135	-8.573102E-008	0.00514	8
	1	3	794390.6	2538.659	-1410.481	1	2904.177	-29.05659	-6.324943E-007	0.0045815	8
	2	4	630984.4	2785.198	-1277.884	1	3064.362	-24.64625	1.587115E-006	0.0042861	8
	3	6	501234.4	2993.968	-1127.969	1	3199.4	-20.64376	1.119852E-006	0.0041835	8
	4	7	398109.4	3133.718	-977.258	1	3282.563	-17.32022	-8.695833E-007	0.0043538	8
	5	9	316265.6	3262.093	-841.7354	1	3368.942	-14.46873	1.290937E-006	0.0040954	8
	6	10	251203.1	3354.84	-710.3359	1	3429.217	-11.95494	-1.387841E-006	0.0044363	8
	7	11	199546.9	3419.784	-603.7526	1	3472.671	-10.01222	1.238572E-006	0.004083	8
	8	13	158578.1	3466.68	-525.7159	1	3506.315	-8.623102	4.062725E-006	0.0032505	8
	9	14	125953.1	3518.375	-442.0559	1	3546.036	-7.161235	-1.304859E-007	0.0044215	7
	10	15	100078.1	3546.454	-389.274	1	3567.754	-6.263954	-3.194575E-008	0.0041736	7
	11	17	79453.13	3576.161	-359.1054	1	3594.146	-5.734217	-1.671089E-008	0.0041081	7
	12	18	63140.62	3603.462	-337.4829	1	3619.231	-5.350439	-1.666401E-008	0.0040867	7
	13	19	50203.12	3630.642	-325.4073	1	3645.196	-5.121623	-1.487783E-008	0.0041103	7
	14	21	39890.62	3654.759	-320.1405	1	3668.753	-5.006076	4.245089E-009	0.0041221	7
	15	22	31640.63	3683.683	-322.886	1	3697.807	-5.009346	-9.270804E-009	0.0040649	7
	16	23	25171.88	3709.959	-333.3901	1	3724.909	-5.13501	-5.60772E-008	0.0041481	7
	17	24	20015.62	3737.702	-352.1385	1	3754.253	-5.382097	-1.578262E-008	0.0040979	7
	18	26	15890.62	3764.135	-382.9184	1	3783.561	-5.808611	2.563237E-008	0.004023	7
	19	27	12609.37	3797.788	-418.5314	1	3820.781	-6.288846	-1.76532E-008	0.0040793	7
	20	28	10078.13	3828.917	-467.0619	1	3857.299	-6.954737	-9.08015E-009	0.0040657	7
	21	30	8015.625	3861.126	-527.9893	1	3897.058	-7.786612	-1.339636E-008	0.0041046	7
	22	31	6328.125	3899.635	-609.2363	1	3946.938	-8.879489	-3.578847E-008	0.0040924	7
	23	32	5015.625	3939.878	-709.4026	1	4003.235	-10.20714	-3.531183E-008	0.0040911	7
	24	34	3984.375	3985.241	-831.6285	1	4071.087	-11.78716	-1.005215E-008	0.0040616	7
	25	35	3170.956	4036.032	-980.505	1	4153.426	-13.65479	-5.371908E-008	0.0041491	7
	26	36	2527.573	4092.945	-1163.091	1	4254.994	-15.86355	1.399174E-008	0.004069	7
	27	38	1976.103	4165.482	-1404.352	1	4395.844	-18.63103	-5.843781E-009	0.0040297	7
	28	39	1577.524	4239.622	-1676.573	1	4559.088	-21.57649	9.228051E-008	0.0038958	7
	29	40	1265.625	4323.906	-2001.394	1	4764.634	-24.83787	4.97966E-008	0.0040275	7
	30	42	998.264	4425.697	-2422.249	1	5045.204	-28.69254	-5.343861E-008	0.0041413	7
	31	43	796.875	4536.29	-2915.863	1	5392.604	-32.73234	6.30703E-008	0.0039054	7
	32	44	627.7902	4670.835	-3561.977	1	5874.043	-37.32913	-2.907248E-008	0.0041526	7
	33	46	505.5147	4817.035	-4281.638	1	6444.862	-41.6324	-5.406599E-008	0.0041443	7
	34	47	397.9953	5000.425	-5261.698	1	7258.768	-46.45843	5.961445E-009	0.0040762	7
	35	48	315.5048	5218.48	-6442.528	1	8290.881	-50.99235	6.155012E-009	0.0040824	7
	36	50	252.4038	5474.717	-7838.853	1	9561.39	-55.06924	6.846561E-009	0.0040753	7
	37	51	198.6229	5819.562	-9692.72	1	11305.58	-59.01917	1.552238E-009	0.0040258	6
	38	52	158.3615	6232.048	-11855.07	1	13393.33	-62.26971	9.201022E-010	0.0040178	6
	39	54	125.558	6771.935	-14578.82	1	16074.86	-65.08489	1.394744E-009	0.0040122	6
	40	55	100.4464	7433.625	-17791.8	1	19282.3	-67.32426	9.404123E-010	0.0040131	6
	41	56	79.00281	8382.584	-21994.56	1	23537.81	-69.13712	8.926611E-010	0.0040159	6
	42	58	63.3446	9397.961	-26830.1	1	28428.44	-70.69583	7.926794E-010	0.004014	6
	43	59	49.86702	11222.37	-32971.65	1	34829.17	-71.20325	7.052478E-010	0.004014	6
	44	61	39.72458	13136.93	-40258.13	1	42347.33	-71.9276	9.207022E-010	0.0040164	6
	45	62	31.6723	15898.39	-48945.48	1	51462.79	-72.00526	5.164394E-010	0.0040147	6
	46	63	24.93351	19511.2	-59916.46	1	63013.24	-71.96268	1.480893E-009	0.0040103	6
	47	65	19.86229	24085.28	-72446.02	1	76344.78	-71.61018	1.008857E-009	0.0040142	6
	48	66	15.83615	29938.05	-87255.92	1	92249.02	-71.06258	1.673746E-009	0.0040168	6
	49	67	12.40079	38281.05	-105760.7	1	112475.6	-70.10181	1.638702E-009	0.0040171	5
	50	69	9.93114	47855.37	-125882.9	1	134672.4	-69.18531	7.83028E-010	0.0040233	5
	51	70	7.944915	60073.48	-148850.5	1	160515.7	-68.02184	1.375052E-009	0.0040126	5
	52	72	6.317385	76201.61	-175914.2	1	191709.4	-66.57896	9.841428E-010	0.0040063	5
	53	74	5.008013	96302.5	-207406.3	1	228673.4	-65.09369	-4.03227E-012	0.0040196	5
	54	76	3.945707	121944.3	-242869.3	1	271764.5	-63.33884	6.961557E-010	0.0040284	5
	55	79	3.158693	151134.7	-280434.3	1	318567.2	-61.67839	4.784039E-011	0.0040138	5
	56	82	2.504006	187389.4	-321819	1	372400.7	-59.78853	6.617899E-010	0.0040112	5
	57	85	1.998082	227176.5	-365880.5	1	430671.2	-58.16371	-1.340792E-010	0.0040355	5
	58	88	1.584686	275587.7	-413206.6	1	496677.2	-56.29874	3.11562E-010	0.0040611	5
	59	92	1.266892	325266.8	-463874.8	1	566549.4	-54.96204	-1.326399E-010	0.0040225	5
	60	96	0.999041	384027.5	-520092.3	1	646508.4	-53.55846	5.697983E-010	0.0040426	5
