EXPLAIN
TAG	EISPOT
TITLE	LABEL	Potentiostatic EIS	Test &Identifier
DATE	LABEL	10/12/2019	Date
TIME	LABEL	10:43:57	Time
NOTES	NOTES	1	&Notes...
	
PSTAT	PSTAT	REF600-11020	Potentiostat
VDC	POTEN	0.00000E+000	T	DC &Voltage (V)
FREQINIT	QUANT	1.00000E+006	Initial Fre&q. (Hz)
FREQFINAL	QUANT	1.00000E+000	Final Fre&q. (Hz)
PTSPERDEC	QUANT	1.00000E+001	Points/&decade
VAC	QUANT	2.50000E+001	AC &Voltage (mV rms)
AREA	QUANT	1.00000E-002	&Area (cm^2)
CONDIT	TWOPARAM	T	5.00000E+000	0.00000E+000	Conditionin&g	Time(s)	E(V)
DELAY	TWOPARAM	T	5.00000E+000	0.00000E+000	Init. De&lay	Time(s)	Stab.(mV/s)
SPEED	SELECTOR	1	&Optimize for:
ZGUESS	QUANT	1.00000E+004	E&stimated Z (ohms)
OCVCURVE	TABLE	19
	Pt	T	Vf	Vm	Ach	Over
	#	s	V vs. Ref.	V	V	bits
	0	0.258333	5.21296E-003	5.21296E-003	5.59866E-004	...........
	1	0.516667	5.21064E-003	5.09194E-003	5.58166E-004	...........
	2	0.775	5.19678E-003	4.99462E-003	5.57666E-004	...........
	3	1.03333	5.15904E-003	4.92100E-003	5.62266E-004	...........
	4	1.29167	5.09551E-003	4.86099E-003	5.56633E-004	...........
	5	1.55	5.01831E-003	4.81259E-003	5.62066E-004	...........
	6	1.80833	4.94255E-003	4.77231E-003	5.58566E-004	...........
	7	2.06667	4.87689E-003	4.73527E-003	5.56999E-004	...........
	8	2.325	4.82289E-003	4.70263E-003	5.60632E-004	...........
	9	2.58333	4.77823E-003	4.66673E-003	5.57333E-004	...........
	10	2.84167	4.73960E-003	4.63465E-003	5.60999E-004	...........
	11	3.1	4.70418E-003	4.60137E-003	5.62566E-004	...........
	12	3.35833	4.67037E-003	4.57549E-003	5.63332E-004	...........
	13	3.61667	4.63791E-003	4.54966E-003	5.68666E-004	...........
	14	3.875	4.60737E-003	4.52879E-003	5.62599E-004	...........
	15	4.13333	4.57944E-003	4.51082E-003	5.62999E-004	...........
	16	4.39167	4.55441E-003	4.48819E-003	5.65399E-004	...........
	17	4.65	4.53194E-003	4.47287E-003	5.63099E-004	...........
	18	4.90833	4.51144E-003	4.46008E-003	5.64599E-004	...........
EOC	QUANT	0.0045114	Open Circuit (V)
PSTATMODEL	IQUANT	4	Pstat Model
PSTATSECTION	LABEL	REF600-11020	Pstat Section
PSTATSERIALNO	LABEL	11020	Pstat Serial Number
CTRLMODE	IQUANT	1	Control Mode
IESTAB	IQUANT	0	I/E Stability
CASPEED	IQUANT	1	Control Amp Speed
CONVENTION	IQUANT	1	Current Convention
ICHRANGE	IQUANT	2	Ich Range
ICHRANGEMODE	TOGGLE	F	Ich Auto Range
ICHOFFSETENABLE	TOGGLE	T	Ich Offset Enable
ICHOFFSET	QUANT	0	Ich Offset (V)
ICHFILTER	IQUANT	3	Ich Filter
VCHRANGE	IQUANT	2	Vch Range
VCHRANGEMODE	TOGGLE	F	Vch Auto Range
VCHOFFSETENABLE	TOGGLE	T	Vch Offset Enable
VCHOFFSET	QUANT	0	Vch Offset (V)
VCHFILTER	IQUANT	3	Vch Filter
ACHRANGE	IQUANT	2	Ach Range
ACHOFFSETENABLE	TOGGLE	F	Ach Offset Enable
ACHOFFSET	QUANT	0	Ach Offset (V)
ACHFILTER	IQUANT	3	Ach Filter
IERANGELOWERLIMIT	IQUANT	1	I/E Range Lower Limit
IERANGEMODE	TOGGLE	F	I/E AutoRange
IERANGE	IQUANT	5	I/E Range
POSFEEDENABLE	TOGGLE	F	Positive Feedback IR Comp
POSFEEDRESISTANCE	QUANT	0	Positive Feedback Resistance (ohm)
ACHSELECT	IQUANT	0	Ach Select
CABLEID	IQUANT	14	Cable ID
DCCALDATE	LABEL	8/19/2019	DC Calibration Date
ACCALDATE	LABEL	8/19/2019	AC Calibration Date
THERMOSELECT	IQUANT	1	Thermo Select
FRAMEWORKVERSION	QUANT	6.33	Framework Version
INSTRUMENTVERSION	LABEL	3.50	Instrument Version
ZCURVE	TABLE
	Pt	Time	Freq	Zreal	Zimag	Zsig	Zmod	Zphz	Idc	Vdc	IERange
	#	s	Hz	ohm	ohm	V	ohm	°	A	V	#
	0	1	1000078	2523.386	-1976.497	1	3205.311	-38.07059	-2.059852E-006	0.0069479	8
	1	3	794390.6	2930.371	-1928.383	1	3507.954	-33.34763	-1.020727E-006	0.0068262	8
	2	4	630984.4	3295.534	-1814.767	1	3762.17	-28.84046	-1.332752E-006	0.0066297	8
	3	6	501234.4	3619.313	-1647.209	1	3976.521	-24.47106	8.357555E-007	0.0062031	8
	4	7	398109.4	3894.527	-1480.137	1	4166.311	-20.80958	1.451589E-006	0.005799	8
	5	8	316265.6	4095.985	-1295.578	1	4296	-17.55239	-2.991489E-006	0.0066864	8
	6	10	251203.1	4269.033	-1116.547	1	4412.632	-14.65714	7.01203E-007	0.0060942	8
	7	11	199546.9	4387.58	-960.897	1	4491.568	-12.35297	-6.64968E-007	0.0062782	8
	8	12	158578.1	4477.491	-827.9318	1	4553.394	-10.47622	1.909277E-006	0.0057095	8
	9	14	125953.1	4584.637	-704.7604	1	4638.489	-8.739224	-3.602444E-007	0.0064494	7
	10	15	100078.1	4617.254	-609.1196	1	4657.259	-7.515204	-2.294455E-008	0.0060381	7
	11	17	79453.13	4664.259	-552.1882	1	4696.831	-6.751657	-9.348976E-009	0.0061065	7
	12	18	63140.62	4707.298	-513.0118	1	4735.17	-6.219674	-4.564609E-008	0.006104	7
	13	19	50203.12	4747.622	-488.1087	1	4772.647	-5.870023	9.166951E-008	0.0059616	7
	14	21	39890.62	4786.088	-474.0452	1	4809.507	-5.656497	-2.444871E-009	0.0059955	7
	15	22	31640.63	4823.608	-474.6258	1	4846.903	-5.61961	-2.093957E-008	0.0060271	7
	16	23	25171.88	4861.208	-487.6551	1	4885.607	-5.728497	-4.013127E-008	0.0061321	7
	17	25	20015.62	4905.51	-526.9335	1	4933.729	-6.131013	1.185239E-008	0.0061276	7
	18	26	15890.62	4940.18	-550.0353	1	4970.706	-6.353097	4.207838E-008	0.0059149	7
	19	27	12609.37	4981.442	-607.5717	1	5018.357	-6.953849	7.519538E-008	0.0058875	7
	20	29	10078.13	5023.884	-672.9321	1	5068.752	-7.629163	-1.770944E-008	0.0060235	7
	21	30	8015.625	5068.587	-766.8086	1	5126.263	-8.602839	4.484437E-008	0.0059845	7
	22	32	6328.125	5121.095	-883.1024	1	5196.68	-9.78409	-4.115796E-008	0.0061285	7
	23	33	5015.625	5176.542	-1030.713	1	5278.158	-11.26101	4.195179E-008	0.0059173	7
	24	34	3984.375	5248.489	-1227.024	1	5390.012	-13.15863	4.722596E-008	0.0059821	7
	25	36	3170.956	5302.335	-1435.754	1	5493.282	-15.1511	4.022812E-008	0.0059105	7
	26	37	2527.573	5375.953	-1710.955	1	5641.652	-17.65423	-1.291595E-009	0.0059798	7
	27	38	1976.103	5468.949	-2079.278	1	5850.88	-20.81665	-1.271814E-008	0.0060595	7
	28	40	1577.524	5606.145	-2482.671	1	6131.273	-23.88607	-6.057155E-008	0.0061375	7
	29	41	1265.625	5680.842	-2993.359	1	6421.228	-27.78572	-2.75477E-009	0.0059808	7
	30	43	998.264	5823.795	-3651.97	1	6874.117	-32.0909	-2.137836E-008	0.0060161	7
	31	44	796.875	5977.948	-4430.249	1	7440.629	-36.54209	1.308113E-008	0.0061176	7
	32	45	627.7902	6187.453	-5437.098	1	8236.905	-41.30673	9.483E-008	0.0059475	7
	33	47	505.5147	6413.22	-6563.827	1	9176.775	-45.66492	5.551911E-008	0.0059454	7
	34	48	397.9953	6725.208	-8090.637	1	10520.78	-50.26551	1.114788E-009	0.005992	6
	35	49	315.5048	7103.732	-9925.33	1	12205.54	-54.40804	1.09523E-009	0.0059865	6
	36	51	252.4038	7568.725	-12090.47	1	14264.12	-57.95313	3.665899E-010	0.0059833	6
	37	52	198.6229	8216.641	-14945.86	1	17055.55	-61.19975	9.652854E-010	0.005984	6
	38	53	158.3615	9023.43	-18261.4	1	20369.12	-63.70483	4.01726E-010	0.0059852	6
	39	55	125.558	10124.5	-22396.43	1	24578.56	-65.67425	1.236541E-009	0.0059878	6
	40	56	100.4464	11516.3	-27220.76	1	29556.64	-67.06821	2.050122E-010	0.0059864	6
	41	58	79.00281	13635.94	-33444.42	1	36117.42	-67.81832	1.248372E-010	0.0059837	6
	42	59	63.3446	16495.21	-40594.72	1	43818.07	-67.88618	1.216483E-009	0.0059811	6
	43	60	49.86702	19605.46	-49345.9	1	53097.95	-68.33174	7.622854E-010	0.0059807	6
	44	62	39.72458	24566.35	-59141.34	1	64040.64	-67.44279	5.218235E-010	0.0059872	6
	45	63	31.6723	30888.03	-70212.54	1	76706.4	-66.25426	8.703022E-010	0.00598	6
	46	65	24.93351	39298.15	-83846.23	1	92598.78	-64.88784	2.227406E-010	0.0059854	6
	47	66	19.86229	49452.37	-97865.1	1	109649.9	-63.19199	-3.693267E-010	0.0059863	5
	48	67	15.83615	61463.67	-112865.2	1	128515.9	-61.42835	-3.231566E-010	0.0059895	5
	49	69	12.40079	76555.98	-130399	1	151210.8	-59.58322	4.22428E-010	0.005991	5
	50	70	9.93114	93644.55	-146577.1	1	173937.2	-57.42648	-1.947823E-010	0.0059957	5
	51	72	7.944915	111283.6	-164264.3	1	198410.7	-55.88366	8.726322E-010	0.0059913	5
	52	73	6.317385	130756.6	-184124.5	1	225829.8	-54.61942	3.178799E-010	0.0060063	5
	53	76	5.008013	151412.5	-206753.9	1	256267.3	-53.78349	2.536987E-010	0.0059869	5
	54	78	3.945707	173528	-233476.9	1	290901.1	-53.37901	3.233074E-010	0.0059904	5
	55	81	3.158693	195641.4	-263420.4	1	328124.8	-53.39885	-2.552191E-011	0.0059849	5
	56	84	2.504006	220141.3	-300696.7	1	372667	-53.792	3.957701E-010	0.005981	5
	57	87	1.998082	246156.7	-343922.6	1	422937.2	-54.40745	8.911685E-011	0.0060314	5
	58	90	1.584686	274712.1	-397686.1	1	483343.5	-55.36421	1.957242E-010	0.0059767	5
	59	94	1.266892	308362.3	-461063.6	1	554677.3	-56.22514	1.264029E-010	0.0060248	5
	60	98	0.999041	348812.6	-540620.3	1	643382.1	-57.16957	-2.692572E-011	0.0059439	5
