EXPLAIN
TAG	EISPOT
TITLE	LABEL	Potentiostatic EIS	Test &Identifier
DATE	LABEL	11/3/2019	Date
TIME	LABEL	11:20:56	Time
NOTES	NOTES	1	&Notes...
	
PSTAT	PSTAT	REF600-11020	Potentiostat
VDC	POTEN	0.00000E+000	T	DC &Voltage (V)
FREQINIT	QUANT	1.00000E+006	Initial Fre&q. (Hz)
FREQFINAL	QUANT	1.00000E+000	Final Fre&q. (Hz)
PTSPERDEC	QUANT	1.00000E+001	Points/&decade
VAC	QUANT	2.50000E+001	AC &Voltage (mV rms)
AREA	QUANT	1.00000E-002	&Area (cm^2)
CONDIT	TWOPARAM	T	5.00000E+000	0.00000E+000	Conditionin&g	Time(s)	E(V)
DELAY	TWOPARAM	T	5.00000E+000	0.00000E+000	Init. De&lay	Time(s)	Stab.(mV/s)
SPEED	SELECTOR	1	&Optimize for:
ZGUESS	QUANT	1.00000E+005	E&stimated Z (ohms)
OCVCURVE	TABLE	19
	Pt	T	Vf	Vm	Ach	Over
	#	s	V vs. Ref.	V	V	bits
	0	0.258333	6.12634E-003	6.12634E-003	5.69732E-004	...........
	1	0.516667	6.12616E-003	6.11695E-003	5.56899E-004	...........
	2	0.775	6.12523E-003	6.11661E-003	5.58832E-004	...........
	3	1.03333	6.12345E-003	6.13362E-003	5.57333E-004	...........
	4	1.29167	6.12285E-003	6.15475E-003	5.59666E-004	...........
	5	1.55	6.12709E-003	6.18555E-003	5.57366E-004	...........
	6	1.80833	6.13882E-003	6.21186E-003	5.52333E-004	...........
	7	2.06667	6.15822E-003	6.25283E-003	5.58932E-004	...........
	8	2.325	6.18400E-003	6.28612E-003	5.56566E-004	...........
	9	2.58333	6.21464E-003	6.32517E-003	5.58799E-004	...........
	10	2.84167	6.24864E-003	6.36161E-003	5.56733E-004	...........
	11	3.1	6.28469E-003	6.40318E-003	5.59699E-004	...........
	12	3.35833	6.32204E-003	6.44176E-003	5.58699E-004	...........
	13	3.61667	6.36039E-003	6.48248E-003	5.49799E-004	...........
	14	3.875	6.39950E-003	6.52066E-003	5.52333E-004	...........
	15	4.13333	6.43901E-003	6.56077E-003	5.61799E-004	...........
	16	4.39167	6.47789E-003	6.56429E-003	5.60032E-004	...........
	17	4.65	6.51041E-003	6.42347E-003	5.56066E-004	...........
	18	4.90833	6.52232E-003	6.36916E-003	5.56566E-004	...........
EOC	QUANT	0.0065223	Open Circuit (V)
PSTATMODEL	IQUANT	4	Pstat Model
PSTATSECTION	LABEL	REF600-11020	Pstat Section
PSTATSERIALNO	LABEL	11020	Pstat Serial Number
CTRLMODE	IQUANT	1	Control Mode
IESTAB	IQUANT	0	I/E Stability
CASPEED	IQUANT	1	Control Amp Speed
CONVENTION	IQUANT	1	Current Convention
ICHRANGE	IQUANT	2	Ich Range
ICHRANGEMODE	TOGGLE	F	Ich Auto Range
ICHOFFSETENABLE	TOGGLE	T	Ich Offset Enable
ICHOFFSET	QUANT	0	Ich Offset (V)
ICHFILTER	IQUANT	3	Ich Filter
VCHRANGE	IQUANT	2	Vch Range
VCHRANGEMODE	TOGGLE	F	Vch Auto Range
VCHOFFSETENABLE	TOGGLE	T	Vch Offset Enable
VCHOFFSET	QUANT	0	Vch Offset (V)
VCHFILTER	IQUANT	3	Vch Filter
ACHRANGE	IQUANT	2	Ach Range
ACHOFFSETENABLE	TOGGLE	F	Ach Offset Enable
ACHOFFSET	QUANT	0	Ach Offset (V)
ACHFILTER	IQUANT	3	Ach Filter
IERANGELOWERLIMIT	IQUANT	1	I/E Range Lower Limit
IERANGEMODE	TOGGLE	F	I/E AutoRange
IERANGE	IQUANT	5	I/E Range
POSFEEDENABLE	TOGGLE	F	Positive Feedback IR Comp
POSFEEDRESISTANCE	QUANT	0	Positive Feedback Resistance (ohm)
ACHSELECT	IQUANT	0	Ach Select
CABLEID	IQUANT	14	Cable ID
DCCALDATE	LABEL	8/19/2019	DC Calibration Date
ACCALDATE	LABEL	8/19/2019	AC Calibration Date
THERMOSELECT	IQUANT	1	Thermo Select
FRAMEWORKVERSION	QUANT	6.33	Framework Version
INSTRUMENTVERSION	LABEL	3.50	Instrument Version
ZCURVE	TABLE
	Pt	Time	Freq	Zreal	Zimag	Zsig	Zmod	Zphz	Idc	Vdc	IERange
	#	s	Hz	ohm	ohm	V	ohm	°	A	V	#
	0	1	1000078	1809.488	-1337.418	1	2250.097	-36.46864	-3.854967E-006	0.009602	8
	1	3	794390.6	2061.555	-1358.33	1	2468.819	-33.38033	4.55561E-007	0.0080652	8
	2	4	630984.4	2320.755	-1335.912	1	2677.791	-29.92631	-1.148705E-006	0.0087847	8
	3	5	501234.4	2579.031	-1287.612	1	2882.594	-26.5312	-1.997993E-006	0.008301	8
	4	7	398109.4	2787.349	-1209.981	1	3038.646	-23.46554	-6.249953E-006	0.0090509	8
	5	8	316265.6	2989.83	-1109.005	1	3188.883	-20.35111	2.243065E-006	0.0083774	8
	6	9	251203.1	3159.486	-1004.623	1	3315.361	-17.63912	-1.350072E-007	0.0077472	8
	7	11	199546.9	3297.608	-892.7118	1	3416.307	-15.14775	-1.437806E-006	0.0084661	8
	8	12	158578.1	3424.922	-767.8397	1	3509.939	-12.6363	7.107832E-007	0.0084363	8
	9	14	125953.1	3517.35	-655.0814	1	3577.832	-10.55006	-6.673712E-007	0.0112765	7
	10	15	100078.1	3591.679	-577.6964	1	3637.841	-9.137365	7.588448E-007	0.0062624	7
	11	16	79453.13	3648.778	-532.7792	1	3687.47	-8.307381	4.004601E-007	0.0085141	7
	12	18	63140.62	3690.446	-483.3801	1	3721.968	-7.462206	-7.376654E-007	0.0078762	7
	13	19	50203.12	3739.345	-453.2855	1	3766.719	-6.911702	9.598104E-008	0.0066743	7
	14	20	39890.62	3773.526	-437.0316	1	3798.749	-6.60629	-8.812287E-007	0.0096817	7
	15	22	31640.63	3819.552	-426.9416	1	3843.34	-6.377928	9.567788E-008	0.0066775	7
	16	23	25171.88	3868.934	-429.0379	1	3892.65	-6.32785	1.016336E-006	0.0072795	7
	17	24	20015.62	3893.905	-438.5559	1	3918.523	-6.42593	-1.08751E-006	0.0096277	7
	18	26	15890.62	3950.94	-459.7243	1	3977.596	-6.636989	4.0432E-007	0.0085127	7
	19	27	12609.37	3990.702	-485.8076	1	4020.164	-6.940742	-3.231058E-007	0.0071909	7
	20	28	10078.13	4042.54	-517.6963	1	4075.554	-7.297698	-1.215387E-006	0.0091043	7
	21	30	8015.625	4087.504	-561.8394	1	4125.936	-7.82643	-1.050986E-006	0.0085545	7
	22	31	6328.125	4158.599	-615.1703	1	4203.853	-8.414587	8.363366E-007	0.0077678	7
	23	32	5015.625	4217.404	-679.0994	1	4271.73	-9.147423	1.098897E-006	0.0068551	7
	24	34	3984.375	4256.598	-756.1107	1	4323.231	-10.07254	-8.807146E-007	0.0096818	7
	25	35	3170.956	4320.808	-858.2515	1	4405.222	-11.23456	6.239702E-007	0.0081844	7
	26	36	2527.573	4361.917	-977.556	1	4470.116	-12.63192	-1.087132E-006	0.0096236	7
	27	38	1976.103	4432.638	-1154.07	1	4580.41	-14.59339	4.661128E-007	0.0063676	7
	28	39	1577.524	4479.875	-1352.506	1	4679.589	-16.79944	-7.365996E-007	0.0078689	7
	29	40	1265.625	4533.768	-1593.944	1	4805.799	-19.37023	-7.351306E-007	0.0078693	7
	30	42	998.264	4603.647	-1923.16	1	4989.2	-22.67258	-7.352729E-007	0.0078688	7
	31	43	796.875	4678.917	-2315.213	1	5220.391	-26.32704	-1.049424E-006	0.0085429	7
	32	45	627.7902	4769.25	-2834.937	1	5548.208	-30.72809	-1.213675E-006	0.0091037	7
	33	46	505.5147	4886.938	-3450.677	1	5982.419	-35.22599	1.097824E-006	0.0068538	7
	34	47	397.9953	5019.185	-4238.411	1	6569.349	-40.17916	1.912905E-009	0.008036	7
	35	49	315.5048	5187.904	-5207.7	1	7350.815	-45.1091	4.204893E-009	0.0080321	7
	36	50	252.4038	5394.495	-6355.85	1	8336.51	-49.67724	4.865836E-009	0.008028	7
	37	51	198.6229	5680.666	-7872.967	1	9708.43	-54.18802	3.047621E-009	0.0080245	7
	38	53	158.3615	6033.974	-9636.13	1	11369.43	-57.94594	-9.434417E-011	0.0079734	6
	39	54	125.558	6498.76	-11845.9	1	13511.45	-61.25045	5.675543E-010	0.007969	6
	40	55	100.4464	7058.912	-14425.02	1	16059.56	-63.9251	-2.010169E-010	0.0079679	6
	41	57	79.00281	7840.545	-17817.63	1	19466.43	-66.24838	-1.894923E-010	0.0079712	6
	42	58	63.3446	8836.481	-21699.17	1	23429.41	-67.84253	6.04258E-011	0.0079635	6
	43	60	49.86702	9935.77	-26475.42	1	28278.39	-69.42976	1.146708E-009	0.0079578	6
	44	61	39.72458	11547.1	-32195.84	1	34203.91	-70.26952	6.548488E-010	0.0079736	6
	45	62	31.6723	13357.71	-39108.06	1	41326.37	-71.14193	1.431511E-009	0.0079636	6
	46	64	24.93351	15953.75	-47862.7	1	50451.57	-71.56557	-3.574644E-010	0.0079629	6
	47	65	19.86229	18997.32	-57955.88	1	60990.01	-71.8514	9.110352E-011	0.0079756	6
	48	66	15.83615	23179.03	-70180.95	1	73909.63	-71.72289	-5.44583E-010	0.0079597	6
	49	68	12.40079	28029.01	-86230.47	1	90671.49	-71.99337	7.094448E-010	0.0079758	6
	50	69	9.93114	34276.19	-102909.3	1	108467.4	-71.57854	-1.843729E-010	0.0079658	5
	51	71	7.944915	41992.29	-123512.9	1	130456.1	-71.22284	4.318783E-010	0.007976	5
	52	72	6.317385	52463.58	-148069.8	1	157089.4	-70.48992	4.471371E-010	0.0079502	5
	53	74	5.008013	65810.7	-177521.8	1	189327.9	-69.6593	-6.239675E-011	0.007972	5
	54	77	3.945707	82777.48	-212644.8	1	228188.4	-68.73024	7.15473E-011	0.007976	5
	55	80	3.158693	102129.4	-250505.5	1	270524.3	-67.81962	-1.040533E-010	0.007959	5
	56	83	2.504006	126715	-296156.2	1	322126.1	-66.83559	3.844904E-010	0.0079758	5
	57	86	1.998082	155050.6	-346611.5	1	379710.7	-65.89948	3.029195E-010	0.0079865	5
	58	89	1.584686	190855.5	-405791.5	1	448433.4	-64.81104	9.091054E-011	0.0079305	5
	59	92	1.266892	229276.9	-472293.7	1	525004.1	-64.10556	2.496558E-010	0.0079944	5
	60	97	0.999041	278859.2	-553612.5	1	619878.4	-63.26523	-1.548569E-010	0.0079405	5
