EXPLAIN
TAG	EISPOT
TITLE	LABEL	Potentiostatic EIS	Test &Identifier
DATE	LABEL	11/22/2019	Date
TIME	LABEL	10:57:16	Time
NOTES	NOTES	4	&Notes...
	
	
	
	
PSTAT	PSTAT	REF600-11020	Potentiostat
VDC	POTEN	0.00000E+000	T	DC &Voltage (V)
FREQINIT	QUANT	1.00000E+006	Initial Fre&q. (Hz)
FREQFINAL	QUANT	1.00000E+000	Final Fre&q. (Hz)
PTSPERDEC	QUANT	1.00000E+001	Points/&decade
VAC	QUANT	2.50000E+001	AC &Voltage (mV rms)
AREA	QUANT	1.00000E-002	&Area (cm^2)
CONDIT	TWOPARAM	T	5.00000E+000	0.00000E+000	Conditionin&g	Time(s)	E(V)
DELAY	TWOPARAM	T	5.00000E+000	0.00000E+000	Init. De&lay	Time(s)	Stab.(mV/s)
SPEED	SELECTOR	0	&Optimize for:
ZGUESS	QUANT	1.00000E+005	E&stimated Z (ohms)
OCVCURVE	TABLE	19
	Pt	T	Vf	Vm	Ach	Over
	#	s	V vs. Ref.	V	V	bits
	0	0.258333	2.21692E-002	2.21692E-002	5.72499E-004	...........
	1	0.516667	2.21895E-002	2.32326E-002	5.73799E-004	...........
	2	0.775	2.23130E-002	2.41765E-002	5.75332E-004	...........
	3	1.03333	2.26543E-002	2.48703E-002	5.80332E-004	...........
	4	1.29167	2.32456E-002	2.58582E-002	5.74899E-004	...........
	5	1.55	2.40177E-002	2.69638E-002	5.71499E-004	...........
	6	1.80833	2.48974E-002	2.79480E-002	5.73399E-004	...........
	7	2.06667	2.58419E-002	2.85799E-002	5.77699E-004	...........
	8	2.325	2.67993E-002	2.94887E-002	5.71766E-004	...........
	9	2.58333	2.77172E-002	3.03458E-002	5.68232E-004	...........
	10	2.84167	2.85831E-002	3.09763E-002	5.66099E-004	...........
	11	3.1	2.94032E-002	3.15183E-002	5.69566E-004	...........
	12	3.35833	3.01654E-002	3.21384E-002	5.76099E-004	...........
	13	3.61667	3.08602E-002	3.28918E-002	5.73499E-004	...........
	14	3.875	3.15183E-002	3.38955E-002	5.68332E-004	...........
	15	4.13333	3.22027E-002	3.47203E-002	5.73632E-004	...........
	16	4.39167	3.29542E-002	3.53200E-002	5.66699E-004	...........
	17	4.65	3.37496E-002	3.60348E-002	5.69199E-004	...........
	18	4.90833	3.45323E-002	3.67063E-002	5.67866E-004	...........
EOC	QUANT	0.0345323	Open Circuit (V)
PSTATMODEL	IQUANT	4	Pstat Model
PSTATSECTION	LABEL	REF600-11020	Pstat Section
PSTATSERIALNO	LABEL	11020	Pstat Serial Number
CTRLMODE	IQUANT	1	Control Mode
IESTAB	IQUANT	0	I/E Stability
CASPEED	IQUANT	1	Control Amp Speed
CONVENTION	IQUANT	1	Current Convention
ICHRANGE	IQUANT	2	Ich Range
ICHRANGEMODE	TOGGLE	F	Ich Auto Range
ICHOFFSETENABLE	TOGGLE	T	Ich Offset Enable
ICHOFFSET	QUANT	0	Ich Offset (V)
ICHFILTER	IQUANT	3	Ich Filter
VCHRANGE	IQUANT	2	Vch Range
VCHRANGEMODE	TOGGLE	F	Vch Auto Range
VCHOFFSETENABLE	TOGGLE	T	Vch Offset Enable
VCHOFFSET	QUANT	0	Vch Offset (V)
VCHFILTER	IQUANT	3	Vch Filter
ACHRANGE	IQUANT	2	Ach Range
ACHOFFSETENABLE	TOGGLE	F	Ach Offset Enable
ACHOFFSET	QUANT	0	Ach Offset (V)
ACHFILTER	IQUANT	3	Ach Filter
IERANGELOWERLIMIT	IQUANT	1	I/E Range Lower Limit
IERANGEMODE	TOGGLE	F	I/E AutoRange
IERANGE	IQUANT	5	I/E Range
POSFEEDENABLE	TOGGLE	F	Positive Feedback IR Comp
POSFEEDRESISTANCE	QUANT	0	Positive Feedback Resistance (ohm)
ACHSELECT	IQUANT	0	Ach Select
CABLEID	IQUANT	14	Cable ID
DCCALDATE	LABEL	8/19/2019	DC Calibration Date
ACCALDATE	LABEL	8/19/2019	AC Calibration Date
THERMOSELECT	IQUANT	1	Thermo Select
FRAMEWORKVERSION	QUANT	6.33	Framework Version
INSTRUMENTVERSION	LABEL	3.50	Instrument Version
ZCURVE	TABLE
	Pt	Time	Freq	Zreal	Zimag	Zsig	Zmod	Zphz	Idc	Vdc	IERange
	#	s	Hz	ohm	ohm	V	ohm	°	A	V	#
	0	1	1000078	2247.131	-2107.89	1	3081.038	-43.16874	9.097513E-006	0.0349552	8
	1	1	794390.6	2620.728	-2197.759	1	3420.287	-39.98341	2.110663E-006	0.0362611	8
	2	2	630984.4	3034.765	-2265.404	1	3787.064	-36.74076	3.892316E-007	0.036663	8
	3	2	501234.4	3452.977	-2292.067	1	4144.469	-33.57599	-3.104055E-006	0.0366991	8
	4	2	398109.4	3880.008	-2246.477	1	4483.427	-30.07031	1.019082E-006	0.03646	8
	5	3	316265.6	4297.045	-2164.205	1	4811.276	-26.73209	-5.349858E-007	0.0365109	8
	6	3	251203.1	4701.011	-2050.056	1	5128.571	-23.56146	7.102818E-006	0.0352363	8
	7	3	199546.9	5016.059	-1884.724	1	5358.454	-20.59311	3.774797E-006	0.0359592	8
	8	4	158578.1	5292.123	-1739.776	1	5570.762	-18.19818	3.879975E-006	0.0359549	8
	9	4	125953.1	5637.623	-1394.127	1	5807.442	-13.89001	-1.341738E-006	0.0346561	7
	10	4	100078.1	5799.805	-1291.974	1	5941.963	-12.55825	5.311731E-007	0.0341222	7
	11	5	79453.13	5932.805	-1153.717	1	6043.942	-11.00462	-1.217609E-006	0.037764	7
	12	5	63140.62	6054.842	-1025.843	1	6141.129	-9.61604	-1.358442E-006	0.0375773	7
	13	5	50203.12	6158.795	-919.8744	1	6227.112	-8.49487	-8.164839E-007	0.0357948	7
	14	6	39890.62	6239.85	-840.1773	1	6296.16	-7.668585	-8.248978E-007	0.0357951	7
	15	6	31640.63	6338.167	-782.3747	1	6386.272	-7.036916	8.616494E-007	0.0339806	7
	16	7	25171.88	6385.813	-745.1668	1	6429.143	-6.6558	1.180856E-007	0.0344479	7
	17	7	20015.62	6416.309	-728.0338	1	6457.48	-6.473444	-1.218943E-006	0.037756	7
	18	7	15890.62	6486.976	-738.4191	1	6528.868	-6.494084	-3.516815E-007	0.0350242	7
	19	8	12609.37	6545.705	-773.9171	1	6591.297	-6.742938	-3.226398E-007	0.0374647	7
	20	8	10078.13	6622.44	-819.1843	1	6672.914	-7.051568	9.234813E-007	0.0357169	7
	21	9	8015.625	6638.212	-903.1255	1	6699.366	-7.747496	-1.360022E-006	0.0375627	7
	22	9	6328.125	6724.745	-1022.808	1	6802.083	-8.648187	4.24393E-007	0.0365618	7
	23	9	5015.625	6756.078	-1171.551	1	6856.903	-9.83766	-1.350765E-006	0.0371493	7
	24	10	3984.375	6806.538	-1361.187	1	6941.31	-11.30896	-1.354263E-006	0.0371575	7
	25	10	3170.956	6892.586	-1601.094	1	7076.104	-13.07744	-8.148775E-007	0.035781	7
	26	11	2527.573	6992.852	-1906.902	1	7248.19	-15.25329	-3.221583E-007	0.0374668	7
	27	11	1976.103	7085.528	-2320.135	1	7455.719	-18.13088	-6.896376E-007	0.0377323	7
	28	11	1577.524	7227.896	-2733.726	1	7727.596	-20.71756	6.758116E-007	0.0361904	7
	29	12	1265.625	7327.403	-3337.228	1	8051.579	-24.48665	1.112514E-007	0.0344409	7
	30	12	998.264	7471.92	-4064.889	1	8506.051	-28.54716	-1.165289E-006	0.0365246	7
	31	12	796.875	7672.232	-4928.674	1	9118.935	-32.71686	-6.875611E-007	0.0377262	7
	32	13	627.7902	7930.655	-6074.912	1	9989.99	-37.45225	9.289325E-007	0.0357073	7
	33	13	505.5147	8183.176	-7287.899	1	10958	-41.68811	-6.899349E-007	0.037731	7
	34	13	397.9953	8556.232	-8980.187	1	12403.74	-46.38489	-5.319206E-010	0.0359216	6
	35	14	315.5048	9004.059	-11001.35	1	14216.29	-50.70138	-1.163763E-009	0.0359209	6
	36	14	252.4038	9553.41	-13378.08	1	16439	-54.46904	-1.549681E-009	0.0359119	6
	37	14	198.6229	10314.38	-16504.67	1	19462.55	-57.99722	-4.534552E-010	0.0359092	6
	38	15	158.3615	11262.3	-20131.37	1	23067.54	-60.7756	-1.423066E-009	0.0359149	6
	39	15	125.558	12544.88	-24630.62	1	27641.29	-63.00933	-1.434477E-009	0.0359126	6
	40	15	100.4464	14232.69	-29860.41	1	33078.9	-64.51562	-1.554362E-009	0.0359081	6
	41	16	79.00281	16480.78	-36592.35	1	40132.48	-65.75375	-1.050056E-009	0.0358939	6
	42	16	63.3446	20000.96	-44341.36	1	48643.55	-65.72141	-1.13194E-009	0.0359076	6
	43	16	49.86702	24033.14	-53900.56	1	59015.78	-65.9689	-6.093747E-010	0.0359053	6
	44	17	39.72458	29146.86	-63993.11	1	70318.27	-65.51222	-4.263626E-010	0.0358983	6
	45	17	31.6723	35799.09	-75809.68	1	83837.24	-64.72223	-5.254786E-010	0.0359001	6
	46	17	24.93351	45346.13	-90036.31	1	100810.8	-63.26823	-3.490808E-010	0.0359036	6
	47	18	19.86229	56389.32	-104480.1	1	118725.9	-61.64367	-1.292917E-009	0.0359105	5
	48	18	15.83615	69153.76	-120028	1	138524.2	-60.05173	-3.355797E-010	0.0359145	5
	49	18	12.40079	85830.78	-136990	1	161657.7	-57.9309	-2.659614E-009	0.035909	5
	50	19	9.93114	102437.6	-154854.5	1	185670	-56.51502	-1.400016E-009	0.0359104	5
	51	19	7.944915	120327.9	-174363.3	1	211852.2	-55.3905	-5.869428E-010	0.035909	5
	52	20	6.317385	139906.1	-195549.5	1	240444	-54.41814	-8.871598E-010	0.0359093	5
	53	21	5.008013	161015.9	-220364.6	1	272922.4	-53.84517	-1.179507E-009	0.035906	5
	54	22	3.945707	183896.7	-251236.6	1	311348.4	-53.79714	-8.062959E-010	0.0359178	5
	55	23	3.158693	206909.5	-284574	1	351843.6	-53.97966	-1.158628E-009	0.0359174	5
	56	25	2.504006	233153.2	-327231.5	1	401797	-54.53004	-1.192129E-009	0.035909	5
	57	26	1.998082	262182.8	-376201.9	1	458549.5	-55.12657	-9.033472E-010	0.0359525	5
	58	28	1.584686	294444.9	-432692.3	1	523374.1	-55.76491	-2.056234E-009	0.0359451	5
	59	30	1.266892	333957.4	-507440	1	607472.6	-56.65021	-8.799017E-010	0.0359017	5
	60	32	0.999041	381434.2	-595900.3	1	707523.3	-57.3768	-8.886262E-010	0.0358767	5
