EXPLAIN
TAG	EISPOT
TITLE	LABEL	Potentiostatic IDE	Test &Identifier
DATE	LABEL	9/10/2019	Date
TIME	LABEL	8:42:01	Time
NOTES	NOTES	1	&Notes...
	
PSTAT	PSTAT	REF600-11020	Potentiostat
VDC	POTEN	0.00000E+000	T	DC &Voltage (V)
FREQINIT	QUANT	1.00000E+006	Initial Fre&q. (Hz)
FREQFINAL	QUANT	1.00000E+000	Final Fre&q. (Hz)
PTSPERDEC	QUANT	1.00000E+001	Points/&decade
VAC	QUANT	2.50000E+001	AC &Voltage (mV rms)
AREA	QUANT	1.00000E-002	&Area (cm^2)
CONDIT	TWOPARAM	T	5.00000E+000	0.00000E+000	Conditionin&g	Time(s)	E(V)
DELAY	TWOPARAM	T	5.00000E+000	0.00000E+000	Init. De&lay	Time(s)	Stab.(mV/s)
SPEED	SELECTOR	1	&Optimize for:
ZGUESS	QUANT	1.00000E+007	E&stimated Z (ohms)
OCVCURVE	TABLE	19
	Pt	T	Vf	Vm	Ach	Over
	#	s	V vs. Ref.	V	V	bits
	0	0.258333	6.41268E-003	6.41268E-003	5.69432E-004	...........
	1	0.516667	6.41189E-003	6.37134E-003	5.70032E-004	...........
	2	0.775	6.40741E-003	6.35138E-003	5.64666E-004	...........
	3	1.03333	6.39612E-003	6.34104E-003	5.68932E-004	...........
	4	1.29167	6.37923E-003	6.34244E-003	5.72566E-004	...........
	5	1.55	6.36241E-003	6.34778E-003	5.69766E-004	...........
	6	1.80833	6.35106E-003	6.35761E-003	5.69232E-004	...........
	7	2.06667	6.34732E-003	6.37234E-003	5.71299E-004	...........
	8	2.325	6.35074E-003	6.39179E-003	5.71666E-004	...........
	9	2.58333	6.35998E-003	6.40982E-003	5.70566E-004	...........
	10	2.84167	6.37368E-003	6.43093E-003	5.70266E-004	...........
	11	3.1	6.39052E-003	6.45240E-003	5.70532E-004	...........
	12	3.35833	6.40944E-003	6.47390E-003	5.74399E-004	...........
	13	3.61667	6.42970E-003	6.49568E-003	5.73866E-004	...........
	14	3.875	6.45079E-003	6.51884E-003	5.76166E-004	...........
	15	4.13333	6.47249E-003	6.54366E-003	5.73499E-004	...........
	16	4.39167	6.49483E-003	6.56705E-003	5.69066E-004	...........
	17	4.65	6.51783E-003	6.58990E-003	5.71799E-004	...........
	18	4.90833	6.54129E-003	6.61412E-003	5.70399E-004	...........
EOC	QUANT	0.0065413	Open Circuit (V)
PSTATMODEL	IQUANT	4	Pstat Model
PSTATSECTION	LABEL	REF600-11020	Pstat Section
PSTATSERIALNO	LABEL	11020	Pstat Serial Number
CTRLMODE	IQUANT	1	Control Mode
IESTAB	IQUANT	0	I/E Stability
CASPEED	IQUANT	1	Control Amp Speed
CONVENTION	IQUANT	1	Current Convention
ICHRANGE	IQUANT	2	Ich Range
ICHRANGEMODE	TOGGLE	F	Ich Auto Range
ICHOFFSETENABLE	TOGGLE	T	Ich Offset Enable
ICHOFFSET	QUANT	0	Ich Offset (V)
ICHFILTER	IQUANT	3	Ich Filter
VCHRANGE	IQUANT	2	Vch Range
VCHRANGEMODE	TOGGLE	F	Vch Auto Range
VCHOFFSETENABLE	TOGGLE	T	Vch Offset Enable
VCHOFFSET	QUANT	0	Vch Offset (V)
VCHFILTER	IQUANT	3	Vch Filter
ACHRANGE	IQUANT	2	Ach Range
ACHOFFSETENABLE	TOGGLE	F	Ach Offset Enable
ACHOFFSET	QUANT	0	Ach Offset (V)
ACHFILTER	IQUANT	3	Ach Filter
IERANGELOWERLIMIT	IQUANT	1	I/E Range Lower Limit
IERANGEMODE	TOGGLE	F	I/E AutoRange
IERANGE	IQUANT	3	I/E Range
POSFEEDENABLE	TOGGLE	F	Positive Feedback IR Comp
POSFEEDRESISTANCE	QUANT	0	Positive Feedback Resistance (ohm)
ACHSELECT	IQUANT	0	Ach Select
CABLEID	IQUANT	14	Cable ID
DCCALDATE	LABEL	8/19/2019	DC Calibration Date
ACCALDATE	LABEL	8/19/2019	AC Calibration Date
THERMOSELECT	IQUANT	1	Thermo Select
FRAMEWORKVERSION	QUANT	6.33	Framework Version
INSTRUMENTVERSION	LABEL	3.50	Instrument Version
ZCURVE	TABLE
	Pt	Time	Freq	Zreal	Zimag	Zsig	Zmod	Zphz	Idc	Vdc	IERange
	#	s	Hz	ohm	ohm	V	ohm	°	A	V	#
	0	1	1000078	2536.113	-1296.031	1	2848.081	-27.06841	4.641229E-007	0.0087597	8
	1	3	794390.6	2748.254	-1164.157	1	2984.654	-22.95745	3.059124E-006	0.0080116	8
	2	4	630984.4	2924.457	-1020.308	1	3097.333	-19.23328	-1.361238E-006	0.0086867	8
	3	5	501234.4	3071.032	-882.2293	1	3195.241	-16.02801	-1.26128E-006	0.0086	8
	4	7	398109.4	3170.632	-767.8671	1	3262.288	-13.61384	4.678528E-007	0.0080934	8
	5	8	316265.6	3257.356	-654.869	1	3322.532	-11.36739	2.467488E-006	0.0077369	8
	6	10	251203.1	3304.02	-565.8535	1	3352.125	-9.71831	-1.308497E-007	0.0083034	8
	7	11	199546.9	3355.613	-496.1105	1	3392.089	-8.409969	3.750019E-006	0.0073607	8
	8	12	158578.1	3377.703	-438.574	1	3406.057	-7.398114	-4.369118E-007	0.0081893	8
	9	14	125953.1	3424.979	-367.9185	1	3444.683	-6.131323	-2.468443E-007	0.0083681	7
	10	15	100078.1	3448.803	-340.1735	1	3465.539	-5.633162	7.24841E-008	0.008061	7
	11	16	79453.13	3472.162	-329.2714	1	3487.74	-5.417263	6.210769E-008	0.0079899	7
	12	18	63140.62	3497.493	-329.9931	1	3513.026	-5.389977	-8.27221E-009	0.0081136	7
	13	19	50203.12	3526.961	-335.2418	1	3542.858	-5.429719	3.412151E-009	0.0080995	7
	14	20	39890.62	3556.009	-354.4287	1	3573.628	-5.691893	-7.239281E-009	0.0081082	7
	15	22	31640.63	3589.546	-376.2745	1	3609.214	-5.98418	5.671878E-009	0.0081907	7
	16	23	25171.88	3625.593	-410.4693	1	3648.755	-6.459204	-4.988569E-008	0.0082013	7
	17	24	20015.62	3665.316	-450.8891	1	3692.945	-7.013011	-5.801026E-008	0.0081899	7
	18	26	15890.62	3711.235	-503.5528	1	3745.241	-7.726896	-1.388704E-008	0.0081386	7
	19	27	12609.37	3764.597	-564.1849	1	3806.639	-8.523252	3.143318E-008	0.0080811	7
	20	28	10078.13	3822.036	-633.1444	1	3874.123	-9.405989	6.357821E-008	0.0079845	7
	21	30	8015.625	3885.461	-718.5367	1	3951.342	-10.47732	-8.118646E-010	0.0080943	7
	22	31	6328.125	3957.666	-819.4512	1	4041.611	-11.69803	-4.732286E-008	0.0081939	7
	23	32	5015.625	4037.365	-935.2874	1	4144.283	-13.04295	1.685372E-009	0.0081061	7
	24	34	3984.375	4124.915	-1071.266	1	4261.752	-14.55845	-1.988475E-008	0.0081108	7
	25	35	3170.956	4217.636	-1229.401	1	4393.163	-16.2509	-2.827735E-009	0.008091	7
	26	36	2527.573	4320.304	-1418.551	1	4547.231	-18.17735	-1.020377E-008	0.008078	7
	27	38	1976.103	4440.557	-1666.698	1	4743.04	-20.57289	4.698283E-009	0.008092	7
	28	39	1577.524	4557.828	-1937.74	1	4952.639	-23.03255	3.42898E-008	0.0080046	7
	29	40	1265.625	4685.096	-2257.908	1	5200.796	-25.73101	-6.970487E-009	0.0081058	7
	30	42	998.264	4837.131	-2682.604	1	5531.203	-29.01212	-8.996799E-009	0.008151	7
	31	43	796.875	5000.666	-3164.116	1	5917.625	-32.32313	-6.723574E-009	0.0081107	7
	32	44	627.7902	5183.498	-3801.473	1	6428.051	-36.25557	-4.941082E-008	0.0082024	7
	33	46	505.5147	5387.24	-4498.568	1	7018.509	-39.86327	6.427622E-008	0.0079804	7
	34	47	397.9953	5630.855	-5443.582	1	7831.929	-44.03119	4.073493E-009	0.0081379	7
	35	48	315.5048	5905.434	-6575.425	1	8838.007	-48.07278	5.493971E-009	0.0081378	7
	36	50	252.4038	6211.734	-7907.137	1	10055.27	-51.84733	9.47258E-010	0.0080705	6
	37	51	198.6229	6596.084	-9669.25	1	11704.82	-55.69931	1.02248E-009	0.0080794	6
	38	52	158.3615	7025.543	-11723.36	1	13667.32	-59.06671	7.25891E-010	0.0080725	6
	39	54	125.558	7556.999	-14320.38	1	16192.02	-62.17897	9.485128E-010	0.0080742	6
	40	55	100.4464	8187.163	-17377.93	1	19209.95	-64.77374	6.45957E-010	0.0080734	6
	41	56	79.00281	9001.559	-21437.76	1	23250.93	-67.22282	5.699687E-010	0.0080664	6
	42	58	63.3446	10055.54	-25965.38	1	27844.47	-68.83025	6.945384E-010	0.008071	6
	43	59	49.86702	11334.27	-32232.43	1	34167.16	-70.62619	2.153406E-010	0.0080634	6
	44	61	39.72458	13034.16	-39250.67	1	41358.25	-71.62997	1.036343E-009	0.0080634	6
	45	62	31.6723	15261.78	-47897.89	1	50270.57	-72.32648	1.315202E-009	0.0080647	6
	46	63	24.93351	18270.25	-58955.77	1	61721.84	-72.78191	9.189451E-010	0.0080654	6
	47	65	19.86229	22062.54	-71737.18	1	75053.17	-72.90488	1.471495E-009	0.0080718	6
	48	66	15.83615	27295.26	-87081.2	1	91258.78	-72.5966	-3.782312E-010	0.0080702	6
	49	67	12.40079	33936.23	-106196.4	1	111487	-72.27814	-2.560027E-010	0.0080834	5
	50	69	9.93114	42272.46	-127792.3	1	134602.5	-71.69628	4.608562E-010	0.0080804	5
	51	70	7.944915	52761.3	-152772.9	1	161627	-70.94725	8.749083E-010	0.0080727	5
	52	72	6.317385	66473.52	-182848.2	1	194556.4	-70.02153	4.080004E-010	0.0080708	5
	53	74	5.008013	84113.19	-218408.2	1	234045.2	-68.93735	1.332084E-011	0.0080639	5
	54	76	3.945707	106709.6	-260402.1	1	281418.2	-67.71677	4.346294E-010	0.0080771	5
	55	79	3.158693	132988.5	-305122.5	1	332844.9	-66.44988	2.093534E-010	0.0080925	5
	56	82	2.504006	165682.1	-358692.3	1	395108.5	-65.2075	-2.375745E-012	0.0080693	5
	57	85	1.998082	203718.2	-417262	1	464336.8	-63.97716	-6.5339E-012	0.0080449	5
	58	88	1.584686	249770.3	-483634	1	544322.5	-62.68614	3.394309E-011	0.0080937	5
	59	92	1.266892	302738.1	-557521.8	1	634413.9	-61.49774	8.948432E-011	0.0080334	5
	60	96	0.999041	367097.7	-644826.4	1	741998.6	-60.34727	1.128739E-010	0.0081208	5
