EXPLAIN
TAG	EISPOT
TITLE	LABEL	Potentiostatic EIS	Test &Identifier
DATE	LABEL	11/20/2019	Date
TIME	LABEL	12:14:39	Time
NOTES	NOTES	4	&Notes...
	
	
	
	
PSTAT	PSTAT	REF600-11020	Potentiostat
VDC	POTEN	0.00000E+000	T	DC &Voltage (V)
FREQINIT	QUANT	1.00000E+006	Initial Fre&q. (Hz)
FREQFINAL	QUANT	1.00000E+000	Final Fre&q. (Hz)
PTSPERDEC	QUANT	1.00000E+001	Points/&decade
VAC	QUANT	2.50000E+001	AC &Voltage (mV rms)
AREA	QUANT	1.00000E-002	&Area (cm^2)
CONDIT	TWOPARAM	T	5.00000E+000	0.00000E+000	Conditionin&g	Time(s)	E(V)
DELAY	TWOPARAM	T	5.00000E+000	0.00000E+000	Init. De&lay	Time(s)	Stab.(mV/s)
SPEED	SELECTOR	1	&Optimize for:
ZGUESS	QUANT	1.00000E+005	E&stimated Z (ohms)
OCVCURVE	TABLE	19
	Pt	T	Vf	Vm	Ach	Over
	#	s	V vs. Ref.	V	V	bits
	0	0.258333	1.92559E-003	1.92559E-003	5.14400E-004	...........
	1	0.516667	1.92401E-003	1.84280E-003	5.16300E-004	...........
	2	0.775	1.91404E-003	1.75076E-003	5.17766E-004	...........
	3	1.03333	1.88461E-003	1.64353E-003	5.17200E-004	...........
	4	1.29167	1.82822E-003	1.51504E-003	5.17200E-004	...........
	5	1.55	1.74584E-003	1.41493E-003	5.13733E-004	...........
	6	1.80833	1.64474E-003	1.28979E-003	5.14500E-004	...........
	7	2.06667	1.53394E-003	1.19549E-003	5.11833E-004	...........
	8	2.325	1.42178E-003	1.13924E-003	5.22133E-004	...........
	9	2.58333	1.31653E-003	1.07531E-003	5.14600E-004	...........
	10	2.84167	1.22467E-003	1.00858E-003	5.19233E-004	...........
	11	3.1	1.14645E-003	9.31038E-004	5.18566E-004	...........
	12	3.35833	1.07601E-003	8.54215E-004	5.16433E-004	...........
	13	3.61667	1.00674E-003	7.84530E-004	5.22333E-004	...........
	14	3.875	9.35977E-004	7.31907E-004	5.20133E-004	...........
	15	4.13333	8.65604E-004	6.72642E-004	5.23866E-004	...........
	16	4.39167	7.98734E-004	6.14869E-004	5.21033E-004	...........
	17	4.65	7.36237E-004	5.54181E-004	5.20166E-004	...........
	18	4.90833	6.76564E-004	4.95167E-004	5.20500E-004	...........
EOC	QUANT	0.0006766	Open Circuit (V)
PSTATMODEL	IQUANT	4	Pstat Model
PSTATSECTION	LABEL	REF600-11020	Pstat Section
PSTATSERIALNO	LABEL	11020	Pstat Serial Number
CTRLMODE	IQUANT	1	Control Mode
IESTAB	IQUANT	0	I/E Stability
CASPEED	IQUANT	1	Control Amp Speed
CONVENTION	IQUANT	1	Current Convention
ICHRANGE	IQUANT	2	Ich Range
ICHRANGEMODE	TOGGLE	F	Ich Auto Range
ICHOFFSETENABLE	TOGGLE	T	Ich Offset Enable
ICHOFFSET	QUANT	0	Ich Offset (V)
ICHFILTER	IQUANT	3	Ich Filter
VCHRANGE	IQUANT	2	Vch Range
VCHRANGEMODE	TOGGLE	F	Vch Auto Range
VCHOFFSETENABLE	TOGGLE	T	Vch Offset Enable
VCHOFFSET	QUANT	0	Vch Offset (V)
VCHFILTER	IQUANT	3	Vch Filter
ACHRANGE	IQUANT	2	Ach Range
ACHOFFSETENABLE	TOGGLE	F	Ach Offset Enable
ACHOFFSET	QUANT	0	Ach Offset (V)
ACHFILTER	IQUANT	3	Ach Filter
IERANGELOWERLIMIT	IQUANT	1	I/E Range Lower Limit
IERANGEMODE	TOGGLE	F	I/E AutoRange
IERANGE	IQUANT	4	I/E Range
POSFEEDENABLE	TOGGLE	F	Positive Feedback IR Comp
POSFEEDRESISTANCE	QUANT	0	Positive Feedback Resistance (ohm)
ACHSELECT	IQUANT	0	Ach Select
CABLEID	IQUANT	14	Cable ID
DCCALDATE	LABEL	8/19/2019	DC Calibration Date
ACCALDATE	LABEL	8/19/2019	AC Calibration Date
THERMOSELECT	IQUANT	1	Thermo Select
FRAMEWORKVERSION	QUANT	6.33	Framework Version
INSTRUMENTVERSION	LABEL	3.50	Instrument Version
ZCURVE	TABLE
	Pt	Time	Freq	Zreal	Zimag	Zsig	Zmod	Zphz	Idc	Vdc	IERange
	#	s	Hz	ohm	ohm	V	ohm	°	A	V	#
	0	1	1000078	2082.042	-1918.138	1	2830.928	-42.65366	-2.023299E-006	0.0037631	8
	1	3	794390.6	2412.288	-1974.062	1	3117.059	-39.2947	5.524353E-006	0.002603	8
	2	4	630984.4	2739.466	-2015.576	1	3401.062	-36.34397	7.609153E-007	0.0020479	8
	3	5	501234.4	3067.602	-2048.395	1	3688.645	-33.73306	5.955772E-006	0.0012729	8
	4	7	398109.4	3389.272	-2062.425	1	3967.463	-31.32117	-4.004241E-006	0.0029119	8
	5	8	316265.6	3714.936	-2103.765	1	4269.26	-29.52284	1.968956E-006	0.0019363	8
	6	9	251203.1	4040.616	-2123.908	1	4564.817	-27.7282	-8.498928E-007	0.0027289	8
	7	11	199546.9	4364.901	-2145.177	1	4863.553	-26.1723	1.668033E-006	0.002591	8
	8	12	158578.1	4707.579	-2157.827	1	5178.563	-24.62544	-2.368558E-007	0.0020778	8
	9	13	125953.1	5128.141	-2088.831	1	5537.241	-22.1624	-1.729605E-006	0.0020329	7
	10	15	100078.1	5481.935	-2059.272	1	5855.955	-20.58853	7.292946E-008	0.0010059	7
	11	16	79453.13	5847.327	-1997.168	1	6178.989	-18.85773	4.38995E-007	0.0006803	7
	12	17	63140.62	6179.134	-1892.221	1	6462.368	-17.02603	-1.202535E-006	0.003396	7
	13	19	50203.12	6485.079	-1754.859	1	6718.317	-15.14158	-7.531786E-007	0.0021896	7
	14	20	39890.62	6758.758	-1610.511	1	6947.99	-13.40279	-8.592054E-007	0.003939	7
	15	22	31640.63	6984.593	-1451.827	1	7133.887	-11.74237	-2.576218E-007	0.0035948	7
	16	23	25171.88	7140.409	-1299.082	1	7257.62	-10.31126	-7.52292E-007	0.0021833	7
	17	25	20015.62	7308.208	-1195.224	1	7405.3	-9.288237	-2.543534E-007	0.0035917	7
	18	26	15890.62	7396.712	-1082.037	1	7475.437	-8.322551	4.348833E-007	0.0006736	7
	19	28	12609.37	7512.516	-1013.552	1	7580.579	-7.683669	8.437142E-007	0.0020012	7
	20	29	10078.13	7560.191	-960.895	1	7621.011	-7.243415	4.108085E-007	0.0027628	7
	21	30	8015.625	7648.336	-959.834	1	7708.328	-7.152982	1.081261E-006	0.0011261	7
	22	32	6328.125	7685.295	-973.565	1	7746.715	-7.219709	-1.039661E-006	0.0028298	7
	23	33	5015.625	7750.58	-1029.329	1	7818.632	-7.564994	4.38348E-007	0.0006703	7
	24	35	3984.375	7813.449	-1128.476	1	7894.52	-8.218251	9.392599E-007	0.0006078	7
	25	36	3170.956	7858.285	-1255.734	1	7957.984	-9.078959	-1.194648E-006	0.0033699	7
	26	38	2527.573	7934.125	-1432.16	1	8062.346	-10.23207	9.423417E-007	0.0006114	7
	27	39	1976.103	7990.289	-1691.014	1	8167.267	-11.9494	6.566594E-008	0.0009828	7
	28	41	1577.524	8121.049	-2003.556	1	8364.549	-13.85877	-5.757676E-007	0.0038213	7
	29	42	1265.625	8139.104	-2353.193	1	8472.457	-16.12574	-7.486685E-007	0.0021716	7
	30	43	998.264	8247.172	-2855.984	1	8727.686	-19.1009	-5.755713E-007	0.0038216	7
	31	45	796.875	8362.062	-3443.504	1	9043.328	-22.3819	7.324426E-007	0.0005489	7
	32	46	627.7902	8515.878	-4229.785	1	9508.48	-26.41331	1.011849E-006	0.0015272	7
	33	47	505.5147	8680.639	-5094.531	1	10065.17	-30.408	-2.497572E-007	0.0035749	7
	34	49	397.9953	8899.282	-6260.682	1	10880.87	-35.12654	1.191548E-009	0.0022408	6
	35	50	315.5048	9168.655	-7678.385	1	11959.17	-39.94484	3.930971E-010	0.0022359	6
	36	51	252.4038	9490.374	-9349.099	1	13321.89	-44.57035	1.687245E-009	0.0022379	6
	37	53	198.6229	9932.46	-11558.57	1	15239.89	-49.327	4.546744E-010	0.0022435	6
	38	54	158.3615	10467.95	-14128.71	1	17584.04	-53.46528	1.979198E-010	0.0022423	6
	39	55	125.558	11183.27	-17347.6	1	20639.88	-57.19181	6.901348E-010	0.0022326	6
	40	57	100.4464	12087.52	-21107.21	1	24323.29	-60.20143	1.805465E-009	0.0022317	6
	41	58	79.00281	13364.26	-26025.38	1	29256.17	-62.81911	8.285689E-010	0.0022289	6
	42	60	63.3446	14964.72	-31330.25	1	34720.71	-64.46879	1.720923E-009	0.0022285	6
	43	61	49.86702	17056.57	-39041.39	1	42604.65	-66.40024	1.111941E-009	0.0022388	6
	44	62	39.72458	19618.1	-47148.29	1	51066.93	-67.40813	5.329585E-010	0.0022388	6
	45	64	31.6723	23213.63	-56934.7	1	61485.22	-67.81811	9.956281E-010	0.0022263	6
	46	65	24.93351	27888.34	-69307.03	1	74707.59	-68.08072	1.295691E-009	0.0022314	6
	47	67	19.86229	33719.02	-83147.77	1	89724.7	-67.92591	1.127819E-009	0.0022479	6
	48	68	15.83615	41940.65	-99206.6	1	107707.8	-67.08327	-1.599847E-010	0.0022377	5
	49	69	12.40079	51300.27	-119933.2	1	130444.3	-66.84166	7.943454E-010	0.0022462	5
	50	71	9.93114	63237.2	-141225	1	154736.7	-65.87829	-8.935004E-011	0.0022487	5
	51	72	7.944915	77736.71	-166614.2	1	183856.8	-64.98779	5.609021E-010	0.0022284	5
	52	74	6.317385	97013.7	-194355.7	1	217222.9	-63.47367	4.619034E-010	0.0022263	5
	53	76	5.008013	120537.2	-226690.4	1	256744.5	-61.99926	-4.275778E-011	0.0022355	5
	54	79	3.945707	149790	-263099.7	1	302751.5	-60.34594	1.148822E-010	0.0022399	5
	55	81	3.158693	182003.7	-299921.1	1	350824.8	-58.749	-7.646791E-011	0.00223	5
	56	85	2.504006	219276.3	-340431.6	1	404939.2	-57.21391	4.695174E-010	0.0022439	5
	57	87	1.998082	262695.7	-384285.9	1	465494	-55.64371	5.183338E-010	0.0022471	5
	58	90	1.584686	308815.3	-430818.1	1	530067.1	-54.36662	2.769975E-010	0.0021865	5
	59	94	1.266892	358860.1	-481088.5	1	600188.9	-53.27951	3.524725E-010	0.0022454	5
	60	98	0.999041	414563.3	-540332.4	1	681044.6	-52.50323	-1.783508E-010	0.0021946	5
