EXPLAIN
TAG	EISPOT
TITLE	LABEL	Potentiostatic EIS	Test &Identifier
DATE	LABEL	10/26/2019	Date
TIME	LABEL	10:38:43	Time
NOTES	NOTES	1	&Notes...
	
PSTAT	PSTAT	REF600-11020	Potentiostat
VDC	POTEN	0.00000E+000	T	DC &Voltage (V)
FREQINIT	QUANT	1.00000E+006	Initial Fre&q. (Hz)
FREQFINAL	QUANT	1.00000E+000	Final Fre&q. (Hz)
PTSPERDEC	QUANT	1.00000E+001	Points/&decade
VAC	QUANT	2.50000E+001	AC &Voltage (mV rms)
AREA	QUANT	1.00000E-002	&Area (cm^2)
CONDIT	TWOPARAM	T	5.00000E+000	0.00000E+000	Conditionin&g	Time(s)	E(V)
DELAY	TWOPARAM	T	5.00000E+000	0.00000E+000	Init. De&lay	Time(s)	Stab.(mV/s)
SPEED	SELECTOR	0	&Optimize for:
ZGUESS	QUANT	1.00000E+005	E&stimated Z (ohms)
OCVCURVE	TABLE	19
	Pt	T	Vf	Vm	Ach	Over
	#	s	V vs. Ref.	V	V	bits
	0	0.258333	6.34245E-003	6.34245E-003	5.54666E-004	...........
	1	0.516667	6.34179E-003	6.30800E-003	5.55033E-004	...........
	2	0.775	6.33792E-003	6.28433E-003	5.51566E-004	...........
	3	1.03333	6.32783E-003	6.27667E-003	5.49466E-004	...........
	4	1.29167	6.31226E-003	6.27538E-003	5.54766E-004	...........
	5	1.55	6.29643E-003	6.28923E-003	5.53233E-004	...........
	6	1.80833	6.28616E-003	6.30283E-003	5.50133E-004	...........
	7	2.06667	6.28452E-003	6.32488E-003	5.54466E-004	...........
	8	2.325	6.29154E-003	6.34843E-003	5.53933E-004	...........
	9	2.58333	6.30562E-003	6.37398E-003	5.50499E-004	...........
	10	2.84167	6.32486E-003	6.39997E-003	5.51333E-004	...........
	11	3.1	6.34757E-003	6.42879E-003	5.53633E-004	...........
	12	3.35833	6.37264E-003	6.46206E-003	5.50599E-004	...........
	13	3.61667	6.39973E-003	6.49431E-003	5.48766E-004	...........
	14	3.875	6.42875E-003	6.52116E-003	5.49099E-004	...........
	15	4.13333	6.45912E-003	6.55675E-003	5.42566E-004	...........
	16	4.39167	6.49010E-003	6.58703E-003	5.50166E-004	...........
	17	4.65	6.52144E-003	6.62000E-003	5.46399E-004	...........
	18	4.90833	6.55321E-003	6.65510E-003	5.47433E-004	...........
EOC	QUANT	0.0065532	Open Circuit (V)
PSTATMODEL	IQUANT	4	Pstat Model
PSTATSECTION	LABEL	REF600-11020	Pstat Section
PSTATSERIALNO	LABEL	11020	Pstat Serial Number
CTRLMODE	IQUANT	1	Control Mode
IESTAB	IQUANT	0	I/E Stability
CASPEED	IQUANT	1	Control Amp Speed
CONVENTION	IQUANT	1	Current Convention
ICHRANGE	IQUANT	2	Ich Range
ICHRANGEMODE	TOGGLE	F	Ich Auto Range
ICHOFFSETENABLE	TOGGLE	T	Ich Offset Enable
ICHOFFSET	QUANT	0	Ich Offset (V)
ICHFILTER	IQUANT	3	Ich Filter
VCHRANGE	IQUANT	2	Vch Range
VCHRANGEMODE	TOGGLE	F	Vch Auto Range
VCHOFFSETENABLE	TOGGLE	T	Vch Offset Enable
VCHOFFSET	QUANT	0	Vch Offset (V)
VCHFILTER	IQUANT	3	Vch Filter
ACHRANGE	IQUANT	2	Ach Range
ACHOFFSETENABLE	TOGGLE	F	Ach Offset Enable
ACHOFFSET	QUANT	0	Ach Offset (V)
ACHFILTER	IQUANT	3	Ach Filter
IERANGELOWERLIMIT	IQUANT	1	I/E Range Lower Limit
IERANGEMODE	TOGGLE	F	I/E AutoRange
IERANGE	IQUANT	5	I/E Range
POSFEEDENABLE	TOGGLE	F	Positive Feedback IR Comp
POSFEEDRESISTANCE	QUANT	0	Positive Feedback Resistance (ohm)
ACHSELECT	IQUANT	0	Ach Select
CABLEID	IQUANT	14	Cable ID
DCCALDATE	LABEL	8/19/2019	DC Calibration Date
ACCALDATE	LABEL	8/19/2019	AC Calibration Date
THERMOSELECT	IQUANT	1	Thermo Select
FRAMEWORKVERSION	QUANT	6.33	Framework Version
INSTRUMENTVERSION	LABEL	3.50	Instrument Version
ZCURVE	TABLE
	Pt	Time	Freq	Zreal	Zimag	Zsig	Zmod	Zphz	Idc	Vdc	IERange
	#	s	Hz	ohm	ohm	V	ohm	°	A	V	#
	0	2	1000078	2404.533	-1763.611	1	2981.963	-36.25829	7.560543E-007	0.0093919	8
	1	2	794390.6	2755.148	-1713.476	1	3244.51	-31.87822	4.112686E-006	0.0075517	8
	2	2	630984.4	3078.358	-1619.3	1	3478.279	-27.74559	-3.068981E-006	0.0087533	8
	3	3	501234.4	3370.674	-1476.13	1	3679.728	-23.6502	6.940509E-007	0.0082359	8
	4	3	398109.4	3599.045	-1328.847	1	3836.53	-20.26527	-2.556342E-006	0.0086393	8
	5	3	316265.6	3787.711	-1155.111	1	3959.929	-16.95976	-2.756571E-007	0.0081513	8
	6	3	251203.1	3933.194	-1011.514	1	4061.179	-14.42243	-9.272908E-007	0.0084403	8
	7	4	199546.9	4037.591	-882.5925	1	4132.93	-12.33055	-3.189954E-006	0.0086854	8
	8	4	158578.1	4133.5	-739.7805	1	4199.179	-10.14691	-2.053866E-007	0.008096	8
	9	4	125953.1	4219.331	-610.5948	1	4263.283	-8.234318	-1.59787E-008	0.007768	7
	10	5	100078.1	4251.738	-544.8208	1	4286.502	-7.30213	4.697437E-008	0.0079948	7
	11	5	79453.13	4296.931	-499.638	1	4325.881	-6.632448	-8.378522E-009	0.0080347	7
	12	5	63140.62	4335.763	-464.3458	1	4360.557	-6.112887	-4.65884E-008	0.0081179	7
	13	6	50203.12	4374.065	-444.8354	1	4396.627	-5.806923	-6.4258E-008	0.0082495	7
	14	6	39890.62	4408.606	-435.3418	1	4430.048	-5.63957	8.150873E-008	0.0079886	7
	15	6	31640.63	4442.641	-437.292	1	4464.11	-5.621552	5.02489E-009	0.0079994	7
	16	7	25171.88	4476.147	-450.4453	1	4498.755	-5.746464	4.679309E-008	0.0079837	7
	17	7	20015.62	4510.175	-474.9409	1	4535.113	-6.011338	4.723377E-008	0.0079822	7
	18	7	15890.62	4548.241	-515.6373	1	4577.377	-6.468046	7.984134E-008	0.0079889	7
	19	8	12609.37	4586.561	-569.6028	1	4621.794	-7.079289	-1.683433E-008	0.0080873	7
	20	8	10078.13	4623.493	-638.9756	1	4667.438	-7.868544	8.091024E-008	0.0079881	7
	21	8	8015.625	4667.86	-729.3979	1	4724.504	-8.881195	4.619142E-008	0.0079837	7
	22	9	6328.125	4709.966	-847.5817	1	4785.622	-10.20147	-2.57715E-008	0.0080582	7
	23	9	5015.625	4758.63	-995.686	1	4861.682	-11.81796	9.865484E-008	0.0079137	7
	24	9	3984.375	4815.408	-1176.831	1	4957.125	-13.73326	-3.308029E-008	0.0080612	7
	25	10	3170.956	4876.175	-1400.072	1	5073.192	-16.0201	-4.016406E-008	0.0081464	7
	26	10	2527.573	4943.342	-1674.822	1	5219.354	-18.71656	6.593165E-008	0.0079171	7
	27	10	1976.103	5030.53	-2042.014	1	5429.186	-22.09342	4.793229E-008	0.0079754	7
	28	10	1577.524	5128.679	-2446.512	1	5682.321	-25.50235	-4.708532E-008	0.008111	7
	29	11	1265.625	5230.37	-2961.056	1	6010.376	-29.51539	9.901582E-008	0.007907	7
	30	11	998.264	5365.746	-3622.05	1	6473.83	-34.02061	9.83995E-009	0.0079925	7
	31	11	796.875	5516.279	-4403.338	1	7058.238	-38.59842	6.770231E-008	0.0079144	7
	32	12	627.7902	5718.388	-5419.226	1	7878.322	-43.46138	8.303572E-008	0.0079834	7
	33	12	505.5147	5941.605	-6556.133	1	8847.913	-47.81503	-6.361385E-008	0.008239	7
	34	12	397.9953	6252.576	-8086.406	1	10221.77	-52.28806	1.142523E-009	0.0080215	6
	35	13	315.5048	6638.74	-9931.86	1	11946.33	-56.24009	8.312795E-010	0.0080216	6
	36	13	252.4038	7116.462	-12111.99	1	14047.93	-59.56342	4.290938E-010	0.008019	6
	37	13	198.6229	7787.131	-14980.67	1	16883.71	-62.53404	-3.757479E-011	0.0080199	6
	38	14	158.3615	8640.179	-18309.92	1	20246.13	-64.73808	1.010065E-009	0.0080183	6
	39	14	125.558	9809.55	-22451.63	1	24501.08	-66.39856	5.548558E-010	0.008017	6
	40	14	100.4464	11261.54	-27266.08	1	29500.2	-67.55822	-1.27169E-010	0.0080151	6
	41	15	79.00281	13409.99	-33427.68	1	36017.18	-68.14111	5.498875E-010	0.008013	6
	42	15	63.3446	16815.85	-40551.05	1	43899.43	-67.47703	4.479449E-010	0.0080095	6
	43	15	49.86702	20672.75	-49177.3	1	53345.75	-67.19949	1.093577E-009	0.0080063	6
	44	16	39.72458	25347.28	-58414.09	1	63676.45	-66.54282	3.296123E-010	0.0080131	6
	45	16	31.6723	31613.88	-69101.59	1	75989.92	-65.41597	3.538077E-010	0.0080089	6
	46	16	24.93351	40577.47	-81742.92	1	91260.27	-63.60004	6.295741E-010	0.0080098	6
	47	17	19.86229	50796.54	-94445.84	1	107239.5	-61.72696	1.938609E-009	0.0080232	5
	48	17	15.83615	62909.93	-109543.7	1	126322.9	-60.13165	-1.823526E-009	0.0080188	5
	49	17	12.40079	77620.74	-123937.1	1	146237.4	-57.94144	-9.909567E-010	0.0080225	5
	50	18	9.93114	92897.12	-138293.2	1	166598	-56.10915	-6.082488E-010	0.0080209	5
	51	18	7.944915	108963.9	-154354.9	1	188940.6	-54.78056	4.774406E-010	0.0080107	5
	52	19	6.317385	125846.5	-173487	1	214324.7	-54.04308	5.32123E-010	0.0080017	5
	53	20	5.008013	144589.6	-195443	1	243113.4	-53.5058	1.218956E-010	0.0080056	5
	54	21	3.945707	163879.9	-222305.8	1	276182	-53.60302	1.372022E-010	0.008016	5
	55	22	3.158693	183907.8	-252073.5	1	312030.7	-53.88626	-2.561138E-010	0.0080045	5
	56	24	2.504006	206243.9	-289353.9	1	355333.9	-54.51973	-5.739547E-011	0.0080041	5
	57	25	1.998082	230216.2	-333687	1	405396.8	-55.39757	6.894771E-011	0.0080416	5
	58	27	1.584686	257889.7	-387310.2	1	465313.1	-56.34241	-8.601884E-011	0.0079963	5
	59	29	1.266892	290248.8	-450745.5	1	536111.9	-57.22128	-1.287717E-010	0.0079647	5
	60	31	0.999041	329403.3	-532097.2	1	625806.6	-58.23976	-1.573943E-010	0.0079618	5
