EXPLAIN
TAG	EISPOT
TITLE	LABEL	Potentiostatic EIS	Test &Identifier
DATE	LABEL	10/24/2019	Date
TIME	LABEL	10:05:11	Time
NOTES	NOTES	1	&Notes...
	
PSTAT	PSTAT	REF600-11020	Potentiostat
VDC	POTEN	0.00000E+000	T	DC &Voltage (V)
FREQINIT	QUANT	1.00000E+006	Initial Fre&q. (Hz)
FREQFINAL	QUANT	1.00000E+000	Final Fre&q. (Hz)
PTSPERDEC	QUANT	1.00000E+001	Points/&decade
VAC	QUANT	2.50000E+001	AC &Voltage (mV rms)
AREA	QUANT	1.00000E-002	&Area (cm^2)
CONDIT	TWOPARAM	T	5.00000E+000	0.00000E+000	Conditionin&g	Time(s)	E(V)
DELAY	TWOPARAM	T	5.00000E+000	0.00000E+000	Init. De&lay	Time(s)	Stab.(mV/s)
SPEED	SELECTOR	1	&Optimize for:
ZGUESS	QUANT	1.00000E+005	E&stimated Z (ohms)
OCVCURVE	TABLE	19
	Pt	T	Vf	Vm	Ach	Over
	#	s	V vs. Ref.	V	V	bits
	0	0.258333	4.85756E-003	4.85756E-003	5.36166E-004	...........
	1	0.516667	4.85395E-003	4.66880E-003	5.34600E-004	...........
	2	0.775	4.83229E-003	4.51487E-003	5.39566E-004	...........
	3	1.03333	4.77337E-003	4.40821E-003	5.39733E-004	...........
	4	1.29167	4.66094E-003	3.59843E-003	5.38866E-004	...........
	5	1.55	4.44531E-003	2.19450E-003	5.37766E-004	...........
	6	1.80833	4.04945E-003	2.66471E-003	5.29966E-004	...........
	7	2.06667	3.51030E-003	2.64204E-003	5.30366E-004	...........
	8	2.325	3.02798E-003	3.07488E-003	5.33500E-004	...........
	9	2.58333	2.77731E-003	2.97088E-003	5.31466E-004	...........
	10	2.84167	2.75468E-003	2.92331E-003	5.37033E-004	...........
	11	3.1	2.83485E-003	2.92070E-003	5.37266E-004	...........
	12	3.35833	2.90548E-003	2.88967E-003	5.30466E-004	...........
	13	3.61667	2.93013E-003	2.86858E-003	5.26566E-004	...........
	14	3.875	2.92116E-003	2.83313E-003	5.42366E-004	...........
	15	4.13333	2.89713E-003	2.80966E-003	5.35699E-004	...........
	16	4.39167	2.86845E-003	2.77658E-003	5.28866E-004	...........
	17	4.65	2.83889E-003	2.74530E-003	5.34466E-004	...........
	18	4.90833	2.80900E-003	2.71063E-003	5.44199E-004	...........
EOC	QUANT	0.002809	Open Circuit (V)
PSTATMODEL	IQUANT	4	Pstat Model
PSTATSECTION	LABEL	REF600-11020	Pstat Section
PSTATSERIALNO	LABEL	11020	Pstat Serial Number
CTRLMODE	IQUANT	1	Control Mode
IESTAB	IQUANT	0	I/E Stability
CASPEED	IQUANT	1	Control Amp Speed
CONVENTION	IQUANT	1	Current Convention
ICHRANGE	IQUANT	2	Ich Range
ICHRANGEMODE	TOGGLE	F	Ich Auto Range
ICHOFFSETENABLE	TOGGLE	T	Ich Offset Enable
ICHOFFSET	QUANT	0	Ich Offset (V)
ICHFILTER	IQUANT	3	Ich Filter
VCHRANGE	IQUANT	2	Vch Range
VCHRANGEMODE	TOGGLE	F	Vch Auto Range
VCHOFFSETENABLE	TOGGLE	T	Vch Offset Enable
VCHOFFSET	QUANT	0	Vch Offset (V)
VCHFILTER	IQUANT	3	Vch Filter
ACHRANGE	IQUANT	2	Ach Range
ACHOFFSETENABLE	TOGGLE	F	Ach Offset Enable
ACHOFFSET	QUANT	0	Ach Offset (V)
ACHFILTER	IQUANT	3	Ach Filter
IERANGELOWERLIMIT	IQUANT	1	I/E Range Lower Limit
IERANGEMODE	TOGGLE	F	I/E AutoRange
IERANGE	IQUANT	4	I/E Range
POSFEEDENABLE	TOGGLE	F	Positive Feedback IR Comp
POSFEEDRESISTANCE	QUANT	0	Positive Feedback Resistance (ohm)
ACHSELECT	IQUANT	0	Ach Select
CABLEID	IQUANT	14	Cable ID
DCCALDATE	LABEL	8/19/2019	DC Calibration Date
ACCALDATE	LABEL	8/19/2019	AC Calibration Date
THERMOSELECT	IQUANT	1	Thermo Select
FRAMEWORKVERSION	QUANT	6.33	Framework Version
INSTRUMENTVERSION	LABEL	3.50	Instrument Version
ZCURVE	TABLE
	Pt	Time	Freq	Zreal	Zimag	Zsig	Zmod	Zphz	Idc	Vdc	IERange
	#	s	Hz	ohm	ohm	V	ohm	°	A	V	#
	0	2	1000078	2327.387	-1626.877	1	2839.623	-34.9541	1.722319E-006	0.0047803	8
	1	3	794390.6	2637.709	-1556.419	1	3062.671	-30.54335	-6.332785E-007	0.0046846	8
	2	5	630984.4	2920.319	-1448.488	1	3259.813	-26.38156	3.37465E-007	0.0044462	8
	3	6	501234.4	3161.667	-1304.08	1	3420.053	-22.41448	3.294206E-006	0.0038551	8
	4	7	398109.4	3361.327	-1168.327	1	3558.583	-19.16638	-1.179594E-006	0.0045507	8
	5	9	316265.6	3515.78	-1025.132	1	3662.186	-16.25564	2.334692E-006	0.0038453	8
	6	10	251203.1	3631.759	-895.3461	1	3740.497	-13.8491	6.497314E-007	0.0042084	8
	7	11	199546.9	3731.157	-788.5321	1	3813.57	-11.93314	-3.22829E-008	0.0043486	8
	8	13	158578.1	3804.119	-687.0072	1	3865.657	-10.23703	-7.131669E-007	0.004438	8
	9	14	125953.1	3874.17	-588.4175	1	3918.601	-8.636207	2.188418E-008	0.004082	7
	10	16	100078.1	3921.712	-534.288	1	3957.94	-7.758124	7.216529E-008	0.0042365	7
	11	17	79453.13	3969.295	-507.0519	1	4001.551	-7.27974	-4.392083E-008	0.0044276	7
	12	18	63140.62	4014.472	-490.2585	1	4044.297	-6.962645	-4.366452E-008	0.0043254	7
	13	20	50203.12	4059.292	-484.0993	1	4088.056	-6.800807	-2.22085E-008	0.0042726	7
	14	21	39890.62	4104.321	-487.6586	1	4133.19	-6.775882	5.928157E-009	0.0042343	7
	15	22	31640.63	4151.839	-501.4908	1	4182.017	-6.887255	7.483754E-008	0.0042216	7
	16	24	25171.88	4201.418	-525.6376	1	4234.171	-7.131198	-2.173188E-008	0.0042764	7
	17	25	20015.62	4255.528	-559.6324	1	4292.168	-7.491815	2.765209E-009	0.0042219	7
	18	26	15890.62	4309.417	-602.531	1	4351.335	-7.959344	3.765342E-009	0.0042208	7
	19	28	12609.37	4368.075	-659.8187	1	4417.628	-8.589862	5.178596E-008	0.0041882	7
	20	29	10078.13	4432.707	-726.3976	1	4491.831	-9.306471	6.118773E-009	0.0042272	7
	21	31	8015.625	4484.494	-808.5329	1	4556.798	-10.22036	-1.273785E-010	0.0043001	7
	22	32	6328.125	4572.759	-910.5599	1	4662.537	-11.26183	-4.330983E-008	0.0044151	7
	23	33	5015.625	4648.101	-1034.586	1	4761.849	-12.54848	5.463791E-008	0.0041801	7
	24	35	3984.375	4722.77	-1198.842	1	4872.553	-14.24329	-2.060359E-008	0.0042648	7
	25	36	3170.956	4810.664	-1370.542	1	5002.086	-15.90208	3.329281E-008	0.0041603	7
	26	37	2527.573	4898.151	-1596.378	1	5151.728	-18.05153	-8.473824E-009	0.0042838	7
	27	39	1976.103	5006.423	-1897.168	1	5353.833	-20.75404	-4.364267E-008	0.0043117	7
	28	40	1577.524	5106.28	-2251.46	1	5580.606	-23.79364	-4.185181E-008	0.0044123	7
	29	41	1265.625	5230.823	-2653.446	1	5865.346	-26.89737	1.009551E-007	0.0041206	7
	30	43	998.264	5377.317	-3194.407	1	6254.58	-30.71252	1.016433E-007	0.0041232	7
	31	44	796.875	5537.045	-3826.897	1	6730.825	-34.65007	9.114803E-009	0.0043456	7
	32	46	627.7902	5730.764	-4647.075	1	7378.141	-39.03859	7.509799E-008	0.0042141	7
	33	47	505.5147	5930.521	-5565.368	1	8132.921	-43.18068	-2.426976E-008	0.004335	7
	34	48	397.9953	6192.954	-6805.959	1	9201.834	-47.69997	6.068907E-009	0.0042885	7
	35	50	315.5048	6495.996	-8299.286	1	10539.27	-51.94909	7.671948E-010	0.0042298	6
	36	51	252.4038	6839.41	-10066.96	1	12170.51	-55.80814	1.431134E-009	0.0042277	6
	37	52	198.6229	7295.36	-12417.6	1	14402.05	-59.5657	1.115308E-009	0.0042337	6
	38	54	158.3615	7836.175	-15158.84	1	17064.46	-62.66385	1.521738E-009	0.0042283	6
	39	55	125.558	8543.05	-18623.68	1	20489.63	-65.35814	6.104331E-010	0.0042326	6
	40	57	100.4464	9403.078	-22691.73	1	24562.83	-67.49169	1.469707E-009	0.004229	6
	41	58	79.00281	10720.55	-28081.03	1	30057.86	-69.10455	1.68805E-009	0.0042278	6
	42	59	63.3446	12261.87	-33822.3	1	35976.4	-70.0725	2.513614E-010	0.0042266	6
	43	61	49.86702	14617.72	-42225.9	1	44684.5	-70.90522	1.751004E-010	0.0042221	6
	44	62	39.72458	17158.7	-51283.21	1	54077.62	-71.50042	7.790852E-010	0.0042307	6
	45	63	31.6723	20679.12	-62267.43	1	65611.42	-71.62859	8.664832E-010	0.0042249	6
	46	65	24.93351	25860.35	-76045.29	1	80322.13	-71.21863	1.127575E-009	0.0042307	6
	47	66	19.86229	32191.43	-91824.81	1	97304.1	-70.68063	7.260869E-010	0.0042362	6
	48	68	15.83615	39616.2	-109689.4	1	116624.3	-70.14195	9.278295E-010	0.0042307	5
	49	69	12.40079	52352.02	-131988.6	1	141992	-68.36472	-3.592401E-010	0.0042333	5
	50	71	9.93114	66089.08	-156156.8	1	169566.3	-67.06083	-3.200476E-010	0.0042344	5
	51	72	7.944915	82561.5	-182052.8	1	199899.1	-65.60557	1.327639E-009	0.0042361	5
	52	74	6.317385	104327.4	-213541.2	1	237663.7	-63.96177	-1.164679E-011	0.0042483	5
	53	76	5.008013	130596.8	-247308.8	1	279673.3	-62.16272	5.103712E-010	0.0042403	5
	54	78	3.945707	161306.7	-284897	1	327392.9	-60.48176	3.690875E-010	0.0042354	5
	55	81	3.158693	194040.3	-323026.9	1	376826.3	-59.00701	2.884521E-010	0.0042474	5
	56	84	2.504006	231425.3	-367144.1	1	433995.9	-57.77517	2.358337E-010	0.004229	5
	57	87	1.998082	270637.5	-414319	1	494878.7	-56.84701	2.681018E-012	0.0042532	5
	58	90	1.584686	313189.9	-474011	1	568132.3	-56.54634	2.803155E-010	0.0042757	5
	59	94	1.266892	356722.3	-535220.2	1	643204.1	-56.31669	-6.227539E-011	0.0042802	5
	60	98	0.999041	408938.8	-615669.6	1	739107.6	-56.40717	2.232506E-010	0.0042171	5
