EXPLAIN
TAG	EISPOT
TITLE	LABEL	Potentiostatic IDE	Test &Identifier
DATE	LABEL	9/10/2019	Date
TIME	LABEL	10:00:43	Time
NOTES	NOTES	1	&Notes...
	
PSTAT	PSTAT	REF600-11020	Potentiostat
VDC	POTEN	0.00000E+000	T	DC &Voltage (V)
FREQINIT	QUANT	1.00000E+006	Initial Fre&q. (Hz)
FREQFINAL	QUANT	1.00000E+000	Final Fre&q. (Hz)
PTSPERDEC	QUANT	1.00000E+001	Points/&decade
VAC	QUANT	2.50000E+001	AC &Voltage (mV rms)
AREA	QUANT	1.00000E-002	&Area (cm^2)
CONDIT	TWOPARAM	T	5.00000E+000	0.00000E+000	Conditionin&g	Time(s)	E(V)
DELAY	TWOPARAM	T	5.00000E+000	0.00000E+000	Init. De&lay	Time(s)	Stab.(mV/s)
SPEED	SELECTOR	1	&Optimize for:
ZGUESS	QUANT	1.00000E+007	E&stimated Z (ohms)
OCVCURVE	TABLE	19
	Pt	T	Vf	Vm	Ach	Over
	#	s	V vs. Ref.	V	V	bits
	0	0.258333	2.73306E-003	2.73306E-003	5.65799E-004	...........
	1	0.516667	2.72567E-003	2.34667E-003	5.68332E-004	...........
	2	0.775	2.68078E-003	2.00325E-003	5.67966E-004	...........
	3	1.03333	2.55544E-003	1.68402E-003	5.69299E-004	...........
	4	1.29167	2.33506E-003	1.38856E-003	5.67766E-004	...........
	5	1.55	2.04831E-003	1.11274E-003	5.64966E-004	...........
	6	1.80833	1.73822E-003	8.49862E-004	5.64832E-004	...........
	7	2.06667	1.43439E-003	6.02448E-004	5.67332E-004	...........
	8	2.325	1.14847E-003	3.68372E-004	5.71132E-004	...........
	9	2.58333	8.81257E-004	1.31582E-004	5.67166E-004	...........
	10	2.84167	6.29458E-004	-8.19105E-005	5.64832E-004	...........
	11	3.1	3.89650E-004	-2.95197E-004	5.62466E-004	...........
	12	3.35833	1.60084E-004	-4.89636E-004	5.64632E-004	...........
	13	3.61667	-5.95887E-005	-6.84023E-004	5.67366E-004	...........
	14	3.875	-2.69736E-004	-8.77951E-004	5.62466E-004	...........
	15	4.13333	-4.71644E-004	-1.05569E-003	5.68399E-004	...........
	16	4.39167	-6.66869E-004	-1.23874E-003	5.68332E-004	...........
	17	4.65	-8.56205E-004	-1.40363E-003	5.69299E-004	...........
	18	4.90833	-1.03950E-003	-1.56304E-003	5.61366E-004	...........
EOC	QUANT	-0.0010395	Open Circuit (V)
PSTATMODEL	IQUANT	4	Pstat Model
PSTATSECTION	LABEL	REF600-11020	Pstat Section
PSTATSERIALNO	LABEL	11020	Pstat Serial Number
CTRLMODE	IQUANT	1	Control Mode
IESTAB	IQUANT	0	I/E Stability
CASPEED	IQUANT	1	Control Amp Speed
CONVENTION	IQUANT	1	Current Convention
ICHRANGE	IQUANT	2	Ich Range
ICHRANGEMODE	TOGGLE	F	Ich Auto Range
ICHOFFSETENABLE	TOGGLE	T	Ich Offset Enable
ICHOFFSET	QUANT	0	Ich Offset (V)
ICHFILTER	IQUANT	3	Ich Filter
VCHRANGE	IQUANT	2	Vch Range
VCHRANGEMODE	TOGGLE	F	Vch Auto Range
VCHOFFSETENABLE	TOGGLE	T	Vch Offset Enable
VCHOFFSET	QUANT	0	Vch Offset (V)
VCHFILTER	IQUANT	3	Vch Filter
ACHRANGE	IQUANT	2	Ach Range
ACHOFFSETENABLE	TOGGLE	F	Ach Offset Enable
ACHOFFSET	QUANT	0	Ach Offset (V)
ACHFILTER	IQUANT	3	Ach Filter
IERANGELOWERLIMIT	IQUANT	1	I/E Range Lower Limit
IERANGEMODE	TOGGLE	F	I/E AutoRange
IERANGE	IQUANT	2	I/E Range
POSFEEDENABLE	TOGGLE	F	Positive Feedback IR Comp
POSFEEDRESISTANCE	QUANT	0	Positive Feedback Resistance (ohm)
ACHSELECT	IQUANT	0	Ach Select
CABLEID	IQUANT	14	Cable ID
DCCALDATE	LABEL	8/19/2019	DC Calibration Date
ACCALDATE	LABEL	8/19/2019	AC Calibration Date
THERMOSELECT	IQUANT	1	Thermo Select
FRAMEWORKVERSION	QUANT	6.33	Framework Version
INSTRUMENTVERSION	LABEL	3.50	Instrument Version
ZCURVE	TABLE
	Pt	Time	Freq	Zreal	Zimag	Zsig	Zmod	Zphz	Idc	Vdc	IERange
	#	s	Hz	ohm	ohm	V	ohm	°	A	V	#
	0	2	1000078	2680.758	-1866.061	1	3266.29	-34.84156	-1.483043E-006	0.0017075	8
	1	3	794390.6	3054.113	-1796.312	1	3543.211	-30.46241	8.060614E-007	0.0010615	8
	2	4	630984.4	3376.42	-1656.764	1	3760.995	-26.13656	3.887776E-006	0.0001596	8
	3	6	501234.4	3661.406	-1481.924	1	3949.936	-22.03524	-1.449209E-006	0.0009268	8
	4	7	398109.4	3883.388	-1300.428	1	4095.341	-18.51413	-4.75843E-007	0.0009174	8
	5	8	316265.6	4043.041	-1123.389	1	4196.21	-15.52834	4.002291E-007	0.0005091	8
	6	10	251203.1	4156.61	-957.219	1	4265.404	-12.96846	-2.498449E-006	0.0011574	8
	7	11	199546.9	4237.636	-830.4213	1	4318.235	-11.08737	7.098195E-008	0.0005464	8
	8	12	158578.1	4320.524	-724.0075	1	4380.766	-9.5129	1.823454E-007	0.0006681	8
	9	14	125953.1	4398.051	-604.9145	1	4439.457	-7.831409	-1.960796E-007	0.0007794	7
	10	15	100078.1	4437.992	-543.9653	1	4471.205	-6.987897	-5.424256E-008	0.0007438	7
	11	16	79453.13	4478.476	-507.4847	1	4507.137	-6.464974	-1.930656E-008	0.0006057	7
	12	18	63140.62	4518.669	-484.4735	1	4544.567	-6.119645	-4.67978E-008	0.0006489	7
	13	19	50203.12	4557.287	-474.556	1	4581.928	-5.944856	6.523153E-008	0.0004375	7
	14	20	39890.62	4593.69	-477.7348	1	4618.465	-5.937305	-5.314239E-008	0.0006325	7
	15	22	31640.63	4635.21	-491.667	1	4661.213	-6.054849	-4.512255E-008	0.0006454	7
	16	23	25171.88	4676.289	-518.672	1	4704.965	-6.329109	-5.342369E-008	0.0007281	7
	17	24	20015.62	4719.715	-557.5033	1	4752.527	-6.73669	-2.946106E-008	0.0006428	7
	18	26	15890.62	4766.486	-613.4695	1	4805.802	-7.333922	-5.549811E-011	0.0005388	7
	19	27	12609.37	4819.021	-682.3168	1	4867.085	-8.058842	-2.283986E-008	0.0005636	7
	20	28	10078.13	4872.715	-768.4104	1	4932.931	-8.961547	2.272943E-009	0.0005372	7
	21	30	8015.625	4932.877	-874.9218	1	5009.867	-10.05769	-2.84953E-008	0.0005701	7
	22	31	6328.125	5004.763	-1010.828	1	5105.822	-11.4186	1.355622E-009	0.0005364	7
	23	32	5015.625	5081.48	-1175.339	1	5215.637	-13.02341	-1.658273E-008	0.0005967	7
	24	34	3984.375	5164.938	-1374.23	1	5344.632	-14.89945	7.079949E-008	0.0005103	7
	25	35	3170.956	5261.589	-1613.747	1	5503.499	-17.05096	-4.781513E-008	0.0007331	7
	26	36	2527.573	5371.784	-1902.802	1	5698.834	-19.50524	-5.220476E-008	0.0006184	7
	27	38	1976.103	5508.694	-2280.876	1	5962.223	-22.49202	5.070825E-010	0.000523	7
	28	39	1577.524	5654.791	-2711.741	1	6271.379	-25.61993	-3.326504E-008	0.0006311	7
	29	40	1265.625	5819.758	-3206.634	1	6644.703	-28.85437	-1.411758E-008	0.0005326	7
	30	42	998.264	6032.261	-3852.326	1	7157.415	-32.56314	-1.733852E-010	0.0005279	7
	31	43	796.875	6264.185	-4603.917	1	7774.063	-36.31435	-1.288099E-008	0.0005373	7
	32	44	627.7902	6559.888	-5558.529	1	8598.22	-40.27631	-1.24827E-008	0.0005307	7
	33	46	505.5147	6874.673	-6618.278	1	9542.68	-43.91139	1.964077E-008	0.0004934	7
	34	47	397.9953	7279.555	-8013.959	1	10826.61	-47.74927	9.76936E-010	0.0005218	6
	35	48	315.5048	7746.439	-9672.97	1	12392.49	-51.31109	1.089443E-009	0.0005212	6
	36	50	252.4038	8275.72	-11605.71	1	14254.13	-54.50836	1.34639E-009	0.0005153	6
	37	51	198.6229	8947.835	-14132.97	1	16727.36	-57.66138	1.073697E-009	0.0005197	6
	38	52	158.3615	9712.5	-17050.01	1	19622.32	-60.33208	1.329749E-009	0.0005162	6
	39	54	125.558	10649.75	-20699	1	23278.01	-62.77392	1.20477E-009	0.0005152	6
	40	55	100.4464	11758.41	-24970.1	1	27600.12	-64.78427	6.184578E-010	0.0005163	6
	41	56	79.00281	13187.67	-30601.19	1	33321.87	-66.68623	5.670769E-010	0.0005135	6
	42	58	63.3446	15092.29	-36806.34	1	39780.45	-67.70412	8.426856E-010	0.0005116	6
	43	59	49.86702	17185.49	-45339.96	1	48487.66	-69.24148	1.166244E-009	0.0005139	6
	44	60	39.72458	20115.46	-54740.98	1	58319.86	-69.82333	1.249458E-009	0.0005205	6
	45	62	31.6723	23810.05	-66315.32	1	70460.2	-70.24968	4.863021E-010	0.0005174	6
	46	63	24.93351	28637.42	-80829.19	1	85752.31	-70.49099	1.185489E-009	0.000515	6
	47	64	19.86229	34618.64	-97411.2	1	103379.9	-70.43547	1.181965E-009	0.0005196	6
	48	66	15.83615	41673.31	-117180.5	1	124370.2	-70.42291	3.683925E-010	0.0005186	5
	49	67	12.40079	53686.52	-142359.3	1	152146	-69.33754	1.550386E-009	0.0005194	5
	50	69	9.93114	65213.08	-168947	1	181096.3	-68.89355	1.101906E-009	0.0005222	5
	51	70	7.944915	80535.41	-200127.4	1	215724.2	-68.07912	1.184769E-009	0.0005201	5
	52	72	6.317385	100946.2	-237983.7	1	258507.9	-67.01466	5.335744E-010	0.0005373	5
	53	74	5.008013	126206	-281493.2	1	308490.5	-65.85117	6.822173E-010	0.0005339	5
	54	76	3.945707	159155.6	-332451.9	1	368584.8	-64.41805	1.853192E-010	0.0005155	5
	55	79	3.158693	196698.2	-385828.4	1	433074.8	-62.98717	4.866113E-010	0.0005291	5
	56	82	2.504006	243780.5	-447381.9	1	509489.5	-61.41382	4.219655E-011	0.0005159	5
	57	85	1.998082	296415	-510158.3	1	590019.8	-59.84231	5.373982E-010	0.0004838	5
	58	88	1.584686	359354.8	-584554.8	1	686177.9	-58.4189	1.666322E-010	0.0004902	5
	59	92	1.266892	428676.1	-658289.4	1	785562.3	-56.92794	3.420631E-010	0.0004762	5
	60	96	0.999041	508537	-747340.2	1	903950.9	-55.76618	2.063273E-010	0.000557	5
