EXPLAIN
TAG	EISPOT
TITLE	LABEL	Potentiostatic IDE	Test &Identifier
DATE	LABEL	9/16/2019	Date
TIME	LABEL	9:39:49	Time
NOTES	NOTES	1	&Notes...
	
PSTAT	PSTAT	REF600-11020	Potentiostat
VDC	POTEN	0.00000E+000	T	DC &Voltage (V)
FREQINIT	QUANT	1.00000E+006	Initial Fre&q. (Hz)
FREQFINAL	QUANT	1.00000E+000	Final Fre&q. (Hz)
PTSPERDEC	QUANT	1.00000E+001	Points/&decade
VAC	QUANT	2.50000E+001	AC &Voltage (mV rms)
AREA	QUANT	1.00000E-002	&Area (cm^2)
CONDIT	TWOPARAM	T	5.00000E+000	0.00000E+000	Conditionin&g	Time(s)	E(V)
DELAY	TWOPARAM	T	5.00000E+000	0.00000E+000	Init. De&lay	Time(s)	Stab.(mV/s)
SPEED	SELECTOR	1	&Optimize for:
ZGUESS	QUANT	1.00000E+007	E&stimated Z (ohms)
OCVCURVE	TABLE	19
	Pt	T	Vf	Vm	Ach	Over
	#	s	V vs. Ref.	V	V	bits
	0	0.258333	-1.53554E-003	-1.53554E-003	5.76666E-004	...........
	1	0.516667	-1.55048E-003	-2.31746E-003	5.78199E-004	...........
	2	0.775	-1.64136E-003	-3.01409E-003	5.78865E-004	...........
	3	1.03333	-1.89475E-003	-3.63778E-003	5.77599E-004	...........
	4	1.29167	-2.33830E-003	-4.20600E-003	5.79899E-004	...........
	5	1.55	-2.91036E-003	-4.72090E-003	5.79432E-004	...........
	6	1.80833	-3.52000E-003	-5.18943E-003	5.78332E-004	...........
	7	2.06667	-4.10479E-003	-5.62774E-003	5.77899E-004	...........
	8	2.325	-4.64094E-003	-6.05062E-003	5.80599E-004	...........
	9	2.58333	-5.12942E-003	-6.44658E-003	5.82899E-004	...........
	10	2.84167	-5.58021E-003	-6.82165E-003	5.81299E-004	...........
	11	3.1	-6.00226E-003	-7.17644E-003	5.80932E-004	...........
	12	3.35833	-6.40049E-003	-7.50316E-003	5.82999E-004	...........
	13	3.61667	-6.77649E-003	-7.81137E-003	5.80299E-004	...........
	14	3.875	-7.13029E-003	-8.09657E-003	5.79199E-004	...........
	15	4.13333	-7.46191E-003	-8.37044E-003	5.79299E-004	...........
	16	4.39167	-7.77258E-003	-8.63716E-003	5.86265E-004	...........
	17	4.65	-8.06521E-003	-8.89588E-003	5.83232E-004	...........
	18	4.90833	-8.34366E-003	-9.14603E-003	5.80499E-004	...........
EOC	QUANT	-0.0083437	Open Circuit (V)
PSTATMODEL	IQUANT	4	Pstat Model
PSTATSECTION	LABEL	REF600-11020	Pstat Section
PSTATSERIALNO	LABEL	11020	Pstat Serial Number
CTRLMODE	IQUANT	1	Control Mode
IESTAB	IQUANT	0	I/E Stability
CASPEED	IQUANT	1	Control Amp Speed
CONVENTION	IQUANT	1	Current Convention
ICHRANGE	IQUANT	2	Ich Range
ICHRANGEMODE	TOGGLE	F	Ich Auto Range
ICHOFFSETENABLE	TOGGLE	T	Ich Offset Enable
ICHOFFSET	QUANT	0	Ich Offset (V)
ICHFILTER	IQUANT	3	Ich Filter
VCHRANGE	IQUANT	2	Vch Range
VCHRANGEMODE	TOGGLE	F	Vch Auto Range
VCHOFFSETENABLE	TOGGLE	T	Vch Offset Enable
VCHOFFSET	QUANT	0	Vch Offset (V)
VCHFILTER	IQUANT	3	Vch Filter
ACHRANGE	IQUANT	2	Ach Range
ACHOFFSETENABLE	TOGGLE	F	Ach Offset Enable
ACHOFFSET	QUANT	0	Ach Offset (V)
ACHFILTER	IQUANT	3	Ach Filter
IERANGELOWERLIMIT	IQUANT	1	I/E Range Lower Limit
IERANGEMODE	TOGGLE	F	I/E AutoRange
IERANGE	IQUANT	3	I/E Range
POSFEEDENABLE	TOGGLE	F	Positive Feedback IR Comp
POSFEEDRESISTANCE	QUANT	0	Positive Feedback Resistance (ohm)
ACHSELECT	IQUANT	0	Ach Select
CABLEID	IQUANT	14	Cable ID
DCCALDATE	LABEL	8/19/2019	DC Calibration Date
ACCALDATE	LABEL	8/19/2019	AC Calibration Date
THERMOSELECT	IQUANT	1	Thermo Select
FRAMEWORKVERSION	QUANT	6.33	Framework Version
INSTRUMENTVERSION	LABEL	3.50	Instrument Version
ZCURVE	TABLE
	Pt	Time	Freq	Zreal	Zimag	Zsig	Zmod	Zphz	Idc	Vdc	IERange
	#	s	Hz	ohm	ohm	V	ohm	°	A	V	#
	0	2	1000078	2247.416	-1377.469	1	2635.963	-31.50465	-1.007992E-006	-0.0056718	8
	1	3	794390.6	2500.975	-1290.51	1	2814.302	-27.29387	6.336779E-007	-0.0063483	8
	2	4	630984.4	2729.683	-1185.101	1	2975.842	-23.46824	6.095665E-006	-0.0075487	8
	3	6	501234.4	2906.558	-1074.004	1	3098.639	-20.27981	1.259406E-006	-0.0070658	8
	4	7	398109.4	3056.671	-941.574	1	3198.406	-17.12088	-7.337021E-007	-0.006225	8
	5	9	316265.6	3166.102	-836.9901	1	3274.867	-14.80795	-3.619276E-006	-0.0058586	8
	6	10	251203.1	3261.009	-743.799	1	3344.759	-12.84871	-3.559374E-006	-0.0058621	8
	7	11	199546.9	3345.605	-660.3484	1	3410.152	-11.1654	-6.407213E-007	-0.0064947	8
	8	13	158578.1	3395.47	-613.3815	1	3450.428	-10.23987	-1.045141E-006	-0.0063287	8
	9	14	125953.1	3474.604	-500.0751	1	3510.406	-8.189936	-9.641145E-007	-0.0040177	7
	10	15	100078.1	3513.624	-485.8061	1	3547.049	-7.872009	7.766916E-008	-0.0067112	7
	11	17	79453.13	3558.064	-475.0154	1	3589.633	-7.604244	-2.968383E-009	-0.0067419	7
	12	18	63140.62	3602.336	-476.4976	1	3633.714	-7.535035	4.980132E-008	-0.0068403	7
	13	19	50203.12	3648.185	-485.3913	1	3680.334	-7.578697	7.966943E-008	-0.0067197	7
	14	21	39890.62	3696.578	-505.7229	1	3731.011	-7.790181	9.451055E-008	-0.0068785	7
	15	22	31640.63	3746.961	-536.293	1	3785.146	-8.14528	8.088836E-008	-0.0068385	7
	16	23	25171.88	3800.797	-576.3705	1	3844.25	-8.622901	-5.83124E-009	-0.0066634	7
	17	25	20015.62	3860.734	-628.3348	1	3911.53	-9.243848	-5.549957E-009	-0.0066666	7
	18	26	15890.62	3928.586	-692.3133	1	3989.121	-9.99431	-1.926749E-008	-0.006547	7
	19	28	12609.37	4001.415	-768.2628	1	4074.5	-10.8684	-2.252664E-009	-0.0067591	7
	20	29	10078.13	4081.749	-855.7636	1	4170.493	-11.84091	2.451503E-008	-0.0067891	7
	21	30	8015.625	4174.503	-960.601	1	4283.601	-12.95883	1.452753E-007	-0.0069145	7
	22	32	6328.125	4280.624	-1085.811	1	4416.189	-14.23328	1.776015E-009	-0.0067652	7
	23	33	5015.625	4398.664	-1232.183	1	4567.989	-15.64898	-5.180942E-008	-0.0065877	7
	24	34	3984.375	4532.309	-1398.305	1	4743.108	-17.14601	4.979662E-008	-0.0068574	7
	25	36	3170.956	4682.487	-1590.608	1	4945.272	-18.76226	-1.873303E-008	-0.0067238	7
	26	37	2527.573	4853.548	-1808.316	1	5179.473	-20.43419	9.504967E-008	-0.0068903	7
	27	38	1976.103	5066.491	-2082.402	1	5477.749	-22.34338	8.455605E-008	-0.0068342	7
	28	40	1577.524	5287.671	-2371.165	1	5794.989	-24.15303	9.502466E-008	-0.0068918	7
	29	41	1265.625	5539.897	-2679.198	1	6153.744	-25.80928	-2.916798E-009	-0.0066755	7
	30	42	998.264	5838.543	-3067.49	1	6595.308	-27.71681	8.398756E-008	-0.0068328	7
	31	44	796.875	6151.586	-3476.483	1	7065.971	-29.47235	8.334195E-008	-0.0067314	7
	32	45	627.7902	6499.645	-3962.757	1	7612.413	-31.37017	-4.500414E-008	-0.0065553	7
	33	46	505.5147	6831.398	-4472.027	1	8164.988	-33.2099	-1.526412E-008	-0.006714	7
	34	47	397.9953	7190.343	-5146.69	1	8842.48	-35.59426	7.393398E-009	-0.0066858	7
	35	49	315.5048	7532.328	-5949.592	1	9598.63	-38.3043	1.815919E-009	-0.0067466	6
	36	50	252.4038	7850.911	-6916.219	1	10462.83	-41.37827	1.389699E-009	-0.0067497	6
	37	51	198.6229	8192.55	-8230.914	1	11613.17	-45.13384	8.597647E-010	-0.0067451	6
	38	53	158.3615	8526.174	-9809.04	1	12996.65	-49.00232	1.136635E-009	-0.006749	6
	39	54	125.558	8905.414	-11844.55	1	14818.9	-53.06205	1.354106E-009	-0.0067495	6
	40	55	100.4464	9334.975	-14294.39	1	17072.53	-56.85339	1.425529E-009	-0.0067501	6
	41	57	79.00281	9845.39	-17573.24	1	20143.25	-60.74031	1.30549E-009	-0.0067514	6
	42	58	63.3446	10596.7	-21465.33	1	23938.47	-63.72601	3.75463E-010	-0.0067523	6
	43	60	49.86702	11218.33	-26399.61	1	28684.32	-66.97728	8.036977E-010	-0.006751	6
	44	61	39.72458	12318.48	-32456.51	1	34715.56	-69.21634	1.270164E-009	-0.0067488	6
	45	62	31.6723	13615.36	-39895.56	1	42154.88	-71.1565	3.965578E-010	-0.0067546	6
	46	64	24.93351	15365.45	-49418.45	1	51752.1	-72.72821	1.127097E-009	-0.0067555	6
	47	65	19.86229	17538.48	-60626.32	1	63112.2	-73.86546	6.232075E-010	-0.0067495	6
	48	66	15.83615	20496.78	-74051.91	1	76836.22	-74.52848	2.905622E-010	-0.0067541	6
	49	68	12.40079	24321.14	-92233.74	1	95386.5	-75.22791	1.080821E-009	-0.0067554	6
	50	69	9.93114	29328.81	-112116.3	1	115889	-75.34034	2.696265E-010	-0.006741	5
	51	71	7.944915	35314.52	-136119.7	1	140626	-75.45599	9.174273E-010	-0.0067484	5
	52	72	6.317385	43465.48	-166320	1	171905.8	-75.35408	6.614861E-010	-0.0067595	5
	53	74	5.008013	54383.73	-203167.3	1	210320.1	-75.01442	3.243196E-010	-0.0067527	5
	54	77	3.945707	68651.59	-248691	1	257992.8	-74.56774	3.20142E-010	-0.0067456	5
	55	79	3.158693	85667.09	-299469	1	311481.2	-74.03612	2.036277E-010	-0.0067621	5
	56	83	2.504006	108629.7	-362687.5	1	378606.2	-73.32635	5.45492E-010	-0.0067452	5
	57	85	1.998082	136599.7	-434978.5	1	455923	-72.56573	3.560246E-010	-0.0067091	5
	58	88	1.584686	172860.9	-522575.8	1	550423.8	-71.69649	3.523279E-010	-0.0067344	5
	59	92	1.266892	219039.3	-622762.1	1	660159.8	-70.62209	2.48454E-010	-0.0067099	5
	60	96	0.999041	277804.8	-745166.3	1	795266.2	-69.55408	3.438401E-010	-0.0067703	5
