EXPLAIN
TAG	EISPOT
TITLE	LABEL	Potentiostatic EIS	Test &Identifier
DATE	LABEL	10/12/2019	Date
TIME	LABEL	9:05:48	Time
NOTES	NOTES	1	&Notes...
	
PSTAT	PSTAT	REF600-11020	Potentiostat
VDC	POTEN	0.00000E+000	T	DC &Voltage (V)
FREQINIT	QUANT	1.00000E+006	Initial Fre&q. (Hz)
FREQFINAL	QUANT	1.00000E+000	Final Fre&q. (Hz)
PTSPERDEC	QUANT	1.00000E+001	Points/&decade
VAC	QUANT	2.50000E+001	AC &Voltage (mV rms)
AREA	QUANT	1.00000E-002	&Area (cm^2)
CONDIT	TWOPARAM	T	5.00000E+000	0.00000E+000	Conditionin&g	Time(s)	E(V)
DELAY	TWOPARAM	T	5.00000E+000	0.00000E+000	Init. De&lay	Time(s)	Stab.(mV/s)
SPEED	SELECTOR	1	&Optimize for:
ZGUESS	QUANT	1.00000E+004	E&stimated Z (ohms)
OCVCURVE	TABLE	19
	Pt	T	Vf	Vm	Ach	Over
	#	s	V vs. Ref.	V	V	bits
	0	0.258333	5.22621E-003	5.22621E-003	5.51766E-004	...........
	1	0.516667	5.22466E-003	5.14471E-003	5.54399E-004	...........
	2	0.775	5.21586E-003	5.10742E-003	5.50566E-004	...........
	3	1.03333	5.19418E-003	5.10705E-003	5.47033E-004	...........
	4	1.29167	5.16297E-003	5.09088E-003	5.48766E-004	...........
	5	1.55	5.13207E-003	5.05751E-003	5.48366E-004	...........
	6	1.80833	5.10729E-003	5.08196E-003	5.48399E-004	...........
	7	2.06667	5.08968E-003	5.08269E-003	5.48099E-004	...........
	8	2.325	5.07984E-003	5.06947E-003	5.53666E-004	...........
	9	2.58333	5.07659E-003	5.09031E-003	5.51499E-004	...........
	10	2.84167	5.07748E-003	5.10618E-003	5.48333E-004	...........
	11	3.1	5.08206E-003	5.11420E-003	5.49933E-004	...........
	12	3.35833	5.09084E-003	5.13915E-003	5.49633E-004	...........
	13	3.61667	5.10320E-003	5.15126E-003	5.46799E-004	...........
	14	3.875	5.11805E-003	5.16915E-003	5.50366E-004	...........
	15	4.13333	5.13435E-003	5.19014E-003	5.48033E-004	...........
	16	4.39167	5.15157E-003	5.21271E-003	5.51633E-004	...........
	17	4.65	5.16991E-003	5.23215E-003	5.50899E-004	...........
	18	4.90833	5.18955E-003	5.25462E-003	5.53032E-004	...........
EOC	QUANT	0.0051895	Open Circuit (V)
PSTATMODEL	IQUANT	4	Pstat Model
PSTATSECTION	LABEL	REF600-11020	Pstat Section
PSTATSERIALNO	LABEL	11020	Pstat Serial Number
CTRLMODE	IQUANT	1	Control Mode
IESTAB	IQUANT	0	I/E Stability
CASPEED	IQUANT	1	Control Amp Speed
CONVENTION	IQUANT	1	Current Convention
ICHRANGE	IQUANT	2	Ich Range
ICHRANGEMODE	TOGGLE	F	Ich Auto Range
ICHOFFSETENABLE	TOGGLE	T	Ich Offset Enable
ICHOFFSET	QUANT	0	Ich Offset (V)
ICHFILTER	IQUANT	3	Ich Filter
VCHRANGE	IQUANT	2	Vch Range
VCHRANGEMODE	TOGGLE	F	Vch Auto Range
VCHOFFSETENABLE	TOGGLE	T	Vch Offset Enable
VCHOFFSET	QUANT	0	Vch Offset (V)
VCHFILTER	IQUANT	3	Vch Filter
ACHRANGE	IQUANT	2	Ach Range
ACHOFFSETENABLE	TOGGLE	F	Ach Offset Enable
ACHOFFSET	QUANT	0	Ach Offset (V)
ACHFILTER	IQUANT	3	Ach Filter
IERANGELOWERLIMIT	IQUANT	1	I/E Range Lower Limit
IERANGEMODE	TOGGLE	F	I/E AutoRange
IERANGE	IQUANT	5	I/E Range
POSFEEDENABLE	TOGGLE	F	Positive Feedback IR Comp
POSFEEDRESISTANCE	QUANT	0	Positive Feedback Resistance (ohm)
ACHSELECT	IQUANT	0	Ach Select
CABLEID	IQUANT	14	Cable ID
DCCALDATE	LABEL	8/19/2019	DC Calibration Date
ACCALDATE	LABEL	8/19/2019	AC Calibration Date
THERMOSELECT	IQUANT	1	Thermo Select
FRAMEWORKVERSION	QUANT	6.33	Framework Version
INSTRUMENTVERSION	LABEL	3.50	Instrument Version
ZCURVE	TABLE
	Pt	Time	Freq	Zreal	Zimag	Zsig	Zmod	Zphz	Idc	Vdc	IERange
	#	s	Hz	ohm	ohm	V	ohm	°	A	V	#
	0	1	1000078	1411.383	-2245.781	1	2652.458	-57.85228	1.271591E-006	0.0075036	8
	1	3	794390.6	1591.656	-2627.271	1	3071.794	-58.79163	-4.697814E-006	0.0080902	8
	2	4	630984.4	1794.058	-3125.67	1	3603.95	-60.14524	-1.500745E-006	0.007742	8
	3	6	501234.4	2056.56	-3711.385	1	4243.091	-61.00821	-8.355481E-007	0.0068987	8
	4	7	398109.4	2383.288	-4409.975	1	5012.778	-61.61183	5.310527E-006	0.0057421	8
	5	9	316265.6	2808.176	-5239.012	1	5944.165	-61.80814	2.211167E-007	0.0068547	8
	6	10	251203.1	3366.931	-6230.892	1	7082.39	-61.61494	5.097581E-006	0.0057573	8
	7	12	199546.9	4074.935	-7332.02	1	8388.302	-60.9359	-1.931617E-006	0.0072712	8
	8	14	158578.1	4946.25	-8536.628	1	9866.07	-59.91135	4.863049E-006	0.0057682	8
	9	16	125953.1	6232.184	-10054.33	1	11829.18	-58.20726	5.282876E-007	0.0058351	7
	10	17	100078.1	7704.83	-11448.02	1	13799.33	-56.05837	-1.772368E-008	0.0067661	7
	11	19	79453.13	9484.538	-13107.72	1	16179.27	-54.11109	1.350585E-007	0.0066114	7
	12	21	63140.62	11675.8	-14692.97	1	18767.2	-51.52752	-1.211752E-008	0.0067881	7
	13	22	50203.12	14290.97	-16244.99	1	21636.35	-48.66141	-2.367542E-008	0.006859	7
	14	24	39890.62	17361.66	-17563.89	1	24696.51	-45.33176	-6.573615E-008	0.0070305	7
	15	25	31640.63	20852.03	-18488.68	1	27868.23	-41.56216	5.917276E-008	0.006721	7
	16	27	25171.88	24419.31	-18856.2	1	30852.21	-37.67475	-5.415715E-008	0.0068528	7
	17	28	20015.62	27788.98	-18636.76	1	33459.77	-33.8479	-1.603781E-008	0.0067513	7
	18	30	15890.62	31557.96	-18196.69	1	36428.34	-29.96825	-7.57794E-008	0.0069376	7
	19	31	12609.37	34959.69	-16945.61	1	38850.14	-25.86033	2.951768E-009	0.0065474	6
	20	33	10078.13	37617.72	-15937.82	1	40854.7	-22.96132	6.23601E-009	0.0065738	6
	21	34	8015.625	39878.02	-14848.58	1	42552.76	-20.42281	-3.937628E-009	0.0069191	6
	22	36	6328.125	41918.07	-13740.17	1	44112.55	-18.14844	5.442629E-009	0.0067281	6
	23	37	5015.625	43651.41	-12776.92	1	45482.91	-16.31494	3.079045E-009	0.0066044	6
	24	39	3984.375	45026.85	-11581.93	1	46492.56	-14.42506	6.058327E-009	0.0067303	6
	25	41	3170.956	46511.45	-11410.08	1	47890.55	-13.78346	-6.651728E-009	0.0068024	6
	26	42	2527.573	47646.01	-11029.11	1	48905.87	-13.03329	-1.638748E-009	0.0067207	6
	27	43	1976.103	48848.78	-10855.4	1	50040.41	-12.52894	2.051657E-008	0.0064477	6
	28	45	1577.524	49392.19	-10494.84	1	50494.85	-11.99579	2.687428E-009	0.0068684	6
	29	46	1265.625	50984.04	-11156.03	1	52190.32	-12.3426	-5.017931E-009	0.0069147	6
	30	48	998.264	52106.8	-11702.1	1	53404.66	-12.65743	1.49311E-008	0.0066313	6
	31	49	796.875	53121.18	-12381.56	1	54545.05	-13.12034	1.745039E-008	0.0064143	6
	32	50	627.7902	54281.39	-13580.81	1	55954.52	-14.04664	-1.176154E-008	0.0068743	6
	33	52	505.5147	55347.5	-14843.82	1	57303.44	-15.01304	1.86044E-009	0.0068306	6
	34	53	397.9953	56687.34	-16708.11	1	59098.36	-16.42243	1.07313E-009	0.0067428	6
	35	55	315.5048	58089.19	-18994.12	1	61115.72	-18.10682	6.643799E-010	0.0067497	6
	36	56	252.4038	59655.44	-21719.47	1	63486.27	-20.00565	1.033666E-009	0.0067411	6
	37	58	198.6229	61603.29	-25325.07	1	66605.73	-22.34753	2.913223E-010	0.0067427	6
	38	59	158.3615	63791.61	-29477.46	1	70272.97	-24.80119	-2.723972E-009	0.0067403	6
	39	60	125.558	66508.8	-34441.75	1	74897.63	-27.37749	9.874576E-010	0.0067409	6
	40	62	100.4464	69334.73	-40198.29	1	80144.91	-30.10392	-2.650899E-011	0.0067433	6
	41	63	79.00281	74048.63	-47524.54	1	87987.39	-32.69242	1.12994E-009	0.0067347	6
	42	64	63.3446	79661.05	-53360.65	1	95881.4	-33.816	5.427928E-010	0.0067415	5
	43	66	49.86702	83662.73	-66304.45	1	106750.8	-38.39755	6.894222E-010	0.0067376	5
	44	67	39.72458	90371.15	-75711.37	1	117894.7	-39.95568	-2.035993E-010	0.00674	5
	45	69	31.6723	97684.7	-87950.38	1	131444.2	-41.99826	6.307013E-010	0.0067349	5
	46	70	24.93351	108192.4	-102380.9	1	148954.5	-43.41913	-2.536488E-010	0.0067347	5
	47	72	19.86229	118972.8	-118199.8	1	167707.2	-44.81326	8.365703E-010	0.0067403	5
	48	73	15.83615	133041.5	-135641.4	1	189996.4	-45.55441	5.323801E-010	0.0067391	5
	49	74	12.40079	150596	-158891.6	1	218919.4	-46.53539	-8.778552E-010	0.0067437	5
	50	76	9.93114	165645	-180281.3	1	244825.7	-47.42275	-2.538084E-010	0.0067393	5
	51	77	7.944915	187148	-206310.2	1	278546.7	-47.78822	8.129065E-011	0.0067415	5
	52	79	6.317385	208829	-234129.1	1	313729.2	-48.26896	2.298744E-010	0.0067546	5
	53	81	5.008013	234984.3	-267819.2	1	356293.1	-48.73631	8.664649E-011	0.0067412	5
	54	84	3.945707	264102.2	-307290.4	1	405188	-49.32244	2.934659E-010	0.0067486	5
	55	86	3.158693	295453.2	-349966.7	1	458005.8	-49.82787	-1.799149E-010	0.0067281	5
	56	90	2.504006	332041.8	-402215.5	1	521564.1	-50.45923	2.713054E-010	0.0067443	5
	57	92	1.998082	372346.6	-460440.1	1	592154.6	-51.03838	1.495533E-010	0.0067712	5
	58	96	1.584686	418926.8	-529120	1	674883.4	-51.62984	9.894878E-011	0.0067101	5
	59	99	1.266892	471051.9	-609518.9	1	770326.8	-52.30223	1.253413E-010	0.0067669	5
	60	103	0.999041	536574.8	-707120	1	887654.9	-52.80815	-1.710462E-010	0.0067008	5
