EXPLAIN
TAG	EISPOT
TITLE	LABEL	Potentiostatic EIS	Test &Identifier
DATE	LABEL	11/20/2019	Date
TIME	LABEL	12:31:50	Time
NOTES	NOTES	4	&Notes...
	
	
	
	
PSTAT	PSTAT	REF600-11020	Potentiostat
VDC	POTEN	0.00000E+000	T	DC &Voltage (V)
FREQINIT	QUANT	1.00000E+006	Initial Fre&q. (Hz)
FREQFINAL	QUANT	1.00000E+000	Final Fre&q. (Hz)
PTSPERDEC	QUANT	1.00000E+001	Points/&decade
VAC	QUANT	2.50000E+001	AC &Voltage (mV rms)
AREA	QUANT	1.00000E-002	&Area (cm^2)
CONDIT	TWOPARAM	T	5.00000E+000	0.00000E+000	Conditionin&g	Time(s)	E(V)
DELAY	TWOPARAM	T	5.00000E+000	0.00000E+000	Init. De&lay	Time(s)	Stab.(mV/s)
SPEED	SELECTOR	1	&Optimize for:
ZGUESS	QUANT	1.00000E+005	E&stimated Z (ohms)
OCVCURVE	TABLE	19
	Pt	T	Vf	Vm	Ach	Over
	#	s	V vs. Ref.	V	V	bits
	0	0.258333	1.99992E-003	1.99992E-003	5.42166E-004	...........
	1	0.516667	1.99195E-003	1.58262E-003	5.36399E-004	...........
	2	0.775	1.94355E-003	1.21646E-003	5.40233E-004	...........
	3	1.03333	1.80848E-003	8.62842E-004	5.47599E-004	...........
	4	1.29167	1.57069E-003	5.46087E-004	5.48166E-004	...........
	5	1.55	1.26048E-003	2.42216E-004	5.46466E-004	...........
	6	1.80833	9.24150E-004	-3.89192E-005	5.43099E-004	...........
	7	2.06667	5.94303E-004	-3.01695E-004	5.39699E-004	...........
	8	2.325	2.84621E-004	-5.51037E-004	5.38766E-004	...........
	9	2.58333	-2.86049E-006	-7.84215E-004	5.37633E-004	...........
	10	2.84167	-2.70608E-004	-1.01231E-003	5.37499E-004	...........
	11	3.1	-5.22079E-004	-1.23002E-003	5.42766E-004	...........
	12	3.35833	-7.60413E-004	-1.43415E-003	5.36799E-004	...........
	13	3.61667	-9.87564E-004	-1.62675E-003	5.39433E-004	...........
	14	3.875	-1.20412E-003	-1.81620E-003	5.35066E-004	...........
	15	4.13333	-1.41039E-003	-1.99527E-003	5.48166E-004	...........
	16	4.39167	-1.60728E-003	-2.17251E-003	5.39666E-004	...........
	17	4.65	-1.79609E-003	-2.33892E-003	5.39199E-004	...........
	18	4.90833	-1.97787E-003	-2.50383E-003	5.38466E-004	...........
EOC	QUANT	-0.0019779	Open Circuit (V)
PSTATMODEL	IQUANT	4	Pstat Model
PSTATSECTION	LABEL	REF600-11020	Pstat Section
PSTATSERIALNO	LABEL	11020	Pstat Serial Number
CTRLMODE	IQUANT	1	Control Mode
IESTAB	IQUANT	0	I/E Stability
CASPEED	IQUANT	1	Control Amp Speed
CONVENTION	IQUANT	1	Current Convention
ICHRANGE	IQUANT	2	Ich Range
ICHRANGEMODE	TOGGLE	F	Ich Auto Range
ICHOFFSETENABLE	TOGGLE	T	Ich Offset Enable
ICHOFFSET	QUANT	0	Ich Offset (V)
ICHFILTER	IQUANT	3	Ich Filter
VCHRANGE	IQUANT	2	Vch Range
VCHRANGEMODE	TOGGLE	F	Vch Auto Range
VCHOFFSETENABLE	TOGGLE	T	Vch Offset Enable
VCHOFFSET	QUANT	0	Vch Offset (V)
VCHFILTER	IQUANT	3	Vch Filter
ACHRANGE	IQUANT	2	Ach Range
ACHOFFSETENABLE	TOGGLE	F	Ach Offset Enable
ACHOFFSET	QUANT	0	Ach Offset (V)
ACHFILTER	IQUANT	3	Ach Filter
IERANGELOWERLIMIT	IQUANT	1	I/E Range Lower Limit
IERANGEMODE	TOGGLE	F	I/E AutoRange
IERANGE	IQUANT	4	I/E Range
POSFEEDENABLE	TOGGLE	F	Positive Feedback IR Comp
POSFEEDRESISTANCE	QUANT	0	Positive Feedback Resistance (ohm)
ACHSELECT	IQUANT	0	Ach Select
CABLEID	IQUANT	14	Cable ID
DCCALDATE	LABEL	8/19/2019	DC Calibration Date
ACCALDATE	LABEL	8/19/2019	AC Calibration Date
THERMOSELECT	IQUANT	1	Thermo Select
FRAMEWORKVERSION	QUANT	6.33	Framework Version
INSTRUMENTVERSION	LABEL	3.50	Instrument Version
ZCURVE	TABLE
	Pt	Time	Freq	Zreal	Zimag	Zsig	Zmod	Zphz	Idc	Vdc	IERange
	#	s	Hz	ohm	ohm	V	ohm	°	A	V	#
	0	1	1000078	1840.594	-1129.262	1	2159.402	-31.53043	8.014164E-006	-0.0007983	8
	1	3	794390.6	2044.172	-1113.653	1	2327.845	-28.5813	5.379248E-006	-0.0010554	8
	2	4	630984.4	2237.833	-1080.027	1	2484.825	-25.76297	-1.946051E-006	-0.0005941	8
	3	6	501234.4	2417.158	-1029.293	1	2627.184	-23.06566	-5.691235E-007	5.933252E-005	8
	4	7	398109.4	2579.886	-978.728	1	2759.297	-20.77517	1.862034E-006	-0.0001641	8
	5	8	316265.6	2712.099	-910.2457	1	2860.774	-18.55299	6.315055E-006	-0.001172	8
	6	10	251203.1	2832.752	-850.126	1	2957.566	-16.70482	5.156613E-006	-0.001488	8
	7	11	199546.9	2946.909	-804.1941	1	3054.668	-15.26402	-2.071753E-006	-0.0003123	8
	8	12	158578.1	3043.559	-760.5648	1	3137.15	-14.03049	-1.372007E-006	-0.0006682	8
	9	14	125953.1	3156.13	-700.4562	1	3232.924	-12.51313	2.493389E-006	-0.0021431	7
	10	15	100078.1	3219.027	-679.3656	1	3289.935	-11.91722	3.676774E-007	-8.84915E-005	7
	11	16	79453.13	3299.027	-680.8385	1	3368.549	-11.66074	9.52268E-007	-0.0015328	7
	12	18	63140.62	3370.125	-689.5332	1	3439.941	-11.56322	-7.550537E-007	0.0009405	7
	13	19	50203.12	3449.122	-708.5977	1	3521.158	-11.60948	-7.540708E-007	0.0009327	7
	14	20	39890.62	3541.151	-736.3467	1	3616.898	-11.74669	5.631541E-007	-0.0003944	7
	15	22	31640.63	3624.788	-772.7927	1	3706.251	-12.03508	-9.362284E-007	0.0009058	7
	16	23	25171.88	3726.244	-822.3027	1	3815.898	-12.4445	7.461275E-007	-0.0007652	7
	17	25	20015.62	3837.891	-876.1699	1	3936.633	-12.85993	8.319517E-007	-0.0019895	7
	18	26	15890.62	3933.418	-935.3901	1	4043.109	-13.37681	-7.547443E-007	0.0009354	7
	19	27	12609.37	4052.227	-1003.077	1	4174.531	-13.90336	-1.060742E-006	0.0007644	7
	20	29	10078.13	4175.67	-1079.58	1	4312.971	-14.49586	-7.529003E-007	0.000935	7
	21	30	8015.625	4311.732	-1167.543	1	4467.012	-15.15137	-3.003918E-007	-0.0012084	7
	22	31	6328.125	4452.991	-1274.393	1	4631.761	-15.97049	-2.166147E-007	0.0006194	7
	23	33	5015.625	4587.72	-1394.609	1	4795.009	-16.90862	-1.062092E-006	0.0004594	7
	24	34	3984.375	4740.196	-1538.824	1	4983.717	-17.98515	-1.062733E-006	0.0007607	7
	25	35	3170.956	4895.394	-1697.075	1	5181.211	-19.11978	-9.359487E-007	0.000898	7
	26	37	2527.573	5071.208	-1900.9	1	5415.771	-20.54809	6.438275E-007	-0.0020413	7
	27	38	1976.103	5256.299	-2160.469	1	5682.984	-22.34388	8.944836E-007	-0.0011934	7
	28	40	1577.524	5484.848	-2439.947	1	6003.074	-23.982	9.593456E-007	-0.0015482	7
	29	41	1265.625	5631.151	-2774.807	1	6277.692	-26.23224	9.598613E-007	-0.0015471	7
	30	42	998.264	5831.626	-3200.253	1	6652.028	-28.7569	7.023621E-008	-0.0016714	7
	31	44	796.875	6036.457	-3711.455	1	7086.163	-31.58486	-2.182274E-007	0.000618	7
	32	46	627.7902	6260.955	-4381.833	1	7641.99	-34.98689	-9.384009E-007	0.0008874	7
	33	47	505.5147	6483.282	-5148.433	1	8278.847	-38.4534	3.774205E-007	-0.0001169	7
	34	48	397.9953	6773.159	-6187.306	1	9173.791	-42.41181	2.919164E-009	-0.0004967	7
	35	50	315.5048	7092.926	-7448.63	1	10285.51	-46.40125	7.878084E-012	-0.0005576	6
	36	51	252.4038	7456.203	-8947.564	1	11647.05	-50.19481	4.372496E-010	-0.0005606	6
	37	53	198.6229	7937.699	-10934.52	1	13511.87	-54.02296	3.445087E-010	-0.0005613	6
	38	54	158.3615	8513.848	-13240.51	1	15741.56	-57.25838	8.692005E-010	-0.000572	6
	39	55	125.558	9241.864	-16138.5	1	18597.39	-60.20198	7.970998E-010	-0.0005727	6
	40	57	100.4464	10130.94	-19522.96	1	21995.04	-62.5741	6.046477E-010	-0.0005667	6
	41	58	79.00281	11395.25	-23864.96	1	26445.95	-64.47605	8.840516E-010	-0.0005653	6
	42	59	63.3446	13157.13	-28768.12	1	31634.08	-65.42296	1.186166E-009	-0.0005724	6
	43	61	49.86702	14788.95	-35419.88	1	38383.35	-67.33788	1.493628E-009	-0.0005689	6
	44	62	39.72458	17324.4	-42515.32	1	45909.55	-67.82979	1.284811E-009	-0.0005609	6
	45	64	31.6723	20303.35	-51090.06	1	54976.54	-68.32697	1.261957E-009	-0.000571	6
	46	65	24.93351	24516.58	-61974.62	1	66647.7	-68.41671	1.112096E-009	-0.000573	6
	47	67	19.86229	29252.4	-74169.52	1	79729.68	-68.47576	2.290314E-010	-0.0005711	6
	48	68	15.83615	34810.95	-88975.66	1	95543	-68.63251	2.159903E-009	-0.0005671	6
	49	69	12.40079	44172.72	-106342	1	115151.4	-67.4428	-8.705048E-010	-0.0005601	5
	50	71	9.93114	52521.91	-126402	1	136879.6	-67.43639	3.791862E-010	-0.0005577	5
	51	72	7.944915	63897.95	-149084.8	1	162201.2	-66.79996	6.378116E-010	-0.0005535	5
	52	74	6.317385	76935.13	-176341.4	1	192393.6	-66.42908	-6.801074E-011	-0.0005572	5
	53	76	5.008013	93656.45	-208477.8	1	228548.7	-65.80849	1.887199E-011	-0.0005693	5
	54	79	3.945707	114133.5	-246802	1	271914.8	-65.18183	3.272882E-010	-0.0005572	5
	55	81	3.158693	137252.8	-288748.5	1	319709.3	-64.57653	1.948627E-010	-0.0005768	5
	56	85	2.504006	165685.7	-339135.6	1	377445	-63.96204	1.096161E-010	-0.0005586	5
	57	87	1.998082	198297.8	-394733.2	1	441742.3	-63.32692	3.705178E-010	-0.0006041	5
	58	91	1.584686	237504	-462207.4	1	519657.4	-62.80376	7.598579E-011	-0.0005948	5
	59	94	1.266892	283134.3	-534933.8	1	605243.1	-62.10825	2.22155E-010	-0.0006112	5
	60	98	0.999041	338400.4	-624730.5	1	710494.9	-61.55674	1.68231E-010	-0.0005269	5
