EXPLAIN
TAG	EISPOT
TITLE	LABEL	Potentiostatic EIS	Test &Identifier
DATE	LABEL	10/28/2019	Date
TIME	LABEL	9:42:12	Time
NOTES	NOTES	1	&Notes...
	
PSTAT	PSTAT	REF600-11020	Potentiostat
VDC	POTEN	0.00000E+000	T	DC &Voltage (V)
FREQINIT	QUANT	1.00000E+006	Initial Fre&q. (Hz)
FREQFINAL	QUANT	1.00000E+000	Final Fre&q. (Hz)
PTSPERDEC	QUANT	1.00000E+001	Points/&decade
VAC	QUANT	2.50000E+001	AC &Voltage (mV rms)
AREA	QUANT	1.00000E-002	&Area (cm^2)
CONDIT	TWOPARAM	T	5.00000E+000	0.00000E+000	Conditionin&g	Time(s)	E(V)
DELAY	TWOPARAM	T	5.00000E+000	0.00000E+000	Init. De&lay	Time(s)	Stab.(mV/s)
SPEED	SELECTOR	1	&Optimize for:
ZGUESS	QUANT	1.00000E+005	E&stimated Z (ohms)
OCVCURVE	TABLE	19
	Pt	T	Vf	Vm	Ach	Over
	#	s	V vs. Ref.	V	V	bits
	0	0.258333	6.24605E-003	6.24605E-003	5.60466E-004	...........
	1	0.516667	6.24483E-003	6.18241E-003	5.64466E-004	...........
	2	0.775	6.24012E-003	6.26628E-003	5.63266E-004	...........
	3	1.03333	6.23491E-003	6.29232E-003	5.66032E-004	...........
	4	1.29167	6.23313E-003	6.02142E-003	5.65266E-004	...........
	5	1.55	6.22720E-003	6.34238E-003	5.69099E-004	...........
	6	1.80833	6.21973E-003	6.45660E-003	5.61266E-004	...........
	7	2.06667	6.24094E-003	6.51572E-003	5.57566E-004	...........
	8	2.325	6.30790E-003	6.55959E-003	5.66199E-004	...........
	9	2.58333	6.39860E-003	6.60735E-003	5.59799E-004	...........
	10	2.84167	6.48351E-003	6.67056E-003	5.58999E-004	...........
	11	3.1	6.55293E-003	6.73559E-003	5.64666E-004	...........
	12	3.35833	6.61281E-003	6.80241E-003	5.70832E-004	...........
	13	3.61667	6.67161E-003	6.87472E-003	5.62666E-004	...........
	14	3.875	6.73363E-003	6.93905E-003	5.60332E-004	...........
	15	4.13333	6.79879E-003	6.99093E-003	5.62066E-004	...........
	16	4.39167	6.86448E-003	7.05680E-003	5.61932E-004	...........
	17	4.65	6.92840E-003	7.11927E-003	5.64032E-004	...........
	18	4.90833	6.99060E-003	7.18123E-003	5.64799E-004	...........
EOC	QUANT	0.0069906	Open Circuit (V)
PSTATMODEL	IQUANT	4	Pstat Model
PSTATSECTION	LABEL	REF600-11020	Pstat Section
PSTATSERIALNO	LABEL	11020	Pstat Serial Number
CTRLMODE	IQUANT	1	Control Mode
IESTAB	IQUANT	0	I/E Stability
CASPEED	IQUANT	1	Control Amp Speed
CONVENTION	IQUANT	1	Current Convention
ICHRANGE	IQUANT	2	Ich Range
ICHRANGEMODE	TOGGLE	F	Ich Auto Range
ICHOFFSETENABLE	TOGGLE	T	Ich Offset Enable
ICHOFFSET	QUANT	0	Ich Offset (V)
ICHFILTER	IQUANT	3	Ich Filter
VCHRANGE	IQUANT	2	Vch Range
VCHRANGEMODE	TOGGLE	F	Vch Auto Range
VCHOFFSETENABLE	TOGGLE	T	Vch Offset Enable
VCHOFFSET	QUANT	0	Vch Offset (V)
VCHFILTER	IQUANT	3	Vch Filter
ACHRANGE	IQUANT	2	Ach Range
ACHOFFSETENABLE	TOGGLE	F	Ach Offset Enable
ACHOFFSET	QUANT	0	Ach Offset (V)
ACHFILTER	IQUANT	3	Ach Filter
IERANGELOWERLIMIT	IQUANT	1	I/E Range Lower Limit
IERANGEMODE	TOGGLE	F	I/E AutoRange
IERANGE	IQUANT	5	I/E Range
POSFEEDENABLE	TOGGLE	F	Positive Feedback IR Comp
POSFEEDRESISTANCE	QUANT	0	Positive Feedback Resistance (ohm)
ACHSELECT	IQUANT	0	Ach Select
CABLEID	IQUANT	14	Cable ID
DCCALDATE	LABEL	8/19/2019	DC Calibration Date
ACCALDATE	LABEL	8/19/2019	AC Calibration Date
THERMOSELECT	IQUANT	1	Thermo Select
FRAMEWORKVERSION	QUANT	6.33	Framework Version
INSTRUMENTVERSION	LABEL	3.50	Instrument Version
ZCURVE	TABLE
	Pt	Time	Freq	Zreal	Zimag	Zsig	Zmod	Zphz	Idc	Vdc	IERange
	#	s	Hz	ohm	ohm	V	ohm	°	A	V	#
	0	2	1000078	2426.858	-1165.37	1	2692.161	-25.65018	1.184298E-008	0.0091046	8
	1	3	794390.6	2610.884	-1044.008	1	2811.879	-21.79487	-1.237816E-006	0.0092155	8
	2	5	630984.4	2776.035	-924.7369	1	2926.005	-18.42365	-5.730097E-006	0.0101847	8
	3	6	501234.4	2904.252	-801.6276	1	3012.854	-15.4305	1.284244E-006	0.0085432	8
	4	7	398109.4	2979.681	-685.7869	1	3057.582	-12.96117	1.682802E-006	0.008144	8
	5	9	316265.6	3052.979	-603.1097	1	3111.98	-11.17478	-2.542003E-006	0.0089037	8
	6	10	251203.1	3113.294	-522.0646	1	3156.763	-9.51929	-4.700676E-007	0.0087484	8
	7	12	199546.9	3165.649	-455.1062	1	3198.196	-8.181012	-2.232279E-006	0.0088461	8
	8	13	158578.1	3198.234	-419.4268	1	3225.62	-7.471317	-4.885553E-006	0.0096952	8
	9	15	125953.1	3240.949	-311.3273	1	3255.867	-5.487028	9.25848E-007	0.0067118	7
	10	16	100078.1	3251.872	-295.4039	1	3265.262	-5.190569	-4.081885E-008	0.0085528	7
	11	17	79453.13	3278.808	-291.225	1	3291.716	-5.075715	-4.838557E-008	0.0085698	7
	12	19	63140.62	3302.305	-297.8241	1	3315.708	-5.153376	-8.405052E-009	0.0086637	7
	13	20	50203.12	3328.588	-308.2437	1	3342.83	-5.290784	8.768621E-008	0.0083469	7
	14	21	39890.62	3357.171	-327.0105	1	3373.06	-5.563435	3.864042E-008	0.0084873	7
	15	23	31640.63	3388.501	-352.5382	1	3406.791	-5.93966	-1.285566E-008	0.0085806	7
	16	24	25171.88	3422.644	-385.1201	1	3444.243	-6.419988	7.952253E-008	0.0084874	7
	17	25	20015.62	3460.534	-427.247	1	3486.809	-7.038278	-9.988093E-009	0.0084617	7
	18	27	15890.62	3503.024	-480.5154	1	3535.827	-7.810608	-1.507155E-008	0.0085641	7
	19	28	12609.37	3551.09	-539.6134	1	3591.855	-8.640402	4.818235E-008	0.0083599	7
	20	29	10078.13	3603.802	-609.3057	1	3654.948	-9.59642	4.872146E-008	0.0083656	7
	21	31	8015.625	3663.898	-693.0854	1	3728.876	-10.71185	8.487798E-008	0.0083767	7
	22	32	6328.125	3733.027	-791.8815	1	3816.093	-11.97653	-6.679424E-008	0.0086235	7
	23	34	5015.625	3807.907	-907.6619	1	3914.589	-13.40698	-6.619887E-008	0.0086192	7
	24	35	3984.375	3889.402	-1042.134	1	4026.598	-14.99962	-5.518018E-008	0.0086261	7
	25	36	3170.956	3978.629	-1201.139	1	4155.987	-16.79894	8.442163E-008	0.0083715	7
	26	38	2527.573	4075.849	-1388.519	1	4305.872	-18.81242	-1.316974E-008	0.0085583	7
	27	39	1976.103	4185.12	-1632.058	1	4492.087	-21.30413	-7.05485E-009	0.0084614	7
	28	40	1577.524	4298.256	-1895.626	1	4697.702	-23.79854	-6.450138E-009	0.0085573	7
	29	42	1265.625	4415.776	-2224.895	1	4944.617	-26.74131	-5.417694E-008	0.0086219	7
	30	43	998.264	4552.862	-2643.293	1	5264.557	-30.13853	-1.023656E-008	0.0086461	7
	31	44	796.875	4685.211	-3137.653	1	5638.8	-33.80994	3.974526E-008	0.0084766	7
	32	46	627.7902	4849.487	-3781.123	1	6149.342	-37.94338	-4.53299E-008	0.0085432	7
	33	47	505.5147	5014.784	-4507.183	1	6742.607	-41.94854	-4.752885E-008	0.008551	7
	34	48	397.9953	5220.119	-5498.313	1	7581.628	-46.48676	5.95867E-009	0.0085399	7
	35	50	315.5048	5456.582	-6696.412	1	8638.068	-50.82508	6.219856E-009	0.0085383	7
	36	51	252.4038	5730.401	-8121.391	1	9939.54	-54.79345	5.673741E-009	0.0085353	7
	37	52	198.6229	6102.339	-10014.01	1	11726.84	-58.64269	6.38055E-010	0.0084731	6
	38	54	158.3615	6539.775	-12234.76	1	13872.92	-61.87441	2.446307E-011	0.0084712	6
	39	55	125.558	7120.591	-15022.85	1	16624.94	-64.63979	1.088636E-009	0.0084774	6
	40	56	100.4464	7828.644	-18305.13	1	19908.92	-66.84482	-6.559951E-010	0.0084704	6
	41	58	79.00281	8883.723	-22698.24	1	24374.8	-68.62543	1.633379E-009	0.0084706	6
	42	59	63.3446	10402.38	-27563.46	1	29461.06	-69.32362	8.636188E-010	0.0084718	6
	43	61	49.86702	11705.91	-34051.46	1	36007.36	-71.0285	1.265083E-009	0.00847	6
	44	62	39.72458	14183.74	-41247.31	1	43617.87	-71.02341	5.804258E-010	0.0084783	6
	45	63	31.6723	17223.14	-50198.57	1	53071.02	-71.06289	-4.300776E-011	0.0084722	6
	46	65	24.93351	21373.17	-61143.07	1	64771.04	-70.73242	3.098049E-010	0.0084748	6
	47	66	19.86229	26700.86	-73686.13	1	78374.62	-70.08154	-2.213282E-011	0.0084701	6
	48	68	15.83615	33866.21	-88382.96	1	94649.19	-69.03438	-7.148772E-010	0.0084732	6
	49	69	12.40079	42882.73	-106078.6	1	114418.5	-67.98877	1.645568E-010	0.0084851	5
	50	70	9.93114	54123.01	-124319.8	1	135590.2	-66.47395	-9.695972E-012	0.0084775	5
	51	72	7.944915	68263.59	-144564.3	1	159871.1	-64.72321	-5.637538E-010	0.0084721	5
	52	74	6.317385	84478.88	-168725.7	1	188693	-63.40344	2.449867E-010	0.0084701	5
	53	76	5.008013	104283.3	-195187.2	1	221298.5	-61.8856	-3.457286E-010	0.0084738	5
	54	78	3.945707	128033.2	-224887.3	1	258779.4	-60.34621	1.974177E-010	0.0084802	5
	55	81	3.158693	152389.7	-255951.1	1	297881.8	-59.23102	-2.402968E-010	0.0084599	5
	56	84	2.504006	180742.7	-292211.4	1	343592	-58.2618	4.656769E-010	0.0084779	5
	57	87	1.998082	210781.3	-331672	1	392982.3	-57.56358	6.106979E-011	0.0085138	5
	58	90	1.584686	242818	-378903.4	1	450031.5	-57.34646	1.506414E-010	0.0084779	5
	59	94	1.266892	278583.5	-433105.4	1	514965.1	-57.24993	1.108817E-011	0.0085227	5
	60	98	0.999041	319162.8	-500782.6	1	593841.8	-57.4895	-2.864298E-011	0.0084344	5
