EXPLAIN
TAG	EISPOT
TITLE	LABEL	Potentiostatic EIS	Test &Identifier
DATE	LABEL	9/26/2019	Date
TIME	LABEL	7:58:40	Time
NOTES	NOTES	2	&Notes...
	
	
PSTAT	PSTAT	REF600-11020	Potentiostat
VDC	POTEN	0.00000E+000	T	DC &Voltage (V)
FREQINIT	QUANT	1.00000E+006	Initial Fre&q. (Hz)
FREQFINAL	QUANT	1.00000E+000	Final Fre&q. (Hz)
PTSPERDEC	QUANT	1.00000E+001	Points/&decade
VAC	QUANT	2.50000E+001	AC &Voltage (mV rms)
AREA	QUANT	1.00000E-002	&Area (cm^2)
CONDIT	TWOPARAM	T	5.00000E+000	0.00000E+000	Conditionin&g	Time(s)	E(V)
DELAY	TWOPARAM	T	5.00000E+000	0.00000E+000	Init. De&lay	Time(s)	Stab.(mV/s)
SPEED	SELECTOR	1	&Optimize for:
ZGUESS	QUANT	1.00000E+004	E&stimated Z (ohms)
OCVCURVE	TABLE	19
	Pt	T	Vf	Vm	Ach	Over
	#	s	V vs. Ref.	V	V	bits
	0	0.258333	7.75579E-003	7.75579E-003	5.64432E-004	...........
	1	0.516667	7.75769E-003	7.85538E-003	5.59532E-004	...........
	2	0.775	7.76986E-003	7.97547E-003	5.68032E-004	...........
	3	1.03333	7.80618E-003	8.10380E-003	5.67966E-004	...........
	4	1.29167	7.87527E-003	8.21948E-003	5.66699E-004	...........
	5	1.55	7.97298E-003	8.34057E-003	5.68899E-004	...........
	6	1.80833	8.08736E-003	8.45665E-003	5.64599E-004	...........
	7	2.06667	8.20749E-003	8.56648E-003	5.68599E-004	...........
	8	2.325	8.32704E-003	8.67476E-003	5.67199E-004	...........
	9	2.58333	8.44327E-003	8.77848E-003	5.70632E-004	...........
	10	2.84167	8.55547E-003	8.88264E-003	5.66232E-004	...........
	11	3.1	8.66393E-003	8.97914E-003	5.69166E-004	...........
	12	3.35833	8.76909E-003	9.07590E-003	5.69732E-004	...........
	13	3.61667	8.87105E-003	9.16498E-003	5.67999E-004	...........
	14	3.875	8.96969E-003	9.25645E-003	5.69632E-004	...........
	15	4.13333	9.06507E-003	9.34447E-003	5.65299E-004	...........
	16	4.39167	9.15758E-003	9.42802E-003	5.65932E-004	...........
	17	4.65	9.24751E-003	9.50807E-003	5.63499E-004	...........
	18	4.90833	9.33479E-003	9.59090E-003	5.68599E-004	...........
EOC	QUANT	0.0093348	Open Circuit (V)
PSTATMODEL	IQUANT	4	Pstat Model
PSTATSECTION	LABEL	REF600-11020	Pstat Section
PSTATSERIALNO	LABEL	11020	Pstat Serial Number
CTRLMODE	IQUANT	1	Control Mode
IESTAB	IQUANT	0	I/E Stability
CASPEED	IQUANT	1	Control Amp Speed
CONVENTION	IQUANT	1	Current Convention
ICHRANGE	IQUANT	2	Ich Range
ICHRANGEMODE	TOGGLE	F	Ich Auto Range
ICHOFFSETENABLE	TOGGLE	T	Ich Offset Enable
ICHOFFSET	QUANT	0	Ich Offset (V)
ICHFILTER	IQUANT	3	Ich Filter
VCHRANGE	IQUANT	2	Vch Range
VCHRANGEMODE	TOGGLE	F	Vch Auto Range
VCHOFFSETENABLE	TOGGLE	T	Vch Offset Enable
VCHOFFSET	QUANT	0	Vch Offset (V)
VCHFILTER	IQUANT	3	Vch Filter
ACHRANGE	IQUANT	2	Ach Range
ACHOFFSETENABLE	TOGGLE	F	Ach Offset Enable
ACHOFFSET	QUANT	0	Ach Offset (V)
ACHFILTER	IQUANT	3	Ach Filter
IERANGELOWERLIMIT	IQUANT	1	I/E Range Lower Limit
IERANGEMODE	TOGGLE	F	I/E AutoRange
IERANGE	IQUANT	6	I/E Range
POSFEEDENABLE	TOGGLE	F	Positive Feedback IR Comp
POSFEEDRESISTANCE	QUANT	0	Positive Feedback Resistance (ohm)
ACHSELECT	IQUANT	0	Ach Select
CABLEID	IQUANT	14	Cable ID
DCCALDATE	LABEL	8/19/2019	DC Calibration Date
ACCALDATE	LABEL	8/19/2019	AC Calibration Date
THERMOSELECT	IQUANT	1	Thermo Select
FRAMEWORKVERSION	QUANT	6.33	Framework Version
INSTRUMENTVERSION	LABEL	3.50	Instrument Version
ZCURVE	TABLE
	Pt	Time	Freq	Zreal	Zimag	Zsig	Zmod	Zphz	Idc	Vdc	IERange
	#	s	Hz	ohm	ohm	V	ohm	°	A	V	#
	0	1	1000078	2035.343	-1218.601	1	2372.258	-30.90981	-4.839379E-006	0.0127007	8
	1	3	794390.6	2270.261	-1169.683	1	2553.868	-27.25841	2.489681E-006	0.0113136	8
	2	4	630984.4	2484.926	-1041.35	1	2694.303	-22.73694	1.079434E-007	0.0111448	8
	3	5	501234.4	2640.326	-965.743	1	2811.402	-20.09083	-8.724051E-007	0.0112101	8
	4	7	398109.4	2779.361	-839.3746	1	2903.343	-16.80446	-3.110838E-006	0.0115669	8
	5	8	316265.6	2881.873	-736.002	1	2974.372	-14.32654	-6.288932E-007	0.0110984	8
	6	10	251203.1	2963.079	-647.0294	1	3032.9	-12.31797	-6.258072E-007	0.0110637	8
	7	11	199546.9	3016.278	-551.359	1	3066.257	-10.35898	7.982376E-007	0.0106978	8
	8	13	158578.1	3078.023	-499.6234	1	3118.309	-9.219814	-4.740898E-006	0.0119359	8
	9	14	125953.1	3136.296	-400.7473	1	3161.795	-7.281641	1.381942E-006	0.0084283	7
	10	15	100078.1	3159.338	-362.4099	1	3180.056	-6.543837	4.454903E-008	0.0106739	7
	11	17	79453.13	3188.528	-345.1144	1	3207.15	-6.177435	-5.257203E-008	0.0109155	7
	12	18	63140.62	3218.828	-336.0197	1	3236.32	-5.959631	-7.800291E-009	0.0107594	7
	13	19	50203.12	3249.119	-333.9383	1	3266.234	-5.868148	7.246225E-008	0.0106755	7
	14	21	39890.62	3281.102	-340.0522	1	3298.677	-5.916987	6.876955E-008	0.0107808	7
	15	22	31640.63	3315.039	-352.8791	1	3333.768	-6.076137	-9.522411E-009	0.0108471	7
	16	23	25171.88	3350.324	-373.0786	1	3371.033	-6.354049	-3.308502E-008	0.0108081	7
	17	25	20015.62	3388.075	-399.5313	1	3411.55	-6.72542	-1.441367E-008	0.0109318	7
	18	26	15890.62	3429.987	-434.2759	1	3457.37	-7.215912	1.535127E-008	0.0107224	7
	19	27	12609.37	3476.076	-478.8309	1	3508.901	-7.843156	-5.743724E-009	0.0107448	7
	20	29	10078.13	3524.324	-528.8471	1	3563.782	-8.533921	-4.143921E-008	0.0109368	7
	21	30	8015.625	3577.166	-589.5082	1	3625.415	-9.358094	-4.053289E-008	0.0108284	7
	22	32	6328.125	3637.789	-664.9595	1	3698.065	-10.35886	1.323626E-007	0.0106053	7
	23	33	5015.625	3702.115	-754.5496	1	3778.227	-11.52	-5.421833E-009	0.0108252	7
	24	34	3984.375	3772.19	-858.0464	1	3868.548	-12.81482	-8.494113E-009	0.0108362	7
	25	36	3170.956	3845.641	-982.87	1	3969.256	-14.33677	7.036662E-008	0.0107815	7
	26	37	2527.573	3927.148	-1129.061	1	4086.229	-16.04003	-2.248982E-008	0.0107985	7
	27	38	1976.103	4022.433	-1320.318	1	4233.581	-18.17183	-4.340202E-008	0.010863	7
	28	40	1577.524	4119.472	-1535.146	1	4396.217	-20.43822	-6.766941E-008	0.0109071	7
	29	41	1265.625	4213.048	-1776.863	1	4572.419	-22.8677	1.329267E-007	0.0106083	7
	30	42	998.264	4335.455	-2113.498	1	4823.177	-25.98885	-3.921795E-008	0.0108339	7
	31	44	796.875	4452.945	-2496.808	1	5105.171	-29.27976	-4.385521E-008	0.0108576	7
	32	45	627.7902	4588.744	-2996.166	1	5480.29	-33.14205	-6.62633E-008	0.0109034	7
	33	46	505.5147	4723.757	-3554.296	1	5911.59	-36.9589	4.576014E-008	0.0106578	7
	34	48	397.9953	4884.832	-4317.488	1	6519.377	-41.47205	5.038922E-009	0.0108214	7
	35	49	315.5048	5065.952	-5243.26	1	7290.792	-45.98533	5.151597E-009	0.0108275	7
	36	51	252.4038	5269.399	-6346.632	1	8249.019	-50.29827	5.156317E-009	0.0108202	7
	37	52	198.6229	5532.003	-7816.271	1	9575.86	-54.71087	5.440713E-009	0.0108208	7
	38	53	158.3615	5840.661	-9544.57	1	11189.82	-58.53605	9.531039E-010	0.0107566	6
	39	55	125.558	6233.274	-11727.55	1	13281.15	-62.00904	6.507159E-010	0.0107647	6
	40	56	100.4464	6706.7	-14310.24	1	15803.88	-64.88918	-2.403057E-010	0.0107537	6
	41	57	79.00281	7401.858	-17720.29	1	19204.07	-67.32945	-1.900131E-010	0.0107598	6
	42	59	63.3446	8265.729	-21714.34	1	23234.34	-69.16029	1.042422E-009	0.0107539	6
	43	60	49.86702	9151.636	-26674.58	1	28200.81	-71.0637	1.327982E-009	0.0107504	6
	44	62	39.72458	10619.03	-32666.69	1	34349.32	-71.9921	8.105299E-010	0.0107562	6
	45	63	31.6723	12498.44	-39811.98	1	41727.74	-72.57101	1.022975E-009	0.0107576	6
	46	64	24.93351	14888.32	-49107.3	1	51314.61	-73.13379	2.763631E-010	0.0107574	6
	47	66	19.86229	17911.52	-59735.97	1	62363.52	-73.30892	7.274361E-011	0.0107585	6
	48	67	15.83615	22088.46	-71968.7	1	75282.1	-72.93783	1.658314E-009	0.0107591	6
	49	69	12.40079	27301.18	-89159.1	1	93245.38	-72.97502	1.814095E-010	0.0107552	6
	50	70	9.93114	33942.85	-107016.6	1	112270.6	-72.40235	5.469681E-010	0.0107581	5
	51	72	7.944915	42247.22	-128173.2	1	134956.3	-71.75724	-3.778238E-010	0.0107633	5
	52	73	6.317385	53217.59	-154091.5	1	163022.4	-70.94696	2.17798E-010	0.0107521	5
	53	75	5.008013	67212.6	-184619.7	1	196473.8	-69.99547	-1.130493E-010	0.010764	5
	54	78	3.945707	85732.27	-221417	1	237435.3	-68.83369	-7.931883E-011	0.0107617	5
	55	80	3.158693	106776.8	-260930.9	1	281933	-67.7449	2.060492E-011	0.0107522	5
	56	84	2.504006	133827.1	-308217.3	1	336017.3	-66.52966	1.097202E-010	0.0107663	5
	57	87	1.998082	165303.8	-359934.1	1	396078.2	-65.33252	3.854006E-010	0.010748	5
	58	90	1.584686	205638.8	-421383	1	468882.7	-63.98719	8.436566E-011	0.0107107	5
	59	93	1.266892	249855.2	-487485.1	1	547785.9	-62.86308	3.121292E-010	0.0107641	5
	60	98	0.999041	306483.8	-568270.4	1	645649.8	-61.6608	-1.957484E-010	0.0107476	5
