EXPLAIN
TAG	EISPOT
TITLE	LABEL	Potentiostatic IDE	Test &Identifier
DATE	LABEL	9/18/2019	Date
TIME	LABEL	10:09:08	Time
NOTES	NOTES	1	&Notes...
	
PSTAT	PSTAT	REF600-11020	Potentiostat
VDC	POTEN	0.00000E+000	T	DC &Voltage (V)
FREQINIT	QUANT	1.00000E+006	Initial Fre&q. (Hz)
FREQFINAL	QUANT	1.00000E+000	Final Fre&q. (Hz)
PTSPERDEC	QUANT	1.00000E+001	Points/&decade
VAC	QUANT	2.50000E+001	AC &Voltage (mV rms)
AREA	QUANT	1.00000E-002	&Area (cm^2)
CONDIT	TWOPARAM	T	5.00000E+000	0.00000E+000	Conditionin&g	Time(s)	E(V)
DELAY	TWOPARAM	T	5.00000E+000	0.00000E+000	Init. De&lay	Time(s)	Stab.(mV/s)
SPEED	SELECTOR	1	&Optimize for:
ZGUESS	QUANT	1.00000E+007	E&stimated Z (ohms)
OCVCURVE	TABLE	19
	Pt	T	Vf	Vm	Ach	Over
	#	s	V vs. Ref.	V	V	bits
	0	0.258333	1.52977E-003	1.52977E-003	5.72366E-004	...........
	1	0.516667	1.51037E-003	5.14139E-004	5.72866E-004	...........
	2	0.775	1.39331E-003	-3.39688E-004	5.70999E-004	...........
	3	1.03333	1.06978E-003	-1.12150E-003	5.69299E-004	...........
	4	1.29167	5.01637E-004	-2.17697E-003	5.69766E-004	...........
	5	1.55	-2.66318E-004	-3.57032E-003	5.69399E-004	...........
	6	1.80833	-1.17219E-003	-3.73017E-003	5.69132E-004	...........
	7	2.06667	-2.07677E-003	-1.89871E-003	5.72766E-004	...........
	8	2.325	-2.68131E-003	-1.32901E-003	5.70666E-004	...........
	9	2.58333	-2.69458E-003	1.05803E-003	5.70466E-004	...........
	10	2.84167	-2.03629E-003	2.88511E-003	5.71266E-004	...........
	11	3.1	-8.43381E-004	2.61238E-003	5.71032E-004	...........
	12	3.35833	5.07161E-004	7.97946E-004	5.77632E-004	...........
	13	3.61667	1.43971E-003	-8.12173E-004	5.68899E-004	...........
	14	3.875	1.54260E-003	-1.16313E-003	5.76399E-004	...........
	15	4.13333	9.02791E-004	-1.74574E-003	5.67566E-004	...........
	16	4.39167	-3.70304E-005	-1.89524E-003	5.73766E-004	...........
	17	4.65	-8.90135E-004	-2.54556E-003	5.69432E-004	...........
	18	4.90833	-1.54942E-003	-3.71169E-003	5.71932E-004	...........
EOC	QUANT	-0.0015494	Open Circuit (V)
PSTATMODEL	IQUANT	4	Pstat Model
PSTATSECTION	LABEL	REF600-11020	Pstat Section
PSTATSERIALNO	LABEL	11020	Pstat Serial Number
CTRLMODE	IQUANT	1	Control Mode
IESTAB	IQUANT	0	I/E Stability
CASPEED	IQUANT	1	Control Amp Speed
CONVENTION	IQUANT	1	Current Convention
ICHRANGE	IQUANT	2	Ich Range
ICHRANGEMODE	TOGGLE	F	Ich Auto Range
ICHOFFSETENABLE	TOGGLE	T	Ich Offset Enable
ICHOFFSET	QUANT	0	Ich Offset (V)
ICHFILTER	IQUANT	3	Ich Filter
VCHRANGE	IQUANT	2	Vch Range
VCHRANGEMODE	TOGGLE	F	Vch Auto Range
VCHOFFSETENABLE	TOGGLE	T	Vch Offset Enable
VCHOFFSET	QUANT	0	Vch Offset (V)
VCHFILTER	IQUANT	3	Vch Filter
ACHRANGE	IQUANT	2	Ach Range
ACHOFFSETENABLE	TOGGLE	F	Ach Offset Enable
ACHOFFSET	QUANT	0	Ach Offset (V)
ACHFILTER	IQUANT	3	Ach Filter
IERANGELOWERLIMIT	IQUANT	1	I/E Range Lower Limit
IERANGEMODE	TOGGLE	F	I/E AutoRange
IERANGE	IQUANT	2	I/E Range
POSFEEDENABLE	TOGGLE	F	Positive Feedback IR Comp
POSFEEDRESISTANCE	QUANT	0	Positive Feedback Resistance (ohm)
ACHSELECT	IQUANT	0	Ach Select
CABLEID	IQUANT	14	Cable ID
DCCALDATE	LABEL	8/19/2019	DC Calibration Date
ACCALDATE	LABEL	8/19/2019	AC Calibration Date
THERMOSELECT	IQUANT	1	Thermo Select
FRAMEWORKVERSION	QUANT	6.33	Framework Version
INSTRUMENTVERSION	LABEL	3.50	Instrument Version
ZCURVE	TABLE
	Pt	Time	Freq	Zreal	Zimag	Zsig	Zmod	Zphz	Idc	Vdc	IERange
	#	s	Hz	ohm	ohm	V	ohm	°	A	V	#
	0	2	1000078	2130.842	-1530.24	1	2623.38	-35.6836	-2.174194E-006	0.0012278	8
	1	3	794390.6	2442.45	-1465.733	1	2848.497	-30.96829	4.028915E-006	-0.000252	8
	2	5	630984.4	2717.405	-1351.064	1	3034.742	-26.43606	-2.707771E-006	0.0006777	8
	3	6	501234.4	2950.008	-1213.568	1	3189.874	-22.36119	1.460026E-008	0.0001993	8
	4	7	398109.4	3123.932	-1061.482	1	3299.348	-18.76726	-1.599019E-006	0.000533	8
	5	9	316265.6	3252.094	-914.3033	1	3378.175	-15.70295	-4.050036E-007	0.0001703	8
	6	10	251203.1	3352.344	-790.4915	1	3444.283	-13.26812	-4.257982E-007	0.0001605	8
	7	11	199546.9	3434.343	-677.5412	1	3500.539	-11.16023	-1.047373E-006	0.0002355	8
	8	13	158578.1	3492.233	-597.8563	1	3543.039	-9.71463	8.796663E-007	-7.508068E-005	8
	9	14	125953.1	3555.112	-497.3102	1	3589.727	-7.963201	-6.202402E-007	0.0011203	7
	10	15	100078.1	3587.795	-441.6031	1	3614.87	-7.016947	-1.254939E-008	6.931683E-005	7
	11	17	79453.13	3621.452	-407.5128	1	3644.308	-6.42034	5.363463E-008	-5.458758E-005	7
	12	18	63140.62	3654.236	-383.9221	1	3674.349	-5.997619	1.062255E-008	-2.031462E-005	7
	13	19	50203.12	3684.802	-369.476	1	3703.279	-5.725924	-1.141484E-008	6.502778E-005	7
	14	21	39890.62	3715.005	-363.175	1	3732.714	-5.583435	-1.466684E-008	5.872321E-005	7
	15	22	31640.63	3748.634	-368.5492	1	3766.708	-5.615023	-1.259E-008	5.848112E-005	7
	16	23	25171.88	3778.893	-381.0851	1	3798.06	-5.758564	-2.067548E-008	7.969171E-005	7
	17	25	20015.62	3811.568	-401.8946	1	3832.698	-6.019069	4.542728E-008	1.055207E-005	7
	18	26	15890.62	3843.789	-430.5022	1	3867.822	-6.390464	-3.99656E-008	8.43009E-005	7
	19	27	12609.37	3883.549	-473.9139	1	3912.359	-6.957469	4.493813E-008	9.848967E-006	7
	20	29	10078.13	3919.675	-525.8045	1	3954.785	-7.640327	6.320315E-008	-4.515013E-005	7
	21	30	8015.625	3960.003	-592.7706	1	4004.123	-8.513362	-4.034534E-008	8.061351E-005	7
	22	31	6328.125	4004.083	-680.4044	1	4061.481	-9.64402	3.655732E-008	7.372409E-006	7
	23	33	5015.625	4050.187	-788.3248	1	4126.193	-11.01429	-3.521183E-008	8.573838E-005	7
	24	34	3984.375	4100.282	-921.8396	1	4202.63	-12.67076	2.32452E-009	8.26839E-005	7
	25	35	3170.956	4155.615	-1083.952	1	4294.658	-14.6193	5.792743E-008	-6.564208E-005	7
	26	37	2527.573	4218.552	-1282.23	1	4409.115	-16.90666	1.073816E-008	-3.72987E-005	7
	27	38	1976.103	4294.791	-1549.397	1	4565.726	-19.83751	-2.171782E-008	7.717616E-005	7
	28	39	1577.524	4377.165	-1849.135	1	4751.724	-22.90165	1.399404E-009	3.791101E-005	7
	29	41	1265.625	4454.41	-2205.604	1	4970.559	-26.34234	6.398292E-008	-5.536099E-005	7
	30	42	998.264	4575.154	-2674.931	1	5299.744	-30.31332	-8.901297E-009	5.484756E-005	7
	31	43	796.875	4696.164	-3220.925	1	5694.586	-34.44478	7.915039E-010	4.40438E-005	7
	32	45	627.7902	4842.896	-3934.531	1	6239.726	-39.09156	-3.480416E-008	7.618393E-005	7
	33	46	505.5147	4993.656	-4735.605	1	6882.046	-43.48069	2.65251E-009	7.747296E-005	7
	34	47	397.9953	5194.738	-5821.034	1	7801.906	-48.25402	4.949843E-009	4.055186E-005	7
	35	49	315.5048	5428.047	-7132.236	1	8962.839	-52.72675	4.762459E-009	4.621066E-005	7
	36	50	252.4038	5702.485	-8686.146	1	10390.74	-56.71496	1.333242E-009	-2.113901E-005	6
	37	51	198.6229	6069.852	-10749	1	12344.39	-60.54701	1.056866E-009	-1.85023E-005	6
	38	53	158.3615	6509.935	-13164.17	1	14685.86	-63.68671	-5.470398E-010	-2.094103E-005	6
	39	54	125.558	7089.76	-16204.24	1	17687.35	-66.36942	1.278933E-009	-2.140593E-005	6
	40	55	100.4464	7809.473	-19770.96	1	21257.44	-68.44612	3.42309E-009	-2.404367E-005	6
	41	57	79.00281	8782.827	-24509.52	1	26035.64	-70.28519	8.215517E-010	-2.613251E-005	6
	42	58	63.3446	10004.93	-29687.33	1	31327.88	-71.37566	1.360362E-010	-2.343206E-005	6
	43	60	49.86702	11765.4	-36991.04	1	38817.03	-72.35617	8.849555E-010	-2.768216E-005	6
	44	61	39.72458	13917.3	-45012.59	1	47115.02	-72.81908	1.298875E-009	-2.489882E-005	6
	45	62	31.6723	16848.45	-54796.48	1	57328.22	-72.90874	9.408224E-010	-2.974659E-005	6
	46	64	24.93351	20778.55	-67221.34	1	70359.48	-72.82329	9.336339E-010	-2.383818E-005	6
	47	65	19.86229	25741.34	-81368.49	1	85343.12	-72.44496	1.846543E-009	-2.367823E-005	6
	48	66	15.83615	31797.96	-97990.4	1	103020.5	-72.02171	-1.381242E-010	-2.3307E-005	6
	49	68	12.40079	41970.06	-119555.2	1	126708.1	-70.65629	1.480751E-009	-1.986984E-005	5
	50	69	9.93114	52386.36	-142503.7	1	151827.7	-69.81586	9.819808E-010	-2.234391E-005	5
	51	71	7.944915	65934.1	-168921.9	1	181333.7	-68.67815	3.299653E-010	-9.877785E-006	5
	52	72	6.317385	84115.45	-199785.8	1	216771.2	-67.16753	4.173261E-010	-6.859553E-006	5
	53	74	5.008013	106772.3	-235249	1	258345.5	-65.58815	7.058642E-010	-1.003373E-005	5
	54	77	3.945707	135665.1	-276777.6	1	308238.3	-63.88778	1.034102E-011	-2.013211E-005	5
	55	79	3.158693	168969.2	-318451.8	1	360502.6	-62.04976	6.258902E-010	-2.512562E-005	5
	56	83	2.504006	210164.5	-366631.8	1	422596.8	-60.17735	-3.29355E-010	-1.325896E-005	5
	57	85	1.998082	255644.1	-419885.6	1	491587.1	-58.66518	-1.280136E-009	1.534491E-006	5
	58	88	1.584686	303169.6	-469339.2	1	558740.6	-57.13957	-1.392738E-012	-4.65974E-005	5
	59	92	1.266892	368596.3	-531094.2	1	646470.6	-55.23812	3.754663E-010	2.011237E-005	5
	60	96	0.999041	439693.4	-592536.1	1	737854.5	-53.42262	3.0866E-011	-6.005349E-005	5
