EXPLAIN
TAG	EISPOT
TITLE	LABEL	Potentiostatic EIS	Test &Identifier
DATE	LABEL	10/26/2019	Date
TIME	LABEL	10:04:39	Time
NOTES	NOTES	1	&Notes...
	
PSTAT	PSTAT	REF600-11020	Potentiostat
VDC	POTEN	0.00000E+000	T	DC &Voltage (V)
FREQINIT	QUANT	1.00000E+006	Initial Fre&q. (Hz)
FREQFINAL	QUANT	1.00000E+000	Final Fre&q. (Hz)
PTSPERDEC	QUANT	1.00000E+001	Points/&decade
VAC	QUANT	2.50000E+001	AC &Voltage (mV rms)
AREA	QUANT	1.00000E-002	&Area (cm^2)
CONDIT	TWOPARAM	T	5.00000E+000	0.00000E+000	Conditionin&g	Time(s)	E(V)
DELAY	TWOPARAM	T	5.00000E+000	0.00000E+000	Init. De&lay	Time(s)	Stab.(mV/s)
SPEED	SELECTOR	0	&Optimize for:
ZGUESS	QUANT	1.00000E+005	E&stimated Z (ohms)
OCVCURVE	TABLE	19
	Pt	T	Vf	Vm	Ach	Over
	#	s	V vs. Ref.	V	V	bits
	0	0.258333	2.52091E-003	2.52091E-003	5.27000E-004	...........
	1	0.516667	2.51703E-003	2.31784E-003	5.25900E-004	...........
	2	0.775	2.49589E-003	2.26573E-003	5.27366E-004	...........
	3	1.03333	2.44521E-003	2.22685E-003	5.26566E-004	...........
	4	1.29167	2.37037E-003	2.06577E-003	5.29999E-004	...........
	5	1.55	2.28458E-003	1.99443E-003	5.26566E-004	...........
	6	1.80833	2.19372E-003	1.93877E-003	5.29666E-004	...........
	7	2.06667	2.10194E-003	1.84224E-003	5.27600E-004	...........
	8	2.325	2.01497E-003	1.78667E-003	5.24233E-004	...........
	9	2.58333	1.93475E-003	1.71780E-003	5.30499E-004	...........
	10	2.84167	1.86057E-003	1.66454E-003	5.32166E-004	...........
	11	3.1	1.79181E-003	1.59899E-003	5.25766E-004	...........
	12	3.35833	1.72760E-003	1.54910E-003	5.24266E-004	...........
	13	3.61667	1.66689E-003	1.49857E-003	5.28700E-004	...........
	14	3.875	1.60922E-003	1.44257E-003	5.29466E-004	...........
	15	4.13333	1.55420E-003	1.39506E-003	5.27066E-004	...........
	16	4.39167	1.50121E-003	1.35003E-003	5.26833E-004	...........
	17	4.65	1.45011E-003	1.30678E-003	5.19833E-004	...........
	18	4.90833	1.40129E-003	1.26136E-003	5.17966E-004	...........
EOC	QUANT	0.0014013	Open Circuit (V)
PSTATMODEL	IQUANT	4	Pstat Model
PSTATSECTION	LABEL	REF600-11020	Pstat Section
PSTATSERIALNO	LABEL	11020	Pstat Serial Number
CTRLMODE	IQUANT	1	Control Mode
IESTAB	IQUANT	0	I/E Stability
CASPEED	IQUANT	1	Control Amp Speed
CONVENTION	IQUANT	1	Current Convention
ICHRANGE	IQUANT	2	Ich Range
ICHRANGEMODE	TOGGLE	F	Ich Auto Range
ICHOFFSETENABLE	TOGGLE	T	Ich Offset Enable
ICHOFFSET	QUANT	0	Ich Offset (V)
ICHFILTER	IQUANT	3	Ich Filter
VCHRANGE	IQUANT	2	Vch Range
VCHRANGEMODE	TOGGLE	F	Vch Auto Range
VCHOFFSETENABLE	TOGGLE	T	Vch Offset Enable
VCHOFFSET	QUANT	0	Vch Offset (V)
VCHFILTER	IQUANT	3	Vch Filter
ACHRANGE	IQUANT	2	Ach Range
ACHOFFSETENABLE	TOGGLE	F	Ach Offset Enable
ACHOFFSET	QUANT	0	Ach Offset (V)
ACHFILTER	IQUANT	3	Ach Filter
IERANGELOWERLIMIT	IQUANT	1	I/E Range Lower Limit
IERANGEMODE	TOGGLE	F	I/E AutoRange
IERANGE	IQUANT	4	I/E Range
POSFEEDENABLE	TOGGLE	F	Positive Feedback IR Comp
POSFEEDRESISTANCE	QUANT	0	Positive Feedback Resistance (ohm)
ACHSELECT	IQUANT	0	Ach Select
CABLEID	IQUANT	14	Cable ID
DCCALDATE	LABEL	8/19/2019	DC Calibration Date
ACCALDATE	LABEL	8/19/2019	AC Calibration Date
THERMOSELECT	IQUANT	1	Thermo Select
FRAMEWORKVERSION	QUANT	6.33	Framework Version
INSTRUMENTVERSION	LABEL	3.50	Instrument Version
ZCURVE	TABLE
	Pt	Time	Freq	Zreal	Zimag	Zsig	Zmod	Zphz	Idc	Vdc	IERange
	#	s	Hz	ohm	ohm	V	ohm	°	A	V	#
	0	2	1000078	2118.27	-909.1304	1	2305.121	-23.22831	-4.559779E-006	0.0040832	8
	1	2	794390.6	2250.453	-847.8497	1	2404.867	-20.64371	2.655203E-006	0.0033095	8
	2	2	630984.4	2372.236	-800.3252	1	2503.602	-18.64294	-1.09706E-006	0.0031279	8
	3	3	501234.4	2486.84	-747.2363	1	2596.677	-16.72428	4.030876E-006	0.0023413	8
	4	3	398109.4	2595.967	-698.3287	1	2688.253	-15.05644	3.543035E-007	0.0029025	8
	5	3	316265.6	2690.151	-650.2918	1	2767.633	-13.58945	1.599117E-006	0.0027869	8
	6	4	251203.1	2784.53	-599.3699	1	2848.306	-12.14757	1.567343E-006	0.0027093	8
	7	4	199546.9	2865.961	-546.7263	1	2917.643	-10.80029	-1.671507E-006	0.0034216	8
	8	4	158578.1	2931.939	-490.4564	1	2972.678	-9.496542	3.108999E-006	0.0025821	8
	9	5	125953.1	3018.988	-413.0598	1	3047.114	-7.790871	2.604552E-007	0.0030054	7
	10	5	100078.1	3065.878	-369.16	1	3088.023	-6.865887	-3.275681E-008	0.0031196	7
	11	5	79453.13	3108.362	-335.784	1	3126.446	-6.165527	3.538058E-008	0.0029322	7
	12	6	63140.62	3144.455	-307.6554	1	3159.47	-5.588068	-5.071238E-008	0.0031042	7
	13	6	50203.12	3174.746	-283.2446	1	3187.356	-5.098319	-3.063152E-008	0.0030421	7
	14	6	39890.62	3200.632	-264.8138	1	3211.569	-4.729764	-5.176412E-008	0.0031041	7
	15	6	31640.63	3221.71	-253.2063	1	3231.645	-4.493854	2.536987E-008	0.0030146	7
	16	7	25171.88	3240.048	-248.6657	1	3249.576	-4.388707	-4.870742E-008	0.0031061	7
	17	7	20015.62	3260.562	-255.4465	1	3270.553	-4.479649	-1.250407E-008	0.0030956	7
	18	7	15890.62	3273.508	-264.4174	1	3284.169	-4.618038	-6.189831E-008	0.0032231	7
	19	8	12609.37	3290.199	-285.0531	1	3302.524	-4.951573	9.390416E-008	0.0029007	7
	20	8	10078.13	3305.599	-315.6853	1	3320.638	-5.455214	9.26769E-009	0.0029823	7
	21	8	8015.625	3323.005	-358.9298	1	3342.333	-6.164823	-6.360947E-008	0.0032176	7
	22	9	6328.125	3342.676	-414.5369	1	3368.282	-7.069357	9.587476E-008	0.0029035	7
	23	9	5015.625	3364.23	-486.4371	1	3399.216	-8.227429	-6.915794E-009	0.003011	7
	24	9	3984.375	3388.258	-576.5813	1	3436.967	-9.65754	-5.029201E-008	0.0031062	7
	25	10	3170.956	3415.575	-688.519	1	3484.281	-11.39707	-2.370247E-008	0.0030323	7
	26	10	2527.573	3444.802	-826.1467	1	3542.482	-13.48621	9.880219E-009	0.0029845	7
	27	10	1976.103	3482.67	-1013.617	1	3627.177	-16.22742	-5.990584E-008	0.0031178	7
	28	11	1577.524	3532.024	-1232.316	1	3740.828	-19.23377	-5.085304E-008	0.0031049	7
	29	11	1265.625	3573.474	-1478.775	1	3867.363	-22.48075	-6.200767E-008	0.0031165	7
	30	11	998.264	3635.485	-1817.012	1	4064.27	-26.55585	-1.272649E-008	0.0030829	7
	31	12	796.875	3707.274	-2211.821	1	4316.947	-30.821	2.65841E-008	0.0030124	7
	32	12	627.7902	3796.783	-2730.739	1	4676.804	-35.7246	4.969694E-008	0.0029514	7
	33	12	505.5147	3900.814	-3308.102	1	5114.674	-40.29976	-9.902125E-009	0.0030313	7
	34	13	397.9953	4041.269	-4095.174	1	5753.46	-45.37958	1.614261E-009	0.0030616	7
	35	13	315.5048	4214.2	-5038.774	1	6568.769	-50.09244	3.030961E-009	0.0030632	7
	36	13	252.4038	4425.26	-6151.565	1	7577.908	-54.26984	1.147381E-009	0.0030611	7
	37	14	198.6229	4718.439	-7621.963	1	8964.262	-58.24008	2.579969E-009	0.0030624	7
	38	14	158.3615	5081.522	-9329.115	1	10623.29	-61.42309	1.211377E-009	0.0030002	6
	39	14	125.558	5560.779	-11468.53	1	12745.57	-64.13252	3.05172E-010	0.0030027	6
	40	14	100.4464	6180.433	-13973.8	1	15279.55	-66.1408	7.977694E-010	0.0030016	6
	41	15	79.00281	7043.774	-17276.37	1	18657.11	-67.81871	-5.960452E-010	0.0029991	6
	42	15	63.3446	7933.076	-20820.68	1	22280.81	-69.14221	4.498555E-010	0.0029971	6
	43	16	49.86702	9475.992	-25594.15	1	27292.03	-69.6834	3.700529E-010	0.0029941	6
	44	16	39.72458	11392.81	-31167.28	1	33184.27	-69.92074	7.130586E-010	0.0029986	6
	45	16	31.6723	13908.23	-37683.55	1	40168.25	-69.74192	1.499822E-009	0.0029985	6
	46	17	24.93351	17227.05	-45657	1	48798.9	-69.32778	-5.499901E-010	0.0029974	6
	47	17	19.86229	21343.04	-54647.92	1	58667.89	-68.6666	-2.413589E-010	0.0029949	6
	48	17	15.83615	26574.85	-65676.41	1	70849.23	-67.97011	1.901882E-009	0.0029979	6
	49	17	12.40079	34248.87	-77982.3	1	85171.73	-66.28951	3.493103E-011	0.0029965	6
	50	18	9.93114	42241.39	-91301.76	1	100599.9	-65.17205	-7.594517E-010	0.002996	6
	51	18	7.944915	52066.04	-106158.9	1	118239.5	-63.87417	-7.133347E-010	0.0030031	5
	52	19	6.317385	64237.57	-123111.8	1	138863.2	-62.44524	-7.182342E-010	0.0030126	5
	53	20	5.008013	78977.76	-142288.5	1	162737.5	-60.96737	-5.784258E-010	0.0029936	5
	54	21	3.945707	96822.2	-164107.1	1	190540.5	-59.45965	4.827904E-010	0.0029968	5
	55	22	3.158693	115354.3	-186184.1	1	219023.2	-58.21883	1.007229E-010	0.0030138	5
	56	24	2.504006	137516.1	-212061.3	1	252746.2	-57.03767	-3.793857E-010	0.0029987	5
	57	25	1.998082	160451.8	-239096.1	1	287944	-56.13536	3.975742E-011	0.0030177	5
	58	27	1.584686	186894.6	-271338.8	1	329475.8	-55.44144	2.328957E-010	0.0030452	5
	59	29	1.266892	213139.7	-307074.5	1	373795.7	-55.23557	1.553105E-010	0.0030223	5
	60	31	0.999041	243081.4	-350552.9	1	426586.4	-55.26167	9.583728E-011	0.0029964	5
