EXPLAIN
TAG	EISPOT
TITLE	LABEL	Potentiostatic IDE	Test &Identifier
DATE	LABEL	9/16/2019	Date
TIME	LABEL	7:48:25	Time
NOTES	NOTES	1	&Notes...
	
PSTAT	PSTAT	REF600-11020	Potentiostat
VDC	POTEN	0.00000E+000	T	DC &Voltage (V)
FREQINIT	QUANT	1.00000E+006	Initial Fre&q. (Hz)
FREQFINAL	QUANT	1.00000E+000	Final Fre&q. (Hz)
PTSPERDEC	QUANT	1.00000E+001	Points/&decade
VAC	QUANT	2.50000E+001	AC &Voltage (mV rms)
AREA	QUANT	1.00000E-002	&Area (cm^2)
CONDIT	TWOPARAM	T	5.00000E+000	0.00000E+000	Conditionin&g	Time(s)	E(V)
DELAY	TWOPARAM	T	5.00000E+000	0.00000E+000	Init. De&lay	Time(s)	Stab.(mV/s)
SPEED	SELECTOR	1	&Optimize for:
ZGUESS	QUANT	1.00000E+007	E&stimated Z (ohms)
OCVCURVE	TABLE	19
	Pt	T	Vf	Vm	Ach	Over
	#	s	V vs. Ref.	V	V	bits
	0	0.258333	2.95487E-002	2.95487E-002	5.67532E-004	...........
	1	0.516667	2.95878E-002	3.15956E-002	5.69599E-004	...........
	2	0.775	2.98266E-002	3.34641E-002	5.68766E-004	...........
	3	1.03333	3.04955E-002	3.51579E-002	5.72399E-004	...........
	4	1.29167	3.16746E-002	3.67488E-002	5.68599E-004	...........
	5	1.55	3.32106E-002	3.82202E-002	5.68632E-004	...........
	6	1.80833	3.48715E-002	3.95958E-002	5.67699E-004	...........
	7	2.06667	3.64968E-002	4.09803E-002	5.70232E-004	...........
	8	2.325	3.80267E-002	4.22563E-002	5.68366E-004	...........
	9	2.58333	3.94619E-002	4.34374E-002	5.70666E-004	...........
	10	2.84167	4.08160E-002	4.46034E-002	5.67066E-004	...........
	11	3.1	4.20954E-002	4.55745E-002	5.72466E-004	...........
	12	3.35833	4.32998E-002	4.66345E-002	5.69166E-004	...........
	13	3.61667	4.44339E-002	4.77567E-002	5.68866E-004	...........
	14	3.875	4.55194E-002	4.87663E-002	5.68499E-004	...........
	15	4.13333	4.65774E-002	4.94979E-002	5.68266E-004	...........
	16	4.39167	4.76017E-002	5.05287E-002	5.69232E-004	...........
	17	4.65	4.85747E-002	5.12699E-002	5.68466E-004	...........
	18	4.90833	4.94961E-002	5.21516E-002	5.72032E-004	...........
EOC	QUANT	0.0494961	Open Circuit (V)
PSTATMODEL	IQUANT	4	Pstat Model
PSTATSECTION	LABEL	REF600-11020	Pstat Section
PSTATSERIALNO	LABEL	11020	Pstat Serial Number
CTRLMODE	IQUANT	1	Control Mode
IESTAB	IQUANT	0	I/E Stability
CASPEED	IQUANT	1	Control Amp Speed
CONVENTION	IQUANT	1	Current Convention
ICHRANGE	IQUANT	2	Ich Range
ICHRANGEMODE	TOGGLE	F	Ich Auto Range
ICHOFFSETENABLE	TOGGLE	T	Ich Offset Enable
ICHOFFSET	QUANT	0	Ich Offset (V)
ICHFILTER	IQUANT	3	Ich Filter
VCHRANGE	IQUANT	2	Vch Range
VCHRANGEMODE	TOGGLE	F	Vch Auto Range
VCHOFFSETENABLE	TOGGLE	T	Vch Offset Enable
VCHOFFSET	QUANT	0	Vch Offset (V)
VCHFILTER	IQUANT	3	Vch Filter
ACHRANGE	IQUANT	2	Ach Range
ACHOFFSETENABLE	TOGGLE	F	Ach Offset Enable
ACHOFFSET	QUANT	0	Ach Offset (V)
ACHFILTER	IQUANT	3	Ach Filter
IERANGELOWERLIMIT	IQUANT	1	I/E Range Lower Limit
IERANGEMODE	TOGGLE	F	I/E AutoRange
IERANGE	IQUANT	3	I/E Range
POSFEEDENABLE	TOGGLE	F	Positive Feedback IR Comp
POSFEEDRESISTANCE	QUANT	0	Positive Feedback Resistance (ohm)
ACHSELECT	IQUANT	0	Ach Select
CABLEID	IQUANT	14	Cable ID
DCCALDATE	LABEL	8/19/2019	DC Calibration Date
ACCALDATE	LABEL	8/19/2019	AC Calibration Date
THERMOSELECT	IQUANT	1	Thermo Select
FRAMEWORKVERSION	QUANT	6.33	Framework Version
INSTRUMENTVERSION	LABEL	3.50	Instrument Version
ZCURVE	TABLE
	Pt	Time	Freq	Zreal	Zimag	Zsig	Zmod	Zphz	Idc	Vdc	IERange
	#	s	Hz	ohm	ohm	V	ohm	°	A	V	#
	0	2	1000078	1493.323	-1692.373	1	2257.02	-48.57534	4.670797E-006	0.0509124	8
	1	3	794390.6	1622.993	-1934.404	1	2525.079	-50.00286	-6.766553E-006	0.0525644	8
	2	5	630984.4	1732.964	-2244.215	1	2835.43	-52.32498	1.570564E-006	0.0516111	8
	3	6	501234.4	1896.157	-2636.318	1	3247.397	-54.27464	-1.075653E-006	0.0516003	8
	4	8	398109.4	2094.541	-3160.986	1	3791.956	-56.47065	-9.404558E-007	0.0515039	8
	5	9	316265.6	2353.628	-3757.361	1	4433.659	-57.93678	-5.012526E-006	0.0523028	8
	6	11	251203.1	2690.016	-4543.623	1	5280.217	-59.37268	4.354951E-006	0.0503567	8
	7	12	199546.9	3193.283	-5434.611	1	6303.336	-59.56224	-2.726219E-006	0.0514885	8
	8	14	158578.1	3838.344	-6534.894	1	7578.768	-59.57167	4.795975E-007	0.0509533	8
	9	15	125953.1	4971.326	-7638.012	1	9113.358	-56.94125	5.026345E-007	0.0497812	7
	10	17	100078.1	6213.399	-8844.253	1	10808.66	-54.91061	9.286262E-008	0.051055	7
	11	18	79453.13	7857.146	-10010.33	1	12725.62	-51.87148	4.184755E-008	0.0510421	7
	12	20	63140.62	9832.97	-10991.76	1	14748.09	-48.18495	-9.16096E-009	0.0511488	7
	13	21	50203.12	12099	-11678.24	1	16815.68	-43.98619	-6.842196E-009	0.0511257	7
	14	22	39890.62	14508.25	-11912.33	1	18772.13	-39.38848	-6.300156E-008	0.0512198	7
	15	24	31640.63	16880.71	-11847.59	1	20623.38	-35.0628	-7.637608E-009	0.05114	7
	16	25	25171.88	19070.86	-11444.62	1	22241.34	-30.9684	-8.788292E-008	0.0512252	7
	17	26	20015.62	21027.29	-10789.41	1	23633.84	-27.16303	-7.375843E-009	0.0511421	7
	18	28	15890.62	22665.81	-10059.66	1	24797.9	-23.93285	-4.766978E-008	0.051129	7
	19	29	12609.37	24304.95	-9038.444	1	25931.14	-20.399	-6.326058E-009	0.0510019	6
	20	30	10078.13	25498.11	-8458.34	1	26864.42	-18.35193	-1.299831E-008	0.0511398	6
	21	32	8015.625	26521.55	-7930.528	1	27681.87	-16.64782	-9.442698E-009	0.0512197	6
	22	33	6328.125	27484.35	-7468.15	1	28480.92	-15.20159	-5.362509E-010	0.0509238	6
	23	34	5015.625	28354.96	-7171.788	1	29247.88	-14.19407	-1.512529E-008	0.0511397	6
	24	36	3984.375	29147.12	-6971.106	1	29969.16	-13.45074	-8.860749E-009	0.0511373	6
	25	37	3170.956	29930.59	-6895.398	1	30714.6	-12.97342	1.521341E-008	0.0507917	6
	26	38	2527.573	30672.89	-6902.413	1	31439.94	-12.68218	1.671298E-008	0.0506674	6
	27	39	1976.103	31515.02	-7051.965	1	32294.38	-12.61303	2.612896E-009	0.0510275	6
	28	41	1577.524	32210.81	-7240.121	1	33014.47	-12.668	-1.58693E-008	0.0511395	6
	29	42	1265.625	32916.7	-7570.771	1	33776.11	-12.95265	1.612259E-008	0.0506705	6
	30	44	998.264	33775.34	-8104.583	1	34734.1	-13.49333	6.73424E-009	0.0510149	6
	31	45	796.875	34551.36	-8736.392	1	35638.76	-14.18995	1.640981E-008	0.0506644	6
	32	46	627.7902	35386.52	-9617.59	1	36670.21	-15.20495	1.173633E-009	0.0510978	6
	33	48	505.5147	36257.72	-10634.91	1	37785.23	-16.34716	1.665671E-008	0.0506685	6
	34	49	397.9953	37187.62	-12011.43	1	39079.32	-17.90021	-1.769243E-009	0.051047	6
	35	50	315.5048	38216.63	-13699.55	1	40597.89	-19.72129	-2.912478E-009	0.0510444	6
	36	52	252.4038	39356.93	-15683.15	1	42366.6	-21.72654	-2.559427E-009	0.0510377	6
	37	53	198.6229	40723.79	-18299.87	1	44646.52	-24.19751	-2.028697E-009	0.0510434	6
	38	54	158.3615	42250.45	-21343.63	1	47335.52	-26.8015	-2.133451E-009	0.0510363	6
	39	56	125.558	44070.66	-24994.91	1	50665.26	-29.55997	-1.961456E-009	0.051045	6
	40	57	100.4464	46318.44	-29218.68	1	54764.3	-32.24462	-1.883198E-009	0.0510387	6
	41	58	79.00281	49155.32	-34667.79	1	60150.65	-35.19418	-2.381214E-009	0.0510351	6
	42	60	63.3446	50740.8	-40126.78	1	64689.93	-38.33761	-2.608462E-009	0.0510361	6
	43	61	49.86702	56429.73	-47547.91	1	73791.04	-40.11762	-1.38E-009	0.051032	6
	44	62	39.72458	60038.3	-56304.85	1	82309.38	-43.16201	-1.661601E-009	0.0510391	6
	45	64	31.6723	65885.15	-65907.8	1	93191.69	-45.00985	-1.514654E-009	0.0510332	6
	46	65	24.93351	72573.25	-77875.63	1	106449.5	-47.01848	-2.640763E-009	0.051041	5
	47	67	19.86229	80396.78	-91153.48	1	121542.6	-48.58792	-2.560779E-009	0.0510371	5
	48	68	15.83615	89331.9	-105087.5	1	137925.9	-49.63307	-1.640082E-009	0.0510373	5
	49	69	12.40079	102937.5	-123110.5	1	160475.3	-50.09969	-8.068636E-010	0.0510337	5
	50	71	9.93114	116199.9	-143506.5	1	184652.5	-51.00227	-2.023575E-009	0.0510427	5
	51	72	7.944915	131045.1	-165607.2	1	211183.7	-51.64539	-1.408182E-009	0.0510346	5
	52	74	6.317385	151093.5	-189567.7	1	242415.2	-51.44368	-1.793828E-009	0.0510309	5
	53	76	5.008013	173698.9	-217853.6	1	278624.3	-51.43396	-2.539882E-009	0.051033	5
	54	78	3.945707	200870.5	-250327.1	1	320955.8	-51.25533	-2.200366E-009	0.0510415	5
	55	81	3.158693	229791.1	-284937.3	1	366050.9	-51.11514	-2.539002E-009	0.0510255	5
	56	84	2.504006	265345	-324815.5	1	419419.9	-50.75427	-1.85103E-009	0.0510302	5
	57	87	1.998082	304022.5	-367265.5	1	476774.2	-50.38203	-2.546348E-009	0.0510596	5
	58	90	1.584686	351250.5	-416374.8	1	544742.9	-49.84928	-2.120078E-009	0.0510839	5
	59	94	1.266892	401287.8	-468747	1	617054	-49.43362	-2.553027E-009	0.0510432	5
	60	98	0.999041	462855.4	-529733	1	703457.3	-48.85459	-1.798907E-009	0.0510514	5
