EXPLAIN
TAG	EISPOT
TITLE	LABEL	Potentiostatic EIS	Test &Identifier
DATE	LABEL	10/18/2019	Date
TIME	LABEL	9:38:23	Time
NOTES	NOTES	1	&Notes...
	
PSTAT	PSTAT	REF600-11020	Potentiostat
VDC	POTEN	0.00000E+000	T	DC &Voltage (V)
FREQINIT	QUANT	1.00000E+006	Initial Fre&q. (Hz)
FREQFINAL	QUANT	1.00000E+000	Final Fre&q. (Hz)
PTSPERDEC	QUANT	1.00000E+001	Points/&decade
VAC	QUANT	2.50000E+001	AC &Voltage (mV rms)
AREA	QUANT	1.00000E-002	&Area (cm^2)
CONDIT	TWOPARAM	T	5.00000E+000	0.00000E+000	Conditionin&g	Time(s)	E(V)
DELAY	TWOPARAM	T	5.00000E+000	0.00000E+000	Init. De&lay	Time(s)	Stab.(mV/s)
SPEED	SELECTOR	0	&Optimize for:
ZGUESS	QUANT	1.00000E+005	E&stimated Z (ohms)
OCVCURVE	TABLE	19
	Pt	T	Vf	Vm	Ach	Over
	#	s	V vs. Ref.	V	V	bits
	0	0.258333	6.45271E-003	6.45271E-003	5.28433E-004	...........
	1	0.516667	6.45437E-003	6.53970E-003	5.28333E-004	...........
	2	0.775	6.46475E-003	6.63120E-003	5.27100E-004	...........
	3	1.03333	6.49489E-003	6.73024E-003	5.34666E-004	...........
	4	1.29167	6.55061E-003	6.81154E-003	5.30400E-004	...........
	5	1.55	6.62688E-003	6.89016E-003	5.29333E-004	...........
	6	1.80833	6.71341E-003	7.00641E-003	5.37299E-004	...........
	7	2.06667	6.80359E-003	7.09208E-003	5.36466E-004	...........
	8	2.325	6.89570E-003	7.16346E-003	5.41033E-004	...........
	9	2.58333	6.98718E-003	7.22898E-003	5.41133E-004	...........
	10	2.84167	7.07330E-003	7.29084E-003	5.34333E-004	...........
	11	3.1	7.15105E-003	7.35073E-003	5.40399E-004	...........
	12	3.35833	7.22065E-003	7.39985E-003	5.30900E-004	...........
	13	3.61667	7.28364E-003	7.44907E-003	5.32533E-004	...........
	14	3.875	7.34124E-003	7.49775E-003	5.31466E-004	...........
	15	4.13333	7.39546E-003	7.59207E-003	5.34500E-004	...........
	16	4.39167	7.45078E-003	7.65365E-003	5.33733E-004	...........
	17	4.65	7.51047E-003	7.66181E-003	5.34933E-004	...........
	18	4.90833	7.57061E-003	7.71067E-003	5.33800E-004	...........
EOC	QUANT	0.0075706	Open Circuit (V)
PSTATMODEL	IQUANT	4	Pstat Model
PSTATSECTION	LABEL	REF600-11020	Pstat Section
PSTATSERIALNO	LABEL	11020	Pstat Serial Number
CTRLMODE	IQUANT	1	Control Mode
IESTAB	IQUANT	0	I/E Stability
CASPEED	IQUANT	1	Control Amp Speed
CONVENTION	IQUANT	1	Current Convention
ICHRANGE	IQUANT	2	Ich Range
ICHRANGEMODE	TOGGLE	F	Ich Auto Range
ICHOFFSETENABLE	TOGGLE	T	Ich Offset Enable
ICHOFFSET	QUANT	0	Ich Offset (V)
ICHFILTER	IQUANT	3	Ich Filter
VCHRANGE	IQUANT	2	Vch Range
VCHRANGEMODE	TOGGLE	F	Vch Auto Range
VCHOFFSETENABLE	TOGGLE	T	Vch Offset Enable
VCHOFFSET	QUANT	0	Vch Offset (V)
VCHFILTER	IQUANT	3	Vch Filter
ACHRANGE	IQUANT	2	Ach Range
ACHOFFSETENABLE	TOGGLE	F	Ach Offset Enable
ACHOFFSET	QUANT	0	Ach Offset (V)
ACHFILTER	IQUANT	3	Ach Filter
IERANGELOWERLIMIT	IQUANT	1	I/E Range Lower Limit
IERANGEMODE	TOGGLE	F	I/E AutoRange
IERANGE	IQUANT	5	I/E Range
POSFEEDENABLE	TOGGLE	F	Positive Feedback IR Comp
POSFEEDRESISTANCE	QUANT	0	Positive Feedback Resistance (ohm)
ACHSELECT	IQUANT	0	Ach Select
CABLEID	IQUANT	14	Cable ID
DCCALDATE	LABEL	8/19/2019	DC Calibration Date
ACCALDATE	LABEL	8/19/2019	AC Calibration Date
THERMOSELECT	IQUANT	1	Thermo Select
FRAMEWORKVERSION	QUANT	6.33	Framework Version
INSTRUMENTVERSION	LABEL	3.50	Instrument Version
ZCURVE	TABLE
	Pt	Time	Freq	Zreal	Zimag	Zsig	Zmod	Zphz	Idc	Vdc	IERange
	#	s	Hz	ohm	ohm	V	ohm	°	A	V	#
	0	2	1000078	2586.028	-1290.477	1	2890.133	-26.52006	2.829616E-006	0.0087406	8
	1	2	794390.6	2816.737	-1196.807	1	3060.45	-23.02021	8.53794E-007	0.0092648	8
	2	2	630984.4	3014.962	-1058.794	1	3195.472	-19.35024	1.779473E-006	0.0086853	8
	3	2	501234.4	3143.92	-926.0339	1	3277.465	-16.4122	-3.624682E-006	0.009882	8
	4	3	398109.4	3255.925	-783.8516	1	3348.95	-13.53615	1.27515E-006	0.0088771	8
	5	3	316265.6	3323.712	-684.5323	1	3393.471	-11.63758	-3.146605E-006	0.0095773	8
	6	3	251203.1	3390.624	-584.8458	1	3440.694	-9.7866	1.845659E-006	0.0085834	8
	7	4	199546.9	3433.71	-506.9013	1	3470.924	-8.397635	1.009691E-006	0.0088869	8
	8	4	158578.1	3472.249	-454.7461	1	3501.901	-7.461325	-2.913569E-006	0.0095301	8
	9	4	125953.1	3531.506	-360.246	1	3549.833	-5.824547	5.710603E-007	0.0076474	7
	10	5	100078.1	3551.25	-339.4867	1	3567.44	-5.460676	3.376474E-008	0.0090503	7
	11	5	79453.13	3578.609	-336.0143	1	3594.35	-5.364072	1.338565E-007	0.0088676	7
	12	5	63140.62	3606.86	-339.271	1	3622.781	-5.373585	-1.685306E-008	0.0091219	7
	13	6	50203.12	3637.262	-349.0364	1	3653.97	-5.481394	3.785437E-008	0.0089436	7
	14	6	39890.62	3668.551	-365.8535	1	3686.749	-5.695105	1.350348E-007	0.0088689	7
	15	6	31640.63	3704.66	-393.0536	1	3725.452	-6.056259	1.329595E-007	0.0088608	7
	16	7	25171.88	3743.611	-426.5965	1	3767.839	-6.500996	-1.197745E-008	0.0091156	7
	17	7	20015.62	3784.898	-475.4474	1	3814.643	-7.159821	-1.546856E-008	0.009036	7
	18	7	15890.62	3833.35	-520.7266	1	3868.556	-7.735774	7.916313E-008	0.0090185	7
	19	8	12609.37	3883.761	-587.7247	1	3927.979	-8.605208	1.180862E-008	0.0089883	7
	20	8	10078.13	3937.965	-657.1428	1	3992.418	-9.473863	1.339065E-007	0.0088579	7
	21	8	8015.625	3995.808	-737.5039	1	4063.299	-10.45736	-3.807157E-008	0.0090891	7
	22	9	6328.125	4064.813	-852.4666	1	4153.24	-11.84433	-3.889828E-008	0.0090837	7
	23	9	5015.625	4137.953	-981.786	1	4252.829	-13.3474	-7.733163E-008	0.0091863	7
	24	9	3984.375	4199.676	-1130.211	1	4349.098	-15.0625	-5.364407E-008	0.0092216	7
	25	9	3170.956	4295.966	-1320.286	1	4494.272	-17.08385	-3.904205E-008	0.0090846	7
	26	10	2527.573	4388.438	-1541.598	1	4651.335	-19.35567	8.017419E-008	0.0090144	7
	27	10	1976.103	4496.529	-1839.324	1	4858.177	-22.24722	-4.036723E-008	0.0090806	7
	28	10	1577.524	4582.766	-2173.448	1	5072.043	-25.37338	3.294902E-008	0.009023	7
	29	11	1265.625	4728.327	-2561.185	1	5377.429	-28.443	-1.338073E-008	0.0090215	7
	30	11	998.264	4875.405	-3079.417	1	5766.488	-32.27744	3.421221E-008	0.0090199	7
	31	11	796.875	5030.5	-3681.762	1	6233.884	-36.19994	3.519463E-008	0.0090215	7
	32	12	627.7902	5217.938	-4468.174	1	6869.604	-40.57378	1.422581E-008	0.0089807	7
	33	12	505.5147	5398.605	-5342.303	1	7595.073	-44.69967	6.40176E-008	0.0089495	7
	34	12	397.9953	5648.439	-6539.075	1	8640.854	-49.17962	3.267126E-009	0.0090797	7
	35	13	315.5048	5929.967	-7981.367	1	9943.17	-53.38852	1.389179E-009	0.0090753	7
	36	13	252.4038	6255.996	-9689.22	1	11533.37	-57.15107	8.238148E-010	0.009011	6
	37	13	198.6229	6693.396	-11961.82	1	13707.18	-60.77022	4.261532E-010	0.0090158	6
	38	14	158.3615	7223.058	-14618.38	1	16305.51	-63.70566	-4.360915E-010	0.0090057	6
	39	14	125.558	7909.052	-17963.77	1	19627.79	-66.23716	1.83465E-011	0.0090094	6
	40	14	100.4464	8752.994	-21860.37	1	23547.62	-68.1786	1.486678E-009	0.0090062	6
	41	15	79.00281	10038.38	-26992.59	1	28798.77	-69.60013	9.765078E-010	0.0090048	6
	42	15	63.3446	11368.71	-33374.34	1	35257.54	-71.18899	-8.306547E-010	0.0090062	6
	43	15	49.86702	13389.46	-40866.87	1	43004.4	-71.85934	1.242036E-009	0.0090046	6
	44	16	39.72458	16262.66	-49280.36	1	51894.39	-71.73696	1.655284E-010	0.0090096	6
	45	16	31.6723	19708.91	-59523.76	1	62701.82	-71.67978	2.30243E-010	0.0090077	6
	46	16	24.93351	24311.77	-72794.37	1	76746.87	-71.53178	3.333185E-010	0.0090029	6
	47	17	19.86229	30118.26	-87470.29	1	92510.33	-71.00011	8.095357E-010	0.0090089	6
	48	17	15.83615	36681.41	-104906.6	1	111134.7	-70.72742	2.962434E-010	0.0090061	5
	49	17	12.40079	46071.37	-127901.9	1	135946.6	-70.19054	-9.888723E-010	0.0090063	5
	50	18	9.93114	59354.7	-150266.9	1	161564.6	-68.44621	-2.646796E-010	0.0090058	5
	51	18	7.944915	72294.05	-176721.2	1	190936.6	-67.75124	-1.090211E-009	0.0090121	5
	52	19	6.317385	90781.67	-208801.4	1	227682.5	-66.50179	-5.7592E-010	0.0090236	5
	53	20	5.008013	112729.7	-245907.7	1	270515.4	-65.37221	-3.821065E-010	0.0090064	5
	54	21	3.945707	139294.8	-288928.5	1	320753.3	-64.26091	-1.463337E-010	0.0090036	5
	55	22	3.158693	169454.2	-334840.8	1	375277.3	-63.15721	2.797325E-011	0.0090317	5
	56	24	2.504006	206639.7	-389417.2	1	440846.5	-62.04786	-1.909933E-010	0.0090229	5
	57	25	1.998082	247595	-449122.4	1	512849.1	-61.13266	-1.406521E-010	0.0089964	5
	58	27	1.584686	298573	-517703.8	1	597631.1	-60.02685	-1.562142E-011	0.0090427	5
	59	28	1.266892	354753.3	-594452.8	1	692260.1	-59.17239	1.179865E-011	0.0090449	5
	60	31	0.999041	421926	-685964	1	805337.3	-58.40496	2.974865E-011	0.0090373	5
