EXPLAIN
TAG	EISPOT
TITLE	LABEL	Potentiostatic EIS	Test &Identifier
DATE	LABEL	10/16/2019	Date
TIME	LABEL	9:39:20	Time
NOTES	NOTES	1	&Notes...
	
PSTAT	PSTAT	REF600-11020	Potentiostat
VDC	POTEN	0.00000E+000	T	DC &Voltage (V)
FREQINIT	QUANT	1.00000E+006	Initial Fre&q. (Hz)
FREQFINAL	QUANT	1.00000E+000	Final Fre&q. (Hz)
PTSPERDEC	QUANT	1.00000E+001	Points/&decade
VAC	QUANT	2.50000E+001	AC &Voltage (mV rms)
AREA	QUANT	1.00000E-002	&Area (cm^2)
CONDIT	TWOPARAM	T	5.00000E+000	0.00000E+000	Conditionin&g	Time(s)	E(V)
DELAY	TWOPARAM	T	5.00000E+000	0.00000E+000	Init. De&lay	Time(s)	Stab.(mV/s)
SPEED	SELECTOR	0	&Optimize for:
ZGUESS	QUANT	1.00000E+005	E&stimated Z (ohms)
OCVCURVE	TABLE	19
	Pt	T	Vf	Vm	Ach	Over
	#	s	V vs. Ref.	V	V	bits
	0	0.258333	6.31732E-003	6.31732E-003	5.51832E-004	...........
	1	0.516667	6.31252E-003	6.06643E-003	5.53833E-004	...........
	2	0.775	6.28388E-003	5.86999E-003	5.55433E-004	...........
	3	1.03333	6.20599E-003	5.70782E-003	5.61566E-004	...........
	4	1.29167	6.07432E-003	5.57346E-003	5.63132E-004	...........
	5	1.55	5.91239E-003	5.45882E-003	5.61799E-004	...........
	6	1.80833	5.74979E-003	5.35175E-003	5.57299E-004	...........
	7	2.06667	5.60358E-003	5.25697E-003	5.54666E-004	...........
	8	2.325	5.47740E-003	5.18328E-003	5.56933E-004	...........
	9	2.58333	5.36909E-003	5.11747E-003	5.44733E-004	...........
	10	2.84167	5.27615E-003	5.05876E-003	5.50666E-004	...........
	11	3.1	5.19653E-003	5.00959E-003	5.54533E-004	...........
	12	3.35833	5.12806E-003	4.96213E-003	5.52266E-004	...........
	13	3.61667	5.06856E-003	4.92165E-003	5.51966E-004	...........
	14	3.875	5.01604E-003	4.87793E-003	5.56466E-004	...........
	15	4.13333	4.96859E-003	4.83820E-003	5.59532E-004	...........
	16	4.39167	4.92459E-003	4.80450E-003	5.51899E-004	...........
	17	4.65	4.88343E-003	4.78055E-003	5.51166E-004	...........
	18	4.90833	4.84569E-003	4.74993E-003	5.53633E-004	...........
EOC	QUANT	0.0048457	Open Circuit (V)
PSTATMODEL	IQUANT	4	Pstat Model
PSTATSECTION	LABEL	REF600-11020	Pstat Section
PSTATSERIALNO	LABEL	11020	Pstat Serial Number
CTRLMODE	IQUANT	1	Control Mode
IESTAB	IQUANT	0	I/E Stability
CASPEED	IQUANT	1	Control Amp Speed
CONVENTION	IQUANT	1	Current Convention
ICHRANGE	IQUANT	2	Ich Range
ICHRANGEMODE	TOGGLE	F	Ich Auto Range
ICHOFFSETENABLE	TOGGLE	T	Ich Offset Enable
ICHOFFSET	QUANT	0	Ich Offset (V)
ICHFILTER	IQUANT	3	Ich Filter
VCHRANGE	IQUANT	2	Vch Range
VCHRANGEMODE	TOGGLE	F	Vch Auto Range
VCHOFFSETENABLE	TOGGLE	T	Vch Offset Enable
VCHOFFSET	QUANT	0	Vch Offset (V)
VCHFILTER	IQUANT	3	Vch Filter
ACHRANGE	IQUANT	2	Ach Range
ACHOFFSETENABLE	TOGGLE	F	Ach Offset Enable
ACHOFFSET	QUANT	0	Ach Offset (V)
ACHFILTER	IQUANT	3	Ach Filter
IERANGELOWERLIMIT	IQUANT	1	I/E Range Lower Limit
IERANGEMODE	TOGGLE	F	I/E AutoRange
IERANGE	IQUANT	4	I/E Range
POSFEEDENABLE	TOGGLE	F	Positive Feedback IR Comp
POSFEEDRESISTANCE	QUANT	0	Positive Feedback Resistance (ohm)
ACHSELECT	IQUANT	0	Ach Select
CABLEID	IQUANT	14	Cable ID
DCCALDATE	LABEL	8/19/2019	DC Calibration Date
ACCALDATE	LABEL	8/19/2019	AC Calibration Date
THERMOSELECT	IQUANT	1	Thermo Select
FRAMEWORKVERSION	QUANT	6.33	Framework Version
INSTRUMENTVERSION	LABEL	3.50	Instrument Version
ZCURVE	TABLE
	Pt	Time	Freq	Zreal	Zimag	Zsig	Zmod	Zphz	Idc	Vdc	IERange
	#	s	Hz	ohm	ohm	V	ohm	°	A	V	#
	0	1	1000078	2480.311	-1757.881	1	3040.08	-35.3265	-4.710451E-006	0.0074183	8
	1	1	794390.6	2806.41	-1719.918	1	3291.512	-31.5022	3.760632E-006	0.0062198	8
	2	2	630984.4	3116.753	-1642.309	1	3522.972	-27.78607	3.129224E-006	0.0056815	8
	3	2	501234.4	3407.188	-1508.645	1	3726.25	-23.88295	1.271984E-006	0.0060589	8
	4	2	398109.4	3634.013	-1400.236	1	3894.447	-21.07237	-2.542133E-006	0.0068921	8
	5	3	316265.6	3824.7	-1271.366	1	4030.471	-18.38729	7.706163E-007	0.0061891	8
	6	3	251203.1	3989.611	-1142.576	1	4149.998	-15.98106	6.321557E-007	0.0063235	8
	7	3	199546.9	4115.336	-1034.935	1	4243.476	-14.11616	1.334413E-006	0.006109	8
	8	4	158578.1	4223.259	-949.5981	1	4328.701	-12.67218	5.998915E-007	0.0063351	8
	9	4	125953.1	4346.967	-821.1415	1	4423.844	-10.69712	3.342823E-007	0.0054095	7
	10	4	100078.1	4423.045	-790.6751	1	4493.161	-10.13529	-4.407869E-008	0.0063896	7
	11	5	79453.13	4499.696	-777.647	1	4566.399	-9.80512	-3.374443E-008	0.0063358	7
	12	5	63140.62	4576.724	-778.5417	1	4642.47	-9.65411	-4.648212E-008	0.006382	7
	13	5	50203.12	4652.546	-795.0346	1	4719.986	-9.69713	-4.594766E-008	0.0063757	7
	14	6	39890.62	4731.973	-829.3308	1	4804.098	-9.94076	-5.56146E-008	0.0064233	7
	15	6	31640.63	4817.118	-879.049	1	4896.667	-10.34179	7.736208E-009	0.006257	7
	16	6	25171.88	4908.169	-945.425	1	4998.395	-10.90293	-2.580273E-008	0.0063121	7
	17	7	20015.62	5018.183	-1036.595	1	5124.128	-11.6713	-3.904457E-009	0.0063024	7
	18	7	15890.62	5117.118	-1134.268	1	5241.323	-12.49819	-5.428788E-008	0.0064163	7
	19	7	12609.37	5238.85	-1261.276	1	5388.54	-13.53659	3.991245E-008	0.0062704	7
	20	7	10078.13	5370.353	-1402.333	1	5550.426	-14.63457	-5.393782E-008	0.0064118	7
	21	8	8015.625	5505.628	-1565.4	1	5723.847	-15.87189	3.505241E-008	0.0062078	7
	22	8	6328.125	5695.645	-1781.088	1	5967.633	-17.36501	6.88289E-008	0.0061756	7
	23	8	5015.625	5893.615	-2020.275	1	6230.265	-18.92123	-3.397029E-008	0.0063257	7
	24	9	3984.375	6122.618	-2228.296	1	6515.501	-19.99872	-5.754537E-008	0.0064943	7
	25	9	3170.956	6365.311	-2608.615	1	6879.103	-22.28467	4.933437E-008	0.0062329	7
	26	9	2527.573	6648.098	-2960.233	1	7277.375	-24.00223	1.016887E-007	0.0061637	7
	27	10	1976.103	6993.236	-3392.772	1	7772.79	-25.88037	-1.283022E-008	0.0062873	7
	28	10	1577.524	7355.566	-3898.173	1	8324.669	-27.92191	3.830471E-008	0.006264	7
	29	10	1265.625	7744.389	-4341.775	1	8878.433	-29.27652	1.013568E-007	0.0061652	7
	30	11	998.264	8191.855	-4946.28	1	9569.33	-31.12377	-3.097221E-009	0.006295	7
	31	11	796.875	8638.547	-5605.005	1	10297.6	-32.97698	-7.614794E-009	0.0063004	6
	32	11	627.7902	9122.622	-6440.261	1	11166.88	-35.22079	-1.437789E-009	0.0061638	6
	33	12	505.5147	9564.97	-7358.602	1	12068.05	-37.57209	-3.434749E-009	0.0062475	6
	34	12	397.9953	10056.53	-8606.355	1	13236.43	-40.55685	5.699784E-010	0.0062717	6
	35	12	315.5048	10543.67	-10121.77	1	14615.72	-43.83041	7.524066E-010	0.0062692	6
	36	13	252.4038	11030.41	-11940.79	1	16255.84	-47.26953	-3.55974E-010	0.0062684	6
	37	13	198.6229	11598.58	-14401.2	1	18491.13	-51.15238	5.810553E-010	0.0062687	6
	38	13	158.3615	12213.42	-17329.09	1	21200.59	-54.82408	-1.496841E-010	0.0062631	6
	39	14	125.558	12958.72	-21061.76	1	24729.06	-58.39715	2.088067E-010	0.0062672	6
	40	14	100.4464	13869.38	-25496.97	1	29025.08	-61.4555	1.337524E-009	0.0062639	6
	41	14	79.00281	15030.74	-31555.71	1	34952.63	-64.53043	8.793561E-010	0.0062629	6
	42	15	63.3446	16463.56	-37681.38	1	41120.98	-66.39877	3.941892E-010	0.0062623	6
	43	15	49.86702	18500.06	-46771.45	1	50297.32	-68.41914	7.204817E-010	0.006262	6
	44	15	39.72458	20876.66	-57521.39	1	61192.69	-70.05228	2.098707E-010	0.0062668	6
	45	16	31.6723	24322.29	-70223.42	1	74316.23	-70.89617	1.321956E-010	0.006268	6
	46	16	24.93351	28639.64	-86237.98	1	90869.24	-71.62867	4.737104E-010	0.0062652	6
	47	16	19.86229	34086.63	-104655.4	1	110066.6	-71.95939	7.110634E-010	0.0062743	5
	48	17	15.83615	41921.84	-127149.8	1	133882.5	-71.75239	-7.567671E-010	0.0062691	5
	49	17	12.40079	52843.37	-156159.3	1	164858	-71.3045	1.119433E-009	0.006266	5
	50	17	9.93114	62549.87	-186670.5	1	196871.5	-71.47495	-3.689857E-011	0.0062705	5
	51	18	7.944915	76672.77	-223326.3	1	236121.5	-71.05154	4.126568E-010	0.0062643	5
	52	18	6.317385	95890.9	-267032.6	1	283727.8	-70.24689	1.798114E-010	0.0062634	5
	53	19	5.008013	120039	-319931.1	1	341709.3	-69.43378	7.289348E-011	0.0062648	5
	54	20	3.945707	150520.8	-383495.6	1	411977.4	-68.57016	1.194642E-010	0.0062711	5
	55	22	3.158693	186637.3	-453192.5	1	490119.3	-67.61677	-9.849125E-012	0.0062766	5
	56	23	2.504006	232879.1	-537331.1	1	585625.7	-66.56811	-4.821743E-011	0.0062658	5
	57	25	1.998082	289325.6	-629582	1	692880.1	-65.31876	1.186692E-010	0.0063052	5
	58	26	1.584686	358351.8	-738896.9	1	821209.3	-64.12744	1.02878E-010	0.0063006	5
	59	28	1.266892	440955.6	-855092.8	1	962094	-62.72067	6.654099E-011	0.0062568	5
	60	31	0.999041	549027.4	-994414	1	1135909	-61.09641	4.222499E-011	0.0062282	4
