EXPLAIN
TAG	EISPOT
TITLE	LABEL	Potentiostatic IDE	Test &Identifier
DATE	LABEL	9/16/2019	Date
TIME	LABEL	9:09:13	Time
NOTES	NOTES	1	&Notes...
	
PSTAT	PSTAT	REF600-11020	Potentiostat
VDC	POTEN	0.00000E+000	T	DC &Voltage (V)
FREQINIT	QUANT	1.00000E+006	Initial Fre&q. (Hz)
FREQFINAL	QUANT	1.00000E+000	Final Fre&q. (Hz)
PTSPERDEC	QUANT	1.00000E+001	Points/&decade
VAC	QUANT	2.50000E+001	AC &Voltage (mV rms)
AREA	QUANT	1.00000E-002	&Area (cm^2)
CONDIT	TWOPARAM	T	5.00000E+000	0.00000E+000	Conditionin&g	Time(s)	E(V)
DELAY	TWOPARAM	T	5.00000E+000	0.00000E+000	Init. De&lay	Time(s)	Stab.(mV/s)
SPEED	SELECTOR	1	&Optimize for:
ZGUESS	QUANT	1.00000E+007	E&stimated Z (ohms)
OCVCURVE	TABLE	19
	Pt	T	Vf	Vm	Ach	Over
	#	s	V vs. Ref.	V	V	bits
	0	0.258333	2.22351E-003	2.22351E-003	5.68232E-004	...........
	1	0.516667	2.21494E-003	1.77454E-003	5.71499E-004	...........
	2	0.775	2.16241E-003	1.35628E-003	5.69332E-004	...........
	3	1.03333	2.01508E-003	9.97374E-004	5.65432E-004	...........
	4	1.29167	1.75611E-003	6.61636E-004	5.66032E-004	...........
	5	1.55	1.42158E-003	3.72268E-004	5.69466E-004	...........
	6	1.80833	1.06544E-003	8.65673E-005	5.69066E-004	...........
	7	2.06667	7.23500E-004	-2.09737E-004	5.58966E-004	...........
	8	2.325	4.06224E-004	-4.55603E-004	5.63699E-004	...........
	9	2.58333	1.11614E-004	-6.54581E-004	5.64366E-004	...........
	10	2.84167	-1.61191E-004	-8.91696E-004	5.63066E-004	...........
	11	3.1	-4.11309E-004	-1.05984E-003	5.66666E-004	...........
	12	3.35833	-6.41318E-004	-1.31253E-003	5.71366E-004	...........
	13	3.61667	-8.52878E-004	-1.22500E-003	5.64866E-004	...........
	14	3.875	-1.03416E-003	-1.29327E-003	5.65099E-004	...........
	15	4.13333	-1.17015E-003	-1.55887E-003	5.67766E-004	...........
	16	4.39167	-1.27504E-003	-1.68870E-003	5.64266E-004	...........
	17	4.65	-1.39230E-003	-2.19320E-003	5.60332E-004	...........
	18	4.90833	-1.55504E-003	-1.99908E-003	5.66832E-004	...........
EOC	QUANT	-0.001555	Open Circuit (V)
PSTATMODEL	IQUANT	4	Pstat Model
PSTATSECTION	LABEL	REF600-11020	Pstat Section
PSTATSERIALNO	LABEL	11020	Pstat Serial Number
CTRLMODE	IQUANT	1	Control Mode
IESTAB	IQUANT	0	I/E Stability
CASPEED	IQUANT	1	Control Amp Speed
CONVENTION	IQUANT	1	Current Convention
ICHRANGE	IQUANT	2	Ich Range
ICHRANGEMODE	TOGGLE	F	Ich Auto Range
ICHOFFSETENABLE	TOGGLE	T	Ich Offset Enable
ICHOFFSET	QUANT	0	Ich Offset (V)
ICHFILTER	IQUANT	3	Ich Filter
VCHRANGE	IQUANT	2	Vch Range
VCHRANGEMODE	TOGGLE	F	Vch Auto Range
VCHOFFSETENABLE	TOGGLE	T	Vch Offset Enable
VCHOFFSET	QUANT	0	Vch Offset (V)
VCHFILTER	IQUANT	3	Vch Filter
ACHRANGE	IQUANT	2	Ach Range
ACHOFFSETENABLE	TOGGLE	F	Ach Offset Enable
ACHOFFSET	QUANT	0	Ach Offset (V)
ACHFILTER	IQUANT	3	Ach Filter
IERANGELOWERLIMIT	IQUANT	1	I/E Range Lower Limit
IERANGEMODE	TOGGLE	F	I/E AutoRange
IERANGE	IQUANT	2	I/E Range
POSFEEDENABLE	TOGGLE	F	Positive Feedback IR Comp
POSFEEDRESISTANCE	QUANT	0	Positive Feedback Resistance (ohm)
ACHSELECT	IQUANT	0	Ach Select
CABLEID	IQUANT	14	Cable ID
DCCALDATE	LABEL	8/19/2019	DC Calibration Date
ACCALDATE	LABEL	8/19/2019	AC Calibration Date
THERMOSELECT	IQUANT	1	Thermo Select
FRAMEWORKVERSION	QUANT	6.33	Framework Version
INSTRUMENTVERSION	LABEL	3.50	Instrument Version
ZCURVE	TABLE
	Pt	Time	Freq	Zreal	Zimag	Zsig	Zmod	Zphz	Idc	Vdc	IERange
	#	s	Hz	ohm	ohm	V	ohm	°	A	V	#
	0	2	1000078	2373.708	-2121.013	1	3183.266	-41.7822	2.13113E-006	0.0002491	8
	1	4	794390.6	2801.256	-2156.154	1	3534.973	-37.58583	-1.882521E-006	0.000864	8
	2	5	630984.4	3254.333	-2065.872	1	3854.674	-32.40765	-4.25702E-006	0.0013136	8
	3	7	501234.4	3649.225	-1934.471	1	4130.256	-27.92826	-4.840517E-006	0.0014611	8
	4	8	398109.4	3953.974	-1747.221	1	4322.811	-23.84015	7.494269E-007	0.0003393	8
	5	10	316265.6	4255.063	-1587.893	1	4541.692	-20.46443	-4.100496E-006	0.000984	8
	6	11	251203.1	4447.212	-1359.744	1	4650.44	-17.00112	-3.971408E-007	0.0003009	8
	7	13	199546.9	4593.241	-1196.853	1	4746.611	-14.60472	1.147685E-006	-0.0002396	8
	8	14	158578.1	4737.635	-1063.39	1	4855.51	-12.65071	-1.933787E-007	3.112344E-006	8
	9	16	125953.1	4856.466	-876.9042	1	4935	-10.23529	8.485319E-007	-0.0016411	7
	10	17	100078.1	4917.235	-804.6871	1	4982.643	-9.29386	-4.465531E-008	7.809023E-005	7
	11	19	79453.13	4984.544	-752.8284	1	5041.075	-8.588615	-8.372314E-008	0.000185	7
	12	20	63140.62	5044.987	-721.7424	1	5096.352	-8.141565	-5.627408E-008	0.0001682	7
	13	21	50203.12	5104.853	-712.8369	1	5154.383	-7.949327	9.687803E-008	-0.0001447	7
	14	23	39890.62	5168.933	-713.9247	1	5218.003	-7.863848	-5.662726E-008	0.0001687	7
	15	24	31640.63	5226.032	-748.9366	1	5279.424	-8.155464	4.745254E-008	2.005288E-006	7
	16	25	25171.88	5296.409	-793.1843	1	5355.473	-8.517254	-4.311606E-008	6.738721E-005	7
	17	27	20015.62	5366.98	-858.7167	1	5435.244	-9.090276	2.206317E-008	-5.180638E-005	7
	18	28	15890.62	5445.501	-936.4515	1	5525.434	-9.7576	-7.265839E-009	7.127775E-005	7
	19	30	12609.37	5536.36	-1043.086	1	5633.766	-10.66982	1.537499E-007	-0.0001842	7
	20	31	10078.13	5632.588	-1165.985	1	5752.006	-11.69544	9.5345E-008	-6.619512E-006	7
	21	32	8015.625	5735.174	-1317.881	1	5884.644	-12.9413	-5.598654E-008	0.0002159	7
	22	34	6328.125	5855.926	-1507.251	1	6046.791	-14.434	-1.750787E-008	0.0002033	7
	23	35	5015.625	5985.707	-1731.224	1	6231.037	-16.13126	-5.036877E-008	7.644173E-005	7
	24	37	3984.375	6128.274	-1994.479	1	6444.664	-18.02776	-1.21231E-008	9.35978E-005	7
	25	38	3170.956	6283.182	-2311.938	1	6695.031	-20.20143	-1.214403E-008	0.0000982	7
	26	39	2527.573	6458.507	-2690.733	1	6996.596	-22.61751	-6.888149E-009	7.523874E-005	7
	27	41	1976.103	6663.346	-3189.91	1	7387.537	-25.58161	-5.35145E-008	0.000225	7
	28	42	1577.524	6873.616	-3736.36	1	7823.489	-28.52762	9.977326E-008	-0.0001682	7
	29	44	1265.625	7106.573	-4387.914	1	8352.076	-31.69302	-4.873528E-008	7.331682E-005	7
	30	45	998.264	7387.152	-5244.76	1	9059.665	-35.37415	9.512502E-008	-3.476339E-006	7
	31	47	796.875	7693.379	-6227.811	1	9898.17	-38.99026	-1.184673E-008	6.880604E-005	6
	32	48	627.7902	8053.309	-7512.334	1	11013.22	-43.00952	-8.817376E-009	4.98766E-005	6
	33	49	505.5147	8421.355	-8935.854	1	12278.79	-46.69785	-8.828716E-009	5.447026E-005	6
	34	51	397.9953	8899.195	-10857.03	1	14038.19	-50.65952	8.557948E-010	7.464309E-007	6
	35	52	315.5048	9440.735	-13151.01	1	16188.78	-54.32652	4.248632E-010	-7.058296E-007	6
	36	54	252.4038	10052.15	-15856.02	1	18773.89	-57.62675	2.004673E-009	8.820214E-007	6
	37	55	198.6229	10838.87	-19422.57	1	22242.25	-60.83607	6.802731E-010	1.253229E-006	6
	38	56	158.3615	11740.64	-23570.52	1	26332.71	-63.52178	1.387541E-009	1.55863E-006	6
	39	58	125.558	12847.6	-28795.05	1	31531.18	-65.95483	7.114574E-010	2.673396E-006	6
	40	59	100.4464	14152.1	-34994.02	1	37747.36	-67.98086	1.56166E-009	-1.119716E-006	6
	41	61	79.00281	15799.01	-43022.57	1	45831.76	-69.83544	5.457224E-010	-3.203227E-006	6
	42	62	63.3446	18510.48	-51538.01	1	54761.34	-70.24365	1.09053E-009	-1.994817E-006	6
	43	64	49.86702	20320.58	-64250.05	1	67386.91	-72.44922	1.002939E-009	-4.558806E-007	6
	44	65	39.72458	24542.56	-78638.5	1	82379.31	-72.6672	8.702844E-010	2.004996E-006	6
	45	67	31.6723	28976.89	-95448.1	1	99749.7	-73.11234	5.027119E-010	8.554526E-007	6
	46	68	24.93351	35631.34	-117562.6	1	122843.6	-73.13878	2.897792E-010	1.340741E-006	5
	47	70	19.86229	43704.09	-142402.3	1	148958	-72.93845	7.854376E-010	9.083425E-008	5
	48	71	15.83615	52621.33	-171220.2	1	179123.9	-72.91617	-4.728523E-010	3.000974E-006	5
	49	72	12.40079	69454	-210754	1	221903.4	-71.76036	1.035029E-009	3.397982E-006	5
	50	74	9.93114	88823.2	-254394.4	1	269455.2	-70.75307	3.602778E-010	4.133604E-006	5
	51	76	7.944915	112901.2	-302739.5	1	323106.6	-69.54791	4.416791E-010	1.022984E-006	5
	52	77	6.317385	145549	-359347.6	1	387705	-67.95023	1.146476E-010	-1.132092E-005	5
	53	79	5.008013	187515.9	-425616.8	1	465093.4	-66.22293	2.504003E-010	1.301735E-005	5
	54	82	3.945707	242534.8	-499436.5	1	555211.6	-64.09801	9.297555E-011	-7.753515E-007	5
	55	85	3.158693	304576.3	-574716.7	1	650435.2	-62.07825	3.369649E-010	2.408407E-005	5
	56	88	2.504006	382638.8	-658883	1	761931.3	-59.85461	1.399594E-010	-1.501352E-006	5
	57	91	1.998082	469573	-744331.3	1	880072.6	-57.75359	1.397481E-010	5.130619E-005	5
	58	94	1.584686	569529.5	-838488.6	1	1013621	-55.81434	2.789818E-010	2.040337E-005	4
	59	98	1.266892	678984.3	-931547.3	1	1152736	-53.91252	1.404995E-010	5.032827E-005	4
	60	102	0.999041	805760.4	-1043488	1	1318377	-52.32541	2.874297E-010	-3.373472E-005	4
