EXPLAIN
TAG	EISPOT
TITLE	LABEL	Potentiostatic EIS	Test &Identifier
DATE	LABEL	10/18/2019	Date
TIME	LABEL	9:28:23	Time
NOTES	NOTES	1	&Notes...
	
PSTAT	PSTAT	REF600-11020	Potentiostat
VDC	POTEN	0.00000E+000	T	DC &Voltage (V)
FREQINIT	QUANT	1.00000E+006	Initial Fre&q. (Hz)
FREQFINAL	QUANT	1.00000E+000	Final Fre&q. (Hz)
PTSPERDEC	QUANT	1.00000E+001	Points/&decade
VAC	QUANT	2.50000E+001	AC &Voltage (mV rms)
AREA	QUANT	1.00000E-002	&Area (cm^2)
CONDIT	TWOPARAM	T	5.00000E+000	0.00000E+000	Conditionin&g	Time(s)	E(V)
DELAY	TWOPARAM	T	5.00000E+000	0.00000E+000	Init. De&lay	Time(s)	Stab.(mV/s)
SPEED	SELECTOR	0	&Optimize for:
ZGUESS	QUANT	1.00000E+005	E&stimated Z (ohms)
OCVCURVE	TABLE	19
	Pt	T	Vf	Vm	Ach	Over
	#	s	V vs. Ref.	V	V	bits
	0	0.258333	5.60251E-003	5.60251E-003	5.45266E-004	...........
	1	0.516667	5.60069E-003	5.50720E-003	5.56233E-004	...........
	2	0.775	5.59002E-003	5.44386E-003	5.51933E-004	...........
	3	1.03333	5.56155E-003	5.38244E-003	5.53366E-004	...........
	4	1.29167	5.51403E-003	5.33089E-003	5.49766E-004	...........
	5	1.55	5.45596E-003	5.30405E-003	5.58466E-004	...........
	6	1.80833	5.39915E-003	5.30707E-003	5.56066E-004	...........
	7	2.06667	5.35354E-003	5.30480E-003	5.53366E-004	...........
	8	2.325	5.32420E-003	5.30607E-003	5.46866E-004	...........
	9	2.58333	5.30962E-003	5.29871E-003	5.56699E-004	...........
	10	2.84167	5.30421E-003	5.30747E-003	5.56233E-004	...........
	11	3.1	5.30300E-003	5.30918E-003	5.58599E-004	...........
	12	3.35833	5.30410E-003	5.32782E-003	5.53799E-004	...........
	13	3.61667	5.30783E-003	5.33363E-003	5.54366E-004	...........
	14	3.875	5.31442E-003	5.33779E-003	5.57432E-004	...........
	15	4.13333	5.32260E-003	5.34257E-003	5.54799E-004	...........
	16	4.39167	5.33060E-003	5.35687E-003	5.54666E-004	...........
	17	4.65	5.33805E-003	5.36254E-003	5.56333E-004	...........
	18	4.90833	5.34568E-003	5.36973E-003	5.47999E-004	...........
EOC	QUANT	0.0053457	Open Circuit (V)
PSTATMODEL	IQUANT	4	Pstat Model
PSTATSECTION	LABEL	REF600-11020	Pstat Section
PSTATSERIALNO	LABEL	11020	Pstat Serial Number
CTRLMODE	IQUANT	1	Control Mode
IESTAB	IQUANT	0	I/E Stability
CASPEED	IQUANT	1	Control Amp Speed
CONVENTION	IQUANT	1	Current Convention
ICHRANGE	IQUANT	2	Ich Range
ICHRANGEMODE	TOGGLE	F	Ich Auto Range
ICHOFFSETENABLE	TOGGLE	T	Ich Offset Enable
ICHOFFSET	QUANT	0	Ich Offset (V)
ICHFILTER	IQUANT	3	Ich Filter
VCHRANGE	IQUANT	2	Vch Range
VCHRANGEMODE	TOGGLE	F	Vch Auto Range
VCHOFFSETENABLE	TOGGLE	T	Vch Offset Enable
VCHOFFSET	QUANT	0	Vch Offset (V)
VCHFILTER	IQUANT	3	Vch Filter
ACHRANGE	IQUANT	2	Ach Range
ACHOFFSETENABLE	TOGGLE	F	Ach Offset Enable
ACHOFFSET	QUANT	0	Ach Offset (V)
ACHFILTER	IQUANT	3	Ach Filter
IERANGELOWERLIMIT	IQUANT	1	I/E Range Lower Limit
IERANGEMODE	TOGGLE	F	I/E AutoRange
IERANGE	IQUANT	5	I/E Range
POSFEEDENABLE	TOGGLE	F	Positive Feedback IR Comp
POSFEEDRESISTANCE	QUANT	0	Positive Feedback Resistance (ohm)
ACHSELECT	IQUANT	0	Ach Select
CABLEID	IQUANT	14	Cable ID
DCCALDATE	LABEL	8/19/2019	DC Calibration Date
ACCALDATE	LABEL	8/19/2019	AC Calibration Date
THERMOSELECT	IQUANT	1	Thermo Select
FRAMEWORKVERSION	QUANT	6.33	Framework Version
INSTRUMENTVERSION	LABEL	3.50	Instrument Version
ZCURVE	TABLE
	Pt	Time	Freq	Zreal	Zimag	Zsig	Zmod	Zphz	Idc	Vdc	IERange
	#	s	Hz	ohm	ohm	V	ohm	°	A	V	#
	0	2	1000078	2366.126	-1214.653	1	2659.687	-27.17373	2.090117E-006	0.0067181	8
	1	2	794390.6	2570.307	-1141.073	1	2812.21	-23.93855	-3.191145E-006	0.0077137	8
	2	2	630984.4	2760.2	-1007.938	1	2938.476	-20.06061	2.111377E-006	0.0065927	8
	3	3	501234.4	2903.625	-880.3843	1	3034.157	-16.8674	8.113332E-007	0.0066712	8
	4	3	398109.4	3009.287	-757.5683	1	3103.179	-14.13022	1.326962E-006	0.0068011	8
	5	3	316265.6	3084.074	-645.6118	1	3150.925	-11.82341	-3.417505E-007	0.0068626	8
	6	4	251203.1	3141.18	-558.3669	1	3190.421	-10.07945	-2.900937E-006	0.0073307	8
	7	4	199546.9	3194.214	-479.7143	1	3230.035	-8.540979	3.883197E-006	0.0062845	8
	8	4	158578.1	3231.508	-419.668	1	3258.645	-7.399449	-2.926544E-006	0.0073258	8
	9	5	125953.1	3304.243	-321.75	1	3319.871	-5.561631	6.327788E-007	0.0055889	7
	10	5	100078.1	3294.652	-298.5881	1	3308.155	-5.178463	8.124466E-008	0.0068014	7
	11	5	79453.13	3316.729	-287.0218	1	3329.125	-4.945918	-6.60637E-009	0.0068606	7
	12	6	63140.62	3340.625	-283.8672	1	3352.664	-4.857	-1.125077E-008	0.0067977	7
	13	6	50203.12	3362.82	-287.5896	1	3375.094	-4.888062	7.45172E-008	0.0066857	7
	14	6	39890.62	3388.134	-296.5792	1	3401.09	-5.002615	-7.101202E-008	0.0069539	7
	15	6	31640.63	3414.549	-313.287	1	3428.891	-5.242247	-2.21913E-008	0.0068115	7
	16	7	25171.88	3442.015	-336.4804	1	3458.423	-5.583312	1.241786E-007	0.0066405	7
	17	7	20015.62	3481.253	-377.4843	1	3501.659	-6.1886	-7.037291E-008	0.006941	7
	18	7	15890.62	3506.159	-408.0212	1	3529.821	-6.637808	-6.957277E-008	0.0069433	7
	19	8	12609.37	3541.83	-455.5047	1	3571	-7.328421	7.607988E-008	0.0066689	7
	20	8	10078.13	3578.699	-514.0905	1	3615.436	-8.17478	1.262883E-007	0.0066406	7
	21	8	8015.625	3611.222	-590.6732	1	3659.21	-9.289383	-4.041252E-008	0.0069087	7
	22	9	6328.125	3661.135	-679.8995	1	3723.731	-10.5204	-1.857992E-008	0.0068827	7
	23	9	5015.625	3705.748	-793.0535	1	3789.657	-12.07945	8.020543E-008	0.006771	7
	24	9	3984.375	3744.503	-923.4697	1	3856.696	-13.85384	7.734413E-008	0.0066625	7
	25	10	3170.956	3804.585	-1097.482	1	3959.714	-16.09089	-4.269878E-008	0.0069037	7
	26	10	2527.573	3859	-1304.689	1	4073.585	-18.67988	7.539855E-008	0.0066583	7
	27	10	1976.103	3926.099	-1584.339	1	4233.72	-21.97606	-4.05907E-008	0.006845	7
	28	11	1577.524	4020.878	-1872.439	1	4435.48	-24.97041	9.806776E-009	0.0067484	7
	29	11	1265.625	4070.094	-2292.734	1	4671.434	-29.3931	-1.074914E-008	0.0067797	7
	30	11	998.264	4169.01	-2809.586	1	5027.367	-33.97688	-3.311122E-008	0.0068346	7
	31	12	796.875	4278.464	-3414.291	1	5473.813	-38.5905	8.123996E-008	0.0067656	7
	32	12	627.7902	4422.34	-4210.082	1	6105.889	-43.59146	-5.258088E-008	0.0069792	7
	33	12	505.5147	4582.012	-5097.288	1	6853.99	-48.04726	-4.429779E-008	0.0068489	7
	34	12	397.9953	4808.129	-6304.14	1	7928.448	-52.66745	2.434233E-009	0.0068361	7
	35	13	315.5048	5086.487	-7752.167	1	9271.917	-56.72962	3.874679E-009	0.0068398	7
	36	13	252.4038	5429.313	-9455.296	1	10903.21	-60.13519	9.861337E-010	0.0067753	6
	37	13	198.6229	5903.264	-11702.11	1	13106.79	-63.23081	5.859269E-010	0.0067766	6
	38	14	158.3615	6482.658	-14301.04	1	15701.74	-65.61523	1.411685E-009	0.0067707	6
	39	14	125.558	7258.185	-17550.09	1	18991.76	-67.53149	7.274661E-010	0.0067754	6
	40	14	100.4464	8235.617	-21366.62	1	22898.86	-68.92118	-8.901873E-010	0.0067713	6
	41	15	79.00281	9575.03	-26377.93	1	28062.01	-70.04942	5.392118E-010	0.0067688	6
	42	15	63.3446	11031.54	-31303.89	1	33190.79	-70.58747	2.041668E-010	0.0067728	6
	43	15	49.86702	13436.34	-38587.64	1	40860.02	-70.80172	-2.554217E-010	0.006768	6
	44	16	39.72458	16218.45	-47008.33	1	49727.47	-70.96494	8.085808E-010	0.0067719	6
	45	16	31.6723	19660.87	-56673.13	1	59986.61	-70.86748	4.025854E-010	0.0067674	6
	46	16	24.93351	24669.03	-68832.86	1	73119.92	-70.28281	8.121287E-012	0.0067718	6
	47	17	19.86229	30675.1	-82394.49	1	87919.36	-69.57993	-1.41639E-011	0.0067699	6
	48	17	15.83615	38097.25	-97390.3	1	104576.6	-68.63549	-3.6374E-010	0.0067733	5
	49	17	12.40079	46896.84	-118516.1	1	127457.4	-68.41129	1.096128E-009	0.0067802	5
	50	18	9.93114	59836.58	-138664.4	1	151023.9	-66.65879	4.85895E-010	0.0067768	5
	51	18	7.944915	73778.86	-162978.8	1	178900.6	-65.64422	3.049653E-010	0.0067783	5
	52	19	6.317385	90585.19	-190441.4	1	210887.6	-64.56148	4.831705E-010	0.0067722	5
	53	20	5.008013	111882.1	-222477.8	1	249026	-63.30257	3.171901E-010	0.0067769	5
	54	21	3.945707	139064.1	-260303.3	1	295121.4	-61.88715	-2.946496E-010	0.0067749	5
	55	22	3.158693	167326.4	-298674.8	1	342351.8	-60.74117	-1.47268E-010	0.0067562	5
	56	24	2.504006	202834.4	-343481.1	1	398899.8	-59.43707	2.068643E-010	0.0067617	5
	57	25	1.998082	241046.6	-390950.7	1	459288.5	-58.34346	1.278396E-012	0.006754	5
	58	27	1.584686	287086.2	-446181.5	1	530562.4	-57.24158	-1.483426E-010	0.0067164	5
	59	29	1.266892	334373.7	-506491.1	1	606909.4	-56.56813	-1.311974E-010	0.0067282	5
	60	31	0.999041	388847.8	-577869.7	1	696517	-56.06344	-1.27847E-010	0.0067481	5
