EXPLAIN
TAG	EISPOT
TITLE	LABEL	Potentiostatic EIS	Test &Identifier
DATE	LABEL	10/4/2019	Date
TIME	LABEL	10:44:27	Time
NOTES	NOTES	2	&Notes...
	
	
PSTAT	PSTAT	REF600-11020	Potentiostat
VDC	POTEN	0.00000E+000	T	DC &Voltage (V)
FREQINIT	QUANT	1.00000E+006	Initial Fre&q. (Hz)
FREQFINAL	QUANT	1.00000E+000	Final Fre&q. (Hz)
PTSPERDEC	QUANT	1.00000E+001	Points/&decade
VAC	QUANT	2.50000E+001	AC &Voltage (mV rms)
AREA	QUANT	1.00000E-002	&Area (cm^2)
CONDIT	TWOPARAM	T	5.00000E+000	0.00000E+000	Conditionin&g	Time(s)	E(V)
DELAY	TWOPARAM	T	5.00000E+000	0.00000E+000	Init. De&lay	Time(s)	Stab.(mV/s)
SPEED	SELECTOR	1	&Optimize for:
ZGUESS	QUANT	1.00000E+004	E&stimated Z (ohms)
OCVCURVE	TABLE	19
	Pt	T	Vf	Vm	Ach	Over
	#	s	V vs. Ref.	V	V	bits
	0	0.258333	5.43954E-003	5.43954E-003	5.75699E-004	...........
	1	0.516667	5.43819E-003	5.36875E-003	5.72366E-004	...........
	2	0.775	5.43021E-003	5.31876E-003	5.73032E-004	...........
	3	1.03333	5.40893E-003	5.28130E-003	5.74099E-004	...........
	4	1.29167	5.37403E-003	5.25540E-003	5.78199E-004	...........
	5	1.55	5.33317E-003	5.23891E-003	5.75365E-004	...........
	6	1.80833	5.29544E-003	5.22973E-003	5.70432E-004	...........
	7	2.06667	5.26588E-003	5.21660E-003	5.76232E-004	...........
	8	2.325	5.24493E-003	5.21245E-003	5.75432E-004	...........
	9	2.58333	5.23055E-003	5.20867E-003	5.69432E-004	...........
	10	2.84167	5.22078E-003	5.21106E-003	5.68032E-004	...........
	11	3.1	5.21467E-003	5.21151E-003	5.73832E-004	...........
	12	3.35833	5.21178E-003	5.22077E-003	5.77832E-004	...........
	13	3.61667	5.21191E-003	5.22719E-003	5.76166E-004	...........
	14	3.875	5.21491E-003	5.23709E-003	5.72866E-004	...........
	15	4.13333	5.22043E-003	5.24797E-003	5.76366E-004	...........
	16	4.39167	5.22796E-003	5.25703E-003	5.72966E-004	...........
	17	4.65	5.23691E-003	5.26985E-003	5.66599E-004	...........
	18	4.90833	5.24691E-003	5.28475E-003	5.67832E-004	...........
EOC	QUANT	0.0052469	Open Circuit (V)
PSTATMODEL	IQUANT	4	Pstat Model
PSTATSECTION	LABEL	REF600-11020	Pstat Section
PSTATSERIALNO	LABEL	11020	Pstat Serial Number
CTRLMODE	IQUANT	1	Control Mode
IESTAB	IQUANT	0	I/E Stability
CASPEED	IQUANT	1	Control Amp Speed
CONVENTION	IQUANT	1	Current Convention
ICHRANGE	IQUANT	2	Ich Range
ICHRANGEMODE	TOGGLE	F	Ich Auto Range
ICHOFFSETENABLE	TOGGLE	T	Ich Offset Enable
ICHOFFSET	QUANT	0	Ich Offset (V)
ICHFILTER	IQUANT	3	Ich Filter
VCHRANGE	IQUANT	2	Vch Range
VCHRANGEMODE	TOGGLE	F	Vch Auto Range
VCHOFFSETENABLE	TOGGLE	T	Vch Offset Enable
VCHOFFSET	QUANT	0	Vch Offset (V)
VCHFILTER	IQUANT	3	Vch Filter
ACHRANGE	IQUANT	2	Ach Range
ACHOFFSETENABLE	TOGGLE	F	Ach Offset Enable
ACHOFFSET	QUANT	0	Ach Offset (V)
ACHFILTER	IQUANT	3	Ach Filter
IERANGELOWERLIMIT	IQUANT	1	I/E Range Lower Limit
IERANGEMODE	TOGGLE	F	I/E AutoRange
IERANGE	IQUANT	5	I/E Range
POSFEEDENABLE	TOGGLE	F	Positive Feedback IR Comp
POSFEEDRESISTANCE	QUANT	0	Positive Feedback Resistance (ohm)
ACHSELECT	IQUANT	0	Ach Select
CABLEID	IQUANT	14	Cable ID
DCCALDATE	LABEL	8/19/2019	DC Calibration Date
ACCALDATE	LABEL	8/19/2019	AC Calibration Date
THERMOSELECT	IQUANT	1	Thermo Select
FRAMEWORKVERSION	QUANT	6.33	Framework Version
INSTRUMENTVERSION	LABEL	3.50	Instrument Version
ZCURVE	TABLE
	Pt	Time	Freq	Zreal	Zimag	Zsig	Zmod	Zphz	Idc	Vdc	IERange
	#	s	Hz	ohm	ohm	V	ohm	°	A	V	#
	0	2	1000078	2556.159	-1786.415	1	3118.53	-34.94841	-4.854164E-006	0.0083323	8
	1	3	794390.6	2908.53	-1728.656	1	3383.46	-30.72472	3.085789E-006	0.006892	8
	2	5	630984.4	3230.362	-1608.578	1	3608.707	-26.47128	-1.496645E-006	0.007364	8
	3	6	501234.4	3512.425	-1464.327	1	3805.441	-22.63121	9.456718E-007	0.006895	8
	4	8	398109.4	3744.804	-1292.873	1	3961.702	-19.04695	-5.497851E-007	0.006924	8
	5	9	316265.6	3905.702	-1125.329	1	4064.587	-16.07299	4.466842E-007	0.0068243	8
	6	10	251203.1	4058.86	-979.282	1	4175.325	-13.56453	-7.002763E-007	0.0071107	8
	7	12	199546.9	4176.492	-843.1815	1	4260.756	-11.41388	3.075015E-006	0.0062644	8
	8	13	158578.1	4236.25	-726.043	1	4298.018	-9.72533	2.198266E-007	0.0068486	8
	9	14	125953.1	4313.297	-594.5622	1	4354.083	-7.84842	-5.084858E-007	0.0079197	7
	10	16	100078.1	4353.549	-532.9107	1	4386.044	-6.978764	9.383072E-008	0.0066659	7
	11	17	79453.13	4396.47	-485.4519	1	4423.19	-6.300993	-5.361747E-008	0.0069754	7
	12	18	63140.62	4434.777	-451.4713	1	4457.699	-5.812826	9.133882E-010	0.0067728	7
	13	20	50203.12	4471.626	-429.4337	1	4492.199	-5.485591	4.465686E-008	0.006737	7
	14	21	39890.62	4507.124	-418.5349	1	4526.515	-5.305315	9.551066E-008	0.0066623	7
	15	22	31640.63	4544.119	-418.1588	1	4563.318	-5.257663	-1.406991E-008	0.0067741	7
	16	24	25171.88	4582.107	-427.1965	1	4601.978	-5.326372	-1.217433E-008	0.0068209	7
	17	25	20015.62	4629.081	-442.0039	1	4650.135	-5.454304	-3.693081E-008	0.0068451	7
	18	26	15890.62	4663.083	-471.4299	1	4686.853	-5.772892	-5.801808E-008	0.0069666	7
	19	28	12609.37	4709.974	-506.7389	1	4737.155	-6.140744	-4.723319E-009	0.0068412	7
	20	29	10078.13	4755.855	-551.2828	1	4787.7	-6.612026	-5.438477E-008	0.0068694	7
	21	30	8015.625	4802.206	-607.567	1	4840.488	-7.210654	9.592632E-008	0.0066528	7
	22	32	6328.125	4852.999	-683.4682	1	4900.891	-8.016482	-4.586018E-008	0.0068763	7
	23	33	5015.625	4902.851	-776.0843	1	4963.895	-8.994859	-5.457787E-009	0.0068267	7
	24	34	3984.375	4954.504	-890.8344	1	5033.954	-10.19304	-3.30178E-008	0.0067996	7
	25	36	3170.956	5007.657	-1034.754	1	5113.447	-11.67496	3.439764E-008	0.0066778	7
	26	37	2527.573	5065.054	-1216.568	1	5209.108	-13.50595	-6.45479E-009	0.0068049	7
	27	38	1976.103	5133.748	-1457.995	1	5336.77	-15.85466	4.671966E-008	0.0067288	7
	28	40	1577.524	5204.452	-1734.431	1	5485.852	-18.43112	-2.89141E-008	0.0067972	7
	29	41	1265.625	5281.424	-2070.606	1	5672.817	-21.40788	-1.238218E-008	0.0068151	7
	30	42	998.264	5379.376	-2518.235	1	5939.629	-25.08559	-5.54146E-008	0.0068614	7
	31	44	796.875	5487.67	-3044.039	1	6275.404	-29.01735	-3.413249E-008	0.0067951	7
	32	45	627.7902	5628.556	-3729.215	1	6751.866	-33.52657	-1.371794E-008	0.0067654	7
	33	46	505.5147	5789.835	-4510.048	1	7339.123	-37.91715	1.911002E-009	0.0067622	7
	34	48	397.9953	6000.954	-5544.954	1	8170.555	-42.73831	3.986144E-009	0.0068084	7
	35	49	315.5048	6267.208	-6796.539	1	9245.044	-47.3203	4.860123E-009	0.0068068	7
	36	50	252.4038	6595.074	-8266.228	1	10574.76	-51.41596	6.837458E-010	0.0067488	6
	37	52	198.6229	7049.019	-10198.17	1	12397.23	-55.34761	1.03812E-009	0.0067485	6
	38	53	158.3615	7604.794	-12426.76	1	14569.05	-58.53465	7.444122E-010	0.0067448	6
	39	54	125.558	8347.49	-15195	1	17336.92	-61.21747	8.90161E-010	0.0067472	6
	40	56	100.4464	9272.341	-18403.24	1	20607.17	-63.25908	2.318399E-010	0.0067512	6
	41	57	79.00281	10533.72	-22561.8	1	24899.68	-64.97292	6.983634E-010	0.0067527	6
	42	58	63.3446	11990.42	-27054.2	1	29592.22	-66.09708	3.50123E-010	0.0067469	6
	43	60	49.86702	14171.16	-33029.08	1	35940.81	-66.77821	5.286624E-010	0.0067468	6
	44	61	39.72458	16554.23	-39678.35	1	42993.18	-67.35358	1.020716E-009	0.0067505	6
	45	62	31.6723	19646.45	-47544.05	1	51443.36	-67.5483	5.477346E-011	0.0067495	6
	46	64	24.93351	23634.95	-57481.6	1	62150.98	-67.6488	9.633254E-010	0.0067477	6
	47	65	19.86229	28433.81	-68668.72	1	74322.77	-67.50691	6.659242E-010	0.0067544	6
	48	66	15.83615	34331.6	-81556.63	1	88488.09	-67.17114	5.041461E-010	0.0067507	6
	49	68	12.40079	42786.84	-98388.1	1	107289	-66.49683	6.65465E-010	0.0067564	5
	50	69	9.93114	52084.91	-115777.5	1	126953.8	-65.77841	5.175128E-010	0.0067537	5
	51	71	7.944915	63592.09	-135725.5	1	149884.5	-64.89529	-3.1762E-010	0.0067605	5
	52	72	6.317385	78156.95	-158852.8	1	177038.8	-63.80242	-1.941496E-010	0.006769	5
	53	74	5.008013	95500.1	-185399	1	208549.9	-62.74674	-2.255501E-010	0.0067459	5
	54	76	3.945707	116272.6	-215865.9	1	245188.5	-61.6916	4.372983E-010	0.0067602	5
	55	79	3.158693	138887.2	-247941.7	1	284191.4	-60.74417	-5.308595E-011	0.006759	5
	56	82	2.504006	165006	-285541.8	1	329789.4	-59.97768	2.150423E-010	0.0067428	5
	57	85	1.998082	192593.7	-327056.7	1	379550.3	-59.50747	-8.649689E-011	0.0067835	5
	58	88	1.584686	223714.9	-377845.5	1	439107.7	-59.37106	1.844232E-010	0.0067827	5
	59	92	1.266892	258008	-434251.3	1	505116.1	-59.28358	-2.128684E-011	0.0067928	5
	60	96	0.999041	297719.7	-505893.4	1	586996.8	-59.52307	1.008692E-010	0.0067191	5
