EXPLAIN
TAG	EISPOT
TITLE	LABEL	Potentiostatic EIS	Test &Identifier
DATE	LABEL	11/12/2019	Date
TIME	LABEL	23:06:01	Time
NOTES	NOTES	3	&Notes...
	
	
	
PSTAT	PSTAT	REF600-11020	Potentiostat
VDC	POTEN	0.00000E+000	T	DC &Voltage (V)
FREQINIT	QUANT	1.00000E+006	Initial Fre&q. (Hz)
FREQFINAL	QUANT	1.00000E+000	Final Fre&q. (Hz)
PTSPERDEC	QUANT	1.00000E+001	Points/&decade
VAC	QUANT	2.50000E+001	AC &Voltage (mV rms)
AREA	QUANT	1.00000E-002	&Area (cm^2)
CONDIT	TWOPARAM	T	5.00000E+000	0.00000E+000	Conditionin&g	Time(s)	E(V)
DELAY	TWOPARAM	T	5.00000E+000	0.00000E+000	Init. De&lay	Time(s)	Stab.(mV/s)
SPEED	SELECTOR	1	&Optimize for:
ZGUESS	QUANT	1.00000E+005	E&stimated Z (ohms)
OCVCURVE	TABLE	19
	Pt	T	Vf	Vm	Ach	Over
	#	s	V vs. Ref.	V	V	bits
	0	0.258333	5.53571E-003	5.53571E-003	5.28000E-004	...........
	1	0.516667	5.53492E-003	5.49424E-003	5.27933E-004	...........
	2	0.775	5.53074E-003	5.49055E-003	5.21133E-004	...........
	3	1.03333	5.52127E-003	5.49285E-003	5.34000E-004	...........
	4	1.29167	5.50910E-003	5.48960E-003	5.35266E-004	...........
	5	1.55	5.49863E-003	5.47074E-003	5.32333E-004	...........
	6	1.80833	5.49043E-003	5.45135E-003	5.37699E-004	...........
	7	2.06667	5.48172E-003	5.45263E-003	5.26666E-004	...........
	8	2.325	5.47201E-003	5.48081E-003	5.26666E-004	...........
	9	2.58333	5.46589E-003	5.50872E-003	5.28133E-004	...........
	10	2.84167	5.46952E-003	5.55281E-003	5.26233E-004	...........
	11	3.1	5.48558E-003	5.58049E-003	5.30300E-004	...........
	12	3.35833	5.51192E-003	5.61127E-003	5.30766E-004	...........
	13	3.61667	5.54315E-003	5.61692E-003	5.27600E-004	...........
	14	3.875	5.57317E-003	5.63317E-003	5.29166E-004	...........
	15	4.13333	5.59823E-003	5.66338E-003	5.30666E-004	...........
	16	4.39167	5.61955E-003	5.71048E-003	5.28133E-004	...........
	17	4.65	5.64209E-003	5.73416E-003	5.24266E-004	...........
	18	4.90833	5.66893E-003	5.74861E-003	5.31000E-004	...........
EOC	QUANT	0.0056689	Open Circuit (V)
PSTATMODEL	IQUANT	4	Pstat Model
PSTATSECTION	LABEL	REF600-11020	Pstat Section
PSTATSERIALNO	LABEL	11020	Pstat Serial Number
CTRLMODE	IQUANT	1	Control Mode
IESTAB	IQUANT	0	I/E Stability
CASPEED	IQUANT	1	Control Amp Speed
CONVENTION	IQUANT	1	Current Convention
ICHRANGE	IQUANT	2	Ich Range
ICHRANGEMODE	TOGGLE	F	Ich Auto Range
ICHOFFSETENABLE	TOGGLE	T	Ich Offset Enable
ICHOFFSET	QUANT	0	Ich Offset (V)
ICHFILTER	IQUANT	3	Ich Filter
VCHRANGE	IQUANT	2	Vch Range
VCHRANGEMODE	TOGGLE	F	Vch Auto Range
VCHOFFSETENABLE	TOGGLE	T	Vch Offset Enable
VCHOFFSET	QUANT	0	Vch Offset (V)
VCHFILTER	IQUANT	3	Vch Filter
ACHRANGE	IQUANT	2	Ach Range
ACHOFFSETENABLE	TOGGLE	F	Ach Offset Enable
ACHOFFSET	QUANT	0	Ach Offset (V)
ACHFILTER	IQUANT	3	Ach Filter
IERANGELOWERLIMIT	IQUANT	1	I/E Range Lower Limit
IERANGEMODE	TOGGLE	F	I/E AutoRange
IERANGE	IQUANT	5	I/E Range
POSFEEDENABLE	TOGGLE	F	Positive Feedback IR Comp
POSFEEDRESISTANCE	QUANT	0	Positive Feedback Resistance (ohm)
ACHSELECT	IQUANT	0	Ach Select
CABLEID	IQUANT	14	Cable ID
DCCALDATE	LABEL	8/19/2019	DC Calibration Date
ACCALDATE	LABEL	8/19/2019	AC Calibration Date
THERMOSELECT	IQUANT	1	Thermo Select
FRAMEWORKVERSION	QUANT	6.33	Framework Version
INSTRUMENTVERSION	LABEL	3.50	Instrument Version
ZCURVE	TABLE
	Pt	Time	Freq	Zreal	Zimag	Zsig	Zmod	Zphz	Idc	Vdc	IERange
	#	s	Hz	ohm	ohm	V	ohm	°	A	V	#
	0	2	1000078	2079.626	-1713.666	1	2694.716	-39.48941	2.121527E-007	0.0077691	8
	1	3	794390.6	2434.624	-1701.555	1	2970.3	-34.94964	-1.658078E-006	0.0081809	8
	2	5	630984.4	2769.157	-1622.458	1	3209.455	-30.36617	-5.713277E-008	0.0080418	8
	3	6	501234.4	3064.065	-1508.644	1	3415.333	-26.2141	-1.576176E-006	0.0072126	8
	4	8	398109.4	3318.059	-1369.084	1	3589.416	-22.42182	-4.221527E-006	0.0077047	8
	5	9	316265.6	3527.53	-1208.303	1	3728.735	-18.90813	3.882675E-006	0.0072908	8
	6	10	251203.1	3680.808	-1065.831	1	3832.016	-16.14913	-5.343439E-006	0.0080723	8
	7	12	199546.9	3811.646	-929.6727	1	3923.384	-13.707	1.878444E-006	0.0068922	8
	8	13	158578.1	3907.973	-802.304	1	3989.479	-11.60158	5.307494E-006	0.0063151	8
	9	14	125953.1	4005.615	-658.9077	1	4059.447	-9.341271	-1.031889E-006	0.0083757	7
	10	16	100078.1	4056.053	-581.8176	1	4097.57	-8.163068	3.589809E-007	0.0077722	7
	11	17	79453.13	4101.469	-527.2884	1	4135.225	-7.325811	6.602224E-008	0.0081579	7
	12	18	63140.62	4146.25	-485.7895	1	4174.611	-6.682513	9.449905E-007	0.0065987	7
	13	20	50203.12	4178.9	-454.1923	1	4203.51	-6.20296	-9.734929E-007	0.0077445	7
	14	21	39890.62	4213.222	-440.1764	1	4236.153	-5.964339	-8.324705E-007	0.00882	7
	15	23	31640.63	4250.186	-439.387	1	4272.837	-5.902308	5.700847E-007	0.0074477	7
	16	24	25171.88	4277.673	-447.7304	1	4301.041	-5.97521	-1.017252E-006	0.0087642	7
	17	25	20015.62	4315.831	-474.4446	1	4341.831	-6.273406	9.446763E-007	0.0065929	7
	18	27	15890.62	4347.009	-509.7531	1	4376.795	-6.688258	1.07045E-007	0.0059809	7
	19	28	12609.37	4379.422	-563.8583	1	4415.572	-7.336571	-2.85846E-007	0.0064662	7
	20	29	10078.13	4416.791	-630.6918	1	4461.593	-8.126563	-1.130075E-006	0.0082605	7
	21	31	8015.625	4458.09	-719.1146	1	4515.716	-9.163198	-2.864867E-007	0.0064651	7
	22	32	6328.125	4500.014	-837.7495	1	4577.33	-10.5458	-1.016778E-006	0.008759	7
	23	34	5015.625	4547.934	-984.813	1	4653.338	-12.21823	-1.015481E-006	0.0087615	7
	24	35	3984.375	4605.097	-1170.483	1	4751.521	-14.26095	1.081296E-007	0.0059835	7
	25	36	3170.956	4666.115	-1393.071	1	4869.628	-16.62303	1.02412E-006	0.0061975	7
	26	38	2527.573	4734.546	-1668.904	1	5020.076	-19.4173	1.011278E-006	0.0058978	7
	27	39	1976.103	4816.047	-2037.045	1	5229.136	-22.92691	-9.734475E-007	0.0077397	7
	28	40	1577.524	4911.026	-2465.622	1	5495.223	-26.65932	-9.710081E-007	0.0077326	7
	29	42	1265.625	5030.847	-2963.173	1	5838.648	-30.49813	7.246448E-007	0.0055956	7
	30	43	998.264	5172.846	-3617.896	1	6312.488	-34.969	-8.300011E-007	0.008811	7
	31	45	796.875	5347.533	-4385.072	1	6915.559	-39.35236	-2.916696E-007	0.0064576	7
	32	46	627.7902	5568.198	-5375.313	1	7739.433	-43.99024	-8.272377E-007	0.0088027	7
	33	47	505.5147	5817.696	-6474.102	1	8703.998	-48.0568	-5.71883E-007	0.0087263	7
	34	49	397.9953	6144.392	-7961.769	1	10057	-52.3413	6.234892E-009	0.0072636	7
	35	50	315.5048	6541.917	-9728.14	1	11723.2	-56.08021	5.412463E-010	0.0072095	6
	36	51	252.4038	7005.712	-11801.95	1	13724.65	-59.30637	5.003914E-010	0.0072024	6
	37	53	198.6229	7627.828	-14535.1	1	16415.02	-62.31012	5.101519E-010	0.0072078	6
	38	54	158.3615	8371.816	-17709.23	1	19588.37	-64.69814	1.529898E-011	0.0072012	6
	39	55	125.558	9352.6	-21690.84	1	23621.25	-66.67538	7.659939E-010	0.0072068	6
	40	57	100.4464	10584.27	-26333.83	1	28381.29	-68.10349	3.677572E-010	0.0072031	6
	41	58	79.00281	12399.76	-32464.56	1	34752	-69.09576	1.161421E-009	0.0071925	6
	42	60	63.3446	14790.42	-39421.74	1	42104.99	-69.4347	6.52973E-010	0.0071984	6
	43	61	49.86702	17457.86	-48267.43	1	51327.59	-70.11543	-2.319839E-010	0.0072028	6
	44	62	39.72458	21694.31	-58215.51	1	62126.39	-69.56183	4.218114E-010	0.0071926	6
	45	64	31.6723	27135.51	-69738.98	1	74832.23	-68.73894	8.200973E-011	0.007201	6
	46	65	24.93351	34422.36	-84149.42	1	90917.68	-67.75237	6.650331E-011	0.0071976	6
	47	67	19.86229	43562.31	-99447	1	108569.7	-66.34439	1.049476E-009	0.0072046	5
	48	68	15.83615	54074.01	-116361.7	1	128312.3	-65.07542	-7.163743E-010	0.0072005	5
	49	69	12.40079	69001.08	-137632.3	1	153960.3	-63.37339	2.802347E-010	0.0072067	5
	50	71	9.93114	86223.66	-157903.7	1	179911.3	-61.36315	5.637867E-010	0.0072025	5
	51	72	7.944915	105680.2	-180106	1	208821.6	-59.597	-3.279966E-010	0.0072062	5
	52	74	6.317385	128001.3	-204825.6	1	241532.3	-57.99757	5.112357E-010	0.0071962	5
	53	76	5.008013	153892.5	-232364.2	1	278704.2	-56.48388	3.757281E-010	0.0072219	5
	54	79	3.945707	183923.7	-262928.1	1	320872.4	-55.02641	-1.73447E-010	0.0071997	5
	55	81	3.158693	214460.7	-294356.7	1	364196.7	-53.92388	3.055786E-010	0.0072268	5
	56	85	2.504006	249634.5	-331493.2	1	414976	-53.01804	-3.345557E-010	0.0072056	5
	57	87	1.998082	286442.5	-371237.1	1	468899	-52.34661	-2.355167E-010	0.0071878	5
	58	90	1.584686	327635.7	-416750.3	1	530118.8	-51.82671	9.91149E-012	0.0072568	5
	59	94	1.266892	368969	-469772.4	1	597347.6	-51.85317	-2.268409E-010	0.0072008	5
	60	98	0.999041	417665.3	-535428.3	1	679063.9	-52.04369	2.931555E-010	0.0072284	5
