EXPLAIN
TAG	EISPOT
TITLE	LABEL	Potentiostatic EIS	Test &Identifier
DATE	LABEL	11/12/2019	Date
TIME	LABEL	23:59:28	Time
NOTES	NOTES	3	&Notes...
	
	
	
PSTAT	PSTAT	REF600-11020	Potentiostat
VDC	POTEN	0.00000E+000	T	DC &Voltage (V)
FREQINIT	QUANT	1.00000E+006	Initial Fre&q. (Hz)
FREQFINAL	QUANT	1.00000E+000	Final Fre&q. (Hz)
PTSPERDEC	QUANT	1.00000E+001	Points/&decade
VAC	QUANT	2.50000E+001	AC &Voltage (mV rms)
AREA	QUANT	1.00000E-002	&Area (cm^2)
CONDIT	TWOPARAM	T	5.00000E+000	0.00000E+000	Conditionin&g	Time(s)	E(V)
DELAY	TWOPARAM	T	5.00000E+000	0.00000E+000	Init. De&lay	Time(s)	Stab.(mV/s)
SPEED	SELECTOR	1	&Optimize for:
ZGUESS	QUANT	1.00000E+005	E&stimated Z (ohms)
OCVCURVE	TABLE	19
	Pt	T	Vf	Vm	Ach	Over
	#	s	V vs. Ref.	V	V	bits
	0	0.258333	1.13591E-002	1.13591E-002	5.20366E-004	...........
	1	0.516667	1.13574E-002	1.12738E-002	5.13400E-004	...........
	2	0.775	1.13533E-002	1.15001E-002	5.18800E-004	...........
	3	1.03333	1.13604E-002	1.16790E-002	5.20233E-004	...........
	4	1.29167	1.14064E-002	1.17878E-002	5.23700E-004	...........
	5	1.55	1.15042E-002	1.19829E-002	5.21233E-004	...........
	6	1.80833	1.16334E-002	1.17708E-002	5.25333E-004	...........
	7	2.06667	1.17456E-002	1.15721E-002	5.16933E-004	...........
	8	2.325	1.17857E-002	1.14071E-002	5.19500E-004	...........
	9	2.58333	1.17335E-002	1.14296E-002	5.20533E-004	...........
	10	2.84167	1.16286E-002	1.15791E-002	5.20933E-004	...........
	11	3.1	1.15430E-002	1.17526E-002	5.21600E-004	...........
	12	3.35833	1.15313E-002	1.18988E-002	5.15333E-004	...........
	13	3.61667	1.16009E-002	1.20215E-002	5.13400E-004	...........
	14	3.875	1.17226E-002	1.21004E-002	5.20033E-004	...........
	15	4.13333	1.18587E-002	1.22166E-002	5.25033E-004	...........
	16	4.39167	1.19860E-002	1.23073E-002	5.24833E-004	...........
	17	4.65	1.20990E-002	1.23884E-002	5.18833E-004	...........
	18	4.90833	1.21996E-002	1.24148E-002	5.19366E-004	...........
EOC	QUANT	0.0121996	Open Circuit (V)
PSTATMODEL	IQUANT	4	Pstat Model
PSTATSECTION	LABEL	REF600-11020	Pstat Section
PSTATSERIALNO	LABEL	11020	Pstat Serial Number
CTRLMODE	IQUANT	1	Control Mode
IESTAB	IQUANT	0	I/E Stability
CASPEED	IQUANT	1	Control Amp Speed
CONVENTION	IQUANT	1	Current Convention
ICHRANGE	IQUANT	2	Ich Range
ICHRANGEMODE	TOGGLE	F	Ich Auto Range
ICHOFFSETENABLE	TOGGLE	T	Ich Offset Enable
ICHOFFSET	QUANT	0	Ich Offset (V)
ICHFILTER	IQUANT	3	Ich Filter
VCHRANGE	IQUANT	2	Vch Range
VCHRANGEMODE	TOGGLE	F	Vch Auto Range
VCHOFFSETENABLE	TOGGLE	T	Vch Offset Enable
VCHOFFSET	QUANT	0	Vch Offset (V)
VCHFILTER	IQUANT	3	Vch Filter
ACHRANGE	IQUANT	2	Ach Range
ACHOFFSETENABLE	TOGGLE	F	Ach Offset Enable
ACHOFFSET	QUANT	0	Ach Offset (V)
ACHFILTER	IQUANT	3	Ach Filter
IERANGELOWERLIMIT	IQUANT	1	I/E Range Lower Limit
IERANGEMODE	TOGGLE	F	I/E AutoRange
IERANGE	IQUANT	5	I/E Range
POSFEEDENABLE	TOGGLE	F	Positive Feedback IR Comp
POSFEEDRESISTANCE	QUANT	0	Positive Feedback Resistance (ohm)
ACHSELECT	IQUANT	0	Ach Select
CABLEID	IQUANT	14	Cable ID
DCCALDATE	LABEL	8/19/2019	DC Calibration Date
ACCALDATE	LABEL	8/19/2019	AC Calibration Date
THERMOSELECT	IQUANT	1	Thermo Select
FRAMEWORKVERSION	QUANT	6.33	Framework Version
INSTRUMENTVERSION	LABEL	3.50	Instrument Version
ZCURVE	TABLE
	Pt	Time	Freq	Zreal	Zimag	Zsig	Zmod	Zphz	Idc	Vdc	IERange
	#	s	Hz	ohm	ohm	V	ohm	°	A	V	#
	0	1	1000078	2290.793	-1948.379	1	3007.31	-40.38203	-4.679364E-006	0.0141602	8
	1	3	794390.6	2687.032	-1976.669	1	3335.77	-36.33942	6.406582E-006	0.0141838	8
	2	4	630984.4	3067.417	-1930.895	1	3624.556	-32.18983	-2.142695E-006	0.0137171	8
	3	5	501234.4	3420.747	-1853.43	1	3890.592	-28.44973	-1.067907E-006	0.0143393	8
	4	7	398109.4	3729.747	-1730.794	1	4111.771	-24.89372	-5.538904E-006	0.0146793	8
	5	8	316265.6	4010.892	-1584.723	1	4312.609	-21.55922	-3.112957E-006	0.0143619	8
	6	10	251203.1	4233.003	-1447.313	1	4473.592	-18.87616	1.991254E-006	0.013362	8
	7	11	199546.9	4411.479	-1309.079	1	4601.612	-16.52794	6.287753E-006	0.0131156	8
	8	13	158578.1	4499.265	-1154.842	1	4645.109	-14.39554	-6.79525E-007	0.0135361	8
	9	14	125953.1	4731.15	-1039.814	1	4844.068	-12.39541	2.825272E-006	0.0120116	7
	10	15	100078.1	4806.852	-1001.214	1	4910.016	-11.76585	5.924328E-007	0.0139764	7
	11	17	79453.13	4906.683	-963.848	1	5000.454	-11.11343	9.659824E-007	0.0121004	7
	12	18	63140.62	4990.935	-951.512	1	5080.827	-10.7938	-6.139142E-007	0.0153285	7
	13	19	50203.12	5093.361	-963.709	1	5183.73	-10.71422	9.965772E-007	0.0130555	7
	14	21	39890.62	5188.202	-992.506	1	5282.282	-10.82987	9.686078E-007	0.012096	7
	15	22	31640.63	5282.813	-1041.49	1	5384.498	-11.15266	1.207063E-007	0.0123985	7
	16	24	25171.88	5391.549	-1113.99	1	5505.431	-11.67406	9.672248E-007	0.0120944	7
	17	25	20015.62	5494.098	-1217.386	1	5627.357	-12.49378	1.082389E-006	0.0126446	7
	18	26	15890.62	5627.707	-1322.57	1	5781.027	-13.22512	4.833026E-007	0.0121117	7
	19	28	12609.37	5771.63	-1468.127	1	5955.427	-14.27163	1.081887E-006	0.0126411	7
	20	29	10078.13	5914.321	-1628.484	1	6134.424	-15.39467	-2.894606E-007	0.0150926	7
	21	31	8015.625	6077.932	-1836.215	1	6349.248	-16.81019	9.983728E-007	0.0130642	7
	22	32	6328.125	6294.164	-2073.723	1	6626.978	-18.23538	1.069343E-006	0.012314	7
	23	34	5015.625	6509.641	-2350.976	1	6921.164	-19.85734	6.001883E-007	0.0139664	7
	24	35	3984.375	6750.21	-2675.593	1	7261.139	-21.62197	-1.02523E-006	0.0142439	7
	25	37	3170.956	7039.532	-3047.211	1	7670.756	-23.4064	6.488616E-008	0.0147005	7
	26	38	2527.573	7355.914	-3472.652	1	8134.419	-25.27152	-1.194944E-006	0.0147978	7
	27	40	1976.103	7765.258	-4021.745	1	8744.923	-27.38033	4.79243E-007	0.0120947	7
	28	41	1577.524	8276.11	-4528.699	1	9434.146	-28.68754	4.793733E-007	0.0121012	7
	29	42	1265.625	8670.296	-5199.765	1	10109.97	-30.95203	-3.04388E-007	0.0128982	7
	30	44	998.264	9258.542	-5966.772	1	11014.67	-32.80021	1.135683E-007	0.0109254	6
	31	45	796.875	9885.25	-6791.417	1	11993.39	-34.49005	1.559977E-007	0.0129054	6
	32	46	627.7902	10612.04	-7761.571	1	13147.53	-36.18146	1.443607E-008	0.0153609	6
	33	48	505.5147	11313.79	-8767.602	1	14313.37	-37.77384	-4.550531E-008	0.0159929	6
	34	49	397.9953	12122.94	-10053.86	1	15749.47	-39.66977	2.444354E-010	0.0137133	6
	35	51	315.5048	12905.29	-11552.46	1	17320.67	-41.83403	2.58912E-010	0.0137118	6
	36	52	252.4038	13654.68	-13317.19	1	19073.48	-44.28312	6.675865E-010	0.0136996	6
	37	53	198.6229	14473.65	-15688.86	1	21345.42	-47.30713	5.695411E-011	0.0137082	6
	38	55	158.3615	15276.37	-18515.23	1	24003.78	-50.47497	-5.029227E-012	0.0137118	6
	39	56	125.558	16194.26	-22155.55	1	27443.08	-53.83564	5.551869E-010	0.0136994	6
	40	58	100.4464	17188.7	-26496.59	1	31583.55	-57.02798	5.389865E-010	0.0136917	6
	41	59	79.00281	18471.4	-32358.73	1	37259.63	-60.28089	3.170433E-010	0.0137095	6
	42	60	63.3446	19880.73	-38821.52	1	43615.98	-62.88275	9.33321E-010	0.0137009	6
	43	62	49.86702	22423.2	-48146.05	1	53111.6	-65.02705	3.384031E-010	0.0137038	6
	44	63	39.72458	24814.67	-58570.91	1	63610.68	-67.03914	5.574998E-011	0.0137086	6
	45	65	31.6723	28267.53	-71162.2	1	76570.96	-68.3357	9.389036E-010	0.0137064	6
	46	66	24.93351	33284.66	-87714.02	1	93816.94	-69.21986	-4.241841E-010	0.013708	6
	47	67	19.86229	39510.5	-106494.9	1	113588	-69.64472	2.829611E-010	0.0137149	5
	48	69	15.83615	46723.85	-129005.6	1	137206.3	-70.09039	1.542537E-009	0.0137103	5
	49	70	12.40079	59529.21	-157228.5	1	168120.6	-69.26254	-3.727328E-010	0.0137227	5
	50	72	9.93114	73913.72	-187026.6	1	201102.4	-68.43585	4.811798E-010	0.0137217	5
	51	73	7.944915	92668.6	-221599.3	1	240195.2	-67.30625	-2.206366E-010	0.0137035	5
	52	75	6.317385	114738.7	-262055.9	1	286073.8	-66.35425	1.288163E-010	0.013721	5
	53	77	5.008013	143280.9	-308441.8	1	340096.7	-65.08366	5.350538E-011	0.0137003	5
	54	80	3.945707	178162.6	-360554.7	1	402171.1	-63.70442	2.825076E-010	0.0137037	5
	55	82	3.158693	215955.9	-415610.9	1	468368.8	-62.54313	-1.252894E-012	0.0136846	5
	56	86	2.504006	260284.1	-479955.3	1	545989.9	-61.52862	1.128969E-010	0.0137094	5
	57	88	1.998082	307824.3	-550702.3	1	630895.3	-60.79626	1.712003E-010	0.0136652	5
	58	92	1.584686	360320.8	-635835.8	1	730833.9	-60.46027	2.530644E-011	0.0136981	5
	59	95	1.266892	419298.5	-733078.5	1	844520.8	-60.23176	6.83612E-011	0.013663	5
	60	100	0.999041	488790.6	-855444.4	1	985242	-60.25688	1.259392E-010	0.0137432	5
