EXPLAIN
TAG	EISPOT
TITLE	LABEL	Potentiostatic EIS	Test &Identifier
DATE	LABEL	10/8/2019	Date
TIME	LABEL	8:00:11	Time
NOTES	NOTES	2	&Notes...
	
	
PSTAT	PSTAT	REF600-11020	Potentiostat
VDC	POTEN	0.00000E+000	T	DC &Voltage (V)
FREQINIT	QUANT	1.00000E+006	Initial Fre&q. (Hz)
FREQFINAL	QUANT	1.00000E+000	Final Fre&q. (Hz)
PTSPERDEC	QUANT	1.00000E+001	Points/&decade
VAC	QUANT	2.50000E+001	AC &Voltage (mV rms)
AREA	QUANT	1.00000E-002	&Area (cm^2)
CONDIT	TWOPARAM	T	5.00000E+000	0.00000E+000	Conditionin&g	Time(s)	E(V)
DELAY	TWOPARAM	T	5.00000E+000	0.00000E+000	Init. De&lay	Time(s)	Stab.(mV/s)
SPEED	SELECTOR	1	&Optimize for:
ZGUESS	QUANT	1.00000E+004	E&stimated Z (ohms)
OCVCURVE	TABLE	19
	Pt	T	Vf	Vm	Ach	Over
	#	s	V vs. Ref.	V	V	bits
	0	0.258333	7.16082E-003	7.16082E-003	5.70432E-004	...........
	1	0.516667	7.16445E-003	7.35076E-003	5.67232E-004	...........
	2	0.775	7.18687E-003	7.53816E-003	5.66832E-004	...........
	3	1.03333	7.25044E-003	7.70061E-003	5.68932E-004	...........
	4	1.29167	7.36453E-003	7.90430E-003	5.71899E-004	...........
	5	1.55	7.51854E-003	8.08526E-003	5.72099E-004	...........
	6	1.80833	7.69495E-003	8.26192E-003	5.70899E-004	...........
	7	2.06667	7.87956E-003	8.42550E-003	5.69632E-004	...........
	8	2.325	8.06305E-003	8.60140E-003	5.64999E-004	...........
	9	2.58333	8.24112E-003	8.75042E-003	5.69799E-004	...........
	10	2.84167	8.41295E-003	8.91353E-003	5.69032E-004	...........
	11	3.1	8.57880E-003	9.05597E-003	5.70566E-004	...........
	12	3.35833	8.73841E-003	9.17359E-003	5.67032E-004	...........
	13	3.61667	8.89021E-003	9.31382E-003	5.62899E-004	...........
	14	3.875	9.03382E-003	9.47372E-003	5.63432E-004	...........
	15	4.13333	9.17341E-003	9.62456E-003	5.60666E-004	...........
	16	4.39167	9.31506E-003	9.77228E-003	5.67532E-004	...........
	17	4.65	9.46093E-003	9.90581E-003	5.67232E-004	...........
	18	4.90833	9.60807E-003	1.00350E-002	5.68432E-004	...........
EOC	QUANT	0.0096081	Open Circuit (V)
PSTATMODEL	IQUANT	4	Pstat Model
PSTATSECTION	LABEL	REF600-11020	Pstat Section
PSTATSERIALNO	LABEL	11020	Pstat Serial Number
CTRLMODE	IQUANT	1	Control Mode
IESTAB	IQUANT	0	I/E Stability
CASPEED	IQUANT	1	Control Amp Speed
CONVENTION	IQUANT	1	Current Convention
ICHRANGE	IQUANT	2	Ich Range
ICHRANGEMODE	TOGGLE	F	Ich Auto Range
ICHOFFSETENABLE	TOGGLE	T	Ich Offset Enable
ICHOFFSET	QUANT	0	Ich Offset (V)
ICHFILTER	IQUANT	3	Ich Filter
VCHRANGE	IQUANT	2	Vch Range
VCHRANGEMODE	TOGGLE	F	Vch Auto Range
VCHOFFSETENABLE	TOGGLE	T	Vch Offset Enable
VCHOFFSET	QUANT	0	Vch Offset (V)
VCHFILTER	IQUANT	3	Vch Filter
ACHRANGE	IQUANT	2	Ach Range
ACHOFFSETENABLE	TOGGLE	F	Ach Offset Enable
ACHOFFSET	QUANT	0	Ach Offset (V)
ACHFILTER	IQUANT	3	Ach Filter
IERANGELOWERLIMIT	IQUANT	1	I/E Range Lower Limit
IERANGEMODE	TOGGLE	F	I/E AutoRange
IERANGE	IQUANT	6	I/E Range
POSFEEDENABLE	TOGGLE	F	Positive Feedback IR Comp
POSFEEDRESISTANCE	QUANT	0	Positive Feedback Resistance (ohm)
ACHSELECT	IQUANT	0	Ach Select
CABLEID	IQUANT	14	Cable ID
DCCALDATE	LABEL	8/19/2019	DC Calibration Date
ACCALDATE	LABEL	8/19/2019	AC Calibration Date
THERMOSELECT	IQUANT	1	Thermo Select
FRAMEWORKVERSION	QUANT	6.33	Framework Version
INSTRUMENTVERSION	LABEL	3.50	Instrument Version
ZCURVE	TABLE
	Pt	Time	Freq	Zreal	Zimag	Zsig	Zmod	Zphz	Idc	Vdc	IERange
	#	s	Hz	ohm	ohm	V	ohm	°	A	V	#
	0	1	1000078	1671.606	-437.0363	1	1727.793	-14.65184	-6.305933E-006	0.0131753	8
	1	2	794390.6	1726.741	-377.4852	1	1767.52	-12.33151	-1.653592E-006	0.0119464	8
	2	3	630984.4	1770.796	-325.5903	1	1800.48	-10.41842	1.977538E-006	0.0110818	8
	3	5	501234.4	1798.604	-284.4351	1	1820.956	-8.986456	-3.542731E-006	0.0116408	8
	4	6	398109.4	1824.61	-243.0204	1	1840.723	-7.586592	-2.350351E-006	0.0116544	8
	5	8	316265.6	1840.796	-216.95	1	1853.536	-6.72168	3.046581E-006	0.0105116	8
	6	9	251203.1	1857.165	-187.5427	1	1866.61	-5.766372	-7.865614E-007	0.0111476	8
	7	10	199546.9	1877.173	-175.4893	1	1885.358	-5.34083	-6.123992E-007	0.0111452	8
	8	12	158578.1	1892.216	-161.2449	1	1899.074	-4.870683	-2.633903E-006	0.0116787	8
	9	13	125953.1	1909.49	-137.9047	1	1914.463	-4.130769	4.636301E-007	0.0098733	7
	10	14	100078.1	1924.278	-130.9132	1	1928.726	-3.89197	2.475527E-008	0.0110334	7
	11	16	79453.13	1938.268	-136.3907	1	1943.061	-4.025114	-3.351045E-008	0.0111151	7
	12	17	63140.62	1953.436	-144.7719	1	1958.793	-4.238523	3.611839E-009	0.0110416	7
	13	18	50203.12	1969.857	-155.2668	1	1975.967	-4.506811	5.443332E-009	0.0109921	7
	14	20	39890.62	1986.916	-167.6927	1	1993.98	-4.824245	-1.848027E-008	0.0111703	7
	15	21	31640.63	2005.823	-182.4337	1	2014.102	-5.196871	-1.173245E-008	0.0110194	7
	16	23	25171.88	2024.015	-200.8677	1	2033.958	-5.6676	-1.789263E-008	0.0111677	7
	17	24	20015.62	2043.853	-223.8407	1	2056.073	-6.250067	2.964872E-009	0.0109919	7
	18	25	15890.62	2064.042	-252.2614	1	2079.4	-6.967974	4.030717E-009	0.0109906	7
	19	27	12609.37	2085.021	-287.3597	1	2104.73	-7.847125	-2.680948E-008	0.0110617	7
	20	28	10078.13	2107.019	-330.1421	1	2132.726	-8.90509	3.360258E-009	0.0109939	7
	21	29	8015.625	2133.207	-382.1255	1	2167.162	-10.15579	-7.869376E-009	0.0110107	7
	22	31	6328.125	2157.521	-451.4317	1	2204.243	-11.81787	2.511327E-008	0.0110213	7
	23	32	5015.625	2186.54	-533.8342	1	2250.764	-13.72011	3.510347E-009	0.010986	7
	24	34	3984.375	2218.822	-632.7198	1	2307.272	-15.91604	5.841902E-009	0.0109917	7
	25	35	3170.956	2251.375	-757.4677	1	2375.384	-18.59534	-2.658904E-008	0.0110593	7
	26	36	2527.573	2288.532	-907.7485	1	2461.988	-21.63581	-2.004124E-008	0.0111644	7
	27	38	1976.103	2334.072	-1111.1	1	2585.041	-25.45608	2.743406E-008	0.0110216	7
	28	39	1577.524	2381.96	-1344.815	1	2735.373	-29.44835	-1.770947E-008	0.0111679	7
	29	40	1265.625	2436.49	-1622.895	1	2927.502	-33.66675	-1.02069E-008	0.0110137	7
	30	42	998.264	2505.765	-1994.507	1	3202.642	-38.51863	-2.533065E-008	0.0110553	7
	31	43	796.875	2587.959	-2431.991	1	3551.354	-43.22042	-3.417261E-008	0.0111096	7
	32	44	627.7902	2692.693	-3002.769	1	4033.264	-48.11625	-1.718542E-008	0.0111665	7
	33	46	505.5147	2819.067	-3642.121	1	4605.668	-52.25949	6.003864E-008	0.0109315	7
	34	47	397.9953	2988.325	-4508.525	1	5408.963	-56.46292	6.606266E-009	0.0110538	7
	35	49	315.5048	3203.271	-5546.028	1	6404.637	-59.99017	5.570356E-009	0.0110584	7
	36	50	252.4038	3468.678	-6762.169	1	7599.912	-62.84428	5.164334E-009	0.011057	7
	37	51	198.6229	3840.717	-8361.287	1	9201.208	-65.32854	5.190486E-009	0.0110497	7
	38	53	158.3615	4300.666	-10206	1	11075.12	-67.15013	1.064276E-009	0.0109906	6
	39	54	125.558	4915.118	-12498.68	1	13430.39	-68.53272	9.307923E-010	0.0109926	6
	40	55	100.4464	5673.601	-15151.3	1	16178.74	-69.47094	8.32156E-010	0.0109909	6
	41	57	79.00281	6752.816	-18590.05	1	19778.54	-70.0365	-1.215126E-010	0.0109918	6
	42	58	63.3446	8068.646	-22476.22	1	23880.61	-70.25258	2.08255E-010	0.0109893	6
	43	60	49.86702	9753.18	-27248.74	1	28941.64	-70.30612	6.603151E-010	0.0109888	6
	44	61	39.72458	11945.85	-32821.65	1	34927.98	-70.00039	9.433602E-010	0.0109932	6
	45	62	31.6723	14702.34	-39285.16	1	41946.19	-69.48181	3.912023E-010	0.0109876	6
	46	64	24.93351	18263.26	-47312.96	1	50715.5	-68.89293	5.038928E-010	0.0109916	6
	47	65	19.86229	22538.36	-56274.09	1	60619.73	-68.17339	1.342044E-009	0.0109942	6
	48	67	15.83615	27707.09	-66470.53	1	72013.98	-67.37203	9.693994E-010	0.0109872	6
	49	68	12.40079	34481.71	-79793.76	1	86925.44	-66.62911	9.303574E-010	0.0109925	6
	50	69	9.93114	42108.89	-93314.55	1	102375.6	-65.71237	-4.720601E-010	0.0109908	6
	51	71	7.944915	51192.02	-109132	1	120542.1	-64.8695	-7.450078E-010	0.0109904	5
	52	73	6.317385	62396.74	-127872.5	1	142284	-63.98945	-4.987071E-010	0.011008	5
	53	75	5.008013	76124.65	-149467.6	1	167736.5	-63.01001	4.066457E-010	0.0109981	5
	54	77	3.945707	92865.72	-175092.6	1	198195.5	-62.05939	-4.719615E-010	0.0109913	5
	55	79	3.158693	111372.3	-201880.3	1	230563.3	-61.11559	2.455194E-010	0.0110121	5
	56	83	2.504006	133788	-233888.6	1	269449.7	-60.22977	-5.168526E-010	0.0109843	5
	57	86	1.998082	158320.5	-268309	1	311536.7	-59.45652	-4.43535E-010	0.0109999	5
	58	89	1.584686	187549.2	-308736.8	1	361238.3	-58.72247	-3.162481E-011	0.0110476	5
	59	92	1.266892	217614.6	-353285	1	414929.4	-58.36798	-3.456213E-010	0.0110114	5
	60	97	0.999041	253142.6	-409041.3	1	481036.3	-58.24795	1.923869E-010	0.0109858	5
