EXPLAIN
TAG	EISPOT
TITLE	LABEL	Potentiostatic EIS	Test &Identifier
DATE	LABEL	10/20/2019	Date
TIME	LABEL	10:56:13	Time
NOTES	NOTES	1	&Notes...
	
PSTAT	PSTAT	REF600-11020	Potentiostat
VDC	POTEN	0.00000E+000	T	DC &Voltage (V)
FREQINIT	QUANT	1.00000E+006	Initial Fre&q. (Hz)
FREQFINAL	QUANT	1.00000E+000	Final Fre&q. (Hz)
PTSPERDEC	QUANT	1.00000E+001	Points/&decade
VAC	QUANT	2.50000E+001	AC &Voltage (mV rms)
AREA	QUANT	1.00000E-002	&Area (cm^2)
CONDIT	TWOPARAM	T	5.00000E+000	0.00000E+000	Conditionin&g	Time(s)	E(V)
DELAY	TWOPARAM	T	5.00000E+000	0.00000E+000	Init. De&lay	Time(s)	Stab.(mV/s)
SPEED	SELECTOR	1	&Optimize for:
ZGUESS	QUANT	1.00000E+005	E&stimated Z (ohms)
OCVCURVE	TABLE	19
	Pt	T	Vf	Vm	Ach	Over
	#	s	V vs. Ref.	V	V	bits
	0	0.258333	6.97174E-003	6.97174E-003	5.61866E-004	...........
	1	0.516667	6.97067E-003	6.91603E-003	5.57066E-004	...........
	2	0.775	6.96435E-003	6.87445E-003	5.51866E-004	...........
	3	1.03333	6.94744E-003	6.84760E-003	5.57432E-004	...........
	4	1.29167	6.91965E-003	6.82272E-003	5.57766E-004	...........
	5	1.55	6.88717E-003	6.81794E-003	5.54366E-004	...........
	6	1.80833	6.85758E-003	6.81364E-003	5.59099E-004	...........
	7	2.06667	6.83577E-003	6.81853E-003	5.59299E-004	...........
	8	2.325	6.82323E-003	6.83117E-003	5.57032E-004	...........
	9	2.58333	6.81934E-003	6.84351E-003	5.53833E-004	...........
	10	2.84167	6.82276E-003	6.86426E-003	5.56899E-004	...........
	11	3.1	6.83201E-003	6.88076E-003	5.58099E-004	...........
	12	3.35833	6.84549E-003	6.89500E-003	5.58266E-004	...........
	13	3.61667	6.86133E-003	6.91170E-003	5.50433E-004	...........
	14	3.875	6.87788E-003	6.92930E-003	5.59866E-004	...........
	15	4.13333	6.89465E-003	6.95741E-003	5.59966E-004	...........
	16	4.39167	6.91302E-003	7.00763E-003	5.59932E-004	...........
	17	4.65	6.93528E-003	7.00779E-003	5.60632E-004	...........
	18	4.90833	6.96105E-003	7.02678E-003	5.61399E-004	...........
EOC	QUANT	0.006961	Open Circuit (V)
PSTATMODEL	IQUANT	4	Pstat Model
PSTATSECTION	LABEL	REF600-11020	Pstat Section
PSTATSERIALNO	LABEL	11020	Pstat Serial Number
CTRLMODE	IQUANT	1	Control Mode
IESTAB	IQUANT	0	I/E Stability
CASPEED	IQUANT	1	Control Amp Speed
CONVENTION	IQUANT	1	Current Convention
ICHRANGE	IQUANT	2	Ich Range
ICHRANGEMODE	TOGGLE	F	Ich Auto Range
ICHOFFSETENABLE	TOGGLE	T	Ich Offset Enable
ICHOFFSET	QUANT	0	Ich Offset (V)
ICHFILTER	IQUANT	3	Ich Filter
VCHRANGE	IQUANT	2	Vch Range
VCHRANGEMODE	TOGGLE	F	Vch Auto Range
VCHOFFSETENABLE	TOGGLE	T	Vch Offset Enable
VCHOFFSET	QUANT	0	Vch Offset (V)
VCHFILTER	IQUANT	3	Vch Filter
ACHRANGE	IQUANT	2	Ach Range
ACHOFFSETENABLE	TOGGLE	F	Ach Offset Enable
ACHOFFSET	QUANT	0	Ach Offset (V)
ACHFILTER	IQUANT	3	Ach Filter
IERANGELOWERLIMIT	IQUANT	1	I/E Range Lower Limit
IERANGEMODE	TOGGLE	F	I/E AutoRange
IERANGE	IQUANT	5	I/E Range
POSFEEDENABLE	TOGGLE	F	Positive Feedback IR Comp
POSFEEDRESISTANCE	QUANT	0	Positive Feedback Resistance (ohm)
ACHSELECT	IQUANT	0	Ach Select
CABLEID	IQUANT	14	Cable ID
DCCALDATE	LABEL	8/19/2019	DC Calibration Date
ACCALDATE	LABEL	8/19/2019	AC Calibration Date
THERMOSELECT	IQUANT	1	Thermo Select
FRAMEWORKVERSION	QUANT	6.33	Framework Version
INSTRUMENTVERSION	LABEL	3.50	Instrument Version
ZCURVE	TABLE
	Pt	Time	Freq	Zreal	Zimag	Zsig	Zmod	Zphz	Idc	Vdc	IERange
	#	s	Hz	ohm	ohm	V	ohm	°	A	V	#
	0	1	1000078	2746.048	-2028.095	1	3413.788	-36.44774	-5.649647E-006	0.0104369	8
	1	3	794390.6	3143.801	-2034.562	1	3744.72	-32.90958	7.565262E-006	0.0080709	8
	2	5	630984.4	3527.591	-1960.356	1	4035.703	-29.06184	-7.370069E-006	0.0101378	8
	3	6	501234.4	3860.376	-1838.46	1	4275.796	-25.46559	3.020293E-006	0.0080896	8
	4	8	398109.4	4177.866	-1707.71	1	4513.406	-22.23237	3.05479E-006	0.007979	8
	5	9	316265.6	4412.85	-1568.783	1	4683.41	-19.57047	1.63843E-006	0.0080335	8
	6	11	251203.1	4613.487	-1413.779	1	4825.249	-17.03741	1.390838E-006	0.0082779	8
	7	12	199546.9	4816.744	-1294.822	1	4987.744	-15.04637	1.311164E-006	0.0082961	8
	8	14	158578.1	4956.499	-1175.899	1	5094.077	-13.34632	2.877431E-006	0.0079752	8
	9	16	125953.1	5115.355	-994.497	1	5211.131	-11.00186	-7.068754E-007	0.0097275	7
	10	17	100078.1	5206.024	-928.5507	1	5288.184	-10.11298	4.275663E-008	0.008504	7
	11	19	79453.13	5297.557	-887.7687	1	5371.429	-9.51327	-3.954368E-008	0.0085696	7
	12	20	63140.62	5382.118	-867.1155	1	5451.521	-9.152303	-6.889223E-009	0.0085852	7
	13	21	50203.12	5465.941	-866.964	1	5534.27	-9.01272	1.373389E-008	0.0084545	7
	14	23	39890.62	5551.784	-884.1963	1	5621.753	-9.049125	-1.554667E-008	0.0086935	7
	15	24	31640.63	5638.069	-918.1163	1	5712.334	-9.248994	-2.190222E-008	0.008603	7
	16	25	25171.88	5729.211	-972.781	1	5811.21	-9.63653	9.988001E-008	0.008472	7
	17	27	20015.62	5876.718	-1041.827	1	5968.351	-10.05297	-8.911137E-008	0.0086876	7
	18	28	15890.62	5936.854	-1142.442	1	6045.776	-10.89241	-3.994765E-008	0.0085644	7
	19	30	12609.37	6052.475	-1262.794	1	6182.807	-11.78518	-4.885748E-008	0.0086433	7
	20	31	10078.13	6185.797	-1394.902	1	6341.123	-12.70769	1.491719E-007	0.0083057	7
	21	33	8015.625	6337.444	-1550.618	1	6524.386	-13.74876	1.529994E-008	0.0084487	7
	22	34	6328.125	6505.332	-1765.824	1	6740.732	-15.18658	8.84361E-008	0.0083466	7
	23	36	5015.625	6701.203	-1998.672	1	6992.911	-16.60752	-1.20673E-008	0.0086879	7
	24	37	3984.375	6918.063	-2239.516	1	7271.521	-17.93781	-6.241072E-008	0.0087246	7
	25	39	3170.956	7162.993	-2572.843	1	7611.043	-19.75755	4.636832E-008	0.008481	7
	26	40	2527.573	7442.963	-2916.012	1	7993.799	-21.3943	4.162502E-008	0.0083896	7
	27	41	1976.103	7777.434	-3351.903	1	8468.986	-23.31498	-3.793878E-008	0.008553	7
	28	43	1577.524	8142.425	-3754.969	1	8966.543	-24.75731	-4.965727E-008	0.0086334	7
	29	44	1265.625	8506.794	-4270.285	1	9518.45	-26.65598	3.795578E-009	0.0085013	6
	30	45	998.264	8944.715	-4885.104	1	10191.77	-28.6409	-7.455394E-009	0.0085277	6
	31	47	796.875	9370.505	-5561.024	1	10896.39	-30.68746	-3.374716E-009	0.0084412	6
	32	48	627.7902	9837.24	-6409.099	1	11740.86	-33.08481	-8.417164E-009	0.0085236	6
	33	50	505.5147	10275.3	-7337.752	1	12626.34	-35.53122	4.457028E-009	0.0083505	6
	34	51	397.9953	10770.62	-8599.502	1	13782.51	-38.60464	1.420792E-009	0.0084869	6
	35	52	315.5048	11263.4	-10128.73	1	15147.78	-41.96379	1.497966E-009	0.0084846	6
	36	54	252.4038	11769.86	-11952.2	1	16774.53	-45.4404	1.241687E-009	0.0084772	6
	37	55	198.6229	12359.96	-14415.6	1	18988.9	-49.39015	7.384975E-010	0.0084856	6
	38	56	158.3615	12997.63	-17326.34	1	21659.65	-53.124	-3.617631E-010	0.0084877	6
	39	58	125.558	13755.73	-21046.57	1	25143.15	-56.83197	9.712232E-010	0.0084865	6
	40	59	100.4464	14661.64	-25425.61	1	29350.05	-60.03017	-7.2546E-010	0.008481	6
	41	61	79.00281	16015.66	-31451.54	1	35294.49	-63.01403	9.106125E-010	0.0084823	6
	42	62	63.3446	16811.53	-38591.45	1	42094.27	-66.46069	1.363687E-009	0.0084791	6
	43	63	49.86702	19409.86	-46417.02	1	50311.86	-67.30714	1.78351E-009	0.0084828	6
	44	65	39.72458	21808.45	-57313.83	1	61322.78	-69.16771	1.336125E-011	0.0084827	6
	45	66	31.6723	25381.65	-70127.7	1	74579.63	-70.10305	-2.088983E-010	0.0084747	6
	46	68	24.93351	29740.11	-86228.35	1	91212.95	-70.97072	2.697482E-010	0.0084762	6
	47	69	19.86229	35679.01	-104759.3	1	110668.5	-71.19215	1.081491E-010	0.0084789	5
	48	70	15.83615	45606.72	-127365.9	1	135285.1	-70.29875	-1.80794E-009	0.0084863	5
	49	72	12.40079	52227.4	-155048	1	163608	-71.38407	1.429315E-009	0.008487	5
	50	73	9.93114	69218.91	-186883.4	1	199290.4	-69.67609	-4.738127E-011	0.0084905	5
	51	75	7.944915	87919.71	-221460	1	238273.8	-68.3469	8.989457E-010	0.0084928	5
	52	77	6.317385	110072.1	-265172.3	1	287110.1	-67.45684	-2.3257E-010	0.0084897	5
	53	79	5.008013	141509.8	-313841.5	1	344269.6	-65.72958	6.401511E-011	0.0084829	5
	54	81	3.945707	181731.8	-369315.4	1	411607	-63.79924	2.712938E-010	0.0084921	5
	55	84	3.158693	228082	-425300.6	1	482599.2	-61.79605	-3.239843E-011	0.0084775	5
	56	87	2.504006	285086.7	-488342.9	1	565467.3	-59.72431	8.094258E-011	0.0084956	5
	57	90	1.998082	347363.4	-551914.4	1	652127.9	-57.81455	4.343736E-010	0.0084725	5
	58	93	1.584686	424176.1	-618536.6	1	750008.6	-55.55869	-6.183831E-011	0.0084385	5
	59	97	1.266892	499750.4	-686708.3	1	849304.8	-53.95483	2.777505E-010	0.0084705	5
	60	101	0.999041	587531.5	-766740	1	965962	-52.53806	-2.093793E-010	0.0084806	5
