EXPLAIN
TAG	EISPOT
TITLE	LABEL	Potentiostatic IDE	Test &Identifier
DATE	LABEL	9/8/2019	Date
TIME	LABEL	9:15:17	Time
NOTES	NOTES	1	&Notes...
	
PSTAT	PSTAT	REF600-11020	Potentiostat
VDC	POTEN	0.00000E+000	T	DC &Voltage (V)
FREQINIT	QUANT	1.00000E+006	Initial Fre&q. (Hz)
FREQFINAL	QUANT	1.00000E+000	Final Fre&q. (Hz)
PTSPERDEC	QUANT	1.00000E+001	Points/&decade
VAC	QUANT	2.50000E+001	AC &Voltage (mV rms)
AREA	QUANT	1.00000E-002	&Area (cm^2)
CONDIT	TWOPARAM	T	5.00000E+000	0.00000E+000	Conditionin&g	Time(s)	E(V)
DELAY	TWOPARAM	T	5.00000E+000	0.00000E+000	Init. De&lay	Time(s)	Stab.(mV/s)
SPEED	SELECTOR	1	&Optimize for:
ZGUESS	QUANT	1.00000E+007	E&stimated Z (ohms)
OCVCURVE	TABLE	19
	Pt	T	Vf	Vm	Ach	Over
	#	s	V vs. Ref.	V	V	bits
	0	0.258333	2.21663E-002	2.21663E-002	5.65732E-004	...........
	1	0.516667	2.21860E-002	2.31981E-002	5.72799E-004	...........
	2	0.775	2.23072E-002	2.41864E-002	5.71466E-004	...........
	3	1.03333	2.26509E-002	2.51405E-002	5.68799E-004	...........
	4	1.29167	2.32678E-002	2.60653E-002	5.71232E-004	...........
	5	1.55	2.40922E-002	2.69576E-002	5.73399E-004	...........
	6	1.80833	2.50127E-002	2.78111E-002	5.69699E-004	...........
	7	2.06667	2.59457E-002	2.86356E-002	5.71032E-004	...........
	8	2.325	2.68515E-002	2.94435E-002	5.72266E-004	...........
	9	2.58333	2.77205E-002	3.02208E-002	5.73166E-004	...........
	10	2.84167	2.85557E-002	3.09753E-002	5.69099E-004	...........
	11	3.1	2.93621E-002	3.17093E-002	5.76032E-004	...........
	12	3.35833	3.01433E-002	3.24242E-002	5.75932E-004	...........
	13	3.61667	3.09013E-002	3.31169E-002	5.78499E-004	...........
	14	3.875	3.16376E-002	3.37929E-002	5.75032E-004	...........
	15	4.13333	3.23535E-002	3.44512E-002	5.71699E-004	...........
	16	4.39167	3.30497E-002	3.50920E-002	5.71599E-004	...........
	17	4.65	3.37274E-002	3.57178E-002	5.72466E-004	...........
	18	4.90833	3.43874E-002	3.63283E-002	5.75465E-004	...........
EOC	QUANT	0.0343874	Open Circuit (V)
PSTATMODEL	IQUANT	4	Pstat Model
PSTATSECTION	LABEL	REF600-11020	Pstat Section
PSTATSERIALNO	LABEL	11020	Pstat Serial Number
CTRLMODE	IQUANT	1	Control Mode
IESTAB	IQUANT	0	I/E Stability
CASPEED	IQUANT	1	Control Amp Speed
CONVENTION	IQUANT	1	Current Convention
ICHRANGE	IQUANT	2	Ich Range
ICHRANGEMODE	TOGGLE	F	Ich Auto Range
ICHOFFSETENABLE	TOGGLE	T	Ich Offset Enable
ICHOFFSET	QUANT	0	Ich Offset (V)
ICHFILTER	IQUANT	3	Ich Filter
VCHRANGE	IQUANT	2	Vch Range
VCHRANGEMODE	TOGGLE	F	Vch Auto Range
VCHOFFSETENABLE	TOGGLE	T	Vch Offset Enable
VCHOFFSET	QUANT	0	Vch Offset (V)
VCHFILTER	IQUANT	3	Vch Filter
ACHRANGE	IQUANT	2	Ach Range
ACHOFFSETENABLE	TOGGLE	F	Ach Offset Enable
ACHOFFSET	QUANT	0	Ach Offset (V)
ACHFILTER	IQUANT	3	Ach Filter
IERANGELOWERLIMIT	IQUANT	1	I/E Range Lower Limit
IERANGEMODE	TOGGLE	F	I/E AutoRange
IERANGE	IQUANT	3	I/E Range
POSFEEDENABLE	TOGGLE	F	Positive Feedback IR Comp
POSFEEDRESISTANCE	QUANT	0	Positive Feedback Resistance (ohm)
ACHSELECT	IQUANT	0	Ach Select
CABLEID	IQUANT	14	Cable ID
DCCALDATE	LABEL	8/19/2019	DC Calibration Date
ACCALDATE	LABEL	8/19/2019	AC Calibration Date
THERMOSELECT	IQUANT	1	Thermo Select
FRAMEWORKVERSION	QUANT	6.33	Framework Version
INSTRUMENTVERSION	LABEL	3.50	Instrument Version
ZCURVE	TABLE
	Pt	Time	Freq	Zreal	Zimag	Zsig	Zmod	Zphz	Idc	Vdc	IERange
	#	s	Hz	ohm	ohm	V	ohm	°	A	V	#
	0	1	1000078	2484.25	-1530.946	1	2918.098	-31.6439	-4.790662E-006	0.0374649	8
	1	3	794390.6	2786.404	-1419.448	1	3127.12	-26.99517	1.600147E-006	0.0368878	8
	2	4	630984.4	3032.7	-1288.029	1	3294.888	-23.0116	6.691263E-007	0.0361926	8
	3	6	501234.4	3229.417	-1130.131	1	3421.451	-19.28744	6.615497E-008	0.0360713	8
	4	7	398109.4	3358.385	-978.082	1	3497.912	-16.23745	-5.554571E-006	0.0374369	8
	5	9	316265.6	3466.684	-827.3879	1	3564.052	-13.42357	-2.094078E-006	0.0364286	8
	6	10	251203.1	3550.518	-712.9214	1	3621.386	-11.35365	7.510453E-007	0.0359323	8
	7	12	199546.9	3637.865	-620.8258	1	3690.458	-9.68461	-4.188429E-006	0.0370298	8
	8	13	158578.1	3681.91	-543.2805	1	3721.776	-8.393655	-2.311305E-006	0.0364104	8
	9	14	125953.1	3729.454	-435.2263	1	3754.763	-6.656294	-1.231679E-006	0.03911	7
	10	16	100078.1	3758.549	-391.0237	1	3778.834	-5.939446	-6.055121E-008	0.0362233	7
	11	17	79453.13	3787.111	-370.5288	1	3805.194	-5.588002	3.499616E-008	0.036063	7
	12	18	63140.62	3815.083	-362.5462	1	3832.271	-5.428498	-2.468071E-008	0.0360835	7
	13	20	50203.12	3843.046	-361.9384	1	3860.052	-5.380251	-5.304608E-009	0.0360228	7
	14	21	39890.62	3872.168	-372.3566	1	3890.03	-5.492805	-4.754945E-008	0.036235	7
	15	23	31640.63	3905.404	-390.6222	1	3924.891	-5.711781	-3.579629E-008	0.0360846	7
	16	24	25171.88	3937.992	-418.3439	1	3960.151	-6.063948	-2.533082E-008	0.0362485	7
	17	25	20015.62	3974.588	-457.2812	1	4000.807	-6.563092	-2.340085E-008	0.0362502	7
	18	27	15890.62	4013.061	-506.515	1	4044.9	-7.193642	-2.455571E-008	0.0360736	7
	19	28	12609.37	4056.958	-569.9568	1	4096.798	-7.997073	-6.441272E-008	0.036209	7
	20	29	10078.13	4103.145	-645.2145	1	4153.564	-8.936514	6.936334E-008	0.036074	7
	21	31	8015.625	4154.932	-740.5031	1	4220.403	-10.10531	-7.736211E-009	0.0361273	7
	22	32	6328.125	4214.721	-858.5894	1	4301.284	-11.51429	-7.395618E-008	0.0361934	7
	23	33	5015.625	4281.783	-1000.637	1	4397.151	-13.15375	-4.632741E-008	0.0362277	7
	24	35	3984.375	4355.494	-1171.323	1	4510.247	-15.05242	-5.063892E-008	0.0361191	7
	25	36	3170.956	4440.937	-1377.351	1	4649.625	-17.23122	-7.713476E-008	0.0361962	7
	26	37	2527.573	4536.305	-1624.099	1	4818.274	-19.69851	-1.118512E-008	0.0361195	7
	27	39	1976.103	4658.392	-1947.978	1	5049.281	-22.69299	-2.004571E-008	0.0362478	7
	28	40	1577.524	4789.412	-2305.356	1	5315.368	-25.70358	9.311972E-008	0.0358937	7
	29	41	1265.625	4934.303	-2726.209	1	5637.337	-28.92071	-8.928568E-009	0.0361256	7
	30	43	998.264	5119.782	-3269.134	1	6074.488	-32.55945	3.756679E-009	0.0359964	7
	31	44	796.875	5322.163	-3896.915	1	6596.314	-36.21178	-5.779478E-008	0.0361924	7
	32	45	627.7902	5576.308	-4692.209	1	7287.801	-40.07909	3.684955E-008	0.0360486	7
	33	47	505.5147	5831.913	-5575.847	1	8068.536	-43.71412	9.481759E-008	0.0358971	7
	34	48	397.9953	6180.947	-6746.618	1	9149.915	-47.50549	6.036958E-009	0.0360953	7
	35	49	315.5048	6573.738	-8133.992	1	10458.29	-51.05552	8.998708E-010	0.0360387	6
	36	51	252.4038	7014.878	-9757.35	1	12017.25	-54.2864	1.383075E-009	0.0360343	6
	37	52	198.6229	7576.627	-11882.97	1	14092.92	-57.47826	4.949104E-010	0.0360418	6
	38	53	158.3615	8213.631	-14334.71	1	16521.13	-60.18776	4.499662E-011	0.0360362	6
	39	55	125.558	9006.517	-17392.98	1	19586.56	-62.62376	7.144408E-010	0.0360375	6
	40	56	100.4464	9933.49	-20993.79	1	23225.27	-64.67821	4.396663E-010	0.03603	6
	41	58	79.00281	11192.65	-25660.11	1	27994.94	-66.43372	3.889323E-010	0.0360308	6
	42	59	63.3446	12693.01	-30735.36	1	33253.19	-67.56048	1.732246E-010	0.0360271	6
	43	60	49.86702	14243.45	-37988.79	1	40571.22	-69.44706	5.048287E-010	0.0360254	6
	44	62	39.72458	16528.9	-45813.83	1	48704.32	-70.16137	6.626625E-010	0.0360342	6
	45	63	31.6723	19076.81	-55533.05	1	58718.34	-71.04128	7.448182E-010	0.0360345	6
	46	64	24.93351	22726.8	-67917.35	1	71618.95	-71.4985	1.510363E-010	0.0360303	6
	47	66	19.86229	27083.62	-82141.21	1	86491.05	-71.75156	9.38183E-010	0.0360367	6
	48	67	15.83615	32037.53	-100098.8	1	105100.8	-72.25226	-5.49506E-010	0.0360287	6
	49	68	12.40079	40894.35	-122468.2	1	129115.5	-71.5349	1.071673E-009	0.0360351	5
	50	70	9.93114	49376.85	-146133.8	1	154250.3	-71.33051	2.493483E-010	0.0360268	5
	51	71	7.944915	60892.6	-174001.7	1	184348.8	-70.7123	-6.358409E-010	0.0360343	5
	52	73	6.317385	76219.41	-209443.8	1	222881.4	-70.00288	-3.072602E-010	0.0360456	5
	53	75	5.008013	95772.7	-250746.8	1	268414.6	-69.09564	-3.388997E-010	0.0360241	5
	54	77	3.945707	121161.8	-299643.2	1	323212.4	-67.98389	7.959626E-011	0.0360392	5
	55	80	3.158693	150721.8	-352631.5	1	383491.9	-66.85715	-3.003879E-010	0.0360395	5
	56	83	2.504006	188231.1	-415261.4	1	455930.9	-65.616	-1.121132E-010	0.0360265	5
	57	86	1.998082	232008	-484192.7	1	536908.1	-64.39791	-3.320891E-010	0.0360557	5
	58	89	1.584686	287483.1	-564800.2	1	633755.3	-63.02392	-9.753084E-011	0.0360876	5
	59	93	1.266892	348911.1	-651085.6	1	738682.3	-61.81353	-3.747233E-010	0.0360575	5
	60	97	0.999041	425674	-752093.1	1	864200.4	-60.49075	4.55618E-011	0.0360328	5
