EXPLAIN
TAG	EISPOT
TITLE	LABEL	Potentiostatic EIS	Test &Identifier
DATE	LABEL	10/6/2019	Date
TIME	LABEL	8:43:40	Time
NOTES	NOTES	2	&Notes...
	
	
PSTAT	PSTAT	REF600-11020	Potentiostat
VDC	POTEN	0.00000E+000	T	DC &Voltage (V)
FREQINIT	QUANT	1.00000E+006	Initial Fre&q. (Hz)
FREQFINAL	QUANT	1.00000E+000	Final Fre&q. (Hz)
PTSPERDEC	QUANT	1.00000E+001	Points/&decade
VAC	QUANT	2.50000E+001	AC &Voltage (mV rms)
AREA	QUANT	1.00000E-002	&Area (cm^2)
CONDIT	TWOPARAM	T	5.00000E+000	0.00000E+000	Conditionin&g	Time(s)	E(V)
DELAY	TWOPARAM	T	5.00000E+000	0.00000E+000	Init. De&lay	Time(s)	Stab.(mV/s)
SPEED	SELECTOR	1	&Optimize for:
ZGUESS	QUANT	1.00000E+004	E&stimated Z (ohms)
OCVCURVE	TABLE	19
	Pt	T	Vf	Vm	Ach	Over
	#	s	V vs. Ref.	V	V	bits
	0	0.258333	-1.04446E-002	-1.04446E-002	5.73266E-004	...........
	1	0.516667	-1.04577E-002	-1.11287E-002	5.74832E-004	...........
	2	0.775	-1.05380E-002	-1.17798E-002	5.77966E-004	...........
	3	1.03333	-1.07650E-002	-1.23898E-002	5.78432E-004	...........
	4	1.29167	-1.11702E-002	-1.29707E-002	5.77899E-004	...........
	5	1.55	-1.17066E-002	-1.35152E-002	5.75699E-004	...........
	6	1.80833	-1.22971E-002	-1.40363E-002	5.78299E-004	...........
	7	2.06667	-1.28855E-002	-1.45425E-002	5.75832E-004	...........
	8	2.325	-1.34481E-002	-1.50340E-002	5.78266E-004	...........
	9	2.58333	-1.39820E-002	-1.54957E-002	5.78765E-004	...........
	10	2.84167	-1.44912E-002	-1.59495E-002	5.78799E-004	...........
	11	3.1	-1.49795E-002	-1.63785E-002	5.81932E-004	...........
	12	3.35833	-1.54486E-002	-1.67874E-002	5.78566E-004	...........
	13	3.61667	-1.58992E-002	-1.72002E-002	5.83099E-004	...........
	14	3.875	-1.63329E-002	-1.75981E-002	5.77732E-004	...........
	15	4.13333	-1.67524E-002	-1.79771E-002	5.79266E-004	...........
	16	4.39167	-1.71600E-002	-1.83530E-002	5.80532E-004	...........
	17	4.65	-1.75563E-002	-1.87202E-002	5.73666E-004	...........
	18	4.90833	-1.79419E-002	-1.90706E-002	5.73599E-004	...........
EOC	QUANT	-0.0179419	Open Circuit (V)
PSTATMODEL	IQUANT	4	Pstat Model
PSTATSECTION	LABEL	REF600-11020	Pstat Section
PSTATSERIALNO	LABEL	11020	Pstat Serial Number
CTRLMODE	IQUANT	1	Control Mode
IESTAB	IQUANT	0	I/E Stability
CASPEED	IQUANT	1	Control Amp Speed
CONVENTION	IQUANT	1	Current Convention
ICHRANGE	IQUANT	2	Ich Range
ICHRANGEMODE	TOGGLE	F	Ich Auto Range
ICHOFFSETENABLE	TOGGLE	T	Ich Offset Enable
ICHOFFSET	QUANT	0	Ich Offset (V)
ICHFILTER	IQUANT	3	Ich Filter
VCHRANGE	IQUANT	2	Vch Range
VCHRANGEMODE	TOGGLE	F	Vch Auto Range
VCHOFFSETENABLE	TOGGLE	T	Vch Offset Enable
VCHOFFSET	QUANT	0	Vch Offset (V)
VCHFILTER	IQUANT	3	Vch Filter
ACHRANGE	IQUANT	2	Ach Range
ACHOFFSETENABLE	TOGGLE	F	Ach Offset Enable
ACHOFFSET	QUANT	0	Ach Offset (V)
ACHFILTER	IQUANT	3	Ach Filter
IERANGELOWERLIMIT	IQUANT	1	I/E Range Lower Limit
IERANGEMODE	TOGGLE	F	I/E AutoRange
IERANGE	IQUANT	6	I/E Range
POSFEEDENABLE	TOGGLE	F	Positive Feedback IR Comp
POSFEEDRESISTANCE	QUANT	0	Positive Feedback Resistance (ohm)
ACHSELECT	IQUANT	0	Ach Select
CABLEID	IQUANT	14	Cable ID
DCCALDATE	LABEL	8/19/2019	DC Calibration Date
ACCALDATE	LABEL	8/19/2019	AC Calibration Date
THERMOSELECT	IQUANT	1	Thermo Select
FRAMEWORKVERSION	QUANT	6.33	Framework Version
INSTRUMENTVERSION	LABEL	3.50	Instrument Version
ZCURVE	TABLE
	Pt	Time	Freq	Zreal	Zimag	Zsig	Zmod	Zphz	Idc	Vdc	IERange
	#	s	Hz	ohm	ohm	V	ohm	°	A	V	#
	0	2	1000078	1285.943	-7961.632	1	8064.814	-80.82497	-2.490444E-006	-0.0150951	8
	1	4	794390.6	1802.481	-9597.02	1	9764.82	-79.36282	-2.718745E-006	-0.0154906	8
	2	5	630984.4	1954.426	-12366.69	1	12520.18	-81.01928	-2.114816E-006	-0.0158247	8
	3	7	501234.4	2547.369	-15612.23	1	15818.69	-80.733	-1.739453E-006	-0.0159123	8
	4	8	398109.4	3838.514	-18602.77	1	18994.66	-78.34116	9.10561E-007	-0.0167172	8
	5	10	316265.6	5738.71	-23241.07	1	23939.09	-76.12991	-7.067691E-007	-0.0162884	8
	6	12	251203.1	7785.699	-28343.37	1	29393.26	-74.64015	-5.989556E-007	-0.0162963	8
	7	13	199546.9	10876.5	-33935.72	1	35636.1	-72.22919	-1.331534E-006	-0.0160348	8
	8	15	158578.1	15247.92	-39280.8	1	42136.45	-68.7849	-2.617724E-006	-0.015986	8
	9	16	125953.1	21250.04	-46376.14	1	51012.84	-65.38224	1.603681E-007	-0.0179618	7
	10	18	100078.1	30103.42	-53849.08	1	61692.29	-60.79336	2.275239E-008	-0.0166388	7
	11	20	79453.13	39593.75	-60871.75	1	72615.66	-56.95819	1.163012E-007	-0.0167646	7
	12	21	63140.62	50390.18	-66947.66	1	83792.36	-53.03194	2.882018E-008	-0.016427	7
	13	23	50203.12	62925.37	-71714.23	1	95407.2	-48.73479	-3.645395E-008	-0.0165429	7
	14	25	39890.62	75772.91	-75234.64	1	106779.1	-44.79577	3.031505E-009	-0.0165901	7
	15	26	31640.63	89250.26	-77330.09	1	118091.3	-40.907	6.133929E-008	-0.0167325	7
	16	28	25171.88	103188.1	-79504.42	1	130264.1	-37.61354	6.069551E-008	-0.0167378	7
	17	30	20015.62	113199.5	-79908.63	1	138562.3	-35.21863	3.342249E-008	-0.0164426	7
	18	31	15890.62	129930.4	-82938.85	1	154145.3	-32.55143	-1.026254E-007	-0.0162325	7
	19	33	12609.37	146509.2	-80773.53	1	167300.1	-28.86884	5.487559E-009	-0.016531	6
	20	34	10078.13	159493.1	-80754.66	1	178771.8	-26.85404	-7.913528E-009	-0.0165109	6
	21	36	8015.625	172157.7	-80322.77	1	189973.7	-25.01212	3.08643E-008	-0.0170272	6
	22	38	6328.125	184547.3	-79465.06	1	200928.8	-23.29645	-5.322278E-009	-0.0165854	6
	23	39	5015.625	197072.4	-79406.55	1	212468.7	-21.94602	2.339342E-008	-0.016774	6
	24	41	3984.375	209112.4	-78274.27	1	223282	-20.52171	2.459884E-008	-0.0170259	6
	25	42	3170.956	220759.6	-77857.84	1	234086.8	-19.42681	-1.360157E-008	-0.0164524	6
	26	44	2527.573	232389	-77655.98	1	245020.6	-18.47776	3.106643E-008	-0.0170248	6
	27	45	1976.103	244477.9	-75220.98	1	255788.3	-17.10209	2.428503E-008	-0.0170248	6
	28	47	1577.524	255985.5	-75937.45	1	267011.3	-16.52286	7.194167E-009	-0.0164345	6
	29	49	1265.625	268501.3	-72008.34	1	277989.4	-15.01267	1.236968E-009	-0.0163815	5
	30	50	998.264	279304.7	-72918.61	1	288666.3	-14.63173	2.338486E-009	-0.0166467	5
	31	51	796.875	289090.5	-74405.05	1	298512	-14.43332	7.471997E-010	-0.0166734	5
	32	53	627.7902	301547.5	-75995.28	1	310976.1	-14.14499	2.400259E-009	-0.0167888	5
	33	54	505.5147	312908.8	-77299.26	1	322315.2	-13.87622	2.612895E-009	-0.0165835	5
	34	56	397.9953	325556.4	-79563.22	1	335137.7	-13.7334	1.549814E-009	-0.0165754	5
	35	57	315.5048	337485.5	-82699.56	1	347470.4	-13.7688	1.509339E-009	-0.0165793	5
	36	58	252.4038	349706	-84202.19	1	359700.3	-13.53798	1.563084E-009	-0.0165833	5
	37	60	198.6229	364559.3	-87514.23	1	374916.3	-13.49871	1.763521E-009	-0.0165827	5
	38	61	158.3615	378245.4	-89700.35	1	388736.1	-13.34116	2.267278E-009	-0.0165825	5
	39	63	125.558	392790.3	-90116.52	1	402995.3	-12.92156	1.976185E-009	-0.0165817	5
	40	64	100.4464	406540.4	-93240.9	1	417095.9	-12.9175	1.937622E-009	-0.0165828	5
	41	65	79.00281	426017	-93782.24	1	436217.3	-12.41492	1.972291E-009	-0.016585	5
	42	67	63.3446	452063.2	-69140.8	1	457320	-8.695717	1.898743E-009	-0.0165885	5
	43	69	49.86702	452840.8	-98241.7	1	463374.8	-12.24037	1.748794E-009	-0.0165857	5
	44	70	39.72458	467465.3	-103059.6	1	478691	-12.43281	1.727875E-009	-0.0165843	5
	45	72	31.6723	484079.1	-108420.7	1	496072.2	-12.62437	1.71516E-009	-0.0165832	5
	46	73	24.93351	498140.9	-114934.7	1	511228.3	-12.99233	1.869869E-009	-0.016586	5
	47	75	19.86229	516316.7	-119972	1	530071.9	-13.0812	2.08658E-009	-0.0165897	5
	48	76	15.83615	531865.6	-137293.5	1	549300	-14.47412	1.709027E-009	-0.0165859	5
	49	77	12.40079	566784.1	-142562	1	584438.3	-14.11861	1.792377E-009	-0.016575	5
	50	79	9.93114	577741.1	-153191.5	1	597705.9	-14.85058	1.647213E-009	-0.0165855	5
	51	80	7.944915	596163.3	-155107.5	1	616010.5	-14.58367	2.40536E-009	-0.0165918	6
	52	82	6.317385	624875.2	-173653.1	1	648555.6	-15.53064	2.616229E-009	-0.0165783	6
	53	85	5.008013	684482.1	-194389.9	1	711549.8	-15.85431	2.535562E-009	-0.01658	6
	54	88	3.945707	685752.2	-204032.5	1	715461.6	-16.56937	2.249052E-009	-0.0165816	6
	55	91	3.158693	693992.6	-216629.6	1	727017.3	-17.33574	2.262648E-009	-0.0165883	6
	56	95	2.504006	801686.4	-243738	1	837919.7	-16.91093	1.988653E-009	-0.0165786	5
	57	97	1.998082	856768.3	-273074.2	1	899233.8	-17.67842	2.1622E-009	-0.0166248	5
	58	100	1.584686	902310	-301921.2	1	951483	-18.50072	1.850817E-009	-0.0166341	5
	59	104	1.266892	951256	-340058.4	1	1010212	-19.67114	2.481232E-009	-0.0166208	4
	60	108	0.999041	1018797	-386311.3	1	1089579	-20.76592	1.460823E-009	-0.0165895	4
