EXPLAIN
TAG	EISPOT
TITLE	LABEL	Potentiostatic EIS	Test &Identifier
DATE	LABEL	10/4/2019	Date
TIME	LABEL	10:19:04	Time
NOTES	NOTES	2	&Notes...
	
	
PSTAT	PSTAT	REF600-11020	Potentiostat
VDC	POTEN	0.00000E+000	T	DC &Voltage (V)
FREQINIT	QUANT	1.00000E+006	Initial Fre&q. (Hz)
FREQFINAL	QUANT	1.00000E+000	Final Fre&q. (Hz)
PTSPERDEC	QUANT	1.00000E+001	Points/&decade
VAC	QUANT	2.50000E+001	AC &Voltage (mV rms)
AREA	QUANT	1.00000E-002	&Area (cm^2)
CONDIT	TWOPARAM	T	5.00000E+000	0.00000E+000	Conditionin&g	Time(s)	E(V)
DELAY	TWOPARAM	T	5.00000E+000	0.00000E+000	Init. De&lay	Time(s)	Stab.(mV/s)
SPEED	SELECTOR	1	&Optimize for:
ZGUESS	QUANT	1.00000E+004	E&stimated Z (ohms)
OCVCURVE	TABLE	19
	Pt	T	Vf	Vm	Ach	Over
	#	s	V vs. Ref.	V	V	bits
	0	0.258333	-4.38211E-005	-4.38211E-005	5.63499E-004	...........
	1	0.516667	-4.38749E-005	-4.66397E-005	5.60132E-004	...........
	2	0.775	-4.41122E-005	-4.44218E-005	5.65399E-004	...........
	3	1.03333	-4.45333E-005	-4.54581E-005	5.64732E-004	...........
	4	1.29167	-4.49591E-005	-4.69644E-005	5.67266E-004	...........
	5	1.55	-4.52957E-005	-4.40788E-005	5.68099E-004	...........
	6	1.80833	-4.55175E-005	-4.61844E-005	5.70199E-004	...........
	7	2.06667	-4.56057E-005	-4.68327E-005	5.63966E-004	...........
	8	2.325	-4.56607E-005	-4.39654E-005	5.61866E-004	...........
	9	2.58333	-4.57327E-005	-4.76920E-005	5.66732E-004	...........
	10	2.84167	-4.58116E-005	-4.62477E-005	5.68232E-004	...........
	11	3.1	-4.59955E-005	-4.72357E-005	5.66266E-004	...........
	12	3.35833	-4.63292E-005	-4.79967E-005	5.59532E-004	...........
	13	3.61667	-4.67349E-005	-4.71177E-005	5.63632E-004	...........
	14	3.875	-4.70828E-005	-4.62514E-005	5.64866E-004	...........
	15	4.13333	-4.72094E-005	-4.68567E-005	5.62399E-004	...........
	16	4.39167	-4.71075E-005	-4.76770E-005	5.58166E-004	...........
	17	4.65	-4.70170E-005	-4.82957E-005	5.60299E-004	...........
	18	4.90833	-4.71665E-005	-4.85567E-005	5.60932E-004	...........
EOC	QUANT	-4.716652E-005	Open Circuit (V)
PSTATMODEL	IQUANT	4	Pstat Model
PSTATSECTION	LABEL	REF600-11020	Pstat Section
PSTATSERIALNO	LABEL	11020	Pstat Serial Number
CTRLMODE	IQUANT	1	Control Mode
IESTAB	IQUANT	0	I/E Stability
CASPEED	IQUANT	1	Control Amp Speed
CONVENTION	IQUANT	1	Current Convention
ICHRANGE	IQUANT	2	Ich Range
ICHRANGEMODE	TOGGLE	F	Ich Auto Range
ICHOFFSETENABLE	TOGGLE	T	Ich Offset Enable
ICHOFFSET	QUANT	0	Ich Offset (V)
ICHFILTER	IQUANT	3	Ich Filter
VCHRANGE	IQUANT	2	Vch Range
VCHRANGEMODE	TOGGLE	F	Vch Auto Range
VCHOFFSETENABLE	TOGGLE	T	Vch Offset Enable
VCHOFFSET	QUANT	0	Vch Offset (V)
VCHFILTER	IQUANT	3	Vch Filter
ACHRANGE	IQUANT	2	Ach Range
ACHOFFSETENABLE	TOGGLE	F	Ach Offset Enable
ACHOFFSET	QUANT	0	Ach Offset (V)
ACHFILTER	IQUANT	3	Ach Filter
IERANGELOWERLIMIT	IQUANT	1	I/E Range Lower Limit
IERANGEMODE	TOGGLE	F	I/E AutoRange
IERANGE	IQUANT	3	I/E Range
POSFEEDENABLE	TOGGLE	F	Positive Feedback IR Comp
POSFEEDRESISTANCE	QUANT	0	Positive Feedback Resistance (ohm)
ACHSELECT	IQUANT	0	Ach Select
CABLEID	IQUANT	14	Cable ID
DCCALDATE	LABEL	8/19/2019	DC Calibration Date
ACCALDATE	LABEL	8/19/2019	AC Calibration Date
THERMOSELECT	IQUANT	1	Thermo Select
FRAMEWORKVERSION	QUANT	6.33	Framework Version
INSTRUMENTVERSION	LABEL	3.50	Instrument Version
ZCURVE	TABLE
	Pt	Time	Freq	Zreal	Zimag	Zsig	Zmod	Zphz	Idc	Vdc	IERange
	#	s	Hz	ohm	ohm	V	ohm	°	A	V	#
	0	2	1000078	-65.03653	-9063.941	1	9064.175	-90.41111	2.303487E-007	0.0031625	8
	1	4	794390.6	-250.7776	-11392.93	1	11395.69	-91.26097	-2.378555E-007	0.0024301	8
	2	5	630984.4	-652.7721	-14294.16	1	14309.06	-92.61472	-2.147694E-006	0.0024682	8
	3	7	501234.4	-1382.572	-18248.25	1	18300.55	-94.33272	-5.965018E-008	0.0019018	8
	4	8	398109.4	-2750.001	-23189.55	1	23352.04	-96.763	-3.296314E-007	0.0018153	8
	5	10	316265.6	-4263.114	-29594.18	1	29899.65	-98.1972	-1.93974E-006	0.0021174	8
	6	11	251203.1	-7041.198	-38738.59	1	39373.3	-100.3017	-3.41596E-006	0.0023853	8
	7	13	199546.9	-7972.729	-51117.36	1	51735.37	-98.865	5.946819E-007	0.0012457	8
	8	14	158578.1	-8441.721	-66186.88	1	66723.05	-97.2685	4.016754E-007	0.001327	8
	9	16	125953.1	1883.234	-68656.13	1	68681.95	-88.42877	3.262271E-007	0.0007398	7
	10	18	100078.1	3451.369	-85416.84	1	85486.54	-87.68616	5.479082E-008	0.0013899	7
	11	20	79453.13	4592.452	-106905.6	1	107004.2	-87.5402	4.281803E-008	0.0012997	7
	12	21	63140.62	5904.697	-133465.3	1	133595.8	-87.4668	1.043099E-007	0.0013056	7
	13	23	50203.12	8386.214	-167155.8	1	167366.1	-87.12788	-3.392055E-008	0.001554	7
	14	25	39890.62	10755.21	-210373.4	1	210648.2	-87.07334	-1.067467E-008	0.0015027	7
	15	26	31640.63	14280.52	-262732.3	1	263120.1	-86.88882	-7.466086E-008	0.0016823	7
	16	28	25171.88	17774.44	-327100.7	1	327583.3	-86.88964	-1.5402E-008	0.0015334	7
	17	29	20015.62	22084.71	-405507.4	1	406108.4	-86.88264	-5.497996E-008	0.0016379	7
	18	31	15890.62	25214.13	-505284	1	505912.7	-87.14326	4.676015E-008	0.0014349	7
	19	32	12609.37	40440.48	-620352.4	1	621669.2	-86.2702	-9.88242E-009	0.0016854	6
	20	34	10078.13	44424.84	-764513.1	1	765802.7	-86.67435	-9.756021E-009	0.0016847	6
	21	36	8015.625	60079.57	-955365	1	957252	-86.4016	-4.803297E-009	0.0015607	6
	22	37	6328.125	84742.71	-1212123	1	1215081	-86.00081	2.086603E-009	0.0014698	6
	23	39	5015.625	106305.4	-1522541	1	1526247	-86.00603	2.146341E-008	0.0010877	6
	24	41	3984.375	173229.5	-1827169	1	1835363	-84.58411	-1.180822E-008	0.0016757	6
	25	42	3170.956	233793.9	-2381839	1	2393286	-84.39398	9.231035E-010	0.0015026	6
	26	44	2527.573	297869.4	-2905513	1	2920742	-84.14656	-9.81141E-009	0.0016877	6
	27	46	1976.103	346643.4	-3606964	1	3623582	-84.51051	-9.755341E-009	0.0016825	6
	28	48	1577.524	872355.6	-4406640	1	4492157	-78.80228	3.934682E-009	0.0014431	6
	29	49	1265.625	1134651	-5729884	1	5841147	-78.799	-6.479441E-010	0.0015742	5
	30	51	998.264	1369161	-6791364	1	6928003	-78.60177	-7.19988E-010	0.0016663	5
	31	52	796.875	2015105	-8466565	1	8703067	-76.61227	-7.288877E-010	0.0016667	5
	32	54	627.7902	2423410	-1.016293E+007	1	1.044787E+007	-76.58795	1.830378E-009	0.0012075	5
	33	55	505.5147	4827840	-1.327208E+007	1	1.412289E+007	-70.01068	1.713016E-009	0.0011501	5
	34	57	397.9953	6084360	-1.496087E+007	1	1.615076E+007	-67.86916	1.459717E-010	0.0015004	5
	35	58	315.5048	8514689	-1.664462E+007	1	1.869608E+007	-62.90762	2.176278E-010	0.0014998	5
	36	60	252.4038	1.318561E+007	-1.890828E+007	1	2.305175E+007	-55.11016	1.08737E-009	0.0014958	5
	37	61	198.6229	1.52842E+007	-2.21804E+007	1	2.693653E+007	-55.42982	-1.837166E-010	0.0014971	5
	38	63	158.3615	2.336243E+007	-2.69105E+007	1	3.563676E+007	-49.03702	3.292304E-010	0.0014959	5
	39	64	125.558	2.994862E+007	-2.211305E+007	1	3.722777E+007	-36.44091	-2.547638E-010	0.0014994	4
	40	66	100.4464	3.196554E+007	-2.009217E+007	1	3.775568E+007	-32.15171	7.772215E-011	0.0015013	4
	41	67	79.00281	2.024206E+007	-2.025028E+007	1	2.86324E+007	-45.01163	2.149144E-010	0.0015022	4
	42	69	63.3446	1.028242E+007	2423769	1	1.056422E+007	13.26362	7.643794E-011	0.0014965	4
	43	71	49.86702	7.23235E+007	-3.058697E+007	1	7.852549E+007	-22.92442	8.578635E-011	0.0014911	4
	44	73	39.72458	4.57354E+007	-3.915221E+007	1	6.020484E+007	-40.56548	9.676272E-011	0.0015017	5
	45	74	31.6723	3.409428E+007	-9305514	1	3.534138E+007	-15.26618	1.219972E-010	0.0014956	5
	46	76	24.93351	5.304361E+007	-1.084461E+007	1	5.414084E+007	-11.55472	4.602391E-012	0.0014997	4
	47	78	19.86229	5.688263E+007	6403990	1	5.724198E+007	6.423456	2.020466E-010	0.0014949	4
	48	79	15.83615	1.741755E+007	-3.228448E+007	1	3.668322E+007	-61.65304	4.470483E-010	0.0014981	4
	49	81	12.40079	4.601296E+007	2.905517E+007	1	5.44187E+007	32.27061	3.408606E-010	0.0014919	4
	50	83	9.93114	6.600335E+007	6864491	1	6.635935E+007	5.937538	1.861607E-010	0.0015017	4
	51	84	7.944915	3.592938E+007	1172522	1	3.594851E+007	1.869131	3.113255E-010	0.001506	5
	52	87	6.317385	5.146696E+007	-3320401	1	5.157396E+007	-3.691333	1.138545E-010	0.0015048	4
	53	89	5.008013	5.43026E+007	-4907451	1	5.45239E+007	-5.163924	9.601324E-011	0.001498	4
	54	92	3.945707	5.05496E+007	-3491512	1	5.067004E+007	-3.951202	1.135429E-010	0.0014897	4
	55	95	3.158693	5.265052E+007	-2828710	1	5.272646E+007	-3.075325	9.719445E-011	0.0015168	4
	56	99	2.504006	5.272776E+007	-2405839	1	5.278262E+007	-2.612455	8.315906E-011	0.0014802	3
	57	103	1.998082	5.261133E+007	-2516001	1	5.267146E+007	-2.737936	8.38484E-011	0.0014683	3
	58	108	1.584686	5.315372E+007	-2197496	1	5.319913E+007	-2.367389	8.64057E-011	0.0015286	3
	59	113	1.266892	6.039951E+007	3546978	1	6.050357E+007	3.360851	9.217747E-011	0.0014596	3
	60	120	0.999041	5.4975E+007	-2371584	1	5.502613E+007	-2.47017	8.996791E-011	0.0015261	4
