EXPLAIN
TAG	EISPOT
TITLE	LABEL	Potentiostatic IDE	Test &Identifier
DATE	LABEL	9/16/2019	Date
TIME	LABEL	10:09:34	Time
NOTES	NOTES	1	&Notes...
	
PSTAT	PSTAT	REF600-11020	Potentiostat
VDC	POTEN	0.00000E+000	T	DC &Voltage (V)
FREQINIT	QUANT	1.00000E+006	Initial Fre&q. (Hz)
FREQFINAL	QUANT	1.00000E+000	Final Fre&q. (Hz)
PTSPERDEC	QUANT	1.00000E+001	Points/&decade
VAC	QUANT	2.50000E+001	AC &Voltage (mV rms)
AREA	QUANT	1.00000E-002	&Area (cm^2)
CONDIT	TWOPARAM	T	5.00000E+000	0.00000E+000	Conditionin&g	Time(s)	E(V)
DELAY	TWOPARAM	T	5.00000E+000	0.00000E+000	Init. De&lay	Time(s)	Stab.(mV/s)
SPEED	SELECTOR	1	&Optimize for:
ZGUESS	QUANT	1.00000E+007	E&stimated Z (ohms)
OCVCURVE	TABLE	19
	Pt	T	Vf	Vm	Ach	Over
	#	s	V vs. Ref.	V	V	bits
	0	0.258333	3.75061E-003	3.75061E-003	5.71866E-004	...........
	1	0.516667	3.74708E-003	3.56574E-003	5.71032E-004	...........
	2	0.775	3.72553E-003	3.39809E-003	5.74966E-004	...........
	3	1.03333	3.66592E-003	3.28143E-003	5.67966E-004	...........
	4	1.29167	3.56283E-003	3.11443E-003	5.70832E-004	...........
	5	1.55	3.43075E-003	3.01564E-003	5.70566E-004	...........
	6	1.80833	3.28954E-003	2.90216E-003	5.75666E-004	...........
	7	2.06667	3.15349E-003	2.79683E-003	5.70399E-004	...........
	8	2.325	3.02875E-003	2.70128E-003	5.70766E-004	...........
	9	2.58333	2.91520E-003	2.61576E-003	5.72199E-004	...........
	10	2.84167	2.81106E-003	2.53557E-003	5.67999E-004	...........
	11	3.1	2.71525E-003	2.45989E-003	5.67099E-004	...........
	12	3.35833	2.62693E-003	2.38640E-003	5.63366E-004	...........
	13	3.61667	2.54486E-003	2.31664E-003	5.67366E-004	...........
	14	3.875	2.46767E-003	2.24995E-003	5.67866E-004	...........
	15	4.13333	2.39439E-003	2.18925E-003	5.71466E-004	...........
	16	4.39167	2.32468E-003	2.12995E-003	5.72932E-004	...........
	17	4.65	2.25848E-003	2.06892E-003	5.70566E-004	...........
	18	4.90833	2.19538E-003	2.01472E-003	5.75066E-004	...........
EOC	QUANT	0.0021954	Open Circuit (V)
PSTATMODEL	IQUANT	4	Pstat Model
PSTATSECTION	LABEL	REF600-11020	Pstat Section
PSTATSERIALNO	LABEL	11020	Pstat Serial Number
CTRLMODE	IQUANT	1	Control Mode
IESTAB	IQUANT	0	I/E Stability
CASPEED	IQUANT	1	Control Amp Speed
CONVENTION	IQUANT	1	Current Convention
ICHRANGE	IQUANT	2	Ich Range
ICHRANGEMODE	TOGGLE	F	Ich Auto Range
ICHOFFSETENABLE	TOGGLE	T	Ich Offset Enable
ICHOFFSET	QUANT	0	Ich Offset (V)
ICHFILTER	IQUANT	3	Ich Filter
VCHRANGE	IQUANT	2	Vch Range
VCHRANGEMODE	TOGGLE	F	Vch Auto Range
VCHOFFSETENABLE	TOGGLE	T	Vch Offset Enable
VCHOFFSET	QUANT	0	Vch Offset (V)
VCHFILTER	IQUANT	3	Vch Filter
ACHRANGE	IQUANT	2	Ach Range
ACHOFFSETENABLE	TOGGLE	F	Ach Offset Enable
ACHOFFSET	QUANT	0	Ach Offset (V)
ACHFILTER	IQUANT	3	Ach Filter
IERANGELOWERLIMIT	IQUANT	1	I/E Range Lower Limit
IERANGEMODE	TOGGLE	F	I/E AutoRange
IERANGE	IQUANT	2	I/E Range
POSFEEDENABLE	TOGGLE	F	Positive Feedback IR Comp
POSFEEDRESISTANCE	QUANT	0	Positive Feedback Resistance (ohm)
ACHSELECT	IQUANT	0	Ach Select
CABLEID	IQUANT	14	Cable ID
DCCALDATE	LABEL	8/19/2019	DC Calibration Date
ACCALDATE	LABEL	8/19/2019	AC Calibration Date
THERMOSELECT	IQUANT	1	Thermo Select
FRAMEWORKVERSION	QUANT	6.33	Framework Version
INSTRUMENTVERSION	LABEL	3.50	Instrument Version
ZCURVE	TABLE
	Pt	Time	Freq	Zreal	Zimag	Zsig	Zmod	Zphz	Idc	Vdc	IERange
	#	s	Hz	ohm	ohm	V	ohm	°	A	V	#
	0	2	1000078	2464.52	-1561.446	1	2917.529	-32.35712	-7.891262E-007	0.0051158	8
	1	4	794390.6	2759.333	-1471.741	1	3127.29	-28.07404	-6.173806E-006	0.0058234	8
	2	5	630984.4	3014.391	-1341.385	1	3299.374	-23.98875	-4.488491E-006	0.0054955	8
	3	7	501234.4	3249.715	-1205.508	1	3466.107	-20.35275	2.878424E-006	0.0033701	8
	4	8	398109.4	3394.676	-1045.068	1	3551.9	-17.11124	-2.469397E-006	0.0043722	8
	5	10	316265.6	3535.007	-899.5335	1	3647.661	-14.27674	2.218735E-006	0.0035023	8
	6	11	251203.1	3613.115	-760.8206	1	3692.349	-11.89116	4.477898E-007	0.0037247	8
	7	12	199546.9	3691.908	-646.0463	1	3748.007	-9.92568	2.024115E-006	0.003299	8
	8	14	158578.1	3755.041	-573.4756	1	3798.579	-8.683206	4.681823E-007	0.0037249	8
	9	15	125953.1	3799.67	-447.3605	1	3825.915	-6.714901	-1.599685E-006	0.0070422	7
	10	16	100078.1	3833.388	-402.3293	1	3854.443	-5.991485	-1.131018E-008	0.0038983	7
	11	18	79453.13	3861.976	-376.5947	1	3880.294	-5.569503	4.837923E-008	0.0037035	7
	12	19	63140.62	3889.453	-359.3333	1	3906.017	-5.278378	-8.728551E-009	0.003897	7
	13	20	50203.12	3916.935	-351.8664	1	3932.708	-5.13322	1.482178E-007	0.0036363	7
	14	22	39890.62	3944.885	-354.6501	1	3960.795	-5.137152	-4.308165E-008	0.0038796	7
	15	23	31640.63	3974.428	-366.8318	1	3991.322	-5.273345	2.205536E-008	0.0037565	7
	16	24	25171.88	4003.993	-387.5039	1	4022.7	-5.527833	-2.185845E-008	0.0040088	7
	17	26	20015.62	4036.655	-418.3491	1	4058.275	-5.916872	1.469802E-007	0.0036307	7
	18	27	15890.62	4073.637	-459.528	1	4099.474	-6.436062	-4.010938E-008	0.0038701	7
	19	28	12609.37	4112.065	-512.6158	1	4143.894	-7.105914	-4.248002E-008	0.0038689	7
	20	30	10078.13	4155.486	-576.2813	1	4195.255	-7.895399	-5.058268E-008	0.0039954	7
	21	31	8015.625	4201.737	-655.962	1	4252.632	-8.873213	-3.97687E-008	0.003854	7
	22	32	6328.125	4256.55	-756.3935	1	4323.234	-10.07634	-3.695269E-008	0.0038495	7
	23	34	5015.625	4315.654	-878.2578	1	4404.113	-11.50291	-8.658244E-009	0.003864	7
	24	35	3984.375	4380.854	-1021.908	1	4498.463	-13.13041	-4.016564E-008	0.0038622	7
	25	36	3170.956	4453.078	-1196.731	1	4611.082	-15.0424	8.384188E-008	0.003696	7
	26	38	2527.573	4533.399	-1404.705	1	4746.041	-17.21595	-1.951597E-008	0.0038182	7
	27	39	1976.103	4632.824	-1682.856	1	4929.002	-19.96337	-1.737816E-008	0.0038914	7
	28	40	1577.524	4735.633	-1990.934	1	5137.124	-22.80264	-4.810891E-008	0.0038721	7
	29	42	1265.625	4841.525	-2355.849	1	5384.272	-25.9472	3.766684E-008	0.0038043	7
	30	43	998.264	4991.233	-2835.382	1	5740.366	-29.59971	-4.228802E-009	0.0038729	7
	31	44	796.875	5143.529	-3391.117	1	6160.809	-33.39678	8.568274E-008	0.0036917	7
	32	46	627.7902	5333.073	-4108.245	1	6731.964	-37.60826	-7.256638E-009	0.0038712	7
	33	47	505.5147	5529.075	-4900.83	1	7388.423	-41.55296	1.510903E-007	0.0036271	7
	34	48	397.9953	5794.599	-5968.291	1	8318.525	-45.84597	6.582014E-009	0.003857	7
	35	50	315.5048	6089.133	-7242.148	1	9461.831	-49.94318	6.323305E-009	0.0038529	7
	36	51	252.4038	6425.266	-8734.652	1	10843.35	-53.66156	6.706738E-010	0.0037933	6
	37	52	198.6229	6848.864	-10703.42	1	12707.09	-57.38578	1.100435E-009	0.0037997	6
	38	54	158.3615	7320.561	-12996.71	1	14916.61	-60.60907	8.011267E-010	0.003801	6
	39	55	125.558	7911.772	-15880.85	1	17742.54	-63.51771	1.527914E-009	0.0037982	6
	40	56	100.4464	8599.941	-19310.94	1	21139.33	-65.99466	1.050021E-009	0.0037959	6
	41	58	79.00281	9559.02	-23788.97	1	25637.67	-68.10847	1.066371E-009	0.0037961	6
	42	59	63.3446	10532.55	-28688.43	1	30560.77	-69.84	4.923315E-010	0.0037926	6
	43	60	49.86702	12255.47	-35801.43	1	37840.96	-71.103	5.950767E-010	0.0037944	6
	44	62	39.72458	13900.08	-43649.95	1	45809.72	-72.33622	7.19895E-010	0.0037972	6
	45	63	31.6723	16503.12	-53276.63	1	55774.12	-72.78896	1.849867E-009	0.0037984	6
	46	65	24.93351	19767.98	-65716.78	1	68625.56	-73.25842	7.676771E-010	0.0037982	6
	47	66	19.86229	24068.39	-80093.23	1	83631.41	-73.27423	1.354018E-009	0.0037961	6
	48	67	15.83615	29243.7	-97388.7	1	101684.6	-73.28613	2.736857E-010	0.0037974	6
	49	69	12.40079	37971.71	-118601.9	1	124532.2	-72.24696	-2.545736E-010	0.0038072	5
	50	70	9.93114	47606.03	-142981.2	1	150698.3	-71.58466	4.39382E-010	0.003795	5
	51	72	7.944915	60804.1	-171743.3	1	182189.1	-70.50397	5.286608E-010	0.0037985	5
	52	73	6.317385	77241.16	-204391.3	1	218499.4	-69.298	4.667246E-010	0.0037831	5
	53	75	5.008013	99137.5	-243298.8	1	262721.4	-67.83047	5.904672E-010	0.0038025	5
	54	78	3.945707	128005.2	-288245.8	1	315390.3	-66.05479	1.718241E-010	0.003792	5
	55	80	3.158693	161504.7	-334964.5	1	371866.9	-64.25874	3.904767E-010	0.0037916	5
	56	84	2.504006	203056.6	-388005.3	1	437927	-62.37537	3.096531E-010	0.0038049	5
	57	86	1.998082	250122.5	-442955.3	1	508695	-60.54799	5.940166E-010	0.0037811	5
	58	90	1.584686	307394.3	-506162.3	1	592192.2	-58.72953	8.423391E-011	0.0037568	5
	59	93	1.266892	367049.1	-568122.8	1	676379	-57.13457	4.406016E-010	0.0037699	5
	60	98	0.999041	437869.6	-644144.6	1	778878.7	-55.79334	-4.183253E-011	0.0038093	5
