EXPLAIN
TAG	EISPOT
TITLE	LABEL	Potentiostatic EIS	Test &Identifier
DATE	LABEL	11/12/2019	Date
TIME	LABEL	21:03:01	Time
NOTES	NOTES	3	&Notes...
	
	
	
PSTAT	PSTAT	REF600-11020	Potentiostat
VDC	POTEN	0.00000E+000	T	DC &Voltage (V)
FREQINIT	QUANT	1.00000E+006	Initial Fre&q. (Hz)
FREQFINAL	QUANT	1.00000E+000	Final Fre&q. (Hz)
PTSPERDEC	QUANT	1.00000E+001	Points/&decade
VAC	QUANT	2.50000E+001	AC &Voltage (mV rms)
AREA	QUANT	1.00000E-002	&Area (cm^2)
CONDIT	TWOPARAM	T	5.00000E+000	0.00000E+000	Conditionin&g	Time(s)	E(V)
DELAY	TWOPARAM	T	5.00000E+000	0.00000E+000	Init. De&lay	Time(s)	Stab.(mV/s)
SPEED	SELECTOR	1	&Optimize for:
ZGUESS	QUANT	1.00000E+005	E&stimated Z (ohms)
OCVCURVE	TABLE	19
	Pt	T	Vf	Vm	Ach	Over
	#	s	V vs. Ref.	V	V	bits
	0	0.258333	-2.79795E-003	-2.79795E-003	5.03600E-004	...........
	1	0.516667	-2.80628E-003	-3.23449E-003	5.01500E-004	...........
	2	0.775	-2.85738E-003	-3.64208E-003	5.05333E-004	...........
	3	1.03333	-3.00197E-003	-4.05677E-003	5.02300E-004	...........
	4	1.29167	-3.26133E-003	-4.42717E-003	4.93633E-004	...........
	5	1.55	-3.60716E-003	-4.78438E-003	4.94333E-004	...........
	6	1.80833	-3.99021E-003	-5.11953E-003	4.98167E-004	...........
	7	2.06667	-4.37331E-003	-5.47046E-003	5.00667E-004	...........
	8	2.325	-4.74144E-003	-5.80416E-003	5.01700E-004	...........
	9	2.58333	-5.09467E-003	-6.12341E-003	5.01267E-004	...........
	10	2.84167	-5.43689E-003	-6.44771E-003	5.01700E-004	...........
	11	3.1	-5.77037E-003	-6.75005E-003	5.02800E-004	...........
	12	3.35833	-6.09568E-003	-7.04820E-003	4.99100E-004	...........
	13	3.61667	-6.41276E-003	-7.35377E-003	4.99467E-004	...........
	14	3.875	-6.72243E-003	-7.65285E-003	4.98600E-004	...........
	15	4.13333	-7.02672E-003	-7.93680E-003	5.05300E-004	...........
	16	4.39167	-7.32677E-003	-8.22239E-003	5.05867E-004	...........
	17	4.65	-7.62175E-003	-8.48523E-003	5.05733E-004	...........
	18	4.90833	-7.91074E-003	-8.79580E-003	4.99767E-004	...........
EOC	QUANT	-0.0079107	Open Circuit (V)
PSTATMODEL	IQUANT	4	Pstat Model
PSTATSECTION	LABEL	REF600-11020	Pstat Section
PSTATSERIALNO	LABEL	11020	Pstat Serial Number
CTRLMODE	IQUANT	1	Control Mode
IESTAB	IQUANT	0	I/E Stability
CASPEED	IQUANT	1	Control Amp Speed
CONVENTION	IQUANT	1	Current Convention
ICHRANGE	IQUANT	2	Ich Range
ICHRANGEMODE	TOGGLE	F	Ich Auto Range
ICHOFFSETENABLE	TOGGLE	T	Ich Offset Enable
ICHOFFSET	QUANT	0	Ich Offset (V)
ICHFILTER	IQUANT	3	Ich Filter
VCHRANGE	IQUANT	2	Vch Range
VCHRANGEMODE	TOGGLE	F	Vch Auto Range
VCHOFFSETENABLE	TOGGLE	T	Vch Offset Enable
VCHOFFSET	QUANT	0	Vch Offset (V)
VCHFILTER	IQUANT	3	Vch Filter
ACHRANGE	IQUANT	2	Ach Range
ACHOFFSETENABLE	TOGGLE	F	Ach Offset Enable
ACHOFFSET	QUANT	0	Ach Offset (V)
ACHFILTER	IQUANT	3	Ach Filter
IERANGELOWERLIMIT	IQUANT	1	I/E Range Lower Limit
IERANGEMODE	TOGGLE	F	I/E AutoRange
IERANGE	IQUANT	5	I/E Range
POSFEEDENABLE	TOGGLE	F	Positive Feedback IR Comp
POSFEEDRESISTANCE	QUANT	0	Positive Feedback Resistance (ohm)
ACHSELECT	IQUANT	0	Ach Select
CABLEID	IQUANT	14	Cable ID
DCCALDATE	LABEL	8/19/2019	DC Calibration Date
ACCALDATE	LABEL	8/19/2019	AC Calibration Date
THERMOSELECT	IQUANT	1	Thermo Select
FRAMEWORKVERSION	QUANT	6.33	Framework Version
INSTRUMENTVERSION	LABEL	3.50	Instrument Version
ZCURVE	TABLE
	Pt	Time	Freq	Zreal	Zimag	Zsig	Zmod	Zphz	Idc	Vdc	IERange
	#	s	Hz	ohm	ohm	V	ohm	°	A	V	#
	0	2	1000078	1046.413	-1522.228	1	1847.203	-55.4945	1.159901E-005	-0.0068381	8
	1	3	794390.6	1137.766	-1802.787	1	2131.795	-57.74337	-8.395815E-006	-0.0054716	8
	2	5	630984.4	1257.169	-2151.081	1	2491.51	-59.69645	-8.489137E-007	-0.0063871	8
	3	6	501234.4	1395.868	-2576.214	1	2930.073	-61.54987	-1.682239E-007	-0.0066592	8
	4	8	398109.4	1587.64	-3090.281	1	3474.253	-62.80804	5.682579E-006	-0.0071429	8
	5	9	316265.6	1816.947	-3735.314	1	4153.778	-64.06059	-3.188523E-007	-0.0067717	8
	6	10	251203.1	2124.827	-4497.406	1	4974.088	-64.71132	-7.549398E-007	-0.0060721	8
	7	12	199546.9	2512.98	-5407.054	1	5962.491	-65.0729	3.442873E-008	-0.0067712	8
	8	13	158578.1	3061.549	-6534.242	1	7215.913	-64.89507	5.23186E-006	-0.0074704	8
	9	14	125953.1	3904.51	-7670.04	1	8606.666	-63.02118	4.040491E-007	-0.0039703	7
	10	16	100078.1	4826.859	-9146.474	1	10341.98	-62.17809	-8.64299E-007	-0.004681	7
	11	17	79453.13	6010.896	-10692.66	1	12266.37	-60.65741	-1.643382E-007	-0.0051577	7
	12	19	63140.62	7574.809	-12443.13	1	14567.4	-58.66886	-1.112811E-006	-0.0047006	7
	13	20	50203.12	9535.15	-14248.3	1	17144.48	-56.20904	-1.287367E-006	-0.0048449	7
	14	21	39890.62	11856	-16157.59	1	20040.77	-53.72977	6.993725E-007	-0.0083982	7
	15	23	31640.63	14663.78	-17595.87	1	22905.05	-50.19337	7.97768E-007	-0.0065281	7
	16	24	25171.88	17768.21	-19236.95	1	26187.2	-47.27288	-9.269398E-007	-0.0064286	7
	17	26	20015.62	20877.91	-20105.77	1	28984.98	-43.92067	-8.554537E-007	-0.0047242	7
	18	27	15890.62	24723.91	-21565.83	1	32807.87	-41.09708	9.710999E-007	-0.0084288	7
	19	29	12609.37	28490.41	-21631.02	1	35771.56	-37.20717	-1.490906E-007	-0.0060484	6
	20	30	10078.13	31847.33	-22009.49	1	38712.67	-34.64811	-1.56391E-007	-0.0035524	6
	21	32	8015.625	35371.14	-22630.99	1	41991.43	-32.61173	-1.512509E-007	-0.0060458	6
	22	33	6328.125	38831.87	-23076.87	1	45171.41	-30.72203	1.803805E-007	-0.0086398	6
	23	35	5015.625	41967.35	-23348.13	1	48024.93	-29.08895	-1.046841E-007	-0.003792	6
	24	36	3984.375	45395.52	-24032.27	1	51364.42	-27.89662	7.328148E-008	-0.0057145	6
	25	38	3170.956	48530.65	-24645.59	1	54430.04	-26.92308	-1.842756E-007	-0.0051021	6
	26	39	2527.573	51986.65	-25574.03	1	57936.54	-26.19417	1.623383E-008	-0.0049345	6
	27	40	1976.103	55749.17	-26631.62	1	61783.59	-25.534	-1.553646E-007	-0.0035817	6
	28	42	1577.524	59693.69	-28091.13	1	65973.09	-25.20111	-5.112427E-008	-0.0078491	6
	29	43	1265.625	63291.9	-29588.2	1	69866.48	-25.05552	1.712467E-007	-0.009059	6
	30	45	998.264	67235.34	-30733.61	1	73926.63	-24.56537	-1.86366E-007	-0.0050924	6
	31	46	796.875	71496.02	-32477.08	1	78526.69	-24.42993	-4.464579E-008	-0.0042877	6
	32	48	627.7902	76088.71	-34246	1	83440.28	-24.23155	-1.99445E-007	-0.0042722	6
	33	49	505.5147	80981.47	-36651.64	1	88889.48	-24.35117	1.601554E-007	-0.0074368	6
	34	51	397.9953	85923.05	-38715.4	1	94242.52	-24.25548	1.976418E-009	-0.0065846	6
	35	52	315.5048	91182.08	-40868.89	1	99922.2	-24.14249	2.257358E-009	-0.0065896	5
	36	53	252.4038	96184.6	-43702.23	1	105647.4	-24.43504	1.966736E-009	-0.0065933	5
	37	55	198.6229	101848.5	-47233.54	1	112268.1	-24.88012	1.73202E-009	-0.0065916	5
	38	56	158.3615	107227.4	-51176.86	1	118814.1	-25.51393	-1.485563E-010	-0.0065856	5
	39	57	125.558	113391.5	-56054.2	1	126489.9	-26.30513	1.936706E-009	-0.0065857	5
	40	59	100.4464	119810.1	-61318.38	1	134589.8	-27.10319	1.646664E-009	-0.0065953	5
	41	60	79.00281	126661.4	-69901.75	1	144669.8	-28.89338	1.438508E-009	-0.0065858	5
	42	62	63.3446	136078.2	-73290.18	1	154559.8	-28.3064	2.255132E-009	-0.0065969	5
	43	63	49.86702	146137.9	-88485.1	1	170838.8	-31.1945	1.340808E-009	-0.0065871	5
	44	64	39.72458	153884	-98276	1	182588.2	-32.5638	1.846257E-009	-0.0065829	5
	45	66	31.6723	165902.9	-110537.3	1	199354.6	-33.6746	2.074234E-009	-0.0065812	5
	46	67	24.93351	179594.9	-125236.4	1	218948.5	-34.88911	1.592388E-009	-0.006575	5
	47	69	19.86229	195076.8	-140822.6	1	240595	-35.82487	1.877352E-009	-0.0065799	5
	48	70	15.83615	214466.1	-160543.7	1	267899.2	-36.81757	2.433935E-009	-0.0065778	5
	49	72	12.40079	232974.2	-180305.8	1	294596.6	-37.73738	1.658933E-009	-0.0065661	5
	50	73	9.93114	256119.3	-201383.5	1	325810.3	-38.17754	1.23794E-009	-0.0065721	5
	51	75	7.944915	282140	-228108.5	1	362817.4	-38.95532	2.239205E-009	-0.0065737	5
	52	76	6.317385	312259	-252806.9	1	401767.3	-38.99385	2.014964E-009	-0.0065886	5
	53	78	5.008013	347203	-282499.1	1	447611	-39.13327	1.326199E-009	-0.0065815	5
	54	81	3.945707	386502.6	-313766.4	1	497828.9	-39.07001	1.743338E-009	-0.0065812	5
	55	83	3.158693	427124.7	-345918.1	1	549631.6	-39.00319	1.205788E-009	-0.0065947	5
	56	87	2.504006	472343.2	-381542.3	1	607192.4	-38.93007	1.651207E-009	-0.0065779	5
	57	89	1.998082	518861.6	-423249.4	1	669595	-39.20506	2.016466E-009	-0.0065877	5
	58	93	1.584686	570648.3	-466672.3	1	737171.9	-39.27607	1.399754E-009	-0.0066317	5
	59	96	1.266892	624530	-520980.7	1	813301	-39.83474	1.633121E-009	-0.0065764	5
	60	100	0.999041	689058.2	-585713.2	1	904356.8	-40.3652	9.141952E-010	-0.0066103	5
