EXPLAIN
TAG	EISPOT
TITLE	LABEL	Potentiostatic EIS	Test &Identifier
DATE	LABEL	10/18/2019	Date
TIME	LABEL	9:17:39	Time
NOTES	NOTES	1	&Notes...
	
PSTAT	PSTAT	REF600-11020	Potentiostat
VDC	POTEN	0.00000E+000	T	DC &Voltage (V)
FREQINIT	QUANT	1.00000E+006	Initial Fre&q. (Hz)
FREQFINAL	QUANT	1.00000E+000	Final Fre&q. (Hz)
PTSPERDEC	QUANT	1.00000E+001	Points/&decade
VAC	QUANT	2.50000E+001	AC &Voltage (mV rms)
AREA	QUANT	1.00000E-002	&Area (cm^2)
CONDIT	TWOPARAM	T	5.00000E+000	0.00000E+000	Conditionin&g	Time(s)	E(V)
DELAY	TWOPARAM	T	5.00000E+000	0.00000E+000	Init. De&lay	Time(s)	Stab.(mV/s)
SPEED	SELECTOR	0	&Optimize for:
ZGUESS	QUANT	1.00000E+005	E&stimated Z (ohms)
OCVCURVE	TABLE	19
	Pt	T	Vf	Vm	Ach	Over
	#	s	V vs. Ref.	V	V	bits
	0	0.258333	1.07123E-002	1.07123E-002	5.43233E-004	...........
	1	0.516667	1.02386E-002	-1.40845E-002	5.37999E-004	...........
	2	0.775	7.87793E-003	-8.89482E-003	5.39299E-004	...........
	3	1.03333	3.15183E-003	2.90478E-003	5.39333E-004	...........
	4	1.29167	-1.48351E-003	-2.28914E-004	5.36066E-004	...........
	5	1.55	-3.25624E-003	1.77713E-003	5.44299E-004	...........
	6	1.80833	-2.38395E-003	-9.25208E-004	5.44133E-004	...........
	7	2.06667	-9.88851E-004	-5.87000E-003	5.38366E-004	...........
	8	2.325	-7.30468E-004	-7.36437E-003	5.38599E-004	...........
	9	2.58333	-2.19730E-003	-1.82550E-002	5.42533E-004	...........
	10	2.84167	-5.21926E-003	-1.29852E-002	5.45299E-004	...........
	11	3.1	-9.00544E-003	-1.83201E-002	5.40333E-004	...........
	12	3.35833	-1.22563E-002	-6.82841E-003	5.40566E-004	...........
	13	3.61667	-1.36100E-002	-2.05564E-003	5.41066E-004	...........
	14	3.875	-1.23441E-002	-2.80700E-003	5.42699E-004	...........
	15	4.13333	-9.24800E-003	-6.51290E-003	5.37099E-004	...........
	16	4.39167	-6.30544E-003	-4.86781E-003	5.37433E-004	...........
	17	4.65	-4.86376E-003	-6.59489E-003	5.34099E-004	...........
	18	4.90833	-4.61696E-003	2.30914E-003	5.44233E-004	...........
EOC	QUANT	-0.004617	Open Circuit (V)
PSTATMODEL	IQUANT	4	Pstat Model
PSTATSECTION	LABEL	REF600-11020	Pstat Section
PSTATSERIALNO	LABEL	11020	Pstat Serial Number
CTRLMODE	IQUANT	1	Control Mode
IESTAB	IQUANT	0	I/E Stability
CASPEED	IQUANT	1	Control Amp Speed
CONVENTION	IQUANT	1	Current Convention
ICHRANGE	IQUANT	2	Ich Range
ICHRANGEMODE	TOGGLE	F	Ich Auto Range
ICHOFFSETENABLE	TOGGLE	T	Ich Offset Enable
ICHOFFSET	QUANT	0	Ich Offset (V)
ICHFILTER	IQUANT	3	Ich Filter
VCHRANGE	IQUANT	2	Vch Range
VCHRANGEMODE	TOGGLE	F	Vch Auto Range
VCHOFFSETENABLE	TOGGLE	T	Vch Offset Enable
VCHOFFSET	QUANT	0	Vch Offset (V)
VCHFILTER	IQUANT	3	Vch Filter
ACHRANGE	IQUANT	2	Ach Range
ACHOFFSETENABLE	TOGGLE	F	Ach Offset Enable
ACHOFFSET	QUANT	0	Ach Offset (V)
ACHFILTER	IQUANT	3	Ach Filter
IERANGELOWERLIMIT	IQUANT	1	I/E Range Lower Limit
IERANGEMODE	TOGGLE	F	I/E AutoRange
IERANGE	IQUANT	4	I/E Range
POSFEEDENABLE	TOGGLE	F	Positive Feedback IR Comp
POSFEEDRESISTANCE	QUANT	0	Positive Feedback Resistance (ohm)
ACHSELECT	IQUANT	0	Ach Select
CABLEID	IQUANT	14	Cable ID
DCCALDATE	LABEL	8/19/2019	DC Calibration Date
ACCALDATE	LABEL	8/19/2019	AC Calibration Date
THERMOSELECT	IQUANT	1	Thermo Select
FRAMEWORKVERSION	QUANT	6.33	Framework Version
INSTRUMENTVERSION	LABEL	3.50	Instrument Version
ZCURVE	TABLE
	Pt	Time	Freq	Zreal	Zimag	Zsig	Zmod	Zphz	Idc	Vdc	IERange
	#	s	Hz	ohm	ohm	V	ohm	°	A	V	#
	0	1	1000078	1190.574	-10361.83	1	10430	-83.44546	2.26251E-007	-0.0021554	8
	1	2	794390.6	1383.893	-12798.49	1	12873.09	-83.82862	-9.911986E-007	-0.0020358	8
	2	2	630984.4	1421.047	-15893.13	1	15956.54	-84.89062	-1.104891E-007	-0.0025076	8
	3	2	501234.4	1472.543	-20064.37	1	20118.33	-85.80254	-3.223514E-006	-0.0020365	8
	4	3	398109.4	1442.781	-25456.66	1	25497.52	-86.75618	-2.152987E-006	-0.0023772	8
	5	3	316265.6	3426.257	-31098.98	1	31287.15	-83.71293	-1.393987E-006	-0.0025751	8
	6	4	251203.1	3219.752	-38126.01	1	38261.72	-85.17281	8.738063E-007	-0.0031583	8
	7	4	199546.9	5122.924	-46920.13	1	47198.97	-83.76891	-3.124455E-007	-0.0027655	8
	8	4	158578.1	1553.416	-57024.44	1	57045.6	-88.43958	1.327679E-006	-0.003194	8
	9	5	125953.1	3178.584	-74863.21	1	74930.66	-87.56876	8.140757E-007	-0.0046394	7
	10	5	100078.1	8143.27	-92450.59	1	92808.53	-84.96624	-1.729127E-008	-0.0029931	7
	11	5	79453.13	10536.28	-116062.7	1	116540	-84.81285	-1.716344E-008	-0.0030075	7
	12	6	63140.62	11890.27	-144704.6	1	145192.3	-85.3026	5.959859E-008	-0.00303	7
	13	7	50203.12	16485.59	-181059.3	1	181808.2	-84.79752	6.134174E-008	-0.0030247	7
	14	7	39890.62	23842.53	-222518.2	1	223791.9	-83.88417	-1.672002E-008	-0.0027798	7
	15	7	31640.63	32372.61	-279306.1	1	281175.9	-83.38871	-1.794764E-008	-0.0029353	7
	16	8	25171.88	31252.96	-340439.6	1	341871.2	-84.75485	-3.908064E-008	-0.002959	7
	17	9	20015.62	4654.171	-335625	1	335657.3	-89.20552	1.627362E-007	-0.003212	7
	18	9	15890.62	53958.42	-534041	1	536760	-84.23053	-4.005961E-008	-0.0028683	7
	19	9	12609.37	76948.26	-648839.9	1	653386.8	-83.23668	6.190868E-009	-0.0029069	6
	20	10	10078.13	120248.8	-807825.5	1	816726.3	-81.53341	6.777739E-009	-0.0029767	6
	21	10	8015.625	280480.3	-990713	1	1029651	-74.19267	-9.326107E-009	-0.0027274	6
	22	10	6328.125	158107.3	-1325515	1	1334912	-83.19791	-8.317605E-010	-0.0030658	6
	23	11	5015.625	258912.5	-1525128	1	1546949	-80.36507	6.001656E-009	-0.0032743	6
	24	11	3984.375	677003.8	-855122.9	1	1090674	-51.63122	-1.1694E-008	-0.0029259	6
	25	12	3170.956	540774.7	-2423089	1	2482700	-77.41914	-6.712055E-009	-0.0030421	6
	26	12	2527.573	690958.9	-2701799	1	2788753	-75.65462	5.196382E-009	-0.0032892	6
	27	13	1976.103	863798.9	-3007590	1	3129177	-73.9756	8.886586E-009	-0.0032471	6
	28	13	1577.524	-2768241	298259.6	1	2784262	173.8505	1.633891E-008	-0.003088	6
	29	14	1265.625	2203587	-5228888	1	5674246	-67.14819	1.633187E-010	-0.0032248	5
	30	14	998.264	2651791	-6891200	1	7383809	-68.95286	-2.403565E-009	-0.0028068	5
	31	14	796.875	5179833	-7073830	1	8767539	-53.78643	2.577559E-008	-0.0033811	6
	32	15	627.7902	8342639	-7131442	1	1.097529E+007	-40.52443	-6.197494E-009	-0.0031137	6
	33	15	505.5147	6756416	-8776010	1	1.107554E+007	-52.40829	-1.11076E-009	-0.002923	5
	34	16	397.9953	9247419	-8950484	1	1.286957E+007	-44.06519	8.492865E-010	-0.0030184	5
	35	16	315.5048	9.583635E+006	-1.594251E+007	1	1.860133E+007	-58.98835	5.699149E-010	-0.0030194	5
	36	17	252.4038	9.883079E+006	-8422764	1	1.298531E+007	-40.43899	-6.797221E-011	-0.0030205	5
	37	18	198.6229	1.327767E+007	-1.245747E+007	1	1.820673E+007	-43.17456	-2.552252E-010	-0.0030184	5
	38	18	158.3615	1.437124E+007	-4915942	1	1.518878E+007	-18.88418	-2.592544E-010	-0.0030249	5
	39	19	125.558	1.707422E+007	-6193824	1	1.816294E+007	-19.93869	-3.05583E-010	-0.003022	5
	40	19	100.4464	5107372	-8012102	1	9.501527E+006	-57.48423	-6.570594E-010	-0.0030243	5
	41	20	79.00281	6260332	300080.9	1	6267520	2.744298	-4.607675E-011	-0.0030241	5
	42	20	63.3446	193135.8	3252822	1	3258551	86.60206	-1.042252E-010	-0.0030342	6
	43	21	49.86702	-1.108931E+007	-3.468423E+007	1	3.641385E+007	-107.7302	2.838769E-010	-0.0030294	5
	44	22	39.72458	1.111913E+007	-1.066786E+007	1	1.540903E+007	-43.81339	4.403281E-010	-0.0030163	5
	45	22	31.6723	7269286	8281156	1	1.101908E+007	48.723	-9.213549E-010	-0.0030263	5
	46	23	24.93351	2.632504E+007	-9295951	1	2.791814E+007	-19.44925	1.487742E-010	-0.0030287	5
	47	23	19.86229	1.668624E+007	-1.759754E+007	1	2.425085E+007	-46.52263	-3.464786E-010	-0.0030247	5
	48	24	15.83615	-2570.744	-9201032	1	9201032	-90.01601	1.814618E-009	-0.0030222	5
	49	25	12.40079	-1.043982E+007	1.322634E+007	1	1.68501E+007	128.2848	-1.419227E-009	-0.0030239	5
	50	26	9.93114	3.656601E+007	-9206723	1	3.770725E+007	-14.13239	2.323517E-010	-0.0029996	5
	51	26	7.944915	2.504338E+007	3177230	1	2.524412E+007	7.230434	-8.115614E-011	-0.0030161	5
	52	28	6.317385	2.877276E+007	-1060108	1	2.879228E+007	-2.110061	1.005079E-010	-0.003019	5
	53	29	5.008013	2.686751E+007	-6138926	1	2.755993E+007	-12.8705	-1.729976E-011	-0.0030117	5
	54	31	3.945707	2.682745E+007	-7412481	1	2.783266E+007	-15.44559	-4.360515E-011	-0.0030171	5
	55	33	3.158693	3.038293E+007	-2648689	1	3.049817E+007	-4.98227	3.282689E-011	-0.003042	5
	56	35	2.504006	1.688547E+008	-1.144038E+007	1	1.692418E+008	-3.876024	9.222846E-011	-0.0030466	3
	57	37	1.998082	1.728298E+008	-1.7937E+007	1	1.737581E+008	-5.925181	1.000232E-010	-0.0030635	3
	58	40	1.584686	1.724705E+008	-1.82841E+007	1	1.73437E+008	-6.051489	7.105121E-011	-0.003095	3
	59	43	1.266892	1.707372E+009	-4.720684E+008	1	1.771431E+009	-15.4555	-1.608506E-012	-0.0030642	2
	60	46	0.999041	1.755255E+009	-4.108066E+008	1	1.802687E+009	-13.17263	-2.202712E-012	-0.0030347	2
