EXPLAIN
TAG	EISPOT
TITLE	LABEL	Potentiostatic IDE	Test &Identifier
DATE	LABEL	9/8/2019	Date
TIME	LABEL	9:58:58	Time
NOTES	NOTES	1	&Notes...
	
PSTAT	PSTAT	REF600-11020	Potentiostat
VDC	POTEN	0.00000E+000	T	DC &Voltage (V)
FREQINIT	QUANT	1.00000E+006	Initial Fre&q. (Hz)
FREQFINAL	QUANT	1.00000E+000	Final Fre&q. (Hz)
PTSPERDEC	QUANT	1.00000E+001	Points/&decade
VAC	QUANT	2.50000E+001	AC &Voltage (mV rms)
AREA	QUANT	1.00000E-002	&Area (cm^2)
CONDIT	TWOPARAM	T	5.00000E+000	0.00000E+000	Conditionin&g	Time(s)	E(V)
DELAY	TWOPARAM	T	5.00000E+000	0.00000E+000	Init. De&lay	Time(s)	Stab.(mV/s)
SPEED	SELECTOR	1	&Optimize for:
ZGUESS	QUANT	1.00000E+007	E&stimated Z (ohms)
OCVCURVE	TABLE	19
	Pt	T	Vf	Vm	Ach	Over
	#	s	V vs. Ref.	V	V	bits
	0	0.258333	2.15767E-003	2.15767E-003	5.49566E-004	...........
	1	0.516667	2.14977E-003	1.74427E-003	5.52932E-004	...........
	2	0.775	2.10167E-003	1.37288E-003	5.51433E-004	...........
	3	1.03333	1.96719E-003	1.03269E-003	5.54733E-004	...........
	4	1.29167	1.73065E-003	7.15327E-004	5.54899E-004	...........
	5	1.55	1.42291E-003	4.19236E-004	5.53699E-004	...........
	6	1.80833	1.09033E-003	1.41769E-004	5.51633E-004	...........
	7	2.06667	7.64891E-004	-1.22636E-004	5.51566E-004	...........
	8	2.325	4.59228E-004	-3.76378E-004	5.53799E-004	...........
	9	2.58333	1.74059E-004	-6.15510E-004	5.46799E-004	...........
	10	2.84167	-9.38512E-005	-8.42490E-004	5.44433E-004	...........
	11	3.1	-3.47369E-004	-1.05989E-003	5.48866E-004	...........
	12	3.35833	-5.88305E-004	-1.27444E-003	5.51933E-004	...........
	13	3.61667	-8.18341E-004	-1.48030E-003	5.50999E-004	...........
	14	3.875	-1.03938E-003	-1.68109E-003	5.50433E-004	...........
	15	4.13333	-1.25295E-003	-1.87367E-003	5.52499E-004	...........
	16	4.39167	-1.45987E-003	-2.06328E-003	5.49566E-004	...........
	17	4.65	-1.66115E-003	-2.27936E-003	5.46699E-004	...........
	18	4.90833	-1.85838E-003	-2.41640E-003	5.49533E-004	...........
EOC	QUANT	-0.0018584	Open Circuit (V)
PSTATMODEL	IQUANT	4	Pstat Model
PSTATSECTION	LABEL	REF600-11020	Pstat Section
PSTATSERIALNO	LABEL	11020	Pstat Serial Number
CTRLMODE	IQUANT	1	Control Mode
IESTAB	IQUANT	0	I/E Stability
CASPEED	IQUANT	1	Control Amp Speed
CONVENTION	IQUANT	1	Current Convention
ICHRANGE	IQUANT	2	Ich Range
ICHRANGEMODE	TOGGLE	F	Ich Auto Range
ICHOFFSETENABLE	TOGGLE	T	Ich Offset Enable
ICHOFFSET	QUANT	0	Ich Offset (V)
ICHFILTER	IQUANT	3	Ich Filter
VCHRANGE	IQUANT	2	Vch Range
VCHRANGEMODE	TOGGLE	F	Vch Auto Range
VCHOFFSETENABLE	TOGGLE	T	Vch Offset Enable
VCHOFFSET	QUANT	0	Vch Offset (V)
VCHFILTER	IQUANT	3	Vch Filter
ACHRANGE	IQUANT	2	Ach Range
ACHOFFSETENABLE	TOGGLE	F	Ach Offset Enable
ACHOFFSET	QUANT	0	Ach Offset (V)
ACHFILTER	IQUANT	3	Ach Filter
IERANGELOWERLIMIT	IQUANT	1	I/E Range Lower Limit
IERANGEMODE	TOGGLE	F	I/E AutoRange
IERANGE	IQUANT	2	I/E Range
POSFEEDENABLE	TOGGLE	F	Positive Feedback IR Comp
POSFEEDRESISTANCE	QUANT	0	Positive Feedback Resistance (ohm)
ACHSELECT	IQUANT	0	Ach Select
CABLEID	IQUANT	14	Cable ID
DCCALDATE	LABEL	8/19/2019	DC Calibration Date
ACCALDATE	LABEL	8/19/2019	AC Calibration Date
THERMOSELECT	IQUANT	1	Thermo Select
FRAMEWORKVERSION	QUANT	6.33	Framework Version
INSTRUMENTVERSION	LABEL	3.50	Instrument Version
ZCURVE	TABLE
	Pt	Time	Freq	Zreal	Zimag	Zsig	Zmod	Zphz	Idc	Vdc	IERange
	#	s	Hz	ohm	ohm	V	ohm	°	A	V	#
	0	2	1000078	2702.194	-1820.561	1	3258.266	-33.96949	7.344051E-006	-0.0008795	8
	1	3	794390.6	3056.764	-1735.448	1	3515.051	-29.58533	-7.575858E-006	0.0013619	8
	2	5	630984.4	3366.654	-1563.199	1	3711.865	-24.9063	-7.001995E-007	0.0004126	8
	3	6	501234.4	3636.368	-1410.041	1	3900.177	-21.19434	6.561063E-006	-0.0011498	8
	4	8	398109.4	3822.315	-1217.377	1	4011.496	-17.66627	-2.702849E-006	0.0001807	8
	5	9	316265.6	3986.695	-1052.594	1	4123.311	-14.79012	-1.952244E-006	0.0001478	8
	6	11	251203.1	4083.329	-928.581	1	4187.582	-12.81163	4.052618E-007	-0.000154	8
	7	12	199546.9	4216.431	-803.0666	1	4292.226	-10.78347	-3.736501E-006	0.0006512	8
	8	14	158578.1	4247.386	-700.3705	1	4304.742	-9.3635	2.349862E-006	-0.0005419	8
	9	15	125953.1	4333.203	-555.4583	1	4368.659	-7.304712	-4.115339E-007	0.0007742	7
	10	17	100078.1	4372.437	-504.1545	1	4401.406	-6.577322	-2.480574E-008	-0.0001567	7
	11	18	79453.13	4408.345	-472.6548	1	4433.611	-6.119771	5.182344E-008	-0.0003134	7
	12	19	63140.62	4445.616	-451.1081	1	4468.445	-5.794118	-7.262731E-009	-0.0001187	7
	13	20	50203.12	4479.757	-443.6216	1	4501.669	-5.65545	-2.365243E-008	1.835203E-006	7
	14	22	39890.62	4514.131	-450.3428	1	4536.54	-5.697143	1.430265E-007	-0.0003697	7
	15	23	31640.63	4549.437	-463.6279	1	4573	-5.818859	8.667195E-008	-0.0003121	7
	16	24	25171.88	4588.281	-493.3485	1	4614.728	-6.137071	-2.270389E-008	-1.108639E-005	7
	17	26	20015.62	4629.869	-533.8772	1	4660.549	-6.577811	-2.391186E-008	-3.984932E-006	7
	18	27	15890.62	4675.44	-592.1064	1	4712.784	-7.217621	-4.315198E-008	-0.000132	7
	19	28	12609.37	4722.701	-662.9285	1	4769.002	-7.990436	2.937113E-009	-0.0002392	7
	20	30	10078.13	4774.803	-747.6672	1	4832.985	-8.899449	-4.348325E-008	-0.000138	7
	21	31	8015.625	4835.168	-855.5951	1	4910.285	-10.03475	8.814557E-008	-0.0003201	7
	22	32	6328.125	4905.828	-991.54	1	5005.027	-11.42639	-4.526947E-008	-0.0001369	7
	23	34	5015.625	4985.975	-1155.921	1	5118.212	-13.05256	-4.37724E-008	-0.0001374	7
	24	35	3984.375	5072.736	-1348.217	1	5248.842	-14.88383	7.166522E-008	-0.0001822	7
	25	36	3170.956	5175.248	-1582.768	1	5411.871	-17.00542	-1.97066E-008	-0.0001683	7
	26	38	2527.573	5289.564	-1860.575	1	5607.248	-19.37904	-3.154728E-008	-0.000175	7
	27	39	1976.103	5437.151	-2222.163	1	5873.723	-22.22983	3.212148E-009	-0.0002497	7
	28	40	1577.524	5588.883	-2622.935	1	6173.767	-25.14127	5.641158E-008	-0.0003272	7
	29	42	1265.625	5760.174	-3088.435	1	6535.904	-28.19889	-4.375727E-008	-0.0001041	7
	30	43	998.264	5973.829	-3697.504	1	7025.537	-31.75546	3.334205E-009	-0.0002313	7
	31	44	796.875	6200.707	-4392.543	1	7598.895	-35.31353	1.47687E-007	-0.0003728	7
	32	46	627.7902	6482.164	-5278.151	1	8359.267	-39.15446	-2.247052E-008	-0.0001789	7
	33	47	505.5147	6770.079	-6260.985	1	9221.383	-42.76272	-3.208143E-008	-0.0001745	7
	34	49	397.9953	7139.376	-7566.026	1	10402.67	-46.66186	1.045858E-009	-0.0002115	6
	35	50	315.5048	7549.633	-9129.871	1	11847	-50.41212	1.55216E-009	-0.00021	6
	36	51	252.4038	8009.487	-10961.83	1	13576.22	-53.84551	7.328377E-010	-0.0002133	6
	37	52	198.6229	8590.086	-13372.92	1	15894.17	-57.28537	1.172544E-009	-0.0002136	6
	38	54	158.3615	9250.625	-16177.71	1	18635.78	-60.23852	1.132178E-009	-0.0002165	6
	39	55	125.558	10058.95	-19691.75	1	22112.15	-62.94113	1.051286E-009	-0.0002166	6
	40	56	100.4464	11025.31	-23799.28	1	26229.06	-65.14349	8.066635E-010	-0.0002202	6
	41	58	79.00281	12282.54	-29322.27	1	31790.82	-67.27212	7.25434E-010	-0.0002216	6
	42	59	63.3446	13502.54	-35188.9	1	37690.55	-69.00739	1.617159E-009	-0.0002242	6
	43	61	49.86702	15931.88	-43508.03	1	46333.29	-69.88815	1.392445E-009	-0.0002254	6
	44	62	39.72458	18050.69	-52865.52	1	55862.24	-71.14777	9.451209E-010	-0.0002174	6
	45	63	31.6723	21121.73	-64134.21	1	67522.77	-71.7714	1.350249E-009	-0.000231	6
	46	65	24.93351	25189.82	-78824.63	1	82751.73	-72.27779	8.977974E-010	-0.0002318	6
	47	66	19.86229	30111.39	-95688.7	1	100314.6	-72.53221	9.87995E-010	-0.0002204	6
	48	67	15.83615	37353.62	-116118.5	1	121978.7	-72.16778	-5.458216E-010	-0.0002189	5
	49	69	12.40079	44908.9	-142147.1	1	149072.5	-72.46697	3.234135E-010	-0.0002166	5
	50	70	9.93114	56681.42	-170779.5	1	179940	-71.63908	6.448329E-010	-0.0002171	5
	51	72	7.944915	69750.7	-204226.5	1	215809.2	-71.14312	1.042732E-009	-0.0002203	5
	52	73	6.317385	88343.42	-244963.6	1	260406.8	-70.16872	8.047122E-010	-0.0002319	5
	53	75	5.008013	112085.8	-293239.9	1	313931.3	-69.08152	2.54555E-010	-0.0002242	5
	54	78	3.945707	143342	-350778.4	1	378935.9	-67.77312	5.357843E-010	-0.0002161	5
	55	80	3.158693	179850.4	-412439.2	1	449946.9	-66.43966	1.553773E-010	-0.0002173	5
	56	84	2.504006	227439.5	-484155.6	1	534916.3	-64.83749	5.673496E-010	-0.0002234	5
	57	86	1.998082	282567.8	-561782.9	1	628843.9	-63.29833	8.315609E-011	-0.0001865	5
	58	89	1.584686	351770.3	-650325.1	1	739368	-61.5904	4.007284E-010	-0.0001834	5
	59	93	1.266892	430506.3	-742329.8	1	858131.2	-59.88886	9.390128E-011	-0.0001818	5
	60	97	0.999041	524226.7	-848066.5	1	997011	-58.27799	4.116837E-010	-0.0002322	5
