EXPLAIN
TAG	EISPOT
TITLE	LABEL	Potentiostatic EIS	Test &Identifier
DATE	LABEL	10/26/2019	Date
TIME	LABEL	10:17:32	Time
NOTES	NOTES	1	&Notes...
	
PSTAT	PSTAT	REF600-11020	Potentiostat
VDC	POTEN	0.00000E+000	T	DC &Voltage (V)
FREQINIT	QUANT	1.00000E+006	Initial Fre&q. (Hz)
FREQFINAL	QUANT	1.00000E+000	Final Fre&q. (Hz)
PTSPERDEC	QUANT	1.00000E+001	Points/&decade
VAC	QUANT	2.50000E+001	AC &Voltage (mV rms)
AREA	QUANT	1.00000E-002	&Area (cm^2)
CONDIT	TWOPARAM	T	5.00000E+000	0.00000E+000	Conditionin&g	Time(s)	E(V)
DELAY	TWOPARAM	T	5.00000E+000	0.00000E+000	Init. De&lay	Time(s)	Stab.(mV/s)
SPEED	SELECTOR	0	&Optimize for:
ZGUESS	QUANT	1.00000E+005	E&stimated Z (ohms)
OCVCURVE	TABLE	19
	Pt	T	Vf	Vm	Ach	Over
	#	s	V vs. Ref.	V	V	bits
	0	0.258333	6.24132E-003	6.24132E-003	5.41899E-004	...........
	1	0.516667	6.24124E-003	6.23679E-003	5.44266E-004	...........
	2	0.775	6.24033E-003	6.21313E-003	5.41833E-004	...........
	3	1.03333	6.23616E-003	6.16996E-003	5.45033E-004	...........
	4	1.29167	6.22492E-003	6.14442E-003	5.48133E-004	...........
	5	1.55	6.20562E-003	6.16230E-003	5.48933E-004	...........
	6	1.80833	6.18549E-003	6.24373E-003	5.52432E-004	...........
	7	2.06667	6.17841E-003	6.28210E-003	5.41499E-004	...........
	8	2.325	6.19269E-003	6.26071E-003	5.50466E-004	...........
	9	2.58333	6.22130E-003	6.30129E-003	5.47666E-004	...........
	10	2.84167	6.25332E-003	6.45327E-003	5.48266E-004	...........
	11	3.1	6.29336E-003	6.58479E-003	5.44533E-004	...........
	12	3.35833	6.35527E-003	6.59257E-003	5.49499E-004	...........
	13	3.61667	6.43541E-003	6.55980E-003	5.49066E-004	...........
	14	3.875	6.51064E-003	6.68471E-003	5.49566E-004	...........
	15	4.13333	6.56755E-003	6.71498E-003	5.48599E-004	...........
	16	4.39167	6.61396E-003	6.74522E-003	5.44766E-004	...........
	17	4.65	6.66017E-003	6.83848E-003	5.42733E-004	...........
	18	4.90833	6.71033E-003	6.92465E-003	5.50666E-004	...........
EOC	QUANT	0.0067103	Open Circuit (V)
PSTATMODEL	IQUANT	4	Pstat Model
PSTATSECTION	LABEL	REF600-11020	Pstat Section
PSTATSERIALNO	LABEL	11020	Pstat Serial Number
CTRLMODE	IQUANT	1	Control Mode
IESTAB	IQUANT	0	I/E Stability
CASPEED	IQUANT	1	Control Amp Speed
CONVENTION	IQUANT	1	Current Convention
ICHRANGE	IQUANT	2	Ich Range
ICHRANGEMODE	TOGGLE	F	Ich Auto Range
ICHOFFSETENABLE	TOGGLE	T	Ich Offset Enable
ICHOFFSET	QUANT	0	Ich Offset (V)
ICHFILTER	IQUANT	3	Ich Filter
VCHRANGE	IQUANT	2	Vch Range
VCHRANGEMODE	TOGGLE	F	Vch Auto Range
VCHOFFSETENABLE	TOGGLE	T	Vch Offset Enable
VCHOFFSET	QUANT	0	Vch Offset (V)
VCHFILTER	IQUANT	3	Vch Filter
ACHRANGE	IQUANT	2	Ach Range
ACHOFFSETENABLE	TOGGLE	F	Ach Offset Enable
ACHOFFSET	QUANT	0	Ach Offset (V)
ACHFILTER	IQUANT	3	Ach Filter
IERANGELOWERLIMIT	IQUANT	1	I/E Range Lower Limit
IERANGEMODE	TOGGLE	F	I/E AutoRange
IERANGE	IQUANT	5	I/E Range
POSFEEDENABLE	TOGGLE	F	Positive Feedback IR Comp
POSFEEDRESISTANCE	QUANT	0	Positive Feedback Resistance (ohm)
ACHSELECT	IQUANT	0	Ach Select
CABLEID	IQUANT	14	Cable ID
DCCALDATE	LABEL	8/19/2019	DC Calibration Date
ACCALDATE	LABEL	8/19/2019	AC Calibration Date
THERMOSELECT	IQUANT	1	Thermo Select
FRAMEWORKVERSION	QUANT	6.33	Framework Version
INSTRUMENTVERSION	LABEL	3.50	Instrument Version
ZCURVE	TABLE
	Pt	Time	Freq	Zreal	Zimag	Zsig	Zmod	Zphz	Idc	Vdc	IERange
	#	s	Hz	ohm	ohm	V	ohm	°	A	V	#
	0	2	1000078	2248.381	-1245.722	1	2570.416	-28.98876	-1.443385E-006	0.0096772	8
	1	2	794390.6	2482.803	-1146.05	1	2734.546	-24.77781	-2.373141E-006	0.0092764	8
	2	2	630984.4	2668.746	-1019.807	1	2856.959	-20.91333	1.081422E-006	0.0084939	8
	3	3	501234.4	2810.635	-884.3224	1	2946.471	-17.46537	3.107187E-006	0.0078332	8
	4	3	398109.4	2923.703	-764.4713	1	3021.996	-14.65327	2.355713E-006	0.0078204	8
	5	3	316265.6	3011.182	-656.6304	1	3081.944	-12.30157	-1.126451E-006	0.0085226	8
	6	3	251203.1	3065.218	-560.506	1	3116.044	-10.36262	3.465316E-008	0.0081953	8
	7	4	199546.9	3119.363	-478.1297	1	3155.793	-8.714359	5.686234E-007	0.0082573	8
	8	4	158578.1	3155.386	-419.0218	1	3183.086	-7.564377	-1.710691E-008	0.0083846	8
	9	4	125953.1	3189.48	-340.1081	1	3207.563	-6.086696	-1.652525E-007	0.0083729	7
	10	5	100078.1	3214.32	-306.3931	1	3228.89	-5.445055	6.854138E-008	0.0082658	7
	11	5	79453.13	3236.772	-291.8399	1	3249.903	-5.152078	1.710396E-009	0.0082612	7
	12	5	63140.62	3258.746	-286.5374	1	3271.319	-5.025021	5.965578E-008	0.008179	7
	13	6	50203.12	3280.907	-287.0047	1	3293.436	-4.999351	1.150932E-009	0.0082593	7
	14	6	39890.62	3304.089	-294.6043	1	3317.197	-5.095222	3.139254E-008	0.0081976	7
	15	6	31640.63	3329.06	-310.5076	1	3343.51	-5.328666	4.712438E-008	0.0082232	7
	16	7	25171.88	3355.032	-333.3075	1	3371.548	-5.673464	-3.898737E-008	0.0083555	7
	17	7	20015.62	3384.741	-366.018	1	3404.473	-6.17185	2.00417E-009	0.0082543	7
	18	7	15890.62	3416.097	-403.7213	1	3439.871	-6.740067	2.923014E-009	0.0082519	7
	19	8	12609.37	3448.118	-453.5073	1	3477.813	-7.492714	3.239111E-008	0.0081948	7
	20	8	10078.13	3484.099	-513.1436	1	3521.685	-8.378378	2.055774E-009	0.0082481	7
	21	8	8015.625	3523.942	-588.6591	1	3572.77	-9.483448	6.846324E-008	0.0082473	7
	22	9	6328.125	3565.214	-681.9005	1	3629.84	-10.8279	-3.956404E-008	0.0083456	7
	23	9	5015.625	3609.657	-797.6918	1	3696.747	-12.46142	-3.052215E-008	0.0083096	7
	24	9	3984.375	3658.563	-940.765	1	3777.582	-14.42065	6.670828E-008	0.0082457	7
	25	10	3170.956	3710.928	-1114.733	1	3874.741	-16.71985	-8.725435E-009	0.0083106	7
	26	10	2527.573	3771.308	-1325.692	1	3997.527	-19.36762	-2.147715E-008	0.0082856	7
	27	10	1976.103	3846.138	-1609.952	1	4169.499	-22.71367	2.971735E-008	0.0082625	7
	28	10	1577.524	3934.045	-1935.551	1	4384.412	-26.1972	-2.608871E-008	0.0082965	7
	29	11	1265.625	4019.819	-2314.74	1	4638.638	-29.93471	-2.005509E-008	0.0082853	7
	30	11	998.264	4133.302	-2819.045	1	5003.119	-34.29525	-8.368269E-009	0.0083043	7
	31	11	796.875	4261.214	-3401.422	1	5452.304	-38.59785	2.986891E-008	0.0082539	7
	32	12	627.7902	4415.619	-4170.542	1	6073.806	-43.36504	-2.713993E-008	0.0083566	7
	33	12	505.5147	4587.369	-5019.982	1	6800.307	-47.57825	-5.502471E-010	0.0083755	7
	34	12	397.9953	4807.822	-6168.774	1	7821.057	-52.06784	2.107963E-009	0.0083165	7
	35	13	315.5048	5066.017	-7557.462	1	9098.339	-56.16475	2.766871E-009	0.008315	7
	36	13	252.4038	5372.649	-9200.271	1	10654.12	-59.71651	7.814265E-010	0.0082539	6
	37	13	198.6229	5779.896	-11377.85	1	12761.77	-63.06965	5.308372E-010	0.0082541	6
	38	14	158.3615	6266.4	-13917.7	1	15263.36	-65.76049	8.500135E-010	0.0082515	6
	39	14	125.558	6913.248	-17119.15	1	18462.35	-68.00961	6.02971E-010	0.0082557	6
	40	14	100.4464	7713.388	-20912.08	1	22289.26	-69.75358	-7.881611E-010	0.0082505	6
	41	15	79.00281	8784.84	-25878.82	1	27329.23	-71.24967	-6.687536E-010	0.0082509	6
	42	15	63.3446	10483.51	-31232.57	1	32945.06	-71.44519	5.117076E-010	0.0082463	6
	43	15	49.86702	12425.81	-38654.48	1	40602.58	-72.17956	6.80245E-010	0.0082452	6
	44	16	39.72458	14654.41	-47240.89	1	49461.64	-72.76579	1.975626E-010	0.0082528	6
	45	16	31.6723	17822.7	-57498.43	1	60197.32	-72.77821	4.115152E-010	0.0082495	6
	46	16	24.93351	22541.9	-70350.22	1	73873.48	-72.23329	-2.95575E-010	0.0082494	6
	47	17	19.86229	28532.26	-84953.34	1	89616.73	-71.43496	1.073357E-010	0.0082497	6
	48	17	15.83615	36111.55	-100616.7	1	106900.7	-70.25682	-1.91368E-009	0.0082527	5
	49	17	12.40079	46443.31	-123759.6	1	132187	-69.43037	4.490199E-010	0.0082528	5
	50	18	9.93114	59780.38	-145453.4	1	157259	-67.65766	-9.811256E-011	0.0082475	5
	51	18	7.944915	75848.94	-170908.2	1	186983.1	-66.06838	-7.124006E-010	0.008254	5
	52	19	6.317385	95422.4	-199582.9	1	221221.1	-64.44712	-7.770432E-010	0.0082669	5
	53	20	5.008013	120260.3	-231784.3	1	261125.5	-62.57764	-4.787819E-010	0.0082517	5
	54	21	3.945707	150681	-266978.7	1	306565.5	-60.55991	-9.589864E-012	0.0082536	5
	55	22	3.158693	182751.4	-303009.4	1	353854.2	-58.90493	7.048567E-011	0.0082696	5
	56	24	2.504006	220405.5	-342822.8	1	407561.1	-57.26249	-1.690659E-010	0.0082615	5
	57	25	1.998082	259736.1	-385806.7	1	465091	-56.05043	-2.388222E-010	0.0082304	5
	58	27	1.584686	303361.4	-433203.2	1	528860.2	-54.99741	-7.328559E-011	0.0082813	5
	59	29	1.266892	349317.3	-487226.3	1	599509.8	-54.36134	6.617755E-012	0.0082959	5
	60	31	0.999041	400002.1	-554586.3	1	683789.1	-54.19851	2.652623E-011	0.0082946	5
