EXPLAIN
TAG	EISPOT
TITLE	LABEL	Potentiostatic EIS	Test &Identifier
DATE	LABEL	10/12/2019	Date
TIME	LABEL	11:15:52	Time
NOTES	NOTES	1	&Notes...
	
PSTAT	PSTAT	REF600-11020	Potentiostat
VDC	POTEN	0.00000E+000	T	DC &Voltage (V)
FREQINIT	QUANT	1.00000E+006	Initial Fre&q. (Hz)
FREQFINAL	QUANT	1.00000E+000	Final Fre&q. (Hz)
PTSPERDEC	QUANT	1.00000E+001	Points/&decade
VAC	QUANT	2.50000E+001	AC &Voltage (mV rms)
AREA	QUANT	1.00000E-002	&Area (cm^2)
CONDIT	TWOPARAM	T	5.00000E+000	0.00000E+000	Conditionin&g	Time(s)	E(V)
DELAY	TWOPARAM	T	5.00000E+000	0.00000E+000	Init. De&lay	Time(s)	Stab.(mV/s)
SPEED	SELECTOR	1	&Optimize for:
ZGUESS	QUANT	1.00000E+004	E&stimated Z (ohms)
OCVCURVE	TABLE	19
	Pt	T	Vf	Vm	Ach	Over
	#	s	V vs. Ref.	V	V	bits
	0	0.258333	7.21337E-003	7.21337E-003	5.77399E-004	...........
	1	0.516667	7.21420E-003	7.25684E-003	5.75566E-004	...........
	2	0.775	7.21946E-003	7.30602E-003	5.75165E-004	...........
	3	1.03333	7.23494E-003	7.35965E-003	5.78832E-004	...........
	4	1.29167	7.26424E-003	7.41523E-003	5.72132E-004	...........
	5	1.55	7.30607E-003	7.47360E-003	5.71499E-004	...........
	6	1.80833	7.35644E-003	7.53250E-003	5.69066E-004	...........
	7	2.06667	7.41151E-003	7.58666E-003	5.71366E-004	...........
	8	2.325	7.46864E-003	7.64828E-003	5.73699E-004	...........
	9	2.58333	7.52632E-003	7.70091E-003	5.72899E-004	...........
	10	2.84167	7.58396E-003	7.76252E-003	5.76132E-004	...........
	11	3.1	7.64152E-003	7.82099E-003	5.72466E-004	...........
	12	3.35833	7.69947E-003	7.88758E-003	5.76666E-004	...........
	13	3.61667	7.75850E-003	7.94461E-003	5.76199E-004	...........
	14	3.875	7.81884E-003	8.00894E-003	5.71299E-004	...........
	15	4.13333	7.88000E-003	8.06809E-003	5.71632E-004	...........
	16	4.39167	7.94133E-003	8.12537E-003	5.76166E-004	...........
	17	4.65	8.00206E-003	8.17821E-003	5.70199E-004	...........
	18	4.90833	8.06124E-003	8.22849E-003	5.73132E-004	...........
EOC	QUANT	0.0080612	Open Circuit (V)
PSTATMODEL	IQUANT	4	Pstat Model
PSTATSECTION	LABEL	REF600-11020	Pstat Section
PSTATSERIALNO	LABEL	11020	Pstat Serial Number
CTRLMODE	IQUANT	1	Control Mode
IESTAB	IQUANT	0	I/E Stability
CASPEED	IQUANT	1	Control Amp Speed
CONVENTION	IQUANT	1	Current Convention
ICHRANGE	IQUANT	2	Ich Range
ICHRANGEMODE	TOGGLE	F	Ich Auto Range
ICHOFFSETENABLE	TOGGLE	T	Ich Offset Enable
ICHOFFSET	QUANT	0	Ich Offset (V)
ICHFILTER	IQUANT	3	Ich Filter
VCHRANGE	IQUANT	2	Vch Range
VCHRANGEMODE	TOGGLE	F	Vch Auto Range
VCHOFFSETENABLE	TOGGLE	T	Vch Offset Enable
VCHOFFSET	QUANT	0	Vch Offset (V)
VCHFILTER	IQUANT	3	Vch Filter
ACHRANGE	IQUANT	2	Ach Range
ACHOFFSETENABLE	TOGGLE	F	Ach Offset Enable
ACHOFFSET	QUANT	0	Ach Offset (V)
ACHFILTER	IQUANT	3	Ach Filter
IERANGELOWERLIMIT	IQUANT	1	I/E Range Lower Limit
IERANGEMODE	TOGGLE	F	I/E AutoRange
IERANGE	IQUANT	6	I/E Range
POSFEEDENABLE	TOGGLE	F	Positive Feedback IR Comp
POSFEEDRESISTANCE	QUANT	0	Positive Feedback Resistance (ohm)
ACHSELECT	IQUANT	0	Ach Select
CABLEID	IQUANT	14	Cable ID
DCCALDATE	LABEL	8/19/2019	DC Calibration Date
ACCALDATE	LABEL	8/19/2019	AC Calibration Date
THERMOSELECT	IQUANT	1	Thermo Select
FRAMEWORKVERSION	QUANT	6.33	Framework Version
INSTRUMENTVERSION	LABEL	3.50	Instrument Version
ZCURVE	TABLE
	Pt	Time	Freq	Zreal	Zimag	Zsig	Zmod	Zphz	Idc	Vdc	IERange
	#	s	Hz	ohm	ohm	V	ohm	°	A	V	#
	0	2	1000078	2362.014	-1782.269	1	2958.985	-37.03655	5.046156E-006	0.0096774	8
	1	4	794390.6	2737.982	-1734.984	1	3241.406	-32.36131	-2.819871E-006	0.00983	8
	2	5	630984.4	3073.664	-1655.195	1	3491	-28.30286	-1.642844E-006	0.0103824	8
	3	7	501234.4	3362.658	-1511.988	1	3686.946	-24.21062	5.701993E-006	0.008501	8
	4	8	398109.4	3612.473	-1341.242	1	3853.426	-20.36899	2.681151E-008	0.0094374	8
	5	10	316265.6	3816.075	-1174.47	1	3992.72	-17.10675	-1.578706E-006	0.0099108	8
	6	11	251203.1	3934.916	-1022.233	1	4065.529	-14.56269	-1.870595E-006	0.0100928	8
	7	13	199546.9	4060.864	-860.0405	1	4150.938	-11.95784	4.893724E-006	0.0085373	8
	8	14	158578.1	4133.612	-758.0565	1	4202.547	-10.39191	-8.872318E-007	0.0098882	8
	9	16	125953.1	4220.714	-580.9193	1	4260.504	-7.836685	4.189654E-007	0.0093328	7
	10	18	100078.1	4261.913	-521.7703	1	4293.733	-6.979778	-1.370422E-008	0.0095935	7
	11	19	79453.13	4299.671	-464.9026	1	4324.732	-6.171141	4.086885E-008	0.0094862	7
	12	20	63140.62	4333.504	-432.2932	1	4355.013	-5.696753	-5.838531E-008	0.0096081	7
	13	22	50203.12	4361.055	-392.3262	1	4378.666	-5.140566	-4.117826E-008	0.009536	7
	14	23	39890.62	4396.619	-382.1188	1	4413.193	-4.967208	1.169855E-007	0.0093499	7
	15	24	31640.63	4420.973	-382.5773	1	4437.496	-4.945878	8.911134E-008	0.0094575	7
	16	26	25171.88	4448.541	-379.1542	1	4464.669	-4.871611	-7.99564E-009	0.0095769	7
	17	27	20015.62	4480.936	-418.4625	1	4500.433	-5.335225	-7.399994E-008	0.0097632	7
	18	28	15890.62	4516.712	-432.2595	1	4537.349	-5.466686	1.696558E-008	0.0094518	7
	19	30	12609.37	4540.629	-473.3032	1	4565.23	-5.95087	1.178361E-008	0.0094574	7
	20	31	10078.13	4575.645	-527.4397	1	4605.944	-6.575527	-2.097708E-008	0.0094991	7
	21	32	8015.625	4609.538	-614.2378	1	4650.282	-7.590158	2.007993E-010	0.0094746	7
	22	34	6328.125	4646.145	-689.855	1	4697.08	-8.445518	-1.067724E-008	0.0095816	7
	23	35	5015.625	4690.482	-799.0699	1	4758.061	-9.66808	-1.934718E-008	0.0094997	7
	24	36	3984.375	4733.696	-934.7823	1	4825.111	-11.17071	-4.012032E-008	0.0096197	7
	25	38	3170.956	4789.286	-1121.575	1	4918.86	-13.18025	-4.401772E-008	0.0096224	7
	26	39	2527.573	4859.652	-1336.344	1	5040.043	-15.37559	-6.548939E-008	0.0096424	7
	27	40	1976.103	4920.934	-1626.899	1	5182.894	-18.29428	-8.339185E-008	0.0097428	7
	28	42	1577.524	5007.125	-1954.665	1	5375.129	-21.32451	-7.445468E-008	0.0096244	7
	29	43	1265.625	5095.518	-2349.426	1	5611.069	-24.75334	1.031155E-008	0.009495	7
	30	45	998.264	5213.137	-2855.556	1	5943.989	-28.71224	-6.098134E-008	0.0096454	7
	31	46	796.875	5302.848	-3440.74	1	6321.304	-32.97742	8.083489E-008	0.0093618	7
	32	47	627.7902	5460.035	-4224.079	1	6903.247	-37.72683	-7.338664E-008	0.0096116	7
	33	49	505.5147	5650.967	-5106.239	1	7616.239	-42.10111	7.871975E-008	0.0093641	7
	34	50	397.9953	5848.855	-6296.941	1	8594.218	-47.11282	6.145139E-009	0.0095343	7
	35	51	315.5048	6105.268	-7732.438	1	9852.15	-51.70659	7.365927E-009	0.0095333	7
	36	53	252.4038	6407.712	-9428.977	1	11400.19	-55.80089	-2.048409E-010	0.009476	6
	37	54	198.6229	6828.577	-11674.7	1	13525.09	-59.67648	1.315916E-009	0.0094738	6
	38	55	158.3615	7337.533	-14307.56	1	16079.36	-62.8493	1.308331E-009	0.0094734	6
	39	57	125.558	7974.817	-17602.88	1	19325.09	-65.62756	7.632385E-010	0.0094761	6
	40	58	100.4464	8844.496	-21466.97	1	23217.58	-67.6081	-7.711985E-010	0.0094731	6
	41	59	79.00281	10068.16	-26616.75	1	28457.32	-69.28017	-2.166141E-010	0.0094704	6
	42	61	63.3446	11623.6	-31832.01	1	33887.83	-69.94011	-1.44941E-010	0.0094727	6
	43	62	49.86702	13635.31	-40274.61	1	42520.18	-71.29604	-5.585871E-010	0.0094699	6
	44	64	39.72458	15841.35	-48583.89	1	51101.3	-71.94083	1.14788E-009	0.009474	6
	45	65	31.6723	19411.47	-58958.53	1	62071.84	-71.77641	1.241087E-009	0.0094687	6
	46	66	24.93351	23783.47	-72192.79	1	76009.55	-71.76585	8.519475E-010	0.0094715	6
	47	68	19.86229	29517.76	-86828.25	1	91708.47	-71.22424	3.604151E-010	0.009476	6
	48	69	15.83615	35765.11	-103934.5	1	109916	-71.01105	1.875834E-009	0.0094732	5
	49	71	12.40079	47946.41	-126216.3	1	135016.3	-69.19946	-8.03735E-010	0.0094784	5
	50	72	9.93114	59855.46	-150955.2	1	162388.9	-68.37111	9.153166E-011	0.0094781	5
	51	74	7.944915	73997.23	-176515.1	1	191397.9	-67.25599	1.60967E-009	0.0094738	5
	52	75	6.317385	95861.1	-208295.8	1	229295.7	-65.28735	4.430026E-010	0.0094825	5
	53	77	5.008013	121273.5	-243919.5	1	272404	-63.56404	1.010826E-010	0.0094702	5
	54	80	3.945707	152906.8	-283877.2	1	322438.7	-61.69145	5.317083E-010	0.0094745	5
	55	83	3.158693	187070.5	-322099.6	1	372482.9	-59.85263	1.843411E-010	0.0094891	5
	56	86	2.504006	228110.5	-366525.8	1	431712.4	-58.10357	4.114771E-011	0.0094638	5
	57	89	1.998082	271905.7	-413087.7	1	494544.4	-56.64599	-2.380848E-010	0.0094793	5
	58	92	1.584686	322248.7	-463518.1	1	564529.2	-55.19207	9.706128E-011	0.0095263	5
	59	96	1.266892	371713.7	-519341.8	1	638660.3	-54.40719	-1.62006E-010	0.0094767	5
	60	100	0.999041	428000.2	-586514.9	1	726074.4	-53.88048	3.060917E-010	0.0094921	5
