EXPLAIN
TAG	EISPOT
TITLE	LABEL	Potentiostatic EIS	Test &Identifier
DATE	LABEL	10/2/2019	Date
TIME	LABEL	8:47:34	Time
NOTES	NOTES	2	&Notes...
	
	
PSTAT	PSTAT	REF600-11020	Potentiostat
VDC	POTEN	0.00000E+000	T	DC &Voltage (V)
FREQINIT	QUANT	1.00000E+006	Initial Fre&q. (Hz)
FREQFINAL	QUANT	1.00000E+000	Final Fre&q. (Hz)
PTSPERDEC	QUANT	1.00000E+001	Points/&decade
VAC	QUANT	2.50000E+001	AC &Voltage (mV rms)
AREA	QUANT	1.00000E-002	&Area (cm^2)
CONDIT	TWOPARAM	T	5.00000E+000	0.00000E+000	Conditionin&g	Time(s)	E(V)
DELAY	TWOPARAM	T	5.00000E+000	0.00000E+000	Init. De&lay	Time(s)	Stab.(mV/s)
SPEED	SELECTOR	1	&Optimize for:
ZGUESS	QUANT	1.00000E+004	E&stimated Z (ohms)
OCVCURVE	TABLE	19
	Pt	T	Vf	Vm	Ach	Over
	#	s	V vs. Ref.	V	V	bits
	0	0.258333	4.48780E-003	4.48780E-003	5.42499E-004	...........
	1	0.516667	4.48541E-003	4.36228E-003	5.51266E-004	...........
	2	0.775	4.47143E-003	4.28270E-003	5.50499E-004	...........
	3	1.03333	4.43492E-003	4.23298E-003	5.43066E-004	...........
	4	1.29167	4.37631E-003	4.16737E-003	5.44133E-004	...........
	5	1.55	4.30438E-003	3.94265E-003	5.46966E-004	...........
	6	1.80833	4.22297E-003	4.06088E-003	5.46233E-004	...........
	7	2.06667	4.14087E-003	4.07353E-003	5.44699E-004	...........
	8	2.325	4.08261E-003	4.16949E-003	5.47533E-004	...........
	9	2.58333	4.07061E-003	4.33339E-003	5.48999E-004	...........
	10	2.84167	4.10869E-003	4.35186E-003	5.48366E-004	...........
	11	3.1	4.18228E-003	4.40852E-003	5.50633E-004	...........
	12	3.35833	4.26503E-003	4.40438E-003	5.53433E-004	...........
	13	3.61667	4.33066E-003	4.26314E-003	5.48499E-004	...........
	14	3.875	4.36001E-003	4.23848E-003	5.42166E-004	...........
	15	4.13333	4.34766E-003	4.22803E-003	5.44266E-004	...........
	16	4.39167	4.30859E-003	4.20187E-003	5.39366E-004	...........
	17	4.65	4.26668E-003	4.23591E-003	5.45933E-004	...........
	18	4.90833	4.23796E-003	4.24725E-003	5.40399E-004	...........
EOC	QUANT	0.004238	Open Circuit (V)
PSTATMODEL	IQUANT	4	Pstat Model
PSTATSECTION	LABEL	REF600-11020	Pstat Section
PSTATSERIALNO	LABEL	11020	Pstat Serial Number
CTRLMODE	IQUANT	1	Control Mode
IESTAB	IQUANT	0	I/E Stability
CASPEED	IQUANT	1	Control Amp Speed
CONVENTION	IQUANT	1	Current Convention
ICHRANGE	IQUANT	2	Ich Range
ICHRANGEMODE	TOGGLE	F	Ich Auto Range
ICHOFFSETENABLE	TOGGLE	T	Ich Offset Enable
ICHOFFSET	QUANT	0	Ich Offset (V)
ICHFILTER	IQUANT	3	Ich Filter
VCHRANGE	IQUANT	2	Vch Range
VCHRANGEMODE	TOGGLE	F	Vch Auto Range
VCHOFFSETENABLE	TOGGLE	T	Vch Offset Enable
VCHOFFSET	QUANT	0	Vch Offset (V)
VCHFILTER	IQUANT	3	Vch Filter
ACHRANGE	IQUANT	2	Ach Range
ACHOFFSETENABLE	TOGGLE	F	Ach Offset Enable
ACHOFFSET	QUANT	0	Ach Offset (V)
ACHFILTER	IQUANT	3	Ach Filter
IERANGELOWERLIMIT	IQUANT	1	I/E Range Lower Limit
IERANGEMODE	TOGGLE	F	I/E AutoRange
IERANGE	IQUANT	5	I/E Range
POSFEEDENABLE	TOGGLE	F	Positive Feedback IR Comp
POSFEEDRESISTANCE	QUANT	0	Positive Feedback Resistance (ohm)
ACHSELECT	IQUANT	0	Ach Select
CABLEID	IQUANT	14	Cable ID
DCCALDATE	LABEL	8/19/2019	DC Calibration Date
ACCALDATE	LABEL	8/19/2019	AC Calibration Date
THERMOSELECT	IQUANT	1	Thermo Select
FRAMEWORKVERSION	QUANT	6.33	Framework Version
INSTRUMENTVERSION	LABEL	3.50	Instrument Version
ZCURVE	TABLE
	Pt	Time	Freq	Zreal	Zimag	Zsig	Zmod	Zphz	Idc	Vdc	IERange
	#	s	Hz	ohm	ohm	V	ohm	°	A	V	#
	0	2	1000078	2254.597	-1281.924	1	2593.557	-29.62179	2.210316E-006	0.0069464	8
	1	3	794390.6	2493.208	-1172.81	1	2755.28	-25.1924	5.751015E-007	0.0058911	8
	2	5	630984.4	2692.157	-1039.398	1	2885.838	-21.11077	-2.48976E-006	0.0064822	8
	3	6	501234.4	2830.938	-914.4973	1	2974.981	-17.90237	-2.363862E-007	0.0059702	8
	4	8	398109.4	2947.013	-792.5325	1	3051.72	-15.05228	3.80492E-006	0.0051722	8
	5	9	316265.6	3030.546	-686.5928	1	3107.35	-12.76529	3.843355E-006	0.0051246	8
	6	10	251203.1	3109.607	-597.212	1	3166.436	-10.8715	-1.204413E-006	0.0060876	8
	7	12	199546.9	3144.972	-522.718	1	3188.116	-9.436724	1.110962E-006	0.0055578	8
	8	13	158578.1	3198.197	-461.786	1	3231.364	-8.216124	-8.320325E-007	0.0061563	8
	9	14	125953.1	3243.559	-385.9345	1	3266.438	-6.78543	4.072777E-007	0.0046631	7
	10	16	100078.1	3272.432	-355.7423	1	3291.712	-6.204194	-1.683432E-008	0.0059389	7
	11	17	79453.13	3303.471	-343.3472	1	3321.266	-5.933748	-1.623892E-008	0.0057764	7
	12	18	63140.62	3333.052	-340.3328	1	3350.383	-5.830176	-3.729649E-008	0.005837	7
	13	20	50203.12	3364.615	-342.5363	1	3382.007	-5.812997	7.673468E-008	0.0056388	7
	14	21	39890.62	3397.246	-352.4607	1	3415.481	-5.923185	-6.756374E-009	0.0058335	7
	15	22	31640.63	3432.127	-371.0032	1	3452.121	-6.169556	-3.70074E-008	0.0058291	7
	16	24	25171.88	3470.171	-395.97	1	3492.69	-6.50968	-7.231064E-008	0.0059158	7
	17	25	20015.62	3510.376	-428.158	1	3536.391	-6.953976	-6.51418E-009	0.0057517	7
	18	26	15890.62	3555.821	-469.2464	1	3586.65	-7.517638	8.64102E-009	0.0057333	7
	19	28	12609.37	3606.401	-518.6531	1	3643.505	-8.183856	-6.828285E-009	0.0057476	7
	20	29	10078.13	3660.124	-575.8993	1	3705.154	-8.941849	7.860523E-008	0.0056333	7
	21	31	8015.625	3719.368	-644.2175	1	3774.747	-9.82649	-3.538216E-008	0.0058724	7
	22	32	6328.125	3785.691	-727.9352	1	3855.042	-10.88433	6.384537E-008	0.0056813	7
	23	33	5015.625	3858.233	-823.2675	1	3945.09	-12.0451	-1.082259E-008	0.0058312	7
	24	35	3984.375	3933.904	-935.0318	1	4043.5	-13.37028	-2.589809E-008	0.0057949	7
	25	36	3170.956	4015.12	-1068.226	1	4154.792	-14.89847	-6.718902E-009	0.0058265	7
	26	37	2527.573	4101.055	-1226.099	1	4280.417	-16.64517	-7.116517E-008	0.0059101	7
	27	39	1976.103	4197.817	-1433.784	1	4435.922	-18.85784	-3.476802E-008	0.0058304	7
	28	40	1577.524	4291.545	-1668.279	1	4604.401	-21.2429	-5.054204E-008	0.0059448	7
	29	41	1265.625	4390.16	-1945.743	1	4802.022	-23.90319	-5.081867E-008	0.0059419	7
	30	43	998.264	4503.841	-2316.745	1	5064.769	-27.22098	-1.395929E-008	0.0059161	7
	31	44	796.875	4616.464	-2751.4	1	5374.192	-30.79482	4.387081E-008	0.0056521	7
	32	46	627.7902	4754.46	-3326.663	1	5802.722	-34.98022	-1.288624E-008	0.005756	7
	33	47	505.5147	4886.307	-3982.259	1	6303.521	-39.17946	-4.129706E-008	0.0058148	7
	34	48	397.9953	5068.904	-4854.508	1	7018.549	-43.76231	6.099489E-009	0.0058086	7
	35	50	315.5048	5275.351	-5923.419	1	7931.975	-48.31199	5.445061E-009	0.005815	7
	36	51	252.4038	5516.942	-7192.268	1	9064.512	-52.50942	6.717261E-009	0.0058093	7
	37	52	198.6229	5842.782	-8876.901	1	10627.2	-56.64706	8.540851E-010	0.00575	6
	38	54	158.3615	6230.973	-10844.88	1	12507.45	-60.12029	1.245783E-009	0.0057471	6
	39	55	125.558	6743.232	-13321.94	1	14931.35	-63.15261	7.960656E-010	0.0057475	6
	40	56	100.4464	7372.527	-16245	1	17839.68	-65.58986	8.993389E-010	0.0057472	6
	41	58	79.00281	8245.139	-20067.83	1	21695.63	-67.66403	9.090783E-010	0.005747	6
	42	59	63.3446	9240.765	-24325.72	1	26021.77	-69.1994	7.208049E-010	0.0057427	6
	43	61	49.86702	10926.05	-29987.25	1	31915.73	-69.98045	8.485544E-011	0.005741	6
	44	62	39.72458	12751	-36537.97	1	38698.98	-70.76206	6.898158E-010	0.0057469	6
	45	63	31.6723	15267.33	-44318.76	1	46874.77	-70.99173	6.867754E-010	0.0057464	6
	46	65	24.93351	18616.31	-54188.82	1	57297.43	-71.04008	1.150849E-009	0.0057443	6
	47	66	19.86229	22829.03	-65394.35	1	69264.6	-70.75601	1.249848E-009	0.0057461	6
	48	68	15.83615	28405.51	-78727.89	1	83695.6	-70.16025	1.88315E-009	0.0057441	6
	49	69	12.40079	35416.41	-95364.4	1	101728.5	-69.62602	8.78555E-010	0.0057511	6
	50	70	9.93114	44364.43	-112783.2	1	121195.1	-68.52728	5.436491E-010	0.0057558	5
	51	72	7.944915	54992.66	-133057.7	1	143974.1	-67.54472	6.036481E-010	0.0057591	5
	52	74	6.317385	68354.05	-156956.8	1	171194.9	-66.46707	-2.659591E-010	0.0057525	5
	53	76	5.008013	84962.91	-184675.2	1	203282.1	-65.29442	-1.61544E-010	0.0057431	5
	54	78	3.945707	105306.4	-216894.2	1	241106.9	-64.10251	2.661489E-010	0.0057519	5
	55	81	3.158693	127612.8	-251044.8	1	281617.7	-63.05454	-9.086396E-011	0.0057348	5
	56	84	2.504006	154540	-291461.5	1	329897.5	-62.06638	4.939211E-010	0.0057505	5
	57	87	1.998082	184607.9	-335829.6	1	383225.3	-61.20209	2.891125E-010	0.0057817	5
	58	90	1.584686	219370.3	-386803.8	1	444680.2	-60.44088	1.826073E-010	0.0057176	5
	59	94	1.266892	257497	-445815.2	1	514835.8	-59.98984	2.134494E-010	0.0057826	5
	60	98	0.999041	303767.7	-517363.7	1	599950	-59.58087	-7.402657E-011	0.0057105	5
