EXPLAIN
TAG	EISPOT
TITLE	LABEL	Potentiostatic EIS	Test &Identifier
DATE	LABEL	10/6/2019	Date
TIME	LABEL	8:41:32	Time
NOTES	NOTES	2	&Notes...
	
	
PSTAT	PSTAT	REF600-11020	Potentiostat
VDC	POTEN	0.00000E+000	T	DC &Voltage (V)
FREQINIT	QUANT	1.00000E+006	Initial Fre&q. (Hz)
FREQFINAL	QUANT	1.00000E+000	Final Fre&q. (Hz)
PTSPERDEC	QUANT	1.00000E+001	Points/&decade
VAC	QUANT	2.50000E+001	AC &Voltage (mV rms)
AREA	QUANT	1.00000E-002	&Area (cm^2)
CONDIT	TWOPARAM	T	5.00000E+000	0.00000E+000	Conditionin&g	Time(s)	E(V)
DELAY	TWOPARAM	T	5.00000E+000	0.00000E+000	Init. De&lay	Time(s)	Stab.(mV/s)
SPEED	SELECTOR	1	&Optimize for:
ZGUESS	QUANT	1.00000E+004	E&stimated Z (ohms)
OCVCURVE	TABLE	19
	Pt	T	Vf	Vm	Ach	Over
	#	s	V vs. Ref.	V	V	bits
	0	0.258333	2.09457E-003	2.09457E-003	6.00865E-004	...........
	1	0.516667	2.09297E-003	2.01117E-003	5.96832E-004	...........
	2	0.775	2.08340E-003	1.94297E-003	5.95298E-004	...........
	3	1.03333	2.05706E-003	1.88086E-003	5.88832E-004	...........
	4	1.29167	2.01182E-003	1.83525E-003	5.86199E-004	...........
	5	1.55	1.95522E-003	1.79395E-003	5.83865E-004	...........
	6	1.80833	1.89766E-003	1.75523E-003	5.85965E-004	...........
	7	2.06667	1.84536E-003	1.71173E-003	5.91632E-004	...........
	8	2.325	1.79913E-003	1.67720E-003	5.91965E-004	...........
	9	2.58333	1.75706E-003	1.63708E-003	5.97865E-004	...........
	10	2.84167	1.71736E-003	1.60276E-003	6.01098E-004	...........
	11	3.1	1.67908E-003	1.56648E-003	6.00532E-004	...........
	12	3.35833	1.64187E-003	1.53379E-003	5.98365E-004	...........
	13	3.61667	1.60568E-003	1.49801E-003	5.95099E-004	...........
	14	3.875	1.57043E-003	1.46793E-003	6.01865E-004	...........
	15	4.13333	1.53627E-003	1.44528E-003	5.96099E-004	...........
	16	4.39167	1.50396E-003	1.42058E-003	5.91365E-004	...........
	17	4.65	1.47435E-003	1.39509E-003	5.98065E-004	...........
	18	4.90833	1.44782E-003	1.39682E-003	5.95399E-004	...........
EOC	QUANT	0.0014478	Open Circuit (V)
PSTATMODEL	IQUANT	4	Pstat Model
PSTATSECTION	LABEL	REF600-11020	Pstat Section
PSTATSERIALNO	LABEL	11020	Pstat Serial Number
CTRLMODE	IQUANT	1	Control Mode
IESTAB	IQUANT	0	I/E Stability
CASPEED	IQUANT	1	Control Amp Speed
CONVENTION	IQUANT	1	Current Convention
ICHRANGE	IQUANT	2	Ich Range
ICHRANGEMODE	TOGGLE	F	Ich Auto Range
ICHOFFSETENABLE	TOGGLE	T	Ich Offset Enable
ICHOFFSET	QUANT	0	Ich Offset (V)
ICHFILTER	IQUANT	3	Ich Filter
VCHRANGE	IQUANT	2	Vch Range
VCHRANGEMODE	TOGGLE	F	Vch Auto Range
VCHOFFSETENABLE	TOGGLE	T	Vch Offset Enable
VCHOFFSET	QUANT	0	Vch Offset (V)
VCHFILTER	IQUANT	3	Vch Filter
ACHRANGE	IQUANT	2	Ach Range
ACHOFFSETENABLE	TOGGLE	F	Ach Offset Enable
ACHOFFSET	QUANT	0	Ach Offset (V)
ACHFILTER	IQUANT	3	Ach Filter
IERANGELOWERLIMIT	IQUANT	1	I/E Range Lower Limit
IERANGEMODE	TOGGLE	F	I/E AutoRange
IERANGE	IQUANT	5	I/E Range
POSFEEDENABLE	TOGGLE	F	Positive Feedback IR Comp
POSFEEDRESISTANCE	QUANT	0	Positive Feedback Resistance (ohm)
ACHSELECT	IQUANT	0	Ach Select
CABLEID	IQUANT	14	Cable ID
DCCALDATE	LABEL	8/19/2019	DC Calibration Date
ACCALDATE	LABEL	8/19/2019	AC Calibration Date
THERMOSELECT	IQUANT	1	Thermo Select
FRAMEWORKVERSION	QUANT	6.33	Framework Version
INSTRUMENTVERSION	LABEL	3.50	Instrument Version
ZCURVE	TABLE
	Pt	Time	Freq	Zreal	Zimag	Zsig	Zmod	Zphz	Idc	Vdc	IERange
	#	s	Hz	ohm	ohm	V	ohm	°	A	V	#
	0	2	1000078	1292.278	-1909.416	1	2305.614	-55.91016	-4.84582E-007	0.0037252	8
	1	3	794390.6	1452.323	-2255.213	1	2682.392	-57.21907	-4.01863E-006	0.0042616	8
	2	4	630984.4	1679.211	-2671.201	1	3155.165	-57.84509	6.029794E-006	0.0021776	8
	3	6	501234.4	1919.932	-3156.819	1	3694.813	-58.69263	-1.658987E-006	0.0032823	8
	4	7	398109.4	2277.913	-3724.016	1	4365.453	-58.54662	1.639415E-006	0.0028407	8
	5	8	316265.6	2696.874	-4350.15	1	5118.294	-58.20317	3.416434E-006	0.0024217	8
	6	10	251203.1	3236.536	-5107.842	1	6046.917	-57.63999	5.472444E-007	0.0028971	8
	7	11	199546.9	3915.83	-5906.784	1	7086.877	-56.4581	6.271439E-007	0.0029027	8
	8	13	158578.1	4758.122	-6786.753	1	8288.531	-54.96611	-5.132461E-007	0.0032674	8
	9	15	125953.1	6064.22	-7598.587	1	9721.79	-51.40761	-1.920891E-007	0.0031506	7
	10	16	100078.1	7296.484	-8536.392	1	11229.81	-49.47782	1.083533E-007	0.0029594	7
	11	18	79453.13	8850.314	-9369.462	1	12888.56	-46.63212	7.693077E-008	0.0029119	7
	12	19	63140.62	10606.01	-10032.67	1	14599.38	-43.40875	-4.454375E-008	0.0030351	7
	13	20	50203.12	12552.6	-10489.48	1	16358.39	-39.88354	-2.999535E-008	0.0030091	7
	14	22	39890.62	14580.77	-10656.15	1	18059.69	-36.16066	-3.219018E-008	0.0030141	7
	15	23	31640.63	16604.15	-10638.28	1	19719.8	-32.64768	2.728043E-008	0.0031074	7
	16	24	25171.88	18491.38	-10322.49	1	21177.46	-29.17167	-7.456063E-008	0.0031089	7
	17	26	20015.62	20029.05	-9810.02	1	22302.45	-26.09513	1.107423E-007	0.0029388	7
	18	27	15890.62	21784.46	-9292.658	1	23683.66	-23.10178	-7.988042E-008	0.0031659	7
	19	29	12609.37	23295.89	-8532.681	1	24809.38	-20.11647	-1.074553E-008	0.0030374	6
	20	30	10078.13	24434.41	-8054.699	1	25727.78	-18.24458	2.413177E-009	0.0028377	6
	21	31	8015.625	25498.51	-7564.972	1	26597.04	-16.52472	-7.767648E-009	0.0031476	6
	22	33	6328.125	26412.96	-7249.579	1	27389.79	-15.34804	-4.735694E-009	0.0031453	6
	23	34	5015.625	27299.76	-6999.642	1	28182.83	-14.38081	-6.576866E-009	0.0029931	6
	24	35	3984.375	28086.5	-6870.533	1	28914.63	-13.74579	1.978633E-008	0.0026972	6
	25	37	3170.956	28902.06	-6788.006	1	29688.48	-13.21708	-1.127918E-008	0.0030408	6
	26	38	2527.573	29666.28	-6850.33	1	30446.92	-13.00244	2.454127E-009	0.0027743	6
	27	39	1976.103	30497.66	-7006.176	1	31292.07	-12.93798	4.123714E-009	0.0030092	6
	28	41	1577.524	31250.52	-7320.092	1	32096.39	-13.18323	2.385995E-009	0.0027785	6
	29	42	1265.625	31994.1	-7617.874	1	32888.52	-13.39289	1.727007E-008	0.0026403	6
	30	44	998.264	32794.05	-8181.836	1	33799.29	-14.00882	-6.760361E-009	0.0030167	6
	31	45	796.875	33658.02	-8851.06	1	34802.35	-14.73351	1.895966E-008	0.0026911	6
	32	46	627.7902	34570.43	-9810.87	1	35935.6	-15.84361	2.952678E-009	0.0027735	6
	33	48	505.5147	35439.8	-10904.26	1	37079.41	-17.10229	1.529476E-009	0.0030304	6
	34	49	397.9953	36522.68	-12374.17	1	38561.97	-18.71678	1.915972E-010	0.0029847	6
	35	50	315.5048	37699.66	-14097.6	1	40249.31	-20.50304	9.891098E-010	0.0029849	6
	36	52	252.4038	39031.37	-16106.5	1	42224.02	-22.42375	5.646026E-010	0.0029787	6
	37	53	198.6229	40696.96	-18702.38	1	44788.64	-24.68126	8.531179E-010	0.0029828	6
	38	55	158.3615	42605.16	-21573.04	1	47755.58	-26.85529	1.243093E-009	0.0029802	6
	39	56	125.558	44897.01	-24990.72	1	51383.63	-29.10133	6.227277E-010	0.0029824	6
	40	57	100.4464	47559.2	-28861.23	1	55631.36	-31.25141	1.300059E-010	0.0029742	6
	41	59	79.00281	50744.71	-33399.29	1	60749.8	-33.35221	3.423099E-010	0.0029757	6
	42	60	63.3446	54950.68	-37655.07	1	66614.43	-34.42098	1.139953E-009	0.0029699	6
	43	61	49.86702	59298.44	-44843.71	1	74345.56	-37.09794	1.004132E-009	0.0029715	6
	44	63	39.72458	64376.08	-50868.81	1	82048.26	-38.31515	5.655008E-010	0.0029798	6
	45	64	31.6723	70529.07	-57736	1	91147.11	-39.3042	7.772102E-010	0.0029776	6
	46	66	24.93351	77770.97	-66271.6	1	102177.5	-40.43558	4.180508E-012	0.0029792	5
	47	67	19.86229	85957.17	-74886.21	1	114002.5	-41.0625	-1.164663E-010	0.0029784	5
	48	69	15.83615	95306	-85092.21	1	127765.1	-41.75949	-4.708188E-010	0.0029786	5
	49	70	12.40079	106778.7	-96153.9	1	143691.6	-42.00292	-1.057313E-009	0.0029827	5
	50	71	9.93114	117619.3	-108284.6	1	159874.6	-42.6338	1.018609E-009	0.0029744	5
	51	73	7.944915	129871.1	-121066	1	177548.5	-42.99038	-3.53888E-010	0.0029795	5
	52	75	6.317385	144123	-136606.4	1	198576.8	-43.46626	4.505804E-010	0.0029728	5
	53	77	5.008013	160071.8	-154347.8	1	222365	-43.95705	1.961605E-010	0.0029873	5
	54	79	3.945707	178369.3	-175460	1	250203.5	-44.52891	-8.437238E-011	0.0029777	5
	55	82	3.158693	197712.3	-198092.7	1	279876.5	-45.05505	7.539459E-010	0.0029929	5
	56	85	2.504006	220516.3	-225499	1	315400.1	-45.64006	-2.216292E-010	0.0029818	5
	57	88	1.998082	245458	-255428.7	1	354250.6	-46.14039	2.854191E-010	0.0029397	5
	58	91	1.584686	274039.7	-290663	1	399478.1	-46.68614	3.483046E-010	0.0030085	5
	59	95	1.266892	306363	-331430.6	1	451336.4	-47.25077	3.001466E-010	0.0029547	5
	60	99	0.999041	347647.5	-379869.4	1	514936.5	-47.53599	8.803035E-010	0.0030111	5
