EXPLAIN
TAG	EISPOT
TITLE	LABEL	Potentiostatic EIS	Test &Identifier
DATE	LABEL	11/22/2019	Date
TIME	LABEL	1:57:46	Time
NOTES	NOTES	4	&Notes...
	
	
	
	
PSTAT	PSTAT	REF600-11020	Potentiostat
VDC	POTEN	0.00000E+000	T	DC &Voltage (V)
FREQINIT	QUANT	1.00000E+006	Initial Fre&q. (Hz)
FREQFINAL	QUANT	1.00000E+000	Final Fre&q. (Hz)
PTSPERDEC	QUANT	1.00000E+001	Points/&decade
VAC	QUANT	2.50000E+001	AC &Voltage (mV rms)
AREA	QUANT	1.00000E-002	&Area (cm^2)
CONDIT	TWOPARAM	T	5.00000E+000	0.00000E+000	Conditionin&g	Time(s)	E(V)
DELAY	TWOPARAM	T	5.00000E+000	0.00000E+000	Init. De&lay	Time(s)	Stab.(mV/s)
SPEED	SELECTOR	1	&Optimize for:
ZGUESS	QUANT	1.00000E+005	E&stimated Z (ohms)
OCVCURVE	TABLE	19
	Pt	T	Vf	Vm	Ach	Over
	#	s	V vs. Ref.	V	V	bits
	0	0.258333	9.29914E-003	9.29914E-003	5.79232E-004	...........
	1	0.516667	9.29564E-003	9.11611E-003	5.74865E-004	...........
	2	0.775	9.27291E-003	8.87633E-003	5.77466E-004	...........
	3	1.03333	9.20470E-003	8.66312E-003	5.84132E-004	...........
	4	1.29167	9.07546E-003	8.43397E-003	5.81365E-004	...........
	5	1.55	8.88875E-003	7.94002E-003	5.78599E-004	...........
	6	1.80833	8.63682E-003	7.03692E-003	5.76699E-004	...........
	7	2.06667	8.29021E-003	7.06000E-003	5.78032E-004	...........
	8	2.325	7.85454E-003	6.38860E-003	5.82999E-004	...........
	9	2.58333	7.30446E-003	1.71084E-003	5.80665E-004	...........
	10	2.84167	6.45840E-003	3.33490E-003	5.79132E-004	...........
	11	3.1	5.29918E-003	4.53130E-003	5.82032E-004	...........
	12	3.35833	4.38018E-003	9.30173E-003	5.80499E-004	...........
	13	3.61667	4.43628E-003	9.08729E-003	5.78699E-004	...........
	14	3.875	5.60687E-003	1.10328E-002	5.81832E-004	...........
	15	4.13333	7.35010E-003	1.15578E-002	5.80032E-004	...........
	16	4.39167	9.00861E-003	1.03374E-002	5.80299E-004	...........
	17	4.65	1.01817E-002	1.12064E-002	5.83899E-004	...........
	18	4.90833	1.07806E-002	1.10268E-002	5.76932E-004	...........
EOC	QUANT	0.0107806	Open Circuit (V)
PSTATMODEL	IQUANT	4	Pstat Model
PSTATSECTION	LABEL	REF600-11020	Pstat Section
PSTATSERIALNO	LABEL	11020	Pstat Serial Number
CTRLMODE	IQUANT	1	Control Mode
IESTAB	IQUANT	0	I/E Stability
CASPEED	IQUANT	1	Control Amp Speed
CONVENTION	IQUANT	1	Current Convention
ICHRANGE	IQUANT	2	Ich Range
ICHRANGEMODE	TOGGLE	F	Ich Auto Range
ICHOFFSETENABLE	TOGGLE	T	Ich Offset Enable
ICHOFFSET	QUANT	0	Ich Offset (V)
ICHFILTER	IQUANT	3	Ich Filter
VCHRANGE	IQUANT	2	Vch Range
VCHRANGEMODE	TOGGLE	F	Vch Auto Range
VCHOFFSETENABLE	TOGGLE	T	Vch Offset Enable
VCHOFFSET	QUANT	0	Vch Offset (V)
VCHFILTER	IQUANT	3	Vch Filter
ACHRANGE	IQUANT	2	Ach Range
ACHOFFSETENABLE	TOGGLE	F	Ach Offset Enable
ACHOFFSET	QUANT	0	Ach Offset (V)
ACHFILTER	IQUANT	3	Ach Filter
IERANGELOWERLIMIT	IQUANT	1	I/E Range Lower Limit
IERANGEMODE	TOGGLE	F	I/E AutoRange
IERANGE	IQUANT	5	I/E Range
POSFEEDENABLE	TOGGLE	F	Positive Feedback IR Comp
POSFEEDRESISTANCE	QUANT	0	Positive Feedback Resistance (ohm)
ACHSELECT	IQUANT	0	Ach Select
CABLEID	IQUANT	14	Cable ID
DCCALDATE	LABEL	8/19/2019	DC Calibration Date
ACCALDATE	LABEL	8/19/2019	AC Calibration Date
THERMOSELECT	IQUANT	1	Thermo Select
FRAMEWORKVERSION	QUANT	6.33	Framework Version
INSTRUMENTVERSION	LABEL	3.50	Instrument Version
ZCURVE	TABLE
	Pt	Time	Freq	Zreal	Zimag	Zsig	Zmod	Zphz	Idc	Vdc	IERange
	#	s	Hz	ohm	ohm	V	ohm	°	A	V	#
	0	1	1000078	1583.493	-2366.594	1	2847.494	-56.21344	3.740917E-006	0.013518	8
	1	2	794390.6	1762.197	-2750.787	1	3266.828	-57.35574	-3.34601E-006	0.0122893	8
	2	4	630984.4	1957.84	-3223.703	1	3771.657	-58.72858	-1.078534E-006	0.0121723	8
	3	5	501234.4	2180.67	-3817.787	1	4396.683	-60.26556	-3.957821E-006	0.0129936	8
	4	6	398109.4	2444.26	-4545.524	1	5161.026	-61.7318	3.924099E-007	0.0119713	8
	5	8	316265.6	2775.877	-5422.946	1	6092.113	-62.89317	9.373174E-009	0.0119534	8
	6	9	251203.1	3202.651	-6508.281	1	7253.599	-63.79873	-1.490391E-006	0.0127016	8
	7	11	199546.9	3723.006	-7781.874	1	8626.605	-64.4326	6.218149E-006	0.0111696	8
	8	13	158578.1	4312.706	-9363.71	1	10309.15	-65.27031	-6.288021E-008	0.0119559	8
	9	14	125953.1	5450.641	-10971.4	1	12250.76	-63.58161	-7.549932E-007	0.0164154	7
	10	16	100078.1	6371.022	-13127.26	1	14591.6	-64.11141	1.117394E-006	0.0118675	7
	11	17	79453.13	7692.552	-15663.79	1	17450.78	-63.84416	1.225384E-006	0.0100403	7
	12	19	63140.62	9411.642	-18469.54	1	20729.28	-62.99769	-4.820666E-007	0.0112833	7
	13	20	50203.12	11542.58	-21694.04	1	24573.62	-61.98423	-4.835635E-007	0.0112845	7
	14	22	39890.62	14106.08	-25464.97	1	29110.93	-61.01616	9.392019E-007	0.0099684	7
	15	23	31640.63	17601.73	-29126.78	1	34032.19	-58.85483	-7.403775E-007	0.01425	7
	16	25	25171.88	21583.96	-34007.98	1	40279.16	-57.59779	5.402043E-007	0.0101564	7
	17	26	20015.62	26305.88	-38974.95	1	47021.76	-55.98289	1.387345E-006	0.0102907	7
	18	28	15890.62	32712.09	-42730.75	1	53814.48	-52.5645	1.365364E-007	0.0134306	7
	19	29	12609.37	40262.45	-47278.48	1	62099.27	-49.58221	-7.406602E-008	0.0153023	6
	20	31	10078.13	47861.91	-51806.5	1	70531.38	-47.26642	2.266213E-007	0.0103562	6
	21	33	8015.625	56416.02	-55479.82	1	79125.08	-44.52063	2.274821E-007	0.0103546	6
	22	34	6328.125	65859.51	-58588.04	1	88147.8	-41.65601	-2.519154E-007	0.0157977	6
	23	36	5015.625	75980.8	-61812.02	1	97948	-39.1291	9.018355E-008	0.0089476	6
	24	38	3984.375	86407.31	-64943.25	1	108091.9	-36.92832	2.219852E-007	0.0091125	6
	25	39	3170.956	96137.7	-65954.15	1	116586.5	-34.45162	9.019207E-008	0.00895	6
	26	41	2527.573	106526.3	-68123.07	1	126446.1	-32.59872	2.302542E-007	0.0097006	6
	27	43	1976.103	117102.2	-69210.57	1	136025.8	-30.58424	1.495415E-007	0.0086701	6
	28	44	1577.524	134032.3	-75583.09	1	153874.8	-29.41939	1.459636E-007	0.012432	6
	29	46	1265.625	138198.2	-70028.61	1	154928.2	-26.87251	2.38093E-008	0.0099638	5
	30	48	998.264	148408	-72086.17	1	164989	-25.90722	1.713032E-008	0.0086733	5
	31	49	796.875	158233.5	-74263.79	1	174794	-25.14209	-2.394477E-008	0.0160003	5
	32	50	627.7902	169062.1	-76914.66	1	185736	-24.46312	-4.315772E-009	0.0150573	5
	33	52	505.5147	178913.8	-79305.23	1	195702.5	-23.90576	-1.961778E-008	0.0161304	5
	34	53	397.9953	190510.1	-82649.66	1	207665.8	-23.45281	-4.156765E-010	0.0121761	5
	35	54	315.5048	202069.4	-86275.78	1	219717	-23.1206	3.440291E-010	0.0121944	5
	36	56	252.4038	212099.4	-90364.98	1	230547.2	-23.07643	-1.082389E-011	0.0121857	5
	37	57	198.6229	224184.9	-95074.4	1	243511.9	-22.98128	-3.408601E-011	0.0121779	5
	38	58	158.3615	236084.6	-100055.5	1	256411.9	-22.96782	-1.060142E-010	0.0121786	5
	39	60	125.558	248979.2	-107633.9	1	271248.4	-23.37887	-4.867721E-010	0.0121801	5
	40	61	100.4464	260984.7	-114998.8	1	285197.7	-23.77994	3.873083E-010	0.0121873	5
	41	63	79.00281	275165.4	-123206.3	1	301489.3	-24.12062	3.877655E-010	0.0121802	5
	42	65	63.3446	298925.8	-124247.6	1	323719.2	-22.57007	3.917817E-010	0.0121915	5
	43	66	49.86702	304756	-150755	1	340004.9	-26.32043	9.332086E-011	0.0121776	5
	44	68	39.72458	321202.7	-168158.9	1	362558.4	-27.63336	3.541905E-010	0.0122015	5
	45	69	31.6723	333893.4	-189155	1	383750.4	-29.53212	3.657564E-010	0.0121879	5
	46	71	24.93351	359595.7	-215603.2	1	419277.7	-30.94568	4.486556E-012	0.0121931	5
	47	72	19.86229	381500.2	-242584.4	1	452094.7	-32.45105	3.358892E-010	0.0121905	5
	48	74	15.83615	397535.7	-286351	1	489930.1	-35.76578	-1.033263E-009	0.0121998	5
	49	75	12.40079	440720.2	-304324.6	1	535581.7	-34.62572	8.628105E-010	0.0121958	5
	50	76	9.93114	486414.4	-355860.8	1	602690.6	-36.18921	1.087846E-010	0.0121941	5
	51	78	7.944915	517492.9	-399832.7	1	653961.1	-37.6909	-5.563294E-010	0.0121918	6
	52	80	6.317385	576090.1	-450559.6	1	731357.5	-38.02893	1.347192E-010	0.012182	6
	53	82	5.008013	634807.3	-506370.4	1	812029.1	-38.57852	5.086254E-010	0.0121738	6
	54	85	3.945707	703967.1	-574336.5	1	908532.9	-39.20953	-5.304244E-011	0.0121872	6
	55	88	3.158693	775099.6	-636836.5	1	1003165	-39.40717	3.190547E-011	0.0122125	5
	56	92	2.504006	860921.2	-712926.3	1	1117788	-39.62806	-1.093004E-010	0.0121805	4
	57	95	1.998082	953592	-790188.4	1	1238440	-39.64666	-1.726992E-010	0.0121684	4
	58	98	1.584686	1054582	-872848.3	1	1368944	-39.61361	-5.848437E-011	0.0122207	4
	59	102	1.266892	1164075	-962657	1	1510556	-39.58978	-1.215905E-010	0.0121505	4
	60	106	0.999041	1294545	-1060595	1	1673532	-39.32709	3.525765E-012	0.0122254	4
