EXPLAIN
TAG	EISPOT
TITLE	LABEL	Potentiostatic EIS	Test &Identifier
DATE	LABEL	11/7/2019	Date
TIME	LABEL	9:45:54	Time
NOTES	NOTES	2	&Notes...
	
	
PSTAT	PSTAT	REF600-11020	Potentiostat
VDC	POTEN	0.00000E+000	T	DC &Voltage (V)
FREQINIT	QUANT	1.00000E+006	Initial Fre&q. (Hz)
FREQFINAL	QUANT	1.00000E+000	Final Fre&q. (Hz)
PTSPERDEC	QUANT	1.00000E+001	Points/&decade
VAC	QUANT	2.50000E+001	AC &Voltage (mV rms)
AREA	QUANT	1.00000E-002	&Area (cm^2)
CONDIT	TWOPARAM	T	5.00000E+000	0.00000E+000	Conditionin&g	Time(s)	E(V)
DELAY	TWOPARAM	T	5.00000E+000	0.00000E+000	Init. De&lay	Time(s)	Stab.(mV/s)
SPEED	SELECTOR	1	&Optimize for:
ZGUESS	QUANT	1.00000E+005	E&stimated Z (ohms)
OCVCURVE	TABLE	19
	Pt	T	Vf	Vm	Ach	Over
	#	s	V vs. Ref.	V	V	bits
	0	0.258333	7.20113E-003	7.20113E-003	5.81632E-004	...........
	1	0.516667	7.20144E-003	7.21748E-003	5.87265E-004	...........
	2	0.775	7.20241E-003	7.18318E-003	5.87299E-004	...........
	3	1.03333	7.20276E-003	7.19132E-003	5.79832E-004	...........
	4	1.29167	7.20081E-003	7.20445E-003	5.81732E-004	...........
	5	1.55	7.19851E-003	7.22967E-003	5.78132E-004	...........
	6	1.80833	7.20116E-003	7.26484E-003	5.83365E-004	...........
	7	2.06667	7.21292E-003	7.30196E-003	5.81599E-004	...........
	8	2.325	7.23456E-003	7.33710E-003	5.83099E-004	...........
	9	2.58333	7.26369E-003	7.35678E-003	5.78865E-004	...........
	10	2.84167	7.29627E-003	7.40445E-003	5.83032E-004	...........
	11	3.1	7.32952E-003	7.43456E-003	5.84165E-004	...........
	12	3.35833	7.36319E-003	7.46973E-003	5.81565E-004	...........
	13	3.61667	7.39768E-003	7.51000E-003	5.83999E-004	...........
	14	3.875	7.43295E-003	7.54397E-003	5.77199E-004	...........
	15	4.13333	7.46895E-003	7.58414E-003	5.78199E-004	...........
	16	4.39167	7.50560E-003	7.61970E-003	5.81999E-004	...........
	17	4.65	7.54288E-003	7.66752E-003	5.84132E-004	...........
	18	4.90833	7.58106E-003	7.70004E-003	5.82432E-004	...........
EOC	QUANT	0.0075811	Open Circuit (V)
PSTATMODEL	IQUANT	4	Pstat Model
PSTATSECTION	LABEL	REF600-11020	Pstat Section
PSTATSERIALNO	LABEL	11020	Pstat Serial Number
CTRLMODE	IQUANT	1	Control Mode
IESTAB	IQUANT	0	I/E Stability
CASPEED	IQUANT	1	Control Amp Speed
CONVENTION	IQUANT	1	Current Convention
ICHRANGE	IQUANT	2	Ich Range
ICHRANGEMODE	TOGGLE	F	Ich Auto Range
ICHOFFSETENABLE	TOGGLE	T	Ich Offset Enable
ICHOFFSET	QUANT	0	Ich Offset (V)
ICHFILTER	IQUANT	3	Ich Filter
VCHRANGE	IQUANT	2	Vch Range
VCHRANGEMODE	TOGGLE	F	Vch Auto Range
VCHOFFSETENABLE	TOGGLE	T	Vch Offset Enable
VCHOFFSET	QUANT	0	Vch Offset (V)
VCHFILTER	IQUANT	3	Vch Filter
ACHRANGE	IQUANT	2	Ach Range
ACHOFFSETENABLE	TOGGLE	F	Ach Offset Enable
ACHOFFSET	QUANT	0	Ach Offset (V)
ACHFILTER	IQUANT	3	Ach Filter
IERANGELOWERLIMIT	IQUANT	1	I/E Range Lower Limit
IERANGEMODE	TOGGLE	F	I/E AutoRange
IERANGE	IQUANT	5	I/E Range
POSFEEDENABLE	TOGGLE	F	Positive Feedback IR Comp
POSFEEDRESISTANCE	QUANT	0	Positive Feedback Resistance (ohm)
ACHSELECT	IQUANT	0	Ach Select
CABLEID	IQUANT	14	Cable ID
DCCALDATE	LABEL	8/19/2019	DC Calibration Date
ACCALDATE	LABEL	8/19/2019	AC Calibration Date
THERMOSELECT	IQUANT	1	Thermo Select
FRAMEWORKVERSION	QUANT	6.33	Framework Version
INSTRUMENTVERSION	LABEL	3.50	Instrument Version
ZCURVE	TABLE
	Pt	Time	Freq	Zreal	Zimag	Zsig	Zmod	Zphz	Idc	Vdc	IERange
	#	s	Hz	ohm	ohm	V	ohm	°	A	V	#
	0	2	1000078	2230.252	-1551.453	1	2716.805	-34.82402	2.013209E-006	0.0096239	8
	1	3	794390.6	2551.227	-1475.087	1	2946.971	-30.03595	-1.167268E-006	0.0089763	8
	2	5	630984.4	2845.689	-1370.654	1	3158.582	-25.71824	-1.135159E-007	0.0088656	8
	3	6	501234.4	3058.851	-1237.133	1	3299.556	-22.02056	3.432402E-006	0.0083567	8
	4	8	398109.4	3238.068	-1083.584	1	3414.563	-18.50226	7.636833E-006	0.0082369	8
	5	9	316265.6	3390.688	-940.0118	1	3518.578	-15.49515	-4.462282E-006	0.0096683	8
	6	10	251203.1	3495.784	-795.004	1	3585.043	-12.81218	6.940021E-006	0.0082327	8
	7	12	199546.9	3579.389	-694.2967	1	3646.104	-10.97739	-8.544451E-007	0.0087311	8
	8	13	158578.1	3594.473	-638.4028	1	3650.725	-10.0711	-9.228301E-007	0.0095243	8
	9	15	125953.1	3700.795	-474.9585	1	3731.148	-7.313339	2.232625E-006	0.0091418	7
	10	16	100078.1	3736.035	-419.3795	1	3759.5	-6.404786	1.551313E-007	0.0074699	7
	11	18	79453.13	3768.862	-385.8621	1	3788.563	-5.845665	5.828684E-008	0.0100816	7
	12	19	63140.62	3800.288	-367.7808	1	3818.042	-5.527705	1.095491E-006	0.007135	7
	13	20	50203.12	3829.612	-356.0612	1	3846.129	-5.31185	-3.11262E-007	0.0080167	7
	14	22	39890.62	3858.42	-352.163	1	3874.458	-5.215011	1.538358E-007	0.0074585	7
	15	23	31640.63	3889.367	-359.6168	1	3905.957	-5.282634	1.0947E-006	0.0071299	7
	16	24	25171.88	3917.495	-374.1853	1	3935.325	-5.456138	4.147995E-007	0.0095991	7
	17	26	20015.62	3943.771	-395.0551	1	3963.509	-5.720345	-7.838545E-007	0.0087762	7
	18	27	15890.62	3978.556	-432.8515	1	4002.033	-6.209137	-7.841592E-007	0.0087718	7
	19	28	12609.37	4014.249	-480.9392	1	4042.957	-6.831929	-7.782397E-007	0.0087693	7
	20	30	10078.13	4052.385	-536.0837	1	4087.69	-7.535814	1.115776E-006	0.0082363	7
	21	31	8015.625	4055.609	-613.6491	1	4101.771	-8.604087	-1.143272E-006	0.0095332	7
	22	32	6328.125	4117.456	-713.8267	1	4178.874	-9.83538	-7.851218E-007	0.0087749	7
	23	34	5015.625	4158.019	-839.3398	1	4241.888	-11.4124	-3.376312E-007	0.0104961	7
	24	35	3984.375	4202.326	-994.489	1	4318.397	-13.31422	-3.123699E-007	0.0080114	7
	25	36	3170.956	4260.088	-1186.243	1	4422.163	-15.56013	1.114484E-006	0.0082321	7
	26	38	2527.573	4315.853	-1419.574	1	4543.322	-18.20711	-1.339922E-006	0.0101585	7
	27	39	1976.103	4398.885	-1735.813	1	4728.979	-21.53434	1.210911E-006	0.0073889	7
	28	41	1577.524	4461.916	-2130.603	1	4944.508	-25.52488	-1.14045E-006	0.0095366	7
	29	42	1265.625	4584.541	-2505.017	1	5224.282	-28.65242	6.674496E-007	0.0092406	7
	30	43	998.264	4714.717	-3057.149	1	5619.139	-32.96045	-3.372933E-007	0.0104991	7
	31	45	796.875	4859.232	-3698.124	1	6106.411	-37.27299	9.096029E-007	0.0087789	7
	32	46	627.7902	5043.389	-4520.241	1	6772.617	-41.86894	1.220546E-006	0.0077576	7
	33	47	505.5147	5236.384	-5435.366	1	7547.378	-46.0682	1.095313E-006	0.0071217	7
	34	49	397.9953	5498.279	-6663.616	1	8639.146	-50.47329	2.90824E-009	0.0090137	7
	35	50	315.5048	5795.354	-8141.977	1	9993.89	-54.55723	7.752538E-009	0.0090109	7
	36	52	252.4038	6142.155	-9886.07	1	11638.75	-58.14756	1.030684E-009	0.0089444	6
	37	53	198.6229	6593.168	-12198.74	1	13866.48	-61.60969	3.421697E-010	0.0089543	6
	38	54	158.3615	7132.439	-14898.45	1	16517.73	-64.41784	6.093571E-010	0.0089413	6
	39	56	125.558	7831.966	-18299.45	1	19905.01	-66.8296	1.323197E-009	0.0089465	6
	40	57	100.4464	8720.962	-22299.69	1	23944.34	-68.64053	-2.610914E-010	0.0089546	6
	41	58	79.00281	9841.41	-27532.35	1	29238.39	-70.33062	8.645091E-010	0.0089453	6
	42	60	63.3446	11055.16	-33655.57	1	35424.77	-71.81573	1.130849E-009	0.008937	6
	43	61	49.86702	13526.12	-40931.95	1	43108.93	-71.71367	1.499877E-009	0.008945	6
	44	63	39.72458	16123	-50179.75	1	52706.34	-72.18753	1.366465E-009	0.0089406	6
	45	64	31.6723	19318.86	-60844.86	1	63838.2	-72.38483	8.05539E-010	0.0089437	6
	46	65	24.93351	24071.39	-74448.55	1	78243.33	-72.08246	8.249443E-010	0.0089404	6
	47	67	19.86229	29757.09	-89881.09	1	94678.9	-71.68175	-9.835414E-011	0.0089439	6
	48	68	15.83615	36501.5	-107315.2	1	113353.1	-71.21511	-4.428066E-010	0.008942	5
	49	70	12.40079	47627.61	-131420.6	1	139784.7	-70.07918	-3.75877E-011	0.008941	5
	50	71	9.93114	59319.96	-155504.1	1	166434.3	-69.11971	6.411726E-010	0.0089385	5
	51	73	7.944915	75002.28	-184589.5	1	199245.1	-67.88714	4.009069E-010	0.0089531	5
	52	74	6.317385	93050.97	-216977.1	1	236088	-66.78786	-4.160595E-010	0.0089432	5
	53	76	5.008013	116791.6	-255290.8	1	280737.7	-65.41663	-2.229028E-010	0.0089449	5
	54	79	3.945707	147031.1	-299390	1	333545.4	-63.84425	8.492131E-010	0.0089528	5
	55	81	3.158693	180496.6	-346634.1	1	390812.2	-62.49346	-6.796012E-011	0.0089318	5
	56	85	2.504006	221615.8	-400112.5	1	457387.7	-61.01865	5.425319E-010	0.0089471	5
	57	87	1.998082	268768.6	-457362.3	1	530487.3	-59.55941	1.375232E-010	0.0089899	5
	58	91	1.584686	321851.5	-521781.8	1	613061.8	-58.33241	2.140541E-010	0.0089345	5
	59	94	1.266892	382839.3	-591926.8	1	704942.1	-57.10651	1.914275E-010	0.0089834	5
	60	98	0.999041	451956.1	-673258.1	1	810888.9	-56.12666	-1.085727E-011	0.0089025	5
