EXPLAIN
TAG	EISPOT
TITLE	LABEL	Potentiostatic EIS	Test &Identifier
DATE	LABEL	11/7/2019	Date
TIME	LABEL	9:20:19	Time
NOTES	NOTES	2	&Notes...
	
	
PSTAT	PSTAT	REF600-11020	Potentiostat
VDC	POTEN	0.00000E+000	T	DC &Voltage (V)
FREQINIT	QUANT	1.00000E+006	Initial Fre&q. (Hz)
FREQFINAL	QUANT	1.00000E+000	Final Fre&q. (Hz)
PTSPERDEC	QUANT	1.00000E+001	Points/&decade
VAC	QUANT	2.50000E+001	AC &Voltage (mV rms)
AREA	QUANT	1.00000E-002	&Area (cm^2)
CONDIT	TWOPARAM	T	5.00000E+000	0.00000E+000	Conditionin&g	Time(s)	E(V)
DELAY	TWOPARAM	T	5.00000E+000	0.00000E+000	Init. De&lay	Time(s)	Stab.(mV/s)
SPEED	SELECTOR	1	&Optimize for:
ZGUESS	QUANT	1.00000E+005	E&stimated Z (ohms)
OCVCURVE	TABLE	19
	Pt	T	Vf	Vm	Ach	Over
	#	s	V vs. Ref.	V	V	bits
	0	0.258333	5.07135E-003	5.07135E-003	5.70399E-004	...........
	1	0.516667	5.06908E-003	4.95275E-003	5.69432E-004	...........
	2	0.775	5.05541E-003	4.85285E-003	5.70666E-004	...........
	3	1.03333	5.01835E-003	4.80015E-003	5.72666E-004	...........
	4	1.29167	4.95725E-003	4.75335E-003	5.73732E-004	...........
	5	1.55	4.88598E-003	4.71492E-003	5.68432E-004	...........
	6	1.80833	4.81989E-003	4.68716E-003	5.69466E-004	...........
	7	2.06667	4.76596E-003	4.65815E-003	5.70066E-004	...........
	8	2.325	4.72393E-003	4.63797E-003	5.65499E-004	...........
	9	2.58333	4.69077E-003	4.61644E-003	5.71999E-004	...........
	10	2.84167	4.66385E-003	4.61528E-003	5.74765E-004	...........
	11	3.1	4.64225E-003	4.60222E-003	5.76132E-004	...........
	12	3.35833	4.62582E-003	4.59416E-003	5.68599E-004	...........
	13	3.61667	4.61346E-003	4.58277E-003	5.67899E-004	...........
	14	3.875	4.60311E-003	4.56695E-003	5.66166E-004	...........
	15	4.13333	4.59289E-003	4.56006E-003	5.65099E-004	...........
	16	4.39167	4.58206E-003	4.54900E-003	5.69399E-004	...........
	17	4.65	4.57106E-003	4.54122E-003	5.74332E-004	...........
	18	4.90833	4.56051E-003	4.52934E-003	5.73632E-004	...........
EOC	QUANT	0.0045605	Open Circuit (V)
PSTATMODEL	IQUANT	4	Pstat Model
PSTATSECTION	LABEL	REF600-11020	Pstat Section
PSTATSERIALNO	LABEL	11020	Pstat Serial Number
CTRLMODE	IQUANT	1	Control Mode
IESTAB	IQUANT	0	I/E Stability
CASPEED	IQUANT	1	Control Amp Speed
CONVENTION	IQUANT	1	Current Convention
ICHRANGE	IQUANT	2	Ich Range
ICHRANGEMODE	TOGGLE	F	Ich Auto Range
ICHOFFSETENABLE	TOGGLE	T	Ich Offset Enable
ICHOFFSET	QUANT	0	Ich Offset (V)
ICHFILTER	IQUANT	3	Ich Filter
VCHRANGE	IQUANT	2	Vch Range
VCHRANGEMODE	TOGGLE	F	Vch Auto Range
VCHOFFSETENABLE	TOGGLE	T	Vch Offset Enable
VCHOFFSET	QUANT	0	Vch Offset (V)
VCHFILTER	IQUANT	3	Vch Filter
ACHRANGE	IQUANT	2	Ach Range
ACHOFFSETENABLE	TOGGLE	F	Ach Offset Enable
ACHOFFSET	QUANT	0	Ach Offset (V)
ACHFILTER	IQUANT	3	Ach Filter
IERANGELOWERLIMIT	IQUANT	1	I/E Range Lower Limit
IERANGEMODE	TOGGLE	F	I/E AutoRange
IERANGE	IQUANT	4	I/E Range
POSFEEDENABLE	TOGGLE	F	Positive Feedback IR Comp
POSFEEDRESISTANCE	QUANT	0	Positive Feedback Resistance (ohm)
ACHSELECT	IQUANT	0	Ach Select
CABLEID	IQUANT	14	Cable ID
DCCALDATE	LABEL	8/19/2019	DC Calibration Date
ACCALDATE	LABEL	8/19/2019	AC Calibration Date
THERMOSELECT	IQUANT	1	Thermo Select
FRAMEWORKVERSION	QUANT	6.33	Framework Version
INSTRUMENTVERSION	LABEL	3.50	Instrument Version
ZCURVE	TABLE
	Pt	Time	Freq	Zreal	Zimag	Zsig	Zmod	Zphz	Idc	Vdc	IERange
	#	s	Hz	ohm	ohm	V	ohm	°	A	V	#
	0	1	1000078	2263.104	-1242.302	1	2581.657	-28.76402	4.131117E-006	0.0062709	8
	1	3	794390.6	2496.081	-1142.059	1	2744.944	-24.58603	-4.323997E-006	0.0066245	8
	2	4	630984.4	2689.803	-1017.734	1	2875.904	-20.725	8.789105E-006	0.0048295	8
	3	6	501234.4	2833.721	-895.0405	1	2971.712	-17.5289	6.211677E-006	0.0052544	8
	4	7	398109.4	2950.425	-772.9077	1	3049.982	-14.67962	6.551624E-006	0.0052384	8
	5	9	316265.6	3038.26	-676.2808	1	3112.616	-12.54879	6.400986E-006	0.0048263	8
	6	10	251203.1	3093.233	-591.7156	1	3149.32	-10.82948	-1.813539E-006	0.0065281	8
	7	11	199546.9	3142.427	-522.9015	1	3185.635	-9.447485	-6.603826E-006	0.007018	8
	8	13	158578.1	3163.668	-458.0058	1	3196.649	-8.23751	-4.825946E-006	0.0064376	8
	9	14	125953.1	3251.068	-363.0328	1	3271.274	-6.371578	4.05684E-006	0.0012921	7
	10	15	100078.1	3256.606	-344.3375	1	3274.759	-6.035748	-1.127072E-006	0.0065631	7
	11	17	79453.13	3294.358	-332.5979	1	3311.105	-5.765039	1.443204E-007	0.0045073	7
	12	18	63140.62	3321.533	-335.1837	1	3338.403	-5.762344	8.538609E-007	0.0040786	7
	13	19	50203.12	3351.802	-343.3604	1	3369.344	-5.849007	8.986577E-007	0.0057772	7
	14	21	39890.62	3381.362	-361.0379	1	3400.582	-6.094548	1.184726E-006	0.0044194	7
	15	22	31640.63	3414.187	-384.9875	1	3435.824	-6.433559	-3.20943E-007	0.0074818	7
	16	23	25171.88	3452.934	-420.3414	1	3478.425	-6.940725	8.99764E-007	0.0057811	7
	17	25	20015.62	3489.643	-460.9314	1	3519.952	-7.524387	-3.17269E-007	0.0050572	7
	18	26	15890.62	3536.348	-515.8807	1	3573.778	-8.299735	-9.799437E-007	0.0078375	7
	19	28	12609.37	3590.013	-583.0825	1	3637.056	-9.225304	1.102356E-006	0.0052415	7
	20	29	10078.13	3647.334	-669.7138	1	3708.31	-10.4046	4.235476E-007	0.0065789	7
	21	30	8015.625	3710.995	-746.2303	1	3785.28	-11.36977	1.435703E-007	0.004496	7
	22	32	6328.125	3782.211	-855.2592	1	3877.704	-12.74182	-7.791023E-007	0.0058041	7
	23	33	5015.625	3866.369	-981.758	1	3989.067	-14.24757	1.101967E-006	0.0052337	7
	24	34	3984.375	3947.346	-1128.901	1	4105.601	-15.96	1.422701E-007	0.0044965	7
	25	36	3170.956	4056.379	-1297.01	1	4258.69	-17.73146	1.07323E-006	0.0041717	7
	26	37	2527.573	4162.875	-1494.805	1	4423.117	-19.7522	6.64882E-007	0.0062287	7
	27	38	1976.103	4296.531	-1753.133	1	4640.437	-22.19716	1.197781E-006	0.0047731	7
	28	40	1577.524	4425.508	-2040.168	1	4873.131	-24.74979	-9.790451E-007	0.0078279	7
	29	41	1265.625	4550.878	-2372.539	1	5132.196	-27.53467	4.24107E-007	0.006572	7
	30	42	998.264	4705.296	-2810.96	1	5480.995	-30.85424	-7.772803E-007	0.0058007	7
	31	44	796.875	4870.797	-3318.897	1	5894.043	-34.27	-6.795434E-007	0.0077312	7
	32	45	627.7902	5046.063	-3990.858	1	6433.482	-38.33996	1.201149E-006	0.0047605	7
	33	47	505.5147	5224.545	-4743.186	1	7056.464	-42.23523	8.531069E-007	0.0040675	7
	34	48	397.9953	5460.572	-5747.598	1	7927.971	-46.46695	8.825021E-009	0.006016	7
	35	49	315.5048	5716.625	-6977.878	1	9020.564	-50.67396	4.815437E-009	0.0060162	7
	36	51	252.4038	6014.675	-8439.201	1	10363.23	-54.52227	-1.136145E-010	0.0059593	6
	37	52	198.6229	6399.921	-10385.07	1	12198.72	-58.35607	6.796708E-010	0.0059668	6
	38	53	158.3615	6860.315	-12661.49	1	14400.6	-61.55005	-2.958958E-010	0.0059569	6
	39	55	125.558	7462.219	-15537.3	1	17236.37	-64.34606	9.775035E-010	0.0059619	6
	40	56	100.4464	8210.488	-18908.57	1	20614.22	-66.52853	-6.171575E-010	0.0059614	6
	41	58	79.00281	9212.615	-23416.98	1	25164	-68.52453	1.686508E-009	0.005953	6
	42	59	63.3446	10695.44	-28679.38	1	30608.8	-69.54794	1.073344E-009	0.0059508	6
	43	60	49.86702	12155.65	-35081.71	1	37127.97	-70.88903	-2.237775E-010	0.0059626	6
	44	62	39.72458	14642.81	-42614.86	1	45060.38	-71.03687	5.536647E-010	0.0059662	6
	45	63	31.6723	17611.38	-51778	1	54691.15	-71.21516	1.185051E-009	0.0059595	6
	46	64	24.93351	22020.59	-63138.41	1	66868.27	-70.77292	6.946029E-011	0.0059581	6
	47	66	19.86229	27491.75	-75967.04	1	80788.53	-70.10529	-5.356369E-010	0.0059585	6
	48	67	15.83615	34074.77	-90904.79	1	97081.3	-69.45198	1.133599E-009	0.0059603	6
	49	69	12.40079	44790.98	-109798.1	1	118582.7	-67.80752	1.424762E-009	0.0059646	5
	50	70	9.93114	55866.19	-129006.8	1	140583.8	-66.58506	2.309771E-010	0.0059642	5
	51	72	7.944915	70438.47	-150310.2	1	165996.2	-64.89124	-1.377583E-010	0.0059562	5
	52	73	6.317385	86873.16	-175038.2	1	195410.6	-63.60434	6.998301E-010	0.0059665	5
	53	75	5.008013	107434.6	-202992.2	1	229669.3	-62.10975	4.970726E-010	0.0059682	5
	54	78	3.945707	131966.9	-234138.2	1	268767.5	-60.59315	-2.178092E-010	0.0059606	5
	55	80	3.158693	158028.8	-266507.3	1	309837.4	-59.33364	2.563824E-010	0.0059769	5
	56	84	2.504006	187726.7	-304249.8	1	357504.2	-58.3248	-2.767292E-010	0.0059653	5
	57	86	1.998082	218910.4	-345191.8	1	408753.2	-57.61834	1.676027E-010	0.0059195	5
	58	90	1.584686	253062.2	-394848.8	1	468984.1	-57.34382	-4.279432E-011	0.0059465	5
	59	93	1.266892	290838.8	-450088.4	1	535879.4	-57.1302	1.864123E-010	0.0059128	5
	60	98	0.999041	333869	-520263.1	1	618176.5	-57.31045	-1.651098E-011	0.0059873	5
