EXPLAIN
TAG	EISPOT
TITLE	LABEL	Potentiostatic EIS	Test &Identifier
DATE	LABEL	10/16/2019	Date
TIME	LABEL	9:53:15	Time
NOTES	NOTES	1	&Notes...
	
PSTAT	PSTAT	REF600-11020	Potentiostat
VDC	POTEN	0.00000E+000	T	DC &Voltage (V)
FREQINIT	QUANT	1.00000E+006	Initial Fre&q. (Hz)
FREQFINAL	QUANT	1.00000E+000	Final Fre&q. (Hz)
PTSPERDEC	QUANT	1.00000E+001	Points/&decade
VAC	QUANT	2.50000E+001	AC &Voltage (mV rms)
AREA	QUANT	1.00000E-002	&Area (cm^2)
CONDIT	TWOPARAM	T	5.00000E+000	0.00000E+000	Conditionin&g	Time(s)	E(V)
DELAY	TWOPARAM	T	5.00000E+000	0.00000E+000	Init. De&lay	Time(s)	Stab.(mV/s)
SPEED	SELECTOR	0	&Optimize for:
ZGUESS	QUANT	1.00000E+005	E&stimated Z (ohms)
OCVCURVE	TABLE	19
	Pt	T	Vf	Vm	Ach	Over
	#	s	V vs. Ref.	V	V	bits
	0	0.258333	5.92460E-003	5.92460E-003	5.62566E-004	...........
	1	0.516667	5.92299E-003	5.84023E-003	5.52599E-004	...........
	2	0.775	5.91345E-003	5.77907E-003	5.58399E-004	...........
	3	1.03333	5.88785E-003	5.72979E-003	5.57999E-004	...........
	4	1.29167	5.84533E-003	5.69294E-003	5.61366E-004	...........
	5	1.55	5.79439E-003	5.66367E-003	5.61232E-004	...........
	6	1.80833	5.74534E-003	5.64391E-003	5.59099E-004	...........
	7	2.06667	5.70425E-003	5.62972E-003	5.60432E-004	...........
	8	2.325	5.67271E-003	5.61841E-003	5.57666E-004	...........
	9	2.58333	5.64966E-003	5.61079E-003	5.58732E-004	...........
	10	2.84167	5.63311E-003	5.60368E-003	5.58466E-004	...........
	11	3.1	5.62112E-003	5.60050E-003	5.61199E-004	...........
	12	3.35833	5.61241E-003	5.60086E-003	5.60199E-004	...........
	13	3.61667	5.60648E-003	5.60520E-003	5.52432E-004	...........
	14	3.875	5.60347E-003	5.61189E-003	5.62999E-004	...........
	15	4.13333	5.60379E-003	5.63020E-003	5.58032E-004	...........
	16	4.39167	5.60806E-003	5.64430E-003	5.56566E-004	...........
	17	4.65	5.61696E-003	5.67862E-003	5.57499E-004	...........
	18	4.90833	5.63151E-003	5.72178E-003	5.59666E-004	...........
EOC	QUANT	0.0056315	Open Circuit (V)
PSTATMODEL	IQUANT	4	Pstat Model
PSTATSECTION	LABEL	REF600-11020	Pstat Section
PSTATSERIALNO	LABEL	11020	Pstat Serial Number
CTRLMODE	IQUANT	1	Control Mode
IESTAB	IQUANT	0	I/E Stability
CASPEED	IQUANT	1	Control Amp Speed
CONVENTION	IQUANT	1	Current Convention
ICHRANGE	IQUANT	2	Ich Range
ICHRANGEMODE	TOGGLE	F	Ich Auto Range
ICHOFFSETENABLE	TOGGLE	T	Ich Offset Enable
ICHOFFSET	QUANT	0	Ich Offset (V)
ICHFILTER	IQUANT	3	Ich Filter
VCHRANGE	IQUANT	2	Vch Range
VCHRANGEMODE	TOGGLE	F	Vch Auto Range
VCHOFFSETENABLE	TOGGLE	T	Vch Offset Enable
VCHOFFSET	QUANT	0	Vch Offset (V)
VCHFILTER	IQUANT	3	Vch Filter
ACHRANGE	IQUANT	2	Ach Range
ACHOFFSETENABLE	TOGGLE	F	Ach Offset Enable
ACHOFFSET	QUANT	0	Ach Offset (V)
ACHFILTER	IQUANT	3	Ach Filter
IERANGELOWERLIMIT	IQUANT	1	I/E Range Lower Limit
IERANGEMODE	TOGGLE	F	I/E AutoRange
IERANGE	IQUANT	5	I/E Range
POSFEEDENABLE	TOGGLE	F	Positive Feedback IR Comp
POSFEEDRESISTANCE	QUANT	0	Positive Feedback Resistance (ohm)
ACHSELECT	IQUANT	0	Ach Select
CABLEID	IQUANT	14	Cable ID
DCCALDATE	LABEL	8/19/2019	DC Calibration Date
ACCALDATE	LABEL	8/19/2019	AC Calibration Date
THERMOSELECT	IQUANT	1	Thermo Select
FRAMEWORKVERSION	QUANT	6.33	Framework Version
INSTRUMENTVERSION	LABEL	3.50	Instrument Version
ZCURVE	TABLE
	Pt	Time	Freq	Zreal	Zimag	Zsig	Zmod	Zphz	Idc	Vdc	IERange
	#	s	Hz	ohm	ohm	V	ohm	°	A	V	#
	0	2	1000078	2474.212	-1797.023	1	3057.943	-35.99094	-1.435862E-006	0.0084744	8
	1	2	794390.6	2842.84	-1740.599	1	3333.38	-31.47808	1.274958E-006	0.0077089	8
	2	2	630984.4	3171.026	-1636.391	1	3568.359	-27.29575	-4.266964E-009	0.0075787	8
	3	3	501234.4	3455.251	-1480.387	1	3759.03	-23.1925	-3.060668E-007	0.0074517	8
	4	3	398109.4	3691.564	-1315.225	1	3918.86	-19.60989	-2.914538E-006	0.0079151	8
	5	3	316265.6	3872.797	-1174.707	1	4047.035	-16.87374	3.61759E-006	0.0067999	8
	6	3	251203.1	4010.616	-997.871	1	4132.891	-13.97192	3.04669E-006	0.0066769	8
	7	4	199546.9	4117.335	-865.7119	1	4207.363	-11.87406	1.084399E-006	0.0071356	8
	8	4	158578.1	4206.508	-756.8006	1	4274.045	-10.19908	-5.219342E-007	0.0072886	8
	9	4	125953.1	4300.518	-597.3691	1	4341.809	-7.908143	2.796338E-007	0.0061943	7
	10	5	100078.1	4333.828	-542.4567	1	4367.646	-7.134495	9.952058E-008	0.0071791	7
	11	5	79453.13	4378.536	-496.9578	1	4406.648	-6.475281	-3.762469E-008	0.0074029	7
	12	5	63140.62	4417.869	-464.6088	1	4442.232	-6.00349	-3.388977E-008	0.007321	7
	13	6	50203.12	4454.295	-444.6245	1	4476.431	-5.700341	-3.408043E-008	0.007319	7
	14	6	39890.62	4490.174	-436.6002	1	4511.351	-5.553672	-5.620533E-008	0.0074074	7
	15	6	31640.63	4525.379	-439.7233	1	4546.693	-5.549909	-5.987303E-008	0.007381	7
	16	7	25171.88	4559.946	-455.4739	1	4582.637	-5.704115	8.692588E-009	0.0072443	7
	17	7	20015.62	4610.268	-500.7846	1	4637.386	-6.199377	-4.754557E-009	0.0073382	7
	18	7	15890.62	4631.858	-520.3356	1	4660.994	-6.409643	4.69361E-009	0.0072419	7
	19	8	12609.37	4668.278	-578.222	1	4703.951	-7.060805	-3.507746E-008	0.0073179	7
	20	8	10078.13	4709.623	-646.6192	1	4753.805	-7.817687	-2.024261E-008	0.0072907	7
	21	8	8015.625	4746.285	-765.2186	1	4807.575	-9.158686	7.419682E-008	0.0072468	7
	22	9	6328.125	4801.003	-857.2431	1	4876.935	-10.12376	3.446953E-008	0.007257	7
	23	9	5015.625	4851.229	-1005.851	1	4954.409	-11.7137	3.742619E-008	0.0072555	7
	24	9	3984.375	4906.802	-1172.173	1	5044.868	-13.43544	-2.56793E-008	0.0073042	7
	25	9	3170.956	4968.535	-1412.06	1	5165.293	-15.86518	7.738162E-008	0.0072427	7
	26	10	2527.573	5039.104	-1681.28	1	5312.181	-18.4511	7.767854E-008	0.0072379	7
	27	10	1976.103	5129.156	-2051.831	1	5524.333	-21.80303	-5.263922E-008	0.0073931	7
	28	10	1577.524	5184.232	-2485.439	1	5749.232	-25.61412	9.970894E-009	0.0073806	7
	29	11	1265.625	5331.622	-2972.612	1	6104.312	-29.14158	-3.141757E-008	0.0073045	7
	30	11	998.264	5467.79	-3634.143	1	6565.342	-33.60983	9.755677E-008	0.0071553	7
	31	11	796.875	5621.192	-4412.513	1	7146.192	-38.13114	-3.954729E-008	0.0073904	7
	32	12	627.7902	5825.297	-5424.878	1	7960.112	-42.96157	5.200403E-008	0.0072144	7
	33	12	505.5147	6048.829	-6556.206	1	8920.323	-47.30502	3.41976E-008	0.0071863	7
	34	12	397.9953	6357.671	-8086.437	1	10286.42	-51.82507	-2.04245E-011	0.0072585	6
	35	13	315.5048	6738.581	-9930.34	1	12000.84	-55.83978	-2.730646E-010	0.0072581	6
	36	13	252.4038	7205.171	-12101.64	1	14084.18	-59.23095	1.9268E-011	0.0072571	6
	37	13	198.6229	7864.588	-14968.89	1	16909.15	-62.28277	8.064736E-010	0.0072573	6
	38	14	158.3615	8697.716	-18295.45	1	20257.68	-64.57343	1.811621E-010	0.0072547	6
	39	14	125.558	9826.26	-22443.98	1	24500.77	-66.35559	3.895593E-010	0.0072552	6
	40	14	100.4464	11252.84	-27230.65	1	29464.13	-67.54754	3.661969E-010	0.0072546	6
	41	15	79.00281	13410.77	-33440.64	1	36029.51	-68.14763	-4.585759E-010	0.0072489	6
	42	15	63.3446	16013.05	-40915.48	1	43937.39	-68.62617	6.276568E-010	0.0072485	6
	43	15	49.86702	19727.3	-49542.13	1	53325.31	-68.28793	1.418935E-010	0.0072468	6
	44	16	39.72458	24890.76	-58981.42	1	64018.42	-67.11976	3.096874E-010	0.0072553	6
	45	16	31.6723	31368.92	-69702.14	1	76435.58	-65.77023	7.762046E-010	0.0072508	6
	46	16	24.93351	39826.46	-82978.54	1	92041.21	-64.36081	-5.454496E-010	0.007249	6
	47	17	19.86229	50342.84	-96421.5	1	108772.7	-62.43038	-1.417687E-009	0.0072609	5
	48	17	15.83615	62002.17	-111894.1	1	127924	-61.00851	-1.275263E-009	0.0072548	5
	49	17	12.40079	76761.54	-126290.5	1	147789.2	-58.70805	-2.186575E-009	0.0072567	5
	50	18	9.93114	93194.32	-142657.8	1	170400.8	-56.84455	-6.620391E-010	0.0072579	5
	51	18	7.944915	110580.5	-159744.6	1	194284.3	-55.30774	-1.774121E-010	0.0072552	5
	52	19	6.317385	128231.3	-178882	1	220095.6	-54.36521	-5.960438E-010	0.0072655	5
	53	20	5.008013	147726.9	-201487.1	1	249840.6	-53.75176	-4.319572E-010	0.0072456	5
	54	21	3.945707	168355.4	-227913.3	1	283351.4	-53.54739	-9.912487E-013	0.0072451	5
	55	22	3.158693	188894.6	-258074.8	1	319818.4	-53.7982	1.144628E-010	0.0072653	5
	56	24	2.504006	212427.8	-295519.6	1	363947	-54.29036	-1.807197E-010	0.0072563	5
	57	25	1.998082	236482.8	-339458.7	1	413710.4	-55.13713	-6.488892E-011	0.0072508	5
	58	27	1.584686	265915.2	-393822.9	1	475191.9	-55.97218	8.395025E-011	0.0072904	5
	59	28	1.266892	297429	-458456.7	1	546485.7	-57.02605	6.341285E-011	0.0072823	5
	60	31	0.999041	335600.8	-539757.6	1	635583.3	-58.12821	5.151967E-011	0.0072634	5
