EXPLAIN
TAG	EISPOT
TITLE	LABEL	Potentiostatic EIS	Test &Identifier
DATE	LABEL	10/6/2019	Date
TIME	LABEL	10:11:42	Time
NOTES	NOTES	2	&Notes...
	
	
PSTAT	PSTAT	REF600-11020	Potentiostat
VDC	POTEN	0.00000E+000	T	DC &Voltage (V)
FREQINIT	QUANT	1.00000E+006	Initial Fre&q. (Hz)
FREQFINAL	QUANT	1.00000E+000	Final Fre&q. (Hz)
PTSPERDEC	QUANT	1.00000E+001	Points/&decade
VAC	QUANT	2.50000E+001	AC &Voltage (mV rms)
AREA	QUANT	1.00000E-002	&Area (cm^2)
CONDIT	TWOPARAM	T	5.00000E+000	0.00000E+000	Conditionin&g	Time(s)	E(V)
DELAY	TWOPARAM	T	5.00000E+000	0.00000E+000	Init. De&lay	Time(s)	Stab.(mV/s)
SPEED	SELECTOR	1	&Optimize for:
ZGUESS	QUANT	1.00000E+004	E&stimated Z (ohms)
OCVCURVE	TABLE	19
	Pt	T	Vf	Vm	Ach	Over
	#	s	V vs. Ref.	V	V	bits
	0	0.258333	-2.59768E-004	-2.59768E-004	5.22933E-004	...........
	1	0.516667	-2.69172E-004	-7.52021E-004	5.17200E-004	...........
	2	0.775	-3.25628E-004	-1.15116E-003	5.14800E-004	...........
	3	1.03333	-4.80851E-004	-1.52355E-003	5.16233E-004	...........
	4	1.29167	-7.49123E-004	-1.86725E-003	5.15733E-004	...........
	5	1.55	-1.09248E-003	-2.19302E-003	5.16566E-004	...........
	6	1.80833	-1.46055E-003	-2.57368E-003	5.20633E-004	...........
	7	2.06667	-1.82125E-003	-2.68851E-003	5.20666E-004	...........
	8	2.325	-2.15462E-003	-2.94496E-003	5.12866E-004	...........
	9	2.58333	-2.44707E-003	-3.19791E-003	5.13767E-004	...........
	10	2.84167	-2.70281E-003	-3.41815E-003	5.10400E-004	...........
	11	3.1	-2.94001E-003	-3.65622E-003	5.17800E-004	...........
	12	3.35833	-3.17197E-003	-3.86748E-003	5.19900E-004	...........
	13	3.61667	-3.40095E-003	-4.04363E-003	5.15700E-004	...........
	14	3.875	-3.62333E-003	-4.27403E-003	5.13633E-004	...........
	15	4.13333	-3.83566E-003	-4.39813E-003	5.20466E-004	...........
	16	4.39167	-4.03722E-003	-4.64915E-003	5.15566E-004	...........
	17	4.65	-4.23103E-003	-4.82866E-003	5.11767E-004	...........
	18	4.90833	-4.42299E-003	-5.00813E-003	5.16900E-004	...........
EOC	QUANT	-0.004423	Open Circuit (V)
PSTATMODEL	IQUANT	4	Pstat Model
PSTATSECTION	LABEL	REF600-11020	Pstat Section
PSTATSERIALNO	LABEL	11020	Pstat Serial Number
CTRLMODE	IQUANT	1	Control Mode
IESTAB	IQUANT	0	I/E Stability
CASPEED	IQUANT	1	Control Amp Speed
CONVENTION	IQUANT	1	Current Convention
ICHRANGE	IQUANT	2	Ich Range
ICHRANGEMODE	TOGGLE	F	Ich Auto Range
ICHOFFSETENABLE	TOGGLE	T	Ich Offset Enable
ICHOFFSET	QUANT	0	Ich Offset (V)
ICHFILTER	IQUANT	3	Ich Filter
VCHRANGE	IQUANT	2	Vch Range
VCHRANGEMODE	TOGGLE	F	Vch Auto Range
VCHOFFSETENABLE	TOGGLE	T	Vch Offset Enable
VCHOFFSET	QUANT	0	Vch Offset (V)
VCHFILTER	IQUANT	3	Vch Filter
ACHRANGE	IQUANT	2	Ach Range
ACHOFFSETENABLE	TOGGLE	F	Ach Offset Enable
ACHOFFSET	QUANT	0	Ach Offset (V)
ACHFILTER	IQUANT	3	Ach Filter
IERANGELOWERLIMIT	IQUANT	1	I/E Range Lower Limit
IERANGEMODE	TOGGLE	F	I/E AutoRange
IERANGE	IQUANT	5	I/E Range
POSFEEDENABLE	TOGGLE	F	Positive Feedback IR Comp
POSFEEDRESISTANCE	QUANT	0	Positive Feedback Resistance (ohm)
ACHSELECT	IQUANT	0	Ach Select
CABLEID	IQUANT	14	Cable ID
DCCALDATE	LABEL	8/19/2019	DC Calibration Date
ACCALDATE	LABEL	8/19/2019	AC Calibration Date
THERMOSELECT	IQUANT	1	Thermo Select
FRAMEWORKVERSION	QUANT	6.33	Framework Version
INSTRUMENTVERSION	LABEL	3.50	Instrument Version
ZCURVE	TABLE
	Pt	Time	Freq	Zreal	Zimag	Zsig	Zmod	Zphz	Idc	Vdc	IERange
	#	s	Hz	ohm	ohm	V	ohm	°	A	V	#
	0	2	1000078	2184.594	-1301.356	1	2542.829	-30.78213	-1.44801E-006	-0.0025121	8
	1	3	794390.6	2420.081	-1219.799	1	2710.111	-26.74959	-5.356143E-007	-0.0027819	8
	2	5	630984.4	2618.583	-1109.958	1	2844.114	-22.97099	-3.53956E-006	-0.0020725	8
	3	6	501234.4	2797.458	-984.169	1	2965.528	-19.3823	4.839002E-006	-0.0036166	8
	4	7	398109.4	2926.394	-853.497	1	3048.317	-16.25958	3.730707E-007	-0.0029533	8
	5	9	316265.6	3031.48	-737.6776	1	3119.942	-13.67649	-1.243799E-006	-0.0025397	8
	6	10	251203.1	3110.125	-643.8992	1	3176.08	-11.69688	-2.974272E-007	-0.0029972	8
	7	11	199546.9	3166.041	-558.9944	1	3215.01	-10.01292	-2.107658E-006	-0.0025901	8
	8	13	158578.1	3229.82	-503.1582	1	3268.777	-8.854662	3.523256E-006	-0.0035923	8
	9	14	125953.1	3275.214	-391.7861	1	3298.564	-6.821395	-4.099098E-007	-0.0026206	7
	10	15	100078.1	3298.562	-353.3147	1	3317.43	-6.11374	1.104604E-008	-0.0029164	7
	11	17	79453.13	3326.917	-332.0389	1	3343.446	-5.699461	-5.887288E-008	-0.0029393	7
	12	18	63140.62	3354.093	-320.3407	1	3369.355	-5.455623	5.637411E-008	-0.0031132	7
	13	19	50203.12	3381.979	-313.6433	1	3396.491	-5.298431	1.060062E-008	-0.0029224	7
	14	21	39890.62	3410.056	-315.5838	1	3424.627	-5.287381	-7.898812E-008	-0.0027874	7
	15	22	31640.63	3440.702	-324.451	1	3455.966	-5.386943	1.337294E-008	-0.0030899	7
	16	23	25171.88	3472.431	-338.486	1	3488.89	-5.567493	-3.987653E-008	-0.0030165	7
	17	25	20015.62	3506.325	-359.5952	1	3524.717	-5.855563	4.213149E-008	-0.0030635	7
	18	26	15890.62	3545.779	-387.6194	1	3566.903	-6.238718	-8.073054E-008	-0.0029099	7
	19	27	12609.37	3589.487	-420.2744	1	3614.007	-6.678061	4.667588E-008	-0.0031626	7
	20	29	10078.13	3632.928	-458.6885	1	3661.77	-7.19601	-6.194361E-008	-0.0029436	7
	21	30	8015.625	3684.114	-503.1719	1	3718.317	-7.777269	1.052878E-008	-0.0030474	7
	22	32	6328.125	3732.946	-557.5903	1	3774.36	-8.495462	-7.59971E-008	-0.0027984	7
	23	33	5015.625	3784.9	-622.1885	1	3835.699	-9.335194	-1.3412E-008	-0.0029646	7
	24	34	3984.375	3835.225	-702.9769	1	3899.119	-10.38672	-7.890682E-008	-0.0027862	7
	25	36	3170.956	3887.661	-793.1974	1	3967.754	-11.53175	-9.688051E-009	-0.0029946	7
	26	37	2527.573	3938.73	-910.9633	1	4042.703	-13.02259	1.382921E-008	-0.0029261	7
	27	38	1976.103	3993.24	-1072.001	1	4134.628	-15.02698	-7.855525E-008	-0.0029057	7
	28	40	1577.524	4047.911	-1260.299	1	4239.568	-17.29375	-1.198364E-008	-0.002959	7
	29	41	1265.625	4100.606	-1487.818	1	4362.175	-19.94222	-7.534643E-009	-0.0030312	7
	30	43	998.264	4166.406	-1797.596	1	4537.652	-23.33778	1.165703E-008	-0.0030457	7
	31	44	796.875	4240.154	-2165.619	1	4761.178	-27.05525	7.942473E-009	-0.0030403	7
	32	45	627.7902	4329.596	-2648.332	1	5075.338	-31.45333	-5.703113E-008	-0.0029501	7
	33	47	505.5147	4428.656	-3194.922	1	5460.816	-35.80744	1.22194E-007	-0.0032027	7
	34	48	397.9953	4565.252	-3937.892	1	6028.973	-40.78038	6.482981E-009	-0.002998	7
	35	49	315.5048	4730.315	-4832.864	1	6762.578	-45.61438	5.727776E-009	-0.0029989	7
	36	51	252.4038	4932.237	-5890.554	1	7682.811	-50.06013	6.548484E-009	-0.0030066	7
	37	52	198.6229	5211.817	-7286.498	1	8958.576	-54.42498	5.597573E-009	-0.0030041	7
	38	53	158.3615	5556.152	-8904.317	1	10495.6	-58.0365	7.711514E-010	-0.0030624	6
	39	55	125.558	6007.446	-10925.05	1	12467.81	-61.19457	1.295226E-009	-0.0030562	6
	40	56	100.4464	6562.209	-13276.02	1	14809.29	-63.69725	5.024206E-010	-0.0030594	6
	41	57	79.00281	7316.946	-16345.43	1	17908.4	-65.88457	6.168651E-010	-0.0030671	6
	42	59	63.3446	8158.882	-19706.39	1	21328.6	-67.50936	1.004926E-009	-0.0030672	6
	43	60	49.86702	9474.747	-24241.92	1	26027.71	-68.65238	5.114856E-010	-0.0030708	6
	44	62	39.72458	10840.51	-29400.34	1	31335.23	-69.76003	8.773344E-010	-0.0030663	6
	45	63	31.6723	12614.97	-35559.48	1	37730.81	-70.46751	1.46388E-009	-0.0030615	6
	46	64	24.93351	14886.6	-43420.08	1	45901.14	-71.07569	1.298993E-009	-0.003066	6
	47	66	19.86229	17604.71	-52532.14	1	55403.54	-71.47283	1.377988E-009	-0.0030646	6
	48	67	15.83615	21077.07	-63359.72	1	66773.48	-71.59992	1.289991E-010	-0.003068	6
	49	68	12.40079	25333.51	-77325.02	1	81369.19	-71.85998	1.082956E-009	-0.0030597	6
	50	70	9.93114	30815.7	-92985.7	1	97958.9	-71.66467	8.186379E-010	-0.0030624	6
	51	72	7.944915	37324.34	-111460	1	117543.3	-71.48596	4.493331E-010	-0.0030547	5
	52	73	6.317385	45725.14	-133988.8	1	141576.1	-71.15723	1.963193E-010	-0.0030431	5
	53	75	5.008013	56831.46	-161414.2	1	171126.7	-70.60361	5.032645E-010	-0.003064	5
	54	78	3.945707	70927.45	-194257.4	1	206800.9	-69.9418	7.742151E-010	-0.0030545	5
	55	80	3.158693	87415.3	-230704.9	1	246710.8	-69.24804	4.075443E-010	-0.0030574	5
	56	84	2.504006	108598.7	-274671.2	1	295360.7	-68.42729	7.234584E-010	-0.0030688	5
	57	86	1.998082	134119.5	-323967.2	1	350631.9	-67.51088	2.993511E-010	-0.0030339	5
	58	90	1.584686	165594.3	-383329	1	417567.5	-66.63614	5.71828E-010	-0.0030218	5
	59	93	1.266892	202767.8	-447673.4	1	491453.2	-65.63248	2.976792E-010	-0.0030256	5
	60	97	0.999041	248882	-526858.7	1	582685.4	-64.71449	6.3459E-010	-0.0030774	5
