EXPLAIN
TAG	EISPOT
TITLE	LABEL	Potentiostatic EIS	Test &Identifier
DATE	LABEL	10/24/2019	Date
TIME	LABEL	9:14:14	Time
NOTES	NOTES	1	&Notes...
	
PSTAT	PSTAT	REF600-11020	Potentiostat
VDC	POTEN	0.00000E+000	T	DC &Voltage (V)
FREQINIT	QUANT	1.00000E+006	Initial Fre&q. (Hz)
FREQFINAL	QUANT	1.00000E+000	Final Fre&q. (Hz)
PTSPERDEC	QUANT	1.00000E+001	Points/&decade
VAC	QUANT	2.50000E+001	AC &Voltage (mV rms)
AREA	QUANT	1.00000E-002	&Area (cm^2)
CONDIT	TWOPARAM	T	5.00000E+000	0.00000E+000	Conditionin&g	Time(s)	E(V)
DELAY	TWOPARAM	T	5.00000E+000	0.00000E+000	Init. De&lay	Time(s)	Stab.(mV/s)
SPEED	SELECTOR	1	&Optimize for:
ZGUESS	QUANT	1.00000E+005	E&stimated Z (ohms)
OCVCURVE	TABLE	19
	Pt	T	Vf	Vm	Ach	Over
	#	s	V vs. Ref.	V	V	bits
	0	0.258333	4.75320E-003	4.75320E-003	5.52133E-004	...........
	1	0.516667	4.74939E-003	4.55419E-003	5.54066E-004	...........
	2	0.775	4.72649E-003	4.38853E-003	5.49933E-004	...........
	3	1.03333	4.66385E-003	4.26625E-003	5.52432E-004	...........
	4	1.29167	4.55692E-003	4.10990E-003	5.50766E-004	...........
	5	1.55	4.42192E-003	4.00453E-003	5.52232E-004	...........
	6	1.80833	4.27990E-003	3.90896E-003	5.51133E-004	...........
	7	2.06667	4.14564E-003	3.81094E-003	5.44633E-004	...........
	8	2.325	4.02677E-003	3.78455E-003	5.55233E-004	...........
	9	2.58333	3.92593E-003	3.67768E-003	5.55999E-004	...........
	10	2.84167	3.84080E-003	3.60644E-003	5.52799E-004	...........
	11	3.1	3.76442E-003	3.55121E-003	5.51232E-004	...........
	12	3.35833	3.69185E-003	3.50947E-003	5.48466E-004	...........
	13	3.61667	3.62418E-003	3.44837E-003	5.49133E-004	...........
	14	3.875	3.56319E-003	3.39605E-003	5.49899E-004	...........
	15	4.13333	3.50735E-003	3.34812E-003	5.48866E-004	...........
	16	4.39167	3.45408E-003	3.29614E-003	5.52499E-004	...........
	17	4.65	3.40249E-003	3.26448E-003	5.61899E-004	...........
	18	4.90833	3.35360E-003	3.23408E-003	5.56399E-004	...........
EOC	QUANT	0.0033536	Open Circuit (V)
PSTATMODEL	IQUANT	4	Pstat Model
PSTATSECTION	LABEL	REF600-11020	Pstat Section
PSTATSERIALNO	LABEL	11020	Pstat Serial Number
CTRLMODE	IQUANT	1	Control Mode
IESTAB	IQUANT	0	I/E Stability
CASPEED	IQUANT	1	Control Amp Speed
CONVENTION	IQUANT	1	Current Convention
ICHRANGE	IQUANT	2	Ich Range
ICHRANGEMODE	TOGGLE	F	Ich Auto Range
ICHOFFSETENABLE	TOGGLE	T	Ich Offset Enable
ICHOFFSET	QUANT	0	Ich Offset (V)
ICHFILTER	IQUANT	3	Ich Filter
VCHRANGE	IQUANT	2	Vch Range
VCHRANGEMODE	TOGGLE	F	Vch Auto Range
VCHOFFSETENABLE	TOGGLE	T	Vch Offset Enable
VCHOFFSET	QUANT	0	Vch Offset (V)
VCHFILTER	IQUANT	3	Vch Filter
ACHRANGE	IQUANT	2	Ach Range
ACHOFFSETENABLE	TOGGLE	F	Ach Offset Enable
ACHOFFSET	QUANT	0	Ach Offset (V)
ACHFILTER	IQUANT	3	Ach Filter
IERANGELOWERLIMIT	IQUANT	1	I/E Range Lower Limit
IERANGEMODE	TOGGLE	F	I/E AutoRange
IERANGE	IQUANT	4	I/E Range
POSFEEDENABLE	TOGGLE	F	Positive Feedback IR Comp
POSFEEDRESISTANCE	QUANT	0	Positive Feedback Resistance (ohm)
ACHSELECT	IQUANT	0	Ach Select
CABLEID	IQUANT	14	Cable ID
DCCALDATE	LABEL	8/19/2019	DC Calibration Date
ACCALDATE	LABEL	8/19/2019	AC Calibration Date
THERMOSELECT	IQUANT	1	Thermo Select
FRAMEWORKVERSION	QUANT	6.33	Framework Version
INSTRUMENTVERSION	LABEL	3.50	Instrument Version
ZCURVE	TABLE
	Pt	Time	Freq	Zreal	Zimag	Zsig	Zmod	Zphz	Idc	Vdc	IERange
	#	s	Hz	ohm	ohm	V	ohm	°	A	V	#
	0	2	1000078	2506.965	-1529.89	1	2936.909	-31.39387	5.119582E-008	0.0055272	8
	1	3	794390.6	2796.634	-1408.652	1	3131.367	-26.73419	1.46023E-006	0.0048114	8
	2	4	630984.4	3031.294	-1273.131	1	3287.797	-22.78221	1.827028E-007	0.0050688	8
	3	6	501234.4	3218.075	-1106.426	1	3402.967	-18.9738	-2.534772E-006	0.0055643	8
	4	7	398109.4	3363.767	-958.5	1	3497.664	-15.90482	2.469549E-006	0.0043924	8
	5	8	316265.6	3470.665	-827.0679	1	3567.85	-13.40373	1.952929E-006	0.00439	8
	6	10	251203.1	3554.715	-715.6772	1	3626.044	-11.38329	-8.013804E-007	0.0051194	8
	7	11	199546.9	3615.528	-625.9167	1	3669.307	-9.82164	2.394509E-007	0.0046439	8
	8	12	158578.1	3662.977	-549.7682	1	3704.004	-8.535686	-2.202814E-006	0.0052916	8
	9	14	125953.1	3725.776	-461.3805	1	3754.235	-7.05927	1.039057E-006	0.0028903	7
	10	15	100078.1	3748.162	-416.5492	1	3771.238	-6.341502	-3.663233E-008	0.0048411	7
	11	16	79453.13	3778.985	-400.9898	1	3800.2	-6.057015	-2.981265E-008	0.0048002	7
	12	18	63140.62	3812.083	-395.1711	1	3832.51	-5.9183	2.033874E-009	0.0047301	7
	13	19	50203.12	3845.968	-399.0225	1	3866.612	-5.923294	-9.849008E-009	0.0048065	7
	14	21	39890.62	3881.582	-410.6065	1	3903.239	-6.038479	3.608694E-008	0.0047426	7
	15	22	31640.63	3919.133	-433.9304	1	3943.083	-6.318112	-8.790688E-010	0.0048118	7
	16	23	25171.88	3960.236	-465.7812	1	3987.533	-6.707997	6.187554E-009	0.0048676	7
	17	25	20015.62	4009.574	-505.7252	1	4041.342	-7.188722	-2.809057E-008	0.00486	7
	18	26	15890.62	4054.508	-560.5266	1	4093.07	-7.871121	-1.277441E-008	0.0048126	7
	19	27	12609.37	4110.298	-624.5836	1	4157.482	-8.640326	-2.419472E-008	0.0048293	7
	20	29	10078.13	4167.631	-699.265	1	4225.887	-9.52464	5.945419E-008	0.0046842	7
	21	30	8015.625	4224.292	-795.9102	1	4298.618	-10.67016	-3.508528E-008	0.004818	7
	22	32	6328.125	4303.655	-903.8717	1	4397.548	-11.86111	3.709174E-008	0.0047378	7
	23	33	5015.625	4380.166	-1037.417	1	4501.343	-13.32465	7.481442E-009	0.0047337	7
	24	34	3984.375	4454.54	-1189.271	1	4610.563	-14.94815	-2.421032E-008	0.0048496	7
	25	36	3170.956	4550.846	-1389.438	1	4758.229	-16.97817	-3.606664E-008	0.0048182	7
	26	37	2527.573	4646.123	-1621.318	1	4920.887	-19.23702	-2.939541E-008	0.0047852	7
	27	38	1976.103	4759.874	-1930.542	1	5136.477	-22.07682	4.260727E-009	0.0047388	7
	28	40	1577.524	4906.431	-2321.253	1	5427.825	-25.31903	1.005681E-008	0.0047414	7
	29	41	1265.625	5008.91	-2690.543	1	5685.789	-28.24253	-2.880626E-008	0.0048369	7
	30	43	998.264	5163.406	-3229.052	1	6089.954	-32.02072	5.796871E-009	0.0048591	7
	31	44	796.875	5334.142	-3853.312	1	6580.355	-35.84384	8.989783E-009	0.0047192	7
	32	45	627.7902	5532.189	-4665.256	1	7236.693	-40.1407	-2.924887E-008	0.004791	7
	33	47	505.5147	5742.286	-5574.801	1	8003.266	-44.15213	1.034467E-008	0.0047246	7
	34	48	397.9953	5996.434	-6809.538	1	9073.425	-48.63307	4.784177E-009	0.0048015	7
	35	49	315.5048	6292.426	-8295.123	1	10411.71	-52.81716	3.641786E-010	0.0047409	6
	36	51	252.4038	6626.534	-10055.17	1	12042.32	-56.61442	4.265119E-010	0.0047365	6
	37	52	198.6229	7065.809	-12402.49	1	14274.02	-60.32946	1.392121E-010	0.0047372	6
	38	53	158.3615	7583.221	-15149.8	1	16941.71	-63.40978	2.387691E-010	0.0047337	6
	39	55	125.558	8264.747	-18612.02	1	20364.51	-66.05618	1.088095E-009	0.0047376	6
	40	56	100.4464	9094.432	-22714.2	1	24467.19	-68.17956	1.692503E-009	0.0047317	6
	41	57	79.00281	10327.78	-28094.07	1	29932.26	-69.81585	1.457297E-009	0.0047325	6
	42	59	63.3446	12020.72	-34273.83	1	36320.7	-70.67291	5.363961E-010	0.0047333	6
	43	60	49.86702	13639.83	-42440.25	1	44578.24	-72.18317	5.399147E-011	0.004731	6
	44	62	39.72458	16266.71	-51487.64	1	53996.14	-72.46689	5.991795E-010	0.0047374	6
	45	63	31.6723	19491.82	-62472.7	1	65442.87	-72.6718	9.243027E-010	0.004732	6
	46	64	24.93351	24223.09	-76577.64	1	80317.45	-72.44675	7.968153E-010	0.0047285	6
	47	66	19.86229	29992.49	-92600.93	1	97336.9	-72.0534	9.54514E-010	0.0047286	6
	48	67	15.83615	37150.3	-110238.5	1	116330	-71.37621	-3.100678E-010	0.0047383	5
	49	68	12.40079	48667.78	-135216.1	1	143707.9	-70.20488	1.946887E-009	0.0047351	5
	50	70	9.93114	59263.53	-160508	1	171099.4	-69.73461	-1.098311E-010	0.004743	5
	51	72	7.944915	73804.09	-190108.9	1	203932.4	-68.78278	8.362975E-010	0.0047344	5
	52	73	6.317385	92327.16	-225712	1	243865.2	-67.75306	1.755751E-010	0.0047494	5
	53	75	5.008013	115497	-266814	1	290739.2	-66.59344	3.830406E-010	0.0047293	5
	54	78	3.945707	144562.3	-314708.9	1	346323.4	-65.3282	4.526933E-010	0.0047428	5
	55	80	3.158693	176703.5	-366235.1	1	406635.3	-64.24332	-1.848021E-011	0.004722	5
	56	84	2.504006	218066.9	-426655.3	1	479153.3	-62.92806	-1.576297E-010	0.0047442	5
	57	87	1.998082	262497.3	-492840.1	1	558387.2	-61.95927	5.253709E-010	0.004761	5
	58	90	1.584686	320366.8	-569252.5	1	653210	-60.62984	2.324653E-010	0.004695	5
	59	93	1.266892	380923	-653230.8	1	756183.1	-59.75196	3.032614E-010	0.0047463	5
	60	98	0.999041	459268.1	-754420.8	1	883220.3	-58.66824	-1.640086E-010	0.0047069	5
