EXPLAIN
TAG	EISPOT
TITLE	LABEL	Potentiostatic EIS	Test &Identifier
DATE	LABEL	10/10/2019	Date
TIME	LABEL	9:30:14	Time
NOTES	NOTES	1	&Notes...
	
PSTAT	PSTAT	REF600-11020	Potentiostat
VDC	POTEN	0.00000E+000	T	DC &Voltage (V)
FREQINIT	QUANT	1.00000E+006	Initial Fre&q. (Hz)
FREQFINAL	QUANT	1.00000E+000	Final Fre&q. (Hz)
PTSPERDEC	QUANT	1.00000E+001	Points/&decade
VAC	QUANT	2.50000E+001	AC &Voltage (mV rms)
AREA	QUANT	1.00000E-002	&Area (cm^2)
CONDIT	TWOPARAM	T	5.00000E+000	0.00000E+000	Conditionin&g	Time(s)	E(V)
DELAY	TWOPARAM	T	5.00000E+000	0.00000E+000	Init. De&lay	Time(s)	Stab.(mV/s)
SPEED	SELECTOR	1	&Optimize for:
ZGUESS	QUANT	1.00000E+004	E&stimated Z (ohms)
OCVCURVE	TABLE	19
	Pt	T	Vf	Vm	Ach	Over
	#	s	V vs. Ref.	V	V	bits
	0	0.258333	4.72561E-003	4.72561E-003	5.66032E-004	...........
	1	0.516667	4.72292E-003	4.58479E-003	5.63566E-004	...........
	2	0.775	4.70658E-003	4.46065E-003	5.66466E-004	...........
	3	1.03333	4.66089E-003	4.33880E-003	5.74699E-004	...........
	4	1.29167	4.58096E-003	4.26813E-003	5.71966E-004	...........
	5	1.55	4.47946E-003	4.18151E-003	5.69899E-004	...........
	6	1.80833	4.37493E-003	4.09868E-003	5.68532E-004	...........
	7	2.06667	4.27834E-003	4.04045E-003	5.63099E-004	...........
	8	2.325	4.19225E-003	3.98515E-003	5.67332E-004	...........
	9	2.58333	4.11650E-003	3.93146E-003	5.63266E-004	...........
	10	2.84167	4.05024E-003	3.88565E-003	5.66332E-004	...........
	11	3.1	3.99172E-003	3.83973E-003	5.68299E-004	...........
	12	3.35833	3.93889E-003	3.79310E-003	5.63032E-004	...........
	13	3.61667	3.89011E-003	3.76255E-003	5.61132E-004	...........
	14	3.875	3.84454E-003	3.71279E-003	5.67366E-004	...........
	15	4.13333	3.80175E-003	3.68752E-003	5.67532E-004	...........
	16	4.39167	3.76123E-003	3.63822E-003	5.67466E-004	...........
	17	4.65	3.72195E-003	3.59331E-003	5.68966E-004	...........
	18	4.90833	3.68263E-003	3.57170E-003	5.65599E-004	...........
EOC	QUANT	0.0036826	Open Circuit (V)
PSTATMODEL	IQUANT	4	Pstat Model
PSTATSECTION	LABEL	REF600-11020	Pstat Section
PSTATSERIALNO	LABEL	11020	Pstat Serial Number
CTRLMODE	IQUANT	1	Control Mode
IESTAB	IQUANT	0	I/E Stability
CASPEED	IQUANT	1	Control Amp Speed
CONVENTION	IQUANT	1	Current Convention
ICHRANGE	IQUANT	2	Ich Range
ICHRANGEMODE	TOGGLE	F	Ich Auto Range
ICHOFFSETENABLE	TOGGLE	T	Ich Offset Enable
ICHOFFSET	QUANT	0	Ich Offset (V)
ICHFILTER	IQUANT	3	Ich Filter
VCHRANGE	IQUANT	2	Vch Range
VCHRANGEMODE	TOGGLE	F	Vch Auto Range
VCHOFFSETENABLE	TOGGLE	T	Vch Offset Enable
VCHOFFSET	QUANT	0	Vch Offset (V)
VCHFILTER	IQUANT	3	Vch Filter
ACHRANGE	IQUANT	2	Ach Range
ACHOFFSETENABLE	TOGGLE	F	Ach Offset Enable
ACHOFFSET	QUANT	0	Ach Offset (V)
ACHFILTER	IQUANT	3	Ach Filter
IERANGELOWERLIMIT	IQUANT	1	I/E Range Lower Limit
IERANGEMODE	TOGGLE	F	I/E AutoRange
IERANGE	IQUANT	5	I/E Range
POSFEEDENABLE	TOGGLE	F	Positive Feedback IR Comp
POSFEEDRESISTANCE	QUANT	0	Positive Feedback Resistance (ohm)
ACHSELECT	IQUANT	0	Ach Select
CABLEID	IQUANT	14	Cable ID
DCCALDATE	LABEL	8/19/2019	DC Calibration Date
ACCALDATE	LABEL	8/19/2019	AC Calibration Date
THERMOSELECT	IQUANT	1	Thermo Select
FRAMEWORKVERSION	QUANT	6.33	Framework Version
INSTRUMENTVERSION	LABEL	3.50	Instrument Version
ZCURVE	TABLE
	Pt	Time	Freq	Zreal	Zimag	Zsig	Zmod	Zphz	Idc	Vdc	IERange
	#	s	Hz	ohm	ohm	V	ohm	°	A	V	#
	0	1	1000078	2550.026	-1823.096	1	3134.694	-35.5622	4.65409E-006	0.0055643	8
	1	3	794390.6	2931.634	-1735.938	1	3407.045	-30.63148	-5.801011E-006	0.0065794	8
	2	4	630984.4	3255.276	-1597.062	1	3625.938	-26.13291	-3.994103E-006	0.0067876	8
	3	6	501234.4	3562.662	-1435.891	1	3841.138	-21.95135	-3.516397E-007	0.0056539	8
	4	7	398109.4	3750.828	-1255.325	1	3955.32	-18.50434	1.113642E-006	0.0053809	8
	5	9	316265.6	3905.256	-1097.89	1	4056.647	-15.70234	4.25326E-006	0.004541	8
	6	10	251203.1	4062.368	-945.9254	1	4171.044	-13.10779	4.557397E-006	0.0045318	8
	7	12	199546.9	4145.559	-797.3711	1	4221.547	-10.8875	-3.092373E-007	0.005297	8
	8	13	158578.1	4209.679	-694.1929	1	4266.532	-9.364031	-4.579178E-006	0.0063976	8
	9	14	125953.1	4270.54	-554.1743	1	4306.346	-7.393773	-1.538234E-006	0.0085751	7
	10	16	100078.1	4309.845	-483.9711	1	4336.934	-6.407149	-7.247078E-009	0.0052601	7
	11	17	79453.13	4343.756	-443.3664	1	4366.325	-5.827987	4.042347E-008	0.0052549	7
	12	19	63140.62	4375.905	-413.3618	1	4395.385	-5.396327	-8.315899E-008	0.005422	7
	13	20	50203.12	4406.714	-397.1645	1	4424.576	-5.14999	-4.766666E-008	0.0053913	7
	14	21	39890.62	4434.815	-391.9966	1	4452.106	-5.051288	-4.053913E-008	0.0053356	7
	15	23	31640.63	4466.986	-397.1828	1	4484.609	-5.081101	-3.920614E-008	0.005312	7
	16	24	25171.88	4498.977	-411.7276	1	4517.777	-5.228906	-1.721566E-008	0.0053482	7
	17	25	20015.62	4536.55	-437.9947	1	4557.645	-5.514698	-3.6412E-008	0.0053313	7
	18	27	15890.62	4568.861	-474.5603	1	4593.441	-5.929956	-2.170843E-008	0.0052733	7
	19	28	12609.37	4608.617	-523.9667	1	4638.307	-6.486268	-7.889905E-008	0.0054174	7
	20	29	10078.13	4649.092	-586.3561	1	4685.923	-7.188344	-1.683434E-008	0.0053404	7
	21	31	8015.625	4694.524	-668.9131	1	4741.94	-8.109372	-9.975591E-009	0.0052407	7
	22	32	6328.125	4739.063	-766.3395	1	4800.625	-9.185611	-5.56662E-008	0.0054557	7
	23	33	5015.625	4792.021	-889.3524	1	4873.85	-10.51392	9.320567E-008	0.0052363	7
	24	35	3984.375	4857.048	-1037.335	1	4966.586	-12.05571	-1.069697E-009	0.0053296	7
	25	36	3170.956	4911.722	-1226.376	1	5062.51	-14.01918	-4.855115E-008	0.0053951	7
	26	38	2527.573	4984.911	-1453.96	1	5192.624	-16.2605	-4.913953E-009	0.0053341	7
	27	39	1976.103	5070.038	-1756.685	1	5365.746	-19.11036	4.722908E-008	0.0051424	7
	28	40	1577.524	5178.432	-2091.123	1	5584.707	-21.98954	-4.310198E-008	0.0053197	7
	29	42	1265.625	5272.152	-2503.931	1	5836.545	-25.4047	4.712282E-008	0.0051404	7
	30	43	998.264	5405.419	-3038.616	1	6200.947	-29.3422	-1.541262E-008	0.0054419	7
	31	44	796.875	5562.75	-3655.68	1	6656.439	-33.31177	-3.936227E-008	0.0053055	7
	32	46	627.7902	5748.693	-4460.72	1	7276.365	-37.80981	-5.499926E-008	0.0054667	7
	33	47	505.5147	5945.829	-5340.982	1	7992.433	-41.93252	-1.495348E-008	0.0054343	7
	34	48	397.9953	6206.031	-6533.574	1	9011.238	-46.47278	5.491402E-009	0.0053008	7
	35	50	315.5048	6503.061	-7964.082	1	10281.85	-50.76669	1.47275E-009	0.0052349	6
	36	51	252.4038	6840.822	-9653.15	1	11831.32	-54.67624	3.503246E-010	0.0052329	6
	37	52	198.6229	7276.156	-11889.59	1	13939.32	-58.53432	1.247553E-009	0.0052352	6
	38	54	158.3615	7786.546	-14500.28	1	16458.68	-61.76451	1.970242E-010	0.0052383	6
	39	55	125.558	8440.148	-17803.58	1	19702.88	-64.63577	7.533346E-010	0.005239	6
	40	56	100.4464	9238.098	-21713.6	1	23597.09	-66.95257	1.530875E-009	0.0052369	6
	41	58	79.00281	10406.01	-26835.54	1	28782.48	-68.80521	1.61174E-009	0.0052339	6
	42	59	63.3446	11985.8	-32446.24	1	34589.28	-69.72552	5.367063E-010	0.0052295	6
	43	61	49.86702	13570.06	-40508.35	1	42720.88	-71.47945	9.720772E-010	0.005227	6
	44	62	39.72458	15889.17	-49150.3	1	51654.79	-72.08517	1.086739E-009	0.0052323	6
	45	63	31.6723	19141.24	-59712.95	1	62705.85	-72.22652	9.77993E-010	0.0052336	6
	46	65	24.93351	23313.33	-73284.13	1	76903.02	-72.35297	1.048253E-009	0.0052321	6
	47	66	19.86229	28570.38	-88694.81	1	93182.81	-72.14521	7.719126E-010	0.0052367	6
	48	68	15.83615	36454.75	-106261.9	1	112341.2	-71.0647	-6.139458E-010	0.0052334	5
	49	69	12.40079	45728.81	-131223.8	1	138963.4	-70.78761	1.612995E-009	0.0052329	5
	50	71	9.93114	56901.52	-155875	1	165936.2	-69.9456	4.533402E-010	0.005236	5
	51	72	7.944915	72092.27	-184761.7	1	198328.5	-68.68475	-1.341241E-010	0.0052314	5
	52	74	6.317385	91301.48	-219384	1	237624.3	-67.40428	2.763159E-010	0.0052304	5
	53	76	5.008013	116355.5	-259037.8	1	283970.4	-65.81116	1.793389E-011	0.005228	5
	54	78	3.945707	147964.3	-304187.6	1	338265.4	-64.06058	2.207639E-010	0.0052322	5
	55	81	3.158693	183813	-350660.1	1	395916.3	-62.33686	-2.102314E-011	0.0052169	5
	56	84	2.504006	227638.2	-403345.3	1	463148.6	-60.56069	5.636994E-010	0.0052356	5
	57	87	1.998082	277300.4	-458464.3	1	535803.2	-58.83251	3.961313E-010	0.0052642	5
	58	90	1.584686	332714.2	-517393.7	1	615138.2	-57.25663	2.523617E-010	0.0052076	5
	59	94	1.266892	393396.9	-582409.3	1	702824.1	-55.96236	2.254991E-010	0.0052684	5
	60	98	0.999041	462172.4	-657864.3	1	803983	-54.91063	-5.525003E-011	0.0051937	5
