EXPLAIN
TAG	EISPOT
TITLE	LABEL	Potentiostatic IDE	Test &Identifier
DATE	LABEL	9/14/2019	Date
TIME	LABEL	9:43:51	Time
NOTES	NOTES	1	&Notes...
	
PSTAT	PSTAT	REF600-11020	Potentiostat
VDC	POTEN	0.00000E+000	T	DC &Voltage (V)
FREQINIT	QUANT	1.00000E+006	Initial Fre&q. (Hz)
FREQFINAL	QUANT	1.00000E+000	Final Fre&q. (Hz)
PTSPERDEC	QUANT	1.00000E+001	Points/&decade
VAC	QUANT	2.50000E+001	AC &Voltage (mV rms)
AREA	QUANT	1.00000E-002	&Area (cm^2)
CONDIT	TWOPARAM	T	5.00000E+000	0.00000E+000	Conditionin&g	Time(s)	E(V)
DELAY	TWOPARAM	T	5.00000E+000	0.00000E+000	Init. De&lay	Time(s)	Stab.(mV/s)
SPEED	SELECTOR	1	&Optimize for:
ZGUESS	QUANT	1.00000E+007	E&stimated Z (ohms)
OCVCURVE	TABLE	19
	Pt	T	Vf	Vm	Ach	Over
	#	s	V vs. Ref.	V	V	bits
	0	0.258333	-3.69774E-003	-3.69774E-003	5.18708E-004	...........
	1	0.516667	-3.71159E-003	-4.42291E-003	5.27675E-004	...........
	2	0.775	-3.79622E-003	-5.08726E-003	5.35075E-004	...........
	3	1.03333	-4.03373E-003	-5.70239E-003	5.26341E-004	...........
	4	1.29167	-4.45372E-003	-6.27908E-003	5.25608E-004	...........
	5	1.55	-5.00354E-003	-6.81851E-003	5.27775E-004	...........
	6	1.80833	-5.60181E-003	-7.33082E-003	5.30841E-004	...........
	7	2.06667	-6.19111E-003	-7.80727E-003	5.29341E-004	...........
	8	2.325	-6.74731E-003	-8.26717E-003	5.25841E-004	...........
	9	2.58333	-7.26694E-003	-8.69893E-003	5.31175E-004	...........
	10	2.84167	-7.75429E-003	-9.11360E-003	5.30708E-004	...........
	11	3.1	-8.21451E-003	-9.50828E-003	5.26208E-004	...........
	12	3.35833	-8.65154E-003	-9.89166E-003	5.22408E-004	...........
	13	3.61667	-9.06832E-003	-1.02535E-002	5.29075E-004	...........
	14	3.875	-9.46705E-003	-1.06070E-002	5.26941E-004	...........
	15	4.13333	-9.84933E-003	-1.09457E-002	5.21175E-004	...........
	16	4.39167	-1.02165E-002	-1.12721E-002	5.27108E-004	...........
	17	4.65	-1.05698E-002	-1.15841E-002	5.34941E-004	...........
	18	4.90833	-1.09098E-002	-1.18886E-002	5.31308E-004	...........
EOC	QUANT	-0.0109098	Open Circuit (V)
PSTATMODEL	IQUANT	4	Pstat Model
PSTATSECTION	LABEL	REF600-11020	Pstat Section
PSTATSERIALNO	LABEL	11020	Pstat Serial Number
CTRLMODE	IQUANT	1	Control Mode
IESTAB	IQUANT	0	I/E Stability
CASPEED	IQUANT	1	Control Amp Speed
CONVENTION	IQUANT	1	Current Convention
ICHRANGE	IQUANT	2	Ich Range
ICHRANGEMODE	TOGGLE	F	Ich Auto Range
ICHOFFSETENABLE	TOGGLE	T	Ich Offset Enable
ICHOFFSET	QUANT	0	Ich Offset (V)
ICHFILTER	IQUANT	3	Ich Filter
VCHRANGE	IQUANT	2	Vch Range
VCHRANGEMODE	TOGGLE	F	Vch Auto Range
VCHOFFSETENABLE	TOGGLE	T	Vch Offset Enable
VCHOFFSET	QUANT	0	Vch Offset (V)
VCHFILTER	IQUANT	3	Vch Filter
ACHRANGE	IQUANT	2	Ach Range
ACHOFFSETENABLE	TOGGLE	F	Ach Offset Enable
ACHOFFSET	QUANT	0	Ach Offset (V)
ACHFILTER	IQUANT	0	Ach Filter
IERANGELOWERLIMIT	IQUANT	1	I/E Range Lower Limit
IERANGEMODE	TOGGLE	F	I/E AutoRange
IERANGE	IQUANT	3	I/E Range
POSFEEDENABLE	TOGGLE	F	Positive Feedback IR Comp
POSFEEDRESISTANCE	QUANT	0	Positive Feedback Resistance (ohm)
ACHSELECT	IQUANT	0	Ach Select
CABLEID	IQUANT	14	Cable ID
DCCALDATE	LABEL	8/19/2019	DC Calibration Date
ACCALDATE	LABEL	8/19/2019	AC Calibration Date
THERMOSELECT	IQUANT	1	Thermo Select
FRAMEWORKVERSION	QUANT	6.33	Framework Version
INSTRUMENTVERSION	LABEL	3.50	Instrument Version
ZCURVE	TABLE
	Pt	Time	Freq	Zreal	Zimag	Zsig	Zmod	Zphz	Idc	Vdc	IERange
	#	s	Hz	ohm	ohm	V	ohm	°	A	V	#
	0	2	1000078	2366.252	-2032.211	1	3119.139	-40.65701	8.540389E-006	-0.0103484	8
	1	3	794390.6	2772.034	-1991.163	1	3413.049	-35.68983	-1.471349E-007	-0.0096887	8
	2	5	630984.4	3175.378	-1884.321	1	3692.383	-30.68558	-2.238066E-006	-0.0087783	8
	3	6	501234.4	3531.69	-1731.612	1	3933.359	-26.11904	6.265247E-007	-0.0091847	8
	4	8	398109.4	3808.444	-1523.236	1	4101.768	-21.79957	-8.581285E-007	-0.0090386	8
	5	9	316265.6	4021.349	-1352.621	1	4242.739	-18.59088	-3.960484E-006	-0.0086264	8
	6	10	251203.1	4185.019	-1184.947	1	4349.538	-15.80896	4.138396E-006	-0.0101228	8
	7	12	199546.9	4303.815	-1015.618	1	4422.025	-13.27779	-1.493618E-006	-0.0091485	8
	8	13	158578.1	4422.031	-895.5203	1	4511.797	-11.44833	3.03604E-006	-0.0099376	8
	9	15	125953.1	4508.056	-707.4014	1	4563.221	-8.918094	-3.418486E-007	-0.0091292	7
	10	16	100078.1	4561.037	-631.2034	1	4604.506	-7.879137	1.889553E-008	-0.0093511	7
	11	17	79453.13	4605.529	-577.6734	1	4641.616	-7.149297	-3.961244E-008	-0.0093444	7
	12	19	63140.62	4650.349	-540.8806	1	4681.698	-6.634246	-3.352256E-008	-0.0094416	7
	13	20	50203.12	4691.938	-519.7542	1	4720.638	-6.321226	-3.282523E-009	-0.0094636	7
	14	21	39890.62	4743.979	-509.6418	1	4771.276	-6.131722	-8.821633E-010	-0.0094633	7
	15	23	31640.63	4774.344	-520.4501	1	4802.627	-6.221235	-3.112157E-009	-0.0093966	7
	16	24	25171.88	4818.309	-541.045	1	4848.591	-6.40687	-2.274608E-008	-0.0094559	7
	17	25	20015.62	4866.547	-572.4431	1	4900.099	-6.708771	4.753224E-008	-0.0094974	7
	18	27	15890.62	4918.978	-610.2508	1	4956.687	-7.072009	-6.834915E-008	-0.0092327	7
	19	28	12609.37	4973.279	-679.6927	1	5019.511	-7.782338	-6.004958E-008	-0.0093391	7
	20	29	10078.13	5029.658	-754.1439	1	5085.881	-8.52737	1.894711E-008	-0.0093699	7
	21	31	8015.625	5093.692	-847.2365	1	5163.672	-9.443582	1.927682E-008	-0.0093693	7
	22	32	6328.125	5165.291	-965.819	1	5254.811	-10.59101	-5.920729E-008	-0.0093406	7
	23	33	5015.625	5241.579	-1109.426	1	5357.703	-11.95077	4.605236E-008	-0.0095773	7
	24	35	3984.375	5322.451	-1282.773	1	5474.851	-13.55053	4.881524E-008	-0.0095041	7
	25	36	3170.956	5413.211	-1493.09	1	5615.352	-15.4201	1.155947E-007	-0.0096165	7
	26	37	2527.573	5509.255	-1749.363	1	5780.326	-17.61629	1.16426E-007	-0.0096122	7
	27	39	1976.103	5628.266	-2089.981	1	6003.782	-20.37181	-2.931572E-008	-0.0094522	7
	28	40	1577.524	5752.767	-2475.829	1	6262.912	-23.28569	-1.42476E-008	-0.0094168	7
	29	41	1265.625	5878.109	-2931.101	1	6568.373	-26.50299	4.077553E-009	-0.0094679	7
	30	43	998.264	6049.22	-3528.278	1	7002.986	-30.25337	-6.927083E-008	-0.0093648	7
	31	44	796.875	6232.953	-4225.421	1	7530.198	-34.13399	6.293308E-008	-0.0095554	7
	32	45	627.7902	6455.239	-5128.837	1	8244.7	-38.46796	5.092606E-009	-0.0094667	7
	33	47	505.5147	6689.178	-6131.861	1	9074.404	-42.51098	9.935336E-008	-0.0095545	7
	34	48	397.9953	6996.883	-7477.284	1	10240.42	-46.90096	1.338956E-009	-0.0094995	6
	35	49	315.5048	7342.424	-9098.54	1	11691.65	-51.09684	1.781555E-009	-0.0094991	6
	36	51	252.4038	7730.144	-11003.99	1	13447.78	-54.9125	2.224236E-009	-0.0094986	6
	37	52	198.6229	8226.283	-13529.5	1	15834.11	-58.69933	1.64721E-009	-0.0094969	6
	38	53	158.3615	8793.057	-16474.17	1	18673.95	-61.90902	1.985863E-009	-0.0094947	6
	39	55	125.558	9506.16	-20194.71	1	22320.25	-64.79246	1.735571E-009	-0.0094925	6
	40	56	100.4464	10369.31	-24615.62	1	26710.51	-67.15678	2.222019E-009	-0.0094989	6
	41	57	79.00281	11542.92	-30493.37	1	32604.98	-69.26641	6.03282E-010	-0.0094995	6
	42	59	63.3446	12823	-36649.36	1	38827.88	-70.71591	1.038961E-009	-0.0095058	6
	43	60	49.86702	15013.22	-46080.29	1	48464.32	-71.95409	6.626633E-010	-0.0095083	6
	44	62	39.72458	17363.02	-55971.98	1	58603.22	-72.76564	1.707133E-009	-0.0095049	6
	45	63	31.6723	20548.96	-68273.25	1	71298.64	-73.24919	1.184604E-009	-0.0095029	6
	46	64	24.93351	25110.24	-84216.75	1	87880.52	-73.39742	9.777754E-010	-0.0095027	6
	47	66	19.86229	31070.78	-102430.8	1	107039.5	-73.12565	9.80373E-010	-0.0095014	5
	48	67	15.83615	38671.55	-125635.3	1	131452.3	-72.89121	-9.349783E-010	-0.0094984	5
	49	68	12.40079	50938.4	-152154.2	1	160454.4	-71.49041	2.071343E-009	-0.0095065	5
	50	70	9.93114	62607.36	-182527.7	1	192966.5	-71.06793	8.966371E-010	-0.009503	5
	51	71	7.944915	79267.76	-218446.4	1	232383.8	-70.05566	9.09894E-010	-0.0094962	5
	52	73	6.317385	102090.6	-258608.4	1	278030.2	-68.45744	4.093623E-010	-0.0095033	5
	53	75	5.008013	131668.7	-306602.2	1	333678.8	-66.75916	3.003839E-010	-0.0094979	5
	54	78	3.945707	169439	-361402.2	1	399150.5	-64.88104	5.920764E-010	-0.0094895	5
	55	80	3.158693	212775.9	-418289.8	1	469297.3	-63.03845	2.649582E-010	-0.0095106	5
	56	84	2.504006	267425.4	-482284.9	1	551466.3	-60.99178	7.909777E-010	-0.0094949	5
	57	86	1.998082	330567.2	-548169.6	1	640128.5	-58.90842	4.693138E-010	-0.0094512	5
	58	89	1.584686	401675.1	-618976.8	1	737885.6	-57.01909	5.525804E-010	-0.0095037	5
	59	93	1.266892	482898.9	-692947.6	1	844611	-55.12827	3.819439E-010	-0.0094571	5
	60	97	0.999041	572885.9	-774564.5	1	963405	-53.51251	4.078951E-010	-0.0095332	5
