EXPLAIN
TAG	EISPOT
TITLE	LABEL	Potentiostatic EIS	Test &Identifier
DATE	LABEL	9/26/2019	Date
TIME	LABEL	10:13:36	Time
NOTES	NOTES	2	&Notes...
	
	
PSTAT	PSTAT	REF600-11020	Potentiostat
VDC	POTEN	0.00000E+000	T	DC &Voltage (V)
FREQINIT	QUANT	1.00000E+006	Initial Fre&q. (Hz)
FREQFINAL	QUANT	1.00000E+000	Final Fre&q. (Hz)
PTSPERDEC	QUANT	1.00000E+001	Points/&decade
VAC	QUANT	2.50000E+001	AC &Voltage (mV rms)
AREA	QUANT	1.00000E-002	&Area (cm^2)
CONDIT	TWOPARAM	T	5.00000E+000	0.00000E+000	Conditionin&g	Time(s)	E(V)
DELAY	TWOPARAM	T	5.00000E+000	0.00000E+000	Init. De&lay	Time(s)	Stab.(mV/s)
SPEED	SELECTOR	1	&Optimize for:
ZGUESS	QUANT	1.00000E+004	E&stimated Z (ohms)
OCVCURVE	TABLE	19
	Pt	T	Vf	Vm	Ach	Over
	#	s	V vs. Ref.	V	V	bits
	0	0.258333	6.50163E-002	6.50163E-002	5.64666E-004	...........
	1	0.516667	6.50882E-002	6.87821E-002	5.67832E-004	...........
	2	0.775	6.55414E-002	7.29461E-002	5.62599E-004	...........
	3	1.03333	6.68500E-002	7.63696E-002	5.61299E-004	...........
	4	1.29167	6.92149E-002	7.95605E-002	5.58666E-004	...........
	5	1.55	7.23417E-002	8.25309E-002	5.58832E-004	...........
	6	1.80833	7.57363E-002	8.54263E-002	5.58499E-004	...........
	7	2.06667	7.90537E-002	8.81018E-002	5.59532E-004	...........
	8	2.325	8.21659E-002	9.06008E-002	5.59832E-004	...........
	9	2.58333	8.50643E-002	9.30108E-002	5.62499E-004	...........
	10	2.84167	8.77743E-002	9.52954E-002	5.63332E-004	...........
	11	3.1	9.03253E-002	9.74692E-002	5.62766E-004	...........
	12	3.35833	9.27416E-002	9.95544E-002	5.62132E-004	...........
	13	3.61667	9.50403E-002	1.01565E-001	5.62466E-004	...........
	14	3.875	9.72306E-002	1.03295E-001	5.64066E-004	...........
	15	4.13333	9.93191E-002	1.05538E-001	5.60666E-004	...........
	16	4.39167	1.01327E-001	1.07187E-001	5.62999E-004	...........
	17	4.65	1.03281E-001	1.08837E-001	5.63866E-004	...........
	18	4.90833	1.05161E-001	1.09969E-001	5.61566E-004	...........
EOC	QUANT	0.1051609	Open Circuit (V)
PSTATMODEL	IQUANT	4	Pstat Model
PSTATSECTION	LABEL	REF600-11020	Pstat Section
PSTATSERIALNO	LABEL	11020	Pstat Serial Number
CTRLMODE	IQUANT	1	Control Mode
IESTAB	IQUANT	0	I/E Stability
CASPEED	IQUANT	1	Control Amp Speed
CONVENTION	IQUANT	1	Current Convention
ICHRANGE	IQUANT	2	Ich Range
ICHRANGEMODE	TOGGLE	F	Ich Auto Range
ICHOFFSETENABLE	TOGGLE	T	Ich Offset Enable
ICHOFFSET	QUANT	0	Ich Offset (V)
ICHFILTER	IQUANT	3	Ich Filter
VCHRANGE	IQUANT	2	Vch Range
VCHRANGEMODE	TOGGLE	F	Vch Auto Range
VCHOFFSETENABLE	TOGGLE	T	Vch Offset Enable
VCHOFFSET	QUANT	0	Vch Offset (V)
VCHFILTER	IQUANT	3	Vch Filter
ACHRANGE	IQUANT	2	Ach Range
ACHOFFSETENABLE	TOGGLE	F	Ach Offset Enable
ACHOFFSET	QUANT	0	Ach Offset (V)
ACHFILTER	IQUANT	3	Ach Filter
IERANGELOWERLIMIT	IQUANT	1	I/E Range Lower Limit
IERANGEMODE	TOGGLE	F	I/E AutoRange
IERANGE	IQUANT	7	I/E Range
POSFEEDENABLE	TOGGLE	F	Positive Feedback IR Comp
POSFEEDRESISTANCE	QUANT	0	Positive Feedback Resistance (ohm)
ACHSELECT	IQUANT	0	Ach Select
CABLEID	IQUANT	14	Cable ID
DCCALDATE	LABEL	8/19/2019	DC Calibration Date
ACCALDATE	LABEL	8/19/2019	AC Calibration Date
THERMOSELECT	IQUANT	1	Thermo Select
FRAMEWORKVERSION	QUANT	6.33	Framework Version
INSTRUMENTVERSION	LABEL	3.50	Instrument Version
ZCURVE	TABLE
	Pt	Time	Freq	Zreal	Zimag	Zsig	Zmod	Zphz	Idc	Vdc	IERange
	#	s	Hz	ohm	ohm	V	ohm	°	A	V	#
	0	1	1000078	1903.362	-2283.72	1	2972.905	-50.19056	1.242222E-006	0.1071118	8
	1	3	794390.6	2259.166	-2514.32	1	3380.183	-48.05968	-7.583271E-007	0.1070776	8
	2	4	630984.4	2687.872	-2742.121	1	3839.776	-45.5724	-3.369205E-006	0.1075148	8
	3	6	501234.4	3140.103	-2926.46	1	4292.367	-42.98308	3.84089E-006	0.1062089	8
	4	7	398109.4	3684.717	-3121.299	1	4829.042	-40.26771	-3.752411E-006	0.1075305	8
	5	9	316265.6	4269.98	-3232.214	1	5355.365	-37.12435	-4.189195E-008	0.1067488	8
	6	10	251203.1	4898.672	-3296.469	1	5904.549	-33.93784	4.989077E-006	0.1058919	8
	7	12	199546.9	5519.233	-3194.82	1	6377.21	-30.0645	-3.168069E-006	0.1074467	8
	8	14	158578.1	6144.805	-3129.898	1	6896.006	-26.99233	-4.239896E-006	0.107769	8
	9	16	125953.1	6748.228	-2882.964	1	7338.26	-23.13305	1.389202E-006	0.1042287	7
	10	17	100078.1	7204.883	-2660.487	1	7680.399	-20.26725	3.997183E-008	0.1066097	7
	11	19	79453.13	7620.47	-2438.788	1	8001.203	-17.74629	8.258122E-008	0.1065656	7
	12	21	63140.62	7964.546	-2209.115	1	8265.239	-15.50235	-6.305897E-009	0.1068791	7
	13	22	50203.12	8244.663	-1985.971	1	8480.48	-13.54337	-5.793254E-008	0.1069221	7
	14	24	39890.62	8485.872	-1781.013	1	8670.757	-11.85318	-4.709718E-009	0.1068772	7
	15	25	31640.63	8672.732	-1603.71	1	8819.761	-10.47646	-4.473979E-008	0.1067557	7
	16	27	25171.88	8833.172	-1461.711	1	8953.297	-9.39614	-5.318868E-008	0.106844	7
	17	29	20015.62	8973.565	-1351.374	1	9074.75	-8.5641	-2.74411E-008	0.1068148	7
	18	30	15890.62	9084.743	-1271.683	1	9173.316	-7.96849	-6.105913E-008	0.1067886	7
	19	32	12609.37	9239.564	-1111.219	1	9306.146	-6.857881	-1.151403E-008	0.1068294	6
	20	33	10078.13	9323.92	-1114.126	1	9390.248	-6.81403	2.555502E-009	0.1064701	6
	21	35	8015.625	9406.499	-1154.483	1	9477.08	-6.997063	-9.469231E-009	0.1067146	6
	22	37	6328.125	9484.461	-1233	1	9564.27	-7.40703	-1.34027E-008	0.1067668	6
	23	38	5015.625	9566.51	-1348.134	1	9661.04	-8.021429	-1.008767E-008	0.1067135	6
	24	40	3984.375	9651.03	-1508.006	1	9768.13	-8.880848	-3.064591E-009	0.1066619	6
	25	41	3170.956	9741.65	-1717.079	1	9891.82	-9.99637	-7.21989E-009	0.1066532	6
	26	43	2527.573	9839.4	-1984.426	1	10037.52	-11.40254	5.12942E-009	0.1064917	6
	27	44	1976.103	9957.24	-2350.15	1	10230.83	-13.28015	1.631608E-008	0.1064358	6
	28	46	1577.524	10073.91	-2772.627	1	10448.5	-15.38842	1.697154E-008	0.1063372	6
	29	48	1265.625	10215.99	-3276.57	1	10728.58	-17.78257	5.324207E-009	0.106492	6
	30	49	998.264	10402.54	-3947.604	1	11126.39	-20.78098	-9.371271E-009	0.1068833	6
	31	51	796.875	10609.85	-4717.027	1	11611.17	-23.96943	1.680861E-008	0.106433	6
	32	52	627.7902	10862.92	-5720.873	1	12277.27	-27.77319	-1.167262E-008	0.1067697	6
	33	53	505.5147	11130.56	-6831.238	1	13059.68	-31.53899	-7.385583E-009	0.1066574	6
	34	55	397.9953	11477.77	-8319.572	1	14175.84	-35.93618	-2.047874E-009	0.1066964	6
	35	56	315.5048	11880.86	-10107.58	1	15598.66	-40.38931	-5.883923E-010	0.1066908	6
	36	58	252.4038	12337.53	-12210.26	1	17358.14	-44.70296	-5.571843E-010	0.1066936	6
	37	59	198.6229	12942.61	-14990.66	1	19804.82	-49.19338	-1.340876E-009	0.1066877	6
	38	60	158.3615	13644.22	-18221.44	1	22763.69	-53.1741	-2.366713E-009	0.1066857	6
	39	62	125.558	14563.45	-22283.94	1	26620.82	-56.83377	-1.394365E-009	0.1066861	6
	40	63	100.4464	15702.48	-27051.76	1	31278.84	-59.86652	-3.065938E-009	0.1066875	6
	41	64	79.00281	17255.4	-33442.14	1	37631.45	-62.70727	-1.142514E-009	0.1066865	6
	42	66	63.3446	18754.59	-39764	1	43964.87	-64.74921	-1.236017E-009	0.1066904	6
	43	67	49.86702	22017.24	-49767.09	1	54419.86	-66.13513	-8.023676E-010	0.1066886	6
	44	69	39.72458	24797.79	-60149.28	1	65060.48	-67.59509	-1.869495E-009	0.1066909	6
	45	70	31.6723	28867.66	-72943.55	1	78448.09	-68.40865	-1.205552E-009	0.1066882	6
	46	72	24.93351	34158.19	-89211.22	1	95527.1	-69.0486	-1.546452E-009	0.106689	6
	47	73	19.86229	41021.65	-107439.4	1	115004.3	-69.10255	-9.47554E-010	0.1066975	5
	48	74	15.83615	48979.02	-130641.5	1	139521.1	-69.44839	1.970555E-010	0.1066939	5
	49	76	12.40079	60125.52	-156803.9	1	167936.1	-69.02097	-1.870444E-009	0.1066946	5
	50	77	9.93114	75753.38	-187765.7	1	202471	-68.02856	-1.285606E-009	0.1066869	5
	51	79	7.944915	94205.15	-222043.9	1	241201.4	-67.01025	-1.495832E-009	0.1066905	5
	52	81	6.317385	118373.5	-262111.5	1	287601.6	-65.69535	-1.018414E-009	0.1066946	5
	53	83	5.008013	148768.6	-308544.4	1	342537.2	-64.25838	-1.072346E-009	0.1067022	5
	54	85	3.945707	187860	-361727.2	1	407600.3	-62.55526	-1.230244E-009	0.1066922	5
	55	88	3.158693	232184.2	-416237	1	476615.9	-60.84647	-1.339313E-009	0.1067034	5
	56	91	2.504006	286673.5	-477589.9	1	557022.3	-59.0257	-1.071432E-009	0.1066901	5
	57	94	1.998082	346875.3	-541971.5	1	643471.5	-57.37974	-1.352312E-009	0.1067341	5
	58	97	1.584686	416936.2	-612738.6	1	741137.3	-55.76678	-1.099151E-009	0.1066936	5
	59	101	1.266892	512317.8	-675230.6	1	847588.3	-52.81131	-5.26399E-010	0.1067341	5
	60	105	0.999041	636723.9	-804843.7	1	1026251	-51.65195	8.713911E-010	0.1066532	5
