EXPLAIN
TAG	EISPOT
TITLE	LABEL	Potentiostatic EIS	Test &Identifier
DATE	LABEL	9/22/2019	Date
TIME	LABEL	9:16:40	Time
NOTES	NOTES	1	&Notes...
	
PSTAT	PSTAT	REF600-11020	Potentiostat
VDC	POTEN	0.00000E+000	T	DC &Voltage (V)
FREQINIT	QUANT	1.00000E+006	Initial Fre&q. (Hz)
FREQFINAL	QUANT	1.00000E+000	Final Fre&q. (Hz)
PTSPERDEC	QUANT	1.00000E+001	Points/&decade
VAC	QUANT	2.50000E+001	AC &Voltage (mV rms)
AREA	QUANT	1.00000E-002	&Area (cm^2)
CONDIT	TWOPARAM	T	5.00000E+000	0.00000E+000	Conditionin&g	Time(s)	E(V)
DELAY	TWOPARAM	T	5.00000E+000	0.00000E+000	Init. De&lay	Time(s)	Stab.(mV/s)
SPEED	SELECTOR	1	&Optimize for:
ZGUESS	QUANT	1.00000E+004	E&stimated Z (ohms)
OCVCURVE	TABLE	19
	Pt	T	Vf	Vm	Ach	Over
	#	s	V vs. Ref.	V	V	bits
	0	0.258333	-1.32587E-002	-1.32587E-002	5.80732E-004	...........
	1	0.516667	-1.32756E-002	-1.41447E-002	5.77299E-004	...........
	2	0.775	-1.33777E-002	-1.48846E-002	5.78132E-004	...........
	3	1.03333	-1.36603E-002	-1.56121E-002	5.79732E-004	...........
	4	1.29167	-1.41538E-002	-1.62452E-002	5.74799E-004	...........
	5	1.55	-1.47923E-002	-1.68560E-002	5.76466E-004	...........
	6	1.80833	-1.54788E-002	-1.74203E-002	5.77532E-004	...........
	7	2.06667	-1.61469E-002	-1.79424E-002	5.81865E-004	...........
	8	2.325	-1.67702E-002	-1.84401E-002	5.81665E-004	...........
	9	2.58333	-1.73460E-002	-1.88981E-002	5.82499E-004	...........
	10	2.84167	-1.78789E-002	-1.92873E-002	5.79866E-004	...........
	11	3.1	-1.83717E-002	-1.96859E-002	5.78865E-004	...........
	12	3.35833	-1.88234E-002	-1.99045E-002	5.82799E-004	...........
	13	3.61667	-1.92322E-002	-2.04052E-002	5.79399E-004	...........
	14	3.875	-1.96079E-002	-2.07491E-002	5.81365E-004	...........
	15	4.13333	-1.99711E-002	-2.10076E-002	5.82299E-004	...........
	16	4.39167	-2.03272E-002	-2.12375E-002	5.77066E-004	...........
	17	4.65	-2.06618E-002	-2.15869E-002	5.75465E-004	...........
	18	4.90833	-2.09685E-002	-2.18437E-002	5.76999E-004	...........
EOC	QUANT	-0.0209685	Open Circuit (V)
PSTATMODEL	IQUANT	4	Pstat Model
PSTATSECTION	LABEL	REF600-11020	Pstat Section
PSTATSERIALNO	LABEL	11020	Pstat Serial Number
CTRLMODE	IQUANT	1	Control Mode
IESTAB	IQUANT	0	I/E Stability
CASPEED	IQUANT	1	Control Amp Speed
CONVENTION	IQUANT	1	Current Convention
ICHRANGE	IQUANT	2	Ich Range
ICHRANGEMODE	TOGGLE	F	Ich Auto Range
ICHOFFSETENABLE	TOGGLE	T	Ich Offset Enable
ICHOFFSET	QUANT	0	Ich Offset (V)
ICHFILTER	IQUANT	3	Ich Filter
VCHRANGE	IQUANT	2	Vch Range
VCHRANGEMODE	TOGGLE	F	Vch Auto Range
VCHOFFSETENABLE	TOGGLE	T	Vch Offset Enable
VCHOFFSET	QUANT	0	Vch Offset (V)
VCHFILTER	IQUANT	3	Vch Filter
ACHRANGE	IQUANT	2	Ach Range
ACHOFFSETENABLE	TOGGLE	F	Ach Offset Enable
ACHOFFSET	QUANT	0	Ach Offset (V)
ACHFILTER	IQUANT	3	Ach Filter
IERANGELOWERLIMIT	IQUANT	1	I/E Range Lower Limit
IERANGEMODE	TOGGLE	F	I/E AutoRange
IERANGE	IQUANT	6	I/E Range
POSFEEDENABLE	TOGGLE	F	Positive Feedback IR Comp
POSFEEDRESISTANCE	QUANT	0	Positive Feedback Resistance (ohm)
ACHSELECT	IQUANT	0	Ach Select
CABLEID	IQUANT	14	Cable ID
DCCALDATE	LABEL	8/19/2019	DC Calibration Date
ACCALDATE	LABEL	8/19/2019	AC Calibration Date
THERMOSELECT	IQUANT	1	Thermo Select
FRAMEWORKVERSION	QUANT	6.33	Framework Version
INSTRUMENTVERSION	LABEL	3.50	Instrument Version
ZCURVE	TABLE
	Pt	Time	Freq	Zreal	Zimag	Zsig	Zmod	Zphz	Idc	Vdc	IERange
	#	s	Hz	ohm	ohm	V	ohm	°	A	V	#
	0	2	1000078	2152.498	-1947.546	1	2902.789	-42.13828	1.988064E-006	-0.0195989	8
	1	3	794390.6	2531.598	-2002.521	1	3227.859	-38.34437	2.32716E-006	-0.0198394	8
	2	4	630984.4	2910.555	-1981.57	1	3521.073	-34.2479	-6.395549E-007	-0.0193906	8
	3	6	501234.4	3288.458	-1938.243	1	3817.164	-30.51543	1.115856E-006	-0.0193598	8
	4	7	398109.4	3643.765	-1841.043	1	4082.458	-26.80557	-2.491655E-006	-0.018953	8
	5	9	316265.6	3940.277	-1709.457	1	4295.117	-23.45322	-4.340183E-007	-0.0191701	8
	6	10	251203.1	4211.531	-1587.363	1	4500.746	-20.65187	9.586684E-007	-0.019439	8
	7	12	199546.9	4453.34	-1455.753	1	4685.238	-18.10206	-4.409583E-006	-0.0184211	8
	8	13	158578.1	4617.835	-1305.542	1	4798.837	-15.78651	4.536332E-006	-0.0202988	8
	9	15	125953.1	4843.339	-1132.601	1	4974.004	-13.16194	-4.466902E-007	-0.0188977	7
	10	16	100078.1	4977.888	-1021.391	1	5081.595	-11.59533	1.352114E-007	-0.0196836	7
	11	18	79453.13	5098.218	-926.8032	1	5181.775	-10.30326	-7.753167E-008	-0.0193641	7
	12	19	63140.62	5201.889	-841.299	1	5269.481	-9.186871	-3.771636E-009	-0.0194553	7
	13	20	50203.12	5287.923	-769.5961	1	5343.633	-8.280601	-1.276036E-008	-0.0195396	7
	14	22	39890.62	5365.591	-711.7347	1	5412.59	-7.556057	-7.412726E-009	-0.019367	7
	15	23	31640.63	5432.682	-669.6702	1	5473.801	-7.027227	-1.893256E-009	-0.0194868	7
	16	24	25171.88	5493.883	-641.0175	1	5531.153	-6.655088	-7.287724E-009	-0.0193652	7
	17	26	20015.62	5549.071	-628.951	1	5584.601	-6.466506	-1.560447E-008	-0.0194436	7
	18	27	15890.62	5595.169	-631.0588	1	5630.644	-6.434989	-4.740724E-008	-0.0194654	7
	19	29	12609.37	5646.032	-653.0106	1	5683.669	-6.59742	-3.907574E-009	-0.0194576	7
	20	30	10078.13	5689.866	-691.825	1	5731.771	-6.932507	-3.065965E-008	-0.019493	7
	21	31	8015.625	5735.789	-751.1252	1	5784.761	-7.460665	-1.146953E-008	-0.0195451	7
	22	33	6328.125	5790.764	-835.5282	1	5850.731	-8.210336	7.279508E-008	-0.0196186	7
	23	34	5015.625	5844.601	-949.9839	1	5921.303	-9.232142	9.219458E-008	-0.0195548	7
	24	35	3984.375	5896.523	-1092.284	1	5996.838	-10.49462	-3.768362E-008	-0.0194845	7
	25	37	3170.956	5961.877	-1274.735	1	6096.633	-12.06894	-5.127497E-008	-0.0193378	7
	26	38	2527.573	6032.09	-1499.615	1	6215.702	-13.96106	8.565336E-008	-0.0196748	7
	27	40	1976.103	6120.004	-1803.457	1	6380.197	-16.41932	-1.816017E-008	-0.0195291	7
	28	41	1577.524	6215.795	-2150.585	1	6577.319	-19.08496	-1.394233E-010	-0.019487	7
	29	42	1265.625	6319.35	-2563.469	1	6819.499	-22.08012	-3.825258E-008	-0.0194935	7
	30	44	998.264	6460.561	-3098.83	1	7165.305	-25.62486	-3.090813E-008	-0.0194947	7
	31	45	796.875	6616.132	-3728.491	1	7594.396	-29.40324	-1.019851E-009	-0.019488	7
	32	46	627.7902	6809.287	-4541.896	1	8185.06	-33.70388	-4.60529E-008	-0.0194738	7
	33	48	505.5147	7021.295	-5447.5	1	8886.723	-37.80624	-4.70755E-009	-0.0194682	7
	34	49	397.9953	7318.607	-6670.366	1	9902.31	-42.34684	3.00687E-009	-0.0195424	6
	35	50	315.5048	7665.02	-8132.431	1	11175.37	-46.69476	2.667444E-009	-0.0195482	6
	36	52	252.4038	8080.957	-9848.47	1	12739.48	-50.63013	3.247983E-009	-0.0195489	6
	37	53	198.6229	8654.229	-12106.41	1	14881.56	-54.44104	3.203855E-009	-0.0195468	6
	38	54	158.3615	9351.963	-14712.43	1	17433.15	-57.55791	3.528251E-009	-0.0195479	6
	39	56	125.558	10284.7	-17956.36	1	20693.14	-60.19761	2.791439E-009	-0.0195449	6
	40	57	100.4464	11473.11	-21709.23	1	24554.49	-62.144	2.964315E-009	-0.0195497	6
	41	59	79.00281	13132.18	-26544.74	1	29615.5	-63.67753	2.366789E-009	-0.0195505	6
	42	60	63.3446	15276.6	-32034.9	1	35490.97	-64.50475	2.776682E-009	-0.0195541	6
	43	61	49.86702	17729.14	-38694.75	1	42562.97	-65.38372	3.121175E-009	-0.0195546	6
	44	63	39.72458	21290.59	-46407.03	1	51057.82	-65.35532	3.048516E-009	-0.0195417	6
	45	64	31.6723	25761.74	-55361.24	1	61061.73	-65.04561	2.845306E-009	-0.0195518	6
	46	66	24.93351	31536.11	-66150.34	1	73282.97	-64.51128	2.428523E-009	-0.0195518	6
	47	67	19.86229	38480.78	-77968.01	1	86947	-63.73155	3.231484E-009	-0.0195493	6
	48	68	15.83615	47250.13	-91361.16	1	102856.4	-62.65291	1.960463E-009	-0.0195475	6
	49	70	12.40079	58679.54	-107661.1	1	122614	-61.40787	1.882017E-009	-0.0195446	5
	50	71	9.93114	70862.8	-124007.6	1	142826.5	-60.25466	3.191882E-009	-0.0195461	5
	51	73	7.944915	85976.91	-142453.7	1	166388.4	-58.88722	2.153065E-009	-0.0195493	5
	52	74	6.317385	104000.3	-162873.5	1	193245.5	-57.44039	2.839269E-009	-0.0195548	5
	53	76	5.008013	125494.3	-185600.7	1	224045.6	-55.93531	2.552571E-009	-0.0195443	5
	54	79	3.945707	151193.1	-210861.4	1	259464.6	-54.3585	2.464677E-009	-0.0195473	5
	55	82	3.158693	178802.1	-236026.1	1	296105.6	-52.85418	2.949196E-009	-0.0195481	5
	56	85	2.504006	210982.3	-264280	1	338167.8	-51.39864	2.272325E-009	-0.0195442	5
	57	88	1.998082	245768.5	-292885.3	1	382340.1	-49.99902	2.826241E-009	-0.0195937	5
	58	91	1.584686	284357.7	-325397.4	1	432137.4	-48.8505	2.49864E-009	-0.0195421	5
	59	94	1.266892	327010	-359245.7	1	485791.1	-47.68939	2.637126E-009	-0.0195864	5
	60	99	0.999041	376036.9	-397425.7	1	547129.8	-46.58401	2.855365E-009	-0.0195094	5
