EXPLAIN
TAG	EISPOT
TITLE	LABEL	Potentiostatic EIS	Test &Identifier
DATE	LABEL	8/14/2018	Date
TIME	LABEL	5:40:27	Time
NOTES	NOTES	1	&Notes...
	
PSTAT	PSTAT	REF600-11020	Potentiostat
VDC	POTEN	0.00000E+000	T	DC &Voltage (V)
FREQINIT	QUANT	1.00000E+006	Initial Fre&q. (Hz)
FREQFINAL	QUANT	1.00000E+000	Final Fre&q. (Hz)
PTSPERDEC	QUANT	1.00000E+001	Points/&decade
VAC	QUANT	2.50000E+001	AC &Voltage (mV rms)
AREA	QUANT	1.00000E-002	&Area (cm^2)
CONDIT	TWOPARAM	T	5.00000E+000	0.00000E+000	Conditionin&g	Time(s)	E(V)
DELAY	TWOPARAM	T	5.00000E+000	0.00000E+000	Init. De&lay	Time(s)	Stab.(mV/s)
SPEED	SELECTOR	0	&Optimize for:
ZGUESS	QUANT	1.00000E+005	E&stimated Z (ohms)
OCVCURVE	TABLE	19
	Pt	T	Vf	Vm	Ach	Over
	#	s	V vs. Ref.	V	V	bits
	0	0.258333	3.00347E-002	3.00347E-002	5.68999E-004	...........
	1	0.516667	3.00735E-002	3.20674E-002	5.85665E-004	...........
	2	0.775	3.03120E-002	3.39956E-002	5.84799E-004	...........
	3	1.03333	3.09863E-002	3.58258E-002	5.78566E-004	...........
	4	1.29167	3.21913E-002	3.75802E-002	5.81765E-004	...........
	5	1.55	3.37909E-002	3.92516E-002	5.87665E-004	...........
	6	1.80833	3.55615E-002	4.08555E-002	5.87399E-004	...........
	7	2.06667	3.73389E-002	4.23919E-002	5.82499E-004	...........
	8	2.325	3.90495E-002	4.38746E-002	5.85099E-004	...........
	9	2.58333	4.06777E-002	4.52935E-002	5.90265E-004	...........
	10	2.84167	4.22303E-002	4.66686E-002	5.77132E-004	...........
	11	3.1	4.37177E-002	4.79909E-002	5.74199E-004	...........
	12	3.35833	4.51477E-002	4.92650E-002	5.86565E-004	...........
	13	3.61667	4.65250E-002	5.04989E-002	5.80299E-004	...........
	14	3.875	4.78530E-002	5.16869E-002	5.77699E-004	...........
	15	4.13333	4.91343E-002	5.28405E-002	5.68266E-004	...........
	16	4.39167	5.03714E-002	5.39543E-002	5.85499E-004	...........
	17	4.65	5.15667E-002	5.50269E-002	5.81865E-004	...........
	18	4.90833	5.27220E-002	5.60675E-002	5.71132E-004	...........
EOC	QUANT	0.052722	Open Circuit (V)
PSTATMODEL	IQUANT	4	Pstat Model
PSTATSECTION	LABEL	REF600-11020	Pstat Section
PSTATSERIALNO	LABEL	11020	Pstat Serial Number
CTRLMODE	IQUANT	1	Control Mode
IESTAB	IQUANT	0	I/E Stability
CASPEED	IQUANT	1	Control Amp Speed
CONVENTION	IQUANT	1	Current Convention
ICHRANGE	IQUANT	2	Ich Range
ICHRANGEMODE	TOGGLE	F	Ich Auto Range
ICHOFFSETENABLE	TOGGLE	T	Ich Offset Enable
ICHOFFSET	QUANT	0	Ich Offset (V)
ICHFILTER	IQUANT	3	Ich Filter
VCHRANGE	IQUANT	2	Vch Range
VCHRANGEMODE	TOGGLE	F	Vch Auto Range
VCHOFFSETENABLE	TOGGLE	T	Vch Offset Enable
VCHOFFSET	QUANT	0	Vch Offset (V)
VCHFILTER	IQUANT	3	Vch Filter
ACHRANGE	IQUANT	2	Ach Range
ACHOFFSETENABLE	TOGGLE	F	Ach Offset Enable
ACHOFFSET	QUANT	0	Ach Offset (V)
ACHFILTER	IQUANT	3	Ach Filter
IERANGELOWERLIMIT	IQUANT	1	I/E Range Lower Limit
IERANGEMODE	TOGGLE	F	I/E AutoRange
IERANGE	IQUANT	5	I/E Range
POSFEEDENABLE	TOGGLE	F	Positive Feedback IR Comp
POSFEEDRESISTANCE	QUANT	0	Positive Feedback Resistance (ohm)
ACHSELECT	IQUANT	0	Ach Select
CABLEID	IQUANT	14	Cable ID
DCCALDATE	LABEL	8/19/2019	DC Calibration Date
ACCALDATE	LABEL	8/19/2019	AC Calibration Date
THERMOSELECT	IQUANT	1	Thermo Select
FRAMEWORKVERSION	QUANT	6.33	Framework Version
INSTRUMENTVERSION	LABEL	3.50	Instrument Version
ZCURVE	TABLE
	Pt	Time	Freq	Zreal	Zimag	Zsig	Zmod	Zphz	Idc	Vdc	IERange
	#	s	Hz	ohm	ohm	V	ohm	°	A	V	#
	0	1	1000078	2435.652	-1995.903	1	3148.973	-39.33303	-6.886518E-007	0.0547981	8
	1	2	794390.6	2815.139	-2040.049	1	3476.608	-35.92975	4.588132E-007	0.054276	8
	2	2	630984.4	3208.864	-1994.34	1	3778.121	-31.86135	9.917909E-008	0.0541796	8
	3	2	501234.4	3595.141	-1921.878	1	4076.598	-28.12792	4.167869E-006	0.0537408	8
	4	3	398109.4	3926.486	-1799.477	1	4319.191	-24.62161	7.237281E-009	0.0543121	8
	5	3	316265.6	4225.687	-1649.724	1	4536.3	-21.32586	3.559731E-007	0.0542887	8
	6	3	251203.1	4474.613	-1483.269	1	4714.048	-18.33961	-1.170388E-006	0.0545376	8
	7	4	199546.9	4704.449	-1322.985	1	4886.935	-15.70704	-3.995784E-006	0.0550748	8
	8	4	158578.1	4840.271	-1229.323	1	4993.942	-14.25057	-1.003866E-006	0.0545263	8
	9	4	125953.1	5039.76	-1001.08	1	5138.223	-11.23479	-6.924111E-007	0.055762	7
	10	5	100078.1	5130.506	-876.2551	1	5204.798	-9.6922	3.026113E-008	0.0541854	7
	11	5	79453.13	5229.554	-808.1248	1	5291.625	-8.784452	-4.692045E-009	0.0542379	7
	12	5	63140.62	5305.783	-745.3903	1	5357.885	-7.996942	-1.301663E-008	0.054271	7
	13	6	50203.12	5378.484	-701.1133	1	5423.989	-7.426924	1.187357E-007	0.0541225	7
	14	6	39890.62	5442.131	-670.4355	1	5483.272	-7.023084	-7.470161E-008	0.0543788	7
	15	6	31640.63	5504.391	-659.3132	1	5543.737	-6.830319	-4.210496E-008	0.0542969	7
	16	7	25171.88	5567.578	-661.0608	1	5606.686	-6.771256	6.722087E-008	0.0541754	7
	17	7	20015.62	5628.529	-682.3363	1	5669.737	-6.912134	6.679893E-008	0.0541685	7
	18	7	15890.62	5698.196	-709.9699	1	5742.255	-7.102199	7.428589E-008	0.0541237	7
	19	8	12609.37	5769.058	-764.4116	1	5819.48	-7.547837	1.198874E-007	0.0541135	7
	20	8	10078.13	5836.025	-878.2988	1	5901.745	-8.55856	3.145193E-008	0.0541654	7
	21	8	8015.625	5903	-913.0651	1	5973.198	-8.792725	8.459851E-008	0.0542555	8
	22	9	6328.125	5987.18	-1022.087	1	6073.795	-9.68773	-9.80214E-009	0.0542585	7
	23	9	5015.625	6071.586	-1160.624	1	6181.521	-10.82191	-4.054694E-008	0.0542848	7
	24	10	3984.375	6156.967	-1338.209	1	6300.718	-12.26245	-3.885174E-008	0.0543578	7
	25	10	3170.956	6252.328	-1542.537	1	6439.8	-13.85891	-8.581052E-009	0.0543262	7
	26	10	2527.573	6350.462	-1802.529	1	6601.324	-15.84618	-3.963683E-008	0.0543562	7
	27	11	1976.103	6465.565	-2154.925	1	6815.221	-18.43285	6.617134E-008	0.0541659	7
	28	11	1577.524	6603.656	-2540.148	1	7075.354	-21.03963	3.06968E-008	0.0541613	7
	29	11	1265.625	6735.253	-3013.882	1	7378.83	-24.1075	7.592188E-008	0.054113	7
	30	12	998.264	6898.39	-3628.69	1	7794.561	-27.74526	-3.927576E-008	0.0543745	7
	31	12	796.875	7077.652	-4345.736	1	8305.335	-31.55026	-7.469365E-008	0.054397	7
	32	12	627.7902	7301.953	-5278.536	1	9010.075	-35.86293	-7.415986E-008	0.0543961	7
	33	12	505.5147	7542.606	-6315.881	1	9837.75	-39.94147	-1.275888E-008	0.0543093	6
	34	13	397.9953	7840.339	-7730.333	1	11010.4	-44.59521	-1.122118E-009	0.054235	6
	35	13	315.5048	8185.973	-9430.755	1	12487.97	-49.04175	-1.000971E-009	0.0542327	6
	36	13	252.4038	8582.718	-11444.68	1	14305.38	-53.13265	-1.28832E-009	0.0542314	6
	37	14	198.6229	9108.513	-14108.38	1	16793.19	-57.1533	-1.657902E-009	0.0542323	6
	38	14	158.3615	9736.43	-17223.03	1	19784.61	-60.51988	-1.445385E-009	0.0542293	6
	39	14	125.558	10538.75	-21147.19	1	23627.71	-63.51053	-1.810545E-009	0.0542348	6
	40	15	100.4464	11581.78	-25759.72	1	28243.6	-65.79092	-7.98462E-010	0.0542322	6
	41	15	79.00281	13049.13	-31910.61	1	34475.6	-67.75899	-1.985071E-009	0.0542295	6
	42	15	63.3446	14147.53	-38530.68	1	41045.9	-69.838	-2.24802E-009	0.054231	6
	43	16	49.86702	16755.04	-47532.34	1	50398.96	-70.58257	-1.695842E-009	0.0542302	6
	44	16	39.72458	20023.84	-58143.22	1	61494.62	-70.99689	-2.091595E-009	0.0542339	6
	45	16	31.6723	24131.69	-70908.7	1	74902.48	-71.20551	-2.584602E-009	0.0542293	6
	46	17	24.93351	29823.55	-86336.21	1	91342.13	-70.9433	-1.378932E-009	0.0542306	6
	47	17	19.86229	36678.55	-103960.4	1	110241	-70.56651	-1.775044E-009	0.054234	5
	48	17	15.83615	47742.88	-125926	1	134672.7	-69.23656	9.694283E-010	0.0542301	5
	49	18	12.40079	58742.01	-150832.6	1	161867.5	-68.72149	-2.396062E-009	0.0542405	5
	50	18	9.93114	74314.84	-179484.8	1	194261.4	-67.50822	-1.226553E-009	0.0542412	5
	51	19	7.944915	93233.47	-211051.9	1	230728	-66.16627	-7.5909E-010	0.0542292	5
	52	19	6.317385	118194.4	-247839.4	1	274580.2	-64.50356	-8.454165E-010	0.0542218	5
	53	20	5.008013	150229.3	-289410.3	1	326078.4	-62.56673	-1.080123E-009	0.0542297	5
	54	21	3.945707	188158.5	-335390.1	1	384564.9	-60.70698	-1.109509E-009	0.0542368	5
	55	22	3.158693	232407.7	-380733.6	1	446062.1	-58.59924	-1.426886E-009	0.0542217	5
	56	24	2.504006	284887.3	-430463.4	1	516197.2	-56.5028	-1.142504E-009	0.054222	5
	57	25	1.998082	341543.1	-481785.3	1	590566.4	-54.66674	-9.53426E-010	0.0542544	5
	58	27	1.584686	405694.8	-535247.3	1	671623.3	-52.83942	-1.043199E-009	0.0542088	5
	59	29	1.266892	474392.3	-591993.6	1	758620.1	-51.29317	-1.056304E-009	0.0541769	5
	60	31	0.999041	551035.6	-658899.4	1	858946.2	-50.09436	-1.046635E-009	0.0541794	5
