EXPLAIN
TAG	EISPOT
TITLE	LABEL	Potentiostatic EIS	Test &Identifier
DATE	LABEL	11/11/2019	Date
TIME	LABEL	14:46:55	Time
NOTES	NOTES	3	&Notes...
	
	
	
PSTAT	PSTAT	REF600-11020	Potentiostat
VDC	POTEN	0.00000E+000	T	DC &Voltage (V)
FREQINIT	QUANT	1.00000E+006	Initial Fre&q. (Hz)
FREQFINAL	QUANT	1.00000E+000	Final Fre&q. (Hz)
PTSPERDEC	QUANT	1.00000E+001	Points/&decade
VAC	QUANT	2.50000E+001	AC &Voltage (mV rms)
AREA	QUANT	1.00000E-002	&Area (cm^2)
CONDIT	TWOPARAM	T	5.00000E+000	0.00000E+000	Conditionin&g	Time(s)	E(V)
DELAY	TWOPARAM	T	5.00000E+000	0.00000E+000	Init. De&lay	Time(s)	Stab.(mV/s)
SPEED	SELECTOR	1	&Optimize for:
ZGUESS	QUANT	1.00000E+005	E&stimated Z (ohms)
OCVCURVE	TABLE	19
	Pt	T	Vf	Vm	Ach	Over
	#	s	V vs. Ref.	V	V	bits
	0	0.258333	5.80781E-003	5.80781E-003	5.31633E-004	...........
	1	0.516667	5.80748E-003	5.79054E-003	5.29700E-004	...........
	2	0.775	5.80553E-003	5.77810E-003	5.32066E-004	...........
	3	1.03333	5.80046E-003	5.77657E-003	5.26633E-004	...........
	4	1.29167	5.79247E-003	5.76120E-003	5.30766E-004	...........
	5	1.55	5.78431E-003	5.81441E-003	5.26866E-004	...........
	6	1.80833	5.78026E-003	5.78167E-003	5.23866E-004	...........
	7	2.06667	5.78351E-003	5.86791E-003	5.27333E-004	...........
	8	2.325	5.79470E-003	5.83314E-003	5.27433E-004	...........
	9	2.58333	5.81293E-003	5.92773E-003	5.25000E-004	...........
	10	2.84167	5.83788E-003	5.96156E-003	5.26933E-004	...........
	11	3.1	5.87072E-003	5.99647E-003	5.31133E-004	...........
	12	3.35833	5.90999E-003	6.01348E-003	5.30666E-004	...........
	13	3.61667	5.94974E-003	6.04794E-003	5.27533E-004	...........
	14	3.875	5.98527E-003	6.08003E-003	5.31500E-004	...........
	15	4.13333	6.01668E-003	6.10211E-003	5.26400E-004	...........
	16	4.39167	6.04516E-003	6.08733E-003	5.31266E-004	...........
	17	4.65	6.06733E-003	6.02475E-003	5.27933E-004	...........
	18	4.90833	6.07604E-003	6.03904E-003	5.22066E-004	...........
EOC	QUANT	0.006076	Open Circuit (V)
PSTATMODEL	IQUANT	4	Pstat Model
PSTATSECTION	LABEL	REF600-11020	Pstat Section
PSTATSERIALNO	LABEL	11020	Pstat Serial Number
CTRLMODE	IQUANT	1	Control Mode
IESTAB	IQUANT	0	I/E Stability
CASPEED	IQUANT	1	Control Amp Speed
CONVENTION	IQUANT	1	Current Convention
ICHRANGE	IQUANT	2	Ich Range
ICHRANGEMODE	TOGGLE	F	Ich Auto Range
ICHOFFSETENABLE	TOGGLE	T	Ich Offset Enable
ICHOFFSET	QUANT	0	Ich Offset (V)
ICHFILTER	IQUANT	3	Ich Filter
VCHRANGE	IQUANT	2	Vch Range
VCHRANGEMODE	TOGGLE	F	Vch Auto Range
VCHOFFSETENABLE	TOGGLE	T	Vch Offset Enable
VCHOFFSET	QUANT	0	Vch Offset (V)
VCHFILTER	IQUANT	3	Vch Filter
ACHRANGE	IQUANT	2	Ach Range
ACHOFFSETENABLE	TOGGLE	F	Ach Offset Enable
ACHOFFSET	QUANT	0	Ach Offset (V)
ACHFILTER	IQUANT	3	Ach Filter
IERANGELOWERLIMIT	IQUANT	1	I/E Range Lower Limit
IERANGEMODE	TOGGLE	F	I/E AutoRange
IERANGE	IQUANT	5	I/E Range
POSFEEDENABLE	TOGGLE	F	Positive Feedback IR Comp
POSFEEDRESISTANCE	QUANT	0	Positive Feedback Resistance (ohm)
ACHSELECT	IQUANT	0	Ach Select
CABLEID	IQUANT	14	Cable ID
DCCALDATE	LABEL	8/19/2019	DC Calibration Date
ACCALDATE	LABEL	8/19/2019	AC Calibration Date
THERMOSELECT	IQUANT	1	Thermo Select
FRAMEWORKVERSION	QUANT	6.33	Framework Version
INSTRUMENTVERSION	LABEL	3.50	Instrument Version
ZCURVE	TABLE
	Pt	Time	Freq	Zreal	Zimag	Zsig	Zmod	Zphz	Idc	Vdc	IERange
	#	s	Hz	ohm	ohm	V	ohm	°	A	V	#
	0	1	1000078	1835.578	-742.2797	1	1979.981	-22.01765	-8.525709E-006	0.0089275	8
	1	3	794390.6	1946.984	-680.9664	1	2062.635	-19.27752	1.597712E-006	0.0083481	8
	2	4	630984.4	2042.907	-631.8049	1	2138.375	-17.18514	-1.023515E-006	0.0074777	8
	3	5	501234.4	2129.375	-581.9875	1	2207.476	-15.28639	-4.806087E-007	0.0074045	8
	4	7	398109.4	2200.479	-534.0367	1	2264.354	-13.64144	-2.470354E-007	0.0079948	8
	5	8	316265.6	2263.308	-495.2059	1	2316.849	-12.34168	-2.022361E-006	0.0074962	8
	6	10	251203.1	2318.276	-464.1146	1	2364.277	-11.32085	5.738929E-006	0.0069391	8
	7	11	199546.9	2369.004	-442.4822	1	2409.974	-10.57979	-2.103452E-006	0.0074914	8
	8	12	158578.1	2416.919	-419.4341	1	2453.043	-9.8451	3.262568E-006	0.0075103	8
	9	14	125953.1	2477.808	-383.9785	1	2507.384	-8.808887	-4.132598E-007	0.0097359	7
	10	15	100078.1	2516.759	-385.2635	1	2546.076	-8.703231	-8.880517E-007	0.0086127	7
	11	16	79453.13	2559.646	-400.5273	1	2590.794	-8.893387	4.652343E-007	0.007625	7
	12	18	63140.62	2605.288	-421.2527	1	2639.124	-9.184744	-7.850486E-007	0.0087151	7
	13	19	50203.12	2656.871	-448.0257	1	2694.382	-9.57168	3.120198E-007	0.0078493	7
	14	20	39890.62	2710.883	-477.8337	1	2752.674	-9.99655	3.274094E-007	0.006341	7
	15	22	31640.63	2769.58	-512.8639	1	2816.666	-10.49105	8.065397E-008	0.0081773	7
	16	23	25171.88	2832.748	-553.5441	1	2886.325	-11.05678	7.962093E-007	0.0066681	7
	17	25	20015.62	2893.913	-599.2148	1	2955.298	-11.69837	-7.733749E-007	0.0079311	7
	18	26	15890.62	2965.518	-652.3453	1	3036.421	-12.40615	-7.872862E-007	0.0087055	7
	19	27	12609.37	3038.825	-716.0596	1	3122.051	-13.25913	-1.865012E-007	0.0084814	7
	20	29	10078.13	3116.222	-788.9727	1	3214.548	-14.20773	4.672754E-007	0.0076171	7
	21	30	8015.625	3195.282	-879.4708	1	3314.106	-15.38906	7.961092E-007	0.006673	7
	22	31	6328.125	3285.003	-990.899	1	3431.199	-16.78558	7.469854E-007	0.0069615	7
	23	33	5015.625	3380.174	-1121.155	1	3561.259	-18.34995	3.148702E-007	0.0078458	7
	24	34	3984.375	3482.869	-1275.243	1	3708.992	-20.11007	8.227133E-008	0.0081724	7
	25	35	3170.956	3597.027	-1458.39	1	3881.431	-22.06975	4.680255E-007	0.0076047	7
	26	37	2527.573	3720.124	-1672.356	1	4078.737	-24.20597	3.120277E-007	0.0078382	7
	27	38	1976.103	3864.504	-1952.114	1	4329.566	-26.80014	-2.397053E-007	0.0069239	7
	28	40	1577.524	4019.11	-2262.698	1	4612.271	-29.37885	-2.386099E-007	0.0069269	7
	29	41	1265.625	4153.393	-2623.212	1	4912.425	-32.27581	-8.911707E-007	0.008328	7
	30	42	998.264	4329.263	-3105.218	1	5327.748	-35.65046	-8.877086E-007	0.0085884	7
	31	44	796.875	4512.551	-3682.481	1	5824.412	-39.21627	6.881539E-007	0.0062926	7
	32	45	627.7902	4732.683	-4413.958	1	6471.577	-43.00427	-8.913045E-007	0.0083262	7
	33	46	505.5147	4970.756	-5249.327	1	7229.375	-46.56134	-2.436115E-007	0.0069247	7
	34	48	397.9953	5287.623	-6383.02	1	8288.661	-50.36203	3.743763E-009	0.0075394	7
	35	49	315.5048	5679.205	-7733.923	1	9595.15	-53.70927	4.176429E-009	0.0075348	7
	36	50	252.4038	6162.793	-9310.686	1	11165.52	-56.49921	6.540584E-010	0.007474	6
	37	52	198.6229	6826.073	-11363.39	1	13256.01	-59.00645	4.320055E-010	0.0074695	6
	38	53	158.3615	7638.357	-13701.81	1	15687.07	-60.86162	8.196513E-010	0.0074793	6
	39	55	125.558	8715.977	-16565.68	1	18718.71	-62.24905	2.001455E-010	0.0074784	6
	40	56	100.4464	10044.23	-19806	1	22207.31	-63.10903	1.358401E-010	0.0074792	6
	41	57	79.00281	11903.45	-23970.12	1	26763.01	-63.59122	-1.788454E-010	0.0074657	6
	42	59	63.3446	14184.08	-28472.76	1	31810.16	-63.51921	2.710488E-010	0.007471	6
	43	60	49.86702	16865.06	-33916.11	1	37877.86	-63.56077	7.193084E-010	0.007467	6
	44	62	39.72458	20459.66	-39990.95	1	44920.75	-62.90539	1.625987E-010	0.0074766	6
	45	63	31.6723	24694.95	-46848.68	1	52958.85	-62.20532	-3.921403E-011	0.007475	6
	46	64	24.93351	30213.6	-54903.88	1	62668.15	-61.17601	-4.180391E-011	0.007467	6
	47	66	19.86229	36435.93	-63390.5	1	73115.88	-60.11034	1.275337E-009	0.0074738	6
	48	67	15.83615	43058.3	-72761.38	1	84547.23	-59.38405	-3.814361E-010	0.0074754	6
	49	68	12.40079	51858.71	-84253.3	1	98934	-58.38731	2.323007E-010	0.0074712	6
	50	70	9.93114	60774.56	-95368.3	1	113086.9	-57.4922	-3.1887E-010	0.007477	5
	51	71	7.944915	70230.22	-108347.5	1	129118	-57.04892	5.556023E-010	0.0074672	5
	52	73	6.317385	80363.12	-123868.7	1	147653.9	-57.02543	-7.161512E-011	0.0074934	5
	53	75	5.008013	91325.44	-142492.6	1	169246.8	-57.34364	2.269235E-010	0.0074709	5
	54	78	3.945707	103337.5	-165781.1	1	195351	-58.06318	3.021097E-010	0.007476	5
	55	80	3.158693	115566.7	-191806.3	1	223931.5	-58.93028	8.219022E-013	0.007486	5
	56	83	2.504006	129994.2	-225146	1	259979.2	-59.99884	1.625441E-010	0.0074697	5
	57	86	1.998082	145904.9	-264319.3	1	301915.4	-61.10119	-1.026799E-010	0.0075103	5
	58	89	1.584686	164128.7	-313874.9	1	354197.2	-62.39442	9.793264E-011	0.0074999	5
	59	93	1.266892	187608.1	-370849.8	1	415603.6	-63.16574	9.123478E-012	0.0075215	5
	60	97	0.999041	215053.3	-444196.2	1	493516.1	-64.1665	1.712199E-012	0.0074426	5
