EXPLAIN
TAG	EISPOT
TITLE	LABEL	Potentiostatic EIS	Test &Identifier
DATE	LABEL	8/16/2017	Date
TIME	LABEL	16:53:27	Time
NOTES	NOTES	1	&Notes...
	
PSTAT	PSTAT	REF600-11020	Potentiostat
VDC	POTEN	0.00000E+000	T	DC &Voltage (V)
FREQINIT	QUANT	1.00000E+006	Initial Fre&q. (Hz)
FREQFINAL	QUANT	1.00000E+000	Final Fre&q. (Hz)
PTSPERDEC	QUANT	1.00000E+001	Points/&decade
VAC	QUANT	2.50000E+001	AC &Voltage (mV rms)
AREA	QUANT	1.00000E-002	&Area (cm^2)
CONDIT	TWOPARAM	T	5.00000E+000	0.00000E+000	Conditionin&g	Time(s)	E(V)
DELAY	TWOPARAM	T	5.00000E+000	0.00000E+000	Init. De&lay	Time(s)	Stab.(mV/s)
SPEED	SELECTOR	0	&Optimize for:
ZGUESS	QUANT	1.00000E+005	E&stimated Z (ohms)
OCVCURVE	TABLE	19
	Pt	T	Vf	Vm	Ach	Over
	#	s	V vs. Ref.	V	V	bits
	0	0.258333	4.68823E-003	4.68823E-003	5.73232E-004	...........
	1	0.516667	4.68379E-003	4.45576E-003	5.72432E-004	...........
	2	0.775	4.65737E-003	4.27997E-003	5.73965E-004	...........
	3	1.03333	4.58509E-003	4.09169E-003	5.71066E-004	...........
	4	1.29167	4.45963E-003	3.91164E-003	5.71599E-004	...........
	5	1.55	4.29668E-003	3.76698E-003	5.72399E-004	...........
	6	1.80833	4.11985E-003	3.61833E-003	5.67732E-004	...........
	7	2.06667	3.94691E-003	3.48281E-003	5.75265E-004	...........
	8	2.325	3.78591E-003	3.36256E-003	5.72732E-004	...........
	9	2.58333	3.63790E-003	3.23579E-003	5.74599E-004	...........
	10	2.84167	3.50052E-003	3.09775E-003	5.73499E-004	...........
	11	3.1	3.36933E-003	2.96788E-003	5.73432E-004	...........
	12	3.35833	3.23998E-003	2.84940E-003	5.71499E-004	...........
	13	3.61667	3.11091E-003	2.71751E-003	5.77432E-004	...........
	14	3.875	2.98372E-003	2.64656E-003	5.73332E-004	...........
	15	4.13333	2.86296E-003	2.57842E-003	5.73799E-004	...........
	16	4.39167	2.75542E-003	2.52962E-003	5.72499E-004	...........
	17	4.65	2.66762E-003	2.56771E-003	5.70732E-004	...........
	18	4.90833	2.60402E-003	2.49852E-003	5.71466E-004	...........
EOC	QUANT	0.002604	Open Circuit (V)
PSTATMODEL	IQUANT	4	Pstat Model
PSTATSECTION	LABEL	REF600-11020	Pstat Section
PSTATSERIALNO	LABEL	11020	Pstat Serial Number
CTRLMODE	IQUANT	1	Control Mode
IESTAB	IQUANT	0	I/E Stability
CASPEED	IQUANT	1	Control Amp Speed
CONVENTION	IQUANT	1	Current Convention
ICHRANGE	IQUANT	2	Ich Range
ICHRANGEMODE	TOGGLE	F	Ich Auto Range
ICHOFFSETENABLE	TOGGLE	T	Ich Offset Enable
ICHOFFSET	QUANT	0	Ich Offset (V)
ICHFILTER	IQUANT	3	Ich Filter
VCHRANGE	IQUANT	2	Vch Range
VCHRANGEMODE	TOGGLE	F	Vch Auto Range
VCHOFFSETENABLE	TOGGLE	T	Vch Offset Enable
VCHOFFSET	QUANT	0	Vch Offset (V)
VCHFILTER	IQUANT	3	Vch Filter
ACHRANGE	IQUANT	2	Ach Range
ACHOFFSETENABLE	TOGGLE	F	Ach Offset Enable
ACHOFFSET	QUANT	0	Ach Offset (V)
ACHFILTER	IQUANT	3	Ach Filter
IERANGELOWERLIMIT	IQUANT	1	I/E Range Lower Limit
IERANGEMODE	TOGGLE	F	I/E AutoRange
IERANGE	IQUANT	4	I/E Range
POSFEEDENABLE	TOGGLE	F	Positive Feedback IR Comp
POSFEEDRESISTANCE	QUANT	0	Positive Feedback Resistance (ohm)
ACHSELECT	IQUANT	0	Ach Select
CABLEID	IQUANT	14	Cable ID
DCCALDATE	LABEL	8/19/2019	DC Calibration Date
ACCALDATE	LABEL	8/19/2019	AC Calibration Date
THERMOSELECT	IQUANT	1	Thermo Select
FRAMEWORKVERSION	QUANT	6.33	Framework Version
INSTRUMENTVERSION	LABEL	3.50	Instrument Version
ZCURVE	TABLE
	Pt	Time	Freq	Zreal	Zimag	Zsig	Zmod	Zphz	Idc	Vdc	IERange
	#	s	Hz	ohm	ohm	V	ohm	°	A	V	#
	0	2	1000078	2217.125	-1699.539	1	2793.578	-37.472	-4.027612E-006	0.005301	8
	1	2	794390.6	2566.155	-1696.487	1	3076.235	-33.46872	-2.365654E-006	0.0050409	8
	2	2	630984.4	2883.139	-1628.688	1	3311.362	-29.46214	-5.058001E-006	0.0046189	8
	3	3	501234.4	3189.978	-1501.423	1	3525.653	-25.2049	-1.508603E-006	0.0042641	8
	4	3	398109.4	3437.229	-1358.55	1	3695.971	-21.56619	8.034466E-008	0.0037543	8
	5	3	316265.6	3642.4	-1211.307	1	3838.534	-18.39493	7.219875E-007	0.0044727	8
	6	3	251203.1	3785.163	-1050.921	1	3928.345	-15.5169	-2.043221E-006	0.0041961	8
	7	4	199546.9	3924.481	-910.9056	1	4028.809	-13.06745	-1.522971E-008	0.0037598	8
	8	4	158578.1	4023.056	-780.0596	1	4097.983	-10.97333	7.052211E-006	0.003335	8
	9	4	125953.1	4121.438	-627.4585	1	4168.928	-8.656388	-1.325125E-006	0.0027825	7
	10	5	100078.1	4180.391	-548.8738	1	4216.27	-7.479991	5.313967E-007	0.0022598	7
	11	5	79453.13	4209.495	-491.81	1	4238.127	-6.663855	-1.113435E-006	0.0045801	7
	12	5	63140.62	4251.873	-456.1754	1	4276.273	-6.123731	6.103724E-008	0.005088	7
	13	6	50203.12	4289.529	-426.3636	1	4310.667	-5.676348	1.353911E-007	0.0025585	7
	14	6	39890.62	4314.127	-410.8878	1	4333.65	-5.440576	-1.183209E-006	0.0057671	7
	15	6	31640.63	4346.487	-407.8496	1	4365.581	-5.360613	-6.78101E-007	0.0057536	7
	16	7	25171.88	4374.93	-414.6559	1	4394.537	-5.414321	-1.319165E-006	0.0055858	7
	17	7	20015.62	4402.262	-433.5999	1	4423.564	-5.625192	-1.182782E-006	0.0057676	7
	18	7	15890.62	4439.154	-465.6907	1	4463.514	-5.988725	5.324202E-007	0.0022459	7
	19	8	12609.37	4475.351	-515.1407	1	4504.901	-6.566203	1.169221E-006	0.0024768	7
	20	8	10078.13	4497.274	-566.1415	1	4532.769	-7.174964	-1.181288E-006	0.0057567	7
	21	8	8015.625	4527.244	-662.7943	1	4575.503	-8.329006	-3.26775E-007	0.0054966	7
	22	9	6328.125	4562.796	-776.6925	1	4628.429	-9.66046	-1.185447E-006	0.0057653	7
	23	9	5015.625	4607.85	-919.7332	1	4698.743	-11.28797	-6.786152E-007	0.0057512	7
	24	9	3984.375	4652.375	-1091.118	1	4778.612	-13.19898	-3.258015E-007	0.0054999	7
	25	9	3170.956	4715.232	-1312.321	1	4894.446	-15.55269	8.525795E-007	0.0021152	7
	26	10	2527.573	4768.913	-1572.221	1	5021.395	-18.24642	-1.328419E-006	0.0055923	7
	27	10	1976.103	4859.377	-1929.174	1	5228.313	-21.65309	1.068451E-006	0.0022134	7
	28	10	1577.524	4929.784	-2320.091	1	5448.449	-25.20296	6.209205E-008	0.0050818	7
	29	11	1265.625	5046.395	-2797.506	1	5769.934	-29.00212	5.370646E-007	0.0022218	7
	30	11	998.264	5173.509	-3418.916	1	6201.143	-33.45874	-3.157817E-007	0.0030929	7
	31	11	796.875	5314.864	-4149.686	1	6742.972	-37.98165	4.071734E-007	0.0046227	7
	32	12	627.7902	5491.676	-5097.467	1	7492.842	-42.868	1.316008E-007	0.0025428	7
	33	12	505.5147	5686.683	-6138.815	1	8367.999	-47.18956	-1.32422E-006	0.0055865	7
	34	13	397.9953	5929.174	-7600.604	1	9639.72	-52.04248	1.653777E-009	0.0040558	7
	35	13	315.5048	6230.254	-9340.258	1	11227.49	-56.29543	4.34812E-010	0.0039921	6
	36	13	252.4038	6585.156	-11403.79	1	13168.55	-59.99557	1.671879E-011	0.0039867	6
	37	14	198.6229	7061.592	-14142.1	1	15807.12	-63.46561	-1.530168E-010	0.0039955	6
	38	14	158.3615	7642.941	-17351.08	1	18959.81	-66.22709	-6.778689E-010	0.0039968	6
	39	14	125.558	8417.173	-21393.65	1	22989.93	-68.52321	-8.601479E-011	0.0039992	6
	40	15	100.4464	9398.989	-26109.92	1	27750.11	-70.20226	3.697679E-010	0.0039849	6
	41	15	79.00281	10902.57	-32511.46	1	34290.83	-71.46136	4.615945E-010	0.003988	6
	42	15	63.3446	12013.53	-39676.41	1	41455.3	-73.15434	2.413577E-010	0.0039915	6
	43	16	49.86702	14688.54	-48841.96	1	51002.85	-73.26208	-2.4136E-010	0.0039924	6
	44	16	39.72458	18347.87	-59726.39	1	62481.08	-72.92311	2.508913E-010	0.0039972	6
	45	16	31.6723	23080.31	-72515.91	1	76100.31	-72.3448	1.441402E-009	0.0039814	6
	46	17	24.93351	28962.77	-88488.07	1	93107.36	-71.87636	-2.440987E-010	0.0039806	6
	47	17	19.86229	36634.76	-106638.8	1	112756.1	-71.04033	-1.104318E-009	0.0039945	5
	48	17	15.83615	45244.21	-126895.5	1	134720.1	-70.37646	-1.430269E-009	0.0039949	5
	49	18	12.40079	60247.29	-153706.7	1	165092.4	-68.59667	5.254009E-010	0.003998	5
	50	18	9.93114	78967.41	-179797	1	196374.2	-66.28876	4.85309E-010	0.0039988	5
	51	19	7.944915	99702.4	-209148.1	1	231697	-64.51254	5.007385E-010	0.003997	5
	52	19	6.317385	124720.6	-241560.5	1	271857.9	-62.69215	3.42139E-010	0.0039868	5
	53	20	5.008013	155324	-277609.5	1	318107.8	-60.77275	5.168028E-010	0.0040001	5
	54	21	3.945707	190142.9	-317755.5	1	370301.1	-59.10396	5.335376E-011	0.0039925	5
	55	22	3.158693	226861.3	-358665.3	1	424389.9	-57.68602	-1.16742E-010	0.0039789	5
	56	24	2.504006	269390.6	-405998.6	1	487243.4	-56.43469	2.124812E-010	0.0039815	5
	57	25	1.998082	312439.6	-457077.4	1	553659	-55.64507	7.229791E-011	0.0039824	5
	58	27	1.584686	362995.2	-517772.7	1	632340.2	-54.96683	-7.385902E-011	0.0039385	5
	59	29	1.266892	414103.5	-586880.6	1	718269.1	-54.79317	-7.983361E-011	0.0039485	5
	60	31	0.999041	472607.8	-671600.4	1	821221.8	-54.8658	-7.696917E-011	0.0039727	5
