EXPLAIN
TAG	EISPOT
TITLE	LABEL	Potentiostatic EIS	Test &Identifier
DATE	LABEL	10/16/2019	Date
TIME	LABEL	9:10:33	Time
NOTES	NOTES	1	&Notes...
	
PSTAT	PSTAT	REF600-11020	Potentiostat
VDC	POTEN	0.00000E+000	T	DC &Voltage (V)
FREQINIT	QUANT	1.00000E+006	Initial Fre&q. (Hz)
FREQFINAL	QUANT	1.00000E+000	Final Fre&q. (Hz)
PTSPERDEC	QUANT	1.00000E+001	Points/&decade
VAC	QUANT	2.50000E+001	AC &Voltage (mV rms)
AREA	QUANT	1.00000E-002	&Area (cm^2)
CONDIT	TWOPARAM	T	5.00000E+000	0.00000E+000	Conditionin&g	Time(s)	E(V)
DELAY	TWOPARAM	T	5.00000E+000	0.00000E+000	Init. De&lay	Time(s)	Stab.(mV/s)
SPEED	SELECTOR	0	&Optimize for:
ZGUESS	QUANT	1.00000E+005	E&stimated Z (ohms)
OCVCURVE	TABLE	19
	Pt	T	Vf	Vm	Ach	Over
	#	s	V vs. Ref.	V	V	bits
	0	0.258333	6.80260E-003	6.80260E-003	5.56533E-004	...........
	1	0.516667	6.79348E-003	6.32522E-003	5.54766E-004	...........
	2	0.775	6.74861E-003	6.45503E-003	5.57833E-004	...........
	3	1.03333	6.66828E-003	7.08493E-003	5.55299E-004	...........
	4	1.29167	6.64125E-003	7.84460E-003	5.53433E-004	...........
	5	1.55	6.78849E-003	8.03681E-003	5.56033E-004	...........
	6	1.80833	7.12411E-003	8.20648E-003	5.57866E-004	...........
	7	2.06667	7.53366E-003	8.39008E-003	5.54133E-004	...........
	8	2.325	7.88962E-003	8.25984E-003	5.52099E-004	...........
	9	2.58333	8.12666E-003	8.06026E-003	5.48799E-004	...........
	10	2.84167	8.23685E-003	8.46766E-003	5.49633E-004	...........
	11	3.1	8.27636E-003	8.83885E-003	5.57466E-004	...........
	12	3.35833	8.34696E-003	9.04608E-003	5.52532E-004	...........
	13	3.61667	8.50769E-003	9.16849E-003	5.51333E-004	...........
	14	3.875	8.72936E-003	9.28906E-003	5.55466E-004	...........
	15	4.13333	8.94902E-003	9.42252E-003	5.55399E-004	...........
	16	4.39167	9.13280E-003	9.54916E-003	5.54899E-004	...........
	17	4.65	9.28296E-003	9.66588E-003	5.57466E-004	...........
	18	4.90833	9.41438E-003	9.79371E-003	5.53833E-004	...........
EOC	QUANT	0.0094144	Open Circuit (V)
PSTATMODEL	IQUANT	4	Pstat Model
PSTATSECTION	LABEL	REF600-11020	Pstat Section
PSTATSERIALNO	LABEL	11020	Pstat Serial Number
CTRLMODE	IQUANT	1	Control Mode
IESTAB	IQUANT	0	I/E Stability
CASPEED	IQUANT	1	Control Amp Speed
CONVENTION	IQUANT	1	Current Convention
ICHRANGE	IQUANT	2	Ich Range
ICHRANGEMODE	TOGGLE	F	Ich Auto Range
ICHOFFSETENABLE	TOGGLE	T	Ich Offset Enable
ICHOFFSET	QUANT	0	Ich Offset (V)
ICHFILTER	IQUANT	3	Ich Filter
VCHRANGE	IQUANT	2	Vch Range
VCHRANGEMODE	TOGGLE	F	Vch Auto Range
VCHOFFSETENABLE	TOGGLE	T	Vch Offset Enable
VCHOFFSET	QUANT	0	Vch Offset (V)
VCHFILTER	IQUANT	3	Vch Filter
ACHRANGE	IQUANT	2	Ach Range
ACHOFFSETENABLE	TOGGLE	F	Ach Offset Enable
ACHOFFSET	QUANT	0	Ach Offset (V)
ACHFILTER	IQUANT	3	Ach Filter
IERANGELOWERLIMIT	IQUANT	1	I/E Range Lower Limit
IERANGEMODE	TOGGLE	F	I/E AutoRange
IERANGE	IQUANT	5	I/E Range
POSFEEDENABLE	TOGGLE	F	Positive Feedback IR Comp
POSFEEDRESISTANCE	QUANT	0	Positive Feedback Resistance (ohm)
ACHSELECT	IQUANT	0	Ach Select
CABLEID	IQUANT	14	Cable ID
DCCALDATE	LABEL	8/19/2019	DC Calibration Date
ACCALDATE	LABEL	8/19/2019	AC Calibration Date
THERMOSELECT	IQUANT	1	Thermo Select
FRAMEWORKVERSION	QUANT	6.33	Framework Version
INSTRUMENTVERSION	LABEL	3.50	Instrument Version
ZCURVE	TABLE
	Pt	Time	Freq	Zreal	Zimag	Zsig	Zmod	Zphz	Idc	Vdc	IERange
	#	s	Hz	ohm	ohm	V	ohm	°	A	V	#
	0	1	1000078	2238.726	-1219.362	1	2549.262	-28.57571	-1.523792E-007	0.0116564	8
	1	2	794390.6	2455.881	-1127.87	1	2702.488	-24.66709	-2.046236E-006	0.0118324	8
	2	2	630984.4	2646.025	-1015.163	1	2834.079	-20.9896	-1.347993E-006	0.0116345	8
	3	2	501234.4	2790.658	-894.0261	1	2930.368	-17.76358	2.99872E-006	0.0106639	8
	4	3	398109.4	2897.959	-772.8909	1	2999.255	-14.93329	-2.700426E-006	0.0116077	8
	5	3	316265.6	2995.795	-663.6275	1	3068.418	-12.49044	-1.604887E-006	0.0115705	8
	6	3	251203.1	3061.287	-588.3174	1	3117.306	-10.87846	3.625521E-007	0.0111008	8
	7	4	199546.9	3106.012	-497.0654	1	3145.534	-9.092139	-1.236282E-006	0.0113078	8
	8	4	158578.1	3154.196	-423.7873	1	3182.538	-7.652245	-1.659148E-006	0.0115544	8
	9	4	125953.1	3201.881	-343.3499	1	3220.238	-6.120654	9.286131E-008	0.0105734	7
	10	4	100078.1	3220.143	-306.6254	1	3234.709	-5.439364	4.552729E-008	0.0109896	7
	11	5	79453.13	3244.66	-290.4337	1	3257.633	-5.114987	-4.623207E-008	0.0111158	7
	12	5	63140.62	3268.61	-281.6927	1	3280.726	-4.925649	4.494442E-008	0.0109722	7
	13	5	50203.12	3292.226	-278.1523	1	3303.955	-4.829314	7.921158E-008	0.0109835	7
	14	6	39890.62	3316.409	-282.3124	1	3328.404	-4.865626	4.3826E-009	0.0110341	7
	15	6	31640.63	3341.045	-291.4539	1	3353.733	-4.985539	7.844116E-008	0.0109794	7
	16	6	25171.88	3366.71	-307.9912	1	3380.769	-5.226946	7.787856E-008	0.0109789	7
	17	7	20015.62	3393.561	-332.2319	1	3409.785	-5.591478	-1.109917E-008	0.0110405	7
	18	7	15890.62	3422.873	-363.285	1	3442.098	-6.05838	-6.123416E-008	0.0112273	7
	19	7	12609.37	3454.711	-404.0593	1	3478.26	-6.670945	4.652741E-008	0.0109667	7
	20	8	10078.13	3483.624	-452.6862	1	3512.914	-7.40392	7.814425E-008	0.0109743	7
	21	8	8015.625	3509.593	-517.2285	1	3547.502	-8.383652	-1.362922E-008	0.0110761	7
	22	8	6328.125	3555.236	-596.5805	1	3604.943	-9.52568	-4.649309E-008	0.0110995	7
	23	9	5015.625	3594.961	-694.9734	1	3661.521	-10.94138	9.625921E-008	0.0109014	7
	24	9	3984.375	3636.677	-811.898	1	3726.204	-12.58506	-2.960482E-008	0.0110449	7
	25	9	3170.956	3686.96	-965.933	1	3811.391	-14.68076	-6.526704E-009	0.0110041	7
	26	10	2527.573	3741.115	-1147.867	1	3913.252	-17.05732	-2.148187E-008	0.0110316	7
	27	10	1976.103	3809.042	-1389.452	1	4054.55	-20.04082	4.5321E-008	0.0109657	7
	28	10	1577.524	3829.306	-1656.83	1	4172.37	-23.39674	-6.137479E-008	0.0111211	7
	29	10	1265.625	3961.537	-1986.593	1	4431.741	-26.63241	9.654987E-008	0.0108911	7
	30	11	998.264	4061.257	-2411.756	1	4723.386	-30.70374	4.747444E-008	0.0109641	7
	31	11	796.875	4170.505	-2910.55	1	5085.707	-34.91076	6.218794E-009	0.0110278	7
	32	11	627.7902	4306.458	-3558.558	1	5586.494	-39.56796	3.368607E-008	0.0109311	7
	33	12	505.5147	4439.865	-4285.113	1	6170.462	-43.98387	1.020685E-008	0.0111125	7
	34	12	397.9953	4623.588	-5267.76	1	7009.056	-48.72611	2.090784E-009	0.0110616	7
	35	12	315.5048	4837.136	-6455.985	1	8067.07	-53.15768	3.055046E-009	0.0110605	7
	36	13	252.4038	5086.391	-7864.617	1	9366.086	-57.10749	3.125555E-009	0.011061	7
	37	13	198.6229	5425.269	-9733.64	1	11143.49	-60.86588	4.804039E-010	0.0110005	6
	38	13	158.3615	5830.678	-11918.48	1	13268.27	-63.93151	8.276748E-010	0.0109957	6
	39	14	125.558	6364.838	-14676.48	1	15997.2	-66.55478	6.359703E-010	0.010999	6
	40	14	100.4464	7036.176	-17945.06	1	19275.19	-68.59008	-3.7611E-011	0.0109956	6
	41	14	79.00281	8010.591	-22231.9	1	23631.06	-70.18491	-7.312401E-010	0.0109898	6
	42	15	63.3446	8886.058	-27031.53	1	28454.62	-71.80279	2.610507E-010	0.0109938	6
	43	15	49.86702	10628.71	-33366.4	1	35018.37	-72.33096	-1.956523E-010	0.0109909	6
	44	15	39.72458	12880.62	-40824.64	1	42808.43	-72.48895	5.753469E-010	0.0109981	6
	45	16	31.6723	15801.4	-49681	1	52133.34	-72.35636	9.048791E-010	0.010998	6
	46	16	24.93351	19727.87	-60747.31	1	63870.37	-72.00864	-4.162229E-010	0.0109949	6
	47	16	19.86229	24731.93	-73393.86	1	77448.87	-71.37744	-1.171731E-009	0.0109959	6
	48	17	15.83615	30934.24	-87749.88	1	93042.84	-70.58105	3.288876E-010	0.0109926	6
	49	17	12.40079	40400.09	-106286.5	1	113705.7	-69.18792	-6.127336E-010	0.011	5
	50	17	9.93114	51245.74	-125287.4	1	135362.7	-67.75419	5.639846E-010	0.0110009	5
	51	18	7.944915	64769.1	-146639.9	1	160306.9	-66.16953	3.00231E-010	0.0109902	5
	52	19	6.317385	81151.38	-171493.9	1	189725.4	-64.67636	3.489578E-010	0.0109868	5
	53	19	5.008013	101223.7	-199262.7	1	223499.1	-63.06984	-1.993836E-010	0.0109849	5
	54	20	3.945707	125102	-230295.3	1	262081	-61.48812	2.425033E-011	0.0110019	5
	55	22	3.158693	150671.4	-263136.4	1	303220.5	-60.20463	-7.541796E-010	0.0110023	5
	56	23	2.504006	179551.7	-300858.7	1	350363.8	-59.17136	-5.411372E-010	0.010987	5
	57	25	1.998082	210856.8	-342296.7	1	402029.3	-58.36668	-1.356462E-010	0.0110373	5
	58	26	1.584686	244438.3	-391272.9	1	461350.8	-58.00592	-1.714073E-010	0.0110139	5
	59	28	1.266892	281437.9	-446425.5	1	527733.9	-57.77164	-1.991396E-010	0.0109712	5
	60	31	0.999041	325033.8	-516759	1	610480.9	-57.83071	-2.039517E-010	0.0109518	5
