EXPLAIN
TAG	EISPOT
TITLE	LABEL	Potentiostatic EIS	Test &Identifier
DATE	LABEL	9/22/2019	Date
TIME	LABEL	10:45:10	Time
NOTES	NOTES	1	&Notes...
	
PSTAT	PSTAT	REF600-11020	Potentiostat
VDC	POTEN	0.00000E+000	T	DC &Voltage (V)
FREQINIT	QUANT	1.00000E+006	Initial Fre&q. (Hz)
FREQFINAL	QUANT	1.00000E+000	Final Fre&q. (Hz)
PTSPERDEC	QUANT	1.00000E+001	Points/&decade
VAC	QUANT	2.50000E+001	AC &Voltage (mV rms)
AREA	QUANT	1.00000E-002	&Area (cm^2)
CONDIT	TWOPARAM	T	5.00000E+000	0.00000E+000	Conditionin&g	Time(s)	E(V)
DELAY	TWOPARAM	T	5.00000E+000	0.00000E+000	Init. De&lay	Time(s)	Stab.(mV/s)
SPEED	SELECTOR	1	&Optimize for:
ZGUESS	QUANT	1.00000E+004	E&stimated Z (ohms)
OCVCURVE	TABLE	19
	Pt	T	Vf	Vm	Ach	Over
	#	s	V vs. Ref.	V	V	bits
	0	0.258333	-1.49480E-003	-1.49480E-003	5.79799E-004	...........
	1	0.516667	-1.50543E-003	-2.05101E-003	5.75066E-004	...........
	2	0.775	-1.56642E-003	-2.35550E-003	5.73132E-004	...........
	3	1.03333	-1.73295E-003	-3.07329E-003	5.73499E-004	...........
	4	1.29167	-2.03390E-003	-3.49605E-003	5.77599E-004	...........
	5	1.55	-2.45090E-003	-3.90840E-003	5.76132E-004	...........
	6	1.80833	-2.92788E-003	-4.30423E-003	5.75966E-004	...........
	7	2.06667	-3.40464E-003	-4.68215E-003	5.75099E-004	...........
	8	2.325	-3.84948E-003	-5.03994E-003	5.73599E-004	...........
	9	2.58333	-4.25901E-003	-5.37582E-003	5.78666E-004	...........
	10	2.84167	-4.63990E-003	-5.69289E-003	5.76699E-004	...........
	11	3.1	-4.99805E-003	-6.00022E-003	5.78332E-004	...........
	12	3.35833	-5.33717E-003	-6.30275E-003	5.72232E-004	...........
	13	3.61667	-5.66053E-003	-6.58971E-003	5.71599E-004	...........
	14	3.875	-5.97101E-003	-6.86266E-003	5.68932E-004	...........
	15	4.13333	-6.27002E-003	-7.12847E-003	5.74899E-004	...........
	16	4.39167	-6.55778E-003	-7.38520E-003	5.73932E-004	...........
	17	4.65	-6.83476E-003	-7.63931E-003	5.72466E-004	...........
	18	4.90833	-7.10233E-003	-7.88827E-003	5.74399E-004	...........
EOC	QUANT	-0.0071023	Open Circuit (V)
PSTATMODEL	IQUANT	4	Pstat Model
PSTATSECTION	LABEL	REF600-11020	Pstat Section
PSTATSERIALNO	LABEL	11020	Pstat Serial Number
CTRLMODE	IQUANT	1	Control Mode
IESTAB	IQUANT	0	I/E Stability
CASPEED	IQUANT	1	Control Amp Speed
CONVENTION	IQUANT	1	Current Convention
ICHRANGE	IQUANT	2	Ich Range
ICHRANGEMODE	TOGGLE	F	Ich Auto Range
ICHOFFSETENABLE	TOGGLE	T	Ich Offset Enable
ICHOFFSET	QUANT	0	Ich Offset (V)
ICHFILTER	IQUANT	3	Ich Filter
VCHRANGE	IQUANT	2	Vch Range
VCHRANGEMODE	TOGGLE	F	Vch Auto Range
VCHOFFSETENABLE	TOGGLE	T	Vch Offset Enable
VCHOFFSET	QUANT	0	Vch Offset (V)
VCHFILTER	IQUANT	3	Vch Filter
ACHRANGE	IQUANT	2	Ach Range
ACHOFFSETENABLE	TOGGLE	F	Ach Offset Enable
ACHOFFSET	QUANT	0	Ach Offset (V)
ACHFILTER	IQUANT	3	Ach Filter
IERANGELOWERLIMIT	IQUANT	1	I/E Range Lower Limit
IERANGEMODE	TOGGLE	F	I/E AutoRange
IERANGE	IQUANT	6	I/E Range
POSFEEDENABLE	TOGGLE	F	Positive Feedback IR Comp
POSFEEDRESISTANCE	QUANT	0	Positive Feedback Resistance (ohm)
ACHSELECT	IQUANT	0	Ach Select
CABLEID	IQUANT	14	Cable ID
DCCALDATE	LABEL	8/19/2019	DC Calibration Date
ACCALDATE	LABEL	8/19/2019	AC Calibration Date
THERMOSELECT	IQUANT	1	Thermo Select
FRAMEWORKVERSION	QUANT	6.33	Framework Version
INSTRUMENTVERSION	LABEL	3.50	Instrument Version
ZCURVE	TABLE
	Pt	Time	Freq	Zreal	Zimag	Zsig	Zmod	Zphz	Idc	Vdc	IERange
	#	s	Hz	ohm	ohm	V	ohm	°	A	V	#
	0	2	1000078	2451.551	-1962.256	1	3140.151	-38.67429	-1.383742E-006	-0.0047446	8
	1	3	794390.6	2848.333	-1961.97	1	3458.66	-34.55959	-3.597221E-006	-0.0042385	8
	2	4	630984.4	3224.34	-1868.763	1	3726.747	-30.09573	1.23419E-006	-0.0050584	8
	3	6	501234.4	3577.301	-1748.58	1	3981.785	-26.04932	5.791358E-007	-0.0054347	8
	4	7	398109.4	3872.328	-1595.109	1	4187.994	-22.38799	-9.597261E-007	-0.0050266	8
	5	9	316265.6	4125.48	-1411.64	1	4360.311	-18.88971	3.475028E-006	-0.006023	8
	6	10	251203.1	4308.713	-1224.59	1	4479.355	-15.86581	3.226661E-006	-0.0060225	8
	7	11	199546.9	4469.168	-1057.927	1	4592.676	-13.31773	3.235632E-006	-0.006018	8
	8	13	158578.1	4617.975	-933.5995	1	4711.401	-11.42924	4.200082E-006	-0.0062428	8
	9	14	125953.1	4675.907	-747.7182	1	4735.313	-9.085176	6.230061E-007	-0.0069222	7
	10	16	100078.1	4738.938	-656.3597	1	4784.176	-7.885501	-3.180201E-008	-0.0054068	7
	11	17	79453.13	4791.105	-589.4971	1	4827.235	-7.014411	-3.788096E-008	-0.0054707	7
	12	18	63140.62	4836.789	-537.6547	1	4866.58	-6.342926	-6.466429E-008	-0.0054082	7
	13	20	50203.12	4877.035	-502.5673	1	4902.86	-5.883433	-2.885316E-008	-0.0054965	7
	14	21	39890.62	4912.349	-481.0727	1	4935.849	-5.593214	-1.558574E-008	-0.005456	7
	15	22	31640.63	4950.415	-474.4244	1	4973.096	-5.474239	-4.015001E-008	-0.0053843	7
	16	24	25171.88	4985.313	-481.5304	1	5008.515	-5.517073	7.177618E-008	-0.0056004	7
	17	25	20015.62	5020.449	-503.4769	1	5045.632	-5.726773	-3.947963E-008	-0.0053854	7
	18	26	15890.62	5057.216	-537.5145	1	5085.701	-6.066998	1.245443E-007	-0.0056608	7
	19	28	12609.37	5097.504	-587.2086	1	5131.214	-6.571241	9.65366E-009	-0.005542	7
	20	29	10078.13	5138.03	-654.8689	1	5179.595	-7.263486	-3.475865E-008	-0.0054749	7
	21	30	8015.625	5182.446	-741.8086	1	5235.268	-8.145911	7.889326E-009	-0.005567	7
	22	32	6328.125	5233.007	-855.7288	1	5302.512	-9.287108	8.892071E-008	-0.0055401	7
	23	33	5015.625	5286.115	-997.842	1	5379.47	-10.68974	8.528899E-008	-0.0056526	7
	24	34	3984.375	5347.639	-1170.74	1	5474.292	-12.34874	7.309823E-008	-0.0055997	7
	25	36	3170.956	5414.014	-1386.244	1	5588.669	-14.36188	-3.716835E-008	-0.0053778	7
	26	37	2527.573	5491.778	-1647.383	1	5733.542	-16.6978	-4.065788E-008	-0.0054687	7
	27	39	1976.103	5584.476	-1999.881	1	5931.77	-19.70318	-3.15904E-009	-0.0054415	7
	28	40	1577.524	5688.763	-2395.354	1	6172.499	-22.83439	-3.811648E-008	-0.0054788	7
	29	41	1265.625	5809.812	-2860.341	1	6475.76	-26.21237	4.582794E-008	-0.0055404	7
	30	43	998.264	5962.994	-3485.652	1	6907.03	-30.3083	4.69806E-008	-0.0056293	7
	31	44	796.875	6134.375	-4209.498	1	7439.787	-34.45848	-6.092289E-008	-0.0054189	7
	32	45	627.7902	6359.09	-5140.361	1	8176.878	-38.95029	4.730357E-008	-0.0056299	7
	33	47	505.5147	6603.617	-6178.924	1	9043.608	-43.09708	-4.185152E-008	-0.00548	7
	34	48	397.9953	6938.576	-7571.893	1	10270.22	-47.49911	1.188758E-009	-0.0055216	6
	35	49	315.5048	7336.75	-9234.638	1	11794.34	-51.5335	9.003574E-010	-0.0055215	6
	36	51	252.4038	7808.958	-11182.84	1	13639.49	-55.07347	1.706009E-009	-0.0055235	6
	37	52	198.6229	8448.291	-13741.13	1	16130.47	-58.41605	1.133277E-009	-0.0055255	6
	38	53	158.3615	9218.81	-16698.99	1	19074.66	-61.09876	6.073398E-010	-0.0055242	6
	39	55	125.558	10224.8	-20379.54	1	22800.7	-63.3562	8.712233E-010	-0.0055268	6
	40	56	100.4464	11500.03	-24689.6	1	27236.5	-65.02464	6.63557E-010	-0.0055254	6
	41	58	79.00281	13215.71	-30312.17	1	33067.85	-66.44342	1.683367E-009	-0.0055303	6
	42	59	63.3446	15149.51	-36301.68	1	39335.99	-67.34812	6.767258E-010	-0.0055211	6
	43	60	49.86702	18718.63	-44524.92	1	48299.64	-67.19772	5.036598E-010	-0.0055313	6
	44	62	39.72458	22343.83	-53628.96	1	58097.44	-67.38157	9.851646E-010	-0.0055284	6
	45	63	31.6723	27475.48	-64107.42	1	69747.14	-66.80075	9.152635E-010	-0.0055284	6
	46	65	24.93351	34337.54	-76982.75	1	84293.59	-65.96112	6.745807E-010	-0.0055309	6
	47	66	19.86229	42945.3	-90863.45	1	100501.1	-64.70292	7.110459E-010	-0.005538	6
	48	68	15.83615	54492.93	-106417.4	1	119558.1	-62.88447	-6.159406E-010	-0.005529	5
	49	69	12.40079	67019.84	-124527.4	1	141416.9	-61.71115	5.085784E-010	-0.0055274	5
	50	70	9.93114	83647.48	-142470.7	1	165211.4	-59.58192	7.687438E-010	-0.0055232	5
	51	72	7.944915	101263.3	-161434.8	1	190566.2	-57.90115	1.638374E-009	-0.0055263	5
	52	74	6.317385	122740	-182624.7	1	220038.4	-56.09539	3.171829E-010	-0.0055026	5
	53	76	5.008013	146598.5	-205321.9	1	252285.9	-54.4734	2.804405E-010	-0.0055269	5
	54	78	3.945707	173038.1	-229789.8	1	287655.2	-53.01925	9.137777E-010	-0.0055186	5
	55	81	3.158693	199667.9	-255420.2	1	324201.7	-51.98443	1.08706E-010	-0.0055415	5
	56	84	2.504006	228872.9	-285309.4	1	365765.3	-51.26369	8.120817E-010	-0.0055128	5
	57	87	1.998082	259133.3	-318260.8	1	410414.4	-50.84694	7.634262E-010	-0.0055193	5
	58	90	1.584686	291976.7	-357797.3	1	461810.9	-50.7842	3.294108E-010	-0.0055742	5
	59	94	1.266892	324158	-403665.3	1	517710.4	-51.23426	5.940927E-010	-0.00554	5
	60	98	0.999041	362353	-463150.2	1	588054.3	-51.96158	7.39441E-011	-0.0055316	5
