EXPLAIN
TAG	EISPOT
TITLE	LABEL	Potentiostatic EIS	Test &Identifier
DATE	LABEL	10/18/2019	Date
TIME	LABEL	10:11:52	Time
NOTES	NOTES	1	&Notes...
	
PSTAT	PSTAT	REF600-11020	Potentiostat
VDC	POTEN	0.00000E+000	T	DC &Voltage (V)
FREQINIT	QUANT	1.00000E+006	Initial Fre&q. (Hz)
FREQFINAL	QUANT	1.00000E+000	Final Fre&q. (Hz)
PTSPERDEC	QUANT	1.00000E+001	Points/&decade
VAC	QUANT	2.50000E+001	AC &Voltage (mV rms)
AREA	QUANT	1.00000E-002	&Area (cm^2)
CONDIT	TWOPARAM	T	5.00000E+000	0.00000E+000	Conditionin&g	Time(s)	E(V)
DELAY	TWOPARAM	T	5.00000E+000	0.00000E+000	Init. De&lay	Time(s)	Stab.(mV/s)
SPEED	SELECTOR	0	&Optimize for:
ZGUESS	QUANT	1.00000E+005	E&stimated Z (ohms)
OCVCURVE	TABLE	19
	Pt	T	Vf	Vm	Ach	Over
	#	s	V vs. Ref.	V	V	bits
	0	0.258333	5.09769E-003	5.09769E-003	5.40133E-004	...........
	1	0.516667	5.09762E-003	5.09380E-003	5.44533E-004	...........
	2	0.775	5.09715E-003	5.08948E-003	5.42366E-004	...........
	3	1.03333	5.09601E-003	5.09696E-003	5.38099E-004	...........
	4	1.29167	5.09503E-003	5.11338E-003	5.43299E-004	...........
	5	1.55	5.09649E-003	5.12643E-003	5.45533E-004	...........
	6	1.80833	5.10240E-003	5.14552E-003	5.45199E-004	...........
	7	2.06667	5.11321E-003	5.17152E-003	5.40299E-004	...........
	8	2.325	5.12830E-003	5.18753E-003	5.41733E-004	...........
	9	2.58333	5.14652E-003	5.20678E-003	5.39899E-004	...........
	10	2.84167	5.16615E-003	5.22270E-003	5.40333E-004	...........
	11	3.1	5.18553E-003	5.23889E-003	5.46866E-004	...........
	12	3.35833	5.20414E-003	5.26900E-003	5.41599E-004	...........
	13	3.61667	5.22279E-003	5.28541E-003	5.39533E-004	...........
	14	3.875	5.24254E-003	5.30692E-003	5.38633E-004	...........
	15	4.13333	5.26326E-003	5.32570E-003	5.37366E-004	...........
	16	4.39167	5.28392E-003	5.33699E-003	5.40699E-004	...........
	17	4.65	5.30336E-003	5.35190E-003	5.43399E-004	...........
	18	4.90833	5.32052E-003	5.34977E-003	5.39799E-004	...........
EOC	QUANT	0.0053205	Open Circuit (V)
PSTATMODEL	IQUANT	4	Pstat Model
PSTATSECTION	LABEL	REF600-11020	Pstat Section
PSTATSERIALNO	LABEL	11020	Pstat Serial Number
CTRLMODE	IQUANT	1	Control Mode
IESTAB	IQUANT	0	I/E Stability
CASPEED	IQUANT	1	Control Amp Speed
CONVENTION	IQUANT	1	Current Convention
ICHRANGE	IQUANT	2	Ich Range
ICHRANGEMODE	TOGGLE	F	Ich Auto Range
ICHOFFSETENABLE	TOGGLE	T	Ich Offset Enable
ICHOFFSET	QUANT	0	Ich Offset (V)
ICHFILTER	IQUANT	3	Ich Filter
VCHRANGE	IQUANT	2	Vch Range
VCHRANGEMODE	TOGGLE	F	Vch Auto Range
VCHOFFSETENABLE	TOGGLE	T	Vch Offset Enable
VCHOFFSET	QUANT	0	Vch Offset (V)
VCHFILTER	IQUANT	3	Vch Filter
ACHRANGE	IQUANT	2	Ach Range
ACHOFFSETENABLE	TOGGLE	F	Ach Offset Enable
ACHOFFSET	QUANT	0	Ach Offset (V)
ACHFILTER	IQUANT	3	Ach Filter
IERANGELOWERLIMIT	IQUANT	1	I/E Range Lower Limit
IERANGEMODE	TOGGLE	F	I/E AutoRange
IERANGE	IQUANT	4	I/E Range
POSFEEDENABLE	TOGGLE	F	Positive Feedback IR Comp
POSFEEDRESISTANCE	QUANT	0	Positive Feedback Resistance (ohm)
ACHSELECT	IQUANT	0	Ach Select
CABLEID	IQUANT	14	Cable ID
DCCALDATE	LABEL	8/19/2019	DC Calibration Date
ACCALDATE	LABEL	8/19/2019	AC Calibration Date
THERMOSELECT	IQUANT	1	Thermo Select
FRAMEWORKVERSION	QUANT	6.33	Framework Version
INSTRUMENTVERSION	LABEL	3.50	Instrument Version
ZCURVE	TABLE
	Pt	Time	Freq	Zreal	Zimag	Zsig	Zmod	Zphz	Idc	Vdc	IERange
	#	s	Hz	ohm	ohm	V	ohm	°	A	V	#
	0	1	1000078	2672.389	-1674.018	1	3153.41	-32.06354	1.981575E-006	0.0071654	8
	1	1	794390.6	2980.563	-1587.654	1	3377.04	-28.04285	-3.533553E-006	0.0077581	8
	2	2	630984.4	3255.349	-1465.836	1	3570.15	-24.24134	4.905224E-007	0.0072068	8
	3	2	501234.4	3504.561	-1351.357	1	3756.076	-21.08662	4.319072E-006	0.0061199	8
	4	2	398109.4	3684.374	-1208.643	1	3877.555	-18.16185	-5.099803E-006	0.00799	8
	5	3	316265.6	3826.932	-1093.894	1	3980.202	-15.9521	1.442814E-006	0.0066196	8
	6	3	251203.1	3992.642	-957.923	1	4105.948	-13.49151	-3.148522E-006	0.0075177	8
	7	3	199546.9	4107.15	-844.3383	1	4193.041	-11.61689	4.02351E-006	0.0061102	8
	8	4	158578.1	4193.013	-738.8186	1	4257.606	-9.99307	-1.342822E-006	0.0071169	8
	9	4	125953.1	4290.065	-611.5287	1	4333.432	-8.112593	6.391429E-008	0.0067967	7
	10	4	100078.1	4349.965	-553.4557	1	4385.032	-7.250911	-3.629167E-008	0.00684	7
	11	5	79453.13	4400.635	-508.6621	1	4429.936	-6.593463	-4.019221E-008	0.0068538	7
	12	5	63140.62	4450.044	-481.0971	1	4475.975	-6.170318	-3.763562E-008	0.0068341	7
	13	5	50203.12	4494.902	-460.4581	1	4518.425	-5.84898	-5.93442E-009	0.0068461	7
	14	6	39890.62	4535.654	-449.3759	1	4557.861	-5.658189	-1.91487E-008	0.0069574	7
	15	6	31640.63	4578.91	-448.0233	1	4600.776	-5.588315	-4.805108E-008	0.0069092	7
	16	6	25171.88	4619.242	-455.3162	1	4641.627	-5.629429	-5.943858E-008	0.0069869	7
	17	6	20015.62	4643.443	-460.0742	1	4666.179	-5.658422	-4.538822E-008	0.0068355	7
	18	7	15890.62	4699.284	-502.743	1	4726.1	-6.106442	-5.693044E-008	0.0069818	7
	19	7	12609.37	4741.757	-543.9326	1	4772.853	-6.543864	-4.842458E-008	0.0069085	7
	20	7	10078.13	4780.437	-599.6818	1	4817.904	-7.150118	-1.715781E-008	0.0069548	7
	21	8	8015.625	4801.752	-643.9265	1	4844.736	-7.637933	3.705269E-008	0.0067652	7
	22	8	6328.125	4864.896	-772.7452	1	4925.886	-9.025519	-1.687341E-008	0.0067677	7
	23	8	5015.625	4913.036	-898.947	1	4994.6	-10.36882	-8.405064E-009	0.0068225	7
	24	9	3984.375	4935.052	-1032.143	1	5041.831	-11.81287	-2.11271E-008	0.0067822	7
	25	9	3170.956	5018.244	-1244.436	1	5170.241	-13.92739	-1.835954E-008	0.0068575	7
	26	9	2527.573	5082.823	-1479.966	1	5293.901	-16.23398	-8.170666E-009	0.006851	7
	27	10	1976.103	5162.928	-1801.463	1	5468.189	-19.23504	-5.973483E-009	0.0068276	7
	28	10	1577.524	5307.194	-2173.581	1	5735.047	-22.27174	-3.854826E-008	0.0068261	7
	29	10	1265.625	5350.207	-2589.826	1	5944.065	-25.82981	-4.592111E-008	0.0068265	7
	30	11	998.264	5468.467	-3165.089	1	6318.379	-30.06179	-3.776167E-008	0.0068372	7
	31	11	796.875	5613.823	-3825.271	1	6793.21	-34.2706	-1.60883E-008	0.00676	7
	32	11	627.7902	5789.708	-4696.456	1	7455.026	-39.04804	-5.634251E-008	0.0069684	7
	33	12	505.5147	5992.677	-5658.8	1	8242.22	-43.35862	-4.748227E-008	0.0068247	7
	34	12	397.9953	6271.956	-6980.462	1	9384.257	-48.06026	1.346732E-009	0.0068234	7
	35	12	315.5048	6613.488	-8555.649	1	10813.76	-52.2961	1.340086E-009	0.0067546	6
	36	13	252.4038	7034.09	-10411.47	1	12564.92	-55.95665	-3.603016E-010	0.0067522	6
	37	13	198.6229	7613.375	-12849.87	1	14935.95	-59.35383	6.453247E-010	0.0067565	6
	38	13	158.3615	8335.607	-15673.17	1	17751.92	-61.99421	-8.673995E-010	0.0067534	6
	39	13	125.558	9295.586	-19189.62	1	21322.51	-64.15412	-1.584164E-010	0.0067543	6
	40	14	100.4464	10548.45	-23241.96	1	25523.68	-65.58891	2.023567E-009	0.0067483	6
	41	14	79.00281	12423.57	-28553.27	1	31138.96	-66.48607	-1.298871E-010	0.0067483	6
	42	14	63.3446	13919.98	-34595.49	1	37290.93	-68.08192	-7.109515E-010	0.0067458	6
	43	15	49.86702	17165.82	-41926.65	1	45304.63	-67.73458	-1.565817E-010	0.0067501	6
	44	15	39.72458	21492.4	-50338.43	1	54734.64	-66.87955	5.493677E-010	0.0067512	6
	45	16	31.6723	26884.96	-59868.52	1	65628.05	-65.81674	1.498483E-009	0.0067501	6
	46	16	24.93351	33418.34	-71229.68	1	78679.43	-64.86576	-8.058569E-010	0.0067473	6
	47	16	19.86229	41543.52	-83635.11	1	93384.66	-63.58533	-2.290312E-009	0.0067514	6
	48	16	15.83615	50930.73	-96727.6	1	109316.8	-62.2315	4.307811E-010	0.0067531	5
	49	17	12.40079	63460.86	-113463.5	1	130004.8	-60.78144	-2.402506E-010	0.0067597	5
	50	17	9.93114	77716.2	-128280.7	1	149985.8	-58.79128	1.153517E-009	0.006757	5
	51	18	7.944915	92592.16	-144905.1	1	171961.6	-57.42203	1.418835E-009	0.006756	5
	52	18	6.317385	110691.1	-164084.2	1	197929.7	-55.99641	7.270528E-010	0.0067431	5
	53	19	5.008013	130484.8	-185496.6	1	226793.5	-54.8761	5.27861E-010	0.0067634	5
	54	20	3.945707	152137.3	-209785.8	1	259144.4	-54.05025	-5.466221E-011	0.0067583	5
	55	22	3.158693	174020.9	-235534.9	1	292848.1	-53.54179	-1.363808E-010	0.0067412	5
	56	23	2.504006	198944.2	-266971.1	1	332945	-53.30688	2.33579E-010	0.0067444	5
	57	24	1.998082	224112.2	-302363.1	1	376363.8	-53.45407	1.119671E-011	0.0067458	5
	58	26	1.584686	254161.9	-345640.3	1	429028.6	-53.6716	-1.32093E-010	0.0067054	5
	59	28	1.266892	285454.5	-395890.9	1	488071.6	-54.20676	-2.56081E-011	0.0067112	5
	60	30	0.999041	321163.4	-458242.5	1	559582.1	-54.97496	-8.389995E-011	0.0067313	5
