EXPLAIN
TAG	EISPOT
TITLE	LABEL	Potentiostatic IDE	Test &Identifier
DATE	LABEL	9/12/2019	Date
TIME	LABEL	10:08:26	Time
NOTES	NOTES	1	&Notes...
	
PSTAT	PSTAT	REF600-11020	Potentiostat
VDC	POTEN	0.00000E+000	T	DC &Voltage (V)
FREQINIT	QUANT	1.00000E+006	Initial Fre&q. (Hz)
FREQFINAL	QUANT	1.00000E+000	Final Fre&q. (Hz)
PTSPERDEC	QUANT	1.00000E+001	Points/&decade
VAC	QUANT	2.50000E+001	AC &Voltage (mV rms)
AREA	QUANT	1.00000E-002	&Area (cm^2)
CONDIT	TWOPARAM	T	5.00000E+000	0.00000E+000	Conditionin&g	Time(s)	E(V)
DELAY	TWOPARAM	T	5.00000E+000	0.00000E+000	Init. De&lay	Time(s)	Stab.(mV/s)
SPEED	SELECTOR	1	&Optimize for:
ZGUESS	QUANT	1.00000E+007	E&stimated Z (ohms)
OCVCURVE	TABLE	19
	Pt	T	Vf	Vm	Ach	Over
	#	s	V vs. Ref.	V	V	bits
	0	0.258333	6.47835E-003	6.47835E-003	5.59732E-004	...........
	1	0.516667	6.47707E-003	6.41110E-003	5.62732E-004	...........
	2	0.775	6.46940E-003	6.35900E-003	5.62699E-004	...........
	3	1.03333	6.44885E-003	6.32982E-003	5.61732E-004	...........
	4	1.29167	6.41538E-003	6.30883E-003	5.57132E-004	...........
	5	1.55	6.37708E-003	6.29407E-003	5.57866E-004	...........
	6	1.80833	6.34300E-003	6.29229E-003	5.61366E-004	...........
	7	2.06667	6.31802E-003	6.29727E-003	5.67099E-004	...........
	8	2.325	6.30316E-003	6.30138E-003	5.64532E-004	...........
	9	2.58333	6.29710E-003	6.30439E-003	5.62266E-004	...........
	10	2.84167	6.29691E-003	6.30273E-003	5.63299E-004	...........
	11	3.1	6.29953E-003	6.32028E-003	5.61732E-004	...........
	12	3.35833	6.30365E-003	6.32903E-003	5.67332E-004	...........
	13	3.61667	6.30975E-003	6.33871E-003	5.62732E-004	...........
	14	3.875	6.31805E-003	6.34905E-003	5.61932E-004	...........
	15	4.13333	6.32782E-003	6.36365E-003	5.65166E-004	...........
	16	4.39167	6.33853E-003	6.37884E-003	5.61732E-004	...........
	17	4.65	6.35010E-003	6.38034E-003	5.64866E-004	...........
	18	4.90833	6.36199E-003	6.40000E-003	5.69266E-004	...........
EOC	QUANT	0.006362	Open Circuit (V)
PSTATMODEL	IQUANT	4	Pstat Model
PSTATSECTION	LABEL	REF600-11020	Pstat Section
PSTATSERIALNO	LABEL	11020	Pstat Serial Number
CTRLMODE	IQUANT	1	Control Mode
IESTAB	IQUANT	0	I/E Stability
CASPEED	IQUANT	1	Control Amp Speed
CONVENTION	IQUANT	1	Current Convention
ICHRANGE	IQUANT	2	Ich Range
ICHRANGEMODE	TOGGLE	F	Ich Auto Range
ICHOFFSETENABLE	TOGGLE	T	Ich Offset Enable
ICHOFFSET	QUANT	0	Ich Offset (V)
ICHFILTER	IQUANT	3	Ich Filter
VCHRANGE	IQUANT	2	Vch Range
VCHRANGEMODE	TOGGLE	F	Vch Auto Range
VCHOFFSETENABLE	TOGGLE	T	Vch Offset Enable
VCHOFFSET	QUANT	0	Vch Offset (V)
VCHFILTER	IQUANT	3	Vch Filter
ACHRANGE	IQUANT	2	Ach Range
ACHOFFSETENABLE	TOGGLE	F	Ach Offset Enable
ACHOFFSET	QUANT	0	Ach Offset (V)
ACHFILTER	IQUANT	3	Ach Filter
IERANGELOWERLIMIT	IQUANT	1	I/E Range Lower Limit
IERANGEMODE	TOGGLE	F	I/E AutoRange
IERANGE	IQUANT	3	I/E Range
POSFEEDENABLE	TOGGLE	F	Positive Feedback IR Comp
POSFEEDRESISTANCE	QUANT	0	Positive Feedback Resistance (ohm)
ACHSELECT	IQUANT	0	Ach Select
CABLEID	IQUANT	14	Cable ID
DCCALDATE	LABEL	8/19/2019	DC Calibration Date
ACCALDATE	LABEL	8/19/2019	AC Calibration Date
THERMOSELECT	IQUANT	1	Thermo Select
FRAMEWORKVERSION	QUANT	6.33	Framework Version
INSTRUMENTVERSION	LABEL	3.50	Instrument Version
ZCURVE	TABLE
	Pt	Time	Freq	Zreal	Zimag	Zsig	Zmod	Zphz	Idc	Vdc	IERange
	#	s	Hz	ohm	ohm	V	ohm	°	A	V	#
	0	2	1000078	2511.917	-1764.887	1	3069.943	-35.09209	5.112962E-007	0.0092042	8
	1	3	794390.6	2864.702	-1681.373	1	3321.677	-30.40985	-4.766564E-006	0.0091841	8
	2	4	630984.4	3188.442	-1548.288	1	3544.483	-25.90093	3.605089E-006	0.0075812	8
	3	6	501234.4	3430.639	-1383.858	1	3699.236	-21.96826	4.841138E-006	0.0070636	8
	4	7	398109.4	3642.106	-1199.72	1	3834.614	-18.23203	2.268715E-006	0.0074121	8
	5	9	316265.6	3764.477	-1038.453	1	3905.083	-15.42183	4.032011E-008	0.0078364	8
	6	10	251203.1	3886.531	-893.8022	1	3987.983	-12.95136	6.1831E-007	0.0078143	8
	7	12	199546.9	3959.827	-756.9561	1	4031.527	-10.82204	-1.034521E-006	0.0081214	8
	8	13	158578.1	4025.634	-666.0731	1	4080.366	-9.394924	-1.674118E-006	0.0082304	8
	9	14	125953.1	4108.887	-540.6107	1	4144.299	-7.495414	3.473487E-007	0.007215	7
	10	16	100078.1	4134.456	-480.5784	1	4162.292	-6.630159	-5.94223E-009	0.007841	7
	11	17	79453.13	4167.62	-450.4565	1	4191.893	-6.168857	8.996307E-008	0.0077024	7
	12	18	63140.62	4203.136	-435.1071	1	4225.597	-5.910186	-3.829445E-009	0.0078281	7
	13	20	50203.12	4236.887	-427.9218	1	4258.442	-5.767266	-4.140424E-009	0.0078235	7
	14	21	39890.62	4271.444	-438.5045	1	4293.893	-5.861425	-3.919831E-008	0.0079364	7
	15	22	31640.63	4307.083	-449.5233	1	4330.478	-5.958297	7.882556E-008	0.0078471	7
	16	24	25171.88	4347.08	-478.5118	1	4373.337	-6.281635	-4.243562E-009	0.0078188	7
	17	25	20015.62	4387.249	-516.5844	1	4417.558	-6.715471	3.612444E-008	0.0078542	7
	18	26	15890.62	4433.288	-569.1727	1	4469.675	-7.315963	-1.132891E-008	0.0079298	7
	19	28	12609.37	4484.76	-633.3224	1	4529.257	-8.037963	-4.564139E-008	0.0079128	7
	20	29	10078.13	4538.399	-713.1799	1	4594.093	-8.930626	-5.488171E-008	0.0079856	7
	21	30	8015.625	4598.472	-808.6147	1	4669.026	-9.97317	7.985384E-008	0.0077427	7
	22	32	6328.125	4669.596	-930.0482	1	4761.315	-11.26425	9.142104E-008	0.0076937	7
	23	33	5015.625	4744.988	-1075.838	1	4865.423	-12.77477	-7.522664E-008	0.0079905	7
	24	34	3984.375	4827.711	-1249.704	1	4986.838	-14.51305	-4.332859E-008	0.008019	7
	25	36	3170.956	4920.798	-1458.349	1	5132.352	-16.50795	-4.1508E-008	0.0080245	7
	26	37	2527.573	5023.663	-1705.205	1	5305.178	-18.74899	7.830517E-008	0.0077261	7
	27	38	1976.103	5149.049	-2035.795	1	5536.891	-21.57251	1.442845E-007	0.0076589	7
	28	40	1577.524	5279.76	-2400.284	1	5799.761	-24.44749	4.955595E-008	0.0077308	7
	29	41	1265.625	5435.344	-2847.871	1	6136.231	-27.65248	-3.553531E-008	0.007883	7
	30	42	998.264	5592.697	-3400.632	1	6545.423	-31.30164	-1.869762E-008	0.0080283	7
	31	44	796.875	5781.376	-4055.562	1	7062.003	-35.04917	4.701404E-008	0.0077213	7
	32	45	627.7902	6007.677	-4904.615	1	7755.477	-39.2279	8.158151E-008	0.0078481	7
	33	46	505.5147	6243.734	-5842.091	1	8550.687	-43.09661	-2.091273E-008	0.008022	7
	34	48	397.9953	6554.039	-7112.889	1	9672.05	-47.34156	5.84421E-009	0.0078832	7
	35	49	315.5048	6904.91	-8626.396	1	11049.55	-51.32483	1.86562E-009	0.0078227	6
	36	51	252.4038	7295.91	-10408.22	1	12710.68	-54.97047	9.74835E-010	0.0078232	6
	37	52	198.6229	7789.252	-12757.18	1	14947.17	-58.59268	8.971269E-010	0.0078249	6
	38	53	158.3615	8347.265	-15489.34	1	17595.35	-61.6796	6.80346E-010	0.0078253	6
	39	55	125.558	9029.296	-18944.88	1	20986.59	-64.51713	9.774968E-010	0.0078283	6
	40	56	100.4464	9805.55	-23013.76	1	25015.63	-66.92244	8.982047E-010	0.0078249	6
	41	57	79.00281	10843.82	-28406.48	1	30405.87	-69.10626	1.17705E-009	0.0078282	6
	42	59	63.3446	12362.72	-34289.99	1	36450.52	-70.17403	1.256802E-009	0.0078191	6
	43	60	49.86702	13963.01	-42957.04	1	45169.37	-71.99346	1.344392E-009	0.0078202	6
	44	61	39.72458	16056.88	-52143.26	1	54559.54	-72.88442	1.304149E-009	0.0078235	6
	45	63	31.6723	18985.24	-63915.42	1	66675.48	-73.45663	1.983177E-010	0.0078217	6
	46	64	24.93351	22753.52	-78679.62	1	81903.63	-73.87055	1.06288E-009	0.0078212	6
	47	65	19.86229	27726.4	-95786.9	1	99719	-73.85643	1.374059E-009	0.0078305	6
	48	67	15.83615	34335.68	-116756.8	1	121700.8	-73.61252	1.253113E-009	0.0078292	5
	49	68	12.40079	43928.25	-143657	1	150223.3	-72.99712	-8.795607E-011	0.0078336	5
	50	69	9.93114	54652.77	-172238.2	1	180701.2	-72.39529	2.997024E-010	0.0078385	5
	51	71	7.944915	69276.95	-205736.3	1	217086.9	-71.39024	2.960795E-010	0.0078237	5
	52	73	6.317385	88052.56	-247118	1	262336.7	-70.38811	2.86657E-010	0.0078244	5
	53	75	5.008013	112909.6	-295551.3	1	316384.5	-69.09161	5.208163E-011	0.0078172	5
	54	77	3.945707	145314.8	-352605.9	1	381375.6	-67.60262	4.638501E-010	0.007829	5
	55	80	3.158693	183832.9	-412582.3	1	451684.3	-65.98385	2.177509E-010	0.007843	5
	56	83	2.504006	233001.3	-483124.7	1	536375.9	-64.25292	2.406501E-010	0.0078169	5
	57	86	1.998082	289805.4	-559360.2	1	629976.9	-62.61126	-7.007902E-011	0.0078121	5
	58	89	1.584686	361207.5	-641814.4	1	736475.8	-60.62957	6.882555E-011	0.0078627	5
	59	92	1.266892	439597.5	-731109.3	1	853092.5	-58.98257	-6.60416E-011	0.0078107	5
	60	97	0.999041	538531.4	-830976.9	1	990222	-57.05393	3.266405E-010	0.0078628	5
