EXPLAIN
TAG	EISPOT
TITLE	LABEL	Potentiostatic IDE	Test &Identifier
DATE	LABEL	9/16/2019	Date
TIME	LABEL	10:17:29	Time
NOTES	NOTES	1	&Notes...
	
PSTAT	PSTAT	REF600-11020	Potentiostat
VDC	POTEN	0.00000E+000	T	DC &Voltage (V)
FREQINIT	QUANT	1.00000E+006	Initial Fre&q. (Hz)
FREQFINAL	QUANT	1.00000E+000	Final Fre&q. (Hz)
PTSPERDEC	QUANT	1.00000E+001	Points/&decade
VAC	QUANT	2.50000E+001	AC &Voltage (mV rms)
AREA	QUANT	1.00000E-002	&Area (cm^2)
CONDIT	TWOPARAM	T	5.00000E+000	0.00000E+000	Conditionin&g	Time(s)	E(V)
DELAY	TWOPARAM	T	5.00000E+000	0.00000E+000	Init. De&lay	Time(s)	Stab.(mV/s)
SPEED	SELECTOR	1	&Optimize for:
ZGUESS	QUANT	1.00000E+007	E&stimated Z (ohms)
OCVCURVE	TABLE	19
	Pt	T	Vf	Vm	Ach	Over
	#	s	V vs. Ref.	V	V	bits
	0	0.258333	1.63244E-003	1.63244E-003	5.28833E-004	...........
	1	0.516667	1.61260E-003	5.93522E-004	5.28633E-004	...........
	2	0.775	1.50207E-003	2.02786E-004	5.29366E-004	...........
	3	1.03333	1.22567E-003	-2.47940E-004	5.28133E-004	...........
	4	1.29167	7.96616E-004	-7.47177E-004	5.31800E-004	...........
	5	1.55	3.00114E-004	-1.10292E-003	5.30600E-004	...........
	6	1.80833	-1.87057E-004	-1.23800E-003	5.29200E-004	...........
	7	2.06667	-6.14731E-004	-1.41113E-003	5.36833E-004	...........
	8	2.325	-9.53899E-004	-1.59327E-003	5.30800E-004	...........
	9	2.58333	-1.20852E-003	-1.76589E-003	5.32800E-004	...........
	10	2.84167	-1.40903E-003	-1.94982E-003	5.35033E-004	...........
	11	3.1	-1.58817E-003	-2.19176E-003	5.36133E-004	...........
	12	3.35833	-1.76947E-003	-2.44267E-003	5.31833E-004	...........
	13	3.61667	-1.96653E-003	-2.63681E-003	5.37833E-004	...........
	14	3.875	-2.17891E-003	-2.78976E-003	5.36033E-004	...........
	15	4.13333	-2.39245E-003	-2.95249E-003	5.35799E-004	...........
	16	4.39167	-2.59179E-003	-3.10569E-003	5.39799E-004	...........
	17	4.65	-2.77217E-003	-3.26989E-003	5.37233E-004	...........
	18	4.90833	-2.93852E-003	-3.41933E-003	5.30033E-004	...........
EOC	QUANT	-0.0029385	Open Circuit (V)
PSTATMODEL	IQUANT	4	Pstat Model
PSTATSECTION	LABEL	REF600-11020	Pstat Section
PSTATSERIALNO	LABEL	11020	Pstat Serial Number
CTRLMODE	IQUANT	1	Control Mode
IESTAB	IQUANT	0	I/E Stability
CASPEED	IQUANT	1	Control Amp Speed
CONVENTION	IQUANT	1	Current Convention
ICHRANGE	IQUANT	2	Ich Range
ICHRANGEMODE	TOGGLE	F	Ich Auto Range
ICHOFFSETENABLE	TOGGLE	T	Ich Offset Enable
ICHOFFSET	QUANT	0	Ich Offset (V)
ICHFILTER	IQUANT	3	Ich Filter
VCHRANGE	IQUANT	2	Vch Range
VCHRANGEMODE	TOGGLE	F	Vch Auto Range
VCHOFFSETENABLE	TOGGLE	T	Vch Offset Enable
VCHOFFSET	QUANT	0	Vch Offset (V)
VCHFILTER	IQUANT	3	Vch Filter
ACHRANGE	IQUANT	2	Ach Range
ACHOFFSETENABLE	TOGGLE	F	Ach Offset Enable
ACHOFFSET	QUANT	0	Ach Offset (V)
ACHFILTER	IQUANT	3	Ach Filter
IERANGELOWERLIMIT	IQUANT	1	I/E Range Lower Limit
IERANGEMODE	TOGGLE	F	I/E AutoRange
IERANGE	IQUANT	2	I/E Range
POSFEEDENABLE	TOGGLE	F	Positive Feedback IR Comp
POSFEEDRESISTANCE	QUANT	0	Positive Feedback Resistance (ohm)
ACHSELECT	IQUANT	0	Ach Select
CABLEID	IQUANT	14	Cable ID
DCCALDATE	LABEL	8/19/2019	DC Calibration Date
ACCALDATE	LABEL	8/19/2019	AC Calibration Date
THERMOSELECT	IQUANT	1	Thermo Select
FRAMEWORKVERSION	QUANT	6.33	Framework Version
INSTRUMENTVERSION	LABEL	3.50	Instrument Version
ZCURVE	TABLE
	Pt	Time	Freq	Zreal	Zimag	Zsig	Zmod	Zphz	Idc	Vdc	IERange
	#	s	Hz	ohm	ohm	V	ohm	°	A	V	#
	0	3	1000078	2450.724	-1845.477	1	3067.871	-36.98097	-9.54052E-007	-0.0005116	8
	1	4	794390.6	2813.621	-1810.108	1	3345.587	-32.7547	-2.465742E-006	-0.0006179	8
	2	6	630984.4	3177.358	-1716.434	1	3611.336	-28.37827	1.81136E-006	-0.0015078	8
	3	7	501234.4	3468.395	-1589.694	1	3815.349	-24.62374	3.138972E-006	-0.0020071	8
	4	9	398109.4	3748.987	-1427.298	1	4011.494	-20.84262	-9.409355E-007	-0.001069	8
	5	10	316265.6	3931.619	-1283.912	1	4135.947	-18.085	-1.001854E-006	-0.0010883	8
	6	12	251203.1	4096.662	-1112.742	1	4245.096	-15.19614	-6.013607E-008	-0.0015229	8
	7	13	199546.9	4209.619	-983.626	1	4323.009	-13.15186	2.276501E-006	-0.001872	8
	8	15	158578.1	4307.932	-862.9084	1	4393.505	-11.32684	-2.663037E-006	-0.0010775	8
	9	16	125953.1	4425.849	-703.7001	1	4481.443	-9.034278	1.040239E-006	-0.0036803	7
	10	18	100078.1	4473.739	-635.6423	1	4518.67	-8.086631	3.916706E-008	-0.0014854	7
	11	19	79453.13	4526.596	-592.692	1	4565.233	-7.459614	4.701029E-008	-0.0016031	7
	12	20	63140.62	4575.264	-565.9678	1	4610.137	-7.05176	1.492274E-007	-0.0016789	7
	13	22	50203.12	4620.803	-552.1668	1	4653.677	-6.814297	-7.743323E-008	-0.0013426	7
	14	23	39890.62	4666.843	-554.2222	1	4699.637	-6.772578	-4.944813E-008	-0.0012983	7
	15	24	31640.63	4717.697	-569.1471	1	4751.904	-6.878969	-9.844325E-009	-0.0014281	7
	16	26	25171.88	4769.195	-598.3386	1	4806.582	-7.150911	-4.307075E-008	-0.001431	7
	17	27	20015.62	4824.277	-640.4684	1	4866.606	-7.562334	-2.308206E-008	-0.0014764	7
	18	28	15890.62	4880.776	-700.4864	1	4930.787	-8.167288	-4.051883E-008	-0.0014434	7
	19	30	12609.37	4951.74	-768.9105	1	5011.083	-8.826447	-3.865136E-008	-0.0014465	7
	20	31	10078.13	5024.66	-853.3038	1	5096.601	-9.6382	1.497571E-007	-0.0016809	7
	21	32	8015.625	5103.873	-959.496	1	5193.279	-10.64698	-4.99576E-008	-0.0013001	7
	22	34	6328.125	5199.37	-1093.804	1	5313.178	-11.88022	-7.709653E-009	-0.0014272	7
	23	35	5015.625	5304.901	-1249.297	1	5450.021	-13.25162	-1.094603E-008	-0.0014156	7
	24	36	3984.375	5421.444	-1428.792	1	5606.559	-14.76427	-4.292695E-008	-0.0014363	7
	25	38	3170.956	5553.835	-1643.863	1	5792.009	-16.48807	2.320861E-008	-0.0015684	7
	26	39	2527.573	5696.705	-1890.772	1	6002.288	-18.36133	-7.031427E-009	-0.0014361	7
	27	40	1976.103	5870.589	-2211.245	1	6273.231	-20.63963	-1.108326E-008	-0.0014249	7
	28	42	1577.524	6052.3	-2557.108	1	6570.322	-22.90415	9.776361E-008	-0.001661	7
	29	43	1265.625	6242.026	-2958.755	1	6907.758	-25.36121	-9.235804E-009	-0.0014237	7
	30	44	998.264	6466.343	-3467.782	1	7337.514	-28.20385	4.77359E-008	-0.0016123	7
	31	46	796.875	6702.554	-4064.413	1	7838.602	-31.23252	-7.991904E-008	-0.001346	7
	32	47	627.7902	6973.118	-4825.722	1	8480.092	-34.68504	-5.131942E-008	-0.0013072	7
	33	48	505.5147	7239.686	-5660.625	1	9189.979	-38.02143	8.757848E-008	-0.0015116	7
	34	50	397.9953	7559.126	-6789.365	1	10160.5	-41.92917	4.794671E-010	-0.001509	6
	35	51	315.5048	7899.136	-8148.734	1	11348.93	-45.89107	1.074434E-009	-0.0015056	6
	36	52	252.4038	8258.195	-9761.63	1	12786.21	-49.76927	5.292727E-010	-0.0015099	6
	37	54	198.6229	8696.23	-11905.39	1	14743.23	-53.85393	7.123243E-010	-0.001507	6
	38	55	158.3615	9172.085	-14424.63	1	17093.77	-57.54924	1.565506E-009	-0.0015135	6
	39	56	125.558	9748.76	-17625.24	1	20141.68	-61.05242	9.363436E-010	-0.0015151	6
	40	58	100.4464	10396.54	-21448.97	1	23835.82	-64.14005	1.452105E-010	-0.0015128	6
	41	59	79.00281	11264.43	-26551.65	1	28842.29	-67.01111	1.688837E-009	-0.0015145	6
	42	60	63.3446	12637.01	-32131.5	1	34527.2	-68.53076	6.12969E-010	-0.001512	6
	43	62	49.86702	13805.26	-40333.91	1	42631.09	-71.10525	-4.602295E-011	-0.0015147	6
	44	63	39.72458	15699.06	-49081.09	1	51530.71	-72.26262	9.630923E-010	-0.0015039	6
	45	64	31.6723	18228.11	-60299.06	1	62993.97	-73.18019	4.512515E-010	-0.0015081	6
	46	66	24.93351	21554.3	-74465.98	1	77522.7	-73.85683	7.757808E-010	-0.0015121	6
	47	67	19.86229	26134.78	-90911.42	1	94593.41	-73.96136	1.280728E-009	-0.0015051	6
	48	68	15.83615	30457.04	-111163.2	1	115260.1	-74.67783	-1.096349E-009	-0.0015047	5
	49	70	12.40079	40928.8	-135753.4	1	141789.1	-73.22227	-6.677944E-010	-0.0014999	5
	50	71	9.93114	50509.79	-164523.2	1	172102.1	-72.93314	9.788155E-010	-0.0015081	5
	51	73	7.944915	63632.46	-198983.7	1	208910.5	-72.26638	2.511512E-010	-0.0014982	5
	52	74	6.317385	81371.71	-238102.3	1	251622.8	-71.13208	4.08408E-010	-0.0014917	5
	53	76	5.008013	104111.5	-285091	1	303506.3	-69.93847	3.95162E-010	-0.0014965	5
	54	79	3.945707	134876.9	-341799.3	1	367448.7	-68.46539	3.224695E-010	-0.0015031	5
	55	81	3.158693	169762.6	-401254.3	1	435688.4	-67.06775	2.482337E-010	-0.0015134	5
	56	85	2.504006	215870.4	-472335.5	1	519327.3	-65.43829	2.371458E-010	-0.0014979	5
	57	87	1.998082	267185.1	-547914	1	609588.1	-64.00426	4.254809E-010	-0.001492	5
	58	91	1.584686	333862.9	-634255.1	1	716759.4	-62.23832	2.416032E-010	-0.0015432	5
	59	94	1.266892	406986.5	-728226.6	1	834237.4	-60.80033	3.695359E-010	-0.0014898	5
	60	98	0.999041	500340	-838199.3	1	976175	-59.16608	-2.454023E-011	-0.0015329	5
