EXPLAIN
TAG	EISPOT
TITLE	LABEL	Potentiostatic IDE	Test &Identifier
DATE	LABEL	9/12/2019	Date
TIME	LABEL	10:40:34	Time
NOTES	NOTES	1	&Notes...
	
PSTAT	PSTAT	REF600-11020	Potentiostat
VDC	POTEN	0.00000E+000	T	DC &Voltage (V)
FREQINIT	QUANT	1.00000E+006	Initial Fre&q. (Hz)
FREQFINAL	QUANT	1.00000E+000	Final Fre&q. (Hz)
PTSPERDEC	QUANT	1.00000E+001	Points/&decade
VAC	QUANT	2.50000E+001	AC &Voltage (mV rms)
AREA	QUANT	1.00000E-002	&Area (cm^2)
CONDIT	TWOPARAM	T	5.00000E+000	0.00000E+000	Conditionin&g	Time(s)	E(V)
DELAY	TWOPARAM	T	5.00000E+000	0.00000E+000	Init. De&lay	Time(s)	Stab.(mV/s)
SPEED	SELECTOR	1	&Optimize for:
ZGUESS	QUANT	1.00000E+007	E&stimated Z (ohms)
OCVCURVE	TABLE	18
	Pt	T	Vf	Vm	Ach	Over
	#	s	V vs. Ref.	V	V	bits
	0	0.258333	5.69139E-003	5.69139E-003	5.63632E-004	...........
	1	0.516667	5.68599E-003	5.40884E-003	5.62699E-004	...........
	2	0.775	5.65565E-003	5.28796E-003	5.58799E-004	...........
	3	1.03333	5.57943E-003	5.18604E-003	5.59432E-004	...........
	4	1.29167	5.46208E-003	5.07713E-003	5.61332E-004	...........
	5	1.55	5.33038E-003	4.98918E-003	5.66632E-004	...........
	6	1.80833	5.20619E-003	4.90186E-003	5.63699E-004	...........
	7	2.06667	5.09644E-003	4.82041E-003	5.60499E-004	...........
	8	2.325	4.99965E-003	4.75403E-003	5.62399E-004	...........
	9	2.58333	4.91405E-003	4.75357E-003	5.62732E-004	...........
	10	2.84167	4.85077E-003	5.16245E-003	5.56366E-004	...........
	11	3.1	4.83122E-003	4.64723E-003	5.59299E-004	...........
	12	3.35833	4.84336E-003	4.69716E-003	5.63732E-004	...........
	13	3.61667	4.83758E-003	4.71357E-003	5.58199E-004	...........
	14	3.875	4.79191E-003	4.49466E-003	5.57999E-004	...........
	15	4.13333	4.72132E-003	4.40943E-003	5.59899E-004	...........
	16	4.39167	4.63544E-003	4.36470E-003	5.62432E-004	...........
	17	4.65	4.54042E-003	4.30366E-003	5.60666E-004	...........
EOC	QUANT	0.0044504	Open Circuit (V)
PSTATMODEL	IQUANT	4	Pstat Model
PSTATSECTION	LABEL	REF600-11020	Pstat Section
PSTATSERIALNO	LABEL	11020	Pstat Serial Number
CTRLMODE	IQUANT	1	Control Mode
IESTAB	IQUANT	0	I/E Stability
CASPEED	IQUANT	1	Control Amp Speed
CONVENTION	IQUANT	1	Current Convention
ICHRANGE	IQUANT	2	Ich Range
ICHRANGEMODE	TOGGLE	F	Ich Auto Range
ICHOFFSETENABLE	TOGGLE	T	Ich Offset Enable
ICHOFFSET	QUANT	0	Ich Offset (V)
ICHFILTER	IQUANT	3	Ich Filter
VCHRANGE	IQUANT	2	Vch Range
VCHRANGEMODE	TOGGLE	F	Vch Auto Range
VCHOFFSETENABLE	TOGGLE	T	Vch Offset Enable
VCHOFFSET	QUANT	0	Vch Offset (V)
VCHFILTER	IQUANT	3	Vch Filter
ACHRANGE	IQUANT	2	Ach Range
ACHOFFSETENABLE	TOGGLE	F	Ach Offset Enable
ACHOFFSET	QUANT	0	Ach Offset (V)
ACHFILTER	IQUANT	3	Ach Filter
IERANGELOWERLIMIT	IQUANT	1	I/E Range Lower Limit
IERANGEMODE	TOGGLE	F	I/E AutoRange
IERANGE	IQUANT	2	I/E Range
POSFEEDENABLE	TOGGLE	F	Positive Feedback IR Comp
POSFEEDRESISTANCE	QUANT	0	Positive Feedback Resistance (ohm)
ACHSELECT	IQUANT	0	Ach Select
CABLEID	IQUANT	14	Cable ID
DCCALDATE	LABEL	8/19/2019	DC Calibration Date
ACCALDATE	LABEL	8/19/2019	AC Calibration Date
THERMOSELECT	IQUANT	1	Thermo Select
FRAMEWORKVERSION	QUANT	6.33	Framework Version
INSTRUMENTVERSION	LABEL	3.50	Instrument Version
ZCURVE	TABLE
	Pt	Time	Freq	Zreal	Zimag	Zsig	Zmod	Zphz	Idc	Vdc	IERange
	#	s	Hz	ohm	ohm	V	ohm	°	A	V	#
	0	2	1000078	2537.757	-1900.182	1	3170.315	-36.82456	-6.307245E-006	0.0080058	8
	1	3	794390.6	2929.252	-1824.964	1	3451.234	-31.92347	5.428652E-006	0.0056797	8
	2	5	630984.4	3265.327	-1690.946	1	3677.18	-27.37733	1.520356E-006	0.0058837	8
	3	6	501234.4	3571.686	-1526.635	1	3884.27	-23.14317	-1.376906E-006	0.0066085	8
	4	7	398109.4	3785.484	-1342.077	1	4016.349	-19.52107	-1.670856E-006	0.0065254	8
	5	9	316265.6	3959.624	-1160.801	1	4126.268	-16.33899	2.671562E-006	0.0056491	8
	6	10	251203.1	4076.425	-1022.845	1	4202.791	-14.0857	1.175897E-006	0.0058126	8
	7	12	199546.9	4158.786	-893.478	1	4253.681	-12.12518	2.143662E-007	0.0060512	8
	8	13	158578.1	4264.89	-782.5787	1	4336.095	-10.39772	1.224121E-006	0.0058257	8
	9	15	125953.1	4358.142	-657.2693	1	4407.426	-8.576379	7.81878E-007	0.005046	7
	10	16	100078.1	4398.938	-596.6946	1	4439.223	-7.724747	8.011171E-008	0.0060986	7
	11	17	79453.13	4447.794	-564.7056	1	4483.5	-7.235734	-1.94972E-008	0.0062764	7
	12	19	63140.62	4496.351	-548.4483	1	4529.676	-6.954375	-4.116576E-008	0.0061662	7
	13	20	50203.12	4543.047	-544.9343	1	4575.613	-6.839897	-1.813452E-008	0.0062705	7
	14	21	39890.62	4590.242	-553.7168	1	4623.519	-6.878304	-5.588653E-008	0.0062267	7
	15	23	31640.63	4642.233	-574.9736	1	4677.705	-7.060532	-2.229604E-008	0.0061045	7
	16	24	25171.88	4694.186	-609.8243	1	4733.631	-7.401874	-4.059693E-008	0.0061636	7
	17	25	20015.62	4750.051	-657.1828	1	4795.297	-7.877025	-5.615689E-008	0.0062247	7
	18	27	15890.62	4812.577	-714.6411	1	4865.348	-8.446385	-2.245071E-008	0.0060967	7
	19	28	12609.37	4874.335	-801.4206	1	4939.779	-9.33683	-4.363172E-008	0.0061472	7
	20	29	10078.13	4940.809	-898.3926	1	5021.822	-10.30556	-3.539624E-008	0.0061233	7
	21	31	8015.625	5018.456	-1017.397	1	5120.546	-11.46032	-1.852675E-008	0.0062647	7
	22	32	6328.125	5104.166	-1170.272	1	5236.606	-12.91346	-9.892762E-009	0.006161	7
	23	34	5015.625	5199.023	-1353.218	1	5372.248	-14.58941	2.380087E-008	0.0060238	7
	24	35	3984.375	5302.85	-1572.485	1	5531.087	-16.51697	-3.384445E-008	0.0061195	7
	25	36	3170.956	5416.442	-1834.471	1	5718.665	-18.7105	2.489792E-008	0.0060245	7
	26	38	2527.573	5543.313	-2152.343	1	5946.503	-21.22006	-1.06835E-008	0.0061346	7
	27	39	1976.103	5702.897	-2565.373	1	6253.333	-24.21997	3.756884E-008	0.0060725	7
	28	40	1577.524	5863.27	-3035.941	1	6602.641	-27.37466	-2.017951E-008	0.0060897	7
	29	42	1265.625	6031.986	-3593.773	1	7021.4	-30.78589	2.343707E-008	0.0060071	7
	30	43	998.264	6267.673	-4305.03	1	7603.75	-34.48372	-8.714141E-009	0.006153	7
	31	44	796.875	6510.155	-5138.087	1	8293.494	-38.28198	-3.606634E-008	0.0061041	7
	32	45	627.7902	6811.787	-6207.981	1	9216.262	-42.34475	-4.351643E-008	0.0061326	7
	33	47	505.5147	7136.631	-7389.56	1	10273.12	-45.99753	-1.164874E-008	0.0061331	6
	34	48	397.9953	7548.262	-8992.844	1	11740.85	-49.99114	5.607382E-010	0.0060549	6
	35	49	315.5048	8019.594	-10899.1	1	13531.61	-53.65425	6.78178E-010	0.0060529	6
	36	51	252.4038	8556.039	-13127.33	1	15669.48	-56.90477	4.884732E-010	0.0060503	6
	37	52	198.6229	9247.638	-16053.67	1	18526.71	-60.05612	9.713367E-010	0.0060504	6
	38	53	158.3615	10026.37	-19453.21	1	21885.05	-62.73298	1.037737E-009	0.0060543	6
	39	55	125.558	11001.35	-23701.92	1	26130.64	-65.10143	7.819622E-010	0.0060548	6
	40	56	100.4464	12140.63	-28654.42	1	31120.26	-67.03804	3.443139E-010	0.00605	6
	41	57	79.00281	13696.88	-35196.61	1	37767.79	-68.73632	1.194764E-009	0.0060497	6
	42	59	63.3446	15116.69	-43149.95	1	45721.25	-70.69315	1.29243E-009	0.0060425	6
	43	60	49.86702	17686.81	-52185.34	1	55101.11	-71.27731	8.669851E-010	0.0060524	6
	44	62	39.72458	20715.26	-64080.04	1	67345.18	-72.08545	1.035366E-009	0.0060534	6
	45	63	31.6723	24170.66	-77754.32	1	81424.54	-72.73165	1.047748E-009	0.0060508	6
	46	64	24.93351	29485.63	-95663.7	1	100104.7	-72.86957	6.063536E-010	0.0060458	6
	47	66	19.86229	35951.86	-116035.2	1	121477.1	-72.78514	3.032329E-010	0.0060479	5
	48	67	15.83615	44880.84	-140451.5	1	147448	-72.27888	-2.478783E-011	0.0060578	5
	49	68	12.40079	56819.23	-172193.3	1	181325.6	-71.73848	3.832591E-010	0.0060543	5
	50	70	9.93114	71268.44	-206316.2	1	218278.6	-70.9434	9.448426E-010	0.006052	5
	51	71	7.944915	91665.73	-245779.6	1	262317	-69.54655	8.139116E-010	0.0060579	5
	52	73	6.317385	116332.8	-294592	1	316729.8	-68.4512	4.046244E-010	0.006066	5
	53	75	5.008013	149816.2	-349743.3	1	380480.3	-66.81161	4.40106E-010	0.006064	5
	54	78	3.945707	194022.1	-412786.6	1	456111.1	-64.82507	3.011587E-012	0.0060485	5
	55	80	3.158693	245532	-477330.3	1	536777.6	-62.77934	2.995268E-010	0.0060502	5
	56	84	2.504006	310010	-549697.3	1	631089	-60.57853	-9.308346E-011	0.0060541	5
	57	86	1.998082	381666.8	-620009.1	1	728066.6	-58.38427	3.809827E-010	0.0060208	5
	58	89	1.584686	465027.4	-700940.9	1	841171	-56.43839	1.031979E-010	0.006007	5
	59	93	1.266892	555395.5	-776091	1	954349	-54.41128	3.550019E-010	0.006025	5
	60	97	0.999041	658931.4	-868679.8	1	1090319	-52.8181	-7.942032E-011	0.0060458	4
