EXPLAIN
TAG	EISPOT
TITLE	LABEL	Potentiostatic EIS	Test &Identifier
DATE	LABEL	10/18/2019	Date
TIME	LABEL	9:16:36	Time
NOTES	NOTES	1	&Notes...
	
PSTAT	PSTAT	REF600-11020	Potentiostat
VDC	POTEN	0.00000E+000	T	DC &Voltage (V)
FREQINIT	QUANT	1.00000E+006	Initial Fre&q. (Hz)
FREQFINAL	QUANT	1.00000E+000	Final Fre&q. (Hz)
PTSPERDEC	QUANT	1.00000E+001	Points/&decade
VAC	QUANT	2.50000E+001	AC &Voltage (mV rms)
AREA	QUANT	1.00000E-002	&Area (cm^2)
CONDIT	TWOPARAM	T	5.00000E+000	0.00000E+000	Conditionin&g	Time(s)	E(V)
DELAY	TWOPARAM	T	5.00000E+000	0.00000E+000	Init. De&lay	Time(s)	Stab.(mV/s)
SPEED	SELECTOR	0	&Optimize for:
ZGUESS	QUANT	1.00000E+005	E&stimated Z (ohms)
OCVCURVE	TABLE	19
	Pt	T	Vf	Vm	Ach	Over
	#	s	V vs. Ref.	V	V	bits
	0	0.258333	2.43163E-003	2.43163E-003	5.45033E-004	...........
	1	0.516667	2.42780E-003	2.23090E-003	5.44799E-004	...........
	2	0.775	2.40581E-003	2.12189E-003	5.49466E-004	...........
	3	1.03333	2.34793E-003	1.97484E-003	5.55299E-004	...........
	4	1.29167	2.25083E-003	1.83317E-003	5.51599E-004	...........
	5	1.55	2.12776E-003	1.75788E-003	5.53233E-004	...........
	6	1.80833	1.99729E-003	1.64949E-003	5.49199E-004	...........
	7	2.06667	1.87321E-003	1.52261E-003	5.50466E-004	...........
	8	2.325	1.75904E-003	1.46013E-003	5.47899E-004	...........
	9	2.58333	1.65278E-003	1.36962E-003	5.50333E-004	...........
	10	2.84167	1.55362E-003	1.26057E-003	5.47199E-004	...........
	11	3.1	1.46054E-003	1.21654E-003	5.46566E-004	...........
	12	3.35833	1.37262E-003	1.14191E-003	5.50733E-004	...........
	13	3.61667	1.29034E-003	1.02696E-003	5.45799E-004	...........
	14	3.875	1.21158E-003	9.74628E-004	5.49066E-004	...........
	15	4.13333	1.13310E-003	9.19599E-004	5.49499E-004	...........
	16	4.39167	1.05675E-003	8.58324E-004	5.44499E-004	...........
	17	4.65	9.86894E-004	8.18859E-004	5.46999E-004	...........
	18	4.90833	9.24967E-004	7.61889E-004	5.45633E-004	...........
EOC	QUANT	0.000925	Open Circuit (V)
PSTATMODEL	IQUANT	4	Pstat Model
PSTATSECTION	LABEL	REF600-11020	Pstat Section
PSTATSERIALNO	LABEL	11020	Pstat Serial Number
CTRLMODE	IQUANT	1	Control Mode
IESTAB	IQUANT	0	I/E Stability
CASPEED	IQUANT	1	Control Amp Speed
CONVENTION	IQUANT	1	Current Convention
ICHRANGE	IQUANT	2	Ich Range
ICHRANGEMODE	TOGGLE	F	Ich Auto Range
ICHOFFSETENABLE	TOGGLE	T	Ich Offset Enable
ICHOFFSET	QUANT	0	Ich Offset (V)
ICHFILTER	IQUANT	3	Ich Filter
VCHRANGE	IQUANT	2	Vch Range
VCHRANGEMODE	TOGGLE	F	Vch Auto Range
VCHOFFSETENABLE	TOGGLE	T	Vch Offset Enable
VCHOFFSET	QUANT	0	Vch Offset (V)
VCHFILTER	IQUANT	3	Vch Filter
ACHRANGE	IQUANT	2	Ach Range
ACHOFFSETENABLE	TOGGLE	F	Ach Offset Enable
ACHOFFSET	QUANT	0	Ach Offset (V)
ACHFILTER	IQUANT	3	Ach Filter
IERANGELOWERLIMIT	IQUANT	1	I/E Range Lower Limit
IERANGEMODE	TOGGLE	F	I/E AutoRange
IERANGE	IQUANT	4	I/E Range
POSFEEDENABLE	TOGGLE	F	Positive Feedback IR Comp
POSFEEDRESISTANCE	QUANT	0	Positive Feedback Resistance (ohm)
ACHSELECT	IQUANT	0	Ach Select
CABLEID	IQUANT	14	Cable ID
DCCALDATE	LABEL	8/19/2019	DC Calibration Date
ACCALDATE	LABEL	8/19/2019	AC Calibration Date
THERMOSELECT	IQUANT	1	Thermo Select
FRAMEWORKVERSION	QUANT	6.33	Framework Version
INSTRUMENTVERSION	LABEL	3.50	Instrument Version
ZCURVE	TABLE
	Pt	Time	Freq	Zreal	Zimag	Zsig	Zmod	Zphz	Idc	Vdc	IERange
	#	s	Hz	ohm	ohm	V	ohm	°	A	V	#
	0	2	1000078	1397.035	-2111.959	1	2532.208	-56.51586	-1.491318E-006	0.0032968	8
	1	2	794390.6	1557.526	-2481.377	1	2929.696	-57.88408	1.926475E-006	0.002943	8
	2	2	630984.4	1765.081	-2965.788	1	3451.291	-59.24113	-8.868985E-007	0.0029001	8
	3	3	501234.4	2014.138	-3519.831	1	4055.362	-60.2207	5.492162E-007	0.0027226	8
	4	3	398109.4	2385.044	-4186.257	1	4818.006	-60.32846	-1.508888E-006	0.0029482	8
	5	3	316265.6	2818.35	-4977.169	1	5719.73	-60.47905	3.506168E-006	0.0020227	8
	6	4	251203.1	3422.439	-5866.76	1	6792.051	-59.74237	2.584189E-007	0.0026165	8
	7	4	199546.9	4205.491	-6854.397	1	8041.699	-58.46895	-1.407011E-006	0.0028903	8
	8	4	158578.1	5142.042	-8018.345	1	9525.46	-57.32857	8.025236E-007	0.0025409	8
	9	5	125953.1	6641.654	-9028.11	1	11207.96	-53.65943	7.036637E-007	0.0007865	7
	10	5	100078.1	7983.149	-10273.9	1	13010.91	-52.15166	4.091104E-011	0.0025175	7
	11	5	79453.13	9785.5	-11477.65	1	15082.86	-49.55007	1.100148E-007	0.0024934	7
	12	6	63140.62	11914.77	-12513.94	1	17278.9	-46.40502	7.312063E-009	0.0026064	7
	13	6	50203.12	14353.1	-13278.16	1	19553.03	-42.77213	-8.425071E-008	0.0026904	7
	14	6	39890.62	16963.69	-13790.1	1	21861.7	-39.10831	-5.420504E-008	0.0027849	7
	15	7	31640.63	19713.68	-13822.75	1	24076.91	-35.03721	4.05835E-008	0.002431	7
	16	7	25171.88	22333.28	-13484.3	1	26088.34	-31.12259	8.050472E-008	0.0023989	7
	17	7	20015.62	24821.78	-13260.12	1	28141.63	-28.11172	6.158182E-009	0.0026036	7
	18	8	15890.62	26819.96	-12206.55	1	29467.1	-24.47168	3.085264E-008	0.0026509	7
	19	8	12609.37	28824.53	-10868.37	1	30805.43	-20.65909	5.354029E-009	0.0023587	6
	20	8	10078.13	30237.88	-10089.32	1	31876.7	-18.45205	-7.372745E-009	0.0026072	6
	21	9	8015.625	31531.17	-9613.96	1	32964.27	-16.95664	-6.478104E-009	0.0026024	6
	22	9	6328.125	32717.82	-8809.152	1	33882.98	-15.06932	6.323994E-009	0.0025426	6
	23	9	5015.625	33609.44	-8358.764	1	34633.27	-13.96627	3.423158E-009	0.0025727	6
	24	10	3984.375	34427.37	-8329.707	1	35420.72	-13.60134	-8.216762E-009	0.0027199	6
	25	10	3170.956	35410.03	-7914.759	1	36283.79	-12.59951	1.344755E-008	0.0024164	6
	26	10	2527.573	36217.54	-7909.463	1	37071.15	-12.31927	-3.667435E-009	0.002435	6
	27	11	1976.103	36995.86	-8167.697	1	37886.73	-12.44967	3.200159E-009	0.0023371	6
	28	11	1577.524	37768.2	-7861.43	1	38577.7	-11.75819	-7.626689E-009	0.0026026	6
	29	11	1265.625	38634.48	-8758.252	1	39614.77	-12.7728	1.290936E-008	0.0024219	6
	30	11	998.264	39509.39	-9385.126	1	40608.77	-13.36248	1.309251E-008	0.0024197	6
	31	12	796.875	40404.85	-10322.8	1	41702.66	-14.33159	-9.72024E-009	0.0027159	6
	32	12	627.7902	41422.62	-11430.97	1	42970.93	-15.42735	-8.459715E-009	0.002716	6
	33	12	505.5147	42309.28	-12824.81	1	44210.3	-16.86313	-7.613411E-009	0.002651	6
	34	13	397.9953	43461.84	-14696.7	1	45879.45	-18.68306	1.317611E-009	0.0025298	6
	35	13	315.5048	44790.24	-16906.77	1	47874.88	-20.67979	-2.698008E-010	0.0025291	6
	36	13	252.4038	46268.39	-19421.39	1	50179.23	-22.77047	-3.001552E-010	0.0025291	6
	37	14	198.6229	48162.5	-22745.57	1	53263.38	-25.27983	9.062487E-010	0.00253	6
	38	14	158.3615	50282.61	-26371.95	1	56778.7	-27.67587	1.647162E-009	0.0025286	6
	39	14	125.558	52954.65	-30812.08	1	61266.46	-30.19333	1.221588E-009	0.0025327	6
	40	15	100.4464	55965.4	-36088.17	1	66591.91	-32.81514	-7.18727E-011	0.0025295	6
	41	15	79.00281	59445.5	-42386.27	1	73009.34	-35.48991	9.825525E-010	0.0025279	6
	42	15	63.3446	64526.91	-45874.06	1	79171.66	-35.41013	-2.10388E-011	0.0025229	6
	43	16	49.86702	70838.67	-54837.54	1	89583.88	-37.74412	1.834158E-009	0.002525	6
	44	16	39.72458	75895.98	-64707.98	1	99736.3	-40.4505	1.889359E-010	0.0025306	5
	45	16	31.6723	82632.81	-74660	1	111365.6	-42.09829	-1.995706E-011	0.0025288	5
	46	17	24.93351	92318.55	-86208.91	1	126311.9	-43.03996	1.173983E-010	0.0025276	5
	47	17	19.86229	102508.9	-98316	1	142035.6	-43.80396	2.915936E-010	0.00253	5
	48	17	15.83615	110337.2	-114208.6	1	158801.5	-45.98775	-1.82056E-009	0.0025276	5
	49	18	12.40079	126123.8	-129778.3	1	180968.5	-45.81818	3.14299E-010	0.002531	5
	50	18	9.93114	141720.9	-145057.3	1	202796.5	-45.66655	6.380095E-010	0.0025303	5
	51	19	7.944915	157414.9	-165132.4	1	228140.7	-46.37064	2.224622E-010	0.002528	5
	52	19	6.317385	174232.3	-187486.5	1	255945.4	-47.0985	4.135926E-010	0.0025214	5
	53	20	5.008013	194113.2	-214643.7	1	289399.1	-47.87535	5.62104E-010	0.0025333	5
	54	21	3.945707	216680.2	-246397.4	1	328118.9	-48.67182	2.040652E-010	0.0025256	5
	55	22	3.158693	242238	-281507.7	1	371383.6	-49.28793	-3.635356E-011	0.0025122	5
	56	24	2.504006	272177.1	-323696.8	1	422918.4	-49.94155	2.842151E-010	0.0025164	5
	57	25	1.998082	304278.8	-370833.4	1	479690.5	-50.6302	1.392593E-010	0.0025062	5
	58	27	1.584686	344486.2	-427754.6	1	549222	-51.15425	6.146457E-012	0.0024723	5
	59	29	1.266892	387706.8	-492318.9	1	626653.4	-51.77916	2.104412E-011	0.0024863	5
	60	31	0.999041	440548.7	-570038.7	1	720435.4	-52.30172	3.592913E-012	0.0025152	5
