EXPLAIN
TAG	EISPOT
TITLE	LABEL	Potentiostatic EIS	Test &Identifier
DATE	LABEL	10/22/2019	Date
TIME	LABEL	8:07:20	Time
NOTES	NOTES	1	&Notes...
	
PSTAT	PSTAT	REF600-11020	Potentiostat
VDC	POTEN	0.00000E+000	T	DC &Voltage (V)
FREQINIT	QUANT	1.00000E+006	Initial Fre&q. (Hz)
FREQFINAL	QUANT	1.00000E+000	Final Fre&q. (Hz)
PTSPERDEC	QUANT	1.00000E+001	Points/&decade
VAC	QUANT	2.50000E+001	AC &Voltage (mV rms)
AREA	QUANT	1.00000E-002	&Area (cm^2)
CONDIT	TWOPARAM	T	5.00000E+000	0.00000E+000	Conditionin&g	Time(s)	E(V)
DELAY	TWOPARAM	T	5.00000E+000	0.00000E+000	Init. De&lay	Time(s)	Stab.(mV/s)
SPEED	SELECTOR	1	&Optimize for:
ZGUESS	QUANT	1.00000E+005	E&stimated Z (ohms)
OCVCURVE	TABLE	19
	Pt	T	Vf	Vm	Ach	Over
	#	s	V vs. Ref.	V	V	bits
	0	0.258333	4.35779E-003	4.35779E-003	5.49099E-004	...........
	1	0.516667	4.35501E-003	4.21221E-003	5.46333E-004	...........
	2	0.775	4.33799E-003	4.07731E-003	5.44566E-004	...........
	3	1.03333	4.29036E-003	3.96419E-003	5.43566E-004	...........
	4	1.29167	4.20671E-003	3.84696E-003	5.42566E-004	...........
	5	1.55	4.09858E-003	3.76684E-003	5.37866E-004	...........
	6	1.80833	3.98416E-003	3.69898E-003	5.35066E-004	...........
	7	2.06667	3.87796E-003	3.63971E-003	5.42033E-004	...........
	8	2.325	3.78686E-003	3.57562E-003	5.41933E-004	...........
	9	2.58333	3.71014E-003	3.51441E-003	5.44166E-004	...........
	10	2.84167	3.64309E-003	3.46630E-003	5.42899E-004	...........
	11	3.1	3.58190E-003	3.42214E-003	5.39666E-004	...........
	12	3.35833	3.52559E-003	3.38294E-003	5.45433E-004	...........
	13	3.61667	3.47470E-003	3.34935E-003	5.41366E-004	...........
	14	3.875	3.42957E-003	3.32315E-003	5.42299E-004	...........
	15	4.13333	3.39009E-003	3.29211E-003	5.43066E-004	...........
	16	4.39167	3.35553E-003	3.26602E-003	5.35166E-004	...........
	17	4.65	3.32462E-003	3.24421E-003	5.33466E-004	...........
	18	4.90833	3.29645E-003	3.22537E-003	5.34300E-004	...........
EOC	QUANT	0.0032964	Open Circuit (V)
PSTATMODEL	IQUANT	4	Pstat Model
PSTATSECTION	LABEL	REF600-11020	Pstat Section
PSTATSERIALNO	LABEL	11020	Pstat Serial Number
CTRLMODE	IQUANT	1	Control Mode
IESTAB	IQUANT	0	I/E Stability
CASPEED	IQUANT	1	Control Amp Speed
CONVENTION	IQUANT	1	Current Convention
ICHRANGE	IQUANT	2	Ich Range
ICHRANGEMODE	TOGGLE	F	Ich Auto Range
ICHOFFSETENABLE	TOGGLE	T	Ich Offset Enable
ICHOFFSET	QUANT	0	Ich Offset (V)
ICHFILTER	IQUANT	3	Ich Filter
VCHRANGE	IQUANT	2	Vch Range
VCHRANGEMODE	TOGGLE	F	Vch Auto Range
VCHOFFSETENABLE	TOGGLE	T	Vch Offset Enable
VCHOFFSET	QUANT	0	Vch Offset (V)
VCHFILTER	IQUANT	3	Vch Filter
ACHRANGE	IQUANT	2	Ach Range
ACHOFFSETENABLE	TOGGLE	F	Ach Offset Enable
ACHOFFSET	QUANT	0	Ach Offset (V)
ACHFILTER	IQUANT	3	Ach Filter
IERANGELOWERLIMIT	IQUANT	1	I/E Range Lower Limit
IERANGEMODE	TOGGLE	F	I/E AutoRange
IERANGE	IQUANT	4	I/E Range
POSFEEDENABLE	TOGGLE	F	Positive Feedback IR Comp
POSFEEDRESISTANCE	QUANT	0	Positive Feedback Resistance (ohm)
ACHSELECT	IQUANT	0	Ach Select
CABLEID	IQUANT	14	Cable ID
DCCALDATE	LABEL	8/19/2019	DC Calibration Date
ACCALDATE	LABEL	8/19/2019	AC Calibration Date
THERMOSELECT	IQUANT	1	Thermo Select
FRAMEWORKVERSION	QUANT	6.33	Framework Version
INSTRUMENTVERSION	LABEL	3.50	Instrument Version
ZCURVE	TABLE
	Pt	Time	Freq	Zreal	Zimag	Zsig	Zmod	Zphz	Idc	Vdc	IERange
	#	s	Hz	ohm	ohm	V	ohm	°	A	V	#
	0	2	1000078	2437.396	-1353.447	1	2787.959	-29.04272	3.768284E-006	0.0052252	8
	1	3	794390.6	2681.621	-1237.156	1	2953.244	-24.76607	1.881236E-006	0.0044976	8
	2	5	630984.4	2880.887	-1106.404	1	3086.039	-21.00928	4.024046E-006	0.0041732	8
	3	6	501234.4	3045.201	-962.682	1	3193.745	-17.54336	-1.070298E-006	0.0049427	8
	4	7	398109.4	3167.933	-818.6858	1	3272.009	-14.48987	3.89341E-006	0.0042168	8
	5	9	316265.6	3251.898	-706.6846	1	3327.799	-12.26057	-2.807168E-007	0.0049458	8
	6	10	251203.1	3312.411	-608.2075	1	3367.786	-10.40446	-1.188428E-006	0.005093	8
	7	12	199546.9	3383.544	-516.8446	1	3422.791	-8.684937	2.907891E-006	0.0042377	8
	8	13	158578.1	3403.193	-462.0331	1	3434.413	-7.731467	-2.023231E-006	0.0052345	8
	9	14	125953.1	3455.463	-354.0905	1	3473.558	-5.850829	4.550492E-007	0.0039061	7
	10	16	100078.1	3481.26	-322.5396	1	3496.169	-5.293357	-1.936436E-008	0.004852	7
	11	17	79453.13	3505.984	-306.3779	1	3519.346	-4.994227	3.487427E-008	0.0046673	7
	12	19	63140.62	3531.178	-296.0139	1	3543.563	-4.791826	-3.641357E-008	0.0048631	7
	13	20	50203.12	3556.208	-293.9192	1	3568.333	-4.724735	3.561342E-008	0.0046585	7
	14	21	39890.62	3581.369	-297.2303	1	3593.682	-4.744303	-6.33604E-009	0.0048161	7
	15	23	31640.63	3608.129	-308.6426	1	3621.305	-4.889231	3.815594E-008	0.0047418	7
	16	24	25171.88	3635.776	-326.4908	1	3650.406	-5.131368	3.31553E-008	0.0046672	7
	17	25	20015.62	3663.951	-350.9686	1	3680.722	-5.471648	8.907696E-008	0.0047209	7
	18	27	15890.62	3695.092	-386.0023	1	3715.199	-5.963689	8.762832E-008	0.0047251	7
	19	28	12609.37	3726.94	-429.2667	1	3751.58	-6.570341	-7.385146E-008	0.0049099	7
	20	29	10078.13	3759.153	-483.7886	1	3790.156	-7.333436	-3.733246E-008	0.0048015	7
	21	31	8015.625	3800.923	-554.4816	1	3841.154	-8.299808	-1.522945E-008	0.0047535	7
	22	32	6328.125	3832.231	-640.5533	1	3885.396	-9.489204	-5.140543E-009	0.0048146	7
	23	34	5015.625	3872.722	-750.9302	1	3944.854	-10.97361	-2.96736E-008	0.0048041	7
	24	35	3984.375	3913.588	-879.2482	1	4011.141	-12.66214	7.720973E-008	0.0046153	7
	25	36	3170.956	3965.611	-1052.675	1	4102.949	-14.86636	1.291199E-007	0.0045882	7
	26	38	2527.573	4022.316	-1255.762	1	4213.782	-17.3383	-7.383587E-008	0.0049038	7
	27	39	1976.103	4089.252	-1528.657	1	4365.635	-20.49691	7.578142E-008	0.0046155	7
	28	40	1577.524	4156.566	-1839.794	1	4545.534	-23.87531	-3.606506E-008	0.004856	7
	29	42	1265.625	4245.998	-2204.579	1	4784.21	-27.43894	5.904475E-008	0.0046839	7
	30	43	998.264	4355.014	-2689.286	1	5118.438	-31.69595	-1.51973E-008	0.0047535	7
	31	44	796.875	4468.613	-3255.48	1	5528.712	-36.07414	3.755589E-008	0.0046615	7
	32	46	627.7902	4616.604	-4000.064	1	6108.481	-40.90735	-1.441943E-008	0.0047528	7
	33	47	505.5147	4772.245	-4820.895	1	6783.461	-45.29056	-1.529946E-008	0.0047607	7
	34	49	397.9953	4983.229	-5944.444	1	7756.867	-50.02689	4.188118E-009	0.0048076	7
	35	50	315.5048	5234.166	-7295.052	1	8978.545	-54.34074	5.199708E-009	0.0048047	7
	36	51	252.4038	5536.745	-8890.212	1	10473.37	-58.08572	3.99722E-010	0.0047429	6
	37	53	198.6229	5945.675	-11007.16	1	12510.34	-61.62366	7.318355E-010	0.0047438	6
	38	54	158.3615	6445.933	-13473.22	1	14935.79	-64.43236	1.060751E-009	0.004744	6
	39	55	125.558	7107.745	-16568.96	1	18029.16	-66.78166	1.049914E-009	0.0047385	6
	40	57	100.4464	7924.072	-20199.72	1	21698.38	-68.58061	1.010727E-009	0.0047393	6
	41	58	79.00281	9170.841	-24971.3	1	26602.07	-69.83398	1.026522E-009	0.0047393	6
	42	60	63.3446	10513.15	-30554.44	1	32312.54	-71.01272	6.092197E-010	0.0047351	6
	43	61	49.86702	12631.47	-37148.39	1	39237.19	-71.22056	9.587938E-010	0.0047383	6
	44	62	39.72458	15312.94	-45295.7	1	47814.08	-71.32135	7.197001E-010	0.0047451	6
	45	64	31.6723	18785.08	-54902.61	1	58027.37	-71.11147	2.378314E-010	0.0047424	6
	46	65	24.93351	23528.69	-66671.33	1	70701.23	-70.56178	5.58585E-010	0.0047395	6
	47	67	19.86229	29443.7	-79847.73	1	85103.41	-69.75864	3.98896E-010	0.0047395	6
	48	68	15.83615	36976.06	-94557.03	1	101529.6	-68.64227	1.971115E-010	0.0047425	6
	49	69	12.40079	46352.68	-114780.9	1	123787.1	-68.00937	8.647392E-010	0.0047521	5
	50	71	9.93114	57935.77	-133834.7	1	145836.5	-66.59267	3.974016E-010	0.0047505	5
	51	72	7.944915	71685.52	-156517.1	1	172152.3	-65.39201	4.316416E-010	0.004755	5
	52	74	6.317385	88129.73	-182519.2	1	202682.2	-64.22633	-2.843467E-010	0.0047628	5
	53	76	5.008013	107965.2	-212622.3	1	238463.3	-63.07948	-1.177849E-010	0.0047402	5
	54	79	3.945707	131567.9	-247339.3	1	280155	-61.99003	3.812475E-010	0.0047594	5
	55	81	3.158693	156992.9	-284931.1	1	325319	-61.14587	-1.858624E-010	0.0047383	5
	56	85	2.504006	187132.6	-329190.3	1	378661.9	-60.38337	4.07385E-010	0.004757	5
	57	87	1.998082	220394.7	-378458.8	1	437955.3	-59.78571	3.000759E-010	0.0047606	5
	58	90	1.584686	260296.8	-435858.4	1	507668.2	-59.15414	4.776093E-011	0.0047037	5
	59	94	1.266892	302045.4	-501269	1	585236.8	-58.92845	1.939038E-010	0.0047534	5
	60	98	0.999041	354378.4	-582322.9	1	681677.3	-58.67698	-2.468338E-010	0.0047195	5
