EXPLAIN
TAG	EISPOT
TITLE	LABEL	Potentiostatic EIS	Test &Identifier
DATE	LABEL	11/7/2019	Date
TIME	LABEL	10:28:22	Time
NOTES	NOTES	2	&Notes...
	
	
PSTAT	PSTAT	REF600-11020	Potentiostat
VDC	POTEN	0.00000E+000	T	DC &Voltage (V)
FREQINIT	QUANT	1.00000E+006	Initial Fre&q. (Hz)
FREQFINAL	QUANT	1.00000E+000	Final Fre&q. (Hz)
PTSPERDEC	QUANT	1.00000E+001	Points/&decade
VAC	QUANT	2.50000E+001	AC &Voltage (mV rms)
AREA	QUANT	1.00000E-002	&Area (cm^2)
CONDIT	TWOPARAM	T	5.00000E+000	0.00000E+000	Conditionin&g	Time(s)	E(V)
DELAY	TWOPARAM	T	5.00000E+000	0.00000E+000	Init. De&lay	Time(s)	Stab.(mV/s)
SPEED	SELECTOR	1	&Optimize for:
ZGUESS	QUANT	1.00000E+005	E&stimated Z (ohms)
OCVCURVE	TABLE	19
	Pt	T	Vf	Vm	Ach	Over
	#	s	V vs. Ref.	V	V	bits
	0	0.258333	6.01698E-003	6.01698E-003	5.85665E-004	...........
	1	0.516667	6.01223E-003	5.76816E-003	5.85432E-004	...........
	2	0.775	5.98346E-003	5.55404E-003	5.82765E-004	...........
	3	1.03333	5.90381E-003	5.36825E-003	5.81865E-004	...........
	4	1.29167	5.76596E-003	5.20664E-003	5.88665E-004	...........
	5	1.55	5.59122E-003	5.06929E-003	5.83065E-004	...........
	6	1.80833	5.40991E-003	4.95206E-003	5.87299E-004	...........
	7	2.06667	5.24243E-003	4.83952E-003	5.84865E-004	...........
	8	2.325	5.09576E-003	4.74220E-003	5.84632E-004	...........
	9	2.58333	4.96824E-003	4.64617E-003	5.87332E-004	...........
	10	2.84167	4.85537E-003	4.56175E-003	5.85565E-004	...........
	11	3.1	4.75151E-003	4.39333E-003	5.84165E-004	...........
	12	3.35833	4.63222E-003	3.44746E-003	5.84065E-004	...........
	13	3.61667	4.34100E-003	-1.77460E-003	5.82265E-004	...........
	14	3.875	3.56956E-003	9.87747E-005	5.85832E-004	...........
	15	4.13333	2.34800E-003	3.12995E-003	5.87732E-004	...........
	16	4.39167	1.34870E-003	1.71712E-003	5.87799E-004	...........
	17	4.65	1.12262E-003	2.48838E-003	5.86832E-004	...........
	18	4.90833	1.43306E-003	5.14208E-004	5.84499E-004	...........
EOC	QUANT	0.0014331	Open Circuit (V)
PSTATMODEL	IQUANT	4	Pstat Model
PSTATSECTION	LABEL	REF600-11020	Pstat Section
PSTATSERIALNO	LABEL	11020	Pstat Serial Number
CTRLMODE	IQUANT	1	Control Mode
IESTAB	IQUANT	0	I/E Stability
CASPEED	IQUANT	1	Control Amp Speed
CONVENTION	IQUANT	1	Current Convention
ICHRANGE	IQUANT	2	Ich Range
ICHRANGEMODE	TOGGLE	F	Ich Auto Range
ICHOFFSETENABLE	TOGGLE	T	Ich Offset Enable
ICHOFFSET	QUANT	0	Ich Offset (V)
ICHFILTER	IQUANT	3	Ich Filter
VCHRANGE	IQUANT	2	Vch Range
VCHRANGEMODE	TOGGLE	F	Vch Auto Range
VCHOFFSETENABLE	TOGGLE	T	Vch Offset Enable
VCHOFFSET	QUANT	0	Vch Offset (V)
VCHFILTER	IQUANT	3	Vch Filter
ACHRANGE	IQUANT	2	Ach Range
ACHOFFSETENABLE	TOGGLE	F	Ach Offset Enable
ACHOFFSET	QUANT	0	Ach Offset (V)
ACHFILTER	IQUANT	3	Ach Filter
IERANGELOWERLIMIT	IQUANT	1	I/E Range Lower Limit
IERANGEMODE	TOGGLE	F	I/E AutoRange
IERANGE	IQUANT	4	I/E Range
POSFEEDENABLE	TOGGLE	F	Positive Feedback IR Comp
POSFEEDRESISTANCE	QUANT	0	Positive Feedback Resistance (ohm)
ACHSELECT	IQUANT	0	Ach Select
CABLEID	IQUANT	14	Cable ID
DCCALDATE	LABEL	8/19/2019	DC Calibration Date
ACCALDATE	LABEL	8/19/2019	AC Calibration Date
THERMOSELECT	IQUANT	1	Thermo Select
FRAMEWORKVERSION	QUANT	6.33	Framework Version
INSTRUMENTVERSION	LABEL	3.50	Instrument Version
ZCURVE	TABLE
	Pt	Time	Freq	Zreal	Zimag	Zsig	Zmod	Zphz	Idc	Vdc	IERange
	#	s	Hz	ohm	ohm	V	ohm	°	A	V	#
	0	2	1000078	2052.008	-993.378	1	2279.81	-25.83165	1.588231E-005	0.0024051	8
	1	3	794390.6	2193.818	-910.5326	1	2375.27	-22.54064	-6.850368E-006	0.0039977	8
	2	4	630984.4	2329.593	-836.1257	1	2475.098	-19.74382	5.272477E-006	0.002361	8
	3	6	501234.4	2443.034	-772.5446	1	2562.273	-17.54817	-2.771115E-006	0.0028565	8
	4	7	398109.4	2542.038	-691.7373	1	2634.475	-15.22269	-5.882721E-007	0.0027514	8
	5	9	316265.6	2612.287	-639.8205	1	2689.501	-13.76237	3.23608E-006	0.002323	8
	6	10	251203.1	2688.454	-581.5636	1	2750.636	-12.20609	-1.7668E-006	0.0035362	8
	7	12	199546.9	2744.003	-548.025	1	2798.193	-11.29436	-8.881855E-007	0.0035278	8
	8	13	158578.1	2847.34	-532.0765	1	2896.627	-10.58467	6.444639E-006	0.0018636	8
	9	14	125953.1	2880.088	-456.8441	1	2916.095	-9.013254	2.770147E-006	-0.0029518	7
	10	16	100078.1	2921.463	-458.4749	1	2957.219	-8.918874	5.070199E-007	0.0012612	7
	11	17	79453.13	2973.046	-474.8496	1	3010.729	-9.074534	-6.504848E-007	0.0046939	7
	12	19	63140.62	3027.825	-498.906	1	3068.653	-9.356763	1.069768E-006	0.0022386	7
	13	20	50203.12	3085.337	-523.278	1	3129.397	-9.62586	-1.302614E-006	0.0045642	7
	14	21	39890.62	3150.459	-559.2784	1	3199.717	-10.06644	6.606361E-007	0.0031858	7
	15	23	31640.63	3217.812	-596.2751	1	3272.592	-10.49809	-3.204257E-007	0.0020984	7
	16	24	25171.88	3290.609	-642.3541	1	3352.719	-11.0457	8.946921E-008	0.0039963	7
	17	25	20015.62	3370.683	-695.4598	1	3441.681	-11.65802	1.073653E-006	0.0022332	7
	18	27	15890.62	3453.121	-755.9517	1	3534.899	-12.34829	1.030888E-006	0.001219	7
	19	28	12609.37	3541.05	-826.0418	1	3636.121	-13.13091	4.326097E-007	0.0035253	7
	20	30	10078.13	3638.585	-886.0645	1	3744.918	-13.68622	-1.288864E-006	0.0041506	7
	21	31	8015.625	3728.18	-994.19	1	3858.463	-14.93155	-1.157612E-006	0.00471	7
	22	32	6328.125	3827.512	-1107.045	1	3984.394	-16.13165	-3.209023E-007	0.0020966	7
	23	34	5015.625	3936.054	-1239.657	1	4126.653	-17.48178	8.169683E-007	0.0011328	7
	24	35	3984.375	4036.967	-1398.888	1	4272.469	-19.1122	-2.94766E-007	0.0044172	7
	25	36	3170.956	4144.09	-1586.08	1	4437.244	-20.9435	-1.107183E-006	0.0035438	7
	26	38	2527.573	4248.6	-1819.671	1	4621.883	-23.1854	-9.396804E-007	0.0047718	7
	27	39	1976.103	4365.094	-2150.321	1	4865.997	-26.22565	-1.288565E-006	0.0041417	7
	28	40	1577.524	4485.416	-2515.617	1	5142.692	-29.28561	-3.215274E-007	0.0020868	7
	29	42	1265.625	4603.335	-2964.137	1	5475.108	-32.77792	-3.207523E-007	0.0020895	7
	30	43	998.264	4742.73	-3568.138	1	5935.073	-36.95555	-1.290663E-006	0.0041445	7
	31	45	796.875	4903.446	-4280.839	1	6509.175	-41.12183	-9.426417E-007	0.004768	7
	32	46	627.7902	5086.344	-5231.2	1	7296.325	-45.80437	-7.674821E-007	0.0028209	7
	33	48	505.5147	5295.42	-6283.161	1	8217.03	-49.87596	-1.290207E-006	0.0041446	7
	34	49	397.9953	5569.126	-7737.697	1	9533.47	-54.25594	3.411943E-009	0.0030173	7
	35	50	315.5048	5903.547	-9474.92	1	11163.6	-58.07417	1.886253E-009	0.0029523	6
	36	52	252.4038	6297.738	-11526.7	1	13134.93	-61.34954	1.957195E-009	0.002954	6
	37	53	198.6229	6829.337	-14245.04	1	15797.5	-64.38607	6.869316E-010	0.0029606	6
	38	54	158.3615	7471.63	-17399.25	1	18935.66	-66.76022	8.154021E-010	0.0029531	6
	39	56	125.558	8311.053	-21375.3	1	22934.19	-68.75314	1.431537E-009	0.0029506	6
	40	57	100.4464	9350.576	-25994.17	1	27624.81	-70.21542	1.677362E-010	0.0029473	6
	41	59	79.00281	10875.96	-32178.33	1	33966.62	-71.32526	1.584393E-009	0.0029532	6
	42	60	63.3446	12223.65	-39522.32	1	41369.45	-72.81396	1.411818E-009	0.0029494	6
	43	61	49.86702	14809.6	-47562.54	1	49814.86	-72.70492	1.619423E-009	0.0029487	6
	44	63	39.72458	17860.33	-58348.79	1	61021.08	-72.98086	1.080098E-009	0.0029449	6
	45	64	31.6723	22016.69	-70760.05	1	74106.13	-72.71669	1.123715E-009	0.0029476	6
	46	66	24.93351	27140.97	-86718.34	1	90866.41	-72.621	7.226791E-010	0.0029465	6
	47	67	19.86229	33842.06	-104726.7	1	110058.9	-72.09194	5.400876E-011	0.0029551	5
	48	69	15.83615	43173.82	-126369.1	1	133540.7	-71.13734	1.048665E-010	0.0029408	5
	49	70	12.40079	55353	-154183.4	1	163818.4	-70.25149	-7.756895E-010	0.0029485	5
	50	71	9.93114	69371.24	-182034.2	1	194804.6	-69.1387	1.395261E-010	0.0029606	5
	51	73	7.944915	86219.65	-212813.2	1	229615.5	-67.94505	-6.972702E-010	0.0029552	5
	52	75	6.317385	110126.2	-252039.3	1	275048.4	-66.39753	4.392297E-010	0.0029397	5
	53	77	5.008013	138751	-295844.4	1	326765.6	-64.87343	3.140652E-010	0.0029599	5
	54	79	3.945707	173548.1	-345358	1	386511.5	-63.31971	-8.769423E-011	0.0029421	5
	55	82	3.158693	212213.6	-396060.1	1	449330.9	-61.81707	3.138585E-010	0.0029654	5
	56	86	2.504006	258519.8	-455616.9	1	523850.4	-60.42916	-1.929661E-010	0.0029484	5
	57	88	1.998082	308203.4	-517391.3	1	602231.7	-59.21828	2.627391E-010	0.0029478	5
	58	91	1.584686	367734.4	-593152.9	1	697896.1	-58.20251	8.388074E-011	0.0030003	5
	59	95	1.266892	428370.1	-673743.1	1	798392.6	-57.55154	-6.935391E-011	0.0029716	5
	60	99	0.999041	500191.2	-772379.5	1	920196.4	-57.073	2.640778E-010	0.0029454	5
