EXPLAIN
TAG	EISPOT
TITLE	LABEL	Potentiostatic EIS	Test &Identifier
DATE	LABEL	10/28/2019	Date
TIME	LABEL	11:23:26	Time
NOTES	NOTES	1	&Notes...
	
PSTAT	PSTAT	REF600-11020	Potentiostat
VDC	POTEN	0.00000E+000	T	DC &Voltage (V)
FREQINIT	QUANT	1.00000E+006	Initial Fre&q. (Hz)
FREQFINAL	QUANT	1.00000E+000	Final Fre&q. (Hz)
PTSPERDEC	QUANT	1.00000E+001	Points/&decade
VAC	QUANT	2.50000E+001	AC &Voltage (mV rms)
AREA	QUANT	1.00000E-002	&Area (cm^2)
CONDIT	TWOPARAM	T	5.00000E+000	0.00000E+000	Conditionin&g	Time(s)	E(V)
DELAY	TWOPARAM	T	5.00000E+000	0.00000E+000	Init. De&lay	Time(s)	Stab.(mV/s)
SPEED	SELECTOR	1	&Optimize for:
ZGUESS	QUANT	1.00000E+005	E&stimated Z (ohms)
OCVCURVE	TABLE	19
	Pt	T	Vf	Vm	Ach	Over
	#	s	V vs. Ref.	V	V	bits
	0	0.258333	5.06310E-003	5.06310E-003	5.67032E-004	...........
	1	0.516667	5.06319E-003	5.06758E-003	5.64899E-004	...........
	2	0.775	5.06382E-003	5.07726E-003	5.68232E-004	...........
	3	1.03333	5.06613E-003	5.09616E-003	5.65032E-004	...........
	4	1.29167	5.07171E-003	5.11361E-003	5.67632E-004	...........
	5	1.55	5.08188E-003	5.14406E-003	5.66399E-004	...........
	6	1.80833	5.09727E-003	5.17330E-003	5.69766E-004	...........
	7	2.06667	5.11789E-003	5.20272E-003	5.64199E-004	...........
	8	2.325	5.14286E-003	5.22825E-003	5.62632E-004	...........
	9	2.58333	5.17050E-003	5.26461E-003	5.64199E-004	...........
	10	2.84167	5.19884E-003	5.25777E-003	5.67432E-004	...........
	11	3.1	5.22276E-003	5.15612E-003	5.69232E-004	...........
	12	3.35833	5.23005E-003	5.06275E-003	5.68032E-004	...........
	13	3.61667	5.21796E-003	5.53618E-003	5.66399E-004	...........
	14	3.875	5.21806E-003	5.43607E-003	5.62566E-004	...........
	15	4.13333	5.26127E-003	5.27302E-003	5.67299E-004	...........
	16	4.39167	5.31748E-003	5.09379E-003	5.73099E-004	...........
	17	4.65	5.32895E-003	5.27239E-003	5.71266E-004	...........
	18	4.90833	5.29349E-003	5.33515E-003	5.62966E-004	...........
EOC	QUANT	0.0052935	Open Circuit (V)
PSTATMODEL	IQUANT	4	Pstat Model
PSTATSECTION	LABEL	REF600-11020	Pstat Section
PSTATSERIALNO	LABEL	11020	Pstat Serial Number
CTRLMODE	IQUANT	1	Control Mode
IESTAB	IQUANT	0	I/E Stability
CASPEED	IQUANT	1	Control Amp Speed
CONVENTION	IQUANT	1	Current Convention
ICHRANGE	IQUANT	2	Ich Range
ICHRANGEMODE	TOGGLE	F	Ich Auto Range
ICHOFFSETENABLE	TOGGLE	T	Ich Offset Enable
ICHOFFSET	QUANT	0	Ich Offset (V)
ICHFILTER	IQUANT	3	Ich Filter
VCHRANGE	IQUANT	2	Vch Range
VCHRANGEMODE	TOGGLE	F	Vch Auto Range
VCHOFFSETENABLE	TOGGLE	T	Vch Offset Enable
VCHOFFSET	QUANT	0	Vch Offset (V)
VCHFILTER	IQUANT	3	Vch Filter
ACHRANGE	IQUANT	2	Ach Range
ACHOFFSETENABLE	TOGGLE	F	Ach Offset Enable
ACHOFFSET	QUANT	0	Ach Offset (V)
ACHFILTER	IQUANT	3	Ach Filter
IERANGELOWERLIMIT	IQUANT	1	I/E Range Lower Limit
IERANGEMODE	TOGGLE	F	I/E AutoRange
IERANGE	IQUANT	4	I/E Range
POSFEEDENABLE	TOGGLE	F	Positive Feedback IR Comp
POSFEEDRESISTANCE	QUANT	0	Positive Feedback Resistance (ohm)
ACHSELECT	IQUANT	0	Ach Select
CABLEID	IQUANT	14	Cable ID
DCCALDATE	LABEL	8/19/2019	DC Calibration Date
ACCALDATE	LABEL	8/19/2019	AC Calibration Date
THERMOSELECT	IQUANT	1	Thermo Select
FRAMEWORKVERSION	QUANT	6.33	Framework Version
INSTRUMENTVERSION	LABEL	3.50	Instrument Version
ZCURVE	TABLE
	Pt	Time	Freq	Zreal	Zimag	Zsig	Zmod	Zphz	Idc	Vdc	IERange
	#	s	Hz	ohm	ohm	V	ohm	°	A	V	#
	0	2	1000078	1932.076	-805.3303	1	2093.197	-22.62741	4.829582E-007	0.0078695	8
	1	3	794390.6	2055.712	-731.5474	1	2181.998	-19.58865	2.758626E-006	0.0065839	8
	2	5	630984.4	2156.375	-665.8444	1	2256.835	-17.15961	2.482351E-006	0.0063913	8
	3	6	501234.4	2247.333	-591.3915	1	2323.844	-14.74328	1.171361E-006	0.006393	8
	4	8	398109.4	2310.897	-538.4719	1	2372.803	-13.11668	1.892381E-006	0.006348	8
	5	9	316265.6	2370.081	-486.6592	1	2419.529	-11.60352	-2.609099E-006	0.0071541	8
	6	10	251203.1	2423.168	-448.6281	1	2464.348	-10.48904	-1.111207E-006	0.0072167	8
	7	12	199546.9	2465.907	-417.9747	1	2501.08	-9.62028	8.757837E-008	0.0069714	8
	8	13	158578.1	2518.3	-397.1826	1	2549.429	-8.962778	-3.496427E-006	0.0075115	8
	9	15	125953.1	2563.844	-324.5813	1	2584.309	-7.21523	9.929161E-007	0.004824	7
	10	16	100078.1	2597.922	-324.5728	1	2618.119	-7.12138	-2.955183E-008	0.0067623	7
	11	17	79453.13	2635.785	-336.1408	1	2657.132	-7.267681	4.611623E-008	0.0066041	7
	12	19	63140.62	2673.678	-350.7097	1	2696.581	-7.472896	-3.96923E-008	0.0067665	7
	13	20	50203.12	2715.828	-368.2279	1	2740.677	-7.721413	3.232077E-008	0.0067199	7
	14	21	39890.62	2759.834	-389.6111	1	2787.2	-8.035454	-3.954522E-008	0.0067669	7
	15	23	31640.63	2806.595	-414.6458	1	2837.06	-8.404074	7.105574E-008	0.0067327	7
	16	24	25171.88	2855.143	-445.7562	1	2889.73	-8.87361	-6.709431E-008	0.0068485	7
	17	25	20015.62	2910.254	-489.0987	1	2951.067	-9.54	4.979504E-008	0.006596	7
	18	27	15890.62	2965.703	-524.5702	1	3011.739	-10.03066	-5.132966E-008	0.0068005	7
	19	28	12609.37	3027.648	-575.0612	1	3081.777	-10.75446	-6.562626E-009	0.0067777	7
	20	30	10078.13	3092.07	-627.7004	1	3155.139	-11.47529	-3.785127E-008	0.0068808	7
	21	31	8015.625	3160.454	-703.5421	1	3237.814	-12.54986	-2.357121E-008	0.0067412	7
	22	32	6328.125	3242.046	-772.9764	1	3332.92	-13.41023	-7.046353E-008	0.0068545	7
	23	34	5015.625	3323.871	-860.7036	1	3433.501	-14.51764	-7.312744E-009	0.0066969	7
	24	35	3984.375	3410.998	-956.436	1	3542.552	-15.66338	-7.579947E-009	0.0067892	7
	25	36	3170.956	3493.669	-1082.052	1	3657.398	-17.20868	-2.874536E-008	0.0067459	7
	26	38	2527.573	3580.637	-1226.579	1	3784.899	-18.90936	4.96888E-008	0.0065905	7
	27	39	1976.103	3674.797	-1417.641	1	3938.761	-21.09531	2.913286E-008	0.0067239	7
	28	40	1577.524	3736.017	-1635.657	1	4078.381	-23.64418	-4.779794E-008	0.0067747	7
	29	42	1265.625	3845.988	-1911.874	1	4294.984	-26.43237	-6.018799E-009	0.0067784	7
	30	43	998.264	3951.156	-2275.002	1	4559.306	-29.93254	-2.032477E-008	0.0068954	7
	31	44	796.875	4055.103	-2705.482	1	4874.782	-33.71041	2.429316E-008	0.006653	7
	32	46	627.7902	4178.49	-3284.178	1	5314.66	-38.16637	5.795142E-009	0.0067651	7
	33	47	505.5147	4309.606	-3924.259	1	5828.594	-42.3205	-5.020608E-008	0.0068163	7
	34	48	397.9953	4479.532	-4809.571	1	6572.532	-47.03485	4.692824E-009	0.0067681	7
	35	50	315.5048	4678.354	-5876.704	1	7511.501	-51.47724	4.859067E-009	0.0067654	7
	36	51	252.4038	4915.133	-7142.055	1	8669.918	-55.46441	4.624206E-009	0.0067647	7
	37	52	198.6229	5232.189	-8822.855	1	10257.61	-59.33092	4.608553E-009	0.0067627	7
	38	54	158.3615	5614.887	-10784.62	1	12158.74	-62.49678	-1.740367E-010	0.0067074	6
	39	55	125.558	6115.578	-13249.82	1	14593.08	-65.22388	1.060504E-009	0.006704	6
	40	57	100.4464	6712.813	-16159.72	1	17498.53	-67.44181	1.878706E-009	0.0067047	6
	41	58	79.00281	7631.253	-20004.88	1	21411	-69.11967	-6.820083E-010	0.0067027	6
	42	59	63.3446	8846.657	-24166.39	1	25734.75	-69.89369	1.222929E-010	0.0066993	6
	43	61	49.86702	9974.23	-30127.11	1	31735.28	-71.68176	1.307275E-009	0.0066965	6
	44	62	39.72458	11919.2	-36521.55	1	38417.33	-71.92535	6.034752E-010	0.0066981	6
	45	63	31.6723	14337.19	-44476.27	1	46730.01	-72.13297	1.010251E-009	0.0066974	6
	46	65	24.93351	17833.71	-54423.76	1	57271.16	-71.85694	8.336246E-010	0.0067001	6
	47	66	19.86229	22232.9	-65784.45	1	69439.87	-71.3265	1.317366E-010	0.0066997	6
	48	67	15.83615	28138.66	-78569.91	1	83456.67	-70.29576	1.381834E-009	0.006694	6
	49	69	12.40079	35675.25	-95966.4	1	102383	-69.60753	-7.181328E-010	0.0067081	6
	50	70	9.93114	45042.16	-113746.9	1	122340.3	-68.39714	-6.942494E-010	0.0067081	5
	51	72	7.944915	56488.95	-134613.8	1	145985.9	-67.23528	6.240918E-010	0.0066995	5
	52	73	6.317385	72361.11	-157729.5	1	173536	-65.3559	7.813626E-010	0.0067011	5
	53	75	5.008013	91955	-184564.9	1	206203.6	-63.51632	7.070747E-011	0.006712	5
	54	78	3.945707	115721.5	-214090	1	243363.9	-61.60757	-1.536994E-010	0.0067082	5
	55	81	3.158693	142338.1	-243551.5	1	282094.8	-59.69683	-1.85044E-011	0.0066981	5
	56	84	2.504006	173219.8	-276554.8	1	326324.5	-57.93908	2.219177E-010	0.0067148	5
	57	87	1.998082	206333.4	-310788.2	1	373045.2	-56.41967	4.910203E-010	0.0067103	5
	58	90	1.584686	243954.2	-347716.8	1	424759.5	-54.94694	1.840551E-011	0.0066517	5
	59	93	1.266892	280065.5	-388716.4	1	479100.4	-54.2277	2.787736E-010	0.0067128	5
	60	98	0.999041	320627.5	-438268.6	1	543029.8	-53.81163	-2.884508E-010	0.0066734	5
