EXPLAIN
TAG	EISPOT
TITLE	LABEL	Potentiostatic EIS	Test &Identifier
DATE	LABEL	9/26/2019	Date
TIME	LABEL	9:47:51	Time
NOTES	NOTES	2	&Notes...
	
	
PSTAT	PSTAT	REF600-11020	Potentiostat
VDC	POTEN	0.00000E+000	T	DC &Voltage (V)
FREQINIT	QUANT	1.00000E+006	Initial Fre&q. (Hz)
FREQFINAL	QUANT	1.00000E+000	Final Fre&q. (Hz)
PTSPERDEC	QUANT	1.00000E+001	Points/&decade
VAC	QUANT	2.50000E+001	AC &Voltage (mV rms)
AREA	QUANT	1.00000E-002	&Area (cm^2)
CONDIT	TWOPARAM	T	5.00000E+000	0.00000E+000	Conditionin&g	Time(s)	E(V)
DELAY	TWOPARAM	T	5.00000E+000	0.00000E+000	Init. De&lay	Time(s)	Stab.(mV/s)
SPEED	SELECTOR	1	&Optimize for:
ZGUESS	QUANT	1.00000E+004	E&stimated Z (ohms)
OCVCURVE	TABLE	19
	Pt	T	Vf	Vm	Ach	Over
	#	s	V vs. Ref.	V	V	bits
	0	0.258333	1.16829E-001	1.16829E-001	5.77466E-004	...........
	1	0.516667	1.16949E-001	1.23084E-001	5.74832E-004	...........
	2	0.775	1.17678E-001	1.28795E-001	5.71699E-004	...........
	3	1.03333	1.19724E-001	1.34064E-001	5.74932E-004	...........
	4	1.29167	1.23337E-001	1.38947E-001	5.73699E-004	...........
	5	1.55	1.28055E-001	1.43502E-001	5.73132E-004	...........
	6	1.80833	1.33168E-001	1.47765E-001	5.68132E-004	...........
	7	2.06667	1.38176E-001	1.51766E-001	5.70766E-004	...........
	8	2.325	1.42872E-001	1.55533E-001	5.73066E-004	...........
	9	2.58333	1.47229E-001	1.59087E-001	5.73466E-004	...........
	10	2.84167	1.51286E-001	1.62455E-001	5.70366E-004	...........
	11	3.1	1.55090E-001	1.65642E-001	5.74732E-004	...........
	12	3.35833	1.58675E-001	1.68669E-001	5.75832E-004	...........
	13	3.61667	1.62064E-001	1.71547E-001	5.74366E-004	...........
	14	3.875	1.65276E-001	1.74294E-001	5.79032E-004	...........
	15	4.13333	1.68325E-001	1.76906E-001	5.74765E-004	...........
	16	4.39167	1.71224E-001	1.79410E-001	5.75732E-004	...........
	17	4.65	1.73985E-001	1.81793E-001	5.76532E-004	...........
	18	4.90833	1.76618E-001	1.84089E-001	5.71032E-004	...........
EOC	QUANT	0.1766183	Open Circuit (V)
PSTATMODEL	IQUANT	4	Pstat Model
PSTATSECTION	LABEL	REF600-11020	Pstat Section
PSTATSERIALNO	LABEL	11020	Pstat Serial Number
CTRLMODE	IQUANT	1	Control Mode
IESTAB	IQUANT	0	I/E Stability
CASPEED	IQUANT	1	Control Amp Speed
CONVENTION	IQUANT	1	Current Convention
ICHRANGE	IQUANT	2	Ich Range
ICHRANGEMODE	TOGGLE	F	Ich Auto Range
ICHOFFSETENABLE	TOGGLE	T	Ich Offset Enable
ICHOFFSET	QUANT	0	Ich Offset (V)
ICHFILTER	IQUANT	3	Ich Filter
VCHRANGE	IQUANT	2	Vch Range
VCHRANGEMODE	TOGGLE	F	Vch Auto Range
VCHOFFSETENABLE	TOGGLE	T	Vch Offset Enable
VCHOFFSET	QUANT	0	Vch Offset (V)
VCHFILTER	IQUANT	3	Vch Filter
ACHRANGE	IQUANT	2	Ach Range
ACHOFFSETENABLE	TOGGLE	F	Ach Offset Enable
ACHOFFSET	QUANT	0	Ach Offset (V)
ACHFILTER	IQUANT	3	Ach Filter
IERANGELOWERLIMIT	IQUANT	1	I/E Range Lower Limit
IERANGEMODE	TOGGLE	F	I/E AutoRange
IERANGE	IQUANT	7	I/E Range
POSFEEDENABLE	TOGGLE	F	Positive Feedback IR Comp
POSFEEDRESISTANCE	QUANT	0	Positive Feedback Resistance (ohm)
ACHSELECT	IQUANT	0	Ach Select
CABLEID	IQUANT	14	Cable ID
DCCALDATE	LABEL	8/19/2019	DC Calibration Date
ACCALDATE	LABEL	8/19/2019	AC Calibration Date
THERMOSELECT	IQUANT	1	Thermo Select
FRAMEWORKVERSION	QUANT	6.33	Framework Version
INSTRUMENTVERSION	LABEL	3.50	Instrument Version
ZCURVE	TABLE
	Pt	Time	Freq	Zreal	Zimag	Zsig	Zmod	Zphz	Idc	Vdc	IERange
	#	s	Hz	ohm	ohm	V	ohm	°	A	V	#
	0	1	1000078	1877.981	-2290.012	1	2961.582	-50.64568	2.116241E-007	0.1786055	8
	1	3	794390.6	2252.302	-2509.017	1	3371.651	-48.08622	-4.260176E-006	0.1789571	8
	2	4	630984.4	2665.764	-2735.511	1	3819.597	-45.73983	-1.760144E-006	0.1787503	8
	3	6	501234.4	3164.18	-2972.729	1	4341.561	-43.21314	1.599638E-006	0.177781	8
	4	7	398109.4	3683.676	-3156.021	1	4850.767	-40.5886	-2.312575E-007	0.1782145	8
	5	9	316265.6	4315.426	-3268.841	1	5413.707	-37.14313	-3.190684E-006	0.1787436	8
	6	10	251203.1	4936.48	-3303.316	1	5939.758	-33.78902	4.620717E-006	0.1772812	8
	7	12	199546.9	5571.501	-3245.113	1	6447.665	-30.2186	1.303986E-006	0.1777324	8
	8	14	158578.1	6178.602	-3081.399	1	6904.356	-26.5064	-3.08874E-006	0.1785385	8
	9	15	125953.1	6804.215	-2792.383	1	7354.913	-22.31277	2.934252E-007	0.1771056	7
	10	17	100078.1	7248.257	-2547.264	1	7682.824	-19.36307	-9.288457E-008	0.178193	7
	11	19	79453.13	7639.083	-2299.144	1	7977.572	-16.75028	3.079729E-008	0.177904	7
	12	20	63140.62	7938.882	-2036.704	1	8195.975	-14.38879	-4.690408E-008	0.1780555	7
	13	22	50203.12	8194.375	-1803.808	1	8390.561	-12.41439	-5.639699E-009	0.1781637	7
	14	23	39890.62	8381.229	-1591.648	1	8531.021	-10.75278	-6.684922E-008	0.1780869	7
	15	25	31640.63	8538.791	-1413.988	1	8655.074	-9.402614	-4.332843E-008	0.1780478	7
	16	26	25171.88	8671.617	-1275.101	1	8764.863	-8.365002	-5.651981E-009	0.1781671	7
	17	28	20015.62	8772.868	-1157.22	1	8848.863	-7.514446	7.922685E-008	0.1778556	7
	18	29	15890.62	8852.213	-1081.45	1	8918.027	-6.965147	2.813238E-009	0.1779574	7
	19	31	12609.37	8953.392	-924.1484	1	9000.959	-5.893069	-1.44634E-009	0.1780941	6
	20	33	10078.13	9025.929	-938.6709	1	9074.607	-5.937255	1.571914E-009	0.1778035	6
	21	34	8015.625	9078.567	-984.394	1	9131.78	-6.188433	-9.249433E-009	0.1779631	6
	22	36	6328.125	9133.866	-1061.191	1	9195.306	-6.627027	2.15131E-009	0.1778016	6
	23	37	5015.625	9192.221	-1181.455	1	9267.835	-7.32394	-9.79435E-009	0.1779598	6
	24	39	3984.375	9241.555	-1344.083	1	9338.784	-8.275025	-2.223615E-009	0.1778429	6
	25	40	3170.956	9064.992	-1543.952	1	9195.535	-9.66588	1.341055E-008	0.1779548	6
	26	42	2527.573	9107.744	-1814.028	1	9286.641	-11.26443	1.788142E-008	0.1777268	6
	27	44	1976.103	9368.477	-2186.735	1	9620.3	-13.13842	1.201857E-008	0.1776339	6
	28	45	1577.524	9498.813	-2600.019	1	9848.23	-15.30807	-1.115054E-009	0.1780859	6
	29	47	1265.625	9701.32	-3095.795	1	10183.29	-17.69844	-1.511051E-008	0.1781254	6
	30	48	998.264	9884.03	-3743.67	1	10569.25	-20.74466	-9.217776E-009	0.1778821	6
	31	50	796.875	9960.82	-4497.452	1	10929.09	-24.29985	-6.159606E-009	0.1780543	6
	32	51	627.7902	10285.08	-5477.253	1	11652.61	-28.03724	1.346444E-008	0.177721	6
	33	52	505.5147	10481.38	-6558.601	1	12364.24	-32.0358	-1.454757E-008	0.178072	6
	34	54	397.9953	10756.55	-8028.045	1	13422.1	-36.73546	-6.208999E-009	0.1779877	6
	35	55	315.5048	11170.28	-9774.53	1	14843.07	-41.1875	-5.267884E-009	0.1779885	6
	36	56	252.4038	11551.24	-11848.43	1	16547.4	-45.72766	-3.865402E-009	0.1779845	6
	37	58	198.6229	12075.67	-14593.48	1	18941.79	-50.39324	-4.639929E-009	0.1779841	6
	38	59	158.3615	12666.41	-17796.75	1	21844.05	-54.55956	-4.676382E-009	0.1779852	6
	39	60	125.558	13383.46	-21859.27	1	25630.93	-58.52271	-2.924588E-009	0.1779877	6
	40	62	100.4464	14276.95	-26640.14	1	30224.63	-61.81231	-2.756299E-010	0.1779818	6
	41	63	79.00281	15479.79	-33175.46	1	36609.23	-64.98607	-2.241658E-010	0.1779849	6
	42	65	63.3446	17280.81	-40274	1	43824.89	-66.77675	1.010519E-009	0.177984	6
	43	66	49.86702	18428.04	-48630.82	1	52005.28	-69.24643	-4.238027E-010	0.1779784	6
	44	67	39.72458	21995.8	-60894.16	1	64744.99	-70.1396	-4.039303E-009	0.1779859	6
	45	69	31.6723	25470.65	-74582.59	1	78811.91	-71.14449	-7.236244E-009	0.1779844	6
	46	70	24.93351	30736.1	-91566.64	1	96587.6	-71.44469	-5.684636E-009	0.1779863	6
	47	72	19.86229	37516.08	-111472.5	1	117616.2	-71.39934	-4.808675E-009	0.1779896	5
	48	73	15.83615	44877.04	-133098.8	1	140460.8	-71.36739	-3.080527E-009	0.1779891	5
	49	74	12.40079	60616.74	-164215.1	1	175045.7	-69.73938	-5.854967E-009	0.177993	5
	50	76	9.93114	74158.8	-197442.3	1	210909.9	-69.41395	-4.5295E-009	0.1779913	5
	51	77	7.944915	92886.24	-233165.9	1	250986.4	-68.27916	-3.169831E-009	0.1779936	5
	52	79	6.317385	120479.8	-278559.1	1	303497.2	-66.611	-3.861801E-009	0.1780042	5
	53	81	5.008013	154464.6	-328509.1	1	363011.8	-64.81715	-3.577188E-009	0.1779972	5
	54	84	3.945707	200097.3	-384788.1	1	433705.9	-62.52469	-3.862635E-009	0.1779908	5
	55	86	3.158693	251568.8	-440206.7	1	507019.6	-60.25295	-3.676299E-009	0.1780069	5
	56	90	2.504006	315263.1	-502251.2	1	592998.3	-57.88351	-3.968804E-009	0.1779818	5
	57	92	1.998082	387088.4	-562918.3	1	683165.1	-55.48581	-3.869998E-009	0.177965	5
	58	95	1.584686	470286.2	-623853.1	1	781256.5	-52.98951	-3.701298E-009	0.1780194	5
	59	99	1.266892	559372.3	-687339.3	1	886189.9	-50.86053	-3.689062E-009	0.1779618	5
	60	103	0.999041	660688	-752197.1	1	1001154	-48.70573	-3.240381E-009	0.1780254	5
