EXPLAIN
TAG	EISPOT
TITLE	LABEL	Potentiostatic EIS	Test &Identifier
DATE	LABEL	10/18/2019	Date
TIME	LABEL	10:16:54	Time
NOTES	NOTES	1	&Notes...
	
PSTAT	PSTAT	REF600-11020	Potentiostat
VDC	POTEN	0.00000E+000	T	DC &Voltage (V)
FREQINIT	QUANT	1.00000E+006	Initial Fre&q. (Hz)
FREQFINAL	QUANT	1.00000E+000	Final Fre&q. (Hz)
PTSPERDEC	QUANT	1.00000E+001	Points/&decade
VAC	QUANT	2.50000E+001	AC &Voltage (mV rms)
AREA	QUANT	1.00000E-002	&Area (cm^2)
CONDIT	TWOPARAM	T	5.00000E+000	0.00000E+000	Conditionin&g	Time(s)	E(V)
DELAY	TWOPARAM	T	5.00000E+000	0.00000E+000	Init. De&lay	Time(s)	Stab.(mV/s)
SPEED	SELECTOR	0	&Optimize for:
ZGUESS	QUANT	1.00000E+005	E&stimated Z (ohms)
OCVCURVE	TABLE	19
	Pt	T	Vf	Vm	Ach	Over
	#	s	V vs. Ref.	V	V	bits
	0	0.258333	6.36620E-003	6.36620E-003	5.36366E-004	...........
	1	0.516667	6.36642E-003	6.37765E-003	5.31133E-004	...........
	2	0.775	6.36724E-003	6.36145E-003	5.41533E-004	...........
	3	1.03333	6.36800E-003	6.35300E-003	5.38299E-004	...........
	4	1.29167	6.36693E-003	6.36108E-003	5.34966E-004	...........
	5	1.55	6.36538E-003	6.43735E-003	5.33666E-004	...........
	6	1.80833	6.37060E-003	6.46078E-003	5.32933E-004	...........
	7	2.06667	6.38970E-003	6.51690E-003	5.29200E-004	...........
	8	2.325	6.42183E-003	6.52052E-003	5.25800E-004	...........
	9	2.58333	6.45955E-003	6.57105E-003	5.34200E-004	...........
	10	2.84167	6.49656E-003	6.61006E-003	5.30066E-004	...........
	11	3.1	6.53218E-003	6.64853E-003	5.28733E-004	...........
	12	3.35833	6.56797E-003	6.65776E-003	5.32900E-004	...........
	13	3.61667	6.60295E-003	6.69822E-003	5.35666E-004	...........
	14	3.875	6.63546E-003	6.74334E-003	5.28666E-004	...........
	15	4.13333	6.66769E-003	6.80716E-003	5.26033E-004	...........
	16	4.39167	6.70451E-003	6.85468E-003	5.28566E-004	...........
	17	4.65	6.74864E-003	6.91309E-003	5.23566E-004	...........
	18	4.90833	6.79844E-003	6.94404E-003	5.35999E-004	...........
EOC	QUANT	0.0067984	Open Circuit (V)
PSTATMODEL	IQUANT	4	Pstat Model
PSTATSECTION	LABEL	REF600-11020	Pstat Section
PSTATSERIALNO	LABEL	11020	Pstat Serial Number
CTRLMODE	IQUANT	1	Control Mode
IESTAB	IQUANT	0	I/E Stability
CASPEED	IQUANT	1	Control Amp Speed
CONVENTION	IQUANT	1	Current Convention
ICHRANGE	IQUANT	2	Ich Range
ICHRANGEMODE	TOGGLE	F	Ich Auto Range
ICHOFFSETENABLE	TOGGLE	T	Ich Offset Enable
ICHOFFSET	QUANT	0	Ich Offset (V)
ICHFILTER	IQUANT	3	Ich Filter
VCHRANGE	IQUANT	2	Vch Range
VCHRANGEMODE	TOGGLE	F	Vch Auto Range
VCHOFFSETENABLE	TOGGLE	T	Vch Offset Enable
VCHOFFSET	QUANT	0	Vch Offset (V)
VCHFILTER	IQUANT	3	Vch Filter
ACHRANGE	IQUANT	2	Ach Range
ACHOFFSETENABLE	TOGGLE	F	Ach Offset Enable
ACHOFFSET	QUANT	0	Ach Offset (V)
ACHFILTER	IQUANT	3	Ach Filter
IERANGELOWERLIMIT	IQUANT	1	I/E Range Lower Limit
IERANGEMODE	TOGGLE	F	I/E AutoRange
IERANGE	IQUANT	5	I/E Range
POSFEEDENABLE	TOGGLE	F	Positive Feedback IR Comp
POSFEEDRESISTANCE	QUANT	0	Positive Feedback Resistance (ohm)
ACHSELECT	IQUANT	0	Ach Select
CABLEID	IQUANT	14	Cable ID
DCCALDATE	LABEL	8/19/2019	DC Calibration Date
ACCALDATE	LABEL	8/19/2019	AC Calibration Date
THERMOSELECT	IQUANT	1	Thermo Select
FRAMEWORKVERSION	QUANT	6.33	Framework Version
INSTRUMENTVERSION	LABEL	3.50	Instrument Version
ZCURVE	TABLE
	Pt	Time	Freq	Zreal	Zimag	Zsig	Zmod	Zphz	Idc	Vdc	IERange
	#	s	Hz	ohm	ohm	V	ohm	°	A	V	#
	0	1	1000078	2741.758	-1754.988	1	3255.337	-32.62314	-3.387641E-006	0.010037	8
	1	2	794390.6	3049.03	-1633.894	1	3459.219	-28.18567	6.441275E-006	0.0077147	8
	2	2	630984.4	3346.636	-1504.427	1	3669.234	-24.20554	4.004383E-007	0.0079683	8
	3	2	501234.4	3578.963	-1393.736	1	3840.765	-21.27716	-3.680347E-006	0.0090181	8
	4	3	398109.4	3793.46	-1219.489	1	3984.657	-17.82111	-3.064734E-006	0.0089225	8
	5	3	316265.6	3963.478	-1085.46	1	4109.426	-15.3158	1.543865E-006	0.0080754	8
	6	3	251203.1	4092.802	-934.1649	1	4198.059	-12.85727	1.174056E-006	0.0081241	8
	7	4	199546.9	4196.479	-828.9503	1	4277.568	-11.17405	3.899893E-006	0.0076203	8
	8	4	158578.1	4292.877	-713.6248	1	4351.787	-9.438235	-1.323724E-006	0.0086397	8
	9	4	125953.1	4368.079	-563.3627	1	4404.258	-7.34902	-5.398765E-007	0.0103319	7
	10	5	100078.1	4406.061	-494.7047	1	4433.747	-6.406239	-4.275975E-008	0.0083752	7
	11	5	79453.13	4446.835	-451.3466	1	4469.682	-5.795581	-6.370419E-009	0.0083871	7
	12	5	63140.62	4484.044	-420.5406	1	4503.722	-5.357871	-3.283495E-008	0.0083666	7
	13	5	50203.12	4515.56	-398.7132	1	4533.128	-5.045994	3.627446E-008	0.0082048	7
	14	6	39890.62	4547.791	-391.298	1	4564.593	-4.917694	-2.072861E-008	0.0083997	7
	15	6	31640.63	4578.878	-390.3456	1	4595.487	-4.872637	3.88842E-008	0.0082959	7
	16	6	25171.88	4608.97	-400.1661	1	4626.309	-4.962167	-1.682654E-008	0.0083057	7
	17	7	20015.62	4647.753	-414.0981	1	4666.164	-5.091405	-1.550761E-008	0.0084851	7
	18	7	15890.62	4670.614	-457.8555	1	4693.001	-5.598759	-3.443673E-008	0.0083575	7
	19	7	12609.37	4705.081	-502.7202	1	4731.861	-6.098701	-9.945902E-009	0.0083784	7
	20	8	10078.13	4741.016	-564.6085	1	4774.517	-6.79138	4.467248E-008	0.0082845	7
	21	8	8015.625	4785.676	-641.224	1	4828.443	-7.631505	-1.54404E-008	0.0082926	7
	22	8	6328.125	4824.295	-742.9001	1	4881.16	-8.754292	-4.485689E-008	0.008363	7
	23	9	5015.625	4871.077	-868.6456	1	4947.922	-10.11111	-4.410681E-008	0.0083591	7
	24	9	3984.375	4911.25	-1008.447	1	5013.715	-11.60349	-4.389738E-008	0.0084198	7
	25	9	3170.956	4981.402	-1209.23	1	5126.071	-13.64457	-2.151935E-008	0.0083857	7
	26	10	2527.573	5041.435	-1441.902	1	5243.581	-15.96107	-7.842498E-009	0.0083656	7
	27	10	1976.103	5124.994	-1753.906	1	5416.802	-18.89228	9.090065E-008	0.0082607	7
	28	10	1577.524	5215.283	-2102.469	1	5623.126	-21.95614	-3.491493E-008	0.0083402	7
	29	11	1265.625	5314.233	-2519.98	1	5881.443	-25.37005	-4.213154E-008	0.0083502	7
	30	11	998.264	5438.581	-3077.606	1	6248.985	-29.50483	3.640521E-008	0.008195	7
	31	11	796.875	5586.071	-3713.467	1	6707.759	-33.61488	9.533141E-008	0.0082623	7
	32	11	627.7902	5775.395	-4547.889	1	7351.087	-38.21899	-4.382256E-008	0.0083571	7
	33	12	505.5147	5972.48	-5468.535	1	8097.863	-42.47791	4.339478E-008	0.0082834	7
	34	12	397.9953	6240.499	-6711.75	1	9164.683	-47.08371	1.613782E-009	0.0083451	7
	35	12	315.5048	6560.735	-8197.816	1	10499.88	-51.32962	1.619966E-009	0.0082822	6
	36	13	252.4038	6933.557	-9946.67	1	12124.79	-55.12068	7.701124E-012	0.0082777	6
	37	13	198.6229	7421.25	-12256.49	1	14328.17	-58.80529	8.025727E-010	0.0082778	6
	38	13	158.3615	8005.062	-14943.49	1	16952.55	-61.82254	-4.894549E-010	0.0082748	6
	39	14	125.558	8744.559	-18319.26	1	20299.33	-64.48288	2.294861E-010	0.0082792	6
	40	14	100.4464	9702.86	-22252.58	1	24275.98	-66.4412	1.401617E-009	0.0082754	6
	41	14	79.00281	11087.98	-27523.87	1	29673.33	-68.05798	1.162207E-009	0.0082745	6
	42	15	63.3446	12053.37	-33522.81	1	35623.91	-70.22358	-8.081487E-010	0.0082736	6
	43	15	49.86702	14436.74	-40912.91	1	43385.32	-70.56384	-9.625458E-010	0.0082718	6
	44	15	39.72458	17671.05	-49933.71	1	52968.31	-70.51163	-3.009389E-010	0.008276	6
	45	16	31.6723	21551.71	-60735.04	1	64445.49	-70.46287	-9.973711E-010	0.0082747	6
	46	16	24.93351	27150.28	-73619.74	1	78466.58	-69.75649	1.808001E-010	0.0082751	6
	47	16	19.86229	33957.79	-88225.44	1	94534.96	-68.94839	-3.945243E-010	0.0082775	6
	48	17	15.83615	41593.42	-105681.2	1	113571.6	-68.51666	-1.067909E-009	0.0082762	5
	49	17	12.40079	55668.82	-126426.9	1	138140.4	-66.23494	-8.217216E-011	0.0082788	5
	50	17	9.93114	69287.38	-146431.3	1	161996.5	-64.67773	-1.145846E-009	0.0082792	5
	51	18	7.944915	86472.66	-170144.2	1	190857.4	-63.05888	2.15009E-010	0.0082736	5
	52	19	6.317385	107407.7	-196493.3	1	223933	-61.33799	1.173423E-010	0.0082774	5
	53	19	5.008013	132565.2	-224905.3	1	261066.9	-59.48376	-2.561041E-010	0.0082748	5
	54	20	3.945707	161890.5	-257469	1	304136.2	-57.83928	3.103484E-010	0.0082801	5
	55	22	3.158693	192401.4	-289054.7	1	347233.2	-56.35135	-1.520502E-010	0.0082876	5
	56	23	2.504006	227298.2	-326001.4	1	397418.4	-55.1146	-2.861884E-010	0.0082792	5
	57	25	1.998082	263856.6	-364561.6	1	450028.3	-54.10433	6.250698E-011	0.008312	5
	58	26	1.584686	303320.1	-411554.3	1	511253.4	-53.60937	7.597584E-011	0.0083135	5
	59	28	1.266892	343279.3	-462487.8	1	575965	-53.41553	-8.532399E-012	0.0082712	5
	60	31	0.999041	389793.8	-526179.8	1	654831.6	-53.46896	-5.314462E-011	0.0082483	5
