EXPLAIN
TAG	EISPOT
TITLE	LABEL	Potentiostatic EIS	Test &Identifier
DATE	LABEL	10/28/2019	Date
TIME	LABEL	11:39:11	Time
NOTES	NOTES	1	&Notes...
	
PSTAT	PSTAT	REF600-11020	Potentiostat
VDC	POTEN	0.00000E+000	T	DC &Voltage (V)
FREQINIT	QUANT	1.00000E+006	Initial Fre&q. (Hz)
FREQFINAL	QUANT	1.00000E+000	Final Fre&q. (Hz)
PTSPERDEC	QUANT	1.00000E+001	Points/&decade
VAC	QUANT	2.50000E+001	AC &Voltage (mV rms)
AREA	QUANT	1.00000E-002	&Area (cm^2)
CONDIT	TWOPARAM	T	5.00000E+000	0.00000E+000	Conditionin&g	Time(s)	E(V)
DELAY	TWOPARAM	T	5.00000E+000	0.00000E+000	Init. De&lay	Time(s)	Stab.(mV/s)
SPEED	SELECTOR	1	&Optimize for:
ZGUESS	QUANT	1.00000E+005	E&stimated Z (ohms)
OCVCURVE	TABLE	19
	Pt	T	Vf	Vm	Ach	Over
	#	s	V vs. Ref.	V	V	bits
	0	0.258333	9.25216E-003	9.25216E-003	5.48633E-004	...........
	1	0.516667	9.25100E-003	9.19129E-003	5.46499E-004	...........
	2	0.775	9.24086E-003	8.97679E-003	5.42499E-004	...........
	3	1.03333	9.20816E-003	9.08111E-003	5.51333E-004	...........
	4	1.29167	9.15696E-003	9.22026E-003	5.58299E-004	...........
	5	1.55	9.12265E-003	9.32973E-003	5.46833E-004	...........
	6	1.80833	9.13974E-003	9.43137E-003	5.44733E-004	...........
	7	2.06667	9.20860E-003	9.50854E-003	5.45399E-004	...........
	8	2.325	9.30537E-003	9.62451E-003	5.50899E-004	...........
	9	2.58333	9.40923E-003	9.73489E-003	5.43233E-004	...........
	10	2.84167	9.51166E-003	9.75611E-003	5.43833E-004	...........
	11	3.1	9.60859E-003	9.88187E-003	5.45833E-004	...........
	12	3.35833	9.69806E-003	9.97756E-003	5.41299E-004	...........
	13	3.61667	9.78523E-003	1.01076E-002	5.44399E-004	...........
	14	3.875	9.87849E-003	1.02079E-002	5.42166E-004	...........
	15	4.13333	9.97923E-003	1.02328E-002	5.43466E-004	...........
	16	4.39167	1.00783E-002	1.02951E-002	5.50899E-004	...........
	17	4.65	1.01649E-002	1.03982E-002	5.48966E-004	...........
	18	4.90833	1.02403E-002	1.05123E-002	5.44166E-004	...........
EOC	QUANT	0.0102403	Open Circuit (V)
PSTATMODEL	IQUANT	4	Pstat Model
PSTATSECTION	LABEL	REF600-11020	Pstat Section
PSTATSERIALNO	LABEL	11020	Pstat Serial Number
CTRLMODE	IQUANT	1	Control Mode
IESTAB	IQUANT	0	I/E Stability
CASPEED	IQUANT	1	Control Amp Speed
CONVENTION	IQUANT	1	Current Convention
ICHRANGE	IQUANT	2	Ich Range
ICHRANGEMODE	TOGGLE	F	Ich Auto Range
ICHOFFSETENABLE	TOGGLE	T	Ich Offset Enable
ICHOFFSET	QUANT	0	Ich Offset (V)
ICHFILTER	IQUANT	3	Ich Filter
VCHRANGE	IQUANT	2	Vch Range
VCHRANGEMODE	TOGGLE	F	Vch Auto Range
VCHOFFSETENABLE	TOGGLE	T	Vch Offset Enable
VCHOFFSET	QUANT	0	Vch Offset (V)
VCHFILTER	IQUANT	3	Vch Filter
ACHRANGE	IQUANT	2	Ach Range
ACHOFFSETENABLE	TOGGLE	F	Ach Offset Enable
ACHOFFSET	QUANT	0	Ach Offset (V)
ACHFILTER	IQUANT	3	Ach Filter
IERANGELOWERLIMIT	IQUANT	1	I/E Range Lower Limit
IERANGEMODE	TOGGLE	F	I/E AutoRange
IERANGE	IQUANT	5	I/E Range
POSFEEDENABLE	TOGGLE	F	Positive Feedback IR Comp
POSFEEDRESISTANCE	QUANT	0	Positive Feedback Resistance (ohm)
ACHSELECT	IQUANT	0	Ach Select
CABLEID	IQUANT	14	Cable ID
DCCALDATE	LABEL	8/19/2019	DC Calibration Date
ACCALDATE	LABEL	8/19/2019	AC Calibration Date
THERMOSELECT	IQUANT	1	Thermo Select
FRAMEWORKVERSION	QUANT	6.33	Framework Version
INSTRUMENTVERSION	LABEL	3.50	Instrument Version
ZCURVE	TABLE
	Pt	Time	Freq	Zreal	Zimag	Zsig	Zmod	Zphz	Idc	Vdc	IERange
	#	s	Hz	ohm	ohm	V	ohm	°	A	V	#
	0	2	1000078	2353.627	-1512.12	1	2797.51	-32.71928	4.596435E-006	0.0111612	8
	1	4	794390.6	2643.945	-1446.617	1	3013.826	-28.68497	-3.286664E-007	0.0115759	8
	2	5	630984.4	2899.857	-1345.486	1	3196.796	-24.89053	1.955198E-006	0.011477	8
	3	6	501234.4	3122.909	-1219.526	1	3352.582	-21.33112	8.538545E-007	0.0114282	8
	4	8	398109.4	3296.256	-1082.443	1	3469.436	-18.17944	-1.312675E-007	0.0117457	8
	5	9	316265.6	3430.255	-958.283	1	3561.594	-15.60834	-3.552757E-006	0.012528	8
	6	11	251203.1	3551.032	-844.49	1	3650.067	-13.37732	-4.219724E-006	0.0128264	8
	7	12	199546.9	3626.59	-764.3116	1	3706.255	-11.90105	-1.473032E-006	0.0121123	8
	8	14	158578.1	3732.395	-669.4453	1	3791.956	-10.16849	-1.182811E-007	0.0118956	8
	9	15	125953.1	3790.81	-548.6818	1	3830.312	-8.235796	-7.410722E-007	0.0138544	7
	10	17	100078.1	3849.183	-514.7677	1	3883.451	-7.617214	-2.878912E-008	0.0118555	7
	11	18	79453.13	3894.828	-499.6164	1	3926.741	-7.309805	1.428874E-007	0.0115563	7
	12	19	63140.62	3942.07	-494.0356	1	3972.907	-7.143287	-3.876311E-009	0.0116991	7
	13	21	50203.12	3988.918	-497.7015	1	4019.847	-7.112101	-5.769146E-008	0.0118129	7
	14	22	39890.62	4038.073	-510.7626	1	4070.247	-7.208874	-5.349953E-009	0.0118033	7
	15	23	31640.63	4090.071	-535.5828	1	4124.988	-7.460268	4.266596E-008	0.0117084	7
	16	25	25171.88	4147.479	-570.342	1	4186.511	-7.829939	4.673214E-008	0.0116045	7
	17	26	20015.62	4200.292	-621.3511	1	4246.001	-8.414765	-4.866054E-008	0.0118543	7
	18	28	15890.62	4273.704	-667.7458	1	4325.556	-8.880392	-4.684934E-008	0.0117797	7
	19	29	12609.37	4346.53	-736.182	1	4408.434	-9.61309	1.369319E-007	0.0115546	7
	20	30	10078.13	4423.194	-814.5288	1	4497.566	-10.43409	-4.410836E-008	0.0117642	7
	21	32	8015.625	4514.614	-897.1696	1	4602.896	-11.23971	-5.607805E-009	0.0118062	7
	22	33	6328.125	4621.02	-1013.494	1	4730.855	-12.37039	-4.631022E-008	0.0117624	7
	23	34	5015.625	4734.348	-1136.515	1	4868.852	-13.49884	-7.811238E-009	0.0118026	7
	24	36	3984.375	4864.25	-1293.423	1	5033.277	-14.8906	-4.99055E-009	0.0117521	7
	25	37	3170.956	4992.604	-1436.139	1	5195.054	-16.04806	-3.268337E-008	0.0117405	7
	26	38	2527.573	5132.185	-1620.547	1	5381.96	-17.52412	8.995052E-008	0.0115606	7
	27	40	1976.103	5298.127	-1848.04	1	5611.186	-19.22929	9.167265E-008	0.0115631	7
	28	41	1577.524	5422.06	-2119.517	1	5821.605	-21.35084	-8.790808E-008	0.0118637	7
	29	42	1265.625	5604.025	-2399.628	1	6096.172	-23.18048	-4.222375E-008	0.0117505	7
	30	44	998.264	5777.53	-2788.826	1	6415.404	-25.7667	1.399113E-007	0.0115424	7
	31	45	796.875	5944.254	-3246.805	1	6773.175	-28.64377	-7.691715E-009	0.0118012	7
	32	47	627.7902	6124.682	-3853.76	1	7236.242	-32.17884	-7.974976E-009	0.0118028	7
	33	48	505.5147	6305.76	-4537.975	1	7768.901	-35.74088	1.140122E-008	0.0116643	7
	34	49	397.9953	6527.227	-5484.155	1	8525.295	-40.03687	4.15147E-009	0.0117728	7
	35	51	315.5048	6776.38	-6637.938	1	9485.86	-44.4087	3.592598E-009	0.0117719	7
	36	52	252.4038	7065.586	-8012.734	1	10683	-48.59432	2.833108E-010	0.011715	6
	37	53	198.6229	7452.137	-9852.13	1	12353.09	-52.89619	1.031668E-009	0.0117148	6
	38	55	158.3615	7921.426	-12002.09	1	14380.51	-56.57502	1.120809E-009	0.0117137	6
	39	56	125.558	8537.091	-14711.07	1	17008.75	-59.87265	8.618675E-010	0.0117108	6
	40	58	100.4464	9342.263	-17876.35	1	20170.32	-62.40823	1.187765E-009	0.0117047	6
	41	59	79.00281	10397.73	-22099.52	1	24423.38	-64.80322	7.236333E-010	0.0117049	6
	42	60	63.3446	11636.78	-26973.47	1	29376.56	-66.66387	2.094783E-010	0.0116989	6
	43	62	49.86702	13525.52	-32483.13	1	35186.55	-67.39384	1.458076E-009	0.0117021	6
	44	63	39.72458	15955.93	-39585.73	1	42680.46	-68.04697	1.958045E-010	0.0117078	6
	45	65	31.6723	19197.84	-47712.23	1	51429.7	-68.08176	6.504171E-011	0.0117079	6
	46	66	24.93351	23308.05	-57969.11	1	62479.46	-68.09607	5.501479E-010	0.0117001	6
	47	67	19.86229	28376.44	-69281.02	1	74867.1	-67.72675	-7.177684E-010	0.0117075	6
	48	69	15.83615	34934.18	-81380.2	1	88561.48	-66.76754	-1.480327E-009	0.0117093	6
	49	70	12.40079	43204.38	-97953.9	1	107058.8	-66.19923	-7.455256E-010	0.0117124	5
	50	71	9.93114	53616.04	-115661.9	1	127484.7	-65.12952	-3.878457E-011	0.011716	5
	51	73	7.944915	65802.59	-134544.2	1	149773.6	-63.93777	-2.718279E-011	0.0117111	5
	52	75	6.317385	79008.24	-155659.6	1	174562.9	-63.08899	-1.079121E-010	0.0117283	5
	53	77	5.008013	94702.27	-180395.8	1	203742.9	-62.3019	1.159531E-010	0.0117119	5
	54	79	3.945707	112235.2	-209610.2	1	237767	-61.83329	1.659038E-010	0.0117143	5
	55	82	3.158693	130084.2	-241766.8	1	274541.5	-61.71723	-1.101039E-010	0.01171	5
	56	85	2.504006	150257.3	-281414.8	1	319016.5	-61.90066	2.67307E-010	0.0117046	5
	57	88	1.998082	171629.5	-327614.7	1	369848.7	-62.35104	1.353223E-011	0.0117464	5
	58	91	1.584686	195245.6	-385097.4	1	431764.8	-63.11485	2.634448E-011	0.0117032	5
	59	95	1.266892	223195.3	-453892.1	1	505800.6	-63.81497	-3.939537E-012	0.01175	5
	60	99	0.999041	257452.8	-541464.4	1	599554.6	-64.57008	1.606833E-011	0.0116708	5
