EXPLAIN
TAG	EISPOT
TITLE	LABEL	Potentiostatic EIS	Test &Identifier
DATE	LABEL	10/18/2019	Date
TIME	LABEL	9:18:59	Time
NOTES	NOTES	1	&Notes...
	
PSTAT	PSTAT	REF600-11020	Potentiostat
VDC	POTEN	0.00000E+000	T	DC &Voltage (V)
FREQINIT	QUANT	1.00000E+006	Initial Fre&q. (Hz)
FREQFINAL	QUANT	1.00000E+000	Final Fre&q. (Hz)
PTSPERDEC	QUANT	1.00000E+001	Points/&decade
VAC	QUANT	2.50000E+001	AC &Voltage (mV rms)
AREA	QUANT	1.00000E-002	&Area (cm^2)
CONDIT	TWOPARAM	T	5.00000E+000	0.00000E+000	Conditionin&g	Time(s)	E(V)
DELAY	TWOPARAM	T	5.00000E+000	0.00000E+000	Init. De&lay	Time(s)	Stab.(mV/s)
SPEED	SELECTOR	0	&Optimize for:
ZGUESS	QUANT	1.00000E+005	E&stimated Z (ohms)
OCVCURVE	TABLE	19
	Pt	T	Vf	Vm	Ach	Over
	#	s	V vs. Ref.	V	V	bits
	0	0.258333	3.27862E-003	3.27862E-003	5.44799E-004	...........
	1	0.516667	3.27307E-003	2.98817E-003	5.45999E-004	...........
	2	0.775	3.23967E-003	2.74834E-003	5.42066E-004	...........
	3	1.03333	3.14525E-003	2.40238E-003	5.46833E-004	...........
	4	1.29167	2.97035E-003	2.03561E-003	5.51966E-004	...........
	5	1.55	2.72564E-003	2.00981E-003	5.52199E-004	...........
	6	1.80833	2.46239E-003	2.28813E-003	5.53099E-004	...........
	7	2.06667	2.26006E-003	2.12764E-003	5.51933E-004	...........
	8	2.325	2.15788E-003	1.91608E-003	5.46666E-004	...........
	9	2.58333	2.10947E-003	1.72292E-003	5.48233E-004	...........
	10	2.84167	2.03856E-003	1.51883E-003	5.46166E-004	...........
	11	3.1	1.91089E-003	1.30339E-003	5.46966E-004	...........
	12	3.35833	1.73553E-003	1.06995E-003	5.51366E-004	...........
	13	3.61667	1.53304E-003	8.87150E-004	5.51033E-004	...........
	14	3.875	1.32011E-003	6.84165E-004	5.50133E-004	...........
	15	4.13333	1.10901E-003	5.37578E-004	5.45133E-004	...........
	16	4.39167	9.08113E-004	3.61921E-004	5.43466E-004	...........
	17	4.65	7.19428E-004	1.24508E-004	5.46733E-004	...........
	18	4.90833	5.34999E-004	-1.16251E-004	5.41166E-004	...........
EOC	QUANT	0.000535	Open Circuit (V)
PSTATMODEL	IQUANT	4	Pstat Model
PSTATSECTION	LABEL	REF600-11020	Pstat Section
PSTATSERIALNO	LABEL	11020	Pstat Serial Number
CTRLMODE	IQUANT	1	Control Mode
IESTAB	IQUANT	0	I/E Stability
CASPEED	IQUANT	1	Control Amp Speed
CONVENTION	IQUANT	1	Current Convention
ICHRANGE	IQUANT	2	Ich Range
ICHRANGEMODE	TOGGLE	F	Ich Auto Range
ICHOFFSETENABLE	TOGGLE	T	Ich Offset Enable
ICHOFFSET	QUANT	0	Ich Offset (V)
ICHFILTER	IQUANT	3	Ich Filter
VCHRANGE	IQUANT	2	Vch Range
VCHRANGEMODE	TOGGLE	F	Vch Auto Range
VCHOFFSETENABLE	TOGGLE	T	Vch Offset Enable
VCHOFFSET	QUANT	0	Vch Offset (V)
VCHFILTER	IQUANT	3	Vch Filter
ACHRANGE	IQUANT	2	Ach Range
ACHOFFSETENABLE	TOGGLE	F	Ach Offset Enable
ACHOFFSET	QUANT	0	Ach Offset (V)
ACHFILTER	IQUANT	3	Ach Filter
IERANGELOWERLIMIT	IQUANT	1	I/E Range Lower Limit
IERANGEMODE	TOGGLE	F	I/E AutoRange
IERANGE	IQUANT	4	I/E Range
POSFEEDENABLE	TOGGLE	F	Positive Feedback IR Comp
POSFEEDRESISTANCE	QUANT	0	Positive Feedback Resistance (ohm)
ACHSELECT	IQUANT	0	Ach Select
CABLEID	IQUANT	14	Cable ID
DCCALDATE	LABEL	8/19/2019	DC Calibration Date
ACCALDATE	LABEL	8/19/2019	AC Calibration Date
THERMOSELECT	IQUANT	1	Thermo Select
FRAMEWORKVERSION	QUANT	6.33	Framework Version
INSTRUMENTVERSION	LABEL	3.50	Instrument Version
ZCURVE	TABLE
	Pt	Time	Freq	Zreal	Zimag	Zsig	Zmod	Zphz	Idc	Vdc	IERange
	#	s	Hz	ohm	ohm	V	ohm	°	A	V	#
	0	2	1000078	2219.939	-999.773	1	2434.682	-24.24492	4.972051E-006	0.0020949	8
	1	2	794390.6	2375.453	-887.8828	1	2535.964	-20.49444	-2.160732E-006	0.0024876	8
	2	2	630984.4	2510.263	-784.6485	1	2630.037	-17.35801	4.314642E-008	0.0025086	8
	3	3	501234.4	2605.429	-677.9176	1	2692.18	-14.58464	-3.047284E-007	0.0022148	8
	4	3	398109.4	2683.798	-582.0104	1	2746.181	-12.23574	-1.373157E-006	0.0024525	8
	5	3	316265.6	2731.516	-503.796	1	2777.587	-10.45009	-6.845767E-008	0.0020882	8
	6	4	251203.1	2771.28	-448.6104	1	2807.355	-9.195186	-1.296501E-006	0.0023888	8
	7	4	199546.9	2804.014	-384.7116	1	2830.283	-7.812223	2.821912E-006	0.0015764	8
	8	4	158578.1	2832.957	-339.0014	1	2853.168	-6.823763	-1.304606E-006	0.0023873	8
	9	4	125953.1	2888.506	-265.7029	1	2900.7	-5.255635	6.96778E-007	0.0001996	7
	10	5	100078.1	2899.72	-253.9765	1	2910.822	-5.005565	1.268915E-007	0.0018966	7
	11	5	79453.13	2920.167	-252.5837	1	2931.07	-4.94357	-1.340262E-008	0.0020606	7
	12	5	63140.62	2942.118	-256.8332	1	2953.307	-4.989008	1.289699E-007	0.001894	7
	13	6	50203.12	2966.605	-266.3126	1	2978.534	-5.129701	-3.443359E-008	0.0021119	7
	14	6	39890.62	2991.669	-281.0356	1	3004.84	-5.366582	3.916084E-008	0.0019595	7
	15	6	31640.63	3018.75	-300.9344	1	3033.713	-5.692917	-3.982499E-008	0.0021119	7
	16	7	25171.88	3048.14	-327.624	1	3065.697	-6.134783	6.395633E-008	0.001976	7
	17	7	20015.62	3067.544	-362.5106	1	3088.89	-6.739738	-3.760123E-008	0.0020949	7
	18	7	15890.62	3113.865	-400.3699	1	3139.499	-7.326693	-1.086892E-009	0.0020957	7
	19	8	12609.37	3152.332	-450.1179	1	3184.306	-8.126268	-1.206652E-008	0.0020594	7
	20	8	10078.13	3190.349	-505.9862	1	3230.224	-9.011994	-1.140078E-008	0.0020519	7
	21	8	8015.625	3221.769	-571.9554	1	3272.144	-10.06674	-1.04491E-008	0.0021173	7
	22	9	6328.125	3277.514	-667.1409	1	3344.723	-11.50542	-5.234855E-008	0.0022311	7
	23	9	5015.625	3326.247	-775.7285	1	3415.505	-13.12756	-3.587201E-009	0.0020875	7
	24	9	3984.375	3376.494	-922.8902	1	3500.349	-15.28715	7.558142E-008	0.002033	7
	25	10	3170.956	3435.311	-1065.238	1	3596.678	-17.22787	-7.245914E-008	0.0021897	7
	26	10	2527.573	3495.251	-1260.132	1	3715.469	-19.82559	-1.477935E-008	0.0020415	7
	27	10	1976.103	3568.17	-1518.514	1	3877.85	-23.05326	3.75887E-008	0.0019366	7
	28	10	1577.524	3630.236	-1822.329	1	4061.957	-26.65603	3.34053E-008	0.0020361	7
	29	11	1265.625	3722.646	-2174.202	1	4311.061	-30.28696	-7.184496E-008	0.0021865	7
	30	11	998.264	3829.793	-2645.218	1	4654.513	-34.63263	-3.893145E-008	0.0020969	7
	31	11	796.875	3941.517	-3200.302	1	5077.154	-39.07476	-1.150392E-008	0.0020337	7
	32	12	627.7902	4090.069	-3932.725	1	5674.063	-43.87645	-1.146417E-008	0.0020324	7
	33	12	505.5147	4252.391	-4741.655	1	6369.153	-48.11375	3.15035E-008	0.002036	7
	34	12	397.9953	4481.585	-5849.392	1	7368.853	-52.54202	3.982189E-009	0.0020843	7
	35	13	315.5048	4764.938	-7176.735	1	8614.532	-56.41813	2.972688E-009	0.0020865	7
	36	13	252.4038	5116.465	-8735.534	1	10123.62	-59.64219	1.890028E-009	0.0020818	7
	37	13	198.6229	5611.113	-10785.59	1	12157.86	-62.51467	3.120376E-010	0.0020246	6
	38	14	158.3615	6220.618	-13149.13	1	14546.33	-64.68201	1.578228E-009	0.0020205	6
	39	14	125.558	7041.794	-16089.59	1	17563.08	-66.36286	1.076473E-009	0.0020225	6
	40	14	100.4464	8064.019	-19519.93	1	21120.04	-67.55363	-4.907998E-010	0.0020221	6
	41	15	79.00281	9482.003	-23967.15	1	25774.65	-68.41501	1.030689E-009	0.0020232	6
	42	15	63.3446	11529	-28417.85	1	30667.44	-67.91782	5.042085E-010	0.0020194	6
	43	15	49.86702	13994.79	-34755.81	1	37467.59	-68.0673	6.575837E-010	0.0020177	6
	44	16	39.72458	16974.21	-41919.68	1	45225.91	-67.95588	4.02667E-010	0.0020241	6
	45	16	31.6723	20781.58	-49831.34	1	53991.08	-67.36199	2.309124E-010	0.0020179	6
	46	16	24.93351	26210.13	-59928.07	1	65409.05	-66.37737	3.203976E-012	0.0020138	6
	47	17	19.86229	32612.99	-70607.38	1	77775.38	-65.20816	-1.355055E-010	0.0020175	6
	48	17	15.83615	40738.31	-81760.43	1	91347.56	-63.51456	-1.087814E-009	0.0020087	6
	49	17	12.40079	49696.4	-96999.6	1	108989.2	-62.8723	2.416391E-009	0.0020195	5
	50	18	9.93114	62114.29	-111044.4	1	127236.2	-60.7789	1.673226E-009	0.00201	5
	51	18	7.944915	75238.05	-126566.2	1	147240.5	-59.27037	-6.810254E-012	0.0020223	5
	52	19	6.317385	90423.17	-144622.3	1	170563.7	-57.98487	-1.262388E-010	0.0020245	5
	53	20	5.008013	107762.2	-164214.6	1	196415.7	-56.72599	4.480147E-010	0.0020247	5
	54	21	3.945707	127173.9	-186180.8	1	225469.5	-55.66432	1.471281E-010	0.0020125	5
	55	22	3.158693	147051.2	-210014.1	1	256378.6	-55.00041	4.796907E-010	0.0020093	5
	56	24	2.504006	168534	-238313.1	1	291885	-54.73222	4.472673E-010	0.0020173	5
	57	25	1.998082	191253.8	-270424.7	1	331221.2	-54.73072	1.130652E-010	0.0019721	5
	58	27	1.584686	215319.9	-310422.3	1	377789.2	-55.25345	1.799068E-010	0.0019847	5
	59	29	1.266892	241787.2	-356003.8	1	430348.4	-55.81683	2.798843E-010	0.0020254	5
	60	31	0.999041	274369.5	-415382	1	497816.1	-56.55431	3.268587E-010	0.0020448	5
