EXPLAIN
TAG	EISPOT
TITLE	LABEL	Potentiostatic EIS	Test &Identifier
DATE	LABEL	10/18/2019	Date
TIME	LABEL	9:46:28	Time
NOTES	NOTES	1	&Notes...
	
PSTAT	PSTAT	REF600-11020	Potentiostat
VDC	POTEN	0.00000E+000	T	DC &Voltage (V)
FREQINIT	QUANT	1.00000E+006	Initial Fre&q. (Hz)
FREQFINAL	QUANT	1.00000E+000	Final Fre&q. (Hz)
PTSPERDEC	QUANT	1.00000E+001	Points/&decade
VAC	QUANT	2.50000E+001	AC &Voltage (mV rms)
AREA	QUANT	1.00000E-002	&Area (cm^2)
CONDIT	TWOPARAM	T	5.00000E+000	0.00000E+000	Conditionin&g	Time(s)	E(V)
DELAY	TWOPARAM	T	5.00000E+000	0.00000E+000	Init. De&lay	Time(s)	Stab.(mV/s)
SPEED	SELECTOR	0	&Optimize for:
ZGUESS	QUANT	1.00000E+005	E&stimated Z (ohms)
OCVCURVE	TABLE	19
	Pt	T	Vf	Vm	Ach	Over
	#	s	V vs. Ref.	V	V	bits
	0	0.258333	6.60528E-003	6.60528E-003	5.39166E-004	...........
	1	0.516667	6.60328E-003	6.50071E-003	5.37533E-004	...........
	2	0.775	6.59901E-003	6.81986E-003	5.34900E-004	...........
	3	1.03333	6.60555E-003	6.71197E-003	5.36233E-004	...........
	4	1.29167	6.63286E-003	6.53954E-003	5.30233E-004	...........
	5	1.55	6.66328E-003	6.85399E-003	5.31966E-004	...........
	6	1.80833	6.68683E-003	6.94598E-003	5.31533E-004	...........
	7	2.06667	6.72804E-003	6.96980E-003	5.34566E-004	...........
	8	2.325	6.80602E-003	7.30181E-003	5.40799E-004	...........
	9	2.58333	6.91809E-003	7.37246E-003	5.37699E-004	...........
	10	2.84167	7.05546E-003	7.41864E-003	5.39999E-004	...........
	11	3.1	7.19607E-003	7.40000E-003	5.36133E-004	...........
	12	3.35833	7.30790E-003	7.40829E-003	5.37333E-004	...........
	13	3.61667	7.37445E-003	7.39833E-003	5.32433E-004	...........
	14	3.875	7.40335E-003	7.45363E-003	5.32700E-004	...........
	15	4.13333	7.41541E-003	7.50561E-003	5.36766E-004	...........
	16	4.39167	7.42783E-003	7.39396E-003	5.36766E-004	...........
	17	4.65	7.44025E-003	7.41400E-003	5.36066E-004	...........
	18	4.90833	7.44606E-003	7.61514E-003	5.32100E-004	...........
EOC	QUANT	0.0074461	Open Circuit (V)
PSTATMODEL	IQUANT	4	Pstat Model
PSTATSECTION	LABEL	REF600-11020	Pstat Section
PSTATSERIALNO	LABEL	11020	Pstat Serial Number
CTRLMODE	IQUANT	1	Control Mode
IESTAB	IQUANT	0	I/E Stability
CASPEED	IQUANT	1	Control Amp Speed
CONVENTION	IQUANT	1	Current Convention
ICHRANGE	IQUANT	2	Ich Range
ICHRANGEMODE	TOGGLE	F	Ich Auto Range
ICHOFFSETENABLE	TOGGLE	T	Ich Offset Enable
ICHOFFSET	QUANT	0	Ich Offset (V)
ICHFILTER	IQUANT	3	Ich Filter
VCHRANGE	IQUANT	2	Vch Range
VCHRANGEMODE	TOGGLE	F	Vch Auto Range
VCHOFFSETENABLE	TOGGLE	T	Vch Offset Enable
VCHOFFSET	QUANT	0	Vch Offset (V)
VCHFILTER	IQUANT	3	Vch Filter
ACHRANGE	IQUANT	2	Ach Range
ACHOFFSETENABLE	TOGGLE	F	Ach Offset Enable
ACHOFFSET	QUANT	0	Ach Offset (V)
ACHFILTER	IQUANT	3	Ach Filter
IERANGELOWERLIMIT	IQUANT	1	I/E Range Lower Limit
IERANGEMODE	TOGGLE	F	I/E AutoRange
IERANGE	IQUANT	5	I/E Range
POSFEEDENABLE	TOGGLE	F	Positive Feedback IR Comp
POSFEEDRESISTANCE	QUANT	0	Positive Feedback Resistance (ohm)
ACHSELECT	IQUANT	0	Ach Select
CABLEID	IQUANT	14	Cable ID
DCCALDATE	LABEL	8/19/2019	DC Calibration Date
ACCALDATE	LABEL	8/19/2019	AC Calibration Date
THERMOSELECT	IQUANT	1	Thermo Select
FRAMEWORKVERSION	QUANT	6.33	Framework Version
INSTRUMENTVERSION	LABEL	3.50	Instrument Version
ZCURVE	TABLE
	Pt	Time	Freq	Zreal	Zimag	Zsig	Zmod	Zphz	Idc	Vdc	IERange
	#	s	Hz	ohm	ohm	V	ohm	°	A	V	#
	0	1	1000078	2516.743	-1499.957	1	2929.824	-30.79458	2.879472E-006	0.0093879	8
	1	1	794390.6	2791.945	-1385.564	1	3116.848	-26.39392	-2.784373E-006	0.0097897	8
	2	1	630984.4	3028.89	-1237.993	1	3272.125	-22.23122	7.823717E-007	0.0093092	8
	3	2	501234.4	3223	-1093.004	1	3403.29	-18.73314	-1.614379E-006	0.0095278	8
	4	2	398109.4	3362.56	-951.862	1	3494.689	-15.80558	1.317665E-006	0.0090321	8
	5	2	316265.6	3470.796	-806.2964	1	3563.221	-13.07834	-5.086477E-007	0.0090995	8
	6	3	251203.1	3542.544	-687.5199	1	3608.643	-10.98315	-1.186408E-006	0.0093569	8
	7	3	199546.9	3613.438	-611.8042	1	3664.865	-9.60982	8.515968E-007	0.0088918	8
	8	3	158578.1	3665.261	-537.6389	1	3704.483	-8.34492	6.077993E-007	0.0087911	8
	9	4	125953.1	3719.607	-395.1387	1	3740.536	-6.063864	1.351563E-006	0.006538	7
	10	4	100078.1	3742.579	-356.6679	1	3759.536	-5.443849	3.15272E-009	0.0090135	7
	11	4	79453.13	3766.729	-332.0504	1	3781.337	-5.0378	-7.544703E-008	0.0091881	7
	12	5	63140.62	3792.636	-318.1041	1	3805.953	-4.794413	8.662351E-008	0.008999	7
	13	5	50203.12	3817.732	-312.1399	1	3830.471	-4.674137	4.456095E-009	0.0089987	7
	14	5	39890.62	3842.709	-314.0922	1	3855.525	-4.672807	-5.570308E-009	0.0090691	7
	15	6	31640.63	3869.9	-323.5259	1	3883.4	-4.778849	-3.581974E-008	0.0091335	7
	16	6	25171.88	3897.054	-340.1973	1	3911.875	-4.989046	-4.010619E-008	0.0090785	7
	17	6	20015.62	3925.899	-366.2146	1	3942.943	-5.329226	-5.998551E-008	0.0092346	7
	18	7	15890.62	3956.524	-400.8187	1	3976.775	-5.784657	8.355899E-008	0.0090029	7
	19	7	12609.37	3988.368	-446.8562	1	4013.323	-6.392752	-2.383998E-008	0.0091205	7
	20	7	10078.13	4022.547	-503.3335	1	4053.915	-7.132242	-3.535246E-008	0.0091294	7
	21	7	8015.625	4061.131	-569.6248	1	4100.885	-7.984367	-3.754183E-008	0.009128	7
	22	8	6328.125	4098.852	-662.4164	1	4152.033	-9.180212	3.822474E-008	0.0090082	7
	23	8	5015.625	4143.769	-775.2842	1	4215.672	-10.59731	-2.127639E-009	0.0090552	7
	24	8	3984.375	4211.625	-903.3326	1	4307.411	-12.1057	4.065632E-008	0.0090089	7
	25	9	3170.956	4243.006	-1078.517	1	4377.934	-14.26181	7.941158E-008	0.0088857	7
	26	9	2527.573	4302.432	-1283.341	1	4489.753	-16.60893	4.006717E-008	0.0090022	7
	27	9	1976.103	4377.072	-1558.537	1	4646.267	-19.59921	-3.635418E-008	0.0091188	7
	28	10	1577.524	4406.696	-1828.098	1	4770.84	-22.5309	-3.433515E-008	0.009058	7
	29	10	1265.625	4551.264	-2228.324	1	5067.488	-26.08663	-3.866387E-008	0.0090823	7
	30	10	998.264	4660.695	-2712.596	1	5392.611	-30.20006	3.911911E-008	0.0089925	7
	31	11	796.875	4792.165	-3273.653	1	5803.589	-34.33801	8.801275E-008	0.0089814	7
	32	11	627.7902	4953.784	-4004.678	1	6370.042	-38.95235	-1.11898E-008	0.009009	7
	33	11	505.5147	5118.222	-4812.233	1	7025.225	-43.23509	-3.808429E-008	0.0090823	7
	34	12	397.9953	5335.452	-5912.262	1	7963.786	-47.9357	2.612023E-009	0.0090621	7
	35	12	315.5048	5594.218	-7235.749	1	9146.11	-52.2911	4.223798E-009	0.0090783	7
	36	12	252.4038	5903.391	-8797.417	1	10594.55	-56.13693	1.236947E-009	0.0089958	6
	37	13	198.6229	6311.815	-10866.68	1	12566.77	-59.85021	9.659408E-011	0.0089999	6
	38	13	158.3615	6802.489	-13274.52	1	14915.99	-62.86726	-5.23387E-010	0.0089978	6
	39	13	125.558	7450.313	-16313.82	1	17934.54	-65.45442	3.649244E-010	0.0090024	6
	40	14	100.4464	8231.139	-19847.09	1	21486.24	-67.47485	1.486241E-009	0.0089989	6
	41	14	79.00281	9402	-24481.5	1	26224.82	-68.99096	1.127058E-009	0.008999	6
	42	14	63.3446	10867.6	-30225.21	1	32119.59	-70.22374	-3.434019E-010	0.0089958	6
	43	15	49.86702	12677.29	-37045.78	1	39154.87	-71.10874	-1.002393E-009	0.008992	6
	44	15	39.72458	15186.73	-44706.72	1	47215.75	-71.23754	-9.700406E-011	0.0089988	6
	45	15	31.6723	18539.56	-54062.46	1	57153	-71.0717	-7.64948E-011	0.0089972	6
	46	16	24.93351	22873.52	-65935.15	1	69789.98	-70.86787	4.370088E-010	0.0089968	6
	47	16	19.86229	28351.83	-79312.26	1	84227.43	-70.32951	1.471495E-009	0.0090024	6
	48	16	15.83615	36780.64	-95449.5	1	102290.9	-68.92626	-2.529523E-009	0.008996	6
	49	16	12.40079	45500.56	-113104.6	1	121913.7	-68.0857	2.298857E-009	0.0089997	5
	50	17	9.93114	57082.73	-135228.4	1	146782.7	-67.11437	-3.410287E-010	0.008997	5
	51	17	7.944915	71021.38	-158287.3	1	173490.4	-65.83487	-1.383051E-009	0.0090065	5
	52	18	6.317385	89700.26	-184607.2	1	205246.1	-64.08498	-7.815313E-010	0.009016	5
	53	19	5.008013	111682.9	-214378.8	1	241725.7	-62.48227	-2.697588E-010	0.0090071	5
	54	20	3.945707	138957.7	-247529.8	1	283866.6	-60.69113	1.33412E-011	0.0089985	5
	55	21	3.158693	166762.2	-282453.3	1	328008.3	-59.44213	1.293271E-010	0.0090077	5
	56	23	2.504006	200385.6	-321801.8	1	379092	-58.08953	-1.310744E-010	0.0090017	5
	57	24	1.998082	235794.2	-364682.8	1	434272.3	-57.11437	-2.23441E-010	0.0089708	5
	58	26	1.584686	275622.5	-412417.3	1	496040.1	-56.24481	-7.013984E-011	0.0090182	5
	59	28	1.266892	317930.1	-466422.1	1	564472.4	-55.72025	6.479377E-011	0.0090584	5
	60	30	0.999041	365042.1	-533856.8	1	646729.4	-55.63635	-1.173329E-011	0.0090754	5
