EXPLAIN
TAG	EISPOT
TITLE	LABEL	Potentiostatic EIS	Test &Identifier
DATE	LABEL	10/8/2019	Date
TIME	LABEL	9:23:54	Time
NOTES	NOTES	2	&Notes...
	
	
PSTAT	PSTAT	REF600-11020	Potentiostat
VDC	POTEN	0.00000E+000	T	DC &Voltage (V)
FREQINIT	QUANT	1.00000E+006	Initial Fre&q. (Hz)
FREQFINAL	QUANT	1.00000E+000	Final Fre&q. (Hz)
PTSPERDEC	QUANT	1.00000E+001	Points/&decade
VAC	QUANT	2.50000E+001	AC &Voltage (mV rms)
AREA	QUANT	1.00000E-002	&Area (cm^2)
CONDIT	TWOPARAM	T	5.00000E+000	0.00000E+000	Conditionin&g	Time(s)	E(V)
DELAY	TWOPARAM	T	5.00000E+000	0.00000E+000	Init. De&lay	Time(s)	Stab.(mV/s)
SPEED	SELECTOR	1	&Optimize for:
ZGUESS	QUANT	1.00000E+004	E&stimated Z (ohms)
OCVCURVE	TABLE	19
	Pt	T	Vf	Vm	Ach	Over
	#	s	V vs. Ref.	V	V	bits
	0	0.258333	7.94589E-003	7.94589E-003	5.23566E-004	...........
	1	0.516667	7.94547E-003	7.92376E-003	5.23266E-004	...........
	2	0.775	7.94276E-003	7.89696E-003	5.24400E-004	...........
	3	1.03333	7.93541E-003	7.90692E-003	5.30700E-004	...........
	4	1.29167	7.92429E-003	7.90387E-003	5.21100E-004	...........
	5	1.55	7.91386E-003	7.90741E-003	5.17933E-004	...........
	6	1.80833	7.90801E-003	7.92815E-003	5.20433E-004	...........
	7	2.06667	7.90870E-003	7.96495E-003	5.27666E-004	...........
	8	2.325	7.91740E-003	7.97895E-003	5.19800E-004	...........
	9	2.58333	7.93400E-003	8.00725E-003	5.24366E-004	...........
	10	2.84167	7.95598E-003	8.04074E-003	5.28200E-004	...........
	11	3.1	7.98105E-003	8.07284E-003	5.28600E-004	...........
	12	3.35833	8.00868E-003	8.10476E-003	5.29999E-004	...........
	13	3.61667	8.03850E-003	8.13200E-003	5.31700E-004	...........
	14	3.875	8.06949E-003	8.16720E-003	5.27600E-004	...........
	15	4.13333	8.10069E-003	8.19480E-003	5.22533E-004	...........
	16	4.39167	8.13185E-003	8.23114E-003	5.25100E-004	...........
	17	4.65	8.16323E-003	8.26328E-003	5.24466E-004	...........
	18	4.90833	8.19516E-003	8.29557E-003	5.32233E-004	...........
EOC	QUANT	0.0081952	Open Circuit (V)
PSTATMODEL	IQUANT	4	Pstat Model
PSTATSECTION	LABEL	REF600-11020	Pstat Section
PSTATSERIALNO	LABEL	11020	Pstat Serial Number
CTRLMODE	IQUANT	1	Control Mode
IESTAB	IQUANT	0	I/E Stability
CASPEED	IQUANT	1	Control Amp Speed
CONVENTION	IQUANT	1	Current Convention
ICHRANGE	IQUANT	2	Ich Range
ICHRANGEMODE	TOGGLE	F	Ich Auto Range
ICHOFFSETENABLE	TOGGLE	T	Ich Offset Enable
ICHOFFSET	QUANT	0	Ich Offset (V)
ICHFILTER	IQUANT	3	Ich Filter
VCHRANGE	IQUANT	2	Vch Range
VCHRANGEMODE	TOGGLE	F	Vch Auto Range
VCHOFFSETENABLE	TOGGLE	T	Vch Offset Enable
VCHOFFSET	QUANT	0	Vch Offset (V)
VCHFILTER	IQUANT	3	Vch Filter
ACHRANGE	IQUANT	2	Ach Range
ACHOFFSETENABLE	TOGGLE	F	Ach Offset Enable
ACHOFFSET	QUANT	0	Ach Offset (V)
ACHFILTER	IQUANT	3	Ach Filter
IERANGELOWERLIMIT	IQUANT	1	I/E Range Lower Limit
IERANGEMODE	TOGGLE	F	I/E AutoRange
IERANGE	IQUANT	6	I/E Range
POSFEEDENABLE	TOGGLE	F	Positive Feedback IR Comp
POSFEEDRESISTANCE	QUANT	0	Positive Feedback Resistance (ohm)
ACHSELECT	IQUANT	0	Ach Select
CABLEID	IQUANT	14	Cable ID
DCCALDATE	LABEL	8/19/2019	DC Calibration Date
ACCALDATE	LABEL	8/19/2019	AC Calibration Date
THERMOSELECT	IQUANT	1	Thermo Select
FRAMEWORKVERSION	QUANT	6.33	Framework Version
INSTRUMENTVERSION	LABEL	3.50	Instrument Version
ZCURVE	TABLE
	Pt	Time	Freq	Zreal	Zimag	Zsig	Zmod	Zphz	Idc	Vdc	IERange
	#	s	Hz	ohm	ohm	V	ohm	°	A	V	#
	0	2	1000078	2324.145	-1391.171	1	2708.691	-30.90362	6.03136E-006	0.0094884	8
	1	4	794390.6	2569.969	-1317.487	1	2887.994	-27.14181	3.060546E-006	0.0092841	8
	2	5	630984.4	2796.877	-1213.913	1	3048.952	-23.46202	3.21985E-006	0.0092785	8
	3	6	501234.4	2984.795	-1088.229	1	3176.987	-20.03139	-1.381288E-006	0.0100656	8
	4	8	398109.4	3134.06	-973.343	1	3281.726	-17.25319	-2.937137E-006	0.0105129	8
	5	9	316265.6	3251.723	-864.2232	1	3364.607	-14.88365	1.342315E-006	0.0094285	8
	6	10	251203.1	3344.001	-775.3948	1	3432.722	-13.05483	4.174713E-006	0.0091323	8
	7	12	199546.9	3426.302	-706.9776	1	3498.48	-11.6587	3.988935E-006	0.0091597	8
	8	13	158578.1	3489.836	-628.6276	1	3546.001	-10.21124	3.192088E-006	0.0091727	8
	9	14	125953.1	3562.789	-560.9999	1	3606.686	-8.948372	-9.20309E-007	0.0116469	7
	10	16	100078.1	3612.408	-532.5951	1	3651.458	-8.386978	-4.175492E-008	0.0098169	7
	11	17	79453.13	3662.839	-528.5604	1	3700.779	-8.211297	-3.521029E-008	0.0098014	7
	12	18	63140.62	3714.639	-536.11	1	3753.126	-8.212426	6.61895E-008	0.0096814	7
	13	20	50203.12	3768.208	-551.35	1	3808.331	-8.324235	-1.09179E-008	0.0099283	7
	14	21	39890.62	3824.289	-577.2535	1	3867.61	-8.583655	-8.483736E-008	0.0099378	7
	15	22	31640.63	3886.028	-614.6613	1	3934.339	-8.988133	1.418482E-007	0.0095763	7
	16	24	25171.88	3950.369	-663.2222	1	4005.656	-9.53043	-3.982182E-008	0.0098741	7
	17	25	20015.62	4027.26	-733.4014	1	4093.495	-10.32099	-3.351006E-008	0.0097944	7
	18	26	15890.62	4095.494	-793.2456	1	4171.607	-10.96174	9.707806E-008	0.0097178	7
	19	28	12609.37	4176.69	-881.5488	1	4268.708	-11.91815	9.763126E-008	0.0097171	7
	20	29	10078.13	4261.588	-981.201	1	4373.087	-12.966	-3.870606E-008	0.0098182	7
	21	30	8015.625	4360.593	-1100.503	1	4497.319	-14.16422	-3.882167E-008	0.009815	7
	22	32	6328.125	4462.659	-1255.373	1	4635.87	-15.71162	-3.977966E-008	0.0098	7
	23	33	5015.625	4575.541	-1433.081	1	4794.715	-17.3908	-3.710119E-008	0.0098184	7
	24	35	3984.375	4696.792	-1639.531	1	4974.729	-19.2428	-2.919849E-008	0.00979	7
	25	36	3170.956	4830.627	-1895.999	1	5189.39	-21.42978	9.94909E-008	0.0097234	7
	26	37	2527.573	4976.536	-2197.474	1	5440.11	-23.82467	-2.599577E-009	0.0098198	7
	27	39	1976.103	5139.134	-2595.643	1	5757.436	-26.79715	-6.049029E-008	0.0099698	7
	28	40	1577.524	5304.993	-3042.427	1	6115.498	-29.83438	-8.330432E-008	0.0099261	7
	29	41	1265.625	5494.439	-3573.847	1	6554.483	-33.04191	7.159389E-009	0.0097176	7
	30	43	998.264	5716.286	-4280.774	1	7141.495	-36.82856	-3.78273E-008	0.0098629	7
	31	44	796.875	5964.558	-5093.138	1	7843.214	-40.49402	-8.521884E-008	0.0099293	7
	32	45	627.7902	6269.134	-6141.298	1	8775.966	-44.40984	8.408776E-008	0.0096084	7
	33	47	505.5147	6600.916	-7290.494	1	9834.8	-47.84187	-5.472467E-008	0.0098182	7
	34	48	397.9953	7016.291	-8871.283	1	11310.53	-51.65956	6.935588E-010	0.0097457	6
	35	49	315.5048	7502.129	-10734.03	1	13095.85	-55.04988	2.512202E-010	0.0097424	6
	36	51	252.4038	8056.954	-12913.91	1	15221.16	-58.04008	7.191653E-010	0.0097397	6
	37	52	198.6229	8772.21	-15770.12	1	18045.73	-60.91477	3.38841E-010	0.0097398	6
	38	53	158.3615	9586.46	-19078.53	1	21351.59	-63.32167	3.119791E-010	0.0097367	6
	39	55	125.558	10600.11	-23215.76	1	25521.24	-65.45898	5.611062E-010	0.0097332	6
	40	56	100.4464	11772.72	-28057.14	1	30426.97	-67.23717	2.751147E-010	0.0097329	6
	41	57	79.00281	13465.63	-34485.11	1	37020.88	-68.67051	1.756213E-010	0.0097363	6
	42	59	63.3446	15330.88	-42034.98	1	44743.45	-69.96222	7.889273E-010	0.0097354	6
	43	60	49.86702	17866.87	-50953.73	1	53995.45	-70.67683	5.677268E-010	0.0097354	6
	44	62	39.72458	21135.95	-62210.68	1	65703.1	-71.23492	6.064054E-010	0.009736	6
	45	63	31.6723	25625.69	-75646.83	1	79869.38	-71.28597	9.0082E-010	0.0097317	6
	46	64	24.93351	31585.77	-92400.55	1	97650	-71.12776	1.548577E-010	0.0097273	6
	47	66	19.86229	39173.04	-111312.6	1	118004.3	-70.61205	9.913456E-010	0.009737	5
	48	67	15.83615	48178.03	-134218.8	1	142603.7	-70.25433	1.225414E-009	0.0097328	5
	49	69	12.40079	64066.89	-162645.5	1	174808.8	-68.50027	2.799744E-010	0.0097308	5
	50	70	9.93114	80504.83	-190595.2	1	206899.8	-67.10146	4.433527E-010	0.0097318	5
	51	72	7.944915	101895.8	-223348.1	1	245493.6	-65.47659	4.083643E-010	0.0097414	5
	52	73	6.317385	128579.8	-260247	1	290277.9	-63.70748	-2.645578E-010	0.009744	5
	53	75	5.008013	161589.3	-301174.7	1	341785.5	-61.7851	7.960875E-011	0.0097378	5
	54	78	3.945707	200620.8	-346120.3	1	400059.9	-59.90224	-4.784466E-011	0.0097347	5
	55	80	3.158693	241574.2	-391744.8	1	460241.3	-58.33943	2.475812E-010	0.0097553	5
	56	84	2.504006	289642.4	-443659.1	1	529835.9	-56.86153	-2.316215E-010	0.0097374	5
	57	86	1.998082	339378.4	-498033.9	1	602673.6	-55.72806	2.876094E-011	0.0096938	5
	58	89	1.584686	392613.6	-561542.5	1	685182.8	-55.03991	-7.075488E-011	0.009736	5
	59	93	1.266892	449773.5	-633441.5	1	776881.2	-54.62344	3.188549E-012	0.0096994	5
	60	97	0.999041	514372.1	-722431.1	1	886840.1	-54.54908	1.389962E-010	0.0097818	5
