EXPLAIN
TAG	EISPOT
TITLE	LABEL	Potentiostatic IDE	Test &Identifier
DATE	LABEL	9/8/2019	Date
TIME	LABEL	11:07:19	Time
NOTES	NOTES	1	&Notes...
	
PSTAT	PSTAT	REF600-11020	Potentiostat
VDC	POTEN	0.00000E+000	T	DC &Voltage (V)
FREQINIT	QUANT	1.00000E+006	Initial Fre&q. (Hz)
FREQFINAL	QUANT	1.00000E+000	Final Fre&q. (Hz)
PTSPERDEC	QUANT	1.00000E+001	Points/&decade
VAC	QUANT	2.50000E+001	AC &Voltage (mV rms)
AREA	QUANT	1.00000E-002	&Area (cm^2)
CONDIT	TWOPARAM	T	5.00000E+000	0.00000E+000	Conditionin&g	Time(s)	E(V)
DELAY	TWOPARAM	T	5.00000E+000	0.00000E+000	Init. De&lay	Time(s)	Stab.(mV/s)
SPEED	SELECTOR	1	&Optimize for:
ZGUESS	QUANT	1.00000E+007	E&stimated Z (ohms)
OCVCURVE	TABLE	19
	Pt	T	Vf	Vm	Ach	Over
	#	s	V vs. Ref.	V	V	bits
	0	0.258333	1.53820E-003	1.53820E-003	6.35598E-004	...........
	1	0.516667	1.53074E-003	1.14758E-003	6.37365E-004	...........
	2	0.775	1.48522E-003	7.93408E-004	6.42965E-004	...........
	3	1.03333	1.35779E-003	4.69446E-004	6.40398E-004	...........
	4	1.29167	1.13324E-003	1.66014E-004	6.40731E-004	...........
	5	1.55	8.40517E-004	-1.20720E-004	6.35931E-004	...........
	6	1.80833	5.23333E-004	-3.84338E-004	6.40831E-004	...........
	7	2.06667	2.12047E-004	-6.42553E-004	6.36765E-004	...........
	8	2.325	-8.10949E-005	-8.82127E-004	6.37565E-004	...........
	9	2.58333	-3.55054E-004	-1.11625E-003	6.34765E-004	...........
	10	2.84167	-6.12708E-004	-1.33509E-003	6.41431E-004	...........
	11	3.1	-8.56937E-004	-1.54838E-003	6.37398E-004	...........
	12	3.35833	-1.08969E-003	-1.75282E-003	6.41864E-004	...........
	13	3.61667	-1.31239E-003	-1.95264E-003	6.37665E-004	...........
	14	3.875	-1.52634E-003	-2.14394E-003	6.33531E-004	...........
	15	4.13333	-1.73247E-003	-2.32294E-003	6.32231E-004	...........
	16	4.39167	-1.93109E-003	-2.50430E-003	6.33531E-004	...........
	17	4.65	-2.12266E-003	-2.69082E-003	6.38398E-004	...........
	18	4.90833	-2.30863E-003	-2.85386E-003	6.37031E-004	...........
EOC	QUANT	-0.0023086	Open Circuit (V)
PSTATMODEL	IQUANT	4	Pstat Model
PSTATSECTION	LABEL	REF600-11020	Pstat Section
PSTATSERIALNO	LABEL	11020	Pstat Serial Number
CTRLMODE	IQUANT	1	Control Mode
IESTAB	IQUANT	0	I/E Stability
CASPEED	IQUANT	1	Control Amp Speed
CONVENTION	IQUANT	1	Current Convention
ICHRANGE	IQUANT	2	Ich Range
ICHRANGEMODE	TOGGLE	F	Ich Auto Range
ICHOFFSETENABLE	TOGGLE	T	Ich Offset Enable
ICHOFFSET	QUANT	0	Ich Offset (V)
ICHFILTER	IQUANT	3	Ich Filter
VCHRANGE	IQUANT	2	Vch Range
VCHRANGEMODE	TOGGLE	F	Vch Auto Range
VCHOFFSETENABLE	TOGGLE	T	Vch Offset Enable
VCHOFFSET	QUANT	0	Vch Offset (V)
VCHFILTER	IQUANT	3	Vch Filter
ACHRANGE	IQUANT	2	Ach Range
ACHOFFSETENABLE	TOGGLE	F	Ach Offset Enable
ACHOFFSET	QUANT	0	Ach Offset (V)
ACHFILTER	IQUANT	3	Ach Filter
IERANGELOWERLIMIT	IQUANT	1	I/E Range Lower Limit
IERANGEMODE	TOGGLE	F	I/E AutoRange
IERANGE	IQUANT	2	I/E Range
POSFEEDENABLE	TOGGLE	F	Positive Feedback IR Comp
POSFEEDRESISTANCE	QUANT	0	Positive Feedback Resistance (ohm)
ACHSELECT	IQUANT	0	Ach Select
CABLEID	IQUANT	14	Cable ID
DCCALDATE	LABEL	8/19/2019	DC Calibration Date
ACCALDATE	LABEL	8/19/2019	AC Calibration Date
THERMOSELECT	IQUANT	1	Thermo Select
FRAMEWORKVERSION	QUANT	6.33	Framework Version
INSTRUMENTVERSION	LABEL	3.50	Instrument Version
ZCURVE	TABLE
	Pt	Time	Freq	Zreal	Zimag	Zsig	Zmod	Zphz	Idc	Vdc	IERange
	#	s	Hz	ohm	ohm	V	ohm	°	A	V	#
	0	2	1000078	2637.489	-1424.819	1	2997.742	-28.37872	4.052385E-006	-0.001247	8
	1	3	794390.6	2885.935	-1299.211	1	3164.896	-24.23666	-2.612002E-006	5.581811E-005	8
	2	5	630984.4	3105.146	-1135.647	1	3306.301	-20.08902	-3.585283E-006	0.000504	8
	3	6	501234.4	3266.292	-992.963	1	3413.889	-16.90943	6.372765E-006	-0.0015361	8
	4	7	398109.4	3366.288	-846.8549	1	3471.176	-14.12084	3.537679E-006	-0.0012928	8
	5	9	316265.6	3475.532	-722.381	1	3549.811	-11.74161	1.761437E-006	-0.001142	8
	6	10	251203.1	3544.596	-647.3073	1	3603.216	-10.3492	7.148305E-007	-0.0007519	8
	7	12	199546.9	3588.742	-527.2902	1	3627.272	-8.358604	1.480099E-006	-0.0009966	8
	8	13	158578.1	3626.829	-475.988	1	3657.93	-7.476813	1.836872E-006	-0.0011351	8
	9	15	125953.1	3666.562	-380.5379	1	3686.256	-5.925288	4.870906E-007	-0.0018819	7
	10	16	100078.1	3691.429	-346.1586	1	3707.624	-5.357166	-7.011658E-008	-0.0005376	7
	11	17	79453.13	3713.364	-332.8559	1	3728.252	-5.122149	-8.672293E-009	-0.0006021	7
	12	19	63140.62	3740.01	-327.8662	1	3754.353	-5.01	-5.006541E-008	-0.0005451	7
	13	20	50203.12	3765.849	-331.547	1	3780.415	-5.031374	-3.925302E-008	-0.0005961	7
	14	21	39890.62	3792.297	-344.1887	1	3807.884	-5.185955	-3.98031E-008	-0.0005981	7
	15	23	31640.63	3821.237	-365.4938	1	3838.677	-5.463608	-5.296831E-009	-0.0006242	7
	16	24	25171.88	3849.632	-395.8323	1	3869.929	-5.870717	-1.258686E-008	-0.0006022	7
	17	25	20015.62	3883.069	-436.5533	1	3907.531	-6.414534	-1.861115E-008	-0.0005076	7
	18	27	15890.62	3921.671	-495.8062	1	3952.889	-7.20552	7.50797E-008	-0.000685	7
	19	28	12609.37	3960	-556.7641	1	3998.949	-8.003155	2.490258E-008	-0.0007424	7
	20	29	10078.13	4004.84	-634.8298	1	4054.843	-9.007335	5.101707E-008	-0.0008045	7
	21	31	8015.625	4056.403	-731.4208	1	4121.818	-10.22132	8.99818E-008	-0.0008322	7
	22	32	6328.125	4116.653	-854.6137	1	4204.426	-11.72797	3.677296E-008	-0.0006838	7
	23	33	5015.625	4185.338	-998.82	1	4302.871	-13.42243	-4.808079E-008	-0.0005505	7
	24	35	3984.375	4264.292	-1172.669	1	4422.594	-15.37611	1.405996E-007	-0.0008646	7
	25	36	3170.956	4354.233	-1376.788	1	4566.715	-17.54671	3.727304E-008	-0.0006874	7
	26	37	2527.573	4459.917	-1620.244	1	4745.108	-19.96559	-6.93415E-008	-0.0005521	7
	27	38	1976.103	4593.858	-1936.801	1	4985.452	-22.86061	-3.140664E-008	-0.0006548	7
	28	40	1577.524	4737.14	-2285.823	1	5259.799	-25.75881	1.424546E-007	-0.0008635	7
	29	41	1265.625	4897.74	-2689.095	1	5587.404	-28.76891	-6.686929E-008	-0.0005579	7
	30	42	998.264	5102.917	-3207.028	1	6027.005	-32.14811	1.403048E-007	-0.0008744	7
	31	44	796.875	5322.59	-3790.874	1	6534.576	-35.45937	-3.921615E-008	-0.0006137	7
	32	45	627.7902	5597.279	-4538.749	1	7206.231	-39.03807	3.86284E-008	-0.0007036	7
	33	46	505.5147	5884.684	-5356.278	1	7957.337	-42.30867	-4.747355E-008	-0.0005572	7
	34	48	397.9953	6251.611	-6434.789	1	8971.575	-45.82723	6.855465E-009	-0.0006402	7
	35	49	315.5048	6668.479	-7707.769	1	10192.07	-49.13484	1.161457E-009	-0.0007062	6
	36	50	252.4038	7130.273	-9186.999	1	11629.35	-52.18402	1.881572E-009	-0.0007101	6
	37	52	198.6229	7714.15	-11115.34	1	13529.93	-55.23899	1.226461E-009	-0.0007022	6
	38	53	158.3615	8371.891	-13335.35	1	15745.48	-57.87953	1.829152E-009	-0.0007124	6
	39	54	125.558	9175.035	-16092.58	1	18524.37	-60.31077	1.361928E-009	-0.0007066	6
	40	56	100.4464	10089.34	-19291.16	1	21770.25	-62.39028	1.81842E-009	-0.0007019	6
	41	57	79.00281	11347.33	-23503.85	1	26099.67	-64.2294	1.073665E-009	-0.0007105	6
	42	58	63.3446	12579.23	-28006.92	1	30702.19	-65.8129	8.836309E-010	-0.0007129	6
	43	60	49.86702	14579.77	-34377.79	1	37341.69	-67.01799	1.612002E-009	-0.0007117	6
	44	61	39.72458	16536.26	-41348.27	1	44532.31	-68.20222	1.236954E-009	-0.0007126	6
	45	62	31.6723	19160.07	-49951.44	1	53500.05	-69.01449	1.969303E-009	-0.0007171	6
	46	64	24.93351	22417.49	-60783.37	1	64785.51	-69.75554	1.191168E-009	-0.0007199	6
	47	65	19.86229	26361.04	-73320.73	1	77915.55	-70.22494	1.389376E-009	-0.0007158	6
	48	66	15.83615	31382.29	-88794.56	1	94177.08	-70.53528	4.70407E-012	-0.0007147	6
	49	68	12.40079	37876.35	-107633.3	1	114103.2	-70.61295	2.519843E-010	-0.0007133	5
	50	69	9.93114	46099.46	-129434.8	1	137399.1	-70.39615	4.824978E-010	-0.000711	5
	51	71	7.944915	56163.05	-154898	1	164765.5	-70.07033	2.876671E-010	-0.000715	5
	52	73	6.317385	69030.2	-185618.3	1	198038.7	-69.60017	1.490287E-010	-0.0006982	5
	53	75	5.008013	86016.27	-222391.5	1	238446.6	-68.8546	2.49748E-010	-0.0007134	5
	54	77	3.945707	108124.1	-266398.3	1	287504.6	-67.90906	4.121713E-010	-0.0007102	5
	55	80	3.158693	133843.2	-313612.1	1	340978.8	-66.88821	3.245229E-010	-0.0006936	5
	56	83	2.504006	166430.8	-370489.2	1	406154.4	-65.80947	1.745324E-010	-0.0007132	5
	57	86	1.998082	204880.9	-433099.1	1	479114.8	-64.68314	4.222457E-011	-0.0007249	5
	58	89	1.584686	254003.1	-504128.4	1	564502.4	-63.25893	2.112076E-010	-0.0006728	5
	59	92	1.266892	308471.7	-583639.8	1	660144.1	-62.14216	6.68078E-011	-0.0007387	5
	60	97	0.999041	376742.5	-675711.8	1	773641.6	-60.85818	2.417475E-010	-0.0006811	5
