EXPLAIN
TAG	EISPOT
TITLE	LABEL	Potentiostatic EIS	Test &Identifier
DATE	LABEL	11/11/2019	Date
TIME	LABEL	11:09:17	Time
NOTES	NOTES	3	&Notes...
	
	
	
PSTAT	PSTAT	REF600-11020	Potentiostat
VDC	POTEN	0.00000E+000	T	DC &Voltage (V)
FREQINIT	QUANT	1.00000E+006	Initial Fre&q. (Hz)
FREQFINAL	QUANT	1.00000E+000	Final Fre&q. (Hz)
PTSPERDEC	QUANT	1.00000E+001	Points/&decade
VAC	QUANT	2.50000E+001	AC &Voltage (mV rms)
AREA	QUANT	1.00000E-002	&Area (cm^2)
CONDIT	TWOPARAM	T	5.00000E+000	0.00000E+000	Conditionin&g	Time(s)	E(V)
DELAY	TWOPARAM	T	5.00000E+000	0.00000E+000	Init. De&lay	Time(s)	Stab.(mV/s)
SPEED	SELECTOR	1	&Optimize for:
ZGUESS	QUANT	1.00000E+005	E&stimated Z (ohms)
OCVCURVE	TABLE	19
	Pt	T	Vf	Vm	Ach	Over
	#	s	V vs. Ref.	V	V	bits
	0	0.258333	-3.50855E-003	-3.50855E-003	5.43866E-004	...........
	1	0.516667	-3.52261E-003	-4.24428E-003	5.33866E-004	...........
	2	0.775	-3.60542E-003	-4.75847E-003	5.38599E-004	...........
	3	1.03333	-3.83033E-003	-5.37216E-003	5.42799E-004	...........
	4	1.29167	-4.21947E-003	-5.92045E-003	5.35099E-004	...........
	5	1.55	-4.72647E-003	-6.44314E-003	5.42733E-004	...........
	6	1.80833	-5.28391E-003	-6.94342E-003	5.42533E-004	...........
	7	2.06667	-5.84237E-003	-7.42587E-003	5.37566E-004	...........
	8	2.325	-6.37840E-003	-7.86320E-003	5.37099E-004	...........
	9	2.58333	-6.88515E-003	-8.27370E-003	5.36366E-004	...........
	10	2.84167	-7.36149E-003	-8.67410E-003	5.38499E-004	...........
	11	3.1	-7.80834E-003	-9.03579E-003	5.42633E-004	...........
	12	3.35833	-8.22772E-003	-9.37524E-003	5.41433E-004	...........
	13	3.61667	-8.62130E-003	-9.70584E-003	5.36833E-004	...........
	14	3.875	-8.99077E-003	-1.00190E-002	5.42633E-004	...........
	15	4.13333	-9.33913E-003	-1.03198E-002	5.43433E-004	...........
	16	4.39167	-9.66998E-003	-1.06174E-002	5.37966E-004	...........
	17	4.65	-9.98643E-003	-1.08918E-002	5.45866E-004	...........
	18	4.90833	-1.02906E-002	-1.11673E-002	5.45433E-004	...........
EOC	QUANT	-0.0102906	Open Circuit (V)
PSTATMODEL	IQUANT	4	Pstat Model
PSTATSECTION	LABEL	REF600-11020	Pstat Section
PSTATSERIALNO	LABEL	11020	Pstat Serial Number
CTRLMODE	IQUANT	1	Control Mode
IESTAB	IQUANT	0	I/E Stability
CASPEED	IQUANT	1	Control Amp Speed
CONVENTION	IQUANT	1	Current Convention
ICHRANGE	IQUANT	2	Ich Range
ICHRANGEMODE	TOGGLE	F	Ich Auto Range
ICHOFFSETENABLE	TOGGLE	T	Ich Offset Enable
ICHOFFSET	QUANT	0	Ich Offset (V)
ICHFILTER	IQUANT	3	Ich Filter
VCHRANGE	IQUANT	2	Vch Range
VCHRANGEMODE	TOGGLE	F	Vch Auto Range
VCHOFFSETENABLE	TOGGLE	T	Vch Offset Enable
VCHOFFSET	QUANT	0	Vch Offset (V)
VCHFILTER	IQUANT	3	Vch Filter
ACHRANGE	IQUANT	2	Ach Range
ACHOFFSETENABLE	TOGGLE	F	Ach Offset Enable
ACHOFFSET	QUANT	0	Ach Offset (V)
ACHFILTER	IQUANT	3	Ach Filter
IERANGELOWERLIMIT	IQUANT	1	I/E Range Lower Limit
IERANGEMODE	TOGGLE	F	I/E AutoRange
IERANGE	IQUANT	5	I/E Range
POSFEEDENABLE	TOGGLE	F	Positive Feedback IR Comp
POSFEEDRESISTANCE	QUANT	0	Positive Feedback Resistance (ohm)
ACHSELECT	IQUANT	0	Ach Select
CABLEID	IQUANT	14	Cable ID
DCCALDATE	LABEL	8/19/2019	DC Calibration Date
ACCALDATE	LABEL	8/19/2019	AC Calibration Date
THERMOSELECT	IQUANT	1	Thermo Select
FRAMEWORKVERSION	QUANT	6.33	Framework Version
INSTRUMENTVERSION	LABEL	3.50	Instrument Version
ZCURVE	TABLE
	Pt	Time	Freq	Zreal	Zimag	Zsig	Zmod	Zphz	Idc	Vdc	IERange
	#	s	Hz	ohm	ohm	V	ohm	°	A	V	#
	0	1	1000078	2427.662	-1290.673	1	2749.432	-27.99747	-3.333613E-006	-0.0075947	8
	1	2	794390.6	2663.619	-1189.044	1	2916.966	-24.05606	9.675664E-006	-0.0092929	8
	2	4	630984.4	2848.377	-1065.594	1	3041.175	-20.51111	-1.322181E-006	-0.0080716	8
	3	5	501234.4	3010.109	-936.5398	1	3152.438	-17.28256	-1.383582E-006	-0.0088233	8
	4	6	398109.4	3127.021	-818.986	1	3232.491	-14.67647	-1.084409E-006	-0.008285	8
	5	8	316265.6	3214.659	-715.1931	1	3293.256	-12.54281	3.867675E-006	-0.0087435	8
	6	9	251203.1	3283.4	-631.6157	1	3343.599	-10.88877	-5.639808E-006	-0.0078877	8
	7	10	199546.9	3341.24	-551.3841	1	3386.43	-9.370713	-3.898268E-006	-0.0083974	8
	8	12	158578.1	3381.948	-501.8125	1	3418.975	-8.439952	-6.588073E-007	-0.008326	8
	9	13	125953.1	3442.513	-399.5392	1	3465.621	-6.620148	-2.091269E-006	-0.0056777	7
	10	14	100078.1	3467.477	-376.7763	1	3487.887	-6.201433	-2.571952E-007	-0.007551	7
	11	16	79453.13	3497.389	-369.1071	1	3516.812	-6.024575	-8.019975E-007	-0.0072593	7
	12	17	63140.62	3531.479	-371.7873	1	3550.995	-6.009852	-2.706455E-007	-0.0095371	7
	13	19	50203.12	3566.721	-383.4173	1	3587.27	-6.135651	9.863227E-007	-0.0097908	7
	14	20	39890.62	3601.587	-402.6722	1	3624.027	-6.37941	9.86543E-007	-0.0097919	7
	15	21	31640.63	3639.586	-428.8829	1	3664.768	-6.720649	4.391653E-007	-0.0102669	7
	16	23	25171.88	3682.174	-464.8576	1	3711.401	-7.195266	8.795925E-007	-0.0102797	7
	17	24	20015.62	3728.294	-511.679	1	3763.242	-7.814575	9.141722E-007	-0.0094198	7
	18	25	15890.62	3778.518	-565.9857	1	3820.673	-8.519019	4.379026E-007	-0.0102649	7
	19	27	12609.37	3830.55	-634.4123	1	3882.73	-9.403913	-9.385084E-007	-0.0083014	7
	20	28	10078.13	3895.326	-714.483	1	3960.31	-10.39369	-5.533918E-007	-0.0073396	7
	21	29	8015.625	3965.563	-805.5321	1	4046.551	-11.48237	-1.097869E-006	-0.0074648	7
	22	31	6328.125	4048.162	-920.7029	1	4151.543	-12.81323	-9.824143E-007	-0.0073109	7
	23	32	5015.625	4145.828	-1052.98	1	4277.459	-14.25096	9.892684E-007	-0.0097864	7
	24	33	3984.375	4251.313	-1205.367	1	4418.888	-15.82952	4.384964E-007	-0.0102668	7
	25	35	3170.956	4362.206	-1378.63	1	4574.873	-17.5386	7.516235E-007	-0.0089894	7
	26	36	2527.573	4487.047	-1580.572	1	4757.29	-19.40492	-5.53309E-007	-0.0073514	7
	27	37	1976.103	4639.808	-1838.051	1	4990.616	-21.6109	-5.528918E-007	-0.0073505	7
	28	39	1577.524	4777.89	-2110.763	1	5223.366	-23.83475	-2.552746E-007	-0.0075619	7
	29	40	1265.625	4960.578	-2445.295	1	5530.533	-26.24079	7.522142E-007	-0.0089824	7
	30	41	998.264	5150.904	-2855.809	1	5889.606	-29.00525	-5.522062E-007	-0.0073475	7
	31	43	796.875	5345.212	-3337.186	1	6301.437	-31.97784	9.119516E-007	-0.0094217	7
	32	44	627.7902	5563.395	-3951.667	1	6824.004	-35.38609	4.353564E-007	-0.0102714	7
	33	46	505.5147	5778.618	-4629.7	1	7404.495	-38.70093	-2.696766E-007	-0.0095452	7
	34	47	397.9953	6035.583	-5554.082	1	8202.2	-42.62098	6.863646E-009	-0.0087492	7
	35	48	315.5048	6312.384	-6672.355	1	9185.125	-46.58799	6.154999E-009	-0.008746	7
	36	50	252.4038	6617.042	-7999.614	1	10381.67	-50.40346	1.090835E-009	-0.0088102	6
	37	51	198.6229	6995.042	-9769.34	1	12015.43	-54.39659	1.065456E-009	-0.0088184	6
	38	52	158.3615	7424.975	-11842.05	1	13977.28	-57.91226	6.173978E-010	-0.0088089	6
	39	54	125.558	7963.587	-14465.94	1	16513.09	-61.16695	9.698645E-010	-0.0088133	6
	40	55	100.4464	8607.222	-17549.14	1	19546.27	-63.87371	4.461572E-010	-0.0088177	6
	41	57	79.00281	9469.18	-21637.93	1	23619.17	-66.36488	5.928898E-010	-0.0088193	6
	42	58	63.3446	10394.84	-26328.23	1	28305.98	-68.45503	7.6736E-010	-0.0088189	6
	43	59	49.86702	11977.19	-32284.23	1	34434.35	-69.64555	7.267337E-010	-0.0088144	6
	44	61	39.72458	13696.45	-39466.76	1	41775.8	-70.86131	9.27933E-010	-0.0088078	6
	45	62	31.6723	15883.79	-47964.04	1	50525.68	-71.67718	9.776572E-010	-0.0088147	6
	46	63	24.93351	18921.67	-59016.6	1	61975.71	-72.22332	5.088929E-010	-0.0088143	6
	47	65	19.86229	22614.79	-71630.27	1	75115.4	-72.47828	1.567185E-010	-0.008814	6
	48	66	15.83615	27386.05	-86381.59	1	90618.85	-72.40952	2.223509E-010	-0.0088091	6
	49	68	12.40079	34008.54	-106396	1	111699.1	-72.27399	4.515228E-010	-0.0088113	5
	50	69	9.93114	41954.55	-127503	1	134228.2	-71.78634	5.357409E-010	-0.0088148	5
	51	71	7.944915	51890.75	-152654	1	161232.5	-71.22588	6.611812E-010	-0.008807	5
	52	72	6.317385	64574.27	-182782.4	1	193853.6	-70.54245	1.537714E-010	-0.0087993	5
	53	74	5.008013	80873.9	-218892.4	1	233354.8	-69.72231	3.606598E-010	-0.0088209	5
	54	77	3.945707	101439.7	-261693.6	1	280666.3	-68.81229	7.206968E-010	-0.0088072	5
	55	79	3.158693	125109.9	-308487	1	332891.4	-67.92451	2.702673E-010	-0.0088077	5
	56	83	2.504006	154757.1	-364743.8	1	396216.8	-67.00897	5.411721E-010	-0.0088165	5
	57	85	1.998082	189030.2	-427273.8	1	467220.8	-66.13493	2.231777E-010	-0.008777	5
	58	89	1.584686	230237	-502893.6	1	553092.3	-65.40054	3.729627E-010	-0.0087775	5
	59	92	1.266892	278842	-585577.9	1	648578.8	-64.53703	1.907054E-010	-0.0087772	5
	60	96	0.999041	337509.6	-687958.4	1	766289.4	-63.86762	4.201599E-010	-0.0088264	5
