EXPLAIN
TAG	EISPOT
TITLE	LABEL	Potentiostatic EIS	Test &Identifier
DATE	LABEL	10/12/2019	Date
TIME	LABEL	10:32:35	Time
NOTES	NOTES	1	&Notes...
	
PSTAT	PSTAT	REF600-11020	Potentiostat
VDC	POTEN	0.00000E+000	T	DC &Voltage (V)
FREQINIT	QUANT	1.00000E+006	Initial Fre&q. (Hz)
FREQFINAL	QUANT	1.00000E+000	Final Fre&q. (Hz)
PTSPERDEC	QUANT	1.00000E+001	Points/&decade
VAC	QUANT	2.50000E+001	AC &Voltage (mV rms)
AREA	QUANT	1.00000E-002	&Area (cm^2)
CONDIT	TWOPARAM	T	5.00000E+000	0.00000E+000	Conditionin&g	Time(s)	E(V)
DELAY	TWOPARAM	T	5.00000E+000	0.00000E+000	Init. De&lay	Time(s)	Stab.(mV/s)
SPEED	SELECTOR	1	&Optimize for:
ZGUESS	QUANT	1.00000E+004	E&stimated Z (ohms)
OCVCURVE	TABLE	19
	Pt	T	Vf	Vm	Ach	Over
	#	s	V vs. Ref.	V	V	bits
	0	0.258333	4.74764E-003	4.74764E-003	5.46099E-004	...........
	1	0.516667	4.74481E-003	4.59945E-003	5.47433E-004	...........
	2	0.775	4.72533E-003	4.34945E-003	5.50166E-004	...........
	3	1.03333	4.66772E-003	4.34169E-003	5.51066E-004	...........
	4	1.29167	4.56410E-003	3.99841E-003	5.46999E-004	...........
	5	1.55	4.42408E-003	3.91135E-003	5.52033E-004	...........
	6	1.80833	4.26109E-003	3.77693E-003	5.50799E-004	...........
	7	2.06667	4.09027E-003	3.55610E-003	5.42699E-004	...........
	8	2.325	3.92323E-003	3.46167E-003	5.49999E-004	...........
	9	2.58333	3.76418E-003	3.39953E-003	5.50599E-004	...........
	10	2.84167	3.61765E-003	3.17372E-003	5.47633E-004	...........
	11	3.1	3.48311E-003	3.06616E-003	5.54999E-004	...........
	12	3.35833	3.35156E-003	2.97769E-003	5.48266E-004	...........
	13	3.61667	3.22032E-003	2.85927E-003	5.46066E-004	...........
	14	3.875	3.09608E-003	2.78854E-003	5.46799E-004	...........
	15	4.13333	2.98325E-003	2.66895E-003	5.49766E-004	...........
	16	4.39167	2.87992E-003	2.58545E-003	5.44366E-004	...........
	17	4.65	2.78203E-003	2.50653E-003	5.48033E-004	...........
	18	4.90833	2.68769E-003	2.41397E-003	5.44833E-004	...........
EOC	QUANT	0.0026877	Open Circuit (V)
PSTATMODEL	IQUANT	4	Pstat Model
PSTATSECTION	LABEL	REF600-11020	Pstat Section
PSTATSERIALNO	LABEL	11020	Pstat Serial Number
CTRLMODE	IQUANT	1	Control Mode
IESTAB	IQUANT	0	I/E Stability
CASPEED	IQUANT	1	Control Amp Speed
CONVENTION	IQUANT	1	Current Convention
ICHRANGE	IQUANT	2	Ich Range
ICHRANGEMODE	TOGGLE	F	Ich Auto Range
ICHOFFSETENABLE	TOGGLE	T	Ich Offset Enable
ICHOFFSET	QUANT	0	Ich Offset (V)
ICHFILTER	IQUANT	3	Ich Filter
VCHRANGE	IQUANT	2	Vch Range
VCHRANGEMODE	TOGGLE	F	Vch Auto Range
VCHOFFSETENABLE	TOGGLE	T	Vch Offset Enable
VCHOFFSET	QUANT	0	Vch Offset (V)
VCHFILTER	IQUANT	3	Vch Filter
ACHRANGE	IQUANT	2	Ach Range
ACHOFFSETENABLE	TOGGLE	F	Ach Offset Enable
ACHOFFSET	QUANT	0	Ach Offset (V)
ACHFILTER	IQUANT	3	Ach Filter
IERANGELOWERLIMIT	IQUANT	1	I/E Range Lower Limit
IERANGEMODE	TOGGLE	F	I/E AutoRange
IERANGE	IQUANT	5	I/E Range
POSFEEDENABLE	TOGGLE	F	Positive Feedback IR Comp
POSFEEDRESISTANCE	QUANT	0	Positive Feedback Resistance (ohm)
ACHSELECT	IQUANT	0	Ach Select
CABLEID	IQUANT	14	Cable ID
DCCALDATE	LABEL	8/19/2019	DC Calibration Date
ACCALDATE	LABEL	8/19/2019	AC Calibration Date
THERMOSELECT	IQUANT	1	Thermo Select
FRAMEWORKVERSION	QUANT	6.33	Framework Version
INSTRUMENTVERSION	LABEL	3.50	Instrument Version
ZCURVE	TABLE
	Pt	Time	Freq	Zreal	Zimag	Zsig	Zmod	Zphz	Idc	Vdc	IERange
	#	s	Hz	ohm	ohm	V	ohm	°	A	V	#
	0	2	1000078	2507.985	-2060.058	1	3245.586	-39.39967	-3.368234E-006	0.0049769	8
	1	3	794390.6	2911.875	-2033.116	1	3551.419	-34.92335	4.94889E-006	0.003999	8
	2	5	630984.4	3324.009	-1944.86	1	3851.171	-30.33167	-1.936013E-006	0.0047934	8
	3	6	501234.4	3697.198	-1797.577	1	4111.029	-25.92902	-1.59514E-006	0.0049605	8
	4	8	398109.4	3996.265	-1617.717	1	4311.281	-22.03846	1.657824E-006	0.0040654	8
	5	9	316265.6	4237.508	-1431.332	1	4472.716	-18.66377	-1.839201E-006	0.0048389	8
	6	11	251203.1	4414.714	-1232.745	1	4583.597	-15.60162	-3.690456E-006	0.0050477	8
	7	12	199546.9	4563.943	-1062.258	1	4685.933	-13.10232	5.354686E-007	0.0043527	8
	8	13	158578.1	4676.106	-934.9329	1	4768.655	-11.30654	3.455571E-006	0.0038074	8
	9	15	125953.1	4771.556	-742.6496	1	4829.003	-8.846593	3.66938E-007	0.0035431	7
	10	16	100078.1	4820.463	-646.7013	1	4863.649	-7.641035	-1.47278E-008	0.0043565	7
	11	18	79453.13	4867.98	-577.5197	1	4902.118	-6.765743	4.014687E-008	0.0041887	7
	12	19	63140.62	4911.483	-526.162	1	4939.586	-6.114716	-1.368548E-008	0.0043457	7
	13	20	50203.12	4951.1	-489.0152	1	4975.191	-5.640752	-4.755258E-008	0.0043626	7
	14	22	39890.62	4985.749	-466.4841	1	5007.524	-5.345233	-1.86377E-008	0.0042938	7
	15	23	31640.63	5020.704	-457.8279	1	5041.535	-5.210278	-6.985093E-008	0.0045191	7
	16	24	25171.88	5054.851	-461.2323	1	5075.85	-5.213544	-6.302346E-008	0.004422	7
	17	26	20015.62	5078.98	-480.9713	1	5101.703	-5.409687	-5.829937E-008	0.0044159	7
	18	27	15890.62	5122.802	-509.5356	1	5148.08	-5.680198	3.959209E-008	0.0041927	7
	19	28	12609.37	5156.531	-556.1017	1	5186.43	-6.155226	9.355102E-008	0.0042319	7
	20	30	10078.13	5191.436	-616.6055	1	5227.926	-6.773493	9.264152E-008	0.0042318	7
	21	31	8015.625	5221.377	-716.1034	1	5270.254	-7.809303	-7.314281E-009	0.004364	7
	22	33	6328.125	5269.297	-814.8056	1	5331.923	-8.79018	-6.888205E-008	0.0044066	7
	23	34	5015.625	5314.177	-955.247	1	5399.349	-10.19035	-1.242592E-008	0.0043448	7
	24	35	3984.375	5374.105	-1121.015	1	5489.78	-11.78269	-6.877269E-008	0.0045242	7
	25	37	3170.956	5423.767	-1346.104	1	5588.313	-13.93839	-5.983864E-008	0.0044202	7
	26	38	2527.573	5491.526	-1611.847	1	5723.191	-16.35777	-2.025669E-008	0.0042985	7
	27	39	1976.103	5580.712	-1967.905	1	5917.517	-19.42398	1.342604E-008	0.0043871	7
	28	41	1577.524	5662.668	-2360.25	1	6134.867	-22.62681	1.620765E-008	0.004392	7
	29	42	1265.625	5782.809	-2838.02	1	6441.68	-26.14035	-2.044047E-008	0.0042982	7
	30	43	998.264	5928.229	-3465.169	1	6866.68	-30.30715	5.313422E-008	0.0042211	7
	31	45	796.875	6080.26	-4187.251	1	7382.59	-34.55375	1.672772E-008	0.0043906	7
	32	46	627.7902	6272.156	-5125.71	1	8100.176	-39.25626	-6.072103E-009	0.0043506	7
	33	47	505.5147	6480.639	-6171.452	1	8949.05	-43.60011	-3.279933E-008	0.0043129	7
	34	49	397.9953	6746.546	-7590.913	1	10155.68	-48.37039	1.288076E-009	0.0042622	6
	35	50	315.5048	7055.472	-9300.355	1	11673.74	-52.81517	1.383856E-009	0.0042606	6
	36	51	252.4038	7408.374	-11325.08	1	13532.97	-56.80903	1.137186E-009	0.0042579	6
	37	53	198.6229	7882.279	-14017.01	1	16081.26	-60.64936	1.188163E-009	0.0042603	6
	38	54	158.3615	8448.979	-17163.04	1	19129.96	-63.79002	1.520179E-009	0.0042583	6
	39	56	125.558	9191.092	-21145.54	1	23056.67	-66.50742	1.208594E-009	0.0042606	6
	40	57	100.4464	10093.71	-25833.5	1	27735.4	-68.65833	1.358735E-009	0.0042642	6
	41	58	79.00281	11488.65	-32081.94	1	34076.97	-70.29738	2.378684E-010	0.0042591	6
	42	60	63.3446	13131.13	-38717.43	1	40883.56	-71.26549	4.53262E-010	0.0042591	6
	43	61	49.86702	15624.39	-48542.75	1	50995.3	-72.15826	1.668964E-010	0.0042538	6
	44	62	39.72458	18385.09	-59158.1	1	61949.11	-72.73586	8.076019E-010	0.0042574	6
	45	64	31.6723	22497.4	-71952.63	1	75387.75	-72.63712	9.608727E-010	0.0042553	6
	46	65	24.93351	28031.64	-88275.19	1	92619.02	-72.38284	9.024534E-010	0.0042559	6
	47	66	19.86229	35383.9	-106592.4	1	112311.9	-71.63615	1.129517E-009	0.0042669	5
	48	68	15.83615	44462.9	-128363.7	1	135846.2	-70.89483	-3.553475E-010	0.0042594	5
	49	69	12.40079	59625.02	-155856.5	1	166872.4	-69.06497	-5.837808E-010	0.0042606	5
	50	71	9.93114	74956.52	-183744	1	198444.8	-67.8075	2.19764E-010	0.0042616	5
	51	72	7.944915	95570.7	-214117	1	234477.8	-65.9465	1.053983E-009	0.0042613	5
	52	74	6.317385	121190.7	-251249	1	278950.3	-64.24953	4.819925E-011	0.0042726	5
	53	76	5.008013	152656.4	-289948.3	1	327679.7	-62.23342	6.016596E-010	0.0042569	5
	54	78	3.945707	190334.3	-336018.3	1	386180.6	-60.47104	5.482026E-010	0.0042634	5
	55	81	3.158693	229125.7	-378270.2	1	442252.1	-58.79589	-5.983081E-012	0.0042789	5
	56	84	2.504006	277852	-429098.3	1	511201.6	-57.07592	4.77372E-011	0.0042558	5
	57	87	1.998082	327100.1	-482656	1	583053.4	-55.87417	-9.671692E-011	0.0042491	5
	58	90	1.584686	383309.1	-542125.9	1	663947.6	-54.73785	9.646868E-011	0.004313	5
	59	94	1.266892	439039	-610565.3	1	752027.4	-54.28123	-6.353883E-011	0.0042521	5
	60	98	0.999041	504706.1	-693097	1	857386.5	-53.93828	3.04405E-010	0.0042936	5
