EXPLAIN
TAG	EISPOT
TITLE	LABEL	Potentiostatic IDE	Test &Identifier
DATE	LABEL	9/4/2019	Date
TIME	LABEL	10:54:55	Time
NOTES	NOTES	1	&Notes...
	
PSTAT	PSTAT	REF600-11020	Potentiostat
VDC	POTEN	0.00000E+000	T	DC &Voltage (V)
FREQINIT	QUANT	1.00000E+006	Initial Fre&q. (Hz)
FREQFINAL	QUANT	1.00000E+000	Final Fre&q. (Hz)
PTSPERDEC	QUANT	1.00000E+001	Points/&decade
VAC	QUANT	2.50000E+001	AC &Voltage (mV rms)
AREA	QUANT	1.00000E-002	&Area (cm^2)
CONDIT	TWOPARAM	T	5.00000E+000	0.00000E+000	Conditionin&g	Time(s)	E(V)
DELAY	TWOPARAM	T	5.00000E+000	0.00000E+000	Init. De&lay	Time(s)	Stab.(mV/s)
SPEED	SELECTOR	1	&Optimize for:
ZGUESS	QUANT	1.00000E+007	E&stimated Z (ohms)
OCVCURVE	TABLE	19
	Pt	T	Vf	Vm	Ach	Over
	#	s	V vs. Ref.	V	V	bits
	0	0.258333	7.74979E-002	7.74979E-002	5.62132E-004	...........
	1	0.516667	7.75430E-002	7.98607E-002	5.59199E-004	...........
	2	0.775	7.78148E-002	8.18181E-002	5.61799E-004	...........
	3	1.03333	7.85564E-002	8.32047E-002	5.61266E-004	...........
	4	1.29167	7.98101E-002	8.46804E-002	5.66799E-004	...........
	5	1.55	8.13615E-002	8.61072E-002	5.62766E-004	...........
	6	1.80833	8.29651E-002	8.74594E-002	5.65932E-004	...........
	7	2.06667	8.44999E-002	8.87216E-002	5.64432E-004	...........
	8	2.325	8.59413E-002	8.99226E-002	5.61766E-004	...........
	9	2.58333	8.72955E-002	9.10196E-002	5.62466E-004	...........
	10	2.84167	8.85698E-002	9.21004E-002	5.60099E-004	...........
	11	3.1	8.97695E-002	9.31007E-002	5.63032E-004	...........
	12	3.35833	9.08980E-002	9.38866E-002	5.59766E-004	...........
	13	3.61667	9.19482E-002	9.46204E-002	5.63166E-004	...........
	14	3.875	9.29080E-002	9.55110E-002	5.63766E-004	...........
	15	4.13333	9.37887E-002	9.64215E-002	5.61766E-004	...........
	16	4.39167	9.46300E-002	9.71589E-002	5.62832E-004	...........
	17	4.65	9.54671E-002	9.81808E-002	5.63832E-004	...........
	18	4.90833	9.63135E-002	9.88998E-002	5.60532E-004	...........
EOC	QUANT	0.0963135	Open Circuit (V)
PSTATMODEL	IQUANT	4	Pstat Model
PSTATSECTION	LABEL	REF600-11020	Pstat Section
PSTATSERIALNO	LABEL	11020	Pstat Serial Number
CTRLMODE	IQUANT	1	Control Mode
IESTAB	IQUANT	0	I/E Stability
CASPEED	IQUANT	1	Control Amp Speed
CONVENTION	IQUANT	1	Current Convention
ICHRANGE	IQUANT	2	Ich Range
ICHRANGEMODE	TOGGLE	F	Ich Auto Range
ICHOFFSETENABLE	TOGGLE	T	Ich Offset Enable
ICHOFFSET	QUANT	0	Ich Offset (V)
ICHFILTER	IQUANT	3	Ich Filter
VCHRANGE	IQUANT	2	Vch Range
VCHRANGEMODE	TOGGLE	F	Vch Auto Range
VCHOFFSETENABLE	TOGGLE	T	Vch Offset Enable
VCHOFFSET	QUANT	0	Vch Offset (V)
VCHFILTER	IQUANT	3	Vch Filter
ACHRANGE	IQUANT	2	Ach Range
ACHOFFSETENABLE	TOGGLE	F	Ach Offset Enable
ACHOFFSET	QUANT	0	Ach Offset (V)
ACHFILTER	IQUANT	3	Ach Filter
IERANGELOWERLIMIT	IQUANT	1	I/E Range Lower Limit
IERANGEMODE	TOGGLE	F	I/E AutoRange
IERANGE	IQUANT	4	I/E Range
POSFEEDENABLE	TOGGLE	F	Positive Feedback IR Comp
POSFEEDRESISTANCE	QUANT	0	Positive Feedback Resistance (ohm)
ACHSELECT	IQUANT	0	Ach Select
CABLEID	IQUANT	14	Cable ID
DCCALDATE	LABEL	8/19/2019	DC Calibration Date
ACCALDATE	LABEL	8/19/2019	AC Calibration Date
THERMOSELECT	IQUANT	1	Thermo Select
FRAMEWORKVERSION	QUANT	6.33	Framework Version
INSTRUMENTVERSION	LABEL	3.50	Instrument Version
ZCURVE	TABLE
	Pt	Time	Freq	Zreal	Zimag	Zsig	Zmod	Zphz	Idc	Vdc	IERange
	#	s	Hz	ohm	ohm	V	ohm	°	A	V	#
	0	2	1000078	2549.388	-1879.642	1	3167.402	-36.40104	1.005051E-005	0.0977833	8
	1	3	794390.6	2908.179	-1790.555	1	3415.2	-31.62045	1.340851E-005	0.0971913	8
	2	5	630984.4	3200.921	-1656.089	1	3603.959	-27.35609	1.304452E-005	0.0969254	8
	3	7	501234.4	3448.212	-1522.765	1	3769.48	-23.82673	1.262176E-005	0.0970247	8
	4	8	398109.4	3665.651	-1359.859	1	3909.759	-20.35352	9.886438E-006	0.0975812	8
	5	10	316265.6	3832.834	-1230.707	1	4025.575	-17.80161	1.029696E-005	0.0975639	8
	6	11	251203.1	3983.491	-1115.369	1	4136.695	-15.64213	1.140996E-005	0.0973941	8
	7	13	199546.9	4114.298	-1032.047	1	4241.765	-14.08175	1.024417E-005	0.0975475	8
	8	14	158578.1	4149.84	-971.146	1	4261.959	-13.17134	1.014441E-005	0.0975476	8
	9	16	125953.1	4256.223	-923.097	1	4355.174	-12.23689	1.102651E-006	0.0969528	7
	10	17	100078.1	4320.687	-905.6411	1	4414.581	-11.83815	1.05804E-006	0.0975709	7
	11	19	79453.13	4387.962	-930.4681	1	4485.531	-11.97224	1.068453E-006	0.0975073	7
	12	20	63140.62	4461.858	-984.168	1	4569.109	-12.43876	1.080484E-006	0.0975492	7
	13	21	50203.12	4539.098	-1063.813	1	4662.092	-13.19015	1.078732E-006	0.097537	7
	14	23	39890.62	4624.645	-1171.598	1	4770.742	-14.21611	1.07974E-006	0.0975319	7
	15	24	31640.63	4721.853	-1318.892	1	4902.588	-15.60594	1.121183E-006	0.0974672	7
	16	25	25171.88	4828.914	-1498.553	1	5056.092	-17.24064	1.058451E-006	0.0975679	7
	17	27	20015.62	4951.158	-1718.312	1	5240.855	-19.13946	1.062988E-006	0.0975046	7
	18	28	15890.62	5094.945	-1990.711	1	5470.045	-21.34171	1.060191E-006	0.0975749	7
	19	29	12609.37	5267.384	-2315.202	1	5753.737	-23.72719	1.035401E-006	0.0975779	7
	20	31	10078.13	5449.963	-2688.913	1	6077.199	-26.26089	1.042699E-006	0.097588	7
	21	32	8015.625	5673.98	-3144.705	1	6487.158	-28.99665	1.069798E-006	0.0974889	7
	22	33	6328.125	5940.012	-3707.938	1	7002.324	-31.97368	1.047872E-006	0.097532	7
	23	35	5015.625	6248.368	-4367.841	1	7623.656	-34.95498	1.034966E-006	0.09756	7
	24	36	3984.375	6605.01	-5145.09	1	8372.462	-37.91744	1.119676E-006	0.0974377	7
	25	37	3170.956	7020.586	-6051.783	1	9268.91	-40.76151	1.068372E-006	0.0974924	7
	26	39	2527.573	7504.436	-7130.474	1	10351.82	-43.53625	1.113045E-006	0.0974709	7
	27	40	1976.103	8122.848	-8503.989	1	11760.04	-46.31318	1.097947E-006	0.0974411	7
	28	42	1577.524	8809.988	-10013.41	1	13337.32	-48.65806	1.06351E-006	0.0975196	7
	29	43	1265.625	9593.83	-11762.76	1	15179.07	-50.79897	1.049492E-007	0.0974598	6
	30	44	998.264	10584.78	-13992.35	1	17544.9	-52.89363	1.026683E-007	0.0974707	6
	31	46	796.875	11693.1	-16521.82	1	20241.03	-54.71154	1.136614E-007	0.0973378	6
	32	47	627.7902	13088.2	-19663.52	1	23621.08	-56.35194	1.091769E-007	0.0974491	6
	33	48	505.5147	14583.45	-23085.27	1	27305.8	-57.71854	9.916018E-008	0.0975285	6
	34	50	397.9953	16551.07	-27485.61	1	32084.21	-58.94483	1.059742E-007	0.0971287	6
	35	51	315.5048	18824.12	-32599.65	1	37644.19	-59.99643	1.059707E-007	0.0971259	6
	36	52	252.4038	21427.34	-38397.31	1	43971.4	-60.83662	1.062452E-007	0.0971229	6
	37	54	198.6229	24740	-45771.84	1	52030.08	-61.60847	1.059694E-007	0.097125	6
	38	55	158.3615	28498.32	-54048.51	1	61101.52	-62.19853	1.055961E-007	0.0971216	6
	39	56	125.558	33078.09	-64005.55	1	72047.7	-62.67007	1.057997E-007	0.0971163	6
	40	58	100.4464	38411.08	-75368.95	1	84592.49	-62.99476	1.062484E-007	0.0971236	6
	41	59	79.00281	45013.34	-89472.27	1	100157.3	-63.29312	1.054989E-007	0.0971167	6
	42	60	63.3446	51141.65	-106436.7	1	118085.7	-64.33624	1.056284E-007	0.0971199	6
	43	62	49.86702	62922.83	-124118.4	1	139157	-63.1169	1.032275E-008	0.0971217	5
	44	63	39.72458	72575.68	-147254.3	1	164167.7	-63.76318	1.107017E-008	0.0971333	5
	45	64	31.6723	86406.84	-172956.5	1	193339.3	-63.45387	1.049976E-008	0.097126	5
	46	66	24.93351	101742.1	-205712.3	1	229497.3	-63.68373	1.079889E-008	0.0971243	5
	47	67	19.86229	119984.5	-242176.5	1	270269.8	-63.64423	1.060076E-008	0.0971241	5
	48	68	15.83615	143362.4	-286970.8	1	320788.1	-63.45461	1.011133E-008	0.0971251	5
	49	70	12.40079	172951.5	-335515.3	1	377468.8	-62.72979	1.143781E-008	0.0971222	5
	50	71	9.93114	199366.6	-392589.6	1	440310.9	-63.07742	1.098696E-008	0.0971305	5
	51	73	7.944915	237017	-460916.2	1	518286.4	-62.78641	1.080716E-008	0.0971301	5
	52	74	6.317385	277269.7	-537312.7	1	604634.9	-62.70489	1.096916E-008	0.0971229	5
	53	76	5.008013	328117.3	-632587.2	1	712620.2	-62.58463	1.058496E-007	0.0971248	6
	54	79	3.945707	390631.6	-743362.8	1	839750.7	-62.2784	1.078988E-008	0.0971224	5
	55	82	3.158693	458953.3	-865157.8	1	979355	-62.05472	1.087798E-008	0.0971445	5
	56	86	2.504006	544402.4	-1015330	1	1152072	-61.80056	1.060934E-008	0.0974097	5
	57	88	1.998082	642662.3	-1182115	1	1345515	-61.46908	1.069231E-008	0.097365	5
	58	91	1.584686	761117.8	-1378772	1	1574901	-61.10016	1.197971E-009	0.0974261	4
	59	95	1.266892	900175	-1606150	1	1841204	-60.73133	1.244209E-009	0.097364	4
	60	99	0.999041	1076785	-1871868	1	2159480	-60.0905	1.237244E-009	0.0974453	4
