EXPLAIN
TAG	EISPOT
TITLE	LABEL	Potentiostatic EIS	Test &Identifier
DATE	LABEL	11/22/2019	Date
TIME	LABEL	0:23:20	Time
NOTES	NOTES	4	&Notes...
	
	
	
	
PSTAT	PSTAT	REF600-11020	Potentiostat
VDC	POTEN	0.00000E+000	T	DC &Voltage (V)
FREQINIT	QUANT	1.00000E+006	Initial Fre&q. (Hz)
FREQFINAL	QUANT	1.00000E+000	Final Fre&q. (Hz)
PTSPERDEC	QUANT	1.00000E+001	Points/&decade
VAC	QUANT	2.50000E+001	AC &Voltage (mV rms)
AREA	QUANT	1.00000E-002	&Area (cm^2)
CONDIT	TWOPARAM	T	5.00000E+000	0.00000E+000	Conditionin&g	Time(s)	E(V)
DELAY	TWOPARAM	T	5.00000E+000	0.00000E+000	Init. De&lay	Time(s)	Stab.(mV/s)
SPEED	SELECTOR	1	&Optimize for:
ZGUESS	QUANT	1.00000E+005	E&stimated Z (ohms)
OCVCURVE	TABLE	19
	Pt	T	Vf	Vm	Ach	Over
	#	s	V vs. Ref.	V	V	bits
	0	0.258333	6.35317E-003	6.35317E-003	5.45333E-004	...........
	1	0.516667	6.35329E-003	6.35942E-003	5.41199E-004	...........
	2	0.775	6.35499E-003	6.41628E-003	5.37299E-004	...........
	3	1.03333	6.36342E-003	6.48983E-003	5.38799E-004	...........
	4	1.29167	6.38561E-003	6.52257E-003	5.44333E-004	...........
	5	1.55	6.42348E-003	6.58603E-003	5.47399E-004	...........
	6	1.80833	6.47258E-003	6.67404E-003	5.47999E-004	...........
	7	2.06667	6.52898E-003	6.72254E-003	5.44266E-004	...........
	8	2.325	6.58990E-003	6.73639E-003	5.42333E-004	...........
	9	2.58333	6.65036E-003	6.85353E-003	5.49866E-004	...........
	10	2.84167	6.70835E-003	6.89764E-003	5.44333E-004	...........
	11	3.1	6.76779E-003	6.97457E-003	5.40566E-004	...........
	12	3.35833	6.83130E-003	7.02581E-003	5.41266E-004	...........
	13	3.61667	6.89713E-003	7.11172E-003	5.44599E-004	...........
	14	3.875	6.96364E-003	7.16903E-003	5.42633E-004	...........
	15	4.13333	7.03067E-003	7.23034E-003	5.42333E-004	...........
	16	4.39167	7.09741E-003	7.29261E-003	5.39366E-004	...........
	17	4.65	7.16243E-003	7.34956E-003	5.36099E-004	...........
	18	4.90833	7.22501E-003	7.39958E-003	5.42466E-004	...........
EOC	QUANT	0.007225	Open Circuit (V)
PSTATMODEL	IQUANT	4	Pstat Model
PSTATSECTION	LABEL	REF600-11020	Pstat Section
PSTATSERIALNO	LABEL	11020	Pstat Serial Number
CTRLMODE	IQUANT	1	Control Mode
IESTAB	IQUANT	0	I/E Stability
CASPEED	IQUANT	1	Control Amp Speed
CONVENTION	IQUANT	1	Current Convention
ICHRANGE	IQUANT	2	Ich Range
ICHRANGEMODE	TOGGLE	F	Ich Auto Range
ICHOFFSETENABLE	TOGGLE	T	Ich Offset Enable
ICHOFFSET	QUANT	0	Ich Offset (V)
ICHFILTER	IQUANT	3	Ich Filter
VCHRANGE	IQUANT	2	Vch Range
VCHRANGEMODE	TOGGLE	F	Vch Auto Range
VCHOFFSETENABLE	TOGGLE	T	Vch Offset Enable
VCHOFFSET	QUANT	0	Vch Offset (V)
VCHFILTER	IQUANT	3	Vch Filter
ACHRANGE	IQUANT	2	Ach Range
ACHOFFSETENABLE	TOGGLE	F	Ach Offset Enable
ACHOFFSET	QUANT	0	Ach Offset (V)
ACHFILTER	IQUANT	3	Ach Filter
IERANGELOWERLIMIT	IQUANT	1	I/E Range Lower Limit
IERANGEMODE	TOGGLE	F	I/E AutoRange
IERANGE	IQUANT	5	I/E Range
POSFEEDENABLE	TOGGLE	F	Positive Feedback IR Comp
POSFEEDRESISTANCE	QUANT	0	Positive Feedback Resistance (ohm)
ACHSELECT	IQUANT	0	Ach Select
CABLEID	IQUANT	14	Cable ID
DCCALDATE	LABEL	8/19/2019	DC Calibration Date
ACCALDATE	LABEL	8/19/2019	AC Calibration Date
THERMOSELECT	IQUANT	1	Thermo Select
FRAMEWORKVERSION	QUANT	6.33	Framework Version
INSTRUMENTVERSION	LABEL	3.50	Instrument Version
ZCURVE	TABLE
	Pt	Time	Freq	Zreal	Zimag	Zsig	Zmod	Zphz	Idc	Vdc	IERange
	#	s	Hz	ohm	ohm	V	ohm	°	A	V	#
	0	2	1000078	2223.645	-1663.856	1	2777.231	-36.8059	4.112874E-008	0.0090849	8
	1	3	794390.6	2553.913	-1634.242	1	3032.032	-32.61506	-2.029486E-006	0.0088932	8
	2	4	630984.4	2862.319	-1545.972	1	3253.137	-28.37401	-2.726455E-006	0.0096445	8
	3	6	501234.4	3139.957	-1427.883	1	3449.374	-24.45349	-3.567242E-006	0.0095277	8
	4	7	398109.4	3375.181	-1284.456	1	3611.326	-20.83478	-3.444499E-006	0.0094334	8
	5	8	316265.6	3552.313	-1144.001	1	3731.979	-17.85084	7.298727E-006	0.0080405	8
	6	10	251203.1	3707.169	-1000.722	1	3839.863	-15.10649	-3.837185E-006	0.0093649	8
	7	11	199546.9	3816.32	-872.3136	1	3914.745	-12.87517	-1.414217E-006	0.0085803	8
	8	12	158578.1	3952.223	-758.3345	1	4024.318	-10.86164	-8.284354E-007	0.009237	8
	9	14	125953.1	4009.882	-617.4915	1	4057.147	-8.75435	5.795487E-007	0.0110892	7
	10	15	100078.1	4044.424	-548.2336	1	4081.412	-7.71956	-9.111187E-007	0.0104849	7
	11	16	79453.13	4099.18	-499.2153	1	4129.466	-6.943527	6.24078E-007	0.0089778	7
	12	18	63140.62	4136.491	-461.0093	1	4162.102	-6.359334	-1.240909E-006	0.0098787	7
	13	19	50203.12	4172.502	-438.082	1	4195.437	-5.993676	-1.06809E-006	0.009296	7
	14	20	39890.62	4207.183	-427.6669	1	4228.863	-5.804271	-6.308836E-007	0.0103853	7
	15	22	31640.63	4244.198	-430.6381	1	4265.99	-5.793695	1.038238E-006	0.0080296	7
	16	23	25171.88	4272.282	-443.2993	1	4295.219	-5.923909	-2.934611E-007	0.0101402	7
	17	25	20015.62	4310.953	-468.5971	1	4336.346	-6.203649	-3.154032E-007	0.0079051	7
	18	26	15890.62	4336.309	-508.0283	1	4365.967	-6.682131	-1.116453E-006	0.0104213	7
	19	27	12609.37	4372.938	-564.4359	1	4409.215	-7.354773	-1.068285E-006	0.0092922	7
	20	29	10078.13	4408.072	-635.4396	1	4453.637	-8.202887	-7.450757E-007	0.0086011	7
	21	30	8015.625	4453.699	-731.6093	1	4513.39	-9.328665	1.109329E-006	0.0072676	7
	22	31	6328.125	4500.285	-852.3257	1	4580.286	-10.72444	8.528811E-007	0.008529	7
	23	33	5015.625	4543.798	-998.553	1	4652.227	-12.3944	-9.132502E-007	0.0104628	7
	24	34	3984.375	4600.73	-1176.63	1	4748.808	-14.34581	-9.118829E-007	0.0104647	7
	25	35	3170.956	4665.856	-1413.496	1	4875.262	-16.8539	1.126575E-006	0.0075922	7
	26	37	2527.573	4728.442	-1690.545	1	5021.564	-19.67333	-1.240659E-006	0.0098646	7
	27	38	1976.103	4816.808	-2066.237	1	5241.275	-23.21759	-1.246807E-006	0.0102295	7
	28	39	1577.524	4918.858	-2497.157	1	5516.426	-26.91554	6.257345E-007	0.0089665	7
	29	41	1265.625	5031.652	-3001.037	1	5858.647	-30.81319	-1.116009E-006	0.0104075	7
	30	42	998.264	5183.633	-3671.482	1	6352.152	-35.30932	-1.24305E-006	0.0098636	7
	31	43	796.875	5359.712	-4443.452	1	6962.096	-39.66032	-1.246516E-006	0.0102334	7
	32	45	627.7902	5588.666	-5455.505	1	7809.976	-44.30921	-2.938568E-007	0.0101382	7
	33	46	505.5147	5838.315	-6578.968	1	8795.95	-48.41348	1.12593E-007	0.0073554	7
	34	48	397.9953	6185.72	-8073.863	1	10171.06	-52.54279	4.787115E-009	0.0087835	7
	35	49	315.5048	6600.125	-9858.26	1	11863.68	-56.19762	1.624039E-009	0.0087182	6
	36	50	252.4038	7086.561	-11952.12	1	13895.05	-59.33577	5.851741E-010	0.0087133	6
	37	52	198.6229	7734.831	-14702.1	1	16612.63	-62.25098	1.220784E-009	0.0087121	6
	38	53	158.3615	8512.393	-17888.38	1	19810.48	-64.55202	5.707273E-010	0.0087095	6
	39	54	125.558	9525.4	-21883.56	1	23866.79	-66.47765	4.270697E-010	0.0087198	6
	40	56	100.4464	10771.84	-26570.83	1	28671.27	-67.93231	1.784904E-009	0.008716	6
	41	57	79.00281	12569.47	-32599.94	1	34939.2	-68.91499	8.418481E-010	0.0087082	6
	42	58	63.3446	14405.45	-39352.1	1	41905.91	-69.89406	5.873406E-010	0.0087121	6
	43	60	49.86702	18172.67	-48205.1	1	51516.77	-69.34424	-2.550324E-010	0.0087093	6
	44	61	39.72458	21976.22	-58459.57	1	62453.79	-69.39767	7.113014E-010	0.0087184	6
	45	63	31.6723	27508.69	-70112.02	1	75315.49	-68.57727	-1.26029E-012	0.0087186	6
	46	64	24.93351	34599.4	-84497.3	1	91306.69	-67.7322	-1.212401E-010	0.0087198	6
	47	65	19.86229	43621.13	-99939.8	1	109044.8	-66.41998	-5.79459E-011	0.0087187	5
	48	67	15.83615	55178.25	-117112.7	1	129460.5	-64.7723	9.97713E-010	0.0087097	5
	49	68	12.40079	70395.8	-138034.8	1	154949	-62.97907	1.291654E-009	0.0087211	5
	50	70	9.93114	86115.07	-159100.7	1	180911.2	-61.57503	3.529206E-010	0.0087134	5
	51	71	7.944915	105476.2	-180608.5	1	209152.3	-59.71488	-7.825544E-010	0.0087226	5
	52	73	6.317385	128342.2	-206730.4	1	243329.3	-58.1672	4.13754E-010	0.0087073	5
	53	75	5.008013	155027.6	-234741.1	1	281312.9	-56.55845	1.644409E-011	0.0087188	5
	54	77	3.945707	185104.2	-265741.1	1	323854.8	-55.14054	4.412404E-012	0.0087178	5
	55	80	3.158693	216178.7	-297504.8	1	367753	-53.99637	-1.138207E-010	0.0087034	5
	56	83	2.504006	251690.9	-334434.5	1	418562.7	-53.03538	3.221214E-010	0.0087268	5
	57	86	1.998082	289089.7	-374740.1	1	473289.6	-52.35195	3.583594E-010	0.0087279	5
	58	89	1.584686	330559.5	-420192.2	1	534631.7	-51.80835	1.168426E-010	0.0086784	5
	59	93	1.266892	372859.9	-472974.9	1	602270.5	-51.75026	2.506823E-010	0.0087383	5
	60	97	0.999041	422916.8	-538343.3	1	684596.4	-51.84719	-2.077085E-010	0.0086818	5
