EXPLAIN
TAG	EISPOT
TITLE	LABEL	Potentiostatic IDE	Test &Identifier
DATE	LABEL	9/18/2019	Date
TIME	LABEL	8:19:40	Time
NOTES	NOTES	1	&Notes...
	
PSTAT	PSTAT	REF600-11020	Potentiostat
VDC	POTEN	0.00000E+000	T	DC &Voltage (V)
FREQINIT	QUANT	1.00000E+006	Initial Fre&q. (Hz)
FREQFINAL	QUANT	1.00000E+000	Final Fre&q. (Hz)
PTSPERDEC	QUANT	1.00000E+001	Points/&decade
VAC	QUANT	2.50000E+001	AC &Voltage (mV rms)
AREA	QUANT	1.00000E-002	&Area (cm^2)
CONDIT	TWOPARAM	T	5.00000E+000	0.00000E+000	Conditionin&g	Time(s)	E(V)
DELAY	TWOPARAM	T	5.00000E+000	0.00000E+000	Init. De&lay	Time(s)	Stab.(mV/s)
SPEED	SELECTOR	1	&Optimize for:
ZGUESS	QUANT	1.00000E+007	E&stimated Z (ohms)
OCVCURVE	TABLE	19
	Pt	T	Vf	Vm	Ach	Over
	#	s	V vs. Ref.	V	V	bits
	0	0.258333	5.77973E-003	5.77973E-003	5.72132E-004	...........
	1	0.516667	5.78220E-003	5.90904E-003	5.73599E-004	...........
	2	0.775	5.79613E-003	5.96663E-003	5.71132E-004	...........
	3	1.03333	5.83166E-003	6.03530E-003	5.73799E-004	...........
	4	1.29167	5.88971E-003	6.17226E-003	5.75666E-004	...........
	5	1.55	5.96539E-003	6.27929E-003	5.73599E-004	...........
	6	1.80833	6.05628E-003	6.40299E-003	5.79632E-004	...........
	7	2.06667	6.16038E-003	6.51524E-003	5.76632E-004	...........
	8	2.325	6.27257E-003	6.60748E-003	5.80399E-004	...........
	9	2.58333	6.38571E-003	6.68694E-003	5.76632E-004	...........
	10	2.84167	6.49305E-003	6.77447E-003	5.74932E-004	...........
	11	3.1	6.59143E-003	6.86543E-003	5.78366E-004	...........
	12	3.35833	6.68264E-003	6.94993E-003	5.79032E-004	...........
	13	3.61667	6.77034E-003	7.03289E-003	5.80065E-004	...........
	14	3.875	6.85660E-003	7.11446E-003	5.80399E-004	...........
	15	4.13333	6.94141E-003	7.18299E-003	5.77666E-004	...........
	16	4.39167	7.02352E-003	7.24854E-003	5.73432E-004	...........
	17	4.65	7.10102E-003	7.29875E-003	5.73632E-004	...........
	18	4.90833	7.17207E-003	7.35179E-003	5.74799E-004	...........
EOC	QUANT	0.0071721	Open Circuit (V)
PSTATMODEL	IQUANT	4	Pstat Model
PSTATSECTION	LABEL	REF600-11020	Pstat Section
PSTATSERIALNO	LABEL	11020	Pstat Serial Number
CTRLMODE	IQUANT	1	Control Mode
IESTAB	IQUANT	0	I/E Stability
CASPEED	IQUANT	1	Control Amp Speed
CONVENTION	IQUANT	1	Current Convention
ICHRANGE	IQUANT	2	Ich Range
ICHRANGEMODE	TOGGLE	F	Ich Auto Range
ICHOFFSETENABLE	TOGGLE	T	Ich Offset Enable
ICHOFFSET	QUANT	0	Ich Offset (V)
ICHFILTER	IQUANT	3	Ich Filter
VCHRANGE	IQUANT	2	Vch Range
VCHRANGEMODE	TOGGLE	F	Vch Auto Range
VCHOFFSETENABLE	TOGGLE	T	Vch Offset Enable
VCHOFFSET	QUANT	0	Vch Offset (V)
VCHFILTER	IQUANT	3	Vch Filter
ACHRANGE	IQUANT	2	Ach Range
ACHOFFSETENABLE	TOGGLE	F	Ach Offset Enable
ACHOFFSET	QUANT	0	Ach Offset (V)
ACHFILTER	IQUANT	3	Ach Filter
IERANGELOWERLIMIT	IQUANT	1	I/E Range Lower Limit
IERANGEMODE	TOGGLE	F	I/E AutoRange
IERANGE	IQUANT	3	I/E Range
POSFEEDENABLE	TOGGLE	F	Positive Feedback IR Comp
POSFEEDRESISTANCE	QUANT	0	Positive Feedback Resistance (ohm)
ACHSELECT	IQUANT	0	Ach Select
CABLEID	IQUANT	14	Cable ID
DCCALDATE	LABEL	8/19/2019	DC Calibration Date
ACCALDATE	LABEL	8/19/2019	AC Calibration Date
THERMOSELECT	IQUANT	1	Thermo Select
FRAMEWORKVERSION	QUANT	6.33	Framework Version
INSTRUMENTVERSION	LABEL	3.50	Instrument Version
ZCURVE	TABLE
	Pt	Time	Freq	Zreal	Zimag	Zsig	Zmod	Zphz	Idc	Vdc	IERange
	#	s	Hz	ohm	ohm	V	ohm	°	A	V	#
	0	2	1000078	2225.412	-1734.335	1	2821.414	-37.93043	6.238063E-006	0.0082353	8
	1	3	794390.6	2586.032	-1671.835	1	3079.382	-32.88213	-1.877978E-006	0.0092791	8
	2	5	630984.4	2909.851	-1548.012	1	3295.993	-28.01254	-1.298164E-006	0.0095005	8
	3	6	501234.4	3171.795	-1405.046	1	3469.069	-23.89244	-3.812966E-006	0.0098318	8
	4	7	398109.4	3368.597	-1228.95	1	3585.772	-20.04325	1.724985E-006	0.0085822	8
	5	9	316265.6	3523.125	-1071.398	1	3682.432	-16.91474	-1.267147E-006	0.0091005	8
	6	10	251203.1	3647.208	-922.6041	1	3762.09	-14.19585	-1.388083E-006	0.0092238	8
	7	12	199546.9	3733.626	-784.9052	1	3815.238	-11.87218	-3.382223E-006	0.009598	8
	8	13	158578.1	3827.258	-676.0407	1	3886.507	-10.0173	1.211755E-006	0.008845	8
	9	14	125953.1	3885.786	-572.331	1	3927.709	-8.378757	-5.212427E-007	0.0097907	7
	10	16	100078.1	3919.07	-516.605	1	3952.973	-7.509335	1.44168E-008	0.0088433	7
	11	17	79453.13	3958.021	-476.4482	1	3986.594	-6.863975	2.094896E-008	0.0087438	7
	12	18	63140.62	3995.043	-450.7498	1	4020.391	-6.437302	-5.093695E-009	0.0087772	7
	13	19	50203.12	4032.704	-437.561	1	4056.373	-6.192546	-9.041059E-009	0.0087858	7
	14	21	39890.62	4063.966	-435.8847	1	4087.274	-6.121912	6.318284E-008	0.0086603	7
	15	22	31640.63	4103.77	-443.4135	1	4127.655	-6.166901	4.420121E-009	0.0088708	7
	16	24	25171.88	4142.175	-461.9617	1	4167.855	-6.363693	3.001267E-008	0.0087697	7
	17	25	20015.62	4183.855	-491.9713	1	4212.681	-6.706501	9.327911E-008	0.008656	7
	18	26	15890.62	4229.587	-533.2784	1	4263.073	-7.186097	6.390322E-008	0.0086636	7
	19	28	12609.37	4275.135	-586.5488	1	4315.185	-7.81221	-5.006145E-009	0.0087697	7
	20	29	10078.13	4323.108	-653.0843	1	4372.16	-8.590615	1.630767E-008	0.0088278	7
	21	30	8015.625	4376.768	-734.83	1	4438.025	-9.53069	2.38884E-008	0.0087541	7
	22	32	6328.125	4436.631	-842.7789	1	4515.969	-10.75571	-3.03268E-008	0.0089116	7
	23	33	5015.625	4499.102	-971.622	1	4602.822	-12.18639	-1.000375E-008	0.0088157	7
	24	34	3984.375	4566.663	-1131.431	1	4704.737	-13.91532	-8.425392E-009	0.0088123	7
	25	36	3170.956	4640.514	-1322.625	1	4825.319	-15.90845	-1.279005E-008	0.0088511	7
	26	37	2527.573	4723.549	-1557.962	1	4973.847	-18.25403	9.316815E-008	0.008647	7
	27	38	1976.103	4825.423	-1870.202	1	5175.168	-21.18497	-4.876463E-009	0.0087599	7
	28	40	1577.524	4933.71	-2226.478	1	5412.827	-24.28864	-3.757624E-008	0.0088878	7
	29	41	1265.625	5054.158	-2648.129	1	5705.883	-27.65232	-2.970484E-008	0.0089058	7
	30	42	998.264	5204.102	-3199.74	1	6109.092	-31.58526	3.086973E-008	0.0087574	7
	31	44	796.875	5367.928	-3842.263	1	6601.335	-35.59438	1.909929E-008	0.0088107	7
	32	45	627.7902	5581.269	-4675.563	1	7280.896	-39.95372	-1.408066E-008	0.0088194	7
	33	46	505.5147	5805.59	-5594.205	1	8062.258	-43.93769	-3.783832E-008	0.008889	7
	34	48	397.9953	6107.923	-6839.017	1	9169.453	-48.23197	5.975842E-009	0.0088294	7
	35	49	315.5048	6466.071	-8328.544	1	10543.94	-52.17514	8.501821E-010	0.0087669	6
	36	50	252.4038	6890.196	-10082.51	1	12211.96	-55.65205	1.270956E-009	0.0087681	6
	37	52	198.6229	7465.174	-12392.52	1	14467.32	-58.93551	9.772073E-010	0.0087625	6
	38	53	158.3615	8169.611	-15074.11	1	17145.59	-61.54394	9.279185E-010	0.0087641	6
	39	54	125.558	9107.994	-18418.82	1	20547.71	-63.68788	1.259301E-009	0.0087659	6
	40	56	100.4464	10282.17	-22323.69	1	24577.84	-65.26946	1.247357E-009	0.0087626	6
	41	57	79.00281	12037.68	-27360.32	1	29891.35	-66.25202	1.179917E-009	0.00876	6
	42	58	63.3446	14005.56	-33156.4	1	35993.09	-67.10036	1.469325E-009	0.008763	6
	43	60	49.86702	17209.73	-40029.25	1	43571.96	-66.73573	9.060506E-010	0.0087577	6
	44	61	39.72458	21115.65	-48250.21	1	52668.34	-66.36446	9.734459E-010	0.008761	6
	45	62	31.6723	26136.59	-57495.17	1	63157.07	-65.55405	1.264302E-009	0.0087546	6
	46	64	24.93351	33252.74	-68427.36	1	76079.22	-64.08225	5.378758E-010	0.0087565	6
	47	65	19.86229	41823.62	-80128.58	1	90386.97	-62.4374	7.04053E-010	0.0087594	6
	48	66	15.83615	52213	-92183.95	1	105943.7	-60.47278	7.949747E-010	0.0087633	5
	49	68	12.40079	67130.86	-106974.1	1	126293.3	-57.88995	8.517174E-010	0.0087693	5
	50	69	9.93114	81918.09	-120311.8	1	145552.4	-55.74976	1.008048E-009	0.0087635	5
	51	71	7.944915	99406.9	-133428.4	1	166387.7	-53.31313	-4.936593E-010	0.0087627	5
	52	72	6.317385	119584.5	-147447.7	1	189845.4	-50.95691	-2.525538E-010	0.0087734	5
	53	74	5.008013	142251.8	-161346.2	1	215100.3	-48.59881	4.472206E-010	0.0087651	5
	54	77	3.945707	166651.1	-175646.2	1	242124.3	-46.50529	1.201908E-009	0.0087709	5
	55	79	3.158693	191185.5	-189066.2	1	268882.8	-44.68066	7.534821E-010	0.008783	5
	56	83	2.504006	218215.4	-204155.8	1	298826.9	-43.09348	5.395016E-010	0.0087602	5
	57	85	1.998082	246682.9	-221847.6	1	331766.3	-41.96577	-1.968304E-009	0.0087657	5
	58	89	1.584686	276206.8	-239099.9	1	365320.3	-40.88129	-5.044916E-010	0.0088126	5
	59	92	1.266892	307656.5	-260149.2	1	402902.1	-40.2173	-6.963308E-010	0.0087471	5
	60	96	0.999041	342572.5	-282833.3	1	444241.5	-39.54362	6.624497E-010	0.0088024	5
