EXPLAIN
TAG	EISPOT
TITLE	LABEL	Potentiostatic EIS	Test &Identifier
DATE	LABEL	8/16/2017	Date
TIME	LABEL	16:49:55	Time
NOTES	NOTES	1	&Notes...
	
PSTAT	PSTAT	REF600-11020	Potentiostat
VDC	POTEN	0.00000E+000	T	DC &Voltage (V)
FREQINIT	QUANT	1.00000E+006	Initial Fre&q. (Hz)
FREQFINAL	QUANT	1.00000E+000	Final Fre&q. (Hz)
PTSPERDEC	QUANT	1.00000E+001	Points/&decade
VAC	QUANT	2.50000E+001	AC &Voltage (mV rms)
AREA	QUANT	1.00000E-002	&Area (cm^2)
CONDIT	TWOPARAM	T	5.00000E+000	0.00000E+000	Conditionin&g	Time(s)	E(V)
DELAY	TWOPARAM	T	5.00000E+000	0.00000E+000	Init. De&lay	Time(s)	Stab.(mV/s)
SPEED	SELECTOR	0	&Optimize for:
ZGUESS	QUANT	1.00000E+005	E&stimated Z (ohms)
OCVCURVE	TABLE	19
	Pt	T	Vf	Vm	Ach	Over
	#	s	V vs. Ref.	V	V	bits
	0	0.258333	6.41257E-003	6.41257E-003	5.28033E-004	...........
	1	0.516667	6.41525E-003	6.55293E-003	5.25900E-004	...........
	2	0.775	6.42829E-003	6.50644E-003	5.23966E-004	...........
	3	1.03333	6.45473E-003	6.51221E-003	5.21166E-004	...........
	4	1.29167	6.48535E-003	6.57999E-003	5.20266E-004	...........
	5	1.55	6.50642E-003	6.29816E-003	5.21000E-004	...........
	6	1.80833	6.49825E-003	6.11630E-003	5.19933E-004	...........
	7	2.06667	6.43736E-003	6.04715E-003	5.21666E-004	...........
	8	2.325	6.32543E-003	5.97714E-003	5.22100E-004	...........
	9	2.58333	6.19419E-003	5.81557E-003	5.21533E-004	...........
	10	2.84167	6.07502E-003	6.02146E-003	5.25933E-004	...........
	11	3.1	5.99394E-003	6.19091E-003	5.23166E-004	...........
	12	3.35833	5.97915E-003	6.29371E-003	5.16966E-004	...........
	13	3.61667	6.04105E-003	6.54902E-003	5.26533E-004	...........
	14	3.875	6.16547E-003	6.78514E-003	5.23966E-004	...........
	15	4.13333	6.33265E-003	6.87443E-003	5.17866E-004	...........
	16	4.39167	6.51726E-003	6.86796E-003	5.21300E-004	...........
	17	4.65	6.68091E-003	6.83610E-003	5.18933E-004	...........
	18	4.90833	6.78931E-003	6.77416E-003	5.20866E-004	...........
EOC	QUANT	0.0067893	Open Circuit (V)
PSTATMODEL	IQUANT	4	Pstat Model
PSTATSECTION	LABEL	REF600-11020	Pstat Section
PSTATSERIALNO	LABEL	11020	Pstat Serial Number
CTRLMODE	IQUANT	1	Control Mode
IESTAB	IQUANT	0	I/E Stability
CASPEED	IQUANT	1	Control Amp Speed
CONVENTION	IQUANT	1	Current Convention
ICHRANGE	IQUANT	2	Ich Range
ICHRANGEMODE	TOGGLE	F	Ich Auto Range
ICHOFFSETENABLE	TOGGLE	T	Ich Offset Enable
ICHOFFSET	QUANT	0	Ich Offset (V)
ICHFILTER	IQUANT	3	Ich Filter
VCHRANGE	IQUANT	2	Vch Range
VCHRANGEMODE	TOGGLE	F	Vch Auto Range
VCHOFFSETENABLE	TOGGLE	T	Vch Offset Enable
VCHOFFSET	QUANT	0	Vch Offset (V)
VCHFILTER	IQUANT	3	Vch Filter
ACHRANGE	IQUANT	2	Ach Range
ACHOFFSETENABLE	TOGGLE	F	Ach Offset Enable
ACHOFFSET	QUANT	0	Ach Offset (V)
ACHFILTER	IQUANT	3	Ach Filter
IERANGELOWERLIMIT	IQUANT	1	I/E Range Lower Limit
IERANGEMODE	TOGGLE	F	I/E AutoRange
IERANGE	IQUANT	5	I/E Range
POSFEEDENABLE	TOGGLE	F	Positive Feedback IR Comp
POSFEEDRESISTANCE	QUANT	0	Positive Feedback Resistance (ohm)
ACHSELECT	IQUANT	0	Ach Select
CABLEID	IQUANT	14	Cable ID
DCCALDATE	LABEL	8/19/2019	DC Calibration Date
ACCALDATE	LABEL	8/19/2019	AC Calibration Date
THERMOSELECT	IQUANT	1	Thermo Select
FRAMEWORKVERSION	QUANT	6.33	Framework Version
INSTRUMENTVERSION	LABEL	3.50	Instrument Version
ZCURVE	TABLE
	Pt	Time	Freq	Zreal	Zimag	Zsig	Zmod	Zphz	Idc	Vdc	IERange
	#	s	Hz	ohm	ohm	V	ohm	°	A	V	#
	0	1	1000078	1826.202	-1061.862	1	2112.478	-30.17627	-1.173004E-005	0.0087045	8
	1	1	794390.6	2008.862	-1057.41	1	2270.164	-27.76109	3.017265E-007	0.0098574	8
	2	1	630984.4	2175.22	-1042.434	1	2412.105	-25.60522	2.282944E-006	0.0094069	8
	3	2	501234.4	2346.397	-1020.838	1	2558.845	-23.51223	-6.040261E-006	0.0082463	8
	4	2	398109.4	2514.106	-1007.18	1	2708.346	-21.83161	-6.085377E-006	0.0093182	8
	5	2	316265.6	2651.82	-974.982	1	2825.374	-20.18673	-5.762398E-006	0.0092147	8
	6	3	251203.1	2800.036	-949.4033	1	2956.615	-18.73016	2.142954E-006	0.0086179	8
	7	3	199546.9	2943.103	-925.103	1	3085.072	-17.44946	-2.583572E-006	0.0082649	8
	8	3	158578.1	3053.112	-875.4896	1	3176.157	-16.00041	-3.375078E-007	0.0087984	8
	9	4	125953.1	3199.961	-818.0854	1	3302.88	-14.34077	-3.03257E-006	0.0122374	7
	10	4	100078.1	3317.95	-806.4811	1	3414.558	-13.66172	8.267447E-007	0.0080382	7
	11	4	79453.13	3416.813	-800.0657	1	3509.233	-13.17869	-3.36953E-007	0.0075428	7
	12	5	63140.62	3524.586	-806.5008	1	3615.681	-12.88861	6.274613E-007	0.0084291	7
	13	5	50203.12	3629.277	-815.514	1	3719.774	-12.66425	9.961177E-007	0.0075505	7
	14	5	39890.62	3729.983	-828.8084	1	3820.955	-12.52768	7.172313E-007	0.0066002	7
	15	6	31640.63	3831.681	-850.3539	1	3924.905	-12.51269	-8.487555E-007	0.0099383	7
	16	6	25171.88	3947.556	-884.3713	1	4045.406	-12.62748	8.328518E-007	0.0080217	7
	17	6	20015.62	4054.173	-918.8756	1	4157	-12.7703	-2.446623E-007	0.009586	7
	18	6	15890.62	4174.623	-967.825	1	4285.342	-13.0526	4.21727E-007	0.0087516	7
	19	7	12609.37	4301.115	-1025.513	1	4421.682	-13.41063	1.072763E-006	0.0071493	7
	20	7	10078.13	4408.977	-1086.789	1	4540.945	-13.84706	-1.052949E-006	0.0098951	7
	21	7	8015.625	4545.686	-1153.577	1	4689.776	-14.23958	-1.198109E-006	0.0094017	7
	22	8	6328.125	4705.32	-1249.277	1	4868.339	-14.86915	6.325338E-007	0.0084202	7
	23	8	5015.625	4848.312	-1346.583	1	5031.84	-15.52224	4.207862E-007	0.0087469	7
	24	8	3984.375	4997.482	-1461.006	1	5206.666	-16.2962	8.343879E-007	0.0080173	7
	25	9	3170.956	5131.895	-1590.509	1	5372.715	-17.21958	1.08239E-007	0.0091767	7
	26	9	2527.573	5253.083	-1746.857	1	5535.919	-18.394	-7.380264E-007	0.0081873	7
	27	9	1976.103	5406.391	-1986.429	1	5759.771	-20.17447	1.093516E-007	0.0091733	7
	28	10	1577.524	5555.905	-2230.654	1	5986.977	-21.87509	7.185659E-007	0.0065817	7
	29	10	1265.625	5662.052	-2602.65	1	6231.583	-24.68661	6.958525E-008	0.0070095	7
	30	10	998.264	5812.576	-3070.186	1	6573.589	-27.84289	-3.338171E-007	0.0075169	7
	31	11	796.875	5981.775	-3630.58	1	6997.338	-31.25525	-7.375091E-007	0.0081854	7
	32	11	627.7902	6195.122	-4371.818	1	7582.37	-35.21013	-1.198088E-006	0.0093875	7
	33	12	505.5147	6444.366	-5224.049	1	8295.815	-39.02954	-5.700804E-007	0.0098239	7
	34	12	397.9953	6782.485	-6355.801	1	9295.068	-43.13989	2.722613E-009	0.0083082	7
	35	12	315.5048	7213.624	-7694.127	1	10546.85	-46.84611	2.061576E-009	0.0082407	6
	36	12	252.4038	7742.795	-9251.897	1	12064.35	-50.07447	2.073598E-009	0.0082385	6
	37	13	198.6229	8486.805	-11258.16	1	14098.66	-52.98971	7.678051E-010	0.0082438	6
	38	13	158.3615	9408.214	-13524.11	1	16474.71	-55.17511	5.457287E-010	0.0082385	6
	39	13	125.558	10625.97	-16256.24	1	19421.03	-56.82916	3.425202E-010	0.0082469	6
	40	14	100.4464	12114	-19292.33	1	22780.32	-57.87456	-6.52883E-010	0.0082387	6
	41	14	79.00281	14232.69	-23035.53	1	27077.76	-58.28981	-8.073103E-010	0.0082441	6
	42	14	63.3446	16700.09	-27305.95	1	32007.94	-58.5504	4.488867E-010	0.0082384	6
	43	15	49.86702	19810.29	-31980.25	1	37618.93	-58.22369	6.482084E-010	0.0082422	6
	44	15	39.72458	23425.7	-36739.49	1	43572.39	-57.47775	3.262915E-010	0.0082418	6
	45	16	31.6723	27587.13	-42055.3	1	50296.1	-56.73622	-7.404176E-010	0.0082417	6
	46	16	24.93351	32245.39	-48449.74	1	58199.16	-56.35452	3.763782E-010	0.0082423	6
	47	16	19.86229	37113.92	-55291.8	1	66592.98	-56.12901	2.062059E-009	0.0082477	6
	48	16	15.83615	42612.57	-62977.36	1	76039.33	-55.91642	-1.061717E-009	0.0082463	6
	49	17	12.40079	48518.14	-73108.51	1	87743.17	-56.42994	-5.990056E-010	0.0082504	6
	50	17	9.93114	53973.61	-83755.83	1	99640.3	-57.20161	6.68915E-010	0.00825	5
	51	18	7.944915	60308.48	-97088.9	1	114295.1	-58.15278	-2.125656E-010	0.0082554	5
	52	18	6.317385	67506.36	-113941.6	1	132437.9	-59.35476	-4.854911E-010	0.0082556	5
	53	19	5.008013	76106.59	-134525.5	1	154561.7	-60.50137	-5.796407E-010	0.0082468	5
	54	20	3.945707	86239.16	-160274.2	1	182002.8	-61.71653	-6.311093E-010	0.0082375	5
	55	21	3.158693	97977.9	-189470.8	1	213304.7	-62.6559	-2.311264E-011	0.0082336	5
	56	23	2.504006	112558.1	-225877.7	1	252368.9	-63.51225	-3.14125E-011	0.0082425	5
	57	24	1.998082	130218.2	-267729.4	1	297717.7	-64.06265	-2.332926E-010	0.0081955	5
	58	26	1.584686	151003.8	-319283	1	353190.8	-64.68835	-3.048583E-010	0.0082087	5
	59	28	1.266892	176116.4	-376827.1	1	415951.5	-64.95019	-1.845817E-010	0.0082452	5
	60	30	0.999041	209235.4	-449733.3	1	496023.7	-65.05011	-1.391575E-010	0.0082659	5
