EXPLAIN
TAG	EISPOT
TITLE	LABEL	Potentiostatic IDE	Test &Identifier
DATE	LABEL	9/14/2019	Date
TIME	LABEL	8:50:55	Time
NOTES	NOTES	1	&Notes...
	
PSTAT	PSTAT	REF600-11020	Potentiostat
VDC	POTEN	0.00000E+000	T	DC &Voltage (V)
FREQINIT	QUANT	1.00000E+006	Initial Fre&q. (Hz)
FREQFINAL	QUANT	1.00000E+000	Final Fre&q. (Hz)
PTSPERDEC	QUANT	1.00000E+001	Points/&decade
VAC	QUANT	2.50000E+001	AC &Voltage (mV rms)
AREA	QUANT	1.00000E-002	&Area (cm^2)
CONDIT	TWOPARAM	T	5.00000E+000	0.00000E+000	Conditionin&g	Time(s)	E(V)
DELAY	TWOPARAM	T	5.00000E+000	0.00000E+000	Init. De&lay	Time(s)	Stab.(mV/s)
SPEED	SELECTOR	1	&Optimize for:
ZGUESS	QUANT	1.00000E+007	E&stimated Z (ohms)
OCVCURVE	TABLE	19
	Pt	T	Vf	Vm	Ach	Over
	#	s	V vs. Ref.	V	V	bits
	0	0.258333	8.07246E-003	8.07246E-003	5.60532E-004	...........
	1	0.516667	8.07881E-003	8.40506E-003	5.60166E-004	...........
	2	0.775	8.11392E-003	8.51545E-003	5.61532E-004	...........
	3	1.03333	8.20121E-003	8.67354E-003	5.59232E-004	...........
	4	1.29167	8.33656E-003	8.82654E-003	5.59699E-004	...........
	5	1.55	8.49339E-003	8.91940E-003	5.58032E-004	...........
	6	1.80833	8.64864E-003	9.08454E-003	5.60866E-004	...........
	7	2.06667	8.79532E-003	9.29237E-003	5.64199E-004	...........
	8	2.325	8.94103E-003	9.42790E-003	5.61332E-004	...........
	9	2.58333	9.09329E-003	9.51619E-003	5.61499E-004	...........
	10	2.84167	9.24583E-003	9.63583E-003	5.59532E-004	...........
	11	3.1	9.38602E-003	9.71929E-003	5.57432E-004	...........
	12	3.35833	9.50847E-003	9.80942E-003	5.59499E-004	...........
	13	3.61667	9.61582E-003	9.91234E-003	5.57399E-004	...........
	14	3.875	9.71346E-003	9.97927E-003	5.56466E-004	...........
	15	4.13333	9.80714E-003	1.01560E-002	5.55199E-004	...........
	16	4.39167	9.90454E-003	1.02811E-002	5.58366E-004	...........
	17	4.65	1.00135E-002	1.03953E-002	5.61499E-004	...........
	18	4.90833	1.01345E-002	1.05199E-002	5.59932E-004	...........
EOC	QUANT	0.0101345	Open Circuit (V)
PSTATMODEL	IQUANT	4	Pstat Model
PSTATSECTION	LABEL	REF600-11020	Pstat Section
PSTATSERIALNO	LABEL	11020	Pstat Serial Number
CTRLMODE	IQUANT	1	Control Mode
IESTAB	IQUANT	0	I/E Stability
CASPEED	IQUANT	1	Control Amp Speed
CONVENTION	IQUANT	1	Current Convention
ICHRANGE	IQUANT	2	Ich Range
ICHRANGEMODE	TOGGLE	F	Ich Auto Range
ICHOFFSETENABLE	TOGGLE	T	Ich Offset Enable
ICHOFFSET	QUANT	0	Ich Offset (V)
ICHFILTER	IQUANT	3	Ich Filter
VCHRANGE	IQUANT	2	Vch Range
VCHRANGEMODE	TOGGLE	F	Vch Auto Range
VCHOFFSETENABLE	TOGGLE	T	Vch Offset Enable
VCHOFFSET	QUANT	0	Vch Offset (V)
VCHFILTER	IQUANT	3	Vch Filter
ACHRANGE	IQUANT	2	Ach Range
ACHOFFSETENABLE	TOGGLE	F	Ach Offset Enable
ACHOFFSET	QUANT	0	Ach Offset (V)
ACHFILTER	IQUANT	3	Ach Filter
IERANGELOWERLIMIT	IQUANT	1	I/E Range Lower Limit
IERANGEMODE	TOGGLE	F	I/E AutoRange
IERANGE	IQUANT	3	I/E Range
POSFEEDENABLE	TOGGLE	F	Positive Feedback IR Comp
POSFEEDRESISTANCE	QUANT	0	Positive Feedback Resistance (ohm)
ACHSELECT	IQUANT	0	Ach Select
CABLEID	IQUANT	14	Cable ID
DCCALDATE	LABEL	8/19/2019	DC Calibration Date
ACCALDATE	LABEL	8/19/2019	AC Calibration Date
THERMOSELECT	IQUANT	1	Thermo Select
FRAMEWORKVERSION	QUANT	6.33	Framework Version
INSTRUMENTVERSION	LABEL	3.50	Instrument Version
ZCURVE	TABLE
	Pt	Time	Freq	Zreal	Zimag	Zsig	Zmod	Zphz	Idc	Vdc	IERange
	#	s	Hz	ohm	ohm	V	ohm	°	A	V	#
	0	3	1000078	2453.852	-1298.6	1	2776.284	-27.88819	-9.81795E-006	0.0138996	8
	1	4	794390.6	2681.188	-1164.607	1	2923.197	-23.47831	5.694133E-006	0.0119027	8
	2	5	630984.4	2858.402	-1026.062	1	3036.983	-19.74629	-6.542811E-007	0.0120997	8
	3	7	501234.4	2996.186	-886.849	1	3124.681	-16.48837	-1.580605E-006	0.0123437	8
	4	8	398109.4	3099.621	-757.6437	1	3190.874	-13.73554	-4.25817E-007	0.0120594	8
	5	9	316265.6	3176.165	-647.3349	1	3241.46	-11.51969	-6.378975E-007	0.0117981	8
	6	11	251203.1	3239.527	-550.2571	1	3285.927	-9.64009	2.889844E-007	0.0119326	8
	7	12	199546.9	3294.061	-496.2527	1	3331.232	-8.567226	-2.29101E-006	0.0124911	8
	8	14	158578.1	3329.306	-431.5466	1	3357.158	-7.385534	2.19073E-006	0.0113631	8
	9	15	125953.1	3373.796	-328.2271	1	3389.724	-5.556658	-1.77078E-007	0.0130777	7
	10	16	100078.1	3391.019	-309.6154	1	3405.125	-5.216899	-5.232725E-009	0.011828	7
	11	18	79453.13	3418.128	-299.8204	1	3431.252	-5.012859	2.110674E-008	0.0117528	7
	12	19	63140.62	3443.928	-297.1018	1	3456.719	-4.930603	4.764006E-008	0.0117924	7
	13	20	50203.12	3473.329	-299.8691	1	3486.25	-4.934383	-6.059454E-009	0.0118214	7
	14	22	39890.62	3504.023	-307.1444	1	3517.459	-5.009445	-4.86043E-008	0.0119447	7
	15	23	31640.63	3534.647	-320.5184	1	3549.15	-5.181355	5.001696E-008	0.0116861	7
	16	24	25171.88	3566.375	-337.4723	1	3582.306	-5.405582	2.067234E-008	0.0117464	7
	17	26	20015.62	3601.058	-362.8065	1	3619.288	-5.753136	1.32286E-007	0.0116518	7
	18	27	15890.62	3640.078	-393.9504	1	3661.334	-6.17684	-1.084759E-008	0.0117884	7
	19	28	12609.37	3673.565	-432.6885	1	3698.959	-6.717595	5.021855E-008	0.0116825	7
	20	30	10078.13	3709.76	-481.9069	1	3740.929	-7.401415	-3.070654E-008	0.0118284	7
	21	31	8015.625	3749.574	-541.7094	1	3788.503	-8.220771	-8.109313E-008	0.0120735	7
	22	32	6328.125	3791.453	-619.1684	1	3841.677	-9.274894	9.309941E-008	0.0116428	7
	23	33	5015.625	3836.95	-715.1799	1	3903.033	-10.55836	-2.891821E-009	0.0118062	7
	24	35	3984.375	3885.125	-832.3703	1	3973.291	-12.09255	-6.082782E-008	0.0119175	7
	25	36	3170.956	3936.864	-974.524	1	4055.687	-13.90342	-4.815499E-009	0.0118008	7
	26	37	2527.573	3996.197	-1149.907	1	4158.35	-16.0532	-1.326511E-008	0.01178	7
	27	39	1976.103	4068.525	-1385.254	1	4297.886	-18.80271	-8.114152E-008	0.0119266	7
	28	40	1577.524	4143.241	-1646.76	1	4458.504	-21.67569	9.278842E-008	0.0116396	7
	29	41	1265.625	4226.926	-1966.081	1	4661.8	-24.94467	-4.034068E-008	0.011827	7
	30	43	998.264	4323.607	-2374.294	1	4932.631	-28.77323	9.264551E-008	0.011645	7
	31	44	796.875	4431.358	-2855.91	1	5271.922	-32.80086	4.772446E-008	0.0117721	7
	32	45	627.7902	4566.576	-3486.453	1	5745.343	-37.36073	-6.133207E-008	0.0119141	7
	33	47	505.5147	4702.938	-4189.38	1	6298.295	-41.69467	5.060143E-008	0.0116751	7
	34	48	397.9953	4879.027	-5147.833	1	7092.608	-46.53565	5.502697E-009	0.0118499	7
	35	49	315.5048	5084.935	-6303.646	1	8098.921	-51.10807	5.562578E-009	0.0118447	7
	36	51	252.4038	5326.44	-7673.185	1	9340.703	-55.23305	6.29786E-009	0.0118481	7
	37	52	198.6229	5649.473	-9492.578	1	11046.52	-59.24117	-2.585455E-010	0.0117876	6
	38	53	158.3615	6031.333	-11618.14	1	13090.38	-62.56479	5.408056E-010	0.011788	6
	39	55	125.558	6528.954	-14302.8	1	15722.51	-65.46422	-3.181728E-011	0.0117867	6
	40	56	100.4464	7144.833	-17483.88	1	18887.42	-67.7725	6.513181E-010	0.0117867	6
	41	57	79.00281	8056.774	-21657.02	1	23107.1	-69.59396	2.402394E-010	0.0117819	6
	42	59	63.3446	8826.401	-26391.7	1	27828.54	-71.50808	-9.031565E-010	0.0117805	6
	43	60	49.86702	10671.69	-32455.25	1	34164.73	-71.79849	-1.393062E-009	0.0117779	6
	44	62	39.72458	12458.84	-39823.03	1	41726.45	-72.62743	-4.1013E-010	0.0117828	6
	45	63	31.6723	14816.06	-48672.06	1	50877.16	-73.06944	3.994597E-010	0.0117778	6
	46	64	24.93351	18274.96	-59619.38	1	62357.39	-72.95827	-5.787439E-010	0.011774	6
	47	66	19.86229	22470.72	-72244.69	1	75658.63	-72.72241	9.627997E-011	0.0117883	6
	48	67	15.83615	28545.08	-87452.22	1	91993	-71.92292	8.895435E-010	0.0117784	6
	49	68	12.40079	35401.52	-106482.6	1	112213.2	-71.60995	-4.76012E-010	0.0117899	5
	50	70	9.93114	44956.13	-126778.1	1	134512.9	-70.47524	-7.332633E-010	0.0117848	5
	51	71	7.944915	56793.65	-149730.4	1	160139.7	-69.22796	-1.265636E-009	0.0117857	5
	52	73	6.317385	71267.66	-178786.3	1	192467.2	-68.26682	4.943736E-011	0.0117785	5
	53	75	5.008013	89902.32	-211239.8	1	229575	-66.94571	-5.182927E-010	0.0117847	5
	54	77	3.945707	113336.6	-249922.7	1	274420.3	-65.60635	-2.2821E-010	0.011787	5
	55	80	3.158693	139216.2	-290444.8	1	322085.9	-64.39064	-3.880526E-010	0.0117725	5
	56	83	2.504006	172208.5	-339148.2	1	380364.7	-63.08001	2.192933E-010	0.0117886	5
	57	86	1.998082	209349.9	-390205.4	1	442817.9	-61.78591	-3.290259E-010	0.0118275	5
	58	89	1.584686	254527.8	-452111.6	1	518834.5	-60.62155	4.214127E-011	0.0118278	5
	59	93	1.266892	304457.5	-515301.3	1	598523.1	-59.42397	-3.223287E-010	0.0118076	5
	60	97	0.999041	366808.1	-594919.1	1	698911.2	-58.34335	2.496487E-010	0.0117973	5
