EXPLAIN
TAG	EISPOT
TITLE	LABEL	Potentiostatic EIS	Test &Identifier
DATE	LABEL	10/2/2019	Date
TIME	LABEL	9:26:54	Time
NOTES	NOTES	2	&Notes...
	
	
PSTAT	PSTAT	REF600-11020	Potentiostat
VDC	POTEN	0.00000E+000	T	DC &Voltage (V)
FREQINIT	QUANT	1.00000E+006	Initial Fre&q. (Hz)
FREQFINAL	QUANT	1.00000E+000	Final Fre&q. (Hz)
PTSPERDEC	QUANT	1.00000E+001	Points/&decade
VAC	QUANT	2.50000E+001	AC &Voltage (mV rms)
AREA	QUANT	1.00000E-002	&Area (cm^2)
CONDIT	TWOPARAM	T	5.00000E+000	0.00000E+000	Conditionin&g	Time(s)	E(V)
DELAY	TWOPARAM	T	5.00000E+000	0.00000E+000	Init. De&lay	Time(s)	Stab.(mV/s)
SPEED	SELECTOR	1	&Optimize for:
ZGUESS	QUANT	1.00000E+004	E&stimated Z (ohms)
OCVCURVE	TABLE	19
	Pt	T	Vf	Vm	Ach	Over
	#	s	V vs. Ref.	V	V	bits
	0	0.258333	3.97056E-003	3.97056E-003	5.04100E-004	...........
	1	0.516667	3.96831E-003	3.85247E-003	5.01600E-004	...........
	2	0.775	3.95295E-003	3.66171E-003	4.97700E-004	...........
	3	1.03333	3.90485E-003	3.49748E-003	5.04967E-004	...........
	4	1.29167	3.81106E-003	3.35950E-003	5.10967E-004	...........
	5	1.55	3.67928E-003	3.22926E-003	5.08867E-004	...........
	6	1.80833	3.53100E-003	3.11078E-003	4.96433E-004	...........
	7	2.06667	3.38335E-003	2.91632E-003	5.08033E-004	...........
	8	2.325	3.21188E-003	1.34800E-003	5.07900E-004	...........
	9	2.58333	2.92444E-003	1.22447E-003	4.99600E-004	...........
	10	2.84167	2.47371E-003	1.70822E-003	5.02767E-004	...........
	11	3.1	2.00850E-003	2.35555E-003	5.05200E-004	...........
	12	3.35833	1.77282E-003	2.67954E-003	5.07400E-004	...........
	13	3.61667	1.85428E-003	2.60237E-003	4.97100E-004	...........
	14	3.875	2.11691E-003	2.29476E-003	5.03133E-004	...........
	15	4.13333	2.33667E-003	1.59443E-003	5.05800E-004	...........
	16	4.39167	2.35262E-003	1.29884E-003	5.04400E-004	...........
	17	4.65	2.14438E-003	1.26691E-003	5.02467E-004	...........
	18	4.90833	1.82606E-003	1.42107E-003	5.07500E-004	...........
EOC	QUANT	0.0018261	Open Circuit (V)
PSTATMODEL	IQUANT	4	Pstat Model
PSTATSECTION	LABEL	REF600-11020	Pstat Section
PSTATSERIALNO	LABEL	11020	Pstat Serial Number
CTRLMODE	IQUANT	1	Control Mode
IESTAB	IQUANT	0	I/E Stability
CASPEED	IQUANT	1	Control Amp Speed
CONVENTION	IQUANT	1	Current Convention
ICHRANGE	IQUANT	2	Ich Range
ICHRANGEMODE	TOGGLE	F	Ich Auto Range
ICHOFFSETENABLE	TOGGLE	T	Ich Offset Enable
ICHOFFSET	QUANT	0	Ich Offset (V)
ICHFILTER	IQUANT	3	Ich Filter
VCHRANGE	IQUANT	2	Vch Range
VCHRANGEMODE	TOGGLE	F	Vch Auto Range
VCHOFFSETENABLE	TOGGLE	T	Vch Offset Enable
VCHOFFSET	QUANT	0	Vch Offset (V)
VCHFILTER	IQUANT	3	Vch Filter
ACHRANGE	IQUANT	2	Ach Range
ACHOFFSETENABLE	TOGGLE	F	Ach Offset Enable
ACHOFFSET	QUANT	0	Ach Offset (V)
ACHFILTER	IQUANT	3	Ach Filter
IERANGELOWERLIMIT	IQUANT	1	I/E Range Lower Limit
IERANGEMODE	TOGGLE	F	I/E AutoRange
IERANGE	IQUANT	5	I/E Range
POSFEEDENABLE	TOGGLE	F	Positive Feedback IR Comp
POSFEEDRESISTANCE	QUANT	0	Positive Feedback Resistance (ohm)
ACHSELECT	IQUANT	0	Ach Select
CABLEID	IQUANT	14	Cable ID
DCCALDATE	LABEL	8/19/2019	DC Calibration Date
ACCALDATE	LABEL	8/19/2019	AC Calibration Date
THERMOSELECT	IQUANT	1	Thermo Select
FRAMEWORKVERSION	QUANT	6.33	Framework Version
INSTRUMENTVERSION	LABEL	3.50	Instrument Version
ZCURVE	TABLE
	Pt	Time	Freq	Zreal	Zimag	Zsig	Zmod	Zphz	Idc	Vdc	IERange
	#	s	Hz	ohm	ohm	V	ohm	°	A	V	#
	0	2	1000078	2510.297	-1625.117	1	2990.417	-32.91822	2.534818E-006	0.0040131	8
	1	3	794390.6	2817.969	-1542.194	1	3212.369	-28.69063	-2.127104E-007	0.0036371	8
	2	5	630984.4	3089.551	-1402.169	1	3392.846	-24.41056	3.124076E-006	0.0028637	8
	3	6	501234.4	3333.645	-1249.279	1	3560.04	-20.54342	-3.986992E-006	0.0041209	8
	4	7	398109.4	3488.758	-1099.52	1	3657.92	-17.49281	-1.600662E-006	0.003806	8
	5	9	316265.6	3627.409	-943.6427	1	3748.14	-14.58186	3.482944E-006	0.0027457	8
	6	10	251203.1	3720.582	-818.1193	1	3809.468	-12.40142	4.95296E-007	0.0031218	8
	7	12	199546.9	3783.678	-720.5564	1	3851.678	-10.78219	-2.157493E-006	0.003913	8
	8	13	158578.1	3859.135	-636.1194	1	3911.211	-9.360167	-7.995388E-007	0.0032664	8
	9	14	125953.1	3929.968	-525.077	1	3964.89	-7.61013	6.361685E-007	0.0021883	7
	10	16	100078.1	3958.671	-474.7485	1	3987.037	-6.838606	1.210986E-007	0.0031213	7
	11	17	79453.13	3996.481	-449.365	1	4021.665	-6.415401	3.080879E-009	0.003225	7
	12	18	63140.62	4033.117	-435.2935	1	4056.54	-6.160077	-7.606515E-009	0.0033204	7
	13	20	50203.12	4070.1	-434.7466	1	4093.252	-6.096916	8.437789E-008	0.00313	7
	14	21	39890.62	4110.109	-443.1046	1	4133.925	-6.153205	-1.308696E-008	0.0032975	7
	15	22	31640.63	4151.779	-461.5557	1	4177.356	-6.343558	-8.389503E-008	0.0035345	7
	16	24	25171.88	4197.629	-488.5517	1	4225.964	-6.638647	-8.072221E-009	0.0033141	7
	17	25	20015.62	4246.583	-525.2855	1	4278.948	-7.051441	-6.032933E-008	0.0033703	7
	18	27	15890.62	4299.648	-571.4902	1	4337.462	-7.571124	-1.62327E-008	0.0033544	7
	19	28	12609.37	4358.436	-629.9785	1	4403.73	-8.224703	1.31557E-008	0.0032498	7
	20	29	10078.13	4420.953	-695.8468	1	4475.38	-8.944826	1.232816E-007	0.0031136	7
	21	31	8015.625	4489.053	-777.6579	1	4555.913	-9.82806	-6.703024E-008	0.0034195	7
	22	32	6328.125	4562.448	-877.7491	1	4646.114	-10.88983	-4.612583E-008	0.003388	7
	23	33	5015.625	4640.485	-996.522	1	4746.279	-12.11993	-4.726192E-008	0.0033855	7
	24	35	3984.375	4722.664	-1138.39	1	4857.93	-13.55251	-1.306978E-008	0.003296	7
	25	36	3170.956	4809.777	-1309.806	1	4984.932	-15.23348	4.016945E-009	0.0032154	7
	26	37	2527.573	4900.82	-1516.407	1	5130.062	-17.19306	5.400033E-008	0.0031354	7
	27	39	1976.103	5011.846	-1796.171	1	5323.986	-19.71692	-4.537729E-008	0.0033908	7
	28	40	1577.524	5119.281	-2110.102	1	5537.108	-22.40082	-1.399959E-008	0.0033522	7
	29	42	1265.625	5238.632	-2484.9	1	5798.103	-25.37692	8.634535E-008	0.0031226	7
	30	43	998.264	5383.212	-2978.032	1	6152.044	-28.95168	6.045175E-009	0.0032206	7
	31	44	796.875	5535.577	-3555.871	1	6579.273	-32.71534	1.258387E-008	0.0033873	7
	32	46	627.7902	5727.305	-4300.689	1	7162.259	-36.90324	-9.736847E-009	0.0032939	7
	33	47	505.5147	5923.42	-5135.039	1	7839.358	-40.92216	5.650518E-008	0.0031919	7
	34	48	397.9953	6179.871	-6263.428	1	8798.939	-45.38474	3.174777E-009	0.0033133	7
	35	50	315.5048	6471.502	-7614.818	1	9993.29	-49.64024	2.290827E-009	0.0032557	6
	36	51	252.4038	6797.748	-9208.67	1	11445.92	-53.56563	1.035961E-009	0.0032526	6
	37	52	198.6229	7216.269	-11315.53	1	13420.72	-57.47306	1.200439E-008	0.0032462	6
	38	54	158.3615	7695.848	-13782.35	1	15785.41	-60.82169	1.411239E-009	0.0032483	6
	39	55	125.558	8304.97	-16892.79	1	18823.89	-63.81998	7.891054E-010	0.0032514	6
	40	57	100.4464	9044.732	-20570.95	1	22471.56	-66.26564	1.608408E-010	0.0032493	6
	41	58	79.00281	10014.82	-25443.25	1	27343.29	-68.5147	4.694137E-010	0.0032511	6
	42	59	63.3446	11128.39	-31050.03	1	32984.02	-70.28223	7.983014E-010	0.0032492	6
	43	61	49.86702	12863.22	-38079.58	1	40193.49	-71.33512	1.313472E-010	0.0032457	6
	44	62	39.72458	14998.48	-46624.34	1	48977.38	-72.16766	7.626761E-010	0.003251	6
	45	64	31.6723	17784.45	-56890.95	1	59605.93	-72.64045	7.200353E-010	0.0032488	6
	46	65	24.93351	21524.71	-69942.09	1	73179.29	-72.89423	-5.207636E-009	0.0032484	6
	47	66	19.86229	26181.92	-84895.13	1	88840.73	-72.86008	-4.744856E-011	0.0032448	6
	48	68	15.83615	32425.35	-102805.5	1	107797.8	-72.49447	3.237843E-010	0.0032464	5
	49	69	12.40079	40685.98	-126106.9	1	132507.7	-72.1187	6.620998E-010	0.0032589	5
	50	70	9.93114	51212.09	-150077.2	1	158574.4	-71.15839	2.27208E-009	0.0032495	5
	51	72	7.944915	64441.21	-179544.7	1	190758.9	-70.2562	-4.629074E-010	0.0032555	5
	52	74	6.317385	81169.16	-214129.4	1	228997.4	-69.23999	-1.525615E-010	0.003264	5
	53	76	5.008013	103089.9	-254828.4	1	274890.9	-67.9744	1.324815E-010	0.0032498	5
	54	78	3.945707	131188	-302629.4	1	329840.6	-66.56357	4.594888E-010	0.0032565	5
	55	81	3.158693	163803.7	-352983.3	1	389138.6	-65.10611	2.989905E-010	0.0032699	5
	56	84	2.504006	204861.2	-412104.1	1	460215.1	-63.56755	1.141684E-010	0.0032514	5
	57	87	1.998082	251680.3	-474882.3	1	537453.4	-62.0771	1.717245E-011	0.0032794	5
	58	90	1.584686	309253.5	-547193.3	1	628536.6	-60.52646	3.024516E-010	0.0033024	5
	59	94	1.266892	371015.3	-622837.9	1	724968.5	-59.21837	5.435652E-011	0.0032706	5
	60	98	0.999041	445102	-712252.9	1	839892.9	-57.99786	4.623931E-010	0.0032559	5
