EXPLAIN
TAG	EISPOT
TITLE	LABEL	Potentiostatic EIS	Test &Identifier
DATE	LABEL	11/12/2019	Date
TIME	LABEL	21:42:05	Time
NOTES	NOTES	3	&Notes...
	
	
	
PSTAT	PSTAT	REF600-11020	Potentiostat
VDC	POTEN	0.00000E+000	T	DC &Voltage (V)
FREQINIT	QUANT	1.00000E+006	Initial Fre&q. (Hz)
FREQFINAL	QUANT	1.00000E+000	Final Fre&q. (Hz)
PTSPERDEC	QUANT	1.00000E+001	Points/&decade
VAC	QUANT	2.50000E+001	AC &Voltage (mV rms)
AREA	QUANT	1.00000E-002	&Area (cm^2)
CONDIT	TWOPARAM	T	5.00000E+000	0.00000E+000	Conditionin&g	Time(s)	E(V)
DELAY	TWOPARAM	T	5.00000E+000	0.00000E+000	Init. De&lay	Time(s)	Stab.(mV/s)
SPEED	SELECTOR	1	&Optimize for:
ZGUESS	QUANT	1.00000E+005	E&stimated Z (ohms)
OCVCURVE	TABLE	19
	Pt	T	Vf	Vm	Ach	Over
	#	s	V vs. Ref.	V	V	bits
	0	0.258333	2.22151E-003	2.22151E-003	5.39499E-004	...........
	1	0.516667	2.21730E-003	2.00090E-003	5.26566E-004	...........
	2	0.775	2.19176E-003	1.80961E-003	5.28466E-004	...........
	3	1.03333	2.12091E-003	1.63994E-003	5.30433E-004	...........
	4	1.29167	1.99745E-003	1.47475E-003	5.30600E-004	...........
	5	1.55	1.83841E-003	1.32899E-003	5.24000E-004	...........
	6	1.80833	1.66802E-003	1.18706E-003	5.36466E-004	...........
	7	2.06667	1.50263E-003	1.06228E-003	5.36799E-004	...........
	8	2.325	1.34886E-003	9.42141E-004	5.34000E-004	...........
	9	2.58333	1.20760E-003	8.30056E-004	5.31700E-004	...........
	10	2.84167	1.07738E-003	7.20366E-004	5.33700E-004	...........
	11	3.1	9.56078E-004	6.20957E-004	5.34600E-004	...........
	12	3.35833	8.42061E-004	5.28268E-004	5.35799E-004	...........
	13	3.61667	7.34759E-004	4.43415E-004	5.34333E-004	...........
	14	3.875	6.34458E-004	3.69695E-004	5.29733E-004	...........
	15	4.13333	5.43250E-004	3.78637E-004	5.30766E-004	...........
	16	4.39167	4.65489E-004	2.73878E-004	5.32633E-004	...........
	17	4.65	4.00756E-004	1.71907E-004	5.34900E-004	...........
	18	4.90833	3.38197E-004	8.35176E-005	5.37466E-004	...........
EOC	QUANT	0.0003382	Open Circuit (V)
PSTATMODEL	IQUANT	4	Pstat Model
PSTATSECTION	LABEL	REF600-11020	Pstat Section
PSTATSERIALNO	LABEL	11020	Pstat Serial Number
CTRLMODE	IQUANT	1	Control Mode
IESTAB	IQUANT	0	I/E Stability
CASPEED	IQUANT	1	Control Amp Speed
CONVENTION	IQUANT	1	Current Convention
ICHRANGE	IQUANT	2	Ich Range
ICHRANGEMODE	TOGGLE	F	Ich Auto Range
ICHOFFSETENABLE	TOGGLE	T	Ich Offset Enable
ICHOFFSET	QUANT	0	Ich Offset (V)
ICHFILTER	IQUANT	3	Ich Filter
VCHRANGE	IQUANT	2	Vch Range
VCHRANGEMODE	TOGGLE	F	Vch Auto Range
VCHOFFSETENABLE	TOGGLE	T	Vch Offset Enable
VCHOFFSET	QUANT	0	Vch Offset (V)
VCHFILTER	IQUANT	3	Vch Filter
ACHRANGE	IQUANT	2	Ach Range
ACHOFFSETENABLE	TOGGLE	F	Ach Offset Enable
ACHOFFSET	QUANT	0	Ach Offset (V)
ACHFILTER	IQUANT	3	Ach Filter
IERANGELOWERLIMIT	IQUANT	1	I/E Range Lower Limit
IERANGEMODE	TOGGLE	F	I/E AutoRange
IERANGE	IQUANT	3	I/E Range
POSFEEDENABLE	TOGGLE	F	Positive Feedback IR Comp
POSFEEDRESISTANCE	QUANT	0	Positive Feedback Resistance (ohm)
ACHSELECT	IQUANT	0	Ach Select
CABLEID	IQUANT	14	Cable ID
DCCALDATE	LABEL	8/19/2019	DC Calibration Date
ACCALDATE	LABEL	8/19/2019	AC Calibration Date
THERMOSELECT	IQUANT	1	Thermo Select
FRAMEWORKVERSION	QUANT	6.33	Framework Version
INSTRUMENTVERSION	LABEL	3.50	Instrument Version
ZCURVE	TABLE
	Pt	Time	Freq	Zreal	Zimag	Zsig	Zmod	Zphz	Idc	Vdc	IERange
	#	s	Hz	ohm	ohm	V	ohm	°	A	V	#
	0	2	1000078	2097.213	-1305.861	1	2470.541	-31.90908	-7.58751E-006	0.0035231	8
	1	3	794390.6	2349.141	-1248.493	1	2660.301	-27.98922	2.437374E-006	0.0017786	8
	2	5	630984.4	2564.967	-1135.841	1	2805.208	-23.88514	-6.587841E-006	0.0028668	8
	3	6	501234.4	2741.985	-1013.656	1	2923.351	-20.28834	-6.343166E-007	0.0016828	8
	4	8	398109.4	2884.88	-893.973	1	3020.219	-17.21728	-4.209181E-006	0.00218	8
	5	9	316265.6	2987.79	-782.5068	1	3088.56	-14.67622	-3.726038E-007	0.0015586	8
	6	10	251203.1	3078.093	-688.8743	1	3154.235	-12.61487	-1.920686E-006	0.0019519	8
	7	12	199546.9	3140.323	-610.9791	1	3199.207	-11.00988	-5.449134E-007	0.0015592	8
	8	13	158578.1	3207.004	-536.0219	1	3251.491	-9.488764	-1.573103E-007	0.0015658	8
	9	14	125953.1	3263.397	-465.0963	1	3296.373	-8.111119	4.947961E-007	0.0036938	7
	10	16	100078.1	3301.183	-420.8155	1	3327.896	-7.264551	8.343566E-007	0.0003332	7
	11	17	79453.13	3333.268	-409.1319	1	3358.282	-6.997598	8.714617E-007	0.0011469	7
	12	19	63140.62	3367.412	-400.8485	1	3391.186	-6.788405	-2.424448E-007	0.002928	7
	13	20	50203.12	3403.566	-401.0233	1	3427.11	-6.719862	-1.051327E-006	0.0030267	7
	14	21	39890.62	3445.14	-412.5108	1	3469.749	-6.827919	4.117866E-007	0.0003449	7
	15	23	31640.63	3486.512	-431.4498	1	3513.107	-7.054389	8.372977E-007	0.000318	7
	16	24	25171.88	3525.41	-458.7234	1	3555.129	-7.413626	-2.40957E-007	0.0029228	7
	17	26	20015.62	3571.703	-494.7973	1	3605.813	-7.887134	-9.383396E-007	0.0031634	7
	18	27	15890.62	3624.065	-543.9583	1	3664.66	-8.536156	5.343877E-007	0.0019253	7
	19	28	12609.37	3678.399	-600.7868	1	3727.139	-9.276118	-5.245973E-007	0.0031327	7
	20	30	10078.13	3737.511	-667.0431	1	3796.569	-10.11918	-5.262366E-007	0.0031288	7
	21	31	8015.625	3810.99	-750.3244	1	3884.152	-11.13818	9.44442E-007	0.0007758	7
	22	32	6328.125	3881.601	-846.6448	1	3972.863	-12.30449	-6.302133E-007	0.0016301	7
	23	34	5015.625	3967.072	-962.48	1	4082.159	-13.63744	5.353878E-007	0.0019252	7
	24	35	3984.375	4052.276	-1096.239	1	4197.937	-15.13756	-5.254255E-007	0.0031219	7
	25	37	3170.956	4151.761	-1255.516	1	4337.446	-16.82561	8.363335E-007	0.0003096	7
	26	38	2527.573	4245.84	-1439.295	1	4483.16	-18.72612	-9.379348E-007	0.0031589	7
	27	39	1976.103	4363.699	-1687.66	1	4678.682	-21.14397	-2.662262E-007	0.0010321	7
	28	41	1577.524	4478.931	-1979.252	1	4896.76	-23.84077	9.469485E-007	0.0007741	7
	29	42	1265.625	4596.93	-2287.188	1	5134.491	-26.4525	7.335137E-008	0.0025665	7
	30	44	998.264	4736.543	-2720.874	1	5462.417	-29.87491	5.323565E-007	0.0019172	7
	31	45	796.875	4877.741	-3229.975	1	5850.222	-33.512	6.614252E-007	0.0002355	7
	32	46	627.7902	5045.359	-3890.263	1	6371.012	-37.6343	3.446364E-007	0.002195	7
	33	48	505.5147	5213.777	-4641.923	1	6980.754	-41.67927	4.090643E-007	0.0003344	7
	34	49	397.9953	5433.867	-5651.076	1	7839.743	-46.12257	3.572915E-009	0.0017702	7
	35	51	315.5048	5683.581	-6879.677	1	8923.735	-50.4385	4.139267E-009	0.0017761	7
	36	52	252.4038	5975.5	-8336.68	1	10257.04	-54.3681	1.08496E-009	0.0017082	6
	37	53	198.6229	6358.881	-10273.85	1	12082.52	-58.24504	1.060182E-009	0.0017132	6
	38	55	158.3615	6816.302	-12538.75	1	14271.72	-61.47065	1.311013E-009	0.0017127	6
	39	56	125.558	7419.023	-15388.53	1	17083.58	-64.26064	1.237432E-009	0.0017109	6
	40	58	100.4464	8165.472	-18755.28	1	20455.69	-66.47317	1.407884E-009	0.0017107	6
	41	59	79.00281	9229.31	-23187.82	1	24957.07	-68.29626	1.9622E-010	0.0017077	6
	42	60	63.3446	10583.2	-28017.47	1	29949.68	-69.30666	9.88953E-010	0.0017136	6
	43	62	49.86702	12378.28	-34718.57	1	36859.2	-70.37722	6.232026E-010	0.0017058	6
	44	63	39.72458	14597.91	-42112.25	1	44570.63	-70.88149	6.964564E-010	0.0017213	6
	45	65	31.6723	17534.19	-51118.09	1	54041.71	-71.06734	3.523563E-010	0.0017157	6
	46	66	24.93351	21780.71	-62392.93	1	66085.38	-70.75645	5.935901E-010	0.0017096	6
	47	68	19.86229	26972.21	-75146.06	1	79840.03	-70.25539	4.070232E-010	0.0017187	6
	48	69	15.83615	33630.97	-90323.43	1	96381.4	-69.57772	1.871584E-009	0.0017122	6
	49	70	12.40079	43634.68	-108919	1	117334.2	-68.16817	-8.156871E-010	0.0017219	5
	50	72	9.93114	54006.79	-128273.9	1	139179.5	-67.16759	6.813199E-010	0.0017156	5
	51	73	7.944915	67580.94	-150354.8	1	164844.6	-65.7972	5.663188E-010	0.0017162	5
	52	75	6.317385	84960.57	-175830.1	1	195280.6	-64.2103	2.46337E-010	0.0017275	5
	53	77	5.008013	106165.3	-204689.3	1	230583.5	-62.58578	3.540926E-010	0.0017123	5
	54	80	3.945707	131504.8	-237267.9	1	271274	-61.00276	3.11335E-010	0.0017154	5
	55	82	3.158693	159687.8	-270508.4	1	314125.8	-59.44559	-1.914567E-011	0.0017208	5
	56	86	2.504006	192834.7	-308605	1	363898.7	-58.00041	5.612881E-010	0.0017175	5
	57	89	1.998082	228263.4	-349110	1	417111.5	-56.82159	4.073598E-010	0.0017323	5
	58	92	1.584686	270071.5	-394962.4	1	478470.4	-55.63606	1.709061E-010	0.0016714	5
	59	95	1.266892	312714.1	-445300	1	544134.3	-54.92136	4.156252E-010	0.0016964	5
	60	100	0.999041	362897.3	-506399.3	1	623004.6	-54.37376	-8.515336E-011	0.0017228	5
