EXPLAIN
TAG	EISPOT
TITLE	LABEL	Potentiostatic EIS	Test &Identifier
DATE	LABEL	9/20/2019	Date
TIME	LABEL	10:42:54	Time
NOTES	NOTES	1	&Notes...
	
PSTAT	PSTAT	REF600-11020	Potentiostat
VDC	POTEN	0.00000E+000	T	DC &Voltage (V)
FREQINIT	QUANT	1.00000E+006	Initial Fre&q. (Hz)
FREQFINAL	QUANT	1.00000E+000	Final Fre&q. (Hz)
PTSPERDEC	QUANT	1.00000E+001	Points/&decade
VAC	QUANT	2.50000E+001	AC &Voltage (mV rms)
AREA	QUANT	1.00000E-002	&Area (cm^2)
CONDIT	TWOPARAM	T	5.00000E+000	0.00000E+000	Conditionin&g	Time(s)	E(V)
DELAY	TWOPARAM	T	5.00000E+000	0.00000E+000	Init. De&lay	Time(s)	Stab.(mV/s)
SPEED	SELECTOR	1	&Optimize for:
ZGUESS	QUANT	1.00000E+004	E&stimated Z (ohms)
OCVCURVE	TABLE	19
	Pt	T	Vf	Vm	Ach	Over
	#	s	V vs. Ref.	V	V	bits
	0	0.258333	-5.36488E-004	-5.36488E-004	5.68366E-004	...........
	1	0.516667	-5.39202E-004	-6.78593E-004	5.67332E-004	...........
	2	0.775	-5.55648E-004	-8.01544E-004	5.66499E-004	...........
	3	1.03333	-6.01375E-004	-9.16901E-004	5.59566E-004	...........
	4	1.29167	-6.81392E-004	-1.02077E-003	5.64366E-004	...........
	5	1.55	-7.84859E-004	-1.11509E-003	5.66166E-004	...........
	6	1.80833	-8.95615E-004	-1.20085E-003	5.68199E-004	...........
	7	2.06667	-1.00214E-003	-1.27284E-003	5.68866E-004	...........
	8	2.325	-1.09927E-003	-1.34388E-003	5.68266E-004	...........
	9	2.58333	-1.18615E-003	-1.41017E-003	5.62732E-004	...........
	10	2.84167	-1.26418E-003	-1.46815E-003	5.69066E-004	...........
	11	3.1	-1.33507E-003	-1.51457E-003	5.67566E-004	...........
	12	3.35833	-1.38954E-003	-1.04597E-003	5.68566E-004	...........
	13	3.61667	-1.38805E-003	-6.66406E-004	5.70266E-004	...........
	14	3.875	-1.27921E-003	-4.44107E-004	5.74832E-004	...........
	15	4.13333	-1.06024E-003	-2.95264E-004	5.71999E-004	...........
	16	4.39167	-7.92244E-004	-2.05524E-004	5.75265E-004	...........
	17	4.65	-5.46831E-004	-1.26523E-004	5.68166E-004	...........
	18	4.90833	-3.59959E-004	-7.61526E-005	5.71466E-004	...........
EOC	QUANT	-0.00036	Open Circuit (V)
PSTATMODEL	IQUANT	4	Pstat Model
PSTATSECTION	LABEL	REF600-11020	Pstat Section
PSTATSERIALNO	LABEL	11020	Pstat Serial Number
CTRLMODE	IQUANT	1	Control Mode
IESTAB	IQUANT	0	I/E Stability
CASPEED	IQUANT	1	Control Amp Speed
CONVENTION	IQUANT	1	Current Convention
ICHRANGE	IQUANT	2	Ich Range
ICHRANGEMODE	TOGGLE	F	Ich Auto Range
ICHOFFSETENABLE	TOGGLE	T	Ich Offset Enable
ICHOFFSET	QUANT	0	Ich Offset (V)
ICHFILTER	IQUANT	3	Ich Filter
VCHRANGE	IQUANT	2	Vch Range
VCHRANGEMODE	TOGGLE	F	Vch Auto Range
VCHOFFSETENABLE	TOGGLE	T	Vch Offset Enable
VCHOFFSET	QUANT	0	Vch Offset (V)
VCHFILTER	IQUANT	3	Vch Filter
ACHRANGE	IQUANT	2	Ach Range
ACHOFFSETENABLE	TOGGLE	F	Ach Offset Enable
ACHOFFSET	QUANT	0	Ach Offset (V)
ACHFILTER	IQUANT	3	Ach Filter
IERANGELOWERLIMIT	IQUANT	1	I/E Range Lower Limit
IERANGEMODE	TOGGLE	F	I/E AutoRange
IERANGE	IQUANT	4	I/E Range
POSFEEDENABLE	TOGGLE	F	Positive Feedback IR Comp
POSFEEDRESISTANCE	QUANT	0	Positive Feedback Resistance (ohm)
ACHSELECT	IQUANT	0	Ach Select
CABLEID	IQUANT	14	Cable ID
DCCALDATE	LABEL	8/19/2019	DC Calibration Date
ACCALDATE	LABEL	8/19/2019	AC Calibration Date
THERMOSELECT	IQUANT	1	Thermo Select
FRAMEWORKVERSION	QUANT	6.33	Framework Version
INSTRUMENTVERSION	LABEL	3.50	Instrument Version
ZCURVE	TABLE
	Pt	Time	Freq	Zreal	Zimag	Zsig	Zmod	Zphz	Idc	Vdc	IERange
	#	s	Hz	ohm	ohm	V	ohm	°	A	V	#
	0	1	1000078	2326.898	-1598.814	1	2823.236	-34.493	6.209253E-008	0.0014443	8
	1	3	794390.6	2634.469	-1540.167	1	3051.645	-30.31147	-3.206078E-007	0.0016458	8
	2	4	630984.4	2913.369	-1435.503	1	3247.828	-26.23083	-6.211134E-007	0.0018223	8
	3	5	501234.4	3175.417	-1318.129	1	3438.13	-22.54354	1.736902E-007	0.001319	8
	4	7	398109.4	3347.869	-1169.751	1	3546.342	-19.25951	-2.179846E-006	0.0017998	8
	5	8	316265.6	3526.497	-1049.645	1	3679.393	-16.57539	3.741687E-006	0.0006768	8
	6	9	251203.1	3622.271	-889.2255	1	3729.821	-13.7927	1.139599E-006	0.0009006	8
	7	11	199546.9	3744.75	-790.7607	1	3827.33	-11.9237	6.113147E-008	0.0012266	8
	8	12	158578.1	3791.797	-689.8983	1	3854.048	-10.31188	-8.157822E-007	0.0015064	8
	9	14	125953.1	3890.246	-577.0041	1	3932.804	-8.436644	-4.654362E-007	0.0023672	7
	10	15	100078.1	3929.392	-522.9911	1	3964.043	-7.581351	7.875213E-008	0.0011296	7
	11	16	79453.13	3974.877	-490.2106	1	4004.991	-7.030629	-5.565604E-009	0.0013065	7
	12	18	63140.62	4016.667	-470.8145	1	4044.166	-6.68543	-7.634634E-009	0.0013221	7
	13	19	50203.12	4060.01	-460.44	1	4086.035	-6.470191	-3.482429E-008	0.0012868	7
	14	20	39890.62	4100.802	-461.0676	1	4126.64	-6.415026	-3.421641E-008	0.0012882	7
	15	22	31640.63	4146.227	-472.9877	1	4173.118	-6.507978	7.946785E-008	0.0012391	7
	16	23	25171.88	4193.929	-494.7138	1	4223.006	-6.727494	-2.128339E-008	0.0012618	7
	17	24	20015.62	4243.088	-524.7037	1	4275.407	-7.049455	-3.253181E-008	0.001294	7
	18	26	15890.62	4294.848	-563.6204	1	4331.673	-7.476301	-4.787399E-009	0.0012993	7
	19	27	12609.37	4352.929	-615.8112	1	4396.272	-8.05223	-4.149551E-008	0.001298	7
	20	28	10078.13	4414.334	-676.5839	1	4465.883	-8.713899	6.852105E-008	0.0011543	7
	21	30	8015.625	4478.59	-753.3001	1	4541.501	-9.5478	-1.026154E-008	0.0013995	7
	22	31	6328.125	4550.116	-846.1715	1	4628.127	-10.53478	-3.785284E-008	0.0013205	7
	23	33	5015.625	4625.694	-959.471	1	4724.154	-11.71824	-6.72983E-009	0.0012242	7
	24	34	3984.375	4705.951	-1095.492	1	4831.778	-13.10443	-4.404504E-009	0.0012223	7
	25	35	3170.956	4790.872	-1261.471	1	4954.166	-14.75157	-4.279489E-009	0.0012879	7
	26	37	2527.573	4882.91	-1461.767	1	5097.016	-16.6658	8.090086E-008	0.0012391	7
	27	38	1976.103	4995.48	-1727.694	1	5285.806	-19.07802	-4.311133E-008	0.0013626	7
	28	39	1577.524	5110.965	-2026.79	1	5498.167	-21.63116	8.048205E-008	0.0011134	7
	29	41	1265.625	5248.677	-2372.033	1	5759.788	-24.31962	-3.277869E-008	0.0012884	7
	30	42	998.264	5405.27	-2846.739	1	6109.081	-27.77398	3.760503E-008	0.0012292	7
	31	43	796.875	5587.856	-3381.498	1	6531.36	-31.18028	4.060158E-008	0.0011368	7
	32	45	627.7902	5812.222	-4071.451	1	7096.382	-35.01118	1.703521E-008	0.0011976	7
	33	46	505.5147	6056.585	-4837.13	1	7751.132	-38.61283	6.915469E-008	0.0011542	7
	34	48	397.9953	6386.048	-5859.229	1	8666.729	-42.53653	5.946334E-009	0.0012914	7
	35	49	315.5048	6779.245	-7073.307	1	9797.44	-46.21609	6.201553E-009	0.0012963	7
	36	50	252.4038	7254.13	-8485.522	1	11163.62	-49.47342	8.267394E-010	0.0012311	6
	37	52	198.6229	7904.075	-10324.84	1	13002.95	-52.5645	1.583895E-009	0.0012337	6
	38	53	158.3615	8702.354	-12418.23	1	15163.89	-54.97829	1.267026E-009	0.0012311	6
	39	54	125.558	9772.84	-14979.22	1	17885.35	-56.87851	1.497887E-009	0.001231	6
	40	56	100.4464	11120.12	-17856.07	1	21035.59	-58.08684	1.324614E-009	0.0012358	6
	41	57	79.00281	12968.19	-21539.69	1	25142.24	-58.94954	1.024441E-009	0.0012324	6
	42	59	63.3446	15204.1	-25538.81	1	29721.96	-59.23326	1.653414E-009	0.0012261	6
	43	60	49.86702	18171.21	-29876.68	1	34968.68	-58.69173	1.880396E-009	0.0012251	6
	44	61	39.72458	21827.15	-34957.76	1	41212.49	-58.01991	1.645524E-010	0.0012278	6
	45	63	31.6723	26155.93	-40474.36	1	48190.32	-57.12806	-1.653431E-010	0.001226	6
	46	64	24.93351	31561.41	-46633.31	1	56309.75	-55.90987	5.852372E-011	0.001226	6
	47	65	19.86229	37542.88	-53022.34	1	64967.97	-54.6993	4.665416E-010	0.0012304	6
	48	67	15.83615	44713.46	-59667.41	1	74562.01	-53.15291	-6.030676E-010	0.0012287	6
	49	68	12.40079	52457.73	-68220.3	1	86057.09	-52.44166	5.634112E-010	0.0012322	6
	50	70	9.93114	61329.46	-76034.54	1	97686	-51.11035	9.178824E-010	0.0012362	6
	51	71	7.944915	71019.58	-84554.3	1	110422.9	-49.97214	1.735633E-009	0.0012423	5
	52	73	6.317385	81925.59	-94509.41	1	125075.3	-49.07958	-2.089451E-011	0.0012445	5
	53	75	5.008013	94416.38	-105494.2	1	141575	-48.17173	4.718088E-010	0.0012259	5
	54	77	3.945707	108698.5	-117738.1	1	160242.4	-47.28609	2.000775E-009	0.0012362	5
	55	80	3.158693	123744.4	-130560.5	1	179885.3	-46.53531	6.046097E-010	0.0012234	5
	56	83	2.504006	141112.2	-145168.8	1	202451.5	-45.81184	2.39848E-009	0.0012299	5
	57	86	1.998082	159686.2	-160457.3	1	226376.3	-45.138	1.567727E-009	0.0012691	5
	58	89	1.584686	180126.1	-177699.9	1	253027	-44.61151	1.547696E-009	0.0012079	5
	59	93	1.266892	202676.5	-196969.4	1	282621.1	-44.18184	1.655306E-009	0.0012603	5
	60	97	0.999041	229011.6	-219220	1	317023.2	-43.74857	7.425592E-010	0.0011951	5
