EXPLAIN
TAG	EISPOT
TITLE	LABEL	Potentiostatic EIS	Test &Identifier
DATE	LABEL	10/26/2019	Date
TIME	LABEL	9:51:12	Time
NOTES	NOTES	1	&Notes...
	
PSTAT	PSTAT	REF600-11020	Potentiostat
VDC	POTEN	0.00000E+000	T	DC &Voltage (V)
FREQINIT	QUANT	1.00000E+006	Initial Fre&q. (Hz)
FREQFINAL	QUANT	1.00000E+000	Final Fre&q. (Hz)
PTSPERDEC	QUANT	1.00000E+001	Points/&decade
VAC	QUANT	2.50000E+001	AC &Voltage (mV rms)
AREA	QUANT	1.00000E-002	&Area (cm^2)
CONDIT	TWOPARAM	T	5.00000E+000	0.00000E+000	Conditionin&g	Time(s)	E(V)
DELAY	TWOPARAM	T	5.00000E+000	0.00000E+000	Init. De&lay	Time(s)	Stab.(mV/s)
SPEED	SELECTOR	0	&Optimize for:
ZGUESS	QUANT	1.00000E+005	E&stimated Z (ohms)
OCVCURVE	TABLE	19
	Pt	T	Vf	Vm	Ach	Over
	#	s	V vs. Ref.	V	V	bits
	0	0.258333	3.94229E-003	3.94229E-003	5.51866E-004	...........
	1	0.516667	3.94079E-003	3.86377E-003	5.53999E-004	...........
	2	0.775	3.93181E-003	3.80154E-003	5.46499E-004	...........
	3	1.03333	3.90720E-003	3.74230E-003	5.49333E-004	...........
	4	1.29167	3.86659E-003	3.78457E-003	5.47299E-004	...........
	5	1.55	3.82241E-003	3.76013E-003	5.48299E-004	...........
	6	1.80833	3.78821E-003	3.69987E-003	5.41999E-004	...........
	7	2.06667	3.76404E-003	3.68472E-003	5.52966E-004	...........
	8	2.325	3.74111E-003	3.66423E-003	5.50166E-004	...........
	9	2.58333	3.71600E-003	3.65961E-003	5.51899E-004	...........
	10	2.84167	3.69214E-003	3.64098E-003	5.55966E-004	...........
	11	3.1	3.67266E-003	3.63535E-003	5.51533E-004	...........
	12	3.35833	3.65757E-003	3.62592E-003	5.48333E-004	...........
	13	3.61667	3.64573E-003	3.62463E-003	5.54699E-004	...........
	14	3.875	3.63675E-003	3.63376E-003	5.60366E-004	...........
	15	4.13333	3.63120E-003	3.63064E-003	5.55866E-004	...........
	16	4.39167	3.62913E-003	3.62695E-003	5.56466E-004	...........
	17	4.65	3.62894E-003	3.62404E-003	5.49366E-004	...........
	18	4.90833	3.62847E-003	3.61870E-003	5.50699E-004	...........
EOC	QUANT	0.0036285	Open Circuit (V)
PSTATMODEL	IQUANT	4	Pstat Model
PSTATSECTION	LABEL	REF600-11020	Pstat Section
PSTATSERIALNO	LABEL	11020	Pstat Serial Number
CTRLMODE	IQUANT	1	Control Mode
IESTAB	IQUANT	0	I/E Stability
CASPEED	IQUANT	1	Control Amp Speed
CONVENTION	IQUANT	1	Current Convention
ICHRANGE	IQUANT	2	Ich Range
ICHRANGEMODE	TOGGLE	F	Ich Auto Range
ICHOFFSETENABLE	TOGGLE	T	Ich Offset Enable
ICHOFFSET	QUANT	0	Ich Offset (V)
ICHFILTER	IQUANT	3	Ich Filter
VCHRANGE	IQUANT	2	Vch Range
VCHRANGEMODE	TOGGLE	F	Vch Auto Range
VCHOFFSETENABLE	TOGGLE	T	Vch Offset Enable
VCHOFFSET	QUANT	0	Vch Offset (V)
VCHFILTER	IQUANT	3	Vch Filter
ACHRANGE	IQUANT	2	Ach Range
ACHOFFSETENABLE	TOGGLE	F	Ach Offset Enable
ACHOFFSET	QUANT	0	Ach Offset (V)
ACHFILTER	IQUANT	3	Ach Filter
IERANGELOWERLIMIT	IQUANT	1	I/E Range Lower Limit
IERANGEMODE	TOGGLE	F	I/E AutoRange
IERANGE	IQUANT	4	I/E Range
POSFEEDENABLE	TOGGLE	F	Positive Feedback IR Comp
POSFEEDRESISTANCE	QUANT	0	Positive Feedback Resistance (ohm)
ACHSELECT	IQUANT	0	Ach Select
CABLEID	IQUANT	14	Cable ID
DCCALDATE	LABEL	8/19/2019	DC Calibration Date
ACCALDATE	LABEL	8/19/2019	AC Calibration Date
THERMOSELECT	IQUANT	1	Thermo Select
FRAMEWORKVERSION	QUANT	6.33	Framework Version
INSTRUMENTVERSION	LABEL	3.50	Instrument Version
ZCURVE	TABLE
	Pt	Time	Freq	Zreal	Zimag	Zsig	Zmod	Zphz	Idc	Vdc	IERange
	#	s	Hz	ohm	ohm	V	ohm	°	A	V	#
	0	1	1000078	1302.998	-2074.073	1	2449.405	-57.86167	-3.512776E-006	0.0065198	8
	1	1	794390.6	1472.728	-2459.234	1	2866.489	-59.08445	2.698721E-006	0.0055645	8
	2	2	630984.4	1683.887	-2923.169	1	3373.484	-60.05598	-5.805608E-007	0.0056277	8
	3	2	501234.4	1963.25	-3479.369	1	3995.042	-60.56594	1.639914E-006	0.0051726	8
	4	2	398109.4	2311.691	-4121.101	1	4725.186	-60.71019	-4.777142E-007	0.0053957	8
	5	3	316265.6	2754.385	-4886.664	1	5609.467	-60.59206	3.044274E-006	0.0048144	8
	6	3	251203.1	3344.967	-5724.471	1	6630.11	-59.70108	-4.377728E-007	0.0053523	8
	7	3	199546.9	4053.314	-6659.732	1	7796.242	-58.67405	-3.712637E-007	0.0053703	8
	8	4	158578.1	4963.054	-7750.96	1	9203.766	-57.36797	2.945633E-006	0.0048167	8
	9	4	125953.1	6117.959	-8847.604	1	10756.84	-55.33683	1.043656E-007	0.0052091	7
	10	4	100078.1	7396.044	-9957.97	1	12404.14	-53.39777	5.363744E-008	0.0052276	7
	11	5	79453.13	8909.372	-11197.32	1	14309.33	-51.49179	-5.51483E-009	0.0052723	7
	12	5	63140.62	10671.27	-12509.83	1	16442.99	-49.5348	6.797097E-008	0.0051486	7
	13	5	50203.12	12764.75	-13781.13	1	18784.52	-47.19266	6.956822E-008	0.005154	7
	14	6	39890.62	15188.17	-14983.54	1	21335.11	-44.61141	-3.959477E-008	0.0054096	7
	15	6	31640.63	18013.48	-15948.96	1	24059.4	-41.52136	-6.967746E-008	0.0053963	7
	16	6	25171.88	21103.09	-16744.24	1	26939	-38.43023	1.050085E-007	0.0051428	7
	17	7	20015.62	24152.75	-17237.1	1	29672.77	-35.51431	3.115315E-008	0.0051826	7
	18	7	15890.62	27462.96	-16758.17	1	32172.2	-31.39195	-4.33031E-008	0.0053393	7
	19	7	12609.37	30721.69	-15925.76	1	34604.22	-27.40169	1.092208E-008	0.0051527	6
	20	8	10078.13	33372.75	-15119.82	1	36638.09	-24.37333	1.220271E-008	0.0051494	6
	21	8	8015.625	35695.38	-14299.54	1	38453.04	-21.831	3.161402E-009	0.0050802	6
	22	8	6328.125	37780.69	-13086.84	1	39983.07	-19.10556	-9.244864E-009	0.0053102	6
	23	9	5015.625	39517.95	-12120.22	1	41334.82	-17.05086	2.198465E-009	0.0053337	6
	24	9	3984.375	40955.56	-11496.08	1	42538.43	-15.67925	-7.447137E-009	0.0053995	6
	25	9	3170.956	42183.35	-10684.08	1	43515.34	-14.21283	-5.872407E-009	0.0053426	6
	26	10	2527.573	43294.83	-10278.49	1	44498.2	-13.35517	1.708005E-008	0.0050057	6
	27	10	1976.103	44345.92	-9990.21	1	45457.29	-12.69561	-7.826235E-009	0.0053475	6
	28	10	1577.524	45330.98	-9464.502	1	46308.48	-11.79318	1.606288E-008	0.0050005	6
	29	11	1265.625	46148.66	-10160.24	1	47253.88	-12.41634	-2.211163E-009	0.0051657	6
	30	11	998.264	47174.69	-10758.12	1	48385.83	-12.84653	3.975197E-009	0.0053273	6
	31	11	796.875	48057.32	-11400.45	1	49391.05	-13.34537	5.256036E-009	0.005106	6
	32	11	627.7902	49024.66	-12452.47	1	50581.43	-14.25197	-5.32894E-009	0.0052532	6
	33	12	505.5147	50060.08	-13758.95	1	51916.48	-15.3682	-8.997185E-009	0.0053342	6
	34	12	397.9953	51301.66	-15551.16	1	53606.89	-16.86372	-2.872853E-010	0.0052563	6
	35	12	315.5048	52680.7	-17763.1	1	55594.82	-18.63329	1.547774E-009	0.0052525	6
	36	13	252.4038	54243.12	-20342.79	1	57932.25	-20.55754	1.296141E-009	0.005251	6
	37	13	198.6229	56230.92	-23709.7	1	61025.13	-22.86266	1.868187E-010	0.005247	6
	38	13	158.3615	58487.41	-27536.13	1	64645.31	-25.21126	-2.517593E-010	0.0052466	6
	39	14	125.558	61215.76	-32023.1	1	69085.8	-27.6149	1.892305E-010	0.0052507	6
	40	14	100.4464	64532.28	-36885.1	1	74329.84	-29.75125	1.5891E-009	0.005247	6
	41	14	79.00281	69149.06	-43217.74	1	81543.65	-32.00513	7.267389E-010	0.0052441	6
	42	15	63.3446	70818.27	-51020.46	1	87282.96	-35.77057	-1.368032E-010	0.0052459	6
	43	15	49.86702	77234.59	-58419.84	1	96840.4	-37.10367	-6.942197E-010	0.0052461	5
	44	15	39.72458	85416.33	-66889.51	1	108490.3	-38.06449	-7.787025E-011	0.0052514	5
	45	16	31.6723	92997.24	-75979.1	1	120088.8	-39.24895	1.30672E-010	0.0052519	5
	46	16	24.93351	101776.9	-88022.45	1	134560.3	-40.85513	-2.541929E-011	0.005248	5
	47	16	19.86229	111766.7	-100749.6	1	150473.5	-42.03236	-9.736139E-010	0.0052518	5
	48	17	15.83615	124193.9	-113672.2	1	168361.2	-42.46725	1.31987E-009	0.0052471	5
	49	17	12.40079	137851.2	-131891.5	1	190783.4	-43.7343	-5.317998E-010	0.0052489	5
	50	17	9.93114	150390	-149016.7	1	211714.8	-44.73721	7.420163E-010	0.0052511	5
	51	18	7.944915	166956.2	-168404.4	1	237138	-45.24741	7.064175E-010	0.0052458	5
	52	19	6.317385	184523.6	-192688.9	1	266792	-46.24006	6.85098E-010	0.005232	5
	53	19	5.008013	205881.4	-220873.4	1	301947.4	-47.01199	4.821403E-010	0.0052493	5
	54	20	3.945707	229306.9	-254013.4	1	342205.3	-47.92632	1.17664E-010	0.0052475	5
	55	22	3.158693	255521.4	-289670.5	1	386264.4	-48.58414	-1.225432E-010	0.0052309	5
	56	23	2.504006	286454.8	-332709.3	1	439035.1	-49.27233	1.806004E-010	0.0052382	5
	57	25	1.998082	319453.9	-381297.1	1	497431.7	-50.04344	1.391237E-010	0.0052497	5
	58	26	1.584686	360005	-438274.1	1	567175.3	-50.5998	-4.889291E-011	0.0052036	5
	59	28	1.266892	404899.3	-504027.1	1	646518.9	-51.22409	-9.917364E-011	0.0051983	5
	60	31	0.999041	458307.1	-583934.6	1	742310.6	-51.87304	-1.153167E-010	0.0052155	5
