EXPLAIN
TAG	EISPOT
TITLE	LABEL	Potentiostatic EIS	Test &Identifier
DATE	LABEL	10/20/2019	Date
TIME	LABEL	10:05:49	Time
NOTES	NOTES	1	&Notes...
	
PSTAT	PSTAT	REF600-11020	Potentiostat
VDC	POTEN	0.00000E+000	T	DC &Voltage (V)
FREQINIT	QUANT	1.00000E+006	Initial Fre&q. (Hz)
FREQFINAL	QUANT	1.00000E+000	Final Fre&q. (Hz)
PTSPERDEC	QUANT	1.00000E+001	Points/&decade
VAC	QUANT	2.50000E+001	AC &Voltage (mV rms)
AREA	QUANT	1.00000E-002	&Area (cm^2)
CONDIT	TWOPARAM	T	5.00000E+000	0.00000E+000	Conditionin&g	Time(s)	E(V)
DELAY	TWOPARAM	T	5.00000E+000	0.00000E+000	Init. De&lay	Time(s)	Stab.(mV/s)
SPEED	SELECTOR	1	&Optimize for:
ZGUESS	QUANT	1.00000E+005	E&stimated Z (ohms)
OCVCURVE	TABLE	19
	Pt	T	Vf	Vm	Ach	Over
	#	s	V vs. Ref.	V	V	bits
	0	0.258333	5.39464E-003	5.39464E-003	6.28565E-004	...........
	1	0.516667	5.39049E-003	5.17718E-003	6.32065E-004	...........
	2	0.775	5.36647E-003	5.04927E-003	6.32731E-004	...........
	3	1.03333	5.31463E-003	5.50912E-003	6.39498E-004	...........
	4	1.29167	5.27343E-003	5.60338E-003	6.31931E-004	...........
	5	1.55	5.29965E-003	5.58559E-003	6.29498E-004	...........
	6	1.80833	5.38935E-003	5.48159E-003	6.36165E-004	...........
	7	2.06667	5.47421E-003	5.23070E-003	6.29165E-004	...........
	8	2.325	5.48595E-003	4.93085E-003	6.26931E-004	...........
	9	2.58333	5.40412E-003	5.15274E-003	6.34865E-004	...........
	10	2.84167	5.27038E-003	4.99652E-003	6.36198E-004	...........
	11	3.1	5.15168E-003	5.06441E-003	6.27031E-004	...........
	12	3.35833	5.08116E-003	5.05892E-003	6.28831E-004	...........
	13	3.61667	5.05475E-003	5.18327E-003	6.24265E-004	...........
	14	3.875	5.06255E-003	5.19565E-003	6.31531E-004	...........
	15	4.13333	5.09209E-003	5.02860E-003	6.25698E-004	...........
	16	4.39167	5.11647E-003	4.99283E-003	6.27231E-004	...........
	17	4.65	5.11059E-003	5.04260E-003	6.30731E-004	...........
	18	4.90833	5.08116E-003	5.10914E-003	6.40431E-004	...........
EOC	QUANT	0.0050812	Open Circuit (V)
PSTATMODEL	IQUANT	4	Pstat Model
PSTATSECTION	LABEL	REF600-11020	Pstat Section
PSTATSERIALNO	LABEL	11020	Pstat Serial Number
CTRLMODE	IQUANT	1	Control Mode
IESTAB	IQUANT	0	I/E Stability
CASPEED	IQUANT	1	Control Amp Speed
CONVENTION	IQUANT	1	Current Convention
ICHRANGE	IQUANT	2	Ich Range
ICHRANGEMODE	TOGGLE	F	Ich Auto Range
ICHOFFSETENABLE	TOGGLE	T	Ich Offset Enable
ICHOFFSET	QUANT	0	Ich Offset (V)
ICHFILTER	IQUANT	3	Ich Filter
VCHRANGE	IQUANT	2	Vch Range
VCHRANGEMODE	TOGGLE	F	Vch Auto Range
VCHOFFSETENABLE	TOGGLE	T	Vch Offset Enable
VCHOFFSET	QUANT	0	Vch Offset (V)
VCHFILTER	IQUANT	3	Vch Filter
ACHRANGE	IQUANT	2	Ach Range
ACHOFFSETENABLE	TOGGLE	F	Ach Offset Enable
ACHOFFSET	QUANT	0	Ach Offset (V)
ACHFILTER	IQUANT	3	Ach Filter
IERANGELOWERLIMIT	IQUANT	1	I/E Range Lower Limit
IERANGEMODE	TOGGLE	F	I/E AutoRange
IERANGE	IQUANT	4	I/E Range
POSFEEDENABLE	TOGGLE	F	Positive Feedback IR Comp
POSFEEDRESISTANCE	QUANT	0	Positive Feedback Resistance (ohm)
ACHSELECT	IQUANT	0	Ach Select
CABLEID	IQUANT	14	Cable ID
DCCALDATE	LABEL	8/19/2019	DC Calibration Date
ACCALDATE	LABEL	8/19/2019	AC Calibration Date
THERMOSELECT	IQUANT	1	Thermo Select
FRAMEWORKVERSION	QUANT	6.33	Framework Version
INSTRUMENTVERSION	LABEL	3.50	Instrument Version
ZCURVE	TABLE
	Pt	Time	Freq	Zreal	Zimag	Zsig	Zmod	Zphz	Idc	Vdc	IERange
	#	s	Hz	ohm	ohm	V	ohm	°	A	V	#
	0	1	1000078	2707.003	-1776.096	1	3237.65	-33.26934	4.992719E-006	0.0063978	8
	1	3	794390.6	3061.191	-1659.326	1	3481.99	-28.46001	-5.13457E-006	0.0074503	8
	2	4	630984.4	3364.427	-1523.779	1	3693.409	-24.3662	2.504302E-006	0.0063327	8
	3	6	501234.4	3596.187	-1346.617	1	3840.043	-20.52876	1.280993E-007	0.0065594	8
	4	7	398109.4	3800.636	-1170.117	1	3976.683	-17.11224	-5.346054E-007	0.0067075	8
	5	9	316265.6	3938.955	-1014.948	1	4067.614	-14.44906	2.357469E-006	0.006142	8
	6	10	251203.1	4061.152	-866.845	1	4152.635	-12.04886	2.862465E-007	0.0065025	8
	7	12	199546.9	4132.238	-741.65	1	4198.266	-10.17506	-2.816565E-007	0.0064963	8
	8	13	158578.1	4203.5	-653.0482	1	4253.925	-8.830775	-3.790337E-006	0.0073421	8
	9	15	125953.1	4279.051	-493.6358	1	4307.43	-6.580612	-1.339871E-006	0.0097256	7
	10	16	100078.1	4301.74	-441.5641	1	4324.344	-5.860758	6.996031E-008	0.0063854	7
	11	17	79453.13	4334.618	-403.4436	1	4353.353	-5.317472	4.635794E-009	0.0064564	7
	12	19	63140.62	4363.29	-382.804	1	4380.05	-5.013886	-5.244699E-008	0.0065636	7
	13	20	50203.12	4394.469	-370.024	1	4410.02	-4.813078	-1.290725E-008	0.006595	7
	14	21	39890.62	4418.742	-365.1012	1	4433.799	-4.723369	-1.26713E-008	0.0065985	7
	15	23	31640.63	4452.062	-373.2714	1	4467.682	-4.792604	1.487936E-008	0.0065945	7
	16	24	25171.88	4481.612	-387.9678	1	4498.374	-4.947693	-3.940458E-008	0.0066273	7
	17	26	20015.62	4522.64	-412.1963	1	4541.385	-5.207587	1.710778E-008	0.0064458	7
	18	27	15890.62	4547.842	-448.1735	1	4569.872	-5.628121	-5.681634E-008	0.0066256	7
	19	28	12609.37	4583.79	-494.0004	1	4610.332	-6.151093	-1.108197E-008	0.0066162	7
	20	30	10078.13	4619.346	-555.788	1	4652.661	-6.860704	1.566072E-008	0.0064424	7
	21	31	8015.625	4656.553	-638.2113	1	4700.085	-7.804142	5.37027E-009	0.0065299	7
	22	32	6328.125	4703.837	-732.4098	1	4760.515	-8.850162	9.658113E-008	0.0063558	7
	23	34	5015.625	4751.313	-852.2928	1	4827.149	-10.16959	2.554019E-008	0.0065045	7
	24	35	3984.375	4804.849	-1002.72	1	4908.362	-11.78783	-4.695875E-008	0.0065501	7
	25	36	3170.956	4862.256	-1185.405	1	5004.669	-13.70128	5.349931E-009	0.0064415	7
	26	38	2527.573	4922.029	-1408.454	1	5119.581	-15.96864	5.60209E-008	0.0065223	7
	27	39	1976.103	5005.904	-1707.447	1	5289.087	-18.83382	1.340416E-008	0.0065936	7
	28	41	1577.524	5098.049	-2066.099	1	5500.806	-22.06136	4.146646E-009	0.0065324	7
	29	42	1265.625	5180.19	-2449.476	1	5730.122	-25.30733	5.587462E-009	0.0065272	7
	30	43	998.264	5298.625	-2981.108	1	6079.673	-29.36294	5.158089E-008	0.0063644	7
	31	45	796.875	5425.049	-3604.667	1	6513.431	-33.60201	-4.252819E-008	0.0066275	7
	32	46	627.7902	5585.124	-4418.388	1	7121.5	-38.3475	3.697095E-009	0.0065292	7
	33	47	505.5147	5754.021	-5329.789	1	7843.175	-42.80808	-1.271177E-008	0.0066177	7
	34	49	397.9953	5983.344	-6559.631	1	8878.579	-47.6306	3.094558E-009	0.0065368	7
	35	50	315.5048	6254.14	-8044.15	1	10189.34	-52.13576	2.047211E-009	0.0064777	6
	36	52	252.4038	6569.337	-9804.96	1	11802.27	-56.17786	4.483889E-010	0.0064748	6
	37	53	198.6229	6993.202	-12134.3	1	14005.22	-60.04443	1.009432E-009	0.0064737	6
	38	54	158.3615	7503.464	-14864.54	1	16651.02	-63.21583	-8.582569E-011	0.0064712	6
	39	56	125.558	8176.084	-18287.25	1	20031.77	-65.91096	1.097126E-009	0.0064732	6
	40	57	100.4464	9016.198	-22308.91	1	24061.98	-67.99378	-7.285595E-010	0.0064742	6
	41	58	79.00281	10257.01	-27757.72	1	29592.19	-69.71976	1.443678E-010	0.0064678	6
	42	60	63.3446	11913.45	-34134.03	1	36153.32	-70.76	-3.859094E-010	0.0064687	6
	43	61	49.86702	13354.47	-41372.86	1	43474.76	-72.11079	1.352204E-009	0.0064699	6
	44	63	39.72458	16267.46	-50659.77	1	53207.54	-72.19755	6.413732E-010	0.006474	6
	45	64	31.6723	19999.7	-61323.01	1	64501.93	-71.93694	1.638233E-009	0.0064756	6
	46	65	24.93351	24631.18	-75425.91	1	79345.84	-71.91497	4.21642E-010	0.0064704	6
	47	67	19.86229	30926.25	-91062.66	1	96170.9	-71.24174	8.59816E-010	0.0064818	6
	48	68	15.83615	39493.11	-107644.4	1	114660.5	-69.85267	2.31663E-009	0.0064755	5
	49	70	12.40079	48998.14	-134398.1	1	143051.3	-69.96942	-1.332349E-009	0.0064791	5
	50	71	9.93114	63560.89	-156891.7	1	169277.8	-67.94585	9.304935E-010	0.0064763	5
	51	73	7.944915	79118.95	-185301.7	1	201485.8	-66.87879	2.388796E-010	0.0064743	5
	52	74	6.317385	101098.8	-216675	1	239100.5	-64.98663	6.891326E-010	0.0064673	5
	53	76	5.008013	127959.1	-252739.1	1	283285.4	-63.1474	3.104708E-010	0.0064838	5
	54	79	3.945707	160816.3	-293278.6	1	334476	-61.2623	-2.449115E-010	0.006466	5
	55	82	3.158693	197221	-333097.1	1	387104.4	-59.37096	3.427215E-010	0.0064925	5
	56	85	2.504006	240714.8	-378464.4	1	448529.7	-57.54241	-3.146756E-010	0.006483	5
	57	88	1.998082	286945.5	-424036.5	1	512000.7	-55.91379	-5.813424E-012	0.0064402	5
	58	91	1.584686	337274.2	-474725.4	1	582338.4	-54.60767	-4.061966E-011	0.0065019	5
	59	95	1.266892	390325.9	-531178.7	1	659170	-53.69045	-3.251222E-011	0.0064424	5
	60	99	0.999041	448913.3	-597347.9	1	747226.6	-53.07475	1.912691E-010	0.0065216	5
