EXPLAIN
TAG	EISPOT
TITLE	LABEL	Potentiostatic EIS	Test &Identifier
DATE	LABEL	10/26/2019	Date
TIME	LABEL	10:56:00	Time
NOTES	NOTES	1	&Notes...
	
PSTAT	PSTAT	REF600-11020	Potentiostat
VDC	POTEN	0.00000E+000	T	DC &Voltage (V)
FREQINIT	QUANT	1.00000E+006	Initial Fre&q. (Hz)
FREQFINAL	QUANT	1.00000E+000	Final Fre&q. (Hz)
PTSPERDEC	QUANT	1.00000E+001	Points/&decade
VAC	QUANT	2.50000E+001	AC &Voltage (mV rms)
AREA	QUANT	1.00000E-002	&Area (cm^2)
CONDIT	TWOPARAM	T	5.00000E+000	0.00000E+000	Conditionin&g	Time(s)	E(V)
DELAY	TWOPARAM	T	5.00000E+000	0.00000E+000	Init. De&lay	Time(s)	Stab.(mV/s)
SPEED	SELECTOR	0	&Optimize for:
ZGUESS	QUANT	1.00000E+005	E&stimated Z (ohms)
OCVCURVE	TABLE	19
	Pt	T	Vf	Vm	Ach	Over
	#	s	V vs. Ref.	V	V	bits
	0	0.258333	7.80199E-003	7.80199E-003	5.50033E-004	...........
	1	0.516667	7.80212E-003	7.80882E-003	5.51066E-004	...........
	2	0.775	7.80429E-003	7.88715E-003	5.50533E-004	...........
	3	1.03333	7.81627E-003	8.02834E-003	5.50899E-004	...........
	4	1.29167	7.85189E-003	8.15686E-003	5.44299E-004	...........
	5	1.55	7.92159E-003	8.28931E-003	5.48833E-004	...........
	6	1.80833	8.02360E-003	8.44445E-003	5.45966E-004	...........
	7	2.06667	8.14757E-003	8.56290E-003	5.43966E-004	...........
	8	2.325	8.28206E-003	8.68462E-003	5.47433E-004	...........
	9	2.58333	8.41785E-003	8.82101E-003	5.40266E-004	...........
	10	2.84167	8.55002E-003	8.92582E-003	5.52999E-004	...........
	11	3.1	8.67759E-003	9.04879E-003	5.50199E-004	...........
	12	3.35833	8.80100E-003	9.17379E-003	5.52733E-004	...........
	13	3.61667	8.92142E-003	9.27353E-003	5.46999E-004	...........
	14	3.875	9.03987E-003	9.40108E-003	5.46599E-004	...........
	15	4.13333	9.15678E-003	9.51576E-003	5.47833E-004	...........
	16	4.39167	9.27273E-003	9.61554E-003	5.45299E-004	...........
	17	4.65	9.38767E-003	9.73558E-003	5.56566E-004	...........
	18	4.90833	9.50083E-003	9.83701E-003	5.53566E-004	...........
EOC	QUANT	0.0095008	Open Circuit (V)
PSTATMODEL	IQUANT	4	Pstat Model
PSTATSECTION	LABEL	REF600-11020	Pstat Section
PSTATSERIALNO	LABEL	11020	Pstat Serial Number
CTRLMODE	IQUANT	1	Control Mode
IESTAB	IQUANT	0	I/E Stability
CASPEED	IQUANT	1	Control Amp Speed
CONVENTION	IQUANT	1	Current Convention
ICHRANGE	IQUANT	2	Ich Range
ICHRANGEMODE	TOGGLE	F	Ich Auto Range
ICHOFFSETENABLE	TOGGLE	T	Ich Offset Enable
ICHOFFSET	QUANT	0	Ich Offset (V)
ICHFILTER	IQUANT	3	Ich Filter
VCHRANGE	IQUANT	2	Vch Range
VCHRANGEMODE	TOGGLE	F	Vch Auto Range
VCHOFFSETENABLE	TOGGLE	T	Vch Offset Enable
VCHOFFSET	QUANT	0	Vch Offset (V)
VCHFILTER	IQUANT	3	Vch Filter
ACHRANGE	IQUANT	2	Ach Range
ACHOFFSETENABLE	TOGGLE	F	Ach Offset Enable
ACHOFFSET	QUANT	0	Ach Offset (V)
ACHFILTER	IQUANT	3	Ach Filter
IERANGELOWERLIMIT	IQUANT	1	I/E Range Lower Limit
IERANGEMODE	TOGGLE	F	I/E AutoRange
IERANGE	IQUANT	5	I/E Range
POSFEEDENABLE	TOGGLE	F	Positive Feedback IR Comp
POSFEEDRESISTANCE	QUANT	0	Positive Feedback Resistance (ohm)
ACHSELECT	IQUANT	0	Ach Select
CABLEID	IQUANT	14	Cable ID
DCCALDATE	LABEL	8/19/2019	DC Calibration Date
ACCALDATE	LABEL	8/19/2019	AC Calibration Date
THERMOSELECT	IQUANT	1	Thermo Select
FRAMEWORKVERSION	QUANT	6.33	Framework Version
INSTRUMENTVERSION	LABEL	3.50	Instrument Version
ZCURVE	TABLE
	Pt	Time	Freq	Zreal	Zimag	Zsig	Zmod	Zphz	Idc	Vdc	IERange
	#	s	Hz	ohm	ohm	V	ohm	°	A	V	#
	0	2	1000078	1878.265	-727.3439	1	2014.177	-21.16851	3.376404E-006	0.0112065	8
	1	2	794390.6	1985.897	-657.73	1	2091.984	-18.32489	-1.313477E-006	0.0114939	8
	2	2	630984.4	2073.199	-590.0339	1	2155.526	-15.88639	3.17384E-006	0.0106745	8
	3	3	501234.4	2139.106	-528.8957	1	2203.521	-13.8879	-3.100071E-006	0.0115524	8
	4	3	398109.4	2200.162	-478.8767	1	2251.674	-12.27921	3.771117E-006	0.0105422	8
	5	3	316265.6	2246.578	-439.774	1	2289.217	-11.07576	6.959009E-007	0.0108483	8
	6	4	251203.1	2289.722	-405.6735	1	2325.381	-10.04692	9.513024E-007	0.0107515	8
	7	4	199546.9	2326.033	-386.1562	1	2357.869	-9.425984	3.208411E-006	0.0105594	8
	8	4	158578.1	2366.405	-381.9746	1	2397.035	-9.169343	7.918326E-007	0.0108605	8
	9	5	125953.1	2413.233	-345.2157	1	2437.8	-8.140994	-5.658823E-007	0.0128602	7
	10	5	100078.1	2447.45	-347.4474	1	2471.99	-8.079892	-1.041652E-008	0.0110882	7
	11	5	79453.13	2484.619	-366.8107	1	2511.55	-8.39806	-3.34978E-008	0.0110879	7
	12	5	63140.62	2525.237	-391.6762	1	2555.431	-8.816593	3.150799E-008	0.010945	7
	13	6	50203.12	2570.452	-420.7999	1	2604.668	-9.297225	2.200519E-008	0.0110232	7
	14	6	39890.62	2620.972	-455.1584	1	2660.2	-9.85174	5.994004E-008	0.0110162	7
	15	6	31640.63	2674.52	-495.028	1	2719.947	-10.48623	2.390713E-008	0.0110282	7
	16	7	25171.88	2732.589	-539.5085	1	2785.339	-11.16855	2.462131E-008	0.0110276	7
	17	7	20015.62	2794.197	-591.2045	1	2856.056	-11.94662	-5.762113E-008	0.0111402	7
	18	7	15890.62	2860.005	-651.3591	1	2933.24	-12.83013	3.114096E-008	0.0109415	7
	19	8	12609.37	2929.155	-722.7692	1	3017.009	-13.86086	-3.205986E-008	0.0110623	7
	20	8	10078.13	3000.396	-804.5995	1	3106.406	-15.0115	-3.236455E-008	0.0110589	7
	21	8	8015.625	3082.04	-901.0086	1	3211.041	-16.29584	3.716899E-009	0.0110002	7
	22	9	6328.125	3164.903	-1028.503	1	3327.826	-18.00268	5.664019E-009	0.0110005	7
	23	9	5015.625	3258.55	-1175.021	1	3463.931	-19.82911	-1.365576E-008	0.0110298	7
	24	9	3984.375	3363.069	-1357.021	1	3626.533	-21.9744	-2.347432E-008	0.0110555	7
	25	10	3170.956	3467.368	-1555.674	1	3800.363	-24.16394	-3.00705E-008	0.0111048	7
	26	10	2527.573	3585.728	-1801.443	1	4012.81	-26.67462	-3.547438E-008	0.0110704	7
	27	10	1976.103	3722.246	-2124.681	1	4285.952	-29.71799	-4.397552E-008	0.0111667	7
	28	11	1577.524	3852.633	-2486.987	1	4585.617	-32.84342	5.257669E-008	0.0109485	7
	29	11	1265.625	4004.919	-2917.15	1	4954.709	-36.06928	-2.440568E-008	0.0110506	7
	30	11	998.264	4176.352	-3490.481	1	5442.919	-39.88796	-1.301126E-008	0.0110778	7
	31	12	796.875	4353.997	-4164.337	1	6024.864	-43.72453	-1.13617E-008	0.0111385	7
	32	12	627.7902	4578.725	-5043.755	1	6812.062	-47.76681	-3.521011E-008	0.0110644	7
	33	12	505.5147	4816.413	-6033.206	1	7719.935	-51.39902	-1.457655E-008	0.01107	7
	34	13	397.9953	5150.123	-7372.269	1	8993.004	-55.0626	9.859109E-010	0.0110654	7
	35	13	315.5048	5554.773	-8982.066	1	10560.92	-58.26614	9.911317E-010	0.0109998	6
	36	13	252.4038	6043.268	-10873.85	1	12440.33	-60.93638	2.548453E-011	0.010999	6
	37	14	198.6229	6728.423	-13356.45	1	14955.48	-63.26293	2.423412E-010	0.0110002	6
	38	14	158.3615	7579.277	-16214.93	1	17898.86	-64.9474	1.619566E-011	0.0109983	6
	39	14	125.558	8720.712	-19741.1	1	21581.52	-66.16636	8.443274E-012	0.0109967	6
	40	14	100.4464	10166.75	-23758.87	1	25842.73	-66.83324	-5.450634E-010	0.0109938	6
	41	15	79.00281	12269.18	-28964.6	1	31456.02	-67.04287	-8.799808E-010	0.0109934	6
	42	15	63.3446	14408.43	-35034.98	1	37882.09	-67.64468	8.029906E-010	0.0109943	6
	43	16	49.86702	17885.16	-42032	1	45678.96	-66.94962	5.281851E-011	0.0109923	6
	44	16	39.72458	22420.63	-49706.9	1	54529.45	-65.72193	1.315399E-010	0.0109976	6
	45	16	31.6723	27888.42	-58376	1	64695.61	-64.46443	7.727212E-010	0.0109948	6
	46	17	24.93351	34679.29	-69045.52	1	77265.38	-63.33113	-1.070298E-009	0.0109945	6
	47	17	19.86229	42786.45	-80341.44	1	91024.32	-61.96212	-2.601994E-009	0.0109924	6
	48	17	15.83615	53966.61	-92219.34	1	106849.4	-59.6639	2.896068E-009	0.0109961	5
	49	17	12.40079	64481.15	-105862.9	1	123954.7	-58.65438	7.55683E-011	0.0110049	5
	50	18	9.93114	77484.05	-120010.8	1	142850.8	-57.15199	2.223892E-010	0.0110019	5
	51	18	7.944915	90718.52	-135118.6	1	162747.9	-56.12261	-9.628636E-010	0.0110056	5
	52	19	6.317385	105587.6	-151664.8	1	184799.8	-55.15474	-5.700162E-010	0.0110129	5
	53	20	5.008013	121247.6	-171332.9	1	209895.1	-54.71402	-1.078089E-010	0.0110062	5
	54	21	3.945707	138137.3	-194879.6	1	238872.3	-54.66969	-2.601596E-010	0.0109925	5
	55	22	3.158693	154831.4	-222203.5	1	270826.8	-55.13123	-4.565723E-011	0.0109963	5
	56	24	2.504006	173245.4	-256339.4	1	309392.7	-55.94745	-1.000748E-010	0.0109985	5
	57	25	1.998082	193403.9	-296845.8	1	354291.5	-56.91456	-3.368633E-010	0.0109511	5
	58	27	1.584686	215754.6	-347310.8	1	408870.3	-58.15084	-2.232414E-010	0.0109766	5
	59	29	1.266892	242252.8	-405758.3	1	472574	-59.16123	-1.373099E-010	0.0110122	5
	60	31	0.999041	275951.7	-481785.6	1	555217.8	-60.19727	-1.033128E-010	0.01103	5
