EXPLAIN
TAG	EISPOT
TITLE	LABEL	Potentiostatic IDE	Test &Identifier
DATE	LABEL	9/4/2019	Date
TIME	LABEL	12:03:57	Time
NOTES	NOTES	1	&Notes...
	
PSTAT	PSTAT	REF600-11020	Potentiostat
VDC	POTEN	0.00000E+000	T	DC &Voltage (V)
FREQINIT	QUANT	1.00000E+006	Initial Fre&q. (Hz)
FREQFINAL	QUANT	1.00000E+000	Final Fre&q. (Hz)
PTSPERDEC	QUANT	1.00000E+001	Points/&decade
VAC	QUANT	2.50000E+001	AC &Voltage (mV rms)
AREA	QUANT	1.00000E-002	&Area (cm^2)
CONDIT	TWOPARAM	T	5.00000E+000	0.00000E+000	Conditionin&g	Time(s)	E(V)
DELAY	TWOPARAM	T	5.00000E+000	0.00000E+000	Init. De&lay	Time(s)	Stab.(mV/s)
SPEED	SELECTOR	1	&Optimize for:
ZGUESS	QUANT	1.00000E+007	E&stimated Z (ohms)
OCVCURVE	TABLE	19
	Pt	T	Vf	Vm	Ach	Over
	#	s	V vs. Ref.	V	V	bits
	0	0.258333	6.94023E-002	6.94023E-002	5.73132E-004	...........
	1	0.516667	6.94117E-002	6.98939E-002	5.73066E-004	...........
	2	0.775	6.94712E-002	7.04582E-002	5.70166E-004	...........
	3	1.03333	6.96472E-002	7.10647E-002	5.69466E-004	...........
	4	1.29167	6.99802E-002	7.16863E-002	5.70066E-004	...........
	5	1.55	7.04543E-002	7.23139E-002	5.68299E-004	...........
	6	1.80833	7.10196E-002	7.29151E-002	5.70132E-004	...........
	7	2.06667	7.16279E-002	7.35288E-002	5.68966E-004	...........
	8	2.325	7.22475E-002	7.41159E-002	5.68699E-004	...........
	9	2.58333	7.28628E-002	7.46930E-002	5.69366E-004	...........
	10	2.84167	7.34673E-002	7.52389E-002	5.73666E-004	...........
	11	3.1	7.40576E-002	7.57914E-002	5.72532E-004	...........
	12	3.35833	7.46319E-002	7.63102E-002	5.69566E-004	...........
	13	3.61667	7.51901E-002	7.68165E-002	5.69099E-004	...........
	14	3.875	7.57319E-002	7.72999E-002	5.66099E-004	...........
	15	4.13333	7.62563E-002	7.77790E-002	5.67299E-004	...........
	16	4.39167	7.67646E-002	7.82975E-002	5.67699E-004	...........
	17	4.65	7.72636E-002	7.88585E-002	5.68199E-004	...........
	18	4.90833	7.77615E-002	7.91599E-002	5.70899E-004	...........
EOC	QUANT	0.0777615	Open Circuit (V)
PSTATMODEL	IQUANT	4	Pstat Model
PSTATSECTION	LABEL	REF600-11020	Pstat Section
PSTATSERIALNO	LABEL	11020	Pstat Serial Number
CTRLMODE	IQUANT	1	Control Mode
IESTAB	IQUANT	0	I/E Stability
CASPEED	IQUANT	1	Control Amp Speed
CONVENTION	IQUANT	1	Current Convention
ICHRANGE	IQUANT	2	Ich Range
ICHRANGEMODE	TOGGLE	F	Ich Auto Range
ICHOFFSETENABLE	TOGGLE	T	Ich Offset Enable
ICHOFFSET	QUANT	0	Ich Offset (V)
ICHFILTER	IQUANT	3	Ich Filter
VCHRANGE	IQUANT	2	Vch Range
VCHRANGEMODE	TOGGLE	F	Vch Auto Range
VCHOFFSETENABLE	TOGGLE	T	Vch Offset Enable
VCHOFFSET	QUANT	0	Vch Offset (V)
VCHFILTER	IQUANT	3	Vch Filter
ACHRANGE	IQUANT	2	Ach Range
ACHOFFSETENABLE	TOGGLE	F	Ach Offset Enable
ACHOFFSET	QUANT	0	Ach Offset (V)
ACHFILTER	IQUANT	3	Ach Filter
IERANGELOWERLIMIT	IQUANT	1	I/E Range Lower Limit
IERANGEMODE	TOGGLE	F	I/E AutoRange
IERANGE	IQUANT	4	I/E Range
POSFEEDENABLE	TOGGLE	F	Positive Feedback IR Comp
POSFEEDRESISTANCE	QUANT	0	Positive Feedback Resistance (ohm)
ACHSELECT	IQUANT	0	Ach Select
CABLEID	IQUANT	14	Cable ID
DCCALDATE	LABEL	8/19/2019	DC Calibration Date
ACCALDATE	LABEL	8/19/2019	AC Calibration Date
THERMOSELECT	IQUANT	1	Thermo Select
FRAMEWORKVERSION	QUANT	6.33	Framework Version
INSTRUMENTVERSION	LABEL	3.50	Instrument Version
ZCURVE	TABLE
	Pt	Time	Freq	Zreal	Zimag	Zsig	Zmod	Zphz	Idc	Vdc	IERange
	#	s	Hz	ohm	ohm	V	ohm	°	A	V	#
	0	2	1000078	2270.561	-2267.324	1	3208.771	-44.95913	1.046179E-005	0.0795931	8
	1	3	794390.6	2739.154	-2275.191	1	3560.823	-39.71365	1.068879E-005	0.0787879	8
	2	5	630984.4	3250.823	-2211.372	1	3931.669	-34.22549	1.208245E-005	0.0786243	8
	3	6	501234.4	3651.128	-2079.126	1	4201.607	-29.65925	1.15166E-005	0.0785091	8
	4	8	398109.4	3978.74	-1909.607	1	4413.272	-25.6388	1.111217E-005	0.0785215	8
	5	10	316265.6	4222.623	-1691.24	1	4548.718	-21.82703	9.698943E-006	0.0789181	8
	6	11	251203.1	4486.839	-1589.642	1	4760.114	-19.50872	8.689396E-006	0.0791103	8
	7	13	199546.9	4634.193	-1427.448	1	4849.057	-17.12015	1.149058E-005	0.0785866	8
	8	14	158578.1	4768.059	-1351.962	1	4956.025	-15.83045	8.774873E-006	0.0790643	8
	9	16	125953.1	4887.247	-1271.483	1	5049.936	-14.58299	3.006518E-007	0.0801593	7
	10	17	100078.1	4999.011	-1221.047	1	5145.976	-13.72617	9.137034E-007	0.0790117	7
	11	19	79453.13	5101.927	-1220.477	1	5245.877	-13.4534	8.971136E-007	0.0791403	7
	12	20	63140.62	5201.774	-1265.198	1	5353.427	-13.67028	8.97273E-007	0.0790343	7
	13	21	50203.12	5307.109	-1338.503	1	5473.299	-14.15533	9.033832E-007	0.0790357	7
	14	23	39890.62	5410.833	-1446.607	1	5600.874	-14.96817	9.196823E-007	0.0790436	7
	15	24	31640.63	5538.065	-1599.261	1	5764.356	-16.10745	9.644619E-007	0.0789238	7
	16	25	25171.88	5670.45	-1791.122	1	5946.605	-17.52974	9.244845E-007	0.0790038	7
	17	27	20015.62	5818.314	-2040.823	1	6165.853	-19.32875	9.013413E-007	0.0791337	7
	18	28	15890.62	6001.299	-2340.157	1	6441.423	-21.30288	8.92726E-007	0.0790625	7
	19	29	12609.37	6205.256	-2693.415	1	6764.591	-23.46343	9.314455E-007	0.0790659	7
	20	31	10078.13	6432.131	-3111.153	1	7145.039	-25.81256	8.989367E-007	0.0790728	7
	21	32	8015.625	6702.389	-3613.775	1	7614.551	-28.33253	8.992876E-007	0.0790271	7
	22	33	6328.125	7020.205	-4232.162	1	8197.224	-31.08386	9.539845E-007	0.0789544	7
	23	35	5015.625	7394.305	-4957.892	1	8902.608	-33.84191	9.182186E-007	0.0790465	7
	24	36	3984.375	7819.721	-5816.375	1	9745.68	-36.64219	9.006154E-007	0.0791253	7
	25	37	3170.956	8312.416	-6813.979	1	10748.33	-39.34268	8.98784E-007	0.079061	7
	26	39	2527.573	8892.839	-7981.191	1	11949.14	-41.90751	9.925568E-007	0.0789163	7
	27	40	1976.103	9637.94	-9477.199	1	13516.92	-44.5182	8.482926E-008	0.0790153	6
	28	41	1577.524	10438.87	-11106.01	1	15241.83	-46.77359	9.859382E-008	0.0788133	6
	29	43	1265.625	11358.27	-12989.51	1	17255.08	-48.83295	8.850988E-008	0.078934	6
	30	44	998.264	12510.67	-15362.12	1	19811.91	-50.84117	9.281721E-008	0.0789405	6
	31	45	796.875	13812.05	-18042.68	1	22722.48	-52.56519	9.323425E-008	0.0788579	6
	32	47	627.7902	15450.31	-21376.81	1	26375.75	-54.14209	9.531495E-008	0.0789278	6
	33	48	505.5147	17131.41	-24923.39	1	30243.36	-55.49681	9.158625E-008	0.0788464	6
	34	49	397.9953	19444.8	-29556.08	1	35378.84	-56.65928	9.146762E-008	0.0786095	6
	35	51	315.5048	22045.97	-34856.86	1	41243.49	-57.68782	9.14539E-008	0.078607	6
	36	52	252.4038	24983.16	-40849.11	1	47883.28	-58.5502	9.169123E-008	0.0786069	6
	37	53	198.6229	28698.29	-48419.86	1	56285.65	-59.34492	9.142733E-008	0.0786092	6
	38	55	158.3615	32849.51	-56879.2	1	65683.59	-59.99223	9.156262E-008	0.0786057	6
	39	56	125.558	37815.13	-67070.57	1	76996.4	-60.58521	9.157101E-008	0.078611	6
	40	57	100.4464	43488.37	-78398.88	1	89652.79	-60.98259	9.196209E-008	0.0786089	6
	41	59	79.00281	50908.3	-93130.11	1	106136.1	-61.33738	9.126489E-008	0.0786069	6
	42	60	63.3446	59925.1	-109221.8	1	124580.9	-61.24839	9.15662E-008	0.0786103	6
	43	62	49.86702	67036.11	-129020.4	1	145396.4	-62.54463	8.881598E-009	0.0786078	5
	44	63	39.72458	78993.84	-150970.8	1	170388.4	-62.37967	9.379838E-009	0.0786127	5
	45	64	31.6723	90706.67	-177238.1	1	199100.6	-62.8976	9.228441E-009	0.0786156	5
	46	66	24.93351	106558.1	-209956.5	1	235449.2	-63.09109	9.284269E-009	0.0786126	5
	47	67	19.86229	122824.7	-246807.5	1	275680.8	-63.54259	9.372046E-009	0.0786195	5
	48	68	15.83615	139093	-289090	1	320811.3	-64.30589	9.784523E-009	0.0786136	5
	49	70	12.40079	169972	-347971.6	1	387265.7	-63.9661	9.74111E-009	0.0786125	5
	50	71	9.93114	192688.2	-408762.2	1	451901.8	-64.76107	9.45662E-009	0.0786079	5
	51	73	7.944915	222200.7	-485138.2	1	533603.1	-65.3915	9.233988E-009	0.0786205	5
	52	74	6.317385	258092.6	-573880.7	1	629246.3	-65.78502	9.333134E-009	0.0786133	5
	53	76	5.008013	301379	-686032.9	1	749313.4	-66.28378	9.182686E-008	0.0786133	6
	54	79	3.945707	356550.2	-821090.6	1	895163.6	-66.5276	9.171414E-009	0.0786204	5
	55	82	3.158693	419304.6	-974625	1	1060995	-66.72158	9.189858E-009	0.0786163	5
	56	86	2.504006	498492.1	-1164495	1	1266705	-66.8254	9.176463E-009	0.0788862	5
	57	88	1.998082	595197.5	-1383483	1	1506083	-66.72182	9.20761E-010	0.0789287	4
	58	91	1.584686	716039.6	-1653527	1	1801906	-66.58557	9.706861E-010	0.0789304	4
	59	95	1.266892	865813.2	-1951397	1	2134850	-66.07368	9.185241E-010	0.0789328	4
	60	99	0.999041	1067126	-2320178	1	2553817	-65.30074	1.01562E-009	0.0788723	4
