EXPLAIN
TAG	EISPOT
TITLE	LABEL	Potentiostatic EIS	Test &Identifier
DATE	LABEL	11/13/2019	Date
TIME	LABEL	0:02:06	Time
NOTES	NOTES	3	&Notes...
	
	
	
PSTAT	PSTAT	REF600-11020	Potentiostat
VDC	POTEN	0.00000E+000	T	DC &Voltage (V)
FREQINIT	QUANT	1.00000E+006	Initial Fre&q. (Hz)
FREQFINAL	QUANT	1.00000E+000	Final Fre&q. (Hz)
PTSPERDEC	QUANT	1.00000E+001	Points/&decade
VAC	QUANT	2.50000E+001	AC &Voltage (mV rms)
AREA	QUANT	1.00000E-002	&Area (cm^2)
CONDIT	TWOPARAM	T	5.00000E+000	0.00000E+000	Conditionin&g	Time(s)	E(V)
DELAY	TWOPARAM	T	5.00000E+000	0.00000E+000	Init. De&lay	Time(s)	Stab.(mV/s)
SPEED	SELECTOR	1	&Optimize for:
ZGUESS	QUANT	1.00000E+005	E&stimated Z (ohms)
OCVCURVE	TABLE	19
	Pt	T	Vf	Vm	Ach	Over
	#	s	V vs. Ref.	V	V	bits
	0	0.258333	1.06013E-002	1.06013E-002	5.56733E-004	...........
	1	0.516667	1.06032E-002	1.06988E-002	5.53499E-004	...........
	2	0.775	1.06148E-002	1.08002E-002	5.60266E-004	...........
	3	1.03333	1.06485E-002	1.09115E-002	5.56499E-004	...........
	4	1.29167	1.07112E-002	1.10281E-002	5.59532E-004	...........
	5	1.55	1.07994E-002	1.11421E-002	5.50966E-004	...........
	6	1.80833	1.09040E-002	1.12509E-002	5.56566E-004	...........
	7	2.06667	1.10157E-002	1.13498E-002	5.56899E-004	...........
	8	2.325	1.11279E-002	1.14591E-002	5.61466E-004	...........
	9	2.58333	1.12373E-002	1.15517E-002	5.57566E-004	...........
	10	2.84167	1.13432E-002	1.16593E-002	5.57432E-004	...........
	11	3.1	1.14462E-002	1.17509E-002	5.58466E-004	...........
	12	3.35833	1.15474E-002	1.18550E-002	5.55633E-004	...........
	13	3.61667	1.16473E-002	1.19488E-002	5.63332E-004	...........
	14	3.875	1.17461E-002	1.20416E-002	5.64166E-004	...........
	15	4.13333	1.18437E-002	1.21350E-002	5.56899E-004	...........
	16	4.39167	1.19395E-002	1.22173E-002	5.59499E-004	...........
	17	4.65	1.20328E-002	1.22989E-002	5.59666E-004	...........
	18	4.90833	1.21227E-002	1.23864E-002	5.58599E-004	...........
EOC	QUANT	0.0121227	Open Circuit (V)
PSTATMODEL	IQUANT	4	Pstat Model
PSTATSECTION	LABEL	REF600-11020	Pstat Section
PSTATSERIALNO	LABEL	11020	Pstat Serial Number
CTRLMODE	IQUANT	1	Control Mode
IESTAB	IQUANT	0	I/E Stability
CASPEED	IQUANT	1	Control Amp Speed
CONVENTION	IQUANT	1	Current Convention
ICHRANGE	IQUANT	2	Ich Range
ICHRANGEMODE	TOGGLE	F	Ich Auto Range
ICHOFFSETENABLE	TOGGLE	T	Ich Offset Enable
ICHOFFSET	QUANT	0	Ich Offset (V)
ICHFILTER	IQUANT	3	Ich Filter
VCHRANGE	IQUANT	2	Vch Range
VCHRANGEMODE	TOGGLE	F	Vch Auto Range
VCHOFFSETENABLE	TOGGLE	T	Vch Offset Enable
VCHOFFSET	QUANT	0	Vch Offset (V)
VCHFILTER	IQUANT	3	Vch Filter
ACHRANGE	IQUANT	2	Ach Range
ACHOFFSETENABLE	TOGGLE	F	Ach Offset Enable
ACHOFFSET	QUANT	0	Ach Offset (V)
ACHFILTER	IQUANT	3	Ach Filter
IERANGELOWERLIMIT	IQUANT	1	I/E Range Lower Limit
IERANGEMODE	TOGGLE	F	I/E AutoRange
IERANGE	IQUANT	5	I/E Range
POSFEEDENABLE	TOGGLE	F	Positive Feedback IR Comp
POSFEEDRESISTANCE	QUANT	0	Positive Feedback Resistance (ohm)
ACHSELECT	IQUANT	0	Ach Select
CABLEID	IQUANT	14	Cable ID
DCCALDATE	LABEL	8/19/2019	DC Calibration Date
ACCALDATE	LABEL	8/19/2019	AC Calibration Date
THERMOSELECT	IQUANT	1	Thermo Select
FRAMEWORKVERSION	QUANT	6.33	Framework Version
INSTRUMENTVERSION	LABEL	3.50	Instrument Version
ZCURVE	TABLE
	Pt	Time	Freq	Zreal	Zimag	Zsig	Zmod	Zphz	Idc	Vdc	IERange
	#	s	Hz	ohm	ohm	V	ohm	°	A	V	#
	0	2	1000078	2248.726	-1896.031	1	2941.378	-40.13618	3.638366E-006	0.0137789	8
	1	3	794390.6	2614.821	-1882.721	1	3222.1	-35.7546	3.424556E-006	0.0138389	8
	2	5	630984.4	2978.223	-1837.05	1	3499.224	-31.66743	-7.046218E-006	0.0146376	8
	3	6	501234.4	3304.544	-1740.007	1	3734.653	-27.76903	1.383297E-007	0.0140706	8
	4	7	398109.4	3591.472	-1621.471	1	3940.538	-24.29813	-6.533529E-007	0.0132971	8
	5	9	316265.6	3838.169	-1495.746	1	4119.32	-21.29101	7.454695E-007	0.0138953	8
	6	10	251203.1	4048.188	-1358.136	1	4269.937	-18.54621	6.956366E-007	0.013879	8
	7	11	199546.9	4213.808	-1248.049	1	4394.748	-16.49827	-1.252721E-006	0.0139114	8
	8	13	158578.1	4370.868	-1149.885	1	4519.593	-14.73935	-1.917392E-006	0.0136837	8
	9	14	125953.1	4489.011	-1009.391	1	4601.097	-12.67265	-9.994405E-007	0.0146126	7
	10	16	100078.1	4596.675	-969.358	1	4697.774	-11.90819	1.132099E-007	0.0121771	7
	11	17	79453.13	4694.5	-938.9581	1	4787.481	-11.31061	-1.058401E-006	0.015064	7
	12	18	63140.62	4786.456	-936.4862	1	4877.208	-11.07027	-8.662188E-007	0.0151203	7
	13	20	50203.12	4878.57	-951.958	1	4970.58	-11.04142	-1.010088E-006	0.0139882	7
	14	21	39890.62	4979.181	-990.876	1	5076.818	-11.25504	1.066216E-006	0.0123911	7
	15	22	31640.63	5078.819	-1044.754	1	5185.163	-11.62405	9.835036E-007	0.0127976	7
	16	24	25171.88	5185.518	-1121.745	1	5305.46	-12.20629	5.903781E-007	0.0136984	7
	17	25	20015.62	5301.974	-1222.251	1	5441.032	-12.98147	8.103158E-007	0.0132795	7
	18	27	15890.62	5421.904	-1341.155	1	5585.314	-13.89373	-5.991902E-007	0.0150329	7
	19	28	12609.37	5564.921	-1491.154	1	5761.24	-15.00036	-2.814594E-007	0.0148067	7
	20	29	10078.13	5717.957	-1649.238	1	5951.052	-16.08922	-7.048812E-007	0.0133403	7
	21	31	8015.625	5890.792	-1863.941	1	6178.649	-17.5582	-1.174367E-006	0.0145393	7
	22	32	6328.125	6099.56	-2108.023	1	6453.556	-19.06528	-1.057211E-006	0.0150583	7
	23	34	5015.625	6334.022	-2398.514	1	6772.939	-20.74025	8.074139E-007	0.0132707	7
	24	35	3984.375	6587.829	-2725.731	1	7129.453	-22.47745	9.837797E-007	0.0127991	7
	25	37	3170.956	6875.026	-3100.804	1	7541.948	-24.27653	8.091475E-007	0.0132757	7
	26	38	2527.573	7189.482	-3529.204	1	8008.991	-26.1457	-5.968084E-007	0.0150317	7
	27	39	1976.103	7603.884	-4079.981	1	8629.328	-28.21647	9.851231E-007	0.0127998	7
	28	41	1577.524	8032.445	-4656.554	1	9284.593	-30.10165	7.262409E-008	0.0144175	7
	29	42	1265.625	8472.5	-5295.596	1	9991.33	-32.00676	6.440891E-008	0.0109445	6
	30	44	998.264	9027.224	-6096.681	1	10893.13	-34.03376	-1.903698E-007	0.0162928	6
	31	45	796.875	9624.69	-6974.706	1	11886.18	-35.92964	-1.523595E-007	0.0163557	6
	32	46	627.7902	10329.37	-8044.67	1	13092.47	-37.91199	-1.070896E-007	0.0129906	6
	33	48	505.5147	11027.58	-9170.289	1	14342.31	-39.74615	-2.0426E-007	0.0158329	6
	34	49	397.9953	11848.15	-10622.11	1	15912.5	-41.87687	7.845933E-010	0.013446	6
	35	50	315.5048	12687.29	-12300.78	1	17671.35	-44.11382	1.0601E-009	0.013448	6
	36	52	252.4038	13520.26	-14248.86	1	19642.49	-46.50298	3.679388E-010	0.0134515	6
	37	53	198.6229	14455.7	-16826.6	1	22183.37	-49.33419	1.598917E-010	0.0134539	6
	38	55	158.3615	15393.78	-19853.59	1	25122.37	-52.21124	1.065839E-010	0.0134414	6
	39	56	125.558	16456.82	-23739.47	1	28885.8	-55.2693	3.820723E-010	0.0134518	6
	40	57	100.4464	17659.26	-28390.73	1	33434.76	-58.11806	6.843192E-010	0.0134502	6
	41	59	79.00281	19219.73	-34666.57	1	39637.97	-60.99527	4.199253E-010	0.0134446	6
	42	60	63.3446	20535.29	-41836.24	1	46604.39	-63.85592	5.696011E-011	0.0134374	6
	43	62	49.86702	23526.15	-50939.84	1	56110.13	-65.21053	-2.331549E-010	0.0134374	6
	44	63	39.72458	26569.8	-62284.59	1	67715.02	-66.89753	2.522599E-010	0.0134525	6
	45	64	31.6723	30915.11	-75586.96	1	81664.76	-67.75541	5.032902E-010	0.0134409	6
	46	66	24.93351	36915.39	-92829.3	1	99900.1	-68.31379	-1.996866E-010	0.0134514	6
	47	67	19.86229	44826.47	-112286.4	1	120903.5	-68.23735	-2.374506E-010	0.013459	5
	48	69	15.83615	54852.5	-134918	1	145642.2	-67.87521	-5.097673E-010	0.0134532	5
	49	70	12.40079	69240.3	-163717.8	1	177757.5	-67.0753	-4.576574E-010	0.0134443	5
	50	72	9.93114	88619.68	-192120.8	1	211574.7	-65.23751	-3.685649E-010	0.0134522	5
	51	73	7.944915	111340.8	-225295	1	251305.8	-63.70142	1.356676E-010	0.0134605	5
	52	75	6.317385	139735.9	-259505.6	1	294736	-61.69889	-3.860358E-010	0.0134634	5
	53	77	5.008013	174298.8	-297412.1	1	344723.2	-59.6275	-1.688492E-010	0.0134463	5
	54	79	3.945707	214139.4	-338450.7	1	400505.4	-57.67826	-7.560164E-011	0.0134531	5
	55	82	3.158693	254777.2	-378801.5	1	456510.7	-56.07571	7.966698E-011	0.0134492	5
	56	85	2.504006	299319.9	-424766.9	1	519633.9	-54.82885	-2.230366E-010	0.0134496	5
	57	88	1.998082	343447.7	-474809.7	1	586003.9	-54.12037	-4.282925E-011	0.0134052	5
	58	91	1.584686	389881	-534628.9	1	661691.2	-53.8984	-2.322656E-011	0.0134871	5
	59	95	1.266892	437100.2	-606976.2	1	747981.8	-54.24131	-9.274182E-011	0.0134279	5
	60	99	0.999041	492359.7	-699924.6	1	855752.6	-54.87566	1.448924E-010	0.0134802	5
