EXPLAIN
TAG	EISPOT
TITLE	LABEL	Potentiostatic EIS	Test &Identifier
DATE	LABEL	10/10/2019	Date
TIME	LABEL	10:26:49	Time
NOTES	NOTES	1	&Notes...
	
PSTAT	PSTAT	REF600-11020	Potentiostat
VDC	POTEN	0.00000E+000	T	DC &Voltage (V)
FREQINIT	QUANT	1.00000E+006	Initial Fre&q. (Hz)
FREQFINAL	QUANT	1.00000E+000	Final Fre&q. (Hz)
PTSPERDEC	QUANT	1.00000E+001	Points/&decade
VAC	QUANT	2.50000E+001	AC &Voltage (mV rms)
AREA	QUANT	1.00000E-002	&Area (cm^2)
CONDIT	TWOPARAM	T	5.00000E+000	0.00000E+000	Conditionin&g	Time(s)	E(V)
DELAY	TWOPARAM	T	5.00000E+000	0.00000E+000	Init. De&lay	Time(s)	Stab.(mV/s)
SPEED	SELECTOR	1	&Optimize for:
ZGUESS	QUANT	1.00000E+004	E&stimated Z (ohms)
OCVCURVE	TABLE	19
	Pt	T	Vf	Vm	Ach	Over
	#	s	V vs. Ref.	V	V	bits
	0	0.258333	5.28730E-003	5.28730E-003	5.55099E-004	...........
	1	0.516667	5.28572E-003	5.20437E-003	5.55566E-004	...........
	2	0.775	5.27494E-003	5.07059E-003	5.62666E-004	...........
	3	1.03333	5.24119E-003	4.95567E-003	5.53899E-004	...........
	4	1.29167	5.17869E-003	5.03094E-003	5.50399E-004	...........
	5	1.55	5.10432E-003	4.98970E-003	5.55566E-004	...........
	6	1.80833	5.04442E-003	4.96562E-003	5.51133E-004	...........
	7	2.06667	5.00528E-003	4.81152E-003	5.48966E-004	...........
	8	2.325	4.97074E-003	4.86632E-003	5.48633E-004	...........
	9	2.58333	4.93690E-003	5.22584E-003	5.55366E-004	...........
	10	2.84167	4.93311E-003	5.12583E-003	5.52266E-004	...........
	11	3.1	4.97552E-003	4.87812E-003	5.52899E-004	...........
	12	3.35833	5.01773E-003	4.68230E-003	5.48833E-004	...........
	13	3.61667	4.99522E-003	4.62772E-003	5.50233E-004	...........
	14	3.875	4.90174E-003	4.66896E-003	5.48633E-004	...........
	15	4.13333	4.79456E-003	4.97405E-003	5.47066E-004	...........
	16	4.39167	4.74055E-003	4.84307E-003	5.49633E-004	...........
	17	4.65	4.75766E-003	4.86879E-003	5.50166E-004	...........
	18	4.90833	4.80815E-003	4.90485E-003	5.50799E-004	...........
EOC	QUANT	0.0048082	Open Circuit (V)
PSTATMODEL	IQUANT	4	Pstat Model
PSTATSECTION	LABEL	REF600-11020	Pstat Section
PSTATSERIALNO	LABEL	11020	Pstat Serial Number
CTRLMODE	IQUANT	1	Control Mode
IESTAB	IQUANT	0	I/E Stability
CASPEED	IQUANT	1	Control Amp Speed
CONVENTION	IQUANT	1	Current Convention
ICHRANGE	IQUANT	2	Ich Range
ICHRANGEMODE	TOGGLE	F	Ich Auto Range
ICHOFFSETENABLE	TOGGLE	T	Ich Offset Enable
ICHOFFSET	QUANT	0	Ich Offset (V)
ICHFILTER	IQUANT	3	Ich Filter
VCHRANGE	IQUANT	2	Vch Range
VCHRANGEMODE	TOGGLE	F	Vch Auto Range
VCHOFFSETENABLE	TOGGLE	T	Vch Offset Enable
VCHOFFSET	QUANT	0	Vch Offset (V)
VCHFILTER	IQUANT	3	Vch Filter
ACHRANGE	IQUANT	2	Ach Range
ACHOFFSETENABLE	TOGGLE	F	Ach Offset Enable
ACHOFFSET	QUANT	0	Ach Offset (V)
ACHFILTER	IQUANT	3	Ach Filter
IERANGELOWERLIMIT	IQUANT	1	I/E Range Lower Limit
IERANGEMODE	TOGGLE	F	I/E AutoRange
IERANGE	IQUANT	5	I/E Range
POSFEEDENABLE	TOGGLE	F	Positive Feedback IR Comp
POSFEEDRESISTANCE	QUANT	0	Positive Feedback Resistance (ohm)
ACHSELECT	IQUANT	0	Ach Select
CABLEID	IQUANT	14	Cable ID
DCCALDATE	LABEL	8/19/2019	DC Calibration Date
ACCALDATE	LABEL	8/19/2019	AC Calibration Date
THERMOSELECT	IQUANT	1	Thermo Select
FRAMEWORKVERSION	QUANT	6.33	Framework Version
INSTRUMENTVERSION	LABEL	3.50	Instrument Version
ZCURVE	TABLE
	Pt	Time	Freq	Zreal	Zimag	Zsig	Zmod	Zphz	Idc	Vdc	IERange
	#	s	Hz	ohm	ohm	V	ohm	°	A	V	#
	0	2	1000078	2609.802	-1286.276	1	2909.566	-26.23699	1.800523E-006	0.0062504	8
	1	4	794390.6	2841.733	-1173.033	1	3074.321	-22.43025	1.334584E-006	0.0065152	8
	2	5	630984.4	3026.081	-1055.906	1	3205.012	-19.23567	2.963528E-006	0.0058402	8
	3	6	501234.4	3167.248	-920.5582	1	3298.316	-16.20646	-6.096927E-007	0.0065726	8
	4	8	398109.4	3277.499	-813.9955	1	3377.068	-13.94771	-1.268583E-006	0.0066609	8
	5	9	316265.6	3354.595	-716.8151	1	3430.325	-12.06166	1.586714E-006	0.0062445	8
	6	10	251203.1	3432.609	-639.2528	1	3491.625	-10.54931	1.111695E-006	0.0060944	8
	7	12	199546.9	3484.075	-562.9756	1	3529.266	-9.178823	-3.112506E-006	0.0068152	8
	8	13	158578.1	3550.306	-510.6569	1	3586.843	-8.184981	1.45145E-006	0.0062343	8
	9	15	125953.1	3598.683	-425.4393	1	3623.744	-6.74226	-5.118451E-007	0.0071138	7
	10	16	100078.1	3630.156	-403.3273	1	3652.493	-6.339828	-1.816579E-008	0.0062936	7
	11	17	79453.13	3668.065	-397.3842	1	3689.528	-6.183091	-4.183149E-008	0.0063371	7
	12	19	63140.62	3710.302	-397.9672	1	3731.584	-6.122143	8.212758E-008	0.0061386	7
	13	20	50203.12	3753.253	-403.1459	1	3774.843	-6.130771	-3.555721E-008	0.0063451	7
	14	21	39890.62	3797.561	-414.0795	1	3820.069	-6.222849	-1.354322E-008	0.006458	7
	15	23	31640.63	3845.103	-430.2134	1	3869.096	-6.384047	-4.107515E-008	0.0063956	7
	16	24	25171.88	3892.914	-451.257	1	3918.981	-6.612075	-4.450527E-008	0.0063399	7
	17	25	20015.62	3946.849	-487.1804	1	3976.802	-7.036727	-4.21206E-008	0.006335	7
	18	27	15890.62	3992.05	-516.6832	1	4025.348	-7.374683	9.040996E-008	0.0062615	7
	19	28	12609.37	4047.595	-556.0352	1	4085.609	-7.822004	6.609729E-008	0.006201	7
	20	30	10078.13	4101.002	-610.8524	1	4146.246	-8.472031	8.955673E-008	0.006262	7
	21	31	8015.625	4153.102	-678.3472	1	4208.136	-9.276496	-1.469187E-008	0.0063641	7
	22	32	6328.125	4217.95	-760.9279	1	4286.037	-10.2263	-1.73844E-008	0.0062836	7
	23	34	5015.625	4281.403	-864.6501	1	4367.84	-11.41759	9.127571E-008	0.00625	7
	24	35	3984.375	4343.611	-993.744	1	4455.837	-12.88652	6.867104E-008	0.0061991	7
	25	36	3170.956	4416.078	-1139.96	1	4560.839	-14.47427	1.439454E-007	0.0060834	7
	26	38	2527.573	4491.221	-1324.056	1	4682.328	-16.42604	1.341198E-008	0.0062258	7
	27	39	1976.103	4573.468	-1573.621	1	4836.62	-18.98711	-3.501495E-008	0.0063247	7
	28	40	1577.524	4655.575	-1861.093	1	5013.786	-21.78935	-1.630771E-008	0.0064548	7
	29	42	1265.625	4741.357	-2203.054	1	5228.185	-24.92176	-1.565292E-008	0.0063548	7
	30	43	998.264	4850.529	-2659.825	1	5531.935	-28.7385	1.332396E-008	0.0062264	7
	31	44	796.875	4968.673	-3200.075	1	5910.008	-32.78357	8.55296E-008	0.0061319	7
	32	46	627.7902	5106.228	-3922.931	1	6439.173	-37.53378	-1.315381E-008	0.0062688	7
	33	47	505.5147	5266.89	-4719.981	1	7072.366	-41.86546	-1.469455E-008	0.0064516	7
	34	48	397.9953	5484.163	-5797.678	1	7980.546	-46.5918	4.987696E-009	0.0063188	7
	35	50	315.5048	5742.588	-7102.271	1	9133.432	-51.0425	6.182501E-009	0.0063196	7
	36	51	252.4038	6056.884	-8641.483	1	10552.78	-54.97308	1.836636E-009	0.0062569	6
	37	53	198.6229	6485.247	-10677.15	1	12492.39	-58.7257	1.202586E-009	0.0062588	6
	38	54	158.3615	7003.575	-13041.35	1	14802.94	-61.76294	1.459456E-009	0.0062542	6
	39	55	125.558	7693.339	-16005.63	1	17758.59	-64.32806	9.332281E-010	0.0062608	6
	40	57	100.4464	8549.172	-19474.38	1	21268.29	-66.29873	1.701673E-009	0.0062594	6
	41	58	79.00281	9791.58	-24053.05	1	25969.68	-67.84962	1.683637E-009	0.0062612	6
	42	59	63.3446	11459.49	-29271.9	1	31435.08	-68.62043	-9.774395E-011	0.0062569	6
	43	61	49.86702	13237.74	-35736.89	1	38109.88	-69.67426	2.274495E-010	0.0062537	6
	44	62	39.72458	16104.62	-43233.81	1	46135.9	-69.56961	5.179155E-010	0.0062592	6
	45	64	31.6723	19639.75	-52259.12	1	55827.73	-69.40304	2.016681E-010	0.0062534	6
	46	65	24.93351	24668.02	-63250.75	1	67890.86	-68.69404	8.717528E-010	0.0062561	6
	47	66	19.86229	31040.06	-75419.78	1	81557.52	-67.62971	1.384648E-009	0.0062636	6
	48	68	15.83615	39157.54	-89777.6	1	97945.5	-66.43502	-4.950054E-010	0.0062541	6
	49	69	12.40079	49592.84	-106043.8	1	117067.3	-64.93622	-9.256127E-011	0.0062648	5
	50	70	9.93114	61843.26	-122988.4	1	137661.7	-63.305	-4.16468E-010	0.0062668	5
	51	72	7.944915	75986.79	-141526.6	1	160635.5	-61.76829	7.678155E-010	0.0062577	5
	52	74	6.317385	92877.11	-161865.8	1	186619.1	-60.15319	7.644024E-010	0.0062628	5
	53	76	5.008013	112002	-184695.6	1	216002.1	-58.7668	2.807639E-010	0.0062715	5
	54	78	3.945707	133272.9	-210658.1	1	249276	-57.68051	-9.402353E-011	0.0062594	5
	55	81	3.158693	154642.1	-237909.5	1	283751.8	-56.97598	1.967515E-010	0.0062615	5
	56	84	2.504006	177883.8	-271053.9	1	324211.1	-56.72442	4.069849E-011	0.0062697	5
	57	87	1.998082	201534.7	-308905.7	1	368834.7	-56.87896	3.591132E-010	0.006235	5
	58	90	1.584686	229040	-357106.6	1	424245.7	-57.32481	7.940273E-012	0.0062164	5
	59	94	1.266892	257197.8	-411285.5	1	485084	-57.98015	2.819241E-010	0.0062373	5
	60	98	0.999041	292018.1	-483990.3	1	565262.1	-58.8951	4.444418E-011	0.0062538	5
