EXPLAIN
TAG	EISPOT
TITLE	LABEL	Potentiostatic EIS	Test &Identifier
DATE	LABEL	10/6/2019	Date
TIME	LABEL	10:18:55	Time
NOTES	NOTES	2	&Notes...
	
	
PSTAT	PSTAT	REF600-11020	Potentiostat
VDC	POTEN	0.00000E+000	T	DC &Voltage (V)
FREQINIT	QUANT	1.00000E+006	Initial Fre&q. (Hz)
FREQFINAL	QUANT	1.00000E+000	Final Fre&q. (Hz)
PTSPERDEC	QUANT	1.00000E+001	Points/&decade
VAC	QUANT	2.50000E+001	AC &Voltage (mV rms)
AREA	QUANT	1.00000E-002	&Area (cm^2)
CONDIT	TWOPARAM	T	5.00000E+000	0.00000E+000	Conditionin&g	Time(s)	E(V)
DELAY	TWOPARAM	T	5.00000E+000	0.00000E+000	Init. De&lay	Time(s)	Stab.(mV/s)
SPEED	SELECTOR	1	&Optimize for:
ZGUESS	QUANT	1.00000E+004	E&stimated Z (ohms)
OCVCURVE	TABLE	19
	Pt	T	Vf	Vm	Ach	Over
	#	s	V vs. Ref.	V	V	bits
	0	0.258333	3.58806E-003	3.58806E-003	5.43066E-004	...........
	1	0.516667	3.58334E-003	3.34083E-003	5.40799E-004	...........
	2	0.775	3.55415E-003	3.09677E-003	5.47499E-004	...........
	3	1.03333	3.47159E-003	2.89500E-003	5.50666E-004	...........
	4	1.29167	3.32546E-003	2.70567E-003	5.49333E-004	...........
	5	1.55	3.13632E-003	2.55959E-003	5.42666E-004	...........
	6	1.80833	2.93652E-003	2.41237E-003	5.38833E-004	...........
	7	2.06667	2.74835E-003	2.25109E-003	5.44199E-004	...........
	8	2.325	2.57749E-003	2.10783E-003	5.44899E-004	...........
	9	2.58333	2.41957E-003	1.98300E-003	5.49599E-004	...........
	10	2.84167	2.27016E-003	1.84296E-003	5.42066E-004	...........
	11	3.1	2.12731E-003	1.70252E-003	5.43399E-004	...........
	12	3.35833	1.98899E-003	1.58163E-003	5.46766E-004	...........
	13	3.61667	1.85371E-003	1.46451E-003	5.43199E-004	...........
	14	3.875	1.72229E-003	1.34758E-003	5.47399E-004	...........
	15	4.13333	1.59622E-003	1.23754E-003	5.44733E-004	...........
	16	4.39167	1.47614E-003	1.15432E-003	5.43099E-004	...........
	17	4.65	1.36300E-003	1.05680E-003	5.48199E-004	...........
	18	4.90833	1.25778E-003	9.69055E-004	5.42833E-004	...........
EOC	QUANT	0.0012578	Open Circuit (V)
PSTATMODEL	IQUANT	4	Pstat Model
PSTATSECTION	LABEL	REF600-11020	Pstat Section
PSTATSERIALNO	LABEL	11020	Pstat Serial Number
CTRLMODE	IQUANT	1	Control Mode
IESTAB	IQUANT	0	I/E Stability
CASPEED	IQUANT	1	Control Amp Speed
CONVENTION	IQUANT	1	Current Convention
ICHRANGE	IQUANT	2	Ich Range
ICHRANGEMODE	TOGGLE	F	Ich Auto Range
ICHOFFSETENABLE	TOGGLE	T	Ich Offset Enable
ICHOFFSET	QUANT	0	Ich Offset (V)
ICHFILTER	IQUANT	3	Ich Filter
VCHRANGE	IQUANT	2	Vch Range
VCHRANGEMODE	TOGGLE	F	Vch Auto Range
VCHOFFSETENABLE	TOGGLE	T	Vch Offset Enable
VCHOFFSET	QUANT	0	Vch Offset (V)
VCHFILTER	IQUANT	3	Vch Filter
ACHRANGE	IQUANT	2	Ach Range
ACHOFFSETENABLE	TOGGLE	F	Ach Offset Enable
ACHOFFSET	QUANT	0	Ach Offset (V)
ACHFILTER	IQUANT	3	Ach Filter
IERANGELOWERLIMIT	IQUANT	1	I/E Range Lower Limit
IERANGEMODE	TOGGLE	F	I/E AutoRange
IERANGE	IQUANT	5	I/E Range
POSFEEDENABLE	TOGGLE	F	Positive Feedback IR Comp
POSFEEDRESISTANCE	QUANT	0	Positive Feedback Resistance (ohm)
ACHSELECT	IQUANT	0	Ach Select
CABLEID	IQUANT	14	Cable ID
DCCALDATE	LABEL	8/19/2019	DC Calibration Date
ACCALDATE	LABEL	8/19/2019	AC Calibration Date
THERMOSELECT	IQUANT	1	Thermo Select
FRAMEWORKVERSION	QUANT	6.33	Framework Version
INSTRUMENTVERSION	LABEL	3.50	Instrument Version
ZCURVE	TABLE
	Pt	Time	Freq	Zreal	Zimag	Zsig	Zmod	Zphz	Idc	Vdc	IERange
	#	s	Hz	ohm	ohm	V	ohm	°	A	V	#
	0	1	1000078	2544.959	-1797.435	1	3115.701	-35.23252	1.836891E-006	0.0034887	8
	1	3	794390.6	2904.284	-1712.147	1	3371.396	-30.5204	4.159228E-006	0.0024389	8
	2	4	630984.4	3193.392	-1562.807	1	3555.295	-26.07656	3.440826E-006	0.0023414	8
	3	5	501234.4	3475.768	-1396.04	1	3745.649	-21.88284	4.60737E-006	0.0018635	8
	4	7	398109.4	3682.651	-1226.375	1	3881.483	-18.4185	-7.851957E-007	0.0029134	8
	5	8	316265.6	3836.168	-1060.801	1	3980.136	-15.45751	4.740366E-006	0.001851	8
	6	10	251203.1	3937.957	-895.428	1	4038.477	-12.81032	4.415236E-006	0.0018651	8
	7	11	199546.9	4037.327	-784.5571	1	4112.851	-10.99699	-4.598468E-006	0.003664	8
	8	13	158578.1	4106.023	-665.0554	1	4159.534	-9.200337	-2.899308E-007	0.0028638	8
	9	14	125953.1	4177.928	-520.5825	1	4210.236	-7.10262	-9.086157E-007	0.004719	7
	10	15	100078.1	4208.027	-473.4236	1	4234.574	-6.419063	-5.724609E-008	0.0028931	7
	11	17	79453.13	4241.986	-434.8219	1	4264.213	-5.852625	4.806513E-008	0.0027611	7
	12	18	63140.62	4273.918	-408.0136	1	4293.35	-5.453269	-7.689337E-009	0.0027573	7
	13	19	50203.12	4305.351	-392.438	1	4323.2	-5.208188	-8.680637E-008	0.0029283	7
	14	21	39890.62	4334.87	-386.0815	1	4352.029	-5.08957	-5.722893E-008	0.0028802	7
	15	22	31640.63	4364.444	-393.8401	1	4382.178	-5.156308	-3.263493E-008	0.0028028	7
	16	23	25171.88	4395.197	-409.7036	1	4414.251	-5.325506	4.878086E-008	0.0026538	7
	17	25	20015.62	4426.216	-432.9239	1	4447.337	-5.586277	-8.89575E-009	0.0027516	7
	18	26	15890.62	4465.3	-473.044	1	4490.287	-6.047233	-4.302385E-008	0.0028077	7
	19	28	12609.37	4500.639	-527.7567	1	4531.476	-6.68811	-1.061629E-008	0.0027496	7
	20	29	10078.13	4539.979	-589.7598	1	4578.125	-7.401483	-1.021625E-008	0.0028251	7
	21	30	8015.625	4585.788	-659.4014	1	4632.954	-8.182609	5.064831E-008	0.0027498	7
	22	32	6328.125	4632.296	-774.8925	1	4696.662	-9.496534	-8.327465E-008	0.0029175	7
	23	33	5015.625	4685.581	-902.8551	1	4771.773	-10.90654	-8.432166E-008	0.002915	7
	24	34	3984.375	4749.309	-1051.512	1	4864.32	-12.48408	-8.522281E-009	0.0028497	7
	25	36	3170.956	4806.682	-1248.944	1	4966.292	-14.56536	-5.349957E-009	0.0027396	7
	26	37	2527.573	4877.918	-1480.98	1	5097.783	-16.88876	-7.964402E-009	0.0028534	7
	27	39	1976.103	4966.39	-1791.729	1	5279.709	-19.83797	-8.033832E-008	0.0030396	7
	28	40	1577.524	5065.44	-2135.756	1	5497.285	-22.86188	1.127896E-007	0.0026855	7
	29	41	1265.625	5173.667	-2555.196	1	5770.256	-26.28407	3.452799E-009	0.0027798	7
	30	43	998.264	5312.813	-3099.256	1	6150.722	-30.25736	-3.048933E-008	0.0027924	7
	31	44	796.875	5464.784	-3732.113	1	6617.592	-34.33068	-8.006203E-008	0.0030432	7
	32	45	627.7902	5653.667	-4549.469	1	7256.833	-38.8234	-5.202886E-009	0.0027391	7
	33	47	505.5147	5859.529	-5455.596	1	8006.099	-42.95549	-6.185406E-009	0.0027681	7
	34	48	397.9953	6137.48	-6689.356	1	9078.334	-47.46364	5.727017E-009	0.0028151	7
	35	50	315.5048	6460.325	-8160.14	1	10407.87	-51.63159	7.317222E-010	0.002757	6
	36	51	252.4038	6834.778	-9893.89	1	12025.11	-55.36297	1.153547E-009	0.0027588	6
	37	52	198.6229	7334.127	-12186.03	1	14222.82	-58.95848	1.232704E-009	0.0027567	6
	38	54	158.3615	7930.18	-14853.17	1	16837.59	-61.90203	1.154738E-009	0.0027499	6
	39	55	125.558	8724.813	-18198.38	1	20181.76	-64.38564	1.137063E-009	0.0027516	6
	40	56	100.4464	9723.93	-22120.96	1	24163.85	-66.27068	3.479111E-010	0.00275	6
	41	58	79.00281	11073.67	-27290.25	1	29451.39	-67.91397	6.105734E-010	0.0027506	6
	42	59	63.3446	12731.54	-32792.09	1	35176.89	-68.78128	1.067711E-009	0.0027492	6
	43	61	49.86702	15444.86	-40551.56	1	43393.24	-69.14968	1.223281E-009	0.0027514	6
	44	62	39.72458	18392	-48952.71	1	52293.72	-69.40833	1.202771E-009	0.0027577	6
	45	63	31.6723	22274.26	-58847.13	1	62921.6	-69.26781	8.725095E-010	0.0027546	6
	46	65	24.93351	27862.21	-71187.81	1	76446.11	-68.62511	1.066162E-009	0.0027511	6
	47	66	19.86229	34585.31	-84742.2	1	91528.05	-67.79845	5.632935E-010	0.0027489	6
	48	68	15.83615	42881.26	-100088	1	108887.1	-66.80798	1.512778E-010	0.0027506	5
	49	69	12.40079	54271.94	-119162.3	1	130939.3	-65.51331	1.807247E-009	0.0027511	5
	50	70	9.93114	65239.03	-139025.8	1	153571.8	-64.86129	2.949486E-010	0.002756	5
	51	72	7.944915	78938.51	-161397.7	1	179667.7	-63.93706	9.17472E-010	0.0027563	5
	52	74	6.317385	95575.5	-187640.5	1	210579.2	-63.00779	7.956315E-010	0.0027564	5
	53	76	5.008013	114941.4	-218441.5	1	246836.4	-62.24717	5.880449E-010	0.0027628	5
	54	78	3.945707	137894.8	-254962.5	1	289863.5	-61.59355	3.584162E-010	0.0027546	5
	55	81	3.158693	162556.2	-294070.9	1	336009.2	-61.0671	2.737295E-010	0.002771	5
	56	84	2.504006	192212.2	-341592.2	1	391957.6	-60.63376	4.07041E-010	0.0027502	5
	57	87	1.998082	225244.1	-394649.8	1	454404.5	-60.28469	1.561872E-010	0.0027986	5
	58	90	1.584686	263258.2	-458161.4	1	528409.6	-60.11845	3.446205E-010	0.0027614	5
	59	94	1.266892	307482.8	-529704.9	1	612481	-59.86572	2.344785E-010	0.0028004	5
	60	98	0.999041	360686.3	-618173.9	1	715704.9	-59.73769	1.187642E-010	0.0027169	5
