EXPLAIN
TAG	EISPOT
TITLE	LABEL	Potentiostatic EIS	Test &Identifier
DATE	LABEL	8/14/2018	Date
TIME	LABEL	5:20:41	Time
NOTES	NOTES	1	&Notes...
	
PSTAT	PSTAT	REF600-11020	Potentiostat
VDC	POTEN	0.00000E+000	T	DC &Voltage (V)
FREQINIT	QUANT	1.00000E+006	Initial Fre&q. (Hz)
FREQFINAL	QUANT	1.00000E+000	Final Fre&q. (Hz)
PTSPERDEC	QUANT	1.00000E+001	Points/&decade
VAC	QUANT	2.50000E+001	AC &Voltage (mV rms)
AREA	QUANT	1.00000E-002	&Area (cm^2)
CONDIT	TWOPARAM	T	5.00000E+000	0.00000E+000	Conditionin&g	Time(s)	E(V)
DELAY	TWOPARAM	T	5.00000E+000	0.00000E+000	Init. De&lay	Time(s)	Stab.(mV/s)
SPEED	SELECTOR	0	&Optimize for:
ZGUESS	QUANT	1.00000E+005	E&stimated Z (ohms)
OCVCURVE	TABLE	19
	Pt	T	Vf	Vm	Ach	Over
	#	s	V vs. Ref.	V	V	bits
	0	0.258333	7.04410E-003	7.04410E-003	5.14533E-004	...........
	1	0.516667	7.04657E-003	7.17318E-003	5.12433E-004	...........
	2	0.775	7.05909E-003	7.15812E-003	5.12900E-004	...........
	3	1.03333	7.08558E-003	7.13391E-003	5.14500E-004	...........
	4	1.29167	7.11001E-003	6.83432E-003	5.08867E-004	...........
	5	1.55	7.09969E-003	6.83780E-003	5.12400E-004	...........
	6	1.80833	7.04110E-003	6.91462E-003	5.10800E-004	...........
	7	2.06667	6.96641E-003	7.00770E-003	5.14533E-004	...........
	8	2.325	6.92712E-003	7.18476E-003	5.10333E-004	...........
	9	2.58333	6.95126E-003	7.30065E-003	5.12900E-004	...........
	10	2.84167	7.03350E-003	7.40550E-003	5.12300E-004	...........
	11	3.1	7.14864E-003	7.48766E-003	5.16766E-004	...........
	12	3.35833	7.26932E-003	7.56226E-003	5.12167E-004	...........
	13	3.61667	7.37881E-003	7.63768E-003	5.10967E-004	...........
	14	3.875	7.47332E-003	7.72010E-003	5.10467E-004	...........
	15	4.13333	7.55724E-003	7.80942E-003	5.13300E-004	...........
	16	4.39167	7.63734E-003	7.89075E-003	5.17733E-004	...........
	17	4.65	7.71859E-003	7.99735E-003	5.14066E-004	...........
	18	4.90833	7.80733E-003	8.28628E-003	5.12767E-004	...........
EOC	QUANT	0.0078073	Open Circuit (V)
PSTATMODEL	IQUANT	4	Pstat Model
PSTATSECTION	LABEL	REF600-11020	Pstat Section
PSTATSERIALNO	LABEL	11020	Pstat Serial Number
CTRLMODE	IQUANT	1	Control Mode
IESTAB	IQUANT	0	I/E Stability
CASPEED	IQUANT	1	Control Amp Speed
CONVENTION	IQUANT	1	Current Convention
ICHRANGE	IQUANT	2	Ich Range
ICHRANGEMODE	TOGGLE	F	Ich Auto Range
ICHOFFSETENABLE	TOGGLE	T	Ich Offset Enable
ICHOFFSET	QUANT	0	Ich Offset (V)
ICHFILTER	IQUANT	3	Ich Filter
VCHRANGE	IQUANT	2	Vch Range
VCHRANGEMODE	TOGGLE	F	Vch Auto Range
VCHOFFSETENABLE	TOGGLE	T	Vch Offset Enable
VCHOFFSET	QUANT	0	Vch Offset (V)
VCHFILTER	IQUANT	3	Vch Filter
ACHRANGE	IQUANT	2	Ach Range
ACHOFFSETENABLE	TOGGLE	F	Ach Offset Enable
ACHOFFSET	QUANT	0	Ach Offset (V)
ACHFILTER	IQUANT	3	Ach Filter
IERANGELOWERLIMIT	IQUANT	1	I/E Range Lower Limit
IERANGEMODE	TOGGLE	F	I/E AutoRange
IERANGE	IQUANT	5	I/E Range
POSFEEDENABLE	TOGGLE	F	Positive Feedback IR Comp
POSFEEDRESISTANCE	QUANT	0	Positive Feedback Resistance (ohm)
ACHSELECT	IQUANT	0	Ach Select
CABLEID	IQUANT	14	Cable ID
DCCALDATE	LABEL	8/19/2019	DC Calibration Date
ACCALDATE	LABEL	8/19/2019	AC Calibration Date
THERMOSELECT	IQUANT	1	Thermo Select
FRAMEWORKVERSION	QUANT	6.33	Framework Version
INSTRUMENTVERSION	LABEL	3.50	Instrument Version
ZCURVE	TABLE
	Pt	Time	Freq	Zreal	Zimag	Zsig	Zmod	Zphz	Idc	Vdc	IERange
	#	s	Hz	ohm	ohm	V	ohm	°	A	V	#
	0	1	1000078	2103.927	-1397.285	1	2525.651	-33.5894	2.383787E-006	0.008834	8
	1	1	794390.6	2344.819	-1362.594	1	2711.98	-30.16124	-1.515496E-006	0.009453	8
	2	2	630984.4	2577.431	-1344.866	1	2907.201	-27.55489	1.38296E-006	0.0092436	8
	3	2	501234.4	2800.33	-1311.688	1	3092.309	-25.09862	6.657301E-007	0.0092154	8
	4	2	398109.4	3023.198	-1273.748	1	3280.573	-22.8469	3.711899E-006	0.0086381	8
	5	3	316265.6	3255.472	-1201.256	1	3470.031	-20.25385	-2.934477E-006	0.0098797	8
	6	3	251203.1	3465.181	-1100.468	1	3635.727	-17.61874	-1.960012E-006	0.0098698	8
	7	3	199546.9	3624.735	-1015.928	1	3764.415	-15.65694	2.609959E-006	0.0087678	8
	8	4	158578.1	3749.566	-935.9766	1	3864.622	-14.01589	9.755674E-007	0.0091752	8
	9	4	125953.1	3932.839	-744.8262	1	4002.748	-10.72403	3.417153E-007	0.0087325	7
	10	4	100078.1	4009.446	-660.3662	1	4063.464	-9.352798	4.190492E-008	0.0092481	7
	11	5	79453.13	4079.028	-584.6439	1	4120.713	-8.156609	-5.146723E-008	0.0094764	7
	12	5	63140.62	4136.222	-521.4732	1	4168.965	-7.18564	6.162531E-009	0.009217	7
	13	5	50203.12	4183.441	-470.8798	1	4209.858	-6.422068	-1.044662E-009	0.0093204	7
	14	6	39890.62	4221.483	-435.5444	1	4243.892	-5.890553	8.47014E-008	0.0092226	7
	15	6	31640.63	4254.1	-409.842	1	4273.797	-5.50292	-3.949679E-008	0.009304	7
	16	6	25171.88	4285.004	-397.3458	1	4303.387	-5.297853	-1.075925E-009	0.0093208	7
	17	7	20015.62	4306.882	-401.338	1	4325.541	-5.32375	4.133296E-008	0.0092353	7
	18	7	15890.62	4340.501	-410.9734	1	4359.914	-5.408835	-3.440234E-008	0.0092874	7
	19	7	12609.37	4366.243	-435.303	1	4387.889	-5.693426	-3.237709E-008	0.0092919	7
	20	7	10078.13	4393.184	-473.355	1	4418.611	-6.149758	1.523501E-010	0.009247	7
	21	8	8015.625	4426.208	-530.4169	1	4457.876	-6.833482	-2.108335E-008	0.0093345	7
	22	8	6328.125	4453.333	-609.7523	1	4494.883	-7.796483	-6.289064E-008	0.00937	7
	23	8	5015.625	4488.82	-708.0239	1	4544.316	-8.963445	1.069528E-007	0.0091414	7
	24	9	3984.375	4528.256	-831.0919	1	4603.891	-10.40002	2.01426E-008	0.0093613	7
	25	9	3170.956	4567.483	-984.212	1	4672.32	-12.1603	4.879575E-009	0.009214	7
	26	9	2527.573	4616.023	-1171.534	1	4762.37	-14.24083	-3.721837E-008	0.0092969	7
	27	10	1976.103	4671.566	-1429.61	1	4885.419	-17.01535	6.463769E-008	0.0091853	7
	28	10	1577.524	4697.103	-1707.052	1	4997.679	-19.97249	6.307812E-008	0.0091812	7
	29	10	1265.625	4806.296	-2062.639	1	5230.197	-23.22676	-5.170783E-008	0.0093456	7
	30	11	998.264	4900.114	-2524.152	1	5512.028	-27.25395	-2.516745E-009	0.0093124	7
	31	11	796.875	5002.91	-3062.487	1	5865.828	-31.47252	-5.13358E-010	0.0093123	7
	32	11	627.7902	5128.405	-3765.157	1	6362.149	-36.28526	-4.768136E-011	0.009242	7
	33	12	505.5147	5266.163	-4554.611	1	6962.54	-40.85595	-2.856205E-008	0.0093344	7
	34	12	397.9953	5455.182	-5631.602	1	7840.533	-45.91165	-2.32636E-010	0.0093076	7
	35	12	315.5048	5683.658	-6925.956	1	8959.511	-50.62662	1.687198E-009	0.0093058	7
	36	13	252.4038	5960.68	-8454.136	1	10344.18	-54.81384	9.96869E-010	0.0092434	6
	37	13	198.6229	6338.101	-10480.45	1	12247.91	-58.83635	5.521124E-010	0.009245	6
	38	13	158.3615	6802.204	-12838.25	1	14528.96	-62.08361	6.379793E-012	0.0092421	6
	39	14	125.558	7417.147	-15813.16	1	17466.25	-64.87112	9.943904E-011	0.0092433	6
	40	14	100.4464	8163.764	-19306.52	1	20961.6	-67.07893	-4.649038E-010	0.0092425	6
	41	14	79.00281	9247.886	-23914.94	1	25640.74	-68.85856	8.309279E-010	0.0092411	6
	42	15	63.3446	10784.3	-28775.88	1	30730.32	-69.45557	-4.596677E-010	0.0092362	6
	43	15	49.86702	12754.63	-35638.69	1	37852.3	-70.30836	-1.293837E-009	0.0092361	6
	44	15	39.72458	14924.2	-43510.52	1	45998.88	-71.06792	4.606859E-010	0.0092436	6
	45	16	31.6723	18113.04	-52868.59	1	55885.33	-71.08828	4.722346E-010	0.0092411	6
	46	16	24.93351	22727.57	-64457.11	1	68346.63	-70.57735	-3.737206E-010	0.0092392	6
	47	16	19.86229	28419.23	-77584.98	1	82626.16	-69.88232	-2.62554E-010	0.0092355	6
	48	16	15.83615	35519.54	-91582.7	1	98229.5	-68.80166	-1.247328E-009	0.0092381	6
	49	17	12.40079	45612.95	-110578.2	1	119616.4	-67.58411	1.954157E-009	0.009242	5
	50	17	9.93114	58297.37	-131020.9	1	143405.2	-66.01347	3.439369E-010	0.0092388	5
	51	18	7.944915	72943.33	-152222.4	1	168796.9	-64.39677	3.555915E-010	0.0092426	5
	52	18	6.317385	91754.08	-176673	1	199078.2	-62.55515	4.777239E-010	0.0092284	5
	53	19	5.008013	114231.9	-203809.7	1	233639.3	-60.73011	3.832685E-010	0.0092417	5
	54	20	3.945707	140362.1	-233097	1	272095.1	-58.94525	-1.693573E-010	0.009238	5
	55	22	3.158693	168268.2	-262686	1	311958.5	-57.35768	-2.521857E-010	0.0092217	5
	56	23	2.504006	199974.9	-296457.9	1	357599.2	-55.99847	1.090257E-010	0.0092291	5
	57	25	1.998082	231799.2	-332494.2	1	405318.7	-55.11761	-7.715564E-011	0.0092229	5
	58	26	1.584686	268348.6	-375295.5	1	461365	-54.43399	-2.758776E-010	0.0091829	5
	59	28	1.266892	304309.4	-424321.8	1	522162.1	-54.35317	-2.521277E-010	0.009195	5
	60	31	0.999041	344723	-485269.8	1	595248.4	-54.611	-2.288882E-010	0.0092184	5
