EXPLAIN
TAG	EISPOT
TITLE	LABEL	Potentiostatic IDE	Test &Identifier
DATE	LABEL	9/10/2019	Date
TIME	LABEL	8:29:29	Time
NOTES	NOTES	1	&Notes...
	
PSTAT	PSTAT	REF600-11020	Potentiostat
VDC	POTEN	0.00000E+000	T	DC &Voltage (V)
FREQINIT	QUANT	1.00000E+006	Initial Fre&q. (Hz)
FREQFINAL	QUANT	1.00000E+000	Final Fre&q. (Hz)
PTSPERDEC	QUANT	1.00000E+001	Points/&decade
VAC	QUANT	2.50000E+001	AC &Voltage (mV rms)
AREA	QUANT	1.00000E-002	&Area (cm^2)
CONDIT	TWOPARAM	T	5.00000E+000	0.00000E+000	Conditionin&g	Time(s)	E(V)
DELAY	TWOPARAM	T	5.00000E+000	0.00000E+000	Init. De&lay	Time(s)	Stab.(mV/s)
SPEED	SELECTOR	1	&Optimize for:
ZGUESS	QUANT	1.00000E+007	E&stimated Z (ohms)
OCVCURVE	TABLE	19
	Pt	T	Vf	Vm	Ach	Over
	#	s	V vs. Ref.	V	V	bits
	0	0.258333	6.96695E-003	6.96695E-003	5.58166E-004	...........
	1	0.516667	6.96631E-003	6.93329E-003	5.61332E-004	...........
	2	0.775	6.96261E-003	6.91441E-003	5.52599E-004	...........
	3	1.03333	6.95322E-003	6.90942E-003	5.56133E-004	...........
	4	1.29167	6.93930E-003	6.91421E-003	5.55899E-004	...........
	5	1.55	6.92609E-003	6.92353E-003	5.55999E-004	...........
	6	1.80833	6.91855E-003	6.93393E-003	5.53799E-004	...........
	7	2.06667	6.91837E-003	6.94877E-003	5.57333E-004	...........
	8	2.325	6.92454E-003	6.96886E-003	5.61432E-004	...........
	9	2.58333	6.93553E-003	6.98665E-003	5.53433E-004	...........
	10	2.84167	6.95018E-003	7.01053E-003	5.63266E-004	...........
	11	3.1	6.96771E-003	7.03461E-003	5.62266E-004	...........
	12	3.35833	6.98752E-003	7.05243E-003	5.57199E-004	...........
	13	3.61667	7.00866E-003	7.06954E-003	5.55066E-004	...........
	14	3.875	7.02974E-003	7.09005E-003	5.55666E-004	...........
	15	4.13333	7.04992E-003	7.10960E-003	5.55766E-004	...........
	16	4.39167	7.06935E-003	7.12748E-003	5.58966E-004	...........
	17	4.65	7.08849E-003	7.14678E-003	5.61066E-004	...........
	18	4.90833	7.10753E-003	7.16784E-003	5.59832E-004	...........
EOC	QUANT	0.0071075	Open Circuit (V)
PSTATMODEL	IQUANT	4	Pstat Model
PSTATSECTION	LABEL	REF600-11020	Pstat Section
PSTATSERIALNO	LABEL	11020	Pstat Serial Number
CTRLMODE	IQUANT	1	Control Mode
IESTAB	IQUANT	0	I/E Stability
CASPEED	IQUANT	1	Control Amp Speed
CONVENTION	IQUANT	1	Current Convention
ICHRANGE	IQUANT	2	Ich Range
ICHRANGEMODE	TOGGLE	F	Ich Auto Range
ICHOFFSETENABLE	TOGGLE	T	Ich Offset Enable
ICHOFFSET	QUANT	0	Ich Offset (V)
ICHFILTER	IQUANT	3	Ich Filter
VCHRANGE	IQUANT	2	Vch Range
VCHRANGEMODE	TOGGLE	F	Vch Auto Range
VCHOFFSETENABLE	TOGGLE	T	Vch Offset Enable
VCHOFFSET	QUANT	0	Vch Offset (V)
VCHFILTER	IQUANT	3	Vch Filter
ACHRANGE	IQUANT	2	Ach Range
ACHOFFSETENABLE	TOGGLE	F	Ach Offset Enable
ACHOFFSET	QUANT	0	Ach Offset (V)
ACHFILTER	IQUANT	3	Ach Filter
IERANGELOWERLIMIT	IQUANT	1	I/E Range Lower Limit
IERANGEMODE	TOGGLE	F	I/E AutoRange
IERANGE	IQUANT	3	I/E Range
POSFEEDENABLE	TOGGLE	F	Positive Feedback IR Comp
POSFEEDRESISTANCE	QUANT	0	Positive Feedback Resistance (ohm)
ACHSELECT	IQUANT	0	Ach Select
CABLEID	IQUANT	14	Cable ID
DCCALDATE	LABEL	8/19/2019	DC Calibration Date
ACCALDATE	LABEL	8/19/2019	AC Calibration Date
THERMOSELECT	IQUANT	1	Thermo Select
FRAMEWORKVERSION	QUANT	6.33	Framework Version
INSTRUMENTVERSION	LABEL	3.50	Instrument Version
ZCURVE	TABLE
	Pt	Time	Freq	Zreal	Zimag	Zsig	Zmod	Zphz	Idc	Vdc	IERange
	#	s	Hz	ohm	ohm	V	ohm	°	A	V	#
	0	2	1000078	2443.108	-1630	1	2936.95	-33.71053	-1.403723E-006	0.0093533	8
	1	3	794390.6	2762.425	-1531.637	1	3158.623	-29.00634	2.779804E-007	0.0090541	8
	2	5	630984.4	3045.924	-1398.703	1	3351.719	-24.66481	2.079059E-006	0.0083841	8
	3	6	501234.4	3276.607	-1248.622	1	3506.453	-20.86042	1.267457E-006	0.0083903	8
	4	7	398109.4	3458.254	-1091.073	1	3626.288	-17.51039	-1.360271E-006	0.0089408	8
	5	8	316265.6	3593.594	-950.825	1	3717.255	-14.82021	-1.091788E-006	0.0088638	8
	6	10	251203.1	3681.86	-816.9377	1	3771.403	-12.51022	-4.219665E-007	0.0085539	8
	7	11	199546.9	3761.656	-708.9666	1	3827.883	-10.67344	5.047418E-008	0.0087714	8
	8	12	158578.1	3828.795	-618.4594	1	3878.422	-9.175646	1.409804E-006	0.0083422	8
	9	14	125953.1	3897.378	-512.1437	1	3930.883	-7.486187	-8.457786E-008	0.0093899	7
	10	15	100078.1	3919.595	-458.4157	1	3946.311	-6.670715	-3.33366E-008	0.0086814	7
	11	16	79453.13	3953.379	-431.41	1	3976.848	-6.227725	6.087006E-008	0.0084745	7
	12	18	63140.62	3986.609	-413.7885	1	4008.026	-5.925774	-9.194228E-009	0.0085998	7
	13	19	50203.12	4019.461	-407.0532	1	4040.019	-5.782664	7.520163E-008	0.0085405	7
	14	20	39890.62	4055.156	-410.0791	1	4075.838	-5.774426	-1.900182E-008	0.0085885	7
	15	22	31640.63	4089.631	-424.5556	1	4111.609	-5.926799	-1.579201E-008	0.0086328	7
	16	23	25171.88	4124.164	-448.4498	1	4148.474	-6.205798	-6.284061E-008	0.0087813	7
	17	24	20015.62	4162.556	-481.6811	1	4190.333	-6.600773	-4.491785E-008	0.0086586	7
	18	26	15890.62	4206.342	-532.6263	1	4239.93	-7.216649	6.506337E-009	0.0086766	7
	19	27	12609.37	4253.591	-592.5573	1	4294.667	-7.930694	7.503915E-008	0.0085359	7
	20	28	10078.13	4303.977	-666.0837	1	4355.214	-8.797307	5.496819E-009	0.0085786	7
	21	30	8015.625	4358.99	-757.6472	1	4424.344	-9.86022	-5.139996E-008	0.008677	7
	22	31	6328.125	4419.609	-874.3137	1	4505.26	-11.19011	1.74094E-008	0.0085203	7
	23	32	5015.625	4488.891	-1013.903	1	4601.971	-12.72779	1.74797E-008	0.0085189	7
	24	34	3984.375	4564.12	-1183.986	1	4715.19	-14.54264	-8.61761E-009	0.0086389	7
	25	35	3170.956	4650.684	-1383.56	1	4852.123	-16.56754	-2.922823E-008	0.0086636	7
	26	36	2527.573	4745.751	-1628.16	1	5017.276	-18.93594	-5.692574E-008	0.0086742	7
	27	38	1976.103	4862.296	-1950.562	1	5238.952	-21.85872	-5.884006E-008	0.0086594	7
	28	39	1577.524	4985.711	-2304.475	1	5492.533	-24.80713	1.106946E-008	0.008666	7
	29	40	1265.625	5124.046	-2728.406	1	5805.174	-28.03401	-2.966575E-008	0.0086597	7
	30	42	998.264	5291.601	-3278.671	1	6225.008	-31.78231	3.412537E-008	0.0085529	7
	31	43	796.875	5471.084	-3915.708	1	6727.966	-35.59166	-6.17425E-008	0.0087683	7
	32	44	627.7902	5690.175	-4741.376	1	7406.668	-39.80298	8.007661E-008	0.0085224	7
	33	46	505.5147	5921.772	-5661.01	1	8192.34	-43.71032	3.499021E-008	0.0084807	7
	34	47	397.9953	6230.804	-6880.521	1	9282.483	-47.83691	5.279919E-009	0.0086168	7
	35	48	315.5048	6578.451	-8347.95	1	10628.47	-51.76076	7.712598E-010	0.0085581	6
	36	50	252.4038	6973.832	-10072.45	1	12251.07	-55.30256	1.021505E-009	0.0085474	6
	37	51	198.6229	7481.653	-12346.35	1	14436.32	-58.78493	8.951641E-010	0.0085576	6
	38	52	158.3615	8061.286	-14985.91	1	17016.52	-61.72311	6.595856E-010	0.0085522	6
	39	54	125.558	8788.317	-18295.55	1	20296.84	-64.34258	9.894746E-010	0.0085513	6
	40	55	100.4464	9634.82	-22195.74	1	24196.71	-66.53509	6.066487E-010	0.0085507	6
	41	56	79.00281	10789.34	-27321.52	1	29374.73	-68.45081	4.371117E-010	0.0085501	6
	42	58	63.3446	12286.57	-33143.22	1	35347.32	-69.65968	6.435964E-010	0.0085425	6
	43	59	49.86702	13896.58	-40939.46	1	43233.72	-71.25062	9.798899E-010	0.0085391	6
	44	60	39.72458	16294.65	-49750.87	1	52351.36	-71.86509	1.130494E-009	0.0085486	6
	45	62	31.6723	19309.23	-60629.27	1	63629.82	-72.33435	7.229377E-010	0.0085466	6
	46	63	24.93351	23400.08	-74434.15	1	78025.68	-72.54826	8.576667E-010	0.0085452	6
	47	64	19.86229	28627.16	-90288.15	1	94717.81	-72.40803	1.116997E-009	0.0085461	6
	48	66	15.83615	35343.04	-109299.5	1	114871.7	-72.08089	3.500736E-010	0.0085474	5
	49	67	12.40079	44950.62	-133219.1	1	140598.3	-71.35464	6.659786E-010	0.0085524	5
	50	69	9.93114	56146.09	-159140.7	1	168754.7	-70.56676	9.680208E-010	0.0085481	5
	51	70	7.944915	70569.22	-189263.3	1	201991.6	-69.55139	9.499428E-010	0.0085537	5
	52	72	6.317385	89138.28	-225308.9	1	242301	-68.41492	7.033181E-010	0.0085486	5
	53	74	5.008013	112988.8	-267506.4	1	290389.7	-67.10188	3.507997E-010	0.0085549	5
	54	76	3.945707	143438.8	-316217.3	1	347229.1	-65.60056	3.251739E-010	0.0085533	5
	55	79	3.158693	177894.3	-367752.5	1	408519.6	-64.18537	7.466845E-011	0.0085353	5
	56	82	2.504006	220879.9	-427354.9	1	481061.5	-62.66766	4.412813E-010	0.008556	5
	57	85	1.998082	270334.8	-492024.7	1	561399.3	-61.21413	4.602302E-010	0.0085752	5
	58	88	1.584686	329420.1	-563390.4	1	652630.3	-59.68473	2.41742E-010	0.008516	5
	59	92	1.266892	393769.5	-642307.9	1	753401.6	-58.48945	3.507298E-010	0.0085729	5
	60	96	0.999041	475555.1	-735215.1	1	875610.6	-57.10423	-3.028377E-011	0.0085218	5
