EXPLAIN
TAG	EISPOT
TITLE	LABEL	Potentiostatic EIS	Test &Identifier
DATE	LABEL	11/7/2019	Date
TIME	LABEL	9:48:35	Time
NOTES	NOTES	2	&Notes...
	
	
PSTAT	PSTAT	REF600-11020	Potentiostat
VDC	POTEN	0.00000E+000	T	DC &Voltage (V)
FREQINIT	QUANT	1.00000E+006	Initial Fre&q. (Hz)
FREQFINAL	QUANT	1.00000E+000	Final Fre&q. (Hz)
PTSPERDEC	QUANT	1.00000E+001	Points/&decade
VAC	QUANT	2.50000E+001	AC &Voltage (mV rms)
AREA	QUANT	1.00000E-002	&Area (cm^2)
CONDIT	TWOPARAM	T	5.00000E+000	0.00000E+000	Conditionin&g	Time(s)	E(V)
DELAY	TWOPARAM	T	5.00000E+000	0.00000E+000	Init. De&lay	Time(s)	Stab.(mV/s)
SPEED	SELECTOR	1	&Optimize for:
ZGUESS	QUANT	1.00000E+005	E&stimated Z (ohms)
OCVCURVE	TABLE	19
	Pt	T	Vf	Vm	Ach	Over
	#	s	V vs. Ref.	V	V	bits
	0	0.258333	5.71658E-003	5.71658E-003	5.73532E-004	...........
	1	0.516667	5.71530E-003	5.64996E-003	5.76366E-004	...........
	2	0.775	5.70751E-003	5.58767E-003	5.75332E-004	...........
	3	1.03333	5.68571E-003	5.53877E-003	5.75399E-004	...........
	4	1.29167	5.64812E-003	5.51310E-003	5.82132E-004	...........
	5	1.55	5.60205E-003	5.48436E-003	5.76566E-004	...........
	6	1.80833	5.55755E-003	5.46601E-003	5.75566E-004	...........
	7	2.06667	5.52046E-003	5.44668E-003	5.76199E-004	...........
	8	2.325	5.49146E-003	5.43498E-003	5.80599E-004	...........
	9	2.58333	5.46898E-003	5.42435E-003	5.73699E-004	...........
	10	2.84167	5.45144E-003	5.41886E-003	5.73866E-004	...........
	11	3.1	5.43787E-003	5.41274E-003	5.70832E-004	...........
	12	3.35833	5.42764E-003	5.41132E-003	5.71399E-004	...........
	13	3.61667	5.42034E-003	5.41516E-003	5.74699E-004	...........
	14	3.875	5.41589E-003	5.41704E-003	5.77066E-004	...........
	15	4.13333	5.41423E-003	5.41902E-003	5.73466E-004	...........
	16	4.39167	5.41467E-003	5.41588E-003	5.70766E-004	...........
	17	4.65	5.41594E-003	5.42039E-003	5.74565E-004	...........
	18	4.90833	5.41718E-003	5.42231E-003	5.70332E-004	...........
EOC	QUANT	0.0054172	Open Circuit (V)
PSTATMODEL	IQUANT	4	Pstat Model
PSTATSECTION	LABEL	REF600-11020	Pstat Section
PSTATSERIALNO	LABEL	11020	Pstat Serial Number
CTRLMODE	IQUANT	1	Control Mode
IESTAB	IQUANT	0	I/E Stability
CASPEED	IQUANT	1	Control Amp Speed
CONVENTION	IQUANT	1	Current Convention
ICHRANGE	IQUANT	2	Ich Range
ICHRANGEMODE	TOGGLE	F	Ich Auto Range
ICHOFFSETENABLE	TOGGLE	T	Ich Offset Enable
ICHOFFSET	QUANT	0	Ich Offset (V)
ICHFILTER	IQUANT	3	Ich Filter
VCHRANGE	IQUANT	2	Vch Range
VCHRANGEMODE	TOGGLE	F	Vch Auto Range
VCHOFFSETENABLE	TOGGLE	T	Vch Offset Enable
VCHOFFSET	QUANT	0	Vch Offset (V)
VCHFILTER	IQUANT	3	Vch Filter
ACHRANGE	IQUANT	2	Ach Range
ACHOFFSETENABLE	TOGGLE	F	Ach Offset Enable
ACHOFFSET	QUANT	0	Ach Offset (V)
ACHFILTER	IQUANT	3	Ach Filter
IERANGELOWERLIMIT	IQUANT	1	I/E Range Lower Limit
IERANGEMODE	TOGGLE	F	I/E AutoRange
IERANGE	IQUANT	5	I/E Range
POSFEEDENABLE	TOGGLE	F	Positive Feedback IR Comp
POSFEEDRESISTANCE	QUANT	0	Positive Feedback Resistance (ohm)
ACHSELECT	IQUANT	0	Ach Select
CABLEID	IQUANT	14	Cable ID
DCCALDATE	LABEL	8/19/2019	DC Calibration Date
ACCALDATE	LABEL	8/19/2019	AC Calibration Date
THERMOSELECT	IQUANT	1	Thermo Select
FRAMEWORKVERSION	QUANT	6.33	Framework Version
INSTRUMENTVERSION	LABEL	3.50	Instrument Version
ZCURVE	TABLE
	Pt	Time	Freq	Zreal	Zimag	Zsig	Zmod	Zphz	Idc	Vdc	IERange
	#	s	Hz	ohm	ohm	V	ohm	°	A	V	#
	0	2	1000078	2184.512	-1524.66	1	2663.96	-34.91277	-4.427983E-006	0.0091036	8
	1	3	794390.6	2515.302	-1476.121	1	2916.449	-30.40682	4.288861E-006	0.0077617	8
	2	5	630984.4	2795.27	-1371.508	1	3113.61	-26.13502	-2.872296E-006	0.0077677	8
	3	6	501234.4	3032.697	-1244.261	1	3278.023	-22.30746	5.166427E-006	0.0070727	8
	4	7	398109.4	3211.016	-1097.035	1	3393.245	-18.86259	-1.260927E-006	0.0067418	8
	5	9	316265.6	3358.112	-945.7281	1	3488.741	-15.72855	4.473585E-006	0.0069993	8
	6	10	251203.1	3465.504	-818.5384	1	3560.86	-13.28948	-4.171221E-006	0.0076425	8
	7	12	199546.9	3553.437	-705.5543	1	3622.805	-11.23033	-2.641317E-006	0.0069453	8
	8	13	158578.1	3626.539	-609.4892	1	3677.398	-9.54018	-2.017124E-006	0.0071599	8
	9	15	125953.1	3705.746	-477.0439	1	3736.325	-7.335394	4.140306E-006	0.0021004	7
	10	16	100078.1	3727.054	-420.5099	1	3750.701	-6.437251	1.4132E-007	0.0054712	7
	11	17	79453.13	3755.22	-391.599	1	3775.583	-5.953356	9.150458E-007	0.0067707	7
	12	19	63140.62	3784.443	-366.0852	1	3802.108	-5.525272	-3.298379E-007	0.0060306	7
	13	20	50203.12	3815.061	-355.7193	1	3831.609	-5.326903	1.215516E-006	0.0053719	7
	14	21	39890.62	3838.88	-349.9601	1	3854.799	-5.208801	-1.349105E-006	0.0081894	7
	15	23	31640.63	3867.386	-356.8156	1	3883.811	-5.271342	-1.352351E-006	0.0081831	7
	16	24	25171.88	3896.894	-371.8848	1	3914.598	-5.45129	-7.998645E-007	0.0067968	7
	17	25	20015.62	3932.384	-397.674	1	3952.441	-5.774574	-1.350315E-006	0.0081851	7
	18	27	15890.62	3962.166	-431.2451	1	3985.565	-6.211665	7.540011E-008	0.008065	7
	19	28	12609.37	3989.343	-478.632	1	4017.953	-6.841512	-3.26153E-007	0.008499	7
	20	30	10078.13	4034.027	-535.906	1	4069.468	-7.567231	1.123513E-006	0.0062111	7
	21	31	8015.625	4068.202	-606.3138	1	4113.135	-8.476812	1.098651E-006	0.0051093	7
	22	32	6328.125	4109.611	-708.8547	1	4170.297	-9.78648	1.097378E-006	0.0051075	7
	23	34	5015.625	4152.34	-827.4216	1	4233.976	-11.26951	-3.301036E-007	0.0060256	7
	24	35	3984.375	4209.815	-975.298	1	4321.314	-13.04374	-1.157335E-006	0.0075488	7
	25	36	3170.956	4253.379	-1155.038	1	4407.42	-15.19273	-1.365273E-006	0.0086039	7
	26	38	2527.573	4319.251	-1378.126	1	4533.78	-17.69611	1.125839E-006	0.0062126	7
	27	39	1976.103	4392.454	-1675.107	1	4701.025	-20.87486	-1.15671E-006	0.0075502	7
	28	40	1577.524	4484.745	-2003.672	1	4911.989	-24.0739	-8.016147E-007	0.0068017	7
	29	42	1265.625	4571.447	-2413.524	1	5169.451	-27.83209	8.750138E-007	0.0050134	7
	30	43	998.264	4698.76	-2936.093	1	5540.667	-31.99985	1.226139E-006	0.005732	7
	31	44	796.875	4835.345	-3542.181	1	5993.964	-36.22501	-1.365021E-006	0.0086021	7
	32	46	627.7902	5001.71	-4335.64	1	6619.281	-40.91977	5.528436E-007	0.0051241	7
	33	47	505.5147	5184.525	-5207.223	1	7348.093	-45.12514	-3.310553E-007	0.0060234	7
	34	49	397.9953	5421.557	-6402.474	1	8389.574	-49.74238	4.793911E-009	0.0070118	7
	35	50	315.5048	5698.763	-7833.556	1	9687.13	-53.96482	7.009014E-009	0.0070041	7
	36	51	252.4038	6025.084	-9521.83	1	11267.96	-57.67579	7.782137E-011	0.0069425	6
	37	53	198.6229	6456.353	-11761.2	1	13416.79	-61.23526	1.026814E-009	0.006947	6
	38	54	158.3615	6966.25	-14372.05	1	15971.36	-64.14015	-1.827105E-010	0.00695	6
	39	56	125.558	7632.88	-17662.77	1	19241.47	-66.62865	4.802108E-010	0.0069498	6
	40	57	100.4464	8437.937	-21523.55	1	23118.43	-68.59319	8.162782E-010	0.0069364	6
	41	58	79.00281	9584.74	-26702.73	1	28370.81	-70.25479	6.248995E-010	0.0069416	6
	42	60	63.3446	10966	-32730.67	1	34518.83	-71.47722	1.177727E-009	0.0069414	6
	43	61	49.86702	12858	-39715.84	1	41745.37	-72.06064	1.897975E-009	0.0069355	6
	44	62	39.72458	15618.7	-48634.01	1	51080.43	-72.19569	5.73001E-010	0.006953	6
	45	64	31.6723	18801.53	-59199.88	1	62113.79	-72.38046	1.029898E-009	0.0069524	6
	46	65	24.93351	23655.56	-72376.41	1	76144.13	-71.9005	4.344872E-010	0.0069405	6
	47	67	19.86229	29662.52	-87569.45	1	92456.88	-71.28715	1.224316E-009	0.0069422	6
	48	68	15.83615	37323.5	-104006.9	1	110501	-70.25917	9.596283E-010	0.0069563	5
	49	69	12.40079	49580.67	-127180.2	1	136502.9	-68.70189	-1.313416E-009	0.0069604	5
	50	71	9.93114	61735.41	-150027.2	1	162232.6	-67.63309	-6.547339E-010	0.0069513	5
	51	73	7.944915	77831.75	-175864.6	1	192317.8	-66.12743	1.205989E-009	0.0069473	5
	52	74	6.317385	97980	-205802.5	1	227935.8	-64.54147	7.046037E-011	0.006975	5
	53	76	5.008013	122995.1	-238929.7	1	268728.9	-62.76172	2.160718E-010	0.0069453	5
	54	79	3.945707	153268.4	-276017.4	1	315716.3	-60.95723	4.8953E-010	0.0069615	5
	55	81	3.158693	186188.7	-313883.4	1	364950.7	-59.32452	1.927123E-011	0.0069515	5
	56	85	2.504006	224459	-356533.3	1	421304.9	-57.80713	4.592363E-010	0.0069436	5
	57	87	1.998082	264741.3	-401487.9	1	480916.3	-56.59913	-1.765768E-011	0.0069905	5
	58	91	1.584686	308686.4	-454392	1	549326.3	-55.81019	2.369318E-010	0.006973	5
	59	94	1.266892	355474.4	-511294.3	1	622723	-55.19127	-2.592559E-011	0.0069916	5
	60	98	0.999041	406420.8	-582648.4	1	710392.1	-55.10267	1.813577E-010	0.0069247	5
