EXPLAIN
TAG	EISPOT
TITLE	LABEL	Potentiostatic IDE	Test &Identifier
DATE	LABEL	9/14/2019	Date
TIME	LABEL	12:35:55	Time
NOTES	NOTES	1	&Notes...
	
PSTAT	PSTAT	REF600-11020	Potentiostat
VDC	POTEN	0.00000E+000	T	DC &Voltage (V)
FREQINIT	QUANT	1.00000E+006	Initial Fre&q. (Hz)
FREQFINAL	QUANT	1.00000E+000	Final Fre&q. (Hz)
PTSPERDEC	QUANT	1.00000E+001	Points/&decade
VAC	QUANT	2.50000E+001	AC &Voltage (mV rms)
AREA	QUANT	1.00000E-002	&Area (cm^2)
CONDIT	TWOPARAM	T	5.00000E+000	0.00000E+000	Conditionin&g	Time(s)	E(V)
DELAY	TWOPARAM	T	5.00000E+000	0.00000E+000	Init. De&lay	Time(s)	Stab.(mV/s)
SPEED	SELECTOR	1	&Optimize for:
ZGUESS	QUANT	1.00000E+007	E&stimated Z (ohms)
OCVCURVE	TABLE	19
	Pt	T	Vf	Vm	Ach	Over
	#	s	V vs. Ref.	V	V	bits
	0	0.258333	-9.50911E-003	-9.50911E-003	5.67299E-004	...........
	1	0.516667	-9.53154E-003	-1.06836E-002	5.68899E-004	...........
	2	0.775	-9.67376E-003	-1.20290E-002	5.68199E-004	...........
	3	1.03333	-1.00854E-002	-1.30363E-002	5.69432E-004	...........
	4	1.29167	-1.08247E-002	-1.38993E-002	5.68032E-004	...........
	5	1.55	-1.17832E-002	-1.46558E-002	5.71499E-004	...........
	6	1.80833	-1.27880E-002	-1.54764E-002	5.68999E-004	...........
	7	2.06667	-1.37328E-002	-1.63261E-002	5.66399E-004	...........
	8	2.325	-1.45989E-002	-1.68002E-002	5.64599E-004	...........
	9	2.58333	-1.53950E-002	-1.74712E-002	5.66999E-004	...........
	10	2.84167	-1.61217E-002	-1.80809E-002	5.64566E-004	...........
	11	3.1	-1.67878E-002	-1.86596E-002	5.64499E-004	...........
	12	3.35833	-1.74146E-002	-1.92238E-002	5.67899E-004	...........
	13	3.61667	-1.80161E-002	-1.97034E-002	5.63932E-004	...........
	14	3.875	-1.85917E-002	-2.01497E-002	5.66332E-004	...........
	15	4.13333	-1.91334E-002	-2.06051E-002	5.65499E-004	...........
	16	4.39167	-1.96379E-002	-2.10449E-002	5.62532E-004	...........
	17	4.65	-2.01113E-002	-2.14601E-002	5.67132E-004	...........
	18	4.90833	-2.05629E-002	-2.18702E-002	5.54933E-004	...........
EOC	QUANT	-0.0205629	Open Circuit (V)
PSTATMODEL	IQUANT	4	Pstat Model
PSTATSECTION	LABEL	REF600-11020	Pstat Section
PSTATSERIALNO	LABEL	11020	Pstat Serial Number
CTRLMODE	IQUANT	1	Control Mode
IESTAB	IQUANT	0	I/E Stability
CASPEED	IQUANT	1	Control Amp Speed
CONVENTION	IQUANT	1	Current Convention
ICHRANGE	IQUANT	2	Ich Range
ICHRANGEMODE	TOGGLE	F	Ich Auto Range
ICHOFFSETENABLE	TOGGLE	T	Ich Offset Enable
ICHOFFSET	QUANT	0	Ich Offset (V)
ICHFILTER	IQUANT	3	Ich Filter
VCHRANGE	IQUANT	2	Vch Range
VCHRANGEMODE	TOGGLE	F	Vch Auto Range
VCHOFFSETENABLE	TOGGLE	T	Vch Offset Enable
VCHOFFSET	QUANT	0	Vch Offset (V)
VCHFILTER	IQUANT	3	Vch Filter
ACHRANGE	IQUANT	2	Ach Range
ACHOFFSETENABLE	TOGGLE	F	Ach Offset Enable
ACHOFFSET	QUANT	0	Ach Offset (V)
ACHFILTER	IQUANT	3	Ach Filter
IERANGELOWERLIMIT	IQUANT	1	I/E Range Lower Limit
IERANGEMODE	TOGGLE	F	I/E AutoRange
IERANGE	IQUANT	3	I/E Range
POSFEEDENABLE	TOGGLE	F	Positive Feedback IR Comp
POSFEEDRESISTANCE	QUANT	0	Positive Feedback Resistance (ohm)
ACHSELECT	IQUANT	0	Ach Select
CABLEID	IQUANT	14	Cable ID
DCCALDATE	LABEL	8/19/2019	DC Calibration Date
ACCALDATE	LABEL	8/19/2019	AC Calibration Date
THERMOSELECT	IQUANT	1	Thermo Select
FRAMEWORKVERSION	QUANT	6.33	Framework Version
INSTRUMENTVERSION	LABEL	3.50	Instrument Version
ZCURVE	TABLE
	Pt	Time	Freq	Zreal	Zimag	Zsig	Zmod	Zphz	Idc	Vdc	IERange
	#	s	Hz	ohm	ohm	V	ohm	°	A	V	#
	0	2	1000078	2191.838	-2129.594	1	3056.031	-44.17479	1.849996E-006	-0.0191109	8
	1	3	794390.6	2646.497	-2162.932	1	3417.926	-39.25848	-6.536215E-008	-0.0188318	8
	2	5	630984.4	3081.362	-2105.665	1	3732.106	-34.34695	-6.841391E-007	-0.0185354	8
	3	6	501234.4	3494.146	-1992.806	1	4022.479	-29.69728	6.468184E-007	-0.0189415	8
	4	8	398109.4	3852.269	-1814.916	1	4258.391	-25.22649	-9.71866E-007	-0.0186214	8
	5	9	316265.6	4151.377	-1648.591	1	4466.742	-21.65896	3.973212E-006	-0.0196602	8
	6	11	251203.1	4368.996	-1446.762	1	4602.309	-18.32192	-3.734973E-006	-0.0181724	8
	7	12	199546.9	4537.432	-1262.305	1	4709.746	-15.54646	5.353447E-006	-0.0199254	8
	8	14	158578.1	4658.705	-1107.5	1	4788.537	-13.37253	1.109657E-008	-0.0190674	8
	9	15	125953.1	4778.267	-931.7172	1	4868.258	-11.03369	-1.063746E-006	-0.0164108	7
	10	16	100078.1	4871.409	-846.4975	1	4944.41	-9.85777	-1.918272E-009	-0.0190255	7
	11	18	79453.13	4942.366	-789.3108	1	5004.997	-9.073685	-3.149662E-009	-0.019031	7
	12	19	63140.62	5005.223	-758.8274	1	5062.417	-8.620799	-3.809973E-008	-0.0189527	7
	13	20	50203.12	5069.441	-742.3337	1	5123.504	-8.330788	-3.963119E-008	-0.0189577	7
	14	22	39890.62	5130.471	-750.0748	1	5185.011	-8.317715	-1.369484E-008	-0.018928	7
	15	23	31640.63	5195.831	-775.2014	1	5253.342	-8.485753	1.999412E-008	-0.0190648	7
	16	24	25171.88	5264.717	-820.5929	1	5328.285	-8.859208	-3.850449E-008	-0.0189296	7
	17	26	20015.62	5338.557	-883.6135	1	5411.188	-9.398131	-7.014005E-008	-0.0188771	7
	18	27	15890.62	5418.819	-955.105	1	5502.348	-9.99611	1.343003E-007	-0.0191803	7
	19	28	12609.37	5510.789	-1074.423	1	5614.55	-11.0324	1.3651E-007	-0.0191785	7
	20	30	10078.13	5613.865	-1201.964	1	5741.098	-12.08493	4.604609E-008	-0.019126	7
	21	31	8015.625	5718.932	-1356.667	1	5877.646	-13.34524	-3.949524E-008	-0.0189366	7
	22	32	6328.125	5846.383	-1552.016	1	6048.88	-14.86717	-4.348484E-008	-0.0188388	7
	23	34	5015.625	5981.334	-1778.875	1	6240.253	-16.5627	3.918578E-008	-0.0190285	7
	24	35	3984.375	6132.688	-2052.879	1	6467.161	-18.50765	7.757178E-008	-0.0191202	7
	25	36	3170.956	6296.529	-2375.448	1	6729.713	-20.66964	-3.665581E-008	-0.0189629	7
	26	38	2527.573	6478.663	-2761.941	1	7042.826	-23.0892	-7.189671E-008	-0.0188915	7
	27	39	1976.103	6701.782	-3268.555	1	7456.362	-25.99916	6.685881E-009	-0.0190441	7
	28	40	1577.524	6929.236	-3829.715	1	7917.135	-28.92896	4.166847E-008	-0.0190295	7
	29	42	1265.625	7197.158	-4464.353	1	8469.329	-31.81107	-3.853107E-008	-0.0189369	7
	30	43	998.264	7474.266	-5345.353	1	9188.985	-35.57112	7.471113E-008	-0.0191323	7
	31	44	796.875	7804.473	-6338.382	1	10054.1	-39.08169	-8.866506E-009	-0.0189905	6
	32	46	627.7902	8188.594	-7616.646	1	11183.31	-42.92753	-1.242985E-009	-0.0191515	6
	33	47	505.5147	8581.116	-9039.456	1	12463.84	-46.49002	-9.528036E-009	-0.0189657	6
	34	48	397.9953	9095.444	-10954.62	1	14238.35	-50.29768	5.024511E-010	-0.0190327	6
	35	50	315.5048	9671.23	-13242.27	1	16397.88	-53.85822	5.887942E-010	-0.0190285	6
	36	51	252.4038	10319.66	-15928.95	1	18979.64	-57.06259	5.171746E-010	-0.019039	6
	37	52	198.6229	11150.36	-19469.83	1	22436.69	-60.20027	9.885143E-010	-0.0190328	6
	38	54	158.3615	12092.98	-23575.33	1	26495.97	-62.84441	5.354253E-010	-0.0190369	6
	39	55	125.558	13271.09	-28732.4	1	31649.21	-65.20845	9.661739E-010	-0.0190344	6
	40	56	100.4464	14658.9	-34740.13	1	37706.23	-67.12226	1.738022E-009	-0.0190344	6
	41	58	79.00281	16382.35	-42813.22	1	45840.52	-69.06081	5.715038E-010	-0.0190386	6
	42	59	63.3446	19031.25	-52560.54	1	55899.9	-70.09557	4.195056E-010	-0.0190337	6
	43	61	49.86702	21253.36	-63378.36	1	66847	-71.46159	8.263568E-010	-0.0190361	6
	44	62	39.72458	25448.02	-77703.12	1	81764.15	-71.86621	9.548861E-010	-0.0190332	6
	45	63	31.6723	30281.94	-94046.53	1	98801.5	-72.15202	1.199295E-009	-0.0190372	6
	46	65	24.93351	36914.35	-115736	1	121480.4	-72.30976	5.816993E-010	-0.0190321	5
	47	66	19.86229	44829.82	-140344.5	1	147330.5	-72.28512	4.708144E-010	-0.0190346	5
	48	67	15.83615	55253.33	-166994	1	175897.5	-71.69216	1.820357E-009	-0.0190379	5
	49	69	12.40079	71514.17	-209864.5	1	221714.6	-71.18276	-1.185554E-010	-0.0190339	5
	50	70	9.93114	90769.72	-247101.3	1	263245.5	-69.8298	1.001316E-009	-0.0190338	5
	51	72	7.944915	114182.6	-293017	1	314478.4	-68.71017	-1.957722E-011	-0.0190303	5
	52	73	6.317385	148054.2	-348971	1	379078.9	-67.01047	2.801565E-010	-0.0190212	5
	53	75	5.008013	190067.2	-410755	1	452598.3	-65.16877	6.282842E-010	-0.0190266	5
	54	78	3.945707	245016.4	-481198.7	1	539986.3	-63.01575	3.748639E-010	-0.0190309	5
	55	81	3.158693	306468.8	-551907.3	1	631288.1	-60.95701	5.850307E-010	-0.019012	5
	56	84	2.504006	383588.6	-630118.1	1	737691.7	-58.66876	2.283429E-010	-0.0190223	5
	57	87	1.998082	466941.8	-706486.9	1	846852	-56.5379	6.346089E-010	-0.0190515	5
	58	90	1.584686	566671.3	-792055.1	1	973893	-54.4184	3.685343E-010	-0.019082	5
	59	93	1.266892	668686.8	-877197.7	1	1103004	-52.68177	5.59894E-010	-0.0190472	4
	60	97	0.999041	790107.2	-977530	1	1256915	-51.05247	1.304213E-010	-0.0190528	4
