EXPLAIN
TAG	EISPOT
TITLE	LABEL	Potentiostatic EIS	Test &Identifier
DATE	LABEL	10/22/2019	Date
TIME	LABEL	10:02:22	Time
NOTES	NOTES	1	&Notes...
	
PSTAT	PSTAT	REF600-11020	Potentiostat
VDC	POTEN	0.00000E+000	T	DC &Voltage (V)
FREQINIT	QUANT	1.00000E+006	Initial Fre&q. (Hz)
FREQFINAL	QUANT	1.00000E+000	Final Fre&q. (Hz)
PTSPERDEC	QUANT	1.00000E+001	Points/&decade
VAC	QUANT	2.50000E+001	AC &Voltage (mV rms)
AREA	QUANT	1.00000E-002	&Area (cm^2)
CONDIT	TWOPARAM	T	5.00000E+000	0.00000E+000	Conditionin&g	Time(s)	E(V)
DELAY	TWOPARAM	T	5.00000E+000	0.00000E+000	Init. De&lay	Time(s)	Stab.(mV/s)
SPEED	SELECTOR	1	&Optimize for:
ZGUESS	QUANT	1.00000E+005	E&stimated Z (ohms)
OCVCURVE	TABLE	19
	Pt	T	Vf	Vm	Ach	Over
	#	s	V vs. Ref.	V	V	bits
	0	0.258333	5.46235E-003	5.46235E-003	5.67699E-004	...........
	1	0.516667	5.46385E-003	5.54070E-003	5.68266E-004	...........
	2	0.775	5.47161E-003	5.54012E-003	5.60499E-004	...........
	3	1.03333	5.48919E-003	5.55934E-003	5.64566E-004	...........
	4	1.29167	5.51422E-003	5.63705E-003	5.70132E-004	...........
	5	1.55	5.54408E-003	5.66625E-003	5.61832E-004	...........
	6	1.80833	5.58453E-003	5.96217E-003	5.63699E-004	...........
	7	2.06667	5.65370E-003	6.17856E-003	5.70799E-004	...........
	8	2.325	5.77381E-003	6.44781E-003	5.68366E-004	...........
	9	2.58333	5.94983E-003	6.60037E-003	5.62932E-004	...........
	10	2.84167	6.15343E-003	6.39617E-003	5.57466E-004	...........
	11	3.1	6.32423E-003	6.22246E-003	5.67066E-004	...........
	12	3.35833	6.40231E-003	6.15702E-003	5.62532E-004	...........
	13	3.61667	6.37819E-003	6.14415E-003	5.60799E-004	...........
	14	3.875	6.29856E-003	6.14469E-003	5.64466E-004	...........
	15	4.13333	6.21848E-003	6.08056E-003	5.66399E-004	...........
	16	4.39167	6.16050E-003	6.00528E-003	5.61066E-004	...........
	17	4.65	6.11625E-003	5.97639E-003	5.65266E-004	...........
	18	4.90833	6.07377E-003	6.00810E-003	5.55399E-004	...........
EOC	QUANT	0.0060738	Open Circuit (V)
PSTATMODEL	IQUANT	4	Pstat Model
PSTATSECTION	LABEL	REF600-11020	Pstat Section
PSTATSERIALNO	LABEL	11020	Pstat Serial Number
CTRLMODE	IQUANT	1	Control Mode
IESTAB	IQUANT	0	I/E Stability
CASPEED	IQUANT	1	Control Amp Speed
CONVENTION	IQUANT	1	Current Convention
ICHRANGE	IQUANT	2	Ich Range
ICHRANGEMODE	TOGGLE	F	Ich Auto Range
ICHOFFSETENABLE	TOGGLE	T	Ich Offset Enable
ICHOFFSET	QUANT	0	Ich Offset (V)
ICHFILTER	IQUANT	3	Ich Filter
VCHRANGE	IQUANT	2	Vch Range
VCHRANGEMODE	TOGGLE	F	Vch Auto Range
VCHOFFSETENABLE	TOGGLE	T	Vch Offset Enable
VCHOFFSET	QUANT	0	Vch Offset (V)
VCHFILTER	IQUANT	3	Vch Filter
ACHRANGE	IQUANT	2	Ach Range
ACHOFFSETENABLE	TOGGLE	F	Ach Offset Enable
ACHOFFSET	QUANT	0	Ach Offset (V)
ACHFILTER	IQUANT	3	Ach Filter
IERANGELOWERLIMIT	IQUANT	1	I/E Range Lower Limit
IERANGEMODE	TOGGLE	F	I/E AutoRange
IERANGE	IQUANT	5	I/E Range
POSFEEDENABLE	TOGGLE	F	Positive Feedback IR Comp
POSFEEDRESISTANCE	QUANT	0	Positive Feedback Resistance (ohm)
ACHSELECT	IQUANT	0	Ach Select
CABLEID	IQUANT	14	Cable ID
DCCALDATE	LABEL	8/19/2019	DC Calibration Date
ACCALDATE	LABEL	8/19/2019	AC Calibration Date
THERMOSELECT	IQUANT	1	Thermo Select
FRAMEWORKVERSION	QUANT	6.33	Framework Version
INSTRUMENTVERSION	LABEL	3.50	Instrument Version
ZCURVE	TABLE
	Pt	Time	Freq	Zreal	Zimag	Zsig	Zmod	Zphz	Idc	Vdc	IERange
	#	s	Hz	ohm	ohm	V	ohm	°	A	V	#
	0	2	1000078	2331.153	-1754.297	1	2917.504	-36.96311	-4.204611E-006	0.0083298	8
	1	3	794390.6	2664.641	-1741.885	1	3183.469	-33.17278	4.25199E-006	0.0073064	8
	2	5	630984.4	2982.469	-1699.441	1	3432.669	-29.67492	1.192262E-006	0.0074506	8
	3	6	501234.4	3273.519	-1626.617	1	3655.381	-26.42286	1.985085E-006	0.0073198	8
	4	7	398109.4	3565.606	-1520.179	1	3876.144	-23.09075	1.120261E-006	0.00742	8
	5	9	316265.6	3807.291	-1397.062	1	4055.521	-20.1503	1.198871E-006	0.007408	8
	6	10	251203.1	4006.482	-1272.525	1	4203.715	-17.62071	3.35731E-006	0.006774	8
	7	12	199546.9	4192.328	-1133.448	1	4342.846	-15.12892	-1.608651E-007	0.0074701	8
	8	13	158578.1	4309.213	-987.854	1	4420.993	-12.91152	1.886353E-006	0.0072882	8
	9	14	125953.1	4502.643	-824.5605	1	4577.52	-10.37748	-1.419845E-006	0.010612	7
	10	16	100078.1	4569.894	-730.2947	1	4627.878	-9.079417	-6.75975E-008	0.0076764	7
	11	17	79453.13	4646.038	-650.1308	1	4691.304	-7.965807	-4.856366E-008	0.0075454	7
	12	18	63140.62	4705.612	-584.9848	1	4741.834	-7.086449	-8.437946E-008	0.0076469	7
	13	20	50203.12	4756.807	-532.6609	1	4786.537	-6.389289	-1.045066E-008	0.0075253	7
	14	21	39890.62	4798.246	-494.8717	1	4823.698	-5.888436	-6.540032E-008	0.0076689	7
	15	22	31640.63	4840.299	-470.6598	1	4863.128	-5.553853	4.919811E-008	0.0073539	7
	16	24	25171.88	4877.905	-459.8208	1	4899.53	-5.385132	1.158228E-007	0.0073323	7
	17	25	20015.62	4917.813	-460.783	1	4939.352	-5.3528	3.14878E-010	0.0074882	7
	18	27	15890.62	4948.318	-473.9337	1	4970.962	-5.470914	-6.818041E-008	0.0076163	7
	19	28	12609.37	4986.592	-501.3226	1	5011.729	-5.740891	-5.171721E-008	0.0076209	7
	20	29	10078.13	5021.568	-540.0067	1	5050.521	-6.137855	4.697123E-008	0.007361	7
	21	31	8015.625	5066.066	-595.9362	1	5100.997	-6.709038	-4.300509E-008	0.0075302	7
	22	32	6328.125	5099.756	-672.1776	1	5143.864	-7.508636	-5.332369E-008	0.0076229	7
	23	33	5015.625	5141.047	-768.9003	1	5198.228	-8.506166	9.54841E-008	0.0073213	7
	24	35	3984.375	5189.997	-891.1028	1	5265.941	-9.74247	-6.034183E-008	0.0075552	7
	25	36	3170.956	5229.413	-1048.136	1	5333.418	-11.33367	-9.721406E-008	0.0076637	7
	26	37	2527.573	5276.56	-1240.103	1	5420.327	-13.2257	-7.099329E-008	0.007612	7
	27	39	1976.103	5336.928	-1505.125	1	5545.106	-15.74956	5.047013E-008	0.0074511	7
	28	40	1577.524	5403.967	-1816.261	1	5701.022	-18.57738	4.593515E-008	0.0074437	7
	29	42	1265.625	5471.964	-2172.839	1	5887.582	-21.65732	8.914484E-009	0.0074983	7
	30	43	998.264	5562.461	-2657.134	1	6164.522	-25.53335	4.980459E-008	0.0074603	7
	31	44	796.875	5669.868	-3226.801	1	6523.775	-29.64481	5.067357E-008	0.0074609	7
	32	46	627.7902	5802.514	-3974.265	1	7033.062	-34.40807	9.68296E-008	0.0073176	7
	33	47	505.5147	5952.472	-4816.314	1	7656.945	-38.97731	-1.274396E-008	0.0075832	7
	34	48	397.9953	6161.527	-5950.02	1	8565.463	-43.99953	4.49873E-009	0.0075341	7
	35	50	315.5048	6415.477	-7314.982	1	9729.71	-48.74818	5.213455E-009	0.0075391	7
	36	51	252.4038	6723.475	-8922.366	1	11172.01	-53.00004	2.10457E-010	0.0074727	6
	37	53	198.6229	7144.871	-11048.08	1	13157.1	-57.10897	9.332386E-010	0.0074776	6
	38	54	158.3615	7657.381	-13517.48	1	15535.69	-60.46932	5.111258E-010	0.00747	6
	39	55	125.558	8345.809	-16616.02	1	18594.21	-63.33078	7.870282E-010	0.0074782	6
	40	57	100.4464	9185.061	-20230.74	1	22218.19	-65.58123	4.38333E-010	0.0074735	6
	41	58	79.00281	10451.23	-25006.82	1	27102.94	-67.31824	3.196509E-010	0.007473	6
	42	59	63.3446	12008.49	-30490.05	1	32769.61	-68.50302	6.207807E-010	0.00747	6
	43	61	49.86702	13797.54	-37149.36	1	39628.86	-69.62464	1.16468E-009	0.007471	6
	44	62	39.72458	16511.52	-45161.93	1	48085.65	-69.91723	6.993864E-010	0.0074722	6
	45	64	31.6723	20054.31	-54514.12	1	58085.84	-69.80276	8.2831E-010	0.0074667	6
	46	65	24.93351	24564.42	-66414.51	1	70811.7	-69.70232	2.497967E-010	0.0074714	6
	47	66	19.86229	30199.21	-79603.88	1	85139.7	-69.22483	3.244356E-010	0.0074736	6
	48	68	15.83615	36684.47	-94985.86	1	101823.7	-68.88295	1.638393E-009	0.0074733	6
	49	69	12.40079	47443.45	-114428.6	1	123874	-67.48052	-3.821153E-011	0.0074805	5
	50	71	9.93114	58873.51	-135216.7	1	147477.6	-66.47164	6.645856E-010	0.0074747	5
	51	72	7.944915	73133.28	-157691.5	1	173824.9	-65.11933	-7.428549E-010	0.0074753	5
	52	74	6.317385	91279.4	-185202.3	1	206474.7	-63.76301	4.192794E-010	0.0074635	5
	53	76	5.008013	113830.7	-215667.1	1	243864.2	-62.17456	1.636976E-010	0.0074837	5
	54	78	3.945707	141603.2	-249984.4	1	287304.1	-60.47071	-2.478709E-010	0.0074724	5
	55	81	3.158693	172066.3	-284472.1	1	332462.3	-58.83186	3.625728E-010	0.0074849	5
	56	84	2.504006	208690.3	-323480.3	1	384956	-57.17229	-4.297473E-010	0.0074761	5
	57	87	1.998082	247912.8	-362776.8	1	439394.7	-55.65225	-1.239349E-010	0.0074364	5
	58	90	1.584686	290331	-406694.3	1	499692.3	-54.47772	-7.438447E-011	0.0075107	5
	59	94	1.266892	335259.7	-456071.7	1	566039.3	-53.68028	-1.398204E-010	0.007451	5
	60	98	0.999041	385055.1	-514250.5	1	642433.7	-53.17525	2.819207E-010	0.0075157	5
