EXPLAIN
TAG	EISPOT
TITLE	LABEL	Potentiostatic EIS	Test &Identifier
DATE	LABEL	10/10/2019	Date
TIME	LABEL	10:15:43	Time
NOTES	NOTES	1	&Notes...
	
PSTAT	PSTAT	REF600-11020	Potentiostat
VDC	POTEN	0.00000E+000	T	DC &Voltage (V)
FREQINIT	QUANT	1.00000E+006	Initial Fre&q. (Hz)
FREQFINAL	QUANT	1.00000E+000	Final Fre&q. (Hz)
PTSPERDEC	QUANT	1.00000E+001	Points/&decade
VAC	QUANT	2.50000E+001	AC &Voltage (mV rms)
AREA	QUANT	1.00000E-002	&Area (cm^2)
CONDIT	TWOPARAM	T	5.00000E+000	0.00000E+000	Conditionin&g	Time(s)	E(V)
DELAY	TWOPARAM	T	5.00000E+000	0.00000E+000	Init. De&lay	Time(s)	Stab.(mV/s)
SPEED	SELECTOR	1	&Optimize for:
ZGUESS	QUANT	1.00000E+004	E&stimated Z (ohms)
OCVCURVE	TABLE	19
	Pt	T	Vf	Vm	Ach	Over
	#	s	V vs. Ref.	V	V	bits
	0	0.258333	1.76914E-001	1.76914E-001	5.71066E-004	...........
	1	0.516667	1.72879E-001	-3.43309E-002	5.66666E-004	...........
	2	0.775	1.53047E-001	2.44969E-002	5.67866E-004	...........
	3	1.03333	1.11149E-001	-3.65141E-002	5.66566E-004	...........
	4	1.29167	5.98175E-002	-1.30389E-002	5.66966E-004	...........
	5	1.55	1.77478E-002	-1.67332E-002	5.74599E-004	...........
	6	1.80833	-7.30485E-003	-3.27585E-002	5.75165E-004	.........v.
	7	2.06667	-1.93442E-002	-5.64812E-002	5.72099E-004	...........
	8	2.325	-2.65614E-002	-2.59310E-002	5.68399E-004	...........
	9	2.58333	-3.23205E-002	-1.67149E-002	5.68832E-004	...........
	10	2.84167	-3.38390E-002	-1.00346E-002	5.67799E-004	...........
	11	3.1	-2.93607E-002	-5.28620E-003	5.68832E-004	...........
	12	3.35833	-2.13910E-002	-9.40048E-004	5.73066E-004	...........
	13	3.61667	-1.27545E-002	3.25144E-002	5.69999E-004	.........v.
	14	3.875	-1.33479E-003	1.34895E-001	5.68332E-004	...........
	15	4.13333	2.20195E-002	2.38713E-001	5.70466E-004	...........
	16	4.39167	6.55094E-002	2.09229E-001	5.71432E-004	...........
	17	4.65	1.19603E-001	8.08880E-002	5.75066E-004	...........
	18	4.90833	1.56513E-001	9.31536E-002	5.76066E-004	...........
EOC	QUANT	0.1565135	Open Circuit (V)
PSTATMODEL	IQUANT	4	Pstat Model
PSTATSECTION	LABEL	REF600-11020	Pstat Section
PSTATSERIALNO	LABEL	11020	Pstat Serial Number
CTRLMODE	IQUANT	1	Control Mode
IESTAB	IQUANT	0	I/E Stability
CASPEED	IQUANT	1	Control Amp Speed
CONVENTION	IQUANT	1	Current Convention
ICHRANGE	IQUANT	2	Ich Range
ICHRANGEMODE	TOGGLE	F	Ich Auto Range
ICHOFFSETENABLE	TOGGLE	T	Ich Offset Enable
ICHOFFSET	QUANT	0	Ich Offset (V)
ICHFILTER	IQUANT	3	Ich Filter
VCHRANGE	IQUANT	2	Vch Range
VCHRANGEMODE	TOGGLE	F	Vch Auto Range
VCHOFFSETENABLE	TOGGLE	T	Vch Offset Enable
VCHOFFSET	QUANT	0	Vch Offset (V)
VCHFILTER	IQUANT	3	Vch Filter
ACHRANGE	IQUANT	2	Ach Range
ACHOFFSETENABLE	TOGGLE	F	Ach Offset Enable
ACHOFFSET	QUANT	0	Ach Offset (V)
ACHFILTER	IQUANT	3	Ach Filter
IERANGELOWERLIMIT	IQUANT	1	I/E Range Lower Limit
IERANGEMODE	TOGGLE	F	I/E AutoRange
IERANGE	IQUANT	7	I/E Range
POSFEEDENABLE	TOGGLE	F	Positive Feedback IR Comp
POSFEEDRESISTANCE	QUANT	0	Positive Feedback Resistance (ohm)
ACHSELECT	IQUANT	0	Ach Select
CABLEID	IQUANT	14	Cable ID
DCCALDATE	LABEL	8/19/2019	DC Calibration Date
ACCALDATE	LABEL	8/19/2019	AC Calibration Date
THERMOSELECT	IQUANT	1	Thermo Select
FRAMEWORKVERSION	QUANT	6.33	Framework Version
INSTRUMENTVERSION	LABEL	3.50	Instrument Version
ZCURVE	TABLE
	Pt	Time	Freq	Zreal	Zimag	Zsig	Zmod	Zphz	Idc	Vdc	IERange
	#	s	Hz	ohm	ohm	V	ohm	°	A	V	#
	0	1	1000078	935.825	-10010.21	1	10053.86	-84.65911	1.857798E-007	0.1582876	8
	1	3	794390.6	1193.304	-12346.47	1	12404	-84.47942	-5.970622E-006	0.1592565	8
	2	5	630984.4	1287.126	-15340.62	1	15394.52	-85.20393	-1.041478E-006	0.1585112	8
	3	7	501234.4	1559.916	-18896.57	1	18960.85	-85.28092	-1.560539E-007	0.1583302	8
	4	8	398109.4	2267.009	-23776.37	1	23884.2	-84.55347	-3.156287E-007	0.1583019	8
	5	10	316265.6	2317.818	-29847.87	1	29937.72	-85.55964	-1.127329E-006	0.1584553	8
	6	12	251203.1	3134.946	-36334.79	1	36469.77	-85.06876	-2.933986E-006	0.1586366	8
	7	13	199546.9	1192.176	-49377.12	1	49391.51	-88.61691	-1.104649E-006	0.1584125	8
	8	15	158578.1	1834.131	-55979.07	1	56009.11	-88.1234	-3.094217E-006	0.1584958	8
	9	16	125953.1	3791.157	-73212.13	1	73310.23	-87.03569	-2.333882E-007	0.1587985	7
	10	18	100078.1	6333.356	-90006.12	1	90228.67	-85.97497	-1.418826E-008	0.1579456	7
	11	20	79453.13	8058.667	-112324.1	1	112612.8	-85.89635	-2.485378E-008	0.1579549	7
	12	21	63140.62	7817.944	-140888.9	1	141105.6	-86.82391	-1.674721E-008	0.1579386	7
	13	23	50203.12	10959.62	-176520.8	1	176860.7	-86.44725	-1.298185E-008	0.1579248	7
	14	25	39890.62	13572.07	-223661.4	1	224072.8	-86.52747	-6.354085E-008	0.1580196	7
	15	27	31640.63	17094.56	-276978.2	1	277505.2	-86.46829	-4.799037E-008	0.1580166	7
	16	29	25171.88	17522.79	-343483.6	1	343930.3	-87.07959	1.725139E-007	0.1577388	7
	17	30	20015.62	-101393.6	-384505.8	1	397649.8	-104.7725	5.40218E-008	0.1578177	7
	18	32	15890.62	32504.56	-511680.1	1	512711.5	-86.36516	-2.925305E-008	0.1580084	7
	19	34	12609.37	52350.3	-670459.8	1	672500.5	-85.53533	-1.178144E-008	0.158023	6
	20	35	10078.13	58973.29	-832514.5	1	834600.6	-85.94807	2.571008E-008	0.1574637	6
	21	37	8015.625	63076.3	-970634	1	972681	-86.28188	2.852524E-008	0.1575607	6
	22	39	6328.125	78376.68	-1301067	1	1303426	-86.55265	2.781691E-008	0.1575648	6
	23	40	5015.625	65579.95	-1637566	1	1638878	-87.70669	-7.014164E-009	0.15792	6
	24	42	3984.375	96131.2	-1940687	1	1943067	-87.16419	-8.733749E-010	0.1581023	6
	25	43	3170.956	208573.3	-2618396	1	2626690	-85.44561	5.348237E-009	0.1577327	6
	26	45	2527.573	195899.4	-3167866	1	3173917	-86.46136	1.639567E-008	0.1578667	6
	27	47	1976.103	57091.83	-4257756	1	4258139	-89.23177	4.997559E-009	0.1577365	6
	28	48	1577.524	944389.9	-5558588	1	5638242	-80.35767	-1.103041E-008	0.1581548	6
	29	50	1265.625	230618.3	-5929073	1	5933557	-87.77254	1.428616E-009	0.1580133	5
	30	52	998.264	761279.1	-7553277	1	7591544	-84.24471	6.56948E-010	0.1580109	5
	31	54	796.875	1223828	-9.670772E+006	1	9.747902E+006	-82.78761	1.597841E-009	0.1579337	5
	32	56	627.7902	1025025	-1.284426E+007	1	1.288509E+007	-85.43723	7.569371E-011	0.1578847	5
	33	57	505.5147	881245.1	-1.521856E+007	1	1.524405E+007	-86.68594	-7.16433E-010	0.1582255	5
	34	59	397.9953	-1118365	-1.793774E+007	1	1.797257E+007	-93.5676	1.358762E-010	0.1579411	5
	35	60	315.5048	-70091.21	-2.019276E+007	1	2.019288E+007	-90.19888	-2.475471E-010	0.1579382	5
	36	62	252.4038	6223803	-4.019005E+007	1	4.06691E+007	-81.19714	-3.736896E-011	0.1579395	5
	37	63	198.6229	1.310203E+007	-4.652694E+007	1	4.833652E+007	-74.27273	1.080251E-010	0.1579398	5
	38	65	158.3615	3.808117E+007	-6.153916E+007	1	7.236881E+007	-58.25028	4.943295E-010	0.1579427	5
	39	67	125.558	2.606668E+007	-5.545015E+007	1	6.127145E+007	-64.82215	4.399708E-010	0.1579446	5
	40	68	100.4464	-6701553	-5.494941E+007	1	5.535656E+007	-96.9534	1.440708E-010	0.1579396	5
	41	70	79.00281	-2.414681E+007	-7894237	1	2.540448E+007	-161.896	1.981275E-010	0.1579388	4
	42	72	63.3446	-623174.3	5131477	1	5169178	96.9242	-1.449297E-010	0.1579383	4
	43	74	49.86702	-2.032547E+007	4.773319E+007	1	5.188046E+007	113.065	5.77582E-011	0.1579373	4
	44	75	39.72458	-3.848628E+007	4.687219E+007	1	6.064813E+007	129.3891	2.941891E-010	0.157941	4
	45	77	31.6723	3.82414E+007	-1.687257E+007	1	4.179819E+007	-23.80765	9.080207E-011	0.1579378	5
	46	79	24.93351	-1.650746E+008	-8.392387E+007	1	1.851832E+008	-153.0512	4.856633E-010	0.1579307	4
	47	80	19.86229	-2.087103E+008	8.314263E+007	1	2.246613E+008	158.2794	2.322161E-010	0.1579394	4
	48	82	15.83615	-1408292	1.239603E+007	1	1.247577E+007	96.4815	-1.14072E-009	0.1579469	4
	49	84	12.40079	3.218518E+007	-2.231514E+007	1	3.916442E+007	-34.73496	-1.303761E-010	0.1579447	4
	50	86	9.93114	1.303305E+008	-5.740378E+007	1	1.424122E+008	-23.77099	3.107726E-010	0.1579293	4
	51	87	7.944915	3.568835E+007	-1.366202E+007	1	3.821399E+007	-20.94757	6.31386E-010	0.1579354	4
	52	90	6.317385	7.737889E+008	592288.8	1	7.737892E+008	0.0438565	2.282203E-010	0.1579317	4
	53	92	5.008013	3.487046E+008	-2.814574E+008	1	4.481218E+008	-38.90879	2.280327E-010	0.1579413	5
	54	96	3.945707	1.001536E+008	-1.298565E+008	1	1.639922E+008	-52.35829	1.159774E-010	0.1579411	4
	55	99	3.158693	3.04603E+008	-3.572191E+008	1	4.694555E+008	-49.54556	1.940983E-010	0.1579372	4
	56	104	2.504006	1.545976E+009	-7.443628E+008	1	1.715843E+009	-25.71007	1.571922E-010	0.1579186	3
	57	107	1.998082	1.378067E+009	-1.576962E+009	1	2.094248E+009	-48.85062	1.715978E-011	0.1578971	3
	58	113	1.584686	2.147911E+009	-2.836581E+008	1	2.166561E+009	-7.523079	8.703347E-011	0.1579738	3
	59	119	1.266892	2.014392E+010	-1.05212E+010	1	2.272605E+010	-27.57813	1.890304E-011	0.1579342	2
	60	126	0.999041	2.77379E+010	2.193133E+009	1	2.782447E+010	4.520759	1.955099E-011	0.1579063	2
