EXPLAIN
TAG	EISPOT
TITLE	LABEL	Potentiostatic EIS	Test &Identifier
DATE	LABEL	10/14/2019	Date
TIME	LABEL	10:46:21	Time
NOTES	NOTES	1	&Notes...
	
PSTAT	PSTAT	REF600-11020	Potentiostat
VDC	POTEN	0.00000E+000	T	DC &Voltage (V)
FREQINIT	QUANT	1.00000E+006	Initial Fre&q. (Hz)
FREQFINAL	QUANT	1.00000E+000	Final Fre&q. (Hz)
PTSPERDEC	QUANT	1.00000E+001	Points/&decade
VAC	QUANT	2.50000E+001	AC &Voltage (mV rms)
AREA	QUANT	1.00000E-002	&Area (cm^2)
CONDIT	TWOPARAM	T	5.00000E+000	0.00000E+000	Conditionin&g	Time(s)	E(V)
DELAY	TWOPARAM	T	5.00000E+000	0.00000E+000	Init. De&lay	Time(s)	Stab.(mV/s)
SPEED	SELECTOR	1	&Optimize for:
ZGUESS	QUANT	1.00000E+004	E&stimated Z (ohms)
OCVCURVE	TABLE	19
	Pt	T	Vf	Vm	Ach	Over
	#	s	V vs. Ref.	V	V	bits
	0	0.258333	6.51522E-003	6.51522E-003	5.67266E-004	...........
	1	0.516667	6.52289E-003	6.91698E-003	5.68766E-004	...........
	2	0.775	6.56425E-003	6.99549E-003	5.69232E-004	...........
	3	1.03333	6.66016E-003	6.97254E-003	5.68566E-004	...........
	4	1.29167	6.78273E-003	6.75795E-003	5.62532E-004	...........
	5	1.55	6.86343E-003	6.51817E-003	5.64366E-004	...........
	6	1.80833	6.85496E-003	6.64730E-003	5.69366E-004	...........
	7	2.06667	6.77888E-003	6.73028E-003	5.65666E-004	...........
	8	2.325	6.70403E-003	6.73030E-003	5.66066E-004	...........
	9	2.58333	6.68024E-003	6.95120E-003	5.66332E-004	...........
	10	2.84167	6.71526E-003	7.06125E-003	5.62599E-004	...........
	11	3.1	6.79692E-003	7.09473E-003	5.63599E-004	...........
	12	3.35833	6.90413E-003	7.26388E-003	5.66199E-004	...........
	13	3.61667	7.01140E-003	7.08916E-003	5.61566E-004	...........
	14	3.875	7.09522E-003	7.17033E-003	5.55899E-004	...........
	15	4.13333	7.14332E-003	7.23699E-003	5.62532E-004	...........
	16	4.39167	7.16748E-003	7.27106E-003	5.62732E-004	...........
	17	4.65	7.19366E-003	7.43753E-003	5.59232E-004	...........
	18	4.90833	7.23794E-003	7.37914E-003	5.59299E-004	...........
EOC	QUANT	0.0072379	Open Circuit (V)
PSTATMODEL	IQUANT	4	Pstat Model
PSTATSECTION	LABEL	REF600-11020	Pstat Section
PSTATSERIALNO	LABEL	11020	Pstat Serial Number
CTRLMODE	IQUANT	1	Control Mode
IESTAB	IQUANT	0	I/E Stability
CASPEED	IQUANT	1	Control Amp Speed
CONVENTION	IQUANT	1	Current Convention
ICHRANGE	IQUANT	2	Ich Range
ICHRANGEMODE	TOGGLE	F	Ich Auto Range
ICHOFFSETENABLE	TOGGLE	T	Ich Offset Enable
ICHOFFSET	QUANT	0	Ich Offset (V)
ICHFILTER	IQUANT	3	Ich Filter
VCHRANGE	IQUANT	2	Vch Range
VCHRANGEMODE	TOGGLE	F	Vch Auto Range
VCHOFFSETENABLE	TOGGLE	T	Vch Offset Enable
VCHOFFSET	QUANT	0	Vch Offset (V)
VCHFILTER	IQUANT	3	Vch Filter
ACHRANGE	IQUANT	2	Ach Range
ACHOFFSETENABLE	TOGGLE	F	Ach Offset Enable
ACHOFFSET	QUANT	0	Ach Offset (V)
ACHFILTER	IQUANT	3	Ach Filter
IERANGELOWERLIMIT	IQUANT	1	I/E Range Lower Limit
IERANGEMODE	TOGGLE	F	I/E AutoRange
IERANGE	IQUANT	6	I/E Range
POSFEEDENABLE	TOGGLE	F	Positive Feedback IR Comp
POSFEEDRESISTANCE	QUANT	0	Positive Feedback Resistance (ohm)
ACHSELECT	IQUANT	0	Ach Select
CABLEID	IQUANT	14	Cable ID
DCCALDATE	LABEL	8/19/2019	DC Calibration Date
ACCALDATE	LABEL	8/19/2019	AC Calibration Date
THERMOSELECT	IQUANT	1	Thermo Select
FRAMEWORKVERSION	QUANT	6.33	Framework Version
INSTRUMENTVERSION	LABEL	3.50	Instrument Version
ZCURVE	TABLE
	Pt	Time	Freq	Zreal	Zimag	Zsig	Zmod	Zphz	Idc	Vdc	IERange
	#	s	Hz	ohm	ohm	V	ohm	°	A	V	#
	0	2	1000078	2537.654	-1792.633	1	3106.963	-35.2379	-3.894124E-007	0.0095887	8
	1	3	794390.6	2892.76	-1718.48	1	3364.704	-30.71296	4.29442E-007	0.0089381	8
	2	5	630984.4	3210.872	-1585.901	1	3581.17	-26.2855	-6.734052E-007	0.0091107	8
	3	6	501234.4	3483.092	-1413.577	1	3759.006	-22.08926	-2.184405E-006	0.009251	8
	4	8	398109.4	3701.214	-1240.993	1	3903.723	-18.53597	1.717958E-007	0.0088175	8
	5	9	316265.6	3848.395	-1081.985	1	3997.604	-15.70346	-1.258595E-007	0.0089101	8
	6	10	251203.1	3968.507	-935.7507	1	4077.337	-13.26766	3.895127E-006	0.0081942	8
	7	12	199546.9	4057.319	-793.4045	1	4134.166	-11.06451	-3.166846E-007	0.0088001	8
	8	13	158578.1	4136.648	-689.779	1	4193.764	-9.466871	4.121529E-007	0.0088458	8
	9	15	125953.1	4203.538	-561.89	1	4240.926	-7.613636	-5.419461E-007	0.0103259	7
	10	16	100078.1	4239.644	-506.198	1	4269.756	-6.808676	-2.325867E-008	0.0088399	7
	11	17	79453.13	4277.255	-468.8627	1	4302.876	-6.255654	5.480199E-008	0.0087075	7
	12	19	63140.62	4313.203	-442.7277	1	4335.865	-5.860588	-2.865313E-008	0.0087912	7
	13	20	50203.12	4347.919	-429.2046	1	4369.053	-5.637684	-1.669995E-008	0.0087657	7
	14	21	39890.62	4381.723	-426.9453	1	4402.474	-5.565205	7.026037E-008	0.0086408	7
	15	23	31640.63	4417.938	-435.836	1	4439.384	-5.634082	-4.454748E-008	0.0088395	7
	16	24	25171.88	4455.359	-456.0995	1	4478.644	-5.845065	-8.165975E-009	0.0087974	7
	17	25	20015.62	4500.243	-496.488	1	4527.547	-6.29568	-8.337855E-009	0.0087979	7
	18	27	15890.62	4536.835	-528.6411	1	4567.53	-6.646247	7.215435E-008	0.008634	7
	19	28	12609.37	4583.928	-583.6176	1	4620.932	-7.25576	-7.81749E-009	0.0087978	7
	20	30	10078.13	4631.981	-652.9656	1	4677.778	-8.024054	1.043657E-008	0.0087149	7
	21	31	8015.625	4676.926	-742.0532	1	4735.428	-9.015547	-1.702497E-008	0.0087644	7
	22	32	6328.125	4744.855	-844.8163	1	4819.478	-10.09566	7.924126E-008	0.00872	7
	23	34	5015.625	4807.683	-974.768	1	4905.505	-11.46147	-2.787647E-008	0.0087764	7
	24	35	3984.375	4886.322	-1144.103	1	5018.478	-13.17806	7.633674E-010	0.0087443	7
	25	36	3170.956	4951.29	-1327.308	1	5126.112	-15.00663	-2.81593E-008	0.0087791	7
	26	38	2527.573	5033.47	-1562.214	1	5270.326	-17.24252	5.642721E-008	0.0086866	7
	27	39	1976.103	5131.163	-1878.438	1	5464.189	-20.10689	8.901981E-009	0.0088599	7
	28	40	1577.524	5232.57	-2212.329	1	5681.038	-22.91862	-1.980036E-008	0.0088122	7
	29	42	1265.625	5354.385	-2653.863	1	5975.988	-26.36499	-5.078426E-008	0.0089447	7
	30	43	998.264	5496.683	-3205.113	1	6362.882	-30.24644	-4.401374E-008	0.0088332	7
	31	44	796.875	5659.598	-3853.052	1	6846.682	-34.24702	-4.714423E-009	0.0088185	7
	32	46	627.7902	5860.696	-4688.708	1	7505.447	-38.66071	1.118719E-008	0.0087152	7
	33	47	505.5147	6066.091	-5616.066	1	8266.659	-42.79391	4.049501E-008	0.0087297	7
	34	49	397.9953	6333.758	-6874.835	1	9347.72	-47.34575	3.560396E-009	0.0087961	7
	35	50	315.5048	6645.195	-8382.662	1	10697.09	-51.59505	1.043488E-009	0.0087337	6
	36	51	252.4038	6998.716	-10163.21	1	12339.89	-55.44745	1.309687E-010	0.0087307	6
	37	53	198.6229	7464.046	-12524.38	1	14579.85	-59.20668	6.586031E-010	0.0087282	6
	38	54	158.3615	8009.776	-15280.16	1	17252.24	-62.33672	1.267695E-009	0.0087228	6
	39	55	125.558	8716.917	-18760.65	1	20686.88	-65.07862	4.50343E-010	0.0087307	6
	40	57	100.4464	9596.34	-22838.97	1	24773.14	-67.20913	1.15426E-009	0.0087269	6
	41	58	79.00281	10762.05	-28246.75	1	30227.49	-69.14309	1.107712E-010	0.0087215	6
	42	60	63.3446	12217.85	-34646.5	1	36737.67	-70.57515	7.727557E-011	0.0087191	6
	43	61	49.86702	14219.32	-42243.37	1	44572.32	-71.39652	1.057636E-009	0.0087181	6
	44	62	39.72458	17003.03	-51618.95	1	54347.21	-71.76837	4.124348E-010	0.0087256	6
	45	64	31.6723	20597.05	-62964.65	1	66247.91	-71.886	1.265865E-009	0.0087189	6
	46	65	24.93351	25510.03	-76902.69	1	81023.36	-71.64837	2.005916E-011	0.0087179	6
	47	66	19.86229	31556.48	-92722.48	1	97945.2	-71.20489	1.049449E-009	0.008719	6
	48	68	15.83615	40028.39	-111584.3	1	118546.7	-70.26568	1.425894E-009	0.0087214	5
	49	69	12.40079	50502.75	-134859.8	1	144005.9	-69.46992	-8.69286E-010	0.0087286	5
	50	71	9.93114	64132.02	-159917.4	1	172297.7	-68.14763	-7.763151E-010	0.0087268	5
	51	72	7.944915	80879.33	-188257.8	1	204896.2	-66.75066	8.880156E-011	0.0087234	5
	52	74	6.317385	102237.2	-220802	1	243322.8	-65.15462	6.603033E-010	0.0087272	5
	53	76	5.008013	128823.9	-257684.5	1	288091.8	-63.43821	4.120283E-010	0.008738	5
	54	79	3.945707	161328.5	-299415.5	1	340112.6	-61.68371	-8.987534E-011	0.0087223	5
	55	81	3.158693	196612.5	-341435.5	1	393998.3	-60.06491	2.770182E-010	0.008742	5
	56	84	2.504006	238724	-389701.2	1	457007.9	-58.50911	-2.500407E-010	0.0087211	5
	57	87	1.998082	283745.9	-440125.3	1	523662.1	-57.19039	-1.585523E-010	0.0087047	5
	58	90	1.584686	335056.9	-496406.8	1	598901.4	-55.98205	4.631066E-011	0.0087688	5
	59	94	1.266892	386237.1	-560158.8	1	680409.4	-55.41321	-1.754031E-010	0.0087154	5
	60	98	0.999041	446318.8	-637680.1	1	778354.9	-55.01143	2.805769E-010	0.0087407	5
