EXPLAIN
TAG	EISPOT
TITLE	LABEL	Potentiostatic EIS	Test &Identifier
DATE	LABEL	10/4/2019	Date
TIME	LABEL	10:37:46	Time
NOTES	NOTES	2	&Notes...
	
	
PSTAT	PSTAT	REF600-11020	Potentiostat
VDC	POTEN	0.00000E+000	T	DC &Voltage (V)
FREQINIT	QUANT	1.00000E+006	Initial Fre&q. (Hz)
FREQFINAL	QUANT	1.00000E+000	Final Fre&q. (Hz)
PTSPERDEC	QUANT	1.00000E+001	Points/&decade
VAC	QUANT	2.50000E+001	AC &Voltage (mV rms)
AREA	QUANT	1.00000E-002	&Area (cm^2)
CONDIT	TWOPARAM	T	5.00000E+000	0.00000E+000	Conditionin&g	Time(s)	E(V)
DELAY	TWOPARAM	T	5.00000E+000	0.00000E+000	Init. De&lay	Time(s)	Stab.(mV/s)
SPEED	SELECTOR	1	&Optimize for:
ZGUESS	QUANT	1.00000E+004	E&stimated Z (ohms)
OCVCURVE	TABLE	19
	Pt	T	Vf	Vm	Ach	Over
	#	s	V vs. Ref.	V	V	bits
	0	0.258333	5.16516E-003	5.16516E-003	5.67366E-004	...........
	1	0.516667	5.16765E-003	5.29531E-003	5.67099E-004	...........
	2	0.775	5.18053E-003	5.29376E-003	5.65632E-004	...........
	3	1.03333	5.20627E-003	5.14714E-003	5.67466E-004	...........
	4	1.29167	5.22353E-003	4.93692E-003	5.68032E-004	...........
	5	1.55	5.19289E-003	4.61606E-003	5.67399E-004	...........
	6	1.80833	5.08868E-003	4.57319E-003	5.71032E-004	...........
	7	2.06667	4.92996E-003	4.67537E-003	5.68566E-004	...........
	8	2.325	4.77685E-003	4.65020E-003	5.66832E-004	...........
	9	2.58333	4.68065E-003	4.65385E-003	5.64732E-004	...........
	10	2.84167	4.64490E-003	4.67475E-003	5.64099E-004	...........
	11	3.1	4.64428E-003	4.71474E-003	5.66599E-004	...........
	12	3.35833	4.65833E-003	4.70733E-003	5.66532E-004	...........
	13	3.61667	4.67777E-003	4.75067E-003	5.61366E-004	...........
	14	3.875	4.69857E-003	4.76086E-003	5.62932E-004	...........
	15	4.13333	4.71896E-003	4.75227E-003	5.65332E-004	...........
	16	4.39167	4.73723E-003	4.79009E-003	5.65199E-004	...........
	17	4.65	4.75263E-003	4.79916E-003	5.64032E-004	...........
	18	4.90833	4.76697E-003	4.80930E-003	5.61566E-004	...........
EOC	QUANT	0.004767	Open Circuit (V)
PSTATMODEL	IQUANT	4	Pstat Model
PSTATSECTION	LABEL	REF600-11020	Pstat Section
PSTATSERIALNO	LABEL	11020	Pstat Serial Number
CTRLMODE	IQUANT	1	Control Mode
IESTAB	IQUANT	0	I/E Stability
CASPEED	IQUANT	1	Control Amp Speed
CONVENTION	IQUANT	1	Current Convention
ICHRANGE	IQUANT	2	Ich Range
ICHRANGEMODE	TOGGLE	F	Ich Auto Range
ICHOFFSETENABLE	TOGGLE	T	Ich Offset Enable
ICHOFFSET	QUANT	0	Ich Offset (V)
ICHFILTER	IQUANT	3	Ich Filter
VCHRANGE	IQUANT	2	Vch Range
VCHRANGEMODE	TOGGLE	F	Vch Auto Range
VCHOFFSETENABLE	TOGGLE	T	Vch Offset Enable
VCHOFFSET	QUANT	0	Vch Offset (V)
VCHFILTER	IQUANT	3	Vch Filter
ACHRANGE	IQUANT	2	Ach Range
ACHOFFSETENABLE	TOGGLE	F	Ach Offset Enable
ACHOFFSET	QUANT	0	Ach Offset (V)
ACHFILTER	IQUANT	3	Ach Filter
IERANGELOWERLIMIT	IQUANT	1	I/E Range Lower Limit
IERANGEMODE	TOGGLE	F	I/E AutoRange
IERANGE	IQUANT	5	I/E Range
POSFEEDENABLE	TOGGLE	F	Positive Feedback IR Comp
POSFEEDRESISTANCE	QUANT	0	Positive Feedback Resistance (ohm)
ACHSELECT	IQUANT	0	Ach Select
CABLEID	IQUANT	14	Cable ID
DCCALDATE	LABEL	8/19/2019	DC Calibration Date
ACCALDATE	LABEL	8/19/2019	AC Calibration Date
THERMOSELECT	IQUANT	1	Thermo Select
FRAMEWORKVERSION	QUANT	6.33	Framework Version
INSTRUMENTVERSION	LABEL	3.50	Instrument Version
ZCURVE	TABLE
	Pt	Time	Freq	Zreal	Zimag	Zsig	Zmod	Zphz	Idc	Vdc	IERange
	#	s	Hz	ohm	ohm	V	ohm	°	A	V	#
	0	2	1000078	2615.604	-1649.149	1	3092.099	-32.2316	-2.076399E-006	0.0073969	8
	1	3	794390.6	2925.514	-1588.444	1	3328.932	-28.5003	2.054604E-006	0.0064211	8
	2	4	630984.4	3203.368	-1467.734	1	3523.608	-24.61653	-1.292489E-006	0.0068398	8
	3	6	501234.4	3442.977	-1330.591	1	3691.146	-21.12978	-1.918893E-007	0.0063304	8
	4	7	398109.4	3642.804	-1193.089	1	3833.208	-18.13462	-2.890015E-006	0.006887	8
	5	8	316265.6	3788.331	-1047.118	1	3930.382	-15.45112	-1.639468E-007	0.0062432	8
	6	10	251203.1	3932.925	-910.5016	1	4036.943	-13.03477	2.993793E-006	0.005689	8
	7	11	199546.9	4016.756	-790.9713	1	4093.894	-11.14003	2.731392E-006	0.0057313	8
	8	12	158578.1	4091.282	-679.8116	1	4147.376	-9.434133	3.119997E-006	0.0057408	8
	9	14	125953.1	4193.924	-559.0841	1	4231.025	-7.593223	-1.057243E-006	0.0085556	7
	10	15	100078.1	4218.487	-500.6551	1	4248.092	-6.768273	6.890796E-009	0.0063764	7
	11	17	79453.13	4259.294	-454.7206	1	4283.498	-6.093793	3.53134E-008	0.006182	7
	12	18	63140.62	4294.726	-421.0182	1	4315.313	-5.598899	9.488871E-008	0.0061532	7
	13	19	50203.12	4326.999	-398.8203	1	4345.34	-5.266084	4.76057E-008	0.0062121	7
	14	21	39890.62	4357.103	-387.9724	1	4374.342	-5.088405	8.901978E-009	0.0063623	7
	15	22	31640.63	4387.042	-388.0757	1	4404.173	-5.055199	6.853509E-008	0.0061468	7
	16	23	25171.88	4415.663	-399.9099	1	4433.735	-5.174945	4.767917E-008	0.0062078	7
	17	25	20015.62	4445.336	-423.3666	1	4465.451	-5.440348	4.880585E-008	0.0062108	7
	18	26	15890.62	4478.642	-457.142	1	4501.912	-5.828086	-1.238218E-008	0.0062585	7
	19	27	12609.37	4513.188	-504.4403	1	4541.291	-6.377497	1.132183E-009	0.006255	7
	20	29	10078.13	4549.851	-565.4059	1	4584.848	-7.08378	4.806513E-008	0.0062025	7
	21	30	8015.625	4588.1	-645.0233	1	4633.218	-8.002546	-5.346589E-008	0.0064482	7
	22	31	6328.125	4632.175	-746.8563	1	4691.998	-9.159106	3.707146E-008	0.0062439	7
	23	33	5015.625	4680.109	-872.9351	1	4760.823	-10.56542	9.783356E-009	0.006354	7
	24	34	3984.375	4729.881	-1026.757	1	4840.042	-12.24768	-4.621803E-008	0.0063632	7
	25	35	3170.956	4792.35	-1216.568	1	4944.356	-14.244	1.466214E-008	0.0062074	7
	26	37	2527.573	4858.521	-1446.594	1	5069.306	-16.58056	9.67202E-008	0.0061424	7
	27	38	1976.103	4942.517	-1754.833	1	5244.799	-19.54733	-1.026313E-008	0.0062451	7
	28	39	1577.524	5035.747	-2102.908	1	5457.194	-22.66522	4.831674E-008	0.0061943	7
	29	41	1265.625	5137.846	-2515.831	1	5720.74	-26.08944	7.004781E-008	0.0061374	7
	30	42	998.264	5268.629	-3063.063	1	6094.325	-30.17276	1.56871E-008	0.0062112	7
	31	43	796.875	5412.984	-3698.544	1	6555.885	-34.34372	7.583812E-008	0.0062134	7
	32	45	627.7902	5605.102	-4516.042	1	7198.042	-38.85846	3.508229E-008	0.0061676	7
	33	46	505.5147	5812.416	-5429.614	1	7953.922	-43.04978	-3.150964E-008	0.0062896	7
	34	47	397.9953	6077.01	-6665.991	1	9020.282	-47.64632	3.953857E-009	0.0063048	7
	35	49	315.5048	6398.42	-8136.693	1	10351.11	-51.81969	5.423259E-010	0.0062452	6
	36	50	252.4038	6771.585	-9866.05	1	11966.34	-55.53616	5.175387E-010	0.006241	6
	37	52	198.6229	7265.232	-12143.74	1	14151.11	-59.10918	7.236652E-010	0.0062435	6
	38	53	158.3615	7845.069	-14791.58	1	16743.24	-62.05969	1.076375E-009	0.006241	6
	39	54	125.558	8594.982	-18116.35	1	20051.83	-64.61883	8.710639E-010	0.0062441	6
	40	56	100.4464	9506.37	-22029.23	1	23992.88	-66.65815	9.852728E-010	0.006238	6
	41	57	79.00281	10799.07	-27154.93	1	29223.45	-68.31309	5.173308E-010	0.0062382	6
	42	58	63.3446	12263.87	-32843.62	1	35058.61	-69.52428	4.295091E-010	0.006236	6
	43	60	49.86702	14629.84	-40559.3	1	43117.15	-70.1655	5.360841E-010	0.006229	6
	44	61	39.72458	17340.75	-49311.66	1	52271.8	-70.62546	6.210563E-010	0.0062299	6
	45	62	31.6723	21097.31	-59665.58	1	63285.68	-70.52678	-1.128413E-009	0.0062331	6
	46	64	24.93351	26274.94	-72806.96	1	77403.01	-70.15624	9.743374E-010	0.0062332	6
	47	65	19.86229	32882.61	-87564.56	1	93535.12	-69.41763	5.789579E-010	0.0062347	6
	48	67	15.83615	41801	-104574.9	1	112619.9	-68.21228	1.347688E-009	0.0062311	5
	49	68	12.40079	53299.29	-124972	1	135863.2	-66.90224	7.121001E-010	0.0062334	5
	50	69	9.93114	67108.32	-146823	1	161432.7	-65.43629	9.251422E-010	0.0062433	5
	51	71	7.944915	84394.79	-170662	1	190389.1	-63.68695	8.218755E-010	0.0062441	5
	52	73	6.317385	105230.8	-197569.2	1	223846.2	-61.959	-2.512981E-010	0.0062598	5
	53	75	5.008013	130590.8	-226971.2	1	261858.5	-60.08548	1.884385E-010	0.0062392	5
	54	77	3.945707	160893.3	-259175.4	1	305054.9	-58.16844	5.902234E-010	0.0062433	5
	55	79	3.158693	191771.5	-292039.6	1	349375.8	-56.70858	7.21883E-011	0.0062547	5
	56	83	2.504006	227069.4	-328755.7	1	399550.8	-55.36741	5.338546E-012	0.0062308	5
	57	86	1.998082	264275.4	-368378.3	1	453369.7	-54.34425	-2.096145E-010	0.0062357	5
	58	89	1.584686	305938.9	-413201	1	514133.9	-53.48332	9.499319E-011	0.00629	5
	59	92	1.266892	348178.5	-465002.1	1	580908.9	-53.17532	-4.496675E-010	0.0062348	5
	60	97	0.999041	394398.9	-529561.7	1	660292.4	-53.32256	3.390424E-010	0.0062666	5
