EXPLAIN
TAG	EISPOT
TITLE	LABEL	Potentiostatic IDE	Test &Identifier
DATE	LABEL	9/4/2019	Date
TIME	LABEL	12:32:00	Time
NOTES	NOTES	1	&Notes...
	
PSTAT	PSTAT	REF600-11020	Potentiostat
VDC	POTEN	0.00000E+000	T	DC &Voltage (V)
FREQINIT	QUANT	1.00000E+006	Initial Fre&q. (Hz)
FREQFINAL	QUANT	1.00000E+000	Final Fre&q. (Hz)
PTSPERDEC	QUANT	1.00000E+001	Points/&decade
VAC	QUANT	2.50000E+001	AC &Voltage (mV rms)
AREA	QUANT	1.00000E-002	&Area (cm^2)
CONDIT	TWOPARAM	T	5.00000E+000	0.00000E+000	Conditionin&g	Time(s)	E(V)
DELAY	TWOPARAM	T	5.00000E+000	0.00000E+000	Init. De&lay	Time(s)	Stab.(mV/s)
SPEED	SELECTOR	1	&Optimize for:
ZGUESS	QUANT	1.00000E+007	E&stimated Z (ohms)
OCVCURVE	TABLE	19
	Pt	T	Vf	Vm	Ach	Over
	#	s	V vs. Ref.	V	V	bits
	0	0.258333	7.17903E-002	7.17903E-002	5.72132E-004	...........
	1	0.516667	7.18295E-002	7.38418E-002	5.75499E-004	...........
	2	0.775	7.20578E-002	7.51441E-002	5.77466E-004	...........
	3	1.03333	7.26604E-002	7.62507E-002	5.76066E-004	...........
	4	1.29167	7.36471E-002	7.72839E-002	5.76866E-004	...........
	5	1.55	7.48329E-002	7.82712E-002	5.79699E-004	...........
	6	1.80833	7.60263E-002	7.92667E-002	5.78266E-004	...........
	7	2.06667	7.71485E-002	8.04622E-002	5.73299E-004	...........
	8	2.325	7.82202E-002	8.17298E-002	5.73166E-004	...........
	9	2.58333	7.93046E-002	8.30491E-002	5.71232E-004	...........
	10	2.84167	8.04518E-002	8.43752E-002	5.70332E-004	...........
	11	3.1	8.16699E-002	8.54705E-002	5.72932E-004	...........
	12	3.35833	8.29186E-002	8.63350E-002	5.76799E-004	...........
	13	3.61667	8.41256E-002	8.71806E-002	5.75032E-004	...........
	14	3.875	8.52285E-002	8.80228E-002	5.73099E-004	...........
	15	4.13333	8.62125E-002	8.87864E-002	5.78499E-004	...........
	16	4.39167	8.71027E-002	8.95720E-002	5.75132E-004	...........
	17	4.65	8.79350E-002	9.04440E-002	5.78165E-004	...........
	18	4.90833	8.87432E-002	9.12845E-002	5.79965E-004	...........
EOC	QUANT	0.0887432	Open Circuit (V)
PSTATMODEL	IQUANT	4	Pstat Model
PSTATSECTION	LABEL	REF600-11020	Pstat Section
PSTATSERIALNO	LABEL	11020	Pstat Serial Number
CTRLMODE	IQUANT	1	Control Mode
IESTAB	IQUANT	0	I/E Stability
CASPEED	IQUANT	1	Control Amp Speed
CONVENTION	IQUANT	1	Current Convention
ICHRANGE	IQUANT	2	Ich Range
ICHRANGEMODE	TOGGLE	F	Ich Auto Range
ICHOFFSETENABLE	TOGGLE	T	Ich Offset Enable
ICHOFFSET	QUANT	0	Ich Offset (V)
ICHFILTER	IQUANT	3	Ich Filter
VCHRANGE	IQUANT	2	Vch Range
VCHRANGEMODE	TOGGLE	F	Vch Auto Range
VCHOFFSETENABLE	TOGGLE	T	Vch Offset Enable
VCHOFFSET	QUANT	0	Vch Offset (V)
VCHFILTER	IQUANT	3	Vch Filter
ACHRANGE	IQUANT	2	Ach Range
ACHOFFSETENABLE	TOGGLE	F	Ach Offset Enable
ACHOFFSET	QUANT	0	Ach Offset (V)
ACHFILTER	IQUANT	3	Ach Filter
IERANGELOWERLIMIT	IQUANT	1	I/E Range Lower Limit
IERANGEMODE	TOGGLE	F	I/E AutoRange
IERANGE	IQUANT	4	I/E Range
POSFEEDENABLE	TOGGLE	F	Positive Feedback IR Comp
POSFEEDRESISTANCE	QUANT	0	Positive Feedback Resistance (ohm)
ACHSELECT	IQUANT	0	Ach Select
CABLEID	IQUANT	14	Cable ID
DCCALDATE	LABEL	8/19/2019	DC Calibration Date
ACCALDATE	LABEL	8/19/2019	AC Calibration Date
THERMOSELECT	IQUANT	1	Thermo Select
FRAMEWORKVERSION	QUANT	6.33	Framework Version
INSTRUMENTVERSION	LABEL	3.50	Instrument Version
ZCURVE	TABLE
	Pt	Time	Freq	Zreal	Zimag	Zsig	Zmod	Zphz	Idc	Vdc	IERange
	#	s	Hz	ohm	ohm	V	ohm	°	A	V	#
	0	1	1000078	2384.967	-2119.035	1	3190.357	-41.62098	8.60526E-006	0.0900878	8
	1	3	794390.6	2867.792	-2020.193	1	3507.906	-35.16247	1.142673E-005	0.089685	8
	2	4	630984.4	3225.438	-1912.97	1	3750.053	-30.6717	6.368027E-006	0.0905369	8
	3	6	501234.4	3558.187	-1732.834	1	3957.703	-25.96604	9.977081E-006	0.0897821	8
	4	8	398109.4	3805.716	-1533.614	1	4103.102	-21.94828	8.920944E-006	0.0896125	8
	5	9	316265.6	4005.649	-1372.605	1	4234.297	-18.91492	9.006713E-006	0.0896546	8
	6	11	251203.1	4157.777	-1211.355	1	4330.646	-16.24331	6.949722E-006	0.0900589	8
	7	12	199546.9	4282.005	-1079.903	1	4416.079	-14.15458	9.591803E-006	0.0897383	8
	8	14	158578.1	4365.256	-983.831	1	4474.75	-12.70098	1.027429E-005	0.0894497	8
	9	15	125953.1	4452.563	-922.0089	1	4547.023	-11.6991	1.467636E-006	0.0879312	7
	10	17	100078.1	4507.239	-860.2786	1	4588.604	-10.80585	6.963988E-007	0.0900967	7
	11	18	79453.13	4570.77	-853.141	1	4649.708	-10.57268	7.901194E-007	0.0898958	7
	12	19	63140.62	4633.447	-875.5141	1	4715.438	-10.70018	7.125338E-007	0.0900185	7
	13	21	50203.12	4700.599	-920.0723	1	4789.798	-11.07478	7.007713E-007	0.0901455	7
	14	22	39890.62	4770.024	-994.856	1	4872.666	-11.78096	7.80854E-007	0.0899504	7
	15	24	31640.63	4849.035	-1096.342	1	4971.429	-12.74008	6.948736E-007	0.0900859	7
	16	25	25171.88	4933.767	-1231.138	1	5085.052	-14.01106	7.113946E-007	0.0900172	7
	17	26	20015.62	5034.933	-1397.196	1	5225.199	-15.50936	7.013745E-007	0.0900493	7
	18	28	15890.62	5149.657	-1601.928	1	5393.064	-17.2796	6.920295E-007	0.090072	7
	19	29	12609.37	5283.395	-1868.733	1	5604.143	-19.47865	7.192159E-007	0.0900528	7
	20	30	10078.13	5428.028	-2159.302	1	5841.753	-21.69296	6.979615E-007	0.0901389	7
	21	32	8015.625	5605.802	-2519.959	1	6146.154	-24.2052	7.301409E-007	0.0900178	7
	22	33	6328.125	5812.022	-2969.314	1	6526.594	-27.06211	7.099356E-007	0.0901	7
	23	34	5015.625	6058.46	-3496.546	1	6995.054	-29.99073	7.066378E-007	0.0900324	7
	24	36	3984.375	6339.278	-4110.751	1	7555.443	-32.96169	7.639392E-007	0.0899199	7
	25	37	3170.956	6670.111	-4852.798	1	8248.639	-36.03753	6.805066E-007	0.0901194	7
	26	38	2527.573	7053.063	-5716.497	1	9078.769	-39.02471	7.043753E-007	0.0900281	7
	27	40	1976.103	7549.837	-6848.289	1	10193.09	-42.21047	6.930372E-007	0.0900726	7
	28	41	1577.524	8085.456	-8074.807	1	11427.03	-44.96225	7.25421E-007	0.0900785	7
	29	42	1265.625	8712.078	-9487.001	1	12880.35	-47.4382	6.212733E-008	0.0900311	6
	30	44	998.264	9503.7	-11304.16	1	14768.36	-49.94535	6.615617E-008	0.0900195	6
	31	45	796.875	10419.25	-13345.64	1	16931.24	-52.02002	6.665945E-008	0.0899634	6
	32	46	627.7902	11567.82	-15904.68	1	19666.55	-53.97079	6.77661E-008	0.089973	6
	33	48	505.5147	12775.48	-18663.02	1	22616.84	-55.60702	7.15776E-008	0.090001	6
	34	49	397.9953	14435.97	-22239.6	1	26514.09	-57.01194	7.114803E-008	0.0896152	6
	35	50	315.5048	16344.34	-26356.73	1	31013.13	-58.19611	7.14812E-008	0.0896176	6
	36	52	252.4038	18523.59	-31020.18	1	36129.97	-59.15662	7.154629E-008	0.0896111	6
	37	53	198.6229	21335.27	-36914.69	1	42636.7	-59.97374	7.117612E-008	0.0896137	6
	38	54	158.3615	24497.73	-43480.12	1	49906.51	-60.60206	7.096357E-008	0.0896143	6
	39	56	125.558	28341.02	-51374.02	1	58672.85	-61.11621	7.128276E-008	0.0896186	6
	40	57	100.4464	32715.14	-60177.86	1	68495.66	-61.46969	7.137702E-008	0.0896104	6
	41	58	79.00281	38272.5	-71287.48	1	80911.61	-61.76974	7.109704E-008	0.089611	6
	42	60	63.3446	45395.51	-83411.56	1	94964.42	-61.44341	7.10019E-008	0.0896074	6
	43	61	49.86702	51462.36	-98885.7	1	111475.4	-62.50651	7.145719E-008	0.0896129	6
	44	62	39.72458	60748.74	-115577.2	1	130569.9	-62.27304	7.189213E-009	0.0896193	5
	45	64	31.6723	70093	-135857.2	1	152873.2	-62.70936	7.405784E-009	0.0896161	5
	46	65	24.93351	82543.55	-160266.3	1	180274	-62.74971	7.242443E-009	0.08962	5
	47	67	19.86229	95711.2	-187881.2	1	210855.3	-63.0046	7.21345E-009	0.0896187	5
	48	68	15.83615	109540.3	-219863.8	1	245640.3	-63.51664	7.505336E-009	0.0896152	5
	49	69	12.40079	128688.4	-264544.2	1	294184.2	-64.05924	6.944363E-009	0.0896133	5
	50	71	9.93114	150132.9	-308754.8	1	343321.2	-64.06853	7.338272E-009	0.0896132	5
	51	72	7.944915	173251.8	-364847.3	1	403893.2	-64.59877	7.306549E-009	0.089618	5
	52	74	6.317385	201493.4	-429338.3	1	474268.9	-64.8588	7.088468E-009	0.0896177	5
	53	76	5.008013	234777.1	-512151.6	1	563399.9	-65.37265	7.114126E-009	0.0896139	5
	54	78	3.945707	275789.3	-611679.6	1	670978.1	-65.73071	7.243854E-009	0.0896202	5
	55	81	3.158693	322739.5	-725902.8	1	794415.3	-66.02986	7.115876E-008	0.0895938	6
	56	85	2.504006	383144.8	-864614.2	1	945704.8	-66.09997	7.031451E-009	0.0899062	5
	57	88	1.998082	454046.4	-1023439	1	1119636	-66.07563	7.088881E-009	0.0898812	5
	58	91	1.584686	547474.3	-1221757	1	1338813	-65.86266	6.719941E-010	0.0898512	4
	59	95	1.266892	654573.1	-1441739	1	1583375	-65.58117	7.494274E-010	0.0899033	4
	60	99	0.999041	800917.6	-1719149	1	1896561	-65.02012	6.162333E-010	0.0898702	4
