EXPLAIN
TAG	EISPOT
TITLE	LABEL	Potentiostatic EIS	Test &Identifier
DATE	LABEL	10/26/2019	Date
TIME	LABEL	10:30:01	Time
NOTES	NOTES	1	&Notes...
	
PSTAT	PSTAT	REF600-11020	Potentiostat
VDC	POTEN	0.00000E+000	T	DC &Voltage (V)
FREQINIT	QUANT	1.00000E+006	Initial Fre&q. (Hz)
FREQFINAL	QUANT	1.00000E+000	Final Fre&q. (Hz)
PTSPERDEC	QUANT	1.00000E+001	Points/&decade
VAC	QUANT	2.50000E+001	AC &Voltage (mV rms)
AREA	QUANT	1.00000E-002	&Area (cm^2)
CONDIT	TWOPARAM	T	5.00000E+000	0.00000E+000	Conditionin&g	Time(s)	E(V)
DELAY	TWOPARAM	T	5.00000E+000	0.00000E+000	Init. De&lay	Time(s)	Stab.(mV/s)
SPEED	SELECTOR	0	&Optimize for:
ZGUESS	QUANT	1.00000E+005	E&stimated Z (ohms)
OCVCURVE	TABLE	19
	Pt	T	Vf	Vm	Ach	Over
	#	s	V vs. Ref.	V	V	bits
	0	0.258333	8.73839E-003	8.73839E-003	5.32900E-004	...........
	1	0.516667	8.73057E-003	8.32941E-003	5.35866E-004	...........
	2	0.775	8.68619E-003	8.12980E-003	5.31300E-004	...........
	3	1.03333	8.56645E-003	7.61783E-003	5.34433E-004	...........
	4	1.29167	8.34290E-003	6.82638E-003	5.41266E-004	...........
	5	1.55	7.99784E-003	6.47030E-003	5.41299E-004	...........
	6	1.80833	7.56072E-003	6.96319E-003	5.30033E-004	...........
	7	2.06667	7.16567E-003	7.54580E-003	5.29800E-004	...........
	8	2.325	6.98814E-003	7.83366E-003	5.35066E-004	...........
	9	2.58333	7.08707E-003	7.97709E-003	5.32500E-004	...........
	10	2.84167	7.36217E-003	8.16921E-003	5.30066E-004	...........
	11	3.1	7.67316E-003	8.49044E-003	5.31066E-004	...........
	12	3.35833	7.95885E-003	9.01981E-003	5.29000E-004	...........
	13	3.61667	8.24160E-003	9.22801E-003	5.32600E-004	...........
	14	3.875	8.54453E-003	9.15045E-003	5.32133E-004	...........
	15	4.13333	8.82777E-003	9.06783E-003	5.30266E-004	...........
	16	4.39167	9.02253E-003	9.08390E-003	5.26800E-004	...........
	17	4.65	9.10720E-003	9.09460E-003	5.30133E-004	...........
	18	4.90833	9.12052E-003	9.15786E-003	5.32366E-004	...........
EOC	QUANT	0.0091205	Open Circuit (V)
PSTATMODEL	IQUANT	4	Pstat Model
PSTATSECTION	LABEL	REF600-11020	Pstat Section
PSTATSERIALNO	LABEL	11020	Pstat Serial Number
CTRLMODE	IQUANT	1	Control Mode
IESTAB	IQUANT	0	I/E Stability
CASPEED	IQUANT	1	Control Amp Speed
CONVENTION	IQUANT	1	Current Convention
ICHRANGE	IQUANT	2	Ich Range
ICHRANGEMODE	TOGGLE	F	Ich Auto Range
ICHOFFSETENABLE	TOGGLE	T	Ich Offset Enable
ICHOFFSET	QUANT	0	Ich Offset (V)
ICHFILTER	IQUANT	3	Ich Filter
VCHRANGE	IQUANT	2	Vch Range
VCHRANGEMODE	TOGGLE	F	Vch Auto Range
VCHOFFSETENABLE	TOGGLE	T	Vch Offset Enable
VCHOFFSET	QUANT	0	Vch Offset (V)
VCHFILTER	IQUANT	3	Vch Filter
ACHRANGE	IQUANT	2	Ach Range
ACHOFFSETENABLE	TOGGLE	F	Ach Offset Enable
ACHOFFSET	QUANT	0	Ach Offset (V)
ACHFILTER	IQUANT	3	Ach Filter
IERANGELOWERLIMIT	IQUANT	1	I/E Range Lower Limit
IERANGEMODE	TOGGLE	F	I/E AutoRange
IERANGE	IQUANT	5	I/E Range
POSFEEDENABLE	TOGGLE	F	Positive Feedback IR Comp
POSFEEDRESISTANCE	QUANT	0	Positive Feedback Resistance (ohm)
ACHSELECT	IQUANT	0	Ach Select
CABLEID	IQUANT	14	Cable ID
DCCALDATE	LABEL	8/19/2019	DC Calibration Date
ACCALDATE	LABEL	8/19/2019	AC Calibration Date
THERMOSELECT	IQUANT	1	Thermo Select
FRAMEWORKVERSION	QUANT	6.33	Framework Version
INSTRUMENTVERSION	LABEL	3.50	Instrument Version
ZCURVE	TABLE
	Pt	Time	Freq	Zreal	Zimag	Zsig	Zmod	Zphz	Idc	Vdc	IERange
	#	s	Hz	ohm	ohm	V	ohm	°	A	V	#
	0	1	1000078	2360.799	-1784.522	1	2959.374	-37.08553	3.770912E-006	0.0109958	8
	1	2	794390.6	2711.305	-1768.605	1	3237.15	-33.11672	-1.417332E-006	0.0108075	8
	2	2	630984.4	3036.052	-1703.363	1	3481.244	-29.2944	-2.492773E-006	0.0112767	8
	3	2	501234.4	3336.344	-1609.779	1	3704.399	-25.75721	3.135053E-007	0.0106081	8
	4	3	398109.4	3590.672	-1467.348	1	3878.922	-22.22765	-1.141683E-006	0.0108165	8
	5	3	316265.6	3824.246	-1331.111	1	4049.286	-19.19155	-2.401423E-006	0.0110912	8
	6	3	251203.1	3988.122	-1212.322	1	4168.314	-16.90839	3.422314E-006	0.0100066	8
	7	4	199546.9	4175.718	-1069.014	1	4310.384	-14.35972	1.174194E-006	0.01025	8
	8	4	158578.1	4264.865	-982.184	1	4376.501	-12.9689	3.225123E-007	0.0103669	8
	9	4	125953.1	4410.708	-819.7341	1	4486.236	-10.52835	-6.720556E-007	0.0119503	7
	10	5	100078.1	4484.692	-747.2369	1	4546.518	-9.45969	-1.135703E-008	0.0105599	7
	11	5	79453.13	4559.781	-695.3121	1	4612.49	-8.670132	3.543686E-008	0.0104982	7
	12	5	63140.62	4624.678	-658.8113	1	4671.368	-8.107554	1.107883E-008	0.0104703	7
	13	6	50203.12	4683.152	-635.2213	1	4726.037	-7.72444	-2.979233E-008	0.0105282	7
	14	6	39890.62	4738.882	-629.775	1	4780.546	-7.569981	-6.394857E-008	0.010613	7
	15	6	31640.63	4799.216	-636.9257	1	4841.296	-7.559805	-4.771666E-008	0.0105897	7
	16	7	25171.88	4857.49	-659.4629	1	4902.05	-7.731326	-8.683229E-009	0.0105676	7
	17	7	20015.62	4917.157	-697.8156	1	4966.425	-8.077163	-3.979475E-009	0.0105046	7
	18	7	15890.62	4982.24	-750.492	1	5038.448	-8.566257	1.034118E-007	0.0103753	7
	19	7	12609.37	5053.063	-822.6163	1	5119.584	-9.246387	8.412629E-008	0.0104525	7
	20	8	10078.13	5126.164	-909.4188	1	5206.208	-10.06002	3.823722E-008	0.0104045	7
	21	8	8015.625	5209.18	-1019.956	1	5308.095	-11.07834	-6.318909E-008	0.0106073	7
	22	8	6328.125	5305.685	-1156.348	1	5430.233	-12.29507	6.771315E-008	0.0103784	7
	23	9	5015.625	5409.873	-1320.686	1	5568.746	-13.719	4.91012E-008	0.0104433	7
	24	9	3984.375	5524.811	-1514.856	1	5728.728	-15.33317	-9.436465E-009	0.0104861	7
	25	9	3170.956	5648.925	-1744.83	1	5912.257	-17.16478	-4.451419E-009	0.0105019	7
	26	10	2527.573	5785.071	-2018.994	1	6127.266	-19.23903	-6.264903E-008	0.0107087	7
	27	10	1976.103	5947.547	-2381.337	1	6406.566	-21.82066	9.805828E-009	0.0106033	7
	28	10	1577.524	6116.557	-2788.31	1	6722.124	-24.50647	-5.487422E-008	0.0106175	7
	29	11	1265.625	6290.205	-3245.682	1	7078.215	-27.29328	9.225773E-009	0.0105974	7
	30	11	998.264	6505.874	-3858.929	1	7564.24	-30.6741	-4.751995E-008	0.0105768	7
	31	11	796.875	6729.961	-4569.689	1	8134.768	-34.17677	3.552138E-008	0.0104069	7
	32	12	627.7902	6993.691	-5486.479	1	8888.935	-38.11382	-4.814712E-008	0.0105791	7
	33	12	505.5147	7274.235	-6513.511	1	9764.24	-41.84197	1.261888E-008	0.0102256	6
	34	12	397.9953	7618.735	-7900.282	1	10975.41	-46.03935	1.019129E-009	0.0104861	6
	35	13	315.5048	8002.221	-9568.35	1	12473.52	-50.09351	4.801659E-010	0.0104861	6
	36	13	252.4038	8434.117	-11537.07	1	14291.2	-53.83152	1.32841E-009	0.0104825	6
	37	13	198.6229	8991.833	-14151.48	1	16766.56	-57.56817	7.090301E-013	0.0104836	6
	38	14	158.3615	9640.33	-17215.46	1	19730.89	-60.75201	-3.916721E-010	0.0104814	6
	39	14	125.558	10484.33	-21070.58	1	23534.88	-63.54591	6.830034E-010	0.0104828	6
	40	14	100.4464	11488.15	-25590.99	1	28051.32	-65.82402	-1.017016E-009	0.0104812	6
	41	15	79.00281	12957.21	-31503.46	1	34064.01	-67.64289	-2.023478E-011	0.0104774	6
	42	15	63.3446	14765.16	-38908.89	1	41616.25	-69.21922	7.132949E-010	0.0104811	6
	43	15	49.86702	17145.19	-47717.32	1	50704.05	-70.23626	1.257659E-009	0.0104803	6
	44	16	39.72458	20393.46	-57487.36	1	60997.46	-70.46803	1.688484E-010	0.0104838	6
	45	16	31.6723	24501.41	-69475.43	1	73669.23	-70.57414	4.89518E-010	0.0104805	6
	46	16	24.93351	30198.06	-85217.96	1	90410.31	-70.48757	-4.54531E-010	0.0104805	6
	47	17	19.86229	37583.96	-102879.3	1	109529.5	-69.93169	-1.652227E-009	0.0104863	5
	48	17	15.83615	46263.87	-121653	1	130153	-69.17851	-1.102874E-009	0.0104812	5
	49	17	12.40079	59367.77	-147442.2	1	158945.7	-68.06776	1.437492E-009	0.010485	5
	50	18	9.93114	77294.56	-175081	1	191383.9	-66.17955	2.495374E-010	0.0104763	5
	51	18	7.944915	97060.1	-204713.7	1	226557.6	-64.63316	-6.664619E-010	0.0104835	5
	52	19	6.317385	122760.6	-237009.1	1	266914.8	-62.61776	-4.170413E-010	0.0104908	5
	53	20	5.008013	153965.3	-272985.3	1	313410.7	-60.57676	2.03909E-011	0.0104853	5
	54	21	3.945707	191647.3	-311756.9	1	365952.3	-58.41958	-2.184107E-010	0.0104701	5
	55	22	3.158693	231658.8	-351070.2	1	420613.9	-56.58059	4.720917E-011	0.010471	5
	56	24	2.504006	277399.6	-393866	1	481747.8	-54.84298	6.238028E-011	0.0104747	5
	57	25	1.998082	325946.7	-437922.3	1	545909.5	-53.33959	-2.188848E-010	0.0104312	5
	58	26	1.584686	376959.8	-488816.1	1	617284.3	-52.36171	-1.867889E-010	0.0104495	5
	59	28	1.266892	429875.8	-542311.7	1	692022.5	-51.59709	-7.230583E-011	0.0104852	5
	60	31	0.999041	490017.1	-610736.4	1	783017	-51.2586	-4.340597E-011	0.0105099	5
