EXPLAIN
TAG	EISPOT
TITLE	LABEL	Potentiostatic IDE	Test &Identifier
DATE	LABEL	9/12/2019	Date
TIME	LABEL	9:32:48	Time
NOTES	NOTES	1	&Notes...
	
PSTAT	PSTAT	REF600-11020	Potentiostat
VDC	POTEN	0.00000E+000	T	DC &Voltage (V)
FREQINIT	QUANT	1.00000E+006	Initial Fre&q. (Hz)
FREQFINAL	QUANT	1.00000E+000	Final Fre&q. (Hz)
PTSPERDEC	QUANT	1.00000E+001	Points/&decade
VAC	QUANT	2.50000E+001	AC &Voltage (mV rms)
AREA	QUANT	1.00000E-002	&Area (cm^2)
CONDIT	TWOPARAM	T	5.00000E+000	0.00000E+000	Conditionin&g	Time(s)	E(V)
DELAY	TWOPARAM	T	5.00000E+000	0.00000E+000	Init. De&lay	Time(s)	Stab.(mV/s)
SPEED	SELECTOR	1	&Optimize for:
ZGUESS	QUANT	1.00000E+007	E&stimated Z (ohms)
OCVCURVE	TABLE	19
	Pt	T	Vf	Vm	Ach	Over
	#	s	V vs. Ref.	V	V	bits
	0	0.258333	4.65969E-004	4.65969E-004	5.61932E-004	...........
	1	0.516667	4.54306E-004	-1.44519E-004	5.60866E-004	...........
	2	0.775	3.84236E-004	-6.42347E-004	5.63699E-004	...........
	3	1.03333	1.92991E-004	-1.02350E-003	5.64099E-004	...........
	4	1.29167	-1.31684E-004	-1.41562E-003	5.64699E-004	...........
	5	1.55	-5.36515E-004	-1.78769E-003	5.59599E-004	...........
	6	1.80833	-9.58036E-004	-2.13041E-003	5.57833E-004	...........
	7	2.06667	-1.36195E-003	-2.46275E-003	5.57233E-004	...........
	8	2.325	-1.73941E-003	-2.77600E-003	5.54833E-004	...........
	9	2.58333	-2.09240E-003	-3.07238E-003	5.56966E-004	...........
	10	2.84167	-2.42500E-003	-3.35851E-003	5.56399E-004	...........
	11	3.1	-2.74026E-003	-3.62784E-003	5.57333E-004	...........
	12	3.35833	-3.04006E-003	-3.88426E-003	5.57299E-004	...........
	13	3.61667	-3.32551E-003	-4.13364E-003	5.57666E-004	...........
	14	3.875	-3.59768E-003	-4.37434E-003	5.58332E-004	...........
	15	4.13333	-3.85799E-003	-4.60168E-003	5.58632E-004	...........
	16	4.39167	-4.10767E-003	-4.82069E-003	5.60732E-004	...........
	17	4.65	-4.34734E-003	-5.03543E-003	5.61099E-004	...........
	18	4.90833	-4.57761E-003	-5.24313E-003	5.63799E-004	...........
EOC	QUANT	-0.0045776	Open Circuit (V)
PSTATMODEL	IQUANT	4	Pstat Model
PSTATSECTION	LABEL	REF600-11020	Pstat Section
PSTATSERIALNO	LABEL	11020	Pstat Serial Number
CTRLMODE	IQUANT	1	Control Mode
IESTAB	IQUANT	0	I/E Stability
CASPEED	IQUANT	1	Control Amp Speed
CONVENTION	IQUANT	1	Current Convention
ICHRANGE	IQUANT	2	Ich Range
ICHRANGEMODE	TOGGLE	F	Ich Auto Range
ICHOFFSETENABLE	TOGGLE	T	Ich Offset Enable
ICHOFFSET	QUANT	0	Ich Offset (V)
ICHFILTER	IQUANT	3	Ich Filter
VCHRANGE	IQUANT	2	Vch Range
VCHRANGEMODE	TOGGLE	F	Vch Auto Range
VCHOFFSETENABLE	TOGGLE	T	Vch Offset Enable
VCHOFFSET	QUANT	0	Vch Offset (V)
VCHFILTER	IQUANT	3	Vch Filter
ACHRANGE	IQUANT	2	Ach Range
ACHOFFSETENABLE	TOGGLE	F	Ach Offset Enable
ACHOFFSET	QUANT	0	Ach Offset (V)
ACHFILTER	IQUANT	3	Ach Filter
IERANGELOWERLIMIT	IQUANT	1	I/E Range Lower Limit
IERANGEMODE	TOGGLE	F	I/E AutoRange
IERANGE	IQUANT	2	I/E Range
POSFEEDENABLE	TOGGLE	F	Positive Feedback IR Comp
POSFEEDRESISTANCE	QUANT	0	Positive Feedback Resistance (ohm)
ACHSELECT	IQUANT	0	Ach Select
CABLEID	IQUANT	14	Cable ID
DCCALDATE	LABEL	8/19/2019	DC Calibration Date
ACCALDATE	LABEL	8/19/2019	AC Calibration Date
THERMOSELECT	IQUANT	1	Thermo Select
FRAMEWORKVERSION	QUANT	6.33	Framework Version
INSTRUMENTVERSION	LABEL	3.50	Instrument Version
ZCURVE	TABLE
	Pt	Time	Freq	Zreal	Zimag	Zsig	Zmod	Zphz	Idc	Vdc	IERange
	#	s	Hz	ohm	ohm	V	ohm	°	A	V	#
	0	2	1000078	2539.79	-1592.223	1	2997.617	-32.08407	-2.744138E-008	-0.001855	8
	1	4	794390.6	2834.641	-1474.752	1	3195.322	-27.48618	1.967974E-006	-0.0030796	8
	2	5	630984.4	3116.247	-1322.81	1	3385.384	-23.00065	1.885739E-006	-0.0033796	8
	3	7	501234.4	3313.549	-1168.08	1	3513.405	-19.41839	-1.265984E-006	-0.002419	8
	4	8	398109.4	3464.258	-998.994	1	3605.423	-16.08607	2.21756E-006	-0.0034562	8
	5	9	316265.6	3549.51	-873.6271	1	3655.441	-13.82715	1.427578E-006	-0.0032943	8
	6	11	251203.1	3663.316	-762.0734	1	3741.743	-11.75154	4.01597E-006	-0.0036403	8
	7	12	199546.9	3723.307	-639.9182	1	3777.898	-9.75205	1.415921E-006	-0.0032852	8
	8	14	158578.1	3773.479	-569.7594	1	3816.251	-8.586259	2.509726E-006	-0.0033703	8
	9	15	125953.1	3836.743	-457.3858	1	3863.909	-6.798262	-3.444023E-007	-0.0025255	7
	10	16	100078.1	3865.947	-426.8684	1	3889.442	-6.300936	-4.565477E-009	-0.0029649	7
	11	18	79453.13	3897.917	-407.7114	1	3919.182	-5.971267	7.639711E-008	-0.002953	7
	12	19	63140.62	3931.503	-401.1242	1	3951.913	-5.825627	2.093173E-008	-0.0030097	7
	13	20	50203.12	3964.48	-402.4924	1	3984.859	-5.797071	-7.17209E-009	-0.0028845	7
	14	22	39890.62	4000.685	-413.2785	1	4021.975	-5.897845	-7.118395E-008	-0.0028128	7
	15	23	31640.63	4038.307	-435.6839	1	4061.742	-6.157695	8.835813E-008	-0.003107	7
	16	24	25171.88	4078.658	-466.6435	1	4105.266	-6.52689	-7.104641E-008	-0.0028131	7
	17	26	20015.62	4123.212	-507.7024	1	4154.352	-7.019652	-5.210321E-008	-0.0028189	7
	18	27	15890.62	4175.597	-554.801	1	4212.293	-7.568417	-4.498193E-008	-0.0028916	7
	19	28	12609.37	4225.713	-622.1666	1	4271.27	-8.375682	-1.748598E-008	-0.0027774	7
	20	30	10078.13	4281.418	-697.3134	1	4337.833	-9.250523	-4.15377E-008	-0.0028714	7
	21	31	8015.625	4344.381	-787.3185	1	4415.146	-10.27205	-1.185086E-008	-0.0028706	7
	22	32	6328.125	4414.985	-901.8253	1	4506.149	-11.54469	1.409215E-007	-0.0031294	7
	23	34	5015.625	4490.435	-1034.722	1	4608.107	-12.97606	4.832609E-008	-0.0030737	7
	24	35	3984.375	4572.525	-1197.476	1	4726.726	-14.67533	-3.96515E-008	-0.0029006	7
	25	36	3170.956	4661.404	-1393.727	1	4865.302	-16.64629	-5.217665E-008	-0.0028209	7
	26	38	2527.573	4756.972	-1625.748	1	5027.11	-18.86843	-4.129078E-008	-0.0029041	7
	27	39	1976.103	4874.158	-1936.377	1	5244.709	-21.66664	-3.57916E-008	-0.0029302	7
	28	40	1577.524	4993.849	-2284.868	1	5491.734	-24.58583	4.838079E-008	-0.0030758	7
	29	42	1265.625	5135.929	-2707.795	1	5806.025	-27.79936	-1.930769E-009	-0.0029883	7
	30	43	998.264	5284.638	-3239.772	1	6198.671	-31.51057	1.389383E-007	-0.0031486	7
	31	44	796.875	5457.49	-3867.962	1	6689.194	-35.32687	8.037328E-008	-0.0029672	7
	32	46	627.7902	5670.748	-4684.271	1	7355.254	-39.55811	-3.407573E-008	-0.0029227	7
	33	47	505.5147	5890.145	-5587.543	1	8118.771	-43.48978	-2.22501E-008	-0.0029568	7
	34	48	397.9953	6180.916	-6810.057	1	9196.771	-47.77262	5.745753E-009	-0.0029236	7
	35	50	315.5048	6512.152	-8268.46	1	10525	-51.7764	5.679517E-010	-0.0029774	6
	36	51	252.4038	6885.217	-9985.67	1	12129.29	-55.41334	1.02717E-009	-0.0029854	6
	37	52	198.6229	7356.545	-12250.07	1	14289.26	-59.01389	1.512633E-009	-0.0029822	6
	38	54	158.3615	7887.726	-14889.2	1	16849.46	-62.08707	1.478885E-009	-0.002984	6
	39	55	125.558	8552.952	-18214.4	1	20122.55	-64.84661	1.080285E-009	-0.0029843	6
	40	56	100.4464	9352.91	-22125.46	1	24021.09	-67.08517	3.894339E-010	-0.0029886	6
	41	58	79.00281	10428.23	-27403.19	1	29320.35	-69.16578	1.4823E-009	-0.0029901	6
	42	59	63.3446	11398.61	-33039.1	1	34950.12	-70.96538	6.192175E-010	-0.0029867	6
	43	61	49.86702	13651.76	-41060.46	1	43270.45	-71.60909	1.794839E-009	-0.0029911	6
	44	62	39.72458	15502.57	-50185.07	1	52524.96	-72.83366	1.377206E-009	-0.0029878	6
	45	63	31.6723	18437.08	-61211.71	1	63928.08	-73.23759	1.05836E-009	-0.0029889	6
	46	65	24.93351	22367.9	-75397.9	1	78645.83	-73.47623	6.846751E-010	-0.0029908	6
	47	66	19.86229	27161.78	-91709.89	1	95647.6	-73.50226	6.483821E-010	-0.0029911	6
	48	67	15.83615	32950.91	-111793.9	1	116548.9	-73.57728	-4.977719E-010	-0.0029835	5
	49	69	12.40079	43586.89	-137088	1	143850.4	-72.36203	1.485282E-009	-0.0029798	5
	50	70	9.93114	54027.01	-162742.2	1	171475.8	-71.63491	1.214658E-009	-0.0029897	5
	51	72	7.944915	66728.2	-194952.1	1	206055.7	-71.10495	-1.094676E-010	-0.002981	5
	52	73	6.317385	85921.1	-232726	1	248080.3	-69.73615	2.502498E-010	-0.0029859	5
	53	75	5.008013	109243.8	-277339.9	1	298079.9	-68.50059	1.864303E-010	-0.0029913	5
	54	78	3.945707	138437.1	-329934.3	1	357800.9	-67.23758	6.234663E-010	-0.0029843	5
	55	81	3.158693	173247.5	-385899.2	1	423004.6	-65.82255	1.343376E-010	-0.0029987	5
	56	84	2.504006	217049.2	-451425.9	1	500894.9	-64.32137	6.386709E-010	-0.0029908	5
	57	87	1.998082	267566.8	-522497.3	1	587022.5	-62.88337	2.204978E-010	-0.0029493	5
	58	90	1.584686	328229.7	-605229.8	1	688504.1	-61.52803	3.794732E-010	-0.0029464	5
	59	94	1.266892	397210.7	-692820.4	1	798609.1	-60.17331	1.018309E-010	-0.0029625	5
	60	98	0.999041	480903.5	-796214.9	1	930175.4	-58.86856	4.591585E-010	-0.0029779	5
