EXPLAIN
TAG	EISPOT
TITLE	LABEL	Potentiostatic EIS	Test &Identifier
DATE	LABEL	11/22/2019	Date
TIME	LABEL	10:14:46	Time
NOTES	NOTES	4	&Notes...
	
	
	
	
PSTAT	PSTAT	REF600-11020	Potentiostat
VDC	POTEN	0.00000E+000	T	DC &Voltage (V)
FREQINIT	QUANT	1.00000E+006	Initial Fre&q. (Hz)
FREQFINAL	QUANT	1.00000E+000	Final Fre&q. (Hz)
PTSPERDEC	QUANT	1.00000E+001	Points/&decade
VAC	QUANT	2.50000E+001	AC &Voltage (mV rms)
AREA	QUANT	1.00000E-002	&Area (cm^2)
CONDIT	TWOPARAM	T	5.00000E+000	0.00000E+000	Conditionin&g	Time(s)	E(V)
DELAY	TWOPARAM	T	5.00000E+000	0.00000E+000	Init. De&lay	Time(s)	Stab.(mV/s)
SPEED	SELECTOR	0	&Optimize for:
ZGUESS	QUANT	1.00000E+005	E&stimated Z (ohms)
OCVCURVE	TABLE	19
	Pt	T	Vf	Vm	Ach	Over
	#	s	V vs. Ref.	V	V	bits
	0	0.258333	6.94804E-004	6.94804E-004	5.63932E-004	...........
	1	0.516667	6.85094E-004	1.86528E-004	5.63732E-004	...........
	2	0.775	6.26065E-004	-2.64060E-004	5.63032E-004	...........
	3	1.03333	4.61383E-004	-6.79542E-004	5.61332E-004	...........
	4	1.29167	1.72355E-004	-1.05922E-003	5.59932E-004	...........
	5	1.55	-2.02911E-004	-1.43537E-003	5.61466E-004	...........
	6	1.80833	-6.07863E-004	-1.73899E-003	5.66566E-004	...........
	7	2.06667	-1.00177E-003	-2.01814E-003	5.67899E-004	...........
	8	2.325	-1.36351E-003	-2.24367E-003	5.66266E-004	...........
	9	2.58333	-1.68506E-003	-2.47473E-003	5.59332E-004	...........
	10	2.84167	-1.96760E-003	-2.67874E-003	5.64266E-004	...........
	11	3.1	-2.21819E-003	-2.87126E-003	5.62299E-004	...........
	12	3.35833	-2.44500E-003	-3.05433E-003	5.66332E-004	...........
	13	3.61667	-2.65411E-003	-3.22749E-003	5.69499E-004	...........
	14	3.875	-2.84947E-003	-3.39382E-003	5.70166E-004	...........
	15	4.13333	-3.03372E-003	-3.55084E-003	5.66499E-004	...........
	16	4.39167	-3.20841E-003	-3.69490E-003	5.67366E-004	...........
	17	4.65	-3.37403E-003	-3.83380E-003	5.68266E-004	...........
	18	4.90833	-3.53054E-003	-3.96347E-003	5.69499E-004	...........
EOC	QUANT	-0.0035305	Open Circuit (V)
PSTATMODEL	IQUANT	4	Pstat Model
PSTATSECTION	LABEL	REF600-11020	Pstat Section
PSTATSERIALNO	LABEL	11020	Pstat Serial Number
CTRLMODE	IQUANT	1	Control Mode
IESTAB	IQUANT	0	I/E Stability
CASPEED	IQUANT	1	Control Amp Speed
CONVENTION	IQUANT	1	Current Convention
ICHRANGE	IQUANT	2	Ich Range
ICHRANGEMODE	TOGGLE	F	Ich Auto Range
ICHOFFSETENABLE	TOGGLE	T	Ich Offset Enable
ICHOFFSET	QUANT	0	Ich Offset (V)
ICHFILTER	IQUANT	3	Ich Filter
VCHRANGE	IQUANT	2	Vch Range
VCHRANGEMODE	TOGGLE	F	Vch Auto Range
VCHOFFSETENABLE	TOGGLE	T	Vch Offset Enable
VCHOFFSET	QUANT	0	Vch Offset (V)
VCHFILTER	IQUANT	3	Vch Filter
ACHRANGE	IQUANT	2	Ach Range
ACHOFFSETENABLE	TOGGLE	F	Ach Offset Enable
ACHOFFSET	QUANT	0	Ach Offset (V)
ACHFILTER	IQUANT	3	Ach Filter
IERANGELOWERLIMIT	IQUANT	1	I/E Range Lower Limit
IERANGEMODE	TOGGLE	F	I/E AutoRange
IERANGE	IQUANT	4	I/E Range
POSFEEDENABLE	TOGGLE	F	Positive Feedback IR Comp
POSFEEDRESISTANCE	QUANT	0	Positive Feedback Resistance (ohm)
ACHSELECT	IQUANT	0	Ach Select
CABLEID	IQUANT	14	Cable ID
DCCALDATE	LABEL	8/19/2019	DC Calibration Date
ACCALDATE	LABEL	8/19/2019	AC Calibration Date
THERMOSELECT	IQUANT	1	Thermo Select
FRAMEWORKVERSION	QUANT	6.33	Framework Version
INSTRUMENTVERSION	LABEL	3.50	Instrument Version
ZCURVE	TABLE
	Pt	Time	Freq	Zreal	Zimag	Zsig	Zmod	Zphz	Idc	Vdc	IERange
	#	s	Hz	ohm	ohm	V	ohm	°	A	V	#
	0	1	1000078	2164.695	-1483.404	1	2624.193	-34.42174	7.618194E-006	-0.002403	8
	1	2	794390.6	2446.455	-1429.923	1	2833.694	-30.30576	5.153355E-006	-0.0031336	8
	2	2	630984.4	2710.695	-1347.896	1	3027.324	-26.43891	-2.84823E-006	-0.0013035	8
	3	2	501234.4	2931.312	-1230.754	1	3179.205	-22.7758	-3.284574E-007	-0.002222	8
	4	3	398109.4	3111.198	-1117.181	1	3305.698	-19.7524	6.349417E-006	-0.0031381	8
	5	3	316265.6	3258.02	-1001.018	1	3408.333	-17.07944	-3.134813E-006	-0.0014312	8
	6	3	251203.1	3383.861	-911.77	1	3504.545	-15.08002	-2.645756E-007	-0.001525	8
	7	4	199546.9	3474.357	-818.8291	1	3569.543	-13.26135	1.850573E-006	-0.0017082	8
	8	4	158578.1	3573.503	-753.455	1	3652.07	-11.90614	7.233401E-007	-0.0016271	8
	9	4	125953.1	3660.863	-655.1978	1	3719.032	-10.147	3.732837E-006	-0.0065578	7
	10	5	100078.1	3716.5	-631.0319	1	3769.692	-9.63646	1.101915E-006	-0.0031783	7
	11	5	79453.13	3767.493	-630.8146	1	3819.938	-9.50522	-7.337664E-007	-0.0021825	7
	12	5	63140.62	3826.785	-648.4611	1	3881.338	-9.61759	9.781716E-007	-0.0037353	7
	13	5	50203.12	3884.226	-673.4167	1	3942.17	-9.83572	-8.93857E-007	-0.0003519	7
	14	6	39890.62	3949.092	-717.7076	1	4013.78	-10.30051	-1.223514E-006	-0.0009391	7
	15	6	31640.63	4020.25	-777.5739	1	4094.757	-10.94666	3.997224E-007	-0.0015219	7
	16	6	25171.88	4097.592	-851.3619	1	4185.102	-11.73742	-2.840316E-007	-0.0006944	7
	17	7	20015.62	4184.061	-944.1992	1	4289.274	-12.71669	1.104382E-006	-0.0031919	7
	18	7	15890.62	4278.251	-1059.349	1	4407.455	-13.90743	1.105736E-006	-0.0031893	7
	19	7	12609.37	4384.009	-1196.912	1	4544.462	-15.2706	4.007679E-007	-0.0015205	7
	20	8	10078.13	4493.698	-1344.627	1	4690.559	-16.65849	3.997271E-007	-0.0015265	7
	21	8	8015.625	4636.077	-1534.96	1	4883.576	-18.3192	-1.229984E-006	-0.0005794	7
	22	8	6328.125	4803.305	-1767.815	1	5118.292	-20.2057	1.087616E-006	-0.0035191	7
	23	9	5015.625	4983.771	-2027.561	1	5380.425	-22.13811	6.193102E-007	-0.0018528	7
	24	9	3984.375	5193.732	-2334.426	1	5694.242	-24.20248	1.100439E-007	-0.0034069	7
	25	9	3170.956	5432.52	-2675.55	1	6055.646	-26.22054	8.372618E-007	-0.0022723	7
	26	10	2527.573	5701.794	-3073.877	1	6477.59	-28.32942	7.760581E-007	-0.0038229	7
	27	10	1976.103	6047.491	-3578.515	1	7026.942	-30.61431	7.769582E-007	-0.0038236	7
	28	11	1577.524	6415.408	-4107.34	1	7617.592	-32.62861	1.088123E-006	-0.0035143	7
	29	11	1265.625	6799.954	-4710.652	1	8272.22	-34.71219	1.087522E-006	-0.0035181	7
	30	11	998.264	7295.298	-5459.644	1	9112.029	-36.81039	3.986247E-007	-0.0015338	7
	31	12	796.875	7839.182	-6284.984	1	10047.58	-38.72054	1.086216E-006	-0.0035252	7
	32	12	627.7902	8499.106	-7273.8	1	11186.73	-40.55794	-8.885264E-007	-0.0003658	7
	33	12	505.5147	9193.181	-8309.72	1	12392.18	-42.11044	-1.903968E-007	-0.0006046	6
	34	13	397.9953	10048.83	-9621.34	1	13912.2	-43.75499	9.457358E-010	-0.0020903	6
	35	13	315.5048	10955.28	-11075.16	1	15578.1	-45.31177	1.000877E-009	-0.0020841	6
	36	13	252.4038	11881.78	-12695.6	1	17388.36	-46.89652	7.527544E-010	-0.0020951	6
	37	14	198.6229	12914.91	-14766.12	1	19617.17	-48.82606	7.009869E-010	-0.0020923	6
	38	14	158.3615	13911.53	-17149.81	1	22082.72	-50.95183	5.707164E-010	-0.002096	6
	39	14	125.558	14970.85	-20144.01	1	25097.96	-53.38058	6.215304E-010	-0.0020952	6
	40	15	100.4464	16075.35	-23747.41	1	28676.76	-55.90472	1.134598E-009	-0.0020899	6
	41	15	79.00281	17393.22	-28565.89	1	33444.5	-58.66357	5.459815E-010	-0.0020979	6
	42	15	63.3446	18325.73	-34308.52	1	38896.11	-61.8913	4.938938E-010	-0.002096	6
	43	16	49.86702	20182.09	-41642.29	1	46275.23	-64.14268	6.161738E-010	-0.0020986	6
	44	16	39.72458	22511.2	-50502.9	1	55292.83	-65.97552	1.105295E-009	-0.0020953	6
	45	16	31.6723	25361.71	-61297.66	1	66337.17	-67.52283	1.352929E-009	-0.0020993	6
	46	17	24.93351	28826.03	-75197.93	1	80533.65	-69.0264	2.242731E-010	-0.0020932	6
	47	17	19.86229	33269.46	-91445.34	1	97309.3	-70.0077	-3.372523E-010	-0.0020916	6
	48	17	15.83615	40103.65	-109996.6	1	117079.2	-69.96865	-1.249324E-009	-0.0020901	5
	49	18	12.40079	47613.75	-136219.1	1	144300.8	-70.73354	7.675984E-010	-0.0020829	5
	50	18	9.93114	58231.36	-164062.6	1	174090.3	-70.4585	2.156491E-010	-0.002088	5
	51	19	7.944915	71201.58	-196935.5	1	209411.7	-70.12267	4.673638E-012	-0.0020813	5
	52	19	6.317385	88203.98	-236140.1	1	252075.6	-69.51814	1.315314E-011	-0.0020655	5
	53	20	5.008013	110681.7	-283004.5	1	303878.3	-68.63976	-1.134621E-011	-0.0020817	5
	54	21	3.945707	140911.8	-338369.9	1	366538.3	-67.39104	3.011184E-010	-0.0020852	5
	55	22	3.158693	174622.9	-397833.8	1	434470.8	-66.30168	3.494589E-010	-0.0020676	5
	56	24	2.504006	218547.6	-467249.2	1	515834.1	-64.93298	1.863657E-010	-0.0020764	5
	57	25	1.998082	269410.7	-543285.8	1	606417	-63.62359	1.824892E-010	-0.002109	5
	58	27	1.584686	332088.7	-628201.3	1	710577	-62.13754	2.735644E-010	-0.0020642	5
	59	29	1.266892	403161.6	-722462.5	1	827339.9	-60.83682	2.886481E-010	-0.0020443	5
	60	31	0.999041	487333.2	-834375.7	1	966269	-59.71212	2.947561E-010	-0.0020479	5
