EXPLAIN
TAG	EISPOT
TITLE	LABEL	Potentiostatic IDE	Test &Identifier
DATE	LABEL	9/12/2019	Date
TIME	LABEL	9:15:43	Time
NOTES	NOTES	1	&Notes...
	
PSTAT	PSTAT	REF600-11020	Potentiostat
VDC	POTEN	0.00000E+000	T	DC &Voltage (V)
FREQINIT	QUANT	1.00000E+006	Initial Fre&q. (Hz)
FREQFINAL	QUANT	1.00000E+000	Final Fre&q. (Hz)
PTSPERDEC	QUANT	1.00000E+001	Points/&decade
VAC	QUANT	2.50000E+001	AC &Voltage (mV rms)
AREA	QUANT	1.00000E-002	&Area (cm^2)
CONDIT	TWOPARAM	T	5.00000E+000	0.00000E+000	Conditionin&g	Time(s)	E(V)
DELAY	TWOPARAM	T	5.00000E+000	0.00000E+000	Init. De&lay	Time(s)	Stab.(mV/s)
SPEED	SELECTOR	1	&Optimize for:
ZGUESS	QUANT	1.00000E+007	E&stimated Z (ohms)
OCVCURVE	TABLE	19
	Pt	T	Vf	Vm	Ach	Over
	#	s	V vs. Ref.	V	V	bits
	0	0.258333	2.95626E-003	2.95626E-003	5.59899E-004	...........
	1	0.516667	2.95398E-003	2.83708E-003	5.60699E-004	...........
	2	0.775	2.94019E-003	2.73368E-003	5.62366E-004	...........
	3	1.03333	2.90183E-003	2.63789E-003	5.60199E-004	...........
	4	1.29167	2.83477E-003	2.55197E-003	5.62166E-004	...........
	5	1.55	2.74826E-003	2.47370E-003	5.62399E-004	...........
	6	1.80833	2.65596E-003	2.40349E-003	5.65599E-004	...........
	7	2.06667	2.56733E-003	2.33544E-003	5.60532E-004	...........
	8	2.325	2.48600E-003	2.27088E-003	5.63599E-004	...........
	9	2.58333	2.41169E-003	2.20972E-003	5.65666E-004	...........
	10	2.84167	2.34286E-003	2.15354E-003	5.61066E-004	...........
	11	3.1	2.27836E-003	2.10281E-003	5.63966E-004	...........
	12	3.35833	2.21785E-003	2.05212E-003	5.61532E-004	...........
	13	3.61667	2.16124E-003	2.00653E-003	5.61732E-004	...........
	14	3.875	2.10817E-003	1.95705E-003	5.58999E-004	...........
	15	4.13333	2.05783E-003	1.91018E-003	5.57166E-004	...........
	16	4.39167	2.00925E-003	1.86796E-003	5.56599E-004	...........
	17	4.65	1.96197E-003	1.82446E-003	5.61132E-004	...........
	18	4.90833	1.91614E-003	1.78499E-003	5.60666E-004	...........
EOC	QUANT	0.0019161	Open Circuit (V)
PSTATMODEL	IQUANT	4	Pstat Model
PSTATSECTION	LABEL	REF600-11020	Pstat Section
PSTATSERIALNO	LABEL	11020	Pstat Serial Number
CTRLMODE	IQUANT	1	Control Mode
IESTAB	IQUANT	0	I/E Stability
CASPEED	IQUANT	1	Control Amp Speed
CONVENTION	IQUANT	1	Current Convention
ICHRANGE	IQUANT	2	Ich Range
ICHRANGEMODE	TOGGLE	F	Ich Auto Range
ICHOFFSETENABLE	TOGGLE	T	Ich Offset Enable
ICHOFFSET	QUANT	0	Ich Offset (V)
ICHFILTER	IQUANT	3	Ich Filter
VCHRANGE	IQUANT	2	Vch Range
VCHRANGEMODE	TOGGLE	F	Vch Auto Range
VCHOFFSETENABLE	TOGGLE	T	Vch Offset Enable
VCHOFFSET	QUANT	0	Vch Offset (V)
VCHFILTER	IQUANT	3	Vch Filter
ACHRANGE	IQUANT	2	Ach Range
ACHOFFSETENABLE	TOGGLE	F	Ach Offset Enable
ACHOFFSET	QUANT	0	Ach Offset (V)
ACHFILTER	IQUANT	3	Ach Filter
IERANGELOWERLIMIT	IQUANT	1	I/E Range Lower Limit
IERANGEMODE	TOGGLE	F	I/E AutoRange
IERANGE	IQUANT	2	I/E Range
POSFEEDENABLE	TOGGLE	F	Positive Feedback IR Comp
POSFEEDRESISTANCE	QUANT	0	Positive Feedback Resistance (ohm)
ACHSELECT	IQUANT	0	Ach Select
CABLEID	IQUANT	14	Cable ID
DCCALDATE	LABEL	8/19/2019	DC Calibration Date
ACCALDATE	LABEL	8/19/2019	AC Calibration Date
THERMOSELECT	IQUANT	1	Thermo Select
FRAMEWORKVERSION	QUANT	6.33	Framework Version
INSTRUMENTVERSION	LABEL	3.50	Instrument Version
ZCURVE	TABLE
	Pt	Time	Freq	Zreal	Zimag	Zsig	Zmod	Zphz	Idc	Vdc	IERange
	#	s	Hz	ohm	ohm	V	ohm	°	A	V	#
	0	2	1000078	2519.419	-983.059	1	2704.418	-21.31536	9.166719E-007	0.0037691	8
	1	4	794390.6	2659.028	-850.509	1	2791.737	-17.73725	4.9318E-006	0.0030465	8
	2	5	630984.4	2770.462	-727.7977	1	2864.463	-14.71897	-3.929862E-006	0.0042103	8
	3	6	501234.4	2848.063	-608.3947	1	2912.319	-12.05812	-3.484744E-006	0.004605	8
	4	8	398109.4	2898.476	-495.1718	1	2940.469	-9.69474	5.897517E-006	0.0026883	8
	5	9	316265.6	2930.592	-421.3871	1	2960.732	-8.182425	-2.205548E-006	0.003992	8
	6	11	251203.1	2964.68	-369.8005	1	2987.655	-7.110087	7.727184E-007	0.0035043	8
	7	12	199546.9	2998.382	-315.8965	1	3014.977	-6.014248	7.043508E-007	0.0034979	8
	8	14	158578.1	3011.011	-263.6535	1	3022.532	-5.004232	5.19474E-006	0.0027091	8
	9	15	125953.1	3045.227	-206.0887	1	3052.193	-3.871644	-4.099102E-007	0.0044682	7
	10	16	100078.1	3056.652	-183.9194	1	3062.18	-3.443349	-8.900406E-009	0.0036437	7
	11	18	79453.13	3070.698	-178.5358	1	3075.884	-3.327532	-3.099642E-009	0.0035589	7
	12	19	63140.62	3084.994	-176.6108	1	3090.045	-3.276512	2.761232E-008	0.0035804	7
	13	20	50203.12	3100.281	-177.288	1	3105.346	-3.272865	-1.794796E-009	0.0035533	7
	14	22	39890.62	3114.485	-178.2915	1	3119.584	-3.276372	1.357552E-007	0.0034067	7
	15	23	31640.63	3131.391	-188.9071	1	3137.083	-3.452293	-2.158811E-008	0.0035923	7
	16	24	25171.88	3146.454	-202.0887	1	3152.937	-3.674914	-4.616337E-008	0.0036594	7
	17	26	20015.62	3163.473	-219.7285	1	3171.095	-3.973268	4.733536E-008	0.0034561	7
	18	27	15890.62	3181.078	-243.5201	1	3190.385	-4.377609	3.007986E-008	0.0035842	7
	19	28	12609.37	3197.169	-274.614	1	3208.941	-4.909249	4.80792E-008	0.0034528	7
	20	30	10078.13	3216.216	-313.4048	1	3231.45	-5.565625	-5.981296E-009	0.0036306	7
	21	31	8015.625	3235.886	-362.6089	1	3256.139	-6.393813	-6.304758E-009	0.0036303	7
	22	32	6328.125	3258.781	-426.2799	1	3286.543	-7.452526	3.046115E-008	0.0035741	7
	23	34	5015.625	3285.225	-503.6952	1	3323.615	-8.716786	-5.507773E-009	0.0036284	7
	24	35	3984.375	3314.344	-598.637	1	3367.973	-10.23838	-4.426618E-008	0.0036568	7
	25	36	3170.956	3348.272	-714.9424	1	3423.75	-12.05312	-4.809019E-008	0.0037096	7
	26	38	2527.573	3388.24	-855.553	1	3494.587	-14.17133	-2.187043E-009	0.0036345	7
	27	39	1976.103	3438.603	-1041.418	1	3592.846	-16.84951	-5.254077E-008	0.0036963	7
	28	40	1577.524	3491.454	-1249.424	1	3708.276	-19.68986	-4.230034E-008	0.0037304	7
	29	42	1265.625	3558.702	-1500.597	1	3862.144	-22.86369	1.344769E-007	0.0034004	7
	30	43	998.264	3624.719	-1822.609	1	4057.154	-26.69452	-3.113348E-008	0.0035972	7
	31	44	796.875	3707.432	-2202.017	1	4312.068	-30.70806	-2.206633E-008	0.0035848	7
	32	46	627.7902	3807.168	-2693.03	1	4663.361	-35.27398	-1.523031E-008	0.0036587	7
	33	47	505.5147	3911.542	-3241.197	1	5079.914	-39.64596	8.629689E-008	0.0034263	7
	34	48	397.9953	4049.479	-3990.197	1	5685.064	-44.57753	7.1671E-009	0.0036096	7
	35	50	315.5048	4209.894	-4890.146	1	6452.653	-49.27507	7.701897E-009	0.0036014	7
	36	51	252.4038	4395.467	-5953.715	1	7400.463	-53.56255	6.268388E-009	0.0036069	7
	37	52	198.6229	4641.845	-7366.483	1	8706.997	-57.78373	6.742849E-009	0.0036048	7
	38	54	158.3615	4935.708	-9018.445	1	10280.74	-61.30854	6.554056E-009	0.0036042	7
	39	55	125.558	5319.758	-11104.07	1	12312.61	-64.40177	1.485879E-009	0.0035436	6
	40	56	100.4464	5794.878	-13569.34	1	14754.92	-66.87477	7.468687E-010	0.0035502	6
	41	58	79.00281	6442.22	-16804.19	1	17996.75	-69.02468	7.533394E-010	0.0035445	6
	42	59	63.3446	7273.877	-20614.99	1	21860.63	-70.56491	1.541556E-009	0.0035447	6
	43	60	49.86702	8274.856	-25303.73	1	26622.4	-71.89116	1.735068E-009	0.0035402	6
	44	62	39.72458	9783.95	-31033.54	1	32539.3	-72.5015	1.633492E-009	0.0035476	6
	45	63	31.6723	11658.3	-37902.77	1	39655.21	-72.90292	5.961378E-010	0.0035413	6
	46	64	24.93351	14239.56	-46530.07	1	48660.18	-72.98435	1.806245E-009	0.003542	6
	47	66	19.86229	17550.31	-56466.39	1	59130.93	-72.73424	2.124959E-009	0.0035486	6
	48	67	15.83615	22361.08	-68316.31	1	71882.8	-71.87585	3.583522E-009	0.0035409	6
	49	68	12.40079	28064.96	-83163.83	1	87771.66	-71.35221	-1.792376E-010	0.003544	6
	50	70	9.93114	35585.07	-99761.1	1	105917.8	-70.36854	1.200199E-009	0.0035401	5
	51	71	7.944915	44703.42	-118483.1	1	126635.9	-69.32862	1.784554E-009	0.0035402	5
	52	73	6.317385	57169.67	-140748.5	1	151916.1	-67.89384	1.14742E-009	0.0035344	5
	53	75	5.008013	72832.15	-166418.9	1	181658.4	-66.36372	9.051515E-010	0.0035537	5
	54	78	3.945707	92981.88	-196164.1	1	217085.2	-64.63903	-5.713951E-011	0.0035389	5
	55	80	3.158693	115663.3	-226446.4	1	254275.4	-62.94315	7.28768E-010	0.0035621	5
	56	84	2.504006	144234	-261636.8	1	298759.5	-61.13312	-2.552034E-010	0.0035532	5
	57	86	1.998082	175703.5	-297311.5	1	345348.9	-59.41799	3.402625E-010	0.0035035	5
	58	89	1.584686	212136.5	-338508.2	1	399486.7	-57.92543	-2.290511E-011	0.0035244	5
	59	93	1.266892	251302.7	-379640.3	1	455280	-56.49746	4.186744E-010	0.0035101	5
	60	97	0.999041	296377.2	-430355.4	1	522537.3	-55.44559	-8.897057E-011	0.0035706	5
