EXPLAIN
TAG	EISPOT
TITLE	LABEL	Potentiostatic EIS	Test &Identifier
DATE	LABEL	11/22/2019	Date
TIME	LABEL	1:34:38	Time
NOTES	NOTES	4	&Notes...
	
	
	
	
PSTAT	PSTAT	REF600-11020	Potentiostat
VDC	POTEN	0.00000E+000	T	DC &Voltage (V)
FREQINIT	QUANT	1.00000E+006	Initial Fre&q. (Hz)
FREQFINAL	QUANT	1.00000E+000	Final Fre&q. (Hz)
PTSPERDEC	QUANT	1.00000E+001	Points/&decade
VAC	QUANT	2.50000E+001	AC &Voltage (mV rms)
AREA	QUANT	1.00000E-002	&Area (cm^2)
CONDIT	TWOPARAM	T	5.00000E+000	0.00000E+000	Conditionin&g	Time(s)	E(V)
DELAY	TWOPARAM	T	5.00000E+000	0.00000E+000	Init. De&lay	Time(s)	Stab.(mV/s)
SPEED	SELECTOR	1	&Optimize for:
ZGUESS	QUANT	1.00000E+005	E&stimated Z (ohms)
OCVCURVE	TABLE	19
	Pt	T	Vf	Vm	Ach	Over
	#	s	V vs. Ref.	V	V	bits
	0	0.258333	8.38674E-003	8.38674E-003	5.32066E-004	...........
	1	0.516667	8.38406E-003	8.24662E-003	5.27366E-004	...........
	2	0.775	8.36815E-003	8.14115E-003	5.30533E-004	...........
	3	1.03333	8.32541E-003	8.06845E-003	5.32066E-004	...........
	4	1.29167	8.25477E-003	8.00360E-003	5.39433E-004	...........
	5	1.55	8.17099E-003	7.96731E-003	5.33533E-004	...........
	6	1.80833	8.09146E-003	7.92696E-003	5.32966E-004	...........
	7	2.06667	8.02577E-003	7.90446E-003	5.36266E-004	...........
	8	2.325	7.97547E-003	7.89006E-003	5.34466E-004	...........
	9	2.58333	7.93857E-003	7.88310E-003	5.28266E-004	...........
	10	2.84167	7.91280E-003	7.87975E-003	5.35699E-004	...........
	11	3.1	7.89632E-003	7.89010E-003	5.31700E-004	...........
	12	3.35833	7.88776E-003	7.89445E-003	5.29733E-004	...........
	13	3.61667	7.88600E-003	7.91084E-003	5.27866E-004	...........
	14	3.875	7.88985E-003	7.92251E-003	5.28133E-004	...........
	15	4.13333	7.89824E-003	7.94923E-003	5.33266E-004	...........
	16	4.39167	7.91057E-003	7.96162E-003	5.31466E-004	...........
	17	4.65	7.92615E-003	7.98477E-003	5.35600E-004	...........
	18	4.90833	7.94382E-003	7.99911E-003	5.30099E-004	...........
EOC	QUANT	0.0079438	Open Circuit (V)
PSTATMODEL	IQUANT	4	Pstat Model
PSTATSECTION	LABEL	REF600-11020	Pstat Section
PSTATSERIALNO	LABEL	11020	Pstat Serial Number
CTRLMODE	IQUANT	1	Control Mode
IESTAB	IQUANT	0	I/E Stability
CASPEED	IQUANT	1	Control Amp Speed
CONVENTION	IQUANT	1	Current Convention
ICHRANGE	IQUANT	2	Ich Range
ICHRANGEMODE	TOGGLE	F	Ich Auto Range
ICHOFFSETENABLE	TOGGLE	T	Ich Offset Enable
ICHOFFSET	QUANT	0	Ich Offset (V)
ICHFILTER	IQUANT	3	Ich Filter
VCHRANGE	IQUANT	2	Vch Range
VCHRANGEMODE	TOGGLE	F	Vch Auto Range
VCHOFFSETENABLE	TOGGLE	T	Vch Offset Enable
VCHOFFSET	QUANT	0	Vch Offset (V)
VCHFILTER	IQUANT	3	Vch Filter
ACHRANGE	IQUANT	2	Ach Range
ACHOFFSETENABLE	TOGGLE	F	Ach Offset Enable
ACHOFFSET	QUANT	0	Ach Offset (V)
ACHFILTER	IQUANT	3	Ach Filter
IERANGELOWERLIMIT	IQUANT	1	I/E Range Lower Limit
IERANGEMODE	TOGGLE	F	I/E AutoRange
IERANGE	IQUANT	5	I/E Range
POSFEEDENABLE	TOGGLE	F	Positive Feedback IR Comp
POSFEEDRESISTANCE	QUANT	0	Positive Feedback Resistance (ohm)
ACHSELECT	IQUANT	0	Ach Select
CABLEID	IQUANT	14	Cable ID
DCCALDATE	LABEL	8/19/2019	DC Calibration Date
ACCALDATE	LABEL	8/19/2019	AC Calibration Date
THERMOSELECT	IQUANT	1	Thermo Select
FRAMEWORKVERSION	QUANT	6.33	Framework Version
INSTRUMENTVERSION	LABEL	3.50	Instrument Version
ZCURVE	TABLE
	Pt	Time	Freq	Zreal	Zimag	Zsig	Zmod	Zphz	Idc	Vdc	IERange
	#	s	Hz	ohm	ohm	V	ohm	°	A	V	#
	0	1	1000078	2213.617	-1905.528	1	2920.811	-40.72256	2.586498E-006	0.009444	8
	1	3	794390.6	2597.028	-1927.314	1	3234.052	-36.57997	4.103319E-006	0.009796	8
	2	4	630984.4	2974.308	-1884.134	1	3520.862	-32.35302	3.661776E-006	0.0096562	8
	3	5	501234.4	3318.807	-1804.926	1	3777.862	-28.53946	-3.304782E-006	0.0095201	8
	4	7	398109.4	3611.883	-1670.466	1	3979.467	-24.82015	6.560666E-006	0.0084022	8
	5	8	316265.6	3868.677	-1543.283	1	4165.14	-21.74792	3.58043E-006	0.0094812	8
	6	10	251203.1	4096.103	-1389.856	1	4325.478	-18.74268	-5.230586E-007	0.009952	8
	7	11	199546.9	4270.026	-1270.413	1	4455.005	-16.56873	-8.598146E-007	0.0099365	8
	8	12	158578.1	4403.043	-1176.292	1	4557.461	-14.9575	5.739945E-006	0.0088309	8
	9	14	125953.1	4572.04	-1025.097	1	4685.549	-12.63729	5.262881E-007	0.0118584	7
	10	15	100078.1	4672.806	-961.68	1	4770.738	-11.6293	-9.381255E-007	0.0112228	7
	11	17	79453.13	4774.648	-929.8163	1	4864.342	-11.01987	6.368688E-007	0.0096898	7
	12	18	63140.62	4869.082	-912.3163	1	4953.815	-10.61242	6.36525E-007	0.009688	7
	13	19	50203.12	4961.754	-909.9614	1	5044.505	-10.39228	4.021618E-007	0.0100311	7
	14	21	39890.62	5055.814	-926.9066	1	5140.079	-10.38894	1.062799E-006	0.0087246	7
	15	22	31640.63	5151.282	-961.733	1	5240.29	-10.57525	6.38219E-007	0.0096891	7
	16	23	25171.88	5245.712	-1010.856	1	5342.221	-10.90727	-9.385146E-007	0.0112119	7
	17	25	20015.62	5359.158	-1088.374	1	5468.558	-11.47989	8.23638E-007	0.0076019	7
	18	26	15890.62	5476.728	-1176.115	1	5601.589	-12.12007	5.137302E-007	0.0077112	7
	19	27	12609.37	5600.575	-1285.148	1	5746.133	-12.92376	6.381111E-007	0.0096808	7
	20	29	10078.13	5733.124	-1411.829	1	5904.403	-13.83429	-9.377255E-007	0.0112106	7
	21	30	8015.625	5880.198	-1573.521	1	6087.093	-14.98114	-1.090768E-006	0.0099907	7
	22	32	6328.125	6058.196	-1775.188	1	6312.926	-16.33178	6.982275E-008	0.0104612	7
	23	33	5015.625	6258.962	-2001.959	1	6571.335	-17.73712	8.732385E-007	0.0092245	7
	24	35	3984.375	6468.803	-2262.732	1	6853.128	-19.27941	-1.145387E-006	0.0111443	7
	25	36	3170.956	6712.543	-2556.676	1	7182.954	-20.85085	-3.051221E-007	0.0108732	7
	26	38	2527.573	6983.328	-2896.357	1	7560.143	-22.52638	-3.006118E-007	0.0108655	7
	27	39	1976.103	7320.306	-3317.739	1	8037.056	-24.38118	-9.341784E-007	0.0112047	7
	28	41	1577.524	7647.822	-3784.577	1	8533.007	-26.32882	-9.373973E-007	0.0112006	7
	29	42	1265.625	8035.945	-4268.833	1	9099.414	-27.97801	6.401851E-007	0.0096747	7
	30	43	998.264	8470.895	-4880.602	1	9776.31	-29.94888	-1.145049E-006	0.0111435	7
	31	45	796.875	8914.189	-5562.721	1	10507.46	-31.9654	-6.475923E-007	0.0111197	7
	32	46	627.7902	9414.438	-6412.187	1	11390.69	-34.25883	-1.704742E-007	0.0100486	6
	33	48	505.5147	9902.43	-7345.312	1	12329.3	-36.56686	1.278691E-007	0.0094247	6
	34	49	397.9953	10458.03	-8569.02	1	13520.3	-39.33023	3.999E-010	0.0094182	6
	35	50	315.5048	11026.76	-10033.9	1	14908.67	-42.30092	-2.467859E-010	0.0094181	6
	36	52	252.4038	11607.4	-11769.52	1	16530.38	-45.39733	2.17726E-010	0.0094207	6
	37	53	198.6229	12281.82	-14081.35	1	18684.95	-48.90491	-3.484835E-011	0.0094238	6
	38	54	158.3615	12995.12	-16801.63	1	21240.71	-52.28006	8.680774E-010	0.0094104	6
	39	56	125.558	13844.09	-20277.9	1	24553.04	-55.67794	6.32992E-010	0.0094207	6
	40	57	100.4464	14821.13	-24367.21	1	28520.64	-58.69033	1.017171E-009	0.0094073	6
	41	58	79.00281	16156.4	-29950.56	1	34030.36	-61.65601	3.391849E-010	0.0094166	6
	42	60	63.3446	17278.38	-36096.57	1	40018.81	-64.42091	6.786022E-010	0.0094089	6
	43	61	49.86702	19944.65	-44203.2	1	48494.45	-65.71492	3.669234E-010	0.009411	6
	44	63	39.72458	22448.15	-53892.12	1	58380.48	-67.38639	3.39747E-012	0.0094241	6
	45	64	31.6723	25959.81	-65531.99	1	70486.55	-68.38953	6.050657E-010	0.0094043	6
	46	65	24.93351	30532.48	-80017.2	1	85644.52	-69.11445	1.385132E-010	0.0094009	6
	47	67	19.86229	36332.02	-96710.1	1	103309.6	-69.40983	1.664847E-010	0.009415	6
	48	68	15.83615	43688.33	-116624.8	1	124539.2	-69.46375	-1.388692E-011	0.009415	5
	49	70	12.40079	53591.16	-142202.2	1	151965.4	-69.35028	-2.4429E-010	0.0094165	5
	50	71	9.93114	65903.2	-168194.7	1	180645.2	-68.60342	-1.769307E-010	0.00941	5
	51	73	7.944915	80604.03	-198842.5	1	214558.5	-67.93403	7.73806E-010	0.0094106	5
	52	74	6.317385	100268.9	-236798	1	257152	-67.05044	8.605783E-011	0.0094311	5
	53	76	5.008013	123915.1	-280105.1	1	306290.4	-66.13599	2.099897E-010	0.0094101	5
	54	79	3.945707	153362.5	-331066.4	1	364863	-65.14464	1.603816E-010	0.0094111	5
	55	82	3.158693	186187	-385149.7	1	427791.9	-64.2002	-3.224759E-011	0.0094305	5
	56	85	2.504006	225980.6	-449364.1	1	502986.4	-63.30265	1.932835E-010	0.0094087	5
	57	88	1.998082	270071.3	-519739.6	1	585719.9	-62.54234	-2.888171E-011	0.0094543	5
	58	91	1.584686	320416.2	-604306.8	1	683998	-62.06652	9.274008E-011	0.0094341	5
	59	94	1.266892	377994.3	-697939.9	1	793725.3	-61.56065	-1.020952E-011	0.0094584	5
	60	99	0.999041	445443.8	-814771.3	1	928586.3	-61.33412	4.285409E-011	0.0093743	5
