EXPLAIN
TAG	EISPOT
TITLE	LABEL	Potentiostatic EIS	Test &Identifier
DATE	LABEL	11/22/2019	Date
TIME	LABEL	1:36:59	Time
NOTES	NOTES	4	&Notes...
	
	
	
	
PSTAT	PSTAT	REF600-11020	Potentiostat
VDC	POTEN	0.00000E+000	T	DC &Voltage (V)
FREQINIT	QUANT	1.00000E+006	Initial Fre&q. (Hz)
FREQFINAL	QUANT	1.00000E+000	Final Fre&q. (Hz)
PTSPERDEC	QUANT	1.00000E+001	Points/&decade
VAC	QUANT	2.50000E+001	AC &Voltage (mV rms)
AREA	QUANT	1.00000E-002	&Area (cm^2)
CONDIT	TWOPARAM	T	5.00000E+000	0.00000E+000	Conditionin&g	Time(s)	E(V)
DELAY	TWOPARAM	T	5.00000E+000	0.00000E+000	Init. De&lay	Time(s)	Stab.(mV/s)
SPEED	SELECTOR	1	&Optimize for:
ZGUESS	QUANT	1.00000E+005	E&stimated Z (ohms)
OCVCURVE	TABLE	19
	Pt	T	Vf	Vm	Ach	Over
	#	s	V vs. Ref.	V	V	bits
	0	0.258333	4.38127E-003	4.38127E-003	5.57299E-004	...........
	1	0.516667	4.37682E-003	4.14836E-003	5.54533E-004	...........
	2	0.775	4.34976E-003	3.94134E-003	5.53799E-004	...........
	3	1.03333	4.27438E-003	3.75813E-003	5.52099E-004	...........
	4	1.29167	4.14260E-003	3.58782E-003	5.52366E-004	...........
	5	1.55	3.97280E-003	3.43465E-003	5.47899E-004	...........
	6	1.80833	3.79179E-003	3.29350E-003	5.49933E-004	...........
	7	2.06667	3.61782E-003	3.16293E-003	5.52266E-004	...........
	8	2.325	3.45794E-003	3.03779E-003	5.53599E-004	...........
	9	2.58333	3.31217E-003	2.92302E-003	5.47633E-004	...........
	10	2.84167	3.17803E-003	2.81185E-003	5.53333E-004	...........
	11	3.1	3.05322E-003	2.71287E-003	5.51799E-004	...........
	12	3.35833	2.93634E-003	2.61376E-003	5.44899E-004	...........
	13	3.61667	2.82668E-003	2.52654E-003	5.45633E-004	...........
	14	3.875	2.72368E-003	2.43693E-003	5.52366E-004	...........
	15	4.13333	2.62678E-003	2.36128E-003	5.51499E-004	...........
	16	4.39167	2.53559E-003	2.28465E-003	5.55099E-004	...........
	17	4.65	2.45001E-003	2.21826E-003	5.59832E-004	...........
	18	4.90833	2.36986E-003	2.14416E-003	5.61499E-004	...........
EOC	QUANT	0.0023699	Open Circuit (V)
PSTATMODEL	IQUANT	4	Pstat Model
PSTATSECTION	LABEL	REF600-11020	Pstat Section
PSTATSERIALNO	LABEL	11020	Pstat Serial Number
CTRLMODE	IQUANT	1	Control Mode
IESTAB	IQUANT	0	I/E Stability
CASPEED	IQUANT	1	Control Amp Speed
CONVENTION	IQUANT	1	Current Convention
ICHRANGE	IQUANT	2	Ich Range
ICHRANGEMODE	TOGGLE	F	Ich Auto Range
ICHOFFSETENABLE	TOGGLE	T	Ich Offset Enable
ICHOFFSET	QUANT	0	Ich Offset (V)
ICHFILTER	IQUANT	3	Ich Filter
VCHRANGE	IQUANT	2	Vch Range
VCHRANGEMODE	TOGGLE	F	Vch Auto Range
VCHOFFSETENABLE	TOGGLE	T	Vch Offset Enable
VCHOFFSET	QUANT	0	Vch Offset (V)
VCHFILTER	IQUANT	3	Vch Filter
ACHRANGE	IQUANT	2	Ach Range
ACHOFFSETENABLE	TOGGLE	F	Ach Offset Enable
ACHOFFSET	QUANT	0	Ach Offset (V)
ACHFILTER	IQUANT	3	Ach Filter
IERANGELOWERLIMIT	IQUANT	1	I/E Range Lower Limit
IERANGEMODE	TOGGLE	F	I/E AutoRange
IERANGE	IQUANT	4	I/E Range
POSFEEDENABLE	TOGGLE	F	Positive Feedback IR Comp
POSFEEDRESISTANCE	QUANT	0	Positive Feedback Resistance (ohm)
ACHSELECT	IQUANT	0	Ach Select
CABLEID	IQUANT	14	Cable ID
DCCALDATE	LABEL	8/19/2019	DC Calibration Date
ACCALDATE	LABEL	8/19/2019	AC Calibration Date
THERMOSELECT	IQUANT	1	Thermo Select
FRAMEWORKVERSION	QUANT	6.33	Framework Version
INSTRUMENTVERSION	LABEL	3.50	Instrument Version
ZCURVE	TABLE
	Pt	Time	Freq	Zreal	Zimag	Zsig	Zmod	Zphz	Idc	Vdc	IERange
	#	s	Hz	ohm	ohm	V	ohm	°	A	V	#
	0	1	1000078	1729.665	-1016.367	1	2006.176	-30.43888	-4.059114E-006	0.0040118	8
	1	2	794390.6	1895.145	-1008.132	1	2146.604	-28.01098	1.04061E-005	0.0030744	8
	2	4	630984.4	2070.818	-991	1	2295.729	-25.57367	-1.457469E-006	0.0043716	8
	3	5	501234.4	2234.948	-955.508	1	2430.635	-23.14817	-6.305495E-006	0.0047908	8
	4	7	398109.4	2385.391	-916.6898	1	2555.466	-21.02144	1.364205E-006	0.0041931	8
	5	8	316265.6	2526.368	-867.9529	1	2671.307	-18.96055	-1.677889E-006	0.0035567	8
	6	9	251203.1	2646.775	-818.5609	1	2770.462	-17.18513	-1.511636E-006	0.0035567	8
	7	11	199546.9	2750.525	-776.7444	1	2858.097	-15.7696	7.870309E-007	0.0041437	8
	8	12	158578.1	2851.36	-749.3808	1	2948.19	-14.7252	6.734499E-006	0.0030417	8
	9	13	125953.1	2948.747	-669.1012	1	3023.707	-12.78452	-2.981667E-006	0.0075158	7
	10	15	100078.1	3028.196	-656.8953	1	3098.626	-12.23933	-1.146157E-006	0.0048159	7
	11	16	79453.13	3114.353	-655.183	1	3182.524	-11.88037	6.577537E-008	0.0025305	7
	12	17	63140.62	3189.592	-664.3406	1	3258.043	-11.76557	-3.260827E-007	0.0030115	7
	13	19	50203.12	3271.87	-686.9042	1	3343.197	-11.85662	1.105143E-007	0.00459	7
	14	20	39890.62	3346.259	-704.7697	1	3419.671	-11.89348	-1.144544E-006	0.0051382	7
	15	22	31640.63	3440.992	-738.3512	1	3519.316	-12.11061	6.260776E-008	0.0025108	7
	16	23	25171.88	3528.45	-779.4159	1	3613.509	-12.45631	-5.45186E-007	0.0052131	7
	17	24	20015.62	3636.163	-831.2684	1	3729.972	-12.87718	1.129427E-007	0.0045944	7
	18	26	15890.62	3738.486	-885.5978	1	3841.948	-13.32695	4.14351E-007	0.004168	7
	19	27	12609.37	3858.135	-952.528	1	3973.98	-13.86832	1.010024E-006	0.0023298	7
	20	28	10078.13	3951.08	-1015.908	1	4079.596	-14.41962	-3.279798E-007	0.0030015	7
	21	30	8015.625	4092.518	-1104.075	1	4238.831	-15.09776	1.009498E-006	0.0023328	7
	22	31	6328.125	4203.97	-1189.25	1	4368.945	-15.79553	-1.148845E-006	0.0051417	7
	23	32	5015.625	4351.791	-1304.528	1	4543.113	-16.68706	4.139884E-007	0.0022133	7
	24	34	3984.375	4493.891	-1437.555	1	4718.222	-17.739	6.932421E-007	0.0020889	7
	25	35	3170.956	4627.207	-1591.463	1	4893.24	-18.97993	4.129508E-007	0.002218	7
	26	37	2527.573	4758.454	-1773.887	1	5078.342	-20.44478	-3.251732E-007	0.0029985	7
	27	38	1976.103	4933.724	-2032.066	1	5335.815	-22.38543	4.129805E-007	0.0041639	7
	28	39	1577.524	5073.689	-2322.474	1	5579.983	-24.59587	6.15905E-007	0.0038532	7
	29	41	1265.625	5231.939	-2631.05	1	5856.246	-26.69702	-1.006776E-006	0.0042844	7
	30	42	998.264	5434.324	-3093.127	1	6252.945	-29.64782	4.151756E-007	0.0041578	7
	31	43	796.875	5614.838	-3614.615	1	6677.713	-32.77186	4.130148E-007	0.0041585	7
	32	45	627.7902	5830.936	-4310.473	1	7251.206	-36.47337	1.009279E-006	0.0023274	7
	33	46	505.5147	6029.336	-5061.253	1	7872.05	-40.01137	-2.26332E-007	0.0049564	7
	34	48	397.9953	6298.285	-6122.568	1	8783.748	-44.1895	6.532156E-009	0.0037481	7
	35	49	315.5048	6614.143	-7400.321	1	9925.3	-48.21079	8.676757E-010	0.0036844	6
	36	50	252.4038	6978.153	-8914.353	1	11320.79	-51.94617	1.060367E-009	0.0036806	6
	37	52	198.6229	7465.595	-10911.9	1	13221.37	-55.62123	9.236714E-010	0.003688	6
	38	53	158.3615	8050.178	-13229.82	1	15486.55	-58.68001	1.171926E-009	0.003688	6
	39	54	125.558	8814.822	-16124.51	1	18376.64	-61.33579	1.329455E-009	0.0036798	6
	40	56	100.4464	9739.67	-19501.82	1	21798.68	-63.46137	1.674876E-009	0.0036787	6
	41	57	79.00281	11071.8	-23878.89	1	26320.84	-65.12451	1.268999E-009	0.003686	6
	42	59	63.3446	12408.97	-28900.89	1	31452.24	-66.76311	4.463825E-010	0.0036844	6
	43	60	49.86702	14621.31	-34888.83	1	37828.73	-67.26228	1.43073E-009	0.0036812	6
	44	61	39.72458	17174.26	-42220.3	1	45579.7	-67.86463	1.217813E-009	0.003686	6
	45	63	31.6723	20322.41	-50881.18	1	54789.55	-68.22778	1.410524E-009	0.0036923	6
	46	64	24.93351	24492.35	-61433.45	1	66135.8	-68.26377	1.027397E-009	0.0036861	6
	47	66	19.86229	29557.35	-73486.76	1	79208.21	-68.08936	2.166472E-010	0.0036972	6
	48	67	15.83615	35174.45	-86951.33	1	93796.45	-67.97517	1.738129E-009	0.0036879	6
	49	68	12.40079	43243.14	-105222.8	1	113762.1	-67.65894	9.189126E-010	0.0037014	5
	50	70	9.93114	52990.13	-124201.2	1	135033	-66.89461	2.328797E-010	0.0036963	5
	51	71	7.944915	64179.89	-146118	1	159591.8	-66.28732	-7.189251E-011	0.0036968	5
	52	73	6.317385	77571.18	-172083.9	1	188759.5	-65.73532	3.467151E-010	0.0036893	5
	53	75	5.008013	94133.72	-203014	1	223776.3	-65.12375	1.829578E-010	0.0037062	5
	54	78	3.945707	114262.3	-239682.2	1	265524.8	-64.51173	-9.665736E-011	0.0036931	5
	55	80	3.158693	136465	-279279.1	1	310836.8	-63.95834	3.589142E-010	0.0037096	5
	56	84	2.504006	164030	-327547.3	1	366323.7	-63.3991	-1.524798E-010	0.0036925	5
	57	86	1.998082	194973.2	-380921.8	1	427920.5	-62.89456	-5.512794E-011	0.0036862	5
	58	90	1.584686	233267.9	-443951.4	1	501504.5	-62.28097	1.466707E-010	0.0037439	5
	59	93	1.266892	273726.6	-514153.4	1	582477.4	-61.96992	-4.610222E-011	0.0037005	5
	60	97	0.999041	323555.2	-601635	1	683119.8	-61.72894	2.701148E-010	0.0037049	5
