EXPLAIN
TAG	EISPOT
TITLE	LABEL	Potentiostatic IDE	Test &Identifier
DATE	LABEL	9/14/2019	Date
TIME	LABEL	8:47:55	Time
NOTES	NOTES	1	&Notes...
	
PSTAT	PSTAT	REF600-11020	Potentiostat
VDC	POTEN	0.00000E+000	T	DC &Voltage (V)
FREQINIT	QUANT	1.00000E+006	Initial Fre&q. (Hz)
FREQFINAL	QUANT	1.00000E+000	Final Fre&q. (Hz)
PTSPERDEC	QUANT	1.00000E+001	Points/&decade
VAC	QUANT	2.50000E+001	AC &Voltage (mV rms)
AREA	QUANT	1.00000E-002	&Area (cm^2)
CONDIT	TWOPARAM	T	5.00000E+000	0.00000E+000	Conditionin&g	Time(s)	E(V)
DELAY	TWOPARAM	T	5.00000E+000	0.00000E+000	Init. De&lay	Time(s)	Stab.(mV/s)
SPEED	SELECTOR	1	&Optimize for:
ZGUESS	QUANT	1.00000E+007	E&stimated Z (ohms)
OCVCURVE	TABLE	19
	Pt	T	Vf	Vm	Ach	Over
	#	s	V vs. Ref.	V	V	bits
	0	0.258333	8.24616E-004	8.24616E-004	5.57799E-004	...........
	1	0.516667	8.17862E-004	4.71075E-004	5.56766E-004	...........
	2	0.775	7.77097E-004	1.73024E-004	5.54766E-004	...........
	3	1.03333	6.64474E-004	-9.50013E-005	5.46399E-004	...........
	4	1.29167	4.69554E-004	-3.24972E-004	5.51399E-004	...........
	5	1.55	2.21632E-004	-5.43442E-004	5.55066E-004	...........
	6	1.80833	-3.85261E-005	-7.31150E-004	5.58632E-004	...........
	7	2.06667	-2.84190E-004	-9.02274E-004	5.52466E-004	...........
	8	2.325	-5.05391E-004	-1.05385E-003	5.57099E-004	...........
	9	2.58333	-7.01893E-004	-1.20365E-003	5.56866E-004	...........
	10	2.84167	-8.78050E-004	-1.36368E-003	5.55333E-004	...........
	11	3.1	-1.04026E-003	-1.49352E-003	5.50099E-004	...........
	12	3.35833	-1.19263E-003	-1.57096E-003	5.53266E-004	...........
	13	3.61667	-1.33272E-003	-1.65359E-003	5.50799E-004	...........
	14	3.875	-1.43703E-003	-8.04043E-004	5.49933E-004	...........
	15	4.13333	-1.43263E-003	-8.98071E-005	5.51832E-004	...........
	16	4.39167	-1.26604E-003	-1.63479E-003	5.54499E-004	...........
	17	4.65	-1.05450E-003	-1.42416E-003	5.55599E-004	...........
	18	4.90833	-1.00243E-003	-1.64405E-003	5.59699E-004	...........
EOC	QUANT	-0.0010024	Open Circuit (V)
PSTATMODEL	IQUANT	4	Pstat Model
PSTATSECTION	LABEL	REF600-11020	Pstat Section
PSTATSERIALNO	LABEL	11020	Pstat Serial Number
CTRLMODE	IQUANT	1	Control Mode
IESTAB	IQUANT	0	I/E Stability
CASPEED	IQUANT	1	Control Amp Speed
CONVENTION	IQUANT	1	Current Convention
ICHRANGE	IQUANT	2	Ich Range
ICHRANGEMODE	TOGGLE	F	Ich Auto Range
ICHOFFSETENABLE	TOGGLE	T	Ich Offset Enable
ICHOFFSET	QUANT	0	Ich Offset (V)
ICHFILTER	IQUANT	3	Ich Filter
VCHRANGE	IQUANT	2	Vch Range
VCHRANGEMODE	TOGGLE	F	Vch Auto Range
VCHOFFSETENABLE	TOGGLE	T	Vch Offset Enable
VCHOFFSET	QUANT	0	Vch Offset (V)
VCHFILTER	IQUANT	3	Vch Filter
ACHRANGE	IQUANT	2	Ach Range
ACHOFFSETENABLE	TOGGLE	F	Ach Offset Enable
ACHOFFSET	QUANT	0	Ach Offset (V)
ACHFILTER	IQUANT	3	Ach Filter
IERANGELOWERLIMIT	IQUANT	1	I/E Range Lower Limit
IERANGEMODE	TOGGLE	F	I/E AutoRange
IERANGE	IQUANT	2	I/E Range
POSFEEDENABLE	TOGGLE	F	Positive Feedback IR Comp
POSFEEDRESISTANCE	QUANT	0	Positive Feedback Resistance (ohm)
ACHSELECT	IQUANT	0	Ach Select
CABLEID	IQUANT	14	Cable ID
DCCALDATE	LABEL	8/19/2019	DC Calibration Date
ACCALDATE	LABEL	8/19/2019	AC Calibration Date
THERMOSELECT	IQUANT	1	Thermo Select
FRAMEWORKVERSION	QUANT	6.33	Framework Version
INSTRUMENTVERSION	LABEL	3.50	Instrument Version
ZCURVE	TABLE
	Pt	Time	Freq	Zreal	Zimag	Zsig	Zmod	Zphz	Idc	Vdc	IERange
	#	s	Hz	ohm	ohm	V	ohm	°	A	V	#
	0	2	1000078	1849.141	-1690.926	1	2505.704	-42.44102	6.882188E-006	0.0002622	8
	1	3	794390.6	1964.048	-1865.994	1	2709.136	-43.53347	2.849179E-006	-0.0002015	8
	2	5	630984.4	2085.033	-2099.347	1	2958.821	-45.196	5.236609E-006	-0.0002762	8
	3	6	501234.4	2185.942	-2411.276	1	3254.627	-47.80613	-1.37207E-006	0.0008535	8
	4	8	398109.4	2265.137	-2844.114	1	3635.908	-51.46513	4.448828E-006	-0.000136	8
	5	9	316265.6	2391.641	-3392.341	1	4150.654	-54.81571	1.276447E-006	0.0002983	8
	6	10	251203.1	2566.15	-4111.244	1	4846.385	-58.02848	-2.500551E-006	0.0012362	8
	7	12	199546.9	2744.212	-5031.427	1	5731.139	-61.39132	8.518551E-007	0.0005102	8
	8	13	158578.1	3000.012	-6137.861	1	6831.794	-63.95193	-1.688362E-007	0.0005093	8
	9	15	125953.1	3563.142	-7547.492	1	8346.293	-64.72818	3.461294E-007	0.0001029	7
	10	16	100078.1	4083.517	-9245.143	1	10106.82	-66.16928	-5.770916E-008	0.0006028	7
	11	18	79453.13	4897.21	-11314.84	1	12329.16	-66.59641	9.44005E-008	0.0003546	7
	12	19	63140.62	6015.79	-13716.37	1	14977.6	-66.31848	-3.419593E-008	0.0005372	7
	13	20	50203.12	7561.879	-16503.94	1	18153.84	-65.38339	-7.124284E-008	0.0006768	7
	14	22	39890.62	9573.22	-19616.47	1	21827.79	-63.98671	-7.008587E-008	0.0006739	7
	15	23	31640.63	12565.21	-23036.32	1	26240.36	-61.38966	1.062832E-008	0.0004539	7
	16	25	25171.88	16054.54	-26654.19	1	31115.82	-58.93832	-8.633292E-009	0.0005784	7
	17	26	20015.62	20437.61	-30067.42	1	36355.82	-55.79502	-4.122187E-008	0.0005448	7
	18	28	15890.62	25491.59	-33601.27	1	42176.61	-52.81424	-3.292761E-008	0.0005262	7
	19	29	12609.37	32080.41	-35976.3	1	48202.14	-48.27631	1.855601E-008	0.000161	6
	20	31	10078.13	38097	-38616.67	1	54246	-45.38813	-2.902508E-009	0.0006422	6
	21	33	8015.625	44343.04	-40347.73	1	59952.02	-42.29906	3.259058E-009	0.0003579	6
	22	34	6328.125	50686.13	-42434.3	1	66104.11	-39.93598	4.191117E-009	0.000571	7
	23	36	5015.625	57185.84	-43567.33	1	71891.12	-37.30215	-6.132195E-008	0.0006121	7
	24	38	3984.375	63869.16	-45079.96	1	78175.9	-35.21511	-2.999862E-009	0.0003935	6
	25	39	3170.956	70320.9	-46693.66	1	84411.65	-33.58449	1.795141E-008	0.0001584	6
	26	41	2527.573	76698.99	-48263.71	1	90620.76	-32.18062	1.716624E-008	0.0001498	6
	27	42	1976.103	83537.4	-50248.98	1	97485.7	-31.02753	7.752211E-009	0.0002869	6
	28	44	1577.524	90061.4	-53296.7	1	104649.9	-30.61628	4.326159E-009	0.0004971	6
	29	45	1265.625	98378	-54043.14	1	112244.8	-28.78182	2.835729E-010	0.0004876	5
	30	47	998.264	105600.8	-58053.55	1	120506.2	-28.7996	2.013616E-011	0.0003718	5
	31	48	796.875	113062.9	-62303.72	1	129092.9	-28.85712	8.444016E-011	0.0002858	5
	32	49	627.7902	121816.6	-67188.93	1	139117.3	-28.87929	1.446897E-010	0.00057	5
	33	51	505.5147	130570.6	-72493.2	1	149345.1	-29.03917	-4.221252E-010	0.000488	5
	34	52	397.9953	141006.9	-78214.2	1	161246.4	-29.01641	2.686895E-010	0.0005035	5
	35	53	315.5048	152290	-84764.89	1	174291	-29.10039	-1.053476E-010	0.0004992	5
	36	55	252.4038	164025.5	-90507.35	1	187339.1	-28.8894	-7.908534E-010	0.0004975	5
	37	56	198.6229	177704.8	-96885	1	202399.9	-28.59931	-1.484658E-010	0.0005013	5
	38	57	158.3615	190934.6	-103826.1	1	217338.2	-28.53639	-2.768804E-010	0.0004952	5
	39	59	125.558	205010	-109595.8	1	232465.8	-28.12841	7.9603E-011	0.0004954	5
	40	60	100.4464	218483.2	-117666.1	1	248153.6	-28.30508	1.264273E-010	0.0004963	5
	41	62	79.00281	234411.3	-129057.4	1	267590.1	-28.83541	-2.591595E-010	0.000497	5
	42	63	63.3446	229560.9	-133111.8	1	265361.9	-30.10747	7.06428E-012	0.0004917	5
	43	65	49.86702	261386.5	-149109	1	300925.9	-29.70278	2.079934E-010	0.0004905	5
	44	67	39.72458	276303	-167474.1	1	323095.9	-31.22109	-3.02338E-010	0.0004966	5
	45	68	31.6723	301841.2	-184620.8	1	353826.1	-31.45198	-4.898785E-010	0.000493	5
	46	69	24.93351	320656.2	-209831.9	1	383209.8	-33.20004	7.170733E-011	0.0004909	5
	47	71	19.86229	345085	-237396.5	1	418856.5	-34.52549	-4.183573E-010	0.000488	5
	48	72	15.83615	371260.2	-258239.3	1	452240.8	-34.82151	2.194786E-010	0.0004929	5
	49	73	12.40079	397259.9	-302210.8	1	499146	-37.26163	-2.395226E-010	0.0004922	5
	50	75	9.93114	436950.4	-335762.6	1	551055.6	-37.53949	3.339234E-010	0.0004928	5
	51	76	7.944915	471965.4	-388332.3	1	611190.1	-39.44749	6.445107E-010	0.0004869	5
	52	78	6.317385	520329	-427994.9	1	673737.3	-39.43889	9.699762E-010	0.0004769	6
	53	80	5.008013	572116.4	-484413.1	1	749648.7	-40.25471	5.781305E-010	0.0004908	6
	54	83	3.945707	627183.7	-550752.8	1	834678.4	-41.28754	7.303598E-010	0.0004914	6
	55	87	3.158693	693590.6	-618648.4	1	929405.1	-41.73138	6.539519E-010	0.0004855	6
	56	90	2.504006	768125.7	-701872	1	1040501	-42.41939	5.165334E-011	0.0005025	4
	57	93	1.998082	849649.2	-794082.2	1	1162957	-43.06383	2.673997E-010	0.0004923	4
	58	96	1.584686	947599.8	-896558.5	1	1304516	-43.41462	1.016456E-010	0.0004485	4
	59	100	1.266892	1056099	-1013580	1	1463793	-43.82311	2.309242E-010	0.0005226	4
	60	104	0.999041	1190114	-1145553	1	1651867	-43.90701	-3.690612E-011	0.0004606	4
