EXPLAIN
TAG	EISPOT
TITLE	LABEL	Potentiostatic EIS	Test &Identifier
DATE	LABEL	10/20/2019	Date
TIME	LABEL	9:13:29	Time
NOTES	NOTES	1	&Notes...
	
PSTAT	PSTAT	REF600-11020	Potentiostat
VDC	POTEN	0.00000E+000	T	DC &Voltage (V)
FREQINIT	QUANT	1.00000E+006	Initial Fre&q. (Hz)
FREQFINAL	QUANT	1.00000E+000	Final Fre&q. (Hz)
PTSPERDEC	QUANT	1.00000E+001	Points/&decade
VAC	QUANT	2.50000E+001	AC &Voltage (mV rms)
AREA	QUANT	1.00000E-002	&Area (cm^2)
CONDIT	TWOPARAM	T	5.00000E+000	0.00000E+000	Conditionin&g	Time(s)	E(V)
DELAY	TWOPARAM	T	5.00000E+000	0.00000E+000	Init. De&lay	Time(s)	Stab.(mV/s)
SPEED	SELECTOR	1	&Optimize for:
ZGUESS	QUANT	1.00000E+005	E&stimated Z (ohms)
OCVCURVE	TABLE	19
	Pt	T	Vf	Vm	Ach	Over
	#	s	V vs. Ref.	V	V	bits
	0	0.258333	4.27651E-003	4.27651E-003	5.70332E-004	...........
	1	0.516667	4.27324E-003	4.10486E-003	5.72466E-004	...........
	2	0.775	4.25366E-003	3.97171E-003	5.74599E-004	...........
	3	1.03333	4.20016E-003	3.84326E-003	5.75866E-004	...........
	4	1.29167	4.10816E-003	3.72739E-003	5.69066E-004	...........
	5	1.55	3.99132E-003	3.64062E-003	5.72932E-004	...........
	6	1.80833	3.87049E-003	3.62522E-003	5.77332E-004	...........
	7	2.06667	3.76518E-003	3.62502E-003	5.71732E-004	...........
	8	2.325	3.68719E-003	3.51763E-003	5.79499E-004	...........
	9	2.58333	3.63181E-003	3.45147E-003	5.74299E-004	...........
	10	2.84167	3.58176E-003	3.38366E-003	5.74432E-004	...........
	11	3.1	3.52450E-003	3.31722E-003	5.76899E-004	...........
	12	3.35833	3.46012E-003	3.27766E-003	5.74599E-004	...........
	13	3.61667	3.39604E-003	3.27922E-003	5.70499E-004	...........
	14	3.875	3.34111E-003	3.23928E-003	5.69632E-004	...........
	15	4.13333	3.29954E-003	3.20718E-003	5.73366E-004	...........
	16	4.39167	3.26759E-003	3.17298E-003	5.74266E-004	...........
	17	4.65	3.23846E-003	3.14385E-003	5.77399E-004	...........
	18	4.90833	3.20851E-003	3.11404E-003	5.69366E-004	...........
EOC	QUANT	0.0032085	Open Circuit (V)
PSTATMODEL	IQUANT	4	Pstat Model
PSTATSECTION	LABEL	REF600-11020	Pstat Section
PSTATSERIALNO	LABEL	11020	Pstat Serial Number
CTRLMODE	IQUANT	1	Control Mode
IESTAB	IQUANT	0	I/E Stability
CASPEED	IQUANT	1	Control Amp Speed
CONVENTION	IQUANT	1	Current Convention
ICHRANGE	IQUANT	2	Ich Range
ICHRANGEMODE	TOGGLE	F	Ich Auto Range
ICHOFFSETENABLE	TOGGLE	T	Ich Offset Enable
ICHOFFSET	QUANT	0	Ich Offset (V)
ICHFILTER	IQUANT	3	Ich Filter
VCHRANGE	IQUANT	2	Vch Range
VCHRANGEMODE	TOGGLE	F	Vch Auto Range
VCHOFFSETENABLE	TOGGLE	T	Vch Offset Enable
VCHOFFSET	QUANT	0	Vch Offset (V)
VCHFILTER	IQUANT	3	Vch Filter
ACHRANGE	IQUANT	2	Ach Range
ACHOFFSETENABLE	TOGGLE	F	Ach Offset Enable
ACHOFFSET	QUANT	0	Ach Offset (V)
ACHFILTER	IQUANT	3	Ach Filter
IERANGELOWERLIMIT	IQUANT	1	I/E Range Lower Limit
IERANGEMODE	TOGGLE	F	I/E AutoRange
IERANGE	IQUANT	4	I/E Range
POSFEEDENABLE	TOGGLE	F	Positive Feedback IR Comp
POSFEEDRESISTANCE	QUANT	0	Positive Feedback Resistance (ohm)
ACHSELECT	IQUANT	0	Ach Select
CABLEID	IQUANT	14	Cable ID
DCCALDATE	LABEL	8/19/2019	DC Calibration Date
ACCALDATE	LABEL	8/19/2019	AC Calibration Date
THERMOSELECT	IQUANT	1	Thermo Select
FRAMEWORKVERSION	QUANT	6.33	Framework Version
INSTRUMENTVERSION	LABEL	3.50	Instrument Version
ZCURVE	TABLE
	Pt	Time	Freq	Zreal	Zimag	Zsig	Zmod	Zphz	Idc	Vdc	IERange
	#	s	Hz	ohm	ohm	V	ohm	°	A	V	#
	0	1	1000078	2420.385	-1174.658	1	2690.369	-25.88818	2.175775E-006	0.005271	8
	1	3	794390.6	2618.086	-1086.015	1	2834.396	-22.52929	-1.5191E-006	0.0054085	8
	2	4	630984.4	2792.073	-958.313	1	2951.954	-18.94357	1.511117E-007	0.0049944	8
	3	5	501234.4	2921.404	-844.6904	1	3041.069	-16.12662	-4.605646E-008	0.0050512	8
	4	7	398109.4	3014.588	-731.5726	1	3102.086	-13.6407	-6.694257E-007	0.0049671	8
	5	8	316265.6	3104.289	-640.0231	1	3169.58	-11.64965	-6.401507E-007	0.0051582	8
	6	10	251203.1	3163.902	-548.1931	1	3211.042	-9.82975	-3.555019E-006	0.0056986	8
	7	11	199546.9	3213.036	-484.495	1	3249.359	-8.575049	-6.338206E-007	0.0051426	8
	8	12	158578.1	3232.031	-442.0581	1	3262.122	-7.788254	7.49321E-007	0.0048576	8
	9	14	125953.1	3301.256	-353.9362	1	3320.175	-6.119452	1.500514E-007	0.0042102	7
	10	15	100078.1	3324.292	-324.1362	1	3340.057	-5.569039	-2.310549E-008	0.0048779	7
	11	16	79453.13	3351.281	-319.3044	1	3366.458	-5.442617	6.811634E-008	0.0046949	7
	12	18	63140.62	3381.048	-320.7818	1	3396.231	-5.419796	1.307545E-007	0.0046133	7
	13	19	50203.12	3412.099	-327.8647	1	3427.815	-5.488636	-1.61405E-008	0.0048324	7
	14	21	39890.62	3443.883	-340.2886	1	3460.654	-5.643053	-4.446727E-009	0.0049182	7
	15	22	31640.63	3480.212	-361.8453	1	3498.972	-5.935841	-8.102998E-010	0.0047426	7
	16	23	25171.88	3517.456	-390.5242	1	3539.069	-6.335296	-2.576213E-008	0.0047849	7
	17	25	20015.62	3556.207	-425.013	1	3581.514	-6.815266	-8.395665E-009	0.0048454	7
	18	26	15890.62	3606.136	-468.7804	1	3636.478	-7.406642	-3.044711E-008	0.0048058	7
	19	27	12609.37	3656.408	-519.5862	1	3693.141	-8.087749	-4.545151E-009	0.0049146	7
	20	29	10078.13	3711.38	-579.7689	1	3756.391	-8.878636	7.458027E-009	0.0047365	7
	21	30	8015.625	3774.38	-644.2072	1	3828.961	-9.68585	-2.919697E-008	0.0048069	7
	22	31	6328.125	3839.292	-733.4615	1	3908.724	-10.81551	8.153062E-008	0.0046297	7
	23	33	5015.625	3910.165	-830.8999	1	3997.473	-11.99676	-4.68384E-008	0.004861	7
	24	34	3984.375	3972.854	-927.6937	1	4079.729	-13.14352	-2.647E-008	0.0048019	7
	25	35	3170.956	4065.805	-1081.703	1	4207.238	-14.89837	7.862776E-009	0.0047356	7
	26	37	2527.573	4147.593	-1245.565	1	4330.584	-16.71556	-6.51534E-008	0.0048989	7
	27	38	1976.103	4243.895	-1461.505	1	4488.501	-19.00259	-2.568319E-009	0.0049156	7
	28	40	1577.524	4349.099	-1707.924	1	4672.437	-21.44031	8.219008E-008	0.0046298	7
	29	41	1265.625	4425.993	-1999.941	1	4856.869	-24.31643	-1.546306E-009	0.0049098	7
	30	42	998.264	4540.425	-2389.634	1	5130.868	-27.75792	4.736331E-008	0.0046532	7
	31	44	796.875	4651.924	-2853.072	1	5457.144	-31.52121	-5.140781E-008	0.0048395	7
	32	45	627.7902	4790.021	-3457.54	1	5907.527	-35.82256	1.049703E-009	0.0047274	7
	33	46	505.5147	4926.468	-4139.683	1	6434.832	-40.04014	8.142967E-008	0.004618	7
	34	48	397.9953	5112.153	-5075.492	1	7203.799	-44.79382	4.894807E-009	0.0048012	7
	35	49	315.5048	5328.779	-6204.02	1	8178.371	-49.33994	6.394248E-009	0.0048035	7
	36	51	252.4038	5585.95	-7539.404	1	9383.253	-53.46523	4.67772E-009	0.0048062	7
	37	52	198.6229	5937.02	-9313.335	1	11044.75	-57.4835	5.179066E-010	0.0047452	6
	38	53	158.3615	6360.984	-11384.43	1	13040.98	-60.80597	5.231598E-010	0.0047447	6
	39	55	125.558	6916.131	-13982.08	1	15599.08	-63.68104	1.120239E-009	0.0047481	6
	40	56	100.4464	7624.663	-17025.71	1	18655.03	-65.87562	-4.992756E-010	0.0047434	6
	41	57	79.00281	8561.618	-21090.35	1	22761.9	-67.90533	-4.392725E-010	0.0047413	6
	42	59	63.3446	9968.7	-25742.43	1	27605.21	-68.83121	1.164293E-009	0.0047353	6
	43	60	49.86702	11198.54	-31504.01	1	33435.16	-70.43153	9.134759E-010	0.0047378	6
	44	62	39.72458	13439.54	-38139.95	1	40438.55	-70.58884	7.081773E-010	0.0047441	6
	45	63	31.6723	16243.17	-46156.55	1	48931.26	-70.61228	9.119142E-010	0.0047405	6
	46	65	24.93351	19857.13	-56423.93	1	59816.1	-70.61163	4.723268E-010	0.0047349	6
	47	66	19.86229	24406.22	-67805.86	1	72064.55	-70.20403	5.971209E-011	0.0047422	6
	48	67	15.83615	30652.18	-80684.34	1	86310.59	-69.1981	-1.175599E-009	0.00474	6
	49	69	12.40079	38709.78	-97402.2	1	104812.4	-68.32604	2.351969E-009	0.0047385	6
	50	70	9.93114	47453.89	-116141.1	1	125461.7	-67.77565	6.585205E-010	0.0047457	5
	51	72	7.944915	57529.25	-136410.1	1	148045.1	-67.13303	1.273409E-009	0.0047411	5
	52	73	6.317385	72332.23	-160513.6	1	176058.4	-65.74225	6.294429E-010	0.0047535	5
	53	75	5.008013	89147.64	-188583.3	1	208592.8	-64.69883	4.737437E-010	0.0047502	5
	54	78	3.945707	110089.4	-220910.7	1	246822.2	-63.51094	-5.787756E-011	0.0047388	5
	55	80	3.158693	132544.1	-255305.4	1	287660.9	-62.56351	3.26505E-010	0.0047579	5
	56	84	2.504006	159779.3	-296421	1	336741.5	-61.67407	-9.096401E-011	0.0047316	5
	57	87	1.998082	189640.4	-341301.7	1	390448.9	-60.94175	-1.51384E-010	0.0047519	5
	58	90	1.584686	225576.4	-394978	1	454854.2	-60.26883	2.049716E-010	0.0047872	5
	59	93	1.266892	263852.3	-453391.9	1	524578.2	-59.80266	-8.190632E-011	0.004769	5
	60	98	0.999041	309528.3	-526593.7	1	610826.3	-59.55327	3.28495E-010	0.0047219	5
