EXPLAIN
TAG	EISPOT
TITLE	LABEL	Potentiostatic EIS	Test &Identifier
DATE	LABEL	10/10/2019	Date
TIME	LABEL	8:18:16	Time
NOTES	NOTES	1	&Notes...
	
PSTAT	PSTAT	REF600-11020	Potentiostat
VDC	POTEN	0.00000E+000	T	DC &Voltage (V)
FREQINIT	QUANT	1.00000E+006	Initial Fre&q. (Hz)
FREQFINAL	QUANT	1.00000E+000	Final Fre&q. (Hz)
PTSPERDEC	QUANT	1.00000E+001	Points/&decade
VAC	QUANT	2.50000E+001	AC &Voltage (mV rms)
AREA	QUANT	1.00000E-002	&Area (cm^2)
CONDIT	TWOPARAM	T	5.00000E+000	0.00000E+000	Conditionin&g	Time(s)	E(V)
DELAY	TWOPARAM	T	5.00000E+000	0.00000E+000	Init. De&lay	Time(s)	Stab.(mV/s)
SPEED	SELECTOR	1	&Optimize for:
ZGUESS	QUANT	1.00000E+004	E&stimated Z (ohms)
OCVCURVE	TABLE	19
	Pt	T	Vf	Vm	Ach	Over
	#	s	V vs. Ref.	V	V	bits
	0	0.258333	5.85516E-003	5.85516E-003	5.76566E-004	...........
	1	0.516667	5.85077E-003	5.62517E-003	5.76232E-004	...........
	2	0.775	5.82435E-003	5.43630E-003	5.74966E-004	...........
	3	1.03333	5.75135E-003	5.25001E-003	5.77232E-004	...........
	4	1.29167	5.62480E-003	5.11768E-003	5.78165E-004	...........
	5	1.55	5.46423E-003	4.98761E-003	5.79666E-004	...........
	6	1.80833	5.29837E-003	4.89520E-003	5.81399E-004	...........
	7	2.06667	5.14712E-003	4.79553E-003	5.78099E-004	...........
	8	2.325	5.01689E-003	4.69609E-003	5.83665E-004	...........
	9	2.58333	4.90440E-003	4.61398E-003	5.82932E-004	...........
	10	2.84167	4.80407E-003	4.55837E-003	5.79432E-004	...........
	11	3.1	4.71549E-003	4.58291E-003	5.79365E-004	...........
	12	3.35833	4.64527E-003	4.56269E-003	5.79799E-004	...........
	13	3.61667	4.59799E-003	4.48064E-003	5.83065E-004	...........
	14	3.875	4.56285E-003	4.30394E-003	5.78165E-004	...........
	15	4.13333	4.51928E-003	4.40495E-003	5.77066E-004	...........
	16	4.39167	4.47025E-003	4.71878E-003	5.79666E-004	...........
	17	4.65	4.45358E-003	4.61485E-003	5.82065E-004	...........
	18	4.90833	4.48978E-003	4.54276E-003	5.79699E-004	...........
EOC	QUANT	0.0044898	Open Circuit (V)
PSTATMODEL	IQUANT	4	Pstat Model
PSTATSECTION	LABEL	REF600-11020	Pstat Section
PSTATSERIALNO	LABEL	11020	Pstat Serial Number
CTRLMODE	IQUANT	1	Control Mode
IESTAB	IQUANT	0	I/E Stability
CASPEED	IQUANT	1	Control Amp Speed
CONVENTION	IQUANT	1	Current Convention
ICHRANGE	IQUANT	2	Ich Range
ICHRANGEMODE	TOGGLE	F	Ich Auto Range
ICHOFFSETENABLE	TOGGLE	T	Ich Offset Enable
ICHOFFSET	QUANT	0	Ich Offset (V)
ICHFILTER	IQUANT	3	Ich Filter
VCHRANGE	IQUANT	2	Vch Range
VCHRANGEMODE	TOGGLE	F	Vch Auto Range
VCHOFFSETENABLE	TOGGLE	T	Vch Offset Enable
VCHOFFSET	QUANT	0	Vch Offset (V)
VCHFILTER	IQUANT	3	Vch Filter
ACHRANGE	IQUANT	2	Ach Range
ACHOFFSETENABLE	TOGGLE	F	Ach Offset Enable
ACHOFFSET	QUANT	0	Ach Offset (V)
ACHFILTER	IQUANT	3	Ach Filter
IERANGELOWERLIMIT	IQUANT	1	I/E Range Lower Limit
IERANGEMODE	TOGGLE	F	I/E AutoRange
IERANGE	IQUANT	5	I/E Range
POSFEEDENABLE	TOGGLE	F	Positive Feedback IR Comp
POSFEEDRESISTANCE	QUANT	0	Positive Feedback Resistance (ohm)
ACHSELECT	IQUANT	0	Ach Select
CABLEID	IQUANT	14	Cable ID
DCCALDATE	LABEL	8/19/2019	DC Calibration Date
ACCALDATE	LABEL	8/19/2019	AC Calibration Date
THERMOSELECT	IQUANT	1	Thermo Select
FRAMEWORKVERSION	QUANT	6.33	Framework Version
INSTRUMENTVERSION	LABEL	3.50	Instrument Version
ZCURVE	TABLE
	Pt	Time	Freq	Zreal	Zimag	Zsig	Zmod	Zphz	Idc	Vdc	IERange
	#	s	Hz	ohm	ohm	V	ohm	°	A	V	#
	0	1	1000078	2667.141	-1644.179	1	3133.204	-31.65207	-1.923905E-007	0.0070491	8
	1	3	794390.6	2974.974	-1523.14	1	3342.219	-27.11173	1.681966E-006	0.0063856	8
	2	5	630984.4	3235.54	-1369.272	1	3513.35	-22.93795	-5.699626E-006	0.0075493	8
	3	6	501234.4	3442.057	-1201.689	1	3645.793	-19.24509	-1.664993E-006	0.0066964	8
	4	7	398109.4	3605.003	-1040.458	1	3752.146	-16.09893	1.525792E-006	0.0060474	8
	5	9	316265.6	3732.534	-899.1419	1	3839.305	-13.54411	1.273504E-006	0.0058462	8
	6	10	251203.1	3817.017	-774.7666	1	3894.853	-11.47385	-1.052181E-006	0.0064512	8
	7	12	199546.9	3870.274	-675.6763	1	3928.811	-9.90295	-2.895547E-006	0.0065169	8
	8	13	158578.1	3937.08	-564.0922	1	3977.285	-8.153665	1.333463E-006	0.005842	8
	9	15	125953.1	3995.01	-470.6945	1	4022.644	-6.719644	5.884212E-007	0.0047617	7
	10	16	100078.1	4021.276	-413.8701	1	4042.518	-5.876196	-5.505203E-008	0.0062438	7
	11	18	79453.13	4054.521	-389.6458	1	4073.201	-5.489357	4.20315E-008	0.0060178	7
	12	19	63140.62	4084.54	-375.8358	1	4101.795	-5.257224	-4.786823E-008	0.0060828	7
	13	20	50203.12	4114.019	-371.6135	1	4130.769	-5.161438	-2.10193E-008	0.0061133	7
	14	22	39890.62	4145.694	-379.2844	1	4163.008	-5.227367	7.178556E-008	0.005933	7
	15	23	31640.63	4175.779	-392.4477	1	4194.18	-5.368996	7.005876E-008	0.0059338	7
	16	25	25171.88	4211.627	-417.1686	1	4232.238	-5.656789	-1.033344E-008	0.0060059	7
	17	26	20015.62	4246.6	-450.4241	1	4270.421	-6.054554	-4.009688E-008	0.0060668	7
	18	27	15890.62	4287.845	-495.9868	1	4316.436	-6.598236	-5.714076E-009	0.0060875	7
	19	29	12609.37	4334.433	-553.6455	1	4369.649	-7.279084	-5.60584E-008	0.0062277	7
	20	30	10078.13	4378.616	-620.3655	1	4422.345	-8.064036	-7.810365E-008	0.0061782	7
	21	31	8015.625	4436.286	-716.489	1	4493.772	-9.174418	1.449806E-008	0.0059714	7
	22	33	6328.125	4489.632	-812.0275	1	4562.476	-10.2521	4.477405E-008	0.0059033	7
	23	34	5015.625	4550.793	-940.6856	1	4647	-11.67901	1.423358E-007	0.0058388	7
	24	35	3984.375	4614.901	-1099.453	1	4744.061	-13.40034	-3.914519E-008	0.0060669	7
	25	37	3170.956	4690.089	-1283.136	1	4862.445	-15.30083	4.49022E-008	0.0059058	7
	26	38	2527.573	4770.261	-1513.025	1	5004.461	-17.59791	-2.760541E-009	0.0060894	7
	27	40	1976.103	4869.728	-1818.652	1	5198.244	-20.47869	6.915396E-008	0.0059367	7
	28	41	1577.524	4966.869	-2158.178	1	5415.489	-23.48566	8.433571E-008	0.0058722	7
	29	42	1265.625	5082.748	-2568.796	1	5695.001	-26.81181	-4.405994E-008	0.0061413	7
	30	44	998.264	5221.815	-3102.472	1	6073.935	-30.7161	-3.629567E-008	0.0060692	7
	31	45	796.875	5373.405	-3727.906	1	6539.936	-34.75174	-1.893246E-008	0.006016	7
	32	46	627.7902	5554.872	-4543.234	1	7176.182	-39.27914	-1.736931E-008	0.0060992	7
	33	48	505.5147	5740.603	-5440.238	1	7908.901	-43.46116	-1.371611E-008	0.006	7
	34	49	397.9953	5983.008	-6668.435	1	8959.041	-48.10113	5.379398E-009	0.0060569	7
	35	51	315.5048	6261.101	-8147.511	1	10275.37	-52.45888	8.543887E-010	0.0060003	6
	36	52	252.4038	6576.083	-9900.75	1	11885.69	-56.40786	1.350594E-010	0.0059978	6
	37	53	198.6229	6990.319	-12233.24	1	14089.59	-60.25548	1.219227E-009	0.0059988	6
	38	55	158.3615	7483.964	-14965.43	1	16732.41	-63.43111	1.293365E-009	0.0059919	6
	39	56	125.558	8122.526	-18413.36	1	20125.29	-66.1967	9.939944E-010	0.0059964	6
	40	57	100.4464	8899.588	-22504.45	1	24200.27	-68.42323	3.432259E-010	0.0059905	6
	41	59	79.00281	10004.39	-27814.97	1	29559.44	-70.21754	5.025355E-012	0.0059937	6
	42	60	63.3446	11676.17	-33877.3	1	35833.01	-70.98296	1.150225E-009	0.005995	6
	43	62	49.86702	13022.86	-42141.91	1	44108.23	-72.8276	1.042397E-009	0.0059944	6
	44	63	39.72458	15536.03	-51202.4	1	53507.52	-73.12096	1.290671E-009	0.0059967	6
	45	64	31.6723	18536.36	-62656.14	1	65340.56	-73.51954	1.594477E-009	0.0059963	6
	46	66	24.93351	23018.62	-76761.7	1	80138.72	-73.30753	9.062668E-010	0.0059939	6
	47	67	19.86229	28453.97	-93129.18	1	97379	-73.0104	9.086108E-010	0.0059989	6
	48	68	15.83615	36629.54	-112159	1	117988.9	-71.9137	1.786454E-009	0.006001	5
	49	70	12.40079	44525.64	-137750.7	1	144768.1	-72.08743	2.919289E-010	0.0059987	5
	50	71	9.93114	56997.55	-163920.7	1	173547.5	-70.82671	-6.480323E-011	0.0060005	5
	51	73	7.944915	71997.37	-194082	1	207005.9	-69.64698	1.282544E-009	0.0060012	5
	52	75	6.317385	91444.42	-232155.6	1	249516.2	-68.50088	7.506416E-011	0.0060119	5
	53	77	5.008013	116083.8	-274933.7	1	298435.8	-67.10933	2.381133E-010	0.0060017	5
	54	79	3.945707	147048.2	-324743.5	1	356484.9	-65.63834	3.343791E-010	0.0060029	5
	55	82	3.158693	182197.3	-376805.8	1	418543.3	-64.19479	6.808717E-011	0.0060077	5
	56	85	2.504006	225357.8	-437653.9	1	492267.3	-62.75505	3.737445E-010	0.0059963	5
	57	88	1.998082	273339.9	-504143.9	1	573476.9	-61.53406	9.934979E-011	0.0060436	5
	58	91	1.584686	330469	-578481.1	1	666220.8	-60.26196	2.277667E-010	0.0060199	5
	59	95	1.266892	394920.6	-659525.7	1	768723.9	-59.08704	2.882913E-011	0.006043	5
	60	99	0.999041	464743.9	-757845.2	1	888997.3	-58.48155	2.443427E-010	0.0059698	5
