EXPLAIN
TAG	EISPOT
TITLE	LABEL	Potentiostatic EIS	Test &Identifier
DATE	LABEL	10/26/2019	Date
TIME	LABEL	10:02:19	Time
NOTES	NOTES	1	&Notes...
	
PSTAT	PSTAT	REF600-11020	Potentiostat
VDC	POTEN	0.00000E+000	T	DC &Voltage (V)
FREQINIT	QUANT	1.00000E+006	Initial Fre&q. (Hz)
FREQFINAL	QUANT	1.00000E+000	Final Fre&q. (Hz)
PTSPERDEC	QUANT	1.00000E+001	Points/&decade
VAC	QUANT	2.50000E+001	AC &Voltage (mV rms)
AREA	QUANT	1.00000E-002	&Area (cm^2)
CONDIT	TWOPARAM	T	5.00000E+000	0.00000E+000	Conditionin&g	Time(s)	E(V)
DELAY	TWOPARAM	T	5.00000E+000	0.00000E+000	Init. De&lay	Time(s)	Stab.(mV/s)
SPEED	SELECTOR	0	&Optimize for:
ZGUESS	QUANT	1.00000E+005	E&stimated Z (ohms)
OCVCURVE	TABLE	19
	Pt	T	Vf	Vm	Ach	Over
	#	s	V vs. Ref.	V	V	bits
	0	0.258333	6.47540E-003	6.47540E-003	5.56999E-004	...........
	1	0.516667	6.47567E-003	6.48990E-003	5.57866E-004	...........
	2	0.775	6.47677E-003	6.47204E-003	5.56933E-004	...........
	3	1.03333	6.47862E-003	6.49414E-003	5.56233E-004	...........
	4	1.29167	6.48065E-003	6.48052E-003	5.56166E-004	...........
	5	1.55	6.48306E-003	6.51250E-003	5.56366E-004	...........
	6	1.80833	6.48844E-003	6.58053E-003	5.56099E-004	...........
	7	2.06667	6.50205E-003	6.59086E-003	5.64166E-004	...........
	8	2.325	6.52612E-003	6.60169E-003	5.63832E-004	...........
	9	2.58333	6.55623E-003	6.68447E-003	5.61866E-004	...........
	10	2.84167	6.58915E-003	6.72535E-003	5.55599E-004	...........
	11	3.1	6.62691E-003	6.75588E-003	5.51999E-004	...........
	12	3.35833	6.66947E-003	6.79126E-003	5.52966E-004	...........
	13	3.61667	6.71223E-003	6.82262E-003	5.55566E-004	...........
	14	3.875	6.75147E-003	6.85029E-003	5.56466E-004	...........
	15	4.13333	6.78666E-003	6.88272E-003	5.51899E-004	...........
	16	4.39167	6.81916E-003	6.92574E-003	5.52499E-004	...........
	17	4.65	6.85162E-003	6.97585E-003	5.62832E-004	...........
	18	4.90833	6.88682E-003	7.00659E-003	5.52599E-004	...........
EOC	QUANT	0.0068868	Open Circuit (V)
PSTATMODEL	IQUANT	4	Pstat Model
PSTATSECTION	LABEL	REF600-11020	Pstat Section
PSTATSERIALNO	LABEL	11020	Pstat Serial Number
CTRLMODE	IQUANT	1	Control Mode
IESTAB	IQUANT	0	I/E Stability
CASPEED	IQUANT	1	Control Amp Speed
CONVENTION	IQUANT	1	Current Convention
ICHRANGE	IQUANT	2	Ich Range
ICHRANGEMODE	TOGGLE	F	Ich Auto Range
ICHOFFSETENABLE	TOGGLE	T	Ich Offset Enable
ICHOFFSET	QUANT	0	Ich Offset (V)
ICHFILTER	IQUANT	3	Ich Filter
VCHRANGE	IQUANT	2	Vch Range
VCHRANGEMODE	TOGGLE	F	Vch Auto Range
VCHOFFSETENABLE	TOGGLE	T	Vch Offset Enable
VCHOFFSET	QUANT	0	Vch Offset (V)
VCHFILTER	IQUANT	3	Vch Filter
ACHRANGE	IQUANT	2	Ach Range
ACHOFFSETENABLE	TOGGLE	F	Ach Offset Enable
ACHOFFSET	QUANT	0	Ach Offset (V)
ACHFILTER	IQUANT	3	Ach Filter
IERANGELOWERLIMIT	IQUANT	1	I/E Range Lower Limit
IERANGEMODE	TOGGLE	F	I/E AutoRange
IERANGE	IQUANT	5	I/E Range
POSFEEDENABLE	TOGGLE	F	Positive Feedback IR Comp
POSFEEDRESISTANCE	QUANT	0	Positive Feedback Resistance (ohm)
ACHSELECT	IQUANT	0	Ach Select
CABLEID	IQUANT	14	Cable ID
DCCALDATE	LABEL	8/19/2019	DC Calibration Date
ACCALDATE	LABEL	8/19/2019	AC Calibration Date
THERMOSELECT	IQUANT	1	Thermo Select
FRAMEWORKVERSION	QUANT	6.33	Framework Version
INSTRUMENTVERSION	LABEL	3.50	Instrument Version
ZCURVE	TABLE
	Pt	Time	Freq	Zreal	Zimag	Zsig	Zmod	Zphz	Idc	Vdc	IERange
	#	s	Hz	ohm	ohm	V	ohm	°	A	V	#
	0	1	1000078	2165.041	-1220.432	1	2485.328	-29.40993	4.560255E-006	0.0086048	8
	1	1	794390.6	2390.21	-1108.588	1	2634.781	-24.88204	2.299714E-007	0.0086464	8
	2	2	630984.4	2575.867	-992.974	1	2760.632	-21.08122	9.27897E-007	0.0087396	8
	3	2	501234.4	2706.635	-858.7586	1	2839.602	-17.60314	-2.768895E-006	0.0092238	8
	4	2	398109.4	2818.546	-740.5403	1	2914.207	-14.72108	1.004083E-006	0.0084181	8
	5	2	316265.6	2899.783	-645.0509	1	2970.662	-12.54113	-3.18646E-006	0.0091634	8
	6	3	251203.1	2964.914	-552.805	1	3016.008	-10.56147	9.589345E-007	0.0085244	8
	7	3	199546.9	3006.973	-473.6812	1	3044.054	-8.952101	-2.246646E-007	0.0085697	8
	8	3	158578.1	3048.794	-415.4043	1	3076.963	-7.758888	-3.909934E-007	0.0084874	8
	9	4	125953.1	3094.927	-334.4905	1	3112.95	-6.168413	4.581993E-008	0.0085564	7
	10	4	100078.1	3110.19	-305.5443	1	3125.162	-5.610718	-3.602443E-008	0.0086284	7
	11	4	79453.13	3133.216	-292.2449	1	3146.816	-5.32874	3.352412E-008	0.0084333	7
	12	5	63140.62	3155.509	-286.7307	1	3168.509	-5.192021	-6.227489E-008	0.0087186	7
	13	5	50203.12	3179.258	-288.1215	1	3192.287	-5.178307	-3.543063E-008	0.008622	7
	14	5	39890.62	3203.555	-295.3155	1	3217.138	-5.266851	-1.03772E-008	0.0085828	7
	15	6	31640.63	3229.02	-310.1286	1	3243.879	-5.4861	-1.043033E-008	0.0085773	7
	16	6	25171.88	3256.457	-332.0664	1	3273.344	-5.822423	-1.196801E-008	0.0085629	7
	17	6	20015.62	3285.551	-362.9236	1	3305.534	-6.303368	-5.980424E-008	0.0087098	7
	18	7	15890.62	3316.548	-401.9411	1	3340.816	-6.910125	7.288571E-008	0.0084744	7
	19	7	12609.37	3350.897	-448.984	1	3380.843	-7.631562	-2.489792E-008	0.0085311	7
	20	7	10078.13	3385.538	-508.7404	1	3423.548	-8.545822	-5.208914E-008	0.008625	7
	21	8	8015.625	3414.786	-579.1608	1	3463.551	-9.62598	-2.848593E-008	0.0085314	7
	22	8	6328.125	3464.141	-675.3691	1	3529.362	-11.032	-3.462738E-008	0.0086047	7
	23	8	5015.625	3507.146	-788.3281	1	3594.654	-12.66826	-1.343072E-008	0.0085587	7
	24	9	3984.375	3552.427	-922.1265	1	3670.158	-14.55148	9.539968E-008	0.0083895	7
	25	9	3170.956	3599.791	-1100.295	1	3764.193	-16.99604	-6.121537E-008	0.0087041	7
	26	9	2527.573	3649.668	-1313.363	1	3878.789	-19.79168	7.386085E-008	0.0084723	7
	27	9	1976.103	3712.943	-1599.115	1	4042.662	-23.30091	-1.078662E-008	0.0085731	7
	28	10	1577.524	3773.35	-1927.709	1	4237.244	-27.06133	-5.720545E-008	0.0087066	7
	29	10	1265.625	3854.423	-2326.779	1	4502.274	-31.11789	2.876719E-008	0.0084955	7
	30	10	998.264	3950	-2857.599	1	4875.282	-35.88359	-1.106827E-008	0.0085583	7
	31	11	796.875	4059.615	-3477.577	1	5345.467	-40.58426	-2.80046E-008	0.0085306	7
	32	11	627.7902	4202.324	-4294.636	1	6008.613	-45.62245	9.331575E-008	0.0083881	7
	33	11	505.5147	4367.456	-5203.489	1	6793.451	-49.99218	6.30667E-008	0.0084044	7
	34	12	397.9953	4589.484	-6441.897	1	7909.577	-54.5323	2.827335E-009	0.0085541	7
	35	12	315.5048	4869.395	-7929.137	1	9304.957	-58.44533	2.340254E-009	0.0085554	7
	36	12	252.4038	5212.799	-9678.84	1	10993.33	-61.69412	3.047946E-010	0.0084944	6
	37	13	198.6229	5689.038	-11984.94	1	13266.65	-64.60714	3.655936E-010	0.0084944	6
	38	13	158.3615	6271.417	-14659.52	1	15944.66	-66.83852	5.689449E-010	0.0084917	6
	39	13	125.558	7053.811	-18002.12	1	19334.75	-68.60315	1.970191E-010	0.0084953	6
	40	14	100.4464	8007.378	-21876.35	1	23295.77	-69.89591	1.349161E-009	0.0084922	6
	41	14	79.00281	9415.491	-26933.7	1	28532.01	-70.73138	9.845786E-010	0.0084873	6
	42	14	63.3446	11112.59	-33038.81	1	34857.61	-71.40966	-4.874838E-010	0.0084854	6
	43	15	49.86702	13335.35	-40359	1	42505.07	-71.7155	-9.426224E-010	0.0084869	6
	44	15	39.72458	16272.36	-48449.68	1	51109.3	-71.43481	4.949863E-011	0.0084902	6
	45	15	31.6723	19820.16	-58180.94	1	61464.3	-71.18787	-4.414944E-010	0.0084907	6
	46	16	24.93351	24796.52	-71012.59	1	75217.39	-70.75157	-4.61364E-011	0.0084896	6
	47	16	19.86229	30973.4	-85169.85	1	90627.01	-70.01538	1.111918E-009	0.0084977	6
	48	16	15.83615	39373.38	-100623.2	1	108052.3	-68.62983	-2.216074E-009	0.0084947	5
	49	17	12.40079	47929.46	-122249.3	1	131309.3	-68.59168	-3.686153E-010	0.0084937	5
	50	17	9.93114	61219.68	-143615.7	1	156119.5	-66.91269	-5.538131E-010	0.0084951	5
	51	18	7.944915	75934.56	-168712.9	1	185013.8	-65.76836	-2.178982E-010	0.0084924	5
	52	18	6.317385	93915.77	-196924.6	1	218173	-64.50294	-4.498559E-010	0.0085048	5
	53	19	5.008013	116461.9	-230127.6	1	257918.8	-63.15716	-5.444E-010	0.0084882	5
	54	20	3.945707	144095.4	-267023.4	1	303422.1	-61.64712	-1.567052E-012	0.0084917	5
	55	21	3.158693	175131.6	-306240.1	1	352780.5	-60.23576	-1.412716E-010	0.0085078	5
	56	23	2.504006	211976.1	-351453	1	410430.3	-58.90405	-3.520193E-010	0.0084928	5
	57	24	1.998082	251923.8	-398027.8	1	471053.8	-57.66904	-6.444722E-011	0.0085201	5
	58	26	1.584686	297979.9	-453254.3	1	542431.1	-56.67815	8.282939E-012	0.0085429	5
	59	28	1.266892	345014.3	-512230.1	1	617587.7	-56.03764	-4.213817E-011	0.0085053	5
	60	30	0.999041	400141.4	-583167.6	1	707246.5	-55.54397	-9.048072E-011	0.0084775	5
