EXPLAIN
TAG	EISPOT
TITLE	LABEL	Potentiostatic EIS	Test &Identifier
DATE	LABEL	11/9/2019	Date
TIME	LABEL	11:08:29	Time
NOTES	NOTES	2	&Notes...
	
	
PSTAT	PSTAT	REF600-11020	Potentiostat
VDC	POTEN	0.00000E+000	T	DC &Voltage (V)
FREQINIT	QUANT	1.00000E+006	Initial Fre&q. (Hz)
FREQFINAL	QUANT	1.00000E+000	Final Fre&q. (Hz)
PTSPERDEC	QUANT	1.00000E+001	Points/&decade
VAC	QUANT	2.50000E+001	AC &Voltage (mV rms)
AREA	QUANT	1.00000E-002	&Area (cm^2)
CONDIT	TWOPARAM	T	5.00000E+000	0.00000E+000	Conditionin&g	Time(s)	E(V)
DELAY	TWOPARAM	T	5.00000E+000	0.00000E+000	Init. De&lay	Time(s)	Stab.(mV/s)
SPEED	SELECTOR	0	&Optimize for:
ZGUESS	QUANT	1.00000E+005	E&stimated Z (ohms)
OCVCURVE	TABLE	19
	Pt	T	Vf	Vm	Ach	Over
	#	s	V vs. Ref.	V	V	bits
	0	0.258333	1.34781E-002	1.34781E-002	5.44266E-004	...........
	1	0.516667	1.34880E-002	1.39964E-002	5.44799E-004	...........
	2	0.775	1.35478E-002	1.44319E-002	5.42499E-004	...........
	3	1.03333	1.37146E-002	1.49236E-002	5.45066E-004	...........
	4	1.29167	1.40117E-002	1.53564E-002	5.45033E-004	...........
	5	1.55	1.44094E-002	1.58593E-002	5.43733E-004	...........
	6	1.80833	1.48586E-002	1.62092E-002	5.40199E-004	...........
	7	2.06667	1.53188E-002	1.66624E-002	5.42799E-004	...........
	8	2.325	1.57664E-002	1.70252E-002	5.38199E-004	...........
	9	2.58333	1.61938E-002	1.74159E-002	5.37766E-004	...........
	10	2.84167	1.66015E-002	1.77268E-002	5.42766E-004	...........
	11	3.1	1.69879E-002	1.80158E-002	5.43433E-004	...........
	12	3.35833	1.73495E-002	1.83648E-002	5.34733E-004	...........
	13	3.61667	1.76915E-002	1.88558E-002	5.42233E-004	...........
	14	3.875	1.80355E-002	1.92458E-002	5.38499E-004	...........
	15	4.13333	1.83963E-002	1.92535E-002	5.46533E-004	...........
	16	4.39167	1.87507E-002	1.96075E-002	5.53733E-004	...........
	17	4.65	1.90650E-002	1.99668E-002	5.48366E-004	...........
	18	4.90833	1.93492E-002	2.04114E-002	5.38933E-004	...........
EOC	QUANT	0.0193492	Open Circuit (V)
PSTATMODEL	IQUANT	4	Pstat Model
PSTATSECTION	LABEL	REF600-11020	Pstat Section
PSTATSERIALNO	LABEL	11020	Pstat Serial Number
CTRLMODE	IQUANT	1	Control Mode
IESTAB	IQUANT	0	I/E Stability
CASPEED	IQUANT	1	Control Amp Speed
CONVENTION	IQUANT	1	Current Convention
ICHRANGE	IQUANT	2	Ich Range
ICHRANGEMODE	TOGGLE	F	Ich Auto Range
ICHOFFSETENABLE	TOGGLE	T	Ich Offset Enable
ICHOFFSET	QUANT	0	Ich Offset (V)
ICHFILTER	IQUANT	3	Ich Filter
VCHRANGE	IQUANT	2	Vch Range
VCHRANGEMODE	TOGGLE	F	Vch Auto Range
VCHOFFSETENABLE	TOGGLE	T	Vch Offset Enable
VCHOFFSET	QUANT	0	Vch Offset (V)
VCHFILTER	IQUANT	3	Vch Filter
ACHRANGE	IQUANT	2	Ach Range
ACHOFFSETENABLE	TOGGLE	F	Ach Offset Enable
ACHOFFSET	QUANT	0	Ach Offset (V)
ACHFILTER	IQUANT	3	Ach Filter
IERANGELOWERLIMIT	IQUANT	1	I/E Range Lower Limit
IERANGEMODE	TOGGLE	F	I/E AutoRange
IERANGE	IQUANT	5	I/E Range
POSFEEDENABLE	TOGGLE	F	Positive Feedback IR Comp
POSFEEDRESISTANCE	QUANT	0	Positive Feedback Resistance (ohm)
ACHSELECT	IQUANT	0	Ach Select
CABLEID	IQUANT	14	Cable ID
DCCALDATE	LABEL	8/19/2019	DC Calibration Date
ACCALDATE	LABEL	8/19/2019	AC Calibration Date
THERMOSELECT	IQUANT	1	Thermo Select
FRAMEWORKVERSION	QUANT	6.33	Framework Version
INSTRUMENTVERSION	LABEL	3.50	Instrument Version
ZCURVE	TABLE
	Pt	Time	Freq	Zreal	Zimag	Zsig	Zmod	Zphz	Idc	Vdc	IERange
	#	s	Hz	ohm	ohm	V	ohm	°	A	V	#
	0	1	1000078	2334.786	-1928.91	1	3028.518	-39.56221	-1.321923E-005	0.0225711	8
	1	1	794390.6	2723.843	-1976.405	1	3365.338	-35.96442	2.408135E-006	0.0219127	8
	2	2	630984.4	3117.018	-1925.301	1	3663.684	-31.70255	-2.578446E-006	0.0216767	8
	3	2	501234.4	3513.188	-1861.981	1	3976.111	-27.92348	-5.856083E-006	0.0214624	8
	4	2	398109.4	3843.194	-1735.378	1	4216.833	-24.30135	-1.282205E-006	0.0214475	8
	5	3	316265.6	4106.809	-1580.644	1	4400.49	-21.0509	-7.50476E-006	0.0219932	8
	6	3	251203.1	4364.827	-1423.937	1	4591.221	-18.06787	-1.660938E-006	0.0205984	8
	7	3	199546.9	4529.516	-1257.355	1	4700.793	-15.5142	-7.738131E-007	0.020512	8
	8	4	158578.1	4749.82	-1120.778	1	4880.259	-13.27678	8.448746E-006	0.0199385	8
	9	4	125953.1	4895.788	-876.1249	1	4973.563	-10.14596	3.416871E-006	0.0133794	7
	10	4	100078.1	4941.974	-752.3462	1	4998.913	-8.656017	6.485142E-007	0.0186251	7
	11	5	79453.13	5010.458	-701.5869	1	5059.34	-7.970986	7.952013E-007	0.0211217	7
	12	5	63140.62	5043.044	-617.941	1	5080.762	-6.98582	-3.901743E-007	0.0226247	7
	13	5	50203.12	5089.845	-551.824	1	5119.671	-6.187649	-1.450127E-006	0.0229526	7
	14	6	39890.62	5149.366	-521.9454	1	5175.75	-5.787796	7.795359E-008	0.0221104	7
	15	6	31640.63	5202.395	-495.0503	1	5225.896	-5.435793	8.009443E-007	0.0211181	7
	16	6	25171.88	5251.724	-488.5873	1	5274.402	-5.315139	1.32718E-006	0.0199015	7
	17	6	20015.62	5281.882	-483.2779	1	5303.945	-5.227853	1.451219E-006	0.0193337	7
	18	7	15890.62	5284.83	-501.2698	1	5308.55	-5.418334	-1.188449E-006	0.0230425	7
	19	7	12609.37	5344.116	-553.2593	1	5372.678	-5.910594	1.335058E-006	0.0198958	7
	20	7	10078.13	5384.906	-595.8328	1	5417.77	-6.314019	1.093709E-006	0.0205357	7
	21	8	8015.625	5383.531	-680.1822	1	5426.33	-7.200881	-9.50782E-007	0.0205937	7
	22	8	6328.125	5457.19	-758.1835	1	5509.607	-7.909639	1.025551E-006	0.0184773	7
	23	8	5015.625	5480.863	-895.1539	1	5553.482	-9.275851	-8.327768E-007	0.0229228	7
	24	9	3984.375	5544.772	-1042.927	1	5642.002	-10.65241	7.828106E-007	0.0211186	7
	25	9	3170.956	5587.257	-1246.159	1	5724.54	-12.57323	-4.047091E-007	0.0196773	7
	26	9	2527.573	5660.023	-1476.737	1	5849.497	-14.62286	1.085025E-006	0.0205391	7
	27	10	1976.103	5722.283	-1805.443	1	6000.345	-17.51105	7.078853E-008	0.0221084	7
	28	10	1577.524	5807.565	-2169.507	1	6199.563	-20.48396	4.929086E-007	0.0215502	7
	29	10	1265.625	5888.725	-2578.899	1	6428.67	-23.65046	-3.914791E-007	0.0226031	7
	30	11	998.264	6031.097	-3185.755	1	6820.789	-27.84398	1.325642E-006	0.0198915	7
	31	11	796.875	6151.574	-3856.251	1	7260.34	-32.08246	1.431966E-006	0.018886	7
	32	12	627.7902	6282.164	-4753.26	1	7877.757	-37.11216	7.935118E-007	0.0211007	7
	33	12	505.5147	6480.546	-5763.082	1	8672.404	-41.64636	1.088788E-006	0.0205488	7
	34	13	397.9953	6704.608	-7063.693	1	9738.97	-46.49397	-5.743792E-010	0.0208352	7
	35	13	315.5048	6986.296	-8685.394	1	11146.5	-51.18774	5.948415E-010	0.0207775	6
	36	13	252.4038	7330.278	-10609.24	1	12895.31	-55.35812	8.644667E-010	0.0207719	6
	37	14	198.6229	7786.994	-13152.51	1	15284.82	-59.37218	8.158708E-011	0.0207678	6
	38	14	158.3615	8355.246	-16128.29	1	18164.03	-62.61362	-1.08127E-009	0.0207746	6
	39	14	125.558	9114.006	-19869.89	1	21860.41	-65.35982	-5.390208E-010	0.0207645	6
	40	15	100.4464	10060.72	-24325.73	1	26324.12	-67.53081	1.208947E-009	0.0207766	6
	41	15	79.00281	11297.41	-30148.71	1	32195.9	-69.45789	6.741198E-010	0.0207613	6
	42	15	63.3446	12547.56	-35999.05	1	38123.13	-70.78387	-6.109384E-010	0.0207722	6
	43	16	49.86702	15389.25	-44570.17	1	47152.19	-70.95116	-8.433891E-010	0.0207611	6
	44	16	39.72458	18635.62	-55034.79	1	58104.34	-71.29311	-9.232831E-010	0.0207766	6
	45	16	31.6723	23144.73	-67127.16	1	71005.16	-70.97635	-1.667098E-009	0.0207668	6
	46	17	24.93351	28986.43	-81133.98	1	86156.46	-70.33991	-3.711774E-010	0.0207733	6
	47	17	19.86229	36297.12	-97229.7	1	103783.9	-69.52874	3.09705E-010	0.0207634	6
	48	17	15.83615	46898.09	-116318.6	1	125417.1	-68.04137	8.998964E-010	0.0207771	5
	49	18	12.40079	59473.36	-139389.3	1	151546.9	-66.89347	-1.130232E-009	0.0207804	5
	50	18	9.93114	72642.83	-161860	1	177413.7	-65.82944	8.469635E-010	0.0207747	5
	51	18	7.944915	90389.19	-187124.1	1	207811.5	-64.21741	8.311573E-010	0.0207627	5
	52	19	6.317385	112905.7	-218040.4	1	245538.8	-62.62397	-7.822296E-011	0.0207663	5
	53	20	5.008013	138282.3	-252192.2	1	287615.9	-61.2631	-5.75768E-011	0.0207809	5
	54	21	3.945707	166704.5	-290588.3	1	335010.3	-60.15799	-2.324203E-010	0.0207682	5
	55	22	3.158693	198634.8	-331047.4	1	386067.6	-59.03544	-5.506224E-010	0.0207502	5
	56	24	2.504006	235235.5	-378934	1	446012	-58.16873	-3.270921E-010	0.0207554	5
	57	25	1.998082	273571.2	-432435.2	1	511704.4	-57.68135	-3.467637E-010	0.0207709	5
	58	27	1.584686	319753.7	-494807.2	1	589132.1	-57.1287	-4.907874E-010	0.0207216	5
	59	29	1.266892	369519	-566821.6	1	676632.1	-56.8991	-4.988021E-010	0.0207147	5
	60	31	0.999041	427521.7	-654940.1	1	782126.1	-56.86492	-5.008833E-010	0.0207256	5
