EXPLAIN
TAG	EISPOT
TITLE	LABEL	Potentiostatic EIS	Test &Identifier
DATE	LABEL	11/20/2019	Date
TIME	LABEL	10:06:15	Time
NOTES	NOTES	4	&Notes...
	
	
	
	
PSTAT	PSTAT	REF600-11020	Potentiostat
VDC	POTEN	0.00000E+000	T	DC &Voltage (V)
FREQINIT	QUANT	1.00000E+006	Initial Fre&q. (Hz)
FREQFINAL	QUANT	1.00000E+000	Final Fre&q. (Hz)
PTSPERDEC	QUANT	1.00000E+001	Points/&decade
VAC	QUANT	2.50000E+001	AC &Voltage (mV rms)
AREA	QUANT	1.00000E-002	&Area (cm^2)
CONDIT	TWOPARAM	T	5.00000E+000	0.00000E+000	Conditionin&g	Time(s)	E(V)
DELAY	TWOPARAM	T	5.00000E+000	0.00000E+000	Init. De&lay	Time(s)	Stab.(mV/s)
SPEED	SELECTOR	0	&Optimize for:
ZGUESS	QUANT	1.00000E+005	E&stimated Z (ohms)
OCVCURVE	TABLE	19
	Pt	T	Vf	Vm	Ach	Over
	#	s	V vs. Ref.	V	V	bits
	0	0.258333	2.34410E-003	2.34410E-003	5.28800E-004	...........
	1	0.516667	2.33967E-003	2.11216E-003	5.28633E-004	...........
	2	0.775	2.31225E-003	1.88086E-003	5.29400E-004	...........
	3	1.03333	2.23391E-003	1.65776E-003	5.29766E-004	...........
	4	1.29167	2.09266E-003	1.46533E-003	5.32700E-004	...........
	5	1.55	1.90295E-003	1.18686E-003	5.29766E-004	...........
	6	1.80833	1.69400E-003	1.34720E-003	5.28400E-004	...........
	7	2.06667	1.49967E-003	9.72086E-004	5.26533E-004	...........
	8	2.325	1.33461E-003	7.58001E-004	5.24666E-004	...........
	9	2.58333	1.17644E-003	5.99494E-004	5.20566E-004	...........
	10	2.84167	1.00210E-003	5.23180E-004	5.17200E-004	...........
	11	3.1	8.24776E-004	5.09028E-004	5.16533E-004	...........
	12	3.35833	6.79062E-004	6.27104E-004	5.21766E-004	...........
	13	3.61667	5.97033E-004	8.75608E-004	5.22800E-004	...........
	14	3.875	5.89033E-004	4.68386E-004	5.24533E-004	...........
	15	4.13333	6.14563E-004	3.26224E-004	5.21966E-004	...........
	16	4.39167	6.01257E-004	2.56071E-004	5.25300E-004	...........
	17	4.65	5.18577E-004	1.25944E-004	5.25466E-004	...........
	18	4.90833	3.94936E-004	3.04204E-005	5.24233E-004	...........
EOC	QUANT	0.0003949	Open Circuit (V)
PSTATMODEL	IQUANT	4	Pstat Model
PSTATSECTION	LABEL	REF600-11020	Pstat Section
PSTATSERIALNO	LABEL	11020	Pstat Serial Number
CTRLMODE	IQUANT	1	Control Mode
IESTAB	IQUANT	0	I/E Stability
CASPEED	IQUANT	1	Control Amp Speed
CONVENTION	IQUANT	1	Current Convention
ICHRANGE	IQUANT	2	Ich Range
ICHRANGEMODE	TOGGLE	F	Ich Auto Range
ICHOFFSETENABLE	TOGGLE	T	Ich Offset Enable
ICHOFFSET	QUANT	0	Ich Offset (V)
ICHFILTER	IQUANT	3	Ich Filter
VCHRANGE	IQUANT	2	Vch Range
VCHRANGEMODE	TOGGLE	F	Vch Auto Range
VCHOFFSETENABLE	TOGGLE	T	Vch Offset Enable
VCHOFFSET	QUANT	0	Vch Offset (V)
VCHFILTER	IQUANT	3	Vch Filter
ACHRANGE	IQUANT	2	Ach Range
ACHOFFSETENABLE	TOGGLE	F	Ach Offset Enable
ACHOFFSET	QUANT	0	Ach Offset (V)
ACHFILTER	IQUANT	3	Ach Filter
IERANGELOWERLIMIT	IQUANT	1	I/E Range Lower Limit
IERANGEMODE	TOGGLE	F	I/E AutoRange
IERANGE	IQUANT	3	I/E Range
POSFEEDENABLE	TOGGLE	F	Positive Feedback IR Comp
POSFEEDRESISTANCE	QUANT	0	Positive Feedback Resistance (ohm)
ACHSELECT	IQUANT	0	Ach Select
CABLEID	IQUANT	14	Cable ID
DCCALDATE	LABEL	8/19/2019	DC Calibration Date
ACCALDATE	LABEL	8/19/2019	AC Calibration Date
THERMOSELECT	IQUANT	1	Thermo Select
FRAMEWORKVERSION	QUANT	6.33	Framework Version
INSTRUMENTVERSION	LABEL	3.50	Instrument Version
ZCURVE	TABLE
	Pt	Time	Freq	Zreal	Zimag	Zsig	Zmod	Zphz	Idc	Vdc	IERange
	#	s	Hz	ohm	ohm	V	ohm	°	A	V	#
	0	1	1000078	2516.805	-1781.415	1	3083.463	-35.29116	1.17862E-005	0.0019489	8
	1	2	794390.6	2861.374	-1733.596	1	3345.567	-31.21006	-4.856918E-006	0.0021382	8
	2	2	630984.4	3198.924	-1619.654	1	3585.581	-26.85365	-3.582212E-006	0.0028475	8
	3	2	501234.4	3486.862	-1470.636	1	3784.306	-22.86831	4.311389E-007	0.0018898	8
	4	3	398109.4	3716.132	-1316.858	1	3942.556	-19.51243	-6.984276E-006	0.0029619	8
	5	3	316265.6	3876.944	-1148.582	1	4043.505	-16.50243	2.076913E-006	0.0023926	8
	6	3	251203.1	4028.476	-1007.88	1	4152.643	-14.04643	-3.983135E-006	0.0025473	8
	7	4	199546.9	4102.31	-880.8487	1	4195.813	-12.11855	2.348277E-006	0.0017672	8
	8	4	158578.1	4196.222	-773.5345	1	4266.923	-10.44469	5.788471E-007	0.0024023	8
	9	4	125953.1	4290.553	-628.335	1	4336.318	-8.331522	-1.722767E-006	0.0015308	7
	10	4	100078.1	4337.357	-577.7411	1	4375.666	-7.587205	1.922192E-007	0.0005614	7
	11	5	79453.13	4384.357	-543.7283	1	4417.944	-7.06947	-2.73921E-007	0.0010948	7
	12	5	63140.62	4425.807	-524.4754	1	4456.775	-6.758255	-1.343318E-006	0.0035298	7
	13	5	50203.12	4469.641	-519.7702	1	4499.761	-6.633078	2.649033E-008	0.0031127	7
	14	6	39890.62	4516.898	-533.0009	1	4548.237	-6.729869	1.085791E-006	0.0002791	7
	15	6	31640.63	4560.524	-549.6044	1	4593.522	-6.871771	3.901883E-007	0.0026676	7
	16	6	25171.88	4611.071	-586.8561	1	4648.266	-7.253104	8.991108E-007	0.0018637	7
	17	7	20015.62	4667.834	-636.4438	1	4711.022	-7.764215	-1.133766E-006	0.0025633	7
	18	7	15890.62	4733.68	-698.5497	1	4784.945	-8.39456	-1.353085E-006	0.0031795	7
	19	7	12609.37	4798.294	-774.9109	1	4860.464	-9.173899	-1.242084E-006	0.0037758	7
	20	8	10078.13	4869.026	-866.5555	1	4945.537	-10.09144	8.963042E-007	0.0018633	7
	21	8	8015.625	4961.586	-976.684	1	5056.802	-11.13624	-7.723185E-007	0.001821	7
	22	8	6328.125	5045.074	-1110.489	1	5165.846	-12.41362	8.73001E-007	0.0018651	7
	23	9	5015.625	5143.567	-1267.645	1	5297.472	-13.84479	-1.339268E-006	0.003561	7
	24	9	3984.375	5254.901	-1458.857	1	5453.646	-15.51563	-2.772073E-007	0.0010756	7
	25	9	3170.956	5363.643	-1685.045	1	5622.103	-17.44066	-2.405945E-007	0.0010333	7
	26	10	2527.573	5481.284	-1955.399	1	5819.627	-19.63341	-1.33041E-006	0.0031054	7
	27	10	1976.103	5623.744	-2315.078	1	6081.618	-22.37508	-1.240185E-006	0.0037155	7
	28	10	1577.524	5773.881	-2710.795	1	6378.567	-25.14972	-3.218408E-009	0.0031103	7
	29	11	1265.625	5925.821	-3205.435	1	6737.222	-28.41014	-1.06315E-009	0.0031176	7
	30	11	998.264	6119.785	-3844.457	1	7227.145	-32.13709	-2.78625E-009	0.00313	7
	31	11	796.875	6327.706	-4583.54	1	7813.366	-35.91809	1.093859E-006	0.0013929	7
	32	12	627.7902	6564.021	-5548.392	1	8594.825	-40.20694	2.24754E-007	0.0005112	7
	33	12	505.5147	6826.67	-6610.264	1	9502.58	-44.07731	1.097899E-006	0.0002439	7
	34	12	397.9953	7158.811	-8051.833	1	10774.07	-48.36	4.769634E-010	0.0020663	7
	35	13	315.5048	7534.846	-9786.84	1	12351.36	-52.40747	1.268998E-009	0.0019913	6
	36	13	252.4038	7955.35	-11838.89	1	14263.48	-56.10018	3.796685E-010	0.0019989	6
	37	13	198.6229	8506.525	-14566.04	1	16868.04	-59.7152	9.621622E-010	0.0020008	6
	38	14	158.3615	9155.539	-17753.14	1	19974.93	-62.71922	6.542152E-010	0.0019993	6
	39	14	125.558	9990.4	-21769.5	1	23952.44	-65.3488	2.832979E-010	0.0020056	6
	40	14	100.4464	11024.62	-26529.92	1	28729.41	-67.43446	5.18449E-010	0.0019975	6
	41	14	79.00281	12433.05	-32823.94	1	35099.74	-69.25431	2.389096E-010	0.0019935	6
	42	15	63.3446	14249.87	-39562.15	1	42050.23	-70.19151	3.494966E-010	0.0019893	6
	43	15	49.86702	16837.75	-48961.43	1	51775.78	-71.022	-6.199223E-010	0.0019993	6
	44	16	39.72458	19825.45	-59848.9	1	63047.12	-71.67212	-1.030601E-010	0.0020053	6
	45	16	31.6723	23971.44	-72863.9	1	76705.79	-71.78935	-3.511026E-010	0.002003	6
	46	16	24.93351	30071.18	-89045.18	1	93985.74	-71.33981	1.690161E-010	0.0019891	6
	47	17	19.86229	37642.16	-107385.8	1	113792.1	-70.68279	-7.545379E-010	0.0020043	5
	48	17	15.83615	50832.86	-129717.8	1	139322.3	-68.60115	4.744569E-009	0.0019899	5
	49	17	12.40079	61740.3	-154928.4	1	166777.3	-68.27229	9.194578E-009	0.0020023	5
	50	18	9.93114	78755.78	-183530.5	1	199714.6	-66.77509	-1.040941E-009	0.0020113	5
	51	18	7.944915	99570.4	-214214.2	1	236224.4	-65.07019	1.133798E-010	0.0020013	5
	52	19	6.317385	125683.5	-249320.6	1	279208	-63.24715	2.788887E-010	0.0019981	5
	53	19	5.008013	157694.3	-287534.3	1	327938.3	-61.25802	-7.38075E-013	0.0019965	5
	54	21	3.945707	195827.9	-329378.8	1	383195.7	-59.26694	3.235804E-010	0.0020039	5
	55	22	3.158693	236336.6	-371751.5	1	440515.8	-57.55432	-6.153089E-011	0.0020115	5
	56	24	2.504006	281756.1	-419416	1	505268.5	-56.10751	-5.94299E-011	0.0019947	5
	57	25	1.998082	331476.1	-470056.3	1	575177.6	-54.80913	2.540919E-010	0.0020386	5
	58	26	1.584686	382088.2	-528988.3	1	652548.8	-54.15942	1.540887E-010	0.0020155	5
	59	28	1.266892	437730.9	-593624.1	1	737562.2	-53.59541	4.596509E-011	0.001977	5
	60	31	0.999041	501575.1	-675673.4	1	841493.9	-53.41226	-2.439936E-012	0.0019529	5
