EXPLAIN
TAG	EISPOT
TITLE	LABEL	Potentiostatic EIS	Test &Identifier
DATE	LABEL	9/24/2019	Date
TIME	LABEL	9:09:33	Time
NOTES	NOTES	1	&Notes...
	
PSTAT	PSTAT	REF600-11020	Potentiostat
VDC	POTEN	0.00000E+000	T	DC &Voltage (V)
FREQINIT	QUANT	1.00000E+006	Initial Fre&q. (Hz)
FREQFINAL	QUANT	1.00000E+000	Final Fre&q. (Hz)
PTSPERDEC	QUANT	1.00000E+001	Points/&decade
VAC	QUANT	2.50000E+001	AC &Voltage (mV rms)
AREA	QUANT	1.00000E-002	&Area (cm^2)
CONDIT	TWOPARAM	T	5.00000E+000	0.00000E+000	Conditionin&g	Time(s)	E(V)
DELAY	TWOPARAM	T	5.00000E+000	0.00000E+000	Init. De&lay	Time(s)	Stab.(mV/s)
SPEED	SELECTOR	1	&Optimize for:
ZGUESS	QUANT	1.00000E+004	E&stimated Z (ohms)
OCVCURVE	TABLE	19
	Pt	T	Vf	Vm	Ach	Over
	#	s	V vs. Ref.	V	V	bits
	0	0.258333	-8.78226E-003	-8.78226E-003	5.65066E-004	...........
	1	0.516667	-8.80261E-003	-9.84743E-003	5.67832E-004	...........
	2	0.775	-8.92733E-003	-1.08449E-002	5.61699E-004	...........
	3	1.03333	-9.27913E-003	-1.17895E-002	5.65132E-004	...........
	4	1.29167	-9.90573E-003	-1.26815E-002	5.65932E-004	...........
	5	1.55	-1.07339E-002	-1.35292E-002	5.66066E-004	...........
	6	1.80833	-1.16454E-002	-1.43356E-002	5.60432E-004	...........
	7	2.06667	-1.25542E-002	-1.51053E-002	5.63766E-004	...........
	8	2.325	-1.34224E-002	-1.58407E-002	5.69699E-004	...........
	9	2.58333	-1.42431E-002	-1.65447E-002	5.62499E-004	...........
	10	2.84167	-1.50206E-002	-1.72181E-002	5.65532E-004	...........
	11	3.1	-1.57609E-002	-1.78665E-002	5.69232E-004	...........
	12	3.35833	-1.64686E-002	-1.84921E-002	5.70966E-004	...........
	13	3.61667	-1.71471E-002	-1.90950E-002	5.71232E-004	...........
	14	3.875	-1.77992E-002	-1.96785E-002	5.71599E-004	...........
	15	4.13333	-1.84274E-002	-2.02425E-002	5.72832E-004	...........
	16	4.39167	-1.90335E-002	-2.07882E-002	5.68099E-004	...........
	17	4.65	-1.96190E-002	-2.13150E-002	5.67699E-004	...........
	18	4.90833	-2.01849E-002	-2.18252E-002	5.62332E-004	...........
EOC	QUANT	-0.0201849	Open Circuit (V)
PSTATMODEL	IQUANT	4	Pstat Model
PSTATSECTION	LABEL	REF600-11020	Pstat Section
PSTATSERIALNO	LABEL	11020	Pstat Serial Number
CTRLMODE	IQUANT	1	Control Mode
IESTAB	IQUANT	0	I/E Stability
CASPEED	IQUANT	1	Control Amp Speed
CONVENTION	IQUANT	1	Current Convention
ICHRANGE	IQUANT	2	Ich Range
ICHRANGEMODE	TOGGLE	F	Ich Auto Range
ICHOFFSETENABLE	TOGGLE	T	Ich Offset Enable
ICHOFFSET	QUANT	0	Ich Offset (V)
ICHFILTER	IQUANT	3	Ich Filter
VCHRANGE	IQUANT	2	Vch Range
VCHRANGEMODE	TOGGLE	F	Vch Auto Range
VCHOFFSETENABLE	TOGGLE	T	Vch Offset Enable
VCHOFFSET	QUANT	0	Vch Offset (V)
VCHFILTER	IQUANT	3	Vch Filter
ACHRANGE	IQUANT	2	Ach Range
ACHOFFSETENABLE	TOGGLE	F	Ach Offset Enable
ACHOFFSET	QUANT	0	Ach Offset (V)
ACHFILTER	IQUANT	3	Ach Filter
IERANGELOWERLIMIT	IQUANT	1	I/E Range Lower Limit
IERANGEMODE	TOGGLE	F	I/E AutoRange
IERANGE	IQUANT	6	I/E Range
POSFEEDENABLE	TOGGLE	F	Positive Feedback IR Comp
POSFEEDRESISTANCE	QUANT	0	Positive Feedback Resistance (ohm)
ACHSELECT	IQUANT	0	Ach Select
CABLEID	IQUANT	14	Cable ID
DCCALDATE	LABEL	8/19/2019	DC Calibration Date
ACCALDATE	LABEL	8/19/2019	AC Calibration Date
THERMOSELECT	IQUANT	1	Thermo Select
FRAMEWORKVERSION	QUANT	6.33	Framework Version
INSTRUMENTVERSION	LABEL	3.50	Instrument Version
ZCURVE	TABLE
	Pt	Time	Freq	Zreal	Zimag	Zsig	Zmod	Zphz	Idc	Vdc	IERange
	#	s	Hz	ohm	ohm	V	ohm	°	A	V	#
	0	1	1000078	2359.405	-1535.042	1	2814.808	-33.04826	-6.573558E-006	-0.0172984	8
	1	3	794390.6	2656.894	-1443.019	1	3023.473	-28.50739	8.210398E-006	-0.0195605	8
	2	4	630984.4	2917.254	-1312.557	1	3198.934	-24.22436	-3.297695E-006	-0.0183076	8
	3	6	501234.4	3139.88	-1188.997	1	3357.464	-20.74047	2.732764E-007	-0.0185281	8
	4	7	398109.4	3291.786	-1037.041	1	3451.276	-17.48645	-3.076199E-006	-0.018092	8
	5	8	316265.6	3409.34	-905.2534	1	3527.476	-14.87015	-7.025586E-007	-0.0183906	8
	6	10	251203.1	3512.421	-767.9915	1	3595.401	-12.33363	-3.956281E-008	-0.0188146	8
	7	11	199546.9	3586.489	-657.5262	1	3646.264	-10.38891	6.25828E-009	-0.0187176	8
	8	12	158578.1	3636.126	-598.1594	1	3684.997	-9.34175	-2.818101E-006	-0.0181563	8
	9	14	125953.1	3706.661	-494.4188	1	3739.49	-7.59764	1.133333E-006	-0.0206823	7
	10	15	100078.1	3736.902	-449.2605	1	3763.811	-6.855352	-5.476514E-009	-0.0187125	7
	11	16	79453.13	3774.603	-426.3181	1	3798.601	-6.443898	7.561574E-008	-0.0189163	7
	12	18	63140.62	3810.381	-411.6968	1	3832.558	-6.166663	-4.012273E-009	-0.0187201	7
	13	19	50203.12	3845.699	-408.4771	1	3867.332	-6.06303	-2.219445E-008	-0.0186937	7
	14	20	39890.62	3882.35	-412.4608	1	3904.198	-6.064356	-2.885469E-008	-0.0187599	7
	15	22	31640.63	3920.906	-427.1948	1	3944.11	-6.218025	1.180278E-007	-0.018932	7
	16	23	25171.88	3962.311	-451.6945	1	3987.974	-6.503514	7.326388E-008	-0.0188038	7
	17	24	20015.62	4005.273	-484.2851	1	4034.445	-6.894273	7.594239E-008	-0.0189213	7
	18	26	15890.62	4052.22	-527.4719	1	4086.406	-7.416411	7.621115E-008	-0.0188056	7
	19	27	12609.37	4104.787	-581.8809	1	4145.825	-8.068301	-5.434257E-008	-0.0186814	7
	20	29	10078.13	4160.311	-644.3267	1	4209.91	-8.80372	7.785045E-008	-0.0188116	7
	21	30	8015.625	4220.943	-723.5659	1	4282.512	-9.72726	-2.557146E-008	-0.0187644	7
	22	31	6328.125	4287.51	-820.5278	1	4365.318	-10.83406	4.185722E-009	-0.0186702	7
	23	33	5015.625	4359.448	-935.983	1	4458.794	-12.11757	-4.368643E-008	-0.0187257	7
	24	34	3984.375	4434.901	-1074.438	1	4563.197	-13.61858	7.691751E-008	-0.0188124	7
	25	35	3170.956	4516.998	-1241.103	1	4684.4	-15.36362	4.137515E-008	-0.0188157	7
	26	37	2527.573	4606.648	-1443.222	1	4827.432	-17.39531	7.63143E-008	-0.0188151	7
	27	38	1976.103	4716.122	-1710.351	1	5016.683	-19.9337	1.19117E-007	-0.0189385	7
	28	39	1577.524	4825.719	-2007.044	1	5226.451	-22.58271	1.202484E-007	-0.0189352	7
	29	41	1265.625	4942.815	-2352.808	1	5474.224	-25.45471	1.1777E-007	-0.0189354	7
	30	42	998.264	5081.191	-2825.355	1	5813.875	-29.07589	-2.973575E-008	-0.0187056	7
	31	43	796.875	5224.995	-3363.796	1	6214.153	-32.77301	-2.455728E-008	-0.0186935	7
	32	45	627.7902	5400.424	-4068.13	1	6761.232	-36.99065	-1.370427E-009	-0.0187347	7
	33	46	505.5147	5589.142	-4856.53	1	7404.35	-40.98811	6.696708E-008	-0.0188845	7
	34	47	397.9953	5824.871	-5933.635	1	8314.875	-45.52996	8.860265E-009	-0.0187466	7
	35	49	315.5048	6104.022	-7228.589	1	9461.057	-49.82132	7.417035E-009	-0.0187464	7
	36	50	252.4038	6434.991	-8756.478	1	10866.69	-53.68845	1.185582E-009	-0.0188076	6
	37	51	198.6229	6877.508	-10781.2	1	12788.05	-57.4655	1.976324E-009	-0.0188086	6
	38	53	158.3615	7414.518	-13133.21	1	15081.66	-60.55257	1.545634E-009	-0.0188116	6
	39	54	125.558	8110.648	-16082.07	1	18011.54	-63.23689	2.280962E-009	-0.0188047	6
	40	55	100.4464	8957.625	-19528.19	1	21484.63	-65.35897	1.988086E-009	-0.0188093	6
	41	57	79.00281	10196.28	-24105.91	1	26173.64	-67.07268	1.639099E-009	-0.0188178	6
	42	58	63.3446	11933.75	-28998.85	1	31358.38	-67.63161	1.112407E-009	-0.0188127	6
	43	60	49.86702	13744.59	-35892.82	1	38434.47	-69.04645	9.763746E-010	-0.0188145	6
	44	61	39.72458	16332.81	-43191.11	1	46176.1	-69.28577	1.522929E-009	-0.018813	6
	45	62	31.6723	19816.04	-52185.68	1	55821.33	-69.20714	1.534536E-009	-0.0188134	6
	46	64	24.93351	24477.87	-63330.61	1	67896.48	-68.86802	2.094409E-009	-0.018818	6
	47	65	19.86229	30280.6	-75657.14	1	81491.83	-68.187	2.312695E-009	-0.0188029	6
	48	67	15.83615	38223.74	-90035.03	1	97812.9	-66.99669	1.162472E-009	-0.018811	6
	49	68	12.40079	48773.97	-107626.4	1	118162.4	-65.62099	3.234906E-009	-0.0188047	5
	50	69	9.93114	59866.44	-126207.1	1	139686.2	-64.62263	2.015184E-009	-0.0188082	5
	51	71	7.944915	73806.54	-146839.9	1	164345.3	-63.3144	8.922258E-010	-0.0188022	5
	52	73	6.317385	92027.48	-169942.9	1	193260.6	-61.56357	6.124213E-010	-0.0187915	5
	53	75	5.008013	113786.8	-195534.6	1	226232.6	-59.80374	1.14029E-009	-0.0188065	5
	54	77	3.945707	139683.5	-223873.6	1	263876.6	-58.03834	1.266234E-009	-0.0188045	5
	55	80	3.158693	167623.3	-252059.4	1	302707	-56.3755	1.00767E-009	-0.0187974	5
	56	83	2.504006	199348.2	-283740.4	1	346768.4	-54.90917	9.387152E-010	-0.0188122	5
	57	86	1.998082	232374	-317392.5	1	393364.5	-53.79085	5.759712E-010	-0.0188102	5
	58	89	1.584686	269415.2	-354348.4	1	445137.4	-52.75385	9.277935E-010	-0.0187624	5
	59	93	1.266892	305713.6	-397173.8	1	501206.4	-52.41371	6.628847E-010	-0.0188239	5
	60	97	0.999041	347631.9	-449392.8	1	568156.6	-52.27593	1.206851E-009	-0.0187749	5
