EXPLAIN
TAG	EISPOT
TITLE	LABEL	Potentiostatic EIS	Test &Identifier
DATE	LABEL	9/22/2019	Date
TIME	LABEL	10:40:43	Time
NOTES	NOTES	1	&Notes...
	
PSTAT	PSTAT	REF600-11020	Potentiostat
VDC	POTEN	0.00000E+000	T	DC &Voltage (V)
FREQINIT	QUANT	1.00000E+006	Initial Fre&q. (Hz)
FREQFINAL	QUANT	1.00000E+000	Final Fre&q. (Hz)
PTSPERDEC	QUANT	1.00000E+001	Points/&decade
VAC	QUANT	2.50000E+001	AC &Voltage (mV rms)
AREA	QUANT	1.00000E-002	&Area (cm^2)
CONDIT	TWOPARAM	T	5.00000E+000	0.00000E+000	Conditionin&g	Time(s)	E(V)
DELAY	TWOPARAM	T	5.00000E+000	0.00000E+000	Init. De&lay	Time(s)	Stab.(mV/s)
SPEED	SELECTOR	1	&Optimize for:
ZGUESS	QUANT	1.00000E+004	E&stimated Z (ohms)
OCVCURVE	TABLE	19
	Pt	T	Vf	Vm	Ach	Over
	#	s	V vs. Ref.	V	V	bits
	0	0.258333	-4.60725E-003	-4.60725E-003	5.65299E-004	...........
	1	0.516667	-4.63223E-003	-5.91482E-003	5.70299E-004	...........
	2	0.775	-4.78396E-003	-7.06713E-003	5.70699E-004	...........
	3	1.03333	-5.20589E-003	-8.08140E-003	5.71332E-004	...........
	4	1.29167	-5.94111E-003	-8.98508E-003	5.69866E-004	...........
	5	1.55	-6.88377E-003	-9.87203E-003	5.68199E-004	...........
	6	1.80833	-7.88522E-003	-1.06791E-002	5.68332E-004	...........
	7	2.06667	-8.85035E-003	-1.14139E-002	5.72466E-004	...........
	8	2.325	-9.74497E-003	-1.21173E-002	5.71566E-004	...........
	9	2.58333	-1.05671E-002	-1.27726E-002	5.66766E-004	...........
	10	2.84167	-1.13269E-002	-1.34394E-002	5.66832E-004	...........
	11	3.1	-1.20387E-002	-1.40483E-002	5.65732E-004	...........
	12	3.35833	-1.27146E-002	-1.46301E-002	5.68532E-004	...........
	13	3.61667	-1.33609E-002	-1.52074E-002	5.67766E-004	...........
	14	3.875	-1.39824E-002	-1.58848E-002	5.73599E-004	...........
	15	4.13333	-1.45874E-002	-1.62987E-002	5.71532E-004	...........
	16	4.39167	-1.51797E-002	-1.69704E-002	5.74399E-004	...........
	17	4.65	-1.57620E-002	-1.76902E-002	5.70266E-004	...........
	18	4.90833	-1.63488E-002	-1.81751E-002	5.71032E-004	...........
EOC	QUANT	-0.0163488	Open Circuit (V)
PSTATMODEL	IQUANT	4	Pstat Model
PSTATSECTION	LABEL	REF600-11020	Pstat Section
PSTATSERIALNO	LABEL	11020	Pstat Serial Number
CTRLMODE	IQUANT	1	Control Mode
IESTAB	IQUANT	0	I/E Stability
CASPEED	IQUANT	1	Control Amp Speed
CONVENTION	IQUANT	1	Current Convention
ICHRANGE	IQUANT	2	Ich Range
ICHRANGEMODE	TOGGLE	F	Ich Auto Range
ICHOFFSETENABLE	TOGGLE	T	Ich Offset Enable
ICHOFFSET	QUANT	0	Ich Offset (V)
ICHFILTER	IQUANT	3	Ich Filter
VCHRANGE	IQUANT	2	Vch Range
VCHRANGEMODE	TOGGLE	F	Vch Auto Range
VCHOFFSETENABLE	TOGGLE	T	Vch Offset Enable
VCHOFFSET	QUANT	0	Vch Offset (V)
VCHFILTER	IQUANT	3	Vch Filter
ACHRANGE	IQUANT	2	Ach Range
ACHOFFSETENABLE	TOGGLE	F	Ach Offset Enable
ACHOFFSET	QUANT	0	Ach Offset (V)
ACHFILTER	IQUANT	3	Ach Filter
IERANGELOWERLIMIT	IQUANT	1	I/E Range Lower Limit
IERANGEMODE	TOGGLE	F	I/E AutoRange
IERANGE	IQUANT	6	I/E Range
POSFEEDENABLE	TOGGLE	F	Positive Feedback IR Comp
POSFEEDRESISTANCE	QUANT	0	Positive Feedback Resistance (ohm)
ACHSELECT	IQUANT	0	Ach Select
CABLEID	IQUANT	14	Cable ID
DCCALDATE	LABEL	8/19/2019	DC Calibration Date
ACCALDATE	LABEL	8/19/2019	AC Calibration Date
THERMOSELECT	IQUANT	1	Thermo Select
FRAMEWORKVERSION	QUANT	6.33	Framework Version
INSTRUMENTVERSION	LABEL	3.50	Instrument Version
ZCURVE	TABLE
	Pt	Time	Freq	Zreal	Zimag	Zsig	Zmod	Zphz	Idc	Vdc	IERange
	#	s	Hz	ohm	ohm	V	ohm	°	A	V	#
	0	2	1000078	2526.214	-2116.894	1	3295.906	-39.96203	-1.038608E-007	-0.0138875	8
	1	3	794390.6	2921.119	-2125.108	1	3612.343	-36.03582	-4.015947E-006	-0.0134295	8
	2	4	630984.4	3320.647	-2103.111	1	3930.62	-32.34787	4.995798E-006	-0.0151868	8
	3	6	501234.4	3704.364	-2065.768	1	4241.428	-29.14657	1.638365E-006	-0.0151681	8
	4	7	398109.4	4061.861	-1961.386	1	4510.627	-25.77491	5.853385E-007	-0.0147703	8
	5	9	316265.6	4402.312	-1837.202	1	4770.289	-22.65207	7.036949E-007	-0.0147969	8
	6	10	251203.1	4663.045	-1682.788	1	4957.396	-19.84337	3.125961E-006	-0.0153885	8
	7	12	199546.9	4913.144	-1532.969	1	5146.745	-17.32865	-3.13694E-006	-0.013923	8
	8	13	158578.1	5129.356	-1379.32	1	5311.574	-15.05119	3.437534E-006	-0.0152883	8
	9	14	125953.1	5309.339	-1186.164	1	5440.227	-12.59369	2.515528E-007	-0.0159756	7
	10	16	100078.1	5436.697	-1078.063	1	5542.553	-11.2159	-3.012364E-008	-0.0147304	7
	11	17	79453.13	5547.787	-1000.354	1	5637.255	-10.22151	-6.601604E-008	-0.0146185	7
	12	19	63140.62	5644.398	-942.3879	1	5722.528	-9.478666	1.293949E-007	-0.0149133	7
	13	20	50203.12	5730.897	-902.3425	1	5801.5	-8.947886	-2.794678E-008	-0.0147385	7
	14	21	39890.62	5817.349	-887.415	1	5884.646	-8.673393	-4.246283E-008	-0.0147163	7
	15	23	31640.63	5898.826	-891.2275	1	5965.771	-8.591586	1.282589E-007	-0.0149194	7
	16	24	25171.88	5980.929	-916.1425	1	6050.688	-8.708722	-5.103308E-008	-0.0146714	7
	17	25	20015.62	6070.739	-958.882	1	6146	-8.975799	4.862596E-008	-0.0147938	7
	18	27	15890.62	6166.61	-1024.277	1	6251.098	-9.43076	6.936006E-008	-0.0148509	7
	19	28	12609.37	6270.208	-1108.53	1	6367.444	-10.02591	-3.853934E-008	-0.0147302	7
	20	29	10078.13	6382.811	-1209.664	1	6496.427	-10.73137	-3.91974E-008	-0.0147314	7
	21	31	8015.625	6509.204	-1334.979	1	6644.69	-11.59013	-3.825729E-008	-0.0147338	7
	22	32	6328.125	6659.057	-1493.003	1	6824.375	-12.6371	1.13512E-008	-0.0148015	7
	23	34	5015.625	6820.976	-1674.144	1	7023.423	-13.79011	-6.514064E-008	-0.0146629	7
	24	35	3984.375	7004.188	-1879.614	1	7252.006	-15.02173	4.939374E-008	-0.0147976	7
	25	36	3170.956	7209.129	-2117.929	1	7513.798	-16.37196	-6.361119E-008	-0.0146346	7
	26	38	2527.573	7440.141	-2385.323	1	7813.16	-17.77595	-4.045446E-008	-0.0146316	7
	27	39	1976.103	7717.469	-2706.42	1	8178.267	-19.32513	-3.91302E-008	-0.0147389	7
	28	40	1577.524	7995.773	-3047.567	1	8556.871	-20.86421	-5.631879E-008	-0.0145501	7
	29	42	1265.625	8275.437	-3391.522	1	8943.448	-22.28529	6.441786E-009	-0.0148265	7
	30	43	998.264	8599.23	-3888.516	1	9437.549	-24.33217	-8.703638E-009	-0.0146363	6
	31	44	796.875	8901.49	-4420.429	1	9938.65	-26.40873	-6.328218E-009	-0.0146327	6
	32	46	627.7902	9215.808	-5114.23	1	10539.76	-29.02769	-1.397503E-009	-0.0149093	6
	33	47	505.5147	9490.661	-5901.452	1	11175.86	-31.87404	-4.657698E-009	-0.0148112	6
	34	48	397.9953	9801.61	-6996.375	1	12042.46	-35.51918	9.10453E-010	-0.0147789	6
	35	50	315.5048	10117.79	-8345.917	1	13115.79	-39.5184	1.529675E-009	-0.0147834	6
	36	51	252.4038	10452.41	-9976.66	1	14449.45	-43.66594	4.662033E-010	-0.0147897	6
	37	52	198.6229	10867.82	-12175.54	1	16320.33	-48.24807	1.14168E-009	-0.0147815	6
	38	54	158.3615	11341.49	-14774.85	1	18625.94	-52.4894	1.044448E-009	-0.0147834	6
	39	55	125.558	11945.05	-18094.03	1	21681.28	-56.56858	8.125369E-010	-0.0147833	6
	40	56	100.4464	12673.48	-22036.92	1	25421.31	-60.0967	1.517253E-009	-0.0147809	6
	41	58	79.00281	13695.85	-27203.19	1	30456.36	-63.27635	1.433596E-009	-0.0147848	6
	42	59	63.3446	14763.17	-33348.01	1	36469.72	-66.12102	3.916887E-010	-0.0147833	6
	43	61	49.86702	16577.98	-40779.57	1	44020.49	-67.87695	5.681198E-010	-0.0147851	6
	44	62	39.72458	18784.37	-50004.78	1	53416.57	-69.41123	6.476232E-010	-0.0147802	6
	45	63	31.6723	21394.09	-60965.55	1	64610.41	-70.66296	1.153351E-009	-0.0147846	6
	46	65	24.93351	25208.35	-75015.98	1	79138.22	-71.42561	8.116606E-010	-0.0147857	6
	47	66	19.86229	29776.59	-90966.96	1	95716.4	-71.87496	5.880609E-010	-0.014783	6
	48	67	15.83615	34902.03	-109531.6	1	114957.9	-72.32562	1.32296E-009	-0.0147791	5
	49	69	12.40079	43538.82	-135636.1	1	142452.8	-72.20351	6.783177E-011	-0.0147769	5
	50	70	9.93114	52311.26	-162330.5	1	170551.1	-72.13839	6.291674E-010	-0.0147789	5
	51	72	7.944915	63891.55	-194692	1	204907.5	-71.83186	6.596033E-010	-0.0147758	5
	52	74	6.317385	77595.29	-234210.3	1	246729.6	-71.66965	3.826918E-010	-0.0147698	5
	53	76	5.008013	95636.4	-282031.1	1	297805.1	-71.26826	3.67169E-010	-0.0147875	5
	54	78	3.945707	118244.3	-340353.9	1	360308.9	-70.84197	5.672685E-010	-0.0147776	5
	55	81	3.158693	144711.4	-404912	1	429994.4	-70.33363	3.724494E-010	-0.0147698	5
	56	84	2.504006	177444.8	-484294.1	1	515778.4	-69.87723	4.869469E-010	-0.0147905	5
	57	87	1.998082	216096.9	-574460.1	1	613760.8	-69.38501	3.646905E-010	-0.014757	5
	58	90	1.584686	264067.9	-685775.4	1	734860.4	-68.94007	4.458979E-010	-0.014742	5
	59	94	1.266892	321137.8	-810846.9	1	872125.1	-68.39384	4.340975E-010	-0.0147481	5
	60	98	0.999041	394356	-965705	1	1043121	-67.78682	3.171944E-010	-0.0147983	5
