EXPLAIN
TAG	EISPOT
TITLE	LABEL	Potentiostatic EIS	Test &Identifier
DATE	LABEL	11/20/2019	Date
TIME	LABEL	11:07:33	Time
NOTES	NOTES	4	&Notes...
	
	
	
	
PSTAT	PSTAT	REF600-11020	Potentiostat
VDC	POTEN	0.00000E+000	T	DC &Voltage (V)
FREQINIT	QUANT	1.00000E+006	Initial Fre&q. (Hz)
FREQFINAL	QUANT	1.00000E+000	Final Fre&q. (Hz)
PTSPERDEC	QUANT	1.00000E+001	Points/&decade
VAC	QUANT	2.50000E+001	AC &Voltage (mV rms)
AREA	QUANT	1.00000E-002	&Area (cm^2)
CONDIT	TWOPARAM	T	5.00000E+000	0.00000E+000	Conditionin&g	Time(s)	E(V)
DELAY	TWOPARAM	T	5.00000E+000	0.00000E+000	Init. De&lay	Time(s)	Stab.(mV/s)
SPEED	SELECTOR	1	&Optimize for:
ZGUESS	QUANT	1.00000E+005	E&stimated Z (ohms)
OCVCURVE	TABLE	19
	Pt	T	Vf	Vm	Ach	Over
	#	s	V vs. Ref.	V	V	bits
	0	0.258333	3.83036E-003	3.83036E-003	5.44899E-004	...........
	1	0.516667	3.82716E-003	3.66300E-003	5.45299E-004	...........
	2	0.775	3.80669E-003	3.46031E-003	5.45966E-004	...........
	3	1.03333	3.74724E-003	3.33196E-003	5.43599E-004	...........
	4	1.29167	3.64067E-003	3.19303E-003	5.43433E-004	...........
	5	1.55	3.50282E-003	3.08643E-003	5.49166E-004	...........
	6	1.80833	3.35775E-003	2.95590E-003	5.47266E-004	...........
	7	2.06667	3.21982E-003	2.84313E-003	5.49999E-004	...........
	8	2.325	3.09145E-003	2.72713E-003	5.52799E-004	...........
	9	2.58333	2.96984E-003	2.61419E-003	5.54033E-004	...........
	10	2.84167	2.85264E-003	2.52112E-003	5.47933E-004	...........
	11	3.1	2.73992E-003	2.43666E-003	5.53466E-004	...........
	12	3.35833	2.63352E-003	2.33908E-003	5.44333E-004	...........
	13	3.61667	2.53464E-003	2.27894E-003	5.52033E-004	...........
	14	3.875	2.44321E-003	2.19420E-003	5.55033E-004	...........
	15	4.13333	2.35872E-003	2.12838E-003	5.49499E-004	...........
	16	4.39167	2.28015E-003	2.06737E-003	5.49599E-004	...........
	17	4.65	2.20633E-003	1.99040E-003	5.47866E-004	...........
	18	4.90833	2.13627E-003	1.94427E-003	5.44699E-004	...........
EOC	QUANT	0.0021363	Open Circuit (V)
PSTATMODEL	IQUANT	4	Pstat Model
PSTATSECTION	LABEL	REF600-11020	Pstat Section
PSTATSERIALNO	LABEL	11020	Pstat Serial Number
CTRLMODE	IQUANT	1	Control Mode
IESTAB	IQUANT	0	I/E Stability
CASPEED	IQUANT	1	Control Amp Speed
CONVENTION	IQUANT	1	Current Convention
ICHRANGE	IQUANT	2	Ich Range
ICHRANGEMODE	TOGGLE	F	Ich Auto Range
ICHOFFSETENABLE	TOGGLE	T	Ich Offset Enable
ICHOFFSET	QUANT	0	Ich Offset (V)
ICHFILTER	IQUANT	3	Ich Filter
VCHRANGE	IQUANT	2	Vch Range
VCHRANGEMODE	TOGGLE	F	Vch Auto Range
VCHOFFSETENABLE	TOGGLE	T	Vch Offset Enable
VCHOFFSET	QUANT	0	Vch Offset (V)
VCHFILTER	IQUANT	3	Vch Filter
ACHRANGE	IQUANT	2	Ach Range
ACHOFFSETENABLE	TOGGLE	F	Ach Offset Enable
ACHOFFSET	QUANT	0	Ach Offset (V)
ACHFILTER	IQUANT	3	Ach Filter
IERANGELOWERLIMIT	IQUANT	1	I/E Range Lower Limit
IERANGEMODE	TOGGLE	F	I/E AutoRange
IERANGE	IQUANT	4	I/E Range
POSFEEDENABLE	TOGGLE	F	Positive Feedback IR Comp
POSFEEDRESISTANCE	QUANT	0	Positive Feedback Resistance (ohm)
ACHSELECT	IQUANT	0	Ach Select
CABLEID	IQUANT	14	Cable ID
DCCALDATE	LABEL	8/19/2019	DC Calibration Date
ACCALDATE	LABEL	8/19/2019	AC Calibration Date
THERMOSELECT	IQUANT	1	Thermo Select
FRAMEWORKVERSION	QUANT	6.33	Framework Version
INSTRUMENTVERSION	LABEL	3.50	Instrument Version
ZCURVE	TABLE
	Pt	Time	Freq	Zreal	Zimag	Zsig	Zmod	Zphz	Idc	Vdc	IERange
	#	s	Hz	ohm	ohm	V	ohm	°	A	V	#
	0	2	1000078	1985.901	-2333.849	1	3064.417	-49.60513	-3.411165E-006	0.0044812	8
	1	3	794390.6	2396.65	-2520.538	1	3478.081	-46.44325	2.062032E-006	0.0046961	8
	2	5	630984.4	2868.67	-2690.13	1	3932.692	-43.16038	-2.78006E-006	0.004224	8
	3	6	501234.4	3369.412	-2780.677	1	4368.65	-39.53185	-3.300776E-006	0.0045121	8
	4	8	398109.4	3928.566	-2824.432	1	4838.497	-35.71415	4.130303E-006	0.0038214	8
	5	9	316265.6	4450.314	-2824.54	1	5270.989	-32.40261	-2.246197E-006	0.0039746	8
	6	10	251203.1	4992.481	-2753.724	1	5701.567	-28.88	1.895689E-006	0.0033976	8
	7	12	199546.9	5480.637	-2608.774	1	6069.851	-25.45437	-4.252045E-006	0.0041484	8
	8	13	158578.1	5908.402	-2409.86	1	6380.959	-22.18907	6.896075E-007	0.0041421	8
	9	15	125953.1	6349.543	-2122.71	1	6694.968	-18.48525	-3.158696E-006	0.0077116	7
	10	17	100078.1	6641.816	-1877.78	1	6902.157	-15.7867	-7.584229E-007	0.0036272	7
	11	18	79453.13	6886.687	-1665.345	1	7085.184	-13.59435	-7.664246E-007	0.0036179	7
	12	19	63140.62	7106.236	-1466.143	1	7255.905	-11.65757	7.966218E-007	0.0019293	7
	13	21	50203.12	7242.526	-1288.408	1	7356.234	-10.0871	-1.120652E-006	0.0054254	7
	14	22	39890.62	7370.49	-1133.08	1	7457.076	-8.739769	-3.306708E-007	0.0029103	7
	15	24	31640.63	7501.755	-1017.643	1	7570.464	-7.725243	8.57952E-007	0.0035302	7
	16	25	25171.88	7561.937	-915.2957	1	7617.129	-6.901499	-2.978383E-007	0.005146	7
	17	27	20015.62	7610.212	-844.7966	1	7656.958	-6.334372	-1.24712E-006	0.0052329	7
	18	28	15890.62	7668.142	-799.8348	1	7709.743	-5.954773	-1.247777E-006	0.005232	7
	19	30	12609.37	7726.332	-788.0201	1	7766.413	-5.823545	-3.343089E-007	0.0028934	7
	20	31	10078.13	7789.125	-790.5453	1	7829.139	-5.795303	7.985158E-007	0.0019205	7
	21	32	8015.625	7834.674	-825.4693	1	7878.041	-6.014552	1.00321E-007	0.0023578	7
	22	34	6328.125	7893.645	-901.6833	1	7944.978	-6.516595	1.118124E-006	0.002239	7
	23	35	5015.625	7931.828	-999.731	1	7994.583	-7.183702	3.964768E-007	0.0043046	7
	24	36	3984.375	7998.257	-1150.453	1	8080.573	-8.185167	3.977858E-007	0.0043017	7
	25	38	3170.956	8028.144	-1314.821	1	8135.1	-9.301124	4.852438E-007	0.0020373	7
	26	39	2527.573	8081.493	-1543.507	1	8227.571	-10.81286	-6.291066E-007	0.0053835	7
	27	41	1976.103	8180.246	-1870.201	1	8391.31	-12.87787	1.007493E-006	0.0020013	7
	28	42	1577.524	8234.171	-2232.467	1	8531.44	-15.16949	7.715392E-008	0.0047365	7
	29	43	1265.625	8329.78	-2666.762	1	8746.248	-17.75236	1.015924E-007	0.0023607	7
	30	45	998.264	8478.423	-3275.447	1	9089.126	-21.12291	1.131172E-006	0.0025883	7
	31	46	796.875	8594.635	-3936.673	1	9453.313	-24.6096	-1.117611E-006	0.0054068	7
	32	48	627.7902	8791.062	-4843.745	1	10037.16	-28.85411	-6.296729E-007	0.0053886	7
	33	49	505.5147	9030.505	-5878.254	1	10775.15	-33.06144	6.310332E-007	0.0039724	7
	34	50	397.9953	9322.804	-7215.68	1	11789.01	-37.73922	8.988107E-010	0.0037185	6
	35	52	315.5048	9708.61	-8839.527	1	13129.9	-42.31734	5.536128E-010	0.0037194	6
	36	53	252.4038	10182.44	-10737.71	1	14797.99	-46.52039	9.965364E-010	0.0037087	6
	37	54	198.6229	10855.12	-13220.17	1	17105.75	-50.61048	1.14792E-009	0.0037072	6
	38	56	158.3615	11696.25	-16071.81	1	19877.26	-53.95475	8.026734E-010	0.0037156	6
	39	57	125.558	12820.79	-19586.97	1	23409.88	-56.79297	1.030097E-009	0.0037022	6
	40	59	100.4464	14235.3	-23604.45	1	27564.72	-58.90679	1.44602E-009	0.0037001	6
	41	60	79.00281	16306.18	-28839.83	1	33130.46	-60.51598	4.545653E-010	0.0037073	6
	42	61	63.3446	18970.13	-34367.28	1	39255.26	-61.10207	1.13491E-009	0.0037047	6
	43	63	49.86702	22016.75	-41801.39	1	47245.04	-62.22427	7.923669E-010	0.0037015	6
	44	64	39.72458	26197.28	-49438.38	1	55950.43	-62.08099	8.896434E-010	0.0036988	6
	45	65	31.6723	31557.31	-58341.03	1	66329.02	-61.59055	1.049096E-009	0.0036918	6
	46	67	24.93351	38375.38	-68720.63	1	78709.55	-60.81987	3.333498E-010	0.0037033	6
	47	68	19.86229	46314.71	-79625.59	1	92115.62	-59.81532	1.028977E-009	0.0037032	6
	48	69	15.83615	55908	-92016.94	1	107670	-58.71781	-8.678219E-010	0.0037095	5
	49	71	12.40079	66834.45	-105924.5	1	125247.1	-57.74958	1.422639E-010	0.0037072	5
	50	72	9.93114	78628.11	-119983.8	1	143452.1	-56.76226	1.17417E-010	0.0037139	5
	51	74	7.944915	90660.77	-135939.4	1	163398	-56.29987	4.941595E-010	0.0036968	5
	52	76	6.317385	104285	-154319.8	1	186252.4	-55.95028	4.981213E-010	0.0036982	5
	53	78	5.008013	119047.1	-176870.6	1	213202.7	-56.05651	1.417729E-010	0.0037031	5
	54	80	3.945707	135488.4	-204430.1	1	245252.5	-56.46513	5.547893E-011	0.0037099	5
	55	83	3.158693	152172.3	-235240.8	1	280168.9	-57.10202	4.818813E-011	0.0036948	5
	56	86	2.504006	171646.8	-274303.6	1	323581.6	-57.96353	2.732624E-010	0.0037148	5
	57	89	1.998082	193131	-319959.3	1	373729.2	-58.88435	2.65051E-010	0.0037136	5
	58	92	1.584686	220201.1	-375745.6	1	435514.9	-59.62809	1.344791E-010	0.0036593	5
	59	95	1.266892	248978.1	-440746	1	506208.6	-60.53783	2.88607E-010	0.0037144	5
	60	100	0.999041	287583.4	-523844.6	1	597592.9	-61.23383	-5.890373E-011	0.0036817	5
