EXPLAIN
TAG	EISPOT
TITLE	LABEL	Potentiostatic EIS	Test &Identifier
DATE	LABEL	11/22/2019	Date
TIME	LABEL	1:02:25	Time
NOTES	NOTES	4	&Notes...
	
	
	
	
PSTAT	PSTAT	REF600-11020	Potentiostat
VDC	POTEN	0.00000E+000	T	DC &Voltage (V)
FREQINIT	QUANT	1.00000E+006	Initial Fre&q. (Hz)
FREQFINAL	QUANT	1.00000E+000	Final Fre&q. (Hz)
PTSPERDEC	QUANT	1.00000E+001	Points/&decade
VAC	QUANT	2.50000E+001	AC &Voltage (mV rms)
AREA	QUANT	1.00000E-002	&Area (cm^2)
CONDIT	TWOPARAM	T	5.00000E+000	0.00000E+000	Conditionin&g	Time(s)	E(V)
DELAY	TWOPARAM	T	5.00000E+000	0.00000E+000	Init. De&lay	Time(s)	Stab.(mV/s)
SPEED	SELECTOR	1	&Optimize for:
ZGUESS	QUANT	1.00000E+005	E&stimated Z (ohms)
OCVCURVE	TABLE	19
	Pt	T	Vf	Vm	Ach	Over
	#	s	V vs. Ref.	V	V	bits
	0	0.258333	-2.99635E-003	-2.99635E-003	5.60499E-004	...........
	1	0.516667	-3.01588E-003	-4.01890E-003	5.62799E-004	...........
	2	0.775	-3.13594E-003	-4.99332E-003	5.60166E-004	...........
	3	1.03333	-3.47552E-003	-5.90950E-003	5.64966E-004	...........
	4	1.29167	-4.08009E-003	-6.68176E-003	5.60299E-004	...........
	5	1.55	-4.87206E-003	-7.41766E-003	5.61099E-004	...........
	6	1.80833	-5.72523E-003	-8.09075E-003	5.58732E-004	...........
	7	2.06667	-6.54789E-003	-8.65447E-003	5.59499E-004	...........
	8	2.325	-7.30148E-003	-9.26733E-003	5.66932E-004	...........
	9	2.58333	-7.98470E-003	-9.86196E-003	5.59399E-004	...........
	10	2.84167	-8.61582E-003	-1.03911E-002	5.55233E-004	...........
	11	3.1	-9.21369E-003	-1.09148E-002	5.62166E-004	...........
	12	3.35833	-9.78587E-003	-1.13999E-002	5.64332E-004	...........
	13	3.61667	-1.03323E-002	-1.18740E-002	5.63932E-004	...........
	14	3.875	-1.08527E-002	-1.23225E-002	5.69299E-004	...........
	15	4.13333	-1.13492E-002	-1.27943E-002	5.65532E-004	...........
	16	4.39167	-1.18262E-002	-1.31991E-002	5.61099E-004	...........
	17	4.65	-1.22865E-002	-1.35887E-002	5.67466E-004	...........
	18	4.90833	-1.27281E-002	-1.39473E-002	5.61066E-004	...........
EOC	QUANT	-0.0127281	Open Circuit (V)
PSTATMODEL	IQUANT	4	Pstat Model
PSTATSECTION	LABEL	REF600-11020	Pstat Section
PSTATSERIALNO	LABEL	11020	Pstat Serial Number
CTRLMODE	IQUANT	1	Control Mode
IESTAB	IQUANT	0	I/E Stability
CASPEED	IQUANT	1	Control Amp Speed
CONVENTION	IQUANT	1	Current Convention
ICHRANGE	IQUANT	2	Ich Range
ICHRANGEMODE	TOGGLE	F	Ich Auto Range
ICHOFFSETENABLE	TOGGLE	T	Ich Offset Enable
ICHOFFSET	QUANT	0	Ich Offset (V)
ICHFILTER	IQUANT	3	Ich Filter
VCHRANGE	IQUANT	2	Vch Range
VCHRANGEMODE	TOGGLE	F	Vch Auto Range
VCHOFFSETENABLE	TOGGLE	T	Vch Offset Enable
VCHOFFSET	QUANT	0	Vch Offset (V)
VCHFILTER	IQUANT	3	Vch Filter
ACHRANGE	IQUANT	2	Ach Range
ACHOFFSETENABLE	TOGGLE	F	Ach Offset Enable
ACHOFFSET	QUANT	0	Ach Offset (V)
ACHFILTER	IQUANT	3	Ach Filter
IERANGELOWERLIMIT	IQUANT	1	I/E Range Lower Limit
IERANGEMODE	TOGGLE	F	I/E AutoRange
IERANGE	IQUANT	5	I/E Range
POSFEEDENABLE	TOGGLE	F	Positive Feedback IR Comp
POSFEEDRESISTANCE	QUANT	0	Positive Feedback Resistance (ohm)
ACHSELECT	IQUANT	0	Ach Select
CABLEID	IQUANT	14	Cable ID
DCCALDATE	LABEL	8/19/2019	DC Calibration Date
ACCALDATE	LABEL	8/19/2019	AC Calibration Date
THERMOSELECT	IQUANT	1	Thermo Select
FRAMEWORKVERSION	QUANT	6.33	Framework Version
INSTRUMENTVERSION	LABEL	3.50	Instrument Version
ZCURVE	TABLE
	Pt	Time	Freq	Zreal	Zimag	Zsig	Zmod	Zphz	Idc	Vdc	IERange
	#	s	Hz	ohm	ohm	V	ohm	°	A	V	#
	0	1	1000078	2244.74	-2022.203	1	3021.285	-42.0145	3.093518E-006	-0.0112733	8
	1	3	794390.6	2654.141	-2086.748	1	3376.237	-38.17526	-2.331704E-006	-0.0103161	8
	2	4	630984.4	3057.914	-2107.324	1	3713.711	-34.5722	-1.978788E-006	-0.0108796	8
	3	6	501234.4	3454.496	-2060.643	1	4022.411	-30.81652	-1.215304E-006	-0.0107068	8
	4	7	398109.4	3829.639	-1994.371	1	4317.829	-27.50927	4.290238E-006	-0.0112372	8
	5	8	316265.6	4146.278	-1867.069	1	4547.259	-24.24204	-2.413651E-006	-0.0110749	8
	6	10	251203.1	4441.652	-1722.927	1	4764.11	-21.20138	-5.973924E-006	-0.0103541	8
	7	11	199546.9	4685.651	-1604.3	1	4952.687	-18.90047	4.052606E-006	-0.011267	8
	8	13	158578.1	4871.481	-1488.458	1	5093.804	-16.99028	-1.390495E-006	-0.0108441	8
	9	14	125953.1	5124.426	-1305.137	1	5288.017	-14.28884	3.183796E-006	-0.01333	7
	10	15	100078.1	5226.848	-1216.631	1	5366.575	-13.10317	9.075854E-007	-0.0115105	7
	11	17	79453.13	5358.87	-1170.586	1	5485.231	-12.32208	9.08884E-007	-0.0115214	7
	12	18	63140.62	5477.315	-1141.26	1	5594.949	-11.76982	9.088215E-007	-0.0115227	7
	13	19	50203.12	5588.624	-1132.413	1	5702.199	-11.45465	8.557064E-007	-0.0132317	7
	14	21	39890.62	5693.389	-1155.854	1	5809.534	-11.47605	7.273099E-008	-0.0102352	7
	15	22	31640.63	5813.004	-1198.064	1	5935.181	-11.64563	5.354206E-007	-0.0131145	7
	16	23	25171.88	5918.842	-1262.891	1	6052.073	-12.04447	-9.767167E-007	-0.0094645	7
	17	25	20015.62	6052.769	-1362.203	1	6204.16	-12.68336	7.381863E-008	-0.0102424	7
	18	27	15890.62	6185.504	-1473.24	1	6358.529	-13.39689	-1.332501E-006	-0.0097243	7
	19	28	12609.37	6347.784	-1631.242	1	6554.03	-14.41193	7.431246E-008	-0.0102444	7
	20	29	10078.13	6518.091	-1803.614	1	6763.027	-15.46724	7.371083E-008	-0.0102396	7
	21	31	8015.625	6724.738	-2009.141	1	7018.458	-16.6345	9.15438E-007	-0.01154	7
	22	32	6328.125	6919.013	-2270.941	1	7282.165	-18.17074	7.927812E-008	-0.0102443	7
	23	34	5015.625	7177.847	-2576.764	1	7626.349	-19.74755	1.075095E-006	-0.0131519	7
	24	35	3984.375	7421.941	-2940.721	1	7983.298	-21.61446	7.895809E-008	-0.0102449	7
	25	36	3170.956	7744.127	-3317.441	1	8424.78	-23.1894	-7.993189E-007	-0.0114763	7
	26	38	2527.573	8102.16	-3781.45	1	8941.161	-25.01946	6.700121E-007	-0.0110639	7
	27	39	1976.103	8527.844	-4366.635	1	9580.79	-27.11446	7.785761E-008	-0.010247	7
	28	40	1577.524	8953.081	-4959.274	1	10234.85	-28.98286	-2.200076E-007	-0.0094438	6
	29	42	1265.625	9492.566	-5650.479	1	11047.02	-30.76335	-2.207408E-007	-0.0094404	6
	30	43	998.264	10149.5	-6496.439	1	12050.57	-32.62227	1.228207E-007	-0.0144167	6
	31	45	796.875	10827.62	-7394.441	1	13111.64	-34.3301	-1.253942E-007	-0.0117565	6
	32	46	627.7902	11669.82	-8481.829	1	14426.57	-36.01032	1.921064E-007	-0.0129369	6
	33	47	505.5147	12467.35	-9568.63	1	15716.03	-37.50605	-2.314546E-007	-0.0085811	6
	34	49	397.9953	13415.5	-10952.29	1	17318.44	-39.22789	1.526177E-009	-0.0113467	6
	35	50	315.5048	14361.89	-12527.36	1	19057.77	-41.09702	6.956728E-010	-0.0113407	6
	36	51	252.4038	15273.67	-14348.83	1	20956.48	-43.21177	1.151036E-009	-0.0113526	6
	37	53	198.6229	16253.69	-16759.32	1	23346.46	-45.87748	3.692897E-010	-0.0113354	6
	38	54	158.3615	17196.99	-19619.92	1	26089.8	-48.76523	9.227519E-010	-0.0113502	6
	39	56	125.558	18251.7	-23311.7	1	29606.75	-51.94113	7.303841E-010	-0.0113347	6
	40	57	100.4464	19400.03	-27752.59	1	33861	-55.0451	-1.072997E-010	-0.0113363	6
	41	58	79.00281	20873.14	-33778.14	1	39707.06	-58.28608	5.691603E-010	-0.0113372	6
	42	60	63.3446	22603.95	-40186.05	1	46107.02	-60.64301	8.698763E-010	-0.0113502	6
	43	61	49.86702	24706.15	-50095.11	1	55856.19	-63.74818	-2.147921E-010	-0.0113415	6
	44	62	39.72458	27379.97	-60591.36	1	66490.42	-65.68278	-1.386121E-010	-0.0113407	6
	45	64	31.6723	30847.35	-73735.86	1	79928.32	-67.29803	-4.044575E-010	-0.0113364	6
	46	65	24.93351	36207.11	-90333.11	1	97319.2	-68.15821	1.57702E-010	-0.0113383	6
	47	67	19.86229	42826	-109559.8	1	117632.5	-68.64989	5.858621E-010	-0.0113462	5
	48	68	15.83615	50778.95	-131051.8	1	140545.6	-68.82003	1.106465E-009	-0.0113463	5
	49	69	12.40079	62780.75	-162527.7	1	174231.7	-68.87959	6.625152E-010	-0.0113461	5
	50	71	9.93114	78427.18	-192155.7	1	207544.3	-67.79748	-3.383889E-011	-0.0113296	5
	51	72	7.944915	97526.2	-227148.2	1	247199.7	-66.76371	6.932713E-010	-0.0113356	5
	52	74	6.317385	121291.2	-268617.2	1	294731.7	-65.69895	1.948118E-010	-0.0113312	5
	53	76	5.008013	151423	-315089.6	1	349586	-64.3324	1.380777E-010	-0.011342	5
	54	79	3.945707	188176.8	-367826.8	1	413167.1	-62.90614	3.317258E-010	-0.0113303	5
	55	81	3.158693	227360.4	-422377.8	1	479682.9	-61.707	2.251618E-010	-0.011356	5
	56	85	2.504006	272547.3	-486221.9	1	557399.1	-60.72758	3.095733E-010	-0.0113305	5
	57	87	1.998082	320725.4	-555842.1	1	641736.1	-60.01471	3.86804E-010	-0.0113734	5
	58	91	1.584686	373461.4	-640905.6	1	741777.2	-59.77026	2.104431E-010	-0.0113661	5
	59	94	1.266892	431635.6	-736128.6	1	853343.1	-59.61439	2.995255E-010	-0.0113891	5
	60	98	0.999041	498556.2	-857846.8	1	992199	-59.83606	2.268036E-010	-0.0113128	5
