EXPLAIN
TAG	EISPOT
TITLE	LABEL	Potentiostatic IDE	Test &Identifier
DATE	LABEL	9/18/2019	Date
TIME	LABEL	10:15:08	Time
NOTES	NOTES	1	&Notes...
	
PSTAT	PSTAT	REF600-11020	Potentiostat
VDC	POTEN	0.00000E+000	T	DC &Voltage (V)
FREQINIT	QUANT	1.00000E+006	Initial Fre&q. (Hz)
FREQFINAL	QUANT	1.00000E+000	Final Fre&q. (Hz)
PTSPERDEC	QUANT	1.00000E+001	Points/&decade
VAC	QUANT	2.50000E+001	AC &Voltage (mV rms)
AREA	QUANT	1.00000E-002	&Area (cm^2)
CONDIT	TWOPARAM	T	5.00000E+000	0.00000E+000	Conditionin&g	Time(s)	E(V)
DELAY	TWOPARAM	T	5.00000E+000	0.00000E+000	Init. De&lay	Time(s)	Stab.(mV/s)
SPEED	SELECTOR	1	&Optimize for:
ZGUESS	QUANT	1.00000E+007	E&stimated Z (ohms)
OCVCURVE	TABLE	19
	Pt	T	Vf	Vm	Ach	Over
	#	s	V vs. Ref.	V	V	bits
	0	0.258333	-1.17836E-003	-1.17836E-003	5.71599E-004	...........
	1	0.516667	-1.18456E-003	-1.50287E-003	5.68899E-004	...........
	2	0.775	-1.22459E-003	-1.91348E-003	5.74299E-004	...........
	3	1.03333	-1.34140E-003	-2.15119E-003	5.65532E-004	...........
	4	1.29167	-1.55297E-003	-2.53349E-003	5.68866E-004	...........
	5	1.55	-1.84155E-003	-3.14132E-003	5.70232E-004	...........
	6	1.80833	-2.19922E-003	-3.96294E-003	5.68199E-004	...........
	7	2.06667	-2.65819E-003	-5.00239E-003	5.71299E-004	...........
	8	2.325	-3.26050E-003	-5.77859E-003	5.68199E-004	...........
	9	2.58333	-4.00072E-003	-6.40449E-003	5.70799E-004	...........
	10	2.84167	-4.80940E-003	-7.14416E-003	5.70766E-004	...........
	11	3.1	-5.60382E-003	-7.64892E-003	5.72266E-004	...........
	12	3.35833	-6.32660E-003	-7.64242E-003	5.70666E-004	...........
	13	3.61667	-6.92089E-003	-7.56624E-003	5.69099E-004	...........
	14	3.875	-7.32128E-003	-7.29536E-003	5.68232E-004	...........
	15	4.13333	-7.49878E-003	-7.18993E-003	5.72399E-004	...........
	16	4.39167	-7.49382E-003	-7.22242E-003	5.68032E-004	...........
	17	4.65	-7.40504E-003	-7.58599E-003	5.72299E-004	...........
	18	4.90833	-7.35209E-003	-8.04418E-003	5.73332E-004	...........
EOC	QUANT	-0.0073521	Open Circuit (V)
PSTATMODEL	IQUANT	4	Pstat Model
PSTATSECTION	LABEL	REF600-11020	Pstat Section
PSTATSERIALNO	LABEL	11020	Pstat Serial Number
CTRLMODE	IQUANT	1	Control Mode
IESTAB	IQUANT	0	I/E Stability
CASPEED	IQUANT	1	Control Amp Speed
CONVENTION	IQUANT	1	Current Convention
ICHRANGE	IQUANT	2	Ich Range
ICHRANGEMODE	TOGGLE	F	Ich Auto Range
ICHOFFSETENABLE	TOGGLE	T	Ich Offset Enable
ICHOFFSET	QUANT	0	Ich Offset (V)
ICHFILTER	IQUANT	3	Ich Filter
VCHRANGE	IQUANT	2	Vch Range
VCHRANGEMODE	TOGGLE	F	Vch Auto Range
VCHOFFSETENABLE	TOGGLE	T	Vch Offset Enable
VCHOFFSET	QUANT	0	Vch Offset (V)
VCHFILTER	IQUANT	3	Vch Filter
ACHRANGE	IQUANT	2	Ach Range
ACHOFFSETENABLE	TOGGLE	F	Ach Offset Enable
ACHOFFSET	QUANT	0	Ach Offset (V)
ACHFILTER	IQUANT	3	Ach Filter
IERANGELOWERLIMIT	IQUANT	1	I/E Range Lower Limit
IERANGEMODE	TOGGLE	F	I/E AutoRange
IERANGE	IQUANT	3	I/E Range
POSFEEDENABLE	TOGGLE	F	Positive Feedback IR Comp
POSFEEDRESISTANCE	QUANT	0	Positive Feedback Resistance (ohm)
ACHSELECT	IQUANT	0	Ach Select
CABLEID	IQUANT	14	Cable ID
DCCALDATE	LABEL	8/19/2019	DC Calibration Date
ACCALDATE	LABEL	8/19/2019	AC Calibration Date
THERMOSELECT	IQUANT	1	Thermo Select
FRAMEWORKVERSION	QUANT	6.33	Framework Version
INSTRUMENTVERSION	LABEL	3.50	Instrument Version
ZCURVE	TABLE
	Pt	Time	Freq	Zreal	Zimag	Zsig	Zmod	Zphz	Idc	Vdc	IERange
	#	s	Hz	ohm	ohm	V	ohm	°	A	V	#
	0	2	1000078	2311.129	-1599.282	1	2810.52	-34.6829	-2.68511E-006	-0.0045136	8
	1	4	794390.6	2626.439	-1510.069	1	3029.602	-29.89672	-8.261539E-007	-0.0050669	8
	2	5	630984.4	2902.893	-1378.744	1	3213.678	-25.40561	-1.360601E-006	-0.0051135	8
	3	6	501234.4	3141.264	-1203.497	1	3363.918	-20.96309	1.654623E-006	-0.0058531	8
	4	8	398109.4	3315.927	-1068.177	1	3483.73	-17.85558	-1.574344E-006	-0.0053862	8
	5	9	316265.6	3427.588	-914.1674	1	3547.402	-14.93366	2.414513E-006	-0.0061989	8
	6	10	251203.1	3537.764	-782.2606	1	3623.218	-12.46846	-2.031951E-006	-0.0053214	8
	7	12	199546.9	3608.968	-678.3782	1	3672.172	-10.64568	-1.183322E-006	-0.0054692	8
	8	13	158578.1	3658.748	-587.4481	1	3705.608	-9.121551	-6.320035E-007	-0.0055142	8
	9	14	125953.1	3707.31	-491.9175	1	3739.803	-7.558342	5.924238E-007	-0.0071371	7
	10	16	100078.1	3742.277	-435.5222	1	3767.535	-6.63816	5.195627E-008	-0.0057495	7
	11	17	79453.13	3774.255	-405.7337	1	3796.001	-6.135753	5.420504E-008	-0.005759	7
	12	18	63140.62	3805.191	-388.7802	1	3825.001	-5.833724	2.347741E-008	-0.005804	7
	13	20	50203.12	3834.062	-379.7228	1	3852.82	-5.656089	1.294706E-009	-0.0057439	7
	14	21	39890.62	3864.39	-381.5956	1	3883.185	-5.639484	9.509187E-008	-0.0058932	7
	15	22	31640.63	3896.775	-393.6327	1	3916.606	-5.768167	9.791568E-008	-0.0058916	7
	16	24	25171.88	3929.937	-414.9922	1	3951.787	-6.027963	2.518233E-008	-0.005779	7
	17	25	20015.62	3966.379	-448.2025	1	3991.623	-6.447098	6.825693E-008	-0.0058898	7
	18	26	15890.62	4004.854	-491.0758	1	4034.849	-6.99072	-5.870256E-008	-0.005629	7
	19	28	12609.37	4047.617	-545.8738	1	4084.261	-7.680739	5.685853E-008	-0.0057687	7
	20	29	10078.13	4093.219	-611.4477	1	4138.636	-8.496057	2.503386E-008	-0.0057851	7
	21	30	8015.625	4142.683	-694.9587	1	4200.57	-9.52302	-5.648508E-008	-0.0056371	7
	22	32	6328.125	4200.504	-800.58	1	4276.116	-10.79067	-3.917333E-008	-0.0056445	7
	23	33	5015.625	4262.191	-926.8644	1	4361.806	-12.26864	-1.249627E-008	-0.0057179	7
	24	34	3984.375	4328.155	-1080.607	1	4461.013	-14.01841	5.346741E-008	-0.0057703	7
	25	36	3170.956	4400.201	-1266.626	1	4578.876	-16.0588	-3.464615E-008	-0.0056844	7
	26	37	2527.573	4481.238	-1490.102	1	4722.489	-18.393	-1.260339E-009	-0.0057596	7
	27	38	1976.103	4582.363	-1790.342	1	4919.692	-21.34073	2.20069E-008	-0.0057929	7
	28	40	1577.524	4689.072	-2127.099	1	5148.975	-24.40042	2.36321E-008	-0.0057187	7
	29	41	1265.625	4804.374	-2524.111	1	5427.075	-27.71643	-5.931294E-009	-0.0057309	7
	30	42	998.264	4955.438	-3041.511	1	5814.392	-31.54045	-3.211803E-008	-0.0056873	7
	31	44	796.875	5117.812	-3646.2	1	6283.85	-35.46808	-3.720273E-008	-0.0056588	7
	32	45	627.7902	5317.471	-4418.438	1	6913.616	-39.72416	3.032538E-008	-0.00578	7
	33	46	505.5147	5526.554	-5281.412	1	7644.352	-43.70066	-1.086933E-008	-0.0057118	7
	34	48	397.9953	5796.793	-6439.254	1	8664.109	-48.00559	5.12538E-009	-0.0057093	7
	35	49	315.5048	6104.407	-7827.326	1	9926.27	-52.0499	9.63546E-009	-0.0057151	7
	36	50	252.4038	6457.056	-9465.024	1	11457.76	-55.69812	2.065177E-009	-0.0057761	6
	37	52	198.6229	6910.941	-11628.82	1	13527.4	-59.27722	1.902512E-009	-0.0057731	6
	38	53	158.3615	7438.275	-14159.19	1	15994.08	-62.28562	2.162901E-009	-0.0057746	6
	39	54	125.558	8116.863	-17339.71	1	19145.47	-64.91531	1.355845E-009	-0.0057744	6
	40	56	100.4464	8957.926	-21076.6	1	22901.25	-66.97366	1.826449E-009	-0.0057709	6
	41	57	79.00281	10072.92	-26014.1	1	27896.19	-68.83311	2.698074E-009	-0.0057772	6
	42	58	63.3446	11353.15	-31460.57	1	33446.4	-70.15705	8.820635E-010	-0.0057774	6
	43	60	49.86702	13537.93	-38999.33	1	41282.24	-70.85645	8.615163E-010	-0.0057804	6
	44	61	39.72458	15885.08	-47301.19	1	49897.28	-71.43649	1.316649E-009	-0.0057727	6
	45	62	31.6723	19192.21	-57394.27	1	60518.13	-71.51046	1.047798E-010	-0.0057775	6
	46	64	24.93351	23516.47	-70065.35	1	73906.55	-71.44638	7.58155E-010	-0.0057775	6
	47	65	19.86229	29035.86	-84505.31	1	89354.52	-71.03738	3.510231E-009	-0.0057711	6
	48	66	15.83615	35944.05	-100785.4	1	107003.1	-70.37176	8.117325E-010	-0.0057715	5
	49	68	12.40079	45090.64	-122777.3	1	130795.4	-69.83395	4.871984E-010	-0.0057691	5
	50	69	9.93114	56394.84	-145770.7	1	156299.3	-68.84986	7.857359E-010	-0.005775	5
	51	71	7.944915	70277.94	-171961.8	1	185768.3	-67.77098	6.782133E-010	-0.0057665	5
	52	72	6.317385	87564.54	-203116.8	1	221187.7	-66.67892	-2.637312E-010	-0.005757	5
	53	74	5.008013	108521.9	-239337.9	1	262792	-65.60925	8.330336E-010	-0.0057604	5
	54	77	3.945707	135046.6	-281534.3	1	312248.5	-64.37386	7.552778E-010	-0.0057767	5
	55	80	3.158693	165326	-327003.4	1	366420.4	-63.17981	6.909137E-010	-0.0057584	5
	56	83	2.504006	201500.4	-377343.2	1	427773.7	-61.89788	3.203274E-012	-0.0057653	5
	57	86	1.998082	242028.3	-435633.9	1	498351.9	-60.94444	1.53182E-009	-0.0057938	5
	58	89	1.584686	292308	-502158.5	1	581039.8	-59.79618	3.196399E-010	-0.0058222	5
	59	92	1.266892	343773.6	-572954.5	1	668174.5	-59.03617	5.738097E-010	-0.005783	5
	60	97	0.999041	409457	-657691.6	1	774734.3	-58.09497	-1.013751E-011	-0.0057916	5
