EXPLAIN
TAG	EISPOT
TITLE	LABEL	Potentiostatic EIS	Test &Identifier
DATE	LABEL	10/31/2019	Date
TIME	LABEL	23:57:53	Time
NOTES	NOTES	1	&Notes...
	
PSTAT	PSTAT	REF600-11020	Potentiostat
VDC	POTEN	0.00000E+000	T	DC &Voltage (V)
FREQINIT	QUANT	1.00000E+006	Initial Fre&q. (Hz)
FREQFINAL	QUANT	1.00000E+000	Final Fre&q. (Hz)
PTSPERDEC	QUANT	1.00000E+001	Points/&decade
VAC	QUANT	2.50000E+001	AC &Voltage (mV rms)
AREA	QUANT	1.00000E-002	&Area (cm^2)
CONDIT	TWOPARAM	T	5.00000E+000	0.00000E+000	Conditionin&g	Time(s)	E(V)
DELAY	TWOPARAM	T	5.00000E+000	0.00000E+000	Init. De&lay	Time(s)	Stab.(mV/s)
SPEED	SELECTOR	0	&Optimize for:
ZGUESS	QUANT	1.00000E+005	E&stimated Z (ohms)
OCVCURVE	TABLE	19
	Pt	T	Vf	Vm	Ach	Over
	#	s	V vs. Ref.	V	V	bits
	0	0.258333	6.60325E-003	6.60325E-003	5.90132E-004	...........
	1	0.516667	6.60423E-003	6.65481E-003	5.95099E-004	...........
	2	0.775	6.61063E-003	6.72189E-003	5.88232E-004	...........
	3	1.03333	6.62970E-003	6.77678E-003	5.93265E-004	...........
	4	1.29167	6.66673E-003	6.90610E-003	6.05332E-004	...........
	5	1.55	6.72385E-003	7.01224E-003	5.98465E-004	...........
	6	1.80833	6.80269E-003	7.18352E-003	5.96598E-004	...........
	7	2.06667	6.90289E-003	7.24495E-003	5.92465E-004	...........
	8	2.325	7.01731E-003	7.36151E-003	5.97399E-004	...........
	9	2.58333	7.13271E-003	7.39558E-003	5.99565E-004	...........
	10	2.84167	7.23999E-003	7.62918E-003	5.98299E-004	...........
	11	3.1	7.37063E-003	9.10606E-003	5.98699E-004	...........
	12	3.35833	7.61796E-003	9.06540E-003	5.97365E-004	...........
	13	3.61667	8.02782E-003	9.01862E-003	6.00832E-004	...........
	14	3.875	8.48601E-003	9.08053E-003	6.04165E-004	...........
	15	4.13333	8.83107E-003	9.13632E-003	6.00832E-004	...........
	16	4.39167	9.02306E-003	9.43340E-003	6.05798E-004	...........
	17	4.65	9.13476E-003	9.59381E-003	6.07098E-004	...........
	18	4.90833	9.24510E-003	9.57876E-003	6.03265E-004	...........
EOC	QUANT	0.0092451	Open Circuit (V)
PSTATMODEL	IQUANT	4	Pstat Model
PSTATSECTION	LABEL	REF600-11020	Pstat Section
PSTATSERIALNO	LABEL	11020	Pstat Serial Number
CTRLMODE	IQUANT	1	Control Mode
IESTAB	IQUANT	0	I/E Stability
CASPEED	IQUANT	1	Control Amp Speed
CONVENTION	IQUANT	1	Current Convention
ICHRANGE	IQUANT	2	Ich Range
ICHRANGEMODE	TOGGLE	F	Ich Auto Range
ICHOFFSETENABLE	TOGGLE	T	Ich Offset Enable
ICHOFFSET	QUANT	0	Ich Offset (V)
ICHFILTER	IQUANT	3	Ich Filter
VCHRANGE	IQUANT	2	Vch Range
VCHRANGEMODE	TOGGLE	F	Vch Auto Range
VCHOFFSETENABLE	TOGGLE	T	Vch Offset Enable
VCHOFFSET	QUANT	0	Vch Offset (V)
VCHFILTER	IQUANT	3	Vch Filter
ACHRANGE	IQUANT	2	Ach Range
ACHOFFSETENABLE	TOGGLE	F	Ach Offset Enable
ACHOFFSET	QUANT	0	Ach Offset (V)
ACHFILTER	IQUANT	3	Ach Filter
IERANGELOWERLIMIT	IQUANT	1	I/E Range Lower Limit
IERANGEMODE	TOGGLE	F	I/E AutoRange
IERANGE	IQUANT	5	I/E Range
POSFEEDENABLE	TOGGLE	F	Positive Feedback IR Comp
POSFEEDRESISTANCE	QUANT	0	Positive Feedback Resistance (ohm)
ACHSELECT	IQUANT	0	Ach Select
CABLEID	IQUANT	14	Cable ID
DCCALDATE	LABEL	8/19/2019	DC Calibration Date
ACCALDATE	LABEL	8/19/2019	AC Calibration Date
THERMOSELECT	IQUANT	1	Thermo Select
FRAMEWORKVERSION	QUANT	6.33	Framework Version
INSTRUMENTVERSION	LABEL	3.50	Instrument Version
ZCURVE	TABLE
	Pt	Time	Freq	Zreal	Zimag	Zsig	Zmod	Zphz	Idc	Vdc	IERange
	#	s	Hz	ohm	ohm	V	ohm	°	A	V	#
	0	2	1000078	2159.617	-934.7625	1	2353.237	-23.40475	-3.044207E-006	0.0119039	8
	1	2	794390.6	2299.937	-839.2296	1	2448.268	-20.04665	6.586667E-007	0.0107908	8
	2	2	630984.4	2418.039	-735.2676	1	2527.356	-16.91326	7.083089E-006	0.0096857	8
	3	3	501234.4	2515.885	-641.132	1	2596.291	-14.2966	-7.758618E-006	0.0118749	8
	4	3	398109.4	2582.697	-552.1697	1	2641.063	-12.06792	-5.727905E-006	0.0117589	8
	5	3	316265.6	2631.106	-481.3487	1	2674.774	-10.36735	-2.558736E-006	0.011381	8
	6	4	251203.1	2679.516	-417.595	1	2711.861	-8.858129	6.192848E-006	0.009699	8
	7	4	199546.9	2709.667	-371.3409	1	2734.993	-7.803376	-5.552032E-007	0.0112719	8
	8	4	158578.1	2748.417	-327.1757	1	2767.822	-6.788629	-2.745147E-006	0.0113447	8
	9	5	125953.1	2783.147	-268.4157	1	2796.061	-5.508753	-7.912707E-007	0.0115341	7
	10	5	100078.1	2801.396	-248.9001	1	2812.432	-5.077316	7.729576E-007	0.0105837	7
	11	5	79453.13	2822.378	-248.8029	1	2833.323	-5.03781	7.366667E-007	0.0091073	7
	12	5	63140.62	2844.036	-254.137	1	2855.368	-5.106266	4.699569E-007	0.0091893	7
	13	6	50203.12	2868.246	-263.6124	1	2880.335	-5.251141	7.441162E-007	0.0090934	7
	14	6	39890.62	2893.31	-278.9998	1	2906.731	-5.50796	3.701512E-007	0.0112639	7
	15	6	31640.63	2919.574	-299.1603	1	2934.861	-5.850515	-1.181828E-006	0.0121601	7
	16	7	25171.88	2949.205	-327.1778	1	2967.298	-6.330373	-9.955552E-007	0.011248	7
	17	7	20015.62	2982.735	-359.5937	1	3004.333	-6.874312	4.723323E-007	0.0091785	7
	18	7	15890.62	3016.056	-399.2863	1	3042.372	-7.541357	6.31422E-008	0.0116883	7
	19	8	12609.37	3053.991	-449.2914	1	3086.863	-8.3691	7.846842E-007	0.0105764	7
	20	8	10078.13	3092.645	-509.5506	1	3134.341	-9.356114	1.276838E-007	0.0094512	7
	21	8	8015.625	3132.421	-575.9099	1	3184.923	-10.41775	-6.843362E-007	0.010593	7
	22	9	6328.125	3181.032	-664.8431	1	3249.766	-11.80502	9.616318E-007	0.0100998	7
	23	9	5015.625	3229.481	-768.8884	1	3319.75	-13.3919	-8.653296E-007	0.0123725	7
	24	9	3984.375	3281.346	-896.9626	1	3401.731	-15.28843	1.2689E-007	0.0094415	7
	25	10	3170.956	3335.463	-1054.43	1	3498.161	-17.54315	1.275822E-007	0.0094453	7
	26	10	2527.573	3394.92	-1246.065	1	3616.374	-20.15506	9.59258E-007	0.0101004	7
	27	10	1976.103	3464.898	-1502.217	1	3776.53	-23.43928	-9.957537E-007	0.0112424	7
	28	11	1577.524	3534.333	-1799.59	1	3966.111	-26.98401	7.484731E-007	0.0090787	7
	29	11	1265.625	3614.514	-2146.141	1	4203.646	-30.7	-6.830861E-007	0.0105777	7
	30	11	998.264	3712.541	-2616.361	1	4541.839	-35.17373	-9.931379E-007	0.0112301	7
	31	12	796.875	3822.533	-3176.726	1	4970.246	-39.72837	7.828231E-007	0.0105676	7
	32	12	627.7902	3960.967	-3904.886	1	5562.139	-44.59151	1.035114E-006	0.0093764	7
	33	12	505.5147	4129.692	-4710.405	1	6264.366	-48.7584	-9.950052E-007	0.0112276	7
	34	12	397.9953	4343.394	-5819.471	1	7261.633	-53.26398	2.354887E-009	0.0107756	7
	35	13	315.5048	4619.442	-7147.534	1	8510.376	-57.12547	2.631028E-010	0.0107804	7
	36	13	252.4038	4962.968	-8710.955	1	10025.56	-60.32816	-2.626159E-010	0.0107793	7
	37	13	198.6229	5448.72	-10769.98	1	12069.84	-63.16436	-4.015631E-011	0.0107167	6
	38	14	158.3615	6056.115	-13153.96	1	14481.13	-65.27854	1.363022E-010	0.0107118	6
	39	14	125.558	6883.285	-16116.58	1	17524.95	-66.87299	3.749963E-010	0.0107166	6
	40	14	100.4464	7931.397	-19533.7	1	21082.51	-67.90104	-1.395599E-009	0.0107149	6
	41	15	79.00281	9492.98	-23950.35	1	25763.08	-68.37857	-1.079213E-009	0.0107185	6
	42	15	63.3446	11319.16	-29140.04	1	31261.24	-68.77183	7.086048E-010	0.01071	6
	43	15	49.86702	13965.33	-35303.77	1	37965.59	-68.41743	5.720259E-010	0.010712	6
	44	16	39.72458	17371.49	-41957.09	1	45411.08	-67.50897	-5.082532E-013	0.0107124	6
	45	16	31.6723	21595.06	-49737.43	1	54223.23	-66.53042	-1.381084E-010	0.0107085	6
	46	16	24.93351	27283.45	-59251.26	1	65231.12	-65.27533	9.495731E-010	0.0107091	6
	47	17	19.86229	33917.32	-69289.96	1	77145.86	-63.91833	1.560881E-009	0.01072	6
	48	17	15.83615	42231.29	-80215.65	1	90653.36	-62.23446	-5.941225E-010	0.0107156	6
	49	17	12.40079	52759.14	-93385.86	1	107258.8	-60.53535	-6.335414E-010	0.0107156	5
	50	18	9.93114	63133.78	-106293.3	1	123629	-59.29145	-1.512946E-010	0.0107293	5
	51	18	7.944915	75215.98	-120136.2	1	141739.8	-57.94977	8.510802E-010	0.0107145	5
	52	19	6.317385	88568.5	-136223.1	1	162484.2	-56.96919	5.803057E-010	0.0107107	5
	53	20	5.008013	103280.3	-154501.6	1	185842.8	-56.23829	2.868487E-011	0.0107276	5
	54	21	3.945707	119461.9	-175855	1	212593.8	-55.81093	-2.40624E-010	0.0107239	5
	55	22	3.158693	134638.1	-200086.3	1	241167.9	-56.06337	-4.628916E-010	0.0107146	5
	56	24	2.504006	151707.2	-229888.4	1	275433.7	-56.57851	-1.451292E-010	0.0107088	5
	57	25	1.998082	169070.6	-265477.9	1	314743.4	-57.50882	-9.693592E-011	0.0107408	5
	58	27	1.584686	189436.9	-309375.8	1	362766.8	-58.52004	-3.072156E-010	0.0106931	5
	59	29	1.266892	212027.8	-363030	1	420412.4	-59.71292	1.073563E-009	0.0106761	5
	60	31	0.999041	240060.1	-431779.7	1	494026.9	-60.92689	1.653375E-010	0.0106808	5
