EXPLAIN
TAG	EISPOT
TITLE	LABEL	Potentiostatic EIS	Test &Identifier
DATE	LABEL	10/2/2019	Date
TIME	LABEL	10:16:43	Time
NOTES	NOTES	2	&Notes...
	
	
PSTAT	PSTAT	REF600-11020	Potentiostat
VDC	POTEN	0.00000E+000	T	DC &Voltage (V)
FREQINIT	QUANT	1.00000E+006	Initial Fre&q. (Hz)
FREQFINAL	QUANT	1.00000E+000	Final Fre&q. (Hz)
PTSPERDEC	QUANT	1.00000E+001	Points/&decade
VAC	QUANT	2.50000E+001	AC &Voltage (mV rms)
AREA	QUANT	1.00000E-002	&Area (cm^2)
CONDIT	TWOPARAM	T	5.00000E+000	0.00000E+000	Conditionin&g	Time(s)	E(V)
DELAY	TWOPARAM	T	5.00000E+000	0.00000E+000	Init. De&lay	Time(s)	Stab.(mV/s)
SPEED	SELECTOR	1	&Optimize for:
ZGUESS	QUANT	1.00000E+004	E&stimated Z (ohms)
OCVCURVE	TABLE	19
	Pt	T	Vf	Vm	Ach	Over
	#	s	V vs. Ref.	V	V	bits
	0	0.258333	2.77287E-003	2.77287E-003	5.69766E-004	...........
	1	0.516667	2.76790E-003	2.51230E-003	5.65966E-004	...........
	2	0.775	2.73783E-003	2.29168E-003	5.65166E-004	...........
	3	1.03333	2.65479E-003	2.09741E-003	5.65899E-004	...........
	4	1.29167	2.51123E-003	1.92701E-003	5.65199E-004	...........
	5	1.55	2.32878E-003	1.76140E-003	5.66232E-004	...........
	6	1.80833	2.13717E-003	1.62776E-003	5.67132E-004	...........
	7	2.06667	1.95607E-003	1.50894E-003	5.66366E-004	...........
	8	2.325	1.79343E-003	1.38409E-003	5.61166E-004	...........
	9	2.58333	1.64945E-003	1.28607E-003	5.70832E-004	...........
	10	2.84167	1.52080E-003	1.18573E-003	5.70432E-004	...........
	11	3.1	1.40415E-003	1.09455E-003	5.74299E-004	...........
	12	3.35833	1.29732E-003	1.01548E-003	5.73032E-004	...........
	13	3.61667	1.19903E-003	9.40024E-004	5.73666E-004	...........
	14	3.875	1.10884E-003	8.76094E-004	5.72966E-004	...........
	15	4.13333	1.02599E-003	7.79881E-004	5.70332E-004	...........
	16	4.39167	9.42074E-004	4.12219E-004	5.72399E-004	...........
	17	4.65	8.29673E-004	3.60184E-005	5.72232E-004	...........
	18	4.90833	6.56583E-004	-5.38923E-005	5.66799E-004	...........
EOC	QUANT	0.0006566	Open Circuit (V)
PSTATMODEL	IQUANT	4	Pstat Model
PSTATSECTION	LABEL	REF600-11020	Pstat Section
PSTATSERIALNO	LABEL	11020	Pstat Serial Number
CTRLMODE	IQUANT	1	Control Mode
IESTAB	IQUANT	0	I/E Stability
CASPEED	IQUANT	1	Control Amp Speed
CONVENTION	IQUANT	1	Current Convention
ICHRANGE	IQUANT	2	Ich Range
ICHRANGEMODE	TOGGLE	F	Ich Auto Range
ICHOFFSETENABLE	TOGGLE	T	Ich Offset Enable
ICHOFFSET	QUANT	0	Ich Offset (V)
ICHFILTER	IQUANT	3	Ich Filter
VCHRANGE	IQUANT	2	Vch Range
VCHRANGEMODE	TOGGLE	F	Vch Auto Range
VCHOFFSETENABLE	TOGGLE	T	Vch Offset Enable
VCHOFFSET	QUANT	0	Vch Offset (V)
VCHFILTER	IQUANT	3	Vch Filter
ACHRANGE	IQUANT	2	Ach Range
ACHOFFSETENABLE	TOGGLE	F	Ach Offset Enable
ACHOFFSET	QUANT	0	Ach Offset (V)
ACHFILTER	IQUANT	3	Ach Filter
IERANGELOWERLIMIT	IQUANT	1	I/E Range Lower Limit
IERANGEMODE	TOGGLE	F	I/E AutoRange
IERANGE	IQUANT	5	I/E Range
POSFEEDENABLE	TOGGLE	F	Positive Feedback IR Comp
POSFEEDRESISTANCE	QUANT	0	Positive Feedback Resistance (ohm)
ACHSELECT	IQUANT	0	Ach Select
CABLEID	IQUANT	14	Cable ID
DCCALDATE	LABEL	8/19/2019	DC Calibration Date
ACCALDATE	LABEL	8/19/2019	AC Calibration Date
THERMOSELECT	IQUANT	1	Thermo Select
FRAMEWORKVERSION	QUANT	6.33	Framework Version
INSTRUMENTVERSION	LABEL	3.50	Instrument Version
ZCURVE	TABLE
	Pt	Time	Freq	Zreal	Zimag	Zsig	Zmod	Zphz	Idc	Vdc	IERange
	#	s	Hz	ohm	ohm	V	ohm	°	A	V	#
	0	1	1000078	2266.831	-1384.954	1	2656.43	-31.42347	2.647411E-006	0.002942	8
	1	2	794390.6	2520.598	-1285.424	1	2829.439	-27.02013	-3.319063E-007	0.0026147	8
	2	4	630984.4	2751.897	-1162.185	1	2987.241	-22.89538	1.123992E-006	0.0023379	8
	3	5	501234.4	2931.25	-1029.324	1	3106.724	-19.349	3.420974E-007	0.0025021	8
	4	6	398109.4	3070.252	-901.5126	1	3199.871	-16.36373	-7.650183E-007	0.002508	8
	5	8	316265.6	3171.453	-769.1278	1	3263.383	-13.63196	-2.986414E-006	0.0029695	8
	6	9	251203.1	3264.171	-667.8444	1	3331.791	-11.56305	-1.02403E-006	0.0025932	8
	7	10	199546.9	3318.574	-578.066	1	3368.545	-9.88127	-2.734544E-006	0.0028011	8
	8	12	158578.1	3368.878	-506.9598	1	3406.809	-8.557843	8.186856E-007	0.0021125	8
	9	13	125953.1	3420.364	-412.4162	1	3445.138	-6.875344	6.403358E-007	0.0008736	7
	10	15	100078.1	3448.597	-370.4124	1	3468.433	-6.130612	-3.625261E-008	0.0023901	7
	11	16	79453.13	3477.362	-347.2599	1	3494.658	-5.702822	7.877401E-008	0.0022451	7
	12	17	63140.62	3506.446	-333.3243	1	3522.253	-5.430244	6.117006E-008	0.0021903	7
	13	19	50203.12	3535	-325.7893	1	3549.981	-5.265564	-8.000334E-009	0.0023412	7
	14	20	39890.62	3565.232	-325.7989	1	3580.087	-5.221315	6.307812E-008	0.0021893	7
	15	21	31640.63	3596.71	-334.2981	1	3612.212	-5.31013	-6.289123E-009	0.0023013	7
	16	23	25171.88	3629.204	-349.0651	1	3645.952	-5.493939	3.701206E-008	0.0022494	7
	17	24	20015.62	3664.958	-370.3902	1	3683.626	-5.770867	-6.91423E-009	0.0023364	7
	18	25	15890.62	3705.601	-398.34	1	3726.949	-6.135549	-1.866737E-008	0.0022684	7
	19	27	12609.37	3749.857	-432.762	1	3774.747	-6.583243	1.144726E-007	0.0021323	7
	20	28	10078.13	3796.349	-470.0298	1	3825.336	-7.05793	1.1138E-007	0.0021335	7
	21	29	8015.625	3849.194	-514.9908	1	3883.492	-7.620455	1.921332E-009	0.0022544	7
	22	31	6328.125	3902.192	-570.7341	1	3943.709	-8.321074	-5.359329E-009	0.0023379	7
	23	32	5015.625	3958.482	-634.5588	1	4009.02	-9.107235	4.606954E-008	0.0021579	7
	24	33	3984.375	4014.779	-708.6532	1	4076.842	-10.01023	-5.39841E-009	0.0023383	7
	25	35	3170.956	4070.944	-800.9294	1	4148.985	-11.13038	3.789656E-008	0.0022504	7
	26	36	2527.573	4125.866	-913.654	1	4225.818	-12.48639	-3.002523E-008	0.002295	7
	27	37	1976.103	4186.648	-1069.46	1	4321.084	-14.32951	8.214791E-008	0.0022343	7
	28	39	1577.524	4241.688	-1248.316	1	4421.563	-16.39899	-3.352256E-008	0.0023776	7
	29	40	1265.625	4300.044	-1467.619	1	4543.599	-18.84494	-5.982848E-009	0.0023045	7
	30	41	998.264	4366.769	-1764.154	1	4709.661	-21.99848	-5.013957E-008	0.002371	7
	31	43	796.875	4439.981	-2119.585	1	4919.966	-25.51916	-3.648702E-008	0.0023049	7
	32	44	627.7902	4529.22	-2585.697	1	5215.33	-29.72171	-1.707778E-008	0.0022666	7
	33	46	505.5147	4625.733	-3113.646	1	5576.038	-33.94505	-2.14334E-008	0.0023349	7
	34	47	397.9953	4756.022	-3833.258	1	6108.487	-38.86811	4.159767E-009	0.0023178	7
	35	48	315.5048	4912.581	-4701.558	1	6799.86	-43.7426	4.992198E-009	0.0023187	7
	36	50	252.4038	5102.927	-5728.886	1	7672.027	-48.30739	5.354968E-009	0.0023102	7
	37	51	198.6229	5364.161	-7087.393	1	8888.496	-52.87939	5.487997E-009	0.0023071	7
	38	52	158.3615	5684.999	-8666.512	1	10364.73	-56.7362	5.686684E-010	0.0022443	6
	39	54	125.558	6104.168	-10645.85	1	12271.72	-60.1707	1.114124E-009	0.0022412	6
	40	55	100.4464	6618.651	-12956.94	1	14549.53	-62.9412	2.354299E-010	0.0022462	6
	41	56	79.00281	7345.389	-15991.17	1	17597.51	-65.32878	8.405932E-010	0.0022438	6
	42	58	63.3446	8213.552	-19400.1	1	21067.18	-67.05332	1.097747E-009	0.0022408	6
	43	59	49.86702	9255.758	-23768.2	1	25506.79	-68.72318	4.345253E-010	0.0022404	6
	44	61	39.72458	10646.19	-28848.18	1	30749.94	-69.74382	7.57398E-010	0.0022489	6
	45	62	31.6723	12297.7	-34960.48	1	37060.34	-70.62016	5.95911E-010	0.0022517	6
	46	63	24.93351	14518.93	-42780.02	1	45176.65	-71.25351	4.951414E-010	0.0022442	6
	47	65	19.86229	17128.72	-51811.97	1	54569.9	-71.70643	7.013387E-010	0.0022502	6
	48	66	15.83615	20237.44	-62382.85	1	65583.34	-72.02657	4.30601E-010	0.0022404	6
	49	67	12.40079	24616.81	-76685.71	1	80539.96	-72.2029	3.561439E-010	0.0022417	6
	50	69	9.93114	29736.12	-92047.93	1	96731.9	-72.09693	-1.257411E-010	0.0022488	6
	51	70	7.944915	35886.42	-110505.8	1	116186.8	-72.00896	9.627908E-010	0.0022486	5
	52	72	6.317385	43737.18	-133268	1	140261.5	-71.8307	-9.523106E-010	0.0022607	5
	53	74	5.008013	54262.89	-160585.9	1	169506	-71.3296	5.525685E-010	0.0022526	5
	54	76	3.945707	67143.75	-193912	1	205207.6	-70.90113	4.204967E-010	0.0022451	5
	55	79	3.158693	82640.6	-230888	1	245232	-70.30643	7.851812E-010	0.0022372	5
	56	82	2.504006	102492.5	-276601.1	1	294979.4	-69.66819	2.374271E-010	0.0022565	5
	57	85	1.998082	125720.4	-327937.7	1	351210.4	-69.02484	5.148093E-010	0.0022392	5
	58	88	1.584686	156879.9	-390578	1	420906.7	-68.11659	2.444451E-010	0.0021956	5
	59	91	1.266892	189188.5	-461161.3	1	498459.7	-67.69442	5.110135E-010	0.0022547	5
	60	96	0.999041	237438.1	-548595.8	1	597774.4	-66.59652	3.211189E-010	0.0022295	5
