EXPLAIN
TAG	EISPOT
TITLE	LABEL	Potentiostatic EIS	Test &Identifier
DATE	LABEL	10/2/2019	Date
TIME	LABEL	10:55:46	Time
NOTES	NOTES	2	&Notes...
	
	
PSTAT	PSTAT	REF600-11020	Potentiostat
VDC	POTEN	0.00000E+000	T	DC &Voltage (V)
FREQINIT	QUANT	1.00000E+006	Initial Fre&q. (Hz)
FREQFINAL	QUANT	1.00000E+000	Final Fre&q. (Hz)
PTSPERDEC	QUANT	1.00000E+001	Points/&decade
VAC	QUANT	2.50000E+001	AC &Voltage (mV rms)
AREA	QUANT	1.00000E-002	&Area (cm^2)
CONDIT	TWOPARAM	T	5.00000E+000	0.00000E+000	Conditionin&g	Time(s)	E(V)
DELAY	TWOPARAM	T	5.00000E+000	0.00000E+000	Init. De&lay	Time(s)	Stab.(mV/s)
SPEED	SELECTOR	1	&Optimize for:
ZGUESS	QUANT	1.00000E+004	E&stimated Z (ohms)
OCVCURVE	TABLE	19
	Pt	T	Vf	Vm	Ach	Over
	#	s	V vs. Ref.	V	V	bits
	0	0.258333	7.07243E-003	7.07243E-003	5.67266E-004	...........
	1	0.516667	7.11751E-003	9.43177E-003	5.68632E-004	...........
	2	0.775	7.37637E-003	1.07308E-002	5.69999E-004	...........
	3	1.03333	8.00632E-003	9.73519E-003	5.66499E-004	...........
	4	1.29167	8.84469E-003	9.48445E-003	5.67366E-004	...........
	5	1.55	9.48809E-003	9.45142E-003	5.62799E-004	...........
	6	1.80833	9.71029E-003	8.37106E-003	5.66932E-004	...........
	7	2.06667	9.54026E-003	7.06855E-003	5.67832E-004	...........
	8	2.325	9.04375E-003	6.36065E-003	5.68499E-004	...........
	9	2.58333	8.29768E-003	6.16463E-003	5.59232E-004	...........
	10	2.84167	7.47807E-003	6.00725E-003	5.69966E-004	...........
	11	3.1	6.78700E-003	5.82633E-003	5.68766E-004	...........
	12	3.35833	6.30975E-003	5.45973E-003	5.73732E-004	...........
	13	3.61667	5.99039E-003	5.02112E-003	5.65432E-004	...........
	14	3.875	5.71769E-003	4.66355E-003	5.62299E-004	...........
	15	4.13333	5.42157E-003	4.60336E-003	5.66532E-004	...........
	16	4.39167	5.11641E-003	4.70734E-003	5.66899E-004	...........
	17	4.65	4.87355E-003	4.89032E-003	5.61899E-004	...........
	18	4.90833	4.75038E-003	4.84069E-003	5.66866E-004	...........
EOC	QUANT	0.0047504	Open Circuit (V)
PSTATMODEL	IQUANT	4	Pstat Model
PSTATSECTION	LABEL	REF600-11020	Pstat Section
PSTATSERIALNO	LABEL	11020	Pstat Serial Number
CTRLMODE	IQUANT	1	Control Mode
IESTAB	IQUANT	0	I/E Stability
CASPEED	IQUANT	1	Control Amp Speed
CONVENTION	IQUANT	1	Current Convention
ICHRANGE	IQUANT	2	Ich Range
ICHRANGEMODE	TOGGLE	F	Ich Auto Range
ICHOFFSETENABLE	TOGGLE	T	Ich Offset Enable
ICHOFFSET	QUANT	0	Ich Offset (V)
ICHFILTER	IQUANT	3	Ich Filter
VCHRANGE	IQUANT	2	Vch Range
VCHRANGEMODE	TOGGLE	F	Vch Auto Range
VCHOFFSETENABLE	TOGGLE	T	Vch Offset Enable
VCHOFFSET	QUANT	0	Vch Offset (V)
VCHFILTER	IQUANT	3	Vch Filter
ACHRANGE	IQUANT	2	Ach Range
ACHOFFSETENABLE	TOGGLE	F	Ach Offset Enable
ACHOFFSET	QUANT	0	Ach Offset (V)
ACHFILTER	IQUANT	3	Ach Filter
IERANGELOWERLIMIT	IQUANT	1	I/E Range Lower Limit
IERANGEMODE	TOGGLE	F	I/E AutoRange
IERANGE	IQUANT	5	I/E Range
POSFEEDENABLE	TOGGLE	F	Positive Feedback IR Comp
POSFEEDRESISTANCE	QUANT	0	Positive Feedback Resistance (ohm)
ACHSELECT	IQUANT	0	Ach Select
CABLEID	IQUANT	14	Cable ID
DCCALDATE	LABEL	8/19/2019	DC Calibration Date
ACCALDATE	LABEL	8/19/2019	AC Calibration Date
THERMOSELECT	IQUANT	1	Thermo Select
FRAMEWORKVERSION	QUANT	6.33	Framework Version
INSTRUMENTVERSION	LABEL	3.50	Instrument Version
ZCURVE	TABLE
	Pt	Time	Freq	Zreal	Zimag	Zsig	Zmod	Zphz	Idc	Vdc	IERange
	#	s	Hz	ohm	ohm	V	ohm	°	A	V	#
	0	1	1000078	2354.395	-1743.485	1	2929.661	-36.52082	1.838796E-007	0.0076142	8
	1	3	794390.6	2706.361	-1691.921	1	3191.706	-32.01216	8.401813E-007	0.0066415	8
	2	4	630984.4	3023.761	-1584.415	1	3413.723	-27.654	-1.387358E-006	0.0069926	8
	3	5	501234.4	3289.563	-1443.245	1	3592.24	-23.68872	2.466659E-006	0.0059925	8
	4	7	398109.4	3523.561	-1294.901	1	3753.965	-20.17827	1.883653E-006	0.0059702	8
	5	8	316265.6	3701.012	-1152.107	1	3876.189	-17.29111	-8.186268E-007	0.0064728	8
	6	10	251203.1	3833.03	-1003.264	1	3962.153	-14.66765	-1.292133E-006	0.0066801	8
	7	11	199546.9	3943.641	-871.55	1	4038.8	-12.46213	-2.011252E-006	0.0067323	8
	8	12	158578.1	4033.363	-774.6725	1	4107.083	-10.87218	-2.124081E-006	0.0069413	8
	9	14	125953.1	4119.056	-654.9017	1	4170.793	-9.03402	6.514136E-009	0.005894	7
	10	15	100078.1	4169.852	-592.8731	1	4211.788	-8.092126	8.403409E-008	0.0061561	7
	11	17	79453.13	4220.177	-556.3464	1	4256.69	-7.510004	1.743124E-008	0.0064013	7
	12	18	63140.62	4268.317	-533.5192	1	4301.531	-7.124746	1.858144E-008	0.0064	7
	13	19	50203.12	4316.74	-522.7653	1	4348.279	-6.905001	1.221248E-009	0.0062924	7
	14	21	39890.62	4365.294	-523.772	1	4396.604	-6.841955	4.449432E-008	0.0062577	7
	15	22	31640.63	4415.997	-535.9622	1	4448.403	-6.920048	-4.859961E-008	0.0064204	7
	16	23	25171.88	4468.364	-559.8066	1	4503.294	-7.140938	-7.771607E-008	0.0064199	7
	17	25	20015.62	4526.593	-591.8763	1	4565.125	-7.449467	1.622871E-009	0.0062964	7
	18	26	15890.62	4590.257	-638.1179	1	4634.399	-7.914291	1.912681E-008	0.0063911	7
	19	27	12609.37	4660.864	-695.3697	1	4712.451	-8.485557	-5.858377E-008	0.0064154	7
	20	29	10078.13	4732.083	-760.1461	1	4792.749	-9.12584	-3.752871E-009	0.0062768	7
	21	30	8015.625	4816.265	-839.1746	1	4888.826	-9.88386	-6.317287E-009	0.0062537	7
	22	32	6328.125	4911.906	-935.6605	1	5000.228	-10.78497	1.040228E-007	0.0062086	7
	23	33	5015.625	5015.172	-1046.316	1	5123.156	-11.78458	-6.459501E-009	0.0063244	7
	24	34	3984.375	5128.274	-1169.952	1	5260.036	-12.85137	-5.857753E-008	0.0064131	7
	25	36	3170.956	5246.368	-1312.982	1	5408.17	-14.05053	4.762603E-008	0.006159	7
	26	37	2527.573	5374.138	-1478.515	1	5573.811	-15.38246	-4.270503E-008	0.0063151	7
	27	38	1976.103	5520.168	-1687.846	1	5772.442	-17.00153	-4.954506E-008	0.0064212	7
	28	40	1577.524	5656.123	-1914.05	1	5971.207	-18.69598	-2.816798E-009	0.006277	7
	29	41	1265.625	5794.729	-2186.611	1	6193.557	-20.67374	-5.809451E-008	0.0064154	7
	30	42	998.264	5944.338	-2545.59	1	6466.466	-23.18244	1.056087E-007	0.006204	7
	31	44	796.875	6091.392	-2968.978	1	6776.421	-25.98486	2.997723E-009	0.0062857	7
	32	45	627.7902	6254.259	-3531.069	1	7182.214	-29.44848	-5.833426E-008	0.0064055	7
	33	47	505.5147	6416.534	-4165.879	1	7650.259	-32.9933	4.656476E-008	0.006156	7
	34	48	397.9953	6615.734	-5045.339	1	8320.059	-37.33013	5.262728E-009	0.0063241	7
	35	49	315.5048	6845.166	-6114.827	1	9178.639	-41.7746	5.005148E-009	0.0063193	7
	36	51	252.4038	7113.808	-7387.376	1	10255.71	-46.08077	4.577374E-010	0.0062629	6
	37	52	198.6229	7473.229	-9082.159	1	11761.58	-50.55084	7.304408E-010	0.0062622	6
	38	53	158.3615	7905.596	-11061.35	1	13596.03	-54.44644	7.383899E-010	0.0062576	6
	39	55	125.558	8482.52	-13548.37	1	15984.72	-57.94966	7.172309E-010	0.0062626	6
	40	56	100.4464	9193.706	-16464.81	1	18857.73	-60.82166	6.017585E-010	0.0062637	6
	41	57	79.00281	10225.26	-20285.83	1	22717.2	-63.24919	9.869547E-010	0.0062671	6
	42	59	63.3446	11318.4	-24533.79	1	27018.76	-65.23427	3.601275E-010	0.0062589	6
	43	60	49.86702	13194.69	-30000.79	1	32774.19	-66.25955	5.732028E-010	0.0062585	6
	44	62	39.72458	15258.39	-36374.28	1	39444.98	-67.24278	2.739422E-010	0.0062641	6
	45	63	31.6723	17946.54	-43920.51	1	47445.64	-67.77438	5.595254E-010	0.0062617	6
	46	65	24.93351	21635.68	-53319.09	1	57541.53	-67.9138	3.069914E-010	0.0062589	6
	47	66	19.86229	26099.6	-63881.02	1	69007.05	-67.77676	8.369047E-010	0.0062641	6
	48	67	15.83615	31504.43	-76239.63	1	82492.49	-67.54816	1.130202E-009	0.0062626	6
	49	69	12.40079	39421.68	-91500.63	1	99631.5	-66.69193	4.243299E-010	0.0062678	6
	50	70	9.93114	48246.91	-107479.6	1	117811.8	-65.82499	-1.978374E-010	0.0062701	5
	51	72	7.944915	58582.1	-125878.9	1	138842.9	-65.04346	6.067282E-010	0.0062657	5
	52	73	6.317385	71045.7	-146939.5	1	163213.7	-64.19609	7.564376E-011	0.0062794	5
	53	75	5.008013	85723.46	-171379.3	1	191623	-63.42591	1.539664E-010	0.0062579	5
	54	78	3.945707	102414.9	-200141.5	1	224823.2	-62.90061	5.399019E-010	0.0062705	5
	55	80	3.158693	119903.6	-231289.8	1	260522.2	-62.5972	2.704368E-011	0.0062576	5
	56	84	2.504006	139635.5	-269544.9	1	303566.3	-62.61397	4.783651E-010	0.0062689	5
	57	86	1.998082	160477.6	-313855.8	1	352503.2	-62.91889	2.571912E-010	0.0063015	5
	58	89	1.584686	184045.3	-367949.7	1	411411.8	-63.42617	7.404694E-011	0.0062393	5
	59	93	1.266892	204909.6	-429396	1	475782.4	-64.48932	2.60721E-010	0.0062935	5
	60	97	0.999041	244537.4	-519781.7	1	574431.4	-64.80481	1.378562E-010	0.0062269	5
