EXPLAIN
TAG	EISPOT
TITLE	LABEL	Potentiostatic EIS	Test &Identifier
DATE	LABEL	9/20/2019	Date
TIME	LABEL	12:13:41	Time
NOTES	NOTES	1	&Notes...
	
PSTAT	PSTAT	REF600-11020	Potentiostat
VDC	POTEN	0.00000E+000	T	DC &Voltage (V)
FREQINIT	QUANT	1.00000E+006	Initial Fre&q. (Hz)
FREQFINAL	QUANT	1.00000E+000	Final Fre&q. (Hz)
PTSPERDEC	QUANT	1.00000E+001	Points/&decade
VAC	QUANT	2.50000E+001	AC &Voltage (mV rms)
AREA	QUANT	1.00000E-002	&Area (cm^2)
CONDIT	TWOPARAM	T	5.00000E+000	0.00000E+000	Conditionin&g	Time(s)	E(V)
DELAY	TWOPARAM	T	5.00000E+000	0.00000E+000	Init. De&lay	Time(s)	Stab.(mV/s)
SPEED	SELECTOR	1	&Optimize for:
ZGUESS	QUANT	1.00000E+004	E&stimated Z (ohms)
OCVCURVE	TABLE	19
	Pt	T	Vf	Vm	Ach	Over
	#	s	V vs. Ref.	V	V	bits
	0	0.258333	3.32919E-003	3.32919E-003	5.68799E-004	...........
	1	0.516667	3.32548E-003	3.13537E-003	5.69266E-004	...........
	2	0.775	3.30296E-003	2.96306E-003	5.75165E-004	...........
	3	1.03333	3.24030E-003	2.81398E-003	5.74466E-004	...........
	4	1.29167	3.13106E-003	2.67754E-003	5.73565E-004	...........
	5	1.55	2.99121E-003	2.56011E-003	5.76032E-004	...........
	6	1.80833	2.84374E-003	2.44597E-003	5.72432E-004	...........
	7	2.06667	2.70384E-003	2.34294E-003	5.70766E-004	...........
	8	2.325	2.57669E-003	2.25069E-003	5.68999E-004	...........
	9	2.58333	2.46193E-003	2.16407E-003	5.70466E-004	...........
	10	2.84167	2.35773E-003	2.07900E-003	5.71932E-004	...........
	11	3.1	2.26214E-003	2.00478E-003	5.72632E-004	...........
	12	3.35833	2.17352E-003	1.93354E-003	5.71732E-004	...........
	13	3.61667	2.09103E-003	1.86952E-003	5.74099E-004	...........
	14	3.875	2.01424E-003	1.80053E-003	5.74665E-004	...........
	15	4.13333	1.94236E-003	1.74164E-003	5.72232E-004	...........
	16	4.39167	1.87438E-003	1.68305E-003	5.70832E-004	...........
	17	4.65	1.80978E-003	1.63183E-003	5.74199E-004	...........
	18	4.90833	1.74861E-003	1.57693E-003	5.66866E-004	...........
EOC	QUANT	0.0017486	Open Circuit (V)
PSTATMODEL	IQUANT	4	Pstat Model
PSTATSECTION	LABEL	REF600-11020	Pstat Section
PSTATSERIALNO	LABEL	11020	Pstat Serial Number
CTRLMODE	IQUANT	1	Control Mode
IESTAB	IQUANT	0	I/E Stability
CASPEED	IQUANT	1	Control Amp Speed
CONVENTION	IQUANT	1	Current Convention
ICHRANGE	IQUANT	2	Ich Range
ICHRANGEMODE	TOGGLE	F	Ich Auto Range
ICHOFFSETENABLE	TOGGLE	T	Ich Offset Enable
ICHOFFSET	QUANT	0	Ich Offset (V)
ICHFILTER	IQUANT	3	Ich Filter
VCHRANGE	IQUANT	2	Vch Range
VCHRANGEMODE	TOGGLE	F	Vch Auto Range
VCHOFFSETENABLE	TOGGLE	T	Vch Offset Enable
VCHOFFSET	QUANT	0	Vch Offset (V)
VCHFILTER	IQUANT	3	Vch Filter
ACHRANGE	IQUANT	2	Ach Range
ACHOFFSETENABLE	TOGGLE	F	Ach Offset Enable
ACHOFFSET	QUANT	0	Ach Offset (V)
ACHFILTER	IQUANT	3	Ach Filter
IERANGELOWERLIMIT	IQUANT	1	I/E Range Lower Limit
IERANGEMODE	TOGGLE	F	I/E AutoRange
IERANGE	IQUANT	5	I/E Range
POSFEEDENABLE	TOGGLE	F	Positive Feedback IR Comp
POSFEEDRESISTANCE	QUANT	0	Positive Feedback Resistance (ohm)
ACHSELECT	IQUANT	0	Ach Select
CABLEID	IQUANT	14	Cable ID
DCCALDATE	LABEL	8/19/2019	DC Calibration Date
ACCALDATE	LABEL	8/19/2019	AC Calibration Date
THERMOSELECT	IQUANT	1	Thermo Select
FRAMEWORKVERSION	QUANT	6.33	Framework Version
INSTRUMENTVERSION	LABEL	3.50	Instrument Version
ZCURVE	TABLE
	Pt	Time	Freq	Zreal	Zimag	Zsig	Zmod	Zphz	Idc	Vdc	IERange
	#	s	Hz	ohm	ohm	V	ohm	°	A	V	#
	0	2	1000078	2400.85	-1597.564	1	2883.798	-33.64043	3.724388E-006	0.0039609	8
	1	3	794390.6	2697.805	-1515.412	1	3094.289	-29.32381	-2.501453E-007	0.0036227	8
	2	5	630984.4	2969.722	-1401.381	1	3283.766	-25.26213	4.222315E-006	0.002864	8
	3	6	501234.4	3195.855	-1253.921	1	3433.046	-21.42298	7.338176E-007	0.0032395	8
	4	8	398109.4	3398.789	-1115.294	1	3577.1	-18.16696	-7.69657E-007	0.0037668	8
	5	9	316265.6	3539.436	-957.902	1	3666.768	-15.14359	-1.973566E-006	0.0038208	8
	6	10	251203.1	3644.986	-820.4832	1	3736.19	-12.68579	-1.932043E-007	0.0035562	8
	7	12	199546.9	3716.608	-698.5602	1	3781.688	-10.64491	-2.578366E-007	0.0035546	8
	8	13	158578.1	3790.027	-609.1472	1	3838.667	-9.130703	7.507661E-008	0.0034442	8
	9	14	125953.1	3852.494	-496.2798	1	3884.328	-7.340438	-3.514808E-007	0.0037731	7
	10	16	100078.1	3881.237	-436.125	1	3905.664	-6.411291	-8.90667E-009	0.0034018	7
	11	17	79453.13	3914.537	-401.935	1	3935.118	-5.862445	-5.453948E-008	0.0035162	7
	12	18	63140.62	3944.599	-378.2115	1	3962.689	-5.476826	-4.402552E-008	0.0034346	7
	13	20	50203.12	3972.522	-365.4948	1	3989.301	-5.25674	-7.628385E-009	0.0033676	7
	14	21	39890.62	4002.117	-362.5647	1	4018.507	-5.176478	8.192286E-008	0.0031747	7
	15	22	31640.63	4030.337	-369.2346	1	4047.215	-5.234474	-4.029223E-008	0.0033936	7
	16	24	25171.88	4060.83	-385.8595	1	4079.121	-5.427941	-7.267319E-008	0.0034604	7
	17	25	20015.62	4092.199	-412.6308	1	4112.95	-5.757873	-4.705095E-008	0.0033783	7
	18	27	15890.62	4127.9	-450.4656	1	4152.406	-6.227876	-7.38772E-009	0.0032908	7
	19	28	12609.37	4165.201	-498.3246	1	4194.905	-6.822439	-7.136986E-008	0.0034541	7
	20	29	10078.13	4205.262	-558.037	1	4242.126	-7.558971	-5.759416E-009	0.0033553	7
	21	31	8015.625	4249.046	-632.8817	1	4295.921	-8.471738	-6.229757E-009	0.0034694	7
	22	32	6328.125	4300.765	-728.1937	1	4361.978	-9.61002	8.582811E-008	0.0032901	7
	23	33	5015.625	4357.001	-842.2424	1	4437.661	-10.94077	-3.074248E-008	0.0033453	7
	24	35	3984.375	4417.106	-980.74	1	4524.675	-12.51844	-4.246752E-008	0.0033847	7
	25	36	3170.956	4484.413	-1149.043	1	4629.283	-14.37173	-4.15877E-008	0.0033895	7
	26	37	2527.573	4558.8	-1351.651	1	4754.958	-16.5147	-7.23091E-008	0.0034452	7
	27	39	1976.103	4650.954	-1619.03	1	4924.696	-19.19337	4.048754E-008	0.0032917	7
	28	40	1577.524	4745.08	-1920.604	1	5119.033	-22.03599	4.550853E-008	0.0031931	7
	29	41	1265.625	4850.409	-2279.341	1	5359.278	-25.17012	-5.806276E-009	0.0033839	7
	30	43	998.264	4984.958	-2748.155	1	5692.29	-28.86749	-2.985207E-008	0.0033458	7
	31	44	796.875	5128.229	-3290.084	1	6092.896	-32.68275	8.233386E-008	0.0031662	7
	32	46	627.7902	5306.298	-3995.959	1	6642.626	-36.98193	-4.315615E-009	0.003355	7
	33	47	505.5147	5498.792	-4773.966	1	7281.996	-40.96401	4.270064E-008	0.0032969	7
	34	48	397.9953	5741.341	-5822.796	1	8177.283	-45.40357	5.224873E-009	0.0033534	7
	35	50	315.5048	6018.721	-7075.183	1	9288.876	-49.61283	5.675874E-009	0.0033591	7
	36	51	252.4038	6334.772	-8546.22	1	10638.01	-53.4528	7.43913E-010	0.0032938	6
	37	52	198.6229	6732.026	-10491.96	1	12466.01	-57.31428	1.13598E-009	0.0032918	6
	38	54	158.3615	7179.888	-12762.33	1	14643.36	-60.63858	9.674426E-010	0.0032876	6
	39	55	125.558	7744.97	-15627.68	1	17441.58	-63.6373	1.334322E-009	0.0032894	6
	40	56	100.4464	8415.109	-18999.37	1	20779.56	-66.11072	8.261112E-010	0.0032907	6
	41	58	79.00281	9319.75	-23480.99	1	25262.91	-68.35157	6.843003E-010	0.0032888	6
	42	59	63.3446	10324.56	-28438.07	1	30254.26	-70.04636	1.037088E-009	0.0032862	6
	43	61	49.86702	12027.16	-35446.58	1	37431.44	-71.25773	1.294384E-009	0.0032893	6
	44	62	39.72458	13816.37	-43249.45	1	45402.71	-72.28352	1.025013E-009	0.003292	6
	45	63	31.6723	16284.82	-52627.69	1	55089.64	-72.80613	1.422582E-009	0.0032903	6
	46	65	24.93351	19807.89	-64924.49	1	67878.88	-73.03352	7.873661E-010	0.0032887	6
	47	66	19.86229	24326.52	-78950.33	1	82613.16	-72.87466	1.23451E-009	0.0032874	6
	48	67	15.83615	30327.23	-95498.3	1	100198.1	-72.38181	1.299831E-009	0.0032884	6
	49	69	12.40079	37909.09	-117262	1	123237.5	-72.08474	4.655068E-010	0.0033002	5
	50	70	9.93114	48624.91	-140289.2	1	148477.1	-70.88344	2.962377E-010	0.0032987	5
	51	72	7.944915	61976.91	-167151.3	1	178271.5	-69.65607	7.59498E-010	0.0032906	5
	52	74	6.317385	78984.02	-198841.5	1	213954.3	-68.33599	8.145553E-010	0.0032993	5
	53	76	5.008013	101141	-235583.5	1	256376.8	-66.76511	6.901871E-010	0.0033034	5
	54	78	3.945707	129974.1	-278030.5	1	306910.7	-64.94478	2.369862E-010	0.0032909	5
	55	81	3.158693	162768.1	-321147.7	1	360040.7	-63.12263	3.332254E-010	0.003312	5
	56	84	2.504006	203247.7	-370443.9	1	422538	-61.2482	2.01197E-010	0.003289	5
	57	87	1.998082	248709.5	-422256.3	1	490058	-59.50187	-2.039916E-010	0.0033017	5
	58	90	1.584686	302963.8	-478024.7	1	565945.8	-57.63419	2.353264E-010	0.0033459	5
	59	94	1.266892	358393.6	-541718	1	649541.6	-56.5119	3.956233E-010	0.003301	5
	60	98	0.999041	422240.6	-606603.6	1	739090.7	-55.15925	4.142862E-010	0.0033003	5
