EXPLAIN
TAG	EISPOT
TITLE	LABEL	Potentiostatic EIS	Test &Identifier
DATE	LABEL	11/11/2019	Date
TIME	LABEL	14:11:45	Time
NOTES	NOTES	3	&Notes...
	
	
	
PSTAT	PSTAT	REF600-11020	Potentiostat
VDC	POTEN	0.00000E+000	T	DC &Voltage (V)
FREQINIT	QUANT	1.00000E+006	Initial Fre&q. (Hz)
FREQFINAL	QUANT	1.00000E+000	Final Fre&q. (Hz)
PTSPERDEC	QUANT	1.00000E+001	Points/&decade
VAC	QUANT	2.50000E+001	AC &Voltage (mV rms)
AREA	QUANT	1.00000E-002	&Area (cm^2)
CONDIT	TWOPARAM	T	5.00000E+000	0.00000E+000	Conditionin&g	Time(s)	E(V)
DELAY	TWOPARAM	T	5.00000E+000	0.00000E+000	Init. De&lay	Time(s)	Stab.(mV/s)
SPEED	SELECTOR	1	&Optimize for:
ZGUESS	QUANT	1.00000E+005	E&stimated Z (ohms)
OCVCURVE	TABLE	19
	Pt	T	Vf	Vm	Ach	Over
	#	s	V vs. Ref.	V	V	bits
	0	0.258333	8.00672E-003	8.00672E-003	5.23933E-004	...........
	1	0.516667	8.00212E-003	7.76612E-003	5.20100E-004	...........
	2	0.775	7.97432E-003	7.56004E-003	5.16400E-004	...........
	3	1.03333	7.89755E-003	7.38799E-003	5.24533E-004	...........
	4	1.29167	7.76538E-003	7.24055E-003	5.23766E-004	...........
	5	1.55	7.59937E-003	7.11447E-003	5.25300E-004	...........
	6	1.80833	7.42900E-003	7.00184E-003	5.26066E-004	...........
	7	2.06667	7.27333E-003	6.91618E-003	5.26566E-004	...........
	8	2.325	7.13900E-003	6.83392E-003	5.25533E-004	...........
	9	2.58333	7.02540E-003	6.75692E-003	5.26733E-004	...........
	10	2.84167	6.92859E-003	6.69085E-003	5.25700E-004	...........
	11	3.1	6.84405E-003	6.63217E-003	5.20833E-004	...........
	12	3.35833	6.76886E-003	6.58173E-003	5.25166E-004	...........
	13	3.61667	6.70172E-003	6.53254E-003	5.26466E-004	...........
	14	3.875	6.64181E-003	6.48861E-003	5.28766E-004	...........
	15	4.13333	6.58818E-003	6.45623E-003	5.27533E-004	...........
	16	4.39167	6.54010E-003	6.41466E-003	5.33833E-004	...........
	17	4.65	6.49688E-003	6.38297E-003	5.27533E-004	...........
	18	4.90833	6.45749E-003	6.35298E-003	5.31600E-004	...........
EOC	QUANT	0.0064575	Open Circuit (V)
PSTATMODEL	IQUANT	4	Pstat Model
PSTATSECTION	LABEL	REF600-11020	Pstat Section
PSTATSERIALNO	LABEL	11020	Pstat Serial Number
CTRLMODE	IQUANT	1	Control Mode
IESTAB	IQUANT	0	I/E Stability
CASPEED	IQUANT	1	Control Amp Speed
CONVENTION	IQUANT	1	Current Convention
ICHRANGE	IQUANT	2	Ich Range
ICHRANGEMODE	TOGGLE	F	Ich Auto Range
ICHOFFSETENABLE	TOGGLE	T	Ich Offset Enable
ICHOFFSET	QUANT	0	Ich Offset (V)
ICHFILTER	IQUANT	3	Ich Filter
VCHRANGE	IQUANT	2	Vch Range
VCHRANGEMODE	TOGGLE	F	Vch Auto Range
VCHOFFSETENABLE	TOGGLE	T	Vch Offset Enable
VCHOFFSET	QUANT	0	Vch Offset (V)
VCHFILTER	IQUANT	3	Vch Filter
ACHRANGE	IQUANT	2	Ach Range
ACHOFFSETENABLE	TOGGLE	F	Ach Offset Enable
ACHOFFSET	QUANT	0	Ach Offset (V)
ACHFILTER	IQUANT	3	Ach Filter
IERANGELOWERLIMIT	IQUANT	1	I/E Range Lower Limit
IERANGEMODE	TOGGLE	F	I/E AutoRange
IERANGE	IQUANT	5	I/E Range
POSFEEDENABLE	TOGGLE	F	Positive Feedback IR Comp
POSFEEDRESISTANCE	QUANT	0	Positive Feedback Resistance (ohm)
ACHSELECT	IQUANT	0	Ach Select
CABLEID	IQUANT	14	Cable ID
DCCALDATE	LABEL	8/19/2019	DC Calibration Date
ACCALDATE	LABEL	8/19/2019	AC Calibration Date
THERMOSELECT	IQUANT	1	Thermo Select
FRAMEWORKVERSION	QUANT	6.33	Framework Version
INSTRUMENTVERSION	LABEL	3.50	Instrument Version
ZCURVE	TABLE
	Pt	Time	Freq	Zreal	Zimag	Zsig	Zmod	Zphz	Idc	Vdc	IERange
	#	s	Hz	ohm	ohm	V	ohm	°	A	V	#
	0	1	1000078	2633.814	-1985.363	1	3298.279	-37.0089	-4.15456E-006	0.0093651	8
	1	3	794390.6	3015.334	-1957.367	1	3594.93	-32.98912	2.303265E-006	0.008888	8
	2	4	630984.4	3385.609	-1883.938	1	3874.477	-29.09396	-2.895471E-006	0.0081895	8
	3	5	501234.4	3711.625	-1756.112	1	4106.104	-25.32063	-1.61319E-007	0.0079199	8
	4	7	398109.4	3998.802	-1614.388	1	4312.386	-21.98481	-1.936256E-006	0.0082825	8
	5	8	316265.6	4228.823	-1475.097	1	4478.711	-19.22978	-2.081562E-006	0.008531	8
	6	9	251203.1	4420.352	-1330.268	1	4616.18	-16.74873	-4.924095E-006	0.0088162	8
	7	11	199546.9	4572.835	-1199.621	1	4727.569	-14.69953	-4.824782E-006	0.0088011	8
	8	12	158578.1	4664.454	-1091.527	1	4790.466	-13.17076	2.645869E-008	0.0078356	8
	9	13	125953.1	4837.809	-942.2967	1	4928.724	-11.02193	-1.498343E-006	0.0076632	7
	10	15	100078.1	4928.57	-897.7438	1	5009.666	-10.3233	-1.086308E-006	0.0090044	7
	11	16	79453.13	5007.41	-876.2821	1	5083.505	-9.92608	-1.085396E-006	0.0089993	7
	12	18	63140.62	5091.892	-876.8885	1	5166.846	-9.77122	-8.07478E-007	0.0095382	7
	13	19	50203.12	5177.846	-895.4042	1	5254.696	-9.81112	-1.085583E-006	0.0089921	7
	14	20	39890.62	5272.589	-935.5939	1	5354.954	-10.06211	9.848882E-007	0.0070273	7
	15	22	31640.63	5369.036	-989.739	1	5459.499	-10.44476	7.083551E-007	0.006438	7
	16	23	25171.88	5461.735	-1060.454	1	5563.732	-10.98787	-9.802407E-007	0.0094683	7
	17	24	20015.62	5575.277	-1159.299	1	5694.531	-11.74645	-2.620959E-007	0.0072561	7
	18	26	15890.62	5696.003	-1274.794	1	5836.913	-12.6152	5.297048E-008	0.0089	7
	19	27	12609.37	5827.732	-1418.382	1	5997.855	-13.67897	-1.089029E-006	0.0093049	7
	20	28	10078.13	5988.108	-1571.404	1	6190.86	-14.70406	9.064556E-007	0.0074109	7
	21	30	8015.625	6154.036	-1779.647	1	6406.193	-16.12901	4.454755E-007	0.0065362	7
	22	31	6328.125	6340.19	-2014.367	1	6652.495	-17.62578	-5.694206E-007	0.009466	7
	23	33	5015.625	6556.29	-2285.694	1	6943.294	-19.21989	-1.096518E-006	0.0089986	7
	24	34	3984.375	6801.776	-2596.146	1	7280.394	-20.89118	-9.890808E-007	0.0094839	7
	25	36	3170.956	7081.869	-2965.785	1	7677.809	-22.72324	5.47332E-008	0.0089099	7
	26	37	2527.573	7389.726	-3379.094	1	8125.658	-24.57316	-1.101644E-006	0.0093199	7
	27	38	1976.103	7793.223	-3908.26	1	8718.304	-26.63352	7.506545E-007	0.0078389	7
	28	40	1577.524	8199.107	-4466.997	1	9336.992	-28.58221	1.136751E-007	0.0067765	7
	29	41	1265.625	8674.99	-5040.561	1	10033.08	-30.15852	-4.479515E-008	0.0067023	6
	30	42	998.264	9251.124	-5781.633	1	10909.2	-32.00396	1.084172E-008	0.0060362	6
	31	44	796.875	9846.98	-6573.259	1	11839.38	-33.72471	-4.454154E-008	0.0067025	6
	32	45	627.7902	10556.26	-7504.468	1	12951.9	-35.40911	-1.476059E-007	0.0085257	6
	33	47	505.5147	11225.57	-8474.176	1	14065.03	-37.04914	-1.941619E-007	0.0102366	6
	34	48	397.9953	11984.16	-9727.27	1	15435.02	-39.06544	1.760075E-010	0.0079893	6
	35	49	315.5048	12718.19	-11194.37	1	16943.03	-41.35379	-5.706985E-011	0.0079852	6
	36	51	252.4038	13419.85	-12931.07	1	18636.13	-43.93735	9.273857E-010	0.0079905	6
	37	52	198.6229	14184.22	-15266.99	1	20839.22	-47.10553	-3.075449E-010	0.0079939	6
	38	53	158.3615	14944.68	-18063.41	1	23444.2	-50.3975	-3.419067E-010	0.0079792	6
	39	55	125.558	15810.38	-21659.81	1	26816.32	-53.87277	1.395101E-010	0.0079899	6
	40	56	100.4464	16781.49	-26011.1	1	30954.73	-57.17124	3.264615E-010	0.0079858	6
	41	57	79.00281	18046.1	-31849.6	1	36606.82	-60.46395	9.525439E-010	0.0079869	6
	42	59	63.3446	19804.21	-38495.64	1	43291.12	-62.77629	9.076937E-010	0.0079851	6
	43	60	49.86702	21362.72	-47365.56	1	51960.2	-65.72376	-6.398489E-010	0.0079924	6
	44	62	39.72458	24154.18	-57620.29	1	62478.17	-67.25677	6.159783E-010	0.0079846	6
	45	63	31.6723	27485.38	-70230.2	1	75417.02	-68.62655	-7.935123E-011	0.0079804	6
	46	64	24.93351	32400.13	-86289.46	1	92171.79	-69.41975	-5.342601E-010	0.0079934	6
	47	66	19.86229	38478.55	-104563.7	1	111418.9	-69.79681	4.839463E-010	0.0079882	5
	48	67	15.83615	47320.98	-125952	1	134548.1	-69.40848	-6.739143E-010	0.0079948	5
	49	68	12.40079	57373.45	-154408.7	1	164723.3	-69.61651	2.152066E-010	0.007995	5
	50	70	9.93114	70889.08	-184588.1	1	197732.2	-68.99125	6.203651E-010	0.0079943	5
	51	71	7.944915	88884.3	-218482.8	1	235871.1	-67.86227	-8.724383E-010	0.007994	5
	52	73	6.317385	111090.2	-258872.6	1	281702.1	-66.77435	-2.042661E-010	0.0080028	5
	53	75	5.008013	138924.6	-304823	1	334988.3	-65.49863	-8.417307E-011	0.0079856	5
	54	77	3.945707	172676.2	-357782.8	1	397272.7	-64.23671	2.071927E-010	0.0080036	5
	55	80	3.158693	209381.6	-413606.8	1	463585.2	-63.14994	-5.510508E-011	0.0079784	5
	56	83	2.504006	252722	-478719.9	1	541332.8	-62.16989	2.425167E-010	0.0079889	5
	57	86	1.998082	298590.4	-550156.1	1	625961.6	-61.50965	-5.525013E-012	0.0080329	5
	58	89	1.584686	354039	-638614.6	1	730186.4	-60.99663	4.881274E-011	0.0080255	5
	59	93	1.266892	411472.8	-731963.8	1	839691	-60.65752	-9.61311E-011	0.0080255	5
	60	97	0.999041	473202.2	-859688.9	1	981318	-61.17011	1.052061E-010	0.0079677	5
