EXPLAIN
TAG	EISPOT
TITLE	LABEL	Potentiostatic EIS	Test &Identifier
DATE	LABEL	10/26/2019	Date
TIME	LABEL	10:50:58	Time
NOTES	NOTES	1	&Notes...
	
PSTAT	PSTAT	REF600-11020	Potentiostat
VDC	POTEN	0.00000E+000	T	DC &Voltage (V)
FREQINIT	QUANT	1.00000E+006	Initial Fre&q. (Hz)
FREQFINAL	QUANT	1.00000E+000	Final Fre&q. (Hz)
PTSPERDEC	QUANT	1.00000E+001	Points/&decade
VAC	QUANT	2.50000E+001	AC &Voltage (mV rms)
AREA	QUANT	1.00000E-002	&Area (cm^2)
CONDIT	TWOPARAM	T	5.00000E+000	0.00000E+000	Conditionin&g	Time(s)	E(V)
DELAY	TWOPARAM	T	5.00000E+000	0.00000E+000	Init. De&lay	Time(s)	Stab.(mV/s)
SPEED	SELECTOR	0	&Optimize for:
ZGUESS	QUANT	1.00000E+005	E&stimated Z (ohms)
OCVCURVE	TABLE	19
	Pt	T	Vf	Vm	Ach	Over
	#	s	V vs. Ref.	V	V	bits
	0	0.258333	7.14181E-003	7.14181E-003	5.39933E-004	...........
	1	0.516667	7.14921E-003	7.52935E-003	5.39833E-004	...........
	2	0.775	7.20433E-003	8.40206E-003	5.41966E-004	...........
	3	1.03333	7.39125E-003	9.18269E-003	5.38566E-004	...........
	4	1.29167	7.77298E-003	9.40406E-003	5.38399E-004	...........
	5	1.55	8.30149E-003	9.68370E-003	5.45333E-004	...........
	6	1.80833	8.84260E-003	9.96212E-003	5.41699E-004	...........
	7	2.06667	9.29138E-003	9.96994E-003	5.40066E-004	...........
	8	2.325	9.61498E-003	9.89667E-003	5.37066E-004	...........
	9	2.58333	9.80533E-003	9.45016E-003	5.36999E-004	...........
	10	2.84167	9.85091E-003	9.39774E-003	5.40466E-004	...........
	11	3.1	9.77098E-003	9.56709E-003	5.37433E-004	...........
	12	3.35833	9.64990E-003	9.88040E-003	5.38366E-004	...........
	13	3.61667	9.59531E-003	1.00295E-002	5.37233E-004	...........
	14	3.875	9.65323E-003	1.00209E-002	5.36366E-004	...........
	15	4.13333	9.77497E-003	9.65961E-003	5.38266E-004	...........
	16	4.39167	9.85969E-003	9.43189E-003	5.39599E-004	...........
	17	4.65	9.82413E-003	8.80981E-003	5.37733E-004	...........
	18	4.90833	9.64609E-003	8.85281E-003	5.41566E-004	...........
EOC	QUANT	0.0096461	Open Circuit (V)
PSTATMODEL	IQUANT	4	Pstat Model
PSTATSECTION	LABEL	REF600-11020	Pstat Section
PSTATSERIALNO	LABEL	11020	Pstat Serial Number
CTRLMODE	IQUANT	1	Control Mode
IESTAB	IQUANT	0	I/E Stability
CASPEED	IQUANT	1	Control Amp Speed
CONVENTION	IQUANT	1	Current Convention
ICHRANGE	IQUANT	2	Ich Range
ICHRANGEMODE	TOGGLE	F	Ich Auto Range
ICHOFFSETENABLE	TOGGLE	T	Ich Offset Enable
ICHOFFSET	QUANT	0	Ich Offset (V)
ICHFILTER	IQUANT	3	Ich Filter
VCHRANGE	IQUANT	2	Vch Range
VCHRANGEMODE	TOGGLE	F	Vch Auto Range
VCHOFFSETENABLE	TOGGLE	T	Vch Offset Enable
VCHOFFSET	QUANT	0	Vch Offset (V)
VCHFILTER	IQUANT	3	Vch Filter
ACHRANGE	IQUANT	2	Ach Range
ACHOFFSETENABLE	TOGGLE	F	Ach Offset Enable
ACHOFFSET	QUANT	0	Ach Offset (V)
ACHFILTER	IQUANT	3	Ach Filter
IERANGELOWERLIMIT	IQUANT	1	I/E Range Lower Limit
IERANGEMODE	TOGGLE	F	I/E AutoRange
IERANGE	IQUANT	5	I/E Range
POSFEEDENABLE	TOGGLE	F	Positive Feedback IR Comp
POSFEEDRESISTANCE	QUANT	0	Positive Feedback Resistance (ohm)
ACHSELECT	IQUANT	0	Ach Select
CABLEID	IQUANT	14	Cable ID
DCCALDATE	LABEL	8/19/2019	DC Calibration Date
ACCALDATE	LABEL	8/19/2019	AC Calibration Date
THERMOSELECT	IQUANT	1	Thermo Select
FRAMEWORKVERSION	QUANT	6.33	Framework Version
INSTRUMENTVERSION	LABEL	3.50	Instrument Version
ZCURVE	TABLE
	Pt	Time	Freq	Zreal	Zimag	Zsig	Zmod	Zphz	Idc	Vdc	IERange
	#	s	Hz	ohm	ohm	V	ohm	°	A	V	#
	0	1	1000078	1871.175	-756.2259	1	2018.211	-22.00584	-9.393295E-007	0.0125343	8
	1	1	794390.6	1990.683	-692.2824	1	2107.623	-19.1757	4.675156E-006	0.0107775	8
	2	2	630984.4	2081.638	-620.4141	1	2172.126	-16.59623	2.886009E-006	0.0106995	8
	3	2	501234.4	2158.047	-552.4993	1	2227.649	-14.36032	2.715537E-006	0.0108703	8
	4	2	398109.4	2226.022	-494.7411	1	2280.338	-12.53051	7.580708E-007	0.011275	8
	5	2	316265.6	2273.266	-449.3736	1	2317.256	-11.18192	-3.011783E-007	0.0113249	8
	6	3	251203.1	2312.691	-409.7641	1	2348.711	-10.04743	-1.777586E-006	0.0117011	8
	7	3	199546.9	2357.358	-378.7926	1	2387.597	-9.128553	-4.373738E-007	0.011245	8
	8	3	158578.1	2398.205	-363.1509	1	2425.544	-8.610662	1.5961E-006	0.0109537	8
	9	4	125953.1	2440.251	-323.5345	1	2461.605	-7.552371	1.026158E-006	0.0092978	7
	10	4	100078.1	2475.012	-314.2083	1	2494.877	-7.235123	9.015969E-008	0.0111546	7
	11	4	79453.13	2508.038	-321.1009	1	2528.51	-7.295815	-5.817462E-008	0.0114534	7
	12	5	63140.62	2544.654	-333.8763	1	2566.464	-7.474906	-1.00602E-008	0.0112715	7
	13	5	50203.12	2583.284	-349.3742	1	2606.802	-7.702189	-8.180203E-009	0.0112498	7
	14	5	39890.62	2624.516	-368.9714	1	2650.326	-8.002563	-8.955256E-009	0.0112735	7
	15	6	31640.63	2668.032	-393.1481	1	2696.843	-8.3825	-7.648796E-009	0.0112485	7
	16	6	25171.88	2714.096	-421.572	1	2746.642	-8.829019	5.782742E-008	0.0111625	7
	17	6	20015.62	2764.54	-457.5054	1	2802.141	-9.396748	-5.663193E-008	0.0113579	7
	18	7	15890.62	2816.617	-497.3632	1	2860.193	-10.01416	2.359147E-008	0.0112558	7
	19	7	12609.37	2874.688	-546.0165	1	2926.084	-10.75461	2.516735E-009	0.0113539	7
	20	7	10078.13	2935.549	-598.5911	1	2995.957	-11.52524	5.73367E-008	0.0111577	7
	21	8	8015.625	3003.614	-666.6651	1	3076.709	-12.51418	8.986927E-008	0.0111381	7
	22	8	6328.125	3077.404	-737.6526	1	3164.577	-13.47946	7.210592E-008	0.0112121	7
	23	8	5015.625	3154.091	-821.8114	1	3259.396	-14.60395	-2.454944E-008	0.0112637	7
	24	9	3984.375	3232.994	-918.7537	1	3361.005	-15.86411	9.115853E-008	0.0111361	7
	25	9	3170.956	3314.292	-1037.013	1	3472.741	-17.37445	-1.383393E-008	0.0113111	7
	26	9	2527.573	3395.43	-1178.156	1	3594.023	-19.13589	-5.670696E-008	0.0114364	7
	27	9	1976.103	3485.171	-1367.518	1	3743.865	-21.42414	7.102138E-008	0.0112076	7
	28	10	1577.524	3556.365	-1571.501	1	3888.103	-23.83987	-9.078599E-009	0.0112604	7
	29	10	1265.625	3650.536	-1845.699	1	4090.601	-26.82101	-7.889367E-009	0.0112602	7
	30	10	998.264	3747.918	-2200.622	1	4346.22	-30.41968	4.747616E-008	0.0111906	7
	31	11	796.875	3849.751	-2622.305	1	4658.011	-34.26122	-2.581682E-008	0.0112665	7
	32	11	627.7902	3967.1	-3179.836	1	5084.214	-38.71398	-5.523055E-008	0.0113417	7
	33	11	505.5147	4095.476	-3809.188	1	5593.106	-42.92579	-3.092377E-008	0.0113288	7
	34	12	397.9953	4262.103	-4666.725	1	6320.114	-47.59467	2.775881E-009	0.0112955	7
	35	12	315.5048	4457.391	-5703.766	1	7238.873	-51.99302	1.768325E-009	0.0112931	7
	36	12	252.4038	4687.186	-6932.756	1	8368.562	-55.93766	2.509864E-009	0.0112918	7
	37	13	198.6229	4998.813	-8563.484	1	9915.71	-59.72636	2.039455E-009	0.0112923	7
	38	13	158.3615	5372.48	-10467.1	1	11765.36	-62.8298	-5.968637E-010	0.0112298	6
	39	13	125.558	5865.059	-12861.92	1	14136.05	-65.48692	4.868231E-010	0.011235	6
	40	14	100.4464	6452.883	-15669.79	1	16946.45	-67.61794	-2.463268E-010	0.0112312	6
	41	14	79.00281	7295.813	-19354.5	1	20683.95	-69.34572	4.113638E-010	0.0112337	6
	42	14	63.3446	8489.576	-23703.37	1	25177.82	-70.29456	-3.661988E-010	0.0112272	6
	43	15	49.86702	9849.29	-29202.31	1	30818.55	-71.3619	1.134206E-009	0.0112272	6
	44	15	39.72458	11635.71	-35351.26	1	37216.95	-71.78127	4.231777E-010	0.0112321	6
	45	15	31.6723	13927.05	-42865.51	1	45071.22	-72.00097	3.987879E-010	0.0112326	6
	46	16	24.93351	17282.04	-52621.39	1	55386.63	-71.81866	3.732527E-010	0.0112323	6
	47	16	19.86229	21535.64	-63597.11	1	67144.45	-71.29256	2.321392E-010	0.0112382	6
	48	16	15.83615	27189.27	-75697.48	1	80432.37	-70.24256	2.200609E-009	0.0112355	6
	49	17	12.40079	34618.59	-92376.34	1	98650.1	-69.45621	-1.627208E-009	0.011235	6
	50	17	9.93114	43349.26	-110003.3	1	118236.6	-68.49197	-2.253867E-011	0.0112413	5
	51	18	7.944915	54474.48	-129396.9	1	140396	-67.16952	1.361615E-009	0.011235	5
	52	18	6.317385	69325.32	-152094.6	1	167149	-65.49632	7.870319E-010	0.0112234	5
	53	19	5.008013	87753.66	-177943	1	198404.6	-63.7495	1.062185E-010	0.0112343	5
	54	20	3.945707	110457.9	-206883.4	1	234524.4	-61.90162	-5.827731E-011	0.0112423	5
	55	21	3.158693	135385	-236479.2	1	272491.3	-60.20874	-4.668341E-010	0.0112249	5
	56	23	2.504006	165464.4	-269036.4	1	315846.6	-58.4074	-1.307186E-010	0.0112199	5
	57	24	1.998082	197631.9	-303450.6	1	362133.4	-56.92453	6.215666E-011	0.011259	5
	58	26	1.584686	233059.5	-340339.4	1	412489.6	-55.59723	-1.814673E-010	0.0112217	5
	59	28	1.266892	270326.9	-380673.2	1	466892.6	-54.62035	-2.82729E-010	0.0111915	5
	60	30	0.999041	310352.2	-430385.1	1	530612.7	-54.20449	-3.228422E-010	0.0111883	5
