EXPLAIN
TAG	EISPOT
TITLE	LABEL	Potentiostatic EIS	Test &Identifier
DATE	LABEL	10/8/2019	Date
TIME	LABEL	9:07:59	Time
NOTES	NOTES	2	&Notes...
	
	
PSTAT	PSTAT	REF600-11020	Potentiostat
VDC	POTEN	0.00000E+000	T	DC &Voltage (V)
FREQINIT	QUANT	1.00000E+006	Initial Fre&q. (Hz)
FREQFINAL	QUANT	1.00000E+000	Final Fre&q. (Hz)
PTSPERDEC	QUANT	1.00000E+001	Points/&decade
VAC	QUANT	2.50000E+001	AC &Voltage (mV rms)
AREA	QUANT	1.00000E-002	&Area (cm^2)
CONDIT	TWOPARAM	T	5.00000E+000	0.00000E+000	Conditionin&g	Time(s)	E(V)
DELAY	TWOPARAM	T	5.00000E+000	0.00000E+000	Init. De&lay	Time(s)	Stab.(mV/s)
SPEED	SELECTOR	1	&Optimize for:
ZGUESS	QUANT	1.00000E+004	E&stimated Z (ohms)
OCVCURVE	TABLE	19
	Pt	T	Vf	Vm	Ach	Over
	#	s	V vs. Ref.	V	V	bits
	0	0.258333	6.62136E-003	6.62136E-003	5.77066E-004	...........
	1	0.516667	6.62125E-003	6.61535E-003	5.75666E-004	...........
	2	0.775	6.62093E-003	6.62992E-003	5.79765E-004	...........
	3	1.03333	6.62071E-003	6.61200E-003	5.77466E-004	...........
	4	1.29167	6.62054E-003	6.61585E-003	5.77932E-004	...........
	5	1.55	6.61961E-003	6.61215E-003	5.82099E-004	...........
	6	1.80833	6.61769E-003	6.61509E-003	5.81299E-004	...........
	7	2.06667	6.61613E-003	6.63538E-003	5.78299E-004	...........
	8	2.325	6.61750E-003	6.65904E-003	5.78299E-004	...........
	9	2.58333	6.62449E-003	6.67892E-003	5.77599E-004	...........
	10	2.84167	6.63771E-003	6.68781E-003	5.73866E-004	...........
	11	3.1	6.65506E-003	6.72562E-003	5.76066E-004	...........
	12	3.35833	6.67429E-003	6.73077E-003	5.79732E-004	...........
	13	3.61667	6.69461E-003	6.76954E-003	5.77232E-004	...........
	14	3.875	6.71573E-003	6.77238E-003	5.80099E-004	...........
	15	4.13333	6.73721E-003	6.81305E-003	5.82732E-004	...........
	16	4.39167	6.75929E-003	6.84395E-003	5.75732E-004	...........
	17	4.65	6.78347E-003	6.87524E-003	5.76699E-004	...........
	18	4.90833	6.81084E-003	6.90359E-003	5.71999E-004	...........
EOC	QUANT	0.0068108	Open Circuit (V)
PSTATMODEL	IQUANT	4	Pstat Model
PSTATSECTION	LABEL	REF600-11020	Pstat Section
PSTATSERIALNO	LABEL	11020	Pstat Serial Number
CTRLMODE	IQUANT	1	Control Mode
IESTAB	IQUANT	0	I/E Stability
CASPEED	IQUANT	1	Control Amp Speed
CONVENTION	IQUANT	1	Current Convention
ICHRANGE	IQUANT	2	Ich Range
ICHRANGEMODE	TOGGLE	F	Ich Auto Range
ICHOFFSETENABLE	TOGGLE	T	Ich Offset Enable
ICHOFFSET	QUANT	0	Ich Offset (V)
ICHFILTER	IQUANT	3	Ich Filter
VCHRANGE	IQUANT	2	Vch Range
VCHRANGEMODE	TOGGLE	F	Vch Auto Range
VCHOFFSETENABLE	TOGGLE	T	Vch Offset Enable
VCHOFFSET	QUANT	0	Vch Offset (V)
VCHFILTER	IQUANT	3	Vch Filter
ACHRANGE	IQUANT	2	Ach Range
ACHOFFSETENABLE	TOGGLE	F	Ach Offset Enable
ACHOFFSET	QUANT	0	Ach Offset (V)
ACHFILTER	IQUANT	3	Ach Filter
IERANGELOWERLIMIT	IQUANT	1	I/E Range Lower Limit
IERANGEMODE	TOGGLE	F	I/E AutoRange
IERANGE	IQUANT	6	I/E Range
POSFEEDENABLE	TOGGLE	F	Positive Feedback IR Comp
POSFEEDRESISTANCE	QUANT	0	Positive Feedback Resistance (ohm)
ACHSELECT	IQUANT	0	Ach Select
CABLEID	IQUANT	14	Cable ID
DCCALDATE	LABEL	8/19/2019	DC Calibration Date
ACCALDATE	LABEL	8/19/2019	AC Calibration Date
THERMOSELECT	IQUANT	1	Thermo Select
FRAMEWORKVERSION	QUANT	6.33	Framework Version
INSTRUMENTVERSION	LABEL	3.50	Instrument Version
ZCURVE	TABLE
	Pt	Time	Freq	Zreal	Zimag	Zsig	Zmod	Zphz	Idc	Vdc	IERange
	#	s	Hz	ohm	ohm	V	ohm	°	A	V	#
	0	1	1000078	2444.183	-1431.85	1	2832.707	-30.3626	3.012942E-006	0.0079534	8
	1	3	794390.6	2699.248	-1312.899	1	3001.607	-25.93802	4.32662E-006	0.0077747	8
	2	4	630984.4	2940.839	-1177.088	1	3167.66	-21.81405	-1.804328E-006	0.0086004	8
	3	6	501234.4	3100.988	-1024.64	1	3265.886	-18.28478	1.712146E-006	0.0082822	8
	4	7	398109.4	3224.193	-885.8315	1	3343.668	-15.36268	8.437347E-007	0.008132	8
	5	9	316265.6	3325.423	-761.1039	1	3411.41	-12.89149	3.875637E-006	0.0076135	8
	6	10	251203.1	3408.479	-655.1613	1	3470.874	-10.88041	2.619561E-006	0.0077518	8
	7	11	199546.9	3465.953	-551.756	1	3509.596	-9.045197	2.93673E-006	0.0077464	8
	8	13	158578.1	3500.922	-497.6069	1	3536.109	-8.089604	-7.394404E-008	0.0084299	8
	9	14	125953.1	3556.884	-395.9726	1	3578.857	-6.352337	-5.970674E-007	0.0103528	7
	10	15	100078.1	3572.319	-351.681	1	3589.588	-5.622431	-8.134155E-008	0.0084381	7
	11	17	79453.13	3598.315	-331.9014	1	3613.59	-5.269937	-3.755124E-008	0.0083296	7
	12	18	63140.62	3623.077	-321.8929	1	3637.349	-5.077123	7.889431E-008	0.0081303	7
	13	19	50203.12	3647.102	-319.4485	1	3661.065	-5.005744	6.327187E-008	0.0081948	7
	14	21	39890.62	3672.966	-325.2137	1	3687.335	-5.059919	-8.029298E-008	0.0084305	7
	15	22	31640.63	3699.98	-340.1207	1	3715.58	-5.252155	5.907821E-009	0.0082319	7
	16	23	25171.88	3729.235	-363.839	1	3746.941	-5.572368	4.754473E-008	0.0081514	7
	17	25	20015.62	3760.42	-396.3243	1	3781.248	-6.016399	-4.507564E-008	0.008328	7
	18	26	15890.62	3795.057	-437.6592	1	3820.209	-6.578489	-1.022564E-008	0.0082589	7
	19	28	12609.37	3832.918	-489.8019	1	3864.086	-7.28226	-7.333044E-009	0.0083327	7
	20	29	10078.13	3871.78	-552.6202	1	3911.019	-8.12298	-3.215518E-008	0.0083	7
	21	30	8015.625	3915.053	-627.0791	1	3964.955	-9.099847	-1.227532E-009	0.0083003	7
	22	32	6328.125	3962.807	-730.844	1	4029.636	-10.44941	8.766272E-008	0.0082394	7
	23	33	5015.625	4013.506	-851.2068	1	4102.778	-11.97418	-4.672124E-008	0.0083221	7
	24	34	3984.375	4069.573	-996.244	1	4189.741	-13.75565	9.064519E-009	0.008226	7
	25	36	3170.956	4129.111	-1176.902	1	4293.56	-15.90891	1.361428E-007	0.0080868	7
	26	37	2527.573	4196.08	-1394.281	1	4421.664	-18.3807	-3.696364E-008	0.0083076	7
	27	38	1976.103	4278.651	-1686.837	1	4599.16	-21.51659	-6.423545E-009	0.0083266	7
	28	40	1577.524	4366.885	-2020.938	1	4811.847	-24.8341	-1.609362E-008	0.0082617	7
	29	41	1265.625	4467.333	-2414.353	1	5078.008	-28.38884	-1.381049E-008	0.0084368	7
	30	43	998.264	4594.099	-2932.667	1	5450.347	-32.55233	3.871281E-008	0.008248	7
	31	44	796.875	4737.595	-3533.136	1	5909.979	-36.71432	8.250577E-008	0.0081236	7
	32	45	627.7902	4910.283	-4314.757	1	6536.667	-41.30638	4.00741E-008	0.0082529	7
	33	47	505.5147	5106.232	-5181.829	1	7274.954	-45.421	-6.701578E-009	0.0083274	7
	34	48	397.9953	5351.248	-6351.563	1	8305.312	-49.88557	3.3458E-009	0.0083109	7
	35	49	315.5048	5638.088	-7753.206	1	9586.46	-53.97556	4.321462E-009	0.0083078	7
	36	51	252.4038	5971.037	-9402.647	1	11138.36	-57.58291	2.94449E-010	0.008247	6
	37	52	198.6229	6402.623	-11587.48	1	13238.71	-61.07731	9.83449E-010	0.0082479	6
	38	53	158.3615	6904.813	-14135.81	1	15732.06	-63.96623	3.620052E-010	0.0082448	6
	39	55	125.558	7551.984	-17348.1	1	18920.6	-66.47552	7.516047E-010	0.0082454	6
	40	56	100.4464	8347.92	-21136.3	1	22725.12	-68.44814	1.20785E-009	0.0082463	6
	41	58	79.00281	9399.075	-26129.5	1	27768.56	-70.21577	5.741074E-010	0.0082465	6
	42	59	63.3446	10737.86	-31948.52	1	33704.74	-71.42257	4.626391E-010	0.0082462	6
	43	60	49.86702	12533.5	-39096.89	1	41056.74	-72.22543	2.44248E-010	0.0082448	6
	44	62	39.72458	14925.18	-47851.57	1	50125.18	-72.67699	9.658271E-010	0.0082528	6
	45	63	31.6723	17936.73	-58214	1	60914.66	-72.87504	4.704491E-010	0.0082479	6
	46	64	24.93351	22286.78	-71420.75	1	74817.27	-72.66952	1.937685E-010	0.0082484	6
	47	66	19.86229	27823.77	-86470.65	1	90836.86	-72.16331	9.441227E-010	0.0082515	6
	48	67	15.83615	34850.04	-104709.2	1	110356.4	-71.59117	-7.321936E-010	0.0082532	5
	49	68	12.40079	44924.08	-127355.6	1	135046.8	-70.56995	3.445629E-010	0.0082581	5
	50	70	9.93114	56801.64	-150950.3	1	161283.7	-69.37901	-1.625946E-010	0.0082567	5
	51	71	7.944915	71886.27	-178559.9	1	192487.1	-68.07082	5.079263E-010	0.0082488	5
	52	73	6.317385	91755.12	-210491.4	1	229620.6	-66.44717	6.027835E-010	0.0082375	5
	53	75	5.008013	116723.4	-246921.6	1	273120.2	-64.69923	-8.106338E-011	0.0082513	5
	54	78	3.945707	147959.1	-287975.5	1	323762	-62.80633	1.436839E-010	0.0082583	5
	55	80	3.158693	182122.5	-329921	1	376850.7	-61.10049	-1.778785E-010	0.0082389	5
	56	84	2.504006	223658	-377294.1	1	438604.2	-59.34076	5.137496E-010	0.0082573	5
	57	86	1.998082	269414.3	-426268.2	1	504270.4	-57.70588	1.179161E-010	0.0082921	5
	58	89	1.584686	319392.6	-481723.5	1	577987.2	-56.45481	2.156255E-010	0.0082487	5
	59	93	1.266892	373995.7	-540563	1	657328.8	-55.32206	4.249476E-011	0.0082934	5
	60	97	0.999041	433973.7	-611158.8	1	749565.3	-54.62207	7.901852E-011	0.0082092	5
