EXPLAIN
TAG	EISPOT
TITLE	LABEL	Potentiostatic EIS	Test &Identifier
DATE	LABEL	10/16/2019	Date
TIME	LABEL	9:00:52	Time
NOTES	NOTES	1	&Notes...
	
PSTAT	PSTAT	REF600-11020	Potentiostat
VDC	POTEN	0.00000E+000	T	DC &Voltage (V)
FREQINIT	QUANT	1.00000E+006	Initial Fre&q. (Hz)
FREQFINAL	QUANT	1.00000E+000	Final Fre&q. (Hz)
PTSPERDEC	QUANT	1.00000E+001	Points/&decade
VAC	QUANT	2.50000E+001	AC &Voltage (mV rms)
AREA	QUANT	1.00000E-002	&Area (cm^2)
CONDIT	TWOPARAM	T	5.00000E+000	0.00000E+000	Conditionin&g	Time(s)	E(V)
DELAY	TWOPARAM	T	5.00000E+000	0.00000E+000	Init. De&lay	Time(s)	Stab.(mV/s)
SPEED	SELECTOR	0	&Optimize for:
ZGUESS	QUANT	1.00000E+005	E&stimated Z (ohms)
OCVCURVE	TABLE	19
	Pt	T	Vf	Vm	Ach	Over
	#	s	V vs. Ref.	V	V	bits
	0	0.258333	7.15334E-003	7.15334E-003	5.34833E-004	...........
	1	0.516667	7.15540E-003	7.26122E-003	5.30200E-004	...........
	2	0.775	7.16823E-003	7.37279E-003	5.33100E-004	...........
	3	1.03333	7.20557E-003	7.50294E-003	5.27600E-004	...........
	4	1.29167	7.27534E-003	7.62287E-003	5.24766E-004	...........
	5	1.55	7.37389E-003	7.77176E-003	5.28033E-004	...........
	6	1.80833	7.49184E-003	7.90192E-003	5.27300E-004	...........
	7	2.06667	7.62067E-003	8.02534E-003	5.28433E-004	...........
	8	2.325	7.75399E-003	8.17209E-003	5.27766E-004	...........
	9	2.58333	7.88814E-003	8.30070E-003	5.30700E-004	...........
	10	2.84167	8.02151E-003	8.39016E-003	5.31066E-004	...........
	11	3.1	8.15037E-003	8.46939E-003	5.23633E-004	...........
	12	3.35833	8.27085E-003	8.68824E-003	5.25033E-004	...........
	13	3.61667	8.38674E-003	8.72086E-003	5.28000E-004	...........
	14	3.875	8.50236E-003	8.76801E-003	5.29466E-004	...........
	15	4.13333	8.61049E-003	8.86652E-003	5.24166E-004	...........
	16	4.39167	8.70341E-003	8.97204E-003	5.29100E-004	...........
	17	4.65	8.78711E-003	9.07871E-003	5.30066E-004	...........
	18	4.90833	8.87357E-003	9.18563E-003	5.30166E-004	...........
EOC	QUANT	0.0088736	Open Circuit (V)
PSTATMODEL	IQUANT	4	Pstat Model
PSTATSECTION	LABEL	REF600-11020	Pstat Section
PSTATSERIALNO	LABEL	11020	Pstat Serial Number
CTRLMODE	IQUANT	1	Control Mode
IESTAB	IQUANT	0	I/E Stability
CASPEED	IQUANT	1	Control Amp Speed
CONVENTION	IQUANT	1	Current Convention
ICHRANGE	IQUANT	2	Ich Range
ICHRANGEMODE	TOGGLE	F	Ich Auto Range
ICHOFFSETENABLE	TOGGLE	T	Ich Offset Enable
ICHOFFSET	QUANT	0	Ich Offset (V)
ICHFILTER	IQUANT	3	Ich Filter
VCHRANGE	IQUANT	2	Vch Range
VCHRANGEMODE	TOGGLE	F	Vch Auto Range
VCHOFFSETENABLE	TOGGLE	T	Vch Offset Enable
VCHOFFSET	QUANT	0	Vch Offset (V)
VCHFILTER	IQUANT	3	Vch Filter
ACHRANGE	IQUANT	2	Ach Range
ACHOFFSETENABLE	TOGGLE	F	Ach Offset Enable
ACHOFFSET	QUANT	0	Ach Offset (V)
ACHFILTER	IQUANT	3	Ach Filter
IERANGELOWERLIMIT	IQUANT	1	I/E Range Lower Limit
IERANGEMODE	TOGGLE	F	I/E AutoRange
IERANGE	IQUANT	5	I/E Range
POSFEEDENABLE	TOGGLE	F	Positive Feedback IR Comp
POSFEEDRESISTANCE	QUANT	0	Positive Feedback Resistance (ohm)
ACHSELECT	IQUANT	0	Ach Select
CABLEID	IQUANT	14	Cable ID
DCCALDATE	LABEL	8/19/2019	DC Calibration Date
ACCALDATE	LABEL	8/19/2019	AC Calibration Date
THERMOSELECT	IQUANT	1	Thermo Select
FRAMEWORKVERSION	QUANT	6.33	Framework Version
INSTRUMENTVERSION	LABEL	3.50	Instrument Version
ZCURVE	TABLE
	Pt	Time	Freq	Zreal	Zimag	Zsig	Zmod	Zphz	Idc	Vdc	IERange
	#	s	Hz	ohm	ohm	V	ohm	°	A	V	#
	0	1	1000078	2284.956	-1190.503	1	2576.494	-27.52033	5.800742E-006	0.0102735	8
	1	1	794390.6	2496.096	-1101.971	1	2728.522	-23.82041	-1.732057E-006	0.0106728	8
	2	1	630984.4	2671.693	-975.204	1	2844.111	-20.05278	1.095773E-006	0.0104981	8
	3	2	501234.4	2811.893	-859.0168	1	2940.179	-16.9876	-1.849401E-006	0.010772	8
	4	2	398109.4	2909.109	-739.9932	1	3001.75	-14.27171	-3.061205E-006	0.0109486	8
	5	2	316265.6	2990.014	-638	1	3057.324	-12.04496	-2.947626E-006	0.0109111	8
	6	3	251203.1	3042.489	-538.8873	1	3089.844	-10.04409	3.601116E-006	0.0095928	8
	7	3	199546.9	3103.579	-476.618	1	3139.963	-8.730729	-1.836549E-006	0.010813	8
	8	3	158578.1	3131.864	-428.6863	1	3161.067	-7.794151	-2.990265E-006	0.010889	8
	9	4	125953.1	3182.042	-351.1006	1	3201.353	-6.296442	-1.821747E-007	0.0104882	7
	10	4	100078.1	3202.155	-312.6286	1	3217.379	-5.576155	-3.512275E-008	0.0103878	7
	11	4	79453.13	3227.577	-304.6472	1	3241.922	-5.392106	3.318502E-008	0.010199	7
	12	5	63140.62	3251.463	-303.6465	1	3265.61	-5.335245	7.840884E-009	0.0103776	7
	13	5	50203.12	3279.019	-308.8973	1	3293.536	-5.38162	-2.252105E-008	0.0102889	7
	14	5	39890.62	3306.365	-320.3052	1	3321.844	-5.533281	-3.180511E-008	0.010299	7
	15	6	31640.63	3336.952	-339.6116	1	3354.189	-5.811154	9.591227E-008	0.0101511	7
	16	6	25171.88	3369.195	-365.4322	1	3388.955	-6.190259	-8.801996E-009	0.0102883	7
	17	6	20015.62	3402.749	-397.7905	1	3425.921	-6.667766	7.361172E-009	0.0103744	7
	18	6	15890.62	3440.455	-441.6448	1	3468.686	-7.314949	3.460391E-008	0.0101892	7
	19	7	12609.37	3481.015	-495.3954	1	3516.089	-8.099573	9.441363E-008	0.0101546	7
	20	7	10078.13	3523.173	-556.4727	1	3566.848	-8.975518	-5.071791E-009	0.0103333	7
	21	7	8015.625	3571.529	-621.3252	1	3625.171	-9.86876	6.152478E-008	0.0101697	7
	22	8	6328.125	3619.937	-726.9898	1	3692.216	-11.35562	-8.292546E-009	0.0103324	7
	23	8	5015.625	3676.478	-844.2913	1	3772.177	-12.93354	6.087156E-008	0.0101642	7
	24	8	3984.375	3733.012	-983.638	1	3860.43	-14.76174	-7.378356E-009	0.0102821	7
	25	9	3170.956	3798.894	-1155.034	1	3970.604	-16.91162	3.564314E-008	0.0101804	7
	26	9	2527.573	3867.558	-1362.069	1	4100.395	-19.40115	7.722846E-008	0.0102293	7
	27	9	1976.103	3951.074	-1639.303	1	4277.651	-22.53359	-2.858436E-008	0.0102948	7
	28	10	1577.524	4050.198	-1962.097	1	4500.436	-25.84762	-3.183169E-008	0.0103669	7
	29	10	1265.625	4127.094	-2326.135	1	4737.489	-29.40671	-5.292518E-008	0.0103811	7
	30	10	998.264	4239.703	-2821.259	1	5092.601	-33.6413	-5.197836E-008	0.0103818	7
	31	11	796.875	4361.771	-3404.448	1	5533.11	-37.97274	-1.305882E-008	0.0103221	7
	32	11	627.7902	4514.708	-4165.617	1	6142.878	-42.69702	-2.157665E-008	0.0102803	7
	33	11	505.5147	4675.848	-5027.152	1	6865.552	-47.07353	-1.287616E-008	0.0103205	7
	34	12	397.9953	4899.191	-6192.473	1	7896.125	-51.65062	2.105361E-009	0.0103094	7
	35	12	315.5048	5168.918	-7598.761	1	9190.151	-55.77522	2.497778E-009	0.0103075	7
	36	12	252.4038	5502.153	-9261.363	1	10772.49	-59.28556	9.138639E-010	0.0102444	6
	37	13	198.6229	5958.467	-11460.36	1	12916.78	-62.52919	5.101308E-010	0.0102463	6
	38	13	158.3615	6519.42	-14013.88	1	15456.12	-65.0516	-2.686618E-010	0.0102444	6
	39	13	125.558	7283.517	-17221.79	1	18698.66	-67.07531	3.80373E-010	0.0102431	6
	40	14	100.4464	8226.475	-20953.33	1	22510.38	-68.56457	-4.829924E-010	0.0102446	6
	41	14	79.00281	9598.5	-25825.56	1	27551.6	-69.61156	7.12146E-010	0.0102452	6
	42	14	63.3446	11579.81	-31493.59	1	33555	-69.81214	-2.643277E-010	0.010242	6
	43	15	49.86702	13904.12	-38571.88	1	41001.39	-70.17713	-1.804124E-010	0.0102403	6
	44	15	39.72458	16931.13	-46398.71	1	49391.33	-69.95271	-2.604998E-010	0.0102434	6
	45	15	31.6723	20943.18	-55712.51	1	59518.91	-69.39799	1.985399E-010	0.0102427	6
	46	16	24.93351	26615.24	-67404.16	1	72468.56	-68.4529	-1.122085E-009	0.0102399	6
	47	16	19.86229	33642.12	-80170.8	1	86943.38	-67.23559	-1.910577E-009	0.0102449	6
	48	16	15.83615	42160.15	-94744.84	1	103701.8	-66.0116	-7.868407E-010	0.0102408	6
	49	16	12.40079	53905.86	-110676	1	123105.8	-64.03114	-2.722191E-009	0.01025	5
	50	17	9.93114	67577.66	-128352.4	1	145055.5	-62.23316	-1.030099E-009	0.0102502	5
	51	17	7.944915	83146.84	-147115.5	1	168986.3	-60.5257	-3.069481E-010	0.01024	5
	52	18	6.317385	101521.2	-167486.5	1	195852.7	-58.77805	-5.924275E-010	0.0102566	5
	53	19	5.008013	122272.6	-189892.4	1	225853.3	-57.22233	-5.965257E-010	0.0102414	5
	54	20	3.945707	145800.5	-214642.9	1	259479	-55.81291	-1.778094E-010	0.0102384	5
	55	21	3.158693	168747.3	-240957.2	1	294170.1	-54.99565	-7.447237E-013	0.0102565	5
	56	23	2.504006	194464.1	-271765.3	1	334174.5	-54.41404	-3.153351E-010	0.0102485	5
	57	24	1.998082	219870.7	-307314.5	1	377869.5	-54.41786	-3.040662E-010	0.0102257	5
	58	26	1.584686	248565	-349871.4	1	429178.9	-54.60823	-1.037433E-010	0.0102765	5
	59	28	1.266892	278883.4	-401337.4	1	488720.5	-55.20514	-6.64139E-011	0.0102804	5
	60	30	0.999041	313709.6	-467559.3	1	563050.1	-56.14031	-4.979511E-011	0.0102732	5
