EXPLAIN
TAG	EISPOT
TITLE	LABEL	Potentiostatic IDE	Test &Identifier
DATE	LABEL	9/16/2019	Date
TIME	LABEL	8:11:16	Time
NOTES	NOTES	1	&Notes...
	
PSTAT	PSTAT	REF600-11020	Potentiostat
VDC	POTEN	0.00000E+000	T	DC &Voltage (V)
FREQINIT	QUANT	1.00000E+006	Initial Fre&q. (Hz)
FREQFINAL	QUANT	1.00000E+000	Final Fre&q. (Hz)
PTSPERDEC	QUANT	1.00000E+001	Points/&decade
VAC	QUANT	2.50000E+001	AC &Voltage (mV rms)
AREA	QUANT	1.00000E-002	&Area (cm^2)
CONDIT	TWOPARAM	T	5.00000E+000	0.00000E+000	Conditionin&g	Time(s)	E(V)
DELAY	TWOPARAM	T	5.00000E+000	0.00000E+000	Init. De&lay	Time(s)	Stab.(mV/s)
SPEED	SELECTOR	1	&Optimize for:
ZGUESS	QUANT	1.00000E+007	E&stimated Z (ohms)
OCVCURVE	TABLE	19
	Pt	T	Vf	Vm	Ach	Over
	#	s	V vs. Ref.	V	V	bits
	0	0.258333	-6.40285E-003	-6.40285E-003	5.47433E-004	...........
	1	0.516667	-6.41606E-003	-7.09437E-003	5.41433E-004	...........
	2	0.775	-6.49701E-003	-7.74066E-003	5.41799E-004	...........
	3	1.03333	-6.72526E-003	-8.35305E-003	5.43399E-004	...........
	4	1.29167	-7.13148E-003	-8.92110E-003	5.45099E-004	...........
	5	1.55	-7.66743E-003	-9.46733E-003	5.46299E-004	...........
	6	1.80833	-8.25571E-003	-9.98697E-003	5.52232E-004	...........
	7	2.06667	-8.84088E-003	-1.04813E-002	5.53499E-004	...........
	8	2.325	-9.39925E-003	-1.09492E-002	5.54033E-004	...........
	9	2.58333	-9.92791E-003	-1.14786E-002	5.50899E-004	...........
	10	2.84167	-1.04412E-002	-1.22688E-002	5.44733E-004	...........
	11	3.1	-1.09712E-002	-1.28498E-002	5.52733E-004	...........
	12	3.35833	-1.15387E-002	-1.31052E-002	5.45133E-004	...........
	13	3.61667	-1.21045E-002	-1.30851E-002	5.51366E-004	...........
	14	3.875	-1.25844E-002	-1.33943E-002	5.47299E-004	...........
	15	4.13333	-1.29360E-002	-1.38340E-002	5.42499E-004	...........
	16	4.39167	-1.32121E-002	-1.43577E-002	5.42466E-004	...........
	17	4.65	-1.35062E-002	-1.47926E-002	5.49233E-004	...........
	18	4.90833	-1.38688E-002	-1.52041E-002	5.50333E-004	...........
EOC	QUANT	-0.0138688	Open Circuit (V)
PSTATMODEL	IQUANT	4	Pstat Model
PSTATSECTION	LABEL	REF600-11020	Pstat Section
PSTATSERIALNO	LABEL	11020	Pstat Serial Number
CTRLMODE	IQUANT	1	Control Mode
IESTAB	IQUANT	0	I/E Stability
CASPEED	IQUANT	1	Control Amp Speed
CONVENTION	IQUANT	1	Current Convention
ICHRANGE	IQUANT	2	Ich Range
ICHRANGEMODE	TOGGLE	F	Ich Auto Range
ICHOFFSETENABLE	TOGGLE	T	Ich Offset Enable
ICHOFFSET	QUANT	0	Ich Offset (V)
ICHFILTER	IQUANT	3	Ich Filter
VCHRANGE	IQUANT	2	Vch Range
VCHRANGEMODE	TOGGLE	F	Vch Auto Range
VCHOFFSETENABLE	TOGGLE	T	Vch Offset Enable
VCHOFFSET	QUANT	0	Vch Offset (V)
VCHFILTER	IQUANT	3	Vch Filter
ACHRANGE	IQUANT	2	Ach Range
ACHOFFSETENABLE	TOGGLE	F	Ach Offset Enable
ACHOFFSET	QUANT	0	Ach Offset (V)
ACHFILTER	IQUANT	3	Ach Filter
IERANGELOWERLIMIT	IQUANT	1	I/E Range Lower Limit
IERANGEMODE	TOGGLE	F	I/E AutoRange
IERANGE	IQUANT	3	I/E Range
POSFEEDENABLE	TOGGLE	F	Positive Feedback IR Comp
POSFEEDRESISTANCE	QUANT	0	Positive Feedback Resistance (ohm)
ACHSELECT	IQUANT	0	Ach Select
CABLEID	IQUANT	14	Cable ID
DCCALDATE	LABEL	8/19/2019	DC Calibration Date
ACCALDATE	LABEL	8/19/2019	AC Calibration Date
THERMOSELECT	IQUANT	1	Thermo Select
FRAMEWORKVERSION	QUANT	6.33	Framework Version
INSTRUMENTVERSION	LABEL	3.50	Instrument Version
ZCURVE	TABLE
	Pt	Time	Freq	Zreal	Zimag	Zsig	Zmod	Zphz	Idc	Vdc	IERange
	#	s	Hz	ohm	ohm	V	ohm	°	A	V	#
	0	2	1000078	2259.74	-1842.943	1	2915.966	-39.19915	-5.209292E-007	-0.0108872	8
	1	3	794390.6	2635.24	-1854.52	1	3222.381	-35.13553	-6.693869E-007	-0.0114626	8
	2	5	630984.4	2993.342	-1769.347	1	3477.166	-30.58708	1.697238E-007	-0.0116338	8
	3	6	501234.4	3314.058	-1668.78	1	3710.5	-26.72735	-7.847851E-007	-0.011696	8
	4	7	398109.4	3618.241	-1529.091	1	3928.076	-22.90922	2.956438E-006	-0.0126636	8
	5	9	316265.6	3858.526	-1364.77	1	4092.777	-19.47881	3.853151E-007	-0.0123211	8
	6	10	251203.1	4052.631	-1206.321	1	4228.36	-16.57636	5.52811E-007	-0.0123403	8
	7	12	199546.9	4189.58	-1044.531	1	4317.827	-13.99938	-4.606938E-006	-0.011123	8
	8	13	158578.1	4309.718	-925.4995	1	4407.973	-12.12003	8.301425E-007	-0.0123063	8
	9	15	125953.1	4425.961	-745.6392	1	4488.331	-9.56279	8.619163E-007	-0.0134839	7
	10	16	100078.1	4483.932	-658.0608	1	4531.963	-8.349113	7.728943E-008	-0.0122367	7
	11	17	79453.13	4540.606	-592.8206	1	4579.142	-7.43845	-3.669171E-008	-0.0121617	7
	12	19	63140.62	4589.241	-544.8673	1	4621.473	-6.770867	-7.597134E-009	-0.0121708	7
	13	20	50203.12	4632.938	-510.9311	1	4661.026	-6.293279	-5.321125E-010	-0.0122615	7
	14	21	39890.62	4674.684	-490.1331	1	4700.308	-5.985501	8.828E-008	-0.0123901	7
	15	23	31640.63	4713.821	-482.0781	1	4738.408	-5.839285	8.956297E-008	-0.0123972	7
	16	24	25171.88	4752.577	-489.4804	1	4777.717	-5.88031	-1.50881E-009	-0.0122692	7
	17	25	20015.62	4793.785	-507.5567	1	4820.58	-6.04385	1.375836E-007	-0.0124164	7
	18	27	15890.62	4833.95	-537.2353	1	4863.712	-6.341711	-4.079073E-008	-0.0121855	7
	19	28	12609.37	4879.344	-586.2114	1	4914.432	-6.850762	-9.806103E-010	-0.0122721	7
	20	29	10078.13	4925.531	-645.0566	1	4967.59	-7.461099	-1.379486E-008	-0.0120728	7
	21	31	8015.625	4973.692	-723.4369	1	5026.029	-8.275789	-4.077041E-008	-0.0120762	7
	22	32	6328.125	5028.543	-825.785	1	5095.897	-9.325848	-1.510378E-009	-0.0122726	7
	23	33	5015.625	5087.678	-954.859	1	5176.506	-10.62965	4.124702E-008	-0.0122612	7
	24	35	3984.375	5151.988	-1111.563	1	5270.537	-12.17517	-4.360783E-009	-0.0121951	7
	25	36	3170.956	5224.979	-1301.447	1	5384.624	-13.98671	1.390994E-007	-0.0124162	7
	26	37	2527.573	5304.85	-1534.773	1	5522.405	-16.13595	8.225729E-008	-0.0122414	7
	27	39	1976.103	5403.65	-1849.461	1	5711.387	-18.8941	-1.527632E-008	-0.0120887	7
	28	40	1577.524	5508.319	-2198.795	1	5930.959	-21.76075	-4.296447E-008	-0.0120779	7
	29	41	1265.625	5617.338	-2646.61	1	6209.592	-25.22748	-4.731305E-008	-0.0121189	7
	30	43	998.264	5778.403	-3158.657	1	6585.367	-28.66241	4.58485E-008	-0.0123568	7
	31	44	796.875	5942.522	-3794.974	1	7050.915	-32.56284	-1.212293E-008	-0.0121701	7
	32	45	627.7902	6146.305	-4608.582	1	7682.193	-36.86305	8.91058E-008	-0.0123983	7
	33	47	505.5147	6365.847	-5516.637	1	8423.615	-40.91217	-4.407815E-009	-0.0121726	7
	34	48	397.9953	6655.437	-6741.309	1	9473.124	-45.36725	6.976484E-009	-0.0121937	7
	35	49	315.5048	6993.426	-8203.211	1	10779.64	-49.55164	2.62056E-009	-0.0122583	6
	36	51	252.4038	7379.896	-9926.19	1	12369	-53.37003	2.038044E-009	-0.0122645	6
	37	52	198.6229	7894.598	-12202.16	1	14533.32	-57.09779	2.748912E-009	-0.0122623	6
	38	53	158.3615	8499.43	-14846.59	1	17107.35	-60.20957	2.874376E-009	-0.0122681	6
	39	55	125.558	9294.393	-18173.47	1	20412.27	-62.91359	2.800646E-009	-0.0122622	6
	40	56	100.4464	10279.76	-22102.53	1	24376.12	-65.05713	2.661376E-009	-0.0122653	6
	41	57	79.00281	11629.28	-27163.34	1	29548.04	-66.82306	2.32277E-009	-0.0122655	6
	42	59	63.3446	13163.5	-33152.59	1	35670.32	-68.34405	3.137979E-009	-0.0122663	6
	43	60	49.86702	15773.75	-40159.09	1	43145.85	-68.55602	1.976892E-009	-0.012264	6
	44	61	39.72458	18867.51	-48958.8	1	52468.54	-68.92457	3.109458E-009	-0.012259	6
	45	63	31.6723	22911.96	-58808.23	1	63113.91	-68.71388	2.129145E-009	-0.0122632	6
	46	64	24.93351	28601.4	-71490.66	1	76999.7	-68.19504	2.674242E-009	-0.0122629	6
	47	65	19.86229	35583.77	-85222.83	1	92353.32	-67.33761	2.238622E-009	-0.012263	6
	48	67	15.83615	44664.08	-101933.3	1	111289.2	-66.33843	3.520582E-009	-0.0122653	5
	49	68	12.40079	57515.86	-120375.6	1	133410.5	-64.46136	1.170609E-009	-0.0122554	5
	50	70	9.93114	70954.45	-140513.9	1	157412.5	-63.20787	1.67457E-009	-0.0122543	5
	51	71	7.944915	87986.93	-161207.8	1	183656.4	-61.37437	1.395381E-009	-0.0122613	5
	52	73	6.317385	108894.7	-186061	1	215584.7	-59.66113	1.544517E-009	-0.0122584	5
	53	75	5.008013	134256.1	-212704.3	1	251530.9	-57.74042	1.565357E-009	-0.0122657	5
	54	77	3.945707	164233.1	-241219.5	1	291820.8	-55.75121	2.001222E-009	-0.012253	5
	55	80	3.158693	196330.5	-269547.1	1	333468.6	-53.93147	2.048991E-009	-0.0122364	5
	56	83	2.504006	234119.1	-301599.5	1	381803.6	-52.17931	1.25011E-009	-0.0122583	5
	57	86	1.998082	274582	-332893.8	1	431524.7	-50.48304	1.632666E-009	-0.0122999	5
	58	89	1.584686	317589.7	-366007.2	1	484586.9	-49.05135	1.621153E-009	-0.0122577	5
	59	93	1.266892	363220.2	-400161.1	1	540423.7	-47.77045	1.878776E-009	-0.0123065	5
	60	97	0.999041	417973.4	-442567.2	1	608742.6	-46.63704	1.821789E-009	-0.0122176	5
