EXPLAIN
TAG	EISPOT
TITLE	LABEL	Potentiostatic IDE	Test &Identifier
DATE	LABEL	9/12/2019	Date
TIME	LABEL	10:27:23	Time
NOTES	NOTES	1	&Notes...
	
PSTAT	PSTAT	REF600-11020	Potentiostat
VDC	POTEN	0.00000E+000	T	DC &Voltage (V)
FREQINIT	QUANT	1.00000E+006	Initial Fre&q. (Hz)
FREQFINAL	QUANT	1.00000E+000	Final Fre&q. (Hz)
PTSPERDEC	QUANT	1.00000E+001	Points/&decade
VAC	QUANT	2.50000E+001	AC &Voltage (mV rms)
AREA	QUANT	1.00000E-002	&Area (cm^2)
CONDIT	TWOPARAM	T	5.00000E+000	0.00000E+000	Conditionin&g	Time(s)	E(V)
DELAY	TWOPARAM	T	5.00000E+000	0.00000E+000	Init. De&lay	Time(s)	Stab.(mV/s)
SPEED	SELECTOR	1	&Optimize for:
ZGUESS	QUANT	1.00000E+007	E&stimated Z (ohms)
OCVCURVE	TABLE	19
	Pt	T	Vf	Vm	Ach	Over
	#	s	V vs. Ref.	V	V	bits
	0	0.258333	3.96677E-003	3.96677E-003	4.77134E-004	...........
	1	0.516667	3.96239E-003	3.73746E-003	4.69534E-004	...........
	2	0.775	3.93578E-003	3.53538E-003	4.72667E-004	...........
	3	1.03333	3.86178E-003	3.35735E-003	4.70967E-004	...........
	4	1.29167	3.73289E-003	3.20214E-003	4.70734E-004	...........
	5	1.55	3.56805E-003	3.05623E-003	4.70534E-004	...........
	6	1.80833	3.39420E-003	2.92222E-003	4.71067E-004	...........
	7	2.06667	3.22891E-003	2.80446E-003	4.72700E-004	...........
	8	2.325	3.07845E-003	2.69608E-003	4.74600E-004	...........
	9	2.58333	2.94302E-003	2.58988E-003	4.68601E-004	...........
	10	2.84167	2.82028E-003	2.48689E-003	4.79500E-004	...........
	11	3.1	2.70687E-003	2.38588E-003	4.70834E-004	...........
	12	3.35833	2.59978E-003	2.29958E-003	4.72634E-004	...........
	13	3.61667	2.49761E-003	2.20991E-003	4.80300E-004	...........
	14	3.875	2.40030E-003	2.12497E-003	4.73600E-004	...........
	15	4.13333	2.30772E-003	2.04616E-003	4.76367E-004	...........
	16	4.39167	2.21949E-003	1.97239E-003	4.75200E-004	...........
	17	4.65	2.13545E-003	1.89670E-003	4.68601E-004	...........
	18	4.90833	2.05539E-003	1.82716E-003	4.69367E-004	...........
EOC	QUANT	0.0020554	Open Circuit (V)
PSTATMODEL	IQUANT	4	Pstat Model
PSTATSECTION	LABEL	REF600-11020	Pstat Section
PSTATSERIALNO	LABEL	11020	Pstat Serial Number
CTRLMODE	IQUANT	1	Control Mode
IESTAB	IQUANT	0	I/E Stability
CASPEED	IQUANT	1	Control Amp Speed
CONVENTION	IQUANT	1	Current Convention
ICHRANGE	IQUANT	2	Ich Range
ICHRANGEMODE	TOGGLE	F	Ich Auto Range
ICHOFFSETENABLE	TOGGLE	T	Ich Offset Enable
ICHOFFSET	QUANT	0	Ich Offset (V)
ICHFILTER	IQUANT	3	Ich Filter
VCHRANGE	IQUANT	2	Vch Range
VCHRANGEMODE	TOGGLE	F	Vch Auto Range
VCHOFFSETENABLE	TOGGLE	T	Vch Offset Enable
VCHOFFSET	QUANT	0	Vch Offset (V)
VCHFILTER	IQUANT	3	Vch Filter
ACHRANGE	IQUANT	2	Ach Range
ACHOFFSETENABLE	TOGGLE	F	Ach Offset Enable
ACHOFFSET	QUANT	0	Ach Offset (V)
ACHFILTER	IQUANT	3	Ach Filter
IERANGELOWERLIMIT	IQUANT	1	I/E Range Lower Limit
IERANGEMODE	TOGGLE	F	I/E AutoRange
IERANGE	IQUANT	2	I/E Range
POSFEEDENABLE	TOGGLE	F	Positive Feedback IR Comp
POSFEEDRESISTANCE	QUANT	0	Positive Feedback Resistance (ohm)
ACHSELECT	IQUANT	0	Ach Select
CABLEID	IQUANT	14	Cable ID
DCCALDATE	LABEL	8/19/2019	DC Calibration Date
ACCALDATE	LABEL	8/19/2019	AC Calibration Date
THERMOSELECT	IQUANT	1	Thermo Select
FRAMEWORKVERSION	QUANT	6.33	Framework Version
INSTRUMENTVERSION	LABEL	3.50	Instrument Version
ZCURVE	TABLE
	Pt	Time	Freq	Zreal	Zimag	Zsig	Zmod	Zphz	Idc	Vdc	IERange
	#	s	Hz	ohm	ohm	V	ohm	°	A	V	#
	0	2	1000078	2523.236	-1861.113	1	3135.356	-36.41211	6.579699E-006	0.0030945	8
	1	4	794390.6	2906.765	-1794.199	1	3415.909	-31.68493	3.555208E-006	0.0029373	8
	2	5	630984.4	3231.002	-1646.938	1	3626.538	-27.0093	-6.869094E-006	0.0052383	8
	3	7	501234.4	3520.179	-1507.847	1	3829.525	-23.18758	3.983785E-008	0.0039335	8
	4	8	398109.4	3740.557	-1321.018	1	3966.971	-19.45122	2.558594E-007	0.0036559	8
	5	10	316265.6	3922.5	-1147.519	1	4086.906	-16.30673	3.589289E-007	0.0035286	8
	6	11	251203.1	4064.644	-994.634	1	4184.57	-13.75029	4.498399E-006	0.0028123	8
	7	13	199546.9	4167.348	-866.7646	1	4256.533	-11.74941	4.575555E-007	0.0034311	8
	8	14	158578.1	4241.269	-725.2413	1	4302.829	-9.70352	-3.530648E-006	0.0043542	8
	9	16	125953.1	4322.679	-593.3628	1	4363.214	-7.815995	-5.687815E-007	0.0048813	7
	10	17	100078.1	4360.317	-533.2681	1	4392.805	-6.972665	-2.314614E-008	0.0036018	7
	11	18	79453.13	4398.989	-492.8539	1	4426.512	-6.392644	-6.258866E-010	0.003542	7
	12	20	63140.62	4436.22	-467.7168	1	4460.808	-6.018538	-4.117983E-008	0.003746	7
	13	21	50203.12	4471.35	-455.0456	1	4494.445	-5.810938	5.060141E-008	0.0034516	7
	14	22	39890.62	4502.029	-446.7654	1	4524.142	-5.667275	8.312147E-008	0.0034621	7
	15	24	31640.63	4542.808	-465.9512	1	4566.642	-5.856291	-1.092259E-008	0.0036509	7
	16	25	25171.88	4581.726	-491.0651	1	4607.967	-6.117555	-4.189711E-008	0.0036556	7
	17	26	20015.62	4624.28	-526.4235	1	4654.147	-6.494536	3.851981E-010	0.0035415	7
	18	28	15890.62	4673.518	-579.0283	1	4709.25	-7.062705	1.463113E-007	0.0033937	7
	19	29	12609.37	4718.011	-640.9407	1	4761.348	-7.73626	-1.918467E-008	0.0037603	7
	20	30	10078.13	4768.849	-720.8477	1	4823.022	-8.59562	-1.055067E-008	0.0036565	7
	21	32	8015.625	4829.386	-819.0709	1	4898.352	-9.62585	-4.553669E-008	0.0036368	7
	22	33	6328.125	4898.023	-944.5204	1	4988.261	-10.91477	7.645338E-008	0.003576	7
	23	34	5015.625	4971.785	-1092.815	1	5090.47	-12.39667	9.330726E-008	0.0034118	7
	24	36	3984.375	5055.216	-1273.11	1	5213.062	-14.13547	-5.137437E-009	0.0036309	7
	25	37	3170.956	5146.681	-1488.344	1	5357.564	-16.12909	-1.177113E-008	0.0036318	7
	26	38	2527.573	5247.889	-1744.301	1	5530.184	-18.38585	-4.879027E-008	0.0036256	7
	27	40	1976.103	5374.11	-2088.277	1	5765.584	-21.23518	-5.861816E-008	0.0037057	7
	28	41	1577.524	5500.372	-2466.436	1	6028.051	-24.15206	-4.093918E-008	0.0037326	7
	29	42	1265.625	5641.927	-2912.298	1	6349.237	-27.30226	8.151981E-008	0.0034473	7
	30	44	998.264	5816.875	-3499.184	1	6788.249	-31.02932	-9.915355E-009	0.0036397	7
	31	45	796.875	6003.622	-4181.412	1	7316.261	-34.8565	-4.108499E-008	0.0037399	7
	32	46	627.7902	6228.309	-5066.087	1	8028.516	-39.1248	-3.420181E-008	0.0036021	7
	33	48	505.5147	6450.29	-6047.119	1	8841.6	-43.15226	-2.060439E-008	0.003749	7
	34	49	397.9953	6764.87	-7368.324	1	10002.78	-47.44491	1.331667E-009	0.0035532	6
	35	50	315.5048	7104.323	-8960.396	1	11435.04	-51.59057	7.270436E-010	0.0035492	6
	36	52	252.4038	7486.459	-10833.68	1	13168.74	-55.35415	1.761266E-009	0.0035507	6
	37	53	198.6229	7977.099	-13315.23	1	15521.9	-59.07435	9.922489E-010	0.0035461	6
	38	54	158.3615	8537.019	-16213.5	1	18323.71	-62.2315	1.613717E-009	0.0035465	6
	39	56	125.558	9235.494	-19861.84	1	21904.04	-65.06219	1.265548E-009	0.0035465	6
	40	57	100.4464	10046.77	-24194.85	1	26197.87	-67.44962	1.302713E-009	0.0035466	6
	41	58	79.00281	11242.91	-29886.29	1	31931.07	-69.38423	1.127046E-009	0.0035442	6
	42	60	63.3446	12099.4	-36320.66	1	38282.97	-71.57568	4.485735E-010	0.0035394	6
	43	61	49.86702	14451.62	-44749.63	1	47025.3	-72.10246	4.009069E-010	0.0035374	6
	44	62	39.72458	16414.5	-55057.34	1	57452.12	-73.39886	7.341569E-010	0.0035419	6
	45	64	31.6723	19453.16	-67034.98	1	69800.52	-73.81758	1.590906E-009	0.0035432	6
	46	65	24.93351	23490.05	-83002.89	1	86262.75	-74.19833	7.47245E-010	0.0035417	6
	47	66	19.86229	28600.81	-101365.1	1	105322.8	-74.24325	6.581469E-010	0.0035393	6
	48	68	15.83615	36014.98	-122712.3	1	127888.1	-73.64349	1.707278E-010	0.0035462	5
	49	69	12.40079	46014.09	-151554.7	1	158386	-73.11098	-1.55849E-010	0.0035518	5
	50	70	9.93114	57365.07	-182244.8	1	191060	-72.5276	4.892791E-010	0.0035435	5
	51	72	7.944915	73251.95	-218701.9	1	230643.4	-71.48226	4.802954E-010	0.0035525	5
	52	74	6.317385	93021.76	-262238.3	1	278248.1	-70.46928	4.241762E-011	0.0035562	5
	53	76	5.008013	120389.9	-313376.8	1	335706.3	-68.98474	3.649154E-010	0.0035474	5
	54	78	3.945707	156451.5	-373850.1	1	405266.6	-67.29131	2.279097E-010	0.0035406	5
	55	81	3.158693	198726.7	-436927.9	1	479998.3	-65.54267	4.508759E-010	0.0035643	5
	56	84	2.504006	254012.8	-511025.2	1	570674.4	-63.56963	-9.532861E-011	0.0035473	5
	57	87	1.998082	318598.9	-586940.2	1	667835.4	-61.5063	1.743957E-010	0.0035115	5
	58	90	1.584686	396168	-670616.8	1	778894.1	-59.42746	6.38455E-011	0.0035448	5
	59	93	1.266892	485077	-754987.5	1	897388.4	-57.27938	2.368027E-010	0.0034996	5
	60	98	0.999041	589646.3	-849401.2	1	1034004	-55.23199	5.895621E-011	0.0035818	4
