EXPLAIN
TAG	EISPOT
TITLE	LABEL	Potentiostatic EIS	Test &Identifier
DATE	LABEL	11/7/2019	Date
TIME	LABEL	10:04:48	Time
NOTES	NOTES	2	&Notes...
	
	
PSTAT	PSTAT	REF600-11020	Potentiostat
VDC	POTEN	0.00000E+000	T	DC &Voltage (V)
FREQINIT	QUANT	1.00000E+006	Initial Fre&q. (Hz)
FREQFINAL	QUANT	1.00000E+000	Final Fre&q. (Hz)
PTSPERDEC	QUANT	1.00000E+001	Points/&decade
VAC	QUANT	2.50000E+001	AC &Voltage (mV rms)
AREA	QUANT	1.00000E-002	&Area (cm^2)
CONDIT	TWOPARAM	T	5.00000E+000	0.00000E+000	Conditionin&g	Time(s)	E(V)
DELAY	TWOPARAM	T	5.00000E+000	0.00000E+000	Init. De&lay	Time(s)	Stab.(mV/s)
SPEED	SELECTOR	1	&Optimize for:
ZGUESS	QUANT	1.00000E+005	E&stimated Z (ohms)
OCVCURVE	TABLE	19
	Pt	T	Vf	Vm	Ach	Over
	#	s	V vs. Ref.	V	V	bits
	0	0.258333	5.62464E-003	5.62464E-003	5.31800E-004	...........
	1	0.516667	5.59607E-003	4.12918E-003	5.35699E-004	...........
	2	0.775	5.46350E-003	4.95478E-003	5.39666E-004	...........
	3	1.03333	5.20275E-003	4.27522E-003	5.40299E-004	...........
	4	1.29167	4.90041E-003	4.20219E-003	5.40466E-004	...........
	5	1.55	4.64310E-003	4.44566E-003	5.35133E-004	...........
	6	1.80833	4.46384E-003	4.40716E-003	5.32600E-004	...........
	7	2.06667	4.36806E-003	3.95304E-003	5.34166E-004	...........
	8	2.325	4.30524E-003	3.69785E-003	5.33900E-004	...........
	9	2.58333	4.20037E-003	3.87736E-003	5.31200E-004	...........
	10	2.84167	4.05478E-003	4.00460E-003	5.35233E-004	...........
	11	3.1	3.92729E-003	3.19259E-003	5.33933E-004	...........
	12	3.35833	3.80371E-003	2.62408E-003	5.34633E-004	...........
	13	3.61667	3.59824E-003	2.91075E-003	5.40599E-004	...........
	14	3.875	3.25466E-003	-7.39346E-005	5.40033E-004	...........
	15	4.13333	2.69909E-003	-4.32103E-004	5.41166E-004	...........
	16	4.39167	1.90397E-003	1.40178E-003	5.38433E-004	...........
	17	4.65	1.13073E-003	9.73831E-004	5.34400E-004	...........
	18	4.90833	7.35551E-004	1.24090E-003	5.35533E-004	...........
EOC	QUANT	0.0007356	Open Circuit (V)
PSTATMODEL	IQUANT	4	Pstat Model
PSTATSECTION	LABEL	REF600-11020	Pstat Section
PSTATSERIALNO	LABEL	11020	Pstat Serial Number
CTRLMODE	IQUANT	1	Control Mode
IESTAB	IQUANT	0	I/E Stability
CASPEED	IQUANT	1	Control Amp Speed
CONVENTION	IQUANT	1	Current Convention
ICHRANGE	IQUANT	2	Ich Range
ICHRANGEMODE	TOGGLE	F	Ich Auto Range
ICHOFFSETENABLE	TOGGLE	T	Ich Offset Enable
ICHOFFSET	QUANT	0	Ich Offset (V)
ICHFILTER	IQUANT	3	Ich Filter
VCHRANGE	IQUANT	2	Vch Range
VCHRANGEMODE	TOGGLE	F	Vch Auto Range
VCHOFFSETENABLE	TOGGLE	T	Vch Offset Enable
VCHOFFSET	QUANT	0	Vch Offset (V)
VCHFILTER	IQUANT	3	Vch Filter
ACHRANGE	IQUANT	2	Ach Range
ACHOFFSETENABLE	TOGGLE	F	Ach Offset Enable
ACHOFFSET	QUANT	0	Ach Offset (V)
ACHFILTER	IQUANT	3	Ach Filter
IERANGELOWERLIMIT	IQUANT	1	I/E Range Lower Limit
IERANGEMODE	TOGGLE	F	I/E AutoRange
IERANGE	IQUANT	4	I/E Range
POSFEEDENABLE	TOGGLE	F	Positive Feedback IR Comp
POSFEEDRESISTANCE	QUANT	0	Positive Feedback Resistance (ohm)
ACHSELECT	IQUANT	0	Ach Select
CABLEID	IQUANT	14	Cable ID
DCCALDATE	LABEL	8/19/2019	DC Calibration Date
ACCALDATE	LABEL	8/19/2019	AC Calibration Date
THERMOSELECT	IQUANT	1	Thermo Select
FRAMEWORKVERSION	QUANT	6.33	Framework Version
INSTRUMENTVERSION	LABEL	3.50	Instrument Version
ZCURVE	TABLE
	Pt	Time	Freq	Zreal	Zimag	Zsig	Zmod	Zphz	Idc	Vdc	IERange
	#	s	Hz	ohm	ohm	V	ohm	°	A	V	#
	0	2	1000078	2140.477	-1389.048	1	2551.685	-32.98129	2.994194E-006	0.003159	8
	1	3	794390.6	2439.928	-1321.523	1	2774.829	-28.44102	-2.330209E-006	0.0033076	8
	2	5	630984.4	2668.422	-1230.615	1	2938.518	-24.75806	8.517709E-006	0.0010355	8
	3	6	501234.4	2866.779	-1139.507	1	3084.947	-21.67718	-3.246488E-006	0.0021361	8
	4	8	398109.4	3033.228	-1031.173	1	3203.715	-18.77593	2.561317E-006	0.002702	8
	5	9	316265.6	3164.295	-912.5515	1	3293.253	-16.08704	2.925447E-006	0.0016197	8
	6	11	251203.1	3270.94	-830.9696	1	3374.843	-14.25422	-8.86939E-007	0.0019736	8
	7	12	199546.9	3365.824	-759.0345	1	3450.349	-12.70831	-2.837497E-006	0.0022243	8
	8	14	158578.1	3453.817	-714.016	1	3526.85	-11.68035	-3.384509E-007	0.0020284	8
	9	16	125953.1	3538.346	-595.9435	1	3588.181	-9.56028	6.796005E-007	0.0047684	7
	10	17	100078.1	3573.809	-570.5942	1	3619.073	-9.07128	-1.394813E-006	0.0039511	7
	11	18	79453.13	3645.204	-561.369	1	3688.177	-8.754888	9.425058E-007	0.0020219	7
	12	20	63140.62	3704.923	-567.878	1	3748.191	-8.714282	8.818131E-007	0.0002612	7
	13	21	50203.12	3763.755	-580.9103	1	3808.321	-8.773985	1.110738E-006	0.0003539	7
	14	22	39890.62	3820.651	-603.4327	1	3868.011	-8.975142	-1.243637E-006	0.0041141	7
	15	24	31640.63	3888.412	-636.5022	1	3940.162	-9.296418	-3.230417E-007	0.0038051	7
	16	25	25171.88	3958.551	-681.4535	1	4016.778	-9.76757	1.330486E-007	0.0007099	7
	17	27	20015.62	4035.597	-730.7895	1	4101.231	-10.26422	1.254358E-006	0.0009682	7
	18	28	15890.62	4112.726	-807.8551	1	4191.318	-11.11302	9.508382E-007	0.0020096	7
	19	29	12609.37	4195.408	-887.0229	1	4288.153	-11.93807	1.235255E-006	0.0005972	7
	20	31	10078.13	4284.332	-978.994	1	4394.761	-12.87142	8.698138E-008	0.0033548	7
	21	32	8015.625	4392.677	-1100.263	1	4528.376	-14.06194	1.251315E-006	0.0009668	7
	22	33	6328.125	4492.084	-1231.854	1	4657.927	-15.3351	-1.186641E-006	0.0028432	7
	23	35	5015.625	4613.24	-1393.564	1	4819.128	-16.80847	1.237323E-006	0.0005889	7
	24	36	3984.375	4731.879	-1584.656	1	4990.171	-18.51515	-1.386598E-006	0.0034988	7
	25	37	3170.956	4859.042	-1815.132	1	5187.003	-20.48355	1.322657E-007	0.000708	7
	26	39	2527.573	4995.678	-2091.722	1	5415.912	-22.71937	8.852605E-007	0.0002399	7
	27	40	1976.103	5139.756	-2456.279	1	5696.525	-25.54304	-7.003322E-007	0.0040715	7
	28	42	1577.524	5293.708	-2877.137	1	6025.052	-28.52414	1.25488E-006	0.0009572	7
	29	43	1265.625	5464.671	-3394.852	1	6433.323	-31.85005	5.529949E-007	0.0003647	7
	30	45	998.264	5650.775	-4039.583	1	6946.185	-35.55993	-1.188305E-006	0.0028451	7
	31	46	796.875	5852.693	-4824.019	1	7584.536	-39.49668	1.237548E-006	0.0005847	7
	32	48	627.7902	6094.388	-5838.615	1	8439.846	-43.7721	4.516215E-007	0.0028489	7
	33	49	505.5147	6369.792	-7006.151	1	9468.918	-47.72379	5.463563E-007	0.0003654	7
	34	51	397.9953	6716.917	-8539.387	1	10864.53	-51.8121	3.099198E-009	0.0022858	7
	35	52	315.5048	7136.27	-10397.04	1	12610.5	-55.53526	-3.975698E-011	0.0022259	6
	36	53	252.4038	7627.542	-12587.3	1	14718	-58.78534	2.049408E-009	0.0022137	6
	37	55	198.6229	8275.512	-15466.91	1	17541.65	-61.85117	7.609596E-010	0.0022266	6
	38	56	158.3615	9051.707	-18816.85	1	20880.79	-64.31046	1.689613E-009	0.0022106	6
	39	57	125.558	10031.54	-23007.03	1	25098.91	-66.44181	9.26946E-010	0.0022273	6
	40	59	100.4464	11282.05	-27931.1	1	30123.59	-68.00501	1.320559E-009	0.0022124	6
	41	60	79.00281	12857.41	-34265.3	1	36598.13	-69.43235	-6.557365E-010	0.0022203	6
	42	62	63.3446	15343.25	-41238.2	1	44000.05	-69.59157	1.435573E-009	0.0022149	6
	43	63	49.86702	17650.28	-51659.45	1	54591.5	-71.13644	6.552396E-010	0.0022222	6
	44	64	39.72458	21201.25	-62281.44	1	65791.12	-71.2009	5.366685E-010	0.0022258	6
	45	66	31.6723	25794.34	-75617.85	1	79896.23	-71.16475	7.327624E-010	0.0022241	6
	46	67	24.93351	32485.01	-91879.04	1	97452.7	-70.5283	-1.205531E-010	0.002219	6
	47	69	19.86229	41137.79	-110187.7	1	117616.5	-69.52724	2.19248E-010	0.0022167	5
	48	70	15.83615	52932.76	-133135.8	1	143272.6	-68.31799	2.068181E-009	0.0022138	5
	49	71	12.40079	69321.15	-158607.5	1	173094.6	-66.39173	2.224683E-009	0.0022156	5
	50	73	9.93114	85188.77	-186323	1	204874.1	-65.42964	1.816374E-010	0.0022181	5
	51	74	7.944915	107522.5	-217190.3	1	242348.3	-63.66178	2.014512E-010	0.0022156	5
	52	76	6.317385	135023.3	-248546.5	1	282854.5	-61.4869	-2.535532E-010	0.0022249	5
	53	78	5.008013	168503.9	-283496.8	1	329793.9	-59.27374	-1.869686E-010	0.0022085	5
	54	81	3.945707	206941.6	-323825.4	1	384301.6	-57.41927	2.01045E-010	0.0022234	5
	55	83	3.158693	248060.9	-360222.4	1	437372.2	-55.44743	2.642262E-011	0.0022133	5
	56	87	2.504006	293254.9	-401740.5	1	497387.1	-53.87201	8.227662E-010	0.0022262	5
	57	89	1.998082	340006.1	-446820.8	1	561473.9	-52.73086	2.548085E-010	0.0022361	5
	58	92	1.584686	389060.7	-498728.8	1	632533.5	-52.04203	-2.800435E-011	0.0021739	5
	59	96	1.266892	438772.9	-556747.8	1	708865.1	-51.75836	3.018545E-010	0.002221	5
	60	100	0.999041	495209.4	-632402.9	1	803222.1	-51.93693	-9.889878E-011	0.0022074	5
