EXPLAIN
TAG	EISPOT
TITLE	LABEL	Potentiostatic EIS	Test &Identifier
DATE	LABEL	11/12/2019	Date
TIME	LABEL	23:30:28	Time
NOTES	NOTES	3	&Notes...
	
	
	
PSTAT	PSTAT	REF600-11020	Potentiostat
VDC	POTEN	0.00000E+000	T	DC &Voltage (V)
FREQINIT	QUANT	1.00000E+006	Initial Fre&q. (Hz)
FREQFINAL	QUANT	1.00000E+000	Final Fre&q. (Hz)
PTSPERDEC	QUANT	1.00000E+001	Points/&decade
VAC	QUANT	2.50000E+001	AC &Voltage (mV rms)
AREA	QUANT	1.00000E-002	&Area (cm^2)
CONDIT	TWOPARAM	T	5.00000E+000	0.00000E+000	Conditionin&g	Time(s)	E(V)
DELAY	TWOPARAM	T	5.00000E+000	0.00000E+000	Init. De&lay	Time(s)	Stab.(mV/s)
SPEED	SELECTOR	1	&Optimize for:
ZGUESS	QUANT	1.00000E+005	E&stimated Z (ohms)
OCVCURVE	TABLE	19
	Pt	T	Vf	Vm	Ach	Over
	#	s	V vs. Ref.	V	V	bits
	0	0.258333	8.64221E-003	8.64221E-003	5.57199E-004	...........
	1	0.516667	8.64615E-003	8.84860E-003	5.54466E-004	...........
	2	0.775	8.67120E-003	9.08807E-003	5.59166E-004	...........
	3	1.03333	8.74524E-003	9.33832E-003	5.53866E-004	...........
	4	1.29167	8.88362E-003	9.51726E-003	5.56766E-004	...........
	5	1.55	9.07264E-003	9.69652E-003	5.61966E-004	...........
	6	1.80833	9.28152E-003	9.87600E-003	5.50666E-004	...........
	7	2.06667	9.48708E-003	1.01038E-002	5.50133E-004	...........
	8	2.325	9.68486E-003	1.02915E-002	5.53899E-004	...........
	9	2.58333	9.88056E-003	1.04849E-002	5.51333E-004	...........
	10	2.84167	1.00762E-002	1.06201E-002	5.47933E-004	...........
	11	3.1	1.02670E-002	1.08052E-002	5.54766E-004	...........
	12	3.35833	1.04488E-002	1.10067E-002	5.54099E-004	...........
	13	3.61667	1.06258E-002	1.12048E-002	5.58632E-004	...........
	14	3.875	1.08058E-002	1.13804E-002	5.56066E-004	...........
	15	4.13333	1.09914E-002	1.15576E-002	5.48199E-004	...........
	16	4.39167	1.11780E-002	1.17115E-002	5.44333E-004	...........
	17	4.65	1.13593E-002	1.18552E-002	5.44566E-004	...........
	18	4.90833	1.15316E-002	1.20401E-002	5.50799E-004	...........
EOC	QUANT	0.0115316	Open Circuit (V)
PSTATMODEL	IQUANT	4	Pstat Model
PSTATSECTION	LABEL	REF600-11020	Pstat Section
PSTATSERIALNO	LABEL	11020	Pstat Serial Number
CTRLMODE	IQUANT	1	Control Mode
IESTAB	IQUANT	0	I/E Stability
CASPEED	IQUANT	1	Control Amp Speed
CONVENTION	IQUANT	1	Current Convention
ICHRANGE	IQUANT	2	Ich Range
ICHRANGEMODE	TOGGLE	F	Ich Auto Range
ICHOFFSETENABLE	TOGGLE	T	Ich Offset Enable
ICHOFFSET	QUANT	0	Ich Offset (V)
ICHFILTER	IQUANT	3	Ich Filter
VCHRANGE	IQUANT	2	Vch Range
VCHRANGEMODE	TOGGLE	F	Vch Auto Range
VCHOFFSETENABLE	TOGGLE	T	Vch Offset Enable
VCHOFFSET	QUANT	0	Vch Offset (V)
VCHFILTER	IQUANT	3	Vch Filter
ACHRANGE	IQUANT	2	Ach Range
ACHOFFSETENABLE	TOGGLE	F	Ach Offset Enable
ACHOFFSET	QUANT	0	Ach Offset (V)
ACHFILTER	IQUANT	3	Ach Filter
IERANGELOWERLIMIT	IQUANT	1	I/E Range Lower Limit
IERANGEMODE	TOGGLE	F	I/E AutoRange
IERANGE	IQUANT	5	I/E Range
POSFEEDENABLE	TOGGLE	F	Positive Feedback IR Comp
POSFEEDRESISTANCE	QUANT	0	Positive Feedback Resistance (ohm)
ACHSELECT	IQUANT	0	Ach Select
CABLEID	IQUANT	14	Cable ID
DCCALDATE	LABEL	8/19/2019	DC Calibration Date
ACCALDATE	LABEL	8/19/2019	AC Calibration Date
THERMOSELECT	IQUANT	1	Thermo Select
FRAMEWORKVERSION	QUANT	6.33	Framework Version
INSTRUMENTVERSION	LABEL	3.50	Instrument Version
ZCURVE	TABLE
	Pt	Time	Freq	Zreal	Zimag	Zsig	Zmod	Zphz	Idc	Vdc	IERange
	#	s	Hz	ohm	ohm	V	ohm	°	A	V	#
	0	2	1000078	2262.767	-1814.461	1	2900.411	-38.72532	-3.503369E-006	0.0144172	8
	1	3	794390.6	2628.9	-1795.761	1	3183.688	-34.33638	-3.455294E-007	0.0138231	8
	2	5	630984.4	2975.857	-1731.147	1	3442.76	-30.18788	8.797236E-007	0.0136057	8
	3	6	501234.4	3277.743	-1630.027	1	3660.681	-26.44124	6.77448E-006	0.0123782	8
	4	8	398109.4	3557.292	-1506.427	1	3863.114	-22.95148	-2.674281E-006	0.0132203	8
	5	9	316265.6	3774.476	-1385.894	1	4020.867	-20.16199	1.880838E-006	0.0133158	8
	6	10	251203.1	3973.602	-1250.759	1	4165.803	-17.47228	-5.292544E-006	0.0138007	8
	7	12	199546.9	4130.235	-1128.237	1	4281.561	-15.27848	-3.957577E-006	0.013362	8
	8	13	158578.1	4264.929	-975.382	1	4375.042	-12.88191	7.34031E-007	0.0133762	8
	9	14	125953.1	4419.609	-879.61	1	4506.291	-11.25617	3.744258E-006	0.0066841	7
	10	16	100078.1	4482.616	-806.0352	1	4554.508	-10.19363	3.616938E-007	0.013524	7
	11	17	79453.13	4564.26	-751.7582	1	4625.755	-9.352952	6.281716E-008	0.0139184	7
	12	19	63140.62	4642.553	-715.8808	1	4697.423	-8.765955	9.287961E-007	0.0114074	7
	13	20	50203.12	4711.577	-695.5129	1	4762.635	-8.397236	1.041169E-006	0.0119312	7
	14	21	39890.62	4777.212	-689.3024	1	4826.686	-8.210523	1.028646E-006	0.0116211	7
	15	23	31640.63	4835.938	-698.273	1	4886.091	-8.216291	4.660909E-007	0.0114166	7
	16	24	25171.88	4893.667	-726.8849	1	4947.357	-8.448703	-9.875619E-007	0.0134819	7
	17	25	20015.62	4954.261	-766.4785	1	5013.202	-8.794561	-1.157762E-006	0.0143643	7
	18	27	15890.62	5042.543	-831.3911	1	5110.622	-9.362432	7.406924E-007	0.0113171	7
	19	28	12609.37	5113.058	-909.0262	1	5193.235	-10.08101	-1.159467E-006	0.0143609	7
	20	30	10078.13	5202.757	-1005.783	1	5299.083	-10.94131	1.149164E-007	0.0116932	7
	21	31	8015.625	5301.822	-1133.89	1	5421.718	-12.07187	9.62521E-007	0.0123215	7
	22	32	6328.125	5390.649	-1284.71	1	5541.623	-13.40479	-8.487258E-007	0.0145782	7
	23	34	5015.625	5506.607	-1467.709	1	5698.85	-14.92443	-6.8646E-007	0.0128383	7
	24	35	3984.375	5637.76	-1691.069	1	5885.92	-16.69683	-2.867071E-007	0.0121798	7
	25	36	3170.956	5775.315	-1949.986	1	6095.63	-18.65681	-9.870103E-007	0.0134731	7
	26	38	2527.573	5933.148	-2257.729	1	6348.196	-20.83322	-1.035512E-006	0.0145254	7
	27	39	1976.103	6131.02	-2665.377	1	6685.331	-23.49634	-6.845363E-007	0.0128357	7
	28	41	1577.524	6337.317	-3084.775	1	7048.222	-25.95513	-1.151738E-006	0.014012	7
	29	42	1265.625	6546.909	-3619.616	1	7480.885	-28.93707	-2.918407E-007	0.0121808	7
	30	44	998.264	6815.662	-4295.856	1	8056.527	-32.2229	7.391179E-007	0.0113092	7
	31	45	796.875	7089.535	-5067.326	1	8714.315	-35.55572	9.288013E-007	0.0113946	7
	32	46	627.7902	7411.556	-6044.341	1	9563.75	-39.19825	-8.472118E-007	0.0145831	7
	33	48	505.5147	7756.098	-7147.425	1	10547.17	-42.66129	-2.93137E-007	0.012182	7
	34	49	397.9953	8192.09	-8611.892	1	11885.92	-46.43108	5.928689E-010	0.0129599	6
	35	51	315.5048	8672.232	-10363.74	1	13513.5	-50.07788	7.308544E-010	0.0129557	6
	36	52	252.4038	9202.75	-12418.67	1	15456.84	-53.46001	-4.444676E-010	0.01296	6
	37	53	198.6229	9874.62	-15132.48	1	18069.31	-56.87377	5.32802E-010	0.0129543	6
	38	55	158.3615	10639.5	-18285.95	1	21155.97	-59.80743	4.597759E-010	0.0129489	6
	39	56	125.558	11578.31	-22268.52	1	25098.68	-62.52825	3.66809E-010	0.0129577	6
	40	58	100.4464	12718.85	-26974.96	1	29823.11	-64.75584	8.059823E-010	0.0129509	6
	41	59	79.00281	14315.57	-33111.39	1	36073.54	-66.61896	-5.971333E-010	0.0129506	6
	42	60	63.3446	15793.49	-40330.83	1	43312.93	-68.61477	-2.277638E-010	0.0129493	6
	43	62	49.86702	18546.28	-49033.45	1	52423.7	-69.28151	-6.589914E-010	0.0129532	6
	44	63	39.72458	21847.43	-59915.87	1	63774.77	-69.96637	1.81937E-010	0.012961	6
	45	65	31.6723	25984.09	-72703.62	1	77207.44	-70.33324	3.435391E-010	0.0129536	6
	46	66	24.93351	32256.53	-88702.73	1	94385.68	-70.01633	3.672607E-010	0.0129511	6
	47	67	19.86229	40061.96	-106876.9	1	114138.6	-69.45188	1.177923E-011	0.0129714	5
	48	69	15.83615	49138.41	-128047.2	1	137152	-69.00558	1.046228E-009	0.0129619	5
	49	70	12.40079	63939	-154938	1	167612.6	-67.57529	-5.629999E-010	0.012976	5
	50	72	9.93114	80879.5	-182211.1	1	199354.9	-66.06462	1.902325E-010	0.012954	5
	51	73	7.944915	102560	-212734.7	1	236166.5	-64.26116	-6.248825E-010	0.012951	5
	52	75	6.317385	128963.8	-247252.7	1	278864.7	-62.45404	3.075788E-010	0.0129562	5
	53	77	5.008013	162344.4	-285245.4	1	328208.2	-60.35409	2.678149E-012	0.012958	5
	54	80	3.945707	201865.4	-326454.7	1	383825.9	-58.26915	6.634056E-011	0.0129638	5
	55	82	3.158693	244498.9	-366840.7	1	440853.5	-56.31658	-4.107062E-010	0.0129422	5
	56	86	2.504006	293501.9	-411367.4	1	505338	-54.49294	2.79453E-010	0.0129603	5
	57	88	1.998082	345520.1	-457070.1	1	572972.3	-52.91271	3.163883E-011	0.0129802	5
	58	92	1.584686	404006.2	-506802.9	1	648128.3	-51.43933	-1.251371E-011	0.0129082	5
	59	95	1.266892	461134.1	-564770.4	1	729116.1	-50.76842	2.283657E-012	0.0129534	5
	60	99	0.999041	532954.1	-633180.1	1	827621.3	-49.91234	-6.31254E-010	0.0129489	5
