EXPLAIN
TAG	EISPOT
TITLE	LABEL	Potentiostatic EIS	Test &Identifier
DATE	LABEL	10/18/2019	Date
TIME	LABEL	9:13:05	Time
NOTES	NOTES	1	&Notes...
	
PSTAT	PSTAT	REF600-11020	Potentiostat
VDC	POTEN	0.00000E+000	T	DC &Voltage (V)
FREQINIT	QUANT	1.00000E+006	Initial Fre&q. (Hz)
FREQFINAL	QUANT	1.00000E+000	Final Fre&q. (Hz)
PTSPERDEC	QUANT	1.00000E+001	Points/&decade
VAC	QUANT	2.50000E+001	AC &Voltage (mV rms)
AREA	QUANT	1.00000E-002	&Area (cm^2)
CONDIT	TWOPARAM	T	5.00000E+000	0.00000E+000	Conditionin&g	Time(s)	E(V)
DELAY	TWOPARAM	T	5.00000E+000	0.00000E+000	Init. De&lay	Time(s)	Stab.(mV/s)
SPEED	SELECTOR	0	&Optimize for:
ZGUESS	QUANT	1.00000E+005	E&stimated Z (ohms)
OCVCURVE	TABLE	19
	Pt	T	Vf	Vm	Ach	Over
	#	s	V vs. Ref.	V	V	bits
	0	0.258333	3.75257E-003	3.75257E-003	5.52333E-004	...........
	1	0.516667	3.75062E-003	3.65044E-003	5.55299E-004	...........
	2	0.775	3.74371E-003	3.81887E-003	5.52232E-004	...........
	3	1.03333	3.73939E-003	3.89665E-003	5.48233E-004	...........
	4	1.29167	3.75677E-003	3.94466E-003	5.48033E-004	...........
	5	1.55	3.80364E-003	3.99677E-003	5.53499E-004	...........
	6	1.80833	3.86676E-003	4.02576E-003	5.55833E-004	...........
	7	2.06667	3.92857E-003	4.05946E-003	5.51366E-004	...........
	8	2.325	3.98677E-003	4.42743E-003	5.49933E-004	...........
	9	2.58333	4.06240E-003	4.49253E-003	5.52099E-004	...........
	10	2.84167	4.17136E-003	4.33333E-003	5.49433E-004	...........
	11	3.1	4.27950E-003	4.05049E-003	5.46266E-004	...........
	12	3.35833	4.32178E-003	4.06435E-003	5.45933E-004	...........
	13	3.61667	4.27917E-003	4.18368E-003	5.48266E-004	...........
	14	3.875	4.20588E-003	4.30424E-003	5.46266E-004	...........
	15	4.13333	4.17959E-003	4.80638E-003	5.51966E-004	...........
	16	4.39167	4.24714E-003	4.69740E-003	5.56566E-004	...........
	17	4.65	4.38986E-003	4.50562E-003	5.50566E-004	...........
	18	4.90833	4.52190E-003	4.27057E-003	5.58466E-004	...........
EOC	QUANT	0.0045219	Open Circuit (V)
PSTATMODEL	IQUANT	4	Pstat Model
PSTATSECTION	LABEL	REF600-11020	Pstat Section
PSTATSERIALNO	LABEL	11020	Pstat Serial Number
CTRLMODE	IQUANT	1	Control Mode
IESTAB	IQUANT	0	I/E Stability
CASPEED	IQUANT	1	Control Amp Speed
CONVENTION	IQUANT	1	Current Convention
ICHRANGE	IQUANT	2	Ich Range
ICHRANGEMODE	TOGGLE	F	Ich Auto Range
ICHOFFSETENABLE	TOGGLE	T	Ich Offset Enable
ICHOFFSET	QUANT	0	Ich Offset (V)
ICHFILTER	IQUANT	3	Ich Filter
VCHRANGE	IQUANT	2	Vch Range
VCHRANGEMODE	TOGGLE	F	Vch Auto Range
VCHOFFSETENABLE	TOGGLE	T	Vch Offset Enable
VCHOFFSET	QUANT	0	Vch Offset (V)
VCHFILTER	IQUANT	3	Vch Filter
ACHRANGE	IQUANT	2	Ach Range
ACHOFFSETENABLE	TOGGLE	F	Ach Offset Enable
ACHOFFSET	QUANT	0	Ach Offset (V)
ACHFILTER	IQUANT	3	Ach Filter
IERANGELOWERLIMIT	IQUANT	1	I/E Range Lower Limit
IERANGEMODE	TOGGLE	F	I/E AutoRange
IERANGE	IQUANT	4	I/E Range
POSFEEDENABLE	TOGGLE	F	Positive Feedback IR Comp
POSFEEDRESISTANCE	QUANT	0	Positive Feedback Resistance (ohm)
ACHSELECT	IQUANT	0	Ach Select
CABLEID	IQUANT	14	Cable ID
DCCALDATE	LABEL	8/19/2019	DC Calibration Date
ACCALDATE	LABEL	8/19/2019	AC Calibration Date
THERMOSELECT	IQUANT	1	Thermo Select
FRAMEWORKVERSION	QUANT	6.33	Framework Version
INSTRUMENTVERSION	LABEL	3.50	Instrument Version
ZCURVE	TABLE
	Pt	Time	Freq	Zreal	Zimag	Zsig	Zmod	Zphz	Idc	Vdc	IERange
	#	s	Hz	ohm	ohm	V	ohm	°	A	V	#
	0	1	1000078	1866.279	-546.0287	1	1944.517	-16.30821	1.228154E-006	0.0068497	8
	1	2	794390.6	1934.247	-460.4028	1	1988.286	-13.38879	-8.456637E-007	0.0063525	8
	2	2	630984.4	1980.949	-398.0187	1	2020.539	-11.36078	-2.963389E-006	0.0071163	8
	3	2	501234.4	2025.787	-340.7387	1	2054.243	-9.54782	-4.796539E-007	0.0065677	8
	4	3	398109.4	2052.017	-293.2216	1	2072.861	-8.132189	2.044929E-006	0.0056934	8
	5	3	316265.6	2076.189	-255.7883	1	2091.886	-7.023497	1.840813E-006	0.0056729	8
	6	3	251203.1	2093.198	-226.9169	1	2105.462	-6.187089	-2.487691E-006	0.0065933	8
	7	3	199546.9	2109.945	-203.0326	1	2119.691	-5.496449	6.857837E-007	0.0060402	8
	8	4	158578.1	2128.001	-185.8087	1	2136.098	-4.990185	8.706989E-007	0.0059607	8
	9	4	125953.1	2152.357	-147.123	1	2157.38	-3.910333	-1.102825E-007	0.0064798	7
	10	4	100078.1	2161.885	-137.0655	1	2166.226	-3.627748	-6.135949E-008	0.0062571	7
	11	5	79453.13	2174.724	-143.7332	1	2179.468	-3.781328	-3.472465E-008	0.0060847	7
	12	5	63140.62	2188.991	-152.4093	1	2194.29	-3.982813	-5.905299E-008	0.0062438	7
	13	5	50203.12	2205.022	-162.9974	1	2211.039	-4.227671	2.456631E-008	0.0060489	7
	14	6	39890.62	2221.789	-175.4971	1	2228.709	-4.516364	-6.079061E-008	0.006251	7
	15	6	31640.63	2240.275	-190.1087	1	2248.327	-4.850472	-5.794962E-008	0.0061679	7
	16	6	25171.88	2258.322	-209.471	1	2268.016	-5.299316	-5.775588E-008	0.0061747	7
	17	7	20015.62	2276.586	-230.2298	1	2288.198	-5.774654	-2.156496E-008	0.0060617	7
	18	7	15890.62	2298.568	-260.9147	1	2313.329	-6.476032	-3.40604E-008	0.0060757	7
	19	7	12609.37	2319.591	-295.8032	1	2338.375	-7.267354	2.62213E-008	0.0060444	7
	20	8	10078.13	2341.428	-338.0615	1	2365.707	-8.215738	7.31248E-009	0.0060035	7
	21	8	8015.625	2365.401	-389.9874	1	2397.335	-9.362221	1.040053E-007	0.0059106	7
	22	8	6328.125	2391.731	-458.303	1	2435.246	-10.84751	6.475317E-008	0.0059312	7
	23	9	5015.625	2419.535	-540.5307	1	2479.178	-12.59325	2.766843E-008	0.0060381	7
	24	9	3984.375	2450.268	-646.5302	1	2534.13	-14.78123	-3.507293E-008	0.0060666	7
	25	9	3170.956	2482.006	-764.2325	1	2596.999	-17.11408	-5.182864E-009	0.0061524	7
	26	9	2527.573	2517.825	-914.9863	1	2678.926	-19.97132	3.889668E-008	0.0059362	7
	27	10	1976.103	2561.843	-1119.228	1	2795.659	-23.59973	9.439572E-009	0.0059995	7
	28	10	1577.524	2613.865	-1355.385	1	2944.377	-27.4084	-3.147073E-008	0.0060687	7
	29	10	1265.625	2660.5	-1633.6	1	3122.004	-31.55075	-5.822122E-008	0.0062322	7
	30	11	998.264	2728.936	-2006.388	1	3387.135	-36.32434	6.132528E-008	0.0059629	7
	31	11	796.875	2811.621	-2446.543	1	3727.035	-41.02829	-3.085029E-008	0.0060627	7
	32	11	627.7902	2917.161	-3022.468	1	4200.612	-46.01572	-5.821532E-008	0.0062324	7
	33	12	505.5147	3041.934	-3664.308	1	4762.406	-50.30216	-1.822357E-008	0.0060547	7
	34	12	397.9953	3212.631	-4533.767	1	5556.621	-54.67858	2.202874E-009	0.0060846	7
	35	12	315.5048	3429.659	-5575.051	1	6545.515	-58.401	1.37135E-009	0.0060871	7
	36	13	252.4038	3696.26	-6793.462	1	7733.917	-61.44979	4.761813E-010	0.0060865	7
	37	13	198.6229	4072.179	-8393.944	1	9329.573	-64.12045	1.08777E-009	0.0060865	7
	38	13	158.3615	4537.867	-10235.75	1	11196.56	-66.09061	-8.742698E-011	0.0060278	6
	39	14	125.558	5153.753	-12530.04	1	13548.54	-67.64205	5.547123E-010	0.0060273	6
	40	14	100.4464	5934.343	-15173.19	1	16292.39	-68.63918	-1.701879E-009	0.0060282	6
	41	14	79.00281	7048.368	-18622.58	1	19911.81	-69.2691	-1.858491E-010	0.0060242	6
	42	15	63.3446	8035.304	-22436.98	1	23832.42	-70.29615	-1.615054E-011	0.0060253	6
	43	15	49.86702	9865.92	-27241.91	1	28973.4	-70.09167	-3.362954E-010	0.0060178	6
	44	15	39.72458	12160.08	-32809.1	1	34990.07	-69.66371	5.347176E-010	0.0060205	6
	45	16	31.6723	14955.07	-39279.77	1	42030.39	-69.15656	1.145315E-009	0.0060177	6
	46	16	24.93351	18386.98	-47175.09	1	50631.71	-68.70613	-9.069127E-010	0.0060159	6
	47	16	19.86229	22535.2	-56171.79	1	60523.59	-68.14015	-1.768113E-009	0.0060161	6
	48	17	15.83615	26973.75	-66198.71	1	71483.23	-67.83076	-1.143444E-009	0.0060152	6
	49	17	12.40079	34016.78	-79434.19	1	86411.41	-66.81753	-4.440118E-010	0.0060207	6
	50	17	9.93114	41674.13	-93081.49	1	101984.8	-65.88114	4.016106E-010	0.0060236	6
	51	18	7.944915	50550.03	-109006.4	1	120157	-65.12122	4.70005E-010	0.0060173	5
	52	18	6.317385	61472.93	-127992.7	1	141989.6	-64.34573	3.987725E-010	0.0060112	5
	53	19	5.008013	75186.92	-150150.3	1	167923.2	-63.40084	-4.373995E-011	0.0060102	5
	54	20	3.945707	91616.63	-176171.8	1	198570.2	-62.5237	2.74561E-010	0.0060209	5
	55	22	3.158693	110490.3	-203718.1	1	231752.4	-61.52599	-3.695648E-010	0.0060164	5
	56	23	2.504006	132872	-235777.6	1	270640.1	-60.59666	-1.959768E-010	0.0060118	5
	57	25	1.998082	158151.1	-270973.3	1	313748.8	-59.73042	1.57051E-010	0.0060521	5
	58	26	1.584686	186677.3	-311415.2	1	363081.1	-59.05949	-3.837041E-012	0.0060217	5
	59	28	1.266892	218578.3	-355314.9	1	417163.2	-58.4015	2.66991E-011	0.0059873	5
	60	31	0.999041	255772.5	-411157.2	1	484220.8	-58.11509	-9.591205E-011	0.005974	5
