EXPLAIN
TAG	EISPOT
TITLE	LABEL	Potentiostatic IDE	Test &Identifier
DATE	LABEL	9/12/2019	Date
TIME	LABEL	11:31:36	Time
NOTES	NOTES	1	&Notes...
	
PSTAT	PSTAT	REF600-11020	Potentiostat
VDC	POTEN	0.00000E+000	T	DC &Voltage (V)
FREQINIT	QUANT	1.00000E+006	Initial Fre&q. (Hz)
FREQFINAL	QUANT	1.00000E+000	Final Fre&q. (Hz)
PTSPERDEC	QUANT	1.00000E+001	Points/&decade
VAC	QUANT	2.50000E+001	AC &Voltage (mV rms)
AREA	QUANT	1.00000E-002	&Area (cm^2)
CONDIT	TWOPARAM	T	5.00000E+000	0.00000E+000	Conditionin&g	Time(s)	E(V)
DELAY	TWOPARAM	T	5.00000E+000	0.00000E+000	Init. De&lay	Time(s)	Stab.(mV/s)
SPEED	SELECTOR	1	&Optimize for:
ZGUESS	QUANT	1.00000E+007	E&stimated Z (ohms)
OCVCURVE	TABLE	19
	Pt	T	Vf	Vm	Ach	Over
	#	s	V vs. Ref.	V	V	bits
	0	0.258333	1.39373E-003	1.39373E-003	5.50966E-004	...........
	1	0.516667	1.38554E-003	9.64953E-004	5.56733E-004	...........
	2	0.775	1.33560E-003	5.77080E-004	5.57899E-004	...........
	3	1.03333	1.19574E-003	2.18303E-004	5.62399E-004	...........
	4	1.29167	9.49130E-004	-1.15524E-004	5.59599E-004	...........
	5	1.55	6.27346E-004	-4.26987E-004	5.56999E-004	...........
	6	1.80833	2.78609E-004	-7.18924E-004	5.55899E-004	...........
	7	2.06667	-6.32836E-005	-9.94950E-004	5.56633E-004	...........
	8	2.325	-3.84465E-004	-1.25634E-003	5.54799E-004	...........
	9	2.58333	-6.83424E-004	-1.50414E-003	5.62766E-004	...........
	10	2.84167	-9.63125E-004	-1.74281E-003	5.57432E-004	...........
	11	3.1	-1.22702E-003	-1.97305E-003	5.57366E-004	...........
	12	3.35833	-1.47793E-003	-2.19103E-003	5.56699E-004	...........
	13	3.61667	-1.71770E-003	-2.39924E-003	5.59166E-004	...........
	14	3.875	-1.94721E-003	-2.60172E-003	5.57299E-004	...........
	15	4.13333	-2.16697E-003	-2.79344E-003	5.58432E-004	...........
	16	4.39167	-2.37765E-003	-2.98584E-003	5.61366E-004	...........
	17	4.65	-2.58019E-003	-3.16215E-003	5.57966E-004	...........
	18	4.90833	-2.77535E-003	-3.33662E-003	5.60799E-004	...........
EOC	QUANT	-0.0027753	Open Circuit (V)
PSTATMODEL	IQUANT	4	Pstat Model
PSTATSECTION	LABEL	REF600-11020	Pstat Section
PSTATSERIALNO	LABEL	11020	Pstat Serial Number
CTRLMODE	IQUANT	1	Control Mode
IESTAB	IQUANT	0	I/E Stability
CASPEED	IQUANT	1	Control Amp Speed
CONVENTION	IQUANT	1	Current Convention
ICHRANGE	IQUANT	2	Ich Range
ICHRANGEMODE	TOGGLE	F	Ich Auto Range
ICHOFFSETENABLE	TOGGLE	T	Ich Offset Enable
ICHOFFSET	QUANT	0	Ich Offset (V)
ICHFILTER	IQUANT	3	Ich Filter
VCHRANGE	IQUANT	2	Vch Range
VCHRANGEMODE	TOGGLE	F	Vch Auto Range
VCHOFFSETENABLE	TOGGLE	T	Vch Offset Enable
VCHOFFSET	QUANT	0	Vch Offset (V)
VCHFILTER	IQUANT	3	Vch Filter
ACHRANGE	IQUANT	2	Ach Range
ACHOFFSETENABLE	TOGGLE	F	Ach Offset Enable
ACHOFFSET	QUANT	0	Ach Offset (V)
ACHFILTER	IQUANT	3	Ach Filter
IERANGELOWERLIMIT	IQUANT	1	I/E Range Lower Limit
IERANGEMODE	TOGGLE	F	I/E AutoRange
IERANGE	IQUANT	2	I/E Range
POSFEEDENABLE	TOGGLE	F	Positive Feedback IR Comp
POSFEEDRESISTANCE	QUANT	0	Positive Feedback Resistance (ohm)
ACHSELECT	IQUANT	0	Ach Select
CABLEID	IQUANT	14	Cable ID
DCCALDATE	LABEL	8/19/2019	DC Calibration Date
ACCALDATE	LABEL	8/19/2019	AC Calibration Date
THERMOSELECT	IQUANT	1	Thermo Select
FRAMEWORKVERSION	QUANT	6.33	Framework Version
INSTRUMENTVERSION	LABEL	3.50	Instrument Version
ZCURVE	TABLE
	Pt	Time	Freq	Zreal	Zimag	Zsig	Zmod	Zphz	Idc	Vdc	IERange
	#	s	Hz	ohm	ohm	V	ohm	°	A	V	#
	0	2	1000078	2585.931	-1641.487	1	3062.927	-32.4064	-4.609719E-006	6.596365E-005	8
	1	3	794390.6	2897.719	-1534.049	1	3278.731	-27.89668	1.998798E-006	-0.0007378	8
	2	4	630984.4	3168.866	-1383.573	1	3457.743	-23.58677	-5.043335E-006	-0.0000991	8
	3	6	501234.4	3386.768	-1226.097	1	3601.876	-19.90155	-2.752606E-006	-0.0003031	8
	4	7	398109.4	3522.487	-1086.9	1	3686.362	-17.14816	-3.056347E-006	-0.0003992	8
	5	9	316265.6	3677.3	-911.0074	1	3788.465	-13.91421	4.546993E-007	-0.0011116	8
	6	10	251203.1	3759.022	-796.8364	1	3842.55	-11.96838	-1.410251E-006	-0.0008076	8
	7	11	199546.9	3841.078	-691.6573	1	3902.854	-10.20778	-8.033074E-007	-0.0007983	8
	8	13	158578.1	3878.174	-582.5104	1	3921.677	-8.542098	-6.494337E-007	-0.001047	8
	9	14	125953.1	3963.044	-475.685	1	3991.49	-6.84448	-1.289494E-006	0.0016598	7
	10	15	100078.1	3987.836	-426.0095	1	4010.527	-6.097623	-7.628153E-008	-0.0010718	7
	11	17	79453.13	4018.916	-402.1358	1	4038.984	-5.714041	1.024742E-007	-0.0012568	7
	12	18	63140.62	4049.406	-389.8658	1	4068.131	-5.499331	-5.55115E-008	-0.0010948	7
	13	19	50203.12	4078.217	-386.7139	1	4096.51	-5.416834	-7.593459E-008	-0.0010769	7
	14	21	39890.62	4109.644	-394.6613	1	4128.55	-5.485463	-7.541887E-008	-0.001078	7
	15	22	31640.63	4142.834	-412.0318	1	4163.273	-5.67976	-3.119567E-008	-0.0011814	7
	16	23	25171.88	4178.08	-440.7253	1	4201.261	-6.021584	-5.716485E-008	-0.0011092	7
	17	25	20015.62	4216.139	-480.1729	1	4243.395	-6.497377	-7.539075E-008	-0.0010826	7
	18	26	15890.62	4259.242	-532.4341	1	4292.392	-7.125399	-8.486316E-009	-0.0011299	7
	19	27	12609.37	4305.594	-594.4479	1	4346.436	-7.860794	-1.746335E-009	-0.0012075	7
	20	29	10078.13	4356.468	-668.5778	1	4407.472	-8.724988	-4.090792E-008	-0.001079	7
	21	30	8015.625	4409.671	-762.6135	1	4475.129	-9.81175	-6.576602E-008	-0.0010639	7
	22	31	6328.125	4475.729	-883.7183	1	4562.139	-11.1692	1.907838E-008	-0.0012682	7
	23	33	5015.625	4545.95	-1022.978	1	4659.629	-12.68205	7.120111E-008	-0.0012872	7
	24	34	3984.375	4622.92	-1192.281	1	4774.194	-14.46181	1.615299E-008	-0.0010853	7
	25	35	3170.956	4708.625	-1395.86	1	4911.168	-16.51233	8.737987E-008	-0.0013612	7
	26	37	2527.573	4802.283	-1639.498	1	5074.433	-18.84989	-3.793721E-008	-0.0011753	7
	27	38	1976.103	4920.382	-1963.87	1	5297.824	-21.7584	-1.498097E-008	-0.001228	7
	28	39	1577.524	5044.036	-2327.17	1	5554.999	-24.76721	-2.40579E-009	-0.0011784	7
	29	41	1265.625	5173.583	-2755.949	1	5861.844	-28.04407	-2.146403E-009	-0.0011842	7
	30	42	998.264	5348.431	-3302.872	1	6286.07	-31.69701	-6.637132E-009	-0.0011412	7
	31	43	796.875	5532.476	-3944.825	1	6794.846	-35.49004	-6.388484E-008	-0.0010649	7
	32	45	627.7902	5757.625	-4771.254	1	7477.641	-39.64802	8.724322E-008	-0.0013576	7
	33	46	505.5147	5996.919	-5691.936	1	8268.082	-43.50539	1.023539E-007	-0.0012798	7
	34	47	397.9953	6299.391	-6917.754	1	9356.155	-47.67862	6.097029E-009	-0.0011677	7
	35	49	315.5048	6646.31	-8383.979	1	10698.81	-51.59475	7.571965E-010	-0.0012294	6
	36	50	252.4038	7027.912	-10107.43	1	12310.63	-55.18828	1.485436E-009	-0.0012306	6
	37	51	198.6229	7511.414	-12380.68	1	14481.11	-58.75462	1.53763E-009	-0.001233	6
	38	53	158.3615	8054.959	-15027.04	1	17049.76	-61.80731	9.07157E-010	-0.0012328	6
	39	54	125.558	8718.213	-18369.23	1	20333.13	-64.61053	1.012394E-009	-0.0012334	6
	40	55	100.4464	9516.44	-22305.48	1	24250.71	-66.89491	1.325044E-009	-0.0012312	6
	41	57	79.00281	10590.43	-27567.49	1	29531.74	-68.98503	6.8324E-010	-0.001232	6
	42	58	63.3446	11466.12	-33636.34	1	35536.95	-71.17654	1.533711E-009	-0.0012377	6
	43	59	49.86702	13561.97	-41242.35	1	43414.96	-71.79728	1.113111E-009	-0.0012369	6
	44	61	39.72458	15461.38	-50674.88	1	52981.11	-73.03256	1.477415E-009	-0.0012316	6
	45	62	31.6723	18207.28	-61763.08	1	64390.86	-73.57489	2.947105E-009	-0.0012315	6
	46	64	24.93351	22063.01	-76348.98	1	79472.91	-73.88198	6.438885E-010	-0.0012371	6
	47	65	19.86229	26775.58	-92979.92	1	96758.5	-73.9351	1.320225E-009	-0.0012334	6
	48	66	15.83615	31997.37	-112804	1	117254.3	-74.16377	-6.140272E-010	-0.0012289	5
	49	68	12.40079	41220.17	-138566.4	1	144567.5	-73.43353	1.388896E-009	-0.0012284	5
	50	69	9.93114	53518.81	-167373.9	1	175722.2	-72.26801	1.299856E-009	-0.0012266	5
	51	70	7.944915	67985.37	-199231.9	1	210512.1	-71.15844	-2.818583E-010	-0.0012328	5
	52	72	6.317385	87071.16	-239801.4	1	255119.8	-70.0442	7.312172E-011	-0.0012268	5
	53	74	5.008013	112503.1	-286389.2	1	307694.2	-68.55347	1.936004E-010	-0.001236	5
	54	77	3.945707	145582.1	-340230.7	1	370069	-66.83429	3.502293E-010	-0.0012313	5
	55	79	3.158693	183822.2	-396405	1	436952.5	-65.12175	4.301692E-010	-0.0012118	5
	56	82	2.504006	233294.9	-462304.8	1	517834.2	-63.22292	-6.590972E-011	-0.001233	5
	57	85	1.998082	289885.8	-529019.9	1	603237.9	-61.27868	3.213645E-010	-0.0012744	5
	58	88	1.584686	356617.8	-605774.5	1	702950.2	-59.5148	7.139888E-011	-0.0012615	5
	59	92	1.266892	431140.1	-681784.6	1	806667.3	-57.69197	2.842795E-010	-0.0012735	5
	60	96	0.999041	517987.1	-771860.3	1	929558.5	-56.13486	8.35393E-011	-0.0011975	5
