EXPLAIN
TAG	EISPOT
TITLE	LABEL	Potentiostatic EIS	Test &Identifier
DATE	LABEL	10/20/2019	Date
TIME	LABEL	10:19:02	Time
NOTES	NOTES	1	&Notes...
	
PSTAT	PSTAT	REF600-11020	Potentiostat
VDC	POTEN	0.00000E+000	T	DC &Voltage (V)
FREQINIT	QUANT	1.00000E+006	Initial Fre&q. (Hz)
FREQFINAL	QUANT	1.00000E+000	Final Fre&q. (Hz)
PTSPERDEC	QUANT	1.00000E+001	Points/&decade
VAC	QUANT	2.50000E+001	AC &Voltage (mV rms)
AREA	QUANT	1.00000E-002	&Area (cm^2)
CONDIT	TWOPARAM	T	5.00000E+000	0.00000E+000	Conditionin&g	Time(s)	E(V)
DELAY	TWOPARAM	T	5.00000E+000	0.00000E+000	Init. De&lay	Time(s)	Stab.(mV/s)
SPEED	SELECTOR	1	&Optimize for:
ZGUESS	QUANT	1.00000E+005	E&stimated Z (ohms)
OCVCURVE	TABLE	19
	Pt	T	Vf	Vm	Ach	Over
	#	s	V vs. Ref.	V	V	bits
	0	0.258333	6.87847E-003	6.87847E-003	5.52832E-004	...........
	1	0.516667	6.86793E-003	6.32663E-003	5.56432E-004	...........
	2	0.775	6.80265E-003	5.77525E-003	5.59666E-004	...........
	3	1.03333	6.61592E-003	5.23197E-003	5.56033E-004	...........
	4	1.29167	6.28646E-003	5.19588E-003	5.57532E-004	...........
	5	1.55	5.89675E-003	5.73024E-003	5.54733E-004	...........
	6	1.80833	5.61652E-003	6.57853E-003	5.57999E-004	...........
	7	2.06667	5.59774E-003	6.68868E-003	5.57366E-004	...........
	8	2.325	5.85956E-003	7.58642E-003	5.49066E-004	...........
	9	2.58333	6.31073E-003	8.19058E-003	5.49466E-004	...........
	10	2.84167	6.84307E-003	7.60927E-003	5.56133E-004	...........
	11	3.1	7.33718E-003	8.22307E-003	5.57499E-004	...........
	12	3.35833	7.69109E-003	7.94681E-003	5.58899E-004	...........
	13	3.61667	7.87047E-003	6.86812E-003	5.58766E-004	...........
	14	3.875	7.83820E-003	6.21234E-003	5.65132E-004	...........
	15	4.13333	7.57331E-003	7.36858E-003	5.61332E-004	...........
	16	4.39167	7.26793E-003	9.45829E-003	5.61332E-004	...........
	17	4.65	7.21763E-003	5.73692E-003	5.61332E-004	...........
	18	4.90833	7.36560E-003	6.97563E-003	5.61166E-004	...........
EOC	QUANT	0.0073656	Open Circuit (V)
PSTATMODEL	IQUANT	4	Pstat Model
PSTATSECTION	LABEL	REF600-11020	Pstat Section
PSTATSERIALNO	LABEL	11020	Pstat Serial Number
CTRLMODE	IQUANT	1	Control Mode
IESTAB	IQUANT	0	I/E Stability
CASPEED	IQUANT	1	Control Amp Speed
CONVENTION	IQUANT	1	Current Convention
ICHRANGE	IQUANT	2	Ich Range
ICHRANGEMODE	TOGGLE	F	Ich Auto Range
ICHOFFSETENABLE	TOGGLE	T	Ich Offset Enable
ICHOFFSET	QUANT	0	Ich Offset (V)
ICHFILTER	IQUANT	3	Ich Filter
VCHRANGE	IQUANT	2	Vch Range
VCHRANGEMODE	TOGGLE	F	Vch Auto Range
VCHOFFSETENABLE	TOGGLE	T	Vch Offset Enable
VCHOFFSET	QUANT	0	Vch Offset (V)
VCHFILTER	IQUANT	3	Vch Filter
ACHRANGE	IQUANT	2	Ach Range
ACHOFFSETENABLE	TOGGLE	F	Ach Offset Enable
ACHOFFSET	QUANT	0	Ach Offset (V)
ACHFILTER	IQUANT	3	Ach Filter
IERANGELOWERLIMIT	IQUANT	1	I/E Range Lower Limit
IERANGEMODE	TOGGLE	F	I/E AutoRange
IERANGE	IQUANT	5	I/E Range
POSFEEDENABLE	TOGGLE	F	Positive Feedback IR Comp
POSFEEDRESISTANCE	QUANT	0	Positive Feedback Resistance (ohm)
ACHSELECT	IQUANT	0	Ach Select
CABLEID	IQUANT	14	Cable ID
DCCALDATE	LABEL	8/19/2019	DC Calibration Date
ACCALDATE	LABEL	8/19/2019	AC Calibration Date
THERMOSELECT	IQUANT	1	Thermo Select
FRAMEWORKVERSION	QUANT	6.33	Framework Version
INSTRUMENTVERSION	LABEL	3.50	Instrument Version
ZCURVE	TABLE
	Pt	Time	Freq	Zreal	Zimag	Zsig	Zmod	Zphz	Idc	Vdc	IERange
	#	s	Hz	ohm	ohm	V	ohm	°	A	V	#
	0	2	1000078	2736.931	-2060.951	1	3426.122	-36.98031	-3.106225E-006	0.0091406	8
	1	3	794390.6	3143.57	-2021.43	1	3737.407	-32.7425	2.300731E-006	0.0088689	8
	2	5	630984.4	3533.141	-1947.99	1	4034.569	-28.87005	4.450418E-006	0.0080912	8
	3	6	501234.4	3872.12	-1807.755	1	4273.323	-25.0262	-4.339899E-006	0.0097378	8
	4	8	398109.4	4178.758	-1650.433	1	4492.877	-21.55192	-4.724536E-006	0.0100647	8
	5	10	316265.6	4402.752	-1488.895	1	4647.691	-18.68418	-5.310141E-007	0.0091665	8
	6	11	251203.1	4593.322	-1320.745	1	4779.432	-16.04184	-3.651942E-007	0.008838	8
	7	13	199546.9	4791.254	-1145.97	1	4926.395	-13.45128	-3.240674E-007	0.0088244	8
	8	14	158578.1	4902.084	-1015.996	1	5006.264	-11.70923	-3.298021E-007	0.0088252	8
	9	16	125953.1	5031.691	-850.5981	1	5103.081	-9.59503	-6.86825E-007	0.0111582	7
	10	17	100078.1	5118.687	-776.4301	1	5177.238	-8.625185	-1.905963E-008	0.0087662	7
	11	19	79453.13	5187.196	-722.9839	1	5237.338	-7.934686	7.129017E-008	0.008678	7
	12	20	63140.62	5251.581	-687.4588	1	5296.386	-7.457903	-3.623072E-008	0.0088283	7
	13	21	50203.12	5312.676	-667.7599	1	5354.478	-7.164041	-4.580079E-008	0.0088217	7
	14	23	39890.62	5372.841	-663.2706	1	5413.626	-7.037488	-6.384476E-009	0.0088341	7
	15	24	31640.63	5433.738	-674.9114	1	5475.492	-7.080307	9.385106E-008	0.0087328	7
	16	25	25171.88	5495.936	-701.5475	1	5540.531	-7.274375	-1.94972E-008	0.0088564	7
	17	27	20015.62	5549.692	-758.4518	1	5601.279	-7.782149	-1.486533E-008	0.0089477	7
	18	28	15890.62	5631.942	-805.6339	1	5689.272	-8.140777	-3.83279E-008	0.0088149	7
	19	30	12609.37	5710.277	-881.9933	1	5777.991	-8.780358	-1.71197E-009	0.0088333	7
	20	31	10078.13	5796.213	-976.864	1	5877.955	-9.56644	7.537822E-008	0.0086661	7
	21	32	8015.625	5855.752	-1087.219	1	5955.827	-10.51815	-8.950833E-008	0.0089365	7
	22	34	6328.125	5989.504	-1239.836	1	6116.482	-11.69513	7.517898E-008	0.0086721	7
	23	36	5015.625	6104.294	-1412.729	1	6265.638	-13.03066	-4.798859E-008	0.0088108	7
	24	37	3984.375	6201.715	-1638.417	1	6414.49	-14.79873	-6.10399E-008	0.0089733	7
	25	39	3170.956	6370.416	-1863.878	1	6637.487	-16.3086	-5.591403E-009	0.0088059	7
	26	40	2527.573	6521.191	-2146.154	1	6865.268	-18.21661	9.172825E-008	0.0086005	7
	27	42	1976.103	6710.25	-2519.115	1	7167.524	-20.57679	-4.984995E-008	0.0088932	7
	28	43	1577.524	6791.676	-2868.826	1	7372.722	-22.89935	4.421271E-008	0.0087406	7
	29	44	1265.625	7100.763	-3410.189	1	7877.197	-25.65296	-1.82536E-008	0.0087598	7
	30	46	998.264	7342.672	-4033.305	1	8377.493	-28.77984	-1.712658E-008	0.0087579	7
	31	47	796.875	7591.699	-4758.957	1	8959.998	-32.08208	-5.199227E-008	0.0088946	7
	32	49	627.7902	7892.526	-5684.242	1	9726.39	-35.76165	4.232731E-009	0.0086096	6
	33	50	505.5147	8200.882	-6719.54	1	10602.2	-39.33009	-9.061069E-009	0.008797	6
	34	51	397.9953	8576.374	-8109.387	1	11803.23	-43.39687	-4.487634E-010	0.0087461	6
	35	53	315.5048	8993.03	-9778.21	1	13284.87	-47.39521	1.828944E-009	0.0087471	6
	36	54	252.4038	9455.538	-11749.07	1	15081.37	-51.17323	1.485278E-009	0.0087442	6
	37	55	198.6229	10035.74	-14355.52	1	17515.62	-55.04314	8.068629E-010	0.0087493	6
	38	57	158.3615	10707.84	-17403.15	1	20433.49	-58.39677	1.053149E-009	0.0087425	6
	39	58	125.558	11529.8	-21262.8	1	24187.66	-61.53114	1.103548E-010	0.0087485	6
	40	60	100.4464	12579.46	-25814.35	1	28716.26	-64.01981	-9.261558E-010	0.008746	6
	41	61	79.00281	14021.16	-31731.71	1	34691.42	-66.16101	-9.557907E-012	0.0087412	6
	42	62	63.3446	16271.09	-39014.59	1	42271.58	-67.36134	1.57055E-011	0.0087403	6
	43	64	49.86702	17363.65	-47866.43	1	50918.48	-70.06165	-8.644837E-010	0.0087403	6
	44	65	39.72458	20789.87	-58109.88	1	61716.9	-70.3144	1.366192E-010	0.0087443	6
	45	67	31.6723	24684.05	-70786.05	1	74966.44	-70.77565	-4.748906E-010	0.0087424	6
	46	68	24.93351	30109.96	-86251.54	1	91356.1	-70.75617	8.631346E-010	0.0087414	6
	47	70	19.86229	36967.6	-104677.2	1	111013.1	-70.54891	1.366271E-010	0.0087374	5
	48	71	15.83615	43955.58	-125781	1	133240.2	-70.73746	2.448508E-009	0.0087422	5
	49	72	12.40079	59535.02	-151397.1	1	162682.2	-68.53339	-6.490703E-010	0.0087423	5
	50	74	9.93114	74838.27	-180394.5	1	195302.2	-67.46845	-2.97586E-010	0.0087468	5
	51	75	7.944915	93813.65	-211705.8	1	231560.6	-66.10033	9.910961E-010	0.0087433	5
	52	77	6.317385	119928.2	-248939.4	1	276321.5	-64.27726	4.544705E-010	0.0087516	5
	53	79	5.008013	152070.2	-289465.8	1	326979.8	-62.28491	3.308106E-010	0.0087542	5
	54	82	3.945707	192569.6	-334511.9	1	385980.9	-60.07211	8.896426E-011	0.0087436	5
	55	84	3.158693	233705.2	-378821.5	1	445111	-58.32844	2.121749E-010	0.0087631	5
	56	88	2.504006	284307.7	-428070	1	513882.1	-56.40941	-1.357183E-010	0.0087339	5
	57	90	1.998082	338194.1	-478919.9	1	586293	-54.77179	-2.70193E-010	0.008727	5
	58	94	1.584686	398758.7	-532667.6	1	665389.6	-53.18122	-8.395395E-012	0.0087866	5
	59	97	1.266892	459153.8	-593037.9	1	750010.8	-52.25152	-2.862316E-010	0.0087371	5
	60	102	0.999041	527083.1	-664374.9	1	848062.9	-51.5732	3.387121E-010	0.0087627	5
