EXPLAIN
TAG	EISPOT
TITLE	LABEL	Potentiostatic IDE	Test &Identifier
DATE	LABEL	9/14/2019	Date
TIME	LABEL	9:37:22	Time
NOTES	NOTES	1	&Notes...
	
PSTAT	PSTAT	REF600-11020	Potentiostat
VDC	POTEN	0.00000E+000	T	DC &Voltage (V)
FREQINIT	QUANT	1.00000E+006	Initial Fre&q. (Hz)
FREQFINAL	QUANT	1.00000E+000	Final Fre&q. (Hz)
PTSPERDEC	QUANT	1.00000E+001	Points/&decade
VAC	QUANT	2.50000E+001	AC &Voltage (mV rms)
AREA	QUANT	1.00000E-002	&Area (cm^2)
CONDIT	TWOPARAM	T	5.00000E+000	0.00000E+000	Conditionin&g	Time(s)	E(V)
DELAY	TWOPARAM	T	5.00000E+000	0.00000E+000	Init. De&lay	Time(s)	Stab.(mV/s)
SPEED	SELECTOR	1	&Optimize for:
ZGUESS	QUANT	1.00000E+007	E&stimated Z (ohms)
OCVCURVE	TABLE	19
	Pt	T	Vf	Vm	Ach	Over
	#	s	V vs. Ref.	V	V	bits
	0	0.258333	3.76624E-003	3.76624E-003	5.55633E-004	...........
	1	0.516667	3.76384E-003	3.64039E-003	5.51566E-004	...........
	2	0.775	3.74442E-003	3.27764E-003	5.48299E-004	...........
	3	1.03333	3.67814E-003	3.14411E-003	5.48499E-004	...........
	4	1.29167	3.54574E-003	2.92307E-003	5.50033E-004	...........
	5	1.55	3.36105E-003	2.69298E-003	5.49133E-004	...........
	6	1.80833	3.15353E-003	2.56561E-003	5.48133E-004	...........
	7	2.06667	2.94655E-003	2.42839E-003	5.48833E-004	...........
	8	2.325	2.75464E-003	2.22013E-003	5.48733E-004	...........
	9	2.58333	2.58148E-003	2.16556E-003	5.47499E-004	...........
	10	2.84167	2.42604E-003	2.09901E-003	5.51166E-004	...........
	11	3.1	2.29449E-003	2.09963E-003	5.49599E-004	...........
	12	3.35833	2.19513E-003	2.00288E-003	5.48299E-004	...........
	13	3.61667	2.12265E-003	1.85797E-003	5.47633E-004	...........
	14	3.875	2.05529E-003	1.72423E-003	5.48633E-004	...........
	15	4.13333	1.97237E-003	1.67028E-003	5.49899E-004	...........
	16	4.39167	1.87064E-003	1.47044E-003	5.49999E-004	...........
	17	4.65	1.75672E-003	1.36530E-003	5.54466E-004	...........
	18	4.90833	1.63427E-003	1.24780E-003	5.52033E-004	...........
EOC	QUANT	0.0016343	Open Circuit (V)
PSTATMODEL	IQUANT	4	Pstat Model
PSTATSECTION	LABEL	REF600-11020	Pstat Section
PSTATSERIALNO	LABEL	11020	Pstat Serial Number
CTRLMODE	IQUANT	1	Control Mode
IESTAB	IQUANT	0	I/E Stability
CASPEED	IQUANT	1	Control Amp Speed
CONVENTION	IQUANT	1	Current Convention
ICHRANGE	IQUANT	2	Ich Range
ICHRANGEMODE	TOGGLE	F	Ich Auto Range
ICHOFFSETENABLE	TOGGLE	T	Ich Offset Enable
ICHOFFSET	QUANT	0	Ich Offset (V)
ICHFILTER	IQUANT	3	Ich Filter
VCHRANGE	IQUANT	2	Vch Range
VCHRANGEMODE	TOGGLE	F	Vch Auto Range
VCHOFFSETENABLE	TOGGLE	T	Vch Offset Enable
VCHOFFSET	QUANT	0	Vch Offset (V)
VCHFILTER	IQUANT	3	Vch Filter
ACHRANGE	IQUANT	2	Ach Range
ACHOFFSETENABLE	TOGGLE	F	Ach Offset Enable
ACHOFFSET	QUANT	0	Ach Offset (V)
ACHFILTER	IQUANT	3	Ach Filter
IERANGELOWERLIMIT	IQUANT	1	I/E Range Lower Limit
IERANGEMODE	TOGGLE	F	I/E AutoRange
IERANGE	IQUANT	2	I/E Range
POSFEEDENABLE	TOGGLE	F	Positive Feedback IR Comp
POSFEEDRESISTANCE	QUANT	0	Positive Feedback Resistance (ohm)
ACHSELECT	IQUANT	0	Ach Select
CABLEID	IQUANT	14	Cable ID
DCCALDATE	LABEL	8/19/2019	DC Calibration Date
ACCALDATE	LABEL	8/19/2019	AC Calibration Date
THERMOSELECT	IQUANT	1	Thermo Select
FRAMEWORKVERSION	QUANT	6.33	Framework Version
INSTRUMENTVERSION	LABEL	3.50	Instrument Version
ZCURVE	TABLE
	Pt	Time	Freq	Zreal	Zimag	Zsig	Zmod	Zphz	Idc	Vdc	IERange
	#	s	Hz	ohm	ohm	V	ohm	°	A	V	#
	0	2	1000078	2286.745	-1858.365	1	2946.646	-39.09966	-3.873471E-006	0.0048375	8
	1	4	794390.6	2664.518	-1847.258	1	3242.225	-34.73281	8.393891E-007	0.004172	8
	2	5	630984.4	3044.12	-1743.408	1	3508.011	-29.80033	-2.49822E-006	0.0041116	8
	3	6	501234.4	3365.726	-1585.823	1	3720.611	-25.22832	-1.570575E-007	0.0035872	8
	4	8	398109.4	3608.144	-1452.293	1	3889.454	-21.92499	4.339327E-006	0.0024979	8
	5	9	316265.6	3831.927	-1261.334	1	4034.183	-18.21971	3.99564E-006	0.0026493	8
	6	11	251203.1	3956.066	-1060.988	1	4095.87	-15.01302	-1.014522E-006	0.003549	8
	7	12	199546.9	4101.618	-936.3536	1	4207.14	-12.85961	2.967043E-006	0.0028714	8
	8	13	158578.1	4167.29	-791.9291	1	4241.87	-10.75988	-5.989131E-007	0.0036695	8
	9	14	125953.1	4251.006	-639.0269	1	4298.768	-8.548903	-9.27982E-008	0.00432	7
	10	16	100078.1	4302.181	-571.2092	1	4339.936	-7.563042	2.254202E-009	0.0033515	7
	11	17	79453.13	4342.654	-520.9221	1	4373.786	-6.840219	1.102064E-007	0.0032069	7
	12	18	63140.62	4382.563	-485.9384	1	4409.421	-6.327109	-6.325627E-008	0.003468	7
	13	20	50203.12	4418.666	-463.2437	1	4442.882	-5.984908	-7.25607E-008	0.0034449	7
	14	21	39890.62	4457.043	-456.6939	1	4480.379	-5.850432	-7.066353E-008	0.0035673	7
	15	22	31640.63	4492.138	-458.6914	1	4515.496	-5.830255	9.187423E-008	0.0032839	7
	16	24	25171.88	4530.861	-473.7767	1	4555.564	-5.96953	1.16508E-008	0.0034394	7
	17	25	20015.62	4569.929	-499.5987	1	4597.156	-6.238975	-7.045505E-009	0.003397	7
	18	26	15890.62	4615.083	-537.9988	1	4646.335	-6.649188	-3.858104E-008	0.0034376	7
	19	28	12609.37	4658.354	-591.3535	1	4695.738	-7.234702	-2.234132E-008	0.003327	7
	20	29	10078.13	4701.021	-657.2843	1	4746.748	-7.959347	-2.215537E-008	0.0033273	7
	21	30	8015.625	4755.712	-742.7015	1	4813.356	-8.876207	-7.250205E-009	0.0033336	7
	22	32	6328.125	4814.116	-851.5203	1	4888.845	-10.03072	6.303176E-009	0.0033348	7
	23	33	5015.625	4876.134	-983.953	1	4974.419	-11.40849	-2.150215E-008	0.0033297	7
	24	34	3984.375	4946.608	-1146.769	1	5077.796	-13.05227	-1.916278E-008	0.0033867	7
	25	36	3170.956	5022.209	-1342.433	1	5198.53	-14.96526	6.528623E-008	0.0032358	7
	26	37	2527.573	5108.423	-1579.23	1	5346.958	-17.1786	2.139275E-008	0.0032607	7
	27	38	1976.103	5210.576	-1895.67	1	5544.697	-19.99199	-7.012683E-009	0.003387	7
	28	40	1577.524	5323.33	-2254.582	1	5781.088	-22.95404	1.143445E-007	0.0031864	7
	29	41	1265.625	5441.778	-2672.406	1	6062.566	-26.15522	2.058794E-008	0.0032627	7
	30	42	998.264	5597.042	-3227.294	1	6460.828	-29.96805	1.492744E-008	0.0034332	7
	31	44	796.875	5762.94	-3868.338	1	6940.858	-33.87125	1.980675E-008	0.0032502	7
	32	45	627.7902	5967.784	-4698.56	1	7595.453	-38.21409	-7.509286E-009	0.0033907	7
	33	46	505.5147	6189.662	-5616.376	1	8357.967	-42.21997	-6.304802E-009	0.0033244	7
	34	48	397.9953	6466.297	-6861.27	1	9428.15	-46.69751	5.619014E-009	0.003356	7
	35	49	315.5048	6791.823	-8346.059	1	10760.37	-50.86213	9.551975E-010	0.0032971	6
	36	50	252.4038	7153.77	-10096.68	1	12374.14	-54.68141	1.770043E-009	0.0032939	6
	37	52	198.6229	7620.531	-12408.48	1	14561.69	-58.44429	1.106917E-009	0.0032969	6
	38	53	158.3615	8156.253	-15111.42	1	17172.05	-61.64244	1.640065E-009	0.0032933	6
	39	54	125.558	8825.414	-18515.4	1	20511.16	-64.51507	8.227852E-010	0.003299	6
	40	56	100.4464	9632.05	-22511.34	1	24485.44	-66.8351	1.610607E-010	0.0032969	6
	41	57	79.00281	10766.87	-27895.1	1	29900.87	-68.89456	2.378697E-010	0.0033007	6
	42	58	63.3446	11707.81	-33923.76	1	35887.24	-70.95936	1.192108E-009	0.0032933	6
	43	60	49.86702	14046.48	-41666.09	1	43970.07	-71.37	1.251016E-009	0.0032884	6
	44	61	39.72458	16213.32	-51176.11	1	53683.01	-72.42105	1.122486E-009	0.0032938	6
	45	63	31.6723	19112.49	-62265.64	1	65132.93	-72.93609	1.020521E-009	0.0032928	6
	46	64	24.93351	23468.28	-76596.51	1	80111.08	-72.96555	9.028281E-010	0.0032961	6
	47	65	19.86229	28686.17	-93072.12	1	97392.6	-72.86994	9.51077E-010	0.003295	6
	48	67	15.83615	35612.6	-111796.3	1	117331.4	-72.33076	1.328117E-009	0.0033001	5
	49	68	12.40079	45586.33	-137303.2	1	144673	-71.63321	1.15506E-009	0.0032999	5
	50	69	9.93114	56835.12	-164329.5	1	173880.4	-70.9215	9.367843E-010	0.0033061	5
	51	71	7.944915	71752.9	-195073.4	1	207851.2	-69.80521	1.225926E-009	0.0032983	5
	52	72	6.317385	91359.55	-232909.1	1	250186.4	-68.58221	6.854887E-010	0.0033072	5
	53	74	5.008013	115976.1	-276656.7	1	299982.3	-67.25629	6.008609E-010	0.003306	5
	54	77	3.945707	147763.6	-327420.6	1	359219.1	-65.71053	1.573155E-010	0.0032954	5
	55	80	3.158693	184533.8	-380501.3	1	422887.6	-64.12775	2.304001E-010	0.0032882	5
	56	83	2.504006	229750.8	-442039.8	1	498181.3	-62.53678	4.814046E-010	0.0033022	5
	57	86	1.998082	282817.3	-508214.9	1	581608.1	-60.90443	4.726516E-010	0.0033285	5
	58	89	1.584686	345444.7	-580164.3	1	675220.5	-59.22935	3.20376E-010	0.0032601	5
	59	92	1.266892	414811.9	-659099.9	1	778769.3	-57.81528	4.005263E-010	0.0033105	5
	60	97	0.999041	499547.2	-750664.1	1	901689.5	-56.35728	-4.779983E-011	0.0032629	5
