EXPLAIN
TAG	EISPOT
TITLE	LABEL	Potentiostatic EIS	Test &Identifier
DATE	LABEL	10/6/2019	Date
TIME	LABEL	10:38:36	Time
NOTES	NOTES	2	&Notes...
	
	
PSTAT	PSTAT	REF600-11020	Potentiostat
VDC	POTEN	0.00000E+000	T	DC &Voltage (V)
FREQINIT	QUANT	1.00000E+006	Initial Fre&q. (Hz)
FREQFINAL	QUANT	1.00000E+000	Final Fre&q. (Hz)
PTSPERDEC	QUANT	1.00000E+001	Points/&decade
VAC	QUANT	2.50000E+001	AC &Voltage (mV rms)
AREA	QUANT	1.00000E-002	&Area (cm^2)
CONDIT	TWOPARAM	T	5.00000E+000	0.00000E+000	Conditionin&g	Time(s)	E(V)
DELAY	TWOPARAM	T	5.00000E+000	0.00000E+000	Init. De&lay	Time(s)	Stab.(mV/s)
SPEED	SELECTOR	1	&Optimize for:
ZGUESS	QUANT	1.00000E+004	E&stimated Z (ohms)
OCVCURVE	TABLE	19
	Pt	T	Vf	Vm	Ach	Over
	#	s	V vs. Ref.	V	V	bits
	0	0.258333	6.10399E-003	6.10399E-003	5.81599E-004	...........
	1	0.516667	6.10523E-003	6.16896E-003	5.83799E-004	...........
	2	0.775	6.11054E-003	6.10960E-003	5.80965E-004	...........
	3	1.03333	6.11827E-003	6.07290E-003	5.77999E-004	...........
	4	1.29167	6.11893E-003	6.03798E-003	5.79066E-004	...........
	5	1.55	6.10558E-003	6.04720E-003	5.80132E-004	...........
	6	1.80833	6.08212E-003	5.98771E-003	5.76566E-004	...........
	7	2.06667	6.05647E-003	6.01504E-003	5.77166E-004	...........
	8	2.325	6.03384E-003	5.99943E-003	5.81965E-004	...........
	9	2.58333	6.01743E-003	6.00473E-003	5.78199E-004	...........
	10	2.84167	6.00807E-003	5.99944E-003	5.82299E-004	...........
	11	3.1	6.00377E-003	6.00175E-003	5.79166E-004	...........
	12	3.35833	6.00222E-003	6.01236E-003	5.79699E-004	...........
	13	3.61667	6.00285E-003	6.02234E-003	5.80432E-004	...........
	14	3.875	6.00618E-003	6.02596E-003	5.80699E-004	...........
	15	4.13333	6.01225E-003	6.04770E-003	5.85199E-004	...........
	16	4.39167	6.02084E-003	6.06535E-003	5.86532E-004	...........
	17	4.65	6.03314E-003	6.12499E-003	5.83565E-004	...........
	18	4.90833	6.05148E-003	6.12339E-003	5.81999E-004	...........
EOC	QUANT	0.0060515	Open Circuit (V)
PSTATMODEL	IQUANT	4	Pstat Model
PSTATSECTION	LABEL	REF600-11020	Pstat Section
PSTATSERIALNO	LABEL	11020	Pstat Serial Number
CTRLMODE	IQUANT	1	Control Mode
IESTAB	IQUANT	0	I/E Stability
CASPEED	IQUANT	1	Control Amp Speed
CONVENTION	IQUANT	1	Current Convention
ICHRANGE	IQUANT	2	Ich Range
ICHRANGEMODE	TOGGLE	F	Ich Auto Range
ICHOFFSETENABLE	TOGGLE	T	Ich Offset Enable
ICHOFFSET	QUANT	0	Ich Offset (V)
ICHFILTER	IQUANT	3	Ich Filter
VCHRANGE	IQUANT	2	Vch Range
VCHRANGEMODE	TOGGLE	F	Vch Auto Range
VCHOFFSETENABLE	TOGGLE	T	Vch Offset Enable
VCHOFFSET	QUANT	0	Vch Offset (V)
VCHFILTER	IQUANT	3	Vch Filter
ACHRANGE	IQUANT	2	Ach Range
ACHOFFSETENABLE	TOGGLE	F	Ach Offset Enable
ACHOFFSET	QUANT	0	Ach Offset (V)
ACHFILTER	IQUANT	3	Ach Filter
IERANGELOWERLIMIT	IQUANT	1	I/E Range Lower Limit
IERANGEMODE	TOGGLE	F	I/E AutoRange
IERANGE	IQUANT	6	I/E Range
POSFEEDENABLE	TOGGLE	F	Positive Feedback IR Comp
POSFEEDRESISTANCE	QUANT	0	Positive Feedback Resistance (ohm)
ACHSELECT	IQUANT	0	Ach Select
CABLEID	IQUANT	14	Cable ID
DCCALDATE	LABEL	8/19/2019	DC Calibration Date
ACCALDATE	LABEL	8/19/2019	AC Calibration Date
THERMOSELECT	IQUANT	1	Thermo Select
FRAMEWORKVERSION	QUANT	6.33	Framework Version
INSTRUMENTVERSION	LABEL	3.50	Instrument Version
ZCURVE	TABLE
	Pt	Time	Freq	Zreal	Zimag	Zsig	Zmod	Zphz	Idc	Vdc	IERange
	#	s	Hz	ohm	ohm	V	ohm	°	A	V	#
	0	1	1000078	2245.137	-1737.991	1	2839.235	-37.74394	3.198357E-006	0.0082425	8
	1	2	794390.6	2590.788	-1707.317	1	3102.759	-33.38469	5.000188E-006	0.006591	8
	2	4	630984.4	2921.575	-1622.945	1	3342.088	-29.05232	-1.601797E-006	0.0077638	8
	3	5	501234.4	3226.235	-1471.359	1	3545.912	-24.51587	-4.696057E-006	0.0085432	8
	4	7	398109.4	3469.262	-1303.303	1	3705.992	-20.58977	1.981504E-006	0.0074278	8
	5	8	316265.6	3656.412	-1155.809	1	3834.742	-17.54198	-2.565516E-006	0.0080947	8
	6	9	251203.1	3802.299	-1012.586	1	3934.82	-14.91228	-3.082912E-007	0.007572	8
	7	11	199546.9	3917.59	-865.3411	1	4012.023	-12.45583	-1.149998E-006	0.0079751	8
	8	12	158578.1	3992.107	-754.2075	1	4062.727	-10.69849	-2.36161E-006	0.00807	8
	9	13	125953.1	4084.858	-600.3066	1	4128.732	-8.360288	2.196692E-007	0.0074081	7
	10	15	100078.1	4125.615	-514.14	1	4157.528	-7.103658	1.701558E-008	0.0076153	7
	11	16	79453.13	4163.476	-461.8389	1	4189.013	-6.329731	-5.790554E-008	0.0075986	7
	12	18	63140.62	4198.334	-423.2313	1	4219.613	-5.756502	2.061449E-008	0.0076077	7
	13	19	50203.12	4228.354	-396.6414	1	4246.917	-5.358959	-4.418025E-008	0.0075335	7
	14	20	39890.62	4258.47	-382.0175	1	4275.57	-5.126152	-4.363643E-008	0.0075322	7
	15	22	31640.63	4286.277	-377.704	1	4302.887	-5.035859	-3.845089E-009	0.0074611	7
	16	23	25171.88	4314.697	-383.3568	1	4331.694	-5.077343	4.035705E-009	0.0075037	7
	17	24	20015.62	4334.623	-393.9301	1	4352.486	-5.19277	-5.579123E-008	0.0075857	7
	18	26	15890.62	4373.97	-428.5645	1	4394.916	-5.596016	-6.825382E-008	0.0076402	7
	19	27	12609.37	4404.304	-469.7625	1	4429.286	-6.088143	-1.12023E-008	0.0075394	7
	20	28	10078.13	4437.483	-519.877	1	4467.833	-6.682074	-5.622097E-008	0.0075876	7
	21	30	8015.625	4475.777	-587.8478	1	4514.216	-7.482389	3.757533E-009	0.0074983	7
	22	31	6328.125	4509.667	-680.3388	1	4560.697	-8.57908	4.764633E-008	0.0074667	7
	23	33	5015.625	4551.778	-793.5808	1	4620.439	-9.88984	1.117972E-007	0.0074125	7
	24	34	3984.375	4584.347	-937.7939	1	4679.283	-11.56117	-4.990919E-008	0.0076362	7
	25	35	3170.956	4649.264	-1107.766	1	4779.414	-13.4018	4.367003E-009	0.0074994	7
	26	37	2527.573	4704.736	-1317.819	1	4885.815	-15.64781	-6.492301E-009	0.0074876	7
	27	38	1976.103	4777.88	-1601.572	1	5039.164	-18.53144	5.669285E-008	0.00743	7
	28	39	1577.524	4858.945	-1918.298	1	5223.908	-21.54397	-8.255578E-008	0.0076265	7
	29	41	1265.625	4942.587	-2303.931	1	5453.188	-24.99205	-5.008575E-008	0.0076308	7
	30	42	998.264	5049.705	-2806.534	1	5777.209	-29.06451	8.662386E-008	0.0073381	7
	31	43	796.875	5166.252	-3399.091	1	6184.171	-33.34257	1.268712E-007	0.0073228	7
	32	45	627.7902	5310.563	-4170.174	1	6752.217	-38.14114	4.657203E-008	0.0073668	7
	33	46	505.5147	5467.323	-5038.932	1	7435.217	-42.66506	-5.529429E-008	0.0075794	7
	34	48	397.9953	5680.62	-6207.759	1	8414.613	-47.53888	5.021709E-009	0.0075416	7
	35	49	315.5048	5931	-7624.127	1	9659.4	-52.11976	6.042632E-009	0.0075437	7
	36	50	252.4038	6234.774	-9298.698	1	11195.45	-56.15816	4.641946E-010	0.007474	6
	37	52	198.6229	6643.717	-11517.65	1	13296.44	-60.0224	1.121357E-009	0.00747	6
	38	53	158.3615	7141.358	-14103.5	1	15808.47	-63.14446	9.455596E-010	0.0074695	6
	39	54	125.558	7798.264	-17359.42	1	19030.57	-65.80925	1.009794E-009	0.0074788	6
	40	56	100.4464	8624.304	-21181.31	1	22869.78	-67.84554	1.666458E-010	0.0074763	6
	41	57	79.00281	9747.81	-26253.75	1	28004.99	-69.63043	3.7252E-010	0.0074728	6
	42	59	63.3446	10985.48	-31779.84	1	33624.98	-70.93104	8.983218E-010	0.0074733	6
	43	60	49.86702	13331.82	-39276.93	1	41477.88	-71.25117	1.12952E-009	0.0074691	6
	44	61	39.72458	15685.91	-47853.9	1	50359.14	-71.85151	1.17679E-009	0.0074755	6
	45	63	31.6723	18858.59	-58188.2	1	61167.91	-72.04268	1.246667E-009	0.0074725	6
	46	64	24.93351	23420.25	-71067.54	1	74827.16	-71.76041	4.303609E-010	0.0074761	6
	47	66	19.86229	29072.83	-85862.59	1	90651.06	-71.29404	1.89731E-010	0.0074825	6
	48	67	15.83615	35817.25	-103478.2	1	109501.6	-70.90755	1.851459E-009	0.0074843	5
	49	68	12.40079	46874.38	-125356.1	1	133833.3	-69.49773	-1.434257E-010	0.0074836	5
	50	70	9.93114	59139.94	-148133	1	159502.1	-68.23637	8.80505E-010	0.007476	5
	51	71	7.944915	74870.34	-174484.1	1	189869.1	-66.77605	-7.67055E-011	0.0074766	5
	52	73	6.317385	94576.66	-204871.4	1	225648.1	-65.22011	7.282746E-010	0.0074797	5
	53	75	5.008013	119605.6	-239198	1	267434.4	-63.43369	5.030014E-010	0.00749	5
	54	78	3.945707	150622.2	-278069.7	1	316243.3	-61.5569	2.999394E-012	0.0074739	5
	55	80	3.158693	184508.6	-316534.3	1	366384.2	-59.76199	2.639983E-010	0.0074941	5
	56	84	2.504006	224960.8	-360204.5	1	424681.8	-58.01373	9.33816E-012	0.0074717	5
	57	86	1.998082	268155.7	-405384.7	1	486049.6	-56.51598	-2.277763E-010	0.0075005	5
	58	89	1.584686	317459.4	-455975.8	1	555602.7	-55.1536	1.996064E-010	0.007525	5
	59	93	1.266892	366626.9	-509167.5	1	627428.8	-54.24417	-1.185909E-010	0.0075084	5
	60	97	0.999041	420937.3	-574257.4	1	712011.1	-53.75816	2.462453E-010	0.0074684	5
