EXPLAIN
TAG	EISPOT
TITLE	LABEL	Potentiostatic EIS	Test &Identifier
DATE	LABEL	10/2/2019	Date
TIME	LABEL	9:24:43	Time
NOTES	NOTES	2	&Notes...
	
	
PSTAT	PSTAT	REF600-11020	Potentiostat
VDC	POTEN	0.00000E+000	T	DC &Voltage (V)
FREQINIT	QUANT	1.00000E+006	Initial Fre&q. (Hz)
FREQFINAL	QUANT	1.00000E+000	Final Fre&q. (Hz)
PTSPERDEC	QUANT	1.00000E+001	Points/&decade
VAC	QUANT	2.50000E+001	AC &Voltage (mV rms)
AREA	QUANT	1.00000E-002	&Area (cm^2)
CONDIT	TWOPARAM	T	5.00000E+000	0.00000E+000	Conditionin&g	Time(s)	E(V)
DELAY	TWOPARAM	T	5.00000E+000	0.00000E+000	Init. De&lay	Time(s)	Stab.(mV/s)
SPEED	SELECTOR	1	&Optimize for:
ZGUESS	QUANT	1.00000E+004	E&stimated Z (ohms)
OCVCURVE	TABLE	19
	Pt	T	Vf	Vm	Ach	Over
	#	s	V vs. Ref.	V	V	bits
	0	0.258333	-1.35918E-003	-1.35918E-003	5.66799E-004	...........
	1	0.516667	-1.37064E-003	-1.95897E-003	5.67399E-004	...........
	2	0.775	-1.44105E-003	-2.53040E-003	5.62699E-004	...........
	3	1.03333	-1.63455E-003	-2.77059E-003	5.61366E-004	...........
	4	1.29167	-1.95155E-003	-2.79945E-003	5.68199E-004	...........
	5	1.55	-2.30893E-003	-3.25547E-003	5.66866E-004	...........
	6	1.80833	-2.64542E-003	-4.15988E-003	5.65266E-004	...........
	7	2.06667	-3.01093E-003	-5.08424E-003	5.65299E-004	...........
	8	2.325	-3.48978E-003	-4.91352E-003	5.63666E-004	...........
	9	2.58333	-4.04570E-003	-4.97707E-003	5.63299E-004	...........
	10	2.84167	-4.53539E-003	-5.45206E-003	5.68832E-004	...........
	11	3.1	-4.89128E-003	-5.98478E-003	5.71132E-004	...........
	12	3.35833	-5.18645E-003	-6.29678E-003	5.66666E-004	...........
	13	3.61667	-5.50929E-003	-6.63135E-003	5.66799E-004	...........
	14	3.875	-5.87185E-003	-6.99837E-003	5.75132E-004	...........
	15	4.13333	-6.24329E-003	-7.26818E-003	5.68066E-004	...........
	16	4.39167	-6.59823E-003	-7.47592E-003	5.67532E-004	...........
	17	4.65	-6.92201E-003	-7.72778E-003	5.72399E-004	...........
	18	4.90833	-7.20911E-003	-7.95608E-003	5.71266E-004	...........
EOC	QUANT	-0.0072091	Open Circuit (V)
PSTATMODEL	IQUANT	4	Pstat Model
PSTATSECTION	LABEL	REF600-11020	Pstat Section
PSTATSERIALNO	LABEL	11020	Pstat Serial Number
CTRLMODE	IQUANT	1	Control Mode
IESTAB	IQUANT	0	I/E Stability
CASPEED	IQUANT	1	Control Amp Speed
CONVENTION	IQUANT	1	Current Convention
ICHRANGE	IQUANT	2	Ich Range
ICHRANGEMODE	TOGGLE	F	Ich Auto Range
ICHOFFSETENABLE	TOGGLE	T	Ich Offset Enable
ICHOFFSET	QUANT	0	Ich Offset (V)
ICHFILTER	IQUANT	3	Ich Filter
VCHRANGE	IQUANT	2	Vch Range
VCHRANGEMODE	TOGGLE	F	Vch Auto Range
VCHOFFSETENABLE	TOGGLE	T	Vch Offset Enable
VCHOFFSET	QUANT	0	Vch Offset (V)
VCHFILTER	IQUANT	3	Vch Filter
ACHRANGE	IQUANT	2	Ach Range
ACHOFFSETENABLE	TOGGLE	F	Ach Offset Enable
ACHOFFSET	QUANT	0	Ach Offset (V)
ACHFILTER	IQUANT	3	Ach Filter
IERANGELOWERLIMIT	IQUANT	1	I/E Range Lower Limit
IERANGEMODE	TOGGLE	F	I/E AutoRange
IERANGE	IQUANT	6	I/E Range
POSFEEDENABLE	TOGGLE	F	Positive Feedback IR Comp
POSFEEDRESISTANCE	QUANT	0	Positive Feedback Resistance (ohm)
ACHSELECT	IQUANT	0	Ach Select
CABLEID	IQUANT	14	Cable ID
DCCALDATE	LABEL	8/19/2019	DC Calibration Date
ACCALDATE	LABEL	8/19/2019	AC Calibration Date
THERMOSELECT	IQUANT	1	Thermo Select
FRAMEWORKVERSION	QUANT	6.33	Framework Version
INSTRUMENTVERSION	LABEL	3.50	Instrument Version
ZCURVE	TABLE
	Pt	Time	Freq	Zreal	Zimag	Zsig	Zmod	Zphz	Idc	Vdc	IERange
	#	s	Hz	ohm	ohm	V	ohm	°	A	V	#
	0	1	1000078	2579.932	-1633.426	1	3053.544	-32.33904	4.056076E-007	-0.0050275	8
	1	2	794390.6	2870.068	-1518.649	1	3247.089	-27.88481	-2.557682E-006	-0.0048212	8
	2	4	630984.4	3131.119	-1355.889	1	3412.087	-23.41438	1.539454E-006	-0.0055061	8
	3	5	501234.4	3343.218	-1200.098	1	3552.09	-19.74636	-2.637298E-006	-0.0049595	8
	4	7	398109.4	3509.586	-1050.227	1	3663.355	-16.65957	-1.710335E-006	-0.0052934	8
	5	8	316265.6	3629.115	-902.9537	1	3739.76	-13.97196	5.306408E-006	-0.0068333	8
	6	9	251203.1	3704.576	-777.2667	1	3785.238	-11.8495	7.913302E-007	-0.0057304	8
	7	11	199546.9	3782.029	-677.2484	1	3842.188	-10.15236	8.236499E-007	-0.0056967	8
	8	12	158578.1	3838.331	-595.0867	1	3884.188	-8.812852	-3.168533E-006	-0.0050559	8
	9	13	125953.1	3895.994	-485.7636	1	3926.161	-7.107123	4.390776E-007	-0.0058485	7
	10	15	100078.1	3928.886	-441.0271	1	3953.562	-6.404781	-4.834803E-008	-0.0056373	7
	11	16	79453.13	3962.113	-419.9136	1	3984.302	-6.049752	-6.12341E-008	-0.0056601	7
	12	17	63140.62	3995.878	-410.0022	1	4016.857	-5.858405	-1.564201E-008	-0.0056771	7
	13	19	50203.12	4030.042	-409.2174	1	4050.765	-5.798039	9.952114E-009	-0.0056481	7
	14	20	39890.62	4066.817	-419.5379	1	4088.4	-5.889869	-6.038559E-008	-0.0056651	7
	15	21	31640.63	4105.267	-438.197	1	4128.587	-6.092694	4.057348E-008	-0.005785	7
	16	23	25171.88	4146.3	-467.0171	1	4172.518	-6.426406	9.997413E-009	-0.0056489	7
	17	24	20015.62	4192.722	-505.9999	1	4223.145	-6.881478	5.498407E-009	-0.0058162	7
	18	26	15890.62	4241.624	-553.8141	1	4277.626	-7.438829	-1.213998E-008	-0.0057507	7
	19	27	12609.37	4295.273	-613.5428	1	4338.871	-8.129218	1.248334E-007	-0.005941	7
	20	28	10078.13	4352.689	-683.4702	1	4406.023	-8.923861	-5.981362E-008	-0.005667	7
	21	30	8015.625	4416.146	-770.1874	1	4482.804	-9.89303	2.278511E-008	-0.0058367	7
	22	31	6328.125	4486.35	-878.9779	1	4571.645	-11.08513	-4.46975E-008	-0.0056524	7
	23	32	5015.625	4562.218	-1005.54	1	4671.718	-12.4296	-3.716054E-008	-0.0057557	7
	24	34	3984.375	4642.368	-1158.905	1	4784.834	-14.01665	-2.447288E-008	-0.005771	7
	25	35	3170.956	4728.542	-1341.942	1	4915.274	-15.84374	4.156893E-008	-0.0057896	7
	26	36	2527.573	4822.843	-1562.568	1	5069.658	-17.95196	-5.973237E-008	-0.0056647	7
	27	38	1976.103	4934.304	-1856.572	1	5272.021	-20.61921	8.710952E-008	-0.0059193	7
	28	39	1577.524	5050.654	-2187.458	1	5504.005	-23.41763	-2.321022E-008	-0.005761	7
	29	40	1265.625	5174.513	-2577.355	1	5780.86	-26.47727	-2.500265E-008	-0.005766	7
	30	42	998.264	5324.78	-3091.953	1	6157.39	-30.14256	-1.532406E-008	-0.0056919	7
	31	43	796.875	5484.063	-3690.886	1	6610.415	-33.94136	5.498197E-008	-0.0058499	7
	32	44	627.7902	5677.158	-4465.521	1	7222.95	-38.18777	8.734305E-008	-0.0059253	7
	33	46	505.5147	5877.994	-5343.675	1	7943.908	-42.27393	-1.34439E-008	-0.0056883	7
	34	47	397.9953	6124.255	-6510.352	1	8938.187	-46.75034	5.941285E-009	-0.0057283	7
	35	48	315.5048	6409.598	-7928.03	1	10194.93	-51.0454	1.258666E-009	-0.0057862	6
	36	50	252.4038	6730.742	-9609.65	1	11732.36	-54.99203	7.673722E-010	-0.0057873	6
	37	51	198.6229	7153.073	-11845.36	1	13837.59	-58.87342	1.02916E-009	-0.0057893	6
	38	52	158.3615	7653.288	-14462.33	1	16362.51	-62.11276	9.828366E-010	-0.005796	6
	39	54	125.558	8297.182	-17764.06	1	19606.25	-64.96381	1.064836E-009	-0.0057934	6
	40	55	100.4464	9106.326	-21654.98	1	23491.77	-67.19233	1.606557E-009	-0.0057956	6
	41	56	79.00281	10184.66	-26818.53	1	28687.29	-69.20512	1.700483E-011	-0.0057919	6
	42	58	63.3446	11393.04	-32532.55	1	34469.82	-70.69953	1.076466E-009	-0.0057929	6
	43	59	49.86702	13592.19	-40178.96	1	42415.76	-71.30977	1.197105E-009	-0.0057943	6
	44	61	39.72458	15873.89	-49040.42	1	51545.54	-72.06376	1.252582E-009	-0.0057929	6
	45	62	31.6723	18909.18	-59728.56	1	62650.29	-72.43298	1.262069E-009	-0.0057951	6
	46	63	24.93351	23281.54	-73117.79	1	76734.88	-72.33793	6.012278E-010	-0.0058	6
	47	65	19.86229	28621.88	-88508.41	1	93021.23	-72.07981	6.663936E-010	-0.0057893	6
	48	66	15.83615	35460.29	-105946.5	1	111723.3	-71.4946	2.57767E-010	-0.0057891	5
	49	68	12.40079	44765.64	-129300.4	1	136830.4	-70.90342	6.167849E-010	-0.0057823	5
	50	69	9.93114	56277.72	-154208.9	1	164157.1	-69.95071	2.221467E-010	-0.005781	5
	51	71	7.944915	70239.52	-182454.4	1	195507.5	-68.94478	1.042602E-009	-0.0057837	5
	52	72	6.317385	87713.54	-216827.7	1	233897.2	-67.97514	2.183121E-010	-0.0057762	5
	53	74	5.008013	109728.8	-256307.9	1	278808.5	-66.82359	2.735072E-010	-0.0057972	5
	54	77	3.945707	137053.2	-302771.8	1	332346.7	-65.64556	5.265597E-010	-0.0057913	5
	55	80	3.158693	167698.8	-352622.9	1	390468.7	-64.56539	1.128095E-010	-0.0058055	5
	56	83	2.504006	205463.7	-411416	1	459867.9	-63.46218	5.352988E-010	-0.0057847	5
	57	86	1.998082	248378.2	-476176.2	1	537061.9	-62.45301	4.478017E-010	-0.005773	5
	58	89	1.584686	303133.2	-551420.9	1	629249.4	-61.20104	1.351155E-009	-0.0058339	5
	59	92	1.266892	358168.5	-636019.8	1	729935.4	-60.61438	4.464365E-010	-0.0057723	5
	60	97	0.999041	431082.7	-737029.3	1	853840.9	-59.67697	4.332872E-011	-0.005824	5
