EXPLAIN
TAG	EISPOT
TITLE	LABEL	Potentiostatic EIS	Test &Identifier
DATE	LABEL	10/22/2019	Date
TIME	LABEL	9:47:29	Time
NOTES	NOTES	1	&Notes...
	
PSTAT	PSTAT	REF600-11020	Potentiostat
VDC	POTEN	0.00000E+000	T	DC &Voltage (V)
FREQINIT	QUANT	1.00000E+006	Initial Fre&q. (Hz)
FREQFINAL	QUANT	1.00000E+000	Final Fre&q. (Hz)
PTSPERDEC	QUANT	1.00000E+001	Points/&decade
VAC	QUANT	2.50000E+001	AC &Voltage (mV rms)
AREA	QUANT	1.00000E-002	&Area (cm^2)
CONDIT	TWOPARAM	T	5.00000E+000	0.00000E+000	Conditionin&g	Time(s)	E(V)
DELAY	TWOPARAM	T	5.00000E+000	0.00000E+000	Init. De&lay	Time(s)	Stab.(mV/s)
SPEED	SELECTOR	1	&Optimize for:
ZGUESS	QUANT	1.00000E+005	E&stimated Z (ohms)
OCVCURVE	TABLE	19
	Pt	T	Vf	Vm	Ach	Over
	#	s	V vs. Ref.	V	V	bits
	0	0.258333	8.35497E-003	8.35497E-003	5.54933E-004	...........
	1	0.516667	8.35638E-003	8.42926E-003	5.50799E-004	...........
	2	0.775	8.36408E-003	8.44640E-003	5.58432E-004	...........
	3	1.03333	8.38303E-003	8.49172E-003	5.52899E-004	...........
	4	1.29167	8.41407E-003	8.60294E-003	5.47633E-004	...........
	5	1.55	8.45821E-003	8.69436E-003	5.53433E-004	...........
	6	1.80833	8.51726E-003	8.69344E-003	5.51433E-004	...........
	7	2.06667	8.58629E-003	8.82936E-003	5.52866E-004	...........
	8	2.325	8.65625E-003	8.81334E-003	5.54433E-004	...........
	9	2.58333	8.72229E-003	8.92794E-003	5.54299E-004	...........
	10	2.84167	8.78499E-003	9.00298E-003	5.56933E-004	...........
	11	3.1	8.84896E-003	9.06702E-003	5.56366E-004	...........
	12	3.35833	8.91870E-003	9.18795E-003	5.55799E-004	...........
	13	3.61667	8.99461E-003	9.20810E-003	5.54733E-004	...........
	14	3.875	9.07381E-003	9.34206E-003	5.48533E-004	...........
	15	4.13333	9.15366E-003	9.39623E-003	5.56133E-004	...........
	16	4.39167	9.23439E-003	9.50071E-003	5.55799E-004	...........
	17	4.65	9.31691E-003	9.56581E-003	5.54833E-004	...........
	18	4.90833	9.39796E-003	9.53088E-003	5.58466E-004	...........
EOC	QUANT	0.009398	Open Circuit (V)
PSTATMODEL	IQUANT	4	Pstat Model
PSTATSECTION	LABEL	REF600-11020	Pstat Section
PSTATSERIALNO	LABEL	11020	Pstat Serial Number
CTRLMODE	IQUANT	1	Control Mode
IESTAB	IQUANT	0	I/E Stability
CASPEED	IQUANT	1	Control Amp Speed
CONVENTION	IQUANT	1	Current Convention
ICHRANGE	IQUANT	2	Ich Range
ICHRANGEMODE	TOGGLE	F	Ich Auto Range
ICHOFFSETENABLE	TOGGLE	T	Ich Offset Enable
ICHOFFSET	QUANT	0	Ich Offset (V)
ICHFILTER	IQUANT	3	Ich Filter
VCHRANGE	IQUANT	2	Vch Range
VCHRANGEMODE	TOGGLE	F	Vch Auto Range
VCHOFFSETENABLE	TOGGLE	T	Vch Offset Enable
VCHOFFSET	QUANT	0	Vch Offset (V)
VCHFILTER	IQUANT	3	Vch Filter
ACHRANGE	IQUANT	2	Ach Range
ACHOFFSETENABLE	TOGGLE	F	Ach Offset Enable
ACHOFFSET	QUANT	0	Ach Offset (V)
ACHFILTER	IQUANT	3	Ach Filter
IERANGELOWERLIMIT	IQUANT	1	I/E Range Lower Limit
IERANGEMODE	TOGGLE	F	I/E AutoRange
IERANGE	IQUANT	5	I/E Range
POSFEEDENABLE	TOGGLE	F	Positive Feedback IR Comp
POSFEEDRESISTANCE	QUANT	0	Positive Feedback Resistance (ohm)
ACHSELECT	IQUANT	0	Ach Select
CABLEID	IQUANT	14	Cable ID
DCCALDATE	LABEL	8/19/2019	DC Calibration Date
ACCALDATE	LABEL	8/19/2019	AC Calibration Date
THERMOSELECT	IQUANT	1	Thermo Select
FRAMEWORKVERSION	QUANT	6.33	Framework Version
INSTRUMENTVERSION	LABEL	3.50	Instrument Version
ZCURVE	TABLE
	Pt	Time	Freq	Zreal	Zimag	Zsig	Zmod	Zphz	Idc	Vdc	IERange
	#	s	Hz	ohm	ohm	V	ohm	°	A	V	#
	0	2	1000078	2525.321	-2006.301	1	3225.289	-38.46621	-3.18967E-006	0.0123316	8
	1	3	794390.6	2938.022	-1977.108	1	3541.317	-33.93812	6.130293E-006	0.0106524	8
	2	5	630984.4	3310.316	-1919.78	1	3826.715	-30.1111	-1.363148E-006	0.0114325	8
	3	6	501234.4	3626.8	-1790.651	1	4044.763	-26.27683	-4.493555E-006	0.0123021	8
	4	8	398109.4	3941.616	-1653.325	1	4274.321	-22.75579	4.392373E-006	0.0103763	8
	5	9	316265.6	4182.403	-1513.518	1	4447.834	-19.89406	8.675399E-007	0.0108607	8
	6	10	251203.1	4372.209	-1364.108	1	4580.066	-17.32767	-2.984401E-006	0.0116858	8
	7	12	199546.9	4574.741	-1233.901	1	4738.224	-15.09464	1.092726E-006	0.010861	8
	8	13	158578.1	4689.318	-1136.145	1	4824.99	-13.61939	-1.964997E-008	0.0111682	8
	9	15	125953.1	4845.893	-966.295	1	4941.295	-11.27714	-3.040356E-008	0.0111868	7
	10	16	100078.1	4942.173	-912.4041	1	5025.689	-10.45994	-2.271796E-008	0.0110958	7
	11	17	79453.13	5031.882	-871.7327	1	5106.834	-9.82848	-1.90659E-008	0.0110002	7
	12	19	63140.62	5116.118	-852.4141	1	5186.644	-9.459355	9.337442E-008	0.0109647	7
	13	20	50203.12	5198.951	-850.1107	1	5267.996	-9.286582	1.374148E-007	0.0108214	7
	14	21	39890.62	5279.277	-865.8207	1	5349.805	-9.313802	4.182677E-008	0.010977	7
	15	23	31640.63	5364.742	-901.993	1	5440.042	-9.54408	8.34012E-008	0.0108478	7
	16	24	25171.88	5455.075	-955.109	1	5538.057	-9.93105	-3.75731E-008	0.0110392	7
	17	25	20015.62	5546.404	-1020.064	1	5639.426	-10.42107	-4.056023E-009	0.0110379	7
	18	27	15890.62	5661.845	-1122.404	1	5772.026	-11.21293	-1.901277E-008	0.0109983	7
	19	28	12609.37	5780.316	-1239.671	1	5911.754	-12.10453	4.003278E-008	0.0108954	7
	20	29	10078.13	5906.586	-1373.686	1	6064.22	-13.09245	8.522367E-009	0.0109524	7
	21	31	8015.625	6051.542	-1526.521	1	6241.108	-14.15769	9.647268E-008	0.0109618	7
	22	32	6328.125	6222.085	-1735.133	1	6459.492	-15.58202	-3.891392E-008	0.0110388	7
	23	33	5015.625	6411.959	-1964.981	1	6706.294	-17.03798	-3.946073E-008	0.0110418	7
	24	35	3984.375	6612.204	-2234.712	1	6979.626	-18.6736	-3.93857E-008	0.0110407	7
	25	36	3170.956	6867.25	-2531.514	1	7318.995	-20.23569	-2.079677E-008	0.011083	7
	26	37	2527.573	7141.331	-2869.369	1	7696.225	-21.89014	1.362071E-007	0.0108136	7
	27	39	1976.103	7474.019	-3287.921	1	8165.254	-23.74534	-3.80646E-008	0.0110397	7
	28	40	1577.524	7834.025	-3664.899	1	8648.897	-25.07104	1.36825E-007	0.010815	7
	29	41	1265.625	8176.568	-4212.866	1	9198.07	-27.25917	-3.798115E-008	0.0110423	7
	30	43	998.264	8604.416	-4809.069	1	9857.14	-29.20113	-2.877032E-009	0.0110705	6
	31	44	796.875	9024.779	-5481.703	1	10559.15	-31.27473	-4.239679E-009	0.0109348	6
	32	46	627.7902	9483.758	-6321.582	1	11397.55	-33.68621	-1.80781E-009	0.0108536	6
	33	47	505.5147	9913.79	-7251.701	1	12282.93	-36.18459	-1.006747E-008	0.0110299	6
	34	48	397.9953	10394.42	-8503.23	1	13429.4	-39.28513	1.011372E-009	0.0109799	6
	35	50	315.5048	10880.63	-10022.6	1	14793.26	-42.64946	2.63862E-011	0.0109805	6
	36	51	252.4038	11371.56	-11844.22	1	16419.44	-46.16635	8.496482E-010	0.0109726	6
	37	52	198.6229	11952.76	-14292.38	1	18631.71	-50.09415	4.150102E-010	0.0109726	6
	38	54	158.3615	12585.27	-17190.82	1	21305.25	-53.79242	4.573129E-010	0.0109727	6
	39	55	125.558	13340.22	-20893.86	1	24789.41	-57.44276	6.809124E-010	0.0109757	6
	40	56	100.4464	14252.47	-25282.54	1	29023.09	-60.58883	9.772124E-010	0.0109718	6
	41	58	79.00281	15384.28	-31207.38	1	34793.34	-63.75811	6.834995E-010	0.0109674	6
	42	59	63.3446	17009.14	-38194.11	1	41810.3	-65.99496	7.536098E-010	0.01097	6
	43	60	49.86702	18612.7	-46650.55	1	50226.55	-68.24892	-3.952852E-010	0.0109685	6
	44	62	39.72458	21385.11	-57001.19	1	60880.69	-69.43544	3.663363E-010	0.0109714	6
	45	63	31.6723	24598.53	-69710.38	1	73923.1	-70.56372	-3.803253E-010	0.0109707	6
	46	65	24.93351	29389.29	-85735.59	1	90632.89	-71.0788	1.973017E-010	0.0109705	6
	47	66	19.86229	35440.85	-104061.7	1	109931.3	-71.19243	2.665564E-010	0.0109839	5
	48	67	15.83615	43143.5	-124961.2	1	132199.3	-70.95251	9.603282E-010	0.0109806	5
	49	69	12.40079	55808.39	-154927.2	1	164672.4	-70.1898	-1.259797E-009	0.0109852	5
	50	70	9.93114	68010.32	-185505.3	1	197579.4	-69.86595	-3.906497E-010	0.0109813	5
	51	72	7.944915	85855.89	-219611.7	1	235797.7	-68.64729	8.52819E-010	0.010983	5
	52	73	6.317385	110016.2	-262679.8	1	284788.1	-67.27497	-5.206643E-011	0.0109879	5
	53	75	5.008013	141019.9	-310338.2	1	340876	-65.56261	2.959394E-010	0.0109809	5
	54	78	3.945707	181592	-364831.5	1	407526.3	-63.53853	1.319115E-011	0.0109746	5
	55	81	3.158693	227142.6	-419304.6	1	476875.4	-61.55504	1.734892E-010	0.0109949	5
	56	84	2.504006	284124.4	-480668.5	1	558362.7	-59.41256	-3.092951E-010	0.0109711	5
	57	87	1.998082	347717.7	-541843.8	1	643818.5	-57.31047	-1.856584E-010	0.0109502	5
	58	90	1.584686	419946.2	-605549.5	1	736915.9	-55.25885	-9.867639E-011	0.0110178	5
	59	93	1.266892	496091.7	-673985.6	1	836877.3	-53.64482	-1.61277E-010	0.0109487	5
	60	98	0.999041	581549.8	-750176.3	1	949191.6	-52.21653	1.486397E-010	0.0110237	5
