EXPLAIN
TAG	EISPOT
TITLE	LABEL	Potentiostatic EIS	Test &Identifier
DATE	LABEL	10/18/2019	Date
TIME	LABEL	9:33:30	Time
NOTES	NOTES	1	&Notes...
	
PSTAT	PSTAT	REF600-11020	Potentiostat
VDC	POTEN	0.00000E+000	T	DC &Voltage (V)
FREQINIT	QUANT	1.00000E+006	Initial Fre&q. (Hz)
FREQFINAL	QUANT	1.00000E+000	Final Fre&q. (Hz)
PTSPERDEC	QUANT	1.00000E+001	Points/&decade
VAC	QUANT	2.50000E+001	AC &Voltage (mV rms)
AREA	QUANT	1.00000E-002	&Area (cm^2)
CONDIT	TWOPARAM	T	5.00000E+000	0.00000E+000	Conditionin&g	Time(s)	E(V)
DELAY	TWOPARAM	T	5.00000E+000	0.00000E+000	Init. De&lay	Time(s)	Stab.(mV/s)
SPEED	SELECTOR	0	&Optimize for:
ZGUESS	QUANT	1.00000E+005	E&stimated Z (ohms)
OCVCURVE	TABLE	19
	Pt	T	Vf	Vm	Ach	Over
	#	s	V vs. Ref.	V	V	bits
	0	0.258333	6.20372E-003	6.20372E-003	5.07867E-004	...........
	1	0.516667	6.20288E-003	6.16012E-003	5.06633E-004	...........
	2	0.775	6.19789E-003	6.12534E-003	5.09767E-004	...........
	3	1.03333	6.18460E-003	6.11321E-003	5.08000E-004	...........
	4	1.29167	6.16345E-003	6.10419E-003	5.11133E-004	...........
	5	1.55	6.14035E-003	6.09776E-003	5.08967E-004	...........
	6	1.80833	6.12130E-003	6.09965E-003	5.05667E-004	...........
	7	2.06667	6.10865E-003	6.09694E-003	5.06267E-004	...........
	8	2.325	6.10185E-003	6.10301E-003	5.07500E-004	...........
	9	2.58333	6.09942E-003	6.10889E-003	5.04067E-004	...........
	10	2.84167	6.10025E-003	6.11583E-003	5.04033E-004	...........
	11	3.1	6.10355E-003	6.11763E-003	5.02267E-004	...........
	12	3.35833	6.10834E-003	6.12692E-003	5.05133E-004	...........
	13	3.61667	6.11380E-003	6.13459E-003	5.01367E-004	...........
	14	3.875	6.11996E-003	6.14964E-003	5.03700E-004	...........
	15	4.13333	6.12769E-003	6.17112E-003	5.09433E-004	...........
	16	4.39167	6.13803E-003	6.17865E-003	5.09133E-004	...........
	17	4.65	6.15077E-003	6.18703E-003	5.09233E-004	...........
	18	4.90833	6.16408E-003	6.19784E-003	5.07167E-004	...........
EOC	QUANT	0.0061641	Open Circuit (V)
PSTATMODEL	IQUANT	4	Pstat Model
PSTATSECTION	LABEL	REF600-11020	Pstat Section
PSTATSERIALNO	LABEL	11020	Pstat Serial Number
CTRLMODE	IQUANT	1	Control Mode
IESTAB	IQUANT	0	I/E Stability
CASPEED	IQUANT	1	Control Amp Speed
CONVENTION	IQUANT	1	Current Convention
ICHRANGE	IQUANT	2	Ich Range
ICHRANGEMODE	TOGGLE	F	Ich Auto Range
ICHOFFSETENABLE	TOGGLE	T	Ich Offset Enable
ICHOFFSET	QUANT	0	Ich Offset (V)
ICHFILTER	IQUANT	3	Ich Filter
VCHRANGE	IQUANT	2	Vch Range
VCHRANGEMODE	TOGGLE	F	Vch Auto Range
VCHOFFSETENABLE	TOGGLE	T	Vch Offset Enable
VCHOFFSET	QUANT	0	Vch Offset (V)
VCHFILTER	IQUANT	3	Vch Filter
ACHRANGE	IQUANT	2	Ach Range
ACHOFFSETENABLE	TOGGLE	F	Ach Offset Enable
ACHOFFSET	QUANT	0	Ach Offset (V)
ACHFILTER	IQUANT	3	Ach Filter
IERANGELOWERLIMIT	IQUANT	1	I/E Range Lower Limit
IERANGEMODE	TOGGLE	F	I/E AutoRange
IERANGE	IQUANT	5	I/E Range
POSFEEDENABLE	TOGGLE	F	Positive Feedback IR Comp
POSFEEDRESISTANCE	QUANT	0	Positive Feedback Resistance (ohm)
ACHSELECT	IQUANT	0	Ach Select
CABLEID	IQUANT	14	Cable ID
DCCALDATE	LABEL	8/19/2019	DC Calibration Date
ACCALDATE	LABEL	8/19/2019	AC Calibration Date
THERMOSELECT	IQUANT	1	Thermo Select
FRAMEWORKVERSION	QUANT	6.33	Framework Version
INSTRUMENTVERSION	LABEL	3.50	Instrument Version
ZCURVE	TABLE
	Pt	Time	Freq	Zreal	Zimag	Zsig	Zmod	Zphz	Idc	Vdc	IERange
	#	s	Hz	ohm	ohm	V	ohm	°	A	V	#
	0	1	1000078	2592.63	-1321.136	1	2909.834	-27.00219	2.035491E-006	0.0083237	8
	1	1	794390.6	2825.432	-1196.612	1	3068.378	-22.95338	4.352192E-006	0.0073567	8
	2	2	630984.4	3007.509	-1066.969	1	3191.165	-19.53308	3.612069E-006	0.0072638	8
	3	2	501234.4	3157.208	-912.876	1	3286.534	-16.12671	-5.296941E-006	0.0091445	8
	4	2	398109.4	3262.648	-790.0327	1	3356.937	-13.61186	2.364226E-007	0.0079108	8
	5	3	316265.6	3344.901	-671.1945	1	3411.578	-11.3464	-1.410793E-006	0.008197	8
	6	3	251203.1	3408.167	-579.9846	1	3457.164	-9.65779	3.955822E-006	0.0071518	8
	7	3	199546.9	3457.305	-518.2756	1	3495.936	-8.525576	3.761993E-006	0.0071636	8
	8	3	158578.1	3489.731	-437.2966	1	3517.023	-7.142479	-3.097532E-007	0.0080247	8
	9	4	125953.1	3554.894	-342.2057	1	3571.326	-5.498537	4.954535E-007	0.0065228	7
	10	4	100078.1	3554.223	-317.243	1	3568.353	-5.100593	-1.307758E-008	0.0078248	7
	11	4	79453.13	3578.74	-306.6103	1	3591.851	-4.896884	3.839662E-008	0.0077159	7
	12	5	63140.62	3602.601	-304.5599	1	3615.451	-4.832232	4.007807E-008	0.0077134	7
	13	5	50203.12	3629.11	-308.8188	1	3642.226	-4.863863	-1.525131E-008	0.0078108	7
	14	5	39890.62	3655.343	-320.1829	1	3669.339	-5.005939	9.86776E-009	0.0077701	7
	15	6	31640.63	3683.468	-339.5435	1	3699.084	-5.266663	3.711051E-008	0.0077115	7
	16	6	25171.88	3713.206	-367.8687	1	3731.384	-5.657852	-4.291448E-008	0.0078695	7
	17	6	20015.62	3742.157	-406.0249	1	3764.119	-6.192381	-3.669331E-008	0.0078724	7
	18	7	15890.62	3782.396	-449.827	1	3809.051	-6.782129	-4.349421E-008	0.0078687	7
	19	7	12609.37	3819.285	-503.0716	1	3852.275	-7.503732	3.774341E-008	0.0078037	7
	20	7	10078.13	3857.231	-575.3295	1	3899.902	-8.483471	-5.619594E-008	0.0080106	7
	21	8	8015.625	3898.637	-655.9872	1	3953.441	-9.55116	-3.980308E-008	0.0078661	7
	22	8	6328.125	3948.788	-764.344	1	4022.083	-10.95494	1.342284E-007	0.0076319	7
	23	8	5015.625	3999.217	-894.9774	1	4098.136	-12.61428	-7.6784E-009	0.0078757	7
	24	9	3984.375	4050.078	-1044.64	1	4182.631	-14.46312	6.470957E-008	0.0077276	7
	25	9	3170.956	4116.706	-1248.831	1	4301.958	-16.87554	1.055687E-008	0.0077596	7
	26	9	2527.573	4185.686	-1486.15	1	4441.69	-19.54768	-1.575605E-008	0.0078766	7
	27	9	1976.103	4271.868	-1806.894	1	4638.289	-22.92715	1.349129E-007	0.0076274	7
	28	10	1577.524	4355.585	-2159.491	1	4861.536	-26.37213	-1.768601E-008	0.0079779	7
	29	10	1265.625	4464.164	-2587.483	1	5159.828	-30.09709	-5.779616E-008	0.0079987	7
	30	10	998.264	4590.781	-3152.188	1	5568.803	-34.47483	-4.13224E-008	0.0078555	7
	31	11	796.875	4736.238	-3807.667	1	6077.029	-38.79731	8.203539E-008	0.0077769	7
	32	11	627.7902	4908.717	-4666.704	1	6773.007	-43.55219	-1.421298E-008	0.0077999	7
	33	11	505.5147	5102.491	-5622.535	1	7592.648	-47.77603	-1.493684E-009	0.007843	7
	34	12	397.9953	5362.645	-6922.624	1	8756.75	-52.23667	2.958247E-009	0.0078476	7
	35	12	315.5048	5681.729	-8484.198	1	10210.96	-56.19043	-4.775566E-011	0.0077877	6
	36	12	252.4038	6055.813	-10327.83	1	11972.34	-59.6144	1.159614E-009	0.0077843	6
	37	13	198.6229	6577.837	-12762.82	1	14358.18	-62.73384	2.054291E-010	0.0077873	6
	38	13	158.3615	7219.651	-15592.74	1	17183.04	-65.15521	-6.512989E-010	0.007782	6
	39	13	125.558	8074.008	-19134.55	1	20768.26	-67.12222	9.803845E-011	0.0077832	6
	40	14	100.4464	9102.718	-23274.39	1	24991.13	-68.63931	1.098449E-009	0.0077813	6
	41	14	79.00281	10589.83	-28598.49	1	30496.2	-69.68074	1.464509E-010	0.0077772	6
	42	14	63.3446	13114.12	-34836.87	1	37223.48	-69.37147	6.726634E-010	0.007778	6
	43	15	49.86702	15547.92	-42660.22	1	45405.2	-69.97525	4.33338E-010	0.0077745	6
	44	15	39.72458	18602.82	-51166.01	1	54442.86	-70.01986	6.610987E-010	0.0077815	6
	45	15	31.6723	22647.61	-61624.36	1	65654.21	-69.82108	2.838198E-010	0.0077793	6
	46	16	24.93351	28738.12	-74499.08	1	79849.81	-68.90581	9.638722E-013	0.0077807	6
	47	16	19.86229	35957.08	-88905.74	1	95901.7	-67.9796	-1.49435E-009	0.0077832	6
	48	16	15.83615	46153.04	-103219.6	1	113068.1	-65.90894	2.893137E-009	0.0077821	5
	49	17	12.40079	56845.71	-124955.6	1	137278.3	-65.53791	-7.001121E-010	0.0077836	5
	50	17	9.93114	70694.66	-144686.5	1	161034	-63.9596	-6.515504E-010	0.0077921	5
	51	18	7.944915	87021.42	-167184.1	1	188476.1	-62.50245	3.827956E-010	0.0077749	5
	52	18	6.317385	106204.3	-193335.2	1	220585.3	-61.21881	5.218446E-010	0.0077697	5
	53	19	5.008013	129149.9	-222364.4	1	257149	-59.85186	-3.2862E-011	0.0077699	5
	54	20	3.945707	155911.3	-255351.7	1	299186.9	-58.59281	2.715011E-010	0.0077795	5
	55	21	3.158693	184158.2	-289413.3	1	343036.9	-57.53077	-1.687865E-010	0.0077694	5
	56	23	2.504006	216277.8	-329202.8	1	393891.6	-56.69612	1.752638E-012	0.0077651	5
	57	24	1.998082	250279.8	-373703.7	1	449771.5	-56.18867	1.843288E-010	0.007807	5
	58	26	1.584686	287529.6	-425450.3	1	513499	-55.94822	2.304555E-011	0.0077669	5
	59	28	1.266892	328729.5	-484553.7	1	585538.5	-55.84636	-4.072753E-011	0.0077405	5
	60	30	0.999041	376313.9	-559860.4	1	674578.3	-56.09272	-7.157927E-011	0.0077338	5
