EXPLAIN
TAG	EISPOT
TITLE	LABEL	Potentiostatic EIS	Test &Identifier
DATE	LABEL	10/10/2019	Date
TIME	LABEL	10:28:55	Time
NOTES	NOTES	1	&Notes...
	
PSTAT	PSTAT	REF600-11020	Potentiostat
VDC	POTEN	0.00000E+000	T	DC &Voltage (V)
FREQINIT	QUANT	1.00000E+006	Initial Fre&q. (Hz)
FREQFINAL	QUANT	1.00000E+000	Final Fre&q. (Hz)
PTSPERDEC	QUANT	1.00000E+001	Points/&decade
VAC	QUANT	2.50000E+001	AC &Voltage (mV rms)
AREA	QUANT	1.00000E-002	&Area (cm^2)
CONDIT	TWOPARAM	T	5.00000E+000	0.00000E+000	Conditionin&g	Time(s)	E(V)
DELAY	TWOPARAM	T	5.00000E+000	0.00000E+000	Init. De&lay	Time(s)	Stab.(mV/s)
SPEED	SELECTOR	1	&Optimize for:
ZGUESS	QUANT	1.00000E+004	E&stimated Z (ohms)
OCVCURVE	TABLE	19
	Pt	T	Vf	Vm	Ach	Over
	#	s	V vs. Ref.	V	V	bits
	0	0.258333	4.44087E-003	4.44087E-003	5.42833E-004	...........
	1	0.516667	4.43539E-003	4.15437E-003	5.52466E-004	...........
	2	0.775	4.40056E-003	3.81879E-003	5.51266E-004	...........
	3	1.03333	4.29614E-003	3.40138E-003	5.49099E-004	...........
	4	1.29167	4.09321E-003	2.98542E-003	5.52899E-004	...........
	5	1.55	3.79998E-003	2.84614E-003	5.54099E-004	...........
	6	1.80833	3.46897E-003	2.86863E-003	5.54133E-004	...........
	7	2.06667	3.17621E-003	2.76641E-003	5.53799E-004	...........
	8	2.325	2.96755E-003	2.53053E-003	5.52432E-004	...........
	9	2.58333	2.82513E-003	2.42776E-003	5.57399E-004	...........
	10	2.84167	2.70223E-003	2.29637E-003	5.54466E-004	...........
	11	3.1	2.57420E-003	2.18168E-003	5.51366E-004	...........
	12	3.35833	2.44321E-003	2.08844E-003	5.52566E-004	...........
	13	3.61667	2.31767E-003	1.97990E-003	5.46999E-004	...........
	14	3.875	2.20105E-003	1.86121E-003	5.50233E-004	...........
	15	4.13333	2.09157E-003	1.79841E-003	5.49333E-004	...........
	16	4.39167	1.98786E-003	1.71882E-003	5.49899E-004	...........
	17	4.65	1.89230E-003	1.66271E-003	5.51832E-004	...........
	18	4.90833	1.80727E-003	1.58203E-003	5.52232E-004	...........
EOC	QUANT	0.0018073	Open Circuit (V)
PSTATMODEL	IQUANT	4	Pstat Model
PSTATSECTION	LABEL	REF600-11020	Pstat Section
PSTATSERIALNO	LABEL	11020	Pstat Serial Number
CTRLMODE	IQUANT	1	Control Mode
IESTAB	IQUANT	0	I/E Stability
CASPEED	IQUANT	1	Control Amp Speed
CONVENTION	IQUANT	1	Current Convention
ICHRANGE	IQUANT	2	Ich Range
ICHRANGEMODE	TOGGLE	F	Ich Auto Range
ICHOFFSETENABLE	TOGGLE	T	Ich Offset Enable
ICHOFFSET	QUANT	0	Ich Offset (V)
ICHFILTER	IQUANT	3	Ich Filter
VCHRANGE	IQUANT	2	Vch Range
VCHRANGEMODE	TOGGLE	F	Vch Auto Range
VCHOFFSETENABLE	TOGGLE	T	Vch Offset Enable
VCHOFFSET	QUANT	0	Vch Offset (V)
VCHFILTER	IQUANT	3	Vch Filter
ACHRANGE	IQUANT	2	Ach Range
ACHOFFSETENABLE	TOGGLE	F	Ach Offset Enable
ACHOFFSET	QUANT	0	Ach Offset (V)
ACHFILTER	IQUANT	3	Ach Filter
IERANGELOWERLIMIT	IQUANT	1	I/E Range Lower Limit
IERANGEMODE	TOGGLE	F	I/E AutoRange
IERANGE	IQUANT	5	I/E Range
POSFEEDENABLE	TOGGLE	F	Positive Feedback IR Comp
POSFEEDRESISTANCE	QUANT	0	Positive Feedback Resistance (ohm)
ACHSELECT	IQUANT	0	Ach Select
CABLEID	IQUANT	14	Cable ID
DCCALDATE	LABEL	8/19/2019	DC Calibration Date
ACCALDATE	LABEL	8/19/2019	AC Calibration Date
THERMOSELECT	IQUANT	1	Thermo Select
FRAMEWORKVERSION	QUANT	6.33	Framework Version
INSTRUMENTVERSION	LABEL	3.50	Instrument Version
ZCURVE	TABLE
	Pt	Time	Freq	Zreal	Zimag	Zsig	Zmod	Zphz	Idc	Vdc	IERange
	#	s	Hz	ohm	ohm	V	ohm	°	A	V	#
	0	2	1000078	2664.835	-2210.839	1	3462.535	-39.68027	-3.871161E-006	0.0046486	8
	1	3	794390.6	3138.104	-2200.592	1	3832.793	-35.04001	-2.263042E-006	0.0043537	8
	2	5	630984.4	3563.573	-2111.724	1	4142.274	-30.6504	2.247374E-006	0.0030438	8
	3	6	501234.4	3973.258	-1954	1	4427.741	-26.1874	-4.394919E-007	0.0034694	8
	4	7	398109.4	4302.933	-1751.652	1	4645.807	-22.15042	4.114486E-006	0.0026106	8
	5	9	316265.6	4565.455	-1546.543	1	4820.288	-18.71375	-1.608813E-006	0.0036391	8
	6	10	251203.1	4769.785	-1347.738	1	4956.536	-15.77803	-8.504304E-007	0.0036915	8
	7	11	199546.9	4930.896	-1175.154	1	5068.996	-13.40493	-1.212288E-006	0.0036052	8
	8	13	158578.1	5033.997	-1001.582	1	5132.669	-11.25282	1.719751E-007	0.003283	8
	9	14	125953.1	5163.944	-802.9739	1	5226	-8.838497	1.357721E-006	0.0007962	7
	10	16	100078.1	5202.613	-705.0826	1	5250.173	-7.717971	9.981815E-009	0.003427	7
	11	17	79453.13	5255.259	-634.2412	1	5293.393	-6.881571	-4.04938E-008	0.0033179	7
	12	18	63140.62	5303.001	-581.6346	1	5334.803	-6.259198	-3.996561E-008	0.0033255	7
	13	20	50203.12	5345.615	-549.7159	1	5373.805	-5.871368	-5.844468E-008	0.0035087	7
	14	21	39890.62	5386.733	-531.8055	1	5412.92	-5.638258	-5.788056E-008	0.0033773	7
	15	22	31640.63	5429.774	-528.9848	1	5455.481	-5.564366	-3.958899E-008	0.003414	7
	16	24	25171.88	5472.126	-539.278	1	5498.635	-5.628325	7.146674E-008	0.0032012	7
	17	25	20015.62	5538.066	-571.2542	1	5567.451	-5.889259	-6.500809E-008	0.0034259	7
	18	27	15890.62	5561.085	-603.6506	1	5593.752	-6.195147	-6.721308E-008	0.0034225	7
	19	28	12609.37	5612.958	-660.7643	1	5651.718	-6.714028	-4.552576E-008	0.0033592	7
	20	29	10078.13	5661.801	-732.6929	1	5709.013	-7.373659	-3.847636E-008	0.0033186	7
	21	31	8015.625	5713.206	-822.8463	1	5772.157	-8.195685	-7.04979E-008	0.0034216	7
	22	32	6328.125	5776.16	-944.7598	1	5852.913	-9.289154	9.430268E-008	0.0032441	7
	23	33	5015.625	5841.767	-1092.571	1	5943.06	-10.5935	4.93403E-008	0.003155	7
	24	35	3984.375	5906.415	-1273.808	1	6042.211	-12.17031	7.106199E-008	0.0031944	7
	25	36	3170.956	5990.567	-1504.04	1	6176.49	-14.09382	-6.440644E-008	0.0034022	7
	26	38	2527.573	6078.304	-1778.914	1	6333.271	-16.31297	9.962589E-008	0.0032297	7
	27	39	1976.103	6187.385	-2146.754	1	6549.22	-19.13455	-5.564748E-008	0.0034978	7
	28	41	1577.524	6330.641	-2565.695	1	6830.799	-22.06183	1.008545E-007	0.003237	7
	29	42	1265.625	6441.267	-3050.532	1	7127.108	-25.34186	8.849578E-008	0.0031207	7
	30	43	998.264	6608.468	-3695.343	1	7571.486	-29.21318	4.387011E-008	0.0031576	7
	31	45	796.875	6805.54	-4436.44	1	8123.877	-33.09979	-1.25528E-010	0.0033264	7
	32	46	627.7902	7046.934	-5410.303	1	8884.293	-37.51535	8.912211E-008	0.0031178	7
	33	48	505.5147	7294.453	-6461.52	1	9744.76	-41.53493	8.854767E-008	0.0031139	7
	34	49	397.9953	7612.057	-7900.51	1	10970.94	-46.06528	3.704264E-010	0.0032506	6
	35	50	315.5048	7977.783	-9627.06	1	12503.01	-50.35203	1.104148E-009	0.0032512	6
	36	52	252.4038	8398.955	-11663.65	1	14373	-54.24247	1.734527E-009	0.0032496	6
	37	53	198.6229	8951.991	-14364.81	1	16925.89	-58.06929	1.254581E-009	0.0032527	6
	38	54	158.3615	9613.51	-17510.81	1	19976.18	-61.23302	1.217236E-009	0.003252	6
	39	56	125.558	10463.83	-21461.32	1	23876.35	-64.00766	3.208049E-010	0.0032573	6
	40	57	100.4464	11520.96	-26095.94	1	28525.96	-66.17927	1.790705E-009	0.0032513	6
	41	58	79.00281	12918.51	-32191.57	1	34686.95	-68.13435	1.787805E-009	0.0032525	6
	42	60	63.3446	14797.32	-39571.88	1	42248	-69.49746	6.129701E-010	0.0032512	6
	43	61	49.86702	16881.95	-47977.23	1	50860.74	-70.61434	4.51307E-010	0.0032471	6
	44	63	39.72458	20225.47	-58436.19	1	61837.35	-70.90865	1.171713E-009	0.0032523	6
	45	64	31.6723	24057.42	-70924.1	1	74893.17	-71.26309	5.408641E-010	0.0032468	6
	46	65	24.93351	29730.87	-86675.62	1	91632.89	-71.06736	5.509092E-010	0.0032511	6
	47	67	19.86229	36813.32	-104713.3	1	110995.9	-70.63022	4.284349E-010	0.0032534	5
	48	68	15.83615	44938.16	-125260	1	133077.1	-70.26409	5.36288E-010	0.0032526	5
	49	69	12.40079	59389.72	-151593.4	1	162811.8	-68.60625	-1.110155E-009	0.0032603	5
	50	71	9.93114	72659.45	-180510.7	1	194585.5	-68.07415	-8.674478E-011	0.0032537	5
	51	72	7.944915	91235.3	-212979.1	1	231698.1	-66.81084	2.399632E-010	0.0032494	5
	52	74	6.317385	114966.5	-249918.9	1	275094.1	-65.29684	7.156911E-010	0.0032458	5
	53	76	5.008013	144749.5	-292642.1	1	326484	-63.68164	9.388052E-011	0.0032608	5
	54	79	3.945707	181448.8	-340500.4	1	385829.2	-61.94736	3.940821E-011	0.0032544	5
	55	81	3.158693	221528.1	-388221.9	1	446979.8	-60.28996	1.169023E-011	0.0032477	5
	56	85	2.504006	269053.3	-442593	1	517955.8	-58.70449	3.674715E-010	0.0032611	5
	57	87	1.998082	319143.2	-502804.5	1	595537.4	-57.59563	4.54259E-010	0.0032512	5
	58	91	1.584686	378793.7	-568626.5	1	683242.8	-56.33021	6.742776E-011	0.0032079	5
	59	94	1.266892	439555.5	-639518.7	1	776011.1	-55.49839	3.20912E-010	0.003256	5
	60	98	0.999041	510246.8	-730151.8	1	890771.2	-55.05327	-6.181783E-011	0.0032319	5
