EXPLAIN
TAG	EISPOT
TITLE	LABEL	Potentiostatic IDE	Test &Identifier
DATE	LABEL	9/14/2019	Date
TIME	LABEL	9:40:22	Time
NOTES	NOTES	1	&Notes...
	
PSTAT	PSTAT	REF600-11020	Potentiostat
VDC	POTEN	0.00000E+000	T	DC &Voltage (V)
FREQINIT	QUANT	1.00000E+006	Initial Fre&q. (Hz)
FREQFINAL	QUANT	1.00000E+000	Final Fre&q. (Hz)
PTSPERDEC	QUANT	1.00000E+001	Points/&decade
VAC	QUANT	2.50000E+001	AC &Voltage (mV rms)
AREA	QUANT	1.00000E-002	&Area (cm^2)
CONDIT	TWOPARAM	T	5.00000E+000	0.00000E+000	Conditionin&g	Time(s)	E(V)
DELAY	TWOPARAM	T	5.00000E+000	0.00000E+000	Init. De&lay	Time(s)	Stab.(mV/s)
SPEED	SELECTOR	1	&Optimize for:
ZGUESS	QUANT	1.00000E+007	E&stimated Z (ohms)
OCVCURVE	TABLE	19
	Pt	T	Vf	Vm	Ach	Over
	#	s	V vs. Ref.	V	V	bits
	0	0.258333	1.33870E-003	1.33870E-003	5.64132E-004	...........
	1	0.516667	1.33082E-003	9.26543E-004	5.62799E-004	...........
	2	0.775	1.28045E-003	4.30081E-004	5.62566E-004	...........
	3	1.03333	1.13515E-003	1.58204E-004	5.61932E-004	...........
	4	1.29167	8.81948E-004	3.92383E-005	5.60632E-004	...........
	5	1.55	5.76620E-004	-1.44423E-004	5.60432E-004	...........
	6	1.80833	2.88772E-004	-4.91415E-004	5.61866E-004	...........
	7	2.06667	3.42711E-005	-8.68772E-004	5.63599E-004	...........
	8	2.325	-2.16971E-004	-9.91982E-004	5.64566E-004	...........
	9	2.58333	-4.78100E-004	-1.03437E-003	5.64166E-004	...........
	10	2.84167	-7.18035E-004	-1.09211E-003	5.62899E-004	...........
	11	3.1	-8.94863E-004	-9.09492E-004	5.60666E-004	...........
	12	3.35833	-9.95441E-004	-1.30071E-003	5.59099E-004	...........
	13	3.61667	-1.06093E-003	-1.83057E-003	5.60666E-004	...........
	14	3.875	-1.17412E-003	-1.94809E-003	5.59832E-004	...........
	15	4.13333	-1.38927E-003	-2.62384E-003	5.53666E-004	...........
	16	4.39167	-1.69320E-003	-2.56429E-003	5.56499E-004	...........
	17	4.65	-1.80062E-003	9.21613E-003	5.59232E-004	...........
	18	4.90833	-4.62512E-004	3.27755E-002	5.53133E-004	.........v.
EOC	QUANT	-0.0004625	Open Circuit (V)
PSTATMODEL	IQUANT	4	Pstat Model
PSTATSECTION	LABEL	REF600-11020	Pstat Section
PSTATSERIALNO	LABEL	11020	Pstat Serial Number
CTRLMODE	IQUANT	1	Control Mode
IESTAB	IQUANT	0	I/E Stability
CASPEED	IQUANT	1	Control Amp Speed
CONVENTION	IQUANT	1	Current Convention
ICHRANGE	IQUANT	2	Ich Range
ICHRANGEMODE	TOGGLE	F	Ich Auto Range
ICHOFFSETENABLE	TOGGLE	T	Ich Offset Enable
ICHOFFSET	QUANT	0	Ich Offset (V)
ICHFILTER	IQUANT	3	Ich Filter
VCHRANGE	IQUANT	2	Vch Range
VCHRANGEMODE	TOGGLE	F	Vch Auto Range
VCHOFFSETENABLE	TOGGLE	T	Vch Offset Enable
VCHOFFSET	QUANT	0	Vch Offset (V)
VCHFILTER	IQUANT	3	Vch Filter
ACHRANGE	IQUANT	2	Ach Range
ACHOFFSETENABLE	TOGGLE	F	Ach Offset Enable
ACHOFFSET	QUANT	0	Ach Offset (V)
ACHFILTER	IQUANT	3	Ach Filter
IERANGELOWERLIMIT	IQUANT	1	I/E Range Lower Limit
IERANGEMODE	TOGGLE	F	I/E AutoRange
IERANGE	IQUANT	1	I/E Range
POSFEEDENABLE	TOGGLE	F	Positive Feedback IR Comp
POSFEEDRESISTANCE	QUANT	0	Positive Feedback Resistance (ohm)
ACHSELECT	IQUANT	0	Ach Select
CABLEID	IQUANT	14	Cable ID
DCCALDATE	LABEL	8/19/2019	DC Calibration Date
ACCALDATE	LABEL	8/19/2019	AC Calibration Date
THERMOSELECT	IQUANT	1	Thermo Select
FRAMEWORKVERSION	QUANT	6.33	Framework Version
INSTRUMENTVERSION	LABEL	3.50	Instrument Version
ZCURVE	TABLE
	Pt	Time	Freq	Zreal	Zimag	Zsig	Zmod	Zphz	Idc	Vdc	IERange
	#	s	Hz	ohm	ohm	V	ohm	°	A	V	#
	0	2	1000078	2313.306	-1775.515	1	2916.135	-37.50706	-1.128577E-007	0.0020815	8
	1	4	794390.6	2676.624	-1727.367	1	3185.611	-32.8363	-8.591207E-007	0.0017988	8
	2	5	630984.4	3011.349	-1619.553	1	3419.236	-28.27209	-3.541323E-006	0.0020782	8
	3	6	501234.4	3303.714	-1464.04	1	3613.577	-23.90052	-2.450265E-007	0.001087	8
	4	8	398109.4	3519.679	-1265.317	1	3740.209	-19.7734	2.249378E-006	0.0006727	8
	5	9	316265.6	3672.835	-1133.529	1	3843.775	-17.15154	4.619611E-006	5.467262E-005	8
	6	10	251203.1	3827.217	-972.857	1	3948.929	-14.26221	-2.468182E-008	0.0011665	8
	7	12	199546.9	3923.387	-847.0215	1	4013.777	-12.18263	-9.079836E-008	0.0013028	8
	8	13	158578.1	4015.167	-724.2595	1	4079.965	-10.22511	-1.640528E-006	0.001426	8
	9	15	125953.1	4079.48	-584.2661	1	4121.107	-8.150517	2.698236E-008	0.0012515	7
	10	16	100078.1	4113.276	-530.25	1	4147.313	-7.345592	2.732404E-009	0.0010496	7
	11	17	79453.13	4152.084	-488.7807	1	4180.754	-6.713923	1.863457E-008	0.0009722	7
	12	19	63140.62	4191.898	-464.7964	1	4217.588	-6.327094	-8.816047E-009	0.001011	7
	13	20	50203.12	4224.48	-454.5056	1	4248.859	-6.140749	1.171016E-008	0.0011336	7
	14	21	39890.62	4253.446	-450.7834	1	4277.266	-6.049668	6.181391E-008	0.0009375	7
	15	23	31640.63	4298.964	-470.5775	1	4324.643	-6.246896	7.694094E-008	0.0008884	7
	16	24	25171.88	4338.528	-496.7407	1	4366.873	-6.531649	4.054534E-008	0.0009959	7
	17	25	20015.62	4382.783	-533.913	1	4415.184	-6.94558	-6.247962E-008	0.0011557	7
	18	27	15890.62	4438.727	-593.2094	1	4478.191	-7.612133	-7.13402E-008	0.0011353	7
	19	28	12609.37	4482.157	-648.408	1	4528.814	-8.231546	4.474434E-008	0.0009157	7
	20	29	10078.13	4538.143	-725.6675	1	4595.795	-9.084918	-3.916957E-009	0.0009873	7
	21	31	8015.625	4600.168	-821.3776	1	4672.923	-10.12369	-5.199944E-009	0.0010278	7
	22	32	6328.125	4670.978	-942.7412	1	4765.165	-11.41069	-6.258276E-008	0.0011461	7
	23	33	5015.625	4746.936	-1087.027	1	4869.808	-12.89809	6.34391E-008	0.0009341	7
	24	35	3984.375	4828.382	-1261.392	1	4990.43	-14.64103	6.920447E-009	0.0010255	7
	25	36	3170.956	4918.632	-1469.309	1	5133.402	-16.6321	-8.376935E-009	0.0010882	7
	26	37	2527.573	5018.046	-1720.669	1	5304.855	-18.92665	6.552376E-008	0.0009431	7
	27	39	1976.103	5135.721	-2056.086	1	5532.009	-21.8187	-3.625262E-008	0.0011277	7
	28	40	1577.524	5260.055	-2431.214	1	5794.737	-24.80653	-6.885394E-008	0.0011285	7
	29	41	1265.625	5398.708	-2872.091	1	6115.142	-28.01279	2.045198E-008	0.0009432	7
	30	43	998.264	5562.683	-3459.554	1	6550.722	-31.87838	4.617388E-008	0.0009877	7
	31	44	796.875	5746.171	-4140.898	1	7082.762	-35.77788	6.037343E-009	0.0010129	7
	32	45	627.7902	5970.039	-5017.859	1	7798.735	-40.04729	7.983682E-008	0.0008733	7
	33	47	505.5147	6209.173	-6000.464	1	8634.778	-44.02069	-1.341406E-008	0.0010775	7
	34	48	397.9953	6506.292	-7314.149	1	9789.21	-48.34535	6.588416E-009	0.0010509	7
	35	49	315.5048	6854.227	-8890.023	1	11225.55	-52.3677	8.47683E-010	0.0009913	6
	36	51	252.4038	7242.174	-10745.02	1	12957.8	-56.01992	6.392391E-010	0.0009912	6
	37	52	198.6229	7740.966	-13197.34	1	15300.07	-59.60602	1.52122E-009	0.0009919	6
	38	53	158.3615	8305.846	-16060.18	1	18080.83	-62.65334	1.807276E-009	0.0009895	6
	39	55	125.558	9012.833	-19664.51	1	21631.55	-65.3766	1.37546E-009	0.0009856	6
	40	56	100.4464	9855.11	-23901.01	1	25853.08	-67.59216	4.985906E-010	0.0009896	6
	41	57	79.00281	11071.58	-29607.58	1	31609.95	-69.49702	1.332538E-009	0.0009885	6
	42	59	63.3446	12244.47	-35627.11	1	37672.51	-71.03297	1.342435E-009	0.0009868	6
	43	60	49.86702	14529.25	-44607.66	1	46914.2	-71.95895	1.172809E-010	0.0009821	6
	44	61	39.72458	16643.46	-54250.32	1	56745.94	-72.9445	1.338723E-009	0.0009884	6
	45	63	31.6723	19942.74	-66154.15	1	69094.75	-73.22411	1.775752E-009	0.0009864	6
	46	64	24.93351	24086.51	-81597.21	1	85077.99	-73.55404	6.797062E-010	0.0009842	6
	47	65	19.86229	29609.47	-99384.8	1	103701.8	-73.40977	1.327845E-009	0.0009934	6
	48	67	15.83615	36305.5	-118893.8	1	124313.4	-73.01938	1.765241E-009	0.0009902	5
	49	68	12.40079	45510.32	-147541.7	1	154401.2	-72.85723	3.048604E-011	0.0009846	5
	50	70	9.93114	58862.82	-176820.1	1	186360.4	-71.58758	7.283635E-010	0.0009866	5
	51	71	7.944915	74486.05	-211682	1	224404.7	-70.6142	3.530715E-010	0.0009961	5
	52	73	6.317385	94921.66	-251213	1	268548.1	-69.30076	7.521873E-010	0.0009871	5
	53	75	5.008013	121517.7	-299499.2	1	323212.5	-67.91582	4.773813E-010	0.0009932	5
	54	77	3.945707	155748	-354635.1	1	387328.7	-66.28997	4.159846E-010	0.0009946	5
	55	80	3.158693	194833.8	-413298.9	1	456920.3	-64.76028	6.890223E-011	0.0009807	5
	56	83	2.504006	244804.4	-481433.6	1	540099.6	-63.0471	6.747959E-010	0.000994	5
	57	86	1.998082	303340.2	-553319.2	1	631013	-61.2676	3.095275E-010	0.0010368	5
	58	89	1.584686	370959.3	-633609.7	1	734215.3	-59.65231	4.341418E-010	0.0009941	5
	59	93	1.266892	450686.1	-718627.8	1	848259.3	-57.9062	2.158972E-010	0.001039	5
	60	97	0.999041	544270.7	-813352.5	1	978659	-56.21077	2.753041E-010	0.0009548	5
