EXPLAIN
TAG	EISPOT
TITLE	LABEL	Potentiostatic EIS	Test &Identifier
DATE	LABEL	11/5/2019	Date
TIME	LABEL	9:19:49	Time
NOTES	NOTES	2	&Notes...
	
	
PSTAT	PSTAT	REF600-11020	Potentiostat
VDC	POTEN	0.00000E+000	T	DC &Voltage (V)
FREQINIT	QUANT	1.00000E+006	Initial Fre&q. (Hz)
FREQFINAL	QUANT	1.00000E+000	Final Fre&q. (Hz)
PTSPERDEC	QUANT	1.00000E+001	Points/&decade
VAC	QUANT	2.50000E+001	AC &Voltage (mV rms)
AREA	QUANT	1.00000E-002	&Area (cm^2)
CONDIT	TWOPARAM	T	5.00000E+000	0.00000E+000	Conditionin&g	Time(s)	E(V)
DELAY	TWOPARAM	T	5.00000E+000	0.00000E+000	Init. De&lay	Time(s)	Stab.(mV/s)
SPEED	SELECTOR	1	&Optimize for:
ZGUESS	QUANT	1.00000E+005	E&stimated Z (ohms)
OCVCURVE	TABLE	19
	Pt	T	Vf	Vm	Ach	Over
	#	s	V vs. Ref.	V	V	bits
	0	0.258333	3.93593E-003	3.93593E-003	5.38666E-004	...........
	1	0.516667	3.93312E-003	3.78845E-003	5.46999E-004	...........
	2	0.775	3.91595E-003	3.65576E-003	5.48666E-004	...........
	3	1.03333	3.86822E-003	3.54825E-003	5.38766E-004	...........
	4	1.29167	3.78550E-003	3.45249E-003	5.36366E-004	...........
	5	1.55	3.68085E-003	3.36821E-003	5.41966E-004	...........
	6	1.80833	3.57256E-003	3.30015E-003	5.44566E-004	...........
	7	2.06667	3.47257E-003	3.22701E-003	5.38499E-004	...........
	8	2.325	3.38438E-003	3.15861E-003	5.41899E-004	...........
	9	2.58333	3.30605E-003	3.09626E-003	5.46833E-004	...........
	10	2.84167	3.23440E-003	3.04261E-003	5.43699E-004	...........
	11	3.1	3.16784E-003	2.99050E-003	5.34866E-004	...........
	12	3.35833	3.10612E-003	2.93685E-003	5.37966E-004	...........
	13	3.61667	3.04876E-003	2.88948E-003	5.44933E-004	...........
	14	3.875	2.99477E-003	2.84146E-003	5.42033E-004	...........
	15	4.13333	2.94346E-003	2.80264E-003	5.32900E-004	...........
	16	4.39167	2.89496E-003	2.76778E-003	5.41066E-004	...........
	17	4.65	2.84998E-003	2.73264E-003	5.45499E-004	...........
	18	4.90833	2.80879E-003	2.69200E-003	5.37466E-004	...........
EOC	QUANT	0.0028088	Open Circuit (V)
PSTATMODEL	IQUANT	4	Pstat Model
PSTATSECTION	LABEL	REF600-11020	Pstat Section
PSTATSERIALNO	LABEL	11020	Pstat Serial Number
CTRLMODE	IQUANT	1	Control Mode
IESTAB	IQUANT	0	I/E Stability
CASPEED	IQUANT	1	Control Amp Speed
CONVENTION	IQUANT	1	Current Convention
ICHRANGE	IQUANT	2	Ich Range
ICHRANGEMODE	TOGGLE	F	Ich Auto Range
ICHOFFSETENABLE	TOGGLE	T	Ich Offset Enable
ICHOFFSET	QUANT	0	Ich Offset (V)
ICHFILTER	IQUANT	3	Ich Filter
VCHRANGE	IQUANT	2	Vch Range
VCHRANGEMODE	TOGGLE	F	Vch Auto Range
VCHOFFSETENABLE	TOGGLE	T	Vch Offset Enable
VCHOFFSET	QUANT	0	Vch Offset (V)
VCHFILTER	IQUANT	3	Vch Filter
ACHRANGE	IQUANT	2	Ach Range
ACHOFFSETENABLE	TOGGLE	F	Ach Offset Enable
ACHOFFSET	QUANT	0	Ach Offset (V)
ACHFILTER	IQUANT	3	Ach Filter
IERANGELOWERLIMIT	IQUANT	1	I/E Range Lower Limit
IERANGEMODE	TOGGLE	F	I/E AutoRange
IERANGE	IQUANT	4	I/E Range
POSFEEDENABLE	TOGGLE	F	Positive Feedback IR Comp
POSFEEDRESISTANCE	QUANT	0	Positive Feedback Resistance (ohm)
ACHSELECT	IQUANT	0	Ach Select
CABLEID	IQUANT	14	Cable ID
DCCALDATE	LABEL	8/19/2019	DC Calibration Date
ACCALDATE	LABEL	8/19/2019	AC Calibration Date
THERMOSELECT	IQUANT	1	Thermo Select
FRAMEWORKVERSION	QUANT	6.33	Framework Version
INSTRUMENTVERSION	LABEL	3.50	Instrument Version
ZCURVE	TABLE
	Pt	Time	Freq	Zreal	Zimag	Zsig	Zmod	Zphz	Idc	Vdc	IERange
	#	s	Hz	ohm	ohm	V	ohm	°	A	V	#
	0	1	1000078	2156.156	-1682.662	1	2735.025	-37.96844	-3.261363E-006	0.0056517	8
	1	3	794390.6	2516.953	-1649.074	1	3009.069	-33.23228	5.792957E-007	0.0052397	8
	2	4	630984.4	2838.139	-1570.224	1	3243.553	-28.95393	-1.747418E-007	0.0040953	8
	3	5	501234.4	3126.863	-1413.974	1	3431.704	-24.33259	-1.591167E-006	0.0048604	8
	4	7	398109.4	3362.317	-1277.452	1	3596.812	-20.80338	-4.723329E-006	0.004679	8
	5	8	316265.6	3554.397	-1099.633	1	3720.609	-17.19064	6.551248E-006	0.0031576	8
	6	9	251203.1	3682.462	-948.3516	1	3802.617	-14.44168	-5.203665E-007	0.0040097	8
	7	11	199546.9	3778.273	-806.0717	1	3863.302	-12.04316	-2.553006E-006	0.0042076	8
	8	12	158578.1	3857.735	-682.0239	1	3917.56	-10.02594	-4.511135E-009	0.0039836	8
	9	14	125953.1	3941.337	-530.3447	1	3976.858	-7.663664	-3.26398E-006	0.0083436	7
	10	15	100078.1	3977.937	-453.4528	1	4003.698	-6.503187	6.334558E-007	0.0044967	7
	11	16	79453.13	4010.12	-396.6781	1	4029.692	-5.649278	-3.095867E-007	0.0033352	7
	12	18	63140.62	4035.924	-353.3265	1	4051.36	-5.003225	-6.677386E-007	0.0059387	7
	13	19	50203.12	4059.959	-321.8239	1	4072.694	-4.532232	-1.296856E-006	0.0057789	7
	14	20	39890.62	4081.291	-300.7877	1	4092.359	-4.215031	-1.096192E-006	0.0047736	7
	15	22	31640.63	4098.85	-286.8675	1	4108.876	-4.003449	-1.097869E-006	0.0047711	7
	16	23	25171.88	4121.883	-285.9188	1	4131.788	-3.968026	1.041254E-006	0.0024681	7
	17	25	20015.62	4140.958	-293.2769	1	4151.331	-4.05112	1.04184E-006	0.0024674	7
	18	26	15890.62	4153.171	-307.713	1	4164.555	-4.237365	-1.279245E-006	0.0053677	7
	19	27	12609.37	4170.792	-335.3576	1	4184.252	-4.597047	-1.296327E-006	0.0057728	7
	20	29	10078.13	4187.241	-368.8842	1	4203.458	-5.034599	-1.162486E-006	0.0059482	7
	21	30	8015.625	4204.854	-421.6638	1	4225.944	-5.72649	-7.55846E-007	0.0040601	7
	22	31	6328.125	4226.714	-491.6553	1	4255.213	-6.63488	-3.164267E-007	0.0056839	7
	23	33	5015.625	4246.565	-579.2155	1	4285.884	-7.766999	-1.094148E-006	0.0047738	7
	24	34	3984.375	4270.243	-692.0544	1	4325.958	-9.205569	-9.51757E-007	0.0060135	7
	25	36	3170.956	4302.042	-832.2527	1	4381.805	-10.94892	1.388213E-007	0.0027845	7
	26	37	2527.573	4333.992	-1005.986	1	4449.212	-13.06782	5.275664E-007	0.0024777	7
	27	38	1976.103	4373.695	-1240.808	1	4546.297	-15.83853	1.409512E-007	0.0027846	7
	28	40	1577.524	4417.701	-1500.705	1	4665.64	-18.76277	1.063644E-006	0.0035176	7
	29	41	1265.625	4476.326	-1823.093	1	4833.338	-22.15981	-1.29619E-006	0.0057636	7
	30	42	998.264	4550.685	-2252.872	1	5077.811	-26.33827	-1.094822E-006	0.0047613	7
	31	44	796.875	4638.532	-2749.095	1	5391.985	-30.65373	-1.277419E-006	0.0053613	7
	32	45	627.7902	4755.921	-3405.413	1	5849.412	-35.60404	-6.652598E-007	0.0059283	7
	33	47	505.5147	4893.625	-4132.958	1	6405.38	-40.18309	-1.29514E-006	0.0057628	7
	34	48	397.9953	5085.561	-5128.15	1	7222.248	-45.23891	3.244718E-009	0.0042642	7
	35	49	315.5048	5328.681	-6309.118	1	8258.317	-49.81556	3.702489E-009	0.004264	7
	36	51	252.4038	5632.893	-7694.541	1	9536.01	-53.7935	2.630362E-009	0.0042578	7
	37	52	198.6229	6062.001	-9512.13	1	11279.56	-57.49097	1.028333E-009	0.0042054	6
	38	54	158.3615	6588.449	-11605.2	1	13344.97	-60.41576	7.511021E-010	0.0041963	6
	39	55	125.558	7293.873	-14210.4	1	15972.98	-62.82961	1.34683E-009	0.0042067	6
	40	56	100.4464	8169.147	-17236.42	1	19074.31	-64.64154	1.161199E-009	0.0042024	6
	41	58	79.00281	9454.526	-21150.84	1	23167.78	-65.91513	9.658531E-010	0.0042028	6
	42	59	63.3446	11112.31	-25460.91	1	27780.24	-66.42134	4.11071E-010	0.0042031	6
	43	60	49.86702	12867.22	-31088.89	1	33646.47	-67.51608	-5.281132E-010	0.0042081	6
	44	62	39.72458	15528.65	-37221.44	1	40330.82	-67.35428	7.425546E-010	0.0042085	6
	45	63	31.6723	18853.12	-44643.03	1	48460.71	-67.10526	-4.33236E-010	0.0042065	6
	46	65	24.93351	23287.08	-53502.27	1	58350.5	-66.47872	7.845529E-010	0.0042039	6
	47	66	19.86229	28559.54	-63268.19	1	69415.5	-65.70538	1.840936E-009	0.0041962	6
	48	67	15.83615	35181.11	-74176.39	1	82096.58	-64.62549	4.21048E-010	0.0042004	6
	49	69	12.40079	43553.62	-87864.34	1	98066.6	-63.63277	2.52484E-010	0.00421	6
	50	70	9.93114	52992.42	-101523.1	1	114521.3	-62.4366	1.105558E-009	0.0042054	5
	51	72	7.944915	63488.59	-117450.7	1	133512	-61.60633	3.081233E-011	0.004209	5
	52	73	6.317385	76250.05	-134768.5	1	154843.8	-60.49945	4.519694E-011	0.004211	5
	53	75	5.008013	90261.69	-154936.3	1	179310.9	-59.77607	4.128623E-010	0.0042088	5
	54	78	3.945707	106020.6	-179052	1	208086.5	-59.36929	3.143266E-010	0.0042014	5
	55	81	3.158693	122079.9	-205208	1	238775.7	-59.25126	2.99743E-010	0.0042173	5
	56	84	2.504006	140454.5	-237962.8	1	276321.8	-59.44931	-2.871952E-011	0.0042062	5
	57	87	1.998082	160198.8	-275692.8	1	318857.6	-59.8401	-8.701131E-011	0.0042024	5
	58	90	1.584686	184216.2	-321639.8	1	370658.6	-60.19848	1.626185E-010	0.0042618	5
	59	93	1.266892	209480.5	-375699.8	1	430153.9	-60.85709	-6.703091E-011	0.0041998	5
	60	98	0.999041	242059.6	-443894	1	505603.4	-61.39595	3.606454E-010	0.0042375	5
