EXPLAIN
TAG	EISPOT
TITLE	LABEL	Potentiostatic EIS	Test &Identifier
DATE	LABEL	10/28/2019	Date
TIME	LABEL	11:34:04	Time
NOTES	NOTES	1	&Notes...
	
PSTAT	PSTAT	REF600-11020	Potentiostat
VDC	POTEN	0.00000E+000	T	DC &Voltage (V)
FREQINIT	QUANT	1.00000E+006	Initial Fre&q. (Hz)
FREQFINAL	QUANT	1.00000E+000	Final Fre&q. (Hz)
PTSPERDEC	QUANT	1.00000E+001	Points/&decade
VAC	QUANT	2.50000E+001	AC &Voltage (mV rms)
AREA	QUANT	1.00000E-002	&Area (cm^2)
CONDIT	TWOPARAM	T	5.00000E+000	0.00000E+000	Conditionin&g	Time(s)	E(V)
DELAY	TWOPARAM	T	5.00000E+000	0.00000E+000	Init. De&lay	Time(s)	Stab.(mV/s)
SPEED	SELECTOR	1	&Optimize for:
ZGUESS	QUANT	1.00000E+005	E&stimated Z (ohms)
OCVCURVE	TABLE	19
	Pt	T	Vf	Vm	Ach	Over
	#	s	V vs. Ref.	V	V	bits
	0	0.258333	6.08377E-003	6.08377E-003	5.61832E-004	...........
	1	0.516667	6.08423E-003	6.10752E-003	5.62232E-004	...........
	2	0.775	6.08231E-003	5.88366E-003	5.60066E-004	...........
	3	1.03333	6.06682E-003	5.96129E-003	5.61932E-004	...........
	4	1.29167	6.03255E-003	6.00251E-003	5.67932E-004	...........
	5	1.55	5.99740E-003	6.03072E-003	5.58099E-004	...........
	6	1.80833	5.98418E-003	6.05556E-003	5.66899E-004	...........
	7	2.06667	5.99570E-003	6.06995E-003	5.57766E-004	...........
	8	2.325	6.01969E-003	6.08122E-003	5.57366E-004	...........
	9	2.58333	6.04408E-003	6.07770E-003	5.49333E-004	...........
	10	2.84167	6.06298E-003	6.10677E-003	5.58533E-004	...........
	11	3.1	6.07698E-003	6.13053E-003	5.56466E-004	...........
	12	3.35833	6.09084E-003	6.16263E-003	5.58032E-004	...........
	13	3.61667	6.10896E-003	6.19410E-003	5.52399E-004	...........
	14	3.875	6.13256E-003	6.22140E-003	5.54599E-004	...........
	15	4.13333	6.16023E-003	6.25383E-003	5.61366E-004	...........
	16	4.39167	6.18992E-003	6.28465E-003	5.58766E-004	...........
	17	4.65	6.22038E-003	6.31520E-003	5.57899E-004	...........
	18	4.90833	6.25111E-003	6.34450E-003	5.56633E-004	...........
EOC	QUANT	0.0062511	Open Circuit (V)
PSTATMODEL	IQUANT	4	Pstat Model
PSTATSECTION	LABEL	REF600-11020	Pstat Section
PSTATSERIALNO	LABEL	11020	Pstat Serial Number
CTRLMODE	IQUANT	1	Control Mode
IESTAB	IQUANT	0	I/E Stability
CASPEED	IQUANT	1	Control Amp Speed
CONVENTION	IQUANT	1	Current Convention
ICHRANGE	IQUANT	2	Ich Range
ICHRANGEMODE	TOGGLE	F	Ich Auto Range
ICHOFFSETENABLE	TOGGLE	T	Ich Offset Enable
ICHOFFSET	QUANT	0	Ich Offset (V)
ICHFILTER	IQUANT	3	Ich Filter
VCHRANGE	IQUANT	2	Vch Range
VCHRANGEMODE	TOGGLE	F	Vch Auto Range
VCHOFFSETENABLE	TOGGLE	T	Vch Offset Enable
VCHOFFSET	QUANT	0	Vch Offset (V)
VCHFILTER	IQUANT	3	Vch Filter
ACHRANGE	IQUANT	2	Ach Range
ACHOFFSETENABLE	TOGGLE	F	Ach Offset Enable
ACHOFFSET	QUANT	0	Ach Offset (V)
ACHFILTER	IQUANT	3	Ach Filter
IERANGELOWERLIMIT	IQUANT	1	I/E Range Lower Limit
IERANGEMODE	TOGGLE	F	I/E AutoRange
IERANGE	IQUANT	5	I/E Range
POSFEEDENABLE	TOGGLE	F	Positive Feedback IR Comp
POSFEEDRESISTANCE	QUANT	0	Positive Feedback Resistance (ohm)
ACHSELECT	IQUANT	0	Ach Select
CABLEID	IQUANT	14	Cable ID
DCCALDATE	LABEL	8/19/2019	DC Calibration Date
ACCALDATE	LABEL	8/19/2019	AC Calibration Date
THERMOSELECT	IQUANT	1	Thermo Select
FRAMEWORKVERSION	QUANT	6.33	Framework Version
INSTRUMENTVERSION	LABEL	3.50	Instrument Version
ZCURVE	TABLE
	Pt	Time	Freq	Zreal	Zimag	Zsig	Zmod	Zphz	Idc	Vdc	IERange
	#	s	Hz	ohm	ohm	V	ohm	°	A	V	#
	0	1	1000078	1925.714	-764.4983	1	2071.915	-21.65282	9.674815E-006	0.0071432	8
	1	3	794390.6	2027.131	-683.8194	1	2139.362	-18.64098	3.025684E-006	0.0070432	8
	2	4	630984.4	2116.747	-618.233	1	2205.182	-16.28137	-3.206758E-006	0.0084643	8
	3	6	501234.4	2198.476	-565.8112	1	2270.119	-14.43272	-1.940537E-006	0.0083524	8
	4	7	398109.4	2255.358	-507.3713	1	2311.724	-12.67834	2.633549E-006	0.0073561	8
	5	8	316265.6	2315.024	-462.3409	1	2360.74	-11.29413	1.306644E-006	0.007454	8
	6	10	251203.1	2351.646	-426.3874	1	2389.988	-10.27691	2.89324E-006	0.0072497	8
	7	11	199546.9	2402.315	-410.9313	1	2437.208	-9.70686	7.571354E-008	0.0077333	8
	8	13	158578.1	2422.063	-415.2755	1	2457.406	-9.72906	2.942211E-006	0.0072443	8
	9	14	125953.1	2501.817	-336.8681	1	2524.395	-7.668716	2.276912E-007	0.0073638	7
	10	15	100078.1	2526.575	-352.5209	1	2551.049	-7.942929	-8.819326E-009	0.0078294	7
	11	17	79453.13	2565.953	-375.1601	1	2593.234	-8.318102	1.45994E-008	0.0077189	7
	12	18	63140.62	2608.604	-401.8173	1	2639.37	-8.756753	-4.73887E-008	0.0078528	7
	13	20	50203.12	2655.938	-432.947	1	2690.994	-9.258405	1.276487E-008	0.0077157	7
	14	21	39890.62	2707.926	-469.2133	1	2748.276	-9.83027	7.853175E-008	0.00766	7
	15	22	31640.63	2764.727	-509.3218	1	2811.249	-10.43808	-4.035316E-008	0.007814	7
	16	24	25171.88	2823.857	-556.0831	1	2878.089	-11.14033	-8.19252E-009	0.0078233	7
	17	25	20015.62	2887.846	-606.2284	1	2950.791	-11.85561	1.230404E-008	0.0077143	7
	18	26	15890.62	2957.462	-669.0548	1	3032.197	-12.74722	-7.164338E-008	0.0078977	7
	19	28	12609.37	3032.308	-739.8297	1	3121.256	-13.71128	-2.392592E-008	0.0077754	7
	20	29	10078.13	3104.15	-825.8502	1	3212.13	-14.89827	8.092587E-008	0.0076464	7
	21	30	8015.625	3182.399	-925.3997	1	3314.216	-16.21374	-4.352859E-008	0.0078194	7
	22	32	6328.125	3272.276	-1050.565	1	3436.783	-17.79924	7.773011E-008	0.0076463	7
	23	33	5015.625	3366.222	-1198.63	1	3573.257	-19.59958	1.418706E-008	0.0077104	7
	24	34	3984.375	3469.791	-1370.775	1	3730.747	-21.55699	4.877147E-008	0.0076316	7
	25	36	3170.956	3579.673	-1585.434	1	3915.056	-23.88851	7.776294E-008	0.007759	7
	26	37	2527.573	3698.769	-1833.789	1	4128.398	-26.37145	1.654363E-008	0.007708	7
	27	39	1976.103	3842.305	-2163.63	1	4409.603	-29.38418	-5.320335E-008	0.0078959	7
	28	40	1577.524	4015.566	-2553.038	1	4758.442	-32.44761	-6.554809E-009	0.0078251	7
	29	41	1265.625	4128.822	-2972.97	1	5087.801	-35.75589	-1.265563E-008	0.0079289	7
	30	43	998.264	4300.145	-3551.321	1	5577.018	-39.55197	-4.546533E-008	0.007824	7
	31	44	796.875	4483.909	-4241.44	1	6172.135	-43.40822	-5.028049E-009	0.0078227	7
	32	45	627.7902	4715.24	-5135.237	1	6971.668	-47.44146	-6.815261E-009	0.0078231	7
	33	47	505.5147	4959.672	-6149.32	1	7900.157	-51.11243	-3.731935E-008	0.0077899	7
	34	48	397.9953	5294.776	-7507.643	1	9186.912	-54.80654	4.372493E-009	0.0078075	7
	35	49	315.5048	5705.701	-9145.502	1	10779.39	-58.04076	7.073535E-010	0.0077426	6
	36	51	252.4038	6203.028	-11071.26	1	12690.56	-60.73888	1.246736E-009	0.0077421	6
	37	52	198.6229	6898.235	-13597.9	1	15247.57	-63.10125	8.162448E-010	0.0077447	6
	38	54	158.3615	7761.19	-16502.16	1	18236.15	-64.81175	1.234651E-009	0.0077408	6
	39	55	125.558	8914.837	-20098.42	1	21986.83	-66.07989	1.065349E-009	0.0077418	6
	40	56	100.4464	10377.33	-24286.11	1	26410.3	-66.86323	1.231268E-009	0.0077394	6
	41	58	79.00281	12354.61	-29546.42	1	32025.41	-67.30813	-4.484159E-010	0.0077375	6
	42	59	63.3446	14389.65	-35244.9	1	38069.21	-67.79098	5.473343E-010	0.0077348	6
	43	61	49.86702	18809.31	-42547.32	1	46519.5	-66.15074	-8.743348E-011	0.0077388	6
	44	62	39.72458	22815.83	-50678.66	1	55577.77	-65.76245	1.014074E-009	0.0077376	6
	45	63	31.6723	27929.87	-60021.27	1	66201.44	-65.04589	1.791602E-009	0.0077369	6
	46	65	24.93351	35360.16	-70685.28	1	79036.38	-63.42359	7.740619E-010	0.007734	6
	47	66	19.86229	43846.64	-82158.94	1	93126.9	-61.91202	3.070882E-010	0.0077391	6
	48	67	15.83615	55245.72	-94214.72	1	109217.7	-59.61345	2.680044E-009	0.0077399	5
	49	69	12.40079	65365.13	-108604.9	1	126758.1	-58.95787	4.689585E-011	0.0077448	5
	50	70	9.93114	79119.49	-122494.2	1	145824.3	-57.14142	-4.636572E-010	0.0077478	5
	51	72	7.944915	92773.08	-137527.3	1	165893.3	-55.9972	9.659178E-010	0.0077485	5
	52	74	6.317385	108255.3	-155208.9	1	189232.7	-55.10494	-7.569E-011	0.0077574	5
	53	76	5.008013	124377.9	-175114.4	1	214790.4	-54.61509	6.345307E-011	0.0077357	5
	54	78	3.945707	141665.6	-199615.2	1	244776.2	-54.63694	3.813124E-010	0.0077475	5
	55	81	3.158693	158747.9	-227027.6	1	277024.2	-55.03703	-2.24756E-010	0.0077296	5
	56	84	2.504006	177759.8	-261744.3	1	316399.4	-55.81819	4.066031E-010	0.0077369	5
	57	87	1.998082	198231.6	-302793.5	1	361911.2	-56.7882	1.545809E-010	0.0077712	5
	58	90	1.584686	221791	-353183.7	1	417049.1	-57.87215	3.796275E-011	0.0077044	5
	59	94	1.266892	248113.2	-414205.5	1	482831.6	-59.07798	1.190805E-010	0.0077552	5
	60	98	0.999041	282363.2	-491847.6	1	567135.8	-60.14044	-2.244416E-010	0.0077015	5
