EXPLAIN
TAG	EISPOT
TITLE	LABEL	Potentiostatic EIS	Test &Identifier
DATE	LABEL	9/20/2019	Date
TIME	LABEL	11:17:25	Time
NOTES	NOTES	1	&Notes...
	
PSTAT	PSTAT	REF600-11020	Potentiostat
VDC	POTEN	0.00000E+000	T	DC &Voltage (V)
FREQINIT	QUANT	1.00000E+006	Initial Fre&q. (Hz)
FREQFINAL	QUANT	1.00000E+000	Final Fre&q. (Hz)
PTSPERDEC	QUANT	1.00000E+001	Points/&decade
VAC	QUANT	2.50000E+001	AC &Voltage (mV rms)
AREA	QUANT	1.00000E-002	&Area (cm^2)
CONDIT	TWOPARAM	T	5.00000E+000	0.00000E+000	Conditionin&g	Time(s)	E(V)
DELAY	TWOPARAM	T	5.00000E+000	0.00000E+000	Init. De&lay	Time(s)	Stab.(mV/s)
SPEED	SELECTOR	1	&Optimize for:
ZGUESS	QUANT	1.00000E+004	E&stimated Z (ohms)
OCVCURVE	TABLE	19
	Pt	T	Vf	Vm	Ach	Over
	#	s	V vs. Ref.	V	V	bits
	0	0.258333	3.15822E-004	3.15822E-004	5.56166E-004	...........
	1	0.516667	3.09586E-004	-1.05886E-005	5.50633E-004	...........
	2	0.775	2.70449E-004	-3.64317E-004	5.55333E-004	...........
	3	1.03333	1.56796E-004	-7.10184E-004	5.45533E-004	...........
	4	1.29167	-5.25275E-005	-1.04206E-003	5.46766E-004	...........
	5	1.55	-3.39063E-004	-1.36202E-003	5.51899E-004	...........
	6	1.80833	-6.65251E-004	-1.69260E-003	5.44266E-004	...........
	7	2.06667	-1.00123E-003	-1.99227E-003	5.46533E-004	...........
	8	2.325	-1.33167E-003	-2.26126E-003	5.52733E-004	...........
	9	2.58333	-1.64876E-003	-2.51200E-003	5.51232E-004	...........
	10	2.84167	-1.94696E-003	-2.74208E-003	5.51866E-004	...........
	11	3.1	-2.22307E-003	-2.94658E-003	5.50999E-004	...........
	12	3.35833	-2.47629E-003	-3.13375E-003	5.49499E-004	...........
	13	3.61667	-2.70700E-003	-3.29983E-003	5.52666E-004	...........
	14	3.875	-2.91625E-003	-3.45818E-003	5.50499E-004	...........
	15	4.13333	-3.10613E-003	-3.61268E-003	5.51966E-004	...........
	16	4.39167	-3.28057E-003	-3.77940E-003	5.54833E-004	...........
	17	4.65	-3.44566E-003	-3.95771E-003	5.52932E-004	...........
	18	4.90833	-3.60818E-003	-4.11534E-003	5.50399E-004	...........
EOC	QUANT	-0.0036082	Open Circuit (V)
PSTATMODEL	IQUANT	4	Pstat Model
PSTATSECTION	LABEL	REF600-11020	Pstat Section
PSTATSERIALNO	LABEL	11020	Pstat Serial Number
CTRLMODE	IQUANT	1	Control Mode
IESTAB	IQUANT	0	I/E Stability
CASPEED	IQUANT	1	Control Amp Speed
CONVENTION	IQUANT	1	Current Convention
ICHRANGE	IQUANT	2	Ich Range
ICHRANGEMODE	TOGGLE	F	Ich Auto Range
ICHOFFSETENABLE	TOGGLE	T	Ich Offset Enable
ICHOFFSET	QUANT	0	Ich Offset (V)
ICHFILTER	IQUANT	3	Ich Filter
VCHRANGE	IQUANT	2	Vch Range
VCHRANGEMODE	TOGGLE	F	Vch Auto Range
VCHOFFSETENABLE	TOGGLE	T	Vch Offset Enable
VCHOFFSET	QUANT	0	Vch Offset (V)
VCHFILTER	IQUANT	3	Vch Filter
ACHRANGE	IQUANT	2	Ach Range
ACHOFFSETENABLE	TOGGLE	F	Ach Offset Enable
ACHOFFSET	QUANT	0	Ach Offset (V)
ACHFILTER	IQUANT	3	Ach Filter
IERANGELOWERLIMIT	IQUANT	1	I/E Range Lower Limit
IERANGEMODE	TOGGLE	F	I/E AutoRange
IERANGE	IQUANT	5	I/E Range
POSFEEDENABLE	TOGGLE	F	Positive Feedback IR Comp
POSFEEDRESISTANCE	QUANT	0	Positive Feedback Resistance (ohm)
ACHSELECT	IQUANT	0	Ach Select
CABLEID	IQUANT	14	Cable ID
DCCALDATE	LABEL	8/19/2019	DC Calibration Date
ACCALDATE	LABEL	8/19/2019	AC Calibration Date
THERMOSELECT	IQUANT	1	Thermo Select
FRAMEWORKVERSION	QUANT	6.33	Framework Version
INSTRUMENTVERSION	LABEL	3.50	Instrument Version
ZCURVE	TABLE
	Pt	Time	Freq	Zreal	Zimag	Zsig	Zmod	Zphz	Idc	Vdc	IERange
	#	s	Hz	ohm	ohm	V	ohm	°	A	V	#
	0	1	1000078	2397.63	-1911.135	1	3066.116	-38.55811	-3.515315E-007	-0.0011915	8
	1	3	794390.6	2787.95	-1886.546	1	3366.262	-34.08537	-5.766143E-006	-0.0001119	8
	2	4	630984.4	3161.617	-1785.646	1	3631.027	-29.45727	2.71539E-006	-0.0019504	8
	3	6	501234.4	3465.176	-1613.788	1	3822.533	-24.97215	-4.140764E-006	-0.0009707	8
	4	7	398109.4	3733.68	-1446.055	1	4003.928	-21.17139	5.165444E-006	-0.0027668	8
	5	8	316265.6	3958.114	-1261.556	1	4154.297	-17.67846	-8.863487E-008	-0.001831	8
	6	10	251203.1	4102.139	-1086.04	1	4243.469	-14.82882	-2.588251E-007	-0.0017114	8
	7	11	199546.9	4217.541	-948.5591	1	4322.895	-12.67537	1.255694E-006	-0.0023525	8
	8	13	158578.1	4307.506	-827.105	1	4386.195	-10.86934	1.403606E-006	-0.0022979	8
	9	14	125953.1	4387.137	-660.8852	1	4436.636	-8.566712	6.28957E-007	-0.0032183	7
	10	16	100078.1	4429.57	-581.0901	1	4467.522	-7.47363	-2.045203E-008	-0.0018742	7
	11	17	79453.13	4474.287	-528.7478	1	4505.421	-6.739657	-4.528352E-008	-0.001846	7
	12	18	63140.62	4513.827	-494.1478	1	4540.794	-6.247534	-3.976403E-008	-0.0019315	7
	13	20	50203.12	4550.474	-472.1694	1	4574.905	-5.923964	-1.914247E-008	-0.0019771	7
	14	21	39890.62	4588.027	-462.5565	1	4611.285	-5.757003	-1.118669E-008	-0.0018068	7
	15	22	31640.63	4625.172	-466.9333	1	4648.682	-5.764752	4.500221E-008	-0.0020017	7
	16	24	25171.88	4664.372	-482.9122	1	4689.303	-5.910893	-5.844626E-008	-0.0017686	7
	17	25	20015.62	4704.413	-510.7307	1	4732.055	-6.196002	4.293788E-008	-0.0020903	7
	18	27	15890.62	4747.944	-548.5468	1	4779.526	-6.590365	8.799402E-008	-0.0021319	7
	19	28	12609.37	4794.221	-605.5696	1	4832.315	-7.199042	-5.742426E-008	-0.0017757	7
	20	29	10078.13	4843.849	-673.2515	1	4890.413	-7.912903	4.538508E-008	-0.0020073	7
	21	31	8015.625	4897.418	-757.6614	1	4955.679	-8.794299	9.438237E-008	-0.0020157	7
	22	32	6328.125	4958.34	-866.8505	1	5033.544	-9.91661	-1.146797E-008	-0.0020026	7
	23	33	5015.625	5022.547	-1000.161	1	5121.163	-11.26223	4.509753E-008	-0.0021005	7
	24	35	3984.375	5092.46	-1163.67	1	5223.723	-12.87157	-1.153674E-008	-0.0019968	7
	25	36	3170.956	5169.576	-1360.188	1	5345.524	-14.74122	-1.597897E-009	-0.001954	7
	26	37	2527.573	5254.762	-1599.363	1	5492.766	-16.92838	-4.291601E-008	-0.0018707	7
	27	39	1976.103	5354.626	-1918.175	1	5687.831	-19.70893	-5.726328E-008	-0.0017772	7
	28	40	1577.524	5463.057	-2278.542	1	5919.184	-22.64013	-3.573378E-008	-0.0019453	7
	29	41	1265.625	5585.426	-2711.066	1	6208.612	-25.89111	1.326191E-008	-0.0020337	7
	30	43	998.264	5733.049	-3269.211	1	6599.666	-29.6935	1.227343E-008	-0.0020429	7
	31	44	796.875	5892.984	-3923.933	1	7079.867	-33.65826	1.004645E-009	-0.001953	7
	32	46	627.7902	6090.326	-4776.32	1	7739.852	-38.10521	-6.710726E-009	-0.0018133	7
	33	47	505.5147	6294.753	-5717.998	1	8504.082	-42.25123	-2.042266E-008	-0.0019059	7
	34	48	397.9953	6570.565	-6993.128	1	9595.63	-46.78441	5.68273E-009	-0.0019388	7
	35	50	315.5048	6878.873	-8522.282	1	10952.09	-51.09081	1.552769E-009	-0.0020023	6
	36	51	252.4038	7223.988	-10329.37	1	12604.83	-55.03244	9.474705E-010	-0.0020056	6
	37	52	198.6229	7669.453	-12728.7	1	14860.7	-58.92968	1.306341E-009	-0.0020066	6
	38	54	158.3615	8183.738	-15534.13	1	17557.98	-62.2187	7.939675E-010	-0.0020099	6
	39	55	125.558	8835.15	-19082.97	1	21029.02	-65.15652	1.307399E-009	-0.002008	6
	40	56	100.4464	9623.04	-23290.82	1	25200.5	-67.55112	7.129125E-010	-0.0020066	6
	41	58	79.00281	10703.81	-28800.25	1	30725.01	-69.61207	9.132153E-010	-0.0020066	6
	42	59	63.3446	11890.96	-34954.55	1	36921.75	-71.21254	1.154912E-009	-0.0020025	6
	43	61	49.86702	14062.41	-43552.7	1	45766.68	-72.10563	1.199058E-009	-0.0020059	6
	44	62	39.72458	16270.81	-53198.87	1	55631.46	-72.99382	1.352008E-009	-0.0019988	6
	45	63	31.6723	19185.93	-64966.89	1	67740.66	-73.54715	1.709447E-009	-0.0020043	6
	46	65	24.93351	23603.19	-79943.77	1	83355.36	-73.5509	1.191615E-009	-0.0020017	6
	47	66	19.86229	29115.75	-97279	1	101542.7	-73.33748	1.112267E-009	-0.0020024	6
	48	68	15.83615	36584.52	-117654.2	1	123211	-72.72694	1.094123E-009	-0.0019924	5
	49	69	12.40079	45541.95	-143742.6	1	150784.7	-72.42024	3.526333E-010	-0.0019982	5
	50	70	9.93114	58450.91	-172638.1	1	182264.8	-71.2952	2.926707E-010	-0.0019944	5
	51	72	7.944915	74192.78	-205837.8	1	218800.8	-70.17866	8.774088E-010	-0.0019998	5
	52	74	6.317385	94625.63	-245323	1	262939.9	-68.90745	6.426187E-010	-0.0019872	5
	53	76	5.008013	120993.4	-291399	1	315519.9	-67.45101	6.213766E-010	-0.0019902	5
	54	78	3.945707	155454.9	-345381.3	1	378753.8	-65.76766	3.894355E-010	-0.0019966	5
	55	81	3.158693	195646.7	-401179.5	1	446343.6	-64.00249	2.858763E-010	-0.001989	5
	56	84	2.504006	246205.7	-465342.2	1	526460.4	-62.11734	3.494215E-010	-0.0020094	5
	57	87	1.998082	303825.6	-532457.4	1	613042.3	-60.29048	7.863375E-012	-0.0019702	5
	58	90	1.584686	374342.8	-607207.4	1	713325.6	-58.3462	3.479918E-010	-0.00196	5
	59	94	1.266892	449568.3	-681884.1	1	816748.2	-56.60301	8.98976E-013	-0.0019717	5
	60	98	0.999041	537830	-768328.3	1	937864.3	-55.00797	4.089028E-010	-0.0020137	5
