EXPLAIN
TAG	EISPOT
TITLE	LABEL	Potentiostatic EIS	Test &Identifier
DATE	LABEL	9/26/2019	Date
TIME	LABEL	7:36:02	Time
NOTES	NOTES	2	&Notes...
	
	
PSTAT	PSTAT	REF600-11020	Potentiostat
VDC	POTEN	0.00000E+000	T	DC &Voltage (V)
FREQINIT	QUANT	1.00000E+006	Initial Fre&q. (Hz)
FREQFINAL	QUANT	1.00000E+000	Final Fre&q. (Hz)
PTSPERDEC	QUANT	1.00000E+001	Points/&decade
VAC	QUANT	2.50000E+001	AC &Voltage (mV rms)
AREA	QUANT	1.00000E-002	&Area (cm^2)
CONDIT	TWOPARAM	T	5.00000E+000	0.00000E+000	Conditionin&g	Time(s)	E(V)
DELAY	TWOPARAM	T	5.00000E+000	0.00000E+000	Init. De&lay	Time(s)	Stab.(mV/s)
SPEED	SELECTOR	1	&Optimize for:
ZGUESS	QUANT	1.00000E+004	E&stimated Z (ohms)
OCVCURVE	TABLE	19
	Pt	T	Vf	Vm	Ach	Over
	#	s	V vs. Ref.	V	V	bits
	0	0.258333	4.74197E-003	4.74197E-003	5.69366E-004	...........
	1	0.516667	4.74226E-003	4.75716E-003	5.72899E-004	...........
	2	0.775	4.74418E-003	4.77895E-003	5.70366E-004	...........
	3	1.03333	4.75014E-003	4.80246E-003	5.72232E-004	...........
	4	1.29167	4.76206E-003	4.83154E-003	5.76232E-004	...........
	5	1.55	4.78006E-003	4.85706E-003	5.72232E-004	...........
	6	1.80833	4.80280E-003	4.88535E-003	5.74699E-004	...........
	7	2.06667	4.82839E-003	4.91145E-003	5.70399E-004	...........
	8	2.325	4.85539E-003	4.94716E-003	5.68932E-004	...........
	9	2.58333	4.88347E-003	4.97749E-003	5.70299E-004	...........
	10	2.84167	4.91286E-003	5.00787E-003	5.70066E-004	...........
	11	3.1	4.94341E-003	5.03891E-003	5.66599E-004	...........
	12	3.35833	4.97465E-003	5.07960E-003	5.72432E-004	...........
	13	3.61667	5.00663E-003	5.10730E-003	5.70532E-004	...........
	14	3.875	5.03949E-003	5.14073E-003	5.71166E-004	...........
	15	4.13333	5.07259E-003	5.16733E-003	5.75332E-004	...........
	16	4.39167	5.10492E-003	5.19801E-003	5.66166E-004	...........
	17	4.65	5.13591E-003	5.22301E-003	5.68866E-004	...........
	18	4.90833	5.16540E-003	5.24428E-003	5.70666E-004	...........
EOC	QUANT	0.0051654	Open Circuit (V)
PSTATMODEL	IQUANT	4	Pstat Model
PSTATSECTION	LABEL	REF600-11020	Pstat Section
PSTATSERIALNO	LABEL	11020	Pstat Serial Number
CTRLMODE	IQUANT	1	Control Mode
IESTAB	IQUANT	0	I/E Stability
CASPEED	IQUANT	1	Control Amp Speed
CONVENTION	IQUANT	1	Current Convention
ICHRANGE	IQUANT	2	Ich Range
ICHRANGEMODE	TOGGLE	F	Ich Auto Range
ICHOFFSETENABLE	TOGGLE	T	Ich Offset Enable
ICHOFFSET	QUANT	0	Ich Offset (V)
ICHFILTER	IQUANT	3	Ich Filter
VCHRANGE	IQUANT	2	Vch Range
VCHRANGEMODE	TOGGLE	F	Vch Auto Range
VCHOFFSETENABLE	TOGGLE	T	Vch Offset Enable
VCHOFFSET	QUANT	0	Vch Offset (V)
VCHFILTER	IQUANT	3	Vch Filter
ACHRANGE	IQUANT	2	Ach Range
ACHOFFSETENABLE	TOGGLE	F	Ach Offset Enable
ACHOFFSET	QUANT	0	Ach Offset (V)
ACHFILTER	IQUANT	3	Ach Filter
IERANGELOWERLIMIT	IQUANT	1	I/E Range Lower Limit
IERANGEMODE	TOGGLE	F	I/E AutoRange
IERANGE	IQUANT	5	I/E Range
POSFEEDENABLE	TOGGLE	F	Positive Feedback IR Comp
POSFEEDRESISTANCE	QUANT	0	Positive Feedback Resistance (ohm)
ACHSELECT	IQUANT	0	Ach Select
CABLEID	IQUANT	14	Cable ID
DCCALDATE	LABEL	8/19/2019	DC Calibration Date
ACCALDATE	LABEL	8/19/2019	AC Calibration Date
THERMOSELECT	IQUANT	1	Thermo Select
FRAMEWORKVERSION	QUANT	6.33	Framework Version
INSTRUMENTVERSION	LABEL	3.50	Instrument Version
ZCURVE	TABLE
	Pt	Time	Freq	Zreal	Zimag	Zsig	Zmod	Zphz	Idc	Vdc	IERange
	#	s	Hz	ohm	ohm	V	ohm	°	A	V	#
	0	2	1000078	1813.019	-668.5455	1	1932.353	-20.24131	-7.321291E-007	0.0073839	8
	1	3	794390.6	1908.244	-574.2358	1	1992.772	-16.74779	2.290966E-006	0.0067526	8
	2	4	630984.4	1973.693	-494.0042	1	2034.578	-14.05211	-5.689161E-007	0.0070118	8
	3	6	501234.4	2034.991	-424.0349	1	2078.7	-11.77041	-2.785543E-006	0.0074023	8
	4	7	398109.4	2070.295	-366.727	1	2102.524	-10.04504	-1.886892E-006	0.0073321	8
	5	8	316265.6	2105.458	-318.8407	1	2129.464	-8.611176	2.136125E-006	0.0064678	8
	6	10	251203.1	2128.654	-279.8024	1	2146.965	-7.488351	1.162008E-006	0.0066396	8
	7	11	199546.9	2151.727	-247.6354	1	2165.93	-6.565105	-3.978858E-006	0.0077901	8
	8	12	158578.1	2175.312	-219.9285	1	2186.401	-5.773105	-1.926768E-006	0.0072562	8
	9	14	125953.1	2203.356	-176.8974	1	2210.446	-4.590171	1.187592E-006	0.004789	7
	10	15	100078.1	2215.865	-168.9108	1	2222.294	-4.359109	-1.974447E-008	0.0069579	7
	11	16	79453.13	2232.488	-170.6799	1	2239.002	-4.371917	-4.141302E-008	0.0068775	7
	12	18	63140.62	2250.036	-176.3674	1	2256.938	-4.481924	-1.752382E-008	0.0069525	7
	13	19	50203.12	2270.002	-183.8935	1	2277.438	-4.631435	-3.94565E-008	0.0069075	7
	14	21	39890.62	2290.598	-194.9431	1	2298.879	-4.864479	-3.030209E-008	0.0068407	7
	15	22	31640.63	2311.774	-208.8768	1	2321.191	-5.162852	-8.309948E-009	0.0068575	7
	16	23	25171.88	2333.502	-226.5407	1	2344.473	-5.545003	-3.827345E-008	0.0069027	7
	17	25	20015.62	2354.439	-249.4542	1	2367.617	-6.047958	1.202669E-007	0.0066478	7
	18	26	15890.62	2376.557	-278.0554	1	2392.768	-6.673225	7.112895E-008	0.0066796	7
	19	27	12609.37	2401.051	-314.3885	1	2421.546	-7.45975	-4.02846E-008	0.0068751	7
	20	29	10078.13	2425.893	-357.9982	1	2452.166	-8.394765	6.931472E-008	0.0066819	7
	21	30	8015.625	2452.424	-413.1277	1	2486.977	-9.56209	4.637562E-008	0.0066852	7
	22	31	6328.125	2483.143	-484.3409	1	2529.938	-11.03706	-5.781667E-008	0.0069142	7
	23	33	5015.625	2515.95	-569.988	1	2579.707	-12.76488	2.73226E-009	0.0068372	7
	24	34	3984.375	2552.58	-674.4551	1	2640.181	-14.80072	-8.977091E-009	0.0068641	7
	25	35	3170.956	2592.703	-801.8941	1	2713.879	-17.18626	-6.075911E-008	0.0069192	7
	26	37	2527.573	2636.593	-956.868	1	2804.857	-19.94676	-8.189376E-009	0.0068668	7
	27	38	1976.103	2689.738	-1164.576	1	2931.028	-23.41117	-3.221454E-008	0.0068392	7
	28	40	1577.524	2745.654	-1401.146	1	3082.503	-27.03585	-2.715137E-008	0.0068343	7
	29	41	1265.625	2799.618	-1688.934	1	3269.612	-31.10145	4.463494E-008	0.0066859	7
	30	42	998.264	2884.279	-2061.017	1	3544.976	-35.54844	-3.367564E-009	0.0068496	7
	31	44	796.875	2973.019	-2501.988	1	3885.715	-40.08278	-7.636178E-009	0.0068586	7
	32	45	627.7902	3085.114	-3080.92	1	4360.046	-44.96103	7.004694E-008	0.0067882	7
	33	46	505.5147	3213.869	-3728.788	1	4922.684	-49.24171	3.470012E-009	0.0068166	7
	34	48	397.9953	3390.205	-4606.363	1	5719.446	-53.64756	7.703617E-009	0.0068356	7
	35	49	315.5048	3608.316	-5660.424	1	6712.7	-57.48396	5.662562E-009	0.0068335	7
	36	50	252.4038	3875.979	-6896.557	1	7911.113	-60.6633	6.073817E-009	0.0068274	7
	37	52	198.6229	4250.303	-8525.433	1	9526.18	-63.50173	6.494373E-009	0.006831	7
	38	53	158.3615	4713.715	-10404.98	1	11422.9	-65.6283	1.215632E-009	0.0067729	6
	39	55	125.558	5333.695	-12750.26	1	13820.91	-67.29945	8.577014E-010	0.0067782	6
	40	56	100.4464	6102.461	-15467.52	1	16627.82	-68.46909	2.162899E-009	0.0067773	6
	41	57	79.00281	7236.643	-19008.45	1	20339.37	-69.15784	1.693819E-009	0.0067742	6
	42	59	63.3446	8696.284	-22869.11	1	24466.74	-69.18002	4.801604E-010	0.0067743	6
	43	60	49.86702	10308.9	-28043.85	1	29878.61	-69.8166	1.064669E-009	0.0067723	6
	44	62	39.72458	12617.78	-33617.57	1	35907.51	-69.42723	1.255511E-009	0.0067753	6
	45	63	31.6723	15556.28	-40121.32	1	43031.6	-68.80714	5.961356E-010	0.0067733	6
	46	64	24.93351	19382.65	-48407.48	1	52143.76	-68.17854	1.244925E-009	0.0067695	6
	47	66	19.86229	23954.92	-57388.4	1	62187.36	-67.34349	2.226142E-009	0.0067741	6
	48	67	15.83615	29177.41	-67987.47	1	73983.9	-66.77299	-6.55496E-010	0.0067719	6
	49	68	12.40079	37554.17	-80505.16	1	88833.53	-64.99182	2.811249E-009	0.0067669	6
	50	70	9.93114	45147.14	-93990.77	1	104271.4	-64.34335	3.054652E-010	0.0067795	5
	51	71	7.944915	54778.82	-109206.9	1	122175.5	-63.36139	1.304974E-009	0.0067742	5
	52	73	6.317385	66831.56	-127030.8	1	143538.4	-62.2509	1.195966E-009	0.0067758	5
	53	75	5.008013	81169.16	-147674.2	1	168511.4	-61.20459	9.406527E-010	0.0067794	5
	54	78	3.945707	98700.8	-171791.5	1	198126.6	-60.12099	2.422414E-010	0.006768	5
	55	80	3.158693	117669.5	-196854.9	1	229342.4	-59.13125	5.669104E-010	0.0067893	5
	56	84	2.504006	140686	-226401	1	266552	-58.1431	2.727178E-010	0.0067646	5
	57	86	1.998082	165725.1	-258166.3	1	306781.1	-57.30232	-8.326131E-011	0.0067932	5
	58	90	1.584686	195260.2	-295164.4	1	353904.7	-56.51416	5.272065E-010	0.0068197	5
	59	93	1.266892	226309	-334793.5	1	404107	-55.94264	5.712361E-011	0.0068064	5
	60	98	0.999041	262073.1	-383714.2	1	464670.7	-55.6673	5.759875E-010	0.0067509	5
