EXPLAIN
TAG	EISPOT
TITLE	LABEL	Potentiostatic EIS	Test &Identifier
DATE	LABEL	10/6/2019	Date
TIME	LABEL	9:42:00	Time
NOTES	NOTES	2	&Notes...
	
	
PSTAT	PSTAT	REF600-11020	Potentiostat
VDC	POTEN	0.00000E+000	T	DC &Voltage (V)
FREQINIT	QUANT	1.00000E+006	Initial Fre&q. (Hz)
FREQFINAL	QUANT	1.00000E+000	Final Fre&q. (Hz)
PTSPERDEC	QUANT	1.00000E+001	Points/&decade
VAC	QUANT	2.50000E+001	AC &Voltage (mV rms)
AREA	QUANT	1.00000E-002	&Area (cm^2)
CONDIT	TWOPARAM	T	5.00000E+000	0.00000E+000	Conditionin&g	Time(s)	E(V)
DELAY	TWOPARAM	T	5.00000E+000	0.00000E+000	Init. De&lay	Time(s)	Stab.(mV/s)
SPEED	SELECTOR	1	&Optimize for:
ZGUESS	QUANT	1.00000E+004	E&stimated Z (ohms)
OCVCURVE	TABLE	19
	Pt	T	Vf	Vm	Ach	Over
	#	s	V vs. Ref.	V	V	bits
	0	0.258333	5.33499E-003	5.33499E-003	5.70899E-004	...........
	1	0.516667	5.33299E-003	5.23053E-003	5.79332E-004	...........
	2	0.775	5.32112E-003	5.15162E-003	5.72632E-004	...........
	3	1.03333	5.28899E-003	5.08453E-003	5.73666E-004	...........
	4	1.29167	5.23487E-003	5.03014E-003	5.75265E-004	...........
	5	1.55	5.16848E-003	4.98169E-003	5.75866E-004	...........
	6	1.80833	5.10196E-003	4.94427E-003	5.75932E-004	...........
	7	2.06667	5.04257E-003	4.90799E-003	5.74132E-004	...........
	8	2.325	4.99236E-003	4.88274E-003	5.78299E-004	...........
	9	2.58333	4.95054E-003	4.85445E-003	5.70732E-004	...........
	10	2.84167	4.91552E-003	4.83566E-003	5.70699E-004	...........
	11	3.1	4.88572E-003	4.81150E-003	5.79566E-004	...........
	12	3.35833	4.85983E-003	4.79654E-003	5.70332E-004	...........
	13	3.61667	4.83689E-003	4.77752E-003	5.69866E-004	...........
	14	3.875	4.81632E-003	4.76465E-003	5.76832E-004	...........
	15	4.13333	4.79789E-003	4.75466E-003	5.78399E-004	...........
	16	4.39167	4.78171E-003	4.74604E-003	5.70899E-004	...........
	17	4.65	4.76791E-003	4.73255E-003	5.69832E-004	...........
	18	4.90833	4.75605E-003	4.72566E-003	5.72332E-004	...........
EOC	QUANT	0.004756	Open Circuit (V)
PSTATMODEL	IQUANT	4	Pstat Model
PSTATSECTION	LABEL	REF600-11020	Pstat Section
PSTATSERIALNO	LABEL	11020	Pstat Serial Number
CTRLMODE	IQUANT	1	Control Mode
IESTAB	IQUANT	0	I/E Stability
CASPEED	IQUANT	1	Control Amp Speed
CONVENTION	IQUANT	1	Current Convention
ICHRANGE	IQUANT	2	Ich Range
ICHRANGEMODE	TOGGLE	F	Ich Auto Range
ICHOFFSETENABLE	TOGGLE	T	Ich Offset Enable
ICHOFFSET	QUANT	0	Ich Offset (V)
ICHFILTER	IQUANT	3	Ich Filter
VCHRANGE	IQUANT	2	Vch Range
VCHRANGEMODE	TOGGLE	F	Vch Auto Range
VCHOFFSETENABLE	TOGGLE	T	Vch Offset Enable
VCHOFFSET	QUANT	0	Vch Offset (V)
VCHFILTER	IQUANT	3	Vch Filter
ACHRANGE	IQUANT	2	Ach Range
ACHOFFSETENABLE	TOGGLE	F	Ach Offset Enable
ACHOFFSET	QUANT	0	Ach Offset (V)
ACHFILTER	IQUANT	3	Ach Filter
IERANGELOWERLIMIT	IQUANT	1	I/E Range Lower Limit
IERANGEMODE	TOGGLE	F	I/E AutoRange
IERANGE	IQUANT	5	I/E Range
POSFEEDENABLE	TOGGLE	F	Positive Feedback IR Comp
POSFEEDRESISTANCE	QUANT	0	Positive Feedback Resistance (ohm)
ACHSELECT	IQUANT	0	Ach Select
CABLEID	IQUANT	14	Cable ID
DCCALDATE	LABEL	8/19/2019	DC Calibration Date
ACCALDATE	LABEL	8/19/2019	AC Calibration Date
THERMOSELECT	IQUANT	1	Thermo Select
FRAMEWORKVERSION	QUANT	6.33	Framework Version
INSTRUMENTVERSION	LABEL	3.50	Instrument Version
ZCURVE	TABLE
	Pt	Time	Freq	Zreal	Zimag	Zsig	Zmod	Zphz	Idc	Vdc	IERange
	#	s	Hz	ohm	ohm	V	ohm	°	A	V	#
	0	1	1000078	2309.023	-1683.173	1	2857.386	-36.09035	2.538036E-006	0.0060455	8
	1	3	794390.6	2643.555	-1605.691	1	3092.996	-31.27442	5.264134E-006	0.0053565	8
	2	4	630984.4	2953.808	-1476.108	1	3302.102	-26.55269	1.375384E-006	0.0059506	8
	3	6	501234.4	3191.582	-1312.616	1	3450.965	-22.35611	1.152767E-006	0.0063041	8
	4	7	398109.4	3405.313	-1151.118	1	3594.611	-18.67709	7.804658E-007	0.0063544	8
	5	8	316265.6	3550.179	-1007.337	1	3690.325	-15.8409	3.88423E-006	0.005691	8
	6	10	251203.1	3652.246	-868.0879	1	3753.995	-13.37031	-2.36249E-006	0.0067993	8
	7	11	199546.9	3736.064	-746.4779	1	3809.908	-11.2991	-2.223524E-006	0.0069415	8
	8	13	158578.1	3799.26	-625.0294	1	3850.33	-9.342244	-2.217187E-006	0.006935	8
	9	14	125953.1	3867.327	-513.4653	1	3901.264	-7.562933	4.697138E-007	0.0060421	7
	10	16	100078.1	3898.855	-445.373	1	3924.21	-6.516748	-8.146812E-008	0.0065331	7
	11	17	79453.13	3932.807	-407.8603	1	3953.9	-5.920817	-8.29449E-008	0.0064009	7
	12	18	63140.62	3962.613	-381.4922	1	3980.934	-5.499083	-1.111323E-008	0.0063437	7
	13	20	50203.12	3991.525	-365.0447	1	4008.182	-5.225447	1.235692E-007	0.0061056	7
	14	21	39890.62	4020.885	-358.1273	1	4036.803	-5.08972	1.337759E-008	0.0062186	7
	15	22	31640.63	4048.147	-361.2024	1	4064.23	-5.098804	1.427616E-008	0.0063761	7
	16	24	25171.88	4076.899	-375.097	1	4094.118	-5.256725	-8.221356E-008	0.0063952	7
	17	25	20015.62	4108.888	-396.7195	1	4127.996	-5.514902	-6.674583E-008	0.0064143	7
	18	26	15890.62	4136.709	-431.0841	1	4159.11	-5.949286	8.285894E-008	0.0061221	7
	19	28	12609.37	4172.657	-476.982	1	4199.831	-6.52125	-1.142111E-008	0.0063095	7
	20	29	10078.13	4204.769	-532.0767	1	4238.3	-7.211948	1.073154E-007	0.0061869	7
	21	30	8015.625	4240.117	-604.1396	1	4282.94	-8.109028	-8.56446E-009	0.0063398	7
	22	32	6328.125	4283.437	-700.8866	1	4340.4	-9.292795	1.675935E-008	0.0062095	7
	23	33	5015.625	4327.998	-818.6661	1	4404.745	-10.71128	-7.700658E-008	0.0065204	7
	24	35	3984.375	4372.226	-961.739	1	4476.751	-12.40554	-1.412926E-008	0.0063214	7
	25	36	3170.956	4430.832	-1140.646	1	4575.297	-14.4364	-1.318153E-009	0.0062311	7
	26	37	2527.573	4490.505	-1357.72	1	4691.273	-16.82288	-8.210417E-008	0.0063959	7
	27	39	1976.103	4566.943	-1648.578	1	4855.387	-19.8486	-8.30715E-008	0.0063857	7
	28	40	1577.524	4645.285	-1976.694	1	5048.365	-23.05106	1.067091E-007	0.0061839	7
	29	41	1265.625	4736.22	-2366.776	1	5294.658	-26.55214	5.047952E-008	0.0061352	7
	30	43	998.264	4847.627	-2884.78	1	5641.05	-30.7565	-8.022714E-009	0.0062622	7
	31	44	796.875	4972.249	-3488.724	1	6074.08	-35.055	5.056547E-008	0.0061349	7
	32	45	627.7902	5126.748	-4275.341	1	6675.484	-39.82569	6.809497E-009	0.0062576	7
	33	47	505.5147	5289.572	-5154.469	1	7385.67	-44.25887	5.768236E-008	0.0061821	7
	34	48	397.9953	5510.362	-6357.581	1	8413.259	-49.08326	6.190984E-009	0.0063044	7
	35	49	315.5048	5770.448	-7799.798	1	9702.31	-53.50522	4.703384E-009	0.0063064	7
	36	51	252.4038	6081.064	-9506.76	1	11285.29	-57.39471	9.248069E-010	0.0062386	6
	37	52	198.6229	6496.128	-11769.72	1	13443.44	-61.10413	8.769921E-010	0.0062372	6
	38	53	158.3615	6999.244	-14410.26	1	16020.15	-64.09357	4.392437E-010	0.0062338	6
	39	55	125.558	7665.3	-17737.63	1	19323.06	-66.62846	9.941661E-010	0.0062395	6
	40	56	100.4464	8503.701	-21647.15	1	23257.52	-68.5535	3.521593E-010	0.0062375	6
	41	58	79.00281	9671.78	-26780.68	1	28473.64	-70.14293	4.996234E-010	0.0062346	6
	42	59	63.3446	10931.51	-32757.46	1	34533.3	-71.5456	7.976781E-010	0.0062374	6
	43	60	49.86702	13126.34	-40073.71	1	42168.75	-71.86354	3.196509E-010	0.0062334	6
	44	62	39.72458	15762.88	-49044.13	1	51515	-72.1825	7.503694E-010	0.0062376	6
	45	63	31.6723	19115.99	-59386.23	1	62387.06	-72.15701	5.677843E-010	0.0062375	6
	46	64	24.93351	23890.63	-72769.68	1	76591.05	-71.82475	6.824261E-010	0.0062328	6
	47	66	19.86229	29884.97	-87750.5	1	92699.84	-71.19283	4.197203E-010	0.0062385	6
	48	67	15.83615	37711.96	-105808.5	1	112328.2	-70.38306	1.887398E-009	0.0062336	5
	49	68	12.40079	47941.51	-127483.1	1	136199.6	-69.39064	7.162166E-010	0.0062342	5
	50	70	9.93114	60953.96	-150735.5	1	162593.2	-67.98272	7.719842E-010	0.0062348	5
	51	71	7.944915	76973.6	-177090.6	1	193095.9	-66.5075	4.447299E-010	0.0062439	5
	52	73	6.317385	96740.9	-207876.8	1	229284.9	-65.04386	-1.160763E-010	0.0062575	5
	53	75	5.008013	121954.1	-242412.5	1	271360.7	-63.29371	2.719595E-010	0.0062439	5
	54	78	3.945707	152941.8	-281556.4	1	320414.1	-61.48913	3.693546E-010	0.0062493	5
	55	80	3.158693	186963.5	-320653.8	1	371179.5	-59.75484	2.080268E-010	0.0062569	5
	56	84	2.504006	227307.1	-365271.3	1	430222.8	-58.10613	2.143332E-011	0.0062382	5
	57	86	1.998082	270735	-412066.9	1	493048.3	-56.69441	-1.914142E-010	0.0062438	5
	58	89	1.584686	321535.4	-462663.9	1	563420.7	-55.20204	1.250796E-010	0.006294	5
	59	93	1.266892	370596.5	-520058.8	1	638594.5	-54.52614	-1.427414E-010	0.0062355	5
	60	97	0.999041	428807.7	-587063.5	1	726993.5	-53.85456	2.739559E-010	0.0062751	5
