EXPLAIN
TAG	EISPOT
TITLE	LABEL	Potentiostatic EIS	Test &Identifier
DATE	LABEL	9/22/2019	Date
TIME	LABEL	8:52:49	Time
NOTES	NOTES	1	&Notes...
	
PSTAT	PSTAT	REF600-11020	Potentiostat
VDC	POTEN	0.00000E+000	T	DC &Voltage (V)
FREQINIT	QUANT	1.00000E+006	Initial Fre&q. (Hz)
FREQFINAL	QUANT	1.00000E+000	Final Fre&q. (Hz)
PTSPERDEC	QUANT	1.00000E+001	Points/&decade
VAC	QUANT	2.50000E+001	AC &Voltage (mV rms)
AREA	QUANT	1.00000E-002	&Area (cm^2)
CONDIT	TWOPARAM	T	5.00000E+000	0.00000E+000	Conditionin&g	Time(s)	E(V)
DELAY	TWOPARAM	T	5.00000E+000	0.00000E+000	Init. De&lay	Time(s)	Stab.(mV/s)
SPEED	SELECTOR	1	&Optimize for:
ZGUESS	QUANT	1.00000E+004	E&stimated Z (ohms)
OCVCURVE	TABLE	19
	Pt	T	Vf	Vm	Ach	Over
	#	s	V vs. Ref.	V	V	bits
	0	0.258333	3.58132E-002	3.58132E-002	5.59832E-004	...........
	1	0.516667	3.58601E-002	3.82682E-002	5.57632E-004	...........
	2	0.775	3.61462E-002	4.04964E-002	5.59366E-004	...........
	3	1.03333	3.69474E-002	4.25357E-002	5.62466E-004	...........
	4	1.29167	3.83588E-002	4.44096E-002	5.58699E-004	...........
	5	1.55	4.01952E-002	4.61365E-002	5.57799E-004	...........
	6	1.80833	4.21761E-002	4.78354E-002	5.56699E-004	...........
	7	2.06667	4.41081E-002	4.92577E-002	5.49833E-004	...........
	8	2.325	4.59104E-002	5.06778E-002	5.53366E-004	...........
	9	2.58333	4.75670E-002	5.19640E-002	5.61166E-004	...........
	10	2.84167	4.90881E-002	5.31291E-002	5.58266E-004	...........
	11	3.1	5.04906E-002	5.42757E-002	5.62366E-004	...........
	12	3.35833	5.17906E-002	5.53655E-002	5.57566E-004	...........
	13	3.61667	5.30055E-002	5.63929E-002	5.56566E-004	...........
	14	3.875	5.41520E-002	5.73752E-002	5.57666E-004	...........
	15	4.13333	5.52409E-002	5.83085E-002	5.55033E-004	...........
	16	4.39167	5.62772E-002	5.92045E-002	5.53599E-004	...........
	17	4.65	5.72645E-002	6.00552E-002	5.52966E-004	...........
	18	4.90833	5.82058E-002	6.08695E-002	5.57432E-004	...........
EOC	QUANT	0.0582058	Open Circuit (V)
PSTATMODEL	IQUANT	4	Pstat Model
PSTATSECTION	LABEL	REF600-11020	Pstat Section
PSTATSERIALNO	LABEL	11020	Pstat Serial Number
CTRLMODE	IQUANT	1	Control Mode
IESTAB	IQUANT	0	I/E Stability
CASPEED	IQUANT	1	Control Amp Speed
CONVENTION	IQUANT	1	Current Convention
ICHRANGE	IQUANT	2	Ich Range
ICHRANGEMODE	TOGGLE	F	Ich Auto Range
ICHOFFSETENABLE	TOGGLE	T	Ich Offset Enable
ICHOFFSET	QUANT	0	Ich Offset (V)
ICHFILTER	IQUANT	3	Ich Filter
VCHRANGE	IQUANT	2	Vch Range
VCHRANGEMODE	TOGGLE	F	Vch Auto Range
VCHOFFSETENABLE	TOGGLE	T	Vch Offset Enable
VCHOFFSET	QUANT	0	Vch Offset (V)
VCHFILTER	IQUANT	3	Vch Filter
ACHRANGE	IQUANT	2	Ach Range
ACHOFFSETENABLE	TOGGLE	F	Ach Offset Enable
ACHOFFSET	QUANT	0	Ach Offset (V)
ACHFILTER	IQUANT	3	Ach Filter
IERANGELOWERLIMIT	IQUANT	1	I/E Range Lower Limit
IERANGEMODE	TOGGLE	F	I/E AutoRange
IERANGE	IQUANT	7	I/E Range
POSFEEDENABLE	TOGGLE	F	Positive Feedback IR Comp
POSFEEDRESISTANCE	QUANT	0	Positive Feedback Resistance (ohm)
ACHSELECT	IQUANT	0	Ach Select
CABLEID	IQUANT	14	Cable ID
DCCALDATE	LABEL	8/19/2019	DC Calibration Date
ACCALDATE	LABEL	8/19/2019	AC Calibration Date
THERMOSELECT	IQUANT	1	Thermo Select
FRAMEWORKVERSION	QUANT	6.33	Framework Version
INSTRUMENTVERSION	LABEL	3.50	Instrument Version
ZCURVE	TABLE
	Pt	Time	Freq	Zreal	Zimag	Zsig	Zmod	Zphz	Idc	Vdc	IERange
	#	s	Hz	ohm	ohm	V	ohm	°	A	V	#
	0	1	1000078	1876.813	-736.9208	1	2016.304	-21.43719	-4.301718E-006	0.0614053	8
	1	2	794390.6	1983.866	-646.5555	1	2086.567	-18.05114	7.878126E-007	0.0604804	8
	2	4	630984.4	2071.506	-565.7369	1	2147.37	-15.27521	1.795984E-006	0.0595674	8
	3	5	501234.4	2134.581	-493.581	1	2190.903	-13.01973	-4.520839E-006	0.060941	8
	4	6	398109.4	2198.737	-425.4348	1	2239.518	-10.95087	1.450426E-007	0.0598536	8
	5	8	316265.6	2234.65	-375.1557	1	2265.922	-9.53001	1.581864E-006	0.0594109	8
	6	9	251203.1	2267.526	-337.0008	1	2292.432	-8.453447	-7.6278E-007	0.0599958	8
	7	10	199546.9	2292.899	-297.5641	1	2312.126	-7.394314	1.540786E-006	0.0594232	8
	8	12	158578.1	2321.998	-273.3797	1	2338.036	-6.714788	-3.137715E-007	0.0597983	8
	9	13	125953.1	2356.102	-231.8461	1	2367.481	-5.61995	2.799251E-007	0.0592079	7
	10	14	100078.1	2377.871	-217.5555	1	2387.803	-5.227534	-3.833127E-008	0.0598785	7
	11	16	79453.13	2399.775	-220.7407	1	2409.906	-5.255501	4.146312E-009	0.0597391	7
	12	17	63140.62	2422.735	-228.0827	1	2433.447	-5.378127	-6.483956E-008	0.0598957	7
	13	19	50203.12	2448.72	-239.5599	1	2460.411	-5.587503	-3.325085E-008	0.0598034	7
	14	20	39890.62	2475.121	-254.4695	1	2488.167	-5.870008	-1.576564E-008	0.0598351	7
	15	21	31640.63	2505.036	-274.1565	1	2519.993	-6.245716	-6.434723E-008	0.0598904	7
	16	23	25171.88	2536.436	-298.1177	1	2553.896	-6.703453	1.129738E-007	0.0596222	7
	17	24	20015.62	2570.191	-327.2637	1	2590.943	-7.256452	6.825368E-008	0.059645	7
	18	25	15890.62	2606.732	-361.7443	1	2631.713	-7.900653	-1.397937E-008	0.0598347	7
	19	27	12609.37	2648.136	-402.0457	1	2678.482	-8.632843	-1.609366E-008	0.0598366	7
	20	28	10078.13	2691.615	-448.6822	1	2728.755	-9.463974	6.876795E-008	0.0597563	7
	21	29	8015.625	2739.897	-503.501	1	2785.776	-10.41286	-6.368917E-008	0.0598927	7
	22	31	6328.125	2793.873	-569.4109	1	2851.308	-11.51951	-1.361828E-008	0.0598329	7
	23	32	5015.625	2851.358	-645.4774	1	2923.506	-12.75537	-7.845604E-009	0.0597448	7
	24	33	3984.375	2911.648	-734.476	1	3002.857	-14.15775	-1.55498E-008	0.059837	7
	25	35	3170.956	2973.633	-838.7566	1	3089.661	-15.75188	2.850623E-008	0.05977	7
	26	36	2527.573	3039.756	-964.044	1	3188.965	-17.59617	6.898358E-008	0.0596434	7
	27	37	1976.103	3112.343	-1130.432	1	3311.277	-19.9615	-3.716991E-008	0.059807	7
	28	39	1577.524	3183.694	-1319.064	1	3446.134	-22.50514	6.752093E-008	0.0596463	7
	29	40	1265.625	3256.665	-1547.295	1	3605.55	-25.41316	-3.625573E-008	0.0598662	7
	30	41	998.264	3338.999	-1851.256	1	3817.862	-29.0055	6.758478E-008	0.0596471	7
	31	43	796.875	3427.01	-2213.094	1	4079.484	-32.85356	-7.572142E-009	0.0597503	7
	32	44	627.7902	3532.945	-2689.42	1	4440.122	-37.27985	-6.196065E-009	0.0597489	7
	33	46	505.5147	3643.937	-3227.357	1	4867.659	-41.53062	-3.943527E-009	0.0598001	7
	34	47	397.9953	3796.983	-3957.334	1	5484.303	-46.18465	2.440759E-009	0.0598164	7
	35	48	315.5048	3976.9	-4839.475	1	6263.885	-50.58791	3.090351E-009	0.0598142	7
	36	50	252.4038	4190.414	-5879.238	1	7219.766	-54.52071	1.833994E-009	0.0598124	7
	37	51	198.6229	4480.533	-7253.635	1	8525.866	-58.29659	2.625887E-009	0.059813	7
	38	52	158.3615	4830.511	-8850.601	1	10083	-61.37502	2.947091E-009	0.0598067	7
	39	54	125.558	5291.875	-10852.49	1	12073.96	-64.00527	-1.052137E-009	0.0597487	6
	40	55	100.4464	5858.484	-13198.31	1	14440.13	-66.06446	-1.568822E-009	0.0597487	6
	41	56	79.00281	6645.333	-16273.8	1	17578.31	-67.78757	-1.104711E-009	0.0597492	6
	42	58	63.3446	7485.44	-19637.85	1	21016.11	-69.13445	-1.238171E-009	0.0597539	6
	43	59	49.86702	8912.201	-24136.11	1	25728.96	-69.73345	-1.79545E-009	0.0597471	6
	44	61	39.72458	10435.88	-29301.85	1	31104.76	-70.39659	-1.240706E-009	0.0597562	6
	45	62	31.6723	12403.64	-35428.64	1	37537.16	-70.70475	-1.447876E-009	0.0597493	6
	46	63	24.93351	15158.79	-43111.41	1	45698.83	-70.62737	-8.415911E-010	0.0597486	6
	47	65	19.86229	18432.73	-51922.06	1	55096.87	-70.45475	-1.629037E-009	0.0597586	6
	48	66	15.83615	22345.42	-62354.46	1	66237.42	-70.28429	-2.219344E-009	0.05975	6
	49	67	12.40079	28248.87	-75366.38	1	80486.58	-69.45296	-2.792067E-009	0.0597535	6
	50	69	9.93114	34148.54	-89545.45	1	95835.9	-69.12543	-1.777971E-009	0.0597564	6
	51	70	7.944915	41657.43	-105913.3	1	113811.1	-68.52948	-7.04194E-010	0.0597519	5
	52	72	6.317385	51300.16	-125716.8	1	135780.8	-67.80153	-9.276844E-010	0.059753	5
	53	74	5.008013	63023.03	-149366.5	1	162118	-67.12339	-1.093532E-009	0.0597639	5
	54	77	3.945707	77758.3	-177762.3	1	194025.2	-66.37405	-1.82736E-009	0.0597477	5
	55	79	3.158693	94644.77	-208518.4	1	228992.5	-65.5871	-1.249724E-009	0.0597558	5
	56	82	2.504006	115737.1	-245758.2	1	271647.2	-64.78243	-1.83217E-009	0.0597528	5
	57	85	1.998082	140432.2	-286911.5	1	319436.1	-63.92002	-1.379435E-009	0.0597098	5
	58	88	1.584686	170192.3	-336415	1	377015.2	-63.16516	-1.582025E-009	0.0597365	5
	59	92	1.266892	205787.8	-390438.1	1	441350.8	-62.20768	-1.362445E-009	0.0597138	5
	60	96	0.999041	250677	-455883.8	1	520258.6	-61.1949	-1.506277E-009	0.0597903	5
