EXPLAIN
TAG	EISPOT
TITLE	LABEL	Potentiostatic EIS	Test &Identifier
DATE	LABEL	10/31/2019	Date
TIME	LABEL	23:51:19	Time
NOTES	NOTES	1	&Notes...
	
PSTAT	PSTAT	REF600-11020	Potentiostat
VDC	POTEN	0.00000E+000	T	DC &Voltage (V)
FREQINIT	QUANT	1.00000E+006	Initial Fre&q. (Hz)
FREQFINAL	QUANT	1.00000E+000	Final Fre&q. (Hz)
PTSPERDEC	QUANT	1.00000E+001	Points/&decade
VAC	QUANT	2.50000E+001	AC &Voltage (mV rms)
AREA	QUANT	1.00000E-002	&Area (cm^2)
CONDIT	TWOPARAM	T	5.00000E+000	0.00000E+000	Conditionin&g	Time(s)	E(V)
DELAY	TWOPARAM	T	5.00000E+000	0.00000E+000	Init. De&lay	Time(s)	Stab.(mV/s)
SPEED	SELECTOR	0	&Optimize for:
ZGUESS	QUANT	1.00000E+005	E&stimated Z (ohms)
OCVCURVE	TABLE	19
	Pt	T	Vf	Vm	Ach	Over
	#	s	V vs. Ref.	V	V	bits
	0	0.258333	7.02408E-003	7.02408E-003	5.58166E-004	...........
	1	0.516667	7.02531E-003	7.08863E-003	5.54833E-004	...........
	2	0.775	7.03427E-003	7.22223E-003	5.56899E-004	...........
	3	1.03333	7.06400E-003	7.33996E-003	5.50466E-004	...........
	4	1.29167	7.12484E-003	7.43271E-003	5.55766E-004	...........
	5	1.55	7.21366E-003	7.54367E-003	5.58832E-004	...........
	6	1.80833	7.31864E-003	7.70445E-003	5.53466E-004	...........
	7	2.06667	7.43223E-003	7.80847E-003	5.49533E-004	...........
	8	2.325	7.55191E-003	7.90071E-003	5.55233E-004	...........
	9	2.58333	7.67250E-003	8.00926E-003	5.56499E-004	...........
	10	2.84167	7.78755E-003	8.10004E-003	5.62199E-004	...........
	11	3.1	7.89495E-003	8.19758E-003	5.63032E-004	...........
	12	3.35833	7.99635E-003	8.29384E-003	5.60499E-004	...........
	13	3.61667	8.09481E-003	8.42190E-003	5.60199E-004	...........
	14	3.875	8.19404E-003	8.50257E-003	5.63432E-004	...........
	15	4.13333	8.29615E-003	8.63071E-003	5.56166E-004	...........
	16	4.39167	8.40140E-003	8.75836E-003	5.57866E-004	...........
	17	4.65	8.51042E-003	8.85011E-003	5.62899E-004	...........
	18	4.90833	8.62203E-003	8.92782E-003	5.55499E-004	...........
EOC	QUANT	0.008622	Open Circuit (V)
PSTATMODEL	IQUANT	4	Pstat Model
PSTATSECTION	LABEL	REF600-11020	Pstat Section
PSTATSERIALNO	LABEL	11020	Pstat Serial Number
CTRLMODE	IQUANT	1	Control Mode
IESTAB	IQUANT	0	I/E Stability
CASPEED	IQUANT	1	Control Amp Speed
CONVENTION	IQUANT	1	Current Convention
ICHRANGE	IQUANT	2	Ich Range
ICHRANGEMODE	TOGGLE	F	Ich Auto Range
ICHOFFSETENABLE	TOGGLE	T	Ich Offset Enable
ICHOFFSET	QUANT	0	Ich Offset (V)
ICHFILTER	IQUANT	3	Ich Filter
VCHRANGE	IQUANT	2	Vch Range
VCHRANGEMODE	TOGGLE	F	Vch Auto Range
VCHOFFSETENABLE	TOGGLE	T	Vch Offset Enable
VCHOFFSET	QUANT	0	Vch Offset (V)
VCHFILTER	IQUANT	3	Vch Filter
ACHRANGE	IQUANT	2	Ach Range
ACHOFFSETENABLE	TOGGLE	F	Ach Offset Enable
ACHOFFSET	QUANT	0	Ach Offset (V)
ACHFILTER	IQUANT	3	Ach Filter
IERANGELOWERLIMIT	IQUANT	1	I/E Range Lower Limit
IERANGEMODE	TOGGLE	F	I/E AutoRange
IERANGE	IQUANT	5	I/E Range
POSFEEDENABLE	TOGGLE	F	Positive Feedback IR Comp
POSFEEDRESISTANCE	QUANT	0	Positive Feedback Resistance (ohm)
ACHSELECT	IQUANT	0	Ach Select
CABLEID	IQUANT	14	Cable ID
DCCALDATE	LABEL	8/19/2019	DC Calibration Date
ACCALDATE	LABEL	8/19/2019	AC Calibration Date
THERMOSELECT	IQUANT	1	Thermo Select
FRAMEWORKVERSION	QUANT	6.33	Framework Version
INSTRUMENTVERSION	LABEL	3.50	Instrument Version
ZCURVE	TABLE
	Pt	Time	Freq	Zreal	Zimag	Zsig	Zmod	Zphz	Idc	Vdc	IERange
	#	s	Hz	ohm	ohm	V	ohm	°	A	V	#
	0	1	1000078	2128.015	-1202.929	1	2444.481	-29.47869	-7.398171E-006	0.0102281	8
	1	2	794390.6	2357.712	-1116.178	1	2608.574	-25.33362	1.050803E-005	0.0093317	8
	2	2	630984.4	2529.255	-988.128	1	2715.424	-21.33956	4.037485E-007	0.0095441	8
	3	2	501234.4	2682.55	-874.2527	1	2821.416	-18.05098	-2.813171E-006	0.010001	8
	4	3	398109.4	2792.389	-749.353	1	2891.188	-15.02172	-4.450205E-007	0.0097583	8
	5	3	316265.6	2873.341	-643.3679	1	2944.488	-12.62089	-2.741469E-006	0.0106001	8
	6	3	251203.1	2940.661	-559.715	1	2993.454	-10.77657	8.536364E-007	0.0104241	8
	7	4	199546.9	2980.651	-480.7534	1	3019.173	-9.162408	-3.102421E-007	0.0097973	8
	8	4	158578.1	3023.492	-420.5133	1	3052.595	-7.918017	1.855323E-006	0.0103313	8
	9	4	125953.1	3076.48	-326.9746	1	3093.807	-6.066739	-6.68422E-007	0.0131218	7
	10	5	100078.1	3097.355	-293.6018	1	3111.239	-5.414953	-1.004331E-006	0.0105218	7
	11	5	79453.13	3119.854	-278.4077	1	3132.251	-5.09942	1.201718E-007	0.0087077	7
	12	5	63140.62	3140.382	-269.8476	1	3151.954	-4.911263	6.448143E-008	0.0109498	7
	13	6	50203.12	3162.522	-266.4174	1	3173.724	-4.815346	-6.026251E-007	0.0115576	7
	14	6	39890.62	3184.01	-268.0052	1	3195.269	-4.811371	-1.005358E-006	0.0105099	7
	15	6	31640.63	3204.682	-279.6406	1	3216.859	-4.987	-1.185495E-006	0.0114211	7
	16	7	25171.88	3227.532	-297.827	1	3241.244	-5.272153	-2.855397E-007	0.0113224	7
	17	7	20015.62	3251.264	-324.8855	1	3267.456	-5.70639	9.708924E-007	0.0093381	7
	18	7	15890.62	3269.581	-358.8754	1	3289.218	-6.263819	-1.060395E-006	0.0115688	7
	19	8	12609.37	3295.012	-407.856	1	3320.158	-7.056171	9.411697E-007	0.0084055	7
	20	8	10078.13	3317.17	-465.8688	1	3349.724	-7.994427	-1.005705E-006	0.0105054	7
	21	8	8015.625	3347.062	-544.3628	1	3391.04	-9.237645	7.919447E-007	0.0098139	7
	22	8	6328.125	3371.4	-646.3867	1	3432.806	-10.85341	-1.003581E-006	0.0104973	7
	23	9	5015.625	3407.076	-769.9962	1	3493.002	-12.73486	4.733762E-007	0.0084118	7
	24	9	3984.375	3441.883	-921.7212	1	3563.162	-14.99179	3.744252E-007	0.0105165	7
	25	9	3170.956	3482.829	-1110.935	1	3655.718	-17.69138	-8.672924E-007	0.0116269	7
	26	10	2527.573	3533.328	-1345.155	1	3780.72	-20.84207	1.042066E-006	0.0086173	7
	27	10	1976.103	3593.655	-1651.376	1	3954.921	-24.67998	-8.680581E-007	0.0116261	7
	28	10	1577.524	3655.211	-2012.642	1	4172.685	-28.83818	4.722464E-007	0.0084096	7
	29	11	1265.625	3737.412	-2432.943	1	4459.536	-33.06292	4.741716E-007	0.0084105	7
	30	11	998.264	3838.381	-2996.798	1	4869.699	-37.98077	9.703537E-007	0.0093348	7
	31	11	796.875	3954.798	-3658.694	1	5387.622	-42.77277	1.041202E-006	0.0086129	7
	32	12	627.7902	4113.667	-4511.239	1	6105.205	-47.63923	-6.932723E-007	0.0098416	7
	33	12	505.5147	4292.979	-5465.78	1	6950.138	-51.8529	-5.988384E-007	0.0115418	7
	34	12	397.9953	4539.926	-6781.239	1	8160.646	-56.19836	-7.118652E-010	0.010037	7
	35	13	315.5048	4851.307	-8347.917	1	9655.2	-59.83742	3.469932E-009	0.0100321	7
	36	13	252.4038	5247.067	-10190.97	1	11462.45	-62.75724	7.111098E-010	0.0099739	6
	37	13	198.6229	5796.836	-12620.09	1	13887.77	-65.32908	1.696784E-010	0.0099742	6
	38	14	158.3615	6486.711	-15433.53	1	16741.3	-67.20299	4.280758E-010	0.0099759	6
	39	14	125.558	7434.104	-18935.71	1	20342.74	-68.56517	3.50853E-010	0.0099736	6
	40	14	100.4464	8673.775	-23010.58	1	24591.08	-69.3462	-1.454549E-009	0.0099765	6
	41	15	79.00281	10464.51	-28331.54	1	30202.36	-69.72784	1.808324E-010	0.0099674	6
	42	15	63.3446	12188.89	-33901.53	1	36026.14	-70.22456	-3.993145E-011	0.0099643	6
	43	15	49.86702	15438.78	-41274.63	1	44067.57	-69.49168	4.969613E-011	0.0099559	6
	44	16	39.72458	19505.2	-49695.49	1	53386.28	-68.57027	1.588868E-010	0.0099714	6
	45	16	31.6723	24679.9	-59136.12	1	64079.46	-67.34724	1.264973E-009	0.0099614	6
	46	16	24.93351	31117.72	-70152.95	1	76744.7	-66.07938	-5.196323E-010	0.0099601	6
	47	17	19.86229	38698.72	-82101.5	1	90764.79	-64.76305	-8.567696E-010	0.009976	6
	48	17	15.83615	47868.2	-96514.3	1	107732.8	-63.61996	1.139714E-009	0.0099786	5
	49	17	12.40079	59822.75	-111525.9	1	126557.4	-61.79079	5.055322E-010	0.0099713	5
	50	18	9.93114	71301.03	-127266.1	1	145878.4	-60.74021	-6.896383E-010	0.009971	5
	51	18	7.944915	85347.1	-145250.9	1	168469.5	-59.56219	-9.382528E-010	0.009971	5
	52	19	6.317385	100583	-166703.8	1	194697.5	-58.89475	-9.736469E-010	0.0099948	5
	53	20	5.008013	118612.6	-191534.2	1	225287.1	-58.23104	-5.303367E-010	0.0099755	5
	54	21	3.945707	139107.2	-220669.5	1	260856	-57.77319	-2.856083E-010	0.0099673	5
	55	22	3.158693	161030.8	-252435.5	1	299423.8	-57.46584	-5.761724E-012	0.0099784	5
	56	24	2.504006	187044.8	-290485.3	1	345496	-57.22234	-2.927599E-010	0.0099784	5
	57	25	1.998082	214919.3	-333634.4	1	396865.5	-57.21133	-3.590438E-010	0.009945	5
	58	27	1.584686	247441.9	-383559	1	456448.2	-57.1731	-1.645561E-010	0.0099906	5
	59	29	1.266892	283409.8	-441418.6	1	524567.9	-57.29779	-1.248888E-010	0.0100091	5
	60	31	0.999041	325002.4	-513981.8	1	608115	-57.6939	-9.853692E-011	0.0100026	5
