EXPLAIN
TAG	EISPOT
TITLE	LABEL	Potentiostatic EIS	Test &Identifier
DATE	LABEL	10/12/2019	Date
TIME	LABEL	9:00:26	Time
NOTES	NOTES	1	&Notes...
	
PSTAT	PSTAT	REF600-11020	Potentiostat
VDC	POTEN	0.00000E+000	T	DC &Voltage (V)
FREQINIT	QUANT	1.00000E+006	Initial Fre&q. (Hz)
FREQFINAL	QUANT	1.00000E+000	Final Fre&q. (Hz)
PTSPERDEC	QUANT	1.00000E+001	Points/&decade
VAC	QUANT	2.50000E+001	AC &Voltage (mV rms)
AREA	QUANT	1.00000E-002	&Area (cm^2)
CONDIT	TWOPARAM	T	5.00000E+000	0.00000E+000	Conditionin&g	Time(s)	E(V)
DELAY	TWOPARAM	T	5.00000E+000	0.00000E+000	Init. De&lay	Time(s)	Stab.(mV/s)
SPEED	SELECTOR	1	&Optimize for:
ZGUESS	QUANT	1.00000E+004	E&stimated Z (ohms)
OCVCURVE	TABLE	19
	Pt	T	Vf	Vm	Ach	Over
	#	s	V vs. Ref.	V	V	bits
	0	0.258333	6.66491E-003	6.66491E-003	5.39233E-004	...........
	1	0.516667	6.66219E-003	6.52249E-003	5.42199E-004	...........
	2	0.775	6.63364E-003	5.76747E-003	5.41999E-004	...........
	3	1.03333	6.53409E-003	6.12041E-003	5.38933E-004	...........
	4	1.29167	6.35877E-003	5.89447E-003	5.47699E-004	...........
	5	1.55	6.18024E-003	6.29816E-003	5.41899E-004	...........
	6	1.80833	6.09650E-003	7.03600E-003	5.38499E-004	...........
	7	2.06667	6.16925E-003	6.65509E-003	5.45199E-004	...........
	8	2.325	6.33993E-003	5.34614E-003	5.45566E-004	...........
	9	2.58333	6.41640E-003	5.92254E-003	5.43133E-004	...........
	10	2.84167	6.28875E-003	5.86833E-003	5.40799E-004	...........
	11	3.1	6.07164E-003	5.96160E-003	5.37566E-004	...........
	12	3.35833	5.92875E-003	6.10857E-003	5.32333E-004	...........
	13	3.61667	5.90155E-003	5.94329E-003	5.47333E-004	...........
	14	3.875	5.93872E-003	6.02877E-003	5.50433E-004	...........
	15	4.13333	5.97407E-003	5.67469E-003	5.41699E-004	...........
	16	4.39167	5.96833E-003	5.94393E-003	5.47566E-004	...........
	17	4.65	5.93134E-003	6.06920E-003	5.44099E-004	...........
	18	4.90833	5.91070E-003	6.03014E-003	5.50766E-004	...........
EOC	QUANT	0.0059107	Open Circuit (V)
PSTATMODEL	IQUANT	4	Pstat Model
PSTATSECTION	LABEL	REF600-11020	Pstat Section
PSTATSERIALNO	LABEL	11020	Pstat Serial Number
CTRLMODE	IQUANT	1	Control Mode
IESTAB	IQUANT	0	I/E Stability
CASPEED	IQUANT	1	Control Amp Speed
CONVENTION	IQUANT	1	Current Convention
ICHRANGE	IQUANT	2	Ich Range
ICHRANGEMODE	TOGGLE	F	Ich Auto Range
ICHOFFSETENABLE	TOGGLE	T	Ich Offset Enable
ICHOFFSET	QUANT	0	Ich Offset (V)
ICHFILTER	IQUANT	3	Ich Filter
VCHRANGE	IQUANT	2	Vch Range
VCHRANGEMODE	TOGGLE	F	Vch Auto Range
VCHOFFSETENABLE	TOGGLE	T	Vch Offset Enable
VCHOFFSET	QUANT	0	Vch Offset (V)
VCHFILTER	IQUANT	3	Vch Filter
ACHRANGE	IQUANT	2	Ach Range
ACHOFFSETENABLE	TOGGLE	F	Ach Offset Enable
ACHOFFSET	QUANT	0	Ach Offset (V)
ACHFILTER	IQUANT	3	Ach Filter
IERANGELOWERLIMIT	IQUANT	1	I/E Range Lower Limit
IERANGEMODE	TOGGLE	F	I/E AutoRange
IERANGE	IQUANT	6	I/E Range
POSFEEDENABLE	TOGGLE	F	Positive Feedback IR Comp
POSFEEDRESISTANCE	QUANT	0	Positive Feedback Resistance (ohm)
ACHSELECT	IQUANT	0	Ach Select
CABLEID	IQUANT	14	Cable ID
DCCALDATE	LABEL	8/19/2019	DC Calibration Date
ACCALDATE	LABEL	8/19/2019	AC Calibration Date
THERMOSELECT	IQUANT	1	Thermo Select
FRAMEWORKVERSION	QUANT	6.33	Framework Version
INSTRUMENTVERSION	LABEL	3.50	Instrument Version
ZCURVE	TABLE
	Pt	Time	Freq	Zreal	Zimag	Zsig	Zmod	Zphz	Idc	Vdc	IERange
	#	s	Hz	ohm	ohm	V	ohm	°	A	V	#
	0	1	1000078	2540.3	-1354.323	1	2878.77	-28.06364	1.312301E-006	0.0075702	8
	1	3	794390.6	2735.856	-1266.065	1	3014.603	-24.83316	-4.302426E-006	0.0086898	8
	2	4	630984.4	2961.528	-1131.635	1	3170.37	-20.91246	-1.095692E-006	0.0084308	8
	3	6	501234.4	3097.279	-1008.448	1	3257.316	-18.03481	-1.594122E-006	0.0076907	8
	4	7	398109.4	3233.777	-897.2605	1	3355.948	-15.50748	2.653634E-006	0.0070582	8
	5	8	316265.6	3336.025	-770.7717	1	3423.908	-13.00961	9.763666E-007	0.0075398	8
	6	10	251203.1	3431.969	-666.1933	1	3496.03	-10.9853	-5.211662E-006	0.0084749	8
	7	11	199546.9	3474.589	-572.2289	1	3521.394	-9.352074	-3.757066E-006	0.0082368	8
	8	13	158578.1	3528.594	-524.1843	1	3567.316	-8.449683	-1.916751E-006	0.0079941	8
	9	14	125953.1	3591.168	-408.3121	1	3614.306	-6.486616	-5.457202E-008	0.0086805	7
	10	15	100078.1	3621.081	-389.8574	1	3642.007	-6.144981	4.680404E-008	0.0075314	7
	11	17	79453.13	3651.37	-379.8201	1	3671.072	-5.938621	1.146641E-008	0.0075369	7
	12	18	63140.62	3683.703	-378.3915	1	3703.086	-5.864877	-3.246619E-008	0.0075575	7
	13	19	50203.12	3717.793	-385.3585	1	3737.712	-5.917717	-2.163344E-008	0.0076349	7
	14	21	39890.62	3755.244	-399.0631	1	3776.388	-6.065956	1.359349E-007	0.0073588	7
	15	22	31640.63	3792.535	-422.4568	1	3815.992	-6.356069	8.03624E-009	0.0076731	7
	16	23	25171.88	3834.105	-455.9969	1	3861.126	-6.782431	9.552945E-008	0.00737	7
	17	25	20015.62	3858.037	-494.9749	1	3889.659	-7.310944	1.328072E-008	0.0075215	7
	18	26	15890.62	3928.076	-549.1411	1	3966.275	-7.958315	2.972669E-008	0.0074555	7
	19	27	12609.37	3980.515	-616.1235	1	4027.916	-8.798696	-3.613228E-008	0.0075532	7
	20	29	10078.13	4033.769	-691.1404	1	4092.55	-9.72257	5.848215E-008	0.007385	7
	21	30	8015.625	4075.02	-784.5705	1	4149.86	-10.8979	1.018771E-007	0.00737	7
	22	32	6328.125	4137.22	-896.0995	1	4233.153	-12.22118	-8.691889E-008	0.0078177	7
	23	33	5015.625	4206.985	-1039.476	1	4333.501	-13.87885	-6.463772E-008	0.0076301	7
	24	34	3984.375	4268.386	-1204.728	1	4435.143	-15.76142	-2.136465E-008	0.0076316	7
	25	36	3170.956	4357.889	-1420.713	1	4583.625	-18.05646	-2.93626E-008	0.0075377	7
	26	37	2527.573	4444.519	-1675.579	1	4749.875	-20.65639	-1.234152E-008	0.0075524	7
	27	38	1976.103	4552.549	-2020.686	1	4980.851	-23.93443	-4.158145E-008	0.0075537	7
	28	40	1577.524	4616.029	-2440.01	1	5221.242	-27.86071	4.857613E-008	0.0075087	7
	29	41	1265.625	4781.439	-2860.867	1	5571.958	-30.89325	4.924966E-008	0.0075059	7
	30	42	998.264	4933.267	-3463.078	1	6027.44	-35.06827	-7.258014E-008	0.0076418	7
	31	44	796.875	5095.355	-4171.68	1	6585.253	-39.30795	-7.421639E-008	0.0076847	7
	32	45	627.7902	5292.639	-5087.131	1	7341.044	-43.86576	1.239437E-007	0.0074403	7
	33	46	505.5147	5497.493	-6112.946	1	8221.346	-48.03433	-4.363146E-008	0.0075513	7
	34	48	397.9953	5763.007	-7503.637	1	9461.333	-52.47471	4.76786E-009	0.0075667	7
	35	49	315.5048	6082.247	-9183.932	1	11015.37	-56.48466	5.359247E-010	0.0075052	6
	36	50	252.4038	6448.246	-11178.57	1	12905.05	-60.02194	1.606951E-009	0.0075017	6
	37	52	198.6229	6938.751	-13821.84	1	15465.75	-63.34272	6.744325E-010	0.0075019	6
	38	53	158.3615	7527.443	-16912.13	1	18511.69	-66.00657	1.342476E-009	0.0074981	6
	39	54	125.558	8299.059	-20814.26	1	22407.76	-68.26185	7.302335E-010	0.0074993	6
	40	56	100.4464	9290.214	-25412.68	1	27057.58	-69.91891	1.638684E-009	0.0074935	6
	41	57	79.00281	10591.53	-31392.71	1	33131.3	-71.35621	-1.0697E-010	0.0074956	6
	42	59	63.3446	11854.82	-38364.98	1	40154.81	-72.82879	2.91462E-011	0.0074914	6
	43	60	49.86702	14896.68	-46946.8	1	49253.56	-72.39526	1.339703E-009	0.007492	6
	44	61	39.72458	17700.74	-57600.91	1	60259.28	-72.91782	1.067987E-009	0.0074967	6
	45	63	31.6723	21570.49	-69825.55	1	73081.42	-72.83305	4.363185E-010	0.0074967	6
	46	64	24.93351	27131.74	-85742.42	1	89932.72	-72.44091	3.32288E-010	0.0074943	6
	47	65	19.86229	34066.88	-103324.9	1	108796.1	-71.75229	-3.498343E-010	0.0075059	5
	48	67	15.83615	42965.36	-124593.4	1	131793.6	-70.97353	2.490206E-011	0.0074988	5
	49	68	12.40079	57426.79	-151592.8	1	162105.6	-69.25217	-1.165548E-009	0.0075017	5
	50	70	9.93114	70404.34	-174181.7	1	187872.4	-67.99142	9.18049E-009	0.0074997	5
	51	71	7.944915	90397.44	-207687.2	1	226507.6	-66.47855	1.032388E-009	0.0075124	5
	52	73	6.317385	114019.3	-243576.2	1	268941.9	-64.91545	1.734106E-010	0.007519	5
	53	75	5.008013	143485.8	-283182.8	1	317459.7	-63.12913	2.896367E-010	0.0075014	5
	54	77	3.945707	179496.7	-328587.5	1	374418	-61.35365	2.444666E-010	0.0075069	5
	55	80	3.158693	218698.5	-374101.6	1	433337	-59.68959	1.459637E-010	0.0075195	5
	56	83	2.504006	264039.8	-426266.5	1	501418.1	-58.22491	-7.707935E-011	0.0074924	5
	57	86	1.998082	312901	-482437.6	1	575024.4	-57.03323	-3.252991E-010	0.0075009	5
	58	89	1.584686	370739.1	-543780	1	658136.9	-55.71456	-2.969444E-011	0.0075505	5
	59	93	1.266892	428662.7	-613975.6	1	748810.9	-55.0782	-1.915486E-010	0.0074911	5
	60	97	0.999041	497458.8	-701121.9	1	859672.7	-54.64361	2.28657E-010	0.0075333	5
