EXPLAIN
TAG	EISPOT
TITLE	LABEL	Potentiostatic EIS	Test &Identifier
DATE	LABEL	9/20/2019	Date
TIME	LABEL	10:27:06	Time
NOTES	NOTES	1	&Notes...
	
PSTAT	PSTAT	REF600-11020	Potentiostat
VDC	POTEN	0.00000E+000	T	DC &Voltage (V)
FREQINIT	QUANT	1.00000E+006	Initial Fre&q. (Hz)
FREQFINAL	QUANT	1.00000E+000	Final Fre&q. (Hz)
PTSPERDEC	QUANT	1.00000E+001	Points/&decade
VAC	QUANT	2.50000E+001	AC &Voltage (mV rms)
AREA	QUANT	1.00000E-002	&Area (cm^2)
CONDIT	TWOPARAM	T	5.00000E+000	0.00000E+000	Conditionin&g	Time(s)	E(V)
DELAY	TWOPARAM	T	5.00000E+000	0.00000E+000	Init. De&lay	Time(s)	Stab.(mV/s)
SPEED	SELECTOR	1	&Optimize for:
ZGUESS	QUANT	1.00000E+004	E&stimated Z (ohms)
OCVCURVE	TABLE	19
	Pt	T	Vf	Vm	Ach	Over
	#	s	V vs. Ref.	V	V	bits
	0	0.258333	6.73059E-003	6.73059E-003	5.66132E-004	...........
	1	0.516667	6.73491E-003	6.95700E-003	5.66032E-004	...........
	2	0.775	6.76131E-003	7.16313E-003	5.69632E-004	...........
	3	1.03333	6.83524E-003	7.35009E-003	5.80299E-004	...........
	4	1.29167	6.96551E-003	7.52653E-003	5.71066E-004	...........
	5	1.55	7.13513E-003	7.68432E-003	5.71699E-004	...........
	6	1.80833	7.31829E-003	7.84027E-003	5.65399E-004	...........
	7	2.06667	7.49718E-003	7.98586E-003	5.67066E-004	...........
	8	2.325	7.66528E-003	8.13370E-003	5.62732E-004	...........
	9	2.58333	7.82276E-003	8.25160E-003	5.69966E-004	...........
	10	2.84167	7.97088E-003	8.37847E-003	5.68766E-004	...........
	11	3.1	8.11000E-003	8.49593E-003	5.74266E-004	...........
	12	3.35833	8.24091E-003	8.61226E-003	5.67266E-004	...........
	13	3.61667	8.36531E-003	8.72225E-003	5.71432E-004	...........
	14	3.875	8.48480E-003	8.83480E-003	5.67399E-004	...........
	15	4.13333	8.60060E-003	8.94480E-003	5.71399E-004	...........
	16	4.39167	8.71396E-003	9.06225E-003	5.67132E-004	...........
	17	4.65	8.82615E-003	9.16413E-003	5.65166E-004	...........
	18	4.90833	8.93821E-003	9.30236E-003	5.72432E-004	...........
EOC	QUANT	0.0089382	Open Circuit (V)
PSTATMODEL	IQUANT	4	Pstat Model
PSTATSECTION	LABEL	REF600-11020	Pstat Section
PSTATSERIALNO	LABEL	11020	Pstat Serial Number
CTRLMODE	IQUANT	1	Control Mode
IESTAB	IQUANT	0	I/E Stability
CASPEED	IQUANT	1	Control Amp Speed
CONVENTION	IQUANT	1	Current Convention
ICHRANGE	IQUANT	2	Ich Range
ICHRANGEMODE	TOGGLE	F	Ich Auto Range
ICHOFFSETENABLE	TOGGLE	T	Ich Offset Enable
ICHOFFSET	QUANT	0	Ich Offset (V)
ICHFILTER	IQUANT	3	Ich Filter
VCHRANGE	IQUANT	2	Vch Range
VCHRANGEMODE	TOGGLE	F	Vch Auto Range
VCHOFFSETENABLE	TOGGLE	T	Vch Offset Enable
VCHOFFSET	QUANT	0	Vch Offset (V)
VCHFILTER	IQUANT	3	Vch Filter
ACHRANGE	IQUANT	2	Ach Range
ACHOFFSETENABLE	TOGGLE	F	Ach Offset Enable
ACHOFFSET	QUANT	0	Ach Offset (V)
ACHFILTER	IQUANT	3	Ach Filter
IERANGELOWERLIMIT	IQUANT	1	I/E Range Lower Limit
IERANGEMODE	TOGGLE	F	I/E AutoRange
IERANGE	IQUANT	6	I/E Range
POSFEEDENABLE	TOGGLE	F	Positive Feedback IR Comp
POSFEEDRESISTANCE	QUANT	0	Positive Feedback Resistance (ohm)
ACHSELECT	IQUANT	0	Ach Select
CABLEID	IQUANT	14	Cable ID
DCCALDATE	LABEL	8/19/2019	DC Calibration Date
ACCALDATE	LABEL	8/19/2019	AC Calibration Date
THERMOSELECT	IQUANT	1	Thermo Select
FRAMEWORKVERSION	QUANT	6.33	Framework Version
INSTRUMENTVERSION	LABEL	3.50	Instrument Version
ZCURVE	TABLE
	Pt	Time	Freq	Zreal	Zimag	Zsig	Zmod	Zphz	Idc	Vdc	IERange
	#	s	Hz	ohm	ohm	V	ohm	°	A	V	#
	0	1	1000078	2401.914	-977.541	1	2593.218	-22.14555	7.780206E-006	0.010465	8
	1	2	794390.6	2557.953	-857.6993	1	2697.92	-18.53666	-3.356803E-006	0.0113321	8
	2	3	630984.4	2672.072	-746.8594	1	2774.485	-15.61598	6.421327E-007	0.0109963	8
	3	5	501234.4	2758.496	-635.1312	1	2830.67	-12.96612	-1.801331E-007	0.010672	8
	4	6	398109.4	2814.075	-540.548	1	2865.521	-10.87335	-3.269661E-006	0.0113932	8
	5	8	316265.6	2869.986	-461.8539	1	2906.91	-9.141973	1.134399E-006	0.0106646	8
	6	9	251203.1	2902.025	-396.0282	1	2928.923	-7.770932	-3.336168E-007	0.0105799	8
	7	10	199546.9	2940.875	-340.1861	1	2960.486	-6.598369	-5.415704E-007	0.0108858	8
	8	12	158578.1	2962.101	-295.881	1	2976.842	-5.70429	-2.989299E-006	0.0112709	8
	9	13	125953.1	2993.525	-235.4586	1	3002.771	-4.497395	-5.409584E-007	0.011892	7
	10	14	100078.1	3006.653	-215.4541	1	3014.363	-4.098758	-5.328463E-008	0.010724	7
	11	16	79453.13	3024.604	-208.0651	1	3031.752	-3.935226	-1.704685E-008	0.0105406	7
	12	17	63140.62	3042.223	-206.0859	1	3049.195	-3.875404	6.222171E-008	0.0104564	7
	13	18	50203.12	3060.403	-205.2593	1	3067.279	-3.837045	-5.243762E-008	0.0107163	7
	14	20	39890.62	3079.311	-210.2528	1	3086.481	-3.906045	-5.276422E-008	0.0107155	7
	15	21	31640.63	3098.94	-218.0291	1	3106.601	-4.024471	3.130351E-008	0.0105332	7
	16	22	25171.88	3118.459	-231.2195	1	3127.019	-4.24046	-3.89936E-008	0.0105814	7
	17	24	20015.62	3138.37	-249.7604	1	3148.293	-4.55017	6.538311E-008	0.0104494	7
	18	25	15890.62	3160.107	-273.9112	1	3171.956	-4.953891	-2.538623E-009	0.0105741	7
	19	27	12609.37	3181.974	-304.9705	1	3196.555	-5.474687	3.174883E-008	0.0105288	7
	20	28	10078.13	3205.273	-344.5213	1	3223.735	-6.13493	-3.729807E-008	0.0106066	7
	21	29	8015.625	3230.429	-393.5152	1	3254.309	-6.945274	7.406241E-008	0.0105244	7
	22	31	6328.125	3259.352	-457.3297	1	3291.281	-7.987203	9.55599E-010	0.0105611	7
	23	32	5015.625	3290.385	-534.1423	1	3333.458	-9.220634	-3.807157E-008	0.0105994	7
	24	33	3984.375	3324	-629.201	1	3383.027	-10.71872	-1.156797E-008	0.0106054	7
	25	35	3170.956	3363.133	-743.425	1	3444.321	-12.46486	-8.837265E-010	0.0105599	7
	26	36	2527.573	3407.168	-881.3708	1	3519.32	-14.50342	3.957492E-008	0.0104232	7
	27	37	1976.103	3461.477	-1065.99	1	3621.9	-17.11664	4.278314E-008	0.0104314	7
	28	39	1577.524	3517.313	-1271.667	1	3740.137	-19.87721	-3.708084E-008	0.0105765	7
	29	40	1265.625	3582.187	-1520.592	1	3891.563	-23.00059	-4.104544E-008	0.0106427	7
	30	42	998.264	3659.25	-1844.307	1	4097.753	-26.74867	-1.714203E-008	0.0106989	7
	31	43	796.875	3744.263	-2223.343	1	4354.625	-30.70184	3.309747E-008	0.0105196	7
	32	44	627.7902	3852.316	-2720.564	1	4716.122	-35.23031	-4.943983E-008	0.0107081	7
	33	46	505.5147	3968.679	-3268.266	1	5141.204	-39.47196	-3.472116E-008	0.0105762	7
	34	47	397.9953	4126.3	-4021.444	1	5761.802	-44.26268	5.651264E-009	0.0105758	7
	35	48	315.5048	4315.731	-4922.209	1	6546.272	-48.75613	4.412388E-009	0.0105743	7
	36	50	252.4038	4543.969	-5983.249	1	7513.117	-52.78521	5.194603E-009	0.0105722	7
	37	51	198.6229	4860.55	-7383.908	1	8840.082	-56.64459	5.603628E-009	0.0105742	7
	38	52	158.3615	5252.041	-9009.109	1	10428.23	-59.7591	9.309942E-010	0.0105097	6
	39	54	125.558	5771.871	-11041.35	1	12458.97	-62.40165	1.336024E-009	0.0105164	6
	40	55	100.4464	6428.967	-13408.15	1	14869.78	-64.38313	1.941896E-009	0.0105121	6
	41	57	79.00281	7371.235	-16524.95	1	18094.45	-65.95992	1.836026E-009	0.0105104	6
	42	58	63.3446	8557.165	-20033.89	1	21784.9	-66.871	6.867598E-010	0.0105106	6
	43	59	49.86702	10108.03	-24323.3	1	26339.99	-67.43369	1.407294E-010	0.0105103	6
	44	61	39.72458	12241.82	-29350.25	1	31800.94	-67.35927	4.901772E-010	0.010515	6
	45	62	31.6723	15008.23	-35176.89	1	38244.75	-66.89446	7.343222E-010	0.0105132	6
	46	64	24.93351	18757.02	-42376.55	1	46342.18	-66.12451	1.136472E-009	0.0105101	6
	47	65	19.86229	23416.95	-50181.71	1	55376.51	-64.98421	1.639739E-009	0.0105201	6
	48	66	15.83615	29412.95	-58856.17	1	65796.43	-63.44674	9.259775E-010	0.0105114	6
	49	68	12.40079	37254.08	-69228.72	1	78616.04	-61.71395	2.181246E-009	0.0105132	6
	50	69	9.93114	46089.56	-79802.96	1	92156.17	-59.99176	3.486197E-010	0.0105088	6
	51	71	7.944915	56522.37	-90800.11	1	106955.3	-58.09806	6.340929E-010	0.0105159	5
	52	72	6.317385	69267.18	-102584	1	123779.8	-55.97184	1.292909E-009	0.0105178	5
	53	74	5.008013	84093.55	-115209.2	1	142635.5	-53.87354	9.254097E-010	0.0105288	5
	54	77	3.945707	101208.7	-128186.5	1	163324.8	-51.70739	1.656083E-010	0.0105125	5
	55	80	3.158693	118560.2	-140665.2	1	183965.2	-49.874	1.233263E-009	0.010534	5
	56	83	2.504006	138429.5	-154695.9	1	207589.8	-48.17625	3.679191E-011	0.010508	5
	57	86	1.998082	159024.2	-168878.3	1	231966.8	-46.72133	-2.140858E-010	0.0105155	5
	58	89	1.584686	182153.8	-184204.7	1	259058.6	-45.32074	5.683228E-010	0.0105634	5
	59	92	1.266892	205302.1	-201325.2	1	287542.7	-44.43966	-6.438968E-010	0.0105266	5
	60	97	0.999041	232225.7	-221495.2	1	320918.8	-43.6452	7.63767E-010	0.0105235	5
