EXPLAIN
TAG	EISPOT
TITLE	LABEL	Potentiostatic IDE	Test &Identifier
DATE	LABEL	9/18/2019	Date
TIME	LABEL	10:06:45	Time
NOTES	NOTES	1	&Notes...
	
PSTAT	PSTAT	REF600-11020	Potentiostat
VDC	POTEN	0.00000E+000	T	DC &Voltage (V)
FREQINIT	QUANT	1.00000E+006	Initial Fre&q. (Hz)
FREQFINAL	QUANT	1.00000E+000	Final Fre&q. (Hz)
PTSPERDEC	QUANT	1.00000E+001	Points/&decade
VAC	QUANT	2.50000E+001	AC &Voltage (mV rms)
AREA	QUANT	1.00000E-002	&Area (cm^2)
CONDIT	TWOPARAM	T	5.00000E+000	0.00000E+000	Conditionin&g	Time(s)	E(V)
DELAY	TWOPARAM	T	5.00000E+000	0.00000E+000	Init. De&lay	Time(s)	Stab.(mV/s)
SPEED	SELECTOR	1	&Optimize for:
ZGUESS	QUANT	1.00000E+007	E&stimated Z (ohms)
OCVCURVE	TABLE	19
	Pt	T	Vf	Vm	Ach	Over
	#	s	V vs. Ref.	V	V	bits
	0	0.258333	3.58678E-003	3.58678E-003	5.66632E-004	...........
	1	0.516667	3.58071E-003	3.26893E-003	5.72932E-004	...........
	2	0.775	3.54358E-003	2.97565E-003	5.70232E-004	...........
	3	1.03333	3.43940E-003	2.71291E-003	5.68266E-004	...........
	4	1.29167	3.25659E-003	2.51528E-003	5.65566E-004	...........
	5	1.55	3.02165E-003	2.26060E-003	5.64466E-004	...........
	6	1.80833	2.77027E-003	1.98685E-003	5.63499E-004	...........
	7	2.06667	2.51918E-003	1.75163E-003	5.65099E-004	...........
	8	2.325	2.26544E-003	1.31522E-003	5.62099E-004	...........
	9	2.58333	2.00129E-003	1.30677E-003	5.63366E-004	...........
	10	2.84167	1.73584E-003	1.12974E-003	5.62466E-004	...........
	11	3.1	1.49576E-003	9.01822E-004	5.66632E-004	...........
	12	3.35833	1.29373E-003	8.35929E-004	5.66499E-004	...........
	13	3.61667	1.12092E-003	6.96867E-004	5.67366E-004	...........
	14	3.875	9.71220E-004	6.99716E-004	5.66732E-004	...........
	15	4.13333	8.51033E-004	7.55021E-004	5.68299E-004	...........
	16	4.39167	7.76745E-004	1.00275E-003	5.68432E-004	...........
	17	4.65	7.69242E-004	1.13126E-003	5.69032E-004	...........
	18	4.90833	8.32324E-004	1.07887E-003	5.65166E-004	...........
EOC	QUANT	0.0008323	Open Circuit (V)
PSTATMODEL	IQUANT	4	Pstat Model
PSTATSECTION	LABEL	REF600-11020	Pstat Section
PSTATSERIALNO	LABEL	11020	Pstat Serial Number
CTRLMODE	IQUANT	1	Control Mode
IESTAB	IQUANT	0	I/E Stability
CASPEED	IQUANT	1	Control Amp Speed
CONVENTION	IQUANT	1	Current Convention
ICHRANGE	IQUANT	2	Ich Range
ICHRANGEMODE	TOGGLE	F	Ich Auto Range
ICHOFFSETENABLE	TOGGLE	T	Ich Offset Enable
ICHOFFSET	QUANT	0	Ich Offset (V)
ICHFILTER	IQUANT	3	Ich Filter
VCHRANGE	IQUANT	2	Vch Range
VCHRANGEMODE	TOGGLE	F	Vch Auto Range
VCHOFFSETENABLE	TOGGLE	T	Vch Offset Enable
VCHOFFSET	QUANT	0	Vch Offset (V)
VCHFILTER	IQUANT	3	Vch Filter
ACHRANGE	IQUANT	2	Ach Range
ACHOFFSETENABLE	TOGGLE	F	Ach Offset Enable
ACHOFFSET	QUANT	0	Ach Offset (V)
ACHFILTER	IQUANT	3	Ach Filter
IERANGELOWERLIMIT	IQUANT	1	I/E Range Lower Limit
IERANGEMODE	TOGGLE	F	I/E AutoRange
IERANGE	IQUANT	2	I/E Range
POSFEEDENABLE	TOGGLE	F	Positive Feedback IR Comp
POSFEEDRESISTANCE	QUANT	0	Positive Feedback Resistance (ohm)
ACHSELECT	IQUANT	0	Ach Select
CABLEID	IQUANT	14	Cable ID
DCCALDATE	LABEL	8/19/2019	DC Calibration Date
ACCALDATE	LABEL	8/19/2019	AC Calibration Date
THERMOSELECT	IQUANT	1	Thermo Select
FRAMEWORKVERSION	QUANT	6.33	Framework Version
INSTRUMENTVERSION	LABEL	3.50	Instrument Version
ZCURVE	TABLE
	Pt	Time	Freq	Zreal	Zimag	Zsig	Zmod	Zphz	Idc	Vdc	IERange
	#	s	Hz	ohm	ohm	V	ohm	°	A	V	#
	0	2	1000078	2362.529	-1938.97	1	3056.33	-39.37634	-8.75505E-007	0.0032751	8
	1	4	794390.6	2774.319	-1911.904	1	3369.306	-34.57242	3.783902E-006	0.0019835	8
	2	5	630984.4	3146.264	-1796.933	1	3623.25	-29.73208	-2.435829E-007	0.0024466	8
	3	6	501234.4	3454.557	-1645.515	1	3826.446	-25.46994	5.82433E-007	0.0023563	8
	4	8	398109.4	3719.568	-1486.216	1	4005.499	-21.78001	3.290388E-006	0.0018351	8
	5	9	316265.6	3913.994	-1291.689	1	4121.626	-18.26382	-1.014856E-006	0.0026748	8
	6	10	251203.1	4084.781	-1117.963	1	4235.006	-15.30645	-7.329591E-007	0.0026417	8
	7	12	199546.9	4197.454	-991.408	1	4312.947	-13.28929	4.31664E-007	0.0023164	8
	8	13	158578.1	4290.656	-869.527	1	4377.877	-11.45618	-1.021438E-006	0.0025254	8
	9	14	125953.1	4374.713	-753.4505	1	4439.122	-9.7721	2.114835E-007	0.0019856	7
	10	16	100078.1	4428.899	-688.4378	1	4482.086	-8.835472	-3.702458E-008	0.002403	7
	11	17	79453.13	4484.246	-649.2916	1	4531.009	-8.238822	4.762132E-008	0.0023186	7
	12	18	63140.62	4538.306	-627.6184	1	4581.498	-7.873695	6.769438E-008	0.0022548	7
	13	20	50203.12	4592.142	-622.9181	1	4634.198	-7.724948	-9.416111E-009	0.0023721	7
	14	21	39890.62	4645.221	-630.8685	1	4687.865	-7.734035	-3.259038E-009	0.0023021	7
	15	22	31640.63	4704.299	-656.4593	1	4749.881	-7.944015	-1.979176E-009	0.0022976	7
	16	24	25171.88	4764.784	-696.2837	1	4815.39	-8.313856	-1.836984E-009	0.0022965	7
	17	25	20015.62	4829.003	-750.028	1	4886.902	-8.828487	-9.75916E-010	0.002357	7
	18	26	15890.62	4901.866	-821.1741	1	4970.173	-9.51004	-2.99705E-008	0.0023612	7
	19	28	12609.37	4980.327	-909.117	1	5062.623	-10.34497	5.761019E-008	0.0022367	7
	20	29	10078.13	5061.899	-1015.109	1	5162.681	-11.33964	-9.214549E-009	0.0023649	7
	21	30	8015.625	5154.554	-1143.332	1	5279.833	-12.5063	2.9597E-008	0.0022902	7
	22	32	6328.125	5258.91	-1306.133	1	5418.682	-13.94809	-2.410251E-008	0.0023767	7
	23	33	5015.625	5370.871	-1496.668	1	5575.506	-15.57124	2.47229E-008	0.0022604	7
	24	34	3984.375	5492.487	-1727.336	1	5757.7	-17.45788	4.319102E-008	0.0022443	7
	25	36	3170.956	5625.265	-2001.554	1	5970.747	-19.58633	-1.762976E-008	0.0023272	7
	26	37	2527.573	5769.502	-2330.25	1	6222.316	-21.99334	5.671942E-008	0.0022351	7
	27	38	1976.103	5946.658	-2765.103	1	6558.09	-24.93769	-3.198908E-009	0.002288	7
	28	40	1577.524	6129.333	-3249.759	1	6937.555	-27.93244	5.590995E-008	0.002229	7
	29	41	1265.625	6346.507	-3824.871	1	7409.979	-31.07625	4.220931E-008	0.0022289	7
	30	42	998.264	6562.216	-4568.546	1	7995.893	-34.84523	6.982989E-008	0.0022435	7
	31	44	796.875	6818.064	-5437.161	1	8720.592	-38.5711	-3.033386E-008	0.0023494	7
	32	45	627.7902	7118.404	-6560.138	1	9680.24	-42.66287	2.97609E-008	0.0022809	7
	33	46	505.5147	7439.238	-7812.75	1	10788.02	-46.40286	-4.898354E-009	0.0023467	6
	34	48	397.9953	7842.294	-9503.07	1	12321.11	-50.46925	2.247706E-010	0.0022881	6
	35	49	315.5048	8299.303	-11532.22	1	14208.11	-54.25885	-1.721966E-009	0.0022891	6
	36	50	252.4038	8814.481	-13923.99	1	16479.46	-57.66444	1.127609E-009	0.0022896	6
	37	52	198.6229	9481.966	-17090.78	1	19544.88	-60.97849	-3.741471E-010	0.0022902	6
	38	53	158.3615	10254.49	-20778.93	1	23171.5	-63.73347	1.368132E-009	0.0022846	6
	39	54	125.558	11231.01	-25446.83	1	27815.05	-66.18564	-2.229892E-009	0.0022855	6
	40	56	100.4464	12385.44	-30949.12	1	33335.37	-68.18934	3.015193E-009	0.0022815	6
	41	57	79.00281	14067.42	-38292.81	1	40795	-69.82846	-2.129701E-010	0.0022838	6
	42	58	63.3446	16173.26	-46073.43	1	48829.66	-70.65728	-5.565554E-010	0.0022858	6
	43	60	49.86702	18832.29	-57606.98	1	60607.09	-71.89692	1.926495E-009	0.0022823	6
	44	61	39.72458	22507.14	-69798.76	1	73337.84	-72.12769	7.680059E-010	0.0022823	6
	45	62	31.6723	27283.27	-84992.02	1	89263.77	-72.20287	3.151531E-010	0.002283	6
	46	64	24.93351	34018.09	-103979	1	109402.3	-71.88382	5.525108E-010	0.0022832	5
	47	65	19.86229	42612.47	-125744.4	1	132768.5	-71.27943	7.467629E-010	0.0022877	5
	48	67	15.83615	53438.53	-150127.9	1	159355.1	-70.40664	5.101136E-010	0.0022804	5
	49	68	12.40079	70532.88	-183545.1	1	196630.8	-68.97918	1.204984E-009	0.0022869	5
	50	69	9.93114	88361.77	-216097.6	1	233465.1	-67.76047	7.303173E-010	0.0022822	5
	51	71	7.944915	111423.6	-254815.9	1	278112.2	-66.38163	4.354394E-010	0.0022813	5
	52	73	6.317385	141558.8	-297603.6	1	329555.4	-64.56133	-2.875553E-010	0.0022787	5
	53	75	5.008013	178271.3	-347643.1	1	390687.1	-62.85127	1.616843E-010	0.0022796	5
	54	77	3.945707	228530.8	-401271.8	1	461785	-60.33779	1.017655E-009	0.0022945	5
	55	80	3.158693	279860.5	-454671.6	1	533899	-58.38678	-3.090464E-010	0.0023083	5
	56	83	2.504006	340946.2	-511980.8	1	615116.8	-56.33895	-2.870836E-010	0.0022837	5
	57	86	1.998082	401965.5	-572298.7	1	699358.3	-54.91694	-1.428117E-009	0.0022859	5
	58	89	1.584686	479992.4	-637174.8	1	797737.1	-53.00879	7.345969E-010	0.0023263	5
	59	93	1.266892	552360.6	-696904.9	1	889257.4	-51.59997	-3.640069E-011	0.002248	5
	60	97	0.999041	638903.3	-788817.9	1	1015102	-50.99425	-4.662575E-010	0.0023268	4
