EXPLAIN
TAG	EISPOT
TITLE	LABEL	Potentiostatic IDE	Test &Identifier
DATE	LABEL	9/4/2019	Date
TIME	LABEL	11:06:03	Time
NOTES	NOTES	1	&Notes...
	
PSTAT	PSTAT	REF600-11020	Potentiostat
VDC	POTEN	0.00000E+000	T	DC &Voltage (V)
FREQINIT	QUANT	1.00000E+006	Initial Fre&q. (Hz)
FREQFINAL	QUANT	1.00000E+000	Final Fre&q. (Hz)
PTSPERDEC	QUANT	1.00000E+001	Points/&decade
VAC	QUANT	2.50000E+001	AC &Voltage (mV rms)
AREA	QUANT	1.00000E-002	&Area (cm^2)
CONDIT	TWOPARAM	T	5.00000E+000	0.00000E+000	Conditionin&g	Time(s)	E(V)
DELAY	TWOPARAM	T	5.00000E+000	0.00000E+000	Init. De&lay	Time(s)	Stab.(mV/s)
SPEED	SELECTOR	1	&Optimize for:
ZGUESS	QUANT	1.00000E+007	E&stimated Z (ohms)
OCVCURVE	TABLE	19
	Pt	T	Vf	Vm	Ach	Over
	#	s	V vs. Ref.	V	V	bits
	0	0.258333	6.67610E-002	6.67610E-002	5.77699E-004	...........
	1	0.516667	6.67754E-002	6.75152E-002	5.77832E-004	...........
	2	0.775	6.68645E-002	6.82647E-002	5.77232E-004	...........
	3	1.03333	6.71203E-002	6.90565E-002	5.78066E-004	...........
	4	1.29167	6.75879E-002	6.98070E-002	5.76199E-004	...........
	5	1.55	6.82270E-002	7.04987E-002	5.75632E-004	...........
	6	1.80833	6.89549E-002	7.12460E-002	5.70499E-004	...........
	7	2.06667	6.97045E-002	7.19308E-002	5.77566E-004	...........
	8	2.325	7.04437E-002	7.25979E-002	5.79166E-004	...........
	9	2.58333	7.11634E-002	7.32931E-002	5.71499E-004	...........
	10	2.84167	7.18626E-002	7.38568E-002	5.74699E-004	...........
	11	3.1	7.25387E-002	7.44515E-002	5.78765E-004	...........
	12	3.35833	7.31871E-002	7.50653E-002	5.71032E-004	...........
	13	3.61667	7.38072E-002	7.55389E-002	5.79332E-004	...........
	14	3.875	7.44005E-002	7.60853E-002	5.75766E-004	...........
	15	4.13333	7.49663E-002	7.65566E-002	5.77066E-004	...........
	16	4.39167	7.55045E-002	7.70291E-002	5.74132E-004	...........
	17	4.65	7.60188E-002	7.75344E-002	5.75066E-004	...........
	18	4.90833	7.65152E-002	7.79726E-002	5.70066E-004	...........
EOC	QUANT	0.0765152	Open Circuit (V)
PSTATMODEL	IQUANT	4	Pstat Model
PSTATSECTION	LABEL	REF600-11020	Pstat Section
PSTATSERIALNO	LABEL	11020	Pstat Serial Number
CTRLMODE	IQUANT	1	Control Mode
IESTAB	IQUANT	0	I/E Stability
CASPEED	IQUANT	1	Control Amp Speed
CONVENTION	IQUANT	1	Current Convention
ICHRANGE	IQUANT	2	Ich Range
ICHRANGEMODE	TOGGLE	F	Ich Auto Range
ICHOFFSETENABLE	TOGGLE	T	Ich Offset Enable
ICHOFFSET	QUANT	0	Ich Offset (V)
ICHFILTER	IQUANT	3	Ich Filter
VCHRANGE	IQUANT	2	Vch Range
VCHRANGEMODE	TOGGLE	F	Vch Auto Range
VCHOFFSETENABLE	TOGGLE	T	Vch Offset Enable
VCHOFFSET	QUANT	0	Vch Offset (V)
VCHFILTER	IQUANT	3	Vch Filter
ACHRANGE	IQUANT	2	Ach Range
ACHOFFSETENABLE	TOGGLE	F	Ach Offset Enable
ACHOFFSET	QUANT	0	Ach Offset (V)
ACHFILTER	IQUANT	3	Ach Filter
IERANGELOWERLIMIT	IQUANT	1	I/E Range Lower Limit
IERANGEMODE	TOGGLE	F	I/E AutoRange
IERANGE	IQUANT	4	I/E Range
POSFEEDENABLE	TOGGLE	F	Positive Feedback IR Comp
POSFEEDRESISTANCE	QUANT	0	Positive Feedback Resistance (ohm)
ACHSELECT	IQUANT	0	Ach Select
CABLEID	IQUANT	14	Cable ID
DCCALDATE	LABEL	8/19/2019	DC Calibration Date
ACCALDATE	LABEL	8/19/2019	AC Calibration Date
THERMOSELECT	IQUANT	1	Thermo Select
FRAMEWORKVERSION	QUANT	6.33	Framework Version
INSTRUMENTVERSION	LABEL	3.50	Instrument Version
ZCURVE	TABLE
	Pt	Time	Freq	Zreal	Zimag	Zsig	Zmod	Zphz	Idc	Vdc	IERange
	#	s	Hz	ohm	ohm	V	ohm	°	A	V	#
	0	2	1000078	2460.698	-1869.002	1	3090.017	-37.21816	8.977843E-006	0.0785251	8
	1	3	794390.6	2843.666	-1809.203	1	3370.408	-32.46542	1.176355E-005	0.0780122	8
	2	5	630984.4	3166.561	-1711.774	1	3599.623	-28.3947	1.313211E-005	0.07757	8
	3	6	501234.4	3438.909	-1591.714	1	3789.413	-24.83727	1.042897E-005	0.0778041	8
	4	8	398109.4	3659.29	-1473.434	1	3944.795	-21.93247	1.206338E-005	0.0774836	8
	5	9	316265.6	3841.679	-1346.887	1	4070.947	-19.32059	1.098352E-005	0.0777692	8
	6	11	251203.1	4001.313	-1242.476	1	4189.78	-17.25046	1.007285E-005	0.0778692	8
	7	12	199546.9	4130.527	-1170.71	1	4293.229	-15.82425	1.286327E-005	0.0773316	8
	8	14	158578.1	4242.689	-1131.622	1	4391.012	-14.93442	1.187905E-005	0.0774945	8
	9	16	125953.1	4340.978	-1106.444	1	4479.767	-14.29928	1.064502E-006	0.0773552	7
	10	17	100078.1	4434.637	-1107.73	1	4570.894	-14.02494	1.056632E-006	0.0778244	7
	11	19	79453.13	4531.806	-1153.608	1	4676.332	-14.28177	1.035784E-006	0.0778906	7
	12	20	63140.62	4632.967	-1229.859	1	4793.427	-14.86675	1.042629E-006	0.0779638	7
	13	21	50203.12	4739.505	-1330.656	1	4922.758	-15.68253	1.055287E-006	0.0778394	7
	14	23	39890.62	4859.46	-1467.477	1	5076.204	-16.80346	1.056067E-006	0.0778333	7
	15	24	31640.63	4993.979	-1641.462	1	5256.826	-18.19508	1.033101E-006	0.0778991	7
	16	25	25171.88	5140.274	-1854.258	1	5464.494	-19.83596	1.065448E-006	0.0778444	7
	17	27	20015.62	5309.712	-2114.372	1	5715.208	-21.71286	1.025408E-006	0.0779353	7
	18	28	15890.62	5499.272	-2419.337	1	6007.927	-23.7465	1.119191E-006	0.0777749	7
	19	29	12609.37	5729.862	-2793.469	1	6374.542	-25.99054	1.034582E-006	0.0778788	7
	20	30	10078.13	5976.088	-3220.498	1	6788.611	-28.32011	1.056513E-006	0.0778373	7
	21	32	8015.625	6271.884	-3729.892	1	7297.165	-30.73997	1.064723E-006	0.0778335	7
	22	33	6328.125	6619.28	-4355.266	1	7923.585	-33.34359	1.036596E-006	0.0778894	7
	23	35	5015.625	7011.693	-5092.991	1	8666.164	-35.99303	1.034099E-006	0.077894	7
	24	36	3984.375	7473.907	-5932.977	1	9542.51	-38.44344	1.029904E-006	0.0779284	7
	25	37	3170.956	8001.193	-6934.095	1	10587.76	-40.91327	1.036672E-006	0.0778924	7
	26	39	2527.573	8610.845	-8090.4	1	11815.3	-43.21513	1.127893E-006	0.077769	7
	27	40	1976.103	9387.345	-9566.05	1	13402.67	-45.54021	1.072997E-006	0.0778018	7
	28	41	1577.524	10214.91	-11177.34	1	15141.91	-47.57598	1.005535E-007	0.0778985	6
	29	43	1265.625	11163.73	-13015.97	1	17147.71	-49.38048	1.068295E-007	0.0776945	6
	30	44	998.264	12347.73	-15356.28	1	19704.87	-51.19783	1.010943E-007	0.0778475	6
	31	45	796.875	13661.08	-17957.4	1	22563.09	-52.73797	1.077683E-007	0.0776834	6
	32	47	627.7902	15321.88	-21229.88	1	26181.44	-54.18152	1.011942E-007	0.0777936	6
	33	48	505.5147	16998.25	-24695.86	1	29980.43	-55.46023	1.116299E-007	0.077644	6
	34	49	397.9953	19271.42	-29217.89	1	35001.04	-56.59212	1.057437E-007	0.077444	6
	35	51	315.5048	21827.13	-34410.9	1	40749.65	-57.61269	1.063084E-007	0.0774374	6
	36	52	252.4038	24705.85	-40273.88	1	47247.9	-58.47313	1.058764E-007	0.077439	6
	37	53	198.6229	28335.5	-47735.58	1	55512.03	-59.30694	1.060028E-007	0.0774443	6
	38	55	158.3615	32377	-56010.73	1	64695.22	-59.96994	1.059591E-007	0.0774379	6
	39	56	125.558	37241.79	-66071.44	1	75844.48	-60.5918	1.057404E-007	0.0774409	6
	40	57	100.4464	42646.87	-77577.97	1	88527.38	-61.20112	1.054854E-007	0.0774328	6
	41	59	79.00281	49432.38	-92020.09	1	104457	-61.7557	1.062553E-007	0.0774325	6
	42	60	63.3446	58518.24	-109101.6	1	123804.5	-61.79247	1.05806E-007	0.0774335	6
	43	62	49.86702	66051.39	-126553.8	1	142753.8	-62.43889	1.030278E-008	0.0774416	5
	44	63	39.72458	78010.86	-149701.1	1	168807.9	-62.47549	1.067305E-008	0.0774446	5
	45	64	31.6723	90972.2	-176481.4	1	198548.8	-62.72991	1.060648E-008	0.0774406	5
	46	66	24.93351	106565.7	-208954.4	1	234559.6	-62.97865	1.074376E-008	0.0774426	5
	47	67	19.86229	124925.1	-246153.7	1	276039.8	-63.09181	1.047685E-008	0.0774425	5
	48	69	15.83615	145883.1	-284488.2	1	319711.4	-62.85164	1.014043E-008	0.0774406	5
	49	70	12.40079	176172.5	-340585.9	1	383452.1	-62.64914	1.008612E-008	0.0774493	5
	50	71	9.93114	202319.8	-402479.1	1	450469.4	-63.31206	1.070152E-008	0.0774477	5
	51	73	7.944915	232285.7	-470170.7	1	524420.7	-63.70853	1.038286E-008	0.0774477	5
	52	75	6.317385	277181.8	-554132.7	1	619590.8	-63.4254	1.071705E-008	0.0774331	5
	53	77	5.008013	326357.6	-656051.9	1	732743.8	-63.55164	1.060184E-007	0.0774433	6
	54	80	3.945707	388357.4	-774674	1	866568.7	-63.3746	1.067002E-008	0.0774408	5
	55	83	3.158693	455871.3	-906652.9	1	1014809	-63.30643	1.073092E-008	0.0774665	5
	56	86	2.504006	540917.3	-1070277	1	1199202	-63.188	1.050037E-008	0.0777245	5
	57	89	1.998082	641325.8	-1254495	1	1408920	-62.92287	1.025159E-009	0.0776934	4
	58	92	1.584686	762219.2	-1471442	1	1657142	-62.61546	1.046273E-009	0.077731	4
	59	95	1.266892	907975.5	-1718980	1	1944045	-62.15671	1.070353E-009	0.0776721	4
	60	100	0.999041	1089039	-2018872	1	2293872	-61.65626	1.056547E-009	0.0777516	4
