EXPLAIN
TAG	EISPOT
TITLE	LABEL	Potentiostatic EIS	Test &Identifier
DATE	LABEL	10/24/2019	Date
TIME	LABEL	10:41:30	Time
NOTES	NOTES	1	&Notes...
	
PSTAT	PSTAT	REF600-11020	Potentiostat
VDC	POTEN	0.00000E+000	T	DC &Voltage (V)
FREQINIT	QUANT	1.00000E+006	Initial Fre&q. (Hz)
FREQFINAL	QUANT	1.00000E+000	Final Fre&q. (Hz)
PTSPERDEC	QUANT	1.00000E+001	Points/&decade
VAC	QUANT	2.50000E+001	AC &Voltage (mV rms)
AREA	QUANT	1.00000E-002	&Area (cm^2)
CONDIT	TWOPARAM	T	5.00000E+000	0.00000E+000	Conditionin&g	Time(s)	E(V)
DELAY	TWOPARAM	T	5.00000E+000	0.00000E+000	Init. De&lay	Time(s)	Stab.(mV/s)
SPEED	SELECTOR	1	&Optimize for:
ZGUESS	QUANT	1.00000E+005	E&stimated Z (ohms)
OCVCURVE	TABLE	19
	Pt	T	Vf	Vm	Ach	Over
	#	s	V vs. Ref.	V	V	bits
	0	0.258333	5.49717E-003	5.49717E-003	5.67066E-004	...........
	1	0.516667	5.49674E-003	5.47446E-003	5.73866E-004	...........
	2	0.775	5.49219E-003	5.35465E-003	5.74132E-004	...........
	3	1.03333	5.47369E-003	5.27039E-003	5.77066E-004	...........
	4	1.29167	5.43289E-003	5.28486E-003	5.75732E-004	...........
	5	1.55	5.37470E-003	5.14440E-003	5.75432E-004	...........
	6	1.80833	5.31237E-003	5.21635E-003	5.74032E-004	...........
	7	2.06667	5.25568E-003	5.08804E-003	5.76666E-004	...........
	8	2.325	5.20895E-003	5.17104E-003	5.76966E-004	...........
	9	2.58333	5.17247E-003	5.04109E-003	5.71099E-004	...........
	10	2.84167	5.14433E-003	5.16434E-003	5.71266E-004	...........
	11	3.1	5.12364E-003	5.04141E-003	5.70632E-004	...........
	12	3.35833	5.11037E-003	5.14963E-003	5.66599E-004	...........
	13	3.61667	5.10281E-003	5.03492E-003	5.73099E-004	...........
	14	3.875	5.09794E-003	5.13587E-003	5.70166E-004	...........
	15	4.13333	5.09348E-003	5.02129E-003	5.67532E-004	...........
	16	4.39167	5.08776E-003	5.09241E-003	5.73532E-004	...........
	17	4.65	5.07986E-003	5.03312E-003	5.70166E-004	...........
	18	4.90833	5.07051E-003	5.04515E-003	5.66066E-004	...........
EOC	QUANT	0.0050705	Open Circuit (V)
PSTATMODEL	IQUANT	4	Pstat Model
PSTATSECTION	LABEL	REF600-11020	Pstat Section
PSTATSERIALNO	LABEL	11020	Pstat Serial Number
CTRLMODE	IQUANT	1	Control Mode
IESTAB	IQUANT	0	I/E Stability
CASPEED	IQUANT	1	Control Amp Speed
CONVENTION	IQUANT	1	Current Convention
ICHRANGE	IQUANT	2	Ich Range
ICHRANGEMODE	TOGGLE	F	Ich Auto Range
ICHOFFSETENABLE	TOGGLE	T	Ich Offset Enable
ICHOFFSET	QUANT	0	Ich Offset (V)
ICHFILTER	IQUANT	3	Ich Filter
VCHRANGE	IQUANT	2	Vch Range
VCHRANGEMODE	TOGGLE	F	Vch Auto Range
VCHOFFSETENABLE	TOGGLE	T	Vch Offset Enable
VCHOFFSET	QUANT	0	Vch Offset (V)
VCHFILTER	IQUANT	3	Vch Filter
ACHRANGE	IQUANT	2	Ach Range
ACHOFFSETENABLE	TOGGLE	F	Ach Offset Enable
ACHOFFSET	QUANT	0	Ach Offset (V)
ACHFILTER	IQUANT	3	Ach Filter
IERANGELOWERLIMIT	IQUANT	1	I/E Range Lower Limit
IERANGEMODE	TOGGLE	F	I/E AutoRange
IERANGE	IQUANT	4	I/E Range
POSFEEDENABLE	TOGGLE	F	Positive Feedback IR Comp
POSFEEDRESISTANCE	QUANT	0	Positive Feedback Resistance (ohm)
ACHSELECT	IQUANT	0	Ach Select
CABLEID	IQUANT	14	Cable ID
DCCALDATE	LABEL	8/19/2019	DC Calibration Date
ACCALDATE	LABEL	8/19/2019	AC Calibration Date
THERMOSELECT	IQUANT	1	Thermo Select
FRAMEWORKVERSION	QUANT	6.33	Framework Version
INSTRUMENTVERSION	LABEL	3.50	Instrument Version
ZCURVE	TABLE
	Pt	Time	Freq	Zreal	Zimag	Zsig	Zmod	Zphz	Idc	Vdc	IERange
	#	s	Hz	ohm	ohm	V	ohm	°	A	V	#
	0	2	1000078	1954.367	-818.2944	1	2118.763	-22.71908	-2.285267E-006	0.0072896	8
	1	3	794390.6	2077.107	-754.0671	1	2209.749	-19.95278	1.962256E-006	0.0065822	8
	2	4	630984.4	2182.729	-677.3276	1	2285.406	-17.23976	8.623072E-007	0.0065809	8
	3	6	501234.4	2263.263	-605.5935	1	2342.884	-14.98001	-9.351685E-007	0.0069324	8
	4	7	398109.4	2331.926	-539.277	1	2393.47	-13.02121	-3.065539E-007	0.0067392	8
	5	8	316265.6	2391.768	-492.8223	1	2442.013	-11.64281	-7.412892E-007	0.0068404	8
	6	10	251203.1	2434.795	-457.061	1	2477.323	-10.63186	3.25041E-006	0.0060164	8
	7	11	199546.9	2471.686	-421.8667	1	2507.429	-9.68589	-2.739112E-007	0.006546	8
	8	12	158578.1	2513.785	-400.1121	1	2545.428	-9.043746	-3.9108E-007	0.0067098	8
	9	14	125953.1	2561.607	-374.0928	1	2588.779	-8.308645	-5.456379E-007	0.0080254	7
	10	15	100078.1	2597.018	-372.0025	1	2623.526	-8.15172	-9.1209E-009	0.0064993	7
	11	16	79453.13	2635.483	-389.3172	1	2664.083	-8.403041	5.966183E-008	0.0063918	7
	12	18	63140.62	2677.57	-414.1321	1	2709.407	-8.792107	-5.400831E-008	0.0066114	7
	13	19	50203.12	2724.698	-443.9057	1	2760.622	-9.253286	-9.824084E-009	0.0064949	7
	14	20	39890.62	2776.311	-479.0679	1	2817.34	-9.7903	-1.39574E-008	0.0066269	7
	15	22	31640.63	2832.59	-519.9759	1	2879.921	-10.40192	-1.44137E-008	0.0066234	7
	16	23	25171.88	2892.788	-566.8162	1	2947.796	-11.08615	-7.262698E-009	0.006547	7
	17	25	20015.62	2949.699	-625.3448	1	3015.258	-11.96965	5.937292E-008	0.0064766	7
	18	26	15890.62	3027	-683.9637	1	3103.31	-12.73242	5.847905E-008	0.0064811	7
	19	27	12609.37	3100.364	-758.3907	1	3191.773	-13.7454	-3.089876E-008	0.0065847	7
	20	29	10078.13	3176.652	-842.7084	1	3286.53	-14.85732	1.189306E-008	0.0064562	7
	21	30	8015.625	3255.718	-938.4557	1	3388.273	-16.07955	2.669974E-008	0.0064826	7
	22	31	6328.125	3351.994	-1074.675	1	3520.055	-17.77625	-3.977886E-009	0.0065294	7
	23	33	5015.625	3450.819	-1225.353	1	3661.918	-19.54947	-2.630906E-008	0.006537	7
	24	34	3984.375	3554.986	-1407.277	1	3823.396	-21.59664	-3.47274E-008	0.0065775	7
	25	36	3170.956	3674.678	-1615.181	1	4013.984	-23.72758	3.322874E-008	0.0063964	7
	26	37	2527.573	3800.043	-1867.132	1	4233.971	-26.16696	2.52386E-008	0.0064756	7
	27	38	1976.103	3948.466	-2197.976	1	4519.013	-29.10319	-5.55349E-008	0.0066009	7
	28	40	1577.524	4088.89	-2557.971	1	4823.094	-32.02972	-1.447934E-008	0.0066194	7
	29	41	1265.625	4249.271	-2999.709	1	5201.4	-35.21961	6.026367E-008	0.0064789	7
	30	42	998.264	4430.964	-3573.823	1	5692.597	-38.88814	-2.874951E-008	0.0065251	7
	31	44	796.875	4620.938	-4257.649	1	6283.362	-42.65691	-1.188677E-008	0.0066166	7
	32	45	627.7902	4852.006	-5150.701	1	7076.135	-46.71043	-3.044523E-008	0.0065826	7
	33	47	505.5147	5094.286	-6139.867	1	7978.077	-50.3173	-3.216316E-008	0.0065787	7
	34	48	397.9953	5428.672	-7496.636	1	9255.812	-54.08991	5.546782E-009	0.0065312	7
	35	49	315.5048	5832.251	-9127.016	1	10831.32	-57.42103	2.394815E-010	0.0064722	6
	36	51	252.4038	6320.709	-11044.42	1	12725.2	-60.21754	1.953082E-009	0.0064691	6
	37	52	198.6229	6999.034	-13565.42	1	15264.57	-62.70867	1.111988E-009	0.006469	6
	38	53	158.3615	7835.324	-16469.61	1	18238.43	-64.5575	9.096106E-010	0.0064682	6
	39	55	125.558	8963.86	-20067.84	1	21978.83	-65.93073	1.027844E-009	0.0064696	6
	40	56	100.4464	10386.4	-24191.67	1	26327.06	-66.76433	1.489909E-010	0.0064651	6
	41	58	79.00281	12427.66	-29504.31	1	32014.86	-67.15844	1.935291E-011	0.0064689	6
	42	59	63.3446	15193.23	-35524.07	1	38636.69	-66.84417	6.829783E-010	0.0064667	6
	43	60	49.86702	18013.41	-42612.21	1	46263.2	-67.08482	9.927837E-010	0.0064693	6
	44	62	39.72458	22447.22	-50900.96	1	55630.79	-66.20261	5.351069E-010	0.0064713	6
	45	63	31.6723	27687.46	-60053.05	1	66128.39	-65.24794	1.572376E-009	0.0064736	6
	46	65	24.93351	34992.37	-71274.06	1	79400.62	-63.85103	4.431135E-010	0.0064675	6
	47	66	19.86229	43331.49	-82813.34	1	93464.8	-62.37951	7.635143E-010	0.0064711	6
	48	67	15.83615	52630.77	-95105.3	1	108696.9	-61.0401	1.032639E-009	0.006466	5
	49	69	12.40079	66469.69	-111028	1	129404.1	-59.09209	-7.530824E-010	0.0064711	5
	50	70	9.93114	78972.86	-125325.7	1	148132.5	-57.78329	5.469505E-010	0.0064652	5
	51	72	7.944915	94128.85	-140455.4	1	169079.7	-56.17123	5.180945E-011	0.0064699	5
	52	73	6.317385	109429.6	-158362.2	1	192492.6	-55.3552	4.93773E-010	0.0064812	5
	53	75	5.008013	126077.5	-178853	1	218824	-54.81913	1.624247E-010	0.0064716	5
	54	78	3.945707	144528.9	-203169.3	1	249331.8	-54.57304	2.662396E-010	0.0064718	5
	55	81	3.158693	162172.3	-230774.8	1	282058.3	-54.90314	-2.638119E-011	0.0064798	5
	56	84	2.504006	181371.9	-264977.3	1	321105.5	-55.60911	8.086736E-011	0.0064662	5
	57	87	1.998082	202426.1	-306589.2	1	367387	-56.56514	1.365163E-010	0.0065159	5
	58	90	1.584686	226164.7	-357040.4	1	422644.4	-57.64807	1.520581E-010	0.0064899	5
	59	94	1.266892	254170.3	-415928.6	1	487441.4	-58.57127	2.438062E-010	0.0065146	5
	60	98	0.999041	287666.5	-493618.2	1	571323.9	-59.7676	9.12139E-011	0.0064404	5
