EXPLAIN
TAG	EISPOT
TITLE	LABEL	Potentiostatic EIS	Test &Identifier
DATE	LABEL	10/20/2019	Date
TIME	LABEL	9:26:24	Time
NOTES	NOTES	1	&Notes...
	
PSTAT	PSTAT	REF600-11020	Potentiostat
VDC	POTEN	0.00000E+000	T	DC &Voltage (V)
FREQINIT	QUANT	1.00000E+006	Initial Fre&q. (Hz)
FREQFINAL	QUANT	1.00000E+000	Final Fre&q. (Hz)
PTSPERDEC	QUANT	1.00000E+001	Points/&decade
VAC	QUANT	2.50000E+001	AC &Voltage (mV rms)
AREA	QUANT	1.00000E-002	&Area (cm^2)
CONDIT	TWOPARAM	T	5.00000E+000	0.00000E+000	Conditionin&g	Time(s)	E(V)
DELAY	TWOPARAM	T	5.00000E+000	0.00000E+000	Init. De&lay	Time(s)	Stab.(mV/s)
SPEED	SELECTOR	1	&Optimize for:
ZGUESS	QUANT	1.00000E+005	E&stimated Z (ohms)
OCVCURVE	TABLE	19
	Pt	T	Vf	Vm	Ach	Over
	#	s	V vs. Ref.	V	V	bits
	0	0.258333	6.48581E-003	6.48581E-003	5.49833E-004	...........
	1	0.516667	6.48043E-003	6.20409E-003	5.51066E-004	...........
	2	0.775	6.46012E-003	6.60391E-003	5.46166E-004	...........
	3	1.03333	6.43315E-003	6.36715E-003	5.54399E-004	...........
	4	1.29167	6.42283E-003	6.54002E-003	5.54933E-004	...........
	5	1.55	6.44216E-003	6.86752E-003	5.52499E-004	...........
	6	1.80833	6.50663E-003	7.10973E-003	5.48166E-004	...........
	7	2.06667	6.63750E-003	7.27262E-003	5.51832E-004	...........
	8	2.325	6.82647E-003	7.42198E-003	5.47399E-004	...........
	9	2.58333	7.03399E-003	7.51794E-003	5.45033E-004	...........
	10	2.84167	7.22442E-003	7.68214E-003	5.48899E-004	...........
	11	3.1	7.38766E-003	7.84225E-003	5.51599E-004	...........
	12	3.35833	7.53430E-003	7.97445E-003	5.48466E-004	...........
	13	3.61667	7.67694E-003	8.10089E-003	5.48366E-004	...........
	14	3.875	7.81861E-003	8.22917E-003	5.54699E-004	...........
	15	4.13333	7.95657E-003	8.35323E-003	5.50166E-004	...........
	16	4.39167	8.08925E-003	8.47353E-003	5.47799E-004	...........
	17	4.65	8.21716E-003	8.59046E-003	5.52333E-004	...........
	18	4.90833	8.34118E-003	8.70507E-003	5.55866E-004	...........
EOC	QUANT	0.0083412	Open Circuit (V)
PSTATMODEL	IQUANT	4	Pstat Model
PSTATSECTION	LABEL	REF600-11020	Pstat Section
PSTATSERIALNO	LABEL	11020	Pstat Serial Number
CTRLMODE	IQUANT	1	Control Mode
IESTAB	IQUANT	0	I/E Stability
CASPEED	IQUANT	1	Control Amp Speed
CONVENTION	IQUANT	1	Current Convention
ICHRANGE	IQUANT	2	Ich Range
ICHRANGEMODE	TOGGLE	F	Ich Auto Range
ICHOFFSETENABLE	TOGGLE	T	Ich Offset Enable
ICHOFFSET	QUANT	0	Ich Offset (V)
ICHFILTER	IQUANT	3	Ich Filter
VCHRANGE	IQUANT	2	Vch Range
VCHRANGEMODE	TOGGLE	F	Vch Auto Range
VCHOFFSETENABLE	TOGGLE	T	Vch Offset Enable
VCHOFFSET	QUANT	0	Vch Offset (V)
VCHFILTER	IQUANT	3	Vch Filter
ACHRANGE	IQUANT	2	Ach Range
ACHOFFSETENABLE	TOGGLE	F	Ach Offset Enable
ACHOFFSET	QUANT	0	Ach Offset (V)
ACHFILTER	IQUANT	3	Ach Filter
IERANGELOWERLIMIT	IQUANT	1	I/E Range Lower Limit
IERANGEMODE	TOGGLE	F	I/E AutoRange
IERANGE	IQUANT	5	I/E Range
POSFEEDENABLE	TOGGLE	F	Positive Feedback IR Comp
POSFEEDRESISTANCE	QUANT	0	Positive Feedback Resistance (ohm)
ACHSELECT	IQUANT	0	Ach Select
CABLEID	IQUANT	14	Cable ID
DCCALDATE	LABEL	8/19/2019	DC Calibration Date
ACCALDATE	LABEL	8/19/2019	AC Calibration Date
THERMOSELECT	IQUANT	1	Thermo Select
FRAMEWORKVERSION	QUANT	6.33	Framework Version
INSTRUMENTVERSION	LABEL	3.50	Instrument Version
ZCURVE	TABLE
	Pt	Time	Freq	Zreal	Zimag	Zsig	Zmod	Zphz	Idc	Vdc	IERange
	#	s	Hz	ohm	ohm	V	ohm	°	A	V	#
	0	1	1000078	2592.04	-1667.238	1	3081.94	-32.74972	6.413979E-006	0.0094322	8
	1	3	794390.6	2918.08	-1598.934	1	3327.428	-28.72012	-6.378913E-006	0.0109372	8
	2	4	630984.4	3199.86	-1454.429	1	3514.893	-24.44317	6.231665E-006	0.0091926	8
	3	6	501234.4	3458.452	-1303.304	1	3695.875	-20.64872	-1.208996E-006	0.0100492	8
	4	7	398109.4	3627.49	-1126.989	1	3798.524	-17.25898	-1.261542E-008	0.0097834	8
	5	9	316265.6	3787.184	-970.914	1	3909.66	-14.37914	-2.578609E-007	0.0099617	8
	6	10	251203.1	3888.626	-826.762	1	3975.544	-12.00295	-4.510954E-006	0.0108697	8
	7	12	199546.9	3965.24	-683.7039	1	4023.752	-9.78299	2.831066E-006	0.0092463	8
	8	13	158578.1	4029.928	-587.6953	1	4072.555	-8.29711	-7.150597E-007	0.0100971	8
	9	15	125953.1	4079.981	-429.6148	1	4102.538	-6.010993	-6.12813E-007	0.0108603	7
	10	16	100078.1	4122.072	-381.5469	1	4139.693	-5.288339	-6.138729E-008	0.0099686	7
	11	17	79453.13	4146.599	-341.5771	1	4160.644	-4.709122	-1.997383E-008	0.0099303	7
	12	19	63140.62	4173.5	-308.7406	1	4184.904	-4.23083	-4.806829E-008	0.0098058	7
	13	20	50203.12	4194.483	-285.912	1	4204.216	-3.899467	1.388619E-007	0.0095657	7
	14	22	39890.62	4214.284	-269.3784	1	4222.885	-3.657389	-4.945127E-008	0.0098058	7
	15	23	31640.63	4234.8	-264.1467	1	4243.03	-3.569215	1.132418E-008	0.0097015	7
	16	24	25171.88	4252.024	-265.8905	1	4260.33	-3.5782	8.31668E-008	0.0096029	7
	17	26	20015.62	4295.73	-277.3898	1	4304.677	-3.694652	6.71896E-008	0.0096667	7
	18	27	15890.62	4285.289	-293.796	1	4295.349	-3.922016	8.583278E-008	0.0095983	7
	19	28	12609.37	4305.917	-322.0165	1	4317.941	-4.276884	-6.961112E-009	0.0098183	7
	20	30	10078.13	4319.45	-363.3701	1	4334.708	-4.808637	-1.647648E-008	0.0097436	7
	21	31	8015.625	4331.562	-414.5278	1	4351.352	-5.466524	-1.82658E-008	0.0097458	7
	22	33	6328.125	4356.449	-492.4348	1	4384.192	-6.449101	4.19518E-008	0.0097354	7
	23	34	5015.625	4378.637	-586.0471	1	4417.682	-7.623297	-3.482273E-008	0.0097989	7
	24	35	3984.375	4390.823	-712.9204	1	4448.324	-9.222406	-4.806515E-008	0.0098019	7
	25	37	3170.956	4432.636	-847.2785	1	4512.886	-10.8213	9.16195E-008	0.0097174	7
	26	38	2527.573	4464.899	-1025.871	1	4581.238	-12.93989	-8.11259E-008	0.0099105	7
	27	39	1976.103	4510.955	-1271.947	1	4686.85	-15.74678	-4.637118E-008	0.009869	7
	28	41	1577.524	4593.802	-1544.279	1	4846.423	-18.58089	-4.507724E-008	0.0098015	7
	29	42	1265.625	4621.774	-1872.542	1	4986.704	-22.05565	-3.562441E-008	0.0097948	7
	30	43	998.264	4699.096	-2313.641	1	5237.79	-26.21373	9.083625E-008	0.0097124	7
	31	45	796.875	4799.393	-2826.354	1	5569.78	-30.49376	-3.43336E-008	0.0098044	7
	32	46	627.7902	4927.224	-3496.445	1	6041.743	-35.36019	-3.50507E-008	0.00979	7
	33	48	505.5147	5081.195	-4242.854	1	6619.695	-39.86226	-3.459382E-008	0.0097993	7
	34	49	397.9953	5297.889	-5250.558	1	7458.953	-44.74292	3.326002E-009	0.0097855	7
	35	50	315.5048	5574.209	-6451.1	1	8525.755	-49.17065	5.88669E-009	0.0097838	7
	36	52	252.4038	5919.651	-7855.579	1	9836.28	-52.99977	3.425396E-009	0.0097805	7
	37	53	198.6229	6413.776	-9686.4	1	11617.35	-56.48976	6.657891E-010	0.0097251	6
	38	54	158.3615	7024.736	-11786.88	1	13721.42	-59.20593	-2.653129E-010	0.0097163	6
	39	56	125.558	7852.111	-14376.2	1	16380.8	-61.35715	4.01219E-010	0.0097191	6
	40	57	100.4464	8904.773	-17323.34	1	19478.02	-62.79533	1.216344E-009	0.0097202	6
	41	59	79.00281	10363.75	-21095.51	1	23503.78	-63.83615	1.896178E-009	0.0097212	6
	42	60	63.3446	12411.82	-25199.86	1	28090.68	-63.77813	-2.265126E-010	0.0097205	6
	43	61	49.86702	14376.08	-30640.23	1	33845.17	-64.86452	1.083028E-009	0.0097147	6
	44	63	39.72458	17408.01	-36165.62	1	40137.15	-64.29657	1.692398E-010	0.0097208	6
	45	64	31.6723	20965.23	-42623.24	1	47500.34	-63.80866	1.815856E-011	0.0097169	6
	46	66	24.93351	25365.58	-50271.03	1	56307.98	-63.22556	1.153664E-009	0.0097187	6
	47	67	19.86229	30316.26	-58787.13	1	66143.8	-62.72004	7.650181E-010	0.0097241	6
	48	69	15.83615	35374.57	-68888.8	1	77440.47	-62.81939	-2.227022E-009	0.0097208	6
	49	70	12.40079	43150.24	-80477.86	1	91316.09	-61.80089	2.466959E-009	0.0097238	6
	50	71	9.93114	49456.39	-92803.98	1	105159.5	-61.9463	4.327887E-011	0.0097219	5
	51	73	7.944915	56896.34	-107298.3	1	121450	-62.06463	1.200608E-009	0.0097199	5
	52	75	6.317385	66203.49	-125920.2	1	142263.1	-62.26651	1.619392E-010	0.0097394	5
	53	77	5.008013	76635.5	-148251.3	1	166887.6	-62.66422	8.339175E-011	0.0097178	5
	54	79	3.945707	89084.92	-175676.3	1	196972.8	-63.11057	4.085944E-010	0.0097249	5
	55	82	3.158693	103242.1	-206417.7	1	230796.9	-63.42757	-7.300501E-011	0.0097199	5
	56	85	2.504006	120582	-244369.7	1	272500.6	-63.73639	3.925338E-010	0.0097138	5
	57	88	1.998082	140681.1	-287998.3	1	320521.7	-63.96546	4.50503E-011	0.0097589	5
	58	91	1.584686	164945.7	-339935.8	1	377840.5	-64.11613	8.446567E-011	0.0097119	5
	59	95	1.266892	194042	-400491.2	1	445023	-64.14935	5.968595E-011	0.0097488	5
	60	99	0.999041	230511.2	-475124.8	1	528090	-64.11923	-1.607528E-010	0.0096784	5
