EXPLAIN
TAG	EISPOT
TITLE	LABEL	Potentiostatic EIS	Test &Identifier
DATE	LABEL	11/15/2019	Date
TIME	LABEL	11:26:29	Time
NOTES	NOTES	4	&Notes...
	
	
	
	
PSTAT	PSTAT	REF600-11020	Potentiostat
VDC	POTEN	0.00000E+000	T	DC &Voltage (V)
FREQINIT	QUANT	1.00000E+006	Initial Fre&q. (Hz)
FREQFINAL	QUANT	1.00000E+000	Final Fre&q. (Hz)
PTSPERDEC	QUANT	1.00000E+001	Points/&decade
VAC	QUANT	2.50000E+001	AC &Voltage (mV rms)
AREA	QUANT	1.00000E-002	&Area (cm^2)
CONDIT	TWOPARAM	T	5.00000E+000	0.00000E+000	Conditionin&g	Time(s)	E(V)
DELAY	TWOPARAM	T	5.00000E+000	0.00000E+000	Init. De&lay	Time(s)	Stab.(mV/s)
SPEED	SELECTOR	0	&Optimize for:
ZGUESS	QUANT	1.00000E+005	E&stimated Z (ohms)
OCVCURVE	TABLE	19
	Pt	T	Vf	Vm	Ach	Over
	#	s	V vs. Ref.	V	V	bits
	0	0.258333	5.28072E-003	5.28072E-003	5.88865E-004	...........
	1	0.516667	5.28023E-003	5.25517E-003	5.89599E-004	...........
	2	0.775	5.27758E-003	5.24898E-003	5.85065E-004	...........
	3	1.03333	5.27123E-003	5.24387E-003	5.85099E-004	...........
	4	1.29167	5.26213E-003	5.23710E-003	5.86199E-004	...........
	5	1.55	5.25301E-003	5.24251E-003	5.85732E-004	...........
	6	1.80833	5.24659E-003	5.26664E-003	5.83965E-004	...........
	7	2.06667	5.24590E-003	5.29899E-003	5.88499E-004	...........
	8	2.325	5.25401E-003	5.33235E-003	5.85599E-004	...........
	9	2.58333	5.27209E-003	5.36831E-003	5.88232E-004	...........
	10	2.84167	5.29843E-003	5.39763E-003	5.84899E-004	...........
	11	3.1	5.32963E-003	5.42972E-003	5.85065E-004	...........
	12	3.35833	5.36246E-003	5.46221E-003	5.86132E-004	...........
	13	3.61667	5.39527E-003	5.49766E-003	5.89632E-004	...........
	14	3.875	5.42797E-003	5.53099E-003	5.87632E-004	...........
	15	4.13333	5.46110E-003	5.56926E-003	5.85432E-004	...........
	16	4.39167	5.49508E-003	5.60443E-003	5.83032E-004	...........
	17	4.65	5.53006E-003	5.64305E-003	5.83199E-004	...........
	18	4.90833	5.56596E-003	5.67890E-003	5.76932E-004	...........
EOC	QUANT	0.005566	Open Circuit (V)
PSTATMODEL	IQUANT	4	Pstat Model
PSTATSECTION	LABEL	REF600-11020	Pstat Section
PSTATSERIALNO	LABEL	11020	Pstat Serial Number
CTRLMODE	IQUANT	1	Control Mode
IESTAB	IQUANT	0	I/E Stability
CASPEED	IQUANT	1	Control Amp Speed
CONVENTION	IQUANT	1	Current Convention
ICHRANGE	IQUANT	2	Ich Range
ICHRANGEMODE	TOGGLE	F	Ich Auto Range
ICHOFFSETENABLE	TOGGLE	T	Ich Offset Enable
ICHOFFSET	QUANT	0	Ich Offset (V)
ICHFILTER	IQUANT	3	Ich Filter
VCHRANGE	IQUANT	2	Vch Range
VCHRANGEMODE	TOGGLE	F	Vch Auto Range
VCHOFFSETENABLE	TOGGLE	T	Vch Offset Enable
VCHOFFSET	QUANT	0	Vch Offset (V)
VCHFILTER	IQUANT	3	Vch Filter
ACHRANGE	IQUANT	2	Ach Range
ACHOFFSETENABLE	TOGGLE	F	Ach Offset Enable
ACHOFFSET	QUANT	0	Ach Offset (V)
ACHFILTER	IQUANT	3	Ach Filter
IERANGELOWERLIMIT	IQUANT	1	I/E Range Lower Limit
IERANGEMODE	TOGGLE	F	I/E AutoRange
IERANGE	IQUANT	5	I/E Range
POSFEEDENABLE	TOGGLE	F	Positive Feedback IR Comp
POSFEEDRESISTANCE	QUANT	0	Positive Feedback Resistance (ohm)
ACHSELECT	IQUANT	0	Ach Select
CABLEID	IQUANT	14	Cable ID
DCCALDATE	LABEL	8/19/2019	DC Calibration Date
ACCALDATE	LABEL	8/19/2019	AC Calibration Date
THERMOSELECT	IQUANT	1	Thermo Select
FRAMEWORKVERSION	QUANT	6.33	Framework Version
INSTRUMENTVERSION	LABEL	3.50	Instrument Version
ZCURVE	TABLE
	Pt	Time	Freq	Zreal	Zimag	Zsig	Zmod	Zphz	Idc	Vdc	IERange
	#	s	Hz	ohm	ohm	V	ohm	°	A	V	#
	0	2	1000078	1836.061	-1202.74	1	2194.927	-33.22743	-4.757209E-006	0.0078598	8
	1	2	794390.6	2017.887	-1210.887	1	2353.32	-30.96699	1.635951E-006	0.0069404	8
	2	2	630984.4	2181.56	-1228.859	1	2503.857	-29.39229	-7.936298E-006	0.0083375	8
	3	3	501234.4	2340.668	-1262	1	2659.204	-28.33187	-2.156715E-006	0.0077861	8
	4	3	398109.4	2509.602	-1303.29	1	2827.837	-27.44381	-2.660402E-006	0.0070341	8
	5	3	316265.6	2680.709	-1352.088	1	3002.389	-26.76533	7.420152E-006	0.0062697	8
	6	4	251203.1	2850.138	-1423.667	1	3185.925	-26.5425	-6.465896E-007	0.007533	8
	7	4	199546.9	3036.73	-1502.881	1	3388.271	-26.33085	2.369106E-006	0.0065358	8
	8	4	158578.1	3246.625	-1594.799	1	3617.176	-26.16108	-2.949404E-006	0.0076386	8
	9	5	125953.1	3504.491	-1650.05	1	3873.516	-25.21288	-5.585813E-007	0.0051195	7
	10	5	100078.1	3727.275	-1770.675	1	4126.483	-25.41047	1.304701E-007	0.0079573	7
	11	5	79453.13	3986.213	-1896.279	1	4414.269	-25.44087	4.289201E-007	0.0053911	7
	12	6	63140.62	4257.261	-2027.619	1	4715.454	-25.46721	8.881734E-007	0.0067059	7
	13	6	50203.12	4547.414	-2158.025	1	5033.492	-25.38719	9.627461E-007	0.0052903	7
	14	6	39890.62	4853.053	-2299.684	1	5370.351	-25.35456	8.886219E-007	0.0067074	7
	15	7	31640.63	5180.197	-2445.694	1	5728.513	-25.27311	1.309827E-007	0.0079406	7
	16	7	25171.88	5518.371	-2600.247	1	6100.303	-25.22973	7.414628E-007	0.0052375	7
	17	7	20015.62	5873.526	-2773.177	1	6495.292	-25.27427	1.091139E-006	0.0054789	7
	18	8	15890.62	6256.252	-2952.319	1	6917.867	-25.26258	4.298109E-007	0.0053803	7
	19	8	12609.37	6669.896	-3171.415	1	7385.485	-25.43024	6.810217E-007	0.0071361	7
	20	8	10078.13	7090.847	-3391.821	1	7860.316	-25.56356	4.607198E-007	0.0074767	7
	21	9	8015.625	7559.14	-3654.435	1	8396.159	-25.80125	1.092192E-006	0.0054816	7
	22	9	6328.125	8103.649	-3921.764	1	9002.742	-25.82468	1.128523E-006	0.00579	7
	23	9	5015.625	8680.778	-4202.889	1	9644.7	-25.83443	8.892826E-007	0.0066979	7
	24	10	3984.375	9280.003	-4445.096	1	10289.67	-25.59429	-1.264971E-006	0.0082001	7
	25	10	3170.956	9884.27	-4724.332	1	10955.28	-25.54614	-3.812134E-007	0.0062444	7
	26	10	2527.573	10540.88	-5003.92	1	11668.31	-25.39442	1.631352E-007	0.00462	6
	27	11	1976.103	11218.04	-5348.201	1	12427.7	-25.48948	-9.647878E-008	0.0095615	6
	28	11	1577.524	11862.53	-5724.263	1	13171.43	-25.75964	1.63117E-007	0.0056361	6
	29	11	1265.625	12499.68	-6175.693	1	13942.07	-26.29251	1.504184E-007	0.0061612	6
	30	12	998.264	13194.88	-6743.716	1	14818.32	-27.07093	1.403552E-007	0.0043804	6
	31	12	796.875	13912.73	-7396.218	1	15756.52	-27.99579	-1.984158E-007	0.0093253	6
	32	12	627.7902	14736.91	-8235.031	1	16881.72	-29.19659	-4.831447E-008	0.0057172	6
	33	13	505.5147	15576.16	-9128.628	1	18054.05	-30.37304	-1.527849E-007	0.0075597	6
	34	13	397.9953	16596.75	-10280.75	1	19522.96	-31.77588	-1.030469E-011	0.0069834	6
	35	13	315.5048	17651.02	-11593.2	1	21117.78	-33.29692	6.561303E-010	0.006976	6
	36	14	252.4038	18740.71	-13082.26	1	22855.19	-34.91761	9.816793E-010	0.0069709	6
	37	14	198.6229	20013.19	-15000.23	1	25010.69	-36.8522	5.745838E-010	0.0069743	6
	38	14	158.3615	21383.33	-17217.76	1	27453.56	-38.84086	-3.340232E-011	0.0069744	6
	39	15	125.558	23009.88	-19936.9	1	30445.6	-40.90729	9.024501E-010	0.0069794	6
	40	15	100.4464	24850.55	-23094.02	1	33924.68	-42.90181	8.937182E-010	0.0069808	6
	41	15	79.00281	27382.79	-27000.63	1	38455.84	-44.59739	8.921196E-010	0.0069822	6
	42	16	63.3446	29975.7	-31732.13	1	43651.7	-46.63041	4.651388E-010	0.0069831	6
	43	16	49.86702	33425.05	-36749.68	1	49676.68	-47.71244	-8.238512E-010	0.0069779	6
	44	16	39.72458	37770.84	-41960.68	1	56456.49	-48.00809	-3.840349E-011	0.0069849	6
	45	17	31.6723	42558.03	-47796.39	1	63997.5	-48.31805	-4.439515E-010	0.006973	6
	46	17	24.93351	48073.83	-54948.29	1	73009.64	-48.81758	3.314115E-010	0.0069774	6
	47	17	19.86229	53909	-62457.12	1	82504.98	-49.20133	2.43107E-009	0.0069778	6
	48	18	15.83615	60987.88	-70763.7	1	93418.54	-49.24351	-2.057042E-009	0.0069761	6
	49	18	12.40079	67773.47	-81042.87	1	105646.5	-50.09538	3.22376E-010	0.0069721	5
	50	18	9.93114	74323.23	-92572.32	1	118716.4	-51.24018	-5.597853E-010	0.0069782	5
	51	19	7.944915	81341.14	-106424.1	1	133949.5	-52.60892	9.783517E-010	0.0069747	5
	52	19	6.317385	89816.65	-123795.3	1	152945.4	-54.03815	4.504685E-010	0.0069608	5
	53	20	5.008013	99416.6	-145372.7	1	176116.1	-55.63279	1.575786E-010	0.0069783	5
	54	21	3.945707	111270.6	-172314.5	1	205118.2	-57.148	-3.133649E-010	0.0069835	5
	55	23	3.158693	123637.6	-202891.4	1	237594.6	-58.64277	-2.78004E-010	0.0069504	5
	56	24	2.504006	139885.8	-240806	1	278488	-59.84742	-1.729001E-011	0.0069597	5
	57	26	1.998082	158461.4	-284650	1	325784.7	-60.89581	-2.459978E-011	0.0069716	5
	58	27	1.584686	183224.4	-338188.5	1	384633.1	-61.55196	-2.126889E-010	0.0069215	5
	59	29	1.266892	211030.2	-400031.5	1	452281.9	-62.18683	-1.847507E-010	0.0069242	5
	60	32	0.999041	246473.8	-476057.9	1	536078.8	-62.62763	-1.769266E-010	0.006944	5
