EXPLAIN
TAG	EISPOT
TITLE	LABEL	Potentiostatic IDE	Test &Identifier
DATE	LABEL	9/6/2019	Date
TIME	LABEL	7:04:27	Time
NOTES	NOTES	1	&Notes...
	
PSTAT	PSTAT	REF600-11020	Potentiostat
VDC	POTEN	0.00000E+000	T	DC &Voltage (V)
FREQINIT	QUANT	1.00000E+006	Initial Fre&q. (Hz)
FREQFINAL	QUANT	1.00000E+000	Final Fre&q. (Hz)
PTSPERDEC	QUANT	1.00000E+001	Points/&decade
VAC	QUANT	2.50000E+001	AC &Voltage (mV rms)
AREA	QUANT	1.00000E-002	&Area (cm^2)
CONDIT	TWOPARAM	T	5.00000E+000	0.00000E+000	Conditionin&g	Time(s)	E(V)
DELAY	TWOPARAM	T	5.00000E+000	0.00000E+000	Init. De&lay	Time(s)	Stab.(mV/s)
SPEED	SELECTOR	1	&Optimize for:
ZGUESS	QUANT	1.00000E+007	E&stimated Z (ohms)
OCVCURVE	TABLE	19
	Pt	T	Vf	Vm	Ach	Over
	#	s	V vs. Ref.	V	V	bits
	0	0.258333	8.20304E-003	8.20304E-003	5.63632E-004	...........
	1	0.516667	8.20159E-003	8.12698E-003	5.65599E-004	...........
	2	0.775	8.19313E-003	8.07902E-003	5.63766E-004	...........
	3	1.03333	8.17113E-003	8.05427E-003	5.63232E-004	...........
	4	1.29167	8.13665E-003	8.03775E-003	5.60932E-004	...........
	5	1.55	8.09913E-003	8.03259E-003	5.65166E-004	...........
	6	1.80833	8.06813E-003	8.03374E-003	5.68666E-004	...........
	7	2.06667	8.04809E-003	8.04889E-003	5.60199E-004	...........
	8	2.325	8.03934E-003	8.05847E-003	5.61899E-004	...........
	9	2.58333	8.04013E-003	8.07780E-003	5.61266E-004	...........
	10	2.84167	8.04810E-003	8.09901E-003	5.64032E-004	...........
	11	3.1	8.06174E-003	8.14706E-003	5.59266E-004	...........
	12	3.35833	8.08087E-003	8.14522E-003	5.53633E-004	...........
	13	3.61667	8.10402E-003	8.17162E-003	5.54233E-004	...........
	14	3.875	8.12777E-003	8.19845E-003	5.54466E-004	...........
	15	4.13333	8.15043E-003	8.22579E-003	5.57632E-004	...........
	16	4.39167	8.17333E-003	8.25568E-003	5.56199E-004	...........
	17	4.65	8.19802E-003	8.28245E-003	5.61166E-004	...........
	18	4.90833	8.22458E-003	8.30914E-003	5.55166E-004	...........
EOC	QUANT	0.0082246	Open Circuit (V)
PSTATMODEL	IQUANT	4	Pstat Model
PSTATSECTION	LABEL	REF600-11020	Pstat Section
PSTATSERIALNO	LABEL	11020	Pstat Serial Number
CTRLMODE	IQUANT	1	Control Mode
IESTAB	IQUANT	0	I/E Stability
CASPEED	IQUANT	1	Control Amp Speed
CONVENTION	IQUANT	1	Current Convention
ICHRANGE	IQUANT	2	Ich Range
ICHRANGEMODE	TOGGLE	F	Ich Auto Range
ICHOFFSETENABLE	TOGGLE	T	Ich Offset Enable
ICHOFFSET	QUANT	0	Ich Offset (V)
ICHFILTER	IQUANT	3	Ich Filter
VCHRANGE	IQUANT	2	Vch Range
VCHRANGEMODE	TOGGLE	F	Vch Auto Range
VCHOFFSETENABLE	TOGGLE	T	Vch Offset Enable
VCHOFFSET	QUANT	0	Vch Offset (V)
VCHFILTER	IQUANT	3	Vch Filter
ACHRANGE	IQUANT	2	Ach Range
ACHOFFSETENABLE	TOGGLE	F	Ach Offset Enable
ACHOFFSET	QUANT	0	Ach Offset (V)
ACHFILTER	IQUANT	3	Ach Filter
IERANGELOWERLIMIT	IQUANT	1	I/E Range Lower Limit
IERANGEMODE	TOGGLE	F	I/E AutoRange
IERANGE	IQUANT	3	I/E Range
POSFEEDENABLE	TOGGLE	F	Positive Feedback IR Comp
POSFEEDRESISTANCE	QUANT	0	Positive Feedback Resistance (ohm)
ACHSELECT	IQUANT	0	Ach Select
CABLEID	IQUANT	14	Cable ID
DCCALDATE	LABEL	8/19/2019	DC Calibration Date
ACCALDATE	LABEL	8/19/2019	AC Calibration Date
THERMOSELECT	IQUANT	1	Thermo Select
FRAMEWORKVERSION	QUANT	6.33	Framework Version
INSTRUMENTVERSION	LABEL	3.50	Instrument Version
ZCURVE	TABLE
	Pt	Time	Freq	Zreal	Zimag	Zsig	Zmod	Zphz	Idc	Vdc	IERange
	#	s	Hz	ohm	ohm	V	ohm	°	A	V	#
	0	2	1000078	2502.865	-1739.593	1	3048.035	-34.80088	2.732326E-006	0.0101377	8
	1	3	794390.6	2840.298	-1635.919	1	3277.731	-29.94054	-2.093013E-007	0.0100243	8
	2	5	630984.4	3137.797	-1494.111	1	3475.362	-25.46218	-9.243748E-007	0.0103595	8
	3	6	501234.4	3386.261	-1319.527	1	3634.27	-21.28941	7.635787E-007	0.0098215	8
	4	7	398109.4	3554.512	-1140.847	1	3733.107	-17.79442	1.137656E-006	0.0097128	8
	5	9	316265.6	3694.808	-980.155	1	3822.605	-14.85716	1.354861E-006	0.0095403	8
	6	10	251203.1	3791.326	-865.0432	1	3888.76	-12.8528	-2.058715E-006	0.0102941	8
	7	11	199546.9	3862.592	-738.412	1	3932.539	-10.82266	1.03658E-006	0.0096551	8
	8	13	158578.1	3930.719	-655.9547	1	3985.076	-9.47416	1.338157E-006	0.009643	8
	9	14	125953.1	3995.75	-569.1443	1	4036.08	-8.106533	-3.727738E-007	0.0106003	7
	10	15	100078.1	4033.442	-519.7134	1	4066.787	-7.342168	-3.805284E-008	0.0099105	7
	11	17	79453.13	4076.295	-494.848	1	4106.221	-6.921639	1.270249E-008	0.0097998	7
	12	18	63140.62	4116.045	-482.6843	1	4144.25	-6.688467	-9.330183E-009	0.0098843	7
	13	19	50203.12	4157.506	-481.7767	1	4185.328	-6.61002	2.936886E-008	0.0097593	7
	14	21	39890.62	4197.564	-490.9356	1	4226.176	-6.670851	-2.860556E-009	0.0098674	7
	15	22	31640.63	4241.898	-513.3721	1	4272.85	-6.900613	3.484615E-008	0.0098483	7
	16	23	25171.88	4287.18	-547.8931	1	4322.048	-7.28281	4.865508E-009	0.0098055	7
	17	25	20015.62	4332.643	-594.5731	1	4373.25	-7.813951	-6.270398E-009	0.0098735	7
	18	26	15890.62	4385.045	-655.6512	1	4433.791	-8.503859	-2.518861E-008	0.0098641	7
	19	27	12609.37	4437.803	-735.8806	1	4498.401	-9.415168	4.642041E-009	0.0098002	7
	20	29	10078.13	4493.955	-833.0286	1	4570.511	-10.50152	-3.510246E-008	0.0098979	7
	21	30	8015.625	4557.557	-953.624	1	4656.256	-11.81807	-1.485906E-008	0.0099328	7
	22	31	6328.125	4627.853	-1108.249	1	4758.701	-13.46722	4.987789E-008	0.0097598	7
	23	33	5015.625	4706.409	-1298.129	1	4882.154	-15.42	-1.840957E-008	0.0099144	7
	24	34	3984.375	4797.063	-1527.324	1	5034.335	-17.66082	4.985444E-008	0.0097612	7
	25	35	3170.956	4895.81	-1799.923	1	5216.194	-20.18574	-2.330867E-008	0.0098845	7
	26	37	2527.573	5015.583	-2134.358	1	5450.832	-23.05195	-2.749515E-008	0.0098523	7
	27	38	1976.103	5167.9	-2577.841	1	5775.159	-26.51084	3.088703E-009	0.0097944	7
	28	39	1577.524	5331.837	-3069.43	1	6152.227	-29.92816	-4.346698E-009	0.0098683	7
	29	41	1265.625	5518.412	-3643.918	1	6612.943	-33.43758	-2.017949E-008	0.0099132	7
	30	42	998.264	5758.252	-4392.92	1	7242.597	-37.33969	-5.14784E-009	0.0098736	7
	31	43	796.875	6036.412	-5256.213	1	8004.126	-41.04776	-1.358798E-008	0.0098344	7
	32	45	627.7902	6384.02	-6345.795	1	9001.379	-44.82796	-2.372869E-008	0.0098745	7
	33	46	505.5147	6745.414	-7545.028	1	10120.67	-48.20262	-2.832773E-009	0.009859	6
	34	47	397.9953	7232.635	-9141.037	1	11656.31	-51.64801	6.065793E-010	0.0097941	6
	35	49	315.5048	7792.45	-11025.42	1	13501.19	-54.74844	7.441281E-010	0.0097932	6
	36	50	252.4038	8433.594	-13214.32	1	15676.21	-57.45332	6.126994E-010	0.0097875	6
	37	51	198.6229	9261.108	-16064.96	1	18543.22	-60.03746	7.574396E-010	0.0097929	6
	38	53	158.3615	10207.23	-19337.91	1	21866.47	-62.17334	9.390709E-010	0.0097911	6
	39	54	125.558	11384.76	-23398.27	1	26020.99	-64.05409	8.047071E-010	0.0097933	6
	40	55	100.4464	12756.1	-28114.53	1	30873.04	-65.59531	5.195647E-010	0.0097941	6
	41	57	79.00281	14611.53	-34249.9	1	37236.44	-66.89616	5.939026E-010	0.0097943	6
	42	58	63.3446	16549.1	-41143.66	1	44347.2	-68.08868	3.685621E-010	0.0097871	6
	43	59	49.86702	19466.14	-49959.43	1	53617.86	-68.71217	4.481814E-010	0.0097857	6
	44	61	39.72458	22626.09	-60266.7	1	64374.02	-69.42223	6.468396E-010	0.0097904	6
	45	62	31.6723	26625.25	-72494.49	1	77229.24	-69.83309	6.733802E-010	0.009789	6
	46	63	24.93351	31780.35	-88098.94	1	93655.83	-70.16386	4.989645E-010	0.0097885	6
	47	65	19.86229	37860.13	-105840	1	112407.7	-70.31731	8.966949E-010	0.0098018	5
	48	66	15.83615	45863.92	-127089.7	1	135112.1	-70.15659	1.084549E-009	0.0097937	5
	49	67	12.40079	56024.38	-155102	1	164910.2	-70.13979	6.626455E-010	0.009794	5
	50	69	9.93114	67673.9	-184780.6	1	196783.2	-69.88528	4.328191E-010	0.0097886	5
	51	70	7.944915	82410.67	-220395.3	1	235299	-69.49812	-5.511085E-011	0.0097905	5
	52	72	6.317385	101921.9	-263422.5	1	282452.6	-68.84784	-3.393535E-011	0.0097982	5
	53	74	5.008013	126994.1	-314719.1	1	339375.3	-68.02515	2.004236E-010	0.0097894	5
	54	76	3.945707	159356.6	-375790.7	1	408182.8	-67.02029	-1.044326E-010	0.0097857	5
	55	79	3.158693	197480.8	-440766.1	1	482983.8	-65.86571	1.062106E-010	0.0097818	5
	56	82	2.504006	245739.1	-517946.9	1	573285.9	-64.61807	5.010484E-011	0.0097985	5
	57	85	1.998082	301208.9	-600999.4	1	672255.2	-63.38088	3.262337E-010	0.0097899	5
	58	88	1.584686	371974.4	-698899.6	1	791723.2	-61.97681	6.684995E-012	0.0097441	5
	59	91	1.266892	448131.7	-800934	1	917778.4	-60.77249	2.437326E-010	0.0097905	5
	60	96	0.999041	546424.1	-928291.6	1	1077174	-59.51748	-1.804392E-010	0.0097732	4
