EXPLAIN
TAG	EISPOT
TITLE	LABEL	Potentiostatic EIS	Test &Identifier
DATE	LABEL	11/7/2019	Date
TIME	LABEL	9:37:06	Time
NOTES	NOTES	2	&Notes...
	
	
PSTAT	PSTAT	REF600-11020	Potentiostat
VDC	POTEN	0.00000E+000	T	DC &Voltage (V)
FREQINIT	QUANT	1.00000E+006	Initial Fre&q. (Hz)
FREQFINAL	QUANT	1.00000E+000	Final Fre&q. (Hz)
PTSPERDEC	QUANT	1.00000E+001	Points/&decade
VAC	QUANT	2.50000E+001	AC &Voltage (mV rms)
AREA	QUANT	1.00000E-002	&Area (cm^2)
CONDIT	TWOPARAM	T	5.00000E+000	0.00000E+000	Conditionin&g	Time(s)	E(V)
DELAY	TWOPARAM	T	5.00000E+000	0.00000E+000	Init. De&lay	Time(s)	Stab.(mV/s)
SPEED	SELECTOR	1	&Optimize for:
ZGUESS	QUANT	1.00000E+005	E&stimated Z (ohms)
OCVCURVE	TABLE	19
	Pt	T	Vf	Vm	Ach	Over
	#	s	V vs. Ref.	V	V	bits
	0	0.258333	2.89362E-003	2.89362E-003	5.82099E-004	...........
	1	0.516667	2.88399E-003	2.38965E-003	5.79866E-004	...........
	2	0.775	2.82631E-003	1.98743E-003	5.87165E-004	...........
	3	1.03333	2.66908E-003	1.66090E-003	5.88332E-004	...........
	4	1.29167	2.40214E-003	1.35497E-003	5.83865E-004	...........
	5	1.55	2.07023E-003	1.08472E-003	5.85765E-004	...........
	6	1.80833	1.72906E-003	8.31654E-004	5.89465E-004	...........
	7	2.06667	1.41100E-003	6.06774E-004	5.86165E-004	...........
	8	2.325	1.12485E-003	3.89404E-004	5.80899E-004	...........
	9	2.58333	8.67886E-004	2.07797E-004	5.80965E-004	...........
	10	2.84167	6.35354E-004	2.96268E-005	5.78599E-004	...........
	11	3.1	4.23725E-004	-1.36475E-004	5.85765E-004	...........
	12	3.35833	2.29932E-004	-2.91952E-004	5.82565E-004	...........
	13	3.61667	5.10570E-005	-4.22292E-004	5.87499E-004	...........
	14	3.875	-1.14545E-004	-5.60894E-004	5.81699E-004	...........
	15	4.13333	-2.67760E-004	-6.83151E-004	5.80365E-004	...........
	16	4.39167	-4.10194E-004	-8.05084E-004	5.78432E-004	...........
	17	4.65	-5.43736E-004	-9.08327E-004	5.82265E-004	...........
	18	4.90833	-6.69372E-004	-1.01749E-003	5.83999E-004	...........
EOC	QUANT	-0.0006694	Open Circuit (V)
PSTATMODEL	IQUANT	4	Pstat Model
PSTATSECTION	LABEL	REF600-11020	Pstat Section
PSTATSERIALNO	LABEL	11020	Pstat Serial Number
CTRLMODE	IQUANT	1	Control Mode
IESTAB	IQUANT	0	I/E Stability
CASPEED	IQUANT	1	Control Amp Speed
CONVENTION	IQUANT	1	Current Convention
ICHRANGE	IQUANT	2	Ich Range
ICHRANGEMODE	TOGGLE	F	Ich Auto Range
ICHOFFSETENABLE	TOGGLE	T	Ich Offset Enable
ICHOFFSET	QUANT	0	Ich Offset (V)
ICHFILTER	IQUANT	3	Ich Filter
VCHRANGE	IQUANT	2	Vch Range
VCHRANGEMODE	TOGGLE	F	Vch Auto Range
VCHOFFSETENABLE	TOGGLE	T	Vch Offset Enable
VCHOFFSET	QUANT	0	Vch Offset (V)
VCHFILTER	IQUANT	3	Vch Filter
ACHRANGE	IQUANT	2	Ach Range
ACHOFFSETENABLE	TOGGLE	F	Ach Offset Enable
ACHOFFSET	QUANT	0	Ach Offset (V)
ACHFILTER	IQUANT	3	Ach Filter
IERANGELOWERLIMIT	IQUANT	1	I/E Range Lower Limit
IERANGEMODE	TOGGLE	F	I/E AutoRange
IERANGE	IQUANT	4	I/E Range
POSFEEDENABLE	TOGGLE	F	Positive Feedback IR Comp
POSFEEDRESISTANCE	QUANT	0	Positive Feedback Resistance (ohm)
ACHSELECT	IQUANT	0	Ach Select
CABLEID	IQUANT	14	Cable ID
DCCALDATE	LABEL	8/19/2019	DC Calibration Date
ACCALDATE	LABEL	8/19/2019	AC Calibration Date
THERMOSELECT	IQUANT	1	Thermo Select
FRAMEWORKVERSION	QUANT	6.33	Framework Version
INSTRUMENTVERSION	LABEL	3.50	Instrument Version
ZCURVE	TABLE
	Pt	Time	Freq	Zreal	Zimag	Zsig	Zmod	Zphz	Idc	Vdc	IERange
	#	s	Hz	ohm	ohm	V	ohm	°	A	V	#
	0	1	1000078	2087.041	-1560.664	1	2606.034	-36.7887	1.212309E-005	0.0002285	8
	1	3	794390.6	2391.666	-1493.585	1	2819.728	-31.9846	-1.539068E-006	0.0015338	8
	2	4	630984.4	2673.298	-1418.285	1	3026.228	-27.94762	3.776971E-006	0.0001727	8
	3	6	501234.4	2915.827	-1305.372	1	3194.689	-24.11734	-3.639889E-006	0.0007595	8
	4	7	398109.4	3104.107	-1164.54	1	3315.363	-20.56413	2.834013E-007	0.0004418	8
	5	8	316265.6	3276.847	-1056.669	1	3443.004	-17.87271	-6.983164E-008	0.0004241	8
	6	10	251203.1	3402.809	-939.4081	1	3530.099	-15.43315	2.924988E-006	0.0001048	8
	7	11	199546.9	3511.945	-840.4897	1	3611.119	-13.45906	-5.146235E-007	0.0012846	8
	8	13	158578.1	3580.582	-768.2988	1	3662.083	-12.11053	-6.991519E-007	0.0004591	8
	9	14	125953.1	3681.076	-655.0453	1	3738.904	-10.09013	-4.08423E-007	-0.0016693	7
	10	15	100078.1	3750.422	-605.0489	1	3798.914	-9.164464	8.709288E-007	-0.0012553	7
	11	17	79453.13	3797.164	-605.3544	1	3845.115	-9.058026	1.095739E-006	-0.0011685	7
	12	18	63140.62	3850.583	-606.2885	1	3898.022	-8.947969	-8.091376E-007	0.0005337	7
	13	19	50203.12	3905.148	-624.5859	1	3954.78	-9.086877	-8.117505E-007	0.0005312	7
	14	21	39890.62	3963.294	-657.3105	1	4017.431	-9.416763	1.326548E-007	-0.0008145	7
	15	22	31640.63	4026.489	-703.371	1	4087.462	-9.90879	-9.998918E-007	0.0025978	7
	16	23	25171.88	4095.629	-764.4254	1	4166.356	-10.57228	-1.225027E-006	0.0025236	7
	17	25	20015.62	4167.667	-841.1749	1	4251.709	-11.41091	-3.194975E-007	0.0022344	7
	18	26	15890.62	4259.044	-938.8798	1	4361.302	-12.43167	4.394763E-007	0.0013112	7
	19	27	12609.37	4354.179	-1055.83	1	4480.363	-13.63037	1.099977E-006	-0.0011743	7
	20	29	10078.13	4454.439	-1181.139	1	4608.375	-14.85079	1.333096E-007	-0.0008158	7
	21	30	8015.625	4593.167	-1345.038	1	4786.053	-16.32185	1.134129E-006	-8.101254E-005	7
	22	32	6328.125	4727.509	-1536.333	1	4970.881	-18.00298	-1.168169E-006	0.0012906	7
	23	33	5015.625	4890.702	-1754.946	1	5196.037	-19.73968	-8.106909E-007	0.0005247	7
	24	34	3984.375	5073.415	-1998.182	1	5452.73	-21.49717	6.913575E-007	0.0009353	7
	25	36	3170.956	5279.185	-2291.609	1	5755.108	-23.46488	-1.167266E-006	0.0012937	7
	26	37	2527.573	5516.358	-2621.804	1	6107.706	-25.42072	-8.079281E-007	0.0005313	7
	27	38	1976.103	5807.326	-3040.521	1	6555.136	-27.63505	6.886727E-007	0.0009413	7
	28	40	1577.524	6105.588	-3463.832	1	7019.71	-29.56718	-1.370563E-006	0.0023399	7
	29	41	1265.625	6444.657	-3981.698	1	7575.455	-31.70899	-1.165371E-006	0.0012889	7
	30	43	998.264	6858.861	-4589.931	1	8252.966	-33.79033	-9.959055E-007	0.0025925	7
	31	44	796.875	7311.085	-5280.367	1	9018.55	-35.83837	4.396982E-007	0.0012955	7
	32	46	627.7902	7831.14	-6096.373	1	9924.34	-37.89999	9.34727E-007	0.0004714	7
	33	47	505.5147	8338.893	-6956.671	1	10859.67	-39.83635	8.7014E-007	-0.0012798	7
	34	48	397.9953	8934.197	-8066.351	1	12036.86	-42.07769	3.525991E-009	0.0007326	7
	35	50	315.5048	9534.36	-9357.126	1	13358.88	-44.4625	1.888921E-010	0.0006673	6
	36	51	252.4038	10110.24	-10872.85	1	14847.08	-47.08145	1.661277E-009	0.0006706	6
	37	52	198.6229	10744.46	-12893.76	1	16783.69	-50.19532	7.601788E-010	0.0006679	6
	38	54	158.3615	11371.98	-15286.48	1	19052.52	-53.35355	1.673321E-009	0.0006629	6
	39	55	125.558	12074.72	-18366.81	1	21980.42	-56.67825	1.443946E-010	0.0006754	6
	40	57	100.4464	12859.85	-22067.5	1	25541.15	-59.76847	1.976907E-009	0.0006686	6
	41	58	79.00281	13760.81	-27019.69	1	30322	-63.01079	1.395048E-009	0.0006774	6
	42	59	63.3446	14601.81	-32868.46	1	35965.93	-66.04681	-1.855698E-010	0.0006787	6
	43	61	49.86702	16635.28	-40030.54	1	43349.48	-67.43395	-1.464242E-010	0.0006607	6
	44	62	39.72458	18504.69	-49233.55	1	52596.26	-69.40101	1.438347E-009	0.000664	6
	45	64	31.6723	20902.01	-60269.92	1	63791.52	-70.87312	6.376597E-010	0.0006632	6
	46	65	24.93351	24411.52	-74194.98	1	78107.73	-71.78784	9.993097E-010	0.0006685	6
	47	66	19.86229	28760.17	-90506.9	1	94966.55	-72.37142	3.92529E-010	0.0006655	6
	48	68	15.83615	34867.99	-109945.1	1	115341.7	-72.40409	9.039996E-010	0.0006742	5
	49	69	12.40079	41421.75	-134284	1	140527.4	-72.8569	-6.229473E-010	0.0006767	5
	50	70	9.93114	51711.74	-162825	1	170839.3	-72.38062	1.876276E-010	0.0006724	5
	51	72	7.944915	63542.39	-195649.4	1	205709.3	-72.00741	4.602204E-010	0.0006648	5
	52	74	6.317385	79586.21	-235410.7	1	248499.8	-71.32095	5.710867E-010	0.0006726	5
	53	76	5.008013	99526	-283261.3	1	300237.2	-70.64069	3.889806E-010	0.0006893	5
	54	78	3.945707	126307.9	-340637.7	1	363301.1	-69.6553	1.396192E-010	0.0006686	5
	55	81	3.158693	156957.8	-402756.4	1	432259.8	-68.70869	2.695909E-010	0.0006834	5
	56	84	2.504006	195896.9	-478825.5	1	517348.4	-67.74957	2.191505E-011	0.0006691	5
	57	87	1.998082	242071.5	-562984.7	1	612821.6	-66.73331	6.991954E-011	0.0006597	5
	58	90	1.584686	301610.2	-661172.7	1	726717.3	-65.47873	1.361533E-010	0.0007223	5
	59	94	1.266892	367418.2	-771574.2	1	854589.3	-64.53654	3.288541E-011	0.0006587	5
	60	98	0.999041	453335.2	-904449	1	1011702	-63.37868	2.476843E-010	0.0007044	5
