EXPLAIN
TAG	EISPOT
TITLE	LABEL	Potentiostatic IDE	Test &Identifier
DATE	LABEL	9/12/2019	Date
TIME	LABEL	11:23:44	Time
NOTES	NOTES	1	&Notes...
	
PSTAT	PSTAT	REF600-11020	Potentiostat
VDC	POTEN	0.00000E+000	T	DC &Voltage (V)
FREQINIT	QUANT	1.00000E+006	Initial Fre&q. (Hz)
FREQFINAL	QUANT	1.00000E+000	Final Fre&q. (Hz)
PTSPERDEC	QUANT	1.00000E+001	Points/&decade
VAC	QUANT	2.50000E+001	AC &Voltage (mV rms)
AREA	QUANT	1.00000E-002	&Area (cm^2)
CONDIT	TWOPARAM	T	5.00000E+000	0.00000E+000	Conditionin&g	Time(s)	E(V)
DELAY	TWOPARAM	T	5.00000E+000	0.00000E+000	Init. De&lay	Time(s)	Stab.(mV/s)
SPEED	SELECTOR	1	&Optimize for:
ZGUESS	QUANT	1.00000E+007	E&stimated Z (ohms)
OCVCURVE	TABLE	19
	Pt	T	Vf	Vm	Ach	Over
	#	s	V vs. Ref.	V	V	bits
	0	0.258333	3.99919E-003	3.99919E-003	5.66066E-004	...........
	1	0.516667	3.99421E-003	3.73837E-003	5.65932E-004	...........
	2	0.775	3.96540E-003	3.58471E-003	5.67732E-004	...........
	3	1.03333	3.88851E-003	3.36749E-003	5.72832E-004	...........
	4	1.29167	3.75802E-003	3.23164E-003	5.65299E-004	...........
	5	1.55	3.59397E-003	3.14338E-003	5.65766E-004	...........
	6	1.80833	3.42704E-003	3.05332E-003	5.61099E-004	...........
	7	2.06667	3.27984E-003	2.92944E-003	5.64199E-004	...........
	8	2.325	3.15776E-003	2.91514E-003	5.65966E-004	...........
	9	2.58333	3.05706E-003	2.83850E-003	5.71832E-004	...........
	10	2.84167	2.97378E-003	2.74124E-003	5.66532E-004	...........
	11	3.1	2.90082E-003	2.66960E-003	5.69132E-004	...........
	12	3.35833	2.82900E-003	2.60043E-003	5.69099E-004	...........
	13	3.61667	2.75486E-003	2.53652E-003	5.66866E-004	...........
	14	3.875	2.68091E-003	2.47245E-003	5.64032E-004	...........
	15	4.13333	2.61015E-003	2.41875E-003	5.66032E-004	...........
	16	4.39167	2.54381E-003	2.36341E-003	5.72599E-004	...........
	17	4.65	2.48097E-003	2.25929E-003	5.67032E-004	...........
	18	4.90833	2.41693E-003	2.15921E-003	5.69499E-004	...........
EOC	QUANT	0.0024169	Open Circuit (V)
PSTATMODEL	IQUANT	4	Pstat Model
PSTATSECTION	LABEL	REF600-11020	Pstat Section
PSTATSERIALNO	LABEL	11020	Pstat Serial Number
CTRLMODE	IQUANT	1	Control Mode
IESTAB	IQUANT	0	I/E Stability
CASPEED	IQUANT	1	Control Amp Speed
CONVENTION	IQUANT	1	Current Convention
ICHRANGE	IQUANT	2	Ich Range
ICHRANGEMODE	TOGGLE	F	Ich Auto Range
ICHOFFSETENABLE	TOGGLE	T	Ich Offset Enable
ICHOFFSET	QUANT	0	Ich Offset (V)
ICHFILTER	IQUANT	3	Ich Filter
VCHRANGE	IQUANT	2	Vch Range
VCHRANGEMODE	TOGGLE	F	Vch Auto Range
VCHOFFSETENABLE	TOGGLE	T	Vch Offset Enable
VCHOFFSET	QUANT	0	Vch Offset (V)
VCHFILTER	IQUANT	3	Vch Filter
ACHRANGE	IQUANT	2	Ach Range
ACHOFFSETENABLE	TOGGLE	F	Ach Offset Enable
ACHOFFSET	QUANT	0	Ach Offset (V)
ACHFILTER	IQUANT	3	Ach Filter
IERANGELOWERLIMIT	IQUANT	1	I/E Range Lower Limit
IERANGEMODE	TOGGLE	F	I/E AutoRange
IERANGE	IQUANT	2	I/E Range
POSFEEDENABLE	TOGGLE	F	Positive Feedback IR Comp
POSFEEDRESISTANCE	QUANT	0	Positive Feedback Resistance (ohm)
ACHSELECT	IQUANT	0	Ach Select
CABLEID	IQUANT	14	Cable ID
DCCALDATE	LABEL	8/19/2019	DC Calibration Date
ACCALDATE	LABEL	8/19/2019	AC Calibration Date
THERMOSELECT	IQUANT	1	Thermo Select
FRAMEWORKVERSION	QUANT	6.33	Framework Version
INSTRUMENTVERSION	LABEL	3.50	Instrument Version
ZCURVE	TABLE
	Pt	Time	Freq	Zreal	Zimag	Zsig	Zmod	Zphz	Idc	Vdc	IERange
	#	s	Hz	ohm	ohm	V	ohm	°	A	V	#
	0	2	1000078	2408.345	-1566.165	1	2872.804	-33.03625	6.485864E-007	0.0042827	8
	1	3	794390.6	2720.055	-1454.574	1	3084.556	-28.13606	1.954431E-006	0.0041508	8
	2	5	630984.4	2972.02	-1321.285	1	3252.491	-23.96873	-4.250893E-006	0.0051713	8
	3	6	501234.4	3171.865	-1146.72	1	3372.787	-19.87638	5.6906E-007	0.0044691	8
	4	7	398109.4	3357.48	-1018.578	1	3508.586	-16.87652	2.502048E-006	0.0036644	8
	5	9	316265.6	3451.814	-868.619	1	3559.427	-14.12472	-4.080246E-007	0.0041702	8
	6	10	251203.1	3543.782	-746.9241	1	3621.641	-11.90205	-3.236557E-006	0.0047992	8
	7	11	199546.9	3618.482	-630.9791	1	3673.084	-9.89159	-3.060028E-006	0.0047758	8
	8	13	158578.1	3680.931	-551.5016	1	3722.016	-8.521053	2.445169E-006	0.0036341	8
	9	14	125953.1	3733.119	-429.7163	1	3757.77	-6.56637	4.202419E-007	0.0030216	7
	10	15	100078.1	3754.767	-385.6581	1	3774.521	-5.864376	4.235813E-008	0.0039696	7
	11	17	79453.13	3783.372	-357.2467	1	3800.201	-5.394188	8.120402E-008	0.0040527	7
	12	18	63140.62	3811.895	-339.0886	1	3826.947	-5.083388	3.89545E-008	0.0040552	7
	13	19	50203.12	3838.019	-328.0028	1	3852.009	-4.884713	1.217549E-007	0.0039258	7
	14	21	39890.62	3861.961	-326.7671	1	3875.761	-4.836373	-5.921983E-008	0.0041669	7
	15	22	31640.63	3891.609	-330.9784	1	3905.659	-4.861263	-5.879787E-008	0.0041917	7
	16	24	25171.88	3917.104	-344.6762	1	3932.24	-5.028653	-5.496454E-008	0.0042789	7
	17	25	20015.62	3945.669	-367.5576	1	3962.751	-5.322012	-2.80468E-008	0.0041471	7
	18	26	15890.62	3977.291	-395.7881	1	3996.935	-5.682908	-5.785397E-008	0.0042918	7
	19	28	12609.37	4004.212	-444.2353	1	4028.779	-6.330621	-4.887418E-009	0.0041384	7
	20	29	10078.13	4034.898	-498.9257	1	4065.628	-7.048992	-3.987251E-009	0.0041355	7
	21	30	8015.625	4068.819	-570.4145	1	4108.608	-7.98038	-5.852596E-008	0.0042877	7
	22	32	6328.125	4107.832	-663.4948	1	4161.07	-9.175143	-6.035275E-008	0.004192	7
	23	33	5015.625	4147.826	-777.2945	1	4220.029	-10.61401	1.187467E-007	0.0039214	7
	24	34	3984.375	4193.632	-917.7643	1	4292.882	-12.3444	-5.326901E-008	0.0041616	7
	25	36	3170.956	4245.501	-1090.939	1	4383.427	-14.41114	-1.862366E-008	0.004068	7
	26	37	2527.573	4303.455	-1301.7	1	4496.014	-16.82941	9.900174E-008	0.0040193	7
	27	38	1976.103	4377.843	-1582.113	1	4654.954	-19.8694	-5.11187E-008	0.0041613	7
	28	40	1577.524	4460.23	-1901.83	1	4848.774	-23.09327	-5.828126E-009	0.0041274	7
	29	41	1265.625	4551.412	-2277.049	1	5089.234	-26.57858	-2.031605E-008	0.0041271	7
	30	42	998.264	4675.506	-2768.884	1	5433.882	-30.63447	9.494617E-008	0.0040068	7
	31	44	796.875	4808.92	-3338.174	1	5853.983	-34.76694	4.442712E-008	0.003952	7
	32	45	627.7902	4975.485	-4075.957	1	6431.864	-39.3246	1.955916E-008	0.0040022	7
	33	46	505.5147	5155.79	-4889.902	1	7105.864	-43.48386	4.460887E-008	0.0039568	7
	34	48	397.9953	5374.81	-6001.278	1	8056.297	-48.15203	6.331616E-009	0.0041083	7
	35	49	315.5048	5634.66	-7332.103	1	9247.114	-52.45802	6.808214E-009	0.0041039	7
	36	50	252.4038	5935.054	-8903.427	1	10700.27	-56.31245	1.890164E-009	0.0040445	6
	37	52	198.6229	6325.787	-10988.43	1	12679.16	-60.07195	1.379187E-009	0.0040396	6
	38	53	158.3615	6785.099	-13426.68	1	15043.72	-63.19051	1.04535E-009	0.0040354	6
	39	54	125.558	7386.6	-16497.85	1	18075.98	-65.88046	1.137068E-009	0.0040363	6
	40	56	100.4464	8121.479	-20137.66	1	21713.68	-68.03588	4.619971E-010	0.004039	6
	41	57	79.00281	9142.455	-24876.73	1	26503.51	-69.8211	6.548542E-010	0.0040365	6
	42	58	63.3446	10458.93	-30566.07	1	32305.94	-71.11036	9.886419E-010	0.004037	6
	43	60	49.86702	12046.47	-37260.2	1	39159.16	-72.08363	1.631929E-009	0.0040325	6
	44	61	39.72458	14407.31	-45703.61	1	47920.66	-72.5034	1.205701E-009	0.0040477	6
	45	62	31.6723	17332.81	-55467.2	1	58112.28	-72.64662	1.665022E-009	0.0040406	6
	46	64	24.93351	21380.49	-68141.43	1	71416.95	-72.5799	6.364095E-010	0.0040418	6
	47	65	19.86229	26438.77	-82445.77	1	86581.26	-72.21996	1.220015E-009	0.0040414	6
	48	66	15.83615	33804.04	-98749.7	1	104375.3	-71.10287	2.733492E-009	0.0040417	6
	49	68	12.40079	42492.02	-121968.9	1	129158.7	-70.79247	1.191444E-009	0.0040536	5
	50	69	9.93114	53318.18	-144060.2	1	153610.4	-69.68996	4.580284E-010	0.0040509	5
	51	71	7.944915	67293.62	-170925.2	1	183695	-68.51033	1.020586E-009	0.0040463	5
	52	72	6.317385	85826.28	-201712.4	1	219212.4	-66.95081	3.396501E-010	0.0040438	5
	53	74	5.008013	108736.5	-238017.6	1	261679.2	-65.44708	2.276238E-012	0.0040439	5
	54	77	3.945707	137852.1	-278247.2	1	310523.3	-63.64479	6.298752E-010	0.0040565	5
	55	79	3.158693	170746.6	-321466.5	1	363998.8	-62.02505	2.68151E-011	0.0040479	5
	56	83	2.504006	211202.2	-369177.6	1	425321.6	-60.22663	5.348176E-010	0.0040388	5
	57	86	1.998082	256394.5	-420076.4	1	492140.6	-58.60212	4.619229E-011	0.0040816	5
	58	89	1.584686	308930.1	-477545.4	1	568759.6	-57.10067	3.456613E-010	0.0040823	5
	59	92	1.266892	365550.6	-536374.6	1	649095.5	-55.72474	-1.146381E-010	0.0040692	5
	60	97	0.999041	430512.2	-604447.3	1	742089.8	-54.53997	3.368773E-010	0.004032	5
