EXPLAIN
TAG	EISPOT
TITLE	LABEL	Potentiostatic EIS	Test &Identifier
DATE	LABEL	10/22/2019	Date
TIME	LABEL	7:53:52	Time
NOTES	NOTES	1	&Notes...
	
PSTAT	PSTAT	REF600-11020	Potentiostat
VDC	POTEN	0.00000E+000	T	DC &Voltage (V)
FREQINIT	QUANT	1.00000E+006	Initial Fre&q. (Hz)
FREQFINAL	QUANT	1.00000E+000	Final Fre&q. (Hz)
PTSPERDEC	QUANT	1.00000E+001	Points/&decade
VAC	QUANT	2.50000E+001	AC &Voltage (mV rms)
AREA	QUANT	1.00000E-002	&Area (cm^2)
CONDIT	TWOPARAM	T	5.00000E+000	0.00000E+000	Conditionin&g	Time(s)	E(V)
DELAY	TWOPARAM	T	5.00000E+000	0.00000E+000	Init. De&lay	Time(s)	Stab.(mV/s)
SPEED	SELECTOR	1	&Optimize for:
ZGUESS	QUANT	1.00000E+005	E&stimated Z (ohms)
OCVCURVE	TABLE	19
	Pt	T	Vf	Vm	Ach	Over
	#	s	V vs. Ref.	V	V	bits
	0	0.258333	6.85477E-004	6.85477E-004	5.42299E-004	...........
	1	0.516667	6.83360E-004	5.74656E-004	5.45033E-004	...........
	2	0.775	6.70350E-004	4.69081E-004	5.41366E-004	...........
	3	1.03333	6.34109E-004	3.99041E-004	5.41099E-004	...........
	4	1.29167	5.72146E-004	3.49363E-004	5.41866E-004	...........
	5	1.55	4.96326E-004	2.79075E-004	5.41299E-004	...........
	6	1.80833	4.20465E-004	2.07697E-004	5.38433E-004	...........
	7	2.06667	3.49799E-004	1.59956E-004	5.40166E-004	...........
	8	2.325	2.83873E-004	1.07753E-004	5.36466E-004	...........
	9	2.58333	2.22914E-004	8.26920E-005	5.41833E-004	...........
	10	2.84167	1.68939E-004	5.17895E-005	5.36899E-004	...........
	11	3.1	1.23077E-004	-3.84070E-006	5.42066E-004	...........
	12	3.35833	8.37941E-005	6.58547E-006	5.43399E-004	...........
	13	3.61667	4.90742E-005	-5.59609E-005	5.41233E-004	...........
	14	3.875	1.77090E-005	-6.96990E-005	5.37199E-004	...........
	15	4.13333	-1.09166E-005	-4.19781E-005	5.40033E-004	...........
	16	4.39167	-3.39564E-005	-4.57337E-005	5.39966E-004	...........
	17	4.65	-4.72394E-005	-6.47458E-005	5.45966E-004	...........
	18	4.90833	-5.21213E-005	-4.82847E-005	5.48466E-004	...........
EOC	QUANT	-5.212132E-005	Open Circuit (V)
PSTATMODEL	IQUANT	4	Pstat Model
PSTATSECTION	LABEL	REF600-11020	Pstat Section
PSTATSERIALNO	LABEL	11020	Pstat Serial Number
CTRLMODE	IQUANT	1	Control Mode
IESTAB	IQUANT	0	I/E Stability
CASPEED	IQUANT	1	Control Amp Speed
CONVENTION	IQUANT	1	Current Convention
ICHRANGE	IQUANT	2	Ich Range
ICHRANGEMODE	TOGGLE	F	Ich Auto Range
ICHOFFSETENABLE	TOGGLE	T	Ich Offset Enable
ICHOFFSET	QUANT	0	Ich Offset (V)
ICHFILTER	IQUANT	3	Ich Filter
VCHRANGE	IQUANT	2	Vch Range
VCHRANGEMODE	TOGGLE	F	Vch Auto Range
VCHOFFSETENABLE	TOGGLE	T	Vch Offset Enable
VCHOFFSET	QUANT	0	Vch Offset (V)
VCHFILTER	IQUANT	3	Vch Filter
ACHRANGE	IQUANT	2	Ach Range
ACHOFFSETENABLE	TOGGLE	F	Ach Offset Enable
ACHOFFSET	QUANT	0	Ach Offset (V)
ACHFILTER	IQUANT	3	Ach Filter
IERANGELOWERLIMIT	IQUANT	1	I/E Range Lower Limit
IERANGEMODE	TOGGLE	F	I/E AutoRange
IERANGE	IQUANT	2	I/E Range
POSFEEDENABLE	TOGGLE	F	Positive Feedback IR Comp
POSFEEDRESISTANCE	QUANT	0	Positive Feedback Resistance (ohm)
ACHSELECT	IQUANT	0	Ach Select
CABLEID	IQUANT	14	Cable ID
DCCALDATE	LABEL	8/19/2019	DC Calibration Date
ACCALDATE	LABEL	8/19/2019	AC Calibration Date
THERMOSELECT	IQUANT	1	Thermo Select
FRAMEWORKVERSION	QUANT	6.33	Framework Version
INSTRUMENTVERSION	LABEL	3.50	Instrument Version
ZCURVE	TABLE
	Pt	Time	Freq	Zreal	Zimag	Zsig	Zmod	Zphz	Idc	Vdc	IERange
	#	s	Hz	ohm	ohm	V	ohm	°	A	V	#
	0	2	1000078	2118.042	-9266.798	1	9505.77	-77.12549	3.695069E-006	0.0013772	8
	1	3	794390.6	2914.011	-11320.64	1	11689.67	-75.56503	2.328376E-006	0.0012172	8
	2	5	630984.4	4013.83	-13706.79	1	14282.4	-73.67811	1.967252E-006	0.001672	8
	3	7	501234.4	5567.028	-16648.38	1	17554.5	-71.51065	3.512093E-006	0.0010358	8
	4	9	398109.4	7349.243	-19840.15	1	21157.58	-69.67423	2.979439E-006	0.0009714	8
	5	11	316265.6	10293.31	-23235.81	1	25413.68	-66.10698	1.239076E-006	0.001312	8
	6	12	251203.1	13774.13	-27724.58	1	30957.7	-63.58089	-1.352542E-007	0.0017062	8
	7	14	199546.9	17047.7	-31305.14	1	35645.98	-61.42881	6.850974E-007	0.0013625	8
	8	15	158578.1	22178.31	-35429.92	1	41799	-57.95439	3.823342E-006	0.0008546	8
	9	17	125953.1	30427.93	-37419.77	1	48229.64	-50.88368	-4.062229E-007	0.0026639	7
	10	19	100078.1	36160.62	-41853.94	1	55311.32	-49.17391	-3.001604E-008	0.0015677	7
	11	20	79453.13	43408.77	-44685.11	1	62298.31	-45.83006	1.552482E-007	0.0013128	7
	12	22	63140.62	51317.49	-46832.63	1	69475.03	-42.38375	-2.901434E-008	0.0015571	7
	13	23	50203.12	58980.28	-48462.92	1	76336.94	-39.40926	-3.26697E-008	0.0015387	7
	14	25	39890.62	67120.03	-49848.93	1	83606.3	-36.60066	1.129977E-007	0.0014598	7
	15	27	31640.63	74850.55	-50517.57	1	90302.99	-34.0159	-5.205733E-008	0.0016361	7
	16	28	25171.88	82509.2	-51539.34	1	97283.5	-31.99094	6.906113E-008	0.0014311	7
	17	31	20015.62	88514.7	-54091.09	1	103733.8	-31.42899	1.022205E-007	0.0013209	7
	18	32	15890.62	96572.4	-53020.91	1	110170.1	-28.76799	-1.132748E-008	0.0015547	7
	19	34	12609.37	104749.7	-53848.02	1	117780	-27.20604	8.957078E-009	0.001274	6
	20	35	10078.13	111927.4	-56049.45	1	125177	-26.60016	5.116935E-009	0.0012289	6
	21	37	8015.625	121390.3	-61114.17	1	135906.3	-26.72306	-1.082592E-008	0.0015566	6
	22	39	6328.125	127378.1	-62126.09	1	141720.9	-25.99988	2.546329E-008	0.0011259	6
	23	40	5015.625	135909.6	-66028.59	1	151100	-25.91175	5.141554E-009	0.0012963	6
	24	42	3984.375	146148.9	-70370.49	1	162208.2	-25.71075	2.566096E-008	0.0011278	6
	25	43	3170.956	154983.6	-74946.3	1	172153.6	-25.80728	-6.962432E-009	0.0014697	6
	26	45	2527.573	165606.3	-80395.24	1	184089.3	-25.89471	5.066045E-009	0.001556	6
	27	46	1976.103	179155.4	-85504.13	1	198513.5	-25.51339	2.644166E-008	0.0011313	6
	28	48	1577.524	198655.6	-89444.45	1	217863.1	-24.2396	-6.804333E-009	0.0014716	6
	29	50	1265.625	207509	-93359.77	1	227543.5	-24.22331	1.323339E-009	0.0015241	5
	30	51	998.264	222657.1	-98858.6	1	243616.9	-23.94098	-7.957624E-010	0.0016905	5
	31	53	796.875	238384.5	-103361.1	1	259828.2	-23.44106	1.166575E-009	0.0013337	5
	32	54	627.7902	255651.6	-108160.9	1	277590.6	-22.9322	-1.065321E-009	0.001593	5
	33	55	505.5147	271482.9	-111713.7	1	293569.3	-22.3669	3.054786E-009	0.0011011	5
	34	57	397.9953	290287.5	-115148.8	1	312291.7	-21.63682	6.911364E-010	0.0015022	5
	35	58	315.5048	307646.7	-118525.4	1	329688.9	-21.06992	9.041443E-010	0.0015005	5
	36	59	252.4038	326079.1	-120786.8	1	347731.3	-20.32573	1.064334E-009	0.0015023	5
	37	61	198.6229	345235.6	-122549.3	1	366341.3	-19.54348	6.46643E-010	0.0015057	5
	38	62	158.3615	362984.2	-124172.5	1	383635.7	-18.88519	8.260968E-011	0.0015016	5
	39	64	125.558	382921.2	-126157.5	1	403167.9	-18.23502	4.536803E-010	0.0015038	5
	40	65	100.4464	400333.1	-127188.7	1	420051.8	-17.62543	5.267004E-010	0.0015022	5
	41	67	79.00281	424507.6	-133113.7	1	444888.7	-17.40996	3.150553E-010	0.0014975	5
	42	68	63.3446	455142	-165958.5	1	484454.8	-20.03338	5.877585E-010	0.0014938	5
	43	70	49.86702	456706.7	-140768	1	477908.6	-17.13056	5.539837E-010	0.0014896	5
	44	72	39.72458	477476.1	-141136.1	1	497898.4	-16.46703	3.961657E-010	0.0014916	5
	45	73	31.6723	488071.4	-144431.6	1	508993.3	-16.4847	8.449491E-010	0.0014904	5
	46	75	24.93351	514664.6	-146195.2	1	535025.9	-15.85769	3.762193E-010	0.001497	5
	47	76	19.86229	535108.7	-154067.7	1	556846.6	-16.06209	-1.06432E-010	0.0014912	5
	48	77	15.83615	557979.3	-163349.7	1	581398.3	-16.31751	-1.001422E-010	0.0014944	5
	49	79	12.40079	574784.1	-178222.1	1	601780.6	-17.22698	6.265517E-010	0.0014978	5
	50	80	9.93114	595466.9	-174435.2	1	620490.6	-16.32734	7.388981E-010	0.001489	6
	51	82	7.944915	611871.6	-193705.2	1	641801	-17.56665	1.840288E-009	0.0014909	6
	52	84	6.317385	642600.1	-201871.8	1	673563.1	-17.44003	8.114682E-010	0.0015005	6
	53	86	5.008013	667475.4	-217960.6	1	702161.1	-18.08418	1.129237E-009	0.0014987	6
	54	89	3.945707	697403.4	-237495.2	1	736733	-18.80586	7.043592E-010	0.001494	6
	55	92	3.158693	725819.3	-257546.7	1	770158.4	-19.53651	6.177919E-010	0.0014759	6
	56	96	2.504006	757304.2	-282522.5	1	808287.4	-20.45871	4.792495E-010	0.0015025	5
	57	99	1.998082	790174.7	-310979.6	1	849166.9	-21.48252	9.594616E-010	0.0014713	5
	58	102	1.584686	828290.1	-341695.8	1	896002.6	-22.41769	2.463751E-010	0.0014514	5
	59	106	1.266892	866757.4	-380916.7	1	946766.1	-23.7242	8.072536E-010	0.0014591	4
	60	110	0.999041	911830.2	-427216.3	1	1006950	-25.10432	1.702348E-011	0.0015048	4
