EXPLAIN
TAG	EISPOT
TITLE	LABEL	Potentiostatic EIS	Test &Identifier
DATE	LABEL	10/14/2019	Date
TIME	LABEL	11:34:09	Time
NOTES	NOTES	1	&Notes...
	
PSTAT	PSTAT	REF600-11020	Potentiostat
VDC	POTEN	0.00000E+000	T	DC &Voltage (V)
FREQINIT	QUANT	1.00000E+006	Initial Fre&q. (Hz)
FREQFINAL	QUANT	1.00000E+000	Final Fre&q. (Hz)
PTSPERDEC	QUANT	1.00000E+001	Points/&decade
VAC	QUANT	2.50000E+001	AC &Voltage (mV rms)
AREA	QUANT	1.00000E-002	&Area (cm^2)
CONDIT	TWOPARAM	T	5.00000E+000	0.00000E+000	Conditionin&g	Time(s)	E(V)
DELAY	TWOPARAM	T	5.00000E+000	0.00000E+000	Init. De&lay	Time(s)	Stab.(mV/s)
SPEED	SELECTOR	1	&Optimize for:
ZGUESS	QUANT	1.00000E+004	E&stimated Z (ohms)
OCVCURVE	TABLE	19
	Pt	T	Vf	Vm	Ach	Over
	#	s	V vs. Ref.	V	V	bits
	0	0.258333	5.03539E-003	5.03539E-003	5.49833E-004	...........
	1	0.516667	5.03349E-003	4.93607E-003	5.54633E-004	...........
	2	0.775	5.02211E-003	4.85610E-003	5.45833E-004	...........
	3	1.03333	4.99100E-003	4.78864E-003	5.46699E-004	...........
	4	1.29167	4.93804E-003	4.73445E-003	5.51366E-004	...........
	5	1.55	4.87256E-003	4.69206E-003	5.54233E-004	...........
	6	1.80833	4.80691E-003	4.65141E-003	5.54699E-004	...........
	7	2.06667	4.74866E-003	4.61814E-003	5.52399E-004	...........
	8	2.325	4.69969E-003	4.59196E-003	5.58099E-004	...........
	9	2.58333	4.65896E-003	4.56834E-003	5.58432E-004	...........
	10	2.84167	4.62497E-003	4.54626E-003	5.56766E-004	...........
	11	3.1	4.59632E-003	4.53028E-003	5.54066E-004	...........
	12	3.35833	4.57184E-003	4.51366E-003	5.50866E-004	...........
	13	3.61667	4.55082E-003	4.50451E-003	5.52199E-004	...........
	14	3.875	4.53275E-003	4.48163E-003	5.55899E-004	...........
	15	4.13333	4.51577E-003	4.42559E-003	5.54233E-004	...........
	16	4.39167	4.49625E-003	4.42646E-003	5.57732E-004	...........
	17	4.65	4.47286E-003	4.41756E-003	5.53333E-004	...........
	18	4.90833	4.44966E-003	4.40897E-003	5.54833E-004	...........
EOC	QUANT	0.0044497	Open Circuit (V)
PSTATMODEL	IQUANT	4	Pstat Model
PSTATSECTION	LABEL	REF600-11020	Pstat Section
PSTATSERIALNO	LABEL	11020	Pstat Serial Number
CTRLMODE	IQUANT	1	Control Mode
IESTAB	IQUANT	0	I/E Stability
CASPEED	IQUANT	1	Control Amp Speed
CONVENTION	IQUANT	1	Current Convention
ICHRANGE	IQUANT	2	Ich Range
ICHRANGEMODE	TOGGLE	F	Ich Auto Range
ICHOFFSETENABLE	TOGGLE	T	Ich Offset Enable
ICHOFFSET	QUANT	0	Ich Offset (V)
ICHFILTER	IQUANT	3	Ich Filter
VCHRANGE	IQUANT	2	Vch Range
VCHRANGEMODE	TOGGLE	F	Vch Auto Range
VCHOFFSETENABLE	TOGGLE	T	Vch Offset Enable
VCHOFFSET	QUANT	0	Vch Offset (V)
VCHFILTER	IQUANT	3	Vch Filter
ACHRANGE	IQUANT	2	Ach Range
ACHOFFSETENABLE	TOGGLE	F	Ach Offset Enable
ACHOFFSET	QUANT	0	Ach Offset (V)
ACHFILTER	IQUANT	3	Ach Filter
IERANGELOWERLIMIT	IQUANT	1	I/E Range Lower Limit
IERANGEMODE	TOGGLE	F	I/E AutoRange
IERANGE	IQUANT	5	I/E Range
POSFEEDENABLE	TOGGLE	F	Positive Feedback IR Comp
POSFEEDRESISTANCE	QUANT	0	Positive Feedback Resistance (ohm)
ACHSELECT	IQUANT	0	Ach Select
CABLEID	IQUANT	14	Cable ID
DCCALDATE	LABEL	8/19/2019	DC Calibration Date
ACCALDATE	LABEL	8/19/2019	AC Calibration Date
THERMOSELECT	IQUANT	1	Thermo Select
FRAMEWORKVERSION	QUANT	6.33	Framework Version
INSTRUMENTVERSION	LABEL	3.50	Instrument Version
ZCURVE	TABLE
	Pt	Time	Freq	Zreal	Zimag	Zsig	Zmod	Zphz	Idc	Vdc	IERange
	#	s	Hz	ohm	ohm	V	ohm	°	A	V	#
	0	1	1000078	2435.89	-1152.864	1	2694.931	-25.32736	-1.076588E-007	0.0068011	8
	1	3	794390.6	2627.229	-1042.53	1	2826.517	-21.64403	-9.171596E-007	0.0068255	8
	2	4	630984.4	2777.3	-930.1683	1	2928.927	-18.51663	-3.346887E-006	0.0070006	8
	3	5	501234.4	2903.428	-811.6278	1	3014.737	-15.61787	-3.305333E-007	0.0064103	8
	4	7	398109.4	3000.243	-705.8187	1	3082.148	-13.23833	5.027861E-006	0.0050546	8
	5	8	316265.6	3068.573	-620.2997	1	3130.641	-11.42811	5.30669E-008	0.0061529	8
	6	9	251203.1	3130.119	-548.0944	1	3177.744	-9.93199	-6.611821E-007	0.0059969	8
	7	11	199546.9	3173.415	-493.3722	1	3211.538	-8.837052	-6.344019E-007	0.00599	8
	8	12	158578.1	3213.169	-447.6445	1	3244.201	-7.931146	-1.720969E-006	0.0064137	8
	9	13	125953.1	3257.458	-383.0091	1	3279.897	-6.705998	1.21049E-006	0.0037507	7
	10	15	100078.1	3299.802	-360.4545	1	3319.43	-6.233999	1.102728E-008	0.0060178	7
	11	16	79453.13	3334.179	-357.647	1	3353.306	-6.12253	-1.552788E-008	0.0061009	7
	12	17	63140.62	3372.406	-358.5534	1	3391.413	-6.068874	-1.449182E-008	0.0060515	7
	13	19	50203.12	3410.926	-364.0454	1	3430.298	-6.092072	4.394581E-008	0.0059166	7
	14	20	39890.62	3451.82	-373.2424	1	3471.941	-6.171367	-1.755474E-008	0.0060219	7
	15	22	31640.63	3491.773	-389.5739	1	3513.438	-6.36611	-3.290297E-009	0.0059933	7
	16	23	25171.88	3534.503	-410.3241	1	3558.241	-6.621883	-3.64909E-010	0.0059834	7
	17	24	20015.62	3578.432	-434.9707	1	3604.771	-6.930499	8.397002E-008	0.0059677	7
	18	26	15890.62	3624.472	-470.4096	1	3654.871	-7.394915	2.626104E-009	0.0061316	7
	19	27	12609.37	3671.145	-512.9871	1	3706.813	-7.954712	1.221651E-008	0.0060053	7
	20	28	10078.13	3717.708	-565.1368	1	3760.417	-8.643482	1.326818E-008	0.0059745	7
	21	30	8015.625	3770.193	-634.082	1	3823.142	-9.54683	1.133146E-007	0.0058658	7
	22	31	6328.125	3821.802	-714.491	1	3888.016	-10.58928	1.381517E-008	0.0059691	7
	23	32	5015.625	3877.484	-817.2081	1	3962.665	-11.90133	-7.078545E-008	0.0061206	7
	24	34	3984.375	3931.299	-940.1974	1	4042.163	-13.45005	1.22469E-007	0.0058646	7
	25	35	3170.956	3999.251	-1093.311	1	4146.003	-15.28986	8.136188E-008	0.0059684	7
	26	37	2527.573	4065.098	-1279.835	1	4261.807	-17.47582	-2.744047E-008	0.0060259	7
	27	38	1976.103	4141.058	-1532.405	1	4415.499	-20.30707	4.461625E-008	0.0059062	7
	28	39	1577.524	4214.273	-1807.461	1	4585.522	-23.21402	-1.43512E-008	0.0060371	7
	29	41	1265.625	4303.071	-2164.012	1	4816.572	-26.6978	-1.466998E-008	0.0060347	7
	30	42	998.264	4405.448	-2626.7	1	5129.086	-30.80505	1.144905E-007	0.005863	7
	31	43	796.875	4524.408	-3168.414	1	5523.506	-35.00331	-1.701562E-008	0.0060105	7
	32	45	627.7902	4670.805	-3876.409	1	6069.84	-39.69006	-1.294006E-008	0.0060931	7
	33	46	505.5147	4829.811	-4670.171	1	6718.45	-44.03728	3.583391E-008	0.0059963	7
	34	48	397.9953	5052.093	-5752.067	1	7655.712	-48.70687	4.345593E-009	0.0060431	7
	35	49	315.5048	5320.51	-7045.944	1	8829.108	-52.94294	4.822621E-009	0.0060434	7
	36	50	252.4038	5647.64	-8569.181	1	10262.88	-56.61255	4.546128E-010	0.0059878	6
	37	52	198.6229	6093.332	-10577.6	1	12207.14	-60.05548	6.656024E-010	0.0059846	6
	38	53	158.3615	6635.995	-12905.71	1	14511.85	-62.7882	6.749963E-010	0.0059809	6
	39	54	125.558	7360.808	-15817.15	1	17446.02	-65.0442	9.32706E-010	0.0059812	6
	40	56	100.4464	8265.896	-19199.34	1	20903.11	-66.70667	1.466818E-009	0.0059781	6
	41	57	79.00281	9524.03	-23632.23	1	25479.2	-68.05006	4.69681E-010	0.0059795	6
	42	58	63.3446	10987.42	-28712.5	1	30742.98	-69.05965	2.141667E-010	0.0059789	6
	43	60	49.86702	13318.01	-34853.2	1	37311.05	-69.08727	1.064667E-009	0.0059801	6
	44	61	39.72458	16156.89	-42254.62	1	45238.23	-69.07465	1.285398E-009	0.005982	6
	45	63	31.6723	19748.04	-50903.82	1	54600.22	-68.79633	1.593585E-009	0.0059794	6
	46	64	24.93351	24890.24	-61387.85	1	66241.92	-67.92947	6.267202E-010	0.0059751	6
	47	65	19.86229	31113.29	-72904.09	1	79265.64	-66.88866	-1.079267E-010	0.0059803	6
	48	67	15.83615	38446.84	-86010.64	1	94212.47	-65.91531	1.549787E-009	0.0059747	6
	49	68	12.40079	49776.44	-101581.7	1	113121.8	-63.8945	-5.081483E-010	0.0059742	5
	50	70	9.93114	61379.92	-117348.9	1	132432.1	-62.38797	6.692741E-010	0.0059687	5
	51	71	7.944915	75083.17	-134352.5	1	153909.4	-60.80128	-3.764671E-010	0.005975	5
	52	73	6.317385	90629.85	-153172.9	1	177976.7	-59.3879	3.070584E-010	0.0059639	5
	53	75	5.008013	108428.5	-174806.8	1	205704	-58.18967	1.709463E-010	0.0059779	5
	54	77	3.945707	127433.5	-198697.5	1	236050.8	-57.32615	-1.052491E-010	0.0059738	5
	55	80	3.158693	146703.2	-225148.3	1	268725.8	-56.91234	3.465828E-010	0.0059888	5
	56	83	2.504006	167975.3	-257539.5	1	307477.3	-56.88636	-2.348968E-010	0.0059863	5
	57	86	1.998082	189878.5	-294678	1	350555.2	-57.20391	1.005726E-010	0.0059401	5
	58	89	1.584686	213880.6	-341093.5	1	402603.6	-57.91048	1.590716E-012	0.0059901	5
	59	93	1.266892	241026.6	-396260.8	1	463806.5	-58.68984	1.925663E-011	0.0059448	5
	60	97	0.999041	274104.5	-466174.7	1	540788.4	-59.54504	1.848263E-010	0.0060235	5
