EXPLAIN
TAG	EISPOT
TITLE	LABEL	Potentiostatic EIS	Test &Identifier
DATE	LABEL	10/6/2019	Date
TIME	LABEL	10:01:04	Time
NOTES	NOTES	2	&Notes...
	
	
PSTAT	PSTAT	REF600-11020	Potentiostat
VDC	POTEN	0.00000E+000	T	DC &Voltage (V)
FREQINIT	QUANT	1.00000E+006	Initial Fre&q. (Hz)
FREQFINAL	QUANT	1.00000E+000	Final Fre&q. (Hz)
PTSPERDEC	QUANT	1.00000E+001	Points/&decade
VAC	QUANT	2.50000E+001	AC &Voltage (mV rms)
AREA	QUANT	1.00000E-002	&Area (cm^2)
CONDIT	TWOPARAM	T	5.00000E+000	0.00000E+000	Conditionin&g	Time(s)	E(V)
DELAY	TWOPARAM	T	5.00000E+000	0.00000E+000	Init. De&lay	Time(s)	Stab.(mV/s)
SPEED	SELECTOR	1	&Optimize for:
ZGUESS	QUANT	1.00000E+004	E&stimated Z (ohms)
OCVCURVE	TABLE	19
	Pt	T	Vf	Vm	Ach	Over
	#	s	V vs. Ref.	V	V	bits
	0	0.258333	4.64639E-003	4.64639E-003	5.43766E-004	...........
	1	0.516667	4.64351E-003	4.49565E-003	5.45799E-004	...........
	2	0.775	4.62931E-003	4.53494E-003	5.39833E-004	...........
	3	1.03333	4.60251E-003	4.66738E-003	5.41666E-004	...........
	4	1.29167	4.58588E-003	4.84854E-003	5.37533E-004	...........
	5	1.55	4.60609E-003	4.62976E-003	5.35233E-004	...........
	6	1.80833	4.64463E-003	4.26887E-003	5.37999E-004	...........
	7	2.06667	4.63825E-003	4.24279E-003	5.36133E-004	...........
	8	2.325	4.55386E-003	4.29988E-003	5.36933E-004	...........
	9	2.58333	4.43092E-003	4.16919E-003	5.35999E-004	...........
	10	2.84167	4.32463E-003	4.14181E-003	5.39933E-004	...........
	11	3.1	4.24916E-003	4.08816E-003	5.38666E-004	...........
	12	3.35833	4.19140E-003	4.02874E-003	5.39799E-004	...........
	13	3.61667	4.13931E-003	3.97104E-003	5.43866E-004	...........
	14	3.875	4.08497E-003	3.80962E-003	5.43033E-004	...........
	15	4.13333	4.02113E-003	3.81042E-003	5.35966E-004	...........
	16	4.39167	3.94811E-003	3.78684E-003	5.38899E-004	...........
	17	4.65	3.87892E-003	3.77640E-003	5.43766E-004	...........
	18	4.90833	3.82487E-003	3.63971E-003	5.45966E-004	...........
EOC	QUANT	0.0038249	Open Circuit (V)
PSTATMODEL	IQUANT	4	Pstat Model
PSTATSECTION	LABEL	REF600-11020	Pstat Section
PSTATSERIALNO	LABEL	11020	Pstat Serial Number
CTRLMODE	IQUANT	1	Control Mode
IESTAB	IQUANT	0	I/E Stability
CASPEED	IQUANT	1	Control Amp Speed
CONVENTION	IQUANT	1	Current Convention
ICHRANGE	IQUANT	2	Ich Range
ICHRANGEMODE	TOGGLE	F	Ich Auto Range
ICHOFFSETENABLE	TOGGLE	T	Ich Offset Enable
ICHOFFSET	QUANT	0	Ich Offset (V)
ICHFILTER	IQUANT	3	Ich Filter
VCHRANGE	IQUANT	2	Vch Range
VCHRANGEMODE	TOGGLE	F	Vch Auto Range
VCHOFFSETENABLE	TOGGLE	T	Vch Offset Enable
VCHOFFSET	QUANT	0	Vch Offset (V)
VCHFILTER	IQUANT	3	Vch Filter
ACHRANGE	IQUANT	2	Ach Range
ACHOFFSETENABLE	TOGGLE	F	Ach Offset Enable
ACHOFFSET	QUANT	0	Ach Offset (V)
ACHFILTER	IQUANT	3	Ach Filter
IERANGELOWERLIMIT	IQUANT	1	I/E Range Lower Limit
IERANGEMODE	TOGGLE	F	I/E AutoRange
IERANGE	IQUANT	5	I/E Range
POSFEEDENABLE	TOGGLE	F	Positive Feedback IR Comp
POSFEEDRESISTANCE	QUANT	0	Positive Feedback Resistance (ohm)
ACHSELECT	IQUANT	0	Ach Select
CABLEID	IQUANT	14	Cable ID
DCCALDATE	LABEL	8/19/2019	DC Calibration Date
ACCALDATE	LABEL	8/19/2019	AC Calibration Date
THERMOSELECT	IQUANT	1	Thermo Select
FRAMEWORKVERSION	QUANT	6.33	Framework Version
INSTRUMENTVERSION	LABEL	3.50	Instrument Version
ZCURVE	TABLE
	Pt	Time	Freq	Zreal	Zimag	Zsig	Zmod	Zphz	Idc	Vdc	IERange
	#	s	Hz	ohm	ohm	V	ohm	°	A	V	#
	0	2	1000078	2463.685	-1840.944	1	3075.52	-36.76825	1.403805E-006	0.0060397	8
	1	3	794390.6	2849.13	-1772.313	1	3355.389	-31.88384	-2.13335E-006	0.0059385	8
	2	5	630984.4	3173.418	-1638.984	1	3571.674	-27.31512	-4.26354E-007	0.0058698	8
	3	6	501234.4	3462.665	-1479.143	1	3765.356	-23.13067	-2.926244E-006	0.006053	8
	4	7	398109.4	3677.27	-1313.271	1	3904.74	-19.65328	-2.993342E-006	0.006015	8
	5	9	316265.6	3848.697	-1162.126	1	4020.324	-16.80186	4.489632E-007	0.0052346	8
	6	10	251203.1	3969.957	-979.035	1	4088.896	-13.85334	7.676024E-007	0.0052905	8
	7	12	199546.9	4058.759	-852.8813	1	4147.4	-11.86711	3.61524E-006	0.004655	8
	8	13	158578.1	4130.045	-728.0079	1	4193.717	-9.9969	-3.698907E-006	0.0059727	8
	9	15	125953.1	4198.329	-618.3415	1	4243.62	-8.378445	-7.646303E-007	0.0069892	7
	10	16	100078.1	4260.556	-549.3988	1	4295.833	-7.347744	-4.648681E-008	0.0053523	7
	11	17	79453.13	4303.212	-516.8519	1	4334.14	-6.848895	6.242487E-008	0.0051918	7
	12	19	63140.62	4343.989	-497.5277	1	4372.388	-6.533756	-6.833979E-008	0.0055015	7
	13	20	50203.12	4385.688	-490.3016	1	4413.01	-6.378941	-6.757877E-008	0.0055009	7
	14	21	39890.62	4428.014	-495.5819	1	4455.66	-6.385951	-4.145955E-008	0.0053864	7
	15	23	31640.63	4472.867	-513.2532	1	4502.218	-6.545954	-4.629772E-008	0.0053389	7
	16	24	25171.88	4520.664	-540.782	1	4552.895	-6.821561	9.657643E-008	0.0052129	7
	17	26	20015.62	4571.757	-579.2217	1	4608.303	-7.220655	-3.925145E-008	0.0053883	7
	18	27	15890.62	4627.555	-633.366	1	4670.697	-7.793557	3.896077E-008	0.0051634	7
	19	28	12609.37	4688.713	-700.5738	1	4740.763	-8.498098	-6.622857E-008	0.0054001	7
	20	30	10078.13	4753.438	-778.209	1	4816.719	-9.297696	3.985309E-008	0.0051561	7
	21	31	8015.625	4823.876	-875.6517	1	4902.708	-10.28856	-4.023216E-009	0.0053284	7
	22	32	6328.125	4904.871	-994.218	1	5004.621	-11.45861	-4.921765E-009	0.0053298	7
	23	34	5015.625	4990.525	-1137.912	1	5118.612	-12.84467	-8.183168E-009	0.005301	7
	24	35	3984.375	5077.01	-1312.885	1	5244.016	-14.49874	8.364499E-008	0.0051166	7
	25	36	3170.956	5183.087	-1514.387	1	5399.792	-16.28723	-6.581601E-008	0.0054012	7
	26	38	2527.573	5289.846	-1763.186	1	5575.957	-18.43402	-6.54347E-008	0.0054938	7
	27	39	1976.103	5421.068	-2090.315	1	5810.111	-21.08619	3.926301E-009	0.0052207	7
	28	41	1577.524	5551.431	-2457.133	1	6070.905	-23.87478	-1.91487E-008	0.0052561	7
	29	42	1265.625	5700.001	-2898.032	1	6394.42	-26.94999	-2.797197E-008	0.0053421	7
	30	43	998.264	5879.291	-3466.462	1	6825.131	-30.52383	-3.414608E-008	0.0052882	7
	31	45	796.875	6078.717	-4127.28	1	7347.465	-34.17541	8.379183E-008	0.0051063	7
	32	46	627.7902	6309.234	-4974.236	1	8034.268	-38.25245	8.431955E-008	0.0051068	7
	33	47	505.5147	6552.302	-5943.529	1	8846.366	-42.21087	1.610186E-008	0.0053773	7
	34	49	397.9953	6877.101	-7213.047	1	9966.07	-46.36583	1.183026E-009	0.0052458	6
	35	50	315.5048	7232.052	-8746.273	1	11349	-50.41359	1.77843E-009	0.0052448	6
	36	52	252.4038	7633.909	-10553.99	1	13025.49	-54.12105	3.724176E-010	0.0052395	6
	37	53	198.6229	8152.541	-12945.91	1	15299.03	-57.79979	4.576E-010	0.0052403	6
	38	54	158.3615	8755.412	-15737.38	1	18008.96	-60.91085	3.899007E-010	0.005241	6
	39	56	125.558	9525.92	-19249.1	1	21477.22	-63.67028	7.455153E-010	0.0052407	6
	40	57	100.4464	10463.66	-23396.02	1	25629.31	-65.90385	1.359196E-009	0.0052382	6
	41	58	79.00281	11737.93	-28870.6	1	31165.54	-67.87479	1.364837E-009	0.0052385	6
	42	60	63.3446	13043.39	-34982.44	1	37334.99	-69.55176	3.569997E-010	0.0052357	6
	43	61	49.86702	15613.28	-42866.14	1	45621.05	-69.98668	1.188426E-010	0.0052384	6
	44	63	39.72458	18216.71	-52251.18	1	55335.66	-70.77954	7.488079E-010	0.0052376	6
	45	64	31.6723	21577.37	-63480.48	1	67047.41	-71.22681	1.488436E-009	0.0052368	6
	46	65	24.93351	26607.27	-77530.2	1	81968.77	-71.05851	9.557717E-010	0.0052329	6
	47	67	19.86229	32568.47	-93587.55	1	99092.6	-70.8121	7.183508E-010	0.0052473	6
	48	68	15.83615	40884.91	-113038.9	1	120205.5	-70.1155	-8.572387E-010	0.005243	5
	49	70	12.40079	51988.57	-135812.2	1	145422.7	-69.05328	1.463117E-009	0.0052417	5
	50	71	9.93114	63708.91	-161405.9	1	173524.3	-68.46024	-7.838504E-011	0.0052489	5
	51	73	7.944915	79807.52	-190564.6	1	206601.3	-67.2763	9.59927E-010	0.0052462	5
	52	74	6.317385	100066.5	-225534	1	246736.5	-66.07378	1.916584E-010	0.005259	5
	53	76	5.008013	125790.9	-265058.1	1	293392.5	-64.61198	3.557447E-010	0.0052393	5
	54	79	3.945707	158159.3	-310373.8	1	348347.9	-62.99767	5.95181E-010	0.0052458	5
	55	82	3.158693	194989.1	-357778.9	1	407463.5	-61.40966	-5.306144E-011	0.0052317	5
	56	85	2.504006	240346.5	-411179.1	1	476271.7	-59.69243	6.10822E-010	0.0052388	5
	57	88	1.998082	291306	-466791.4	1	550230.3	-58.03335	2.029293E-010	0.0052808	5
	58	91	1.584686	349188.1	-528766.4	1	633661	-56.55993	3.512933E-010	0.0052475	5
	59	94	1.266892	414077.6	-593902.8	1	724003.3	-55.11523	1.952091E-010	0.005277	5
	60	99	0.999041	487594.6	-667303.7	1	826464	-53.84464	9.812697E-011	0.0051916	5
