EXPLAIN
TAG	EISPOT
TITLE	LABEL	Potentiostatic EIS	Test &Identifier
DATE	LABEL	10/31/2019	Date
TIME	LABEL	23:54:38	Time
NOTES	NOTES	1	&Notes...
	
PSTAT	PSTAT	REF600-11020	Potentiostat
VDC	POTEN	0.00000E+000	T	DC &Voltage (V)
FREQINIT	QUANT	1.00000E+006	Initial Fre&q. (Hz)
FREQFINAL	QUANT	1.00000E+000	Final Fre&q. (Hz)
PTSPERDEC	QUANT	1.00000E+001	Points/&decade
VAC	QUANT	2.50000E+001	AC &Voltage (mV rms)
AREA	QUANT	1.00000E-002	&Area (cm^2)
CONDIT	TWOPARAM	T	5.00000E+000	0.00000E+000	Conditionin&g	Time(s)	E(V)
DELAY	TWOPARAM	T	5.00000E+000	0.00000E+000	Init. De&lay	Time(s)	Stab.(mV/s)
SPEED	SELECTOR	0	&Optimize for:
ZGUESS	QUANT	1.00000E+005	E&stimated Z (ohms)
OCVCURVE	TABLE	19
	Pt	T	Vf	Vm	Ach	Over
	#	s	V vs. Ref.	V	V	bits
	0	0.258333	8.20499E-003	8.20499E-003	5.24166E-004	...........
	1	0.516667	8.19787E-003	7.83255E-003	5.16900E-004	...........
	2	0.775	8.22875E-003	1.13827E-002	5.13367E-004	...........
	3	1.03333	8.48210E-003	1.05075E-002	5.16400E-004	...........
	4	1.29167	9.07660E-003	1.06224E-002	5.16300E-004	...........
	5	1.55	9.79258E-003	1.03257E-002	5.11567E-004	...........
	6	1.80833	1.02941E-002	1.03568E-002	5.14733E-004	...........
	7	2.06667	1.04691E-002	9.54555E-003	5.15933E-004	...........
	8	2.325	1.03864E-002	9.61741E-003	5.21266E-004	...........
	9	2.58333	1.01638E-002	1.00317E-002	5.17266E-004	...........
	10	2.84167	9.94346E-003	9.64740E-003	5.15400E-004	...........
	11	3.1	9.83032E-003	1.04081E-002	5.13900E-004	...........
	12	3.35833	9.84802E-003	1.03656E-002	5.20100E-004	...........
	13	3.61667	9.96940E-003	1.02634E-002	5.09067E-004	...........
	14	3.875	1.01234E-002	1.01516E-002	5.08933E-004	...........
	15	4.13333	1.02246E-002	1.01684E-002	5.16333E-004	...........
	16	4.39167	1.02448E-002	1.01195E-002	5.18366E-004	...........
	17	4.65	1.02148E-002	1.01115E-002	5.15900E-004	...........
	18	4.90833	1.01738E-002	1.01269E-002	5.20533E-004	...........
EOC	QUANT	0.0101738	Open Circuit (V)
PSTATMODEL	IQUANT	4	Pstat Model
PSTATSECTION	LABEL	REF600-11020	Pstat Section
PSTATSERIALNO	LABEL	11020	Pstat Serial Number
CTRLMODE	IQUANT	1	Control Mode
IESTAB	IQUANT	0	I/E Stability
CASPEED	IQUANT	1	Control Amp Speed
CONVENTION	IQUANT	1	Current Convention
ICHRANGE	IQUANT	2	Ich Range
ICHRANGEMODE	TOGGLE	F	Ich Auto Range
ICHOFFSETENABLE	TOGGLE	T	Ich Offset Enable
ICHOFFSET	QUANT	0	Ich Offset (V)
ICHFILTER	IQUANT	3	Ich Filter
VCHRANGE	IQUANT	2	Vch Range
VCHRANGEMODE	TOGGLE	F	Vch Auto Range
VCHOFFSETENABLE	TOGGLE	T	Vch Offset Enable
VCHOFFSET	QUANT	0	Vch Offset (V)
VCHFILTER	IQUANT	3	Vch Filter
ACHRANGE	IQUANT	2	Ach Range
ACHOFFSETENABLE	TOGGLE	F	Ach Offset Enable
ACHOFFSET	QUANT	0	Ach Offset (V)
ACHFILTER	IQUANT	3	Ach Filter
IERANGELOWERLIMIT	IQUANT	1	I/E Range Lower Limit
IERANGEMODE	TOGGLE	F	I/E AutoRange
IERANGE	IQUANT	5	I/E Range
POSFEEDENABLE	TOGGLE	F	Positive Feedback IR Comp
POSFEEDRESISTANCE	QUANT	0	Positive Feedback Resistance (ohm)
ACHSELECT	IQUANT	0	Ach Select
CABLEID	IQUANT	14	Cable ID
DCCALDATE	LABEL	8/19/2019	DC Calibration Date
ACCALDATE	LABEL	8/19/2019	AC Calibration Date
THERMOSELECT	IQUANT	1	Thermo Select
FRAMEWORKVERSION	QUANT	6.33	Framework Version
INSTRUMENTVERSION	LABEL	3.50	Instrument Version
ZCURVE	TABLE
	Pt	Time	Freq	Zreal	Zimag	Zsig	Zmod	Zphz	Idc	Vdc	IERange
	#	s	Hz	ohm	ohm	V	ohm	°	A	V	#
	0	1	1000078	2204.749	-1102.362	1	2464.979	-26.56479	-3.966058E-006	0.0133108	8
	1	1	794390.6	2397.89	-1002.864	1	2599.156	-22.69604	1.911062E-007	0.0128473	8
	2	2	630984.4	2558.48	-888.2425	1	2708.282	-19.14577	9.320639E-006	0.0110445	8
	3	2	501234.4	2681.688	-772.1348	1	2790.635	-16.06262	-7.112122E-006	0.0123827	8
	4	2	398109.4	2776.516	-669.03	1	2855.984	-13.54774	7.833916E-006	0.0105575	8
	5	3	316265.6	2840.789	-574.5741	1	2898.313	-11.43431	1.713689E-006	0.0121612	8
	6	3	251203.1	2901.877	-492.7725	1	2943.419	-9.63756	-3.94672E-007	0.0115205	8
	7	3	199546.9	2936.158	-433.4176	1	2967.975	-8.397012	8.39057E-007	0.0122365	8
	8	3	158578.1	2977.134	-387.4785	1	3002.243	-7.41545	-3.179384E-007	0.0115166	8
	9	4	125953.1	3020.063	-301.5913	1	3035.084	-5.702799	-9.859716E-007	0.0127326	7
	10	4	100078.1	3039.056	-277.5622	1	3051.705	-5.218444	1.18795E-006	0.0105567	7
	11	4	79453.13	3058.167	-270.6646	1	3070.122	-5.057813	6.986028E-008	0.0128167	7
	12	5	63140.62	3079.95	-271.999	1	3091.937	-5.046858	6.576201E-007	0.0120016	7
	13	5	50203.12	3104.392	-277.5855	1	3116.777	-5.10963	1.091206E-006	0.0110191	7
	14	5	39890.62	3128.509	-290.1154	1	3141.931	-5.298046	1.174008E-006	0.0101997	7
	15	6	31640.63	3151.176	-306.92	1	3166.087	-5.56298	-1.132099E-006	0.0123209	7
	16	6	25171.88	3179.026	-334.8089	1	3196.608	-6.012118	6.583077E-007	0.0120019	7
	17	6	20015.62	3204.61	-372.0818	1	3226.139	-6.622859	-3.179817E-007	0.0108183	7
	18	7	15890.62	3234.015	-412.5831	1	3260.227	-7.2703	-1.207997E-006	0.013539	7
	19	7	12609.37	3269.143	-467.7557	1	3302.437	-8.142731	-3.179957E-007	0.0108223	7
	20	7	10078.13	3302.638	-534.486	1	3345.608	-9.19282	6.640631E-007	0.012	7
	21	8	8015.625	3335.409	-618.5346	1	3392.276	-10.50587	-1.358347E-006	0.0133703	7
	22	8	6328.125	3376.191	-725.4781	1	3453.257	-12.12735	-3.296036E-007	0.0132662	7
	23	8	5015.625	3422.397	-856.6556	1	3527.983	-14.05289	4.2792E-007	0.0123438	7
	24	9	3984.375	3470.066	-1017.274	1	3616.104	-16.33886	1.194551E-006	0.0101747	7
	25	9	3170.956	3522.225	-1214.263	1	3725.655	-19.02128	1.433281E-007	0.010261	7
	26	9	2527.573	3581.732	-1450.086	1	3864.137	-22.04086	-1.355167E-006	0.0133665	7
	27	10	1976.103	3656.75	-1771.102	1	4063.081	-25.84266	-1.138533E-006	0.0123182	7
	28	10	1577.524	3746.478	-2144.884	1	4317.016	-29.79143	-1.33528E-006	0.0129463	7
	29	10	1265.625	3823.671	-2567.793	1	4605.868	-33.8834	-1.141963E-006	0.0123192	7
	30	10	998.264	3939.124	-3147.571	1	5042.212	-38.62673	7.128844E-008	0.0128241	7
	31	11	796.875	4067.844	-3824.82	1	5583.601	-43.23636	-3.306552E-007	0.0132639	7
	32	11	627.7902	4225.211	-4722.749	1	6336.936	-48.18257	8.664645E-007	0.0098154	7
	33	11	505.5147	4416.028	-5702.597	1	7212.553	-52.24619	-3.304208E-007	0.0132682	7
	34	12	397.9953	4665.352	-7057.811	1	8460.39	-56.53451	-1.087444E-009	0.0117915	7
	35	12	315.5048	4976.17	-8679.983	1	10005.22	-60.17467	5.184404E-010	0.0117939	7
	36	13	252.4038	5362.681	-10589.77	1	11870.2	-63.14226	-1.553919E-010	0.0117334	6
	37	13	198.6229	5894.774	-13114.35	1	14378.26	-65.79654	3.511507E-010	0.0117365	6
	38	13	158.3615	6554.252	-16043	1	17330.21	-67.77789	1.1641E-009	0.0117193	6
	39	13	125.558	7448.962	-19704.36	1	21065.34	-69.29159	8.385876E-010	0.0117229	6
	40	14	100.4464	8603.126	-23998.28	1	25493.74	-70.27779	-9.176588E-010	0.0117311	6
	41	14	79.00281	10148.67	-29591.96	1	31283.86	-71.07041	-3.848707E-010	0.0117149	6
	42	14	63.3446	12342.55	-35368.77	1	37460.49	-70.76267	9.133964E-011	0.0117253	6
	43	15	49.86702	15186.77	-43436.5	1	46014.86	-70.72877	4.618564E-010	0.0117233	6
	44	15	39.72458	18542.79	-52706.85	1	55873.49	-70.61762	4.290394E-010	0.0117224	6
	45	16	31.6723	23076.71	-63377.3	1	67447.88	-69.99261	6.07521E-010	0.0117178	6
	46	16	24.93351	29538.4	-76362.22	1	81876.16	-68.85255	-1.570876E-010	0.0117206	6
	47	16	19.86229	37279.48	-90574.4	1	97946.3	-67.62844	3.092052E-011	0.0117191	6
	48	16	15.83615	46432.43	-106516.3	1	116196.8	-66.44672	-2.500654E-010	0.0117274	5
	49	17	12.40079	59745	-127265.3	1	140591.3	-64.85217	2.549231E-010	0.0117205	5
	50	17	9.93114	73449.22	-146123.6	1	163544.8	-63.31356	-6.560629E-010	0.0117259	5
	51	18	7.944915	90505.72	-167939	1	190774.2	-61.67888	-7.828568E-010	0.0117258	5
	52	18	6.317385	110086.9	-192800.2	1	222015.8	-60.27408	-6.405543E-010	0.0117408	5
	53	19	5.008013	133250.5	-220559	1	257685.7	-58.86177	-3.147868E-010	0.0117143	5
	54	20	3.945707	158123	-253516.5	1	298786.8	-58.04743	-9.282371E-011	0.011711	5
	55	22	3.158693	185577.1	-284964.8	1	340064.4	-56.92669	-5.394125E-011	0.0117379	5
	56	23	2.504006	221325.3	-327306.6	1	395113.3	-55.93337	-5.404384E-010	0.0117247	5
	57	25	1.998082	248938.4	-369457.7	1	445498.9	-56.02814	-1.317801E-010	0.0117019	5
	58	26	1.584686	284390.2	-423637	1	510241.3	-56.12629	3.021403E-010	0.0117496	5
	59	28	1.266892	320315	-486656	1	582611.2	-56.64725	4.847962E-011	0.0117594	5
	60	31	0.999041	369393.7	-556113.9	1	667618.4	-56.40625	-1.712534E-010	0.0117498	5
