EXPLAIN
TAG	EISPOT
TITLE	LABEL	Potentiostatic EIS	Test &Identifier
DATE	LABEL	8/16/2017	Date
TIME	LABEL	16:29:14	Time
NOTES	NOTES	1	&Notes...
	
PSTAT	PSTAT	REF600-11020	Potentiostat
VDC	POTEN	0.00000E+000	T	DC &Voltage (V)
FREQINIT	QUANT	1.00000E+006	Initial Fre&q. (Hz)
FREQFINAL	QUANT	1.00000E+000	Final Fre&q. (Hz)
PTSPERDEC	QUANT	1.00000E+001	Points/&decade
VAC	QUANT	2.50000E+001	AC &Voltage (mV rms)
AREA	QUANT	1.00000E-002	&Area (cm^2)
CONDIT	TWOPARAM	T	5.00000E+000	0.00000E+000	Conditionin&g	Time(s)	E(V)
DELAY	TWOPARAM	T	5.00000E+000	0.00000E+000	Init. De&lay	Time(s)	Stab.(mV/s)
SPEED	SELECTOR	0	&Optimize for:
ZGUESS	QUANT	1.00000E+005	E&stimated Z (ohms)
OCVCURVE	TABLE	19
	Pt	T	Vf	Vm	Ach	Over
	#	s	V vs. Ref.	V	V	bits
	0	0.258333	7.04686E-003	7.04686E-003	5.34400E-004	...........
	1	0.516667	7.04113E-003	6.74684E-003	5.40666E-004	...........
	2	0.775	7.00907E-003	6.62667E-003	5.46899E-004	...........
	3	1.03333	6.93416E-003	6.79136E-003	5.39666E-004	...........
	4	1.29167	6.83961E-003	6.73733E-003	5.40899E-004	...........
	5	1.55	6.77152E-003	6.81189E-003	5.45233E-004	...........
	6	1.80833	6.74920E-003	6.80531E-003	5.43033E-004	...........
	7	2.06667	6.75840E-003	6.77331E-003	5.30866E-004	...........
	8	2.325	6.77590E-003	6.79778E-003	5.36799E-004	...........
	9	2.58333	6.78755E-003	6.80431E-003	5.48733E-004	...........
	10	2.84167	6.79294E-003	6.80865E-003	5.39666E-004	...........
	11	3.1	6.79771E-003	6.84587E-003	5.32966E-004	...........
	12	3.35833	6.80623E-003	6.86481E-003	5.40066E-004	...........
	13	3.61667	6.82064E-003	6.89092E-003	5.42833E-004	...........
	14	3.875	6.84063E-003	6.91986E-003	5.37733E-004	...........
	15	4.13333	6.86438E-003	6.94934E-003	5.34699E-004	...........
	16	4.39167	6.89084E-003	6.99659E-003	5.36633E-004	...........
	17	4.65	6.92025E-003	7.02020E-003	5.46599E-004	...........
	18	4.90833	6.95117E-003	6.98557E-003	5.47599E-004	...........
EOC	QUANT	0.0069512	Open Circuit (V)
PSTATMODEL	IQUANT	4	Pstat Model
PSTATSECTION	LABEL	REF600-11020	Pstat Section
PSTATSERIALNO	LABEL	11020	Pstat Serial Number
CTRLMODE	IQUANT	1	Control Mode
IESTAB	IQUANT	0	I/E Stability
CASPEED	IQUANT	1	Control Amp Speed
CONVENTION	IQUANT	1	Current Convention
ICHRANGE	IQUANT	2	Ich Range
ICHRANGEMODE	TOGGLE	F	Ich Auto Range
ICHOFFSETENABLE	TOGGLE	T	Ich Offset Enable
ICHOFFSET	QUANT	0	Ich Offset (V)
ICHFILTER	IQUANT	3	Ich Filter
VCHRANGE	IQUANT	2	Vch Range
VCHRANGEMODE	TOGGLE	F	Vch Auto Range
VCHOFFSETENABLE	TOGGLE	T	Vch Offset Enable
VCHOFFSET	QUANT	0	Vch Offset (V)
VCHFILTER	IQUANT	3	Vch Filter
ACHRANGE	IQUANT	2	Ach Range
ACHOFFSETENABLE	TOGGLE	F	Ach Offset Enable
ACHOFFSET	QUANT	0	Ach Offset (V)
ACHFILTER	IQUANT	3	Ach Filter
IERANGELOWERLIMIT	IQUANT	1	I/E Range Lower Limit
IERANGEMODE	TOGGLE	F	I/E AutoRange
IERANGE	IQUANT	5	I/E Range
POSFEEDENABLE	TOGGLE	F	Positive Feedback IR Comp
POSFEEDRESISTANCE	QUANT	0	Positive Feedback Resistance (ohm)
ACHSELECT	IQUANT	0	Ach Select
CABLEID	IQUANT	14	Cable ID
DCCALDATE	LABEL	8/19/2019	DC Calibration Date
ACCALDATE	LABEL	8/19/2019	AC Calibration Date
THERMOSELECT	IQUANT	1	Thermo Select
FRAMEWORKVERSION	QUANT	6.33	Framework Version
INSTRUMENTVERSION	LABEL	3.50	Instrument Version
ZCURVE	TABLE
	Pt	Time	Freq	Zreal	Zimag	Zsig	Zmod	Zphz	Idc	Vdc	IERange
	#	s	Hz	ohm	ohm	V	ohm	°	A	V	#
	0	1	1000078	1996.43	-1096.837	1	2277.891	-28.78436	-1.063991E-005	0.0101377	8
	1	2	794390.6	2192.399	-1022.839	1	2419.259	-25.01089	6.590321E-006	0.0083296	8
	2	2	630984.4	2364.871	-918.3568	1	2536.927	-21.22282	3.320991E-006	0.0087443	8
	3	2	501234.4	2503.128	-816.0643	1	2632.795	-18.05689	4.019855E-006	0.0086353	8
	4	2	398109.4	2603.31	-720.6231	1	2701.207	-15.47264	1.747487E-006	0.0089105	8
	5	3	316265.6	2674.592	-637.2731	1	2749.466	-13.40193	2.122483E-006	0.0080849	8
	6	3	251203.1	2756.723	-569.4538	1	2814.925	-11.67138	-2.679126E-006	0.0084898	8
	7	3	199546.9	2803.996	-514.6906	1	2850.842	-10.40121	-2.513394E-006	0.0084918	8
	8	4	158578.1	2837.926	-471.5314	1	2876.833	-9.433712	-2.063208E-006	0.0087207	8
	9	4	125953.1	2900.749	-399.7331	1	2928.162	-7.846138	6.289385E-007	0.0105704	7
	10	4	100078.1	2935.304	-384.9473	1	2960.438	-7.471354	4.499761E-007	0.0069439	7
	11	5	79453.13	2965.709	-391.6457	1	2991.457	-7.52284	3.960157E-007	0.0089989	7
	12	5	63140.62	3000.379	-405.3019	1	3027.63	-7.69315	-2.62249E-007	0.0098151	7
	13	5	50203.12	3041.419	-428.6305	1	3071.474	-8.021927	1.059812E-006	0.0074109	7
	14	6	39890.62	3081.383	-457.4235	1	3115.15	-8.443749	-1.022381E-006	0.0090521	7
	15	6	31640.63	3127.17	-499.5158	1	3166.814	-9.075423	-5.839085E-007	0.0100546	7
	16	6	25171.88	3176.521	-550.8972	1	3223.938	-9.83882	-1.187853E-006	0.0099472	7
	17	7	20015.62	3236.924	-615.064	1	3294.842	-10.75879	8.134585E-007	0.0082768	7
	18	7	15890.62	3300.224	-688.277	1	3371.232	-11.78044	7.355306E-007	0.0068244	7
	19	7	12609.37	3370.599	-776.4812	1	3458.882	-12.97284	-1.185273E-006	0.0095951	7
	20	8	10078.13	3453.386	-877.9943	1	3563.25	-14.26474	9.346813E-007	0.0068917	7
	21	8	8015.625	3539.612	-996.568	1	3677.228	-15.72443	-1.023473E-006	0.0090457	7
	22	8	6328.125	3650.833	-1138.629	1	3824.272	-17.32176	1.042459E-006	0.0071018	7
	23	8	5015.625	3768.172	-1301.918	1	3986.742	-19.06022	9.039746E-008	0.0094176	7
	24	9	3984.375	3899.353	-1488.732	1	4173.88	-20.89633	-5.826208E-007	0.0100491	7
	25	9	3170.956	4053.756	-1707.027	1	4398.509	-22.83584	9.532468E-008	0.0072197	7
	26	9	2527.573	4223.283	-1954.747	1	4653.725	-24.83706	1.061772E-006	0.0074087	7
	27	10	1976.103	4427.374	-2262.369	1	4971.916	-27.06684	-1.053051E-006	0.0100955	7
	28	10	1577.524	4644.88	-2591.261	1	5318.792	-29.15604	-7.160452E-007	0.0083868	7
	29	10	1265.625	4870.503	-2968.298	1	5703.735	-31.35996	-1.186831E-006	0.0099425	7
	30	11	998.264	5132.768	-3435.263	1	6176.272	-33.79364	-5.830247E-007	0.0100488	7
	31	11	796.875	5405.747	-3956.493	1	6698.95	-36.20059	-1.177263E-006	0.009928	7
	32	11	627.7902	5691.758	-4620.741	1	7331.259	-39.07074	-5.754773E-007	0.010032	7
	33	12	505.5147	5962.217	-5364.059	1	8020.047	-41.97693	6.028176E-007	0.0086783	7
	34	12	397.9953	6263.703	-6374.951	1	8937.224	-45.50431	-1.045619E-009	0.0085364	7
	35	12	315.5048	6575.211	-7605.727	1	10053.88	-49.15633	1.34196E-009	0.0084732	6
	36	13	252.4038	6896.333	-9088.001	1	11408.38	-52.80734	8.255733E-010	0.0084732	6
	37	13	198.6229	7292.661	-11083.34	1	13267.38	-56.65572	3.796534E-010	0.0084791	6
	38	13	158.3615	7739.61	-13441.63	1	15510.61	-60.06693	7.20521E-010	0.0084768	6
	39	14	125.558	8296.88	-16447.21	1	18421.42	-63.2311	3.331491E-010	0.0084772	6
	40	14	100.4464	8992.935	-19991.04	1	21920.64	-65.77948	-3.441304E-010	0.008468	6
	41	14	79.00281	9978.46	-24764.09	1	26698.87	-68.05349	-7.382945E-010	0.0084724	6
	42	15	63.3446	10777.27	-30167.8	1	32035.07	-70.34102	4.401381E-010	0.0084756	6
	43	15	49.86702	12450.99	-37191.19	1	39220.04	-71.49031	-2.968369E-010	0.0084611	6
	44	15	39.72458	14662.05	-45506.93	1	47810.63	-72.14138	5.087346E-010	0.0084637	6
	45	16	31.6723	17419.76	-55519.4	1	58188.07	-72.58024	6.865511E-010	0.0084665	6
	46	16	24.93351	20923.72	-68074.28	1	71217.34	-72.91435	-1.086856E-010	0.0084678	6
	47	16	19.86229	25309.14	-82634.86	1	86423.8	-72.97139	-1.557429E-010	0.0084658	6
	48	17	15.83615	30800.4	-101114.7	1	105701.7	-73.05882	2.016604E-009	0.0084642	6
	49	17	12.40079	39314.21	-122736.1	1	128878.9	-72.23896	1.55597E-010	0.0084757	5
	50	17	9.93114	48044.92	-146413.9	1	154095.2	-71.83303	-4.413077E-010	0.0084739	5
	51	18	7.944915	59845.88	-174653	1	184621.8	-71.08568	-5.6988E-010	0.0084797	5
	52	19	6.317385	74757.22	-208976.5	1	221945.6	-70.31634	-4.248872E-010	0.0084934	5
	53	19	5.008013	93509.57	-249998.7	1	266914.6	-69.49219	-3.446535E-010	0.0084731	5
	54	20	3.945707	116247.5	-298561.1	1	320393.9	-68.72609	-1.693572E-010	0.008469	5
	55	22	3.158693	143398.7	-351615.8	1	379732.6	-67.813	4.198594E-011	0.0084795	5
	56	23	2.504006	177239.9	-416022.3	1	452204.2	-66.92432	-1.029344E-010	0.0084824	5
	57	25	1.998082	215662.4	-488408.8	1	533904	-66.1756	-1.006774E-010	0.0084506	5
	58	26	1.584686	265215	-572885.1	1	631297.4	-65.1584	-7.261836E-012	0.008499	5
	59	28	1.266892	321781.3	-670019.3	1	743282.6	-64.34704	-3.724234E-011	0.0085155	5
	60	31	0.999041	392403.4	-786860.6	1	879278.2	-63.4948	2.125906E-011	0.008504	5
