EXPLAIN
TAG	EISPOT
TITLE	LABEL	Potentiostatic IDE	Test &Identifier
DATE	LABEL	9/4/2019	Date
TIME	LABEL	13:04:04	Time
NOTES	NOTES	1	&Notes...
	
PSTAT	PSTAT	REF600-11020	Potentiostat
VDC	POTEN	0.00000E+000	T	DC &Voltage (V)
FREQINIT	QUANT	1.00000E+006	Initial Fre&q. (Hz)
FREQFINAL	QUANT	1.00000E+000	Final Fre&q. (Hz)
PTSPERDEC	QUANT	1.00000E+001	Points/&decade
VAC	QUANT	2.50000E+001	AC &Voltage (mV rms)
AREA	QUANT	1.00000E-002	&Area (cm^2)
CONDIT	TWOPARAM	T	5.00000E+000	0.00000E+000	Conditionin&g	Time(s)	E(V)
DELAY	TWOPARAM	T	5.00000E+000	0.00000E+000	Init. De&lay	Time(s)	Stab.(mV/s)
SPEED	SELECTOR	1	&Optimize for:
ZGUESS	QUANT	1.00000E+007	E&stimated Z (ohms)
OCVCURVE	TABLE	19
	Pt	T	Vf	Vm	Ach	Over
	#	s	V vs. Ref.	V	V	bits
	0	0.258333	5.03626E-002	5.03626E-002	5.42166E-004	...........
	1	0.516667	5.03548E-002	4.99502E-002	5.34699E-004	...........
	2	0.775	5.03085E-002	4.96722E-002	5.33733E-004	...........
	3	1.03333	5.01862E-002	4.94729E-002	5.41199E-004	...........
	4	1.29167	4.99882E-002	4.93483E-002	5.35533E-004	...........
	5	1.55	4.97612E-002	4.92847E-002	5.41733E-004	...........
	6	1.80833	4.95602E-002	4.93112E-002	5.43066E-004	...........
	7	2.06667	4.94168E-002	4.92648E-002	5.45833E-004	...........
	8	2.325	4.93336E-002	4.92679E-002	5.36333E-004	...........
	9	2.58333	4.92930E-002	4.92576E-002	5.36299E-004	...........
	10	2.84167	4.92732E-002	4.91932E-002	5.34000E-004	...........
	11	3.1	4.92612E-002	4.93684E-002	5.33700E-004	...........
	12	3.35833	4.92580E-002	4.92814E-002	5.38499E-004	...........
	13	3.61667	4.92679E-002	4.92907E-002	5.40999E-004	...........
	14	3.875	4.92855E-002	4.94181E-002	5.38933E-004	...........
	15	4.13333	4.93039E-002	4.92455E-002	5.38133E-004	...........
	16	4.39167	4.93156E-002	4.91932E-002	5.38633E-004	...........
	17	4.65	4.93034E-002	4.90268E-002	5.35899E-004	...........
	18	4.90833	4.92537E-002	4.89761E-002	5.38966E-004	...........
EOC	QUANT	0.0492537	Open Circuit (V)
PSTATMODEL	IQUANT	4	Pstat Model
PSTATSECTION	LABEL	REF600-11020	Pstat Section
PSTATSERIALNO	LABEL	11020	Pstat Serial Number
CTRLMODE	IQUANT	1	Control Mode
IESTAB	IQUANT	0	I/E Stability
CASPEED	IQUANT	1	Control Amp Speed
CONVENTION	IQUANT	1	Current Convention
ICHRANGE	IQUANT	2	Ich Range
ICHRANGEMODE	TOGGLE	F	Ich Auto Range
ICHOFFSETENABLE	TOGGLE	T	Ich Offset Enable
ICHOFFSET	QUANT	0	Ich Offset (V)
ICHFILTER	IQUANT	3	Ich Filter
VCHRANGE	IQUANT	2	Vch Range
VCHRANGEMODE	TOGGLE	F	Vch Auto Range
VCHOFFSETENABLE	TOGGLE	T	Vch Offset Enable
VCHOFFSET	QUANT	0	Vch Offset (V)
VCHFILTER	IQUANT	3	Vch Filter
ACHRANGE	IQUANT	2	Ach Range
ACHOFFSETENABLE	TOGGLE	F	Ach Offset Enable
ACHOFFSET	QUANT	0	Ach Offset (V)
ACHFILTER	IQUANT	3	Ach Filter
IERANGELOWERLIMIT	IQUANT	1	I/E Range Lower Limit
IERANGEMODE	TOGGLE	F	I/E AutoRange
IERANGE	IQUANT	3	I/E Range
POSFEEDENABLE	TOGGLE	F	Positive Feedback IR Comp
POSFEEDRESISTANCE	QUANT	0	Positive Feedback Resistance (ohm)
ACHSELECT	IQUANT	0	Ach Select
CABLEID	IQUANT	14	Cable ID
DCCALDATE	LABEL	8/19/2019	DC Calibration Date
ACCALDATE	LABEL	8/19/2019	AC Calibration Date
THERMOSELECT	IQUANT	1	Thermo Select
FRAMEWORKVERSION	QUANT	6.33	Framework Version
INSTRUMENTVERSION	LABEL	3.50	Instrument Version
ZCURVE	TABLE
	Pt	Time	Freq	Zreal	Zimag	Zsig	Zmod	Zphz	Idc	Vdc	IERange
	#	s	Hz	ohm	ohm	V	ohm	°	A	V	#
	0	2	1000078	2300.484	-1965.828	1	3026.005	-40.51481	1.33657E-005	0.050475	8
	1	3	794390.6	2699.614	-1864.374	1	3280.824	-34.62925	1.184157E-005	0.0502492	8
	2	5	630984.4	3039.814	-1758.375	1	3511.745	-30.04715	1.143512E-005	0.0502608	8
	3	6	501234.4	3324.042	-1603.941	1	3690.783	-25.75857	9.43801E-006	0.0506925	8
	4	8	398109.4	3573.592	-1462.488	1	3861.273	-22.25677	1.080039E-005	0.0504514	8
	5	10	316265.6	3760.038	-1307.615	1	3980.922	-19.17596	1.158581E-005	0.0502225	8
	6	11	251203.1	3914.102	-1168.847	1	4084.899	-16.62692	1.147971E-005	0.050183	8
	7	13	199546.9	4047.856	-1050.524	1	4181.954	-14.54877	1.036687E-005	0.0504142	8
	8	14	158578.1	4127.198	-967.689	1	4239.125	-13.19557	1.150265E-005	0.0501878	8
	9	16	125953.1	4219.772	-912.4214	1	4317.29	-12.20096	1.919905E-007	0.0518804	7
	10	17	100078.1	4285.481	-867.5088	1	4372.405	-11.44373	9.611801E-007	0.0505651	7
	11	19	79453.13	4354.487	-864.1213	1	4439.399	-11.22418	9.783497E-007	0.0505264	7
	12	20	63140.62	4421.806	-881.2258	1	4508.761	-11.27086	9.6409E-007	0.050601	7
	13	21	50203.12	4495.149	-926.6688	1	4589.671	-11.64827	9.826925E-007	0.0505968	7
	14	23	39890.62	4571.425	-992.133	1	4677.847	-12.24496	1.042655E-006	0.0504509	7
	15	24	31640.63	4654.527	-1089.508	1	4780.34	-13.17431	9.804219E-007	0.0505284	7
	16	25	25171.88	4747.947	-1214.264	1	4900.759	-14.34562	9.64229E-007	0.0506214	7
	17	27	20015.62	4851.793	-1368.83	1	5041.189	-15.75528	9.801047E-007	0.0505306	7
	18	28	15890.62	4966.521	-1563.664	1	5206.858	-17.47614	9.546527E-007	0.0506505	7
	19	29	12609.37	5104.698	-1793.822	1	5410.706	-19.36179	9.706378E-007	0.0505428	7
	20	31	10078.13	5248.846	-2062.34	1	5639.471	-21.45051	1.016572E-006	0.050451	7
	21	32	8015.625	5424.248	-2396.151	1	5929.924	-23.83335	1.015742E-006	0.0504486	7
	22	33	6328.125	5626.678	-2812.392	1	6290.394	-26.55733	9.626852E-007	0.0505766	7
	23	35	5015.625	5872.464	-3290.602	1	6731.559	-29.26384	9.839322E-007	0.0505128	7
	24	36	3984.375	6148.058	-3865.294	1	7262.17	-32.15765	9.971668E-007	0.0505353	7
	25	37	3170.956	6467.98	-4532.781	1	7898.156	-35.0229	1.017747E-006	0.0504633	7
	26	39	2527.573	6846.413	-5324.101	1	8672.913	-37.87036	9.773604E-007	0.0505734	7
	27	40	1976.103	7326.511	-6349.839	1	9695.27	-40.91526	9.984805E-007	0.0505361	7
	28	41	1577.524	7850.469	-7449.587	1	10822.49	-43.49911	9.390764E-007	0.0506214	7
	29	43	1265.625	8451.688	-8719.893	1	12143.62	-45.89483	9.493428E-007	0.0505497	7
	30	44	998.264	9208.692	-10345.64	1	13850.35	-48.3276	9.109007E-008	0.0506059	6
	31	45	796.875	10073.69	-12161.97	1	15792.17	-50.36523	9.142573E-008	0.0505462	6
	32	47	627.7902	11154.23	-14432.46	1	18240.41	-52.30109	9.124843E-008	0.0505452	6
	33	48	505.5147	12326.31	-16859.87	1	20885.23	-53.82934	9.652372E-008	0.0503942	6
	34	49	397.9953	13843.21	-20010.12	1	24331.86	-55.32411	9.692927E-008	0.0501403	6
	35	51	315.5048	15586.88	-23620.28	1	28299.62	-56.57942	9.676208E-008	0.0501395	6
	36	52	252.4038	17563.14	-27690.59	1	32790.75	-57.61452	9.705578E-008	0.0501355	6
	37	53	198.6229	20064.07	-32850.03	1	38492.74	-58.58434	9.699015E-008	0.0501333	6
	38	55	158.3615	22854.04	-38581.75	1	44842.6	-59.35946	9.688696E-008	0.0501294	6
	39	56	125.558	26183.17	-45499.96	1	52495.76	-60.08152	9.691223E-008	0.0501332	6
	40	57	100.4464	30011.66	-53282.07	1	61152.91	-60.60918	9.714681E-008	0.0501317	6
	41	59	79.00281	34626.75	-63379.77	1	72221.93	-61.35056	9.721966E-008	0.0501254	6
	42	60	63.3446	40066.83	-74700.23	1	84767.18	-61.7923	9.710838E-008	0.0501261	6
	43	62	49.86702	45740.05	-87338.58	1	98591	-62.35852	9.67317E-008	0.0501261	6
	44	63	39.72458	53209.35	-103395.8	1	116283.8	-62.76883	9.689531E-008	0.0501306	6
	45	64	31.6723	61491.23	-121464.9	1	136142.9	-63.14932	1.008821E-008	0.0501353	5
	46	66	24.93351	71319.8	-144574.7	1	161209	-63.74252	9.851509E-009	0.0501322	5
	47	67	19.86229	82372.55	-170921.4	1	189735	-64.26908	1.037482E-008	0.0501395	5
	48	68	15.83615	93521.19	-201598.4	1	222234.4	-65.11349	9.505605E-009	0.0501306	5
	49	70	12.40079	111172.1	-240244	1	264719.5	-65.16781	9.473704E-009	0.0501415	5
	50	71	9.93114	130272.4	-285630.9	1	313936.1	-65.48291	9.928994E-009	0.0501384	5
	51	73	7.944915	151171.3	-337471.4	1	369783.3	-65.86987	9.772444E-009	0.0501413	5
	52	74	6.317385	177512.2	-401144.4	1	438665.5	-66.12991	1.000163E-008	0.0501288	5
	53	76	5.008013	209670.1	-478441.7	1	522367.7	-66.33527	9.846027E-009	0.0501322	5
	54	79	3.945707	249665.5	-573243.8	1	625252.9	-66.46537	9.872037E-009	0.0501365	5
	55	82	3.158693	294636.8	-679466.5	1	740598.1	-66.55701	9.693007E-008	0.0501424	6
	56	85	2.504006	353099.8	-808418.1	1	882167.4	-66.40532	9.638466E-009	0.0504226	5
	57	88	1.998082	420980.9	-955898	1	1044493	-66.23113	9.664818E-009	0.050414	5
	58	92	1.584686	511395	-1134205	1	1244165	-65.73015	9.711995E-009	0.0504646	5
	59	95	1.266892	612755.9	-1339771	1	1473247	-65.42259	9.909429E-010	0.0503999	4
	60	99	0.999041	752890.3	-1590284	1	1759502	-64.66566	1.121697E-009	0.0504639	4
