EXPLAIN
TAG	EISPOT
TITLE	LABEL	Potentiostatic EIS	Test &Identifier
DATE	LABEL	10/16/2019	Date
TIME	LABEL	9:42:58	Time
NOTES	NOTES	1	&Notes...
	
PSTAT	PSTAT	REF600-11020	Potentiostat
VDC	POTEN	0.00000E+000	T	DC &Voltage (V)
FREQINIT	QUANT	1.00000E+006	Initial Fre&q. (Hz)
FREQFINAL	QUANT	1.00000E+000	Final Fre&q. (Hz)
PTSPERDEC	QUANT	1.00000E+001	Points/&decade
VAC	QUANT	2.50000E+001	AC &Voltage (mV rms)
AREA	QUANT	1.00000E-002	&Area (cm^2)
CONDIT	TWOPARAM	T	5.00000E+000	0.00000E+000	Conditionin&g	Time(s)	E(V)
DELAY	TWOPARAM	T	5.00000E+000	0.00000E+000	Init. De&lay	Time(s)	Stab.(mV/s)
SPEED	SELECTOR	0	&Optimize for:
ZGUESS	QUANT	1.00000E+005	E&stimated Z (ohms)
OCVCURVE	TABLE	19
	Pt	T	Vf	Vm	Ach	Over
	#	s	V vs. Ref.	V	V	bits
	0	0.258333	7.36997E-003	7.36997E-003	5.64399E-004	...........
	1	0.516667	7.36991E-003	7.36690E-003	5.58166E-004	...........
	2	0.775	7.36992E-003	7.38305E-003	5.59866E-004	...........
	3	1.03333	7.37078E-003	7.38010E-003	5.61832E-004	...........
	4	1.29167	7.37375E-003	7.40871E-003	5.54333E-004	...........
	5	1.55	7.38050E-003	7.44897E-003	5.58099E-004	...........
	6	1.80833	7.39378E-003	7.47835E-003	5.60266E-004	...........
	7	2.06667	7.41539E-003	7.51450E-003	5.60432E-004	...........
	8	2.325	7.44427E-003	7.56197E-003	5.55166E-004	...........
	9	2.58333	7.47814E-003	7.59114E-003	5.60866E-004	...........
	10	2.84167	7.51531E-003	7.65005E-003	5.59732E-004	...........
	11	3.1	7.55502E-003	7.68645E-003	5.52232E-004	...........
	12	3.35833	7.59684E-003	7.72456E-003	5.54433E-004	...........
	13	3.61667	7.63943E-003	7.76005E-003	5.51399E-004	...........
	14	3.875	7.68084E-003	7.79819E-003	5.55199E-004	...........
	15	4.13333	7.72052E-003	7.85081E-003	5.61732E-004	...........
	16	4.39167	7.75972E-003	7.87610E-003	5.55299E-004	...........
	17	4.65	7.79933E-003	7.91906E-003	5.56633E-004	...........
	18	4.90833	7.83868E-003	7.95502E-003	5.53199E-004	...........
EOC	QUANT	0.0078387	Open Circuit (V)
PSTATMODEL	IQUANT	4	Pstat Model
PSTATSECTION	LABEL	REF600-11020	Pstat Section
PSTATSERIALNO	LABEL	11020	Pstat Serial Number
CTRLMODE	IQUANT	1	Control Mode
IESTAB	IQUANT	0	I/E Stability
CASPEED	IQUANT	1	Control Amp Speed
CONVENTION	IQUANT	1	Current Convention
ICHRANGE	IQUANT	2	Ich Range
ICHRANGEMODE	TOGGLE	F	Ich Auto Range
ICHOFFSETENABLE	TOGGLE	T	Ich Offset Enable
ICHOFFSET	QUANT	0	Ich Offset (V)
ICHFILTER	IQUANT	3	Ich Filter
VCHRANGE	IQUANT	2	Vch Range
VCHRANGEMODE	TOGGLE	F	Vch Auto Range
VCHOFFSETENABLE	TOGGLE	T	Vch Offset Enable
VCHOFFSET	QUANT	0	Vch Offset (V)
VCHFILTER	IQUANT	3	Vch Filter
ACHRANGE	IQUANT	2	Ach Range
ACHOFFSETENABLE	TOGGLE	F	Ach Offset Enable
ACHOFFSET	QUANT	0	Ach Offset (V)
ACHFILTER	IQUANT	3	Ach Filter
IERANGELOWERLIMIT	IQUANT	1	I/E Range Lower Limit
IERANGEMODE	TOGGLE	F	I/E AutoRange
IERANGE	IQUANT	5	I/E Range
POSFEEDENABLE	TOGGLE	F	Positive Feedback IR Comp
POSFEEDRESISTANCE	QUANT	0	Positive Feedback Resistance (ohm)
ACHSELECT	IQUANT	0	Ach Select
CABLEID	IQUANT	14	Cable ID
DCCALDATE	LABEL	8/19/2019	DC Calibration Date
ACCALDATE	LABEL	8/19/2019	AC Calibration Date
THERMOSELECT	IQUANT	1	Thermo Select
FRAMEWORKVERSION	QUANT	6.33	Framework Version
INSTRUMENTVERSION	LABEL	3.50	Instrument Version
ZCURVE	TABLE
	Pt	Time	Freq	Zreal	Zimag	Zsig	Zmod	Zphz	Idc	Vdc	IERange
	#	s	Hz	ohm	ohm	V	ohm	°	A	V	#
	0	1	1000078	2351.053	-2001.678	1	3087.744	-40.41095	-2.699302E-006	0.0102488	8
	1	2	794390.6	2750.898	-2023.153	1	3414.76	-36.33268	2.316065E-007	0.0095297	8
	2	2	630984.4	3146.975	-1989.399	1	3723.058	-32.29952	3.632895E-006	0.0086914	8
	3	2	501234.4	3529.05	-1875.172	1	3996.306	-27.98409	-2.64607E-006	0.0099839	8
	4	3	398109.4	3870.343	-1736.159	1	4241.911	-24.16006	-9.919909E-007	0.0095913	8
	5	3	316265.6	4144.317	-1570.914	1	4432.058	-20.75934	-1.096444E-006	0.0095939	8
	6	3	251203.1	4388.885	-1411.997	1	4610.428	-17.83408	2.750473E-006	0.0088521	8
	7	4	199546.9	4558.024	-1234.514	1	4722.246	-15.15464	1.478336E-006	0.0089864	8
	8	4	158578.1	4706.455	-1075.424	1	4827.759	-12.8711	-6.279682E-007	0.0095919	8
	9	4	125953.1	4847.366	-880.4805	1	4926.683	-10.29502	2.08341E-007	0.0083375	7
	10	4	100078.1	4917.768	-775.2285	1	4978.496	-8.95829	-5.469263E-008	0.0094141	7
	11	5	79453.13	4983.438	-699.4819	1	5032.289	-7.989912	-3.93202E-008	0.0094048	7
	12	5	63140.62	5041.423	-640.5903	1	5081.959	-7.241502	-1.503407E-008	0.0092855	7
	13	5	50203.12	5094.342	-600.9999	1	5129.671	-6.728312	9.940339E-008	0.0091626	7
	14	6	39890.62	5140.77	-577.4288	1	5173.097	-6.408796	7.996947E-008	0.0092408	7
	15	6	31640.63	5188.849	-568.4008	1	5219.888	-6.251413	5.003886E-008	0.0092274	7
	16	6	25171.88	5233.354	-577.0245	1	5265.069	-6.291962	-3.940617E-008	0.0094007	7
	17	7	20015.62	5275.296	-594.4505	1	5308.683	-6.429294	-6.085595E-008	0.0093828	7
	18	7	15890.62	5329.678	-636.5706	1	5367.559	-6.811075	-2.885942E-008	0.0092993	7
	19	7	12609.37	5378.557	-693.9525	1	5423.14	-7.351804	6.542276E-009	0.0092408	7
	20	8	10078.13	5429.289	-763.7808	1	5482.75	-8.007699	-2.790615E-008	0.0093021	7
	21	8	8015.625	5486.548	-851.8947	1	5552.291	-8.825823	-9.000453E-009	0.0093153	7
	22	8	6328.125	5547.13	-983.707	1	5633.679	-10.05607	1.011536E-007	0.0091518	7
	23	9	5015.625	5610.09	-1137.539	1	5724.256	-11.46227	7.629937E-009	0.0092377	7
	24	9	3984.375	5688.397	-1324.412	1	5840.542	-13.1065	-3.360778E-011	0.0092721	7
	25	9	3170.956	5759.872	-1567.046	1	5969.234	-15.21967	-5.467077E-008	0.0093923	7
	26	10	2527.573	5844.837	-1857.288	1	6132.833	-17.62846	-1.546228E-008	0.0092813	7
	27	10	1976.103	5954.028	-2245.265	1	6363.306	-20.66147	-3.619042E-008	0.0093084	7
	28	10	1577.524	6102.807	-2675.858	1	6663.668	-23.67569	3.143614E-008	0.009195	7
	29	11	1265.625	6203.153	-3204.738	1	6982.081	-27.32225	-1.735631E-008	0.0092809	7
	30	11	998.264	6364.625	-3895.923	1	7462.351	-31.47169	8.049576E-008	0.0092381	7
	31	11	796.875	6548.902	-4696.773	1	8059.02	-35.64752	5.008648E-008	0.0092233	7
	32	12	627.7902	6768.629	-5736.734	1	8872.681	-40.28286	-4.403389E-008	0.0093522	7
	33	12	505.5147	7019.918	-6898.225	1	9841.99	-44.49905	-8.980116E-009	0.0093886	6
	34	12	397.9953	7337.702	-8475.146	1	11210.26	-49.11429	9.415173E-010	0.0092595	6
	35	13	315.5048	7714.664	-10371.2	1	12925.86	-53.35612	-2.891613E-010	0.0092574	6
	36	13	252.4038	8165.006	-12610.38	1	15022.95	-57.07762	7.154461E-012	0.0092545	6
	37	13	198.6229	8769.512	-15573.8	1	17873.1	-60.61641	7.681893E-010	0.0092574	6
	38	14	158.3615	9494.502	-19026.49	1	21263.88	-63.48012	6.673826E-010	0.0092508	6
	39	14	125.558	10462.25	-23357.46	1	25593.54	-65.87148	4.470249E-010	0.0092553	6
	40	14	100.4464	11679.38	-28407.35	1	30714.58	-67.6505	-8.143139E-010	0.0092547	6
	41	15	79.00281	13485.23	-35094.42	1	37596.14	-68.98044	-6.034402E-011	0.0092531	6
	42	15	63.3446	15028.08	-43062.22	1	45609.18	-70.76177	4.429493E-010	0.0092516	6
	43	15	49.86702	18084.95	-52690.38	1	55707.64	-71.05621	-3.519198E-010	0.0092464	6
	44	16	39.72458	22386.58	-63778.04	1	67592.88	-70.65854	4.497461E-010	0.0092514	6
	45	16	31.6723	27644.99	-77027.45	1	81838.09	-70.25704	7.991329E-010	0.0092487	6
	46	16	24.93351	34743.22	-93784.25	1	100012.9	-69.67239	-4.435623E-010	0.0092446	6
	47	17	19.86229	43837.01	-112087	1	120354.4	-68.63963	-1.260729E-009	0.0092477	5
	48	17	15.83615	56897.38	-131610.2	1	143382.5	-66.62033	2.27147E-009	0.0092485	5
	49	17	12.40079	72980.78	-158922.2	1	174878.5	-65.33431	-1.192816E-009	0.009255	5
	50	18	9.93114	91086.8	-185588.3	1	206736.1	-63.85818	3.776281E-010	0.0092582	5
	51	18	7.944915	113875.1	-212838.4	1	241387	-61.85184	1.25836E-009	0.0092504	5
	52	19	6.317385	143055.8	-242974.3	1	281960	-59.51172	6.352526E-010	0.0092382	5
	53	20	5.008013	176197.6	-275390.4	1	326933.4	-57.38848	1.933797E-010	0.0092527	5
	54	21	3.945707	213892.1	-308989.6	1	375798.3	-55.30783	-7.13456E-011	0.0092593	5
	55	22	3.158693	251282	-344272.2	1	426222.9	-53.87453	-1.092361E-010	0.0092498	5
	56	24	2.504006	291967.1	-382737.9	1	481386.6	-52.66222	-5.462519E-011	0.0092487	5
	57	25	1.998082	333055.9	-425720.7	1	540522.3	-51.9627	1.533065E-010	0.0092955	5
	58	27	1.584686	375039	-476426.9	1	606330.6	-51.7905	-6.391581E-012	0.0092573	5
	59	29	1.266892	419522.3	-535579.6	1	680326.7	-51.92822	-7.77251E-011	0.0092224	5
	60	31	0.999041	469387.4	-613814.7	1	772717.9	-52.59466	-1.215866E-010	0.0092151	5
