EXPLAIN
TAG	EISPOT
TITLE	LABEL	Potentiostatic EIS	Test &Identifier
DATE	LABEL	10/26/2019	Date
TIME	LABEL	10:35:30	Time
NOTES	NOTES	1	&Notes...
	
PSTAT	PSTAT	REF600-11020	Potentiostat
VDC	POTEN	0.00000E+000	T	DC &Voltage (V)
FREQINIT	QUANT	1.00000E+006	Initial Fre&q. (Hz)
FREQFINAL	QUANT	1.00000E+000	Final Fre&q. (Hz)
PTSPERDEC	QUANT	1.00000E+001	Points/&decade
VAC	QUANT	2.50000E+001	AC &Voltage (mV rms)
AREA	QUANT	1.00000E-002	&Area (cm^2)
CONDIT	TWOPARAM	T	5.00000E+000	0.00000E+000	Conditionin&g	Time(s)	E(V)
DELAY	TWOPARAM	T	5.00000E+000	0.00000E+000	Init. De&lay	Time(s)	Stab.(mV/s)
SPEED	SELECTOR	0	&Optimize for:
ZGUESS	QUANT	1.00000E+005	E&stimated Z (ohms)
OCVCURVE	TABLE	19
	Pt	T	Vf	Vm	Ach	Over
	#	s	V vs. Ref.	V	V	bits
	0	0.258333	7.03928E-003	7.03928E-003	5.29666E-004	...........
	1	0.516667	7.03486E-003	6.80779E-003	5.35366E-004	...........
	2	0.775	7.01998E-003	7.23109E-003	5.35433E-004	...........
	3	1.03333	7.00402E-003	6.86878E-003	5.34466E-004	...........
	4	1.29167	6.98642E-003	6.31092E-003	5.32533E-004	...........
	5	1.55	6.92152E-003	6.54379E-003	5.32333E-004	...........
	6	1.80833	6.78277E-003	6.30240E-003	5.35799E-004	...........
	7	2.06667	6.62291E-003	6.68273E-003	5.35299E-004	...........
	8	2.325	6.52831E-003	7.09833E-003	5.32966E-004	...........
	9	2.58333	6.55563E-003	6.96679E-003	5.37599E-004	...........
	10	2.84167	6.68553E-003	6.90179E-003	5.32733E-004	...........
	11	3.1	6.82770E-003	6.87063E-003	5.31933E-004	...........
	12	3.35833	6.90659E-003	6.83168E-003	5.33700E-004	...........
	13	3.61667	6.91438E-003	6.73857E-003	5.36299E-004	...........
	14	3.875	6.87065E-003	6.28588E-003	5.28966E-004	...........
	15	4.13333	6.77736E-003	6.38726E-003	5.33100E-004	...........
	16	4.39167	6.64307E-003	6.42617E-003	5.31933E-004	...........
	17	4.65	6.51469E-003	6.45267E-003	5.35733E-004	...........
	18	4.90833	6.43968E-003	6.46938E-003	5.27966E-004	...........
EOC	QUANT	0.0064397	Open Circuit (V)
PSTATMODEL	IQUANT	4	Pstat Model
PSTATSECTION	LABEL	REF600-11020	Pstat Section
PSTATSERIALNO	LABEL	11020	Pstat Serial Number
CTRLMODE	IQUANT	1	Control Mode
IESTAB	IQUANT	0	I/E Stability
CASPEED	IQUANT	1	Control Amp Speed
CONVENTION	IQUANT	1	Current Convention
ICHRANGE	IQUANT	2	Ich Range
ICHRANGEMODE	TOGGLE	F	Ich Auto Range
ICHOFFSETENABLE	TOGGLE	T	Ich Offset Enable
ICHOFFSET	QUANT	0	Ich Offset (V)
ICHFILTER	IQUANT	3	Ich Filter
VCHRANGE	IQUANT	2	Vch Range
VCHRANGEMODE	TOGGLE	F	Vch Auto Range
VCHOFFSETENABLE	TOGGLE	T	Vch Offset Enable
VCHOFFSET	QUANT	0	Vch Offset (V)
VCHFILTER	IQUANT	3	Vch Filter
ACHRANGE	IQUANT	2	Ach Range
ACHOFFSETENABLE	TOGGLE	F	Ach Offset Enable
ACHOFFSET	QUANT	0	Ach Offset (V)
ACHFILTER	IQUANT	3	Ach Filter
IERANGELOWERLIMIT	IQUANT	1	I/E Range Lower Limit
IERANGEMODE	TOGGLE	F	I/E AutoRange
IERANGE	IQUANT	5	I/E Range
POSFEEDENABLE	TOGGLE	F	Positive Feedback IR Comp
POSFEEDRESISTANCE	QUANT	0	Positive Feedback Resistance (ohm)
ACHSELECT	IQUANT	0	Ach Select
CABLEID	IQUANT	14	Cable ID
DCCALDATE	LABEL	8/19/2019	DC Calibration Date
ACCALDATE	LABEL	8/19/2019	AC Calibration Date
THERMOSELECT	IQUANT	1	Thermo Select
FRAMEWORKVERSION	QUANT	6.33	Framework Version
INSTRUMENTVERSION	LABEL	3.50	Instrument Version
ZCURVE	TABLE
	Pt	Time	Freq	Zreal	Zimag	Zsig	Zmod	Zphz	Idc	Vdc	IERange
	#	s	Hz	ohm	ohm	V	ohm	°	A	V	#
	0	1	1000078	2023.124	-919.4464	1	2222.254	-24.4403	5.085291E-007	0.0089494	8
	1	2	794390.6	2162.48	-838.0135	1	2319.178	-21.18256	7.028602E-007	0.0082062	8
	2	2	630984.4	2281.783	-754.0271	1	2403.142	-18.28641	3.152051E-006	0.0077291	8
	3	2	501234.4	2377.719	-674.8536	1	2471.635	-15.84521	2.654509E-006	0.0076622	8
	4	3	398109.4	2454.816	-601.5623	1	2527.449	-13.76921	-2.241612E-006	0.0086872	8
	5	3	316265.6	2519.183	-549.1158	1	2578.335	-12.29664	-1.052358E-006	0.0083902	8
	6	3	251203.1	2574.366	-504.4431	1	2623.323	-11.08655	3.01096E-007	0.0081246	8
	7	4	199546.9	2620.213	-470.3647	1	2662.097	-10.17699	-2.576884E-007	0.0081055	8
	8	4	158578.1	2664.971	-443.9816	1	2701.701	-9.45855	6.461185E-007	0.007913	8
	9	4	125953.1	2724.064	-407.7523	1	2754.412	-8.51313	1.063617E-006	0.0058304	7
	10	5	100078.1	2763.081	-404.5062	1	2792.533	-8.328753	7.18262E-008	0.0080085	7
	11	5	79453.13	2805.902	-419.3822	1	2837.071	-8.500744	-9.194383E-009	0.0080944	7
	12	5	63140.62	2852.151	-441.335	1	2886.095	-8.796049	-5.092493E-008	0.0081606	7
	13	6	50203.12	2901.751	-467.4199	1	2939.156	-9.150715	-1.153674E-008	0.0081098	7
	14	6	39890.62	2957.448	-500.2569	1	2999.459	-9.60079	-4.751035E-008	0.0081209	7
	15	6	31640.63	3017.436	-538.9122	1	3065.183	-10.12622	5.773053E-008	0.0079412	7
	16	6	25171.88	3081.406	-583.2584	1	3136.121	-10.71832	-6.149665E-008	0.0082296	7
	17	7	20015.62	3151.241	-635.4629	1	3214.675	-11.40107	-2.822339E-008	0.0080603	7
	18	7	15890.62	3224.322	-693.8409	1	3298.131	-12.14427	7.320763E-008	0.0079921	7
	19	7	12609.37	3303.331	-762.6302	1	3390.221	-12.99994	-2.376653E-008	0.0080511	7
	20	8	10078.13	3384.331	-838.8138	1	3486.732	-13.92036	6.164129E-009	0.0081349	7
	21	8	8015.625	3472.664	-930.3991	1	3595.141	-14.99849	3.616507E-008	0.0079478	7
	22	8	6328.125	3566.458	-1041.894	1	3715.53	-16.28502	9.219772E-008	0.0079165	7
	23	9	5015.625	3662.676	-1173.105	1	3845.955	-17.75955	4.540455E-009	0.008047	7
	24	9	3984.375	3761.729	-1330.542	1	3990.106	-19.47894	-7.909697E-009	0.0080249	7
	25	9	3170.956	3860.157	-1518.441	1	4148.069	-21.47281	-7.154871E-009	0.0080222	7
	26	10	2527.573	3959.774	-1750.913	1	4329.608	-23.85381	-5.582871E-008	0.0081355	7
	27	10	1976.103	4071.887	-2066.326	1	4566.177	-26.90604	9.245712E-008	0.0079116	7
	28	10	1577.524	4173.738	-2431.405	1	4830.302	-30.22288	9.309785E-008	0.0079161	7
	29	11	1265.625	4290.948	-2872.596	1	5163.724	-33.80053	-1.017248E-008	0.008078	7
	30	11	998.264	4426.194	-3460.143	1	5618.166	-38.01625	3.416705E-008	0.0079446	7
	31	11	796.875	4570.433	-4167.692	1	6185.347	-42.3611	5.635923E-009	0.0081305	7
	32	12	627.7902	4751.779	-5085.925	1	6960.318	-46.94535	2.956556E-008	0.0080233	7
	33	12	505.5147	4946.053	-6127.392	1	7874.539	-51.08941	-4.858243E-008	0.008142	7
	34	12	397.9953	5207.967	-7540.677	1	9164.318	-55.36911	1.443442E-009	0.0080826	7
	35	13	315.5048	5524.931	-9244.961	1	10770.06	-59.13681	8.36719E-011	0.0080216	6
	36	13	252.4038	5898.769	-11264.48	1	12715.5	-62.36069	-4.873807E-011	0.0080213	6
	37	13	198.6229	6412.193	-13932.81	1	15337.52	-65.28705	5.343719E-010	0.008024	6
	38	14	158.3615	7034.641	-17041.29	1	18436.15	-67.56917	5.796582E-010	0.0080209	6
	39	14	125.558	7845.925	-20943.61	1	22365	-69.46297	9.519646E-010	0.0080197	6
	40	14	100.4464	8809.013	-25515.46	1	26993.28	-70.95316	-2.494992E-010	0.008019	6
	41	14	79.00281	10353.33	-31501.14	1	33158.91	-71.80609	-1.230806E-009	0.0080127	6
	42	15	63.3446	11639.66	-38742.7	1	40453.41	-73.27789	-1.952588E-010	0.0080106	6
	43	15	49.86702	14071.27	-47477.93	1	49519.23	-73.4915	-1.745518E-010	0.0080108	6
	44	16	39.72458	17363.25	-57526.42	1	60089.7	-73.20457	2.112384E-010	0.0080113	6
	45	16	31.6723	21338.4	-69559.8	1	72759.15	-72.94591	5.764491E-010	0.008013	6
	46	16	24.93351	26540.07	-85229.77	1	89266.4	-72.70371	-4.301087E-011	0.0080114	6
	47	17	19.86229	33203.22	-102919.5	1	108142.9	-72.1196	-2.144388E-010	0.008016	5
	48	17	15.83615	42068.08	-123068.6	1	130060	-71.12823	-7.27939E-010	0.0080137	5
	49	17	12.40079	54537.73	-149079.2	1	158741.8	-69.90593	1.329129E-009	0.0080115	5
	50	18	9.93114	69389.55	-177249.1	1	190347.4	-68.62063	-1.662096E-009	0.008015	5
	51	18	7.944915	87242.23	-209295.5	1	226750.5	-67.3718	-1.103276E-009	0.0080197	5
	52	19	6.317385	109684.2	-245694.3	1	269065.6	-65.94279	-4.918216E-010	0.0080329	5
	53	20	5.008013	137825.4	-287102.4	1	318470.8	-64.35636	-2.678914E-011	0.008013	5
	54	21	3.945707	173883	-334365.5	1	376876.1	-62.52383	8.836257E-011	0.0080138	5
	55	22	3.158693	210475.4	-382647.1	1	436713.5	-61.18696	3.105675E-010	0.0080312	5
	56	24	2.504006	255529.1	-439208.9	1	508133.4	-59.80941	-1.371623E-010	0.0080269	5
	57	25	1.998082	302920.5	-499476.1	1	584155.2	-58.76417	-7.808756E-011	0.0080215	5
	58	26	1.584686	359485.4	-568609.8	1	672716	-57.69818	4.476076E-011	0.0080629	5
	59	28	1.266892	418047.8	-646794.5	1	770134.5	-57.12388	3.999005E-011	0.0080523	5
	60	31	0.999041	485192.3	-740920	1	885648.9	-56.78117	3.862596E-011	0.0080324	5
