EXPLAIN
TAG	EISPOT
TITLE	LABEL	Potentiostatic EIS	Test &Identifier
DATE	LABEL	10/28/2019	Date
TIME	LABEL	10:23:07	Time
NOTES	NOTES	1	&Notes...
	
PSTAT	PSTAT	REF600-11020	Potentiostat
VDC	POTEN	0.00000E+000	T	DC &Voltage (V)
FREQINIT	QUANT	1.00000E+006	Initial Fre&q. (Hz)
FREQFINAL	QUANT	1.00000E+000	Final Fre&q. (Hz)
PTSPERDEC	QUANT	1.00000E+001	Points/&decade
VAC	QUANT	2.50000E+001	AC &Voltage (mV rms)
AREA	QUANT	1.00000E-002	&Area (cm^2)
CONDIT	TWOPARAM	T	5.00000E+000	0.00000E+000	Conditionin&g	Time(s)	E(V)
DELAY	TWOPARAM	T	5.00000E+000	0.00000E+000	Init. De&lay	Time(s)	Stab.(mV/s)
SPEED	SELECTOR	1	&Optimize for:
ZGUESS	QUANT	1.00000E+005	E&stimated Z (ohms)
OCVCURVE	TABLE	19
	Pt	T	Vf	Vm	Ach	Over
	#	s	V vs. Ref.	V	V	bits
	0	0.258333	8.79884E-003	8.79884E-003	5.70799E-004	...........
	1	0.516667	8.79763E-003	8.73551E-003	5.70599E-004	...........
	2	0.775	8.78975E-003	8.65184E-003	5.67966E-004	...........
	3	1.03333	8.76912E-003	8.73700E-003	5.69666E-004	...........
	4	1.29167	8.74518E-003	8.92847E-003	5.69299E-004	...........
	5	1.55	8.74428E-003	8.86222E-003	5.63066E-004	...........
	6	1.80833	8.77805E-003	8.90942E-003	5.61632E-004	...........
	7	2.06667	8.82869E-003	8.97700E-003	5.63132E-004	...........
	8	2.325	8.87916E-003	9.11421E-003	5.66366E-004	...........
	9	2.58333	8.93626E-003	9.29355E-003	5.62399E-004	...........
	10	2.84167	9.01728E-003	9.40714E-003	5.63966E-004	...........
	11	3.1	9.12932E-003	9.61011E-003	5.68199E-004	...........
	12	3.35833	9.26402E-003	9.61961E-003	5.69966E-004	...........
	13	3.61667	9.40153E-003	9.66573E-003	5.68732E-004	...........
	14	3.875	9.51866E-003	9.70735E-003	5.70432E-004	...........
	15	4.13333	9.60397E-003	9.75999E-003	5.64766E-004	...........
	16	4.39167	9.66513E-003	9.86708E-003	5.64199E-004	...........
	17	4.65	9.71852E-003	9.87691E-003	5.68232E-004	...........
	18	4.90833	9.77384E-003	9.94063E-003	5.66066E-004	...........
EOC	QUANT	0.0097738	Open Circuit (V)
PSTATMODEL	IQUANT	4	Pstat Model
PSTATSECTION	LABEL	REF600-11020	Pstat Section
PSTATSERIALNO	LABEL	11020	Pstat Serial Number
CTRLMODE	IQUANT	1	Control Mode
IESTAB	IQUANT	0	I/E Stability
CASPEED	IQUANT	1	Control Amp Speed
CONVENTION	IQUANT	1	Current Convention
ICHRANGE	IQUANT	2	Ich Range
ICHRANGEMODE	TOGGLE	F	Ich Auto Range
ICHOFFSETENABLE	TOGGLE	T	Ich Offset Enable
ICHOFFSET	QUANT	0	Ich Offset (V)
ICHFILTER	IQUANT	3	Ich Filter
VCHRANGE	IQUANT	2	Vch Range
VCHRANGEMODE	TOGGLE	F	Vch Auto Range
VCHOFFSETENABLE	TOGGLE	T	Vch Offset Enable
VCHOFFSET	QUANT	0	Vch Offset (V)
VCHFILTER	IQUANT	3	Vch Filter
ACHRANGE	IQUANT	2	Ach Range
ACHOFFSETENABLE	TOGGLE	F	Ach Offset Enable
ACHOFFSET	QUANT	0	Ach Offset (V)
ACHFILTER	IQUANT	3	Ach Filter
IERANGELOWERLIMIT	IQUANT	1	I/E Range Lower Limit
IERANGEMODE	TOGGLE	F	I/E AutoRange
IERANGE	IQUANT	5	I/E Range
POSFEEDENABLE	TOGGLE	F	Positive Feedback IR Comp
POSFEEDRESISTANCE	QUANT	0	Positive Feedback Resistance (ohm)
ACHSELECT	IQUANT	0	Ach Select
CABLEID	IQUANT	14	Cable ID
DCCALDATE	LABEL	8/19/2019	DC Calibration Date
ACCALDATE	LABEL	8/19/2019	AC Calibration Date
THERMOSELECT	IQUANT	1	Thermo Select
FRAMEWORKVERSION	QUANT	6.33	Framework Version
INSTRUMENTVERSION	LABEL	3.50	Instrument Version
ZCURVE	TABLE
	Pt	Time	Freq	Zreal	Zimag	Zsig	Zmod	Zphz	Idc	Vdc	IERange
	#	s	Hz	ohm	ohm	V	ohm	°	A	V	#
	0	1	1000078	2217.788	-1387.049	1	2615.815	-32.0227	-3.497966E-006	0.0127428	8
	1	3	794390.6	2478.98	-1325.474	1	2811.089	-28.13275	-3.077783E-007	0.0122615	8
	2	4	630984.4	2710.939	-1224.131	1	2974.506	-24.30166	5.473164E-006	0.0105378	8
	3	6	501234.4	2900.897	-1113.145	1	3107.136	-20.99302	-2.00419E-006	0.0116571	8
	4	7	398109.4	3049.445	-999.082	1	3208.937	-18.14023	-2.053196E-006	0.011771	8
	5	9	316265.6	3176.157	-899.76	1	3301.142	-15.81667	-2.119402E-006	0.011573	8
	6	10	251203.1	3283.714	-811.7707	1	3382.566	-13.88575	9.948996E-007	0.0110625	8
	7	12	199546.9	3375.21	-752.6125	1	3458.102	-12.57031	5.493167E-006	0.0103457	8
	8	13	158578.1	3472.923	-671.4104	1	3537.228	-10.94185	-1.185058E-006	0.0116144	8
	9	15	125953.1	3533.892	-569.7216	1	3579.522	-9.158222	-9.008308E-007	0.0137575	7
	10	16	100078.1	3589.314	-544.3491	1	3630.357	-8.623663	-1.485436E-008	0.0113202	7
	11	17	79453.13	3635.931	-537.1879	1	3675.4	-8.404323	-1.448558E-008	0.0113121	7
	12	19	63140.62	3691.861	-545.5815	1	3731.957	-8.406301	-5.245636E-008	0.0113169	7
	13	20	50203.12	3747.908	-560.8668	1	3789.642	-8.511038	-4.471467E-008	0.0114199	7
	14	22	39890.62	3807.083	-588.7153	1	3852.333	-8.790414	8.155875E-008	0.0112353	7
	15	23	31640.63	3868.959	-623.4904	1	3918.876	-9.154619	8.979426E-008	0.0110792	7
	16	24	25171.88	3934.919	-671.368	1	3991.782	-9.68245	-5.172188E-008	0.0113311	7
	17	26	20015.62	4002.403	-721.2994	1	4066.879	-10.21599	-8.445667E-009	0.0113128	7
	18	27	15890.62	4081.587	-797.7648	1	4158.819	-11.0593	3.8692E-008	0.0112204	7
	19	28	12609.37	4161.564	-887.6134	1	4255.17	-12.04011	-6.084434E-009	0.0113073	7
	20	30	10078.13	4251.228	-984.078	1	4363.639	-13.03332	-4.749475E-008	0.011289	7
	21	31	8015.625	4347.123	-1119.228	1	4488.891	-14.43803	9.220864E-008	0.0111084	7
	22	32	6328.125	4453.444	-1254.022	1	4626.634	-15.72641	1.490383E-007	0.0110523	7
	23	34	5015.625	4567.561	-1428.892	1	4785.849	-17.3715	-4.415056E-008	0.0112901	7
	24	35	3984.375	4691.755	-1634.445	1	4968.297	-19.20657	-6.738497E-008	0.0113652	7
	25	37	3170.956	4816.991	-1887.368	1	5173.544	-21.39598	-4.485067E-008	0.0112782	7
	26	38	2527.573	4953.354	-2188.181	1	5415.15	-23.83381	-5.122027E-008	0.0112984	7
	27	39	1976.103	5112.176	-2589.455	1	5730.587	-26.86345	8.59328E-008	0.0112168	7
	28	41	1577.524	5267.456	-3018.485	1	6071.024	-29.81461	-1.903309E-008	0.0113316	7
	29	42	1265.625	5450.709	-3571.359	1	6516.505	-33.23322	-1.450608E-009	0.0111785	7
	30	44	998.264	5663.969	-4281.726	1	7100.262	-37.08777	8.99375E-008	0.0112165	7
	31	45	796.875	5906.862	-5104.319	1	7806.734	-40.83141	9.16051E-008	0.0110669	7
	32	46	627.7902	6205.646	-6171.477	1	8751.981	-44.84182	-4.417853E-008	0.011277	7
	33	48	505.5147	6500.049	-7362.172	1	9821.01	-48.55877	8.744269E-008	0.0112075	7
	34	49	397.9953	6922.524	-8952.396	1	11316.66	-52.28667	1.410846E-009	0.0112118	6
	35	50	315.5048	7396.483	-10857.69	1	13137.64	-55.73651	1.655785E-009	0.0112109	6
	36	52	252.4038	7942.727	-13088.89	1	15310.32	-58.74939	8.652769E-010	0.0112101	6
	37	53	198.6229	8648.795	-16026.69	1	18211.44	-61.64651	1.033649E-009	0.0112156	6
	38	55	158.3615	9469.953	-19417.5	1	21603.69	-64.00142	-1.255742E-010	0.0112149	6
	39	56	125.558	10505.34	-23673.88	1	25900.09	-66.07064	3.71846E-010	0.0112181	6
	40	57	100.4464	11779.68	-28650.12	1	30977.25	-67.64968	1.860583E-009	0.0112123	6
	41	59	79.00281	13293.9	-35157.52	1	37586.95	-69.2872	1.417965E-009	0.0112129	6
	42	60	63.3446	14951.11	-42038.09	1	44617.68	-70.42175	1.16085E-009	0.0112149	6
	43	62	49.86702	18627.51	-52588.27	1	55789.87	-70.49512	1.006066E-009	0.0112124	6
	44	63	39.72458	21622.72	-63746.67	1	67314.04	-71.26318	9.540251E-011	0.0112119	6
	45	64	31.6723	25673.9	-76881.81	1	81055.3	-71.53378	-5.795474E-010	0.011212	6
	46	66	24.93351	32486.23	-94312.61	1	99750.8	-70.9936	-1.463193E-011	0.0112107	6
	47	67	19.86229	40417.96	-113647.9	1	120621.1	-70.42248	9.334544E-010	0.0112228	5
	48	68	15.83615	51458.21	-138546	1	147793.6	-69.6242	-2.235027E-009	0.0112188	5
	49	70	12.40079	68131.08	-166081.8	1	179513.2	-67.69528	-1.539365E-009	0.0112169	5
	50	71	9.93114	84411.05	-193163.7	1	210802	-66.39505	4.04953E-010	0.0112176	5
	51	73	7.944915	106617.1	-225275	1	249230.9	-64.67297	-3.159114E-010	0.0112117	5
	52	75	6.317385	133968.5	-261739.4	1	294032.4	-62.89484	2.925613E-010	0.011205	5
	53	77	5.008013	167724.1	-301601.4	1	345101.2	-60.92104	-1.066612E-011	0.0112254	5
	54	79	3.945707	208106.3	-345750.7	1	403549	-58.95639	-1.742734E-010	0.0112152	5
	55	82	3.158693	251081.5	-389464.8	1	463384	-57.19079	1.94286E-010	0.011222	5
	56	85	2.504006	300274.3	-438750.5	1	531664	-55.61285	-2.781189E-010	0.0112139	5
	57	88	1.998082	351126.1	-489383.4	1	602316.9	-54.34106	3.566551E-011	0.0111723	5
	58	91	1.584686	405665.8	-548117	1	681906.9	-53.49456	-5.917279E-011	0.0112328	5
	59	95	1.266892	463134.7	-614937	1	769832	-53.01507	-6.163629E-011	0.0111805	5
	60	99	0.999041	527630.9	-696936.5	1	874136.6	-52.87167	1.586863E-010	0.0112555	5
