EXPLAIN
TAG	EISPOT
TITLE	LABEL	Potentiostatic EIS	Test &Identifier
DATE	LABEL	11/22/2019	Date
TIME	LABEL	10:41:53	Time
NOTES	NOTES	4	&Notes...
	
	
	
	
PSTAT	PSTAT	REF600-11020	Potentiostat
VDC	POTEN	0.00000E+000	T	DC &Voltage (V)
FREQINIT	QUANT	1.00000E+006	Initial Fre&q. (Hz)
FREQFINAL	QUANT	1.00000E+000	Final Fre&q. (Hz)
PTSPERDEC	QUANT	1.00000E+001	Points/&decade
VAC	QUANT	2.50000E+001	AC &Voltage (mV rms)
AREA	QUANT	1.00000E-002	&Area (cm^2)
CONDIT	TWOPARAM	T	5.00000E+000	0.00000E+000	Conditionin&g	Time(s)	E(V)
DELAY	TWOPARAM	T	5.00000E+000	0.00000E+000	Init. De&lay	Time(s)	Stab.(mV/s)
SPEED	SELECTOR	0	&Optimize for:
ZGUESS	QUANT	1.00000E+005	E&stimated Z (ohms)
OCVCURVE	TABLE	19
	Pt	T	Vf	Vm	Ach	Over
	#	s	V vs. Ref.	V	V	bits
	0	0.258333	3.59444E-002	3.59444E-002	5.66932E-004	...........
	1	0.516667	3.59817E-002	3.78976E-002	5.58866E-004	...........
	2	0.775	3.62132E-002	3.98757E-002	5.61799E-004	...........
	3	1.03333	3.68791E-002	4.19220E-002	5.61632E-004	...........
	4	1.29167	3.80990E-002	4.39141E-002	5.61632E-004	...........
	5	1.55	3.97720E-002	4.59032E-002	5.59199E-004	...........
	6	1.80833	4.16914E-002	4.76867E-002	5.57933E-004	...........
	7	2.06667	4.36785E-002	4.94724E-002	5.56366E-004	...........
	8	2.325	4.56255E-002	5.10927E-002	5.61199E-004	...........
	9	2.58333	4.74784E-002	5.23107E-002	5.55299E-004	...........
	10	2.84167	4.92009E-002	5.36587E-002	5.60966E-004	...........
	11	3.1	5.07721E-002	5.50152E-002	5.59166E-004	...........
	12	3.35833	5.22153E-002	5.64407E-002	5.58066E-004	...........
	13	3.61667	5.35909E-002	5.78009E-002	5.58966E-004	...........
	14	3.875	5.49446E-002	5.87903E-002	5.56799E-004	...........
	15	4.13333	5.62679E-002	5.98557E-002	5.55199E-004	...........
	16	4.39167	5.75218E-002	6.10201E-002	5.54299E-004	...........
	17	4.65	5.86966E-002	6.21662E-002	5.60666E-004	...........
	18	4.90833	5.98248E-002	6.32306E-002	5.55866E-004	...........
EOC	QUANT	0.0598248	Open Circuit (V)
PSTATMODEL	IQUANT	4	Pstat Model
PSTATSECTION	LABEL	REF600-11020	Pstat Section
PSTATSERIALNO	LABEL	11020	Pstat Serial Number
CTRLMODE	IQUANT	1	Control Mode
IESTAB	IQUANT	0	I/E Stability
CASPEED	IQUANT	1	Control Amp Speed
CONVENTION	IQUANT	1	Current Convention
ICHRANGE	IQUANT	2	Ich Range
ICHRANGEMODE	TOGGLE	F	Ich Auto Range
ICHOFFSETENABLE	TOGGLE	T	Ich Offset Enable
ICHOFFSET	QUANT	0	Ich Offset (V)
ICHFILTER	IQUANT	3	Ich Filter
VCHRANGE	IQUANT	2	Vch Range
VCHRANGEMODE	TOGGLE	F	Vch Auto Range
VCHOFFSETENABLE	TOGGLE	T	Vch Offset Enable
VCHOFFSET	QUANT	0	Vch Offset (V)
VCHFILTER	IQUANT	3	Vch Filter
ACHRANGE	IQUANT	2	Ach Range
ACHOFFSETENABLE	TOGGLE	F	Ach Offset Enable
ACHOFFSET	QUANT	0	Ach Offset (V)
ACHFILTER	IQUANT	3	Ach Filter
IERANGELOWERLIMIT	IQUANT	1	I/E Range Lower Limit
IERANGEMODE	TOGGLE	F	I/E AutoRange
IERANGE	IQUANT	6	I/E Range
POSFEEDENABLE	TOGGLE	F	Positive Feedback IR Comp
POSFEEDRESISTANCE	QUANT	0	Positive Feedback Resistance (ohm)
ACHSELECT	IQUANT	0	Ach Select
CABLEID	IQUANT	14	Cable ID
DCCALDATE	LABEL	8/19/2019	DC Calibration Date
ACCALDATE	LABEL	8/19/2019	AC Calibration Date
THERMOSELECT	IQUANT	1	Thermo Select
FRAMEWORKVERSION	QUANT	6.33	Framework Version
INSTRUMENTVERSION	LABEL	3.50	Instrument Version
ZCURVE	TABLE
	Pt	Time	Freq	Zreal	Zimag	Zsig	Zmod	Zphz	Idc	Vdc	IERange
	#	s	Hz	ohm	ohm	V	ohm	°	A	V	#
	0	1	1000078	2325.41	-1864.807	1	2980.778	-38.72704	-1.256201E-006	0.0624331	8
	1	2	794390.6	2651.854	-1895.215	1	3259.474	-35.55246	-4.423554E-007	0.061113	8
	2	2	630984.4	2974.334	-1905.905	1	3532.582	-32.65109	5.070907E-009	0.0610298	8
	3	2	501234.4	3311.803	-1897.519	1	3816.885	-29.81083	-4.142453E-006	0.0619741	8
	4	3	398109.4	3604.135	-1867.053	1	4059.024	-27.38555	-1.929395E-006	0.061461	8
	5	3	316265.6	3930.466	-1809.969	1	4327.187	-24.72594	6.332797E-006	0.0605228	8
	6	3	251203.1	4071.26	-1355.175	1	4290.88	-18.41073	-6.484172E-006	0.062164	8
	7	4	199546.9	4308.38	-1345.348	1	4513.546	-17.34166	4.252068E-006	0.0612257	8
	8	4	158578.1	4593.768	-1257.261	1	4762.71	-15.30637	-9.338377E-007	0.0616965	8
	9	4	125953.1	4851.492	-1190.303	1	4995.377	-13.7851	6.776192E-007	0.0636825	7
	10	5	100078.1	5021.074	-1088.195	1	5137.641	-12.22834	6.838971E-007	0.061482	7
	11	5	79453.13	5180.205	-1010.824	1	5277.905	-11.0415	-3.382891E-007	0.0627659	7
	12	5	63140.62	5321.562	-927.2193	1	5401.736	-9.88389	-6.953768E-007	0.0630266	7
	13	6	50203.12	5456.543	-850.7432	1	5522.466	-8.86178	-3.645958E-007	0.0603362	7
	14	6	39890.62	5562.97	-788.4175	1	5618.562	-8.06658	-1.151031E-006	0.0618201	7
	15	6	31640.63	5674.883	-742.3302	1	5723.229	-7.452534	-6.644351E-007	0.0629607	7
	16	7	25171.88	5754.449	-700.2583	1	5796.899	-6.938204	-3.563166E-007	0.0603474	7
	17	7	20015.62	5847.854	-680.9669	1	5887.369	-6.642026	8.365123E-008	0.0622659	7
	18	7	15890.62	5916.754	-682.8408	1	5956.027	-6.583267	8.445915E-008	0.0622627	7
	19	7	12609.37	6001.01	-702.5883	1	6041.999	-6.677694	1.190616E-006	0.0599797	7
	20	8	10078.13	6063.705	-739.3041	1	6108.607	-6.951356	9.080948E-007	0.0609671	7
	21	8	8015.625	6099.875	-793.5385	1	6151.274	-7.412036	-3.607046E-007	0.0603404	7
	22	9	6328.125	6162.111	-885.9678	1	6225.476	-8.181726	-1.150376E-006	0.0618151	7
	23	9	5015.625	6221.281	-1006.103	1	6302.109	-9.18632	-1.154832E-006	0.0618095	7
	24	9	3984.375	6325.786	-1167.051	1	6432.541	-10.45302	-3.598592E-007	0.060341	7
	25	10	3170.956	6404.812	-1369.092	1	6549.506	-12.06595	1.052827E-006	0.0593836	7
	26	10	2527.573	6486.37	-1618.687	1	6685.293	-14.01209	6.75716E-007	0.0614301	7
	27	11	1976.103	6560.671	-1952.644	1	6845.087	-16.57452	-6.698327E-007	0.0629633	7
	28	11	1577.524	6746.871	-2317.776	1	7133.888	-18.95931	-3.688317E-007	0.0603349	7
	29	11	1265.625	6796.747	-2797.558	1	7349.972	-22.37219	8.623284E-008	0.0622595	7
	30	12	998.264	6916.916	-3398.06	1	7706.525	-26.16341	-1.154809E-006	0.0618097	7
	31	12	796.875	7112.235	-4124.285	1	8221.533	-30.10884	9.075222E-008	0.0622559	7
	32	12	627.7902	7305.346	-5039.478	1	8874.932	-34.59924	-3.66852E-007	0.0603359	7
	33	13	505.5147	7574.379	-6092.245	1	9720.43	-38.81051	1.050049E-006	0.0593792	7
	34	13	397.9953	7872.446	-7456.773	1	10843.38	-43.44673	-4.118786E-010	0.0612415	7
	35	13	315.5048	8258.081	-9104.357	1	12291.67	-47.79049	-2.236914E-009	0.0611794	6
	36	14	252.4038	8708.144	-11038.63	1	14059.99	-51.73084	-3.816949E-009	0.0611911	6
	37	14	198.6229	9304.941	-13577.85	1	16460.25	-55.57704	-2.801987E-009	0.0611823	6
	38	14	158.3615	10016.18	-16518.96	1	19318.39	-58.7697	-3.244496E-009	0.0611746	6
	39	15	125.558	10930.51	-20197	1	22965.08	-61.57799	-2.726106E-009	0.0611783	6
	40	15	100.4464	12040.39	-24474.75	1	27276.08	-63.80505	-3.698381E-009	0.0611754	6
	41	15	79.00281	13632.73	-30086.95	1	33031.44	-65.62419	-3.127147E-009	0.0611713	6
	42	16	63.3446	15842.77	-36457.91	1	39751.39	-66.51266	-2.859347E-009	0.0611782	6
	43	16	49.86702	18427.13	-44747.74	1	48393.38	-67.61813	-2.242787E-009	0.061164	6
	44	16	39.72458	21545.12	-54150.12	1	58278.87	-68.3035	-3.625579E-009	0.061182	6
	45	17	31.6723	25901.54	-65267.02	1	70218.76	-68.3541	-2.696247E-009	0.0611764	6
	46	17	24.93351	32090.98	-79346.29	1	85590.1	-67.97952	-3.941599E-009	0.0611774	6
	47	17	19.86229	39763	-94983.49	1	102970.7	-67.28432	-5.034177E-009	0.061177	6
	48	18	15.83615	49173.95	-112094.1	1	122405.7	-66.31368	-2.935284E-009	0.0611798	5
	49	18	12.40079	62299.12	-133610.7	1	147421.1	-65.00161	-1.965916E-009	0.0611854	5
	50	18	9.93114	79049.81	-156251.8	1	175109.9	-63.16455	-2.501659E-009	0.0611853	5
	51	19	7.944915	97463.6	-180102.4	1	204782.9	-61.57968	-3.036941E-009	0.0611759	5
	52	19	6.317385	120429.4	-206782.2	1	239295.1	-59.78359	-2.890336E-009	0.0611909	5
	53	20	5.008013	147587.9	-235847.4	1	278219.7	-57.96262	-2.405307E-009	0.0611795	5
	54	21	3.945707	179873.7	-268646.5	1	323304	-56.1955	-2.777313E-009	0.06119	5
	55	23	3.158693	212689.5	-300343.3	1	368025.7	-54.69561	-2.394221E-009	0.0611765	5
	56	24	2.504006	250999.2	-337088.1	1	420272.5	-53.32826	-1.961398E-009	0.0611816	5
	57	26	1.998082	290476	-375232	1	474526.5	-52.2557	-2.039952E-009	0.0611609	5
	58	27	1.584686	335913.7	-420597.9	1	538275.6	-51.38712	-2.02981E-009	0.0611325	5
	59	29	1.266892	381508.7	-471372.1	1	606416.2	-51.01476	-1.798914E-009	0.0611483	5
	60	32	0.999041	434200	-531201.9	1	686079.5	-50.73772	-1.68353E-009	0.0611753	5
