EXPLAIN
TAG	EISPOT
TITLE	LABEL	Potentiostatic EIS	Test &Identifier
DATE	LABEL	11/22/2019	Date
TIME	LABEL	10:07:31	Time
NOTES	NOTES	4	&Notes...
	
	
	
	
PSTAT	PSTAT	REF600-11020	Potentiostat
VDC	POTEN	0.00000E+000	T	DC &Voltage (V)
FREQINIT	QUANT	1.00000E+006	Initial Fre&q. (Hz)
FREQFINAL	QUANT	1.00000E+000	Final Fre&q. (Hz)
PTSPERDEC	QUANT	1.00000E+001	Points/&decade
VAC	QUANT	2.50000E+001	AC &Voltage (mV rms)
AREA	QUANT	1.00000E-002	&Area (cm^2)
CONDIT	TWOPARAM	T	5.00000E+000	0.00000E+000	Conditionin&g	Time(s)	E(V)
DELAY	TWOPARAM	T	5.00000E+000	0.00000E+000	Init. De&lay	Time(s)	Stab.(mV/s)
SPEED	SELECTOR	0	&Optimize for:
ZGUESS	QUANT	1.00000E+005	E&stimated Z (ohms)
OCVCURVE	TABLE	19
	Pt	T	Vf	Vm	Ach	Over
	#	s	V vs. Ref.	V	V	bits
	0	0.258333	2.29051E-003	2.29051E-003	5.63932E-004	...........
	1	0.516667	2.28493E-003	1.99865E-003	5.66799E-004	...........
	2	0.775	2.25056E-003	1.71474E-003	5.67299E-004	...........
	3	1.03333	2.15412E-003	1.50902E-003	5.60166E-004	...........
	4	1.29167	1.98593E-003	1.29411E-003	5.56633E-004	...........
	5	1.55	1.77133E-003	1.09519E-003	5.57632E-004	...........
	6	1.80833	1.54459E-003	9.16228E-004	5.60766E-004	...........
	7	2.06667	1.32663E-003	7.44418E-004	5.62132E-004	...........
	8	2.325	1.12456E-003	5.86915E-004	5.61499E-004	...........
	9	2.58333	9.38383E-004	4.32538E-004	5.64332E-004	...........
	10	2.84167	7.65665E-004	2.91441E-004	5.60899E-004	...........
	11	3.1	6.03732E-004	1.45037E-004	5.60932E-004	...........
	12	3.35833	4.50214E-004	1.15307E-005	5.58232E-004	...........
	13	3.61667	3.03269E-004	-1.16732E-004	5.61399E-004	...........
	14	3.875	1.62121E-004	-2.39099E-004	5.65699E-004	...........
	15	4.13333	2.68107E-005	-3.59853E-004	5.66432E-004	...........
	16	4.39167	-1.02801E-004	-4.75450E-004	5.69299E-004	...........
	17	4.65	-2.27367E-004	-5.88339E-004	5.67932E-004	...........
	18	4.90833	-3.47586E-004	-6.95303E-004	5.66899E-004	...........
EOC	QUANT	-0.0003476	Open Circuit (V)
PSTATMODEL	IQUANT	4	Pstat Model
PSTATSECTION	LABEL	REF600-11020	Pstat Section
PSTATSERIALNO	LABEL	11020	Pstat Serial Number
CTRLMODE	IQUANT	1	Control Mode
IESTAB	IQUANT	0	I/E Stability
CASPEED	IQUANT	1	Control Amp Speed
CONVENTION	IQUANT	1	Current Convention
ICHRANGE	IQUANT	2	Ich Range
ICHRANGEMODE	TOGGLE	F	Ich Auto Range
ICHOFFSETENABLE	TOGGLE	T	Ich Offset Enable
ICHOFFSET	QUANT	0	Ich Offset (V)
ICHFILTER	IQUANT	3	Ich Filter
VCHRANGE	IQUANT	2	Vch Range
VCHRANGEMODE	TOGGLE	F	Vch Auto Range
VCHOFFSETENABLE	TOGGLE	T	Vch Offset Enable
VCHOFFSET	QUANT	0	Vch Offset (V)
VCHFILTER	IQUANT	3	Vch Filter
ACHRANGE	IQUANT	2	Ach Range
ACHOFFSETENABLE	TOGGLE	F	Ach Offset Enable
ACHOFFSET	QUANT	0	Ach Offset (V)
ACHFILTER	IQUANT	3	Ach Filter
IERANGELOWERLIMIT	IQUANT	1	I/E Range Lower Limit
IERANGEMODE	TOGGLE	F	I/E AutoRange
IERANGE	IQUANT	3	I/E Range
POSFEEDENABLE	TOGGLE	F	Positive Feedback IR Comp
POSFEEDRESISTANCE	QUANT	0	Positive Feedback Resistance (ohm)
ACHSELECT	IQUANT	0	Ach Select
CABLEID	IQUANT	14	Cable ID
DCCALDATE	LABEL	8/19/2019	DC Calibration Date
ACCALDATE	LABEL	8/19/2019	AC Calibration Date
THERMOSELECT	IQUANT	1	Thermo Select
FRAMEWORKVERSION	QUANT	6.33	Framework Version
INSTRUMENTVERSION	LABEL	3.50	Instrument Version
ZCURVE	TABLE
	Pt	Time	Freq	Zreal	Zimag	Zsig	Zmod	Zphz	Idc	Vdc	IERange
	#	s	Hz	ohm	ohm	V	ohm	°	A	V	#
	0	1	1000078	2257.32	-1160.218	1	2538.031	-27.20228	-4.463619E-007	0.0015431	8
	1	2	794390.6	2464	-1055.967	1	2680.739	-23.19794	-4.610232E-006	0.0023742	8
	2	2	630984.4	2631.51	-939.8839	1	2794.32	-19.65496	-2.193516E-006	0.0021158	8
	3	2	501234.4	2761.801	-826.8301	1	2882.914	-16.66669	-1.118903E-007	0.0018801	8
	4	3	398109.4	2854.526	-712.8816	1	2942.196	-14.02208	6.273456E-006	0.00056	8
	5	3	316265.6	2931.333	-630.7639	1	2998.429	-12.14373	-2.381951E-006	0.0014135	8
	6	3	251203.1	2995.278	-546.9937	1	3044.814	-10.34924	7.025382E-006	0.0005173	8
	7	3	199546.9	3043.976	-485.2132	1	3082.406	-9.056816	-2.126938E-006	0.0014063	8
	8	4	158578.1	3078.049	-431.3798	1	3108.131	-7.977878	7.432298E-007	0.0016493	8
	9	4	125953.1	3132.76	-352.6662	1	3152.548	-6.422954	-1.473409E-006	0.0050554	7
	10	4	100078.1	3158.341	-328.2406	1	3175.352	-5.933345	-1.165669E-006	0.0022761	7
	11	5	79453.13	3185.015	-324.9009	1	3201.544	-5.82455	-1.05472E-006	0.0027902	7
	12	5	63140.62	3213.276	-330.6896	1	3230.248	-5.875825	-2.808266E-007	0.0004009	7
	13	5	50203.12	3242.501	-344.0936	1	3260.707	-6.057548	1.218643E-007	-8.832649E-005	7
	14	6	39890.62	3272.802	-363.0761	1	3292.88	-6.330358	-9.989448E-007	0.0017143	7
	15	6	31640.63	3309.162	-391.8036	1	3332.276	-6.752365	9.668606E-007	0.0005581	7
	16	6	25171.88	3344.224	-426.5516	1	3371.318	-7.268756	-1.182026E-006	0.0026196	7
	17	7	20015.62	3391.01	-475.4628	1	3424.18	-7.981565	1.050656E-006	0.000154	7
	18	7	15890.62	3433.939	-530.14	1	3474.62	-8.776178	5.817894E-007	0.0014297	7
	19	7	12609.37	3485.503	-598.472	1	3536.51	-9.74286	9.378427E-007	-0.0003799	7
	20	7	10078.13	3543.368	-675.8986	1	3607.256	-10.79945	-6.876023E-007	0.0010554	7
	21	8	8015.625	3612.385	-782.5326	1	3696.171	-12.22284	7.517298E-007	-0.0004663	7
	22	8	6328.125	3684.855	-884.3364	1	3789.487	-13.49531	7.880129E-007	0.0010279	7
	23	8	5015.625	3770.617	-1017.284	1	3905.435	-15.09849	1.050575E-006	0.0001501	7
	24	9	3984.375	3867.813	-1169.039	1	4040.622	-16.81734	5.810846E-007	0.0014261	7
	25	9	3170.956	3966.866	-1348.994	1	4189.966	-18.78139	-1.167435E-006	0.0022547	7
	26	9	2527.573	4082.466	-1558.458	1	4369.819	-20.89408	-1.055499E-006	0.0027717	7
	27	10	1976.103	4224.074	-1830.426	1	4603.614	-23.42862	-2.796545E-007	0.000386	7
	28	10	1577.524	4317.852	-2107.621	1	4804.78	-26.01783	-1.166766E-006	0.0022512	7
	29	10	1265.625	4512.069	-2468.089	1	5142.979	-28.67853	-8.661782E-007	0.0028308	7
	30	11	998.264	4687.59	-2914.877	1	5519.965	-31.87452	9.656794E-007	0.0005494	7
	31	11	796.875	4865.88	-3432.856	1	5954.938	-35.20279	5.79872E-007	0.0014211	7
	32	11	627.7902	5072.273	-4103.943	1	6524.592	-38.9761	1.266675E-007	-0.000108	7
	33	12	505.5147	5273.504	-4852.679	1	7166.473	-42.62026	7.897053E-007	0.0010127	7
	34	12	397.9953	5532.69	-5863.917	1	8062.021	-46.66475	9.38182E-010	0.0012412	7
	35	12	315.5048	5818.59	-7090.411	1	9172.236	-50.62674	4.168478E-009	0.0012362	7
	36	13	252.4038	6144.56	-8544.247	1	10524.25	-54.27836	1.312736E-009	0.0011849	6
	37	13	198.6229	6565.699	-10478.13	1	12365.26	-57.92834	9.394641E-010	0.0011824	6
	38	13	158.3615	7062.735	-12735.98	1	14563.22	-60.98945	3.745055E-010	0.0011864	6
	39	14	125.558	7710.372	-15586.72	1	17389.53	-63.67951	4.812638E-010	0.0011759	6
	40	14	100.4464	8522.895	-18923.61	1	20754.34	-65.75394	-2.827321E-010	0.0011862	6
	41	14	79.00281	9684.25	-23339.13	1	25268.55	-67.46466	4.561413E-010	0.0011779	6
	42	15	63.3446	10806.98	-28410.7	1	30396.69	-69.17397	9.030032E-010	0.0011711	6
	43	15	49.86702	12803.5	-34807.86	1	37087.95	-69.80478	6.185153E-010	0.0011708	6
	44	15	39.72458	15419.54	-42217.7	1	44945.49	-69.93584	-1.98449E-011	0.0011787	6
	45	16	31.6723	18672.91	-51051.05	1	54358.88	-69.90903	-2.419151E-010	0.0011772	6
	46	16	24.93351	23171.3	-62007.41	1	66195.38	-69.50999	8.158066E-010	0.0011695	6
	47	16	19.86229	28696.47	-74285.64	1	79635.7	-68.8785	1.066521E-009	0.0011915	6
	48	17	15.83615	35160	-89230.12	1	95907.5	-68.49371	7.680458E-010	0.0011813	6
	49	17	12.40079	45570.51	-106279.1	1	115637	-66.79124	-7.637852E-010	0.0011817	5
	50	17	9.93114	56760.59	-124283.5	1	136631.4	-65.4537	7.40046E-010	0.001189	5
	51	18	7.944915	70582.26	-144343.6	1	160676.5	-63.94193	4.037336E-010	0.0011765	5
	52	18	6.317385	87317.34	-167677.2	1	189050.2	-62.49191	2.430944E-010	0.0011854	5
	53	19	5.008013	107232.1	-193606.5	1	221319.2	-61.01941	-1.00299E-010	0.0011628	5
	54	20	3.945707	130723.4	-222738.8	1	258265.7	-59.59171	3.28594E-010	0.0011661	5
	55	22	3.158693	155515.8	-253050.4	1	297018	-58.42659	3.5169E-010	0.0011905	5
	56	23	2.504006	184319.3	-288316.6	1	342198.8	-57.40942	8.348638E-011	0.0011843	5
	57	25	1.998082	213975	-327071	1	390846.2	-56.80665	1.174543E-010	0.0011654	5
	58	26	1.584686	248564.8	-372147.9	1	447524.9	-56.26027	3.170592E-010	0.0012104	5
	59	28	1.266892	285047.6	-424724.8	1	511510.8	-56.13307	2.955491E-010	0.0012148	5
	60	31	0.999041	326140.3	-490449.5	1	588989.1	-56.37679	2.983937E-010	0.0012001	5
