EXPLAIN
TAG	EISPOT
TITLE	LABEL	Potentiostatic EIS	Test &Identifier
DATE	LABEL	10/20/2019	Date
TIME	LABEL	9:33:01	Time
NOTES	NOTES	1	&Notes...
	
PSTAT	PSTAT	REF600-11020	Potentiostat
VDC	POTEN	0.00000E+000	T	DC &Voltage (V)
FREQINIT	QUANT	1.00000E+006	Initial Fre&q. (Hz)
FREQFINAL	QUANT	1.00000E+000	Final Fre&q. (Hz)
PTSPERDEC	QUANT	1.00000E+001	Points/&decade
VAC	QUANT	2.50000E+001	AC &Voltage (mV rms)
AREA	QUANT	1.00000E-002	&Area (cm^2)
CONDIT	TWOPARAM	T	5.00000E+000	0.00000E+000	Conditionin&g	Time(s)	E(V)
DELAY	TWOPARAM	T	5.00000E+000	0.00000E+000	Init. De&lay	Time(s)	Stab.(mV/s)
SPEED	SELECTOR	1	&Optimize for:
ZGUESS	QUANT	1.00000E+005	E&stimated Z (ohms)
OCVCURVE	TABLE	19
	Pt	T	Vf	Vm	Ach	Over
	#	s	V vs. Ref.	V	V	bits
	0	0.258333	7.74044E-004	7.74044E-004	5.88199E-004	...........
	1	0.516667	7.68585E-004	4.88294E-004	5.86532E-004	...........
	2	0.775	7.35347E-004	2.32231E-004	5.82899E-004	...........
	3	1.03333	6.42613E-004	4.98717E-006	5.79232E-004	...........
	4	1.29167	4.80056E-004	-2.13186E-004	5.86932E-004	...........
	5	1.55	2.69559E-004	-4.08448E-004	5.92032E-004	...........
	6	1.80833	4.30552E-005	-6.08266E-004	5.85332E-004	...........
	7	2.06667	-1.78598E-004	-7.99438E-004	5.81265E-004	...........
	8	2.325	-3.88830E-004	-9.86335E-004	5.88765E-004	...........
	9	2.58333	-5.88245E-004	-1.13442E-003	5.84099E-004	...........
	10	2.84167	-7.76628E-004	-1.26414E-003	5.73632E-004	...........
	11	3.1	-9.51622E-004	-1.44420E-003	5.84632E-004	...........
	12	3.35833	-1.11400E-003	-1.57781E-003	5.77799E-004	...........
	13	3.61667	-1.26812E-003	-1.69482E-003	5.76432E-004	...........
	14	3.875	-1.41618E-003	-1.85223E-003	5.75899E-004	...........
	15	4.13333	-1.55821E-003	-1.96453E-003	5.80765E-004	...........
	16	4.39167	-1.69451E-003	-2.05933E-003	5.82132E-004	...........
	17	4.65	-1.82499E-003	-2.24313E-003	5.86499E-004	...........
	18	4.90833	-1.95209E-003	-2.35562E-003	5.79365E-004	...........
EOC	QUANT	-0.0019521	Open Circuit (V)
PSTATMODEL	IQUANT	4	Pstat Model
PSTATSECTION	LABEL	REF600-11020	Pstat Section
PSTATSERIALNO	LABEL	11020	Pstat Serial Number
CTRLMODE	IQUANT	1	Control Mode
IESTAB	IQUANT	0	I/E Stability
CASPEED	IQUANT	1	Control Amp Speed
CONVENTION	IQUANT	1	Current Convention
ICHRANGE	IQUANT	2	Ich Range
ICHRANGEMODE	TOGGLE	F	Ich Auto Range
ICHOFFSETENABLE	TOGGLE	T	Ich Offset Enable
ICHOFFSET	QUANT	0	Ich Offset (V)
ICHFILTER	IQUANT	3	Ich Filter
VCHRANGE	IQUANT	2	Vch Range
VCHRANGEMODE	TOGGLE	F	Vch Auto Range
VCHOFFSETENABLE	TOGGLE	T	Vch Offset Enable
VCHOFFSET	QUANT	0	Vch Offset (V)
VCHFILTER	IQUANT	3	Vch Filter
ACHRANGE	IQUANT	2	Ach Range
ACHOFFSETENABLE	TOGGLE	F	Ach Offset Enable
ACHOFFSET	QUANT	0	Ach Offset (V)
ACHFILTER	IQUANT	3	Ach Filter
IERANGELOWERLIMIT	IQUANT	1	I/E Range Lower Limit
IERANGEMODE	TOGGLE	F	I/E AutoRange
IERANGE	IQUANT	4	I/E Range
POSFEEDENABLE	TOGGLE	F	Positive Feedback IR Comp
POSFEEDRESISTANCE	QUANT	0	Positive Feedback Resistance (ohm)
ACHSELECT	IQUANT	0	Ach Select
CABLEID	IQUANT	14	Cable ID
DCCALDATE	LABEL	8/19/2019	DC Calibration Date
ACCALDATE	LABEL	8/19/2019	AC Calibration Date
THERMOSELECT	IQUANT	1	Thermo Select
FRAMEWORKVERSION	QUANT	6.33	Framework Version
INSTRUMENTVERSION	LABEL	3.50	Instrument Version
ZCURVE	TABLE
	Pt	Time	Freq	Zreal	Zimag	Zsig	Zmod	Zphz	Idc	Vdc	IERange
	#	s	Hz	ohm	ohm	V	ohm	°	A	V	#
	0	2	1000078	2651.193	-1120.8	1	2878.37	-22.91635	3.586903E-008	-0.0002777	8
	1	3	794390.6	2834	-1050.632	1	3022.479	-20.34095	-7.387962E-008	-0.0002236	8
	2	5	630984.4	2998.449	-969.17	1	3151.188	-17.91207	3.34103E-006	-0.0009701	8
	3	6	501234.4	3134.62	-880.0345	1	3255.811	-15.68192	1.23693E-006	-0.0007207	8
	4	8	398109.4	3252.612	-776.8586	1	3344.098	-13.43295	-5.27023E-007	-0.000236	8
	5	9	316265.6	3365.221	-713.9064	1	3440.113	-11.9773	1.124436E-006	-0.0007331	8
	6	11	251203.1	3439.247	-628.1802	1	3496.145	-10.351	1.045451E-006	-0.0006849	8
	7	12	199546.9	3512.62	-552.2174	1	3555.762	-8.934319	2.739693E-006	-0.0010305	8
	8	14	158578.1	3567.815	-483.5338	1	3600.432	-7.718077	-3.228296E-006	0.0002159	8
	9	15	125953.1	3654.249	-358.4299	1	3671.785	-5.601983	7.504154E-007	-0.0019989	7
	10	16	100078.1	3678.261	-341.2555	1	3694.058	-5.300518	4.323008E-008	-0.0006277	7
	11	18	79453.13	3712.98	-312.071	1	3726.072	-4.804341	-4.533194E-008	-0.0004686	7
	12	19	63140.62	3742.533	-288.5113	1	3753.637	-4.408205	-3.994214E-008	-0.0004699	7
	13	21	50203.12	3767.615	-270.4007	1	3777.306	-4.105064	-5.928853E-008	-0.0003275	7
	14	22	39890.62	3792.88	-257.7749	1	3801.63	-3.888005	-5.951047E-008	-0.0003234	7
	15	23	31640.63	3813.855	-252.5914	1	3822.21	-3.789163	-4.05313E-008	-0.0004571	7
	16	25	25171.88	3833.649	-253.0817	1	3841.994	-3.77695	1.340099E-008	-0.000579	7
	17	26	20015.62	3844.579	-277.2672	1	3854.564	-4.124972	-3.841539E-008	-0.0004531	7
	18	27	15890.62	3871.982	-276.7463	1	3881.86	-4.08821	-4.80839E-008	-0.000405	7
	19	29	12609.37	3889.747	-300.1497	1	3901.31	-4.412446	-3.95671E-008	-0.0004621	7
	20	30	10078.13	3907.867	-336.5669	1	3922.334	-4.922479	7.276537E-008	-0.0006222	7
	21	31	8015.625	3917.367	-360.6837	1	3933.936	-5.260561	-1.312602E-008	-0.0005394	7
	22	33	6328.125	3949.811	-442.9616	1	3974.572	-6.398844	-4.034691E-008	-0.000456	7
	23	34	5015.625	3973.263	-519.7982	1	4007.12	-7.453335	3.769497E-008	-0.0005341	7
	24	36	3984.375	4014.85	-599.206	1	4059.318	-8.488591	4.728221E-008	-0.000652	7
	25	37	3170.956	4031.671	-733.0471	1	4097.771	-10.30507	-4.250504E-008	-0.0004882	7
	26	38	2527.573	4067.038	-877.9099	1	4160.712	-12.18096	-1.180083E-008	-0.0005489	7
	27	40	1976.103	4113.269	-1071.62	1	4250.57	-14.60253	8.577808E-008	-0.0005559	7
	28	41	1577.524	4164.607	-1307.068	1	4364.903	-17.42454	-1.484346E-008	-0.0005347	7
	29	42	1265.625	4211.983	-1558.253	1	4490.986	-20.30231	-5.262516E-008	-0.0003988	7
	30	44	998.264	4278.876	-1903.975	1	4683.364	-23.98767	-4.199088E-008	-0.0004823	7
	31	45	796.875	4356.058	-2320.227	1	4935.452	-28.04171	-5.593029E-008	-0.0003364	7
	32	47	627.7902	4452.659	-2853.381	1	5288.474	-32.65282	-1.254764E-008	-0.0005421	7
	33	48	505.5147	4558.33	-3452.454	1	5718.2	-37.14009	-1.282287E-008	-0.0005464	7
	34	49	397.9953	4701.244	-4268.711	1	6350.086	-42.23933	4.889024E-009	-0.0004911	7
	35	51	315.5048	4873.51	-5248.444	1	7162.21	-47.12136	5.23583E-009	-0.0004913	7
	36	52	252.4038	5080.503	-6405.518	1	8175.706	-51.58049	6.227372E-009	-0.0004906	7
	37	53	198.6229	5364.913	-7939.899	1	9582.5	-55.95348	6.758668E-009	-0.0004918	7
	38	55	158.3615	5709.012	-9727.11	1	11278.72	-59.59059	1.366999E-009	-0.0005576	6
	39	56	125.558	6171.734	-11971.96	1	13469.15	-62.72818	1.306023E-009	-0.0005542	6
	40	58	100.4464	6751.623	-14623.79	1	16107.13	-65.21781	1.926702E-009	-0.0005564	6
	41	59	79.00281	7584.012	-18081.37	1	19607.47	-67.24497	1.735743E-010	-0.0005587	6
	42	60	63.3446	8561.598	-22223.29	1	23815.45	-68.93065	9.614773E-010	-0.0005548	6
	43	62	49.86702	9788.2	-26983.38	1	28703.86	-70.06181	1.295555E-009	-0.0005595	6
	44	63	39.72458	11622.02	-33030.27	1	35015.29	-70.61509	1.448896E-009	-0.0005514	6
	45	65	31.6723	13891.1	-40033.11	1	42374.66	-70.86372	1.112943E-009	-0.000559	6
	46	66	24.93351	17184.89	-48991.33	1	51917.93	-70.67046	8.917536E-010	-0.000561	6
	47	67	19.86229	21120.36	-59030.16	1	62694.73	-70.31334	6.024505E-011	-0.0005607	6
	48	69	15.83615	26094.65	-70190.59	1	74884.23	-69.60645	2.116109E-009	-0.0005628	6
	49	70	12.40079	33675.21	-85934.15	1	92296.79	-68.60117	-4.278341E-010	-0.0005603	6
	50	72	9.93114	42158.27	-100877.1	1	109332.1	-67.31911	1.501808E-009	-0.0005625	5
	51	73	7.944915	52849.45	-118189.4	1	129467.4	-65.90776	-9.181927E-010	-0.0005613	5
	52	75	6.317385	65781.92	-139002.1	1	153781.8	-64.67442	1.072229E-009	-0.0005582	5
	53	77	5.008013	82035.61	-162305.9	1	181859.9	-63.18622	7.86518E-010	-0.0005401	5
	54	79	3.945707	102228.4	-188701.1	1	214613	-61.55348	6.232229E-011	-0.0005528	5
	55	82	3.158693	124034	-215648.5	1	248774.4	-60.09389	2.922114E-010	-0.0005398	5
	56	85	2.504006	150089.7	-246749.3	1	288811.6	-58.68919	3.889261E-010	-0.0005596	5
	57	88	1.998082	178240.8	-279646.4	1	331620.1	-57.48741	-1.6691E-010	-0.0005178	5
	58	91	1.584686	210198.6	-317849.8	1	381066.9	-56.52276	4.188403E-010	-0.0005228	5
	59	95	1.266892	244711.1	-357969.4	1	433619.2	-55.64314	3.679191E-011	-0.0005092	5
	60	99	0.999041	283176.7	-406985.8	1	495808.9	-55.17019	2.006735E-010	-0.0005907	5
