EXPLAIN
TAG	EISPOT
TITLE	LABEL	Potentiostatic IDE	Test &Identifier
DATE	LABEL	9/4/2019	Date
TIME	LABEL	12:16:56	Time
NOTES	NOTES	1	&Notes...
	
PSTAT	PSTAT	REF600-11020	Potentiostat
VDC	POTEN	0.00000E+000	T	DC &Voltage (V)
FREQINIT	QUANT	1.00000E+006	Initial Fre&q. (Hz)
FREQFINAL	QUANT	1.00000E+000	Final Fre&q. (Hz)
PTSPERDEC	QUANT	1.00000E+001	Points/&decade
VAC	QUANT	2.50000E+001	AC &Voltage (mV rms)
AREA	QUANT	1.00000E-002	&Area (cm^2)
CONDIT	TWOPARAM	T	5.00000E+000	0.00000E+000	Conditionin&g	Time(s)	E(V)
DELAY	TWOPARAM	T	5.00000E+000	0.00000E+000	Init. De&lay	Time(s)	Stab.(mV/s)
SPEED	SELECTOR	1	&Optimize for:
ZGUESS	QUANT	1.00000E+007	E&stimated Z (ohms)
OCVCURVE	TABLE	19
	Pt	T	Vf	Vm	Ach	Over
	#	s	V vs. Ref.	V	V	bits
	0	0.258333	6.26866E-002	6.26866E-002	5.67132E-004	...........
	1	0.516667	6.26835E-002	6.25243E-002	5.69832E-004	...........
	2	0.775	6.26669E-002	6.24960E-002	5.68232E-004	...........
	3	1.03333	6.26291E-002	6.25392E-002	5.68599E-004	...........
	4	1.29167	6.25833E-002	6.26061E-002	5.63399E-004	...........
	5	1.55	6.25556E-002	6.26183E-002	5.67666E-004	...........
	6	1.80833	6.25636E-002	6.29408E-002	5.65766E-004	...........
	7	2.06667	6.26239E-002	6.33558E-002	5.66532E-004	...........
	8	2.325	6.27645E-002	6.37218E-002	5.63266E-004	...........
	9	2.58333	6.29991E-002	6.39196E-002	5.69532E-004	...........
	10	2.84167	6.32950E-002	6.40603E-002	5.73166E-004	...........
	11	3.1	6.35903E-002	6.42036E-002	5.68666E-004	...........
	12	3.35833	6.38382E-002	6.42809E-002	5.74099E-004	...........
	13	3.61667	6.40285E-002	6.44607E-002	5.75265E-004	...........
	14	3.875	6.41792E-002	6.46544E-002	5.73866E-004	...........
	15	4.13333	6.43219E-002	6.49556E-002	5.67866E-004	...........
	16	4.39167	6.44886E-002	6.52925E-002	5.68832E-004	...........
	17	4.65	6.47022E-002	6.56497E-002	5.66599E-004	...........
	18	4.90833	6.49709E-002	6.60907E-002	5.70932E-004	...........
EOC	QUANT	0.0649709	Open Circuit (V)
PSTATMODEL	IQUANT	4	Pstat Model
PSTATSECTION	LABEL	REF600-11020	Pstat Section
PSTATSERIALNO	LABEL	11020	Pstat Serial Number
CTRLMODE	IQUANT	1	Control Mode
IESTAB	IQUANT	0	I/E Stability
CASPEED	IQUANT	1	Control Amp Speed
CONVENTION	IQUANT	1	Current Convention
ICHRANGE	IQUANT	2	Ich Range
ICHRANGEMODE	TOGGLE	F	Ich Auto Range
ICHOFFSETENABLE	TOGGLE	T	Ich Offset Enable
ICHOFFSET	QUANT	0	Ich Offset (V)
ICHFILTER	IQUANT	3	Ich Filter
VCHRANGE	IQUANT	2	Vch Range
VCHRANGEMODE	TOGGLE	F	Vch Auto Range
VCHOFFSETENABLE	TOGGLE	T	Vch Offset Enable
VCHOFFSET	QUANT	0	Vch Offset (V)
VCHFILTER	IQUANT	3	Vch Filter
ACHRANGE	IQUANT	2	Ach Range
ACHOFFSETENABLE	TOGGLE	F	Ach Offset Enable
ACHOFFSET	QUANT	0	Ach Offset (V)
ACHFILTER	IQUANT	3	Ach Filter
IERANGELOWERLIMIT	IQUANT	1	I/E Range Lower Limit
IERANGEMODE	TOGGLE	F	I/E AutoRange
IERANGE	IQUANT	4	I/E Range
POSFEEDENABLE	TOGGLE	F	Positive Feedback IR Comp
POSFEEDRESISTANCE	QUANT	0	Positive Feedback Resistance (ohm)
ACHSELECT	IQUANT	0	Ach Select
CABLEID	IQUANT	14	Cable ID
DCCALDATE	LABEL	8/19/2019	DC Calibration Date
ACCALDATE	LABEL	8/19/2019	AC Calibration Date
THERMOSELECT	IQUANT	1	Thermo Select
FRAMEWORKVERSION	QUANT	6.33	Framework Version
INSTRUMENTVERSION	LABEL	3.50	Instrument Version
ZCURVE	TABLE
	Pt	Time	Freq	Zreal	Zimag	Zsig	Zmod	Zphz	Idc	Vdc	IERange
	#	s	Hz	ohm	ohm	V	ohm	°	A	V	#
	0	2	1000078	2331.637	-2216.928	1	3217.344	-43.55539	1.075958E-005	0.0665827	8
	1	4	794390.6	2781.486	-2207.588	1	3551.072	-38.43805	1.055832E-005	0.0661095	8
	2	5	630984.4	3189.577	-2126.559	1	3833.491	-33.69223	1.083657E-005	0.0663514	8
	3	7	501234.4	3564.465	-1980.397	1	4077.669	-29.05631	1.218396E-005	0.0655572	8
	4	8	398109.4	3845.933	-1847.582	1	4266.703	-25.65958	9.416444E-006	0.0661874	8
	5	10	316265.6	4113.658	-1715.167	1	4456.902	-22.63342	1.059668E-005	0.0659918	8
	6	12	251203.1	4302.352	-1585.75	1	4585.285	-20.23275	1.063258E-005	0.0658736	8
	7	13	199546.9	4499.017	-1479.447	1	4736.023	-18.20282	9.473171E-006	0.0662874	8
	8	15	158578.1	4675.869	-1423.938	1	4887.878	-16.93702	9.3935E-006	0.0661804	8
	9	16	125953.1	4781.585	-1370.014	1	4973.981	-15.98801	1.617535E-006	0.0642452	7
	10	18	100078.1	4926.253	-1387.37	1	5117.887	-15.72869	9.016221E-007	0.066345	7
	11	19	79453.13	5034.76	-1383.907	1	5221.495	-15.36935	8.723603E-007	0.0663181	7
	12	20	63140.62	5161.949	-1452.327	1	5362.366	-15.71407	8.485868E-007	0.0663834	7
	13	22	50203.12	5292.652	-1547.411	1	5514.223	-16.29732	9.513413E-007	0.0661785	7
	14	23	39890.62	5431.272	-1687.398	1	5687.357	-17.25908	8.67394E-007	0.066412	7
	15	24	31640.63	5587.121	-1858.078	1	5887.986	-18.39529	9.125126E-007	0.0662908	7
	16	26	25171.88	5755.213	-2075.352	1	6117.971	-19.8295	8.929709E-007	0.0663052	7
	17	27	20015.62	5938.165	-2340.705	1	6382.844	-21.51336	8.713017E-007	0.0663547	7
	18	28	15890.62	6148.957	-2663.245	1	6700.936	-23.41847	8.869885E-007	0.0663244	7
	19	30	12609.37	6390.07	-3065.039	1	7087.133	-25.62501	8.677629E-007	0.0664221	7
	20	31	10078.13	6656.445	-3521.776	1	7530.682	-27.88231	8.921869E-007	0.0662902	7
	21	32	8015.625	6963.733	-4078.223	1	8070.036	-30.35484	8.938244E-007	0.0663234	7
	22	34	6328.125	7329.422	-4764.463	1	8741.884	-33.02573	8.723883E-007	0.0664001	7
	23	35	5015.625	7753.359	-5563.868	1	9543.12	-35.6635	9.614645E-007	0.0661886	7
	24	36	3984.375	8236.734	-6501.313	1	10493.37	-38.28429	8.62485E-007	0.0663159	7
	25	38	3170.956	8803.327	-7611.153	1	11637.36	-40.84594	8.692533E-007	0.0664007	7
	26	39	2527.573	9458.654	-8884.694	1	12977.05	-43.20781	8.195234E-008	0.0662943	6
	27	40	1976.103	10296.71	-10554.3	1	14745.02	-45.7078	9.314547E-008	0.0661834	6
	28	42	1577.524	11193.7	-12365.1	1	16679.17	-47.84656	8.859099E-008	0.0662693	6
	29	43	1265.625	12216.93	-14443.25	1	18917.21	-49.77353	8.864334E-008	0.0662479	6
	30	44	998.264	13514.63	-17083.18	1	21782.56	-51.65223	8.858039E-008	0.0662996	6
	31	46	796.875	14987.61	-20006.65	1	24997.89	-53.16198	8.335347E-008	0.0662849	6
	32	47	627.7902	16796.8	-23707.96	1	29055.12	-54.68288	8.361121E-008	0.0663276	6
	33	48	505.5147	18763.88	-27620.12	1	33390.93	-55.80955	8.544359E-008	0.0662113	6
	34	50	397.9953	21285.35	-32675.37	1	38996.74	-56.91903	8.870963E-008	0.0658789	6
	35	51	315.5048	24190.98	-38497.14	1	45466.84	-57.8554	8.867308E-008	0.065883	6
	36	52	252.4038	27484.84	-45057.15	1	52778.43	-58.61683	8.854552E-008	0.0658738	6
	37	54	198.6229	31645.21	-53332.7	1	62014.48	-59.31702	8.866429E-008	0.0658817	6
	38	55	158.3615	36267.43	-62501.93	1	72262.15	-59.87508	8.91574E-008	0.0658804	6
	39	56	125.558	41834.97	-73511.79	1	84582.2	-60.35614	8.903814E-008	0.0658816	6
	40	58	100.4464	48257.68	-85881.26	1	98510.9	-60.66786	8.905099E-008	0.0658709	6
	41	59	79.00281	56321.32	-101652.3	1	116212.2	-61.01098	8.882841E-008	0.0658701	6
	42	60	63.3446	63472.95	-116796.3	1	132929.3	-61.47814	8.69781E-009	0.0658779	5
	43	62	49.86702	75035.44	-141371.1	1	160050.3	-62.04201	8.940349E-009	0.0658743	5
	44	63	39.72458	86244.04	-164344.6	1	185599.5	-62.3106	9.131861E-009	0.0658766	5
	45	65	31.6723	99559.8	-192554.3	1	216770.2	-62.65886	8.845927E-009	0.0658782	5
	46	66	24.93351	115208.4	-229635.2	1	256915	-63.35701	8.972069E-009	0.0658828	5
	47	67	19.86229	132718.2	-271225.3	1	301955.7	-63.92619	8.835542E-009	0.0658755	5
	48	69	15.83615	156773.7	-322416.4	1	358511.2	-64.06885	8.286186E-009	0.065874	5
	49	70	12.40079	182468	-380079.7	1	421610.2	-64.35535	9.554827E-009	0.0658779	5
	50	71	9.93114	207648.9	-453117.4	1	498430.9	-65.37956	9.085865E-009	0.0658843	5
	51	73	7.944915	242266.5	-537214.6	1	589315.4	-65.72616	9.371409E-009	0.0658824	5
	52	75	6.317385	279332.6	-637515.3	1	696026.1	-66.33897	8.697496E-008	0.0658909	6
	53	77	5.008013	328725.9	-759835.1	1	827895	-66.60534	9.145368E-009	0.0658898	5
	54	80	3.945707	391619.1	-911774.9	1	992320	-66.75585	9.018657E-009	0.0658721	5
	55	82	3.158693	463529.1	-1080556	1	1175781	-66.78199	9.031357E-009	0.065874	5
	56	86	2.504006	555608.8	-1291425	1	1405873	-66.72121	8.652709E-010	0.0661701	4
	57	88	1.998082	666642.3	-1529174	1	1668168	-66.44524	9.641804E-010	0.0661119	4
	58	92	1.584686	803552.6	-1817946	1	1987618	-66.15404	9.225516E-010	0.0661551	4
	59	95	1.266892	976591	-2143921	1	2355871	-65.50996	9.491814E-010	0.0661229	4
	60	99	0.999041	1195250	-2546371	1	2812939	-64.85495	9.259133E-010	0.0661931	4
