EXPLAIN
TAG	EISPOT
TITLE	LABEL	Potentiostatic EIS	Test &Identifier
DATE	LABEL	6/20/2000	Date
TIME	LABEL	8:57:24	Time
NOTES	NOTES	2	&Notes...
	
	
PSTAT	PSTAT	REF600-11020	Potentiostat
VDC	POTEN	0.00000E+000	T	DC &Voltage (V)
FREQINIT	QUANT	1.00000E+006	Initial Fre&q. (Hz)
FREQFINAL	QUANT	1.00000E+000	Final Fre&q. (Hz)
PTSPERDEC	QUANT	1.00000E+001	Points/&decade
VAC	QUANT	2.50000E+001	AC &Voltage (mV rms)
AREA	QUANT	1.00000E-002	&Area (cm^2)
CONDIT	TWOPARAM	T	5.00000E+000	0.00000E+000	Conditionin&g	Time(s)	E(V)
DELAY	TWOPARAM	T	5.00000E+000	0.00000E+000	Init. De&lay	Time(s)	Stab.(mV/s)
SPEED	SELECTOR	0	&Optimize for:
ZGUESS	QUANT	1.00000E+005	E&stimated Z (ohms)
OCVCURVE	TABLE	19
	Pt	T	Vf	Vm	Ach	Over
	#	s	V vs. Ref.	V	V	bits
	0	0.258333	3.44693E-003	3.44693E-003	5.55933E-004	...........
	1	0.516667	3.44369E-003	3.27699E-003	5.52199E-004	...........
	2	0.775	3.42406E-003	3.13231E-003	5.57532E-004	...........
	3	1.03333	3.36978E-003	3.00294E-003	5.53166E-004	...........
	4	1.29167	3.27558E-003	2.88537E-003	5.58132E-004	...........
	5	1.55	3.15526E-003	2.78349E-003	5.54199E-004	...........
	6	1.80833	3.02837E-003	2.68617E-003	5.63032E-004	...........
	7	2.06667	2.90784E-003	2.59429E-003	5.58599E-004	...........
	8	2.325	2.79802E-003	2.51329E-003	5.59332E-004	...........
	9	2.58333	2.69841E-003	2.43813E-003	5.60366E-004	...........
	10	2.84167	2.60750E-003	2.36367E-003	5.61266E-004	...........
	11	3.1	2.52378E-003	2.29482E-003	5.55499E-004	...........
	12	3.35833	2.44582E-003	2.23169E-003	5.64432E-004	...........
	13	3.61667	2.37258E-003	2.16837E-003	5.60899E-004	...........
	14	3.875	2.30351E-003	2.11199E-003	5.64232E-004	...........
	15	4.13333	2.23818E-003	2.05253E-003	5.56666E-004	...........
	16	4.39167	2.17612E-003	2.00146E-003	5.58666E-004	...........
	17	4.65	2.11688E-003	1.94665E-003	5.57333E-004	...........
	18	4.90833	2.06018E-003	1.90046E-003	5.62866E-004	...........
EOC	QUANT	0.0020602	Open Circuit (V)
PSTATMODEL	IQUANT	4	Pstat Model
PSTATSECTION	LABEL	REF600-11020	Pstat Section
PSTATSERIALNO	LABEL	11020	Pstat Serial Number
CTRLMODE	IQUANT	1	Control Mode
IESTAB	IQUANT	0	I/E Stability
CASPEED	IQUANT	1	Control Amp Speed
CONVENTION	IQUANT	1	Current Convention
ICHRANGE	IQUANT	2	Ich Range
ICHRANGEMODE	TOGGLE	F	Ich Auto Range
ICHOFFSETENABLE	TOGGLE	T	Ich Offset Enable
ICHOFFSET	QUANT	0	Ich Offset (V)
ICHFILTER	IQUANT	3	Ich Filter
VCHRANGE	IQUANT	2	Vch Range
VCHRANGEMODE	TOGGLE	F	Vch Auto Range
VCHOFFSETENABLE	TOGGLE	T	Vch Offset Enable
VCHOFFSET	QUANT	0	Vch Offset (V)
VCHFILTER	IQUANT	3	Vch Filter
ACHRANGE	IQUANT	2	Ach Range
ACHOFFSETENABLE	TOGGLE	F	Ach Offset Enable
ACHOFFSET	QUANT	0	Ach Offset (V)
ACHFILTER	IQUANT	3	Ach Filter
IERANGELOWERLIMIT	IQUANT	1	I/E Range Lower Limit
IERANGEMODE	TOGGLE	F	I/E AutoRange
IERANGE	IQUANT	4	I/E Range
POSFEEDENABLE	TOGGLE	F	Positive Feedback IR Comp
POSFEEDRESISTANCE	QUANT	0	Positive Feedback Resistance (ohm)
ACHSELECT	IQUANT	0	Ach Select
CABLEID	IQUANT	14	Cable ID
DCCALDATE	LABEL	8/19/2019	DC Calibration Date
ACCALDATE	LABEL	8/19/2019	AC Calibration Date
THERMOSELECT	IQUANT	1	Thermo Select
FRAMEWORKVERSION	QUANT	6.33	Framework Version
INSTRUMENTVERSION	LABEL	3.50	Instrument Version
ZCURVE	TABLE
	Pt	Time	Freq	Zreal	Zimag	Zsig	Zmod	Zphz	Idc	Vdc	IERange
	#	s	Hz	ohm	ohm	V	ohm	°	A	V	#
	0	1	1000078	1782.246	-652.955	1	1898.091	-20.12114	4.458374E-007	0.0048936	8
	1	1	794390.6	1876.763	-561.0948	1	1958.843	-16.64506	8.746387E-007	0.0044087	8
	2	1	630984.4	1946.382	-493.5234	1	2007.976	-14.22803	-4.673091E-006	0.0044428	8
	3	2	501234.4	1996.944	-423.4407	1	2041.344	-11.97192	2.767321E-007	0.0033749	8
	4	2	398109.4	2039.68	-368.7473	1	2072.745	-10.24763	-4.007512E-006	0.0042231	8
	5	2	316265.6	2070.078	-323.3638	1	2095.182	-8.87834	-1.889837E-006	0.0037272	8
	6	3	251203.1	2097.049	-292.5346	1	2117.355	-7.941411	2.015391E-006	0.0038705	8
	7	3	199546.9	2119.134	-266.6146	1	2135.84	-7.170878	-8.23087E-007	0.0032895	8
	8	3	158578.1	2139.932	-251.0313	1	2154.605	-6.69068	-1.164682E-007	0.0032749	8
	9	4	125953.1	2173.205	-211.4335	1	2183.466	-5.55688	1.594335E-006	-0.001611	7
	10	4	100078.1	2186.618	-210.7441	1	2196.75	-5.505108	7.424204E-007	0.0033394	7
	11	4	79453.13	2206.724	-219.7505	1	2217.638	-5.686893	-5.561878E-007	0.0049724	7
	12	5	63140.62	2226.98	-236.0124	1	2239.452	-6.04955	7.239628E-008	0.0043799	7
	13	5	50203.12	2250.863	-257.0496	1	2265.493	-6.51498	6.876394E-007	0.0019647	7
	14	5	39890.62	2277.126	-281.8341	1	2294.501	-7.055471	1.058134E-007	0.002314	7
	15	6	31640.63	2304.79	-311.6659	1	2325.767	-7.701125	-1.106546E-006	0.0045213	7
	16	6	25171.88	2336.406	-347.4886	1	2362.105	-8.459465	7.274168E-008	0.00438	7
	17	6	20015.62	2370.359	-389.6506	1	2402.172	-9.335058	-9.927285E-007	0.005001	7
	18	7	15890.62	2408.803	-441.4548	1	2448.921	-10.38519	4.314797E-007	0.0020563	7
	19	7	12609.37	2448.855	-502.1531	1	2499.81	-11.58822	-5.570941E-007	0.0049642	7
	20	7	10078.13	2490.037	-570.6534	1	2554.59	-12.90784	4.303733E-007	0.0020471	7
	21	8	8015.625	2536.792	-657.84	1	2620.7	-14.53769	-8.075672E-007	0.00505	7
	22	8	6328.125	2587.887	-766.1241	1	2698.908	-16.49098	9.087918E-007	0.0028887	7
	23	8	5015.625	2641.694	-895.8614	1	2789.465	-18.73302	9.829783E-007	0.0025139	7
	24	8	3984.375	2699.392	-1053.83	1	2897.805	-21.32544	-5.5818E-007	0.0049696	7
	25	9	3170.956	2764.043	-1243.535	1	3030.893	-24.22285	-2.597737E-007	0.0047495	7
	26	9	2527.573	2833.711	-1476.726	1	3195.409	-27.52528	5.583706E-007	0.0036884	7
	27	9	1976.103	2920.552	-1786.373	1	3423.558	-31.45229	-6.53132E-007	0.0033762	7
	28	10	1577.524	3007.16	-2140.906	1	3691.408	-35.44844	1.077123E-007	0.0023016	7
	29	10	1265.625	3104.47	-2560.582	1	4024.216	-39.51598	5.590176E-007	0.0036824	7
	30	10	998.264	3218.776	-3120.684	1	4483.211	-44.11352	9.843417E-007	0.0025053	7
	31	11	796.875	3351.828	-3779.784	1	5051.883	-48.43411	4.325816E-007	0.0020444	7
	32	11	627.7902	3529.311	-4637.176	1	5827.473	-52.72558	-9.923878E-007	0.0049898	7
	33	11	505.5147	3714.747	-5606.745	1	6725.692	-56.47355	5.597661E-007	0.0036855	7
	34	12	397.9953	3971.433	-6920.197	1	7978.81	-60.14891	-1.910281E-009	0.0035524	7
	35	12	315.5048	4298.809	-8499.208	1	9524.51	-63.1702	8.844318E-010	0.0035565	7
	36	12	252.4038	4704.623	-10357.28	1	11375.71	-65.57087	1.096313E-009	0.0034861	6
	37	13	198.6229	5271.445	-12802.94	1	13845.7	-67.62122	7.824554E-010	0.003491	6
	38	13	158.3615	5979.229	-15632.72	1	16737.18	-69.06906	5.271984E-010	0.0034911	6
	39	13	125.558	6932.382	-19153.4	1	20369.35	-70.10278	7.392743E-010	0.0034824	6
	40	14	100.4464	8165.191	-23263.81	1	24655.12	-70.65981	-9.83524E-011	0.0034928	6
	41	14	79.00281	9871.99	-28606.9	1	30262.37	-70.96089	-7.643442E-010	0.003489	6
	42	14	63.3446	11944.38	-34041.57	1	36076.26	-70.66525	-3.47778E-010	0.0034863	6
	43	15	49.86702	15021.5	-41639.7	1	44266.35	-70.16312	-7.024415E-011	0.0034873	6
	44	15	39.72458	18717.11	-50252.2	1	53624.75	-69.57148	1.352504E-010	0.0034889	6
	45	15	31.6723	23551.91	-60126.72	1	64574.88	-68.60949	3.400773E-010	0.0034828	6
	46	16	24.93351	30259.54	-71689.42	1	77813.96	-67.11578	5.197792E-010	0.0034825	6
	47	16	19.86229	38030.8	-84188.59	1	92379.98	-65.68971	1.810833E-009	0.0034946	6
	48	16	15.83615	47692.17	-98759.9	1	109672.5	-64.22363	-9.96577E-010	0.0034798	5
	49	17	12.40079	61351.75	-115573.6	1	130848.4	-62.03859	8.349977E-010	0.0034836	5
	50	17	9.93114	73971.01	-131781.8	1	151123	-60.69389	-2.892532E-010	0.0034837	5
	51	18	7.944915	89414.37	-149483.8	1	174184.8	-59.11407	7.250277E-010	0.0034777	5
	52	18	6.317385	107235.6	-169869.1	1	200885.5	-57.73645	6.874752E-010	0.0034698	5
	53	19	5.008013	127574.6	-192579.5	1	231002.5	-56.47745	2.248597E-010	0.0034714	5
	54	20	3.945707	149407.4	-219121.3	1	265210.7	-55.71196	3.2788E-010	0.0034875	5
	55	21	3.158693	172042.3	-247384.1	1	301326.2	-55.18347	-8.678915E-011	0.0034727	5
	56	23	2.504006	197361.2	-281698.2	1	343955.4	-54.98444	3.674894E-011	0.0034669	5
	57	24	1.998082	224474.7	-321202.8	1	391867.4	-55.05197	2.718995E-010	0.0035082	5
	58	26	1.584686	254538.5	-368565.5	1	447917.8	-55.37029	1.008331E-010	0.0034745	5
	59	28	1.266892	289061.6	-423155.7	1	512462	-55.66266	1.612546E-011	0.0034403	5
	60	30	0.999041	330489	-493045.6	1	593562.9	-56.16601	-2.739277E-011	0.0034312	5
