EXPLAIN
TAG	EISPOT
TITLE	LABEL	Potentiostatic EIS	Test &Identifier
DATE	LABEL	11/22/2019	Date
TIME	LABEL	10:00:04	Time
NOTES	NOTES	4	&Notes...
	
	
	
	
PSTAT	PSTAT	REF600-11020	Potentiostat
VDC	POTEN	0.00000E+000	T	DC &Voltage (V)
FREQINIT	QUANT	1.00000E+006	Initial Fre&q. (Hz)
FREQFINAL	QUANT	1.00000E+000	Final Fre&q. (Hz)
PTSPERDEC	QUANT	1.00000E+001	Points/&decade
VAC	QUANT	2.50000E+001	AC &Voltage (mV rms)
AREA	QUANT	1.00000E-002	&Area (cm^2)
CONDIT	TWOPARAM	T	5.00000E+000	0.00000E+000	Conditionin&g	Time(s)	E(V)
DELAY	TWOPARAM	T	5.00000E+000	0.00000E+000	Init. De&lay	Time(s)	Stab.(mV/s)
SPEED	SELECTOR	0	&Optimize for:
ZGUESS	QUANT	1.00000E+005	E&stimated Z (ohms)
OCVCURVE	TABLE	19
	Pt	T	Vf	Vm	Ach	Over
	#	s	V vs. Ref.	V	V	bits
	0	0.258333	5.37289E-003	5.37289E-003	5.65966E-004	...........
	1	0.516667	5.37047E-003	5.24627E-003	5.62199E-004	...........
	2	0.775	5.35609E-003	5.15094E-003	5.61199E-004	...........
	3	1.03333	5.31723E-003	5.07300E-003	5.69466E-004	...........
	4	1.29167	5.25187E-003	4.99791E-003	5.63332E-004	...........
	5	1.55	5.17159E-003	4.95311E-003	5.71899E-004	...........
	6	1.80833	5.09134E-003	4.90878E-003	5.63399E-004	...........
	7	2.06667	5.02089E-003	4.87065E-003	5.64399E-004	...........
	8	2.325	4.96305E-003	4.83834E-003	5.65999E-004	...........
	9	2.58333	4.91602E-003	4.80969E-003	5.63799E-004	...........
	10	2.84167	4.87720E-003	4.80167E-003	5.62132E-004	...........
	11	3.1	4.84695E-003	4.85959E-003	5.58566E-004	...........
	12	3.35833	4.82780E-003	4.75119E-003	5.65166E-004	...........
	13	3.61667	4.81629E-003	4.76159E-003	5.66999E-004	...........
	14	3.875	4.80264E-003	4.73231E-003	5.62732E-004	...........
	15	4.13333	4.78326E-003	4.74875E-003	5.57699E-004	...........
	16	4.39167	4.76346E-003	4.71739E-003	5.56699E-004	...........
	17	4.65	4.74750E-003	4.70131E-003	5.65999E-004	...........
	18	4.90833	4.73385E-003	4.68610E-003	5.64632E-004	...........
EOC	QUANT	0.0047338	Open Circuit (V)
PSTATMODEL	IQUANT	4	Pstat Model
PSTATSECTION	LABEL	REF600-11020	Pstat Section
PSTATSERIALNO	LABEL	11020	Pstat Serial Number
CTRLMODE	IQUANT	1	Control Mode
IESTAB	IQUANT	0	I/E Stability
CASPEED	IQUANT	1	Control Amp Speed
CONVENTION	IQUANT	1	Current Convention
ICHRANGE	IQUANT	2	Ich Range
ICHRANGEMODE	TOGGLE	F	Ich Auto Range
ICHOFFSETENABLE	TOGGLE	T	Ich Offset Enable
ICHOFFSET	QUANT	0	Ich Offset (V)
ICHFILTER	IQUANT	3	Ich Filter
VCHRANGE	IQUANT	2	Vch Range
VCHRANGEMODE	TOGGLE	F	Vch Auto Range
VCHOFFSETENABLE	TOGGLE	T	Vch Offset Enable
VCHOFFSET	QUANT	0	Vch Offset (V)
VCHFILTER	IQUANT	3	Vch Filter
ACHRANGE	IQUANT	2	Ach Range
ACHOFFSETENABLE	TOGGLE	F	Ach Offset Enable
ACHOFFSET	QUANT	0	Ach Offset (V)
ACHFILTER	IQUANT	3	Ach Filter
IERANGELOWERLIMIT	IQUANT	1	I/E Range Lower Limit
IERANGEMODE	TOGGLE	F	I/E AutoRange
IERANGE	IQUANT	4	I/E Range
POSFEEDENABLE	TOGGLE	F	Positive Feedback IR Comp
POSFEEDRESISTANCE	QUANT	0	Positive Feedback Resistance (ohm)
ACHSELECT	IQUANT	0	Ach Select
CABLEID	IQUANT	14	Cable ID
DCCALDATE	LABEL	8/19/2019	DC Calibration Date
ACCALDATE	LABEL	8/19/2019	AC Calibration Date
THERMOSELECT	IQUANT	1	Thermo Select
FRAMEWORKVERSION	QUANT	6.33	Framework Version
INSTRUMENTVERSION	LABEL	3.50	Instrument Version
ZCURVE	TABLE
	Pt	Time	Freq	Zreal	Zimag	Zsig	Zmod	Zphz	Idc	Vdc	IERange
	#	s	Hz	ohm	ohm	V	ohm	°	A	V	#
	0	1	1000078	2227.128	-1469.642	1	2668.323	-33.42009	1.150359E-006	0.0076004	8
	1	2	794390.6	2528.785	-1389.626	1	2885.449	-28.78981	-1.487615E-006	0.0071611	8
	2	2	630984.4	2779.174	-1281.817	1	3060.533	-24.7602	-2.528719E-006	0.0063504	8
	3	2	501234.4	2979.186	-1134.714	1	3187.966	-20.85086	2.84273E-007	0.0060504	8
	4	3	398109.4	3156.65	-1005.123	1	3312.81	-17.66223	-1.066579E-007	0.0060199	8
	5	3	316265.6	3272.247	-867.0915	1	3385.18	-14.84134	-2.68271E-006	0.0068461	8
	6	3	251203.1	3366.872	-751.7644	1	3449.78	-12.5867	-1.965538E-006	0.0064533	8
	7	4	199546.9	3444.959	-659.4209	1	3507.503	-10.83626	-2.451372E-007	0.0060369	8
	8	4	158578.1	3507.904	-575.1351	1	3554.739	-9.311037	-6.380038E-007	0.0060189	8
	9	4	125953.1	3573.057	-460.0089	1	3602.547	-7.336123	-2.323775E-006	0.0096575	7
	10	5	100078.1	3607.336	-411.455	1	3630.726	-6.507071	1.069217E-006	0.0048288	7
	11	5	79453.13	3637.545	-386.5918	1	3658.031	-6.06652	-6.14983E-007	0.0078488	7
	12	5	63140.62	3668.071	-372.1583	1	3686.902	-5.793339	-1.0846E-006	0.007867	7
	13	6	50203.12	3698.394	-368.3635	1	3716.693	-5.687955	-6.151128E-007	0.0078468	7
	14	6	39890.62	3730.611	-374.3675	1	3749.348	-5.730458	1.00305E-006	0.0055553	7
	15	6	31640.63	3763.884	-386.1599	1	3783.641	-5.857829	6.814288E-008	0.0072145	7
	16	6	25171.88	3798.613	-409.2058	1	3820.59	-6.148481	6.042159E-007	0.0064661	7
	17	7	20015.62	3833.916	-451.3906	1	3860.397	-6.714873	3.848501E-007	0.006785	7
	18	7	15890.62	3875.959	-484.2145	1	3906.088	-7.120935	1.087876E-006	0.0051414	7
	19	7	12609.37	3915.133	-537.7098	1	3951.885	-7.820158	-1.087563E-006	0.0078622	7
	20	8	10078.13	3960.074	-604.0932	1	4005.885	-8.673373	-7.211475E-007	0.0061013	7
	21	8	8015.625	4015.65	-681.2949	1	4073.034	-9.62911	-1.036941E-006	0.0067661	7
	22	8	6328.125	4065.644	-787.5323	1	4141.216	-10.96267	1.001981E-006	0.0055508	7
	23	9	5015.625	4117.847	-910.1441	1	4217.229	-12.46338	-1.087699E-006	0.0078606	7
	24	9	3984.375	4180.08	-1063.864	1	4313.336	-14.27908	1.086797E-006	0.0051379	7
	25	9	3170.956	4239.69	-1248.49	1	4419.695	-16.40847	4.824103E-007	0.0046056	7
	26	10	2527.573	4303.689	-1471.571	1	4548.325	-18.87722	-1.207076E-006	0.0073296	7
	27	10	1976.103	4386.781	-1785.455	1	4736.211	-22.14672	1.088194E-006	0.005132	7
	28	10	1577.524	4454.481	-2117.257	1	4932.056	-25.42219	-6.167005E-007	0.0078357	7
	29	11	1265.625	4552.174	-2557.184	1	5221.253	-29.3251	7.134486E-008	0.0072043	7
	30	11	998.264	4663.436	-3130.069	1	5616.49	-33.86927	7.730646E-007	0.0044951	7
	31	11	796.875	4787.663	-3797.296	1	6110.742	-38.4194	7.720669E-007	0.0044973	7
	32	11	627.7902	4951.125	-4661.053	1	6799.931	-43.27147	-2.996267E-007	0.0054065	7
	33	12	505.5147	5135.643	-5635.405	1	7624.475	-47.65654	-6.124116E-007	0.007835	7
	34	12	397.9953	5380.476	-6969.409	1	8804.668	-52.33138	9.897445E-010	0.0062767	7
	35	13	315.5048	5690.622	-8560.706	1	10279.54	-56.38652	9.413396E-011	0.0062133	6
	36	13	252.4038	6061.722	-10435.84	1	12068.61	-59.84958	8.771598E-010	0.0062062	6
	37	13	198.6229	6574.844	-12910.11	1	14487.91	-63.01123	2.208567E-010	0.0062104	6
	38	13	158.3615	7195.817	-15779.3	1	17342.61	-65.48564	2.588659E-010	0.0062021	6
	39	14	125.558	8025.417	-19363.7	1	20960.92	-67.48811	4.734357E-010	0.0062156	6
	40	14	100.4464	9034.695	-23561.74	1	25234.53	-69.0208	-2.135433E-010	0.0062047	6
	41	14	79.00281	10412.3	-29047.02	1	30856.85	-70.27909	4.480515E-010	0.0062048	6
	42	15	63.3446	12529.28	-35153.1	1	37319.21	-70.3829	7.236088E-010	0.0062023	6
	43	15	49.86702	14826.01	-43130.6	1	45607.66	-71.02975	3.989543E-010	0.0061999	6
	44	16	39.72458	17611.18	-52203.41	1	55094.01	-71.35783	3.203292E-012	0.0062166	6
	45	16	31.6723	21295.58	-62880.73	1	66388.91	-71.2905	2.134985E-010	0.0062112	6
	46	16	24.93351	26561.44	-76667.94	1	81138.66	-70.89147	8.878573E-010	0.0062054	6
	47	17	19.86229	33072.2	-92079.96	1	97839.1	-70.24332	1.579241E-009	0.006201	6
	48	17	15.83615	40178.65	-110492.1	1	117570.5	-70.01703	-2.990135E-010	0.0062061	5
	49	17	12.40079	52889.17	-133255.6	1	143367.8	-68.35186	8.254897E-010	0.0062055	5
	50	17	9.93114	64465.39	-156286.2	1	169059.6	-67.58469	-5.792052E-010	0.0062171	5
	51	18	7.944915	79772.83	-183745.9	1	200315.4	-66.53205	-2.615251E-010	0.0062074	5
	52	19	6.317385	99624.2	-216434.2	1	238261.9	-65.28349	-2.095675E-010	0.0062246	5
	53	19	5.008013	123984.6	-253603.9	1	282289	-63.94642	-2.097616E-010	0.0062154	5
	54	20	3.945707	154818.4	-296250.5	1	334265	-62.40876	1.920305E-010	0.0062132	5
	55	22	3.158693	187843.1	-340779.3	1	389121.6	-61.13573	1.885762E-010	0.006225	5
	56	23	2.504006	229369	-392119	1	454276.8	-59.67461	-7.496887E-011	0.0062159	5
	57	25	1.998082	274344.2	-446996.6	1	524471.8	-58.46048	-4.081466E-011	0.0061952	5
	58	26	1.584686	328213.4	-507742.2	1	604587.6	-57.12067	7.437945E-011	0.0062447	5
	59	28	1.266892	386312.2	-574804.1	1	692558.2	-56.09589	8.355937E-011	0.0062488	5
	60	31	0.999041	452875.5	-652670.7	1	794402.4	-55.24397	1.189367E-010	0.006244	5
