EXPLAIN
TAG	EISPOT
TITLE	LABEL	Potentiostatic EIS	Test &Identifier
DATE	LABEL	11/22/2019	Date
TIME	LABEL	0:34:16	Time
NOTES	NOTES	4	&Notes...
	
	
	
	
PSTAT	PSTAT	REF600-11020	Potentiostat
VDC	POTEN	0.00000E+000	T	DC &Voltage (V)
FREQINIT	QUANT	1.00000E+006	Initial Fre&q. (Hz)
FREQFINAL	QUANT	1.00000E+000	Final Fre&q. (Hz)
PTSPERDEC	QUANT	1.00000E+001	Points/&decade
VAC	QUANT	2.50000E+001	AC &Voltage (mV rms)
AREA	QUANT	1.00000E-002	&Area (cm^2)
CONDIT	TWOPARAM	T	5.00000E+000	0.00000E+000	Conditionin&g	Time(s)	E(V)
DELAY	TWOPARAM	T	5.00000E+000	0.00000E+000	Init. De&lay	Time(s)	Stab.(mV/s)
SPEED	SELECTOR	1	&Optimize for:
ZGUESS	QUANT	1.00000E+005	E&stimated Z (ohms)
OCVCURVE	TABLE	19
	Pt	T	Vf	Vm	Ach	Over
	#	s	V vs. Ref.	V	V	bits
	0	0.258333	5.49913E-003	5.49913E-003	5.75832E-004	...........
	1	0.516667	5.49878E-003	5.48084E-003	5.75199E-004	...........
	2	0.775	5.49714E-003	5.48964E-003	5.86265E-004	...........
	3	1.03333	5.49383E-003	5.48190E-003	5.84165E-004	...........
	4	1.29167	5.48936E-003	5.45281E-003	5.84465E-004	...........
	5	1.55	5.48265E-003	5.42765E-003	5.77099E-004	...........
	6	1.80833	5.47072E-003	5.39621E-003	5.79266E-004	...........
	7	2.06667	5.45186E-003	5.36166E-003	5.84732E-004	...........
	8	2.325	5.42691E-003	5.33921E-003	5.84399E-004	...........
	9	2.58333	5.39888E-003	5.33505E-003	5.85932E-004	...........
	10	2.84167	5.37222E-003	5.31788E-003	5.78466E-004	...........
	11	3.1	5.35021E-003	5.29961E-003	5.81332E-004	...........
	12	3.35833	5.33291E-003	5.30189E-003	5.79432E-004	...........
	13	3.61667	5.31946E-003	5.31365E-003	5.75532E-004	...........
	14	3.875	5.30988E-003	5.26357E-003	5.78199E-004	...........
	15	4.13333	5.30006E-003	5.16096E-003	5.80132E-004	...........
	16	4.39167	5.27827E-003	5.07224E-003	5.82032E-004	...........
	17	4.65	5.23363E-003	4.99282E-003	5.79666E-004	...........
	18	4.90833	5.16811E-003	4.99448E-003	5.76332E-004	...........
EOC	QUANT	0.0051681	Open Circuit (V)
PSTATMODEL	IQUANT	4	Pstat Model
PSTATSECTION	LABEL	REF600-11020	Pstat Section
PSTATSERIALNO	LABEL	11020	Pstat Serial Number
CTRLMODE	IQUANT	1	Control Mode
IESTAB	IQUANT	0	I/E Stability
CASPEED	IQUANT	1	Control Amp Speed
CONVENTION	IQUANT	1	Current Convention
ICHRANGE	IQUANT	2	Ich Range
ICHRANGEMODE	TOGGLE	F	Ich Auto Range
ICHOFFSETENABLE	TOGGLE	T	Ich Offset Enable
ICHOFFSET	QUANT	0	Ich Offset (V)
ICHFILTER	IQUANT	3	Ich Filter
VCHRANGE	IQUANT	2	Vch Range
VCHRANGEMODE	TOGGLE	F	Vch Auto Range
VCHOFFSETENABLE	TOGGLE	T	Vch Offset Enable
VCHOFFSET	QUANT	0	Vch Offset (V)
VCHFILTER	IQUANT	3	Vch Filter
ACHRANGE	IQUANT	2	Ach Range
ACHOFFSETENABLE	TOGGLE	F	Ach Offset Enable
ACHOFFSET	QUANT	0	Ach Offset (V)
ACHFILTER	IQUANT	3	Ach Filter
IERANGELOWERLIMIT	IQUANT	1	I/E Range Lower Limit
IERANGEMODE	TOGGLE	F	I/E AutoRange
IERANGE	IQUANT	4	I/E Range
POSFEEDENABLE	TOGGLE	F	Positive Feedback IR Comp
POSFEEDRESISTANCE	QUANT	0	Positive Feedback Resistance (ohm)
ACHSELECT	IQUANT	0	Ach Select
CABLEID	IQUANT	14	Cable ID
DCCALDATE	LABEL	8/19/2019	DC Calibration Date
ACCALDATE	LABEL	8/19/2019	AC Calibration Date
THERMOSELECT	IQUANT	1	Thermo Select
FRAMEWORKVERSION	QUANT	6.33	Framework Version
INSTRUMENTVERSION	LABEL	3.50	Instrument Version
ZCURVE	TABLE
	Pt	Time	Freq	Zreal	Zimag	Zsig	Zmod	Zphz	Idc	Vdc	IERange
	#	s	Hz	ohm	ohm	V	ohm	°	A	V	#
	0	1	1000078	2019.559	-2024.655	1	2859.694	-45.0722	1.090255E-007	0.0073505	8
	1	3	794390.6	2374.566	-2154.264	1	3206.153	-42.21508	-4.788241E-006	0.0078748	8
	2	4	630984.4	2746.61	-2273.625	1	3565.563	-39.61773	1.066329E-006	0.0066314	8
	3	5	501234.4	3156.722	-2369.77	1	3947.24	-36.89577	-2.98434E-006	0.0068115	8
	4	7	398109.4	3582.059	-2410.736	1	4317.73	-33.94067	-1.10533E-007	0.0073231	8
	5	8	316265.6	4038.064	-2440.81	1	4718.423	-31.15089	-2.352804E-007	0.0065135	8
	6	9	251203.1	4506.255	-2401.246	1	5106.105	-28.05179	-1.544889E-006	0.0065692	8
	7	11	199546.9	4927.145	-2315.509	1	5444.11	-25.17115	5.877147E-006	0.0061022	8
	8	12	158578.1	5338.619	-2174.767	1	5764.587	-22.16427	6.824402E-006	0.0060253	8
	9	14	125953.1	5734.133	-1895.561	1	6039.324	-18.2926	-1.391849E-006	0.0054591	7
	10	15	100078.1	5997.681	-1733.323	1	6243.123	-16.11923	-1.206334E-006	0.0085643	7
	11	17	79453.13	6240.027	-1537.308	1	6426.605	-13.83992	-1.181303E-006	0.0073639	7
	12	18	63140.62	6437.247	-1368.077	1	6581.017	-11.99828	-1.352423E-006	0.0083655	7
	13	19	50203.12	6590.583	-1209.071	1	6700.57	-10.39557	-1.35248E-006	0.0083703	7
	14	21	39890.62	6734.708	-1078.381	1	6820.499	-9.097145	-6.710985E-007	0.008512	7
	15	22	31640.63	6812.681	-956.525	1	6879.503	-7.992289	-1.351807E-006	0.0083658	7
	16	24	25171.88	6941.837	-871.6118	1	6996.343	-7.156563	1.08253E-006	0.0048432	7
	17	26	20015.62	7010.15	-806.374	1	7056.376	-6.561864	1.07943E-006	0.0048483	7
	18	27	15890.62	7055.708	-768.8041	1	7097.47	-6.21853	8.48125E-007	0.0047645	7
	19	29	12609.37	7122.577	-758.592	1	7162.86	-6.079385	1.207841E-006	0.0050845	7
	20	30	10078.13	7112.451	-762.9236	1	7153.252	-6.122474	-1.353286E-006	0.0079665	7
	21	32	8015.625	7207.534	-803.1838	1	7252.147	-6.358619	1.083012E-006	0.0048444	7
	22	34	6328.125	7255.112	-875.2481	1	7307.715	-6.878853	7.034843E-007	0.0069393	7
	23	35	5015.625	7307.673	-974.18	1	7372.32	-7.593284	1.145936E-006	0.005906	7
	24	37	3984.375	7312.591	-1102.05	1	7395.167	-8.57031	-6.70586E-007	0.0084993	7
	25	38	3170.956	7341.009	-1275.383	1	7450.974	-9.85585	-1.177769E-006	0.0073443	7
	26	39	2527.573	7451.76	-1521.313	1	7605.467	-11.53865	4.484275E-007	0.0073172	7
	27	41	1976.103	7489.137	-1824.074	1	7708.075	-13.68858	-9.75337E-007	0.008603	7
	28	42	1577.524	7570.24	-2169.577	1	7874.998	-15.99192	-6.668514E-007	0.0085029	7
	29	44	1265.625	7655.046	-2621.29	1	8091.408	-18.90256	-9.755411E-007	0.0086079	7
	30	46	998.264	7766.715	-3192.591	1	8397.291	-22.34563	-1.178057E-006	0.0073469	7
	31	47	796.875	7939.943	-3899.354	1	8845.771	-26.15593	5.099305E-007	0.0049077	7
	32	48	627.7902	8137.079	-4806.374	1	9450.57	-30.56931	8.461179E-007	0.0047721	7
	33	50	505.5147	8345.787	-5804.278	1	10165.72	-34.81761	-2.981554E-007	0.008224	7
	34	51	397.9953	8664.277	-7141.06	1	11227.84	-39.4952	6.267239E-010	0.0067064	6
	35	52	315.5048	9060.74	-8747.654	1	12594.38	-43.9928	1.541073E-009	0.0067025	6
	36	54	252.4038	9557.29	-10621.1	1	14288.09	-48.01784	6.232522E-010	0.0066956	6
	37	55	198.6229	10259.13	-13060.94	1	16608.37	-51.851	5.257772E-010	0.0067034	6
	38	57	158.3615	11141.04	-15849.42	1	19373.35	-54.89545	9.473339E-010	0.006691	6
	39	58	125.558	12313.66	-19279.88	1	22876.63	-57.43447	1.015862E-009	0.0066887	6
	40	59	100.4464	13797.22	-23227.98	1	27016.71	-59.29005	1.398027E-009	0.0066895	6
	41	61	79.00281	15863.6	-28182.88	1	32340.82	-60.62568	-6.242775E-011	0.0066941	6
	42	62	63.3446	18116.56	-33584.63	1	38159.37	-61.65625	8.634006E-011	0.0066919	6
	43	64	49.86702	22097.82	-40109.45	1	45793.9	-61.14796	-4.183331E-010	0.0066949	6
	44	65	39.72458	26262.66	-47551.37	1	54321.82	-61.08809	5.444833E-010	0.0066984	6
	45	66	31.6723	31566.67	-55573.97	1	63913.39	-60.40291	2.858287E-010	0.0066925	6
	46	68	24.93351	38242.02	-65175.6	1	75566.6	-59.59756	4.779932E-010	0.0066942	6
	47	69	19.86229	45820.08	-75101.87	1	87975.96	-58.6124	2.307106E-010	0.0066932	6
	48	70	15.83615	54402.08	-84998.8	1	100917.7	-57.37939	-2.452205E-010	0.0067051	5
	49	72	12.40079	64251.83	-98279.7	1	117418.9	-56.82475	-1.344884E-010	0.0067087	5
	50	73	9.93114	74679.38	-111710.4	1	134373.5	-56.23693	-3.311132E-010	0.0067074	5
	51	75	7.944915	85013.38	-127194.1	1	152988.9	-56.24221	-5.956403E-011	0.0067005	5
	52	77	6.317385	96995.1	-145389.9	1	174774.9	-56.29124	-1.472209E-010	0.0066957	5
	53	79	5.008013	109986.4	-167779.1	1	200616.1	-56.75344	-1.715083E-010	0.0067087	5
	54	81	3.945707	124897.2	-195454.4	1	231952	-57.42105	4.387632E-011	0.0066988	5
	55	84	3.158693	140572.1	-226599.8	1	266660.8	-58.18642	7.336233E-011	0.0067082	5
	56	87	2.504006	159319.1	-265733.5	1	309833.7	-59.05543	-6.069714E-011	0.0067124	5
	57	90	1.998082	180426.5	-310684.5	1	359275.1	-59.8546	2.156315E-010	0.0066721	5
	58	93	1.584686	205729	-367048.3	1	420771.7	-60.72956	-2.291044E-011	0.0066863	5
	59	97	1.266892	236163	-430782.2	1	491270	-61.26761	1.100962E-010	0.0066548	5
	60	101	0.999041	273935.6	-511069	1	579855.4	-61.80846	4.720585E-011	0.0067408	5
