EXPLAIN
TAG	EISPOT
TITLE	LABEL	Potentiostatic EIS	Test &Identifier
DATE	LABEL	10/24/2019	Date
TIME	LABEL	10:45:43	Time
NOTES	NOTES	1	&Notes...
	
PSTAT	PSTAT	REF600-11020	Potentiostat
VDC	POTEN	0.00000E+000	T	DC &Voltage (V)
FREQINIT	QUANT	1.00000E+006	Initial Fre&q. (Hz)
FREQFINAL	QUANT	1.00000E+000	Final Fre&q. (Hz)
PTSPERDEC	QUANT	1.00000E+001	Points/&decade
VAC	QUANT	2.50000E+001	AC &Voltage (mV rms)
AREA	QUANT	1.00000E-002	&Area (cm^2)
CONDIT	TWOPARAM	T	5.00000E+000	0.00000E+000	Conditionin&g	Time(s)	E(V)
DELAY	TWOPARAM	T	5.00000E+000	0.00000E+000	Init. De&lay	Time(s)	Stab.(mV/s)
SPEED	SELECTOR	1	&Optimize for:
ZGUESS	QUANT	1.00000E+005	E&stimated Z (ohms)
OCVCURVE	TABLE	19
	Pt	T	Vf	Vm	Ach	Over
	#	s	V vs. Ref.	V	V	bits
	0	0.258333	7.02320E-003	7.02320E-003	5.52532E-004	...........
	1	0.516667	7.03091E-003	7.42676E-003	5.51033E-004	...........
	2	0.775	7.06005E-003	6.85648E-003	5.46366E-004	...........
	3	1.03333	7.09155E-003	6.80970E-003	5.54433E-004	...........
	4	1.29167	7.07295E-003	6.79012E-003	5.50433E-004	...........
	5	1.55	6.99253E-003	6.79421E-003	5.52899E-004	...........
	6	1.80833	6.89763E-003	6.80950E-003	5.52066E-004	...........
	7	2.06667	6.83648E-003	7.02995E-003	5.55699E-004	...........
	8	2.325	6.82709E-003	6.86359E-003	5.50199E-004	...........
	9	2.58333	6.85428E-003	6.84777E-003	5.52333E-004	...........
	10	2.84167	6.88051E-003	6.82512E-003	5.54166E-004	...........
	11	3.1	6.88162E-003	6.82291E-003	5.54533E-004	...........
	12	3.35833	6.86380E-003	6.82934E-003	5.51766E-004	...........
	13	3.61667	6.85351E-003	7.32256E-003	5.52366E-004	...........
	14	3.875	6.88102E-003	6.83482E-003	5.40066E-004	...........
	15	4.13333	6.93438E-003	6.69401E-003	5.46933E-004	...........
	16	4.39167	6.95196E-003	6.80981E-003	5.39999E-004	...........
	17	4.65	6.90830E-003	6.82510E-003	5.47666E-004	...........
	18	4.90833	6.84752E-003	6.80133E-003	5.45499E-004	...........
EOC	QUANT	0.0068475	Open Circuit (V)
PSTATMODEL	IQUANT	4	Pstat Model
PSTATSECTION	LABEL	REF600-11020	Pstat Section
PSTATSERIALNO	LABEL	11020	Pstat Serial Number
CTRLMODE	IQUANT	1	Control Mode
IESTAB	IQUANT	0	I/E Stability
CASPEED	IQUANT	1	Control Amp Speed
CONVENTION	IQUANT	1	Current Convention
ICHRANGE	IQUANT	2	Ich Range
ICHRANGEMODE	TOGGLE	F	Ich Auto Range
ICHOFFSETENABLE	TOGGLE	T	Ich Offset Enable
ICHOFFSET	QUANT	0	Ich Offset (V)
ICHFILTER	IQUANT	3	Ich Filter
VCHRANGE	IQUANT	2	Vch Range
VCHRANGEMODE	TOGGLE	F	Vch Auto Range
VCHOFFSETENABLE	TOGGLE	T	Vch Offset Enable
VCHOFFSET	QUANT	0	Vch Offset (V)
VCHFILTER	IQUANT	3	Vch Filter
ACHRANGE	IQUANT	2	Ach Range
ACHOFFSETENABLE	TOGGLE	F	Ach Offset Enable
ACHOFFSET	QUANT	0	Ach Offset (V)
ACHFILTER	IQUANT	3	Ach Filter
IERANGELOWERLIMIT	IQUANT	1	I/E Range Lower Limit
IERANGEMODE	TOGGLE	F	I/E AutoRange
IERANGE	IQUANT	5	I/E Range
POSFEEDENABLE	TOGGLE	F	Positive Feedback IR Comp
POSFEEDRESISTANCE	QUANT	0	Positive Feedback Resistance (ohm)
ACHSELECT	IQUANT	0	Ach Select
CABLEID	IQUANT	14	Cable ID
DCCALDATE	LABEL	8/19/2019	DC Calibration Date
ACCALDATE	LABEL	8/19/2019	AC Calibration Date
THERMOSELECT	IQUANT	1	Thermo Select
FRAMEWORKVERSION	QUANT	6.33	Framework Version
INSTRUMENTVERSION	LABEL	3.50	Instrument Version
ZCURVE	TABLE
	Pt	Time	Freq	Zreal	Zimag	Zsig	Zmod	Zphz	Idc	Vdc	IERange
	#	s	Hz	ohm	ohm	V	ohm	°	A	V	#
	0	2	1000078	2334.919	-1646.863	1	2857.272	-35.19606	-3.948068E-006	0.0094834	8
	1	3	794390.6	2650.053	-1592.146	1	3091.555	-30.99736	1.24477E-006	0.0086107	8
	2	4	630984.4	2949.803	-1483.128	1	3301.667	-26.69273	-1.251096E-006	0.0088558	8
	3	6	501234.4	3202.102	-1350.903	1	3475.399	-22.87391	2.2419E-006	0.0079912	8
	4	7	398109.4	3400.922	-1202.702	1	3607.321	-19.47563	-2.719032E-006	0.0088945	8
	5	9	316265.6	3560.578	-1068.744	1	3717.517	-16.70767	-6.429952E-007	0.0085051	8
	6	10	251203.1	3677.907	-935.0804	1	3794.914	-14.26479	-7.34923E-007	0.0084768	8
	7	11	199546.9	3778.025	-829.9807	1	3868.119	-12.39028	-1.041087E-007	0.0082906	8
	8	13	158578.1	3865.417	-740.8683	1	3935.776	-10.85006	-1.389866E-006	0.0085883	8
	9	14	125953.1	3953.544	-635.9246	1	4004.361	-9.137715	1.118665E-006	0.0062806	7
	10	15	100078.1	4001.508	-578.0024	1	4043.038	-8.219305	-3.319128E-008	0.0083054	7
	11	17	79453.13	4053.184	-552.1589	1	4090.621	-7.75756	-1.353388E-008	0.0083289	7
	12	18	63140.62	4103.277	-537.2726	1	4138.302	-7.459725	-5.567168E-009	0.0082403	7
	13	19	50203.12	4153.908	-533.0062	1	4187.964	-7.31192	1.061449E-007	0.0081135	7
	14	21	39890.62	4205.3	-541.7458	1	4240.051	-7.340673	-2.723419E-008	0.008303	7
	15	22	31640.63	4259.694	-560.1443	1	4296.365	-7.491339	-3.440078E-008	0.0083425	7
	16	24	25171.88	4315.615	-589.3323	1	4355.668	-7.776105	-3.034028E-009	0.0083092	7
	17	25	20015.62	4379.623	-628.5658	1	4424.499	-8.167348	-2.465884E-008	0.0082853	7
	18	26	15890.62	4445.947	-683.1648	1	4498.128	-8.735749	-3.249676E-009	0.0083023	7
	19	28	12609.37	4521.104	-751.168	1	4583.081	-9.433352	-2.433536E-008	0.0082781	7
	20	29	10078.13	4600.678	-823.5689	1	4673.81	-10.14904	-2.389935E-008	0.0082747	7
	21	30	8015.625	4689.183	-906.537	1	4776.007	-10.94174	3.10206E-008	0.008244	7
	22	32	6328.125	4796.477	-1021.581	1	4904.062	-12.02352	1.003535E-007	0.0081365	7
	23	33	5015.625	4911.75	-1144.785	1	5043.395	-13.11975	-2.433693E-008	0.0082724	7
	24	35	3984.375	5047.785	-1283.742	1	5208.467	-14.26885	-4.388178E-008	0.0083131	7
	25	36	3170.956	5170.648	-1442.154	1	5367.999	-15.58441	-4.139237E-008	0.0083171	7
	26	37	2527.573	5313.266	-1623.075	1	5555.643	-16.98665	6.478928E-008	0.0081372	7
	27	39	1976.103	5477.709	-1852.341	1	5782.427	-18.68347	7.076723E-009	0.00823	7
	28	40	1577.524	5611.936	-2109.424	1	5995.29	-20.60032	-3.789815E-008	0.0084116	7
	29	41	1265.625	5792.976	-2394.524	1	6268.358	-22.45773	-4.086312E-008	0.0084123	7
	30	43	998.264	5965.042	-2778.227	1	6580.294	-24.97382	3.143042E-009	0.0082181	7
	31	44	796.875	6135.763	-3228.345	1	6933.239	-27.7512	-3.922726E-008	0.0084104	7
	32	46	627.7902	6318.702	-3818.465	1	7382.863	-31.14506	-2.941384E-008	0.0082773	7
	33	47	505.5147	6502.004	-4498.624	1	7906.559	-34.67869	-4.090029E-008	0.0083072	7
	34	48	397.9953	6719.209	-5430.617	1	8639.408	-38.94593	5.165319E-009	0.008294	7
	35	50	315.5048	6965.217	-6567.946	1	9573.51	-43.31854	4.192854E-009	0.0082916	7
	36	51	252.4038	7251.964	-7925.269	1	10742.48	-47.54013	7.039658E-011	0.0082247	6
	37	52	198.6229	7630.23	-9737.33	1	12370.77	-51.91753	1.434718E-010	0.0082291	6
	38	54	158.3615	8088.416	-11855.76	1	14352.05	-55.69681	6.435121E-010	0.0082274	6
	39	55	125.558	8687.315	-14528.15	1	16927.39	-59.12209	7.830336E-010	0.0082296	6
	40	56	100.4464	9458.354	-17654.04	1	20028.12	-61.81932	1.553888E-009	0.0082297	6
	41	58	79.00281	10481.29	-21743.08	1	24137.5	-64.26353	1.107276E-009	0.00823	6
	42	59	63.3446	11938.84	-26509.61	1	29073.96	-65.75514	-3.999708E-010	0.0082255	6
	43	61	49.86702	13447.11	-32319.55	1	35005.39	-67.4094	-4.74593E-010	0.0082306	6
	44	62	39.72458	15859.26	-39224.94	1	42309.71	-67.98574	4.376347E-010	0.0082318	6
	45	63	31.6723	18930.75	-47427.15	1	51065.72	-68.24037	1.414991E-009	0.008234	6
	46	65	24.93351	22963.13	-57591.04	1	62000.27	-68.26147	-2.668304E-010	0.0082312	6
	47	66	19.86229	27991.29	-69023.77	1	74483.52	-67.92591	8.759113E-010	0.0082307	6
	48	68	15.83615	34909.95	-82267.37	1	89367.91	-67.00618	-4.726968E-010	0.008234	6
	49	69	12.40079	43516.55	-98185.4	1	107396.7	-66.09669	-1.146529E-009	0.0082457	5
	50	70	9.93114	52953.89	-115282.2	1	126862.5	-65.32872	7.518171E-010	0.0082331	5
	51	72	7.944915	64364.05	-134308.7	1	148934.8	-64.39511	-1.36988E-010	0.0082336	5
	52	74	6.317385	78067.11	-156144.5	1	174572.5	-63.43645	3.941717E-010	0.0082343	5
	53	76	5.008013	93838.48	-181267.4	1	204116.4	-62.6303	3.573162E-010	0.0082414	5
	54	78	3.945707	111964.5	-210704.6	1	238605.3	-62.01466	1.223971E-011	0.0082298	5
	55	81	3.158693	130050.5	-242698.4	1	275346.5	-61.81526	1.802845E-010	0.0082472	5
	56	84	2.504006	150299.3	-282563	1	320049.6	-61.99084	-4.336398E-011	0.0082277	5
	57	87	1.998082	171570	-328544.3	1	370644.8	-62.42587	-1.564755E-011	0.0082389	5
	58	90	1.584686	196999.9	-386839.8	1	434112.9	-63.01233	1.326307E-010	0.0082842	5
	59	94	1.266892	224203.4	-453635.8	1	506016.4	-63.69974	-3.456848E-011	0.0082632	5
	60	98	0.999041	257824.9	-540907.1	1	599211.3	-64.51506	1.696576E-010	0.008224	5
