EXPLAIN
TAG	EISPOT
TITLE	LABEL	Potentiostatic EIS	Test &Identifier
DATE	LABEL	9/20/2019	Date
TIME	LABEL	10:45:54	Time
NOTES	NOTES	1	&Notes...
	
PSTAT	PSTAT	REF600-11020	Potentiostat
VDC	POTEN	0.00000E+000	T	DC &Voltage (V)
FREQINIT	QUANT	1.00000E+006	Initial Fre&q. (Hz)
FREQFINAL	QUANT	1.00000E+000	Final Fre&q. (Hz)
PTSPERDEC	QUANT	1.00000E+001	Points/&decade
VAC	QUANT	2.50000E+001	AC &Voltage (mV rms)
AREA	QUANT	1.00000E-002	&Area (cm^2)
CONDIT	TWOPARAM	T	5.00000E+000	0.00000E+000	Conditionin&g	Time(s)	E(V)
DELAY	TWOPARAM	T	5.00000E+000	0.00000E+000	Init. De&lay	Time(s)	Stab.(mV/s)
SPEED	SELECTOR	1	&Optimize for:
ZGUESS	QUANT	1.00000E+004	E&stimated Z (ohms)
OCVCURVE	TABLE	19
	Pt	T	Vf	Vm	Ach	Over
	#	s	V vs. Ref.	V	V	bits
	0	0.258333	9.11162E-002	9.11162E-002	5.73766E-004	...........
	1	0.516667	9.12345E-002	9.73109E-002	5.75299E-004	...........
	2	0.775	9.19565E-002	1.02938E-001	5.69632E-004	...........
	3	1.03333	9.39788E-002	1.08093E-001	5.68832E-004	...........
	4	1.29167	9.75429E-002	1.12852E-001	5.71266E-004	...........
	5	1.55	1.02184E-001	1.17274E-001	5.68099E-004	...........
	6	1.80833	1.07196E-001	1.21394E-001	5.71332E-004	...........
	7	2.06667	1.12085E-001	1.25255E-001	5.71332E-004	...........
	8	2.325	1.16650E-001	1.28889E-001	5.71099E-004	...........
	9	2.58333	1.20871E-001	1.32314E-001	5.70232E-004	...........
	10	2.84167	1.24791E-001	1.35555E-001	5.69999E-004	...........
	11	3.1	1.28461E-001	1.38625E-001	5.74266E-004	...........
	12	3.35833	1.31915E-001	1.41546E-001	5.71566E-004	...........
	13	3.61667	1.35181E-001	1.44323E-001	5.72732E-004	...........
	14	3.875	1.38276E-001	1.46981E-001	5.70899E-004	...........
	15	4.13333	1.41217E-001	1.49520E-001	5.67432E-004	...........
	16	4.39167	1.44017E-001	1.51948E-001	5.65999E-004	...........
	17	4.65	1.46689E-001	1.54299E-001	5.64432E-004	...........
	18	4.90833	1.49244E-001	1.56532E-001	5.69566E-004	...........
EOC	QUANT	0.1492444	Open Circuit (V)
PSTATMODEL	IQUANT	4	Pstat Model
PSTATSECTION	LABEL	REF600-11020	Pstat Section
PSTATSERIALNO	LABEL	11020	Pstat Serial Number
CTRLMODE	IQUANT	1	Control Mode
IESTAB	IQUANT	0	I/E Stability
CASPEED	IQUANT	1	Control Amp Speed
CONVENTION	IQUANT	1	Current Convention
ICHRANGE	IQUANT	2	Ich Range
ICHRANGEMODE	TOGGLE	F	Ich Auto Range
ICHOFFSETENABLE	TOGGLE	T	Ich Offset Enable
ICHOFFSET	QUANT	0	Ich Offset (V)
ICHFILTER	IQUANT	3	Ich Filter
VCHRANGE	IQUANT	2	Vch Range
VCHRANGEMODE	TOGGLE	F	Vch Auto Range
VCHOFFSETENABLE	TOGGLE	T	Vch Offset Enable
VCHOFFSET	QUANT	0	Vch Offset (V)
VCHFILTER	IQUANT	3	Vch Filter
ACHRANGE	IQUANT	2	Ach Range
ACHOFFSETENABLE	TOGGLE	F	Ach Offset Enable
ACHOFFSET	QUANT	0	Ach Offset (V)
ACHFILTER	IQUANT	3	Ach Filter
IERANGELOWERLIMIT	IQUANT	1	I/E Range Lower Limit
IERANGEMODE	TOGGLE	F	I/E AutoRange
IERANGE	IQUANT	7	I/E Range
POSFEEDENABLE	TOGGLE	F	Positive Feedback IR Comp
POSFEEDRESISTANCE	QUANT	0	Positive Feedback Resistance (ohm)
ACHSELECT	IQUANT	0	Ach Select
CABLEID	IQUANT	14	Cable ID
DCCALDATE	LABEL	8/19/2019	DC Calibration Date
ACCALDATE	LABEL	8/19/2019	AC Calibration Date
THERMOSELECT	IQUANT	1	Thermo Select
FRAMEWORKVERSION	QUANT	6.33	Framework Version
INSTRUMENTVERSION	LABEL	3.50	Instrument Version
ZCURVE	TABLE
	Pt	Time	Freq	Zreal	Zimag	Zsig	Zmod	Zphz	Idc	Vdc	IERange
	#	s	Hz	ohm	ohm	V	ohm	°	A	V	#
	0	2	1000078	2361.73	-1280.055	1	2686.319	-28.45763	2.219366E-007	0.1518299	8
	1	3	794390.6	2586.443	-1169.264	1	2838.462	-24.3265	1.499603E-006	0.1507112	8
	2	5	630984.4	2766.186	-1031.73	1	2952.329	-20.45447	-9.143401E-007	0.1512639	8
	3	6	501234.4	2920.292	-905.5065	1	3057.458	-17.2273	-3.509374E-006	0.1517121	8
	4	7	398109.4	3019.558	-786.093	1	3120.204	-14.59213	-3.034483E-006	0.1515809	8
	5	9	316265.6	3113.242	-675.3068	1	3185.642	-12.23868	1.575227E-006	0.1503523	8
	6	10	251203.1	3178.308	-596.3801	1	3233.777	-10.62745	1.157923E-006	0.1504653	8
	7	12	199546.9	3238.181	-506.6717	1	3277.581	-8.89285	2.885651E-006	0.1502182	8
	8	13	158578.1	3275.74	-461.4385	1	3308.081	-8.018235	4.262729E-006	0.1500069	8
	9	14	125953.1	3310.667	-381.4534	1	3332.57	-6.572608	-9.670922E-007	0.1529452	7
	10	16	100078.1	3344.72	-350.4163	1	3363.026	-5.980889	-2.182411E-008	0.1507955	7
	11	17	79453.13	3373.763	-342.202	1	3391.073	-5.791723	4.32645E-008	0.1506694	7
	12	19	63140.62	3404.649	-342.159	1	3421.799	-5.73882	1.091547E-007	0.1505799	7
	13	20	50203.12	3438.72	-347.7016	1	3456.254	-5.773763	5.864628E-008	0.1507279	7
	14	21	39890.62	3474.941	-362.2275	1	3493.77	-5.951014	6.025589E-008	0.1506052	7
	15	23	31640.63	3511.957	-380.34	1	3532.492	-6.180963	-1.977846E-008	0.1507792	7
	16	24	25171.88	3551.875	-406.5048	1	3575.061	-6.528977	1.613735E-008	0.1507277	7
	17	25	20015.62	3596.296	-440.3094	1	3623.15	-6.980218	-5.840252E-008	0.1507917	7
	18	27	15890.62	3645.173	-482.7244	1	3676.997	-7.543694	5.808054E-008	0.1507305	7
	19	28	12609.37	3696.062	-530.5294	1	3733.943	-8.16839	2.223041E-008	0.1506392	7
	20	29	10078.13	3749.658	-586.7661	1	3795.29	-8.893815	-2.92329E-008	0.150809	7
	21	31	8015.625	3808.814	-656.0046	1	3864.894	-9.77236	-3.443047E-008	0.1508982	7
	22	32	6328.125	3872.978	-740.1303	1	3943.063	-10.81884	-5.794305E-008	0.1507828	7
	23	33	5015.625	3940.25	-840.1927	1	4028.833	-12.03709	2.082551E-008	0.1506298	7
	24	35	3984.375	4010.548	-962.591	1	4124.448	-13.49654	-5.578028E-008	0.1507843	7
	25	36	3170.956	4084.196	-1107.533	1	4231.7	-15.17232	-3.172229E-008	0.1507406	7
	26	38	2527.573	4163.901	-1283.755	1	4357.304	-17.13483	1.962534E-008	0.1507289	7
	27	39	1976.103	4258.255	-1518.547	1	4520.921	-19.62687	2.430097E-008	0.150632	7
	28	40	1577.524	4354.098	-1787.353	1	4706.676	-22.3181	-5.330181E-008	0.1507981	7
	29	42	1265.625	4461.893	-2107.616	1	4934.625	-25.28414	-1.784542E-008	0.1507658	7
	30	43	998.264	4588.861	-2528.418	1	5239.326	-28.85434	-5.02976E-008	0.1508049	7
	31	44	796.875	4733.535	-3022.996	1	5616.48	-32.56368	-3.214736E-008	0.1508904	7
	32	46	627.7902	4916.015	-3660.234	1	6128.99	-36.66964	-5.739403E-008	0.1508475	7
	33	47	505.5147	5112.289	-4366.594	1	6723.291	-40.50186	-5.800747E-008	0.1508431	7
	34	48	397.9953	5376.458	-5313.831	1	7559.305	-44.66434	-1.238689E-008	0.1507833	7
	35	50	315.5048	5694.582	-6442.29	1	8598.335	-48.52533	-1.179697E-008	0.1507776	7
	36	51	252.4038	6071.788	-7759.323	1	9852.6	-51.95628	-1.296473E-008	0.1507782	7
	37	53	198.6229	6583.314	-9479.495	1	11541.27	-55.22082	-1.62723E-008	0.1507241	6
	38	54	158.3615	7194.393	-11457.93	1	13529.36	-57.87544	-1.654774E-008	0.1507215	6
	39	55	125.558	7995.338	-13909.58	1	16043.75	-60.10938	-1.591092E-008	0.1507241	6
	40	57	100.4464	8979.067	-16649.13	1	18916.06	-61.66151	-1.742755E-008	0.1507207	6
	41	58	79.00281	10357.81	-20222.27	1	22720.57	-62.87856	-1.608579E-008	0.150721	6
	42	59	63.3446	12158.33	-24059.54	1	26957.12	-63.19054	-1.679487E-008	0.1507155	6
	43	61	49.86702	14392.94	-29319.71	1	32661.94	-63.85374	-1.655437E-008	0.1507132	6
	44	62	39.72458	17300.76	-34788.43	1	38852.94	-63.55821	-1.575681E-008	0.1507179	6
	45	64	31.6723	20977.96	-41009.19	1	46063.31	-62.90831	-1.622319E-008	0.1507146	6
	46	65	24.93351	25942.95	-48692.57	1	55172.48	-61.95172	-1.569223E-008	0.1507162	6
	47	66	19.86229	31789.55	-56764.63	1	65059.96	-60.75013	-1.515888E-008	0.1507218	6
	48	68	15.83615	38630.93	-65817.41	1	76316.98	-59.58958	-1.72135E-008	0.1507177	6
	49	69	12.40079	48360.29	-75673.14	1	89806.13	-57.41866	-1.390901E-008	0.1507143	6
	50	71	9.93114	57881.1	-86152.78	1	103790.8	-56.10512	-1.649804E-008	0.1507201	6
	51	72	7.944915	68915.13	-96794.3	1	118821	-54.55007	-1.528622E-008	0.1507301	5
	52	74	6.317385	82184.72	-108559	1	136159.4	-52.87243	-1.524168E-008	0.150731	5
	53	76	5.008013	97244.5	-121395.8	1	155542.4	-51.30343	-1.539022E-008	0.1507394	5
	54	78	3.945707	114505.2	-135637.7	1	177507.8	-49.82898	-1.631166E-008	0.1507305	5
	55	81	3.158693	132120.2	-149812.4	1	199748.6	-48.59077	-1.561721E-008	0.1507513	5
	56	84	2.504006	152397	-166071.9	1	225399	-47.45873	-1.614225E-008	0.1507272	5
	57	87	1.998082	173610.4	-183320.9	1	252481.9	-46.55837	-1.64747E-008	0.1507456	5
	58	90	1.584686	197760.6	-202401.6	1	282976.4	-45.66447	-1.529259E-008	0.1507841	5
	59	94	1.266892	222050.3	-223674.5	1	315177.2	-45.20879	-1.586569E-008	0.1507536	5
	60	98	0.999041	250417.3	-249319	1	353367.8	-44.87407	-1.44294E-008	0.1507248	5
