EXPLAIN
TAG	EISPOT
TITLE	LABEL	Potentiostatic IDE	Test &Identifier
DATE	LABEL	9/6/2019	Date
TIME	LABEL	9:15:41	Time
NOTES	NOTES	1	&Notes...
	
PSTAT	PSTAT	REF600-11020	Potentiostat
VDC	POTEN	0.00000E+000	T	DC &Voltage (V)
FREQINIT	QUANT	1.00000E+006	Initial Fre&q. (Hz)
FREQFINAL	QUANT	1.00000E+000	Final Fre&q. (Hz)
PTSPERDEC	QUANT	1.00000E+001	Points/&decade
VAC	QUANT	2.50000E+001	AC &Voltage (mV rms)
AREA	QUANT	1.00000E-002	&Area (cm^2)
CONDIT	TWOPARAM	T	5.00000E+000	0.00000E+000	Conditionin&g	Time(s)	E(V)
DELAY	TWOPARAM	T	5.00000E+000	0.00000E+000	Init. De&lay	Time(s)	Stab.(mV/s)
SPEED	SELECTOR	1	&Optimize for:
ZGUESS	QUANT	1.00000E+007	E&stimated Z (ohms)
OCVCURVE	TABLE	19
	Pt	T	Vf	Vm	Ach	Over
	#	s	V vs. Ref.	V	V	bits
	0	0.258333	6.09006E-003	6.09006E-003	4.77600E-004	...........
	1	0.516667	6.08521E-003	5.83618E-003	4.86100E-004	...........
	2	0.775	6.05591E-003	5.62073E-003	4.89200E-004	...........
	3	1.03333	5.97509E-003	5.43876E-003	4.89434E-004	...........
	4	1.29167	5.83586E-003	5.27419E-003	4.87400E-004	...........
	5	1.55	5.66008E-003	5.13178E-003	4.89400E-004	...........
	6	1.80833	5.47750E-003	5.00092E-003	4.91833E-004	...........
	7	2.06667	5.30703E-003	4.87948E-003	4.84167E-004	...........
	8	2.325	5.15443E-003	4.76403E-003	4.86334E-004	...........
	9	2.58333	5.01787E-003	4.65827E-003	4.92533E-004	...........
	10	2.84167	4.89359E-003	4.56158E-003	4.91600E-004	...........
	11	3.1	4.77891E-003	4.46994E-003	4.80100E-004	...........
	12	3.35833	4.67250E-003	4.38421E-003	4.80334E-004	...........
	13	3.61667	4.57342E-003	4.29846E-003	4.90267E-004	...........
	14	3.875	4.48040E-003	4.21626E-003	4.89034E-004	...........
	15	4.13333	4.39203E-003	4.14115E-003	4.77434E-004	...........
	16	4.39167	4.30747E-003	4.06853E-003	4.82634E-004	...........
	17	4.65	4.22668E-003	3.99990E-003	4.87300E-004	...........
	18	4.90833	4.14988E-003	3.93693E-003	4.87234E-004	...........
EOC	QUANT	0.0041499	Open Circuit (V)
PSTATMODEL	IQUANT	4	Pstat Model
PSTATSECTION	LABEL	REF600-11020	Pstat Section
PSTATSERIALNO	LABEL	11020	Pstat Serial Number
CTRLMODE	IQUANT	1	Control Mode
IESTAB	IQUANT	0	I/E Stability
CASPEED	IQUANT	1	Control Amp Speed
CONVENTION	IQUANT	1	Current Convention
ICHRANGE	IQUANT	2	Ich Range
ICHRANGEMODE	TOGGLE	F	Ich Auto Range
ICHOFFSETENABLE	TOGGLE	T	Ich Offset Enable
ICHOFFSET	QUANT	0	Ich Offset (V)
ICHFILTER	IQUANT	3	Ich Filter
VCHRANGE	IQUANT	2	Vch Range
VCHRANGEMODE	TOGGLE	F	Vch Auto Range
VCHOFFSETENABLE	TOGGLE	T	Vch Offset Enable
VCHOFFSET	QUANT	0	Vch Offset (V)
VCHFILTER	IQUANT	3	Vch Filter
ACHRANGE	IQUANT	2	Ach Range
ACHOFFSETENABLE	TOGGLE	F	Ach Offset Enable
ACHOFFSET	QUANT	0	Ach Offset (V)
ACHFILTER	IQUANT	3	Ach Filter
IERANGELOWERLIMIT	IQUANT	1	I/E Range Lower Limit
IERANGEMODE	TOGGLE	F	I/E AutoRange
IERANGE	IQUANT	2	I/E Range
POSFEEDENABLE	TOGGLE	F	Positive Feedback IR Comp
POSFEEDRESISTANCE	QUANT	0	Positive Feedback Resistance (ohm)
ACHSELECT	IQUANT	0	Ach Select
CABLEID	IQUANT	14	Cable ID
DCCALDATE	LABEL	8/19/2019	DC Calibration Date
ACCALDATE	LABEL	8/19/2019	AC Calibration Date
THERMOSELECT	IQUANT	1	Thermo Select
FRAMEWORKVERSION	QUANT	6.33	Framework Version
INSTRUMENTVERSION	LABEL	3.50	Instrument Version
ZCURVE	TABLE
	Pt	Time	Freq	Zreal	Zimag	Zsig	Zmod	Zphz	Idc	Vdc	IERange
	#	s	Hz	ohm	ohm	V	ohm	°	A	V	#
	0	2	1000078	2540.091	-1659.072	1	3033.906	-33.15074	6.545275E-007	0.0065457	8
	1	4	794390.6	2840.491	-1547.372	1	3234.617	-28.57956	1.046006E-006	0.006077	8
	2	5	630984.4	3123.924	-1397.115	1	3422.109	-24.09566	-1.095522E-006	0.0063788	8
	3	6	501234.4	3338.42	-1227.388	1	3556.899	-20.18623	2.67469E-006	0.0055878	8
	4	8	398109.4	3506.595	-1069.633	1	3666.104	-16.96353	-1.262077E-007	0.0059394	8
	5	9	316265.6	3629.679	-909.6627	1	3741.932	-14.06956	9.60267E-008	0.0058991	8
	6	10	251203.1	3708.342	-796.2206	1	3792.857	-12.11803	-1.917146E-006	0.0063221	8
	7	12	199546.9	3771.862	-688.6161	1	3834.206	-10.34635	1.204988E-007	0.0058839	8
	8	13	158578.1	3834.603	-607.0038	1	3882.349	-8.995078	2.230767E-006	0.0055044	8
	9	14	125953.1	3891.379	-523.066	1	3926.376	-7.655618	-2.387776E-007	0.0063746	7
	10	16	100078.1	3925.786	-480.0269	1	3955.025	-6.971257	-1.534821E-008	0.005868	7
	11	17	79453.13	3960.508	-462.6299	1	3987.436	-6.66257	4.491939E-008	0.005786	7
	12	18	63140.62	3995.343	-457.0554	1	4021.401	-6.526098	7.80739E-008	0.00576	7
	13	20	50203.12	4030.827	-461.5473	1	4057.165	-6.532169	-1.969878E-008	0.0059401	7
	14	21	39890.62	4064.975	-480.4571	1	4093.27	-6.740764	3.026583E-008	0.0057749	7
	15	22	31640.63	4107.23	-511.6647	1	4138.979	-7.101128	3.172853E-008	0.0057747	7
	16	24	25171.88	4149.232	-555.9515	1	4186.313	-7.631551	-2.504013E-008	0.0059011	7
	17	25	20015.62	4194.977	-615.9703	1	4239.959	-8.353344	3.405925E-009	0.0058072	7
	18	26	15890.62	4246.534	-691.0947	1	4302.402	-9.243464	4.938875E-008	0.0057738	7
	19	28	12609.37	4304.521	-786.2977	1	4375.747	-10.35197	-6.995481E-009	0.0058906	7
	20	29	10078.13	4366.439	-898.7398	1	4457.974	-11.6307	-1.284942E-008	0.0058573	7
	21	30	8015.625	4436.117	-1036.589	1	4555.618	-13.15233	4.938406E-008	0.0057708	7
	22	32	6328.125	4519.761	-1211.343	1	4679.273	-15.00327	-3.045649E-008	0.0059205	7
	23	33	5015.625	4613.455	-1418.794	1	4826.691	-17.09444	1.610609E-008	0.005848	7
	24	34	3984.375	4720.457	-1670.4	1	5007.289	-19.48704	-2.366183E-008	0.0058741	7
	25	36	3170.956	4844.799	-1969.39	1	5229.777	-22.12153	-3.367726E-008	0.0059119	7
	26	37	2527.573	4987.34	-2322.136	1	5501.443	-24.96698	1.475903E-008	0.0058054	7
	27	38	1976.103	5171.125	-2788.356	1	5874.986	-28.33428	5.00904E-008	0.0057533	7
	28	40	1577.524	5367.431	-3301.531	1	6301.542	-31.59586	-2.256012E-008	0.0058732	7
	29	41	1265.625	5589.429	-3893.216	1	6811.67	-34.85844	-2.336337E-008	0.0058735	7
	30	42	998.264	5878.331	-4664.624	1	7504.231	-38.43301	-2.979931E-008	0.0059198	7
	31	44	796.875	6193.465	-5532.918	1	8304.95	-41.77594	-2.479403E-008	0.0058705	7
	32	45	627.7902	6587.37	-6650.738	1	9360.862	-45.27426	5.157758E-010	0.0058768	7
	33	46	505.5147	7004.09	-7847.843	1	10518.84	-48.25154	2.088611E-010	0.0058214	6
	34	47	397.9953	7539.413	-9461.182	1	12097.8	-51.44941	8.029707E-010	0.0058233	6
	35	49	315.5048	8149.799	-11353.07	1	13975.39	-54.32733	8.114836E-010	0.0058168	6
	36	50	252.4038	8836.806	-13547.11	1	16174.47	-56.88352	6.046914E-010	0.005813	6
	37	51	198.6229	9712.86	-16402.71	1	19062.75	-59.36813	7.498216E-010	0.0058131	6
	38	53	158.3615	10702.46	-19680.36	1	22402.22	-61.46203	7.830171E-010	0.0058142	6
	39	54	125.558	11913.06	-23749.26	1	26569.69	-63.36083	9.373603E-010	0.0058091	6
	40	55	100.4464	13310.3	-28469.94	1	31427.72	-64.94291	5.637662E-010	0.0058061	6
	41	57	79.00281	15171.8	-34606.77	1	37786.4	-66.32709	6.730796E-010	0.0058043	6
	42	58	63.3446	17146.57	-41589.8	1	44985.74	-67.5947	5.070172E-010	0.0058059	6
	43	60	49.86702	19887.68	-50358.7	1	54143.5	-68.44992	6.173451E-010	0.0058008	6
	44	61	39.72458	23084.76	-60718.47	1	64958.75	-69.18353	6.868834E-010	0.0058066	6
	45	62	31.6723	26988.53	-73080.31	1	77904.51	-69.73083	9.161117E-010	0.0058058	6
	46	64	24.93351	31922.7	-88816.08	1	94378.78	-70.2303	5.743171E-010	0.0058088	6
	47	65	19.86229	37745.46	-106832.6	1	113304.5	-70.54097	3.05112E-010	0.005804	5
	48	66	15.83615	44974.61	-128524.3	1	136166.2	-70.71349	4.20384E-010	0.0058098	5
	49	68	12.40079	54400	-156864.3	1	166029.5	-70.87363	3.602375E-010	0.0058111	5
	50	69	9.93114	65470.23	-187626.5	1	198721	-70.76411	4.890451E-010	0.005805	5
	51	71	7.944915	79039.27	-224714.9	1	238210	-70.62163	6.066019E-010	0.0058006	5
	52	72	6.317385	97311.6	-269760.3	1	286775.5	-70.16393	4.568188E-010	0.0057943	5
	53	74	5.008013	120623.4	-324548.5	1	346239.4	-69.61164	4.307248E-010	0.0058161	5
	54	77	3.945707	151114.5	-391294.8	1	419460.6	-68.88389	8.171788E-011	0.0058011	5
	55	79	3.158693	188550.1	-463601.2	1	500477	-67.86805	2.361115E-010	0.0058113	5
	56	82	2.504006	237148.5	-549829.3	1	598791.9	-66.66884	1.576089E-010	0.0058158	5
	57	85	1.998082	295167.2	-644430.5	1	708811.9	-65.3909	3.83361E-010	0.0058253	5
	58	88	1.584686	371569.8	-753198.7	1	839864.5	-63.74184	1.874657E-010	0.0057671	5
	59	92	1.266892	458055.7	-872052.6	1	985033	-62.28878	2.643221E-010	0.0058345	5
	60	96	0.999041	570510.3	-1009416	1	1159484	-60.52536	-2.21076E-011	0.0057665	4
