EXPLAIN
TAG	EISPOT
TITLE	LABEL	Potentiostatic IDE	Test &Identifier
DATE	LABEL	9/16/2019	Date
TIME	LABEL	10:12:09	Time
NOTES	NOTES	1	&Notes...
	
PSTAT	PSTAT	REF600-11020	Potentiostat
VDC	POTEN	0.00000E+000	T	DC &Voltage (V)
FREQINIT	QUANT	1.00000E+006	Initial Fre&q. (Hz)
FREQFINAL	QUANT	1.00000E+000	Final Fre&q. (Hz)
PTSPERDEC	QUANT	1.00000E+001	Points/&decade
VAC	QUANT	2.50000E+001	AC &Voltage (mV rms)
AREA	QUANT	1.00000E-002	&Area (cm^2)
CONDIT	TWOPARAM	T	5.00000E+000	0.00000E+000	Conditionin&g	Time(s)	E(V)
DELAY	TWOPARAM	T	5.00000E+000	0.00000E+000	Init. De&lay	Time(s)	Stab.(mV/s)
SPEED	SELECTOR	1	&Optimize for:
ZGUESS	QUANT	1.00000E+007	E&stimated Z (ohms)
OCVCURVE	TABLE	19
	Pt	T	Vf	Vm	Ach	Over
	#	s	V vs. Ref.	V	V	bits
	0	0.258333	4.02345E-003	4.02345E-003	5.77266E-004	...........
	1	0.516667	4.01978E-003	3.83156E-003	5.72899E-004	...........
	2	0.775	3.99757E-003	3.66521E-003	5.74732E-004	...........
	3	1.03333	3.93589E-003	3.51449E-003	5.70432E-004	...........
	4	1.29167	3.82834E-003	3.37813E-003	5.68199E-004	...........
	5	1.55	3.69002E-003	3.24986E-003	5.69466E-004	...........
	6	1.80833	3.54250E-003	3.13084E-003	5.73299E-004	...........
	7	2.06667	3.40007E-003	3.02140E-003	5.72166E-004	...........
	8	2.325	3.26800E-003	2.91370E-003	5.72432E-004	...........
	9	2.58333	3.14625E-003	2.81546E-003	5.74099E-004	...........
	10	2.84167	3.03307E-003	2.72046E-003	5.69732E-004	...........
	11	3.1	2.92689E-003	2.63452E-003	5.71132E-004	...........
	12	3.35833	2.82687E-003	2.54787E-003	5.67832E-004	...........
	13	3.61667	2.73240E-003	2.46448E-003	5.71232E-004	...........
	14	3.875	2.64262E-003	2.38828E-003	5.68999E-004	...........
	15	4.13333	2.55638E-003	2.29046E-003	5.66332E-004	...........
	16	4.39167	2.47257E-003	2.24575E-003	5.66599E-004	...........
	17	4.65	2.39179E-003	2.17756E-003	5.61866E-004	...........
	18	4.90833	2.31638E-003	2.11093E-003	5.64166E-004	...........
EOC	QUANT	0.0023164	Open Circuit (V)
PSTATMODEL	IQUANT	4	Pstat Model
PSTATSECTION	LABEL	REF600-11020	Pstat Section
PSTATSERIALNO	LABEL	11020	Pstat Serial Number
CTRLMODE	IQUANT	1	Control Mode
IESTAB	IQUANT	0	I/E Stability
CASPEED	IQUANT	1	Control Amp Speed
CONVENTION	IQUANT	1	Current Convention
ICHRANGE	IQUANT	2	Ich Range
ICHRANGEMODE	TOGGLE	F	Ich Auto Range
ICHOFFSETENABLE	TOGGLE	T	Ich Offset Enable
ICHOFFSET	QUANT	0	Ich Offset (V)
ICHFILTER	IQUANT	3	Ich Filter
VCHRANGE	IQUANT	2	Vch Range
VCHRANGEMODE	TOGGLE	F	Vch Auto Range
VCHOFFSETENABLE	TOGGLE	T	Vch Offset Enable
VCHOFFSET	QUANT	0	Vch Offset (V)
VCHFILTER	IQUANT	3	Vch Filter
ACHRANGE	IQUANT	2	Ach Range
ACHOFFSETENABLE	TOGGLE	F	Ach Offset Enable
ACHOFFSET	QUANT	0	Ach Offset (V)
ACHFILTER	IQUANT	3	Ach Filter
IERANGELOWERLIMIT	IQUANT	1	I/E Range Lower Limit
IERANGEMODE	TOGGLE	F	I/E AutoRange
IERANGE	IQUANT	2	I/E Range
POSFEEDENABLE	TOGGLE	F	Positive Feedback IR Comp
POSFEEDRESISTANCE	QUANT	0	Positive Feedback Resistance (ohm)
ACHSELECT	IQUANT	0	Ach Select
CABLEID	IQUANT	14	Cable ID
DCCALDATE	LABEL	8/19/2019	DC Calibration Date
ACCALDATE	LABEL	8/19/2019	AC Calibration Date
THERMOSELECT	IQUANT	1	Thermo Select
FRAMEWORKVERSION	QUANT	6.33	Framework Version
INSTRUMENTVERSION	LABEL	3.50	Instrument Version
ZCURVE	TABLE
	Pt	Time	Freq	Zreal	Zimag	Zsig	Zmod	Zphz	Idc	Vdc	IERange
	#	s	Hz	ohm	ohm	V	ohm	°	A	V	#
	0	2	1000078	2333.7	-1732.704	1	2906.616	-36.59281	5.636015E-006	0.0036334	8
	1	4	794390.6	2689.247	-1657.245	1	3158.878	-31.6434	-3.100693E-006	0.0046613	8
	2	5	630984.4	3002.669	-1535.257	1	3372.393	-27.08055	1.392185E-006	0.0038209	8
	3	7	501234.4	3278.226	-1380.368	1	3556.99	-22.83458	-2.487202E-006	0.0043975	8
	4	8	398109.4	3481.579	-1238.381	1	3695.264	-19.58023	6.400012E-006	0.0027698	8
	5	10	316265.6	3641.157	-1056.767	1	3791.409	-16.18423	1.749464E-006	0.0034659	8
	6	11	251203.1	3758.521	-917.2036	1	3868.817	-13.71403	-4.024122E-006	0.0047235	8
	7	13	199546.9	3865.209	-806.1748	1	3948.387	-11.7814	5.880548E-006	0.0028013	8
	8	14	158578.1	3919.273	-683.5566	1	3978.436	-9.89339	-1.187834E-006	0.0041126	8
	9	16	125953.1	4016.888	-535.4471	1	4052.418	-7.592709	-9.249903E-007	0.005664	7
	10	17	100078.1	4041.591	-469.5346	1	4068.774	-6.626669	-4.54898E-008	0.0039085	7
	11	18	79453.13	4075.354	-428.8317	1	4097.854	-6.00688	-1.778758E-008	0.0039103	7
	12	20	63140.62	4108.423	-399.7785	1	4127.828	-5.557786	1.975816E-008	0.0037544	7
	13	21	50203.12	4137.995	-379.8462	1	4155.393	-5.244752	7.838489E-008	0.0038197	7
	14	22	39890.62	4167.362	-372.7466	1	4183.999	-5.111177	-5.134372E-008	0.0040023	7
	15	24	31640.63	4195.966	-374.9999	1	4212.689	-5.107044	7.904592E-008	0.0038226	7
	16	25	25171.88	4225.906	-386.8945	1	4243.58	-5.23102	-4.881994E-008	0.0038884	7
	17	26	20015.62	4256.811	-408.4594	1	4276.363	-5.480998	-2.198191E-008	0.0038304	7
	18	28	15890.62	4289.424	-442.275	1	4312.165	-5.886864	-2.270077E-008	0.0038308	7
	19	29	12609.37	4322.969	-486.6842	1	4350.278	-6.42337	-2.401812E-008	0.0040056	7
	20	30	10078.13	4358.598	-542.6752	1	4392.251	-7.097194	2.2296E-008	0.0037568	7
	21	32	8015.625	4397.134	-618.9142	1	4440.478	-8.011977	-4.142987E-008	0.0038729	7
	22	33	6328.125	4440.153	-715.4447	1	4497.424	-9.153429	-4.645555E-008	0.0038748	7
	23	34	5015.625	4487.336	-833.245	1	4564.042	-10.51934	1.463723E-007	0.0036246	7
	24	36	3984.375	4538.643	-978.987	1	4643.026	-12.17223	-2.113646E-008	0.0038194	7
	25	37	3170.956	4596.902	-1157.722	1	4740.446	-14.13587	1.460441E-007	0.0036253	7
	26	38	2527.573	4663.115	-1373.62	1	4861.222	-16.41346	-7.767702E-008	0.0039514	7
	27	40	1976.103	4744.332	-1660.176	1	5026.417	-19.28638	-2.251096E-009	0.0037827	7
	28	41	1577.524	4832.288	-1987.61	1	5225.093	-22.35828	-1.065224E-008	0.0038651	7
	29	42	1265.625	4935.293	-2357.578	1	5469.488	-25.5337	-4.513664E-008	0.0038715	7
	30	44	998.264	5053.664	-2879.093	1	5816.244	-29.67034	-3.545529E-008	0.0038534	7
	31	45	796.875	5186.014	-3466.338	1	6237.808	-33.75882	-8.991093E-009	0.0038759	7
	32	46	627.7902	5342.991	-4230.564	1	6815.073	-38.37207	4.825285E-008	0.0036907	7
	33	48	505.5147	5512.087	-5086.312	1	7500.245	-42.69946	-4.122127E-008	0.0038998	7
	34	49	397.9953	5729.79	-6252.646	1	8480.924	-47.49852	5.274877E-009	0.00386	7
	35	50	315.5048	5982.969	-7654.796	1	9715.55	-51.98891	5.586934E-009	0.0038535	7
	36	52	252.4038	6281.451	-9317.117	1	11236.78	-56.01278	1.870039E-009	0.003799	6
	37	53	198.6229	6678.333	-11524.32	1	13319.54	-59.90775	1.173708E-009	0.0038038	6
	38	54	158.3615	7152.964	-14109.62	1	15819.17	-63.11697	7.20077E-010	0.003797	6
	39	56	125.558	7774.35	-17364.71	1	19025.6	-65.88147	1.628623E-009	0.0037951	6
	40	57	100.4464	8529.612	-21217.59	1	22867.89	-68.09954	4.311883E-010	0.0037997	6
	41	58	79.00281	9607.3	-26219.54	1	27924.26	-69.87627	1.525789E-009	0.003793	6
	42	60	63.3446	10750.15	-32201.39	1	33948.42	-71.53886	4.813892E-010	0.0037887	6
	43	61	49.86702	12785.06	-39275.3	1	41303.84	-71.96868	9.21289E-010	0.0037872	6
	44	63	39.72458	15208.47	-48150.16	1	50494.91	-72.47102	1.105884E-009	0.0037924	6
	45	64	31.6723	18361.44	-58693.42	1	61498.45	-72.62842	2.737734E-010	0.0037958	6
	46	65	24.93351	22481.66	-71873.63	1	75307.66	-72.63062	1.278501E-009	0.0037902	6
	47	67	19.86229	27754.16	-86942.49	1	91264.95	-72.29565	1.679334E-009	0.0037974	6
	48	68	15.83615	34740.08	-104290.8	1	109924.7	-71.57668	7.429016E-010	0.0037916	5
	49	69	12.40079	43616.24	-127712.7	1	134955.2	-71.14402	1.000185E-009	0.0038013	5
	50	71	9.93114	55675.66	-151946	1	161825.1	-69.87629	2.9586E-010	0.003794	5
	51	72	7.944915	69313.64	-179467.1	1	192387.2	-68.88248	-3.214955E-010	0.0037956	5
	52	74	6.317385	88170.41	-213754.1	1	231224.7	-67.58458	7.225161E-011	0.003801	5
	53	76	5.008013	111755	-252644.6	1	276258	-66.13824	3.182954E-010	0.0037919	5
	54	78	3.945707	141767.1	-297864.3	1	329880.3	-64.54811	3.171942E-010	0.0037942	5
	55	81	3.158693	176066.4	-344783.3	1	387136.8	-62.9485	5.010535E-010	0.0038091	5
	56	84	2.504006	219950.9	-399574.2	1	456111.7	-61.16883	-8.991845E-011	0.0037956	5
	57	87	1.998082	268875.2	-454302.5	1	527905.9	-59.38118	4.805726E-010	0.0037574	5
	58	90	1.584686	328001.7	-518320.9	1	613385.4	-57.67372	7.975466E-011	0.003755	5
	59	94	1.266892	390025.5	-580335.5	1	699220.4	-56.09618	4.489966E-010	0.0037642	5
	60	98	0.999041	465058.3	-656595.7	1	804609.9	-54.69055	-7.048492E-011	0.0037876	5
