EXPLAIN
TAG	EISPOT
TITLE	LABEL	Potentiostatic EIS	Test &Identifier
DATE	LABEL	10/8/2019	Date
TIME	LABEL	10:09:04	Time
NOTES	NOTES	2	&Notes...
	
	
PSTAT	PSTAT	REF600-11020	Potentiostat
VDC	POTEN	0.00000E+000	T	DC &Voltage (V)
FREQINIT	QUANT	1.00000E+006	Initial Fre&q. (Hz)
FREQFINAL	QUANT	1.00000E+000	Final Fre&q. (Hz)
PTSPERDEC	QUANT	1.00000E+001	Points/&decade
VAC	QUANT	2.50000E+001	AC &Voltage (mV rms)
AREA	QUANT	1.00000E-002	&Area (cm^2)
CONDIT	TWOPARAM	T	5.00000E+000	0.00000E+000	Conditionin&g	Time(s)	E(V)
DELAY	TWOPARAM	T	5.00000E+000	0.00000E+000	Init. De&lay	Time(s)	Stab.(mV/s)
SPEED	SELECTOR	1	&Optimize for:
ZGUESS	QUANT	1.00000E+004	E&stimated Z (ohms)
OCVCURVE	TABLE	19
	Pt	T	Vf	Vm	Ach	Over
	#	s	V vs. Ref.	V	V	bits
	0	0.258333	6.63957E-003	6.63957E-003	5.06167E-004	...........
	1	0.516667	6.64037E-003	6.68188E-003	5.12267E-004	...........
	2	0.775	6.64545E-003	6.72786E-003	5.12433E-004	...........
	3	1.03333	6.66045E-003	6.78613E-003	5.15000E-004	...........
	4	1.29167	6.68913E-003	6.83881E-003	5.16700E-004	...........
	5	1.55	6.73064E-003	6.90165E-003	5.09933E-004	...........
	6	1.80833	6.78122E-003	6.95965E-003	5.14866E-004	...........
	7	2.06667	6.83726E-003	7.02812E-003	5.11733E-004	...........
	8	2.325	6.89650E-003	7.08375E-003	5.18566E-004	...........
	9	2.58333	6.95762E-003	7.15134E-003	5.21033E-004	...........
	10	2.84167	7.01954E-003	7.20640E-003	5.16733E-004	...........
	11	3.1	7.08150E-003	7.27285E-003	5.21766E-004	...........
	12	3.35833	7.14319E-003	7.33152E-003	5.13566E-004	...........
	13	3.61667	7.20461E-003	7.38942E-003	5.21866E-004	...........
	14	3.875	7.26551E-003	7.44496E-003	5.19866E-004	...........
	15	4.13333	7.32529E-003	7.50258E-003	5.22266E-004	...........
	16	4.39167	7.38382E-003	7.56374E-003	5.20933E-004	...........
	17	4.65	7.44169E-003	7.62065E-003	5.17233E-004	...........
	18	4.90833	7.49952E-003	7.67140E-003	5.13800E-004	...........
EOC	QUANT	0.0074995	Open Circuit (V)
PSTATMODEL	IQUANT	4	Pstat Model
PSTATSECTION	LABEL	REF600-11020	Pstat Section
PSTATSERIALNO	LABEL	11020	Pstat Serial Number
CTRLMODE	IQUANT	1	Control Mode
IESTAB	IQUANT	0	I/E Stability
CASPEED	IQUANT	1	Control Amp Speed
CONVENTION	IQUANT	1	Current Convention
ICHRANGE	IQUANT	2	Ich Range
ICHRANGEMODE	TOGGLE	F	Ich Auto Range
ICHOFFSETENABLE	TOGGLE	T	Ich Offset Enable
ICHOFFSET	QUANT	0	Ich Offset (V)
ICHFILTER	IQUANT	3	Ich Filter
VCHRANGE	IQUANT	2	Vch Range
VCHRANGEMODE	TOGGLE	F	Vch Auto Range
VCHOFFSETENABLE	TOGGLE	T	Vch Offset Enable
VCHOFFSET	QUANT	0	Vch Offset (V)
VCHFILTER	IQUANT	3	Vch Filter
ACHRANGE	IQUANT	2	Ach Range
ACHOFFSETENABLE	TOGGLE	F	Ach Offset Enable
ACHOFFSET	QUANT	0	Ach Offset (V)
ACHFILTER	IQUANT	3	Ach Filter
IERANGELOWERLIMIT	IQUANT	1	I/E Range Lower Limit
IERANGEMODE	TOGGLE	F	I/E AutoRange
IERANGE	IQUANT	6	I/E Range
POSFEEDENABLE	TOGGLE	F	Positive Feedback IR Comp
POSFEEDRESISTANCE	QUANT	0	Positive Feedback Resistance (ohm)
ACHSELECT	IQUANT	0	Ach Select
CABLEID	IQUANT	14	Cable ID
DCCALDATE	LABEL	8/19/2019	DC Calibration Date
ACCALDATE	LABEL	8/19/2019	AC Calibration Date
THERMOSELECT	IQUANT	1	Thermo Select
FRAMEWORKVERSION	QUANT	6.33	Framework Version
INSTRUMENTVERSION	LABEL	3.50	Instrument Version
ZCURVE	TABLE
	Pt	Time	Freq	Zreal	Zimag	Zsig	Zmod	Zphz	Idc	Vdc	IERange
	#	s	Hz	ohm	ohm	V	ohm	°	A	V	#
	0	1	1000078	2452.694	-1084.543	1	2681.779	-23.85428	3.510091E-006	0.0087452	8
	1	3	794390.6	2620.074	-979.573	1	2797.204	-20.49938	1.687763E-007	0.0090611	8
	2	4	630984.4	2767.621	-862.77	1	2898.982	-17.31419	1.190261E-006	0.008959	8
	3	6	501234.4	2870.489	-764.2445	1	2970.485	-14.90869	-2.820998E-006	0.009693	8
	4	7	398109.4	2957.893	-662.8561	1	3031.255	-12.63115	4.632331E-006	0.0083021	8
	5	9	316265.6	3025.58	-590.4326	1	3082.652	-11.04232	8.041571E-007	0.0088699	8
	6	10	251203.1	3074.072	-514.5999	1	3116.846	-9.5032	-8.38464E-007	0.0091553	8
	7	11	199546.9	3121.042	-461.6357	1	3154.998	-8.413659	-2.884846E-006	0.0096661	8
	8	13	158578.1	3158.297	-410.4789	1	3184.86	-7.405133	1.07014E-006	0.0088826	8
	9	14	125953.1	3211.641	-348.6822	1	3230.513	-6.196233	-3.933497E-007	0.00956	7
	10	15	100078.1	3239.375	-335.5993	1	3256.712	-5.914743	-1.724219E-008	0.0090986	7
	11	17	79453.13	3274.845	-333.9685	1	3291.83	-5.82289	-3.664641E-008	0.0090597	7
	12	18	63140.62	3307.912	-338.2673	1	3325.163	-5.838775	-8.73252E-008	0.0091896	7
	13	19	50203.12	3344.957	-346.4615	1	3362.852	-5.913453	-4.335511E-008	0.0090599	7
	14	21	39890.62	3383.707	-357.2306	1	3402.511	-6.026606	-1.454807E-008	0.009001	7
	15	22	31640.63	3423.412	-375.542	1	3443.949	-6.260211	1.480288E-007	0.0088094	7
	16	23	25171.88	3464.896	-397.5528	1	3487.628	-6.545341	1.489867E-007	0.0088079	7
	17	25	20015.62	3510.233	-425.0924	1	3535.879	-6.904946	9.404638E-008	0.0089759	7
	18	26	15890.62	3551.471	-459.6055	1	3581.087	-7.373819	-1.735317E-008	0.0091869	7
	19	27	12609.37	3598.755	-502.7866	1	3633.708	-7.953384	-1.937843E-008	0.009089	7
	20	29	10078.13	3643.246	-555.8672	1	3685.408	-8.674984	3.707301E-008	0.0090046	7
	21	30	8015.625	3691.704	-621.2488	1	3743.612	-9.55237	-8.810187E-008	0.009187	7
	22	31	6328.125	3745.772	-705.4659	1	3811.625	-10.66595	-8.718455E-008	0.0091821	7
	23	33	5015.625	3801.898	-807.2985	1	3886.665	-11.98818	9.19602E-008	0.0089715	7
	24	34	3984.375	3857.351	-931.8527	1	3968.313	-13.58121	9.425894E-008	0.0089666	7
	25	35	3170.956	3920.326	-1082.094	1	4066.925	-15.43065	-4.148458E-008	0.0090676	7
	26	37	2527.573	3984.094	-1266.286	1	4180.488	-17.6321	3.937175E-008	0.0089906	7
	27	38	1976.103	4062.173	-1516.37	1	4335.969	-20.47012	-1.777041E-008	0.0089968	7
	28	39	1577.524	4136.652	-1806.453	1	4513.886	-23.59063	-8.719392E-008	0.0091762	7
	29	41	1265.625	4222.323	-2143.738	1	4735.359	-26.9176	-5.315335E-008	0.0090686	7
	30	42	998.264	4322.746	-2599.974	1	5044.402	-31.02537	4.021649E-008	0.0089922	7
	31	43	796.875	4437.236	-3140.142	1	5435.95	-35.28626	9.173984E-008	0.0089711	7
	32	45	627.7902	4576.869	-3840.808	1	5974.909	-40.00264	-3.167177E-008	0.0090383	7
	33	46	505.5147	4739.686	-4628.462	1	6624.748	-44.31979	8.612138E-008	0.0088482	7
	34	48	397.9953	4953.379	-5700.635	1	7552.033	-49.01207	5.263941E-009	0.0090423	7
	35	49	315.5048	5214.805	-6986.03	1	8717.729	-53.26006	4.124399E-009	0.0090445	7
	36	50	252.4038	5533.024	-8499.237	1	10141.57	-56.93578	4.45035E-010	0.0089811	6
	37	52	198.6229	5965.767	-10496.74	1	12073.61	-60.3885	8.173655E-010	0.0089862	6
	38	53	158.3615	6496.443	-12816.62	1	14369.05	-63.12062	1.217888E-010	0.0089856	6
	39	54	125.558	7201.249	-15719.08	1	17290.1	-65.38647	9.10653E-010	0.0089813	6
	40	56	100.4464	8093.586	-19109.2	1	20752.53	-67.0452	-4.3517E-012	0.0089824	6
	41	57	79.00281	9330.557	-23509.86	1	25293.73	-68.35294	5.116196E-010	0.0089784	6
	42	58	63.3446	10774.82	-28328.54	1	30308.46	-69.17559	5.745269E-010	0.0089767	6
	43	60	49.86702	13195.38	-34921.1	1	37330.96	-69.30029	6.845405E-010	0.0089791	6
	44	61	39.72458	15849.89	-42245.04	1	45120.53	-69.43444	8.556565E-010	0.0089802	6
	45	63	31.6723	19565.2	-50734.61	1	54376.44	-68.91146	5.878757E-010	0.0089839	6
	46	64	24.93351	24562.33	-61392.44	1	66123.67	-68.19428	1.113657E-009	0.0089821	6
	47	65	19.86229	30748.13	-73010.77	1	79221.34	-67.16184	1.44356E-009	0.00899	6
	48	67	15.83615	39178.84	-85784.51	1	94307.81	-65.45324	-1.07183E-010	0.0089862	6
	49	68	12.40079	49943.78	-101451.5	1	113078.7	-63.78934	1.891265E-009	0.0089843	5
	50	69	9.93114	61290.91	-117340.1	1	132383.1	-62.42034	8.685918E-010	0.0089836	5
	51	71	7.944915	75061.8	-134394.3	1	153935.3	-60.81579	-3.625135E-010	0.0089913	5
	52	73	6.317385	90597.84	-153175.5	1	177962.7	-59.3972	-3.548961E-010	0.0089862	5
	53	75	5.008013	108175.1	-174348.5	1	205181.1	-58.18233	-2.303309E-010	0.0089841	5
	54	77	3.945707	127477.1	-198432.3	1	235851.3	-57.28245	3.578676E-010	0.0089949	5
	55	80	3.158693	146621.3	-224910.1	1	268481.6	-56.89925	-2.314857E-010	0.0089782	5
	56	83	2.504006	167833.1	-257063.1	1	307000.7	-56.86001	4.498052E-010	0.0089899	5
	57	86	1.998082	190013.3	-294328.6	1	350334.7	-57.15443	6.830716E-011	0.009035	5
	58	89	1.584686	213834.5	-340393.8	1	401986.4	-57.86307	1.042355E-010	0.0089843	5
	59	93	1.266892	241640.3	-395127.7	1	463158.7	-58.55213	1.072978E-011	0.0090349	5
	60	97	0.999041	274273.1	-464324.9	1	539280.4	-59.42999	-1.765434E-011	0.0089519	5
