EXPLAIN
TAG	EISPOT
TITLE	LABEL	Potentiostatic EIS	Test &Identifier
DATE	LABEL	11/27/2019	Date
TIME	LABEL	12:55:59	Time
NOTES	NOTES	3	&Notes...
	
	
	
PSTAT	PSTAT	REF600-11020	Potentiostat
VDC	POTEN	0.00000E+000	T	DC &Voltage (V)
FREQINIT	QUANT	1.00000E+006	Initial Fre&q. (Hz)
FREQFINAL	QUANT	1.00000E+000	Final Fre&q. (Hz)
PTSPERDEC	QUANT	1.00000E+001	Points/&decade
VAC	QUANT	2.50000E+001	AC &Voltage (mV rms)
AREA	QUANT	1.00000E-002	&Area (cm^2)
CONDIT	TWOPARAM	T	5.00000E+000	0.00000E+000	Conditionin&g	Time(s)	E(V)
DELAY	TWOPARAM	T	5.00000E+000	0.00000E+000	Init. De&lay	Time(s)	Stab.(mV/s)
SPEED	SELECTOR	0	&Optimize for:
ZGUESS	QUANT	1.00000E+005	E&stimated Z (ohms)
OCVCURVE	TABLE	19
	Pt	T	Vf	Vm	Ach	Over
	#	s	V vs. Ref.	V	V	bits
	0	0.258333	6.34989E-003	6.34989E-003	5.45266E-004	...........
	1	0.516667	6.34662E-003	6.17866E-003	5.49166E-004	...........
	2	0.775	6.33283E-003	6.34572E-003	5.46799E-004	...........
	3	1.03333	6.31047E-003	6.28408E-003	5.49066E-004	...........
	4	1.29167	6.29349E-003	6.27804E-003	5.47433E-004	...........
	5	1.55	6.28857E-003	6.33697E-003	5.50833E-004	...........
	6	1.80833	6.29050E-003	6.23565E-003	5.46366E-004	...........
	7	2.06667	6.29345E-003	6.37157E-003	5.48833E-004	...........
	8	2.325	6.29923E-003	6.41560E-003	5.52699E-004	...........
	9	2.58333	6.31554E-003	6.34161E-003	5.55233E-004	...........
	10	2.84167	6.34194E-003	6.46628E-003	5.51333E-004	...........
	11	3.1	6.36902E-003	6.37741E-003	5.49799E-004	...........
	12	3.35833	6.39150E-003	6.48122E-003	5.49133E-004	...........
	13	3.61667	6.41181E-003	6.53487E-003	5.49033E-004	...........
	14	3.875	6.43636E-003	6.49277E-003	5.52033E-004	...........
	15	4.13333	6.46677E-003	6.59042E-003	5.49666E-004	...........
	16	4.39167	6.49886E-003	6.59190E-003	5.52532E-004	...........
	17	4.65	6.52990E-003	6.57253E-003	5.53066E-004	...........
	18	4.90833	6.55879E-003	6.71115E-003	5.55399E-004	...........
EOC	QUANT	0.0065588	Open Circuit (V)
PSTATMODEL	IQUANT	4	Pstat Model
PSTATSECTION	LABEL	REF600-11020	Pstat Section
PSTATSERIALNO	LABEL	11020	Pstat Serial Number
CTRLMODE	IQUANT	1	Control Mode
IESTAB	IQUANT	0	I/E Stability
CASPEED	IQUANT	1	Control Amp Speed
CONVENTION	IQUANT	1	Current Convention
ICHRANGE	IQUANT	2	Ich Range
ICHRANGEMODE	TOGGLE	F	Ich Auto Range
ICHOFFSETENABLE	TOGGLE	T	Ich Offset Enable
ICHOFFSET	QUANT	0	Ich Offset (V)
ICHFILTER	IQUANT	3	Ich Filter
VCHRANGE	IQUANT	2	Vch Range
VCHRANGEMODE	TOGGLE	F	Vch Auto Range
VCHOFFSETENABLE	TOGGLE	T	Vch Offset Enable
VCHOFFSET	QUANT	0	Vch Offset (V)
VCHFILTER	IQUANT	3	Vch Filter
ACHRANGE	IQUANT	2	Ach Range
ACHOFFSETENABLE	TOGGLE	F	Ach Offset Enable
ACHOFFSET	QUANT	0	Ach Offset (V)
ACHFILTER	IQUANT	3	Ach Filter
IERANGELOWERLIMIT	IQUANT	1	I/E Range Lower Limit
IERANGEMODE	TOGGLE	F	I/E AutoRange
IERANGE	IQUANT	5	I/E Range
POSFEEDENABLE	TOGGLE	F	Positive Feedback IR Comp
POSFEEDRESISTANCE	QUANT	0	Positive Feedback Resistance (ohm)
ACHSELECT	IQUANT	0	Ach Select
CABLEID	IQUANT	14	Cable ID
DCCALDATE	LABEL	8/19/2019	DC Calibration Date
ACCALDATE	LABEL	8/19/2019	AC Calibration Date
THERMOSELECT	IQUANT	1	Thermo Select
FRAMEWORKVERSION	QUANT	6.33	Framework Version
INSTRUMENTVERSION	LABEL	3.50	Instrument Version
ZCURVE	TABLE
	Pt	Time	Freq	Zreal	Zimag	Zsig	Zmod	Zphz	Idc	Vdc	IERange
	#	s	Hz	ohm	ohm	V	ohm	°	A	V	#
	0	1	1000078	2035.347	-1417.772	1	2480.467	-34.86012	-3.555929E-006	0.0090496	8
	1	2	794390.6	2334.893	-1348.93	1	2696.542	-30.01617	-1.253533E-006	0.0086594	8
	2	2	630984.4	2570.843	-1244.316	1	2856.144	-25.82749	8.257192E-008	0.0079898	8
	3	2	501234.4	2779.752	-1129.427	1	3000.438	-22.11215	-1.570679E-006	0.0079838	8
	4	3	398109.4	2941.666	-982.109	1	3101.28	-18.46219	8.791277E-007	0.0084995	8
	5	3	316265.6	3072.46	-866.9548	1	3192.432	-15.75745	-2.298556E-006	0.0080202	8
	6	3	251203.1	3170.986	-745.2032	1	3257.374	-13.22492	5.282182E-006	0.0074561	8
	7	3	199546.9	3247.852	-636.2026	1	3309.576	-11.083	-4.329146E-007	0.0085124	8
	8	4	158578.1	3314.361	-567.8829	1	3362.659	-9.72265	-5.903013E-007	0.0078413	8
	9	4	125953.1	3375.748	-443.8471	1	3404.802	-7.490347	-2.472276E-006	0.0101477	7
	10	4	100078.1	3403.55	-401.4543	1	3427.144	-6.72705	-2.476002E-007	0.0092438	7
	11	5	79453.13	3430.151	-371.9745	1	3450.261	-6.189118	5.411683E-007	0.0082253	7
	12	5	63140.62	3458.313	-348.8317	1	3475.862	-5.759805	-9.59716E-007	0.0094784	7
	13	5	50203.12	3488.783	-336.2657	1	3504.951	-5.505437	7.306858E-008	0.008879	7
	14	6	39890.62	3512.62	-338.3694	1	3528.88	-5.502304	-5.406761E-007	0.0094424	7
	15	6	31640.63	3539.708	-340.5969	1	3556.057	-5.496179	-1.073135E-006	0.0093274	7
	16	6	25171.88	3565.583	-354.3579	1	3583.148	-5.675582	7.20278E-008	0.0088829	7
	17	7	20015.62	3597.615	-380.0372	1	3617.632	-6.030128	4.218848E-007	0.0065876	7
	18	7	15890.62	3622.867	-414.9298	1	3646.551	-6.533661	-9.561545E-007	0.0094757	7
	19	7	12609.37	3658.887	-459.9693	1	3687.686	-7.165232	6.80081E-007	0.006491	7
	20	8	10078.13	3687.16	-516.1179	1	3723.107	-7.968324	-5.41148E-007	0.0094479	7
	21	8	8015.625	3719.393	-589.5181	1	3765.822	-9.006374	-9.21467E-007	0.0085034	7
	22	8	6328.125	3762.176	-686.0125	1	3824.21	-10.33404	8.956229E-007	0.0074045	7
	23	9	5015.625	3799.126	-806.3159	1	3883.749	-11.98249	-6.504707E-007	0.0079099	7
	24	9	3984.375	3850.245	-950.779	1	3965.901	-13.8711	4.205299E-007	0.0065849	7
	25	9	3170.956	3899.262	-1128.403	1	4059.253	-16.13985	7.353885E-007	0.0078283	7
	26	10	2527.573	3958.566	-1353.431	1	4183.542	-18.87552	-2.789592E-007	0.007305	7
	27	10	1976.103	4032.671	-1646.704	1	4355.924	-22.21219	-9.606083E-007	0.009465	7
	28	10	1577.524	4115.758	-1968.777	1	4562.406	-25.56417	-1.072436E-006	0.009325	7
	29	10	1265.625	4207.931	-2375.719	1	4832.259	-29.44826	-9.23897E-007	0.008497	7
	30	11	998.264	4331.788	-2891.419	1	5208.137	-33.72265	5.421807E-007	0.008203	7
	31	11	796.875	4465.52	-3491.267	1	5668.316	-38.01928	3.511361E-007	0.0084859	7
	32	11	627.7902	4624.908	-4280.435	1	6301.737	-42.78481	-6.417306E-007	0.0079002	7
	33	12	505.5147	4800.532	-5158.562	1	7046.692	-47.0589	4.210972E-007	0.0065699	7
	34	12	397.9953	5042.91	-6335.283	1	8097.33	-51.48007	3.09612E-009	0.0080648	7
	35	13	315.5048	5317.955	-7754.521	1	9402.831	-55.55815	3.400403E-009	0.0080626	7
	36	13	252.4038	5643.754	-9430.585	1	10990.35	-59.10149	-2.181157E-010	0.0080044	6
	37	13	198.6229	6075.839	-11653.06	1	13141.9	-62.46272	5.327975E-010	0.0079954	6
	38	13	158.3615	6600.299	-14236.59	1	15692.18	-65.12685	1.000927E-009	0.0079977	6
	39	14	125.558	7282.692	-17496.03	1	18951.22	-67.40056	4.665017E-010	0.0079991	6
	40	14	100.4464	8098.537	-21326.77	1	22812.66	-69.20644	-7.69128E-011	0.0079972	6
	41	14	79.00281	9265.623	-26348.53	1	27930.21	-70.62546	7.022531E-010	0.0079982	6
	42	15	63.3446	11125.9	-32040.62	1	33917.36	-70.85077	-2.243278E-010	0.0079941	6
	43	15	49.86702	13113.33	-39560.46	1	41677.21	-71.66089	-1.196167E-009	0.0079951	6
	44	16	39.72458	15471.25	-47981.23	1	50413.87	-72.1284	-3.230108E-010	0.0079984	6
	45	16	31.6723	18719.41	-58240.2	1	61174.65	-72.18169	-5.071285E-010	0.0080031	6
	46	16	24.93351	23768.31	-71228.79	1	75089.77	-71.54668	-5.556382E-010	0.0079906	6
	47	17	19.86229	29906.7	-85786.56	1	90850.13	-70.78056	-1.820096E-009	0.0079939	6
	48	17	15.83615	37452.55	-101978.7	1	108638.6	-69.83382	-3.01741E-011	0.0080037	5
	49	17	12.40079	47788.57	-123223.2	1	132165.4	-68.80264	1.28478E-009	0.0079958	5
	50	18	9.93114	61992.85	-145517.6	1	158172.3	-66.92521	7.028356E-010	0.0079911	5
	51	18	7.944915	77841.47	-170660.3	1	187574.6	-65.48135	-4.136557E-010	0.0079976	5
	52	19	6.317385	97356.7	-198307.9	1	220917.1	-63.85186	-3.338466E-010	0.0080115	5
	53	19	5.008013	121609.4	-228594.3	1	258929	-61.98757	7.656401E-011	0.0080107	5
	54	21	3.945707	151191.2	-263508.3	1	303801.6	-60.15441	-1.926572E-010	0.00799	5
	55	22	3.158693	181745.6	-299030.7	1	349929.7	-58.70951	1.229655E-010	0.0079807	5
	56	24	2.504006	216859.1	-339248.2	1	402637.8	-57.41189	1.117304E-010	0.0079931	5
	57	25	1.998082	254126.8	-383276.6	1	459871	-56.45412	-7.188262E-010	0.0079488	5
	58	26	1.584686	294110.2	-434333.5	1	524544	-55.896	-8.855291E-011	0.0079653	5
	59	28	1.266892	336045	-489871.8	1	594054.4	-55.55044	6.6157E-012	0.0080023	5
	60	31	0.999041	384702.6	-561070.6	1	680291.4	-55.5632	1.244496E-011	0.0080221	5
