EXPLAIN
TAG	EISPOT
TITLE	LABEL	Potentiostatic EIS	Test &Identifier
DATE	LABEL	11/27/2019	Date
TIME	LABEL	13:32:46	Time
NOTES	NOTES	3	&Notes...
	
	
	
PSTAT	PSTAT	REF600-11020	Potentiostat
VDC	POTEN	0.00000E+000	T	DC &Voltage (V)
FREQINIT	QUANT	1.00000E+006	Initial Fre&q. (Hz)
FREQFINAL	QUANT	1.00000E+000	Final Fre&q. (Hz)
PTSPERDEC	QUANT	1.00000E+001	Points/&decade
VAC	QUANT	2.50000E+001	AC &Voltage (mV rms)
AREA	QUANT	1.00000E-002	&Area (cm^2)
CONDIT	TWOPARAM	T	5.00000E+000	0.00000E+000	Conditionin&g	Time(s)	E(V)
DELAY	TWOPARAM	T	5.00000E+000	0.00000E+000	Init. De&lay	Time(s)	Stab.(mV/s)
SPEED	SELECTOR	0	&Optimize for:
ZGUESS	QUANT	1.00000E+005	E&stimated Z (ohms)
OCVCURVE	TABLE	19
	Pt	T	Vf	Vm	Ach	Over
	#	s	V vs. Ref.	V	V	bits
	0	0.258333	5.48919E-003	5.48919E-003	5.31300E-004	...........
	1	0.516667	5.48597E-003	5.32106E-003	5.34200E-004	...........
	2	0.775	5.46657E-003	5.17820E-003	5.34699E-004	...........
	3	1.03333	5.41282E-003	5.04669E-003	5.32466E-004	...........
	4	1.29167	5.31955E-003	4.94110E-003	5.28566E-004	...........
	5	1.55	5.20105E-003	4.84891E-003	5.32266E-004	...........
	6	1.80833	5.07824E-003	4.77492E-003	5.34266E-004	...........
	7	2.06667	4.96598E-003	4.71828E-003	5.33700E-004	...........
	8	2.325	4.87054E-003	4.66602E-003	5.38466E-004	...........
	9	2.58333	4.79215E-003	4.62084E-003	5.34099E-004	...........
	10	2.84167	4.72800E-003	4.58692E-003	5.35299E-004	...........
	11	3.1	4.67458E-003	4.54217E-003	5.37699E-004	...........
	12	3.35833	4.62843E-003	4.50044E-003	5.33133E-004	...........
	13	3.61667	4.58604E-003	4.45572E-003	5.31400E-004	...........
	14	3.875	4.54368E-003	4.36998E-003	5.27400E-004	...........
	15	4.13333	4.49672E-003	4.29594E-003	5.29966E-004	...........
	16	4.39167	4.44099E-003	4.23280E-003	5.27200E-004	...........
	17	4.65	4.37712E-003	4.19004E-003	5.29299E-004	...........
	18	4.90833	4.31116E-003	4.13748E-003	5.26866E-004	...........
EOC	QUANT	0.0043112	Open Circuit (V)
PSTATMODEL	IQUANT	4	Pstat Model
PSTATSECTION	LABEL	REF600-11020	Pstat Section
PSTATSERIALNO	LABEL	11020	Pstat Serial Number
CTRLMODE	IQUANT	1	Control Mode
IESTAB	IQUANT	0	I/E Stability
CASPEED	IQUANT	1	Control Amp Speed
CONVENTION	IQUANT	1	Current Convention
ICHRANGE	IQUANT	2	Ich Range
ICHRANGEMODE	TOGGLE	F	Ich Auto Range
ICHOFFSETENABLE	TOGGLE	T	Ich Offset Enable
ICHOFFSET	QUANT	0	Ich Offset (V)
ICHFILTER	IQUANT	3	Ich Filter
VCHRANGE	IQUANT	2	Vch Range
VCHRANGEMODE	TOGGLE	F	Vch Auto Range
VCHOFFSETENABLE	TOGGLE	T	Vch Offset Enable
VCHOFFSET	QUANT	0	Vch Offset (V)
VCHFILTER	IQUANT	3	Vch Filter
ACHRANGE	IQUANT	2	Ach Range
ACHOFFSETENABLE	TOGGLE	F	Ach Offset Enable
ACHOFFSET	QUANT	0	Ach Offset (V)
ACHFILTER	IQUANT	3	Ach Filter
IERANGELOWERLIMIT	IQUANT	1	I/E Range Lower Limit
IERANGEMODE	TOGGLE	F	I/E AutoRange
IERANGE	IQUANT	4	I/E Range
POSFEEDENABLE	TOGGLE	F	Positive Feedback IR Comp
POSFEEDRESISTANCE	QUANT	0	Positive Feedback Resistance (ohm)
ACHSELECT	IQUANT	0	Ach Select
CABLEID	IQUANT	14	Cable ID
DCCALDATE	LABEL	8/19/2019	DC Calibration Date
ACCALDATE	LABEL	8/19/2019	AC Calibration Date
THERMOSELECT	IQUANT	1	Thermo Select
FRAMEWORKVERSION	QUANT	6.33	Framework Version
INSTRUMENTVERSION	LABEL	3.50	Instrument Version
ZCURVE	TABLE
	Pt	Time	Freq	Zreal	Zimag	Zsig	Zmod	Zphz	Idc	Vdc	IERange
	#	s	Hz	ohm	ohm	V	ohm	°	A	V	#
	0	1	1000078	2070.489	-1766.831	1	2721.877	-40.47545	4.10683E-007	0.0069516	8
	1	1	794390.6	2436.091	-1775.694	1	3014.569	-36.08873	7.817914E-007	0.0065626	8
	2	2	630984.4	2793.165	-1714.878	1	3277.587	-31.54806	-2.858859E-006	0.0058731	8
	3	2	501234.4	3123.892	-1608.712	1	3513.781	-27.24713	7.42055E-006	0.0051127	8
	4	2	398109.4	3393.76	-1469.82	1	3698.375	-23.41719	-5.126879E-006	0.0062254	8
	5	3	316265.6	3621.008	-1306.625	1	3849.542	-19.84176	4.254563E-008	0.0055675	8
	6	3	251203.1	3796.436	-1147.086	1	3965.947	-16.8121	-1.436461E-006	0.0056156	8
	7	3	199546.9	3937.291	-983.243	1	4058.205	-14.02145	1.700007E-006	0.006087	8
	8	4	158578.1	4031.866	-862.9146	1	4123.175	-12.0804	-7.530397E-007	0.0062172	8
	9	4	125953.1	4159.283	-704.4728	1	4218.521	-9.61316	3.709768E-006	-0.0005304	7
	10	4	100078.1	4206.841	-615.5283	1	4251.634	-8.324224	3.65324E-007	0.0062901	7
	11	5	79453.13	4256.898	-552.3167	1	4292.579	-7.392617	9.491841E-008	0.0045168	7
	12	5	63140.62	4297.892	-505.4082	1	4327.507	-6.706862	-2.671512E-007	0.0070515	7
	13	5	50203.12	4334.908	-468.9034	1	4360.195	-6.173633	-1.146537E-006	0.0068204	7
	14	5	39890.62	4373.358	-449.7138	1	4396.42	-5.871107	7.323888E-008	0.0066778	7
	15	6	31640.63	4403.897	-440.7883	1	4425.901	-5.715727	-1.025398E-006	0.0073081	7
	16	6	25171.88	4437.374	-443.6293	1	4459.495	-5.709212	-6.974818E-007	0.0056542	7
	17	6	20015.62	4474.934	-461.9915	1	4498.719	-5.894325	1.029796E-006	0.0047053	7
	18	7	15890.62	4499.648	-493.892	1	4526.673	-6.263845	-6.970458E-007	0.005649	7
	19	7	12609.37	4535.335	-541.6323	1	4567.563	-6.810292	7.386552E-008	0.0066774	7
	20	7	10078.13	4564.04	-600.8115	1	4603.416	-7.499311	-8.351349E-007	0.0073581	7
	21	8	8015.625	4605.404	-690.9454	1	4656.946	-8.532406	1.031988E-006	0.0047033	7
	22	8	6328.125	4641.741	-803.7582	1	4710.815	-9.82385	4.434862E-007	0.0042161	7
	23	8	5015.625	4679.363	-945.1954	1	4773.87	-11.41965	-1.145513E-006	0.006805	7
	24	9	3984.375	4732.664	-1123.219	1	4864.126	-13.35118	3.687823E-007	0.0062687	7
	25	9	3170.956	4786.212	-1340.422	1	4970.368	-15.64539	-6.951174E-007	0.0056416	7
	26	9	2527.573	4850.638	-1608.379	1	5110.339	-18.34454	-8.34727E-007	0.0073466	7
	27	10	1976.103	4939.833	-1968.81	1	5317.722	-21.73015	3.682541E-007	0.0062674	7
	28	10	1577.524	5031.086	-2371.782	1	5562.12	-25.24039	7.894458E-007	0.0055435	7
	29	10	1265.625	5144.877	-2854.127	1	5883.52	-29.01938	-9.886714E-007	0.006269	7
	30	11	998.264	5282.622	-3479.973	1	6325.844	-33.37524	-2.663114E-007	0.0070324	7
	31	11	796.875	5436.597	-4215.408	1	6879.407	-37.78915	-9.885324E-007	0.0062745	7
	32	11	627.7902	5629.611	-5161.594	1	7637.708	-42.51662	-9.901581E-007	0.0062723	7
	33	12	505.5147	5843.261	-6220.569	1	8534.587	-46.7914	-9.930876E-007	0.0062694	7
	34	12	397.9953	6107.824	-7665.324	1	9801.16	-51.45173	1.853575E-009	0.005799	7
	35	12	315.5048	6427.182	-9396.801	1	11384.57	-55.62883	6.092238E-010	0.0057358	6
	36	13	252.4038	6797.398	-11443.74	1	13310.29	-59.29037	1.500701E-009	0.0057315	6
	37	13	198.6229	7293.295	-14168.71	1	15935.64	-62.76302	3.605186E-010	0.0057327	6
	38	13	158.3615	7899.58	-17339	1	19053.72	-65.50618	1.151602E-009	0.0057248	6
	39	14	125.558	8691.56	-21353.44	1	23054.55	-67.85204	5.411457E-010	0.0057392	6
	40	14	100.4464	9667.83	-26121.24	1	27852.94	-69.68979	-1.425749E-010	0.0057294	6
	41	14	79.00281	11029.22	-32375.92	1	34202.98	-71.18802	1.252579E-009	0.0057267	6
	42	15	63.3446	13098.97	-38911.97	1	41057.58	-71.39518	2.892275E-012	0.0057225	6
	43	15	49.86702	15673.41	-48298.4	1	50777.86	-72.02113	-1.193823E-009	0.0057265	6
	44	15	39.72458	18527.49	-59188.84	1	62020.86	-72.61866	-1.532612E-010	0.0057324	6
	45	16	31.6723	22751.88	-72074.27	1	75580.08	-72.48051	-4.322535E-010	0.0057221	6
	46	16	24.93351	29045.48	-88008.86	1	92677.93	-71.73561	5.815066E-010	0.0057203	6
	47	16	19.86229	36974.26	-105925.5	1	112193.2	-70.758	1.11041E-010	0.005729	5
	48	16	15.83615	45751.72	-127423.5	1	135388.2	-70.2492	-4.080427E-010	0.0057274	5
	49	17	12.40079	60211.88	-154147.2	1	165489.6	-68.66374	5.823299E-010	0.0057364	5
	50	17	9.93114	78470.66	-178757.4	1	195222.5	-66.29955	3.857731E-010	0.0057311	5
	51	18	7.944915	98814.4	-208214.8	1	230472.8	-64.61195	6.449156E-010	0.0057318	5
	52	18	6.317385	123399.3	-241112.2	1	270855.1	-62.897	5.873599E-010	0.0057225	5
	53	19	5.008013	153525	-277695.8	1	317308.8	-61.06385	4.578598E-010	0.0057288	5
	54	20	3.945707	189654.5	-318150.5	1	370389.7	-59.20016	2.205629E-011	0.0057281	5
	55	22	3.158693	225948.4	-359558.6	1	424658.8	-57.85454	-3.601376E-011	0.0057212	5
	56	23	2.504006	268505.4	-406620.8	1	487273.7	-56.56188	2.215833E-010	0.0057226	5
	57	25	1.998082	312308.4	-458425.1	1	554698.2	-55.73481	1.78396E-010	0.005735	5
	58	26	1.584686	363333.2	-517179.3	1	632048.6	-54.91087	-2.106633E-011	0.0056864	5
	59	28	1.266892	415497.9	-585929.9	1	718298.3	-54.65857	-6.108952E-011	0.0056804	5
	60	31	0.999041	475640.1	-671385	1	822794.8	-54.68449	-5.24432E-012	0.0056929	5
