EXPLAIN
TAG	EISPOT
TITLE	LABEL	Potentiostatic IDE	Test &Identifier
DATE	LABEL	9/16/2019	Date
TIME	LABEL	9:04:40	Time
NOTES	NOTES	1	&Notes...
	
PSTAT	PSTAT	REF600-11020	Potentiostat
VDC	POTEN	0.00000E+000	T	DC &Voltage (V)
FREQINIT	QUANT	1.00000E+006	Initial Fre&q. (Hz)
FREQFINAL	QUANT	1.00000E+000	Final Fre&q. (Hz)
PTSPERDEC	QUANT	1.00000E+001	Points/&decade
VAC	QUANT	2.50000E+001	AC &Voltage (mV rms)
AREA	QUANT	1.00000E-002	&Area (cm^2)
CONDIT	TWOPARAM	T	5.00000E+000	0.00000E+000	Conditionin&g	Time(s)	E(V)
DELAY	TWOPARAM	T	5.00000E+000	0.00000E+000	Init. De&lay	Time(s)	Stab.(mV/s)
SPEED	SELECTOR	1	&Optimize for:
ZGUESS	QUANT	1.00000E+007	E&stimated Z (ohms)
OCVCURVE	TABLE	19
	Pt	T	Vf	Vm	Ach	Over
	#	s	V vs. Ref.	V	V	bits
	0	0.258333	-1.09112E-002	-1.09112E-002	5.63866E-004	...........
	1	0.516667	-1.09386E-002	-1.23438E-002	5.65666E-004	...........
	2	0.775	-1.11073E-002	-1.37380E-002	5.66366E-004	...........
	3	1.03333	-1.15846E-002	-1.49479E-002	5.65732E-004	...........
	4	1.29167	-1.24337E-002	-1.61899E-002	5.68399E-004	...........
	5	1.55	-1.35578E-002	-1.75787E-002	5.64599E-004	...........
	6	1.80833	-1.48101E-002	-1.85302E-002	5.65199E-004	...........
	7	2.06667	-1.60747E-002	-1.93605E-002	5.65232E-004	...........
	8	2.325	-1.72645E-002	-2.02572E-002	5.69766E-004	...........
	9	2.58333	-1.83348E-002	-2.11719E-002	5.67499E-004	...........
	10	2.84167	-1.93014E-002	-2.20558E-002	5.63966E-004	...........
	11	3.1	-2.02107E-002	-2.28951E-002	5.61266E-004	...........
	12	3.35833	-2.10951E-002	-2.37188E-002	5.66032E-004	...........
	13	3.61667	-2.19630E-002	-2.45202E-002	5.62632E-004	...........
	14	3.875	-2.28110E-002	-2.52790E-002	5.63332E-004	...........
	15	4.13333	-2.36351E-002	-2.60221E-002	5.62999E-004	...........
	16	4.39167	-2.44323E-002	-2.67326E-002	5.64466E-004	...........
	17	4.65	-2.52017E-002	-2.74253E-002	5.61866E-004	...........
	18	4.90833	-2.59447E-002	-2.81209E-002	5.66766E-004	...........
EOC	QUANT	-0.0259447	Open Circuit (V)
PSTATMODEL	IQUANT	4	Pstat Model
PSTATSECTION	LABEL	REF600-11020	Pstat Section
PSTATSERIALNO	LABEL	11020	Pstat Serial Number
CTRLMODE	IQUANT	1	Control Mode
IESTAB	IQUANT	0	I/E Stability
CASPEED	IQUANT	1	Control Amp Speed
CONVENTION	IQUANT	1	Current Convention
ICHRANGE	IQUANT	2	Ich Range
ICHRANGEMODE	TOGGLE	F	Ich Auto Range
ICHOFFSETENABLE	TOGGLE	T	Ich Offset Enable
ICHOFFSET	QUANT	0	Ich Offset (V)
ICHFILTER	IQUANT	3	Ich Filter
VCHRANGE	IQUANT	2	Vch Range
VCHRANGEMODE	TOGGLE	F	Vch Auto Range
VCHOFFSETENABLE	TOGGLE	T	Vch Offset Enable
VCHOFFSET	QUANT	0	Vch Offset (V)
VCHFILTER	IQUANT	3	Vch Filter
ACHRANGE	IQUANT	2	Ach Range
ACHOFFSETENABLE	TOGGLE	F	Ach Offset Enable
ACHOFFSET	QUANT	0	Ach Offset (V)
ACHFILTER	IQUANT	3	Ach Filter
IERANGELOWERLIMIT	IQUANT	1	I/E Range Lower Limit
IERANGEMODE	TOGGLE	F	I/E AutoRange
IERANGE	IQUANT	3	I/E Range
POSFEEDENABLE	TOGGLE	F	Positive Feedback IR Comp
POSFEEDRESISTANCE	QUANT	0	Positive Feedback Resistance (ohm)
ACHSELECT	IQUANT	0	Ach Select
CABLEID	IQUANT	14	Cable ID
DCCALDATE	LABEL	8/19/2019	DC Calibration Date
ACCALDATE	LABEL	8/19/2019	AC Calibration Date
THERMOSELECT	IQUANT	1	Thermo Select
FRAMEWORKVERSION	QUANT	6.33	Framework Version
INSTRUMENTVERSION	LABEL	3.50	Instrument Version
ZCURVE	TABLE
	Pt	Time	Freq	Zreal	Zimag	Zsig	Zmod	Zphz	Idc	Vdc	IERange
	#	s	Hz	ohm	ohm	V	ohm	°	A	V	#
	0	2	1000078	2539.349	-2067.129	1	3274.342	-39.14694	5.671481E-006	-0.0249241	8
	1	4	794390.6	2970.324	-2045.505	1	3606.51	-34.55312	3.993077E-006	-0.0251329	8
	2	5	630984.4	3379.064	-1945.974	1	3899.345	-29.93727	-1.814523E-006	-0.0238739	8
	3	7	501234.4	3774.583	-1793.309	1	4178.927	-25.41245	2.397236E-007	-0.023964	8
	4	8	398109.4	4026.872	-1620.142	1	4340.571	-21.91654	-1.111369E-008	-0.0244765	8
	5	10	316265.6	4252.807	-1452.686	1	4494.069	-18.85929	-1.106109E-006	-0.0241408	8
	6	11	251203.1	4478.199	-1275.005	1	4656.168	-15.89238	-7.272798E-007	-0.0240265	8
	7	13	199546.9	4615.862	-1093.182	1	4743.546	-13.32396	-2.654827E-006	-0.0240405	8
	8	14	158578.1	4728.339	-966.272	1	4826.062	-11.5498	4.52456E-006	-0.0252284	8
	9	16	125953.1	4831.885	-787.7962	1	4895.685	-9.260094	-1.104473E-006	-0.0223271	7
	10	17	100078.1	4888.506	-696.3265	1	4937.85	-8.106767	4.541634E-008	-0.0244554	7
	11	19	79453.13	4946.795	-636.7825	1	4987.612	-7.335134	1.595147E-007	-0.0246514	7
	12	20	63140.62	4997.302	-598.666	1	5033.034	-6.831355	-1.913935E-008	-0.0242524	7
	13	21	50203.12	5047.226	-571.3087	1	5079.457	-6.457972	-4.179866E-008	-0.0243721	7
	14	23	39890.62	5085.996	-568.0286	1	5117.618	-6.37266	8.691263E-008	-0.024573	7
	15	24	31640.63	5140.435	-568.9739	1	5171.828	-6.316127	-5.934326E-008	-0.0243039	7
	16	25	25171.88	5184.333	-591.3878	1	5217.955	-6.50772	-1.276661E-008	-0.024358	7
	17	27	20015.62	5233.933	-625.729	1	5271.204	-6.817488	-8.812938E-009	-0.0243838	7
	18	28	15890.62	5282.996	-673.746	1	5325.785	-7.267759	-4.284256E-008	-0.0243976	7
	19	29	12609.37	5338.889	-752.4068	1	5391.646	-8.021835	-5.101245E-008	-0.0242579	7
	20	31	10078.13	5397.677	-840.2321	1	5462.683	-8.847965	4.572264E-008	-0.0244696	7
	21	32	8015.625	5456.921	-956.681	1	5540.146	-9.94376	-4.185027E-008	-0.0244014	7
	22	33	6328.125	5527.917	-1106.48	1	5637.567	-11.31887	-2.156622E-008	-0.0244531	7
	23	35	5015.625	5605.716	-1286.652	1	5751.48	-12.92691	-4.173149E-008	-0.024375	7
	24	36	3984.375	5692.488	-1510.033	1	5889.365	-14.85655	-8.164159E-008	-0.0242995	7
	25	37	3170.956	5790.281	-1781.171	1	6058.046	-17.09863	-8.183071E-008	-0.0243013	7
	26	39	2527.573	5899.094	-2104.273	1	6263.168	-19.63189	-4.263178E-008	-0.0243937	7
	27	40	1976.103	6037.937	-2536.975	1	6549.269	-22.7908	2.807191E-008	-0.0245313	7
	28	41	1577.524	6183.489	-3024.655	1	6883.609	-26.06558	-1.293132E-008	-0.0243645	7
	29	43	1265.625	6354.474	-3597.495	1	7302.144	-29.51576	4.757192E-008	-0.0244767	7
	30	44	998.264	6568.796	-4352.068	1	7879.694	-33.52593	5.198649E-008	-0.0245954	7
	31	45	796.875	6801.168	-5225.713	1	8576.943	-37.53706	-1.797153E-008	-0.0242732	7
	32	47	627.7902	7108.73	-6342.704	1	9527.01	-41.74066	-5.134912E-008	-0.0243941	7
	33	48	505.5147	7439.884	-7587.745	1	10626.65	-45.56373	-9.401113E-009	-0.0243954	6
	34	49	397.9953	7870.382	-9254.31	1	12148.46	-49.6203	1.369195E-009	-0.0244789	6
	35	51	315.5048	8378.496	-11235.85	1	14015.83	-53.28836	1.586583E-009	-0.0244768	6
	36	52	252.4038	8967.627	-13551.58	1	16250.04	-56.5058	1.106908E-009	-0.0244757	6
	37	53	198.6229	9738.73	-16584.44	1	19232.44	-59.57764	1.667324E-009	-0.024472	6
	38	55	158.3615	10651.06	-20091.44	1	22740.07	-62.07063	1.340678E-009	-0.0244792	6
	39	56	125.558	11795.62	-24467.75	1	27162.61	-64.26183	1.420573E-009	-0.0244776	6
	40	57	100.4464	13221.31	-29571.9	1	32392.9	-65.91105	2.407976E-009	-0.0244807	6
	41	59	79.00281	15033.28	-36251.87	1	39245.35	-67.47672	2.149571E-009	-0.0244804	6
	42	60	63.3446	17792.38	-44322.09	1	47759.98	-68.12782	1.576841E-009	-0.024485	6
	43	61	49.86702	20279.82	-53468.05	1	57184.82	-69.22883	1.358065E-009	-0.0244832	6
	44	63	39.72458	24863.58	-64952.28	1	69548.52	-69.05328	1.735651E-009	-0.0244745	6
	45	64	31.6723	30349.48	-78354.23	1	84026.64	-68.82677	5.533299E-010	-0.0244775	6
	46	66	24.93351	37812.77	-94738.84	1	102006.1	-68.24175	1.563631E-009	-0.024484	6
	47	67	19.86229	47090.67	-112734.5	1	122174.5	-67.32907	1.218777E-009	-0.0244802	5
	48	68	15.83615	60179.31	-134702	1	147533.6	-65.92686	2.598669E-009	-0.0244781	5
	49	70	12.40079	76510.3	-158178.9	1	175711.1	-64.18719	8.246654E-011	-0.024472	5
	50	71	9.93114	94831.12	-184364.4	1	207323.8	-62.78017	1.239439E-009	-0.0244754	5
	51	73	7.944915	116532.9	-211134.8	1	241159.3	-61.1041	1.11633E-009	-0.0244665	5
	52	74	6.317385	143280.1	-241456.7	1	280767.8	-59.31516	1.065235E-009	-0.0244667	5
	53	76	5.008013	173809.5	-274568.9	1	324958.2	-57.66509	1.094609E-009	-0.024464	5
	54	79	3.945707	208941.9	-311437.9	1	375033.7	-56.14257	5.256104E-010	-0.0244768	5
	55	81	3.158693	244493.2	-349094.1	1	426196.6	-54.99396	9.463698E-010	-0.0244548	5
	56	85	2.504006	284468.2	-393461.9	1	485524.9	-54.13353	4.468549E-010	-0.024477	5
	57	87	1.998082	326234.1	-442834	1	550027.8	-53.62107	4.844096E-010	-0.0245036	5
	58	91	1.584686	372917.6	-499863	1	623643	-53.2756	6.103964E-010	-0.0244299	5
	59	94	1.266892	421775.1	-568596.9	1	707952.4	-53.43263	4.671382E-010	-0.0244998	5
	60	98	0.999041	481551.5	-651143.4	1	809863.9	-53.51532	7.730112E-010	-0.0244317	5
