EXPLAIN
TAG	EISPOT
TITLE	LABEL	Potentiostatic IDE	Test &Identifier
DATE	LABEL	9/4/2019	Date
TIME	LABEL	11:47:29	Time
NOTES	NOTES	1	&Notes...
	
PSTAT	PSTAT	REF600-11020	Potentiostat
VDC	POTEN	0.00000E+000	T	DC &Voltage (V)
FREQINIT	QUANT	1.00000E+006	Initial Fre&q. (Hz)
FREQFINAL	QUANT	1.00000E+000	Final Fre&q. (Hz)
PTSPERDEC	QUANT	1.00000E+001	Points/&decade
VAC	QUANT	2.50000E+001	AC &Voltage (mV rms)
AREA	QUANT	1.00000E-002	&Area (cm^2)
CONDIT	TWOPARAM	T	5.00000E+000	0.00000E+000	Conditionin&g	Time(s)	E(V)
DELAY	TWOPARAM	T	5.00000E+000	0.00000E+000	Init. De&lay	Time(s)	Stab.(mV/s)
SPEED	SELECTOR	1	&Optimize for:
ZGUESS	QUANT	1.00000E+007	E&stimated Z (ohms)
OCVCURVE	TABLE	19
	Pt	T	Vf	Vm	Ach	Over
	#	s	V vs. Ref.	V	V	bits
	0	0.258333	7.22149E-002	7.22149E-002	5.74966E-004	...........
	1	0.516667	7.22525E-002	7.41804E-002	5.71199E-004	...........
	2	0.775	7.24705E-002	7.53865E-002	5.75432E-004	...........
	3	1.03333	7.30581E-002	7.72022E-002	5.77466E-004	...........
	4	1.29167	7.40910E-002	7.93345E-002	5.79832E-004	...........
	5	1.55	7.54920E-002	8.01067E-002	5.79666E-004	...........
	6	1.80833	7.70762E-002	8.13529E-002	5.79332E-004	...........
	7	2.06667	7.86213E-002	8.23914E-002	5.78699E-004	...........
	8	2.325	7.99991E-002	8.35908E-002	5.77666E-004	...........
	9	2.58333	8.12233E-002	8.46407E-002	5.78332E-004	...........
	10	2.84167	8.23630E-002	8.56977E-002	5.74032E-004	...........
	11	3.1	8.34635E-002	8.66637E-002	5.76066E-004	...........
	12	3.35833	8.45342E-002	8.76205E-002	5.76266E-004	...........
	13	3.61667	8.55687E-002	8.85146E-002	5.77199E-004	...........
	14	3.875	8.65613E-002	8.93781E-002	5.74999E-004	...........
	15	4.13333	8.75103E-002	9.02020E-002	5.77932E-004	...........
	16	4.39167	8.84169E-002	9.09903E-002	5.77466E-004	...........
	17	4.65	8.92831E-002	9.17447E-002	5.78899E-004	...........
	18	4.90833	9.01115E-002	9.24661E-002	5.81832E-004	...........
EOC	QUANT	0.0901115	Open Circuit (V)
PSTATMODEL	IQUANT	4	Pstat Model
PSTATSECTION	LABEL	REF600-11020	Pstat Section
PSTATSERIALNO	LABEL	11020	Pstat Serial Number
CTRLMODE	IQUANT	1	Control Mode
IESTAB	IQUANT	0	I/E Stability
CASPEED	IQUANT	1	Control Amp Speed
CONVENTION	IQUANT	1	Current Convention
ICHRANGE	IQUANT	2	Ich Range
ICHRANGEMODE	TOGGLE	F	Ich Auto Range
ICHOFFSETENABLE	TOGGLE	T	Ich Offset Enable
ICHOFFSET	QUANT	0	Ich Offset (V)
ICHFILTER	IQUANT	3	Ich Filter
VCHRANGE	IQUANT	2	Vch Range
VCHRANGEMODE	TOGGLE	F	Vch Auto Range
VCHOFFSETENABLE	TOGGLE	T	Vch Offset Enable
VCHOFFSET	QUANT	0	Vch Offset (V)
VCHFILTER	IQUANT	3	Vch Filter
ACHRANGE	IQUANT	2	Ach Range
ACHOFFSETENABLE	TOGGLE	F	Ach Offset Enable
ACHOFFSET	QUANT	0	Ach Offset (V)
ACHFILTER	IQUANT	3	Ach Filter
IERANGELOWERLIMIT	IQUANT	1	I/E Range Lower Limit
IERANGEMODE	TOGGLE	F	I/E AutoRange
IERANGE	IQUANT	4	I/E Range
POSFEEDENABLE	TOGGLE	F	Positive Feedback IR Comp
POSFEEDRESISTANCE	QUANT	0	Positive Feedback Resistance (ohm)
ACHSELECT	IQUANT	0	Ach Select
CABLEID	IQUANT	14	Cable ID
DCCALDATE	LABEL	8/19/2019	DC Calibration Date
ACCALDATE	LABEL	8/19/2019	AC Calibration Date
THERMOSELECT	IQUANT	1	Thermo Select
FRAMEWORKVERSION	QUANT	6.33	Framework Version
INSTRUMENTVERSION	LABEL	3.50	Instrument Version
ZCURVE	TABLE
	Pt	Time	Freq	Zreal	Zimag	Zsig	Zmod	Zphz	Idc	Vdc	IERange
	#	s	Hz	ohm	ohm	V	ohm	°	A	V	#
	0	2	1000078	2448.157	-1734.845	1	3000.526	-35.32264	1.176853E-005	0.0911491	8
	1	3	794390.6	2758.159	-1650.336	1	3214.195	-30.89407	1.134374E-005	0.0914198	8
	2	5	630984.4	3041.823	-1531.312	1	3405.525	-26.72155	1.322705E-005	0.0909128	8
	3	6	501234.4	3269.579	-1399.632	1	3556.56	-23.17467	1.344367E-005	0.0908579	8
	4	8	398109.4	3464.72	-1266.63	1	3688.988	-20.08137	1.019269E-005	0.0913664	8
	5	10	316265.6	3646.661	-1115.431	1	3813.44	-17.00769	1.261497E-005	0.0911013	8
	6	11	251203.1	3740.317	-1036.15	1	3881.183	-15.4839	1.078036E-005	0.0913281	8
	7	13	199546.9	3834.196	-974.374	1	3956.067	-14.2586	1.006005E-005	0.0912476	8
	8	14	158578.1	3927.02	-901.5697	1	4029.183	-12.92997	1.175849E-005	0.0908028	8
	9	16	125953.1	4008.976	-874.1826	1	4103.18	-12.30115	7.800904E-007	0.0912888	7
	10	17	100078.1	4076.483	-855.6486	1	4165.315	-11.85422	9.947207E-007	0.0913237	7
	11	19	79453.13	4147.057	-873.8748	1	4238.129	-11.89938	9.974024E-007	0.0913171	7
	12	20	63140.62	4220.039	-917.7764	1	4318.686	-12.26966	1.041497E-006	0.0912253	7
	13	21	50203.12	4297.042	-986.13	1	4408.744	-12.92503	1.014141E-006	0.0913202	7
	14	23	39890.62	4378.692	-1077.522	1	4509.324	-13.82483	1.041043E-006	0.0912407	7
	15	24	31640.63	4475.394	-1201.526	1	4633.876	-15.02804	9.858398E-007	0.0913306	7
	16	25	25171.88	4581.938	-1352.982	1	4777.521	-16.45113	1.012373E-006	0.0912768	7
	17	27	20015.62	4701.741	-1539.221	1	4947.279	-18.12703	9.928439E-007	0.0913428	7
	18	28	15890.62	4840.448	-1765.285	1	5152.298	-20.03664	1.029532E-006	0.091289	7
	19	29	12609.37	4999.349	-2036.866	1	5398.362	-22.16728	1.00224E-006	0.0913533	7
	20	30	10078.13	5177.036	-2347.486	1	5684.398	-24.39154	9.892652E-007	0.0913089	7
	21	32	8015.625	5385.896	-2725.647	1	6036.31	-26.84266	1.069339E-006	0.0912042	7
	22	33	6328.125	5637.058	-3187.136	1	6475.667	-29.48339	1.02458E-006	0.0912831	7
	23	34	5015.625	5920.141	-3724.659	1	6994.366	-32.17607	9.909131E-007	0.091395	7
	24	36	3984.375	6253.738	-4356.897	1	7621.797	-34.86442	1.060628E-006	0.0911639	7
	25	37	3170.956	6630.488	-5083.747	1	8355.109	-37.47821	1.060019E-006	0.0912218	7
	26	38	2527.573	7072.583	-5949.579	1	9242.236	-40.07113	1.058978E-006	0.0912203	7
	27	40	1976.103	7640.487	-7051.005	1	10396.81	-42.70229	1.00352E-006	0.0912861	7
	28	41	1577.524	8247.827	-8263.447	1	11675.24	-45.0542	9.983007E-007	0.0913485	7
	29	42	1265.625	8960.923	-9610.26	1	13139.84	-47.00253	9.493399E-008	0.0912508	6
	30	44	998.264	9842.03	-11350.68	1	15023.43	-49.07185	1.028535E-007	0.0911612	6
	31	45	796.875	10834.17	-13287.62	1	17144.68	-50.80764	1.010348E-007	0.0911487	6
	32	46	627.7902	12052.96	-15705.91	1	19797.72	-52.49681	1.005583E-007	0.0912551	6
	33	48	505.5147	13375.69	-18275.12	1	22647.06	-53.79934	9.709677E-008	0.0912784	6
	34	49	397.9953	15077.54	-21604.47	1	26345.49	-55.0892	1.007117E-007	0.0908916	6
	35	50	315.5048	17042.21	-25420.68	1	30604.7	-56.1618	1.003596E-007	0.0908882	6
	36	52	252.4038	19255.63	-29706.31	1	35401.19	-57.0487	1.000833E-007	0.090888	6
	37	53	198.6229	22061.93	-35112.51	1	41468.27	-57.85799	1.003375E-007	0.0908966	6
	38	55	158.3615	25189.96	-41107.98	1	48212.04	-58.50105	1.000764E-007	0.090889	6
	39	56	125.558	28952.86	-48286.41	1	56301.38	-59.05281	1.003314E-007	0.0908954	6
	40	57	100.4464	33219.22	-56273.28	1	65346.76	-59.44582	9.994471E-008	0.0908861	6
	41	59	79.00281	38345.71	-66493.27	1	76757.73	-60.02857	1.003921E-007	0.0908919	6
	42	60	63.3446	44302.43	-78331.38	1	89991.73	-60.5085	1.004055E-007	0.0908926	6
	43	61	49.86702	50845.13	-91103.24	1	104331.3	-60.83392	1.002532E-007	0.0908897	6
	44	63	39.72458	59445.79	-106704.4	1	122145.9	-60.8775	1.002181E-007	0.0908944	6
	45	64	31.6723	68454.56	-125218	1	142708	-61.33532	9.746608E-009	0.0909032	5
	46	65	24.93351	79310.27	-147400	1	167382.5	-61.71701	1.022043E-008	0.0909004	5
	47	67	19.86229	91250.53	-173123.1	1	195699.5	-62.20698	9.9098E-009	0.0908982	5
	48	68	15.83615	105142.8	-204624.7	1	230057.1	-62.80444	9.596858E-009	0.0908997	5
	49	69	12.40079	121732.4	-240649.5	1	269686.8	-63.16747	9.708061E-009	0.0908996	5
	50	71	9.93114	141418.9	-284063.4	1	317319	-63.53392	1.028679E-008	0.0908948	5
	51	72	7.944915	163605	-333518	1	371484.7	-63.87005	1.026164E-008	0.0909054	5
	52	74	6.317385	188644.5	-396159.1	1	438781	-64.53698	1.015707E-008	0.0909124	5
	53	76	5.008013	220075.6	-471180.3	1	520042.5	-64.96399	1.013075E-008	0.0909102	5
	54	79	3.945707	259256.7	-563542.5	1	620317.8	-65.2953	1.01494E-008	0.0908979	5
	55	81	3.158693	302480.2	-668549.4	1	733793.3	-65.65598	9.998868E-008	0.0909055	6
	56	85	2.504006	359112.9	-794865.2	1	872222.9	-65.68697	9.863266E-009	0.09117	5
	57	88	1.998082	425746.1	-941341.8	1	1033143	-65.66391	9.910813E-009	0.0911372	5
	58	91	1.584686	508867.9	-1116966	1	1227420	-65.50691	9.905246E-009	0.0911808	5
	59	95	1.266892	613842.9	-1319893	1	1455651	-65.05827	9.901638E-010	0.091132	4
	60	99	0.999041	747265.7	-1567535	1	1736540	-64.51221	9.949884E-010	0.0912151	4
