EXPLAIN
TAG	EISPOT
TITLE	LABEL	Potentiostatic EIS	Test &Identifier
DATE	LABEL	10/14/2019	Date
TIME	LABEL	9:34:50	Time
NOTES	NOTES	1	&Notes...
	
PSTAT	PSTAT	REF600-11020	Potentiostat
VDC	POTEN	0.00000E+000	T	DC &Voltage (V)
FREQINIT	QUANT	1.00000E+006	Initial Fre&q. (Hz)
FREQFINAL	QUANT	1.00000E+000	Final Fre&q. (Hz)
PTSPERDEC	QUANT	1.00000E+001	Points/&decade
VAC	QUANT	2.50000E+001	AC &Voltage (mV rms)
AREA	QUANT	1.00000E-002	&Area (cm^2)
CONDIT	TWOPARAM	T	5.00000E+000	0.00000E+000	Conditionin&g	Time(s)	E(V)
DELAY	TWOPARAM	T	5.00000E+000	0.00000E+000	Init. De&lay	Time(s)	Stab.(mV/s)
SPEED	SELECTOR	1	&Optimize for:
ZGUESS	QUANT	1.00000E+004	E&stimated Z (ohms)
OCVCURVE	TABLE	19
	Pt	T	Vf	Vm	Ach	Over
	#	s	V vs. Ref.	V	V	bits
	0	0.258333	7.51736E-003	7.51736E-003	5.41399E-004	...........
	1	0.516667	7.51801E-003	7.55145E-003	5.38399E-004	...........
	2	0.775	7.52242E-003	7.60539E-003	5.38233E-004	...........
	3	1.03333	7.53640E-003	7.66334E-003	5.37366E-004	...........
	4	1.29167	7.56485E-003	7.73363E-003	5.44599E-004	...........
	5	1.55	7.60866E-003	7.80987E-003	5.46733E-004	...........
	6	1.80833	7.66556E-003	7.88953E-003	5.37966E-004	...........
	7	2.06667	7.73235E-003	7.96973E-003	5.43433E-004	...........
	8	2.325	7.80599E-003	8.05338E-003	5.40233E-004	...........
	9	2.58333	7.88374E-003	8.12242E-003	5.43766E-004	...........
	10	2.84167	7.96299E-003	8.20435E-003	5.43666E-004	...........
	11	3.1	8.04187E-003	8.28194E-003	5.42199E-004	...........
	12	3.35833	8.11997E-003	8.35876E-003	5.40966E-004	...........
	13	3.61667	8.19765E-003	8.43230E-003	5.39966E-004	...........
	14	3.875	8.27493E-003	8.51190E-003	5.47966E-004	...........
	15	4.13333	8.35169E-003	8.58459E-003	5.42599E-004	...........
	16	4.39167	8.42811E-003	8.66623E-003	5.36833E-004	...........
	17	4.65	8.50479E-003	8.75335E-003	5.41999E-004	...........
	18	4.90833	8.58254E-003	8.81843E-003	5.42166E-004	...........
EOC	QUANT	0.0085825	Open Circuit (V)
PSTATMODEL	IQUANT	4	Pstat Model
PSTATSECTION	LABEL	REF600-11020	Pstat Section
PSTATSERIALNO	LABEL	11020	Pstat Serial Number
CTRLMODE	IQUANT	1	Control Mode
IESTAB	IQUANT	0	I/E Stability
CASPEED	IQUANT	1	Control Amp Speed
CONVENTION	IQUANT	1	Current Convention
ICHRANGE	IQUANT	2	Ich Range
ICHRANGEMODE	TOGGLE	F	Ich Auto Range
ICHOFFSETENABLE	TOGGLE	T	Ich Offset Enable
ICHOFFSET	QUANT	0	Ich Offset (V)
ICHFILTER	IQUANT	3	Ich Filter
VCHRANGE	IQUANT	2	Vch Range
VCHRANGEMODE	TOGGLE	F	Vch Auto Range
VCHOFFSETENABLE	TOGGLE	T	Vch Offset Enable
VCHOFFSET	QUANT	0	Vch Offset (V)
VCHFILTER	IQUANT	3	Vch Filter
ACHRANGE	IQUANT	2	Ach Range
ACHOFFSETENABLE	TOGGLE	F	Ach Offset Enable
ACHOFFSET	QUANT	0	Ach Offset (V)
ACHFILTER	IQUANT	3	Ach Filter
IERANGELOWERLIMIT	IQUANT	1	I/E Range Lower Limit
IERANGEMODE	TOGGLE	F	I/E AutoRange
IERANGE	IQUANT	6	I/E Range
POSFEEDENABLE	TOGGLE	F	Positive Feedback IR Comp
POSFEEDRESISTANCE	QUANT	0	Positive Feedback Resistance (ohm)
ACHSELECT	IQUANT	0	Ach Select
CABLEID	IQUANT	14	Cable ID
DCCALDATE	LABEL	8/19/2019	DC Calibration Date
ACCALDATE	LABEL	8/19/2019	AC Calibration Date
THERMOSELECT	IQUANT	1	Thermo Select
FRAMEWORKVERSION	QUANT	6.33	Framework Version
INSTRUMENTVERSION	LABEL	3.50	Instrument Version
ZCURVE	TABLE
	Pt	Time	Freq	Zreal	Zimag	Zsig	Zmod	Zphz	Idc	Vdc	IERange
	#	s	Hz	ohm	ohm	V	ohm	°	A	V	#
	0	2	1000078	2258.829	-1409.756	1	2662.653	-31.96867	-3.948747E-006	0.0110234	8
	1	3	794390.6	2526.325	-1320.737	1	2850.731	-27.60011	6.6202E-006	0.0094571	8
	2	4	630984.4	2756.609	-1210.075	1	3010.51	-23.70014	-6.425579E-007	0.0100296	8
	3	6	501234.4	2943.381	-1080.58	1	3135.466	-20.15931	-4.866707E-006	0.011326	8
	4	7	398109.4	3079.502	-945.46	1	3221.37	-17.06739	-4.267686E-006	0.0112026	8
	5	9	316265.6	3205.212	-817.2569	1	3307.763	-14.30434	1.965869E-006	0.0095619	8
	6	10	251203.1	3292.69	-708.6971	1	3368.094	-12.14667	1.285278E-006	0.0097989	8
	7	11	199546.9	3354.237	-619.7246	1	3411.007	-10.46785	1.148361E-006	0.0098045	8
	8	13	158578.1	3418.023	-548.1965	1	3461.705	-9.111734	-2.184427E-007	0.0100413	8
	9	14	125953.1	3466.057	-462.2824	1	3496.749	-7.596941	-6.68203E-007	0.0119125	7
	10	15	100078.1	3507.514	-414.2355	1	3531.89	-6.735402	7.809734E-008	0.0099952	7
	11	17	79453.13	3541.137	-395.711	1	3563.178	-6.376171	6.223269E-008	0.0099277	7
	12	18	63140.62	3576.239	-386.8643	1	3597.103	-6.174037	1.304529E-007	0.0098345	7
	13	19	50203.12	3611.133	-385.4291	1	3631.644	-6.092317	-1.506533E-008	0.0101665	7
	14	21	39890.62	3647.522	-393.7254	1	3668.711	-6.160839	-1.420895E-008	0.0100741	7
	15	22	31640.63	3685.873	-410.4873	1	3708.66	-6.354715	3.468048E-008	0.0099969	7
	16	24	25171.88	3726.329	-435.9814	1	3751.747	-6.67328	-3.521182E-008	0.0100571	7
	17	25	20015.62	3779.011	-486.4227	1	3810.188	-7.334607	6.212642E-008	0.0099208	7
	18	26	15890.62	3818.242	-513.9506	1	3852.677	-7.666162	-4.063912E-008	0.0100538	7
	19	28	12609.37	3874.11	-567.2411	1	3915.417	-8.329968	-3.510559E-008	0.0100545	7
	20	29	10078.13	3931.783	-630.6461	1	3982.038	-9.112453	-3.069975E-009	0.0100413	7
	21	30	8015.625	3988.837	-707.3006	1	4051.061	-10.05517	1.332205E-007	0.0098327	7
	22	32	6328.125	4068.726	-797.3494	1	4146.119	-11.08776	-1.350418E-008	0.0101672	7
	23	33	5015.625	4147.954	-903.3091	1	4245.172	-12.28561	3.964993E-008	0.0099	7
	24	35	3984.375	4230.467	-1033.973	1	4354.992	-13.73446	-3.759089E-009	0.0100482	7
	25	36	3170.956	4321.917	-1173.471	1	4478.393	-15.19052	6.493619E-008	0.0099179	7
	26	37	2527.573	4416.658	-1344.821	1	4616.861	-16.93488	4.069536E-008	0.0098916	7
	27	39	1976.103	4528.801	-1573.592	1	4794.396	-19.16046	-3.602844E-009	0.0100406	7
	28	40	1577.524	4634.655	-1829.526	1	4982.689	-21.54158	6.460644E-008	0.009916	7
	29	41	1265.625	4743.458	-2129.147	1	5199.39	-24.17339	-1.598578E-008	0.0099966	7
	30	43	998.264	4867.266	-2526.202	1	5483.792	-27.43015	-3.499862E-008	0.0100461	7
	31	44	796.875	4999.242	-2998.96	1	5829.767	-30.95883	-7.336392E-008	0.0101386	7
	32	45	627.7902	5147.374	-3619.731	1	6292.687	-35.11561	-1.319704E-008	0.010067	7
	33	47	505.5147	5302.11	-4307.206	1	6831.134	-39.08892	-1.343092E-008	0.0099914	7
	34	48	397.9953	5491.499	-5262.007	1	7605.608	-43.77743	3.815821E-009	0.0100356	7
	35	50	315.5048	5710.631	-6415.232	1	8588.743	-48.32556	3.60325E-009	0.0100316	7
	36	51	252.4038	5963.879	-7786.183	1	9807.78	-52.54945	3.949677E-009	0.0100297	7
	37	52	198.6229	6302.408	-9609.31	1	11491.7	-56.74054	5.571842E-010	0.0099696	6
	38	54	158.3615	6706.275	-11747.61	1	13527.03	-60.27956	7.167437E-010	0.0099729	6
	39	55	125.558	7230.717	-14439.41	1	16148.68	-63.40001	1.022482E-009	0.0099711	6
	40	56	100.4464	7865.293	-17616.19	1	19292.31	-65.94016	8.375031E-010	0.0099659	6
	41	58	79.00281	8830.313	-21803.26	1	23523.53	-67.95206	9.947639E-010	0.0099672	6
	42	59	63.3446	10080.43	-26427.94	1	28285.18	-69.12161	3.635605E-010	0.0099677	6
	43	61	49.86702	11456.56	-32933.29	1	34869.1	-70.81866	7.908048E-010	0.0099632	6
	44	62	39.72458	13467.73	-39989.24	1	42196.2	-71.3873	5.394016E-010	0.0099681	6
	45	63	31.6723	16154.3	-48543.24	1	51160.61	-71.5935	3.831636E-010	0.0099676	6
	46	65	24.93351	19778.86	-59560.65	1	62758.86	-71.62974	-2.818314E-010	0.0099681	6
	47	66	19.86229	24346.7	-71972.91	1	75979.34	-71.31056	3.986757E-011	0.0099726	6
	48	67	15.83615	30538.45	-86512.82	1	91744.56	-70.5573	-4.69962E-010	0.0099667	6
	49	69	12.40079	38505.35	-105497.9	1	112305.3	-69.94859	3.904536E-010	0.0099786	5
	50	70	9.93114	48072.27	-124935.6	1	133865	-68.95444	-8.036256E-011	0.0099741	5
	51	72	7.944915	60014.91	-147114.6	1	158885.2	-67.80716	7.714514E-010	0.0099686	5
	52	74	6.317385	75307.16	-173643.5	1	189270.3	-66.55419	3.235052E-010	0.0099867	5
	53	76	5.008013	93837.05	-203932.2	1	224485.5	-65.29102	3.071259E-010	0.0099737	5
	54	78	3.945707	116821.2	-239339	1	266327.6	-63.98304	1.444476E-010	0.0099737	5
	55	81	3.158693	141775.2	-276224.7	1	310484	-62.83036	-6.014331E-011	0.0099806	5
	56	84	2.504006	171406.4	-319801.2	1	362840.2	-61.80968	1.760766E-010	0.0099627	5
	57	87	1.998082	203910.5	-367580.3	1	420350.8	-60.98123	-1.653111E-010	0.0100083	5
	58	90	1.584686	240668.3	-424937.6	1	488357.7	-60.47445	1.111106E-010	0.0099929	5
	59	94	1.266892	282368.9	-487660	1	563510.8	-59.92794	-1.259505E-010	0.0100077	5
	60	98	0.999041	330586.9	-566132.4	1	655586.4	-59.71767	7.238849E-011	0.009937	5
