EXPLAIN
TAG	EISPOT
TITLE	LABEL	Potentiostatic EIS	Test &Identifier
DATE	LABEL	10/8/2019	Date
TIME	LABEL	10:25:01	Time
NOTES	NOTES	2	&Notes...
	
	
PSTAT	PSTAT	REF600-11020	Potentiostat
VDC	POTEN	0.00000E+000	T	DC &Voltage (V)
FREQINIT	QUANT	1.00000E+006	Initial Fre&q. (Hz)
FREQFINAL	QUANT	1.00000E+000	Final Fre&q. (Hz)
PTSPERDEC	QUANT	1.00000E+001	Points/&decade
VAC	QUANT	2.50000E+001	AC &Voltage (mV rms)
AREA	QUANT	1.00000E-002	&Area (cm^2)
CONDIT	TWOPARAM	T	5.00000E+000	0.00000E+000	Conditionin&g	Time(s)	E(V)
DELAY	TWOPARAM	T	5.00000E+000	0.00000E+000	Init. De&lay	Time(s)	Stab.(mV/s)
SPEED	SELECTOR	1	&Optimize for:
ZGUESS	QUANT	1.00000E+004	E&stimated Z (ohms)
OCVCURVE	TABLE	19
	Pt	T	Vf	Vm	Ach	Over
	#	s	V vs. Ref.	V	V	bits
	0	0.258333	5.50784E-003	5.50784E-003	5.62366E-004	...........
	1	0.516667	5.50657E-003	5.44119E-003	5.59932E-004	...........
	2	0.775	5.49910E-003	5.39614E-003	5.55466E-004	...........
	3	1.03333	5.47913E-003	5.35397E-003	5.60832E-004	...........
	4	1.29167	5.44594E-003	5.32507E-003	5.62399E-004	...........
	5	1.55	5.40617E-003	5.31490E-003	5.64132E-004	...........
	6	1.80833	5.36863E-003	5.30228E-003	5.61066E-004	...........
	7	2.06667	5.33924E-003	5.30008E-003	5.63966E-004	...........
	8	2.325	5.31941E-003	5.29882E-003	5.62299E-004	...........
	9	2.58333	5.30786E-003	5.30713E-003	5.71532E-004	...........
	10	2.84167	5.30266E-003	5.30397E-003	5.65032E-004	...........
	11	3.1	5.30195E-003	5.31591E-003	5.64566E-004	...........
	12	3.35833	5.30427E-003	5.32718E-003	5.64032E-004	...........
	13	3.61667	5.30926E-003	5.34235E-003	5.71732E-004	...........
	14	3.875	5.31714E-003	5.34991E-003	5.67966E-004	...........
	15	4.13333	5.32748E-003	5.36986E-003	5.65699E-004	...........
	16	4.39167	5.33980E-003	5.39746E-003	5.67132E-004	...........
	17	4.65	5.35450E-003	5.40916E-003	5.67032E-004	...........
	18	4.90833	5.37148E-003	5.41481E-003	5.67599E-004	...........
EOC	QUANT	0.0053715	Open Circuit (V)
PSTATMODEL	IQUANT	4	Pstat Model
PSTATSECTION	LABEL	REF600-11020	Pstat Section
PSTATSERIALNO	LABEL	11020	Pstat Serial Number
CTRLMODE	IQUANT	1	Control Mode
IESTAB	IQUANT	0	I/E Stability
CASPEED	IQUANT	1	Control Amp Speed
CONVENTION	IQUANT	1	Current Convention
ICHRANGE	IQUANT	2	Ich Range
ICHRANGEMODE	TOGGLE	F	Ich Auto Range
ICHOFFSETENABLE	TOGGLE	T	Ich Offset Enable
ICHOFFSET	QUANT	0	Ich Offset (V)
ICHFILTER	IQUANT	3	Ich Filter
VCHRANGE	IQUANT	2	Vch Range
VCHRANGEMODE	TOGGLE	F	Vch Auto Range
VCHOFFSETENABLE	TOGGLE	T	Vch Offset Enable
VCHOFFSET	QUANT	0	Vch Offset (V)
VCHFILTER	IQUANT	3	Vch Filter
ACHRANGE	IQUANT	2	Ach Range
ACHOFFSETENABLE	TOGGLE	F	Ach Offset Enable
ACHOFFSET	QUANT	0	Ach Offset (V)
ACHFILTER	IQUANT	3	Ach Filter
IERANGELOWERLIMIT	IQUANT	1	I/E Range Lower Limit
IERANGEMODE	TOGGLE	F	I/E AutoRange
IERANGE	IQUANT	6	I/E Range
POSFEEDENABLE	TOGGLE	F	Positive Feedback IR Comp
POSFEEDRESISTANCE	QUANT	0	Positive Feedback Resistance (ohm)
ACHSELECT	IQUANT	0	Ach Select
CABLEID	IQUANT	14	Cable ID
DCCALDATE	LABEL	8/19/2019	DC Calibration Date
ACCALDATE	LABEL	8/19/2019	AC Calibration Date
THERMOSELECT	IQUANT	1	Thermo Select
FRAMEWORKVERSION	QUANT	6.33	Framework Version
INSTRUMENTVERSION	LABEL	3.50	Instrument Version
ZCURVE	TABLE
	Pt	Time	Freq	Zreal	Zimag	Zsig	Zmod	Zphz	Idc	Vdc	IERange
	#	s	Hz	ohm	ohm	V	ohm	°	A	V	#
	0	1	1000078	2557.615	-1662.157	1	3050.272	-33.01926	4.693347E-006	0.0065948	8
	1	3	794390.6	2862.345	-1585.987	1	3272.365	-28.99026	4.4333E-006	0.0061494	8
	2	4	630984.4	3172.943	-1473.013	1	3498.19	-24.90271	8.896388E-007	0.0064214	8
	3	6	501234.4	3408.18	-1321.919	1	3655.566	-21.1996	1.602755E-006	0.0063693	8
	4	7	398109.4	3602.233	-1180.579	1	3790.758	-18.14579	3.357581E-006	0.0061743	8
	5	9	316265.6	3768.697	-1020.104	1	3904.316	-15.14578	-1.352222E-006	0.0072351	8
	6	10	251203.1	3884.007	-882.5009	1	3983.004	-12.80107	-3.139247E-006	0.0075234	8
	7	12	199546.9	3962.22	-756.6481	1	4033.82	-10.81136	1.034294E-006	0.0066042	8
	8	13	158578.1	4034.722	-661.9014	1	4088.655	-9.31646	4.091999E-006	0.0060622	8
	9	15	125953.1	4133.053	-544.447	1	4168.759	-7.504364	4.28453E-007	0.0054652	7
	10	16	100078.1	4155.952	-479.7242	1	4183.548	-6.584548	-2.436508E-008	0.0067682	7
	11	17	79453.13	4193.965	-444.4012	1	4217.444	-6.048609	8.845501E-008	0.0066109	7
	12	19	63140.62	4229.505	-418.248	1	4250.135	-5.647512	-1.965033E-008	0.0067597	7
	13	20	50203.12	4264.609	-403.8689	1	4283.69	-5.409916	-2.314455E-008	0.006762	7
	14	21	39890.62	4298.922	-399.7471	1	4317.468	-5.312529	-3.52556E-008	0.0068029	7
	15	23	31640.63	4335.239	-404.8411	1	4354.101	-5.335026	9.727027E-008	0.0067253	7
	16	24	25171.88	4372.431	-420.1096	1	4392.567	-5.488215	-1.555917E-008	0.0069481	7
	17	26	20015.62	4413.345	-441.0371	1	4435.327	-5.70677	8.820808E-008	0.0065949	7
	18	27	15890.62	4458.674	-473.1812	1	4483.712	-6.057896	-8.953957E-008	0.0069371	7
	19	28	12609.37	4504.333	-511.957	1	4533.334	-6.484341	-2.30352E-008	0.0067555	7
	20	30	10078.13	4550.124	-562.9803	1	4584.82	-7.053278	9.005835E-008	0.0066004	7
	21	31	8015.625	4594.561	-623.8617	1	4636.722	-7.732483	-3.380932E-009	0.0067987	7
	22	32	6328.125	4654.716	-702.3053	1	4707.4	-8.580091	-5.018576E-008	0.0068832	7
	23	34	5015.625	4705.503	-798.3321	1	4772.745	-9.62907	-4.172679E-008	0.0067939	7
	24	35	3984.375	4762.387	-916.636	1	4849.799	-10.89472	-6.469554E-008	0.0069687	7
	25	36	3170.956	4818.877	-1065.245	1	4935.212	-12.46516	1.51623E-007	0.0065539	7
	26	38	2527.573	4880.477	-1248.141	1	5037.55	-14.34545	-6.213892E-008	0.0069754	7
	27	39	1976.103	4951.957	-1495.777	1	5172.932	-16.80735	-4.140331E-008	0.0068001	7
	28	40	1577.524	5023.646	-1772.629	1	5327.216	-19.43575	9.268838E-008	0.0065974	7
	29	42	1265.625	5107.757	-2120.588	1	5530.468	-22.54676	-4.340045E-008	0.0068029	7
	30	43	998.264	5209.041	-2576.8	1	5811.541	-26.3206	-8.841042E-008	0.0069317	7
	31	44	796.875	5322.474	-3111.969	1	6165.475	-30.31417	7.652526E-008	0.0066601	7
	32	46	627.7902	5468.019	-3806.564	1	6662.519	-34.84372	-6.219295E-008	0.006977	7
	33	47	505.5147	5641.987	-4604.043	1	7282.117	-39.21555	-1.555699E-008	0.0069364	7
	34	49	397.9953	5853.67	-5656.677	1	8140.236	-44.01951	3.407606E-009	0.0067947	7
	35	50	315.5048	6128.545	-6930.69	1	9251.677	-48.5149	5.069535E-009	0.0067991	7
	36	51	252.4038	6468.015	-8425.001	1	10621.48	-52.48595	1.262919E-009	0.0067351	6
	37	53	198.6229	6933.463	-10390.03	1	12491.02	-56.28406	9.201326E-010	0.0067366	6
	38	54	158.3615	7506.577	-12654.14	1	14713.12	-59.3231	9.480142E-010	0.0067334	6
	39	55	125.558	8268.218	-15467.63	1	17538.85	-61.87328	6.309348E-010	0.0067376	6
	40	57	100.4464	9208.899	-18710.57	1	20854	-63.79468	7.894965E-010	0.0067323	6
	41	58	79.00281	10486.33	-22931.9	1	25215.77	-65.42628	7.257109E-010	0.0067326	6
	42	59	63.3446	11890.38	-27631.74	1	30081.46	-66.71702	2.84175E-010	0.0067284	6
	43	61	49.86702	14207.4	-33426.76	1	36320.77	-66.97301	-4.288805E-010	0.0067282	6
	44	62	39.72458	16707.27	-40344.81	1	43667.34	-67.50497	1.338838E-010	0.0067364	6
	45	64	31.6723	19780.93	-48309.83	1	52202.73	-67.73287	3.108344E-010	0.0067316	6
	46	65	24.93351	23957.02	-58456.39	1	63175.07	-67.71485	6.773516E-010	0.0067303	6
	47	66	19.86229	28903.02	-69791.38	1	75539.54	-67.50387	1.308505E-009	0.0067381	6
	48	68	15.83615	35548.94	-83194.4	1	90471.19	-66.863	-8.722793E-010	0.0067361	6
	49	69	12.40079	43825.15	-99921.8	1	109110.1	-66.318	-3.077495E-010	0.0067414	5
	50	71	9.93114	53463.78	-117485.8	1	129078.6	-65.53133	-1.766409E-010	0.0067402	5
	51	72	7.944915	65330.97	-137101.8	1	151871.8	-64.52153	9.033784E-010	0.0067356	5
	52	74	6.317385	80366.38	-160044.1	1	179089	-63.33642	6.60315E-010	0.0067328	5
	53	76	5.008013	98207.1	-186253.5	1	210558.8	-62.19838	2.802147E-010	0.0067446	5
	54	78	3.945707	119362.2	-216181.5	1	246944.9	-61.09521	-1.81944E-010	0.0067309	5
	55	81	3.158693	141819.6	-247534.5	1	285282.5	-60.19038	1.755272E-010	0.0067421	5
	56	84	2.504006	167584.8	-284489.9	1	330180.5	-59.49889	-1.296779E-010	0.0067407	5
	57	87	1.998082	194496.4	-325371.1	1	379071.5	-59.13038	2.399773E-010	0.0067023	5
	58	90	1.584686	225115.6	-376122.6	1	438343.8	-59.09878	-5.66062E-011	0.0066984	5
	59	94	1.266892	257686.4	-432168.3	1	503161.8	-59.1939	1.853484E-010	0.0067009	5
	60	98	0.999041	295926.7	-505387.7	1	585652.9	-59.64915	-1.460779E-010	0.0067429	5
