EXPLAIN
TAG	EISPOT
TITLE	LABEL	Potentiostatic EIS	Test &Identifier
DATE	LABEL	11/5/2019	Date
TIME	LABEL	8:45:44	Time
NOTES	NOTES	2	&Notes...
	
	
PSTAT	PSTAT	REF600-11020	Potentiostat
VDC	POTEN	0.00000E+000	T	DC &Voltage (V)
FREQINIT	QUANT	1.00000E+006	Initial Fre&q. (Hz)
FREQFINAL	QUANT	1.00000E+000	Final Fre&q. (Hz)
PTSPERDEC	QUANT	1.00000E+001	Points/&decade
VAC	QUANT	2.50000E+001	AC &Voltage (mV rms)
AREA	QUANT	1.00000E-002	&Area (cm^2)
CONDIT	TWOPARAM	T	5.00000E+000	0.00000E+000	Conditionin&g	Time(s)	E(V)
DELAY	TWOPARAM	T	5.00000E+000	0.00000E+000	Init. De&lay	Time(s)	Stab.(mV/s)
SPEED	SELECTOR	1	&Optimize for:
ZGUESS	QUANT	1.00000E+005	E&stimated Z (ohms)
OCVCURVE	TABLE	19
	Pt	T	Vf	Vm	Ach	Over
	#	s	V vs. Ref.	V	V	bits
	0	0.258333	4.95087E-003	4.95087E-003	5.12967E-004	...........
	1	0.516667	4.94890E-003	4.84759E-003	5.06733E-004	...........
	2	0.775	4.93726E-003	4.77469E-003	5.10433E-004	...........
	3	1.03333	4.90595E-003	4.70607E-003	5.10633E-004	...........
	4	1.29167	4.85354E-003	4.66243E-003	5.04900E-004	...........
	5	1.55	4.78979E-003	4.61268E-003	5.07933E-004	...........
	6	1.80833	4.72669E-003	4.58195E-003	5.08633E-004	...........
	7	2.06667	4.67100E-003	4.53942E-003	5.05233E-004	...........
	8	2.325	4.62375E-003	4.51340E-003	5.10100E-004	...........
	9	2.58333	4.58332E-003	4.48531E-003	4.99467E-004	...........
	10	2.84167	4.54813E-003	4.46442E-003	5.08500E-004	...........
	11	3.1	4.51742E-003	4.44327E-003	5.06467E-004	...........
	12	3.35833	4.49068E-003	4.42680E-003	5.05433E-004	...........
	13	3.61667	4.46736E-003	4.40842E-003	5.04533E-004	...........
	14	3.875	4.44674E-003	4.39223E-003	5.06467E-004	...........
	15	4.13333	4.42802E-003	4.37735E-003	5.08867E-004	...........
	16	4.39167	4.41069E-003	4.36496E-003	5.09567E-004	...........
	17	4.65	4.39467E-003	4.35508E-003	5.04433E-004	...........
	18	4.90833	4.38021E-003	4.34431E-003	5.05733E-004	...........
EOC	QUANT	0.0043802	Open Circuit (V)
PSTATMODEL	IQUANT	4	Pstat Model
PSTATSECTION	LABEL	REF600-11020	Pstat Section
PSTATSERIALNO	LABEL	11020	Pstat Serial Number
CTRLMODE	IQUANT	1	Control Mode
IESTAB	IQUANT	0	I/E Stability
CASPEED	IQUANT	1	Control Amp Speed
CONVENTION	IQUANT	1	Current Convention
ICHRANGE	IQUANT	2	Ich Range
ICHRANGEMODE	TOGGLE	F	Ich Auto Range
ICHOFFSETENABLE	TOGGLE	T	Ich Offset Enable
ICHOFFSET	QUANT	0	Ich Offset (V)
ICHFILTER	IQUANT	3	Ich Filter
VCHRANGE	IQUANT	2	Vch Range
VCHRANGEMODE	TOGGLE	F	Vch Auto Range
VCHOFFSETENABLE	TOGGLE	T	Vch Offset Enable
VCHOFFSET	QUANT	0	Vch Offset (V)
VCHFILTER	IQUANT	3	Vch Filter
ACHRANGE	IQUANT	2	Ach Range
ACHOFFSETENABLE	TOGGLE	F	Ach Offset Enable
ACHOFFSET	QUANT	0	Ach Offset (V)
ACHFILTER	IQUANT	3	Ach Filter
IERANGELOWERLIMIT	IQUANT	1	I/E Range Lower Limit
IERANGEMODE	TOGGLE	F	I/E AutoRange
IERANGE	IQUANT	4	I/E Range
POSFEEDENABLE	TOGGLE	F	Positive Feedback IR Comp
POSFEEDRESISTANCE	QUANT	0	Positive Feedback Resistance (ohm)
ACHSELECT	IQUANT	0	Ach Select
CABLEID	IQUANT	14	Cable ID
DCCALDATE	LABEL	8/19/2019	DC Calibration Date
ACCALDATE	LABEL	8/19/2019	AC Calibration Date
THERMOSELECT	IQUANT	1	Thermo Select
FRAMEWORKVERSION	QUANT	6.33	Framework Version
INSTRUMENTVERSION	LABEL	3.50	Instrument Version
ZCURVE	TABLE
	Pt	Time	Freq	Zreal	Zimag	Zsig	Zmod	Zphz	Idc	Vdc	IERange
	#	s	Hz	ohm	ohm	V	ohm	°	A	V	#
	0	2	1000078	2180.123	-1868.591	1	2871.336	-40.59999	-4.426177E-006	0.0063324	8
	1	3	794390.6	2569.978	-1889.447	1	3189.796	-36.32333	1.511575E-006	0.0060153	8
	2	4	630984.4	2945.478	-1854.502	1	3480.663	-32.19492	-2.279103E-006	0.0060094	8
	3	6	501234.4	3313.739	-1754.806	1	3749.695	-27.90367	-1.265993E-006	0.0066371	8
	4	7	398109.4	3640.309	-1614.3	1	3982.187	-23.91496	-6.109401E-007	0.0057938	8
	5	8	316265.6	3919.689	-1443.318	1	4176.976	-20.21484	-1.643807E-006	0.0058446	8
	6	10	251203.1	4104.108	-1254.602	1	4291.588	-16.99809	-6.232031E-007	0.005762	8
	7	11	199546.9	4263.632	-1072.795	1	4396.526	-14.12332	-1.59724E-006	0.0058334	8
	8	12	158578.1	4373.016	-928.7418	1	4470.551	-11.99033	-4.551891E-006	0.0063965	8
	9	14	125953.1	4488.959	-711.489	1	4544.994	-9.006321	-3.001285E-006	0.0085315	7
	10	15	100078.1	4563.261	-610.6182	1	4603.934	-7.621577	-3.323257E-007	0.0050912	7
	11	16	79453.13	4606.19	-532.3121	1	4636.847	-6.592116	1.327345E-007	0.0045127	7
	12	18	63140.62	4644.756	-466.785	1	4668.153	-5.738797	1.312265E-007	0.0045054	7
	13	19	50203.12	4671.387	-415.6144	1	4689.839	-5.084232	-1.197728E-006	0.0077702	7
	14	20	39890.62	4707.887	-380.2126	1	4723.215	-4.617231	6.604611E-007	0.0062492	7
	15	22	31640.63	4727.539	-352.4716	1	4740.661	-4.263917	1.323251E-007	0.004509	7
	16	23	25171.88	4755.282	-339.6752	1	4767.398	-4.085763	1.191499E-006	0.0044089	7
	17	24	20015.62	4761.823	-339.72	1	4773.926	-4.080707	-1.337247E-006	0.0075827	7
	18	26	15890.62	4795.501	-348.886	1	4808.175	-4.161096	1.191287E-006	0.0044037	7
	19	27	12609.37	4805.703	-372.7275	1	4820.136	-4.434948	1.32983E-007	0.004501	7
	20	28	10078.13	4823.494	-406.357	1	4840.58	-4.815534	1.323157E-007	0.004507	7
	21	30	8015.625	4837.006	-463.2906	1	4859.142	-5.471126	-9.803093E-007	0.0078334	7
	22	31	6328.125	4857.627	-535.7589	1	4887.083	-6.293845	-9.797155E-007	0.0078316	7
	23	32	5015.625	4878.582	-632.0953	1	4919.36	-7.382422	-1.32299E-006	0.0071708	7
	24	34	3984.375	4909.113	-753.7262	1	4966.638	-8.728808	6.8246E-008	0.0070561	7
	25	35	3170.956	4938.364	-905.4543	1	5020.686	-10.38984	-3.296192E-007	0.0050609	7
	26	36	2527.573	4983.492	-1095.624	1	5102.507	-12.39926	1.189277E-006	0.0044007	7
	27	38	1976.103	5017.561	-1344.934	1	5194.686	-15.00514	-1.336391E-006	0.0075723	7
	28	39	1577.524	5068.973	-1655.436	1	5332.444	-18.08611	-3.309381E-007	0.0050627	7
	29	40	1265.625	5146.031	-1995.055	1	5519.228	-21.19072	1.076538E-006	0.0041497	7
	30	42	998.264	5230.667	-2459.955	1	5780.247	-25.18736	1.107846E-006	0.0052282	7
	31	43	796.875	5327.21	-2987.487	1	6107.72	-29.28361	-7.907507E-007	0.005814	7
	32	44	627.7902	5458.205	-3691.484	1	6589.313	-34.07121	-1.142257E-006	0.0065521	7
	33	46	505.5147	5629.706	-4504.104	1	7209.753	-38.66191	1.109804E-006	0.005227	7
	34	47	397.9953	5856.195	-5554.035	1	8071.079	-43.48307	2.910151E-009	0.006021	7
	35	48	315.5048	6148.004	-6821.658	1	9183.299	-47.97331	7.071201E-009	0.0060176	7
	36	50	252.4038	6516.958	-8303.843	1	10555.78	-51.87474	5.790439E-010	0.0059585	6
	37	51	198.6229	7035.35	-10241.58	1	12425.22	-55.51328	9.380948E-010	0.0059566	6
	38	52	158.3615	7684.36	-12462.28	1	14640.96	-58.34163	1.144266E-010	0.0059548	6
	39	54	125.558	8554.98	-15197.04	1	17439.55	-60.62322	1.16867E-009	0.0059606	6
	40	55	100.4464	9668.09	-18320.85	1	20715.35	-62.17895	1.755024E-009	0.0059444	6
	41	57	79.00281	11174.11	-22328.37	1	24968.31	-63.41457	-2.650366E-010	0.0059483	6
	42	58	63.3446	12930.52	-26886.81	1	29834.53	-64.31597	5.942159E-010	0.0059458	6
	43	59	49.86702	15587.6	-31970.82	1	35568.34	-64.00813	4.118473E-010	0.0059466	6
	44	61	39.72458	18666.35	-38145.84	1	42468.07	-63.92556	1.489524E-009	0.0059469	6
	45	62	31.6723	22275.28	-44864.98	1	50090.46	-63.59579	3.615065E-010	0.0059543	6
	46	63	24.93351	27032.55	-53006.82	1	59501.95	-62.97921	8.492488E-010	0.0059552	6
	47	65	19.86229	32197.15	-61869.78	1	69746.16	-62.50745	1.921535E-010	0.0059415	6
	48	66	15.83615	37522.86	-72197.55	1	81366.16	-62.53798	-6.179127E-010	0.0059476	6
	49	67	12.40079	45088.75	-84349.09	1	95643.9	-61.8733	-5.404805E-010	0.0059636	6
	50	69	9.93114	52406.34	-97954.2	1	111092.1	-61.85283	1.053634E-010	0.0059655	5
	51	70	7.944915	60217.75	-113743.3	1	128700.1	-62.10244	9.206306E-010	0.0059596	5
	52	72	6.317385	69868.77	-132995.7	1	150231.5	-62.28499	7.163945E-010	0.0059526	5
	53	74	5.008013	81213.75	-156825.5	1	176606.6	-62.62214	1.122221E-010	0.0059571	5
	54	77	3.945707	94610.41	-185829	1	208527.1	-63.01817	1.31076E-010	0.0059544	5
	55	79	3.158693	109538.5	-218366.4	1	244300.2	-63.3604	-9.283972E-011	0.005934	5
	56	83	2.504006	128201.6	-258152.6	1	288233.2	-63.59047	5.225043E-010	0.0059569	5
	57	85	1.998082	150052.2	-304408.8	1	339382.4	-63.75993	3.465011E-010	0.0059838	5
	58	88	1.584686	177157.6	-358271.5	1	399679	-63.68858	1.618861E-010	0.0059257	5
	59	92	1.266892	208507.3	-421582.8	1	470326.8	-63.68382	1.780599E-010	0.0059911	5
	60	96	0.999041	248704.9	-498680.8	1	557258.2	-63.4934	-4.899502E-011	0.0059137	5
