EXPLAIN
TAG	EISPOT
TITLE	LABEL	Potentiostatic EIS	Test &Identifier
DATE	LABEL	9/20/2019	Date
TIME	LABEL	11:38:42	Time
NOTES	NOTES	1	&Notes...
	
PSTAT	PSTAT	REF600-11020	Potentiostat
VDC	POTEN	0.00000E+000	T	DC &Voltage (V)
FREQINIT	QUANT	1.00000E+006	Initial Fre&q. (Hz)
FREQFINAL	QUANT	1.00000E+000	Final Fre&q. (Hz)
PTSPERDEC	QUANT	1.00000E+001	Points/&decade
VAC	QUANT	2.50000E+001	AC &Voltage (mV rms)
AREA	QUANT	1.00000E-002	&Area (cm^2)
CONDIT	TWOPARAM	T	5.00000E+000	0.00000E+000	Conditionin&g	Time(s)	E(V)
DELAY	TWOPARAM	T	5.00000E+000	0.00000E+000	Init. De&lay	Time(s)	Stab.(mV/s)
SPEED	SELECTOR	1	&Optimize for:
ZGUESS	QUANT	1.00000E+004	E&stimated Z (ohms)
OCVCURVE	TABLE	19
	Pt	T	Vf	Vm	Ach	Over
	#	s	V vs. Ref.	V	V	bits
	0	0.258333	-1.32349E-003	-1.32349E-003	5.64832E-004	...........
	1	0.516667	-1.33827E-003	-2.09719E-003	5.65766E-004	...........
	2	0.775	-1.42766E-003	-2.75884E-003	5.70932E-004	...........
	3	1.03333	-1.67666E-003	-3.42935E-003	5.67332E-004	...........
	4	1.29167	-2.11256E-003	-3.87673E-003	5.69199E-004	...........
	5	1.55	-2.67229E-003	-4.43852E-003	5.70299E-004	...........
	6	1.80833	-3.26569E-003	-4.98808E-003	5.67166E-004	...........
	7	2.06667	-3.84014E-003	-5.37515E-003	5.63866E-004	...........
	8	2.325	-4.37977E-003	-5.82762E-003	5.74532E-004	...........
	9	2.58333	-4.88078E-003	-6.26260E-003	5.67099E-004	...........
	10	2.84167	-5.34761E-003	-6.68255E-003	5.71332E-004	...........
	11	3.1	-5.79087E-003	-7.04940E-003	5.74399E-004	...........
	12	3.35833	-6.21550E-003	-7.36744E-003	5.72666E-004	...........
	13	3.61667	-6.61661E-003	-7.67703E-003	5.71166E-004	...........
	14	3.875	-6.98728E-003	-7.95550E-003	5.71266E-004	...........
	15	4.13333	-7.32657E-003	-8.25827E-003	5.72032E-004	...........
	16	4.39167	-7.64112E-003	-8.55079E-003	5.70632E-004	...........
	17	4.65	-7.94094E-003	-8.82801E-003	5.68632E-004	...........
	18	4.90833	-8.23302E-003	-9.08553E-003	5.71832E-004	...........
EOC	QUANT	-0.008233	Open Circuit (V)
PSTATMODEL	IQUANT	4	Pstat Model
PSTATSECTION	LABEL	REF600-11020	Pstat Section
PSTATSERIALNO	LABEL	11020	Pstat Serial Number
CTRLMODE	IQUANT	1	Control Mode
IESTAB	IQUANT	0	I/E Stability
CASPEED	IQUANT	1	Control Amp Speed
CONVENTION	IQUANT	1	Current Convention
ICHRANGE	IQUANT	2	Ich Range
ICHRANGEMODE	TOGGLE	F	Ich Auto Range
ICHOFFSETENABLE	TOGGLE	T	Ich Offset Enable
ICHOFFSET	QUANT	0	Ich Offset (V)
ICHFILTER	IQUANT	3	Ich Filter
VCHRANGE	IQUANT	2	Vch Range
VCHRANGEMODE	TOGGLE	F	Vch Auto Range
VCHOFFSETENABLE	TOGGLE	T	Vch Offset Enable
VCHOFFSET	QUANT	0	Vch Offset (V)
VCHFILTER	IQUANT	3	Vch Filter
ACHRANGE	IQUANT	2	Ach Range
ACHOFFSETENABLE	TOGGLE	F	Ach Offset Enable
ACHOFFSET	QUANT	0	Ach Offset (V)
ACHFILTER	IQUANT	3	Ach Filter
IERANGELOWERLIMIT	IQUANT	1	I/E Range Lower Limit
IERANGEMODE	TOGGLE	F	I/E AutoRange
IERANGE	IQUANT	6	I/E Range
POSFEEDENABLE	TOGGLE	F	Positive Feedback IR Comp
POSFEEDRESISTANCE	QUANT	0	Positive Feedback Resistance (ohm)
ACHSELECT	IQUANT	0	Ach Select
CABLEID	IQUANT	14	Cable ID
DCCALDATE	LABEL	8/19/2019	DC Calibration Date
ACCALDATE	LABEL	8/19/2019	AC Calibration Date
THERMOSELECT	IQUANT	1	Thermo Select
FRAMEWORKVERSION	QUANT	6.33	Framework Version
INSTRUMENTVERSION	LABEL	3.50	Instrument Version
ZCURVE	TABLE
	Pt	Time	Freq	Zreal	Zimag	Zsig	Zmod	Zphz	Idc	Vdc	IERange
	#	s	Hz	ohm	ohm	V	ohm	°	A	V	#
	0	2	1000078	2367.22	-2122.418	1	3179.37	-41.87899	-2.221053E-007	-0.0062561	8
	1	3	794390.6	2802.819	-2154.672	1	3535.309	-37.55134	-7.687159E-007	-0.0060695	8
	2	5	630984.4	3224.331	-2127.219	1	3862.819	-33.41441	-5.822934E-007	-0.0060746	8
	3	6	501234.4	3644.259	-2037.654	1	4175.244	-29.21134	-1.957907E-006	-0.0061368	8
	4	7	398109.4	3992.486	-1901.112	1	4422.01	-25.46251	3.789754E-007	-0.0065971	8
	5	9	316265.6	4276.777	-1713.009	1	4607.084	-21.82795	-6.442382E-007	-0.0065004	8
	6	10	251203.1	4573.321	-1546.041	1	4827.578	-18.67816	-5.877264E-007	-0.006525	8
	7	12	199546.9	4757.574	-1358.862	1	4947.83	-15.94045	-3.26026E-007	-0.0067132	8
	8	13	158578.1	4917.823	-1209.933	1	5064.476	-13.82197	-4.206808E-006	-0.0056738	8
	9	14	125953.1	5061.27	-1016.177	1	5162.274	-11.35263	-2.996105E-008	-0.0064503	7
	10	16	100078.1	5145.981	-903.5411	1	5224.702	-9.95859	7.153237E-008	-0.0068249	7
	11	17	79453.13	5224.745	-832.0024	1	5290.575	-9.047964	-5.393001E-008	-0.0065273	7
	12	19	63140.62	5295.464	-778.942	1	5352.447	-8.367974	-4.304414E-008	-0.0066682	7
	13	20	50203.12	5357.773	-747.813	1	5409.71	-7.945745	-3.974788E-009	-0.006683	7
	14	21	39890.62	5418.755	-738.0114	1	5468.781	-7.755723	-8.920746E-009	-0.0066962	7
	15	23	31640.63	5483.069	-746.7194	1	5533.682	-7.755196	-4.08001E-008	-0.0066745	7
	16	24	25171.88	5546.719	-773.9929	1	5600.46	-7.943798	4.467719E-008	-0.0068659	7
	17	25	20015.62	5612.953	-819.5499	1	5672.469	-8.307082	-5.402379E-008	-0.0066714	7
	18	27	15890.62	5687.835	-882.8196	1	5755.939	-8.822588	-2.718263E-008	-0.0066487	7
	19	28	12609.37	5768.708	-973.258	1	5850.232	-9.57638	-2.978922E-008	-0.0067364	7
	20	29	10078.13	5855.37	-1077.642	1	5953.71	-10.42821	4.726033E-008	-0.0067852	7
	21	31	8015.625	5950.101	-1208.756	1	6071.638	-11.48331	7.079726E-008	-0.0068465	7
	22	32	6328.125	6057.59	-1373.512	1	6211.355	-12.77536	-3.252914E-008	-0.0067276	7
	23	33	5015.625	6176.158	-1570.986	1	6372.827	-14.27128	9.739605E-008	-0.0067927	7
	24	35	3984.375	6301.874	-1803.912	1	6554.977	-15.97378	1.616624E-008	-0.0068121	7
	25	36	3170.956	6441.259	-2087.123	1	6770.96	-17.95357	-5.330526E-008	-0.0066759	7
	26	38	2527.573	6595.917	-2418.471	1	7025.321	-20.13606	8.88675E-010	-0.0066158	7
	27	39	1976.103	6775.106	-2867.232	1	7356.84	-22.93814	1.427479E-007	-0.0069309	7
	28	40	1577.524	6955.935	-3363.127	1	7726.296	-25.80332	1.617264E-008	-0.0068093	7
	29	42	1265.625	7141.224	-3938.778	1	8155.431	-28.87915	-3.935039E-008	-0.0066814	7
	30	43	998.264	7382.871	-4717.786	1	8761.523	-32.5793	4.222527E-008	-0.0068778	7
	31	44	796.875	7625.892	-5615.917	1	9470.626	-36.36895	-3.022934E-009	-0.0066878	7
	32	46	627.7902	7920.473	-6784.923	1	10429.24	-40.58438	1.895994E-008	-0.0071228	6
	33	47	505.5147	8211.489	-8088.93	1	11526.46	-44.56921	1.619024E-009	-0.0067018	6
	34	48	397.9953	8580.502	-9866.6	1	13075.73	-48.98809	1.201638E-009	-0.0067677	6
	35	50	315.5048	8989.431	-12010.25	1	15001.86	-53.18587	6.206732E-010	-0.00677	6
	36	51	252.4038	9447.949	-14552.95	1	17350.86	-57.00789	1.510476E-009	-0.0067752	6
	37	53	198.6229	10034.08	-17941.45	1	20556.71	-60.7831	1.148502E-009	-0.0067743	6
	38	54	158.3615	10714.4	-21920.87	1	24399.23	-63.95172	1.322368E-009	-0.0067752	6
	39	55	125.558	11593.26	-26964.39	1	29351.02	-66.73486	9.456821E-010	-0.0067715	6
	40	57	100.4464	12663.4	-32956.91	1	35306.08	-68.98117	1.516787E-009	-0.0067731	6
	41	58	79.00281	14058.62	-40862.5	1	43213.29	-71.01437	7.269945E-010	-0.0067761	6
	42	59	63.3446	15485.38	-49814.73	1	52166.12	-72.73164	5.470245E-010	-0.00678	6
	43	61	49.86702	18830.43	-61546.48	1	64362.68	-72.98827	1.571269E-010	-0.0067783	6
	44	62	39.72458	21808.84	-75623.13	1	78705.04	-73.91305	8.900335E-010	-0.0067712	6
	45	64	31.6723	25857.29	-92573.39	1	96116.8	-74.39407	1.071421E-009	-0.006769	6
	46	65	24.93351	32128.56	-113972.1	1	118414.1	-74.25694	5.716362E-010	-0.0067682	5
	47	66	19.86229	39670.59	-138727.2	1	144287.9	-74.04153	8.322733E-010	-0.006762	5
	48	68	15.83615	48312.91	-169396.4	1	176151.3	-74.08152	-6.197724E-010	-0.0067636	5
	49	69	12.40079	65879.21	-205694	1	215986.4	-72.2409	1.352046E-009	-0.0067668	5
	50	71	9.93114	81685.2	-247863.6	1	260976.7	-71.75999	4.339782E-010	-0.0067649	5
	51	72	7.944915	103708	-296191.8	1	313823.1	-70.70292	5.789861E-010	-0.0067687	5
	52	74	6.317385	134486	-352655.4	1	377428.5	-69.12553	6.427421E-010	-0.0067673	5
	53	76	5.008013	174023.3	-418895.9	1	453605.4	-67.44037	4.899461E-010	-0.0067548	5
	54	78	3.945707	225900.2	-495793.6	1	544832.3	-65.5044	2.951597E-010	-0.0067702	5
	55	81	3.158693	284968.3	-573893.8	1	640750.3	-63.59319	4.090943E-010	-0.0067479	5
	56	84	2.504006	360357.2	-663977	1	755461.9	-61.51019	8.845079E-011	-0.0067746	5
	57	87	1.998082	445845.9	-755905.6	1	877594.3	-59.46718	7.814313E-011	-0.0067673	5
	58	90	1.584686	549947.1	-853787.2	1	1015576	-57.21333	1.98881E-010	-0.0067192	4
	59	94	1.266892	657595.4	-956671	1	1160884	-55.4962	1.847028E-011	-0.0067607	4
	60	98	0.999041	777856.1	-1078198	1	1329500	-54.19177	1.043979E-009	-0.0067676	4
