EXPLAIN
TAG	EISPOT
TITLE	LABEL	Potentiostatic EIS	Test &Identifier
DATE	LABEL	11/12/2019	Date
TIME	LABEL	22:22:15	Time
NOTES	NOTES	3	&Notes...
	
	
	
PSTAT	PSTAT	REF600-11020	Potentiostat
VDC	POTEN	0.00000E+000	T	DC &Voltage (V)
FREQINIT	QUANT	1.00000E+006	Initial Fre&q. (Hz)
FREQFINAL	QUANT	1.00000E+000	Final Fre&q. (Hz)
PTSPERDEC	QUANT	1.00000E+001	Points/&decade
VAC	QUANT	2.50000E+001	AC &Voltage (mV rms)
AREA	QUANT	1.00000E-002	&Area (cm^2)
CONDIT	TWOPARAM	T	5.00000E+000	0.00000E+000	Conditionin&g	Time(s)	E(V)
DELAY	TWOPARAM	T	5.00000E+000	0.00000E+000	Init. De&lay	Time(s)	Stab.(mV/s)
SPEED	SELECTOR	1	&Optimize for:
ZGUESS	QUANT	1.00000E+005	E&stimated Z (ohms)
OCVCURVE	TABLE	19
	Pt	T	Vf	Vm	Ach	Over
	#	s	V vs. Ref.	V	V	bits
	0	0.258333	5.31231E-003	5.31231E-003	5.58866E-004	...........
	1	0.516667	5.31007E-003	5.19530E-003	5.66066E-004	...........
	2	0.775	5.29704E-003	5.12083E-003	5.64966E-004	...........
	3	1.03333	5.26230E-003	5.03935E-003	5.60699E-004	...........
	4	1.29167	5.20386E-003	4.96424E-003	5.63632E-004	...........
	5	1.55	5.13079E-003	4.92192E-003	5.68932E-004	...........
	6	1.80833	5.05520E-003	4.85475E-003	5.67232E-004	...........
	7	2.06667	4.98559E-003	4.83727E-003	5.65499E-004	...........
	8	2.325	4.92696E-003	4.85584E-003	5.68999E-004	...........
	9	2.58333	4.88340E-003	4.81377E-003	5.70499E-004	...........
	10	2.84167	4.85502E-003	4.79415E-003	5.63766E-004	...........
	11	3.1	4.83345E-003	4.68541E-003	5.64032E-004	...........
	12	3.35833	4.80772E-003	4.75277E-003	5.67399E-004	...........
	13	3.61667	4.77566E-003	4.65991E-003	5.70932E-004	...........
	14	3.875	4.74349E-003	4.68641E-003	5.63866E-004	...........
	15	4.13333	4.71523E-003	4.62319E-003	5.64332E-004	...........
	16	4.39167	4.69306E-003	4.79138E-003	5.62299E-004	...........
	17	4.65	4.68387E-003	4.68374E-003	5.60366E-004	...........
	18	4.90833	4.69000E-003	4.69206E-003	5.65566E-004	...........
EOC	QUANT	0.00469	Open Circuit (V)
PSTATMODEL	IQUANT	4	Pstat Model
PSTATSECTION	LABEL	REF600-11020	Pstat Section
PSTATSERIALNO	LABEL	11020	Pstat Serial Number
CTRLMODE	IQUANT	1	Control Mode
IESTAB	IQUANT	0	I/E Stability
CASPEED	IQUANT	1	Control Amp Speed
CONVENTION	IQUANT	1	Current Convention
ICHRANGE	IQUANT	2	Ich Range
ICHRANGEMODE	TOGGLE	F	Ich Auto Range
ICHOFFSETENABLE	TOGGLE	T	Ich Offset Enable
ICHOFFSET	QUANT	0	Ich Offset (V)
ICHFILTER	IQUANT	3	Ich Filter
VCHRANGE	IQUANT	2	Vch Range
VCHRANGEMODE	TOGGLE	F	Vch Auto Range
VCHOFFSETENABLE	TOGGLE	T	Vch Offset Enable
VCHOFFSET	QUANT	0	Vch Offset (V)
VCHFILTER	IQUANT	3	Vch Filter
ACHRANGE	IQUANT	2	Ach Range
ACHOFFSETENABLE	TOGGLE	F	Ach Offset Enable
ACHOFFSET	QUANT	0	Ach Offset (V)
ACHFILTER	IQUANT	3	Ach Filter
IERANGELOWERLIMIT	IQUANT	1	I/E Range Lower Limit
IERANGEMODE	TOGGLE	F	I/E AutoRange
IERANGE	IQUANT	4	I/E Range
POSFEEDENABLE	TOGGLE	F	Positive Feedback IR Comp
POSFEEDRESISTANCE	QUANT	0	Positive Feedback Resistance (ohm)
ACHSELECT	IQUANT	0	Ach Select
CABLEID	IQUANT	14	Cable ID
DCCALDATE	LABEL	8/19/2019	DC Calibration Date
ACCALDATE	LABEL	8/19/2019	AC Calibration Date
THERMOSELECT	IQUANT	1	Thermo Select
FRAMEWORKVERSION	QUANT	6.33	Framework Version
INSTRUMENTVERSION	LABEL	3.50	Instrument Version
ZCURVE	TABLE
	Pt	Time	Freq	Zreal	Zimag	Zsig	Zmod	Zphz	Idc	Vdc	IERange
	#	s	Hz	ohm	ohm	V	ohm	°	A	V	#
	0	2	1000078	2111.21	-1806.786	1	2778.792	-40.5571	-8.002427E-006	0.0068277	8
	1	3	794390.6	2491.854	-1790.781	1	3068.588	-35.70308	5.37408E-006	0.0060636	8
	2	4	630984.4	2840.662	-1718.779	1	3320.176	-31.17658	-1.361924E-006	0.0061901	8
	3	6	501234.4	3168.315	-1592.131	1	3545.857	-26.68029	2.019958E-006	0.0066895	8
	4	7	398109.4	3437.23	-1425.878	1	3721.247	-22.53031	-2.083299E-006	0.0064787	8
	5	9	316265.6	3644.637	-1274.565	1	3861.074	-19.27522	9.679401E-008	0.0060373	8
	6	10	251203.1	3806.094	-1108.655	1	3964.274	-16.24001	-3.880709E-007	0.0067376	8
	7	11	199546.9	3939.635	-959.963	1	4054.904	-13.69429	-1.192437E-006	0.0066698	8
	8	13	158578.1	4081.442	-793.1029	1	4157.786	-10.99663	-3.115396E-006	0.0067879	8
	9	14	125953.1	4135.2	-677.7039	1	4190.365	-9.307273	-2.057677E-006	0.0092446	7
	10	15	100078.1	4188.19	-595.9098	1	4230.372	-8.097882	5.864312E-008	0.0071588	7
	11	17	79453.13	4241.927	-539.5271	1	4276.1	-7.248483	5.496601E-007	0.006466	7
	12	18	63140.62	4282.291	-490.1716	1	4310.253	-6.529931	-9.509616E-007	0.0067244	7
	13	20	50203.12	4326.609	-459.5616	1	4350.948	-6.063081	5.538888E-007	0.0064621	7
	14	21	39890.62	4355.733	-436.3487	1	4377.535	-5.720692	-5.716615E-007	0.0077148	7
	15	22	31640.63	4392.685	-428.7245	1	4413.557	-5.574393	6.070748E-008	0.0071387	7
	16	24	25171.88	4420.568	-431.5898	1	4441.586	-5.576241	-1.002614E-006	0.0077283	7
	17	25	20015.62	4460.652	-447.8428	1	4483.077	-5.733199	7.207584E-007	0.0046248	7
	18	27	15890.62	4487.952	-475.0769	1	4513.027	-6.042603	3.516846E-007	0.0067467	7
	19	28	12609.37	4519.16	-518.8414	1	4548.847	-6.54941	4.540283E-007	0.0047193	7
	20	29	10078.13	4545.148	-575.4135	1	4581.427	-7.215234	7.593464E-007	0.0060637	7
	21	31	8015.625	4586.651	-659.7951	1	4633.865	-8.185908	7.594792E-007	0.0060653	7
	22	32	6328.125	4621.778	-762.5712	1	4684.266	-9.369118	4.536188E-007	0.0047248	7
	23	33	5015.625	4663.587	-897.3929	1	4749.143	-10.89203	1.010581E-006	0.0052227	7
	24	35	3984.375	4696.697	-1053.326	1	4813.362	-12.64054	3.505626E-007	0.0067472	7
	25	36	3170.956	4757.547	-1272.751	1	4924.851	-14.97719	9.043849E-007	0.004711	7
	26	38	2527.573	4807.068	-1523.03	1	5042.572	-17.57984	-1.118103E-006	0.0075752	7
	27	39	1976.103	4886.743	-1872.572	1	5233.238	-20.96655	7.213069E-007	0.0046288	7
	28	40	1577.524	4958.478	-2270.479	1	5453.584	-24.60296	-9.513773E-007	0.0067182	7
	29	42	1265.625	5059.094	-2727.845	1	5747.658	-28.33339	9.292055E-007	0.0056093	7
	30	43	998.264	5174.921	-3334.54	1	6156.214	-32.79633	-1.117059E-006	0.0075718	7
	31	45	796.875	5314.771	-4065.465	1	6691.397	-37.41372	6.111534E-008	0.0071365	7
	32	46	627.7902	5491.817	-4999.409	1	7426.583	-42.31278	-8.186586E-007	0.007787	7
	33	48	505.5147	5689.117	-6057.258	1	8310.02	-46.79511	-6.650551E-007	0.0060928	7
	34	49	397.9953	5954.797	-7487.753	1	9566.92	-51.50577	4.199967E-009	0.0062782	7
	35	50	315.5048	6286.079	-9202.136	1	11144.24	-55.66259	7.807978E-010	0.0062087	6
	36	52	252.4038	6684.08	-11224.65	1	13064.06	-59.22696	4.015227E-010	0.0062142	6
	37	53	198.6229	7234.618	-13896.85	1	15667.23	-62.49878	9.457506E-010	0.0062161	6
	38	54	158.3615	7917.645	-17007.22	1	18759.92	-65.03586	1.153168E-009	0.006201	6
	39	56	125.558	8828.131	-20901.17	1	22689.09	-67.10202	1.6906E-009	0.006208	6
	40	57	100.4464	9975.65	-25472.11	1	27355.84	-68.6132	1.227913E-009	0.0062107	6
	41	59	79.00281	11730.99	-31427.99	1	33546.01	-69.53112	5.785388E-010	0.0062085	6
	42	60	63.3446	13448.55	-38015.32	1	40324.04	-70.51792	7.154814E-010	0.0061984	6
	43	62	49.86702	16871.89	-46479.5	1	49446.98	-70.04929	9.65042E-010	0.0062016	6
	44	63	39.72458	20542.11	-56370.52	1	59996.78	-69.97764	1.060954E-009	0.006208	6
	45	64	31.6723	25495.64	-67716.05	1	72356.7	-69.36823	4.695818E-010	0.0062004	6
	46	66	24.93351	32511.92	-81633.84	1	87869.84	-68.28433	9.431775E-010	0.0062001	6
	47	67	19.86229	40923.62	-96784.1	1	105080.5	-67.0797	8.299663E-011	0.0062114	5
	48	69	15.83615	50949.59	-113809.5	1	124693.5	-65.88316	8.871618E-010	0.0062151	5
	49	70	12.40079	64507.16	-133389.7	1	148168.8	-64.19163	5.811581E-010	0.0062073	5
	50	71	9.93114	79870.32	-155033.1	1	174397.7	-62.74328	9.677738E-010	0.0062112	5
	51	73	7.944915	96902.8	-177913.5	1	202591.6	-61.42453	7.251215E-010	0.0062195	5
	52	75	6.317385	116586	-204571.1	1	235460.5	-60.32098	-9.473042E-011	0.006214	5
	53	77	5.008013	139775.2	-235009.9	1	273435.1	-59.25738	-1.122365E-010	0.0062073	5
	54	79	3.945707	166820	-270853.5	1	318104.6	-58.37087	3.994978E-011	0.0062194	5
	55	82	3.158693	195406.7	-308923.4	1	365537.2	-57.68497	2.598725E-010	0.0062273	5
	56	85	2.504006	229519.2	-354673.5	1	422459.8	-57.09196	-2.798076E-010	0.0062144	5
	57	88	1.998082	266776.7	-404418.2	1	484483.1	-56.58894	-8.712354E-011	0.0061973	5
	58	91	1.584686	311555.6	-462371.1	1	557542.8	-56.02706	1.000606E-010	0.006268	5
	59	95	1.266892	358290.9	-527089.1	1	637334.5	-55.79393	-1.289165E-010	0.0062332	5
	60	99	0.999041	414457	-605975.4	1	734153.2	-55.62981	2.931412E-010	0.0062039	5
