EXPLAIN
TAG	EISPOT
TITLE	LABEL	Potentiostatic EIS	Test &Identifier
DATE	LABEL	9/22/2019	Date
TIME	LABEL	8:57:27	Time
NOTES	NOTES	1	&Notes...
	
PSTAT	PSTAT	REF600-11020	Potentiostat
VDC	POTEN	0.00000E+000	T	DC &Voltage (V)
FREQINIT	QUANT	1.00000E+006	Initial Fre&q. (Hz)
FREQFINAL	QUANT	1.00000E+000	Final Fre&q. (Hz)
PTSPERDEC	QUANT	1.00000E+001	Points/&decade
VAC	QUANT	2.50000E+001	AC &Voltage (mV rms)
AREA	QUANT	1.00000E-002	&Area (cm^2)
CONDIT	TWOPARAM	T	5.00000E+000	0.00000E+000	Conditionin&g	Time(s)	E(V)
DELAY	TWOPARAM	T	5.00000E+000	0.00000E+000	Init. De&lay	Time(s)	Stab.(mV/s)
SPEED	SELECTOR	1	&Optimize for:
ZGUESS	QUANT	1.00000E+004	E&stimated Z (ohms)
OCVCURVE	TABLE	19
	Pt	T	Vf	Vm	Ach	Over
	#	s	V vs. Ref.	V	V	bits
	0	0.258333	-6.33959E-003	-6.33959E-003	5.70232E-004	...........
	1	0.516667	-6.34941E-003	-6.85374E-003	5.71566E-004	...........
	2	0.775	-6.40943E-003	-7.32566E-003	5.75732E-004	...........
	3	1.03333	-6.57781E-003	-7.75633E-003	5.70899E-004	...........
	4	1.29167	-6.87531E-003	-8.16895E-003	5.70266E-004	...........
	5	1.55	-7.26441E-003	-8.54393E-003	5.71366E-004	...........
	6	1.80833	-7.68591E-003	-8.83165E-003	5.75699E-004	...........
	7	2.06667	-8.09428E-003	-9.15713E-003	5.75499E-004	...........
	8	2.325	-8.46886E-003	-9.48154E-003	5.72499E-004	...........
	9	2.58333	-8.81130E-003	-9.75275E-003	5.71199E-004	...........
	10	2.84167	-9.13054E-003	-9.97491E-003	5.75532E-004	...........
	11	3.1	-9.42871E-003	-1.02234E-002	5.74066E-004	...........
	12	3.35833	-9.70378E-003	-1.04467E-002	5.73299E-004	...........
	13	3.61667	-9.95765E-003	-1.06525E-002	5.72832E-004	...........
	14	3.875	-1.01949E-002	-1.08558E-002	5.69599E-004	...........
	15	4.13333	-1.04186E-002	-1.10379E-002	5.65666E-004	...........
	16	4.39167	-1.06299E-002	-1.12191E-002	5.71232E-004	...........
	17	4.65	-1.08296E-002	-1.13867E-002	5.77366E-004	...........
	18	4.90833	-1.10185E-002	-1.15450E-002	5.75299E-004	...........
EOC	QUANT	-0.0110185	Open Circuit (V)
PSTATMODEL	IQUANT	4	Pstat Model
PSTATSECTION	LABEL	REF600-11020	Pstat Section
PSTATSERIALNO	LABEL	11020	Pstat Serial Number
CTRLMODE	IQUANT	1	Control Mode
IESTAB	IQUANT	0	I/E Stability
CASPEED	IQUANT	1	Control Amp Speed
CONVENTION	IQUANT	1	Current Convention
ICHRANGE	IQUANT	2	Ich Range
ICHRANGEMODE	TOGGLE	F	Ich Auto Range
ICHOFFSETENABLE	TOGGLE	T	Ich Offset Enable
ICHOFFSET	QUANT	0	Ich Offset (V)
ICHFILTER	IQUANT	3	Ich Filter
VCHRANGE	IQUANT	2	Vch Range
VCHRANGEMODE	TOGGLE	F	Vch Auto Range
VCHOFFSETENABLE	TOGGLE	T	Vch Offset Enable
VCHOFFSET	QUANT	0	Vch Offset (V)
VCHFILTER	IQUANT	3	Vch Filter
ACHRANGE	IQUANT	2	Ach Range
ACHOFFSETENABLE	TOGGLE	F	Ach Offset Enable
ACHOFFSET	QUANT	0	Ach Offset (V)
ACHFILTER	IQUANT	3	Ach Filter
IERANGELOWERLIMIT	IQUANT	1	I/E Range Lower Limit
IERANGEMODE	TOGGLE	F	I/E AutoRange
IERANGE	IQUANT	6	I/E Range
POSFEEDENABLE	TOGGLE	F	Positive Feedback IR Comp
POSFEEDRESISTANCE	QUANT	0	Positive Feedback Resistance (ohm)
ACHSELECT	IQUANT	0	Ach Select
CABLEID	IQUANT	14	Cable ID
DCCALDATE	LABEL	8/19/2019	DC Calibration Date
ACCALDATE	LABEL	8/19/2019	AC Calibration Date
THERMOSELECT	IQUANT	1	Thermo Select
FRAMEWORKVERSION	QUANT	6.33	Framework Version
INSTRUMENTVERSION	LABEL	3.50	Instrument Version
ZCURVE	TABLE
	Pt	Time	Freq	Zreal	Zimag	Zsig	Zmod	Zphz	Idc	Vdc	IERange
	#	s	Hz	ohm	ohm	V	ohm	°	A	V	#
	0	1	1000078	2097.371	-1189.778	1	2411.335	-29.565	8.129126E-007	-0.0089894	8
	1	2	794390.6	2307.734	-1105.159	1	2558.713	-25.58946	4.152951E-006	-0.0098104	8
	2	4	630984.4	2484.894	-1006.321	1	2680.929	-22.04674	-3.914972E-006	-0.0087397	8
	3	5	501234.4	2641.177	-886.9197	1	2786.116	-18.56229	3.222459E-007	-0.0093224	8
	4	6	398109.4	2750.873	-795.8533	1	2863.684	-16.13565	6.321131E-007	-0.009487	8
	5	8	316265.6	2851.403	-695.5682	1	2935.016	-13.70893	7.491772E-007	-0.0097361	8
	6	9	251203.1	2927.24	-605.8147	1	2989.271	-11.69273	3.388689E-006	-0.0100388	8
	7	10	199546.9	2982.61	-539.4542	1	3031.002	-10.25205	-2.471709E-006	-0.0090768	8
	8	12	158578.1	3032.823	-492.2757	1	3072.515	-9.219615	9.624471E-008	-0.0093818	8
	9	13	125953.1	3093.336	-414.2729	1	3120.953	-7.62791	5.307587E-007	-0.0104692	7
	10	14	100078.1	3124.056	-389.2491	1	3148.212	-7.102299	-7.551838E-009	-0.0094358	7
	11	16	79453.13	3159.94	-382.7231	1	3183.033	-6.905867	1.220717E-008	-0.009526	7
	12	17	63140.62	3197.09	-384.7175	1	3220.154	-6.861618	3.37335E-008	-0.0095068	7
	13	18	50203.12	3234.951	-393.7037	1	3258.82	-6.938952	7.645652E-008	-0.0095105	7
	14	20	39890.62	3275.199	-411.2012	1	3300.911	-7.156042	-4.250655E-008	-0.009432	7
	15	21	31640.63	3318.666	-435.6861	1	3347.143	-7.479218	-4.231439E-008	-0.0094342	7
	16	22	25171.88	3364.226	-468.8728	1	3396.742	-7.934216	7.414837E-008	-0.0095155	7
	17	24	20015.62	3414.21	-511.0149	1	3452.241	-8.512438	-7.834696E-009	-0.0094302	7
	18	25	15890.62	3471.597	-561.6298	1	3516.733	-9.189608	-3.250991E-008	-0.0094656	7
	19	27	12609.37	3530.262	-625.422	1	3585.234	-10.0463	-2.48948E-008	-0.0094858	7
	20	28	10078.13	3595.374	-697.4156	1	3662.391	-10.97766	-4.964349E-008	-0.0093228	7
	21	29	8015.625	3668.093	-783.1682	1	3750.768	-12.05216	1.233839E-008	-0.0095385	7
	22	31	6328.125	3751.31	-887.859	1	3854.948	-13.31572	3.474456E-008	-0.0095145	7
	23	32	5015.625	3841.355	-1008.565	1	3971.55	-14.71123	4.276442E-008	-0.0096113	7
	24	33	3984.375	3941.477	-1150.865	1	4106.06	-16.27718	-5.190548E-009	-0.0094582	7
	25	35	3170.956	4047.399	-1315.34	1	4255.768	-18.00334	6.955401E-008	-0.0095916	7
	26	36	2527.573	4162.778	-1507.924	1	4427.477	-19.91241	-5.040538E-009	-0.0094643	7
	27	37	1976.103	4296.397	-1756.403	1	4641.55	-22.23516	1.201178E-008	-0.0095427	7
	28	39	1577.524	4426.759	-2031.416	1	4870.611	-24.65014	-3.511495E-008	-0.0094623	7
	29	40	1265.625	4566.138	-2358.362	1	5139.211	-27.31588	-6.391264E-008	-0.0093673	7
	30	41	998.264	4717.64	-2792.801	1	5482.323	-30.62516	-1.661244E-008	-0.0094185	7
	31	43	796.875	4879.371	-3297.987	1	5889.396	-34.05493	1.187115E-008	-0.0095368	7
	32	44	627.7902	5071.964	-3965.656	1	6438.264	-38.02106	7.658603E-008	-0.0096299	7
	33	45	505.5147	5278.463	-4713.215	1	7076.48	-41.76212	7.54312E-008	-0.0096341	7
	34	47	397.9953	5552.899	-5737.425	1	7984.531	-45.93634	4.285688E-009	-0.0094537	7
	35	48	315.5048	5888.871	-6963.859	1	9119.985	-49.78103	4.265834E-009	-0.0094538	7
	36	50	252.4038	6302.843	-8401.842	1	10503.18	-53.12373	9.728489E-010	-0.0095147	6
	37	51	198.6229	6876.416	-10285.68	1	12372.57	-56.2356	1.30573E-009	-0.0095139	6
	38	52	158.3615	7591.543	-12443.14	1	14576.12	-58.61269	7.828201E-010	-0.0095174	6
	39	54	125.558	8544.313	-15097.78	1	17347.86	-60.4931	1.447705E-009	-0.0095209	6
	40	55	100.4464	9731.94	-18125.46	1	20572.87	-61.76772	4.383384E-010	-0.0095151	6
	41	56	79.00281	11394.58	-21969.53	1	24748.67	-62.58632	1.090864E-009	-0.0095206	6
	42	58	63.3446	13396.74	-26298.25	1	29513.91	-63.005	7.548666E-010	-0.0095222	6
	43	59	49.86702	16125.09	-31218.8	1	35137.33	-62.6828	-1.651754E-010	-0.0095236	6
	44	60	39.72458	19585.02	-37000.79	1	41864.45	-62.10712	1.461396E-009	-0.0095196	6
	45	62	31.6723	23682.83	-43411.55	1	49451.38	-61.38568	5.738127E-010	-0.0095175	6
	46	63	24.93351	29149.21	-50918.76	1	58671.94	-60.21037	4.088782E-010	-0.0095174	6
	47	64	19.86229	35487.02	-58899.66	1	68764.09	-58.93106	1.138895E-009	-0.0095175	6
	48	66	15.83615	42877.71	-67388.74	1	79873.28	-57.53246	1.775986E-009	-0.0095202	6
	49	67	12.40079	52359.14	-77335.59	1	93393.12	-55.90051	1.845916E-009	-0.0095202	6
	50	69	9.93114	62800.09	-87290.19	1	107533.4	-54.26723	1.916253E-009	-0.0095161	5
	51	70	7.944915	74525.82	-97655.3	1	122844	-52.65086	1.390587E-009	-0.0095077	5
	52	72	6.317385	88115.91	-108991.8	1	140155.7	-51.04572	1.356067E-009	-0.0095202	5
	53	74	5.008013	103681	-121059.2	1	159389.7	-49.42166	6.249994E-010	-0.00951	5
	54	76	3.945707	120929.7	-133752.9	1	180316	-47.88239	1.194525E-010	-0.009514	5
	55	79	3.158693	138319.6	-146238.4	1	201290.7	-46.59403	1.119828E-011	-0.0095287	5
	56	82	2.504006	157576.7	-160670.3	1	225045.2	-45.55695	7.569998E-010	-0.0095126	5
	57	85	1.998082	177530.5	-176053.9	1	250024.1	-44.76073	9.14146E-010	-0.0094913	5
	58	88	1.584686	198772.6	-193179	1	277179.9	-44.18238	2.986394E-010	-0.0095552	5
	59	91	1.266892	221184.3	-213607.7	1	307491.1	-44.00169	5.129732E-010	-0.0094921	5
	60	96	0.999041	246965.6	-237993.4	1	342976.5	-43.94009	-4.83448E-010	-0.0095575	5
