EXPLAIN
TAG	EISPOT
TITLE	LABEL	Potentiostatic EIS	Test &Identifier
DATE	LABEL	11/27/2019	Date
TIME	LABEL	13:50:46	Time
NOTES	NOTES	3	&Notes...
	
	
	
PSTAT	PSTAT	REF600-11020	Potentiostat
VDC	POTEN	0.00000E+000	T	DC &Voltage (V)
FREQINIT	QUANT	1.00000E+006	Initial Fre&q. (Hz)
FREQFINAL	QUANT	1.00000E+000	Final Fre&q. (Hz)
PTSPERDEC	QUANT	1.00000E+001	Points/&decade
VAC	QUANT	2.50000E+001	AC &Voltage (mV rms)
AREA	QUANT	1.00000E-002	&Area (cm^2)
CONDIT	TWOPARAM	T	5.00000E+000	0.00000E+000	Conditionin&g	Time(s)	E(V)
DELAY	TWOPARAM	T	5.00000E+000	0.00000E+000	Init. De&lay	Time(s)	Stab.(mV/s)
SPEED	SELECTOR	0	&Optimize for:
ZGUESS	QUANT	1.00000E+005	E&stimated Z (ohms)
OCVCURVE	TABLE	19
	Pt	T	Vf	Vm	Ach	Over
	#	s	V vs. Ref.	V	V	bits
	0	0.258333	1.03665E-001	1.03665E-001	5.51933E-004	...........
	1	0.516667	1.03735E-001	1.07325E-001	5.53799E-004	...........
	2	0.775	1.04164E-001	1.10777E-001	5.50099E-004	...........
	3	1.03333	1.05369E-001	1.13668E-001	5.43866E-004	...........
	4	1.29167	1.07482E-001	1.16195E-001	5.49266E-004	...........
	5	1.55	1.10189E-001	1.18402E-001	5.46166E-004	...........
	6	1.80833	1.13025E-001	1.20433E-001	5.45033E-004	...........
	7	2.06667	1.15675E-001	1.22127E-001	5.47833E-004	...........
	8	2.325	1.18031E-001	1.24044E-001	5.51866E-004	...........
	9	2.58333	1.20115E-001	1.25339E-001	5.48966E-004	...........
	10	2.84167	1.21968E-001	1.26045E-001	5.45099E-004	...........
	11	3.1	1.23561E-001	1.26261E-001	5.43866E-004	...........
	12	3.35833	1.24826E-001	1.27582E-001	5.40733E-004	...........
	13	3.61667	1.25800E-001	1.28604E-001	5.48199E-004	...........
	14	3.875	1.26650E-001	1.29349E-001	5.43199E-004	...........
	15	4.13333	1.27511E-001	1.30156E-001	5.43299E-004	...........
	16	4.39167	1.28391E-001	1.30845E-001	5.42399E-004	...........
	17	4.65	1.29241E-001	1.31498E-001	5.43633E-004	...........
	18	4.90833	1.30032E-001	1.32239E-001	5.42466E-004	...........
EOC	QUANT	0.1300322	Open Circuit (V)
PSTATMODEL	IQUANT	4	Pstat Model
PSTATSECTION	LABEL	REF600-11020	Pstat Section
PSTATSERIALNO	LABEL	11020	Pstat Serial Number
CTRLMODE	IQUANT	1	Control Mode
IESTAB	IQUANT	0	I/E Stability
CASPEED	IQUANT	1	Control Amp Speed
CONVENTION	IQUANT	1	Current Convention
ICHRANGE	IQUANT	2	Ich Range
ICHRANGEMODE	TOGGLE	F	Ich Auto Range
ICHOFFSETENABLE	TOGGLE	T	Ich Offset Enable
ICHOFFSET	QUANT	0	Ich Offset (V)
ICHFILTER	IQUANT	3	Ich Filter
VCHRANGE	IQUANT	2	Vch Range
VCHRANGEMODE	TOGGLE	F	Vch Auto Range
VCHOFFSETENABLE	TOGGLE	T	Vch Offset Enable
VCHOFFSET	QUANT	0	Vch Offset (V)
VCHFILTER	IQUANT	3	Vch Filter
ACHRANGE	IQUANT	2	Ach Range
ACHOFFSETENABLE	TOGGLE	F	Ach Offset Enable
ACHOFFSET	QUANT	0	Ach Offset (V)
ACHFILTER	IQUANT	3	Ach Filter
IERANGELOWERLIMIT	IQUANT	1	I/E Range Lower Limit
IERANGEMODE	TOGGLE	F	I/E AutoRange
IERANGE	IQUANT	6	I/E Range
POSFEEDENABLE	TOGGLE	F	Positive Feedback IR Comp
POSFEEDRESISTANCE	QUANT	0	Positive Feedback Resistance (ohm)
ACHSELECT	IQUANT	0	Ach Select
CABLEID	IQUANT	14	Cable ID
DCCALDATE	LABEL	8/19/2019	DC Calibration Date
ACCALDATE	LABEL	8/19/2019	AC Calibration Date
THERMOSELECT	IQUANT	1	Thermo Select
FRAMEWORKVERSION	QUANT	6.33	Framework Version
INSTRUMENTVERSION	LABEL	3.50	Instrument Version
ZCURVE	TABLE
	Pt	Time	Freq	Zreal	Zimag	Zsig	Zmod	Zphz	Idc	Vdc	IERange
	#	s	Hz	ohm	ohm	V	ohm	°	A	V	#
	0	2	1000078	1525.951	-2177.731	1	2659.142	-54.9808	-3.62192E-006	0.1319176	8
	1	2	794390.6	1760.896	-2512.964	1	3068.508	-54.98012	8.549435E-006	0.1303456	8
	2	2	630984.4	2057.486	-2912.318	1	3565.788	-54.75966	4.622447E-006	0.1303577	8
	3	3	501234.4	2433.761	-3369.92	1	4156.869	-54.16312	3.439931E-006	0.131485	8
	4	3	398109.4	2909.049	-3894.854	1	4861.322	-53.24411	3.58498E-006	0.1314445	8
	5	3	316265.6	3524.309	-4411.393	1	5646.339	-51.37827	-2.375416E-007	0.1311699	8
	6	4	251203.1	4298.034	-4912.359	1	6527.202	-48.81593	-8.254682E-007	0.1318774	8
	7	4	199546.9	5238.289	-5403.416	1	7525.728	-45.88898	-2.875991E-007	0.1312211	8
	8	4	158578.1	6295.328	-5691.001	1	8486.381	-42.1137	-2.863017E-007	0.1312126	8
	9	5	125953.1	7534.552	-5634.526	1	9408.366	-36.79006	-2.456863E-006	0.1349612	7
	10	5	100078.1	8761.669	-5751.282	1	10480.65	-33.28145	4.307859E-008	0.1300169	7
	11	6	79453.13	9842.31	-5811.064	1	11429.76	-30.55832	7.10795E-007	0.1316052	7
	12	6	63140.62	10857.81	-5239.399	1	12055.84	-25.75949	4.370592E-008	0.1300079	7
	13	6	50203.12	11614.54	-4896.109	1	12604.34	-22.85785	-6.422146E-007	0.1331629	7
	14	7	39890.62	12610.78	-4565.812	1	13411.88	-19.9031	9.532715E-007	0.1310975	7
	15	7	31640.63	12856.11	-3854.807	1	13421.59	-16.69096	-1.327572E-006	0.1330322	7
	16	7	25171.88	13303.41	-3397.877	1	13730.49	-14.32782	-1.340558E-006	0.1326556	7
	17	8	20015.62	13741.39	-3135.943	1	14094.68	-12.8554	-1.176026E-006	0.1332148	7
	18	8	15890.62	14061.42	-2662.956	1	14311.36	-10.72369	-4.167754E-007	0.1305953	7
	19	8	12609.37	14560.97	-2290.206	1	14739.98	-8.938477	-7.641079E-008	0.1341664	6
	20	9	10078.13	14733.93	-2071.229	1	14878.8	-8.001945	-7.654096E-008	0.1341643	6
	21	9	8015.625	14921.08	-1908.424	1	15042.63	-7.288626	1.97084E-007	0.1293643	6
	22	9	6328.125	14801.58	-1781.453	1	14908.4	-6.862856	-2.259608E-007	0.1336962	6
	23	10	5015.625	15138.85	-1755.263	1	15240.27	-6.61359	1.131188E-007	0.1317832	6
	24	10	3984.375	15203.2	-1770.093	1	15305.9	-6.640988	1.123223E-007	0.1317839	6
	25	10	3170.956	15013.1	-1806.315	1	15121.38	-6.860616	-9.661382E-008	0.1305197	6
	26	11	2527.573	15259.82	-1953.48	1	15384.35	-7.295022	1.744191E-007	0.1284266	6
	27	11	1976.103	15170.92	-2188.868	1	15328.01	-8.21001	-2.255294E-007	0.1336941	6
	28	11	1577.524	15338.49	-2477.429	1	15537.27	-9.175014	-3.209578E-008	0.12961	6
	29	12	1265.625	15486.02	-2850.932	1	15746.26	-10.43119	-7.745155E-008	0.1341573	6
	30	12	998.264	15587.17	-3361.037	1	15945.42	-12.16829	1.7448E-007	0.1284373	6
	31	12	796.875	15633.43	-3994.512	1	16135.69	-14.33303	-1.926207E-007	0.1346965	6
	32	13	627.7902	15876.4	-4823.228	1	16592.88	-16.89871	-7.790522E-008	0.1341554	6
	33	13	505.5147	16057.89	-5762.214	1	17060.45	-19.74002	-7.7913E-008	0.1341526	6
	34	13	397.9953	16252.46	-6993.972	1	17693.45	-23.28382	-8.063208E-010	0.131385	6
	35	13	315.5048	16562.22	-8495.682	1	18614.07	-27.1558	-1.166438E-009	0.1313798	6
	36	14	252.4038	16922.95	-10257.53	1	19788.97	-31.22137	-1.559463E-009	0.1313756	6
	37	14	198.6229	17440.07	-12571.43	1	21498.77	-35.78543	-1.463553E-009	0.1313828	6
	38	14	158.3615	18045.71	-15269.92	1	23639.33	-40.23724	-1.538488E-009	0.1313843	6
	39	15	125.558	18854.34	-18618.43	1	26497.77	-44.63931	-1.675993E-009	0.1313814	6
	40	15	100.4464	19837.07	-22502.54	1	29997.89	-48.60227	-2.247308E-009	0.131383	6
	41	15	79.00281	21338.77	-27619.69	1	34902.59	-52.31059	-2.075969E-009	0.1313719	6
	42	16	63.3446	23037.39	-33937.57	1	41018.05	-55.83068	-5.36552E-010	0.1313772	6
	43	16	49.86702	25519.76	-41355.25	1	48595.43	-58.32183	-1.186862E-010	0.1313669	6
	44	17	39.72458	28859.72	-49585.46	1	57372.48	-59.79974	-1.023101E-009	0.1313804	6
	45	17	31.6723	33180.3	-59589.96	1	68204.8	-60.89049	-1.769119E-009	0.1313791	6
	46	17	24.93351	38964.14	-72297.38	1	82128.66	-61.67788	-8.427691E-010	0.1313657	6
	47	17	19.86229	46611.44	-86289.92	1	98074.3	-61.62331	-1.565064E-009	0.1313699	6
	48	18	15.83615	57011.87	-100702.8	1	115721.2	-60.48406	1.192291E-009	0.1313706	5
	49	18	12.40079	69449.71	-120811.6	1	139351	-60.10714	-1.824033E-009	0.1313892	5
	50	18	9.93114	85330.03	-139803	1	163786.7	-58.60181	-2.255783E-010	0.1313727	5
	51	19	7.944915	104242.6	-160477.6	1	191362.4	-56.99317	-2.47506E-011	0.131381	5
	52	20	6.317385	126930.7	-182397.5	1	222216.7	-55.16587	1.796217E-010	0.1313743	5
	53	20	5.008013	154826.9	-205807.2	1	257542.2	-53.0462	2.262796E-010	0.1313804	5
	54	21	3.945707	187587.5	-229858.6	1	296688.5	-50.78214	-2.653984E-010	0.1313724	5
	55	23	3.158693	222144.9	-251715.4	1	335721.6	-48.57082	-3.470771E-011	0.1313662	5
	56	25	2.504006	262069.3	-274615.6	1	379597.2	-46.33918	6.566984E-010	0.1313764	5
	57	26	1.998082	303065.8	-295234.2	1	423098.3	-44.25006	2.697088E-010	0.131357	5
	58	27	1.584686	348919.7	-316577.4	1	471132.8	-42.21769	1.211089E-010	0.1313194	5
	59	29	1.266892	393564.8	-338581.5	1	519163.5	-40.70522	1.273355E-010	0.1313418	5
	60	32	0.999041	441756.4	-362658.6	1	571550.5	-39.38419	2.393018E-010	0.1313698	5
