EXPLAIN
TAG	EISPOT
TITLE	LABEL	Potentiostatic EIS	Test &Identifier
DATE	LABEL	10/26/2019	Date
TIME	LABEL	10:42:20	Time
NOTES	NOTES	1	&Notes...
	
PSTAT	PSTAT	REF600-11020	Potentiostat
VDC	POTEN	0.00000E+000	T	DC &Voltage (V)
FREQINIT	QUANT	1.00000E+006	Initial Fre&q. (Hz)
FREQFINAL	QUANT	1.00000E+000	Final Fre&q. (Hz)
PTSPERDEC	QUANT	1.00000E+001	Points/&decade
VAC	QUANT	2.50000E+001	AC &Voltage (mV rms)
AREA	QUANT	1.00000E-002	&Area (cm^2)
CONDIT	TWOPARAM	T	5.00000E+000	0.00000E+000	Conditionin&g	Time(s)	E(V)
DELAY	TWOPARAM	T	5.00000E+000	0.00000E+000	Init. De&lay	Time(s)	Stab.(mV/s)
SPEED	SELECTOR	0	&Optimize for:
ZGUESS	QUANT	1.00000E+005	E&stimated Z (ohms)
OCVCURVE	TABLE	19
	Pt	T	Vf	Vm	Ach	Over
	#	s	V vs. Ref.	V	V	bits
	0	0.258333	3.79557E-004	3.79557E-004	5.65632E-004	...........
	1	0.516667	3.62369E-004	-5.20146E-004	5.56832E-004	...........
	2	0.775	2.57043E-004	-1.36165E-003	5.57066E-004	...........
	3	1.03333	-3.55931E-005	-1.92826E-003	5.60866E-004	...........
	4	1.29167	-5.39237E-004	-2.55332E-003	5.61199E-004	...........
	5	1.55	-1.17184E-003	-3.11549E-003	5.58399E-004	...........
	6	1.80833	-1.82936E-003	-3.57200E-003	5.64832E-004	...........
	7	2.06667	-2.45032E-003	-4.06781E-003	5.61399E-004	...........
	8	2.325	-3.01631E-003	-4.53591E-003	5.60232E-004	...........
	9	2.58333	-3.53463E-003	-4.96826E-003	5.55199E-004	...........
	10	2.84167	-4.01941E-003	-5.36612E-003	5.57132E-004	...........
	11	3.1	-4.47786E-003	-5.74107E-003	5.60866E-004	...........
	12	3.35833	-4.91002E-003	-6.08465E-003	5.60399E-004	...........
	13	3.61667	-5.31456E-003	-6.41588E-003	5.59966E-004	...........
	14	3.875	-5.69213E-003	-6.72965E-003	5.62966E-004	...........
	15	4.13333	-6.04567E-003	-7.03077E-003	5.52333E-004	...........
	16	4.39167	-6.37888E-003	-7.30625E-003	5.57166E-004	...........
	17	4.65	-6.69434E-003	-7.57966E-003	5.54999E-004	...........
	18	4.90833	-6.99346E-003	-7.83260E-003	5.57966E-004	...........
EOC	QUANT	-0.0069935	Open Circuit (V)
PSTATMODEL	IQUANT	4	Pstat Model
PSTATSECTION	LABEL	REF600-11020	Pstat Section
PSTATSERIALNO	LABEL	11020	Pstat Serial Number
CTRLMODE	IQUANT	1	Control Mode
IESTAB	IQUANT	0	I/E Stability
CASPEED	IQUANT	1	Control Amp Speed
CONVENTION	IQUANT	1	Current Convention
ICHRANGE	IQUANT	2	Ich Range
ICHRANGEMODE	TOGGLE	F	Ich Auto Range
ICHOFFSETENABLE	TOGGLE	T	Ich Offset Enable
ICHOFFSET	QUANT	0	Ich Offset (V)
ICHFILTER	IQUANT	3	Ich Filter
VCHRANGE	IQUANT	2	Vch Range
VCHRANGEMODE	TOGGLE	F	Vch Auto Range
VCHOFFSETENABLE	TOGGLE	T	Vch Offset Enable
VCHOFFSET	QUANT	0	Vch Offset (V)
VCHFILTER	IQUANT	3	Vch Filter
ACHRANGE	IQUANT	2	Ach Range
ACHOFFSETENABLE	TOGGLE	F	Ach Offset Enable
ACHOFFSET	QUANT	0	Ach Offset (V)
ACHFILTER	IQUANT	3	Ach Filter
IERANGELOWERLIMIT	IQUANT	1	I/E Range Lower Limit
IERANGEMODE	TOGGLE	F	I/E AutoRange
IERANGE	IQUANT	5	I/E Range
POSFEEDENABLE	TOGGLE	F	Positive Feedback IR Comp
POSFEEDRESISTANCE	QUANT	0	Positive Feedback Resistance (ohm)
ACHSELECT	IQUANT	0	Ach Select
CABLEID	IQUANT	14	Cable ID
DCCALDATE	LABEL	8/19/2019	DC Calibration Date
ACCALDATE	LABEL	8/19/2019	AC Calibration Date
THERMOSELECT	IQUANT	1	Thermo Select
FRAMEWORKVERSION	QUANT	6.33	Framework Version
INSTRUMENTVERSION	LABEL	3.50	Instrument Version
ZCURVE	TABLE
	Pt	Time	Freq	Zreal	Zimag	Zsig	Zmod	Zphz	Idc	Vdc	IERange
	#	s	Hz	ohm	ohm	V	ohm	°	A	V	#
	0	1	1000078	2596.092	-1743.079	1	3126.982	-33.87838	6.438756E-007	-0.005314	8
	1	1	794390.6	2926.383	-1669.296	1	3369.015	-29.70173	-1.785117E-006	-0.00486	8
	2	2	630984.4	3220.671	-1561.125	1	3579.083	-25.86042	-1.34049E-006	-0.0050127	8
	3	2	501234.4	3469.798	-1419.192	1	3748.813	-22.24519	3.361227E-006	-0.0059681	8
	4	2	398109.4	3687.873	-1278.801	1	3903.298	-19.12442	-2.592373E-007	-0.0053962	8
	5	3	316265.6	3846.625	-1153.847	1	4015.954	-16.69733	7.259684E-008	-0.0054216	8
	6	3	251203.1	3990.672	-1019.287	1	4118.787	-14.32801	2.485856E-007	-0.0054508	8
	7	3	199546.9	4090.092	-917.2719	1	4191.687	-12.64039	-2.416074E-006	-0.0049783	8
	8	4	158578.1	4181.62	-847.76	1	4266.69	-11.46052	7.865822E-008	-0.005417	8
	9	4	125953.1	4282.531	-733.368	1	4344.87	-9.71744	1.59475E-007	-0.005562	7
	10	4	100078.1	4343.935	-691.7169	1	4398.664	-9.047668	5.088429E-008	-0.0055688	7
	11	5	79453.13	4408.848	-683.0948	1	4461.452	-8.807223	-4.818236E-008	-0.0054358	7
	12	5	63140.62	4471.445	-685.9337	1	4523.751	-8.721363	-6.319222E-008	-0.0053072	7
	13	5	50203.12	4535.897	-705.4995	1	4590.435	-8.840772	6.735997E-008	-0.0056343	7
	14	5	39890.62	4606.873	-740.141	1	4665.95	-9.127153	6.462603E-009	-0.0054203	7
	15	6	31640.63	4678.979	-790.2637	1	4745.247	-9.58659	6.866013E-008	-0.005641	7
	16	6	25171.88	4759.093	-856.4813	1	4835.548	-10.20216	-6.806395E-009	-0.005462	7
	17	6	20015.62	4845.855	-941.6788	1	4936.504	-10.99704	-5.540679E-008	-0.0054081	7
	18	7	15890.62	4947.95	-1039.84	1	5056.033	-11.86833	-3.868887E-008	-0.005418	7
	19	7	12609.37	5058.225	-1161.453	1	5189.856	-12.9319	-7.153337E-009	-0.0054643	7
	20	7	10078.13	5181.421	-1298.348	1	5341.613	-14.06738	-2.218283E-009	-0.005511	7
	21	8	8015.625	5320.775	-1463.99	1	5518.506	-15.38403	4.036565E-008	-0.0056293	7
	22	8	6328.125	5486.986	-1661.892	1	5733.141	-16.85045	-6.159669E-008	-0.0053218	7
	23	8	5015.625	5670.146	-1886.93	1	5975.873	-18.40658	-5.524113E-008	-0.0054107	7
	24	9	3984.375	5879.79	-2138.495	1	6256.603	-19.98646	-2.466625E-009	-0.005532	7
	25	9	3170.956	6113.537	-2437.82	1	6581.664	-21.74002	-4.073292E-008	-0.0054192	7
	26	9	2527.573	6379.565	-2764.862	1	6952.936	-23.4316	7.689618E-009	-0.0054253	7
	27	10	1976.103	6705.222	-3170.033	1	7416.813	-25.30341	-7.140534E-009	-0.0054664	7
	28	10	1577.524	7005.057	-3537.239	1	7847.476	-26.79172	1.014979E-008	-0.0055781	7
	29	10	1265.625	7414.997	-4054.728	1	8451.213	-28.67108	-1.129346E-008	-0.0055388	7
	30	11	998.264	7824.521	-4605.222	1	9079.163	-30.47948	4.867617E-008	-0.0055913	7
	31	11	796.875	8247.711	-5215.428	1	9758.35	-32.30716	-8.652578E-009	-0.0054845	6
	32	11	627.7902	8683.23	-5985.395	1	10546.25	-34.57869	-1.978673E-010	-0.0055225	6
	33	12	505.5147	9074.872	-6833.981	1	11360.31	-36.98217	-1.950959E-009	-0.0054587	6
	34	12	397.9953	9507.33	-8001.647	1	12426.41	-40.08496	9.522985E-010	-0.0055445	6
	35	12	315.5048	9927.08	-9435.805	1	13696.04	-43.54659	1.637052E-009	-0.0055461	6
	36	12	252.4038	10351.2	-11170.19	1	15228.94	-47.17933	1.30771E-009	-0.0055493	6
	37	13	198.6229	10855.18	-13524.01	1	17341.68	-51.24738	3.021166E-010	-0.0055505	6
	38	13	158.3615	11401.22	-16319.74	1	19907.83	-55.06127	1.242681E-009	-0.0055536	6
	39	13	125.558	12097.22	-19890.21	1	23280.1	-58.69203	1.093124E-009	-0.0055497	6
	40	14	100.4464	12972.18	-24154.09	1	27417.1	-61.76157	-1.751634E-010	-0.0055518	6
	41	14	79.00281	14012.97	-29872.08	1	32995.52	-64.86876	-4.822735E-010	-0.005558	6
	42	14	63.3446	15628.85	-35771.89	1	39037.02	-66.39933	8.298701E-010	-0.0055568	6
	43	15	49.86702	17597.55	-44365.23	1	47727.85	-68.36416	1.408069E-009	-0.0055601	6
	44	15	39.72458	19674.44	-54545.62	1	57985.41	-70.16578	6.925486E-010	-0.0055571	6
	45	16	31.6723	22630.84	-66753.09	1	70484.96	-71.27215	1.137946E-009	-0.0055599	6
	46	16	24.93351	27122.01	-81794.44	1	86173.85	-71.65513	5.234371E-010	-0.0055581	6
	47	16	19.86229	32356.53	-99146.8	1	104293.1	-71.92593	1.04777E-009	-0.0055486	6
	48	16	15.83615	39650.04	-122076.2	1	128353.9	-72.00634	-2.054746E-009	-0.0055522	5
	49	17	12.40079	49467.02	-148397.5	1	156425.1	-71.56464	1.072036E-009	-0.0055471	5
	50	17	9.93114	59686.43	-176263.3	1	186094.6	-71.29282	-2.342108E-010	-0.0055453	5
	51	18	7.944915	74070.2	-210649	1	223292.2	-70.62687	2.840585E-010	-0.0055575	5
	52	18	6.317385	91799.36	-252779.3	1	268932.1	-70.04099	-1.779593E-010	-0.0055532	5
	53	19	5.008013	115146.1	-302175.2	1	323370.5	-69.14029	4.390524E-010	-0.0055571	5
	54	20	3.945707	143965.1	-361322	1	388946.7	-68.27569	6.393951E-010	-0.0055437	5
	55	22	3.158693	178017.1	-424161.5	1	460003.3	-67.23261	2.281818E-010	-0.005546	5
	56	23	2.504006	219187.8	-499655.3	1	545617.7	-66.314	2.245095E-010	-0.0055564	5
	57	25	1.998082	266356.8	-583567	1	641479.9	-65.46667	2.658586E-010	-0.0055108	5
	58	26	1.584686	321004.9	-682932.3	1	754612.9	-64.82464	2.872705E-010	-0.0055315	5
	59	28	1.266892	384095	-792887.8	1	881022.1	-64.15327	1.852162E-010	-0.0055758	5
	60	31	0.999041	462203.5	-934019.8	1	1042125	-63.67131	1.616042E-010	-0.0055929	4
