EXPLAIN
TAG	EISPOT
TITLE	LABEL	Potentiostatic EIS	Test &Identifier
DATE	LABEL	8/16/2017	Date
TIME	LABEL	16:28:11	Time
NOTES	NOTES	1	&Notes...
	
PSTAT	PSTAT	REF600-11020	Potentiostat
VDC	POTEN	0.00000E+000	T	DC &Voltage (V)
FREQINIT	QUANT	1.00000E+006	Initial Fre&q. (Hz)
FREQFINAL	QUANT	1.00000E+000	Final Fre&q. (Hz)
PTSPERDEC	QUANT	1.00000E+001	Points/&decade
VAC	QUANT	2.50000E+001	AC &Voltage (mV rms)
AREA	QUANT	1.00000E-002	&Area (cm^2)
CONDIT	TWOPARAM	T	5.00000E+000	0.00000E+000	Conditionin&g	Time(s)	E(V)
DELAY	TWOPARAM	T	5.00000E+000	0.00000E+000	Init. De&lay	Time(s)	Stab.(mV/s)
SPEED	SELECTOR	0	&Optimize for:
ZGUESS	QUANT	1.00000E+005	E&stimated Z (ohms)
OCVCURVE	TABLE	19
	Pt	T	Vf	Vm	Ach	Over
	#	s	V vs. Ref.	V	V	bits
	0	0.258333	6.18156E-003	6.18156E-003	5.54966E-004	...........
	1	0.516667	6.18273E-003	6.24238E-003	5.64499E-004	...........
	2	0.775	6.19013E-003	6.31401E-003	5.64132E-004	...........
	3	1.03333	6.21075E-003	6.31999E-003	5.63166E-004	...........
	4	1.29167	6.24455E-003	6.34685E-003	5.61566E-004	...........
	5	1.55	6.28312E-003	6.40377E-003	5.55699E-004	...........
	6	1.80833	6.31989E-003	6.40984E-003	5.57499E-004	...........
	7	2.06667	6.35444E-003	6.47307E-003	5.55299E-004	...........
	8	2.325	6.38951E-003	6.54697E-003	5.57799E-004	...........
	9	2.58333	6.43044E-003	6.62892E-003	5.58266E-004	...........
	10	2.84167	6.48269E-003	6.70066E-003	5.54433E-004	...........
	11	3.1	6.54694E-003	6.77830E-003	5.60766E-004	...........
	12	3.35833	6.61905E-003	6.84848E-003	5.53366E-004	...........
	13	3.61667	6.69394E-003	6.91097E-003	5.58766E-004	...........
	14	3.875	6.76780E-003	6.97960E-003	5.53933E-004	...........
	15	4.13333	6.83878E-003	7.04382E-003	5.64632E-004	...........
	16	4.39167	6.90707E-003	7.11244E-003	5.60366E-004	...........
	17	4.65	6.97394E-003	7.18263E-003	5.59799E-004	...........
	18	4.90833	7.04096E-003	7.26054E-003	5.57732E-004	...........
EOC	QUANT	0.007041	Open Circuit (V)
PSTATMODEL	IQUANT	4	Pstat Model
PSTATSECTION	LABEL	REF600-11020	Pstat Section
PSTATSERIALNO	LABEL	11020	Pstat Serial Number
CTRLMODE	IQUANT	1	Control Mode
IESTAB	IQUANT	0	I/E Stability
CASPEED	IQUANT	1	Control Amp Speed
CONVENTION	IQUANT	1	Current Convention
ICHRANGE	IQUANT	2	Ich Range
ICHRANGEMODE	TOGGLE	F	Ich Auto Range
ICHOFFSETENABLE	TOGGLE	T	Ich Offset Enable
ICHOFFSET	QUANT	0	Ich Offset (V)
ICHFILTER	IQUANT	3	Ich Filter
VCHRANGE	IQUANT	2	Vch Range
VCHRANGEMODE	TOGGLE	F	Vch Auto Range
VCHOFFSETENABLE	TOGGLE	T	Vch Offset Enable
VCHOFFSET	QUANT	0	Vch Offset (V)
VCHFILTER	IQUANT	3	Vch Filter
ACHRANGE	IQUANT	2	Ach Range
ACHOFFSETENABLE	TOGGLE	F	Ach Offset Enable
ACHOFFSET	QUANT	0	Ach Offset (V)
ACHFILTER	IQUANT	3	Ach Filter
IERANGELOWERLIMIT	IQUANT	1	I/E Range Lower Limit
IERANGEMODE	TOGGLE	F	I/E AutoRange
IERANGE	IQUANT	5	I/E Range
POSFEEDENABLE	TOGGLE	F	Positive Feedback IR Comp
POSFEEDRESISTANCE	QUANT	0	Positive Feedback Resistance (ohm)
ACHSELECT	IQUANT	0	Ach Select
CABLEID	IQUANT	14	Cable ID
DCCALDATE	LABEL	8/19/2019	DC Calibration Date
ACCALDATE	LABEL	8/19/2019	AC Calibration Date
THERMOSELECT	IQUANT	1	Thermo Select
FRAMEWORKVERSION	QUANT	6.33	Framework Version
INSTRUMENTVERSION	LABEL	3.50	Instrument Version
ZCURVE	TABLE
	Pt	Time	Freq	Zreal	Zimag	Zsig	Zmod	Zphz	Idc	Vdc	IERange
	#	s	Hz	ohm	ohm	V	ohm	°	A	V	#
	0	2	1000078	1944.782	-1334.654	1	2358.703	-34.46081	9.866892E-006	0.0080559	8
	1	2	794390.6	2185.709	-1345.68	1	2566.745	-31.61944	-6.989115E-006	0.0095145	8
	2	2	630984.4	2409.37	-1343.791	1	2758.775	-29.14995	1.098258E-006	0.0092454	8
	3	3	501234.4	2642.323	-1351.642	1	2967.963	-27.09135	-2.936571E-006	0.0085352	8
	4	3	398109.4	2876.874	-1322.223	1	3166.177	-24.6837	-3.571337E-006	0.0091689	8
	5	3	316265.6	3105.81	-1275.777	1	3357.627	-22.33144	2.134356E-006	0.0088336	8
	6	4	251203.1	3337.781	-1204.686	1	3548.527	-19.84574	2.198825E-006	0.0080397	8
	7	4	199546.9	3525.635	-1114.472	1	3697.587	-17.54202	-2.687764E-006	0.0090725	8
	8	4	158578.1	3707.374	-1004.448	1	3841.033	-15.15936	2.232907E-006	0.0080603	8
	9	4	125953.1	3894.675	-864.5906	1	3989.488	-12.51629	1.286097E-006	0.0098227	7
	10	5	100078.1	3965.605	-751.3415	1	4036.154	-10.72835	-1.061249E-006	0.0090985	7
	11	5	79453.13	4068.402	-657.762	1	4121.231	-9.183869	4.455724E-007	0.0068929	7
	12	5	63140.62	4131.053	-591.6033	1	4173.199	-8.14985	-5.926909E-007	0.0100986	7
	13	6	50203.12	4175.564	-525.4433	1	4208.495	-7.172269	-1.22586E-006	0.0096436	7
	14	6	39890.62	4225.876	-480.2828	1	4253.081	-6.484005	-8.742465E-007	0.0101996	7
	15	6	31640.63	4266.887	-443.394	1	4289.862	-5.932604	7.541104E-008	0.0072004	7
	16	7	25171.88	4309.885	-425.9267	1	4330.88	-5.64396	9.578595E-007	0.0068221	7
	17	7	20015.62	4341.451	-422.7748	1	4361.988	-5.561982	8.52667E-007	0.0082463	7
	18	7	15890.62	4371.854	-426.9584	1	4392.652	-5.57786	8.501947E-007	0.0082448	7
	19	8	12609.37	4389.638	-449.9401	1	4412.637	-5.852407	7.462993E-007	0.0067509	7
	20	8	10078.13	4418.537	-484.7135	1	4445.043	-6.260315	1.026486E-006	0.0077553	7
	21	8	8015.625	4434.873	-541.8454	1	4467.851	-6.965779	-5.931535E-007	0.0100877	7
	22	9	6328.125	4471.485	-615.7126	1	4513.677	-7.840185	-2.615552E-007	0.0098359	7
	23	9	5015.625	4495.62	-710.4509	1	4551.411	-8.980289	-1.083542E-006	0.010143	7
	24	9	3984.375	4551.036	-842.9032	1	4628.435	-10.49292	1.074142E-006	0.0070176	7
	25	10	3170.956	4571.532	-985.352	1	4676.519	-12.16349	-1.222828E-006	0.0099883	7
	26	10	2527.573	4619.952	-1175.957	1	4767.267	-14.28074	-1.083442E-006	0.0101372	7
	27	10	1976.103	4675.775	-1428.56	1	4889.137	-16.98915	-1.223702E-006	0.0099853	7
	28	11	1577.524	4745.499	-1722.856	1	5048.563	-19.95346	-8.743371E-007	0.0101795	7
	29	11	1265.625	4816.758	-2072.923	1	5243.869	-23.28494	7.61049E-008	0.007184	7
	30	11	998.264	4896.989	-2528.027	1	5511.027	-27.30464	-1.223664E-006	0.0096186	7
	31	11	796.875	4999.547	-3072.23	1	5868.055	-31.57079	-1.22217E-006	0.0099847	7
	32	12	627.7902	5136.879	-3803.757	1	6391.877	-36.51921	1.019766E-007	0.0094237	7
	33	12	505.5147	5271.673	-4584.117	1	6986.034	-41.00942	-3.425475E-007	0.0077061	7
	34	13	397.9953	5462.192	-5681.389	1	7881.226	-46.12688	2.823335E-009	0.0085262	7
	35	13	315.5048	5695.511	-6988.631	1	9015.532	-50.82107	2.099283E-009	0.00853	7
	36	13	252.4038	5977.247	-8534.195	1	10419.21	-54.99307	-4.868967E-010	0.0084666	6
	37	14	198.6229	6364.685	-10579.39	1	12346.36	-58.96839	-1.630153E-010	0.0084696	6
	38	14	158.3615	6837.169	-12963.94	1	14656.42	-62.19287	-6.941546E-010	0.0084683	6
	39	14	125.558	7476.716	-15956.4	1	17621.23	-64.89354	3.779502E-010	0.008466	6
	40	15	100.4464	8250.948	-19477.01	1	21152.59	-67.04127	4.608854E-010	0.0084677	6
	41	15	79.00281	9358.597	-24053.62	1	25810.08	-68.74037	1.184354E-009	0.0084584	6
	42	15	63.3446	11068.54	-29252.46	1	31276.5	-69.27438	-1.649419E-010	0.0084526	6
	43	16	49.86702	13011.97	-36072.15	1	38347.25	-70.16457	-1.102405E-009	0.0084552	6
	44	16	39.72458	15279.28	-43725.07	1	46317.8	-70.73856	1.258039E-011	0.0084689	6
	45	16	31.6723	18466.19	-53015.3	1	56139.31	-70.79585	4.302668E-010	0.008451	6
	46	17	24.93351	23233.72	-64685.77	1	68731.77	-70.24281	-4.187229E-010	0.0084644	6
	47	17	19.86229	29189.49	-77703.23	1	83004.93	-69.41113	4.381329E-011	0.0084632	6
	48	17	15.83615	36436.34	-92525.39	1	99441.2	-68.50556	-3.588559E-010	0.0084578	6
	49	18	12.40079	47123.24	-110288.2	1	119933.7	-66.86426	2.108589E-009	0.0084545	5
	50	18	9.93114	59578.21	-130147.9	1	143136.4	-65.40296	-5.837923E-010	0.0084687	5
	51	19	7.944915	74851.65	-151452.8	1	168939.9	-63.70029	-8.990807E-010	0.0084652	5
	52	19	6.317385	92729.13	-175083.5	1	198123.5	-62.09305	-9.248058E-010	0.0084691	5
	53	20	5.008013	114759	-201405.8	1	231805.8	-60.32594	-6.255975E-010	0.0084563	5
	54	21	3.945707	140024.7	-229864.1	1	269155	-58.65176	-1.463415E-010	0.0084638	5
	55	22	3.158693	166664.8	-259028.5	1	308014.4	-57.24185	-1.439779E-011	0.0084796	5
	56	24	2.504006	196952.4	-292775.8	1	352856.7	-56.07099	-3.43361E-010	0.0084716	5
	57	25	1.998082	227058	-329481.9	1	400142.1	-55.42786	-2.329864E-010	0.0084617	5
	58	27	1.584686	261290.5	-372601.7	1	455087.6	-54.95958	-5.25022E-011	0.0085099	5
	59	29	1.266892	295622.9	-423334.3	1	516337.9	-55.07262	-5.102633E-011	0.0085055	5
	60	31	0.999041	333961.6	-487045.6	1	590545.4	-55.56201	-3.674117E-011	0.0084899	5
