EXPLAIN
TAG	EISPOT
TITLE	LABEL	Potentiostatic EIS	Test &Identifier
DATE	LABEL	10/14/2019	Date
TIME	LABEL	9:51:07	Time
NOTES	NOTES	1	&Notes...
	
PSTAT	PSTAT	REF600-11020	Potentiostat
VDC	POTEN	0.00000E+000	T	DC &Voltage (V)
FREQINIT	QUANT	1.00000E+006	Initial Fre&q. (Hz)
FREQFINAL	QUANT	1.00000E+000	Final Fre&q. (Hz)
PTSPERDEC	QUANT	1.00000E+001	Points/&decade
VAC	QUANT	2.50000E+001	AC &Voltage (mV rms)
AREA	QUANT	1.00000E-002	&Area (cm^2)
CONDIT	TWOPARAM	T	5.00000E+000	0.00000E+000	Conditionin&g	Time(s)	E(V)
DELAY	TWOPARAM	T	5.00000E+000	0.00000E+000	Init. De&lay	Time(s)	Stab.(mV/s)
SPEED	SELECTOR	1	&Optimize for:
ZGUESS	QUANT	1.00000E+004	E&stimated Z (ohms)
OCVCURVE	TABLE	19
	Pt	T	Vf	Vm	Ach	Over
	#	s	V vs. Ref.	V	V	bits
	0	0.258333	6.46982E-003	6.46982E-003	5.61199E-004	...........
	1	0.516667	6.46626E-003	6.28351E-003	5.56899E-004	...........
	2	0.775	6.44500E-003	6.13801E-003	5.65332E-004	...........
	3	1.03333	6.38765E-003	6.04122E-003	5.57766E-004	...........
	4	1.29167	6.29210E-003	5.93098E-003	5.65732E-004	...........
	5	1.55	6.17680E-003	5.88134E-003	5.62832E-004	...........
	6	1.80833	6.06369E-003	5.78995E-003	5.55966E-004	...........
	7	2.06667	5.96565E-003	5.79652E-003	5.59032E-004	...........
	8	2.325	5.88775E-003	5.76071E-003	5.57233E-004	...........
	9	2.58333	5.83084E-003	5.72663E-003	5.62399E-004	...........
	10	2.84167	5.79038E-003	5.69316E-003	5.66299E-004	...........
	11	3.1	5.75830E-003	5.67719E-003	5.63132E-004	...........
	12	3.35833	5.72937E-003	5.65679E-003	5.57999E-004	...........
	13	3.61667	5.70310E-003	5.64570E-003	5.66066E-004	...........
	14	3.875	5.68063E-003	5.63484E-003	5.63099E-004	...........
	15	4.13333	5.66243E-003	5.62497E-003	5.70399E-004	...........
	16	4.39167	5.64795E-003	5.61498E-003	5.65766E-004	...........
	17	4.65	5.63625E-003	5.61529E-003	5.63232E-004	...........
	18	4.90833	5.62674E-003	5.60513E-003	5.59266E-004	...........
EOC	QUANT	0.0056267	Open Circuit (V)
PSTATMODEL	IQUANT	4	Pstat Model
PSTATSECTION	LABEL	REF600-11020	Pstat Section
PSTATSERIALNO	LABEL	11020	Pstat Serial Number
CTRLMODE	IQUANT	1	Control Mode
IESTAB	IQUANT	0	I/E Stability
CASPEED	IQUANT	1	Control Amp Speed
CONVENTION	IQUANT	1	Current Convention
ICHRANGE	IQUANT	2	Ich Range
ICHRANGEMODE	TOGGLE	F	Ich Auto Range
ICHOFFSETENABLE	TOGGLE	T	Ich Offset Enable
ICHOFFSET	QUANT	0	Ich Offset (V)
ICHFILTER	IQUANT	3	Ich Filter
VCHRANGE	IQUANT	2	Vch Range
VCHRANGEMODE	TOGGLE	F	Vch Auto Range
VCHOFFSETENABLE	TOGGLE	T	Vch Offset Enable
VCHOFFSET	QUANT	0	Vch Offset (V)
VCHFILTER	IQUANT	3	Vch Filter
ACHRANGE	IQUANT	2	Ach Range
ACHOFFSETENABLE	TOGGLE	F	Ach Offset Enable
ACHOFFSET	QUANT	0	Ach Offset (V)
ACHFILTER	IQUANT	3	Ach Filter
IERANGELOWERLIMIT	IQUANT	1	I/E Range Lower Limit
IERANGEMODE	TOGGLE	F	I/E AutoRange
IERANGE	IQUANT	6	I/E Range
POSFEEDENABLE	TOGGLE	F	Positive Feedback IR Comp
POSFEEDRESISTANCE	QUANT	0	Positive Feedback Resistance (ohm)
ACHSELECT	IQUANT	0	Ach Select
CABLEID	IQUANT	14	Cable ID
DCCALDATE	LABEL	8/19/2019	DC Calibration Date
ACCALDATE	LABEL	8/19/2019	AC Calibration Date
THERMOSELECT	IQUANT	1	Thermo Select
FRAMEWORKVERSION	QUANT	6.33	Framework Version
INSTRUMENTVERSION	LABEL	3.50	Instrument Version
ZCURVE	TABLE
	Pt	Time	Freq	Zreal	Zimag	Zsig	Zmod	Zphz	Idc	Vdc	IERange
	#	s	Hz	ohm	ohm	V	ohm	°	A	V	#
	0	2	1000078	2302.551	-1635.391	1	2824.225	-35.38434	6.610447E-006	0.007025	8
	1	3	794390.6	2622.247	-1566.975	1	3054.765	-30.86126	-5.890405E-006	0.0084174	8
	2	5	630984.4	2929.244	-1440.419	1	3264.242	-26.18507	2.861459E-006	0.0072328	8
	3	6	501234.4	3176.401	-1294.07	1	3429.889	-22.16604	3.673897E-006	0.0066655	8
	4	7	398109.4	3363.336	-1131.774	1	3548.653	-18.59826	-5.923824E-007	0.0073506	8
	5	9	316265.6	3513.925	-986.969	1	3649.901	-15.68865	-1.039578E-006	0.0075503	8
	6	10	251203.1	3615.451	-852.5873	1	3714.618	-13.26894	1.331475E-006	0.0070665	8
	7	12	199546.9	3699.804	-732.597	1	3771.637	-11.20024	-4.655753E-007	0.007482	8
	8	13	158578.1	3754.316	-624.7442	1	3805.942	-9.447841	3.664598E-006	0.0066294	8
	9	14	125953.1	3832.738	-512.1827	1	3866.809	-7.611548	2.571731E-007	0.0067285	7
	10	16	100078.1	3859.422	-448.5843	1	3885.404	-6.629796	7.468282E-008	0.0071386	7
	11	17	79453.13	3890.109	-414.6023	1	3912.141	-6.083538	1.254397E-007	0.0070943	7
	12	18	63140.62	3921.38	-389.9281	1	3940.719	-5.678622	-3.661668E-008	0.0073012	7
	13	20	50203.12	3952.112	-377.144	1	3970.066	-5.451142	-7.123864E-008	0.0073957	7
	14	21	39890.62	3980.939	-375.5663	1	3998.616	-5.389398	-1.68015E-008	0.0074158	7
	15	22	31640.63	4012.806	-381.5011	1	4030.9	-5.43084	-3.536814E-008	0.0073043	7
	16	24	25171.88	4043.765	-399.0986	1	4063.412	-5.636542	-3.947959E-008	0.0073034	7
	17	25	20015.62	4092.393	-424.6559	1	4114.366	-5.924217	-4.330045E-008	0.007369	7
	18	26	15890.62	4115.797	-462.1737	1	4141.665	-6.407054	7.504382E-008	0.0072413	7
	19	28	12609.37	4155.122	-510.1945	1	4186.327	-7.000132	-4.53265E-009	0.0073173	7
	20	29	10078.13	4194.853	-568.1152	1	4233.148	-7.712726	4.038127E-008	0.0071556	7
	21	30	8015.625	4236.365	-644.8186	1	4285.158	-8.654583	7.80536E-008	0.007238	7
	22	32	6328.125	4289.979	-739.5229	1	4353.253	-9.78074	1.27947E-008	0.0072096	7
	23	33	5015.625	4341.59	-857.0099	1	4425.367	-11.16637	-1.364015E-008	0.0074089	7
	24	34	3984.375	4378.234	-1009.647	1	4493.141	-12.98574	-3.829418E-009	0.0073174	7
	25	36	3170.956	4452.426	-1173.126	1	4604.381	-14.76083	4.045627E-008	0.0071497	7
	26	37	2527.573	4513.668	-1388.518	1	4722.413	-17.09922	-1.460905E-008	0.0074063	7
	27	38	1976.103	4583.851	-1678.807	1	4881.606	-20.11494	-4.66306E-008	0.0074213	7
	28	40	1577.524	4634.888	-2045.81	1	5066.313	-23.81636	-3.885138E-008	0.0073006	7
	29	41	1265.625	4745.333	-2412.637	1	5323.439	-26.94984	-3.635419E-008	0.0072964	7
	30	42	998.264	4844.607	-2947.517	1	5670.809	-31.31683	-1.604812E-008	0.0074112	7
	31	44	796.875	4960.069	-3572.547	1	6112.722	-35.76376	-3.726994E-008	0.0073018	7
	32	45	627.7902	5104.542	-4399.032	1	6738.533	-40.75437	-6.530496E-009	0.0072944	7
	33	47	505.5147	5268.13	-5323.248	1	7489.336	-45.29817	7.637945E-008	0.0071146	7
	34	48	397.9953	5487.659	-6585.176	1	8571.986	-50.19436	4.549251E-009	0.0072847	7
	35	49	315.5048	5758.516	-8099.869	1	9938.23	-54.58948	5.841972E-009	0.0072817	7
	36	51	252.4038	6089.454	-9887.26	1	11612.03	-58.37154	1.416273E-009	0.0072197	6
	37	52	198.6229	6538.067	-12249.8	1	13885.39	-61.9099	1.095393E-009	0.0072245	6
	38	53	158.3615	7090.654	-14998.86	1	16590.45	-64.69773	6.533309E-010	0.0072218	6
	39	55	125.558	7810.645	-18442.15	1	20027.96	-67.0463	1.028029E-009	0.0072242	6
	40	56	100.4464	8715.833	-22467.85	1	24099.17	-68.7975	-1.217886E-011	0.0072227	6
	41	57	79.00281	9982.48	-27730.3	1	29472.35	-70.2019	6.491203E-010	0.0072185	6
	42	59	63.3446	11195.7	-33629.51	1	35444.14	-71.58673	8.254938E-010	0.0072184	6
	43	60	49.86702	13834.05	-41414.38	1	43663.85	-71.52863	2.602665E-010	0.0072159	6
	44	62	39.72458	16313.02	-50503.61	1	53072.87	-72.09918	5.886309E-010	0.0072197	6
	45	63	31.6723	19793.13	-61093.35	1	64219.67	-72.04862	7.166859E-010	0.0072208	6
	46	64	24.93351	24357.2	-74673.32	1	78545.38	-71.93453	6.456087E-010	0.0072207	6
	47	66	19.86229	30244.56	-90098.69	1	95039.5	-71.44399	4.331196E-010	0.0072167	6
	48	67	15.83615	36460.38	-107771.9	1	113772.3	-71.30877	-7.417256E-010	0.0072244	5
	49	68	12.40079	48099.52	-130412.9	1	139000.3	-69.75478	1.378013E-009	0.0072207	5
	50	70	9.93114	59677.5	-155749	1	166790.8	-69.03494	6.078252E-010	0.0072232	5
	51	71	7.944915	73421.18	-183747.4	1	197873.1	-68.2195	-4.288223E-010	0.0072272	5
	52	73	6.317385	93168.26	-217271.3	1	236404.6	-66.78983	-2.000021E-010	0.0072339	5
	53	75	5.008013	117168.7	-255829.6	1	281384.6	-65.39246	1.812409E-010	0.0072294	5
	54	78	3.945707	146504.4	-300654.4	1	334449.7	-64.02071	2.770811E-010	0.0072269	5
	55	80	3.158693	180064	-347242.4	1	391152.6	-62.59081	1.465853E-010	0.007241	5
	56	84	2.504006	220877.7	-401861.8	1	458562.8	-61.20522	8.047766E-012	0.0072199	5
	57	86	1.998082	266588.8	-460380.3	1	531995.9	-59.9265	-1.926681E-010	0.007226	5
	58	89	1.584686	321801.7	-525064.2	1	615831.8	-58.49668	2.833926E-011	0.0072715	5
	59	93	1.266892	379334.8	-596854.1	1	707198.5	-57.56172	-1.506626E-010	0.0072016	5
	60	97	0.999041	448178.7	-680199.9	1	814577.3	-56.61941	2.255873E-010	0.0072634	5
