EXPLAIN
TAG	EISPOT
TITLE	LABEL	Potentiostatic EIS	Test &Identifier
DATE	LABEL	9/26/2019	Date
TIME	LABEL	11:10:01	Time
NOTES	NOTES	2	&Notes...
	
	
PSTAT	PSTAT	REF600-11020	Potentiostat
VDC	POTEN	0.00000E+000	T	DC &Voltage (V)
FREQINIT	QUANT	1.00000E+006	Initial Fre&q. (Hz)
FREQFINAL	QUANT	1.00000E+000	Final Fre&q. (Hz)
PTSPERDEC	QUANT	1.00000E+001	Points/&decade
VAC	QUANT	2.50000E+001	AC &Voltage (mV rms)
AREA	QUANT	1.00000E-002	&Area (cm^2)
CONDIT	TWOPARAM	T	5.00000E+000	0.00000E+000	Conditionin&g	Time(s)	E(V)
DELAY	TWOPARAM	T	5.00000E+000	0.00000E+000	Init. De&lay	Time(s)	Stab.(mV/s)
SPEED	SELECTOR	1	&Optimize for:
ZGUESS	QUANT	1.00000E+004	E&stimated Z (ohms)
OCVCURVE	TABLE	19
	Pt	T	Vf	Vm	Ach	Over
	#	s	V vs. Ref.	V	V	bits
	0	0.258333	3.67553E-002	3.67553E-002	5.58533E-004	...........
	1	0.516667	3.68143E-002	3.98433E-002	5.57799E-004	...........
	2	0.775	3.71755E-002	4.27128E-002	5.56366E-004	...........
	3	1.03333	3.81918E-002	4.53815E-002	5.57432E-004	...........
	4	1.29167	3.99952E-002	4.78940E-002	5.57999E-004	...........
	5	1.55	4.23655E-002	5.02587E-002	5.58432E-004	...........
	6	1.80833	4.49562E-002	5.24954E-002	5.60466E-004	...........
	7	2.06667	4.75195E-002	5.46207E-002	5.56966E-004	...........
	8	2.325	4.99502E-002	5.66443E-002	5.62632E-004	...........
	9	2.58333	5.22317E-002	5.85498E-002	5.63299E-004	...........
	10	2.84167	5.43787E-002	6.03584E-002	5.63566E-004	...........
	11	3.1	5.64078E-002	6.20940E-002	5.58266E-004	...........
	12	3.35833	5.83315E-002	6.37600E-002	5.64066E-004	...........
	13	3.61667	6.01613E-002	6.53466E-002	5.64399E-004	...........
	14	3.875	6.19073E-002	6.68784E-002	5.61999E-004	...........
	15	4.13333	6.35776E-002	6.83405E-002	5.59832E-004	...........
	16	4.39167	6.51784E-002	6.97867E-002	5.63932E-004	...........
	17	4.65	6.67166E-002	7.11349E-002	5.66132E-004	...........
	18	4.90833	6.81967E-002	7.24161E-002	5.60532E-004	...........
EOC	QUANT	0.0681967	Open Circuit (V)
PSTATMODEL	IQUANT	4	Pstat Model
PSTATSECTION	LABEL	REF600-11020	Pstat Section
PSTATSERIALNO	LABEL	11020	Pstat Serial Number
CTRLMODE	IQUANT	1	Control Mode
IESTAB	IQUANT	0	I/E Stability
CASPEED	IQUANT	1	Control Amp Speed
CONVENTION	IQUANT	1	Current Convention
ICHRANGE	IQUANT	2	Ich Range
ICHRANGEMODE	TOGGLE	F	Ich Auto Range
ICHOFFSETENABLE	TOGGLE	T	Ich Offset Enable
ICHOFFSET	QUANT	0	Ich Offset (V)
ICHFILTER	IQUANT	3	Ich Filter
VCHRANGE	IQUANT	2	Vch Range
VCHRANGEMODE	TOGGLE	F	Vch Auto Range
VCHOFFSETENABLE	TOGGLE	T	Vch Offset Enable
VCHOFFSET	QUANT	0	Vch Offset (V)
VCHFILTER	IQUANT	3	Vch Filter
ACHRANGE	IQUANT	2	Ach Range
ACHOFFSETENABLE	TOGGLE	F	Ach Offset Enable
ACHOFFSET	QUANT	0	Ach Offset (V)
ACHFILTER	IQUANT	3	Ach Filter
IERANGELOWERLIMIT	IQUANT	1	I/E Range Lower Limit
IERANGEMODE	TOGGLE	F	I/E AutoRange
IERANGE	IQUANT	7	I/E Range
POSFEEDENABLE	TOGGLE	F	Positive Feedback IR Comp
POSFEEDRESISTANCE	QUANT	0	Positive Feedback Resistance (ohm)
ACHSELECT	IQUANT	0	Ach Select
CABLEID	IQUANT	14	Cable ID
DCCALDATE	LABEL	8/19/2019	DC Calibration Date
ACCALDATE	LABEL	8/19/2019	AC Calibration Date
THERMOSELECT	IQUANT	1	Thermo Select
FRAMEWORKVERSION	QUANT	6.33	Framework Version
INSTRUMENTVERSION	LABEL	3.50	Instrument Version
ZCURVE	TABLE
	Pt	Time	Freq	Zreal	Zimag	Zsig	Zmod	Zphz	Idc	Vdc	IERange
	#	s	Hz	ohm	ohm	V	ohm	°	A	V	#
	0	1	1000078	1632.135	-2502.167	1	2987.424	-56.88405	5.458995E-006	0.0697363	8
	1	3	794390.6	1964.141	-2870.326	1	3478.02	-55.61647	-2.059003E-006	0.0704365	8
	2	4	630984.4	2323.328	-3293.653	1	4030.633	-54.80103	-7.80602E-007	0.0704903	8
	3	6	501234.4	2805.274	-3785.594	1	4711.718	-53.46009	2.100781E-006	0.0695397	8
	4	8	398109.4	3415.567	-4254.077	1	5455.572	-51.23928	-4.869703E-006	0.0709117	8
	5	9	316265.6	4089.061	-4752.911	1	6269.815	-49.29368	2.101518E-006	0.0694587	8
	6	11	251203.1	4975.68	-5175.433	1	7179.311	-46.12732	1.404762E-006	0.0694223	8
	7	12	199546.9	5917.338	-5621.348	1	8161.767	-43.53057	-2.308756E-006	0.0702688	8
	8	14	158578.1	7050.083	-6017.828	1	9269.192	-40.48349	-3.083243E-006	0.0702479	8
	9	16	125953.1	8310.703	-5914.556	1	10200.48	-35.43867	5.573432E-007	0.0680356	7
	10	18	100078.1	9446.853	-5849.021	1	11110.99	-31.76373	4.995919E-008	0.0696542	7
	11	19	79453.13	10503.38	-5634.383	1	11919.2	-28.21068	-2.806533E-008	0.0698878	7
	12	21	63140.62	11475.36	-5274.533	1	12629.51	-24.6854	5.396413E-008	0.0697277	7
	13	22	50203.12	12285.78	-4854.5	1	13210.09	-21.56054	-4.812853E-008	0.0698927	7
	14	24	39890.62	13003.75	-4418.021	1	13733.77	-18.76518	-2.971337E-008	0.0698803	7
	15	26	31640.63	13639.85	-3956.179	1	14202	-16.17457	9.456443E-008	0.0695986	7
	16	27	25171.88	14106.23	-3527.336	1	14540.56	-14.03922	-3.700224E-008	0.0697904	7
	17	29	20015.62	14507.69	-3121.863	1	14839.78	-12.14411	-3.396722E-008	0.0697794	7
	18	30	15890.62	14886.28	-2782.544	1	15144.1	-10.58755	-2.594903E-009	0.0699253	7
	19	32	12609.37	15244.34	-2258.769	1	15410.77	-8.42825	-7.363402E-009	0.0697669	6
	20	34	10078.13	15458.43	-2042.327	1	15592.76	-7.526181	2.027775E-008	0.0693673	6
	21	35	8015.625	15618.03	-1837.983	1	15725.8	-6.711895	4.290881E-009	0.069511	6
	22	37	6328.125	15766.59	-1689.283	1	15856.83	-6.115525	-5.386201E-009	0.069716	6
	23	38	5015.625	15891.74	-1582.17	1	15970.31	-5.685589	3.902481E-009	0.0695098	6
	24	40	3984.375	15993.37	-1529.305	1	16066.32	-5.462081	8.675974E-009	0.069533	6
	25	42	3170.956	16081.11	-1528.145	1	16153.56	-5.428362	4.555212E-009	0.0697508	6
	26	43	2527.573	16164.69	-1572.656	1	16241.01	-5.556793	1.021968E-008	0.0696903	6
	27	45	1976.103	16222.42	-1680.245	1	16309.2	-5.913353	-3.199674E-009	0.069617	6
	28	46	1577.524	16314.08	-1856.786	1	16419.4	-6.493174	-8.501586E-010	0.0697017	6
	29	48	1265.625	16364.06	-2071.295	1	16494.62	-7.213902	5.154588E-009	0.0695086	6
	30	50	998.264	16474.46	-2427.74	1	16652.38	-8.382995	7.857945E-009	0.0695273	6
	31	51	796.875	16573.88	-2851.478	1	16817.38	-9.76197	-4.779482E-009	0.069716	6
	32	52	627.7902	16698.87	-3419.481	1	17045.38	-11.57266	-8.905282E-009	0.069896	6
	33	54	505.5147	16835.59	-4065.274	1	17319.46	-13.57529	-2.984879E-009	0.0696282	6
	34	55	397.9953	17031.25	-4954.462	1	17737.25	-16.21994	6.890717E-012	0.0697465	6
	35	56	315.5048	17273.15	-6018.003	1	18291.47	-19.20845	1.493274E-009	0.0697488	6
	36	58	252.4038	17576.32	-7263.734	1	19018.12	-22.45375	-2.622218E-010	0.0697425	6
	37	59	198.6229	17992.62	-8899.494	1	20073.25	-26.31788	-1.449493E-012	0.0697401	6
	38	61	158.3615	18501.25	-10776.18	1	21410.8	-30.21895	-7.307932E-010	0.0697337	6
	39	62	125.558	19184.31	-13090.67	1	23225.05	-34.30819	-3.890056E-010	0.06974	6
	40	64	100.4464	20032.56	-15748.74	1	25481.88	-38.17292	-4.595641E-010	0.0697394	6
	41	65	79.00281	21237.63	-19148.94	1	28595.78	-42.03946	-2.425268E-010	0.0697327	6
	42	67	63.3446	22691.92	-23187.21	1	32443.33	-45.61852	-3.501194E-010	0.0697383	6
	43	68	49.86702	24588.17	-27756.6	1	37081.09	-48.46389	-8.433891E-010	0.0697345	6
	44	70	39.72458	27051.45	-33076.79	1	42730.03	-50.7224	-1.302042E-009	0.0697386	6
	45	71	31.6723	30092.13	-39240.92	1	49450.84	-52.517	-1.393737E-009	0.0697391	6
	46	73	24.93351	33870.57	-46747.14	1	57727.91	-54.07485	-1.160382E-009	0.0697421	6
	47	74	19.86229	38304.32	-54818.72	1	66875.36	-55.05626	3.727828E-010	0.0697343	6
	48	76	15.83615	43809.39	-63678.35	1	77292.91	-55.47283	-1.132114E-009	0.0697318	6
	49	77	12.40079	50009.4	-75409.29	1	90484.81	-56.44874	-1.131623E-009	0.0697437	6
	50	79	9.93114	57031.77	-87574.82	1	104508.2	-56.92642	-1.022424E-009	0.0697477	5
	51	80	7.944915	64199.91	-101619.2	1	120200.2	-57.71655	-1.212493E-009	0.0697466	5
	52	82	6.317385	73041.3	-118535.2	1	139232.3	-58.35866	-8.029077E-010	0.069729	5
	53	84	5.008013	82986.37	-139124.3	1	161994.8	-59.18432	-6.920164E-010	0.0697383	5
	54	87	3.945707	94306.34	-164431.5	1	189555.8	-60.16446	-8.84673E-010	0.0697341	5
	55	89	3.158693	106870.5	-192910.6	1	220535.3	-61.01399	-7.502409E-010	0.0697374	5
	56	93	2.504006	122294.3	-228731.7	1	259372.5	-61.86824	-1.400859E-009	0.0697407	5
	57	95	1.998082	140368.1	-270237.6	1	304518.6	-62.55152	-1.047448E-009	0.0696944	5
	58	98	1.584686	162609.1	-320731.3	1	359597.4	-63.11523	-1.554311E-009	0.0697633	5
	59	102	1.266892	189295.6	-380139.4	1	424663.2	-63.52837	-1.541142E-009	0.0697074	5
	60	106	0.999041	224549.9	-453627.7	1	506162.8	-63.66417	-1.186771E-009	0.0697738	5
