EXPLAIN
TAG	EISPOT
TITLE	LABEL	Potentiostatic EIS	Test &Identifier
DATE	LABEL	10/14/2019	Date
TIME	LABEL	11:22:18	Time
NOTES	NOTES	1	&Notes...
	
PSTAT	PSTAT	REF600-11020	Potentiostat
VDC	POTEN	0.00000E+000	T	DC &Voltage (V)
FREQINIT	QUANT	1.00000E+006	Initial Fre&q. (Hz)
FREQFINAL	QUANT	1.00000E+000	Final Fre&q. (Hz)
PTSPERDEC	QUANT	1.00000E+001	Points/&decade
VAC	QUANT	2.50000E+001	AC &Voltage (mV rms)
AREA	QUANT	1.00000E-002	&Area (cm^2)
CONDIT	TWOPARAM	T	5.00000E+000	0.00000E+000	Conditionin&g	Time(s)	E(V)
DELAY	TWOPARAM	T	5.00000E+000	0.00000E+000	Init. De&lay	Time(s)	Stab.(mV/s)
SPEED	SELECTOR	1	&Optimize for:
ZGUESS	QUANT	1.00000E+004	E&stimated Z (ohms)
OCVCURVE	TABLE	19
	Pt	T	Vf	Vm	Ach	Over
	#	s	V vs. Ref.	V	V	bits
	0	0.258333	2.47388E-003	2.47388E-003	5.70666E-004	...........
	1	0.516667	2.46670E-003	2.09774E-003	5.66199E-004	...........
	2	0.775	2.42306E-003	1.76658E-003	5.69899E-004	...........
	3	1.03333	2.30129E-003	1.45267E-003	5.69966E-004	...........
	4	1.29167	2.08753E-003	1.18573E-003	5.71432E-004	...........
	5	1.55	1.81122E-003	9.48529E-004	5.70632E-004	...........
	6	1.80833	1.51735E-003	7.19225E-004	5.72632E-004	...........
	7	2.06667	1.23709E-003	5.07033E-004	5.73099E-004	...........
	8	2.325	9.81159E-004	3.11262E-004	5.63699E-004	...........
	9	2.58333	7.48127E-004	1.22684E-004	5.60866E-004	...........
	10	2.84167	5.33559E-004	-4.74664E-005	5.64832E-004	...........
	11	3.1	3.33960E-004	-2.12943E-004	5.61266E-004	...........
	12	3.35833	1.47239E-004	-3.66272E-004	5.59899E-004	...........
	13	3.61667	-2.80132E-005	-5.13563E-004	5.60032E-004	...........
	14	3.875	-1.92978E-004	-6.49571E-004	5.66899E-004	...........
	15	4.13333	-3.48586E-004	-7.82579E-004	5.67766E-004	...........
	16	4.39167	-4.95758E-004	-9.13780E-004	5.65832E-004	...........
	17	4.65	-6.35725E-004	-1.03295E-003	5.68332E-004	...........
	18	4.90833	-7.69560E-004	-1.14971E-003	5.67132E-004	...........
EOC	QUANT	-0.0007696	Open Circuit (V)
PSTATMODEL	IQUANT	4	Pstat Model
PSTATSECTION	LABEL	REF600-11020	Pstat Section
PSTATSERIALNO	LABEL	11020	Pstat Serial Number
CTRLMODE	IQUANT	1	Control Mode
IESTAB	IQUANT	0	I/E Stability
CASPEED	IQUANT	1	Control Amp Speed
CONVENTION	IQUANT	1	Current Convention
ICHRANGE	IQUANT	2	Ich Range
ICHRANGEMODE	TOGGLE	F	Ich Auto Range
ICHOFFSETENABLE	TOGGLE	T	Ich Offset Enable
ICHOFFSET	QUANT	0	Ich Offset (V)
ICHFILTER	IQUANT	3	Ich Filter
VCHRANGE	IQUANT	2	Vch Range
VCHRANGEMODE	TOGGLE	F	Vch Auto Range
VCHOFFSETENABLE	TOGGLE	T	Vch Offset Enable
VCHOFFSET	QUANT	0	Vch Offset (V)
VCHFILTER	IQUANT	3	Vch Filter
ACHRANGE	IQUANT	2	Ach Range
ACHOFFSETENABLE	TOGGLE	F	Ach Offset Enable
ACHOFFSET	QUANT	0	Ach Offset (V)
ACHFILTER	IQUANT	3	Ach Filter
IERANGELOWERLIMIT	IQUANT	1	I/E Range Lower Limit
IERANGEMODE	TOGGLE	F	I/E AutoRange
IERANGE	IQUANT	5	I/E Range
POSFEEDENABLE	TOGGLE	F	Positive Feedback IR Comp
POSFEEDRESISTANCE	QUANT	0	Positive Feedback Resistance (ohm)
ACHSELECT	IQUANT	0	Ach Select
CABLEID	IQUANT	14	Cable ID
DCCALDATE	LABEL	8/19/2019	DC Calibration Date
ACCALDATE	LABEL	8/19/2019	AC Calibration Date
THERMOSELECT	IQUANT	1	Thermo Select
FRAMEWORKVERSION	QUANT	6.33	Framework Version
INSTRUMENTVERSION	LABEL	3.50	Instrument Version
ZCURVE	TABLE
	Pt	Time	Freq	Zreal	Zimag	Zsig	Zmod	Zphz	Idc	Vdc	IERange
	#	s	Hz	ohm	ohm	V	ohm	°	A	V	#
	0	2	1000078	2670.937	-1688.48	1	3159.885	-32.29975	8.183184E-006	0.000341	8
	1	3	794390.6	3004.028	-1606.283	1	3406.513	-28.13386	-8.942906E-006	0.0025487	8
	2	5	630984.4	3313.324	-1434.116	1	3610.375	-23.40456	-1.533281E-006	0.0014884	8
	3	6	501234.4	3517.168	-1271.721	1	3740.019	-19.87874	-3.034501E-006	0.0015977	8
	4	8	398109.4	3683.614	-1103.468	1	3845.341	-16.67618	-1.256947E-007	0.0008421	8
	5	9	316265.6	3811.915	-953.699	1	3929.407	-14.04644	-6.035273E-007	0.000845	8
	6	10	251203.1	3915.459	-813.565	1	3999.089	-11.73805	1.477517E-006	0.0003379	8
	7	12	199546.9	3975.05	-701.6953	1	4036.508	-10.011	9.190263E-007	0.0006207	8
	8	13	158578.1	4026.125	-606.9938	1	4071.624	-8.573559	3.108111E-006	0.0001761	8
	9	14	125953.1	4113.883	-492.1071	1	4143.212	-6.821369	-5.113893E-007	0.0019408	7
	10	16	100078.1	4136.001	-436.3317	1	4158.953	-6.022202	-3.891078E-008	0.0007919	7
	11	17	79453.13	4167.639	-404.8233	1	4187.254	-5.548017	6.712712E-008	0.0006546	7
	12	18	63140.62	4199.906	-384.431	1	4217.463	-5.229895	-2.087394E-008	0.0008213	7
	13	20	50203.12	4229.063	-373.0958	1	4245.489	-5.041687	9.118975E-008	0.0007007	7
	14	21	39890.62	4258.373	-372.6803	1	4274.65	-5.001615	-6.080906E-008	0.0009354	7
	15	22	31640.63	4288.796	-381.8447	1	4305.761	-5.087804	9.254465E-008	0.0006963	7
	16	24	25171.88	4318.905	-400.13	1	4337.4	-5.293126	-2.896409E-008	0.0007514	7
	17	25	20015.62	4353.599	-431.7349	1	4374.953	-5.663354	9.321505E-008	0.0006876	7
	18	26	15890.62	4386.772	-470.4972	1	4411.931	-6.121778	-2.072957E-009	0.0008758	7
	19	28	12609.37	4423.954	-522.958	1	4454.756	-6.741679	4.706808E-008	0.0007001	7
	20	29	10078.13	4462.775	-587.6678	1	4501.302	-7.501669	1.019122E-008	0.0006943	7
	21	31	8015.625	4508.132	-669.7144	1	4557.606	-8.449887	-6.332662E-008	0.000859	7
	22	32	6328.125	4555.296	-776.8098	1	4621.056	-9.6775	-5.930108E-008	0.0008171	7
	23	33	5015.625	4608.243	-905.5918	1	4696.381	-11.11784	-4.806671E-008	0.0008103	7
	24	35	3984.375	4663.136	-1065.706	1	4783.363	-12.87321	4.956219E-008	0.0006998	7
	25	36	3170.956	4728.855	-1256.16	1	4892.853	-14.87634	-4.360363E-008	0.0008039	7
	26	37	2527.573	4801.995	-1489.506	1	5027.701	-17.2331	8.85691E-008	0.0005795	7
	27	39	1976.103	4891.297	-1804.979	1	5213.707	-20.255	-5.449729E-008	0.0008041	7
	28	40	1577.524	4993.271	-2158.321	1	5439.771	-23.37622	-2.832652E-008	0.0008344	7
	29	41	1265.625	5099.665	-2577.163	1	5713.874	-26.81018	8.745175E-008	0.0005671	7
	30	43	998.264	5241.216	-3132.219	1	6105.828	-30.86309	1.37511E-007	0.0005477	7
	31	44	796.875	5397.985	-3770.465	1	6584.424	-34.9341	-5.4938E-008	0.0007964	7
	32	45	627.7902	5597.542	-4599.583	1	7244.904	-39.41045	1.740584E-009	0.0006914	7
	33	47	505.5147	5807.229	-5514.344	1	8008.24	-43.51811	-3.33591E-008	0.0007465	7
	34	48	397.9953	6090.415	-6752.203	1	9093.151	-47.94987	6.02237E-009	0.0007574	7
	35	49	315.5048	6422.436	-8232.865	1	10441.64	-52.0423	1.86437E-009	0.0007012	6
	36	51	252.4038	6808.932	-9975.95	1	12078.13	-55.68511	1.607704E-009	0.0006977	6
	37	52	198.6229	7324.04	-12276.99	1	14295.67	-59.18112	6.48062E-010	0.000702	6
	38	53	158.3615	7943.744	-14952.79	1	16931.9	-62.02031	1.327968E-009	0.0006977	6
	39	55	125.558	8749.651	-18306.56	1	20290.06	-64.45445	1.698418E-009	0.0006954	6
	40	56	100.4464	9768.1	-22258.66	1	24307.69	-66.30597	1.215879E-009	0.0006955	6
	41	57	79.00281	11185.76	-27425.92	1	29619.29	-67.81174	1.461723E-009	0.0006958	6
	42	59	63.3446	13162.97	-33264.9	1	35774.54	-68.41122	7.983054E-010	0.000698	6
	43	60	49.86702	15248.59	-40622.27	1	43389.95	-69.4251	1.379942E-009	0.0006888	6
	44	62	39.72458	18552.92	-48961.48	1	52358.74	-69.24686	7.536912E-010	0.0006975	6
	45	63	31.6723	22519.81	-58988.2	1	63140.71	-69.10474	2.918554E-010	0.0006872	6
	46	64	24.93351	28159.32	-71170.21	1	76538.53	-68.41319	8.422258E-010	0.0006885	6
	47	66	19.86229	34884.3	-84536.69	1	91451.45	-67.57637	1.313506E-009	0.0006922	6
	48	67	15.83615	43053.16	-99124	1	108070.1	-66.52293	1.148699E-009	0.0006937	5
	49	68	12.40079	54463.23	-119100.5	1	130962.5	-65.42594	-7.657918E-010	0.0006944	5
	50	70	9.93114	65208.3	-138739.3	1	153299.4	-64.82619	3.749001E-010	0.0006995	5
	51	71	7.944915	79140.3	-160350.7	1	178817	-63.73158	1.16533E-009	0.0006978	5
	52	73	6.317385	95556.1	-187179	1	210159.3	-62.95538	5.367657E-010	0.000704	5
	53	75	5.008013	114616.6	-217762.4	1	246084.1	-62.24047	5.218974E-010	0.0007067	5
	54	78	3.945707	137263	-254313.6	1	288992.3	-61.64252	8.033216E-011	0.0006906	5
	55	80	3.158693	161263.7	-293764.9	1	335117.6	-61.2352	4.084699E-010	0.0007105	5
	56	84	2.504006	190730.8	-341841.3	1	391450.8	-60.84061	-1.115291E-010	0.0006914	5
	57	86	1.998082	223349.4	-394929.7	1	453711.8	-60.51001	1.831871E-010	0.0006462	5
	58	89	1.584686	260850.7	-458672.6	1	527658.6	-60.37277	8.074006E-011	0.0006902	5
	59	93	1.266892	304467.6	-530432.7	1	611603.9	-60.14424	1.865642E-010	0.0006515	5
	60	97	0.999041	356526.3	-619596.4	1	714850.2	-60.08315	1.545075E-010	0.0007386	5
