EXPLAIN
TAG	EISPOT
TITLE	LABEL	Potentiostatic EIS	Test &Identifier
DATE	LABEL	8/14/2018	Date
TIME	LABEL	5:33:43	Time
NOTES	NOTES	1	&Notes...
	
PSTAT	PSTAT	REF600-11020	Potentiostat
VDC	POTEN	0.00000E+000	T	DC &Voltage (V)
FREQINIT	QUANT	1.00000E+006	Initial Fre&q. (Hz)
FREQFINAL	QUANT	1.00000E+000	Final Fre&q. (Hz)
PTSPERDEC	QUANT	1.00000E+001	Points/&decade
VAC	QUANT	2.50000E+001	AC &Voltage (mV rms)
AREA	QUANT	1.00000E-002	&Area (cm^2)
CONDIT	TWOPARAM	T	5.00000E+000	0.00000E+000	Conditionin&g	Time(s)	E(V)
DELAY	TWOPARAM	T	5.00000E+000	0.00000E+000	Init. De&lay	Time(s)	Stab.(mV/s)
SPEED	SELECTOR	0	&Optimize for:
ZGUESS	QUANT	1.00000E+005	E&stimated Z (ohms)
OCVCURVE	TABLE	19
	Pt	T	Vf	Vm	Ach	Over
	#	s	V vs. Ref.	V	V	bits
	0	0.258333	2.68963E-002	2.68963E-002	5.89965E-004	...........
	1	0.516667	2.69285E-002	2.85815E-002	5.86032E-004	...........
	2	0.775	2.71283E-002	3.02909E-002	5.93432E-004	...........
	3	1.03333	2.77036E-002	3.20822E-002	5.94899E-004	...........
	4	1.29167	2.87553E-002	3.35968E-002	5.92599E-004	...........
	5	1.55	3.01824E-002	3.51790E-002	5.87332E-004	...........
	6	1.80833	3.17846E-002	3.65417E-002	5.93665E-004	...........
	7	2.06667	3.34011E-002	3.80692E-002	5.97732E-004	...........
	8	2.325	3.49602E-002	3.94132E-002	5.88899E-004	...........
	9	2.58333	3.64546E-002	4.08078E-002	5.88165E-004	...........
	10	2.84167	3.78973E-002	4.21022E-002	5.88199E-004	...........
	11	3.1	3.92988E-002	4.34669E-002	5.94165E-004	...........
	12	3.35833	4.06669E-002	4.47260E-002	5.90632E-004	...........
	13	3.61667	4.20062E-002	4.59076E-002	5.92532E-004	...........
	14	3.875	4.33157E-002	4.72658E-002	5.98432E-004	...........
	15	4.13333	4.45950E-002	4.82983E-002	5.98665E-004	...........
	16	4.39167	4.58457E-002	4.95808E-002	5.92832E-004	...........
	17	4.65	4.70692E-002	5.07682E-002	5.89399E-004	...........
	18	4.90833	4.82696E-002	5.17053E-002	5.96399E-004	...........
EOC	QUANT	0.0482696	Open Circuit (V)
PSTATMODEL	IQUANT	4	Pstat Model
PSTATSECTION	LABEL	REF600-11020	Pstat Section
PSTATSERIALNO	LABEL	11020	Pstat Serial Number
CTRLMODE	IQUANT	1	Control Mode
IESTAB	IQUANT	0	I/E Stability
CASPEED	IQUANT	1	Control Amp Speed
CONVENTION	IQUANT	1	Current Convention
ICHRANGE	IQUANT	2	Ich Range
ICHRANGEMODE	TOGGLE	F	Ich Auto Range
ICHOFFSETENABLE	TOGGLE	T	Ich Offset Enable
ICHOFFSET	QUANT	0	Ich Offset (V)
ICHFILTER	IQUANT	3	Ich Filter
VCHRANGE	IQUANT	2	Vch Range
VCHRANGEMODE	TOGGLE	F	Vch Auto Range
VCHOFFSETENABLE	TOGGLE	T	Vch Offset Enable
VCHOFFSET	QUANT	0	Vch Offset (V)
VCHFILTER	IQUANT	3	Vch Filter
ACHRANGE	IQUANT	2	Ach Range
ACHOFFSETENABLE	TOGGLE	F	Ach Offset Enable
ACHOFFSET	QUANT	0	Ach Offset (V)
ACHFILTER	IQUANT	3	Ach Filter
IERANGELOWERLIMIT	IQUANT	1	I/E Range Lower Limit
IERANGEMODE	TOGGLE	F	I/E AutoRange
IERANGE	IQUANT	5	I/E Range
POSFEEDENABLE	TOGGLE	F	Positive Feedback IR Comp
POSFEEDRESISTANCE	QUANT	0	Positive Feedback Resistance (ohm)
ACHSELECT	IQUANT	0	Ach Select
CABLEID	IQUANT	14	Cable ID
DCCALDATE	LABEL	8/19/2019	DC Calibration Date
ACCALDATE	LABEL	8/19/2019	AC Calibration Date
THERMOSELECT	IQUANT	1	Thermo Select
FRAMEWORKVERSION	QUANT	6.33	Framework Version
INSTRUMENTVERSION	LABEL	3.50	Instrument Version
ZCURVE	TABLE
	Pt	Time	Freq	Zreal	Zimag	Zsig	Zmod	Zphz	Idc	Vdc	IERange
	#	s	Hz	ohm	ohm	V	ohm	°	A	V	#
	0	2	1000078	2324.218	-1510.464	1	2771.911	-33.01905	1.958265E-006	0.0496775	8
	1	2	794390.6	2583.29	-1484.522	1	2979.461	-29.8844	4.530048E-006	0.0491109	8
	2	2	630984.4	2853.647	-1431.804	1	3192.705	-26.645	3.943765E-006	0.0488455	8
	3	3	501234.4	3067.636	-1398.748	1	3371.482	-24.51154	-1.595564E-006	0.0497822	8
	4	3	398109.4	3297.165	-1342.981	1	3560.182	-22.16174	-5.329558E-007	0.0499887	8
	5	3	316265.6	3479.465	-1278.752	1	3707.004	-20.17909	-1.030033E-006	0.0502172	8
	6	4	251203.1	3663.435	-1203.296	1	3855.992	-18.18334	4.223165E-006	0.0488668	8
	7	4	199546.9	3846.602	-1156.518	1	4016.7	-16.73392	1.729092E-006	0.0493553	8
	8	4	158578.1	4027.9	-1087.376	1	4172.094	-15.1075	3.660902E-006	0.0491865	8
	9	5	125953.1	4229.881	-926.3408	1	4330.127	-12.35272	-8.616955E-007	0.0515241	7
	10	5	100078.1	4331.157	-864.5048	1	4416.593	-11.28797	-1.181488E-008	0.049834	7
	11	5	79453.13	4472.304	-814.7354	1	4545.91	-10.32455	8.150874E-008	0.0495922	7
	12	6	63140.62	4578.09	-760.2792	1	4640.791	-9.429005	-1.467309E-008	0.0497873	7
	13	6	50203.12	4674.595	-709.0044	1	4728.057	-8.624424	3.469924E-008	0.0496345	7
	14	6	39890.62	4753.175	-667.1077	1	4799.761	-7.989273	-1.185397E-008	0.0497427	7
	15	6	31640.63	4826.462	-635.0008	1	4868.055	-7.495158	-5.988863E-008	0.0498016	7
	16	7	25171.88	4892.373	-616.4147	1	4931.052	-7.181145	-1.679997E-008	0.049782	7
	17	7	20015.62	4955.308	-610.504	1	4992.773	-7.023563	-1.148518E-008	0.049742	7
	18	7	15890.62	5004.569	-620.8407	1	5042.932	-7.071686	2.176936E-008	0.0498431	7
	19	8	12609.37	5057.197	-647.0184	1	5098.419	-7.29082	1.218054E-008	0.0496722	7
	20	8	10078.13	5107.191	-694.6813	1	5154.22	-7.745849	1.169073E-007	0.0495996	7
	21	8	8015.625	5161.069	-760.4829	1	5216.796	-8.382209	1.282908E-008	0.049677	7
	22	9	6328.125	5208.767	-848.4763	1	5277.42	-9.251873	1.146133E-007	0.0495995	7
	23	9	5015.625	5262.518	-971.295	1	5351.402	-10.45731	5.949169E-008	0.0496648	7
	24	9	3984.375	5324.439	-1126.02	1	5442.203	-11.94105	1.029492E-007	0.0496649	7
	25	10	3170.956	5380.486	-1321.182	1	5540.321	-13.79606	-1.046472E-008	0.0497444	7
	26	10	2527.573	5452.575	-1566.998	1	5673.276	-16.03395	-2.08927E-008	0.0498008	7
	27	10	1976.103	5534.747	-1900.754	1	5852.033	-18.9536	-4.320512E-008	0.0497693	7
	28	11	1577.524	5607.286	-2227.743	1	6033.614	-21.66765	8.151032E-008	0.0495845	7
	29	11	1265.625	5732.835	-2723.109	1	6346.709	-25.40782	-5.924671E-008	0.0498879	7
	30	11	998.264	5866.849	-3320.336	1	6741.257	-29.50764	-5.850929E-008	0.0497883	7
	31	12	796.875	6018.529	-4025.734	1	7240.803	-33.77817	-5.916777E-008	0.0498783	7
	32	12	627.7902	6214.055	-4946.954	1	7942.722	-38.52298	-1.514886E-008	0.049768	7
	33	12	505.5147	6435.885	-5961.847	1	8772.926	-42.81031	8.250308E-008	0.0495738	7
	34	12	397.9953	6740.937	-7351.766	1	9974.4	-47.48185	-2.40952E-009	0.0497724	7
	35	13	315.5048	7127.466	-9006.048	1	11485.19	-51.6416	-3.643041E-009	0.0497141	6
	36	13	252.4038	7595.733	-10953.76	1	13329.67	-55.26115	-2.777578E-009	0.0497085	6
	37	13	198.6229	8254.179	-13504.56	1	15827.33	-58.56613	-3.004165E-009	0.0497108	6
	38	14	158.3615	9076.513	-16447.64	1	18785.85	-61.1082	-4.044816E-009	0.0497091	6
	39	14	125.558	10173.84	-20088.84	1	22518.18	-63.14042	-3.118693E-009	0.049711	6
	40	14	100.4464	11617.92	-24298.54	1	26933.16	-64.44603	-2.44933E-009	0.0497073	6
	41	15	79.00281	13638.58	-29795.37	1	32768.51	-65.40445	-1.747278E-009	0.0497063	6
	42	15	63.3446	15544.95	-35502.27	1	38756.38	-66.35342	-3.151574E-009	0.0497058	6
	43	15	49.86702	19187.43	-43042.53	1	47125.55	-65.97372	-3.305027E-009	0.0497044	6
	44	16	39.72458	23751.02	-51510.25	1	56722.28	-65.2459	-2.458634E-009	0.049711	6
	45	16	31.6723	29259.22	-61115.66	1	67758.59	-64.41715	-3.077768E-009	0.0497088	6
	46	16	24.93351	36700.99	-72118.31	1	80919.8	-63.02847	-3.582273E-009	0.0497054	6
	47	17	19.86229	44914.37	-83869.03	1	95138.4	-61.82962	-3.870122E-009	0.0497018	6
	48	17	15.83615	56062.27	-97849.5	1	112771.9	-60.18971	-9.62749E-010	0.0497118	5
	49	17	12.40079	68710.32	-110576.7	1	130185.7	-58.14394	-4.620909E-009	0.0497161	5
	50	18	9.93114	81567.38	-125921.5	1	150031.6	-57.06631	-1.729676E-009	0.0497165	5
	51	18	7.944915	96352.5	-141506	1	171195.1	-55.74874	-1.746378E-009	0.0497147	5
	52	19	6.317385	114786.9	-159917.9	1	196849.6	-54.32973	-1.968148E-009	0.0497031	5
	53	20	5.008013	133743.5	-182340.7	1	226131.5	-53.74066	-2.179912E-009	0.0497157	5
	54	21	3.945707	154038.3	-205406.3	1	256748	-53.13304	-2.847799E-009	0.0497099	5
	55	22	3.158693	175714.3	-230892.1	1	290149.4	-52.72801	-2.674595E-009	0.0496914	5
	56	24	2.504006	200171.5	-262630.9	1	330217.5	-52.68614	-2.246648E-009	0.0496983	5
	57	25	1.998082	226697.4	-297366.5	1	373923.2	-52.67991	-2.347403E-009	0.0496941	5
	58	27	1.584686	257994.9	-339659.3	1	426532.3	-52.7808	-2.476402E-009	0.0496569	5
	59	29	1.266892	290829.6	-388419.7	1	485233.7	-53.17593	-2.377182E-009	0.0496701	5
	60	31	0.999041	329825	-447950.1	1	556276.8	-53.63584	-2.256525E-009	0.0496953	5
