EXPLAIN
TAG	EISPOT
TITLE	LABEL	Potentiostatic IDE	Test &Identifier
DATE	LABEL	9/18/2019	Date
TIME	LABEL	9:23:28	Time
NOTES	NOTES	1	&Notes...
	
PSTAT	PSTAT	REF600-11020	Potentiostat
VDC	POTEN	0.00000E+000	T	DC &Voltage (V)
FREQINIT	QUANT	1.00000E+006	Initial Fre&q. (Hz)
FREQFINAL	QUANT	1.00000E+000	Final Fre&q. (Hz)
PTSPERDEC	QUANT	1.00000E+001	Points/&decade
VAC	QUANT	2.50000E+001	AC &Voltage (mV rms)
AREA	QUANT	1.00000E-002	&Area (cm^2)
CONDIT	TWOPARAM	T	5.00000E+000	0.00000E+000	Conditionin&g	Time(s)	E(V)
DELAY	TWOPARAM	T	5.00000E+000	0.00000E+000	Init. De&lay	Time(s)	Stab.(mV/s)
SPEED	SELECTOR	1	&Optimize for:
ZGUESS	QUANT	1.00000E+007	E&stimated Z (ohms)
OCVCURVE	TABLE	18
	Pt	T	Vf	Vm	Ach	Over
	#	s	V vs. Ref.	V	V	bits
	0	0.258333	7.13718E-003	7.13718E-003	5.50633E-004	...........
	1	0.516667	7.13726E-003	7.14143E-003	5.53032E-004	...........
	2	0.775	7.13809E-003	7.16288E-003	5.49733E-004	...........
	3	1.03333	7.14149E-003	7.18006E-003	5.45666E-004	...........
	4	1.29167	7.14980E-003	7.21673E-003	5.52199E-004	...........
	5	1.55	7.16482E-003	7.25235E-003	5.57199E-004	...........
	6	1.80833	7.18718E-003	7.28705E-003	5.48466E-004	...........
	7	2.06667	7.21604E-003	7.32529E-003	5.52699E-004	...........
	8	2.325	7.24943E-003	7.36690E-003	5.49899E-004	...........
	9	2.58333	7.28565E-003	7.40476E-003	5.46833E-004	...........
	10	2.84167	7.32365E-003	7.44459E-003	5.44899E-004	...........
	11	3.1	7.36258E-003	7.48119E-003	5.49333E-004	...........
	12	3.35833	7.40144E-003	7.50909E-003	5.50333E-004	...........
	13	3.61667	7.43903E-003	7.54324E-003	5.44633E-004	...........
	14	3.875	7.47458E-003	7.57955E-003	5.46633E-004	...........
	15	4.13333	7.50858E-003	7.61111E-003	5.44466E-004	...........
	16	4.39167	7.54205E-003	7.64477E-003	5.46566E-004	...........
	17	4.65	7.57552E-003	7.67971E-003	5.42666E-004	...........
EOC	QUANT	0.007609	Open Circuit (V)
PSTATMODEL	IQUANT	4	Pstat Model
PSTATSECTION	LABEL	REF600-11020	Pstat Section
PSTATSERIALNO	LABEL	11020	Pstat Serial Number
CTRLMODE	IQUANT	1	Control Mode
IESTAB	IQUANT	0	I/E Stability
CASPEED	IQUANT	1	Control Amp Speed
CONVENTION	IQUANT	1	Current Convention
ICHRANGE	IQUANT	2	Ich Range
ICHRANGEMODE	TOGGLE	F	Ich Auto Range
ICHOFFSETENABLE	TOGGLE	T	Ich Offset Enable
ICHOFFSET	QUANT	0	Ich Offset (V)
ICHFILTER	IQUANT	3	Ich Filter
VCHRANGE	IQUANT	2	Vch Range
VCHRANGEMODE	TOGGLE	F	Vch Auto Range
VCHOFFSETENABLE	TOGGLE	T	Vch Offset Enable
VCHOFFSET	QUANT	0	Vch Offset (V)
VCHFILTER	IQUANT	3	Vch Filter
ACHRANGE	IQUANT	2	Ach Range
ACHOFFSETENABLE	TOGGLE	F	Ach Offset Enable
ACHOFFSET	QUANT	0	Ach Offset (V)
ACHFILTER	IQUANT	3	Ach Filter
IERANGELOWERLIMIT	IQUANT	1	I/E Range Lower Limit
IERANGEMODE	TOGGLE	F	I/E AutoRange
IERANGE	IQUANT	3	I/E Range
POSFEEDENABLE	TOGGLE	F	Positive Feedback IR Comp
POSFEEDRESISTANCE	QUANT	0	Positive Feedback Resistance (ohm)
ACHSELECT	IQUANT	0	Ach Select
CABLEID	IQUANT	14	Cable ID
DCCALDATE	LABEL	8/19/2019	DC Calibration Date
ACCALDATE	LABEL	8/19/2019	AC Calibration Date
THERMOSELECT	IQUANT	1	Thermo Select
FRAMEWORKVERSION	QUANT	6.33	Framework Version
INSTRUMENTVERSION	LABEL	3.50	Instrument Version
ZCURVE	TABLE
	Pt	Time	Freq	Zreal	Zimag	Zsig	Zmod	Zphz	Idc	Vdc	IERange
	#	s	Hz	ohm	ohm	V	ohm	°	A	V	#
	0	1	1000078	2239.656	-1797.241	1	2871.609	-38.74574	2.160141E-007	0.0098171	8
	1	3	794390.6	2612.633	-1739.063	1	3138.501	-33.64917	9.353441E-007	0.0092825	8
	2	4	630984.4	2950.104	-1640.784	1	3375.691	-29.08186	-9.985756E-007	0.0095052	8
	3	5	501234.4	3253.879	-1485.716	1	3577.021	-24.54136	-4.148876E-008	0.0092009	8
	4	7	398109.4	3495.139	-1319.241	1	3735.826	-20.67902	-1.418931E-006	0.0094988	8
	5	8	316265.6	3659.622	-1145.696	1	3834.769	-17.38345	-1.324125E-006	0.0093294	8
	6	9	251203.1	3810.239	-989.29	1	3936.574	-14.55488	8.188746E-007	0.0089927	8
	7	11	199546.9	3909.802	-859.9449	1	4003.256	-12.40446	-1.026814E-006	0.0093103	8
	8	12	158578.1	3976.025	-736.55	1	4043.672	-10.49495	-1.631797E-006	0.0095259	8
	9	13	125953.1	4055.604	-615.624	1	4102.063	-8.631371	4.040621E-007	0.0080594	7
	10	15	100078.1	4096.467	-546.6425	1	4132.779	-7.600784	-9.864628E-009	0.009114	7
	11	16	79453.13	4137.753	-501.0456	1	4167.979	-6.9044	-4.050943E-008	0.0092018	7
	12	17	63140.62	4175.134	-468.4658	1	4201.334	-6.402025	-3.277557E-008	0.0091096	7
	13	19	50203.12	4210.924	-449.3402	1	4234.831	-6.090882	2.535476E-009	0.0091266	7
	14	20	39890.62	4247.955	-441.112	1	4270.796	-5.928405	2.36202E-009	0.0090203	7
	15	21	31640.63	4282.019	-448.3969	1	4305.432	-5.978012	-2.433223E-008	0.0091143	7
	16	23	25171.88	4318.147	-466.8448	1	4343.31	-6.170413	-2.476665E-008	0.0091119	7
	17	24	20015.62	4356.228	-495.575	1	4384.326	-6.490204	-5.942242E-009	0.009081	7
	18	25	15890.62	4399.992	-536.263	1	4432.551	-6.948833	-3.156759E-008	0.0091038	7
	19	27	12609.37	4443.824	-592.6902	1	4483.174	-7.596929	1.882209E-008	0.0090101	7
	20	28	10078.13	4489.586	-662.2292	1	4538.164	-8.390817	-7.414302E-009	0.0090897	7
	21	29	8015.625	4543.322	-748.869	1	4604.625	-9.359819	5.73664E-008	0.0089678	7
	22	31	6328.125	4602.736	-860.0279	1	4682.395	-10.58375	-4.696748E-009	0.0090799	7
	23	32	5015.625	4666.004	-995.209	1	4770.958	-12.04016	-6.156335E-009	0.0090897	7
	24	33	3984.375	4736.307	-1157.439	1	4875.681	-13.73256	1.960029E-008	0.0090017	7
	25	35	3170.956	4812.125	-1355.687	1	4999.443	-15.73375	3.269965E-009	0.0090131	7
	26	36	2527.573	4896.182	-1597.809	1	5150.3	-18.07346	-5.259326E-009	0.0090697	7
	27	37	1976.103	4999.002	-1919.112	1	5354.719	-21.00175	-1.618209E-009	0.0090897	7
	28	39	1577.524	5101.927	-2281.055	1	5588.638	-24.08926	-4.034224E-008	0.0091256	7
	29	40	1265.625	5220.003	-2710.107	1	5881.591	-27.43732	-1.243216E-008	0.0090426	7
	30	41	998.264	5362.433	-3279.529	1	6285.778	-31.44891	-2.124347E-009	0.0090814	7
	31	43	796.875	5518.248	-3935.096	1	6777.613	-35.4929	4.529551E-008	0.0089674	7
	32	44	627.7902	5708.712	-4798.563	1	7457.587	-40.04935	5.767425E-008	0.0090243	7
	33	45	505.5147	5911.209	-5751.178	1	8247.33	-44.21384	1.826854E-008	0.0089961	7
	34	47	397.9953	6164.687	-7050.705	1	9365.672	-48.83562	6.074458E-009	0.009082	7
	35	48	315.5048	6456.69	-8608.799	1	10761.05	-53.12971	1.382438E-009	0.0090179	6
	36	49	252.4038	6787.794	-10453.09	1	12463.6	-57.00201	1.45789E-009	0.0090107	6
	37	51	198.6229	7213.125	-12901.4	1	14780.91	-60.7906	1.010421E-009	0.0090154	6
	38	52	158.3615	7705.237	-15770.15	1	17551.88	-63.96004	6.144794E-010	0.0090147	6
	39	53	125.558	8329.558	-19400.2	1	21112.77	-66.76353	1.11258E-009	0.0090167	6
	40	55	100.4464	9099.254	-23701.98	1	25388.58	-68.99807	1.509215E-009	0.0090081	6
	41	56	79.00281	10102.4	-29397.23	1	31084.65	-71.03464	1.211432E-009	0.0090098	6
	42	57	63.3446	11331.18	-36115.91	1	37851.75	-72.58102	1.266489E-009	0.0090065	6
	43	59	49.86702	13134.37	-44366.36	1	46269.7	-73.50895	4.399763E-010	0.0090089	6
	44	60	39.72458	15486.16	-54642.26	1	56794.35	-74.17674	1.122095E-009	0.009015	6
	45	61	31.6723	18383.83	-66745.89	1	69231.34	-74.60085	8.066542E-010	0.0090144	6
	46	63	24.93351	22767.63	-82458.86	1	85544.3	-74.5647	6.808633E-010	0.0090133	6
	47	64	19.86229	28272.12	-100525.1	1	104425.1	-74.29166	8.758322E-010	0.0090116	6
	48	65	15.83615	35381.45	-121673.8	1	126713.7	-73.78613	7.866113E-010	0.0090186	5
	49	67	12.40079	45832.78	-150052	1	156895.7	-73.01492	2.434375E-010	0.0090239	5
	50	68	9.93114	58265	-179823.4	1	189027.1	-72.04704	1.078327E-010	0.0090214	5
	51	70	7.944915	75178.36	-214942.1	1	227710.1	-70.72215	4.812322E-010	0.0090141	5
	52	71	6.317385	96835	-256836.3	1	274484.8	-69.34206	5.810651E-010	0.0090084	5
	53	74	5.008013	125662.5	-305349.9	1	330196.3	-67.63107	5.348659E-010	0.0090287	5
	54	76	3.945707	163695.1	-361853	1	397157	-65.65894	1.151797E-011	0.0090125	5
	55	79	3.158693	208370.2	-418957.1	1	467913.6	-63.55634	1.424651E-010	0.0090078	5
	56	82	2.504006	263762.4	-483227.2	1	550526.3	-61.37273	4.436728E-010	0.0090257	5
	57	85	1.998082	327583.3	-549049.6	1	639348.3	-59.17814	4.914115E-010	0.0090286	5
	58	88	1.584686	404256.1	-617806.6	1	738314.3	-56.80164	2.05526E-010	0.0089763	5
	59	92	1.266892	484042.8	-689442.8	1	842394.7	-54.92814	3.719875E-010	0.0090239	5
	60	96	0.999041	577615.9	-771029.9	1	963394	-53.16134	-2.795055E-010	0.0089932	5
