EXPLAIN
TAG	EISPOT
TITLE	LABEL	Potentiostatic EIS	Test &Identifier
DATE	LABEL	11/15/2019	Date
TIME	LABEL	12:38:45	Time
NOTES	NOTES	4	&Notes...
	
	
	
	
PSTAT	PSTAT	REF600-11020	Potentiostat
VDC	POTEN	0.00000E+000	T	DC &Voltage (V)
FREQINIT	QUANT	1.00000E+006	Initial Fre&q. (Hz)
FREQFINAL	QUANT	1.00000E+000	Final Fre&q. (Hz)
PTSPERDEC	QUANT	1.00000E+001	Points/&decade
VAC	QUANT	2.50000E+001	AC &Voltage (mV rms)
AREA	QUANT	1.00000E-002	&Area (cm^2)
CONDIT	TWOPARAM	T	5.00000E+000	0.00000E+000	Conditionin&g	Time(s)	E(V)
DELAY	TWOPARAM	T	5.00000E+000	0.00000E+000	Init. De&lay	Time(s)	Stab.(mV/s)
SPEED	SELECTOR	0	&Optimize for:
ZGUESS	QUANT	1.00000E+005	E&stimated Z (ohms)
OCVCURVE	TABLE	19
	Pt	T	Vf	Vm	Ach	Over
	#	s	V vs. Ref.	V	V	bits
	0	0.258333	5.53641E-003	5.53641E-003	5.05067E-004	...........
	1	0.516667	5.53595E-003	5.51235E-003	5.10033E-004	...........
	2	0.775	5.53321E-003	5.49379E-003	5.12267E-004	...........
	3	1.03333	5.52606E-003	5.49378E-003	5.06767E-004	...........
	4	1.29167	5.51540E-003	5.50001E-003	5.10300E-004	...........
	5	1.55	5.50577E-003	5.51480E-003	5.16000E-004	...........
	6	1.80833	5.50179E-003	5.52877E-003	5.12067E-004	...........
	7	2.06667	5.50534E-003	5.55414E-003	5.08333E-004	...........
	8	2.325	5.51585E-003	5.57389E-003	5.09767E-004	...........
	9	2.58333	5.53180E-003	5.59735E-003	5.12233E-004	...........
	10	2.84167	5.55135E-003	5.61970E-003	5.11800E-004	...........
	11	3.1	5.57296E-003	5.64782E-003	5.10767E-004	...........
	12	3.35833	5.59608E-003	5.68208E-003	5.16733E-004	...........
	13	3.61667	5.62122E-003	5.71168E-003	5.10267E-004	...........
	14	3.875	5.64885E-003	5.74361E-003	5.11433E-004	...........
	15	4.13333	5.67858E-003	5.77409E-003	5.07400E-004	...........
	16	4.39167	5.70948E-003	5.80811E-003	5.15233E-004	...........
	17	4.65	5.74095E-003	5.84001E-003	5.11167E-004	...........
	18	4.90833	5.77291E-003	5.87555E-003	5.09667E-004	...........
EOC	QUANT	0.0057729	Open Circuit (V)
PSTATMODEL	IQUANT	4	Pstat Model
PSTATSECTION	LABEL	REF600-11020	Pstat Section
PSTATSERIALNO	LABEL	11020	Pstat Serial Number
CTRLMODE	IQUANT	1	Control Mode
IESTAB	IQUANT	0	I/E Stability
CASPEED	IQUANT	1	Control Amp Speed
CONVENTION	IQUANT	1	Current Convention
ICHRANGE	IQUANT	2	Ich Range
ICHRANGEMODE	TOGGLE	F	Ich Auto Range
ICHOFFSETENABLE	TOGGLE	T	Ich Offset Enable
ICHOFFSET	QUANT	0	Ich Offset (V)
ICHFILTER	IQUANT	3	Ich Filter
VCHRANGE	IQUANT	2	Vch Range
VCHRANGEMODE	TOGGLE	F	Vch Auto Range
VCHOFFSETENABLE	TOGGLE	T	Vch Offset Enable
VCHOFFSET	QUANT	0	Vch Offset (V)
VCHFILTER	IQUANT	3	Vch Filter
ACHRANGE	IQUANT	2	Ach Range
ACHOFFSETENABLE	TOGGLE	F	Ach Offset Enable
ACHOFFSET	QUANT	0	Ach Offset (V)
ACHFILTER	IQUANT	3	Ach Filter
IERANGELOWERLIMIT	IQUANT	1	I/E Range Lower Limit
IERANGEMODE	TOGGLE	F	I/E AutoRange
IERANGE	IQUANT	5	I/E Range
POSFEEDENABLE	TOGGLE	F	Positive Feedback IR Comp
POSFEEDRESISTANCE	QUANT	0	Positive Feedback Resistance (ohm)
ACHSELECT	IQUANT	0	Ach Select
CABLEID	IQUANT	14	Cable ID
DCCALDATE	LABEL	8/19/2019	DC Calibration Date
ACCALDATE	LABEL	8/19/2019	AC Calibration Date
THERMOSELECT	IQUANT	1	Thermo Select
FRAMEWORKVERSION	QUANT	6.33	Framework Version
INSTRUMENTVERSION	LABEL	3.50	Instrument Version
ZCURVE	TABLE
	Pt	Time	Freq	Zreal	Zimag	Zsig	Zmod	Zphz	Idc	Vdc	IERange
	#	s	Hz	ohm	ohm	V	ohm	°	A	V	#
	0	2	1000078	2048.691	-1643.729	1	2626.591	-38.74115	1.173983E-005	0.0069961	8
	1	2	794390.6	2313.41	-1661.436	1	2848.199	-35.68501	4.037106E-006	0.0062191	8
	2	2	630984.4	2579.717	-1685.354	1	3081.454	-33.15697	-9.118153E-008	0.0080375	8
	3	3	501234.4	2831.128	-1702.12	1	3303.407	-31.01497	-5.08828E-006	0.0078259	8
	4	3	398109.4	3081.993	-1712.175	1	3525.652	-29.054	-1.235622E-006	0.0071427	8
	5	3	316265.6	3328.633	-1753.759	1	3762.375	-27.78343	-2.206742E-006	0.0075198	8
	6	3	251203.1	3590.612	-1779.798	1	4007.514	-26.36674	6.352079E-006	0.0061827	8
	7	4	199546.9	3879.329	-1817.235	1	4283.87	-25.10029	-4.690283E-006	0.0076743	8
	8	4	158578.1	4176.407	-1836.087	1	4562.191	-23.73188	4.045652E-008	0.0070265	8
	9	4	125953.1	4519.567	-1804.449	1	4866.469	-21.76449	-1.937791E-006	0.0070567	7
	10	5	100078.1	4826.584	-1797.347	1	5150.376	-20.42457	-9.449796E-007	0.0091259	7
	11	5	79453.13	5154.208	-1762.755	1	5447.309	-18.88084	-2.76912E-007	0.0087304	7
	12	5	63140.62	5466.861	-1687.056	1	5721.252	-17.15006	1.12427E-007	0.0082925	7
	13	6	50203.12	5756.747	-1578.768	1	5969.308	-15.33611	6.947361E-007	0.0074605	7
	14	6	39890.62	5983.635	-1434.767	1	6153.247	-13.48392	7.341079E-008	0.0058722	7
	15	6	31640.63	6203.731	-1310.062	1	6340.548	-11.92415	1.113717E-006	0.0064582	7
	16	7	25171.88	6345.595	-1174.347	1	6453.345	-10.48481	4.797052E-007	0.0055316	7
	17	7	20015.62	6463.914	-1074.079	1	6552.544	-9.434374	-1.158937E-006	0.0079232	7
	18	8	15890.62	6565.272	-972.609	1	6636.925	-8.426765	-8.255586E-007	0.0071902	7
	19	8	12609.37	6675.51	-921.0941	1	6738.757	-7.856127	4.588836E-007	0.0078085	7
	20	8	10078.13	6719.098	-882.5186	1	6776.807	-7.482671	-1.327554E-006	0.0085125	7
	21	9	8015.625	6773.73	-881.3255	1	6830.824	-7.413072	-1.324103E-006	0.0088938	7
	22	10	6328.125	6824.947	-904.81	1	6884.663	-7.551888	-8.27362E-007	0.0071823	7
	23	10	5015.625	6883.181	-964.583	1	6950.438	-7.977267	-1.168935E-006	0.009057	7
	24	10	3984.375	6944.368	-1062.237	1	7025.14	-8.696774	-6.340879E-007	0.008989	7
	25	11	3170.956	6983.865	-1192.746	1	7084.985	-9.69181	-1.169513E-006	0.0090545	7
	26	11	2527.573	7045.276	-1377.913	1	7178.757	-11.0662	-6.35604E-007	0.0089859	7
	27	11	1976.103	7117.062	-1636.975	1	7302.894	-12.95315	1.127021E-007	0.0082762	7
	28	12	1577.524	7248.471	-1923.208	1	7499.271	-14.85968	6.959623E-007	0.0074447	7
	29	12	1265.625	7253.373	-2310.622	1	7612.515	-17.66971	1.036198E-006	0.0054356	7
	30	12	998.264	7339.547	-2804.57	1	7857.135	-20.91273	4.81096E-007	0.0055111	7
	31	13	796.875	7436.665	-3386.888	1	8171.597	-24.48599	-1.162159E-006	0.0078999	7
	32	13	627.7902	7587.549	-4170.254	1	8658.055	-28.79399	-9.410119E-007	0.0091044	7
	33	13	505.5147	7747.975	-5046.124	1	9246.322	-33.07551	-6.356009E-007	0.0089917	7
	34	14	397.9953	7960.588	-6226.043	1	10106.17	-38.02926	-3.518681E-010	0.0073097	7
	35	14	315.5048	8227.548	-7645.445	1	11231.45	-42.89976	-1.694843E-010	0.0072431	6
	36	14	252.4038	8546.56	-9323.52	1	12647.99	-47.48955	-2.78645E-010	0.0072348	6
	37	15	198.6229	8987.09	-11536.86	1	14624.19	-52.08179	6.380574E-011	0.0072381	6
	38	15	158.3615	9534.56	-14119.31	1	17037.1	-55.96943	7.524504E-010	0.0072392	6
	39	15	125.558	10252	-17345.38	1	20148.59	-59.41474	-3.183168E-011	0.0072417	6
	40	16	100.4464	11169.51	-21146.84	1	23915.41	-62.15751	3.961359E-011	0.0072299	6
	41	16	79.00281	12413.05	-26026.04	1	28834.68	-64.5013	1.220026E-009	0.0072293	6
	42	16	63.3446	14171.44	-31832.66	1	34844.62	-66.00206	-1.026306E-009	0.0072361	6
	43	17	49.86702	16198.84	-39045.52	1	42272.39	-67.46787	-6.750069E-010	0.0072418	6
	44	17	39.72458	19032.08	-47054.04	1	50757.29	-67.978	-1.890086E-010	0.0072448	6
	45	17	31.6723	22622.84	-56650.31	1	61000.42	-68.23111	-2.358894E-010	0.0072403	6
	46	18	24.93351	27503.94	-69068.88	1	74343.63	-68.28704	-2.098444E-010	0.0072304	6
	47	18	19.86229	33485.27	-82720.38	1	89240.83	-67.96186	-7.41677E-010	0.0072308	6
	48	18	15.83615	41497.11	-99120.2	1	107456.1	-67.28315	-4.029203E-010	0.0072471	5
	49	19	12.40079	52328.47	-117796.3	1	128896.2	-66.04784	-2.463589E-009	0.0072423	5
	50	19	9.93114	63827.27	-139570.6	1	153472.7	-65.42483	5.011486E-010	0.0072411	5
	51	20	7.944915	78849.03	-162708.9	1	180807.5	-64.14508	1.297409E-009	0.0072406	5
	52	20	6.317385	98532.2	-189583.2	1	213659.5	-62.53772	7.641967E-010	0.0072367	5
	53	21	5.008013	122953.7	-219816.5	1	251866.9	-60.77967	3.71589E-010	0.0072494	5
	54	22	3.945707	151741.8	-254422.3	1	296236.9	-59.18744	5.219574E-011	0.0072518	5
	55	23	3.158693	183673.7	-287989.4	1	341575.6	-57.47112	-3.418619E-010	0.0072301	5
	56	25	2.504006	220678.8	-324870.1	1	392733.7	-55.81239	-8.099862E-011	0.0072283	5
	57	26	1.998082	260116.1	-363928.2	1	447330	-54.44487	1.604557E-010	0.007268	5
	58	28	1.584686	302663.6	-405886	1	506308.9	-53.28862	-6.971921E-011	0.0072237	5
	59	30	1.266892	347408.2	-452225.2	1	570263.2	-52.46783	-1.173034E-010	0.0072018	5
	60	32	0.999041	396348.6	-509641.7	1	645621.3	-52.12777	-2.002255E-010	0.0072003	5
