EXPLAIN
TAG	EISPOT
TITLE	LABEL	Potentiostatic EIS	Test &Identifier
DATE	LABEL	11/11/2019	Date
TIME	LABEL	12:35:40	Time
NOTES	NOTES	3	&Notes...
	
	
	
PSTAT	PSTAT	REF600-11020	Potentiostat
VDC	POTEN	0.00000E+000	T	DC &Voltage (V)
FREQINIT	QUANT	1.00000E+006	Initial Fre&q. (Hz)
FREQFINAL	QUANT	1.00000E+000	Final Fre&q. (Hz)
PTSPERDEC	QUANT	1.00000E+001	Points/&decade
VAC	QUANT	2.50000E+001	AC &Voltage (mV rms)
AREA	QUANT	1.00000E-002	&Area (cm^2)
CONDIT	TWOPARAM	T	5.00000E+000	0.00000E+000	Conditionin&g	Time(s)	E(V)
DELAY	TWOPARAM	T	5.00000E+000	0.00000E+000	Init. De&lay	Time(s)	Stab.(mV/s)
SPEED	SELECTOR	1	&Optimize for:
ZGUESS	QUANT	1.00000E+005	E&stimated Z (ohms)
OCVCURVE	TABLE	19
	Pt	T	Vf	Vm	Ach	Over
	#	s	V vs. Ref.	V	V	bits
	0	0.258333	1.68410E-003	1.68410E-003	5.78799E-004	...........
	1	0.516667	1.68171E-003	1.55889E-003	5.80799E-004	...........
	2	0.775	1.66645E-003	1.41029E-003	5.77432E-004	...........
	3	1.03333	1.62351E-003	1.37901E-003	5.74966E-004	...........
	4	1.29167	1.55389E-003	1.43303E-003	5.76832E-004	...........
	5	1.55	1.48670E-003	1.62302E-003	5.81132E-004	...........
	6	1.80833	1.45658E-003	1.42935E-003	5.75365E-004	...........
	7	2.06667	1.45258E-003	8.48637E-004	5.78299E-004	...........
	8	2.325	1.40371E-003	7.24650E-004	5.78765E-004	...........
	9	2.58333	1.25705E-003	7.28661E-004	5.71599E-004	...........
	10	2.84167	1.05286E-003	7.70595E-004	5.75432E-004	...........
	11	3.1	8.81233E-004	8.48589E-004	5.71599E-004	...........
	12	3.35833	8.19826E-004	2.21223E-003	5.76332E-004	...........
	13	3.61667	9.52757E-004	2.76518E-003	5.79365E-004	...........
	14	3.875	1.32656E-003	2.54352E-003	5.81165E-004	...........
	15	4.13333	1.81269E-003	1.61252E-003	5.78165E-004	...........
	16	4.39167	2.13398E-003	1.04658E-003	5.77399E-004	...........
	17	4.65	2.08648E-003	1.57655E-006	5.77432E-004	...........
	18	4.90833	1.63587E-003	-2.19206E-003	5.81432E-004	...........
EOC	QUANT	0.0016359	Open Circuit (V)
PSTATMODEL	IQUANT	4	Pstat Model
PSTATSECTION	LABEL	REF600-11020	Pstat Section
PSTATSERIALNO	LABEL	11020	Pstat Serial Number
CTRLMODE	IQUANT	1	Control Mode
IESTAB	IQUANT	0	I/E Stability
CASPEED	IQUANT	1	Control Amp Speed
CONVENTION	IQUANT	1	Current Convention
ICHRANGE	IQUANT	2	Ich Range
ICHRANGEMODE	TOGGLE	F	Ich Auto Range
ICHOFFSETENABLE	TOGGLE	T	Ich Offset Enable
ICHOFFSET	QUANT	0	Ich Offset (V)
ICHFILTER	IQUANT	3	Ich Filter
VCHRANGE	IQUANT	2	Vch Range
VCHRANGEMODE	TOGGLE	F	Vch Auto Range
VCHOFFSETENABLE	TOGGLE	T	Vch Offset Enable
VCHOFFSET	QUANT	0	Vch Offset (V)
VCHFILTER	IQUANT	3	Vch Filter
ACHRANGE	IQUANT	2	Ach Range
ACHOFFSETENABLE	TOGGLE	F	Ach Offset Enable
ACHOFFSET	QUANT	0	Ach Offset (V)
ACHFILTER	IQUANT	3	Ach Filter
IERANGELOWERLIMIT	IQUANT	1	I/E Range Lower Limit
IERANGEMODE	TOGGLE	F	I/E AutoRange
IERANGE	IQUANT	4	I/E Range
POSFEEDENABLE	TOGGLE	F	Positive Feedback IR Comp
POSFEEDRESISTANCE	QUANT	0	Positive Feedback Resistance (ohm)
ACHSELECT	IQUANT	0	Ach Select
CABLEID	IQUANT	14	Cable ID
DCCALDATE	LABEL	8/19/2019	DC Calibration Date
ACCALDATE	LABEL	8/19/2019	AC Calibration Date
THERMOSELECT	IQUANT	1	Thermo Select
FRAMEWORKVERSION	QUANT	6.33	Framework Version
INSTRUMENTVERSION	LABEL	3.50	Instrument Version
ZCURVE	TABLE
	Pt	Time	Freq	Zreal	Zimag	Zsig	Zmod	Zphz	Idc	Vdc	IERange
	#	s	Hz	ohm	ohm	V	ohm	°	A	V	#
	0	2	1000078	1543.658	-2938.897	1	3319.638	-62.28926	7.718328E-007	0.0036599	8
	1	3	794390.6	1725.046	-3531.937	1	3930.695	-63.96848	1.947192E-006	0.004104	8
	2	4	630984.4	1945.22	-4210.167	1	4637.821	-65.20168	-1.995666E-006	0.0040162	8
	3	6	501234.4	2224.06	-5047.321	1	5515.604	-66.21971	2.233991E-006	0.0029974	8
	4	7	398109.4	2545.745	-6075.256	1	6587.075	-67.26461	6.740511E-006	0.0026074	8
	5	9	316265.6	2944.948	-7271.432	1	7845.154	-67.95193	-1.501735E-006	0.0031335	8
	6	11	251203.1	3431.248	-8734.436	1	9384.233	-68.55304	1.633957E-006	0.0029187	8
	7	13	199546.9	4157.122	-10523.3	1	11314.66	-68.444	1.69563E-006	0.003621	8
	8	15	158578.1	4920.732	-12553.68	1	13483.64	-68.59605	1.670087E-006	0.0036036	8
	9	16	125953.1	6162.275	-15293.33	1	16488.17	-68.05359	3.58832E-006	0.0006345	7
	10	18	100078.1	7536.127	-18278.93	1	19771.51	-67.59439	5.326688E-007	0.001319	7
	11	19	79453.13	9287.148	-21762.01	1	23660.86	-66.88917	-4.22636E-007	0.0023388	7
	12	20	63140.62	11624.82	-25413.09	1	27945.69	-65.41902	9.760214E-008	0.0044334	7
	13	22	50203.12	14582.3	-30148.27	1	33489.72	-64.18759	-1.445701E-006	0.0045807	7
	14	24	39890.62	17841.15	-36126.59	1	40291.89	-63.71749	8.089026E-008	0.0016865	7
	15	25	31640.63	23000.46	-40705.04	1	46753.84	-60.5313	-7.203772E-007	0.0051818	7
	16	27	25171.88	28448.14	-46901.21	1	54854.54	-58.7609	9.992461E-008	0.0044257	7
	17	28	20015.62	35003.3	-54959.91	1	65159.98	-57.50743	1.339625E-006	0.0018512	7
	18	30	15890.62	43645.16	-59860.09	1	74081.92	-53.90348	1.018902E-007	0.0044279	7
	19	32	12609.37	54081.79	-68230.67	1	87064.72	-51.59854	6.069262E-009	0.0054627	6
	20	33	10078.13	64713.93	-74337.26	1	98559.2	-48.95896	-2.526244E-007	0.0060131	6
	21	35	8015.625	78557.45	-81466.86	1	113173	-46.04158	-2.520394E-007	0.0060133	6
	22	36	6328.125	92502.74	-89040.8	1	128394	-43.90753	1.860625E-008	0.0006371	6
	23	38	5015.625	108778	-94536.71	1	144117.5	-40.99322	1.431331E-007	0.0034362	6
	24	40	3984.375	127913.9	-100130.7	1	162444.2	-38.05374	2.14733E-007	0.0002195	6
	25	41	3170.956	144143.7	-99570	1	175190.1	-34.63551	1.427883E-007	0.0034367	6
	26	43	2527.573	160467.4	-98102.1	1	188079.2	-31.43962	7.931064E-008	0.0045012	6
	27	44	1976.103	174285.4	-92555.91	1	197337.3	-27.97095	-2.043827E-007	0.0069849	6
	28	46	1577.524	194486.7	-100122.9	1	218745.7	-27.23966	-1.239632E-007	0.0025188	6
	29	47	1265.625	207507.8	-85180.31	1	224310.5	-22.31776	4.386961E-009	0.005075	5
	30	49	998.264	219646.9	-83230.06	1	234887.2	-20.75303	5.158679E-009	0.0003189	5
	31	50	796.875	230044.9	-81465.23	1	244043.5	-19.50045	-1.104719E-008	0.0066563	5
	32	51	627.7902	241331.1	-81155.63	1	254611.3	-18.58694	1.723595E-008	-0.0001905	5
	33	53	505.5147	249163.3	-79795.88	1	261629	-17.75794	-2.530302E-008	0.0063558	5
	34	54	397.9953	260822.3	-82134.62	1	273449	-17.47955	3.910905E-010	0.0032318	5
	35	55	315.5048	270389	-83509.49	1	282991.2	-17.16328	4.181415E-010	0.0032262	5
	36	57	252.4038	280533.3	-85501.57	1	293273.6	-16.95029	2.75164E-010	0.0032236	5
	37	58	198.6229	291404.8	-90356.41	1	305091.9	-17.22719	5.148356E-011	0.0032316	5
	38	60	158.3615	300556.8	-94874.55	1	315175.4	-17.51896	-4.088837E-011	0.003232	5
	39	61	125.558	313130	-100532.8	1	328872.7	-17.79962	-3.73306E-012	0.0032365	5
	40	62	100.4464	323361.5	-108946.5	1	341221.3	-18.61962	1.075769E-010	0.0032241	5
	41	64	79.00281	334008.2	-120202.7	1	354979.1	-19.79276	-1.225522E-010	0.0032248	5
	42	66	63.3446	327067.2	-128550.9	1	351423.2	-21.45687	1.555851E-010	0.0032225	5
	43	67	49.86702	361454.4	-142065	1	388370.7	-21.45668	9.019632E-011	0.003219	5
	44	69	39.72458	379789.2	-157307.8	1	411078.5	-22.49922	3.338971E-010	0.0032168	5
	45	70	31.6723	394952.9	-182458.6	1	435062	-24.79578	3.616269E-010	0.0032167	5
	46	72	24.93351	422582.3	-201558.9	1	468189.8	-25.49972	-7.292236E-011	0.0032185	5
	47	73	19.86229	446052.9	-225464.9	1	499797.6	-26.81508	4.226124E-010	0.0032153	5
	48	75	15.83615	463793.4	-241684.8	1	522987.5	-27.52422	-4.862113E-010	0.0032317	5
	49	76	12.40079	522407.5	-276714.9	1	591169	-27.90979	1.092246E-009	0.0032298	5
	50	77	9.93114	545658.1	-311921.3	1	628520.3	-29.75412	-4.034872E-010	0.0032301	6
	51	79	7.944915	580661.8	-342108	1	673948.1	-30.50528	5.080248E-010	0.0032291	6
	52	81	6.317385	631911.1	-383979.4	1	739426.7	-31.28487	-1.884379E-011	0.0032364	6
	53	83	5.008013	682318.8	-423605.3	1	803119.1	-31.83333	5.046752E-010	0.0032119	6
	54	86	3.945707	735571.9	-473421.3	1	874753.6	-32.76573	6.691186E-010	0.0032168	6
	55	90	3.158693	790771.8	-522453.8	1	947775.3	-33.45228	2.538483E-010	0.003212	5
	56	93	2.504006	852643.6	-577040.2	1	1029552	-34.08881	-3.764059E-011	0.0032294	4
	57	96	1.998082	915723.3	-642451.9	1	1118612	-35.05268	3.266198E-010	0.0032031	4
	58	99	1.584686	989422	-714085.7	1	1220194	-35.81874	-2.082911E-011	0.0031751	4
	59	103	1.266892	1068948	-805375.1	1	1338387	-36.99538	2.920418E-010	0.0032152	4
	60	107	0.999041	1163586	-909915.6	1	1477118	-38.02515	-2.522187E-010	0.0032114	4
