EXPLAIN
TAG	EISPOT
TITLE	LABEL	Potentiostatic EIS	Test &Identifier
DATE	LABEL	10/20/2019	Date
TIME	LABEL	11:10:29	Time
NOTES	NOTES	1	&Notes...
	
PSTAT	PSTAT	REF600-11020	Potentiostat
VDC	POTEN	0.00000E+000	T	DC &Voltage (V)
FREQINIT	QUANT	1.00000E+006	Initial Fre&q. (Hz)
FREQFINAL	QUANT	1.00000E+000	Final Fre&q. (Hz)
PTSPERDEC	QUANT	1.00000E+001	Points/&decade
VAC	QUANT	2.50000E+001	AC &Voltage (mV rms)
AREA	QUANT	1.00000E-002	&Area (cm^2)
CONDIT	TWOPARAM	T	5.00000E+000	0.00000E+000	Conditionin&g	Time(s)	E(V)
DELAY	TWOPARAM	T	5.00000E+000	0.00000E+000	Init. De&lay	Time(s)	Stab.(mV/s)
SPEED	SELECTOR	1	&Optimize for:
ZGUESS	QUANT	1.00000E+005	E&stimated Z (ohms)
OCVCURVE	TABLE	19
	Pt	T	Vf	Vm	Ach	Over
	#	s	V vs. Ref.	V	V	bits
	0	0.258333	5.42052E-003	5.42052E-003	5.76932E-004	...........
	1	0.516667	5.41945E-003	5.36498E-003	5.65699E-004	...........
	2	0.775	5.41245E-003	5.28678E-003	5.68666E-004	...........
	3	1.03333	5.39139E-003	5.23124E-003	5.76299E-004	...........
	4	1.29167	5.35481E-003	5.31520E-003	5.69799E-004	...........
	5	1.55	5.31288E-003	5.11258E-003	5.71532E-004	...........
	6	1.80833	5.27157E-003	5.11078E-003	5.69632E-004	...........
	7	2.06667	5.22547E-003	5.09955E-003	5.66332E-004	...........
	8	2.325	5.17552E-003	5.07940E-003	5.64332E-004	...........
	9	2.58333	5.13211E-003	5.04085E-003	5.68966E-004	...........
	10	2.84167	5.09960E-003	5.04254E-003	5.70732E-004	...........
	11	3.1	5.07532E-003	5.04246E-003	5.65666E-004	...........
	12	3.35833	5.05737E-003	5.01677E-003	5.71299E-004	...........
	13	3.61667	5.04254E-003	4.91721E-003	5.67966E-004	...........
	14	3.875	5.02302E-003	4.94562E-003	5.65199E-004	...........
	15	4.13333	4.99791E-003	5.06804E-003	5.67466E-004	...........
	16	4.39167	4.98269E-003	5.05187E-003	5.70699E-004	...........
	17	4.65	4.99167E-003	5.09243E-003	5.68799E-004	...........
	18	4.90833	5.01954E-003	5.09812E-003	5.68732E-004	...........
EOC	QUANT	0.0050195	Open Circuit (V)
PSTATMODEL	IQUANT	4	Pstat Model
PSTATSECTION	LABEL	REF600-11020	Pstat Section
PSTATSERIALNO	LABEL	11020	Pstat Serial Number
CTRLMODE	IQUANT	1	Control Mode
IESTAB	IQUANT	0	I/E Stability
CASPEED	IQUANT	1	Control Amp Speed
CONVENTION	IQUANT	1	Current Convention
ICHRANGE	IQUANT	2	Ich Range
ICHRANGEMODE	TOGGLE	F	Ich Auto Range
ICHOFFSETENABLE	TOGGLE	T	Ich Offset Enable
ICHOFFSET	QUANT	0	Ich Offset (V)
ICHFILTER	IQUANT	3	Ich Filter
VCHRANGE	IQUANT	2	Vch Range
VCHRANGEMODE	TOGGLE	F	Vch Auto Range
VCHOFFSETENABLE	TOGGLE	T	Vch Offset Enable
VCHOFFSET	QUANT	0	Vch Offset (V)
VCHFILTER	IQUANT	3	Vch Filter
ACHRANGE	IQUANT	2	Ach Range
ACHOFFSETENABLE	TOGGLE	F	Ach Offset Enable
ACHOFFSET	QUANT	0	Ach Offset (V)
ACHFILTER	IQUANT	3	Ach Filter
IERANGELOWERLIMIT	IQUANT	1	I/E Range Lower Limit
IERANGEMODE	TOGGLE	F	I/E AutoRange
IERANGE	IQUANT	4	I/E Range
POSFEEDENABLE	TOGGLE	F	Positive Feedback IR Comp
POSFEEDRESISTANCE	QUANT	0	Positive Feedback Resistance (ohm)
ACHSELECT	IQUANT	0	Ach Select
CABLEID	IQUANT	14	Cable ID
DCCALDATE	LABEL	8/19/2019	DC Calibration Date
ACCALDATE	LABEL	8/19/2019	AC Calibration Date
THERMOSELECT	IQUANT	1	Thermo Select
FRAMEWORKVERSION	QUANT	6.33	Framework Version
INSTRUMENTVERSION	LABEL	3.50	Instrument Version
ZCURVE	TABLE
	Pt	Time	Freq	Zreal	Zimag	Zsig	Zmod	Zphz	Idc	Vdc	IERange
	#	s	Hz	ohm	ohm	V	ohm	°	A	V	#
	0	2	1000078	2707.685	-1784.701	1	3242.948	-33.38984	-3.509808E-006	0.0072316	8
	1	4	794390.6	3042.178	-1719.504	1	3494.501	-29.47607	1.118405E-006	0.0067385	8
	2	5	630984.4	3345.734	-1604.908	1	3710.75	-25.62647	-1.362168E-006	0.0068821	8
	3	7	501234.4	3623.322	-1432.837	1	3896.342	-21.57624	2.812491E-006	0.0059884	8
	4	9	398109.4	3839.723	-1289.359	1	4050.422	-18.56178	-3.617152E-006	0.007248	8
	5	10	316265.6	4011.477	-1123.424	1	4165.817	-15.64503	-1.319347E-006	0.0066407	8
	6	12	251203.1	4169.728	-977.736	1	4282.826	-13.19655	3.622518E-006	0.0059681	8
	7	13	199546.9	4261.258	-857.2017	1	4346.621	-11.37391	1.399322E-006	0.0063762	8
	8	15	158578.1	4333.337	-744.457	1	4396.82	-9.74812	1.651084E-006	0.0063258	8
	9	16	125953.1	4439.198	-571.1249	1	4475.786	-7.331116	-6.533174E-007	0.008075	7
	10	17	100078.1	4466.622	-522.3604	1	4497.062	-6.670301	-1.698749E-008	0.006551	7
	11	19	79453.13	4507.358	-477.4678	1	4532.577	-6.046834	-7.554703E-008	0.0067622	7
	12	20	63140.62	4546.362	-452.0276	1	4568.779	-5.678041	5.705386E-008	0.0064483	7
	13	21	50203.12	4584.185	-435.2896	1	4604.805	-5.424236	-5.737732E-008	0.0065659	7
	14	23	39890.62	4621.415	-430.6575	1	4641.437	-5.323868	-2.033637E-008	0.0064808	7
	15	24	31640.63	4660.243	-434.0202	1	4680.41	-5.320753	9.147573E-008	0.0063258	7
	16	26	25171.88	4701.616	-447.5063	1	4722.865	-5.437113	4.448339E-008	0.0063722	7
	17	27	20015.62	4755.537	-468.62	1	4778.57	-5.627871	2.459475E-008	0.0064067	7
	18	28	15890.62	4791.993	-502.2378	1	4818.24	-5.983195	1.128068E-007	0.006407	7
	19	30	12609.37	4840.56	-546.423	1	4871.304	-6.440527	-7.278415E-008	0.0067504	7
	20	31	10078.13	4894.28	-592.8229	1	4930.052	-6.906346	3.29037E-008	0.0065845	7
	21	32	8015.625	4938.263	-675.1961	1	4984.208	-7.78563	-6.30578E-008	0.0066659	7
	22	34	6328.125	5002.861	-731.7726	1	5056.097	-8.321688	-5.979332E-008	0.0066001	7
	23	35	5015.625	5060.789	-829.4396	1	5128.309	-9.307757	-6.757953E-009	0.0065233	7
	24	37	3984.375	5105.202	-950.863	1	5192.998	-10.55066	9.311408E-009	0.0064596	7
	25	38	3170.956	5178.828	-1098.791	1	5294.11	-11.9788	-1.413553E-008	0.0065281	7
	26	39	2527.573	5246.732	-1283.019	1	5401.327	-13.74126	-6.601292E-008	0.0066642	7
	27	41	1976.103	5319.54	-1534.423	1	5536.421	-16.09022	1.210891E-007	0.0063374	7
	28	42	1577.524	5507.767	-1812.657	1	5798.381	-18.21686	-5.395659E-008	0.006603	7
	29	43	1265.625	5481.392	-2169.306	1	5895.044	-21.59159	3.329437E-008	0.0065731	7
	30	45	998.264	5588.8	-2635.444	1	6179.017	-25.2466	-5.48607E-008	0.0065536	7
	31	46	796.875	5703.677	-3172.339	1	6526.536	-29.08245	1.149669E-007	0.0064013	7
	32	48	627.7902	5850.653	-3876.862	1	7018.562	-33.52995	4.199122E-008	0.0063598	7
	33	49	505.5147	6015.597	-4674.637	1	7618.375	-37.85028	5.801943E-008	0.0064426	7
	34	50	397.9953	6246.104	-5754.136	1	8492.579	-42.65239	4.657961E-009	0.006529	7
	35	52	315.5048	6523.928	-7044.842	1	9601.64	-47.19854	4.345986E-009	0.0065288	7
	36	53	252.4038	6871.413	-8560.945	1	10977.53	-51.24785	1.700287E-009	0.0064692	6
	37	54	198.6229	7340.829	-10551.67	1	12854.01	-55.17355	9.904627E-010	0.0064663	6
	38	56	158.3615	7916.128	-12845.67	1	15088.95	-58.35661	2.950349E-010	0.0064647	6
	39	57	125.558	8682.921	-15705.76	1	17946.14	-61.06402	3.739521E-010	0.006471	6
	40	59	100.4464	9630.41	-19026.86	1	21325.24	-63.15384	2.11556E-009	0.0064695	6
	41	60	79.00281	10970.36	-23349.91	1	25798.59	-64.83472	1.390108E-009	0.0064634	6
	42	61	63.3446	12762.27	-28275.06	1	31021.85	-65.70742	1.072715E-009	0.0064658	6
	43	63	49.86702	14203.83	-34181.65	1	37015.32	-67.43519	1.822967E-009	0.0064597	6
	44	64	39.72458	16949.34	-41020.16	1	44383.93	-67.54981	6.62467E-010	0.0064696	6
	45	65	31.6723	20001.8	-49423.97	1	53317.93	-67.9669	1.360966E-009	0.0064633	6
	46	67	24.93351	24222.04	-59690.2	1	64417.6	-67.91289	2.032274E-010	0.0064645	6
	47	68	19.86229	29286.4	-71478.97	1	77245.95	-67.72008	5.815761E-010	0.0064615	6
	48	70	15.83615	35070.19	-85907.89	1	92790.54	-67.79324	-1.792943E-009	0.0064689	6
	49	71	12.40079	44306.82	-102301.5	1	111484	-66.58254	-5.894807E-010	0.0064754	5
	50	72	9.93114	54390.48	-120687.1	1	132377.1	-65.74017	-5.93712E-011	0.006477	5
	51	74	7.944915	66366.4	-140759.1	1	155620.1	-64.75663	1.238917E-009	0.0064708	5
	52	76	6.317385	82005.32	-165336.8	1	184556.6	-63.61907	3.155188E-010	0.0064835	5
	53	78	5.008013	100780.1	-192355.9	1	217157.6	-62.34882	3.635226E-010	0.0064803	5
	54	80	3.945707	122969.6	-223513.1	1	255107.1	-61.18185	-5.165566E-011	0.0064647	5
	55	83	3.158693	146363.4	-255952	1	294845.2	-60.23739	3.142503E-010	0.0064891	5
	56	86	2.504006	174034.5	-294233.4	1	341849.8	-59.39634	-2.847559E-010	0.0064719	5
	57	89	1.998082	203309.6	-335929.2	1	392661.7	-58.81702	2.49972E-011	0.0064337	5
	58	92	1.584686	235318.4	-385345.3	1	451515	-58.58889	-9.680785E-012	0.0064876	5
	59	96	1.266892	270497.9	-443132	1	519167.7	-58.59916	3.966176E-011	0.0064365	5
	60	100	0.999041	311487.9	-514661.1	1	601581.9	-58.81645	1.176124E-010	0.0065139	5
