EXPLAIN
TAG	EISPOT
TITLE	LABEL	Potentiostatic EIS	Test &Identifier
DATE	LABEL	8/16/2017	Date
TIME	LABEL	17:12:27	Time
NOTES	NOTES	1	&Notes...
	
PSTAT	PSTAT	REF600-11020	Potentiostat
VDC	POTEN	0.00000E+000	T	DC &Voltage (V)
FREQINIT	QUANT	1.00000E+006	Initial Fre&q. (Hz)
FREQFINAL	QUANT	1.00000E+000	Final Fre&q. (Hz)
PTSPERDEC	QUANT	1.00000E+001	Points/&decade
VAC	QUANT	2.50000E+001	AC &Voltage (mV rms)
AREA	QUANT	1.00000E-002	&Area (cm^2)
CONDIT	TWOPARAM	T	5.00000E+000	0.00000E+000	Conditionin&g	Time(s)	E(V)
DELAY	TWOPARAM	T	5.00000E+000	0.00000E+000	Init. De&lay	Time(s)	Stab.(mV/s)
SPEED	SELECTOR	0	&Optimize for:
ZGUESS	QUANT	1.00000E+005	E&stimated Z (ohms)
OCVCURVE	TABLE	19
	Pt	T	Vf	Vm	Ach	Over
	#	s	V vs. Ref.	V	V	bits
	0	0.258333	6.84212E-003	6.84212E-003	5.25466E-004	...........
	1	0.516667	6.84183E-003	6.82714E-003	5.28266E-004	...........
	2	0.775	6.84043E-003	6.83135E-003	5.22833E-004	...........
	3	1.03333	6.83770E-003	6.83958E-003	5.22900E-004	...........
	4	1.29167	6.83507E-003	6.82812E-003	5.29033E-004	...........
	5	1.55	6.83359E-003	6.82920E-003	5.32766E-004	...........
	6	1.80833	6.83295E-003	6.84931E-003	5.30900E-004	...........
	7	2.06667	6.83393E-003	6.86136E-003	5.27366E-004	...........
	8	2.325	6.83892E-003	6.88914E-003	5.27366E-004	...........
	9	2.58333	6.84974E-003	6.91639E-003	5.24433E-004	...........
	10	2.84167	6.86645E-003	6.93259E-003	5.28766E-004	...........
	11	3.1	6.88742E-003	6.96049E-003	5.29233E-004	...........
	12	3.35833	6.91053E-003	6.99317E-003	5.29633E-004	...........
	13	3.61667	6.93575E-003	7.05430E-003	5.32166E-004	...........
	14	3.875	6.96584E-003	7.10256E-003	5.21566E-004	...........
	15	4.13333	7.00300E-003	7.12313E-003	5.23500E-004	...........
	16	4.39167	7.04443E-003	7.14445E-003	5.24400E-004	...........
	17	4.65	7.08357E-003	7.16594E-003	5.28766E-004	...........
	18	4.90833	7.11626E-003	7.19577E-003	5.34166E-004	...........
EOC	QUANT	0.0071163	Open Circuit (V)
PSTATMODEL	IQUANT	4	Pstat Model
PSTATSECTION	LABEL	REF600-11020	Pstat Section
PSTATSERIALNO	LABEL	11020	Pstat Serial Number
CTRLMODE	IQUANT	1	Control Mode
IESTAB	IQUANT	0	I/E Stability
CASPEED	IQUANT	1	Control Amp Speed
CONVENTION	IQUANT	1	Current Convention
ICHRANGE	IQUANT	2	Ich Range
ICHRANGEMODE	TOGGLE	F	Ich Auto Range
ICHOFFSETENABLE	TOGGLE	T	Ich Offset Enable
ICHOFFSET	QUANT	0	Ich Offset (V)
ICHFILTER	IQUANT	3	Ich Filter
VCHRANGE	IQUANT	2	Vch Range
VCHRANGEMODE	TOGGLE	F	Vch Auto Range
VCHOFFSETENABLE	TOGGLE	T	Vch Offset Enable
VCHOFFSET	QUANT	0	Vch Offset (V)
VCHFILTER	IQUANT	3	Vch Filter
ACHRANGE	IQUANT	2	Ach Range
ACHOFFSETENABLE	TOGGLE	F	Ach Offset Enable
ACHOFFSET	QUANT	0	Ach Offset (V)
ACHFILTER	IQUANT	3	Ach Filter
IERANGELOWERLIMIT	IQUANT	1	I/E Range Lower Limit
IERANGEMODE	TOGGLE	F	I/E AutoRange
IERANGE	IQUANT	5	I/E Range
POSFEEDENABLE	TOGGLE	F	Positive Feedback IR Comp
POSFEEDRESISTANCE	QUANT	0	Positive Feedback Resistance (ohm)
ACHSELECT	IQUANT	0	Ach Select
CABLEID	IQUANT	14	Cable ID
DCCALDATE	LABEL	8/19/2019	DC Calibration Date
ACCALDATE	LABEL	8/19/2019	AC Calibration Date
THERMOSELECT	IQUANT	1	Thermo Select
FRAMEWORKVERSION	QUANT	6.33	Framework Version
INSTRUMENTVERSION	LABEL	3.50	Instrument Version
ZCURVE	TABLE
	Pt	Time	Freq	Zreal	Zimag	Zsig	Zmod	Zphz	Idc	Vdc	IERange
	#	s	Hz	ohm	ohm	V	ohm	°	A	V	#
	0	1	1000078	1785.204	-928.1122	1	2012.05	-27.46953	-5.766807E-006	0.0089924	8
	1	1	794390.6	1945.59	-887.732	1	2138.548	-24.52622	4.832825E-006	0.0081734	8
	2	1	630984.4	2092.892	-832.8803	1	2252.529	-21.70042	-1.516406E-006	0.0092628	8
	3	2	501234.4	2219.394	-773.9994	1	2350.486	-19.22589	1.118844E-006	0.0090609	8
	4	2	398109.4	2321.064	-722.2592	1	2430.843	-17.28488	-5.071029E-006	0.0089624	8
	5	2	316265.6	2429.168	-656.5969	1	2516.342	-15.12543	4.48844E-006	0.0085183	8
	6	3	251203.1	2506.518	-602.1401	1	2577.83	-13.50817	-2.916228E-006	0.0091105	8
	7	3	199546.9	2572.979	-559.3624	1	2633.08	-12.26518	-5.937903E-006	0.0094337	8
	8	3	158578.1	2642.141	-524.626	1	2693.722	-11.23063	-3.609701E-006	0.0091475	8
	9	4	125953.1	2717.343	-455.7747	1	2755.301	-9.52148	-1.698801E-006	0.0083745	7
	10	4	100078.1	2763.279	-449.6589	1	2799.626	-9.242532	8.148383E-007	0.0082741	7
	11	4	79453.13	2805.918	-450.3632	1	2841.831	-9.118474	-7.227056E-007	0.0084399	7
	12	5	63140.62	2864.548	-461.8877	1	2901.547	-9.159692	9.070977E-007	0.0069282	7
	13	5	50203.12	2918.084	-477.3775	1	2956.874	-9.290877	9.039348E-007	0.0069259	7
	14	5	39890.62	2972.956	-497.1852	1	3014.242	-9.494058	4.205565E-007	0.0069875	7
	15	6	31640.63	3029.079	-520.9793	1	3073.555	-9.75897	-7.259779E-007	0.0084375	7
	16	6	25171.88	3089.748	-551.8644	1	3138.646	-10.12689	-1.171245E-006	0.0099576	7
	17	6	20015.62	3161.706	-583.0913	1	3215.024	-10.44925	-1.174686E-006	0.0096151	7
	18	6	15890.62	3229.804	-633.4536	1	3291.337	-11.09643	-7.252215E-007	0.0084376	7
	19	7	12609.37	3316.843	-687.3833	1	3387.321	-11.70825	9.802797E-007	0.0077965	7
	20	7	10078.13	3386.731	-740.4472	1	3466.729	-12.33263	6.959308E-008	0.007275	7
	21	7	8015.625	3468.016	-807.3328	1	3560.747	-13.10471	-8.319188E-007	0.0101354	7
	22	8	6328.125	3553.298	-888.9733	1	3662.813	-14.04609	-8.32047E-007	0.0101338	7
	23	8	5015.625	3646.104	-986.87	1	3777.299	-15.14504	-2.424682E-007	0.00979	7
	24	8	3984.375	3746.494	-1105.07	1	3906.072	-16.43401	9.075698E-007	0.0069202	7
	25	9	3170.956	3821.773	-1238.147	1	4017.332	-17.95086	-1.022562E-006	0.0090755	7
	26	9	2527.573	3912.803	-1409.382	1	4158.893	-19.8089	-1.170901E-006	0.0099542	7
	27	9	1976.103	4018.178	-1645.529	1	4342.064	-22.27014	-5.626962E-007	0.0100279	7
	28	10	1577.524	4095.796	-1922.754	1	4524.658	-25.1475	-7.222539E-007	0.0084294	7
	29	10	1265.625	4226.508	-2233.394	1	4780.316	-27.85311	-3.285175E-007	0.0077677	7
	30	10	998.264	4345.744	-2657.788	1	5094.048	-31.44929	-1.032466E-006	0.010093	7
	31	11	796.875	4477.602	-3168.808	1	5485.458	-35.28712	-1.173176E-006	0.0096078	7
	32	11	627.7902	4640.733	-3855.116	1	6033.102	-39.71685	4.24946E-007	0.006977	7
	33	11	505.5147	4812.422	-4602.452	1	6658.977	-43.7224	1.098413E-007	0.0093949	7
	34	12	397.9953	5032.878	-5630.927	1	7552.298	-48.20991	2.062818E-009	0.0085498	7
	35	12	315.5048	5302.54	-6867.347	1	8676.254	-52.3269	-2.288703E-011	0.0085495	7
	36	12	252.4038	5625.966	-8324.266	1	10047.13	-55.94715	-1.088709E-009	0.0085471	7
	37	13	198.6229	6071.761	-10246.3	1	11910.2	-59.34983	-2.097051E-010	0.008489	6
	38	13	158.3615	6605.732	-12472.34	1	14113.65	-62.09295	-4.762695E-010	0.0084748	6
	39	13	125.558	7312.413	-15246.51	1	16909.39	-64.37706	5.255436E-010	0.0084761	6
	40	13	100.4464	8156.01	-18478.52	1	20198.42	-66.1844	8.649559E-010	0.0084736	6
	41	14	79.00281	9331.243	-22656.79	1	24503.11	-67.61559	8.923978E-010	0.008481	6
	42	14	63.3446	11033.9	-27278.39	1	29425.46	-67.97705	-1.490046E-010	0.0084766	6
	43	15	49.86702	12934.8	-33368.98	1	35788.24	-68.81219	-1.092248E-009	0.0084742	6
	44	15	39.72458	15098.33	-40220.36	1	42960.87	-69.42435	3.952459E-010	0.0084791	6
	45	15	31.6723	17931.88	-48324.51	1	51544.26	-69.64151	1.005373E-010	0.0084834	6
	46	16	24.93351	21921.46	-58683.27	1	62644.05	-69.51655	-1.711076E-011	0.0084809	6
	47	16	19.86229	26534.38	-70138.26	1	74989.66	-69.2776	7.78984E-010	0.0084862	6
	48	16	15.83615	31532.51	-84066.09	1	89785.33	-69.43934	5.421188E-010	0.0084777	6
	49	16	12.40079	39873.92	-100863.9	1	108459.5	-68.42993	6.223616E-010	0.0084854	5
	50	17	9.93114	48720.66	-119283.8	1	128850	-67.78278	-5.94964E-010	0.0084789	5
	51	17	7.944915	58595.04	-140657.4	1	152374.1	-67.38437	-9.894416E-010	0.008488	5
	52	18	6.317385	71828.27	-166404.1	1	181244.7	-66.65258	-5.942919E-010	0.0085016	5
	53	19	5.008013	87904.27	-196850.8	1	215586.2	-65.93672	-3.982317E-010	0.0084855	5
	54	20	3.945707	106918.2	-232638.3	1	256031.4	-65.31698	-1.623653E-010	0.0084847	5
	55	21	3.158693	128972.2	-271442.8	1	300524.6	-64.58593	4.008831E-011	0.0084996	5
	56	23	2.504006	156024.7	-318106.5	1	354309.8	-63.87299	-1.44317E-010	0.0084936	5
	57	24	1.998082	185818.6	-370200.2	1	414218.3	-63.34606	-1.418318E-010	0.0084632	5
	58	26	1.584686	222348	-430461.5	1	484495.3	-62.68211	4.528485E-013	0.0085086	5
	59	28	1.266892	262690.3	-499444.6	1	564314.8	-62.25721	-1.842101E-011	0.0085209	5
	60	30	0.999041	310498.5	-586077.8	1	663246.9	-62.08578	-8.997685E-011	0.0085169	5
