EXPLAIN
TAG	EISPOT
TITLE	LABEL	Potentiostatic EIS	Test &Identifier
DATE	LABEL	10/28/2019	Date
TIME	LABEL	10:32:08	Time
NOTES	NOTES	1	&Notes...
	
PSTAT	PSTAT	REF600-11020	Potentiostat
VDC	POTEN	0.00000E+000	T	DC &Voltage (V)
FREQINIT	QUANT	1.00000E+006	Initial Fre&q. (Hz)
FREQFINAL	QUANT	1.00000E+000	Final Fre&q. (Hz)
PTSPERDEC	QUANT	1.00000E+001	Points/&decade
VAC	QUANT	2.50000E+001	AC &Voltage (mV rms)
AREA	QUANT	1.00000E-002	&Area (cm^2)
CONDIT	TWOPARAM	T	5.00000E+000	0.00000E+000	Conditionin&g	Time(s)	E(V)
DELAY	TWOPARAM	T	5.00000E+000	0.00000E+000	Init. De&lay	Time(s)	Stab.(mV/s)
SPEED	SELECTOR	1	&Optimize for:
ZGUESS	QUANT	1.00000E+005	E&stimated Z (ohms)
OCVCURVE	TABLE	19
	Pt	T	Vf	Vm	Ach	Over
	#	s	V vs. Ref.	V	V	bits
	0	0.258333	6.97738E-003	6.97738E-003	5.33966E-004	...........
	1	0.516667	6.97972E-003	7.09942E-003	5.35566E-004	...........
	2	0.775	6.99220E-003	7.11925E-003	5.40299E-004	...........
	3	1.03333	7.02056E-003	7.09263E-003	5.39733E-004	...........
	4	1.29167	7.05664E-003	7.11586E-003	5.41766E-004	...........
	5	1.55	7.08696E-003	7.17282E-003	5.43199E-004	...........
	6	1.80833	7.11085E-003	7.23610E-003	5.45533E-004	...........
	7	2.06667	7.13914E-003	7.29873E-003	5.46033E-004	...........
	8	2.325	7.17982E-003	7.35833E-003	5.46766E-004	...........
	9	2.58333	7.23232E-003	7.42408E-003	5.44133E-004	...........
	10	2.84167	7.29201E-003	7.49314E-003	5.44466E-004	...........
	11	3.1	7.35518E-003	7.55286E-003	5.40366E-004	...........
	12	3.35833	7.41984E-003	7.62000E-003	5.41999E-004	...........
	13	3.61667	7.48439E-003	7.66088E-003	5.40999E-004	...........
	14	3.875	7.54728E-003	7.74365E-003	5.36399E-004	...........
	15	4.13333	7.60882E-003	7.81504E-003	5.35566E-004	...........
	16	4.39167	7.67177E-003	7.88271E-003	5.28633E-004	...........
	17	4.65	7.73795E-003	7.94217E-003	5.34200E-004	...........
	18	4.90833	7.80582E-003	8.00566E-003	5.32833E-004	...........
EOC	QUANT	0.0078058	Open Circuit (V)
PSTATMODEL	IQUANT	4	Pstat Model
PSTATSECTION	LABEL	REF600-11020	Pstat Section
PSTATSERIALNO	LABEL	11020	Pstat Serial Number
CTRLMODE	IQUANT	1	Control Mode
IESTAB	IQUANT	0	I/E Stability
CASPEED	IQUANT	1	Control Amp Speed
CONVENTION	IQUANT	1	Current Convention
ICHRANGE	IQUANT	2	Ich Range
ICHRANGEMODE	TOGGLE	F	Ich Auto Range
ICHOFFSETENABLE	TOGGLE	T	Ich Offset Enable
ICHOFFSET	QUANT	0	Ich Offset (V)
ICHFILTER	IQUANT	3	Ich Filter
VCHRANGE	IQUANT	2	Vch Range
VCHRANGEMODE	TOGGLE	F	Vch Auto Range
VCHOFFSETENABLE	TOGGLE	T	Vch Offset Enable
VCHOFFSET	QUANT	0	Vch Offset (V)
VCHFILTER	IQUANT	3	Vch Filter
ACHRANGE	IQUANT	2	Ach Range
ACHOFFSETENABLE	TOGGLE	F	Ach Offset Enable
ACHOFFSET	QUANT	0	Ach Offset (V)
ACHFILTER	IQUANT	3	Ach Filter
IERANGELOWERLIMIT	IQUANT	1	I/E Range Lower Limit
IERANGEMODE	TOGGLE	F	I/E AutoRange
IERANGE	IQUANT	5	I/E Range
POSFEEDENABLE	TOGGLE	F	Positive Feedback IR Comp
POSFEEDRESISTANCE	QUANT	0	Positive Feedback Resistance (ohm)
ACHSELECT	IQUANT	0	Ach Select
CABLEID	IQUANT	14	Cable ID
DCCALDATE	LABEL	8/19/2019	DC Calibration Date
ACCALDATE	LABEL	8/19/2019	AC Calibration Date
THERMOSELECT	IQUANT	1	Thermo Select
FRAMEWORKVERSION	QUANT	6.33	Framework Version
INSTRUMENTVERSION	LABEL	3.50	Instrument Version
ZCURVE	TABLE
	Pt	Time	Freq	Zreal	Zimag	Zsig	Zmod	Zphz	Idc	Vdc	IERange
	#	s	Hz	ohm	ohm	V	ohm	°	A	V	#
	0	2	1000078	2469.399	-1844.919	1	3082.476	-36.76387	2.358478E-006	0.0098329	8
	1	3	794390.6	2840.315	-1824.219	1	3375.672	-32.71099	3.043363E-006	0.0088042	8
	2	5	630984.4	3178.696	-1764.661	1	3635.675	-29.03695	-1.454744E-006	0.0097031	8
	3	6	501234.4	3483.673	-1656.111	1	3857.289	-25.42605	7.703027E-007	0.0091813	8
	4	8	398109.4	3734.555	-1535.879	1	4038.047	-22.35548	1.13298E-006	0.0092899	8
	5	10	316265.6	3985.91	-1415.953	1	4229.941	-19.55706	1.734248E-006	0.0087449	8
	6	11	251203.1	4150.187	-1300.8	1	4349.268	-17.40264	2.744199E-006	0.0087511	8
	7	13	199546.9	4341.93	-1162.728	1	4494.918	-14.99152	4.552773E-007	0.0091209	8
	8	14	158578.1	4482.266	-1075.533	1	4609.499	-13.49319	-5.541704E-006	0.0105775	8
	9	16	125953.1	4641.624	-891.7593	1	4726.511	-10.87528	6.975214E-007	0.0073352	7
	10	17	100078.1	4748.503	-826.748	1	4819.938	-9.8766	9.601229E-008	0.0092242	7
	11	19	79453.13	4821.817	-753.232	1	4880.295	-8.878607	-4.949348E-008	0.0092999	7
	12	20	63140.62	4897.096	-710.9061	1	4948.428	-8.259866	-8.347247E-009	0.0094105	7
	13	21	50203.12	4966.812	-687.2233	1	5014.13	-7.877603	9.689521E-008	0.0090552	7
	14	23	39890.62	5032.612	-675.9905	1	5077.809	-7.650293	-8.515929E-008	0.0093904	7
	15	24	31640.63	5094.888	-680.0864	1	5140.078	-7.603128	-6.310628E-008	0.0093829	7
	16	25	25171.88	5158.155	-698.4594	1	5205.229	-7.711448	-5.867286E-008	0.0093798	7
	17	27	20015.62	5209.418	-728.9046	1	5260.166	-7.965145	4.546321E-008	0.0090985	7
	18	28	15890.62	5292.635	-782.8176	1	5350.214	-8.413446	8.354184E-008	0.0091173	7
	19	29	12609.37	5371.464	-850.2736	1	5438.345	-8.994976	-2.805619E-008	0.0092374	7
	20	31	10078.13	5471.095	-948.6191	1	5552.725	-9.83657	-1.383081E-008	0.0093185	7
	21	32	8015.625	5536.27	-1047.084	1	5634.418	-10.70994	1.626683E-007	0.0090131	7
	22	33	6328.125	5628.317	-1186.706	1	5752.063	-11.90618	9.91549E-008	0.0090501	7
	23	35	5015.625	5734.852	-1348.669	1	5891.302	-13.23382	-5.347683E-008	0.00944	7
	24	36	3984.375	5834.707	-1552.126	1	6037.623	-14.89661	-8.994898E-008	0.0093941	7
	25	38	3170.956	5971.51	-1779.039	1	6230.884	-16.5899	2.079296E-008	0.0092387	8
	26	39	2527.573	6116.943	-2055.462	1	6453.055	-18.57377	-5.638771E-009	0.0092957	7
	27	41	1976.103	6293.48	-2416.391	1	6741.427	-21.00436	-5.366907E-008	0.0092828	7
	28	42	1577.524	6514.103	-2832.442	1	7103.257	-23.50022	-5.11465E-009	0.0092973	7
	29	43	1265.625	6642.67	-3299.252	1	7416.882	-26.41247	-5.37119E-008	0.0092848	7
	30	45	998.264	6858.491	-3919.871	1	7899.638	-29.7495	-4.685197E-008	0.0092798	7
	31	46	796.875	7090.611	-4635.985	1	8471.666	-33.17747	5.248837E-008	0.0091906	7
	32	48	627.7902	7369.784	-5566.006	1	9235.482	-37.06181	9.986665E-008	0.0090476	7
	33	49	505.5147	7659.587	-6594.548	1	10107.29	-40.72692	-4.973669E-009	0.0093625	6
	34	50	397.9953	8022.771	-7986.801	1	11320.5	-44.87127	9.217236E-010	0.00921	6
	35	52	315.5048	8424.858	-9657.69	1	12815.97	-48.90026	1.553431E-009	0.0092165	6
	36	53	252.4038	8877.324	-11626.24	1	14627.93	-52.63613	-5.75538E-010	0.0092162	6
	37	54	198.6229	9452.961	-14237.22	1	17089.67	-56.41738	4.322074E-010	0.0092127	6
	38	56	158.3615	10126.22	-17279.95	1	20028.41	-59.62929	-3.488123E-010	0.0092103	6
	39	57	125.558	10961.01	-21126.34	1	23800.55	-62.57829	9.175846E-010	0.0092167	6
	40	58	100.4464	12029.64	-25605.86	1	28290.85	-64.83585	3.21772E-010	0.0092104	6
	41	60	79.00281	13300.85	-31670.02	1	34349.71	-67.21844	3.120986E-010	0.0092147	6
	42	61	63.3446	15090.28	-39010.12	1	41827.1	-68.85204	5.102273E-011	0.0092112	6
	43	62	49.86702	17244.2	-46841.86	1	49915.15	-69.7895	-8.594053E-010	0.0092125	6
	44	64	39.72458	20752.02	-57409.58	1	61045.11	-70.12644	1.024231E-009	0.0092147	6
	45	65	31.6723	24318.22	-69801.8	1	73916.62	-70.7922	-7.57181E-010	0.0092088	6
	46	67	24.93351	30425.46	-85294.14	1	90558.27	-70.36806	6.315441E-010	0.0092085	6
	47	68	19.86229	37538.09	-102948.2	1	109578.4	-69.96658	8.439598E-010	0.0092194	5
	48	69	15.83615	47600.07	-123720	1	132560.9	-68.95625	-6.118405E-010	0.0092184	5
	49	71	12.40079	58377.53	-149491.7	1	160485.8	-68.66901	8.84867E-010	0.009219	5
	50	72	9.93114	76918.38	-175618	1	191724.1	-66.34721	-6.826398E-010	0.0092234	5
	51	74	7.944915	97089.4	-207569.7	1	229154	-64.93245	2.317349E-011	0.0092168	5
	52	75	6.317385	121753.7	-239988.4	1	269106.6	-63.09988	3.685742E-010	0.0092163	5
	53	77	5.008013	153152.4	-277072.6	1	316583.2	-61.06829	2.249507E-010	0.0092263	5
	54	80	3.945707	191013	-318404.3	1	371304.8	-59.04015	-2.249513E-010	0.0092123	5
	55	83	3.158693	231476.4	-359128.4	1	427264	-57.19618	2.0158E-010	0.009229	5
	56	86	2.504006	279170	-404374.1	1	491380	-55.37974	-4.484939E-010	0.0092097	5
	57	89	1.998082	329172.3	-449753.4	1	557344.2	-53.79979	-4.734465E-011	0.0091738	5
	58	92	1.584686	382712	-501847.4	1	631125.4	-52.67063	-1.808617E-010	0.0092063	5
	59	95	1.266892	439281.5	-557095.3	1	709452.9	-51.74347	7.235052E-011	0.009175	5
	60	100	0.999041	501282.6	-626026.9	1	801993.8	-51.31447	-1.258378E-010	0.0092533	5
