EXPLAIN
TAG	EISPOT
TITLE	LABEL	Potentiostatic EIS	Test &Identifier
DATE	LABEL	10/8/2019	Date
TIME	LABEL	8:57:21	Time
NOTES	NOTES	2	&Notes...
	
	
PSTAT	PSTAT	REF600-11020	Potentiostat
VDC	POTEN	0.00000E+000	T	DC &Voltage (V)
FREQINIT	QUANT	1.00000E+006	Initial Fre&q. (Hz)
FREQFINAL	QUANT	1.00000E+000	Final Fre&q. (Hz)
PTSPERDEC	QUANT	1.00000E+001	Points/&decade
VAC	QUANT	2.50000E+001	AC &Voltage (mV rms)
AREA	QUANT	1.00000E-002	&Area (cm^2)
CONDIT	TWOPARAM	T	5.00000E+000	0.00000E+000	Conditionin&g	Time(s)	E(V)
DELAY	TWOPARAM	T	5.00000E+000	0.00000E+000	Init. De&lay	Time(s)	Stab.(mV/s)
SPEED	SELECTOR	1	&Optimize for:
ZGUESS	QUANT	1.00000E+004	E&stimated Z (ohms)
OCVCURVE	TABLE	19
	Pt	T	Vf	Vm	Ach	Over
	#	s	V vs. Ref.	V	V	bits
	0	0.258333	5.82658E-003	5.82658E-003	5.48199E-004	...........
	1	0.516667	5.82390E-003	5.68646E-003	5.43766E-004	...........
	2	0.775	5.80974E-003	5.67312E-003	5.46133E-004	...........
	3	1.03333	5.77381E-003	5.47806E-003	5.48266E-004	...........
	4	1.29167	5.71119E-003	5.40519E-003	5.48266E-004	...........
	5	1.55	5.62512E-003	5.36233E-003	5.49733E-004	...........
	6	1.80833	5.53139E-003	5.40715E-003	5.40666E-004	...........
	7	2.06667	5.45118E-003	5.21837E-003	5.43133E-004	...........
	8	2.325	5.38823E-003	5.18206E-003	5.44699E-004	...........
	9	2.58333	5.32819E-003	5.13732E-003	5.40633E-004	...........
	10	2.84167	5.26406E-003	5.11841E-003	5.40199E-004	...........
	11	3.1	5.20427E-003	5.10829E-003	5.44999E-004	...........
	12	3.35833	5.15806E-003	5.08131E-003	5.50399E-004	...........
	13	3.61667	5.12610E-003	5.06291E-003	5.40366E-004	...........
	14	3.875	5.10320E-003	5.05467E-003	5.41299E-004	...........
	15	4.13333	5.08590E-003	5.10705E-003	5.43733E-004	...........
	16	4.39167	5.07464E-003	4.99750E-003	5.43166E-004	...........
	17	4.65	5.06662E-003	5.03994E-003	5.42533E-004	...........
	18	4.90833	5.05615E-003	5.02821E-003	5.49666E-004	...........
EOC	QUANT	0.0050562	Open Circuit (V)
PSTATMODEL	IQUANT	4	Pstat Model
PSTATSECTION	LABEL	REF600-11020	Pstat Section
PSTATSERIALNO	LABEL	11020	Pstat Serial Number
CTRLMODE	IQUANT	1	Control Mode
IESTAB	IQUANT	0	I/E Stability
CASPEED	IQUANT	1	Control Amp Speed
CONVENTION	IQUANT	1	Current Convention
ICHRANGE	IQUANT	2	Ich Range
ICHRANGEMODE	TOGGLE	F	Ich Auto Range
ICHOFFSETENABLE	TOGGLE	T	Ich Offset Enable
ICHOFFSET	QUANT	0	Ich Offset (V)
ICHFILTER	IQUANT	3	Ich Filter
VCHRANGE	IQUANT	2	Vch Range
VCHRANGEMODE	TOGGLE	F	Vch Auto Range
VCHOFFSETENABLE	TOGGLE	T	Vch Offset Enable
VCHOFFSET	QUANT	0	Vch Offset (V)
VCHFILTER	IQUANT	3	Vch Filter
ACHRANGE	IQUANT	2	Ach Range
ACHOFFSETENABLE	TOGGLE	F	Ach Offset Enable
ACHOFFSET	QUANT	0	Ach Offset (V)
ACHFILTER	IQUANT	3	Ach Filter
IERANGELOWERLIMIT	IQUANT	1	I/E Range Lower Limit
IERANGEMODE	TOGGLE	F	I/E AutoRange
IERANGE	IQUANT	5	I/E Range
POSFEEDENABLE	TOGGLE	F	Positive Feedback IR Comp
POSFEEDRESISTANCE	QUANT	0	Positive Feedback Resistance (ohm)
ACHSELECT	IQUANT	0	Ach Select
CABLEID	IQUANT	14	Cable ID
DCCALDATE	LABEL	8/19/2019	DC Calibration Date
ACCALDATE	LABEL	8/19/2019	AC Calibration Date
THERMOSELECT	IQUANT	1	Thermo Select
FRAMEWORKVERSION	QUANT	6.33	Framework Version
INSTRUMENTVERSION	LABEL	3.50	Instrument Version
ZCURVE	TABLE
	Pt	Time	Freq	Zreal	Zimag	Zsig	Zmod	Zphz	Idc	Vdc	IERange
	#	s	Hz	ohm	ohm	V	ohm	°	A	V	#
	0	2	1000078	2574.856	-1432.769	1	2946.645	-29.09359	-7.495648E-006	0.0086423	8
	1	3	794390.6	2827.821	-1319.798	1	3120.647	-25.01936	4.451552E-006	0.0062692	8
	2	4	630984.4	3053.245	-1176.304	1	3272.002	-21.06986	-3.717589E-006	0.007277	8
	3	6	501234.4	3210.173	-1033.01	1	3372.287	-17.83779	1.728731E-006	0.0063692	8
	4	7	398109.4	3338.785	-899.3881	1	3457.8	-15.07624	-1.208016E-006	0.0069627	8
	5	9	316265.6	3429.752	-769.204	1	3514.95	-12.64078	-2.673247E-006	0.0071258	8
	6	10	251203.1	3492.035	-663.5478	1	3554.519	-10.75894	-2.236624E-006	0.007044	8
	7	11	199546.9	3560.737	-568.8315	1	3605.886	-9.076369	-2.640345E-006	0.007115	8
	8	13	158578.1	3589.898	-512.9351	1	3626.358	-8.13155	-9.039874E-007	0.0069066	8
	9	14	125953.1	3646.507	-410.4829	1	3669.538	-6.422679	6.755193E-007	0.0051368	7
	10	15	100078.1	3682.775	-392.5537	1	3703.637	-6.084288	-3.19864E-008	0.0065625	7
	11	17	79453.13	3712.552	-380.7492	1	3732.026	-5.855626	4.243622E-008	0.0064017	7
	12	18	63140.62	3744.973	-377.9848	1	3764	-5.763415	1.365819E-007	0.0063319	7
	13	20	50203.12	3776.544	-384.1854	1	3796.035	-5.80868	-6.055906E-008	0.0067216	7
	14	21	39890.62	3811.095	-398.7893	1	3831.902	-5.973637	8.013203E-008	0.0063758	7
	15	22	31640.63	3848.918	-423.642	1	3872.162	-6.281138	-1.400895E-008	0.0066785	7
	16	24	25171.88	3889.568	-457.1287	1	3916.338	-6.703044	6.359455E-009	0.0064745	7
	17	25	20015.62	3925.687	-499.9532	1	3957.394	-7.257796	1.374226E-007	0.0063268	7
	18	26	15890.62	3982.077	-553.946	1	4020.422	-7.919582	9.07819E-008	0.0064729	7
	19	28	12609.37	4035.729	-617.8353	1	4082.748	-8.703913	6.453223E-009	0.0064718	7
	20	29	10078.13	4093.228	-694.9374	1	4151.801	-9.63564	-1.117419E-008	0.0064978	7
	21	30	8015.625	4156.113	-786.2703	1	4229.834	-10.71284	-4.93872E-008	0.0065744	7
	22	32	6328.125	4226.03	-900.9852	1	4321.007	-12.03521	-3.703396E-008	0.006556	7
	23	33	5015.625	4302.714	-1037.544	1	4426.042	-13.55732	-1.228841E-008	0.006675	7
	24	34	3984.375	4387.162	-1198.5	1	4547.922	-15.27944	8.303239E-008	0.0063649	7
	25	36	3170.956	4473.119	-1394.288	1	4685.385	-17.31246	8.12431E-008	0.0063621	7
	26	37	2527.573	4567.393	-1625.94	1	4848.171	-19.59515	-3.443986E-008	0.0065631	7
	27	39	1976.103	4685.178	-1940.652	1	5071.196	-22.49987	-1.505284E-008	0.0066706	7
	28	40	1577.524	4807.324	-2289.87	1	5324.835	-25.46984	-3.578224E-008	0.0065609	7
	29	41	1265.625	4935.065	-2707.199	1	5628.836	-28.74759	-5.934795E-008	0.0067051	7
	30	43	998.264	5097.153	-3252.698	1	6046.57	-32.54358	-1.324738E-008	0.0066769	7
	31	44	796.875	5270	-3880.408	1	6544.499	-36.36497	5.708416E-009	0.0064703	7
	32	45	627.7902	5472.356	-4701.435	1	7214.58	-40.66668	-1.06427E-008	0.0065006	7
	33	47	505.5147	5693.862	-5604.201	1	7989.188	-44.54531	-3.504246E-008	0.0065559	7
	34	48	397.9953	5968.269	-6836.366	1	9075.028	-48.87846	4.475984E-009	0.0065433	7
	35	49	315.5048	6279.975	-8312.052	1	10417.69	-52.92799	1.152873E-009	0.0064872	6
	36	51	252.4038	6629.913	-10061.72	1	12049.64	-56.61814	1.101215E-009	0.0064832	6
	37	52	198.6229	7082.83	-12383.98	1	14266.38	-60.23326	8.961442E-010	0.0064874	6
	38	54	158.3615	7614.346	-15099.6	1	16910.83	-63.23935	8.913056E-010	0.0064862	6
	39	55	125.558	8295.822	-18529.52	1	20301.82	-65.88154	7.382257E-010	0.0064858	6
	40	56	100.4464	9141.6	-22568.94	1	24350.07	-67.94949	1.141542E-009	0.0064868	6
	41	58	79.00281	10265.17	-27939.54	1	29765.62	-69.82634	6.723009E-010	0.006487	6
	42	59	63.3446	11675.58	-33744.89	1	35707.66	-70.91462	3.269926E-010	0.0064881	6
	43	60	49.86702	13837.87	-41817.93	1	44048	-71.69023	4.649808E-010	0.0064837	6
	44	62	39.72458	16201.11	-51087.61	1	53594.96	-72.40492	1.043765E-009	0.0064885	6
	45	63	31.6723	19446.81	-62076.95	1	65051.72	-72.60583	7.253952E-010	0.0064851	6
	46	65	24.93351	24079.84	-76105.45	1	79824.04	-72.44257	4.214862E-010	0.0064846	6
	47	66	19.86229	29721.27	-91917.57	1	96603.3	-72.08154	4.401508E-010	0.0064912	6
	48	67	15.83615	37067.63	-110428.9	1	116484.1	-71.44466	1.662773E-010	0.006492	5
	49	69	12.40079	47779.64	-134830.7	1	143046.2	-70.48732	1.283685E-009	0.0064909	5
	50	70	9.93114	58799.25	-160076.9	1	170534.4	-69.83077	1.10268E-010	0.0064966	5
	51	72	7.944915	73374.85	-189476.5	1	203187.6	-68.83109	4.280638E-010	0.0064984	5
	52	73	6.317385	91891.8	-224071.1	1	242181.7	-67.70142	3.122437E-010	0.0064992	5
	53	75	5.008013	114990.6	-264563.1	1	288472.7	-66.50815	3.684772E-010	0.0064991	5
	54	78	3.945707	143440.3	-312459.7	1	343811.2	-65.34165	7.495453E-011	0.0064897	5
	55	81	3.158693	175066.9	-363112.7	1	403112	-64.25997	2.485589E-010	0.0065092	5
	56	84	2.504006	214670.6	-423521.8	1	474820.2	-63.1209	-9.49307E-011	0.006485	5
	57	87	1.998082	258498.7	-489732.7	1	553768.7	-62.17328	-1.05388E-010	0.0064905	5
	58	90	1.584686	313330.6	-567259.1	1	648042.4	-61.08554	1.483477E-010	0.0065415	5
	59	93	1.266892	371958.3	-651177.3	1	749923.2	-60.2646	-1.438465E-010	0.0065056	5
	60	98	0.999041	444560.7	-754492.8	1	875724.6	-59.49265	2.477345E-010	0.0065013	5
