EXPLAIN
TAG	EISPOT
TITLE	LABEL	Potentiostatic IDE	Test &Identifier
DATE	LABEL	9/16/2019	Date
TIME	LABEL	7:53:33	Time
NOTES	NOTES	1	&Notes...
	
PSTAT	PSTAT	REF600-11020	Potentiostat
VDC	POTEN	0.00000E+000	T	DC &Voltage (V)
FREQINIT	QUANT	1.00000E+006	Initial Fre&q. (Hz)
FREQFINAL	QUANT	1.00000E+000	Final Fre&q. (Hz)
PTSPERDEC	QUANT	1.00000E+001	Points/&decade
VAC	QUANT	2.50000E+001	AC &Voltage (mV rms)
AREA	QUANT	1.00000E-002	&Area (cm^2)
CONDIT	TWOPARAM	T	5.00000E+000	0.00000E+000	Conditionin&g	Time(s)	E(V)
DELAY	TWOPARAM	T	5.00000E+000	0.00000E+000	Init. De&lay	Time(s)	Stab.(mV/s)
SPEED	SELECTOR	1	&Optimize for:
ZGUESS	QUANT	1.00000E+007	E&stimated Z (ohms)
OCVCURVE	TABLE	19
	Pt	T	Vf	Vm	Ach	Over
	#	s	V vs. Ref.	V	V	bits
	0	0.258333	3.10184E-005	3.10184E-005	5.68966E-004	...........
	1	0.516667	2.54611E-005	-2.59889E-004	5.67166E-004	...........
	2	0.775	-8.46270E-006	-5.25062E-004	5.70066E-004	...........
	3	1.03333	-1.03423E-004	-7.61997E-004	5.67199E-004	...........
	4	1.29167	-2.70362E-004	-9.79088E-004	5.71032E-004	...........
	5	1.55	-4.86515E-004	-1.17135E-003	5.75832E-004	...........
	6	1.80833	-7.17660E-004	-1.36171E-003	5.75666E-004	...........
	7	2.06667	-9.39884E-004	-1.49887E-003	5.76766E-004	...........
	8	2.325	-1.14293E-003	-1.67146E-003	5.70166E-004	...........
	9	2.58333	-1.32654E-003	-1.84532E-003	5.73366E-004	...........
	10	2.84167	-1.49696E-003	-1.98415E-003	5.74066E-004	...........
	11	3.1	-1.66014E-003	-2.11412E-003	5.72066E-004	...........
	12	3.35833	-1.81625E-003	-2.23775E-003	5.73266E-004	...........
	13	3.61667	-1.96240E-003	-2.35140E-003	5.73699E-004	...........
	14	3.875	-2.09745E-003	-2.46421E-003	5.76666E-004	...........
	15	4.13333	-2.22267E-003	-2.56995E-003	5.71832E-004	...........
	16	4.39167	-2.34022E-003	-2.67126E-003	5.73965E-004	...........
	17	4.65	-2.45572E-003	-2.97287E-003	5.73266E-004	...........
	18	4.90833	-2.58757E-003	-3.32968E-003	5.78199E-004	...........
EOC	QUANT	-0.0025876	Open Circuit (V)
PSTATMODEL	IQUANT	4	Pstat Model
PSTATSECTION	LABEL	REF600-11020	Pstat Section
PSTATSERIALNO	LABEL	11020	Pstat Serial Number
CTRLMODE	IQUANT	1	Control Mode
IESTAB	IQUANT	0	I/E Stability
CASPEED	IQUANT	1	Control Amp Speed
CONVENTION	IQUANT	1	Current Convention
ICHRANGE	IQUANT	2	Ich Range
ICHRANGEMODE	TOGGLE	F	Ich Auto Range
ICHOFFSETENABLE	TOGGLE	T	Ich Offset Enable
ICHOFFSET	QUANT	0	Ich Offset (V)
ICHFILTER	IQUANT	3	Ich Filter
VCHRANGE	IQUANT	2	Vch Range
VCHRANGEMODE	TOGGLE	F	Vch Auto Range
VCHOFFSETENABLE	TOGGLE	T	Vch Offset Enable
VCHOFFSET	QUANT	0	Vch Offset (V)
VCHFILTER	IQUANT	3	Vch Filter
ACHRANGE	IQUANT	2	Ach Range
ACHOFFSETENABLE	TOGGLE	F	Ach Offset Enable
ACHOFFSET	QUANT	0	Ach Offset (V)
ACHFILTER	IQUANT	3	Ach Filter
IERANGELOWERLIMIT	IQUANT	1	I/E Range Lower Limit
IERANGEMODE	TOGGLE	F	I/E AutoRange
IERANGE	IQUANT	2	I/E Range
POSFEEDENABLE	TOGGLE	F	Positive Feedback IR Comp
POSFEEDRESISTANCE	QUANT	0	Positive Feedback Resistance (ohm)
ACHSELECT	IQUANT	0	Ach Select
CABLEID	IQUANT	14	Cable ID
DCCALDATE	LABEL	8/19/2019	DC Calibration Date
ACCALDATE	LABEL	8/19/2019	AC Calibration Date
THERMOSELECT	IQUANT	1	Thermo Select
FRAMEWORKVERSION	QUANT	6.33	Framework Version
INSTRUMENTVERSION	LABEL	3.50	Instrument Version
ZCURVE	TABLE
	Pt	Time	Freq	Zreal	Zimag	Zsig	Zmod	Zphz	Idc	Vdc	IERange
	#	s	Hz	ohm	ohm	V	ohm	°	A	V	#
	0	2	1000078	2314.281	-1346.385	1	2677.433	-30.18968	-2.05927E-006	0.0001913	8
	1	4	794390.6	2565.293	-1259.577	1	2857.843	-26.15136	4.686985E-006	-0.0013723	8
	2	6	630984.4	2764.585	-1136.699	1	2989.15	-22.35073	-1.857069E-006	-0.0004722	8
	3	7	501234.4	2925.673	-996.918	1	3090.859	-18.81645	-8.750696E-007	-0.0004767	8
	4	8	398109.4	3089.433	-869.8549	1	3209.555	-15.725	7.339711E-008	-0.00101	8
	5	10	316265.6	3158.28	-747.2333	1	3245.472	-13.31113	-1.138097E-006	-0.0006791	8
	6	11	251203.1	3246.531	-679.0913	1	3316.795	-11.81447	2.146564E-006	-0.0015292	8
	7	12	199546.9	3318.888	-578.3652	1	3368.905	-9.88537	2.929601E-006	-0.0014973	8
	8	14	158578.1	3360.994	-507.3516	1	3399.072	-8.58415	-6.795707E-007	-0.0006095	8
	9	15	125953.1	3422.167	-420.5482	1	3447.91	-7.005921	-1.528076E-006	0.0021078	7
	10	17	100078.1	3448.941	-395.4247	1	3471.535	-6.540463	-3.612218E-009	-0.0010053	7
	11	18	79453.13	3481.189	-382.1891	1	3502.105	-6.265237	-4.666185E-008	-0.0009223	7
	12	19	63140.62	3516.434	-379.884	1	3536.894	-6.165811	-6.456345E-009	-0.0009344	7
	13	21	50203.12	3552.005	-384.7164	1	3572.778	-6.181589	2.335865E-008	-0.0010479	7
	14	22	39890.62	3588.424	-397.5492	1	3610.378	-6.321823	-1.489655E-008	-0.0009008	7
	15	23	31640.63	3627.524	-420.4702	1	3651.812	-6.61171	7.97507E-008	-0.0011015	7
	16	25	25171.88	3669.684	-450.133	1	3697.188	-6.993117	-1.825018E-008	-0.000982	7
	17	26	20015.62	3715.606	-489.0726	1	3747.655	-7.498543	3.712927E-008	-0.0009947	7
	18	27	15890.62	3766.719	-539.4473	1	3805.151	-8.150146	1.440251E-007	-0.0011726	7
	19	29	12609.37	3822.393	-597.8861	1	3868.87	-8.889982	-1.872993E-008	-0.0009856	7
	20	30	10078.13	3881.567	-668.1835	1	3938.659	-9.76732	9.168514E-008	-0.0011478	7
	21	31	8015.625	3948.009	-751.7982	1	4018.952	-10.78145	-5.40309E-009	-0.0009299	7
	22	33	6328.125	4022.512	-854.9568	1	4112.366	-11.99926	-3.442734E-008	-0.0009523	7
	23	34	5015.625	4101.444	-974.344	1	4215.589	-13.36354	2.126618E-008	-0.0010506	7
	24	35	3984.375	4188.458	-1117.307	1	4334.923	-14.93633	3.642917E-008	-0.0009934	7
	25	37	3170.956	4281.327	-1286.704	1	4470.5	-16.72755	3.821067E-008	-0.0009873	7
	26	38	2527.573	4381.867	-1487.575	1	4627.487	-18.75154	3.635728E-008	-0.0009989	7
	27	39	1976.103	4500.67	-1754.909	1	4830.708	-21.30189	-4.766664E-008	-0.0008201	7
	28	41	1577.524	4620.694	-2051.317	1	5055.563	-23.93842	-5.229636E-009	-0.0009338	7
	29	42	1265.625	4755.688	-2413.585	1	5333.101	-26.90849	4.904651E-008	-0.0011127	7
	30	43	998.264	4906.679	-2858.173	1	5678.437	-30.22108	3.786025E-008	-0.0009954	7
	31	45	796.875	5069.487	-3392.778	1	6100.053	-33.7926	-1.432618E-008	-0.0009026	7
	32	46	627.7902	5264.053	-4092.703	1	6667.868	-37.8644	-5.145503E-008	-0.0008552	7
	33	47	505.5147	5461.868	-4865.473	1	7314.699	-41.69489	8.539552E-008	-0.000984	7
	34	49	397.9953	5722.898	-5919.898	1	8233.879	-45.96937	5.931923E-009	-0.0009429	7
	35	50	315.5048	6025.329	-7190.622	1	9381.345	-50.03892	6.309854E-009	-0.0009469	7
	36	51	252.4038	6384.974	-8690.243	1	10783.7	-53.69419	1.78506E-009	-0.0010072	6
	37	53	198.6229	6871.661	-10674.19	1	12694.8	-57.22801	1.762816E-009	-0.0010026	6
	38	54	158.3615	7461.818	-12978.66	1	14970.78	-60.10412	1.965788E-009	-0.0010065	6
	39	55	125.558	8249.978	-15849.72	1	17868.29	-62.50245	1.309655E-009	-0.0010089	6
	40	57	100.4464	9260.525	-19198.65	1	21315.38	-64.24953	1.345595E-009	-0.001007	6
	41	58	79.00281	10588.88	-23539.12	1	25811.13	-65.77978	1.630769E-009	-0.00101	6
	42	59	63.3446	12468.87	-28514.71	1	31121.72	-66.38126	9.320723E-010	-0.0010074	6
	43	61	49.86702	14543.03	-34370.16	1	37320.34	-67.06534	8.298661E-010	-0.0010103	6
	44	62	39.72458	17646.59	-41404.49	1	45008.16	-66.9163	1.28579E-009	-0.0010039	6
	45	63	31.6723	21348.24	-49312.45	1	53735.14	-66.59135	1.607647E-009	-0.0010059	6
	46	65	24.93351	26422	-59224.38	1	64850.98	-65.95673	1.011769E-009	-0.001008	6
	47	66	19.86229	32485.73	-70040.11	1	77207.13	-65.11737	1.693437E-009	-0.0010096	6
	48	67	15.83615	39093.39	-81867.98	1	90722.98	-64.47472	1.972925E-009	-0.0010059	6
	49	69	12.40079	49039.05	-97732.9	1	109346	-63.35406	7.518445E-010	-0.001002	5
	50	70	9.93114	60344.07	-112455.7	1	127623.2	-61.78186	9.424771E-010	-0.0009983	5
	51	72	7.944915	72731.95	-129407.6	1	148446.2	-60.66237	1.935901E-009	-0.0010069	5
	52	73	6.317385	88037.72	-149209.4	1	173245.7	-59.4582	1.478888E-009	-0.0010128	5
	53	75	5.008013	106172	-171558.3	1	201754.2	-58.24794	3.353995E-010	-0.0010065	5
	54	78	3.945707	127724.7	-196732.3	1	234557.4	-57.00712	9.573392E-010	-0.0009952	5
	55	81	3.158693	150772.3	-223137.7	1	269300.4	-55.95343	2.946537E-010	-0.0010144	5
	56	84	2.504006	178354.2	-253654	1	310081.6	-54.88743	1.258079E-009	-0.001004	5
	57	87	1.998082	208135.4	-286639.2	1	354234.9	-54.01572	7.823196E-010	-0.0009675	5
	58	90	1.584686	242380.2	-322964.6	1	403799.8	-53.1123	8.01477E-010	-0.0010141	5
	59	93	1.266892	280428.9	-363631.9	1	459204.3	-52.36099	7.19929E-010	-0.0009585	5
	60	98	0.999041	324682.2	-411283.5	1	523996.8	-51.71115	4.031985E-010	-0.0010384	5
