EXPLAIN
TAG	EISPOT
TITLE	LABEL	Potentiostatic EIS	Test &Identifier
DATE	LABEL	8/14/2018	Date
TIME	LABEL	5:39:17	Time
NOTES	NOTES	1	&Notes...
	
PSTAT	PSTAT	REF600-11020	Potentiostat
VDC	POTEN	0.00000E+000	T	DC &Voltage (V)
FREQINIT	QUANT	1.00000E+006	Initial Fre&q. (Hz)
FREQFINAL	QUANT	1.00000E+000	Final Fre&q. (Hz)
PTSPERDEC	QUANT	1.00000E+001	Points/&decade
VAC	QUANT	2.50000E+001	AC &Voltage (mV rms)
AREA	QUANT	1.00000E-002	&Area (cm^2)
CONDIT	TWOPARAM	T	5.00000E+000	0.00000E+000	Conditionin&g	Time(s)	E(V)
DELAY	TWOPARAM	T	5.00000E+000	0.00000E+000	Init. De&lay	Time(s)	Stab.(mV/s)
SPEED	SELECTOR	0	&Optimize for:
ZGUESS	QUANT	1.00000E+005	E&stimated Z (ohms)
OCVCURVE	TABLE	19
	Pt	T	Vf	Vm	Ach	Over
	#	s	V vs. Ref.	V	V	bits
	0	0.258333	2.92864E-002	2.92864E-002	5.62332E-004	...........
	1	0.516667	2.93329E-002	3.17197E-002	5.60499E-004	...........
	2	0.775	2.96187E-002	3.40414E-002	5.63466E-004	...........
	3	1.03333	3.04278E-002	3.62609E-002	5.59366E-004	...........
	4	1.29167	3.18767E-002	3.83971E-002	5.58899E-004	...........
	5	1.55	3.38060E-002	4.04429E-002	5.59399E-004	...........
	6	1.80833	3.59500E-002	4.24220E-002	5.64432E-004	...........
	7	2.06667	3.81131E-002	4.43336E-002	5.64332E-004	...........
	8	2.325	4.02070E-002	4.61822E-002	5.62566E-004	...........
	9	2.58333	4.22132E-002	4.79680E-002	5.63232E-004	...........
	10	2.84167	4.41388E-002	4.96971E-002	5.61632E-004	...........
	11	3.1	4.59943E-002	5.13673E-002	5.62999E-004	...........
	12	3.35833	4.77870E-002	5.29926E-002	5.61099E-004	...........
	13	3.61667	4.95214E-002	5.45589E-002	5.64132E-004	...........
	14	3.875	5.12005E-002	5.60837E-002	5.59999E-004	...........
	15	4.13333	5.28272E-002	5.75766E-002	5.55766E-004	...........
	16	4.39167	5.44054E-002	5.90332E-002	5.58732E-004	...........
	17	4.65	5.59398E-002	6.04529E-002	5.57499E-004	...........
	18	4.90833	5.74347E-002	6.18263E-002	5.59366E-004	...........
EOC	QUANT	0.0574347	Open Circuit (V)
PSTATMODEL	IQUANT	4	Pstat Model
PSTATSECTION	LABEL	REF600-11020	Pstat Section
PSTATSERIALNO	LABEL	11020	Pstat Serial Number
CTRLMODE	IQUANT	1	Control Mode
IESTAB	IQUANT	0	I/E Stability
CASPEED	IQUANT	1	Control Amp Speed
CONVENTION	IQUANT	1	Current Convention
ICHRANGE	IQUANT	2	Ich Range
ICHRANGEMODE	TOGGLE	F	Ich Auto Range
ICHOFFSETENABLE	TOGGLE	T	Ich Offset Enable
ICHOFFSET	QUANT	0	Ich Offset (V)
ICHFILTER	IQUANT	3	Ich Filter
VCHRANGE	IQUANT	2	Vch Range
VCHRANGEMODE	TOGGLE	F	Vch Auto Range
VCHOFFSETENABLE	TOGGLE	T	Vch Offset Enable
VCHOFFSET	QUANT	0	Vch Offset (V)
VCHFILTER	IQUANT	3	Vch Filter
ACHRANGE	IQUANT	2	Ach Range
ACHOFFSETENABLE	TOGGLE	F	Ach Offset Enable
ACHOFFSET	QUANT	0	Ach Offset (V)
ACHFILTER	IQUANT	3	Ach Filter
IERANGELOWERLIMIT	IQUANT	1	I/E Range Lower Limit
IERANGEMODE	TOGGLE	F	I/E AutoRange
IERANGE	IQUANT	6	I/E Range
POSFEEDENABLE	TOGGLE	F	Positive Feedback IR Comp
POSFEEDRESISTANCE	QUANT	0	Positive Feedback Resistance (ohm)
ACHSELECT	IQUANT	0	Ach Select
CABLEID	IQUANT	14	Cable ID
DCCALDATE	LABEL	8/19/2019	DC Calibration Date
ACCALDATE	LABEL	8/19/2019	AC Calibration Date
THERMOSELECT	IQUANT	1	Thermo Select
FRAMEWORKVERSION	QUANT	6.33	Framework Version
INSTRUMENTVERSION	LABEL	3.50	Instrument Version
ZCURVE	TABLE
	Pt	Time	Freq	Zreal	Zimag	Zsig	Zmod	Zphz	Idc	Vdc	IERange
	#	s	Hz	ohm	ohm	V	ohm	°	A	V	#
	0	1	1000078	1989.499	-1139.487	1	2292.714	-29.80197	3.318673E-007	0.0595439	8
	1	2	794390.6	2158.102	-1156.015	1	2448.219	-28.17631	-1.203549E-006	0.0598035	8
	2	2	630984.4	2334.76	-1156.209	1	2605.364	-26.34533	-3.789067E-007	0.0590768	8
	3	2	501234.4	2502.23	-1151.64	1	2754.529	-24.71403	1.721688E-006	0.0587365	8
	4	3	398109.4	2680.561	-1148.109	1	2916.087	-23.1859	-6.020448E-007	0.0591443	8
	5	3	316265.6	2855.554	-1143.335	1	3075.94	-21.82067	-6.013081E-007	0.0592053	8
	6	3	251203.1	3029.873	-1131.914	1	3234.402	-20.48491	2.675323E-007	0.058947	8
	7	4	199546.9	3192.918	-1129.774	1	3386.904	-19.48568	6.498566E-008	0.0591355	8
	8	4	158578.1	3363.522	-1127.762	1	3547.552	-18.53589	5.086705E-007	0.0591003	8
	9	4	125953.1	3553.479	-1040.896	1	3702.793	-16.32652	2.490141E-007	0.0585764	7
	10	5	100078.1	3705.13	-1043.073	1	3849.154	-15.72304	-6.365163E-008	0.0591493	7
	11	5	79453.13	3845.549	-1049.064	1	3986.073	-15.25897	-6.376884E-008	0.0592378	7
	12	5	63140.62	3988.981	-1058.618	1	4127.063	-14.86287	8.208694E-008	0.0589686	7
	13	6	50203.12	4129.435	-1073.524	1	4266.695	-14.57254	-1.297914E-008	0.0590152	7
	14	6	39890.62	4273.443	-1095.469	1	4411.617	-14.3778	-1.36089E-008	0.0590115	7
	15	6	31640.63	4419.129	-1128.763	1	4561.009	-14.32849	-6.264216E-008	0.0592269	7
	16	7	25171.88	4566.489	-1168.183	1	4713.542	-14.34947	6.25218E-008	0.0589223	7
	17	7	20015.62	4716.221	-1220.442	1	4871.572	-14.50847	-6.264371E-008	0.059228	7
	18	7	15890.62	4877.36	-1277.039	1	5041.772	-14.67239	3.242706E-008	0.0589831	7
	19	8	12609.37	5046.895	-1354.444	1	5225.482	-15.02258	1.185311E-009	0.0589675	7
	20	8	10078.13	5217.078	-1400.463	1	5401.777	-15.02614	3.018926E-008	0.0589109	7
	21	8	8015.625	5412.993	-1526.573	1	5624.137	-15.74952	-2.867347E-008	0.0590186	7
	22	8	6328.125	5614.12	-1634.846	1	5847.313	-16.23569	-4.508351E-008	0.0590491	7
	23	9	5015.625	5825.885	-1753.351	1	6084.01	-16.74962	-6.007929E-008	0.0592173	7
	24	9	3984.375	6035.983	-1883.19	1	6322.934	-17.32761	-3.864013E-008	0.0591171	7
	25	9	3170.956	6247.189	-2019.82	1	6565.596	-17.91688	-2.90965E-008	0.059015	7
	26	10	2527.573	6454.727	-2193.816	1	6817.355	-18.77174	8.372029E-008	0.0589598	7
	27	10	1976.103	6673.191	-2430.445	1	7102.01	-20.01214	-5.5003E-008	0.0590911	7
	28	10	1577.524	6878.463	-2645.513	1	7369.667	-21.03715	-6.376357E-008	0.0591267	7
	29	11	1265.625	7036.352	-3059.12	1	7672.579	-23.49745	-1.228343E-008	0.0590093	7
	30	11	998.264	7245.571	-3547.317	1	8067.327	-26.08564	3.619476E-008	0.0589738	7
	31	11	796.875	7463.852	-4135.112	1	8532.773	-28.98726	-6.38678E-008	0.0591315	7
	32	12	627.7902	7730.048	-4916.589	1	9161.141	-32.45783	-9.818266E-009	0.0590676	7
	33	12	505.5147	8028.118	-5789.688	1	9898.04	-35.79825	-5.671887E-009	0.0588716	6
	34	12	397.9953	8418.404	-6987.265	1	10940.36	-39.69263	-2.511357E-009	0.0589892	6
	35	13	315.5048	8906.094	-8411.086	1	12250.1	-43.36266	-3.144375E-009	0.058989	6
	36	13	252.4038	9502.18	-10060.99	1	13838.89	-46.6362	-4.104884E-009	0.0589882	6
	37	13	198.6229	10323.66	-12193.01	1	15976.46	-49.74585	-3.277242E-009	0.0589877	6
	38	14	158.3615	11336.96	-14605.57	1	18489.17	-52.1811	-3.572435E-009	0.0589856	6
	39	14	125.558	12670.36	-17500.08	1	21605.35	-54.09482	-3.239366E-009	0.058983	6
	40	14	100.4464	14310.24	-20788.65	1	25237.88	-55.45773	-2.601577E-009	0.0589837	6
	41	15	79.00281	16501.99	-24794.17	1	29783.67	-56.35388	-2.120502E-009	0.0589748	6
	42	15	63.3446	19422.9	-28709.2	1	34662.18	-55.9201	-3.712268E-009	0.0589748	6
	43	15	49.86702	22861.49	-33879.08	1	40871.01	-55.98866	-4.404781E-009	0.0589775	6
	44	16	39.72458	26506.94	-39246.35	1	47359.2	-55.96495	-3.005186E-009	0.0589807	6
	45	16	31.6723	30809.48	-44872.87	1	54431.59	-55.52671	-3.416874E-009	0.0589794	6
	46	16	24.93351	36012.24	-51763.81	1	63058.49	-55.17355	-2.660573E-009	0.0589766	6
	47	17	19.86229	41312.59	-58993.32	1	72020.43	-54.99672	-1.41192E-009	0.0589799	6
	48	17	15.83615	47223.38	-67250.11	1	82174.36	-54.92327	-3.389319E-009	0.058979	6
	49	17	12.40079	53420.34	-77578.59	1	94192.2	-55.44884	-2.352351E-009	0.0589849	6
	50	18	9.93114	59881.66	-89442.52	1	107637.3	-56.19774	-2.572788E-009	0.0589768	5
	51	18	7.944915	66672.05	-103589.9	1	123191	-57.23405	-3.442811E-009	0.0589898	5
	52	19	6.317385	74832.02	-120904.9	1	142189.4	-58.24527	-3.071267E-009	0.058996	5
	53	20	5.008013	84410.56	-142510.3	1	165633.1	-59.36123	-2.665686E-009	0.058993	5
	54	21	3.945707	96273	-169359.7	1	194810.7	-60.3838	-2.839372E-009	0.0589782	5
	55	22	3.158693	109815	-199724.5	1	227923.7	-61.19658	-2.347814E-009	0.0589785	5
	56	24	2.504006	126673.7	-237051.3	1	268774.2	-61.88118	-2.414828E-009	0.0589836	5
	57	25	1.998082	146983.2	-280137.3	1	316355.8	-62.31478	-2.578227E-009	0.0589393	5
	58	26	1.584686	171683.2	-331528.3	1	373344.5	-62.62244	-2.370329E-009	0.0589678	5
	59	28	1.266892	202267.4	-389621.9	1	438995.8	-62.56448	-2.204038E-009	0.0590019	5
	60	31	0.999041	241435.3	-462360.3	1	521601.4	-62.42734	-2.097923E-009	0.0590148	5
