EXPLAIN
TAG	EISPOT
TITLE	LABEL	Potentiostatic EIS	Test &Identifier
DATE	LABEL	11/5/2019	Date
TIME	LABEL	10:41:12	Time
NOTES	NOTES	2	&Notes...
	
	
PSTAT	PSTAT	REF600-11020	Potentiostat
VDC	POTEN	0.00000E+000	T	DC &Voltage (V)
FREQINIT	QUANT	1.00000E+006	Initial Fre&q. (Hz)
FREQFINAL	QUANT	1.00000E+000	Final Fre&q. (Hz)
PTSPERDEC	QUANT	1.00000E+001	Points/&decade
VAC	QUANT	2.50000E+001	AC &Voltage (mV rms)
AREA	QUANT	1.00000E-002	&Area (cm^2)
CONDIT	TWOPARAM	T	5.00000E+000	0.00000E+000	Conditionin&g	Time(s)	E(V)
DELAY	TWOPARAM	T	5.00000E+000	0.00000E+000	Init. De&lay	Time(s)	Stab.(mV/s)
SPEED	SELECTOR	1	&Optimize for:
ZGUESS	QUANT	1.00000E+005	E&stimated Z (ohms)
OCVCURVE	TABLE	19
	Pt	T	Vf	Vm	Ach	Over
	#	s	V vs. Ref.	V	V	bits
	0	0.258333	8.15317E-003	8.15317E-003	5.72999E-004	...........
	1	0.516667	8.15399E-003	8.19601E-003	5.78332E-004	...........
	2	0.775	8.15935E-003	8.25412E-003	5.74732E-004	...........
	3	1.03333	8.17573E-003	8.31532E-003	5.79232E-004	...........
	4	1.29167	8.20776E-003	8.38064E-003	5.80999E-004	...........
	5	1.55	8.25481E-003	8.45193E-003	5.78299E-004	...........
	6	1.80833	8.31285E-003	8.52261E-003	5.76599E-004	...........
	7	2.06667	8.37765E-003	8.58982E-003	5.75832E-004	...........
	8	2.325	8.44605E-003	8.66728E-003	5.71032E-004	...........
	9	2.58333	8.51614E-003	8.73127E-003	5.68332E-004	...........
	10	2.84167	8.58680E-003	8.79956E-003	5.73999E-004	...........
	11	3.1	8.65686E-003	8.85960E-003	5.71032E-004	...........
	12	3.35833	8.72520E-003	8.92552E-003	5.72332E-004	...........
	13	3.61667	8.79142E-003	8.98612E-003	5.66099E-004	...........
	14	3.875	8.85610E-003	9.06079E-003	5.72366E-004	...........
	15	4.13333	8.92033E-003	9.11076E-003	5.72832E-004	...........
	16	4.39167	8.98441E-003	9.17657E-003	5.74966E-004	...........
	17	4.65	9.04747E-003	9.22759E-003	5.70732E-004	...........
	18	4.90833	9.10862E-003	9.28898E-003	5.72766E-004	...........
EOC	QUANT	0.0091086	Open Circuit (V)
PSTATMODEL	IQUANT	4	Pstat Model
PSTATSECTION	LABEL	REF600-11020	Pstat Section
PSTATSERIALNO	LABEL	11020	Pstat Serial Number
CTRLMODE	IQUANT	1	Control Mode
IESTAB	IQUANT	0	I/E Stability
CASPEED	IQUANT	1	Control Amp Speed
CONVENTION	IQUANT	1	Current Convention
ICHRANGE	IQUANT	2	Ich Range
ICHRANGEMODE	TOGGLE	F	Ich Auto Range
ICHOFFSETENABLE	TOGGLE	T	Ich Offset Enable
ICHOFFSET	QUANT	0	Ich Offset (V)
ICHFILTER	IQUANT	3	Ich Filter
VCHRANGE	IQUANT	2	Vch Range
VCHRANGEMODE	TOGGLE	F	Vch Auto Range
VCHOFFSETENABLE	TOGGLE	T	Vch Offset Enable
VCHOFFSET	QUANT	0	Vch Offset (V)
VCHFILTER	IQUANT	3	Vch Filter
ACHRANGE	IQUANT	2	Ach Range
ACHOFFSETENABLE	TOGGLE	F	Ach Offset Enable
ACHOFFSET	QUANT	0	Ach Offset (V)
ACHFILTER	IQUANT	3	Ach Filter
IERANGELOWERLIMIT	IQUANT	1	I/E Range Lower Limit
IERANGEMODE	TOGGLE	F	I/E AutoRange
IERANGE	IQUANT	5	I/E Range
POSFEEDENABLE	TOGGLE	F	Positive Feedback IR Comp
POSFEEDRESISTANCE	QUANT	0	Positive Feedback Resistance (ohm)
ACHSELECT	IQUANT	0	Ach Select
CABLEID	IQUANT	14	Cable ID
DCCALDATE	LABEL	8/19/2019	DC Calibration Date
ACCALDATE	LABEL	8/19/2019	AC Calibration Date
THERMOSELECT	IQUANT	1	Thermo Select
FRAMEWORKVERSION	QUANT	6.33	Framework Version
INSTRUMENTVERSION	LABEL	3.50	Instrument Version
ZCURVE	TABLE
	Pt	Time	Freq	Zreal	Zimag	Zsig	Zmod	Zphz	Idc	Vdc	IERange
	#	s	Hz	ohm	ohm	V	ohm	°	A	V	#
	0	1	1000078	2425.521	-2038.242	1	3168.215	-40.0414	6.899351E-006	0.0100751	8
	1	3	794390.6	2847.044	-2029.604	1	3496.42	-35.48436	6.307428E-006	0.009728	8
	2	4	630984.4	3252.519	-1943.805	1	3789.097	-30.86384	6.297743E-006	0.0092573	8
	3	6	501234.4	3625.215	-1817.94	1	4055.501	-26.63243	-1.198616E-006	0.0102536	8
	4	7	398109.4	3942.919	-1645.962	1	4272.681	-22.65798	-4.084096E-007	0.0110782	8
	5	9	316265.6	4199.334	-1450.446	1	4442.77	-19.05486	7.952934E-007	0.010953	8
	6	10	251203.1	4393.975	-1260.187	1	4571.114	-16.00283	-7.267868E-007	0.0101934	8
	7	11	199546.9	4544.094	-1099.987	1	4675.335	-13.6078	-4.794044E-007	0.0110287	8
	8	13	158578.1	4656.108	-970.985	1	4756.275	-11.77964	-3.08655E-006	0.0111184	8
	9	14	125953.1	4756.972	-735.6166	1	4813.513	-8.790572	-3.196793E-006	0.013071	7
	10	16	100078.1	4836.71	-634.8098	1	4878.191	-7.477232	1.71496E-007	0.0088538	7
	11	17	79453.13	4880.906	-584.8872	1	4915.825	-6.833267	4.194829E-007	0.0111461	7
	12	18	63140.62	4930.303	-525.9722	1	4958.279	-6.089369	6.003857E-007	0.0085063	7
	13	20	50203.12	4972.646	-490.8923	1	4996.817	-5.637888	6.013515E-007	0.0085048	7
	14	21	39890.62	5009.575	-468.8542	1	5031.468	-5.346828	9.460094E-007	0.0102762	7
	15	22	31640.63	5044.962	-454.1271	1	5065.36	-5.143672	1.703708E-007	0.0088417	7
	16	24	25171.88	5084.34	-455.6252	1	5104.714	-5.120794	1.283548E-006	0.0091856	7
	17	25	20015.62	5104.242	-467.4716	1	5125.604	-5.232832	-1.062855E-006	0.0124291	7
	18	27	15890.62	5142.022	-494.66	1	5165.761	-5.494916	-1.431286E-006	0.0121369	7
	19	28	12609.37	5176.481	-534.865	1	5204.041	-5.899209	-1.407169E-006	0.0116936	7
	20	29	10078.13	5234.537	-581.3608	1	5266.721	-6.337442	1.164359E-006	0.0085093	7
	21	31	8015.625	5266.376	-661.829	1	5307.799	-7.162849	4.227037E-007	0.0111398	7
	22	32	6328.125	5303.292	-755.8173	1	5356.88	-8.111088	4.942156E-008	0.0116268	7
	23	33	5015.625	5353.328	-881.9094	1	5425.485	-9.354905	6.856645E-007	0.0107597	7
	24	35	3984.375	5419.526	-1036.164	1	5517.689	-10.82381	-1.06356E-006	0.0124263	7
	25	36	3170.956	5456.808	-1221.494	1	5591.852	-12.61753	1.73104E-007	0.0088321	7
	26	37	2527.573	5519.07	-1455.552	1	5707.781	-14.77429	6.027251E-007	0.0084989	7
	27	39	1976.103	5584.022	-1758.112	1	5854.252	-17.47644	-1.406038E-006	0.0116836	7
	28	40	1577.524	5675.429	-2167.965	1	6075.406	-20.90643	-8.154666E-007	0.0102225	7
	29	41	1265.625	5764.313	-2540.632	1	6299.375	-23.78558	-3.183973E-007	0.0094266	7
	30	43	998.264	5876.427	-3097.247	1	6642.69	-27.79205	-3.687733E-007	0.0120762	7
	31	44	796.875	6003.22	-3757.218	1	7082.043	-32.04109	5.069986E-008	0.0116258	7
	32	46	627.7902	6155.946	-4628.434	1	7701.823	-36.93819	1.173573E-006	0.0096852	7
	33	47	505.5147	6325.673	-5571.626	1	8429.541	-41.37346	-3.283217E-007	0.0094254	7
	34	49	397.9953	6552.853	-6888.056	1	9507.11	-46.42861	2.67591E-009	0.0104946	7
	35	50	315.5048	6825.421	-8467.766	1	10876.09	-51.12954	1.124903E-009	0.0104418	6
	36	52	252.4038	7144.548	-10338.53	1	12567.01	-55.35319	3.393967E-010	0.0104262	6
	37	53	198.6229	7582.674	-12823.52	1	14897.64	-59.40376	9.518094E-010	0.0104227	6
	38	54	158.3615	8111.991	-15722.86	1	17692.17	-62.70916	1.253188E-009	0.0104231	6
	39	56	125.558	8818.521	-19394.5	1	21305.23	-65.54909	1.255825E-009	0.0104281	6
	40	57	100.4464	9712.1	-23734.23	1	25644.47	-67.74551	2.186496E-010	0.0104183	6
	41	58	79.00281	11049.66	-29395.53	1	31403.7	-69.39897	1.362256E-011	0.0104273	6
	42	60	63.3446	12917.61	-35573.47	1	37846.22	-70.04278	3.723121E-010	0.0104332	6
	43	61	49.86702	14935.91	-44572.32	1	47008.22	-71.47432	1.305626E-010	0.0104156	6
	44	63	39.72458	17722.96	-54039.2	1	56871.25	-71.84232	7.282949E-010	0.0104249	6
	45	64	31.6723	21820.6	-65506.3	1	69045.01	-71.57673	6.706989E-010	0.0104253	6
	46	65	24.93351	27105.17	-80189	1	84646.13	-71.32392	8.813161E-011	0.0104282	6
	47	67	19.86229	34062.77	-96385.4	1	102227.2	-70.53649	9.989347E-010	0.0104211	6
	48	68	15.83615	43798.77	-115124	1	123174.1	-69.17075	7.526246E-010	0.0104261	5
	49	69	12.40079	55747.9	-139583.3	1	150304.2	-68.22883	-3.739562E-010	0.0104248	5
	50	71	9.93114	69812.91	-163324.1	1	177619.3	-66.85571	4.330926E-010	0.0104355	5
	51	72	7.944915	87122.06	-191018.4	1	209948.3	-65.48263	1.021664E-010	0.010434	5
	52	74	6.317385	109084.7	-221814.8	1	247186.7	-63.81284	-1.331746E-010	0.0104346	5
	53	76	5.008013	134883	-256803.7	1	290071.7	-62.28985	2.852734E-011	0.0104328	5
	54	79	3.945707	165080.8	-296822.6	1	339639.9	-60.91895	4.001564E-010	0.0104346	5
	55	81	3.158693	197595.3	-339282.4	1	392627.6	-59.78383	2.244396E-011	0.0104302	5
	56	85	2.504006	235247.1	-388563.8	1	454227.9	-58.80814	3.163057E-010	0.010427	5
	57	87	1.998082	275584.3	-442914.1	1	521650.9	-58.10983	-1.037517E-010	0.0104653	5
	58	90	1.584686	322553.6	-508371.8	1	602065.4	-57.60555	1.767051E-010	0.0104712	5
	59	94	1.266892	373493.3	-579427.1	1	689371.4	-57.19455	-1.005897E-010	0.0104637	5
	60	98	0.999041	433104.9	-667950.1	1	796076.1	-57.04026	2.299148E-010	0.010419	5
