EXPLAIN
TAG	EISPOT
TITLE	LABEL	Potentiostatic IDE	Test &Identifier
DATE	LABEL	9/18/2019	Date
TIME	LABEL	9:01:08	Time
NOTES	NOTES	1	&Notes...
	
PSTAT	PSTAT	REF600-11020	Potentiostat
VDC	POTEN	0.00000E+000	T	DC &Voltage (V)
FREQINIT	QUANT	1.00000E+006	Initial Fre&q. (Hz)
FREQFINAL	QUANT	1.00000E+000	Final Fre&q. (Hz)
PTSPERDEC	QUANT	1.00000E+001	Points/&decade
VAC	QUANT	2.50000E+001	AC &Voltage (mV rms)
AREA	QUANT	1.00000E-002	&Area (cm^2)
CONDIT	TWOPARAM	T	5.00000E+000	0.00000E+000	Conditionin&g	Time(s)	E(V)
DELAY	TWOPARAM	T	5.00000E+000	0.00000E+000	Init. De&lay	Time(s)	Stab.(mV/s)
SPEED	SELECTOR	1	&Optimize for:
ZGUESS	QUANT	1.00000E+007	E&stimated Z (ohms)
OCVCURVE	TABLE	19
	Pt	T	Vf	Vm	Ach	Over
	#	s	V vs. Ref.	V	V	bits
	0	0.258333	2.25958E-003	2.25958E-003	5.67566E-004	...........
	1	0.516667	2.25247E-003	1.88744E-003	5.66999E-004	...........
	2	0.775	2.20935E-003	1.56248E-003	5.68432E-004	...........
	3	1.03333	2.08885E-003	1.23672E-003	5.62466E-004	...........
	4	1.29167	1.87632E-003	9.65733E-004	5.63566E-004	...........
	5	1.55	1.59910E-003	7.01856E-004	5.65699E-004	...........
	6	1.80833	1.29976E-003	4.45296E-004	5.66866E-004	...........
	7	2.06667	1.00766E-003	2.11748E-004	5.66732E-004	...........
	8	2.325	7.33476E-004	-1.84505E-005	5.65332E-004	...........
	9	2.58333	4.77269E-004	-2.34366E-004	5.68599E-004	...........
	10	2.84167	2.36252E-004	-4.34481E-004	5.68566E-004	...........
	11	3.1	8.40922E-006	-6.21435E-004	5.68399E-004	...........
	12	3.35833	-2.06857E-004	-8.07060E-004	5.63799E-004	...........
	13	3.61667	-4.10252E-004	-9.87720E-004	5.60832E-004	...........
	14	3.875	-6.03666E-004	-1.15786E-003	5.63666E-004	...........
	15	4.13333	-7.89166E-004	-1.32249E-003	5.64199E-004	...........
	16	4.39167	-9.67688E-004	-1.47653E-003	5.65532E-004	...........
	17	4.65	-1.13946E-003	-1.64354E-003	5.63999E-004	...........
	18	4.90833	-1.30528E-003	-1.78808E-003	5.63099E-004	...........
EOC	QUANT	-0.0013053	Open Circuit (V)
PSTATMODEL	IQUANT	4	Pstat Model
PSTATSECTION	LABEL	REF600-11020	Pstat Section
PSTATSERIALNO	LABEL	11020	Pstat Serial Number
CTRLMODE	IQUANT	1	Control Mode
IESTAB	IQUANT	0	I/E Stability
CASPEED	IQUANT	1	Control Amp Speed
CONVENTION	IQUANT	1	Current Convention
ICHRANGE	IQUANT	2	Ich Range
ICHRANGEMODE	TOGGLE	F	Ich Auto Range
ICHOFFSETENABLE	TOGGLE	T	Ich Offset Enable
ICHOFFSET	QUANT	0	Ich Offset (V)
ICHFILTER	IQUANT	3	Ich Filter
VCHRANGE	IQUANT	2	Vch Range
VCHRANGEMODE	TOGGLE	F	Vch Auto Range
VCHOFFSETENABLE	TOGGLE	T	Vch Offset Enable
VCHOFFSET	QUANT	0	Vch Offset (V)
VCHFILTER	IQUANT	3	Vch Filter
ACHRANGE	IQUANT	2	Ach Range
ACHOFFSETENABLE	TOGGLE	F	Ach Offset Enable
ACHOFFSET	QUANT	0	Ach Offset (V)
ACHFILTER	IQUANT	3	Ach Filter
IERANGELOWERLIMIT	IQUANT	1	I/E Range Lower Limit
IERANGEMODE	TOGGLE	F	I/E AutoRange
IERANGE	IQUANT	2	I/E Range
POSFEEDENABLE	TOGGLE	F	Positive Feedback IR Comp
POSFEEDRESISTANCE	QUANT	0	Positive Feedback Resistance (ohm)
ACHSELECT	IQUANT	0	Ach Select
CABLEID	IQUANT	14	Cable ID
DCCALDATE	LABEL	8/19/2019	DC Calibration Date
ACCALDATE	LABEL	8/19/2019	AC Calibration Date
THERMOSELECT	IQUANT	1	Thermo Select
FRAMEWORKVERSION	QUANT	6.33	Framework Version
INSTRUMENTVERSION	LABEL	3.50	Instrument Version
ZCURVE	TABLE
	Pt	Time	Freq	Zreal	Zimag	Zsig	Zmod	Zphz	Idc	Vdc	IERange
	#	s	Hz	ohm	ohm	V	ohm	°	A	V	#
	0	2	1000078	2238.655	-1950.016	1	2968.862	-41.05801	8.940003E-007	0.0005858	8
	1	4	794390.6	2656.597	-1924.788	1	3280.597	-35.92451	-3.704591E-006	0.0013806	8
	2	5	630984.4	3050.606	-1835.115	1	3560.034	-31.02932	2.119104E-006	0.0002065	8
	3	6	501234.4	3380.968	-1695.864	1	3782.447	-26.63795	5.95752E-007	0.000241	8
	4	8	398109.4	3651.456	-1519.976	1	3955.181	-22.60029	-7.736256E-008	0.0003694	8
	5	9	316265.6	3886.507	-1327.061	1	4106.827	-18.85265	-4.642317E-007	0.0004581	8
	6	10	251203.1	4070.986	-1157.327	1	4232.296	-15.86974	3.954844E-006	-0.0005029	8
	7	12	199546.9	4184.331	-1004.415	1	4303.194	-13.49801	2.008092E-006	-8.668101E-005	8
	8	13	158578.1	4292.346	-872.1823	1	4380.062	-11.48583	2.997706E-007	0.0002757	8
	9	14	125953.1	4378.092	-740.9573	1	4440.35	-9.60583	-1.10721E-006	0.0027173	7
	10	16	100078.1	4431.053	-656.8528	1	4479.474	-8.432036	1.378387E-008	0.0003198	7
	11	17	79453.13	4481.716	-600.0878	1	4521.712	-7.626366	-5.002789E-008	0.000375	7
	12	18	63140.62	4528.874	-560.0712	1	4563.374	-7.04979	-5.019669E-008	0.0003703	7
	13	20	50203.12	4572.462	-535.1424	1	4603.671	-6.675297	2.355798E-009	0.0002915	7
	14	21	39890.62	4613.644	-526.6991	1	4643.61	-6.51276	2.248509E-008	0.0003019	7
	15	22	31640.63	4656.262	-529.921	1	4686.319	-6.492796	-2.12115E-008	0.0003278	7
	16	24	25171.88	4697.797	-548.4404	1	4729.703	-6.658805	-5.001855E-008	0.0003576	7
	17	25	20015.62	4741.638	-581.9314	1	4777.214	-6.996803	4.775727E-008	0.0002409	7
	18	26	15890.62	4790.916	-631.5478	1	4832.362	-7.509543	1.924872E-008	0.0002075	7
	19	28	12609.37	4837.794	-696.2448	1	4887.639	-8.18965	-4.248255E-009	0.0002423	7
	20	29	10078.13	4889.59	-778.7611	1	4951.218	-9.049446	8.157127E-008	0.0001411	7
	21	30	8015.625	4947.104	-886.1255	1	5025.838	-10.15513	-4.959817E-008	0.0003564	7
	22	32	6328.125	5012.229	-1024.261	1	5115.814	-11.54951	-2.905632E-008	0.0003014	7
	23	33	5015.625	5082.08	-1192.933	1	5220.213	-13.21006	-4.939972E-008	0.000359	7
	24	34	3984.375	5161.599	-1398.36	1	5347.665	-15.15848	-1.689842E-008	0.0002725	7
	25	36	3170.956	5250.42	-1650.657	1	5503.779	-17.4524	-1.843611E-008	0.0003046	7
	26	37	2527.573	5350.658	-1955.895	1	5696.935	-20.07953	-2.638649E-009	0.0003323	7
	27	38	1976.103	5476.272	-2357.933	1	5962.333	-23.29539	-4.643994E-008	0.0003537	7
	28	40	1577.524	5611.02	-2814.317	1	6277.255	-26.63695	7.663666E-008	0.0001452	7
	29	41	1265.625	5769.436	-3351.57	1	6672.287	-30.15308	-2.617969E-008	0.0003013	7
	30	42	998.264	5957.757	-4057.084	1	7207.968	-34.25389	-2.446905E-008	0.0003649	7
	31	44	796.875	6176.538	-4875.333	1	7868.831	-38.28513	-2.702137E-008	0.0003031	7
	32	45	627.7902	6452.559	-5931.731	1	8764.756	-42.59182	-2.213072E-008	0.000321	7
	33	46	505.5147	6754.263	-7090.818	1	9792.84	-46.39251	2.406336E-009	8.224935E-005	6
	34	48	397.9953	7147.533	-8657.704	1	11226.89	-50.45797	1.02868E-009	0.0002339	6
	35	49	315.5048	7611.843	-10520.34	1	12985.29	-54.1129	1.453104E-009	0.0002299	6
	36	50	252.4038	8148.687	-12700.67	1	15090	-57.31596	8.094156E-010	0.0002289	6
	37	52	198.6229	8856.675	-15561.68	1	17905.49	-60.35434	1.414365E-009	0.0002344	6
	38	53	158.3615	9690.11	-18877.73	1	21219.5	-62.82815	1.576205E-009	0.0002263	6
	39	54	125.558	10758.53	-23027.71	1	25416.95	-64.95805	1.320233E-009	0.000229	6
	40	56	100.4464	12036.4	-27880.98	1	30368.14	-66.64983	1.052667E-009	0.0002192	6
	41	57	79.00281	13890.51	-34338.63	1	37041.71	-67.9759	1.211952E-009	0.0002235	6
	42	58	63.3446	15814.55	-41292.5	1	44217.31	-69.04374	5.723392E-010	0.0002211	6
	43	60	49.86702	19495.94	-50642.67	1	54265.75	-68.94476	1.144754E-009	0.0002275	6
	44	61	39.72458	23237.4	-61334.93	1	65589.26	-69.25027	6.319955E-010	0.0002302	6
	45	63	31.6723	28766.27	-73743.44	1	79155.5	-68.68995	4.27478E-010	0.0002306	6
	46	64	24.93351	36063.75	-89180.73	1	96196.7	-67.98211	1.339353E-009	0.00023	6
	47	65	19.86229	45254.36	-106102	1	115349.9	-66.9009	5.746513E-010	0.0002327	5
	48	67	15.83615	56829.42	-124646.8	1	136990.5	-65.49063	3.767897E-010	0.0002369	5
	49	68	12.40079	73253.82	-148287.5	1	165394.4	-63.71069	9.606766E-010	0.0002301	5
	50	69	9.93114	90246.98	-171042.7	1	193391.1	-62.1826	6.961876E-010	0.0002319	5
	51	71	7.944915	111001.9	-195616.8	1	224916.3	-60.42745	1.218313E-009	0.0002261	5
	52	72	6.317385	136307.9	-222724.5	1	261124.6	-58.53328	5.103258E-010	0.0002226	5
	53	74	5.008013	164702.9	-252404.5	1	301388.6	-56.87413	8.800317E-011	0.0002254	5
	54	77	3.945707	196674	-285462.6	1	346654.8	-55.43449	6.348044E-010	0.0002387	5
	55	80	3.158693	229536	-319310.8	1	393250.8	-54.2896	2.573241E-010	0.000231	5
	56	83	2.504006	265573.1	-359314.7	1	446806.6	-53.53152	3.002553E-010	0.0002198	5
	57	86	1.998082	302855.4	-404731.2	1	505498.5	-53.19294	1.837884E-011	0.0002197	5
	58	89	1.584686	345328.3	-457119.1	1	572895.8	-52.93096	2.345864E-010	0.000269	5
	59	92	1.266892	389899.5	-519742.9	1	649734	-53.12359	1.054208E-010	0.0001951	5
	60	97	0.999041	443526.6	-595091.1	1	742192.1	-53.30252	3.798309E-010	0.0002736	5
