EXPLAIN
TAG	EISPOT
TITLE	LABEL	Potentiostatic EIS	Test &Identifier
DATE	LABEL	9/24/2019	Date
TIME	LABEL	9:18:43	Time
NOTES	NOTES	1	&Notes...
	
PSTAT	PSTAT	REF600-11020	Potentiostat
VDC	POTEN	0.00000E+000	T	DC &Voltage (V)
FREQINIT	QUANT	1.00000E+006	Initial Fre&q. (Hz)
FREQFINAL	QUANT	1.00000E+000	Final Fre&q. (Hz)
PTSPERDEC	QUANT	1.00000E+001	Points/&decade
VAC	QUANT	2.50000E+001	AC &Voltage (mV rms)
AREA	QUANT	1.00000E-002	&Area (cm^2)
CONDIT	TWOPARAM	T	5.00000E+000	0.00000E+000	Conditionin&g	Time(s)	E(V)
DELAY	TWOPARAM	T	5.00000E+000	0.00000E+000	Init. De&lay	Time(s)	Stab.(mV/s)
SPEED	SELECTOR	1	&Optimize for:
ZGUESS	QUANT	1.00000E+004	E&stimated Z (ohms)
OCVCURVE	TABLE	19
	Pt	T	Vf	Vm	Ach	Over
	#	s	V vs. Ref.	V	V	bits
	0	0.258333	3.23272E-002	3.23272E-002	5.70599E-004	...........
	1	0.516667	3.23625E-002	3.41760E-002	5.69032E-004	...........
	2	0.775	3.25787E-002	3.58943E-002	5.65866E-004	...........
	3	1.03333	3.31909E-002	3.76799E-002	5.67732E-004	...........
	4	1.29167	3.42865E-002	3.90400E-002	5.71432E-004	...........
	5	1.55	3.57314E-002	4.03806E-002	5.67832E-004	...........
	6	1.80833	3.72913E-002	4.15032E-002	5.68932E-004	...........
	7	2.06667	3.87883E-002	4.26900E-002	5.69099E-004	...........
	8	2.325	4.01559E-002	4.38384E-002	5.65399E-004	...........
	9	2.58333	4.14088E-002	4.48975E-002	5.64366E-004	...........
	10	2.84167	4.25831E-002	4.58418E-002	5.65332E-004	...........
	11	3.1	4.36948E-002	4.67098E-002	5.71699E-004	...........
	12	3.35833	4.47390E-002	4.75708E-002	5.66566E-004	...........
	13	3.61667	4.57116E-002	4.83747E-002	5.71299E-004	...........
	14	3.875	4.66207E-002	4.92149E-002	5.67499E-004	...........
	15	4.13333	4.74826E-002	4.99384E-002	5.71332E-004	...........
	16	4.39167	4.83082E-002	5.06151E-002	5.72199E-004	...........
	17	4.65	4.90957E-002	5.12572E-002	5.69799E-004	...........
	18	4.90833	4.98377E-002	5.18636E-002	5.71566E-004	...........
EOC	QUANT	0.0498377	Open Circuit (V)
PSTATMODEL	IQUANT	4	Pstat Model
PSTATSECTION	LABEL	REF600-11020	Pstat Section
PSTATSERIALNO	LABEL	11020	Pstat Serial Number
CTRLMODE	IQUANT	1	Control Mode
IESTAB	IQUANT	0	I/E Stability
CASPEED	IQUANT	1	Control Amp Speed
CONVENTION	IQUANT	1	Current Convention
ICHRANGE	IQUANT	2	Ich Range
ICHRANGEMODE	TOGGLE	F	Ich Auto Range
ICHOFFSETENABLE	TOGGLE	T	Ich Offset Enable
ICHOFFSET	QUANT	0	Ich Offset (V)
ICHFILTER	IQUANT	3	Ich Filter
VCHRANGE	IQUANT	2	Vch Range
VCHRANGEMODE	TOGGLE	F	Vch Auto Range
VCHOFFSETENABLE	TOGGLE	T	Vch Offset Enable
VCHOFFSET	QUANT	0	Vch Offset (V)
VCHFILTER	IQUANT	3	Vch Filter
ACHRANGE	IQUANT	2	Ach Range
ACHOFFSETENABLE	TOGGLE	F	Ach Offset Enable
ACHOFFSET	QUANT	0	Ach Offset (V)
ACHFILTER	IQUANT	3	Ach Filter
IERANGELOWERLIMIT	IQUANT	1	I/E Range Lower Limit
IERANGEMODE	TOGGLE	F	I/E AutoRange
IERANGE	IQUANT	6	I/E Range
POSFEEDENABLE	TOGGLE	F	Positive Feedback IR Comp
POSFEEDRESISTANCE	QUANT	0	Positive Feedback Resistance (ohm)
ACHSELECT	IQUANT	0	Ach Select
CABLEID	IQUANT	14	Cable ID
DCCALDATE	LABEL	8/19/2019	DC Calibration Date
ACCALDATE	LABEL	8/19/2019	AC Calibration Date
THERMOSELECT	IQUANT	1	Thermo Select
FRAMEWORKVERSION	QUANT	6.33	Framework Version
INSTRUMENTVERSION	LABEL	3.50	Instrument Version
ZCURVE	TABLE
	Pt	Time	Freq	Zreal	Zimag	Zsig	Zmod	Zphz	Idc	Vdc	IERange
	#	s	Hz	ohm	ohm	V	ohm	°	A	V	#
	0	2	1000078	2068.797	-1616.178	1	2625.253	-37.99754	2.557222E-006	0.0518001	8
	1	3	794390.6	2382.501	-1608.871	1	2874.853	-34.03062	1.064761E-006	0.0512241	8
	2	4	630984.4	2703.854	-1535.151	1	3109.263	-29.58635	9.149587E-007	0.0510852	8
	3	6	501234.4	2979.862	-1424.247	1	3302.735	-25.54581	-1.798556E-006	0.0517558	8
	4	7	398109.4	3211.328	-1283.542	1	3458.339	-21.7862	-2.860227E-006	0.052023	8
	5	9	316265.6	3383.604	-1147.786	1	3572.98	-18.73796	4.008406E-007	0.0515267	8
	6	10	251203.1	3541.197	-1013.587	1	3683.4	-15.97256	2.10899E-007	0.0515256	8
	7	11	199546.9	3645.218	-917.7655	1	3758.977	-14.13179	-4.827527E-007	0.0514699	8
	8	13	158578.1	3733.336	-821.0251	1	3822.549	-12.4029	1.549938E-006	0.0509667	8
	9	14	125953.1	3823.121	-694.108	1	3885.62	-10.29027	4.70879E-007	0.049863	7
	10	15	100078.1	3883.094	-642.0756	1	3935.82	-9.388991	-2.522767E-008	0.0513177	7
	11	17	79453.13	3937.148	-616.8638	1	3985.179	-8.904586	-6.255777E-008	0.0514115	7
	12	18	63140.62	3991.632	-607.8896	1	4037.655	-8.659099	-3.936864E-008	0.0513629	7
	13	19	50203.12	4045.781	-610.809	1	4091.63	-8.585353	1.216799E-007	0.0511424	7
	14	21	39890.62	4103.194	-630.7502	1	4151.391	-8.7392	1.253843E-008	0.0512515	7
	15	22	31640.63	4163.411	-663.2568	1	4215.91	-9.051508	7.126363E-008	0.0511917	7
	16	23	25171.88	4230.178	-711.9772	1	4289.675	-9.55386	7.103077E-008	0.0511904	7
	17	25	20015.62	4305.267	-772.4631	1	4374.017	-10.17194	-4.122518E-008	0.0514011	7
	18	26	15890.62	4385.215	-849.4007	1	4466.72	-10.96224	-4.052973E-008	0.0514577	7
	19	28	12609.37	4476.91	-942.5626	1	4575.057	-11.88934	-3.185045E-008	0.0513311	7
	20	29	10078.13	4576.755	-1048.992	1	4695.431	-12.90923	-3.984159E-009	0.0514224	7
	21	30	8015.625	4691.205	-1174.889	1	4836.09	-14.06024	-2.640216E-009	0.0513464	7
	22	32	6328.125	4820.176	-1327.385	1	4999.605	-15.39654	-1.560383E-009	0.0512519	7
	23	33	5015.625	4966.219	-1501.289	1	5188.179	-16.82008	1.231863E-007	0.0511342	7
	24	34	3984.375	5128.989	-1700.923	1	5403.671	-18.34704	-3.01971E-008	0.0513211	7
	25	36	3170.956	5307.265	-1931.324	1	5647.75	-19.99655	-6.079658E-008	0.0514109	7
	26	37	2527.573	5507.883	-2190.687	1	5927.553	-21.68952	-3.370852E-008	0.0513251	7
	27	38	1976.103	5753.05	-2521.02	1	6281.172	-23.66331	-2.920125E-009	0.0513522	7
	28	40	1577.524	6006.728	-2868.846	1	6656.655	-25.52939	-1.902019E-009	0.0513502	7
	29	41	1265.625	6287.314	-3233.477	1	7070.056	-27.21612	-3.947854E-008	0.0514501	7
	30	42	998.264	6603.84	-3744.028	1	7591.34	-29.55094	-2.257783E-008	0.0513042	7
	31	44	796.875	6940.441	-4280.406	1	8154.238	-31.66355	7.630804E-008	0.0512717	7
	32	45	627.7902	7315.296	-4944.835	1	8829.776	-34.05705	-2.878448E-009	0.0513439	7
	33	47	505.5147	7666.884	-5660.671	1	9530.18	-36.43947	8.923912E-010	0.0512911	6
	34	48	397.9953	8068.201	-6621.174	1	10437.23	-39.37403	1.280958E-009	0.0512711	6
	35	49	315.5048	8463.336	-7775.511	1	11492.89	-42.57459	-2.007297E-010	0.0512704	6
	36	51	252.4038	8852.303	-9152.555	1	12733.13	-45.95539	-1.460144E-010	0.0512701	6
	37	52	198.6229	9298.182	-11006.14	1	14408.03	-49.80829	4.302624E-010	0.0512663	6
	38	53	158.3615	9763.17	-13202.83	1	16420.54	-53.518	5.131355E-010	0.0512619	6
	39	55	125.558	10304.13	-16023.53	1	19050.68	-57.25644	3.402637E-010	0.0512675	6
	40	56	100.4464	10933.44	-19369.36	1	22242.13	-60.55654	1.062744E-009	0.0512634	6
	41	58	79.00281	11773.35	-23952.55	1	26689.63	-63.8246	1.118977E-009	0.0512622	6
	42	59	63.3446	12456.69	-29126.87	1	31678.76	-66.84506	5.832774E-010	0.0512642	6
	43	60	49.86702	14151.29	-35714.99	1	38416.39	-68.38513	3.919262E-010	0.051261	6
	44	62	39.72458	15741.26	-43883.32	1	46621.16	-70.26673	6.507452E-010	0.0512637	6
	45	63	31.6723	18013.56	-53766.92	1	56704.23	-71.47757	5.113052E-010	0.0512602	6
	46	64	24.93351	20985.43	-66340.12	1	69580.16	-72.44623	1.150933E-010	0.051262	6
	47	66	19.86229	24783.26	-80893.71	1	84604.98	-72.9666	2.237567E-010	0.0512626	6
	48	67	15.83615	28876.14	-97956.3	1	102123.8	-73.57523	1.888813E-009	0.0512628	6
	49	69	12.40079	36649.05	-121587.4	1	126990.7	-73.22606	-1.383985E-010	0.0512642	5
	50	70	9.93114	45179.24	-146178.4	1	153001	-72.82523	4.99202E-010	0.0512632	5
	51	72	7.944915	55335.64	-175553.6	1	184068.2	-72.50481	-5.680891E-010	0.0512681	5
	52	73	6.317385	70199.11	-211929.2	1	223253	-71.67314	-1.056855E-010	0.0512629	5
	53	75	5.008013	88730.69	-255063.7	1	270056.7	-70.81841	-6.934411E-011	0.0512674	5
	54	78	3.945707	112275.7	-306553	1	326466.8	-69.88464	-5.432018E-011	0.0512707	5
	55	81	3.158693	139804.4	-362279.4	1	388319	-68.89829	-1.233989E-011	0.0512651	5
	56	84	2.504006	174610.2	-429511.6	1	463647.4	-67.87669	-3.504392E-011	0.0512785	5
	57	87	1.998082	215081.8	-503656	1	547658.2	-66.87553	1.462627E-010	0.0512489	5
	58	90	1.584686	265489.8	-594341	1	650942.4	-65.92987	-4.541138E-011	0.0512271	5
	59	93	1.266892	323624.6	-691234.4	1	763241.8	-64.91178	1.004779E-010	0.0512359	5
	60	98	0.999041	396068.4	-813361.3	1	904669.4	-64.03612	-9.94651E-011	0.051286	5
