EXPLAIN
TAG	EISPOT
TITLE	LABEL	Potentiostatic EIS	Test &Identifier
DATE	LABEL	11/27/2019	Date
TIME	LABEL	13:39:25	Time
NOTES	NOTES	3	&Notes...
	
	
	
PSTAT	PSTAT	REF600-11020	Potentiostat
VDC	POTEN	0.00000E+000	T	DC &Voltage (V)
FREQINIT	QUANT	1.00000E+006	Initial Fre&q. (Hz)
FREQFINAL	QUANT	1.00000E+000	Final Fre&q. (Hz)
PTSPERDEC	QUANT	1.00000E+001	Points/&decade
VAC	QUANT	2.50000E+001	AC &Voltage (mV rms)
AREA	QUANT	1.00000E-002	&Area (cm^2)
CONDIT	TWOPARAM	T	5.00000E+000	0.00000E+000	Conditionin&g	Time(s)	E(V)
DELAY	TWOPARAM	T	5.00000E+000	0.00000E+000	Init. De&lay	Time(s)	Stab.(mV/s)
SPEED	SELECTOR	0	&Optimize for:
ZGUESS	QUANT	1.00000E+005	E&stimated Z (ohms)
OCVCURVE	TABLE	19
	Pt	T	Vf	Vm	Ach	Over
	#	s	V vs. Ref.	V	V	bits
	0	0.258333	5.39153E-003	5.39153E-003	5.30600E-004	...........
	1	0.516667	5.38923E-003	5.27108E-003	5.38133E-004	...........
	2	0.775	5.37546E-003	5.17550E-003	5.38399E-004	...........
	3	1.03333	5.33869E-003	5.13719E-003	5.37099E-004	...........
	4	1.29167	5.28096E-003	5.16910E-003	5.36499E-004	...........
	5	1.55	5.22549E-003	5.34169E-003	5.38766E-004	...........
	6	1.80833	5.20541E-003	5.47053E-003	5.28800E-004	...........
	7	2.06667	5.24274E-003	5.63370E-003	5.37733E-004	...........
	8	2.325	5.33037E-003	5.50407E-003	5.37066E-004	...........
	9	2.58333	5.42706E-003	5.34667E-003	5.32466E-004	...........
	10	2.84167	5.48148E-003	5.41315E-003	5.33766E-004	...........
	11	3.1	5.48018E-003	5.51960E-003	5.33133E-004	...........
	12	3.35833	5.46342E-003	5.72200E-003	5.36599E-004	...........
	13	3.61667	5.48392E-003	5.84631E-003	5.33966E-004	...........
	14	3.875	5.55879E-003	5.78331E-003	5.31466E-004	...........
	15	4.13333	5.65793E-003	5.74484E-003	5.34066E-004	...........
	16	4.39167	5.73307E-003	5.67361E-003	5.31766E-004	...........
	17	4.65	5.75725E-003	5.61264E-003	5.36233E-004	...........
	18	4.90833	5.73544E-003	5.58534E-003	5.40166E-004	...........
EOC	QUANT	0.0057354	Open Circuit (V)
PSTATMODEL	IQUANT	4	Pstat Model
PSTATSECTION	LABEL	REF600-11020	Pstat Section
PSTATSERIALNO	LABEL	11020	Pstat Serial Number
CTRLMODE	IQUANT	1	Control Mode
IESTAB	IQUANT	0	I/E Stability
CASPEED	IQUANT	1	Control Amp Speed
CONVENTION	IQUANT	1	Current Convention
ICHRANGE	IQUANT	2	Ich Range
ICHRANGEMODE	TOGGLE	F	Ich Auto Range
ICHOFFSETENABLE	TOGGLE	T	Ich Offset Enable
ICHOFFSET	QUANT	0	Ich Offset (V)
ICHFILTER	IQUANT	3	Ich Filter
VCHRANGE	IQUANT	2	Vch Range
VCHRANGEMODE	TOGGLE	F	Vch Auto Range
VCHOFFSETENABLE	TOGGLE	T	Vch Offset Enable
VCHOFFSET	QUANT	0	Vch Offset (V)
VCHFILTER	IQUANT	3	Vch Filter
ACHRANGE	IQUANT	2	Ach Range
ACHOFFSETENABLE	TOGGLE	F	Ach Offset Enable
ACHOFFSET	QUANT	0	Ach Offset (V)
ACHFILTER	IQUANT	3	Ach Filter
IERANGELOWERLIMIT	IQUANT	1	I/E Range Lower Limit
IERANGEMODE	TOGGLE	F	I/E AutoRange
IERANGE	IQUANT	5	I/E Range
POSFEEDENABLE	TOGGLE	F	Positive Feedback IR Comp
POSFEEDRESISTANCE	QUANT	0	Positive Feedback Resistance (ohm)
ACHSELECT	IQUANT	0	Ach Select
CABLEID	IQUANT	14	Cable ID
DCCALDATE	LABEL	8/19/2019	DC Calibration Date
ACCALDATE	LABEL	8/19/2019	AC Calibration Date
THERMOSELECT	IQUANT	1	Thermo Select
FRAMEWORKVERSION	QUANT	6.33	Framework Version
INSTRUMENTVERSION	LABEL	3.50	Instrument Version
ZCURVE	TABLE
	Pt	Time	Freq	Zreal	Zimag	Zsig	Zmod	Zphz	Idc	Vdc	IERange
	#	s	Hz	ohm	ohm	V	ohm	°	A	V	#
	0	1	1000078	2039.229	-1703.177	1	2656.928	-39.86885	-6.270039E-007	0.0076353	8
	1	1	794390.6	2409.952	-1696.073	1	2946.953	-35.13708	-7.944784E-007	0.0082388	8
	2	2	630984.4	2747.546	-1646.869	1	3203.309	-30.93832	-2.52118E-006	0.008089	8
	3	2	501234.4	3044.253	-1543.603	1	3413.237	-26.88751	-2.127587E-006	0.0073445	8
	4	2	398109.4	3298.538	-1401.74	1	3584.024	-23.02345	1.943819E-006	0.0076592	8
	5	3	316265.6	3531.987	-1266.447	1	3752.175	-19.72606	-3.476476E-006	0.0078766	8
	6	3	251203.1	3704.834	-1116.133	1	3869.309	-16.76566	-2.164147E-007	0.007754	8
	7	3	199546.9	3844.365	-981.54	1	3967.69	-14.32272	-5.218727E-006	0.0081085	8
	8	4	158578.1	3928.487	-868.243	1	4023.289	-12.46272	-2.121755E-006	0.0072468	8
	9	4	125953.1	4053.26	-703.4757	1	4113.854	-9.84606	-4.548373E-007	0.0055576	7
	10	4	100078.1	4117.578	-631.8152	1	4165.77	-8.723619	5.737399E-007	0.0074784	7
	11	5	79453.13	4170.118	-570.7097	1	4208.989	-7.792914	-2.644525E-007	0.008546	7
	12	5	63140.62	4215.78	-525.5036	1	4248.406	-7.10536	-1.138034E-006	0.0086387	7
	13	5	50203.12	4264.064	-498.1775	1	4293.067	-6.663749	7.131558E-007	0.005638	7
	14	6	39890.62	4299.341	-478.5245	1	4325.89	-6.350985	-1.016822E-006	0.0087963	7
	15	6	31640.63	4336.885	-475.3664	1	4362.86	-6.255224	-9.826706E-007	0.0077785	7
	16	6	25171.88	4373.554	-482.9444	1	4400.138	-6.301288	-1.137521E-006	0.0086343	7
	17	7	20015.62	4422.215	-501.3088	1	4450.539	-6.467524	9.482862E-007	0.0065986	7
	18	7	15890.62	4452.33	-542.3828	1	4485.245	-6.945549	7.835529E-007	0.0070541	7
	19	7	12609.37	4483.674	-594.3601	1	4522.897	-7.551158	-9.823566E-007	0.0077865	7
	20	7	10078.13	4535.28	-660.754	1	4583.161	-8.289214	9.495114E-007	0.0066013	7
	21	8	8015.625	4565.705	-752.0985	1	4627.236	-9.354202	-6.916638E-007	0.0071539	7
	22	8	6328.125	4617.974	-873.8592	1	4699.927	-10.71538	7.826778E-007	0.0070567	7
	23	8	5015.625	4666.045	-1022.358	1	4776.735	-12.35855	4.41611E-007	0.0057359	7
	24	9	3984.375	4719.625	-1205.901	1	4871.249	-14.33287	-5.716975E-007	0.0087641	7
	25	9	3170.956	4780.268	-1436.231	1	4991.364	-16.72289	-1.015913E-006	0.0087941	7
	26	9	2527.573	4857.484	-1720.505	1	5153.182	-19.50398	9.484003E-007	0.0065999	7
	27	10	1976.103	4942.965	-2092.986	1	5367.82	-22.94912	-5.712646E-007	0.0087651	7
	28	10	1577.524	5068.896	-2533.063	1	5666.579	-26.55253	-8.274573E-007	0.0088382	7
	29	10	1265.625	5149.475	-3039.943	1	5979.828	-30.55507	7.398428E-008	0.0081619	7
	30	11	998.264	5289.534	-3717.867	1	6465.424	-35.10233	-2.640715E-007	0.0085364	7
	31	11	796.875	5452.568	-4518.475	1	7081.463	-39.64811	3.698376E-007	0.0077622	7
	32	11	627.7902	5663.141	-5557.063	1	7934.237	-44.45833	9.164833E-008	0.0060111	7
	33	12	505.5147	5888.825	-6716.547	1	8932.54	-48.75689	9.049296E-007	0.0057025	7
	34	12	397.9953	6227.123	-8278.16	1	10358.81	-53.04823	1.749189E-009	0.0072994	7
	35	12	315.5048	6635.813	-10156	1	12131.71	-56.83987	7.112705E-010	0.007242	6
	36	13	252.4038	7136.455	-12371.39	1	14282.17	-60.02144	5.896614E-010	0.0072401	6
	37	13	198.6229	7844.166	-15289.97	1	17184.71	-62.84096	3.298516E-010	0.0072434	6
	38	13	158.3615	8743.907	-18646.39	1	20594.76	-64.87658	-1.963437E-010	0.0072443	6
	39	14	125.558	9971.75	-22851.34	1	24932.3	-66.42475	5.430499E-010	0.0072359	6
	40	14	100.4464	11498.18	-27704.63	1	29995.91	-67.46021	9.40375E-010	0.007244	6
	41	14	79.00281	13809.34	-33876.2	1	36582.71	-67.82217	7.290781E-010	0.0072291	6
	42	15	63.3446	16987.39	-41341.39	1	44695.43	-67.66199	-8.524538E-011	0.0072327	6
	43	15	49.86702	20985.46	-49944.68	1	54174.35	-67.20911	-8.320598E-010	0.0072324	6
	44	15	39.72458	26041.48	-59012.38	1	64502.86	-66.18868	3.328578E-011	0.007243	6
	45	16	31.6723	32692.81	-69401.9	1	76716.64	-64.77651	4.465876E-010	0.007236	6
	46	16	24.93351	41361.1	-82089.95	1	91921.17	-63.25871	-1.073986E-009	0.0072397	6
	47	16	19.86229	51622.94	-95074.2	1	108185.1	-61.49912	-2.092244E-009	0.0072452	5
	48	17	15.83615	63072.18	-107685.3	1	124796.8	-59.64215	2.942505E-010	0.00724	5
	49	17	12.40079	78861.26	-123318.9	1	146378.5	-57.40148	-1.71394E-010	0.0072364	5
	50	17	9.93114	93287.23	-138744.5	1	167190.2	-56.08442	4.974564E-010	0.0072376	5
	51	18	7.944915	108377	-155430.8	1	189484.3	-55.11316	-1.894593E-010	0.0072465	5
	52	19	6.317385	125214.6	-174176	1	214513.4	-54.28777	4.432474E-010	0.0072338	5
	53	19	5.008013	142904.7	-196679.4	1	243114.3	-53.99833	6.652628E-010	0.0072395	5
	54	20	3.945707	162055.8	-224272.7	1	276695.3	-54.14875	1.813663E-010	0.0072268	5
	55	22	3.158693	181854.1	-255517.1	1	313623.8	-54.56015	3.079716E-010	0.0072316	5
	56	23	2.504006	203961	-295005.9	1	358648.2	-55.34081	2.926008E-010	0.0072317	5
	57	25	1.998082	228369.7	-340625.5	1	410095.6	-56.16043	8.336866E-012	0.0071917	5
	58	26	1.584686	256470	-398513.2	1	473908.9	-57.236	1.428413E-011	0.0071892	5
	59	28	1.266892	287777.1	-463932.9	1	545938.9	-58.18872	4.689784E-011	0.0072276	5
	60	31	0.999041	328068.5	-547155.3	1	637971.6	-59.05354	6.440062E-011	0.0072542	5
