EXPLAIN
TAG	EISPOT
TITLE	LABEL	Potentiostatic IDE	Test &Identifier
DATE	LABEL	9/6/2019	Date
TIME	LABEL	8:51:45	Time
NOTES	NOTES	1	&Notes...
	
PSTAT	PSTAT	REF600-11020	Potentiostat
VDC	POTEN	0.00000E+000	T	DC &Voltage (V)
FREQINIT	QUANT	1.00000E+006	Initial Fre&q. (Hz)
FREQFINAL	QUANT	1.00000E+000	Final Fre&q. (Hz)
PTSPERDEC	QUANT	1.00000E+001	Points/&decade
VAC	QUANT	2.50000E+001	AC &Voltage (mV rms)
AREA	QUANT	1.00000E-002	&Area (cm^2)
CONDIT	TWOPARAM	T	5.00000E+000	0.00000E+000	Conditionin&g	Time(s)	E(V)
DELAY	TWOPARAM	T	5.00000E+000	0.00000E+000	Init. De&lay	Time(s)	Stab.(mV/s)
SPEED	SELECTOR	1	&Optimize for:
ZGUESS	QUANT	1.00000E+007	E&stimated Z (ohms)
OCVCURVE	TABLE	19
	Pt	T	Vf	Vm	Ach	Over
	#	s	V vs. Ref.	V	V	bits
	0	0.258333	3.43413E-003	3.43413E-003	5.66732E-004	...........
	1	0.516667	3.42859E-003	3.14438E-003	5.65066E-004	...........
	2	0.775	3.39629E-003	2.95796E-003	5.62932E-004	...........
	3	1.03333	3.30818E-003	2.65727E-003	5.64599E-004	...........
	4	1.29167	3.15153E-003	2.38426E-003	5.59166E-004	...........
	5	1.55	2.93701E-003	2.14437E-003	5.64466E-004	...........
	6	1.80833	2.68513E-003	1.75964E-003	5.62066E-004	...........
	7	2.06667	2.40968E-003	1.44950E-003	5.64232E-004	...........
	8	2.325	2.11366E-003	1.12508E-003	5.62466E-004	...........
	9	2.58333	1.80107E-003	8.46447E-004	5.66499E-004	...........
	10	2.84167	1.48440E-003	6.10058E-004	5.67799E-004	...........
	11	3.1	1.18003E-003	4.07826E-004	5.64332E-004	...........
	12	3.35833	9.01404E-004	2.16472E-004	5.64366E-004	...........
	13	3.61667	6.53337E-004	-5.12601E-006	5.60732E-004	...........
	14	3.875	4.29548E-004	-2.25425E-004	5.63666E-004	...........
	15	4.13333	2.18648E-004	-3.67168E-004	5.62666E-004	...........
	16	4.39167	1.52527E-005	-5.56215E-004	5.58899E-004	...........
	17	4.65	-1.78528E-004	-7.16827E-004	5.57499E-004	...........
	18	4.90833	-3.59928E-004	-8.09942E-004	5.61199E-004	...........
EOC	QUANT	-0.0003599	Open Circuit (V)
PSTATMODEL	IQUANT	4	Pstat Model
PSTATSECTION	LABEL	REF600-11020	Pstat Section
PSTATSERIALNO	LABEL	11020	Pstat Serial Number
CTRLMODE	IQUANT	1	Control Mode
IESTAB	IQUANT	0	I/E Stability
CASPEED	IQUANT	1	Control Amp Speed
CONVENTION	IQUANT	1	Current Convention
ICHRANGE	IQUANT	2	Ich Range
ICHRANGEMODE	TOGGLE	F	Ich Auto Range
ICHOFFSETENABLE	TOGGLE	T	Ich Offset Enable
ICHOFFSET	QUANT	0	Ich Offset (V)
ICHFILTER	IQUANT	3	Ich Filter
VCHRANGE	IQUANT	2	Vch Range
VCHRANGEMODE	TOGGLE	F	Vch Auto Range
VCHOFFSETENABLE	TOGGLE	T	Vch Offset Enable
VCHOFFSET	QUANT	0	Vch Offset (V)
VCHFILTER	IQUANT	3	Vch Filter
ACHRANGE	IQUANT	2	Ach Range
ACHOFFSETENABLE	TOGGLE	F	Ach Offset Enable
ACHOFFSET	QUANT	0	Ach Offset (V)
ACHFILTER	IQUANT	3	Ach Filter
IERANGELOWERLIMIT	IQUANT	1	I/E Range Lower Limit
IERANGEMODE	TOGGLE	F	I/E AutoRange
IERANGE	IQUANT	1	I/E Range
POSFEEDENABLE	TOGGLE	F	Positive Feedback IR Comp
POSFEEDRESISTANCE	QUANT	0	Positive Feedback Resistance (ohm)
ACHSELECT	IQUANT	0	Ach Select
CABLEID	IQUANT	14	Cable ID
DCCALDATE	LABEL	8/19/2019	DC Calibration Date
ACCALDATE	LABEL	8/19/2019	AC Calibration Date
THERMOSELECT	IQUANT	1	Thermo Select
FRAMEWORKVERSION	QUANT	6.33	Framework Version
INSTRUMENTVERSION	LABEL	3.50	Instrument Version
ZCURVE	TABLE
	Pt	Time	Freq	Zreal	Zimag	Zsig	Zmod	Zphz	Idc	Vdc	IERange
	#	s	Hz	ohm	ohm	V	ohm	°	A	V	#
	0	2	1000078	2454.156	-1955.811	1	3138.165	-38.55268	2.249927E-006	0.0018749	8
	1	3	794390.6	2880.263	-1900.134	1	3450.569	-33.41318	-3.109216E-007	0.0016842	8
	2	5	630984.4	3252.307	-1781.996	1	3708.505	-28.7191	-2.380263E-007	0.0016511	8
	3	6	501234.4	3558.644	-1607.066	1	3904.691	-24.30369	-1.260998E-006	0.0018311	8
	4	7	398109.4	3815.51	-1421.746	1	4071.79	-20.43654	-3.01645E-007	0.0015048	8
	5	9	316265.6	3995.824	-1238.625	1	4183.396	-17.22238	-4.331588E-008	0.0014544	8
	6	10	251203.1	4135.141	-1072.657	1	4272	-14.54203	-5.698268E-007	0.0015819	8
	7	11	199546.9	4232.452	-922.8965	1	4331.903	-12.30094	-1.507086E-006	0.0016424	8
	8	13	158578.1	4333.132	-818.6976	1	4409.796	-10.69928	-1.137819E-006	0.001648	8
	9	14	125953.1	4411.625	-688.9692	1	4465.1	-8.876258	7.352298E-007	-0.0002306	7
	10	15	100078.1	4457.701	-621.1431	1	4500.769	-7.932607	6.2914E-008	0.0012643	7
	11	16	79453.13	4506.459	-579.7606	1	4543.599	-7.330894	-1.71625E-008	0.0013962	7
	12	18	63140.62	4551.991	-552.1976	1	4585.362	-6.916699	-1.809075E-008	0.0013415	7
	13	19	50203.12	4595.059	-540.5297	1	4626.741	-6.709032	4.193147E-008	0.0013173	7
	14	20	39890.62	4640.293	-544.7706	1	4672.162	-6.695876	-2.132329E-009	0.0013679	7
	15	22	31640.63	4685.918	-561.866	1	4719.483	-6.837419	-2.911726E-008	0.001392	7
	16	23	25171.88	4732.647	-594.9491	1	4769.897	-7.165162	2.304767E-008	0.0013153	7
	17	24	20015.62	4782.983	-640.9172	1	4825.733	-7.632141	-3.034557E-008	0.0013919	7
	18	26	15890.62	4835.145	-702.6896	1	4885.938	-8.268883	-1.710407E-009	0.0013659	7
	19	27	12609.37	4894.275	-784.0948	1	4956.686	-9.101814	6.505025E-008	0.0012547	7
	20	28	10078.13	4957.754	-884.6997	1	5036.072	-10.1178	4.360745E-009	0.0013901	7
	21	30	8015.625	5025.763	-1010.191	1	5126.283	-11.36515	6.481272E-008	0.0012569	7
	22	31	6328.125	5106.612	-1170.179	1	5238.97	-12.90649	-1.781884E-008	0.0013899	7
	23	32	5015.625	5196.374	-1363.511	1	5372.287	-14.70277	-3.128787E-008	0.0013859	7
	24	34	3984.375	5298.321	-1593.522	1	5532.768	-16.73918	-1.831424E-008	0.0013929	7
	25	35	3170.956	5412.781	-1874.232	1	5728.084	-19.09895	4.912624E-008	0.0013317	7
	26	36	2527.573	5546.328	-2209.978	1	5970.406	-21.72519	-1.963004E-008	0.0013599	7
	27	38	1976.103	5714.271	-2648.223	1	6298.093	-24.86491	-2.209524E-008	0.0013745	7
	28	39	1577.524	5898.674	-3132.769	1	6678.966	-27.97264	-2.691276E-008	0.0013687	7
	29	40	1265.625	6104.617	-3703.99	1	7140.441	-31.24738	6.054694E-009	0.0013086	7
	30	42	998.264	6365.612	-4433.082	1	7757.141	-34.85378	2.356092E-008	0.0012561	7
	31	43	796.875	6661.879	-5278.855	1	8499.82	-38.39321	-1.98332E-008	0.0013434	7
	32	44	627.7902	7022.968	-6348.372	1	9466.99	-42.11183	4.485723E-008	0.0012447	7
	33	46	505.5147	7408.192	-7516.917	1	10553.93	-45.41737	5.140426E-009	0.0011822	6
	34	47	397.9953	7917.066	-9077.31	1	12044.81	-48.90565	1.014623E-009	0.0012922	6
	35	48	315.5048	8498.342	-10912.31	1	13831.14	-52.08908	1.150278E-009	0.0012887	6
	36	50	252.4038	9160.435	-13040.08	1	15936.04	-54.91261	9.029774E-010	0.0012941	6
	37	51	198.6229	10009.86	-15804.2	1	18707.48	-57.65118	1.007472E-009	0.0012964	6
	38	52	158.3615	10975.14	-18970.4	1	21916.43	-59.9489	8.524479E-010	0.0012908	6
	39	54	125.558	12166.03	-22893.52	1	25925.39	-62.01302	9.069807E-010	0.0012914	6
	40	55	100.4464	13542.64	-27440.5	1	30600.4	-63.73239	7.086525E-010	0.0012881	6
	41	56	79.00281	15356.79	-33340.87	1	36707.55	-65.26922	7.0121E-010	0.0012902	6
	42	58	63.3446	17279.21	-40018.18	1	43589.29	-66.64609	7.529869E-010	0.0012908	6
	43	59	49.86702	19943.4	-48438.64	1	52383.6	-67.6218	4.591213E-010	0.001289	6
	44	60	39.72458	22983.81	-58475.98	1	62830.69	-68.54284	7.976402E-010	0.0012973	6
	45	62	31.6723	26755.76	-70376.4	1	75290.82	-69.18416	5.538998E-010	0.0012905	6
	46	63	24.93351	31654.72	-85649.76	1	91312.12	-69.71653	6.634859E-010	0.0012899	6
	47	64	19.86229	37542.1	-103152.1	1	109771.4	-70.00108	5.107445E-010	0.0012926	5
	48	66	15.83615	45086.97	-124412.9	1	132330.7	-70.07959	2.56316E-010	0.0012903	5
	49	67	12.40079	55668.64	-151161.3	1	161086.2	-69.78261	1.076748E-009	0.001289	5
	50	68	9.93114	67163.17	-180307.6	1	192410.3	-69.57004	8.058149E-010	0.0012984	5
	51	70	7.944915	82373.59	-214849.4	1	230099.3	-69.0231	8.099842E-010	0.0012964	5
	52	72	6.317385	101117.6	-256119.5	1	275357.8	-68.45558	8.235667E-010	0.0012879	5
	53	73	5.008013	126197.9	-305333.9	1	330385.7	-67.54415	1.820088E-010	0.0012884	5
	54	76	3.945707	157284.8	-363327.9	1	395911.3	-66.59219	5.414796E-010	0.0012983	5
	55	78	3.158693	193749.4	-426237	1	468206	-65.55545	1.582266E-010	0.001293	5
	56	82	2.504006	239361.8	-500145.4	1	554472.3	-64.42495	3.339233E-010	0.0012843	5
	57	84	1.998082	291066.1	-582088.7	1	650804.6	-63.43324	4.217411E-011	0.0012986	5
	58	87	1.584686	358323.6	-676659.8	1	765678.9	-62.09665	2.379394E-010	0.0013485	5
	59	91	1.266892	429041.5	-781093.3	1	891169.6	-61.22075	2.71361E-011	0.0012761	5
	60	95	0.999041	522397	-903223.8	1	1043414	-59.95623	2.803481E-010	0.0013322	4
