EXPLAIN
TAG	EISPOT
TITLE	LABEL	Potentiostatic EIS	Test &Identifier
DATE	LABEL	9/26/2019	Date
TIME	LABEL	7:41:05	Time
NOTES	NOTES	2	&Notes...
	
	
PSTAT	PSTAT	REF600-11020	Potentiostat
VDC	POTEN	0.00000E+000	T	DC &Voltage (V)
FREQINIT	QUANT	1.00000E+006	Initial Fre&q. (Hz)
FREQFINAL	QUANT	1.00000E+000	Final Fre&q. (Hz)
PTSPERDEC	QUANT	1.00000E+001	Points/&decade
VAC	QUANT	2.50000E+001	AC &Voltage (mV rms)
AREA	QUANT	1.00000E-002	&Area (cm^2)
CONDIT	TWOPARAM	T	5.00000E+000	0.00000E+000	Conditionin&g	Time(s)	E(V)
DELAY	TWOPARAM	T	5.00000E+000	0.00000E+000	Init. De&lay	Time(s)	Stab.(mV/s)
SPEED	SELECTOR	1	&Optimize for:
ZGUESS	QUANT	1.00000E+004	E&stimated Z (ohms)
OCVCURVE	TABLE	19
	Pt	T	Vf	Vm	Ach	Over
	#	s	V vs. Ref.	V	V	bits
	0	0.258333	1.85721E-002	1.85721E-002	5.82799E-004	...........
	1	0.516667	1.85932E-002	1.96795E-002	5.80132E-004	...........
	2	0.775	1.87233E-002	2.07375E-002	5.83899E-004	...........
	3	1.03333	1.90916E-002	2.17453E-002	5.80332E-004	...........
	4	1.29167	1.97510E-002	2.27103E-002	5.79699E-004	...........
	5	1.55	2.06280E-002	2.36326E-002	5.78399E-004	...........
	6	1.80833	2.16009E-002	2.45250E-002	5.82599E-004	...........
	7	2.06667	2.25799E-002	2.53832E-002	5.88399E-004	...........
	8	2.325	2.35253E-002	2.62031E-002	5.83099E-004	...........
	9	2.58333	2.44281E-002	2.70072E-002	5.85832E-004	...........
	10	2.84167	2.52923E-002	2.77909E-002	5.87365E-004	...........
	11	3.1	2.61244E-002	2.85433E-002	5.86365E-004	...........
	12	3.35833	2.69297E-002	2.92784E-002	5.80232E-004	...........
	13	3.61667	2.77109E-002	2.99868E-002	5.84099E-004	...........
	14	3.875	2.84687E-002	3.06791E-002	5.83332E-004	...........
	15	4.13333	2.92039E-002	3.13455E-002	5.84899E-004	...........
	16	4.39167	2.99174E-002	3.20146E-002	5.80065E-004	...........
	17	4.65	3.06113E-002	3.26605E-002	5.80232E-004	...........
	18	4.90833	3.12883E-002	3.32851E-002	5.80765E-004	...........
EOC	QUANT	0.0312883	Open Circuit (V)
PSTATMODEL	IQUANT	4	Pstat Model
PSTATSECTION	LABEL	REF600-11020	Pstat Section
PSTATSERIALNO	LABEL	11020	Pstat Serial Number
CTRLMODE	IQUANT	1	Control Mode
IESTAB	IQUANT	0	I/E Stability
CASPEED	IQUANT	1	Control Amp Speed
CONVENTION	IQUANT	1	Current Convention
ICHRANGE	IQUANT	2	Ich Range
ICHRANGEMODE	TOGGLE	F	Ich Auto Range
ICHOFFSETENABLE	TOGGLE	T	Ich Offset Enable
ICHOFFSET	QUANT	0	Ich Offset (V)
ICHFILTER	IQUANT	3	Ich Filter
VCHRANGE	IQUANT	2	Vch Range
VCHRANGEMODE	TOGGLE	F	Vch Auto Range
VCHOFFSETENABLE	TOGGLE	T	Vch Offset Enable
VCHOFFSET	QUANT	0	Vch Offset (V)
VCHFILTER	IQUANT	3	Vch Filter
ACHRANGE	IQUANT	2	Ach Range
ACHOFFSETENABLE	TOGGLE	F	Ach Offset Enable
ACHOFFSET	QUANT	0	Ach Offset (V)
ACHFILTER	IQUANT	3	Ach Filter
IERANGELOWERLIMIT	IQUANT	1	I/E Range Lower Limit
IERANGEMODE	TOGGLE	F	I/E AutoRange
IERANGE	IQUANT	6	I/E Range
POSFEEDENABLE	TOGGLE	F	Positive Feedback IR Comp
POSFEEDRESISTANCE	QUANT	0	Positive Feedback Resistance (ohm)
ACHSELECT	IQUANT	0	Ach Select
CABLEID	IQUANT	14	Cable ID
DCCALDATE	LABEL	8/19/2019	DC Calibration Date
ACCALDATE	LABEL	8/19/2019	AC Calibration Date
THERMOSELECT	IQUANT	1	Thermo Select
FRAMEWORKVERSION	QUANT	6.33	Framework Version
INSTRUMENTVERSION	LABEL	3.50	Instrument Version
ZCURVE	TABLE
	Pt	Time	Freq	Zreal	Zimag	Zsig	Zmod	Zphz	Idc	Vdc	IERange
	#	s	Hz	ohm	ohm	V	ohm	°	A	V	#
	0	1	1000078	1902.58	-743.9323	1	2042.852	-21.35611	3.781168E-006	0.0326726	8
	1	3	794390.6	2009.875	-657.0073	1	2114.534	-18.10204	-2.497212E-006	0.0335693	8
	2	4	630984.4	2096.822	-572.1516	1	2173.481	-15.26252	2.415273E-006	0.0325652	8
	3	5	501234.4	2158.721	-496.6261	1	2215.11	-12.9558	1.20496E-006	0.0324179	8
	4	7	398109.4	2210.827	-429.6359	1	2252.186	-10.99737	3.244388E-007	0.0329726	8
	5	8	316265.6	2241.958	-386.1385	1	2274.968	-9.77233	4.847521E-006	0.0319498	8
	6	9	251203.1	2285.747	-330.4172	1	2309.505	-8.22544	-6.237771E-007	0.0329953	8
	7	11	199546.9	2304.159	-302.5117	1	2323.933	-7.479549	2.035289E-006	0.0323959	8
	8	12	158578.1	2336.248	-275.0612	1	2352.385	-6.71488	-2.987328E-006	0.0334278	8
	9	13	125953.1	2374.221	-231.0778	1	2385.44	-5.558966	4.251399E-007	0.0320012	7
	10	15	100078.1	2391.063	-220.1915	1	2401.181	-5.261492	3.934031E-008	0.0326462	7
	11	16	79453.13	2411.985	-223.7477	1	2422.341	-5.299874	-4.63152E-008	0.0328208	7
	12	18	63140.62	2434.021	-232.6278	1	2445.113	-5.459373	-1.622983E-008	0.0328203	7
	13	19	50203.12	2459.008	-245	1	2471.183	-5.689812	2.152535E-008	0.0327431	7
	14	20	39890.62	2485.874	-260.793	1	2499.516	-5.988992	-4.514624E-008	0.0328513	7
	15	22	31640.63	2514.33	-281.1827	1	2530.004	-6.380993	-3.817335E-008	0.0327814	7
	16	23	25171.88	2545.428	-306.7105	1	2563.84	-6.870712	-1.105246E-008	0.0327953	7
	17	24	20015.62	2579.017	-336.7941	1	2600.915	-7.440159	-4.376158E-008	0.0328516	7
	18	26	15890.62	2616.179	-373.1328	1	2642.654	-8.117073	-4.906071E-008	0.0329084	7
	19	27	12609.37	2658.832	-415.3772	1	2691.083	-8.879286	-2.095994E-008	0.0327528	7
	20	28	10078.13	2702.348	-463.4498	1	2741.8	-9.7315	6.692867E-008	0.0326438	7
	21	30	8015.625	2751.9	-520.4874	1	2800.689	-10.71026	6.803663E-008	0.032624	7
	22	31	6328.125	2807.479	-589.3892	1	2868.679	-11.85623	6.675207E-008	0.0326431	7
	23	32	5015.625	2868.117	-668.298	1	2944.948	-13.11642	-3.8742E-008	0.0327822	7
	24	34	3984.375	2932.081	-760.7391	1	3029.162	-14.54489	-4.618205E-008	0.0329041	7
	25	35	3170.956	3000.748	-869.4945	1	3124.181	-16.15944	-2.043638E-008	0.0327446	7
	26	37	2527.573	3072.574	-996.702	1	3230.19	-17.97236	-3.871542E-008	0.0327778	7
	27	38	1976.103	3154.727	-1165.757	1	3363.227	-20.28064	8.078424E-009	0.0327074	7
	28	39	1577.524	3232.037	-1354.296	1	3504.308	-22.73478	-6.730684E-008	0.0328653	7
	29	41	1265.625	3312.884	-1578.103	1	3669.552	-25.47095	-1.302132E-008	0.0328079	7
	30	42	998.264	3408.159	-1880.778	1	3892.669	-28.89193	-3.602133E-008	0.032781	7
	31	43	796.875	3503.994	-2236.142	1	4156.718	-32.54478	6.506335E-009	0.0327026	7
	32	45	627.7902	3620.339	-2706.193	1	4519.992	-36.77801	-4.192323E-009	0.0327138	7
	33	46	505.5147	3742.876	-3232.607	1	4945.591	-40.81616	-3.761998E-008	0.0327686	7
	34	47	397.9953	3907.921	-3955.716	1	5560.534	-45.34824	1.523966E-009	0.0327799	7
	35	49	315.5048	4106.665	-4823.32	1	6334.754	-49.58831	3.212243E-009	0.0327771	7
	36	50	252.4038	4346.162	-5844.342	1	7283.231	-53.36356	2.043011E-009	0.032771	7
	37	52	198.6229	4676.642	-7189.887	1	8577.03	-56.95813	2.830802E-009	0.0327765	7
	38	53	158.3615	5081.186	-8746.558	1	10115.37	-59.84617	1.556941E-009	0.032778	7
	39	54	125.558	5625.433	-10681.49	1	12072.27	-62.22636	-1.577019E-009	0.0327203	6
	40	56	100.4464	6304.567	-12929.11	1	14384.35	-64.00494	-3.204068E-009	0.0327121	6
	41	57	79.00281	7221.82	-15845.96	1	17414.05	-65.49879	-2.413213E-009	0.0327117	6
	42	58	63.3446	8290.439	-18933.22	1	20668.77	-66.35245	-2.255174E-009	0.0327111	6
	43	60	49.86702	10044.51	-23125.14	1	25212.39	-66.52206	-1.382111E-009	0.0327153	6
	44	61	39.72458	11885.5	-27760.21	1	30197.58	-66.82188	-1.144402E-009	0.0327199	6
	45	63	31.6723	14206.58	-33141.14	1	36057.76	-66.79668	-2.642668E-009	0.0327177	6
	46	64	24.93351	17489.05	-39822.14	1	43493.33	-66.28992	-2.104255E-009	0.0327057	6
	47	65	19.86229	21332.78	-47134.39	1	51737.2	-65.64874	-9.906723E-010	0.0327176	6
	48	67	15.83615	26197.2	-55292.61	1	61184.68	-64.64877	-1.182104E-009	0.0327122	6
	49	68	12.40079	32129.19	-65803.67	1	73228.46	-63.97567	-7.166749E-010	0.0327098	6
	50	70	9.93114	38954.83	-76750.98	1	86070.85	-63.09	-9.417548E-010	0.032703	6
	51	71	7.944915	47111.16	-89172.83	1	100852.6	-62.15193	-3.190944E-009	0.0327103	6
	52	73	6.317385	56910.16	-103297.1	1	117936.6	-61.14801	-2.699047E-009	0.0327119	5
	53	75	5.008013	68804.55	-119659.7	1	138030.8	-60.10102	-2.655318E-009	0.0327208	5
	54	77	3.945707	82833.14	-138643.2	1	161503.2	-59.14357	-2.598351E-009	0.0327147	5
	55	80	3.158693	98161	-158508.7	1	186441.9	-58.23097	-1.985921E-009	0.0327218	5
	56	83	2.504006	116457.8	-181991.7	1	216063.4	-57.38453	-2.848085E-009	0.032726	5
	57	86	1.998082	136364.3	-207167.4	1	248019.2	-56.64579	-2.018784E-009	0.0326704	5
	58	89	1.584686	159067.5	-237000.7	1	285432.7	-56.13171	-2.457912E-009	0.0327189	5
	59	93	1.266892	184774	-269676	1	326904.5	-55.58221	-2.195465E-009	0.0326708	5
	60	97	0.999041	214717.2	-309146.8	1	376397.7	-55.21818	-2.053406E-009	0.0327557	5
