EXPLAIN
TAG	EISPOT
TITLE	LABEL	Potentiostatic IDE	Test &Identifier
DATE	LABEL	9/8/2019	Date
TIME	LABEL	8:00:57	Time
NOTES	NOTES	1	&Notes...
	
PSTAT	PSTAT	REF600-11020	Potentiostat
VDC	POTEN	0.00000E+000	T	DC &Voltage (V)
FREQINIT	QUANT	1.00000E+006	Initial Fre&q. (Hz)
FREQFINAL	QUANT	1.00000E+000	Final Fre&q. (Hz)
PTSPERDEC	QUANT	1.00000E+001	Points/&decade
VAC	QUANT	2.50000E+001	AC &Voltage (mV rms)
AREA	QUANT	1.00000E-002	&Area (cm^2)
CONDIT	TWOPARAM	T	5.00000E+000	0.00000E+000	Conditionin&g	Time(s)	E(V)
DELAY	TWOPARAM	T	5.00000E+000	0.00000E+000	Init. De&lay	Time(s)	Stab.(mV/s)
SPEED	SELECTOR	1	&Optimize for:
ZGUESS	QUANT	1.00000E+007	E&stimated Z (ohms)
OCVCURVE	TABLE	19
	Pt	T	Vf	Vm	Ach	Over
	#	s	V vs. Ref.	V	V	bits
	0	0.258333	2.22734E-002	2.22734E-002	5.71032E-004	...........
	1	0.516667	2.22936E-002	2.33312E-002	5.77166E-004	...........
	2	0.775	2.24169E-002	2.42903E-002	5.79566E-004	...........
	3	1.03333	2.27619E-002	2.51646E-002	5.74665E-004	...........
	4	1.29167	2.33692E-002	2.59635E-002	5.69566E-004	...........
	5	1.55	2.41582E-002	2.66962E-002	5.75699E-004	...........
	6	1.80833	2.50060E-002	2.73600E-002	5.70632E-004	...........
	7	2.06667	2.58259E-002	2.79857E-002	5.70766E-004	...........
	8	2.325	2.65825E-002	2.85674E-002	5.72266E-004	...........
	9	2.58333	2.72733E-002	2.91176E-002	5.76599E-004	...........
	10	2.84167	2.79081E-002	2.96123E-002	5.71632E-004	...........
	11	3.1	2.84959E-002	3.00784E-002	5.70799E-004	...........
	12	3.35833	2.90417E-002	3.05118E-002	5.71232E-004	...........
	13	3.61667	2.95483E-002	3.09134E-002	5.62599E-004	...........
	14	3.875	3.00187E-002	3.12958E-002	5.67166E-004	...........
	15	4.13333	3.04568E-002	3.16595E-002	5.66632E-004	...........
	16	4.39167	3.08667E-002	3.20021E-002	5.66966E-004	...........
	17	4.65	3.12524E-002	3.23242E-002	5.66532E-004	...........
	18	4.90833	3.16164E-002	3.26192E-002	5.70732E-004	...........
EOC	QUANT	0.0316164	Open Circuit (V)
PSTATMODEL	IQUANT	4	Pstat Model
PSTATSECTION	LABEL	REF600-11020	Pstat Section
PSTATSERIALNO	LABEL	11020	Pstat Serial Number
CTRLMODE	IQUANT	1	Control Mode
IESTAB	IQUANT	0	I/E Stability
CASPEED	IQUANT	1	Control Amp Speed
CONVENTION	IQUANT	1	Current Convention
ICHRANGE	IQUANT	2	Ich Range
ICHRANGEMODE	TOGGLE	F	Ich Auto Range
ICHOFFSETENABLE	TOGGLE	T	Ich Offset Enable
ICHOFFSET	QUANT	0	Ich Offset (V)
ICHFILTER	IQUANT	3	Ich Filter
VCHRANGE	IQUANT	2	Vch Range
VCHRANGEMODE	TOGGLE	F	Vch Auto Range
VCHOFFSETENABLE	TOGGLE	T	Vch Offset Enable
VCHOFFSET	QUANT	0	Vch Offset (V)
VCHFILTER	IQUANT	3	Vch Filter
ACHRANGE	IQUANT	2	Ach Range
ACHOFFSETENABLE	TOGGLE	F	Ach Offset Enable
ACHOFFSET	QUANT	0	Ach Offset (V)
ACHFILTER	IQUANT	3	Ach Filter
IERANGELOWERLIMIT	IQUANT	1	I/E Range Lower Limit
IERANGEMODE	TOGGLE	F	I/E AutoRange
IERANGE	IQUANT	3	I/E Range
POSFEEDENABLE	TOGGLE	F	Positive Feedback IR Comp
POSFEEDRESISTANCE	QUANT	0	Positive Feedback Resistance (ohm)
ACHSELECT	IQUANT	0	Ach Select
CABLEID	IQUANT	14	Cable ID
DCCALDATE	LABEL	8/19/2019	DC Calibration Date
ACCALDATE	LABEL	8/19/2019	AC Calibration Date
THERMOSELECT	IQUANT	1	Thermo Select
FRAMEWORKVERSION	QUANT	6.33	Framework Version
INSTRUMENTVERSION	LABEL	3.50	Instrument Version
ZCURVE	TABLE
	Pt	Time	Freq	Zreal	Zimag	Zsig	Zmod	Zphz	Idc	Vdc	IERange
	#	s	Hz	ohm	ohm	V	ohm	°	A	V	#
	0	3	1000078	2131.592	-1004.947	1	2356.608	-25.2417	-7.90731E-006	0.0351906	8
	1	4	794390.6	2299.214	-905.2309	1	2470.997	-21.49022	3.743735E-006	0.0332001	8
	2	5	630984.4	2435.564	-798.165	1	2563.014	-18.14462	1.993932E-006	0.0326049	8
	3	6	501234.4	2528.771	-686.8286	1	2620.385	-15.19528	2.277131E-006	0.0327327	8
	4	8	398109.4	2613.123	-590.9297	1	2679.106	-12.7425	-4.829422E-006	0.0341534	8
	5	9	316265.6	2666.614	-526.1081	1	2718.018	-11.1608	6.88052E-007	0.0329303	8
	6	11	251203.1	2714.707	-446.6886	1	2751.211	-9.343946	-5.397096E-006	0.0343449	8
	7	12	199546.9	2745.812	-407.9181	1	2775.947	-8.450064	-8.315516E-007	0.0334009	8
	8	13	158578.1	2779.059	-367.401	1	2803.24	-7.531023	2.441659E-006	0.0325274	8
	9	15	125953.1	2821.582	-286.1239	1	2836.052	-5.790314	1.417409E-007	0.0327912	7
	10	16	100078.1	2845.269	-281.7064	1	2859.181	-5.654352	-6.595821E-008	0.0331974	7
	11	17	79453.13	2868.277	-283.3271	1	2882.236	-5.641351	2.716673E-009	0.0330257	7
	12	19	63140.62	2893.502	-291.099	1	2908.108	-5.744878	-3.321471E-008	0.0331075	7
	13	20	50203.12	2921.195	-304.2265	1	2936.994	-5.94561	1.401387E-007	0.0328874	7
	14	21	39890.62	2952.413	-325.8539	1	2970.34	-6.298169	-4.712128E-008	0.0331309	7
	15	23	31640.63	2984.311	-350.0919	1	3004.776	-6.690834	-4.835898E-008	0.033125	7
	16	24	25171.88	3020.946	-382.8011	1	3045.102	-7.221783	1.416498E-007	0.0328917	7
	17	25	20015.62	3061.45	-422.3993	1	3090.453	-7.855707	6.421735E-008	0.0330851	7
	18	27	15890.62	3104.372	-472.1368	1	3140.07	-8.647714	8.817842E-008	0.0329132	7
	19	28	12609.37	3157.977	-526.6714	1	3201.593	-9.46836	-1.592483E-008	0.0331352	7
	20	29	10078.13	3212.868	-590.3427	1	3266.654	-10.41158	-4.209245E-008	0.0332218	7
	21	31	8015.625	3275.312	-666.2404	1	3342.386	-11.49783	-7.399838E-008	0.0331928	7
	22	32	6328.125	3347.046	-757.0947	1	3431.605	-12.74569	8.880352E-008	0.0329072	7
	23	33	5015.625	3426.635	-862.1367	1	3533.427	-14.12242	-1.929714E-008	0.0332292	7
	24	35	3984.375	3514.335	-983.318	1	3649.31	-15.63173	-4.838866E-008	0.0331242	7
	25	36	3170.956	3611.426	-1122.847	1	3781.955	-17.27126	1.398636E-007	0.0328774	7
	26	37	2527.573	3719.641	-1284.32	1	3935.125	-19.04881	5.914321E-008	0.0330848	7
	27	39	1976.103	3849.885	-1490.851	1	4128.469	-21.16868	5.571618E-008	0.0329135	7
	28	40	1577.524	3984.378	-1715.518	1	4338.003	-23.29483	-5.808529E-008	0.0332002	7
	29	41	1265.625	4127.444	-1973.35	1	4574.921	-25.55268	6.534405E-008	0.0330798	7
	30	43	998.264	4302.057	-2299.477	1	4878.042	-28.12479	-4.216109E-008	0.0332153	7
	31	44	796.875	4483.048	-2669.232	1	5217.521	-30.76981	3.194952E-009	0.0330083	7
	32	46	627.7902	4697.727	-3143.896	1	5652.673	-33.79192	1.421314E-007	0.0328785	7
	33	47	505.5147	4915.4	-3656.585	1	6126.318	-36.6457	1.393338E-007	0.0328589	7
	34	48	397.9953	5190.45	-4350.865	1	6772.798	-39.97123	3.548457E-009	0.0331037	7
	35	50	315.5048	5499.263	-5168.496	1	7546.87	-43.22404	2.535139E-009	0.0330995	7
	36	51	252.4038	5848.654	-6118.073	1	8463.898	-46.28974	3.867274E-009	0.0331013	7
	37	52	198.6229	6294.027	-7354.061	1	9679.72	-49.44119	3.228883E-009	0.0331004	7
	38	54	158.3615	6804.219	-8771.188	1	11100.95	-52.1976	-3.914713E-009	0.0330374	6
	39	55	125.558	7436.422	-10527.95	1	12889.46	-54.76452	-3.582998E-009	0.0330405	6
	40	56	100.4464	8181.766	-12570.23	1	14998.4	-56.94052	-3.102948E-009	0.0330395	6
	41	58	79.00281	9226.553	-15211.12	1	17790.66	-58.76041	-3.520383E-009	0.0330353	6
	42	59	63.3446	10365.14	-18003.2	1	20773.81	-60.0693	-3.644725E-009	0.0330366	6
	43	60	49.86702	12150.31	-21901.93	1	25046.45	-60.98026	-2.612341E-009	0.0330323	6
	44	62	39.72458	14098.3	-26043.85	1	29614.93	-61.57201	-4.015668E-009	0.0330403	6
	45	63	31.6723	16798.84	-30854.93	1	35131.57	-61.4341	-2.15466E-009	0.0330362	6
	46	64	24.93351	20274.01	-36711.8	1	41937.95	-61.09042	-2.608066E-009	0.0330336	6
	47	66	19.86229	24476.64	-43004.69	1	49482.41	-60.35311	-1.703654E-009	0.0330412	6
	48	67	15.83615	29755.96	-50009.62	1	58192.61	-59.24716	-5.972166E-009	0.0330384	6
	49	68	12.40079	36083.46	-58008.42	1	68315.4	-58.11681	-2.955506E-009	0.0330334	6
	50	70	9.93114	43438.8	-66005.79	1	79017.05	-56.65084	-2.180728E-009	0.0330355	6
	51	71	7.944915	51634.76	-74742.51	1	90843.77	-55.36192	-2.628262E-009	0.033037	6
	52	73	6.317385	60964.16	-84325.64	1	104055	-54.13453	-3.060818E-009	0.0330458	5
	53	75	5.008013	71837.37	-95185.2	1	119251.1	-52.95772	-3.844594E-009	0.033049	5
	54	77	3.945707	84143.54	-107351.3	1	136398	-51.91011	-3.606545E-009	0.0330446	5
	55	80	3.158693	96954.5	-120070.9	1	154328.2	-51.07991	-4.183519E-009	0.0330276	5
	56	83	2.504006	111910.8	-134777.4	1	175182.7	-50.29586	-2.772837E-009	0.0330381	5
	57	86	1.998082	127629	-150497.8	1	197329	-49.70054	-4.044079E-009	0.0330821	5
	58	89	1.584686	145540.5	-169247.7	1	223219.3	-49.30691	-3.062294E-009	0.0330834	5
	59	93	1.266892	164503	-189667.7	1	251067.9	-49.06418	-3.98757E-009	0.033058	5
	60	97	0.999041	188024.8	-215040.1	1	285649.4	-48.8345	-3.138823E-009	0.0330575	5
