EXPLAIN
TAG	EISPOT
TITLE	LABEL	Potentiostatic EIS	Test &Identifier
DATE	LABEL	8/14/2018	Date
TIME	LABEL	5:38:02	Time
NOTES	NOTES	1	&Notes...
	
PSTAT	PSTAT	REF600-11020	Potentiostat
VDC	POTEN	0.00000E+000	T	DC &Voltage (V)
FREQINIT	QUANT	1.00000E+006	Initial Fre&q. (Hz)
FREQFINAL	QUANT	1.00000E+000	Final Fre&q. (Hz)
PTSPERDEC	QUANT	1.00000E+001	Points/&decade
VAC	QUANT	2.50000E+001	AC &Voltage (mV rms)
AREA	QUANT	1.00000E-002	&Area (cm^2)
CONDIT	TWOPARAM	T	5.00000E+000	0.00000E+000	Conditionin&g	Time(s)	E(V)
DELAY	TWOPARAM	T	5.00000E+000	0.00000E+000	Init. De&lay	Time(s)	Stab.(mV/s)
SPEED	SELECTOR	0	&Optimize for:
ZGUESS	QUANT	1.00000E+005	E&stimated Z (ohms)
OCVCURVE	TABLE	19
	Pt	T	Vf	Vm	Ach	Over
	#	s	V vs. Ref.	V	V	bits
	0	0.258333	3.33852E-002	3.33852E-002	5.24900E-004	...........
	1	0.516667	3.34295E-002	3.56999E-002	5.24400E-004	...........
	2	0.775	3.37006E-002	3.78730E-002	5.22300E-004	...........
	3	1.03333	3.44658E-002	3.99344E-002	5.24866E-004	...........
	4	1.29167	3.58303E-002	4.19122E-002	5.23733E-004	...........
	5	1.55	3.76379E-002	4.37849E-002	5.24133E-004	...........
	6	1.80833	3.96346E-002	4.55712E-002	5.20166E-004	...........
	7	2.06667	4.16338E-002	4.72832E-002	5.22400E-004	...........
	8	2.325	4.35520E-002	4.89465E-002	5.22000E-004	...........
	9	2.58333	4.53733E-002	5.05443E-002	5.14733E-004	...........
	10	2.84167	4.71094E-002	5.20789E-002	5.23000E-004	...........
	11	3.1	4.87742E-002	5.35624E-002	5.26733E-004	...........
	12	3.35833	5.03761E-002	5.49899E-002	5.28566E-004	...........
	13	3.61667	5.19195E-002	5.63700E-002	5.23333E-004	...........
	14	3.875	5.34075E-002	5.77042E-002	5.24566E-004	...........
	15	4.13333	5.48427E-002	5.89843E-002	5.25600E-004	...........
	16	4.39167	5.62273E-002	6.02144E-002	5.29566E-004	...........
	17	4.65	5.75626E-002	6.14251E-002	5.26700E-004	...........
	18	4.90833	5.88511E-002	6.25990E-002	5.29700E-004	...........
EOC	QUANT	0.0588511	Open Circuit (V)
PSTATMODEL	IQUANT	4	Pstat Model
PSTATSECTION	LABEL	REF600-11020	Pstat Section
PSTATSERIALNO	LABEL	11020	Pstat Serial Number
CTRLMODE	IQUANT	1	Control Mode
IESTAB	IQUANT	0	I/E Stability
CASPEED	IQUANT	1	Control Amp Speed
CONVENTION	IQUANT	1	Current Convention
ICHRANGE	IQUANT	2	Ich Range
ICHRANGEMODE	TOGGLE	F	Ich Auto Range
ICHOFFSETENABLE	TOGGLE	T	Ich Offset Enable
ICHOFFSET	QUANT	0	Ich Offset (V)
ICHFILTER	IQUANT	3	Ich Filter
VCHRANGE	IQUANT	2	Vch Range
VCHRANGEMODE	TOGGLE	F	Vch Auto Range
VCHOFFSETENABLE	TOGGLE	T	Vch Offset Enable
VCHOFFSET	QUANT	0	Vch Offset (V)
VCHFILTER	IQUANT	3	Vch Filter
ACHRANGE	IQUANT	2	Ach Range
ACHOFFSETENABLE	TOGGLE	F	Ach Offset Enable
ACHOFFSET	QUANT	0	Ach Offset (V)
ACHFILTER	IQUANT	3	Ach Filter
IERANGELOWERLIMIT	IQUANT	1	I/E Range Lower Limit
IERANGEMODE	TOGGLE	F	I/E AutoRange
IERANGE	IQUANT	6	I/E Range
POSFEEDENABLE	TOGGLE	F	Positive Feedback IR Comp
POSFEEDRESISTANCE	QUANT	0	Positive Feedback Resistance (ohm)
ACHSELECT	IQUANT	0	Ach Select
CABLEID	IQUANT	14	Cable ID
DCCALDATE	LABEL	8/19/2019	DC Calibration Date
ACCALDATE	LABEL	8/19/2019	AC Calibration Date
THERMOSELECT	IQUANT	1	Thermo Select
FRAMEWORKVERSION	QUANT	6.33	Framework Version
INSTRUMENTVERSION	LABEL	3.50	Instrument Version
ZCURVE	TABLE
	Pt	Time	Freq	Zreal	Zimag	Zsig	Zmod	Zphz	Idc	Vdc	IERange
	#	s	Hz	ohm	ohm	V	ohm	°	A	V	#
	0	2	1000078	2285.79	-1921.799	1	2986.327	-40.05576	-2.231277E-006	0.0613789	8
	1	2	794390.6	2625.133	-1991.506	1	3295.06	-37.18506	2.370812E-006	0.0602254	8
	2	2	630984.4	2978.424	-2023.04	1	3600.514	-34.18559	-1.42022E-006	0.060849	8
	3	3	501234.4	3328.553	-2043.28	1	3905.67	-31.54428	1.292493E-006	0.0601037	8
	4	3	398109.4	3661.716	-2018.146	1	4181.038	-28.86124	-1.409551E-006	0.0605738	8
	5	3	316265.6	4013.663	-1978.191	1	4474.677	-26.23704	-1.069804E-006	0.0605104	8
	6	4	251203.1	4333.161	-1954.552	1	4753.583	-24.27864	4.12138E-006	0.0594456	8
	7	4	199546.9	4657.484	-1883.602	1	5023.954	-22.01963	-8.266734E-007	0.0606112	8
	8	4	158578.1	4949.67	-1847.718	1	5283.303	-20.47067	-1.955149E-006	0.0607128	8
	9	5	125953.1	5358.085	-1579.18	1	5585.955	-16.42174	5.088822E-007	0.0591168	7
	10	5	100078.1	5522.282	-1541.305	1	5733.342	-15.59476	-1.592171E-008	0.0602657	7
	11	5	79453.13	5762.355	-1450.417	1	5942.091	-14.12818	6.831322E-008	0.0601139	7
	12	6	63140.62	5936.649	-1410.998	1	6102.025	-13.36975	-1.529247E-007	0.0603159	8
	13	6	50203.12	6142.029	-1265.607	1	6271.067	-11.64323	-2.861719E-008	0.0602564	7
	14	6	39890.62	6295.504	-1184.33	1	6405.935	-10.65414	-5.554902E-008	0.0602891	7
	15	7	31640.63	6438.925	-1119.959	1	6535.6	-9.86707	1.120012E-007	0.0601061	7
	16	7	25171.88	6556.613	-1072.208	1	6643.705	-9.287418	-3.045638E-008	0.0602517	7
	17	7	20015.62	6685.369	-1047.225	1	6766.893	-8.902713	-4.723411E-008	0.0603764	7
	18	8	15890.62	6770.792	-1048.919	1	6851.558	-8.806154	1.855579E-008	0.0603444	7
	19	8	12609.37	6862.203	-1073.574	1	6945.674	-8.8917	-1.802124E-008	0.0602929	7
	20	8	10078.13	6957.845	-1123.33	1	7047.941	-9.171148	-5.533413E-008	0.0602839	7
	21	9	8015.625	7097.016	-1146.331	1	7188.999	-9.175339	2.903361E-008	0.0601383	7
	22	9	6328.125	7178.111	-1313.114	1	7297.229	-10.36667	-5.174459E-008	0.0603823	7
	23	9	5015.625	7289.768	-1453.199	1	7433.203	-11.274	-3.219536E-008	0.0602449	7
	24	9	3984.375	7448.082	-1608.267	1	7619.74	-12.18482	9.545627E-008	0.0601823	7
	25	10	3170.956	7543.397	-1860.338	1	7769.408	-13.85373	3.884862E-009	0.0601812	7
	26	10	2527.573	7685.494	-2134.882	1	7976.5	-15.52427	-7.854845E-009	0.0602235	7
	27	10	1976.103	7849.566	-2491.778	1	8235.572	-17.6116	-6.890099E-008	0.0603587	7
	28	11	1577.524	8019.209	-2911.383	1	8531.347	-19.95349	-5.364359E-008	0.0602811	7
	29	11	1265.625	8200.086	-3405.095	1	8878.969	-22.55073	-2.024778E-008	0.0602914	7
	30	11	998.264	8437.783	-4031.674	1	9351.501	-25.53903	4.153994E-010	0.0600739	6
	31	12	796.875	8668.346	-4781.767	1	9899.77	-28.88269	-9.224042E-009	0.0603506	6
	32	12	627.7902	8946.251	-5750.14	1	10634.83	-32.73059	4.792517E-009	0.0600363	6
	33	12	505.5147	9243.354	-6830.582	1	11493.32	-36.46337	-6.978635E-009	0.0601827	6
	34	13	397.9953	9607.53	-8285.433	1	12686.72	-40.77415	-2.959658E-009	0.0602167	6
	35	13	315.5048	10024.73	-10032.17	1	14182.38	-45.02125	-1.547725E-009	0.0602132	6
	36	13	252.4038	10495.12	-12091.13	1	16010.71	-49.04197	-2.650605E-009	0.0602122	6
	37	14	198.6229	11109.96	-14820.26	1	18522.19	-53.14306	-2.458402E-009	0.0602136	6
	38	14	158.3615	11814.91	-18006.08	1	21536.27	-56.72862	-1.6251E-009	0.0602106	6
	39	14	125.558	12734.9	-22016.96	1	25434.71	-59.95436	-2.668824E-009	0.0602108	6
	40	15	100.4464	13806.09	-26714.78	1	30071.37	-62.67025	-1.364831E-009	0.0602126	6
	41	15	79.00281	15502.2	-32907.96	1	36376.53	-64.77593	-1.837914E-009	0.0602076	6
	42	15	63.3446	16819.55	-40335.75	1	43702.07	-67.36441	-2.899667E-009	0.0602067	6
	43	16	49.86702	19513.88	-49290.1	1	53012.32	-68.40145	-2.032995E-009	0.0602065	6
	44	16	39.72458	23314.53	-59796.41	1	64180.83	-68.69926	-2.323265E-009	0.0602119	6
	45	16	31.6723	27706.47	-72597.02	1	77704.41	-69.11077	-2.428554E-009	0.0602068	6
	46	17	24.93351	33966.17	-88329.42	1	94635.02	-68.96627	-2.023919E-009	0.060208	6
	47	17	19.86229	41776.18	-105989.6	1	113925.6	-68.48794	-1.197446E-009	0.0602175	5
	48	17	15.83615	52822.48	-127997.8	1	138469	-67.57491	-3.690785E-009	0.0602159	5
	49	18	12.40079	68463.7	-154229	1	168742	-66.06312	-1.326804E-009	0.0602144	5
	50	18	9.93114	83693.31	-179482.4	1	198036.6	-65.00018	-2.703425E-009	0.0602173	5
	51	19	7.944915	105382.2	-208490.6	1	233610.3	-63.18554	-2.013871E-009	0.0602097	5
	52	19	6.317385	131840.6	-242341.7	1	275883	-61.45258	-1.801624E-009	0.0602067	5
	53	20	5.008013	165139.2	-278237	1	323553.4	-59.31002	-1.989272E-009	0.0602107	5
	54	21	3.945707	204276.4	-318098.2	1	378041.4	-57.29222	-1.653997E-009	0.0602174	5
	55	22	3.158693	246165.1	-355078.4	1	432062.4	-55.2676	-1.958676E-009	0.0602247	5
	56	24	2.504006	293505.8	-397201.8	1	493877.4	-53.53805	-1.932147E-009	0.0602128	5
	57	25	1.998082	343772.3	-439397.7	1	557897.7	-51.96138	-1.57029E-009	0.0602469	5
	58	27	1.584686	398352.5	-489213.7	1	630884.1	-50.84507	-1.458835E-009	0.0602474	5
	59	29	1.266892	454295.6	-541218.8	1	706613.2	-49.99012	-1.438728E-009	0.0602079	5
	60	31	0.999041	520016.5	-604566.5	1	797444.6	-49.2996	-1.3692E-009	0.060179	5
