EXPLAIN
TAG	EISPOT
TITLE	LABEL	Potentiostatic EIS	Test &Identifier
DATE	LABEL	11/9/2019	Date
TIME	LABEL	10:58:44	Time
NOTES	NOTES	2	&Notes...
	
	
PSTAT	PSTAT	REF600-11020	Potentiostat
VDC	POTEN	0.00000E+000	T	DC &Voltage (V)
FREQINIT	QUANT	1.00000E+006	Initial Fre&q. (Hz)
FREQFINAL	QUANT	1.00000E+000	Final Fre&q. (Hz)
PTSPERDEC	QUANT	1.00000E+001	Points/&decade
VAC	QUANT	2.50000E+001	AC &Voltage (mV rms)
AREA	QUANT	1.00000E-002	&Area (cm^2)
CONDIT	TWOPARAM	T	5.00000E+000	0.00000E+000	Conditionin&g	Time(s)	E(V)
DELAY	TWOPARAM	T	5.00000E+000	0.00000E+000	Init. De&lay	Time(s)	Stab.(mV/s)
SPEED	SELECTOR	0	&Optimize for:
ZGUESS	QUANT	1.00000E+005	E&stimated Z (ohms)
OCVCURVE	TABLE	19
	Pt	T	Vf	Vm	Ach	Over
	#	s	V vs. Ref.	V	V	bits
	0	0.258333	3.44538E+000	3.44538E+000	6.01999E-004	...........
	1	0.516667	3.44450E+000	3.39902E+000	6.07965E-004	...........
	2	0.775	3.44024E+000	3.41687E+000	5.99765E-004	...........
	3	1.03333	3.43094E+000	3.37232E+000	5.95799E-004	...........
	4	1.29167	3.41788E+000	3.38863E+000	6.02832E-004	...........
	5	1.55	3.40339E+000	3.34217E+000	6.07898E-004	...........
	6	1.80833	3.38839E+000	3.34507E+000	6.01532E-004	...........
	7	2.06667	3.37232E+000	3.30137E+000	6.00465E-004	...........
	8	2.325	3.35500E+000	3.33071E+000	6.05898E-004	...........
	9	2.58333	3.33903E+000	3.32919E+000	6.08598E-004	...........
	10	2.84167	3.32929E+000	3.35722E+000	5.98932E-004	...........
	11	3.1	3.32822E+000	3.32813E+000	5.99199E-004	...........
	12	3.35833	3.33286E+000	3.35858E+000	6.05898E-004	...........
	13	3.61667	3.33813E+000	3.32196E+000	6.02532E-004	...........
	14	3.875	3.34117E+000	3.36160E+000	6.00899E-004	...........
	15	4.13333	3.34198E+000	3.31884E+000	5.97898E-004	...........
	16	4.39167	3.34180E+000	3.36843E+000	6.06698E-004	...........
	17	4.65	3.34175E+000	3.31847E+000	6.03498E-004	...........
	18	4.90833	3.34215E+000	3.36652E+000	5.89999E-004	...........
EOC	QUANT	3.342146	Open Circuit (V)
PSTATMODEL	IQUANT	4	Pstat Model
PSTATSECTION	LABEL	REF600-11020	Pstat Section
PSTATSERIALNO	LABEL	11020	Pstat Serial Number
CTRLMODE	IQUANT	1	Control Mode
IESTAB	IQUANT	0	I/E Stability
CASPEED	IQUANT	1	Control Amp Speed
CONVENTION	IQUANT	1	Current Convention
ICHRANGE	IQUANT	2	Ich Range
ICHRANGEMODE	TOGGLE	F	Ich Auto Range
ICHOFFSETENABLE	TOGGLE	T	Ich Offset Enable
ICHOFFSET	QUANT	0	Ich Offset (V)
ICHFILTER	IQUANT	3	Ich Filter
VCHRANGE	IQUANT	2	Vch Range
VCHRANGEMODE	TOGGLE	F	Vch Auto Range
VCHOFFSETENABLE	TOGGLE	T	Vch Offset Enable
VCHOFFSET	QUANT	0	Vch Offset (V)
VCHFILTER	IQUANT	3	Vch Filter
ACHRANGE	IQUANT	2	Ach Range
ACHOFFSETENABLE	TOGGLE	F	Ach Offset Enable
ACHOFFSET	QUANT	0	Ach Offset (V)
ACHFILTER	IQUANT	3	Ach Filter
IERANGELOWERLIMIT	IQUANT	1	I/E Range Lower Limit
IERANGEMODE	TOGGLE	F	I/E AutoRange
IERANGE	IQUANT	7	I/E Range
POSFEEDENABLE	TOGGLE	F	Positive Feedback IR Comp
POSFEEDRESISTANCE	QUANT	0	Positive Feedback Resistance (ohm)
ACHSELECT	IQUANT	0	Ach Select
CABLEID	IQUANT	14	Cable ID
DCCALDATE	LABEL	8/19/2019	DC Calibration Date
ACCALDATE	LABEL	8/19/2019	AC Calibration Date
THERMOSELECT	IQUANT	1	Thermo Select
FRAMEWORKVERSION	QUANT	6.33	Framework Version
INSTRUMENTVERSION	LABEL	3.50	Instrument Version
ZCURVE	TABLE
	Pt	Time	Freq	Zreal	Zimag	Zsig	Zmod	Zphz	Idc	Vdc	IERange
	#	s	Hz	ohm	ohm	V	ohm	°	A	V	#
	0	2	1000078	697.675	-13619.33	1	13637.18	-87.06748	1.081976E-005	3.343462	8
	1	2	794390.6	1304.853	-17269.77	1	17319	-85.67911	-1.088051E-005	3.345999	8
	2	3	630984.4	1496.585	-20921.92	1	20975.38	-85.90849	9.800486E-006	3.342537	8
	3	3	501234.4	333.3786	-25543.37	1	25545.55	-89.25225	-6.139134E-006	3.344589	8
	4	4	398109.4	-143.86	-32437.86	1	32438.18	-90.2541	-3.357165E-006	3.344195	8
	5	4	316265.6	1777.82	-40984.3	1	41022.84	-87.51617	2.401327E-006	3.344409	8
	6	5	251203.1	4383.784	-52462.05	1	52644.89	-85.2234	-1.960802E-006	3.344487	8
	7	6	199546.9	6571.793	-62746.61	1	63089.82	-84.0209	7.463311E-006	3.34252	8
	8	7	158578.1	11875.43	-81356.13	1	82218.27	-81.69527	7.573366E-006	3.342509	8
	9	7	125953.1	7912.562	-98439.4	1	98756.9	-85.40444	1.532378E-006	3.347479	7
	10	8	100078.1	4446.643	-123250.4	1	123330.6	-87.93377	-3.095108E-007	3.342156	7
	11	8	79453.13	9261.203	-161864.2	1	162128.9	-86.72534	1.492098E-006	3.340876	7
	12	9	63140.62	23766.91	-203087.5	1	204473.5	-83.32516	-3.005744E-007	3.342154	7
	13	9	50203.12	5108.176	-237016.6	1	237071.7	-88.76535	-1.954356E-006	3.345396	7
	14	9	39890.62	6260.243	-297768.2	1	297834	-88.7956	-1.026429E-007	3.345769	7
	15	10	31640.63	50040.92	-407907.9	1	410965.9	-83.00607	1.817855E-006	3.34228	7
	16	10	25171.88	-61333.81	-461372.3	1	465431.2	-97.5724	-3.011464E-007	3.342147	7
	17	11	20015.62	152867.2	-579688.3	1	599505.5	-75.22708	4.195167E-007	3.345128	7
	18	12	15890.62	-23079.05	-695748.2	1	696130.9	-91.89989	1.038345E-006	3.340919	7
	19	12	12609.37	92552.39	-899023.4	1	903774.9	-84.12224	3.855473E-007	3.340158	6
	20	13	10078.13	140578.7	-989712	1	999646	-81.91578	1.900359E-007	3.338102	6
	21	13	8015.625	547244.6	-1782761	1	1864863	-72.93536	1.914054E-007	3.338097	6
	22	14	6328.125	348359.7	-1406658	1	1449152	-76.09052	2.096889E-007	3.344953	6
	23	14	5015.625	359273.8	-1744020	1	1780641	-78.35972	3.854666E-007	3.338951	6
	24	15	3984.375	646128.7	-1992423	1	2094572	-72.03249	-3.195463E-008	3.348272	6
	25	16	3170.956	47944.84	-4913631	1	4913866	-89.44096	2.902876E-007	3.337814	6
	26	16	2527.573	-2.622855E+007	1.028747E+007	1	2.817391E+007	158.5837	2.096119E-007	3.344953	6
	27	17	1976.103	-2062.942	-5396075	1	5396075	-90.0219	-1.577032E-007	3.349422	6
	28	18	1577.524	-604430.2	-1649274	1	1756542	-110.127	-3.831616E-007	3.350358	6
	29	19	1265.625	454488.9	-8379979	1	8392295	-86.8956	-2.582935E-008	3.343122	5
	30	19	998.264	-7218678	1429956	1	7358946	168.7953	2.861786E-007	3.337818	6
	31	20	796.875	-1491818	-2.425724E+007	1	2.430307E+007	-93.51925	-4.173354E-008	3.347347	5
	32	20	627.7902	-5840541	-1.896668E+007	1	1.984557E+007	-107.1155	4.001635E-008	3.33935	5
	33	21	505.5147	7571967	-1.302217E+007	1	1.506359E+007	-59.8234	2.759358E-008	3.343817	5
	34	21	397.9953	-4754245	-2.052569E+007	1	2.106909E+007	-103.0411	2.412399E-010	3.343887	5
	35	22	315.5048	7231437	-2.671014E+007	1	2.767174E+007	-74.85104	-1.493835E-009	3.343859	5
	36	22	252.4038	-1.309303E+007	-2.291828E+007	1	2.63946E+007	-119.739	-7.789174E-010	3.343886	5
	37	23	198.6229	4.039978E+007	1.789955E+007	1	4.418751E+007	23.89624	5.369324E-010	3.34386	5
	38	23	158.3615	-8184708	-1.36389E+007	1	1.590626E+007	-120.968	5.875845E-010	3.343877	5
	39	24	125.558	1100029	-2.768841E+007	1	2.771026E+007	-87.7249	2.550274E-010	3.34387	5
	40	24	100.4464	-1.011765E+007	12493.15	1	1.011766E+007	179.9292	-9.982337E-010	3.343861	5
	41	25	79.00281	-7956353	2516264	1	8344767	162.45	-1.642179E-009	3.343868	5
	42	26	63.3446	-372635	-2239209	1	2270003	-99.4482	-2.269125E-010	3.343868	6
	43	26	49.86702	1.383075E+007	-9.985283E+006	1	1.705859E+007	-35.82787	2.10182E-010	3.343848	5
	44	27	39.72458	1.80814E+007	-1.613007E+007	1	2.423048E+007	-41.73552	3.184282E-010	3.343852	5
	45	28	31.6723	1.033676E+007	160983.5	1	1.033801E+007	0.8922459	-2.684072E-010	3.343873	5
	46	28	24.93351	1.7246E+007	6.480222E+007	1	6.705783E+007	75.09714	-1.414251E-010	3.343875	5
	47	29	19.86229	2.768599E+007	-2.216318E+007	1	3.546436E+007	-38.67797	-5.924435E-010	3.343876	6
	48	30	15.83615	1469418	-5709671	1	5895721	-75.56777	-2.679965E-009	3.343864	5
	49	30	12.40079	-2642323	9059377	1	9436852	106.2602	-1.336366E-009	3.343868	6
	50	31	9.93114	-6.620111E+007	-6.897463E+007	1	9.56038E+007	-133.8246	-2.226078E-010	3.343885	5
	51	32	7.944915	-3.877813E+007	6.462357E+007	1	7.536543E+007	120.9664	1.087877E-010	3.343881	5
	52	33	6.317385	1.196014E+009	-5.470703E+008	1	1.315194E+009	-24.57989	-7.414659E-011	3.343869	6
	53	35	5.008013	4.376802E+008	-1.811095E+008	1	4.736714E+008	-22.47949	-7.522787E-011	3.343883	5
	54	38	3.945707	-7932689	1.29693E+008	1	1.299354E+008	93.50014	-2.510637E-010	3.343875	5
	55	40	3.158693	2.683968E+008	-1.20224E+009	1	1.231835E+009	-77.41524	1.100444E-010	3.343876	5
	56	43	2.504006	3.378122E+009	8.278018E+009	1	8.940766E+009	67.80044	-1.129011E-010	3.343873	3
	57	46	1.998082	4.552437E+009	-2.189817E+009	1	5.05173E+009	-25.68852	-1.23348E-010	3.343844	3
	58	49	1.584686	6.529965E+008	-9.984054E+008	1	1.192987E+009	-56.81373	-1.137261E-010	3.343925	3
	59	53	1.266892	9.463594E+010	1.954012E+011	1	2.171119E+011	64.15834	-1.137199E-011	3.343908	2
	60	58	0.999041	-6.694443E+009	8.327163E+009	1	1.068444E+010	128.7968	-9.45869E-012	3.343849	2
