EXPLAIN
TAG	EISPOT
TITLE	LABEL	Potentiostatic EIS	Test &Identifier
DATE	LABEL	11/7/2019	Date
TIME	LABEL	9:31:53	Time
NOTES	NOTES	2	&Notes...
	
	
PSTAT	PSTAT	REF600-11020	Potentiostat
VDC	POTEN	0.00000E+000	T	DC &Voltage (V)
FREQINIT	QUANT	1.00000E+006	Initial Fre&q. (Hz)
FREQFINAL	QUANT	1.00000E+000	Final Fre&q. (Hz)
PTSPERDEC	QUANT	1.00000E+001	Points/&decade
VAC	QUANT	2.50000E+001	AC &Voltage (mV rms)
AREA	QUANT	1.00000E-002	&Area (cm^2)
CONDIT	TWOPARAM	T	5.00000E+000	0.00000E+000	Conditionin&g	Time(s)	E(V)
DELAY	TWOPARAM	T	5.00000E+000	0.00000E+000	Init. De&lay	Time(s)	Stab.(mV/s)
SPEED	SELECTOR	1	&Optimize for:
ZGUESS	QUANT	1.00000E+005	E&stimated Z (ohms)
OCVCURVE	TABLE	19
	Pt	T	Vf	Vm	Ach	Over
	#	s	V vs. Ref.	V	V	bits
	0	0.258333	4.63089E-003	4.63089E-003	6.31931E-004	...........
	1	0.516667	4.62704E-003	4.42913E-003	6.35865E-004	...........
	2	0.775	4.60386E-003	4.26365E-003	6.40731E-004	...........
	3	1.03333	4.54005E-003	4.11083E-003	6.34798E-004	...........
	4	1.29167	4.43053E-003	4.01546E-003	6.37998E-004	...........
	5	1.55	4.29431E-003	3.91149E-003	6.35865E-004	...........
	6	1.80833	4.15716E-003	3.81952E-003	6.41031E-004	...........
	7	2.06667	4.03388E-003	3.73708E-003	6.40298E-004	...........
	8	2.325	3.92673E-003	3.66303E-003	6.37698E-004	...........
	9	2.58333	3.83284E-003	3.59943E-003	6.40031E-004	...........
	10	2.84167	3.75075E-003	3.60455E-003	6.42298E-004	...........
	11	3.1	3.68275E-003	3.54955E-003	6.41465E-004	...........
	12	3.35833	3.62987E-003	3.48439E-003	6.41731E-004	...........
	13	3.61667	3.58532E-003	3.41399E-003	6.48198E-004	...........
	14	3.875	3.53867E-003	3.36871E-003	6.43831E-004	...........
	15	4.13333	3.48550E-003	3.30496E-003	6.41698E-004	...........
	16	4.39167	3.42799E-003	3.24416E-003	6.45065E-004	...........
	17	4.65	3.37107E-003	3.29435E-003	6.45764E-004	...........
	18	4.90833	3.32228E-003	3.23041E-003	6.40631E-004	...........
EOC	QUANT	0.0033223	Open Circuit (V)
PSTATMODEL	IQUANT	4	Pstat Model
PSTATSECTION	LABEL	REF600-11020	Pstat Section
PSTATSERIALNO	LABEL	11020	Pstat Serial Number
CTRLMODE	IQUANT	1	Control Mode
IESTAB	IQUANT	0	I/E Stability
CASPEED	IQUANT	1	Control Amp Speed
CONVENTION	IQUANT	1	Current Convention
ICHRANGE	IQUANT	2	Ich Range
ICHRANGEMODE	TOGGLE	F	Ich Auto Range
ICHOFFSETENABLE	TOGGLE	T	Ich Offset Enable
ICHOFFSET	QUANT	0	Ich Offset (V)
ICHFILTER	IQUANT	3	Ich Filter
VCHRANGE	IQUANT	2	Vch Range
VCHRANGEMODE	TOGGLE	F	Vch Auto Range
VCHOFFSETENABLE	TOGGLE	T	Vch Offset Enable
VCHOFFSET	QUANT	0	Vch Offset (V)
VCHFILTER	IQUANT	3	Vch Filter
ACHRANGE	IQUANT	2	Ach Range
ACHOFFSETENABLE	TOGGLE	F	Ach Offset Enable
ACHOFFSET	QUANT	0	Ach Offset (V)
ACHFILTER	IQUANT	3	Ach Filter
IERANGELOWERLIMIT	IQUANT	1	I/E Range Lower Limit
IERANGEMODE	TOGGLE	F	I/E AutoRange
IERANGE	IQUANT	4	I/E Range
POSFEEDENABLE	TOGGLE	F	Positive Feedback IR Comp
POSFEEDRESISTANCE	QUANT	0	Positive Feedback Resistance (ohm)
ACHSELECT	IQUANT	0	Ach Select
CABLEID	IQUANT	14	Cable ID
DCCALDATE	LABEL	8/19/2019	DC Calibration Date
ACCALDATE	LABEL	8/19/2019	AC Calibration Date
THERMOSELECT	IQUANT	1	Thermo Select
FRAMEWORKVERSION	QUANT	6.33	Framework Version
INSTRUMENTVERSION	LABEL	3.50	Instrument Version
ZCURVE	TABLE
	Pt	Time	Freq	Zreal	Zimag	Zsig	Zmod	Zphz	Idc	Vdc	IERange
	#	s	Hz	ohm	ohm	V	ohm	°	A	V	#
	0	1	1000078	2301.643	-1449.958	1	2720.283	-32.20956	-1.331025E-006	0.0064192	8
	1	3	794390.6	2571.817	-1372.984	1	2915.361	-28.09587	-3.238115E-006	0.005051	8
	2	4	630984.4	2804.565	-1267.818	1	3077.815	-24.32558	-1.130769E-006	0.0055461	8
	3	5	501234.4	3022.262	-1121.151	1	3223.515	-20.35305	3.30974E-006	0.0041858	8
	4	7	398109.4	3176.56	-994.128	1	3328.487	-17.37789	7.703826E-006	0.0040006	8
	5	8	316265.6	3301.445	-889.28	1	3419.117	-15.07544	-1.419156E-006	0.0053098	8
	6	10	251203.1	3397.79	-766.6517	1	3483.207	-12.71487	-3.974963E-007	0.0053293	8
	7	11	199546.9	3480.808	-677.7618	1	3546.179	-11.01842	2.092317E-006	0.0051093	8
	8	12	158578.1	3570.064	-586.7428	1	3617.958	-9.33317	-2.139166E-006	0.0049383	8
	9	14	125953.1	3614.979	-481.7971	1	3646.944	-7.591527	-3.075672E-006	0.0072993	7
	10	15	100078.1	3645.132	-443.6104	1	3672.026	-6.93874	-3.317851E-007	0.0062778	7
	11	16	79453.13	3687.13	-430.9532	1	3712.23	-6.666506	5.523792E-007	0.0029142	7
	12	18	63140.62	3723.796	-426.7944	1	3748.175	-6.538296	1.090315E-006	0.0029022	7
	13	19	50203.12	3760.244	-428.1097	1	3784.536	-6.495247	-9.99562E-007	0.0066239	7
	14	20	39890.62	3802.058	-443.8468	1	3827.877	-6.658489	9.151427E-007	0.0045291	7
	15	22	31640.63	3842.321	-466.6898	1	3870.56	-6.925246	-1.21779E-006	0.0065435	7
	16	23	25171.88	3886.375	-499.8477	1	3918.387	-7.328886	-1.218325E-006	0.0065432	7
	17	24	20015.62	3935.448	-539.4284	1	3972.246	-7.804845	-9.985056E-007	0.006616	7
	18	26	15890.62	3993.243	-594.2026	1	4037.211	-8.463623	-9.986462E-007	0.0066187	7
	19	27	12609.37	4054.433	-660.9911	1	4107.96	-9.259427	-1.21741E-006	0.0065418	7
	20	29	10078.13	4116.016	-735.1666	1	4181.155	-10.12688	-3.3136E-007	0.0062659	7
	21	30	8015.625	4175.306	-827.8724	1	4256.589	-11.21505	-1.150048E-006	0.005307	7
	22	31	6328.125	4266.434	-933.5036	1	4367.366	-12.34192	-1.218329E-006	0.0065439	7
	23	33	5015.625	4354.043	-1063.931	1	4482.147	-13.73142	1.209378E-006	0.0031455	7
	24	34	3984.375	4437.942	-1221.137	1	4602.88	-15.38469	6.952276E-008	0.0058313	7
	25	35	3170.956	4532.358	-1406.194	1	4745.488	-17.23685	7.065572E-008	0.0058308	7
	26	37	2527.573	4630.271	-1632.132	1	4909.507	-19.41713	-1.343911E-006	0.0059319	7
	27	38	1976.103	4754.41	-1931.093	1	5131.621	-22.10545	1.120217E-006	0.0039886	7
	28	39	1577.524	4872.894	-2264.633	1	5373.421	-24.92622	-1.359839E-006	0.0063567	7
	29	41	1265.625	4997.091	-2677.938	1	5669.416	-28.18683	-3.315742E-007	0.0062562	7
	30	42	998.264	5156.745	-3212.031	1	6075.292	-31.91794	-1.343088E-006	0.0059261	7
	31	43	796.875	5327.664	-3835.447	1	6564.652	-35.75055	-3.206163E-007	0.0037717	7
	32	45	627.7902	5534.194	-4645.857	1	7225.738	-40.01286	1.206247E-006	0.00315	7
	33	46	505.5147	5764.354	-5537.334	1	7993.112	-43.84924	-1.219192E-006	0.0065358	7
	34	48	397.9953	6037.9	-6744.081	1	9052.009	-48.16227	5.123469E-009	0.0047795	7
	35	49	315.5048	6363.684	-8188.808	1	10370.78	-52.14852	4.513801E-010	0.0047182	6
	36	51	252.4038	6723.553	-9893.99	1	11962.32	-55.80156	-3.216391E-010	0.0047199	6
	37	52	198.6229	7188.027	-12149.53	1	14116.61	-59.39016	1.256141E-009	0.0047062	6
	38	53	158.3615	7716.019	-14778.65	1	16671.7	-62.43068	7.21423E-010	0.0047072	6
	39	55	125.558	8385.305	-18100.58	1	19948.54	-65.14352	1.263466E-009	0.0047136	6
	40	56	100.4464	9160.897	-22004.74	1	23835.49	-67.39732	3.005855E-010	0.0047056	6
	41	57	79.00281	10226.72	-27246.24	1	29102.29	-69.42667	8.9967E-010	0.0047142	6
	42	59	63.3446	11555.14	-33452.23	1	35391.7	-70.94395	4.951414E-010	0.0047026	6
	43	60	49.86702	13148.48	-40680.08	1	42752.21	-72.0883	-1.390035E-010	0.0047128	6
	44	62	39.72458	15678.42	-49723.88	1	52137.1	-72.49944	7.628723E-010	0.0047063	6
	45	63	31.6723	18658.52	-60776.31	1	63575.94	-72.93335	2.590395E-010	0.0047113	6
	46	65	24.93351	22788.88	-74492.35	1	77900.22	-72.98995	3.615435E-010	0.0047088	6
	47	66	19.86229	27926.51	-90220.96	1	94444.23	-72.8009	3.798713E-010	0.0047162	6
	48	67	15.83615	33318.79	-108599.6	1	113595.8	-72.94377	2.126662E-009	0.004715	5
	49	69	12.40079	44531.65	-132244.2	1	139540.7	-71.38966	-8.308712E-010	0.0047246	5
	50	70	9.93114	55336.71	-159273	1	168612.1	-70.84108	-2.196276E-010	0.0047215	5
	51	72	7.944915	69802.16	-190302	1	202699.8	-69.85712	4.898774E-010	0.004722	5
	52	73	6.317385	87993.64	-226452.5	1	242947.7	-68.76514	4.476116E-010	0.0047277	5
	53	75	5.008013	111941.5	-268870.1	1	291242.2	-67.39605	4.463759E-010	0.0047241	5
	54	78	3.945707	143303.5	-318604.2	1	349348.8	-65.78248	1.812833E-010	0.0047065	5
	55	81	3.158693	177677	-370868.9	1	411233.3	-64.40171	3.757848E-010	0.0047348	5
	56	84	2.504006	222238.4	-431710.8	1	485555.5	-62.76125	-1.796557E-010	0.0047152	5
	57	87	1.998082	273157.8	-495435.8	1	565748.9	-61.12992	8.95899E-011	0.0046793	5
	58	90	1.584686	332925.1	-566602.7	1	657174	-59.56231	2.811509E-011	0.0047354	5
	59	94	1.266892	400093.3	-644012.3	1	758173.1	-58.14934	5.435208E-011	0.0046812	5
	60	98	0.999041	479949.6	-732492.5	1	875726.5	-56.76606	2.176099E-010	0.0047534	5
