EXPLAIN
TAG	EISPOT
TITLE	LABEL	Potentiostatic EIS	Test &Identifier
DATE	LABEL	8/14/2018	Date
TIME	LABEL	5:35:05	Time
NOTES	NOTES	1	&Notes...
	
PSTAT	PSTAT	REF600-11020	Potentiostat
VDC	POTEN	0.00000E+000	T	DC &Voltage (V)
FREQINIT	QUANT	1.00000E+006	Initial Fre&q. (Hz)
FREQFINAL	QUANT	1.00000E+000	Final Fre&q. (Hz)
PTSPERDEC	QUANT	1.00000E+001	Points/&decade
VAC	QUANT	2.50000E+001	AC &Voltage (mV rms)
AREA	QUANT	1.00000E-002	&Area (cm^2)
CONDIT	TWOPARAM	T	5.00000E+000	0.00000E+000	Conditionin&g	Time(s)	E(V)
DELAY	TWOPARAM	T	5.00000E+000	0.00000E+000	Init. De&lay	Time(s)	Stab.(mV/s)
SPEED	SELECTOR	0	&Optimize for:
ZGUESS	QUANT	1.00000E+005	E&stimated Z (ohms)
OCVCURVE	TABLE	19
	Pt	T	Vf	Vm	Ach	Over
	#	s	V vs. Ref.	V	V	bits
	0	0.258333	2.42888E-002	2.42888E-002	5.53766E-004	...........
	1	0.516667	2.43172E-002	2.57760E-002	5.50699E-004	...........
	2	0.775	2.44899E-002	2.70964E-002	5.51766E-004	...........
	3	1.03333	2.49759E-002	2.85156E-002	5.50366E-004	...........
	4	1.29167	2.58453E-002	2.97871E-002	5.54099E-004	...........
	5	1.55	2.70071E-002	3.10170E-002	5.57333E-004	...........
	6	1.80833	2.83043E-002	3.22764E-002	5.58599E-004	...........
	7	2.06667	2.96179E-002	3.33731E-002	5.56333E-004	...........
	8	2.325	3.08930E-002	3.45760E-002	5.50599E-004	...........
	9	2.58333	3.21180E-002	3.56784E-002	5.48866E-004	...........
	10	2.84167	3.32991E-002	3.66793E-002	5.56832E-004	...........
	11	3.1	3.44412E-002	3.77923E-002	5.59432E-004	...........
	12	3.35833	3.55459E-002	3.87540E-002	5.53066E-004	...........
	13	3.61667	3.66170E-002	3.97469E-002	5.49233E-004	...........
	14	3.875	3.76589E-002	4.07853E-002	5.61566E-004	...........
	15	4.13333	3.86761E-002	4.16176E-002	5.58766E-004	...........
	16	4.39167	3.96698E-002	4.26150E-002	5.60532E-004	...........
	17	4.65	4.06391E-002	4.35573E-002	5.55833E-004	...........
	18	4.90833	4.15879E-002	4.43396E-002	5.57599E-004	...........
EOC	QUANT	0.0415879	Open Circuit (V)
PSTATMODEL	IQUANT	4	Pstat Model
PSTATSECTION	LABEL	REF600-11020	Pstat Section
PSTATSERIALNO	LABEL	11020	Pstat Serial Number
CTRLMODE	IQUANT	1	Control Mode
IESTAB	IQUANT	0	I/E Stability
CASPEED	IQUANT	1	Control Amp Speed
CONVENTION	IQUANT	1	Current Convention
ICHRANGE	IQUANT	2	Ich Range
ICHRANGEMODE	TOGGLE	F	Ich Auto Range
ICHOFFSETENABLE	TOGGLE	T	Ich Offset Enable
ICHOFFSET	QUANT	0	Ich Offset (V)
ICHFILTER	IQUANT	3	Ich Filter
VCHRANGE	IQUANT	2	Vch Range
VCHRANGEMODE	TOGGLE	F	Vch Auto Range
VCHOFFSETENABLE	TOGGLE	T	Vch Offset Enable
VCHOFFSET	QUANT	0	Vch Offset (V)
VCHFILTER	IQUANT	3	Vch Filter
ACHRANGE	IQUANT	2	Ach Range
ACHOFFSETENABLE	TOGGLE	F	Ach Offset Enable
ACHOFFSET	QUANT	0	Ach Offset (V)
ACHFILTER	IQUANT	3	Ach Filter
IERANGELOWERLIMIT	IQUANT	1	I/E Range Lower Limit
IERANGEMODE	TOGGLE	F	I/E AutoRange
IERANGE	IQUANT	5	I/E Range
POSFEEDENABLE	TOGGLE	F	Positive Feedback IR Comp
POSFEEDRESISTANCE	QUANT	0	Positive Feedback Resistance (ohm)
ACHSELECT	IQUANT	0	Ach Select
CABLEID	IQUANT	14	Cable ID
DCCALDATE	LABEL	8/19/2019	DC Calibration Date
ACCALDATE	LABEL	8/19/2019	AC Calibration Date
THERMOSELECT	IQUANT	1	Thermo Select
FRAMEWORKVERSION	QUANT	6.33	Framework Version
INSTRUMENTVERSION	LABEL	3.50	Instrument Version
ZCURVE	TABLE
	Pt	Time	Freq	Zreal	Zimag	Zsig	Zmod	Zphz	Idc	Vdc	IERange
	#	s	Hz	ohm	ohm	V	ohm	°	A	V	#
	0	2	1000078	2350.522	-1115.609	1	2601.833	-25.39003	1.121716E-006	0.0443492	8
	1	2	794390.6	2524.813	-1046.947	1	2733.272	-22.52199	4.979034E-006	0.0423463	8
	2	2	630984.4	2694.866	-954.898	1	2859.044	-19.51125	-1.15563E-006	0.0433068	8
	3	3	501234.4	2834.35	-872.6025	1	2965.632	-17.11186	5.26742E-006	0.0419879	8
	4	3	398109.4	2943.416	-774.8456	1	3043.696	-14.74834	-2.934942E-006	0.04353	8
	5	3	316265.6	3037.188	-691.6988	1	3114.958	-12.82989	-1.121026E-006	0.0435089	8
	6	4	251203.1	3108.999	-630.6933	1	3172.325	-11.46744	3.745702E-008	0.0431199	8
	7	4	199546.9	3179.751	-557.2958	1	3228.219	-9.94092	-9.061101E-007	0.0432696	8
	8	4	158578.1	3248.151	-503.5362	1	3286.949	-8.811987	-3.300428E-006	0.0437076	8
	9	5	125953.1	3302.471	-409.6527	1	3327.781	-7.071095	6.425722E-007	0.0418183	7
	10	5	100078.1	3350.751	-396.4741	1	3374.126	-6.748087	-1.383703E-008	0.0429694	7
	11	5	79453.13	3393.827	-390.0833	1	3416.171	-6.556751	1.683434E-008	0.0430974	7
	12	6	63140.62	3435.565	-390.0266	1	3457.633	-6.476841	3.903891E-008	0.0429634	7
	13	6	50203.12	3479.77	-394.0264	1	3502.008	-6.460282	5.569116E-008	0.0429135	7
	14	6	39890.62	3524.229	-402.9752	1	3547.193	-6.523111	3.827473E-008	0.0429596	7
	15	7	31640.63	3570.178	-416.4302	1	3594.382	-6.652991	1.947685E-008	0.0429103	7
	16	7	25171.88	3615.561	-437.0027	1	3641.875	-6.891749	-1.453088E-008	0.0430035	7
	17	7	20015.62	3664.439	-463.8086	1	3693.675	-7.213577	4.214714E-008	0.0428614	7
	18	8	15890.62	3709.892	-502.0467	1	3743.708	-7.706819	1.650776E-008	0.0430902	7
	19	8	12609.37	3760.121	-544.3091	1	3799.313	-8.236829	-1.344327E-008	0.0429991	7
	20	8	10078.13	3808.325	-612.5876	1	3857.28	-9.138027	4.397083E-008	0.0428546	7
	21	8	8015.625	3858.564	-668.4194	1	3916.031	-9.82782	-1.419804E-008	0.0429468	7
	22	9	6328.125	3918.819	-761.0706	1	3992.039	-10.99055	-9.366357E-008	0.04313	7
	23	9	5015.625	3978.766	-869.8722	1	4072.745	-12.33245	1.824856E-008	0.0429029	7
	24	9	3984.375	4039.342	-1002.327	1	4161.844	-13.93597	-1.928936E-008	0.0430651	7
	25	10	3170.956	4105.244	-1169.609	1	4268.608	-15.90257	1.035852E-007	0.0428936	7
	26	10	2527.573	4173.191	-1369.658	1	4392.208	-18.17005	-7.07417E-008	0.0430891	7
	27	10	1976.103	4252.414	-1645.745	1	4559.77	-21.15715	-5.042106E-009	0.0429853	7
	28	11	1577.524	4334.428	-1971.032	1	4761.537	-24.45313	1.178825E-007	0.0428123	7
	29	11	1265.625	4422.843	-2330.633	1	4999.339	-27.78715	-1.281348E-008	0.0429869	7
	30	11	998.264	4530.303	-2834.561	1	5344.004	-32.03376	-5.750516E-008	0.0431095	7
	31	12	796.875	4655.833	-3422.651	1	5778.523	-36.32079	-1.379486E-008	0.0429843	7
	32	12	627.7902	4814.04	-4196.698	1	6386.49	-41.08069	-7.020482E-008	0.0430826	7
	33	12	505.5147	4986.573	-5063.479	1	7106.668	-45.43843	-1.386615E-008	0.0429855	7
	34	13	397.9953	5230.017	-6243.337	1	8144.467	-50.04724	-1.693935E-009	0.043011	7
	35	13	315.5048	5527.779	-7654.256	1	9441.608	-54.1638	-2.333186E-009	0.0430123	7
	36	13	252.4038	5896.104	-9311.282	1	11021.07	-57.65713	-2.937228E-009	0.0429484	6
	37	14	198.6229	6398.557	-11495.87	1	13156.61	-60.89985	-2.178687E-009	0.0429482	6
	38	14	158.3615	7019.515	-14027.21	1	15685.54	-63.41563	-2.007943E-009	0.0429474	6
	39	14	125.558	7839.102	-17178.95	1	18883	-65.47182	-1.740901E-009	0.0429448	6
	40	15	100.4464	8859.156	-20817.49	1	22624.16	-66.94718	-2.031178E-009	0.0429435	6
	41	15	79.00281	10350.62	-25564.71	1	27580.6	-67.95801	-1.520427E-009	0.0429468	6
	42	15	63.3446	12182.07	-31295.24	1	33582.66	-68.7309	-2.494616E-009	0.0429424	6
	43	16	49.86702	14684.72	-38020.46	1	40757.77	-68.88184	-2.482269E-009	0.0429472	6
	44	16	39.72458	17981.71	-45503.32	1	48927.44	-68.43739	-2.090421E-009	0.0429494	6
	45	16	31.6723	22116.74	-54320.18	1	58650.09	-67.84605	-2.207345E-009	0.042945	6
	46	17	24.93351	27826.5	-65504.56	1	71169.95	-66.98409	-1.305085E-009	0.0429441	6
	47	17	19.86229	34840.66	-77217.09	1	84713.34	-65.71491	-1.450907E-009	0.0429431	6
	48	17	15.83615	43087.03	-90687.44	1	100402.7	-64.58688	-1.311752E-009	0.0429454	6
	49	18	12.40079	56042	-106701.2	1	120523.3	-62.29049	-2.504604E-009	0.0429556	5
	50	18	9.93114	67929.28	-121733.2	1	139403.5	-60.8377	-1.588693E-009	0.0429515	5
	51	18	7.944915	81442.94	-137792.3	1	160061.5	-59.41455	-1.367223E-009	0.0429546	5
	52	19	6.317385	97745.6	-156845.2	1	184809.6	-58.06892	-1.274764E-009	0.0429456	5
	53	20	5.008013	115319.9	-178558.4	1	212560	-57.14408	-1.361628E-009	0.0429619	5
	54	21	3.945707	134296.9	-204894.1	1	244984.2	-56.75735	-1.97874E-009	0.0429503	5
	55	22	3.158693	152643.4	-232461.3	1	278097.6	-56.70949	-1.639291E-009	0.0429314	5
	56	24	2.504006	174310	-267192.4	1	319023.1	-56.88052	-1.343771E-009	0.0429353	5
	57	25	1.998082	197532.9	-307859.3	1	365782.2	-57.3144	-1.50904E-009	0.0429178	5
	58	27	1.584686	226736.2	-358026.9	1	423783.6	-57.65417	-2.09246E-009	0.0428932	5
	59	29	1.266892	255307	-415974.7	1	488074.4	-58.46023	-1.429066E-009	0.0429198	5
	60	31	0.999041	293533.4	-487895.5	1	569389.1	-58.96755	-1.193625E-009	0.0429479	5
