EXPLAIN
TAG	EISPOT
TITLE	LABEL	Potentiostatic EIS	Test &Identifier
DATE	LABEL	11/15/2019	Date
TIME	LABEL	9:35:06	Time
NOTES	NOTES	4	&Notes...
	
	
	
	
PSTAT	PSTAT	REF600-11020	Potentiostat
VDC	POTEN	0.00000E+000	T	DC &Voltage (V)
FREQINIT	QUANT	1.00000E+006	Initial Fre&q. (Hz)
FREQFINAL	QUANT	1.00000E+000	Final Fre&q. (Hz)
PTSPERDEC	QUANT	1.00000E+001	Points/&decade
VAC	QUANT	2.50000E+001	AC &Voltage (mV rms)
AREA	QUANT	1.00000E-002	&Area (cm^2)
CONDIT	TWOPARAM	T	5.00000E+000	0.00000E+000	Conditionin&g	Time(s)	E(V)
DELAY	TWOPARAM	T	5.00000E+000	0.00000E+000	Init. De&lay	Time(s)	Stab.(mV/s)
SPEED	SELECTOR	0	&Optimize for:
ZGUESS	QUANT	1.00000E+005	E&stimated Z (ohms)
OCVCURVE	TABLE	19
	Pt	T	Vf	Vm	Ach	Over
	#	s	V vs. Ref.	V	V	bits
	0	0.258333	5.45525E-003	5.45525E-003	5.53333E-004	...........
	1	0.516667	5.45638E-003	5.51433E-003	5.62132E-004	...........
	2	0.775	5.46353E-003	5.58204E-003	5.56366E-004	...........
	3	1.03333	5.48470E-003	5.65668E-003	5.58566E-004	...........
	4	1.29167	5.52521E-003	5.74875E-003	5.57066E-004	...........
	5	1.55	5.58401E-003	5.81155E-003	5.60232E-004	...........
	6	1.80833	5.65519E-003	5.89405E-003	5.55233E-004	...........
	7	2.06667	5.73192E-003	5.97751E-003	5.52532E-004	...........
	8	2.325	5.81033E-003	6.05552E-003	5.51333E-004	...........
	9	2.58333	5.88961E-003	6.13746E-003	5.53533E-004	...........
	10	2.84167	5.96971E-003	6.22100E-003	5.54866E-004	...........
	11	3.1	6.05044E-003	6.29777E-003	5.54199E-004	...........
	12	3.35833	6.13134E-003	6.37392E-003	5.54366E-004	...........
	13	3.61667	6.21158E-003	6.45217E-003	5.52166E-004	...........
	14	3.875	6.29051E-003	6.52472E-003	5.55133E-004	...........
	15	4.13333	6.36800E-003	6.59927E-003	5.56733E-004	...........
	16	4.39167	6.44415E-003	6.67472E-003	5.56299E-004	...........
	17	4.65	6.51928E-003	6.74651E-003	5.57266E-004	...........
	18	4.90833	6.59364E-003	6.81492E-003	5.55899E-004	...........
EOC	QUANT	0.0065936	Open Circuit (V)
PSTATMODEL	IQUANT	4	Pstat Model
PSTATSECTION	LABEL	REF600-11020	Pstat Section
PSTATSERIALNO	LABEL	11020	Pstat Serial Number
CTRLMODE	IQUANT	1	Control Mode
IESTAB	IQUANT	0	I/E Stability
CASPEED	IQUANT	1	Control Amp Speed
CONVENTION	IQUANT	1	Current Convention
ICHRANGE	IQUANT	2	Ich Range
ICHRANGEMODE	TOGGLE	F	Ich Auto Range
ICHOFFSETENABLE	TOGGLE	T	Ich Offset Enable
ICHOFFSET	QUANT	0	Ich Offset (V)
ICHFILTER	IQUANT	3	Ich Filter
VCHRANGE	IQUANT	2	Vch Range
VCHRANGEMODE	TOGGLE	F	Vch Auto Range
VCHOFFSETENABLE	TOGGLE	T	Vch Offset Enable
VCHOFFSET	QUANT	0	Vch Offset (V)
VCHFILTER	IQUANT	3	Vch Filter
ACHRANGE	IQUANT	2	Ach Range
ACHOFFSETENABLE	TOGGLE	F	Ach Offset Enable
ACHOFFSET	QUANT	0	Ach Offset (V)
ACHFILTER	IQUANT	3	Ach Filter
IERANGELOWERLIMIT	IQUANT	1	I/E Range Lower Limit
IERANGEMODE	TOGGLE	F	I/E AutoRange
IERANGE	IQUANT	5	I/E Range
POSFEEDENABLE	TOGGLE	F	Positive Feedback IR Comp
POSFEEDRESISTANCE	QUANT	0	Positive Feedback Resistance (ohm)
ACHSELECT	IQUANT	0	Ach Select
CABLEID	IQUANT	14	Cable ID
DCCALDATE	LABEL	8/19/2019	DC Calibration Date
ACCALDATE	LABEL	8/19/2019	AC Calibration Date
THERMOSELECT	IQUANT	1	Thermo Select
FRAMEWORKVERSION	QUANT	6.33	Framework Version
INSTRUMENTVERSION	LABEL	3.50	Instrument Version
ZCURVE	TABLE
	Pt	Time	Freq	Zreal	Zimag	Zsig	Zmod	Zphz	Idc	Vdc	IERange
	#	s	Hz	ohm	ohm	V	ohm	°	A	V	#
	0	2	1000078	1221.69	-1991.656	1	2336.497	-58.47487	7.302679E-007	0.0094981	8
	1	2	794390.6	1389.012	-2343.471	1	2724.19	-59.34412	2.701373E-006	0.0077864	8
	2	2	630984.4	1606.968	-2775.816	1	3207.413	-59.9327	-4.120643E-006	0.0089719	8
	3	3	501234.4	1872.489	-3271.843	1	3769.771	-60.21732	-1.154961E-007	0.0078579	8
	4	3	398109.4	2228.757	-3848.956	1	4447.675	-59.9268	6.491288E-007	0.0085785	8
	5	3	316265.6	2660.594	-4508.415	1	5234.937	-59.45347	5.97231E-007	0.008527	8
	6	4	251203.1	3208.193	-5256.868	1	6158.503	-58.60487	7.148014E-006	0.0072932	8
	7	4	199546.9	3886.039	-6119.087	1	7248.76	-57.58166	6.041982E-006	0.00738	8
	8	4	158578.1	4622.613	-6882.325	1	8290.654	-56.11214	6.966006E-006	0.0073122	8
	9	5	125953.1	5614.341	-7931.651	1	9717.61	-54.70761	4.544909E-006	0.002202	7
	10	5	100078.1	6584.211	-8824.136	1	11009.87	-53.27119	8.221425E-007	0.0082262	7
	11	6	79453.13	7699.384	-9980.11	1	12604.88	-52.35079	-1.521652E-006	0.0094708	7
	12	6	63140.62	8837.903	-11184.68	1	14255.02	-51.68493	1.476443E-007	0.0091989	7
	13	6	50203.12	10103.53	-12748.3	1	16266.54	-51.60179	1.392496E-006	0.0065154	7
	14	7	39890.62	11588.3	-14351.01	1	18445.6	-51.07947	1.095997E-006	0.0076511	7
	15	7	31640.63	13341.21	-16402.26	1	21142.89	-50.8759	-1.332978E-006	0.0100835	7
	16	7	25171.88	15413.84	-18655.61	1	24199.55	-50.43542	5.383274E-007	0.008654	7
	17	8	20015.62	17961.92	-21522.5	1	28032.99	-50.15282	-1.344867E-006	0.0087917	7
	18	8	15890.62	21261.71	-24304.02	1	32291.57	-48.81983	-1.521227E-006	0.0094529	7
	19	8	12609.37	25533.94	-27109.21	1	37240.99	-46.71398	7.159433E-008	0.0093088	6
	20	9	10078.13	30312.35	-29757.21	1	42477.41	-44.47052	-7.354758E-008	0.0109693	6
	21	9	8015.625	36022.92	-32656.85	1	48622.23	-42.19412	1.46545E-007	0.0046513	6
	22	9	6328.125	42579.77	-34363.59	1	54716.48	-38.90493	2.306798E-008	0.0054253	6
	23	10	5015.625	49633.92	-35379.51	1	60952.73	-35.48162	1.460233E-007	0.0046521	6
	24	10	3984.375	56217.03	-34405.69	1	65909.83	-31.46728	-2.046285E-007	0.0116809	6
	25	10	3170.956	63300.56	-33536.31	1	71635.5	-27.91441	2.113837E-007	0.0051127	6
	26	11	2527.573	68538.91	-30908.47	1	75185.87	-24.27358	-7.349305E-008	0.0109698	6
	27	11	1976.103	74059.67	-28308.74	1	79285.69	-20.91897	1.459669E-007	0.0046543	6
	28	12	1577.524	77846.43	-26324	1	82176.76	-18.68312	1.86818E-007	0.0047223	6
	29	12	1265.625	80818.5	-23754.63	1	84237.24	-16.37942	1.85518E-007	0.0072162	6
	30	12	998.264	83237.33	-21918.88	1	86074.91	-14.75278	1.854487E-007	0.0072152	6
	31	13	796.875	85329.66	-20317.15	1	87715.09	-13.39286	1.856559E-007	0.0072118	6
	32	13	627.7902	86657.63	-19354.76	1	88792.75	-12.59023	-1.146461E-007	0.0072251	6
	33	13	505.5147	87420.19	-18961.24	1	89452.88	-12.23777	-2.040384E-007	0.0116759	6
	34	14	397.9953	89669.52	-19752.81	1	91819.37	-12.42297	1.528757E-010	0.0079879	6
	35	14	315.5048	91324.41	-20503.62	1	93597.79	-12.65388	2.930343E-010	0.0079937	5
	36	14	252.4038	92965.49	-22155.36	1	95569	-13.40458	6.583494E-010	0.0079872	5
	37	15	198.6229	95113.6	-24750.11	1	98281	-14.58583	-1.093395E-011	0.0079971	5
	38	15	158.3615	97123.9	-27699.01	1	100996.4	-15.91776	-3.522891E-010	0.0079921	5
	39	15	125.558	99781.9	-31319.39	1	104581.7	-17.42595	2.244409E-010	0.0079902	5
	40	16	100.4464	102864.3	-36270.92	1	109071.7	-19.42314	-7.712447E-011	0.0079824	5
	41	16	79.00281	105981.2	-41854.68	1	113946.6	-21.55033	-9.640282E-012	0.0079827	5
	42	16	63.3446	113773.2	-44580.64	1	122195.6	-21.39713	-7.748234E-011	0.007994	5
	43	17	49.86702	118179.6	-53093.32	1	129558.2	-24.19246	9.125135E-010	0.007979	5
	44	17	39.72458	121831.1	-62092.05	1	136741.5	-27.00597	3.394528E-011	0.0079903	5
	45	17	31.6723	128362.1	-71463.42	1	146914.4	-29.10614	-2.51087E-010	0.0079804	5
	46	18	24.93351	137505.9	-82176.73	1	160190.2	-30.86352	5.428496E-010	0.0079785	5
	47	18	19.86229	146588.9	-93749.66	1	174003.7	-32.6006	1.66414E-009	0.0079913	5
	48	18	15.83615	155836.3	-106699.9	1	188864.6	-34.39913	-1.904203E-010	0.0079844	5
	49	19	12.40079	169930	-122608.1	1	209544.6	-35.81126	-5.82922E-010	0.007994	5
	50	19	9.93114	185665.9	-139161.3	1	232029.5	-36.8525	-6.112956E-010	0.007988	5
	51	20	7.944915	200392.1	-158258.9	1	255348.5	-38.29979	5.858813E-010	0.007978	5
	52	20	6.317385	217819	-178390.6	1	281546.3	-39.31698	2.884087E-010	0.0079708	5
	53	21	5.008013	238637.2	-202714.2	1	313114.6	-40.34678	-2.387548E-010	0.0079814	5
	54	22	3.945707	262282.7	-230579.9	1	349226.7	-41.31959	3.015325E-011	0.0079846	5
	55	23	3.158693	287789.8	-261062.1	1	388556.8	-42.21204	-3.173495E-010	0.007995	5
	56	25	2.504006	316535.6	-297022.9	1	434070.7	-43.17847	-2.993958E-010	0.0079847	5
	57	26	1.998082	347941.2	-336233.2	1	483855.2	-44.01962	3.714643E-011	0.0080278	5
	58	28	1.584686	382381.4	-384289.3	1	542119.7	-45.14258	1.208172E-011	0.0080128	5
	59	30	1.266892	420016	-436250.5	1	605580.7	-46.08618	-1.095519E-010	0.0079725	5
	60	32	0.999041	465444.2	-501288.9	1	684053.3	-47.12346	-1.891444E-010	0.0079486	5
