EXPLAIN
TAG	EISPOT
TITLE	LABEL	Potentiostatic EIS	Test &Identifier
DATE	LABEL	11/22/2019	Date
TIME	LABEL	10:48:59	Time
NOTES	NOTES	4	&Notes...
	
	
	
	
PSTAT	PSTAT	REF600-11020	Potentiostat
VDC	POTEN	0.00000E+000	T	DC &Voltage (V)
FREQINIT	QUANT	1.00000E+006	Initial Fre&q. (Hz)
FREQFINAL	QUANT	1.00000E+000	Final Fre&q. (Hz)
PTSPERDEC	QUANT	1.00000E+001	Points/&decade
VAC	QUANT	2.50000E+001	AC &Voltage (mV rms)
AREA	QUANT	1.00000E-002	&Area (cm^2)
CONDIT	TWOPARAM	T	5.00000E+000	0.00000E+000	Conditionin&g	Time(s)	E(V)
DELAY	TWOPARAM	T	5.00000E+000	0.00000E+000	Init. De&lay	Time(s)	Stab.(mV/s)
SPEED	SELECTOR	0	&Optimize for:
ZGUESS	QUANT	1.00000E+005	E&stimated Z (ohms)
OCVCURVE	TABLE	19
	Pt	T	Vf	Vm	Ach	Over
	#	s	V vs. Ref.	V	V	bits
	0	0.258333	3.82749E-002	3.82749E-002	5.68266E-004	...........
	1	0.516667	3.83251E-002	4.09020E-002	5.64866E-004	...........
	2	0.775	3.86364E-002	4.35539E-002	5.68532E-004	...........
	3	1.03333	3.95212E-002	4.57849E-002	5.67132E-004	...........
	4	1.29167	4.11029E-002	4.81833E-002	5.62732E-004	...........
	5	1.55	4.31945E-002	5.01582E-002	5.69499E-004	...........
	6	1.80833	4.54913E-002	5.22082E-002	5.63332E-004	...........
	7	2.06667	4.77677E-002	5.40069E-002	5.67999E-004	...........
	8	2.325	4.99218E-002	5.58408E-002	5.63899E-004	...........
	9	2.58333	5.19387E-002	5.76116E-002	5.66866E-004	...........
	10	2.84167	5.38395E-002	5.90788E-002	5.66466E-004	...........
	11	3.1	5.56415E-002	6.07467E-002	5.65732E-004	...........
	12	3.35833	5.73524E-002	6.22063E-002	5.64699E-004	...........
	13	3.61667	5.89834E-002	6.36190E-002	5.66166E-004	...........
	14	3.875	6.05452E-002	6.50045E-002	5.66832E-004	...........
	15	4.13333	6.20416E-002	6.63043E-002	5.64832E-004	...........
	16	4.39167	6.34775E-002	6.76938E-002	5.62899E-004	...........
	17	4.65	6.48629E-002	6.88369E-002	5.66866E-004	...........
	18	4.90833	6.62032E-002	7.00504E-002	5.65699E-004	...........
EOC	QUANT	0.0662032	Open Circuit (V)
PSTATMODEL	IQUANT	4	Pstat Model
PSTATSECTION	LABEL	REF600-11020	Pstat Section
PSTATSERIALNO	LABEL	11020	Pstat Serial Number
CTRLMODE	IQUANT	1	Control Mode
IESTAB	IQUANT	0	I/E Stability
CASPEED	IQUANT	1	Control Amp Speed
CONVENTION	IQUANT	1	Current Convention
ICHRANGE	IQUANT	2	Ich Range
ICHRANGEMODE	TOGGLE	F	Ich Auto Range
ICHOFFSETENABLE	TOGGLE	T	Ich Offset Enable
ICHOFFSET	QUANT	0	Ich Offset (V)
ICHFILTER	IQUANT	3	Ich Filter
VCHRANGE	IQUANT	2	Vch Range
VCHRANGEMODE	TOGGLE	F	Vch Auto Range
VCHOFFSETENABLE	TOGGLE	T	Vch Offset Enable
VCHOFFSET	QUANT	0	Vch Offset (V)
VCHFILTER	IQUANT	3	Vch Filter
ACHRANGE	IQUANT	2	Ach Range
ACHOFFSETENABLE	TOGGLE	F	Ach Offset Enable
ACHOFFSET	QUANT	0	Ach Offset (V)
ACHFILTER	IQUANT	3	Ach Filter
IERANGELOWERLIMIT	IQUANT	1	I/E Range Lower Limit
IERANGEMODE	TOGGLE	F	I/E AutoRange
IERANGE	IQUANT	6	I/E Range
POSFEEDENABLE	TOGGLE	F	Positive Feedback IR Comp
POSFEEDRESISTANCE	QUANT	0	Positive Feedback Resistance (ohm)
ACHSELECT	IQUANT	0	Ach Select
CABLEID	IQUANT	14	Cable ID
DCCALDATE	LABEL	8/19/2019	DC Calibration Date
ACCALDATE	LABEL	8/19/2019	AC Calibration Date
THERMOSELECT	IQUANT	1	Thermo Select
FRAMEWORKVERSION	QUANT	6.33	Framework Version
INSTRUMENTVERSION	LABEL	3.50	Instrument Version
ZCURVE	TABLE
	Pt	Time	Freq	Zreal	Zimag	Zsig	Zmod	Zphz	Idc	Vdc	IERange
	#	s	Hz	ohm	ohm	V	ohm	°	A	V	#
	0	2	1000078	2139.562	-2394.049	1	3210.794	-48.21284	-1.426185E-006	0.0681513	8
	1	2	794390.6	2568.375	-2595.631	1	3651.555	-45.30241	-4.420137E-006	0.0687883	8
	2	2	630984.4	3040.034	-2772.898	1	4114.702	-42.3688	8.089725E-006	0.0670337	8
	3	3	501234.4	3567.508	-2903.374	1	4599.64	-39.14001	-1.853224E-006	0.0674925	8
	4	3	398109.4	4111.599	-2965.204	1	5069.288	-35.7984	6.547289E-006	0.0670002	8
	5	3	316265.6	4736.167	-2974.294	1	5592.647	-32.12866	-3.168835E-006	0.0683207	8
	6	4	251203.1	5304.953	-2862.097	1	6027.779	-28.34749	-3.539946E-007	0.068244	8
	7	4	199546.9	5850.025	-2693.158	1	6440.178	-24.71978	7.085346E-006	0.0670009	8
	8	4	158578.1	6295.241	-2513.733	1	6778.563	-21.76716	6.925273E-006	0.067	8
	9	5	125953.1	6734.487	-2088.366	1	7050.857	-17.22868	-1.34877E-006	0.0663343	7
	10	5	100078.1	7019.099	-1859.282	1	7261.176	-14.83629	-8.474507E-007	0.0675642	7
	11	6	79453.13	7249.112	-1667.925	1	7438.521	-12.95749	-1.261659E-006	0.0695914	7
	12	6	63140.62	7483.335	-1488.1	1	7629.859	-11.24685	-3.447743E-007	0.0692954	7
	13	6	50203.12	7719.385	-1305.618	1	7829.019	-9.59987	1.169748E-006	0.0669019	7
	14	7	39890.62	7822.231	-1131.967	1	7903.711	-8.234199	8.898352E-007	0.065669	7
	15	7	31640.63	7937.402	-1030.444	1	8004.009	-7.396842	9.612429E-007	0.0674747	7
	16	7	25171.88	7986.157	-942.1686	1	8041.542	-6.728382	4.357623E-007	0.0683639	7
	17	8	20015.62	7988.089	-847.0444	1	8032.873	-6.052936	-8.555945E-007	0.0675466	7
	18	8	15890.62	8050.316	-814.4636	1	8091.412	-5.77705	-8.544135E-007	0.0675496	7
	19	8	12609.37	8171.065	-804.0622	1	8210.531	-5.620017	1.139618E-007	0.0661517	7
	20	9	10078.13	8242.821	-823.5695	1	8283.862	-5.705688	8.92089E-007	0.0656676	7
	21	9	8015.625	8340.166	-872.6688	1	8385.697	-5.973377	1.254291E-006	0.0660175	7
	22	9	6328.125	8264.799	-939.1691	1	8317.989	-6.482988	-1.399434E-006	0.0689625	7
	23	10	5015.625	8321.838	-1048.028	1	8387.571	-7.177873	-1.40765E-006	0.0693833	7
	24	10	3984.375	8522.033	-1211.798	1	8607.759	-8.092969	1.171473E-006	0.0668986	7
	25	11	3170.956	8541.525	-1403.842	1	8656.121	-9.333405	4.365411E-007	0.0683575	7
	26	11	2527.573	8648.507	-1645.482	1	8803.651	-10.77245	9.631588E-007	0.0674689	7
	27	11	1976.103	8735.892	-1979.473	1	8957.35	-12.76711	9.587203E-007	0.0674668	7
	28	12	1577.524	8822.893	-2362.128	1	9133.624	-14.98813	1.173782E-006	0.066895	7
	29	12	1265.625	8829.391	-2778.172	1	9256.153	-17.46621	-8.536708E-007	0.0675419	7
	30	12	998.264	9003.052	-3399.586	1	9623.52	-20.68672	-3.381384E-007	0.0692857	7
	31	13	796.875	9170.542	-4098.015	1	10044.53	-24.0783	1.169495E-007	0.0644303	6
	32	13	627.7902	9305.398	-5008.413	1	10567.62	-28.29032	-2.061116E-007	0.0687055	6
	33	13	505.5147	9593.26	-6076.424	1	11355.77	-32.35039	1.92862E-007	0.0664849	6
	34	13	397.9953	9812.88	-7453.775	1	12322.8	-37.21997	-1.423351E-009	0.0676731	6
	35	14	315.5048	10123.23	-9137.92	1	13637.5	-42.07157	-1.839173E-009	0.0676714	6
	36	14	252.4038	10488.42	-11128.12	1	15291.9	-46.69508	-9.888649E-010	0.0676689	6
	37	14	198.6229	10977.09	-13766.03	1	17606.82	-51.43099	-1.375838E-009	0.0676686	6
	38	15	158.3615	11573.86	-16851.32	1	20443.13	-55.51785	-1.489358E-009	0.0676657	6
	39	15	125.558	12346.25	-20730.53	1	24128.5	-59.22372	-1.546277E-009	0.067662	6
	40	15	100.4464	13335	-25331.47	1	28627.01	-62.23677	-1.442072E-009	0.0676778	6
	41	16	79.00281	14686.26	-31432.53	1	34694.23	-64.95655	-1.619399E-009	0.0676629	6
	42	16	63.3446	16291.22	-37708.36	1	41077.05	-66.63411	-2.248957E-009	0.0676749	6
	43	16	49.86702	18813.89	-46761.97	1	50404.8	-68.08344	-1.070762E-009	0.0676583	6
	44	17	39.72458	21804.13	-57396.78	1	61398.78	-69.19901	-1.059236E-009	0.0676738	6
	45	17	31.6723	25982.23	-69937.24	1	74607.6	-69.61958	-9.520948E-010	0.0676758	6
	46	17	24.93351	31840.71	-85200.13	1	90955.45	-69.50845	-1.566766E-009	0.0676581	6
	47	18	19.86229	39161.98	-102507	1	109733.1	-69.09105	-1.921144E-009	0.0676601	5
	48	18	15.83615	48803	-122605.5	1	131961.6	-68.29503	-1.262295E-009	0.0676774	5
	49	18	12.40079	62756.37	-148068.1	1	160818.3	-67.03109	-2.419397E-009	0.0676751	5
	50	19	9.93114	76544.3	-174274.6	1	190343.6	-66.28812	-1.147155E-009	0.0676896	5
	51	19	7.944915	95171.6	-203839.5	1	224962.6	-64.97238	-9.365342E-010	0.0676622	5
	52	20	6.317385	118615.8	-236904.2	1	264940.2	-63.40328	-1.359531E-009	0.0676643	5
	53	21	5.008013	146252.2	-274885.5	1	311370.8	-61.9849	-1.587495E-009	0.067665	5
	54	22	3.945707	179383.4	-317719.8	1	364862	-60.55109	-1.482055E-009	0.0676735	5
	55	23	3.158693	214211.7	-363779.3	1	422163.5	-59.50826	-1.617652E-009	0.067669	5
	56	25	2.504006	255432.8	-416330.8	1	488443.7	-58.46949	-1.508181E-009	0.0676604	5
	57	26	1.998082	300860.7	-474811	1	562105.5	-57.63989	-1.256281E-009	0.0677086	5
	58	28	1.584686	351333.9	-542981.2	1	646733.4	-57.09527	-1.299643E-009	0.0676801	5
	59	30	1.266892	409299.3	-617976	1	741228.9	-56.4826	-1.276079E-009	0.0676406	5
	60	32	0.999041	478456.8	-712888.4	1	858563.2	-56.13237	-1.217645E-009	0.0676265	5
