EXPLAIN
TAG	EISPOT
TITLE	LABEL	Potentiostatic EIS	Test &Identifier
DATE	LABEL	11/27/2019	Date
TIME	LABEL	12:09:01	Time
NOTES	NOTES	3	&Notes...
	
	
	
PSTAT	PSTAT	REF600-11020	Potentiostat
VDC	POTEN	0.00000E+000	T	DC &Voltage (V)
FREQINIT	QUANT	1.00000E+006	Initial Fre&q. (Hz)
FREQFINAL	QUANT	1.00000E+000	Final Fre&q. (Hz)
PTSPERDEC	QUANT	1.00000E+001	Points/&decade
VAC	QUANT	2.50000E+001	AC &Voltage (mV rms)
AREA	QUANT	1.00000E-002	&Area (cm^2)
CONDIT	TWOPARAM	T	5.00000E+000	0.00000E+000	Conditionin&g	Time(s)	E(V)
DELAY	TWOPARAM	T	5.00000E+000	0.00000E+000	Init. De&lay	Time(s)	Stab.(mV/s)
SPEED	SELECTOR	0	&Optimize for:
ZGUESS	QUANT	1.00000E+005	E&stimated Z (ohms)
OCVCURVE	TABLE	19
	Pt	T	Vf	Vm	Ach	Over
	#	s	V vs. Ref.	V	V	bits
	0	0.258333	-7.09178E-003	-7.09178E-003	5.59432E-004	...........
	1	0.516667	-7.11604E-003	-8.36186E-003	5.56599E-004	...........
	2	0.775	-7.27386E-003	-1.00279E-002	5.63999E-004	...........
	3	1.03333	-7.75267E-003	-1.17841E-002	5.63866E-004	...........
	4	1.29167	-8.65827E-003	-1.23709E-002	5.59332E-004	...........
	5	1.55	-9.86244E-003	-1.29967E-002	5.67166E-004	...........
	6	1.80833	-1.10842E-002	-1.37872E-002	5.56199E-004	...........
	7	2.06667	-1.21329E-002	-1.47300E-002	5.55899E-004	...........
	8	2.325	-1.30080E-002	-1.51299E-002	5.58466E-004	...........
	9	2.58333	-1.37780E-002	-1.56864E-002	5.56832E-004	...........
	10	2.84167	-1.44721E-002	-1.63673E-002	5.61566E-004	...........
	11	3.1	-1.51064E-002	-1.70703E-002	5.60499E-004	...........
	12	3.35833	-1.57213E-002	-1.77427E-002	5.60832E-004	...........
	13	3.61667	-1.63521E-002	-1.83314E-002	5.58299E-004	...........
	14	3.875	-1.69983E-002	-1.88454E-002	5.59666E-004	...........
	15	4.13333	-1.76334E-002	-1.93746E-002	5.59332E-004	...........
	16	4.39167	-1.82339E-002	-1.98878E-002	5.62499E-004	...........
	17	4.65	-1.87955E-002	-2.03902E-002	5.57666E-004	...........
	18	4.90833	-1.93285E-002	-2.08973E-002	5.56633E-004	...........
EOC	QUANT	-0.0193285	Open Circuit (V)
PSTATMODEL	IQUANT	4	Pstat Model
PSTATSECTION	LABEL	REF600-11020	Pstat Section
PSTATSERIALNO	LABEL	11020	Pstat Serial Number
CTRLMODE	IQUANT	1	Control Mode
IESTAB	IQUANT	0	I/E Stability
CASPEED	IQUANT	1	Control Amp Speed
CONVENTION	IQUANT	1	Current Convention
ICHRANGE	IQUANT	2	Ich Range
ICHRANGEMODE	TOGGLE	F	Ich Auto Range
ICHOFFSETENABLE	TOGGLE	T	Ich Offset Enable
ICHOFFSET	QUANT	0	Ich Offset (V)
ICHFILTER	IQUANT	3	Ich Filter
VCHRANGE	IQUANT	2	Vch Range
VCHRANGEMODE	TOGGLE	F	Vch Auto Range
VCHOFFSETENABLE	TOGGLE	T	Vch Offset Enable
VCHOFFSET	QUANT	0	Vch Offset (V)
VCHFILTER	IQUANT	3	Vch Filter
ACHRANGE	IQUANT	2	Ach Range
ACHOFFSETENABLE	TOGGLE	F	Ach Offset Enable
ACHOFFSET	QUANT	0	Ach Offset (V)
ACHFILTER	IQUANT	3	Ach Filter
IERANGELOWERLIMIT	IQUANT	1	I/E Range Lower Limit
IERANGEMODE	TOGGLE	F	I/E AutoRange
IERANGE	IQUANT	5	I/E Range
POSFEEDENABLE	TOGGLE	F	Positive Feedback IR Comp
POSFEEDRESISTANCE	QUANT	0	Positive Feedback Resistance (ohm)
ACHSELECT	IQUANT	0	Ach Select
CABLEID	IQUANT	14	Cable ID
DCCALDATE	LABEL	8/19/2019	DC Calibration Date
ACCALDATE	LABEL	8/19/2019	AC Calibration Date
THERMOSELECT	IQUANT	1	Thermo Select
FRAMEWORKVERSION	QUANT	6.33	Framework Version
INSTRUMENTVERSION	LABEL	3.50	Instrument Version
ZCURVE	TABLE
	Pt	Time	Freq	Zreal	Zimag	Zsig	Zmod	Zphz	Idc	Vdc	IERange
	#	s	Hz	ohm	ohm	V	ohm	°	A	V	#
	0	1	1000078	2062.48	-1274.729	1	2424.615	-31.7184	-1.611426E-006	-0.0178059	8
	1	2	794390.6	2299.82	-1183.149	1	2586.312	-27.22368	7.594411E-006	-0.0187753	8
	2	2	630984.4	2499.729	-1072.052	1	2719.916	-23.21292	-3.91999E-006	-0.017413	8
	3	2	501234.4	2668.349	-930.9759	1	2826.094	-19.23367	-1.519839E-007	-0.0179336	8
	4	3	398109.4	2798.419	-823.2861	1	2917.01	-16.39372	7.847114E-007	-0.017348	8
	5	3	316265.6	2886.369	-713.5408	1	2973.259	-13.88572	3.650313E-006	-0.0177847	8
	6	3	251203.1	2961.199	-619.6959	1	3025.347	-11.81982	-1.875278E-007	-0.0180076	8
	7	4	199546.9	3024.635	-550.0007	1	3074.234	-10.30608	-2.156792E-006	-0.0178196	8
	8	4	158578.1	3057.172	-483.9844	1	3095.245	-8.995904	-6.799356E-007	-0.0173533	8
	9	4	125953.1	3119.042	-392.2213	1	3143.606	-7.167356	-1.423196E-006	-0.0149543	7
	10	5	100078.1	3143.177	-361.7913	1	3163.931	-6.56606	4.154933E-007	-0.0191997	7
	11	5	79453.13	3171.785	-348.042	1	3190.823	-6.26205	8.683051E-007	-0.0183875	7
	12	5	63140.62	3197.536	-341.0931	1	3215.678	-6.088928	-1.044556E-006	-0.0168335	7
	13	6	50203.12	3226.764	-340.3592	1	3244.665	-6.021296	-1.053941E-006	-0.016526	7
	14	6	39890.62	3256.779	-351.3343	1	3275.675	-6.157134	-2.683842E-007	-0.0185095	7
	15	6	31640.63	3287.264	-368.8864	1	3307.897	-6.402766	-6.305086E-007	-0.0179135	7
	16	7	25171.88	3319.374	-392.5754	1	3342.508	-6.744921	8.653249E-007	-0.018388	7
	17	7	20015.62	3353.635	-429.9628	1	3381.084	-7.305921	7.174767E-007	-0.0179733	7
	18	7	15890.62	3390.748	-476.7589	1	3424.101	-8.003652	8.717633E-007	-0.0183918	7
	19	7	12609.37	3433.516	-533.2772	1	3474.683	-8.828367	5.302871E-007	-0.0176036	7
	20	8	10078.13	3470.248	-604.3824	1	3522.485	-9.8796	-1.058395E-006	-0.0165168	7
	21	8	8015.625	3524.165	-690.4315	1	3591.16	-11.08462	-5.339783E-007	-0.0164038	7
	22	8	6328.125	3580.422	-796.563	1	3667.96	-12.54274	8.794019E-007	-0.0183937	7
	23	9	5015.625	3634.28	-926.4359	1	3750.503	-14.30103	-6.307071E-007	-0.0179137	7
	24	9	3984.375	3695.719	-1087.975	1	3852.535	-16.4038	-6.324745E-007	-0.0179216	7
	25	9	3170.956	3762.534	-1278.233	1	3973.731	-18.764	-2.483034E-007	-0.0166266	7
	26	10	2527.573	3840.285	-1516.145	1	4128.739	-21.54411	-5.343283E-007	-0.0164034	7
	27	10	1976.103	3931.687	-1830.551	1	4336.943	-24.96618	-9.449374E-007	-0.0163766	7
	28	10	1577.524	4031.672	-2183.306	1	4584.889	-28.43725	-2.481627E-007	-0.0166101	7
	29	11	1265.625	4142.347	-2602.462	1	4892.019	-32.13941	8.722525E-007	-0.0184002	7
	30	11	998.264	4285.912	-3159.26	1	5324.469	-36.39492	1.029681E-007	-0.0189617	7
	31	11	796.875	4444.965	-3801.6	1	5848.921	-40.53904	9.448592E-007	-0.0187585	7
	32	12	627.7902	4628.954	-4625.768	1	6544.077	-44.98027	-5.316653E-007	-0.0164069	7
	33	12	505.5147	4826.941	-5552.617	1	7357.371	-48.99927	9.471289E-008	-0.0189746	7
	34	12	397.9953	5075.083	-6809.022	1	8492.306	-53.30111	1.869731E-009	-0.0177533	7
	35	13	315.5048	5367.708	-8320.058	1	9901.3	-57.1718	4.011882E-009	-0.017762	7
	36	13	252.4038	5711.537	-10104.7	1	11607.18	-60.52332	8.632748E-010	-0.0178149	6
	37	13	198.6229	6164.114	-12472.46	1	13912.54	-63.7006	8.678236E-010	-0.0178149	6
	38	14	158.3615	6710.214	-15240.45	1	16652.28	-66.2366	5.885875E-010	-0.0178189	6
	39	14	125.558	7415.187	-18725.05	1	20139.83	-68.39626	1.012048E-009	-0.0178186	6
	40	14	100.4464	8286.087	-22854.26	1	24310.01	-70.07128	1.891187E-009	-0.0178199	6
	41	15	79.00281	9451.683	-28183.96	1	29726.59	-71.46078	1.541159E-009	-0.0178248	6
	42	15	63.3446	11351.5	-34469.76	1	36290.79	-71.77238	3.563753E-010	-0.0178207	6
	43	15	49.86702	13271.7	-42519.4	1	44542.53	-72.66515	2.14167E-010	-0.0178231	6
	44	16	39.72458	15726.42	-51474.07	1	53822.86	-73.01097	9.810623E-010	-0.017821	6
	45	16	31.6723	18944.86	-62398.75	1	65211.28	-73.11121	9.468499E-010	-0.0178289	6
	46	16	24.93351	23793.39	-76633.47	1	80242.22	-72.75132	7.875008E-010	-0.017829	6
	47	17	19.86229	29730.44	-92598.16	1	97253.9	-72.19976	4.827735E-010	-0.0178349	6
	48	17	15.83615	37380.98	-109984	1	116162.9	-71.22831	-4.300736E-010	-0.017826	5
	49	17	12.40079	47562.36	-133595.5	1	141809.5	-70.40337	2.618708E-009	-0.0178167	5
	50	18	9.93114	60407.07	-160145.4	1	171159.4	-69.33345	9.476492E-010	-0.0178294	5
	51	18	7.944915	75660.14	-189476.4	1	204023.9	-68.2326	3.97578E-010	-0.0178138	5
	52	19	6.317385	95417.5	-223195.3	1	242735.8	-66.85296	6.483113E-010	-0.0178123	5
	53	19	5.008013	119493.9	-262191.7	1	288137.7	-65.49886	9.515061E-010	-0.0178186	5
	54	21	3.945707	149848.6	-306691.8	1	341342.2	-63.96001	7.108815E-010	-0.0178239	5
	55	22	3.158693	183371.4	-354552.8	1	399165.1	-62.65242	8.564836E-010	-0.0178293	5
	56	24	2.504006	223338.8	-409696.5	1	466617.1	-61.40377	8.847241E-010	-0.0178253	5
	57	25	1.998082	268683.6	-469285.8	1	540758.8	-60.20726	6.269588E-010	-0.0178744	5
	58	26	1.584686	319443.2	-538871.1	1	626439.1	-59.3405	6.617073E-010	-0.0178586	5
	59	28	1.266892	375945.7	-613092.2	1	719178.1	-58.48354	7.025084E-010	-0.0178208	5
	60	31	0.999041	443224.9	-704210.6	1	832082.3	-57.814	7.146539E-010	-0.0177962	5
