EXPLAIN
TAG	EISPOT
TITLE	LABEL	Potentiostatic IDE	Test &Identifier
DATE	LABEL	9/10/2019	Date
TIME	LABEL	8:07:13	Time
NOTES	NOTES	1	&Notes...
	
PSTAT	PSTAT	REF600-11020	Potentiostat
VDC	POTEN	0.00000E+000	T	DC &Voltage (V)
FREQINIT	QUANT	1.00000E+006	Initial Fre&q. (Hz)
FREQFINAL	QUANT	1.00000E+000	Final Fre&q. (Hz)
PTSPERDEC	QUANT	1.00000E+001	Points/&decade
VAC	QUANT	2.50000E+001	AC &Voltage (mV rms)
AREA	QUANT	1.00000E-002	&Area (cm^2)
CONDIT	TWOPARAM	T	5.00000E+000	0.00000E+000	Conditionin&g	Time(s)	E(V)
DELAY	TWOPARAM	T	5.00000E+000	0.00000E+000	Init. De&lay	Time(s)	Stab.(mV/s)
SPEED	SELECTOR	1	&Optimize for:
ZGUESS	QUANT	1.00000E+007	E&stimated Z (ohms)
OCVCURVE	TABLE	19
	Pt	T	Vf	Vm	Ach	Over
	#	s	V vs. Ref.	V	V	bits
	0	0.258333	8.93009E-003	8.93009E-003	5.48733E-004	...........
	1	0.516667	8.93393E-003	9.13126E-003	5.46133E-004	...........
	2	0.775	8.95769E-003	9.33019E-003	5.43133E-004	...........
	3	1.03333	9.02552E-003	9.52672E-003	5.49899E-004	...........
	4	1.29167	9.14841E-003	9.71720E-003	5.51166E-004	...........
	5	1.55	9.31431E-003	9.89683E-003	5.48666E-004	...........
	6	1.80833	9.50113E-003	1.00755E-002	5.55133E-004	...........
	7	2.06667	9.69167E-003	1.02483E-002	5.50299E-004	...........
	8	2.325	9.87783E-003	1.04188E-002	5.53299E-004	...........
	9	2.58333	1.00579E-002	1.05886E-002	5.52766E-004	...........
	10	2.84167	1.02328E-002	1.07397E-002	5.53299E-004	...........
	11	3.1	1.04026E-002	1.08903E-002	5.55199E-004	...........
	12	3.35833	1.05665E-002	1.10350E-002	5.51866E-004	...........
	13	3.61667	1.07239E-002	1.11782E-002	5.52033E-004	...........
	14	3.875	1.08753E-002	1.13145E-002	5.48966E-004	...........
	15	4.13333	1.10216E-002	1.14510E-002	5.52299E-004	...........
	16	4.39167	1.11633E-002	1.15546E-002	5.51299E-004	...........
	17	4.65	1.12992E-002	1.16872E-002	5.53599E-004	...........
	18	4.90833	1.14288E-002	1.18170E-002	5.49199E-004	...........
EOC	QUANT	0.0114288	Open Circuit (V)
PSTATMODEL	IQUANT	4	Pstat Model
PSTATSECTION	LABEL	REF600-11020	Pstat Section
PSTATSERIALNO	LABEL	11020	Pstat Serial Number
CTRLMODE	IQUANT	1	Control Mode
IESTAB	IQUANT	0	I/E Stability
CASPEED	IQUANT	1	Control Amp Speed
CONVENTION	IQUANT	1	Current Convention
ICHRANGE	IQUANT	2	Ich Range
ICHRANGEMODE	TOGGLE	F	Ich Auto Range
ICHOFFSETENABLE	TOGGLE	T	Ich Offset Enable
ICHOFFSET	QUANT	0	Ich Offset (V)
ICHFILTER	IQUANT	3	Ich Filter
VCHRANGE	IQUANT	2	Vch Range
VCHRANGEMODE	TOGGLE	F	Vch Auto Range
VCHOFFSETENABLE	TOGGLE	T	Vch Offset Enable
VCHOFFSET	QUANT	0	Vch Offset (V)
VCHFILTER	IQUANT	3	Vch Filter
ACHRANGE	IQUANT	2	Ach Range
ACHOFFSETENABLE	TOGGLE	F	Ach Offset Enable
ACHOFFSET	QUANT	0	Ach Offset (V)
ACHFILTER	IQUANT	3	Ach Filter
IERANGELOWERLIMIT	IQUANT	1	I/E Range Lower Limit
IERANGEMODE	TOGGLE	F	I/E AutoRange
IERANGE	IQUANT	3	I/E Range
POSFEEDENABLE	TOGGLE	F	Positive Feedback IR Comp
POSFEEDRESISTANCE	QUANT	0	Positive Feedback Resistance (ohm)
ACHSELECT	IQUANT	0	Ach Select
CABLEID	IQUANT	14	Cable ID
DCCALDATE	LABEL	8/19/2019	DC Calibration Date
ACCALDATE	LABEL	8/19/2019	AC Calibration Date
THERMOSELECT	IQUANT	1	Thermo Select
FRAMEWORKVERSION	QUANT	6.33	Framework Version
INSTRUMENTVERSION	LABEL	3.50	Instrument Version
ZCURVE	TABLE
	Pt	Time	Freq	Zreal	Zimag	Zsig	Zmod	Zphz	Idc	Vdc	IERange
	#	s	Hz	ohm	ohm	V	ohm	°	A	V	#
	0	2	1000078	1922.397	-649.6359	1	2029.196	-18.67166	4.500209E-006	0.0130289	8
	1	3	794390.6	2013.255	-569.8997	1	2092.363	-15.80543	-1.435259E-006	0.0133841	8
	2	5	630984.4	2081.589	-494.7964	1	2139.587	-13.37114	-7.315273E-007	0.0135381	8
	3	6	501234.4	2132.098	-427.0295	1	2174.441	-11.32569	3.885677E-006	0.0124184	8
	4	7	398109.4	2171.699	-375.7526	1	2203.966	-9.81627	-1.110899E-006	0.0133328	8
	5	9	316265.6	2207.235	-330.4396	1	2231.833	-8.514373	-8.443793E-007	0.0133322	8
	6	10	251203.1	2230.352	-301.5565	1	2250.646	-7.700027	3.110411E-006	0.0126371	8
	7	11	199546.9	2258.376	-276.5599	1	2275.247	-6.981658	9.81726E-007	0.01291	8
	8	13	158578.1	2286.3	-258.4461	1	2300.861	-6.449407	-2.376205E-007	0.0131571	8
	9	14	125953.1	2311.257	-230.4728	1	2322.719	-5.694569	3.024961E-007	0.0129598	7
	10	15	100078.1	2332.186	-224.7139	1	2342.987	-5.50365	1.243034E-008	0.0130539	7
	11	17	79453.13	2354.701	-233.654	1	2366.266	-5.666836	6.32632E-009	0.0131702	7
	12	18	63140.62	2380.022	-247.3233	1	2392.838	-5.932676	3.749405E-009	0.0130954	7
	13	19	50203.12	2406.115	-263.9748	1	2420.552	-6.26088	-4.701996E-008	0.0131633	7
	14	21	39890.62	2435.211	-284.9449	1	2451.825	-6.673851	1.821091E-009	0.0130897	7
	15	22	31640.63	2466.973	-311.8229	1	2486.602	-7.203925	-1.88395E-008	0.0130926	7
	16	23	25171.88	2501.513	-343.4297	1	2524.977	-7.8172	1.357273E-008	0.0130446	7
	17	25	20015.62	2539.418	-381.2758	1	2567.882	-8.538777	4.861663E-008	0.0130046	7
	18	26	15890.62	2582.573	-426.2629	1	2617.515	-9.372371	-4.088775E-008	0.0131675	7
	19	27	12609.37	2629.952	-478.4304	1	2673.115	-10.31027	-4.016258E-008	0.0131649	7
	20	29	10078.13	2681.896	-537.4396	1	2735.216	-11.33172	4.260755E-009	0.013084	7
	21	30	8015.625	2740.644	-607.1844	1	2807.099	-12.49199	6.223584E-008	0.0130498	7
	22	31	6328.125	2809.808	-691.7606	1	2893.71	-13.83087	5.410913E-009	0.0130908	7
	23	33	5015.625	2884.679	-786.5161	1	2989.98	-15.25115	3.087528E-008	0.0130035	7
	24	34	3984.375	2966.849	-895.6094	1	3099.082	-16.79761	3.178324E-008	0.0130005	7
	25	35	3170.956	3055.035	-1020.387	1	3220.936	-18.46941	2.793271E-008	0.013069	7
	26	37	2527.573	3148.817	-1165.427	1	3357.569	-20.31032	3.196136E-008	0.0130031	7
	27	38	1976.103	3258.746	-1354.118	1	3528.89	-22.56452	-4.009062E-008	0.0131634	7
	28	39	1577.524	3364.632	-1558.397	1	3708.012	-24.85217	5.219072E-008	0.0129753	7
	29	41	1265.625	3473.287	-1800.67	1	3912.306	-27.40376	5.652566E-008	0.0129758	7
	30	42	998.264	3597.289	-2119.143	1	4175.075	-30.5021	-9.634059E-009	0.0131286	7
	31	43	796.875	3720.496	-2491.324	1	4477.586	-33.80711	-1.750163E-008	0.0130826	7
	32	45	627.7902	3861.572	-2980.976	1	4878.314	-37.66668	1.195396E-008	0.0130338	7
	33	46	505.5147	4000.456	-3530.64	1	5335.641	-41.43031	-1.201962E-008	0.013129	7
	34	47	397.9953	4175.13	-4282.09	1	5980.636	-45.72459	4.581679E-009	0.0131168	7
	35	49	315.5048	4368.07	-5190.288	1	6783.74	-49.91652	4.168504E-009	0.0131153	7
	36	50	252.4038	4588.539	-6270.457	1	7770.027	-53.80441	3.885825E-009	0.0131204	7
	37	51	198.6229	4876.023	-7707.267	1	9120.174	-57.6804	4.618724E-009	0.0131174	7
	38	53	158.3615	5214.711	-9389.343	1	10740.25	-60.95281	6.162269E-010	0.0130555	6
	39	54	125.558	5655.722	-11510.53	1	12824.96	-63.83271	5.762106E-010	0.0130601	6
	40	55	100.4464	6192.045	-14005.36	1	15313.12	-66.14884	4.885787E-010	0.0130536	6
	41	57	79.00281	6915.615	-17294.98	1	18626.38	-68.20538	5.863905E-010	0.0130573	6
	42	58	63.3446	7864.389	-21002.62	1	22426.74	-69.47169	4.992332E-010	0.0130532	6
	43	60	49.86702	8995.926	-25934.39	1	27450.3	-70.86974	-5.891163E-011	0.0130505	6
	44	61	39.72458	10530.22	-31511.21	1	33224.11	-71.52173	5.8218E-010	0.0130512	6
	45	62	31.6723	12429.84	-38303.99	1	40270.29	-72.02149	5.508179E-010	0.0130467	6
	46	64	24.93351	15112.54	-46888.77	1	49264.04	-72.13554	7.336088E-010	0.0130545	6
	47	65	19.86229	18352.82	-56786.64	1	59678.71	-72.08974	8.524436E-011	0.0130558	6
	48	66	15.83615	22620.22	-68502	1	72140.13	-71.72613	-1.004602E-009	0.0130535	6
	49	68	12.40079	28112.1	-83637.57	1	88235.66	-71.42158	1.098886E-010	0.0130552	6
	50	69	9.93114	34436	-99535.6	1	105324.2	-70.91609	-2.735288E-010	0.0130678	5
	51	71	7.944915	42363.96	-118608.8	1	125947.4	-70.3446	6.870989E-011	0.013059	5
	52	72	6.317385	52267	-141390.9	1	150742.2	-69.71251	-2.388169E-010	0.013065	5
	53	74	5.008013	64834.04	-169160.7	1	181159.5	-69.02972	3.043875E-010	0.0130717	5
	54	76	3.945707	80548.34	-202364.7	1	217806.1	-68.29568	-3.02431E-010	0.0130559	5
	55	79	3.158693	98711.1	-238455.2	1	258079	-67.51236	-2.969465E-011	0.0130546	5
	56	82	2.504006	121058.8	-282409.8	1	307262.9	-66.79694	1.255311E-010	0.0130705	5
	57	85	1.998082	147241.1	-332107.5	1	363284.1	-66.08971	2.111229E-010	0.013087	5
	58	88	1.584686	179938.4	-390251.7	1	429737.4	-65.24638	3.195734E-011	0.0130343	5
	59	92	1.266892	218070	-457791.3	1	507077.3	-64.52909	1.695221E-011	0.0130973	5
	60	96	0.999041	265954.2	-538416.6	1	600519.9	-63.71265	-1.544018E-010	0.0130127	5
