EXPLAIN
TAG	EISPOT
TITLE	LABEL	Potentiostatic EIS	Test &Identifier
DATE	LABEL	9/22/2019	Date
TIME	LABEL	9:42:33	Time
NOTES	NOTES	1	&Notes...
	
PSTAT	PSTAT	REF600-11020	Potentiostat
VDC	POTEN	0.00000E+000	T	DC &Voltage (V)
FREQINIT	QUANT	1.00000E+006	Initial Fre&q. (Hz)
FREQFINAL	QUANT	1.00000E+000	Final Fre&q. (Hz)
PTSPERDEC	QUANT	1.00000E+001	Points/&decade
VAC	QUANT	2.50000E+001	AC &Voltage (mV rms)
AREA	QUANT	1.00000E-002	&Area (cm^2)
CONDIT	TWOPARAM	T	5.00000E+000	0.00000E+000	Conditionin&g	Time(s)	E(V)
DELAY	TWOPARAM	T	5.00000E+000	0.00000E+000	Init. De&lay	Time(s)	Stab.(mV/s)
SPEED	SELECTOR	1	&Optimize for:
ZGUESS	QUANT	1.00000E+004	E&stimated Z (ohms)
OCVCURVE	TABLE	19
	Pt	T	Vf	Vm	Ach	Over
	#	s	V vs. Ref.	V	V	bits
	0	0.258333	-4.74872E-003	-4.74872E-003	5.83565E-004	...........
	1	0.516667	-4.76218E-003	-5.45307E-003	5.80665E-004	...........
	2	0.775	-4.84399E-003	-6.07808E-003	5.84765E-004	...........
	3	1.03333	-5.07244E-003	-6.66325E-003	5.81399E-004	...........
	4	1.29167	-5.47441E-003	-7.20927E-003	5.81332E-004	...........
	5	1.55	-5.99856E-003	-7.72572E-003	5.84499E-004	...........
	6	1.80833	-6.56755E-003	-8.20767E-003	5.81365E-004	...........
	7	2.06667	-7.12728E-003	-8.65475E-003	5.87199E-004	...........
	8	2.325	-7.65448E-003	-9.08074E-003	5.85299E-004	...........
	9	2.58333	-8.14514E-003	-9.49321E-003	5.82099E-004	...........
	10	2.84167	-8.60437E-003	-9.92134E-003	5.82199E-004	...........
	11	3.1	-9.04125E-003	-1.03208E-002	5.83765E-004	...........
	12	3.35833	-9.46366E-003	-1.06802E-002	5.80132E-004	...........
	13	3.61667	-9.87280E-003	-1.10164E-002	5.83799E-004	...........
	14	3.875	-1.02640E-002	-1.13535E-002	5.80499E-004	...........
	15	4.13333	-1.06338E-002	-1.16633E-002	5.87665E-004	...........
	16	4.39167	-1.09829E-002	-1.19567E-002	5.81665E-004	...........
	17	4.65	-1.13134E-002	-1.22428E-002	5.82565E-004	...........
	18	4.90833	-1.16277E-002	-1.25410E-002	5.82665E-004	...........
EOC	QUANT	-0.0116277	Open Circuit (V)
PSTATMODEL	IQUANT	4	Pstat Model
PSTATSECTION	LABEL	REF600-11020	Pstat Section
PSTATSERIALNO	LABEL	11020	Pstat Serial Number
CTRLMODE	IQUANT	1	Control Mode
IESTAB	IQUANT	0	I/E Stability
CASPEED	IQUANT	1	Control Amp Speed
CONVENTION	IQUANT	1	Current Convention
ICHRANGE	IQUANT	2	Ich Range
ICHRANGEMODE	TOGGLE	F	Ich Auto Range
ICHOFFSETENABLE	TOGGLE	T	Ich Offset Enable
ICHOFFSET	QUANT	0	Ich Offset (V)
ICHFILTER	IQUANT	3	Ich Filter
VCHRANGE	IQUANT	2	Vch Range
VCHRANGEMODE	TOGGLE	F	Vch Auto Range
VCHOFFSETENABLE	TOGGLE	T	Vch Offset Enable
VCHOFFSET	QUANT	0	Vch Offset (V)
VCHFILTER	IQUANT	3	Vch Filter
ACHRANGE	IQUANT	2	Ach Range
ACHOFFSETENABLE	TOGGLE	F	Ach Offset Enable
ACHOFFSET	QUANT	0	Ach Offset (V)
ACHFILTER	IQUANT	3	Ach Filter
IERANGELOWERLIMIT	IQUANT	1	I/E Range Lower Limit
IERANGEMODE	TOGGLE	F	I/E AutoRange
IERANGE	IQUANT	6	I/E Range
POSFEEDENABLE	TOGGLE	F	Positive Feedback IR Comp
POSFEEDRESISTANCE	QUANT	0	Positive Feedback Resistance (ohm)
ACHSELECT	IQUANT	0	Ach Select
CABLEID	IQUANT	14	Cable ID
DCCALDATE	LABEL	8/19/2019	DC Calibration Date
ACCALDATE	LABEL	8/19/2019	AC Calibration Date
THERMOSELECT	IQUANT	1	Thermo Select
FRAMEWORKVERSION	QUANT	6.33	Framework Version
INSTRUMENTVERSION	LABEL	3.50	Instrument Version
ZCURVE	TABLE
	Pt	Time	Freq	Zreal	Zimag	Zsig	Zmod	Zphz	Idc	Vdc	IERange
	#	s	Hz	ohm	ohm	V	ohm	°	A	V	#
	0	1	1000078	2327.785	-1714.013	1	2890.748	-36.36526	2.826176E-006	-0.0105164	8
	1	2	794390.6	2662.107	-1680.209	1	3148.002	-32.25837	-2.162472E-006	-0.0094428	8
	2	4	630984.4	2998.564	-1614.438	1	3405.554	-28.29818	-3.711033E-006	-0.0091515	8
	3	5	501234.4	3270.98	-1489.755	1	3594.256	-24.4867	-4.473261E-006	-0.0089405	8
	4	6	398109.4	3531.793	-1353.002	1	3782.086	-20.96145	5.30244E-006	-0.0110817	8
	5	8	316265.6	3744.216	-1182.753	1	3926.583	-17.53071	-4.882437E-006	-0.0091153	8
	6	10	251203.1	3884.845	-1032.213	1	4019.637	-14.87982	4.835834E-006	-0.0110702	8
	7	11	199546.9	4031.888	-918.2542	1	4135.131	-12.83015	-5.931167E-007	-0.0099861	8
	8	12	158578.1	4108.843	-780.0638	1	4182.235	-10.74967	-3.48198E-006	-0.0094641	8
	9	14	125953.1	4215.985	-627.8683	1	4262.482	-8.470554	-3.143767E-007	-0.0098028	7
	10	15	100078.1	4257.611	-551.4064	1	4293.169	-7.379344	-4.394113E-008	-0.0101912	7
	11	16	79453.13	4302.225	-491.6659	1	4330.228	-6.519579	3.402729E-008	-0.0102578	7
	12	18	63140.62	4339.293	-446.0992	1	4362.164	-5.869648	-5.123746E-008	-0.0101212	7
	13	19	50203.12	4374.622	-413.9442	1	4394.163	-5.405461	-7.311178E-009	-0.0102783	7
	14	20	39890.62	4404.919	-391.0919	1	4422.247	-5.073718	-4.973569E-008	-0.0101274	7
	15	22	31640.63	4435.15	-381.1075	1	4451.494	-4.911297	-3.72387E-008	-0.0102111	7
	16	23	25171.88	4464.095	-381.9542	1	4480.405	-4.890397	-4.646494E-008	-0.0100741	7
	17	24	20015.62	4493.286	-392.4753	1	4510.394	-4.991948	-8.950441E-009	-0.0102064	7
	18	26	15890.62	4521.537	-414.64	1	4540.509	-5.23956	-2.587931E-008	-0.0102382	7
	19	27	12609.37	4550.709	-447.3557	1	4572.645	-5.6144	1.591701E-008	-0.010311	7
	20	28	10078.13	4582.472	-492.562	1	4608.868	-6.13507	-4.338865E-009	-0.0102864	7
	21	30	8015.625	4616.027	-553.848	1	4649.134	-6.841853	-4.792297E-008	-0.0101293	7
	22	31	6328.125	4652.411	-636.2592	1	4695.717	-7.787405	-1.347608E-008	-0.0100997	7
	23	33	5015.625	4692.493	-738.8933	1	4750.311	-8.948483	-4.135646E-008	-0.0102075	7
	24	34	3984.375	4736.487	-863.9005	1	4814.627	-10.3367	1.6403E-008	-0.0103071	7
	25	35	3170.956	4786.627	-1020.926	1	4894.292	-12.04005	1.322063E-007	-0.0104208	7
	26	37	2527.573	4845.242	-1210.729	1	4994.22	-14.02978	-4.198621E-008	-0.0102078	7
	27	38	1976.103	4917.444	-1461.548	1	5130.046	-16.55285	-4.00719E-008	-0.0102126	7
	28	39	1577.524	4993.266	-1746.149	1	5289.777	-19.27477	-4.48694E-008	-0.0101743	7
	29	41	1265.625	5077.189	-2088.345	1	5489.903	-22.3583	1.321875E-007	-0.0104184	7
	30	42	998.264	5186.488	-2530.366	1	5770.824	-26.00666	4.589956E-008	-0.0103728	7
	31	43	796.875	5301.131	-3049.62	1	6115.731	-29.91084	1.637018E-008	-0.0103069	7
	32	45	627.7902	5442.137	-3726.265	1	6595.598	-34.39969	1.337084E-007	-0.0104223	7
	33	46	505.5147	5595.33	-4482.449	1	7169.384	-38.69841	-7.038447E-008	-0.0101245	7
	34	47	397.9953	5792.447	-5503.455	1	7990.022	-43.53448	3.976614E-009	-0.0102084	7
	35	49	315.5048	6024.524	-6736.69	1	9037.582	-48.19419	4.879976E-009	-0.0102095	7
	36	50	252.4038	6299.747	-8193.424	1	10335.33	-52.4441	8.687417E-010	-0.0102797	6
	37	51	198.6229	6664.69	-10124.29	1	12121.03	-56.64362	1.388741E-009	-0.0102718	6
	38	53	158.3615	7101.026	-12375.52	1	14268.08	-60.15296	1.257203E-009	-0.0102729	6
	39	54	125.558	7673.999	-15215.16	1	17040.87	-63.2352	1.526878E-009	-0.0102769	6
	40	56	100.4464	8379.24	-18564.92	1	20368.31	-65.70805	1.41793E-009	-0.0102777	6
	41	57	79.00281	9363.456	-22924.28	1	24762.81	-67.78236	1.795381E-009	-0.0102768	6
	42	58	63.3446	10641.31	-27743.79	1	29714.57	-69.01536	8.320572E-010	-0.0102769	6
	43	60	49.86702	12295.29	-34529.66	1	36653.39	-70.40025	5.911671E-010	-0.0102766	6
	44	61	39.72458	14373.96	-41985.21	1	44377.57	-71.10097	1.301806E-009	-0.0102714	6
	45	63	31.6723	17174.88	-50918.67	1	53737.21	-71.36073	1.039717E-009	-0.010277	6
	46	64	24.93351	21043.83	-62519.84	1	65966.46	-71.39706	1.241486E-009	-0.0102748	6
	47	65	19.86229	26017.29	-75623.99	1	79974.3	-71.01499	8.612207E-010	-0.010276	6
	48	67	15.83615	31772.99	-90847.2	1	96243.1	-70.72318	-7.843031E-011	-0.0102777	6
	49	68	12.40079	41629.19	-110709.1	1	118277.2	-69.39259	1.681281E-009	-0.0102703	5
	50	70	9.93114	52355.29	-131154.2	1	141218	-68.23867	3.657472E-010	-0.0102641	5
	51	71	7.944915	66577.95	-154834.4	1	168541.7	-66.73255	1.433413E-009	-0.0102666	5
	52	73	6.317385	84305.48	-182176.5	1	200737.9	-65.16681	1.509706E-010	-0.0102629	5
	53	75	5.008013	107150.9	-212650.5	1	238120.9	-63.25726	2.59144E-010	-0.0102812	5
	54	77	3.945707	135754.2	-246477.4	1	281390	-61.15502	7.410751E-010	-0.0102708	5
	55	80	3.158693	167350.9	-280657	1	326764	-59.1931	1.596025E-010	-0.0102906	5
	56	83	2.504006	205129.8	-317826.7	1	378275.1	-57.16123	5.780458E-010	-0.0102701	5
	57	86	1.998082	245615.3	-355669.3	1	432235.5	-55.37212	8.579657E-010	-0.0102804	5
	58	89	1.584686	292988.2	-396980.6	1	493392	-53.57114	2.452032E-010	-0.0103286	5
	59	93	1.266892	338642.3	-438982.8	1	554422.7	-52.35251	6.28903E-010	-0.010295	5
	60	97	0.999041	392612.6	-490047.6	1	627926.2	-51.29926	-3.654911E-011	-0.0102692	5
