EXPLAIN
TAG	EISPOT
TITLE	LABEL	Potentiostatic EIS	Test &Identifier
DATE	LABEL	10/14/2019	Date
TIME	LABEL	9:32:27	Time
NOTES	NOTES	1	&Notes...
	
PSTAT	PSTAT	REF600-11020	Potentiostat
VDC	POTEN	0.00000E+000	T	DC &Voltage (V)
FREQINIT	QUANT	1.00000E+006	Initial Fre&q. (Hz)
FREQFINAL	QUANT	1.00000E+000	Final Fre&q. (Hz)
PTSPERDEC	QUANT	1.00000E+001	Points/&decade
VAC	QUANT	2.50000E+001	AC &Voltage (mV rms)
AREA	QUANT	1.00000E-002	&Area (cm^2)
CONDIT	TWOPARAM	T	5.00000E+000	0.00000E+000	Conditionin&g	Time(s)	E(V)
DELAY	TWOPARAM	T	5.00000E+000	0.00000E+000	Init. De&lay	Time(s)	Stab.(mV/s)
SPEED	SELECTOR	1	&Optimize for:
ZGUESS	QUANT	1.00000E+004	E&stimated Z (ohms)
OCVCURVE	TABLE	19
	Pt	T	Vf	Vm	Ach	Over
	#	s	V vs. Ref.	V	V	bits
	0	0.258333	8.35631E-003	8.35631E-003	5.69899E-004	...........
	1	0.516667	8.35868E-003	8.48069E-003	5.69166E-004	...........
	2	0.775	8.37362E-003	8.61680E-003	5.72532E-004	...........
	3	1.03333	8.41703E-003	8.74673E-003	5.74199E-004	...........
	4	1.29167	8.49691E-003	8.87377E-003	5.71232E-004	...........
	5	1.55	8.60648E-003	9.01506E-003	5.79732E-004	...........
	6	1.80833	8.73292E-003	9.15768E-003	5.75165E-004	...........
	7	2.06667	8.86711E-003	9.28938E-003	5.75499E-004	...........
	8	2.325	9.00444E-003	9.42711E-003	5.77632E-004	...........
	9	2.58333	9.14226E-003	9.55838E-003	5.76332E-004	...........
	10	2.84167	9.27896E-003	9.68825E-003	5.69966E-004	...........
	11	3.1	9.41373E-003	9.81350E-003	5.76699E-004	...........
	12	3.35833	9.54603E-003	9.93901E-003	5.70232E-004	...........
	13	3.61667	9.67566E-003	1.00609E-002	5.74232E-004	...........
	14	3.875	9.80279E-003	1.01849E-002	5.71899E-004	...........
	15	4.13333	9.92787E-003	1.03037E-002	5.73532E-004	...........
	16	4.39167	1.00512E-002	1.04170E-002	5.76066E-004	...........
	17	4.65	1.01724E-002	1.05290E-002	5.75566E-004	...........
	18	4.90833	1.02909E-002	1.06394E-002	5.73199E-004	...........
EOC	QUANT	0.0102909	Open Circuit (V)
PSTATMODEL	IQUANT	4	Pstat Model
PSTATSECTION	LABEL	REF600-11020	Pstat Section
PSTATSERIALNO	LABEL	11020	Pstat Serial Number
CTRLMODE	IQUANT	1	Control Mode
IESTAB	IQUANT	0	I/E Stability
CASPEED	IQUANT	1	Control Amp Speed
CONVENTION	IQUANT	1	Current Convention
ICHRANGE	IQUANT	2	Ich Range
ICHRANGEMODE	TOGGLE	F	Ich Auto Range
ICHOFFSETENABLE	TOGGLE	T	Ich Offset Enable
ICHOFFSET	QUANT	0	Ich Offset (V)
ICHFILTER	IQUANT	3	Ich Filter
VCHRANGE	IQUANT	2	Vch Range
VCHRANGEMODE	TOGGLE	F	Vch Auto Range
VCHOFFSETENABLE	TOGGLE	T	Vch Offset Enable
VCHOFFSET	QUANT	0	Vch Offset (V)
VCHFILTER	IQUANT	3	Vch Filter
ACHRANGE	IQUANT	2	Ach Range
ACHOFFSETENABLE	TOGGLE	F	Ach Offset Enable
ACHOFFSET	QUANT	0	Ach Offset (V)
ACHFILTER	IQUANT	3	Ach Filter
IERANGELOWERLIMIT	IQUANT	1	I/E Range Lower Limit
IERANGEMODE	TOGGLE	F	I/E AutoRange
IERANGE	IQUANT	6	I/E Range
POSFEEDENABLE	TOGGLE	F	Positive Feedback IR Comp
POSFEEDRESISTANCE	QUANT	0	Positive Feedback Resistance (ohm)
ACHSELECT	IQUANT	0	Ach Select
CABLEID	IQUANT	14	Cable ID
DCCALDATE	LABEL	8/19/2019	DC Calibration Date
ACCALDATE	LABEL	8/19/2019	AC Calibration Date
THERMOSELECT	IQUANT	1	Thermo Select
FRAMEWORKVERSION	QUANT	6.33	Framework Version
INSTRUMENTVERSION	LABEL	3.50	Instrument Version
ZCURVE	TABLE
	Pt	Time	Freq	Zreal	Zimag	Zsig	Zmod	Zphz	Idc	Vdc	IERange
	#	s	Hz	ohm	ohm	V	ohm	°	A	V	#
	0	2	1000078	2339.941	-1489.688	1	2773.896	-32.48226	3.163402E-006	0.0120055	8
	1	4	794390.6	2621.37	-1403.883	1	2973.628	-28.17142	-3.672169E-006	0.0126236	8
	2	5	630984.4	2883.368	-1280.911	1	3155.082	-23.95276	2.009037E-006	0.0117401	8
	3	6	501234.4	3081.172	-1150.879	1	3289.095	-20.48165	-6.748791E-007	0.0120677	8
	4	8	398109.4	3243.305	-1013.867	1	3398.081	-17.35939	-1.02961E-006	0.0120951	8
	5	9	316265.6	3367.863	-862.7772	1	3476.62	-14.36898	1.153857E-006	0.0115484	8
	6	10	251203.1	3451.359	-748.822	1	3531.659	-12.24141	-4.387315E-006	0.012847	8
	7	12	199546.9	3527.863	-660.3903	1	3589.141	-10.60265	1.184875E-006	0.0115409	8
	8	13	158578.1	3571.237	-565.5407	1	3615.739	-8.998628	-1.021665E-006	0.012032	8
	9	15	125953.1	3652.368	-464.3888	1	3681.772	-7.246124	-8.315034E-007	0.0135405	7
	10	16	100078.1	3680.487	-418.743	1	3704.231	-6.490849	8.416689E-008	0.0117582	7
	11	17	79453.13	3713.823	-395.3884	1	3734.812	-6.077045	4.159395E-008	0.0116658	7
	12	19	63140.62	3745.247	-382.2932	1	3764.707	-5.828238	-7.425623E-008	0.0119195	7
	13	20	50203.12	3777.914	-378.506	1	3796.828	-5.721323	-1.615456E-008	0.0118551	7
	14	21	39890.62	3811.177	-383.8157	1	3830.455	-5.750749	-5.364244E-008	0.0119626	7
	15	23	31640.63	3845.585	-397.3198	1	3866.055	-5.898781	-6.279755E-009	0.0118201	7
	16	24	25171.88	3882.349	-421.0126	1	3905.11	-6.189126	3.787935E-008	0.0117603	7
	17	25	20015.62	3921.098	-454.9303	1	3947.4	-6.617934	-9.259868E-009	0.0117578	7
	18	27	15890.62	3965.905	-496.7217	1	3996.89	-7.139007	-4.49287E-010	0.0118065	7
	19	28	12609.37	4011.551	-552.1498	1	4049.371	-7.836949	-8.542586E-009	0.0118182	7
	20	30	10078.13	4060.505	-615.5349	1	4106.895	-8.619881	-4.301135E-008	0.0118257	7
	21	31	8015.625	4114.667	-695.3408	1	4173.006	-9.59184	-7.667476E-009	0.0118442	7
	22	32	6328.125	4174.318	-794.6061	1	4249.274	-10.77765	-6.944618E-008	0.0119126	7
	23	34	5015.625	4237.744	-915.1745	1	4335.437	-12.18633	-3.719803E-008	0.0118307	7
	24	35	3984.375	4304.496	-1056.676	1	4432.296	-13.79235	8.234637E-008	0.0116203	7
	25	36	3170.956	4377.485	-1236.945	1	4548.891	-15.77869	8.096964E-008	0.0116208	7
	26	38	2527.573	4455.875	-1450.323	1	4685.963	-18.02932	1.303691E-008	0.0117139	7
	27	39	1976.103	4552.238	-1739.77	1	4873.363	-20.91581	-5.700015E-009	0.0118048	7
	28	40	1577.524	4671.655	-2086.514	1	5116.434	-24.0671	-4.137989E-008	0.0118793	7
	29	42	1265.625	4751.774	-2445.468	1	5344.125	-27.2323	-4.32348E-008	0.011815	7
	30	43	998.264	4873.36	-2956.505	1	5700.05	-31.24379	4.321168E-008	0.0116521	7
	31	45	796.875	5013.303	-3552.222	1	6144.224	-35.31983	1.370445E-007	0.0115801	7
	32	46	627.7902	5175.318	-4332.656	1	6749.505	-39.93529	-3.412854E-008	0.0118121	7
	33	47	505.5147	5351.593	-5207.031	1	7466.774	-44.21559	1.345894E-007	0.0115803	7
	34	49	397.9953	5582.427	-6400.679	1	8493.066	-48.90631	5.055573E-009	0.0117931	7
	35	50	315.5048	5856.21	-7839.666	1	9785.48	-53.24036	5.844169E-009	0.0117923	7
	36	51	252.4038	6187.828	-9543.33	1	11373.85	-57.04091	1.453779E-009	0.0117327	6
	37	53	198.6229	6635.35	-11802.68	1	13539.99	-60.65575	6.472695E-010	0.0117314	6
	38	54	158.3615	7181.815	-14434.35	1	16122.32	-63.54735	1.346724E-009	0.0117284	6
	39	56	125.558	7911.429	-17750.08	1	19433.38	-65.97688	4.895917E-010	0.0117299	6
	40	57	100.4464	8832.282	-21647.46	1	23379.94	-67.80427	1.434439E-009	0.0117342	6
	41	58	79.00281	10150.41	-26686.12	1	28551.35	-69.17505	1.249194E-009	0.0117225	6
	42	60	63.3446	12069.31	-32524.84	1	34691.98	-69.64113	1.825978E-010	0.0117245	6
	43	61	49.86702	13889.06	-39960.78	1	42305.67	-70.83423	4.223973E-010	0.0117299	6
	44	63	39.72458	17041.42	-48423.37	1	51334.52	-70.61172	7.95882E-010	0.0117309	6
	45	64	31.6723	21164.35	-58385.01	1	62102.65	-70.07461	3.334153E-011	0.0117326	6
	46	65	24.93351	26579.26	-71076.01	1	75883.17	-69.49644	5.766306E-010	0.011726	6
	47	67	19.86229	33443.34	-84906.92	1	91255.91	-68.5014	1.292097E-009	0.0117302	6
	48	68	15.83615	41293.76	-100940.9	1	109060.7	-67.7511	-1.513979E-009	0.0117296	5
	49	69	12.40079	54825.92	-120100.9	1	132023.1	-65.46335	9.577893E-010	0.0117338	5
	50	71	9.93114	68666.65	-139795.2	1	155749.2	-63.83998	-4.347664E-010	0.0117376	5
	51	72	7.944915	85610.96	-161049.2	1	182389.9	-62.00566	5.704342E-010	0.0117296	5
	52	74	6.317385	105864.9	-184440.6	1	212663.3	-60.14511	3.129471E-010	0.0117456	5
	53	76	5.008013	129377.9	-209941.2	1	246604.8	-58.35622	3.193479E-010	0.0117313	5
	54	79	3.945707	156307.6	-238344.1	1	285026.2	-56.74288	3.607525E-011	0.0117277	5
	55	81	3.158693	183359.9	-266875.8	1	323795.6	-55.50858	-2.384375E-012	0.0117393	5
	56	85	2.504006	213397.2	-300490.7	1	368555.3	-54.61906	4.70188E-012	0.0117158	5
	57	87	1.998082	243600.1	-337646.4	1	416348.5	-54.19086	-2.967717E-010	0.0117519	5
	58	91	1.584686	277128.3	-383601.8	1	473234	-54.15424	6.055748E-011	0.0117692	5
	59	94	1.266892	311075.8	-435180.1	1	534929.8	-54.44202	-2.395265E-010	0.0117612	5
	60	98	0.999041	350077.8	-502672.9	1	612563.9	-55.14539	9.853084E-011	0.0117111	5
