EXPLAIN
TAG	EISPOT
TITLE	LABEL	Potentiostatic EIS	Test &Identifier
DATE	LABEL	11/9/2019	Date
TIME	LABEL	9:39:24	Time
NOTES	NOTES	2	&Notes...
	
	
PSTAT	PSTAT	REF600-11020	Potentiostat
VDC	POTEN	0.00000E+000	T	DC &Voltage (V)
FREQINIT	QUANT	1.00000E+006	Initial Fre&q. (Hz)
FREQFINAL	QUANT	1.00000E+000	Final Fre&q. (Hz)
PTSPERDEC	QUANT	1.00000E+001	Points/&decade
VAC	QUANT	2.50000E+001	AC &Voltage (mV rms)
AREA	QUANT	1.00000E-002	&Area (cm^2)
CONDIT	TWOPARAM	T	5.00000E+000	0.00000E+000	Conditionin&g	Time(s)	E(V)
DELAY	TWOPARAM	T	5.00000E+000	0.00000E+000	Init. De&lay	Time(s)	Stab.(mV/s)
SPEED	SELECTOR	0	&Optimize for:
ZGUESS	QUANT	1.00000E+005	E&stimated Z (ohms)
OCVCURVE	TABLE	19
	Pt	T	Vf	Vm	Ach	Over
	#	s	V vs. Ref.	V	V	bits
	0	0.258333	3.29190E-003	3.29190E-003	5.30833E-004	...........
	1	0.516667	3.28352E-003	2.85297E-003	5.37199E-004	...........
	2	0.775	3.23462E-003	2.57299E-003	5.30900E-004	...........
	3	1.03333	3.10205E-003	2.15204E-003	5.35966E-004	...........
	4	1.29167	2.87368E-003	1.99870E-003	5.36699E-004	...........
	5	1.55	2.58335E-003	1.66337E-003	5.34066E-004	...........
	6	1.80833	2.28005E-003	1.49793E-003	5.36199E-004	...........
	7	2.06667	1.99448E-003	1.22573E-003	5.33900E-004	...........
	8	2.325	1.73478E-003	1.09080E-003	5.38166E-004	...........
	9	2.58333	1.49942E-003	8.64765E-004	5.47266E-004	...........
	10	2.84167	1.28590E-003	7.65272E-004	5.32400E-004	...........
	11	3.1	1.09231E-003	5.56594E-004	5.33300E-004	...........
	12	3.35833	9.15801E-004	4.54181E-004	5.42633E-004	...........
	13	3.61667	7.52929E-004	3.20630E-004	5.38566E-004	...........
	14	3.875	6.02558E-004	2.12296E-004	5.33733E-004	...........
	15	4.13333	4.64562E-004	7.22225E-005	5.33300E-004	...........
	16	4.39167	3.36364E-004	-1.27489E-005	5.33800E-004	...........
	17	4.65	2.14610E-004	-1.48706E-004	5.33066E-004	...........
	18	4.90833	9.81035E-005	-2.02488E-004	5.31900E-004	...........
EOC	QUANT	0.0000981	Open Circuit (V)
PSTATMODEL	IQUANT	4	Pstat Model
PSTATSECTION	LABEL	REF600-11020	Pstat Section
PSTATSERIALNO	LABEL	11020	Pstat Serial Number
CTRLMODE	IQUANT	1	Control Mode
IESTAB	IQUANT	0	I/E Stability
CASPEED	IQUANT	1	Control Amp Speed
CONVENTION	IQUANT	1	Current Convention
ICHRANGE	IQUANT	2	Ich Range
ICHRANGEMODE	TOGGLE	F	Ich Auto Range
ICHOFFSETENABLE	TOGGLE	T	Ich Offset Enable
ICHOFFSET	QUANT	0	Ich Offset (V)
ICHFILTER	IQUANT	3	Ich Filter
VCHRANGE	IQUANT	2	Vch Range
VCHRANGEMODE	TOGGLE	F	Vch Auto Range
VCHOFFSETENABLE	TOGGLE	T	Vch Offset Enable
VCHOFFSET	QUANT	0	Vch Offset (V)
VCHFILTER	IQUANT	3	Vch Filter
ACHRANGE	IQUANT	2	Ach Range
ACHOFFSETENABLE	TOGGLE	F	Ach Offset Enable
ACHOFFSET	QUANT	0	Ach Offset (V)
ACHFILTER	IQUANT	3	Ach Filter
IERANGELOWERLIMIT	IQUANT	1	I/E Range Lower Limit
IERANGEMODE	TOGGLE	F	I/E AutoRange
IERANGE	IQUANT	3	I/E Range
POSFEEDENABLE	TOGGLE	F	Positive Feedback IR Comp
POSFEEDRESISTANCE	QUANT	0	Positive Feedback Resistance (ohm)
ACHSELECT	IQUANT	0	Ach Select
CABLEID	IQUANT	14	Cable ID
DCCALDATE	LABEL	8/19/2019	DC Calibration Date
ACCALDATE	LABEL	8/19/2019	AC Calibration Date
THERMOSELECT	IQUANT	1	Thermo Select
FRAMEWORKVERSION	QUANT	6.33	Framework Version
INSTRUMENTVERSION	LABEL	3.50	Instrument Version
ZCURVE	TABLE
	Pt	Time	Freq	Zreal	Zimag	Zsig	Zmod	Zphz	Idc	Vdc	IERange
	#	s	Hz	ohm	ohm	V	ohm	°	A	V	#
	0	2	1000078	2353.284	-1561.251	1	2824.084	-33.56169	9.203268E-006	0.0012193	8
	1	2	794390.6	2671.516	-1534.252	1	3080.734	-29.86876	-1.310624E-005	0.0033707	8
	2	2	630984.4	2928.104	-1442.527	1	3264.151	-26.22711	2.840666E-006	0.0013138	8
	3	3	501234.4	3184.496	-1333.625	1	3452.474	-22.7233	-4.212692E-006	0.0024312	8
	4	3	398109.4	3363.825	-1226.555	1	3580.469	-20.03342	-7.491324E-007	0.0021913	8
	5	3	316265.6	3542.219	-1119.014	1	3714.769	-17.53172	-1.739461E-006	0.002119	8
	6	4	251203.1	3672.973	-1018.617	1	3811.603	-15.50016	8.983406E-007	0.0020789	8
	7	4	199546.9	3790.217	-954.296	1	3908.507	-14.13212	-4.466333E-006	0.0022744	8
	8	4	158578.1	3863.976	-942.5893	1	3977.283	-13.70915	2.304993E-006	0.0019413	8
	9	5	125953.1	4011.288	-787.137	1	4087.789	-11.10211	2.553295E-006	0.0016522	7
	10	5	100078.1	4086.82	-767.3734	1	4158.24	-10.63448	1.044662E-006	0.0012822	7
	11	5	79453.13	4157.332	-765.7173	1	4227.26	-10.43605	1.249615E-006	-0.0005938	7
	12	5	63140.62	4231.861	-788.0947	1	4304.619	-10.54928	1.378118E-006	-0.0003069	7
	13	6	50203.12	4316.353	-816.2724	1	4392.858	-10.70883	1.050397E-006	0.001275	7
	14	6	39890.62	4389.375	-858.1581	1	4472.477	-11.06225	-1.392083E-006	0.0035958	7
	15	6	31640.63	4489.783	-925.2933	1	4584.138	-11.64497	1.592646E-007	-0.0002155	7
	16	7	25171.88	4584.174	-1005.191	1	4693.086	-12.36774	4.820665E-007	0.0022161	7
	17	7	20015.62	4687.349	-1099.901	1	4814.667	-13.20571	-1.545007E-006	0.0033755	7
	18	7	15890.62	4820.054	-1209.243	1	4969.425	-14.08355	6.884922E-008	0.0027768	7
	19	8	12609.37	4949.129	-1347.683	1	5129.34	-15.23271	7.653098E-007	0.001812	7
	20	8	10078.13	5096.197	-1505.23	1	5313.844	-16.45521	1.394581E-006	0.0001104	7
	21	8	8015.625	5247.396	-1692.739	1	5513.667	-17.879	-1.392909E-006	0.0035859	7
	22	9	6328.125	5440.744	-1938.505	1	5775.768	-19.61068	9.950863E-007	-0.0007084	7
	23	9	5015.625	5665.503	-2201.08	1	6078.049	-21.23143	1.285579E-006	0.0006477	7
	24	9	3984.375	5902.082	-2476.023	1	6400.411	-22.75887	-1.56082E-006	0.0033804	7
	25	10	3170.956	6179.751	-2824.905	1	6794.808	-24.56622	-1.54122E-006	0.0028933	7
	26	10	2527.573	6493.155	-3201.809	1	7239.658	-26.24815	4.846527E-007	0.0022131	7
	27	11	1976.103	6877.772	-3636.277	1	7779.862	-27.8654	1.04319E-006	0.0012802	7
	28	11	1577.524	7275.47	-4143.193	1	8372.485	-29.6604	-1.545813E-006	0.0028862	7
	29	11	1265.625	7721.185	-4675.284	1	9026.35	-31.19548	8.282483E-008	0.0027702	7
	30	12	998.264	8225.937	-5314.056	1	9793.12	-32.86295	8.136698E-009	0.0037002	6
	31	12	796.875	8734.506	-5988.547	1	10590.29	-34.4353	2.397625E-008	-0.0012483	6
	32	12	627.7902	9278.27	-6838.308	1	11526	-36.39111	-1.294169E-007	0.0007516	6
	33	13	505.5147	9771.59	-7786.12	1	12494.31	-38.54825	2.459412E-008	-0.001267	6
	34	13	397.9953	10332.58	-9042.994	1	13730.91	-41.19217	1.545639E-009	0.0014885	6
	35	13	315.5048	10872.79	-10569.42	1	15163.45	-44.18941	-2.580293E-010	0.0014984	6
	36	14	252.4038	11418.62	-12419.59	1	16871.01	-47.40444	-1.133696E-010	0.0014816	6
	37	14	198.6229	12045.45	-14914.38	1	19171.12	-51.07426	-1.379857E-010	0.0014916	6
	38	14	158.3615	12695.6	-17864.07	1	21915.82	-54.59944	1.927807E-009	0.0014941	6
	39	15	125.558	13487.7	-21662.19	1	25518	-58.09205	8.60447E-010	0.0014926	6
	40	15	100.4464	14366.86	-26190.71	1	29872.4	-61.25312	-1.886323E-009	0.0014924	6
	41	15	79.00281	15844.04	-32143.04	1	35835.86	-63.76026	-3.108983E-010	0.0014817	6
	42	16	63.3446	16469.17	-39862.45	1	43130.6	-67.55203	6.185928E-010	0.0014899	6
	43	16	49.86702	18614.38	-48512.51	1	51961.13	-69.00806	1.244377E-009	0.0014893	6
	44	16	39.72458	22037.53	-59114.29	1	63088.45	-69.55479	1.083421E-009	0.0014964	6
	45	17	31.6723	26110.99	-71692.88	1	76299.75	-69.98807	1.775439E-009	0.0014952	6
	46	17	24.93351	30304.43	-88053.91	1	93122.76	-71.00871	1.354497E-010	0.0014896	6
	47	17	19.86229	36615.19	-107140.8	1	113224.6	-71.13222	2.781564E-010	0.0014955	5
	48	18	15.83615	40765.93	-128556.7	1	134865.5	-72.40594	2.726097E-009	0.0014813	5
	49	18	12.40079	52141.19	-158744.8	1	167088.6	-71.81676	-1.66455E-009	0.0014981	5
	50	18	9.93114	69078.41	-188997.5	1	201226	-69.92269	-1.95226E-010	0.0014862	5
	51	19	7.944915	85842.13	-225494.9	1	241281.6	-69.15901	7.798855E-011	0.0014865	5
	52	19	6.317385	107648.5	-268026.2	1	288836	-68.1179	4.161459E-011	0.0015004	5
	53	20	5.008013	134964.9	-319159.3	1	346523	-67.07765	-2.545148E-010	0.0014878	5
	54	21	3.945707	171271.7	-375251.7	1	412489.8	-65.46718	8.092221E-011	0.0014994	5
	55	23	3.158693	214411.3	-438417.7	1	488039.2	-63.93873	2.070203E-011	0.0015103	5
	56	24	2.504006	266244.3	-510287.3	1	575568.5	-62.44653	-1.085063E-011	0.0014849	5
	57	26	1.998082	326496.4	-585163.3	1	670086.5	-60.84032	2.048305E-010	0.0015229	5
	58	27	1.584686	397170.3	-671699.6	1	780336.2	-59.40454	2.1516E-010	0.0015283	5
	59	29	1.266892	473490.8	-762033.6	1	897155.9	-58.14518	1.538844E-010	0.0014914	5
	60	32	0.999041	569924.1	-869754.2	1	1039849	-56.76437	1.227946E-010	0.0014572	4
