EXPLAIN
TAG	EISPOT
TITLE	LABEL	Potentiostatic EIS	Test &Identifier
DATE	LABEL	11/20/2019	Date
TIME	LABEL	10:31:59	Time
NOTES	NOTES	4	&Notes...
	
	
	
	
PSTAT	PSTAT	REF600-11020	Potentiostat
VDC	POTEN	0.00000E+000	T	DC &Voltage (V)
FREQINIT	QUANT	1.00000E+006	Initial Fre&q. (Hz)
FREQFINAL	QUANT	1.00000E+000	Final Fre&q. (Hz)
PTSPERDEC	QUANT	1.00000E+001	Points/&decade
VAC	QUANT	2.50000E+001	AC &Voltage (mV rms)
AREA	QUANT	1.00000E-002	&Area (cm^2)
CONDIT	TWOPARAM	T	5.00000E+000	0.00000E+000	Conditionin&g	Time(s)	E(V)
DELAY	TWOPARAM	T	5.00000E+000	0.00000E+000	Init. De&lay	Time(s)	Stab.(mV/s)
SPEED	SELECTOR	1	&Optimize for:
ZGUESS	QUANT	1.00000E+005	E&stimated Z (ohms)
OCVCURVE	TABLE	19
	Pt	T	Vf	Vm	Ach	Over
	#	s	V vs. Ref.	V	V	bits
	0	0.258333	8.40068E-003	8.40068E-003	5.62666E-004	...........
	1	0.516667	8.40732E-003	8.74821E-003	5.63899E-004	...........
	2	0.775	8.44826E-003	9.08684E-003	5.68366E-004	...........
	3	1.03333	8.56463E-003	9.40932E-003	5.70899E-004	...........
	4	1.29167	8.77399E-003	9.73146E-003	5.70566E-004	...........
	5	1.55	9.05463E-003	1.00357E-002	5.61899E-004	...........
	6	1.80833	9.36927E-003	1.03378E-002	5.69666E-004	...........
	7	2.06667	9.68989E-003	1.06261E-002	5.68832E-004	...........
	8	2.325	1.00033E-002	1.09103E-002	5.67532E-004	...........
	9	2.58333	1.03059E-002	1.11827E-002	5.62399E-004	...........
	10	2.84167	1.05983E-002	1.14506E-002	5.63366E-004	...........
	11	3.1	1.08816E-002	1.17080E-002	5.59932E-004	...........
	12	3.35833	1.11565E-002	1.19618E-002	5.64399E-004	...........
	13	3.61667	1.14238E-002	1.22081E-002	5.68799E-004	...........
	14	3.875	1.16838E-002	1.24479E-002	5.64966E-004	...........
	15	4.13333	1.19372E-002	1.26825E-002	5.62899E-004	...........
	16	4.39167	1.21843E-002	1.29133E-002	5.63399E-004	...........
	17	4.65	1.24254E-002	1.31416E-002	5.72266E-004	...........
	18	4.90833	1.26614E-002	1.33628E-002	5.69266E-004	...........
EOC	QUANT	0.0126614	Open Circuit (V)
PSTATMODEL	IQUANT	4	Pstat Model
PSTATSECTION	LABEL	REF600-11020	Pstat Section
PSTATSERIALNO	LABEL	11020	Pstat Serial Number
CTRLMODE	IQUANT	1	Control Mode
IESTAB	IQUANT	0	I/E Stability
CASPEED	IQUANT	1	Control Amp Speed
CONVENTION	IQUANT	1	Current Convention
ICHRANGE	IQUANT	2	Ich Range
ICHRANGEMODE	TOGGLE	F	Ich Auto Range
ICHOFFSETENABLE	TOGGLE	T	Ich Offset Enable
ICHOFFSET	QUANT	0	Ich Offset (V)
ICHFILTER	IQUANT	3	Ich Filter
VCHRANGE	IQUANT	2	Vch Range
VCHRANGEMODE	TOGGLE	F	Vch Auto Range
VCHOFFSETENABLE	TOGGLE	T	Vch Offset Enable
VCHOFFSET	QUANT	0	Vch Offset (V)
VCHFILTER	IQUANT	3	Vch Filter
ACHRANGE	IQUANT	2	Ach Range
ACHOFFSETENABLE	TOGGLE	F	Ach Offset Enable
ACHOFFSET	QUANT	0	Ach Offset (V)
ACHFILTER	IQUANT	3	Ach Filter
IERANGELOWERLIMIT	IQUANT	1	I/E Range Lower Limit
IERANGEMODE	TOGGLE	F	I/E AutoRange
IERANGE	IQUANT	5	I/E Range
POSFEEDENABLE	TOGGLE	F	Positive Feedback IR Comp
POSFEEDRESISTANCE	QUANT	0	Positive Feedback Resistance (ohm)
ACHSELECT	IQUANT	0	Ach Select
CABLEID	IQUANT	14	Cable ID
DCCALDATE	LABEL	8/19/2019	DC Calibration Date
ACCALDATE	LABEL	8/19/2019	AC Calibration Date
THERMOSELECT	IQUANT	1	Thermo Select
FRAMEWORKVERSION	QUANT	6.33	Framework Version
INSTRUMENTVERSION	LABEL	3.50	Instrument Version
ZCURVE	TABLE
	Pt	Time	Freq	Zreal	Zimag	Zsig	Zmod	Zphz	Idc	Vdc	IERange
	#	s	Hz	ohm	ohm	V	ohm	°	A	V	#
	0	2	1000078	2069.978	-1211.931	1	2398.663	-30.34813	-4.941113E-006	0.0155703	8
	1	3	794390.6	2299.324	-1150.414	1	2571.059	-26.58005	1.316837E-007	0.0151281	8
	2	4	630984.4	2496.314	-1072.732	1	2717.046	-23.25447	-7.481725E-007	0.0141901	8
	3	6	501234.4	2669.358	-978.097	1	2842.912	-20.12368	-5.641442E-007	0.0141193	8
	4	7	398109.4	2816.567	-878.8447	1	2950.495	-17.32932	-7.155078E-007	0.0147538	8
	5	8	316265.6	2931.699	-784.6339	1	3034.882	-14.98336	-1.429193E-006	0.014122	8
	6	10	251203.1	3029.473	-694.6344	1	3108.09	-12.91424	3.62266E-006	0.014254	8
	7	11	199546.9	3117.627	-610.7772	1	3176.893	-11.08448	-3.166185E-007	0.0140739	8
	8	12	158578.1	3174.77	-537.5699	1	3219.96	-9.61049	-7.112689E-007	0.0146882	8
	9	14	125953.1	3257.961	-441.4683	1	3287.735	-7.716833	1.774825E-006	0.0143216	7
	10	15	100078.1	3282.832	-384.6873	1	3305.294	-6.683527	-9.551278E-007	0.0156934	7
	11	17	79453.13	3318.232	-352.6947	1	3336.923	-6.067186	8.806708E-007	0.0136513	7
	12	18	63140.62	3349.221	-325.6965	1	3365.02	-5.554289	-1.063207E-006	0.0152297	7
	13	19	50203.12	3378.799	-308.6165	1	3392.865	-5.218863	-2.523398E-007	0.0154534	7
	14	21	39890.62	3405.984	-297.595	1	3418.96	-4.993489	9.769067E-008	0.013093	7
	15	22	31640.63	3433.215	-293.5195	1	3445.739	-4.886568	3.462448E-007	0.0147185	7
	16	23	25171.88	3457.937	-295.5198	1	3470.542	-4.884704	-5.388226E-007	0.0156586	7
	17	25	20015.62	3482.693	-309.9254	1	3496.456	-5.085364	-1.068901E-006	0.0155434	7
	18	26	15890.62	3509.34	-322.7833	1	3524.153	-5.255185	-1.064566E-006	0.0152207	7
	19	27	12609.37	3538.995	-347.1031	1	3555.976	-5.601629	9.894548E-008	0.0130883	7
	20	29	10078.13	3567.677	-381.2077	1	3587.985	-6.098938	6.880855E-008	0.0150936	7
	21	30	8015.625	3600.088	-423.1975	1	3624.876	-6.704464	4.177343E-007	0.0128258	7
	22	32	6328.125	3629.749	-482.5409	1	3661.683	-7.572532	9.85595E-008	0.0130826	7
	23	33	5015.625	3665.885	-554.2432	1	3707.546	-8.597406	5.379006E-007	0.0144363	7
	24	34	3984.375	3704.05	-642.8843	1	3759.427	-9.84631	-1.069561E-006	0.0155403	7
	25	36	3170.956	3742.396	-749.9747	1	3816.804	-11.33194	-1.070076E-006	0.0155433	7
	26	37	2527.573	3790.934	-883.251	1	3892.469	-13.11538	9.564765E-007	0.013276	7
	27	38	1976.103	3846.188	-1060.623	1	3989.747	-15.4167	7.281766E-007	0.0140639	7
	28	40	1577.524	3885.373	-1268.681	1	4087.257	-18.08329	-2.692453E-007	0.0135342	7
	29	41	1265.625	3964.73	-1500.897	1	4239.313	-20.73477	4.190047E-007	0.0128309	7
	30	43	998.264	4040.994	-1817.241	1	4430.801	-24.21351	6.857105E-008	0.0150958	7
	31	44	796.875	4130.08	-2190.078	1	4674.827	-27.93589	6.954461E-008	0.0150973	7
	32	45	627.7902	4238.84	-2672.002	1	5010.725	-32.22576	-6.35676E-007	0.0141331	7
	33	47	505.5147	4358.692	-3222.483	1	5420.572	-36.47638	8.851245E-007	0.013632	7
	34	48	397.9953	4522.985	-3949.025	1	6004.348	-41.12426	2.124747E-009	0.0142966	7
	35	49	315.5048	4720.592	-4826.363	1	6751.131	-45.63475	5.342411E-009	0.0142902	7
	36	51	252.4038	4960.602	-5858.068	1	7676.231	-49.74213	1.824395E-009	0.0142848	7
	37	52	198.6229	5289.823	-7214.535	1	8946.047	-53.75048	3.797724E-009	0.0142855	7
	38	53	158.3615	5695.169	-8781.099	1	10466.26	-57.03371	1.02253E-009	0.0142202	6
	39	55	125.558	6232.065	-10729.34	1	12407.96	-59.85012	1.054221E-009	0.0142273	6
	40	56	100.4464	6906.549	-12991.7	1	14713.42	-62.00434	-1.996705E-010	0.0142164	6
	41	58	79.00281	7839.334	-15949.72	1	17772.13	-63.82574	-1.519869E-010	0.0142244	6
	42	59	63.3446	8894.769	-19133.62	1	21100.06	-65.0674	4.617319E-010	0.0142128	6
	43	60	49.86702	10641.97	-23325.18	1	25638.16	-65.47546	6.611157E-010	0.0142124	6
	44	62	39.72458	12555.61	-28013.37	1	30698.4	-65.85805	1.189679E-009	0.01422	6
	45	63	31.6723	15027.71	-33501.79	1	36717.87	-65.84069	8.265233E-010	0.0142132	6
	46	65	24.93351	18412.32	-40160.26	1	44179.86	-65.36991	3.269964E-010	0.014207	6
	47	66	19.86229	22441.98	-47447.66	1	52487.36	-64.6866	1.601454E-009	0.0142181	6
	48	67	15.83615	27319.85	-56018.57	1	62325.39	-64.00184	2.899276E-009	0.0142155	6
	49	69	12.40079	33858.32	-66102.45	1	74269.24	-62.87803	1.389584E-009	0.01423	6
	50	70	9.93114	40707.58	-76430.33	1	86595.05	-61.95978	-5.967647E-010	0.0142297	6
	51	72	7.944915	48842.6	-88027.8	1	100670.2	-60.97611	8.892651E-010	0.0142155	6
	52	73	6.317385	58522.51	-101437.7	1	117108.9	-60.01804	-8.962105E-012	0.0142442	5
	53	75	5.008013	69730.57	-116677.5	1	135926.4	-59.13598	6.214722E-011	0.0142297	5
	54	78	3.945707	82455.41	-134249	1	157549	-58.44186	1.075165E-010	0.0142281	5
	55	80	3.158693	95747.3	-152999.7	1	180489.5	-57.96164	-3.934855E-010	0.014225	5
	56	84	2.504006	110398.2	-175361.7	1	207218.5	-57.80772	1.442517E-010	0.0142117	5
	57	86	1.998082	125430.2	-200692.8	1	236665.1	-57.9952	-2.918405E-010	0.0142673	5
	58	90	1.584686	141183.4	-232234	1	271781.8	-58.70308	-1.310941E-010	0.01424	5
	59	93	1.266892	158674.6	-269228.5	1	312508.6	-59.48627	-2.079025E-010	0.0142691	5
	60	98	0.999041	178335.1	-317013.7	1	363732.1	-60.6402	-2.952445E-010	0.0141855	5
