EXPLAIN
TAG	EISPOT
TITLE	LABEL	Potentiostatic EIS	Test &Identifier
DATE	LABEL	6/20/2000	Date
TIME	LABEL	9:11:04	Time
NOTES	NOTES	2	&Notes...
	
	
PSTAT	PSTAT	REF600-11020	Potentiostat
VDC	POTEN	0.00000E+000	T	DC &Voltage (V)
FREQINIT	QUANT	1.00000E+006	Initial Fre&q. (Hz)
FREQFINAL	QUANT	1.00000E+000	Final Fre&q. (Hz)
PTSPERDEC	QUANT	1.00000E+001	Points/&decade
VAC	QUANT	2.50000E+001	AC &Voltage (mV rms)
AREA	QUANT	1.00000E-002	&Area (cm^2)
CONDIT	TWOPARAM	T	5.00000E+000	0.00000E+000	Conditionin&g	Time(s)	E(V)
DELAY	TWOPARAM	T	5.00000E+000	0.00000E+000	Init. De&lay	Time(s)	Stab.(mV/s)
SPEED	SELECTOR	0	&Optimize for:
ZGUESS	QUANT	1.00000E+005	E&stimated Z (ohms)
OCVCURVE	TABLE	19
	Pt	T	Vf	Vm	Ach	Over
	#	s	V vs. Ref.	V	V	bits
	0	0.258333	6.01930E-003	6.01930E-003	5.55333E-004	...........
	1	0.516667	6.01935E-003	6.02210E-003	5.50266E-004	...........
	2	0.775	6.01994E-003	6.03858E-003	5.52199E-004	...........
	3	1.03333	6.02252E-003	6.05546E-003	5.48366E-004	...........
	4	1.29167	6.02903E-003	6.07775E-003	5.51033E-004	...........
	5	1.55	6.04072E-003	6.10670E-003	5.43699E-004	...........
	6	1.80833	6.05788E-003	6.14135E-003	5.51699E-004	...........
	7	2.06667	6.08040E-003	6.17237E-003	5.54733E-004	...........
	8	2.325	6.10745E-003	6.19953E-003	5.52999E-004	...........
	9	2.58333	6.13736E-003	6.23810E-003	5.59199E-004	...........
	10	2.84167	6.16880E-003	6.27682E-003	5.56233E-004	...........
	11	3.1	6.20173E-003	6.31025E-003	5.54633E-004	...........
	12	3.35833	6.23626E-003	6.34399E-003	5.56199E-004	...........
	13	3.61667	6.27162E-003	6.37890E-003	5.58766E-004	...........
	14	3.875	6.30684E-003	6.41302E-003	5.57933E-004	...........
	15	4.13333	6.34156E-003	6.44431E-003	5.54533E-004	...........
	16	4.39167	6.37567E-003	6.47567E-003	5.49333E-004	...........
	17	4.65	6.40895E-003	6.50532E-003	5.56233E-004	...........
	18	4.90833	6.44130E-003	6.54036E-003	5.50166E-004	...........
EOC	QUANT	0.0064413	Open Circuit (V)
PSTATMODEL	IQUANT	4	Pstat Model
PSTATSECTION	LABEL	REF600-11020	Pstat Section
PSTATSERIALNO	LABEL	11020	Pstat Serial Number
CTRLMODE	IQUANT	1	Control Mode
IESTAB	IQUANT	0	I/E Stability
CASPEED	IQUANT	1	Control Amp Speed
CONVENTION	IQUANT	1	Current Convention
ICHRANGE	IQUANT	2	Ich Range
ICHRANGEMODE	TOGGLE	F	Ich Auto Range
ICHOFFSETENABLE	TOGGLE	T	Ich Offset Enable
ICHOFFSET	QUANT	0	Ich Offset (V)
ICHFILTER	IQUANT	3	Ich Filter
VCHRANGE	IQUANT	2	Vch Range
VCHRANGEMODE	TOGGLE	F	Vch Auto Range
VCHOFFSETENABLE	TOGGLE	T	Vch Offset Enable
VCHOFFSET	QUANT	0	Vch Offset (V)
VCHFILTER	IQUANT	3	Vch Filter
ACHRANGE	IQUANT	2	Ach Range
ACHOFFSETENABLE	TOGGLE	F	Ach Offset Enable
ACHOFFSET	QUANT	0	Ach Offset (V)
ACHFILTER	IQUANT	3	Ach Filter
IERANGELOWERLIMIT	IQUANT	1	I/E Range Lower Limit
IERANGEMODE	TOGGLE	F	I/E AutoRange
IERANGE	IQUANT	5	I/E Range
POSFEEDENABLE	TOGGLE	F	Positive Feedback IR Comp
POSFEEDRESISTANCE	QUANT	0	Positive Feedback Resistance (ohm)
ACHSELECT	IQUANT	0	Ach Select
CABLEID	IQUANT	14	Cable ID
DCCALDATE	LABEL	8/19/2019	DC Calibration Date
ACCALDATE	LABEL	8/19/2019	AC Calibration Date
THERMOSELECT	IQUANT	1	Thermo Select
FRAMEWORKVERSION	QUANT	6.33	Framework Version
INSTRUMENTVERSION	LABEL	3.50	Instrument Version
ZCURVE	TABLE
	Pt	Time	Freq	Zreal	Zimag	Zsig	Zmod	Zphz	Idc	Vdc	IERange
	#	s	Hz	ohm	ohm	V	ohm	°	A	V	#
	0	2	1000078	1976.007	-1348.283	1	2392.168	-34.30677	7.993702E-006	0.007011	8
	1	2	794390.6	2235.451	-1327.885	1	2600.1	-30.71083	2.702461E-006	0.0084085	8
	2	2	630984.4	2486.897	-1261.314	1	2788.471	-26.8934	2.225273E-006	0.0076651	8
	3	3	501234.4	2722.902	-1163.357	1	2961.012	-23.13454	-6.908591E-007	0.0079062	8
	4	3	398109.4	2917.337	-1044.207	1	3098.584	-19.69389	-2.289191E-006	0.0083232	8
	5	3	316265.6	3069.158	-923.6871	1	3205.141	-16.74958	-6.097936E-007	0.0078056	8
	6	4	251203.1	3194.569	-808.1302	1	3295.201	-14.19629	6.433339E-006	0.0069069	8
	7	4	199546.9	3287.381	-675.8215	1	3356.13	-11.61704	-4.668332E-007	0.0078336	8
	8	4	158578.1	3347.343	-595.6165	1	3399.921	-10.08945	-1.680809E-006	0.0078758	8
	9	4	125953.1	3424.406	-455.7663	1	3454.602	-7.581144	-2.51038E-006	0.0117726	7
	10	5	100078.1	3458.392	-388.3305	1	3480.126	-6.406703	-3.039203E-007	0.0095058	7
	11	5	79453.13	3491.665	-348.5729	1	3509.021	-5.700949	7.859274E-008	0.0090826	7
	12	5	63140.62	3512.638	-308.0209	1	3526.117	-5.01141	-1.113593E-006	0.0086286	7
	13	6	50203.12	3544.483	-282.6668	1	3555.736	-4.559596	1.142574E-006	0.006513	7
	14	6	39890.62	3549.274	-263.3487	1	3559.031	-4.243451	-1.16144E-006	0.0097773	7
	15	6	31640.63	3565.43	-253.3843	1	3574.422	-4.065003	-1.113871E-006	0.0086152	7
	16	7	25171.88	3591.533	-253.8048	1	3600.49	-4.042232	1.028961E-006	0.0062722	7
	17	7	20015.62	3599.815	-262.2432	1	3609.355	-4.166584	5.054181E-007	0.0063008	7
	18	7	15890.62	3617.186	-283.0185	1	3628.241	-4.473863	8.832586E-007	0.0078199	7
	19	8	12609.37	3620.997	-312.7611	1	3634.479	-4.936631	-6.528007E-007	0.0097482	7
	20	8	10078.13	3639.175	-345.323	1	3655.522	-5.420593	-3.032343E-007	0.009487	7
	21	8	8015.625	3660.321	-407.4562	1	3682.93	-6.351849	8.145633E-007	0.0061879	7
	22	9	6328.125	3673.835	-485.6375	1	3705.794	-7.530167	4.177483E-007	0.0086076	7
	23	9	5015.625	3694.063	-581.4573	1	3739.545	-8.945145	4.174233E-007	0.0086029	7
	24	9	3984.375	3711.575	-695.8474	1	3776.241	-10.61857	-6.531773E-007	0.009742	7
	25	10	3170.956	3744.268	-845.5422	1	3838.553	-12.72526	7.984762E-008	0.009067	7
	26	10	2527.573	3778.141	-1026.815	1	3915.188	-15.20447	1.14718E-007	0.0066087	7
	27	10	1976.103	3822.782	-1275.423	1	4029.934	-18.45063	4.175233E-007	0.0086022	7
	28	11	1577.524	3872.711	-1550.793	1	4171.673	-21.82319	-3.305318E-007	0.007162	7
	29	11	1265.625	3936.973	-1885.771	1	4365.305	-25.59395	1.144586E-007	0.0066116	7
	30	11	998.264	4020.175	-2327.693	1	4645.424	-30.07097	7.778759E-008	0.0090629	7
	31	12	796.875	4121.048	-2833.636	1	5001.253	-34.51245	-1.162048E-006	0.0097712	7
	32	12	627.7902	4273.306	-3530.931	1	5543.34	-39.56612	1.166429E-006	0.0068488	7
	33	12	505.5147	4445.225	-4263.228	1	6159.151	-43.80276	1.169276E-007	0.0066093	7
	34	12	397.9953	4685.571	-5262.255	1	7045.985	-48.31777	1.163567E-009	0.008081	7
	35	13	315.5048	4999.897	-6448.132	1	8159.496	-52.20992	-1.371655E-009	0.008084	7
	36	13	252.4038	5396.863	-7825.204	1	9505.78	-55.40686	2.649711E-009	0.0080732	7
	37	13	198.6229	5961.693	-9606.2	1	11305.79	-58.1759	4.829469E-010	0.008011	6
	38	14	158.3615	6666.493	-11627.86	1	13403.33	-60.17346	1.298285E-010	0.0080172	6
	39	14	125.558	7600.406	-14083.52	1	16003.49	-61.64574	7.488327E-010	0.0080072	6
	40	14	100.4464	8781.689	-16859.47	1	19009.47	-62.48608	-4.648968E-010	0.008011	6
	41	15	79.00281	10379.01	-20370.49	1	22862.21	-63.00061	-4.460399E-010	0.008	6
	42	15	63.3446	12172.31	-23857.89	1	26783.65	-62.9693	5.604693E-010	0.0080001	6
	43	15	49.86702	14709.76	-28443.29	1	32021.83	-62.65376	8.767518E-010	0.0079983	6
	44	16	39.72458	17518.98	-33517.12	1	37819.46	-62.4045	3.880188E-010	0.0080164	6
	45	16	31.6723	20849.75	-39155.81	1	44360.9	-61.96552	1.220322E-009	0.0080012	6
	46	16	24.93351	24850.8	-45773.4	1	52084.23	-61.50206	2.469826E-010	0.0080047	6
	47	17	19.86229	29028.07	-53074.28	1	60493.87	-61.3243	1.496363E-009	0.0080101	6
	48	17	15.83615	33828.52	-61865.35	1	70510.21	-61.32977	-1.273855E-009	0.0080115	6
	49	17	12.40079	39214.96	-73000.94	1	82867.06	-61.75601	-3.56236E-010	0.0080118	6
	50	18	9.93114	45308.25	-84435.57	1	95823.8	-61.78193	-8.563824E-010	0.0080021	6
	51	18	7.944915	51887.56	-98438.5	1	111276.5	-62.206	-5.031998E-010	0.0080034	5
	52	19	6.317385	59782.39	-115849.4	1	130364.9	-62.70465	-1.42208E-010	0.0080102	5
	53	20	5.008013	69219.73	-137097.7	1	153581.1	-63.21109	-3.124915E-010	0.0080016	5
	54	21	3.945707	80820.66	-162567.2	1	181549.1	-63.56563	-3.938435E-011	0.0080158	5
	55	22	3.158693	94010.4	-191926.5	1	213714.1	-63.90323	-2.537234E-010	0.0080207	5
	56	23	2.504006	110110.2	-227532.5	1	252775.2	-64.17619	-2.159636E-010	0.0080051	5
	57	25	1.998082	129104.7	-267876	1	297364.3	-64.26794	1.141014E-010	0.0080475	5
	58	26	1.584686	151145.2	-316918.3	1	351115.5	-64.50252	1.356408E-011	0.0080326	5
	59	28	1.266892	177392.1	-371817.5	1	411966.3	-64.49444	-6.800008E-011	0.0079928	5
	60	31	0.999041	210584.7	-441457.4	1	489112	-64.49786	-9.339494E-011	0.0079703	5
