EXPLAIN
TAG	EISPOT
TITLE	LABEL	Potentiostatic EIS	Test &Identifier
DATE	LABEL	9/20/2019	Date
TIME	LABEL	11:30:23	Time
NOTES	NOTES	1	&Notes...
	
PSTAT	PSTAT	REF600-11020	Potentiostat
VDC	POTEN	0.00000E+000	T	DC &Voltage (V)
FREQINIT	QUANT	1.00000E+006	Initial Fre&q. (Hz)
FREQFINAL	QUANT	1.00000E+000	Final Fre&q. (Hz)
PTSPERDEC	QUANT	1.00000E+001	Points/&decade
VAC	QUANT	2.50000E+001	AC &Voltage (mV rms)
AREA	QUANT	1.00000E-002	&Area (cm^2)
CONDIT	TWOPARAM	T	5.00000E+000	0.00000E+000	Conditionin&g	Time(s)	E(V)
DELAY	TWOPARAM	T	5.00000E+000	0.00000E+000	Init. De&lay	Time(s)	Stab.(mV/s)
SPEED	SELECTOR	1	&Optimize for:
ZGUESS	QUANT	1.00000E+004	E&stimated Z (ohms)
OCVCURVE	TABLE	19
	Pt	T	Vf	Vm	Ach	Over
	#	s	V vs. Ref.	V	V	bits
	0	0.258333	-1.59496E-003	-1.59496E-003	5.72766E-004	...........
	1	0.516667	-1.60483E-003	-2.11134E-003	5.69699E-004	...........
	2	0.775	-1.66488E-003	-2.57364E-003	5.66466E-004	...........
	3	1.03333	-1.83268E-003	-2.99787E-003	5.75866E-004	...........
	4	1.29167	-2.12758E-003	-3.38648E-003	5.77666E-004	...........
	5	1.55	-2.51024E-003	-3.73700E-003	5.76099E-004	...........
	6	1.80833	-2.92116E-003	-4.06731E-003	5.74899E-004	...........
	7	2.06667	-3.31880E-003	-4.37330E-003	5.73266E-004	...........
	8	2.325	-3.68564E-003	-4.60153E-003	5.75099E-004	...........
	9	2.58333	-4.01754E-003	-4.88377E-003	5.75766E-004	...........
	10	2.84167	-4.31881E-003	-5.21359E-003	5.72466E-004	...........
	11	3.1	-4.60060E-003	-5.33381E-003	5.73232E-004	...........
	12	3.35833	-4.86953E-003	-5.65032E-003	5.75032E-004	...........
	13	3.61667	-5.12525E-003	-5.88614E-003	5.72866E-004	...........
	14	3.875	-5.37296E-003	-6.16769E-003	5.68766E-004	...........
	15	4.13333	-5.62207E-003	-6.39280E-003	5.71099E-004	...........
	16	4.39167	-5.87306E-003	-6.54154E-003	5.71232E-004	...........
	17	4.65	-6.11721E-003	-6.86334E-003	5.70566E-004	...........
	18	4.90833	-6.34939E-003	-6.97315E-003	5.73699E-004	...........
EOC	QUANT	-0.0063494	Open Circuit (V)
PSTATMODEL	IQUANT	4	Pstat Model
PSTATSECTION	LABEL	REF600-11020	Pstat Section
PSTATSERIALNO	LABEL	11020	Pstat Serial Number
CTRLMODE	IQUANT	1	Control Mode
IESTAB	IQUANT	0	I/E Stability
CASPEED	IQUANT	1	Control Amp Speed
CONVENTION	IQUANT	1	Current Convention
ICHRANGE	IQUANT	2	Ich Range
ICHRANGEMODE	TOGGLE	F	Ich Auto Range
ICHOFFSETENABLE	TOGGLE	T	Ich Offset Enable
ICHOFFSET	QUANT	0	Ich Offset (V)
ICHFILTER	IQUANT	3	Ich Filter
VCHRANGE	IQUANT	2	Vch Range
VCHRANGEMODE	TOGGLE	F	Vch Auto Range
VCHOFFSETENABLE	TOGGLE	T	Vch Offset Enable
VCHOFFSET	QUANT	0	Vch Offset (V)
VCHFILTER	IQUANT	3	Vch Filter
ACHRANGE	IQUANT	2	Ach Range
ACHOFFSETENABLE	TOGGLE	F	Ach Offset Enable
ACHOFFSET	QUANT	0	Ach Offset (V)
ACHFILTER	IQUANT	3	Ach Filter
IERANGELOWERLIMIT	IQUANT	1	I/E Range Lower Limit
IERANGEMODE	TOGGLE	F	I/E AutoRange
IERANGE	IQUANT	6	I/E Range
POSFEEDENABLE	TOGGLE	F	Positive Feedback IR Comp
POSFEEDRESISTANCE	QUANT	0	Positive Feedback Resistance (ohm)
ACHSELECT	IQUANT	0	Ach Select
CABLEID	IQUANT	14	Cable ID
DCCALDATE	LABEL	8/19/2019	DC Calibration Date
ACCALDATE	LABEL	8/19/2019	AC Calibration Date
THERMOSELECT	IQUANT	1	Thermo Select
FRAMEWORKVERSION	QUANT	6.33	Framework Version
INSTRUMENTVERSION	LABEL	3.50	Instrument Version
ZCURVE	TABLE
	Pt	Time	Freq	Zreal	Zimag	Zsig	Zmod	Zphz	Idc	Vdc	IERange
	#	s	Hz	ohm	ohm	V	ohm	°	A	V	#
	0	2	1000078	2354.765	-2046.252	1	3119.626	-40.9901	2.377807E-007	-0.0035818	8
	1	3	794390.6	2780.357	-2055.807	1	3457.85	-36.47936	1.069407E-006	-0.00421	8
	2	5	630984.4	3193.248	-1973.574	1	3753.908	-31.71797	5.500521E-006	-0.0055483	8
	3	7	501234.4	3563.196	-1852.329	1	4015.905	-27.46769	2.598843E-007	-0.0047423	8
	4	8	398109.4	3867.897	-1688.652	1	4220.447	-23.58519	3.766996E-006	-0.0053096	8
	5	9	316265.6	4156.251	-1514.605	1	4423.625	-20.02256	6.500978E-007	-0.0045961	8
	6	11	251203.1	4343.513	-1325.598	1	4541.29	-16.97168	8.313704E-007	-0.004613	8
	7	13	199546.9	4490.01	-1171.683	1	4640.37	-14.62537	2.335358E-006	-0.0051823	8
	8	14	158578.1	4617.099	-1028.083	1	4730.175	-12.55318	3.23431E-006	-0.0053423	8
	9	15	125953.1	4753.636	-851.2933	1	4829.26	-10.15305	-4.267641E-007	-0.0041713	7
	10	17	100078.1	4821.772	-758.0383	1	4880.995	-8.934432	-4.154472E-009	-0.0046921	7
	11	18	79453.13	4885.955	-692.9459	1	4934.848	-8.072086	-1.315257E-008	-0.0045611	7
	12	19	63140.62	4943.564	-648.97	1	4985.979	-7.47878	1.466996E-008	-0.0047908	7
	13	21	50203.12	4994.152	-620.2195	1	5032.517	-7.079268	-3.868264E-008	-0.0047041	7
	14	22	39890.62	5046.927	-610.6049	1	5083.73	-6.898429	-5.043892E-008	-0.004685	7
	15	23	31640.63	5099.038	-614.6489	1	5135.95	-6.873393	-3.256617E-008	-0.0047069	7
	16	25	25171.88	5153.039	-634.6393	1	5191.973	-7.021092	-4.732286E-008	-0.0046188	7
	17	26	20015.62	5210.83	-666.9779	1	5253.342	-7.294106	-3.221144E-008	-0.0047116	7
	18	28	15890.62	5272.535	-715.4943	1	5320.86	-7.727954	-3.987497E-008	-0.0047041	7
	19	29	12609.37	5340.79	-780.321	1	5397.494	-8.312437	9.045215E-008	-0.0049083	7
	20	30	10078.13	5409.707	-859.6592	1	5477.585	-9.029402	9.194299E-008	-0.004908	7
	21	32	8015.625	5489.317	-958.026	1	5572.29	-9.89986	-4.532104E-008	-0.0046264	7
	22	33	6328.125	5573.923	-1081.893	1	5677.949	-10.98447	4.745567E-008	-0.0048743	7
	23	34	5015.625	5668.159	-1231.583	1	5800.416	-12.25874	-4.85324E-008	-0.004698	7
	24	36	3984.375	5769.256	-1410.466	1	5939.169	-13.73818	4.462872E-008	-0.0047759	7
	25	37	3170.956	5876.144	-1626.946	1	6097.214	-15.47598	-9.247058E-009	-0.0047719	7
	26	38	2527.573	5993.07	-1886.94	1	6283.106	-17.4768	4.491389E-008	-0.0048711	7
	27	40	1976.103	6135.493	-2233.839	1	6529.496	-20.00579	-1.739695E-008	-0.0046735	7
	28	41	1577.524	6280.185	-2619.943	1	6804.764	-22.64473	-2.008292E-008	-0.0047545	7
	29	42	1265.625	6429.299	-3085.709	1	7131.444	-25.63844	-8.09495E-008	-0.0045987	7
	30	44	998.264	6628.635	-3681.308	1	7582.271	-29.04624	9.635869E-008	-0.0047753	7
	31	45	796.875	6835.467	-4370.438	1	8113.22	-32.5939	9.134055E-008	-0.0049117	7
	32	46	627.7902	7084.066	-5274.499	1	8832.007	-36.66983	-1.902596E-008	-0.004751	7
	33	48	505.5147	7342.142	-6269.46	1	9654.7	-40.49404	-2.853396E-009	-0.0046558	6
	34	49	397.9953	7666.167	-7621.068	1	10809.75	-44.83097	9.194528E-010	-0.0047638	6
	35	50	315.5048	8031.792	-9238.521	1	12241.73	-48.99693	1.432457E-009	-0.0047707	6
	36	52	252.4038	8441.22	-11149.48	1	13984.46	-52.8708	1.433125E-009	-0.0047695	6
	37	53	198.6229	8963.795	-13680.5	1	16355.6	-56.76621	1.343069E-009	-0.0047626	6
	38	54	158.3615	9564.79	-16641.55	1	19194.44	-60.11171	1.461018E-009	-0.0047689	6
	39	56	125.558	10324.86	-20372.24	1	22839.24	-63.12364	1.060655E-009	-0.0047715	6
	40	57	100.4464	11245.69	-24770.68	1	27203.9	-65.58232	1.704315E-009	-0.0047736	6
	41	59	79.00281	12482.52	-30615.76	1	33062.64	-67.81852	1.428385E-009	-0.0047758	6
	42	60	63.3446	14134.73	-37475.98	1	40052.96	-69.33514	8.414355E-010	-0.0047721	6
	43	61	49.86702	16036.09	-45920.56	1	48640.04	-70.7501	1.005284E-009	-0.0047776	6
	44	63	39.72458	19015.71	-56004.58	1	59144.83	-71.24567	9.103496E-010	-0.0047784	6
	45	64	31.6723	22652.32	-68128.01	1	71795.22	-71.60822	8.246279E-010	-0.0047805	6
	46	65	24.93351	27582.05	-83559.41	1	87994	-71.73251	6.3045E-010	-0.0047783	6
	47	67	19.86229	33885.12	-101117.3	1	106643.8	-71.47363	1.160066E-009	-0.0047685	5
	48	68	15.83615	43137	-121608.4	1	129032.6	-70.46936	-2.996023E-010	-0.0047738	5
	49	69	12.40079	54002.03	-149189.7	1	158662.5	-70.10133	1.346864E-009	-0.0047695	5
	50	71	9.93114	67858.2	-176519.3	1	189113.1	-68.97205	8.682907E-010	-0.0047729	5
	51	72	7.944915	84974.09	-209154.2	1	225756.6	-67.88933	4.70096E-010	-0.0047755	5
	52	74	6.317385	107885.3	-246909.9	1	269450.8	-66.39746	6.611522E-010	-0.004782	5
	53	76	5.008013	137124.3	-290692.1	1	321410.9	-64.74597	2.593292E-010	-0.0047745	5
	54	79	3.945707	174072	-340334.4	1	382267.7	-62.91146	3.477665E-010	-0.0047781	5
	55	81	3.158693	216056.4	-390805.9	1	446553	-61.06406	2.207547E-010	-0.0047829	5
	56	85	2.504006	267613.9	-447672.1	1	521562.6	-59.12944	5.899312E-010	-0.004763	5
	57	87	1.998082	325246.3	-505240.9	1	600877.3	-57.22879	8.90043E-010	-0.0047549	5
	58	90	1.584686	393413.1	-567571.4	1	690587.6	-55.27216	3.841716E-010	-0.0048185	5
	59	94	1.266892	463516	-633862.8	1	785257.4	-53.82364	5.032239E-010	-0.0047506	5
	60	98	0.999041	548677.4	-705439.3	1	893695.4	-52.12489	1.798328E-010	-0.0048111	5
