EXPLAIN
TAG	EISPOT
TITLE	LABEL	Potentiostatic EIS	Test &Identifier
DATE	LABEL	10/24/2019	Date
TIME	LABEL	10:20:51	Time
NOTES	NOTES	1	&Notes...
	
PSTAT	PSTAT	REF600-11020	Potentiostat
VDC	POTEN	0.00000E+000	T	DC &Voltage (V)
FREQINIT	QUANT	1.00000E+006	Initial Fre&q. (Hz)
FREQFINAL	QUANT	1.00000E+000	Final Fre&q. (Hz)
PTSPERDEC	QUANT	1.00000E+001	Points/&decade
VAC	QUANT	2.50000E+001	AC &Voltage (mV rms)
AREA	QUANT	1.00000E-002	&Area (cm^2)
CONDIT	TWOPARAM	T	5.00000E+000	0.00000E+000	Conditionin&g	Time(s)	E(V)
DELAY	TWOPARAM	T	5.00000E+000	0.00000E+000	Init. De&lay	Time(s)	Stab.(mV/s)
SPEED	SELECTOR	1	&Optimize for:
ZGUESS	QUANT	1.00000E+005	E&stimated Z (ohms)
OCVCURVE	TABLE	19
	Pt	T	Vf	Vm	Ach	Over
	#	s	V vs. Ref.	V	V	bits
	0	0.258333	4.61163E-003	4.61163E-003	5.55433E-004	...........
	1	0.516667	4.61014E-003	4.53369E-003	5.57266E-004	...........
	2	0.775	4.60663E-003	4.75469E-003	5.51533E-004	...........
	3	1.03333	4.60417E-003	4.37766E-003	5.54333E-004	...........
	4	1.29167	4.59323E-003	4.34637E-003	5.57432E-004	...........
	5	1.55	4.55032E-003	4.31092E-003	5.56966E-004	...........
	6	1.80833	4.47450E-003	4.28195E-003	5.60432E-004	...........
	7	2.06667	4.39403E-003	4.26434E-003	5.58099E-004	...........
	8	2.325	4.33191E-003	4.24492E-003	5.53899E-004	...........
	9	2.58333	4.29116E-003	4.22629E-003	5.49999E-004	...........
	10	2.84167	4.26504E-003	4.22770E-003	5.49866E-004	...........
	11	3.1	4.24759E-003	4.23618E-003	5.47333E-004	...........
	12	3.35833	4.23718E-003	4.24562E-003	5.50899E-004	...........
	13	3.61667	4.23409E-003	4.25606E-003	5.54199E-004	...........
	14	3.875	4.23751E-003	4.27016E-003	5.56799E-004	...........
	15	4.13333	4.24557E-003	4.28418E-003	5.57766E-004	...........
	16	4.39167	4.25630E-003	4.28436E-003	5.57066E-004	...........
	17	4.65	4.26768E-003	4.29922E-003	5.56799E-004	...........
	18	4.90833	4.27741E-003	4.26346E-003	5.58899E-004	...........
EOC	QUANT	0.0042774	Open Circuit (V)
PSTATMODEL	IQUANT	4	Pstat Model
PSTATSECTION	LABEL	REF600-11020	Pstat Section
PSTATSERIALNO	LABEL	11020	Pstat Serial Number
CTRLMODE	IQUANT	1	Control Mode
IESTAB	IQUANT	0	I/E Stability
CASPEED	IQUANT	1	Control Amp Speed
CONVENTION	IQUANT	1	Current Convention
ICHRANGE	IQUANT	2	Ich Range
ICHRANGEMODE	TOGGLE	F	Ich Auto Range
ICHOFFSETENABLE	TOGGLE	T	Ich Offset Enable
ICHOFFSET	QUANT	0	Ich Offset (V)
ICHFILTER	IQUANT	3	Ich Filter
VCHRANGE	IQUANT	2	Vch Range
VCHRANGEMODE	TOGGLE	F	Vch Auto Range
VCHOFFSETENABLE	TOGGLE	T	Vch Offset Enable
VCHOFFSET	QUANT	0	Vch Offset (V)
VCHFILTER	IQUANT	3	Vch Filter
ACHRANGE	IQUANT	2	Ach Range
ACHOFFSETENABLE	TOGGLE	F	Ach Offset Enable
ACHOFFSET	QUANT	0	Ach Offset (V)
ACHFILTER	IQUANT	3	Ach Filter
IERANGELOWERLIMIT	IQUANT	1	I/E Range Lower Limit
IERANGEMODE	TOGGLE	F	I/E AutoRange
IERANGE	IQUANT	4	I/E Range
POSFEEDENABLE	TOGGLE	F	Positive Feedback IR Comp
POSFEEDRESISTANCE	QUANT	0	Positive Feedback Resistance (ohm)
ACHSELECT	IQUANT	0	Ach Select
CABLEID	IQUANT	14	Cable ID
DCCALDATE	LABEL	8/19/2019	DC Calibration Date
ACCALDATE	LABEL	8/19/2019	AC Calibration Date
THERMOSELECT	IQUANT	1	Thermo Select
FRAMEWORKVERSION	QUANT	6.33	Framework Version
INSTRUMENTVERSION	LABEL	3.50	Instrument Version
ZCURVE	TABLE
	Pt	Time	Freq	Zreal	Zimag	Zsig	Zmod	Zphz	Idc	Vdc	IERange
	#	s	Hz	ohm	ohm	V	ohm	°	A	V	#
	0	2	1000078	2399.365	-1670.646	1	2923.698	-34.84898	8.559575E-007	0.0064063	8
	1	3	794390.6	2715.682	-1590.422	1	3147.121	-30.3551	-2.30444E-006	0.006505	8
	2	5	630984.4	3001.413	-1496.594	1	3353.844	-26.50222	2.102005E-006	0.0055868	8
	3	6	501234.4	3250.643	-1383.691	1	3532.885	-23.05785	-2.286998E-006	0.0064196	8
	4	7	398109.4	3466.144	-1246.312	1	3683.402	-19.77692	-6.946446E-007	0.0061661	8
	5	9	316265.6	3637.266	-1114.028	1	3804.046	-17.02887	3.424914E-006	0.0050844	8
	6	10	251203.1	3777.626	-985.093	1	3903.955	-14.61556	-4.828018E-007	0.0058409	8
	7	11	199546.9	3897.539	-865.5599	1	3992.494	-12.52096	-2.279695E-006	0.0062632	8
	8	13	158578.1	3976.183	-752.4101	1	4046.746	-10.71534	-3.160115E-006	0.0063954	8
	9	14	125953.1	4098.297	-640.5757	1	4148.057	-8.883617	-1.637776E-007	0.0058971	7
	10	16	100078.1	4139.473	-573.3522	1	4178.992	-7.88578	8.576919E-009	0.0058556	7
	11	17	79453.13	4192.528	-526.8616	1	4225.502	-7.162631	-2.38134E-008	0.0057656	7
	12	19	63140.62	4241.823	-491.03	1	4270.149	-6.603124	9.686471E-009	0.0058413	7
	13	20	50203.12	4286.341	-464.3661	1	4311.421	-6.183095	8.897294E-009	0.0057032	7
	14	21	39890.62	4328.038	-450.4044	1	4351.411	-5.941194	-5.208758E-008	0.005862	7
	15	23	31640.63	4367.885	-444.7469	1	4390.469	-5.813936	-3.389602E-008	0.0058449	7
	16	24	25171.88	4406.567	-448.974	1	4429.38	-5.817647	-7.870622E-009	0.0057359	7
	17	25	20015.62	4454.828	-479.5474	1	4480.564	-6.144041	-7.084576E-009	0.0057359	7
	18	27	15890.62	4481.28	-491.409	1	4508.143	-6.257946	3.7073E-008	0.0057209	7
	19	28	12609.37	4519.216	-532.4832	1	4550.478	-6.719975	9.833382E-009	0.0058459	7
	20	30	10078.13	4556.174	-584.8828	1	4593.562	-7.315135	-5.729452E-008	0.0059383	7
	21	31	8015.625	4579.05	-658.6511	1	4626.178	-8.185288	-3.798181E-009	0.0058014	7
	22	32	6328.125	4636.002	-757.2206	1	4697.435	-9.276483	1.388458E-009	0.0057621	7
	23	34	5015.625	4680.521	-880.2354	1	4762.572	-10.65084	-3.168638E-008	0.0058474	7
	24	35	3984.375	4735.433	-1031.952	1	4846.571	-12.29377	-5.9237E-008	0.0059385	7
	25	36	3170.956	4782.312	-1225.204	1	4936.763	-14.36981	1.00602E-007	0.0056191	7
	26	38	2527.573	4843.36	-1460.377	1	5058.738	-16.77918	-2.164594E-008	0.0057483	7
	27	39	1976.103	4917.156	-1776.585	1	5228.257	-19.86496	9.983001E-008	0.0056141	7
	28	41	1577.524	5005.517	-2200.868	1	5467.999	-23.73454	-2.087396E-008	0.0057542	7
	29	42	1265.625	5096.343	-2569.679	1	5707.536	-26.75816	-2.309456E-008	0.0057571	7
	30	43	998.264	5218.977	-3143.106	1	6092.359	-31.05827	-9.557908E-010	0.0057597	7
	31	45	796.875	5355.7	-3809.819	1	6572.537	-35.42644	-2.709827E-008	0.0057643	7
	32	46	627.7902	5536.436	-4681.565	1	7250.46	-40.21759	-4.850764E-009	0.0058053	7
	33	47	505.5147	5738.676	-5652.511	1	8055.016	-44.56661	-2.928497E-008	0.0057589	7
	34	49	397.9953	6011.047	-6970.896	1	9204.677	-49.2286	4.673228E-009	0.0057862	7
	35	50	315.5048	6356.485	-8547.829	1	10652.24	-53.36413	2.469749E-010	0.0057229	6
	36	52	252.4038	6777.51	-10402.13	1	12415.27	-56.91375	3.557974E-010	0.0057153	6
	37	53	198.6229	7363.353	-12840.17	1	14801.65	-60.16735	7.53935E-010	0.0057236	6
	38	54	158.3615	8089.173	-15651.5	1	17618.29	-62.66869	9.741261E-010	0.0057179	6
	39	56	125.558	9068.122	-19160.62	1	21198.11	-64.67326	1.349768E-009	0.0057238	6
	40	57	100.4464	10291.38	-23218.93	1	25397.46	-66.09553	1.235458E-010	0.0057173	6
	41	58	79.00281	12055.32	-28499.87	1	30944.68	-67.07185	1.865582E-010	0.0057146	6
	42	60	63.3446	14238.16	-34686.45	1	37495	-67.68274	8.414351E-010	0.0057149	6
	43	61	49.86702	17273.7	-41548.66	1	44996.35	-67.42508	-6.04749E-011	0.0057158	6
	44	62	39.72458	21455.86	-50018.75	1	54426.36	-66.78278	7.163793E-010	0.0057206	6
	45	64	31.6723	26587.66	-59511.47	1	65180.66	-65.92657	5.74927E-010	0.0057214	6
	46	65	24.93351	33360.7	-70716.05	1	78190.13	-64.74413	5.493766E-010	0.0057158	6
	47	67	19.86229	41472.4	-82743.25	1	92554.88	-63.37915	2.875158E-010	0.005723	6
	48	68	15.83615	52135.14	-95200.1	1	108541	-61.29325	2.071114E-009	0.0057207	5
	49	69	12.40079	64815.03	-110968.3	1	128510.5	-59.71141	-1.540325E-009	0.0057222	5
	50	71	9.93114	77376.2	-126517.6	1	148303	-58.55069	-6.599424E-010	0.0057266	5
	51	72	7.944915	91782.08	-143628.6	1	170449.8	-57.42046	1.184352E-009	0.005718	5
	52	74	6.317385	109637.1	-161843.5	1	195483	-55.88525	5.597022E-010	0.0057129	5
	53	76	5.008013	128710.7	-183121.7	1	223830.3	-54.89778	-1.020612E-010	0.0057184	5
	54	78	3.945707	149784.8	-207185.7	1	255658.8	-54.13496	2.673562E-010	0.0057216	5
	55	81	3.158693	171275.1	-233234	1	289367	-53.70834	4.11269E-010	0.0057351	5
	56	84	2.504006	195468.9	-265179.9	1	329436.6	-53.6054	-3.26329E-010	0.0057216	5
	57	87	1.998082	220150	-300394.7	1	372428.5	-53.76347	3.304686E-010	0.0056817	5
	58	90	1.584686	248926.1	-345098.6	1	425508.2	-54.19638	-2.115593E-011	0.0056777	5
	59	94	1.266892	278920.3	-394442	1	483095.3	-54.73487	2.972162E-010	0.0056935	5
	60	98	0.999041	313833.7	-458822	1	555885.9	-55.62792	-9.046411E-011	0.0057307	5
