EXPLAIN
TAG	EISPOT
TITLE	LABEL	Potentiostatic IDE	Test &Identifier
DATE	LABEL	9/14/2019	Date
TIME	LABEL	13:33:35	Time
NOTES	NOTES	1	&Notes...
	
PSTAT	PSTAT	REF600-11020	Potentiostat
VDC	POTEN	0.00000E+000	T	DC &Voltage (V)
FREQINIT	QUANT	1.00000E+006	Initial Fre&q. (Hz)
FREQFINAL	QUANT	1.00000E+000	Final Fre&q. (Hz)
PTSPERDEC	QUANT	1.00000E+001	Points/&decade
VAC	QUANT	2.50000E+001	AC &Voltage (mV rms)
AREA	QUANT	1.00000E-002	&Area (cm^2)
CONDIT	TWOPARAM	T	5.00000E+000	0.00000E+000	Conditionin&g	Time(s)	E(V)
DELAY	TWOPARAM	T	5.00000E+000	0.00000E+000	Init. De&lay	Time(s)	Stab.(mV/s)
SPEED	SELECTOR	1	&Optimize for:
ZGUESS	QUANT	1.00000E+007	E&stimated Z (ohms)
OCVCURVE	TABLE	19
	Pt	T	Vf	Vm	Ach	Over
	#	s	V vs. Ref.	V	V	bits
	0	0.258333	5.93596E-004	5.93596E-004	5.70932E-004	...........
	1	0.516667	5.85865E-004	1.88863E-004	5.72699E-004	...........
	2	0.775	5.38697E-004	-1.78516E-004	5.70199E-004	...........
	3	1.03333	4.06518E-004	-5.19462E-004	5.68499E-004	...........
	4	1.29167	1.73165E-004	-8.38006E-004	5.68032E-004	...........
	5	1.55	-1.31851E-004	-1.13635E-003	5.70099E-004	...........
	6	1.80833	-4.63238E-004	-1.41715E-003	5.62666E-004	...........
	7	2.06667	-7.89226E-004	-1.68665E-003	5.66466E-004	...........
	8	2.325	-1.09683E-003	-1.93783E-003	5.68566E-004	...........
	9	2.58333	-1.38454E-003	-2.17926E-003	5.67932E-004	...........
	10	2.84167	-1.65478E-003	-2.41223E-003	5.64966E-004	...........
	11	3.1	-1.91049E-003	-2.63629E-003	5.67066E-004	...........
	12	3.35833	-2.15421E-003	-2.84810E-003	5.70899E-004	...........
	13	3.61667	-2.38751E-003	-3.05254E-003	5.70932E-004	...........
	14	3.875	-2.61113E-003	-3.25179E-003	5.68266E-004	...........
	15	4.13333	-2.82568E-003	-3.44111E-003	5.67132E-004	...........
	16	4.39167	-3.03187E-003	-3.62448E-003	5.64532E-004	...........
	17	4.65	-3.23035E-003	-3.80443E-003	5.67266E-004	...........
	18	4.90833	-3.42176E-003	-3.97652E-003	5.67999E-004	...........
EOC	QUANT	-0.0034218	Open Circuit (V)
PSTATMODEL	IQUANT	4	Pstat Model
PSTATSECTION	LABEL	REF600-11020	Pstat Section
PSTATSERIALNO	LABEL	11020	Pstat Serial Number
CTRLMODE	IQUANT	1	Control Mode
IESTAB	IQUANT	0	I/E Stability
CASPEED	IQUANT	1	Control Amp Speed
CONVENTION	IQUANT	1	Current Convention
ICHRANGE	IQUANT	2	Ich Range
ICHRANGEMODE	TOGGLE	F	Ich Auto Range
ICHOFFSETENABLE	TOGGLE	T	Ich Offset Enable
ICHOFFSET	QUANT	0	Ich Offset (V)
ICHFILTER	IQUANT	3	Ich Filter
VCHRANGE	IQUANT	2	Vch Range
VCHRANGEMODE	TOGGLE	F	Vch Auto Range
VCHOFFSETENABLE	TOGGLE	T	Vch Offset Enable
VCHOFFSET	QUANT	0	Vch Offset (V)
VCHFILTER	IQUANT	3	Vch Filter
ACHRANGE	IQUANT	2	Ach Range
ACHOFFSETENABLE	TOGGLE	F	Ach Offset Enable
ACHOFFSET	QUANT	0	Ach Offset (V)
ACHFILTER	IQUANT	3	Ach Filter
IERANGELOWERLIMIT	IQUANT	1	I/E Range Lower Limit
IERANGEMODE	TOGGLE	F	I/E AutoRange
IERANGE	IQUANT	2	I/E Range
POSFEEDENABLE	TOGGLE	F	Positive Feedback IR Comp
POSFEEDRESISTANCE	QUANT	0	Positive Feedback Resistance (ohm)
ACHSELECT	IQUANT	0	Ach Select
CABLEID	IQUANT	14	Cable ID
DCCALDATE	LABEL	8/19/2019	DC Calibration Date
ACCALDATE	LABEL	8/19/2019	AC Calibration Date
THERMOSELECT	IQUANT	1	Thermo Select
FRAMEWORKVERSION	QUANT	6.33	Framework Version
INSTRUMENTVERSION	LABEL	3.50	Instrument Version
ZCURVE	TABLE
	Pt	Time	Freq	Zreal	Zimag	Zsig	Zmod	Zphz	Idc	Vdc	IERange
	#	s	Hz	ohm	ohm	V	ohm	°	A	V	#
	0	2	1000078	2328.404	-1782.619	1	2932.438	-37.43756	-4.376333E-006	-0.0009463	8
	1	4	794390.6	2691.976	-1731.785	1	3200.908	-32.75373	2.21041E-006	-0.0015127	8
	2	5	630984.4	3031.815	-1621.57	1	3438.225	-28.14016	-4.843849E-007	-0.0018423	8
	3	7	501234.4	3322.318	-1479.665	1	3636.923	-24.00682	5.191569E-008	-0.0019357	8
	4	8	398109.4	3547.171	-1300.485	1	3778.053	-20.13425	-9.069385E-007	-0.0014996	8
	5	9	316265.6	3730.888	-1120.098	1	3895.4	-16.71095	-1.164637E-006	-0.0018881	8
	6	11	251203.1	3863.686	-991.997	1	3989.001	-14.3996	7.916108E-008	-0.0017139	8
	7	12	199546.9	3979.499	-839.8898	1	4067.165	-11.91761	2.373019E-006	-0.0024039	8
	8	13	158578.1	4055.493	-727.4783	1	4120.225	-10.16961	4.546902E-007	-0.0018924	8
	9	15	125953.1	4134.578	-598.2151	1	4177.63	-8.23276	1.311583E-007	-0.0019713	7
	10	16	100078.1	4166.624	-517.4421	1	4198.63	-7.079169	-6.540813E-008	-0.0018325	7
	11	17	79453.13	4205.063	-473.1267	1	4231.595	-6.419556	-6.290621E-008	-0.0018655	7
	12	19	63140.62	4240.954	-443.9559	1	4264.128	-5.97613	-4.885429E-008	-0.0018459	7
	13	20	50203.12	4273.956	-425.0819	1	4295.043	-5.679882	-6.249994E-008	-0.0018716	7
	14	21	39890.62	4302.229	-416.6728	1	4322.36	-5.531868	-1.192432E-008	-0.0018957	7
	15	23	31640.63	4338.607	-426.0551	1	4359.476	-5.608515	5.884381E-009	-0.0019745	7
	16	24	25171.88	4372.16	-443.35	1	4394.581	-5.790171	1.003738E-007	-0.0020441	7
	17	25	20015.62	4407.277	-473.7285	1	4432.664	-6.135042	-4.06704E-008	-0.0019503	7
	18	27	15890.62	4443.656	-526.8151	1	4474.775	-6.761111	-1.201806E-008	-0.001933	7
	19	28	12609.37	4487.69	-571.2856	1	4523.907	-7.254766	4.401615E-008	-0.0020081	7
	20	29	10078.13	4531.244	-639.0974	1	4576.092	-8.028177	1.725934E-008	-0.0018787	7
	21	31	8015.625	4581.111	-726.2695	1	4638.324	-9.008451	6.291404E-008	-0.0020643	7
	22	32	6328.125	4638.137	-840.6805	1	4713.709	-10.27355	-6.218427E-008	-0.0018789	7
	23	33	5015.625	4700.774	-977.805	1	4801.394	-11.7505	4.641959E-008	-0.0021056	7
	24	35	3984.375	4772.392	-1140.515	1	4906.781	-13.44056	-6.343824E-009	-0.0019771	7
	25	36	3170.956	4850.866	-1338.247	1	5032.077	-15.42301	-7.80083E-008	-0.0018537	7
	26	37	2527.573	4940.301	-1577.035	1	5185.906	-17.70404	-4.677905E-008	-0.0018614	7
	27	39	1976.103	5050.271	-1890.605	1	5392.552	-20.52375	-4.851677E-008	-0.0018651	7
	28	40	1577.524	5171.558	-2239.937	1	5635.808	-23.4187	-7.524073E-008	-0.0017352	7
	29	41	1265.625	5293.593	-2655.078	1	5922.125	-26.63671	-2.639502E-008	-0.0019832	7
	30	43	998.264	5453.548	-3197.957	1	6322.034	-30.38733	3.431966E-009	-0.0019956	7
	31	44	796.875	5625.666	-3823.291	1	6801.887	-34.20065	-9.31098E-009	-0.0019069	7
	32	45	627.7902	5837.584	-4633.112	1	7452.726	-38.43796	-2.636114E-008	-0.0019833	7
	33	47	505.5147	6061.943	-5536.85	1	8209.985	-42.40791	-6.337851E-008	-0.0018519	7
	34	48	397.9953	6355.319	-6749.157	1	9270.447	-46.72143	4.94079E-009	-0.0019441	7
	35	49	315.5048	6696.011	-8196.876	1	10584.2	-50.75468	1.036445E-009	-0.0020015	6
	36	51	252.4038	7082.808	-9900.87	1	12173.47	-54.42112	3.581382E-010	-0.0020069	6
	37	52	198.6229	7583.304	-12145.57	1	14318.57	-58.02066	1.368667E-009	-0.0020038	6
	38	53	158.3615	8168.016	-14749.41	1	16860.06	-61.02294	3.231627E-010	-0.002006	6
	39	55	125.558	8904.795	-18016	1	20096.55	-63.69812	1.092613E-009	-0.0020079	6
	40	56	100.4464	9753.83	-21849.13	1	23927.43	-65.94318	4.249278E-010	-0.0020126	6
	41	57	79.00281	11014.03	-26880.04	1	29049.02	-67.71875	1.429167E-009	-0.0020142	6
	42	59	63.3446	12326.47	-32933.84	1	35165.03	-69.48013	1.435886E-009	-0.0020112	6
	43	60	49.86702	14168.1	-39891.46	1	42332.77	-70.44668	1.431903E-009	-0.002013	6
	44	61	39.72458	16634.33	-48965.18	1	51713.53	-71.23647	1.327008E-009	-0.0020038	6
	45	63	31.6723	19848.83	-59299.34	1	62533.1	-71.49344	1.381728E-009	-0.0020052	6
	46	64	24.93351	24204.79	-73015.56	1	76922.98	-71.65955	1.136357E-009	-0.002016	6
	47	65	19.86229	29735.51	-88497.05	1	93359.14	-71.42736	7.390957E-010	-0.0020151	6
	48	67	15.83615	36468.28	-106627	1	112691	-71.11842	3.900367E-010	-0.0020059	5
	49	68	12.40079	48534.3	-129809.2	1	138585.7	-69.49976	-2.105364E-010	-0.0020019	5
	50	70	9.93114	61258.87	-155007.7	1	166673.5	-68.43613	3.025419E-010	-0.0020049	5
	51	71	7.944915	77938.38	-181916.5	1	197909.1	-66.80828	1.378144E-010	-0.00201	5
	52	73	6.317385	99880	-214281.1	1	236415.7	-65.009	6.531493E-010	-0.0020144	5
	53	75	5.008013	127623.8	-249506.2	1	280251.9	-62.91001	7.918922E-011	-0.002013	5
	54	77	3.945707	161764.3	-288223.5	1	330515.5	-60.69685	6.972475E-010	-0.0020043	5
	55	80	3.158693	199792.3	-326140.8	1	382471.9	-58.50857	2.660225E-010	-0.0019975	5
	56	83	2.504006	243791.5	-367484.1	1	440997.5	-56.43943	5.036619E-010	-0.0020122	5
	57	86	1.998082	289750	-409572.5	1	501701.8	-54.7227	-8.974965E-012	-0.0019829	5
	58	89	1.584686	341823.3	-456168.2	1	570028.6	-53.15446	3.953987E-010	-0.001958	5
	59	93	1.266892	392442.1	-505712.5	1	640121.8	-52.18789	-2.741045E-011	-0.0019901	5
	60	97	0.999041	449252.9	-566015.4	1	722635.1	-51.56057	5.443768E-010	-0.0020079	5
