EXPLAIN
TAG	EISPOT
TITLE	LABEL	Potentiostatic EIS	Test &Identifier
DATE	LABEL	10/20/2019	Date
TIME	LABEL	10:47:11	Time
NOTES	NOTES	1	&Notes...
	
PSTAT	PSTAT	REF600-11020	Potentiostat
VDC	POTEN	0.00000E+000	T	DC &Voltage (V)
FREQINIT	QUANT	1.00000E+006	Initial Fre&q. (Hz)
FREQFINAL	QUANT	1.00000E+000	Final Fre&q. (Hz)
PTSPERDEC	QUANT	1.00000E+001	Points/&decade
VAC	QUANT	2.50000E+001	AC &Voltage (mV rms)
AREA	QUANT	1.00000E-002	&Area (cm^2)
CONDIT	TWOPARAM	T	5.00000E+000	0.00000E+000	Conditionin&g	Time(s)	E(V)
DELAY	TWOPARAM	T	5.00000E+000	0.00000E+000	Init. De&lay	Time(s)	Stab.(mV/s)
SPEED	SELECTOR	1	&Optimize for:
ZGUESS	QUANT	1.00000E+005	E&stimated Z (ohms)
OCVCURVE	TABLE	19
	Pt	T	Vf	Vm	Ach	Over
	#	s	V vs. Ref.	V	V	bits
	0	0.258333	5.15830E-003	5.15830E-003	5.74999E-004	...........
	1	0.516667	5.14693E-003	4.56343E-003	5.74699E-004	...........
	2	0.775	5.08202E-003	4.25436E-003	5.75165E-004	...........
	3	1.03333	4.91980E-003	4.23190E-003	5.71132E-004	...........
	4	1.29167	4.68362E-003	4.20422E-003	5.68966E-004	...........
	5	1.55	4.45454E-003	4.07257E-003	5.69132E-004	...........
	6	1.80833	4.28983E-003	4.19312E-003	5.65166E-004	...........
	7	2.06667	4.19560E-003	4.15347E-003	5.71499E-004	...........
	8	2.325	4.15213E-003	3.96958E-003	5.66166E-004	...........
	9	2.58333	4.12342E-003	3.84538E-003	5.68666E-004	...........
	10	2.84167	4.07725E-003	4.05612E-003	5.71132E-004	...........
	11	3.1	4.04104E-003	5.03301E-003	5.71532E-004	...........
	12	3.35833	4.08601E-003	3.79275E-003	5.71432E-004	...........
	13	3.61667	4.17955E-003	3.41921E-003	5.72199E-004	...........
	14	3.875	4.15630E-003	3.00253E-003	5.71699E-004	...........
	15	4.13333	3.92489E-003	2.97476E-003	5.71466E-004	...........
	16	4.39167	3.57580E-003	2.87944E-003	5.70299E-004	...........
	17	4.65	3.25983E-003	3.12549E-003	5.69299E-004	...........
	18	4.90833	3.06960E-003	3.18670E-003	5.71232E-004	...........
EOC	QUANT	0.0030696	Open Circuit (V)
PSTATMODEL	IQUANT	4	Pstat Model
PSTATSECTION	LABEL	REF600-11020	Pstat Section
PSTATSERIALNO	LABEL	11020	Pstat Serial Number
CTRLMODE	IQUANT	1	Control Mode
IESTAB	IQUANT	0	I/E Stability
CASPEED	IQUANT	1	Control Amp Speed
CONVENTION	IQUANT	1	Current Convention
ICHRANGE	IQUANT	2	Ich Range
ICHRANGEMODE	TOGGLE	F	Ich Auto Range
ICHOFFSETENABLE	TOGGLE	T	Ich Offset Enable
ICHOFFSET	QUANT	0	Ich Offset (V)
ICHFILTER	IQUANT	3	Ich Filter
VCHRANGE	IQUANT	2	Vch Range
VCHRANGEMODE	TOGGLE	F	Vch Auto Range
VCHOFFSETENABLE	TOGGLE	T	Vch Offset Enable
VCHOFFSET	QUANT	0	Vch Offset (V)
VCHFILTER	IQUANT	3	Vch Filter
ACHRANGE	IQUANT	2	Ach Range
ACHOFFSETENABLE	TOGGLE	F	Ach Offset Enable
ACHOFFSET	QUANT	0	Ach Offset (V)
ACHFILTER	IQUANT	3	Ach Filter
IERANGELOWERLIMIT	IQUANT	1	I/E Range Lower Limit
IERANGEMODE	TOGGLE	F	I/E AutoRange
IERANGE	IQUANT	4	I/E Range
POSFEEDENABLE	TOGGLE	F	Positive Feedback IR Comp
POSFEEDRESISTANCE	QUANT	0	Positive Feedback Resistance (ohm)
ACHSELECT	IQUANT	0	Ach Select
CABLEID	IQUANT	14	Cable ID
DCCALDATE	LABEL	8/19/2019	DC Calibration Date
ACCALDATE	LABEL	8/19/2019	AC Calibration Date
THERMOSELECT	IQUANT	1	Thermo Select
FRAMEWORKVERSION	QUANT	6.33	Framework Version
INSTRUMENTVERSION	LABEL	3.50	Instrument Version
ZCURVE	TABLE
	Pt	Time	Freq	Zreal	Zimag	Zsig	Zmod	Zphz	Idc	Vdc	IERange
	#	s	Hz	ohm	ohm	V	ohm	°	A	V	#
	0	2	1000078	2900.685	-2123.808	1	3595.071	-36.21064	-1.77542E-006	0.005418	8
	1	4	794390.6	3291.238	-2090.726	1	3899.151	-32.42534	-7.987944E-008	0.0048518	8
	2	5	630984.4	3683.22	-2026.396	1	4203.854	-28.81826	1.641999E-006	0.0044945	8
	3	6	501234.4	4037.516	-1876.857	1	4452.43	-24.93156	1.321744E-006	0.0043072	8
	4	8	398109.4	4325.61	-1720.459	1	4655.2	-21.68958	-6.809174E-007	0.0045937	8
	5	9	316265.6	4578.475	-1541.597	1	4831.041	-18.60865	3.894126E-006	0.0039195	8
	6	11	251203.1	4778.981	-1377.036	1	4973.418	-16.07404	-1.102097E-006	0.0047136	8
	7	12	199546.9	4943.217	-1242.991	1	5097.099	-14.11462	-3.181948E-006	0.0052206	8
	8	14	158578.1	5076.711	-1138.89	1	5202.89	-12.64417	3.9583E-006	0.0038568	8
	9	15	125953.1	5231.852	-951.177	1	5317.613	-10.30412	3.866791E-007	0.0038428	7
	10	17	100078.1	5302.837	-896.768	1	5378.129	-9.59853	-6.29156E-008	0.0045761	7
	11	18	79453.13	5386.576	-865.8788	1	5455.726	-9.132033	4.802984E-009	0.0044842	7
	12	19	63140.62	5465.604	-854.0565	1	5531.93	-8.881229	-7.375928E-008	0.0046932	7
	13	21	50203.12	5543.747	-862.5192	1	5610.442	-8.843415	-5.827906E-008	0.004628	7
	14	22	39890.62	5628.367	-890.725	1	5698.413	-8.992842	-1.455589E-008	0.0044665	7
	15	23	31640.63	5716.828	-938.2318	1	5793.306	-9.320158	-6.352508E-008	0.0045597	7
	16	25	25171.88	5811.094	-1006.161	1	5897.556	-9.82308	-7.34483E-008	0.0046825	7
	17	26	20015.62	5910.367	-1064.921	1	6005.539	-10.21388	5.838998E-008	0.0044531	7
	18	28	15890.62	6029.242	-1191.337	1	6145.815	-11.17727	5.080771E-008	0.004358	7
	19	29	12609.37	6158.413	-1324.674	1	6299.271	-12.13935	2.968683E-008	0.0043981	7
	20	31	10078.13	6297.064	-1470.508	1	6466.484	-13.14431	-7.802769E-008	0.0047766	7
	21	33	8015.625	6452.895	-1618.533	1	6652.782	-14.0806	-6.917779E-009	0.0045819	7
	22	34	6328.125	6635.263	-1866.656	1	6892.831	-15.71254	-6.258719E-009	0.0045792	7
	23	36	5015.625	6838.861	-2114.827	1	7158.388	-17.18353	-7.27887E-008	0.004682	7
	24	37	3984.375	7091.578	-2418.403	1	7492.606	-18.83064	4.629284E-008	0.0043653	7
	25	38	3170.956	7317.745	-2727.128	1	7809.393	-20.43908	-8.018299E-008	0.004779	7
	26	40	2527.573	7602.343	-3094.633	1	8208.067	-22.14942	6.059698E-008	0.0044513	7
	27	41	1976.103	7947.472	-3562.286	1	8709.316	-24.1433	-3.103267E-009	0.0045727	7
	28	42	1577.524	8297.216	-3966.809	1	9196.704	-25.55196	-1.126323E-008	0.0046772	6
	29	44	1265.625	8722.417	-4595.178	1	9858.81	-27.78133	2.102136E-008	0.0041837	6
	30	45	998.264	9190.125	-5274.155	1	10596	-29.85124	8.264139E-009	0.0043234	6
	31	46	796.875	9683.24	-6029.489	1	11407.01	-31.9094	1.537734E-008	0.0041669	6
	32	48	627.7902	10238.55	-6949.476	1	12374.29	-34.16693	-2.099875E-009	0.0043485	6
	33	49	505.5147	10775.59	-7935.903	1	13382.52	-36.37054	-1.203993E-008	0.0045895	6
	34	50	397.9953	11382.07	-9241.174	1	14661.2	-39.07336	-4.377704E-010	0.0044752	6
	35	52	315.5048	11988.13	-10791.99	1	16130.16	-41.99427	1.587514E-009	0.004476	6
	36	53	252.4038	12583.19	-12631.29	1	17829.36	-45.1093	6.888811E-010	0.0044777	6
	37	54	198.6229	13251.31	-15114.74	1	20101.05	-48.75849	8.162317E-010	0.0044745	6
	38	56	158.3615	13938.34	-18047.67	1	22803.42	-52.32086	1.530431E-009	0.0044725	6
	39	57	125.558	14744.93	-21803.81	1	26321.46	-55.93129	2.534192E-010	0.0044757	6
	40	58	100.4464	15626.89	-26348.27	1	30633.82	-59.32825	1.952113E-009	0.0044753	6
	41	60	79.00281	16921.27	-32223.72	1	36396.39	-62.29521	1.760197E-009	0.0044752	6
	42	61	63.3446	18882.62	-39710.3	1	43971.14	-64.56847	1.209918E-009	0.0044762	6
	43	63	49.86702	19693.04	-48491.33	1	52337.61	-67.89721	3.887991E-010	0.0044666	6
	44	64	39.72458	22829.28	-59126.45	1	63380.7	-68.88795	2.839028E-010	0.0044698	6
	45	65	31.6723	25727.87	-71900.93	1	76365.35	-70.31158	-5.170632E-010	0.0044721	6
	46	67	24.93351	30378.58	-89049.97	1	94089.08	-71.16339	6.828418E-011	0.0044707	6
	47	68	19.86229	35913.91	-108654.2	1	114435.7	-71.70952	7.477841E-010	0.004481	5
	48	70	15.83615	44496.72	-133872.3	1	141073.6	-71.61414	2.076229E-009	0.0044747	5
	49	71	12.40079	57391.64	-163463.5	1	173245.9	-70.65395	2.299867E-009	0.0044719	5
	50	73	9.93114	67636.89	-194340.4	1	205774	-70.81042	-1.572933E-010	0.0044721	5
	51	74	7.944915	87145.48	-232504.7	1	248299.8	-69.45341	-2.775772E-010	0.0044678	5
	52	76	6.317385	109013.7	-277514.5	1	298158.2	-68.55402	4.898235E-010	0.0044657	5
	53	78	5.008013	139871.7	-329312.2	1	357785.7	-66.98717	1.03577E-010	0.0044805	5
	54	80	3.945707	179250.7	-389665	1	428916.8	-65.29698	-6.879521E-011	0.0044697	5
	55	83	3.158693	223959.9	-451447.3	1	503947.1	-63.61431	2.999783E-010	0.004491	5
	56	86	2.504006	279421.3	-521479.1	1	591622.1	-61.81651	-1.200286E-010	0.0044709	5
	57	89	1.998082	341467.2	-594629.7	1	685699.9	-60.13332	-1.689449E-011	0.004445	5
	58	92	1.584686	411147	-673920	1	789436.6	-58.61335	7.152495E-011	0.0045184	5
	59	96	1.266892	485185.2	-763936.8	1	904988.4	-57.57989	8.44187E-011	0.0044562	5
	60	100	0.999041	571052	-872512.5	1	1042774	-56.79559	9.856664E-011	0.004511	4
