EXPLAIN
TAG	EISPOT
TITLE	LABEL	Potentiostatic EIS	Test &Identifier
DATE	LABEL	11/13/2019	Date
TIME	LABEL	0:28:34	Time
NOTES	NOTES	3	&Notes...
	
	
	
PSTAT	PSTAT	REF600-11020	Potentiostat
VDC	POTEN	0.00000E+000	T	DC &Voltage (V)
FREQINIT	QUANT	1.00000E+006	Initial Fre&q. (Hz)
FREQFINAL	QUANT	1.00000E+000	Final Fre&q. (Hz)
PTSPERDEC	QUANT	1.00000E+001	Points/&decade
VAC	QUANT	2.50000E+001	AC &Voltage (mV rms)
AREA	QUANT	1.00000E-002	&Area (cm^2)
CONDIT	TWOPARAM	T	5.00000E+000	0.00000E+000	Conditionin&g	Time(s)	E(V)
DELAY	TWOPARAM	T	5.00000E+000	0.00000E+000	Init. De&lay	Time(s)	Stab.(mV/s)
SPEED	SELECTOR	1	&Optimize for:
ZGUESS	QUANT	1.00000E+005	E&stimated Z (ohms)
OCVCURVE	TABLE	19
	Pt	T	Vf	Vm	Ach	Over
	#	s	V vs. Ref.	V	V	bits
	0	0.258333	7.94155E-003	7.94155E-003	5.42199E-004	...........
	1	0.516667	7.93844E-003	7.77893E-003	5.35966E-004	...........
	2	0.775	7.92713E-003	8.03124E-003	5.41399E-004	...........
	3	1.03333	7.92087E-003	8.26983E-003	5.39066E-004	...........
	4	1.29167	7.95863E-003	8.46097E-003	5.42399E-004	...........
	5	1.55	8.06270E-003	8.39635E-003	5.43266E-004	...........
	6	1.80833	8.20538E-003	8.60971E-003	5.42666E-004	...........
	7	2.06667	8.34366E-003	8.67638E-003	5.37166E-004	...........
	8	2.325	8.46322E-003	8.78065E-003	5.33166E-004	...........
	9	2.58333	8.57131E-003	8.89552E-003	5.34433E-004	...........
	10	2.84167	8.67508E-003	8.98525E-003	5.39333E-004	...........
	11	3.1	8.77735E-003	9.07595E-003	5.34933E-004	...........
	12	3.35833	8.87842E-003	9.20194E-003	5.38666E-004	...........
	13	3.61667	8.97986E-003	9.34073E-003	5.36233E-004	...........
	14	3.875	9.08592E-003	9.42433E-003	5.32800E-004	...........
	15	4.13333	9.19785E-003	9.55016E-003	5.27600E-004	...........
	16	4.39167	9.31157E-003	9.63324E-003	5.32466E-004	...........
	17	4.65	9.42171E-003	9.70026E-003	5.36566E-004	...........
	18	4.90833	9.52351E-003	9.77411E-003	5.36166E-004	...........
EOC	QUANT	0.0095235	Open Circuit (V)
PSTATMODEL	IQUANT	4	Pstat Model
PSTATSECTION	LABEL	REF600-11020	Pstat Section
PSTATSERIALNO	LABEL	11020	Pstat Serial Number
CTRLMODE	IQUANT	1	Control Mode
IESTAB	IQUANT	0	I/E Stability
CASPEED	IQUANT	1	Control Amp Speed
CONVENTION	IQUANT	1	Current Convention
ICHRANGE	IQUANT	2	Ich Range
ICHRANGEMODE	TOGGLE	F	Ich Auto Range
ICHOFFSETENABLE	TOGGLE	T	Ich Offset Enable
ICHOFFSET	QUANT	0	Ich Offset (V)
ICHFILTER	IQUANT	3	Ich Filter
VCHRANGE	IQUANT	2	Vch Range
VCHRANGEMODE	TOGGLE	F	Vch Auto Range
VCHOFFSETENABLE	TOGGLE	T	Vch Offset Enable
VCHOFFSET	QUANT	0	Vch Offset (V)
VCHFILTER	IQUANT	3	Vch Filter
ACHRANGE	IQUANT	2	Ach Range
ACHOFFSETENABLE	TOGGLE	F	Ach Offset Enable
ACHOFFSET	QUANT	0	Ach Offset (V)
ACHFILTER	IQUANT	3	Ach Filter
IERANGELOWERLIMIT	IQUANT	1	I/E Range Lower Limit
IERANGEMODE	TOGGLE	F	I/E AutoRange
IERANGE	IQUANT	5	I/E Range
POSFEEDENABLE	TOGGLE	F	Positive Feedback IR Comp
POSFEEDRESISTANCE	QUANT	0	Positive Feedback Resistance (ohm)
ACHSELECT	IQUANT	0	Ach Select
CABLEID	IQUANT	14	Cable ID
DCCALDATE	LABEL	8/19/2019	DC Calibration Date
ACCALDATE	LABEL	8/19/2019	AC Calibration Date
THERMOSELECT	IQUANT	1	Thermo Select
FRAMEWORKVERSION	QUANT	6.33	Framework Version
INSTRUMENTVERSION	LABEL	3.50	Instrument Version
ZCURVE	TABLE
	Pt	Time	Freq	Zreal	Zimag	Zsig	Zmod	Zphz	Idc	Vdc	IERange
	#	s	Hz	ohm	ohm	V	ohm	°	A	V	#
	0	1	1000078	1974.858	-1536.489	1	2502.172	-37.88381	7.92201E-006	0.0110321	8
	1	3	794390.6	2227.751	-1589.543	1	2736.699	-35.50859	-5.9812E-006	0.0119903	8
	2	4	630984.4	2478.789	-1607.343	1	2954.31	-32.96095	1.060782E-006	0.0109048	8
	3	5	501234.4	2720.436	-1634.165	1	3173.526	-30.99323	-1.551289E-006	0.0115532	8
	4	7	398109.4	2971.393	-1668.51	1	3407.801	-29.31528	-1.299945E-007	0.0107933	8
	5	8	316265.6	3221.125	-1701.996	1	3643.135	-27.85133	-7.972379E-007	0.0114754	8
	6	9	251203.1	3489.835	-1732.532	1	3896.231	-26.40214	-1.243726E-006	0.0114266	8
	7	11	199546.9	3764.515	-1775.838	1	4162.352	-25.25469	3.8208E-006	0.0109936	8
	8	12	158578.1	4077.236	-1795.369	1	4455.02	-23.76579	-6.854825E-007	0.0107705	8
	9	13	125953.1	4412.928	-1720.861	1	4736.591	-21.30375	-1.277247E-006	0.0099806	7
	10	15	100078.1	4722.112	-1695.014	1	5017.112	-19.74572	4.232178E-007	0.0094009	7
	11	16	79453.13	5016.774	-1630.341	1	5275.039	-18.00303	-1.211282E-006	0.0124969	7
	12	17	63140.62	5310.602	-1542.684	1	5530.132	-16.19813	4.367165E-007	0.0114655	7
	13	18	50203.12	5561.282	-1418.396	1	5739.313	-14.30815	1.034825E-006	0.0102066	7
	14	20	39890.62	5745.917	-1271.741	1	5884.972	-12.48005	5.176874E-008	0.0097079	7
	15	21	31640.63	5929.104	-1152.396	1	6040.057	-10.99903	1.10117E-006	0.0098038	7
	16	22	25171.88	6054.436	-1040.576	1	6143.207	-9.75215	-2.374081E-007	0.0123059	7
	17	24	20015.62	6151.534	-949.7331	1	6224.417	-8.776579	-2.378145E-007	0.0123071	7
	18	25	15890.62	6221.3	-868.8027	1	6281.671	-7.949925	-3.671711E-007	0.0102467	7
	19	27	12609.37	6308.734	-827.3182	1	6362.75	-7.471052	9.444545E-007	0.0093071	7
	20	28	10078.13	6369.561	-807.7405	1	6420.572	-7.22725	1.036966E-006	0.0102087	7
	21	30	8015.625	6423.845	-812.5803	1	6475.034	-7.209305	1.066279E-006	0.0095068	7
	22	31	6328.125	6446.408	-852.7946	1	6502.571	-7.535895	-7.746845E-007	0.0109383	7
	23	33	5015.625	6511.112	-925.9122	1	6576.618	-8.093477	-5.723444E-007	0.0125731	7
	24	34	3984.375	6547.368	-1022.743	1	6626.767	-8.878238	-3.736063E-007	0.0102445	7
	25	36	3170.956	6618.733	-1172.496	1	6721.784	-10.04562	1.067945E-006	0.0094988	7
	26	37	2527.573	6673.777	-1360.826	1	6811.104	-11.52498	8.714804E-007	0.0106837	7
	27	39	1976.103	6728.484	-1622.442	1	6921.33	-13.55695	9.454952E-007	0.0093016	7
	28	40	1577.524	6767.06	-1887.31	1	7025.314	-15.5836	6.582217E-007	0.0111229	7
	29	42	1265.625	6852.866	-2287.746	1	7224.649	-18.46096	-1.222174E-006	0.0121494	7
	30	43	998.264	6946.164	-2789.481	1	7485.345	-21.8797	-3.71179E-007	0.0102446	7
	31	44	796.875	7080.566	-3396.906	1	7853.24	-25.62939	1.297391E-007	0.0119021	7
	32	46	627.7902	7201.761	-4153.705	1	8313.761	-29.97473	-3.714042E-007	0.0102424	7
	33	47	505.5147	7367.016	-5029.076	1	8919.896	-34.31931	4.200963E-007	0.0093841	7
	34	48	397.9953	7588.711	-6219.14	1	9811.54	-39.33548	2.691873E-009	0.0110232	7
	35	50	315.5048	7858.441	-7638.289	1	10958.95	-44.18609	4.863924E-010	0.0109643	6
	36	51	252.4038	8183.454	-9312.804	1	12397.47	-48.69321	5.401948E-010	0.0109583	6
	37	52	198.6229	8629.153	-11525.73	1	14398.08	-53.17832	6.125122E-010	0.0109675	6
	38	54	158.3615	9175.647	-14098.75	1	16821.63	-56.9434	7.812552E-010	0.0109544	6
	39	55	125.558	9905.85	-17316.71	1	19949.79	-60.22872	9.557908E-010	0.010966	6
	40	57	100.4464	10832.36	-21076.02	1	23696.8	-62.79837	1.423046E-010	0.0109539	6
	41	58	79.00281	12084.75	-26011.01	1	28681.25	-65.08035	5.20976E-010	0.0109506	6
	42	59	63.3446	13752.64	-31328.95	1	34214.59	-66.29971	6.192211E-010	0.0109605	6
	43	61	49.86702	15966.34	-38875.27	1	42026.31	-67.67171	6.571357E-011	0.0109549	6
	44	62	39.72458	18738.33	-46879.54	1	50485.8	-68.2128	7.872875E-010	0.0109589	6
	45	63	31.6723	22379.19	-56707.57	1	60963.73	-68.46372	9.042094E-010	0.010954	6
	46	65	24.93351	27352.98	-68831.44	1	74067.22	-68.32758	2.832179E-010	0.0109514	6
	47	66	19.86229	33584.76	-82406.87	1	88987.8	-67.82674	2.457528E-010	0.0109417	6
	48	67	15.83615	41454.7	-97866.3	1	106284	-67.04321	-5.955863E-010	0.0109534	5
	49	69	12.40079	52196.97	-118031.9	1	129058.3	-66.14365	6.291559E-010	0.0109609	5
	50	70	9.93114	64766.52	-138483	1	152879.9	-64.93519	-5.736624E-010	0.0109523	5
	51	72	7.944915	80364.91	-161550	1	180435.4	-63.55143	-2.257912E-009	0.0109623	5
	52	73	6.317385	99767.4	-187982.5	1	212816.7	-62.04389	-5.78253E-010	0.0109584	5
	53	75	5.008013	124189.3	-217198.1	1	250195.9	-60.23999	2.150187E-010	0.010953	5
	54	78	3.945707	153397.5	-249419	1	292815	-58.40769	-1.676827E-010	0.0109578	5
	55	80	3.158693	185160.2	-281586.4	1	337009.2	-56.67264	2.713144E-010	0.0109617	5
	56	84	2.504006	222203.5	-316604	1	386797.7	-54.93752	-1.412492E-010	0.0109696	5
	57	86	1.998082	260376.5	-353304.4	1	438884.8	-53.61072	4.365457E-010	0.0109634	5
	58	89	1.584686	303919.1	-392865.7	1	496699.3	-52.27463	3.397002E-012	0.0109099	5
	59	93	1.266892	346460.6	-437798.7	1	558303.3	-51.64297	2.480193E-010	0.0109782	5
	60	97	0.999041	395243.7	-491077	1	630376.2	-51.17112	-3.190884E-010	0.0109207	5
