EXPLAIN
TAG	EISPOT
TITLE	LABEL	Potentiostatic EIS	Test &Identifier
DATE	LABEL	10/10/2019	Date
TIME	LABEL	8:09:23	Time
NOTES	NOTES	1	&Notes...
	
PSTAT	PSTAT	REF600-11020	Potentiostat
VDC	POTEN	0.00000E+000	T	DC &Voltage (V)
FREQINIT	QUANT	1.00000E+006	Initial Fre&q. (Hz)
FREQFINAL	QUANT	1.00000E+000	Final Fre&q. (Hz)
PTSPERDEC	QUANT	1.00000E+001	Points/&decade
VAC	QUANT	2.50000E+001	AC &Voltage (mV rms)
AREA	QUANT	1.00000E-002	&Area (cm^2)
CONDIT	TWOPARAM	T	5.00000E+000	0.00000E+000	Conditionin&g	Time(s)	E(V)
DELAY	TWOPARAM	T	5.00000E+000	0.00000E+000	Init. De&lay	Time(s)	Stab.(mV/s)
SPEED	SELECTOR	1	&Optimize for:
ZGUESS	QUANT	1.00000E+004	E&stimated Z (ohms)
OCVCURVE	TABLE	19
	Pt	T	Vf	Vm	Ach	Over
	#	s	V vs. Ref.	V	V	bits
	0	0.258333	5.97431E-003	5.97431E-003	5.73632E-004	...........
	1	0.516667	5.96854E-003	5.67230E-003	5.82365E-004	...........
	2	0.775	5.93893E-003	5.69066E-003	5.72232E-004	...........
	3	1.03333	5.87438E-003	5.70113E-003	5.73866E-004	...........
	4	1.29167	5.79874E-003	5.86839E-003	5.75866E-004	...........
	5	1.55	5.75390E-003	5.79878E-003	5.74532E-004	...........
	6	1.80833	5.75265E-003	5.72460E-003	5.72466E-004	...........
	7	2.06667	5.76798E-003	5.73449E-003	5.73999E-004	...........
	8	2.325	5.77263E-003	5.82384E-003	5.73499E-004	...........
	9	2.58333	5.77289E-003	5.98169E-003	5.77032E-004	...........
	10	2.84167	5.80064E-003	6.29928E-003	5.78632E-004	...........
	11	3.1	5.88531E-003	6.39846E-003	5.76666E-004	...........
	12	3.35833	6.02565E-003	6.38800E-003	5.73565E-004	...........
	13	3.61667	6.18045E-003	6.38857E-003	5.77499E-004	...........
	14	3.875	6.30075E-003	6.41574E-003	5.77599E-004	...........
	15	4.13333	6.36970E-003	6.43602E-003	5.75499E-004	...........
	16	4.39167	6.40266E-003	6.46125E-003	5.73732E-004	...........
	17	4.65	6.42162E-003	6.48419E-003	5.74332E-004	...........
	18	4.90833	6.43951E-003	6.51218E-003	5.78765E-004	...........
EOC	QUANT	0.0064395	Open Circuit (V)
PSTATMODEL	IQUANT	4	Pstat Model
PSTATSECTION	LABEL	REF600-11020	Pstat Section
PSTATSERIALNO	LABEL	11020	Pstat Serial Number
CTRLMODE	IQUANT	1	Control Mode
IESTAB	IQUANT	0	I/E Stability
CASPEED	IQUANT	1	Control Amp Speed
CONVENTION	IQUANT	1	Current Convention
ICHRANGE	IQUANT	2	Ich Range
ICHRANGEMODE	TOGGLE	F	Ich Auto Range
ICHOFFSETENABLE	TOGGLE	T	Ich Offset Enable
ICHOFFSET	QUANT	0	Ich Offset (V)
ICHFILTER	IQUANT	3	Ich Filter
VCHRANGE	IQUANT	2	Vch Range
VCHRANGEMODE	TOGGLE	F	Vch Auto Range
VCHOFFSETENABLE	TOGGLE	T	Vch Offset Enable
VCHOFFSET	QUANT	0	Vch Offset (V)
VCHFILTER	IQUANT	3	Vch Filter
ACHRANGE	IQUANT	2	Ach Range
ACHOFFSETENABLE	TOGGLE	F	Ach Offset Enable
ACHOFFSET	QUANT	0	Ach Offset (V)
ACHFILTER	IQUANT	3	Ach Filter
IERANGELOWERLIMIT	IQUANT	1	I/E Range Lower Limit
IERANGEMODE	TOGGLE	F	I/E AutoRange
IERANGE	IQUANT	6	I/E Range
POSFEEDENABLE	TOGGLE	F	Positive Feedback IR Comp
POSFEEDRESISTANCE	QUANT	0	Positive Feedback Resistance (ohm)
ACHSELECT	IQUANT	0	Ach Select
CABLEID	IQUANT	14	Cable ID
DCCALDATE	LABEL	8/19/2019	DC Calibration Date
ACCALDATE	LABEL	8/19/2019	AC Calibration Date
THERMOSELECT	IQUANT	1	Thermo Select
FRAMEWORKVERSION	QUANT	6.33	Framework Version
INSTRUMENTVERSION	LABEL	3.50	Instrument Version
ZCURVE	TABLE
	Pt	Time	Freq	Zreal	Zimag	Zsig	Zmod	Zphz	Idc	Vdc	IERange
	#	s	Hz	ohm	ohm	V	ohm	°	A	V	#
	0	2	1000078	2661.642	-1602.45	1	3106.797	-31.05017	-4.55039E-006	0.0097338	8
	1	3	794390.6	2972.548	-1500.879	1	3329.967	-26.78982	3.694603E-006	0.0078533	8
	2	5	630984.4	3232.6	-1354.426	1	3504.879	-22.73318	2.055097E-006	0.0077273	8
	3	6	501234.4	3420.954	-1189.998	1	3622.02	-19.18052	2.40574E-006	0.0076551	8
	4	8	398109.4	3588.658	-1045.719	1	3737.913	-16.24589	-1.212521E-006	0.0083627	8
	5	9	316265.6	3709.395	-891.6338	1	3815.052	-13.51587	-4.231611E-007	0.00831	8
	6	10	251203.1	3805.643	-765.3569	1	3881.841	-11.37113	-1.504036E-007	0.0080579	8
	7	12	199546.9	3866.588	-650.5339	1	3920.93	-9.55029	-1.188303E-006	0.0085023	8
	8	13	158578.1	3893.965	-558.1776	1	3933.767	-8.157454	-3.29575E-007	0.0082601	8
	9	15	125953.1	3975.49	-473.2499	1	4003.56	-6.788651	1.368134E-006	0.0050427	7
	10	16	100078.1	4017.874	-425.7283	1	4040.365	-6.048413	1.163357E-008	0.008005	7
	11	17	79453.13	4051.567	-401.1354	1	4071.376	-5.654284	-1.301506E-008	0.0082134	7
	12	19	63140.62	4082.714	-389.8325	1	4101.283	-5.454275	8.671729E-008	0.007891	7
	13	20	50203.12	4116.302	-385.8556	1	4134.347	-5.355167	-6.151623E-009	0.0080839	7
	14	21	39890.62	4151.452	-392.5561	1	4169.97	-5.401756	-1.554355E-008	0.008112	7
	15	23	31640.63	4185.652	-406.4394	1	4205.339	-5.546204	-3.997812E-008	0.008079	7
	16	24	25171.88	4223.885	-431.1837	1	4245.836	-5.828691	-1.960815E-008	0.0080437	7
	17	26	20015.62	4255.073	-464.6759	1	4280.37	-6.232298	-5.203131E-008	0.0082261	7
	18	27	15890.62	4309.379	-509.1982	1	4339.359	-6.738848	-7.397024E-008	0.0081845	7
	19	28	12609.37	4359.469	-563.7223	1	4395.766	-7.368023	-1.165237E-008	0.0080913	7
	20	30	10078.13	4407.908	-629.352	1	4452.61	-8.125655	-3.852478E-008	0.0081052	7
	21	31	8015.625	4474.663	-713.1753	1	4531.14	-9.05568	-4.435369E-008	0.0080898	7
	22	32	6328.125	4528.123	-808.6556	1	4599.763	-10.12543	3.975462E-008	0.00802	7
	23	34	5015.625	4594.607	-929.2316	1	4687.631	-11.43351	1.679212E-008	0.0079912	7
	24	35	3984.375	4681.604	-1089.264	1	4806.653	-13.09792	-4.646338E-008	0.0081579	7
	25	36	3170.956	4742.154	-1248.7	1	4903.802	-14.7522	-3.963431E-008	0.0081036	7
	26	38	2527.573	4821.561	-1459.666	1	5037.666	-16.84302	1.330571E-008	0.007995	7
	27	39	1976.103	4921.715	-1740.554	1	5220.422	-19.47603	-4.026095E-008	0.0081009	7
	28	41	1577.524	5038.934	-2067.243	1	5446.499	-22.30609	-5.431223E-009	0.0081065	7
	29	42	1265.625	5132.431	-2442.723	1	5684.078	-25.45159	-5.306218E-009	0.0080054	7
	30	43	998.264	5260.919	-2943.799	1	6028.534	-29.22962	-3.715689E-008	0.0080757	7
	31	45	796.875	5402.25	-3527.961	1	6452.194	-33.14671	8.731547E-008	0.0080114	7
	32	46	627.7902	5564.174	-4297.392	1	7030.477	-37.68007	1.42665E-007	0.0078492	7
	33	47	505.5147	5743.315	-5159.476	1	7720.483	-41.93477	-4.497693E-008	0.0080819	7
	34	49	397.9953	5976.351	-6333.618	1	8708.128	-46.66241	3.953513E-009	0.0080767	7
	35	50	315.5048	6249.101	-7749.426	1	9955.14	-51.11746	4.001733E-009	0.0080725	7
	36	52	252.4038	6578.588	-9425.505	1	11494.26	-55.08665	1.472138E-009	0.0080076	6
	37	53	198.6229	7022.314	-11648.08	1	13601.12	-58.91535	8.803138E-010	0.0080082	6
	38	54	158.3615	7560.032	-14237.2	1	16119.93	-62.03146	1.019671E-009	0.0080046	6
	39	56	125.558	8277.899	-17503.32	1	19362.08	-64.68899	4.725734E-010	0.0080063	6
	40	57	100.4464	9201.358	-21315.84	1	23217.02	-66.6517	-2.15324E-010	0.0080074	6
	41	58	79.00281	10461.21	-26401.49	1	28398.52	-68.38476	9.535851E-010	0.0080063	6
	42	60	63.3446	12007.3	-31671.97	1	33871.66	-69.23756	4.94576E-011	0.0080028	6
	43	61	49.86702	14446.28	-39476.05	1	42036.34	-69.89988	4.539815E-011	0.0080032	6
	44	63	39.72458	17242.78	-47710.67	1	50730.88	-70.13	1.055876E-009	0.0080113	6
	45	64	31.6723	21108.91	-57681.86	1	61422.98	-69.8997	7.823189E-010	0.0080093	6
	46	65	24.93351	26295.22	-70141.98	1	74908.85	-69.4497	7.373391E-010	0.0080029	6
	47	67	19.86229	33025.39	-84041.52	1	90297.59	-68.5469	2.043418E-010	0.0080114	6
	48	68	15.83615	40891.75	-98945.5	1	107062.3	-67.54588	-3.25927E-010	0.0080112	5
	49	69	12.40079	53868.82	-119416.4	1	131004.3	-65.71983	-3.559587E-010	0.0080108	5
	50	71	9.93114	66804.98	-138814.3	1	154052.9	-64.30061	-6.602042E-010	0.0080133	5
	51	72	7.944915	83368.98	-161154.3	1	181441.7	-62.64639	8.654107E-011	0.0080062	5
	52	74	6.317385	103261.6	-184963.9	1	211836.2	-60.82626	-7.505949E-011	0.0080084	5
	53	76	5.008013	126694.3	-211882.2	1	246871.4	-59.12282	-3.060334E-010	0.0080045	5
	54	79	3.945707	153961.6	-241034.1	1	286009.8	-57.43141	3.903809E-010	0.0080153	5
	55	81	3.158693	182404.2	-270573.1	1	326314.4	-56.01451	-1.424882E-011	0.0080176	5
	56	85	2.504006	213619.5	-304755.9	1	372168.6	-54.97135	1.216362E-010	0.0079981	5
	57	87	1.998082	245304.1	-342443.4	1	421238.2	-54.38466	-2.668138E-010	0.0080098	5
	58	90	1.584686	281353.9	-386885.4	1	478372.6	-53.97431	1.982467E-011	0.0080582	5
	59	94	1.266892	316592.5	-439158.6	1	541378.8	-54.2119	-1.69577E-010	0.0079833	5
	60	98	0.999041	358851	-504676.2	1	619251.3	-54.5852	2.484107E-010	0.0080517	5
