EXPLAIN
TAG	EISPOT
TITLE	LABEL	Potentiostatic EIS	Test &Identifier
DATE	LABEL	11/3/2019	Date
TIME	LABEL	10:37:17	Time
NOTES	NOTES	1	&Notes...
	
PSTAT	PSTAT	REF600-11020	Potentiostat
VDC	POTEN	0.00000E+000	T	DC &Voltage (V)
FREQINIT	QUANT	1.00000E+006	Initial Fre&q. (Hz)
FREQFINAL	QUANT	1.00000E+000	Final Fre&q. (Hz)
PTSPERDEC	QUANT	1.00000E+001	Points/&decade
VAC	QUANT	2.50000E+001	AC &Voltage (mV rms)
AREA	QUANT	1.00000E-002	&Area (cm^2)
CONDIT	TWOPARAM	T	5.00000E+000	0.00000E+000	Conditionin&g	Time(s)	E(V)
DELAY	TWOPARAM	T	5.00000E+000	0.00000E+000	Init. De&lay	Time(s)	Stab.(mV/s)
SPEED	SELECTOR	1	&Optimize for:
ZGUESS	QUANT	1.00000E+005	E&stimated Z (ohms)
OCVCURVE	TABLE	19
	Pt	T	Vf	Vm	Ach	Over
	#	s	V vs. Ref.	V	V	bits
	0	0.258333	4.95265E-003	4.95265E-003	5.75932E-004	...........
	1	0.516667	4.95058E-003	4.84455E-003	5.77432E-004	...........
	2	0.775	4.93822E-003	4.75848E-003	5.76666E-004	...........
	3	1.03333	4.90437E-003	4.68106E-003	5.75399E-004	...........
	4	1.29167	4.84637E-003	4.61257E-003	5.72932E-004	...........
	5	1.55	4.77341E-003	4.55926E-003	5.76032E-004	...........
	6	1.80833	4.69811E-003	4.50767E-003	5.74099E-004	...........
	7	2.06667	4.62904E-003	4.47443E-003	5.76432E-004	...........
	8	2.325	4.56986E-003	4.44633E-003	5.79332E-004	...........
	9	2.58333	4.52118E-003	4.41672E-003	5.76699E-004	...........
	10	2.84167	4.48175E-003	4.39240E-003	5.77799E-004	...........
	11	3.1	4.44888E-003	4.35864E-003	5.74232E-004	...........
	12	3.35833	4.41961E-003	4.34071E-003	5.77299E-004	...........
	13	3.61667	4.39215E-003	4.31688E-003	5.79132E-004	...........
	14	3.875	4.36626E-003	4.29690E-003	5.78466E-004	...........
	15	4.13333	4.34222E-003	4.27712E-003	5.74599E-004	...........
	16	4.39167	4.32009E-003	4.26717E-003	5.77066E-004	...........
	17	4.65	4.30007E-003	4.24918E-003	5.80732E-004	...........
	18	4.90833	4.28230E-003	4.23587E-003	5.78099E-004	...........
EOC	QUANT	0.0042823	Open Circuit (V)
PSTATMODEL	IQUANT	4	Pstat Model
PSTATSECTION	LABEL	REF600-11020	Pstat Section
PSTATSERIALNO	LABEL	11020	Pstat Serial Number
CTRLMODE	IQUANT	1	Control Mode
IESTAB	IQUANT	0	I/E Stability
CASPEED	IQUANT	1	Control Amp Speed
CONVENTION	IQUANT	1	Current Convention
ICHRANGE	IQUANT	2	Ich Range
ICHRANGEMODE	TOGGLE	F	Ich Auto Range
ICHOFFSETENABLE	TOGGLE	T	Ich Offset Enable
ICHOFFSET	QUANT	0	Ich Offset (V)
ICHFILTER	IQUANT	3	Ich Filter
VCHRANGE	IQUANT	2	Vch Range
VCHRANGEMODE	TOGGLE	F	Vch Auto Range
VCHOFFSETENABLE	TOGGLE	T	Vch Offset Enable
VCHOFFSET	QUANT	0	Vch Offset (V)
VCHFILTER	IQUANT	3	Vch Filter
ACHRANGE	IQUANT	2	Ach Range
ACHOFFSETENABLE	TOGGLE	F	Ach Offset Enable
ACHOFFSET	QUANT	0	Ach Offset (V)
ACHFILTER	IQUANT	3	Ach Filter
IERANGELOWERLIMIT	IQUANT	1	I/E Range Lower Limit
IERANGEMODE	TOGGLE	F	I/E AutoRange
IERANGE	IQUANT	4	I/E Range
POSFEEDENABLE	TOGGLE	F	Positive Feedback IR Comp
POSFEEDRESISTANCE	QUANT	0	Positive Feedback Resistance (ohm)
ACHSELECT	IQUANT	0	Ach Select
CABLEID	IQUANT	14	Cable ID
DCCALDATE	LABEL	8/19/2019	DC Calibration Date
ACCALDATE	LABEL	8/19/2019	AC Calibration Date
THERMOSELECT	IQUANT	1	Thermo Select
FRAMEWORKVERSION	QUANT	6.33	Framework Version
INSTRUMENTVERSION	LABEL	3.50	Instrument Version
ZCURVE	TABLE
	Pt	Time	Freq	Zreal	Zimag	Zsig	Zmod	Zphz	Idc	Vdc	IERange
	#	s	Hz	ohm	ohm	V	ohm	°	A	V	#
	0	1	1000078	1889.912	-1457.081	1	2386.389	-37.63144	5.482181E-006	0.0070101	8
	1	3	794390.6	2137.669	-1504.013	1	2613.749	-35.1293	4.630491E-007	0.0064589	8
	2	4	630984.4	2394.471	-1545.399	1	2849.869	-32.83833	-4.512556E-007	0.0056235	8
	3	6	501234.4	2660.368	-1553.538	1	3080.752	-30.28305	-3.844358E-007	0.0063704	8
	4	7	398109.4	2935.624	-1559.667	1	3324.222	-27.98125	-2.601721E-006	0.0057101	8
	5	8	316265.6	3217.673	-1525.37	1	3560.923	-25.36376	-1.833321E-006	0.0059032	8
	6	10	251203.1	3483.945	-1476.994	1	3784.096	-22.97417	-1.525088E-006	0.0055604	8
	7	11	199546.9	3741.572	-1386.01	1	3990.036	-20.3264	3.880329E-006	0.0057482	8
	8	12	158578.1	3978.618	-1281.134	1	4179.797	-17.8488	-9.376581E-008	0.0054871	8
	9	14	125953.1	4180.484	-1102.242	1	4323.354	-14.77066	-1.665068E-006	0.0090638	7
	10	15	100078.1	4338.633	-984.883	1	4449.015	-12.78958	-1.1283E-006	0.0074406	7
	11	16	79453.13	4474.637	-871.7816	1	4558.769	-11.02468	-3.436164E-007	0.0049121	7
	12	18	63140.62	4565.889	-771.2073	1	4630.562	-9.58713	-7.728999E-007	0.0056189	7
	13	19	50203.12	4644.594	-689.2594	1	4695.458	-8.441109	-1.269305E-006	0.007279	7
	14	21	39890.62	4716.986	-622.5291	1	4757.888	-7.518221	-6.234577E-007	0.007389	7
	15	22	31640.63	4774.766	-563.4786	1	4807.899	-6.730447	4.769408E-007	0.0040423	7
	16	23	25171.88	4827.697	-529.7501	1	4856.675	-6.262094	1.001544E-006	0.0039861	7
	17	25	20015.62	4843.96	-507.1785	1	4870.439	-5.977277	-3.466699E-007	0.004906	7
	18	26	15890.62	4903.996	-506.4341	1	4930.076	-5.896017	8.76975E-007	0.0054799	7
	19	27	12609.37	4927.758	-527.584	1	4955.92	-6.11102	4.25029E-007	0.0062641	7
	20	29	10078.13	4940.67	-549.097	1	4971.089	-6.341723	-1.09621E-006	0.0063122	7
	21	30	8015.625	4980.543	-600.1235	1	5016.569	-6.870651	-6.244484E-007	0.0073849	7
	22	31	6328.125	5029.884	-673.0366	1	5074.713	-7.62134	1.123623E-006	0.0042049	7
	23	33	5015.625	5045.602	-769.595	1	5103.957	-8.672364	-9.129299E-007	0.007486	7
	24	34	3984.375	5100.014	-897.7266	1	5178.422	-9.98318	4.270808E-007	0.0062598	7
	25	36	3170.956	5153.375	-1059.011	1	5261.063	-11.61254	8.780923E-007	0.0054755	7
	26	37	2527.573	5190.628	-1250.885	1	5339.226	-13.5493	-2.778386E-007	0.0071212	7
	27	38	1976.103	5239.172	-1510.981	1	5452.705	-16.0876	-1.127668E-006	0.0074201	7
	28	40	1577.524	5332.236	-1821.498	1	5634.767	-18.86023	6.559261E-007	0.0059071	7
	29	41	1265.625	5408.687	-2186.279	1	5833.841	-22.00936	8.774281E-007	0.0054728	7
	30	42	998.264	5489.049	-2657.32	1	6098.443	-25.83223	9.389915E-008	0.0043518	7
	31	44	796.875	5600.303	-3217.728	1	6458.883	-29.88009	8.322288E-008	0.0043523	7
	32	45	627.7902	5737.396	-3958.864	1	6970.675	-34.60609	-6.25053E-007	0.0073794	7
	33	47	505.5147	5887.221	-4779.921	1	7583.338	-39.07365	-6.189955E-007	0.007376	7
	34	48	397.9953	6088.26	-5903.337	1	8480.349	-44.11651	6.213714E-009	0.0057555	7
	35	49	315.5048	6327.794	-7251.266	1	9624.02	-48.89053	5.073589E-009	0.0057591	7
	36	51	252.4038	6617.785	-8845.822	1	11047.34	-53.1989	7.468477E-010	0.0056972	6
	37	52	198.6229	7007.1	-10956.42	1	13005.48	-57.39933	1.424505E-009	0.0056841	6
	38	53	158.3615	7482.439	-13418.39	1	15363.6	-60.85484	3.222651E-010	0.0056959	6
	39	55	125.558	8105.421	-16513.75	1	18395.7	-63.85688	1.129948E-009	0.0056997	6
	40	56	100.4464	8893.384	-20168.26	1	22042.03	-66.20447	2.49695E-010	0.0056916	6
	41	58	79.00281	10016.2	-25000.92	1	26932.7	-68.16733	1.264565E-009	0.005691	6
	42	59	63.3446	11343.35	-30616.94	1	32650.71	-69.67071	7.004829E-010	0.0056999	6
	43	60	49.86702	13081.66	-37315.92	1	39542.48	-70.68111	-8.347941E-010	0.0056946	6
	44	62	39.72458	15668.1	-45569.86	1	48188.19	-71.0257	7.958834E-010	0.005704	6
	45	63	31.6723	18926.05	-55294.1	1	58443.41	-71.10497	-2.489165E-012	0.0057042	6
	46	65	24.93351	23448.52	-67800.38	1	71740.68	-70.92224	4.154445E-010	0.0056852	6
	47	66	19.86229	29281.11	-81747.34	1	86833.23	-70.29296	1.333938E-009	0.0056925	6
	48	67	15.83615	36128.57	-97855.8	1	104312.2	-69.73575	-8.925187E-010	0.005695	6
	49	69	12.40079	48243.2	-118643.3	1	128076.7	-67.87217	2.124864E-009	0.0056964	5
	50	70	9.93114	59561.08	-139635.8	1	151808	-66.89952	5.923942E-010	0.0056998	5
	51	72	7.944915	75305.87	-164018.5	1	180480	-65.33871	2.594103E-010	0.0056986	5
	52	74	6.317385	95020.3	-189816.5	1	212271.4	-63.40791	7.446592E-010	0.005686	5
	53	76	5.008013	118838.2	-219492	1	249598.2	-61.56783	4.128077E-010	0.0057113	5
	54	78	3.945707	147320	-252079.7	1	291971.5	-59.6972	-2.041727E-010	0.005694	5
	55	81	3.158693	177042	-284685.3	1	335245.6	-58.12308	3.566599E-010	0.0057142	5
	56	84	2.504006	211465.4	-322410.9	1	385572.8	-56.73962	-3.122165E-010	0.0056927	5
	57	87	1.998082	246946.7	-362064.3	1	438261.6	-55.70398	-1.020469E-010	0.00567	5
	58	90	1.584686	285572.7	-407352.4	1	497481.4	-54.96778	4.62235E-011	0.0057419	5
	59	94	1.266892	324522.4	-460785.5	1	563593.9	-54.8437	-1.03161E-010	0.0056798	5
	60	98	0.999041	369134.8	-527689	1	643984.6	-55.02602	2.15901E-010	0.0057349	5
