EXPLAIN
TAG	EISPOT
TITLE	LABEL	Potentiostatic EIS	Test &Identifier
DATE	LABEL	9/22/2019	Date
TIME	LABEL	10:24:06	Time
NOTES	NOTES	1	&Notes...
	
PSTAT	PSTAT	REF600-11020	Potentiostat
VDC	POTEN	0.00000E+000	T	DC &Voltage (V)
FREQINIT	QUANT	1.00000E+006	Initial Fre&q. (Hz)
FREQFINAL	QUANT	1.00000E+000	Final Fre&q. (Hz)
PTSPERDEC	QUANT	1.00000E+001	Points/&decade
VAC	QUANT	2.50000E+001	AC &Voltage (mV rms)
AREA	QUANT	1.00000E-002	&Area (cm^2)
CONDIT	TWOPARAM	T	5.00000E+000	0.00000E+000	Conditionin&g	Time(s)	E(V)
DELAY	TWOPARAM	T	5.00000E+000	0.00000E+000	Init. De&lay	Time(s)	Stab.(mV/s)
SPEED	SELECTOR	1	&Optimize for:
ZGUESS	QUANT	1.00000E+004	E&stimated Z (ohms)
OCVCURVE	TABLE	19
	Pt	T	Vf	Vm	Ach	Over
	#	s	V vs. Ref.	V	V	bits
	0	0.258333	1.48771E-003	1.48771E-003	5.49233E-004	...........
	1	0.516667	1.48019E-003	1.09410E-003	5.45533E-004	...........
	2	0.775	1.43462E-003	7.52661E-004	5.50866E-004	...........
	3	1.03333	1.30828E-003	4.54423E-004	5.47533E-004	...........
	4	1.29167	1.08812E-003	1.43533E-004	5.48566E-004	...........
	5	1.55	8.04091E-004	-9.62973E-005	5.44599E-004	...........
	6	1.80833	5.00170E-004	-3.27359E-004	5.47733E-004	...........
	7	2.06667	2.08139E-004	-5.54896E-004	5.49133E-004	...........
	8	2.325	-5.94113E-005	-7.77153E-004	5.44399E-004	...........
	9	2.58333	-3.04141E-004	-9.63589E-004	5.46599E-004	...........
	10	2.84167	-5.31457E-004	-1.15690E-003	5.51733E-004	...........
	11	3.1	-7.44081E-004	-1.31333E-003	5.50866E-004	...........
	12	3.35833	-9.42620E-004	-1.49236E-003	5.48433E-004	...........
	13	3.61667	-1.12864E-003	-1.66723E-003	5.48866E-004	...........
	14	3.875	-1.30668E-003	-1.86207E-003	5.56899E-004	...........
	15	4.13333	-1.48118E-003	-1.94682E-003	5.50133E-004	...........
	16	4.39167	-1.64924E-003	-2.05724E-003	5.47299E-004	...........
	17	4.65	-1.80245E-003	-2.21252E-003	5.48633E-004	...........
	18	4.90833	-1.94002E-003	-2.36713E-003	5.46666E-004	...........
EOC	QUANT	-0.00194	Open Circuit (V)
PSTATMODEL	IQUANT	4	Pstat Model
PSTATSECTION	LABEL	REF600-11020	Pstat Section
PSTATSERIALNO	LABEL	11020	Pstat Serial Number
CTRLMODE	IQUANT	1	Control Mode
IESTAB	IQUANT	0	I/E Stability
CASPEED	IQUANT	1	Control Amp Speed
CONVENTION	IQUANT	1	Current Convention
ICHRANGE	IQUANT	2	Ich Range
ICHRANGEMODE	TOGGLE	F	Ich Auto Range
ICHOFFSETENABLE	TOGGLE	T	Ich Offset Enable
ICHOFFSET	QUANT	0	Ich Offset (V)
ICHFILTER	IQUANT	3	Ich Filter
VCHRANGE	IQUANT	2	Vch Range
VCHRANGEMODE	TOGGLE	F	Vch Auto Range
VCHOFFSETENABLE	TOGGLE	T	Vch Offset Enable
VCHOFFSET	QUANT	0	Vch Offset (V)
VCHFILTER	IQUANT	3	Vch Filter
ACHRANGE	IQUANT	2	Ach Range
ACHOFFSETENABLE	TOGGLE	F	Ach Offset Enable
ACHOFFSET	QUANT	0	Ach Offset (V)
ACHFILTER	IQUANT	3	Ach Filter
IERANGELOWERLIMIT	IQUANT	1	I/E Range Lower Limit
IERANGEMODE	TOGGLE	F	I/E AutoRange
IERANGE	IQUANT	5	I/E Range
POSFEEDENABLE	TOGGLE	F	Positive Feedback IR Comp
POSFEEDRESISTANCE	QUANT	0	Positive Feedback Resistance (ohm)
ACHSELECT	IQUANT	0	Ach Select
CABLEID	IQUANT	14	Cable ID
DCCALDATE	LABEL	8/19/2019	DC Calibration Date
ACCALDATE	LABEL	8/19/2019	AC Calibration Date
THERMOSELECT	IQUANT	1	Thermo Select
FRAMEWORKVERSION	QUANT	6.33	Framework Version
INSTRUMENTVERSION	LABEL	3.50	Instrument Version
ZCURVE	TABLE
	Pt	Time	Freq	Zreal	Zimag	Zsig	Zmod	Zphz	Idc	Vdc	IERange
	#	s	Hz	ohm	ohm	V	ohm	°	A	V	#
	0	2	1000078	2346.059	-1997.525	1	3081.25	-40.41235	-7.613934E-006	0.0012596	8
	1	3	794390.6	2739.847	-2027.352	1	3408.36	-36.49962	7.147989E-006	-0.0008697	8
	2	4	630984.4	3127.438	-1998.023	1	3711.194	-32.57325	-2.326028E-006	-0.0002983	8
	3	6	501234.4	3502.838	-1935.982	1	4002.237	-28.92897	-1.84238E-008	-0.0003789	8
	4	7	398109.4	3858.343	-1811.325	1	4262.359	-25.14803	-2.970969E-006	0.0001215	8
	5	9	316265.6	4151.383	-1666.787	1	4473.496	-21.87555	-1.429122E-007	-0.0004543	8
	6	10	251203.1	4413.771	-1489.418	1	4658.298	-18.64686	-7.746049E-007	-8.83676E-005	8
	7	11	199546.9	4622.693	-1321.108	1	4807.766	-15.94928	-3.095374E-006	0.0002362	8
	8	13	158578.1	4794.339	-1151.595	1	4930.706	-13.50651	6.504034E-007	-0.0006038	8
	9	14	125953.1	4944.249	-947.8686	1	5034.288	-10.85257	2.4773E-007	-0.0011811	7
	10	15	100078.1	5032.109	-839.3107	1	5101.624	-9.469256	-4.621491E-008	-0.0003391	7
	11	17	79453.13	5110.379	-745.5896	1	5164.482	-8.300724	-3.841538E-008	-0.0004589	7
	12	18	63140.62	5171.795	-674.551	1	5215.6	-7.43107	-1.52857E-008	-0.0004492	7
	13	19	50203.12	5225.329	-617.8354	1	5261.729	-6.743263	9.356197E-008	-0.0005398	7
	14	21	39890.62	5269.53	-582.5278	1	5301.631	-6.30823	6.769906E-008	-0.0005817	7
	15	22	31640.63	5315.165	-563.8154	1	5344.985	-6.055107	-6.901801E-008	-0.0003885	7
	16	24	25171.88	5357.514	-560.4548	1	5386.749	-5.972046	4.838393E-008	-0.0005359	7
	17	25	20015.62	5401.29	-572.2675	1	5431.521	-6.047935	-5.969019E-008	-0.000277	7
	18	26	15890.62	5443.841	-602.2998	1	5477.059	-6.313456	-5.998709E-008	-0.0002756	7
	19	28	12609.37	5492.065	-645.7783	1	5529.901	-6.706266	-6.730529E-008	-0.0003905	7
	20	29	10078.13	5541.697	-706.5066	1	5586.551	-7.2654	7.598672E-009	-0.0005284	7
	21	30	8015.625	5594.108	-785.6425	1	5649.007	-7.994395	9.938056E-009	-0.0005597	7
	22	32	6328.125	5652.769	-892.0209	1	5722.718	-8.967469	-5.469106E-008	-0.0004057	7
	23	33	5015.625	5716.858	-1022.148	1	5807.517	-10.13711	-6.290311E-008	-0.0003731	7
	24	34	3984.375	5786.517	-1183.65	1	5906.335	-11.56055	6.781313E-008	-0.0005968	7
	25	36	3170.956	5862.103	-1380.898	1	6022.551	-13.25515	1.604355E-008	-0.0003828	7
	26	37	2527.573	5944.481	-1621.043	1	6161.545	-15.25351	9.574364E-008	-0.0005448	7
	27	39	1976.103	6047.57	-1942.059	1	6351.747	-17.80341	-3.766625E-008	-0.0004686	7
	28	40	1577.524	6155.648	-2304.33	1	6572.818	-20.52309	-6.268827E-008	-0.0003719	7
	29	41	1265.625	6291.738	-2733.262	1	6859.788	-23.48113	1.033432E-008	-0.0005601	7
	30	43	998.264	6422.869	-3305.087	1	7223.354	-27.22949	1.004972E-008	-0.0005636	7
	31	44	796.875	6586.133	-3964.72	1	7687.402	-31.0471	4.840938E-008	-0.0005369	7
	32	45	627.7902	6784.189	-4825.359	1	8325.222	-35.42292	1.265705E-007	-0.0006607	7
	33	47	505.5147	6998.724	-5777.965	1	9075.628	-39.5422	9.662222E-008	-0.0005501	7
	34	48	397.9953	7272.525	-7062.404	1	10137.41	-44.16022	1.052808E-009	-0.0005153	6
	35	50	315.5048	7583.488	-8608.958	1	11472.73	-48.62371	1.425264E-009	-0.0005134	6
	36	51	252.4038	7936.127	-10430.32	1	13106.25	-52.73355	1.118612E-009	-0.0005229	6
	37	52	198.6229	8390.545	-12848	1	15345.11	-56.85296	1.069798E-009	-0.0005168	6
	38	54	158.3615	8914.945	-15668.11	1	18026.81	-60.3607	6.325629E-010	-0.0005196	6
	39	55	125.558	9577.42	-19233.46	1	21486.11	-63.52871	1.207902E-009	-0.0005222	6
	40	56	100.4464	10357.84	-23440.14	1	25626.64	-66.1601	5.001544E-010	-0.0005229	6
	41	58	79.00281	11468.82	-29006.54	1	31191.56	-68.42678	6.935195E-011	-0.0005216	6
	42	59	63.3446	12625.99	-35151.46	1	37350.25	-70.24232	5.751509E-010	-0.0005217	6
	43	61	49.86702	14853.13	-43805.68	1	46255.3	-71.26981	6.224222E-010	-0.0005266	6
	44	62	39.72458	17058.5	-53556.36	1	56207.44	-72.33255	1.199448E-009	-0.0005221	6
	45	63	31.6723	19982.4	-65300.22	1	68289.2	-72.98546	8.90593E-010	-0.0005232	6
	46	65	24.93351	24386.53	-80543.23	1	84154.11	-73.15496	9.035782E-010	-0.0005239	6
	47	66	19.86229	29854.93	-98026.9	1	102472.4	-73.06143	5.98102E-010	-0.0005207	6
	48	67	15.83615	37687.2	-119005.6	1	124830.5	-72.42782	1.439917E-009	-0.0005227	5
	49	69	12.40079	47346.1	-146409.3	1	153874.4	-72.07973	1.319961E-009	-0.0005164	5
	50	70	9.93114	59578.45	-174595.6	1	184480.9	-71.15847	4.281056E-010	-0.0005149	5
	51	72	7.944915	75171.35	-207071	1	220293.2	-70.04798	1.176342E-009	-0.0005195	5
	52	74	6.317385	97086.8	-247648.7	1	265999.5	-68.59311	8.010951E-010	-0.0005199	5
	53	76	5.008013	124574.2	-294073.9	1	319371.5	-67.04174	6.893249E-010	-0.0005093	5
	54	78	3.945707	161108.7	-347456	1	382990.4	-65.12375	3.727102E-010	-0.0005212	5
	55	81	3.158693	202952.8	-401960.2	1	450290.8	-63.21043	4.354192E-010	-0.0005008	5
	56	84	2.504006	255463.7	-464336.2	1	529971.5	-61.18174	4.69304E-011	-0.0005194	5
	57	87	1.998082	314954.1	-528690.8	1	615394.2	-59.21671	1.139812E-011	-0.0005081	5
	58	90	1.584686	387341.8	-597808.4	1	712326.2	-57.05933	3.653264E-010	-0.0004693	5
	59	94	1.266892	462774.8	-667866.1	1	812530.3	-55.28131	3.221934E-011	-0.0004876	5
	60	98	0.999041	549805.3	-746654.1	1	927242.3	-53.6336	4.876534E-010	-0.000532	5
