EXPLAIN
TAG	EISPOT
TITLE	LABEL	Potentiostatic EIS	Test &Identifier
DATE	LABEL	10/14/2019	Date
TIME	LABEL	10:24:13	Time
NOTES	NOTES	1	&Notes...
	
PSTAT	PSTAT	REF600-11020	Potentiostat
VDC	POTEN	0.00000E+000	T	DC &Voltage (V)
FREQINIT	QUANT	1.00000E+006	Initial Fre&q. (Hz)
FREQFINAL	QUANT	1.00000E+000	Final Fre&q. (Hz)
PTSPERDEC	QUANT	1.00000E+001	Points/&decade
VAC	QUANT	2.50000E+001	AC &Voltage (mV rms)
AREA	QUANT	1.00000E-002	&Area (cm^2)
CONDIT	TWOPARAM	T	5.00000E+000	0.00000E+000	Conditionin&g	Time(s)	E(V)
DELAY	TWOPARAM	T	5.00000E+000	0.00000E+000	Init. De&lay	Time(s)	Stab.(mV/s)
SPEED	SELECTOR	1	&Optimize for:
ZGUESS	QUANT	1.00000E+004	E&stimated Z (ohms)
OCVCURVE	TABLE	19
	Pt	T	Vf	Vm	Ach	Over
	#	s	V vs. Ref.	V	V	bits
	0	0.258333	5.93359E-003	5.93359E-003	5.62866E-004	...........
	1	0.516667	5.93311E-003	5.90839E-003	5.65432E-004	...........
	2	0.775	5.93024E-003	5.88911E-003	5.65566E-004	...........
	3	1.03333	5.92235E-003	5.86694E-003	5.69032E-004	...........
	4	1.29167	5.90873E-003	5.85805E-003	5.72799E-004	...........
	5	1.55	5.89190E-003	5.85448E-003	5.70666E-004	...........
	6	1.80833	5.87617E-003	5.86101E-003	5.70732E-004	...........
	7	2.06667	5.86540E-003	5.87394E-003	5.74099E-004	...........
	8	2.325	5.86162E-003	5.88325E-003	5.72499E-004	...........
	9	2.58333	5.86464E-003	5.89804E-003	5.69532E-004	...........
	10	2.84167	5.87269E-003	5.90992E-003	5.68099E-004	...........
	11	3.1	5.88385E-003	5.93167E-003	5.68466E-004	...........
	12	3.35833	5.89718E-003	5.94871E-003	5.70499E-004	...........
	13	3.61667	5.91247E-003	5.96652E-003	5.69166E-004	...........
	14	3.875	5.92935E-003	5.98455E-003	5.67832E-004	...........
	15	4.13333	5.94713E-003	6.00537E-003	5.70066E-004	...........
	16	4.39167	5.96579E-003	6.04329E-003	5.66632E-004	...........
	17	4.65	5.98462E-003	5.96647E-003	5.61966E-004	...........
	18	4.90833	5.99021E-003	5.55479E-003	5.73132E-004	...........
EOC	QUANT	0.0059902	Open Circuit (V)
PSTATMODEL	IQUANT	4	Pstat Model
PSTATSECTION	LABEL	REF600-11020	Pstat Section
PSTATSERIALNO	LABEL	11020	Pstat Serial Number
CTRLMODE	IQUANT	1	Control Mode
IESTAB	IQUANT	0	I/E Stability
CASPEED	IQUANT	1	Control Amp Speed
CONVENTION	IQUANT	1	Current Convention
ICHRANGE	IQUANT	2	Ich Range
ICHRANGEMODE	TOGGLE	F	Ich Auto Range
ICHOFFSETENABLE	TOGGLE	T	Ich Offset Enable
ICHOFFSET	QUANT	0	Ich Offset (V)
ICHFILTER	IQUANT	3	Ich Filter
VCHRANGE	IQUANT	2	Vch Range
VCHRANGEMODE	TOGGLE	F	Vch Auto Range
VCHOFFSETENABLE	TOGGLE	T	Vch Offset Enable
VCHOFFSET	QUANT	0	Vch Offset (V)
VCHFILTER	IQUANT	3	Vch Filter
ACHRANGE	IQUANT	2	Ach Range
ACHOFFSETENABLE	TOGGLE	F	Ach Offset Enable
ACHOFFSET	QUANT	0	Ach Offset (V)
ACHFILTER	IQUANT	3	Ach Filter
IERANGELOWERLIMIT	IQUANT	1	I/E Range Lower Limit
IERANGEMODE	TOGGLE	F	I/E AutoRange
IERANGE	IQUANT	6	I/E Range
POSFEEDENABLE	TOGGLE	F	Positive Feedback IR Comp
POSFEEDRESISTANCE	QUANT	0	Positive Feedback Resistance (ohm)
ACHSELECT	IQUANT	0	Ach Select
CABLEID	IQUANT	14	Cable ID
DCCALDATE	LABEL	8/19/2019	DC Calibration Date
ACCALDATE	LABEL	8/19/2019	AC Calibration Date
THERMOSELECT	IQUANT	1	Thermo Select
FRAMEWORKVERSION	QUANT	6.33	Framework Version
INSTRUMENTVERSION	LABEL	3.50	Instrument Version
ZCURVE	TABLE
	Pt	Time	Freq	Zreal	Zimag	Zsig	Zmod	Zphz	Idc	Vdc	IERange
	#	s	Hz	ohm	ohm	V	ohm	°	A	V	#
	0	2	1000078	2323.554	-1538.492	1	2786.729	-33.50969	3.071734E-006	0.0084642	8
	1	3	794390.6	2629.424	-1445.11	1	3000.369	-28.79283	-6.488312E-006	0.0091915	8
	2	4	630984.4	2888.388	-1320.049	1	3175.738	-24.56132	1.163574E-006	0.0079387	8
	3	6	501234.4	3103.055	-1171.999	1	3317.007	-20.69115	1.190592E-006	0.0074171	8
	4	7	398109.4	3258.821	-1020.231	1	3414.789	-17.38364	-2.23329E-006	0.0080437	8
	5	8	316265.6	3390.301	-873.0945	1	3500.919	-14.44142	4.031745E-006	0.0069554	8
	6	10	251203.1	3481.607	-734.3896	1	3558.218	-11.91103	1.015555E-006	0.0073354	8
	7	11	199546.9	3546.18	-639.5316	1	3603.386	-10.22305	1.165052E-006	0.0073275	8
	8	13	158578.1	3588.908	-545.2729	1	3630.094	-8.639041	1.172633E-006	0.0073451	8
	9	14	125953.1	3655.431	-443.1117	1	3682.19	-6.911676	5.728974E-007	0.0058685	7
	10	15	100078.1	3676.884	-395.4526	1	3698.088	-6.138624	3.278648E-008	0.0075273	7
	11	17	79453.13	3704.914	-368.6669	1	3723.211	-5.682655	-3.765123E-008	0.0075788	7
	12	18	63140.62	3730.675	-350.3582	1	3747.091	-5.365072	-7.198872E-008	0.0076732	7
	13	19	50203.12	3757.012	-341.8025	1	3772.528	-5.1983	-1.71703E-008	0.0075278	7
	14	21	39890.62	3783.168	-343.1314	1	3798.697	-5.182518	7.272477E-008	0.0073985	7
	15	22	31640.63	3811.226	-355.5309	1	3827.773	-5.329424	-7.528384E-009	0.0075884	7
	16	24	25171.88	3839.87	-375.1627	1	3858.153	-5.580198	-6.712646E-009	0.007589	7
	17	25	20015.62	3872.068	-400.0004	1	3892.674	-5.897966	1.321973E-008	0.0074742	7
	18	26	15890.62	3906.56	-444.0904	1	3931.721	-6.485435	-4.705564E-008	0.0076886	7
	19	28	12609.37	3944.883	-495.9413	1	3975.935	-7.165497	-1.236027E-008	0.0075154	7
	20	29	10078.13	3983.442	-555.5696	1	4021.998	-7.93981	-4.110328E-008	0.0076296	7
	21	30	8015.625	4036.129	-629.0696	1	4084.858	-8.858824	-3.799345E-008	0.0075602	7
	22	32	6328.125	4072.312	-731.5859	1	4137.504	-10.18448	5.739138E-008	0.0074496	7
	23	33	5015.625	4123.818	-847.9483	1	4210.094	-11.61933	3.702299E-008	0.0074253	7
	24	34	3984.375	4168.6	-985.454	1	4283.497	-13.30051	-3.659953E-008	0.0075635	7
	25	36	3170.956	4236.344	-1170.637	1	4395.111	-15.44718	-3.673705E-008	0.0075648	7
	26	37	2527.573	4301.291	-1386.862	1	4519.346	-17.87085	7.397806E-008	0.0073859	7
	27	38	1976.103	4382.069	-1679.459	1	4692.879	-20.96968	-5.393709E-009	0.0075808	7
	28	40	1577.524	4428.622	-1989.696	1	4855.057	-24.19349	6.163573E-008	0.0074491	7
	29	41	1265.625	4565.447	-2403.221	1	5159.339	-27.76202	-3.693552E-008	0.0075677	7
	30	42	998.264	4685.695	-2922.274	1	5522.266	-31.95008	1.265022E-008	0.0074724	7
	31	44	796.875	4827.63	-3524.385	1	5977.231	-36.13111	3.86654E-008	0.007422	7
	32	45	627.7902	4998.254	-4307.961	1	6598.566	-40.75783	-7.009368E-008	0.0076634	7
	33	46	505.5147	5183.183	-5176.118	1	7325.133	-44.96093	-3.77194E-008	0.0075624	7
	34	48	397.9953	5424.22	-6349.26	1	8350.764	-49.49249	3.721026E-009	0.0075565	7
	35	49	315.5048	5703.227	-7758.575	1	9629.24	-53.68088	5.359255E-009	0.0075528	7
	36	50	252.4038	6025.553	-9419.65	1	11182	-57.39381	1.351028E-009	0.0074931	6
	37	52	198.6229	6444.348	-11620.81	1	13288.07	-60.98934	8.119434E-010	0.0074914	6
	38	53	158.3615	6940.564	-14190.1	1	15796.53	-63.93613	7.834853E-010	0.0074898	6
	39	55	125.558	7571.006	-17433.6	1	19006.59	-66.52582	8.498749E-010	0.0074889	6
	40	56	100.4464	8342.579	-21245.74	1	22824.99	-68.56152	-6.083594E-011	0.0074864	6
	41	57	79.00281	9464.216	-26345.17	1	27993.55	-70.23972	1.613044E-009	0.0074899	6
	42	59	63.3446	11005.31	-31907.3	1	33751.93	-70.96991	4.616998E-010	0.0074866	6
	43	60	49.86702	12570.03	-39719.98	1	41661.52	-72.43918	8.118994E-010	0.0074885	6
	44	61	39.72458	14897.71	-48273.8	1	50520.3	-72.84932	8.687436E-010	0.007492	6
	45	63	31.6723	18098.2	-58900.14	1	61617.95	-72.91942	1.368334E-009	0.0074892	6
	46	64	24.93351	22328.23	-72104.13	1	75482.15	-72.794	5.772246E-010	0.0074899	6
	47	66	19.86229	27797.6	-87415.73	1	91729.05	-72.3597	1.364879E-009	0.0074983	6
	48	67	15.83615	35442.27	-104418.7	1	110269.8	-71.25153	-2.969816E-010	0.0074973	5
	49	68	12.40079	44433.91	-128534.6	1	135998.2	-70.92992	2.246099E-010	0.0074958	5
	50	70	9.93114	57953.55	-152230.4	1	162888.6	-69.15835	1.164045E-009	0.0074937	5
	51	71	7.944915	73229.16	-180659.9	1	194937.2	-67.9352	-5.474582E-011	0.0075014	5
	52	73	6.317385	93172.77	-212592.9	1	232114	-66.33367	-4.747999E-011	0.0074988	5
	53	75	5.008013	118657.3	-249164.1	1	275975.2	-64.53519	-1.13177E-010	0.0074898	5
	54	77	3.945707	150363.8	-289918.4	1	326591.4	-62.58687	4.63935E-010	0.007503	5
	55	80	3.158693	185709	-331979.6	1	380392.3	-60.7774	-9.945245E-011	0.0074901	5
	56	83	2.504006	228013.7	-378378.1	1	441769.4	-58.92649	4.399596E-010	0.0074887	5
	57	86	1.998082	273300.8	-426528.1	1	506576.3	-57.35001	-1.095132E-010	0.0075313	5
	58	89	1.584686	324439.6	-481790.4	1	580846.8	-56.04351	2.062629E-010	0.0075304	5
	59	93	1.266892	377447.3	-539152.3	1	658142.6	-55.00508	-1.418127E-010	0.0075243	5
	60	97	0.999041	436382.1	-609573.3	1	749672.6	-54.40183	2.564818E-010	0.0074784	5
