EXPLAIN
TAG	EISPOT
TITLE	LABEL	Potentiostatic EIS	Test &Identifier
DATE	LABEL	10/20/2019	Date
TIME	LABEL	10:07:59	Time
NOTES	NOTES	1	&Notes...
	
PSTAT	PSTAT	REF600-11020	Potentiostat
VDC	POTEN	0.00000E+000	T	DC &Voltage (V)
FREQINIT	QUANT	1.00000E+006	Initial Fre&q. (Hz)
FREQFINAL	QUANT	1.00000E+000	Final Fre&q. (Hz)
PTSPERDEC	QUANT	1.00000E+001	Points/&decade
VAC	QUANT	2.50000E+001	AC &Voltage (mV rms)
AREA	QUANT	1.00000E-002	&Area (cm^2)
CONDIT	TWOPARAM	T	5.00000E+000	0.00000E+000	Conditionin&g	Time(s)	E(V)
DELAY	TWOPARAM	T	5.00000E+000	0.00000E+000	Init. De&lay	Time(s)	Stab.(mV/s)
SPEED	SELECTOR	1	&Optimize for:
ZGUESS	QUANT	1.00000E+005	E&stimated Z (ohms)
OCVCURVE	TABLE	19
	Pt	T	Vf	Vm	Ach	Over
	#	s	V vs. Ref.	V	V	bits
	0	0.258333	3.39344E-003	3.39344E-003	5.53399E-004	...........
	1	0.516667	3.38641E-003	3.02563E-003	5.55266E-004	...........
	2	0.775	3.34448E-003	2.74062E-003	5.59699E-004	...........
	3	1.03333	3.23017E-003	2.48131E-003	5.58899E-004	...........
	4	1.29167	3.03487E-003	2.24314E-003	5.50133E-004	...........
	5	1.55	2.78618E-003	1.90393E-003	5.52799E-004	...........
	6	1.80833	2.51115E-003	1.47096E-003	5.54299E-004	...........
	7	2.06667	2.21593E-003	1.33916E-003	5.49599E-004	...........
	8	2.325	1.91030E-003	1.16499E-003	5.45099E-004	...........
	9	2.58333	1.62540E-003	1.05679E-003	5.46799E-004	...........
	10	2.84167	1.39124E-003	9.89562E-004	5.39699E-004	...........
	11	3.1	1.21633E-003	9.49040E-004	5.43466E-004	...........
	12	3.35833	1.09428E-003	9.32898E-004	5.41033E-004	...........
	13	3.61667	1.00214E-003	2.75908E-004	5.50799E-004	...........
	14	3.875	8.92102E-004	4.00391E-004	5.44866E-004	...........
	15	4.13333	7.34153E-004	3.29830E-004	5.40599E-004	...........
	16	4.39167	5.60049E-004	2.05789E-004	5.50833E-004	...........
	17	4.65	4.16062E-004	1.26952E-004	5.53466E-004	...........
	18	4.90833	3.07695E-004	4.35406E-005	5.48999E-004	...........
EOC	QUANT	0.0003077	Open Circuit (V)
PSTATMODEL	IQUANT	4	Pstat Model
PSTATSECTION	LABEL	REF600-11020	Pstat Section
PSTATSERIALNO	LABEL	11020	Pstat Serial Number
CTRLMODE	IQUANT	1	Control Mode
IESTAB	IQUANT	0	I/E Stability
CASPEED	IQUANT	1	Control Amp Speed
CONVENTION	IQUANT	1	Current Convention
ICHRANGE	IQUANT	2	Ich Range
ICHRANGEMODE	TOGGLE	F	Ich Auto Range
ICHOFFSETENABLE	TOGGLE	T	Ich Offset Enable
ICHOFFSET	QUANT	0	Ich Offset (V)
ICHFILTER	IQUANT	3	Ich Filter
VCHRANGE	IQUANT	2	Vch Range
VCHRANGEMODE	TOGGLE	F	Vch Auto Range
VCHOFFSETENABLE	TOGGLE	T	Vch Offset Enable
VCHOFFSET	QUANT	0	Vch Offset (V)
VCHFILTER	IQUANT	3	Vch Filter
ACHRANGE	IQUANT	2	Ach Range
ACHOFFSETENABLE	TOGGLE	F	Ach Offset Enable
ACHOFFSET	QUANT	0	Ach Offset (V)
ACHFILTER	IQUANT	3	Ach Filter
IERANGELOWERLIMIT	IQUANT	1	I/E Range Lower Limit
IERANGEMODE	TOGGLE	F	I/E AutoRange
IERANGE	IQUANT	3	I/E Range
POSFEEDENABLE	TOGGLE	F	Positive Feedback IR Comp
POSFEEDRESISTANCE	QUANT	0	Positive Feedback Resistance (ohm)
ACHSELECT	IQUANT	0	Ach Select
CABLEID	IQUANT	14	Cable ID
DCCALDATE	LABEL	8/19/2019	DC Calibration Date
ACCALDATE	LABEL	8/19/2019	AC Calibration Date
THERMOSELECT	IQUANT	1	Thermo Select
FRAMEWORKVERSION	QUANT	6.33	Framework Version
INSTRUMENTVERSION	LABEL	3.50	Instrument Version
ZCURVE	TABLE
	Pt	Time	Freq	Zreal	Zimag	Zsig	Zmod	Zphz	Idc	Vdc	IERange
	#	s	Hz	ohm	ohm	V	ohm	°	A	V	#
	0	1	1000078	2713.467	-2135.7	1	3453.132	-38.20538	2.027041E-006	0.0019243	8
	1	3	794390.6	3145.919	-2127.148	1	3797.573	-34.06503	-2.120299E-006	0.0024123	8
	2	4	630984.4	3546.965	-2054.345	1	4098.938	-30.07874	7.643112E-007	0.0019655	8
	3	6	501234.4	3945.987	-1923.776	1	4389.958	-25.99049	-1.30119E-006	0.0021609	8
	4	7	398109.4	4265.321	-1772.936	1	4619.12	-22.57085	6.179473E-007	0.0017129	8
	5	8	316265.6	4530.301	-1612.114	1	4808.59	-19.58817	2.446371E-006	0.0012381	8
	6	10	251203.1	4770.576	-1434.085	1	4981.465	-16.73133	-1.019415E-006	0.0021319	8
	7	11	199546.9	4937.524	-1252.052	1	5093.798	-14.22907	-1.480381E-007	0.0018845	8
	8	13	158578.1	5076.931	-1105.01	1	5195.794	-12.2791	3.821308E-006	0.0011489	8
	9	15	125953.1	5228.025	-896.7239	1	5304.372	-9.73281	-4.855524E-008	0.0015739	7
	10	16	100078.1	5310.3	-795.287	1	5369.522	-8.517491	-3.927178E-008	0.0018208	7
	11	17	79453.13	5384.268	-727.4929	1	5433.193	-7.694894	-5.332369E-008	0.0018804	7
	12	19	63140.62	5438.436	-673.183	1	5479.941	-7.056321	-4.977007E-008	0.0018653	7
	13	20	50203.12	5497.525	-637.4835	1	5534.362	-6.614379	5.407375E-008	0.0016332	7
	14	21	39890.62	5553.589	-616.8732	1	5587.744	-6.338233	1.565759E-008	0.0017164	7
	15	23	31640.63	5602.608	-618.5751	1	5636.653	-6.300418	-4.936691E-008	0.0018667	7
	16	24	25171.88	5654.258	-633.101	1	5689.591	-6.388735	4.995198E-009	0.0018058	7
	17	25	20015.62	5707.709	-646.2932	1	5744.183	-6.460178	-5.210946E-008	0.0018359	7
	18	27	15890.62	5766.84	-706.9866	1	5810.015	-6.989309	2.176084E-009	0.0017208	7
	19	28	12609.37	5827.25	-767.1845	1	5877.535	-7.500121	5.071862E-008	0.0016422	7
	20	29	10078.13	5887.9	-848.2483	1	5948.688	-8.197989	7.735193E-008	0.0016371	7
	21	31	8015.625	5953.774	-943.2763	1	6028.034	-9.002733	-5.18438E-008	0.0018604	7
	22	33	6328.125	6031.807	-1083.676	1	6128.381	-10.18511	-5.197353E-008	0.0018608	7
	23	34	5015.625	6109.994	-1243.87	1	6235.322	-11.507	-4.488676E-008	0.0018296	7
	24	35	3984.375	6192.444	-1418.543	1	6352.844	-12.9025	3.223218E-008	0.0017694	7
	25	37	3170.956	6289.978	-1685.13	1	6511.795	-14.99775	-4.754729E-008	0.0018311	7
	26	38	2527.573	6393.864	-1984.027	1	6694.614	-17.23921	-5.167584E-008	0.0018654	7
	27	40	1976.103	6522.912	-2379.915	1	6943.513	-20.04473	1.275008E-007	0.0016246	7
	28	41	1577.524	6652.15	-2825.898	1	7227.503	-23.01626	-3.806317E-008	0.0018902	7
	29	42	1265.625	6805.637	-3363.38	1	7591.377	-26.29881	-5.883758E-008	0.0019013	7
	30	44	998.264	7001.479	-4064.009	1	8095.485	-30.13303	-5.505482E-008	0.0019032	7
	31	45	796.875	7211.493	-4887.215	1	8711.516	-34.12542	-4.007799E-008	0.0018892	7
	32	46	627.7902	7491.375	-5943.151	1	9562.52	-38.42611	-4.759861E-008	0.0018219	7
	33	48	505.5147	7789.41	-7104.487	1	10542.71	-42.367	-5.848645E-009	0.0017418	6
	34	49	397.9953	8174.274	-8673.301	1	11918.26	-46.69661	2.541135E-010	0.0017483	6
	35	50	315.5048	8630.232	-10547.21	1	13628.08	-50.70832	-9.332726E-011	0.0017522	6
	36	52	252.4038	9157.725	-12748.24	1	15696.54	-54.30834	-2.665033E-010	0.0017546	6
	37	53	198.6229	9860.14	-15652.97	1	18499.67	-57.79231	1.148702E-009	0.0017475	6
	38	54	158.3615	10695.39	-19017.41	1	21818.65	-60.6466	-1.53483E-010	0.0017495	6
	39	56	125.558	11816.42	-23243.08	1	26074.29	-63.05192	4.748008E-010	0.0017482	6
	40	57	100.4464	13158.35	-28132.29	1	31057.49	-64.93304	1.61993E-009	0.0017496	6
	41	58	79.00281	15115.32	-34777.85	1	37920.6	-66.50903	-6.601619E-010	0.0017499	6
	42	60	63.3446	16718.56	-41932.42	1	45142.42	-68.26271	1.331183E-009	0.0017495	6
	43	61	49.86702	21062.36	-50336.14	1	54565.09	-67.29391	-8.109632E-010	0.001747	6
	44	63	39.72458	25396.19	-61474.5	1	66513.76	-67.55362	5.188934E-010	0.0017494	6
	45	64	31.6723	30954.55	-73490.2	1	79743.3	-67.15886	1.371269E-009	0.0017453	6
	46	66	24.93351	39350.62	-88375.67	1	96740.5	-65.99825	4.003142E-011	0.0017444	6
	47	67	19.86229	48964.97	-103934.5	1	114891	-64.77423	-1.852585E-010	0.0017535	5
	48	68	15.83615	59862.75	-121433.5	1	135387	-63.7582	-9.41071E-010	0.0017528	5
	49	70	12.40079	75691.41	-140931.9	1	159971.8	-61.76073	-8.273322E-010	0.0017545	5
	50	71	9.93114	94401.23	-164224.2	1	189423.3	-60.10836	3.952238E-011	0.001756	5
	51	73	7.944915	115464.8	-187238.2	1	219977.8	-58.33897	1.080613E-010	0.0017607	5
	52	75	6.317385	136860.7	-210218.5	1	250843.9	-56.93424	-7.242526E-011	0.0017656	5
	53	77	5.008013	162221	-236989.7	1	287192.9	-55.60809	1.238381E-010	0.0017445	5
	54	79	3.945707	189646.2	-268101.2	1	328396	-54.72563	4.680687E-010	0.001759	5
	55	82	3.158693	216932.7	-301380.3	1	371335.3	-54.25377	-4.330696E-011	0.0017361	5
	56	85	2.504006	246937.7	-342089.6	1	421904.6	-54.17633	4.211911E-010	0.001763	5
	57	88	1.998082	278516.5	-389240.7	1	478622.8	-54.41484	3.793795E-010	0.001777	5
	58	91	1.584686	314112.5	-445995.9	1	545508.1	-54.84317	1.580101E-010	0.0017109	5
	59	95	1.266892	351761.2	-514327.5	1	623112.1	-55.63082	2.847758E-010	0.0017643	5
	60	99	0.999041	399239.1	-600988.3	1	721511.4	-56.40374	-7.691028E-011	0.0017298	5
