EXPLAIN
TAG	EISPOT
TITLE	LABEL	Potentiostatic EIS	Test &Identifier
DATE	LABEL	11/15/2019	Date
TIME	LABEL	10:29:14	Time
NOTES	NOTES	4	&Notes...
	
	
	
	
PSTAT	PSTAT	REF600-11020	Potentiostat
VDC	POTEN	0.00000E+000	T	DC &Voltage (V)
FREQINIT	QUANT	1.00000E+006	Initial Fre&q. (Hz)
FREQFINAL	QUANT	1.00000E+000	Final Fre&q. (Hz)
PTSPERDEC	QUANT	1.00000E+001	Points/&decade
VAC	QUANT	2.50000E+001	AC &Voltage (mV rms)
AREA	QUANT	1.00000E-002	&Area (cm^2)
CONDIT	TWOPARAM	T	5.00000E+000	0.00000E+000	Conditionin&g	Time(s)	E(V)
DELAY	TWOPARAM	T	5.00000E+000	0.00000E+000	Init. De&lay	Time(s)	Stab.(mV/s)
SPEED	SELECTOR	0	&Optimize for:
ZGUESS	QUANT	1.00000E+005	E&stimated Z (ohms)
OCVCURVE	TABLE	19
	Pt	T	Vf	Vm	Ach	Over
	#	s	V vs. Ref.	V	V	bits
	0	0.258333	5.13324E-003	5.13324E-003	5.64499E-004	...........
	1	0.516667	5.13156E-003	5.04523E-003	5.63132E-004	...........
	2	0.775	5.12149E-003	4.97501E-003	5.63499E-004	...........
	3	1.03333	5.09410E-003	4.92178E-003	5.67432E-004	...........
	4	1.29167	5.04792E-003	4.87100E-003	5.67132E-004	...........
	5	1.55	4.99129E-003	4.83564E-003	5.62299E-004	...........
	6	1.80833	4.93475E-003	4.80321E-003	5.57399E-004	...........
	7	2.06667	4.88483E-003	4.77795E-003	5.63532E-004	...........
	8	2.325	4.84357E-003	4.75997E-003	5.65366E-004	...........
	9	2.58333	4.81051E-003	4.74602E-003	5.65699E-004	...........
	10	2.84167	4.78448E-003	4.73135E-003	5.68432E-004	...........
	11	3.1	4.76411E-003	4.72338E-003	5.63732E-004	...........
	12	3.35833	4.74802E-003	4.71600E-003	5.61632E-004	...........
	13	3.61667	4.73529E-003	4.71013E-003	5.62199E-004	...........
	14	3.875	4.72527E-003	4.70368E-003	5.68199E-004	...........
	15	4.13333	4.71725E-003	4.69769E-003	5.73199E-004	...........
	16	4.39167	4.71043E-003	4.69206E-003	5.69266E-004	...........
	17	4.65	4.70421E-003	4.68631E-003	5.68566E-004	...........
	18	4.90833	4.69842E-003	4.68818E-003	5.71866E-004	...........
EOC	QUANT	0.0046984	Open Circuit (V)
PSTATMODEL	IQUANT	4	Pstat Model
PSTATSECTION	LABEL	REF600-11020	Pstat Section
PSTATSERIALNO	LABEL	11020	Pstat Serial Number
CTRLMODE	IQUANT	1	Control Mode
IESTAB	IQUANT	0	I/E Stability
CASPEED	IQUANT	1	Control Amp Speed
CONVENTION	IQUANT	1	Current Convention
ICHRANGE	IQUANT	2	Ich Range
ICHRANGEMODE	TOGGLE	F	Ich Auto Range
ICHOFFSETENABLE	TOGGLE	T	Ich Offset Enable
ICHOFFSET	QUANT	0	Ich Offset (V)
ICHFILTER	IQUANT	3	Ich Filter
VCHRANGE	IQUANT	2	Vch Range
VCHRANGEMODE	TOGGLE	F	Vch Auto Range
VCHOFFSETENABLE	TOGGLE	T	Vch Offset Enable
VCHOFFSET	QUANT	0	Vch Offset (V)
VCHFILTER	IQUANT	3	Vch Filter
ACHRANGE	IQUANT	2	Ach Range
ACHOFFSETENABLE	TOGGLE	F	Ach Offset Enable
ACHOFFSET	QUANT	0	Ach Offset (V)
ACHFILTER	IQUANT	3	Ach Filter
IERANGELOWERLIMIT	IQUANT	1	I/E Range Lower Limit
IERANGEMODE	TOGGLE	F	I/E AutoRange
IERANGE	IQUANT	4	I/E Range
POSFEEDENABLE	TOGGLE	F	Positive Feedback IR Comp
POSFEEDRESISTANCE	QUANT	0	Positive Feedback Resistance (ohm)
ACHSELECT	IQUANT	0	Ach Select
CABLEID	IQUANT	14	Cable ID
DCCALDATE	LABEL	8/19/2019	DC Calibration Date
ACCALDATE	LABEL	8/19/2019	AC Calibration Date
THERMOSELECT	IQUANT	1	Thermo Select
FRAMEWORKVERSION	QUANT	6.33	Framework Version
INSTRUMENTVERSION	LABEL	3.50	Instrument Version
ZCURVE	TABLE
	Pt	Time	Freq	Zreal	Zimag	Zsig	Zmod	Zphz	Idc	Vdc	IERange
	#	s	Hz	ohm	ohm	V	ohm	°	A	V	#
	0	1	1000078	2261.11	-1267.213	1	2591.997	-29.26795	8.576718E-006	0.0053031	8
	1	1	794390.6	2481.658	-1173.009	1	2744.918	-25.29876	2.125832E-006	0.0066007	8
	2	2	630984.4	2678.666	-1053.35	1	2878.333	-21.46659	6.716326E-006	0.005201	8
	3	2	501234.4	2829.54	-934.1476	1	2979.753	-18.27018	-1.970448E-006	0.0068925	8
	4	2	398109.4	2944.486	-811.6505	1	3054.304	-15.41092	8.469679E-007	0.0067808	8
	5	3	316265.6	3041.405	-709.5214	1	3123.07	-13.13153	-8.103028E-008	0.0060122	8
	6	3	251203.1	3113.944	-619.8545	1	3175.038	-11.25801	-2.654328E-006	0.0062579	8
	7	3	199546.9	3166.451	-542.2294	1	3212.542	-9.71719	3.947726E-006	0.0062902	8
	8	4	158578.1	3213.553	-487.2679	1	3250.285	-8.622025	-4.440573E-006	0.0066361	8
	9	4	125953.1	3259.204	-397.7648	1	3283.386	-6.95817	-1.573368E-006	0.0093819	7
	10	4	100078.1	3295.738	-369.7146	1	3316.41	-6.400658	1.073871E-006	0.0048597	7
	11	5	79453.13	3323.873	-359.0901	1	3343.214	-6.165957	3.731938E-007	0.0068191	7
	12	5	63140.62	3353.599	-356.1324	1	3372.456	-6.061754	-7.013948E-007	0.0060791	7
	13	5	50203.12	3385.146	-362.5433	1	3404.505	-6.112978	-7.024793E-007	0.0060744	7
	14	5	39890.62	3416.771	-376.8843	1	3437.494	-6.29452	3.736657E-007	0.0068045	7
	15	6	31640.63	3452.841	-400.8316	1	3476.029	-6.621683	7.858954E-007	0.004518	7
	16	6	25171.88	3488.418	-432.8934	1	3515.175	-7.073926	-3.052658E-007	0.0076229	7
	17	6	20015.62	3529.844	-473.5576	1	3561.469	-7.641075	3.730438E-007	0.0068086	7
	18	7	15890.62	3576.452	-528.3593	1	3615.269	-8.403682	5.169063E-008	0.0072411	7
	19	7	12609.37	3630.199	-595.3572	1	3678.695	-9.313669	5.896561E-007	0.0065007	7
	20	7	10078.13	3686.937	-667.6859	1	3746.906	-10.26473	7.872455E-007	0.0045226	7
	21	8	8015.625	3749.85	-757.748	1	3825.645	-11.42416	7.861329E-007	0.0045186	7
	22	8	6328.125	3824.814	-866.7965	1	3921.803	-12.76894	-6.324667E-007	0.0078634	7
	23	8	5015.625	3909.091	-993.481	1	4033.36	-14.25962	5.919268E-007	0.0065011	7
	24	9	3984.375	3998.629	-1144.073	1	4159.079	-15.9667	7.857219E-007	0.0045198	7
	25	9	3170.956	4099.85	-1315.844	1	4305.835	-17.794	-2.780996E-007	0.0053895	7
	26	9	2527.573	4209.761	-1518.347	1	4475.206	-19.833	5.028475E-007	0.0046103	7
	27	10	1976.103	4339.999	-1782.151	1	4691.658	-22.32472	5.029943E-007	0.0046094	7
	28	10	1577.524	4475.345	-2084.153	1	4936.842	-24.97123	9.789092E-007	0.0046109	7
	29	10	1265.625	4603.987	-2412.48	1	5197.765	-27.65445	5.052571E-007	0.0046084	7
	30	11	998.264	4759.395	-2854.564	1	5549.809	-30.95426	-3.058949E-007	0.0076227	7
	31	11	796.875	4922.162	-3378.789	1	5970.25	-34.46742	1.078435E-006	0.004838	7
	32	11	627.7902	5109.48	-4054.933	1	6522.98	-38.43586	9.972672E-007	0.0055959	7
	33	12	505.5147	5292.54	-4817.602	1	7156.833	-42.31043	9.76828E-007	0.0046089	7
	34	12	397.9953	5532.158	-5841.732	1	8045.534	-46.55909	2.205372E-009	0.0062918	7
	35	12	315.5048	5799.041	-7089.442	1	9159.098	-50.71743	-9.47592E-011	0.0062995	7
	36	13	252.4038	6104.18	-8572.281	1	10523.55	-54.54596	-5.638728E-011	0.0062264	6
	37	13	198.6229	6506.874	-10544.93	1	12390.92	-58.32284	5.814146E-010	0.0062255	6
	38	13	158.3615	6983.825	-12858.33	1	14632.51	-61.49202	2.82093E-010	0.0062357	6
	39	14	125.558	7605.816	-15762.66	1	17501.71	-64.24171	1.19405E-010	0.0062319	6
	40	14	100.4464	8379.768	-19202.5	1	20951.29	-66.42406	7.982057E-010	0.0062339	6
	41	14	79.00281	9432.492	-23709.03	1	25516.46	-68.30517	1.228634E-009	0.0062247	6
	42	15	63.3446	11021.37	-28666.36	1	30712.06	-68.96972	-3.652781E-010	0.0062291	6
	43	15	49.86702	12911.43	-35415.04	1	37695.22	-69.96941	-6.203119E-010	0.0062264	6
	44	15	39.72458	15161.88	-43032.89	1	45625.79	-70.59099	8.044785E-010	0.0062316	6
	45	16	31.6723	18135	-52113.47	1	55178.73	-70.81258	9.678341E-010	0.0062214	6
	46	16	24.93351	22756.28	-63623.84	1	67571.01	-70.31944	9.286335E-010	0.0062222	6
	47	16	19.86229	28248.52	-76436.3	1	81489.19	-69.71723	-1.041871E-009	0.0062285	6
	48	16	15.83615	36177.44	-91847.47	1	98715.6	-68.50121	2.938714E-009	0.0062213	6
	49	17	12.40079	45980.73	-109978.3	1	119203.5	-67.31074	-9.598597E-010	0.00624	5
	50	17	9.93114	57010.06	-129153.2	1	141176.1	-66.18265	7.833664E-010	0.0062291	5
	51	18	7.944915	71035.05	-150453.7	1	166379.9	-64.72617	6.378482E-011	0.0062254	5
	52	18	6.317385	88374.91	-174864.1	1	195927.5	-63.18834	2.175692E-010	0.0062132	5
	53	19	5.008013	108948.6	-202258	1	229734.8	-61.69036	4.41978E-010	0.0062412	5
	54	20	3.945707	133556.5	-232927.1	1	268500.3	-60.17076	-1.105642E-011	0.0062241	5
	55	22	3.158693	159381.5	-264835.4	1	309095.9	-58.95992	-3.833796E-011	0.0062085	5
	56	23	2.504006	189419.9	-301928.1	1	356427.4	-57.89716	2.201931E-010	0.0062154	5
	57	25	1.998082	220199.7	-342131.4	1	406868.3	-57.23421	4.504717E-011	0.0062107	5
	58	26	1.584686	256284.6	-390421.5	1	467023.3	-56.71788	-1.127275E-010	0.0061784	5
	59	28	1.266892	292621.2	-445751.7	1	533218.3	-56.71643	-9.303795E-011	0.0061869	5
	60	31	0.999041	334940.5	-513711.9	1	613257.7	-56.89562	-5.640553E-011	0.0062145	5
