EXPLAIN
TAG	EISPOT
TITLE	LABEL	Potentiostatic EIS	Test &Identifier
DATE	LABEL	10/4/2019	Date
TIME	LABEL	9:49:38	Time
NOTES	NOTES	2	&Notes...
	
	
PSTAT	PSTAT	REF600-11020	Potentiostat
VDC	POTEN	0.00000E+000	T	DC &Voltage (V)
FREQINIT	QUANT	1.00000E+006	Initial Fre&q. (Hz)
FREQFINAL	QUANT	1.00000E+000	Final Fre&q. (Hz)
PTSPERDEC	QUANT	1.00000E+001	Points/&decade
VAC	QUANT	2.50000E+001	AC &Voltage (mV rms)
AREA	QUANT	1.00000E-002	&Area (cm^2)
CONDIT	TWOPARAM	T	5.00000E+000	0.00000E+000	Conditionin&g	Time(s)	E(V)
DELAY	TWOPARAM	T	5.00000E+000	0.00000E+000	Init. De&lay	Time(s)	Stab.(mV/s)
SPEED	SELECTOR	1	&Optimize for:
ZGUESS	QUANT	1.00000E+004	E&stimated Z (ohms)
OCVCURVE	TABLE	19
	Pt	T	Vf	Vm	Ach	Over
	#	s	V vs. Ref.	V	V	bits
	0	0.258333	3.30910E-003	3.30910E-003	5.98099E-004	...........
	1	0.516667	3.30055E-003	2.86153E-003	5.92332E-004	...........
	2	0.775	3.24893E-003	2.48343E-003	6.01132E-004	...........
	3	1.03333	3.10604E-003	2.13204E-003	6.02365E-004	...........
	4	1.29167	2.85823E-003	1.85747E-003	5.88232E-004	...........
	5	1.55	2.54355E-003	1.60272E-003	5.92899E-004	...........
	6	1.80833	2.21621E-003	1.35088E-003	6.06265E-004	...........
	7	2.06667	1.91041E-003	1.13373E-003	6.04232E-004	...........
	8	2.325	1.63532E-003	9.34611E-004	5.99199E-004	...........
	9	2.58333	1.38826E-003	7.51079E-004	5.93332E-004	...........
	10	2.84167	1.16482E-003	5.77960E-004	6.09832E-004	...........
	11	3.1	9.61111E-004	4.19112E-004	6.08298E-004	...........
	12	3.35833	7.73787E-004	2.70306E-004	5.95499E-004	...........
	13	3.61667	6.00441E-004	1.34725E-004	5.90132E-004	...........
	14	3.875	4.39593E-004	5.07516E-006	6.02832E-004	...........
	15	4.13333	2.90155E-004	-1.16284E-004	6.07298E-004	...........
	16	4.39167	1.50842E-004	-2.34935E-004	5.97565E-004	...........
	17	4.65	2.01856E-005	-3.39587E-004	5.98665E-004	...........
	18	4.90833	-1.02941E-004	-4.46942E-004	6.12598E-004	...........
EOC	QUANT	-0.0001029	Open Circuit (V)
PSTATMODEL	IQUANT	4	Pstat Model
PSTATSECTION	LABEL	REF600-11020	Pstat Section
PSTATSERIALNO	LABEL	11020	Pstat Serial Number
CTRLMODE	IQUANT	1	Control Mode
IESTAB	IQUANT	0	I/E Stability
CASPEED	IQUANT	1	Control Amp Speed
CONVENTION	IQUANT	1	Current Convention
ICHRANGE	IQUANT	2	Ich Range
ICHRANGEMODE	TOGGLE	F	Ich Auto Range
ICHOFFSETENABLE	TOGGLE	T	Ich Offset Enable
ICHOFFSET	QUANT	0	Ich Offset (V)
ICHFILTER	IQUANT	3	Ich Filter
VCHRANGE	IQUANT	2	Vch Range
VCHRANGEMODE	TOGGLE	F	Vch Auto Range
VCHOFFSETENABLE	TOGGLE	T	Vch Offset Enable
VCHOFFSET	QUANT	0	Vch Offset (V)
VCHFILTER	IQUANT	3	Vch Filter
ACHRANGE	IQUANT	2	Ach Range
ACHOFFSETENABLE	TOGGLE	F	Ach Offset Enable
ACHOFFSET	QUANT	0	Ach Offset (V)
ACHFILTER	IQUANT	3	Ach Filter
IERANGELOWERLIMIT	IQUANT	1	I/E Range Lower Limit
IERANGEMODE	TOGGLE	F	I/E AutoRange
IERANGE	IQUANT	4	I/E Range
POSFEEDENABLE	TOGGLE	F	Positive Feedback IR Comp
POSFEEDRESISTANCE	QUANT	0	Positive Feedback Resistance (ohm)
ACHSELECT	IQUANT	0	Ach Select
CABLEID	IQUANT	14	Cable ID
DCCALDATE	LABEL	8/19/2019	DC Calibration Date
ACCALDATE	LABEL	8/19/2019	AC Calibration Date
THERMOSELECT	IQUANT	1	Thermo Select
FRAMEWORKVERSION	QUANT	6.33	Framework Version
INSTRUMENTVERSION	LABEL	3.50	Instrument Version
ZCURVE	TABLE
	Pt	Time	Freq	Zreal	Zimag	Zsig	Zmod	Zphz	Idc	Vdc	IERange
	#	s	Hz	ohm	ohm	V	ohm	°	A	V	#
	0	1	1000078	2624.304	-1821.676	1	3194.601	-34.76667	1.219099E-006	0.0021689	8
	1	3	794390.6	2967.936	-1766.034	1	3453.624	-30.75425	1.091882E-006	0.0014589	8
	2	4	630984.4	3287.657	-1665.847	1	3685.612	-26.87121	-1.178155E-006	0.0021256	8
	3	6	501234.4	3558.883	-1533.899	1	3875.37	-23.31631	2.967902E-006	0.0011403	8
	4	7	398109.4	3808.142	-1391.443	1	4054.388	-20.07161	3.0748E-006	0.0010053	8
	5	8	316265.6	3971.846	-1260.45	1	4167.049	-17.60663	8.264409E-007	0.0015383	8
	6	10	251203.1	4136.685	-1131.539	1	4288.652	-15.29833	-9.506351E-008	0.0016938	8
	7	11	199546.9	4255.56	-1028.563	1	4378.097	-13.58773	-2.174247E-006	0.002078	8
	8	13	158578.1	4369.282	-941.3625	1	4469.541	-12.15853	-2.110047E-006	0.0020782	8
	9	14	125953.1	4488.547	-824.0062	1	4563.556	-10.40251	4.954927E-007	0.0005702	7
	10	15	100078.1	4553.286	-785.5886	1	4620.559	-9.789	6.632544E-008	0.0014303	7
	11	17	79453.13	4627.449	-769.2744	1	4690.956	-9.438623	-6.732402E-008	0.0016762	7
	12	18	63140.62	4702.129	-770.1946	1	4764.789	-9.302272	-2.521515E-008	0.0015646	7
	13	19	50203.12	4776.661	-786.7482	1	4841.019	-9.353026	-8.678536E-009	0.0015238	7
	14	21	39890.62	4855.296	-818.2794	1	4923.767	-9.56635	-8.494141E-009	0.0015278	7
	15	22	31640.63	4938.733	-867.8081	1	5014.397	-9.96597	6.909768E-008	0.0014182	7
	16	24	25171.88	5028.314	-932.9821	1	5114.137	-10.51145	-3.11684E-009	0.0015886	7
	17	25	20015.62	5126.229	-1015.99	1	5225.94	-11.21042	-2.415183E-009	0.0015876	7
	18	26	15890.62	5236.055	-1118.725	1	5354.234	-12.06036	-4.228155E-008	0.0015855	7
	19	28	12609.37	5358.226	-1239.72	1	5499.772	-13.02717	3.821692E-008	0.0014369	7
	20	29	10078.13	5486.209	-1380.977	1	5657.348	-14.12885	-3.198171E-008	0.0016166	7
	21	30	8015.625	5634.898	-1546.704	1	5843.319	-15.3489	3.508525E-008	0.0015108	7
	22	32	6328.125	5805.7	-1751.052	1	6064.02	-16.78379	3.795907E-008	0.0014329	7
	23	33	5015.625	5996.374	-1986.535	1	6316.868	-18.32949	-3.114803E-008	0.0016193	7
	24	34	3984.375	6212.67	-2257.286	1	6610.039	-19.9679	-7.99128E-009	0.0016612	7
	25	36	3170.956	6456.29	-2562.6	1	6946.265	-21.64888	-2.312398E-008	0.0015555	7
	26	37	2527.573	6737.554	-2910.125	1	7339.173	-23.36078	-9.158002E-009	0.0015142	7
	27	39	1976.103	7082.612	-3339.908	1	7830.605	-25.2469	3.547122E-008	0.0014341	7
	28	40	1577.524	7443.542	-3780.167	1	8348.411	-26.92352	-1.427111E-009	0.0015552	7
	29	41	1265.625	7826.951	-4271.873	1	8916.842	-28.62528	-4.800064E-008	0.0016963	7
	30	43	998.264	8281.209	-4858.222	1	9601.08	-30.39828	-3.629542E-009	0.0014574	6
	31	44	796.875	8726.424	-5506.613	1	10318.59	-32.25305	5.550951E-009	0.0013568	6
	32	45	627.7902	9217.078	-6320.346	1	11175.92	-34.43926	-7.114909E-009	0.0015935	6
	33	47	505.5147	9667.32	-7200.183	1	12054.03	-36.67861	5.960825E-009	0.0015071	6
	34	48	397.9953	10165.18	-8394.936	1	13183.54	-39.55167	4.335018E-010	0.0015073	6
	35	49	315.5048	10658.5	-9844.16	1	14509.01	-42.72548	3.231369E-010	0.0015102	6
	36	51	252.4038	11151.06	-11586.04	1	16080.5	-46.09598	9.008265E-010	0.0015044	6
	37	52	198.6229	11721.52	-13936.79	1	18210.66	-49.93454	6.679762E-010	0.0015056	6
	38	54	158.3615	12331.93	-16732.46	1	20785.86	-53.60955	5.370092E-010	0.0015026	6
	39	55	125.558	13064.81	-20300.96	1	24141.63	-57.23643	5.71359E-010	0.0015031	6
	40	56	100.4464	13944.67	-24564.08	1	28246.2	-60.41705	3.141779E-010	0.0015058	6
	41	58	79.00281	15136.8	-30247.47	1	33823.55	-63.41515	3.740852E-010	0.0014996	6
	42	59	63.3446	16656.12	-36687.7	1	40291.61	-65.58208	3.954403E-010	0.0014984	6
	43	60	49.86702	18325.09	-45332.79	1	48896.54	-67.98973	6.954797E-010	0.0014984	6
	44	62	39.72458	20774.79	-55185.24	1	58966.11	-69.37088	6.319959E-010	0.0015061	6
	45	63	31.6723	23958.93	-67250.48	1	71390.88	-70.39085	2.669209E-010	0.0015081	6
	46	65	24.93351	28180.26	-82631.23	1	87304.34	-71.16875	5.732863E-010	0.0015037	6
	47	66	19.86229	33477.21	-100223.4	1	105666.7	-71.52934	2.943937E-011	0.0015069	5
	48	67	15.83615	39952.18	-121368.4	1	127775	-71.77943	7.516106E-010	0.0015103	5
	49	69	12.40079	49400.49	-149283.8	1	157245.3	-71.68977	7.826237E-010	0.0015101	5
	50	70	9.93114	60566.28	-178196.6	1	188208.2	-71.2279	1.286669E-010	0.0015135	5
	51	72	7.944915	74206.04	-213335.5	1	225872.9	-70.82042	5.767414E-010	0.0015136	5
	52	73	6.317385	91552.02	-255782.7	1	271673.7	-70.30624	1.089437E-010	0.0015234	5
	53	75	5.008013	113799	-306663.4	1	327097.3	-69.64073	2.611465E-010	0.0015063	5
	54	78	3.945707	142128.8	-367789.1	1	394296.2	-68.87141	3.721392E-010	0.001514	5
	55	81	3.158693	175127.4	-435367.4	1	469270.1	-68.08745	4.363726E-011	0.0015002	5
	56	84	2.504006	218063.4	-516777.4	1	560901.6	-67.12183	4.129482E-010	0.0015089	5
	57	87	1.998082	269460	-608287.3	1	665298.6	-66.10754	1.989981E-010	0.0015554	5
	58	90	1.584686	333182.3	-714823.4	1	788659	-65.00957	2.097561E-010	0.0015053	5
	59	93	1.266892	412109.9	-834605.1	1	930806.2	-63.72084	1.743511E-010	0.0015504	5
	60	98	0.999041	513973.5	-976108	1	1103157	-62.23078	6.686571E-011	0.0014682	4
