EXPLAIN
TAG	EISPOT
TITLE	LABEL	Potentiostatic EIS	Test &Identifier
DATE	LABEL	11/20/2019	Date
TIME	LABEL	11:49:03	Time
NOTES	NOTES	4	&Notes...
	
	
	
	
PSTAT	PSTAT	REF600-11020	Potentiostat
VDC	POTEN	0.00000E+000	T	DC &Voltage (V)
FREQINIT	QUANT	1.00000E+006	Initial Fre&q. (Hz)
FREQFINAL	QUANT	1.00000E+000	Final Fre&q. (Hz)
PTSPERDEC	QUANT	1.00000E+001	Points/&decade
VAC	QUANT	2.50000E+001	AC &Voltage (mV rms)
AREA	QUANT	1.00000E-002	&Area (cm^2)
CONDIT	TWOPARAM	T	5.00000E+000	0.00000E+000	Conditionin&g	Time(s)	E(V)
DELAY	TWOPARAM	T	5.00000E+000	0.00000E+000	Init. De&lay	Time(s)	Stab.(mV/s)
SPEED	SELECTOR	1	&Optimize for:
ZGUESS	QUANT	1.00000E+005	E&stimated Z (ohms)
OCVCURVE	TABLE	19
	Pt	T	Vf	Vm	Ach	Over
	#	s	V vs. Ref.	V	V	bits
	0	0.258333	6.24975E-003	6.24975E-003	5.19766E-004	...........
	1	0.516667	6.24906E-003	6.21347E-003	5.21600E-004	...........
	2	0.775	6.24495E-003	6.18659E-003	5.24100E-004	...........
	3	1.03333	6.23398E-003	6.17077E-003	5.24466E-004	...........
	4	1.29167	6.21631E-003	6.16579E-003	5.23800E-004	...........
	5	1.55	6.19670E-003	6.16340E-003	5.17333E-004	...........
	6	1.80833	6.18058E-003	6.16577E-003	5.21866E-004	...........
	7	2.06667	6.17062E-003	6.17165E-003	5.18900E-004	...........
	8	2.325	6.16725E-003	6.20451E-003	5.20833E-004	...........
	9	2.58333	6.17063E-003	6.20379E-003	5.23733E-004	...........
	10	2.84167	6.18009E-003	6.22670E-003	5.28033E-004	...........
	11	3.1	6.19321E-003	6.23338E-003	5.23866E-004	...........
	12	3.35833	6.20742E-003	6.25293E-003	5.23633E-004	...........
	13	3.61667	6.22180E-003	6.27373E-003	5.21000E-004	...........
	14	3.875	6.23695E-003	6.29488E-003	5.25300E-004	...........
	15	4.13333	6.25379E-003	6.31077E-003	5.27833E-004	...........
	16	4.39167	6.27220E-003	6.33157E-003	5.28400E-004	...........
	17	4.65	6.29125E-003	6.34774E-003	5.30033E-004	...........
	18	4.90833	6.31020E-003	6.36674E-003	5.24866E-004	...........
EOC	QUANT	0.0063102	Open Circuit (V)
PSTATMODEL	IQUANT	4	Pstat Model
PSTATSECTION	LABEL	REF600-11020	Pstat Section
PSTATSERIALNO	LABEL	11020	Pstat Serial Number
CTRLMODE	IQUANT	1	Control Mode
IESTAB	IQUANT	0	I/E Stability
CASPEED	IQUANT	1	Control Amp Speed
CONVENTION	IQUANT	1	Current Convention
ICHRANGE	IQUANT	2	Ich Range
ICHRANGEMODE	TOGGLE	F	Ich Auto Range
ICHOFFSETENABLE	TOGGLE	T	Ich Offset Enable
ICHOFFSET	QUANT	0	Ich Offset (V)
ICHFILTER	IQUANT	3	Ich Filter
VCHRANGE	IQUANT	2	Vch Range
VCHRANGEMODE	TOGGLE	F	Vch Auto Range
VCHOFFSETENABLE	TOGGLE	T	Vch Offset Enable
VCHOFFSET	QUANT	0	Vch Offset (V)
VCHFILTER	IQUANT	3	Vch Filter
ACHRANGE	IQUANT	2	Ach Range
ACHOFFSETENABLE	TOGGLE	F	Ach Offset Enable
ACHOFFSET	QUANT	0	Ach Offset (V)
ACHFILTER	IQUANT	3	Ach Filter
IERANGELOWERLIMIT	IQUANT	1	I/E Range Lower Limit
IERANGEMODE	TOGGLE	F	I/E AutoRange
IERANGE	IQUANT	5	I/E Range
POSFEEDENABLE	TOGGLE	F	Positive Feedback IR Comp
POSFEEDRESISTANCE	QUANT	0	Positive Feedback Resistance (ohm)
ACHSELECT	IQUANT	0	Ach Select
CABLEID	IQUANT	14	Cable ID
DCCALDATE	LABEL	8/19/2019	DC Calibration Date
ACCALDATE	LABEL	8/19/2019	AC Calibration Date
THERMOSELECT	IQUANT	1	Thermo Select
FRAMEWORKVERSION	QUANT	6.33	Framework Version
INSTRUMENTVERSION	LABEL	3.50	Instrument Version
ZCURVE	TABLE
	Pt	Time	Freq	Zreal	Zimag	Zsig	Zmod	Zphz	Idc	Vdc	IERange
	#	s	Hz	ohm	ohm	V	ohm	°	A	V	#
	0	2	1000078	2133.29	-2294.957	1	3133.329	-47.09083	1.137616E-005	0.00739	8
	1	3	794390.6	2611.584	-2409.941	1	3553.616	-42.70049	-4.811525E-006	0.007786	8
	2	4	630984.4	3110.432	-2471.991	1	3973.101	-38.47565	-3.877689E-006	0.0083924	8
	3	6	501234.4	3600.252	-2433.898	1	4345.765	-34.06008	-3.329068E-007	0.0083542	8
	4	7	398109.4	4066.325	-2358.402	1	4700.75	-30.11303	-4.370806E-006	0.0082203	8
	5	8	316265.6	4500.675	-2186.905	1	5003.861	-25.91539	2.177508E-007	0.0075608	8
	6	10	251203.1	4870.033	-1993.41	1	5262.215	-22.26035	1.631629E-006	0.0081015	8
	7	11	199546.9	5177.757	-1773.636	1	5473.112	-18.90885	-2.424762E-006	0.0082971	8
	8	13	158578.1	5382.208	-1578.642	1	5608.946	-16.3468	-3.043199E-007	0.0082361	8
	9	14	125953.1	5624.687	-1308.241	1	5774.825	-13.09357	-1.114326E-006	0.0090242	7
	10	15	100078.1	5764.595	-1130.956	1	5874.489	-11.09988	-2.986618E-007	0.0069481	7
	11	17	79453.13	5886.849	-1021.798	1	5974.869	-9.8469	1.097541E-006	0.0066699	7
	12	18	63140.62	5983.359	-910.7511	1	6052.276	-8.654788	9.823549E-007	0.0061107	7
	13	20	50203.12	6054.404	-831.2438	1	6111.201	-7.817589	3.730422E-007	0.0083438	7
	14	21	39890.62	6117.926	-755.1135	1	6164.35	-7.036225	4.94129E-007	0.0061216	7
	15	23	31640.63	6173.08	-715.4179	1	6214.398	-6.610699	-3.031968E-007	0.0091419	7
	16	24	25171.88	6235.531	-699.389	1	6274.63	-6.399657	4.903582E-007	0.0061103	7
	17	26	20015.62	6300.159	-712.8513	1	6340.359	-6.455456	5.669286E-008	0.0087549	7
	18	27	15890.62	6335.724	-714.7258	1	6375.91	-6.436262	6.073667E-008	0.0087549	7
	19	29	12609.37	6393.908	-759.4422	1	6438.852	-6.773624	5.698979E-008	0.0087539	7
	20	30	10078.13	6447.664	-820.0735	1	6499.607	-7.248488	-2.979211E-007	0.0069268	7
	21	32	8015.625	6514.465	-898.576	1	6576.146	-7.853565	1.010346E-006	0.0070802	7
	22	33	6328.125	6579.038	-1016.002	1	6657.026	-8.778852	1.090259E-006	0.0063243	7
	23	35	5015.625	6624.372	-1153.764	1	6724.097	-9.88007	-1.210414E-006	0.0092013	7
	24	36	3984.375	6710.857	-1344.933	1	6844.3	-11.3326	3.71342E-007	0.0083298	7
	25	38	3170.956	6792.853	-1557.018	1	6969.014	-12.90999	-2.96582E-007	0.0091289	7
	26	39	2527.573	6878.248	-1839.049	1	7119.859	-14.96913	5.984128E-007	0.0080187	7
	27	40	1976.103	6987.913	-2223.881	1	7333.251	-17.65351	5.993231E-007	0.0080153	7
	28	42	1577.524	7102.22	-2660.607	1	7584.218	-20.53677	3.74444E-007	0.0083366	7
	29	43	1265.625	7242.474	-3153.984	1	7899.433	-23.53237	-7.154217E-007	0.007605	7
	30	45	998.264	7421.876	-3823.115	1	8348.68	-27.25365	1.172048E-007	0.0063999	7
	31	46	796.875	7624.317	-4588.862	1	8898.757	-31.04255	4.890274E-007	0.0061052	7
	32	47	627.7902	7869.825	-5581.095	1	9647.94	-35.34337	6.680641E-008	0.0087459	7
	33	49	505.5147	8134.013	-6698.128	1	10536.94	-39.47049	1.839769E-007	0.0056044	6
	34	50	397.9953	8478.256	-8181.645	1	11782.2	-43.98002	9.995225E-010	0.0077408	6
	35	52	315.5048	8875.853	-9963.86	1	13343.89	-48.30521	1.171836E-009	0.0077387	6
	36	53	252.4038	9331.19	-12064.01	1	15251.6	-52.279	6.435769E-010	0.0077382	6
	37	54	198.6229	9932.92	-14829.42	1	17848.66	-56.18537	7.888932E-010	0.0077425	6
	38	56	158.3615	10644.3	-18047.74	1	20952.86	-59.46851	1.46726E-009	0.0077294	6
	39	57	125.558	11549.63	-22102.84	1	24938.52	-62.41111	6.937619E-010	0.0077373	6
	40	58	100.4464	12717.64	-26826.12	1	29688.03	-64.63547	6.787338E-010	0.0077294	6
	41	60	79.00281	14224.01	-33207.47	1	36125.59	-66.81273	3.449157E-010	0.0077378	6
	42	61	63.3446	15681.29	-40157.02	1	43110.2	-68.6694	1.572854E-010	0.0077371	6
	43	63	49.86702	18910.25	-48959.04	1	52484.14	-68.88113	-7.234497E-010	0.007737	6
	44	64	39.72458	22233.38	-59889.5	1	63883.29	-69.63306	6.659829E-010	0.0077311	6
	45	65	31.6723	26745.82	-72736.82	1	77498.28	-69.81119	1.223942E-010	0.0077383	6
	46	67	24.93351	32860.25	-88510.4	1	94413.38	-69.63212	4.708361E-010	0.0077307	6
	47	68	19.86229	40597.89	-106337.2	1	113823.5	-69.10392	8.855216E-010	0.0077417	5
	48	70	15.83615	51869.74	-126345.2	1	136578.1	-67.67989	-5.975056E-010	0.0077471	5
	49	71	12.40079	63712.42	-154351.3	1	166983.8	-67.57037	9.963035E-010	0.007742	5
	50	72	9.93114	81458.88	-180219.3	1	197774	-65.6771	3.037521E-010	0.0077344	5
	51	74	7.944915	103931.7	-210824.7	1	235050.7	-63.75776	4.574188E-010	0.0077401	5
	52	76	6.317385	128675.8	-244342	1	276153	-62.22773	1.531773E-010	0.0077246	5
	53	78	5.008013	160579	-281190.1	1	323810.9	-60.27064	3.835093E-010	0.0077554	5
	54	80	3.945707	199328	-321928.9	1	378642.1	-58.23554	-1.068595E-011	0.0077333	5
	55	83	3.158693	239597.7	-361850.1	1	433984.5	-56.48961	3.163016E-010	0.0077599	5
	56	87	2.504006	286855.3	-406588.5	1	497594.4	-54.79636	-1.127953E-010	0.0077265	5
	57	89	1.998082	335888.9	-453098.4	1	564020.8	-53.44989	-2.085716E-010	0.0077365	5
	58	93	1.584686	391016.1	-504306.5	1	638136.9	-52.21165	1.431801E-010	0.0077848	5
	59	96	1.266892	444066.5	-561128.8	1	715584	-51.64259	-1.602751E-010	0.0077433	5
	60	101	0.999041	504424.6	-631297.9	1	808072.6	-51.37417	2.826223E-010	0.007731	5
