EXPLAIN
TAG	EISPOT
TITLE	LABEL	Potentiostatic EIS	Test &Identifier
DATE	LABEL	8/14/2018	Date
TIME	LABEL	5:36:47	Time
NOTES	NOTES	1	&Notes...
	
PSTAT	PSTAT	REF600-11020	Potentiostat
VDC	POTEN	0.00000E+000	T	DC &Voltage (V)
FREQINIT	QUANT	1.00000E+006	Initial Fre&q. (Hz)
FREQFINAL	QUANT	1.00000E+000	Final Fre&q. (Hz)
PTSPERDEC	QUANT	1.00000E+001	Points/&decade
VAC	QUANT	2.50000E+001	AC &Voltage (mV rms)
AREA	QUANT	1.00000E-002	&Area (cm^2)
CONDIT	TWOPARAM	T	5.00000E+000	0.00000E+000	Conditionin&g	Time(s)	E(V)
DELAY	TWOPARAM	T	5.00000E+000	0.00000E+000	Init. De&lay	Time(s)	Stab.(mV/s)
SPEED	SELECTOR	0	&Optimize for:
ZGUESS	QUANT	1.00000E+005	E&stimated Z (ohms)
OCVCURVE	TABLE	19
	Pt	T	Vf	Vm	Ach	Over
	#	s	V vs. Ref.	V	V	bits
	0	0.258333	3.74192E-002	3.74192E-002	5.49266E-004	...........
	1	0.516667	3.74701E-002	4.00838E-002	5.51299E-004	...........
	2	0.775	3.77822E-002	4.25850E-002	5.53699E-004	...........
	3	1.03333	3.86626E-002	4.49318E-002	5.53733E-004	...........
	4	1.29167	4.02295E-002	4.71496E-002	5.53333E-004	...........
	5	1.55	4.22973E-002	4.92340E-002	5.49966E-004	...........
	6	1.80833	4.45667E-002	5.12039E-002	5.54166E-004	...........
	7	2.06667	4.68194E-002	5.30619E-002	5.49366E-004	...........
	8	2.325	4.89583E-002	5.48371E-002	5.49833E-004	...........
	9	2.58333	5.09651E-002	5.65261E-002	5.49966E-004	...........
	10	2.84167	5.28530E-002	5.81386E-002	5.51766E-004	...........
	11	3.1	5.46399E-002	5.96787E-002	5.51066E-004	...........
	12	3.35833	5.63394E-002	6.11449E-002	5.55533E-004	...........
	13	3.61667	5.79598E-002	6.25462E-002	5.56099E-004	...........
	14	3.875	5.95060E-002	6.38851E-002	5.56066E-004	...........
	15	4.13333	6.09820E-002	6.51696E-002	5.54466E-004	...........
	16	4.39167	6.23917E-002	6.63936E-002	5.56166E-004	...........
	17	4.65	6.37398E-002	6.76069E-002	5.52666E-004	...........
	18	4.90833	6.50331E-002	6.87870E-002	5.54266E-004	...........
EOC	QUANT	0.0650331	Open Circuit (V)
PSTATMODEL	IQUANT	4	Pstat Model
PSTATSECTION	LABEL	REF600-11020	Pstat Section
PSTATSERIALNO	LABEL	11020	Pstat Serial Number
CTRLMODE	IQUANT	1	Control Mode
IESTAB	IQUANT	0	I/E Stability
CASPEED	IQUANT	1	Control Amp Speed
CONVENTION	IQUANT	1	Current Convention
ICHRANGE	IQUANT	2	Ich Range
ICHRANGEMODE	TOGGLE	F	Ich Auto Range
ICHOFFSETENABLE	TOGGLE	T	Ich Offset Enable
ICHOFFSET	QUANT	0	Ich Offset (V)
ICHFILTER	IQUANT	3	Ich Filter
VCHRANGE	IQUANT	2	Vch Range
VCHRANGEMODE	TOGGLE	F	Vch Auto Range
VCHOFFSETENABLE	TOGGLE	T	Vch Offset Enable
VCHOFFSET	QUANT	0	Vch Offset (V)
VCHFILTER	IQUANT	3	Vch Filter
ACHRANGE	IQUANT	2	Ach Range
ACHOFFSETENABLE	TOGGLE	F	Ach Offset Enable
ACHOFFSET	QUANT	0	Ach Offset (V)
ACHFILTER	IQUANT	3	Ach Filter
IERANGELOWERLIMIT	IQUANT	1	I/E Range Lower Limit
IERANGEMODE	TOGGLE	F	I/E AutoRange
IERANGE	IQUANT	6	I/E Range
POSFEEDENABLE	TOGGLE	F	Positive Feedback IR Comp
POSFEEDRESISTANCE	QUANT	0	Positive Feedback Resistance (ohm)
ACHSELECT	IQUANT	0	Ach Select
CABLEID	IQUANT	14	Cable ID
DCCALDATE	LABEL	8/19/2019	DC Calibration Date
ACCALDATE	LABEL	8/19/2019	AC Calibration Date
THERMOSELECT	IQUANT	1	Thermo Select
FRAMEWORKVERSION	QUANT	6.33	Framework Version
INSTRUMENTVERSION	LABEL	3.50	Instrument Version
ZCURVE	TABLE
	Pt	Time	Freq	Zreal	Zimag	Zsig	Zmod	Zphz	Idc	Vdc	IERange
	#	s	Hz	ohm	ohm	V	ohm	°	A	V	#
	0	2	1000078	2134.407	-2121.238	1	3009.21	-44.8227	-2.687581E-006	0.0668811	8
	1	2	794390.6	2524.274	-2217.142	1	3359.714	-41.29376	1.582082E-007	0.0666338	8
	2	2	630984.4	2920.871	-2330.651	1	3736.767	-38.58742	-6.987202E-007	0.0668097	8
	3	2	501234.4	3354.6	-2400.711	1	4125.137	-35.58931	2.451458E-007	0.0666567	8
	4	3	398109.4	3776.787	-2414.751	1	4482.76	-32.59349	-4.335606E-007	0.0665976	8
	5	3	316265.6	4223.544	-2415.975	1	4865.723	-29.77066	-1.497242E-006	0.0668412	8
	6	3	251203.1	4642.539	-2364.718	1	5210.092	-26.99242	-3.335145E-007	0.0665666	8
	7	4	199546.9	5066.955	-2223.011	1	5533.156	-23.68837	3.486322E-006	0.0659623	8
	8	4	158578.1	5507.089	-2034.707	1	5870.951	-20.27778	-3.647296E-007	0.0665582	8
	9	4	125953.1	5846.813	-1806.7	1	6119.591	-17.17146	1.132359E-007	0.0656599	7
	10	5	100078.1	6129.286	-1651.065	1	6347.768	-15.07609	4.747753E-008	0.0664455	7
	11	5	79453.13	6347.33	-1486.113	1	6518.982	-13.17741	7.529695E-008	0.0663339	7
	12	6	63140.62	6524.023	-1331.511	1	6658.513	-11.53527	-6.695245E-008	0.0667184	7
	13	6	50203.12	6669.078	-1195.31	1	6775.35	-10.16133	-3.123305E-008	0.0664818	7
	14	6	39890.62	6795.048	-1078.88	1	6880.165	-9.0218	-6.650306E-009	0.0664635	7
	15	7	31640.63	6900.528	-996.472	1	6972.104	-8.217002	1.136546E-007	0.0663355	7
	16	7	25171.88	6986.083	-932.9247	1	7048.1	-7.606303	-3.031182E-008	0.0664795	7
	17	7	20015.62	7075.952	-896.8673	1	7132.564	-7.223643	6.236645E-008	0.0663899	7
	18	8	15890.62	7140.749	-893.6472	1	7196.451	-7.13334	1.141016E-007	0.0663362	7
	19	8	12609.37	7203.417	-905.835	1	7260.148	-7.167366	-8.242565E-008	0.0666011	7
	20	8	10078.13	7277.021	-948.6483	1	7338.595	-7.427317	-6.724623E-008	0.0667106	7
	21	8	8015.625	7347.112	-994.719	1	7414.143	-7.710341	-3.477041E-008	0.0665574	7
	22	9	6328.125	7412.433	-1130.055	1	7498.079	-8.668223	1.747701E-009	0.0664129	7
	23	9	5015.625	7488.482	-1270.111	1	7595.43	-9.62625	1.437032E-009	0.0664157	7
	24	9	3984.375	7566.877	-1446.704	1	7703.933	-10.8237	-3.439862E-008	0.0665467	7
	25	10	3170.956	7653.125	-1696.422	1	7838.888	-12.49832	-3.112489E-008	0.0664722	7
	26	10	2527.573	7751.428	-1996.319	1	8004.369	-14.44223	-5.981011E-009	0.0664527	7
	27	10	1976.103	7861.369	-2405.711	1	8221.227	-17.01499	6.357348E-008	0.0663826	7
	28	11	1577.524	8009.975	-2919.848	1	8525.563	-20.02814	6.286275E-008	0.0663812	7
	29	11	1265.625	8128.418	-3416.382	1	8817.19	-22.79706	1.146276E-007	0.066323	7
	30	11	998.264	8301.143	-4127.445	1	9270.641	-26.43721	1.119854E-009	0.0664064	7
	31	12	796.875	8504.3	-4964.343	1	9847.22	-30.27403	-1.040041E-009	0.066572	6
	32	12	627.7902	8742.708	-6071.129	1	10643.94	-34.77697	1.811236E-009	0.0662332	6
	33	12	505.5147	8998.241	-7303	1	11588.88	-39.06289	1.191622E-009	0.0663008	6
	34	13	397.9953	9340.293	-8974.646	1	12953.2	-43.85628	-2.149132E-009	0.0664487	6
	35	13	315.5048	9746.08	-10983.91	1	14684.42	-48.41719	-9.745273E-010	0.0664515	6
	36	13	252.4038	10232.67	-13352.06	1	16822.16	-52.53437	-8.787002E-010	0.0664445	6
	37	14	198.6229	10890.23	-16487.58	1	19759.49	-56.55478	-1.521174E-009	0.0664476	6
	38	14	158.3615	11690.87	-20142.72	1	23289.6	-59.86905	-1.586702E-009	0.0664432	6
	39	14	125.558	12735.12	-24719.75	1	27807.36	-62.74338	-1.656032E-009	0.0664442	6
	40	15	100.4464	14098.04	-30078.3	1	33218.35	-64.88699	-2.915025E-009	0.0664431	6
	41	15	79.00281	16039.66	-37259.98	1	40565.71	-66.70911	-2.01945E-009	0.0664419	6
	42	15	63.3446	17614.26	-44670.89	1	48018.23	-68.4801	-1.080059E-009	0.0664399	6
	43	16	49.86702	21097.69	-55002.91	1	58910.38	-69.01449	-1.104752E-009	0.0664396	6
	44	16	39.72458	25826.01	-67262.19	1	72049.88	-68.99519	-1.750926E-009	0.0664446	6
	45	16	31.6723	31787.96	-81287.06	1	87281.5	-68.64162	-1.709624E-009	0.0664391	6
	46	17	24.93351	39825.64	-98420.8	1	106173.1	-67.96944	-2.206505E-009	0.0664386	6
	47	17	19.86229	49680.29	-117427.7	1	127504.5	-67.06818	-3.244007E-009	0.0664412	5
	48	17	15.83615	61754.28	-138818.2	1	151934.5	-66.01777	-2.098342E-009	0.0664453	5
	49	18	12.40079	81607.12	-163707.5	1	182920.4	-63.50404	-3.149268E-009	0.0664485	5
	50	18	9.93114	102901.9	-189891.1	1	215980.2	-61.54676	-1.335502E-009	0.0664461	5
	51	18	7.944915	127860.1	-217319.7	1	252143	-59.52956	-1.273594E-009	0.0664458	5
	52	19	6.317385	156238.1	-245715.7	1	291181.3	-57.54979	-1.194023E-009	0.066438	5
	53	20	5.008013	189845.4	-276608.3	1	335489.9	-55.53691	-1.206868E-009	0.0664529	5
	54	21	3.945707	226743.9	-309278.3	1	383491.7	-53.75342	-1.489285E-009	0.0664483	5
	55	22	3.158693	264888.2	-341687.3	1	432337.7	-52.21588	-1.617933E-009	0.0664319	5
	56	24	2.504006	306109.8	-379434.8	1	487518.1	-51.10508	-1.256527E-009	0.0664361	5
	57	25	1.998082	346214.9	-421323.8	1	545324.3	-50.58899	-1.301469E-009	0.0664444	5
	58	27	1.584686	391802.4	-471585.7	1	613108.6	-50.27955	-1.389425E-009	0.0664004	5
	59	29	1.266892	438033.2	-531512.8	1	688751.7	-50.5072	-1.322468E-009	0.0664023	5
	60	31	0.999041	490890.7	-607169.7	1	780787.3	-51.0448	-1.253818E-009	0.0664182	5
