EXPLAIN
TAG	EISPOT
TITLE	LABEL	Potentiostatic EIS	Test &Identifier
DATE	LABEL	11/27/2019	Date
TIME	LABEL	11:41:33	Time
NOTES	NOTES	3	&Notes...
	
	
	
PSTAT	PSTAT	REF600-11020	Potentiostat
VDC	POTEN	0.00000E+000	T	DC &Voltage (V)
FREQINIT	QUANT	1.00000E+006	Initial Fre&q. (Hz)
FREQFINAL	QUANT	1.00000E+000	Final Fre&q. (Hz)
PTSPERDEC	QUANT	1.00000E+001	Points/&decade
VAC	QUANT	2.50000E+001	AC &Voltage (mV rms)
AREA	QUANT	1.00000E-002	&Area (cm^2)
CONDIT	TWOPARAM	T	5.00000E+000	0.00000E+000	Conditionin&g	Time(s)	E(V)
DELAY	TWOPARAM	T	5.00000E+000	0.00000E+000	Init. De&lay	Time(s)	Stab.(mV/s)
SPEED	SELECTOR	0	&Optimize for:
ZGUESS	QUANT	1.00000E+005	E&stimated Z (ohms)
OCVCURVE	TABLE	19
	Pt	T	Vf	Vm	Ach	Over
	#	s	V vs. Ref.	V	V	bits
	0	0.258333	1.93362E-003	1.93362E-003	5.47499E-004	...........
	1	0.516667	1.92889E-003	1.68624E-003	5.50299E-004	...........
	2	0.775	1.90024E-003	1.47071E-003	5.48433E-004	...........
	3	1.03333	1.82054E-003	1.27263E-003	5.46999E-004	...........
	4	1.29167	1.68134E-003	1.10014E-003	5.45766E-004	...........
	5	1.55	1.50220E-003	9.33674E-004	5.49499E-004	...........
	6	1.80833	1.31151E-003	7.88734E-004	5.47599E-004	...........
	7	2.06667	1.12840E-003	6.45519E-004	5.45366E-004	...........
	8	2.325	9.59944E-004	5.18716E-004	5.44566E-004	...........
	9	2.58333	8.06149E-004	3.96468E-004	5.42499E-004	...........
	10	2.84167	6.64918E-004	2.89139E-004	5.40166E-004	...........
	11	3.1	5.34394E-004	1.77782E-004	5.44666E-004	...........
	12	3.35833	4.13235E-004	9.08262E-005	5.45833E-004	...........
	13	3.61667	3.00409E-004	-1.56675E-005	5.38099E-004	...........
	14	3.875	1.94885E-004	-9.17420E-005	5.39833E-004	...........
	15	4.13333	9.55777E-005	-1.85761E-004	5.48533E-004	...........
	16	4.39167	1.72083E-006	-2.56287E-004	5.37633E-004	...........
	17	4.65	-8.72699E-005	-3.46299E-004	5.41299E-004	...........
	18	4.90833	-1.72144E-004	-4.09077E-004	5.37299E-004	...........
EOC	QUANT	-0.0001721	Open Circuit (V)
PSTATMODEL	IQUANT	4	Pstat Model
PSTATSECTION	LABEL	REF600-11020	Pstat Section
PSTATSERIALNO	LABEL	11020	Pstat Serial Number
CTRLMODE	IQUANT	1	Control Mode
IESTAB	IQUANT	0	I/E Stability
CASPEED	IQUANT	1	Control Amp Speed
CONVENTION	IQUANT	1	Current Convention
ICHRANGE	IQUANT	2	Ich Range
ICHRANGEMODE	TOGGLE	F	Ich Auto Range
ICHOFFSETENABLE	TOGGLE	T	Ich Offset Enable
ICHOFFSET	QUANT	0	Ich Offset (V)
ICHFILTER	IQUANT	3	Ich Filter
VCHRANGE	IQUANT	2	Vch Range
VCHRANGEMODE	TOGGLE	F	Vch Auto Range
VCHOFFSETENABLE	TOGGLE	T	Vch Offset Enable
VCHOFFSET	QUANT	0	Vch Offset (V)
VCHFILTER	IQUANT	3	Vch Filter
ACHRANGE	IQUANT	2	Ach Range
ACHOFFSETENABLE	TOGGLE	F	Ach Offset Enable
ACHOFFSET	QUANT	0	Ach Offset (V)
ACHFILTER	IQUANT	3	Ach Filter
IERANGELOWERLIMIT	IQUANT	1	I/E Range Lower Limit
IERANGEMODE	TOGGLE	F	I/E AutoRange
IERANGE	IQUANT	3	I/E Range
POSFEEDENABLE	TOGGLE	F	Positive Feedback IR Comp
POSFEEDRESISTANCE	QUANT	0	Positive Feedback Resistance (ohm)
ACHSELECT	IQUANT	0	Ach Select
CABLEID	IQUANT	14	Cable ID
DCCALDATE	LABEL	8/19/2019	DC Calibration Date
ACCALDATE	LABEL	8/19/2019	AC Calibration Date
THERMOSELECT	IQUANT	1	Thermo Select
FRAMEWORKVERSION	QUANT	6.33	Framework Version
INSTRUMENTVERSION	LABEL	3.50	Instrument Version
ZCURVE	TABLE
	Pt	Time	Freq	Zreal	Zimag	Zsig	Zmod	Zphz	Idc	Vdc	IERange
	#	s	Hz	ohm	ohm	V	ohm	°	A	V	#
	0	1	1000078	1712.089	-675.18	1	1840.413	-21.5223	1.489597E-006	0.0024648	8
	1	2	794390.6	1818.036	-600.2069	1	1914.55	-18.27014	-1.320213E-006	0.0012476	8
	2	2	630984.4	1898.375	-518.08	1	1967.8	-15.26471	2.313287E-006	0.0017511	8
	3	2	501234.4	1959.269	-451.4301	1	2010.603	-12.97493	-1.900053E-006	0.0011845	8
	4	3	398109.4	2004.892	-387.6347	1	2042.021	-10.9428	-1.026719E-006	0.0017296	8
	5	3	316265.6	2034.737	-336.5842	1	2062.388	-9.392756	1.871909E-006	0.0009127	8
	6	3	251203.1	2065.991	-298.5863	1	2087.456	-8.223702	-7.478985E-007	0.00171	8
	7	4	199546.9	2091.496	-269.5605	1	2108.796	-7.344025	5.168696E-006	0.0006906	8
	8	4	158578.1	2114.658	-241.354	1	2128.386	-6.511213	-3.144666E-006	0.0018245	8
	9	4	125953.1	2144.116	-199.6131	1	2153.387	-5.318797	9.494803E-007	0.0023678	7
	10	5	100078.1	2154.813	-185.7749	1	2162.807	-4.927508	-2.022052E-007	0.0023054	7
	11	5	79453.13	2171.326	-187.4123	1	2179.399	-4.933109	-9.299404E-007	0.0024159	7
	12	5	63140.62	2189.152	-190.3174	1	2197.409	-4.968608	-6.706753E-007	0.0025613	7
	13	6	50203.12	2207.668	-198.8483	1	2216.605	-5.146838	6.367185E-007	0.001095	7
	14	6	39890.62	2228.499	-209.09	1	2238.286	-5.360112	-9.26443E-007	0.0021307	7
	15	6	31640.63	2250.043	-222.7357	1	2261.041	-5.653391	-7.973222E-007	0.0016987	7
	16	7	25171.88	2270.624	-240.6876	1	2283.345	-6.050794	-9.314592E-007	0.0024135	7
	17	7	20015.62	2291.864	-265.3791	1	2307.177	-6.604966	-9.303872E-007	0.0021343	7
	18	7	15890.62	2314.795	-294.6041	1	2333.467	-7.253045	3.544707E-007	4.870093E-005	7
	19	7	12609.37	2340.674	-332.7943	1	2364.213	-8.092013	6.35795E-007	0.0010912	7
	20	8	10078.13	2362.514	-377.1333	1	2392.426	-9.069729	7.703556E-007	0.0007214	7
	21	8	8015.625	2389.554	-434.2647	1	2428.694	-10.30021	4.807411E-007	0.0013999	7
	22	8	6328.125	2418.033	-507.609	1	2470.739	-11.85574	8.069595E-008	0.0002708	7
	23	9	5015.625	2448.459	-598.5252	1	2520.553	-13.73655	-9.32328E-007	0.0024066	7
	24	9	3984.375	2482.459	-707.7759	1	2581.385	-15.91342	4.890938E-007	0.0013896	7
	25	9	3170.956	2520.831	-842.0891	1	2657.762	-18.47201	-6.71747E-007	0.0025526	7
	26	10	2527.573	2561.448	-1008.535	1	2752.846	-21.49137	7.74082E-008	0.0002653	7
	27	10	1976.103	2611.992	-1231.838	1	2887.894	-25.24897	8.15525E-008	0.000265	7
	28	10	1577.524	2659.776	-1476.182	1	3041.96	-29.03038	8.287747E-007	0.0004055	7
	29	11	1265.625	2725.763	-1786.643	1	3259.122	-33.24345	-2.094965E-007	0.0022879	7
	30	11	998.264	2798.623	-2194.477	1	3556.405	-38.10097	7.293017E-007	1.513282E-005	7
	31	11	796.875	2885.008	-2669.94	1	3930.884	-42.78281	-9.273006E-007	0.002395	7
	32	12	627.7902	3003.536	-3296.764	1	4459.808	-47.66473	-2.050287E-007	0.0022901	7
	33	12	505.5147	3134.305	-3993.835	1	5076.868	-51.87569	8.490922E-008	0.0002519	7
	34	12	397.9953	3306.371	-4937.91	1	5942.646	-56.19416	5.522778E-009	0.0013009	7
	35	13	315.5048	3528.063	-6071.956	1	7022.526	-59.8416	3.202743E-009	0.0013022	7
	36	13	252.4038	3802.659	-7407.048	1	8326.138	-62.82477	3.344348E-009	0.0012953	7
	37	13	198.6229	4185.675	-9163.235	1	10073.96	-65.44955	5.261187E-009	0.001298	7
	38	14	158.3615	4653.467	-11201.11	1	12129.29	-67.4397	2.514572E-010	0.0012357	6
	39	14	125.558	5285.681	-13730.87	1	14713.09	-68.94585	4.562639E-010	0.0012413	6
	40	14	100.4464	6070.667	-16695.42	1	17764.85	-70.01809	1.456106E-009	0.0012388	6
	41	15	79.00281	7153.747	-20502.49	1	21714.7	-70.76505	1.106498E-009	0.0012393	6
	42	15	63.3446	8680.24	-24898.96	1	26368.63	-70.78049	-1.977521E-010	0.0012374	6
	43	15	49.86702	10468.39	-30412.92	1	32164.15	-71.00609	2.880036E-010	0.0012304	6
	44	16	39.72458	12705.72	-36511.9	1	38659.47	-70.81269	5.896059E-010	0.0012316	6
	45	16	31.6723	15571.22	-43753.15	1	46441.37	-70.40997	-1.849914E-010	0.001239	6
	46	16	24.93351	19445.47	-53006.76	1	56460.98	-69.8545	9.101948E-010	0.0012325	6
	47	17	19.86229	24152.12	-63151.79	1	67612.66	-69.07087	1.781553E-009	0.0012454	6
	48	17	15.83615	29289.38	-74694.81	1	80232.05	-68.58883	8.137946E-010	0.0012364	6
	49	17	12.40079	37121.68	-89816.24	1	97185.3	-67.54435	8.652598E-011	0.0012281	6
	50	18	9.93114	46149.42	-105336.2	1	115002.1	-66.34102	-6.150787E-010	0.0012355	5
	51	18	7.944915	56407.78	-123185.3	1	135486	-65.39648	-1.440498E-010	0.0012315	5
	52	19	6.317385	69228.69	-144460.8	1	160192.2	-64.39527	-2.424598E-010	0.0012378	5
	53	20	5.008013	84898.5	-169043.9	1	189165.5	-63.33294	-3.089498E-010	0.0012296	5
	54	21	3.945707	104075.2	-197336.4	1	223099.3	-62.19284	3.459133E-010	0.0012325	5
	55	22	3.158693	125289	-227220.9	1	259473.8	-61.12777	1.563062E-010	0.0012458	5
	56	24	2.504006	150835.9	-262733.3	1	302952.6	-60.13975	-1.640314E-010	0.0012372	5
	57	25	1.998082	178793	-300304.2	1	349499	-59.23158	1.636545E-010	0.0012543	5
	58	26	1.584686	211846	-345593.4	1	405356	-58.49203	2.64379E-010	0.0012782	5
	59	28	1.266892	246339.9	-394872.5	1	465411.3	-58.04216	2.036423E-010	0.0012528	5
	60	31	0.999041	287979.1	-454559.1	1	538104	-57.64431	1.912056E-010	0.0012253	5
