EXPLAIN
TAG	EISPOT
TITLE	LABEL	Potentiostatic IDE	Test &Identifier
DATE	LABEL	9/12/2019	Date
TIME	LABEL	11:29:19	Time
NOTES	NOTES	1	&Notes...
	
PSTAT	PSTAT	REF600-11020	Potentiostat
VDC	POTEN	0.00000E+000	T	DC &Voltage (V)
FREQINIT	QUANT	1.00000E+006	Initial Fre&q. (Hz)
FREQFINAL	QUANT	1.00000E+000	Final Fre&q. (Hz)
PTSPERDEC	QUANT	1.00000E+001	Points/&decade
VAC	QUANT	2.50000E+001	AC &Voltage (mV rms)
AREA	QUANT	1.00000E-002	&Area (cm^2)
CONDIT	TWOPARAM	T	5.00000E+000	0.00000E+000	Conditionin&g	Time(s)	E(V)
DELAY	TWOPARAM	T	5.00000E+000	0.00000E+000	Init. De&lay	Time(s)	Stab.(mV/s)
SPEED	SELECTOR	1	&Optimize for:
ZGUESS	QUANT	1.00000E+007	E&stimated Z (ohms)
OCVCURVE	TABLE	19
	Pt	T	Vf	Vm	Ach	Over
	#	s	V vs. Ref.	V	V	bits
	0	0.258333	2.62412E-002	2.62412E-002	5.54133E-004	...........
	1	0.516667	2.62590E-002	2.71742E-002	5.59999E-004	...........
	2	0.775	2.63682E-002	2.80451E-002	5.56832E-004	...........
	3	1.03333	2.66751E-002	2.88214E-002	5.58299E-004	...........
	4	1.29167	2.72172E-002	2.95465E-002	5.58766E-004	...........
	5	1.55	2.79243E-002	3.02523E-002	5.57199E-004	...........
	6	1.80833	2.86911E-002	3.09224E-002	5.61366E-004	...........
	7	2.06667	2.94471E-002	3.15478E-002	5.59532E-004	...........
	8	2.325	3.01641E-002	3.21081E-002	5.57833E-004	...........
	9	2.58333	3.08350E-002	3.26461E-002	5.58732E-004	...........
	10	2.84167	3.14591E-002	3.31440E-002	5.61999E-004	...........
	11	3.1	3.20434E-002	3.38489E-002	5.57999E-004	...........
	12	3.35833	3.26149E-002	3.47221E-002	5.63766E-004	...........
	13	3.61667	3.32205E-002	3.54614E-002	5.58999E-004	...........
	14	3.875	3.38839E-002	3.57130E-002	5.61332E-004	...........
	15	4.13333	3.45548E-002	3.58670E-002	5.63166E-004	...........
	16	4.39167	3.51757E-002	3.82648E-002	5.62799E-004	...........
	17	4.65	3.58094E-002	3.79055E-002	5.61632E-004	...........
	18	4.90833	3.65233E-002	3.76716E-002	5.61466E-004	...........
EOC	QUANT	0.0365233	Open Circuit (V)
PSTATMODEL	IQUANT	4	Pstat Model
PSTATSECTION	LABEL	REF600-11020	Pstat Section
PSTATSERIALNO	LABEL	11020	Pstat Serial Number
CTRLMODE	IQUANT	1	Control Mode
IESTAB	IQUANT	0	I/E Stability
CASPEED	IQUANT	1	Control Amp Speed
CONVENTION	IQUANT	1	Current Convention
ICHRANGE	IQUANT	2	Ich Range
ICHRANGEMODE	TOGGLE	F	Ich Auto Range
ICHOFFSETENABLE	TOGGLE	T	Ich Offset Enable
ICHOFFSET	QUANT	0	Ich Offset (V)
ICHFILTER	IQUANT	3	Ich Filter
VCHRANGE	IQUANT	2	Vch Range
VCHRANGEMODE	TOGGLE	F	Vch Auto Range
VCHOFFSETENABLE	TOGGLE	T	Vch Offset Enable
VCHOFFSET	QUANT	0	Vch Offset (V)
VCHFILTER	IQUANT	3	Vch Filter
ACHRANGE	IQUANT	2	Ach Range
ACHOFFSETENABLE	TOGGLE	F	Ach Offset Enable
ACHOFFSET	QUANT	0	Ach Offset (V)
ACHFILTER	IQUANT	3	Ach Filter
IERANGELOWERLIMIT	IQUANT	1	I/E Range Lower Limit
IERANGEMODE	TOGGLE	F	I/E AutoRange
IERANGE	IQUANT	3	I/E Range
POSFEEDENABLE	TOGGLE	F	Positive Feedback IR Comp
POSFEEDRESISTANCE	QUANT	0	Positive Feedback Resistance (ohm)
ACHSELECT	IQUANT	0	Ach Select
CABLEID	IQUANT	14	Cable ID
DCCALDATE	LABEL	8/19/2019	DC Calibration Date
ACCALDATE	LABEL	8/19/2019	AC Calibration Date
THERMOSELECT	IQUANT	1	Thermo Select
FRAMEWORKVERSION	QUANT	6.33	Framework Version
INSTRUMENTVERSION	LABEL	3.50	Instrument Version
ZCURVE	TABLE
	Pt	Time	Freq	Zreal	Zimag	Zsig	Zmod	Zphz	Idc	Vdc	IERange
	#	s	Hz	ohm	ohm	V	ohm	°	A	V	#
	0	2	1000078	2390.898	-2070.119	1	3162.56	-40.8871	-2.926309E-006	0.0388752	8
	1	4	794390.6	2802.992	-2112.295	1	3509.78	-37.00116	2.1008E-006	0.0381964	8
	2	5	630984.4	3208.65	-2085.512	1	3826.852	-33.02248	-5.019611E-006	0.0391515	8
	3	7	501234.4	3582.71	-2006.605	1	4106.37	-29.25233	-1.050648E-006	0.0385425	8
	4	8	398109.4	3917.373	-1898.637	1	4353.233	-25.85812	-2.213136E-006	0.0386331	8
	5	9	316265.6	4225.191	-1813.431	1	4597.91	-23.22877	4.519748E-006	0.0373537	8
	6	11	251203.1	4503.847	-1658.915	1	4799.649	-20.22041	1.888053E-007	0.0381266	8
	7	12	199546.9	4727.643	-1543.608	1	4973.261	-18.08221	6.444562E-007	0.038112	8
	8	13	158578.1	4908.434	-1439.12	1	5115.055	-16.34078	-3.08175E-006	0.0387581	8
	9	15	125953.1	5102.182	-1276.893	1	5259.535	-14.05048	4.225119E-007	0.0370131	7
	10	16	100078.1	5240.956	-1214.886	1	5379.923	-13.05101	-2.324544E-009	0.038061	7
	11	18	79453.13	5373.413	-1178.958	1	5501.228	-12.37494	4.454434E-008	0.0379435	7
	12	19	63140.62	5501.144	-1162.97	1	5622.729	-11.93686	1.061715E-007	0.0379874	7
	13	20	50203.12	5621.146	-1165.81	1	5740.766	-11.71688	6.967275E-008	0.0379678	7
	14	22	39890.62	5746.155	-1191.474	1	5868.382	-11.71436	-3.321564E-009	0.0381215	7
	15	23	31640.63	5866.313	-1240.096	1	5995.954	-11.93619	-4.453187E-008	0.0381861	7
	16	24	25171.88	5993.519	-1309.675	1	6134.942	-12.32625	-7.735856E-008	0.0381725	7
	17	26	20015.62	6130.594	-1405.096	1	6289.553	-12.9089	-6.658222E-008	0.0381877	7
	18	27	15890.62	6274.175	-1525.771	1	6457.031	-13.66804	1.093378E-007	0.0379859	7
	19	28	12609.37	6440.606	-1681.881	1	6656.585	-14.63523	5.179671E-008	0.0380144	7
	20	30	10078.13	6607.224	-1864.942	1	6865.378	-15.76215	-2.053237E-008	0.038116	7
	21	31	8015.625	6803.395	-2077.629	1	7113.559	-16.98169	-1.795418E-008	0.0380361	7
	22	32	6328.125	7028.097	-2350.054	1	7410.594	-18.4889	-6.45965E-008	0.0382935	7
	23	34	5015.625	7279.227	-2660.426	1	7750.162	-20.07644	1.536394E-008	0.0379811	7
	24	35	3984.375	7556.573	-3021.537	1	8138.273	-21.79427	8.766334E-008	0.0378942	7
	25	36	3170.956	7868.797	-3437.565	1	8586.898	-23.59861	-5.513333E-008	0.0381347	7
	26	38	2527.573	8225.746	-3920.104	1	9112.086	-25.48084	1.637189E-008	0.0379817	7
	27	39	1976.103	8681.041	-4516.426	1	9785.63	-27.4863	5.696608E-009	0.0378019	6
	28	40	1577.524	9150.721	-5167.743	1	10509.1	-29.45499	7.73932E-010	0.03817	6
	29	42	1265.625	9690.36	-5904.388	1	11347.46	-31.35417	1.702161E-008	0.0377234	6
	30	43	998.264	10337.27	-6809.253	1	12378.41	-33.37325	1.115112E-008	0.0379605	6
	31	44	796.875	11068.79	-7799.57	1	13540.73	-35.17026	-6.460332E-009	0.0381768	6
	32	46	627.7902	11954.91	-8973.031	1	14947.75	-36.89089	-6.545942E-010	0.0379984	6
	33	47	505.5147	12881.64	-10197.65	1	16429.51	-38.36663	-7.182137E-009	0.0381812	6
	34	48	397.9953	14025.06	-11683.74	1	18254.1	-39.79637	9.592673E-010	0.0380225	6
	35	50	315.5048	15253.02	-13315.66	1	20247.51	-41.12048	2.83988E-011	0.0380163	6
	36	51	252.4038	16499.49	-15098.84	1	22365.33	-42.46193	5.829975E-010	0.038019	6
	37	52	198.6229	17901.82	-17316.27	1	24906.39	-44.04747	2.405607E-010	0.0380232	6
	38	54	158.3615	19241.78	-19826.44	1	27628.5	-45.85738	-1.242677E-010	0.0380155	6
	39	55	125.558	20611.22	-22941.7	1	30840.63	-48.06293	4.753138E-010	0.0380106	6
	40	56	100.4464	21883.54	-26673.03	1	34501.3	-50.63329	-1.615485E-010	0.038011	6
	41	58	79.00281	23411.9	-31610.85	1	39336.53	-53.47528	9.822336E-010	0.0380137	6
	42	59	63.3446	24312.59	-37715.5	1	44872.72	-57.19291	3.451253E-010	0.0380116	6
	43	60	49.86702	26711.42	-45112.3	1	52427.28	-59.36982	9.666054E-010	0.0380178	6
	44	62	39.72458	28365.87	-54932.54	1	61824	-62.68924	4.845147E-010	0.0380145	6
	45	63	31.6723	30769.01	-66441.26	1	73220.03	-65.1511	-4.47474E-011	0.0380205	6
	46	64	24.93351	33545.8	-81933.84	1	88535.16	-67.73456	2.529969E-010	0.0380151	6
	47	66	19.86229	37165.09	-99946	1	106632.3	-69.60226	1.035039E-010	0.0380239	5
	48	67	15.83615	43189.63	-121633	1	129073.3	-70.45099	1.587578E-009	0.0380139	5
	49	68	12.40079	48380.13	-150569	1	158150.8	-72.187	-8.554589E-010	0.0380191	5
	50	70	9.93114	57357.77	-184486.7	1	193197.5	-72.72929	3.430245E-010	0.038011	5
	51	71	7.944915	68460.4	-224872.4	1	235062.6	-73.0676	1.57002E-010	0.0380154	5
	52	73	6.317385	82176.47	-273489.9	1	285569.1	-73.27587	-1.63014E-010	0.0380317	5
	53	75	5.008013	101795.1	-333175.9	1	348379.7	-73.01054	-3.201247E-010	0.038016	5
	54	78	3.945707	128218.2	-407143.4	1	426855.6	-72.51966	-4.338187E-011	0.0380175	5
	55	80	3.158693	160471.3	-488677.3	1	514350.6	-71.82092	5.480582E-011	0.0380392	5
	56	83	2.504006	203928	-588623.4	1	622947.9	-70.89141	-1.326304E-010	0.0380238	5
	57	86	1.998082	257816.3	-700495.1	1	746433.3	-69.79393	2.959044E-011	0.0379733	5
	58	89	1.584686	325685.1	-834895.9	1	896170.7	-68.68971	-3.386902E-011	0.0379947	5
	59	93	1.266892	417487.7	-985014	1	1069836	-67.03085	9.869433E-011	0.0379695	4
	60	97	0.999041	522772.4	-1162390	1	1274536	-65.78468	-1.121356E-010	0.0380432	4
