EXPLAIN
TAG	EISPOT
TITLE	LABEL	Potentiostatic EIS	Test &Identifier
DATE	LABEL	10/28/2019	Date
TIME	LABEL	10:20:11	Time
NOTES	NOTES	1	&Notes...
	
PSTAT	PSTAT	REF600-11020	Potentiostat
VDC	POTEN	0.00000E+000	T	DC &Voltage (V)
FREQINIT	QUANT	1.00000E+006	Initial Fre&q. (Hz)
FREQFINAL	QUANT	1.00000E+000	Final Fre&q. (Hz)
PTSPERDEC	QUANT	1.00000E+001	Points/&decade
VAC	QUANT	2.50000E+001	AC &Voltage (mV rms)
AREA	QUANT	1.00000E-002	&Area (cm^2)
CONDIT	TWOPARAM	T	5.00000E+000	0.00000E+000	Conditionin&g	Time(s)	E(V)
DELAY	TWOPARAM	T	5.00000E+000	0.00000E+000	Init. De&lay	Time(s)	Stab.(mV/s)
SPEED	SELECTOR	1	&Optimize for:
ZGUESS	QUANT	1.00000E+005	E&stimated Z (ohms)
OCVCURVE	TABLE	19
	Pt	T	Vf	Vm	Ach	Over
	#	s	V vs. Ref.	V	V	bits
	0	0.258333	6.05564E-003	6.05564E-003	5.26000E-004	...........
	1	0.516667	6.04990E-003	5.75519E-003	5.37766E-004	...........
	2	0.775	6.01645E-003	5.56444E-003	5.31700E-004	...........
	3	1.03333	5.92632E-003	5.30391E-003	5.34733E-004	...........
	4	1.29167	5.77435E-003	5.27257E-003	5.36199E-004	...........
	5	1.55	5.59165E-003	5.16862E-003	5.35099E-004	...........
	6	1.80833	5.41945E-003	4.99496E-003	5.29366E-004	...........
	7	2.06667	5.27345E-003	4.86309E-003	5.31200E-004	...........
	8	2.325	5.14387E-003	4.84161E-003	5.35066E-004	...........
	9	2.58333	5.02489E-003	4.77154E-003	5.32633E-004	...........
	10	2.84167	4.92308E-003	4.70358E-003	5.32400E-004	...........
	11	3.1	4.84141E-003	4.65828E-003	5.31500E-004	...........
	12	3.35833	4.77432E-003	4.60814E-003	5.26200E-004	...........
	13	3.61667	4.71581E-003	4.56130E-003	5.28833E-004	...........
	14	3.875	4.66245E-003	4.50378E-003	5.27166E-004	...........
	15	4.13333	4.61297E-003	4.52895E-003	5.34066E-004	...........
	16	4.39167	4.56970E-003	4.47470E-003	5.34933E-004	...........
	17	4.65	4.53482E-003	4.42809E-003	5.30400E-004	...........
	18	4.90833	4.50438E-003	4.39886E-003	5.34800E-004	...........
EOC	QUANT	0.0045044	Open Circuit (V)
PSTATMODEL	IQUANT	4	Pstat Model
PSTATSECTION	LABEL	REF600-11020	Pstat Section
PSTATSERIALNO	LABEL	11020	Pstat Serial Number
CTRLMODE	IQUANT	1	Control Mode
IESTAB	IQUANT	0	I/E Stability
CASPEED	IQUANT	1	Control Amp Speed
CONVENTION	IQUANT	1	Current Convention
ICHRANGE	IQUANT	2	Ich Range
ICHRANGEMODE	TOGGLE	F	Ich Auto Range
ICHOFFSETENABLE	TOGGLE	T	Ich Offset Enable
ICHOFFSET	QUANT	0	Ich Offset (V)
ICHFILTER	IQUANT	3	Ich Filter
VCHRANGE	IQUANT	2	Vch Range
VCHRANGEMODE	TOGGLE	F	Vch Auto Range
VCHOFFSETENABLE	TOGGLE	T	Vch Offset Enable
VCHOFFSET	QUANT	0	Vch Offset (V)
VCHFILTER	IQUANT	3	Vch Filter
ACHRANGE	IQUANT	2	Ach Range
ACHOFFSETENABLE	TOGGLE	F	Ach Offset Enable
ACHOFFSET	QUANT	0	Ach Offset (V)
ACHFILTER	IQUANT	3	Ach Filter
IERANGELOWERLIMIT	IQUANT	1	I/E Range Lower Limit
IERANGEMODE	TOGGLE	F	I/E AutoRange
IERANGE	IQUANT	4	I/E Range
POSFEEDENABLE	TOGGLE	F	Positive Feedback IR Comp
POSFEEDRESISTANCE	QUANT	0	Positive Feedback Resistance (ohm)
ACHSELECT	IQUANT	0	Ach Select
CABLEID	IQUANT	14	Cable ID
DCCALDATE	LABEL	8/19/2019	DC Calibration Date
ACCALDATE	LABEL	8/19/2019	AC Calibration Date
THERMOSELECT	IQUANT	1	Thermo Select
FRAMEWORKVERSION	QUANT	6.33	Framework Version
INSTRUMENTVERSION	LABEL	3.50	Instrument Version
ZCURVE	TABLE
	Pt	Time	Freq	Zreal	Zimag	Zsig	Zmod	Zphz	Idc	Vdc	IERange
	#	s	Hz	ohm	ohm	V	ohm	°	A	V	#
	0	1	1000078	2479.688	-1772.075	1	3047.803	-35.55098	-3.451815E-007	0.0066753	8
	1	3	794390.6	2823.606	-1753.45	1	3323.754	-31.84015	2.498566E-006	0.0059568	8
	2	4	630984.4	3149.61	-1683.615	1	3571.358	-28.12661	-1.950083E-006	0.0067705	8
	3	6	501234.4	3416.802	-1561.412	1	3756.666	-24.55947	-3.750107E-006	0.0069772	8
	4	7	398109.4	3672.042	-1459.216	1	3951.354	-21.67215	-5.487019E-006	0.0074504	8
	5	9	316265.6	3886.451	-1327.014	1	4106.759	-18.85227	2.20019E-006	0.00569	8
	6	11	251203.1	4056.167	-1199.776	1	4229.888	-16.47772	-1.277773E-006	0.0064907	8
	7	12	199546.9	4181.355	-1123.13	1	4329.567	-15.03501	5.160683E-006	0.0051629	8
	8	14	158578.1	4294.048	-980.111	1	4404.483	-12.85743	4.593521E-006	0.0051709	8
	9	15	125953.1	4454.01	-849.1508	1	4534.232	-10.79383	7.231171E-007	0.0038354	7
	10	17	100078.1	4523.647	-818.0099	1	4597.013	-10.25002	-5.334869E-008	0.0060508	7
	11	18	79453.13	4603.661	-807.3745	1	4673.922	-9.94718	-6.009024E-008	0.0062009	7
	12	19	63140.62	4684.342	-807.4067	1	4753.416	-9.77958	-5.931357E-008	0.0061373	7
	13	21	50203.12	4763.993	-829.7024	1	4835.704	-9.8796	-4.766668E-008	0.0060618	7
	14	22	39890.62	4849.973	-867.3859	1	4926.926	-10.13978	4.323636E-008	0.0059533	7
	15	24	31640.63	4939.626	-921.6713	1	5024.876	-10.56913	-5.044517E-008	0.0060343	7
	16	25	25171.88	5037.015	-991.178	1	5133.61	-11.13236	1.658272E-008	0.0059115	7
	17	26	20015.62	5137.765	-1070.774	1	5248.16	-11.77264	1.49653E-008	0.0059121	7
	18	28	15890.62	5258.777	-1188.845	1	5391.483	-12.73866	9.873611E-008	0.005804	7
	19	29	12609.37	5394.283	-1311.321	1	5551.383	-13.66327	-1.466684E-008	0.0060663	7
	20	30	10078.13	5532.977	-1465.389	1	5723.74	-14.83401	-1.539506E-008	0.0060686	7
	21	32	8015.625	5693.528	-1648.843	1	5927.474	-16.15099	-2.37681E-008	0.0059828	7
	22	33	6328.125	5871.578	-1857.264	1	6158.316	-17.55291	3.41919E-008	0.0059841	8
	23	35	5015.625	6082.581	-2095.765	1	6433.508	-19.01149	-5.208234E-008	0.0060382	7
	24	37	3984.375	6321.537	-2381.66	1	6755.304	-20.64407	9.791379E-008	0.0057942	7
	25	38	3170.956	6581.47	-2684.737	1	7107.993	-22.19171	-1.621959E-008	0.0059545	7
	26	39	2527.573	6878.639	-3049.858	1	7524.447	-23.91159	-7.517769E-009	0.0060279	7
	27	41	1976.103	7237.566	-3486.108	1	8033.388	-25.71865	-7.223046E-009	0.0060523	7
	28	42	1577.524	7754.59	-3940.383	1	8698.292	-26.93674	-4.793828E-008	0.0060354	7
	29	43	1265.625	8013.537	-4425.103	1	9154.142	-28.90763	-1.656846E-008	0.0060632	7
	30	45	998.264	8469.147	-5018.481	1	9844.37	-30.6493	1.522309E-009	0.0060079	6
	31	46	796.875	8925.629	-5688.077	1	10584	-32.50833	2.875761E-009	0.0059824	6
	32	48	627.7902	9408.556	-6534.534	1	11455.18	-34.78118	-1.12786E-009	0.005937	6
	33	49	505.5147	9851.88	-7456.245	1	12355.37	-37.11969	4.17794E-009	0.0058118	6
	34	50	397.9953	10349	-8718.927	1	13532.24	-40.11379	1.366857E-011	0.0059687	6
	35	52	315.5048	10840.11	-10252.54	1	14920.54	-43.40433	1.293884E-009	0.005963	6
	36	53	252.4038	11327.74	-12103.32	1	16577.34	-46.89583	1.542899E-009	0.0059566	6
	37	55	198.6229	11902.88	-14602.78	1	18839.32	-50.81615	6.535954E-011	0.0059637	6
	38	56	158.3615	12523.65	-17565.66	1	21573	-54.51257	-1.967938E-010	0.0059568	6
	39	57	125.558	13275.61	-21375.04	1	25162.16	-58.15642	1.014976E-010	0.0059601	6
	40	59	100.4464	14216.9	-25867.46	1	29516.88	-61.20656	-3.609077E-010	0.0059561	6
	41	60	79.00281	15428.33	-32066.97	1	35585.45	-64.30647	2.610484E-010	0.0059604	6
	42	61	63.3446	16384.62	-39217.44	1	42502.51	-67.32536	-2.577669E-010	0.0059552	6
	43	63	49.86702	18994.11	-47326.04	1	50995.39	-68.13214	1.437763E-009	0.0059568	6
	44	64	39.72458	21474.67	-58369	1	62194.06	-69.80082	1.02828E-010	0.0059559	6
	45	66	31.6723	24811.36	-71328.87	1	75520.93	-70.82005	1.474634E-010	0.0059626	6
	46	67	24.93351	29283.99	-87544.83	1	92312.78	-71.50477	6.756676E-011	0.0059631	6
	47	69	19.86229	34881.94	-106039.5	1	111629.4	-71.79125	-2.892085E-010	0.0059677	5
	48	70	15.83615	43507.23	-127726.7	1	134933.3	-71.18974	-1.182644E-009	0.005961	5
	49	71	12.40079	54388.02	-158841.6	1	167894.9	-71.09858	-1.562672E-009	0.005961	5
	50	73	9.93114	63858.12	-189041.6	1	199535.9	-71.33507	2.990514E-010	0.0059593	5
	51	74	7.944915	78978.51	-225616.7	1	239040.8	-70.70709	-2.461694E-010	0.0059593	5
	52	76	6.317385	97849.2	-270912.2	1	288041.5	-70.14109	2.779464E-010	0.0059558	5
	53	78	5.008013	122370	-324133.8	1	346463.8	-69.31702	7.284068E-011	0.0059743	5
	54	81	3.945707	153713.5	-389185	1	418441	-68.44783	-8.917897E-011	0.0059557	5
	55	83	3.158693	190537.2	-459608	1	497537.9	-67.48283	2.064593E-010	0.0059835	5
	56	87	2.504006	238419.6	-544085.3	1	594030.9	-66.33684	-1.475589E-010	0.0059595	5
	57	89	1.998082	295317.3	-637006.8	1	702132.4	-65.12749	-3.932526E-011	0.0059418	5
	58	93	1.584686	368751.9	-744028.3	1	830395.1	-63.63628	3.419216E-011	0.0060048	5
	59	96	1.266892	451260	-862201.6	1	973153	-62.37329	-7.446456E-011	0.0059517	5
	60	101	0.999041	559032.2	-1002084	1	1147471	-60.84418	2.039809E-010	0.0059794	4
