EXPLAIN
TAG	EISPOT
TITLE	LABEL	Potentiostatic IDE	Test &Identifier
DATE	LABEL	9/16/2019	Date
TIME	LABEL	9:48:36	Time
NOTES	NOTES	1	&Notes...
	
PSTAT	PSTAT	REF600-11020	Potentiostat
VDC	POTEN	0.00000E+000	T	DC &Voltage (V)
FREQINIT	QUANT	1.00000E+006	Initial Fre&q. (Hz)
FREQFINAL	QUANT	1.00000E+000	Final Fre&q. (Hz)
PTSPERDEC	QUANT	1.00000E+001	Points/&decade
VAC	QUANT	2.50000E+001	AC &Voltage (mV rms)
AREA	QUANT	1.00000E-002	&Area (cm^2)
CONDIT	TWOPARAM	T	5.00000E+000	0.00000E+000	Conditionin&g	Time(s)	E(V)
DELAY	TWOPARAM	T	5.00000E+000	0.00000E+000	Init. De&lay	Time(s)	Stab.(mV/s)
SPEED	SELECTOR	1	&Optimize for:
ZGUESS	QUANT	1.00000E+007	E&stimated Z (ohms)
OCVCURVE	TABLE	19
	Pt	T	Vf	Vm	Ach	Over
	#	s	V vs. Ref.	V	V	bits
	0	0.258333	-1.65436E-003	-1.65436E-003	5.40799E-004	...........
	1	0.516667	-1.66674E-003	-2.30205E-003	5.40966E-004	...........
	2	0.775	-1.74246E-003	-2.90258E-003	5.41466E-004	...........
	3	1.03333	-1.95477E-003	-3.42402E-003	5.40633E-004	...........
	4	1.29167	-2.32851E-003	-3.92989E-003	5.41066E-004	...........
	5	1.55	-2.81414E-003	-4.39268E-003	5.43066E-004	...........
	6	1.80833	-3.33803E-003	-4.83060E-003	5.45166E-004	...........
	7	2.06667	-3.84965E-003	-5.22308E-003	5.38333E-004	...........
	8	2.325	-4.32779E-003	-5.60345E-003	5.35933E-004	...........
	9	2.58333	-4.76937E-003	-5.97790E-003	5.41166E-004	...........
	10	2.84167	-5.17988E-003	-6.32377E-003	5.38966E-004	...........
	11	3.1	-5.56649E-003	-6.64921E-003	5.38266E-004	...........
	12	3.35833	-5.93328E-003	-6.95428E-003	5.37733E-004	...........
	13	3.61667	-6.28111E-003	-7.25826E-003	5.37333E-004	...........
	14	3.875	-6.61099E-003	-7.55127E-003	5.35333E-004	...........
	15	4.13333	-6.92534E-003	-7.81122E-003	5.36066E-004	...........
	16	4.39167	-7.22539E-003	-8.05434E-003	5.42799E-004	...........
	17	4.65	-7.51055E-003	-8.33532E-003	5.38633E-004	...........
	18	4.90833	-7.78218E-003	-8.56405E-003	5.37533E-004	...........
EOC	QUANT	-0.0077822	Open Circuit (V)
PSTATMODEL	IQUANT	4	Pstat Model
PSTATSECTION	LABEL	REF600-11020	Pstat Section
PSTATSERIALNO	LABEL	11020	Pstat Serial Number
CTRLMODE	IQUANT	1	Control Mode
IESTAB	IQUANT	0	I/E Stability
CASPEED	IQUANT	1	Control Amp Speed
CONVENTION	IQUANT	1	Current Convention
ICHRANGE	IQUANT	2	Ich Range
ICHRANGEMODE	TOGGLE	F	Ich Auto Range
ICHOFFSETENABLE	TOGGLE	T	Ich Offset Enable
ICHOFFSET	QUANT	0	Ich Offset (V)
ICHFILTER	IQUANT	3	Ich Filter
VCHRANGE	IQUANT	2	Vch Range
VCHRANGEMODE	TOGGLE	F	Vch Auto Range
VCHOFFSETENABLE	TOGGLE	T	Vch Offset Enable
VCHOFFSET	QUANT	0	Vch Offset (V)
VCHFILTER	IQUANT	3	Vch Filter
ACHRANGE	IQUANT	2	Ach Range
ACHOFFSETENABLE	TOGGLE	F	Ach Offset Enable
ACHOFFSET	QUANT	0	Ach Offset (V)
ACHFILTER	IQUANT	3	Ach Filter
IERANGELOWERLIMIT	IQUANT	1	I/E Range Lower Limit
IERANGEMODE	TOGGLE	F	I/E AutoRange
IERANGE	IQUANT	3	I/E Range
POSFEEDENABLE	TOGGLE	F	Positive Feedback IR Comp
POSFEEDRESISTANCE	QUANT	0	Positive Feedback Resistance (ohm)
ACHSELECT	IQUANT	0	Ach Select
CABLEID	IQUANT	14	Cable ID
DCCALDATE	LABEL	8/19/2019	DC Calibration Date
ACCALDATE	LABEL	8/19/2019	AC Calibration Date
THERMOSELECT	IQUANT	1	Thermo Select
FRAMEWORKVERSION	QUANT	6.33	Framework Version
INSTRUMENTVERSION	LABEL	3.50	Instrument Version
ZCURVE	TABLE
	Pt	Time	Freq	Zreal	Zimag	Zsig	Zmod	Zphz	Idc	Vdc	IERange
	#	s	Hz	ohm	ohm	V	ohm	°	A	V	#
	0	2	1000078	2647.52	-1805.002	1	3204.278	-34.28503	-4.582414E-006	-0.0050459	8
	1	3	794390.6	2998.397	-1698.171	1	3445.891	-29.52546	4.234009E-006	-0.0063912	8
	2	5	630984.4	3301.606	-1560.489	1	3651.812	-25.29754	-1.808535E-006	-0.0055966	8
	3	6	501234.4	3538.126	-1391.465	1	3801.908	-21.46859	-5.276369E-007	-0.0058116	8
	4	7	398109.4	3779.642	-1231.101	1	3975.086	-18.04141	2.230306E-006	-0.0067685	8
	5	9	316265.6	3899.168	-1059.285	1	4040.495	-15.1987	3.062793E-006	-0.00678	8
	6	11	251203.1	4030.042	-934.4262	1	4136.954	-13.05422	4.584175E-007	-0.0063512	8
	7	12	199546.9	4121.823	-789.3916	1	4196.732	-10.84173	5.114122E-007	-0.0063438	8
	8	13	158578.1	4172.236	-691.8569	1	4229.21	-9.415339	9.255444E-007	-0.006323	8
	9	15	125953.1	4266.882	-589.5344	1	4307.416	-7.866477	-9.809247E-007	-0.0035065	7
	10	16	100078.1	4297.454	-523.4177	1	4329.211	-6.94426	9.618105E-008	-0.006378	7
	11	17	79453.13	4337.783	-496.5792	1	4366.114	-6.530657	8.359654E-008	-0.0062254	7
	12	19	63140.62	4376.91	-481.7805	1	4403.345	-6.281443	-1.954565E-008	-0.0062143	7
	13	20	50203.12	4412.904	-477.2054	1	4438.631	-6.171904	-4.15752E-008	-0.0061462	7
	14	21	39890.62	4453.043	-484.7351	1	4479.349	-6.212459	8.17494E-008	-0.0063393	7
	15	23	31640.63	4494.561	-512.1537	1	4523.646	-6.500795	4.977005E-008	-0.0063512	7
	16	24	25171.88	4537.675	-549.3199	1	4570.804	-6.902499	2.506824E-008	-0.006299	7
	17	25	20015.62	4586.285	-600.5107	1	4625.432	-7.459655	-5.116089E-008	-0.0060345	7
	18	27	15890.62	4637.114	-666.673	1	4684.792	-8.181293	-9.430218E-009	-0.0061664	7
	19	28	12609.37	4698.552	-746.4444	1	4757.476	-9.026964	-1.40574E-008	-0.0061441	7
	20	29	10078.13	4761.208	-843.1036	1	4835.279	-10.04171	-7.256482E-009	-0.0061632	7
	21	31	8015.625	4834.057	-962.693	1	4928.984	-11.26299	-3.29657E-009	-0.0062622	7
	22	32	6328.125	4921.141	-1114.549	1	5045.775	-12.76117	-7.64331E-008	-0.0060816	7
	23	33	5015.625	5017.008	-1292.34	1	5180.783	-14.4449	-6.728267E-009	-0.0061772	7
	24	35	3984.375	5125.246	-1503.372	1	5341.187	-16.34783	1.510792E-007	-0.0064315	7
	25	36	3170.956	5244.407	-1751.059	1	5529.015	-18.46369	-5.181192E-009	-0.0061764	7
	26	38	2527.573	5388.611	-2044.271	1	5763.348	-20.77519	2.421345E-008	-0.0063073	7
	27	39	1976.103	5565.999	-2426.445	1	6071.901	-23.55434	-4.989666E-008	-0.0060434	7
	28	40	1577.524	5758.611	-2843.987	1	6422.605	-26.28323	-5.056025E-009	-0.0062623	7
	29	42	1265.625	5962.577	-3325.879	1	6827.43	-29.15244	9.698068E-008	-0.0064097	7
	30	43	998.264	6215.321	-3949.345	1	7363.935	-32.43273	-7.06913E-009	-0.0061619	7
	31	44	796.875	6497.616	-4647.467	1	7988.615	-35.57452	-4.083185E-008	-0.006179	7
	32	45	627.7902	6832.641	-5546.291	1	8800.359	-39.06743	-1.48483E-008	-0.0061443	7
	33	47	505.5147	7186.757	-6518.723	1	9702.74	-42.20949	2.436179E-009	-0.0062112	6
	34	48	397.9953	7629.283	-7819.844	1	10925.01	-45.7067	1.01514E-009	-0.0062418	6
	35	49	315.5048	8120.026	-9354.193	1	12386.92	-49.03997	1.020686E-009	-0.0062409	6
	36	51	252.4038	8660.442	-11136.73	1	14107.8	-52.1297	6.211056E-010	-0.006243	6
	37	52	198.6229	9331.737	-13465.35	1	16382.83	-55.27733	1.129761E-009	-0.006245	6
	38	53	158.3615	10059.58	-16158.94	1	19034.35	-58.09608	1.230184E-009	-0.0062416	6
	39	55	125.558	10943.22	-19523.27	1	22381.06	-60.7284	9.898166E-010	-0.0062472	6
	40	56	100.4464	11927.19	-23441.29	1	26301.18	-63.03249	7.687113E-010	-0.0062456	6
	41	57	79.00281	13216.9	-28623.65	1	31527.76	-65.21499	1.508863E-009	-0.0062474	6
	42	59	63.3446	14943.68	-34841.59	1	37911.08	-66.78533	6.079681E-010	-0.0062506	6
	43	60	49.86702	16318.14	-42466.61	1	45493.9	-68.98032	1.451436E-009	-0.0062529	6
	44	62	39.72458	19009.61	-51511.16	1	54906.87	-69.74399	1.1094E-009	-0.0062479	6
	45	63	31.6723	22106.22	-62726.78	1	66508.15	-70.58649	2.842659E-010	-0.0062474	6
	46	64	24.93351	26020.27	-76794.82	1	81083.28	-71.28216	1.18302E-009	-0.0062526	6
	47	66	19.86229	31170.59	-93098.25	1	98177.9	-71.48873	1.525917E-009	-0.006242	6
	48	67	15.83615	38655.68	-113412.2	1	119819	-71.17873	2.582773E-009	-0.0062522	5
	49	68	12.40079	48002.02	-138911	1	146970.9	-70.93691	-2.989E-010	-0.0062473	5
	50	70	9.93114	58218.18	-164992.4	1	174962.4	-70.56442	1.588118E-010	-0.0062458	5
	51	71	7.944915	72042.51	-198367	1	211044.1	-70.0401	9.813033E-010	-0.0062486	5
	52	73	6.317385	91050.65	-235438.9	1	252431.6	-68.85715	3.855669E-010	-0.0062539	5
	53	75	5.008013	115226.9	-280789.1	1	303512.3	-67.68832	3.173228E-010	-0.0062504	5
	54	77	3.945707	146441.8	-332298.1	1	363135.3	-66.21719	5.806308E-010	-0.006239	5
	55	80	3.158693	182471.9	-388653.9	1	429357.5	-64.85007	3.695575E-010	-0.0062386	5
	56	84	2.504006	227689	-453614.2	1	507551.1	-63.3459	6.522735E-010	-0.006254	5
	57	86	1.998082	279021.9	-522879.1	1	592668.3	-61.91446	1.953293E-010	-0.0062208	5
	58	89	1.584686	341993.5	-602879.9	1	693126.1	-60.43521	4.962817E-010	-0.006209	5
	59	93	1.266892	411330.7	-686106.1	1	799959.1	-59.05669	1.604221E-010	-0.0062232	5
	60	97	0.999041	494136.2	-784487.4	1	927141.4	-57.79382	5.050433E-010	-0.0062583	5
