EXPLAIN
TAG	EISPOT
TITLE	LABEL	Potentiostatic EIS	Test &Identifier
DATE	LABEL	9/22/2019	Date
TIME	LABEL	10:53:52	Time
NOTES	NOTES	1	&Notes...
	
PSTAT	PSTAT	REF600-11020	Potentiostat
VDC	POTEN	0.00000E+000	T	DC &Voltage (V)
FREQINIT	QUANT	1.00000E+006	Initial Fre&q. (Hz)
FREQFINAL	QUANT	1.00000E+000	Final Fre&q. (Hz)
PTSPERDEC	QUANT	1.00000E+001	Points/&decade
VAC	QUANT	2.50000E+001	AC &Voltage (mV rms)
AREA	QUANT	1.00000E-002	&Area (cm^2)
CONDIT	TWOPARAM	T	5.00000E+000	0.00000E+000	Conditionin&g	Time(s)	E(V)
DELAY	TWOPARAM	T	5.00000E+000	0.00000E+000	Init. De&lay	Time(s)	Stab.(mV/s)
SPEED	SELECTOR	1	&Optimize for:
ZGUESS	QUANT	1.00000E+004	E&stimated Z (ohms)
OCVCURVE	TABLE	19
	Pt	T	Vf	Vm	Ach	Over
	#	s	V vs. Ref.	V	V	bits
	0	0.258333	8.80501E-004	8.80501E-004	5.46433E-004	...........
	1	0.516667	8.74374E-004	5.59765E-004	5.50033E-004	...........
	2	0.775	8.37309E-004	2.85050E-004	5.47699E-004	...........
	3	1.03333	7.33602E-004	-1.59575E-005	5.49499E-004	...........
	4	1.29167	5.49308E-004	-2.64888E-004	5.48933E-004	...........
	5	1.55	3.05786E-004	-4.97258E-004	5.48233E-004	...........
	6	1.80833	4.00956E-005	-6.86317E-004	5.50866E-004	...........
	7	2.06667	-2.14347E-004	-7.11858E-004	5.44599E-004	...........
	8	2.325	-4.32337E-004	-8.65008E-004	5.48699E-004	...........
	9	2.58333	-6.05764E-004	-1.09912E-003	5.46299E-004	...........
	10	2.84167	-7.52760E-004	-1.22244E-003	5.51299E-004	...........
	11	3.1	-9.01085E-004	-1.47661E-003	5.46533E-004	...........
	12	3.35833	-1.06688E-003	-1.71984E-003	5.46933E-004	...........
	13	3.61667	-1.25543E-003	-1.92463E-003	5.42066E-004	...........
	14	3.875	-1.46405E-003	-2.12011E-003	5.45899E-004	...........
	15	4.13333	-1.68093E-003	-2.29472E-003	5.42066E-004	...........
	16	4.39167	-1.89207E-003	-2.45158E-003	5.42899E-004	...........
	17	4.65	-2.08863E-003	-2.59902E-003	5.40133E-004	...........
	18	4.90833	-2.26802E-003	-2.74410E-003	5.44299E-004	...........
EOC	QUANT	-0.002268	Open Circuit (V)
PSTATMODEL	IQUANT	4	Pstat Model
PSTATSECTION	LABEL	REF600-11020	Pstat Section
PSTATSERIALNO	LABEL	11020	Pstat Serial Number
CTRLMODE	IQUANT	1	Control Mode
IESTAB	IQUANT	0	I/E Stability
CASPEED	IQUANT	1	Control Amp Speed
CONVENTION	IQUANT	1	Current Convention
ICHRANGE	IQUANT	2	Ich Range
ICHRANGEMODE	TOGGLE	F	Ich Auto Range
ICHOFFSETENABLE	TOGGLE	T	Ich Offset Enable
ICHOFFSET	QUANT	0	Ich Offset (V)
ICHFILTER	IQUANT	3	Ich Filter
VCHRANGE	IQUANT	2	Vch Range
VCHRANGEMODE	TOGGLE	F	Vch Auto Range
VCHOFFSETENABLE	TOGGLE	T	Vch Offset Enable
VCHOFFSET	QUANT	0	Vch Offset (V)
VCHFILTER	IQUANT	3	Vch Filter
ACHRANGE	IQUANT	2	Ach Range
ACHOFFSETENABLE	TOGGLE	F	Ach Offset Enable
ACHOFFSET	QUANT	0	Ach Offset (V)
ACHFILTER	IQUANT	3	Ach Filter
IERANGELOWERLIMIT	IQUANT	1	I/E Range Lower Limit
IERANGEMODE	TOGGLE	F	I/E AutoRange
IERANGE	IQUANT	5	I/E Range
POSFEEDENABLE	TOGGLE	F	Positive Feedback IR Comp
POSFEEDRESISTANCE	QUANT	0	Positive Feedback Resistance (ohm)
ACHSELECT	IQUANT	0	Ach Select
CABLEID	IQUANT	14	Cable ID
DCCALDATE	LABEL	8/19/2019	DC Calibration Date
ACCALDATE	LABEL	8/19/2019	AC Calibration Date
THERMOSELECT	IQUANT	1	Thermo Select
FRAMEWORKVERSION	QUANT	6.33	Framework Version
INSTRUMENTVERSION	LABEL	3.50	Instrument Version
ZCURVE	TABLE
	Pt	Time	Freq	Zreal	Zimag	Zsig	Zmod	Zphz	Idc	Vdc	IERange
	#	s	Hz	ohm	ohm	V	ohm	°	A	V	#
	0	1	1000078	2419.623	-1770.424	1	2998.163	-36.19271	-1.244726E-006	3.746212E-005	8
	1	2	794390.6	2769.009	-1724.477	1	3262.09	-31.91373	1.127968E-006	-0.0003499	8
	2	4	630984.4	3088.023	-1648.994	1	3500.724	-28.10207	2.050069E-007	-0.0006362	8
	3	5	501234.4	3362.494	-1550.793	1	3702.88	-24.75931	3.876103E-006	-0.0014739	8
	4	6	398109.4	3643.06	-1411.205	1	3906.838	-21.17478	6.659801E-007	-0.000725	8
	5	8	316265.6	3840.709	-1259.803	1	4042.048	-18.16018	-1.24961E-006	-0.0003896	8
	6	9	251203.1	4007.681	-1107.601	1	4157.918	-15.44918	5.497249E-007	-0.0008398	8
	7	10	199546.9	4138.082	-960.03	1	4247.985	-13.06148	-3.087769E-006	-2.30596E-005	8
	8	12	158578.1	4225.133	-845.0051	1	4308.803	-11.30965	3.969658E-006	-0.0014223	8
	9	13	125953.1	4347.508	-686.3719	1	4401.356	-8.97164	2.04479E-007	-0.0014342	7
	10	15	100078.1	4401.224	-601.2507	1	4442.102	-7.779018	-5.581152E-008	-0.0006507	7
	11	16	79453.13	4451.346	-543.6608	1	4484.423	-6.963278	6.253741E-008	-0.0008328	7
	12	17	63140.62	4496.097	-497.1246	1	4523.497	-6.309453	9.145229E-008	-0.000796	7
	13	19	50203.12	4533.631	-466.1983	1	4557.538	-5.871152	-6.276088E-008	-0.0006597	7
	14	20	39890.62	4569.123	-449.9222	1	4591.222	-5.623794	-5.228294E-008	-0.0006666	7
	15	21	31640.63	4604.153	-443.7843	1	4625.491	-5.505608	1.085223E-008	-0.0007887	7
	16	23	25171.88	4637.794	-450.6644	1	4659.639	-5.550129	-2.901724E-008	-0.0007402	7
	17	24	20015.62	4671.766	-471.9245	1	4695.541	-5.76824	5.004585E-009	-0.0008063	7
	18	26	15890.62	4708.158	-503.7588	1	4735.032	-6.107241	4.289723E-008	-0.0008753	7
	19	27	12609.37	4747.454	-550.9874	1	4779.32	-6.620106	-6.109975E-008	-0.00063	7
	20	28	10078.13	4787.277	-611.1104	1	4826.125	-7.274635	-6.041216E-008	-0.0006375	7
	21	30	8015.625	4831.676	-688.965	1	4880.55	-8.115292	4.416147E-008	-0.0007935	7
	22	31	6328.125	4884.709	-791.6794	1	4948.448	-9.206049	4.543664E-008	-0.0007907	7
	23	32	5015.625	4940.313	-916.8868	1	5024.677	-10.51406	1.147108E-008	-0.0008006	7
	24	34	3984.375	5001.773	-1069.042	1	5114.742	-12.06445	-2.653879E-008	-0.0007483	7
	25	35	3170.956	5069.443	-1256.637	1	5222.872	-13.92211	-5.553335E-008	-0.0005546	7
	26	36	2527.573	5147.356	-1482.066	1	5356.472	-16.06257	6.49737E-008	-0.0008459	7
	27	38	1976.103	5243.462	-1781.583	1	5537.863	-18.76634	4.585234E-008	-0.0007901	7
	28	39	1577.524	5346.032	-2119.422	1	5750.827	-21.62573	1.010373E-008	-0.000794	7
	29	41	1265.625	5460.274	-2520.368	1	6013.888	-24.77723	6.61129E-008	-0.0008461	7
	30	42	998.264	5599.197	-3045.466	1	6373.842	-28.54226	-5.078897E-008	-0.0006634	7
	31	43	796.875	5761.198	-3655.587	1	6823.102	-32.39589	1.179017E-008	-0.0007971	7
	32	45	627.7902	5961.468	-4446.144	1	7436.887	-36.71608	-4.120851E-008	-0.0007248	7
	33	46	505.5147	6173.824	-5323.869	1	8152.281	-40.77216	-2.728921E-008	-0.0006804	7
	34	47	397.9953	6453.693	-6496.212	1	9157.015	-45.18812	5.091685E-009	-0.0007153	7
	35	49	315.5048	6783.834	-7900.479	1	10413.36	-49.34859	1.622916E-009	-0.0007798	6
	36	50	252.4038	7161.667	-9547.6	1	11935.08	-53.12638	1.669831E-009	-0.0007823	6
	37	52	198.6229	7658.104	-11717.19	1	13997.83	-56.83224	9.150897E-010	-0.0007752	6
	38	53	158.3615	8235.678	-14234.55	1	16445.32	-59.94762	1.506125E-009	-0.0007781	6
	39	54	125.558	8970.357	-17384.38	1	19562.31	-62.70621	9.427685E-010	-0.0007809	6
	40	56	100.4464	9840.41	-21095.88	1	23278.1	-64.99279	5.48833E-010	-0.0007813	6
	41	57	79.00281	11042.15	-25996.99	1	28244.87	-66.98678	7.100641E-010	-0.0007815	6
	42	58	63.3446	12267.88	-31411.72	1	33722.36	-68.66682	9.120675E-010	-0.0007805	6
	43	60	49.86702	14657.34	-38575.22	1	41266.03	-69.19482	7.732244E-010	-0.0007805	6
	44	61	39.72458	17061.44	-46957.12	1	49960.63	-70.03185	1.299853E-009	-0.0007752	6
	45	63	31.6723	20294.16	-57019.72	1	60523.56	-70.40861	1.115845E-009	-0.0007767	6
	46	64	24.93351	25032.4	-69629.2	1	73992.21	-70.22598	4.14861E-010	-0.0007827	6
	47	65	19.86229	31004.98	-83917.98	1	89462.48	-69.72236	3.368197E-010	-0.0007802	6
	48	67	15.83615	38658.27	-100106	1	107311.1	-68.88477	5.585192E-010	-0.0007755	5
	49	68	12.40079	50152.55	-121993	1	131899.9	-67.65195	6.001701E-010	-0.0007767	5
	50	70	9.93114	62701.93	-143347.2	1	156460.7	-66.3748	4.37975E-010	-0.0007692	5
	51	71	7.944915	78821.48	-167657.6	1	185261.7	-64.82021	1.12898E-009	-0.0007748	5
	52	73	6.317385	99817.7	-194896.6	1	218970.9	-62.88042	1.073092E-009	-0.0007684	5
	53	75	5.008013	125236.6	-225231.6	1	257708.1	-60.92443	8.225878E-010	-0.0007675	5
	54	77	3.945707	156449.9	-258378.9	1	302053.3	-58.80485	5.206462E-011	-0.0007784	5
	55	80	3.158693	189360.1	-291006.6	1	347191.8	-56.94765	6.087197E-010	-0.0007561	5
	56	83	2.504006	228149.1	-327123.3	1	398825.3	-55.10651	-1.545169E-010	-0.0007841	5
	57	86	1.998082	268960.9	-364310.6	1	452838	-53.56253	-2.819954E-011	-0.0007884	5
	58	89	1.584686	314330.8	-403300	1	511326.4	-52.06726	1.531921E-010	-0.0007265	5
	59	93	1.266892	358218.3	-447227.8	1	573003.5	-51.30614	-3.53613E-011	-0.0007686	5
	60	97	0.999041	406971	-501224	1	645639.9	-50.92498	5.787099E-010	-0.0007606	5
