EXPLAIN
TAG	EISPOT
TITLE	LABEL	Potentiostatic EIS	Test &Identifier
DATE	LABEL	11/20/2019	Date
TIME	LABEL	10:56:59	Time
NOTES	NOTES	4	&Notes...
	
	
	
	
PSTAT	PSTAT	REF600-11020	Potentiostat
VDC	POTEN	0.00000E+000	T	DC &Voltage (V)
FREQINIT	QUANT	1.00000E+006	Initial Fre&q. (Hz)
FREQFINAL	QUANT	1.00000E+000	Final Fre&q. (Hz)
PTSPERDEC	QUANT	1.00000E+001	Points/&decade
VAC	QUANT	2.50000E+001	AC &Voltage (mV rms)
AREA	QUANT	1.00000E-002	&Area (cm^2)
CONDIT	TWOPARAM	T	5.00000E+000	0.00000E+000	Conditionin&g	Time(s)	E(V)
DELAY	TWOPARAM	T	5.00000E+000	0.00000E+000	Init. De&lay	Time(s)	Stab.(mV/s)
SPEED	SELECTOR	1	&Optimize for:
ZGUESS	QUANT	1.00000E+005	E&stimated Z (ohms)
OCVCURVE	TABLE	19
	Pt	T	Vf	Vm	Ach	Over
	#	s	V vs. Ref.	V	V	bits
	0	0.258333	-1.17997E-002	-1.17997E-002	5.35699E-004	...........
	1	0.516667	-1.17987E-002	-1.17513E-002	5.42733E-004	...........
	2	0.775	-1.17699E-002	-1.04907E-002	5.37999E-004	...........
	3	1.03333	-1.17361E-002	-1.58261E-002	5.43333E-004	...........
	4	1.29167	-1.17961E-002	-6.51632E-003	5.35633E-004	...........
	5	1.55	-1.15740E-002	-5.62737E-004	5.37466E-004	...........
	6	1.80833	-1.01248E-002	-5.06312E-004	5.40166E-004	...........
	7	2.06667	-7.29347E-003	-2.42142E-003	5.44633E-004	...........
	8	2.325	-4.37043E-003	-4.50713E-003	5.40933E-004	...........
	9	2.58333	-2.75630E-003	-5.15717E-003	5.45933E-004	...........
	10	2.84167	-2.70101E-003	-4.92755E-003	5.34633E-004	...........
	11	3.1	-3.49849E-003	-5.55042E-003	5.41599E-004	...........
	12	3.35833	-4.42888E-003	-8.40095E-003	5.36799E-004	...........
	13	3.61667	-5.33064E-003	-8.58399E-003	5.40599E-004	...........
	14	3.875	-6.31056E-003	-7.84299E-003	5.43533E-004	...........
	15	4.13333	-7.26478E-003	-9.58938E-003	5.43866E-004	...........
	16	4.39167	-8.06954E-003	-1.22525E-002	5.37299E-004	...........
	17	4.65	-8.85880E-003	-9.56585E-003	5.44233E-004	...........
	18	4.90833	-9.60383E-003	-7.61783E-003	5.43133E-004	...........
EOC	QUANT	-0.0096038	Open Circuit (V)
PSTATMODEL	IQUANT	4	Pstat Model
PSTATSECTION	LABEL	REF600-11020	Pstat Section
PSTATSERIALNO	LABEL	11020	Pstat Serial Number
CTRLMODE	IQUANT	1	Control Mode
IESTAB	IQUANT	0	I/E Stability
CASPEED	IQUANT	1	Control Amp Speed
CONVENTION	IQUANT	1	Current Convention
ICHRANGE	IQUANT	2	Ich Range
ICHRANGEMODE	TOGGLE	F	Ich Auto Range
ICHOFFSETENABLE	TOGGLE	T	Ich Offset Enable
ICHOFFSET	QUANT	0	Ich Offset (V)
ICHFILTER	IQUANT	3	Ich Filter
VCHRANGE	IQUANT	2	Vch Range
VCHRANGEMODE	TOGGLE	F	Vch Auto Range
VCHOFFSETENABLE	TOGGLE	T	Vch Offset Enable
VCHOFFSET	QUANT	0	Vch Offset (V)
VCHFILTER	IQUANT	3	Vch Filter
ACHRANGE	IQUANT	2	Ach Range
ACHOFFSETENABLE	TOGGLE	F	Ach Offset Enable
ACHOFFSET	QUANT	0	Ach Offset (V)
ACHFILTER	IQUANT	3	Ach Filter
IERANGELOWERLIMIT	IQUANT	1	I/E Range Lower Limit
IERANGEMODE	TOGGLE	F	I/E AutoRange
IERANGE	IQUANT	5	I/E Range
POSFEEDENABLE	TOGGLE	F	Positive Feedback IR Comp
POSFEEDRESISTANCE	QUANT	0	Positive Feedback Resistance (ohm)
ACHSELECT	IQUANT	0	Ach Select
CABLEID	IQUANT	14	Cable ID
DCCALDATE	LABEL	8/19/2019	DC Calibration Date
ACCALDATE	LABEL	8/19/2019	AC Calibration Date
THERMOSELECT	IQUANT	1	Thermo Select
FRAMEWORKVERSION	QUANT	6.33	Framework Version
INSTRUMENTVERSION	LABEL	3.50	Instrument Version
ZCURVE	TABLE
	Pt	Time	Freq	Zreal	Zimag	Zsig	Zmod	Zphz	Idc	Vdc	IERange
	#	s	Hz	ohm	ohm	V	ohm	°	A	V	#
	0	2	1000078	2128.112	-2209.471	1	3067.673	-46.07456	-8.770159E-007	-0.0067235	8
	1	3	794390.6	2582.303	-2296.187	1	3455.541	-41.64353	-6.742893E-006	-0.0065851	8
	2	5	630984.4	3052.699	-2315.282	1	3831.384	-37.17805	6.032863E-007	-0.0073059	8
	3	6	501234.4	3512.07	-2254.4	1	4173.362	-32.69644	5.720136E-006	-0.0085769	8
	4	7	398109.4	3922.223	-2148.699	1	4472.219	-28.71512	-1.331795E-006	-0.0075247	8
	5	9	316265.6	4289.934	-1998.308	1	4732.522	-24.97673	1.89316E-006	-0.0083774	8
	6	10	251203.1	4616.731	-1824.336	1	4964.112	-21.56183	6.299251E-006	-0.0086736	8
	7	12	199546.9	4882.758	-1626.559	1	5146.554	-18.4241	5.094027E-006	-0.0086161	8
	8	13	158578.1	5111.504	-1457.23	1	5315.167	-15.91223	-1.308921E-006	-0.0076105	8
	9	14	125953.1	5322.926	-1249.062	1	5467.513	-13.20593	2.869757E-006	-0.0098561	7
	10	16	100078.1	5436.226	-1100.607	1	5546.521	-11.44528	-6.15674E-007	-0.0064332	7
	11	17	79453.13	5553.465	-992.625	1	5641.479	-10.13402	7.711059E-007	-0.0097687	7
	12	18	63140.62	5640.192	-897.8802	1	5711.213	-9.045198	-1.201496E-006	-0.0066041	7
	13	20	50203.12	5725.663	-834.1092	1	5786.1	-8.288489	7.720185E-007	-0.0097782	7
	14	21	39890.62	5800.537	-787.238	1	5853.714	-7.728853	1.078949E-006	-0.0094749	7
	15	23	31640.63	5861.657	-759.7166	1	5910.685	-7.384814	4.84223E-007	-0.0096766	7
	16	24	25171.88	5929.471	-755.5478	1	5977.414	-7.261637	1.075094E-006	-0.0094739	7
	17	25	20015.62	5993.315	-764.7077	1	6041.904	-7.271276	-3.108166E-007	-0.0088645	7
	18	27	15890.62	6052.174	-799.0186	1	6104.69	-7.520795	3.766724E-007	-0.0074893	7
	19	28	12609.37	6113.237	-855.4	1	6172.793	-7.965445	-1.201455E-006	-0.0066121	7
	20	30	10078.13	6178.787	-928.3653	1	6248.142	-8.544797	-1.077754E-006	-0.0064355	7
	21	31	8015.625	6255.377	-1038.749	1	6341.036	-9.428333	3.763224E-007	-0.0074902	7
	22	33	6328.125	6340.976	-1160.189	1	6446.241	-10.36855	8.260529E-007	-0.0082546	7
	23	34	5015.625	6429.878	-1327.629	1	6565.51	-11.66637	1.088135E-006	-0.0091502	7
	24	35	3984.375	6517.656	-1523.692	1	6693.391	-13.15825	1.002762E-006	-0.0087275	7
	25	37	3170.956	6617.448	-1779.426	1	6852.516	-15.05077	8.268111E-007	-0.0082381	7
	26	38	2527.573	6723.727	-2087.069	1	7040.196	-17.24453	1.090643E-007	-0.0093802	7
	27	40	1976.103	6867.747	-2504.907	1	7310.301	-20.03868	1.092344E-006	-0.0091535	7
	28	41	1577.524	7073.532	-2968.846	1	7671.304	-22.76838	1.010919E-006	-0.0087289	7
	29	42	1265.625	7167.813	-3523.865	1	7987.188	-26.17982	7.005546E-008	-0.00707	7
	30	44	998.264	7374.5	-4259.612	1	8516.311	-30.01131	9.746129E-007	-0.0097039	7
	31	45	796.875	7599.618	-5098.322	1	9151.343	-33.8563	-3.0962E-007	-0.0088671	7
	32	46	627.7902	7886.18	-6200.921	1	10032.11	-38.17805	7.016033E-008	-0.0070669	7
	33	48	505.5147	8218.949	-7409.099	1	11065.53	-42.03357	1.821623E-007	-0.010159	6
	34	49	397.9953	8636.865	-9032.438	1	12497.21	-46.2825	1.03565E-009	-0.0080726	6
	35	50	315.5048	9130.593	-10968.63	1	14271.6	-50.22506	2.433093E-009	-0.0080736	6
	36	52	252.4038	9704.97	-13235.79	1	16412.58	-53.74975	-1.043099E-011	-0.0080686	6
	37	53	198.6229	10468.29	-16220.68	1	19305.33	-57.16314	1.710385E-010	-0.0080729	6
	38	54	158.3615	11377.96	-19681.95	1	22734.05	-59.96818	9.305796E-010	-0.0080757	6
	39	56	125.558	12564.89	-23986.9	1	27078.55	-62.35342	4.827843E-010	-0.0080703	6
	40	57	100.4464	14058.23	-29017.53	1	32243.62	-64.15103	-4.961837E-010	-0.0080715	6
	41	59	79.00281	16084.7	-35565.09	1	39033.23	-65.66462	3.04544E-010	-0.0080886	6
	42	60	63.3446	18261.21	-42836.33	1	46566.32	-66.91136	7.261083E-010	-0.0080855	6
	43	61	49.86702	22532.3	-52080.2	1	56745.5	-66.60446	-3.4606E-010	-0.0080704	6
	44	63	39.72458	27037.53	-62917.45	1	68480.9	-66.74535	6.448863E-010	-0.0080764	6
	45	64	31.6723	32938.34	-75052.11	1	81961.91	-66.30463	-8.003348E-010	-0.0080685	6
	46	65	24.93351	41245.94	-90094.88	1	99087.4	-65.40143	-1.625887E-010	-0.0080788	6
	47	67	19.86229	51031.93	-106199.2	1	117824.2	-64.33431	1.078851E-009	-0.0080679	5
	48	68	15.83615	63811.32	-123531.4	1	139039.2	-62.68095	1.269206E-009	-0.0080647	5
	49	70	12.40079	80652.81	-146133.2	1	166912.5	-61.10512	1.571221E-009	-0.008052	5
	50	71	9.93114	97751.2	-166333.6	1	192930.5	-59.55803	6.043213E-010	-0.0080664	5
	51	73	7.944915	117522.3	-188409	1	222057.3	-58.04567	-7.084058E-010	-0.0080701	5
	52	74	6.317385	142161.5	-214232.5	1	257109.8	-56.43235	-1.283197E-010	-0.0080767	5
	53	76	5.008013	169561.5	-241639.1	1	295195.8	-54.94212	-2.667526E-010	-0.0080675	5
	54	79	3.945707	200855.8	-274660.8	1	340266.9	-53.82249	-1.758185E-009	-0.0080558	5
	55	81	3.158693	232164.8	-304241.6	1	382705.4	-52.65298	-2.530631E-010	-0.0080816	5
	56	85	2.504006	265971.9	-337649.3	1	429823.3	-51.77192	1.882267E-009	-0.008068	5
	57	87	1.998082	303932.3	-381072.4	1	487433.1	-51.42515	1.613483E-010	-0.0080269	5
	58	91	1.584686	342015.5	-429648.5	1	549156.1	-51.47897	2.132243E-010	-0.0080733	5
	59	94	1.266892	381982.6	-489126.5	1	620608.9	-52.012	-4.601029E-010	-0.008027	5
	60	98	0.999041	426572.1	-562853.5	1	706234.9	-52.84245	-4.442612E-010	-0.0081079	5
