EXPLAIN
TAG	EISPOT
TITLE	LABEL	Potentiostatic EIS	Test &Identifier
DATE	LABEL	11/7/2019	Date
TIME	LABEL	11:21:09	Time
NOTES	NOTES	2	&Notes...
	
	
PSTAT	PSTAT	REF600-11020	Potentiostat
VDC	POTEN	0.00000E+000	T	DC &Voltage (V)
FREQINIT	QUANT	1.00000E+006	Initial Fre&q. (Hz)
FREQFINAL	QUANT	1.00000E+000	Final Fre&q. (Hz)
PTSPERDEC	QUANT	1.00000E+001	Points/&decade
VAC	QUANT	2.50000E+001	AC &Voltage (mV rms)
AREA	QUANT	1.00000E-002	&Area (cm^2)
CONDIT	TWOPARAM	T	5.00000E+000	0.00000E+000	Conditionin&g	Time(s)	E(V)
DELAY	TWOPARAM	T	5.00000E+000	0.00000E+000	Init. De&lay	Time(s)	Stab.(mV/s)
SPEED	SELECTOR	1	&Optimize for:
ZGUESS	QUANT	1.00000E+005	E&stimated Z (ohms)
OCVCURVE	TABLE	19
	Pt	T	Vf	Vm	Ach	Over
	#	s	V vs. Ref.	V	V	bits
	0	0.258333	2.49492E-003	2.49492E-003	5.65466E-004	...........
	1	0.516667	2.48751E-003	2.10702E-003	5.66999E-004	...........
	2	0.775	2.44241E-003	1.76056E-003	5.64499E-004	...........
	3	1.03333	2.31674E-003	1.45746E-003	5.66466E-004	...........
	4	1.29167	2.09725E-003	1.18162E-003	5.64866E-004	...........
	5	1.55	1.81508E-003	9.19738E-004	5.63032E-004	...........
	6	1.80833	1.51467E-003	6.75420E-004	5.63332E-004	...........
	7	2.06667	1.22468E-003	4.44227E-004	5.62066E-004	...........
	8	2.325	9.54963E-004	2.31728E-004	5.68032E-004	...........
	9	2.58333	7.05351E-004	2.25539E-005	5.63866E-004	...........
	10	2.84167	4.72804E-004	-1.68667E-004	5.60466E-004	...........
	11	3.1	2.54408E-004	-3.52524E-004	5.66166E-004	...........
	12	3.35833	4.82540E-005	-5.27569E-004	5.69432E-004	...........
	13	3.61667	-1.46773E-004	-6.90160E-004	5.64099E-004	...........
	14	3.875	-3.31498E-004	-8.50969E-004	5.61399E-004	...........
	15	4.13333	-5.06986E-004	-1.01267E-003	5.61632E-004	...........
	16	4.39167	-6.74912E-004	-1.15745E-003	5.60132E-004	...........
	17	4.65	-8.36620E-004	-1.29767E-003	5.60699E-004	...........
	18	4.90833	-9.92044E-004	-1.43019E-003	5.56233E-004	...........
EOC	QUANT	-0.000992	Open Circuit (V)
PSTATMODEL	IQUANT	4	Pstat Model
PSTATSECTION	LABEL	REF600-11020	Pstat Section
PSTATSERIALNO	LABEL	11020	Pstat Serial Number
CTRLMODE	IQUANT	1	Control Mode
IESTAB	IQUANT	0	I/E Stability
CASPEED	IQUANT	1	Control Amp Speed
CONVENTION	IQUANT	1	Current Convention
ICHRANGE	IQUANT	2	Ich Range
ICHRANGEMODE	TOGGLE	F	Ich Auto Range
ICHOFFSETENABLE	TOGGLE	T	Ich Offset Enable
ICHOFFSET	QUANT	0	Ich Offset (V)
ICHFILTER	IQUANT	3	Ich Filter
VCHRANGE	IQUANT	2	Vch Range
VCHRANGEMODE	TOGGLE	F	Vch Auto Range
VCHOFFSETENABLE	TOGGLE	T	Vch Offset Enable
VCHOFFSET	QUANT	0	Vch Offset (V)
VCHFILTER	IQUANT	3	Vch Filter
ACHRANGE	IQUANT	2	Ach Range
ACHOFFSETENABLE	TOGGLE	F	Ach Offset Enable
ACHOFFSET	QUANT	0	Ach Offset (V)
ACHFILTER	IQUANT	3	Ach Filter
IERANGELOWERLIMIT	IQUANT	1	I/E Range Lower Limit
IERANGEMODE	TOGGLE	F	I/E AutoRange
IERANGE	IQUANT	4	I/E Range
POSFEEDENABLE	TOGGLE	F	Positive Feedback IR Comp
POSFEEDRESISTANCE	QUANT	0	Positive Feedback Resistance (ohm)
ACHSELECT	IQUANT	0	Ach Select
CABLEID	IQUANT	14	Cable ID
DCCALDATE	LABEL	8/19/2019	DC Calibration Date
ACCALDATE	LABEL	8/19/2019	AC Calibration Date
THERMOSELECT	IQUANT	1	Thermo Select
FRAMEWORKVERSION	QUANT	6.33	Framework Version
INSTRUMENTVERSION	LABEL	3.50	Instrument Version
ZCURVE	TABLE
	Pt	Time	Freq	Zreal	Zimag	Zsig	Zmod	Zphz	Idc	Vdc	IERange
	#	s	Hz	ohm	ohm	V	ohm	°	A	V	#
	0	1	1000078	1893.916	-977.104	1	2131.115	-27.28998	8.200823E-006	-0.0008337	8
	1	2	794390.6	2038.051	-922.778	1	2237.224	-24.35982	-3.4571E-006	0.0003998	8
	2	4	630984.4	2187.251	-869.9883	1	2353.921	-21.6904	3.3901E-006	0.0010251	8
	3	5	501234.4	2318.442	-816.6613	1	2458.07	-19.4046	8.146138E-006	-0.0003649	8
	4	6	398109.4	2438.157	-755.5386	1	2552.538	-17.21721	-3.18905E-006	0.0007151	8
	5	8	316265.6	2533.287	-695.7039	1	2627.079	-15.35627	6.987406E-006	-0.0007615	8
	6	9	251203.1	2619.676	-643.217	1	2697.486	-13.79511	6.534299E-006	-0.0003321	8
	7	11	199546.9	2697.945	-607.2862	1	2765.448	-12.68541	-6.780126E-006	0.0014669	8
	8	13	158578.1	2808.076	-558.2341	1	2863.025	-11.24358	2.288781E-006	0.0008161	8
	9	14	125953.1	2837.151	-499.2165	1	2880.736	-9.97944	-1.521755E-006	0.0046153	7
	10	15	100078.1	2890.487	-502.2808	1	2933.803	-9.85787	-2.690625E-007	0.0018875	7
	11	17	79453.13	2958.244	-503.6921	1	3000.819	-9.66293	9.017033E-007	0.0001759	7
	12	18	63140.62	3009.268	-514.8169	1	3052.987	-9.70802	-1.143477E-006	0.0022114	7
	13	19	50203.12	3069.004	-534.6206	1	3115.222	-9.88177	-1.14413E-006	0.0022089	7
	14	21	39890.62	3143.258	-565.0638	1	3193.645	-10.19122	1.137031E-006	-0.0010992	7
	15	22	31640.63	3204.621	-593.0244	1	3259.029	-10.48415	-9.215061E-007	0.0022533	7
	16	23	25171.88	3288.202	-634.2104	1	3348.805	-10.91684	1.136177E-006	-0.0011028	7
	17	25	20015.62	3362.004	-676.9216	1	3429.474	-11.384	9.050553E-007	0.0001782	7
	18	26	15890.62	3438.838	-725.302	1	3514.494	-11.90997	-7.974533E-007	0.0003497	7
	19	27	12609.37	3526.65	-784.5927	1	3612.872	-12.54263	-3.576417E-007	-0.0003801	7
	20	29	10078.13	3626.863	-848.5941	1	3724.815	-13.16887	1.16065E-007	0.0014381	7
	21	30	8015.625	3713.74	-921.9774	1	3826.474	-13.94244	-1.300242E-006	0.0016601	7
	22	32	6328.125	3820.093	-1009.478	1	3951.222	-14.80232	-1.298715E-006	0.0020486	7
	23	33	5015.625	3927.51	-1113.518	1	4082.311	-15.82897	-7.97361E-007	0.0003445	7
	24	34	3984.375	4031.946	-1233.465	1	4216.399	-17.01008	-1.299347E-006	0.0016627	7
	25	36	3170.956	4142.462	-1386.54	1	4368.35	-18.50611	-6.227951E-007	0.002136	7
	26	37	2527.573	4253.544	-1570.898	1	4534.353	-20.26995	-3.552477E-007	-0.0003908	7
	27	38	1976.103	4391.39	-1827.156	1	4756.343	-22.59107	9.063352E-007	0.0001626	7
	28	40	1577.524	4569.368	-2102.523	1	5029.883	-24.70878	1.137367E-006	-0.001112	7
	29	41	1265.625	4633.61	-2431.935	1	5233.035	-27.69259	1.155259E-007	0.0014263	7
	30	42	998.264	4783.731	-2887.119	1	5587.445	-31.11219	7.926437E-007	-0.0014007	7
	31	44	796.875	4923.054	-3398.491	1	5982.157	-34.61816	-1.124395E-006	0.001057	7
	32	45	627.7902	5109.613	-4114.826	1	6560.483	-38.84486	9.089216E-007	0.0001689	7
	33	47	505.5147	5294.229	-4896.641	1	7211.515	-42.76579	9.09759E-007	0.0001702	7
	34	48	397.9953	5532.128	-5950.634	1	8124.93	-47.0873	2.907897E-009	0.0004843	7
	35	49	315.5048	5817.653	-7236.653	1	9285.162	-51.20368	5.673834E-009	0.0004832	7
	36	51	252.4038	6160.107	-8755.142	1	10705.11	-54.86983	1.863389E-009	0.0004234	6
	37	52	198.6229	6617.514	-10764.24	1	12635.67	-58.41811	1.448529E-009	0.0004207	6
	38	53	158.3615	7166.515	-13094.23	1	14927.08	-61.30796	6.008781E-010	0.0004302	6
	39	55	125.558	7891.704	-16000.38	1	17840.71	-63.74657	1.161033E-009	0.0004221	6
	40	56	100.4464	8755.456	-19381.4	1	21267.27	-65.68916	1.043323E-009	0.0004225	6
	41	57	79.00281	9988.37	-23856.3	1	25862.92	-67.28148	2.865837E-010	0.0004232	6
	42	59	63.3446	11794.68	-28719.29	1	31046.94	-67.67261	8.876923E-010	0.0004177	6
	43	60	49.86702	13298.1	-35296.61	1	37718.56	-69.35595	-3.15588E-010	0.0004236	6
	44	62	39.72458	15873.2	-42353.72	1	45230.48	-69.45516	1.135379E-009	0.0004187	6
	45	63	31.6723	18837.69	-51079.96	1	54442.82	-69.75662	1.562331E-009	0.0004235	6
	46	64	24.93351	23028.72	-61854.38	1	66002.17	-69.57943	7.811155E-010	0.0004103	6
	47	66	19.86229	28050.58	-74120.55	1	79250.8	-69.27109	7.260878E-010	0.000411	6
	48	67	15.83615	34289.73	-88193.52	1	94624.95	-68.75387	9.217745E-010	0.000419	6
	49	68	12.40079	42934.24	-107417.3	1	115679.8	-68.21362	2.501418E-009	0.0004241	5
	50	70	9.93114	51225.21	-126391.7	1	136377.7	-67.93781	6.826998E-010	0.0004188	5
	51	71	7.944915	61664.59	-149513.7	1	161730.8	-67.58706	9.029363E-010	0.0004178	5
	52	73	6.317385	76058.95	-176071.4	1	191797.1	-66.63673	7.832534E-010	0.0004311	5
	53	75	5.008013	93081.48	-208096.6	1	227965.7	-65.90106	3.606026E-010	0.0004399	5
	54	78	3.945707	114197.2	-246431.5	1	271605.4	-65.13684	-1.207457E-012	0.0004236	5
	55	80	3.158693	137790.4	-287654.7	1	318953.6	-64.40496	4.200316E-010	0.0004422	5
	56	84	2.504006	167226.5	-337131.8	1	376327.7	-63.61734	-8.886038E-011	0.0004276	5
	57	86	1.998082	200622.4	-390949.5	1	439421.1	-62.8346	2.789521E-010	0.0003891	5
	58	90	1.584686	239710.6	-455010.2	1	514291.2	-62.21863	1.033303E-010	0.0004261	5
	59	93	1.266892	285009.3	-525419.5	1	597742.4	-61.52277	2.320235E-010	0.0003903	5
	60	97	0.999041	338765.6	-611633.6	1	699183.7	-61.01925	1.792623E-010	0.0004708	5
