EXPLAIN
TAG	EISPOT
TITLE	LABEL	Potentiostatic EIS	Test &Identifier
DATE	LABEL	10/6/2019	Date
TIME	LABEL	8:35:07	Time
NOTES	NOTES	2	&Notes...
	
	
PSTAT	PSTAT	REF600-11020	Potentiostat
VDC	POTEN	0.00000E+000	T	DC &Voltage (V)
FREQINIT	QUANT	1.00000E+006	Initial Fre&q. (Hz)
FREQFINAL	QUANT	1.00000E+000	Final Fre&q. (Hz)
PTSPERDEC	QUANT	1.00000E+001	Points/&decade
VAC	QUANT	2.50000E+001	AC &Voltage (mV rms)
AREA	QUANT	1.00000E-002	&Area (cm^2)
CONDIT	TWOPARAM	T	5.00000E+000	0.00000E+000	Conditionin&g	Time(s)	E(V)
DELAY	TWOPARAM	T	5.00000E+000	0.00000E+000	Init. De&lay	Time(s)	Stab.(mV/s)
SPEED	SELECTOR	1	&Optimize for:
ZGUESS	QUANT	1.00000E+004	E&stimated Z (ohms)
OCVCURVE	TABLE	19
	Pt	T	Vf	Vm	Ach	Over
	#	s	V vs. Ref.	V	V	bits
	0	0.258333	1.19550E-002	1.19550E-002	5.64366E-004	...........
	1	0.516667	1.19658E-002	1.25194E-002	5.67199E-004	...........
	2	0.775	1.20321E-002	1.30605E-002	5.68499E-004	...........
	3	1.03333	1.22202E-002	1.35811E-002	5.70766E-004	...........
	4	1.29167	1.25574E-002	1.40781E-002	5.69999E-004	...........
	5	1.55	1.30068E-002	1.45425E-002	5.65399E-004	...........
	6	1.80833	1.35054E-002	1.49903E-002	5.67666E-004	...........
	7	2.06667	1.40055E-002	1.54176E-002	5.71899E-004	...........
	8	2.325	1.44852E-002	1.58322E-002	5.72966E-004	...........
	9	2.58333	1.49404E-002	1.62355E-002	5.67332E-004	...........
	10	2.84167	1.53745E-002	1.66246E-002	5.69566E-004	...........
	11	3.1	1.57917E-002	1.69993E-002	5.70166E-004	...........
	12	3.35833	1.61945E-002	1.73541E-002	5.67466E-004	...........
	13	3.61667	1.65831E-002	1.76965E-002	5.66466E-004	...........
	14	3.875	1.69572E-002	1.80355E-002	5.76166E-004	...........
	15	4.13333	1.73172E-002	1.83644E-002	5.73899E-004	...........
	16	4.39167	1.76654E-002	1.86963E-002	5.74665E-004	...........
	17	4.65	1.80048E-002	1.90165E-002	5.70432E-004	...........
	18	4.90833	1.83378E-002	1.93359E-002	5.69066E-004	...........
EOC	QUANT	0.0183378	Open Circuit (V)
PSTATMODEL	IQUANT	4	Pstat Model
PSTATSECTION	LABEL	REF600-11020	Pstat Section
PSTATSERIALNO	LABEL	11020	Pstat Serial Number
CTRLMODE	IQUANT	1	Control Mode
IESTAB	IQUANT	0	I/E Stability
CASPEED	IQUANT	1	Control Amp Speed
CONVENTION	IQUANT	1	Current Convention
ICHRANGE	IQUANT	2	Ich Range
ICHRANGEMODE	TOGGLE	F	Ich Auto Range
ICHOFFSETENABLE	TOGGLE	T	Ich Offset Enable
ICHOFFSET	QUANT	0	Ich Offset (V)
ICHFILTER	IQUANT	3	Ich Filter
VCHRANGE	IQUANT	2	Vch Range
VCHRANGEMODE	TOGGLE	F	Vch Auto Range
VCHOFFSETENABLE	TOGGLE	T	Vch Offset Enable
VCHOFFSET	QUANT	0	Vch Offset (V)
VCHFILTER	IQUANT	3	Vch Filter
ACHRANGE	IQUANT	2	Ach Range
ACHOFFSETENABLE	TOGGLE	F	Ach Offset Enable
ACHOFFSET	QUANT	0	Ach Offset (V)
ACHFILTER	IQUANT	3	Ach Filter
IERANGELOWERLIMIT	IQUANT	1	I/E Range Lower Limit
IERANGEMODE	TOGGLE	F	I/E AutoRange
IERANGE	IQUANT	6	I/E Range
POSFEEDENABLE	TOGGLE	F	Positive Feedback IR Comp
POSFEEDRESISTANCE	QUANT	0	Positive Feedback Resistance (ohm)
ACHSELECT	IQUANT	0	Ach Select
CABLEID	IQUANT	14	Cable ID
DCCALDATE	LABEL	8/19/2019	DC Calibration Date
ACCALDATE	LABEL	8/19/2019	AC Calibration Date
THERMOSELECT	IQUANT	1	Thermo Select
FRAMEWORKVERSION	QUANT	6.33	Framework Version
INSTRUMENTVERSION	LABEL	3.50	Instrument Version
ZCURVE	TABLE
	Pt	Time	Freq	Zreal	Zimag	Zsig	Zmod	Zphz	Idc	Vdc	IERange
	#	s	Hz	ohm	ohm	V	ohm	°	A	V	#
	0	1	1000078	1643.157	-505.6008	1	1719.185	-17.10317	8.536542E-006	0.0195516	8
	1	2	794390.6	1707.153	-437.7239	1	1762.377	-14.38116	-5.693112E-006	0.0206822	8
	2	4	630984.4	1753.828	-376.9187	1	1793.873	-12.12907	1.718765E-006	0.0200311	8
	3	5	501234.4	1793.648	-322.8223	1	1822.467	-10.20291	-5.001961E-007	0.0198667	8
	4	6	398109.4	1823.806	-279.2688	1	1845.063	-8.70575	8.490032E-007	0.019873	8
	5	8	316265.6	1847.153	-240.7781	1	1862.78	-7.426682	2.058032E-006	0.0193635	8
	6	9	251203.1	1867.781	-213.754	1	1879.973	-6.528684	-2.135185E-006	0.0202707	8
	7	11	199546.9	1881.145	-189.1342	1	1890.629	-5.74134	3.747228E-006	0.0192379	8
	8	12	158578.1	1904.534	-181.5665	1	1913.169	-5.445769	3.638397E-006	0.0192357	8
	9	13	125953.1	1927.388	-144.4923	1	1932.797	-4.287327	2.111461E-007	0.0199339	7
	10	15	100078.1	1939.448	-136.3298	1	1944.234	-4.020882	-7.43785E-008	0.020009	7
	11	16	79453.13	1953.379	-140.5778	1	1958.431	-4.116281	-1.889292E-008	0.0198556	7
	12	17	63140.62	1968.867	-147.2519	1	1974.365	-4.277198	8.175682E-008	0.0197304	7
	13	19	50203.12	1985.751	-156.3455	1	1991.896	-4.501822	-1.763328E-008	0.0198528	7
	14	20	39890.62	2002.759	-167.3636	1	2009.74	-4.77691	2.52679E-008	0.0197704	7
	15	21	31640.63	2021.821	-181.5609	1	2029.957	-5.131435	1.095966E-007	0.0196288	7
	16	23	25171.88	2040.632	-198.735	1	2050.287	-5.562434	-5.772149E-008	0.0198711	7
	17	24	20015.62	2060.033	-221.1651	1	2071.871	-6.127804	1.401015E-008	0.0197613	7
	18	26	15890.62	2080.066	-248.8058	1	2094.894	-6.820992	5.548301E-008	0.0197017	7
	19	27	12609.37	2101.557	-283.5221	1	2120.596	-7.683411	1.106765E-007	0.0196247	7
	20	28	10078.13	2123.553	-324.796	1	2148.249	-8.695957	-2.281673E-008	0.0197757	7
	21	30	8015.625	2149.123	-378.3763	1	2182.177	-9.98521	-7.511133E-008	0.0199979	7
	22	31	6328.125	2175.16	-444.5803	1	2220.129	-11.55156	1.358354E-008	0.0197533	7
	23	32	5015.625	2203.736	-525.4777	1	2265.52	-13.41165	-1.671896E-008	0.0197928	7
	24	34	3984.375	2234.516	-625.5106	1	2320.415	-15.63859	-3.394006E-008	0.0198636	7
	25	35	3170.956	2267.852	-746.5682	1	2387.575	-18.22135	5.398442E-008	0.0196925	7
	26	36	2527.573	2307.93	-898.5219	1	2476.668	-21.27192	2.641668E-008	0.0197628	7
	27	38	1976.103	2352.887	-1102.053	1	2598.191	-25.0976	-6.132804E-008	0.0199105	7
	28	39	1577.524	2400.727	-1331.965	1	2745.473	-29.02228	6.806473E-008	0.0196497	7
	29	40	1265.625	2455.431	-1611.084	1	2936.79	-33.27013	1.466527E-008	0.0197525	7
	30	42	998.264	2526.523	-1980.281	1	3210.114	-38.08923	3.07968E-008	0.019766	7
	31	43	796.875	2609.88	-2414.892	1	3555.725	-42.77773	5.386282E-008	0.0196851	7
	32	45	627.7902	2721.32	-2983.7	1	4038.322	-47.63324	2.221753E-009	0.0198782	7
	33	46	505.5147	2845.221	-3620.392	1	4604.62	-51.83664	-7.304354E-008	0.0199924	7
	34	47	397.9953	3026.102	-4472.987	1	5400.455	-55.92054	2.055278E-009	0.0198138	7
	35	49	315.5048	3248.972	-5497.269	1	6385.592	-59.41624	3.493522E-009	0.0198124	7
	36	50	252.4038	3524.514	-6695.867	1	7566.825	-62.23896	2.975562E-009	0.0198103	7
	37	51	198.6229	3909.781	-8267.952	1	9145.787	-64.69129	3.593393E-009	0.0198101	7
	38	53	158.3615	4386.188	-10077.67	1	10990.81	-66.47947	3.336041E-010	0.0197546	6
	39	54	125.558	5018.604	-12319.96	1	13302.92	-67.8362	6.921461E-011	0.0197535	6
	40	56	100.4464	5804.451	-14919.02	1	16008.4	-68.74079	-7.921658E-010	0.0197479	6
	41	57	79.00281	6904.099	-18250.45	1	19512.7	-69.2785	-8.538996E-010	0.0197451	6
	42	58	63.3446	8310.61	-21889.72	1	23414.23	-69.21033	-4.168235E-010	0.0197481	6
	43	60	49.86702	10034.34	-26783.61	1	28601.57	-69.46179	-1.441511E-009	0.0197455	6
	44	61	39.72458	12223.54	-32031.12	1	34284.21	-69.11242	4.813225E-011	0.0197502	6
	45	63	31.6723	14885.09	-38275.32	1	41067.82	-68.74918	3.092686E-010	0.0197488	6
	46	64	24.93351	18550.67	-45963.2	1	49565.54	-68.02108	-1.274459E-009	0.019748	6
	47	65	19.86229	22838.9	-54505.68	1	59097.25	-67.2654	-8.726895E-010	0.0197452	6
	48	67	15.83615	28074.08	-64628.26	1	70462.52	-66.5202	1.063787E-009	0.0197461	6
	49	68	12.40079	34960.69	-76848.68	1	84427.3	-65.53783	6.607409E-010	0.019743	6
	50	69	9.93114	42308.93	-89918.7	1	99375.1	-64.80188	-1.34877E-009	0.0197542	6
	51	71	7.944915	51347.05	-104747.2	1	116655.4	-63.88591	-8.385093E-010	0.0197473	5
	52	73	6.317385	62628.21	-122217.9	1	137330	-62.86801	-2.307892E-010	0.0197526	5
	53	75	5.008013	76361.85	-142697.8	1	161844.9	-61.84743	-6.075764E-010	0.0197659	5
	54	77	3.945707	93358.73	-166363.2	1	190768.3	-60.69998	-1.311006E-009	0.0197507	5
	55	80	3.158693	111802.1	-191119.7	1	221419.2	-59.67302	-7.943294E-010	0.019771	5
	56	83	2.504006	134243.3	-220234	1	257923	-58.63567	-1.500147E-009	0.0197445	5
	57	86	1.998082	158795.2	-251398	1	297349.7	-57.7215	-1.521956E-009	0.019755	5
	58	89	1.584686	188451.7	-287554.7	1	343804.8	-56.76078	-1.089149E-009	0.0198046	5
	59	93	1.266892	218839.8	-327325.3	1	393741.9	-56.23452	-1.467154E-009	0.0197623	5
	60	97	0.999041	255399.5	-375650.2	1	454248.8	-55.78874	-1.035446E-009	0.0197575	5
