EXPLAIN
TAG	EISPOT
TITLE	LABEL	Potentiostatic EIS	Test &Identifier
DATE	LABEL	10/22/2019	Date
TIME	LABEL	9:43:20	Time
NOTES	NOTES	1	&Notes...
	
PSTAT	PSTAT	REF600-11020	Potentiostat
VDC	POTEN	0.00000E+000	T	DC &Voltage (V)
FREQINIT	QUANT	1.00000E+006	Initial Fre&q. (Hz)
FREQFINAL	QUANT	1.00000E+000	Final Fre&q. (Hz)
PTSPERDEC	QUANT	1.00000E+001	Points/&decade
VAC	QUANT	2.50000E+001	AC &Voltage (mV rms)
AREA	QUANT	1.00000E-002	&Area (cm^2)
CONDIT	TWOPARAM	T	5.00000E+000	0.00000E+000	Conditionin&g	Time(s)	E(V)
DELAY	TWOPARAM	T	5.00000E+000	0.00000E+000	Init. De&lay	Time(s)	Stab.(mV/s)
SPEED	SELECTOR	1	&Optimize for:
ZGUESS	QUANT	1.00000E+005	E&stimated Z (ohms)
OCVCURVE	TABLE	19
	Pt	T	Vf	Vm	Ach	Over
	#	s	V vs. Ref.	V	V	bits
	0	0.258333	5.34201E-003	5.34201E-003	5.86399E-004	...........
	1	0.516667	5.34068E-003	5.27242E-003	5.81899E-004	...........
	2	0.775	5.33386E-003	5.27692E-003	5.81932E-004	...........
	3	1.03333	5.31763E-003	5.20704E-003	5.84332E-004	...........
	4	1.29167	5.29041E-003	5.10503E-003	5.82599E-004	...........
	5	1.55	5.25145E-003	5.15067E-003	5.83065E-004	...........
	6	1.80833	5.20557E-003	5.09684E-003	5.78566E-004	...........
	7	2.06667	5.16318E-003	5.06302E-003	5.80665E-004	...........
	8	2.325	5.12956E-003	5.08709E-003	5.81665E-004	...........
	9	2.58333	5.10447E-003	5.08071E-003	5.79699E-004	...........
	10	2.84167	5.08863E-003	5.07749E-003	5.81499E-004	...........
	11	3.1	5.08129E-003	5.07656E-003	5.79032E-004	...........
	12	3.35833	5.07867E-003	5.07350E-003	5.78799E-004	...........
	13	3.61667	5.07715E-003	5.06248E-003	5.85032E-004	...........
	14	3.875	5.07428E-003	5.03586E-003	5.82665E-004	...........
	15	4.13333	5.06931E-003	5.10551E-003	5.89132E-004	...........
	16	4.39167	5.06625E-003	5.09556E-003	5.82565E-004	...........
	17	4.65	5.07264E-003	5.21621E-003	5.79799E-004	...........
	18	4.90833	5.09336E-003	5.16510E-003	5.81199E-004	...........
EOC	QUANT	0.0050934	Open Circuit (V)
PSTATMODEL	IQUANT	4	Pstat Model
PSTATSECTION	LABEL	REF600-11020	Pstat Section
PSTATSERIALNO	LABEL	11020	Pstat Serial Number
CTRLMODE	IQUANT	1	Control Mode
IESTAB	IQUANT	0	I/E Stability
CASPEED	IQUANT	1	Control Amp Speed
CONVENTION	IQUANT	1	Current Convention
ICHRANGE	IQUANT	2	Ich Range
ICHRANGEMODE	TOGGLE	F	Ich Auto Range
ICHOFFSETENABLE	TOGGLE	T	Ich Offset Enable
ICHOFFSET	QUANT	0	Ich Offset (V)
ICHFILTER	IQUANT	3	Ich Filter
VCHRANGE	IQUANT	2	Vch Range
VCHRANGEMODE	TOGGLE	F	Vch Auto Range
VCHOFFSETENABLE	TOGGLE	T	Vch Offset Enable
VCHOFFSET	QUANT	0	Vch Offset (V)
VCHFILTER	IQUANT	3	Vch Filter
ACHRANGE	IQUANT	2	Ach Range
ACHOFFSETENABLE	TOGGLE	F	Ach Offset Enable
ACHOFFSET	QUANT	0	Ach Offset (V)
ACHFILTER	IQUANT	3	Ach Filter
IERANGELOWERLIMIT	IQUANT	1	I/E Range Lower Limit
IERANGEMODE	TOGGLE	F	I/E AutoRange
IERANGE	IQUANT	4	I/E Range
POSFEEDENABLE	TOGGLE	F	Positive Feedback IR Comp
POSFEEDRESISTANCE	QUANT	0	Positive Feedback Resistance (ohm)
ACHSELECT	IQUANT	0	Ach Select
CABLEID	IQUANT	14	Cable ID
DCCALDATE	LABEL	8/19/2019	DC Calibration Date
ACCALDATE	LABEL	8/19/2019	AC Calibration Date
THERMOSELECT	IQUANT	1	Thermo Select
FRAMEWORKVERSION	QUANT	6.33	Framework Version
INSTRUMENTVERSION	LABEL	3.50	Instrument Version
ZCURVE	TABLE
	Pt	Time	Freq	Zreal	Zimag	Zsig	Zmod	Zphz	Idc	Vdc	IERange
	#	s	Hz	ohm	ohm	V	ohm	°	A	V	#
	0	1	1000078	2470.102	-1215.293	1	2752.878	-26.19724	-1.430638E-007	0.0073072	8
	1	2	794390.6	2658.085	-1097.236	1	2875.646	-22.43044	-8.553098E-007	0.0069316	8
	2	4	630984.4	2832.481	-971.576	1	2994.48	-18.9326	-6.429968E-007	0.0070672	8
	3	5	501234.4	2958.372	-858.0625	1	3080.298	-16.17456	1.154798E-007	0.0067322	8
	4	7	398109.4	3072.604	-752.9832	1	3163.524	-13.76973	2.791432E-006	0.0059932	8
	5	8	316265.6	3138.587	-660.7455	1	3207.384	-11.88849	-2.32423E-006	0.0070091	8
	6	9	251203.1	3210.95	-586.7595	1	3264.122	-10.3558	-3.009628E-006	0.0070358	8
	7	11	199546.9	3262.996	-521.6386	1	3304.429	-9.082729	3.744966E-006	0.0059408	8
	8	12	158578.1	3312.834	-472.5305	1	3346.365	-8.117702	3.600421E-006	0.0058794	8
	9	13	125953.1	3363.477	-396.2989	1	3386.743	-6.719846	-1.476799E-006	0.0095143	7
	10	15	100078.1	3395.748	-374.23	1	3416.307	-6.28893	7.739724E-008	0.0063715	7
	11	16	79453.13	3431.737	-369.3201	1	3451.552	-6.142474	-3.342097E-008	0.0065614	7
	12	17	63140.62	3469.986	-370.7936	1	3489.74	-6.099333	6.94612E-010	0.0065329	7
	13	19	50203.12	3510.517	-376.7708	1	3530.678	-6.125895	7.805513E-008	0.0063669	7
	14	20	39890.62	3552.531	-387.0916	1	3573.558	-6.218542	-1.528255E-008	0.0066582	7
	15	22	31640.63	3596.007	-403.5186	1	3618.576	-6.402545	6.671991E-009	0.0064546	7
	16	23	25171.88	3640.037	-423.6663	1	3664.61	-6.638823	3.749962E-008	0.0064817	7
	17	24	20015.62	3682.359	-450.441	1	3709.806	-6.974005	-7.692533E-008	0.0066513	7
	18	26	15890.62	3733.058	-486.2531	1	3764.593	-7.421334	8.752365E-008	0.0064661	7
	19	27	12609.37	3782.777	-528.6992	1	3819.545	-7.956395	-3.610726E-008	0.0065326	7
	20	28	10078.13	3831.791	-581.3342	1	3875.638	-8.626754	8.504671E-008	0.0064656	7
	21	30	8015.625	3873.401	-655.649	1	3928.5	-9.60737	-2.849843E-008	0.0065386	7
	22	31	6328.125	3937.492	-732.463	1	4005.04	-10.53787	6.156071E-008	0.0064207	7
	23	32	5015.625	3996.069	-836.8184	1	4082.749	-11.82742	1.368138E-009	0.0065253	7
	24	34	3984.375	4055.544	-964.742	1	4168.713	-13.38094	8.553429E-008	0.0064664	7
	25	35	3170.956	4120.88	-1116.318	1	4269.405	-15.15726	-3.312092E-008	0.0065509	7
	26	37	2527.573	4187.39	-1304.451	1	4385.866	-17.30279	1.313218E-007	0.0063212	7
	27	38	1976.103	4265.462	-1558.564	1	4541.288	-20.07188	-5.489109E-008	0.0066882	7
	28	39	1577.524	4340.477	-1870.086	1	4726.2	-23.3087	-3.520246E-008	0.0065366	7
	29	41	1265.625	4429.571	-2199.067	1	4945.401	-26.40216	3.960617E-008	0.0063879	7
	30	42	998.264	4534.356	-2669.046	1	5261.577	-30.48223	-4.241283E-008	0.0065456	7
	31	43	796.875	4650.267	-3220.439	1	5656.519	-34.70368	1.315765E-007	0.0063194	7
	32	45	627.7902	4798.439	-3948.385	1	6214.078	-39.44918	2.365838E-009	0.006523	7
	33	46	505.5147	4956.24	-4749.35	1	6864.448	-43.77884	-6.95237E-009	0.0065513	7
	34	48	397.9953	5176.923	-5851.647	1	7812.958	-48.50097	4.921701E-009	0.0065437	7
	35	49	315.5048	5445.107	-7173.031	1	9005.641	-52.79757	4.954981E-009	0.0065395	7
	36	50	252.4038	5771.132	-8726.917	1	10462.55	-56.52324	1.59499E-009	0.0064773	6
	37	52	198.6229	6217.217	-10780.96	1	12445.19	-60.02859	1.161184E-009	0.0064775	6
	38	53	158.3615	6761.276	-13165.97	1	14800.6	-62.81761	7.647407E-010	0.0064717	6
	39	54	125.558	7486.561	-16141.95	1	17793.57	-65.11835	9.351356E-010	0.0064783	6
	40	56	100.4464	8411.827	-19623.54	1	21350.46	-66.79712	1.303401E-009	0.0064722	6
	41	57	79.00281	9693.6	-24214.92	1	26083.11	-68.18303	5.957351E-010	0.0064775	6
	42	59	63.3446	11144.49	-29420.08	1	31460.15	-69.25304	1.159914E-009	0.0064745	6
	43	60	49.86702	13436.84	-35683.64	1	38129.66	-69.3659	-2.522973E-010	0.0064704	6
	44	61	39.72458	16355.7	-43291.67	1	46278.27	-69.30331	1.237346E-009	0.0064785	6
	45	63	31.6723	20174.16	-52127.02	1	55894.75	-68.84261	9.937321E-010	0.0064763	6
	46	64	24.93351	25339.91	-62989.26	1	67895.2	-68.0856	1.301182E-009	0.0064745	6
	47	65	19.86229	31745.37	-74838.6	1	81293.2	-67.0141	1.664059E-009	0.0064787	6
	48	67	15.83615	39991.62	-87834.04	1	96509.8	-65.5198	5.657554E-010	0.0064737	6
	49	68	12.40079	50778.73	-104988.9	1	116624	-64.1889	1.079334E-009	0.0064818	5
	50	70	9.93114	63204.6	-120319.2	1	135910	-62.2867	-3.132874E-010	0.0064832	5
	51	71	7.944915	77314.26	-137687.8	1	157909.5	-60.68497	2.014925E-010	0.006482	5
	52	73	6.317385	93261.94	-157035.3	1	182641.4	-59.29428	-2.677731E-010	0.0064788	5
	53	75	5.008013	111125.6	-178704.7	1	210438.3	-58.12504	-2.717178E-010	0.0064765	5
	54	78	3.945707	131646	-203461.2	1	242336.8	-57.09583	2.746266E-010	0.0064795	5
	55	80	3.158693	150690	-230098.1	1	275050.3	-56.77943	-6.634532E-011	0.0064612	5
	56	84	2.504006	172509.8	-262949.7	1	314487.1	-56.73287	1.148854E-010	0.0064787	5
	57	86	1.998082	194088	-301242.3	1	358353.3	-57.20664	2.917758E-010	0.0064596	5
	58	89	1.584686	222704.8	-346998.7	1	412317.2	-57.30753	-1.220393E-011	0.006427	5
	59	93	1.266892	247293.5	-404671.7	1	474250.2	-58.57104	1.490701E-010	0.0064418	5
	60	97	0.999041	279475.2	-477542.5	1	553311.2	-59.66228	-6.711921E-011	0.0064949	5
