EXPLAIN
TAG	EISPOT
TITLE	LABEL	Potentiostatic EIS	Test &Identifier
DATE	LABEL	9/20/2019	Date
TIME	LABEL	10:08:33	Time
NOTES	NOTES	1	&Notes...
	
PSTAT	PSTAT	REF600-11020	Potentiostat
VDC	POTEN	0.00000E+000	T	DC &Voltage (V)
FREQINIT	QUANT	1.00000E+006	Initial Fre&q. (Hz)
FREQFINAL	QUANT	1.00000E+000	Final Fre&q. (Hz)
PTSPERDEC	QUANT	1.00000E+001	Points/&decade
VAC	QUANT	2.50000E+001	AC &Voltage (mV rms)
AREA	QUANT	1.00000E-002	&Area (cm^2)
CONDIT	TWOPARAM	T	5.00000E+000	0.00000E+000	Conditionin&g	Time(s)	E(V)
DELAY	TWOPARAM	T	5.00000E+000	0.00000E+000	Init. De&lay	Time(s)	Stab.(mV/s)
SPEED	SELECTOR	1	&Optimize for:
ZGUESS	QUANT	1.00000E+004	E&stimated Z (ohms)
OCVCURVE	TABLE	19
	Pt	T	Vf	Vm	Ach	Over
	#	s	V vs. Ref.	V	V	bits
	0	0.258333	1.77842E-002	1.77842E-002	5.70266E-004	...........
	1	0.516667	1.77976E-002	1.84848E-002	5.73632E-004	...........
	2	0.775	1.78794E-002	1.91271E-002	5.74865E-004	...........
	3	1.03333	1.81086E-002	1.97072E-002	5.71132E-004	...........
	4	1.29167	1.85126E-002	2.02411E-002	5.71966E-004	...........
	5	1.55	1.90380E-002	2.07362E-002	5.70566E-004	...........
	6	1.80833	1.96038E-002	2.11983E-002	5.67566E-004	...........
	7	2.06667	2.01540E-002	2.16285E-002	5.66866E-004	...........
	8	2.325	2.06662E-002	2.20347E-002	5.65832E-004	...........
	9	2.58333	2.11387E-002	2.24145E-002	5.67132E-004	...........
	10	2.84167	2.15765E-002	2.27645E-002	5.66999E-004	...........
	11	3.1	2.19844E-002	2.30969E-002	5.72166E-004	...........
	12	3.35833	2.23655E-002	2.34081E-002	5.69432E-004	...........
	13	3.61667	2.27223E-002	2.37086E-002	5.65966E-004	...........
	14	3.875	2.30575E-002	2.39942E-002	5.65899E-004	...........
	15	4.13333	2.33743E-002	2.42620E-002	5.65966E-004	...........
	16	4.39167	2.36748E-002	2.45160E-002	5.69832E-004	...........
	17	4.65	2.39601E-002	2.47600E-002	5.69999E-004	...........
	18	4.90833	2.42308E-002	2.49927E-002	5.65432E-004	...........
EOC	QUANT	0.0242308	Open Circuit (V)
PSTATMODEL	IQUANT	4	Pstat Model
PSTATSECTION	LABEL	REF600-11020	Pstat Section
PSTATSERIALNO	LABEL	11020	Pstat Serial Number
CTRLMODE	IQUANT	1	Control Mode
IESTAB	IQUANT	0	I/E Stability
CASPEED	IQUANT	1	Control Amp Speed
CONVENTION	IQUANT	1	Current Convention
ICHRANGE	IQUANT	2	Ich Range
ICHRANGEMODE	TOGGLE	F	Ich Auto Range
ICHOFFSETENABLE	TOGGLE	T	Ich Offset Enable
ICHOFFSET	QUANT	0	Ich Offset (V)
ICHFILTER	IQUANT	3	Ich Filter
VCHRANGE	IQUANT	2	Vch Range
VCHRANGEMODE	TOGGLE	F	Vch Auto Range
VCHOFFSETENABLE	TOGGLE	T	Vch Offset Enable
VCHOFFSET	QUANT	0	Vch Offset (V)
VCHFILTER	IQUANT	3	Vch Filter
ACHRANGE	IQUANT	2	Ach Range
ACHOFFSETENABLE	TOGGLE	F	Ach Offset Enable
ACHOFFSET	QUANT	0	Ach Offset (V)
ACHFILTER	IQUANT	3	Ach Filter
IERANGELOWERLIMIT	IQUANT	1	I/E Range Lower Limit
IERANGEMODE	TOGGLE	F	I/E AutoRange
IERANGE	IQUANT	6	I/E Range
POSFEEDENABLE	TOGGLE	F	Positive Feedback IR Comp
POSFEEDRESISTANCE	QUANT	0	Positive Feedback Resistance (ohm)
ACHSELECT	IQUANT	0	Ach Select
CABLEID	IQUANT	14	Cable ID
DCCALDATE	LABEL	8/19/2019	DC Calibration Date
ACCALDATE	LABEL	8/19/2019	AC Calibration Date
THERMOSELECT	IQUANT	1	Thermo Select
FRAMEWORKVERSION	QUANT	6.33	Framework Version
INSTRUMENTVERSION	LABEL	3.50	Instrument Version
ZCURVE	TABLE
	Pt	Time	Freq	Zreal	Zimag	Zsig	Zmod	Zphz	Idc	Vdc	IERange
	#	s	Hz	ohm	ohm	V	ohm	°	A	V	#
	0	1	1000078	2079.955	-1178.619	1	2390.681	-29.53831	-1.730878E-006	0.0269041	8
	1	3	794390.6	2290.48	-1098.682	1	2540.354	-25.62579	2.308567E-006	0.0258238	8
	2	4	630984.4	2471.967	-982.847	1	2660.189	-21.68262	1.009948E-006	0.0256296	8
	3	6	501234.4	2626.613	-859.8557	1	2763.774	-18.12653	3.63035E-006	0.025268	8
	4	7	398109.4	2739.672	-768.9354	1	2845.534	-15.67768	-1.586462E-006	0.0261931	8
	5	8	316265.6	2832.385	-659.6796	1	2908.192	-13.1108	1.153132E-006	0.025693	8
	6	10	251203.1	2898.689	-577.8759	1	2955.73	-11.27454	1.335264E-006	0.025417	8
	7	11	199546.9	2949.035	-512.4322	1	2993.225	-9.85744	2.182775E-006	0.0254091	8
	8	12	158578.1	2987.017	-445.4017	1	3020.042	-8.481031	-4.739811E-007	0.0260789	8
	9	14	125953.1	3044.68	-364.0608	1	3066.368	-6.818641	4.158298E-007	0.024702	7
	10	15	100078.1	3070.351	-331.1293	1	3088.155	-6.155408	-3.569473E-008	0.0258636	7
	11	16	79453.13	3097.649	-316.9794	1	3113.825	-5.842684	-5.154624E-009	0.0258528	7
	12	18	63140.62	3125.324	-310.7025	1	3140.73	-5.677376	3.00861E-008	0.0258064	7
	13	19	50203.12	3153.595	-311.2733	1	3168.92	-5.637079	-1.529503E-008	0.0258068	7
	14	20	39890.62	3183.045	-316.5297	1	3198.744	-5.678962	-1.455436E-008	0.0258811	7
	15	22	31640.63	3214.579	-330.0689	1	3231.48	-5.862513	-7.329047E-008	0.0259534	7
	16	23	25171.88	3248.47	-349.4022	1	3267.207	-6.139074	-7.443594E-008	0.0259546	7
	17	24	20015.62	3284.623	-374.4983	1	3305.903	-6.504525	-5.162191E-008	0.0259869	7
	18	26	15890.62	3325.204	-404.7422	1	3349.746	-6.939876	1.211563E-007	0.0256502	7
	19	27	12609.37	3368.865	-445.3647	1	3398.176	-7.530845	-4.52179E-008	0.0259187	7
	20	28	10078.13	3415.442	-490.9339	1	3450.544	-8.179641	-7.334829E-008	0.0259447	7
	21	30	8015.625	3465.863	-546.6051	1	3508.701	-8.962361	6.11544E-008	0.0257115	7
	22	31	6328.125	3523.755	-613.1189	1	3576.698	-9.87041	9.050463E-009	0.0257583	7
	23	32	5015.625	3585.965	-691.9003	1	3652.105	-10.92083	-1.348701E-008	0.0257926	7
	24	34	3984.375	3650.402	-783.6795	1	3733.576	-12.11652	-1.402927E-008	0.0258642	7
	25	35	3170.956	3721.594	-892.8444	1	3827.196	-13.49081	-1.346514E-008	0.0257911	7
	26	36	2527.573	3796.612	-1021.064	1	3931.518	-15.05299	6.196233E-008	0.0257126	7
	27	38	1976.103	3886.388	-1189.508	1	4064.35	-17.01779	-7.534233E-008	0.0259364	7
	28	39	1577.524	3972.778	-1377.343	1	4204.764	-19.12119	-1.782669E-008	0.025962	7
	29	40	1265.625	4068.648	-1598.928	1	4371.552	-21.4542	-4.186119E-008	0.0258518	7
	30	42	998.264	4178.304	-1887.836	1	4584.992	-24.31434	-4.363695E-008	0.0259197	7
	31	43	796.875	4292.07	-2223.751	1	4833.936	-27.38898	-1.916747E-008	0.0259619	7
	32	44	627.7902	4425.112	-2660.622	1	5163.383	-31.01661	-1.454964E-008	0.025793	7
	33	46	505.5147	4563.225	-3151.283	1	5545.594	-34.62828	-4.101576E-008	0.025871	7
	34	47	397.9953	4736.753	-3822.579	1	6086.784	-38.90368	1.843462E-009	0.0258458	7
	35	49	315.5048	4939.447	-4628.708	1	6769.275	-43.1399	1.137139E-009	0.0258448	7
	36	50	252.4038	5180.247	-5583.346	1	7616.345	-47.14474	1.188781E-009	0.0258395	7
	37	51	198.6229	5510.925	-6845.016	1	8787.75	-51.16245	9.246682E-010	0.0258462	7
	38	53	158.3615	5919.382	-8306.409	1	10199.78	-54.52525	-3.483858E-009	0.025784	6
	39	54	125.558	6462.454	-10129.65	1	12015.54	-57.46318	-2.953932E-009	0.0257885	6
	40	55	100.4464	7150.177	-12248.95	1	14183.15	-59.72626	-3.398293E-009	0.0257864	6
	41	57	79.00281	8126.347	-14957.38	1	17022.36	-61.48477	-3.278943E-009	0.0257825	6
	42	58	63.3446	9303.268	-18044.76	1	20301.82	-62.7259	-3.577527E-009	0.0257852	6
	43	59	49.86702	11000.91	-21699.67	1	24328.9	-63.11673	-3.464796E-009	0.0257806	6
	44	61	39.72458	13159.1	-25980.02	1	29122.55	-63.13739	-3.844554E-009	0.0257888	6
	45	62	31.6723	15800.36	-30783.33	1	34601.51	-62.82964	-4.222332E-009	0.0257863	6
	46	64	24.93351	19434.01	-36612.07	1	41450.27	-62.04025	-3.223455E-009	0.0257864	6
	47	65	19.86229	23663.08	-42818.3	1	48921.86	-61.07323	-1.931805E-009	0.0257978	6
	48	66	15.83615	29055.75	-49603.83	1	57487.18	-59.6401	-5.438895E-009	0.0257878	6
	49	68	12.40079	35765.63	-57821.05	1	67988.64	-58.26084	-4.172586E-009	0.0257936	6
	50	69	9.93114	43119.52	-65731.07	1	78612.13	-56.73516	-4.050328E-009	0.02579	6
	51	71	7.944915	51697.76	-74336.77	1	90546.2	-55.18319	-4.624187E-009	0.0257884	6
	52	72	6.317385	61728.47	-83636.84	1	103949.6	-53.57069	-3.599754E-009	0.0257817	5
	53	74	5.008013	74601.19	-99451.1	1	124321.6	-53.12537	-1.203529E-008	0.0257903	5
	54	77	3.945707	88891.21	-111860.1	1	142878.7	-51.52708	-8.587987E-009	0.0257998	5
	55	79	3.158693	104034.8	-124002.9	1	161864	-50.00433	-8.808203E-009	0.0257843	5
	56	82	2.504006	121653.3	-137288.6	1	183433	-48.45539	-6.529674E-009	0.0257983	5
	57	85	1.998082	140490.1	-150801	1	206103	-47.02727	-6.969403E-009	0.0258346	5
	58	88	1.584686	161357.9	-165708.6	1	231291.4	-45.76212	-6.482979E-009	0.0257887	5
	59	92	1.266892	184363	-180900.7	1	258292	-44.45691	-6.675479E-009	0.0258327	5
	60	96	0.999041	210580.8	-198003.3	1	289049.4	-43.23681	-6.47183E-009	0.0257523	5
