EXPLAIN
TAG	EISPOT
TITLE	LABEL	Potentiostatic EIS	Test &Identifier
DATE	LABEL	10/14/2019	Date
TIME	LABEL	11:50:48	Time
NOTES	NOTES	1	&Notes...
	
PSTAT	PSTAT	REF600-11020	Potentiostat
VDC	POTEN	0.00000E+000	T	DC &Voltage (V)
FREQINIT	QUANT	1.00000E+006	Initial Fre&q. (Hz)
FREQFINAL	QUANT	1.00000E+000	Final Fre&q. (Hz)
PTSPERDEC	QUANT	1.00000E+001	Points/&decade
VAC	QUANT	2.50000E+001	AC &Voltage (mV rms)
AREA	QUANT	1.00000E-002	&Area (cm^2)
CONDIT	TWOPARAM	T	5.00000E+000	0.00000E+000	Conditionin&g	Time(s)	E(V)
DELAY	TWOPARAM	T	5.00000E+000	0.00000E+000	Init. De&lay	Time(s)	Stab.(mV/s)
SPEED	SELECTOR	1	&Optimize for:
ZGUESS	QUANT	1.00000E+004	E&stimated Z (ohms)
OCVCURVE	TABLE	19
	Pt	T	Vf	Vm	Ach	Over
	#	s	V vs. Ref.	V	V	bits
	0	0.258333	5.97769E-003	5.97769E-003	5.26400E-004	...........
	1	0.516667	5.97696E-003	5.93926E-003	5.27333E-004	...........
	2	0.775	5.97260E-003	5.91093E-003	5.30433E-004	...........
	3	1.03333	5.96110E-003	5.89937E-003	5.32166E-004	...........
	4	1.29167	5.94296E-003	5.89573E-003	5.18933E-004	...........
	5	1.55	5.92368E-003	5.90076E-003	5.31500E-004	...........
	6	1.80833	5.90924E-003	5.90540E-003	5.30166E-004	...........
	7	2.06667	5.90230E-003	5.91680E-003	5.25566E-004	...........
	8	2.325	5.90260E-003	5.94037E-003	5.19900E-004	...........
	9	2.58333	5.90941E-003	5.96531E-003	5.23800E-004	...........
	10	2.84167	5.92266E-003	6.00138E-003	5.30166E-004	...........
	11	3.1	5.94303E-003	6.06235E-003	5.22133E-004	...........
	12	3.35833	5.97351E-003	6.19336E-003	5.25500E-004	...........
	13	3.61667	6.01933E-003	6.21162E-003	5.37066E-004	...........
	14	3.875	6.07828E-003	6.16726E-003	5.43199E-004	...........
	15	4.13333	6.13353E-003	6.16974E-003	5.31933E-004	...........
	16	4.39167	6.16681E-003	6.14197E-003	5.25633E-004	...........
	17	4.65	6.17577E-003	6.18446E-003	5.34033E-004	...........
	18	4.90833	6.17268E-003	6.18784E-003	5.30233E-004	...........
EOC	QUANT	0.0061727	Open Circuit (V)
PSTATMODEL	IQUANT	4	Pstat Model
PSTATSECTION	LABEL	REF600-11020	Pstat Section
PSTATSERIALNO	LABEL	11020	Pstat Serial Number
CTRLMODE	IQUANT	1	Control Mode
IESTAB	IQUANT	0	I/E Stability
CASPEED	IQUANT	1	Control Amp Speed
CONVENTION	IQUANT	1	Current Convention
ICHRANGE	IQUANT	2	Ich Range
ICHRANGEMODE	TOGGLE	F	Ich Auto Range
ICHOFFSETENABLE	TOGGLE	T	Ich Offset Enable
ICHOFFSET	QUANT	0	Ich Offset (V)
ICHFILTER	IQUANT	3	Ich Filter
VCHRANGE	IQUANT	2	Vch Range
VCHRANGEMODE	TOGGLE	F	Vch Auto Range
VCHOFFSETENABLE	TOGGLE	T	Vch Offset Enable
VCHOFFSET	QUANT	0	Vch Offset (V)
VCHFILTER	IQUANT	3	Vch Filter
ACHRANGE	IQUANT	2	Ach Range
ACHOFFSETENABLE	TOGGLE	F	Ach Offset Enable
ACHOFFSET	QUANT	0	Ach Offset (V)
ACHFILTER	IQUANT	3	Ach Filter
IERANGELOWERLIMIT	IQUANT	1	I/E Range Lower Limit
IERANGEMODE	TOGGLE	F	I/E AutoRange
IERANGE	IQUANT	6	I/E Range
POSFEEDENABLE	TOGGLE	F	Positive Feedback IR Comp
POSFEEDRESISTANCE	QUANT	0	Positive Feedback Resistance (ohm)
ACHSELECT	IQUANT	0	Ach Select
CABLEID	IQUANT	14	Cable ID
DCCALDATE	LABEL	8/19/2019	DC Calibration Date
ACCALDATE	LABEL	8/19/2019	AC Calibration Date
THERMOSELECT	IQUANT	1	Thermo Select
FRAMEWORKVERSION	QUANT	6.33	Framework Version
INSTRUMENTVERSION	LABEL	3.50	Instrument Version
ZCURVE	TABLE
	Pt	Time	Freq	Zreal	Zimag	Zsig	Zmod	Zphz	Idc	Vdc	IERange
	#	s	Hz	ohm	ohm	V	ohm	°	A	V	#
	0	2	1000078	2510.814	-1748.135	1	3059.438	-34.84726	6.193321E-007	0.0085742	8
	1	3	794390.6	2846.417	-1694.016	1	3312.368	-30.75856	3.576339E-007	0.0082075	8
	2	4	630984.4	3161.754	-1579.126	1	3534.166	-26.53967	9.462515E-007	0.0079598	8
	3	6	501234.4	3431.153	-1428.067	1	3716.475	-22.59737	3.79741E-006	0.0072583	8
	4	7	398109.4	3655.266	-1264.764	1	3867.893	-19.0862	-3.934521E-007	0.0079518	8
	5	8	316265.6	3821.598	-1117.916	1	3981.751	-16.30556	-2.712092E-006	0.008426	8
	6	10	251203.1	3954.842	-969.698	1	4071.989	-13.77671	5.222341E-008	0.0078996	8
	7	11	199546.9	4055.469	-839.7525	1	4141.499	-11.69872	2.200834E-007	0.0078785	8
	8	12	158578.1	4140.32	-718.1242	1	4202.136	-9.83986	-9.758586E-007	0.008057	8
	9	14	125953.1	4205.772	-579.0269	1	4245.443	-7.838881	2.799984E-007	0.0074305	7
	10	15	100078.1	4260.555	-523.3041	1	4292.572	-7.002302	-5.787898E-008	0.0079117	7
	11	16	79453.13	4301.205	-480.0109	1	4327.906	-6.367814	6.170607E-008	0.0077154	7
	12	18	63140.62	4340.618	-448.6149	1	4363.739	-5.900727	6.554775E-009	0.0077607	7
	13	19	50203.12	4377.292	-429.248	1	4398.288	-5.600657	6.942345E-009	0.0077345	7
	14	20	39890.62	4414.042	-421.1687	1	4434.089	-5.450414	-4.091419E-008	0.0079054	7
	15	22	31640.63	4450.073	-422.9318	1	4470.125	-5.429044	-4.102515E-008	0.007908	7
	16	23	25171.88	4489.242	-435.6543	1	4510.331	-5.542859	-1.721406E-008	0.0078406	7
	17	25	20015.62	4526.293	-454.5184	1	4549.057	-5.734268	4.27566E-008	0.0077519	7
	18	26	15890.62	4574.663	-486.334	1	4600.441	-6.068341	7.948972E-008	0.0076422	7
	19	27	12609.37	4621.851	-526.0009	1	4651.686	-6.492748	-3.586974E-008	0.0078153	7
	20	29	10078.13	4668.708	-571.8774	1	4703.603	-6.983462	4.334104E-008	0.0077536	7
	21	30	8015.625	4719.072	-638.7729	1	4762.107	-7.708697	-5.754302E-008	0.0078654	7
	22	31	6328.125	4770.488	-712.7113	1	4823.434	-8.497147	8.569213E-008	0.0077401	7
	23	33	5015.625	4824.863	-811.1885	1	4892.579	-9.5437	1.10976E-008	0.0078887	7
	24	34	3984.375	4880.367	-927.7893	1	4967.774	-10.76385	1.157165E-007	0.0076357	7
	25	35	3170.956	4934.357	-1082.606	1	5051.724	-12.37471	6.29859E-008	0.0077019	7
	26	37	2527.573	4996.232	-1268.031	1	5154.633	-14.24084	-2.5248E-008	0.0078478	7
	27	38	1976.103	5068.006	-1520.977	1	5291.319	-16.70522	7.862868E-008	0.0076354	7
	28	39	1577.524	5146.237	-1831.213	1	5462.334	-19.58735	-3.279744E-008	0.0078872	7
	29	41	1265.625	5227.892	-2159.591	1	5656.385	-22.44504	1.182575E-007	0.0076242	7
	30	42	998.264	5328.836	-2623.735	1	5939.738	-26.21404	-4.183462E-008	0.0078541	7
	31	43	796.875	5445.001	-3169.025	1	6300.06	-30.19968	1.191793E-007	0.0076261	7
	32	45	627.7902	5592.811	-3883.979	1	6809.172	-34.77841	-3.090675E-008	0.0078052	7
	33	46	505.5147	5760.884	-4683.509	1	7424.49	-39.11057	-6.049922E-008	0.0079007	7
	34	47	397.9953	5987.553	-5765.173	1	8311.92	-43.91601	3.392673E-009	0.0078149	7
	35	49	315.5048	6268.564	-7062.363	1	9443.086	-48.40769	4.824658E-009	0.0078149	7
	36	50	252.4038	6614.44	-8584.904	1	10837.5	-52.38671	9.898449E-010	0.0077465	6
	37	52	198.6229	7089.648	-10584.65	1	12739.62	-56.18565	7.665997E-010	0.0077485	6
	38	53	158.3615	7674.863	-12890.99	1	15002.7	-59.23185	2.615425E-010	0.0077459	6
	39	54	125.558	8447.941	-15755.65	1	17877.59	-61.80047	9.606596E-010	0.0077471	6
	40	56	100.4464	9413.423	-19058.56	1	21256.55	-63.71426	8.473175E-010	0.0077455	6
	41	57	79.00281	10761.94	-23357.39	1	25717.45	-65.26207	1.002045E-009	0.0077452	6
	42	58	63.3446	12380.38	-27962.12	1	30580.28	-66.11837	3.720002E-010	0.0077463	6
	43	60	49.86702	14460.76	-34270.75	1	37196.74	-67.12237	4.845131E-010	0.0077427	6
	44	61	39.72458	16954.8	-41106.35	1	44465.69	-67.58572	8.107305E-010	0.0077529	6
	45	62	31.6723	20159.92	-49364.47	1	53322.36	-67.78542	-1.844979E-011	0.0077549	6
	46	64	24.93351	24386.48	-59575.18	1	64373.15	-67.73878	7.679889E-010	0.0077493	6
	47	65	19.86229	29464.29	-71112.17	1	76974.58	-67.49404	5.963053E-010	0.0077614	6
	48	66	15.83615	35677.01	-84614.64	1	91828.57	-67.13771	1.046127E-009	0.0077537	6
	49	68	12.40079	44463.45	-101410.5	1	110729.8	-66.32494	5.222293E-010	0.0077545	5
	50	69	9.93114	54704.17	-119611.6	1	131527.5	-65.42309	2.528269E-010	0.0077556	5
	51	71	7.944915	66650.36	-139885.5	1	154952.3	-64.5239	-8.670649E-011	0.0077613	5
	52	73	6.317385	81969.27	-163215.3	1	182642.3	-63.33348	-1.842934E-010	0.0077714	5
	53	75	5.008013	100164.8	-189653.3	1	214479.2	-62.15937	1.579734E-010	0.0077511	5
	54	77	3.945707	121755.8	-220225.9	1	251642.5	-61.06322	2.76157E-010	0.0077564	5
	55	80	3.158693	144589.8	-251738.8	1	290307.8	-60.12848	1.248209E-010	0.0077707	5
	56	83	2.504006	170535	-289631.1	1	336107.7	-59.5104	3.987722E-011	0.0077494	5
	57	86	1.998082	197773.3	-331729	1	386210.3	-59.19705	-1.562839E-010	0.0077566	5
	58	89	1.584686	229798.6	-382410.3	1	446144.7	-58.99743	9.340131E-011	0.0078075	5
	59	92	1.266892	261811	-440664.3	1	512572	-59.28426	-1.212212E-010	0.0077573	5
	60	97	0.999041	301477.5	-515244.8	1	596963.9	-59.66746	2.989203E-010	0.0077755	5
