EXPLAIN
TAG	EISPOT
TITLE	LABEL	Potentiostatic EIS	Test &Identifier
DATE	LABEL	10/14/2019	Date
TIME	LABEL	10:44:00	Time
NOTES	NOTES	1	&Notes...
	
PSTAT	PSTAT	REF600-11020	Potentiostat
VDC	POTEN	0.00000E+000	T	DC &Voltage (V)
FREQINIT	QUANT	1.00000E+006	Initial Fre&q. (Hz)
FREQFINAL	QUANT	1.00000E+000	Final Fre&q. (Hz)
PTSPERDEC	QUANT	1.00000E+001	Points/&decade
VAC	QUANT	2.50000E+001	AC &Voltage (mV rms)
AREA	QUANT	1.00000E-002	&Area (cm^2)
CONDIT	TWOPARAM	T	5.00000E+000	0.00000E+000	Conditionin&g	Time(s)	E(V)
DELAY	TWOPARAM	T	5.00000E+000	0.00000E+000	Init. De&lay	Time(s)	Stab.(mV/s)
SPEED	SELECTOR	1	&Optimize for:
ZGUESS	QUANT	1.00000E+004	E&stimated Z (ohms)
OCVCURVE	TABLE	19
	Pt	T	Vf	Vm	Ach	Over
	#	s	V vs. Ref.	V	V	bits
	0	0.258333	9.68059E-003	9.68059E-003	5.53433E-004	...........
	1	0.516667	9.68234E-003	9.77217E-003	5.53933E-004	...........
	2	0.775	9.69439E-003	9.92759E-003	5.56799E-004	...........
	3	1.03333	9.72222E-003	9.52075E-003	5.58032E-004	...........
	4	1.29167	9.81030E-003	1.31183E-002	5.54166E-004	...........
	5	1.55	1.00828E-002	1.00644E-002	5.53333E-004	...........
	6	1.80833	1.05216E-002	1.08948E-002	5.54033E-004	...........
	7	2.06667	1.09490E-002	1.54281E-002	5.53899E-004	...........
	8	2.325	1.14640E-002	1.37968E-002	5.57099E-004	...........
	9	2.58333	1.22328E-002	1.18021E-002	5.57532E-004	...........
	10	2.84167	1.28876E-002	1.10506E-002	5.55899E-004	...........
	11	3.1	1.28834E-002	8.93376E-003	5.60666E-004	...........
	12	3.35833	1.21578E-002	9.66035E-003	5.58966E-004	...........
	13	3.61667	1.11231E-002	1.02449E-002	5.57399E-004	...........
	14	3.875	1.03005E-002	1.02693E-002	5.59032E-004	...........
	15	4.13333	9.94984E-003	1.02013E-002	5.61999E-004	...........
	16	4.39167	9.96078E-003	1.03591E-002	5.52133E-004	...........
	17	4.65	1.00953E-002	1.02610E-002	5.55899E-004	...........
	18	4.90833	1.02124E-002	1.03703E-002	5.57266E-004	...........
EOC	QUANT	0.0102124	Open Circuit (V)
PSTATMODEL	IQUANT	4	Pstat Model
PSTATSECTION	LABEL	REF600-11020	Pstat Section
PSTATSERIALNO	LABEL	11020	Pstat Serial Number
CTRLMODE	IQUANT	1	Control Mode
IESTAB	IQUANT	0	I/E Stability
CASPEED	IQUANT	1	Control Amp Speed
CONVENTION	IQUANT	1	Current Convention
ICHRANGE	IQUANT	2	Ich Range
ICHRANGEMODE	TOGGLE	F	Ich Auto Range
ICHOFFSETENABLE	TOGGLE	T	Ich Offset Enable
ICHOFFSET	QUANT	0	Ich Offset (V)
ICHFILTER	IQUANT	3	Ich Filter
VCHRANGE	IQUANT	2	Vch Range
VCHRANGEMODE	TOGGLE	F	Vch Auto Range
VCHOFFSETENABLE	TOGGLE	T	Vch Offset Enable
VCHOFFSET	QUANT	0	Vch Offset (V)
VCHFILTER	IQUANT	3	Vch Filter
ACHRANGE	IQUANT	2	Ach Range
ACHOFFSETENABLE	TOGGLE	F	Ach Offset Enable
ACHOFFSET	QUANT	0	Ach Offset (V)
ACHFILTER	IQUANT	3	Ach Filter
IERANGELOWERLIMIT	IQUANT	1	I/E Range Lower Limit
IERANGEMODE	TOGGLE	F	I/E AutoRange
IERANGE	IQUANT	6	I/E Range
POSFEEDENABLE	TOGGLE	F	Positive Feedback IR Comp
POSFEEDRESISTANCE	QUANT	0	Positive Feedback Resistance (ohm)
ACHSELECT	IQUANT	0	Ach Select
CABLEID	IQUANT	14	Cable ID
DCCALDATE	LABEL	8/19/2019	DC Calibration Date
ACCALDATE	LABEL	8/19/2019	AC Calibration Date
THERMOSELECT	IQUANT	1	Thermo Select
FRAMEWORKVERSION	QUANT	6.33	Framework Version
INSTRUMENTVERSION	LABEL	3.50	Instrument Version
ZCURVE	TABLE
	Pt	Time	Freq	Zreal	Zimag	Zsig	Zmod	Zphz	Idc	Vdc	IERange
	#	s	Hz	ohm	ohm	V	ohm	°	A	V	#
	0	1	1000078	2275.271	-1514.944	1	2733.48	-33.65687	-2.037919E-006	0.0125389	8
	1	3	794390.6	2577.942	-1417.94	1	2942.166	-28.81202	5.553033E-006	0.0113233	8
	2	4	630984.4	2819.545	-1325.138	1	3115.417	-25.17273	-3.901692E-006	0.0125117	8
	3	5	501234.4	3035.172	-1199.396	1	3263.56	-21.56224	4.672127E-006	0.0112131	8
	4	7	398109.4	3215.772	-1076.477	1	3391.164	-18.50793	2.290345E-006	0.0112823	8
	5	8	316265.6	3332.072	-956.736	1	3466.706	-16.02032	-2.745978E-006	0.0123424	8
	6	9	251203.1	3453.559	-855.439	1	3557.927	-13.91203	-4.420537E-007	0.0119008	8
	7	11	199546.9	3544.592	-768.8708	1	3627.023	-12.23865	8.896033E-007	0.0116804	8
	8	12	158578.1	3609.992	-701.4409	1	3677.507	-10.99586	-7.456641E-008	0.0117728	8
	9	13	125953.1	3683.642	-615.3658	1	3734.688	-9.483894	1.13539E-006	0.0092941	7
	10	15	100078.1	3742.173	-585.3049	1	3787.67	-8.889482	3.109096E-008	0.0117505	7
	11	16	79453.13	3798.161	-576.5983	1	3841.678	-8.632154	-2.377121E-008	0.0117899	7
	12	17	63140.62	3854.988	-577.2265	1	3897.964	-8.515914	-1.249312E-008	0.0118061	7
	13	19	50203.12	3913.179	-589.2222	1	3957.291	-8.562915	-2.546673E-008	0.0118502	7
	14	20	39890.62	3975.015	-612.043	1	4021.858	-8.753234	-2.83281E-008	0.0118338	7
	15	22	31640.63	4038.596	-644.85	1	4089.755	-9.071942	6.806472E-008	0.0117385	7
	16	23	25171.88	4105.922	-689.9682	1	4163.491	-9.53899	3.369286E-008	0.0117403	7
	17	24	20015.62	4165.782	-745.019	1	4231.878	-10.13972	3.260523E-008	0.0117358	7
	18	26	15890.62	4256.233	-817.2254	1	4333.979	-10.8689	-2.851091E-008	0.0117802	7
	19	27	12609.37	4341.085	-902.1365	1	4433.833	-11.73975	8.827294E-011	0.011868	7
	20	28	10078.13	4430.431	-999.295	1	4541.73	-12.71051	-3.285608E-009	0.0118766	7
	21	30	8015.625	4540.272	-1129.43	1	4678.642	-13.96926	-2.958451E-008	0.0117957	7
	22	31	6328.125	4637.195	-1270.924	1	4808.204	-15.3268	-2.542146E-008	0.011787	7
	23	32	5015.625	4753.85	-1446.214	1	4968.966	-16.92079	-2.635749E-008	0.0117805	7
	24	34	3984.375	4883.901	-1657.801	1	5157.596	-18.74936	3.344998E-009	0.0118643	7
	25	35	3170.956	5011.344	-1901.616	1	5360.01	-20.77987	-2.448695E-008	0.0117787	7
	26	37	2527.573	5153.291	-2198.994	1	5602.855	-23.10874	-4.000782E-008	0.0118236	7
	27	38	1976.103	5319.097	-2595.555	1	5918.589	-26.01094	5.914083E-009	0.0117304	7
	28	39	1577.524	5477.189	-3048.605	1	6268.46	-29.10033	-5.069709E-008	0.0118587	7
	29	41	1265.625	5667.136	-3568.487	1	6697.054	-32.19783	7.113701E-008	0.011627	7
	30	42	998.264	5882.372	-4260.019	1	7262.924	-35.91209	-3.005975E-008	0.0117919	7
	31	43	796.875	6130.527	-5081.893	1	7962.976	-39.65699	-4.089778E-008	0.011858	7
	32	45	627.7902	6427.218	-6140.873	1	8889.288	-43.69482	-6.147549E-008	0.0118741	7
	33	46	505.5147	6734.932	-7297.191	1	9930.17	-47.29458	1.096792E-009	0.0117377	6
	34	48	397.9953	7142.817	-8873.812	1	11391.42	-51.16829	1.209617E-009	0.0117269	6
	35	49	315.5048	7608.248	-10749.54	1	13169.59	-54.71012	9.244449E-010	0.0117241	6
	36	50	252.4038	8141.853	-12950.57	1	15297.29	-57.84296	1.157892E-009	0.0117242	6
	37	52	198.6229	8833.765	-15844.32	1	18140.5	-60.8588	8.574571E-010	0.0117264	6
	38	53	158.3615	9628.09	-19194.56	1	21473.97	-63.36141	4.42357E-010	0.0117213	6
	39	54	125.558	10617.42	-23405.02	1	25700.67	-65.59912	7.130312E-010	0.0117232	6
	40	56	100.4464	11753.1	-28338.33	1	30678.92	-67.47415	9.725223E-010	0.0117218	6
	41	57	79.00281	13372.69	-34794.77	1	37276.06	-68.97672	4.20104E-011	0.0117182	6
	42	59	63.3446	15133.66	-41793.24	1	44448.87	-70.09428	-2.304729E-011	0.0117114	6
	43	60	49.86702	18177.85	-52014.89	1	55099.76	-70.73681	-2.104954E-010	0.0117156	6
	44	61	39.72458	21184.02	-63194.3	1	66650.45	-71.4678	7.216542E-010	0.011717	6
	45	63	31.6723	25190.82	-76720.59	1	80750.4	-71.82266	9.483472E-010	0.0117191	6
	46	64	24.93351	31582.61	-93972.3	1	99137.5	-71.42332	5.555348E-010	0.0117209	6
	47	65	19.86229	39535.73	-113313.5	1	120012.6	-70.76583	1.47838E-010	0.0117256	5
	48	67	15.83615	50040.25	-136286.1	1	145182.4	-69.83826	-3.583568E-010	0.0117161	5
	49	68	12.40079	63690.89	-164318.2	1	176230	-68.81332	1.151505E-010	0.0117279	5
	50	70	9.93114	81477.09	-194900.2	1	211245.4	-67.31287	3.827253E-010	0.0117258	5
	51	71	7.944915	104168.3	-228567.5	1	251185.5	-65.49915	1.851686E-010	0.0117259	5
	52	73	6.317385	130327.9	-265804.1	1	296035.8	-63.88056	2.673878E-010	0.0117162	5
	53	75	5.008013	163707.1	-307504.9	1	348366.6	-61.9704	1.965048E-011	0.0117355	5
	54	78	3.945707	203601.3	-353763.7	1	408169.4	-60.07833	-1.190211E-010	0.0117225	5
	55	80	3.158693	246181.9	-400387.9	1	470017	-58.41437	1.862896E-010	0.0117285	5
	56	84	2.504006	294965.8	-453312.5	1	540830	-56.94836	-2.185682E-010	0.0117238	5
	57	86	1.998082	345814.4	-508511.9	1	614956.9	-55.78228	9.138541E-011	0.0116803	5
	58	89	1.584686	400495.8	-573934.6	1	699855.6	-55.09238	-5.331214E-011	0.0117237	5
	59	93	1.266892	459366	-646989.1	1	793480.9	-54.62503	2.095824E-011	0.011678	5
	60	97	0.999041	528925.9	-738079	1	908032.6	-54.37367	7.255063E-012	0.011763	5
