EXPLAIN
TAG	EISPOT
TITLE	LABEL	Potentiostatic EIS	Test &Identifier
DATE	LABEL	10/26/2019	Date
TIME	LABEL	10:24:28	Time
NOTES	NOTES	1	&Notes...
	
PSTAT	PSTAT	REF600-11020	Potentiostat
VDC	POTEN	0.00000E+000	T	DC &Voltage (V)
FREQINIT	QUANT	1.00000E+006	Initial Fre&q. (Hz)
FREQFINAL	QUANT	1.00000E+000	Final Fre&q. (Hz)
PTSPERDEC	QUANT	1.00000E+001	Points/&decade
VAC	QUANT	2.50000E+001	AC &Voltage (mV rms)
AREA	QUANT	1.00000E-002	&Area (cm^2)
CONDIT	TWOPARAM	T	5.00000E+000	0.00000E+000	Conditionin&g	Time(s)	E(V)
DELAY	TWOPARAM	T	5.00000E+000	0.00000E+000	Init. De&lay	Time(s)	Stab.(mV/s)
SPEED	SELECTOR	0	&Optimize for:
ZGUESS	QUANT	1.00000E+005	E&stimated Z (ohms)
OCVCURVE	TABLE	19
	Pt	T	Vf	Vm	Ach	Over
	#	s	V vs. Ref.	V	V	bits
	0	0.258333	8.74409E-003	8.74409E-003	5.27000E-004	...........
	1	0.516667	8.72555E-003	7.77396E-003	5.25633E-004	...........
	2	0.775	8.61878E-003	7.22241E-003	5.30633E-004	...........
	3	1.03333	8.34391E-003	6.89266E-003	5.32333E-004	...........
	4	1.29167	7.91518E-003	6.63769E-003	5.30033E-004	...........
	5	1.55	7.44470E-003	6.51346E-003	5.28866E-004	...........
	6	1.80833	7.03970E-003	6.34203E-003	5.34933E-004	...........
	7	2.06667	6.73601E-003	6.07641E-003	5.29400E-004	...........
	8	2.325	6.50658E-003	5.88722E-003	5.34000E-004	...........
	9	2.58333	6.30716E-003	5.75963E-003	5.30733E-004	...........
	10	2.84167	6.11503E-003	5.53401E-003	5.31100E-004	...........
	11	3.1	5.92770E-003	5.36983E-003	5.30700E-004	...........
	12	3.35833	5.74590E-003	5.27111E-003	5.31000E-004	...........
	13	3.61667	5.57334E-003	5.14248E-003	5.28933E-004	...........
	14	3.875	5.41709E-003	5.02295E-003	5.29266E-004	...........
	15	4.13333	5.27945E-003	4.94905E-003	5.32366E-004	...........
	16	4.39167	5.15831E-003	4.87365E-003	5.34966E-004	...........
	17	4.65	5.05274E-003	4.80394E-003	5.34066E-004	...........
	18	4.90833	4.96171E-003	4.72929E-003	5.31600E-004	...........
EOC	QUANT	0.0049617	Open Circuit (V)
PSTATMODEL	IQUANT	4	Pstat Model
PSTATSECTION	LABEL	REF600-11020	Pstat Section
PSTATSERIALNO	LABEL	11020	Pstat Serial Number
CTRLMODE	IQUANT	1	Control Mode
IESTAB	IQUANT	0	I/E Stability
CASPEED	IQUANT	1	Control Amp Speed
CONVENTION	IQUANT	1	Current Convention
ICHRANGE	IQUANT	2	Ich Range
ICHRANGEMODE	TOGGLE	F	Ich Auto Range
ICHOFFSETENABLE	TOGGLE	T	Ich Offset Enable
ICHOFFSET	QUANT	0	Ich Offset (V)
ICHFILTER	IQUANT	3	Ich Filter
VCHRANGE	IQUANT	2	Vch Range
VCHRANGEMODE	TOGGLE	F	Vch Auto Range
VCHOFFSETENABLE	TOGGLE	T	Vch Offset Enable
VCHOFFSET	QUANT	0	Vch Offset (V)
VCHFILTER	IQUANT	3	Vch Filter
ACHRANGE	IQUANT	2	Ach Range
ACHOFFSETENABLE	TOGGLE	F	Ach Offset Enable
ACHOFFSET	QUANT	0	Ach Offset (V)
ACHFILTER	IQUANT	3	Ach Filter
IERANGELOWERLIMIT	IQUANT	1	I/E Range Lower Limit
IERANGEMODE	TOGGLE	F	I/E AutoRange
IERANGE	IQUANT	4	I/E Range
POSFEEDENABLE	TOGGLE	F	Positive Feedback IR Comp
POSFEEDRESISTANCE	QUANT	0	Positive Feedback Resistance (ohm)
ACHSELECT	IQUANT	0	Ach Select
CABLEID	IQUANT	14	Cable ID
DCCALDATE	LABEL	8/19/2019	DC Calibration Date
ACCALDATE	LABEL	8/19/2019	AC Calibration Date
THERMOSELECT	IQUANT	1	Thermo Select
FRAMEWORKVERSION	QUANT	6.33	Framework Version
INSTRUMENTVERSION	LABEL	3.50	Instrument Version
ZCURVE	TABLE
	Pt	Time	Freq	Zreal	Zimag	Zsig	Zmod	Zphz	Idc	Vdc	IERange
	#	s	Hz	ohm	ohm	V	ohm	°	A	V	#
	0	2	1000078	2396.776	-1683.893	1	2929.169	-35.09056	2.61534E-006	0.0067908	8
	1	2	794390.6	2704.62	-1634.962	1	3160.391	-31.15325	1.144979E-006	0.0065063	8
	2	2	630984.4	2997.212	-1552.643	1	3375.497	-27.38548	-3.86096E-006	0.0074613	8
	3	3	501234.4	3257.199	-1438.312	1	3560.63	-23.82526	4.044474E-006	0.0059673	8
	4	3	398109.4	3478.054	-1314.57	1	3718.193	-20.70466	-2.214852E-007	0.0066738	8
	5	3	316265.6	3653.629	-1198.898	1	3845.304	-18.16668	-9.313208E-007	0.0069442	8
	6	4	251203.1	3809.368	-1083.4	1	3960.434	-15.87597	2.952273E-006	0.0060699	8
	7	4	199546.9	3921.697	-985.011	1	4043.508	-14.0993	-9.611711E-007	0.0069216	8
	8	4	158578.1	4039.302	-906.4679	1	4139.764	-12.64831	-3.0246E-007	0.0064886	8
	9	5	125953.1	4126.181	-794.0663	1	4201.894	-10.89316	2.664457E-007	0.0054639	7
	10	5	100078.1	4206.52	-764.459	1	4275.418	-10.30006	-5.372843E-008	0.006652	7
	11	5	79453.13	4280.557	-753.0248	1	4346.287	-9.97724	-5.419253E-008	0.0066458	7
	12	6	63140.62	4355.188	-757.5645	1	4420.584	-9.8676	7.793642E-008	0.0064847	7
	13	6	50203.12	4431.095	-776.67	1	4498.646	-9.94166	-4.671967E-008	0.0066077	7
	14	6	39890.62	4508.501	-812.6035	1	4581.147	-10.21718	-3.345848E-008	0.0065494	7
	15	7	31640.63	4594.723	-862.436	1	4674.962	-10.6308	3.287869E-008	0.0065062	7
	16	7	25171.88	4684.068	-930.3583	1	4775.569	-11.23399	3.726523E-008	0.0064226	7
	17	7	20015.62	4791.653	-1007.444	1	4896.416	-11.87349	1.002559E-008	0.0064756	7
	18	8	15890.62	4893.843	-1115.065	1	5019.27	-12.83575	-1.644836E-008	0.0065708	7
	19	8	12609.37	5017.783	-1239.701	1	5168.656	-13.87767	9.82626E-008	0.0063957	7
	20	8	10078.13	5150.499	-1375.456	1	5330.996	-14.95208	-3.019085E-008	0.0065416	7
	21	8	8015.625	5310.07	-1540.201	1	5528.93	-16.17496	-1.210087E-008	0.0065126	7
	22	9	6328.125	5477.314	-1741.249	1	5747.428	-17.63557	5.033263E-008	0.006461	7
	23	9	5015.625	5671.907	-1968.803	1	6003.892	-19.14265	-1.151018E-008	0.006508	7
	24	9	3984.375	5889.14	-2226.418	1	6295.943	-20.70935	1.115589E-008	0.0064735	7
	25	10	3170.956	6139.83	-2518.757	1	6636.389	-22.30503	-1.185648E-008	0.0065078	7
	26	10	2527.573	6422.488	-2850.278	1	7026.553	-23.93148	7.891088E-008	0.0064728	7
	27	10	1976.103	6764.093	-3250.264	1	7504.477	-25.66509	3.463218E-008	0.0064976	7
	28	11	1577.524	7027.607	-3639.688	1	7914.202	-27.38022	-6.136246E-008	0.0066164	7
	29	11	1265.625	7462.878	-4126.847	1	8527.92	-28.94186	9.934509E-008	0.0063879	7
	30	11	998.264	7866.64	-4698.205	1	9162.813	-30.84698	-4.778874E-009	0.0065378	7
	31	12	796.875	8266.464	-5323.805	1	9832.46	-32.78252	-8.590373E-009	0.0065596	6
	32	12	627.7902	8681.411	-6131.755	1	10628.51	-35.23389	1.301734E-008	0.006246	6
	33	12	505.5147	9070.749	-7039.347	1	11481.76	-37.81322	-1.226015E-009	0.0063789	6
	34	13	397.9953	9494.596	-8280.722	1	12598.32	-41.09335	1.031309E-009	0.0064983	6
	35	13	315.5048	9923.42	-9804.35	1	13949.9	-44.65419	1.28748E-009	0.0064976	6
	36	13	252.4038	10368.52	-11637.52	1	15586.47	-48.30035	-7.29905E-012	0.0064938	6
	37	14	198.6229	10898.16	-14118.9	1	17835.73	-52.33602	5.525353E-010	0.0064981	6
	38	14	158.3615	11488.95	-17061.15	1	20568.88	-56.04374	9.531361E-010	0.0064926	6
	39	14	125.558	12230.44	-20806.27	1	24134.71	-59.55193	5.748246E-010	0.006493	6
	40	15	100.4464	13088.6	-25246.66	1	28437.74	-62.59647	1.619259E-009	0.0064915	6
	41	15	79.00281	14468.26	-31165.86	1	34360.46	-65.09766	1.050346E-010	0.0064894	6
	42	15	63.3446	15306.32	-37857.11	1	40834.35	-67.98563	9.645758E-010	0.0064906	6
	43	16	49.86702	17541.87	-46512.14	1	49710.13	-69.33624	8.107282E-010	0.0064888	6
	44	16	39.72458	20453.31	-57076.79	1	60630.84	-70.285	7.697084E-010	0.0064943	6
	45	16	31.6723	24017.43	-69486.97	1	73520.58	-70.93284	4.755636E-010	0.0064912	6
	46	17	24.93351	28509.31	-85103.17	1	89751.49	-71.47931	-1.224392E-012	0.0064853	6
	47	17	19.86229	34152.73	-103039.5	1	108552	-71.66208	-2.732698E-010	0.0064896	5
	48	17	15.83615	43216.32	-124624.8	1	131905.3	-70.87492	1.887513E-009	0.0064894	5
	49	17	12.40079	51595.31	-151585.6	1	160125.8	-71.20293	-5.438323E-010	0.0064922	5
	50	18	9.93114	62980.89	-182554.7	1	193113.4	-70.9657	1.076571E-010	0.0064963	5
	51	18	7.944915	77525.97	-217409.7	1	230818.6	-70.37431	3.675771E-010	0.0064886	5
	52	19	6.317385	96453	-259766.8	1	277095.6	-69.62973	2.526598E-010	0.0064879	5
	53	20	5.008013	120798.9	-310591.3	1	333255.7	-68.74735	1.671848E-010	0.0064846	5
	54	21	3.945707	149876	-372612.8	1	401625.7	-68.08853	3.285169E-010	0.0064993	5
	55	22	3.158693	185904.1	-437984.6	1	475805.5	-67.00103	-1.478054E-012	0.0064918	5
	56	24	2.504006	231569.6	-517831.2	1	567250.9	-65.90622	3.480219E-011	0.0064822	5
	57	25	1.998082	286191	-606372.4	1	670516.8	-64.73399	1.772005E-010	0.0065297	5
	58	27	1.584686	353032.1	-707927.8	1	791071.1	-63.49532	1.061962E-010	0.0065015	5
	59	29	1.266892	434282.3	-818549.6	1	926619.9	-62.05177	6.546204E-011	0.0064622	5
	60	31	0.999041	537980.3	-951887	1	1093395	-60.52607	5.650136E-011	0.0064474	4
