EXPLAIN
TAG	EISPOT
TITLE	LABEL	Potentiostatic EIS	Test &Identifier
DATE	LABEL	10/2/2019	Date
TIME	LABEL	10:33:23	Time
NOTES	NOTES	2	&Notes...
	
	
PSTAT	PSTAT	REF600-11020	Potentiostat
VDC	POTEN	0.00000E+000	T	DC &Voltage (V)
FREQINIT	QUANT	1.00000E+006	Initial Fre&q. (Hz)
FREQFINAL	QUANT	1.00000E+000	Final Fre&q. (Hz)
PTSPERDEC	QUANT	1.00000E+001	Points/&decade
VAC	QUANT	2.50000E+001	AC &Voltage (mV rms)
AREA	QUANT	1.00000E-002	&Area (cm^2)
CONDIT	TWOPARAM	T	5.00000E+000	0.00000E+000	Conditionin&g	Time(s)	E(V)
DELAY	TWOPARAM	T	5.00000E+000	0.00000E+000	Init. De&lay	Time(s)	Stab.(mV/s)
SPEED	SELECTOR	1	&Optimize for:
ZGUESS	QUANT	1.00000E+004	E&stimated Z (ohms)
OCVCURVE	TABLE	19
	Pt	T	Vf	Vm	Ach	Over
	#	s	V vs. Ref.	V	V	bits
	0	0.258333	6.06448E-003	6.06448E-003	5.68799E-004	...........
	1	0.516667	6.06215E-003	5.94213E-003	5.68432E-004	...........
	2	0.775	6.05002E-003	5.94246E-003	5.70166E-004	...........
	3	1.03333	6.02465E-003	6.02488E-003	5.71799E-004	...........
	4	1.29167	6.00203E-003	6.18881E-003	5.69899E-004	...........
	5	1.55	6.03043E-003	7.30018E-003	5.67766E-004	...........
	6	1.80833	6.21397E-003	8.82305E-003	5.65132E-004	...........
	7	2.06667	6.63183E-003	6.89278E-003	5.63366E-004	...........
	8	2.325	7.07870E-003	4.16409E-003	5.68832E-004	...........
	9	2.58333	7.07109E-003	3.78893E-003	5.64032E-004	...........
	10	2.84167	6.41534E-003	5.63126E-003	5.69899E-004	...........
	11	3.1	5.57257E-003	6.24694E-003	5.64466E-004	...........
	12	3.35833	5.16804E-003	6.54044E-003	5.66932E-004	...........
	13	3.61667	5.34880E-003	6.64227E-003	5.64466E-004	...........
	14	3.875	5.85903E-003	8.82702E-003	5.63866E-004	...........
	15	4.13333	6.49128E-003	7.90403E-003	5.61532E-004	...........
	16	4.39167	7.14002E-003	7.58532E-003	5.64266E-004	...........
	17	4.65	7.63458E-003	8.04658E-003	5.67599E-004	...........
	18	4.90833	7.88980E-003	9.02074E-003	5.65499E-004	...........
EOC	QUANT	0.0078898	Open Circuit (V)
PSTATMODEL	IQUANT	4	Pstat Model
PSTATSECTION	LABEL	REF600-11020	Pstat Section
PSTATSERIALNO	LABEL	11020	Pstat Serial Number
CTRLMODE	IQUANT	1	Control Mode
IESTAB	IQUANT	0	I/E Stability
CASPEED	IQUANT	1	Control Amp Speed
CONVENTION	IQUANT	1	Current Convention
ICHRANGE	IQUANT	2	Ich Range
ICHRANGEMODE	TOGGLE	F	Ich Auto Range
ICHOFFSETENABLE	TOGGLE	T	Ich Offset Enable
ICHOFFSET	QUANT	0	Ich Offset (V)
ICHFILTER	IQUANT	3	Ich Filter
VCHRANGE	IQUANT	2	Vch Range
VCHRANGEMODE	TOGGLE	F	Vch Auto Range
VCHOFFSETENABLE	TOGGLE	T	Vch Offset Enable
VCHOFFSET	QUANT	0	Vch Offset (V)
VCHFILTER	IQUANT	3	Vch Filter
ACHRANGE	IQUANT	2	Ach Range
ACHOFFSETENABLE	TOGGLE	F	Ach Offset Enable
ACHOFFSET	QUANT	0	Ach Offset (V)
ACHFILTER	IQUANT	3	Ach Filter
IERANGELOWERLIMIT	IQUANT	1	I/E Range Lower Limit
IERANGEMODE	TOGGLE	F	I/E AutoRange
IERANGE	IQUANT	6	I/E Range
POSFEEDENABLE	TOGGLE	F	Positive Feedback IR Comp
POSFEEDRESISTANCE	QUANT	0	Positive Feedback Resistance (ohm)
ACHSELECT	IQUANT	0	Ach Select
CABLEID	IQUANT	14	Cable ID
DCCALDATE	LABEL	8/19/2019	DC Calibration Date
ACCALDATE	LABEL	8/19/2019	AC Calibration Date
THERMOSELECT	IQUANT	1	Thermo Select
FRAMEWORKVERSION	QUANT	6.33	Framework Version
INSTRUMENTVERSION	LABEL	3.50	Instrument Version
ZCURVE	TABLE
	Pt	Time	Freq	Zreal	Zimag	Zsig	Zmod	Zphz	Idc	Vdc	IERange
	#	s	Hz	ohm	ohm	V	ohm	°	A	V	#
	0	1	1000078	2455.645	-1294.814	1	2776.101	-27.80181	3.727326E-006	0.0090433	8
	1	3	794390.6	2672.324	-1182.589	1	2922.299	-23.87091	-4.459432E-006	0.0107287	8
	2	4	630984.4	2853.231	-1043.433	1	3038.039	-20.08758	1.696389E-006	0.009711	8
	3	5	501234.4	2989.876	-909.1563	1	3125.048	-16.91338	-9.209795E-007	0.0095836	8
	4	7	398109.4	3106.416	-795.0728	1	3206.55	-14.3564	-7.437388E-007	0.0097403	8
	5	8	316265.6	3194.4	-694.7883	1	3269.086	-12.27083	-2.379077E-006	0.0102113	8
	6	9	251203.1	3255.159	-601.0276	1	3310.18	-10.46119	-1.061348E-006	0.0098425	8
	7	11	199546.9	3306.529	-534.062	1	3349.382	-9.175028	3.488066E-006	0.0089438	8
	8	12	158578.1	3350.952	-489.5412	1	3386.522	-8.311553	-9.361852E-007	0.0099155	8
	9	14	125953.1	3406.872	-407.4564	1	3431.151	-6.820089	-2.86038E-007	0.0098489	7
	10	15	100078.1	3437.968	-383.8719	1	3459.333	-6.371064	-9.76149E-009	0.0095949	7
	11	16	79453.13	3474.377	-375.6361	1	3494.624	-6.170628	-3.416795E-008	0.0095365	7
	12	18	63140.62	3511.685	-373.7912	1	3531.523	-6.075807	1.145492E-007	0.0093642	7
	13	19	50203.12	3551.312	-377.4284	1	3571.312	-6.066542	-6.845387E-008	0.0096172	7
	14	20	39890.62	3591.663	-386.8739	1	3612.439	-6.147879	5.631469E-008	0.0094252	7
	15	22	31640.63	3634.791	-401.2529	1	3656.872	-6.299505	-1.293537E-008	0.0095533	7
	16	23	25171.88	3677.458	-421.0141	1	3701.479	-6.531078	-1.437618E-008	0.0095476	7
	17	24	20015.62	3723.51	-447.1965	1	3750.268	-6.848465	-1.287285E-008	0.0095542	7
	18	26	15890.62	3770.55	-480.1951	1	3801.004	-7.257785	-1.174147E-008	0.009576	7
	19	27	12609.37	3819.928	-522.1592	1	3855.45	-7.783718	-5.61694E-008	0.0096008	7
	20	29	10078.13	3868.767	-571.8865	1	3910.807	-8.408649	-6.562385E-008	0.0097238	7
	21	30	8015.625	3922.044	-633.0146	1	3972.8	-9.168424	-5.525673E-008	0.0096214	7
	22	31	6328.125	3977.785	-714.8523	1	4041.508	-10.18794	-5.643815E-008	0.0096152	7
	23	33	5015.625	4036.019	-813.0375	1	4117.096	-11.38954	9.573943E-009	0.0096022	7
	24	34	3984.375	4097.784	-931.4689	1	4202.317	-12.80632	-6.721308E-008	0.0096052	7
	25	35	3170.956	4162.613	-1075.327	1	4299.265	-14.48454	-3.16848E-008	0.0095114	7
	26	37	2527.573	4231.223	-1253.61	1	4413.024	-16.50329	-3.195359E-008	0.0095151	7
	27	38	1976.103	4311.107	-1492.469	1	4562.138	-19.09542	1.732266E-009	0.009509	7
	28	39	1577.524	4391.222	-1762.278	1	4731.644	-21.8665	-3.202703E-008	0.0095091	7
	29	41	1265.625	4474.789	-2090.124	1	4938.862	-25.03676	-6.61848E-008	0.0097132	7
	30	42	998.264	4579.969	-2522.528	1	5228.696	-28.84483	3.79627E-008	0.0094704	7
	31	44	796.875	4693.047	-3035.659	1	5589.269	-32.89648	1.644735E-009	0.0095076	7
	32	45	627.7902	4837.902	-3708.2	1	6095.576	-37.46977	-1.280635E-008	0.0095381	7
	33	46	505.5147	4983.327	-4457.966	1	6686.33	-41.81506	-5.587874E-008	0.0096121	7
	34	48	397.9953	5201.506	-5475.257	1	7552.093	-46.46873	5.98871E-009	0.0095357	7
	35	49	315.5048	5453.269	-6699.417	1	8638.306	-50.8547	6.095147E-009	0.0095336	7
	36	50	252.4038	5754.67	-8142.256	1	9970.58	-54.74863	6.143537E-009	0.0095335	7
	37	52	198.6229	6167.092	-10045.19	1	11787.23	-58.45278	1.080886E-009	0.0094715	6
	38	53	158.3615	6664.131	-12257.51	1	13951.96	-61.46808	7.988919E-010	0.0094706	6
	39	54	125.558	7321.454	-15025.05	1	16713.94	-64.02081	1.215727E-009	0.0094702	6
	40	56	100.4464	8142.687	-18253.29	1	19987.14	-65.95863	1.015869E-009	0.0094721	6
	41	57	79.00281	9270.318	-22499.53	1	24334.5	-67.60722	6.322132E-010	0.0094663	6
	42	59	63.3446	10664.55	-27120.86	1	29142.3	-68.53411	7.586143E-010	0.0094701	6
	43	60	49.86702	12760.01	-33464.98	1	35815.12	-69.12843	2.969905E-010	0.0094629	6
	44	61	39.72458	15213.66	-40494.31	1	43257.88	-69.40887	1.450847E-009	0.0094683	6
	45	63	31.6723	18426.54	-48796.89	1	52160.08	-69.31261	1.510091E-009	0.0094633	6
	46	64	24.93351	23100.27	-59206.11	1	63553.02	-68.68591	1.2643E-009	0.0094649	6
	47	66	19.86229	28783.86	-70755.47	1	76386.17	-67.86314	5.547772E-010	0.0094612	6
	48	67	15.83615	35904.23	-83875.98	1	91237.56	-66.82601	1.037845E-009	0.0094647	6
	49	68	12.40079	45817.21	-100013.6	1	110008.8	-65.38702	4.959513E-010	0.0094664	5
	50	70	9.93114	57235.25	-115844.5	1	129212.3	-63.70742	5.913823E-010	0.0094646	5
	51	71	7.944915	70622.7	-133436.8	1	150973.3	-62.10954	1.054916E-009	0.0094706	5
	52	73	6.317385	86471.89	-153230.4	1	175945.8	-60.56283	5.276868E-010	0.0094879	5
	53	75	5.008013	104549.2	-175100.1	1	203937.7	-59.15933	5.68622E-010	0.0094807	5
	54	78	3.945707	125102.9	-200092.7	1	235982.6	-57.98536	-5.372671E-011	0.0094737	5
	55	80	3.158693	145287	-225372.8	1	268144	-57.19208	4.862193E-011	0.0094851	5
	56	84	2.504006	170083.7	-257579.3	1	308667.4	-56.56258	4.839393E-009	0.0094621	5
	57	86	1.998082	190691.5	-293276.8	1	349820.7	-56.96769	6.546766E-010	0.0095084	5
	58	89	1.584686	219373.9	-340914.3	1	405398	-57.23925	1.299732E-009	0.0094992	5
	59	93	1.266892	247344.7	-389929	1	461761.9	-57.61171	-1.910984E-009	0.0095176	5
	60	97	0.999041	273786.1	-455013	1	531032.6	-58.96424	6.571721E-010	0.0094415	5
