EXPLAIN
TAG	EISPOT
TITLE	LABEL	Potentiostatic EIS	Test &Identifier
DATE	LABEL	9/22/2019	Date
TIME	LABEL	10:08:15	Time
NOTES	NOTES	1	&Notes...
	
PSTAT	PSTAT	REF600-11020	Potentiostat
VDC	POTEN	0.00000E+000	T	DC &Voltage (V)
FREQINIT	QUANT	1.00000E+006	Initial Fre&q. (Hz)
FREQFINAL	QUANT	1.00000E+000	Final Fre&q. (Hz)
PTSPERDEC	QUANT	1.00000E+001	Points/&decade
VAC	QUANT	2.50000E+001	AC &Voltage (mV rms)
AREA	QUANT	1.00000E-002	&Area (cm^2)
CONDIT	TWOPARAM	T	5.00000E+000	0.00000E+000	Conditionin&g	Time(s)	E(V)
DELAY	TWOPARAM	T	5.00000E+000	0.00000E+000	Init. De&lay	Time(s)	Stab.(mV/s)
SPEED	SELECTOR	1	&Optimize for:
ZGUESS	QUANT	1.00000E+004	E&stimated Z (ohms)
OCVCURVE	TABLE	19
	Pt	T	Vf	Vm	Ach	Over
	#	s	V vs. Ref.	V	V	bits
	0	0.258333	-1.14030E-002	-1.14030E-002	5.66432E-004	...........
	1	0.516667	-1.14323E-002	-1.29390E-002	5.68966E-004	...........
	2	0.775	-1.16192E-002	-1.47461E-002	5.72599E-004	...........
	3	1.03333	-1.21604E-002	-1.59678E-002	5.65432E-004	...........
	4	1.29167	-1.31305E-002	-1.72095E-002	5.69432E-004	...........
	5	1.55	-1.43872E-002	-1.81858E-002	5.67232E-004	...........
	6	1.80833	-1.57062E-002	-1.91152E-002	5.64866E-004	...........
	7	2.06667	-1.69353E-002	-1.99579E-002	5.71166E-004	...........
	8	2.325	-1.80241E-002	-2.07040E-002	5.67166E-004	...........
	9	2.58333	-1.89813E-002	-2.13592E-002	5.67532E-004	...........
	10	2.84167	-1.98317E-002	-2.20753E-002	5.66466E-004	...........
	11	3.1	-2.06029E-002	-2.27966E-002	5.68999E-004	...........
	12	3.35833	-2.13270E-002	-2.34643E-002	5.68232E-004	...........
	13	3.61667	-2.20298E-002	-2.41295E-002	5.68266E-004	...........
	14	3.875	-2.27212E-002	-2.47695E-002	5.63299E-004	...........
	15	4.13333	-2.33995E-002	-2.53843E-002	5.69832E-004	...........
	16	4.39167	-2.40604E-002	-2.59736E-002	5.68099E-004	...........
	17	4.65	-2.47001E-002	-2.65245E-002	5.70399E-004	...........
	18	4.90833	-2.53155E-002	-2.70770E-002	5.68232E-004	...........
EOC	QUANT	-0.0253155	Open Circuit (V)
PSTATMODEL	IQUANT	4	Pstat Model
PSTATSECTION	LABEL	REF600-11020	Pstat Section
PSTATSERIALNO	LABEL	11020	Pstat Serial Number
CTRLMODE	IQUANT	1	Control Mode
IESTAB	IQUANT	0	I/E Stability
CASPEED	IQUANT	1	Control Amp Speed
CONVENTION	IQUANT	1	Current Convention
ICHRANGE	IQUANT	2	Ich Range
ICHRANGEMODE	TOGGLE	F	Ich Auto Range
ICHOFFSETENABLE	TOGGLE	T	Ich Offset Enable
ICHOFFSET	QUANT	0	Ich Offset (V)
ICHFILTER	IQUANT	3	Ich Filter
VCHRANGE	IQUANT	2	Vch Range
VCHRANGEMODE	TOGGLE	F	Vch Auto Range
VCHOFFSETENABLE	TOGGLE	T	Vch Offset Enable
VCHOFFSET	QUANT	0	Vch Offset (V)
VCHFILTER	IQUANT	3	Vch Filter
ACHRANGE	IQUANT	2	Ach Range
ACHOFFSETENABLE	TOGGLE	F	Ach Offset Enable
ACHOFFSET	QUANT	0	Ach Offset (V)
ACHFILTER	IQUANT	3	Ach Filter
IERANGELOWERLIMIT	IQUANT	1	I/E Range Lower Limit
IERANGEMODE	TOGGLE	F	I/E AutoRange
IERANGE	IQUANT	6	I/E Range
POSFEEDENABLE	TOGGLE	F	Positive Feedback IR Comp
POSFEEDRESISTANCE	QUANT	0	Positive Feedback Resistance (ohm)
ACHSELECT	IQUANT	0	Ach Select
CABLEID	IQUANT	14	Cable ID
DCCALDATE	LABEL	8/19/2019	DC Calibration Date
ACCALDATE	LABEL	8/19/2019	AC Calibration Date
THERMOSELECT	IQUANT	1	Thermo Select
FRAMEWORKVERSION	QUANT	6.33	Framework Version
INSTRUMENTVERSION	LABEL	3.50	Instrument Version
ZCURVE	TABLE
	Pt	Time	Freq	Zreal	Zimag	Zsig	Zmod	Zphz	Idc	Vdc	IERange
	#	s	Hz	ohm	ohm	V	ohm	°	A	V	#
	0	1	1000078	2405.94	-2008.605	1	3134.173	-39.85691	1.513883E-007	-0.0233718	8
	1	3	794390.6	2819.904	-1983.341	1	3447.536	-35.12011	4.63139E-007	-0.0233489	8
	2	4	630984.4	3223.063	-1906.113	1	3744.516	-30.59999	-3.863055E-006	-0.0226038	8
	3	5	501234.4	3557.933	-1747.674	1	3963.994	-26.16049	1.582944E-006	-0.0237684	8
	4	7	398109.4	3849.89	-1603.407	1	4170.439	-22.61081	-3.460829E-006	-0.0229736	8
	5	8	316265.6	4113.685	-1417.515	1	4351.063	-19.01319	2.606301E-006	-0.0242854	8
	6	9	251203.1	4263.087	-1222.829	1	4435	-16.00507	4.348469E-006	-0.0245513	8
	7	11	199546.9	4425.33	-1075.634	1	4554.177	-13.66155	-9.879715E-007	-0.0233541	8
	8	12	158578.1	4532.129	-922.6548	1	4625.093	-11.50707	-3.058341E-006	-0.0230519	8
	9	14	125953.1	4645.847	-753.2144	1	4706.509	-9.209029	3.39963E-007	-0.0250191	7
	10	15	100078.1	4697.683	-667.5948	1	4744.882	-8.08823	8.898859E-009	-0.0237889	7
	11	16	79453.13	4751.553	-604.6201	1	4789.866	-7.251735	1.258085E-007	-0.0239132	7
	12	18	63140.62	4798.494	-557.1748	1	4830.733	-6.623212	-6.277654E-008	-0.0236761	7
	13	19	50203.12	4843.921	-526.5338	1	4872.455	-6.203688	-1.53607E-008	-0.0237168	7
	14	20	39890.62	4885.097	-507.5333	1	4911.391	-5.931419	-3.365696E-008	-0.0236888	7
	15	22	31640.63	4926.765	-504.459	1	4952.523	-5.846229	-5.588965E-008	-0.0235679	7
	16	23	25171.88	4967.109	-513.6765	1	4993.6	-5.904287	8.498798E-009	-0.0238405	7
	17	25	20015.62	5012.291	-536.5571	1	5040.927	-6.110147	1.255851E-007	-0.0239282	7
	18	26	15890.62	5057.204	-571.799	1	5089.427	-6.450822	8.905666E-008	-0.023805	7
	19	27	12609.37	5104.626	-620.2637	1	5142.172	-6.928052	4.520848E-008	-0.0238068	7
	20	29	10078.13	5152.921	-683.0046	1	5197.989	-7.550376	1.114762E-008	-0.0238018	7
	21	30	8015.625	5209.093	-765.9445	1	5265.104	-8.364824	-3.635106E-008	-0.0237455	7
	22	31	6328.125	5267.918	-874.5886	1	5340.025	-9.426362	-6.264683E-008	-0.0236519	7
	23	33	5015.625	5330.139	-1006.281	1	5424.296	-10.69108	-5.460198E-008	-0.0235611	7
	24	34	3984.375	5400.14	-1169.015	1	5525.225	-12.21483	7.256846E-008	-0.0238694	7
	25	35	3170.956	5475.368	-1365.347	1	5643.033	-14.00182	-3.176607E-008	-0.0236923	7
	26	37	2527.573	5557.368	-1605.548	1	5784.646	-16.11424	9.71929E-009	-0.0238098	7
	27	38	1976.103	5659.907	-1928.967	1	5979.587	-18.81975	-6.087004E-008	-0.0236848	7
	28	40	1577.524	5768.01	-2291.062	1	6206.36	-21.66305	7.058928E-008	-0.0238703	7
	29	41	1265.625	5883.205	-2726.014	1	6484.077	-24.8609	7.061647E-008	-0.0238713	7
	30	42	998.264	6033.314	-3297.652	1	6875.71	-28.65987	1.159939E-008	-0.0238372	7
	31	44	796.875	6201.011	-3963.116	1	7359.268	-32.58297	-3.271136E-008	-0.0236899	7
	32	45	627.7902	6411.749	-4822.751	1	8023.058	-36.94954	8.493474E-008	-0.0239289	7
	33	46	505.5147	6634.981	-5774.347	1	8795.798	-41.03267	7.086182E-008	-0.023871	7
	34	48	397.9953	6921.656	-7063.388	1	9889.43	-45.58064	5.114604E-009	-0.0237363	7
	35	49	315.5048	7262.221	-8599.796	1	11255.95	-49.8201	2.047675E-009	-0.0237922	6
	36	50	252.4038	7648.663	-10408.28	1	12916.44	-53.6892	9.994547E-010	-0.023791	6
	37	52	198.6229	8154.049	-12799.93	1	15176.52	-57.5013	1.433513E-009	-0.0237887	6
	38	53	158.3615	8744.176	-15583.78	1	17869.38	-60.70289	1.058737E-009	-0.0237942	6
	39	55	125.558	9496.665	-19080.71	1	21313.38	-63.54	1.398896E-009	-0.0237927	6
	40	56	100.4464	10401.37	-23184.52	1	25410.84	-65.83736	9.2633E-010	-0.0237959	6
	41	57	79.00281	11657.55	-28651.66	1	30932.44	-67.85999	1.875841E-009	-0.023796	6
	42	59	63.3446	12990.42	-34538.43	1	36900.6	-69.38797	1.609968E-009	-0.0237986	6
	43	60	49.86702	15566.22	-42647.31	1	45399.34	-69.94798	1.897585E-009	-0.0238036	6
	44	62	39.72458	18066.79	-51966.28	1	55017.3	-70.82929	1.418814E-009	-0.0237945	6
	45	63	31.6723	21581.96	-63014.47	1	66607.84	-71.09407	1.324577E-009	-0.0237934	6
	46	64	24.93351	26271.44	-77037.79	1	81394.16	-71.16959	1.268563E-009	-0.0237959	6
	47	66	19.86229	32156.49	-93005.18	1	98407.3	-70.9272	8.728236E-010	-0.0237969	6
	48	67	15.83615	39595.98	-110897.2	1	117754.1	-70.35083	1.781025E-009	-0.0237917	5
	49	69	12.40079	50718.49	-136358.3	1	145485.2	-69.59731	2.29583E-010	-0.0237976	5
	50	70	9.93114	62908.9	-161001.8	1	172855.8	-68.65771	1.11037E-009	-0.0237945	5
	51	72	7.944915	77780.79	-189436.5	1	204782.9	-67.67742	2.878698E-010	-0.0237892	5
	52	73	6.317385	97942.8	-224369.2	1	244814.9	-66.41752	9.231598E-010	-0.0238004	5
	53	75	5.008013	122685.6	-264417	1	291492.9	-65.10939	7.470464E-010	-0.0237929	5
	54	78	3.945707	153253.7	-310757.8	1	346492.6	-63.74928	5.433244E-010	-0.0237977	5
	55	80	3.158693	188120.3	-358869.5	1	405187.1	-62.33635	9.569692E-010	-0.0237773	5
	56	84	2.504006	231451.7	-415665.7	1	475760.3	-60.88999	3.949459E-010	-0.0237867	5
	57	87	1.998082	280818.5	-475087.8	1	551876.3	-59.4132	7.693679E-010	-0.0238351	5
	58	90	1.584686	339115.3	-542024.9	1	639367	-57.96804	6.251289E-010	-0.0237668	5
	59	93	1.266892	404715.8	-615048.1	1	736260.2	-56.65416	5.906258E-010	-0.0238334	5
	60	98	0.999041	484159.7	-697259	1	848870.3	-55.22483	8.656161E-010	-0.0237492	5
