EXPLAIN
TAG	EISPOT
TITLE	LABEL	Potentiostatic EIS	Test &Identifier
DATE	LABEL	11/22/2019	Date
TIME	LABEL	10:53:52	Time
NOTES	NOTES	4	&Notes...
	
	
	
	
PSTAT	PSTAT	REF600-11020	Potentiostat
VDC	POTEN	0.00000E+000	T	DC &Voltage (V)
FREQINIT	QUANT	1.00000E+006	Initial Fre&q. (Hz)
FREQFINAL	QUANT	1.00000E+000	Final Fre&q. (Hz)
PTSPERDEC	QUANT	1.00000E+001	Points/&decade
VAC	QUANT	2.50000E+001	AC &Voltage (mV rms)
AREA	QUANT	1.00000E-002	&Area (cm^2)
CONDIT	TWOPARAM	T	5.00000E+000	0.00000E+000	Conditionin&g	Time(s)	E(V)
DELAY	TWOPARAM	T	5.00000E+000	0.00000E+000	Init. De&lay	Time(s)	Stab.(mV/s)
SPEED	SELECTOR	0	&Optimize for:
ZGUESS	QUANT	1.00000E+005	E&stimated Z (ohms)
OCVCURVE	TABLE	19
	Pt	T	Vf	Vm	Ach	Over
	#	s	V vs. Ref.	V	V	bits
	0	0.258333	3.21293E-002	3.21293E-002	5.69932E-004	...........
	1	0.516667	3.21785E-002	3.47056E-002	5.72299E-004	...........
	2	0.775	3.24799E-002	3.71050E-002	5.67799E-004	...........
	3	1.03333	3.33290E-002	3.93643E-002	5.64566E-004	...........
	4	1.29167	3.48389E-002	4.15056E-002	5.67166E-004	...........
	5	1.55	3.68307E-002	4.35349E-002	5.64332E-004	...........
	6	1.80833	3.90194E-002	4.54745E-002	5.62932E-004	...........
	7	2.06667	4.11997E-002	4.73252E-002	5.64699E-004	...........
	8	2.325	4.32832E-002	4.91009E-002	5.59599E-004	...........
	9	2.58333	4.52547E-002	5.08113E-002	5.70999E-004	...........
	10	2.84167	4.71270E-002	5.24641E-002	5.67932E-004	...........
	11	3.1	4.89166E-002	5.40545E-002	5.67666E-004	...........
	12	3.35833	5.06361E-002	5.55975E-002	5.65066E-004	...........
	13	3.61667	5.22932E-002	5.70850E-002	5.70166E-004	...........
	14	3.875	5.38931E-002	5.85309E-002	5.71132E-004	...........
	15	4.13333	5.54399E-002	5.99406E-002	5.68432E-004	...........
	16	4.39167	5.69376E-002	6.13096E-002	5.68599E-004	...........
	17	4.65	5.83906E-002	6.26405E-002	5.67299E-004	...........
	18	4.90833	5.98025E-002	6.39403E-002	5.70566E-004	...........
EOC	QUANT	0.0598025	Open Circuit (V)
PSTATMODEL	IQUANT	4	Pstat Model
PSTATSECTION	LABEL	REF600-11020	Pstat Section
PSTATSERIALNO	LABEL	11020	Pstat Serial Number
CTRLMODE	IQUANT	1	Control Mode
IESTAB	IQUANT	0	I/E Stability
CASPEED	IQUANT	1	Control Amp Speed
CONVENTION	IQUANT	1	Current Convention
ICHRANGE	IQUANT	2	Ich Range
ICHRANGEMODE	TOGGLE	F	Ich Auto Range
ICHOFFSETENABLE	TOGGLE	T	Ich Offset Enable
ICHOFFSET	QUANT	0	Ich Offset (V)
ICHFILTER	IQUANT	3	Ich Filter
VCHRANGE	IQUANT	2	Vch Range
VCHRANGEMODE	TOGGLE	F	Vch Auto Range
VCHOFFSETENABLE	TOGGLE	T	Vch Offset Enable
VCHOFFSET	QUANT	0	Vch Offset (V)
VCHFILTER	IQUANT	3	Vch Filter
ACHRANGE	IQUANT	2	Ach Range
ACHOFFSETENABLE	TOGGLE	F	Ach Offset Enable
ACHOFFSET	QUANT	0	Ach Offset (V)
ACHFILTER	IQUANT	3	Ach Filter
IERANGELOWERLIMIT	IQUANT	1	I/E Range Lower Limit
IERANGEMODE	TOGGLE	F	I/E AutoRange
IERANGE	IQUANT	6	I/E Range
POSFEEDENABLE	TOGGLE	F	Positive Feedback IR Comp
POSFEEDRESISTANCE	QUANT	0	Positive Feedback Resistance (ohm)
ACHSELECT	IQUANT	0	Ach Select
CABLEID	IQUANT	14	Cable ID
DCCALDATE	LABEL	8/19/2019	DC Calibration Date
ACCALDATE	LABEL	8/19/2019	AC Calibration Date
THERMOSELECT	IQUANT	1	Thermo Select
FRAMEWORKVERSION	QUANT	6.33	Framework Version
INSTRUMENTVERSION	LABEL	3.50	Instrument Version
ZCURVE	TABLE
	Pt	Time	Freq	Zreal	Zimag	Zsig	Zmod	Zphz	Idc	Vdc	IERange
	#	s	Hz	ohm	ohm	V	ohm	°	A	V	#
	0	1	1000078	1825.837	-808.2261	1	1996.725	-23.87708	-3.877431E-006	0.0625274	8
	1	1	794390.6	1946.914	-769.7322	1	2093.552	-21.57187	4.36942E-007	0.061106	8
	2	2	630984.4	2059.521	-732.9048	1	2186.042	-19.5887	-5.081127E-007	0.0619173	8
	3	2	501234.4	2165.696	-697.5103	1	2275.25	-17.8523	-5.081542E-006	0.0617204	8
	4	2	398109.4	2265.018	-651.4454	1	2356.838	-16.04585	-3.882889E-007	0.0617191	8
	5	3	316265.6	2351.333	-625.3652	1	2433.074	-14.89372	1.969618E-006	0.0615398	8
	6	3	251203.1	2430.546	-593.6853	1	2502.002	-13.7263	-2.589824E-006	0.0611589	8
	7	3	199546.9	2504.064	-572.7474	1	2568.731	-12.88348	-2.426618E-006	0.0611742	8
	8	4	158578.1	2570.503	-554.2261	1	2629.572	-12.16728	6.862969E-006	0.0605081	8
	9	4	125953.1	2654.365	-498.3923	1	2700.75	-10.63423	-8.611494E-007	0.0621203	7
	10	4	100078.1	2720.347	-500.8237	1	2766.064	-10.43151	9.326106E-007	0.0605293	7
	11	5	79453.13	2774.422	-515.1739	1	2821.847	-10.51927	-5.408746E-007	0.0626805	7
	12	5	63140.62	2838.444	-538.3084	1	2889.038	-10.73856	5.890279E-007	0.06135	7
	13	5	50203.12	2904.156	-563.984	1	2958.412	-10.98999	5.892201E-007	0.0613453	7
	14	6	39890.62	2968.418	-594.6614	1	3027.396	-11.32808	-1.130378E-006	0.0622699	7
	15	6	31640.63	3042.773	-633.6851	1	3108.058	-11.76421	-9.953958E-007	0.0627338	7
	16	6	25171.88	3123.583	-681.0869	1	3196.975	-12.30063	3.969252E-007	0.0597455	7
	17	6	20015.62	3207.667	-730.4824	1	3289.792	-12.82918	9.343E-007	0.0605241	7
	18	7	15890.62	3289.047	-794.7004	1	3383.693	-13.58348	-7.006979E-007	0.061134	7
	19	7	12609.37	3379.757	-864.7806	1	3488.639	-14.35238	-1.131939E-006	0.0622688	7
	20	7	10078.13	3477.444	-956.873	1	3606.692	-15.38507	6.709485E-007	0.0596281	7
	21	8	8015.625	3573.662	-1056.296	1	3726.503	-16.46652	-9.850038E-007	0.0617518	7
	22	8	6328.125	3685.368	-1188.266	1	3872.198	-17.87078	-9.964929E-007	0.0627315	7
	23	8	5015.625	3818.6	-1346.621	1	4049.086	-19.42508	9.734053E-007	0.0598651	7
	24	9	3984.375	3948.94	-1525.477	1	4233.344	-21.12156	3.99774E-007	0.0597412	7
	25	9	3170.956	4098.044	-1729.682	1	4448.119	-22.88339	-3.179832E-007	0.0605	7
	26	9	2527.573	4272.842	-1977.685	1	4708.335	-24.83706	1.001947E-006	0.0601405	7
	27	10	1976.103	4469.631	-2281.3	1	5018.16	-27.03977	6.718079E-007	0.0596221	7
	28	10	1577.524	4670.684	-2601.455	1	5346.294	-29.11672	8.638357E-007	0.0596803	7
	29	10	1265.625	4870.727	-2998.982	1	5719.954	-31.62125	9.745039E-007	0.0598652	7
	30	11	998.264	5090.767	-3491.551	1	6173.074	-34.44465	-2.341646E-007	0.0624284	7
	31	11	796.875	5334.203	-4080.92	1	6716.221	-37.41772	6.715017E-007	0.059621	7
	32	11	627.7902	5610.457	-4849.054	1	7415.561	-40.83648	7.797513E-007	0.0609556	7
	33	12	505.5147	5883.835	-5698.5	1	8190.996	-44.08326	3.988885E-007	0.0616295	7
	34	12	397.9953	6250.59	-6859.834	1	9280.475	-47.66063	-3.607067E-009	0.0612391	7
	35	13	315.5048	6691.458	-8254.823	1	10626.27	-50.97136	-3.344259E-009	0.0611741	6
	36	13	252.4038	7213.684	-9890.58	1	12241.77	-53.8949	-3.680264E-009	0.061174	6
	37	13	198.6229	7929.179	-12022.59	1	14401.9	-56.59422	-3.441915E-009	0.0611812	6
	38	14	158.3615	8798.636	-14455.41	1	16922.61	-58.6722	-3.32731E-009	0.0611714	6
	39	14	125.558	9936.88	-17438.81	1	20071.22	-60.3249	-3.493559E-009	0.0611766	6
	40	14	100.4464	11318.94	-20847.26	1	23721.86	-61.50043	-3.06457E-009	0.0611786	6
	41	15	79.00281	13205.91	-25140.67	1	28398.05	-62.28792	-2.873465E-009	0.0611756	6
	42	15	63.3446	15771.6	-29707.18	1	33634.21	-62.03608	-3.340035E-009	0.0611711	6
	43	15	49.86702	18788.58	-35614.67	1	40266.8	-62.18604	-4.535261E-009	0.0611789	6
	44	16	39.72458	22204.9	-41955.13	1	47468.84	-62.1098	-3.251115E-009	0.0611769	6
	45	16	31.6723	26559.21	-49091.66	1	55815.61	-61.58605	-3.601271E-009	0.0611717	6
	46	16	24.93351	32369.05	-57702.21	1	66161.17	-60.709	-2.327718E-009	0.0611709	6
	47	17	19.86229	38792.52	-66814.88	1	77259.87	-59.86068	-1.604756E-009	0.0611696	6
	48	17	15.83615	45857.3	-76472.42	1	89167.95	-59.05065	-3.75128E-009	0.0611768	6
	49	17	12.40079	55081.22	-89228.09	1	104859.9	-58.31263	-3.77624E-009	0.0611738	5
	50	17	9.93114	64588.14	-100815	1	119730.1	-57.35393	-4.472509E-009	0.0611864	5
	51	18	7.944915	74673.05	-114622.6	1	136800.6	-56.917	-3.760029E-009	0.0611838	5
	52	19	6.317385	85912.15	-131312.5	1	156919.9	-56.80499	-3.357487E-009	0.0611865	5
	53	19	5.008013	98049.3	-151288	1	180282.4	-57.05285	-3.445182E-009	0.0611679	5
	54	20	3.945707	111693	-175358.6	1	207908.5	-57.50528	-3.131776E-009	0.061175	5
	55	22	3.158693	125600.4	-202836.5	1	238575.2	-58.23339	-3.062554E-009	0.0612106	5
	56	23	2.504006	142662.7	-237733.5	1	277254.1	-59.03224	-3.273479E-009	0.0611854	5
	57	24	1.998082	160886.7	-277659.1	1	320903.6	-59.91029	-2.989326E-009	0.0611974	5
	58	26	1.584686	183793.4	-328242.2	1	376195.3	-60.75413	-2.776096E-009	0.0612287	5
	59	28	1.266892	209318.9	-386930.1	1	439919.6	-61.58779	-2.743159E-009	0.0612082	5
	60	30	0.999041	242607.9	-460281.6	1	520305.4	-62.20692	-2.703339E-009	0.0611815	5
