EXPLAIN
TAG	EISPOT
TITLE	LABEL	Potentiostatic IDE	Test &Identifier
DATE	LABEL	9/6/2019	Date
TIME	LABEL	9:00:06	Time
NOTES	NOTES	1	&Notes...
	
PSTAT	PSTAT	REF600-11020	Potentiostat
VDC	POTEN	0.00000E+000	T	DC &Voltage (V)
FREQINIT	QUANT	1.00000E+006	Initial Fre&q. (Hz)
FREQFINAL	QUANT	1.00000E+000	Final Fre&q. (Hz)
PTSPERDEC	QUANT	1.00000E+001	Points/&decade
VAC	QUANT	2.50000E+001	AC &Voltage (mV rms)
AREA	QUANT	1.00000E-002	&Area (cm^2)
CONDIT	TWOPARAM	T	5.00000E+000	0.00000E+000	Conditionin&g	Time(s)	E(V)
DELAY	TWOPARAM	T	5.00000E+000	0.00000E+000	Init. De&lay	Time(s)	Stab.(mV/s)
SPEED	SELECTOR	1	&Optimize for:
ZGUESS	QUANT	1.00000E+007	E&stimated Z (ohms)
OCVCURVE	TABLE	19
	Pt	T	Vf	Vm	Ach	Over
	#	s	V vs. Ref.	V	V	bits
	0	0.258333	6.38758E-003	6.38758E-003	5.43466E-004	...........
	1	0.516667	6.38536E-003	6.27149E-003	5.38166E-004	...........
	2	0.775	6.37210E-003	6.18004E-003	5.39899E-004	...........
	3	1.03333	6.33621E-003	6.11609E-003	5.42833E-004	...........
	4	1.29167	6.27628E-003	6.05480E-003	5.47033E-004	...........
	5	1.55	6.20389E-003	6.01029E-003	5.39166E-004	...........
	6	1.80833	6.13288E-003	5.97238E-003	5.45499E-004	...........
	7	2.06667	6.07110E-003	5.93822E-003	5.43066E-004	...........
	8	2.325	6.02027E-003	5.91107E-003	5.44966E-004	...........
	9	2.58333	5.97904E-003	5.89788E-003	5.39066E-004	...........
	10	2.84167	5.94578E-003	5.87357E-003	5.45099E-004	...........
	11	3.1	5.91904E-003	5.85977E-003	5.38433E-004	...........
	12	3.35833	5.89711E-003	5.84785E-003	5.39733E-004	...........
	13	3.61667	5.87863E-003	5.83762E-003	5.46899E-004	...........
	14	3.875	5.86319E-003	5.83395E-003	5.43466E-004	...........
	15	4.13333	5.85081E-003	5.82827E-003	5.40733E-004	...........
	16	4.39167	5.84139E-003	5.82341E-003	5.46099E-004	...........
	17	4.65	5.83443E-003	5.82372E-003	5.46966E-004	...........
	18	4.90833	5.82944E-003	5.82676E-003	5.46266E-004	...........
EOC	QUANT	0.0058294	Open Circuit (V)
PSTATMODEL	IQUANT	4	Pstat Model
PSTATSECTION	LABEL	REF600-11020	Pstat Section
PSTATSERIALNO	LABEL	11020	Pstat Serial Number
CTRLMODE	IQUANT	1	Control Mode
IESTAB	IQUANT	0	I/E Stability
CASPEED	IQUANT	1	Control Amp Speed
CONVENTION	IQUANT	1	Current Convention
ICHRANGE	IQUANT	2	Ich Range
ICHRANGEMODE	TOGGLE	F	Ich Auto Range
ICHOFFSETENABLE	TOGGLE	T	Ich Offset Enable
ICHOFFSET	QUANT	0	Ich Offset (V)
ICHFILTER	IQUANT	3	Ich Filter
VCHRANGE	IQUANT	2	Vch Range
VCHRANGEMODE	TOGGLE	F	Vch Auto Range
VCHOFFSETENABLE	TOGGLE	T	Vch Offset Enable
VCHOFFSET	QUANT	0	Vch Offset (V)
VCHFILTER	IQUANT	3	Vch Filter
ACHRANGE	IQUANT	2	Ach Range
ACHOFFSETENABLE	TOGGLE	F	Ach Offset Enable
ACHOFFSET	QUANT	0	Ach Offset (V)
ACHFILTER	IQUANT	3	Ach Filter
IERANGELOWERLIMIT	IQUANT	1	I/E Range Lower Limit
IERANGEMODE	TOGGLE	F	I/E AutoRange
IERANGE	IQUANT	3	I/E Range
POSFEEDENABLE	TOGGLE	F	Positive Feedback IR Comp
POSFEEDRESISTANCE	QUANT	0	Positive Feedback Resistance (ohm)
ACHSELECT	IQUANT	0	Ach Select
CABLEID	IQUANT	14	Cable ID
DCCALDATE	LABEL	8/19/2019	DC Calibration Date
ACCALDATE	LABEL	8/19/2019	AC Calibration Date
THERMOSELECT	IQUANT	1	Thermo Select
FRAMEWORKVERSION	QUANT	6.33	Framework Version
INSTRUMENTVERSION	LABEL	3.50	Instrument Version
ZCURVE	TABLE
	Pt	Time	Freq	Zreal	Zimag	Zsig	Zmod	Zphz	Idc	Vdc	IERange
	#	s	Hz	ohm	ohm	V	ohm	°	A	V	#
	0	2	1000078	2314.123	-1734.954	1	2892.27	-36.85978	-1.582583E-007	0.0076963	8
	1	3	794390.6	2669.257	-1669.158	1	3148.177	-32.01884	6.1692E-007	0.0075924	8
	2	4	630984.4	2988.071	-1546.472	1	3364.542	-27.36377	-2.488713E-006	0.008108	8
	3	6	501234.4	3252.042	-1389.484	1	3536.445	-23.13532	3.716168E-006	0.0069505	8
	4	7	398109.4	3468.199	-1211.6	1	3673.742	-19.25663	-8.438063E-007	0.0075967	8
	5	8	316265.6	3614.476	-1042.585	1	3761.837	-16.09005	4.082673E-007	0.0073485	8
	6	10	251203.1	3728.842	-901.2051	1	3836.2	-13.58698	1.314009E-006	0.0070818	8
	7	11	199546.9	3817.307	-780.4371	1	3896.27	-11.55472	3.279098E-007	0.0073391	8
	8	12	158578.1	3883.111	-672.6306	1	3940.937	-9.82723	2.342504E-006	0.0069927	8
	9	14	125953.1	3955.034	-557.599	1	3994.147	-8.024933	-1.42238E-007	0.0075043	7
	10	15	100078.1	3991.178	-495.6078	1	4021.832	-7.078516	-2.326487E-008	0.0074823	7
	11	16	79453.13	4026.395	-455.8503	1	4052.117	-6.459266	-2.607152E-008	0.0074175	7
	12	18	63140.62	4063.926	-426.649	1	4086.261	-5.993211	-5.670312E-009	0.0074153	7
	13	19	50203.12	4095.5	-413.6761	1	4116.34	-5.767738	-1.535757E-008	0.0073903	7
	14	20	39890.62	4126.64	-411.2433	1	4147.081	-5.691063	3.790124E-008	0.0073733	7
	15	22	31640.63	4157.7	-416.6202	1	4178.521	-5.722193	-3.830916E-008	0.0074436	7
	16	23	25171.88	4193.542	-436.4371	1	4216.192	-5.941589	-2.414937E-008	0.0074053	7
	17	24	20015.62	4226.919	-461.5659	1	4252.045	-6.231822	7.322793E-008	0.0072722	7
	18	26	15890.62	4266.402	-505.7054	1	4296.269	-6.759845	-8.600407E-009	0.0074156	7
	19	27	12609.37	4303.676	-562.455	1	4340.274	-7.445885	-3.096515E-009	0.0074104	7
	20	28	10078.13	4342.86	-627.6226	1	4387.978	-8.223351	-8.868511E-010	0.0074111	7
	21	30	8015.625	4385.398	-718.0129	1	4443.789	-9.298427	2.941258E-008	0.0073054	7
	22	31	6328.125	4437.989	-834.1006	1	4515.692	-10.64432	-2.250859E-008	0.0074131	7
	23	32	5015.625	4490.12	-974.932	1	4594.743	-12.25038	-2.201942E-008	0.0074177	7
	24	34	3984.375	4550.324	-1149.919	1	4693.375	-14.18237	1.353387E-008	0.0073394	7
	25	35	3170.956	4616.584	-1362.347	1	4813.402	-16.44125	4.939344E-008	0.00729	7
	26	36	2527.573	4692.505	-1622.668	1	4965.145	-19.07538	3.94874E-008	0.0073884	7
	27	38	1976.103	4787.708	-1969.083	1	5176.818	-22.35633	3.150974E-008	0.0072999	7
	28	39	1577.524	4891.952	-2361.685	1	5432.196	-25.76983	-4.168537E-009	0.0074018	7
	29	40	1265.625	5012.715	-2827.752	1	5755.302	-29.42803	7.703626E-008	0.0072701	7
	30	42	998.264	5171.486	-3441.865	1	6212.142	-33.64561	-3.907567E-009	0.0074044	7
	31	43	796.875	5344.473	-4148.5	1	6765.607	-37.81942	-9.708386E-009	0.0074678	7
	32	44	627.7902	5576.731	-5061.804	1	7531.387	-42.22892	1.561392E-009	0.0073516	7
	33	46	505.5147	5825.55	-6070.202	1	8413.346	-46.1782	4.842579E-008	0.0072778	7
	34	47	397.9953	6161.083	-7423.046	1	9646.79	-50.30753	4.460701E-009	0.0073969	7
	35	48	315.5048	6557.582	-9024.815	1	11155.68	-53.99722	1.020046E-009	0.007336	6
	36	50	252.4038	7013.008	-10893.85	1	12956.01	-57.22824	9.336193E-010	0.00734	6
	37	51	198.6229	7602.23	-13338.13	1	15352.52	-60.3185	9.232897E-010	0.0073403	6
	38	52	158.3615	8273.739	-16160.75	1	18155.57	-62.88914	1.024354E-009	0.0073371	6
	39	54	125.558	9103.913	-19691.88	1	21694.5	-65.18804	8.441414E-010	0.0073384	6
	40	55	100.4464	10088.45	-23822.42	1	25870.54	-67.04806	6.184678E-010	0.007338	6
	41	56	79.00281	11393.62	-29268.56	1	31408.01	-68.73012	7.936691E-010	0.0073299	6
	42	58	63.3446	12800.47	-35329.93	1	37577.33	-70.08392	6.564129E-010	0.0073354	6
	43	59	49.86702	14973.59	-43516.32	1	46020.41	-71.0121	3.270744E-010	0.0073341	6
	44	60	39.72458	17377.13	-52879.64	1	55661.66	-71.80862	8.480353E-010	0.0073417	6
	45	62	31.6723	20594.79	-64256.64	1	67476.38	-72.22891	3.559263E-010	0.0073388	6
	46	63	24.93351	24885.79	-78736.46	1	82575.62	-72.46011	7.255561E-010	0.0073375	6
	47	64	19.86229	30265.84	-95393.8	1	100079.9	-72.39719	9.130627E-010	0.007342	6
	48	66	15.83615	37283.85	-114977.5	1	120871.5	-72.03364	7.01726E-010	0.0073349	5
	49	67	12.40079	47044.24	-140628.5	1	148288.7	-71.50344	-1.104313E-010	0.0073447	5
	50	68	9.93114	58269.55	-168456.6	1	178249.7	-70.91936	3.484935E-010	0.0073396	5
	51	70	7.944915	72762.06	-200832.6	1	213607.2	-70.08444	6.204103E-012	0.0073443	5
	52	72	6.317385	91566.01	-239672.3	1	256568	-69.09081	3.693716E-011	0.0073555	5
	53	73	5.008013	115847	-285139.3	1	307774.2	-67.88898	6.126925E-011	0.0073347	5
	54	76	3.945707	146850.4	-338201.2	1	368707.3	-66.52901	3.471461E-010	0.0073512	5
	55	78	3.158693	182178.4	-395860.9	1	435769.3	-65.28773	-4.554211E-011	0.0073321	5
	56	81	2.504006	227734.3	-462077.3	1	515148.8	-63.76366	4.238513E-010	0.0073359	5
	57	84	1.998082	279259.7	-534264.4	1	602847	-62.40395	-7.350314E-011	0.0073674	5
	58	87	1.584686	342654.5	-617051.9	1	705808.2	-60.95619	2.474789E-010	0.0073852	5
	59	91	1.266892	412977	-704446.6	1	816575.2	-59.61933	-1.045784E-010	0.0073655	5
	60	95	0.999041	497654.2	-807150.4	1	948235.9	-58.3438	3.179799E-010	0.0073524	5
