EXPLAIN
TAG	EISPOT
TITLE	LABEL	Potentiostatic EIS	Test &Identifier
DATE	LABEL	9/24/2019	Date
TIME	LABEL	8:44:55	Time
NOTES	NOTES	1	&Notes...
	
PSTAT	PSTAT	REF600-11020	Potentiostat
VDC	POTEN	0.00000E+000	T	DC &Voltage (V)
FREQINIT	QUANT	1.00000E+006	Initial Fre&q. (Hz)
FREQFINAL	QUANT	1.00000E+000	Final Fre&q. (Hz)
PTSPERDEC	QUANT	1.00000E+001	Points/&decade
VAC	QUANT	2.50000E+001	AC &Voltage (mV rms)
AREA	QUANT	1.00000E-002	&Area (cm^2)
CONDIT	TWOPARAM	T	5.00000E+000	0.00000E+000	Conditionin&g	Time(s)	E(V)
DELAY	TWOPARAM	T	5.00000E+000	0.00000E+000	Init. De&lay	Time(s)	Stab.(mV/s)
SPEED	SELECTOR	1	&Optimize for:
ZGUESS	QUANT	1.00000E+004	E&stimated Z (ohms)
OCVCURVE	TABLE	19
	Pt	T	Vf	Vm	Ach	Over
	#	s	V vs. Ref.	V	V	bits
	0	0.258333	-1.67407E-002	-1.67407E-002	5.42733E-004	...........
	1	0.516667	-1.67665E-002	-1.80893E-002	5.45933E-004	...........
	2	0.775	-1.69243E-002	-1.93469E-002	5.44733E-004	...........
	3	1.03333	-1.73688E-002	-2.05225E-002	5.43733E-004	...........
	4	1.29167	-1.81586E-002	-2.16338E-002	5.45599E-004	...........
	5	1.55	-1.91988E-002	-2.26774E-002	5.44166E-004	...........
	6	1.80833	-2.03386E-002	-2.36741E-002	5.45399E-004	...........
	7	2.06667	-2.14694E-002	-2.46177E-002	5.46366E-004	...........
	8	2.325	-2.25448E-002	-2.55186E-002	5.42566E-004	...........
	9	2.58333	-2.35569E-002	-2.63794E-002	5.35833E-004	...........
	10	2.84167	-2.45126E-002	-2.72019E-002	5.35499E-004	...........
	11	3.1	-2.54201E-002	-2.79967E-002	5.40199E-004	...........
	12	3.35833	-2.62862E-002	-2.87577E-002	5.43666E-004	...........
	13	3.61667	-2.71156E-002	-2.94843E-002	5.47466E-004	...........
	14	3.875	-2.79112E-002	-3.01868E-002	5.41433E-004	...........
	15	4.13333	-2.86748E-002	-3.08642E-002	5.38699E-004	...........
	16	4.39167	-2.94083E-002	-3.15177E-002	5.44266E-004	...........
	17	4.65	-3.01140E-002	-3.21465E-002	5.41899E-004	...........
	18	4.90833	-3.07939E-002	-3.27586E-002	5.45999E-004	...........
EOC	QUANT	-0.0307939	Open Circuit (V)
PSTATMODEL	IQUANT	4	Pstat Model
PSTATSECTION	LABEL	REF600-11020	Pstat Section
PSTATSERIALNO	LABEL	11020	Pstat Serial Number
CTRLMODE	IQUANT	1	Control Mode
IESTAB	IQUANT	0	I/E Stability
CASPEED	IQUANT	1	Control Amp Speed
CONVENTION	IQUANT	1	Current Convention
ICHRANGE	IQUANT	2	Ich Range
ICHRANGEMODE	TOGGLE	F	Ich Auto Range
ICHOFFSETENABLE	TOGGLE	T	Ich Offset Enable
ICHOFFSET	QUANT	0	Ich Offset (V)
ICHFILTER	IQUANT	3	Ich Filter
VCHRANGE	IQUANT	2	Vch Range
VCHRANGEMODE	TOGGLE	F	Vch Auto Range
VCHOFFSETENABLE	TOGGLE	T	Vch Offset Enable
VCHOFFSET	QUANT	0	Vch Offset (V)
VCHFILTER	IQUANT	3	Vch Filter
ACHRANGE	IQUANT	2	Ach Range
ACHOFFSETENABLE	TOGGLE	F	Ach Offset Enable
ACHOFFSET	QUANT	0	Ach Offset (V)
ACHFILTER	IQUANT	3	Ach Filter
IERANGELOWERLIMIT	IQUANT	1	I/E Range Lower Limit
IERANGEMODE	TOGGLE	F	I/E AutoRange
IERANGE	IQUANT	6	I/E Range
POSFEEDENABLE	TOGGLE	F	Positive Feedback IR Comp
POSFEEDRESISTANCE	QUANT	0	Positive Feedback Resistance (ohm)
ACHSELECT	IQUANT	0	Ach Select
CABLEID	IQUANT	14	Cable ID
DCCALDATE	LABEL	8/19/2019	DC Calibration Date
ACCALDATE	LABEL	8/19/2019	AC Calibration Date
THERMOSELECT	IQUANT	1	Thermo Select
FRAMEWORKVERSION	QUANT	6.33	Framework Version
INSTRUMENTVERSION	LABEL	3.50	Instrument Version
ZCURVE	TABLE
	Pt	Time	Freq	Zreal	Zimag	Zsig	Zmod	Zphz	Idc	Vdc	IERange
	#	s	Hz	ohm	ohm	V	ohm	°	A	V	#
	0	1	1000078	2033.684	-1787.015	1	2707.267	-41.30603	2.868918E-006	-0.0289898	8
	1	3	794390.6	2391.94	-1839.431	1	3017.43	-37.56071	5.100719E-006	-0.0299304	8
	2	4	630984.4	2746.174	-1830.281	1	3300.212	-33.68281	-4.743847E-006	-0.0281781	8
	3	6	501234.4	3081.834	-1773.42	1	3555.66	-29.91797	1.229533E-006	-0.0289115	8
	4	7	398109.4	3416.737	-1695.238	1	3814.174	-26.38863	4.006696E-007	-0.0289716	8
	5	9	316265.6	3680.298	-1558.324	1	3996.619	-22.94893	3.598545E-006	-0.0298107	8
	6	10	251203.1	3955.656	-1410.231	1	4199.52	-19.62166	1.273026E-006	-0.02952	8
	7	11	199546.9	4159.306	-1277.159	1	4350.973	-17.06965	3.487444E-006	-0.0297966	8
	8	13	158578.1	4309.184	-1143.408	1	4458.301	-14.86054	-1.930925E-006	-0.0287853	8
	9	14	125953.1	4478.376	-969.754	1	4582.169	-12.21827	-2.221904E-007	-0.0285394	7
	10	16	100078.1	4574.292	-866.2462	1	4655.591	-10.72328	-1.723908E-008	-0.0291993	7
	11	17	79453.13	4666.25	-784.9059	1	4731.804	-9.54829	-4.279568E-008	-0.0290504	7
	12	19	63140.62	4743.289	-712.6265	1	4796.522	-8.544151	-1.6182E-009	-0.0291532	7
	13	20	50203.12	4809.18	-658.5977	1	4854.067	-7.797918	-1.366597E-009	-0.0291598	7
	14	21	39890.62	4866.882	-614.864	1	4905.568	-7.200391	-2.577718E-009	-0.0292429	7
	15	23	31640.63	4923.898	-596.9959	1	4959.957	-6.91306	1.33319E-007	-0.0293858	7
	16	24	25171.88	4975.077	-587.9465	1	5009.698	-6.739861	-1.669526E-008	-0.0292109	7
	17	25	20015.62	5026.241	-593.8728	1	5061.204	-6.738511	-4.041879E-008	-0.0290572	7
	18	27	15890.62	5075.96	-612.6257	1	5112.796	-6.881833	-4.284569E-008	-0.029111	7
	19	28	12609.37	5129.988	-649.5856	1	5170.952	-7.216681	4.161581E-008	-0.029251	7
	20	29	10078.13	5185.547	-698.9969	1	5232.447	-7.677032	1.329626E-007	-0.0293899	7
	21	31	8015.625	5241.033	-767.1271	1	5296.877	-8.32722	-3.885452E-008	-0.0290596	7
	22	32	6328.125	5303.297	-858.7988	1	5372.383	-9.198442	1.822355E-008	-0.0292771	7
	23	34	5015.625	5366.286	-972.906	1	5453.766	-10.27608	1.839547E-008	-0.0292802	7
	24	35	3984.375	5433.69	-1115.581	1	5547.027	-11.60207	-6.373532E-009	-0.0290785	7
	25	36	3170.956	5507.07	-1294.144	1	5657.086	-13.22438	-3.778876E-008	-0.0290635	7
	26	38	2527.573	5587.534	-1507.811	1	5787.402	-15.10171	-3.12785E-008	-0.0291895	7
	27	39	1976.103	5686.92	-1800.586	1	5965.164	-17.56877	1.821418E-008	-0.0292835	7
	28	40	1577.524	5790.156	-2136.178	1	6171.642	-20.25067	4.30632E-008	-0.0292542	7
	29	42	1265.625	5902.971	-2524.227	1	6420.03	-23.15251	7.462155E-008	-0.0293302	7
	30	43	998.264	6049.617	-3040.324	1	6770.63	-26.68249	4.405245E-008	-0.0293377	7
	31	45	796.875	6211.729	-3641.199	1	7200.271	-30.37803	-6.430864E-008	-0.0290974	7
	32	46	627.7902	6409.284	-4422.284	1	7786.881	-34.60493	4.448566E-008	-0.0292514	7
	33	47	505.5147	6626.917	-5292.694	1	8481.075	-38.61318	1.338598E-007	-0.0293979	7
	34	49	397.9953	6909.983	-6460.871	1	9459.953	-43.07622	9.002983E-009	-0.0291877	7
	35	50	315.5048	7247.452	-7861.395	1	10692.38	-47.32691	3.615686E-009	-0.0292433	6
	36	51	252.4038	7646	-9513.59	1	12205.31	-51.21142	3.108694E-009	-0.0292513	6
	37	53	198.6229	8183.102	-11689.2	1	14268.87	-55.00581	3.943799E-009	-0.0292474	6
	38	54	158.3615	8842.667	-14210.68	1	16737.27	-58.10786	3.23312E-009	-0.0292451	6
	39	55	125.558	9706.47	-17345.74	1	19876.88	-60.76916	3.810151E-009	-0.0292522	6
	40	57	100.4464	10823.01	-21003.12	1	23627.71	-62.73774	4.160229E-009	-0.0292514	6
	41	58	79.00281	12373.75	-25676.59	1	28502.58	-64.27022	4.003457E-009	-0.029252	6
	42	60	63.3446	14237.11	-30620.33	1	33768.32	-65.06364	3.223924E-009	-0.0292536	6
	43	61	49.86702	16972.84	-37840.92	1	41473.04	-65.84226	3.528654E-009	-0.0292512	6
	44	62	39.72458	20091.59	-45300.12	1	49555.75	-66.08167	3.711878E-009	-0.0292485	6
	45	64	31.6723	24126.87	-53960.8	1	59109	-65.9097	4.214231E-009	-0.0292507	6
	46	65	24.93351	29827.34	-64831.29	1	71363.63	-65.29396	3.915399E-009	-0.0292533	6
	47	67	19.86229	36648.57	-76658.53	1	84968.52	-64.44868	3.637239E-009	-0.0292527	6
	48	68	15.83615	44396.7	-90413.4	1	100725.6	-63.84706	5.180676E-009	-0.0292509	6
	49	69	12.40079	56134.6	-105287.4	1	119316.9	-61.93542	3.437386E-009	-0.0292462	5
	50	71	9.93114	68673.26	-122534.5	1	140466.1	-60.73198	3.146464E-009	-0.0292492	5
	51	72	7.944915	83785.46	-140347.1	1	163454.3	-59.16332	3.051057E-009	-0.0292467	5
	52	74	6.317385	100835.2	-160634.9	1	189661	-57.88232	2.68448E-009	-0.0292559	5
	53	76	5.008013	121657.8	-183164.7	1	219886.2	-56.40793	2.38091E-009	-0.0292551	5
	54	79	3.945707	146178.8	-208140.1	1	254343.4	-54.91926	2.927927E-009	-0.0292511	5
	55	81	3.158693	172561.4	-233659.7	1	290472.5	-53.55355	2.795626E-009	-0.0292526	5
	56	85	2.504006	202901.5	-262474.9	1	331756.1	-52.29482	2.305169E-009	-0.0292459	5
	57	87	1.998082	235261.9	-292257.7	1	375183.5	-51.1666	2.948123E-009	-0.0292936	5
	58	91	1.584686	271961.3	-326795	1	425156.3	-50.23252	2.415871E-009	-0.0292414	5
	59	94	1.266892	312305.6	-363409.1	1	479166.9	-49.32498	2.594541E-009	-0.0292895	5
	60	99	0.999041	358243.3	-405852.8	1	541345.3	-48.56539	2.857466E-009	-0.0292089	5
