EXPLAIN
TAG	EISPOT
TITLE	LABEL	Potentiostatic EIS	Test &Identifier
DATE	LABEL	6/20/2000	Date
TIME	LABEL	9:24:24	Time
NOTES	NOTES	2	&Notes...
	
	
PSTAT	PSTAT	REF600-11020	Potentiostat
VDC	POTEN	0.00000E+000	T	DC &Voltage (V)
FREQINIT	QUANT	1.00000E+006	Initial Fre&q. (Hz)
FREQFINAL	QUANT	1.00000E+000	Final Fre&q. (Hz)
PTSPERDEC	QUANT	1.00000E+001	Points/&decade
VAC	QUANT	2.50000E+001	AC &Voltage (mV rms)
AREA	QUANT	1.00000E-002	&Area (cm^2)
CONDIT	TWOPARAM	T	5.00000E+000	0.00000E+000	Conditionin&g	Time(s)	E(V)
DELAY	TWOPARAM	T	5.00000E+000	0.00000E+000	Init. De&lay	Time(s)	Stab.(mV/s)
SPEED	SELECTOR	0	&Optimize for:
ZGUESS	QUANT	1.00000E+005	E&stimated Z (ohms)
OCVCURVE	TABLE	19
	Pt	T	Vf	Vm	Ach	Over
	#	s	V vs. Ref.	V	V	bits
	0	0.258333	5.67760E-003	5.67760E-003	5.45766E-004	...........
	1	0.516667	5.67665E-003	5.62814E-003	5.47666E-004	...........
	2	0.775	5.67114E-003	5.59631E-003	5.48299E-004	...........
	3	1.03333	5.65660E-003	5.57137E-003	5.46633E-004	...........
	4	1.29167	5.63298E-003	5.55119E-003	5.45833E-004	...........
	5	1.55	5.60532E-003	5.53755E-003	5.47466E-004	...........
	6	1.80833	5.57919E-003	5.52438E-003	5.44999E-004	...........
	7	2.06667	5.55756E-003	5.51934E-003	5.52432E-004	...........
	8	2.325	5.54102E-003	5.51366E-003	5.50566E-004	...........
	9	2.58333	5.52912E-003	5.51319E-003	5.44866E-004	...........
	10	2.84167	5.52107E-003	5.50922E-003	5.54166E-004	...........
	11	3.1	5.51597E-003	5.51237E-003	5.52699E-004	...........
	12	3.35833	5.51303E-003	5.51170E-003	5.50466E-004	...........
	13	3.61667	5.51171E-003	5.51270E-003	5.48166E-004	...........
	14	3.875	5.51150E-003	5.51315E-003	5.46333E-004	...........
	15	4.13333	5.51191E-003	5.51574E-003	5.48566E-004	...........
	16	4.39167	5.51275E-003	5.51896E-003	5.44999E-004	...........
	17	4.65	5.51403E-003	5.51732E-003	5.51733E-004	...........
	18	4.90833	5.51561E-003	5.52095E-003	5.46933E-004	...........
EOC	QUANT	0.0055156	Open Circuit (V)
PSTATMODEL	IQUANT	4	Pstat Model
PSTATSECTION	LABEL	REF600-11020	Pstat Section
PSTATSERIALNO	LABEL	11020	Pstat Serial Number
CTRLMODE	IQUANT	1	Control Mode
IESTAB	IQUANT	0	I/E Stability
CASPEED	IQUANT	1	Control Amp Speed
CONVENTION	IQUANT	1	Current Convention
ICHRANGE	IQUANT	2	Ich Range
ICHRANGEMODE	TOGGLE	F	Ich Auto Range
ICHOFFSETENABLE	TOGGLE	T	Ich Offset Enable
ICHOFFSET	QUANT	0	Ich Offset (V)
ICHFILTER	IQUANT	3	Ich Filter
VCHRANGE	IQUANT	2	Vch Range
VCHRANGEMODE	TOGGLE	F	Vch Auto Range
VCHOFFSETENABLE	TOGGLE	T	Vch Offset Enable
VCHOFFSET	QUANT	0	Vch Offset (V)
VCHFILTER	IQUANT	3	Vch Filter
ACHRANGE	IQUANT	2	Ach Range
ACHOFFSETENABLE	TOGGLE	F	Ach Offset Enable
ACHOFFSET	QUANT	0	Ach Offset (V)
ACHFILTER	IQUANT	3	Ach Filter
IERANGELOWERLIMIT	IQUANT	1	I/E Range Lower Limit
IERANGEMODE	TOGGLE	F	I/E AutoRange
IERANGE	IQUANT	5	I/E Range
POSFEEDENABLE	TOGGLE	F	Positive Feedback IR Comp
POSFEEDRESISTANCE	QUANT	0	Positive Feedback Resistance (ohm)
ACHSELECT	IQUANT	0	Ach Select
CABLEID	IQUANT	14	Cable ID
DCCALDATE	LABEL	8/19/2019	DC Calibration Date
ACCALDATE	LABEL	8/19/2019	AC Calibration Date
THERMOSELECT	IQUANT	1	Thermo Select
FRAMEWORKVERSION	QUANT	6.33	Framework Version
INSTRUMENTVERSION	LABEL	3.50	Instrument Version
ZCURVE	TABLE
	Pt	Time	Freq	Zreal	Zimag	Zsig	Zmod	Zphz	Idc	Vdc	IERange
	#	s	Hz	ohm	ohm	V	ohm	°	A	V	#
	0	1	1000078	2019.339	-1368.321	1	2439.269	-34.12191	-4.020268E-006	0.0083305	8
	1	1	794390.6	2242.589	-1403.72	1	2645.682	-32.04398	9.604096E-006	0.0058588	8
	2	2	630984.4	2481.038	-1434.089	1	2865.686	-30.02876	-6.715296E-006	0.007918	8
	3	2	501234.4	2716.703	-1452.493	1	3080.619	-28.13132	-4.333111E-006	0.0075502	8
	4	2	398109.4	2975.377	-1459.833	1	3314.209	-26.13432	-1.364482E-006	0.0068454	8
	5	3	316265.6	3221.876	-1440.489	1	3529.234	-24.08924	-6.456687E-006	0.0080124	8
	6	3	251203.1	3482.07	-1389.6	1	3749.106	-21.75561	-3.61681E-006	0.00765	8
	7	3	199546.9	3728.807	-1326.128	1	3957.603	-19.57763	-6.239868E-006	0.007981	8
	8	3	158578.1	3956.341	-1204.703	1	4135.691	-16.93546	-1.443096E-006	0.007515	8
	9	4	125953.1	4175.291	-1080.96	1	4312.949	-14.51488	7.207458E-007	0.0093169	7
	10	4	100078.1	4298.421	-947.6168	1	4401.637	-12.43239	-6.57467E-007	0.008758	7
	11	4	79453.13	4455.605	-851.8769	1	4536.311	-10.82388	1.101628E-006	0.0062294	7
	12	5	63140.62	4525.922	-745.5438	1	4586.917	-9.354185	-8.043182E-007	0.0068842	7
	13	5	50203.12	4599.752	-667.7802	1	4647.973	-8.260344	-1.321673E-006	0.0082151	7
	14	5	39890.62	4664.039	-599.2184	1	4702.374	-7.321044	-8.036916E-007	0.0068778	7
	15	6	31640.63	4743.161	-553.6058	1	4775.359	-6.657249	1.170821E-006	0.0054186	7
	16	6	25171.88	4759.884	-517.4966	1	4787.933	-6.204851	-1.182235E-006	0.0087817	7
	17	6	20015.62	4822.479	-500.4475	1	4848.375	-5.924601	1.171765E-006	0.0054174	7
	18	7	15890.62	4827.955	-495.4837	1	4853.313	-5.859641	-1.32987E-006	0.0086166	7
	19	7	12609.37	4855.232	-507.0475	1	4881.636	-5.96197	-8.023836E-007	0.006872	7
	20	7	10078.13	4917.771	-541.46	1	4947.489	-6.283113	4.381855E-007	0.0075684	7
	21	8	8015.625	4917.516	-589.467	1	4952.72	-6.835481	-1.139536E-006	0.007599	7
	22	8	6328.125	4967.163	-662.093	1	5011.095	-7.592429	-6.56759E-007	0.0087364	7
	23	8	5015.625	5019.892	-759.6227	1	5077.041	-8.604858	1.169816E-006	0.0054149	7
	24	9	3984.375	5036.641	-878.7934	1	5112.732	-9.89734	-9.60177E-007	0.0088367	7
	25	9	3170.956	5086.481	-1036.802	1	5191.074	-11.52105	-6.585452E-007	0.008735	7
	26	9	2527.573	5121.416	-1226.586	1	5266.252	-13.46871	-1.142252E-006	0.0075998	7
	27	10	1976.103	5189.352	-1485.421	1	5397.763	-15.97345	-9.605973E-007	0.0088327	7
	28	10	1577.524	5261.084	-1788.128	1	5556.654	-18.77178	-3.520691E-007	0.0061264	7
	29	10	1265.625	5331.676	-2140.969	1	5745.478	-21.87825	-1.181688E-006	0.0087734	7
	30	10	998.264	5442.511	-2633.258	1	6046.071	-25.81916	6.797985E-007	0.0072049	7
	31	11	796.875	5548.962	-3192.067	1	6401.583	-29.90987	9.113871E-007	0.0067491	7
	32	11	627.7902	5680.837	-3924.696	1	6904.719	-34.63927	6.757476E-007	0.0072081	7
	33	12	505.5147	5817.06	-4730.832	1	7497.93	-39.12037	9.591396E-008	0.0080388	7
	34	12	397.9953	6015.527	-5831.957	1	8378.441	-44.1123	3.630727E-009	0.0070364	7
	35	12	315.5048	6253.347	-7165.999	1	9510.83	-48.8907	1.248694E-009	0.0070432	7
	36	13	252.4038	6545.437	-8745.231	1	10923.45	-53.1867	-3.003597E-010	0.0069861	6
	37	13	198.6229	6939.017	-10835.74	1	12867.14	-57.36522	4.523027E-010	0.0069771	6
	38	13	158.3615	7423.523	-13270.89	1	15206.09	-60.77804	-5.439194E-010	0.0069833	6
	39	13	125.558	8063.341	-16327.29	1	18209.83	-63.71724	5.821383E-010	0.0069755	6
	40	14	100.4464	8856.364	-19933.79	1	21812.64	-66.04494	-1.543734E-010	0.006969	6
	41	14	79.00281	9948.56	-24656.94	1	26588.32	-68.02696	-3.892874E-010	0.0069829	6
	42	14	63.3446	11620.89	-29799.95	1	31985.66	-68.69603	2.951185E-010	0.0069789	6
	43	15	49.86702	13584.46	-36801.41	1	39228.58	-69.73945	1.134989E-009	0.0069733	6
	44	15	39.72458	15866.78	-44834.31	1	47559.12	-70.51122	7.316172E-010	0.0069788	6
	45	16	31.6723	19126.9	-54473.38	1	57733.76	-70.65261	-1.718159E-010	0.0069824	6
	46	16	24.93351	23903.08	-66389.58	1	70561.55	-70.19896	5.792127E-010	0.0069727	6
	47	16	19.86229	29801.32	-79757.5	1	85143.27	-69.51184	1.07199E-009	0.006976	6
	48	16	15.83615	37157.9	-95663.7	1	102626.7	-68.77272	-5.163785E-010	0.0069798	6
	49	17	12.40079	48340.03	-115608.3	1	125307.7	-67.30841	-3.231179E-010	0.0069858	5
	50	17	9.93114	60322.73	-134713.3	1	147602.5	-65.87782	5.429261E-010	0.0069756	5
	51	18	7.944915	75752.94	-156521.9	1	173889.7	-64.17411	1.244735E-009	0.0069803	5
	52	18	6.317385	94864.57	-181645.7	1	204925.5	-62.42416	8.69301E-010	0.0069661	5
	53	19	5.008013	118108.1	-209460.7	1	240464.8	-60.58276	4.761143E-010	0.0069725	5
	54	20	3.945707	144669	-239767.8	1	280031.6	-58.89442	9.499865E-011	0.0069878	5
	55	22	3.158693	173091.5	-270412.9	1	321066.7	-57.37666	-2.347824E-010	0.0069668	5
	56	23	2.504006	205463.8	-305122	1	367851.6	-56.04436	1.376035E-010	0.0069646	5
	57	25	1.998082	238059.8	-343142.7	1	417635.4	-55.24851	1.227095E-010	0.0069844	5
	58	26	1.584686	275087.8	-386867.9	1	474700	-54.58474	-8.4572E-011	0.0069327	5
	59	28	1.266892	313247.3	-437995	1	538482.6	-54.42823	-1.210157E-010	0.0069235	5
	60	31	0.999041	355869.1	-502232	1	615532.1	-54.67956	-1.331135E-010	0.0069385	5
