EXPLAIN
TAG	EISPOT
TITLE	LABEL	Potentiostatic EIS	Test &Identifier
DATE	LABEL	11/20/2019	Date
TIME	LABEL	11:33:51	Time
NOTES	NOTES	4	&Notes...
	
	
	
	
PSTAT	PSTAT	REF600-11020	Potentiostat
VDC	POTEN	0.00000E+000	T	DC &Voltage (V)
FREQINIT	QUANT	1.00000E+006	Initial Fre&q. (Hz)
FREQFINAL	QUANT	1.00000E+000	Final Fre&q. (Hz)
PTSPERDEC	QUANT	1.00000E+001	Points/&decade
VAC	QUANT	2.50000E+001	AC &Voltage (mV rms)
AREA	QUANT	1.00000E-002	&Area (cm^2)
CONDIT	TWOPARAM	T	5.00000E+000	0.00000E+000	Conditionin&g	Time(s)	E(V)
DELAY	TWOPARAM	T	5.00000E+000	0.00000E+000	Init. De&lay	Time(s)	Stab.(mV/s)
SPEED	SELECTOR	1	&Optimize for:
ZGUESS	QUANT	1.00000E+005	E&stimated Z (ohms)
OCVCURVE	TABLE	19
	Pt	T	Vf	Vm	Ach	Over
	#	s	V vs. Ref.	V	V	bits
	0	0.258333	7.61629E-004	7.61629E-004	5.29200E-004	...........
	1	0.516667	7.52046E-004	2.60008E-004	5.28933E-004	...........
	2	0.775	6.93703E-004	-1.89245E-004	5.25600E-004	...........
	3	1.03333	5.30677E-004	-6.01758E-004	5.32700E-004	...........
	4	1.29167	2.43963E-004	-9.87922E-004	5.30466E-004	...........
	5	1.55	-1.31322E-004	-1.46291E-003	5.34466E-004	...........
	6	1.80833	-5.47426E-004	-1.86344E-003	5.33766E-004	...........
	7	2.06667	-9.73662E-004	-2.15511E-003	5.31733E-004	...........
	8	2.325	-1.39014E-003	-2.57350E-003	5.36533E-004	...........
	9	2.58333	-1.78782E-003	-3.04132E-003	5.38166E-004	...........
	10	2.84167	-2.17307E-003	-3.20478E-003	5.37633E-004	...........
	11	3.1	-2.54454E-003	-3.40302E-003	5.34366E-004	...........
	12	3.35833	-2.87934E-003	-3.64433E-003	5.35066E-004	...........
	13	3.61667	-3.16223E-003	-3.86606E-003	5.29066E-004	...........
	14	3.875	-3.40500E-003	-4.07245E-003	5.33966E-004	...........
	15	4.13333	-3.62753E-003	-4.24399E-003	5.32233E-004	...........
	16	4.39167	-3.83792E-003	-4.37823E-003	5.32066E-004	...........
	17	4.65	-4.03276E-003	-4.51480E-003	5.34833E-004	...........
	18	4.90833	-4.20867E-003	-4.72803E-003	5.35033E-004	...........
EOC	QUANT	-0.0042087	Open Circuit (V)
PSTATMODEL	IQUANT	4	Pstat Model
PSTATSECTION	LABEL	REF600-11020	Pstat Section
PSTATSERIALNO	LABEL	11020	Pstat Serial Number
CTRLMODE	IQUANT	1	Control Mode
IESTAB	IQUANT	0	I/E Stability
CASPEED	IQUANT	1	Control Amp Speed
CONVENTION	IQUANT	1	Current Convention
ICHRANGE	IQUANT	2	Ich Range
ICHRANGEMODE	TOGGLE	F	Ich Auto Range
ICHOFFSETENABLE	TOGGLE	T	Ich Offset Enable
ICHOFFSET	QUANT	0	Ich Offset (V)
ICHFILTER	IQUANT	3	Ich Filter
VCHRANGE	IQUANT	2	Vch Range
VCHRANGEMODE	TOGGLE	F	Vch Auto Range
VCHOFFSETENABLE	TOGGLE	T	Vch Offset Enable
VCHOFFSET	QUANT	0	Vch Offset (V)
VCHFILTER	IQUANT	3	Vch Filter
ACHRANGE	IQUANT	2	Ach Range
ACHOFFSETENABLE	TOGGLE	F	Ach Offset Enable
ACHOFFSET	QUANT	0	Ach Offset (V)
ACHFILTER	IQUANT	3	Ach Filter
IERANGELOWERLIMIT	IQUANT	1	I/E Range Lower Limit
IERANGEMODE	TOGGLE	F	I/E AutoRange
IERANGE	IQUANT	4	I/E Range
POSFEEDENABLE	TOGGLE	F	Positive Feedback IR Comp
POSFEEDRESISTANCE	QUANT	0	Positive Feedback Resistance (ohm)
ACHSELECT	IQUANT	0	Ach Select
CABLEID	IQUANT	14	Cable ID
DCCALDATE	LABEL	8/19/2019	DC Calibration Date
ACCALDATE	LABEL	8/19/2019	AC Calibration Date
THERMOSELECT	IQUANT	1	Thermo Select
FRAMEWORKVERSION	QUANT	6.33	Framework Version
INSTRUMENTVERSION	LABEL	3.50	Instrument Version
ZCURVE	TABLE
	Pt	Time	Freq	Zreal	Zimag	Zsig	Zmod	Zphz	Idc	Vdc	IERange
	#	s	Hz	ohm	ohm	V	ohm	°	A	V	#
	0	2	1000078	2419.531	-2098.104	1	3202.526	-40.93029	-1.215532E-005	-0.0008214	8
	1	3	794390.6	2851.957	-2098.408	1	3540.759	-36.34483	6.516169E-006	-0.002885	8
	2	4	630984.4	3273.028	-2006.893	1	3839.314	-31.515	-2.178683E-006	-0.0028509	8
	3	6	501234.4	3661.585	-1849.974	1	4102.391	-26.80466	-5.741786E-006	-0.0017575	8
	4	7	398109.4	3965.497	-1672.673	1	4303.835	-22.87034	4.394821E-006	-0.0027404	8
	5	8	316265.6	4212.385	-1473.405	1	4462.635	-19.27878	-8.555746E-007	-0.0029997	8
	6	10	251203.1	4411.178	-1276.663	1	4592.206	-16.14126	-2.229319E-006	-0.0028332	8
	7	11	199546.9	4538.377	-1095.337	1	4668.687	-13.56884	5.399773E-006	-0.003399	8
	8	12	158578.1	4619.464	-933.3528	1	4712.812	-11.42271	6.290004E-006	-0.0034465	8
	9	14	125953.1	4772.797	-778.3206	1	4835.843	-9.261942	-1.137058E-006	-0.0015748	7
	10	15	100078.1	4829.885	-679.5004	1	4877.449	-8.008194	-1.085805E-006	-0.0011834	7
	11	16	79453.13	4890.21	-608.9001	1	4927.973	-7.097602	1.082522E-006	-0.0038854	7
	12	18	63140.62	4938.854	-552.8039	1	4969.695	-6.386511	7.778271E-007	-0.0045358	7
	13	19	50203.12	4977.582	-515.1578	1	5004.169	-5.908823	3.708935E-007	-0.0022393	7
	14	21	39890.62	5012.091	-488.5471	1	5035.845	-5.567245	-1.198847E-006	-0.0017302	7
	15	22	31640.63	5052.272	-478.8719	1	5074.917	-5.414516	-2.945769E-007	-0.0036386	7
	16	23	25171.88	5090.437	-482.4041	1	5113.244	-5.413567	-2.927282E-007	-0.0036394	7
	17	25	20015.62	5127	-502.5293	1	5151.569	-5.598037	-2.944659E-007	-0.0036376	7
	18	26	15890.62	5162.954	-529.022	1	5189.986	-5.850394	-8.902862E-007	-0.0011275	7
	19	27	12609.37	5204.666	-573.1592	1	5236.13	-6.284324	-2.996526E-007	-0.0014424	7
	20	29	10078.13	5250.107	-634.4001	1	5288.297	-6.889967	9.754336E-007	-0.0044498	7
	21	30	8015.625	5292.829	-712.3491	1	5340.551	-7.665239	5.927847E-007	-0.0025562	7
	22	31	6328.125	5341.788	-815.9106	1	5403.74	-8.684301	5.934488E-007	-0.0025566	7
	23	33	5015.625	5394.924	-945.3433	1	5477.124	-9.93894	1.085336E-006	-0.0038866	7
	24	34	3984.375	5452.804	-1105.473	1	5563.734	-11.46052	9.994151E-007	-0.0034705	7
	25	35	3170.956	5508.991	-1303.503	1	5661.104	-13.31214	5.741641E-008	-0.0018212	7
	26	37	2527.573	5582.896	-1548.356	1	5793.628	-15.50078	9.746476E-007	-0.0044477	7
	27	38	1976.103	5662.653	-1877.728	1	5965.862	-18.34545	-1.026203E-006	-0.0022862	7
	28	39	1577.524	5749.895	-2249.702	1	6174.338	-21.3684	-8.889062E-007	-0.0011283	7
	29	41	1265.625	5876.151	-2689.281	1	6462.305	-24.59169	5.716951E-008	-0.0018266	7
	30	42	998.264	6017.125	-3275.65	1	6850.962	-28.56334	1.2153E-007	-0.0041465	7
	31	44	796.875	6180.905	-3955.506	1	7338.23	-32.61745	7.752014E-007	-0.0045324	7
	32	45	627.7902	6383.897	-4831.662	1	8006.191	-37.12031	5.896681E-007	-0.0025549	7
	33	46	505.5147	6606.106	-5801.782	1	8792.117	-41.29107	9.991428E-007	-0.0034654	7
	34	48	397.9953	6910.059	-7102.352	1	9909.2	-45.78622	9.414611E-010	-0.0027548	7
	35	49	315.5048	7263.523	-8659.949	1	11302.81	-50.01179	1.5498E-009	-0.0028254	6
	36	50	252.4038	7675.962	-10491.54	1	12999.72	-53.80954	6.347501E-010	-0.0028183	6
	37	52	198.6229	8222.814	-12909.6	1	15305.96	-57.50476	9.361756E-010	-0.002824	6
	38	53	158.3615	8873.094	-15717.72	1	18049.33	-60.55405	4.55979E-010	-0.0028194	6
	39	55	125.558	9730.43	-19243.7	1	21563.89	-63.1769	1.023676E-009	-0.00283	6
	40	56	100.4464	10772.71	-23383.73	1	25745.88	-65.26482	1.513678E-009	-0.0028284	6
	41	57	79.00281	12304.62	-28832.1	1	31347.95	-66.88877	9.147783E-010	-0.0028263	6
	42	59	63.3446	14138.01	-35094.34	1	37835.12	-68.0576	9.686399E-010	-0.0028332	6
	43	60	49.86702	16637.09	-42453.28	1	45596.86	-68.60019	1.282662E-009	-0.0028284	6
	44	61	39.72458	20088.85	-51493.41	1	55273.27	-68.68801	6.650067E-010	-0.0028217	6
	45	63	31.6723	24289.6	-61831.27	1	66431.1	-68.55328	6.865488E-010	-0.0028189	6
	46	64	24.93351	30196.12	-74821.38	1	80684.85	-68.02218	-3.094593E-011	-0.0028231	6
	47	66	19.86229	37235.55	-89180.43	1	96641.8	-67.33797	7.152641E-010	-0.0028308	6
	48	67	15.83615	46609.19	-106083.2	1	115870.8	-66.28101	2.499958E-009	-0.0028195	5
	49	68	12.40079	57244.55	-125563.9	1	137997.2	-65.49177	6.565535E-010	-0.0028169	5
	50	70	9.93114	70926.24	-145589.9	1	161947.4	-64.0263	1.248618E-009	-0.0028234	5
	51	71	7.944915	85727.95	-168998.1	1	189498.4	-63.10261	7.482155E-011	-0.0028241	5
	52	73	6.317385	104229.1	-195850.1	1	221858	-61.97862	2.54797E-010	-0.002826	5
	53	75	5.008013	125496.2	-226695.7	1	259114.3	-61.03158	5.968371E-011	-0.002834	5
	54	77	3.945707	150737.5	-262288.9	1	302518.3	-60.11401	3.478168E-010	-0.0028169	5
	55	80	3.158693	176580.8	-300833.1	1	348828.5	-59.58823	6.922211E-010	-0.0028331	5
	56	83	2.504006	207799.9	-346741.4	1	404240.5	-59.06601	7.505428E-010	-0.00282	5
	57	86	1.998082	241429.6	-398418.2	1	465859.8	-58.78538	5.075836E-010	-0.0027819	5
	58	89	1.584686	279481.1	-459503.8	1	537822.9	-58.69104	4.63542E-010	-0.0028335	5
	59	93	1.266892	323090	-530663.1	1	621281.3	-58.66519	4.239533E-010	-0.0027821	5
	60	97	0.999041	374676.9	-618468.2	1	723108.3	-58.79192	3.19563E-010	-0.0028617	5
