EXPLAIN
TAG	EISPOT
TITLE	LABEL	Potentiostatic EIS	Test &Identifier
DATE	LABEL	11/27/2019	Date
TIME	LABEL	13:10:03	Time
NOTES	NOTES	3	&Notes...
	
	
	
PSTAT	PSTAT	REF600-11020	Potentiostat
VDC	POTEN	0.00000E+000	T	DC &Voltage (V)
FREQINIT	QUANT	1.00000E+006	Initial Fre&q. (Hz)
FREQFINAL	QUANT	1.00000E+000	Final Fre&q. (Hz)
PTSPERDEC	QUANT	1.00000E+001	Points/&decade
VAC	QUANT	2.50000E+001	AC &Voltage (mV rms)
AREA	QUANT	1.00000E-002	&Area (cm^2)
CONDIT	TWOPARAM	T	5.00000E+000	0.00000E+000	Conditionin&g	Time(s)	E(V)
DELAY	TWOPARAM	T	5.00000E+000	0.00000E+000	Init. De&lay	Time(s)	Stab.(mV/s)
SPEED	SELECTOR	0	&Optimize for:
ZGUESS	QUANT	1.00000E+005	E&stimated Z (ohms)
OCVCURVE	TABLE	19
	Pt	T	Vf	Vm	Ach	Over
	#	s	V vs. Ref.	V	V	bits
	0	0.258333	6.09901E-003	6.09901E-003	5.48233E-004	...........
	1	0.516667	6.09332E-003	5.80095E-003	5.47066E-004	...........
	2	0.775	6.06181E-003	5.69912E-003	5.42066E-004	...........
	3	1.03333	5.97953E-003	5.36061E-003	5.33900E-004	...........
	4	1.29167	5.84170E-003	5.41388E-003	5.37233E-004	...........
	5	1.55	5.67141E-003	5.09846E-003	5.40033E-004	...........
	6	1.80833	5.49824E-003	5.07421E-003	5.40033E-004	...........
	7	2.06667	5.33811E-003	4.97643E-003	5.46566E-004	...........
	8	2.325	5.19639E-003	4.79698E-003	5.49299E-004	...........
	9	2.58333	5.07384E-003	4.87911E-003	5.43466E-004	...........
	10	2.84167	4.96952E-003	4.67150E-003	5.35000E-004	...........
	11	3.1	4.88204E-003	4.69576E-003	5.37933E-004	...........
	12	3.35833	4.80817E-003	4.69487E-003	5.42833E-004	...........
	13	3.61667	4.74613E-003	4.49988E-003	5.49366E-004	...........
	14	3.875	4.69338E-003	4.67181E-003	5.46399E-004	...........
	15	4.13333	4.64806E-003	4.51684E-003	5.38699E-004	...........
	16	4.39167	4.61082E-003	4.45127E-003	5.33400E-004	...........
	17	4.65	4.57701E-003	4.57398E-003	5.28433E-004	...........
	18	4.90833	4.54356E-003	4.36949E-003	5.37933E-004	...........
EOC	QUANT	0.0045436	Open Circuit (V)
PSTATMODEL	IQUANT	4	Pstat Model
PSTATSECTION	LABEL	REF600-11020	Pstat Section
PSTATSERIALNO	LABEL	11020	Pstat Serial Number
CTRLMODE	IQUANT	1	Control Mode
IESTAB	IQUANT	0	I/E Stability
CASPEED	IQUANT	1	Control Amp Speed
CONVENTION	IQUANT	1	Current Convention
ICHRANGE	IQUANT	2	Ich Range
ICHRANGEMODE	TOGGLE	F	Ich Auto Range
ICHOFFSETENABLE	TOGGLE	T	Ich Offset Enable
ICHOFFSET	QUANT	0	Ich Offset (V)
ICHFILTER	IQUANT	3	Ich Filter
VCHRANGE	IQUANT	2	Vch Range
VCHRANGEMODE	TOGGLE	F	Vch Auto Range
VCHOFFSETENABLE	TOGGLE	T	Vch Offset Enable
VCHOFFSET	QUANT	0	Vch Offset (V)
VCHFILTER	IQUANT	3	Vch Filter
ACHRANGE	IQUANT	2	Ach Range
ACHOFFSETENABLE	TOGGLE	F	Ach Offset Enable
ACHOFFSET	QUANT	0	Ach Offset (V)
ACHFILTER	IQUANT	3	Ach Filter
IERANGELOWERLIMIT	IQUANT	1	I/E Range Lower Limit
IERANGEMODE	TOGGLE	F	I/E AutoRange
IERANGE	IQUANT	4	I/E Range
POSFEEDENABLE	TOGGLE	F	Positive Feedback IR Comp
POSFEEDRESISTANCE	QUANT	0	Positive Feedback Resistance (ohm)
ACHSELECT	IQUANT	0	Ach Select
CABLEID	IQUANT	14	Cable ID
DCCALDATE	LABEL	8/19/2019	DC Calibration Date
ACCALDATE	LABEL	8/19/2019	AC Calibration Date
THERMOSELECT	IQUANT	1	Thermo Select
FRAMEWORKVERSION	QUANT	6.33	Framework Version
INSTRUMENTVERSION	LABEL	3.50	Instrument Version
ZCURVE	TABLE
	Pt	Time	Freq	Zreal	Zimag	Zsig	Zmod	Zphz	Idc	Vdc	IERange
	#	s	Hz	ohm	ohm	V	ohm	°	A	V	#
	0	1	1000078	2199.622	-1775.466	1	2826.768	-38.90939	5.312135E-006	0.0063286	8
	1	1	794390.6	2547.719	-1770.337	1	3102.413	-34.79434	2.627397E-007	0.0067912	8
	2	2	630984.4	2896.674	-1719.737	1	3368.711	-30.69735	-3.016546E-007	0.0059478	8
	3	2	501234.4	3188.676	-1605.91	1	3570.238	-26.73115	7.102652E-006	0.0053686	8
	4	2	398109.4	3454.673	-1488.57	1	3761.729	-23.31053	3.22355E-006	0.006039	8
	5	3	316265.6	3672.555	-1375.455	1	3921.675	-20.53207	-3.572514E-006	0.0066034	8
	6	3	251203.1	3860.946	-1258.304	1	4060.816	-18.05108	-5.30544E-006	0.0068789	8
	7	3	199546.9	4011.191	-1140.199	1	4170.097	-15.86804	-2.057252E-006	0.005963	8
	8	4	158578.1	4153.138	-1048.003	1	4283.324	-14.16236	-5.505436E-007	0.0057973	8
	9	4	125953.1	4267.363	-923.5028	1	4366.148	-12.21111	-4.259004E-007	0.0041572	7
	10	4	100078.1	4348.913	-890.6932	1	4439.187	-11.57458	-8.477038E-007	0.0076251	7
	11	5	79453.13	4442.373	-867.6934	1	4526.319	-11.05199	6.724742E-008	0.0069317	7
	12	5	63140.62	4523.73	-867.65	1	4606.186	-10.85746	-1.15848E-006	0.007046	7
	13	5	50203.12	4616.771	-883.6693	1	4700.579	-10.8356	7.920399E-007	0.0058053	7
	14	6	39890.62	4697.778	-913.8907	1	4785.845	-11.00864	-8.503183E-007	0.0076113	7
	15	6	31640.63	4788.537	-970.258	1	4885.845	-11.45426	-1.042144E-006	0.0075526	7
	16	6	25171.88	4897.396	-1045.977	1	5007.849	-12.05599	7.414549E-007	0.0043211	7
	17	7	20015.62	4992.383	-1134.318	1	5119.625	-12.80083	-2.762556E-007	0.0072982	7
	18	7	15890.62	5118.533	-1250.623	1	5269.103	-13.7302	-8.511777E-007	0.0076045	7
	19	7	12609.37	5249.24	-1392.967	1	5430.918	-14.86179	-9.968054E-007	0.0064986	7
	20	7	10078.13	5394.791	-1555.19	1	5614.48	-16.08101	1.036376E-006	0.00462	7
	21	8	8015.625	5565.106	-1740.05	1	5830.795	-17.36297	3.702872E-007	0.0065152	7
	22	8	6328.125	5753.18	-1972.62	1	6081.966	-18.92554	4.608964E-007	0.0044221	7
	23	8	5015.625	5967.713	-2243.84	1	6375.611	-20.60609	7.915743E-007	0.0057975	7
	24	9	3984.375	6188.26	-2545.701	1	6691.424	-22.36109	-2.758071E-007	0.0072939	7
	25	9	3170.956	6466.043	-2908.355	1	7090.01	-24.21769	4.638546E-007	0.0044129	7
	26	10	2527.573	6767.969	-3306.824	1	7532.628	-26.04009	6.638795E-008	0.0069164	7
	27	10	1976.103	7142.043	-3834.484	1	8106.296	-28.23086	4.521893E-007	0.0044139	7
	28	10	1577.524	7520.724	-4394.187	1	8710.349	-30.29676	-3.018318E-007	0.005194	7
	29	11	1265.625	7953.857	-4975.97	1	9382.117	-32.03028	-7.005112E-007	0.0058476	7
	30	11	998.264	8453.043	-5730.96	1	10212.63	-34.13633	-1.159649E-006	0.0070269	7
	31	11	796.875	9023.344	-6560.847	1	11156.41	-36.02079	7.391008E-007	0.004308	7
	32	12	627.7902	9690.5	-7550.23	1	12284.61	-37.9235	6.670107E-008	0.0068214	6
	33	12	505.5147	10289.73	-8596.084	1	13407.88	-39.87552	-1.02824E-007	0.0054843	6
	34	12	397.9953	11027.16	-9986.83	1	14877.33	-42.16579	9.198631E-010	0.0059624	6
	35	13	315.5048	11761.14	-11602.61	1	16521.05	-44.61124	-4.754027E-010	0.0059674	6
	36	13	252.4038	12489.74	-13498.56	1	18390.35	-47.223	-3.583254E-010	0.0059584	6
	37	13	198.6229	13302.57	-16023.18	1	20825.48	-50.30029	5.656141E-010	0.0059643	6
	38	14	158.3615	14141.22	-19019.99	1	23700.93	-53.36949	-4.006153E-010	0.0059643	6
	39	14	125.558	15098.78	-22853.48	1	27390.78	-56.54815	1.709306E-010	0.0059618	6
	40	14	100.4464	16227.67	-27461.47	1	31897.8	-59.42009	1.164734E-009	0.0059606	6
	41	15	79.00281	17637.41	-33712.57	1	38047.54	-62.38277	5.337407E-010	0.0059579	6
	42	15	63.3446	19198.71	-39994.17	1	44363.55	-64.35723	-1.299392E-010	0.0059568	6
	43	15	49.86702	21764.96	-49414.19	1	53995.15	-66.22844	-4.765441E-010	0.0059553	6
	44	16	39.72458	24847.11	-60857.88	1	65734.77	-67.79074	-2.714396E-010	0.0059613	6
	45	16	31.6723	29274.92	-74299.73	1	79859.07	-68.495	-1.083628E-009	0.0059598	6
	46	16	24.93351	35302	-90549.41	1	97187.6	-68.70096	6.712061E-010	0.0059489	6
	47	17	19.86229	42962.76	-109147.9	1	117299	-68.51443	-4.539015E-010	0.0059686	5
	48	17	15.83615	55593.88	-131468.5	1	142739.8	-67.07803	2.864851E-009	0.0059571	5
	49	17	12.40079	69421.41	-158580.7	1	173110.3	-66.35778	-8.314469E-010	0.0059625	5
	50	18	9.93114	85757.26	-186117	1	204924	-65.26113	1.100546E-009	0.0059564	5
	51	18	7.944915	108103.8	-216682.3	1	242152.2	-63.48519	8.754867E-010	0.0059635	5
	52	19	6.317385	135767.9	-251614	1	285906.5	-61.64923	3.926098E-010	0.0059449	5
	53	20	5.008013	168431.8	-289330.5	1	334785.6	-59.79446	5.0037E-010	0.0059654	5
	54	21	3.945707	205717.8	-326057.7	1	385530.1	-57.75117	8.93247E-011	0.0059589	5
	55	22	3.158693	244840.1	-364801.5	1	439348.2	-56.13208	-4.419441E-011	0.0059493	5
	56	24	2.504006	286152.8	-409288.2	1	499400	-55.04078	1.656614E-010	0.0059545	5
	57	25	1.998082	326801.6	-458315.9	1	562896.7	-54.50928	1.069974E-010	0.0059526	5
	58	27	1.584686	371022.2	-518217.3	1	637343.4	-54.3989	-1.893492E-011	0.0059151	5
	59	29	1.266892	414100.9	-590703.9	1	721395	-54.96841	1.524246E-011	0.0059251	5
	60	31	0.999041	471755.9	-677279.8	1	825385.6	-55.14105	-3.603338E-010	0.0059427	5
