EXPLAIN
TAG	EISPOT
TITLE	LABEL	Potentiostatic EIS	Test &Identifier
DATE	LABEL	10/14/2019	Date
TIME	LABEL	11:29:14	Time
NOTES	NOTES	1	&Notes...
	
PSTAT	PSTAT	REF600-11020	Potentiostat
VDC	POTEN	0.00000E+000	T	DC &Voltage (V)
FREQINIT	QUANT	1.00000E+006	Initial Fre&q. (Hz)
FREQFINAL	QUANT	1.00000E+000	Final Fre&q. (Hz)
PTSPERDEC	QUANT	1.00000E+001	Points/&decade
VAC	QUANT	2.50000E+001	AC &Voltage (mV rms)
AREA	QUANT	1.00000E-002	&Area (cm^2)
CONDIT	TWOPARAM	T	5.00000E+000	0.00000E+000	Conditionin&g	Time(s)	E(V)
DELAY	TWOPARAM	T	5.00000E+000	0.00000E+000	Init. De&lay	Time(s)	Stab.(mV/s)
SPEED	SELECTOR	1	&Optimize for:
ZGUESS	QUANT	1.00000E+004	E&stimated Z (ohms)
OCVCURVE	TABLE	19
	Pt	T	Vf	Vm	Ach	Over
	#	s	V vs. Ref.	V	V	bits
	0	0.258333	5.07827E-003	5.07827E-003	5.49533E-004	...........
	1	0.516667	5.07150E-003	4.72376E-003	5.49599E-004	...........
	2	0.775	5.03059E-003	4.42304E-003	5.47699E-004	...........
	3	1.03333	4.91730E-003	4.14532E-003	5.43099E-004	...........
	4	1.29167	4.72032E-003	3.90296E-003	5.39966E-004	...........
	5	1.55	4.46792E-003	3.67615E-003	5.46166E-004	...........
	6	1.80833	4.20046E-003	3.47096E-003	5.44899E-004	...........
	7	2.06667	3.94489E-003	3.28111E-003	5.52666E-004	...........
	8	2.325	3.71118E-003	3.10836E-003	5.49099E-004	...........
	9	2.58333	3.49958E-003	2.94788E-003	5.46833E-004	...........
	10	2.84167	3.30719E-003	2.79852E-003	5.44833E-004	...........
	11	3.1	3.13086E-003	2.65585E-003	5.42266E-004	...........
	12	3.35833	2.96785E-003	2.52485E-003	5.39166E-004	...........
	13	3.61667	2.81603E-003	2.40168E-003	5.48033E-004	...........
	14	3.875	2.67412E-003	2.28784E-003	5.44166E-004	...........
	15	4.13333	2.54137E-003	2.17529E-003	5.48933E-004	...........
	16	4.39167	2.41696E-003	2.07303E-003	5.47733E-004	...........
	17	4.65	2.29984E-003	1.97310E-003	5.45799E-004	...........
	18	4.90833	2.18915E-003	1.87945E-003	5.47333E-004	...........
EOC	QUANT	0.0021891	Open Circuit (V)
PSTATMODEL	IQUANT	4	Pstat Model
PSTATSECTION	LABEL	REF600-11020	Pstat Section
PSTATSERIALNO	LABEL	11020	Pstat Serial Number
CTRLMODE	IQUANT	1	Control Mode
IESTAB	IQUANT	0	I/E Stability
CASPEED	IQUANT	1	Control Amp Speed
CONVENTION	IQUANT	1	Current Convention
ICHRANGE	IQUANT	2	Ich Range
ICHRANGEMODE	TOGGLE	F	Ich Auto Range
ICHOFFSETENABLE	TOGGLE	T	Ich Offset Enable
ICHOFFSET	QUANT	0	Ich Offset (V)
ICHFILTER	IQUANT	3	Ich Filter
VCHRANGE	IQUANT	2	Vch Range
VCHRANGEMODE	TOGGLE	F	Vch Auto Range
VCHOFFSETENABLE	TOGGLE	T	Vch Offset Enable
VCHOFFSET	QUANT	0	Vch Offset (V)
VCHFILTER	IQUANT	3	Vch Filter
ACHRANGE	IQUANT	2	Ach Range
ACHOFFSETENABLE	TOGGLE	F	Ach Offset Enable
ACHOFFSET	QUANT	0	Ach Offset (V)
ACHFILTER	IQUANT	3	Ach Filter
IERANGELOWERLIMIT	IQUANT	1	I/E Range Lower Limit
IERANGEMODE	TOGGLE	F	I/E AutoRange
IERANGE	IQUANT	5	I/E Range
POSFEEDENABLE	TOGGLE	F	Positive Feedback IR Comp
POSFEEDRESISTANCE	QUANT	0	Positive Feedback Resistance (ohm)
ACHSELECT	IQUANT	0	Ach Select
CABLEID	IQUANT	14	Cable ID
DCCALDATE	LABEL	8/19/2019	DC Calibration Date
ACCALDATE	LABEL	8/19/2019	AC Calibration Date
THERMOSELECT	IQUANT	1	Thermo Select
FRAMEWORKVERSION	QUANT	6.33	Framework Version
INSTRUMENTVERSION	LABEL	3.50	Instrument Version
ZCURVE	TABLE
	Pt	Time	Freq	Zreal	Zimag	Zsig	Zmod	Zphz	Idc	Vdc	IERange
	#	s	Hz	ohm	ohm	V	ohm	°	A	V	#
	0	2	1000078	2675.995	-2018.776	1	3352.075	-37.03097	-2.857363E-006	0.0046841	8
	1	4	794390.6	3073.808	-1993.574	1	3663.691	-32.96616	-1.956853E-006	0.00512	8
	2	5	630984.4	3439.762	-1910.446	1	3934.688	-29.04782	3.762557E-006	0.0034288	8
	3	7	501234.4	3776.865	-1779.46	1	4175.067	-25.22735	1.645217E-007	0.0037249	8
	4	8	398109.4	4047.276	-1626.819	1	4361.993	-21.89787	5.924576E-007	0.0040007	8
	5	10	316265.6	4294.37	-1464.916	1	4537.355	-18.83578	-5.02474E-007	0.0036685	8
	6	11	251203.1	4472.19	-1316.744	1	4662.006	-16.40597	-3.873179E-006	0.0046575	8
	7	13	199546.9	4647.626	-1170.249	1	4792.693	-14.133	4.559607E-006	0.0028639	8
	8	14	158578.1	4748.24	-1047.453	1	4862.401	-12.4401	4.451896E-006	0.0028554	8
	9	16	125953.1	4896.162	-918.3778	1	4981.548	-10.62358	7.0229E-007	0.0030391	7
	10	17	100078.1	4976.372	-845.5415	1	5047.694	-9.6431	1.286812E-008	0.003728	7
	11	19	79453.13	5055.652	-817.7979	1	5121.368	-9.188525	1.520215E-007	0.0035856	7
	12	20	63140.62	5130.681	-807.7676	1	5193.878	-8.947131	6.20889E-008	0.0037336	7
	13	21	50203.12	5204.915	-816.3509	1	5268.545	-8.913785	5.240164E-008	0.003643	7
	14	23	39890.62	5282.225	-843.0184	1	5349.073	-9.067668	-5.877599E-008	0.0039434	7
	15	24	31640.63	5367.637	-890.2839	1	5440.968	-9.417427	7.339828E-008	0.0036871	7
	16	25	25171.88	5454.562	-954.614	1	5537.466	-9.92692	-4.029223E-008	0.0038121	7
	17	27	20015.62	5550.22	-1033.577	1	5645.638	-10.54894	-9.176331E-008	0.0040905	7
	18	28	15890.62	5660.96	-1138.658	1	5774.341	-11.37284	5.320331E-008	0.0036379	7
	19	29	12609.37	5779.238	-1265.756	1	5916.226	-12.35373	5.272985E-008	0.003639	7
	20	31	10078.13	5908.407	-1407.951	1	6073.846	-13.40339	2.523433E-008	0.003915	7
	21	32	8015.625	6041.67	-1579.779	1	6244.796	-14.65364	7.28213E-008	0.0036895	7
	22	34	6328.125	6229.877	-1795.169	1	6483.364	-16.07459	-8.939423E-008	0.0040897	7
	23	35	5015.625	6420.248	-2036.203	1	6735.407	-17.5966	-9.505816E-008	0.0039347	7
	24	36	3984.375	6651.878	-2300.594	1	7038.48	-19.07826	-9.472075E-008	0.003932	7
	25	38	3170.956	6875.199	-2637.818	1	7363.861	-20.99039	6.568282E-008	0.0037353	7
	26	39	2527.573	7151.567	-3006.243	1	7757.732	-22.8	1.998145E-008	0.0036991	7
	27	40	1976.103	7479.771	-3469.529	1	8245.278	-24.88446	-5.154945E-009	0.0037773	7
	28	42	1577.524	7818.805	-4008.745	1	8786.566	-27.14447	1.32556E-007	0.0036807	7
	29	43	1265.625	8219.818	-4515.072	1	9378.235	-28.7796	-3.012311E-009	0.0038685	7
	30	45	998.264	8688.817	-5184.304	1	10117.93	-30.82301	-2.804799E-009	0.0036274	6
	31	46	796.875	9168.909	-5931.933	1	10920.47	-32.90132	5.548396E-010	0.0039558	6
	32	47	627.7902	9720.53	-6854.076	1	11893.99	-35.18819	1.525668E-008	0.0036628	6
	33	49	505.5147	10252.84	-7832.826	1	12902.48	-37.37862	-5.23359E-009	0.0039151	6
	34	50	397.9953	10858.85	-9130.341	1	14187.24	-40.05781	4.078189E-010	0.0037561	6
	35	51	315.5048	11466.24	-10666.43	1	15660.38	-42.93039	2.679646E-010	0.0037543	6
	36	53	252.4038	12068.48	-12487.35	1	17366.12	-45.97725	8.279639E-010	0.0037534	6
	37	54	198.6229	12748.74	-14920.5	1	19625.28	-49.48795	7.418148E-010	0.0037499	6
	38	55	158.3615	13449.91	-17808.8	1	22317.11	-52.93846	2.459013E-010	0.0037505	6
	39	57	125.558	14270.72	-21495.99	1	25801.77	-56.42068	8.725977E-010	0.0037506	6
	40	58	100.4464	15176.37	-25896.93	1	30016.22	-59.62844	1.448478E-009	0.0037448	6
	41	60	79.00281	16482.54	-31798.73	1	35816.66	-62.60051	4.756601E-010	0.003746	6
	42	61	63.3446	18157.92	-38510.4	1	42576.53	-64.75581	3.069914E-010	0.0037487	6
	43	62	49.86702	19611.71	-47652.93	1	51530.78	-67.63023	4.923273E-010	0.0037407	6
	44	64	39.72458	22197.24	-58022.79	1	62123.75	-69.06511	7.239985E-010	0.0037423	6
	45	65	31.6723	25175.41	-70695.7	1	75044.54	-70.3987	-6.387975E-011	0.0037402	6
	46	67	24.93351	29806.84	-87147.82	1	92104.23	-71.11797	1.662029E-010	0.0037445	6
	47	68	19.86229	35374.64	-106173.5	1	111911.4	-71.57307	4.46601E-010	0.0037547	5
	48	69	15.83615	43595.75	-129593.6	1	136730	-71.40688	-9.835349E-010	0.0037456	5
	49	71	12.40079	52768.16	-157252.9	1	165870.3	-71.45019	6.971256E-010	0.0037477	5
	50	72	9.93114	66453.12	-189751.2	1	201051.1	-70.69914	7.168919E-010	0.0037472	5
	51	74	7.944915	82803.27	-227001.9	1	241632.5	-69.95959	-1.755008E-010	0.0037457	5
	52	75	6.317385	104882.1	-271788.3	1	291323	-68.89857	4.095184E-010	0.0037392	5
	53	77	5.008013	133974.1	-323639.8	1	350273.9	-67.51238	3.081936E-010	0.0037584	5
	54	80	3.945707	171171.2	-383211.7	1	419703.2	-65.93086	-1.944441E-010	0.0037459	5
	55	83	3.158693	214574	-446612	1	495483.9	-64.33813	2.416918E-010	0.0037663	5
	56	86	2.504006	267396.3	-517646.8	1	582631.1	-62.68087	-2.073845E-010	0.0037489	5
	57	89	1.998082	325765.2	-593429.4	1	676964.9	-61.23526	1.074206E-010	0.0037387	5
	58	92	1.584686	398894.3	-672443.3	1	781854.6	-59.32352	-1.204538E-010	0.0038002	5
	59	96	1.266892	472107.4	-767325.4	1	900929.3	-58.39752	1.25217E-011	0.0037429	5
	60	100	0.999041	557538.8	-876080.6	1	1038444	-57.52728	2.300562E-010	0.0037744	4
