EXPLAIN
TAG	EISPOT
TITLE	LABEL	Potentiostatic IDE	Test &Identifier
DATE	LABEL	9/18/2019	Date
TIME	LABEL	9:11:00	Time
NOTES	NOTES	1	&Notes...
	
PSTAT	PSTAT	REF600-11020	Potentiostat
VDC	POTEN	0.00000E+000	T	DC &Voltage (V)
FREQINIT	QUANT	1.00000E+006	Initial Fre&q. (Hz)
FREQFINAL	QUANT	1.00000E+000	Final Fre&q. (Hz)
PTSPERDEC	QUANT	1.00000E+001	Points/&decade
VAC	QUANT	2.50000E+001	AC &Voltage (mV rms)
AREA	QUANT	1.00000E-002	&Area (cm^2)
CONDIT	TWOPARAM	T	5.00000E+000	0.00000E+000	Conditionin&g	Time(s)	E(V)
DELAY	TWOPARAM	T	5.00000E+000	0.00000E+000	Init. De&lay	Time(s)	Stab.(mV/s)
SPEED	SELECTOR	1	&Optimize for:
ZGUESS	QUANT	1.00000E+007	E&stimated Z (ohms)
OCVCURVE	TABLE	19
	Pt	T	Vf	Vm	Ach	Over
	#	s	V vs. Ref.	V	V	bits
	0	0.258333	4.08261E-003	4.08261E-003	5.58533E-004	...........
	1	0.516667	4.07825E-003	3.85459E-003	5.65432E-004	...........
	2	0.775	4.05195E-003	3.66181E-003	5.67432E-004	...........
	3	1.03333	3.97945E-003	3.49916E-003	5.66199E-004	...........
	4	1.29167	3.85439E-003	3.33823E-003	5.67432E-004	...........
	5	1.55	3.69570E-003	3.21601E-003	5.70432E-004	...........
	6	1.80833	3.52939E-003	3.07880E-003	5.68966E-004	...........
	7	2.06667	3.37198E-003	2.95815E-003	5.65332E-004	...........
	8	2.325	3.22829E-003	2.85856E-003	5.66532E-004	...........
	9	2.58333	3.09751E-003	2.75166E-003	5.66766E-004	...........
	10	2.84167	2.97788E-003	2.65305E-003	5.66799E-004	...........
	11	3.1	2.86733E-003	2.56691E-003	5.66332E-004	...........
	12	3.35833	2.76413E-003	2.48575E-003	5.57732E-004	...........
	13	3.61667	2.66790E-003	2.41115E-003	5.67832E-004	...........
	14	3.875	2.57926E-003	2.36490E-003	5.69166E-004	...........
	15	4.13333	2.49912E-003	2.28494E-003	5.65666E-004	...........
	16	4.39167	2.42148E-003	1.94262E-003	5.61599E-004	...........
	17	4.65	2.32488E-003	1.81178E-003	5.66966E-004	...........
	18	4.90833	2.19055E-003	1.73978E-003	5.68032E-004	...........
EOC	QUANT	0.0021905	Open Circuit (V)
PSTATMODEL	IQUANT	4	Pstat Model
PSTATSECTION	LABEL	REF600-11020	Pstat Section
PSTATSERIALNO	LABEL	11020	Pstat Serial Number
CTRLMODE	IQUANT	1	Control Mode
IESTAB	IQUANT	0	I/E Stability
CASPEED	IQUANT	1	Control Amp Speed
CONVENTION	IQUANT	1	Current Convention
ICHRANGE	IQUANT	2	Ich Range
ICHRANGEMODE	TOGGLE	F	Ich Auto Range
ICHOFFSETENABLE	TOGGLE	T	Ich Offset Enable
ICHOFFSET	QUANT	0	Ich Offset (V)
ICHFILTER	IQUANT	3	Ich Filter
VCHRANGE	IQUANT	2	Vch Range
VCHRANGEMODE	TOGGLE	F	Vch Auto Range
VCHOFFSETENABLE	TOGGLE	T	Vch Offset Enable
VCHOFFSET	QUANT	0	Vch Offset (V)
VCHFILTER	IQUANT	3	Vch Filter
ACHRANGE	IQUANT	2	Ach Range
ACHOFFSETENABLE	TOGGLE	F	Ach Offset Enable
ACHOFFSET	QUANT	0	Ach Offset (V)
ACHFILTER	IQUANT	3	Ach Filter
IERANGELOWERLIMIT	IQUANT	1	I/E Range Lower Limit
IERANGEMODE	TOGGLE	F	I/E AutoRange
IERANGE	IQUANT	2	I/E Range
POSFEEDENABLE	TOGGLE	F	Positive Feedback IR Comp
POSFEEDRESISTANCE	QUANT	0	Positive Feedback Resistance (ohm)
ACHSELECT	IQUANT	0	Ach Select
CABLEID	IQUANT	14	Cable ID
DCCALDATE	LABEL	8/19/2019	DC Calibration Date
ACCALDATE	LABEL	8/19/2019	AC Calibration Date
THERMOSELECT	IQUANT	1	Thermo Select
FRAMEWORKVERSION	QUANT	6.33	Framework Version
INSTRUMENTVERSION	LABEL	3.50	Instrument Version
ZCURVE	TABLE
	Pt	Time	Freq	Zreal	Zimag	Zsig	Zmod	Zphz	Idc	Vdc	IERange
	#	s	Hz	ohm	ohm	V	ohm	°	A	V	#
	0	2	1000078	2224.255	-1914.346	1	2934.626	-40.71754	1.236363E-006	0.0048112	8
	1	4	794390.6	2640.937	-1879.251	1	3241.316	-35.43509	-1.224515E-006	0.0044762	8
	2	5	630984.4	3011.941	-1781.586	1	3499.405	-30.60463	-2.401457E-006	0.0046197	8
	3	6	501234.4	3339.115	-1632.212	1	3716.692	-26.05011	-3.229879E-007	0.0041731	8
	4	8	398109.4	3598.076	-1463.574	1	3884.354	-22.13481	-2.995397E-006	0.0045793	8
	5	9	316265.6	3804.669	-1284.437	1	4015.63	-18.65442	1.203369E-006	0.0037501	8
	6	10	251203.1	3983.079	-1110.744	1	4135.054	-15.58196	-1.330932E-006	0.0041189	8
	7	12	199546.9	4076.306	-978.734	1	4192.158	-13.50132	-1.676814E-007	0.0038921	8
	8	13	158578.1	4172.466	-846.9128	1	4257.55	-11.47382	-1.238441E-006	0.0040988	8
	9	15	125953.1	4264.857	-719.8231	1	4325.176	-9.5801	-1.057716E-007	0.0040097	7
	10	16	100078.1	4316.895	-648.8758	1	4365.389	-8.54818	8.930648E-010	0.003866	7
	11	17	79453.13	4371.088	-601.3139	1	4412.254	-7.832798	5.24525E-009	0.0037863	7
	12	19	63140.62	4420.225	-568.5339	1	4456.638	-7.329203	3.162852E-008	0.003759	7
	13	20	50203.12	4466.928	-549.4893	1	4500.598	-7.012883	3.267396E-008	0.0037602	7
	14	21	39890.62	4515.282	-540.278	1	4547.49	-6.823311	-2.291327E-008	0.0038877	7
	15	23	31640.63	4561.907	-554.1393	1	4595.439	-6.925844	-2.91996E-009	0.00382	7
	16	24	25171.88	4610.592	-574.4793	1	4646.244	-7.102444	8.348248E-008	0.0036625	7
	17	25	20015.62	4662.615	-609.7286	1	4702.313	-7.450273	-2.251793E-008	0.0038845	7
	18	27	15890.62	4715.671	-651.7278	1	4760.494	-7.868698	2.028323E-008	0.0037314	7
	19	28	12609.37	4776.277	-722.8179	1	4830.661	-8.605557	2.045044E-008	0.0037707	7
	20	29	10078.13	4835.679	-801.2574	1	4901.612	-9.408257	2.145526E-008	0.0037694	7
	21	31	8015.625	4902.359	-902.5453	1	4984.748	-10.43159	-5.044517E-008	0.0038835	7
	22	32	6328.125	4977.294	-1030.93	1	5082.94	-11.70201	5.698423E-009	0.0037739	7
	23	33	5015.625	5054.734	-1186.402	1	5192.098	-13.20886	8.3745E-008	0.0036618	7
	24	35	3984.375	5141.471	-1375.1	1	5322.182	-14.97345	1.515441E-008	0.0038219	7
	25	36	3170.956	5234.165	-1607.615	1	5475.482	-17.07376	5.58412E-008	0.003763	7
	26	37	2527.573	5338.703	-1887.857	1	5662.663	-19.47447	-1.793447E-008	0.0038234	7
	27	39	1976.103	5462.53	-2261.306	1	5912.084	-22.48793	5.259232E-008	0.0037695	7
	28	40	1577.524	5592.107	-2675.138	1	6199.034	-25.5654	2.421704E-009	0.0037865	7
	29	41	1265.625	5738.511	-3175.072	1	6558.322	-28.95541	-2.810511E-008	0.0038952	7
	30	43	998.264	5914.048	-3826.002	1	7043.738	-32.90022	6.160291E-008	0.0036492	7
	31	44	796.875	6104.396	-4586.766	1	7635.58	-36.92073	1.372326E-009	0.0037886	7
	32	45	627.7902	6332.285	-5572.638	1	8435.172	-41.34893	2.676101E-008	0.0037414	7
	33	47	505.5147	6570.659	-6677.748	1	9368.345	-45.46312	7.297832E-009	0.0038524	7
	34	48	397.9953	6886.644	-8169.433	1	10684.83	-49.86988	1.264123E-009	0.0037594	6
	35	49	315.5048	7243.78	-9969.06	1	12322.93	-53.99686	1.147581E-009	0.0037588	6
	36	51	252.4038	7655.184	-12099.03	1	14317.41	-57.67803	5.505832E-010	0.0037584	6
	37	52	198.6229	8199.403	-14923.85	1	17027.96	-61.2149	9.127432E-010	0.0037572	6
	38	53	158.3615	8847.165	-18226.61	1	20260.35	-64.10815	1.379977E-009	0.003755	6
	39	55	125.558	9690.03	-22388.61	1	24395.63	-66.59653	9.724442E-010	0.0037548	6
	40	56	100.4464	10760.16	-27286.59	1	29331.54	-68.47877	6.20468E-010	0.0037545	6
	41	57	79.00281	12258.4	-33772.7	1	35928.59	-70.05074	9.444718E-010	0.0037517	6
	42	59	63.3446	13731.99	-40843	1	43089.66	-71.41663	4.351344E-010	0.0037493	6
	43	60	49.86702	16713.9	-50562.02	1	53252.91	-71.70806	9.259756E-010	0.0037486	6
	44	61	39.72458	19682.69	-61626.24	1	64693.13	-72.28713	9.86338E-010	0.003759	6
	45	63	31.6723	23635.38	-74716.48	1	78365.71	-72.44606	9.831065E-010	0.0037575	6
	46	64	24.93351	29491.19	-91456.45	1	96093.8	-72.12749	1.107698E-009	0.0037571	6
	47	65	19.86229	36587.54	-110399.5	1	116304.4	-71.66428	1.140103E-009	0.0037668	5
	48	67	15.83615	45797.89	-133542.1	1	141176.9	-71.07073	1.510385E-009	0.0037553	5
	49	68	12.40079	57962.73	-160834.5	1	170960.2	-70.18147	3.458623E-010	0.0037593	5
	50	70	9.93114	73647.05	-191544	1	205214.5	-68.96867	3.288703E-010	0.0037594	5
	51	71	7.944915	92996.56	-225960.2	1	244348.9	-67.62981	6.568848E-010	0.0037598	5
	52	73	6.317385	116415.1	-266416.6	1	290740.9	-66.39629	7.05272E-010	0.0037497	5
	53	75	5.008013	147384.6	-313845	1	346728.9	-64.8448	1.351029E-010	0.0037551	5
	54	77	3.945707	185639.1	-367584.9	1	411801.6	-63.20514	4.296786E-010	0.0037617	5
	55	80	3.158693	229596.9	-424289.4	1	482427.5	-61.58073	-3.083001E-011	0.0037464	5
	56	83	2.504006	284161.2	-487600.4	1	564359.6	-59.76744	5.969308E-010	0.0037564	5
	57	86	1.998082	347232.3	-553714.1	1	653582.1	-57.90831	2.185233E-010	0.0038025	5
	58	89	1.584686	419064.8	-626851.9	1	754028.2	-56.23637	3.121072E-010	0.0037863	5
	59	93	1.266892	499040	-700520.8	1	860099.1	-54.53452	-2.999504E-011	0.0037934	5
	60	97	0.999041	589152.4	-784877	1	981393	-53.107	3.427405E-010	0.0037518	5
