EXPLAIN
TAG	EISPOT
TITLE	LABEL	Potentiostatic EIS	Test &Identifier
DATE	LABEL	8/14/2018	Date
TIME	LABEL	5:04:20	Time
NOTES	NOTES	1	&Notes...
	
PSTAT	PSTAT	REF600-11020	Potentiostat
VDC	POTEN	0.00000E+000	T	DC &Voltage (V)
FREQINIT	QUANT	1.00000E+006	Initial Fre&q. (Hz)
FREQFINAL	QUANT	1.00000E+000	Final Fre&q. (Hz)
PTSPERDEC	QUANT	1.00000E+001	Points/&decade
VAC	QUANT	2.50000E+001	AC &Voltage (mV rms)
AREA	QUANT	1.00000E-002	&Area (cm^2)
CONDIT	TWOPARAM	T	5.00000E+000	0.00000E+000	Conditionin&g	Time(s)	E(V)
DELAY	TWOPARAM	T	5.00000E+000	0.00000E+000	Init. De&lay	Time(s)	Stab.(mV/s)
SPEED	SELECTOR	0	&Optimize for:
ZGUESS	QUANT	1.00000E+005	E&stimated Z (ohms)
OCVCURVE	TABLE	19
	Pt	T	Vf	Vm	Ach	Over
	#	s	V vs. Ref.	V	V	bits
	0	0.258333	5.99219E-003	5.99219E-003	5.57966E-004	...........
	1	0.516667	5.99088E-003	5.92364E-003	5.51466E-004	...........
	2	0.775	5.98311E-003	5.87273E-003	5.53866E-004	...........
	3	1.03333	5.96229E-003	5.83831E-003	5.51999E-004	...........
	4	1.29167	5.92817E-003	5.81538E-003	5.48499E-004	...........
	5	1.55	5.88851E-003	5.79837E-003	5.50766E-004	...........
	6	1.80833	5.85233E-003	5.79141E-003	5.48866E-004	...........
	7	2.06667	5.82452E-003	5.78625E-003	5.45499E-004	...........
	8	2.325	5.80591E-003	5.79232E-003	5.48033E-004	...........
	9	2.58333	5.79546E-003	5.79828E-003	5.50199E-004	...........
	10	2.84167	5.79190E-003	5.81033E-003	5.53099E-004	...........
	11	3.1	5.79391E-003	5.81875E-003	5.52333E-004	...........
	12	3.35833	5.80007E-003	5.83351E-003	5.47799E-004	...........
	13	3.61667	5.80912E-003	5.84839E-003	5.50233E-004	...........
	14	3.875	5.82045E-003	5.87093E-003	5.46999E-004	...........
	15	4.13333	5.83415E-003	5.88823E-003	5.49799E-004	...........
	16	4.39167	5.85028E-003	5.90994E-003	5.55933E-004	...........
	17	4.65	5.86843E-003	5.93067E-003	5.48099E-004	...........
	18	4.90833	5.88806E-003	5.95819E-003	5.45233E-004	...........
EOC	QUANT	0.0058881	Open Circuit (V)
PSTATMODEL	IQUANT	4	Pstat Model
PSTATSECTION	LABEL	REF600-11020	Pstat Section
PSTATSERIALNO	LABEL	11020	Pstat Serial Number
CTRLMODE	IQUANT	1	Control Mode
IESTAB	IQUANT	0	I/E Stability
CASPEED	IQUANT	1	Control Amp Speed
CONVENTION	IQUANT	1	Current Convention
ICHRANGE	IQUANT	2	Ich Range
ICHRANGEMODE	TOGGLE	F	Ich Auto Range
ICHOFFSETENABLE	TOGGLE	T	Ich Offset Enable
ICHOFFSET	QUANT	0	Ich Offset (V)
ICHFILTER	IQUANT	3	Ich Filter
VCHRANGE	IQUANT	2	Vch Range
VCHRANGEMODE	TOGGLE	F	Vch Auto Range
VCHOFFSETENABLE	TOGGLE	T	Vch Offset Enable
VCHOFFSET	QUANT	0	Vch Offset (V)
VCHFILTER	IQUANT	3	Vch Filter
ACHRANGE	IQUANT	2	Ach Range
ACHOFFSETENABLE	TOGGLE	F	Ach Offset Enable
ACHOFFSET	QUANT	0	Ach Offset (V)
ACHFILTER	IQUANT	3	Ach Filter
IERANGELOWERLIMIT	IQUANT	1	I/E Range Lower Limit
IERANGEMODE	TOGGLE	F	I/E AutoRange
IERANGE	IQUANT	5	I/E Range
POSFEEDENABLE	TOGGLE	F	Positive Feedback IR Comp
POSFEEDRESISTANCE	QUANT	0	Positive Feedback Resistance (ohm)
ACHSELECT	IQUANT	0	Ach Select
CABLEID	IQUANT	14	Cable ID
DCCALDATE	LABEL	8/19/2019	DC Calibration Date
ACCALDATE	LABEL	8/19/2019	AC Calibration Date
THERMOSELECT	IQUANT	1	Thermo Select
FRAMEWORKVERSION	QUANT	6.33	Framework Version
INSTRUMENTVERSION	LABEL	3.50	Instrument Version
ZCURVE	TABLE
	Pt	Time	Freq	Zreal	Zimag	Zsig	Zmod	Zphz	Idc	Vdc	IERange
	#	s	Hz	ohm	ohm	V	ohm	°	A	V	#
	0	1	1000078	2066.319	-965.526	1	2280.771	-25.04522	1.622437E-007	0.0082057	8
	1	1	794390.6	2245.366	-847.148	1	2399.86	-20.67085	1.982218E-006	0.0073963	8
	2	2	630984.4	2363.708	-737.2437	1	2476.014	-17.32277	-2.031679E-007	0.0076717	8
	3	2	501234.4	2449.842	-638.1058	1	2531.581	-14.59934	1.93213E-006	0.0073001	8
	4	2	398109.4	2526.014	-543.4933	1	2583.821	-12.14256	-3.897593E-006	0.0084629	8
	5	3	316265.6	2578.37	-468.408	1	2620.572	-10.29653	-2.942595E-006	0.0082227	8
	6	3	251203.1	2613.17	-412.2341	1	2645.485	-8.964677	4.421441E-006	0.0068374	8
	7	3	199546.9	2643.913	-358.9129	1	2668.163	-7.730682	-8.204123E-007	0.0077748	8
	8	4	158578.1	2669.439	-328.6705	1	2689.597	-7.019126	4.290708E-006	0.0068561	8
	9	4	125953.1	2713.36	-247.1982	1	2724.597	-5.20551	-1.954436E-007	0.0078901	7
	10	4	100078.1	2725.063	-230.7052	1	2734.811	-4.839151	5.788049E-008	0.0075304	7
	11	5	79453.13	2745.392	-231.5272	1	2755.138	-4.820519	-2.889709E-008	0.0075473	7
	12	5	63140.62	2764.032	-238.0283	1	2774.263	-4.921958	-3.101295E-008	0.0075418	7
	13	5	50203.12	2784.423	-248.0143	1	2795.447	-5.09002	-1.336983E-008	0.0075843	7
	14	5	39890.62	2807.05	-263.1248	1	2819.355	-5.355095	-1.800952E-008	0.007573	7
	15	6	31640.63	2832.008	-285.3611	1	2846.349	-5.753863	-4.866525E-008	0.0076207	7
	16	6	25171.88	2856.719	-312.3355	1	2873.742	-6.239573	1.123801E-007	0.0073729	7
	17	6	20015.62	2885.492	-346.0199	1	2906.165	-6.838092	-4.916687E-008	0.007597	7
	18	7	15890.62	2915.068	-391.7162	1	2941.269	-7.653351	-1.257281E-008	0.0075766	7
	19	7	12609.37	2949.135	-444.6278	1	2982.464	-8.573653	8.694101E-009	0.0074803	7
	20	7	10078.13	2983.852	-508.5108	1	3026.872	-9.67148	-3.832477E-008	0.0075621	7
	21	8	8015.625	3023.54	-585.8915	1	3079.783	-10.96667	-3.828567E-008	0.0075643	7
	22	8	6328.125	3063.45	-684.7582	1	3139.048	-12.59993	-3.105502E-008	0.0075417	7
	23	8	5015.625	3108.277	-804.0831	1	3210.597	-14.50394	-3.863105E-008	0.0075476	7
	24	9	3984.375	3160.954	-950.989	1	3300.911	-16.74418	8.953553E-009	0.0074799	7
	25	9	3170.956	3214.425	-1126.016	1	3405.942	-19.3054	-9.388005E-009	0.0076409	7
	26	9	2527.573	3277.928	-1340.365	1	3541.383	-22.23995	7.577983E-011	0.0074748	7
	27	10	1976.103	3352.281	-1625.78	1	3725.714	-25.87233	2.347742E-008	0.0075053	7
	28	10	1577.524	3432.594	-1945.065	1	3945.374	-29.53788	-1.738595E-008	0.0075744	7
	29	10	1265.625	3523.892	-2335.625	1	4227.642	-33.53629	-4.605706E-008	0.0076176	7
	30	11	998.264	3631.622	-2843.248	1	4612.238	-38.0579	-1.320571E-008	0.0075801	7
	31	11	796.875	3750.223	-3436.059	1	5086.322	-42.49679	1.130177E-007	0.0073655	7
	32	11	627.7902	3899.123	-4217.745	1	5743.913	-47.24796	-3.771426E-008	0.0075571	7
	33	12	505.5147	4058.413	-5093.389	1	6512.551	-51.45216	-1.513879E-008	0.0075738	7
	34	12	397.9953	4264.527	-6282.732	1	7593.347	-55.83254	3.011309E-010	0.0075462	7
	35	12	315.5048	4516.809	-7721.368	1	8945.45	-59.67342	1.252609E-009	0.0075467	7
	36	12	252.4038	4824.62	-9421.288	1	10584.78	-62.88312	4.171274E-010	0.0074825	6
	37	13	198.6229	5246.16	-11678.65	1	12802.85	-65.80994	4.048339E-010	0.0074863	6
	38	13	158.3615	5762.081	-14311.27	1	15427.7	-68.06902	-5.604346E-010	0.0074839	6
	39	13	125.558	6445.774	-17614.92	1	18757.22	-69.90107	-2.766511E-010	0.0074818	6
	40	14	100.4464	7295.454	-21475.16	1	22680.52	-71.23656	1.195123E-009	0.0074805	6
	41	14	79.00281	8592.004	-26576.25	1	27930.63	-72.08418	3.626206E-010	0.0074786	6
	42	14	63.3446	9677.07	-32458.35	1	33870.19	-73.39867	-3.446507E-010	0.0074726	6
	43	15	49.86702	11850.86	-39810.05	1	41536.52	-73.42252	-3.655908E-010	0.0074704	6
	44	15	39.72458	14734.46	-48401.79	1	50594.84	-73.06872	1.327143E-010	0.0074793	6
	45	15	31.6723	18218.35	-58765.98	1	61525.18	-72.77576	-5.390528E-010	0.0074783	6
	46	16	24.93351	23084.15	-71511.47	1	75144.98	-72.10974	-5.365114E-010	0.0074745	6
	47	16	19.86229	28931.4	-85976.59	1	90713.84	-71.40175	-1.29589E-009	0.0074747	6
	48	16	15.83615	36609.98	-103251	1	109549.3	-70.47688	8.161457E-010	0.0074792	5
	49	17	12.40079	47593.66	-123295.8	1	132162.8	-68.89281	-1.486626E-009	0.0074849	5
	50	17	9.93114	58894.07	-146427.5	1	157827.5	-68.0897	5.933392E-010	0.0074849	5
	51	18	7.944915	73615.76	-171304.1	1	186452.1	-66.745	1.112761E-009	0.0074762	5
	52	18	6.317385	92727.45	-200880.9	1	221249.9	-65.22176	5.271116E-010	0.007468	5
	53	19	5.008013	115599.6	-234696.6	1	261621.4	-63.77749	2.432076E-010	0.0074825	5
	54	20	3.945707	143149.9	-273167.1	1	308402.6	-62.34375	-1.073413E-010	0.0074815	5
	55	21	3.158693	172571.1	-313590.3	1	357938.1	-61.17567	-2.486391E-010	0.0074649	5
	56	23	2.504006	208304.1	-360479.5	1	416336.5	-59.9784	1.075434E-011	0.0074701	5
	57	24	1.998082	246139.7	-411831.5	1	479781.1	-59.13447	3.748297E-012	0.0074939	5
	58	26	1.584686	291439.8	-470876.5	1	553770.6	-58.24537	-1.690782E-010	0.0074431	5
	59	28	1.266892	339871.5	-538423.4	1	636720	-57.73846	-1.999142E-010	0.0074315	5
	60	30	0.999041	395600	-620550.7	1	735922.9	-57.48256	-2.122405E-010	0.0074457	5
