EXPLAIN
TAG	EISPOT
TITLE	LABEL	Potentiostatic EIS	Test &Identifier
DATE	LABEL	10/4/2019	Date
TIME	LABEL	10:46:34	Time
NOTES	NOTES	2	&Notes...
	
	
PSTAT	PSTAT	REF600-11020	Potentiostat
VDC	POTEN	0.00000E+000	T	DC &Voltage (V)
FREQINIT	QUANT	1.00000E+006	Initial Fre&q. (Hz)
FREQFINAL	QUANT	1.00000E+000	Final Fre&q. (Hz)
PTSPERDEC	QUANT	1.00000E+001	Points/&decade
VAC	QUANT	2.50000E+001	AC &Voltage (mV rms)
AREA	QUANT	1.00000E-002	&Area (cm^2)
CONDIT	TWOPARAM	T	5.00000E+000	0.00000E+000	Conditionin&g	Time(s)	E(V)
DELAY	TWOPARAM	T	5.00000E+000	0.00000E+000	Init. De&lay	Time(s)	Stab.(mV/s)
SPEED	SELECTOR	1	&Optimize for:
ZGUESS	QUANT	1.00000E+004	E&stimated Z (ohms)
OCVCURVE	TABLE	19
	Pt	T	Vf	Vm	Ach	Over
	#	s	V vs. Ref.	V	V	bits
	0	0.258333	4.95446E-003	4.95446E-003	5.60932E-004	...........
	1	0.516667	4.95032E-003	4.73758E-003	5.60866E-004	...........
	2	0.775	4.92429E-003	4.50103E-003	5.55966E-004	...........
	3	1.03333	4.85143E-003	4.41838E-003	5.57366E-004	...........
	4	1.29167	4.72632E-003	4.18272E-003	5.55233E-004	...........
	5	1.55	4.57354E-003	4.34145E-003	5.60832E-004	...........
	6	1.80833	4.43661E-003	4.42285E-003	5.56733E-004	...........
	7	2.06667	4.35457E-003	4.27487E-003	5.53899E-004	...........
	8	2.325	4.32988E-003	4.39776E-003	5.59966E-004	...........
	9	2.58333	4.33511E-003	4.41391E-003	5.66132E-004	...........
	10	2.84167	4.35083E-003	4.37778E-003	5.58899E-004	...........
	11	3.1	4.36854E-003	4.34143E-003	5.58032E-004	...........
	12	3.35833	4.37692E-003	4.30928E-003	5.65432E-004	...........
	13	3.61667	4.36839E-003	4.28082E-003	5.58499E-004	...........
	14	3.875	4.34587E-003	4.26320E-003	5.62366E-004	...........
	15	4.13333	4.31756E-003	4.24390E-003	5.66566E-004	...........
	16	4.39167	4.29014E-003	4.22363E-003	5.65866E-004	...........
	17	4.65	4.26617E-003	4.20662E-003	5.60532E-004	...........
	18	4.90833	4.24529E-003	4.19353E-003	5.63266E-004	...........
EOC	QUANT	0.0042453	Open Circuit (V)
PSTATMODEL	IQUANT	4	Pstat Model
PSTATSECTION	LABEL	REF600-11020	Pstat Section
PSTATSERIALNO	LABEL	11020	Pstat Serial Number
CTRLMODE	IQUANT	1	Control Mode
IESTAB	IQUANT	0	I/E Stability
CASPEED	IQUANT	1	Control Amp Speed
CONVENTION	IQUANT	1	Current Convention
ICHRANGE	IQUANT	2	Ich Range
ICHRANGEMODE	TOGGLE	F	Ich Auto Range
ICHOFFSETENABLE	TOGGLE	T	Ich Offset Enable
ICHOFFSET	QUANT	0	Ich Offset (V)
ICHFILTER	IQUANT	3	Ich Filter
VCHRANGE	IQUANT	2	Vch Range
VCHRANGEMODE	TOGGLE	F	Vch Auto Range
VCHOFFSETENABLE	TOGGLE	T	Vch Offset Enable
VCHOFFSET	QUANT	0	Vch Offset (V)
VCHFILTER	IQUANT	3	Vch Filter
ACHRANGE	IQUANT	2	Ach Range
ACHOFFSETENABLE	TOGGLE	F	Ach Offset Enable
ACHOFFSET	QUANT	0	Ach Offset (V)
ACHFILTER	IQUANT	3	Ach Filter
IERANGELOWERLIMIT	IQUANT	1	I/E Range Lower Limit
IERANGEMODE	TOGGLE	F	I/E AutoRange
IERANGE	IQUANT	5	I/E Range
POSFEEDENABLE	TOGGLE	F	Positive Feedback IR Comp
POSFEEDRESISTANCE	QUANT	0	Positive Feedback Resistance (ohm)
ACHSELECT	IQUANT	0	Ach Select
CABLEID	IQUANT	14	Cable ID
DCCALDATE	LABEL	8/19/2019	DC Calibration Date
ACCALDATE	LABEL	8/19/2019	AC Calibration Date
THERMOSELECT	IQUANT	1	Thermo Select
FRAMEWORKVERSION	QUANT	6.33	Framework Version
INSTRUMENTVERSION	LABEL	3.50	Instrument Version
ZCURVE	TABLE
	Pt	Time	Freq	Zreal	Zimag	Zsig	Zmod	Zphz	Idc	Vdc	IERange
	#	s	Hz	ohm	ohm	V	ohm	°	A	V	#
	0	2	1000078	2170.066	-946.9509	1	2367.679	-23.57499	-3.865301E-006	0.0071089	8
	1	3	794390.6	2323.325	-865.9139	1	2479.445	-20.44066	-2.564986E-006	0.0068311	8
	2	4	630984.4	2444.024	-775.9504	1	2564.245	-17.61406	1.033857E-006	0.005956	8
	3	6	501234.4	2547.01	-691.718	1	2639.268	-15.19394	-5.023739E-007	0.0059448	8
	4	7	398109.4	2622.146	-612.1465	1	2692.652	-13.14049	-3.079043E-007	0.0058945	8
	5	8	316265.6	2687.821	-545.3414	1	2742.586	-11.46925	3.004923E-006	0.0053571	8
	6	10	251203.1	2743.859	-504.1759	1	2789.794	-10.41179	-8.145737E-007	0.0061033	8
	7	11	199546.9	2790.054	-466.944	1	2828.858	-9.50098	-6.838949E-007	0.0061101	8
	8	12	158578.1	2832.302	-435.9139	1	2865.651	-8.749621	4.065629E-007	0.0058055	8
	9	14	125953.1	2881.134	-403.4907	1	2909.25	-7.972185	-1.017491E-006	0.0080201	7
	10	15	100078.1	2919.355	-398.1361	1	2946.378	-7.765979	-4.400368E-008	0.0058821	7
	11	16	79453.13	2959.137	-409.9399	1	2987.397	-7.887192	-5.08202E-008	0.0058679	7
	12	18	63140.62	3002.781	-429.8923	1	3033.398	-8.147371	6.949462E-008	0.0057422	7
	13	19	50203.12	3050.216	-454.769	1	3083.932	-8.479992	4.407553E-008	0.0057213	7
	14	20	39890.62	3102.386	-485.8713	1	3140.202	-8.900912	-5.262673E-008	0.0059516	7
	15	22	31640.63	3159.87	-523.796	1	3202.99	-9.412051	-1.142577E-008	0.0057746	7
	16	23	25171.88	3220.687	-567.3186	1	3270.271	-9.99007	3.097218E-008	0.00576	7
	17	24	20015.62	3287.376	-619.0288	1	3345.151	-10.6642	1.145389E-008	0.0057402	7
	18	26	15890.62	3359.163	-677.3865	1	3426.781	-11.40099	4.662591E-008	0.0057148	7
	19	27	12609.37	3434.745	-745.3576	1	3514.688	-12.24365	8.145645E-009	0.0058601	7
	20	28	10078.13	3515.333	-822.9914	1	3610.386	-13.17647	-4.887152E-008	0.0058541	7
	21	30	8015.625	3600.304	-915.441	1	3714.865	-14.26615	-1.832299E-009	0.0057713	7
	22	31	6328.125	3695.98	-1029.209	1	3836.606	-15.56077	-2.646537E-008	0.0058023	7
	23	32	5015.625	3796.708	-1161.505	1	3970.401	-17.01015	-1.239782E-008	0.0057708	7
	24	34	3984.375	3904.527	-1316.119	1	4120.376	-18.62768	-2.584182E-008	0.0057982	7
	25	35	3170.956	4017.299	-1498.837	1	4287.797	-20.46034	6.123567E-008	0.0056682	7
	26	36	2527.573	4135.634	-1716.803	1	4477.821	-22.54454	3.255678E-008	0.00576	7
	27	38	1976.103	4268.097	-2004.262	1	4715.265	-25.15435	-7.644018E-009	0.0058331	7
	28	39	1577.524	4394.636	-2328.543	1	4973.423	-27.91734	3.117065E-008	0.0057535	7
	29	41	1265.625	4525.696	-2721.647	1	5281.031	-31.02171	1.181489E-008	0.0057296	7
	30	42	998.264	4676.233	-3249.599	1	5694.475	-34.79613	-2.812616E-008	0.0057921	7
	31	43	796.875	4838.896	-3875.364	1	6199.465	-38.69045	4.609455E-008	0.0057118	7
	32	45	627.7902	5034.29	-4697.25	1	6885.364	-43.01642	4.558562E-008	0.0057156	7
	33	46	505.5147	5253.99	-5626.584	1	7698.238	-46.96127	-4.981651E-008	0.0058519	7
	34	47	397.9953	5542.529	-6881.573	1	8836.044	-51.15148	3.89031E-009	0.0058225	7
	35	49	315.5048	5903.825	-8392.657	1	10261.18	-54.87548	1.076609E-009	0.0057569	6
	36	50	252.4038	6343.313	-10171.1	1	11987.03	-58.04984	5.271046E-010	0.0057524	6
	37	51	198.6229	6954.081	-12507.27	1	14310.52	-60.9258	8.457383E-010	0.0057527	6
	38	53	158.3615	7711.051	-15201.72	1	17045.6	-63.10366	6.528797E-010	0.0057465	6
	39	54	125.558	8728.77	-18538.49	1	20490.66	-64.7868	6.559255E-010	0.0057485	6
	40	55	100.4464	10018.59	-22389.8	1	24529.07	-65.8933	6.191506E-010	0.0057486	6
	41	57	79.00281	11825.69	-27385.14	1	29829.39	-66.64392	3.907517E-010	0.0057464	6
	42	58	63.3446	13996.92	-32654.11	1	35527.52	-66.798	5.942156E-010	0.0057475	6
	43	59	49.86702	17199.91	-39706.77	1	43271.98	-66.57903	6.157828E-010	0.0057455	6
	44	61	39.72458	20872.02	-47342.91	1	51739.66	-66.20881	1.028257E-010	0.0057506	6
	45	62	31.6723	25630.02	-56129.99	1	61704.73	-65.45766	1.878259E-010	0.0057501	6
	46	63	24.93351	32072.85	-66615.02	1	73933.95	-64.29078	-2.309393E-010	0.0057507	6
	47	65	19.86229	39647.43	-77899.59	1	87408.61	-63.02593	1.626357E-009	0.005751	6
	48	66	15.83615	49003.12	-90224.43	1	102673	-61.49252	1.647154E-009	0.0057482	5
	49	67	12.40079	60451.83	-104903	1	121074.6	-60.0467	-3.902549E-010	0.0057583	5
	50	69	9.93114	72694.38	-119070.7	1	139507.4	-58.59533	-2.434943E-010	0.0057514	5
	51	70	7.944915	86396.53	-134590.6	1	159934.3	-57.30273	-3.242773E-010	0.0057597	5
	52	72	6.317385	101468.4	-152040	1	182789.5	-56.28166	7.302806E-010	0.005758	5
	53	74	5.008013	118248.9	-172454.8	1	209101.5	-55.56232	-1.494073E-010	0.0057475	5
	54	76	3.945707	136063.2	-196143.4	1	238716.3	-55.25125	4.324587E-010	0.0057548	5
	55	79	3.158693	153707.5	-222617.7	1	270526.6	-55.37666	-1.901651E-010	0.0057363	5
	56	82	2.504006	173518.1	-255445.1	1	308805.3	-55.81261	3.949246E-010	0.0057447	5
	57	85	1.998082	193891.3	-293754.1	1	351973.4	-56.57334	-1.20057E-011	0.005786	5
	58	88	1.584686	217357.5	-342860.6	1	405952.8	-57.62722	1.887026E-010	0.0057884	5
	59	91	1.266892	243749.3	-399009.1	1	467570.3	-58.5798	-3.600443E-011	0.0057931	5
	60	96	0.999041	275786.9	-471524	1	546253.9	-59.67731	1.222525E-010	0.0057206	5
