EXPLAIN
TAG	EISPOT
TITLE	LABEL	Potentiostatic EIS	Test &Identifier
DATE	LABEL	10/4/2019	Date
TIME	LABEL	9:45:12	Time
NOTES	NOTES	2	&Notes...
	
	
PSTAT	PSTAT	REF600-11020	Potentiostat
VDC	POTEN	0.00000E+000	T	DC &Voltage (V)
FREQINIT	QUANT	1.00000E+006	Initial Fre&q. (Hz)
FREQFINAL	QUANT	1.00000E+000	Final Fre&q. (Hz)
PTSPERDEC	QUANT	1.00000E+001	Points/&decade
VAC	QUANT	2.50000E+001	AC &Voltage (mV rms)
AREA	QUANT	1.00000E-002	&Area (cm^2)
CONDIT	TWOPARAM	T	5.00000E+000	0.00000E+000	Conditionin&g	Time(s)	E(V)
DELAY	TWOPARAM	T	5.00000E+000	0.00000E+000	Init. De&lay	Time(s)	Stab.(mV/s)
SPEED	SELECTOR	1	&Optimize for:
ZGUESS	QUANT	1.00000E+004	E&stimated Z (ohms)
OCVCURVE	TABLE	19
	Pt	T	Vf	Vm	Ach	Over
	#	s	V vs. Ref.	V	V	bits
	0	0.258333	5.40601E-003	5.40601E-003	5.68032E-004	...........
	1	0.516667	5.40462E-003	5.33353E-003	5.66799E-004	...........
	2	0.775	5.39620E-003	5.26902E-003	5.68799E-004	...........
	3	1.03333	5.37281E-003	5.21610E-003	5.64999E-004	...........
	4	1.29167	5.33231E-003	5.16950E-003	5.65432E-004	...........
	5	1.55	5.28125E-003	5.13549E-003	5.67366E-004	...........
	6	1.80833	5.22914E-003	5.10931E-003	5.70866E-004	...........
	7	2.06667	5.18272E-003	5.08229E-003	5.64899E-004	...........
	8	2.325	5.14418E-003	5.05576E-003	5.72932E-004	...........
	9	2.58333	5.11228E-003	5.03492E-003	5.67566E-004	...........
	10	2.84167	5.08485E-003	5.02066E-003	5.68699E-004	...........
	11	3.1	5.06096E-003	5.00985E-003	5.75566E-004	...........
	12	3.35833	5.04082E-003	4.99923E-003	5.70666E-004	...........
	13	3.61667	5.02462E-003	4.99393E-003	5.63832E-004	...........
	14	3.875	5.01193E-003	4.98516E-003	5.64399E-004	...........
	15	4.13333	5.00198E-003	4.98141E-003	5.61932E-004	...........
	16	4.39167	4.99396E-003	4.97542E-003	5.70066E-004	...........
	17	4.65	4.98733E-003	4.97416E-003	5.70966E-004	...........
	18	4.90833	4.98187E-003	4.97124E-003	5.73366E-004	...........
EOC	QUANT	0.0049819	Open Circuit (V)
PSTATMODEL	IQUANT	4	Pstat Model
PSTATSECTION	LABEL	REF600-11020	Pstat Section
PSTATSERIALNO	LABEL	11020	Pstat Serial Number
CTRLMODE	IQUANT	1	Control Mode
IESTAB	IQUANT	0	I/E Stability
CASPEED	IQUANT	1	Control Amp Speed
CONVENTION	IQUANT	1	Current Convention
ICHRANGE	IQUANT	2	Ich Range
ICHRANGEMODE	TOGGLE	F	Ich Auto Range
ICHOFFSETENABLE	TOGGLE	T	Ich Offset Enable
ICHOFFSET	QUANT	0	Ich Offset (V)
ICHFILTER	IQUANT	3	Ich Filter
VCHRANGE	IQUANT	2	Vch Range
VCHRANGEMODE	TOGGLE	F	Vch Auto Range
VCHOFFSETENABLE	TOGGLE	T	Vch Offset Enable
VCHOFFSET	QUANT	0	Vch Offset (V)
VCHFILTER	IQUANT	3	Vch Filter
ACHRANGE	IQUANT	2	Ach Range
ACHOFFSETENABLE	TOGGLE	F	Ach Offset Enable
ACHOFFSET	QUANT	0	Ach Offset (V)
ACHFILTER	IQUANT	3	Ach Filter
IERANGELOWERLIMIT	IQUANT	1	I/E Range Lower Limit
IERANGEMODE	TOGGLE	F	I/E AutoRange
IERANGE	IQUANT	5	I/E Range
POSFEEDENABLE	TOGGLE	F	Positive Feedback IR Comp
POSFEEDRESISTANCE	QUANT	0	Positive Feedback Resistance (ohm)
ACHSELECT	IQUANT	0	Ach Select
CABLEID	IQUANT	14	Cable ID
DCCALDATE	LABEL	8/19/2019	DC Calibration Date
ACCALDATE	LABEL	8/19/2019	AC Calibration Date
THERMOSELECT	IQUANT	1	Thermo Select
FRAMEWORKVERSION	QUANT	6.33	Framework Version
INSTRUMENTVERSION	LABEL	3.50	Instrument Version
ZCURVE	TABLE
	Pt	Time	Freq	Zreal	Zimag	Zsig	Zmod	Zphz	Idc	Vdc	IERange
	#	s	Hz	ohm	ohm	V	ohm	°	A	V	#
	0	1	1000078	2531.013	-1684.399	1	3040.268	-33.64392	-2.057432E-006	0.0079031	8
	1	3	794390.6	2848.804	-1583.174	1	3259.16	-29.06238	5.98939E-006	0.0060779	8
	2	4	630984.4	3160.407	-1446.324	1	3475.634	-24.59066	-1.880987E-006	0.0069715	8
	3	6	501234.4	3394.698	-1286.763	1	3630.391	-20.75925	4.55901E-006	0.0059003	8
	4	7	398109.4	3567.211	-1106.873	1	3734.991	-17.23864	3.181369E-007	0.006309	8
	5	8	316265.6	3694.14	-973.86	1	3820.35	-14.76848	-4.678241E-007	0.0067287	8
	6	10	251203.1	3811.284	-809.6139	1	3896.327	-11.99281	-2.844009E-006	0.0070206	8
	7	11	199546.9	3887.602	-701.8607	1	3950.45	-10.23384	-1.592069E-006	0.0069319	8
	8	13	158578.1	3930.047	-606.8425	1	3976.623	-8.777775	2.607166E-007	0.0065964	8
	9	14	125953.1	4005.125	-488.9377	1	4034.859	-6.960114	-9.780288E-007	0.0088584	7
	10	15	100078.1	4030.068	-428.2925	1	4052.762	-6.066298	-6.306349E-009	0.0065919	7
	11	17	79453.13	4061.673	-393.4868	1	4080.688	-5.533434	8.355028E-009	0.0064779	7
	12	18	63140.62	4090.143	-370.4996	1	4106.89	-5.175928	-6.139152E-009	0.0065801	7
	13	19	50203.12	4117.644	-355.9267	1	4132.999	-4.940333	8.925516E-008	0.0064757	7
	14	21	39890.62	4145.563	-352.6114	1	4160.532	-4.861736	4.29457E-008	0.0064874	7
	15	22	31640.63	4175.327	-357.2483	1	4190.583	-4.890416	-3.514467E-008	0.0066035	7
	16	23	25171.88	4203.553	-372.8409	1	4220.056	-5.068677	8.276987E-008	0.0063662	7
	17	25	20015.62	4233.312	-396.249	1	4251.816	-5.347453	8.197602E-008	0.0063684	7
	18	26	15890.62	4265.013	-431.6666	1	4286.802	-5.779288	-7.087138E-008	0.0066548	7
	19	27	12609.37	4297.822	-478.2711	1	4324.352	-6.349875	-3.886548E-008	0.0065541	7
	20	29	10078.13	4333.894	-535.624	1	4366.867	-7.045433	1.319266E-007	0.0063314	7
	21	30	8015.625	4372.799	-609.4922	1	4415.071	-7.934915	-5.115538E-009	0.0065735	7
	22	31	6328.125	4413.31	-707.2455	1	4469.62	-9.104403	-3.509083E-009	0.0066582	7
	23	33	5015.625	4458.371	-824.9901	1	4534.058	-10.4836	-5.781263E-009	0.0064891	7
	24	34	3984.375	4509.171	-969.918	1	4612.306	-12.13929	-3.55127E-009	0.0066557	7
	25	36	3170.956	4563.813	-1149.46	1	4706.341	-14.13671	8.941453E-008	0.0064683	7
	26	37	2527.573	4625.207	-1365.517	1	4822.569	-16.44838	-9.41613E-009	0.006489	7
	27	38	1976.103	4701.731	-1657.757	1	4985.422	-19.42186	9.136479E-008	0.0064698	7
	28	40	1577.524	4784.294	-1986.979	1	5180.498	-22.55374	-2.077549E-008	0.0065074	7
	29	41	1265.625	4875.153	-2380.322	1	5425.224	-26.02421	-2.278983E-008	0.0065953	7
	30	42	998.264	4987.668	-2895.386	1	5767.156	-30.13555	4.374476E-008	0.0064026	7
	31	44	796.875	5111.091	-3503.932	1	6196.837	-34.43277	-3.737464E-008	0.0066139	7
	32	45	627.7902	5265.434	-4290.209	1	6791.958	-39.17271	6.138968E-008	0.0064315	7
	33	46	505.5147	5429.344	-5171.414	1	7498.086	-43.6062	-8.705749E-009	0.0066644	7
	34	48	397.9953	5648.746	-6372.771	1	8515.899	-48.44662	5.444342E-009	0.0065557	7
	35	49	315.5048	5905.669	-7818.349	1	9798.14	-52.93405	5.048117E-009	0.0065513	7
	36	50	252.4038	6212.508	-9529.29	1	11375.53	-56.89814	7.956831E-010	0.0064938	6
	37	52	198.6229	6621.274	-11798.48	1	13529.42	-60.69897	9.541599E-010	0.0064944	6
	38	53	158.3615	7116.599	-14451.71	1	16108.94	-63.78252	7.296896E-010	0.0064904	6
	39	55	125.558	7767.859	-17789.77	1	19411.74	-66.41164	8.630723E-010	0.0064933	6
	40	56	100.4464	8595.192	-21734.97	1	23372.77	-68.42345	1.023226E-009	0.0064931	6
	41	57	79.00281	9712.36	-26949.26	1	28645.98	-70.18111	5.241003E-010	0.0064906	6
	42	59	63.3446	11251.2	-32905.1	1	34775.5	-71.12296	4.635778E-010	0.0064916	6
	43	60	49.86702	12983.4	-40453.86	1	42486.27	-72.20631	-6.282101E-011	0.0064886	6
	44	61	39.72458	15694.83	-49283.62	1	51722.36	-72.33544	5.960529E-010	0.0064919	6
	45	63	31.6723	18965.36	-59921.01	1	62850.71	-72.43711	1.002437E-009	0.0064897	6
	46	64	24.93351	23691.69	-73372.49	1	77102.65	-72.10493	5.2003E-010	0.0064907	6
	47	65	19.86229	29624.07	-88591.62	1	93413.38	-71.51063	6.831137E-010	0.0064877	6
	48	67	15.83615	37213.43	-105723.1	1	112081.3	-70.60846	7.865346E-010	0.006496	5
	49	68	12.40079	48069.82	-129028.1	1	137691.5	-69.56696	5.648043E-010	0.0064991	5
	50	70	9.93114	60530.95	-152977.4	1	164517.7	-68.41201	3.00327E-010	0.0064914	5
	51	71	7.944915	76201.59	-180038.2	1	195500.5	-67.05937	-8.195458E-011	0.0064895	5
	52	73	6.317385	96385.3	-211547.5	1	232470.3	-65.50504	1.756702E-010	0.0064841	5
	53	75	5.008013	121658	-247332.2	1	275633.6	-63.80831	-6.949133E-011	0.0064849	5
	54	77	3.945707	152898.4	-287605.4	1	325722	-62.00375	3.370466E-010	0.0064971	5
	55	80	3.158693	187466.8	-329249.5	1	378878.7	-60.34386	-1.337601E-010	0.0064746	5
	56	83	2.504006	229295.9	-375127.4	1	439655.8	-58.56473	7.577688E-010	0.0064961	5
	57	86	1.998082	275227	-423733.3	1	505272	-56.99511	1.893204E-010	0.0065316	5
	58	89	1.584686	325094	-477380.1	1	577562	-55.74529	2.393565E-010	0.0064946	5
	59	93	1.266892	379927.6	-534557.4	1	655817.5	-54.59734	5.107223E-011	0.0065375	5
	60	97	0.999041	439129	-602433.1	1	745493.1	-53.91073	9.210666E-011	0.0064541	5
