EXPLAIN
TAG	EISPOT
TITLE	LABEL	Potentiostatic EIS	Test &Identifier
DATE	LABEL	11/11/2019	Date
TIME	LABEL	12:44:45	Time
NOTES	NOTES	3	&Notes...
	
	
	
PSTAT	PSTAT	REF600-11020	Potentiostat
VDC	POTEN	0.00000E+000	T	DC &Voltage (V)
FREQINIT	QUANT	1.00000E+006	Initial Fre&q. (Hz)
FREQFINAL	QUANT	1.00000E+000	Final Fre&q. (Hz)
PTSPERDEC	QUANT	1.00000E+001	Points/&decade
VAC	QUANT	2.50000E+001	AC &Voltage (mV rms)
AREA	QUANT	1.00000E-002	&Area (cm^2)
CONDIT	TWOPARAM	T	5.00000E+000	0.00000E+000	Conditionin&g	Time(s)	E(V)
DELAY	TWOPARAM	T	5.00000E+000	0.00000E+000	Init. De&lay	Time(s)	Stab.(mV/s)
SPEED	SELECTOR	1	&Optimize for:
ZGUESS	QUANT	1.00000E+005	E&stimated Z (ohms)
OCVCURVE	TABLE	19
	Pt	T	Vf	Vm	Ach	Over
	#	s	V vs. Ref.	V	V	bits
	0	0.258333	5.24372E-003	5.24372E-003	5.51199E-004	...........
	1	0.516667	5.23734E-003	4.90965E-003	5.51499E-004	...........
	2	0.775	5.19485E-003	4.42030E-003	5.55366E-004	...........
	3	1.03333	5.05935E-003	3.72361E-003	5.46966E-004	...........
	4	1.29167	4.82430E-003	5.54287E-003	5.43866E-004	...........
	5	1.55	4.62968E-003	4.97463E-003	5.49299E-004	...........
	6	1.80833	4.62576E-003	4.71859E-003	5.49466E-004	...........
	7	2.06667	4.74952E-003	4.66271E-003	5.47599E-004	...........
	8	2.325	4.82873E-003	4.70138E-003	5.44899E-004	...........
	9	2.58333	4.79922E-003	4.03090E-003	5.41866E-004	...........
	10	2.84167	4.67666E-003	3.94196E-003	5.49466E-004	...........
	11	3.1	4.48897E-003	4.44472E-003	5.49133E-004	...........
	12	3.35833	4.31527E-003	4.40771E-003	5.50133E-004	...........
	13	3.61667	4.23648E-003	3.96647E-003	5.47433E-004	...........
	14	3.875	4.23885E-003	4.73297E-003	5.46066E-004	...........
	15	4.13333	4.28192E-003	4.76852E-003	5.42066E-004	...........
	16	4.39167	4.37864E-003	4.81544E-003	5.48533E-004	...........
	17	4.65	4.53023E-003	5.04699E-003	5.51199E-004	...........
	18	4.90833	4.69107E-003	4.79895E-003	5.53166E-004	...........
EOC	QUANT	0.0046911	Open Circuit (V)
PSTATMODEL	IQUANT	4	Pstat Model
PSTATSECTION	LABEL	REF600-11020	Pstat Section
PSTATSERIALNO	LABEL	11020	Pstat Serial Number
CTRLMODE	IQUANT	1	Control Mode
IESTAB	IQUANT	0	I/E Stability
CASPEED	IQUANT	1	Control Amp Speed
CONVENTION	IQUANT	1	Current Convention
ICHRANGE	IQUANT	2	Ich Range
ICHRANGEMODE	TOGGLE	F	Ich Auto Range
ICHOFFSETENABLE	TOGGLE	T	Ich Offset Enable
ICHOFFSET	QUANT	0	Ich Offset (V)
ICHFILTER	IQUANT	3	Ich Filter
VCHRANGE	IQUANT	2	Vch Range
VCHRANGEMODE	TOGGLE	F	Vch Auto Range
VCHOFFSETENABLE	TOGGLE	T	Vch Offset Enable
VCHOFFSET	QUANT	0	Vch Offset (V)
VCHFILTER	IQUANT	3	Vch Filter
ACHRANGE	IQUANT	2	Ach Range
ACHOFFSETENABLE	TOGGLE	F	Ach Offset Enable
ACHOFFSET	QUANT	0	Ach Offset (V)
ACHFILTER	IQUANT	3	Ach Filter
IERANGELOWERLIMIT	IQUANT	1	I/E Range Lower Limit
IERANGEMODE	TOGGLE	F	I/E AutoRange
IERANGE	IQUANT	4	I/E Range
POSFEEDENABLE	TOGGLE	F	Positive Feedback IR Comp
POSFEEDRESISTANCE	QUANT	0	Positive Feedback Resistance (ohm)
ACHSELECT	IQUANT	0	Ach Select
CABLEID	IQUANT	14	Cable ID
DCCALDATE	LABEL	8/19/2019	DC Calibration Date
ACCALDATE	LABEL	8/19/2019	AC Calibration Date
THERMOSELECT	IQUANT	1	Thermo Select
FRAMEWORKVERSION	QUANT	6.33	Framework Version
INSTRUMENTVERSION	LABEL	3.50	Instrument Version
ZCURVE	TABLE
	Pt	Time	Freq	Zreal	Zimag	Zsig	Zmod	Zphz	Idc	Vdc	IERange
	#	s	Hz	ohm	ohm	V	ohm	°	A	V	#
	0	2	1000078	2480.684	-1458.943	1	2877.899	-30.46069	1.814682E-006	0.0065214	8
	1	3	794390.6	2745.411	-1358.488	1	3063.131	-26.32719	-2.195583E-006	0.0071099	8
	2	4	630984.4	2980.141	-1227.427	1	3223.014	-22.38522	1.36127E-006	0.0068811	8
	3	6	501234.4	3162.94	-1100.851	1	3349.039	-19.19029	-1.500866E-006	0.0068032	8
	4	7	398109.4	3323.179	-965.819	1	3460.683	-16.20551	-2.209334E-006	0.0062511	8
	5	8	316265.6	3431.472	-838.6448	1	3532.467	-13.73376	8.700655E-007	0.006651	8
	6	10	251203.1	3511.229	-727.6585	1	3585.836	-11.7081	5.24813E-006	0.005668	8
	7	11	199546.9	3582.784	-648.9545	1	3641.082	-10.26675	6.019376E-006	0.0056386	8
	8	12	158578.1	3648.578	-582.7543	1	3694.823	-9.074687	-6.483143E-007	0.0060488	8
	9	14	125953.1	3714.131	-465.3061	1	3743.164	-7.140808	-2.019701E-006	0.006937	7
	10	15	100078.1	3751.33	-431.4665	1	3776.062	-6.561154	-1.09327E-006	0.0075644	7
	11	16	79453.13	3788.038	-418.1856	1	3811.051	-6.299737	-6.474953E-007	0.0061146	7
	12	18	63140.62	3825.307	-418.9511	1	3848.181	-6.250175	9.801015E-007	0.0052502	7
	13	19	50203.12	3863.449	-423.3199	1	3886.572	-6.252981	7.451977E-007	0.0060607	7
	14	21	39890.62	3901.325	-439.7354	1	3926.03	-6.430915	6.504398E-008	0.0071168	7
	15	22	31640.63	3945.102	-465.6933	1	3972.493	-6.732234	9.074072E-007	0.0056219	7
	16	23	25171.88	3992.477	-500.9348	1	4023.781	-7.151512	9.811016E-007	0.005248	7
	17	25	20015.62	4041.839	-533.2822	1	4076.868	-7.51622	-8.00363E-007	0.0077603	7
	18	26	15890.62	4094.151	-598.1957	1	4137.621	-8.312657	-9.324075E-007	0.0067111	7
	19	27	12609.37	4155.657	-663.9302	1	4208.359	-9.077171	-8.000317E-007	0.0077553	7
	20	29	10078.13	4218.986	-741.3334	1	4283.622	-9.96592	-1.092656E-006	0.00755	7
	21	30	8015.625	4288.396	-835.3115	1	4368.991	-11.02229	-2.666699E-007	0.0054836	7
	22	31	6328.125	4372.327	-948.5736	1	4474.041	-12.24059	6.490492E-008	0.0071185	7
	23	33	5015.625	4458.032	-1083.951	1	4587.918	-13.66603	9.718676E-007	0.0049585	7
	24	34	3984.375	4539.298	-1239.727	1	4705.545	-15.27551	-9.780747E-007	0.0077009	7
	25	35	3170.956	4639.445	-1432.719	1	4855.629	-17.16135	6.457051E-008	0.0071163	7
	26	37	2527.573	4739.47	-1663.413	1	5022.899	-19.33956	-5.538888E-007	0.007679	7
	27	38	1976.103	4857.338	-1972.395	1	5242.526	-22.10034	-1.086807E-006	0.0072286	7
	28	39	1577.524	4957.6	-2307.207	1	5468.181	-24.9567	4.390059E-007	0.0047655	7
	29	41	1265.625	5113.735	-2733.295	1	5798.378	-28.12454	-1.085989E-006	0.0072231	7
	30	42	998.264	5277.288	-3277.029	1	6211.979	-31.83898	-9.307214E-007	0.0067054	7
	31	43	796.875	5453.318	-3919.629	1	6715.815	-35.70708	9.084073E-007	0.0056162	7
	32	45	627.7902	5665.149	-4742.794	1	7388.37	-39.93567	9.71418E-007	0.004952	7
	33	46	505.5147	5889.086	-5656.419	1	8165.563	-43.84552	9.703987E-007	0.0049505	7
	34	48	397.9953	6182.931	-6885.979	1	9254.477	-48.07928	2.365625E-009	0.0062813	7
	35	49	315.5048	6518.728	-8359.285	1	10600.54	-52.05223	1.558857E-009	0.0062155	6
	36	50	252.4038	6893.749	-10094.17	1	12223.58	-55.66912	4.958604E-010	0.0062199	6
	37	52	198.6229	7374.595	-12389.27	1	14418	-59.23718	7.935846E-010	0.0062147	6
	38	53	158.3615	7922.192	-15069.19	1	17024.74	-62.26815	3.358846E-010	0.0062127	6
	39	55	125.558	8610.1	-18435.63	1	20347.15	-64.96574	9.354754E-010	0.0062104	6
	40	56	100.4464	9447.657	-22416.3	1	24325.88	-67.14634	1.380676E-010	0.0062126	6
	41	57	79.00281	10608.73	-27669.94	1	29633.95	-69.02304	5.61866E-010	0.0062053	6
	42	59	63.3446	11896.76	-33369.03	1	35426.33	-70.37778	7.070441E-010	0.0062074	6
	43	60	49.86702	13887.21	-41638.88	1	43893.63	-71.55566	4.102837E-010	0.0061985	6
	44	61	39.72458	16064.21	-50666.32	1	53151.99	-72.40832	6.148053E-010	0.0062156	6
	45	63	31.6723	19220.2	-61761.87	1	64683.42	-72.71394	1.303595E-009	0.0062065	6
	46	64	24.93351	23334.33	-75673.26	1	79189.23	-72.86252	1.080945E-009	0.006198	6
	47	66	19.86229	28545.95	-91894.11	1	96225.8	-72.74313	2.682935E-010	0.0062086	6
	48	67	15.83615	35160.6	-109951.9	1	115436.9	-72.26667	-5.936334E-010	0.0062152	5
	49	68	12.40079	45885.42	-135622.7	1	143174.6	-71.3077	1.490256E-009	0.0062029	5
	50	70	9.93114	55998.3	-162304.3	1	171693	-70.96452	-9.625101E-011	0.0062106	5
	51	71	7.944915	70691.56	-193143.9	1	205674.2	-69.89714	-3.036719E-010	0.0062065	5
	52	73	6.317385	89643.8	-230224.5	1	247061.4	-68.72527	1.596985E-010	0.0061961	5
	53	75	5.008013	114063	-273615.5	1	296438.5	-67.37004	1.526182E-010	0.0062119	5
	54	77	3.945707	145146.8	-323211.9	1	354307.1	-65.81629	2.48268E-010	0.0062233	5
	55	80	3.158693	180998.6	-376624.8	1	417859.7	-64.33195	-5.920841E-011	0.0062012	5
	56	83	2.504006	226131.5	-437623.2	1	492594.7	-62.6734	4.730046E-010	0.0062175	5
	57	86	1.998082	278167.5	-503188.1	1	574956.8	-61.06574	3.077927E-010	0.0062511	5
	58	89	1.584686	339434.3	-574124.7	1	666959.4	-59.40755	2.329378E-010	0.0061964	5
	59	93	1.266892	408743	-653013	1	770387.4	-57.95615	1.631043E-010	0.0062501	5
	60	97	0.999041	489672.7	-741942.8	1	888964.8	-56.5757	1.89237E-011	0.0061761	5
