EXPLAIN
TAG	EISPOT
TITLE	LABEL	Potentiostatic EIS	Test &Identifier
DATE	LABEL	11/20/2019	Date
TIME	LABEL	10:28:10	Time
NOTES	NOTES	4	&Notes...
	
	
	
	
PSTAT	PSTAT	REF600-11020	Potentiostat
VDC	POTEN	0.00000E+000	T	DC &Voltage (V)
FREQINIT	QUANT	1.00000E+006	Initial Fre&q. (Hz)
FREQFINAL	QUANT	1.00000E+000	Final Fre&q. (Hz)
PTSPERDEC	QUANT	1.00000E+001	Points/&decade
VAC	QUANT	2.50000E+001	AC &Voltage (mV rms)
AREA	QUANT	1.00000E-002	&Area (cm^2)
CONDIT	TWOPARAM	T	5.00000E+000	0.00000E+000	Conditionin&g	Time(s)	E(V)
DELAY	TWOPARAM	T	5.00000E+000	0.00000E+000	Init. De&lay	Time(s)	Stab.(mV/s)
SPEED	SELECTOR	0	&Optimize for:
ZGUESS	QUANT	1.00000E+005	E&stimated Z (ohms)
OCVCURVE	TABLE	19
	Pt	T	Vf	Vm	Ach	Over
	#	s	V vs. Ref.	V	V	bits
	0	0.258333	4.21573E-003	4.21573E-003	5.35499E-004	...........
	1	0.516667	4.21198E-003	4.01958E-003	5.33366E-004	...........
	2	0.775	4.18920E-003	3.84560E-003	5.34200E-004	...........
	3	1.03333	4.12589E-003	3.69831E-003	5.41433E-004	...........
	4	1.29167	4.01600E-003	3.57149E-003	5.32733E-004	...........
	5	1.55	3.87650E-003	3.45339E-003	5.38266E-004	...........
	6	1.80833	3.73112E-003	3.34966E-003	5.33866E-004	...........
	7	2.06667	3.59501E-003	3.25420E-003	5.27966E-004	...........
	8	2.325	3.47310E-003	3.16683E-003	5.38499E-004	...........
	9	2.58333	3.36459E-003	3.08573E-003	5.30700E-004	...........
	10	2.84167	3.26702E-003	3.01175E-003	5.38833E-004	...........
	11	3.1	3.17822E-003	2.94402E-003	5.38466E-004	...........
	12	3.35833	3.09675E-003	2.87858E-003	5.39033E-004	...........
	13	3.61667	3.02156E-003	2.81630E-003	5.35333E-004	...........
	14	3.875	2.95165E-003	2.76165E-003	5.36099E-004	...........
	15	4.13333	2.88625E-003	2.70638E-003	5.38799E-004	...........
	16	4.39167	2.82495E-003	2.65576E-003	5.32733E-004	...........
	17	4.65	2.76726E-003	2.60294E-003	5.33933E-004	...........
	18	4.90833	2.71250E-003	2.55757E-003	5.36833E-004	...........
EOC	QUANT	0.0027125	Open Circuit (V)
PSTATMODEL	IQUANT	4	Pstat Model
PSTATSECTION	LABEL	REF600-11020	Pstat Section
PSTATSERIALNO	LABEL	11020	Pstat Serial Number
CTRLMODE	IQUANT	1	Control Mode
IESTAB	IQUANT	0	I/E Stability
CASPEED	IQUANT	1	Control Amp Speed
CONVENTION	IQUANT	1	Current Convention
ICHRANGE	IQUANT	2	Ich Range
ICHRANGEMODE	TOGGLE	F	Ich Auto Range
ICHOFFSETENABLE	TOGGLE	T	Ich Offset Enable
ICHOFFSET	QUANT	0	Ich Offset (V)
ICHFILTER	IQUANT	3	Ich Filter
VCHRANGE	IQUANT	2	Vch Range
VCHRANGEMODE	TOGGLE	F	Vch Auto Range
VCHOFFSETENABLE	TOGGLE	T	Vch Offset Enable
VCHOFFSET	QUANT	0	Vch Offset (V)
VCHFILTER	IQUANT	3	Vch Filter
ACHRANGE	IQUANT	2	Ach Range
ACHOFFSETENABLE	TOGGLE	F	Ach Offset Enable
ACHOFFSET	QUANT	0	Ach Offset (V)
ACHFILTER	IQUANT	3	Ach Filter
IERANGELOWERLIMIT	IQUANT	1	I/E Range Lower Limit
IERANGEMODE	TOGGLE	F	I/E AutoRange
IERANGE	IQUANT	4	I/E Range
POSFEEDENABLE	TOGGLE	F	Positive Feedback IR Comp
POSFEEDRESISTANCE	QUANT	0	Positive Feedback Resistance (ohm)
ACHSELECT	IQUANT	0	Ach Select
CABLEID	IQUANT	14	Cable ID
DCCALDATE	LABEL	8/19/2019	DC Calibration Date
ACCALDATE	LABEL	8/19/2019	AC Calibration Date
THERMOSELECT	IQUANT	1	Thermo Select
FRAMEWORKVERSION	QUANT	6.33	Framework Version
INSTRUMENTVERSION	LABEL	3.50	Instrument Version
ZCURVE	TABLE
	Pt	Time	Freq	Zreal	Zimag	Zsig	Zmod	Zphz	Idc	Vdc	IERange
	#	s	Hz	ohm	ohm	V	ohm	°	A	V	#
	0	2	1000078	2199.577	-2219.151	1	3124.543	-45.25381	-4.589889E-006	0.0055516	8
	1	2	794390.6	2676.46	-2277.33	1	3514.21	-40.39359	2.455387E-006	0.0050972	8
	2	2	630984.4	3150.787	-2244.451	1	3868.465	-35.46403	-8.175211E-007	0.0042148	8
	3	3	501234.4	3596.183	-2121.625	1	4175.383	-30.53914	-2.905502E-007	0.0048788	8
	4	3	398109.4	3976.008	-1953.514	1	4429.995	-26.16607	-2.477252E-006	0.0048558	8
	5	3	316265.6	4292.958	-1755.81	1	4638.142	-22.24444	8.058715E-007	0.0046887	8
	6	4	251203.1	4558.47	-1551.041	1	4815.119	-18.79111	6.245677E-007	0.0046829	8
	7	4	199546.9	4768.883	-1331.875	1	4951.377	-15.60422	-2.369656E-006	0.004797	8
	8	4	158578.1	4888.945	-1141.846	1	5020.517	-13.14616	1.85923E-006	0.0039178	8
	9	5	125953.1	5037.052	-957.271	1	5127.208	-10.7605	-2.726911E-006	0.0065099	7
	10	5	100078.1	5132.676	-838.6619	1	5200.742	-9.27993	-7.010307E-007	0.0041273	7
	11	5	79453.13	5206.308	-742.4542	1	5258.981	-8.116036	-2.870806E-007	0.0034491	7
	12	6	63140.62	5266.041	-668.6565	1	5308.323	-7.236417	5.030449E-008	0.0052531	7
	13	6	50203.12	5322.054	-614.6769	1	5357.433	-6.588253	7.753486E-007	0.00255	7
	14	6	39890.62	5367.611	-575.4727	1	5398.372	-6.119424	-8.867373E-007	0.0059328	7
	15	7	31640.63	5414.299	-551.0864	1	5442.273	-5.811751	-1.185497E-006	0.0053311	7
	16	7	25171.88	5461.904	-542.0727	1	5488.738	-5.667822	1.075769E-006	0.0032002	7
	17	7	20015.62	5511.485	-550.733	1	5538.933	-5.706317	-2.885792E-007	0.0034377	7
	18	7	15890.62	5543.585	-563.8987	1	5572.192	-5.808203	8.036884E-007	0.0040936	7
	19	8	12609.37	5583.163	-600.5605	1	5615.37	-6.139493	-3.008512E-007	0.0056189	7
	20	8	10078.13	5625.961	-651.7255	1	5663.584	-6.607834	-2.883995E-007	0.0034308	7
	21	8	8015.625	5665.52	-730.759	1	5712.454	-7.349636	5.805783E-007	0.0045112	7
	22	9	6328.125	5708.1	-822.8806	1	5767.108	-8.203253	-7.002337E-007	0.004105	7
	23	9	5015.625	5754.005	-950.05	1	5831.91	-9.375584	-1.075927E-006	0.0058511	7
	24	9	3984.375	5804.982	-1112.225	1	5910.572	-10.84633	8.029368E-007	0.0040974	7
	25	10	3170.956	5858.083	-1314.063	1	6003.657	-12.64309	-1.012472E-006	0.0047591	7
	26	10	2527.573	5929.921	-1565.994	1	6133.213	-14.79315	1.066451E-006	0.0028542	7
	27	11	1976.103	6006.116	-1906.563	1	6301.461	-17.61135	9.696048E-007	0.0026172	7
	28	11	1577.524	6091.7	-2254.902	1	6495.644	-20.31252	-1.206876E-006	0.0056819	7
	29	11	1265.625	6189.898	-2744.712	1	6771.136	-23.91336	-2.922125E-007	0.0034094	7
	30	12	998.264	6312.961	-3364.041	1	7153.338	-28.05219	1.235923E-007	0.0029045	7
	31	12	796.875	6457.283	-4081.698	1	7639.16	-32.29729	7.733685E-007	0.0025255	7
	32	13	627.7902	6638.677	-5010.456	1	8317.253	-37.04321	-6.204986E-007	0.0058396	7
	33	13	505.5147	6835.905	-6051.299	1	9129.503	-41.51599	-2.943391E-007	0.0034256	7
	34	13	397.9953	7111.478	-7468.747	1	10312.87	-46.40368	3.940115E-009	0.0042976	7
	35	14	315.5048	7446.162	-9165.167	1	11808.71	-50.90816	1.267109E-009	0.0042339	6
	36	14	252.4038	7845.579	-11166.73	1	13647.3	-54.90869	3.347419E-010	0.0042411	6
	37	14	198.6229	8392.234	-13806.18	1	16156.74	-58.70622	8.338241E-010	0.0042335	6
	38	15	158.3615	9060.969	-16875.86	1	19154.53	-61.76781	8.939843E-010	0.0042319	6
	39	15	125.558	9937.09	-20723.55	1	22982.85	-64.38195	2.947595E-010	0.0042466	6
	40	15	100.4464	11071.97	-25238.77	1	27560.55	-66.31347	-4.3502E-010	0.0042407	6
	41	16	79.00281	12638.03	-31208.01	1	33669.87	-67.95397	-4.650856E-010	0.0042469	6
	42	16	63.3446	14422.72	-37479.76	1	40159.02	-68.95259	3.210551E-010	0.0042367	6
	43	16	49.86702	17301.58	-46124.67	1	49262.87	-69.4387	7.978354E-010	0.0042288	6
	44	17	39.72458	20880.78	-56197.46	1	59951.32	-69.6169	7.448989E-010	0.0042459	6
	45	17	31.6723	25637.03	-67842.45	1	72524.86	-69.29888	7.296601E-010	0.0042418	6
	46	17	24.93351	32153.06	-81933.21	1	88016.31	-68.57346	6.851145E-010	0.0042362	6
	47	18	19.86229	40057.5	-97489.4	1	105398.2	-67.6627	1.432967E-009	0.0042556	5
	48	18	15.83615	50388.41	-115110.5	1	125655.9	-66.3591	-1.032268E-010	0.0042417	5
	49	18	12.40079	64628.3	-137352.1	1	151797.3	-64.80161	5.138112E-010	0.0042382	5
	50	19	9.93114	78465.77	-159376.3	1	177644.8	-63.78758	-1.044209E-010	0.0042386	5
	51	19	7.944915	95432.2	-183780.3	1	207080.9	-62.55835	8.871747E-010	0.004227	5
	52	20	6.317385	116359.1	-211557.3	1	241445.5	-61.18868	6.065348E-010	0.0042206	5
	53	21	5.008013	140405.3	-243749.6	1	281296.1	-60.05709	1.939951E-010	0.0042395	5
	54	22	3.945707	168386	-280934.2	1	327533	-59.06242	1.781486E-010	0.0042478	5
	55	23	3.158693	198227.3	-321455.8	1	377661.1	-58.33973	-4.74645E-011	0.0042246	5
	56	25	2.504006	233510.9	-368829.6	1	436534.8	-57.66156	6.339123E-011	0.0042261	5
	57	26	1.998082	272844	-421739.8	1	502303	-57.09921	2.59757E-010	0.0042616	5
	58	28	1.584686	317667.6	-482626.7	1	577789.9	-56.64686	1.412915E-010	0.0042293	5
	59	29	1.266892	369124.1	-550342.3	1	662668.3	-56.14956	5.783828E-011	0.0041962	5
	60	32	0.999041	430517.1	-632991.1	1	765521.2	-55.77915	3.060454E-011	0.0041856	5
