EXPLAIN
TAG	EISPOT
TITLE	LABEL	Potentiostatic EIS	Test &Identifier
DATE	LABEL	9/20/2019	Date
TIME	LABEL	11:14:17	Time
NOTES	NOTES	1	&Notes...
	
PSTAT	PSTAT	REF600-11020	Potentiostat
VDC	POTEN	0.00000E+000	T	DC &Voltage (V)
FREQINIT	QUANT	1.00000E+006	Initial Fre&q. (Hz)
FREQFINAL	QUANT	1.00000E+000	Final Fre&q. (Hz)
PTSPERDEC	QUANT	1.00000E+001	Points/&decade
VAC	QUANT	2.50000E+001	AC &Voltage (mV rms)
AREA	QUANT	1.00000E-002	&Area (cm^2)
CONDIT	TWOPARAM	T	5.00000E+000	0.00000E+000	Conditionin&g	Time(s)	E(V)
DELAY	TWOPARAM	T	5.00000E+000	0.00000E+000	Init. De&lay	Time(s)	Stab.(mV/s)
SPEED	SELECTOR	1	&Optimize for:
ZGUESS	QUANT	1.00000E+004	E&stimated Z (ohms)
OCVCURVE	TABLE	19
	Pt	T	Vf	Vm	Ach	Over
	#	s	V vs. Ref.	V	V	bits
	0	0.258333	-2.64713E-004	-2.64713E-004	5.68632E-004	...........
	1	0.516667	-2.76219E-004	-8.66991E-004	5.69866E-004	...........
	2	0.775	-3.45760E-004	-1.37974E-003	5.66999E-004	...........
	3	1.03333	-5.39070E-004	-1.88625E-003	5.70766E-004	...........
	4	1.29167	-8.76638E-004	-2.24962E-003	5.69732E-004	...........
	5	1.55	-1.31078E-003	-2.73806E-003	5.69332E-004	...........
	6	1.80833	-1.77208E-003	-2.94470E-003	5.64966E-004	...........
	7	2.06667	-2.21224E-003	-3.41265E-003	5.71632E-004	...........
	8	2.325	-2.61609E-003	-3.78614E-003	5.71766E-004	...........
	9	2.58333	-2.99495E-003	-4.06637E-003	5.66032E-004	...........
	10	2.84167	-3.35963E-003	-4.32571E-003	5.72132E-004	...........
	11	3.1	-3.70329E-003	-4.58837E-003	5.63766E-004	...........
	12	3.35833	-4.01600E-003	-4.82812E-003	5.72199E-004	...........
	13	3.61667	-4.29858E-003	-5.05348E-003	5.66932E-004	...........
	14	3.875	-4.55831E-003	-5.28788E-003	5.66899E-004	...........
	15	4.13333	-4.80188E-003	-5.47239E-003	5.65599E-004	...........
	16	4.39167	-5.03190E-003	-5.64508E-003	5.66066E-004	...........
	17	4.65	-5.24662E-003	-5.81195E-003	5.70166E-004	...........
	18	4.90833	-5.44530E-003	-6.03997E-003	5.66432E-004	...........
EOC	QUANT	-0.0054453	Open Circuit (V)
PSTATMODEL	IQUANT	4	Pstat Model
PSTATSECTION	LABEL	REF600-11020	Pstat Section
PSTATSERIALNO	LABEL	11020	Pstat Serial Number
CTRLMODE	IQUANT	1	Control Mode
IESTAB	IQUANT	0	I/E Stability
CASPEED	IQUANT	1	Control Amp Speed
CONVENTION	IQUANT	1	Current Convention
ICHRANGE	IQUANT	2	Ich Range
ICHRANGEMODE	TOGGLE	F	Ich Auto Range
ICHOFFSETENABLE	TOGGLE	T	Ich Offset Enable
ICHOFFSET	QUANT	0	Ich Offset (V)
ICHFILTER	IQUANT	3	Ich Filter
VCHRANGE	IQUANT	2	Vch Range
VCHRANGEMODE	TOGGLE	F	Vch Auto Range
VCHOFFSETENABLE	TOGGLE	T	Vch Offset Enable
VCHOFFSET	QUANT	0	Vch Offset (V)
VCHFILTER	IQUANT	3	Vch Filter
ACHRANGE	IQUANT	2	Ach Range
ACHOFFSETENABLE	TOGGLE	F	Ach Offset Enable
ACHOFFSET	QUANT	0	Ach Offset (V)
ACHFILTER	IQUANT	3	Ach Filter
IERANGELOWERLIMIT	IQUANT	1	I/E Range Lower Limit
IERANGEMODE	TOGGLE	F	I/E AutoRange
IERANGE	IQUANT	6	I/E Range
POSFEEDENABLE	TOGGLE	F	Positive Feedback IR Comp
POSFEEDRESISTANCE	QUANT	0	Positive Feedback Resistance (ohm)
ACHSELECT	IQUANT	0	Ach Select
CABLEID	IQUANT	14	Cable ID
DCCALDATE	LABEL	8/19/2019	DC Calibration Date
ACCALDATE	LABEL	8/19/2019	AC Calibration Date
THERMOSELECT	IQUANT	1	Thermo Select
FRAMEWORKVERSION	QUANT	6.33	Framework Version
INSTRUMENTVERSION	LABEL	3.50	Instrument Version
ZCURVE	TABLE
	Pt	Time	Freq	Zreal	Zimag	Zsig	Zmod	Zphz	Idc	Vdc	IERange
	#	s	Hz	ohm	ohm	V	ohm	°	A	V	#
	0	1	1000078	2238.741	-2143.92	1	3099.735	-43.76056	-6.73445E-006	-0.0016576	8
	1	3	794390.6	2703.181	-2222.944	1	3499.81	-39.43196	4.809017E-006	-0.0040678	8
	2	4	630984.4	3138.551	-2183.845	1	3823.569	-34.83071	2.731701E-006	-0.0045085	8
	3	6	501234.4	3578.808	-2085.952	1	4142.35	-30.23629	8.013892E-007	-0.0040403	8
	4	7	398109.4	3981.921	-1920.271	1	4420.762	-25.74557	1.940275E-007	-0.003842	8
	5	8	316265.6	4271.016	-1741.767	1	4612.519	-22.18618	-3.636553E-006	-0.0031092	8
	6	10	251203.1	4513.193	-1528.943	1	4765.142	-18.71494	3.330371E-006	-0.0045911	8
	7	11	199546.9	4708.244	-1363.266	1	4901.638	-16.14831	4.276252E-006	-0.0047275	8
	8	13	158578.1	4848.071	-1194.073	1	4992.955	-13.83647	9.614383E-007	-0.0039217	8
	9	14	125953.1	5023.899	-1008.939	1	5124.209	-11.35554	3.819429E-007	-0.0047935	7
	10	16	100078.1	5090.582	-896.4805	1	5168.917	-9.9877	1.253059E-008	-0.0040265	7
	11	17	79453.13	5163.936	-825.6619	1	5229.526	-9.084134	4.293474E-008	-0.0040901	7
	12	18	63140.62	5231.348	-777.4437	1	5288.801	-8.453001	4.283316E-008	-0.004099	7
	13	20	50203.12	5293.244	-751.9601	1	5346.389	-8.085358	-5.594592E-008	-0.0039127	7
	14	21	39890.62	5354.24	-743.8557	1	5405.665	-7.909379	8.675477E-008	-0.004144	7
	15	22	31640.63	5418.819	-759.6797	1	5471.811	-7.980448	-3.927959E-008	-0.0039472	7
	16	24	25171.88	5484.364	-793.0572	1	5541.406	-8.228126	-2.649189E-008	-0.0038774	7
	17	25	20015.62	5555.277	-844.2615	1	5619.064	-8.641385	9.625296E-008	-0.0040195	7
	18	27	15890.62	5635.81	-914.9788	1	5709.601	-9.221563	-3.855292E-008	-0.0039142	7
	19	28	12609.37	5717.107	-1011.818	1	5805.953	-10.03633	-3.924677E-008	-0.00392	7
	20	29	10078.13	5805.273	-1124.589	1	5913.197	-10.96346	8.827217E-008	-0.0041402	7
	21	31	8015.625	5904.823	-1265.899	1	6038.993	-12.10013	-2.749831E-008	-0.0038863	7
	22	32	6328.125	6017.128	-1443.717	1	6187.903	-13.49219	-5.542773E-008	-0.0037795	7
	23	33	5015.625	6138.418	-1653.881	1	6357.318	-15.07919	-7.622121E-008	-0.0038367	7
	24	35	3984.375	6269.271	-1907.143	1	6552.935	-16.92002	6.906189E-008	-0.0040796	7
	25	36	3170.956	6413.806	-2211.592	1	6784.397	-19.02509	-3.018492E-008	-0.0039574	7
	26	37	2527.573	6568.626	-2574.643	1	7055.185	-21.40322	3.695636E-009	-0.0038291	7
	27	39	1976.103	6760.928	-3059.756	1	7421.068	-24.34982	-5.27227E-008	-0.0037765	7
	28	40	1577.524	6952.946	-3598.598	1	7829.008	-27.36448	1.514344E-008	-0.0040459	7
	29	42	1265.625	7163.354	-4209.986	1	8308.888	-30.44325	1.408779E-007	-0.0041754	7
	30	43	998.264	7416.599	-5080.543	1	8989.876	-34.41205	-6.949797E-010	-0.0039233	7
	31	44	796.875	7694.797	-6054.5	1	9791.16	-38.19675	-3.294823E-010	-0.0040462	6
	32	46	627.7902	8024.312	-7326.328	1	10865.76	-42.39659	-1.883504E-009	-0.0039061	6
	33	47	505.5147	8377.143	-8737.898	1	12104.85	-46.20752	2.588521E-009	-0.0039948	6
	34	48	397.9953	8822.434	-10646.69	1	13827.05	-50.35297	5.811132E-010	-0.0040042	6
	35	50	315.5048	9334.379	-12931.31	1	15948.34	-54.17662	1.119644E-009	-0.0040091	6
	36	51	252.4038	9912.56	-15617.35	1	18497.58	-57.59612	6.257826E-010	-0.00401	6
	37	52	198.6229	10664.82	-19173.58	1	21940.03	-60.91611	7.433671E-010	-0.004009	6
	38	54	158.3615	11528.44	-23317.3	1	26011.56	-63.69148	6.376759E-010	-0.0040084	6
	39	55	125.558	12611.32	-28523.31	1	31186.93	-66.14782	1.102475E-009	-0.0040052	6
	40	57	100.4464	13868.49	-34657.79	1	37329.58	-68.19093	9.787706E-010	-0.0040096	6
	41	58	79.00281	15603.25	-42777.38	1	45534.23	-69.96032	4.188812E-010	-0.0040069	6
	42	59	63.3446	17747.43	-51467.7	1	54441.67	-70.97445	1.00083E-009	-0.0040139	6
	43	61	49.86702	20951.67	-64411.79	1	67733.67	-71.98148	1.031847E-009	-0.0040122	6
	44	62	39.72458	24362.79	-78235.62	1	81941.18	-72.70326	8.783134E-010	-0.004007	6
	45	64	31.6723	28850.01	-95118.3	1	99397.2	-73.1271	1.098836E-009	-0.0040144	6
	46	65	24.93351	35682.48	-116940.5	1	122263.4	-73.0313	4.412859E-010	-0.0040145	5
	47	66	19.86229	44097	-141696.5	1	148399.6	-72.71348	3.455364E-010	-0.0040035	5
	48	68	15.83615	54119.58	-170707.1	1	179080.5	-72.40972	8.257504E-010	-0.0040036	5
	49	69	12.40079	70926.21	-210645.7	1	222265.9	-71.39118	1.090211E-011	-0.0040021	5
	50	71	9.93114	89686.32	-250737	1	266294.3	-70.31834	5.313389E-010	-0.0040039	5
	51	72	7.944915	114544.9	-298658.6	1	319871.1	-69.01663	1.716063E-010	-0.0040023	5
	52	74	6.317385	147803.9	-353663.3	1	383306.3	-67.31885	6.647764E-013	-0.004005	5
	53	76	5.008013	190468	-416733.3	1	458197.3	-65.43723	8.603929E-011	-0.0040174	5
	54	78	3.945707	245116.9	-487291	1	545467.5	-63.29671	3.914049E-010	-0.0039984	5
	55	81	3.158693	306273.2	-559877.3	1	638173.9	-61.31974	3.203716E-011	-0.004016	5
	56	84	2.504006	381556.3	-638898.3	1	744161.4	-59.15393	4.610153E-010	-0.0040002	5
	57	87	1.998082	465562	-720071.8	1	857468	-57.11533	3.17488E-010	-0.0039738	5
	58	90	1.584686	560701.1	-805598.3	1	981516	-55.16186	2.317547E-010	-0.0040413	5
	59	94	1.266892	663468.8	-899563.2	1	1117768	-53.58954	2.393092E-010	-0.0039758	4
	60	98	0.999041	781670.1	-1003988	1	1272400	-52.09693	-4.167599E-011	-0.0040373	4
