EXPLAIN
TAG	EISPOT
TITLE	LABEL	Potentiostatic EIS	Test &Identifier
DATE	LABEL	11/22/2019	Date
TIME	LABEL	10:19:23	Time
NOTES	NOTES	4	&Notes...
	
	
	
	
PSTAT	PSTAT	REF600-11020	Potentiostat
VDC	POTEN	0.00000E+000	T	DC &Voltage (V)
FREQINIT	QUANT	1.00000E+006	Initial Fre&q. (Hz)
FREQFINAL	QUANT	1.00000E+000	Final Fre&q. (Hz)
PTSPERDEC	QUANT	1.00000E+001	Points/&decade
VAC	QUANT	2.50000E+001	AC &Voltage (mV rms)
AREA	QUANT	1.00000E-002	&Area (cm^2)
CONDIT	TWOPARAM	T	5.00000E+000	0.00000E+000	Conditionin&g	Time(s)	E(V)
DELAY	TWOPARAM	T	5.00000E+000	0.00000E+000	Init. De&lay	Time(s)	Stab.(mV/s)
SPEED	SELECTOR	0	&Optimize for:
ZGUESS	QUANT	1.00000E+005	E&stimated Z (ohms)
OCVCURVE	TABLE	19
	Pt	T	Vf	Vm	Ach	Over
	#	s	V vs. Ref.	V	V	bits
	0	0.258333	5.25331E-003	5.25331E-003	5.80699E-004	...........
	1	0.516667	5.25135E-003	5.15042E-003	5.80399E-004	...........
	2	0.775	5.23931E-003	5.05459E-003	5.75132E-004	...........
	3	1.03333	5.20598E-003	4.99485E-003	5.74299E-004	...........
	4	1.29167	5.14891E-003	4.92018E-003	5.82932E-004	...........
	5	1.55	5.07875E-003	4.92264E-003	5.76866E-004	...........
	6	1.80833	5.01102E-003	4.87317E-003	5.80266E-004	...........
	7	2.06667	4.95575E-003	4.84031E-003	5.83799E-004	...........
	8	2.325	4.91295E-003	4.81270E-003	5.80732E-004	...........
	9	2.58333	4.87752E-003	4.78908E-003	5.75999E-004	...........
	10	2.84167	4.84595E-003	4.76103E-003	5.80832E-004	...........
	11	3.1	4.81716E-003	4.74296E-003	5.75932E-004	...........
	12	3.35833	4.79060E-003	4.71236E-003	5.83599E-004	...........
	13	3.61667	4.76655E-003	4.74513E-003	5.84099E-004	...........
	14	3.875	4.74725E-003	4.71150E-003	5.78366E-004	...........
	15	4.13333	4.73458E-003	4.72199E-003	5.74399E-004	...........
	16	4.39167	4.72696E-003	4.70578E-003	5.78932E-004	...........
	17	4.65	4.72099E-003	4.69093E-003	5.75899E-004	...........
	18	4.90833	4.71382E-003	4.67053E-003	5.77099E-004	...........
EOC	QUANT	0.0047138	Open Circuit (V)
PSTATMODEL	IQUANT	4	Pstat Model
PSTATSECTION	LABEL	REF600-11020	Pstat Section
PSTATSERIALNO	LABEL	11020	Pstat Serial Number
CTRLMODE	IQUANT	1	Control Mode
IESTAB	IQUANT	0	I/E Stability
CASPEED	IQUANT	1	Control Amp Speed
CONVENTION	IQUANT	1	Current Convention
ICHRANGE	IQUANT	2	Ich Range
ICHRANGEMODE	TOGGLE	F	Ich Auto Range
ICHOFFSETENABLE	TOGGLE	T	Ich Offset Enable
ICHOFFSET	QUANT	0	Ich Offset (V)
ICHFILTER	IQUANT	3	Ich Filter
VCHRANGE	IQUANT	2	Vch Range
VCHRANGEMODE	TOGGLE	F	Vch Auto Range
VCHOFFSETENABLE	TOGGLE	T	Vch Offset Enable
VCHOFFSET	QUANT	0	Vch Offset (V)
VCHFILTER	IQUANT	3	Vch Filter
ACHRANGE	IQUANT	2	Ach Range
ACHOFFSETENABLE	TOGGLE	F	Ach Offset Enable
ACHOFFSET	QUANT	0	Ach Offset (V)
ACHFILTER	IQUANT	3	Ach Filter
IERANGELOWERLIMIT	IQUANT	1	I/E Range Lower Limit
IERANGEMODE	TOGGLE	F	I/E AutoRange
IERANGE	IQUANT	4	I/E Range
POSFEEDENABLE	TOGGLE	F	Positive Feedback IR Comp
POSFEEDRESISTANCE	QUANT	0	Positive Feedback Resistance (ohm)
ACHSELECT	IQUANT	0	Ach Select
CABLEID	IQUANT	14	Cable ID
DCCALDATE	LABEL	8/19/2019	DC Calibration Date
ACCALDATE	LABEL	8/19/2019	AC Calibration Date
THERMOSELECT	IQUANT	1	Thermo Select
FRAMEWORKVERSION	QUANT	6.33	Framework Version
INSTRUMENTVERSION	LABEL	3.50	Instrument Version
ZCURVE	TABLE
	Pt	Time	Freq	Zreal	Zimag	Zsig	Zmod	Zphz	Idc	Vdc	IERange
	#	s	Hz	ohm	ohm	V	ohm	°	A	V	#
	0	2	1000078	2266.934	-1476.048	1	2705.127	-33.069	-6.669085E-006	0.0074785	8
	1	2	794390.6	2554.337	-1415.628	1	2920.384	-28.99546	4.844275E-006	0.0069753	8
	2	3	630984.4	2808.823	-1298.126	1	3094.288	-24.8045	-1.188536E-006	0.0061098	8
	3	3	501234.4	3019.514	-1173.894	1	3239.675	-21.24455	-7.308966E-007	0.0068582	8
	4	3	398109.4	3208.545	-1040.277	1	3372.972	-17.96377	-6.52909E-007	0.0060236	8
	5	4	316265.6	3331.719	-903.2104	1	3451.977	-15.168	-4.72071E-006	0.006697	8
	6	4	251203.1	3433.109	-774.1419	1	3519.309	-12.70726	-9.263746E-008	0.0060176	8
	7	4	199546.9	3505.823	-668.1541	1	3568.925	-10.79026	-2.14608E-006	0.0064661	8
	8	4	158578.1	3573.502	-583.9091	1	3620.893	-9.280102	-2.09843E-006	0.0064658	8
	9	5	125953.1	3645.061	-447.8384	1	3672.469	-7.004355	-2.259162E-006	0.0070524	7
	10	5	100078.1	3670.366	-403.509	1	3692.48	-6.273732	-1.217642E-006	0.0073651	7
	11	5	79453.13	3702.685	-376.6992	1	3721.798	-5.8091	3.932763E-007	0.0067839	7
	12	6	63140.62	3732.985	-356.1453	1	3749.936	-5.449806	8.311328E-007	0.0060248	7
	13	6	50203.12	3759.814	-344.2826	1	3775.544	-5.23193	-1.050369E-006	0.0067823	7
	14	6	39890.62	3785.737	-343.088	1	3801.252	-5.178368	-7.364761E-007	0.0061093	7
	15	7	31640.63	3816.44	-350.2322	1	3832.477	-5.243309	6.14622E-007	0.0064544	7
	16	7	25171.88	3842.153	-366.1875	1	3859.563	-5.444295	-8.913348E-007	0.0079346	7
	17	7	20015.62	3874.853	-392.6718	1	3894.698	-5.786514	-1.220322E-006	0.0073477	7
	18	8	15890.62	3905.675	-426.9865	1	3928.945	-6.239063	1.072904E-007	0.0048996	7
	19	8	12609.37	3936.27	-474.1679	1	3964.727	-6.868823	-3.146812E-007	0.0054241	7
	20	8	10078.13	3972.028	-534.8232	1	4007.873	-7.668606	-6.156143E-007	0.0078468	7
	21	9	8015.625	4000.879	-601.052	1	4045.775	-8.543653	1.017208E-006	0.0055327	7
	22	9	6328.125	4048.706	-706.0491	1	4109.809	-9.89226	-1.222669E-006	0.0077047	7
	23	9	5015.625	4097.535	-828.7896	1	4180.512	-11.43468	1.098027E-006	0.0051192	7
	24	10	3984.375	4139.38	-969.744	1	4251.456	-13.18506	8.341191E-007	0.0060189	7
	25	10	3170.956	4197.331	-1159.44	1	4354.525	-15.44189	1.096829E-007	0.0048964	7
	26	10	2527.573	4258.19	-1381.002	1	4476.534	-17.96875	-8.906175E-007	0.0079236	7
	27	10	1976.103	4339.004	-1682.16	1	4653.667	-21.19048	1.014517E-006	0.0055341	7
	28	11	1577.524	4420.765	-2026.274	1	4863.018	-24.62453	-1.090985E-006	0.0078714	7
	29	11	1265.625	4519.793	-2417.536	1	5125.721	-28.14133	-1.22449E-006	0.007701	7
	30	11	998.264	4646.527	-2948.552	1	5503.105	-32.39804	1.075694E-007	0.0048953	7
	31	12	796.875	4785.916	-3559.853	1	5964.691	-36.64256	4.784769E-007	0.0045982	7
	32	12	627.7902	4957.612	-4348.976	1	6594.809	-41.25827	1.026257E-007	0.0048962	7
	33	12	505.5147	5148.733	-5237.184	1	7344.218	-45.48794	8.327939E-007	0.0060219	7
	34	13	397.9953	5391.813	-6419.333	1	8383.286	-49.97198	1.204364E-009	0.0062786	7
	35	13	315.5048	5677.912	-7848.639	1	9687.09	-54.11703	1.378088E-009	0.0062785	7
	36	13	252.4038	6016.081	-9535.44	1	11274.66	-57.75144	-1.790383E-010	0.0062129	6
	37	14	198.6229	6462.417	-11765.86	1	13423.79	-61.22213	6.043066E-010	0.0062186	6
	38	14	158.3615	6992.293	-14370.06	1	15980.95	-64.05302	-1.929444E-011	0.0062122	6
	39	14	125.558	7685.551	-17642.7	1	19244.02	-66.46099	6.574677E-011	0.0062242	6
	40	15	100.4464	8558.628	-21465.19	1	23108.54	-68.26178	4.209136E-010	0.0062086	6
	41	15	79.00281	9798.64	-26531.75	1	28283.34	-69.72993	-3.351226E-010	0.0062132	6
	42	15	63.3446	11042.59	-32468.13	1	34294.59	-71.21655	3.991937E-010	0.0062125	6
	43	16	49.86702	13123.07	-39843.83	1	41949.32	-71.77005	-7.722856E-010	0.0062139	6
	44	16	39.72458	15960.4	-48362.01	1	50927.58	-71.73611	2.065514E-010	0.0062207	6
	45	16	31.6723	19586.54	-58625	1	61810.38	-71.52559	9.350188E-010	0.006216	6
	46	17	24.93351	24236.39	-71526.91	1	75521.53	-71.28141	-8.299224E-010	0.0062116	6
	47	17	19.86229	30200.51	-86205.5	1	91342.54	-70.69303	-1.270887E-009	0.0062117	6
	48	17	15.83615	38519.58	-103763.7	1	110682.8	-69.63387	1.518242E-009	0.0062092	5
	49	18	12.40079	49568.97	-124360	1	133875	-68.26815	2.850017E-010	0.0062081	5
	50	18	9.93114	61902.58	-146905.7	1	159415.3	-67.1506	1.393768E-010	0.0062006	5
	51	19	7.944915	77674.1	-171658.4	1	188414.1	-65.65361	-7.516373E-010	0.0062242	5
	52	19	6.317385	97959.6	-200091.3	1	222783.7	-63.91481	-4.602125E-010	0.0062322	5
	53	20	5.008013	122685.1	-231537.8	1	262033.2	-62.0822	-5.21937E-011	0.006214	5
	54	21	3.945707	151506.1	-267766.1	1	307656.9	-60.49816	-1.683806E-010	0.0062123	5
	55	22	3.158693	182905.3	-303724	1	354545.6	-58.94328	1.644177E-010	0.0062151	5
	56	24	2.504006	218785	-345453.4	1	408907	-57.65281	2.209619E-010	0.0062128	5
	57	25	1.998082	258169.5	-389872.7	1	467602.6	-56.48791	-5.817001E-011	0.0061697	5
	58	27	1.584686	300413	-442411.3	1	534766.9	-55.8221	-4.671147E-011	0.0061802	5
	59	29	1.266892	345117.4	-498349.9	1	606183.7	-55.29662	3.561185E-011	0.0062203	5
	60	31	0.999041	398117.2	-569246.5	1	694650.2	-55.03199	9.015901E-011	0.0062455	5
