EXPLAIN
TAG	EISPOT
TITLE	LABEL	Potentiostatic EIS	Test &Identifier
DATE	LABEL	10/6/2019	Date
TIME	LABEL	10:21:05	Time
NOTES	NOTES	2	&Notes...
	
	
PSTAT	PSTAT	REF600-11020	Potentiostat
VDC	POTEN	0.00000E+000	T	DC &Voltage (V)
FREQINIT	QUANT	1.00000E+006	Initial Fre&q. (Hz)
FREQFINAL	QUANT	1.00000E+000	Final Fre&q. (Hz)
PTSPERDEC	QUANT	1.00000E+001	Points/&decade
VAC	QUANT	2.50000E+001	AC &Voltage (mV rms)
AREA	QUANT	1.00000E-002	&Area (cm^2)
CONDIT	TWOPARAM	T	5.00000E+000	0.00000E+000	Conditionin&g	Time(s)	E(V)
DELAY	TWOPARAM	T	5.00000E+000	0.00000E+000	Init. De&lay	Time(s)	Stab.(mV/s)
SPEED	SELECTOR	1	&Optimize for:
ZGUESS	QUANT	1.00000E+004	E&stimated Z (ohms)
OCVCURVE	TABLE	19
	Pt	T	Vf	Vm	Ach	Over
	#	s	V vs. Ref.	V	V	bits
	0	0.258333	3.01214E-002	3.01214E-002	5.43599E-004	...........
	1	0.516667	3.01528E-002	3.17676E-002	5.39999E-004	...........
	2	0.775	3.03460E-002	3.33328E-002	5.40999E-004	...........
	3	1.03333	3.08922E-002	3.48002E-002	5.40366E-004	...........
	4	1.29167	3.18667E-002	3.61846E-002	5.46133E-004	...........
	5	1.55	3.31554E-002	3.74910E-002	5.37833E-004	...........
	6	1.80833	3.45729E-002	3.87687E-002	5.38499E-004	...........
	7	2.06667	3.59856E-002	3.99428E-002	5.36899E-004	...........
	8	2.325	3.73354E-002	4.10925E-002	5.33800E-004	...........
	9	2.58333	3.86114E-002	4.22136E-002	5.40933E-004	...........
	10	2.84167	3.98210E-002	4.32190E-002	5.45933E-004	...........
	11	3.1	4.09723E-002	4.42033E-002	5.42599E-004	...........
	12	3.35833	4.20674E-002	4.51391E-002	5.43599E-004	...........
	13	3.61667	4.31075E-002	4.60665E-002	5.41999E-004	...........
	14	3.875	4.40991E-002	4.69412E-002	5.41833E-004	...........
	15	4.13333	4.50498E-002	4.77586E-002	5.44666E-004	...........
	16	4.39167	4.59629E-002	4.85784E-002	5.41433E-004	...........
	17	4.65	4.68393E-002	4.93568E-002	5.44833E-004	...........
	18	4.90833	4.76814E-002	5.01061E-002	5.36466E-004	...........
EOC	QUANT	0.0476814	Open Circuit (V)
PSTATMODEL	IQUANT	4	Pstat Model
PSTATSECTION	LABEL	REF600-11020	Pstat Section
PSTATSERIALNO	LABEL	11020	Pstat Serial Number
CTRLMODE	IQUANT	1	Control Mode
IESTAB	IQUANT	0	I/E Stability
CASPEED	IQUANT	1	Control Amp Speed
CONVENTION	IQUANT	1	Current Convention
ICHRANGE	IQUANT	2	Ich Range
ICHRANGEMODE	TOGGLE	F	Ich Auto Range
ICHOFFSETENABLE	TOGGLE	T	Ich Offset Enable
ICHOFFSET	QUANT	0	Ich Offset (V)
ICHFILTER	IQUANT	3	Ich Filter
VCHRANGE	IQUANT	2	Vch Range
VCHRANGEMODE	TOGGLE	F	Vch Auto Range
VCHOFFSETENABLE	TOGGLE	T	Vch Offset Enable
VCHOFFSET	QUANT	0	Vch Offset (V)
VCHFILTER	IQUANT	3	Vch Filter
ACHRANGE	IQUANT	2	Ach Range
ACHOFFSETENABLE	TOGGLE	F	Ach Offset Enable
ACHOFFSET	QUANT	0	Ach Offset (V)
ACHFILTER	IQUANT	3	Ach Filter
IERANGELOWERLIMIT	IQUANT	1	I/E Range Lower Limit
IERANGEMODE	TOGGLE	F	I/E AutoRange
IERANGE	IQUANT	6	I/E Range
POSFEEDENABLE	TOGGLE	F	Positive Feedback IR Comp
POSFEEDRESISTANCE	QUANT	0	Positive Feedback Resistance (ohm)
ACHSELECT	IQUANT	0	Ach Select
CABLEID	IQUANT	14	Cable ID
DCCALDATE	LABEL	8/19/2019	DC Calibration Date
ACCALDATE	LABEL	8/19/2019	AC Calibration Date
THERMOSELECT	IQUANT	1	Thermo Select
FRAMEWORKVERSION	QUANT	6.33	Framework Version
INSTRUMENTVERSION	LABEL	3.50	Instrument Version
ZCURVE	TABLE
	Pt	Time	Freq	Zreal	Zimag	Zsig	Zmod	Zphz	Idc	Vdc	IERange
	#	s	Hz	ohm	ohm	V	ohm	°	A	V	#
	0	1	1000078	2647.926	-1772.554	1	3186.449	-33.79884	4.170374E-006	0.0492916	8
	1	3	794390.6	2977.223	-1694.598	1	3425.715	-29.64799	-3.1514E-006	0.0502881	8
	2	4	630984.4	3288.253	-1564.445	1	3641.441	-25.4436	3.654854E-006	0.0489521	8
	3	6	501234.4	3521.792	-1398.378	1	3789.259	-21.65626	-2.998192E-006	0.0501116	8
	4	7	398109.4	3734.126	-1252.409	1	3938.556	-18.54122	-1.080609E-006	0.049828	8
	5	8	316265.6	3890.296	-1096.64	1	4041.908	-15.74267	4.955895E-006	0.0482747	8
	6	10	251203.1	4000.861	-988.452	1	4121.156	-13.87758	3.606503E-006	0.0486973	8
	7	11	199546.9	4090.354	-871.8175	1	4182.231	-12.03197	-5.811273E-007	0.0494912	8
	8	13	158578.1	4188.399	-795.1675	1	4263.212	-10.74967	3.636112E-006	0.0487105	8
	9	14	125953.1	4267.247	-679.64	1	4321.03	-9.049434	3.568662E-007	0.0484289	7
	10	16	100078.1	4332.29	-636.4703	1	4378.793	-8.357716	1.212673E-007	0.0490942	7
	11	17	79453.13	4389.631	-621.7083	1	4433.439	-8.061249	-2.080989E-008	0.0493137	7
	12	18	63140.62	4445.877	-623.726	1	4489.416	-7.986082	1.731877E-008	0.0493619	7
	13	20	50203.12	4504.958	-638.3872	1	4549.966	-8.06555	1.718436E-008	0.0493634	7
	14	21	39890.62	4565.969	-666.6085	1	4614.374	-8.306212	-7.263571E-008	0.0494941	7
	15	22	31640.63	4634.141	-708.6693	1	4688.014	-8.694517	1.262305E-007	0.0490754	7
	16	24	25171.88	4706.359	-763.6266	1	4767.908	-9.216166	4.112669E-008	0.04913	7
	17	25	20015.62	4783.734	-834.4239	1	4855.962	-9.89452	4.523267E-009	0.0492034	7
	18	26	15890.62	4877.403	-918.5798	1	4963.149	-10.6658	-5.851571E-009	0.0492759	7
	19	28	12609.37	4978.512	-1022.832	1	5082.496	-11.60984	1.928308E-008	0.0493583	7
	20	29	10078.13	5082.748	-1136.545	1	5208.269	-12.60447	-7.545327E-008	0.0493627	7
	21	31	8015.625	5212.971	-1283.993	1	5368.771	-13.83694	-4.808702E-008	0.0493837	7
	22	32	6328.125	5351.404	-1445.883	1	5543.293	-15.1196	-7.942098E-008	0.0493693	7
	23	33	5015.625	5512.164	-1639.718	1	5750.88	-16.5663	-7.740667E-008	0.0493688	7
	24	35	3984.375	5689.391	-1875.466	1	5990.538	-18.24443	4.331918E-008	0.0491239	7
	25	36	3170.956	5895.515	-2106.017	1	6260.383	-19.65793	-1.590642E-008	0.0492304	7
	26	37	2527.573	6122.335	-2389.388	1	6572.075	-21.3194	8.685886E-008	0.0490853	7
	27	39	1976.103	6401.979	-2731.12	1	6960.198	-23.10336	5.165889E-008	0.0492061	7
	28	40	1577.524	6686.411	-3100.181	1	7370.157	-24.87499	2.213487E-008	0.0493509	7
	29	42	1265.625	6979.853	-3484.607	1	7801.335	-26.53011	1.355697E-008	0.049184	7
	30	43	998.264	7310.513	-3976.5	1	8322.027	-28.54366	6.088859E-008	0.0491707	7
	31	44	796.875	7626.651	-4526.489	1	8868.761	-30.68953	-1.236078E-008	0.0492185	7
	32	46	627.7902	7961.393	-5228.47	1	9524.74	-33.29403	-6.898364E-009	0.0492354	6
	33	47	505.5147	8259.256	-6026.75	1	10224.33	-36.1181	-1.414943E-009	0.0490756	6
	34	48	397.9953	8578.086	-7133.066	1	11156.35	-39.74505	1.469602E-010	0.0492247	6
	35	50	315.5048	8902.762	-8499.16	1	12308.33	-43.67138	2.496587E-010	0.0492217	6
	36	51	252.4038	9240.477	-10151.23	1	13727.12	-47.68899	2.102324E-011	0.0492207	6
	37	52	198.6229	9653.91	-12384.71	1	15702.83	-52.06352	1.843266E-010	0.0492256	6
	38	54	158.3615	10126.39	-15031.9	1	18124.62	-56.03342	2.543945E-010	0.0492265	6
	39	55	125.558	10713.77	-18413.04	1	21303.17	-59.80669	3.197709E-010	0.0492241	6
	40	57	100.4464	11423.09	-22419.58	1	25161.97	-63.00052	7.736312E-010	0.0492222	6
	41	58	79.00281	12469.96	-27740.32	1	30414.23	-65.79491	-2.327655E-010	0.0492238	6
	42	59	63.3446	13839.37	-33698.3	1	36429.44	-67.67281	2.445507E-011	0.0492239	6
	43	61	49.86702	15213.66	-41989.25	1	44660.41	-70.0834	-1.476541E-011	0.0492202	6
	44	62	39.72458	17379.98	-51201.84	1	54071.17	-71.2507	2.553844E-010	0.0492287	6
	45	64	31.6723	20255.98	-62384.75	1	65590.87	-72.01168	6.244887E-010	0.0492258	6
	46	65	24.93351	23884.06	-76957.45	1	80578.52	-72.75806	-9.40784E-011	0.0492243	6
	47	66	19.86229	28468.6	-93707.25	1	97936.3	-73.10103	8.496329E-012	0.0492235	6
	48	68	15.83615	34233.07	-112925.7	1	118000.5	-73.13548	4.658974E-010	0.0492261	5
	49	69	12.40079	43102.29	-139290.1	1	145806.5	-72.8057	7.504089E-010	0.0492207	5
	50	71	9.93114	52285.93	-168241.9	1	176179.4	-72.73589	5.915907E-011	0.0492177	5
	51	72	7.944915	64088.11	-201407.6	1	211358.2	-72.34888	5.873193E-010	0.0492185	5
	52	74	6.317385	79915.48	-242591.5	1	255415.5	-71.76687	3.373975E-011	0.0492336	5
	53	76	5.008013	99984.1	-292002.9	1	308646.3	-71.09839	-4.782318E-011	0.0492217	5
	54	78	3.945707	125367.4	-351539.7	1	373225.4	-70.37257	8.764726E-012	0.0492206	5
	55	81	3.158693	155234.7	-416717.5	1	444692.4	-69.56873	-1.525793E-010	0.0492339	5
	56	84	2.504006	192729.4	-495784.6	1	531927.6	-68.7571	5.469991E-011	0.0492189	5
	57	87	1.998082	236970	-584730.1	1	630923.3	-67.93906	-1.040275E-010	0.0492653	5
	58	90	1.584686	289479.9	-690669.3	1	748880.9	-67.26	-4.897364E-011	0.049233	5
	59	94	1.266892	353781.1	-811448	1	885216.9	-66.44341	-1.033643E-010	0.0492619	5
	60	98	0.999041	432980.5	-959110	1	1052314	-65.70368	-1.353276E-010	0.0491821	4
