EXPLAIN
TAG	EISPOT
TITLE	LABEL	Potentiostatic EIS	Test &Identifier
DATE	LABEL	11/7/2019	Date
TIME	LABEL	8:36:22	Time
NOTES	NOTES	2	&Notes...
	
	
PSTAT	PSTAT	REF600-11020	Potentiostat
VDC	POTEN	0.00000E+000	T	DC &Voltage (V)
FREQINIT	QUANT	1.00000E+006	Initial Fre&q. (Hz)
FREQFINAL	QUANT	1.00000E+000	Final Fre&q. (Hz)
PTSPERDEC	QUANT	1.00000E+001	Points/&decade
VAC	QUANT	2.50000E+001	AC &Voltage (mV rms)
AREA	QUANT	1.00000E-002	&Area (cm^2)
CONDIT	TWOPARAM	T	5.00000E+000	0.00000E+000	Conditionin&g	Time(s)	E(V)
DELAY	TWOPARAM	T	5.00000E+000	0.00000E+000	Init. De&lay	Time(s)	Stab.(mV/s)
SPEED	SELECTOR	1	&Optimize for:
ZGUESS	QUANT	1.00000E+005	E&stimated Z (ohms)
OCVCURVE	TABLE	19
	Pt	T	Vf	Vm	Ach	Over
	#	s	V vs. Ref.	V	V	bits
	0	0.258333	4.26770E-003	4.26770E-003	5.72466E-004	...........
	1	0.516667	4.26553E-003	4.15420E-003	5.77266E-004	...........
	2	0.775	4.25155E-003	4.01174E-003	5.78865E-004	...........
	3	1.03333	4.20838E-003	3.80149E-003	5.76032E-004	...........
	4	1.29167	4.12002E-003	3.56240E-003	5.75465E-004	...........
	5	1.55	3.98081E-003	3.34352E-003	5.76466E-004	...........
	6	1.80833	3.80267E-003	3.36339E-003	5.69266E-004	...........
	7	2.06667	3.62337E-003	3.50711E-003	5.71132E-004	...........
	8	2.325	3.49534E-003	3.51479E-003	5.73499E-004	...........
	9	2.58333	3.44610E-003	3.53519E-003	5.69499E-004	...........
	10	2.84167	3.45577E-003	3.47228E-003	5.65866E-004	...........
	11	3.1	3.48583E-003	3.69518E-003	5.74832E-004	...........
	12	3.35833	3.51792E-003	3.53485E-003	5.73766E-004	...........
	13	3.61667	3.54531E-003	3.38241E-003	5.70832E-004	...........
	14	3.875	3.54000E-003	2.96719E-003	5.71032E-004	...........
	15	4.13333	3.46520E-003	3.05098E-003	5.72999E-004	...........
	16	4.39167	3.32909E-003	3.12294E-003	5.66832E-004	...........
	17	4.65	3.19717E-003	3.25882E-003	5.68266E-004	...........
	18	4.90833	3.13484E-003	3.36730E-003	5.67832E-004	...........
EOC	QUANT	0.0031348	Open Circuit (V)
PSTATMODEL	IQUANT	4	Pstat Model
PSTATSECTION	LABEL	REF600-11020	Pstat Section
PSTATSERIALNO	LABEL	11020	Pstat Serial Number
CTRLMODE	IQUANT	1	Control Mode
IESTAB	IQUANT	0	I/E Stability
CASPEED	IQUANT	1	Control Amp Speed
CONVENTION	IQUANT	1	Current Convention
ICHRANGE	IQUANT	2	Ich Range
ICHRANGEMODE	TOGGLE	F	Ich Auto Range
ICHOFFSETENABLE	TOGGLE	T	Ich Offset Enable
ICHOFFSET	QUANT	0	Ich Offset (V)
ICHFILTER	IQUANT	3	Ich Filter
VCHRANGE	IQUANT	2	Vch Range
VCHRANGEMODE	TOGGLE	F	Vch Auto Range
VCHOFFSETENABLE	TOGGLE	T	Vch Offset Enable
VCHOFFSET	QUANT	0	Vch Offset (V)
VCHFILTER	IQUANT	3	Vch Filter
ACHRANGE	IQUANT	2	Ach Range
ACHOFFSETENABLE	TOGGLE	F	Ach Offset Enable
ACHOFFSET	QUANT	0	Ach Offset (V)
ACHFILTER	IQUANT	3	Ach Filter
IERANGELOWERLIMIT	IQUANT	1	I/E Range Lower Limit
IERANGEMODE	TOGGLE	F	I/E AutoRange
IERANGE	IQUANT	4	I/E Range
POSFEEDENABLE	TOGGLE	F	Positive Feedback IR Comp
POSFEEDRESISTANCE	QUANT	0	Positive Feedback Resistance (ohm)
ACHSELECT	IQUANT	0	Ach Select
CABLEID	IQUANT	14	Cable ID
DCCALDATE	LABEL	8/19/2019	DC Calibration Date
ACCALDATE	LABEL	8/19/2019	AC Calibration Date
THERMOSELECT	IQUANT	1	Thermo Select
FRAMEWORKVERSION	QUANT	6.33	Framework Version
INSTRUMENTVERSION	LABEL	3.50	Instrument Version
ZCURVE	TABLE
	Pt	Time	Freq	Zreal	Zimag	Zsig	Zmod	Zphz	Idc	Vdc	IERange
	#	s	Hz	ohm	ohm	V	ohm	°	A	V	#
	0	1	1000078	2045.384	-1093.954	1	2319.554	-28.13967	-9.519098E-006	0.0063961	8
	1	2	794390.6	2240.431	-991.021	1	2449.827	-23.86149	6.274848E-007	0.0053212	8
	2	4	630984.4	2396.501	-894.3581	1	2557.947	-20.46524	8.163589E-007	0.005497	8
	3	5	501234.4	2533.31	-795.7909	1	2655.361	-17.43911	-9.86858E-007	0.0045639	8
	4	7	398109.4	2636.334	-683.4108	1	2723.474	-14.53276	-4.080993E-006	0.0054749	8
	5	8	316265.6	2705.677	-601.7202	1	2771.778	-12.53806	3.085673E-006	0.0041647	8
	6	9	251203.1	2773.781	-525.5276	1	2823.126	-10.72824	-8.973342E-007	0.0044939	8
	7	11	199546.9	2819.633	-459.1915	1	2856.78	-9.249704	-3.852991E-006	0.0053951	8
	8	12	158578.1	2856.288	-403.8583	1	2884.698	-8.047858	-3.136762E-007	0.0052914	8
	9	14	125953.1	2925.046	-330.5219	1	2943.661	-6.446915	6.160907E-007	0.0070076	7
	10	15	100078.1	2936.188	-304.7259	1	2951.959	-5.925106	1.129347E-006	0.0035914	7
	11	16	79453.13	2961.288	-298.9604	1	2976.341	-5.764833	-1.133101E-006	0.0064343	7
	12	18	63140.62	2987.451	-298.7115	1	3002.348	-5.709956	-6.365923E-007	0.0063979	7
	13	19	50203.12	3015.675	-307.0924	1	3031.271	-5.814505	4.996016E-007	0.0030403	7
	14	20	39890.62	3044.818	-319.7345	1	3061.56	-5.994624	-1.259671E-006	0.0058712	7
	15	22	31640.63	3074.556	-338.9603	1	3093.184	-6.291276	-1.273662E-006	0.00627	7
	16	23	25171.88	3107.924	-366.0393	1	3129.405	-6.717133	-6.35728E-007	0.0063991	7
	17	24	20015.62	3147.281	-404.7437	1	3173.199	-7.328079	5.017129E-007	0.0030335	7
	18	26	15890.62	3183.682	-444.6051	1	3214.577	-7.950011	-7.506906E-007	0.004578	7
	19	27	12609.37	3224.974	-499.2838	1	3263.394	-8.800545	5.010628E-007	0.0030297	7
	20	29	10078.13	3265.303	-561.998	1	3313.313	-9.76562	-6.371126E-007	0.0063934	7
	21	30	8015.625	3316.357	-642.3629	1	3377.996	-10.96218	-9.240579E-007	0.0064859	7
	22	31	6328.125	3368.309	-738.0276	1	3448.216	-12.35873	4.990469E-007	0.0030245	7
	23	33	5015.625	3423.424	-855.5491	1	3528.71	-14.03141	-1.273073E-006	0.0062644	7
	24	34	3984.375	3481.785	-999.128	1	3622.303	-16.01129	-9.224E-007	0.006482	7
	25	35	3170.956	3547.588	-1171.209	1	3735.922	-18.27025	-1.132647E-006	0.0064227	7
	26	37	2527.573	3617.794	-1382.872	1	3873.082	-20.91894	-9.218936E-007	0.0064738	7
	27	38	1976.103	3702.543	-1666.342	1	4060.237	-24.23028	1.123232E-006	0.003226	7
	28	40	1577.524	3783.514	-1981.49	1	4270.981	-27.64181	4.997939E-007	0.0030172	7
	29	41	1265.625	3883.276	-2370.299	1	4549.522	-31.39932	1.050967E-006	0.0039981	7
	30	42	998.264	3998.792	-2879.851	1	4927.868	-35.76069	5.005726E-007	0.0030188	7
	31	44	796.875	4132.252	-3467.373	1	5394.273	-40.00001	-2.910123E-007	0.0061272	7
	32	45	627.7902	4283.771	-4255.988	1	6038.554	-44.8136	1.011963E-006	0.0029951	7
	33	46	505.5147	4465.661	-5118.335	1	6792.604	-48.89585	-1.275448E-006	0.0062606	7
	34	48	397.9953	4695.933	-6311.153	1	7866.539	-53.34821	3.323752E-009	0.0047719	7
	35	49	315.5048	4982.832	-7741.728	1	9206.681	-57.23333	6.541606E-009	0.0047698	7
	36	51	252.4038	5339.665	-9427.729	1	10834.86	-60.47371	1.377208E-009	0.0047056	6
	37	52	198.6229	5826.935	-11656.59	1	13031.86	-63.4403	1.594834E-009	0.0047037	6
	38	53	158.3615	6431.481	-14239.18	1	15624.28	-65.6925	1.160767E-009	0.0047065	6
	39	55	125.558	7246.275	-17474.59	1	18917.45	-67.47744	3.209901E-010	0.0047104	6
	40	56	100.4464	8270.458	-21213.64	1	22768.82	-68.70093	-1.606268E-010	0.0047087	6
	41	58	79.00281	9750.92	-26217	1	27971.62	-69.59827	1.256486E-009	0.0046995	6
	42	59	63.3446	11383.9	-31923.62	1	33892.63	-70.37387	3.313695E-010	0.0046998	6
	43	60	49.86702	13949.3	-38451.07	1	40903.15	-70.06021	-4.675604E-010	0.0047006	6
	44	62	39.72458	17319.26	-46592.62	1	49707.43	-69.60906	5.851143E-010	0.0047085	6
	45	63	31.6723	21490.55	-55864.82	1	59855.84	-68.95885	5.212667E-012	0.0046987	6
	46	65	24.93351	27496.27	-67303.55	1	72703.59	-67.77796	1.958951E-010	0.0046872	6
	47	66	19.86229	34738.6	-79737.42	1	86976.02	-66.45905	-1.13238E-010	0.0047029	6
	48	67	15.83615	43551.74	-93109.95	1	102792.1	-64.93238	9.673287E-010	0.0046938	6
	49	69	12.40079	54650.77	-110038.9	1	122862.8	-63.58873	6.021765E-010	0.0046981	5
	50	70	9.93114	69116.9	-126430.2	1	144089.3	-61.33543	1.165126E-009	0.0046941	5
	51	72	7.944915	84897.3	-144016.8	1	167177.7	-59.48083	-1.984488E-010	0.0046982	5
	52	73	6.317385	102164.8	-163847.5	1	193089.7	-58.05497	6.283369E-010	0.004721	5
	53	75	5.008013	122444.4	-185430.5	1	222209.6	-56.56221	5.643988E-010	0.004712	5
	54	78	3.945707	144942.6	-210004.3	1	255166.9	-55.38699	3.901195E-010	0.0047042	5
	55	81	3.158693	167426.9	-235411.6	1	288877.8	-54.57922	7.100311E-011	0.0047194	5
	56	84	2.504006	192186.5	-266158	1	328292.2	-54.16782	4.63562E-010	0.0047015	5
	57	87	1.998082	217348.7	-300863.5	1	371159.3	-54.15504	7.589011E-013	0.0047522	5
	58	90	1.584686	244409.8	-344458.9	1	422360.1	-54.64251	2.830706E-010	0.0047149	5
	59	94	1.266892	274864	-395130.8	1	481330	-55.17645	1.045877E-010	0.00475	5
	60	98	0.999041	310550.1	-460040.2	1	555048.1	-55.97869	6.988451E-011	0.0046666	5
