EXPLAIN
TAG	EISPOT
TITLE	LABEL	Potentiostatic EIS	Test &Identifier
DATE	LABEL	10/18/2019	Date
TIME	LABEL	9:29:33	Time
NOTES	NOTES	1	&Notes...
	
PSTAT	PSTAT	REF600-11020	Potentiostat
VDC	POTEN	0.00000E+000	T	DC &Voltage (V)
FREQINIT	QUANT	1.00000E+006	Initial Fre&q. (Hz)
FREQFINAL	QUANT	1.00000E+000	Final Fre&q. (Hz)
PTSPERDEC	QUANT	1.00000E+001	Points/&decade
VAC	QUANT	2.50000E+001	AC &Voltage (mV rms)
AREA	QUANT	1.00000E-002	&Area (cm^2)
CONDIT	TWOPARAM	T	5.00000E+000	0.00000E+000	Conditionin&g	Time(s)	E(V)
DELAY	TWOPARAM	T	5.00000E+000	0.00000E+000	Init. De&lay	Time(s)	Stab.(mV/s)
SPEED	SELECTOR	0	&Optimize for:
ZGUESS	QUANT	1.00000E+005	E&stimated Z (ohms)
OCVCURVE	TABLE	19
	Pt	T	Vf	Vm	Ach	Over
	#	s	V vs. Ref.	V	V	bits
	0	0.258333	5.61882E-003	5.61882E-003	5.14166E-004	...........
	1	0.516667	5.60876E-003	5.09206E-003	5.14966E-004	...........
	2	0.775	5.54454E-003	4.46618E-003	5.07900E-004	...........
	3	1.03333	5.36605E-003	4.45103E-003	5.15600E-004	...........
	4	1.29167	5.08004E-003	4.44235E-003	5.13600E-004	...........
	5	1.55	4.78407E-003	4.43666E-003	5.14966E-004	...........
	6	1.80833	4.57340E-003	4.44484E-003	5.12900E-004	...........
	7	2.06667	4.46926E-003	4.51993E-003	5.09800E-004	...........
	8	2.325	4.44084E-003	4.42746E-003	5.13400E-004	...........
	9	2.58333	4.44697E-003	4.46705E-003	5.14133E-004	...........
	10	2.84167	4.45758E-003	4.47904E-003	5.17633E-004	...........
	11	3.1	4.46663E-003	4.65296E-003	5.05700E-004	...........
	12	3.35833	4.48927E-003	4.71286E-003	5.10033E-004	...........
	13	3.61667	4.54116E-003	4.86255E-003	5.18100E-004	...........
	14	3.875	4.61873E-003	4.72136E-003	5.16566E-004	...........
	15	4.13333	4.69482E-003	4.69005E-003	5.16500E-004	...........
	16	4.39167	4.73431E-003	4.51963E-003	5.17433E-004	...........
	17	4.65	4.71760E-003	4.40736E-003	5.13967E-004	...........
	18	4.90833	4.64838E-003	4.29808E-003	5.19766E-004	...........
EOC	QUANT	0.0046484	Open Circuit (V)
PSTATMODEL	IQUANT	4	Pstat Model
PSTATSECTION	LABEL	REF600-11020	Pstat Section
PSTATSERIALNO	LABEL	11020	Pstat Serial Number
CTRLMODE	IQUANT	1	Control Mode
IESTAB	IQUANT	0	I/E Stability
CASPEED	IQUANT	1	Control Amp Speed
CONVENTION	IQUANT	1	Current Convention
ICHRANGE	IQUANT	2	Ich Range
ICHRANGEMODE	TOGGLE	F	Ich Auto Range
ICHOFFSETENABLE	TOGGLE	T	Ich Offset Enable
ICHOFFSET	QUANT	0	Ich Offset (V)
ICHFILTER	IQUANT	3	Ich Filter
VCHRANGE	IQUANT	2	Vch Range
VCHRANGEMODE	TOGGLE	F	Vch Auto Range
VCHOFFSETENABLE	TOGGLE	T	Vch Offset Enable
VCHOFFSET	QUANT	0	Vch Offset (V)
VCHFILTER	IQUANT	3	Vch Filter
ACHRANGE	IQUANT	2	Ach Range
ACHOFFSETENABLE	TOGGLE	F	Ach Offset Enable
ACHOFFSET	QUANT	0	Ach Offset (V)
ACHFILTER	IQUANT	3	Ach Filter
IERANGELOWERLIMIT	IQUANT	1	I/E Range Lower Limit
IERANGEMODE	TOGGLE	F	I/E AutoRange
IERANGE	IQUANT	4	I/E Range
POSFEEDENABLE	TOGGLE	F	Positive Feedback IR Comp
POSFEEDRESISTANCE	QUANT	0	Positive Feedback Resistance (ohm)
ACHSELECT	IQUANT	0	Ach Select
CABLEID	IQUANT	14	Cable ID
DCCALDATE	LABEL	8/19/2019	DC Calibration Date
ACCALDATE	LABEL	8/19/2019	AC Calibration Date
THERMOSELECT	IQUANT	1	Thermo Select
FRAMEWORKVERSION	QUANT	6.33	Framework Version
INSTRUMENTVERSION	LABEL	3.50	Instrument Version
ZCURVE	TABLE
	Pt	Time	Freq	Zreal	Zimag	Zsig	Zmod	Zphz	Idc	Vdc	IERange
	#	s	Hz	ohm	ohm	V	ohm	°	A	V	#
	0	1	1000078	2508.689	-1464.172	1	2904.707	-30.26956	6.069964E-007	0.0066792	8
	1	1	794390.6	2776.748	-1350.589	1	3087.785	-25.93793	-3.988299E-006	0.007518	8
	2	2	630984.4	2991.861	-1209.611	1	3227.133	-22.01351	4.101251E-006	0.0058817	8
	3	2	501234.4	3169.874	-1053.236	1	3340.27	-18.37982	-1.281083E-006	0.0067693	8
	4	2	398109.4	3303.904	-912.7596	1	3427.668	-15.44372	4.244002E-006	0.0056253	8
	5	3	316265.6	3402.503	-786.914	1	3492.315	-13.02213	-7.097921E-007	0.0064034	8
	6	3	251203.1	3484.521	-655.6423	1	3545.667	-10.6561	2.754008E-006	0.0057934	8
	7	3	199546.9	3549.831	-575.3079	1	3596.147	-9.205674	6.89025E-007	0.0061482	8
	8	4	158578.1	3574.639	-493.4924	1	3608.542	-7.860215	-1.398823E-006	0.0066586	8
	9	4	125953.1	3648.071	-390.0208	1	3668.86	-6.102399	-2.568113E-007	0.007065	7
	10	4	100078.1	3665.94	-344.7927	1	3682.119	-5.373034	-4.16697E-009	0.0063559	7
	11	5	79453.13	3690.073	-324.0508	1	3704.274	-5.018664	7.859118E-008	0.0061654	7
	12	5	63140.62	3716.695	-311.3341	1	3729.712	-4.788282	-8.569163E-009	0.0063765	7
	13	5	50203.12	3742.802	-305.2578	1	3755.23	-4.662644	-4.727443E-008	0.0063563	7
	14	5	39890.62	3767.399	-305.9602	1	3779.803	-4.642949	-7.907562E-008	0.0064621	7
	15	6	31640.63	3793.565	-315.926	1	3806.698	-4.760575	3.868104E-008	0.0062915	7
	16	6	25171.88	3818.471	-332.2722	1	3832.9	-4.973184	3.696522E-008	0.0062029	7
	17	6	20015.62	3848.589	-360.9112	1	3865.475	-5.357388	-1.614674E-008	0.0063018	7
	18	7	15890.62	3871.673	-390.9312	1	3891.359	-5.765737	1.161795E-008	0.0062558	7
	19	7	12609.37	3900.592	-436.744	1	3924.967	-6.388721	8.464981E-008	0.0062673	7
	20	7	10078.13	3930.52	-493.5971	1	3961.392	-7.157769	7.995073E-008	0.0061548	7
	21	8	8015.625	3954.633	-569.8722	1	3995.482	-8.200012	-4.50382E-008	0.0063523	7
	22	8	6328.125	3995.752	-665.5911	1	4050.808	-9.457195	8.639692E-008	0.0062692	7
	23	8	5015.625	4034.082	-786.2905	1	4109.996	-11.02934	-3.311468E-008	0.0063531	7
	24	9	3984.375	4074.868	-926.1882	1	4178.8	-12.80536	7.869902E-008	0.0061536	7
	25	9	3170.956	4122.788	-1116.528	1	4271.301	-15.15329	-4.441465E-008	0.0064151	7
	26	9	2527.573	4175.621	-1340.228	1	4385.433	-17.79482	-1.61264E-008	0.006295	7
	27	10	1976.103	4243.602	-1637.786	1	4548.681	-21.10371	-3.492899E-008	0.0063415	7
	28	10	1577.524	4323.817	-1955.032	1	4745.266	-24.33031	-7.826459E-008	0.0064554	7
	29	10	1265.625	4400.351	-2382.904	1	5004.13	-28.43669	-1.496532E-008	0.006291	7
	30	11	998.264	4506.104	-2922.647	1	5370.926	-32.96733	8.845744E-008	0.0062601	7
	31	11	796.875	4627.721	-3551.638	1	5833.518	-37.50517	1.168204E-008	0.0062411	7
	32	11	627.7902	4789.326	-4375.471	1	6487.094	-42.41445	3.732721E-008	0.0061901	7
	33	11	505.5147	4960.28	-5291.743	1	7253.063	-46.85181	1.082191E-008	0.0062421	7
	34	12	397.9953	5208.113	-6538.028	1	8358.843	-51.45961	2.845737E-009	0.0063372	7
	35	12	315.5048	5511.201	-8033.351	1	9742.08	-55.54832	1.920194E-009	0.0063341	7
	36	12	252.4038	5886.87	-9790.32	1	11423.91	-58.98173	-7.662401E-010	0.0062754	6
	37	13	198.6229	6408.525	-12108.57	1	13699.88	-62.10973	1.075664E-010	0.0062756	6
	38	13	158.3615	7052.152	-14788.08	1	16383.54	-64.50443	1.091788E-009	0.0062724	6
	39	13	125.558	7926.146	-18140.59	1	19796.59	-66.39809	1.039482E-009	0.0062742	6
	40	14	100.4464	9055.908	-22060.01	1	23846.46	-67.68124	-1.122807E-009	0.0062777	6
	41	14	79.00281	10627.89	-27210.34	1	29212.23	-68.66525	4.930496E-011	0.0062745	6
	42	14	63.3446	12388.33	-32197.17	1	34498.24	-68.95505	5.660909E-010	0.0062723	6
	43	15	49.86702	15275.35	-39516.7	1	42366.33	-68.86578	3.333217E-010	0.0062687	6
	44	15	39.72458	18781.1	-47864.35	1	51417.17	-68.57586	9.982533E-010	0.0062741	6
	45	15	31.6723	23156.19	-57266.8	1	61771.31	-67.98374	5.58409E-010	0.0062687	6
	46	16	24.93351	29398.49	-68603.23	1	74636.95	-66.80345	8.163046E-011	0.0062703	6
	47	16	19.86229	36787.57	-80893.09	1	88865.16	-65.54549	1.353667E-009	0.0062758	6
	48	16	15.83615	45487.77	-92739.85	1	103294.8	-63.87261	-2.565503E-009	0.0062784	5
	49	17	12.40079	56018.94	-111144.9	1	124464.1	-63.25111	1.133786E-009	0.006283	5
	50	17	9.93114	68819.63	-127438.4	1	144833.3	-61.62995	9.112425E-010	0.0062774	5
	51	18	7.944915	82749.8	-146977	1	168670.6	-60.61997	-2.822899E-010	0.0062826	5
	52	18	6.317385	98504.5	-167985.2	1	194736.1	-59.61315	-2.721721E-011	0.0062792	5
	53	19	5.008013	116704.6	-193049.4	1	225583.7	-58.84568	4.43965E-010	0.0062847	5
	54	20	3.945707	138028.6	-222597.5	1	261918.9	-58.1977	-9.469901E-011	0.0062689	5
	55	21	3.158693	160718.3	-254418.3	1	300930.3	-57.71904	2.095502E-010	0.006262	5
	56	23	2.504006	187466.1	-292877.5	1	347736.6	-57.37735	3.021969E-010	0.0062706	5
	57	24	1.998082	217017.5	-335154.6	1	399280.9	-57.07635	-2.411669E-011	0.006235	5
	58	26	1.584686	251498.5	-386917.6	1	461472.3	-56.97592	-1.36481E-010	0.0062242	5
	59	28	1.266892	288087.2	-443017	1	528448.9	-56.96466	-5.076224E-011	0.0062571	5
	60	30	0.999041	332761	-511894.1	1	610545.3	-56.97378	-4.338304E-012	0.0062898	5
