EXPLAIN
TAG	EISPOT
TITLE	LABEL	Potentiostatic EIS	Test &Identifier
DATE	LABEL	11/20/2019	Date
TIME	LABEL	10:50:47	Time
NOTES	NOTES	4	&Notes...
	
	
	
	
PSTAT	PSTAT	REF600-11020	Potentiostat
VDC	POTEN	0.00000E+000	T	DC &Voltage (V)
FREQINIT	QUANT	1.00000E+006	Initial Fre&q. (Hz)
FREQFINAL	QUANT	1.00000E+000	Final Fre&q. (Hz)
PTSPERDEC	QUANT	1.00000E+001	Points/&decade
VAC	QUANT	2.50000E+001	AC &Voltage (mV rms)
AREA	QUANT	1.00000E-002	&Area (cm^2)
CONDIT	TWOPARAM	T	5.00000E+000	0.00000E+000	Conditionin&g	Time(s)	E(V)
DELAY	TWOPARAM	T	5.00000E+000	0.00000E+000	Init. De&lay	Time(s)	Stab.(mV/s)
SPEED	SELECTOR	0	&Optimize for:
ZGUESS	QUANT	1.00000E+005	E&stimated Z (ohms)
OCVCURVE	TABLE	19
	Pt	T	Vf	Vm	Ach	Over
	#	s	V vs. Ref.	V	V	bits
	0	0.258333	4.59895E-003	4.59895E-003	5.46666E-004	...........
	1	0.516667	4.59626E-003	4.45817E-003	5.44266E-004	...........
	2	0.775	4.58028E-003	4.35270E-003	5.43899E-004	...........
	3	1.03333	4.53680E-003	4.24894E-003	5.46766E-004	...........
	4	1.29167	4.46259E-003	4.16765E-003	5.49333E-004	...........
	5	1.55	4.36941E-003	4.09099E-003	5.39066E-004	...........
	6	1.80833	4.27305E-003	4.02489E-003	5.47233E-004	...........
	7	2.06667	4.18368E-003	3.96622E-003	5.54033E-004	...........
	8	2.325	4.10472E-003	3.91473E-003	5.47833E-004	...........
	9	2.58333	4.03569E-003	3.85929E-003	5.48133E-004	...........
	10	2.84167	3.97457E-003	3.81748E-003	5.54233E-004	...........
	11	3.1	3.91919E-003	3.76747E-003	5.54266E-004	...........
	12	3.35833	3.86799E-003	3.72723E-003	5.45899E-004	...........
	13	3.61667	3.82015E-003	3.69626E-003	5.42633E-004	...........
	14	3.875	3.77590E-003	3.66585E-003	5.39299E-004	...........
	15	4.13333	3.73606E-003	3.63560E-003	5.41666E-004	...........
	16	4.39167	3.70062E-003	3.60644E-003	5.40833E-004	...........
	17	4.65	3.66856E-003	3.58396E-003	5.44666E-004	...........
	18	4.90833	3.63892E-003	3.55701E-003	5.48166E-004	...........
EOC	QUANT	0.0036389	Open Circuit (V)
PSTATMODEL	IQUANT	4	Pstat Model
PSTATSECTION	LABEL	REF600-11020	Pstat Section
PSTATSERIALNO	LABEL	11020	Pstat Serial Number
CTRLMODE	IQUANT	1	Control Mode
IESTAB	IQUANT	0	I/E Stability
CASPEED	IQUANT	1	Control Amp Speed
CONVENTION	IQUANT	1	Current Convention
ICHRANGE	IQUANT	2	Ich Range
ICHRANGEMODE	TOGGLE	F	Ich Auto Range
ICHOFFSETENABLE	TOGGLE	T	Ich Offset Enable
ICHOFFSET	QUANT	0	Ich Offset (V)
ICHFILTER	IQUANT	3	Ich Filter
VCHRANGE	IQUANT	2	Vch Range
VCHRANGEMODE	TOGGLE	F	Vch Auto Range
VCHOFFSETENABLE	TOGGLE	T	Vch Offset Enable
VCHOFFSET	QUANT	0	Vch Offset (V)
VCHFILTER	IQUANT	3	Vch Filter
ACHRANGE	IQUANT	2	Ach Range
ACHOFFSETENABLE	TOGGLE	F	Ach Offset Enable
ACHOFFSET	QUANT	0	Ach Offset (V)
ACHFILTER	IQUANT	3	Ach Filter
IERANGELOWERLIMIT	IQUANT	1	I/E Range Lower Limit
IERANGEMODE	TOGGLE	F	I/E AutoRange
IERANGE	IQUANT	4	I/E Range
POSFEEDENABLE	TOGGLE	F	Positive Feedback IR Comp
POSFEEDRESISTANCE	QUANT	0	Positive Feedback Resistance (ohm)
ACHSELECT	IQUANT	0	Ach Select
CABLEID	IQUANT	14	Cable ID
DCCALDATE	LABEL	8/19/2019	DC Calibration Date
ACCALDATE	LABEL	8/19/2019	AC Calibration Date
THERMOSELECT	IQUANT	1	Thermo Select
FRAMEWORKVERSION	QUANT	6.33	Framework Version
INSTRUMENTVERSION	LABEL	3.50	Instrument Version
ZCURVE	TABLE
	Pt	Time	Freq	Zreal	Zimag	Zsig	Zmod	Zphz	Idc	Vdc	IERange
	#	s	Hz	ohm	ohm	V	ohm	°	A	V	#
	0	2	1000078	2199.247	-1787.591	1	2834.108	-39.10489	-9.746407E-007	0.0066498	8
	1	2	794390.6	2571.763	-1745.401	1	3108.117	-34.16391	-4.213483E-007	0.0053679	8
	2	2	630984.4	2919.159	-1651.125	1	3353.76	-29.49323	-6.058626E-007	0.0052268	8
	3	3	501234.4	3208.417	-1510.559	1	3546.227	-25.21159	-1.220076E-006	0.0058322	8
	4	3	398109.4	3457.941	-1346.027	1	3710.679	-21.26882	1.844117E-006	0.0049689	8
	5	3	316265.6	3642.306	-1179.442	1	3828.508	-17.94286	1.596847E-006	0.0056095	8
	6	4	251203.1	3782.985	-1039.583	1	3923.227	-15.36585	5.154373E-006	0.00469	8
	7	4	199546.9	3908.908	-894.2346	1	4009.89	-12.88573	-4.257862E-006	0.0056629	8
	8	4	158578.1	3985.167	-788.9695	1	4062.516	-11.19841	1.097314E-008	0.0050585	8
	9	5	125953.1	4077.91	-646.0333	1	4128.767	-9.002134	-4.392052E-007	0.0035286	7
	10	5	100078.1	4130.12	-565.9893	1	4168.721	-7.803177	-1.133352E-006	0.0066307	7
	11	5	79453.13	4176.059	-519.9828	1	4208.307	-7.097665	-9.721567E-007	0.0057669	7
	12	6	63140.62	4218.059	-486.0146	1	4245.967	-6.572769	-1.129791E-006	0.0062906	7
	13	6	50203.12	4257.04	-465.5954	1	4282.426	-6.24167	-5.789297E-007	0.0067626	7
	14	6	39890.62	4295.243	-456.9994	1	4319.486	-6.07323	-8.322626E-007	0.00684	7
	15	7	31640.63	4335.286	-462.1309	1	4359.847	-6.084613	-2.862242E-007	0.0044954	7
	16	7	25171.88	4375.49	-474.4847	1	4401.142	-6.189056	1.015953E-006	0.0042297	7
	17	7	20015.62	4410.397	-501.5381	1	4438.823	-6.487647	9.061149E-007	0.0037162	7
	18	7	15890.62	4462.469	-538.7348	1	4494.871	-6.88376	-1.130842E-006	0.0062846	7
	19	8	12609.37	4506.134	-591.3724	1	4544.773	-7.476608	1.086578E-007	0.0040089	7
	20	8	10078.13	4555.741	-650.6926	1	4601.975	-8.128531	-6.778822E-007	0.0051331	7
	21	8	8015.625	4611.631	-728.4596	1	4668.811	-8.976352	-9.711332E-007	0.0057528	7
	22	9	6328.125	4669.578	-830.2546	1	4742.814	-10.08187	3.540209E-007	0.0057756	7
	23	9	5015.625	4733.573	-953.939	1	4828.738	-11.39399	9.385005E-007	0.004613	7
	24	9	3984.375	4796.572	-1105.416	1	4922.301	-12.97777	-2.874837E-007	0.0044882	7
	25	10	3170.956	4869.903	-1288.515	1	5037.482	-14.82014	4.517639E-007	0.0037308	7
	26	10	2527.573	4948.151	-1513.799	1	5174.533	-17.01056	5.604053E-007	0.0054706	7
	27	10	1976.103	5043.083	-1819.401	1	5361.241	-19.83801	5.603459E-007	0.0054664	7
	28	11	1577.524	5143.333	-2144.546	1	5572.518	-22.63401	1.005071E-006	0.0039191	7
	29	11	1265.625	5251.913	-2577.233	1	5850.19	-26.13824	9.083886E-007	0.0037074	7
	30	11	998.264	5393.329	-3118.773	1	6230.148	-30.03929	1.004664E-006	0.0039186	7
	31	12	796.875	5552.151	-3747.341	1	6698.429	-34.01678	6.377664E-008	0.0061584	7
	32	12	627.7902	5741.311	-4565.513	1	7335.295	-38.49186	7.720303E-007	0.0050666	7
	33	12	505.5147	5964.266	-5467.185	1	8090.895	-42.51014	-8.311875E-007	0.006819	7
	34	13	397.9953	6237.286	-6689.393	1	9146.131	-47.00309	3.123546E-009	0.0052888	7
	35	13	315.5048	6561.417	-8143.578	1	10458.01	-51.14102	6.445208E-010	0.0052335	6
	36	13	252.4038	6929.694	-9853.58	1	12046.31	-54.88255	2.141766E-010	0.0052258	6
	37	14	198.6229	7404.66	-12109.96	1	14194.37	-58.55622	5.964915E-010	0.0052346	6
	38	14	158.3615	7949.75	-14738.08	1	16745.43	-61.65749	9.725676E-010	0.0052295	6
	39	14	125.558	8645.611	-18046.54	1	20010.61	-64.40218	4.336801E-010	0.0052338	6
	40	15	100.4464	9459.256	-21944.36	1	23896.29	-66.68124	-2.26492E-010	0.0052333	6
	41	15	79.00281	10596.94	-27068.32	1	29068.7	-68.62022	-4.575945E-011	0.0052231	6
	42	15	63.3446	12218.96	-32966	1	35157.65	-69.66261	5.076453E-010	0.005216	6
	43	16	49.86702	14071.5	-40688.15	1	43052.68	-70.92268	1.167804E-009	0.0052161	6
	44	16	39.72458	16324.53	-49434.42	1	52060.08	-71.72543	-1.802184E-010	0.0052282	6
	45	16	31.6723	19372.05	-60076.94	1	63123.02	-72.12788	2.581466E-010	0.0052264	6
	46	17	24.93351	23847.93	-73858.75	1	77613.39	-72.10548	3.012521E-010	0.0052268	6
	47	17	19.86229	29527.67	-89550.93	1	94293.44	-71.75104	1.840644E-010	0.0052288	6
	48	17	15.83615	36538.08	-107666.4	1	113697.4	-71.25465	5.543399E-010	0.0052313	5
	49	18	12.40079	46521.51	-131641.1	1	139619.6	-70.53677	4.413887E-010	0.0052298	5
	50	18	9.93114	59889.4	-156343.9	1	167422.1	-69.04007	-1.86299E-010	0.0052225	5
	51	19	7.944915	75810.84	-185156.5	1	200075.5	-67.73374	-2.485397E-010	0.0052316	5
	52	19	6.317385	96022.5	-217969.4	1	238182.7	-66.22497	-2.848601E-010	0.0052393	5
	53	20	5.008013	121972.6	-255731.6	1	283330.1	-64.50094	-3.448102E-010	0.0052252	5
	54	21	3.945707	154634	-297797.6	1	335551.9	-62.55901	2.509318E-010	0.005218	5
	55	22	3.158693	190608.8	-340578	1	390288.5	-60.7659	1.015976E-010	0.0052463	5
	56	24	2.504006	234338	-389266.8	1	454359.9	-58.95213	-1.575329E-010	0.005234	5
	57	25	1.998082	280649.2	-438708.6	1	520796.7	-57.39228	-5.56959E-014	0.0052467	5
	58	27	1.584686	335082.3	-494522.9	1	597355	-55.87895	5.247391E-011	0.0052746	5
	59	29	1.266892	391096.6	-557507.7	1	681007.6	-54.95	2.137537E-010	0.0052533	5
	60	31	0.999041	455345.5	-628541.6	1	776146.9	-54.07864	2.301477E-010	0.0052234	5
