EXPLAIN
TAG	EISPOT
TITLE	LABEL	Potentiostatic EIS	Test &Identifier
DATE	LABEL	10/10/2019	Date
TIME	LABEL	9:34:42	Time
NOTES	NOTES	1	&Notes...
	
PSTAT	PSTAT	REF600-11020	Potentiostat
VDC	POTEN	0.00000E+000	T	DC &Voltage (V)
FREQINIT	QUANT	1.00000E+006	Initial Fre&q. (Hz)
FREQFINAL	QUANT	1.00000E+000	Final Fre&q. (Hz)
PTSPERDEC	QUANT	1.00000E+001	Points/&decade
VAC	QUANT	2.50000E+001	AC &Voltage (mV rms)
AREA	QUANT	1.00000E-002	&Area (cm^2)
CONDIT	TWOPARAM	T	5.00000E+000	0.00000E+000	Conditionin&g	Time(s)	E(V)
DELAY	TWOPARAM	T	5.00000E+000	0.00000E+000	Init. De&lay	Time(s)	Stab.(mV/s)
SPEED	SELECTOR	1	&Optimize for:
ZGUESS	QUANT	1.00000E+004	E&stimated Z (ohms)
OCVCURVE	TABLE	19
	Pt	T	Vf	Vm	Ach	Over
	#	s	V vs. Ref.	V	V	bits
	0	0.258333	4.22320E-003	4.22320E-003	5.98065E-004	...........
	1	0.516667	4.22084E-003	4.09951E-003	6.08798E-004	...........
	2	0.775	4.21398E-003	4.38262E-003	6.14465E-004	...........
	3	1.03333	4.21776E-003	4.53802E-003	6.10132E-004	...........
	4	1.29167	4.25862E-003	4.40182E-003	6.02465E-004	...........
	5	1.55	4.32812E-003	4.28360E-003	6.08665E-004	...........
	6	1.80833	4.37410E-003	4.09222E-003	6.09365E-004	...........
	7	2.06667	4.35231E-003	3.94874E-003	6.04198E-004	...........
	8	2.325	4.26156E-003	3.86402E-003	5.99332E-004	...........
	9	2.58333	4.12871E-003	3.56611E-003	6.13965E-004	...........
	10	2.84167	3.97137E-003	3.23918E-003	6.13532E-004	...........
	11	3.1	3.78060E-003	2.92506E-003	6.03798E-004	...........
	12	3.35833	3.54358E-003	2.66833E-003	6.09098E-004	...........
	13	3.61667	3.27098E-003	2.49269E-003	6.09798E-004	...........
	14	3.875	2.99741E-003	2.49776E-003	6.13132E-004	...........
	15	4.13333	2.76745E-003	2.56685E-003	6.07365E-004	...........
	16	4.39167	2.61485E-003	2.48537E-003	6.03265E-004	...........
	17	4.65	2.53838E-003	2.43360E-003	6.07298E-004	...........
	18	4.90833	2.50368E-003	2.40559E-003	6.07232E-004	...........
EOC	QUANT	0.0025037	Open Circuit (V)
PSTATMODEL	IQUANT	4	Pstat Model
PSTATSECTION	LABEL	REF600-11020	Pstat Section
PSTATSERIALNO	LABEL	11020	Pstat Serial Number
CTRLMODE	IQUANT	1	Control Mode
IESTAB	IQUANT	0	I/E Stability
CASPEED	IQUANT	1	Control Amp Speed
CONVENTION	IQUANT	1	Current Convention
ICHRANGE	IQUANT	2	Ich Range
ICHRANGEMODE	TOGGLE	F	Ich Auto Range
ICHOFFSETENABLE	TOGGLE	T	Ich Offset Enable
ICHOFFSET	QUANT	0	Ich Offset (V)
ICHFILTER	IQUANT	3	Ich Filter
VCHRANGE	IQUANT	2	Vch Range
VCHRANGEMODE	TOGGLE	F	Vch Auto Range
VCHOFFSETENABLE	TOGGLE	T	Vch Offset Enable
VCHOFFSET	QUANT	0	Vch Offset (V)
VCHFILTER	IQUANT	3	Vch Filter
ACHRANGE	IQUANT	2	Ach Range
ACHOFFSETENABLE	TOGGLE	F	Ach Offset Enable
ACHOFFSET	QUANT	0	Ach Offset (V)
ACHFILTER	IQUANT	3	Ach Filter
IERANGELOWERLIMIT	IQUANT	1	I/E Range Lower Limit
IERANGEMODE	TOGGLE	F	I/E AutoRange
IERANGE	IQUANT	5	I/E Range
POSFEEDENABLE	TOGGLE	F	Positive Feedback IR Comp
POSFEEDRESISTANCE	QUANT	0	Positive Feedback Resistance (ohm)
ACHSELECT	IQUANT	0	Ach Select
CABLEID	IQUANT	14	Cable ID
DCCALDATE	LABEL	8/19/2019	DC Calibration Date
ACCALDATE	LABEL	8/19/2019	AC Calibration Date
THERMOSELECT	IQUANT	1	Thermo Select
FRAMEWORKVERSION	QUANT	6.33	Framework Version
INSTRUMENTVERSION	LABEL	3.50	Instrument Version
ZCURVE	TABLE
	Pt	Time	Freq	Zreal	Zimag	Zsig	Zmod	Zphz	Idc	Vdc	IERange
	#	s	Hz	ohm	ohm	V	ohm	°	A	V	#
	0	2	1000078	2672.652	-1810.02	1	3227.885	-34.10732	1.116797E-007	0.0040394	8
	1	4	794390.6	3045.808	-1696.762	1	3486.538	-29.12136	-4.093089E-006	0.0053601	8
	2	5	630984.4	3355.507	-1549.298	1	3695.91	-24.78362	6.395207E-007	0.004481	8
	3	7	501234.4	3602.226	-1362.6	1	3851.326	-20.71993	-1.065349E-006	0.0045882	8
	4	8	398109.4	3810.341	-1198.873	1	3994.496	-17.46548	4.731467E-006	0.0033645	8
	5	9	316265.6	3949.037	-1031.443	1	4081.515	-14.63798	2.72322E-006	0.0034815	8
	6	11	251203.1	4059.429	-880.4579	1	4153.814	-12.23746	-3.068231E-006	0.0047071	8
	7	12	199546.9	4122.259	-760.7108	1	4191.861	-10.45559	1.441727E-006	0.003817	8
	8	13	158578.1	4204.366	-644.8788	1	4253.536	-8.720243	2.999627E-006	0.0034915	8
	9	15	125953.1	4286.406	-510.8478	1	4316.74	-6.796373	-6.862126E-007	0.0051942	7
	10	16	100078.1	4294.542	-450.815	1	4318.14	-5.992616	-1.663588E-008	0.0040325	7
	11	18	79453.13	4327.759	-413.1934	1	4347.439	-5.453792	8.941139E-008	0.003877	7
	12	19	63140.62	4357.695	-387.3241	1	4374.874	-5.079261	9.173824E-008	0.0038718	7
	13	20	50203.12	4389.488	-371.2004	1	4405.155	-4.833761	-4.94216E-008	0.0041577	7
	14	22	39890.62	4421.487	-364.1647	1	4436.458	-4.708396	9.287122E-008	0.0038689	7
	15	23	31640.63	4446.056	-368.1356	1	4461.271	-4.733322	-8.407316E-008	0.0041948	7
	16	25	25171.88	4477.66	-380.5726	1	4493.804	-4.858101	-1.398238E-008	0.0040206	7
	17	26	20015.62	4494.608	-397.5639	1	4512.157	-5.054858	9.572945E-008	0.0039945	7
	18	27	15890.62	4540.528	-433.9454	1	4561.218	-5.459266	1.39089E-008	0.0039674	7
	19	29	12609.37	4571.563	-478.8627	1	4596.575	-5.979819	-4.612426E-008	0.0040902	7
	20	30	10078.13	4604.313	-536.3505	1	4635.448	-6.644365	1.513542E-007	0.0038333	7
	21	31	8015.625	4644.498	-615.789	1	4685.142	-7.55249	6.939303E-008	0.0039418	7
	22	33	6328.125	4678.14	-707.3952	1	4731.321	-8.598719	9.077564E-008	0.0038592	7
	23	34	5015.625	4720.557	-828.3252	1	4792.68	-9.95248	-1.524661E-008	0.0042016	7
	24	35	3984.375	4771.98	-980.569	1	4871.684	-11.61177	-4.266995E-009	0.0040888	7
	25	37	3170.956	4818.575	-1164.514	1	4957.293	-13.58627	-3.258961E-008	0.0040752	7
	26	38	2527.573	4878.588	-1393.294	1	5073.646	-15.93901	-1.82017E-008	0.0041058	7
	27	39	1976.103	4955.406	-1696.919	1	5237.899	-18.90315	4.500379E-008	0.0040043	7
	28	41	1577.524	5049.235	-2036.374	1	5444.409	-21.96439	-1.580138E-008	0.0040141	7
	29	42	1265.625	5140.087	-2449.67	1	5693.978	-25.4816	-1.53232E-008	0.0041045	7
	30	44	998.264	5267.323	-2985.573	1	6054.613	-29.54501	-5.777256E-008	0.0042362	7
	31	45	796.875	5413.018	-3606.109	1	6504.213	-33.67124	-4.204233E-008	0.0041427	7
	32	46	627.7902	5593.028	-4408.77	1	7121.742	-38.24736	-1.489746E-008	0.0042044	7
	33	48	505.5147	5789.647	-5296.106	1	7846.576	-42.45086	-1.635288E-008	0.0040179	7
	34	49	397.9953	6038.358	-6491.84	1	8865.988	-47.07269	4.143472E-009	0.0040697	7
	35	50	315.5048	6331.247	-7926.79	1	10144.88	-51.38511	1.47916E-009	0.004006	6
	36	52	252.4038	6665.285	-9622.83	1	11705.76	-55.29147	1.748941E-009	0.0040037	6
	37	53	198.6229	7103	-11867.89	1	13831.1	-59.09924	1.348344E-009	0.0040064	6
	38	54	158.3615	7619.598	-14488.41	1	16369.86	-62.25967	1.80616E-009	0.0040026	6
	39	56	125.558	8291.235	-17795.89	1	19632.59	-65.01885	1.04226E-009	0.0040045	6
	40	57	100.4464	9132.06	-21707.14	1	23549.83	-67.18382	4.597539E-010	0.0040083	6
	41	58	79.00281	10314.87	-26861.21	1	28773.62	-68.9929	1.596896E-009	0.0040022	6
	42	60	63.3446	12015.02	-32660.72	1	34800.62	-69.80276	1.650971E-010	0.0040033	6
	43	61	49.86702	13506.66	-40318.2	1	42520.43	-71.47907	3.958325E-010	0.0039959	6
	44	63	39.72458	16110.3	-48875.41	1	51462.1	-71.75677	9.240235E-010	0.0040042	6
	45	64	31.6723	19442.42	-59445.73	1	62544.41	-71.88907	2.597083E-010	0.0039986	6
	46	66	24.93351	23866.72	-72601.73	1	76424.03	-71.80251	6.335754E-010	0.0039994	6
	47	67	19.86229	29302.54	-87485.97	1	92262.85	-71.48225	2.686457E-010	0.0040044	6
	48	68	15.83615	36716.84	-104854.3	1	111097.1	-70.70128	5.372292E-010	0.0040097	5
	49	70	12.40079	45950.95	-128103.9	1	136096	-70.26706	8.455462E-010	0.0040073	5
	50	71	9.93114	57258.01	-151984.9	1	162412.7	-69.35686	4.945661E-010	0.0040079	5
	51	73	7.944915	72386.23	-180580.1	1	194548.1	-68.15643	9.081172E-011	0.0040088	5
	52	74	6.317385	89815.73	-212712.3	1	230896.9	-67.10857	3.150787E-011	0.0040046	5
	53	76	5.008013	112616.1	-251045.8	1	275148	-65.83958	-8.001583E-011	0.004006	5
	54	79	3.945707	140772.6	-295844.6	1	327629.3	-64.55335	5.357512E-010	0.0040129	5
	55	82	3.158693	173627	-342966	1	384411.2	-63.14912	1.230118E-010	0.0040012	5
	56	85	2.504006	213755.3	-396768.2	1	450684.3	-61.68684	4.833228E-010	0.004009	5
	57	88	1.998082	259026.5	-455041.2	1	523600.3	-60.34984	5.102959E-011	0.0040551	5
	58	91	1.584686	311132	-520114.3	1	606070.9	-59.11217	1.322727E-010	0.0040312	5
	59	95	1.266892	370554.2	-591983.8	1	698394.8	-57.95536	3.05058E-011	0.0040497	5
	60	99	0.999041	437451	-675941.1	1	805145.8	-57.09013	2.371131E-010	0.0039823	5
