EXPLAIN
TAG	EISPOT
TITLE	LABEL	Potentiostatic IDE	Test &Identifier
DATE	LABEL	9/14/2019	Date
TIME	LABEL	11:48:23	Time
NOTES	NOTES	1	&Notes...
	
PSTAT	PSTAT	REF600-11020	Potentiostat
VDC	POTEN	0.00000E+000	T	DC &Voltage (V)
FREQINIT	QUANT	1.00000E+006	Initial Fre&q. (Hz)
FREQFINAL	QUANT	1.00000E+000	Final Fre&q. (Hz)
PTSPERDEC	QUANT	1.00000E+001	Points/&decade
VAC	QUANT	2.50000E+001	AC &Voltage (mV rms)
AREA	QUANT	1.00000E-002	&Area (cm^2)
CONDIT	TWOPARAM	T	5.00000E+000	0.00000E+000	Conditionin&g	Time(s)	E(V)
DELAY	TWOPARAM	T	5.00000E+000	0.00000E+000	Init. De&lay	Time(s)	Stab.(mV/s)
SPEED	SELECTOR	1	&Optimize for:
ZGUESS	QUANT	1.00000E+007	E&stimated Z (ohms)
OCVCURVE	TABLE	19
	Pt	T	Vf	Vm	Ach	Over
	#	s	V vs. Ref.	V	V	bits
	0	0.258333	4.73888E-003	4.73888E-003	5.81632E-004	...........
	1	0.516667	4.73571E-003	4.57315E-003	5.83432E-004	...........
	2	0.775	4.71660E-003	4.43344E-003	5.83665E-004	...........
	3	1.03333	4.66401E-003	4.31813E-003	5.77766E-004	...........
	4	1.29167	4.57401E-003	4.22874E-003	5.81065E-004	...........
	5	1.55	4.46205E-003	4.13395E-003	5.78199E-004	...........
	6	1.80833	4.34774E-003	4.04357E-003	5.82465E-004	...........
	7	2.06667	4.24165E-003	3.97402E-003	5.83765E-004	...........
	8	2.325	4.14605E-003	3.90667E-003	5.80999E-004	...........
	9	2.58333	4.06053E-003	3.84342E-003	5.81965E-004	...........
	10	2.84167	3.98409E-003	3.78946E-003	5.83665E-004	...........
	11	3.1	3.91530E-003	3.73416E-003	5.81365E-004	...........
	12	3.35833	3.85264E-003	3.68227E-003	5.83232E-004	...........
	13	3.61667	3.79464E-003	3.63358E-003	5.85299E-004	...........
	14	3.875	3.74011E-003	3.58846E-003	5.79232E-004	...........
	15	4.13333	3.68854E-003	3.54670E-003	5.78699E-004	...........
	16	4.39167	3.63990E-003	3.50457E-003	5.81932E-004	...........
	17	4.65	3.59409E-003	3.46682E-003	5.84065E-004	...........
	18	4.90833	3.55081E-003	3.42860E-003	5.83599E-004	...........
EOC	QUANT	0.0035508	Open Circuit (V)
PSTATMODEL	IQUANT	4	Pstat Model
PSTATSECTION	LABEL	REF600-11020	Pstat Section
PSTATSERIALNO	LABEL	11020	Pstat Serial Number
CTRLMODE	IQUANT	1	Control Mode
IESTAB	IQUANT	0	I/E Stability
CASPEED	IQUANT	1	Control Amp Speed
CONVENTION	IQUANT	1	Current Convention
ICHRANGE	IQUANT	2	Ich Range
ICHRANGEMODE	TOGGLE	F	Ich Auto Range
ICHOFFSETENABLE	TOGGLE	T	Ich Offset Enable
ICHOFFSET	QUANT	0	Ich Offset (V)
ICHFILTER	IQUANT	3	Ich Filter
VCHRANGE	IQUANT	2	Vch Range
VCHRANGEMODE	TOGGLE	F	Vch Auto Range
VCHOFFSETENABLE	TOGGLE	T	Vch Offset Enable
VCHOFFSET	QUANT	0	Vch Offset (V)
VCHFILTER	IQUANT	3	Vch Filter
ACHRANGE	IQUANT	2	Ach Range
ACHOFFSETENABLE	TOGGLE	F	Ach Offset Enable
ACHOFFSET	QUANT	0	Ach Offset (V)
ACHFILTER	IQUANT	3	Ach Filter
IERANGELOWERLIMIT	IQUANT	1	I/E Range Lower Limit
IERANGEMODE	TOGGLE	F	I/E AutoRange
IERANGE	IQUANT	2	I/E Range
POSFEEDENABLE	TOGGLE	F	Positive Feedback IR Comp
POSFEEDRESISTANCE	QUANT	0	Positive Feedback Resistance (ohm)
ACHSELECT	IQUANT	0	Ach Select
CABLEID	IQUANT	14	Cable ID
DCCALDATE	LABEL	8/19/2019	DC Calibration Date
ACCALDATE	LABEL	8/19/2019	AC Calibration Date
THERMOSELECT	IQUANT	1	Thermo Select
FRAMEWORKVERSION	QUANT	6.33	Framework Version
INSTRUMENTVERSION	LABEL	3.50	Instrument Version
ZCURVE	TABLE
	Pt	Time	Freq	Zreal	Zimag	Zsig	Zmod	Zphz	Idc	Vdc	IERange
	#	s	Hz	ohm	ohm	V	ohm	°	A	V	#
	0	2	1000078	2415.028	-1665.799	1	2933.811	-34.59651	2.380207E-006	0.0043428	8
	1	3	794390.6	2748.625	-1568.6	1	3164.719	-29.71276	1.831102E-006	0.004938	8
	2	5	630984.4	3033.288	-1437.534	1	3356.686	-25.35719	-1.475598E-006	0.005555	8
	3	6	501234.4	3263.32	-1283.672	1	3506.718	-21.47288	2.845705E-006	0.0047519	8
	4	7	398109.4	3434.125	-1124.506	1	3613.548	-18.13106	1.297782E-006	0.0047587	8
	5	9	316265.6	3582.105	-972.911	1	3711.878	-15.19516	-9.803531E-007	0.0053373	8
	6	10	251203.1	3684.394	-846.4177	1	3780.368	-12.9381	-1.740678E-006	0.00548	8
	7	12	199546.9	3760.238	-716.9762	1	3827.982	-10.79518	-9.817135E-007	0.0054499	8
	8	13	158578.1	3830	-645.1819	1	3883.962	-9.56198	-3.440638E-006	0.0058766	8
	9	14	125953.1	3902.538	-539.8955	1	3939.707	-7.876572	-1.071936E-006	0.0077849	7
	10	16	100078.1	3933.375	-484.6222	1	3963.117	-7.023885	-5.377685E-008	0.0052305	7
	11	17	79453.13	3973.057	-461.3838	1	3999.757	-6.623983	6.978532E-008	0.005094	7
	12	18	63140.62	4009.645	-450.1403	1	4034.833	-6.405455	-1.345574E-008	0.0051701	7
	13	19	50203.12	4050.272	-448.3885	1	4075.016	-6.317249	-1.11523E-008	0.0051392	7
	14	21	39890.62	4086.938	-456.8619	1	4112.394	-6.378378	7.734883E-008	0.0049704	7
	15	22	31640.63	4134.604	-479.1585	1	4162.276	-6.610509	-2.028011E-008	0.0050975	7
	16	23	25171.88	4181.754	-509.0814	1	4212.628	-6.94096	-6.337569E-009	0.0051428	7
	17	25	20015.62	4231.279	-547.9423	1	4266.61	-7.378627	-1.344323E-008	0.0051558	7
	18	26	15890.62	4287.937	-600.0568	1	4329.72	-7.966277	-3.663755E-009	0.0051383	7
	19	27	12609.37	4348.909	-658.8663	1	4398.535	-8.614885	-8.014384E-009	0.0051427	7
	20	29	10078.13	4411.571	-731.0533	1	4471.733	-9.409133	2.506355E-008	0.0050176	7
	21	30	8015.625	4481.341	-816.2599	1	4555.074	-10.32305	7.330763E-008	0.00508	7
	22	31	6328.125	4560.457	-925.1129	1	4653.343	-11.46715	-8.359727E-009	0.0051334	7
	23	33	5015.625	4640.239	-1051.727	1	4757.936	-12.77053	7.092607E-008	0.0050838	7
	24	34	3984.375	4726.148	-1203.803	1	4877.05	-14.29002	-6.500028E-008	0.0052005	7
	25	35	3170.956	4819	-1388.094	1	5014.934	-16.06883	8.844721E-008	0.0049307	7
	26	37	2527.573	4915.805	-1609.443	1	5172.567	-18.12853	4.773384E-008	0.0049538	7
	27	38	1976.103	5029.582	-1905.513	1	5378.445	-20.74975	3.646666E-008	0.0050697	7
	28	39	1577.524	5148.848	-2239.233	1	5614.694	-23.50421	-1.947844E-008	0.0050868	7
	29	41	1265.625	5274.646	-2637.663	1	5897.386	-26.568	4.839956E-008	0.0049565	7
	30	42	998.264	5425.196	-3163.225	1	6280.027	-30.24483	3.582267E-008	0.0050642	7
	31	44	796.875	5586.311	-3773.615	1	6741.442	-34.03946	3.67206E-008	0.0050621	7
	32	45	627.7902	5786.748	-4576.059	1	7377.45	-38.33633	-3.935391E-008	0.0052234	7
	33	46	505.5147	5993.355	-5462.29	1	8109.064	-42.34576	8.735375E-008	0.0049185	7
	34	48	397.9953	6270.193	-6671.012	1	9155.202	-46.77402	6.665517E-009	0.0051125	7
	35	49	315.5048	6588.477	-8112.057	1	10450.53	-50.91707	9.330061E-010	0.0050605	6
	36	50	252.4038	6951.244	-9813.31	1	12025.84	-54.6882	3.878243E-010	0.0050525	6
	37	52	198.6229	7422.207	-12054.25	1	14156.06	-58.37799	1.42805E-009	0.0050505	6
	38	53	158.3615	7965.502	-14654.2	1	16679.17	-61.47306	4.633518E-010	0.0050511	6
	39	54	125.558	8644.538	-17920.81	1	19896.82	-64.24854	1.1487E-009	0.0050484	6
	40	56	100.4464	9412.029	-21763.13	1	23711.18	-66.61268	1.428634E-009	0.0050496	6
	41	57	79.00281	10442.86	-26816.93	1	28778.48	-68.72343	7.139707E-010	0.0050443	6
	42	58	63.3446	11740.33	-32885.09	1	34917.97	-70.35289	3.932545E-010	0.0050459	6
	43	60	49.86702	13244.1	-40015.52	1	42150.3	-71.68679	1.220155E-009	0.005049	6
	44	61	39.72458	15475.88	-49140.07	1	51519.41	-72.51901	1.089085E-009	0.0050511	6
	45	62	31.6723	17995.41	-59763.16	1	62413.7	-73.24232	8.814393E-010	0.0050448	6
	46	64	24.93351	21775.62	-73846.07	1	76989.74	-73.57034	7.343995E-010	0.0050429	6
	47	65	19.86229	26403.57	-90011.31	1	93803.97	-73.65168	1.462002E-009	0.0050519	6
	48	66	15.83615	31781.08	-109702.9	1	114213.7	-73.84363	-1.999088E-010	0.0050505	5
	49	68	12.40079	41506.27	-135139.3	1	141369.7	-72.92635	1.240298E-009	0.0050507	5
	50	69	9.93114	51773.98	-161050.2	1	169167.7	-72.17858	1.051527E-009	0.0050466	5
	51	71	7.944915	65468.74	-192620.9	1	203442.8	-71.22793	9.461144E-010	0.0050547	5
	52	72	6.317385	83155.96	-231881	1	246340.6	-70.27142	4.09842E-010	0.0050637	5
	53	74	5.008013	106266.2	-277462.7	1	297116.2	-69.04352	6.172709E-010	0.0050605	5
	54	77	3.945707	137187.4	-330693.6	1	358020.5	-67.469	1.258997E-010	0.0050518	5
	55	79	3.158693	173366.7	-387047.8	1	424101.4	-65.87141	1.563723E-010	0.0050387	5
	56	83	2.504006	219164.5	-453025.3	1	503254.4	-64.18324	4.956128E-010	0.0050529	5
	57	85	1.998082	273381.7	-523503.2	1	590587.1	-62.42572	4.539354E-010	0.0050685	5
	58	88	1.584686	340140	-600708.6	1	690323.1	-60.4801	3.681817E-010	0.0050153	5
	59	92	1.266892	415676.2	-684314.1	1	800670	-58.72405	3.473523E-010	0.005069	5
	60	96	0.999041	508330.2	-778779.5	1	929998.4	-56.86644	-7.675841E-011	0.0050053	5
