EXPLAIN
TAG	EISPOT
TITLE	LABEL	Potentiostatic EIS	Test &Identifier
DATE	LABEL	11/22/2019	Date
TIME	LABEL	0:40:59	Time
NOTES	NOTES	4	&Notes...
	
	
	
	
PSTAT	PSTAT	REF600-11020	Potentiostat
VDC	POTEN	0.00000E+000	T	DC &Voltage (V)
FREQINIT	QUANT	1.00000E+006	Initial Fre&q. (Hz)
FREQFINAL	QUANT	1.00000E+000	Final Fre&q. (Hz)
PTSPERDEC	QUANT	1.00000E+001	Points/&decade
VAC	QUANT	2.50000E+001	AC &Voltage (mV rms)
AREA	QUANT	1.00000E-002	&Area (cm^2)
CONDIT	TWOPARAM	T	5.00000E+000	0.00000E+000	Conditionin&g	Time(s)	E(V)
DELAY	TWOPARAM	T	5.00000E+000	0.00000E+000	Init. De&lay	Time(s)	Stab.(mV/s)
SPEED	SELECTOR	1	&Optimize for:
ZGUESS	QUANT	1.00000E+005	E&stimated Z (ohms)
OCVCURVE	TABLE	19
	Pt	T	Vf	Vm	Ach	Over
	#	s	V vs. Ref.	V	V	bits
	0	0.258333	4.72923E-003	4.72923E-003	5.55599E-004	...........
	1	0.516667	4.72665E-003	4.59426E-003	5.54299E-004	...........
	2	0.775	4.71031E-003	4.43991E-003	5.48033E-004	...........
	3	1.03333	4.66439E-003	4.39505E-003	5.51899E-004	...........
	4	1.29167	4.58791E-003	4.36870E-003	5.58299E-004	...........
	5	1.55	4.50177E-003	4.33849E-003	5.55599E-004	...........
	6	1.80833	4.42841E-003	4.27941E-003	5.54366E-004	...........
	7	2.06667	4.37254E-003	4.21224E-003	5.55066E-004	...........
	8	2.325	4.32468E-003	4.16757E-003	5.57766E-004	...........
	9	2.58333	4.27616E-003	4.13388E-003	5.55899E-004	...........
	10	2.84167	4.22665E-003	4.09826E-003	5.54799E-004	...........
	11	3.1	4.18010E-003	4.06284E-003	5.54599E-004	...........
	12	3.35833	4.13879E-003	4.04274E-003	5.59899E-004	...........
	13	3.61667	4.10288E-003	4.02178E-003	5.54699E-004	...........
	14	3.875	4.07214E-003	3.99835E-003	5.62099E-004	...........
	15	4.13333	4.04628E-003	3.99967E-003	5.59499E-004	...........
	16	4.39167	4.02506E-003	3.97716E-003	5.59099E-004	...........
	17	4.65	4.00781E-003	3.95460E-003	5.53233E-004	...........
	18	4.90833	3.99228E-003	3.94087E-003	5.57032E-004	...........
EOC	QUANT	0.0039923	Open Circuit (V)
PSTATMODEL	IQUANT	4	Pstat Model
PSTATSECTION	LABEL	REF600-11020	Pstat Section
PSTATSERIALNO	LABEL	11020	Pstat Serial Number
CTRLMODE	IQUANT	1	Control Mode
IESTAB	IQUANT	0	I/E Stability
CASPEED	IQUANT	1	Control Amp Speed
CONVENTION	IQUANT	1	Current Convention
ICHRANGE	IQUANT	2	Ich Range
ICHRANGEMODE	TOGGLE	F	Ich Auto Range
ICHOFFSETENABLE	TOGGLE	T	Ich Offset Enable
ICHOFFSET	QUANT	0	Ich Offset (V)
ICHFILTER	IQUANT	3	Ich Filter
VCHRANGE	IQUANT	2	Vch Range
VCHRANGEMODE	TOGGLE	F	Vch Auto Range
VCHOFFSETENABLE	TOGGLE	T	Vch Offset Enable
VCHOFFSET	QUANT	0	Vch Offset (V)
VCHFILTER	IQUANT	3	Vch Filter
ACHRANGE	IQUANT	2	Ach Range
ACHOFFSETENABLE	TOGGLE	F	Ach Offset Enable
ACHOFFSET	QUANT	0	Ach Offset (V)
ACHFILTER	IQUANT	3	Ach Filter
IERANGELOWERLIMIT	IQUANT	1	I/E Range Lower Limit
IERANGEMODE	TOGGLE	F	I/E AutoRange
IERANGE	IQUANT	4	I/E Range
POSFEEDENABLE	TOGGLE	F	Positive Feedback IR Comp
POSFEEDRESISTANCE	QUANT	0	Positive Feedback Resistance (ohm)
ACHSELECT	IQUANT	0	Ach Select
CABLEID	IQUANT	14	Cable ID
DCCALDATE	LABEL	8/19/2019	DC Calibration Date
ACCALDATE	LABEL	8/19/2019	AC Calibration Date
THERMOSELECT	IQUANT	1	Thermo Select
FRAMEWORKVERSION	QUANT	6.33	Framework Version
INSTRUMENTVERSION	LABEL	3.50	Instrument Version
ZCURVE	TABLE
	Pt	Time	Freq	Zreal	Zimag	Zsig	Zmod	Zphz	Idc	Vdc	IERange
	#	s	Hz	ohm	ohm	V	ohm	°	A	V	#
	0	1	1000078	2305.097	-1710.694	1	2870.53	-36.58041	-4.416429E-006	0.0067303	8
	1	3	794390.6	2656.685	-1652.38	1	3128.632	-31.8804	4.175939E-006	0.0052709	8
	2	4	630984.4	2969.26	-1542.844	1	3346.173	-27.45664	7.305479E-006	0.0047837	8
	3	5	501234.4	3233.783	-1394.544	1	3521.663	-23.32775	-9.940524E-007	0.0052617	8
	4	7	398109.4	3443.874	-1252.665	1	3664.619	-19.98821	-3.675505E-006	0.0061358	8
	5	8	316265.6	3607.308	-1085.105	1	3766.978	-16.74168	-6.980568E-007	0.0059832	8
	6	10	251203.1	3720.412	-954.189	1	3840.826	-14.38482	-3.570875E-006	0.0060714	8
	7	11	199546.9	3846.195	-836.4726	1	3936.103	-12.26966	-1.120461E-007	0.0052362	8
	8	12	158578.1	3915.076	-746.2028	1	3985.553	-10.79099	-1.516834E-006	0.0052993	8
	9	14	125953.1	4000.358	-619.4075	1	4048.028	-8.801669	-4.533584E-007	0.0035223	7
	10	15	100078.1	4042.952	-552.9728	1	4080.593	-7.788277	-9.218686E-007	0.0071961	7
	11	16	79453.13	4089.563	-525.0947	1	4123.136	-7.316672	3.906853E-007	0.0060237	7
	12	18	63140.62	4133.346	-505.2961	1	4164.117	-6.969751	-3.07738E-007	0.0045963	7
	13	19	50203.12	4180.604	-503.812	1	4210.852	-6.871678	1.113554E-006	0.0039795	7
	14	20	39890.62	4227.133	-509.945	1	4257.781	-6.878701	1.128409E-006	0.0043191	7
	15	22	31640.63	4268.903	-530.2924	1	4301.714	-7.081131	5.074777E-007	0.0037633	7
	16	23	25171.88	4314.018	-561.0569	1	4350.349	-7.409976	-2.999542E-007	0.00686	7
	17	24	20015.62	4367.765	-613.1752	1	4410.595	-7.991329	3.94006E-007	0.0060191	7
	18	26	15890.62	4429.284	-662.2795	1	4478.523	-8.504032	1.008698E-006	0.0037392	7
	19	27	12609.37	4492.464	-735.2878	1	4552.239	-9.295263	1.009135E-006	0.0037415	7
	20	28	10078.13	4556.652	-816.8438	1	4629.289	-10.16312	1.010188E-006	0.0037456	7
	21	30	8015.625	4629.441	-923.5702	1	4720.668	-11.28234	1.116701E-006	0.0039859	7
	22	31	6328.125	4704.188	-1054.181	1	4820.859	-12.63098	-1.123163E-006	0.0071289	7
	23	32	5015.625	4797.957	-1212.917	1	4948.895	-14.18706	1.010038E-006	0.0037441	7
	24	34	3984.375	4897.713	-1392.297	1	5091.766	-15.86912	-3.088882E-007	0.0045952	7
	25	35	3170.956	4994.62	-1630.411	1	5253.995	-18.07841	1.038517E-006	0.0047503	7
	26	36	2527.573	5100.743	-1903.147	1	5444.221	-20.46114	6.925708E-008	0.0064592	7
	27	38	1976.103	5243.003	-2272.434	1	5714.284	-23.43298	1.00986E-006	0.0037383	7
	28	39	1577.524	5391.443	-2673.646	1	6017.977	-26.37706	1.130039E-006	0.0043171	7
	29	41	1265.625	5531.876	-3171.546	1	6376.548	-29.82659	1.114533E-006	0.0039827	7
	30	42	998.264	5715.617	-3807.879	1	6867.912	-33.67249	3.979064E-007	0.0060172	7
	31	43	796.875	5922.466	-4558.35	1	7473.563	-37.58443	1.00747E-006	0.0037359	7
	32	45	627.7902	6182.64	-5506.081	1	8279.007	-41.68734	-2.960043E-007	0.00685	7
	33	46	505.5147	6454.649	-6569.276	1	9209.662	-45.50426	-2.958941E-007	0.0068422	7
	34	47	397.9953	6803.233	-8007.024	1	10506.97	-49.64684	2.963948E-009	0.0054859	7
	35	49	315.5048	7204.914	-9717.95	1	12097.49	-53.44665	7.111146E-010	0.005423	6
	36	50	252.4038	7659.583	-11728.84	1	14008.39	-56.85323	1.534906E-009	0.0054211	6
	37	51	198.6229	8245.045	-14387.16	1	16582.26	-60.18369	8.224942E-010	0.0054166	6
	38	53	158.3615	8922.038	-17486.84	1	19631.41	-62.96867	1.235094E-009	0.0054277	6
	39	54	125.558	9782.47	-21383.44	1	23514.86	-65.41691	8.965678E-010	0.0054281	6
	40	55	100.4464	10811.42	-25946.32	1	28108.69	-67.37927	9.747565E-010	0.0054294	6
	41	57	79.00281	12251.11	-31962.9	1	34230.35	-69.0286	2.550588E-010	0.0054228	6
	42	58	63.3446	13635.66	-38809.2	1	41134.96	-70.64101	2.441705E-010	0.0054259	6
	43	60	49.86702	16670.94	-47617.02	1	50450.98	-70.70461	1.048258E-009	0.0054235	6
	44	61	39.72458	19557.49	-58184.77	1	61383.73	-71.4211	7.075908E-010	0.0054332	6
	45	62	31.6723	23612.69	-70461.2	1	74312.45	-71.47317	1.494062E-010	0.0054219	6
	46	64	24.93351	29093.82	-86273.65	1	91047.2	-71.36449	2.944379E-010	0.0054214	6
	47	65	19.86229	35912.92	-103971.1	1	109998.8	-70.94444	-1.208798E-010	0.0054222	5
	48	66	15.83615	44863.7	-124132.9	1	131991.4	-70.1293	1.501815E-010	0.0054275	5
	49	68	12.40079	57218.85	-152514.7	1	162894.9	-69.43545	-3.83487E-010	0.0054386	5
	50	69	9.93114	72409.51	-179340.1	1	193406.3	-68.01334	3.204449E-010	0.005429	5
	51	71	7.944915	92081.16	-210589.3	1	229840.8	-66.38242	8.169744E-010	0.0054335	5
	52	72	6.317385	116345.7	-248144	1	274065.3	-64.87983	1.896556E-010	0.0054567	5
	53	74	5.008013	147060.9	-289599.3	1	324799.4	-63.07816	4.543707E-010	0.005448	5
	54	77	3.945707	186161.1	-335835.7	1	383981.2	-60.99943	-1.150009E-010	0.0054327	5
	55	80	3.158693	228751.6	-382389.2	1	445588.2	-59.11143	3.43851E-010	0.0054487	5
	56	83	2.504006	280788.8	-433986.1	1	516900.7	-57.09715	-3.244435E-010	0.0054287	5
	57	86	1.998082	336918.9	-484967	1	590514.5	-55.21131	1.072372E-010	0.0053869	5
	58	89	1.584686	398470.4	-541794.9	1	672547.7	-53.66687	-1.093628E-010	0.0054351	5
	59	92	1.266892	464963.6	-600243.6	1	759265.1	-52.23774	8.702926E-011	0.0053894	5
	60	97	0.999041	537723.2	-669036.3	1	858344.8	-51.21019	3.589259E-011	0.0054755	5
