EXPLAIN
TAG	EISPOT
TITLE	LABEL	Potentiostatic IDE	Test &Identifier
DATE	LABEL	9/18/2019	Date
TIME	LABEL	8:37:14	Time
NOTES	NOTES	1	&Notes...
	
PSTAT	PSTAT	REF600-11020	Potentiostat
VDC	POTEN	0.00000E+000	T	DC &Voltage (V)
FREQINIT	QUANT	1.00000E+006	Initial Fre&q. (Hz)
FREQFINAL	QUANT	1.00000E+000	Final Fre&q. (Hz)
PTSPERDEC	QUANT	1.00000E+001	Points/&decade
VAC	QUANT	2.50000E+001	AC &Voltage (mV rms)
AREA	QUANT	1.00000E-002	&Area (cm^2)
CONDIT	TWOPARAM	T	5.00000E+000	0.00000E+000	Conditionin&g	Time(s)	E(V)
DELAY	TWOPARAM	T	5.00000E+000	0.00000E+000	Init. De&lay	Time(s)	Stab.(mV/s)
SPEED	SELECTOR	1	&Optimize for:
ZGUESS	QUANT	1.00000E+007	E&stimated Z (ohms)
OCVCURVE	TABLE	19
	Pt	T	Vf	Vm	Ach	Over
	#	s	V vs. Ref.	V	V	bits
	0	0.258333	1.30345E-002	1.30345E-002	5.69432E-004	...........
	1	0.516667	1.30405E-002	1.33463E-002	5.71266E-004	...........
	2	0.775	1.30756E-002	1.35674E-002	5.68732E-004	...........
	3	1.03333	1.31714E-002	1.38366E-002	5.68499E-004	...........
	4	1.29167	1.33373E-002	1.40337E-002	5.64399E-004	...........
	5	1.55	1.35538E-002	1.43730E-002	5.62799E-004	...........
	6	1.80833	1.38015E-002	1.48140E-002	5.61066E-004	...........
	7	2.06667	1.40821E-002	1.51539E-002	5.65399E-004	...........
	8	2.325	1.44022E-002	1.54917E-002	5.67366E-004	...........
	9	2.58333	1.47505E-002	1.57931E-002	5.65666E-004	...........
	10	2.84167	1.51037E-002	1.61429E-002	5.66699E-004	...........
	11	3.1	1.54486E-002	1.65125E-002	5.73965E-004	...........
	12	3.35833	1.57868E-002	1.67848E-002	5.69599E-004	...........
	13	3.61667	1.61204E-002	1.70488E-002	5.68532E-004	...........
	14	3.875	1.64403E-002	1.72274E-002	5.67199E-004	...........
	15	4.13333	1.67309E-002	1.73832E-002	5.66966E-004	...........
	16	4.39167	1.69805E-002	1.75211E-002	5.71799E-004	...........
	17	4.65	1.71815E-002	1.73482E-002	5.61832E-004	...........
	18	4.90833	1.73385E-002	1.82986E-002	5.64166E-004	...........
EOC	QUANT	0.0173385	Open Circuit (V)
PSTATMODEL	IQUANT	4	Pstat Model
PSTATSECTION	LABEL	REF600-11020	Pstat Section
PSTATSERIALNO	LABEL	11020	Pstat Serial Number
CTRLMODE	IQUANT	1	Control Mode
IESTAB	IQUANT	0	I/E Stability
CASPEED	IQUANT	1	Control Amp Speed
CONVENTION	IQUANT	1	Current Convention
ICHRANGE	IQUANT	2	Ich Range
ICHRANGEMODE	TOGGLE	F	Ich Auto Range
ICHOFFSETENABLE	TOGGLE	T	Ich Offset Enable
ICHOFFSET	QUANT	0	Ich Offset (V)
ICHFILTER	IQUANT	3	Ich Filter
VCHRANGE	IQUANT	2	Vch Range
VCHRANGEMODE	TOGGLE	F	Vch Auto Range
VCHOFFSETENABLE	TOGGLE	T	Vch Offset Enable
VCHOFFSET	QUANT	0	Vch Offset (V)
VCHFILTER	IQUANT	3	Vch Filter
ACHRANGE	IQUANT	2	Ach Range
ACHOFFSETENABLE	TOGGLE	F	Ach Offset Enable
ACHOFFSET	QUANT	0	Ach Offset (V)
ACHFILTER	IQUANT	3	Ach Filter
IERANGELOWERLIMIT	IQUANT	1	I/E Range Lower Limit
IERANGEMODE	TOGGLE	F	I/E AutoRange
IERANGE	IQUANT	3	I/E Range
POSFEEDENABLE	TOGGLE	F	Positive Feedback IR Comp
POSFEEDRESISTANCE	QUANT	0	Positive Feedback Resistance (ohm)
ACHSELECT	IQUANT	0	Ach Select
CABLEID	IQUANT	14	Cable ID
DCCALDATE	LABEL	8/19/2019	DC Calibration Date
ACCALDATE	LABEL	8/19/2019	AC Calibration Date
THERMOSELECT	IQUANT	1	Thermo Select
FRAMEWORKVERSION	QUANT	6.33	Framework Version
INSTRUMENTVERSION	LABEL	3.50	Instrument Version
ZCURVE	TABLE
	Pt	Time	Freq	Zreal	Zimag	Zsig	Zmod	Zphz	Idc	Vdc	IERange
	#	s	Hz	ohm	ohm	V	ohm	°	A	V	#
	0	1	1000078	2212.054	-1583.887	1	2720.64	-35.60362	-1.886187E-006	0.0191663	8
	1	3	794390.6	2541.297	-1507.849	1	2954.961	-30.68228	-1.651155E-006	0.0196765	8
	2	4	630984.4	2817.986	-1390.05	1	3142.178	-26.2561	6.05387E-007	0.0191382	8
	3	5	501234.4	3043.672	-1227.268	1	3281.787	-21.96025	1.192971E-006	0.018977	8
	4	7	398109.4	3225.395	-1078.715	1	3401	-18.49222	-1.969912E-006	0.0192615	8
	5	8	316265.6	3356.572	-951.747	1	3488.896	-15.83054	-3.195064E-006	0.0196204	8
	6	9	251203.1	3456.681	-812.6466	1	3550.921	-13.22968	2.084259E-006	0.0184413	8
	7	11	199546.9	3544.301	-708.2719	1	3614.377	-11.30079	5.427548E-007	0.0187304	8
	8	12	158578.1	3594.686	-621.3963	1	3647.999	-9.80753	-1.758982E-006	0.019185	8
	9	14	125953.1	3660.517	-529.8887	1	3698.671	-8.236799	9.132546E-007	0.01734	7
	10	15	100078.1	3694.95	-479.5835	1	3725.943	-7.395323	-3.351319E-008	0.0189335	7
	11	16	79453.13	3733.447	-452.0241	1	3760.711	-6.90344	-3.575098E-008	0.0188603	7
	12	18	63140.62	3769.503	-437.8062	1	3794.842	-6.624894	2.590431E-008	0.0187872	7
	13	19	50203.12	3805.264	-433.0078	1	3829.821	-6.491865	4.699833E-009	0.0188775	7
	14	20	39890.62	3843.414	-440.1261	1	3868.533	-6.532732	6.449546E-008	0.0186699	7
	15	22	31640.63	3884.916	-455.5015	1	3911.528	-6.687325	-3.890141E-008	0.0188562	7
	16	23	25171.88	3928.276	-481.0924	1	3957.626	-6.982193	6.084813E-008	0.0186747	7
	17	24	20015.62	3974.926	-516.7403	1	4008.374	-7.40691	6.549563E-008	0.0186749	7
	18	26	15890.62	4023.331	-566.9955	1	4063.087	-8.021688	-4.549873E-009	0.0187736	7
	19	27	12609.37	4078.165	-622.5756	1	4125.412	-8.679801	5.025764E-008	0.0187856	7
	20	28	10078.13	4135.629	-691.2406	1	4193	-9.488862	5.00248E-008	0.0187911	7
	21	30	8015.625	4197.872	-778.7831	1	4269.5	-10.50994	2.286327E-008	0.0187441	7
	22	31	6328.125	4267.645	-884.739	1	4358.389	-11.71226	6.337659E-008	0.0186658	7
	23	32	5015.625	4341.63	-1014.7	1	4458.628	-13.1547	1.779384E-008	0.0188306	7
	24	34	3984.375	4421.371	-1168.828	1	4573.257	-14.80788	-6.581369E-009	0.018792	7
	25	35	3170.956	4505.329	-1356.299	1	4705.054	-16.75407	5.029199E-008	0.018792	7
	26	36	2527.573	4597.579	-1581.434	1	4861.961	-18.98173	-3.546813E-008	0.0188443	7
	27	38	1976.103	4707.25	-1882.069	1	5069.555	-21.79269	6.382979E-008	0.0186654	7
	28	39	1577.524	4820.952	-2221.011	1	5307.963	-24.73551	-3.352798E-009	0.0187679	7
	29	40	1265.625	4945.245	-2622.337	1	5597.508	-27.93586	6.517683E-008	0.0186699	7
	30	42	998.264	5098.634	-3152.882	1	5994.725	-31.73172	2.745433E-008	0.0187742	7
	31	43	796.875	5263.537	-3767.72	1	6473.063	-35.59567	3.67212E-010	0.0188018	7
	32	44	627.7902	5456.798	-4570.392	1	7117.944	-39.94817	-2.895336E-008	0.0189097	7
	33	46	505.5147	5664.112	-5450.574	1	7860.72	-43.89935	2.383023E-008	0.0187652	7
	34	47	397.9953	5921.205	-6653.324	1	8906.592	-48.33213	5.555477E-009	0.0188328	7
	35	48	315.5048	6211.589	-8097.683	1	10205.7	-52.50883	1.916536E-010	0.0187791	6
	36	50	252.4038	6537.329	-9807.46	1	11786.55	-56.31388	8.132595E-010	0.0187761	6
	37	51	198.6229	6953.677	-12080.64	1	13938.99	-60.07505	1.726126E-010	0.0187742	6
	38	52	158.3615	7436.648	-14747.91	1	16516.79	-63.24042	1.316163E-010	0.0187742	6
	39	54	125.558	8054.311	-18119.49	1	19828.96	-66.03432	3.808939E-010	0.0187733	6
	40	55	100.4464	8803.183	-22093.16	1	23782.42	-68.27483	-6.247535E-010	0.0187688	6
	41	56	79.00281	9871.48	-27375.51	1	29100.94	-70.17094	3.964815E-010	0.0187683	6
	42	58	63.3446	10965.28	-33520.64	1	35268.55	-71.88602	6.073403E-010	0.0187627	6
	43	59	49.86702	13034.55	-41203.34	1	43215.9	-72.4454	3.55592E-010	0.0187698	6
	44	61	39.72458	15187.27	-50544.09	1	52776.5	-73.27576	1.563494E-010	0.0187703	6
	45	62	31.6723	18298.9	-61791.79	1	64444.36	-73.50397	-3.555473E-010	0.018768	6
	46	63	24.93351	22422.92	-75950.61	1	79191.43	-73.5518	5.406576E-010	0.0187707	6
	47	65	19.86229	27848.29	-92250.79	1	96362.5	-73.2022	1.603037E-009	0.0187693	6
	48	66	15.83615	34947.82	-111129.5	1	116495.2	-72.54277	-1.599483E-011	0.018774	5
	49	67	12.40079	44708.14	-136497	1	143632.3	-71.86433	5.811843E-011	0.0187758	5
	50	69	9.93114	56617.68	-162715.4	1	172284.3	-70.81439	1.714808E-010	0.0187715	5
	51	70	7.944915	71918.63	-193422.4	1	206360.1	-69.60378	2.575138E-011	0.0187758	5
	52	72	6.317385	91267.09	-230097.5	1	247537	-68.36448	-4.794263E-011	0.0187762	5
	53	74	5.008013	116266.2	-272664.3	1	296418.1	-66.90623	-2.337043E-010	0.0187801	5
	54	76	3.945707	148571.4	-322433.1	1	355016.3	-65.2606	-4.626192E-010	0.0187665	5
	55	79	3.158693	185000.1	-373528.2	1	416831.3	-63.65182	-3.929267E-010	0.0187521	5
	56	82	2.504006	231320.8	-435983.3	1	493549.2	-62.0508	-1.122831E-010	0.0187688	5
	57	85	1.998082	285192.9	-498073.7	1	573944.6	-60.2049	-3.701265E-010	0.0188106	5
	58	88	1.584686	349010.6	-568856.6	1	667387.6	-58.46964	-1.751433E-010	0.0187917	5
	59	92	1.266892	424541	-642534	1	770120.1	-56.5461	-6.128958E-010	0.0188097	5
	60	96	0.999041	507171.2	-728460.5	1	887624.6	-55.15347	-1.89193E-010	0.0187563	5
