EXPLAIN
TAG	EISPOT
TITLE	LABEL	Potentiostatic EIS	Test &Identifier
DATE	LABEL	10/2/2019	Date
TIME	LABEL	9:10:41	Time
NOTES	NOTES	2	&Notes...
	
	
PSTAT	PSTAT	REF600-11020	Potentiostat
VDC	POTEN	0.00000E+000	T	DC &Voltage (V)
FREQINIT	QUANT	1.00000E+006	Initial Fre&q. (Hz)
FREQFINAL	QUANT	1.00000E+000	Final Fre&q. (Hz)
PTSPERDEC	QUANT	1.00000E+001	Points/&decade
VAC	QUANT	2.50000E+001	AC &Voltage (mV rms)
AREA	QUANT	1.00000E-002	&Area (cm^2)
CONDIT	TWOPARAM	T	5.00000E+000	0.00000E+000	Conditionin&g	Time(s)	E(V)
DELAY	TWOPARAM	T	5.00000E+000	0.00000E+000	Init. De&lay	Time(s)	Stab.(mV/s)
SPEED	SELECTOR	1	&Optimize for:
ZGUESS	QUANT	1.00000E+004	E&stimated Z (ohms)
OCVCURVE	TABLE	19
	Pt	T	Vf	Vm	Ach	Over
	#	s	V vs. Ref.	V	V	bits
	0	0.258333	3.49818E-003	3.49818E-003	6.34598E-004	...........
	1	0.516667	3.49604E-003	3.38580E-003	6.35798E-004	...........
	2	0.775	3.48289E-003	3.28131E-003	6.38098E-004	...........
	3	1.03333	3.44495E-003	3.13478E-003	6.35798E-004	...........
	4	1.29167	3.37227E-003	2.93122E-003	6.34898E-004	...........
	5	1.55	3.26349E-003	2.82003E-003	6.32731E-004	...........
	6	1.80833	3.13050E-003	2.85573E-003	6.32798E-004	...........
	7	2.06667	3.01168E-003	3.33334E-003	6.37665E-004	...........
	8	2.325	2.96491E-003	3.20201E-003	6.34331E-004	...........
	9	2.58333	3.00560E-003	2.92444E-003	6.36865E-004	...........
	10	2.84167	3.06514E-003	2.80306E-003	6.33065E-004	...........
	11	3.1	3.05780E-003	2.59065E-003	6.35798E-004	...........
	12	3.35833	2.96535E-003	2.63427E-003	6.31498E-004	...........
	13	3.61667	2.84045E-003	2.97225E-003	6.39198E-004	...........
	14	3.875	2.76641E-003	3.22487E-003	6.39831E-004	...........
	15	4.13333	2.79738E-003	3.04443E-003	6.36831E-004	...........
	16	4.39167	2.90257E-003	2.94821E-003	6.33931E-004	...........
	17	4.65	2.99465E-003	2.92452E-003	6.33665E-004	...........
	18	4.90833	3.02046E-003	2.89457E-003	6.36265E-004	...........
EOC	QUANT	0.0030205	Open Circuit (V)
PSTATMODEL	IQUANT	4	Pstat Model
PSTATSECTION	LABEL	REF600-11020	Pstat Section
PSTATSERIALNO	LABEL	11020	Pstat Serial Number
CTRLMODE	IQUANT	1	Control Mode
IESTAB	IQUANT	0	I/E Stability
CASPEED	IQUANT	1	Control Amp Speed
CONVENTION	IQUANT	1	Current Convention
ICHRANGE	IQUANT	2	Ich Range
ICHRANGEMODE	TOGGLE	F	Ich Auto Range
ICHOFFSETENABLE	TOGGLE	T	Ich Offset Enable
ICHOFFSET	QUANT	0	Ich Offset (V)
ICHFILTER	IQUANT	3	Ich Filter
VCHRANGE	IQUANT	2	Vch Range
VCHRANGEMODE	TOGGLE	F	Vch Auto Range
VCHOFFSETENABLE	TOGGLE	T	Vch Offset Enable
VCHOFFSET	QUANT	0	Vch Offset (V)
VCHFILTER	IQUANT	3	Vch Filter
ACHRANGE	IQUANT	2	Ach Range
ACHOFFSETENABLE	TOGGLE	F	Ach Offset Enable
ACHOFFSET	QUANT	0	Ach Offset (V)
ACHFILTER	IQUANT	3	Ach Filter
IERANGELOWERLIMIT	IQUANT	1	I/E Range Lower Limit
IERANGEMODE	TOGGLE	F	I/E AutoRange
IERANGE	IQUANT	5	I/E Range
POSFEEDENABLE	TOGGLE	F	Positive Feedback IR Comp
POSFEEDRESISTANCE	QUANT	0	Positive Feedback Resistance (ohm)
ACHSELECT	IQUANT	0	Ach Select
CABLEID	IQUANT	14	Cable ID
DCCALDATE	LABEL	8/19/2019	DC Calibration Date
ACCALDATE	LABEL	8/19/2019	AC Calibration Date
THERMOSELECT	IQUANT	1	Thermo Select
FRAMEWORKVERSION	QUANT	6.33	Framework Version
INSTRUMENTVERSION	LABEL	3.50	Instrument Version
ZCURVE	TABLE
	Pt	Time	Freq	Zreal	Zimag	Zsig	Zmod	Zphz	Idc	Vdc	IERange
	#	s	Hz	ohm	ohm	V	ohm	°	A	V	#
	0	2	1000078	2501.352	-1055.587	1	2714.963	-22.88007	2.397958E-006	0.0054675	8
	1	4	794390.6	2660.624	-927.9119	1	2817.79	-19.22659	-4.21117E-006	0.0053394	8
	2	5	630984.4	2796.593	-803.4645	1	2909.723	-16.02942	-3.726122E-007	0.0051914	8
	3	6	501234.4	2891.871	-681.1846	1	2971.015	-13.25449	-9.694985E-007	0.0048892	8
	4	8	398109.4	2961.91	-591.8932	1	3020.471	-11.30084	-4.597136E-006	0.0056868	8
	5	9	316265.6	3012.205	-509.4251	1	3054.979	-9.59905	-2.509773E-006	0.0051597	8
	6	10	251203.1	3054.968	-410.7142	1	3082.452	-7.657014	-4.541482E-007	0.0047904	8
	7	12	199546.9	3089.978	-342.2272	1	3108.872	-6.319975	1.439476E-006	0.0042324	8
	8	13	158578.1	3112.38	-309.5266	1	3127.734	-5.679397	2.334508E-006	0.0040697	8
	9	14	125953.1	3151.474	-240.3256	1	3160.624	-4.36083	-2.215526E-007	0.0051286	7
	10	16	100078.1	3154.348	-209.5735	1	3161.303	-3.801119	1.264039E-007	0.0043637	7
	11	17	79453.13	3167.96	-197.8162	1	3174.13	-3.573069	-3.616505E-008	0.004558	7
	12	19	63140.62	3183.683	-190.9046	1	3189.401	-3.431544	8.847305E-009	0.004488	7
	13	20	50203.12	3198.859	-187.6644	1	3204.359	-3.357468	9.296708E-011	0.0045497	7
	14	21	39890.62	3213.51	-188.2626	1	3219.02	-3.352827	-2.926098E-008	0.0045507	7
	15	23	31640.63	3228.836	-194.006	1	3234.66	-3.438508	-7.388428E-008	0.0046555	7
	16	24	25171.88	3243.466	-204.4742	1	3249.904	-3.60726	4.826205E-008	0.0043987	7
	17	25	20015.62	3258.415	-220.1941	1	3265.847	-3.866002	-5.217665E-008	0.0046808	7
	18	27	15890.62	3274.691	-244.3105	1	3283.792	-4.266685	-3.502743E-008	0.0045511	7
	19	28	12609.37	3291.169	-274.0898	1	3302.562	-4.76063	-4.255033E-008	0.0045892	7
	20	29	10078.13	3308.97	-312.0558	1	3323.652	-5.387405	-7.284979E-008	0.0046557	7
	21	31	8015.625	3326.763	-362.6986	1	3346.476	-6.222068	6.867887E-008	0.0045118	7
	22	32	6328.125	3349.269	-427.4371	1	3376.433	-7.272831	-5.201884E-008	0.0046813	7
	23	33	5015.625	3373.948	-506.1322	1	3411.7	-8.531429	-4.40115E-008	0.0046238	7
	24	35	3984.375	3401.992	-602.659	1	3454.96	-10.04566	4.745412E-008	0.0043917	7
	25	36	3170.956	3434.433	-721.5045	1	3509.401	-11.86415	6.367813E-010	0.0045422	7
	26	37	2527.573	3471.512	-864.1362	1	3577.447	-13.97811	1.052719E-008	0.0044798	7
	27	39	1976.103	3517.493	-1055.973	1	3672.579	-16.71007	7.10636E-008	0.0044112	7
	28	40	1577.524	3567.683	-1271.59	1	3787.52	-19.61703	4.910589E-008	0.0043885	7
	29	41	1265.625	3623.714	-1528.498	1	3932.888	-22.87023	-5.196208E-010	0.0044803	7
	30	43	998.264	3693.882	-1866.681	1	4138.751	-26.80948	-9.48301E-009	0.0045632	7
	31	44	796.875	3771.554	-2262.899	1	4398.333	-30.96338	-1.384173E-008	0.0045058	7
	32	45	627.7902	3867.678	-2780.977	1	4763.692	-35.71727	-2.760353E-008	0.0045447	7
	33	47	505.5147	3967.811	-3358.977	1	5198.678	-40.2498	4.781197E-008	0.0043905	7
	34	48	397.9953	4109.917	-4145.63	1	5837.608	-45.24786	5.517581E-009	0.0045631	7
	35	50	315.5048	4274.522	-5093.658	1	6649.578	-49.99712	5.925112E-009	0.0045552	7
	36	51	252.4038	4470.17	-6213.632	1	7654.518	-54.26826	6.318382E-009	0.0045566	7
	37	52	198.6229	4736.076	-7699.501	1	9039.51	-58.40372	5.643288E-009	0.004557	7
	38	54	158.3615	5060.133	-9433.377	1	10704.84	-61.79057	1.248664E-009	0.0044897	6
	39	55	125.558	5481.775	-11615.6	1	12844.14	-64.73586	1.22283E-009	0.0044902	6
	40	56	100.4464	6013.606	-14184.33	1	15406.45	-67.02493	6.446332E-010	0.0044871	6
	41	58	79.00281	6737.009	-17574.31	1	18821.36	-69.02597	1.216424E-009	0.0044892	6
	42	59	63.3446	7598.51	-21455.04	1	22760.84	-70.4979	8.139597E-010	0.0044856	6
	43	60	49.86702	8897.497	-26355.2	1	27816.58	-71.34535	1.10608E-009	0.0044891	6
	44	62	39.72458	10538.92	-32220.55	1	33900.34	-71.88775	7.21266E-010	0.0044887	6
	45	63	31.6723	12623.59	-39170.25	1	41154.15	-72.13717	4.865274E-010	0.0044943	6
	46	65	24.93351	15619.68	-48068.45	1	50542.56	-71.9986	1.309621E-009	0.0044882	6
	47	66	19.86229	19335.57	-58112.54	1	61244.85	-71.59637	1.840938E-009	0.0044882	6
	48	67	15.83615	24067.15	-70248.77	1	74257.11	-71.08859	-6.374832E-010	0.0044921	6
	49	69	12.40079	30808.56	-84883	1	90301.12	-70.05147	5.309587E-010	0.0044929	6
	50	70	9.93114	39208.38	-100785.3	1	108143.3	-68.74252	1.175268E-010	0.0044941	5
	51	72	7.944915	49311.67	-118708	1	128542.7	-67.44186	1.408634E-009	0.0044947	5
	52	73	6.317385	62215.09	-140031	1	153229.9	-66.04466	5.952338E-010	0.0045086	5
	53	75	5.008013	78202.79	-163917.3	1	181616.5	-64.4948	6.051685E-010	0.0045019	5
	54	78	3.945707	98112.5	-191576.8	1	215238.7	-62.8816	6.518125E-011	0.0044839	5
	55	80	3.158693	120077.3	-219957.6	1	250599.1	-61.36938	8.242478E-010	0.0045051	5
	56	84	2.504006	146102.6	-253036.8	1	292187.6	-59.99801	4.109896E-010	0.0044962	5
	57	86	1.998082	175975.5	-286401	1	336144.2	-58.43187	6.330493E-011	0.0044518	5
	58	90	1.584686	208326.5	-325823	1	386730.6	-57.40574	2.021963E-010	0.0044853	5
	59	93	1.266892	243048.6	-366983.3	1	440169.7	-56.48397	2.739996E-010	0.004447	5
	60	98	0.999041	283425.1	-419746	1	506474.6	-55.9716	3.419967E-011	0.0045294	5
