EXPLAIN
TAG	EISPOT
TITLE	LABEL	Potentiostatic EIS	Test &Identifier
DATE	LABEL	11/13/2019	Date
TIME	LABEL	0:07:18	Time
NOTES	NOTES	3	&Notes...
	
	
	
PSTAT	PSTAT	REF600-11020	Potentiostat
VDC	POTEN	0.00000E+000	T	DC &Voltage (V)
FREQINIT	QUANT	1.00000E+006	Initial Fre&q. (Hz)
FREQFINAL	QUANT	1.00000E+000	Final Fre&q. (Hz)
PTSPERDEC	QUANT	1.00000E+001	Points/&decade
VAC	QUANT	2.50000E+001	AC &Voltage (mV rms)
AREA	QUANT	1.00000E-002	&Area (cm^2)
CONDIT	TWOPARAM	T	5.00000E+000	0.00000E+000	Conditionin&g	Time(s)	E(V)
DELAY	TWOPARAM	T	5.00000E+000	0.00000E+000	Init. De&lay	Time(s)	Stab.(mV/s)
SPEED	SELECTOR	1	&Optimize for:
ZGUESS	QUANT	1.00000E+005	E&stimated Z (ohms)
OCVCURVE	TABLE	19
	Pt	T	Vf	Vm	Ach	Over
	#	s	V vs. Ref.	V	V	bits
	0	0.258333	7.25163E-003	7.25163E-003	5.77499E-004	...........
	1	0.516667	7.25263E-003	7.30375E-003	5.79299E-004	...........
	2	0.775	7.26026E-003	7.43273E-003	5.82999E-004	...........
	3	1.03333	7.28768E-003	7.59683E-003	5.79765E-004	...........
	4	1.29167	7.34960E-003	7.73983E-003	5.76999E-004	...........
	5	1.55	7.45002E-003	7.87422E-003	5.75465E-004	...........
	6	1.80833	7.57826E-003	8.01029E-003	5.80699E-004	...........
	7	2.06667	7.71820E-003	8.13585E-003	5.82032E-004	...........
	8	2.325	7.85836E-003	8.26349E-003	5.79765E-004	...........
	9	2.58333	7.99415E-003	8.39192E-003	5.81399E-004	...........
	10	2.84167	8.12536E-003	8.50950E-003	5.72866E-004	...........
	11	3.1	8.25306E-003	8.63100E-003	5.72166E-004	...........
	12	3.35833	8.37802E-003	8.75788E-003	5.76732E-004	...........
	13	3.61667	8.50132E-003	8.88292E-003	5.73866E-004	...........
	14	3.875	8.62429E-003	8.99864E-003	5.73399E-004	...........
	15	4.13333	8.74712E-003	9.11497E-003	5.72966E-004	...........
	16	4.39167	8.86860E-003	9.22571E-003	5.70799E-004	...........
	17	4.65	8.98759E-003	9.34484E-003	5.67432E-004	...........
	18	4.90833	9.10411E-003	9.45112E-003	5.69166E-004	...........
EOC	QUANT	0.0091041	Open Circuit (V)
PSTATMODEL	IQUANT	4	Pstat Model
PSTATSECTION	LABEL	REF600-11020	Pstat Section
PSTATSERIALNO	LABEL	11020	Pstat Serial Number
CTRLMODE	IQUANT	1	Control Mode
IESTAB	IQUANT	0	I/E Stability
CASPEED	IQUANT	1	Control Amp Speed
CONVENTION	IQUANT	1	Current Convention
ICHRANGE	IQUANT	2	Ich Range
ICHRANGEMODE	TOGGLE	F	Ich Auto Range
ICHOFFSETENABLE	TOGGLE	T	Ich Offset Enable
ICHOFFSET	QUANT	0	Ich Offset (V)
ICHFILTER	IQUANT	3	Ich Filter
VCHRANGE	IQUANT	2	Vch Range
VCHRANGEMODE	TOGGLE	F	Vch Auto Range
VCHOFFSETENABLE	TOGGLE	T	Vch Offset Enable
VCHOFFSET	QUANT	0	Vch Offset (V)
VCHFILTER	IQUANT	3	Vch Filter
ACHRANGE	IQUANT	2	Ach Range
ACHOFFSETENABLE	TOGGLE	F	Ach Offset Enable
ACHOFFSET	QUANT	0	Ach Offset (V)
ACHFILTER	IQUANT	3	Ach Filter
IERANGELOWERLIMIT	IQUANT	1	I/E Range Lower Limit
IERANGEMODE	TOGGLE	F	I/E AutoRange
IERANGE	IQUANT	5	I/E Range
POSFEEDENABLE	TOGGLE	F	Positive Feedback IR Comp
POSFEEDRESISTANCE	QUANT	0	Positive Feedback Resistance (ohm)
ACHSELECT	IQUANT	0	Ach Select
CABLEID	IQUANT	14	Cable ID
DCCALDATE	LABEL	8/19/2019	DC Calibration Date
ACCALDATE	LABEL	8/19/2019	AC Calibration Date
THERMOSELECT	IQUANT	1	Thermo Select
FRAMEWORKVERSION	QUANT	6.33	Framework Version
INSTRUMENTVERSION	LABEL	3.50	Instrument Version
ZCURVE	TABLE
	Pt	Time	Freq	Zreal	Zimag	Zsig	Zmod	Zphz	Idc	Vdc	IERange
	#	s	Hz	ohm	ohm	V	ohm	°	A	V	#
	0	1	1000078	2070.385	-1101.785	1	2345.298	-28.02031	-8.823111E-006	0.0122733	8
	1	3	794390.6	2254.666	-1041.394	1	2483.55	-24.79145	3.946032E-007	0.0110295	8
	2	4	630984.4	2421.91	-956.372	1	2603.9	-21.54823	-1.911773E-006	0.0104493	8
	3	5	501234.4	2564.155	-863.8107	1	2705.745	-18.61761	6.425503E-006	0.0094567	8
	4	7	398109.4	2680.848	-782.6843	1	2792.766	-16.27538	-1.871717E-006	0.0109563	8
	5	8	316265.6	2779.611	-702.3621	1	2866.975	-14.18087	-3.368483E-006	0.0110944	8
	6	9	251203.1	2860.328	-629.9758	1	2928.881	-12.42086	5.59464E-006	0.0098691	8
	7	11	199546.9	2919.235	-573.2423	1	2974.986	-11.10966	6.48982E-007	0.0108814	8
	8	12	158578.1	2996.175	-523.5258	1	3041.57	-9.91131	-6.575269E-007	0.0102755	8
	9	14	125953.1	3054.647	-453.0954	1	3088.068	-8.437156	5.551297E-007	0.0124406	7
	10	15	100078.1	3100.471	-426.7628	1	3129.704	-7.837202	9.617569E-007	0.0091967	7
	11	16	79453.13	3141.311	-415.385	1	3168.656	-7.532692	-5.440531E-007	0.0119334	7
	12	18	63140.62	3187.246	-411.3998	1	3213.687	-7.354896	8.303708E-008	0.0113403	7
	13	19	50203.12	3232.056	-411.5714	1	3258.155	-7.257012	-9.497896E-007	0.0109892	7
	14	20	39890.62	3281.355	-418.4561	1	3307.929	-7.267441	9.857148E-007	0.0094641	7
	15	22	31640.63	3326.566	-429.3008	1	3354.153	-7.353505	3.707326E-007	0.0109467	7
	16	23	25171.88	3375.05	-445.891	1	3404.377	-7.525984	6.828423E-007	0.0089228	7
	17	24	20015.62	3419.152	-469.0737	1	3451.178	-7.811647	-1.102876E-006	0.0118233	7
	18	26	15890.62	3471.597	-500.5386	1	3507.495	-8.204428	7.59137E-007	0.0102704	7
	19	27	12609.37	3522.444	-539.5931	1	3563.533	-8.709273	5.665217E-007	0.0106514	7
	20	29	10078.13	3574.904	-591.1284	1	3623.447	-9.389188	9.186932E-007	0.0098267	7
	21	30	8015.625	3621.406	-653.1862	1	3679.842	-10.2244	-1.10214E-006	0.0118163	7
	22	31	6328.125	3681.063	-733.7871	1	3753.487	-11.27363	-9.771198E-007	0.0119669	7
	23	33	5015.625	3739.595	-832.1708	1	3831.068	-12.54559	-2.441591E-007	0.011701	7
	24	34	3984.375	3800.812	-955.682	1	3919.12	-14.11396	7.621828E-007	0.0102562	7
	25	35	3170.956	3863.249	-1103.966	1	4017.889	-15.94787	8.6798E-007	0.0089769	7
	26	37	2527.573	3926.415	-1288.193	1	4132.333	-18.16383	7.616202E-007	0.0102604	7
	27	38	1976.103	3997.024	-1539.326	1	4283.191	-21.0626	5.664842E-007	0.0106433	7
	28	40	1577.524	4066.243	-1825.906	1	4457.383	-24.18199	4.202206E-007	0.0090141	7
	29	41	1265.625	4152.51	-2176.599	1	4688.382	-27.66194	-2.453201E-007	0.0116991	7
	30	42	998.264	4253.102	-2643.645	1	5007.767	-31.86428	-1.100331E-006	0.0114933	7
	31	44	796.875	4367.935	-3196.403	1	5412.564	-36.19622	-9.774059E-007	0.011956	7
	32	45	627.7902	4515.082	-3919.168	1	5978.782	-40.95854	-9.782244E-007	0.0119579	7
	33	46	505.5147	4675.052	-4740.691	1	6658.097	-45.39941	9.675623E-007	0.0091692	7
	34	48	397.9953	4898.952	-5830.513	1	7615.419	-49.96213	1.648001E-009	0.0105154	7
	35	49	315.5048	5174.357	-7147.984	1	8824.265	-54.09958	6.271114E-009	0.0105114	7
	36	51	252.4038	5511.844	-8696.923	1	10296.45	-57.63473	7.634468E-010	0.0104459	6
	37	52	198.6229	5976.3	-10738.04	1	12289.09	-60.9017	7.683504E-010	0.0104528	6
	38	53	158.3615	6545.982	-13102.18	1	14646.4	-63.45283	9.746957E-011	0.0104581	6
	39	55	125.558	7307.365	-16050.31	1	17635.48	-65.52123	1.89212E-010	0.0104602	6
	40	56	100.4464	8271.512	-19493.95	1	21176.21	-67.00791	1.69552E-010	0.0104522	6
	41	58	79.00281	9584.13	-23975.68	1	25820.32	-68.21125	8.280624E-010	0.0104477	6
	42	59	63.3446	11108.61	-28847.5	1	30912.45	-68.93928	3.541839E-010	0.0104489	6
	43	60	49.86702	13734.1	-35287.54	1	37866.02	-68.73374	-1.225928E-010	0.0104513	6
	44	62	39.72458	16632.68	-42596.18	1	45728.33	-68.67068	3.680946E-010	0.0104549	6
	45	63	31.6723	20518.47	-51180.34	1	55140.14	-68.15389	3.557295E-011	0.0104481	6
	46	65	24.93351	25869.1	-61452.51	1	66675.49	-67.17081	5.773382E-010	0.0104506	6
	47	66	19.86229	32468.54	-72659.73	1	79584.18	-65.92216	5.604426E-010	0.0104409	6
	48	67	15.83615	40473.19	-84811.27	1	93973.55	-64.48884	3.213872E-010	0.0104443	6
	49	69	12.40079	51188.52	-100476.6	1	112764.4	-63.00311	1.492604E-009	0.0104528	5
	50	70	9.93114	62749.48	-114877.6	1	130898.3	-61.35534	-1.116078E-009	0.0104574	5
	51	72	7.944915	75869.98	-131129.1	1	151496.2	-59.94676	2.467442E-010	0.0104592	5
	52	73	6.317385	90996.72	-149141.9	1	174710.3	-58.61116	-5.393447E-010	0.0104624	5
	53	75	5.008013	107730.4	-169718.8	1	201023.2	-57.59432	-5.694266E-010	0.0104472	5
	54	78	3.945707	126110.5	-193676.5	1	231115.6	-56.93024	4.224269E-010	0.01045	5
	55	81	3.158693	144674.4	-220191.4	1	263467.1	-56.69352	-3.206521E-010	0.0104456	5
	56	84	2.504006	166159.6	-252685.7	1	302422	-56.67211	3.902456E-010	0.010446	5
	57	87	1.998082	188640.9	-289336.2	1	345399.5	-56.89653	-2.01289E-010	0.0104876	5
	58	90	1.584686	214881.4	-335798.2	1	398665.8	-57.38432	4.873634E-011	0.0104904	5
	59	93	1.266892	243871.3	-387861.5	1	458159.1	-57.84002	-2.811783E-010	0.010474	5
	60	98	0.999041	279075.9	-454860.4	1	533649.1	-58.46915	1.500963E-010	0.0104507	5
