EXPLAIN
TAG	EISPOT
TITLE	LABEL	Potentiostatic IDE	Test &Identifier
DATE	LABEL	9/6/2019	Date
TIME	LABEL	7:06:44	Time
NOTES	NOTES	1	&Notes...
	
PSTAT	PSTAT	REF600-11020	Potentiostat
VDC	POTEN	0.00000E+000	T	DC &Voltage (V)
FREQINIT	QUANT	1.00000E+006	Initial Fre&q. (Hz)
FREQFINAL	QUANT	1.00000E+000	Final Fre&q. (Hz)
PTSPERDEC	QUANT	1.00000E+001	Points/&decade
VAC	QUANT	2.50000E+001	AC &Voltage (mV rms)
AREA	QUANT	1.00000E-002	&Area (cm^2)
CONDIT	TWOPARAM	T	5.00000E+000	0.00000E+000	Conditionin&g	Time(s)	E(V)
DELAY	TWOPARAM	T	5.00000E+000	0.00000E+000	Init. De&lay	Time(s)	Stab.(mV/s)
SPEED	SELECTOR	1	&Optimize for:
ZGUESS	QUANT	1.00000E+007	E&stimated Z (ohms)
OCVCURVE	TABLE	19
	Pt	T	Vf	Vm	Ach	Over
	#	s	V vs. Ref.	V	V	bits
	0	0.258333	8.73657E-003	8.73657E-003	5.70932E-004	...........
	1	0.516667	8.73404E-003	8.60409E-003	5.67899E-004	...........
	2	0.775	8.71915E-003	8.51255E-003	5.70699E-004	...........
	3	1.03333	8.67949E-003	8.44063E-003	5.68332E-004	...........
	4	1.29167	8.61443E-003	8.39156E-003	5.70432E-004	...........
	5	1.55	8.53798E-003	8.35627E-003	5.70832E-004	...........
	6	1.80833	8.46689E-003	8.34740E-003	5.70532E-004	...........
	7	2.06667	8.41156E-003	8.34724E-003	5.68166E-004	...........
	8	2.325	8.37645E-003	8.41008E-003	5.77066E-004	...........
	9	2.58333	8.36092E-003	8.28862E-003	5.72332E-004	...........
	10	2.84167	8.35920E-003	8.51698E-003	5.64399E-004	...........
	11	3.1	8.37085E-003	8.52856E-003	5.72466E-004	...........
	12	3.35833	8.39785E-003	8.26682E-003	5.69299E-004	...........
	13	3.61667	8.42048E-003	8.34715E-003	5.63032E-004	...........
	14	3.875	8.41421E-003	8.39495E-003	5.66566E-004	...........
	15	4.13333	8.39024E-003	8.43074E-003	5.68832E-004	...........
	16	4.39167	8.37828E-003	8.41733E-003	5.67866E-004	...........
	17	4.65	8.38597E-003	8.39818E-003	5.72399E-004	...........
	18	4.90833	8.40071E-003	8.46236E-003	5.66232E-004	...........
EOC	QUANT	0.0084007	Open Circuit (V)
PSTATMODEL	IQUANT	4	Pstat Model
PSTATSECTION	LABEL	REF600-11020	Pstat Section
PSTATSERIALNO	LABEL	11020	Pstat Serial Number
CTRLMODE	IQUANT	1	Control Mode
IESTAB	IQUANT	0	I/E Stability
CASPEED	IQUANT	1	Control Amp Speed
CONVENTION	IQUANT	1	Current Convention
ICHRANGE	IQUANT	2	Ich Range
ICHRANGEMODE	TOGGLE	F	Ich Auto Range
ICHOFFSETENABLE	TOGGLE	T	Ich Offset Enable
ICHOFFSET	QUANT	0	Ich Offset (V)
ICHFILTER	IQUANT	3	Ich Filter
VCHRANGE	IQUANT	2	Vch Range
VCHRANGEMODE	TOGGLE	F	Vch Auto Range
VCHOFFSETENABLE	TOGGLE	T	Vch Offset Enable
VCHOFFSET	QUANT	0	Vch Offset (V)
VCHFILTER	IQUANT	3	Vch Filter
ACHRANGE	IQUANT	2	Ach Range
ACHOFFSETENABLE	TOGGLE	F	Ach Offset Enable
ACHOFFSET	QUANT	0	Ach Offset (V)
ACHFILTER	IQUANT	3	Ach Filter
IERANGELOWERLIMIT	IQUANT	1	I/E Range Lower Limit
IERANGEMODE	TOGGLE	F	I/E AutoRange
IERANGE	IQUANT	3	I/E Range
POSFEEDENABLE	TOGGLE	F	Positive Feedback IR Comp
POSFEEDRESISTANCE	QUANT	0	Positive Feedback Resistance (ohm)
ACHSELECT	IQUANT	0	Ach Select
CABLEID	IQUANT	14	Cable ID
DCCALDATE	LABEL	8/19/2019	DC Calibration Date
ACCALDATE	LABEL	8/19/2019	AC Calibration Date
THERMOSELECT	IQUANT	1	Thermo Select
FRAMEWORKVERSION	QUANT	6.33	Framework Version
INSTRUMENTVERSION	LABEL	3.50	Instrument Version
ZCURVE	TABLE
	Pt	Time	Freq	Zreal	Zimag	Zsig	Zmod	Zphz	Idc	Vdc	IERange
	#	s	Hz	ohm	ohm	V	ohm	°	A	V	#
	0	2	1000078	2496.602	-1762.31	1	3055.938	-35.21763	-5.697441E-008	0.0108246	8
	1	3	794390.6	2864.168	-1668.867	1	3314.902	-30.2281	-9.335997E-007	0.0107859	8
	2	5	630984.4	3160	-1511.266	1	3502.788	-25.55939	4.542925E-007	0.0102883	8
	3	6	501234.4	3395.743	-1345.453	1	3652.576	-21.61434	1.738563E-007	0.0101765	8
	4	7	398109.4	3582.383	-1179.841	1	3771.67	-18.22906	-2.171702E-006	0.0106616	8
	5	9	316265.6	3715.214	-1012.569	1	3850.729	-15.24548	1.025933E-006	0.0099403	8
	6	10	251203.1	3829.108	-877.847	1	3928.445	-12.91229	1.303399E-006	0.0098895	8
	7	11	199546.9	3898.769	-764.4668	1	3973.01	-11.09376	2.363308E-006	0.009712	8
	8	13	158578.1	3966.157	-683.9899	1	4024.704	-9.78479	-2.807811E-006	0.0107544	8
	9	14	125953.1	4042.982	-579.9813	1	4084.37	-8.163604	-5.604189E-007	0.0117934	7
	10	15	100078.1	4069.03	-538.7533	1	4104.542	-7.542285	4.986225E-008	0.010008	7
	11	17	79453.13	4108.405	-519.3777	1	4141.104	-7.205017	7.829424E-008	0.0099933	7
	12	18	63140.62	4148.292	-513.1506	1	4179.91	-7.051761	-3.259742E-008	0.0101652	7
	13	19	50203.12	4189.061	-520.5869	1	4221.284	-7.083996	1.918307E-008	0.0100842	7
	14	21	39890.62	4230.374	-539.4882	1	4264.635	-7.267547	3.702769E-008	0.0100987	7
	15	22	31640.63	4275.872	-577.082	1	4314.639	-7.686332	-1.289942E-008	0.01009	7
	16	23	25171.88	4325.505	-629.3053	1	4371.043	-8.277721	-3.271616E-008	0.0101622	7
	17	25	20015.62	4375.107	-695.4471	1	4430.035	-9.031913	-2.419472E-008	0.0101334	7
	18	26	15890.62	4433.806	-780.3724	1	4501.957	-9.98211	-2.106616E-008	0.0101732	7
	19	27	12609.37	4499.855	-890.4107	1	4587.105	-11.19284	-7.569025E-009	0.0101197	7
	20	29	10078.13	4569.592	-1016.102	1	4681.2	-12.53642	-1.265036E-009	0.0101181	7
	21	30	8015.625	4649.897	-1172.818	1	4795.523	-14.15614	5.207351E-008	0.009993	7
	22	31	6328.125	4748.74	-1372.324	1	4943.057	-16.11861	3.660888E-008	0.0100933	7
	23	33	5015.625	4859.282	-1606.559	1	5117.974	-18.29474	1.624672E-008	0.0100397	7
	24	34	3984.375	4980.462	-1882.582	1	5324.389	-20.70626	-1.089134E-008	0.0101249	7
	25	35	3170.956	5128.976	-2220.15	1	5588.87	-23.40606	-2.147091E-008	0.0101228	7
	26	37	2527.573	5296.759	-2608.085	1	5904.047	-26.21529	-2.837495E-008	0.010178	7
	27	38	1976.103	5504.988	-3127.793	1	6331.507	-29.60413	-1.591265E-008	0.0100854	7
	28	39	1577.524	5728.545	-3694.597	1	6816.618	-32.81979	-2.664976E-008	0.0101567	7
	29	41	1265.625	6002.55	-4342.557	1	7408.671	-35.88393	-2.783634E-008	0.0101575	7
	30	42	998.264	6334.009	-5179.429	1	8182.063	-39.27346	-3.065324E-008	0.0101132	7
	31	43	796.875	6697.492	-6153.802	1	9095.365	-42.57748	4.723687E-008	0.0100154	7
	32	45	627.7902	7158.515	-7346.876	1	10257.73	-45.74398	-5.687283E-009	0.0100908	6
	33	46	505.5147	7631.998	-8660.973	1	11543.82	-48.61369	-3.869024E-009	0.01003	6
	34	47	397.9953	8257.5	-10405.07	1	13283.51	-51.56435	8.22091E-010	0.0100593	6
	35	49	315.5048	8958.344	-12449.17	1	15337.33	-54.26144	9.097708E-010	0.0100546	6
	36	50	252.4038	9748.43	-14815	1	17734.6	-56.65465	5.554622E-010	0.0100497	6
	37	51	198.6229	10752.41	-17887.4	1	20870.4	-58.98924	7.672006E-010	0.0100541	6
	38	53	158.3615	11877.56	-21402.04	1	24477.01	-60.97089	5.604412E-010	0.0100507	6
	39	54	125.558	13272.13	-25758.2	1	28976.45	-62.73982	7.501754E-010	0.0100518	6
	40	55	100.4464	14858.64	-30817.77	1	34212.78	-64.25918	8.479525E-010	0.0100537	6
	41	57	79.00281	16931.9	-37387.3	1	41042.65	-65.63526	3.524654E-010	0.0100466	6
	42	58	63.3446	19421.99	-44602.36	1	48647.55	-66.4694	4.538867E-010	0.0100443	6
	43	59	49.86702	22356.62	-54321.03	1	58741.75	-67.62967	6.845419E-010	0.0100406	6
	44	61	39.72458	26059.91	-65091.65	1	70114.49	-68.18095	6.665678E-010	0.0100452	6
	45	62	31.6723	30362.99	-78166.19	1	83856.21	-68.77176	4.101544E-010	0.0100398	6
	46	63	24.93351	36268.41	-94642.41	1	101353.8	-69.03241	5.861007E-010	0.0100451	6
	47	65	19.86229	42973.62	-113340.9	1	121214.2	-69.23559	2.796803E-010	0.0100527	5
	48	66	15.83615	51566.79	-135594.3	1	145068.8	-69.17809	6.388287E-010	0.0100545	5
	49	67	12.40079	62632.67	-164487.8	1	176008.7	-69.15446	-1.770997E-010	0.0100576	5
	50	69	9.93114	74540.51	-195797.1	1	209506.1	-69.15803	9.669982E-011	0.0100575	5
	51	70	7.944915	89892.97	-232911.4	1	249656.7	-68.89573	5.651941E-010	0.0100535	5
	52	72	6.317385	108866.9	-278025.8	1	298580.5	-68.61613	4.245639E-010	0.0100588	5
	53	74	5.008013	133256.6	-332772.7	1	358462	-68.17669	1.478497E-010	0.0100526	5
	54	76	3.945707	164246.5	-398617.9	1	431130.1	-67.60638	5.270673E-011	0.0100493	5
	55	79	3.158693	200372.9	-470937.8	1	511792.6	-66.95139	2.328636E-010	0.0100668	5
	56	82	2.504006	247961.1	-558781.1	1	611327.3	-66.07058	-1.095278E-010	0.0100517	5
	57	85	1.998082	304670	-653796.1	1	721299.6	-65.01441	1.879393E-010	0.0100143	5
	58	88	1.584686	375205.6	-769337.4	1	855955.3	-64.00153	-2.858242E-012	0.0100181	5
	59	92	1.266892	459234.7	-889830.4	1	1001346	-62.70209	1.831557E-010	0.010022	5
	60	96	0.999041	564992.3	-1039833	1	1183414	-61.48259	-1.084996E-010	0.010067	4
