EXPLAIN
TAG	EISPOT
TITLE	LABEL	Potentiostatic IDE	Test &Identifier
DATE	LABEL	9/6/2019	Date
TIME	LABEL	8:49:42	Time
NOTES	NOTES	1	&Notes...
	
PSTAT	PSTAT	REF600-11020	Potentiostat
VDC	POTEN	0.00000E+000	T	DC &Voltage (V)
FREQINIT	QUANT	1.00000E+006	Initial Fre&q. (Hz)
FREQFINAL	QUANT	1.00000E+000	Final Fre&q. (Hz)
PTSPERDEC	QUANT	1.00000E+001	Points/&decade
VAC	QUANT	2.50000E+001	AC &Voltage (mV rms)
AREA	QUANT	1.00000E-002	&Area (cm^2)
CONDIT	TWOPARAM	T	5.00000E+000	0.00000E+000	Conditionin&g	Time(s)	E(V)
DELAY	TWOPARAM	T	5.00000E+000	0.00000E+000	Init. De&lay	Time(s)	Stab.(mV/s)
SPEED	SELECTOR	1	&Optimize for:
ZGUESS	QUANT	1.00000E+007	E&stimated Z (ohms)
OCVCURVE	TABLE	19
	Pt	T	Vf	Vm	Ach	Over
	#	s	V vs. Ref.	V	V	bits
	0	0.258333	8.94574E-003	8.94574E-003	6.36698E-004	...........
	1	0.516667	8.94322E-003	8.81393E-003	6.37965E-004	...........
	2	0.775	8.92836E-003	8.72055E-003	6.36465E-004	...........
	3	1.03333	8.88869E-003	8.64983E-003	6.42264E-004	...........
	4	1.29167	8.82350E-003	8.59924E-003	6.39831E-004	...........
	5	1.55	8.74673E-003	8.56028E-003	6.40565E-004	...........
	6	1.80833	8.67459E-003	8.53226E-003	6.37798E-004	...........
	7	2.06667	8.61576E-003	8.50899E-003	6.41498E-004	...........
	8	2.325	8.57138E-003	8.49545E-003	6.40364E-004	...........
	9	2.58333	8.53903E-003	8.48576E-003	6.40265E-004	...........
	10	2.84167	8.51598E-003	8.48482E-003	6.41164E-004	...........
	11	3.1	8.50028E-003	8.47847E-003	6.39765E-004	...........
	12	3.35833	8.49034E-003	8.48246E-003	6.35665E-004	...........
	13	3.61667	8.48507E-003	8.50172E-003	6.33498E-004	...........
	14	3.875	8.48489E-003	8.52621E-003	6.41665E-004	...........
	15	4.13333	8.48964E-003	8.45664E-003	6.38698E-004	...........
	16	4.39167	8.49425E-003	8.48311E-003	6.36531E-004	...........
	17	4.65	8.49276E-003	8.46993E-003	6.40298E-004	...........
	18	4.90833	8.48651E-003	8.49693E-003	6.41298E-004	...........
EOC	QUANT	0.0084865	Open Circuit (V)
PSTATMODEL	IQUANT	4	Pstat Model
PSTATSECTION	LABEL	REF600-11020	Pstat Section
PSTATSERIALNO	LABEL	11020	Pstat Serial Number
CTRLMODE	IQUANT	1	Control Mode
IESTAB	IQUANT	0	I/E Stability
CASPEED	IQUANT	1	Control Amp Speed
CONVENTION	IQUANT	1	Current Convention
ICHRANGE	IQUANT	2	Ich Range
ICHRANGEMODE	TOGGLE	F	Ich Auto Range
ICHOFFSETENABLE	TOGGLE	T	Ich Offset Enable
ICHOFFSET	QUANT	0	Ich Offset (V)
ICHFILTER	IQUANT	3	Ich Filter
VCHRANGE	IQUANT	2	Vch Range
VCHRANGEMODE	TOGGLE	F	Vch Auto Range
VCHOFFSETENABLE	TOGGLE	T	Vch Offset Enable
VCHOFFSET	QUANT	0	Vch Offset (V)
VCHFILTER	IQUANT	3	Vch Filter
ACHRANGE	IQUANT	2	Ach Range
ACHOFFSETENABLE	TOGGLE	F	Ach Offset Enable
ACHOFFSET	QUANT	0	Ach Offset (V)
ACHFILTER	IQUANT	3	Ach Filter
IERANGELOWERLIMIT	IQUANT	1	I/E Range Lower Limit
IERANGEMODE	TOGGLE	F	I/E AutoRange
IERANGE	IQUANT	3	I/E Range
POSFEEDENABLE	TOGGLE	F	Positive Feedback IR Comp
POSFEEDRESISTANCE	QUANT	0	Positive Feedback Resistance (ohm)
ACHSELECT	IQUANT	0	Ach Select
CABLEID	IQUANT	14	Cable ID
DCCALDATE	LABEL	8/19/2019	DC Calibration Date
ACCALDATE	LABEL	8/19/2019	AC Calibration Date
THERMOSELECT	IQUANT	1	Thermo Select
FRAMEWORKVERSION	QUANT	6.33	Framework Version
INSTRUMENTVERSION	LABEL	3.50	Instrument Version
ZCURVE	TABLE
	Pt	Time	Freq	Zreal	Zimag	Zsig	Zmod	Zphz	Idc	Vdc	IERange
	#	s	Hz	ohm	ohm	V	ohm	°	A	V	#
	0	2	1000078	2677.82	-1762.442	1	3205.764	-33.35144	6.551003E-009	0.0110349	8
	1	4	794390.6	3015.472	-1640.694	1	3432.921	-28.55026	2.188315E-006	0.0101125	8
	2	5	630984.4	3303.714	-1479.774	1	3619.98	-24.12819	1.467818E-006	0.0099702	8
	3	6	501234.4	3524.495	-1309.357	1	3759.851	-20.38013	1.739877E-007	0.0101842	8
	4	8	398109.4	3692.209	-1135.125	1	3862.76	-17.08941	1.202014E-007	0.0101455	8
	5	9	316265.6	3804.883	-976.208	1	3928.119	-14.38984	-5.04256E-007	0.0103481	8
	6	10	251203.1	3908.166	-853.3716	1	4000.25	-12.31754	-1.381419E-006	0.0103862	8
	7	12	199546.9	3979.367	-735.3505	1	4046.74	-10.46963	-1.821144E-008	0.0102092	8
	8	13	158578.1	4059.304	-664.0803	1	4113.266	-9.290979	-1.432275E-006	0.0103939	8
	9	14	125953.1	4103.399	-574.9599	1	4143.485	-7.976238	-3.697286E-007	0.0109123	7
	10	16	100078.1	4142.915	-535.4771	1	4177.377	-7.364722	-2.663568E-008	0.0101548	7
	11	17	79453.13	4180.188	-518.8737	1	4212.269	-7.075754	-3.084718E-008	0.0101621	7
	12	18	63140.62	4220.004	-519.3418	1	4251.841	-7.015923	-2.914695E-008	0.0101575	7
	13	20	50203.12	4259.959	-531.6389	1	4293.005	-7.11368	-2.727949E-008	0.0101389	7
	14	21	39890.62	4304.369	-558.245	1	4340.418	-7.389595	9.269229E-009	0.0100565	7
	15	22	31640.63	4350.178	-601.3489	1	4391.545	-7.87043	-6.848589E-009	0.0101269	7
	16	24	25171.88	4398.473	-660.196	1	4447.743	-8.536181	4.235499E-008	0.010084	7
	17	25	20015.62	4449.625	-734.5723	1	4509.852	-9.3742	-2.891879E-008	0.0101433	7
	18	26	15890.62	4510.915	-832.7526	1	4587.138	-10.45952	2.522608E-008	0.0100307	7
	19	28	12609.37	4579.063	-952.036	1	4676.986	-11.74508	-1.500439E-008	0.0101411	7
	20	29	10078.13	4649.081	-1095.901	1	4776.5	-13.26387	-2.832497E-008	0.0101494	7
	21	30	8015.625	4735.55	-1271.728	1	4903.339	-15.03207	4.321604E-008	0.0100323	7
	22	32	6328.125	4838.596	-1493.223	1	5063.766	-17.15058	-9.52492E-010	0.0101281	7
	23	33	5015.625	4956.965	-1759.176	1	5259.868	-19.53925	-1.737504E-008	0.010137	7
	24	34	3984.375	5089.013	-2074.4	1	5495.561	-22.17695	-2.552458E-008	0.0101997	7
	25	35	3170.956	5250.79	-2449.025	1	5793.834	-25.00485	2.598087E-008	0.0100848	7
	26	37	2527.573	5438.104	-2891.995	1	6159.27	-28.00414	6.821789E-008	0.0100373	7
	27	38	1976.103	5679.975	-3467.412	1	6654.702	-31.4025	2.476319E-008	0.0100175	7
	28	39	1577.524	5946.15	-4096.408	1	7220.614	-34.56364	6.21097E-009	0.0100819	7
	29	41	1265.625	6254.072	-4821.979	1	7897.145	-37.63274	4.390237E-008	0.0100349	7
	30	42	998.264	6646.026	-5751.458	1	8789.137	-40.87285	9.097141E-009	0.0100875	7
	31	43	796.875	7086.996	-6795.61	1	9818.65	-43.79758	-3.449478E-010	0.0100466	6
	32	45	627.7902	7633.964	-8111.327	1	11138.72	-46.73655	-4.039173E-009	0.0101207	6
	33	46	505.5147	8210.124	-9534.14	1	12581.97	-49.2673	-9.689665E-010	0.0099818	6
	34	47	397.9953	8944.245	-11377.35	1	14472.17	-51.82753	5.94816E-010	0.010062	6
	35	49	315.5048	9770.67	-13538.94	1	16696.38	-54.18308	9.303938E-010	0.0100556	6
	36	50	252.4038	10687.26	-16023.28	1	19260.4	-56.29737	6.001912E-010	0.0100591	6
	37	51	198.6229	11830.15	-19242.76	1	22588.41	-58.41744	8.242348E-010	0.0100614	6
	38	53	158.3615	13095.84	-22924.01	1	26400.97	-60.26189	6.77628E-010	0.0100552	6
	39	54	125.558	14629.09	-27475.3	1	31127.2	-61.96716	7.10066E-010	0.0100598	6
	40	55	100.4464	16357.4	-32747.58	1	36605.57	-63.4579	7.336526E-010	0.0100581	6
	41	57	79.00281	18659.38	-39613.73	1	43788.36	-64.77802	5.584838E-010	0.010054	6
	42	58	63.3446	21096.59	-47420.62	1	51901.65	-66.01656	6.92353E-010	0.0100558	6
	43	59	49.86702	24392.78	-57141.41	1	62130.1	-66.88312	4.563866E-010	0.0100522	6
	44	61	39.72458	28296.74	-68657.5	1	74260.07	-67.60131	4.394686E-010	0.0100601	6
	45	62	31.6723	33081.22	-82411.94	1	88803.69	-68.12884	6.965298E-010	0.0100569	6
	46	64	24.93351	39153.64	-99715.7	1	107127.1	-68.56241	1.1759E-010	0.0100605	5
	47	65	19.86229	46393.43	-119536.9	1	128224.1	-68.78828	1.286562E-010	0.010057	5
	48	66	15.83615	55166.53	-142751.8	1	153040.6	-68.87094	2.308057E-010	0.0100559	5
	49	68	12.40079	67046.5	-173474.6	1	185980.3	-68.8689	4.546165E-010	0.010062	5
	50	69	9.93114	80829.24	-206103.7	1	221386.8	-68.58601	4.66531E-010	0.0100638	5
	51	71	7.944915	98018.4	-244892.4	1	263780	-68.1862	5.328335E-010	0.0100608	5
	52	72	6.317385	119597.2	-291422.7	1	315009	-67.68721	3.924351E-010	0.0100518	5
	53	74	5.008013	146061.2	-347160.7	1	376635.7	-67.18201	2.660425E-010	0.0100612	5
	54	77	3.945707	180061.5	-414166.1	1	451614.5	-66.50269	3.486033E-010	0.0100569	5
	55	79	3.158693	219318.8	-486182.3	1	533361	-65.71967	1.907396E-010	0.0100811	5
	56	82	2.504006	269300.8	-573958	1	633995.8	-64.86406	6.343301E-011	0.0100577	5
	57	85	1.998082	327744.2	-671487.1	1	747202.3	-63.98359	-2.456066E-011	0.0100356	5
	58	88	1.584686	402051.6	-782793.6	1	880006.4	-62.81446	5.023887E-011	0.0100877	5
	59	92	1.266892	488443.8	-909480.8	1	1032343	-61.76163	-4.28614E-011	0.0100255	4
	60	96	0.999041	598070.3	-1054306	1	1212126	-60.4353	1.419335E-010	0.0100975	4
