EXPLAIN
TAG	EISPOT
TITLE	LABEL	Potentiostatic EIS	Test &Identifier
DATE	LABEL	10/31/2019	Date
TIME	LABEL	23:55:43	Time
NOTES	NOTES	1	&Notes...
	
PSTAT	PSTAT	REF600-11020	Potentiostat
VDC	POTEN	0.00000E+000	T	DC &Voltage (V)
FREQINIT	QUANT	1.00000E+006	Initial Fre&q. (Hz)
FREQFINAL	QUANT	1.00000E+000	Final Fre&q. (Hz)
PTSPERDEC	QUANT	1.00000E+001	Points/&decade
VAC	QUANT	2.50000E+001	AC &Voltage (mV rms)
AREA	QUANT	1.00000E-002	&Area (cm^2)
CONDIT	TWOPARAM	T	5.00000E+000	0.00000E+000	Conditionin&g	Time(s)	E(V)
DELAY	TWOPARAM	T	5.00000E+000	0.00000E+000	Init. De&lay	Time(s)	Stab.(mV/s)
SPEED	SELECTOR	0	&Optimize for:
ZGUESS	QUANT	1.00000E+005	E&stimated Z (ohms)
OCVCURVE	TABLE	19
	Pt	T	Vf	Vm	Ach	Over
	#	s	V vs. Ref.	V	V	bits
	0	0.258333	5.73311E-003	5.73311E-003	5.63966E-004	...........
	1	0.516667	5.73337E-003	5.74676E-003	5.70232E-004	...........
	2	0.775	5.73752E-003	5.89328E-003	5.63632E-004	...........
	3	1.03333	5.75634E-003	5.96008E-003	5.62732E-004	...........
	4	1.29167	5.79873E-003	5.94274E-003	5.65432E-004	...........
	5	1.55	5.85915E-003	6.13371E-003	5.63966E-004	...........
	6	1.80833	5.92754E-003	6.14905E-003	5.61632E-004	...........
	7	2.06667	5.99897E-003	6.10904E-003	5.67566E-004	...........
	8	2.325	6.06320E-003	6.16082E-003	5.66666E-004	...........
	9	2.58333	6.10947E-003	6.23296E-003	5.67699E-004	...........
	10	2.84167	6.14400E-003	6.31001E-003	5.64032E-004	...........
	11	3.1	6.18317E-003	6.36567E-003	5.60832E-004	...........
	12	3.35833	6.23457E-003	6.41144E-003	5.68299E-004	...........
	13	3.61667	6.29341E-003	6.45840E-003	5.66899E-004	...........
	14	3.875	6.35177E-003	6.51305E-003	5.72299E-004	...........
	15	4.13333	6.40634E-003	6.56743E-003	5.69699E-004	...........
	16	4.39167	6.45698E-003	6.54315E-003	5.67032E-004	...........
	17	4.65	6.50922E-003	7.01367E-003	5.65266E-004	...........
	18	4.90833	6.58932E-003	7.23089E-003	5.67466E-004	...........
EOC	QUANT	0.0065893	Open Circuit (V)
PSTATMODEL	IQUANT	4	Pstat Model
PSTATSECTION	LABEL	REF600-11020	Pstat Section
PSTATSERIALNO	LABEL	11020	Pstat Serial Number
CTRLMODE	IQUANT	1	Control Mode
IESTAB	IQUANT	0	I/E Stability
CASPEED	IQUANT	1	Control Amp Speed
CONVENTION	IQUANT	1	Current Convention
ICHRANGE	IQUANT	2	Ich Range
ICHRANGEMODE	TOGGLE	F	Ich Auto Range
ICHOFFSETENABLE	TOGGLE	T	Ich Offset Enable
ICHOFFSET	QUANT	0	Ich Offset (V)
ICHFILTER	IQUANT	3	Ich Filter
VCHRANGE	IQUANT	2	Vch Range
VCHRANGEMODE	TOGGLE	F	Vch Auto Range
VCHOFFSETENABLE	TOGGLE	T	Vch Offset Enable
VCHOFFSET	QUANT	0	Vch Offset (V)
VCHFILTER	IQUANT	3	Vch Filter
ACHRANGE	IQUANT	2	Ach Range
ACHOFFSETENABLE	TOGGLE	F	Ach Offset Enable
ACHOFFSET	QUANT	0	Ach Offset (V)
ACHFILTER	IQUANT	3	Ach Filter
IERANGELOWERLIMIT	IQUANT	1	I/E Range Lower Limit
IERANGEMODE	TOGGLE	F	I/E AutoRange
IERANGE	IQUANT	5	I/E Range
POSFEEDENABLE	TOGGLE	F	Positive Feedback IR Comp
POSFEEDRESISTANCE	QUANT	0	Positive Feedback Resistance (ohm)
ACHSELECT	IQUANT	0	Ach Select
CABLEID	IQUANT	14	Cable ID
DCCALDATE	LABEL	8/19/2019	DC Calibration Date
ACCALDATE	LABEL	8/19/2019	AC Calibration Date
THERMOSELECT	IQUANT	1	Thermo Select
FRAMEWORKVERSION	QUANT	6.33	Framework Version
INSTRUMENTVERSION	LABEL	3.50	Instrument Version
ZCURVE	TABLE
	Pt	Time	Freq	Zreal	Zimag	Zsig	Zmod	Zphz	Idc	Vdc	IERange
	#	s	Hz	ohm	ohm	V	ohm	°	A	V	#
	0	1	1000078	2002.565	-860.5846	1	2179.65	-23.25519	5.266893E-007	0.0093959	8
	1	2	794390.6	2132.88	-753.3514	1	2262.015	-19.45366	8.534505E-006	0.0075378	8
	2	2	630984.4	2235.877	-659.9798	1	2331.248	-16.4454	-1.078914E-006	0.0087246	8
	3	2	501234.4	2316.017	-569.4919	1	2385.007	-13.81455	6.442111E-006	0.0070525	8
	4	3	398109.4	2372.683	-491.3469	1	2423.025	-11.69972	-1.29209E-006	0.0078429	8
	5	3	316265.6	2418.749	-425.0164	1	2455.807	-9.96613	-3.204411E-008	0.0078142	8
	6	3	251203.1	2458.425	-376.7558	1	2487.127	-8.712839	3.726325E-006	0.0080622	8
	7	4	199546.9	2489.106	-332.5471	1	2511.222	-7.609713	-4.416284E-006	0.0084181	8
	8	4	158578.1	2514.217	-309.97	1	2533.253	-7.028352	-2.625766E-007	0.0078536	8
	9	4	125953.1	2550.535	-242.6479	1	2562.052	-5.43454	-5.919912E-007	0.010898	7
	10	5	100078.1	2564.583	-228.1927	1	2574.716	-5.084701	-8.022118E-007	0.0095521	7
	11	5	79453.13	2584.012	-232.6573	1	2594.465	-5.144882	4.364335E-007	0.0065792	7
	12	5	63140.62	2603.829	-241.5213	1	2615.006	-5.299376	-2.548107E-007	0.0072731	7
	13	6	50203.12	2626.447	-256.6206	1	2638.954	-5.580451	9.666559E-007	0.0070494	7
	14	6	39890.62	2651.288	-274.7642	1	2665.487	-5.916683	8.586443E-007	0.0065757	7
	15	6	31640.63	2676.063	-298.8342	1	2692.697	-6.371783	-9.734898E-007	0.0094769	7
	16	6	25171.88	2705.578	-330.4532	1	2725.684	-6.963487	-2.556169E-007	0.0072815	7
	17	7	20015.62	2737.631	-368.3563	1	2762.302	-7.663289	-5.52348E-007	0.0094541	7
	18	7	15890.62	2776.274	-413.8119	1	2806.944	-8.477691	7.28811E-007	0.0078581	7
	19	7	12609.37	2816.1	-467.4163	1	2854.627	-9.42404	-2.609864E-007	0.0092433	7
	20	8	10078.13	2864.255	-530.5643	1	2912.98	-10.49431	9.476659E-007	0.0067739	7
	21	8	8015.625	2911.025	-604.244	1	2973.075	-11.72642	1.12141E-007	0.0068356	7
	22	8	6328.125	2969.755	-693.6937	1	3049.698	-13.14776	4.31744E-007	0.0065852	7
	23	9	5015.625	3030.573	-797.3427	1	3133.708	-14.74044	-6.304664E-007	0.0078875	7
	24	9	3984.375	3094.355	-920.1957	1	3228.28	-16.56136	-7.957873E-007	0.0095247	7
	25	9	3170.956	3167.63	-1064.994	1	3341.869	-18.58324	6.167478E-008	0.0088866	7
	26	10	2527.573	3243.193	-1240.435	1	3472.316	-20.93052	5.388398E-007	0.008215	7
	27	10	1976.103	3332.909	-1472.728	1	3643.79	-23.83941	9.637743E-007	0.0070517	7
	28	10	1577.524	3415.404	-1730.515	1	3828.794	-26.8704	-2.554575E-007	0.007269	7
	29	11	1265.625	3507.993	-2039.984	1	4058.023	-30.17905	-9.198386E-007	0.0084864	7
	30	11	998.264	3613.644	-2457.792	1	4370.259	-34.22128	6.861986E-007	0.0065014	7
	31	11	796.875	3726.789	-2938.763	1	4746.081	-38.25758	3.472559E-007	0.0084929	7
	32	12	627.7902	3860.98	-3578.426	1	5264.247	-42.82491	3.488922E-007	0.0084911	7
	33	12	505.5147	4010.091	-4294.326	1	5875.548	-46.96029	-2.600987E-007	0.0092339	7
	34	12	397.9953	4197.585	-5279.99	1	6745.222	-51.51534	-1.221186E-009	0.0080664	7
	35	13	315.5048	4426.06	-6463.173	1	7833.429	-55.59618	2.046623E-009	0.0080605	7
	36	13	252.4038	4701.521	-7866.818	1	9164.668	-59.13579	2.339125E-009	0.0080556	7
	37	13	198.6229	5081.416	-9724	1	10971.64	-62.41003	2.516634E-010	0.0079961	6
	38	14	158.3615	5546.564	-11891.02	1	13121	-64.9933	7.589055E-010	0.0079967	6
	39	14	125.558	6167.458	-14604.22	1	15853.1	-67.10534	5.043554E-010	0.0079933	6
	40	14	100.4464	6965.323	-17766.5	1	19083.09	-68.59243	-7.522132E-010	0.0079885	6
	41	14	79.00281	8112.769	-21959.5	1	23410.18	-69.72363	-6.468552E-010	0.0079903	6
	42	15	63.3446	9209.691	-26592.66	1	28142.28	-70.89777	2.326045E-010	0.0079965	6
	43	15	49.86702	11220.92	-32575.69	1	34454.09	-70.99339	-1.205934E-009	0.0079873	6
	44	16	39.72458	13885.47	-39544.49	1	41911.49	-70.65202	-2.042467E-010	0.007994	6
	45	16	31.6723	17218.36	-47661.93	1	50676.74	-70.13723	4.137505E-011	0.0079948	6
	46	16	24.93351	21652.19	-57681.29	1	61611.27	-69.42505	5.107693E-010	0.007991	6
	47	17	19.86229	27090.03	-68747.63	1	73892.52	-68.49306	1.626434E-009	0.0079962	6
	48	17	15.83615	33939.18	-81795.22	1	88556.91	-67.46503	-8.776305E-010	0.0079983	6
	49	17	12.40079	43150.51	-97610.7	1	106723.1	-66.15134	6.848844E-011	0.0079973	5
	50	18	9.93114	53891.17	-112488.9	1	124731.8	-64.40186	-1.465991E-009	0.0080044	5
	51	18	7.944915	66384.09	-129880.6	1	145862.3	-62.92768	-9.788775E-010	0.0080054	5
	52	19	6.317385	81194.74	-150009.1	1	170573.5	-61.57484	-5.760101E-010	0.0080136	5
	53	20	5.008013	98233.8	-172500	1	198509.8	-60.33973	-5.763941E-010	0.0079962	5
	54	21	3.945707	117893.3	-198307.9	1	230705.1	-59.26868	1.356817E-010	0.0080035	5
	55	22	3.158693	137746.4	-225299.8	1	264072.1	-58.55874	-1.327622E-010	0.0080206	5
	56	24	2.504006	160414	-258380.2	1	304126.6	-58.16613	-3.603453E-010	0.008004	5
	57	25	1.998082	183814	-295012.2	1	347591.4	-58.0741	-4.822778E-011	0.0080252	5
	58	26	1.584686	210944.6	-341242.1	1	401178	-58.27701	1.030154E-010	0.0080453	5
	59	28	1.266892	236610.6	-396745.1	1	461942.9	-59.18902	-2.473052E-010	0.0080162	5
	60	31	0.999041	272343.9	-462114.9	1	536396.7	-59.48736	1.42039E-010	0.007989	5
