EXPLAIN
TAG	EISPOT
TITLE	LABEL	Potentiostatic IDE	Test &Identifier
DATE	LABEL	9/12/2019	Date
TIME	LABEL	9:13:05	Time
NOTES	NOTES	1	&Notes...
	
PSTAT	PSTAT	REF600-11020	Potentiostat
VDC	POTEN	0.00000E+000	T	DC &Voltage (V)
FREQINIT	QUANT	1.00000E+006	Initial Fre&q. (Hz)
FREQFINAL	QUANT	1.00000E+000	Final Fre&q. (Hz)
PTSPERDEC	QUANT	1.00000E+001	Points/&decade
VAC	QUANT	2.50000E+001	AC &Voltage (mV rms)
AREA	QUANT	1.00000E-002	&Area (cm^2)
CONDIT	TWOPARAM	T	5.00000E+000	0.00000E+000	Conditionin&g	Time(s)	E(V)
DELAY	TWOPARAM	T	5.00000E+000	0.00000E+000	Init. De&lay	Time(s)	Stab.(mV/s)
SPEED	SELECTOR	1	&Optimize for:
ZGUESS	QUANT	1.00000E+007	E&stimated Z (ohms)
OCVCURVE	TABLE	19
	Pt	T	Vf	Vm	Ach	Over
	#	s	V vs. Ref.	V	V	bits
	0	0.258333	5.09980E-003	5.09980E-003	5.64666E-004	...........
	1	0.516667	5.09116E-003	4.64748E-003	5.65066E-004	...........
	2	0.775	5.03921E-003	4.27709E-003	5.67199E-004	...........
	3	1.03333	4.90209E-003	4.24251E-003	5.72066E-004	...........
	4	1.29167	4.68711E-003	4.02131E-003	5.60066E-004	...........
	5	1.55	4.45436E-003	4.06576E-003	5.60166E-004	...........
	6	1.80833	4.27724E-003	4.84002E-003	5.57666E-004	...........
	7	2.06667	4.22620E-003	4.65556E-003	5.61232E-004	...........
	8	2.325	4.28178E-003	2.74106E-003	5.59199E-004	...........
	9	2.58333	4.25414E-003	3.07873E-003	5.58533E-004	...........
	10	2.84167	3.98921E-003	3.20800E-003	5.62599E-004	...........
	11	3.1	3.60161E-003	3.23556E-003	5.58166E-004	...........
	12	3.35833	3.31194E-003	3.20122E-003	5.59832E-004	...........
	13	3.61667	3.18958E-003	3.16331E-003	5.63599E-004	...........
	14	3.875	3.16682E-003	3.11420E-003	5.65532E-004	...........
	15	4.13333	3.16565E-003	3.06479E-003	5.60099E-004	...........
	16	4.39167	3.14986E-003	3.01251E-003	5.62499E-004	...........
	17	4.65	3.11548E-003	2.96845E-003	5.64032E-004	...........
	18	4.90833	3.07059E-003	2.94499E-003	5.65166E-004	...........
EOC	QUANT	0.0030706	Open Circuit (V)
PSTATMODEL	IQUANT	4	Pstat Model
PSTATSECTION	LABEL	REF600-11020	Pstat Section
PSTATSERIALNO	LABEL	11020	Pstat Serial Number
CTRLMODE	IQUANT	1	Control Mode
IESTAB	IQUANT	0	I/E Stability
CASPEED	IQUANT	1	Control Amp Speed
CONVENTION	IQUANT	1	Current Convention
ICHRANGE	IQUANT	2	Ich Range
ICHRANGEMODE	TOGGLE	F	Ich Auto Range
ICHOFFSETENABLE	TOGGLE	T	Ich Offset Enable
ICHOFFSET	QUANT	0	Ich Offset (V)
ICHFILTER	IQUANT	3	Ich Filter
VCHRANGE	IQUANT	2	Vch Range
VCHRANGEMODE	TOGGLE	F	Vch Auto Range
VCHOFFSETENABLE	TOGGLE	T	Vch Offset Enable
VCHOFFSET	QUANT	0	Vch Offset (V)
VCHFILTER	IQUANT	3	Vch Filter
ACHRANGE	IQUANT	2	Ach Range
ACHOFFSETENABLE	TOGGLE	F	Ach Offset Enable
ACHOFFSET	QUANT	0	Ach Offset (V)
ACHFILTER	IQUANT	3	Ach Filter
IERANGELOWERLIMIT	IQUANT	1	I/E Range Lower Limit
IERANGEMODE	TOGGLE	F	I/E AutoRange
IERANGE	IQUANT	2	I/E Range
POSFEEDENABLE	TOGGLE	F	Positive Feedback IR Comp
POSFEEDRESISTANCE	QUANT	0	Positive Feedback Resistance (ohm)
ACHSELECT	IQUANT	0	Ach Select
CABLEID	IQUANT	14	Cable ID
DCCALDATE	LABEL	8/19/2019	DC Calibration Date
ACCALDATE	LABEL	8/19/2019	AC Calibration Date
THERMOSELECT	IQUANT	1	Thermo Select
FRAMEWORKVERSION	QUANT	6.33	Framework Version
INSTRUMENTVERSION	LABEL	3.50	Instrument Version
ZCURVE	TABLE
	Pt	Time	Freq	Zreal	Zimag	Zsig	Zmod	Zphz	Idc	Vdc	IERange
	#	s	Hz	ohm	ohm	V	ohm	°	A	V	#
	0	2	1000078	2510.745	-1800.959	1	3089.869	-35.6519	5.189862E-006	0.0042922	8
	1	3	794390.6	2882.025	-1684.128	1	3338.016	-30.30012	-4.727596E-006	0.0053882	8
	2	5	630984.4	3193.853	-1553.988	1	3551.841	-25.94551	7.824624E-007	0.0046554	8
	3	6	501234.4	3437.073	-1371.619	1	3700.65	-21.75526	2.124411E-006	0.0041654	8
	4	8	398109.4	3635.765	-1205.273	1	3830.336	-18.3406	-1.155603E-006	0.0050333	8
	5	9	316265.6	3773.296	-1028.903	1	3911.062	-15.2526	-3.028925E-006	0.0052854	8
	6	10	251203.1	3890.281	-885.1884	1	3989.717	-12.81874	5.126512E-007	0.0045248	8
	7	12	199546.9	3976.31	-785.6951	1	4053.191	-11.17732	4.242424E-006	0.0038859	8
	8	13	158578.1	4030.876	-669.9175	1	4086.166	-9.43611	3.344697E-006	0.0040281	8
	9	14	125953.1	4099.098	-543.3397	1	4134.952	-7.550599	1.310968E-006	0.0016512	7
	10	16	100078.1	4133.938	-488.0025	1	4162.643	-6.732486	4.152203E-008	0.0044763	7
	11	17	79453.13	4171.309	-459.4371	1	4196.535	-6.285347	-3.118939E-008	0.0046064	7
	12	18	63140.62	4207.474	-443.9744	1	4230.833	-6.023583	1.028341E-008	0.0045437	7
	13	20	50203.12	4242.095	-438.8979	1	4264.739	-5.90695	9.10514E-009	0.0045249	7
	14	21	39890.62	4282.391	-449.9418	1	4305.963	-5.997941	-2.668413E-008	0.0046784	7
	15	22	31640.63	4316.679	-465.2219	1	4341.676	-6.151202	2.422998E-009	0.0047087	7
	16	24	25171.88	4359.68	-494.7066	1	4387.658	-6.473841	8.508582E-008	0.0044246	7
	17	25	20015.62	4405.012	-534.8499	1	4437.363	-6.922879	-6.622077E-008	0.0047026	7
	18	26	15890.62	4455.806	-585.7985	1	4494.148	-7.489641	-2.661847E-008	0.0045916	7
	19	28	12609.37	4508.153	-651.6854	1	4555.013	-8.22553	2.080829E-008	0.0045105	7
	20	29	10078.13	4564.396	-731.4886	1	4622.639	-9.104783	2.192565E-008	0.004514	7
	21	30	8015.625	4628.515	-826.1644	1	4701.67	-10.1204	1.403871E-007	0.004397	7
	22	32	6328.125	4698.067	-949.5737	1	4793.07	-11.42669	-4.528509E-008	0.0046334	7
	23	33	5015.625	4774.759	-1094.557	1	4898.61	-12.91131	-4.127986E-008	0.0047427	7
	24	34	3984.375	4858.45	-1269.338	1	5021.529	-14.64203	1.397073E-007	0.004398	7
	25	36	3170.956	4950.794	-1479.61	1	5167.167	-16.63947	-2.618561E-008	0.0045993	7
	26	37	2527.573	5052.365	-1731.763	1	5340.917	-18.91981	8.045392E-008	0.0044455	7
	27	38	1976.103	5171.129	-2071.684	1	5570.678	-21.83228	-4.989353E-008	0.0047024	7
	28	40	1577.524	5300.89	-2445.273	1	5837.704	-24.76363	-3.974372E-008	0.0046204	7
	29	41	1265.625	5433.656	-2888.558	1	6153.729	-27.99533	-1.139297E-008	0.0046336	7
	30	42	998.264	5603.761	-3475.84	1	6594.209	-31.81005	-4.727477E-008	0.0046303	7
	31	44	796.875	5788.165	-4159.939	1	7127.969	-35.7047	-2.641255E-008	0.0045916	7
	32	45	627.7902	6009.462	-5047.35	1	7847.89	-40.02691	-1.041939E-008	0.004634	7
	33	46	505.5147	6248.112	-6026.526	1	8680.895	-43.96579	-5.030704E-008	0.0047054	7
	34	48	397.9953	6553.299	-7346.571	1	9844.69	-48.26635	6.494124E-009	0.004604	7
	35	49	315.5048	6901.882	-8928.198	1	11284.89	-52.29443	1.511986E-009	0.0045464	6
	36	50	252.4038	7292.914	-10791.22	1	13024.47	-55.94841	1.462407E-009	0.004546	6
	37	52	198.6229	7792.479	-13251.35	1	15372.73	-59.54226	9.213404E-010	0.0045463	6
	38	53	158.3615	8359.995	-16124.97	1	18163.27	-62.59551	1.685829E-009	0.0045433	6
	39	54	125.558	9068.404	-19746.7	1	21729.43	-65.33369	9.023121E-010	0.0045498	6
	40	56	100.4464	9894.43	-24054.23	1	26009.73	-67.64075	7.135749E-010	0.0045424	6
	41	57	79.00281	11011.84	-29641.73	1	31621.08	-69.62007	1.463024E-009	0.0045379	6
	42	59	63.3446	12509.33	-35808.05	1	37930.2	-70.74345	5.029564E-010	0.0045413	6
	43	60	49.86702	14160.53	-44943.89	1	47121.91	-72.51186	1.442059E-009	0.0045371	6
	44	61	39.72458	16568.35	-54609.25	1	57067.34	-73.12229	1.637007E-009	0.0045478	6
	45	63	31.6723	19589.13	-66841.5	1	69652.86	-73.6658	1.602068E-009	0.0045462	6
	46	64	24.93351	24125.01	-82252.02	1	85717.05	-73.65327	8.862009E-010	0.0045485	6
	47	65	19.86229	29615.21	-100018.6	1	104311	-73.50613	6.67798E-010	0.0045453	6
	48	67	15.83615	37552.85	-121101.8	1	126790.6	-72.77169	-2.66123E-010	0.0045524	5
	49	68	12.40079	47565.05	-148146.3	1	155594.9	-72.19983	1.26496E-009	0.0045532	5
	50	70	9.93114	59650.96	-178322.7	1	188035.2	-71.50433	6.610826E-010	0.0045575	5
	51	71	7.944915	76479.88	-212660.8	1	225995.1	-70.21973	7.380028E-010	0.0045525	5
	52	73	6.317385	98198.7	-253354.3	1	271719.3	-68.81395	3.813479E-010	0.0045403	5
	53	75	5.008013	125983.2	-301285.6	1	326565.1	-67.30766	-1.770128E-011	0.0045471	5
	54	77	3.945707	162690	-355547.9	1	391001.7	-65.41233	4.532392E-010	0.0045553	5
	55	80	3.158693	204962.1	-411757.8	1	459950	-63.5371	2.512956E-010	0.0045709	5
	56	83	2.504006	257618.1	-476685.2	1	541844.9	-61.61159	2.500822E-011	0.0045443	5
	57	86	1.998082	318108.7	-544028.9	1	630206.8	-59.684	3.013317E-011	0.00452	5
	58	89	1.584686	389005.3	-615899.6	1	728462.3	-57.72329	5.583303E-011	0.0045661	5
	59	93	1.266892	467821.4	-691737.4	1	835079.3	-55.92954	1.15263E-010	0.004508	5
	60	97	0.999041	558771.2	-775639.3	1	955951	-54.23099	1.73025E-010	0.0045891	5
