EXPLAIN
TAG	EISPOT
TITLE	LABEL	Potentiostatic EIS	Test &Identifier
DATE	LABEL	10/20/2019	Date
TIME	LABEL	9:03:50	Time
NOTES	NOTES	1	&Notes...
	
PSTAT	PSTAT	REF600-11020	Potentiostat
VDC	POTEN	0.00000E+000	T	DC &Voltage (V)
FREQINIT	QUANT	1.00000E+006	Initial Fre&q. (Hz)
FREQFINAL	QUANT	1.00000E+000	Final Fre&q. (Hz)
PTSPERDEC	QUANT	1.00000E+001	Points/&decade
VAC	QUANT	2.50000E+001	AC &Voltage (mV rms)
AREA	QUANT	1.00000E-002	&Area (cm^2)
CONDIT	TWOPARAM	T	5.00000E+000	0.00000E+000	Conditionin&g	Time(s)	E(V)
DELAY	TWOPARAM	T	5.00000E+000	0.00000E+000	Init. De&lay	Time(s)	Stab.(mV/s)
SPEED	SELECTOR	1	&Optimize for:
ZGUESS	QUANT	1.00000E+005	E&stimated Z (ohms)
OCVCURVE	TABLE	19
	Pt	T	Vf	Vm	Ach	Over
	#	s	V vs. Ref.	V	V	bits
	0	0.258333	6.21714E-003	6.21714E-003	5.16333E-004	...........
	1	0.516667	6.21702E-003	6.21101E-003	5.19600E-004	...........
	2	0.775	6.21641E-003	6.21080E-003	5.15600E-004	...........
	3	1.03333	6.21708E-003	6.31779E-003	5.14366E-004	...........
	4	1.29167	6.22770E-003	6.40929E-003	5.20000E-004	...........
	5	1.55	6.25868E-003	6.39629E-003	5.15900E-004	...........
	6	1.80833	6.30510E-003	6.32322E-003	5.13233E-004	...........
	7	2.06667	6.34505E-003	6.37665E-003	5.16366E-004	...........
	8	2.325	6.36500E-003	6.42423E-003	5.19133E-004	...........
	9	2.58333	6.37610E-003	6.52657E-003	5.12200E-004	...........
	10	2.84167	6.39867E-003	6.54393E-003	5.17833E-004	...........
	11	3.1	6.43938E-003	6.57925E-003	5.18166E-004	...........
	12	3.35833	6.48924E-003	6.63803E-003	5.19400E-004	...........
	13	3.61667	6.53864E-003	6.68882E-003	5.17800E-004	...........
	14	3.875	6.58634E-003	6.74089E-003	5.21866E-004	...........
	15	4.13333	6.63475E-003	6.78762E-003	5.23600E-004	...........
	16	4.39167	6.68453E-003	6.84110E-003	5.18033E-004	...........
	17	4.65	6.73496E-003	6.89011E-003	5.17800E-004	...........
	18	4.90833	6.78544E-003	6.93714E-003	5.18266E-004	...........
EOC	QUANT	0.0067854	Open Circuit (V)
PSTATMODEL	IQUANT	4	Pstat Model
PSTATSECTION	LABEL	REF600-11020	Pstat Section
PSTATSERIALNO	LABEL	11020	Pstat Serial Number
CTRLMODE	IQUANT	1	Control Mode
IESTAB	IQUANT	0	I/E Stability
CASPEED	IQUANT	1	Control Amp Speed
CONVENTION	IQUANT	1	Current Convention
ICHRANGE	IQUANT	2	Ich Range
ICHRANGEMODE	TOGGLE	F	Ich Auto Range
ICHOFFSETENABLE	TOGGLE	T	Ich Offset Enable
ICHOFFSET	QUANT	0	Ich Offset (V)
ICHFILTER	IQUANT	3	Ich Filter
VCHRANGE	IQUANT	2	Vch Range
VCHRANGEMODE	TOGGLE	F	Vch Auto Range
VCHOFFSETENABLE	TOGGLE	T	Vch Offset Enable
VCHOFFSET	QUANT	0	Vch Offset (V)
VCHFILTER	IQUANT	3	Vch Filter
ACHRANGE	IQUANT	2	Ach Range
ACHOFFSETENABLE	TOGGLE	F	Ach Offset Enable
ACHOFFSET	QUANT	0	Ach Offset (V)
ACHFILTER	IQUANT	3	Ach Filter
IERANGELOWERLIMIT	IQUANT	1	I/E Range Lower Limit
IERANGEMODE	TOGGLE	F	I/E AutoRange
IERANGE	IQUANT	5	I/E Range
POSFEEDENABLE	TOGGLE	F	Positive Feedback IR Comp
POSFEEDRESISTANCE	QUANT	0	Positive Feedback Resistance (ohm)
ACHSELECT	IQUANT	0	Ach Select
CABLEID	IQUANT	14	Cable ID
DCCALDATE	LABEL	8/19/2019	DC Calibration Date
ACCALDATE	LABEL	8/19/2019	AC Calibration Date
THERMOSELECT	IQUANT	1	Thermo Select
FRAMEWORKVERSION	QUANT	6.33	Framework Version
INSTRUMENTVERSION	LABEL	3.50	Instrument Version
ZCURVE	TABLE
	Pt	Time	Freq	Zreal	Zimag	Zsig	Zmod	Zphz	Idc	Vdc	IERange
	#	s	Hz	ohm	ohm	V	ohm	°	A	V	#
	0	2	1000078	2063.536	-660.9614	1	2166.806	-17.76054	6.933481E-007	0.0092328	8
	1	3	794390.6	2148.763	-578.9325	1	2225.387	-15.07891	-7.591698E-007	0.008693	8
	2	4	630984.4	2213.406	-502.2707	1	2269.678	-12.78516	4.80265E-006	0.007657	8
	3	6	501234.4	2272.461	-436.3944	1	2313.984	-10.87051	-1.022524E-006	0.0084315	8
	4	7	398109.4	2308.798	-373.5665	1	2338.825	-9.190879	-2.176726E-007	0.0085413	8
	5	8	316265.6	2341.488	-329.5179	1	2364.56	-8.010636	-1.404097E-006	0.0086548	8
	6	10	251203.1	2367.343	-294.2	1	2385.553	-7.084077	-3.210782E-007	0.0085007	8
	7	11	199546.9	2388.631	-265.0642	1	2403.293	-6.332152	3.903132E-006	0.00761	8
	8	13	158578.1	2413.493	-251.7874	1	2426.592	-5.95583	3.988433E-006	0.0076885	8
	9	14	125953.1	2446.395	-201.1102	1	2454.647	-4.699532	-4.682159E-007	0.0085021	7
	10	15	100078.1	2464.048	-195.8755	1	2471.821	-4.545077	-1.374505E-008	0.0083739	7
	11	17	79453.13	2483.867	-204.2968	1	2492.254	-4.701965	-4.401328E-008	0.0084044	7
	12	18	63140.62	2504.883	-217.4284	1	2514.302	-4.960943	7.161185E-008	0.0082674	7
	13	19	50203.12	2528.343	-233.9045	1	2539.14	-5.285556	2.802001E-008	0.0082888	7
	14	21	39890.62	2554.219	-254.5351	1	2566.87	-5.690897	4.08468E-008	0.0081806	7
	15	22	31640.63	2583.227	-277.596	1	2598.099	-6.133521	-3.519168E-008	0.0083466	7
	16	23	25171.88	2613.646	-307.1339	1	2631.63	-6.702188	1.305075E-007	0.0081194	7
	17	25	20015.62	2648.323	-341.665	1	2670.271	-7.35123	6.527835E-008	0.0081939	7
	18	26	15890.62	2686.532	-383.2251	1	2713.728	-8.118289	6.947631E-011	0.0083139	7
	19	27	12609.37	2728.407	-431.0989	1	2762.254	-8.978729	8.05008E-008	0.0082609	7
	20	29	10078.13	2774.139	-485.7841	1	2816.352	-9.93245	-4.148298E-008	0.0083347	7
	21	30	8015.625	2816.931	-548.1892	1	2869.775	-11.01241	7.421087E-008	0.0082697	7
	22	32	6328.125	2884.478	-627.0961	1	2951.858	-12.26545	-7.303264E-008	0.0084296	7
	23	33	5015.625	2947.565	-715.4357	1	3033.148	-13.64305	-1.241968E-008	0.008272	7
	24	34	3984.375	3013.181	-813.8645	1	3121.159	-15.11499	-1.077258E-008	0.0082729	7
	25	36	3170.956	3085.33	-938.8625	1	3225.016	-16.92495	-3.863417E-008	0.00835	7
	26	37	2527.573	3161.348	-1081.245	1	3341.14	-18.88173	7.629086E-008	0.0081426	7
	27	38	1976.103	3245.798	-1268.935	1	3485.025	-21.35287	-3.583379E-008	0.0083425	7
	28	40	1577.524	3331.946	-1475.806	1	3644.155	-23.88981	1.319891E-007	0.0081	7
	29	41	1265.625	3411.503	-1733.536	1	3826.683	-26.93715	1.338502E-007	0.0080947	7
	30	42	998.264	3509.958	-2073.617	1	4076.725	-30.57379	3.600396E-009	0.0083066	7
	31	44	796.875	3610.127	-2467.328	1	4372.725	-34.35051	7.969442E-008	0.0081345	7
	32	45	627.7902	3728.481	-2998.372	1	4784.538	-38.80556	-4.056882E-008	0.0083897	7
	33	47	505.5147	3853.823	-3585.41	1	5263.755	-42.93363	-4.994197E-008	0.008456	7
	34	48	397.9953	4020.6	-4393.591	1	5955.575	-47.53819	3.525988E-009	0.0083156	7
	35	49	315.5048	4216.049	-5367.234	1	6825.121	-51.84979	5.032669E-009	0.0083137	7
	36	51	252.4038	4448.431	-6520.264	1	7893.186	-55.69635	4.068473E-009	0.0083109	7
	37	52	198.6229	4762.342	-8044.188	1	9348.201	-59.3735	5.699732E-009	0.0083158	7
	38	53	158.3615	5140.005	-9813.63	1	11078.22	-62.35617	5.613027E-010	0.0082552	6
	39	55	125.558	5637.167	-12036.4	1	13291.08	-64.90428	1.243671E-009	0.0082558	6
	40	56	100.4464	6245.742	-14626.8	1	15904.48	-66.8772	-8.689554E-010	0.0082529	6
	41	58	79.00281	7113.28	-18079.31	1	19428.34	-68.52291	-3.217814E-011	0.0082525	6
	42	59	63.3446	8297.182	-21790.43	1	23316.65	-69.15458	4.59224E-010	0.0082541	6
	43	60	49.86702	9497.211	-27020.96	1	28641.39	-70.63467	-5.562413E-010	0.008251	6
	44	62	39.72458	11162.85	-32559.16	1	34419.59	-71.07582	4.501376E-010	0.0082571	6
	45	63	31.6723	13347.94	-39447.04	1	41644.16	-71.3054	9.456237E-010	0.0082534	6
	46	65	24.93351	16087.21	-48124.55	1	50742.2	-71.51611	5.713984E-010	0.0082513	6
	47	66	19.86229	19562.98	-57924.21	1	61138.57	-71.33842	1.009973E-009	0.0082547	6
	48	68	15.83615	24175.5	-69737.22	1	73808.77	-70.88033	-6.925709E-010	0.0082587	6
	49	69	12.40079	29809.28	-84387.45	1	89497.68	-70.54459	-1.10094E-009	0.008258	6
	50	70	9.93114	35542.59	-100831	1	106912	-70.58263	5.401345E-010	0.0082662	5
	51	72	7.944915	44297.68	-119900.3	1	127821.6	-69.72303	9.011157E-010	0.0082688	5
	52	74	6.317385	53537.96	-143244.7	1	152922.7	-69.50668	-2.100785E-010	0.0082597	5
	53	76	5.008013	65789.61	-171236.7	1	183440.2	-68.98309	-8.31235E-011	0.0082641	5
	54	78	3.945707	81057.17	-205249.2	1	220675.1	-68.44991	-2.324443E-010	0.0082548	5
	55	81	3.158693	98574	-242297.9	1	261581.9	-67.86204	1.841231E-010	0.0082688	5
	56	84	2.504006	120779.5	-288140.9	1	312430.6	-67.25812	-3.064035E-010	0.0082614	5
	57	87	1.998082	146952.5	-338792.7	1	369290.5	-66.55104	8.014633E-011	0.0082183	5
	58	90	1.584686	178203	-400424.7	1	438287.8	-66.00927	-5.779869E-011	0.0082541	5
	59	94	1.266892	216537.7	-469568.1	1	517090.7	-65.24358	8.370346E-011	0.0082134	5
	60	98	0.999041	264412.8	-555342.4	1	615076.6	-64.53968	-3.853808E-011	0.0082921	5
