EXPLAIN
TAG	EISPOT
TITLE	LABEL	Potentiostatic EIS	Test &Identifier
DATE	LABEL	6/20/2000	Date
TIME	LABEL	9:07:36	Time
NOTES	NOTES	2	&Notes...
	
	
PSTAT	PSTAT	REF600-11020	Potentiostat
VDC	POTEN	0.00000E+000	T	DC &Voltage (V)
FREQINIT	QUANT	1.00000E+006	Initial Fre&q. (Hz)
FREQFINAL	QUANT	1.00000E+000	Final Fre&q. (Hz)
PTSPERDEC	QUANT	1.00000E+001	Points/&decade
VAC	QUANT	2.50000E+001	AC &Voltage (mV rms)
AREA	QUANT	1.00000E-002	&Area (cm^2)
CONDIT	TWOPARAM	T	5.00000E+000	0.00000E+000	Conditionin&g	Time(s)	E(V)
DELAY	TWOPARAM	T	5.00000E+000	0.00000E+000	Init. De&lay	Time(s)	Stab.(mV/s)
SPEED	SELECTOR	0	&Optimize for:
ZGUESS	QUANT	1.00000E+005	E&stimated Z (ohms)
OCVCURVE	TABLE	19
	Pt	T	Vf	Vm	Ach	Over
	#	s	V vs. Ref.	V	V	bits
	0	0.258333	5.06885E-003	5.06885E-003	5.47499E-004	...........
	1	0.516667	5.06292E-003	4.75838E-003	5.39866E-004	...........
	2	0.775	5.02864E-003	4.57599E-003	5.43266E-004	...........
	3	1.03333	4.93662E-003	4.28885E-003	5.43933E-004	...........
	4	1.29167	4.77674E-003	4.03147E-003	5.41699E-004	...........
	5	1.55	4.57095E-003	4.19518E-003	5.45866E-004	...........
	6	1.80833	4.36864E-003	4.01700E-003	5.49833E-004	...........
	7	2.06667	4.21271E-003	3.86892E-003	5.44999E-004	...........
	8	2.325	4.09891E-003	3.71530E-003	5.41333E-004	...........
	9	2.58333	3.99378E-003	3.67517E-003	5.43799E-004	...........
	10	2.84167	3.88133E-003	3.52599E-003	5.41399E-004	...........
	11	3.1	3.76584E-003	3.38009E-003	5.40199E-004	...........
	12	3.35833	3.64968E-003	3.29971E-003	5.39899E-004	...........
	13	3.61667	3.53269E-003	3.23256E-003	5.43399E-004	...........
	14	3.875	3.42157E-003	3.17124E-003	5.41466E-004	...........
	15	4.13333	3.32508E-003	3.11620E-003	5.45799E-004	...........
	16	4.39167	3.24525E-003	3.04783E-003	5.40299E-004	...........
	17	4.65	3.17810E-003	3.02897E-003	5.45199E-004	...........
	18	4.90833	3.12202E-003	3.08842E-003	5.43199E-004	...........
EOC	QUANT	0.003122	Open Circuit (V)
PSTATMODEL	IQUANT	4	Pstat Model
PSTATSECTION	LABEL	REF600-11020	Pstat Section
PSTATSERIALNO	LABEL	11020	Pstat Serial Number
CTRLMODE	IQUANT	1	Control Mode
IESTAB	IQUANT	0	I/E Stability
CASPEED	IQUANT	1	Control Amp Speed
CONVENTION	IQUANT	1	Current Convention
ICHRANGE	IQUANT	2	Ich Range
ICHRANGEMODE	TOGGLE	F	Ich Auto Range
ICHOFFSETENABLE	TOGGLE	T	Ich Offset Enable
ICHOFFSET	QUANT	0	Ich Offset (V)
ICHFILTER	IQUANT	3	Ich Filter
VCHRANGE	IQUANT	2	Vch Range
VCHRANGEMODE	TOGGLE	F	Vch Auto Range
VCHOFFSETENABLE	TOGGLE	T	Vch Offset Enable
VCHOFFSET	QUANT	0	Vch Offset (V)
VCHFILTER	IQUANT	3	Vch Filter
ACHRANGE	IQUANT	2	Ach Range
ACHOFFSETENABLE	TOGGLE	F	Ach Offset Enable
ACHOFFSET	QUANT	0	Ach Offset (V)
ACHFILTER	IQUANT	3	Ach Filter
IERANGELOWERLIMIT	IQUANT	1	I/E Range Lower Limit
IERANGEMODE	TOGGLE	F	I/E AutoRange
IERANGE	IQUANT	4	I/E Range
POSFEEDENABLE	TOGGLE	F	Positive Feedback IR Comp
POSFEEDRESISTANCE	QUANT	0	Positive Feedback Resistance (ohm)
ACHSELECT	IQUANT	0	Ach Select
CABLEID	IQUANT	14	Cable ID
DCCALDATE	LABEL	8/19/2019	DC Calibration Date
ACCALDATE	LABEL	8/19/2019	AC Calibration Date
THERMOSELECT	IQUANT	1	Thermo Select
FRAMEWORKVERSION	QUANT	6.33	Framework Version
INSTRUMENTVERSION	LABEL	3.50	Instrument Version
ZCURVE	TABLE
	Pt	Time	Freq	Zreal	Zimag	Zsig	Zmod	Zphz	Idc	Vdc	IERange
	#	s	Hz	ohm	ohm	V	ohm	°	A	V	#
	0	1	1000078	1890.197	-873.323	1	2082.196	-24.79823	-9.684938E-006	0.0060344	8
	1	1	794390.6	2060.128	-794.8062	1	2208.131	-21.09683	-4.858666E-006	0.0060737	8
	2	2	630984.4	2173.618	-698.3876	1	2283.059	-17.81231	-6.407429E-006	0.0058347	8
	3	2	501234.4	2268.716	-615.8998	1	2350.831	-15.18832	7.945358E-007	0.0043059	8
	4	2	398109.4	2339.489	-528.0929	1	2398.351	-12.72019	6.51454E-006	0.0038018	8
	5	2	316265.6	2390.432	-460.4852	1	2434.381	-10.90371	-6.881715E-007	0.0043154	8
	6	3	251203.1	2430.806	-398.8108	1	2463.304	-9.317241	8.538625E-007	0.0049865	8
	7	3	199546.9	2461.143	-351.2892	1	2486.087	-8.123198	-4.832904E-006	0.0049837	8
	8	3	158578.1	2491.813	-313.0805	1	2511.404	-7.161325	-2.660167E-006	0.0051455	8
	9	4	125953.1	2521.085	-263.659	1	2534.835	-5.970377	-1.656154E-006	0.0042717	7
	10	4	100078.1	2545.587	-243.7187	1	2557.227	-5.468923	-2.976196E-007	0.0037532	7
	11	4	79453.13	2564.503	-243.6397	1	2576.051	-5.427075	-1.173425E-006	0.0056187	7
	12	5	63140.62	2585.347	-250.1776	1	2597.423	-5.527162	9.714798E-007	0.0038503	7
	13	5	50203.12	2607.909	-259.6822	1	2620.806	-5.686474	-1.01195E-006	0.0050679	7
	14	5	39890.62	2631.611	-276.1372	1	2646.059	-5.990176	1.041992E-007	0.0032538	7
	15	6	31640.63	2658.402	-298.3315	1	2675.089	-6.403063	1.028866E-006	0.0031517	7
	16	6	25171.88	2684.308	-325.5378	1	2703.976	-6.914742	-7.05408E-007	0.0044069	7
	17	6	20015.62	2713.829	-361.9292	1	2737.857	-7.596413	1.049316E-006	0.0034529	7
	18	7	15890.62	2745.71	-406.8141	1	2775.684	-8.427832	9.244439E-007	0.0029398	7
	19	7	12609.37	2778.098	-461.5002	1	2816.17	-9.431894	-1.04962E-006	0.0061116	7
	20	7	10078.13	2812.284	-525.6105	1	2860.981	-10.58633	-1.048981E-006	0.0061142	7
	21	8	8015.625	2853.209	-607.2496	1	2917.115	-12.01501	-8.527294E-007	0.0061611	7
	22	8	6328.125	2900.283	-708.4216	1	2985.549	-13.72626	9.735928E-007	0.0038457	7
	23	8	5015.625	2945.595	-831.2202	1	3060.63	-15.75858	-1.176966E-006	0.0056062	7
	24	9	3984.375	2996.535	-979.36	1	3152.518	-18.09899	-1.175748E-006	0.00561	7
	25	9	3170.956	3056.405	-1162.773	1	3270.115	-20.82872	-5.858447E-007	0.0060652	7
	26	9	2527.573	3122.619	-1384.498	1	3415.785	-23.91141	8.033743E-007	0.0043118	7
	27	9	1976.103	3203.265	-1679.581	1	3616.891	-27.66955	-8.526388E-007	0.006151	7
	28	10	1577.524	3299.369	-2010.177	1	3863.502	-31.35232	3.944296E-007	0.0050127	7
	29	10	1265.625	3384.792	-2402.426	1	4150.719	-35.36602	-1.175188E-006	0.0056055	7
	30	10	998.264	3499.407	-2928.092	1	4562.847	-39.92055	9.271221E-007	0.0029367	7
	31	11	796.875	3626.687	-3535.645	1	5064.942	-44.27174	9.251128E-007	0.0029356	7
	32	11	627.7902	3780.714	-4331.784	1	5749.622	-48.88605	1.047484E-006	0.0034495	7
	33	11	505.5147	3949.416	-5225.413	1	6550.025	-52.91767	1.049672E-006	0.0034442	7
	34	12	397.9953	4177.222	-6428.809	1	7666.731	-56.98556	4.268166E-009	0.0045697	7
	35	12	315.5048	4446.636	-7890.854	1	9057.492	-60.59797	3.347117E-009	0.0045648	7
	36	12	252.4038	4772.976	-9618.52	1	10737.65	-63.60812	1.139479E-009	0.0045119	6
	37	13	198.6229	5215.839	-11907.98	1	13000.19	-66.34599	4.073749E-010	0.0045135	6
	38	13	158.3615	5759.247	-14572.55	1	15669.34	-68.43548	4.736246E-010	0.0045075	6
	39	13	125.558	6485.113	-17919.15	1	19056.57	-70.10432	2.426801E-010	0.004507	6
	40	14	100.4464	7367.814	-21837.66	1	23047.09	-71.35611	-2.628757E-010	0.0045026	6
	41	14	79.00281	8673.443	-26942.47	1	28304.16	-72.15536	-6.080689E-010	0.0044996	6
	42	14	63.3446	10334.11	-33003.1	1	34583.21	-72.61334	5.607733E-010	0.004505	6
	43	15	49.86702	12446.37	-40508.82	1	42377.79	-72.92038	9.482461E-010	0.0044956	6
	44	15	39.72458	15267.18	-48871.06	1	51200.27	-72.65134	1.581062E-010	0.0045114	6
	45	15	31.6723	18817.7	-58970.52	1	61900.14	-72.30194	5.751499E-010	0.0045055	6
	46	16	24.93351	23805.73	-71978.59	1	75813.13	-71.69922	-5.826246E-011	0.0045075	6
	47	16	19.86229	30005.33	-86494.54	1	91551.22	-70.86812	-3.228734E-010	0.0045085	6
	48	16	15.83615	38540.35	-102254	1	109276	-69.34818	2.031506E-009	0.0045054	5
	49	17	12.40079	47966.36	-124540.9	1	133458.6	-68.93603	-1.773572E-010	0.0045167	5
	50	17	9.93114	61095.42	-145949.4	1	158220.9	-67.28548	6.385754E-010	0.004509	5
	51	18	7.944915	76155.5	-171099.8	1	187282.7	-66.00645	4.852995E-010	0.0045046	5
	52	18	6.317385	94325.16	-199600.3	1	220765.7	-64.70598	4.965641E-010	0.0045045	5
	53	19	5.008013	116640.6	-232610.4	1	260216.5	-63.36889	4.929079E-010	0.0045111	5
	54	20	3.945707	144234	-270892.7	1	306897.9	-61.9674	-1.287132E-010	0.0045094	5
	55	21	3.158693	172786.7	-310248.4	1	355118.7	-60.88524	-1.055765E-011	0.0044804	5
	56	23	2.504006	207643.7	-356887.3	1	412897.6	-59.80836	3.083087E-010	0.0044899	5
	57	24	1.998082	244632.6	-406992	1	474855.4	-58.99099	7.126437E-011	0.0044711	5
	58	26	1.584686	288755.1	-467702.8	1	549659.4	-58.30923	-3.997874E-011	0.0044383	5
	59	28	1.266892	334200.7	-534963.9	1	630774.6	-58.0063	-1.316109E-011	0.0044606	5
	60	30	0.999041	388213.1	-616487.1	1	728536.7	-57.80063	-7.696782E-012	0.0044917	5
