EXPLAIN
TAG	EISPOT
TITLE	LABEL	Potentiostatic EIS	Test &Identifier
DATE	LABEL	10/18/2019	Date
TIME	LABEL	9:10:36	Time
NOTES	NOTES	1	&Notes...
	
PSTAT	PSTAT	REF600-11020	Potentiostat
VDC	POTEN	0.00000E+000	T	DC &Voltage (V)
FREQINIT	QUANT	1.00000E+006	Initial Fre&q. (Hz)
FREQFINAL	QUANT	1.00000E+000	Final Fre&q. (Hz)
PTSPERDEC	QUANT	1.00000E+001	Points/&decade
VAC	QUANT	2.50000E+001	AC &Voltage (mV rms)
AREA	QUANT	1.00000E-002	&Area (cm^2)
CONDIT	TWOPARAM	T	5.00000E+000	0.00000E+000	Conditionin&g	Time(s)	E(V)
DELAY	TWOPARAM	T	5.00000E+000	0.00000E+000	Init. De&lay	Time(s)	Stab.(mV/s)
SPEED	SELECTOR	0	&Optimize for:
ZGUESS	QUANT	1.00000E+005	E&stimated Z (ohms)
OCVCURVE	TABLE	19
	Pt	T	Vf	Vm	Ach	Over
	#	s	V vs. Ref.	V	V	bits
	0	0.258333	4.74643E-003	4.74643E-003	5.33546E-004	...........
	1	0.516667	4.74461E-003	4.65092E-003	5.35080E-004	...........
	2	0.775	4.73544E-003	4.66704E-003	5.38213E-004	...........
	3	1.03333	4.71803E-003	4.77398E-003	5.36913E-004	...........
	4	1.29167	4.70544E-003	4.76331E-003	5.35980E-004	...........
	5	1.55	4.71104E-003	4.76062E-003	5.32246E-004	...........
	6	1.80833	4.72976E-003	4.74340E-003	5.32546E-004	...........
	7	2.06667	4.74832E-003	4.85478E-003	5.32813E-004	...........
	8	2.325	4.76570E-003	4.85954E-003	5.39413E-004	...........
	9	2.58333	4.79000E-003	4.89814E-003	5.34946E-004	...........
	10	2.84167	4.82374E-003	4.97989E-003	5.31446E-004	...........
	11	3.1	4.86262E-003	4.91108E-003	5.35280E-004	...........
	12	3.35833	4.89580E-003	4.79571E-003	5.39113E-004	...........
	13	3.61667	4.90926E-003	4.98211E-003	5.39113E-004	...........
	14	3.875	4.91079E-003	5.17546E-003	5.33080E-004	...........
	15	4.13333	4.93447E-003	5.15479E-003	5.40513E-004	...........
	16	4.39167	4.99334E-003	5.01598E-003	5.36813E-004	...........
	17	4.65	5.05548E-003	5.12486E-003	5.31846E-004	...........
	18	4.90833	5.09047E-003	5.16072E-003	5.32413E-004	...........
EOC	QUANT	0.0050905	Open Circuit (V)
PSTATMODEL	IQUANT	4	Pstat Model
PSTATSECTION	LABEL	REF600-11020	Pstat Section
PSTATSERIALNO	LABEL	11020	Pstat Serial Number
CTRLMODE	IQUANT	1	Control Mode
IESTAB	IQUANT	0	I/E Stability
CASPEED	IQUANT	1	Control Amp Speed
CONVENTION	IQUANT	1	Current Convention
ICHRANGE	IQUANT	2	Ich Range
ICHRANGEMODE	TOGGLE	F	Ich Auto Range
ICHOFFSETENABLE	TOGGLE	T	Ich Offset Enable
ICHOFFSET	QUANT	0	Ich Offset (V)
ICHFILTER	IQUANT	3	Ich Filter
VCHRANGE	IQUANT	2	Vch Range
VCHRANGEMODE	TOGGLE	F	Vch Auto Range
VCHOFFSETENABLE	TOGGLE	T	Vch Offset Enable
VCHOFFSET	QUANT	0	Vch Offset (V)
VCHFILTER	IQUANT	3	Vch Filter
ACHRANGE	IQUANT	2	Ach Range
ACHOFFSETENABLE	TOGGLE	F	Ach Offset Enable
ACHOFFSET	QUANT	0	Ach Offset (V)
ACHFILTER	IQUANT	1	Ach Filter
IERANGELOWERLIMIT	IQUANT	1	I/E Range Lower Limit
IERANGEMODE	TOGGLE	F	I/E AutoRange
IERANGE	IQUANT	4	I/E Range
POSFEEDENABLE	TOGGLE	F	Positive Feedback IR Comp
POSFEEDRESISTANCE	QUANT	0	Positive Feedback Resistance (ohm)
ACHSELECT	IQUANT	0	Ach Select
CABLEID	IQUANT	14	Cable ID
DCCALDATE	LABEL	8/19/2019	DC Calibration Date
ACCALDATE	LABEL	8/19/2019	AC Calibration Date
THERMOSELECT	IQUANT	1	Thermo Select
FRAMEWORKVERSION	QUANT	6.33	Framework Version
INSTRUMENTVERSION	LABEL	3.50	Instrument Version
ZCURVE	TABLE
	Pt	Time	Freq	Zreal	Zimag	Zsig	Zmod	Zphz	Idc	Vdc	IERange
	#	s	Hz	ohm	ohm	V	ohm	°	A	V	#
	0	1	1000078	1325.005	-1557.25	1	2044.668	-49.60682	-2.985551E-006	0.0071949	8
	1	1	794390.6	1408.425	-1852.069	1	2326.762	-52.74845	1.3971E-006	0.0069048	8
	2	2	630984.4	1516.047	-2214.609	1	2683.82	-55.60576	1.888836E-006	0.006258	8
	3	2	501234.4	1649.886	-2675.66	1	3143.45	-58.34087	-3.341271E-008	0.0067047	8
	4	2	398109.4	1822.271	-3222.069	1	3701.675	-60.50927	-2.657722E-006	0.0071893	8
	5	3	316265.6	2055.053	-3907.474	1	4414.929	-62.25882	-1.039226E-006	0.006897	8
	6	3	251203.1	2369.487	-4753.409	1	5311.249	-63.50459	1.933805E-006	0.0061734	8
	7	3	199546.9	2799.144	-5723.811	1	6371.595	-63.93975	3.319722E-006	0.0060199	8
	8	4	158578.1	3429.014	-6865.186	1	7673.911	-63.45885	-1.068111E-006	0.0068246	8
	9	4	125953.1	4390.121	-8138.799	1	9247.335	-61.65729	-9.415037E-007	0.0081004	7
	10	5	100078.1	5405.847	-9664.77	1	11073.89	-60.78018	-2.092553E-008	0.0066554	7
	11	5	79453.13	6804.234	-11268.51	1	13163.47	-58.87528	-5.80595E-008	0.0066288	7
	12	5	63140.62	8566.937	-12978.35	1	15550.88	-56.57141	-2.84323E-009	0.0065119	7
	13	6	50203.12	10707.59	-14687.51	1	18176.23	-53.90694	1.248222E-007	0.0064064	7
	14	6	39890.62	13269.4	-16234.54	1	20967.53	-50.73895	-3.830695E-008	0.006587	7
	15	6	31640.63	16140.21	-17594.08	1	23875.89	-47.46779	-3.641449E-008	0.0066554	7
	16	7	25171.88	19306.04	-18661.69	1	26851.1	-44.02772	3.403277E-008	0.006446	7
	17	7	20015.62	22830.28	-19742.35	1	30182.48	-40.85141	7.304917E-008	0.0064614	7
	18	7	15890.62	25755.1	-19936.3	1	32569.63	-37.74245	7.259035E-008	0.0064149	7
	19	8	12609.37	29366.24	-20035.81	1	35550.1	-34.30468	1.90968E-009	0.0065876	6
	20	8	10078.13	32331.95	-20395.83	1	38227.54	-32.24479	-5.995445E-010	0.0065044	6
	21	8	8015.625	34840.95	-20824.34	1	40589.96	-30.86665	1.99719E-009	0.006593	6
	22	9	6328.125	38210.64	-21112.7	1	43655.45	-28.92216	2.839168E-009	0.0065855	6
	23	9	5015.625	41095.12	-21519.26	1	46388.45	-27.63858	4.873802E-009	0.006351	6
	24	9	3984.375	44742.2	-21466.92	1	49625.53	-25.63129	-7.539655E-009	0.0066824	6
	25	10	3170.956	47052.57	-23062.16	1	52400.45	-26.11114	-7.638262E-009	0.006618	6
	26	10	2527.573	50139.42	-24023.76	1	55597.69	-25.60091	-7.929081E-009	0.006613	6
	27	10	1976.103	53492.23	-25128.35	1	59100.36	-25.16212	-5.211084E-009	0.0065367	6
	28	10	1577.524	58763.18	-29109.68	1	65578.08	-26.35256	-7.026598E-008	0.0066917	7
	29	11	1265.625	60500.23	-28283.05	1	66784.8	-25.05546	4.294971E-009	0.0065297	6
	30	11	998.264	64766.27	-30378.2	1	71536.73	-25.12862	-4.180004E-008	0.0067551	7
	31	12	796.875	68607.1	-31909.95	1	75664.91	-24.94368	1.163372E-008	0.0064381	6
	32	12	627.7902	73364.21	-33825.62	1	80786.63	-24.75274	1.209736E-009	0.0064055	6
	33	13	505.5147	77559.4	-36035.76	1	85522.14	-24.92059	-7.811098E-009	0.0066768	6
	34	13	397.9953	82516.35	-38022.99	1	90855.36	-24.73994	2.809269E-010	0.0065341	6
	35	14	315.5048	87656.16	-40275.96	1	96466.3	-24.67768	-6.148592E-010	0.0065349	5
	36	14	252.4038	92501.09	-43088.47	1	102044.4	-24.97685	1.599517E-010	0.0065285	5
	37	14	198.6229	97955.6	-46430.2	1	108402.3	-25.36059	1.747558E-010	0.0065301	5
	38	15	158.3615	103524.4	-50409.51	1	115145.2	-25.963	3.390737E-010	0.0065298	5
	39	15	125.558	109025	-55129.46	1	122170.8	-26.82386	1.181325E-010	0.0065302	5
	40	15	100.4464	115402.5	-61908.19	1	130959.4	-28.21154	-1.357487E-009	0.006526	5
	41	15	79.00281	120482.2	-69983.27	1	139332.7	-30.15059	-4.986976E-010	0.0065196	5
	42	16	63.3446	122626.1	-70542.59	1	141468.8	-29.91035	6.332289E-010	0.0065155	5
	43	16	49.86702	135238.3	-81280.46	1	157784.4	-31.00657	3.090521E-010	0.0065152	5
	44	17	39.72458	146514.6	-97340.6	1	175902.6	-33.59906	-3.907991E-010	0.0065219	5
	45	17	31.6723	159648.5	-111035.1	1	194464.5	-34.81849	-1.157661E-009	0.0065189	5
	46	17	24.93351	169383.4	-124483.2	1	210206.6	-36.31289	-2.526803E-010	0.0065165	5
	47	18	19.86229	181795.5	-143141.4	1	231385.1	-38.21604	-1.23706E-009	0.0065146	5
	48	18	15.83615	206237.4	-163134.5	1	262957.7	-38.34412	2.353308E-009	0.0065155	5
	49	18	12.40079	208950.6	-183863.4	1	278327.3	-41.34575	1.903161E-009	0.0065217	5
	50	19	9.93114	234998.2	-215116.3	1	318589.3	-42.47084	-1.762784E-010	0.0065142	5
	51	19	7.944915	259632.8	-248149.5	1	359148.1	-43.70449	-6.922584E-010	0.0065217	5
	52	20	6.317385	287475.9	-283209.5	1	403546.8	-44.57167	-2.888333E-010	0.0065192	5
	53	20	5.008013	323472.8	-326142.8	1	459351.4	-45.23549	1.127216E-011	0.0065262	5
	54	22	3.945707	364675.3	-374206	1	522511.4	-45.73901	-1.013786E-010	0.0065213	5
	55	23	3.158693	413547.4	-422497.4	1	591206.8	-45.61334	-2.949099E-010	0.0065107	5
	56	24	2.504006	470078.9	-476491.7	1	669341.8	-45.38816	-1.959032E-010	0.0065082	5
	57	26	1.998082	532972.3	-532525.2	1	753420.6	-44.97596	-6.839468E-011	0.0065526	5
	58	27	1.584686	602599.9	-594243.7	1	846316.8	-44.59998	-6.412791E-011	0.0065228	5
	59	29	1.266892	677444.6	-657715.4	1	944203.8	-44.15342	-1.661865E-010	0.0064838	5
	60	32	0.999041	765920.6	-734038.8	1	1060871	-43.78235	-9.879612E-011	0.0064739	4
