EXPLAIN
TAG	EISPOT
TITLE	LABEL	Potentiostatic EIS	Test &Identifier
DATE	LABEL	10/4/2019	Date
TIME	LABEL	9:30:54	Time
NOTES	NOTES	2	&Notes...
	
	
PSTAT	PSTAT	REF600-11020	Potentiostat
VDC	POTEN	0.00000E+000	T	DC &Voltage (V)
FREQINIT	QUANT	1.00000E+006	Initial Fre&q. (Hz)
FREQFINAL	QUANT	1.00000E+000	Final Fre&q. (Hz)
PTSPERDEC	QUANT	1.00000E+001	Points/&decade
VAC	QUANT	2.50000E+001	AC &Voltage (mV rms)
AREA	QUANT	1.00000E-002	&Area (cm^2)
CONDIT	TWOPARAM	T	5.00000E+000	0.00000E+000	Conditionin&g	Time(s)	E(V)
DELAY	TWOPARAM	T	5.00000E+000	0.00000E+000	Init. De&lay	Time(s)	Stab.(mV/s)
SPEED	SELECTOR	1	&Optimize for:
ZGUESS	QUANT	1.00000E+004	E&stimated Z (ohms)
OCVCURVE	TABLE	19
	Pt	T	Vf	Vm	Ach	Over
	#	s	V vs. Ref.	V	V	bits
	0	0.258333	4.44258E-003	4.44258E-003	5.60232E-004	...........
	1	0.516667	4.43524E-003	4.05813E-003	5.61532E-004	...........
	2	0.775	4.39070E-003	3.72326E-003	5.62232E-004	...........
	3	1.03333	4.26717E-003	3.43207E-003	5.67499E-004	...........
	4	1.29167	4.05270E-003	3.17320E-003	5.65666E-004	...........
	5	1.55	3.77943E-003	2.94249E-003	5.65299E-004	...........
	6	1.80833	3.49281E-003	2.73203E-003	5.71332E-004	...........
	7	2.06667	3.22283E-003	2.54430E-003	5.71166E-004	...........
	8	2.325	2.98006E-003	2.37039E-003	5.66032E-004	...........
	9	2.58333	2.76382E-003	2.21097E-003	5.66132E-004	...........
	10	2.84167	2.56974E-003	2.06323E-003	5.67999E-004	...........
	11	3.1	2.39348E-003	1.92836E-003	5.70499E-004	...........
	12	3.35833	2.23196E-003	1.80219E-003	5.66466E-004	...........
	13	3.61667	2.08322E-003	1.68572E-003	5.68399E-004	...........
	14	3.875	1.94582E-003	1.57605E-003	5.63732E-004	...........
	15	4.13333	1.81854E-003	1.47510E-003	5.68999E-004	...........
	16	4.39167	1.70031E-003	1.37995E-003	5.66466E-004	...........
	17	4.65	1.59009E-003	1.28216E-003	5.71666E-004	...........
	18	4.90833	1.48657E-003	1.19791E-003	5.69699E-004	...........
EOC	QUANT	0.0014866	Open Circuit (V)
PSTATMODEL	IQUANT	4	Pstat Model
PSTATSECTION	LABEL	REF600-11020	Pstat Section
PSTATSERIALNO	LABEL	11020	Pstat Serial Number
CTRLMODE	IQUANT	1	Control Mode
IESTAB	IQUANT	0	I/E Stability
CASPEED	IQUANT	1	Control Amp Speed
CONVENTION	IQUANT	1	Current Convention
ICHRANGE	IQUANT	2	Ich Range
ICHRANGEMODE	TOGGLE	F	Ich Auto Range
ICHOFFSETENABLE	TOGGLE	T	Ich Offset Enable
ICHOFFSET	QUANT	0	Ich Offset (V)
ICHFILTER	IQUANT	3	Ich Filter
VCHRANGE	IQUANT	2	Vch Range
VCHRANGEMODE	TOGGLE	F	Vch Auto Range
VCHOFFSETENABLE	TOGGLE	T	Vch Offset Enable
VCHOFFSET	QUANT	0	Vch Offset (V)
VCHFILTER	IQUANT	3	Vch Filter
ACHRANGE	IQUANT	2	Ach Range
ACHOFFSETENABLE	TOGGLE	F	Ach Offset Enable
ACHOFFSET	QUANT	0	Ach Offset (V)
ACHFILTER	IQUANT	3	Ach Filter
IERANGELOWERLIMIT	IQUANT	1	I/E Range Lower Limit
IERANGEMODE	TOGGLE	F	I/E AutoRange
IERANGE	IQUANT	5	I/E Range
POSFEEDENABLE	TOGGLE	F	Positive Feedback IR Comp
POSFEEDRESISTANCE	QUANT	0	Positive Feedback Resistance (ohm)
ACHSELECT	IQUANT	0	Ach Select
CABLEID	IQUANT	14	Cable ID
DCCALDATE	LABEL	8/19/2019	DC Calibration Date
ACCALDATE	LABEL	8/19/2019	AC Calibration Date
THERMOSELECT	IQUANT	1	Thermo Select
FRAMEWORKVERSION	QUANT	6.33	Framework Version
INSTRUMENTVERSION	LABEL	3.50	Instrument Version
ZCURVE	TABLE
	Pt	Time	Freq	Zreal	Zimag	Zsig	Zmod	Zphz	Idc	Vdc	IERange
	#	s	Hz	ohm	ohm	V	ohm	°	A	V	#
	0	1	1000078	2368.698	-1536.951	1	2823.642	-32.97789	1.727895E-006	0.0038707	8
	1	3	794390.6	2666.589	-1462.484	1	3041.308	-28.74246	2.461065E-006	0.0027915	8
	2	4	630984.4	2919.683	-1353.101	1	3217.986	-24.86495	2.340324E-007	0.003239	8
	3	5	501234.4	3132.3	-1227.584	1	3364.263	-21.40079	2.604492E-006	0.0026388	8
	4	7	398109.4	3322.083	-1084.756	1	3494.7	-18.08336	-1.069265E-006	0.003231	8
	5	8	316265.6	3454.043	-956.746	1	3584.1	-15.48237	-1.167403E-006	0.0035341	8
	6	9	251203.1	3561.509	-842.0044	1	3659.688	-13.30151	-9.045856E-007	0.0030386	8
	7	11	199546.9	3644.843	-736.1177	1	3718.433	-11.41795	3.592501E-006	0.0024623	8
	8	12	158578.1	3711.787	-669.7167	1	3771.722	-10.22782	3.906323E-006	0.0023961	8
	9	14	125953.1	3789.512	-562.3087	1	3831.004	-8.440275	-9.882985E-008	0.0040517	7
	10	15	100078.1	3827.108	-517.1714	1	3861.894	-7.695974	-3.239739E-008	0.0030563	7
	11	16	79453.13	3870.964	-501.1287	1	3903.267	-7.376393	-4.468346E-008	0.0030617	7
	12	18	63140.62	3914.37	-498.158	1	3945.941	-7.252697	8.553899E-008	0.0028769	7
	13	19	50203.12	3958.408	-505.2453	1	3990.522	-7.273817	-8.338871E-008	0.0031613	7
	14	20	39890.62	4005.599	-524.6636	1	4039.814	-7.462266	-6.228896E-008	0.0031336	7
	15	22	31640.63	4056.635	-556.1948	1	4094.587	-7.807	4.960285E-008	0.0028958	7
	16	23	25171.88	4111.983	-597.3771	1	4155.149	-8.265938	-6.619577E-008	0.0031706	7
	17	24	20015.62	4172.496	-653.527	1	4223.366	-8.901765	-6.624109E-008	0.0031735	7
	18	26	15890.62	4240.502	-719.2807	1	4301.072	-9.62697	1.385267E-008	0.0031395	7
	19	27	12609.37	4317.021	-801.4805	1	4390.791	-10.51755	1.468715E-008	0.0031356	7
	20	28	10078.13	4399.662	-894.3281	1	4489.638	-11.49008	4.431307E-008	0.0030015	7
	21	30	8015.625	4494.495	-1004.701	1	4605.422	-12.60076	8.570307E-008	0.0028698	7
	22	31	6328.125	4604.587	-1140.055	1	4743.622	-13.90627	-7.917504E-009	0.003072	7
	23	32	5015.625	4726.527	-1293.1	1	4900.221	-15.30077	-6.20733E-008	0.0031279	7
	24	34	3984.375	4861.786	-1470.455	1	5079.291	-16.82803	-8.406069E-008	0.0031621	7
	25	35	3170.956	5012.712	-1674.174	1	5284.897	-18.46858	-4.396149E-008	0.0030546	7
	26	36	2527.573	5180.05	-1907.981	1	5520.264	-20.2204	-5.007794E-008	0.0031509	7
	27	38	1976.103	5384.612	-2201.204	1	5817.159	-22.23451	1.062824E-007	0.0029462	7
	28	39	1577.524	5592.545	-2511.521	1	6130.603	-24.18407	1.264117E-007	0.002859	7
	29	41	1265.625	5820.414	-2864.598	1	6487.152	-26.20475	-9.363505E-009	0.0030302	7
	30	42	998.264	6064.86	-3308.494	1	6908.593	-28.61329	7.893334E-009	0.0030108	7
	31	43	796.875	6313.63	-3804.914	1	7371.519	-31.0753	-1.262723E-008	0.0031089	7
	32	45	627.7902	6587.889	-4446.86	1	7948.26	-34.01956	-6.392305E-008	0.0031636	7
	33	46	505.5147	6845.473	-5156.542	1	8570.323	-36.9899	1.074168E-007	0.0029473	7
	34	47	397.9953	7128.976	-6127.459	1	9400.429	-40.67954	4.891497E-009	0.0030678	7
	35	49	315.5048	7423.354	-7314.375	1	10421.43	-44.57633	4.043384E-010	0.003005	6
	36	50	252.4038	7728.081	-8742.295	1	11668.37	-48.52371	4.313819E-010	0.0030037	6
	37	51	198.6229	8101.89	-10665.91	1	13394.11	-52.77946	7.433811E-010	0.003003	6
	38	53	158.3615	8519.788	-12939.97	1	15492.89	-56.63874	4.510739E-010	0.0029995	6
	39	54	125.558	9048.488	-15833.96	1	18237.04	-60.25373	8.743627E-010	0.003	6
	40	55	100.4464	9676.12	-19276.9	1	21569.11	-63.34546	1.220359E-009	0.0030006	6
	41	57	79.00281	10567.66	-23820.07	1	26059	-66.07577	2.613248E-010	0.0029995	6
	42	58	63.3446	11478.78	-28903.77	1	31099.69	-68.3401	1.901019E-010	0.0030031	6
	43	60	49.86702	13146.75	-35817.99	1	38154.5	-69.84468	7.977463E-011	0.0029985	6
	44	61	39.72458	14892.97	-43907.21	1	46364.25	-71.26348	5.364744E-010	0.0030046	6
	45	62	31.6723	17265.29	-53548.68	1	56263.23	-72.12952	6.919076E-010	0.0030019	6
	46	64	24.93351	20478.4	-66022.9	1	69125.88	-72.76762	6.398466E-010	0.0030017	6
	47	65	19.86229	24501.91	-80432.35	1	84081.55	-73.05782	3.629153E-010	0.0029972	6
	48	66	15.83615	30016.38	-97039	1	101575.4	-72.81197	1.004131E-009	0.0029976	6
	49	68	12.40079	37452.92	-120006.7	1	125715.2	-72.66736	-5.032547E-010	0.003007	5
	50	69	9.93114	45756.6	-143705.6	1	150814.3	-72.33826	-8.191384E-011	0.0030082	5
	51	71	7.944915	56510.27	-172275.4	1	181307	-71.83932	5.358486E-010	0.0030015	5
	52	72	6.317385	70316.79	-206626.5	1	218263.6	-71.20612	4.65436E-010	0.0030079	5
	53	74	5.008013	87754.45	-247998.9	1	263067.1	-70.51366	3.699089E-010	0.0030142	5
	54	77	3.945707	110176.3	-297441.8	1	317191.5	-69.67471	2.978879E-010	0.0030013	5
	55	80	3.158693	135677.3	-351945.2	1	377191.9	-68.91801	4.048798E-010	0.0030102	5
	56	83	2.504006	167867	-417704.1	1	450173.4	-68.10579	-2.733557E-011	0.0030085	5
	57	86	1.998082	205166.2	-490868	1	532019.3	-67.31673	1.93841E-010	0.0029603	5
	58	89	1.584686	249998.7	-581025.3	1	632526.5	-66.71916	6.029276E-011	0.0029739	5
	59	92	1.266892	303276.5	-679437.4	1	744051	-65.94572	1.948404E-010	0.0029715	5
	60	97	0.999041	369489.9	-804287.8	1	885099.8	-65.32594	4.355911E-012	0.0030162	5
