EXPLAIN
TAG	EISPOT
TITLE	LABEL	Potentiostatic EIS	Test &Identifier
DATE	LABEL	11/20/2019	Date
TIME	LABEL	11:20:06	Time
NOTES	NOTES	4	&Notes...
	
	
	
	
PSTAT	PSTAT	REF600-11020	Potentiostat
VDC	POTEN	0.00000E+000	T	DC &Voltage (V)
FREQINIT	QUANT	1.00000E+006	Initial Fre&q. (Hz)
FREQFINAL	QUANT	1.00000E+000	Final Fre&q. (Hz)
PTSPERDEC	QUANT	1.00000E+001	Points/&decade
VAC	QUANT	2.50000E+001	AC &Voltage (mV rms)
AREA	QUANT	1.00000E-002	&Area (cm^2)
CONDIT	TWOPARAM	T	5.00000E+000	0.00000E+000	Conditionin&g	Time(s)	E(V)
DELAY	TWOPARAM	T	5.00000E+000	0.00000E+000	Init. De&lay	Time(s)	Stab.(mV/s)
SPEED	SELECTOR	1	&Optimize for:
ZGUESS	QUANT	1.00000E+005	E&stimated Z (ohms)
OCVCURVE	TABLE	19
	Pt	T	Vf	Vm	Ach	Over
	#	s	V vs. Ref.	V	V	bits
	0	0.258333	3.42604E-003	3.42604E-003	5.31033E-004	...........
	1	0.516667	3.42139E-003	3.18235E-003	5.34566E-004	...........
	2	0.775	3.39309E-003	2.96641E-003	5.37399E-004	...........
	3	1.03333	3.31390E-003	2.75479E-003	5.34233E-004	...........
	4	1.29167	3.17480E-003	2.60878E-003	5.35233E-004	...........
	5	1.55	2.99624E-003	2.45412E-003	5.27433E-004	...........
	6	1.80833	2.80939E-003	2.32118E-003	5.32700E-004	...........
	7	2.06667	2.63478E-003	2.19247E-003	5.44033E-004	...........
	8	2.325	2.47795E-003	2.06476E-003	5.35633E-004	...........
	9	2.58333	2.33636E-003	1.96906E-003	5.27766E-004	...........
	10	2.84167	2.20683E-003	1.86459E-003	5.33266E-004	...........
	11	3.1	2.08824E-003	1.78493E-003	5.30633E-004	...........
	12	3.35833	1.98029E-003	1.69632E-003	5.27800E-004	...........
	13	3.61667	1.88196E-003	1.61568E-003	5.28500E-004	...........
	14	3.875	1.79145E-003	1.55216E-003	5.27566E-004	...........
	15	4.13333	1.70740E-003	1.47636E-003	5.31766E-004	...........
	16	4.39167	1.62911E-003	1.41232E-003	5.33300E-004	...........
	17	4.65	1.55553E-003	1.34547E-003	5.35200E-004	...........
	18	4.90833	1.48560E-003	1.29363E-003	5.33166E-004	...........
EOC	QUANT	0.0014856	Open Circuit (V)
PSTATMODEL	IQUANT	4	Pstat Model
PSTATSECTION	LABEL	REF600-11020	Pstat Section
PSTATSERIALNO	LABEL	11020	Pstat Serial Number
CTRLMODE	IQUANT	1	Control Mode
IESTAB	IQUANT	0	I/E Stability
CASPEED	IQUANT	1	Control Amp Speed
CONVENTION	IQUANT	1	Current Convention
ICHRANGE	IQUANT	2	Ich Range
ICHRANGEMODE	TOGGLE	F	Ich Auto Range
ICHOFFSETENABLE	TOGGLE	T	Ich Offset Enable
ICHOFFSET	QUANT	0	Ich Offset (V)
ICHFILTER	IQUANT	3	Ich Filter
VCHRANGE	IQUANT	2	Vch Range
VCHRANGEMODE	TOGGLE	F	Vch Auto Range
VCHOFFSETENABLE	TOGGLE	T	Vch Offset Enable
VCHOFFSET	QUANT	0	Vch Offset (V)
VCHFILTER	IQUANT	3	Vch Filter
ACHRANGE	IQUANT	2	Ach Range
ACHOFFSETENABLE	TOGGLE	F	Ach Offset Enable
ACHOFFSET	QUANT	0	Ach Offset (V)
ACHFILTER	IQUANT	3	Ach Filter
IERANGELOWERLIMIT	IQUANT	1	I/E Range Lower Limit
IERANGEMODE	TOGGLE	F	I/E AutoRange
IERANGE	IQUANT	4	I/E Range
POSFEEDENABLE	TOGGLE	F	Positive Feedback IR Comp
POSFEEDRESISTANCE	QUANT	0	Positive Feedback Resistance (ohm)
ACHSELECT	IQUANT	0	Ach Select
CABLEID	IQUANT	14	Cable ID
DCCALDATE	LABEL	8/19/2019	DC Calibration Date
ACCALDATE	LABEL	8/19/2019	AC Calibration Date
THERMOSELECT	IQUANT	1	Thermo Select
FRAMEWORKVERSION	QUANT	6.33	Framework Version
INSTRUMENTVERSION	LABEL	3.50	Instrument Version
ZCURVE	TABLE
	Pt	Time	Freq	Zreal	Zimag	Zsig	Zmod	Zphz	Idc	Vdc	IERange
	#	s	Hz	ohm	ohm	V	ohm	°	A	V	#
	0	2	1000078	2400.36	-2085.893	1	3180.044	-40.99038	-2.457179E-006	0.0043792	8
	1	3	794390.6	2834.785	-2082.202	1	3517.324	-36.29797	9.667521E-008	0.0030183	8
	2	4	630984.4	3265.828	-2006.256	1	3832.844	-31.56315	-1.727162E-006	0.0029809	8
	3	6	501234.4	3635	-1860.841	1	4083.62	-27.10896	4.238557E-006	0.0030828	8
	4	7	398109.4	3950.458	-1681.613	1	4293.476	-23.05826	-7.802738E-007	0.0035303	8
	5	8	316265.6	4219.229	-1495.1	1	4476.295	-19.51197	-3.363835E-006	0.0035833	8
	6	10	251203.1	4416.941	-1308.303	1	4606.628	-16.49936	5.586473E-006	0.0020262	8
	7	11	199546.9	4575.196	-1130.422	1	4712.778	-13.87846	-3.418055E-006	0.0035693	8
	8	13	158578.1	4683.519	-975.267	1	4783.983	-11.76282	-4.110052E-006	0.0033976	8
	9	14	125953.1	4815.354	-791.8115	1	4880.021	-9.337853	-6.285734E-007	0.0061284	7
	10	15	100078.1	4861.992	-703.0535	1	4912.56	-8.228049	1.264774E-007	0.0016979	7
	11	17	79453.13	4916.51	-632.5989	1	4957.041	-7.331866	-2.955661E-007	0.0043277	7
	12	18	63140.62	4966.528	-582.0786	1	5000.522	-6.684587	9.719848E-007	0.0023517	7
	13	19	50203.12	5009.541	-543.0294	1	5038.887	-6.186651	-1.179526E-006	0.0043988	7
	14	21	39890.62	5051.951	-524.5897	1	5079.115	-5.928292	-1.064382E-006	0.0045758	7
	15	22	31640.63	5092.359	-522.3721	1	5119.082	-5.856891	3.57376E-007	0.0035517	7
	16	24	25171.88	5134.145	-532.2012	1	5161.655	-5.918097	9.556513E-007	0.0013836	7
	17	25	20015.62	5179.085	-562.9466	1	5209.591	-6.203475	1.278307E-007	0.0016745	7
	18	26	15890.62	5214.876	-593.4727	1	5248.537	-6.492544	-1.179597E-006	0.0043842	7
	19	28	12609.37	5266.306	-649.6539	1	5306.226	-7.032504	5.427693E-008	0.0039512	7
	20	29	10078.13	5311.061	-724.1209	1	5360.198	-7.763951	-2.929673E-007	0.0043249	7
	21	30	8015.625	5353.028	-816.3658	1	5414.92	-8.671105	5.488639E-008	0.0039485	7
	22	32	6328.125	5426.923	-934.8099	1	5506.847	-9.77352	-2.827175E-007	0.0021707	7
	23	33	5015.625	5489.912	-1082.49	1	5595.616	-11.15438	-6.098417E-007	0.0045493	7
	24	34	3984.375	5554.401	-1266.039	1	5696.861	-12.84031	9.703424E-007	0.0023499	7
	25	36	3170.956	5640.843	-1484.286	1	5832.856	-14.74218	5.366431E-008	0.0039416	7
	26	37	2527.573	5731.244	-1754.955	1	5993.916	-17.02503	5.728116E-007	0.003237	7
	27	38	1976.103	5838.875	-2114.324	1	6209.897	-19.90591	-6.069038E-007	0.0045393	7
	28	40	1577.524	5937.828	-2511.32	1	6447.056	-22.92524	7.615577E-007	0.0012975	7
	29	41	1265.625	6081.99	-3003.784	1	6783.312	-26.28392	-1.053944E-006	0.0045472	7
	30	43	998.264	6251.624	-3638.263	1	7233.24	-30.19816	-1.171141E-006	0.004376	7
	31	44	796.875	6438.781	-4375.98	1	7785.057	-34.20115	-6.049739E-007	0.004532	7
	32	46	627.7902	6663.858	-5332.688	1	8534.902	-38.6682	9.730335E-007	0.0023342	7
	33	47	505.5147	6904.451	-6391.248	1	9408.479	-42.78953	9.717224E-007	0.0023337	7
	34	48	397.9953	7228.847	-7813.274	1	10644.41	-47.22498	4.068189E-010	0.0030318	7
	35	50	315.5048	7599.236	-9513.48	1	12175.99	-51.38261	3.868775E-011	0.0029752	6
	36	51	252.4038	8018.127	-11512.58	1	14029.61	-55.14408	1.147143E-009	0.0029638	6
	37	52	198.6229	8556.257	-14153.74	1	16538.98	-58.84609	7.79121E-010	0.0029584	6
	38	54	158.3615	9169.537	-17232.98	1	19520.66	-61.9829	5.474662E-012	0.0029673	6
	39	55	125.558	9949.76	-21113.13	1	23340.14	-64.7674	2.871165E-010	0.0029732	6
	40	56	100.4464	10898.28	-25703.2	1	27918.22	-67.02282	2.257788E-010	0.0029641	6
	41	58	79.00281	12165.26	-31829.16	1	34074.75	-69.0829	1.222249E-010	0.0029683	6
	42	59	63.3446	14006.03	-38500.48	1	40968.97	-70.00919	1.064587E-009	0.0029618	6
	43	61	49.86702	15798.08	-47983.75	1	50517.52	-71.77648	-1.339218E-010	0.0029555	6
	44	62	39.72458	18536.23	-58225.55	1	61104.89	-72.34102	2.188555E-010	0.0029746	6
	45	63	31.6723	22079.62	-70778.16	1	74142.15	-72.67442	5.30482E-010	0.0029735	6
	46	65	24.93351	27135.3	-87266	1	91387.52	-72.72695	1.130482E-009	0.002967	6
	47	66	19.86229	33386.63	-105961.1	1	111096.5	-72.51121	9.786985E-012	0.0029735	5
	48	67	15.83615	42845.89	-127202.7	1	134224.8	-71.38485	1.566521E-009	0.002976	5
	49	69	12.40079	54894.92	-155718.3	1	165111	-70.58107	-8.097018E-010	0.0029714	5
	50	70	9.93114	68183.52	-186173.8	1	198266.6	-69.88545	-2.028172E-010	0.0029813	5
	51	72	7.944915	85894.34	-221607.4	1	237671.3	-68.81382	7.414612E-010	0.0029601	5
	52	73	6.317385	111178.5	-262023	1	284634.4	-67.0081	4.962791E-010	0.0029583	5
	53	75	5.008013	142408.6	-308505.3	1	339787.8	-65.22157	-9.307399E-011	0.0029683	5
	54	78	3.945707	182252.3	-360568.8	1	404012.1	-63.18533	2.907013E-010	0.0029774	5
	55	80	3.158693	226860	-414048	1	472124.2	-61.28134	-5.721294E-011	0.0029493	5
	56	84	2.504006	281601.2	-472854.1	1	550354.7	-59.22472	5.397587E-010	0.0029656	5
	57	87	1.998082	342546.3	-532980.1	1	633565.9	-57.27114	1.206642E-010	0.0030088	5
	58	90	1.584686	409628.6	-599218.3	1	725849.9	-55.6433	2.812185E-010	0.0029854	5
	59	93	1.266892	483264.7	-667529.8	1	824099.9	-54.09697	4.641698E-011	0.0030126	5
	60	98	0.999041	563623.6	-747595.3	1	936253.3	-52.9868	2.094494E-010	0.0029456	5
