EXPLAIN
TAG	EISPOT
TITLE	LABEL	Potentiostatic IDE	Test &Identifier
DATE	LABEL	9/12/2019	Date
TIME	LABEL	10:11:20	Time
NOTES	NOTES	1	&Notes...
	
PSTAT	PSTAT	REF600-11020	Potentiostat
VDC	POTEN	0.00000E+000	T	DC &Voltage (V)
FREQINIT	QUANT	1.00000E+006	Initial Fre&q. (Hz)
FREQFINAL	QUANT	1.00000E+000	Final Fre&q. (Hz)
PTSPERDEC	QUANT	1.00000E+001	Points/&decade
VAC	QUANT	2.50000E+001	AC &Voltage (mV rms)
AREA	QUANT	1.00000E-002	&Area (cm^2)
CONDIT	TWOPARAM	T	5.00000E+000	0.00000E+000	Conditionin&g	Time(s)	E(V)
DELAY	TWOPARAM	T	5.00000E+000	0.00000E+000	Init. De&lay	Time(s)	Stab.(mV/s)
SPEED	SELECTOR	1	&Optimize for:
ZGUESS	QUANT	1.00000E+007	E&stimated Z (ohms)
OCVCURVE	TABLE	19
	Pt	T	Vf	Vm	Ach	Over
	#	s	V vs. Ref.	V	V	bits
	0	0.258333	-4.11312E-003	-4.11312E-003	5.82599E-004	...........
	1	0.516667	-4.12947E-003	-4.96909E-003	5.78066E-004	...........
	2	0.775	-4.22802E-003	-5.68276E-003	5.78232E-004	...........
	3	1.03333	-4.50089E-003	-6.38318E-003	5.74266E-004	...........
	4	1.29167	-4.97734E-003	-7.00120E-003	5.81232E-004	...........
	5	1.55	-5.59387E-003	-7.58576E-003	5.84765E-004	...........
	6	1.80833	-6.25801E-003	-8.18239E-003	5.81932E-004	...........
	7	2.06667	-6.90970E-003	-8.75281E-003	5.78966E-004	...........
	8	2.325	-7.52866E-003	-9.19855E-003	5.80832E-004	...........
	9	2.58333	-8.11070E-003	-9.69014E-003	5.76666E-004	...........
	10	2.84167	-8.65480E-003	-1.02080E-002	5.78732E-004	...........
	11	3.1	-9.16806E-003	-1.06523E-002	5.79032E-004	...........
	12	3.35833	-9.66141E-003	-1.10637E-002	5.81799E-004	...........
	13	3.61667	-1.01368E-002	-1.14532E-002	5.77632E-004	...........
	14	3.875	-1.05891E-002	-1.18776E-002	5.81132E-004	...........
	15	4.13333	-1.10188E-002	-1.22787E-002	5.86799E-004	...........
	16	4.39167	-1.14328E-002	-1.26378E-002	5.83265E-004	...........
	17	4.65	-1.18356E-002	-1.29991E-002	5.78732E-004	...........
	18	4.90833	-1.22261E-002	-1.33604E-002	5.83499E-004	...........
EOC	QUANT	-0.0122261	Open Circuit (V)
PSTATMODEL	IQUANT	4	Pstat Model
PSTATSECTION	LABEL	REF600-11020	Pstat Section
PSTATSERIALNO	LABEL	11020	Pstat Serial Number
CTRLMODE	IQUANT	1	Control Mode
IESTAB	IQUANT	0	I/E Stability
CASPEED	IQUANT	1	Control Amp Speed
CONVENTION	IQUANT	1	Current Convention
ICHRANGE	IQUANT	2	Ich Range
ICHRANGEMODE	TOGGLE	F	Ich Auto Range
ICHOFFSETENABLE	TOGGLE	T	Ich Offset Enable
ICHOFFSET	QUANT	0	Ich Offset (V)
ICHFILTER	IQUANT	3	Ich Filter
VCHRANGE	IQUANT	2	Vch Range
VCHRANGEMODE	TOGGLE	F	Vch Auto Range
VCHOFFSETENABLE	TOGGLE	T	Vch Offset Enable
VCHOFFSET	QUANT	0	Vch Offset (V)
VCHFILTER	IQUANT	3	Vch Filter
ACHRANGE	IQUANT	2	Ach Range
ACHOFFSETENABLE	TOGGLE	F	Ach Offset Enable
ACHOFFSET	QUANT	0	Ach Offset (V)
ACHFILTER	IQUANT	3	Ach Filter
IERANGELOWERLIMIT	IQUANT	1	I/E Range Lower Limit
IERANGEMODE	TOGGLE	F	I/E AutoRange
IERANGE	IQUANT	3	I/E Range
POSFEEDENABLE	TOGGLE	F	Positive Feedback IR Comp
POSFEEDRESISTANCE	QUANT	0	Positive Feedback Resistance (ohm)
ACHSELECT	IQUANT	0	Ach Select
CABLEID	IQUANT	14	Cable ID
DCCALDATE	LABEL	8/19/2019	DC Calibration Date
ACCALDATE	LABEL	8/19/2019	AC Calibration Date
THERMOSELECT	IQUANT	1	Thermo Select
FRAMEWORKVERSION	QUANT	6.33	Framework Version
INSTRUMENTVERSION	LABEL	3.50	Instrument Version
ZCURVE	TABLE
	Pt	Time	Freq	Zreal	Zimag	Zsig	Zmod	Zphz	Idc	Vdc	IERange
	#	s	Hz	ohm	ohm	V	ohm	°	A	V	#
	0	2	1000078	2491.062	-2004.911	1	3197.665	-38.82857	4.36397E-006	-0.0104153	8
	1	4	794390.6	2887.755	-1979.52	1	3501.089	-34.43015	-2.730238E-006	-0.0100053	8
	2	5	630984.4	3287.703	-1871.549	1	3783.079	-29.65102	-1.102191E-006	-0.0098481	8
	3	7	501234.4	3605.799	-1717.032	1	3993.743	-25.46315	7.181741E-007	-0.0107414	8
	4	8	398109.4	3897.549	-1518.571	1	4182.935	-21.28699	-1.125219E-006	-0.0102961	8
	5	10	316265.6	4093.426	-1328.909	1	4303.734	-17.98574	-3.512449E-006	-0.0098646	8
	6	11	251203.1	4277.896	-1140.145	1	4427.226	-14.92357	-1.000528E-006	-0.0103213	8
	7	12	199546.9	4391.672	-1038.507	1	4512.791	-13.30445	2.266733E-006	-0.0110843	8
	8	14	158578.1	4477.391	-875.1034	1	4562.108	-11.05901	-1.112993E-006	-0.01033	8
	9	15	125953.1	4590.5	-734.3204	1	4648.861	-9.088335	-1.542804E-006	-0.0075702	7
	10	16	100078.1	4638.619	-656.6199	1	4684.863	-8.056976	-7.624397E-008	-0.0105427	7
	11	18	79453.13	4693.876	-613.5085	1	4733.8	-7.446576	-2.438596E-009	-0.0107328	7
	12	19	63140.62	4744.477	-585.8425	1	4780.509	-7.039186	8.447166E-008	-0.0108089	7
	13	20	50203.12	4793.364	-570.8547	1	4827.236	-6.791522	-4.216123E-008	-0.0106185	7
	14	22	39890.62	4841.824	-575.7321	1	4875.933	-6.781092	7.837081E-008	-0.0106925	7
	15	23	31640.63	4893.494	-587.5034	1	4928.635	-6.846053	8.353872E-008	-0.0108176	7
	16	24	25171.88	4945.658	-615.4529	1	4983.806	-7.093596	7.802858E-008	-0.0106961	7
	17	26	20015.62	5002.527	-658.5432	1	5045.687	-7.499414	-2.301331E-008	-0.0106823	7
	18	27	15890.62	5062.555	-717.1586	1	5113.099	-8.06284	2.199908E-008	-0.0107667	7
	19	28	12609.37	5127.848	-791.7174	1	5188.607	-8.776916	2.293513E-008	-0.0107672	7
	20	30	10078.13	5198.641	-878.9369	1	5272.419	-9.59628	-5.667196E-009	-0.0106335	7
	21	31	8015.625	5275.187	-990.503	1	5367.373	-10.63441	-4.219404E-008	-0.0105305	7
	22	32	6328.125	5362.072	-1132.254	1	5480.312	-11.92341	7.785044E-008	-0.0107035	7
	23	34	5015.625	5454.491	-1301.4	1	5607.594	-13.41946	-7.345142E-008	-0.0105684	7
	24	35	3984.375	5556.005	-1503.428	1	5755.822	-15.14135	9.4373E-008	-0.0108682	7
	25	36	3170.956	5669.033	-1746.152	1	5931.862	-17.11966	-4.599613E-008	-0.0106425	7
	26	38	2527.573	5791.433	-2039.084	1	6139.915	-19.39647	9.375321E-008	-0.010872	7
	27	39	1976.103	5942.08	-2429.408	1	6419.528	-22.2371	-4.451908E-008	-0.0106536	7
	28	40	1577.524	6095.439	-2862.012	1	6733.906	-25.15162	-5.637397E-008	-0.0105669	7
	29	42	1265.625	6235.562	-3349.872	1	7078.409	-28.24561	8.293283E-008	-0.0108263	7
	30	43	998.264	6470.86	-4045.103	1	7631.178	-32.01057	8.056332E-008	-0.0107106	7
	31	44	796.875	6695.595	-4819.975	1	8250.04	-35.74908	-7.420499E-008	-0.0105696	7
	32	46	627.7902	6967.824	-5826.259	1	9082.723	-39.90123	-2.230071E-008	-0.0106934	7
	33	47	505.5147	7250.867	-6936.917	1	10034.73	-43.73236	8.659322E-009	-0.0109332	6
	34	48	397.9953	7615.568	-8449.446	1	11374.97	-47.97136	6.756835E-010	-0.0107342	6
	35	50	315.5048	8027.08	-10256.64	1	13024.31	-51.95246	1.806582E-009	-0.0107337	6
	36	51	252.4038	8491.757	-12382.84	1	15014.82	-55.55892	7.174109E-010	-0.0107349	6
	37	52	198.6229	9093.874	-15192.79	1	17706.48	-59.09673	8.654663E-010	-0.0107329	6
	38	54	158.3615	9782.75	-18468.81	1	20899.74	-62.09027	5.117818E-010	-0.0107414	6
	39	55	125.558	10655.92	-22593.5	1	24980.29	-64.74972	1.291405E-009	-0.010741	6
	40	56	100.4464	11743.89	-27464.38	1	29869.9	-66.84823	1.854557E-009	-0.0107431	6
	41	58	79.00281	13232.09	-33913.5	1	36403.48	-68.68568	4.509179E-010	-0.0107376	6
	42	59	63.3446	14736.19	-40639.81	1	43229.04	-70.06911	6.795395E-010	-0.0107391	6
	43	61	49.86702	17642.7	-50876.64	1	53848.84	-70.87479	1.744831E-009	-0.0107397	6
	44	62	39.72458	20298.34	-61632.7	1	64889.23	-71.77103	1.016224E-009	-0.0107357	6
	45	63	31.6723	24457.77	-74908.26	1	78799.94	-71.91798	3.426008E-010	-0.0107438	6
	46	65	24.93351	29669.22	-91866.62	1	96538.8	-72.10163	1.186833E-009	-0.0107457	6
	47	66	19.86229	36248.68	-111160.8	1	116921.7	-71.93925	1.220222E-009	-0.0107366	5
	48	67	15.83615	46919.7	-134559.7	1	142505.3	-70.77682	2.580934E-009	-0.0107405	5
	49	69	12.40079	55937.54	-163715.2	1	173007.8	-71.13594	1.282616E-009	-0.0107291	5
	50	70	9.93114	72382.67	-194575.4	1	207602.6	-69.59464	6.448976E-010	-0.0107435	5
	51	71	7.944915	89167.25	-230693.3	1	247326.1	-68.86755	-2.235948E-010	-0.0107323	5
	52	73	6.317385	113613	-273049.8	1	295743.3	-67.40835	3.190413E-010	-0.0107219	5
	53	75	5.008013	142937.7	-322293.9	1	352568.5	-66.08266	7.817761E-010	-0.0107321	5
	54	78	3.945707	180569.5	-379876	1	420608	-64.57649	2.309836E-010	-0.0107433	5
	55	80	3.158693	223135.6	-440351.2	1	493658.4	-63.12767	4.814418E-010	-0.0107254	5
	56	84	2.504006	276279.9	-510801.3	1	580731.1	-61.59213	1.378569E-010	-0.0107299	5
	57	86	1.998082	336055.5	-583984.9	1	673774.3	-60.08162	5.338046E-010	-0.0107632	5
	58	89	1.584686	408928.7	-670935.4	1	785733.4	-58.63809	1.838862E-010	-0.0107691	5
	59	93	1.266892	489178.5	-757415	1	901650.2	-57.1435	4.513967E-010	-0.0107723	5
	60	97	0.999041	587278.7	-865640	1	1046054	-55.84574	2.103902E-011	-0.010735	4
