EXPLAIN
TAG	EISPOT
TITLE	LABEL	Potentiostatic EIS	Test &Identifier
DATE	LABEL	10/28/2019	Date
TIME	LABEL	10:34:48	Time
NOTES	NOTES	1	&Notes...
	
PSTAT	PSTAT	REF600-11020	Potentiostat
VDC	POTEN	0.00000E+000	T	DC &Voltage (V)
FREQINIT	QUANT	1.00000E+006	Initial Fre&q. (Hz)
FREQFINAL	QUANT	1.00000E+000	Final Fre&q. (Hz)
PTSPERDEC	QUANT	1.00000E+001	Points/&decade
VAC	QUANT	2.50000E+001	AC &Voltage (mV rms)
AREA	QUANT	1.00000E-002	&Area (cm^2)
CONDIT	TWOPARAM	T	5.00000E+000	0.00000E+000	Conditionin&g	Time(s)	E(V)
DELAY	TWOPARAM	T	5.00000E+000	0.00000E+000	Init. De&lay	Time(s)	Stab.(mV/s)
SPEED	SELECTOR	1	&Optimize for:
ZGUESS	QUANT	1.00000E+005	E&stimated Z (ohms)
OCVCURVE	TABLE	19
	Pt	T	Vf	Vm	Ach	Over
	#	s	V vs. Ref.	V	V	bits
	0	0.258333	6.87487E-003	6.87487E-003	5.62832E-004	...........
	1	0.516667	6.87575E-003	6.92116E-003	5.60599E-004	...........
	2	0.775	6.88258E-003	7.03808E-003	5.64532E-004	...........
	3	1.03333	6.90677E-003	7.16314E-003	5.63899E-004	...........
	4	1.29167	6.95978E-003	7.26601E-003	5.64266E-004	...........
	5	1.55	7.03970E-003	7.23014E-003	5.67532E-004	...........
	6	1.80833	7.12508E-003	7.21576E-003	5.62999E-004	...........
	7	2.06667	7.19286E-003	7.44046E-003	5.65799E-004	...........
	8	2.325	7.24764E-003	7.54515E-003	5.60566E-004	...........
	9	2.58333	7.31631E-003	7.66379E-003	5.64566E-004	...........
	10	2.84167	7.41410E-003	7.85260E-003	5.65899E-004	...........
	11	3.1	7.53680E-003	7.97879E-003	5.64832E-004	...........
	12	3.35833	7.67490E-003	8.10285E-003	5.64366E-004	...........
	13	3.61667	7.81842E-003	8.23585E-003	5.67899E-004	...........
	14	3.875	7.95827E-003	8.32549E-003	5.62132E-004	...........
	15	4.13333	8.08898E-003	8.42768E-003	5.63732E-004	...........
	16	4.39167	8.20845E-003	8.53016E-003	5.63266E-004	...........
	17	4.65	8.31850E-003	8.65667E-003	5.69966E-004	...........
	18	4.90833	8.42505E-003	8.78043E-003	5.67432E-004	...........
EOC	QUANT	0.0084251	Open Circuit (V)
PSTATMODEL	IQUANT	4	Pstat Model
PSTATSECTION	LABEL	REF600-11020	Pstat Section
PSTATSERIALNO	LABEL	11020	Pstat Serial Number
CTRLMODE	IQUANT	1	Control Mode
IESTAB	IQUANT	0	I/E Stability
CASPEED	IQUANT	1	Control Amp Speed
CONVENTION	IQUANT	1	Current Convention
ICHRANGE	IQUANT	2	Ich Range
ICHRANGEMODE	TOGGLE	F	Ich Auto Range
ICHOFFSETENABLE	TOGGLE	T	Ich Offset Enable
ICHOFFSET	QUANT	0	Ich Offset (V)
ICHFILTER	IQUANT	3	Ich Filter
VCHRANGE	IQUANT	2	Vch Range
VCHRANGEMODE	TOGGLE	F	Vch Auto Range
VCHOFFSETENABLE	TOGGLE	T	Vch Offset Enable
VCHOFFSET	QUANT	0	Vch Offset (V)
VCHFILTER	IQUANT	3	Vch Filter
ACHRANGE	IQUANT	2	Ach Range
ACHOFFSETENABLE	TOGGLE	F	Ach Offset Enable
ACHOFFSET	QUANT	0	Ach Offset (V)
ACHFILTER	IQUANT	3	Ach Filter
IERANGELOWERLIMIT	IQUANT	1	I/E Range Lower Limit
IERANGEMODE	TOGGLE	F	I/E AutoRange
IERANGE	IQUANT	5	I/E Range
POSFEEDENABLE	TOGGLE	F	Positive Feedback IR Comp
POSFEEDRESISTANCE	QUANT	0	Positive Feedback Resistance (ohm)
ACHSELECT	IQUANT	0	Ach Select
CABLEID	IQUANT	14	Cable ID
DCCALDATE	LABEL	8/19/2019	DC Calibration Date
ACCALDATE	LABEL	8/19/2019	AC Calibration Date
THERMOSELECT	IQUANT	1	Thermo Select
FRAMEWORKVERSION	QUANT	6.33	Framework Version
INSTRUMENTVERSION	LABEL	3.50	Instrument Version
ZCURVE	TABLE
	Pt	Time	Freq	Zreal	Zimag	Zsig	Zmod	Zphz	Idc	Vdc	IERange
	#	s	Hz	ohm	ohm	V	ohm	°	A	V	#
	0	1	1000078	2095.894	-1132.945	1	2382.507	-28.39365	-2.834194E-006	0.0114598	8
	1	3	794390.6	2289.148	-1111.571	1	2544.758	-25.90041	-2.084855E-006	0.0110301	8
	2	4	630984.4	2471.299	-1069.448	1	2692.775	-23.40042	3.518317E-006	0.0096243	8
	3	6	501234.4	2637.894	-1015.758	1	2826.703	-21.0599	7.299779E-007	0.0098056	8
	4	7	398109.4	2788.748	-964.877	1	2950.949	-19.08508	3.300573E-006	0.0094226	8
	5	9	316265.6	2918.935	-913.8318	1	3058.638	-17.38379	1.140663E-006	0.0097835	8
	6	10	251203.1	3037.098	-869.4102	1	3159.089	-15.97448	2.714287E-006	0.0094784	8
	7	12	199546.9	3149.658	-810.7824	1	3252.34	-14.43562	1.586544E-006	0.009719	8
	8	13	158578.1	3264.224	-777.3447	1	3355.507	-13.39496	1.443852E-006	0.0099275	8
	9	15	125953.1	3384.292	-692.3417	1	3454.384	-11.56176	5.406521E-007	0.0088453	7
	10	16	100078.1	3454.921	-670.8239	1	3519.444	-10.9881	-4.819171E-008	0.0100409	7
	11	17	79453.13	3536.801	-674.6221	1	3600.566	-10.79908	-1.205399E-008	0.0100583	7
	12	19	63140.62	3617.699	-682.2145	1	3681.462	-10.67925	-5.438632E-008	0.0101775	7
	13	20	50203.12	3700.972	-694.1736	1	3765.51	-10.62327	-8.257296E-008	0.0101388	7
	14	21	39890.62	3787.426	-715.7418	1	3854.463	-10.70146	-6.589201E-009	0.0100489	7
	15	23	31640.63	3877.211	-744.8309	1	3948.106	-10.87432	9.608734E-008	0.0099455	7
	16	24	25171.88	3969.017	-781.1241	1	4045.152	-11.13383	-5.427382E-008	0.0101762	7
	17	25	20015.62	4059.747	-819.9149	1	4141.715	-11.41799	4.347233E-008	0.0099498	7
	18	27	15890.62	4166.05	-876.674	1	4257.292	-11.88353	9.020057E-008	0.0098085	7
	19	28	12609.37	4276.588	-939.4724	1	4378.563	-12.38982	1.524543E-007	0.0097633	7
	20	29	10078.13	4402.526	-1010.794	1	4517.072	-12.93067	8.734236E-008	0.0098085	7
	21	31	8015.625	4509.023	-1071.785	1	4634.654	-13.37094	4.330354E-008	0.009948	7
	22	32	6328.125	4637.019	-1185.691	1	4786.21	-14.34326	-5.275954E-008	0.0101759	7
	23	34	5015.625	4770.924	-1290.869	1	4942.475	-15.14001	4.657117E-008	0.0098454	7
	24	35	3984.375	4906.258	-1427.945	1	5109.833	-16.2274	-7.975314E-009	0.0100375	7
	25	36	3170.956	5031.603	-1569.851	1	5270.812	-17.32783	-4.444903E-008	0.0100247	7
	26	38	2527.573	5158.326	-1751.756	1	5447.658	-18.75738	1.227588E-008	0.0099136	7
	27	39	1976.103	5296.523	-2009.103	1	5664.773	-20.77299	-2.912137E-009	0.010032	7
	28	40	1577.524	5449.736	-2242.148	1	5892.949	-22.3634	-1.60258E-009	0.0100122	7
	29	42	1265.625	5532.902	-2681.089	1	6148.272	-25.85352	-2.589203E-009	0.0100215	8
	30	43	998.264	5684.887	-3191.674	1	6519.565	-29.31122	-8.68305E-008	0.0101362	7
	31	45	796.875	5859.217	-3799.889	1	6983.522	-32.96469	-1.44989E-008	0.0100373	7
	32	46	627.7902	6068.274	-4596.889	1	7612.84	-37.14496	4.276061E-008	0.0098384	7
	33	48	505.5147	6324.646	-5500.922	1	8382.201	-41.01543	-5.091744E-008	0.0100974	7
	34	49	397.9953	6663.493	-6713.132	1	9458.768	-45.21262	4.281687E-009	0.0100085	7
	35	50	315.5048	7108.103	-8152.319	1	10815.98	-48.91445	6.717245E-010	0.0099482	6
	36	52	252.4038	7658.466	-9822.18	1	12455.01	-52.05606	1.093197E-009	0.0099493	6
	37	53	198.6229	8427.25	-11982.49	1	14649.19	-54.8814	1.088153E-009	0.0099508	6
	38	54	158.3615	9382.2	-14415.07	1	17199.41	-56.94148	1.184449E-010	0.0099461	6
	39	56	125.558	10663.33	-17376.93	1	20387.85	-58.46469	8.943231E-010	0.009949	6
	40	57	100.4464	12286.21	-20668.43	1	24044.44	-59.27092	1.276379E-009	0.0099464	6
	41	59	79.00281	14389.46	-24833.6	1	28701.29	-59.91048	1.653933E-009	0.0099421	6
	42	60	63.3446	17004.36	-28682.15	1	33343.88	-59.3382	8.967544E-010	0.0099441	6
	43	61	49.86702	20653.02	-34558.79	1	40259.87	-59.13662	1.406507E-009	0.0099418	6
	44	63	39.72458	24397.8	-39815.09	1	46695.76	-58.50097	4.266962E-010	0.0099485	6
	45	64	31.6723	28763.92	-45533.41	1	53857.72	-57.71898	-1.834272E-010	0.0099458	6
	46	66	24.93351	34312.42	-52528.92	1	62742.57	-56.84703	7.189209E-010	0.0099447	6
	47	67	19.86229	39951.43	-59734.61	1	71863.35	-56.22478	9.276453E-011	0.0099508	6
	48	68	15.83615	44917.53	-67990.95	1	81488.37	-56.54966	2.332111E-009	0.0099486	6
	49	70	12.40079	51961.48	-78816.33	1	94403.44	-56.60421	1.029927E-009	0.0099506	6
	50	71	9.93114	58958.56	-89495.56	1	107170.7	-56.62361	4.591938E-010	0.009952	5
	51	73	7.944915	66026.39	-103251.5	1	122557.5	-57.40223	6.833032E-012	0.0099569	5
	52	74	6.317385	74031.72	-120424.8	1	141360.6	-58.41867	-1.02469E-010	0.0099498	5
	53	76	5.008013	83265.87	-141723.3	1	164373.7	-59.56473	-2.893985E-010	0.0099527	5
	54	79	3.945707	94600.05	-168319.2	1	193081.6	-60.6628	-1.939249E-010	0.0099528	5
	55	82	3.158693	107364.9	-198212.5	1	225422.7	-61.55711	3.477121E-011	0.00995	5
	56	85	2.504006	123286.8	-235519.2	1	265836.3	-62.36938	-2.213001E-010	0.0099597	5
	57	88	1.998082	142046.7	-278037.7	1	312221.4	-62.93797	1.292691E-010	0.0099153	5
	58	91	1.584686	165058.1	-330754.6	1	369652.2	-63.4792	-1.587133E-010	0.0099307	5
	59	94	1.266892	193137.3	-389487.6	1	434744.3	-63.62432	4.417141E-011	0.0099125	5
	60	99	0.999041	228139	-462917.5	1	516081.4	-63.76461	-1.195711E-010	0.0099857	5
