EXPLAIN
TAG	EISPOT
TITLE	LABEL	Potentiostatic EIS	Test &Identifier
DATE	LABEL	10/22/2019	Date
TIME	LABEL	8:47:16	Time
NOTES	NOTES	1	&Notes...
	
PSTAT	PSTAT	REF600-11020	Potentiostat
VDC	POTEN	0.00000E+000	T	DC &Voltage (V)
FREQINIT	QUANT	1.00000E+006	Initial Fre&q. (Hz)
FREQFINAL	QUANT	1.00000E+000	Final Fre&q. (Hz)
PTSPERDEC	QUANT	1.00000E+001	Points/&decade
VAC	QUANT	2.50000E+001	AC &Voltage (mV rms)
AREA	QUANT	1.00000E-002	&Area (cm^2)
CONDIT	TWOPARAM	T	5.00000E+000	0.00000E+000	Conditionin&g	Time(s)	E(V)
DELAY	TWOPARAM	T	5.00000E+000	0.00000E+000	Init. De&lay	Time(s)	Stab.(mV/s)
SPEED	SELECTOR	1	&Optimize for:
ZGUESS	QUANT	1.00000E+005	E&stimated Z (ohms)
OCVCURVE	TABLE	19
	Pt	T	Vf	Vm	Ach	Over
	#	s	V vs. Ref.	V	V	bits
	0	0.258333	8.99605E-003	8.99605E-003	5.53999E-004	...........
	1	0.516667	9.00515E-003	9.47258E-003	5.53699E-004	...........
	2	0.775	9.05304E-003	9.50474E-003	5.56733E-004	...........
	3	1.03333	9.16267E-003	9.57795E-003	5.54733E-004	...........
	4	1.29167	9.31189E-003	9.70665E-003	5.54299E-004	...........
	5	1.55	9.45656E-003	9.72226E-003	5.54599E-004	...........
	6	1.80833	9.57541E-003	9.89507E-003	5.55933E-004	...........
	7	2.06667	9.67673E-003	1.00962E-002	5.52733E-004	...........
	8	2.325	9.78360E-003	1.02283E-002	5.53566E-004	...........
	9	2.58333	9.91200E-003	1.03655E-002	5.56466E-004	...........
	10	2.84167	1.00574E-002	1.04971E-002	5.54933E-004	...........
	11	3.1	1.02065E-002	1.06569E-002	5.56266E-004	...........
	12	3.35833	1.03522E-002	1.07815E-002	5.57066E-004	...........
	13	3.61667	1.04945E-002	1.09049E-002	5.58566E-004	...........
	14	3.875	1.06329E-002	1.10251E-002	5.60066E-004	...........
	15	4.13333	1.07656E-002	1.11423E-002	5.58866E-004	...........
	16	4.39167	1.08923E-002	1.12572E-002	5.58099E-004	...........
	17	4.65	1.10139E-002	1.13735E-002	5.57766E-004	...........
	18	4.90833	1.11322E-002	1.14867E-002	5.55966E-004	...........
EOC	QUANT	0.0111322	Open Circuit (V)
PSTATMODEL	IQUANT	4	Pstat Model
PSTATSECTION	LABEL	REF600-11020	Pstat Section
PSTATSERIALNO	LABEL	11020	Pstat Serial Number
CTRLMODE	IQUANT	1	Control Mode
IESTAB	IQUANT	0	I/E Stability
CASPEED	IQUANT	1	Control Amp Speed
CONVENTION	IQUANT	1	Current Convention
ICHRANGE	IQUANT	2	Ich Range
ICHRANGEMODE	TOGGLE	F	Ich Auto Range
ICHOFFSETENABLE	TOGGLE	T	Ich Offset Enable
ICHOFFSET	QUANT	0	Ich Offset (V)
ICHFILTER	IQUANT	3	Ich Filter
VCHRANGE	IQUANT	2	Vch Range
VCHRANGEMODE	TOGGLE	F	Vch Auto Range
VCHOFFSETENABLE	TOGGLE	T	Vch Offset Enable
VCHOFFSET	QUANT	0	Vch Offset (V)
VCHFILTER	IQUANT	3	Vch Filter
ACHRANGE	IQUANT	2	Ach Range
ACHOFFSETENABLE	TOGGLE	F	Ach Offset Enable
ACHOFFSET	QUANT	0	Ach Offset (V)
ACHFILTER	IQUANT	3	Ach Filter
IERANGELOWERLIMIT	IQUANT	1	I/E Range Lower Limit
IERANGEMODE	TOGGLE	F	I/E AutoRange
IERANGE	IQUANT	5	I/E Range
POSFEEDENABLE	TOGGLE	F	Positive Feedback IR Comp
POSFEEDRESISTANCE	QUANT	0	Positive Feedback Resistance (ohm)
ACHSELECT	IQUANT	0	Ach Select
CABLEID	IQUANT	14	Cable ID
DCCALDATE	LABEL	8/19/2019	DC Calibration Date
ACCALDATE	LABEL	8/19/2019	AC Calibration Date
THERMOSELECT	IQUANT	1	Thermo Select
FRAMEWORKVERSION	QUANT	6.33	Framework Version
INSTRUMENTVERSION	LABEL	3.50	Instrument Version
ZCURVE	TABLE
	Pt	Time	Freq	Zreal	Zimag	Zsig	Zmod	Zphz	Idc	Vdc	IERange
	#	s	Hz	ohm	ohm	V	ohm	°	A	V	#
	0	1	1000078	2581.198	-1585.639	1	3029.329	-31.56256	7.017391E-006	0.0125276	8
	1	3	794390.6	2892.351	-1453.205	1	3236.897	-26.67634	-7.962835E-006	0.0144751	8
	2	4	630984.4	3112.192	-1341.951	1	3389.185	-23.3253	1.425407E-006	0.0130297	8
	3	6	501234.4	3334.291	-1167.406	1	3532.751	-19.29623	3.946416E-006	0.0121416	8
	4	7	398109.4	3487.939	-1015.841	1	3632.857	-16.23789	2.374959E-006	0.0122879	8
	5	8	316265.6	3593.18	-869.6324	1	3696.918	-13.60528	-4.401234E-006	0.0138392	8
	6	10	251203.1	3683.111	-742.8607	1	3757.279	-11.40322	-1.065105E-006	0.0130975	8
	7	11	199546.9	3768.695	-625.2454	1	3820.209	-9.419856	-2.035882E-006	0.013245	8
	8	13	158578.1	3785.09	-540.4696	1	3823.482	-8.126282	-2.748236E-006	0.0134061	8
	9	14	125953.1	3861.378	-427.0979	1	3884.927	-6.311695	-4.372831E-007	0.0139369	7
	10	15	100078.1	3889.037	-386.8234	1	3908.227	-5.680248	7.766604E-008	0.0126278	7
	11	17	79453.13	3917.176	-359.1044	1	3933.602	-5.237911	-5.680694E-008	0.0129592	7
	12	18	63140.62	3946.185	-342.4869	1	3961.019	-4.960236	-1.591858E-008	0.0127557	7
	13	20	50203.12	3974.043	-332.5905	1	3987.937	-4.783976	-5.7904E-008	0.0129562	7
	14	21	39890.62	3999.905	-330.604	1	4013.545	-4.724926	-1.298849E-008	0.0129214	7
	15	22	31640.63	4029.473	-337.603	1	4043.591	-4.78925	-1.836951E-009	0.0127923	7
	16	24	25171.88	4057.213	-352.0086	1	4072.455	-4.958632	-4.62102E-008	0.0128135	7
	17	25	20015.62	4081.2	-374.3473	1	4098.333	-5.240779	-3.348816E-008	0.0128089	7
	18	26	15890.62	4115.32	-407.8149	1	4135.477	-5.65935	-4.156114E-008	0.0128598	7
	19	28	12609.37	4147.547	-453.9931	1	4172.32	-6.246763	8.530026E-009	0.0127117	7
	20	29	10078.13	4172.054	-510.6463	1	4203.189	-6.978115	4.036878E-008	0.012647	7
	21	30	8015.625	4209.96	-590.7147	1	4251.201	-7.987233	-4.660871E-008	0.0128058	7
	22	32	6328.125	4247.09	-678.4252	1	4300.934	-9.075686	-1.341979E-008	0.0129142	7
	23	33	5015.625	4287.219	-796.7887	1	4360.633	-10.52842	-1.283534E-008	0.0127445	7
	24	35	3984.375	4331.599	-943.3945	1	4433.141	-12.28678	-3.959522E-008	0.0128587	7
	25	36	3170.956	4381.508	-1127.013	1	4524.132	-14.42493	-1.688548E-009	0.0127812	7
	26	37	2527.573	4439.844	-1347.705	1	4639.884	-16.88555	-3.196141E-008	0.01279	7
	27	39	1976.103	4512.255	-1645.979	1	4803.092	-20.04094	-5.536771E-008	0.0129449	7
	28	40	1577.524	4612.028	-1993.66	1	5024.488	-23.37758	3.888107E-008	0.0126422	7
	29	41	1265.625	4690.625	-2378.215	1	5259.075	-26.88566	-1.192897E-008	0.0127427	7
	30	43	998.264	4812.355	-2901.976	1	5619.629	-31.09107	8.842793E-008	0.0127174	7
	31	44	796.875	4949.178	-3506.968	1	6065.738	-35.32124	4.05891E-008	0.0127343	7
	32	46	627.7902	5119.574	-4288.412	1	6678.362	-39.95123	-3.652122E-008	0.0127954	7
	33	47	505.5147	5298.583	-5157.644	1	7394.341	-44.22776	8.764786E-008	0.0127174	7
	34	48	397.9953	5536.378	-6338.356	1	8415.833	-48.86369	5.594382E-009	0.0127938	7
	35	50	315.5048	5809.272	-7753.862	1	9688.65	-53.15908	5.431772E-009	0.0127949	7
	36	51	252.4038	6132.025	-9426.301	1	11245.3	-56.95507	1.153745E-009	0.0127308	6
	37	52	198.6229	6555.436	-11644.57	1	13363	-60.6222	1.118037E-009	0.012733	6
	38	54	158.3615	7063.529	-14235.31	1	15891.43	-63.6095	1.340692E-009	0.0127273	6
	39	55	125.558	7726.701	-17494.07	1	19124.45	-66.17014	9.840985E-010	0.0127293	6
	40	57	100.4464	8538.477	-21324.51	1	22970.43	-68.17851	1.610578E-009	0.0127348	6
	41	58	79.00281	9700.48	-26340.81	1	28070.22	-69.78287	9.233728E-010	0.0127318	6
	42	59	63.3446	11353.67	-32180.2	1	34124.35	-70.56637	2.47608E-010	0.0127274	6
	43	61	49.86702	12931.58	-39591.44	1	41649.82	-71.91164	5.14988E-010	0.0127253	6
	44	62	39.72458	15608.69	-48168.79	1	50634.61	-72.04552	3.135941E-010	0.0127278	6
	45	64	31.6723	18861.34	-58510.44	1	61475.37	-72.13283	3.211024E-010	0.0127309	6
	46	65	24.93351	23275.5	-71332.88	1	75034.19	-71.9288	3.854503E-010	0.0127257	6
	47	66	19.86229	28792.81	-86110.79	1	90796.99	-71.51164	7.326105E-010	0.0127359	6
	48	68	15.83615	35017.82	-103096.2	1	108881	-71.23934	-8.721582E-010	0.0127298	5
	49	69	12.40079	45022.64	-125793	1	133607.3	-70.30718	8.273039E-011	0.0127247	5
	50	71	9.93114	56988.16	-148823.9	1	159361.8	-69.04698	4.711338E-011	0.0127305	5
	51	72	7.944915	70787.53	-176595.8	1	190255	-68.15687	5.711323E-010	0.0127252	5
	52	74	6.317385	89446.67	-207696.2	1	226138	-66.70033	5.122676E-010	0.0127195	5
	53	76	5.008013	112127.4	-244866.5	1	269317.9	-65.39637	-1.765324E-010	0.0127274	5
	54	78	3.945707	140658.3	-287733.5	1	320273.8	-63.94835	3.649537E-010	0.0127378	5
	55	81	3.158693	173247.3	-332210.7	1	374671.2	-62.45804	-5.248784E-011	0.0127395	5
	56	84	2.504006	212264.5	-384021	1	438780.5	-61.06873	1.912055E-010	0.0127228	5
	57	87	1.998082	256274.4	-439684.4	1	508919.3	-59.76381	-2.862653E-010	0.0127402	5
	58	90	1.584686	309720.4	-501998.4	1	589855.2	-58.32646	3.632276E-011	0.0127778	5
	59	94	1.266892	365094.3	-569661.1	1	676614.8	-57.3443	-2.784789E-010	0.0127147	5
	60	98	0.999041	433039.4	-648805.3	1	780045.8	-56.27922	1.627804E-010	0.0127711	5
