EXPLAIN
TAG	EISPOT
TITLE	LABEL	Potentiostatic EIS	Test &Identifier
DATE	LABEL	10/14/2019	Date
TIME	LABEL	10:19:16	Time
NOTES	NOTES	1	&Notes...
	
PSTAT	PSTAT	REF600-11020	Potentiostat
VDC	POTEN	0.00000E+000	T	DC &Voltage (V)
FREQINIT	QUANT	1.00000E+006	Initial Fre&q. (Hz)
FREQFINAL	QUANT	1.00000E+000	Final Fre&q. (Hz)
PTSPERDEC	QUANT	1.00000E+001	Points/&decade
VAC	QUANT	2.50000E+001	AC &Voltage (mV rms)
AREA	QUANT	1.00000E-002	&Area (cm^2)
CONDIT	TWOPARAM	T	5.00000E+000	0.00000E+000	Conditionin&g	Time(s)	E(V)
DELAY	TWOPARAM	T	5.00000E+000	0.00000E+000	Init. De&lay	Time(s)	Stab.(mV/s)
SPEED	SELECTOR	1	&Optimize for:
ZGUESS	QUANT	1.00000E+004	E&stimated Z (ohms)
OCVCURVE	TABLE	19
	Pt	T	Vf	Vm	Ach	Over
	#	s	V vs. Ref.	V	V	bits
	0	0.258333	6.61057E-003	6.61057E-003	5.78966E-004	...........
	1	0.516667	6.60812E-003	6.48275E-003	5.81965E-004	...........
	2	0.775	6.59416E-003	6.41571E-003	5.79465E-004	...........
	3	1.03333	6.54978E-003	5.91519E-003	5.83965E-004	...........
	4	1.29167	6.43149E-003	4.95510E-003	5.76066E-004	...........
	5	1.55	6.16502E-003	4.23820E-003	5.76066E-004	...........
	6	1.80833	5.72422E-003	4.84587E-003	5.77632E-004	...........
	7	2.06667	5.23173E-003	4.72507E-003	5.77799E-004	...........
	8	2.325	4.87291E-003	4.60766E-003	5.75265E-004	...........
	9	2.58333	4.70357E-003	4.55991E-003	5.75199E-004	...........
	10	2.84167	4.64307E-003	4.52553E-003	5.74432E-004	...........
	11	3.1	4.60811E-003	4.45799E-003	5.78299E-004	...........
	12	3.35833	4.56670E-003	4.34586E-003	5.82099E-004	...........
	13	3.61667	4.51361E-003	4.36068E-003	5.82832E-004	...........
	14	3.875	4.45629E-003	4.42988E-003	5.78999E-004	...........
	15	4.13333	4.40267E-003	3.87984E-003	5.82265E-004	...........
	16	4.39167	4.31610E-003	3.01768E-003	5.80732E-004	...........
	17	4.65	4.12722E-003	3.62820E-003	5.76966E-004	...........
	18	4.90833	3.85552E-003	3.52989E-003	5.78566E-004	...........
EOC	QUANT	0.0038555	Open Circuit (V)
PSTATMODEL	IQUANT	4	Pstat Model
PSTATSECTION	LABEL	REF600-11020	Pstat Section
PSTATSERIALNO	LABEL	11020	Pstat Serial Number
CTRLMODE	IQUANT	1	Control Mode
IESTAB	IQUANT	0	I/E Stability
CASPEED	IQUANT	1	Control Amp Speed
CONVENTION	IQUANT	1	Current Convention
ICHRANGE	IQUANT	2	Ich Range
ICHRANGEMODE	TOGGLE	F	Ich Auto Range
ICHOFFSETENABLE	TOGGLE	T	Ich Offset Enable
ICHOFFSET	QUANT	0	Ich Offset (V)
ICHFILTER	IQUANT	3	Ich Filter
VCHRANGE	IQUANT	2	Vch Range
VCHRANGEMODE	TOGGLE	F	Vch Auto Range
VCHOFFSETENABLE	TOGGLE	T	Vch Offset Enable
VCHOFFSET	QUANT	0	Vch Offset (V)
VCHFILTER	IQUANT	3	Vch Filter
ACHRANGE	IQUANT	2	Ach Range
ACHOFFSETENABLE	TOGGLE	F	Ach Offset Enable
ACHOFFSET	QUANT	0	Ach Offset (V)
ACHFILTER	IQUANT	3	Ach Filter
IERANGELOWERLIMIT	IQUANT	1	I/E Range Lower Limit
IERANGEMODE	TOGGLE	F	I/E AutoRange
IERANGE	IQUANT	5	I/E Range
POSFEEDENABLE	TOGGLE	F	Positive Feedback IR Comp
POSFEEDRESISTANCE	QUANT	0	Positive Feedback Resistance (ohm)
ACHSELECT	IQUANT	0	Ach Select
CABLEID	IQUANT	14	Cable ID
DCCALDATE	LABEL	8/19/2019	DC Calibration Date
ACCALDATE	LABEL	8/19/2019	AC Calibration Date
THERMOSELECT	IQUANT	1	Thermo Select
FRAMEWORKVERSION	QUANT	6.33	Framework Version
INSTRUMENTVERSION	LABEL	3.50	Instrument Version
ZCURVE	TABLE
	Pt	Time	Freq	Zreal	Zimag	Zsig	Zmod	Zphz	Idc	Vdc	IERange
	#	s	Hz	ohm	ohm	V	ohm	°	A	V	#
	0	2	1000078	2227.355	-1571.101	1	2725.705	-35.19785	7.367832E-006	0.0045023	8
	1	3	794390.6	2551.647	-1532.424	1	2976.446	-30.98746	2.455693E-006	0.0047293	8
	2	4	630984.4	2830.048	-1427.435	1	3169.659	-26.76571	-1.992052E-007	0.0054711	8
	3	6	501234.4	3062.979	-1304.183	1	3329.073	-23.06377	-8.904545E-007	0.0057209	8
	4	7	398109.4	3255.924	-1162.862	1	3457.353	-19.65433	-2.954704E-007	0.0053013	8
	5	8	316265.6	3416.852	-1031.395	1	3569.125	-16.79672	1.784423E-006	0.0049565	8
	6	10	251203.1	3537.979	-895.52	1	3649.555	-14.20416	5.393392E-007	0.0051122	8
	7	11	199546.9	3624.656	-800.0958	1	3711.911	-12.44769	1.56886E-006	0.0049896	8
	8	13	158578.1	3701.537	-722.7823	1	3771.444	-11.04886	7.320591E-007	0.0052793	8
	9	14	125953.1	3804.097	-628.5952	1	3855.682	-9.382862	4.493486E-007	0.0043418	7
	10	15	100078.1	3825.731	-573.4333	1	3868.468	-8.52452	5.605686E-008	0.0051947	7
	11	17	79453.13	3873.631	-556.4491	1	3913.394	-8.174645	-3.640108E-008	0.0052832	7
	12	18	63140.62	3920.737	-553.7075	1	3959.642	-8.038458	-2.746547E-008	0.0052787	7
	13	19	50203.12	3970.829	-563.6245	1	4010.63	-8.07867	-5.078025E-009	0.0052548	7
	14	21	39890.62	4022.347	-586.9943	1	4064.953	-8.302752	5.807276E-008	0.0051858	7
	15	22	31640.63	4078.81	-625.5944	1	4126.506	-8.719886	4.185333E-008	0.0051494	7
	16	24	25171.88	4139.623	-675.9339	1	4194.445	-9.273641	9.414171E-008	0.0051994	7
	17	25	20015.62	4205.971	-732.4612	1	4269.273	-9.87887	1.149758E-007	0.0051078	7
	18	26	15890.62	4283.261	-820.8168	1	4361.2	-10.84828	-4.105016E-008	0.0053732	7
	19	28	12609.37	4368.643	-916.403	1	4463.724	-11.84707	-1.459654E-008	0.005243	7
	20	29	10078.13	4461.672	-1029.615	1	4578.933	-12.9946	5.886972E-008	0.0051764	7
	21	30	8015.625	4556.534	-1168.66	1	4704.017	-14.38515	4.399584E-008	0.0052157	7
	22	32	6328.125	4695.379	-1322.243	1	4878.002	-15.72749	-3.627821E-009	0.0052671	7
	23	33	5015.625	4834.466	-1504.897	1	5063.278	-17.29059	7.859272E-008	0.005111	7
	24	34	3984.375	4980.159	-1717.769	1	5268.084	-19.03047	-5.88356E-010	0.0052395	7
	25	36	3170.956	5168.285	-1959.795	1	5527.383	-20.76655	-5.058581E-008	0.0053294	7
	26	37	2527.573	5363.57	-2242.841	1	5813.624	-22.69283	1.470433E-008	0.0053482	7
	27	38	1976.103	5609.146	-2595.831	1	6180.684	-24.83401	1.184458E-008	0.0051978	7
	28	40	1577.524	5866.287	-2945.597	1	6564.287	-26.66227	-6.526142E-008	0.0053558	7
	29	41	1265.625	6143.108	-3388.588	1	7015.718	-28.88148	3.714613E-008	0.0051453	7
	30	43	998.264	6476.23	-3914.802	1	7567.511	-31.15245	-1.706269E-008	0.0052464	7
	31	44	796.875	6830.864	-4493.345	1	8176.237	-33.33693	-4.141378E-009	0.0052709	7
	32	45	627.7902	7226.727	-5202.012	1	8904.298	-35.74746	-1.980541E-008	0.0053075	7
	33	47	505.5147	7604.055	-5964.217	1	9664.03	-38.10875	6.49082E-010	0.0052436	6
	34	48	397.9953	8029.209	-6978.786	1	10638.22	-40.99634	1.004185E-009	0.0052179	6
	35	49	315.5048	8449.702	-8199.316	1	11773.96	-44.13839	1.258817E-010	0.0052183	6
	36	51	252.4038	8860.689	-9653.87	1	13103.78	-47.45311	1.04829E-009	0.005212	6
	37	52	198.6229	9331.969	-11611.95	1	14897.08	-51.21283	7.105735E-010	0.0052134	6
	38	53	158.3615	9824.33	-13938.77	1	17053.06	-54.82302	2.354526E-012	0.0052174	6
	39	55	125.558	10404.25	-16923.99	1	19866.3	-58.41834	2.668177E-010	0.0052175	6
	40	56	100.4464	11054.57	-20479.6	1	23272.67	-61.64052	1.251189E-010	0.0052146	6
	41	57	79.00281	12016	-25282.74	1	27992.88	-64.57989	1.213778E-009	0.0052114	6
	42	59	63.3446	13191.75	-30449.25	1	33184.02	-66.57594	8.96756E-010	0.0052101	6
	43	60	49.86702	14614.17	-38139.73	1	40843.76	-69.03445	1.274848E-009	0.0052122	6
	44	62	39.72458	16332.51	-46453.58	1	49241.1	-70.62894	5.91758E-010	0.005218	6
	45	63	31.6723	18725.79	-56522.54	1	59543.71	-71.67008	8.388017E-010	0.0052098	6
	46	64	24.93351	22053.99	-69874.05	1	73271.84	-72.48301	3.787611E-010	0.00521	6
	47	66	19.86229	26151.17	-85300.63	1	89219.28	-72.95569	8.93374E-010	0.0052137	6
	48	67	15.83615	31924.37	-103164.9	1	107991.5	-72.80532	1.469022E-010	0.0052131	5
	49	68	12.40079	39498	-128225.6	1	134171.1	-72.87933	-6.897207E-010	0.0052206	5
	50	70	9.93114	48122.61	-153153.4	1	160535.9	-72.55666	2.651172E-010	0.0052191	5
	51	71	7.944915	59267.5	-184535.2	1	193819.2	-72.19445	3.050678E-011	0.005222	5
	52	73	6.317385	74430.65	-220936.7	1	233137.2	-71.38201	1.857657E-010	0.005227	5
	53	75	5.008013	93260.44	-265152.5	1	281075.3	-70.62201	1.69297E-010	0.0052206	5
	54	78	3.945707	117354.4	-318641.1	1	339564.7	-69.78142	-3.457801E-011	0.0052067	5
	55	80	3.158693	144235.2	-376660.1	1	403331.9	-69.04655	1.803628E-010	0.0052318	5
	56	84	2.504006	179714.1	-447892.4	1	482602.1	-68.13717	-4.03101E-011	0.0052153	5
	57	86	1.998082	220880.7	-527209.3	1	571609.9	-67.26817	2.432363E-010	0.005168	5
	58	89	1.584686	269674.8	-620904.2	1	676939.1	-66.52345	1.033621E-010	0.0052133	5
	59	93	1.266892	328870	-727567.4	1	798442.1	-65.67641	1.149847E-010	0.0051717	5
	60	97	0.999041	402397.7	-857921.9	1	947604.3	-64.87165	7.576979E-011	0.0052515	5
