EXPLAIN
TAG	EISPOT
TITLE	LABEL	Potentiostatic EIS	Test &Identifier
DATE	LABEL	9/24/2019	Date
TIME	LABEL	10:04:57	Time
NOTES	NOTES	1	&Notes...
	
PSTAT	PSTAT	REF600-11020	Potentiostat
VDC	POTEN	0.00000E+000	T	DC &Voltage (V)
FREQINIT	QUANT	1.00000E+006	Initial Fre&q. (Hz)
FREQFINAL	QUANT	1.00000E+000	Final Fre&q. (Hz)
PTSPERDEC	QUANT	1.00000E+001	Points/&decade
VAC	QUANT	2.50000E+001	AC &Voltage (mV rms)
AREA	QUANT	1.00000E-002	&Area (cm^2)
CONDIT	TWOPARAM	T	5.00000E+000	0.00000E+000	Conditionin&g	Time(s)	E(V)
DELAY	TWOPARAM	T	5.00000E+000	0.00000E+000	Init. De&lay	Time(s)	Stab.(mV/s)
SPEED	SELECTOR	1	&Optimize for:
ZGUESS	QUANT	1.00000E+004	E&stimated Z (ohms)
OCVCURVE	TABLE	19
	Pt	T	Vf	Vm	Ach	Over
	#	s	V vs. Ref.	V	V	bits
	0	0.258333	2.66426E-003	2.66426E-003	5.68666E-004	...........
	1	0.516667	2.65744E-003	2.30720E-003	5.71099E-004	...........
	2	0.775	2.61572E-003	1.97764E-003	5.68732E-004	...........
	3	1.03333	2.49856E-003	1.67595E-003	5.70499E-004	...........
	4	1.29167	2.29139E-003	1.39438E-003	5.63866E-004	...........
	5	1.55	2.02041E-003	1.12481E-003	5.73232E-004	...........
	6	1.80833	1.72570E-003	8.70249E-004	5.70399E-004	...........
	7	2.06667	1.43489E-003	6.26327E-004	5.73999E-004	...........
	8	2.325	1.15883E-003	3.87371E-004	5.70432E-004	...........
	9	2.58333	8.96815E-004	8.79942E-005	5.74165E-004	...........
	10	2.84167	6.41584E-004	-1.38812E-004	5.68766E-004	...........
	11	3.1	3.89016E-004	-2.59407E-004	5.64366E-004	...........
	12	3.35833	1.47973E-004	-4.48096E-004	5.68566E-004	...........
	13	3.61667	-6.86440E-005	-6.28147E-004	5.72466E-004	...........
	14	3.875	-2.61091E-004	-8.13691E-004	5.68732E-004	...........
	15	4.13333	-4.41005E-004	-9.83835E-004	5.65832E-004	...........
	16	4.39167	-6.17888E-004	-1.15950E-003	5.69599E-004	...........
	17	4.65	-7.94409E-004	-1.33003E-003	5.66366E-004	...........
	18	4.90833	-9.69796E-004	-1.49212E-003	5.68366E-004	...........
EOC	QUANT	-0.0009698	Open Circuit (V)
PSTATMODEL	IQUANT	4	Pstat Model
PSTATSECTION	LABEL	REF600-11020	Pstat Section
PSTATSERIALNO	LABEL	11020	Pstat Serial Number
CTRLMODE	IQUANT	1	Control Mode
IESTAB	IQUANT	0	I/E Stability
CASPEED	IQUANT	1	Control Amp Speed
CONVENTION	IQUANT	1	Current Convention
ICHRANGE	IQUANT	2	Ich Range
ICHRANGEMODE	TOGGLE	F	Ich Auto Range
ICHOFFSETENABLE	TOGGLE	T	Ich Offset Enable
ICHOFFSET	QUANT	0	Ich Offset (V)
ICHFILTER	IQUANT	3	Ich Filter
VCHRANGE	IQUANT	2	Vch Range
VCHRANGEMODE	TOGGLE	F	Vch Auto Range
VCHOFFSETENABLE	TOGGLE	T	Vch Offset Enable
VCHOFFSET	QUANT	0	Vch Offset (V)
VCHFILTER	IQUANT	3	Vch Filter
ACHRANGE	IQUANT	2	Ach Range
ACHOFFSETENABLE	TOGGLE	F	Ach Offset Enable
ACHOFFSET	QUANT	0	Ach Offset (V)
ACHFILTER	IQUANT	3	Ach Filter
IERANGELOWERLIMIT	IQUANT	1	I/E Range Lower Limit
IERANGEMODE	TOGGLE	F	I/E AutoRange
IERANGE	IQUANT	5	I/E Range
POSFEEDENABLE	TOGGLE	F	Positive Feedback IR Comp
POSFEEDRESISTANCE	QUANT	0	Positive Feedback Resistance (ohm)
ACHSELECT	IQUANT	0	Ach Select
CABLEID	IQUANT	14	Cable ID
DCCALDATE	LABEL	8/19/2019	DC Calibration Date
ACCALDATE	LABEL	8/19/2019	AC Calibration Date
THERMOSELECT	IQUANT	1	Thermo Select
FRAMEWORKVERSION	QUANT	6.33	Framework Version
INSTRUMENTVERSION	LABEL	3.50	Instrument Version
ZCURVE	TABLE
	Pt	Time	Freq	Zreal	Zimag	Zsig	Zmod	Zphz	Idc	Vdc	IERange
	#	s	Hz	ohm	ohm	V	ohm	°	A	V	#
	0	1	1000078	2242.573	-1966.157	1	2982.434	-41.24239	-4.817858E-006	0.0019565	8
	1	2	794390.6	2667.969	-1967.666	1	3315.082	-36.40932	1.888651E-006	0.0008626	8
	2	3	630984.4	3056.009	-1874.896	1	3585.306	-31.52959	4.872558E-007	0.0004924	8
	3	5	501234.4	3405.017	-1757.855	1	3831.996	-27.30524	9.842436E-007	0.000489	8
	4	6	398109.4	3710.214	-1567.632	1	4027.798	-22.90493	4.068502E-007	0.000522	8
	5	7	316265.6	3930.959	-1408.643	1	4175.729	-19.71493	-6.142564E-007	0.000662	8
	6	9	251203.1	4127.982	-1202.05	1	4299.438	-16.23533	6.207313E-008	0.0003937	8
	7	10	199546.9	4259.784	-1059.557	1	4389.581	-13.96801	4.9426E-007	0.0004883	8
	8	11	158578.1	4344.83	-931.9949	1	4443.665	-12.10686	1.994944E-007	0.0007246	8
	9	13	125953.1	4477.402	-775.1149	1	4544	-9.82154	-7.485095E-007	0.0015294	7
	10	14	100078.1	4528.24	-690.2087	1	4580.54	-8.666499	-4.831363E-008	0.0007176	7
	11	16	79453.13	4585.917	-635.7002	1	4629.768	-7.892051	8.402625E-008	0.0004825	7
	12	17	63140.62	4636.43	-597.0609	1	4674.716	-7.337936	4.20565E-008	0.0004017	7
	13	18	50203.12	4683.664	-574.6418	1	4718.784	-6.9947	1.177371E-007	0.0003644	7
	14	20	39890.62	4731.185	-565.9122	1	4764.91	-6.820926	8.758856E-010	0.0005669	7
	15	21	31640.63	4778.784	-573.0281	1	4813.017	-6.837739	1.174043E-007	0.0003699	7
	16	22	25171.88	4826.813	-593.6556	1	4863.184	-7.011664	4.48772E-008	0.000477	7
	17	24	20015.62	4877.906	-630.3115	1	4918.461	-7.362826	8.498735E-008	0.0004711	7
	18	25	15890.62	4931.021	-682.6523	1	4978.049	-7.881949	-5.230637E-008	0.0005887	7
	19	26	12609.37	4990.566	-746.6594	1	5046.112	-8.509144	-5.311428E-008	0.0005865	7
	20	28	10078.13	5047.786	-832.4493	1	5115.967	-9.364574	-3.185513E-008	0.0006186	7
	21	29	8015.625	5114.59	-938.5909	1	5199.999	-10.39878	6.853823E-008	0.000424	7
	22	31	6328.125	5189.699	-1075.477	1	5299.965	-11.70785	1.21915E-008	0.000478	7
	23	32	5015.625	5270.006	-1243.51	1	5414.728	-13.27666	-2.942981E-008	0.0005907	7
	24	33	3984.375	5360.565	-1446.814	1	5552.38	-15.10421	1.226806E-008	0.0006261	7
	25	35	3170.956	5454.734	-1692.457	1	5711.264	-17.23771	-3.576035E-008	0.0005385	7
	26	36	2527.573	5564	-1989.933	1	5909.14	-19.6793	-3.592444E-008	0.0005455	7
	27	37	1976.103	5694.472	-2388.694	1	6175.182	-22.75688	-3.730995E-008	0.00054	7
	28	39	1577.524	5833.039	-2836.905	1	6486.322	-25.93602	-4.58422E-008	0.0007012	7
	29	40	1265.625	6018.898	-3356.699	1	6891.63	-29.14812	-3.542736E-008	0.0005427	7
	30	41	998.264	6188.442	-4056.392	1	7399.401	-33.24398	-4.231178E-008	0.0005862	7
	31	43	796.875	6406.824	-4863.698	1	8043.814	-37.20371	-3.540267E-008	0.0005428	7
	32	44	627.7902	6675.073	-5901.523	1	8909.802	-41.48034	-5.465633E-008	0.0005831	7
	33	46	505.5147	6970.066	-7052.659	1	9915.74	-45.33746	-2.913715E-009	0.0004385	6
	34	47	397.9953	7343.035	-8598.887	1	11307.56	-49.50427	5.353795E-010	0.0004927	6
	35	48	315.5048	7775.585	-10449.21	1	13024.82	-53.34592	1.944878E-009	0.0004887	6
	36	50	252.4038	8275.647	-12621	1	15092.25	-56.74696	1.9744E-009	0.0004878	6
	37	51	198.6229	8926.723	-15486.55	1	17875.11	-60.04009	1.496991E-009	0.0004906	6
	38	52	158.3615	9686.61	-18816.16	1	21163.13	-62.76046	1.740954E-009	0.0004918	6
	39	54	125.558	10650.81	-22993.04	1	25340.08	-65.14552	1.294881E-009	0.0004826	6
	40	55	100.4464	11795.96	-27907.73	1	30298.28	-67.08733	9.046577E-010	0.0004838	6
	41	56	79.00281	13426.25	-34438.9	1	36963.53	-68.70132	2.769347E-010	0.0004785	6
	42	58	63.3446	15459.09	-42136.75	1	44883.06	-69.85297	6.87041E-010	0.0004843	6
	43	59	49.86702	17884.42	-50918.4	1	53967.92	-70.64684	1.996817E-009	0.0004825	6
	44	61	39.72458	21767.54	-62110.68	1	65814.6	-70.68629	1.361579E-009	0.0004841	6
	45	62	31.6723	26733.43	-75334.97	1	79937.69	-70.46222	7.381637E-010	0.0004834	6
	46	63	24.93351	33171.6	-91822.79	1	97630.8	-70.13741	1.266313E-009	0.0004795	6
	47	65	19.86229	41548.93	-110424.8	1	117982.9	-69.38047	2.236629E-010	0.0004812	5
	48	66	15.83615	51580.11	-130688.9	1	140499.5	-68.46191	1.037716E-010	0.0004879	5
	49	67	12.40079	66954.41	-157243.5	1	170904.7	-66.93565	1.087479E-009	0.0004924	5
	50	69	9.93114	86791.98	-185503	1	204802.9	-64.92635	9.179936E-010	0.0004906	5
	51	70	7.944915	110959.3	-214328.3	1	241347.5	-62.62907	9.842612E-010	0.0004898	5
	52	72	6.317385	137843.8	-247369.8	1	283183.2	-60.8718	1.348325E-010	0.0004989	5
	53	74	5.008013	172272.8	-282024.4	1	330477.9	-58.5816	3.35209E-010	0.0004816	5
	54	77	3.945707	211710.3	-318107.1	1	382116.9	-56.35498	6.835038E-010	0.0004914	5
	55	79	3.158693	252654.2	-353567.9	1	434562.3	-54.45098	2.237015E-010	0.0004827	5
	56	83	2.504006	298190.5	-392345.4	1	492800.6	-52.76442	8.565866E-010	0.0004843	5
	57	85	1.998082	343439.8	-432792.4	1	552503.5	-51.56645	4.031383E-010	0.000538	5
	58	89	1.584686	388938.6	-479863.9	1	617691.4	-50.97459	5.471858E-010	0.0004744	5
	59	92	1.266892	437754.6	-535426.4	1	691600	-50.73122	4.617041E-010	0.0005233	5
	60	96	0.999041	489638.6	-604569.1	1	777978	-50.9961	2.595002E-010	0.0004456	5
