EXPLAIN
TAG	EISPOT
TITLE	LABEL	Potentiostatic EIS	Test &Identifier
DATE	LABEL	9/26/2019	Date
TIME	LABEL	8:58:48	Time
NOTES	NOTES	2	&Notes...
	
	
PSTAT	PSTAT	REF600-11020	Potentiostat
VDC	POTEN	0.00000E+000	T	DC &Voltage (V)
FREQINIT	QUANT	1.00000E+006	Initial Fre&q. (Hz)
FREQFINAL	QUANT	1.00000E+000	Final Fre&q. (Hz)
PTSPERDEC	QUANT	1.00000E+001	Points/&decade
VAC	QUANT	2.50000E+001	AC &Voltage (mV rms)
AREA	QUANT	1.00000E-002	&Area (cm^2)
CONDIT	TWOPARAM	T	5.00000E+000	0.00000E+000	Conditionin&g	Time(s)	E(V)
DELAY	TWOPARAM	T	5.00000E+000	0.00000E+000	Init. De&lay	Time(s)	Stab.(mV/s)
SPEED	SELECTOR	1	&Optimize for:
ZGUESS	QUANT	1.00000E+004	E&stimated Z (ohms)
OCVCURVE	TABLE	19
	Pt	T	Vf	Vm	Ach	Over
	#	s	V vs. Ref.	V	V	bits
	0	0.258333	2.77696E-002	2.77696E-002	5.72299E-004	...........
	1	0.516667	2.78059E-002	2.96674E-002	5.68066E-004	...........
	2	0.775	2.80270E-002	3.13910E-002	5.65832E-004	...........
	3	1.03333	2.86472E-002	3.30035E-002	5.63866E-004	...........
	4	1.29167	2.97436E-002	3.45315E-002	5.65632E-004	...........
	5	1.55	3.11813E-002	3.59661E-002	5.64732E-004	...........
	6	1.80833	3.27507E-002	3.73056E-002	5.70532E-004	...........
	7	2.06667	3.43021E-002	3.85669E-002	5.69399E-004	...........
	8	2.325	3.57690E-002	3.97647E-002	5.76799E-004	...........
	9	2.58333	3.71385E-002	4.08906E-002	5.71132E-004	...........
	10	2.84167	3.84194E-002	4.19645E-002	5.72599E-004	...........
	11	3.1	3.96240E-002	4.29745E-002	5.68699E-004	...........
	12	3.35833	4.07615E-002	4.39345E-002	5.73132E-004	...........
	13	3.61667	4.18378E-002	4.48375E-002	5.64732E-004	...........
	14	3.875	4.28566E-002	4.57059E-002	5.66366E-004	...........
	15	4.13333	4.38216E-002	4.65244E-002	5.66466E-004	...........
	16	4.39167	4.47368E-002	4.73102E-002	5.68366E-004	...........
	17	4.65	4.56062E-002	4.80506E-002	5.68732E-004	...........
	18	4.90833	4.64329E-002	4.87603E-002	5.67532E-004	...........
EOC	QUANT	0.0464329	Open Circuit (V)
PSTATMODEL	IQUANT	4	Pstat Model
PSTATSECTION	LABEL	REF600-11020	Pstat Section
PSTATSERIALNO	LABEL	11020	Pstat Serial Number
CTRLMODE	IQUANT	1	Control Mode
IESTAB	IQUANT	0	I/E Stability
CASPEED	IQUANT	1	Control Amp Speed
CONVENTION	IQUANT	1	Current Convention
ICHRANGE	IQUANT	2	Ich Range
ICHRANGEMODE	TOGGLE	F	Ich Auto Range
ICHOFFSETENABLE	TOGGLE	T	Ich Offset Enable
ICHOFFSET	QUANT	0	Ich Offset (V)
ICHFILTER	IQUANT	3	Ich Filter
VCHRANGE	IQUANT	2	Vch Range
VCHRANGEMODE	TOGGLE	F	Vch Auto Range
VCHOFFSETENABLE	TOGGLE	T	Vch Offset Enable
VCHOFFSET	QUANT	0	Vch Offset (V)
VCHFILTER	IQUANT	3	Vch Filter
ACHRANGE	IQUANT	2	Ach Range
ACHOFFSETENABLE	TOGGLE	F	Ach Offset Enable
ACHOFFSET	QUANT	0	Ach Offset (V)
ACHFILTER	IQUANT	3	Ach Filter
IERANGELOWERLIMIT	IQUANT	1	I/E Range Lower Limit
IERANGEMODE	TOGGLE	F	I/E AutoRange
IERANGE	IQUANT	6	I/E Range
POSFEEDENABLE	TOGGLE	F	Positive Feedback IR Comp
POSFEEDRESISTANCE	QUANT	0	Positive Feedback Resistance (ohm)
ACHSELECT	IQUANT	0	Ach Select
CABLEID	IQUANT	14	Cable ID
DCCALDATE	LABEL	8/19/2019	DC Calibration Date
ACCALDATE	LABEL	8/19/2019	AC Calibration Date
THERMOSELECT	IQUANT	1	Thermo Select
FRAMEWORKVERSION	QUANT	6.33	Framework Version
INSTRUMENTVERSION	LABEL	3.50	Instrument Version
ZCURVE	TABLE
	Pt	Time	Freq	Zreal	Zimag	Zsig	Zmod	Zphz	Idc	Vdc	IERange
	#	s	Hz	ohm	ohm	V	ohm	°	A	V	#
	0	2	1000078	2154.134	-1851.074	1	2840.206	-40.67287	2.501836E-007	0.0488915	8
	1	3	794390.6	2504.712	-1890.822	1	3138.278	-37.04937	1.451697E-006	0.0481574	8
	2	4	630984.4	2853.546	-1913.541	1	3435.748	-33.84516	-3.7716E-006	0.0487996	8
	3	6	501234.4	3222	-1874.741	1	3727.726	-30.19326	3.640358E-007	0.0483353	8
	4	7	398109.4	3561.992	-1836.342	1	4007.485	-27.27282	1.349495E-006	0.0476542	8
	5	9	316265.6	3876.046	-1721.15	1	4241.001	-23.94351	1.011928E-006	0.0480607	8
	6	10	251203.1	4174.433	-1570.484	1	4460.08	-20.61705	1.260728E-006	0.0476329	8
	7	12	199546.9	4411.174	-1409.744	1	4630.965	-17.72308	-3.065523E-006	0.0485391	8
	8	13	158578.1	4619.475	-1258.474	1	4787.829	-15.23916	3.131491E-006	0.0474459	8
	9	15	125953.1	4811.754	-1041.495	1	4923.179	-12.21316	6.854029E-007	0.0465223	7
	10	16	100078.1	4931.904	-920.8003	1	5017.125	-10.57552	6.845698E-008	0.0479334	7
	11	18	79453.13	5031.566	-811.6795	1	5096.614	-9.163863	9.426049E-008	0.0479762	7
	12	19	63140.62	5109.464	-719.694	1	5159.902	-8.017655	-4.198464E-008	0.0480745	7
	13	20	50203.12	5174.025	-644.061	1	5213.957	-7.095661	-8.232294E-008	0.0481657	7
	14	22	39890.62	5226.272	-586.7007	1	5259.101	-6.405201	-3.629636E-008	0.0480485	7
	15	23	31640.63	5275.012	-542.0616	1	5302.79	-5.867135	-5.060853E-009	0.0481649	7
	16	24	25171.88	5315.269	-517.5713	1	5340.408	-5.561611	-5.343776E-008	0.0482137	7
	17	26	20015.62	5351.442	-504.6492	1	5375.184	-5.387148	-2.01848E-008	0.0481018	7
	18	27	15890.62	5386.328	-509.8903	1	5410.408	-5.407722	-3.694801E-008	0.0480473	7
	19	28	12609.37	5423.114	-530.7991	1	5449.028	-5.590144	-5.366124E-008	0.0482064	7
	20	30	10078.13	5452.658	-565.244	1	5481.877	-5.918367	-3.686207E-008	0.0480443	7
	21	31	8015.625	5492.783	-623.0977	1	5528.012	-6.471929	9.471367E-008	0.0479687	7
	22	33	6328.125	5532.811	-701.8325	1	5577.147	-7.229312	-5.287455E-009	0.0481623	7
	23	34	5015.625	5569.676	-806.6212	1	5627.782	-8.240495	-8.098215E-008	0.0481677	7
	24	35	3984.375	5616.522	-937.7618	1	5694.271	-9.478945	4.652586E-008	0.0479746	7
	25	37	3170.956	5665.61	-1105.672	1	5772.49	-11.04276	-3.787627E-008	0.0480655	7
	26	38	2527.573	5724.956	-1307.305	1	5872.322	-12.86305	4.642895E-008	0.0479767	7
	27	39	1976.103	5798.866	-1583.641	1	6011.22	-15.27472	7.030098E-008	0.0479067	7
	28	41	1577.524	5878.681	-1893.784	1	6176.189	-17.85605	-1.404914E-008	0.0479879	7
	29	42	1265.625	5963.387	-2259.654	1	6377.148	-20.75276	-2.530067E-008	0.0480114	7
	30	43	998.264	6075.574	-2754.179	1	6670.69	-24.38574	-2.255386E-008	0.0480889	7
	31	45	796.875	6193.146	-3322.473	1	7028.079	-28.21248	-1.369378E-008	0.0479936	7
	32	46	627.7902	6348.348	-4066.802	1	7539.258	-32.64395	4.66665E-008	0.0479725	7
	33	48	505.5147	6508.501	-4894.604	1	8143.57	-36.94436	6.905188E-008	0.047912	7
	34	49	397.9953	6721.183	-6020.818	1	9023.556	-41.8539	4.923955E-009	0.0480564	7
	35	50	315.5048	6973.848	-7374.51	1	10149.78	-46.59951	-8.045666E-010	0.04799	6
	36	52	252.4038	7268.686	-8979.44	1	11552.67	-51.01049	-2.177182E-010	0.0479908	6
	37	53	198.6229	7660.531	-11101.68	1	13488.18	-55.39304	-2.419018E-010	0.0479948	6
	38	54	158.3615	8136.019	-13582.36	1	15832.73	-59.07782	1.83404E-010	0.04799	6
	39	56	125.558	8743.078	-16699.52	1	18849.81	-62.36557	-2.65364E-010	0.0479944	6
	40	57	100.4464	9483.575	-20363.19	1	22463.25	-65.02759	9.564803E-010	0.0479884	6
	41	58	79.00281	10627.38	-25210.63	1	27359.04	-67.14245	3.006456E-010	0.0479913	6
	42	60	63.3446	12128.28	-30480.72	1	32805.02	-68.30238	-6.118751E-010	0.0479876	6
	43	61	49.86702	13572.95	-38096.02	1	40441.71	-70.3899	-5.71088E-010	0.047989	6
	44	63	39.72458	15899.39	-46247.18	1	48903.91	-71.02746	-3.062109E-010	0.0479949	6
	45	64	31.6723	18778.01	-56349.69	1	59396.14	-71.56982	-9.098582E-010	0.0479945	6
	46	65	24.93351	23059.15	-69011.38	1	72761.9	-71.5237	-4.611259E-010	0.0479866	6
	47	67	19.86229	28389.74	-83730.3	1	88412.34	-71.27017	-1.441017E-010	0.0479912	6
	48	68	15.83615	34522.57	-99676.7	1	105485.8	-70.89671	8.743919E-010	0.0479911	5
	49	70	12.40079	45496.4	-121653.7	1	129882.8	-69.49507	5.166523E-010	0.0479894	5
	50	71	9.93114	56795.14	-145818.5	1	156488.7	-68.71947	-8.26485E-010	0.0479962	5
	51	73	7.944915	71339.09	-173342.5	1	187448.3	-67.63039	1.059253E-010	0.0479908	5
	52	74	6.317385	91774.95	-203224.4	1	222986.1	-65.69633	-9.770478E-011	0.0479856	5
	53	76	5.008013	116615.4	-238214.7	1	265227	-63.91645	-1.955668E-010	0.0480003	5
	54	79	3.945707	148083.6	-277396.4	1	314448	-61.90519	-8.937601E-010	0.0479896	5
	55	82	3.158693	183391	-316229.3	1	365558.8	-59.88924	-4.186312E-010	0.0479989	5
	56	85	2.504006	225552.4	-359473.4	1	424376	-57.89369	-9.721479E-010	0.047997	5
	57	88	1.998082	271099	-403783.3	1	486349.3	-56.12269	-6.663163E-010	0.0479495	5
	58	91	1.584686	321613.3	-450905.6	1	553851	-54.50122	-7.925262E-010	0.0480096	5
	59	94	1.266892	376744.8	-503276.3	1	628668.1	-53.18205	-6.433304E-010	0.047955	5
	60	99	0.999041	435850.4	-563545.5	1	712424.8	-52.28136	-4.996127E-010	0.0480358	5
