EXPLAIN
TAG	EISPOT
TITLE	LABEL	Potentiostatic IDE	Test &Identifier
DATE	LABEL	9/12/2019	Date
TIME	LABEL	8:39:08	Time
NOTES	NOTES	1	&Notes...
	
PSTAT	PSTAT	REF600-11020	Potentiostat
VDC	POTEN	0.00000E+000	T	DC &Voltage (V)
FREQINIT	QUANT	1.00000E+006	Initial Fre&q. (Hz)
FREQFINAL	QUANT	1.00000E+000	Final Fre&q. (Hz)
PTSPERDEC	QUANT	1.00000E+001	Points/&decade
VAC	QUANT	2.50000E+001	AC &Voltage (mV rms)
AREA	QUANT	1.00000E-002	&Area (cm^2)
CONDIT	TWOPARAM	T	5.00000E+000	0.00000E+000	Conditionin&g	Time(s)	E(V)
DELAY	TWOPARAM	T	5.00000E+000	0.00000E+000	Init. De&lay	Time(s)	Stab.(mV/s)
SPEED	SELECTOR	1	&Optimize for:
ZGUESS	QUANT	1.00000E+007	E&stimated Z (ohms)
OCVCURVE	TABLE	19
	Pt	T	Vf	Vm	Ach	Over
	#	s	V vs. Ref.	V	V	bits
	0	0.258333	2.66843E-003	2.66843E-003	5.65499E-004	...........
	1	0.516667	2.66300E-003	2.38435E-003	5.59032E-004	...........
	2	0.775	2.63011E-003	2.13780E-003	5.60766E-004	...........
	3	1.03333	2.53851E-003	1.90153E-003	5.68366E-004	...........
	4	1.29167	2.37802E-003	1.70386E-003	5.66399E-004	...........
	5	1.55	2.17085E-003	1.52287E-003	5.69399E-004	...........
	6	1.80833	1.95076E-003	1.35703E-003	5.72132E-004	...........
	7	2.06667	1.74114E-003	1.19762E-003	5.67399E-004	...........
	8	2.325	1.55024E-003	1.05351E-003	5.65999E-004	...........
	9	2.58333	1.37721E-003	9.23741E-004	5.70666E-004	...........
	10	2.84167	1.21916E-003	8.01251E-004	5.63466E-004	...........
	11	3.1	1.07404E-003	6.86260E-004	5.65332E-004	...........
	12	3.35833	9.40129E-004	5.73305E-004	5.66066E-004	...........
	13	3.61667	8.15802E-004	4.89422E-004	5.68766E-004	...........
	14	3.875	7.01057E-004	4.23740E-004	5.72332E-004	...........
	15	4.13333	5.98593E-004	3.78544E-004	5.72532E-004	...........
	16	4.39167	5.11103E-004	2.92910E-004	5.71232E-004	...........
	17	4.65	4.35439E-004	1.70652E-004	5.70732E-004	...........
	18	4.90833	3.60827E-004	6.36946E-005	5.68332E-004	...........
EOC	QUANT	0.0003608	Open Circuit (V)
PSTATMODEL	IQUANT	4	Pstat Model
PSTATSECTION	LABEL	REF600-11020	Pstat Section
PSTATSERIALNO	LABEL	11020	Pstat Serial Number
CTRLMODE	IQUANT	1	Control Mode
IESTAB	IQUANT	0	I/E Stability
CASPEED	IQUANT	1	Control Amp Speed
CONVENTION	IQUANT	1	Current Convention
ICHRANGE	IQUANT	2	Ich Range
ICHRANGEMODE	TOGGLE	F	Ich Auto Range
ICHOFFSETENABLE	TOGGLE	T	Ich Offset Enable
ICHOFFSET	QUANT	0	Ich Offset (V)
ICHFILTER	IQUANT	3	Ich Filter
VCHRANGE	IQUANT	2	Vch Range
VCHRANGEMODE	TOGGLE	F	Vch Auto Range
VCHOFFSETENABLE	TOGGLE	T	Vch Offset Enable
VCHOFFSET	QUANT	0	Vch Offset (V)
VCHFILTER	IQUANT	3	Vch Filter
ACHRANGE	IQUANT	2	Ach Range
ACHOFFSETENABLE	TOGGLE	F	Ach Offset Enable
ACHOFFSET	QUANT	0	Ach Offset (V)
ACHFILTER	IQUANT	3	Ach Filter
IERANGELOWERLIMIT	IQUANT	1	I/E Range Lower Limit
IERANGEMODE	TOGGLE	F	I/E AutoRange
IERANGE	IQUANT	1	I/E Range
POSFEEDENABLE	TOGGLE	F	Positive Feedback IR Comp
POSFEEDRESISTANCE	QUANT	0	Positive Feedback Resistance (ohm)
ACHSELECT	IQUANT	0	Ach Select
CABLEID	IQUANT	14	Cable ID
DCCALDATE	LABEL	8/19/2019	DC Calibration Date
ACCALDATE	LABEL	8/19/2019	AC Calibration Date
THERMOSELECT	IQUANT	1	Thermo Select
FRAMEWORKVERSION	QUANT	6.33	Framework Version
INSTRUMENTVERSION	LABEL	3.50	Instrument Version
ZCURVE	TABLE
	Pt	Time	Freq	Zreal	Zimag	Zsig	Zmod	Zphz	Idc	Vdc	IERange
	#	s	Hz	ohm	ohm	V	ohm	°	A	V	#
	0	2	1000078	2206.214	-1088.729	1	2460.226	-26.26556	6.449096E-006	0.0014955	8
	1	3	794390.6	2387.01	-990.125	1	2584.215	-22.52854	8.770153E-007	0.0016277	8
	2	5	630984.4	2549.531	-856.6889	1	2689.614	-18.57329	-7.370026E-007	0.0024716	8
	3	6	501234.4	2649.3	-768.0502	1	2758.385	-16.16724	3.959383E-007	0.0019434	8
	4	8	398109.4	2723.691	-655.453	1	2801.448	-13.53088	-8.620186E-007	0.0021947	8
	5	9	316265.6	2795.997	-580.8783	1	2855.7	-11.73645	5.508975E-007	0.0017651	8
	6	10	251203.1	2848.766	-511.2603	1	2894.28	-10.17441	-2.143479E-006	0.0021722	8
	7	12	199546.9	2888.203	-459.5032	1	2924.527	-9.0398	1.890021E-006	0.001566	8
	8	13	158578.1	2929.265	-427.1237	1	2960.241	-8.29598	2.09269E-007	0.0018589	8
	9	15	125953.1	2978.899	-362.4935	1	3000.873	-6.938045	1.078518E-006	-0.0004115	7
	10	16	100078.1	3009.99	-355.3018	1	3030.888	-6.73209	7.967103E-008	0.0017396	7
	11	17	79453.13	3043.89	-360.5942	1	3065.175	-6.756052	7.969134E-008	0.0017163	7
	12	19	63140.62	3079.31	-373.4371	1	3101.871	-6.914663	-3.724961E-008	0.0020045	7
	13	20	50203.12	3117.875	-393.256	1	3142.577	-7.188729	1.272821E-007	0.0016942	7
	14	21	39890.62	3161.412	-420.1065	1	3189.203	-7.569443	-4.643835E-008	0.0019453	7
	15	23	31640.63	3206.26	-454.4157	1	3238.302	-8.06667	-2.566054E-008	0.0018757	7
	16	24	25171.88	3255.051	-497.0044	1	3292.775	-8.681281	-5.090569E-009	0.001913	7
	17	25	20015.62	3310.3	-548.6935	1	3355.466	-9.411405	-6.044186E-008	0.00197	7
	18	27	15890.62	3366.737	-610.2802	1	3421.602	-10.27431	1.692809E-008	0.0018031	7
	19	28	12609.37	3436.843	-682.179	1	3503.892	-11.22672	-4.761507E-008	0.0019729	7
	20	29	10078.13	3508.635	-764.3705	1	3590.931	-12.29009	1.291246E-007	0.0016931	7
	21	31	8015.625	3588.607	-863.5358	1	3691.042	-13.53	-3.799032E-008	0.0019024	7
	22	32	6328.125	3681.314	-982.919	1	3810.276	-14.94936	-3.271149E-008	0.0018879	7
	23	33	5015.625	3782.342	-1119.599	1	3944.567	-16.48911	-5.410912E-009	0.0019116	7
	24	35	3984.375	3893.59	-1278.023	1	4097.973	-18.17179	-6.232492E-008	0.0019663	7
	25	36	3170.956	4016.286	-1461.81	1	4274.043	-20.00002	3.123062E-009	0.0018094	7
	26	37	2527.573	4149.594	-1674.743	1	4474.807	-21.97861	-1.093822E-008	0.0019277	7
	27	39	1976.103	4306.107	-1946.492	1	4725.61	-24.32442	-4.599455E-008	0.0019757	7
	28	40	1577.524	4463.639	-2247.512	1	4997.538	-26.72597	-6.051686E-008	0.0019678	7
	29	41	1265.625	4619.881	-2590.222	1	5296.465	-29.27798	8.191976E-008	0.0017231	7
	30	43	998.264	4797.974	-3039.637	1	5679.784	-32.35529	-3.776811E-008	0.0018944	7
	31	44	796.875	4976.439	-3570.854	1	6125.026	-35.66141	-5.160883E-009	0.0019049	7
	32	45	627.7902	5173.072	-4262.303	1	6702.828	-39.48648	-2.329165E-008	0.0018623	7
	33	46	505.5147	5355.608	-5041.063	1	7354.92	-43.26708	-2.18438E-008	0.0018695	7
	34	48	397.9953	5586.342	-6117.776	1	8284.588	-47.59977	6.192888E-009	0.0018766	7
	35	49	315.5048	5839.929	-7429.713	1	9450.153	-51.83182	6.822736E-009	0.001876	7
	36	51	252.4038	6130.87	-8995.182	1	10885.81	-55.72272	5.454511E-010	0.0018101	6
	37	52	198.6229	6509.763	-11088	1	12857.71	-59.5828	1.304171E-009	0.001817	6
	38	53	158.3615	6965.529	-13546.45	1	15232.37	-62.78796	2.827391E-010	0.0018161	6
	39	55	125.558	7559.855	-16657.61	1	18292.82	-65.58965	1.180824E-009	0.001814	6
	40	56	100.4464	8285.421	-20336.29	1	21959.34	-67.83301	1.630746E-010	0.0018106	6
	41	57	79.00281	9302.249	-25196.29	1	26858.6	-69.73629	1.993266E-010	0.001809	6
	42	59	63.3446	10844.55	-30522.46	1	32391.74	-70.44002	7.032913E-010	0.0018114	6
	43	60	49.86702	12279.08	-38005.29	1	39939.68	-72.09493	1.195149E-009	0.0018067	6
	44	61	39.72458	14687.08	-46127.82	1	48409.57	-72.33855	1.22797E-009	0.0018135	6
	45	63	31.6723	17737.54	-56210.06	1	58942.27	-72.48649	2.704238E-010	0.001808	6
	46	64	24.93351	21722.98	-68833.62	1	72180.02	-72.48499	9.725568E-010	0.0018012	6
	47	65	19.86229	26704.82	-83166.98	1	87349.26	-72.19823	1.159775E-009	0.0018094	6
	48	67	15.83615	32354.62	-100197	1	105291.3	-72.1042	-4.435084E-010	0.0018143	5
	49	68	12.40079	42251.4	-122890.2	1	129950.7	-71.0263	1.161233E-009	0.001816	5
	50	69	9.93114	52846.12	-145239.9	1	154555.3	-70.00587	7.23156E-010	0.0018092	5
	51	71	7.944915	65886.44	-172691.1	1	184833	-69.11676	2.432862E-010	0.0018153	5
	52	73	6.317385	82494.23	-203784.7	1	219848.9	-67.96137	5.971313E-010	0.0018187	5
	53	75	5.008013	103147.9	-241654	1	262747.3	-66.88522	4.634019E-010	0.001815	5
	54	77	3.945707	128937.7	-285489.4	1	313255.7	-65.69428	3.213929E-010	0.0018132	5
	55	80	3.158693	157534	-333085.3	1	368460	-64.68802	5.726827E-011	0.0017961	5
	56	83	2.504006	193781.9	-389343.5	1	434902.1	-63.53981	5.594312E-010	0.0018078	5
	57	86	1.998082	234990	-451313.8	1	508826.5	-62.49492	9.205015E-011	0.0018436	5
	58	89	1.584686	285432	-525081.7	1	597647.3	-61.4717	2.912857E-010	0.0018577	5
	59	92	1.266892	341573.2	-604634.7	1	694446.1	-60.53681	-3.383023E-011	0.0018297	5
	60	97	0.999041	412363.2	-700417.8	1	812790.6	-59.51302	4.114954E-010	0.0018294	5
