EXPLAIN
TAG	EISPOT
TITLE	LABEL	Potentiostatic IDE	Test &Identifier
DATE	LABEL	9/4/2019	Date
TIME	LABEL	12:23:19	Time
NOTES	NOTES	1	&Notes...
	
PSTAT	PSTAT	REF600-11020	Potentiostat
VDC	POTEN	0.00000E+000	T	DC &Voltage (V)
FREQINIT	QUANT	1.00000E+006	Initial Fre&q. (Hz)
FREQFINAL	QUANT	1.00000E+000	Final Fre&q. (Hz)
PTSPERDEC	QUANT	1.00000E+001	Points/&decade
VAC	QUANT	2.50000E+001	AC &Voltage (mV rms)
AREA	QUANT	1.00000E-002	&Area (cm^2)
CONDIT	TWOPARAM	T	5.00000E+000	0.00000E+000	Conditionin&g	Time(s)	E(V)
DELAY	TWOPARAM	T	5.00000E+000	0.00000E+000	Init. De&lay	Time(s)	Stab.(mV/s)
SPEED	SELECTOR	1	&Optimize for:
ZGUESS	QUANT	1.00000E+007	E&stimated Z (ohms)
OCVCURVE	TABLE	19
	Pt	T	Vf	Vm	Ach	Over
	#	s	V vs. Ref.	V	V	bits
	0	0.258333	6.13958E-002	6.13958E-002	5.67266E-004	...........
	1	0.516667	6.14015E-002	6.16898E-002	5.71066E-004	...........
	2	0.775	6.14380E-002	6.20785E-002	5.70966E-004	...........
	3	1.03333	6.15491E-002	6.24830E-002	5.65932E-004	...........
	4	1.29167	6.17643E-002	6.28851E-002	5.65866E-004	...........
	5	1.55	6.20751E-002	6.33056E-002	5.68932E-004	...........
	6	1.80833	6.24487E-002	6.37281E-002	5.67899E-004	...........
	7	2.06667	6.28538E-002	6.41555E-002	5.68532E-004	...........
	8	2.325	6.32718E-002	6.45523E-002	5.67766E-004	...........
	9	2.58333	6.36923E-002	6.49653E-002	5.67899E-004	...........
	10	2.84167	6.41095E-002	6.53555E-002	5.71866E-004	...........
	11	3.1	6.45217E-002	6.58036E-002	5.67732E-004	...........
	12	3.35833	6.49312E-002	6.61812E-002	5.71366E-004	...........
	13	3.61667	6.53398E-002	6.65434E-002	5.68299E-004	...........
	14	3.875	6.57426E-002	6.68901E-002	5.71832E-004	...........
	15	4.13333	6.61307E-002	6.71914E-002	5.67999E-004	...........
	16	4.39167	6.64941E-002	6.73340E-002	5.70132E-004	...........
	17	4.65	6.68155E-002	6.73543E-002	5.70032E-004	...........
	18	4.90833	6.70734E-002	6.75963E-002	5.80932E-004	...........
EOC	QUANT	0.0670734	Open Circuit (V)
PSTATMODEL	IQUANT	4	Pstat Model
PSTATSECTION	LABEL	REF600-11020	Pstat Section
PSTATSERIALNO	LABEL	11020	Pstat Serial Number
CTRLMODE	IQUANT	1	Control Mode
IESTAB	IQUANT	0	I/E Stability
CASPEED	IQUANT	1	Control Amp Speed
CONVENTION	IQUANT	1	Current Convention
ICHRANGE	IQUANT	2	Ich Range
ICHRANGEMODE	TOGGLE	F	Ich Auto Range
ICHOFFSETENABLE	TOGGLE	T	Ich Offset Enable
ICHOFFSET	QUANT	0	Ich Offset (V)
ICHFILTER	IQUANT	3	Ich Filter
VCHRANGE	IQUANT	2	Vch Range
VCHRANGEMODE	TOGGLE	F	Vch Auto Range
VCHOFFSETENABLE	TOGGLE	T	Vch Offset Enable
VCHOFFSET	QUANT	0	Vch Offset (V)
VCHFILTER	IQUANT	3	Vch Filter
ACHRANGE	IQUANT	2	Ach Range
ACHOFFSETENABLE	TOGGLE	F	Ach Offset Enable
ACHOFFSET	QUANT	0	Ach Offset (V)
ACHFILTER	IQUANT	3	Ach Filter
IERANGELOWERLIMIT	IQUANT	1	I/E Range Lower Limit
IERANGEMODE	TOGGLE	F	I/E AutoRange
IERANGE	IQUANT	4	I/E Range
POSFEEDENABLE	TOGGLE	F	Positive Feedback IR Comp
POSFEEDRESISTANCE	QUANT	0	Positive Feedback Resistance (ohm)
ACHSELECT	IQUANT	0	Ach Select
CABLEID	IQUANT	14	Cable ID
DCCALDATE	LABEL	8/19/2019	DC Calibration Date
ACCALDATE	LABEL	8/19/2019	AC Calibration Date
THERMOSELECT	IQUANT	1	Thermo Select
FRAMEWORKVERSION	QUANT	6.33	Framework Version
INSTRUMENTVERSION	LABEL	3.50	Instrument Version
ZCURVE	TABLE
	Pt	Time	Freq	Zreal	Zimag	Zsig	Zmod	Zphz	Idc	Vdc	IERange
	#	s	Hz	ohm	ohm	V	ohm	°	A	V	#
	0	2	1000078	2366.759	-2093.589	1	3159.852	-41.49534	1.360636E-005	0.0680502	8
	1	3	794390.6	2732.449	-2028.26	1	3402.957	-36.58599	1.000755E-005	0.0680812	8
	2	5	630984.4	3159.224	-1925.518	1	3699.773	-31.36193	1.186617E-005	0.0680354	8
	3	6	501234.4	3470.413	-1783.547	1	3901.898	-27.19996	9.503772E-006	0.0681934	8
	4	8	398109.4	3736.406	-1625.477	1	4074.666	-23.51085	1.105139E-005	0.0680038	8
	5	10	316265.6	3951.527	-1485.682	1	4221.589	-20.60509	1.218786E-005	0.0675443	8
	6	11	251203.1	4115.593	-1365.735	1	4336.281	-18.35812	1.091266E-005	0.0680034	8
	7	13	199546.9	4264.485	-1257.66	1	4446.07	-16.43158	1.094541E-005	0.0680113	8
	8	14	158578.1	4381.832	-1184.48	1	4539.102	-15.12646	1.182201E-005	0.0677168	8
	9	16	125953.1	4506.218	-1134.015	1	4646.718	-14.12549	6.122474E-007	0.0683558	7
	10	17	100078.1	4598.083	-1103.934	1	4728.746	-13.50038	8.762358E-007	0.0684131	7
	11	19	79453.13	4693.193	-1121.089	1	4825.236	-13.4348	9.093637E-007	0.0682602	7
	12	20	63140.62	4801.048	-1163.941	1	4940.124	-13.62756	8.572676E-007	0.0683845	7
	13	21	50203.12	4903.183	-1231.208	1	5055.401	-14.09575	9.312715E-007	0.0682275	7
	14	23	39890.62	5013.392	-1331.93	1	5187.305	-14.87833	8.777766E-007	0.0684086	7
	15	24	31640.63	5136.501	-1462.641	1	5340.689	-15.89453	8.881624E-007	0.0683618	7
	16	25	25171.88	5268.208	-1635.872	1	5516.347	-17.2505	8.685926E-007	0.068342	7
	17	27	20015.62	5416.522	-1833.932	1	5718.567	-18.70512	9.712362E-007	0.068195	7
	18	28	15890.62	5581.056	-2081.284	1	5956.503	-20.45146	9.317012E-007	0.0682339	7
	19	29	12609.37	5777.494	-2392.259	1	6253.186	-22.49274	8.871252E-007	0.0683636	7
	20	31	10078.13	5975.761	-2738.577	1	6573.395	-24.62108	8.747295E-007	0.0683971	7
	21	32	8015.625	6216.012	-3164.732	1	6975.266	-26.98182	8.717113E-007	0.068327	7
	22	33	6328.125	6511.776	-3697.236	1	7488.176	-29.58691	8.909886E-007	0.0682662	7
	23	35	5015.625	6824.456	-4319.683	1	8076.686	-32.33263	9.098667E-007	0.0683414	7
	24	36	3984.375	7205.617	-5038.382	1	8792.396	-34.96239	9.330633E-007	0.0682287	7
	25	37	3170.956	7625.03	-5914.489	1	9649.99	-37.79958	8.789216E-007	0.0684071	7
	26	38	2527.573	8117.014	-6916.245	1	10663.98	-40.43324	8.98109E-007	0.0683324	7
	27	40	1976.103	8773.018	-8191.023	1	12002.45	-43.03509	9.042128E-007	0.0682685	7
	28	41	1577.524	9457.405	-9592.77	1	13470.85	-45.40713	8.927108E-008	0.068318	6
	29	42	1265.625	10235.75	-11201.31	1	15173.67	-47.57895	9.149557E-008	0.0681317	6
	30	44	998.264	11244.01	-13264.2	1	17388.69	-49.71218	8.325487E-008	0.0683252	6
	31	45	796.875	12353.5	-15561.9	1	19869.11	-51.55642	8.587565E-008	0.0682793	6
	32	46	627.7902	13769.81	-18445.85	1	23018.62	-53.25869	8.236572E-008	0.0682744	6
	33	48	505.5147	15278.25	-21482.17	1	26361.12	-54.57932	8.505588E-008	0.0682345	6
	34	49	397.9953	17171.93	-25483.89	1	30729.53	-56.02655	8.967086E-008	0.0678819	6
	35	50	315.5048	19376.71	-30045.66	1	35751.9	-57.18168	8.931754E-008	0.0678788	6
	36	52	252.4038	21852.63	-35216.45	1	41445.58	-58.17943	8.967496E-008	0.0678703	6
	37	53	198.6229	24972.84	-41745.5	1	48644.93	-59.11145	8.947514E-008	0.0678742	6
	38	54	158.3615	28406.89	-49045.11	1	56677.81	-59.9206	8.972935E-008	0.067875	6
	39	56	125.558	32484.4	-57903.87	1	66393.48	-60.70733	8.951511E-008	0.0678764	6
	40	57	100.4464	37184.59	-67803.67	1	77330.66	-61.25895	8.932071E-008	0.0678742	6
	41	58	79.00281	43075.97	-80606.8	1	91394.73	-61.88012	8.936093E-008	0.0678744	6
	42	60	63.3446	48310.35	-93617.89	1	105348	-62.70456	8.960933E-008	0.0678707	6
	43	61	49.86702	57320.46	-112769	1	126500.9	-63.05577	8.928106E-008	0.067869	6
	44	63	39.72458	65065.15	-132609.5	1	147711.8	-63.86503	8.984062E-009	0.0678842	5
	45	64	31.6723	74706	-157400.9	1	174229.8	-64.60993	8.941377E-009	0.0678769	5
	46	65	24.93351	86717.51	-187686.1	1	206751.1	-65.20142	8.987258E-009	0.0678781	5
	47	67	19.86229	100131.4	-222881.6	1	244341	-65.80759	9.004532E-009	0.0678724	5
	48	68	15.83615	116000.5	-266149.1	1	290329.9	-66.45013	9.367748E-009	0.0678768	5
	49	69	12.40079	137824	-319469.2	1	347931.1	-66.66387	8.874384E-009	0.0678792	5
	50	71	9.93114	159146	-378166.2	1	410289.1	-67.17687	8.981368E-009	0.0678853	5
	51	72	7.944915	184899.9	-449784.3	1	486306.4	-67.65314	9.199705E-009	0.0678807	5
	52	74	6.317385	217617.7	-538363.9	1	580683.3	-67.99043	9.127959E-009	0.067899	5
	53	76	5.008013	257329.3	-646433.1	1	695768.7	-68.2937	9.149989E-009	0.0678935	5
	54	79	3.945707	308490.1	-779819.8	1	838620.9	-68.41666	8.990691E-008	0.0678799	6
	55	81	3.158693	369702.3	-926140.9	1	997205	-68.23882	9.026941E-009	0.0678876	5
	56	85	2.504006	446814.3	-1107957	1	1194659	-68.03687	8.974562E-009	0.0681579	5
	57	88	1.998082	539241	-1316691	1	1422834	-67.72881	8.881424E-010	0.0681765	4
	58	91	1.584686	663524.9	-1570161	1	1704603	-67.09186	9.481447E-010	0.0682176	4
	59	95	1.266892	803192.6	-1856003	1	2022341	-66.59926	9.16082E-010	0.0681538	4
	60	99	0.999041	1003018	-2197254	1	2415361	-65.46392	9.159674E-010	0.0682003	4
