EXPLAIN
TAG	EISPOT
TITLE	LABEL	Potentiostatic EIS	Test &Identifier
DATE	LABEL	10/26/2019	Date
TIME	LABEL	10:01:13	Time
NOTES	NOTES	1	&Notes...
	
PSTAT	PSTAT	REF600-11020	Potentiostat
VDC	POTEN	0.00000E+000	T	DC &Voltage (V)
FREQINIT	QUANT	1.00000E+006	Initial Fre&q. (Hz)
FREQFINAL	QUANT	1.00000E+000	Final Fre&q. (Hz)
PTSPERDEC	QUANT	1.00000E+001	Points/&decade
VAC	QUANT	2.50000E+001	AC &Voltage (mV rms)
AREA	QUANT	1.00000E-002	&Area (cm^2)
CONDIT	TWOPARAM	T	5.00000E+000	0.00000E+000	Conditionin&g	Time(s)	E(V)
DELAY	TWOPARAM	T	5.00000E+000	0.00000E+000	Init. De&lay	Time(s)	Stab.(mV/s)
SPEED	SELECTOR	0	&Optimize for:
ZGUESS	QUANT	1.00000E+005	E&stimated Z (ohms)
OCVCURVE	TABLE	19
	Pt	T	Vf	Vm	Ach	Over
	#	s	V vs. Ref.	V	V	bits
	0	0.258333	7.15076E-003	7.15076E-003	5.29333E-004	...........
	1	0.516667	7.15359E-003	7.29892E-003	5.32233E-004	...........
	2	0.775	7.17055E-003	7.41728E-003	5.23666E-004	...........
	3	1.03333	7.21734E-003	7.54226E-003	5.23033E-004	...........
	4	1.29167	7.29950E-003	7.67344E-003	5.27700E-004	...........
	5	1.55	7.40855E-003	7.80320E-003	5.30800E-004	...........
	6	1.80833	7.53206E-003	7.93256E-003	5.29499E-004	...........
	7	2.06667	7.66126E-003	8.06128E-003	5.21800E-004	...........
	8	2.325	7.79164E-003	8.18751E-003	5.28833E-004	...........
	9	2.58333	7.92131E-003	8.31059E-003	5.24933E-004	...........
	10	2.84167	8.04944E-003	8.43205E-003	5.24900E-004	...........
	11	3.1	8.17558E-003	8.55296E-003	5.26766E-004	...........
	12	3.35833	8.29958E-003	8.66903E-003	5.34566E-004	...........
	13	3.61667	8.42144E-003	8.78273E-003	5.23033E-004	...........
	14	3.875	8.54092E-003	8.89358E-003	5.20066E-004	...........
	15	4.13333	8.65778E-003	9.00311E-003	5.30033E-004	...........
	16	4.39167	8.77190E-003	9.10776E-003	5.35699E-004	...........
	17	4.65	8.88338E-003	9.21553E-003	5.25633E-004	...........
	18	4.90833	8.99268E-003	9.32600E-003	5.28166E-004	...........
EOC	QUANT	0.0089927	Open Circuit (V)
PSTATMODEL	IQUANT	4	Pstat Model
PSTATSECTION	LABEL	REF600-11020	Pstat Section
PSTATSERIALNO	LABEL	11020	Pstat Serial Number
CTRLMODE	IQUANT	1	Control Mode
IESTAB	IQUANT	0	I/E Stability
CASPEED	IQUANT	1	Control Amp Speed
CONVENTION	IQUANT	1	Current Convention
ICHRANGE	IQUANT	2	Ich Range
ICHRANGEMODE	TOGGLE	F	Ich Auto Range
ICHOFFSETENABLE	TOGGLE	T	Ich Offset Enable
ICHOFFSET	QUANT	0	Ich Offset (V)
ICHFILTER	IQUANT	3	Ich Filter
VCHRANGE	IQUANT	2	Vch Range
VCHRANGEMODE	TOGGLE	F	Vch Auto Range
VCHOFFSETENABLE	TOGGLE	T	Vch Offset Enable
VCHOFFSET	QUANT	0	Vch Offset (V)
VCHFILTER	IQUANT	3	Vch Filter
ACHRANGE	IQUANT	2	Ach Range
ACHOFFSETENABLE	TOGGLE	F	Ach Offset Enable
ACHOFFSET	QUANT	0	Ach Offset (V)
ACHFILTER	IQUANT	3	Ach Filter
IERANGELOWERLIMIT	IQUANT	1	I/E Range Lower Limit
IERANGEMODE	TOGGLE	F	I/E AutoRange
IERANGE	IQUANT	5	I/E Range
POSFEEDENABLE	TOGGLE	F	Positive Feedback IR Comp
POSFEEDRESISTANCE	QUANT	0	Positive Feedback Resistance (ohm)
ACHSELECT	IQUANT	0	Ach Select
CABLEID	IQUANT	14	Cable ID
DCCALDATE	LABEL	8/19/2019	DC Calibration Date
ACCALDATE	LABEL	8/19/2019	AC Calibration Date
THERMOSELECT	IQUANT	1	Thermo Select
FRAMEWORKVERSION	QUANT	6.33	Framework Version
INSTRUMENTVERSION	LABEL	3.50	Instrument Version
ZCURVE	TABLE
	Pt	Time	Freq	Zreal	Zimag	Zsig	Zmod	Zphz	Idc	Vdc	IERange
	#	s	Hz	ohm	ohm	V	ohm	°	A	V	#
	0	1	1000078	2156.478	-1369.825	1	2554.764	-32.42428	-6.466288E-008	0.0118731	8
	1	1	794390.6	2429.125	-1287.529	1	2749.25	-27.9253	1.848433E-006	0.0106297	8
	2	2	630984.4	2653.731	-1194.451	1	2910.155	-24.23263	-4.068665E-006	0.0114479	8
	3	2	501234.4	2846.516	-1041.61	1	3031.106	-20.09882	-7.540312E-007	0.0109806	8
	4	2	398109.4	3006.369	-909.0453	1	3140.799	-16.82391	7.43444E-007	0.0105882	8
	5	3	316265.6	3119.524	-779.5552	1	3215.453	-14.03061	1.617344E-006	0.0102093	8
	6	3	251203.1	3201.55	-663.087	1	3269.496	-11.70134	-1.831945E-006	0.0109437	8
	7	3	199546.9	3260.793	-559.0271	1	3308.365	-9.72816	1.631979E-006	0.0102037	8
	8	4	158578.1	3306.031	-471.8846	1	3339.538	-8.123215	3.02271E-006	0.0100717	8
	9	4	125953.1	3364.421	-371.4768	1	3384.867	-6.300693	-3.661765E-008	0.010232	7
	10	4	100078.1	3378.879	-318.6446	1	3393.871	-5.387335	2.987133E-009	0.0106185	7
	11	5	79453.13	3399.988	-285.2889	1	3411.936	-4.796385	6.071061E-008	0.0104036	7
	12	5	63140.62	3420.35	-259.8013	1	3430.202	-4.343705	2.983295E-008	0.0104985	7
	13	5	50203.12	3437.578	-241.8573	1	3446.076	-4.024521	3.408823E-008	0.0104171	7
	14	6	39890.62	3453.972	-231.1986	1	3461.701	-3.829496	7.604956E-009	0.0104651	7
	15	6	31640.63	3467.629	-227.7699	1	3475.101	-3.758054	-1.068664E-008	0.0105651	7
	16	6	25171.88	3482.115	-232.2093	1	3489.849	-3.815193	-3.111595E-008	0.0105331	7
	17	7	20015.62	3489.972	-248.0231	1	3498.774	-4.065025	-3.666673E-008	0.0106057	7
	18	7	15890.62	3507.777	-264.2566	1	3517.717	-4.30821	6.141229E-008	0.0103927	7
	19	7	12609.37	3521.688	-296.9876	1	3534.189	-4.820407	3.196536E-009	0.010607	7
	20	8	10078.13	3533.813	-336.324	1	3549.781	-5.436643	-3.639169E-008	0.0106068	7
	21	8	8015.625	3545.525	-392.723	1	3567.209	-6.320648	-6.067624E-008	0.0106036	7
	22	8	6328.125	3565.852	-466.0881	1	3596.184	-7.446842	2.999861E-008	0.0104926	7
	23	8	5015.625	3585.7	-559.6437	1	3629.111	-8.870958	6.245145E-008	0.010393	7
	24	9	3984.375	3609.507	-673.3315	1	3671.773	-10.56673	4.640084E-008	0.0104437	7
	25	9	3170.956	3635.073	-817.0395	1	3725.763	-12.6676	-6.375099E-009	0.010508	7
	26	9	2527.573	3667.404	-993.196	1	3799.511	-15.15321	1.033186E-008	0.0104601	7
	27	10	1976.103	3710.871	-1230.404	1	3909.534	-18.34384	1.109136E-008	0.0104574	7
	28	10	1577.524	3749.817	-1507.755	1	4041.59	-21.90446	-3.544466E-008	0.0106001	7
	29	10	1265.625	3819.328	-1825.561	1	4233.195	-25.54685	7.373111E-008	0.0104579	7
	30	11	998.264	3900.164	-2253.926	1	4504.604	-30.02385	-1.624604E-008	0.0105491	7
	31	11	796.875	3997.624	-2755.704	1	4855.399	-34.57987	9.370729E-008	0.0103775	7
	32	11	627.7902	4134.01	-3408.661	1	5358.079	-39.50698	4.782866E-008	0.0104395	7
	33	12	505.5147	4294.163	-4132.732	1	5959.808	-43.90255	-4.616644E-008	0.0105781	7
	34	12	397.9953	4521.724	-5108.601	1	6822.3	-48.48732	2.904591E-011	0.0105468	7
	35	12	315.5048	4815.702	-6267.788	1	7904.186	-52.46401	1.718933E-009	0.0105445	7
	36	13	252.4038	5185.805	-7614.332	1	9212.525	-55.74285	8.975211E-010	0.01054	7
	37	13	198.6229	5711.983	-9363.915	1	10968.58	-58.61683	5.558115E-010	0.0104819	6
	38	13	158.3615	6367.811	-11358.37	1	13021.59	-60.72384	-1.682177E-010	0.0104756	6
	39	14	125.558	7246.032	-13785.94	1	15574.24	-62.27312	-2.655322E-010	0.010475	6
	40	14	100.4464	8353.113	-16555.29	1	18543.25	-63.22638	1.195591E-009	0.0104723	6
	41	14	79.00281	9878.61	-20079.67	1	22378.12	-63.80417	2.12638E-010	0.0104699	6
	42	15	63.3446	11563.45	-23540.12	1	26226.91	-63.83868	-9.890995E-010	0.0104705	6
	43	15	49.86702	14007.03	-28198	1	31485.3	-63.58465	-9.6528E-010	0.0104697	6
	44	15	39.72458	16845.96	-33399.24	1	37407.16	-63.23447	-1.839292E-010	0.0104734	6
	45	16	31.6723	20242.43	-39102.01	1	44030.94	-62.63018	-9.306194E-010	0.0104726	6
	46	16	24.93351	24252.68	-45769.01	1	51797.63	-62.0812	5.013923E-010	0.010473	6
	47	16	19.86229	28568.53	-53122.83	1	60317.46	-61.72941	9.54107E-010	0.0104786	6
	48	17	15.83615	33634.28	-62349.5	1	70842.95	-61.65547	-2.619574E-009	0.0104733	6
	49	17	12.40079	39368.21	-72603.66	1	82590.24	-61.53192	2.715762E-010	0.0104722	6
	50	17	9.93114	45365.22	-83903.62	1	95382.5	-61.60069	1.547631E-010	0.0104713	6
	51	18	7.944915	52205.23	-97799.4	1	110860.8	-61.90675	-8.063678E-010	0.0104816	5
	52	18	6.317385	59938.29	-114960.2	1	129647.4	-62.46323	-1.026962E-009	0.0104985	5
	53	19	5.008013	69405.02	-135732.8	1	152448.2	-62.91772	-6.041552E-010	0.0104749	5
	54	20	3.945707	81124.48	-161107	1	180379.2	-63.27273	-1.098381E-010	0.0104722	5
	55	22	3.158693	93736.68	-189503.7	1	211419.5	-63.68102	-5.040728E-011	0.0104898	5
	56	23	2.504006	110037.1	-224474.2	1	249993.7	-63.88594	-3.68365E-010	0.0104812	5
	57	25	1.998082	128321	-264316.7	1	293819	-64.10426	-2.780913E-010	0.010462	5
	58	26	1.584686	151788.6	-311911	1	346883.6	-64.05056	-1.098379E-010	0.0105102	5
	59	28	1.266892	178032.8	-367099	1	407991.9	-64.12791	-1.146488E-010	0.0105114	5
	60	31	0.999041	210057.7	-435173.6	1	483218.7	-64.23347	-1.226624E-010	0.0105022	5
