EXPLAIN
TAG	EISPOT
TITLE	LABEL	Potentiostatic EIS	Test &Identifier
DATE	LABEL	11/27/2019	Date
TIME	LABEL	11:44:10	Time
NOTES	NOTES	3	&Notes...
	
	
	
PSTAT	PSTAT	REF600-11020	Potentiostat
VDC	POTEN	0.00000E+000	T	DC &Voltage (V)
FREQINIT	QUANT	1.00000E+006	Initial Fre&q. (Hz)
FREQFINAL	QUANT	1.00000E+000	Final Fre&q. (Hz)
PTSPERDEC	QUANT	1.00000E+001	Points/&decade
VAC	QUANT	2.50000E+001	AC &Voltage (mV rms)
AREA	QUANT	1.00000E-002	&Area (cm^2)
CONDIT	TWOPARAM	T	5.00000E+000	0.00000E+000	Conditionin&g	Time(s)	E(V)
DELAY	TWOPARAM	T	5.00000E+000	0.00000E+000	Init. De&lay	Time(s)	Stab.(mV/s)
SPEED	SELECTOR	0	&Optimize for:
ZGUESS	QUANT	1.00000E+005	E&stimated Z (ohms)
OCVCURVE	TABLE	19
	Pt	T	Vf	Vm	Ach	Over
	#	s	V vs. Ref.	V	V	bits
	0	0.258333	-2.74257E-003	-2.74257E-003	5.36866E-004	...........
	1	0.516667	-2.75461E-003	-3.37287E-003	5.43599E-004	...........
	2	0.775	-2.82809E-003	-3.94646E-003	5.40699E-004	...........
	3	1.03333	-3.03379E-003	-4.46214E-003	5.42366E-004	...........
	4	1.29167	-3.39591E-003	-4.95359E-003	5.38733E-004	...........
	5	1.55	-3.86784E-003	-5.43617E-003	5.37633E-004	...........
	6	1.80833	-4.37998E-003	-5.83257E-003	5.38966E-004	...........
	7	2.06667	-4.88200E-003	-6.19812E-003	5.40766E-004	...........
	8	2.325	-5.34804E-003	-6.54853E-003	5.44633E-004	...........
	9	2.58333	-5.77099E-003	-6.89601E-003	5.43099E-004	...........
	10	2.84167	-6.15694E-003	-7.21768E-003	5.40933E-004	...........
	11	3.1	-6.51629E-003	-7.51842E-003	5.38833E-004	...........
	12	3.35833	-6.85528E-003	-7.77069E-003	5.40233E-004	...........
	13	3.61667	-7.17480E-003	-8.08583E-003	5.43866E-004	...........
	14	3.875	-7.47595E-003	-8.31044E-003	5.44899E-004	...........
	15	4.13333	-7.76153E-003	-8.55894E-003	5.44499E-004	...........
	16	4.39167	-8.03331E-003	-8.83077E-003	5.45599E-004	...........
	17	4.65	-8.29389E-003	-9.05537E-003	5.42199E-004	...........
	18	4.90833	-8.54681E-003	-9.27353E-003	5.47099E-004	...........
EOC	QUANT	-0.0085468	Open Circuit (V)
PSTATMODEL	IQUANT	4	Pstat Model
PSTATSECTION	LABEL	REF600-11020	Pstat Section
PSTATSERIALNO	LABEL	11020	Pstat Serial Number
CTRLMODE	IQUANT	1	Control Mode
IESTAB	IQUANT	0	I/E Stability
CASPEED	IQUANT	1	Control Amp Speed
CONVENTION	IQUANT	1	Current Convention
ICHRANGE	IQUANT	2	Ich Range
ICHRANGEMODE	TOGGLE	F	Ich Auto Range
ICHOFFSETENABLE	TOGGLE	T	Ich Offset Enable
ICHOFFSET	QUANT	0	Ich Offset (V)
ICHFILTER	IQUANT	3	Ich Filter
VCHRANGE	IQUANT	2	Vch Range
VCHRANGEMODE	TOGGLE	F	Vch Auto Range
VCHOFFSETENABLE	TOGGLE	T	Vch Offset Enable
VCHOFFSET	QUANT	0	Vch Offset (V)
VCHFILTER	IQUANT	3	Vch Filter
ACHRANGE	IQUANT	2	Ach Range
ACHOFFSETENABLE	TOGGLE	F	Ach Offset Enable
ACHOFFSET	QUANT	0	Ach Offset (V)
ACHFILTER	IQUANT	3	Ach Filter
IERANGELOWERLIMIT	IQUANT	1	I/E Range Lower Limit
IERANGEMODE	TOGGLE	F	I/E AutoRange
IERANGE	IQUANT	5	I/E Range
POSFEEDENABLE	TOGGLE	F	Positive Feedback IR Comp
POSFEEDRESISTANCE	QUANT	0	Positive Feedback Resistance (ohm)
ACHSELECT	IQUANT	0	Ach Select
CABLEID	IQUANT	14	Cable ID
DCCALDATE	LABEL	8/19/2019	DC Calibration Date
ACCALDATE	LABEL	8/19/2019	AC Calibration Date
THERMOSELECT	IQUANT	1	Thermo Select
FRAMEWORKVERSION	QUANT	6.33	Framework Version
INSTRUMENTVERSION	LABEL	3.50	Instrument Version
ZCURVE	TABLE
	Pt	Time	Freq	Zreal	Zimag	Zsig	Zmod	Zphz	Idc	Vdc	IERange
	#	s	Hz	ohm	ohm	V	ohm	°	A	V	#
	0	2	1000078	1705.195	-667.846	1	1831.313	-21.38799	1.638057E-006	-0.0058177	8
	1	2	794390.6	1810.135	-584.2979	1	1902.102	-17.88968	-5.991257E-006	-0.0062356	8
	2	2	630984.4	1885.259	-510.2976	1	1953.102	-15.14576	1.207351E-006	-0.0071241	8
	3	3	501234.4	1940.102	-442.9188	1	1990.018	-12.86004	-4.681511E-007	-0.0071438	8
	4	3	398109.4	1987.374	-389.6676	1	2025.215	-11.09335	-1.987436E-006	-0.006767	8
	5	3	316265.6	2015.211	-343.834	1	2044.333	-9.68253	-4.127416E-006	-0.006597	8
	6	4	251203.1	2041.087	-302.0776	1	2063.32	-8.418573	1.860307E-006	-0.0073586	8
	7	4	199546.9	2074.108	-275.894	1	2092.377	-7.576901	-1.56814E-007	-0.0072218	8
	8	4	158578.1	2093.783	-258.9187	1	2109.731	-7.04945	-6.432707E-007	-0.0065822	8
	9	4	125953.1	2125.834	-224.4972	1	2137.655	-6.028337	1.255731E-007	-0.0051926	7
	10	5	100078.1	2143.955	-216.3093	1	2154.84	-5.761226	-9.28662E-007	-0.0061379	7
	11	5	79453.13	2162.183	-223.2292	1	2173.676	-5.894476	-5.537908E-007	-0.0070927	7
	12	5	63140.62	2182.23	-235.5984	1	2194.911	-6.161913	-8.213583E-007	-0.0057633	7
	13	6	50203.12	2205.783	-252.6058	1	2220.2	-6.533039	6.329195E-007	-0.0072024	7
	14	6	39890.62	2230.953	-271.7725	1	2247.445	-6.945494	-2.031929E-007	-0.0059948	7
	15	6	31640.63	2259.941	-297.6914	1	2279.463	-7.504102	-1.986875E-007	-0.0059976	7
	16	7	25171.88	2289.134	-329.3949	1	2312.712	-8.188368	6.345526E-007	-0.007209	7
	17	7	20015.62	2321.004	-366.7026	1	2349.794	-8.978125	-4.567711E-007	-0.0058065	7
	18	7	15890.62	2361.233	-411.8342	1	2396.879	-9.89372	-7.98974E-007	-0.006591	7
	19	8	12609.37	2406.021	-467.0074	1	2450.925	-10.98449	7.69632E-007	-0.0075719	7
	20	8	10078.13	2449.461	-526.011	1	2505.304	-12.11995	-4.54691E-007	-0.0058024	7
	21	8	8015.625	2503.999	-598.8415	1	2574.611	-13.44989	-9.34983E-007	-0.0061553	7
	22	9	6328.125	2565.648	-687.6534	1	2656.203	-15.00396	-8.198392E-007	-0.0057634	7
	23	9	5015.625	2633.738	-788.1857	1	2749.147	-16.6606	-5.641105E-007	-0.0071004	7
	24	9	3984.375	2706.116	-903.964	1	2853.107	-18.47163	8.275166E-007	-0.007879	7
	25	10	3170.956	2787.337	-1038.289	1	2974.439	-20.43047	-9.245971E-007	-0.0061605	7
	26	10	2527.573	2874.658	-1197.319	1	3114.038	-22.61213	8.242209E-007	-0.0078761	7
	27	10	1976.103	2973.578	-1401.154	1	3287.156	-25.22988	-8.007131E-007	-0.0065929	7
	28	11	1577.524	3080.72	-1624.629	1	3482.852	-27.80508	-2.438825E-007	-0.0076371	7
	29	11	1265.625	3178.331	-1895.57	1	3700.671	-30.81203	4.793864E-007	-0.0068974	7
	30	11	998.264	3297.707	-2248.735	1	3991.451	-34.29042	3.236596E-007	-0.0066656	7
	31	12	796.875	3427.608	-2659.526	1	4338.383	-37.80835	-9.291165E-007	-0.0061614	7
	32	12	627.7902	3567.353	-3200.763	1	4792.795	-41.89965	-5.580438E-007	-0.0071214	7
	33	12	505.5147	3716.064	-3806.784	1	5319.844	-45.69091	7.823643E-008	-0.0063139	7
	34	12	397.9953	3901.772	-4636.366	1	6059.68	-49.91743	1.088153E-009	-0.0069763	7
	35	13	315.5048	4120.797	-5634.443	1	6980.539	-53.81982	2.941145E-009	-0.0069835	7
	36	13	252.4038	4378.586	-6815.952	1	8101.186	-57.2832	-7.505546E-010	-0.0069845	7
	37	13	198.6229	4725.168	-8377.326	1	9618.05	-60.57515	8.609926E-010	-0.0069822	7
	38	14	158.3615	5132.982	-10192.91	1	11412.4	-63.27092	3.208737E-010	-0.0070433	6
	39	14	125.558	5672.336	-12462.13	1	13692.34	-65.5266	1.18895E-010	-0.0070446	6
	40	14	100.4464	6312.466	-15123.77	1	16388.28	-67.34497	1.822684E-009	-0.0070482	6
	41	15	79.00281	7210.662	-18570.17	1	19920.97	-68.77917	1.526866E-009	-0.0070474	6
	42	15	63.3446	8428.878	-22576.6	1	24098.73	-69.52709	3.41702E-010	-0.007041	6
	43	15	49.86702	9830.74	-27653.71	1	29349.13	-70.42999	3.294168E-010	-0.0070416	6
	44	16	39.72458	11555.32	-33354.08	1	35299.01	-70.89166	5.50735E-010	-0.0070375	6
	45	16	31.6723	13721.95	-40262.02	1	42536.13	-71.18005	3.628475E-010	-0.0070467	6
	46	16	24.93351	16839.54	-49120.59	1	51926.9	-71.07723	2.416718E-010	-0.0070408	6
	47	17	19.86229	20591.73	-59097.55	1	62582.26	-70.78981	5.501511E-010	-0.0070458	6
	48	17	15.83615	24872.85	-70877.87	1	75115.45	-70.66273	9.929575E-010	-0.0070468	6
	49	17	12.40079	31162.1	-86128.83	1	91592.86	-70.10947	5.214784E-010	-0.007043	6
	50	18	9.93114	38601.88	-101652.8	1	108735.4	-69.20611	7.02178E-010	-0.0070496	5
	51	18	7.944915	47190.75	-120537.3	1	129445.8	-68.6195	1.473531E-010	-0.0070351	5
	52	19	6.317385	57596.45	-142959.9	1	154126.2	-68.05621	1.312826E-010	-0.0070265	5
	53	20	5.008013	70835.24	-169585.4	1	183784.8	-67.32987	3.512832E-010	-0.0070393	5
	54	21	3.945707	87084.67	-201375	1	219398.3	-66.61391	5.499414E-010	-0.0070517	5
	55	22	3.158693	105162.3	-236067.7	1	258432	-65.98822	7.163455E-010	-0.0070397	5
	56	24	2.504006	127839.3	-278140.4	1	306112.7	-65.31547	5.791821E-010	-0.0070413	5
	57	25	1.998082	153539	-325847.5	1	360209.4	-64.77025	4.55296E-010	-0.00708	5
	58	27	1.584686	185302.3	-381630.1	1	424238.7	-64.10088	5.687013E-010	-0.0070393	5
	59	29	1.266892	222781	-445504.7	1	498102.2	-63.432	5.746404E-010	-0.007018	5
	60	31	0.999041	269334.2	-524665.4	1	589758.2	-62.82655	5.951847E-010	-0.0070147	5
