EXPLAIN
TAG	EISPOT
TITLE	LABEL	Potentiostatic EIS	Test &Identifier
DATE	LABEL	10/20/2019	Date
TIME	LABEL	10:45:02	Time
NOTES	NOTES	1	&Notes...
	
PSTAT	PSTAT	REF600-11020	Potentiostat
VDC	POTEN	0.00000E+000	T	DC &Voltage (V)
FREQINIT	QUANT	1.00000E+006	Initial Fre&q. (Hz)
FREQFINAL	QUANT	1.00000E+000	Final Fre&q. (Hz)
PTSPERDEC	QUANT	1.00000E+001	Points/&decade
VAC	QUANT	2.50000E+001	AC &Voltage (mV rms)
AREA	QUANT	1.00000E-002	&Area (cm^2)
CONDIT	TWOPARAM	T	5.00000E+000	0.00000E+000	Conditionin&g	Time(s)	E(V)
DELAY	TWOPARAM	T	5.00000E+000	0.00000E+000	Init. De&lay	Time(s)	Stab.(mV/s)
SPEED	SELECTOR	1	&Optimize for:
ZGUESS	QUANT	1.00000E+005	E&stimated Z (ohms)
OCVCURVE	TABLE	19
	Pt	T	Vf	Vm	Ach	Over
	#	s	V vs. Ref.	V	V	bits
	0	0.258333	5.76088E-003	5.76088E-003	5.59932E-004	...........
	1	0.516667	5.75148E-003	5.26878E-003	5.61499E-004	...........
	2	0.775	5.69476E-003	4.85531E-003	5.63332E-004	...........
	3	1.03333	5.53810E-003	4.48010E-003	5.65832E-004	...........
	4	1.29167	5.26651E-003	4.14062E-003	5.60599E-004	...........
	5	1.55	4.91936E-003	3.83340E-003	5.60766E-004	...........
	6	1.80833	4.55198E-003	3.55168E-003	5.62799E-004	...........
	7	2.06667	4.20129E-003	3.29582E-003	5.65166E-004	...........
	8	2.325	3.88147E-003	3.07095E-003	5.62932E-004	...........
	9	2.58333	3.59381E-003	2.85999E-003	5.64032E-004	...........
	10	2.84167	3.33520E-003	2.66992E-003	5.66532E-004	...........
	11	3.1	3.10156E-003	2.48854E-003	5.64932E-004	...........
	12	3.35833	2.88850E-003	2.31030E-003	5.68166E-004	...........
	13	3.61667	2.69154E-003	2.14895E-003	5.61666E-004	...........
	14	3.875	2.50696E-003	1.99526E-003	5.58399E-004	...........
	15	4.13333	2.33274E-003	1.84532E-003	5.64666E-004	...........
	16	4.39167	2.16829E-003	1.72677E-003	5.66732E-004	...........
	17	4.65	2.01390E-003	1.58745E-003	5.63666E-004	...........
	18	4.90833	1.86938E-003	1.46041E-003	5.63866E-004	...........
EOC	QUANT	0.0018694	Open Circuit (V)
PSTATMODEL	IQUANT	4	Pstat Model
PSTATSECTION	LABEL	REF600-11020	Pstat Section
PSTATSERIALNO	LABEL	11020	Pstat Serial Number
CTRLMODE	IQUANT	1	Control Mode
IESTAB	IQUANT	0	I/E Stability
CASPEED	IQUANT	1	Control Amp Speed
CONVENTION	IQUANT	1	Current Convention
ICHRANGE	IQUANT	2	Ich Range
ICHRANGEMODE	TOGGLE	F	Ich Auto Range
ICHOFFSETENABLE	TOGGLE	T	Ich Offset Enable
ICHOFFSET	QUANT	0	Ich Offset (V)
ICHFILTER	IQUANT	3	Ich Filter
VCHRANGE	IQUANT	2	Vch Range
VCHRANGEMODE	TOGGLE	F	Vch Auto Range
VCHOFFSETENABLE	TOGGLE	T	Vch Offset Enable
VCHOFFSET	QUANT	0	Vch Offset (V)
VCHFILTER	IQUANT	3	Vch Filter
ACHRANGE	IQUANT	2	Ach Range
ACHOFFSETENABLE	TOGGLE	F	Ach Offset Enable
ACHOFFSET	QUANT	0	Ach Offset (V)
ACHFILTER	IQUANT	3	Ach Filter
IERANGELOWERLIMIT	IQUANT	1	I/E Range Lower Limit
IERANGEMODE	TOGGLE	F	I/E AutoRange
IERANGE	IQUANT	4	I/E Range
POSFEEDENABLE	TOGGLE	F	Positive Feedback IR Comp
POSFEEDRESISTANCE	QUANT	0	Positive Feedback Resistance (ohm)
ACHSELECT	IQUANT	0	Ach Select
CABLEID	IQUANT	14	Cable ID
DCCALDATE	LABEL	8/19/2019	DC Calibration Date
ACCALDATE	LABEL	8/19/2019	AC Calibration Date
THERMOSELECT	IQUANT	1	Thermo Select
FRAMEWORKVERSION	QUANT	6.33	Framework Version
INSTRUMENTVERSION	LABEL	3.50	Instrument Version
ZCURVE	TABLE
	Pt	Time	Freq	Zreal	Zimag	Zsig	Zmod	Zphz	Idc	Vdc	IERange
	#	s	Hz	ohm	ohm	V	ohm	°	A	V	#
	0	1	1000078	3071.776	-2007.867	1	3669.787	-33.17064	3.572398E-007	0.0033439	8
	1	3	794390.6	3414.276	-1888.207	1	3901.616	-28.94404	1.283908E-006	0.0035081	8
	2	4	630984.4	3739.065	-1755.788	1	4130.786	-25.15378	-1.363061E-006	0.0038559	8
	3	6	501234.4	4027.312	-1582.67	1	4327.134	-21.45404	-7.388172E-007	0.0037455	8
	4	8	398109.4	4235.917	-1422.299	1	4468.325	-18.56057	4.528524E-006	0.0024977	8
	5	9	316265.6	4423.264	-1277.832	1	4604.142	-16.11342	-3.818236E-006	0.0040563	8
	6	10	251203.1	4554.874	-1119.321	1	4690.389	-13.80637	-3.307541E-007	0.0034992	8
	7	12	199546.9	4683.334	-1012.313	1	4791.492	-12.19697	-4.236899E-007	0.0034931	8
	8	14	158578.1	4763.789	-895.7322	1	4847.27	-10.64895	-4.912656E-006	0.0044439	8
	9	15	125953.1	4885.651	-754.3113	1	4943.539	-8.776777	4.715172E-007	0.002465	7
	10	17	100078.1	4955.587	-738.5246	1	5010.316	-8.47633	1.533889E-007	0.0030609	7
	11	18	79453.13	5020.318	-727.5741	1	5072.766	-8.246229	-6.522532E-008	0.0034746	7
	12	19	63140.62	5087.82	-735.1306	1	5140.655	-8.221672	-4.632586E-008	0.0033115	7
	13	21	50203.12	5159.79	-758.8643	1	5215.295	-8.366665	1.533264E-007	0.0030462	7
	14	22	39890.62	5231.133	-796.04	1	5291.354	-8.652521	7.761289E-008	0.0031494	7
	15	23	31640.63	5312.52	-854.1088	1	5380.74	-9.133446	9.595134E-008	0.0030821	7
	16	25	25171.88	5399.994	-925.2245	1	5478.684	-9.72254	-5.582811E-009	0.0032957	7
	17	26	20015.62	5530.174	-1038.72	1	5626.879	-10.63779	4.391769E-008	0.0032327	7
	18	27	15890.62	5604.413	-1128.641	1	5716.928	-11.38618	-3.919207E-008	0.0033195	7
	19	29	12609.37	5720.254	-1258.875	1	5857.139	-12.41142	-4.686812E-008	0.0033008	7
	20	30	10078.13	5865.501	-1410.285	1	6032.662	-13.51942	-4.805421E-008	0.003299	7
	21	32	8015.625	6030.517	-1570.09	1	6231.558	-14.5934	-4.964298E-008	0.0032999	7
	22	33	6328.125	6189.179	-1796.246	1	6444.566	-16.18398	-4.203935E-008	0.0032989	7
	23	34	5015.625	6391.77	-2041.948	1	6710.013	-17.71688	-7.746529E-008	0.0033896	7
	24	36	3984.375	6605.009	-2326.045	1	7002.616	-19.40042	9.611291E-008	0.0032174	7
	25	37	3170.956	6870.365	-2632.679	1	7357.508	-20.96651	1.504003E-007	0.0030452	7
	26	39	2527.573	7158.142	-2991.392	1	7758.055	-22.68008	-7.708353E-008	0.0033974	7
	27	40	1976.103	7511.289	-3435.556	1	8259.692	-24.57868	-4.956636E-009	0.0032135	7
	28	41	1577.524	7987.876	-3849.259	1	8866.959	-25.72884	-1.664964E-008	0.0032949	7
	29	43	1265.625	8310.26	-4379.882	1	9393.816	-27.79126	-1.257353E-008	0.003345	6
	30	44	998.264	8788.954	-4985.672	1	10104.58	-29.56476	8.96423E-009	0.0030629	6
	31	45	796.875	9271.363	-5629.183	1	10846.47	-31.26437	1.906109E-008	0.0028493	6
	32	47	627.7902	9806.84	-6422.256	1	11722.61	-33.21978	3.269913E-009	0.0032489	6
	33	48	505.5147	10286.14	-7272.178	1	12597.19	-35.25985	-2.811389E-009	0.0031636	6
	34	50	397.9953	10800.7	-8423.082	1	13696.84	-37.94941	-5.961292E-010	0.0032232	6
	35	51	315.5048	11290.15	-9830.06	1	14969.89	-41.04531	1.80473E-009	0.0032273	6
	36	52	252.4038	11768.98	-11540.02	1	16482.74	-44.43723	5.080049E-010	0.0032255	6
	37	54	198.6229	12306.1	-13854.5	1	18530.71	-48.38728	6.39846E-010	0.0032194	6
	38	55	158.3615	12863.38	-16625.96	1	21021.15	-52.27114	4.294071E-010	0.0032222	6
	39	56	125.558	13550.42	-20196.45	1	24320.99	-56.14112	7.948175E-010	0.0032198	6
	40	58	100.4464	14313.46	-24470.41	1	28349.18	-59.67539	-8.810626E-010	0.0032238	6
	41	59	79.00281	15376.1	-30240.9	1	33925.46	-63.04876	-9.719195E-010	0.0032284	6
	42	60	63.3446	16504.21	-37287.14	1	40776.46	-66.12464	1.172416E-009	0.0032229	6
	43	62	49.86702	18459.63	-44742.98	1	48401.37	-67.58041	1.264692E-009	0.0032212	6
	44	63	39.72458	20921.63	-55252.5	1	59080.91	-69.26059	1.140849E-009	0.0032197	6
	45	65	31.6723	23465.01	-67330.56	1	71302.26	-70.78632	1.151385E-009	0.0032192	6
	46	66	24.93351	27707.77	-83124.03	1	87620.34	-71.5652	2.174913E-010	0.0032159	6
	47	68	19.86229	32879.45	-101325.9	1	106527	-72.02216	2.335456E-010	0.003218	5
	48	69	15.83615	37473.39	-121035.6	1	126703.9	-72.79714	-1.970406E-009	0.0032198	5
	49	70	12.40079	49732.39	-149892.5	1	157927.4	-71.64482	1.773962E-009	0.0032168	5
	50	72	9.93114	58951.16	-181703.6	1	191027.3	-72.02508	4.291471E-010	0.0032138	5
	51	73	7.944915	72005.81	-217896.3	1	229485.6	-71.71339	1.372929E-010	0.0032214	5
	52	75	6.317385	89259.66	-262392.8	1	277159.3	-71.21294	-3.031866E-010	0.0032283	5
	53	77	5.008013	111535.8	-316045.2	1	335148.9	-70.5615	-2.851381E-011	0.0032153	5
	54	79	3.945707	140486.6	-379327	1	404506.4	-69.67751	2.962131E-010	0.0032334	5
	55	82	3.158693	174425	-449080.3	1	481764.6	-68.77358	1.617812E-011	0.0032231	5
	56	85	2.504006	216743.6	-532054.5	1	574508.3	-67.83544	2.31243E-010	0.0032126	5
	57	88	1.998082	265968.1	-624589.8	1	678860.4	-66.93431	5.808253E-011	0.0032522	5
	58	91	1.584686	325404.9	-736227.8	1	804934.6	-66.15508	1.520304E-010	0.0032543	5
	59	95	1.266892	394555	-858191.8	1	944545.8	-65.30933	3.679894E-011	0.0032498	5
	60	99	0.999041	479854.6	-1010036	1	1118227	-64.58823	2.119027E-010	0.00321	4
