EXPLAIN
TAG	EISPOT
TITLE	LABEL	Potentiostatic EIS	Test &Identifier
DATE	LABEL	10/28/2019	Date
TIME	LABEL	11:17:19	Time
NOTES	NOTES	1	&Notes...
	
PSTAT	PSTAT	REF600-11020	Potentiostat
VDC	POTEN	0.00000E+000	T	DC &Voltage (V)
FREQINIT	QUANT	1.00000E+006	Initial Fre&q. (Hz)
FREQFINAL	QUANT	1.00000E+000	Final Fre&q. (Hz)
PTSPERDEC	QUANT	1.00000E+001	Points/&decade
VAC	QUANT	2.50000E+001	AC &Voltage (mV rms)
AREA	QUANT	1.00000E-002	&Area (cm^2)
CONDIT	TWOPARAM	T	5.00000E+000	0.00000E+000	Conditionin&g	Time(s)	E(V)
DELAY	TWOPARAM	T	5.00000E+000	0.00000E+000	Init. De&lay	Time(s)	Stab.(mV/s)
SPEED	SELECTOR	1	&Optimize for:
ZGUESS	QUANT	1.00000E+005	E&stimated Z (ohms)
OCVCURVE	TABLE	19
	Pt	T	Vf	Vm	Ach	Over
	#	s	V vs. Ref.	V	V	bits
	0	0.258333	8.59870E-003	8.59870E-003	5.73632E-004	...........
	1	0.516667	8.60057E-003	8.69677E-003	5.77632E-004	...........
	2	0.775	8.61186E-003	8.77842E-003	5.74132E-004	...........
	3	1.03333	8.64341E-003	8.87411E-003	5.74799E-004	...........
	4	1.29167	8.69962E-003	8.95099E-003	5.76166E-004	...........
	5	1.55	8.77464E-003	9.03912E-003	5.69232E-004	...........
	6	1.80833	8.85985E-003	9.18200E-003	5.71632E-004	...........
	7	2.06667	8.95175E-003	9.25006E-003	5.70232E-004	...........
	8	2.325	9.04947E-003	9.35326E-003	5.78599E-004	...........
	9	2.58333	9.15002E-003	9.47484E-003	5.75199E-004	...........
	10	2.84167	9.25132E-003	9.56823E-003	5.72866E-004	...........
	11	3.1	9.35420E-003	9.68404E-003	5.73166E-004	...........
	12	3.35833	9.45957E-003	9.80970E-003	5.78632E-004	...........
	13	3.61667	9.56767E-003	9.89189E-003	5.71999E-004	...........
	14	3.875	9.67688E-003	9.98841E-003	5.76332E-004	...........
	15	4.13333	9.78318E-003	1.00759E-002	5.75766E-004	...........
	16	4.39167	9.88369E-003	1.01716E-002	5.73899E-004	...........
	17	4.65	9.97925E-003	1.02716E-002	5.74099E-004	...........
	18	4.90833	1.00729E-002	1.03670E-002	5.72299E-004	...........
EOC	QUANT	0.0100729	Open Circuit (V)
PSTATMODEL	IQUANT	4	Pstat Model
PSTATSECTION	LABEL	REF600-11020	Pstat Section
PSTATSERIALNO	LABEL	11020	Pstat Serial Number
CTRLMODE	IQUANT	1	Control Mode
IESTAB	IQUANT	0	I/E Stability
CASPEED	IQUANT	1	Control Amp Speed
CONVENTION	IQUANT	1	Current Convention
ICHRANGE	IQUANT	2	Ich Range
ICHRANGEMODE	TOGGLE	F	Ich Auto Range
ICHOFFSETENABLE	TOGGLE	T	Ich Offset Enable
ICHOFFSET	QUANT	0	Ich Offset (V)
ICHFILTER	IQUANT	3	Ich Filter
VCHRANGE	IQUANT	2	Vch Range
VCHRANGEMODE	TOGGLE	F	Vch Auto Range
VCHOFFSETENABLE	TOGGLE	T	Vch Offset Enable
VCHOFFSET	QUANT	0	Vch Offset (V)
VCHFILTER	IQUANT	3	Vch Filter
ACHRANGE	IQUANT	2	Ach Range
ACHOFFSETENABLE	TOGGLE	F	Ach Offset Enable
ACHOFFSET	QUANT	0	Ach Offset (V)
ACHFILTER	IQUANT	3	Ach Filter
IERANGELOWERLIMIT	IQUANT	1	I/E Range Lower Limit
IERANGEMODE	TOGGLE	F	I/E AutoRange
IERANGE	IQUANT	5	I/E Range
POSFEEDENABLE	TOGGLE	F	Positive Feedback IR Comp
POSFEEDRESISTANCE	QUANT	0	Positive Feedback Resistance (ohm)
ACHSELECT	IQUANT	0	Ach Select
CABLEID	IQUANT	14	Cable ID
DCCALDATE	LABEL	8/19/2019	DC Calibration Date
ACCALDATE	LABEL	8/19/2019	AC Calibration Date
THERMOSELECT	IQUANT	1	Thermo Select
FRAMEWORKVERSION	QUANT	6.33	Framework Version
INSTRUMENTVERSION	LABEL	3.50	Instrument Version
ZCURVE	TABLE
	Pt	Time	Freq	Zreal	Zimag	Zsig	Zmod	Zphz	Idc	Vdc	IERange
	#	s	Hz	ohm	ohm	V	ohm	°	A	V	#
	0	2	1000078	2431.843	-1847.103	1	3053.792	-37.21844	-6.214895E-007	0.0120699	8
	1	4	794390.6	2798.39	-1829.938	1	3343.6	-33.18169	9.316257E-007	0.0117711	8
	2	5	630984.4	3130.635	-1773.193	1	3597.929	-29.52724	3.577557E-006	0.0109071	8
	3	7	501234.4	3439.221	-1685.843	1	3830.184	-26.11325	-4.065699E-007	0.0113708	8
	4	8	398109.4	3702.416	-1586.076	1	4027.844	-23.18979	1.15142E-006	0.0113036	8
	5	10	316265.6	3931.441	-1464.431	1	4195.329	-20.42997	-4.150575E-007	0.0115897	8
	6	11	251203.1	4152.639	-1343.1	1	4364.439	-17.92291	3.558201E-007	0.0115563	8
	7	13	199546.9	4320.645	-1239.785	1	4495.001	-16.01054	1.017649E-006	0.0113907	8
	8	15	158578.1	4487.81	-1144.428	1	4631.431	-14.30599	-3.724637E-007	0.0115777	8
	9	16	125953.1	4623.488	-952.389	1	4720.56	-11.63951	-1.342027E-006	0.0143815	7
	10	17	100078.1	4731.122	-899.6517	1	4815.899	-10.7666	-7.279511E-008	0.0116216	7
	11	19	79453.13	4833.669	-864.1446	1	4910.306	-10.13604	8.920043E-008	0.0113007	7
	12	20	63140.62	4923.862	-842.098	1	4995.353	-9.70505	-1.576387E-008	0.0115221	7
	13	21	50203.12	5005.574	-836.9218	1	5075.058	-9.491938	-3.445549E-008	0.0114784	7
	14	23	39890.62	5087.262	-850.9456	1	5157.94	-9.495944	-4.441466E-008	0.0115992	7
	15	24	31640.63	5174.247	-882.1443	1	5248.905	-9.67519	7.763638E-008	0.0113596	7
	16	26	25171.88	5262.081	-932.5265	1	5344.072	-10.04941	8.108681E-008	0.011356	7
	17	27	20015.62	5345.914	-1011.734	1	5440.809	-10.71669	8.116494E-008	0.0113549	7
	18	29	15890.62	5458.971	-1087.991	1	5566.335	-11.27155	-3.792471E-008	0.0114888	7
	19	30	12609.37	5580.654	-1196.046	1	5707.384	-12.09664	4.944813E-008	0.011416	7
	20	32	10078.13	5699.083	-1328.682	1	5851.917	-13.1235	-3.543375E-008	0.0115457	7
	21	33	8015.625	5860.105	-1485.006	1	6045.335	-14.21995	-6.606918E-008	0.0116999	7
	22	34	6328.125	6002.131	-1677.389	1	6232.111	-15.61385	9.4859E-008	0.0112868	7
	23	36	5015.625	6185.167	-1897.2	1	6469.594	-17.05255	-3.278026E-008	0.0114757	7
	24	38	3984.375	6399.286	-2181.305	1	6760.839	-18.82255	1.084763E-007	0.0113972	7
	25	39	3170.956	6619.023	-2438.478	1	7053.91	-20.22402	5.260229E-008	0.0114201	7
	26	41	2527.573	6884.191	-2767.81	1	7419.762	-21.90274	-3.392496E-008	0.0115459	7
	27	42	1976.103	7197.004	-3173.447	1	7865.598	-23.7946	5.243978E-008	0.0114182	7
	28	43	1577.524	7602.559	-3661.176	1	8438.193	-25.71414	-3.137024E-008	0.0114717	7
	29	45	1265.625	7851.544	-4071.963	1	8844.639	-27.41213	-4.505453E-008	0.0116012	7
	30	46	998.264	8249.464	-4653.212	1	9471.327	-29.42571	9.242925E-009	0.0112284	6
	31	48	796.875	8639.525	-5322.768	1	10147.57	-31.63701	-8.703062E-009	0.0115442	6
	32	49	627.7902	9053.458	-6168.877	1	10955.37	-34.26987	4.35148E-009	0.0112851	6
	33	50	505.5147	9446.195	-7109.311	1	11822.56	-36.96552	-4.602545E-009	0.0114043	6
	34	52	397.9953	9888.47	-8385.946	1	12965.57	-40.29971	7.941279E-010	0.0114476	6
	35	53	315.5048	10337.86	-9938.2	1	14340.12	-43.87079	1.001829E-009	0.0114465	6
	36	54	252.4038	10805.4	-11790.74	1	15993.07	-47.49689	7.36547E-010	0.0114389	6
	37	56	198.6229	11365.71	-14293.53	1	18261.55	-51.50952	2.300293E-010	0.0114385	6
	38	57	158.3615	11967.07	-17247.71	1	20992.72	-55.24574	-2.854123E-010	0.0114387	6
	39	58	125.558	12732.54	-21003.44	1	24561.4	-58.77525	4.147325E-010	0.0114444	6
	40	60	100.4464	13655.98	-25468.9	1	28898.97	-61.80056	1.826429E-009	0.0114437	6
	41	61	79.00281	14748.49	-31475.89	1	34759.88	-64.89387	-7.362146E-010	0.0114431	6
	42	63	63.3446	16184.47	-38842.11	1	42079.05	-67.37981	-1.377524E-010	0.0114427	6
	43	64	49.86702	18222.49	-46697.84	1	50127.31	-68.68321	1.328762E-009	0.011433	6
	44	65	39.72458	21053.09	-57597.56	1	61324.64	-69.92161	9.275407E-010	0.0114403	6
	45	67	31.6723	24418.41	-70134.35	1	74263.63	-70.80361	-1.820527E-010	0.0114379	6
	46	68	24.93351	29256.13	-86708.1	1	91510.74	-71.35513	3.675104E-010	0.0114355	6
	47	70	19.86229	35547.32	-105295.8	1	111134.2	-71.34558	8.592319E-011	0.0114365	5
	48	71	15.83615	44518.23	-125495.8	1	133158.1	-70.46844	1.730394E-009	0.0114415	5
	49	72	12.40079	53238.05	-156892	1	165678.5	-71.25642	1.094277E-009	0.0114438	5
	50	74	9.93114	70306.18	-186537.7	1	199347.1	-69.34854	-5.130886E-010	0.0114451	5
	51	75	7.944915	88654.89	-221468.3	1	238553.7	-68.18352	5.70851E-010	0.0114413	5
	52	77	6.317385	114203	-263072.3	1	286791.4	-66.53372	2.20103E-010	0.0114559	5
	53	79	5.008013	146100.1	-309767.9	1	342492.9	-64.74938	4.229843E-010	0.0114498	5
	54	82	3.945707	188585.7	-361463.7	1	407701.5	-62.44769	-1.957004E-010	0.0114408	5
	55	84	3.158693	235530.1	-413542.5	1	475911.6	-60.33664	2.163538E-010	0.0114624	5
	56	88	2.504006	293511.8	-470030.8	1	554146.3	-58.01719	-4.031674E-010	0.0114416	5
	57	90	1.998082	356700.3	-524887.2	1	634619.3	-55.80095	-2.990535E-011	0.0113924	5
	58	93	1.584686	425620.6	-584753.3	1	723249.2	-53.95049	-1.722997E-010	0.0114365	5
	59	97	1.266892	498437.2	-644556.8	1	814796.4	-52.28514	7.748535E-011	0.0114007	5
	60	101	0.999041	577037.5	-715596.2	1	919266.1	-51.11823	-1.258651E-010	0.0114692	5
