EXPLAIN
TAG	EISPOT
TITLE	LABEL	Potentiostatic EIS	Test &Identifier
DATE	LABEL	10/22/2019	Date
TIME	LABEL	7:49:26	Time
NOTES	NOTES	1	&Notes...
	
PSTAT	PSTAT	REF600-11020	Potentiostat
VDC	POTEN	0.00000E+000	T	DC &Voltage (V)
FREQINIT	QUANT	1.00000E+006	Initial Fre&q. (Hz)
FREQFINAL	QUANT	1.00000E+000	Final Fre&q. (Hz)
PTSPERDEC	QUANT	1.00000E+001	Points/&decade
VAC	QUANT	2.50000E+001	AC &Voltage (mV rms)
AREA	QUANT	1.00000E-002	&Area (cm^2)
CONDIT	TWOPARAM	T	5.00000E+000	0.00000E+000	Conditionin&g	Time(s)	E(V)
DELAY	TWOPARAM	T	5.00000E+000	0.00000E+000	Init. De&lay	Time(s)	Stab.(mV/s)
SPEED	SELECTOR	1	&Optimize for:
ZGUESS	QUANT	1.00000E+005	E&stimated Z (ohms)
OCVCURVE	TABLE	19
	Pt	T	Vf	Vm	Ach	Over
	#	s	V vs. Ref.	V	V	bits
	0	0.258333	2.37357E-002	2.37357E-002	5.58332E-004	...........
	1	0.516667	2.37576E-002	2.48776E-002	5.58566E-004	...........
	2	0.775	2.38901E-002	2.58875E-002	5.51133E-004	...........
	3	1.03333	2.42598E-002	2.68193E-002	5.57566E-004	...........
	4	1.29167	2.49096E-002	2.77310E-002	5.60132E-004	...........
	5	1.55	2.57576E-002	2.85869E-002	5.59532E-004	...........
	6	1.80833	2.66820E-002	2.93488E-002	5.57199E-004	...........
	7	2.06667	2.75932E-002	2.99918E-002	5.59032E-004	...........
	8	2.325	2.84427E-002	3.05922E-002	5.60932E-004	...........
	9	2.58333	2.92101E-002	3.11432E-002	5.55233E-004	...........
	10	2.84167	2.98969E-002	3.17077E-002	5.61666E-004	...........
	11	3.1	3.05200E-002	3.22679E-002	5.58499E-004	...........
	12	3.35833	3.11038E-002	3.28405E-002	5.52699E-004	...........
	13	3.61667	3.16698E-002	3.33965E-002	5.50533E-004	...........
	14	3.875	3.22305E-002	3.39249E-002	5.46299E-004	...........
	15	4.13333	3.27876E-002	3.44412E-002	5.58132E-004	...........
	16	4.39167	3.33352E-002	3.49053E-002	5.57866E-004	...........
	17	4.65	3.38643E-002	3.52968E-002	5.54566E-004	...........
	18	4.90833	3.43642E-002	3.56990E-002	5.58999E-004	...........
EOC	QUANT	0.0343642	Open Circuit (V)
PSTATMODEL	IQUANT	4	Pstat Model
PSTATSECTION	LABEL	REF600-11020	Pstat Section
PSTATSERIALNO	LABEL	11020	Pstat Serial Number
CTRLMODE	IQUANT	1	Control Mode
IESTAB	IQUANT	0	I/E Stability
CASPEED	IQUANT	1	Control Amp Speed
CONVENTION	IQUANT	1	Current Convention
ICHRANGE	IQUANT	2	Ich Range
ICHRANGEMODE	TOGGLE	F	Ich Auto Range
ICHOFFSETENABLE	TOGGLE	T	Ich Offset Enable
ICHOFFSET	QUANT	0	Ich Offset (V)
ICHFILTER	IQUANT	3	Ich Filter
VCHRANGE	IQUANT	2	Vch Range
VCHRANGEMODE	TOGGLE	F	Vch Auto Range
VCHOFFSETENABLE	TOGGLE	T	Vch Offset Enable
VCHOFFSET	QUANT	0	Vch Offset (V)
VCHFILTER	IQUANT	3	Vch Filter
ACHRANGE	IQUANT	2	Ach Range
ACHOFFSETENABLE	TOGGLE	F	Ach Offset Enable
ACHOFFSET	QUANT	0	Ach Offset (V)
ACHFILTER	IQUANT	3	Ach Filter
IERANGELOWERLIMIT	IQUANT	1	I/E Range Lower Limit
IERANGEMODE	TOGGLE	F	I/E AutoRange
IERANGE	IQUANT	5	I/E Range
POSFEEDENABLE	TOGGLE	F	Positive Feedback IR Comp
POSFEEDRESISTANCE	QUANT	0	Positive Feedback Resistance (ohm)
ACHSELECT	IQUANT	0	Ach Select
CABLEID	IQUANT	14	Cable ID
DCCALDATE	LABEL	8/19/2019	DC Calibration Date
ACCALDATE	LABEL	8/19/2019	AC Calibration Date
THERMOSELECT	IQUANT	1	Thermo Select
FRAMEWORKVERSION	QUANT	6.33	Framework Version
INSTRUMENTVERSION	LABEL	3.50	Instrument Version
ZCURVE	TABLE
	Pt	Time	Freq	Zreal	Zimag	Zsig	Zmod	Zphz	Idc	Vdc	IERange
	#	s	Hz	ohm	ohm	V	ohm	°	A	V	#
	0	1	1000078	1718.709	-524.1868	1	1796.867	-16.96111	4.241117E-006	0.0353806	8
	1	2	794390.6	1788.27	-457.2478	1	1845.802	-14.34282	-1.852283E-007	0.0356824	8
	2	4	630984.4	1840.547	-400.1559	1	1883.544	-12.26587	-1.249106E-006	0.0362104	8
	3	5	501234.4	1879.372	-347.6872	1	1911.262	-10.48132	-2.273406E-007	0.0358622	8
	4	6	398109.4	1909.977	-307.6535	1	1934.596	-9.150439	1.205433E-006	0.0355539	8
	5	8	316265.6	1938.211	-273.12	1	1957.359	-8.020935	2.181056E-006	0.0353076	8
	6	9	251203.1	1960.465	-250.3893	1	1976.39	-7.278375	-2.708629E-006	0.0363349	8
	7	11	199546.9	1983.779	-230.9548	1	1997.178	-6.640575	1.113726E-006	0.0354972	8
	8	12	158578.1	2003.176	-222.5747	1	2015.503	-6.340179	1.059755E-006	0.0355645	8
	9	13	125953.1	2036.895	-184.99	1	2045.278	-5.189345	6.040311E-007	0.0340595	7
	10	15	100078.1	2054.79	-182.5372	1	2062.882	-5.076543	4.788552E-009	0.0356999	7
	11	16	79453.13	2073.924	-191.3388	1	2082.732	-5.271146	5.900534E-008	0.035648	7
	12	17	63140.62	2096.285	-202.7708	1	2106.069	-5.524953	-3.627795E-008	0.0358166	7
	13	19	50203.12	2120.319	-217.3933	1	2131.434	-5.854	5.63222E-008	0.0356378	7
	14	20	39890.62	2146.534	-234.0574	1	2159.257	-6.222929	-3.412923E-008	0.0357531	7
	15	21	31640.63	2174.619	-254.9829	1	2189.517	-6.687624	-1.665803E-008	0.0358617	7
	16	23	25171.88	2204.416	-279.6569	1	2222.084	-7.230043	-1.844107E-008	0.0358612	7
	17	24	20015.62	2239.935	-307.8386	1	2260.99	-7.825249	-5.679471E-008	0.0358386	7
	18	25	15890.62	2276.275	-343.2853	1	2302.015	-8.576157	-9.97745E-009	0.0357067	7
	19	27	12609.37	2314.944	-384.1969	1	2346.609	-9.423133	-1.301532E-008	0.0358532	7
	20	28	10078.13	2356.443	-429.6879	1	2395.298	-10.33412	-2.421367E-008	0.0357555	7
	21	29	8015.625	2401.022	-485.0457	1	2449.526	-11.42097	-9.203798E-009	0.0357091	7
	22	31	6328.125	2453.31	-549.9626	1	2514.198	-12.6352	1.140505E-007	0.0355626	7
	23	32	5015.625	2509.111	-625.852	1	2585.987	-14.0056	-1.016322E-008	0.0357142	7
	24	33	3984.375	2570.214	-714.1295	1	2667.579	-15.52786	6.057146E-008	0.0356358	7
	25	35	3170.956	2633.025	-819.4366	1	2757.589	-17.28692	-7.028288E-009	0.0357018	7
	26	36	2527.573	2700.289	-943.6968	1	2860.441	-19.2635	-5.626584E-009	0.0357686	7
	27	37	1976.103	2777.455	-1108.828	1	2990.612	-21.76309	7.329517E-008	0.0356962	7
	28	39	1577.524	2853.217	-1298.108	1	3134.634	-24.46379	-2.927352E-008	0.0358105	7
	29	40	1265.625	2933.798	-1516.939	1	3302.768	-27.34151	-4.331448E-008	0.0358737	7
	30	42	998.264	3029.028	-1812.3	1	3529.794	-30.89254	-2.918361E-008	0.0357439	7
	31	43	796.875	3132.134	-2162.052	1	3805.881	-34.61657	1.077882E-008	0.0356776	7
	32	44	627.7902	3263.18	-2620.565	1	4185.177	-38.76693	-1.08949E-009	0.0357586	7
	33	46	505.5147	3401.581	-3129.672	1	4622.293	-42.61604	-2.801175E-009	0.0357557	7
	34	47	397.9953	3599.353	-3818.279	1	5247.342	-46.69055	7.833845E-009	0.0357549	7
	35	48	315.5048	3844.048	-4639.636	1	6025.19	-50.35745	8.095699E-009	0.0357478	7
	36	50	252.4038	4145.353	-5593.792	1	6962.36	-53.45922	8.445252E-009	0.0357526	7
	37	51	198.6229	4567.32	-6830.638	1	8216.936	-56.23125	7.89047E-009	0.0357535	7
	38	52	158.3615	5089.665	-8233.768	1	9679.86	-58.27791	7.187628E-009	0.0357546	7
	39	54	125.558	5782.171	-9936.29	1	11496.24	-59.80383	3.012098E-009	0.0356992	6
	40	55	100.4464	6638.422	-11851.65	1	13584.19	-60.74567	3.269965E-009	0.0356919	6
	41	56	79.00281	7799.585	-14281.89	1	16272.86	-61.36029	3.778207E-009	0.0356972	6
	42	58	63.3446	9208.889	-16907.75	1	19252.94	-61.42486	4.135955E-009	0.0356918	6
	43	59	49.86702	10952.9	-19987.96	1	22792.2	-61.27837	3.188794E-009	0.0356879	6
	44	61	39.72458	13145.42	-23410.92	1	26849.08	-60.68543	2.633623E-009	0.0356945	6
	45	62	31.6723	15604.11	-27244.59	1	31396.75	-60.19843	4.169582E-009	0.035693	6
	46	63	24.93351	18801.79	-31789.74	1	36933.66	-59.39814	2.436639E-009	0.0356937	6
	47	65	19.86229	22224.01	-36653.17	1	42864.45	-58.7702	1.476438E-009	0.035688	6
	48	66	15.83615	26243.49	-41957.27	1	49488.72	-57.97479	3.832207E-009	0.035683	6
	49	67	12.40079	30746.74	-48861.96	1	57730.87	-57.81955	2.516284E-009	0.0356912	6
	50	69	9.93114	35818.23	-55813.11	1	66317.78	-57.30956	1.909826E-009	0.0356955	6
	51	70	7.944915	41149.07	-63844.56	1	75956.4	-57.19743	5.08139E-009	0.0356912	6
	52	72	6.317385	47325.5	-73598.95	1	87501.48	-57.25822	4.031791E-009	0.0356998	6
	53	74	5.008013	54417.45	-85403.58	1	101267.1	-57.49553	1.520031E-009	0.0356836	6
	54	76	3.945707	62645.17	-99622.4	1	117681.9	-57.83723	1.037396E-009	0.0356987	5
	55	79	3.158693	71481.33	-115610.4	1	135924	-58.2717	1.407052E-009	0.0356793	5
	56	82	2.504006	82601.52	-135311	1	158531	-58.59774	3.162869E-009	0.0356922	5
	57	85	1.998082	95480.4	-157614.9	1	184279.6	-58.79323	2.390601E-009	0.035732	5
	58	88	1.584686	110845.9	-184729.5	1	215434	-59.03438	2.620563E-009	0.0357041	5
	59	91	1.266892	130319.4	-214845.4	1	251280.1	-58.76014	2.74511E-009	0.0357337	5
	60	96	0.999041	154227.1	-251850.7	1	295321.5	-58.51773	3.10425E-009	0.0356551	5
