EXPLAIN
TAG	EISPOT
TITLE	LABEL	Potentiostatic EIS	Test &Identifier
DATE	LABEL	9/22/2019	Date
TIME	LABEL	10:35:39	Time
NOTES	NOTES	1	&Notes...
	
PSTAT	PSTAT	REF600-11020	Potentiostat
VDC	POTEN	0.00000E+000	T	DC &Voltage (V)
FREQINIT	QUANT	1.00000E+006	Initial Fre&q. (Hz)
FREQFINAL	QUANT	1.00000E+000	Final Fre&q. (Hz)
PTSPERDEC	QUANT	1.00000E+001	Points/&decade
VAC	QUANT	2.50000E+001	AC &Voltage (mV rms)
AREA	QUANT	1.00000E-002	&Area (cm^2)
CONDIT	TWOPARAM	T	5.00000E+000	0.00000E+000	Conditionin&g	Time(s)	E(V)
DELAY	TWOPARAM	T	5.00000E+000	0.00000E+000	Init. De&lay	Time(s)	Stab.(mV/s)
SPEED	SELECTOR	1	&Optimize for:
ZGUESS	QUANT	1.00000E+004	E&stimated Z (ohms)
OCVCURVE	TABLE	19
	Pt	T	Vf	Vm	Ach	Over
	#	s	V vs. Ref.	V	V	bits
	0	0.258333	-5.08731E-002	-5.08731E-002	5.75432E-004	...........
	1	0.516667	-5.08782E-002	-5.11413E-002	5.77666E-004	...........
	2	0.775	-5.09295E-002	-5.24321E-002	5.79266E-004	...........
	3	1.03333	-5.11294E-002	-5.31008E-002	5.78599E-004	...........
	4	1.29167	-5.15484E-002	-5.27662E-002	5.78399E-004	...........
	5	1.55	-5.16882E-002	-3.21903E-002	5.78832E-004	...........
	6	1.80833	-5.07184E-002	-6.55896E-002	5.82299E-004	...........
	7	2.06667	-4.95363E-002	-5.59017E-002	5.82465E-004	...........
	8	2.325	-5.02816E-002	-5.56925E-002	5.75566E-004	...........
	9	2.58333	-5.28123E-002	-5.63005E-002	5.81265E-004	...........
	10	2.84167	-5.50587E-002	-5.54648E-002	5.81932E-004	...........
	11	3.1	-5.60519E-002	-5.57499E-002	5.77232E-004	...........
	12	3.35833	-5.61837E-002	-5.64942E-002	5.80032E-004	...........
	13	3.61667	-5.60723E-002	-5.65134E-002	5.86632E-004	...........
	14	3.875	-5.60545E-002	-5.55648E-002	5.83432E-004	...........
	15	4.13333	-5.60709E-002	-5.40657E-002	5.79599E-004	...........
	16	4.39167	-5.58798E-002	-5.44881E-002	5.74665E-004	...........
	17	4.65	-5.54231E-002	-5.41931E-002	5.84599E-004	...........
	18	4.90833	-5.49030E-002	-5.43505E-002	5.81365E-004	...........
EOC	QUANT	-0.054903	Open Circuit (V)
PSTATMODEL	IQUANT	4	Pstat Model
PSTATSECTION	LABEL	REF600-11020	Pstat Section
PSTATSERIALNO	LABEL	11020	Pstat Serial Number
CTRLMODE	IQUANT	1	Control Mode
IESTAB	IQUANT	0	I/E Stability
CASPEED	IQUANT	1	Control Amp Speed
CONVENTION	IQUANT	1	Current Convention
ICHRANGE	IQUANT	2	Ich Range
ICHRANGEMODE	TOGGLE	F	Ich Auto Range
ICHOFFSETENABLE	TOGGLE	T	Ich Offset Enable
ICHOFFSET	QUANT	0	Ich Offset (V)
ICHFILTER	IQUANT	3	Ich Filter
VCHRANGE	IQUANT	2	Vch Range
VCHRANGEMODE	TOGGLE	F	Vch Auto Range
VCHOFFSETENABLE	TOGGLE	T	Vch Offset Enable
VCHOFFSET	QUANT	0	Vch Offset (V)
VCHFILTER	IQUANT	3	Vch Filter
ACHRANGE	IQUANT	2	Ach Range
ACHOFFSETENABLE	TOGGLE	F	Ach Offset Enable
ACHOFFSET	QUANT	0	Ach Offset (V)
ACHFILTER	IQUANT	3	Ach Filter
IERANGELOWERLIMIT	IQUANT	1	I/E Range Lower Limit
IERANGEMODE	TOGGLE	F	I/E AutoRange
IERANGE	IQUANT	7	I/E Range
POSFEEDENABLE	TOGGLE	F	Positive Feedback IR Comp
POSFEEDRESISTANCE	QUANT	0	Positive Feedback Resistance (ohm)
ACHSELECT	IQUANT	0	Ach Select
CABLEID	IQUANT	14	Cable ID
DCCALDATE	LABEL	8/19/2019	DC Calibration Date
ACCALDATE	LABEL	8/19/2019	AC Calibration Date
THERMOSELECT	IQUANT	1	Thermo Select
FRAMEWORKVERSION	QUANT	6.33	Framework Version
INSTRUMENTVERSION	LABEL	3.50	Instrument Version
ZCURVE	TABLE
	Pt	Time	Freq	Zreal	Zimag	Zsig	Zmod	Zphz	Idc	Vdc	IERange
	#	s	Hz	ohm	ohm	V	ohm	°	A	V	#
	0	1	1000078	876.0883	-8566.885	1	8611.564	-84.16097	-2.754853E-007	-0.0525341	8
	1	3	794390.6	1027.762	-10669.36	1	10718.75	-84.49777	4.468077E-007	-0.0531263	8
	2	5	630984.4	1344.143	-13332.53	1	13400.11	-84.24307	-7.213326E-008	-0.0532623	8
	3	6	501234.4	1483.342	-16601.81	1	16667.95	-84.89429	-1.13404E-006	-0.0531676	8
	4	8	398109.4	1518.326	-20714.29	1	20769.86	-85.8078	-3.654325E-007	-0.0535364	8
	5	10	316265.6	1297.738	-25740.68	1	25773.38	-87.11383	2.556773E-006	-0.054055	8
	6	12	251203.1	1700.062	-31789.18	1	31834.61	-86.93878	5.905582E-007	-0.0534882	8
	7	13	199546.9	2644.246	-40140	1	40227	-86.23106	8.742986E-007	-0.0536232	8
	8	15	158578.1	3057.761	-49372.43	1	49467.02	-86.45605	2.06437E-006	-0.0540035	8
	9	17	125953.1	5942.33	-62797.88	1	63078.4	-84.59441	-6.721778E-007	-0.0513594	7
	10	18	100078.1	5682.188	-77997.89	1	78204.59	-85.83334	5.042031E-008	-0.0536488	7
	11	20	79453.13	7062.828	-97621.1	1	97876.3	-85.86189	1.148253E-007	-0.0535724	7
	12	22	63140.62	8391.033	-121726	1	122014.8	-86.05663	7.024455E-008	-0.0535711	7
	13	23	50203.12	10738.93	-151991.3	1	152370.3	-85.95849	2.096821E-008	-0.0533853	7
	14	25	39890.62	12560.23	-189282.2	1	189698.5	-86.20358	7.20753E-008	-0.0535827	7
	15	26	31640.63	16542.58	-235219.8	1	235800.8	-85.97712	2.249755E-008	-0.0535877	7
	16	28	25171.88	19557.25	-289594.6	1	290254.2	-86.1365	-7.699705E-008	-0.053378	7
	17	29	20015.62	30327.33	-361695.7	1	362964.9	-85.20709	1.214553E-008	-0.0535992	7
	18	31	15890.62	27747.75	-455661	1	456505	-86.51524	1.471616E-007	-0.0537043	7
	19	33	12609.37	50001.57	-572955.7	1	575133.4	-85.01246	4.514541E-009	-0.0538162	6
	20	34	10078.13	58651.76	-706678.6	1	709108.4	-85.25553	-8.69827E-009	-0.0535134	6
	21	36	8015.625	75520.73	-887347.2	1	890555.1	-85.13537	-1.355638E-008	-0.0534141	6
	22	38	6328.125	90998.76	-1103974	1	1107718	-85.28786	1.956415E-008	-0.053697	6
	23	39	5015.625	137192.6	-1387050	1	1393818	-84.35126	-1.641321E-008	-0.0534301	6
	24	41	3984.375	155261.5	-1741311	1	1748219	-84.90478	-5.899319E-009	-0.053332	6
	25	43	3170.956	228560.7	-2148657	1	2160779	-83.92806	-1.608832E-008	-0.0534285	6
	26	45	2527.573	311057	-2668522	1	2686591	-83.3513	1.958238E-008	-0.0536908	6
	27	46	1976.103	561527.4	-3250237	1	3298387	-80.19805	9.149772E-010	-0.0534339	6
	28	48	1577.524	476849.1	-4241821	1	4268540	-83.58596	-5.870159E-009	-0.0535651	6
	29	50	1265.625	890922.3	-5005476	1	5084146	-79.90765	2.822621E-009	-0.0539422	5
	30	51	998.264	1483144	-6479916	1	6647483	-77.10802	2.180815E-009	-0.0537355	5
	31	53	796.875	1869895	-8207245	1	8417564	-77.16512	3.012728E-010	-0.0536062	5
	32	54	627.7902	2535837	-9483336	1	9.816523E+006	-75.0294	1.289497E-009	-0.0534897	5
	33	56	505.5147	4410533	-1.151039E+007	1	1.232647E+007	-69.03425	-9.566539E-010	-0.0533798	5
	34	57	397.9953	5411246	-1.34029E+007	1	1.445404E+007	-68.01425	-2.66297E-010	-0.0535372	5
	35	59	315.5048	9241980	-1.495425E+007	1	1.757964E+007	-58.28323	3.190613E-010	-0.0535377	5
	36	60	252.4038	1.296335E+007	-1.875353E+007	1	2.279788E+007	-55.34591	-2.900349E-010	-0.0535344	5
	37	62	198.6229	1.865278E+007	-2.188085E+007	1	2.875235E+007	-49.55338	2.526201E-010	-0.053534	5
	38	63	158.3615	1.497865E+007	-2.549888E+007	1	2.957284E+007	-59.569	4.882358E-012	-0.0535336	5
	39	65	125.558	1.95348E+007	-2.291805E+007	1	3.011387E+007	-49.55651	3.502714E-010	-0.0535347	4
	40	66	100.4464	3.296133E+007	-2.705077E+007	1	4.264028E+007	-39.37511	1.192672E-010	-0.0535386	4
	41	68	79.00281	1.650822E+007	-1.21307E+007	1	2.048597E+007	-36.30948	3.858792E-010	-0.0535382	4
	42	70	63.3446	-4449423	-5445889	1	7032430	-129.2496	-3.965724E-011	-0.0535432	4
	43	72	49.86702	2.506617E+007	3975641	1	2.537949E+007	9.012374	8.331106E-011	-0.0535385	5
	44	74	39.72458	1.359042E+008	1.420237E+007	1	1.366443E+008	5.965914	3.172658E-010	-0.0535343	4
	45	75	31.6723	2.793775E+007	1.948782E+007	1	3.406307E+007	34.89748	4.219641E-010	-0.0535395	4
	46	77	24.93351	5.160008E+007	-1.001975E+007	1	5.25639E+007	-10.98899	3.447373E-011	-0.0535402	4
	47	79	19.86229	3.395218E+007	-1.147597E+007	1	3.58392E+007	-18.67546	2.572362E-010	-0.0535379	4
	48	80	15.83615	9027152	8764260	1	1.25818E+007	44.15344	1.334988E-009	-0.0535488	4
	49	82	12.40079	2.093506E+007	2587703	1	2.109438E+007	7.046371	6.188113E-010	-0.053544	4
	50	83	9.93114	3.846158E+007	1.201403E+007	1	4.029429E+007	17.34695	-6.238204E-013	-0.0535304	4
	51	85	7.944915	4.299557E+007	-404981.9	1	4.299748E+007	-0.5396618	1.614197E-010	-0.053538	4
	52	87	6.317385	4.959554E+007	-5825181	1	4.993647E+007	-6.698911	1.922429E-010	-0.0535438	4
	53	90	5.008013	4.328822E+007	1271118	1	4.330688E+007	1.681954	1.317873E-010	-0.053531	4
	54	93	3.945707	4.1623E+007	2820627	1	4.171846E+007	3.876783	1.205815E-010	-0.0535291	4
	55	96	3.158693	5.34595E+007	-5806804	1	5.377394E+007	-6.199199	1.798365E-010	-0.0535458	4
	56	99	2.504006	1.219685E+008	-2244609	1	1.219892E+008	-1.054306	1.130366E-010	-0.0535425	3
	57	103	1.998082	1.04295E+008	-5125287	1	1.044209E+008	-2.813378	1.132942E-010	-0.0535788	3
	58	108	1.584686	1.130662E+008	-995432	1	1.130706E+008	-0.5044177	1.101326E-010	-0.0535782	3
	59	114	1.266892	1.054797E+008	-4614439	1	1.055806E+008	-2.50493	1.132411E-010	-0.0535919	3
	60	118	0.999041	1.085087E+008	9466006	1	1.089208E+008	4.985709	1.31661E-010	-0.0535069	3
