EXPLAIN
TAG	EISPOT
TITLE	LABEL	Potentiostatic EIS	Test &Identifier
DATE	LABEL	11/22/2019	Date
TIME	LABEL	1:19:11	Time
NOTES	NOTES	4	&Notes...
	
	
	
	
PSTAT	PSTAT	REF600-11020	Potentiostat
VDC	POTEN	0.00000E+000	T	DC &Voltage (V)
FREQINIT	QUANT	1.00000E+006	Initial Fre&q. (Hz)
FREQFINAL	QUANT	1.00000E+000	Final Fre&q. (Hz)
PTSPERDEC	QUANT	1.00000E+001	Points/&decade
VAC	QUANT	2.50000E+001	AC &Voltage (mV rms)
AREA	QUANT	1.00000E-002	&Area (cm^2)
CONDIT	TWOPARAM	T	5.00000E+000	0.00000E+000	Conditionin&g	Time(s)	E(V)
DELAY	TWOPARAM	T	5.00000E+000	0.00000E+000	Init. De&lay	Time(s)	Stab.(mV/s)
SPEED	SELECTOR	1	&Optimize for:
ZGUESS	QUANT	1.00000E+005	E&stimated Z (ohms)
OCVCURVE	TABLE	19
	Pt	T	Vf	Vm	Ach	Over
	#	s	V vs. Ref.	V	V	bits
	0	0.258333	4.86589E-003	4.86589E-003	5.63699E-004	...........
	1	0.516667	4.86526E-003	4.83294E-003	5.66132E-004	...........
	2	0.775	4.86170E-003	4.81772E-003	5.60266E-004	...........
	3	1.03333	4.85247E-003	4.79377E-003	5.63566E-004	...........
	4	1.29167	4.83754E-003	4.79122E-003	5.68332E-004	...........
	5	1.55	4.82038E-003	4.78955E-003	5.60699E-004	...........
	6	1.80833	4.80592E-003	4.80769E-003	5.63899E-004	...........
	7	2.06667	4.79830E-003	4.82411E-003	5.59266E-004	...........
	8	2.325	4.79938E-003	4.83818E-003	5.60466E-004	...........
	9	2.58333	4.80820E-003	4.86072E-003	5.60566E-004	...........
	10	2.84167	4.82231E-003	4.88103E-003	5.63366E-004	...........
	11	3.1	4.83983E-003	4.91152E-003	5.61766E-004	...........
	12	3.35833	4.86008E-003	4.93177E-003	5.63432E-004	...........
	13	3.61667	4.88262E-003	4.95789E-003	5.61399E-004	...........
	14	3.875	4.90656E-003	4.98243E-003	5.56199E-004	...........
	15	4.13333	4.93113E-003	5.01091E-003	5.63232E-004	...........
	16	4.39167	4.95611E-003	5.03220E-003	5.64532E-004	...........
	17	4.65	4.98120E-003	5.04968E-003	5.55233E-004	...........
	18	4.90833	5.00551E-003	5.07428E-003	5.59099E-004	...........
EOC	QUANT	0.0050055	Open Circuit (V)
PSTATMODEL	IQUANT	4	Pstat Model
PSTATSECTION	LABEL	REF600-11020	Pstat Section
PSTATSERIALNO	LABEL	11020	Pstat Serial Number
CTRLMODE	IQUANT	1	Control Mode
IESTAB	IQUANT	0	I/E Stability
CASPEED	IQUANT	1	Control Amp Speed
CONVENTION	IQUANT	1	Current Convention
ICHRANGE	IQUANT	2	Ich Range
ICHRANGEMODE	TOGGLE	F	Ich Auto Range
ICHOFFSETENABLE	TOGGLE	T	Ich Offset Enable
ICHOFFSET	QUANT	0	Ich Offset (V)
ICHFILTER	IQUANT	3	Ich Filter
VCHRANGE	IQUANT	2	Vch Range
VCHRANGEMODE	TOGGLE	F	Vch Auto Range
VCHOFFSETENABLE	TOGGLE	T	Vch Offset Enable
VCHOFFSET	QUANT	0	Vch Offset (V)
VCHFILTER	IQUANT	3	Vch Filter
ACHRANGE	IQUANT	2	Ach Range
ACHOFFSETENABLE	TOGGLE	F	Ach Offset Enable
ACHOFFSET	QUANT	0	Ach Offset (V)
ACHFILTER	IQUANT	3	Ach Filter
IERANGELOWERLIMIT	IQUANT	1	I/E Range Lower Limit
IERANGEMODE	TOGGLE	F	I/E AutoRange
IERANGE	IQUANT	4	I/E Range
POSFEEDENABLE	TOGGLE	F	Positive Feedback IR Comp
POSFEEDRESISTANCE	QUANT	0	Positive Feedback Resistance (ohm)
ACHSELECT	IQUANT	0	Ach Select
CABLEID	IQUANT	14	Cable ID
DCCALDATE	LABEL	8/19/2019	DC Calibration Date
ACCALDATE	LABEL	8/19/2019	AC Calibration Date
THERMOSELECT	IQUANT	1	Thermo Select
FRAMEWORKVERSION	QUANT	6.33	Framework Version
INSTRUMENTVERSION	LABEL	3.50	Instrument Version
ZCURVE	TABLE
	Pt	Time	Freq	Zreal	Zimag	Zsig	Zmod	Zphz	Idc	Vdc	IERange
	#	s	Hz	ohm	ohm	V	ohm	°	A	V	#
	0	2	1000078	1696.636	-857.2303	1	1900.899	-26.80532	-1.685738E-006	0.0067125	8
	1	3	794390.6	1828.907	-830.0735	1	2008.463	-24.41154	-4.448992E-007	0.0073211	8
	2	5	630984.4	1956.123	-804.5696	1	2115.124	-22.35778	-2.434712E-007	0.0071653	8
	3	6	501234.4	2078.786	-776.3883	1	2219.038	-20.47974	-2.251074E-006	0.0067505	8
	4	7	398109.4	2189.748	-751.6758	1	2315.17	-18.94583	6.327477E-006	0.0054134	8
	5	9	316265.6	2296.175	-724.5999	1	2407.793	-17.51404	-1.197604E-006	0.0069514	8
	6	10	251203.1	2398.476	-700.9149	1	2498.793	-16.29013	-3.505072E-008	0.0062071	8
	7	12	199546.9	2499.098	-673.0432	1	2588.141	-15.07296	-1.553618E-006	0.0063053	8
	8	13	158578.1	2589.945	-652.5737	1	2670.893	-14.14212	-6.567494E-007	0.0062446	8
	9	14	125953.1	2690.56	-591.0133	1	2754.707	-12.38894	-1.205978E-006	0.0056423	7
	10	16	100078.1	2771.78	-571.9551	1	2830.177	-11.6593	-6.880493E-007	0.0064143	7
	11	17	79453.13	2855.418	-567.2647	1	2911.22	-11.23623	3.85236E-007	0.0050247	7
	12	18	63140.62	2933.202	-563.9832	1	2986.93	-10.88375	9.59047E-007	0.0051237	7
	13	20	50203.12	3004.354	-562.0226	1	3056.471	-10.59582	1.181841E-007	0.0072715	7
	14	21	39890.62	3074.177	-559.6096	1	3124.696	-10.3169	-7.730171E-007	0.0079815	7
	15	22	31640.63	3149.508	-564.1053	1	3199.628	-10.15452	1.187998E-007	0.0072778	7
	16	24	25171.88	3223.058	-573.5302	1	3273.689	-10.08994	9.328685E-007	0.0057545	7
	17	25	20015.62	3289.598	-586.3298	1	3341.443	-10.10613	4.057139E-007	0.0068572	7
	18	26	15890.62	3361.219	-606.9783	1	3415.585	-10.23631	9.615521E-007	0.0051224	7
	19	28	12609.37	3423.978	-632.9537	1	3481.99	-10.47342	-7.72728E-007	0.0079808	7
	20	29	10078.13	3510.341	-677.3785	1	3575.1	-10.92193	7.819667E-007	0.006187	7
	21	30	8015.625	3577.778	-721.665	1	3649.835	-11.40398	7.827856E-007	0.0061811	7
	22	32	6328.125	3656.578	-776.8516	1	3738.189	-11.99433	5.977182E-007	0.006561	7
	23	33	5015.625	3739.199	-846.2691	1	3833.769	-12.75255	7.825699E-007	0.006185	7
	24	34	3984.375	3812.026	-925.6201	1	3922.794	-13.64818	-5.13277E-007	0.0078796	7
	25	36	3170.956	3896.326	-1032.383	1	4030.778	-14.84025	4.083533E-007	0.0068568	7
	26	37	2527.573	3974.907	-1159.152	1	4140.474	-16.2576	4.076954E-007	0.0068503	7
	27	38	1976.103	4048.75	-1328.995	1	4261.292	-18.17234	-1.101703E-006	0.0078212	7
	28	40	1577.524	4123.884	-1538.423	1	4401.496	-20.45813	-9.679561E-007	0.0079464	7
	29	41	1265.625	4220.355	-1790.01	1	4584.271	-22.9836	4.084361E-007	0.0068514	7
	30	43	998.264	4314.587	-2134.694	1	4813.791	-26.32446	7.843249E-007	0.0061781	7
	31	44	796.875	4408.839	-2534.369	1	5085.36	-29.89193	3.860127E-007	0.0050131	7
	32	45	627.7902	4527.628	-3063.45	1	5466.64	-34.08278	-6.90048E-007	0.0063955	7
	33	47	505.5147	4671.696	-3688.083	1	5952.033	-38.28942	5.9769E-007	0.0065597	7
	34	48	397.9953	4849.373	-4503.212	1	6617.804	-42.88032	7.555601E-009	0.0064888	7
	35	49	315.5048	5073.431	-5497.893	1	7481.078	-47.29932	3.957053E-009	0.0064929	7
	36	51	252.4038	5349.229	-6669.246	1	8549.449	-51.2678	5.761276E-009	0.0064876	7
	37	52	198.6229	5732.407	-8210.765	1	10013.85	-55.07889	6.313484E-009	0.0064783	7
	38	53	158.3615	6211.063	-9989.49	1	11762.96	-58.12832	1.076566E-009	0.006417	6
	39	55	125.558	6850.549	-12203.52	1	13994.85	-60.69196	9.526826E-010	0.0064261	6
	40	56	100.4464	7649.645	-14762.96	1	16627.15	-62.6084	1.741644E-009	0.0064207	6
	41	57	79.00281	8823.513	-18078.31	1	20116.66	-63.98431	-1.743889E-010	0.0064202	6
	42	59	63.3446	10235.65	-21578.98	1	23883.48	-64.62341	1.251169E-010	0.0064164	6
	43	60	49.86702	12189.9	-26399.56	1	29078	-65.21504	-2.483905E-010	0.006419	6
	44	62	39.72458	14512.48	-31469.66	1	34654.75	-65.24284	2.456172E-010	0.0064203	6
	45	63	31.6723	17552.5	-37411.79	1	41324.71	-64.86543	-1.369934E-010	0.006424	6
	46	64	24.93351	21536.34	-44568.85	1	49499.46	-64.20947	1.573403E-009	0.006415	6
	47	66	19.86229	26239.21	-52272.17	1	58488.25	-63.34459	1.935091E-009	0.0064266	6
	48	67	15.83615	31777.86	-60749.21	1	68558.73	-62.38597	2.376097E-010	0.006422	6
	49	68	12.40079	39588.57	-71619.07	1	81832.42	-61.06769	-1.559984E-009	0.0064302	6
	50	70	9.93114	47088.38	-82406.87	1	94911.58	-60.25578	-4.189681E-010	0.0064314	6
	51	71	7.944915	56269.68	-93963.39	1	109523.5	-59.08485	1.262179E-009	0.0064279	5
	52	73	6.317385	66568.74	-107335.8	1	126302.7	-58.19317	5.939073E-010	0.0064478	5
	53	75	5.008013	78102.76	-122531.8	1	145306.9	-57.48623	4.822024E-010	0.0064367	5
	54	78	3.945707	90858.38	-140179.8	1	167049.7	-57.05046	-1.965575E-010	0.0064155	5
	55	80	3.158693	103340.6	-159495.5	1	190047.6	-57.05993	2.435382E-010	0.006441	5
	56	83	2.504006	116907.7	-183101.7	1	217241	-57.44236	-2.578089E-010	0.006434	5
	57	86	1.998082	130143.8	-210467.6	1	247455.1	-58.26921	1.318056E-010	0.0063978	5
	58	89	1.584686	144396.7	-246142.6	1	285371	-59.60247	-6.514359E-011	0.0063833	5
	59	93	1.266892	159425.1	-287550.9	1	328788.5	-60.99496	7.337651E-011	0.0063868	5
	60	97	0.999041	176747.4	-343082.8	1	385934.5	-62.74364	-7.888119E-011	0.0064346	5
