EXPLAIN
TAG	EISPOT
TITLE	LABEL	Potentiostatic EIS	Test &Identifier
DATE	LABEL	10/6/2019	Date
TIME	LABEL	10:53:26	Time
NOTES	NOTES	2	&Notes...
	
	
PSTAT	PSTAT	REF600-11020	Potentiostat
VDC	POTEN	0.00000E+000	T	DC &Voltage (V)
FREQINIT	QUANT	1.00000E+006	Initial Fre&q. (Hz)
FREQFINAL	QUANT	1.00000E+000	Final Fre&q. (Hz)
PTSPERDEC	QUANT	1.00000E+001	Points/&decade
VAC	QUANT	2.50000E+001	AC &Voltage (mV rms)
AREA	QUANT	1.00000E-002	&Area (cm^2)
CONDIT	TWOPARAM	T	5.00000E+000	0.00000E+000	Conditionin&g	Time(s)	E(V)
DELAY	TWOPARAM	T	5.00000E+000	0.00000E+000	Init. De&lay	Time(s)	Stab.(mV/s)
SPEED	SELECTOR	1	&Optimize for:
ZGUESS	QUANT	1.00000E+004	E&stimated Z (ohms)
OCVCURVE	TABLE	19
	Pt	T	Vf	Vm	Ach	Over
	#	s	V vs. Ref.	V	V	bits
	0	0.258333	3.39721E-005	3.39721E-005	5.60132E-004	...........
	1	0.516667	2.29237E-005	-5.44367E-004	5.57699E-004	...........
	2	0.775	-4.46830E-005	-1.08015E-003	5.57833E-004	...........
	3	1.03333	-2.34902E-004	-1.58146E-003	5.54166E-004	...........
	4	1.29167	-5.72693E-004	-2.06586E-003	5.52532E-004	...........
	5	1.55	-1.01839E-003	-2.53534E-003	5.56799E-004	...........
	6	1.80833	-1.50857E-003	-2.91476E-003	5.62632E-004	...........
	7	2.06667	-1.99382E-003	-3.27345E-003	5.52999E-004	...........
	8	2.325	-2.44775E-003	-3.68945E-003	5.53233E-004	...........
	9	2.58333	-2.86729E-003	-4.07387E-003	5.60999E-004	...........
	10	2.84167	-3.26492E-003	-4.43974E-003	5.62866E-004	...........
	11	3.1	-3.65225E-003	-4.79721E-003	5.61266E-004	...........
	12	3.35833	-4.03178E-003	-5.13787E-003	5.53766E-004	...........
	13	3.61667	-4.40112E-003	-5.46712E-003	5.51433E-004	...........
	14	3.875	-4.75816E-003	-5.78931E-003	5.50799E-004	...........
	15	4.13333	-5.10243E-003	-6.09710E-003	5.53099E-004	...........
	16	4.39167	-5.43473E-003	-6.40054E-003	5.46699E-004	...........
	17	4.65	-5.75615E-003	-6.69286E-003	5.50366E-004	...........
	18	4.90833	-6.06777E-003	-6.97981E-003	5.47066E-004	...........
EOC	QUANT	-0.0060678	Open Circuit (V)
PSTATMODEL	IQUANT	4	Pstat Model
PSTATSECTION	LABEL	REF600-11020	Pstat Section
PSTATSERIALNO	LABEL	11020	Pstat Serial Number
CTRLMODE	IQUANT	1	Control Mode
IESTAB	IQUANT	0	I/E Stability
CASPEED	IQUANT	1	Control Amp Speed
CONVENTION	IQUANT	1	Current Convention
ICHRANGE	IQUANT	2	Ich Range
ICHRANGEMODE	TOGGLE	F	Ich Auto Range
ICHOFFSETENABLE	TOGGLE	T	Ich Offset Enable
ICHOFFSET	QUANT	0	Ich Offset (V)
ICHFILTER	IQUANT	3	Ich Filter
VCHRANGE	IQUANT	2	Vch Range
VCHRANGEMODE	TOGGLE	F	Vch Auto Range
VCHOFFSETENABLE	TOGGLE	T	Vch Offset Enable
VCHOFFSET	QUANT	0	Vch Offset (V)
VCHFILTER	IQUANT	3	Vch Filter
ACHRANGE	IQUANT	2	Ach Range
ACHOFFSETENABLE	TOGGLE	F	Ach Offset Enable
ACHOFFSET	QUANT	0	Ach Offset (V)
ACHFILTER	IQUANT	3	Ach Filter
IERANGELOWERLIMIT	IQUANT	1	I/E Range Lower Limit
IERANGEMODE	TOGGLE	F	I/E AutoRange
IERANGE	IQUANT	6	I/E Range
POSFEEDENABLE	TOGGLE	F	Positive Feedback IR Comp
POSFEEDRESISTANCE	QUANT	0	Positive Feedback Resistance (ohm)
ACHSELECT	IQUANT	0	Ach Select
CABLEID	IQUANT	14	Cable ID
DCCALDATE	LABEL	8/19/2019	DC Calibration Date
ACCALDATE	LABEL	8/19/2019	AC Calibration Date
THERMOSELECT	IQUANT	1	Thermo Select
FRAMEWORKVERSION	QUANT	6.33	Framework Version
INSTRUMENTVERSION	LABEL	3.50	Instrument Version
ZCURVE	TABLE
	Pt	Time	Freq	Zreal	Zimag	Zsig	Zmod	Zphz	Idc	Vdc	IERange
	#	s	Hz	ohm	ohm	V	ohm	°	A	V	#
	0	1	1000078	2164.834	-1091.75	1	2424.547	-26.76232	2.103841E-007	-0.0037649	8
	1	3	794390.6	2357.414	-1001.409	1	2561.293	-23.01537	-7.431408E-007	-0.0040956	8
	2	4	630984.4	2508.047	-887.4026	1	2660.41	-19.48491	-5.02986E-006	-0.0033418	8
	3	5	501234.4	2629.532	-789.482	1	2745.491	-16.71168	3.950477E-007	-0.0044139	8
	4	7	398109.4	2730.458	-690.3546	1	2816.379	-14.189	2.256176E-006	-0.0049382	8
	5	8	316265.6	2800.979	-600.6829	1	2864.665	-12.10401	4.803673E-006	-0.0055048	8
	6	9	251203.1	2864.134	-536.5188	1	2913.952	-10.60987	-4.556628E-006	-0.0036768	8
	7	11	199546.9	2906.529	-476.0359	1	2945.254	-9.301413	-6.646314E-007	-0.004553	8
	8	12	158578.1	2936.684	-428	1	2967.709	-8.292056	1.08049E-006	-0.004554	8
	9	13	125953.1	3006.099	-367.1418	1	3028.436	-6.96318	-6.634695E-007	-0.0027369	7
	10	15	100078.1	3027.378	-346.9143	1	3047.19	-6.537142	7.924905E-008	-0.0046548	7
	11	16	79453.13	3059.408	-343.0207	1	3078.577	-6.397283	5.734762E-008	-0.0046037	7
	12	18	63140.62	3094.197	-346.4471	1	3113.532	-6.388611	8.911368E-009	-0.0044174	7
	13	19	50203.12	3130.937	-354.9486	1	3150.993	-6.467903	-1.290254E-008	-0.0045148	7
	14	20	39890.62	3169.772	-368.1595	1	3191.081	-6.625047	-3.588695E-008	-0.0045121	7
	15	22	31640.63	3211.063	-387.4134	1	3234.349	-6.879461	-7.983203E-008	-0.0044114	7
	16	23	25171.88	3254.945	-411.4148	1	3280.843	-7.203805	3.741055E-008	-0.0045582	7
	17	24	20015.62	3302.38	-441.8698	1	3331.811	-7.621106	-1.279631E-008	-0.0045256	7
	18	26	15890.62	3351.087	-476.9122	1	3384.853	-8.099698	3.854823E-008	-0.0045612	7
	19	27	12609.37	3402.383	-520.0922	1	3441.904	-8.691024	9.555211E-009	-0.0045488	7
	20	28	10078.13	3457.885	-569.0701	1	3504.399	-9.345494	-7.823019E-008	-0.0044082	7
	21	30	8015.625	3512.705	-630.3518	1	3568.815	-10.1734	-4.237847E-008	-0.0044273	7
	22	31	6328.125	3572.531	-701.4604	1	3640.745	-11.10861	-7.87162E-008	-0.0044149	7
	23	32	5015.625	3631.987	-791.0674	1	3717.138	-12.28744	-9.995908E-009	-0.0044891	7
	24	34	3984.375	3691.601	-900.0092	1	3799.728	-13.70138	7.919906E-008	-0.0046804	7
	25	35	3170.956	3753.137	-1035.264	1	3893.303	-15.42097	7.978043E-008	-0.0046856	7
	26	37	2527.573	3816.205	-1201.617	1	4000.913	-17.47777	4.927311E-008	-0.0046649	7
	27	38	1976.103	3889.141	-1431.757	1	4144.314	-20.21079	-6.660363E-008	-0.0043974	7
	28	39	1577.524	3960.833	-1692.953	1	4307.469	-23.14301	1.046784E-008	-0.0044224	7
	29	41	1265.625	4041.99	-2009.885	1	4514.125	-26.43892	1.099603E-008	-0.0045518	7
	30	42	998.264	4140.893	-2432.5	1	4802.505	-30.43141	-2.199E-009	-0.0045753	7
	31	43	796.875	4252.127	-2932.283	1	5165.159	-34.59029	1.211961E-008	-0.0045488	7
	32	45	627.7902	4393.815	-3586.521	1	5671.75	-39.22359	-3.989512E-008	-0.0044253	7
	33	46	505.5147	4557.597	-4308.206	1	6271.549	-43.38872	1.481373E-008	-0.0045881	7
	34	48	397.9953	4766.105	-5299.571	1	7127.497	-48.03375	4.951415E-009	-0.0044938	7
	35	49	315.5048	5028.961	-6479.774	1	8202.313	-52.18491	4.674178E-009	-0.0044917	7
	36	50	252.4038	5346.824	-7863.663	1	9509.24	-55.78662	4.34857E-009	-0.0044949	7
	37	52	198.6229	5785.375	-9678.93	1	11276.18	-59.13202	1.139491E-009	-0.0045566	6
	38	53	158.3615	6311.326	-11770.31	1	13355.64	-61.79946	1.357654E-009	-0.0045558	6
	39	54	125.558	6998.404	-14373.63	1	15986.83	-64.03893	9.910428E-010	-0.0045509	6
	40	56	100.4464	7845.979	-17396.35	1	19083.83	-65.72401	7.638324E-010	-0.004554	6
	41	57	79.00281	8995.096	-21327.2	1	23146.52	-67.13162	1.691989E-009	-0.0045626	6
	42	58	63.3446	10207.29	-25702.01	1	27654.7	-68.34	7.223593E-010	-0.0045602	6
	43	60	49.86702	12214.99	-31175.18	1	33482.8	-68.60387	5.97811E-010	-0.0045618	6
	44	61	39.72458	14379.31	-37647.06	1	40299.7	-69.09563	8.390529E-010	-0.0045527	6
	45	63	31.6723	17136.09	-45337.77	1	48468.12	-69.29516	5.021509E-010	-0.0045561	6
	46	64	24.93351	20727.55	-54804.03	1	58592.77	-69.28278	8.786276E-010	-0.0045539	6
	47	65	19.86229	24956.49	-65564.32	1	70153.45	-69.1611	1.628802E-009	-0.0045481	6
	48	67	15.83615	30221.33	-78560.63	1	84173.04	-68.95886	-4.101116E-010	-0.0045577	6
	49	68	12.40079	37249.59	-93974.48	1	101087.8	-68.37762	1.469724E-009	-0.0045565	6
	50	70	9.93114	45013.04	-111640.6	1	120373.6	-68.04091	9.507845E-010	-0.0045585	5
	51	71	7.944915	54367.95	-132095.4	1	142846.3	-67.62888	4.030631E-010	-0.0045533	5
	52	73	6.317385	66074.91	-156122.8	1	169529.4	-67.06075	9.087775E-010	-0.0045557	5
	53	75	5.008013	80431.2	-185024	1	201750	-66.50508	5.602749E-010	-0.0045408	5
	54	77	3.945707	98216.9	-219566.4	1	240532.7	-65.89999	1.618157E-010	-0.0045575	5
	55	80	3.158693	117979.9	-257103.6	1	282880.8	-65.35052	6.138099E-010	-0.0045395	5
	56	84	2.504006	142634.9	-302806.8	1	334718.8	-64.77757	1.057241E-011	-0.0045519	5
	57	86	1.998082	170640.8	-353547.5	1	392573.7	-64.23558	2.070851E-010	-0.0045775	5
	58	89	1.584686	205258.4	-412963.5	1	461161.4	-63.5709	3.186092E-010	-0.0045081	5
	59	93	1.266892	242445	-480991.6	1	538639.5	-63.2495	1.383723E-010	-0.0045644	5
	60	97	0.999041	289591.9	-563954.9	1	633962.6	-62.81942	4.583435E-010	-0.0045127	5
