EXPLAIN
TAG	EISPOT
TITLE	LABEL	Potentiostatic EIS	Test &Identifier
DATE	LABEL	8/16/2017	Date
TIME	LABEL	16:56:49	Time
NOTES	NOTES	1	&Notes...
	
PSTAT	PSTAT	REF600-11020	Potentiostat
VDC	POTEN	0.00000E+000	T	DC &Voltage (V)
FREQINIT	QUANT	1.00000E+006	Initial Fre&q. (Hz)
FREQFINAL	QUANT	1.00000E+000	Final Fre&q. (Hz)
PTSPERDEC	QUANT	1.00000E+001	Points/&decade
VAC	QUANT	2.50000E+001	AC &Voltage (mV rms)
AREA	QUANT	1.00000E-002	&Area (cm^2)
CONDIT	TWOPARAM	T	5.00000E+000	0.00000E+000	Conditionin&g	Time(s)	E(V)
DELAY	TWOPARAM	T	5.00000E+000	0.00000E+000	Init. De&lay	Time(s)	Stab.(mV/s)
SPEED	SELECTOR	0	&Optimize for:
ZGUESS	QUANT	1.00000E+005	E&stimated Z (ohms)
OCVCURVE	TABLE	19
	Pt	T	Vf	Vm	Ach	Over
	#	s	V vs. Ref.	V	V	bits
	0	0.258333	6.42337E-003	6.42337E-003	5.81865E-004	...........
	1	0.516667	6.42242E-003	6.37372E-003	5.73532E-004	...........
	2	0.775	6.41679E-003	6.33685E-003	5.79499E-004	...........
	3	1.03333	6.40041E-003	6.24371E-003	5.80465E-004	...........
	4	1.29167	6.36971E-003	6.26779E-003	5.81732E-004	...........
	5	1.55	6.33104E-003	6.31081E-003	5.77499E-004	...........
	6	1.80833	6.29994E-003	6.28452E-003	5.75632E-004	...........
	7	2.06667	6.28063E-003	6.00222E-003	5.71132E-004	...........
	8	2.325	6.25441E-003	6.18610E-003	5.76399E-004	...........
	9	2.58333	6.21241E-003	6.22797E-003	5.77566E-004	...........
	10	2.84167	6.17992E-003	6.28049E-003	5.77532E-004	...........
	11	3.1	6.18324E-003	6.35182E-003	5.79465E-004	...........
	12	3.35833	6.22067E-003	6.40047E-003	5.82565E-004	...........
	13	3.61667	6.27498E-003	6.39926E-003	5.83699E-004	...........
	14	3.875	6.32884E-003	6.41590E-003	5.73565E-004	...........
	15	4.13333	6.36997E-003	6.39517E-003	5.76366E-004	...........
	16	4.39167	6.39794E-003	6.61285E-003	5.75532E-004	...........
	17	4.65	6.43039E-003	6.72343E-003	5.74732E-004	...........
	18	4.90833	6.49039E-003	6.79311E-003	5.70866E-004	...........
EOC	QUANT	0.0064904	Open Circuit (V)
PSTATMODEL	IQUANT	4	Pstat Model
PSTATSECTION	LABEL	REF600-11020	Pstat Section
PSTATSERIALNO	LABEL	11020	Pstat Serial Number
CTRLMODE	IQUANT	1	Control Mode
IESTAB	IQUANT	0	I/E Stability
CASPEED	IQUANT	1	Control Amp Speed
CONVENTION	IQUANT	1	Current Convention
ICHRANGE	IQUANT	2	Ich Range
ICHRANGEMODE	TOGGLE	F	Ich Auto Range
ICHOFFSETENABLE	TOGGLE	T	Ich Offset Enable
ICHOFFSET	QUANT	0	Ich Offset (V)
ICHFILTER	IQUANT	3	Ich Filter
VCHRANGE	IQUANT	2	Vch Range
VCHRANGEMODE	TOGGLE	F	Vch Auto Range
VCHOFFSETENABLE	TOGGLE	T	Vch Offset Enable
VCHOFFSET	QUANT	0	Vch Offset (V)
VCHFILTER	IQUANT	3	Vch Filter
ACHRANGE	IQUANT	2	Ach Range
ACHOFFSETENABLE	TOGGLE	F	Ach Offset Enable
ACHOFFSET	QUANT	0	Ach Offset (V)
ACHFILTER	IQUANT	3	Ach Filter
IERANGELOWERLIMIT	IQUANT	1	I/E Range Lower Limit
IERANGEMODE	TOGGLE	F	I/E AutoRange
IERANGE	IQUANT	5	I/E Range
POSFEEDENABLE	TOGGLE	F	Positive Feedback IR Comp
POSFEEDRESISTANCE	QUANT	0	Positive Feedback Resistance (ohm)
ACHSELECT	IQUANT	0	Ach Select
CABLEID	IQUANT	14	Cable ID
DCCALDATE	LABEL	8/19/2019	DC Calibration Date
ACCALDATE	LABEL	8/19/2019	AC Calibration Date
THERMOSELECT	IQUANT	1	Thermo Select
FRAMEWORKVERSION	QUANT	6.33	Framework Version
INSTRUMENTVERSION	LABEL	3.50	Instrument Version
ZCURVE	TABLE
	Pt	Time	Freq	Zreal	Zimag	Zsig	Zmod	Zphz	Idc	Vdc	IERange
	#	s	Hz	ohm	ohm	V	ohm	°	A	V	#
	0	1	1000078	2203.595	-1571.987	1	2706.839	-35.50307	-8.680046E-006	0.0101129	8
	1	1	794390.6	2512.742	-1546.092	1	2950.301	-31.60402	1.111637E-005	0.0075094	8
	2	2	630984.4	2799.434	-1468.497	1	3161.22	-27.68012	-1.687384E-006	0.0087566	8
	3	2	501234.4	3058.443	-1355.991	1	3345.562	-23.91057	-2.901307E-006	0.0088092	8
	4	2	398109.4	3272.848	-1207.521	1	3488.502	-20.2516	2.91522E-006	0.0075427	8
	5	3	316265.6	3460.577	-1079.589	1	3625.066	-17.32624	-6.295121E-006	0.0089849	8
	6	3	251203.1	3598.504	-940.7742	1	3719.448	-14.65119	9.144942E-007	0.0084779	8
	7	3	199546.9	3708.224	-827.8071	1	3799.499	-12.58412	3.798529E-006	0.0080722	8
	8	4	158578.1	3780.55	-702.5364	1	3845.272	-10.52715	-3.480604E-007	0.0078348	8
	9	4	125953.1	3881.149	-571.0632	1	3922.937	-8.370308	-2.321661E-006	0.0088529	7
	10	4	100078.1	3927.599	-504.6907	1	3959.892	-7.322299	-1.063055E-006	0.0085735	7
	11	4	79453.13	3964.735	-463.1179	1	3991.691	-6.662487	-1.259221E-006	0.0095343	7
	12	5	63140.62	4007.382	-432.5887	1	4030.663	-6.161105	5.069323E-007	0.0063416	7
	13	5	50203.12	4039.017	-415.8292	1	4060.366	-5.878067	6.046837E-008	0.009047	7
	14	5	39890.62	4072.087	-404.987	1	4092.177	-5.679641	1.301654E-007	0.00664	7
	15	6	31640.63	4100.574	-411.5009	1	4121.17	-5.730562	-6.460107E-007	0.009682	7
	16	6	25171.88	4142.293	-427.4546	1	4164.29	-5.891655	1.124673E-006	0.0068999	7
	17	6	20015.62	4173.196	-452.949	1	4197.705	-6.194503	1.125328E-006	0.0069052	7
	18	7	15890.62	4207.229	-491.7584	1	4235.871	-6.666719	6.181678E-007	0.0082713	7
	19	7	12609.37	4239.817	-543.0836	1	4274.458	-7.299342	1.344191E-007	0.0066383	7
	20	7	10078.13	4274.426	-612.433	1	4318.078	-8.153755	1.332611E-007	0.0066372	7
	21	8	8015.625	4321.656	-695.1875	1	4377.213	-9.138391	6.159565E-007	0.0082717	7
	22	8	6328.125	4369.679	-806.8445	1	4443.545	-10.46161	1.289418E-007	0.0066368	7
	23	8	5015.625	4422.461	-945.3184	1	4522.365	-12.06562	6.138641E-007	0.0082773	7
	24	9	3984.375	4472.753	-1112.74	1	4609.09	-13.97054	-3.104775E-007	0.0094419	7
	25	9	3170.956	4535.4	-1319.157	1	4723.349	-16.21749	-3.003402E-007	0.00716	7
	26	9	2527.573	4611.196	-1571.867	1	4871.745	-18.82325	8.050683E-007	0.0062364	7
	27	10	1976.103	4692.888	-1903.827	1	5064.361	-22.08158	-6.455888E-007	0.0096806	7
	28	10	1577.524	4798.644	-2282.636	1	5313.889	-25.43967	3.866691E-007	0.0086	7
	29	10	1265.625	4900.886	-2748.085	1	5618.777	-29.28076	1.114132E-006	0.0065626	7
	30	11	998.264	5030.665	-3339.535	1	6038.218	-33.57763	-6.45778E-007	0.0096807	7
	31	11	796.875	5180.49	-4037.052	1	6567.744	-37.92857	-3.04885E-007	0.0094417	7
	32	11	627.7902	5367.407	-4938.881	1	7293.943	-42.61907	-9.20848E-007	0.0097682	7
	33	11	505.5147	5564.478	-5952.695	1	8148.496	-46.93058	-7.368762E-007	0.0078566	7
	34	12	397.9953	5818.698	-7326.338	1	9355.88	-51.54282	2.17207E-009	0.0080697	7
	35	12	315.5048	6121.289	-8972.041	1	10861.29	-55.69574	-1.374445E-010	0.0080114	6
	36	12	252.4038	6464.79	-10925.36	1	12694.76	-59.3862	-1.348862E-010	0.0080027	6
	37	13	198.6229	6921.166	-13518.19	1	15186.97	-62.88805	8.541478E-010	0.0079986	6
	38	13	158.3615	7465.08	-16548.49	1	18154.34	-65.7197	-1.863362E-011	0.007999	6
	39	13	125.558	8182.852	-20381.85	1	21963.13	-68.12566	-1.962716E-010	0.0080083	6
	40	14	100.4464	9105.31	-24922.49	1	26533.7	-69.93047	6.336464E-010	0.0079992	6
	41	14	79.00281	10336.95	-30975.76	1	32655.02	-71.54559	-6.83079E-010	0.0080063	6
	42	14	63.3446	11658.99	-37211.22	1	38994.96	-72.60323	2.264536E-012	0.0080027	6
	43	15	49.86702	13971.99	-46224.05	1	48289.54	-73.18168	-2.94881E-010	0.0080023	6
	44	15	39.72458	16758.63	-56801.35	1	59222	-73.56187	-9.602705E-011	0.0080015	6
	45	15	31.6723	20293.4	-69464.27	1	72367.85	-73.71472	-1.278298E-009	0.0080034	6
	46	16	24.93351	25752.04	-85083.58	1	88895.35	-73.16064	-2.644641E-011	0.0079985	6
	47	16	19.86229	32315.84	-102892.2	1	107847.7	-72.56381	-9.522014E-010	0.0080047	5
	48	16	15.83615	41528.53	-125734	1	132414.7	-71.72219	1.76145E-009	0.0080073	5
	49	17	12.40079	53419.28	-150816.3	1	159997.4	-70.4958	-4.287616E-011	0.0080122	5
	50	17	9.93114	68871.31	-179840.7	1	192577.1	-69.04529	2.258453E-010	0.0079982	5
	51	18	7.944915	87771.59	-212598	1	230003.8	-67.5666	1.246933E-010	0.0079958	5
	52	18	6.317385	112148.5	-248981.6	1	273073.5	-65.75182	2.372125E-010	0.0079968	5
	53	19	5.008013	143177.1	-290748.7	1	324090.2	-63.78238	2.650748E-010	0.0080118	5
	54	20	3.945707	181808.1	-336676.4	1	382629.3	-61.63058	-1.175012E-010	0.007994	5
	55	21	3.158693	224773.5	-382681.5	1	443811.1	-59.57154	-6.880445E-011	0.0079855	5
	56	23	2.504006	275085.8	-433851.1	1	513711	-57.62302	1.757183E-010	0.0079877	5
	57	24	1.998082	328540.8	-484997.2	1	585799.8	-55.88599	-6.506742E-011	0.0079589	5
	58	26	1.584686	388787.4	-544343.4	1	668928.6	-54.46437	-1.705383E-010	0.0079401	5
	59	28	1.266892	448241	-606514.1	1	754174.6	-53.53394	-1.415453E-010	0.0079757	5
	60	30	0.999041	515501.5	-680886	1	854018.4	-52.87049	-1.019664E-010	0.0079998	5
