EXPLAIN
TAG	EISPOT
TITLE	LABEL	Potentiostatic EIS	Test &Identifier
DATE	LABEL	11/22/2019	Date
TIME	LABEL	9:51:20	Time
NOTES	NOTES	4	&Notes...
	
	
	
	
PSTAT	PSTAT	REF600-11020	Potentiostat
VDC	POTEN	0.00000E+000	T	DC &Voltage (V)
FREQINIT	QUANT	1.00000E+006	Initial Fre&q. (Hz)
FREQFINAL	QUANT	1.00000E+000	Final Fre&q. (Hz)
PTSPERDEC	QUANT	1.00000E+001	Points/&decade
VAC	QUANT	2.50000E+001	AC &Voltage (mV rms)
AREA	QUANT	1.00000E-002	&Area (cm^2)
CONDIT	TWOPARAM	T	5.00000E+000	0.00000E+000	Conditionin&g	Time(s)	E(V)
DELAY	TWOPARAM	T	5.00000E+000	0.00000E+000	Init. De&lay	Time(s)	Stab.(mV/s)
SPEED	SELECTOR	0	&Optimize for:
ZGUESS	QUANT	1.00000E+005	E&stimated Z (ohms)
OCVCURVE	TABLE	19
	Pt	T	Vf	Vm	Ach	Over
	#	s	V vs. Ref.	V	V	bits
	0	0.258333	1.96780E-003	1.96780E-003	5.43199E-004	...........
	1	0.516667	1.96326E-003	1.73015E-003	5.42933E-004	...........
	2	0.775	1.93593E-003	1.53317E-003	5.43199E-004	...........
	3	1.03333	1.86058E-003	1.35454E-003	5.34600E-004	...........
	4	1.29167	1.73040E-003	1.19707E-003	5.40033E-004	...........
	5	1.55	1.56466E-003	1.04632E-003	5.41199E-004	...........
	6	1.80833	1.38980E-003	9.12790E-004	5.42733E-004	...........
	7	2.06667	1.22279E-003	7.85446E-004	5.43399E-004	...........
	8	2.325	1.06963E-003	6.71151E-004	5.42166E-004	...........
	9	2.58333	9.30182E-004	5.58125E-004	5.45666E-004	...........
	10	2.84167	8.02226E-004	4.55176E-004	5.37266E-004	...........
	11	3.1	6.83285E-004	3.50050E-004	5.41333E-004	...........
	12	3.35833	5.71225E-004	2.54355E-004	5.38899E-004	...........
	13	3.61667	4.64456E-004	1.57244E-004	5.42533E-004	...........
	14	3.875	3.62083E-004	7.26978E-005	5.44599E-004	...........
	15	4.13333	2.63935E-004	-1.49582E-005	5.37333E-004	...........
	16	4.39167	1.70089E-004	-9.86502E-005	5.34433E-004	...........
	17	4.65	8.01792E-005	-1.81055E-004	5.40666E-004	...........
	18	4.90833	-6.55193E-006	-2.58838E-004	5.40266E-004	...........
EOC	QUANT	-6.551925E-006	Open Circuit (V)
PSTATMODEL	IQUANT	4	Pstat Model
PSTATSECTION	LABEL	REF600-11020	Pstat Section
PSTATSERIALNO	LABEL	11020	Pstat Serial Number
CTRLMODE	IQUANT	1	Control Mode
IESTAB	IQUANT	0	I/E Stability
CASPEED	IQUANT	1	Control Amp Speed
CONVENTION	IQUANT	1	Current Convention
ICHRANGE	IQUANT	2	Ich Range
ICHRANGEMODE	TOGGLE	F	Ich Auto Range
ICHOFFSETENABLE	TOGGLE	T	Ich Offset Enable
ICHOFFSET	QUANT	0	Ich Offset (V)
ICHFILTER	IQUANT	3	Ich Filter
VCHRANGE	IQUANT	2	Vch Range
VCHRANGEMODE	TOGGLE	F	Vch Auto Range
VCHOFFSETENABLE	TOGGLE	T	Vch Offset Enable
VCHOFFSET	QUANT	0	Vch Offset (V)
VCHFILTER	IQUANT	3	Vch Filter
ACHRANGE	IQUANT	2	Ach Range
ACHOFFSETENABLE	TOGGLE	F	Ach Offset Enable
ACHOFFSET	QUANT	0	Ach Offset (V)
ACHFILTER	IQUANT	3	Ach Filter
IERANGELOWERLIMIT	IQUANT	1	I/E Range Lower Limit
IERANGEMODE	TOGGLE	F	I/E AutoRange
IERANGE	IQUANT	2	I/E Range
POSFEEDENABLE	TOGGLE	F	Positive Feedback IR Comp
POSFEEDRESISTANCE	QUANT	0	Positive Feedback Resistance (ohm)
ACHSELECT	IQUANT	0	Ach Select
CABLEID	IQUANT	14	Cable ID
DCCALDATE	LABEL	8/19/2019	DC Calibration Date
ACCALDATE	LABEL	8/19/2019	AC Calibration Date
THERMOSELECT	IQUANT	1	Thermo Select
FRAMEWORKVERSION	QUANT	6.33	Framework Version
INSTRUMENTVERSION	LABEL	3.50	Instrument Version
ZCURVE	TABLE
	Pt	Time	Freq	Zreal	Zimag	Zsig	Zmod	Zphz	Idc	Vdc	IERange
	#	s	Hz	ohm	ohm	V	ohm	°	A	V	#
	0	1	1000078	1830.521	-822.1404	1	2006.669	-24.18624	8.450765E-008	0.0028206	8
	1	2	794390.6	1970.006	-723.223	1	2098.565	-20.15905	-1.749878E-006	0.0024262	8
	2	2	630984.4	2071.027	-636.4432	1	2166.614	-17.08261	-4.137569E-007	0.0014089	8
	3	2	501234.4	2150.172	-554.8361	1	2220.604	-14.46912	-2.651568E-006	0.0015691	8
	4	3	398109.4	2208.953	-483.8441	1	2261.322	-12.35482	-1.212676E-007	0.0013426	8
	5	3	316265.6	2263.156	-419.2212	1	2301.656	-10.49437	-1.648745E-006	0.001379	8
	6	3	251203.1	2302.257	-369.4513	1	2331.712	-9.116729	-1.547413E-006	0.0013728	8
	7	4	199546.9	2325.201	-331.336	1	2348.689	-8.109924	-3.48768E-006	0.0021321	8
	8	4	158578.1	2361.938	-299.4344	1	2380.843	-7.225122	-6.365051E-007	0.0013105	8
	9	4	125953.1	2391.962	-242.4359	1	2404.217	-5.787416	-1.24827E-006	0.0049582	7
	10	5	100078.1	2410.658	-230.6714	1	2421.669	-5.465885	-7.673306E-007	0.0030083	7
	11	5	79453.13	2430.448	-234.491	1	2441.734	-5.510872	-1.067804E-006	0.0028326	7
	12	5	63140.62	2451.454	-245.2888	1	2463.695	-5.713913	8.845789E-007	0.0008803	7
	13	5	50203.12	2475.654	-258.6658	1	2489.131	-5.964839	8.324561E-007	7.890344E-005	7
	14	6	39890.62	2500.232	-275.0262	1	2515.313	-6.277313	-7.692605E-007	0.002997	7
	15	6	31640.63	2528.717	-298.998	1	2546.332	-6.743401	8.45246E-008	0.0023389	7
	16	6	25171.88	2559.92	-328.3454	1	2580.891	-7.309073	9.526898E-007	0.0005331	7
	17	7	20015.62	2592.594	-363.1876	1	2617.909	-7.974474	-6.470547E-007	0.001417	7
	18	7	15890.62	2629.575	-404.9286	1	2660.57	-8.754222	-1.071372E-006	0.0028224	7
	19	7	12609.37	2670.1	-455.8834	1	2708.739	-9.68905	5.51007E-007	0.0016674	7
	20	8	10078.13	2715.094	-514.8375	1	2763.475	-10.73698	8.64766E-008	0.0023387	7
	21	8	8015.625	2765.602	-585.9791	1	2827	-11.96297	8.349161E-007	7.405978E-005	7
	22	8	6328.125	2823.015	-668.7534	1	2901.146	-13.32731	-9.505569E-007	0.0029548	7
	23	9	5015.625	2886.344	-768.4453	1	2986.886	-14.90831	-2.80603E-007	0.0008089	7
	24	9	3984.375	2957.527	-884.5696	1	3086.978	-16.65145	-5.262381E-007	0.0029044	7
	25	9	3170.956	3032.686	-1020.719	1	3199.851	-18.60182	-5.254974E-007	0.0029072	7
	26	9	2527.573	3117.256	-1181.753	1	3333.74	-20.76173	-1.070284E-006	0.0025007	7
	27	10	1976.103	3221.987	-1392.568	1	3510.049	-23.37437	8.878109E-007	0.000872	7
	28	10	1577.524	3337.132	-1604.374	1	3702.764	-25.67658	-1.07215E-006	0.0028146	7
	29	10	1265.625	3436.251	-1885.205	1	3919.416	-28.75016	8.352818E-007	6.480994E-005	7
	30	11	998.264	3568.322	-2230.555	1	4208.123	-32.00947	9.335188E-007	0.0002455	7
	31	11	796.875	3702.383	-2626.57	1	4539.439	-35.35291	-2.79392E-007	0.0008016	7
	32	11	627.7902	3855.19	-3143.175	1	4974.137	-39.19071	6.561859E-007	-9.867208E-007	7
	33	12	505.5147	4010.291	-3717.115	1	5468.032	-42.82725	-2.787544E-007	0.0008055	7
	34	12	397.9953	4194.507	-4500.198	1	6151.884	-47.0136	1.558711E-009	0.0015518	7
	35	12	315.5048	4399.84	-5448.384	1	7003.105	-51.07741	4.572763E-009	0.0015456	7
	36	13	252.4038	4632.882	-6576.144	1	8044.207	-54.83537	1.933026E-009	0.0015453	7
	37	13	198.6229	4934.733	-8078.284	1	9466.27	-58.58074	1.407602E-010	0.0015491	7
	38	13	158.3615	5291.471	-9834.61	1	11167.77	-61.7177	2.467622E-010	0.001475	6
	39	13	125.558	5750.072	-12053.5	1	13354.79	-64.49673	7.481282E-010	0.0014813	6
	40	14	100.4464	6317.736	-14656.17	1	15959.86	-66.68091	1.11165E-009	0.0014848	6
	41	14	79.00281	7069.547	-18118.98	1	19449.32	-68.68559	4.335041E-011	0.0014782	6
	42	14	63.3446	7889.092	-21893.12	1	23271.15	-70.18359	5.73613E-010	0.0014813	6
	43	15	49.86702	9227.931	-26963.2	1	28498.57	-71.10691	1.124441E-009	0.0014773	6
	44	15	39.72458	10879.57	-32905.05	1	34656.99	-71.70429	1.050406E-009	0.0014884	6
	45	15	31.6723	12910.77	-39882.29	1	41919.99	-72.0621	1.505849E-009	0.00148	6
	46	16	24.93351	15709.12	-48927.19	1	51387.22	-72.19966	1.051773E-009	0.0014863	6
	47	16	19.86229	19078.9	-59156.74	1	62157.26	-72.12474	1.908133E-009	0.0014834	6
	48	16	15.83615	23449.54	-70891.66	1	74669.32	-71.69682	-1.179078E-009	0.0014812	6
	49	17	12.40079	29205.05	-87146.13	1	91909.65	-71.4726	-2.383068E-010	0.001475	6
	50	17	9.93114	36520.01	-103986.3	1	110212.8	-70.64872	5.614099E-010	0.0014849	5
	51	17	7.944915	45210.99	-123730	1	131731.3	-69.92767	7.093411E-010	0.0014751	5
	52	18	6.317385	56299.48	-147435.2	1	157818.8	-69.10018	6.537015E-010	0.0014753	5
	53	19	5.008013	70613.8	-175548.8	1	189218.7	-68.08775	4.200496E-010	0.001469	5
	54	20	3.945707	88528.66	-209210.5	1	227170.3	-67.06406	5.839909E-010	0.0014791	5
	55	21	3.158693	109181.1	-244785.3	1	268030.5	-65.96179	2.362364E-010	0.0014857	5
	56	23	2.504006	135133.5	-287721.8	1	317875.5	-64.84209	9.888153E-011	0.0014759	5
	57	24	1.998082	165302.4	-334145.7	1	372797.8	-63.67833	3.939928E-010	0.0015036	5
	58	26	1.584686	202197.1	-389783.4	1	439106.8	-62.58232	3.449376E-010	0.00152	5
	59	28	1.266892	243145.1	-449901.5	1	511400.9	-61.6114	3.375607E-010	0.0014926	5
	60	30	0.999041	294673	-521184.2	1	598719.6	-60.51656	2.994161E-010	0.001471	5
