EXPLAIN
TAG	EISPOT
TITLE	LABEL	Potentiostatic EIS	Test &Identifier
DATE	LABEL	10/28/2019	Date
TIME	LABEL	9:09:47	Time
NOTES	NOTES	1	&Notes...
	
PSTAT	PSTAT	REF600-11020	Potentiostat
VDC	POTEN	0.00000E+000	T	DC &Voltage (V)
FREQINIT	QUANT	1.00000E+006	Initial Fre&q. (Hz)
FREQFINAL	QUANT	1.00000E+000	Final Fre&q. (Hz)
PTSPERDEC	QUANT	1.00000E+001	Points/&decade
VAC	QUANT	2.50000E+001	AC &Voltage (mV rms)
AREA	QUANT	1.00000E-002	&Area (cm^2)
CONDIT	TWOPARAM	T	5.00000E+000	0.00000E+000	Conditionin&g	Time(s)	E(V)
DELAY	TWOPARAM	T	5.00000E+000	0.00000E+000	Init. De&lay	Time(s)	Stab.(mV/s)
SPEED	SELECTOR	1	&Optimize for:
ZGUESS	QUANT	1.00000E+005	E&stimated Z (ohms)
OCVCURVE	TABLE	19
	Pt	T	Vf	Vm	Ach	Over
	#	s	V vs. Ref.	V	V	bits
	0	0.258333	6.79747E-003	6.79747E-003	5.87165E-004	...........
	1	0.516667	6.79601E-003	6.72123E-003	5.91032E-004	...........
	2	0.775	6.78912E-003	6.75618E-003	5.90065E-004	...........
	3	1.03333	6.77823E-003	6.88444E-003	5.84732E-004	...........
	4	1.29167	6.77690E-003	6.85451E-003	5.90365E-004	...........
	5	1.55	6.79839E-003	7.03826E-003	5.89565E-004	...........
	6	1.80833	6.84421E-003	7.04018E-003	5.86599E-004	...........
	7	2.06667	6.90910E-003	7.19264E-003	5.77832E-004	...........
	8	2.325	6.98478E-003	7.14355E-003	5.82665E-004	...........
	9	2.58333	7.06070E-003	7.30233E-003	5.91899E-004	...........
	10	2.84167	7.13227E-003	7.39718E-003	5.92165E-004	...........
	11	3.1	7.20438E-003	7.38464E-003	5.90832E-004	...........
	12	3.35833	7.27503E-003	7.30785E-003	5.89532E-004	...........
	13	3.61667	7.32587E-003	7.29231E-003	5.91765E-004	...........
	14	3.875	7.34382E-003	7.36694E-003	5.96199E-004	...........
	15	4.13333	7.34319E-003	7.49442E-003	5.86865E-004	...........
	16	4.39167	7.35432E-003	7.52074E-003	5.88299E-004	...........
	17	4.65	7.39457E-003	7.64996E-003	5.81565E-004	...........
	18	4.90833	7.46088E-003	7.75677E-003	5.85699E-004	...........
EOC	QUANT	0.0074609	Open Circuit (V)
PSTATMODEL	IQUANT	4	Pstat Model
PSTATSECTION	LABEL	REF600-11020	Pstat Section
PSTATSERIALNO	LABEL	11020	Pstat Serial Number
CTRLMODE	IQUANT	1	Control Mode
IESTAB	IQUANT	0	I/E Stability
CASPEED	IQUANT	1	Control Amp Speed
CONVENTION	IQUANT	1	Current Convention
ICHRANGE	IQUANT	2	Ich Range
ICHRANGEMODE	TOGGLE	F	Ich Auto Range
ICHOFFSETENABLE	TOGGLE	T	Ich Offset Enable
ICHOFFSET	QUANT	0	Ich Offset (V)
ICHFILTER	IQUANT	3	Ich Filter
VCHRANGE	IQUANT	2	Vch Range
VCHRANGEMODE	TOGGLE	F	Vch Auto Range
VCHOFFSETENABLE	TOGGLE	T	Vch Offset Enable
VCHOFFSET	QUANT	0	Vch Offset (V)
VCHFILTER	IQUANT	3	Vch Filter
ACHRANGE	IQUANT	2	Ach Range
ACHOFFSETENABLE	TOGGLE	F	Ach Offset Enable
ACHOFFSET	QUANT	0	Ach Offset (V)
ACHFILTER	IQUANT	3	Ach Filter
IERANGELOWERLIMIT	IQUANT	1	I/E Range Lower Limit
IERANGEMODE	TOGGLE	F	I/E AutoRange
IERANGE	IQUANT	5	I/E Range
POSFEEDENABLE	TOGGLE	F	Positive Feedback IR Comp
POSFEEDRESISTANCE	QUANT	0	Positive Feedback Resistance (ohm)
ACHSELECT	IQUANT	0	Ach Select
CABLEID	IQUANT	14	Cable ID
DCCALDATE	LABEL	8/19/2019	DC Calibration Date
ACCALDATE	LABEL	8/19/2019	AC Calibration Date
THERMOSELECT	IQUANT	1	Thermo Select
FRAMEWORKVERSION	QUANT	6.33	Framework Version
INSTRUMENTVERSION	LABEL	3.50	Instrument Version
ZCURVE	TABLE
	Pt	Time	Freq	Zreal	Zimag	Zsig	Zmod	Zphz	Idc	Vdc	IERange
	#	s	Hz	ohm	ohm	V	ohm	°	A	V	#
	0	2	1000078	2187.397	-1285.932	1	2537.385	-30.45051	-8.492426E-007	0.0095977	8
	1	4	794390.6	2415.994	-1233.835	1	2712.817	-27.05314	6.884138E-006	0.0082176	8
	2	5	630984.4	2627.999	-1135.163	1	2862.687	-23.3619	3.632529E-007	0.0087013	8
	3	6	501234.4	2813.186	-1028.483	1	2995.295	-20.08208	1.13823E-006	0.0089014	8
	4	8	398109.4	2960.738	-924.2303	1	3101.64	-17.33639	2.100694E-006	0.008644	8
	5	9	316265.6	3088.736	-836.3962	1	3199.976	-15.15171	5.895336E-007	0.0089365	8
	6	11	251203.1	3186.281	-726.0912	1	3267.965	-12.83737	-3.361474E-008	0.0090098	8
	7	12	199546.9	3276.897	-645.0352	1	3339.78	-11.13592	4.238748E-006	0.0082685	8
	8	14	158578.1	3329.305	-579.4421	1	3379.353	-9.87303	-1.72948E-007	0.009102	8
	9	15	125953.1	3413.016	-447.857	1	3442.275	-7.475657	5.659008E-007	0.0076484	7
	10	16	100078.1	3454.241	-417.1445	1	3479.338	-6.885866	1.322719E-007	0.0088255	7
	11	18	79453.13	3492.99	-393.9221	1	3515.132	-6.434349	8.645942E-008	0.0089698	7
	12	19	63140.62	3530.716	-379.2374	1	3551.024	-6.130688	-4.457099E-008	0.0091812	7
	13	20	50203.12	3565.77	-371.7771	1	3585.099	-5.952311	-4.840526E-009	0.0090471	7
	14	22	39890.62	3601.617	-371.5661	1	3620.733	-5.890165	-4.073134E-008	0.0090959	7
	15	23	31640.63	3637.101	-379.3126	1	3656.826	-5.953843	-4.825114E-008	0.0090678	7
	16	25	25171.88	3671.426	-396.7836	1	3692.804	-6.168211	4.446309E-008	0.0088589	7
	17	26	20015.62	3697.075	-432.6512	1	3722.305	-6.674693	-4.366143E-008	0.0091535	7
	18	27	15890.62	3744.936	-455.045	1	3772.481	-6.928014	-9.525542E-009	0.0089567	7
	19	29	12609.37	3785.446	-504.4035	1	3818.904	-7.589845	-3.428515E-008	0.0090182	7
	20	30	10078.13	3823.929	-558.7378	1	3864.534	-8.313011	-1.124296E-008	0.0089545	7
	21	31	8015.625	3867.791	-641.899	1	3920.694	-9.422929	-4.409584E-008	0.0090634	7
	22	33	6328.125	3912.615	-724.8455	1	3979.19	-10.49554	3.954208E-008	0.0089675	7
	23	34	5015.625	3961.436	-843.3923	1	4050.22	-12.01886	-5.758053E-008	0.009128	7
	24	35	3984.375	4023.663	-992.959	1	4144.374	-13.86247	-4.429432E-008	0.0090609	7
	25	37	3170.956	4073.137	-1167.163	1	4237.064	-15.98973	8.275735E-008	0.0089702	7
	26	38	2527.573	4137.644	-1384.531	1	4363.144	-18.50117	1.537327E-007	0.0087751	7
	27	40	1976.103	4219.928	-1678.468	1	4541.48	-21.69009	-4.843864E-008	0.0090356	7
	28	41	1577.524	4320.178	-2037.582	1	4776.576	-25.25059	1.553047E-007	0.0087645	7
	29	42	1265.625	4402.205	-2392.683	1	5010.423	-28.52493	8.28433E-008	0.0088627	7
	30	44	998.264	4519.982	-2909.974	1	5375.703	-32.77352	-5.921373E-008	0.0091242	7
	31	45	796.875	4650.121	-3511.173	1	5826.831	-37.05541	-9.484911E-009	0.009038	7
	32	46	627.7902	4807.17	-4295.056	1	6446.424	-41.77979	9.388874E-008	0.0088066	7
	33	48	505.5147	4972.123	-5174.55	1	7176.208	-46.14291	1.54973E-007	0.0087632	7
	34	49	397.9953	5191.125	-6369.918	1	8217.276	-50.8219	7.742578E-009	0.0090196	7
	35	51	315.5048	5449.613	-7814.432	1	9527	-55.10892	6.24813E-009	0.009019	7
	36	52	252.4038	5758.284	-9522.57	1	11128.22	-58.83872	1.14416E-009	0.0089577	6
	37	53	198.6229	6176.599	-11795	1	13314.36	-62.36063	1.287389E-009	0.008961	6
	38	55	158.3615	6680.671	-14449.16	1	15918.84	-65.1862	8.629283E-011	0.0089643	6
	39	56	125.558	7358.578	-17784.89	1	19247.1	-67.52245	1.331712E-009	0.0089628	6
	40	57	100.4464	8201.738	-21738.23	1	23234.01	-69.32874	1.930038E-009	0.0089617	6
	41	59	79.00281	9342.647	-26844.34	1	28423.65	-70.81055	1.297639E-009	0.008954	6
	42	60	63.3446	10784.8	-32298.14	1	34051.16	-71.53512	-4.586583E-011	0.0089554	6
	43	62	49.86702	13144.76	-40566.13	1	42642.65	-72.04597	3.679998E-011	0.0089518	6
	44	63	39.72458	15625.79	-49159.61	1	51583.26	-72.36671	1.393029E-009	0.0089599	6
	45	64	31.6723	18949.05	-59592.18	1	62532.35	-72.36044	9.671653E-010	0.0089616	6
	46	66	24.93351	23925.31	-72857.41	1	76685.21	-71.82057	9.88215E-010	0.0089601	6
	47	67	19.86229	30129.2	-87744.44	1	92773.13	-71.04884	8.156673E-010	0.0089583	6
	48	69	15.83615	38875.67	-105927	1	112835.5	-69.84663	-1.519645E-009	0.0089655	5
	49	70	12.40079	49429	-127273.5	1	136534.9	-68.77541	-6.704745E-010	0.0089708	5
	50	72	9.93114	62338.14	-150967.4	1	163331.6	-67.56306	2.117692E-010	0.0089637	5
	51	73	7.944915	79680.04	-177018	1	194124.4	-65.76635	3.109135E-010	0.0089636	5
	52	75	6.317385	99915.3	-206439.4	1	229347.5	-64.17332	1.800062E-010	0.0089492	5
	53	77	5.008013	126378.2	-239804.8	1	271067.8	-62.21056	-5.610504E-011	0.0089605	5
	54	79	3.945707	158087.1	-276311.7	1	318339	-60.2247	-1.793098E-010	0.0089621	5
	55	82	3.158693	192816.1	-312898.9	1	367537.4	-58.35759	1.56325E-010	0.0089639	5
	56	85	2.504006	233481.8	-353780.1	1	423879.8	-56.57667	-2.822497E-010	0.0089648	5
	57	88	1.998082	275801.7	-395258.7	1	481971	-55.09362	2.925352E-010	0.0089232	5
	58	91	1.584686	324164	-444333	1	550012.8	-53.88731	-1.635013E-010	0.0089287	5
	59	95	1.266892	373191.8	-494443.2	1	619472.5	-52.95552	1.73848E-010	0.0089229	5
	60	99	0.999041	428641.7	-557474.7	1	703215.3	-52.44335	-1.963985E-010	0.0089833	5
