EXPLAIN
TAG	EISPOT
TITLE	LABEL	Potentiostatic EIS	Test &Identifier
DATE	LABEL	11/9/2019	Date
TIME	LABEL	9:54:17	Time
NOTES	NOTES	2	&Notes...
	
	
PSTAT	PSTAT	REF600-11020	Potentiostat
VDC	POTEN	0.00000E+000	T	DC &Voltage (V)
FREQINIT	QUANT	1.00000E+006	Initial Fre&q. (Hz)
FREQFINAL	QUANT	1.00000E+000	Final Fre&q. (Hz)
PTSPERDEC	QUANT	1.00000E+001	Points/&decade
VAC	QUANT	2.50000E+001	AC &Voltage (mV rms)
AREA	QUANT	1.00000E-002	&Area (cm^2)
CONDIT	TWOPARAM	T	5.00000E+000	0.00000E+000	Conditionin&g	Time(s)	E(V)
DELAY	TWOPARAM	T	5.00000E+000	0.00000E+000	Init. De&lay	Time(s)	Stab.(mV/s)
SPEED	SELECTOR	0	&Optimize for:
ZGUESS	QUANT	1.00000E+005	E&stimated Z (ohms)
OCVCURVE	TABLE	19
	Pt	T	Vf	Vm	Ach	Over
	#	s	V vs. Ref.	V	V	bits
	0	0.258333	-4.63452E-003	-4.63452E-003	5.52113E-004	...........
	1	0.516667	-4.64522E-003	-5.19498E-003	5.51946E-004	...........
	2	0.775	-4.71065E-003	-5.70956E-003	5.50613E-004	...........
	3	1.03333	-4.89439E-003	-6.18789E-003	5.53513E-004	...........
	4	1.29167	-5.21959E-003	-6.63712E-003	5.58246E-004	...........
	5	1.55	-5.64603E-003	-7.06421E-003	5.50279E-004	...........
	6	1.80833	-6.11145E-003	-7.47031E-003	5.54013E-004	...........
	7	2.06667	-6.57241E-003	-7.86430E-003	5.53879E-004	...........
	8	2.325	-7.01150E-003	-8.24085E-003	5.57313E-004	...........
	9	2.58333	-7.42701E-003	-8.59943E-003	5.58313E-004	...........
	10	2.84167	-7.82211E-003	-8.94560E-003	5.56046E-004	...........
	11	3.1	-8.19975E-003	-9.28235E-003	5.53346E-004	...........
	12	3.35833	-8.56208E-003	-9.60498E-003	5.58279E-004	...........
	13	3.61667	-8.91095E-003	-9.92454E-003	5.61346E-004	...........
	14	3.875	-9.24804E-003	-1.02293E-002	5.55346E-004	...........
	15	4.13333	-9.57477E-003	-1.05319E-002	5.57579E-004	...........
	16	4.39167	-9.89217E-003	-1.08217E-002	5.53146E-004	...........
	17	4.65	-1.02009E-002	-1.11075E-002	5.54346E-004	...........
	18	4.90833	-1.05015E-002	-1.13833E-002	5.52579E-004	...........
EOC	QUANT	-0.0105015	Open Circuit (V)
PSTATMODEL	IQUANT	4	Pstat Model
PSTATSECTION	LABEL	REF600-11020	Pstat Section
PSTATSERIALNO	LABEL	11020	Pstat Serial Number
CTRLMODE	IQUANT	1	Control Mode
IESTAB	IQUANT	0	I/E Stability
CASPEED	IQUANT	1	Control Amp Speed
CONVENTION	IQUANT	1	Current Convention
ICHRANGE	IQUANT	2	Ich Range
ICHRANGEMODE	TOGGLE	F	Ich Auto Range
ICHOFFSETENABLE	TOGGLE	T	Ich Offset Enable
ICHOFFSET	QUANT	0	Ich Offset (V)
ICHFILTER	IQUANT	3	Ich Filter
VCHRANGE	IQUANT	2	Vch Range
VCHRANGEMODE	TOGGLE	F	Vch Auto Range
VCHOFFSETENABLE	TOGGLE	T	Vch Offset Enable
VCHOFFSET	QUANT	0	Vch Offset (V)
VCHFILTER	IQUANT	3	Vch Filter
ACHRANGE	IQUANT	2	Ach Range
ACHOFFSETENABLE	TOGGLE	F	Ach Offset Enable
ACHOFFSET	QUANT	0	Ach Offset (V)
ACHFILTER	IQUANT	1	Ach Filter
IERANGELOWERLIMIT	IQUANT	1	I/E Range Lower Limit
IERANGEMODE	TOGGLE	F	I/E AutoRange
IERANGE	IQUANT	5	I/E Range
POSFEEDENABLE	TOGGLE	F	Positive Feedback IR Comp
POSFEEDRESISTANCE	QUANT	0	Positive Feedback Resistance (ohm)
ACHSELECT	IQUANT	0	Ach Select
CABLEID	IQUANT	14	Cable ID
DCCALDATE	LABEL	8/19/2019	DC Calibration Date
ACCALDATE	LABEL	8/19/2019	AC Calibration Date
THERMOSELECT	IQUANT	1	Thermo Select
FRAMEWORKVERSION	QUANT	6.33	Framework Version
INSTRUMENTVERSION	LABEL	3.50	Instrument Version
ZCURVE	TABLE
	Pt	Time	Freq	Zreal	Zimag	Zsig	Zmod	Zphz	Idc	Vdc	IERange
	#	s	Hz	ohm	ohm	V	ohm	°	A	V	#
	0	1	1000078	1156.875	-1594.553	1	1970.015	-54.03848	-2.324334E-006	-0.0075492	8
	1	1	794390.6	1258.989	-1870.564	1	2254.786	-56.05734	1.280806E-007	-0.0079022	8
	2	2	630984.4	1376.559	-2237.833	1	2627.32	-58.40306	-2.243159E-006	-0.0090806	8
	3	2	501234.4	1527.573	-2680.924	1	3085.585	-60.32579	2.619198E-007	-0.0092646	8
	4	2	398109.4	1712.337	-3227.667	1	3653.756	-62.05322	-5.696401E-006	-0.0084555	8
	5	3	316265.6	1990.854	-3881.579	1	4362.357	-62.8468	1.105538E-006	-0.0084364	8
	6	3	251203.1	2324.235	-4672.146	1	5218.334	-63.5512	-5.751424E-007	-0.0083699	8
	7	3	199546.9	2710.67	-5627.015	1	6245.881	-64.27876	-3.244608E-006	-0.0082976	8
	8	3	158578.1	3313.73	-6757.97	1	7526.684	-63.87926	6.744901E-006	-0.0101997	8
	9	4	125953.1	4123.685	-8058.897	1	9052.657	-62.90147	1.650577E-006	-0.0157694	7
	10	4	100078.1	5123.108	-9431.006	1	10732.67	-61.48832	1.575805E-006	-0.0107801	7
	11	5	79453.13	6491.989	-11030.35	1	12799.01	-59.52078	-1.156924E-006	-0.0065878	7
	12	5	63140.62	8170.61	-12776.06	1	15165.31	-57.40006	-1.74228E-006	-0.0072661	7
	13	5	50203.12	10210.86	-14418.55	1	17667.95	-54.69482	-1.155804E-006	-0.0065933	7
	14	6	39890.62	12616.08	-16072.84	1	20432.86	-51.87051	1.002597E-006	-0.0089107	7
	15	6	31640.63	15501.58	-17543.61	1	23411.05	-48.53608	-1.157853E-006	-0.006595	7
	16	6	25171.88	18565.09	-19059.35	1	26606.79	-45.75262	1.576779E-006	-0.0107963	7
	17	7	20015.62	21781.05	-19897.81	1	29501.48	-42.41287	-1.703704E-006	-0.0068015	7
	18	7	15890.62	25337.56	-21068.29	1	32952.46	-39.74368	9.428637E-007	-0.0114459	7
	19	7	12609.37	28801.19	-20931.61	1	35603.95	-36.00822	-2.119811E-007	-0.0050609	6
	20	8	10078.13	32056.24	-21264.8	1	38468.09	-33.55867	-1.465131E-007	-0.0052897	6
	21	8	8015.625	35323.67	-21918.19	1	41571.25	-31.81943	-6.111131E-008	-0.0107681	6
	22	8	6328.125	38529.54	-22346.11	1	44540.7	-30.11259	-6.145839E-008	-0.0107669	6
	23	8	5015.625	41729.66	-23007.38	1	47651.9	-28.86986	2.327392E-007	-0.0116175	6
	24	9	3984.375	44760.05	-23346.32	1	50482.79	-27.54602	-2.63393E-007	-0.0060633	6
	25	9	3170.956	47802.82	-24232.45	1	53594.04	-26.88159	-2.531861E-007	-0.0053315	6
	26	9	2527.573	51345.01	-25444.5	1	57303.86	-26.36115	2.04201E-007	-0.0100234	6
	27	10	1976.103	55533.78	-26988.1	1	61744.3	-25.91865	2.332807E-007	-0.0116236	6
	28	10	1577.524	57351.99	-25921.88	1	62938.02	-24.32195	2.387553E-007	-0.0077582	7
	29	11	1265.625	62389.37	-29493.05	1	69009.23	-25.3013	1.460066E-007	-0.0125565	6
	30	11	998.264	66006.3	-30832.47	1	72852.4	-25.03794	-6.835398E-008	-0.0059254	6
	31	11	796.875	69041.69	-31541.3	1	75905.26	-24.55302	2.384359E-007	-0.0077573	7
	32	12	627.7902	75539.09	-35227.71	1	83349.54	-25.00203	1.46771E-007	-0.012559	6
	33	12	505.5147	79290.02	-36666.1	1	87357.38	-24.81724	-2.409437E-007	-0.0071939	6
	34	13	397.9953	84833.45	-39226.65	1	93463.59	-24.81564	1.323868E-010	-0.0090208	6
	35	13	315.5048	90162.28	-41296.64	1	99169.8	-24.609	1.261227E-009	-0.009023	5
	36	13	252.4038	95321.9	-44073.86	1	105017.9	-24.81435	1.032268E-009	-0.0090235	5
	37	14	198.6229	100896.7	-47675.16	1	111593.3	-25.29142	8.432162E-010	-0.0090233	5
	38	14	158.3615	106480	-51594	1	118321.3	-25.85212	1.259955E-009	-0.0090264	5
	39	14	125.558	112433.1	-56600.63	1	125876.3	-26.72142	9.893272E-010	-0.0090261	5
	40	15	100.4464	117930.3	-62246.91	1	133350	-27.82634	-3.726067E-010	-0.0090241	5
	41	15	79.00281	125353.3	-68144.91	1	142678.6	-28.52951	-1.391572E-011	-0.0090279	5
	42	15	63.3446	135352.8	-71094.59	1	152888.2	-27.71088	7.336371E-010	-0.0090185	5
	43	16	49.86702	144330.1	-83560.69	1	166774	-30.06893	1.424797E-009	-0.0090237	5
	44	16	39.72458	151346.8	-98057.3	1	180336.1	-32.93913	8.040111E-010	-0.0090219	5
	45	16	31.6723	162181.8	-111795.6	1	196980.2	-34.57938	8.297568E-010	-0.0090266	5
	46	17	24.93351	176318	-126160	1	216804.9	-35.58468	8.759864E-010	-0.0090309	5
	47	17	19.86229	190673	-142824.6	1	238233.2	-36.83524	1.803208E-009	-0.0090239	5
	48	17	15.83615	202947.9	-163934.2	1	260887.5	-38.93007	9.269641E-010	-0.0090328	5
	49	18	12.40079	224890.6	-187487.8	1	292792.6	-39.81744	2.583084E-010	-0.0090349	5
	50	18	9.93114	249169.4	-208505.3	1	324899.8	-39.92264	4.011626E-011	-0.00902	5
	51	19	7.944915	274051.7	-237164.1	1	362423.9	-40.87289	6.234936E-010	-0.0090225	5
	52	19	6.317385	301082.8	-267516	1	402760.1	-41.62151	3.132211E-010	-0.0090257	5
	53	20	5.008013	335044	-303448.3	1	452034.7	-42.16703	1.702925E-010	-0.0090434	5
	54	21	3.945707	374687.3	-343211.6	1	508118.8	-42.48952	5.358117E-010	-0.0090326	5
	55	22	3.158693	416919.7	-384116.2	1	566892.6	-42.65498	4.814362E-010	-0.0090064	5
	56	24	2.504006	466435.8	-430775.6	1	634925.1	-42.72394	2.285722E-010	-0.0090313	5
	57	25	1.998082	516712.1	-480418.1	1	705544.4	-42.91544	3.254577E-010	-0.0090233	5
	58	27	1.584686	576155.4	-537485	1	787937.3	-43.01124	4.741542E-010	-0.0089858	5
	59	29	1.266892	637532.7	-602835	1	877415.5	-43.39764	4.849616E-010	-0.0090043	5
	60	31	0.999041	708709.6	-681272.6	1	983057	-43.86918	4.789558E-010	-0.0090392	5
