EXPLAIN
TAG	EISPOT
TITLE	LABEL	Potentiostatic EIS	Test &Identifier
DATE	LABEL	10/16/2019	Date
TIME	LABEL	10:15:10	Time
NOTES	NOTES	1	&Notes...
	
PSTAT	PSTAT	REF600-11020	Potentiostat
VDC	POTEN	0.00000E+000	T	DC &Voltage (V)
FREQINIT	QUANT	1.00000E+006	Initial Fre&q. (Hz)
FREQFINAL	QUANT	1.00000E+000	Final Fre&q. (Hz)
PTSPERDEC	QUANT	1.00000E+001	Points/&decade
VAC	QUANT	2.50000E+001	AC &Voltage (mV rms)
AREA	QUANT	1.00000E-002	&Area (cm^2)
CONDIT	TWOPARAM	T	5.00000E+000	0.00000E+000	Conditionin&g	Time(s)	E(V)
DELAY	TWOPARAM	T	5.00000E+000	0.00000E+000	Init. De&lay	Time(s)	Stab.(mV/s)
SPEED	SELECTOR	0	&Optimize for:
ZGUESS	QUANT	1.00000E+005	E&stimated Z (ohms)
OCVCURVE	TABLE	19
	Pt	T	Vf	Vm	Ach	Over
	#	s	V vs. Ref.	V	V	bits
	0	0.258333	3.74463E-003	3.74463E-003	6.06832E-004	...........
	1	0.516667	3.70460E-003	1.64960E-003	5.91265E-004	...........
	2	0.775	3.50237E-003	1.94253E-003	5.91399E-004	...........
	3	1.03333	3.03783E-003	2.79811E-004	6.04898E-004	...........
	4	1.29167	2.30494E-003	-2.35874E-003	6.00299E-004	...........
	5	1.55	1.30014E-003	-1.81265E-003	5.89532E-004	...........
	6	1.80833	1.47919E-004	-3.89110E-004	5.94032E-004	...........
	7	2.06667	-7.17977E-004	1.35171E-003	6.00765E-004	...........
	8	2.325	-8.70397E-004	1.44031E-003	6.03298E-004	...........
	9	2.58333	-3.47615E-004	1.19820E-003	5.96765E-004	...........
	10	2.84167	3.71080E-004	-2.65257E-004	6.00665E-004	...........
	11	3.1	7.87979E-004	2.08369E-004	6.11498E-004	...........
	12	3.35833	7.80459E-004	1.11149E-003	5.99765E-004	...........
	13	3.61667	6.17984E-004	9.05802E-004	5.99299E-004	...........
	14	3.875	5.94092E-004	1.46828E-003	6.02698E-004	...........
	15	4.13333	7.69541E-004	2.03492E-003	6.08798E-004	...........
	16	4.39167	1.08223E-003	2.41422E-003	6.00932E-004	...........
	17	4.65	1.47341E-003	2.44712E-003	5.97298E-004	...........
	18	4.90833	1.86749E-003	2.46025E-003	6.14632E-004	...........
EOC	QUANT	0.0018675	Open Circuit (V)
PSTATMODEL	IQUANT	4	Pstat Model
PSTATSECTION	LABEL	REF600-11020	Pstat Section
PSTATSERIALNO	LABEL	11020	Pstat Serial Number
CTRLMODE	IQUANT	1	Control Mode
IESTAB	IQUANT	0	I/E Stability
CASPEED	IQUANT	1	Control Amp Speed
CONVENTION	IQUANT	1	Current Convention
ICHRANGE	IQUANT	2	Ich Range
ICHRANGEMODE	TOGGLE	F	Ich Auto Range
ICHOFFSETENABLE	TOGGLE	T	Ich Offset Enable
ICHOFFSET	QUANT	0	Ich Offset (V)
ICHFILTER	IQUANT	3	Ich Filter
VCHRANGE	IQUANT	2	Vch Range
VCHRANGEMODE	TOGGLE	F	Vch Auto Range
VCHOFFSETENABLE	TOGGLE	T	Vch Offset Enable
VCHOFFSET	QUANT	0	Vch Offset (V)
VCHFILTER	IQUANT	3	Vch Filter
ACHRANGE	IQUANT	2	Ach Range
ACHOFFSETENABLE	TOGGLE	F	Ach Offset Enable
ACHOFFSET	QUANT	0	Ach Offset (V)
ACHFILTER	IQUANT	3	Ach Filter
IERANGELOWERLIMIT	IQUANT	1	I/E Range Lower Limit
IERANGEMODE	TOGGLE	F	I/E AutoRange
IERANGE	IQUANT	4	I/E Range
POSFEEDENABLE	TOGGLE	F	Positive Feedback IR Comp
POSFEEDRESISTANCE	QUANT	0	Positive Feedback Resistance (ohm)
ACHSELECT	IQUANT	0	Ach Select
CABLEID	IQUANT	14	Cable ID
DCCALDATE	LABEL	8/19/2019	DC Calibration Date
ACCALDATE	LABEL	8/19/2019	AC Calibration Date
THERMOSELECT	IQUANT	1	Thermo Select
FRAMEWORKVERSION	QUANT	6.33	Framework Version
INSTRUMENTVERSION	LABEL	3.50	Instrument Version
ZCURVE	TABLE
	Pt	Time	Freq	Zreal	Zimag	Zsig	Zmod	Zphz	Idc	Vdc	IERange
	#	s	Hz	ohm	ohm	V	ohm	°	A	V	#
	0	1	1000078	2491.51	-1831.016	1	3091.964	-36.31224	-1.528127E-006	0.004385	8
	1	1	794390.6	2849.605	-1798.36	1	3369.621	-32.25566	2.694751E-006	0.0031201	8
	2	2	630984.4	3186.516	-1691.982	1	3607.865	-27.96748	-9.613339E-007	0.0034692	8
	3	2	501234.4	3479.09	-1568.244	1	3816.209	-24.26407	3.895171E-006	0.0026056	8
	4	2	398109.4	3719.884	-1409.407	1	3977.935	-20.75093	-1.002844E-006	0.0033231	8
	5	3	316265.6	3912.848	-1245.299	1	4106.233	-17.65413	3.878037E-008	0.0034063	8
	6	3	251203.1	4068.981	-1105.731	1	4216.544	-15.2028	-2.500175E-006	0.0038543	8
	7	3	199546.9	4185.735	-971.142	1	4296.917	-13.06222	5.889709E-007	0.0033529	8
	8	3	158578.1	4288.56	-896.5518	1	4381.273	-11.808	6.011841E-007	0.0033544	8
	9	4	125953.1	4397.195	-738.3163	1	4458.748	-9.53141	-1.683789E-008	0.0030337	7
	10	4	100078.1	4454.774	-682.5192	1	4506.756	-8.710592	5.03795E-008	0.0032491	7
	11	4	79453.13	4515.331	-654.7932	1	4562.562	-8.25126	-6.230146E-008	0.0034028	7
	12	5	63140.62	4573.655	-640.7475	1	4618.319	-7.974965	-2.716794E-009	0.0033211	7
	13	5	50203.12	4633.863	-641.5752	1	4678.066	-7.882696	-3.403978E-008	0.0033212	7
	14	5	39890.62	4694.942	-654.061	1	4740.283	-7.930936	7.847709E-008	0.003253	7
	15	6	31640.63	4759.122	-684.1754	1	4808.049	-8.18084	-4.537337E-009	0.0032955	7
	16	6	25171.88	4826.814	-728.3854	1	4881.463	-8.581411	1.026155E-008	0.0033923	7
	17	6	20015.62	4901.666	-790.0776	1	4964.932	-9.156495	-2.670912E-008	0.0033072	7
	18	7	15890.62	4980.821	-859.0269	1	5054.355	-9.78536	5.068425E-008	0.0032315	7
	19	7	12609.37	5067.63	-948.3984	1	5155.612	-10.60019	-2.502294E-008	0.0033065	7
	20	7	10078.13	5168.825	-1057.414	1	5275.876	-11.56177	-2.522297E-008	0.0033062	7
	21	8	8015.625	5277.671	-1183.513	1	5408.744	-12.63943	1.091944E-008	0.0033878	7
	22	8	6328.125	5412.859	-1332.141	1	5574.374	-13.8261	-3.642137E-008	0.0034008	7
	23	8	5015.625	5559.017	-1505.359	1	5759.233	-15.15207	-4.687908E-008	0.0033677	7
	24	9	3984.375	5727.673	-1702.499	1	5975.345	-16.55411	3.726679E-008	0.0032582	7
	25	9	3170.956	5898.177	-1930.146	1	6205.961	-18.12039	-1.677921E-008	0.0033455	7
	26	9	2527.573	6092.814	-2187.227	1	6473.511	-19.74736	-6.298331E-008	0.0033888	7
	27	9	1976.103	6327.347	-2508.729	1	6806.544	-21.62782	-4.746137E-008	0.0033704	7
	28	10	1577.524	6520.932	-2904.465	1	7138.52	-24.0085	-4.683781E-008	0.0033661	7
	29	10	1265.625	6798.201	-3253.276	1	7536.534	-25.57342	-3.449332E-008	0.0033143	7
	30	10	998.264	7070.841	-3760.245	1	8008.51	-28.00387	-2.486549E-009	0.003308	7
	31	11	796.875	7341.253	-4333.164	1	8524.688	-30.55116	1.01974E-007	0.0031532	7
	32	11	627.7902	7633.252	-5082.651	1	9170.599	-33.65792	-2.54402E-008	0.0032975	7
	33	11	505.5147	7919.377	-5917.081	1	9885.77	-36.7658	1.061321E-009	0.0032686	6
	34	12	397.9953	8248.663	-7063.49	1	10859.71	-40.57409	3.961232E-010	0.0032672	6
	35	12	315.5048	8594.637	-8459.638	1	12059.57	-44.54646	1.12086E-009	0.003267	6
	36	12	252.4038	8966.234	-10129.01	1	13527.39	-48.48465	1.142839E-009	0.0032652	6
	37	13	198.6229	9433.723	-12365.28	1	15552.98	-52.65926	2.452729E-010	0.0032663	6
	38	13	158.3615	9964.74	-14993.72	1	18002.99	-56.3922	1.014764E-009	0.0032613	6
	39	13	125.558	10650.53	-18334.11	1	21203.15	-59.84713	4.967004E-010	0.0032641	6
	40	14	100.4464	11498.64	-22322.95	1	25110.42	-62.74682	5.836438E-011	0.0032607	6
	41	14	79.00281	12605.88	-27571.83	1	30316.89	-65.43006	1.02E-009	0.0032554	6
	42	14	63.3446	14318.01	-33175.53	1	36133.38	-66.65577	-1.221242E-010	0.0032567	6
	43	15	49.86702	16340.74	-41123.5	1	44251.13	-68.32922	-5.499924E-010	0.003253	6
	44	15	39.72458	18564.94	-50089.27	1	53419.02	-69.66343	1.397437E-010	0.0032587	6
	45	15	31.6723	21636.62	-60865.26	1	64596.62	-70.43052	-1.901245E-010	0.0032565	6
	46	16	24.93351	26324.06	-74481	1	78996.05	-70.5349	-1.355227E-010	0.0032537	6
	47	16	19.86229	31668.27	-89833.39	1	95251.9	-70.58131	-5.586092E-010	0.0032602	6
	48	16	15.83615	38724.38	-108401.4	1	115110.6	-70.34167	-3.385071E-010	0.0032596	5
	49	17	12.40079	49257.37	-130156.3	1	139165.2	-69.27097	-1.635096E-009	0.003263	5
	50	17	9.93114	59169.84	-155363.8	1	166249.7	-69.15081	7.904212E-011	0.0032637	5
	51	18	7.944915	72045.31	-184116	1	197710	-68.6294	2.527757E-010	0.003255	5
	52	18	6.317385	88105.46	-218288.9	1	235398.9	-68.02008	6.819995E-011	0.0032549	5
	53	19	5.008013	107681.2	-258890.4	1	280391.7	-67.41593	-2.010097E-011	0.003251	5
	54	20	3.945707	131406.6	-307735.8	1	334617.7	-66.87698	1.587162E-010	0.0032612	5
	55	21	3.158693	158349.2	-361038.8	1	394237.8	-66.31807	-1.304617E-010	0.0032608	5
	56	23	2.504006	190265.4	-426037.6	1	466593	-65.93479	-5.886588E-011	0.0032512	5
	57	24	1.998082	227629.9	-500153.5	1	549516.9	-65.52876	1.046092E-010	0.0032985	5
	58	26	1.584686	271129.1	-589500.2	1	648861.7	-65.30086	4.850821E-012	0.0032759	5
	59	28	1.266892	323425.5	-690425.2	1	762424.4	-64.89954	-3.743558E-011	0.0032333	5
	60	30	0.999041	390561.7	-817927.6	1	906390.6	-64.47546	-2.354809E-011	0.0032145	5
