EXPLAIN
TAG	EISPOT
TITLE	LABEL	Potentiostatic EIS	Test &Identifier
DATE	LABEL	10/24/2019	Date
TIME	LABEL	8:43:44	Time
NOTES	NOTES	1	&Notes...
	
PSTAT	PSTAT	REF600-11020	Potentiostat
VDC	POTEN	0.00000E+000	T	DC &Voltage (V)
FREQINIT	QUANT	1.00000E+006	Initial Fre&q. (Hz)
FREQFINAL	QUANT	1.00000E+000	Final Fre&q. (Hz)
PTSPERDEC	QUANT	1.00000E+001	Points/&decade
VAC	QUANT	2.50000E+001	AC &Voltage (mV rms)
AREA	QUANT	1.00000E-002	&Area (cm^2)
CONDIT	TWOPARAM	T	5.00000E+000	0.00000E+000	Conditionin&g	Time(s)	E(V)
DELAY	TWOPARAM	T	5.00000E+000	0.00000E+000	Init. De&lay	Time(s)	Stab.(mV/s)
SPEED	SELECTOR	1	&Optimize for:
ZGUESS	QUANT	1.00000E+005	E&stimated Z (ohms)
OCVCURVE	TABLE	19
	Pt	T	Vf	Vm	Ach	Over
	#	s	V vs. Ref.	V	V	bits
	0	0.258333	7.27799E-003	7.27799E-003	5.62632E-004	...........
	1	0.516667	7.27926E-003	7.34482E-003	5.59499E-004	...........
	2	0.775	7.28733E-003	7.42004E-003	5.60166E-004	...........
	3	1.03333	7.31098E-003	7.49628E-003	5.61266E-004	...........
	4	1.29167	7.35595E-003	7.61409E-003	5.59966E-004	...........
	5	1.55	7.42038E-003	7.61905E-003	5.61866E-004	...........
	6	1.80833	7.49410E-003	7.67720E-003	5.58899E-004	...........
	7	2.06667	7.56407E-003	7.74186E-003	5.61032E-004	...........
	8	2.325	7.62532E-003	7.81107E-003	5.59299E-004	...........
	9	2.58333	7.68313E-003	7.89394E-003	5.58799E-004	...........
	10	2.84167	7.74479E-003	7.98062E-003	5.63732E-004	...........
	11	3.1	7.81407E-003	8.06214E-003	5.65466E-004	...........
	12	3.35833	7.89095E-003	8.15779E-003	5.55666E-004	...........
	13	3.61667	7.97430E-003	8.28531E-003	5.66799E-004	...........
	14	3.875	8.06585E-003	8.43533E-003	5.69532E-004	...........
	15	4.13333	8.16968E-003	8.54337E-003	5.58799E-004	...........
	16	4.39167	8.28499E-003	8.60682E-003	5.65666E-004	...........
	17	4.65	8.40172E-003	8.68744E-003	5.61966E-004	...........
	18	4.90833	8.50745E-003	8.73585E-003	5.67332E-004	...........
EOC	QUANT	0.0085074	Open Circuit (V)
PSTATMODEL	IQUANT	4	Pstat Model
PSTATSECTION	LABEL	REF600-11020	Pstat Section
PSTATSERIALNO	LABEL	11020	Pstat Serial Number
CTRLMODE	IQUANT	1	Control Mode
IESTAB	IQUANT	0	I/E Stability
CASPEED	IQUANT	1	Control Amp Speed
CONVENTION	IQUANT	1	Current Convention
ICHRANGE	IQUANT	2	Ich Range
ICHRANGEMODE	TOGGLE	F	Ich Auto Range
ICHOFFSETENABLE	TOGGLE	T	Ich Offset Enable
ICHOFFSET	QUANT	0	Ich Offset (V)
ICHFILTER	IQUANT	3	Ich Filter
VCHRANGE	IQUANT	2	Vch Range
VCHRANGEMODE	TOGGLE	F	Vch Auto Range
VCHOFFSETENABLE	TOGGLE	T	Vch Offset Enable
VCHOFFSET	QUANT	0	Vch Offset (V)
VCHFILTER	IQUANT	3	Vch Filter
ACHRANGE	IQUANT	2	Ach Range
ACHOFFSETENABLE	TOGGLE	F	Ach Offset Enable
ACHOFFSET	QUANT	0	Ach Offset (V)
ACHFILTER	IQUANT	3	Ach Filter
IERANGELOWERLIMIT	IQUANT	1	I/E Range Lower Limit
IERANGEMODE	TOGGLE	F	I/E AutoRange
IERANGE	IQUANT	5	I/E Range
POSFEEDENABLE	TOGGLE	F	Positive Feedback IR Comp
POSFEEDRESISTANCE	QUANT	0	Positive Feedback Resistance (ohm)
ACHSELECT	IQUANT	0	Ach Select
CABLEID	IQUANT	14	Cable ID
DCCALDATE	LABEL	8/19/2019	DC Calibration Date
ACCALDATE	LABEL	8/19/2019	AC Calibration Date
THERMOSELECT	IQUANT	1	Thermo Select
FRAMEWORKVERSION	QUANT	6.33	Framework Version
INSTRUMENTVERSION	LABEL	3.50	Instrument Version
ZCURVE	TABLE
	Pt	Time	Freq	Zreal	Zimag	Zsig	Zmod	Zphz	Idc	Vdc	IERange
	#	s	Hz	ohm	ohm	V	ohm	°	A	V	#
	0	1	1000078	2014.665	-1006.137	1	2251.93	-26.53785	2.141596E-006	0.0107048	8
	1	3	794390.6	2200.468	-911.3482	1	2381.725	-22.49743	-1.110877E-008	0.0101972	8
	2	4	630984.4	2339.165	-801.7476	1	2472.75	-18.91913	3.526354E-007	0.0102224	8
	3	5	501234.4	2444.108	-705.1063	1	2543.784	-16.09244	3.599224E-007	0.0101074	8
	4	7	398109.4	2531.035	-610.6957	1	2603.668	-13.56522	-8.934823E-007	0.010256	8
	5	8	316265.6	2584.649	-519.7892	1	2636.397	-11.37087	2.981158E-006	0.0095113	8
	6	9	251203.1	2629.581	-451.1598	1	2668.004	-9.7355	-2.8762E-006	0.0105481	8
	7	11	199546.9	2674.133	-395.4078	1	2703.208	-8.411036	5.354713E-007	0.0098996	8
	8	12	158578.1	2697.468	-344.1255	1	2719.33	-7.270154	3.015164E-006	0.00955	8
	9	13	125953.1	2745.614	-288.6359	1	2760.744	-6.001244	-2.445565E-007	0.0110837	7
	10	15	100078.1	2761.98	-263.9088	1	2774.56	-5.458075	2.943763E-008	0.0099726	7
	11	16	79453.13	2783.017	-257.1731	1	2794.874	-5.279596	-1.88089E-009	0.0099788	7
	12	17	63140.62	2805.449	-257.1498	1	2817.21	-5.237145	-4.746986E-008	0.0100578	7
	13	19	50203.12	2829.012	-263.0221	1	2841.213	-5.311698	7.976882E-009	0.0100779	7
	14	20	39890.62	2854.314	-273.6332	1	2867.4	-5.476013	7.533292E-008	0.0099355	7
	15	21	31640.63	2881.707	-289.2221	1	2896.185	-5.73129	9.986513E-009	0.0099429	7
	16	23	25171.88	2910.48	-310.5707	1	2927.004	-6.090854	4.823859E-008	0.0099123	7
	17	24	20015.62	2942.458	-338.8574	1	2961.905	-6.569321	9.84584E-009	0.0099383	7
	18	25	15890.62	2977.304	-372.8139	1	3000.554	-7.13735	-1.166644E-008	0.0100257	7
	19	27	12609.37	3016.232	-413.2421	1	3044.409	-7.801298	7.250192E-009	0.0099817	7
	20	28	10078.13	3057.073	-462.3789	1	3091.843	-8.600733	9.665766E-008	0.0098626	7
	21	29	8015.625	3105.576	-523.0119	1	3149.309	-9.55951	-5.342214E-008	0.010098	7
	22	31	6328.125	3154.98	-590.9307	1	3209.844	-10.60863	-5.190004E-008	0.0100998	7
	23	32	5015.625	3210.313	-673.7487	1	3280.25	-11.85265	-4.627897E-008	0.0100506	7
	24	33	3984.375	3266.163	-771.9132	1	3356.139	-13.29709	-4.834801E-008	0.0100822	7
	25	35	3170.956	3334.112	-887.5055	1	3450.213	-14.90589	3.443672E-008	0.0098928	7
	26	36	2527.573	3403.276	-1025.34	1	3554.379	-16.76652	3.524939E-008	0.0098912	7
	27	37	1976.103	3484.172	-1206.868	1	3687.273	-19.10537	-1.877988E-008	0.009978	7
	28	39	1577.524	3584.405	-1431.573	1	3859.71	-21.77124	-2.206477E-008	0.009988	7
	29	40	1265.625	3650.041	-1648.699	1	4005.123	-24.30837	-5.908539E-008	0.010167	7
	30	41	998.264	3745.732	-1963.095	1	4228.978	-27.65851	-2.346061E-008	0.0099858	7
	31	43	796.875	3845.986	-2331.938	1	4497.726	-31.2297	-5.641473E-008	0.0100654	7
	32	44	627.7902	3960.457	-2819.088	1	4861.325	-35.44359	-1.068976E-008	0.0100202	7
	33	45	505.5147	4074.951	-3364.627	1	5284.5	-39.54599	7.794038E-009	0.0099707	7
	34	47	397.9953	4221.982	-4109.463	1	5891.759	-44.22625	5.819692E-009	0.0100163	7
	35	48	315.5048	4388.427	-5013.914	1	6663.154	-48.80597	5.943733E-009	0.0100126	7
	36	49	252.4038	4582.015	-6089.783	1	7621.045	-53.04182	5.546997E-009	0.0100123	7
	37	51	198.6229	4839.585	-7520.628	1	8943.233	-57.23839	5.370195E-009	0.0100127	7
	38	52	158.3615	5145.519	-9195.374	1	10537.14	-60.76963	1.101337E-009	0.009947	6
	39	53	125.558	5546.675	-11308.05	1	12595.14	-63.87174	7.293599E-010	0.0099502	6
	40	55	100.4464	6035.175	-13805.53	1	15067.05	-66.38715	-2.679947E-010	0.0099524	6
	41	56	79.00281	6697.9	-17088.82	1	18354.55	-68.59748	-1.14219E-010	0.0099482	6
	42	58	63.3446	7650.753	-20851.8	1	22211.07	-69.85136	1.338717E-010	0.00995	6
	43	59	49.86702	8625.457	-25768.25	1	27173.54	-71.49296	8.451096E-010	0.0099473	6
	44	60	39.72458	10055.62	-31348.05	1	32921.36	-72.21513	5.347151E-010	0.0099558	6
	45	62	31.6723	11850.53	-38242.31	1	40036.35	-72.78283	-3.336712E-010	0.0099518	6
	46	63	24.93351	14358.35	-46875.63	1	49025.37	-72.96978	7.570476E-010	0.0099495	6
	47	64	19.86229	17424.81	-56943.82	1	59550.18	-72.98589	1.79399E-010	0.0099479	6
	48	66	15.83615	21791.32	-68812.78	1	72180.75	-72.42828	2.455568E-009	0.0099492	6
	49	67	12.40079	26447.29	-84020.98	1	88085.1	-72.52756	1.055974E-009	0.0099512	6
	50	69	9.93114	32898.18	-101061.5	1	106281.4	-71.96857	2.20786E-010	0.0099613	5
	51	70	7.944915	40855.64	-120465.9	1	127205.4	-71.26579	1.153094E-009	0.0099525	5
	52	72	6.317385	51278.43	-144460.5	1	153291.6	-70.45692	5.669134E-010	0.009944	5
	53	74	5.008013	64458.07	-172957	1	184577.8	-69.56046	8.066204E-011	0.0099516	5
	54	76	3.945707	81153.71	-206793.1	1	222147.1	-68.57301	1.407632E-010	0.0099518	5
	55	79	3.158693	100288.3	-243487.4	1	263332.2	-67.61407	-1.366402E-010	0.0099346	5
	56	82	2.504006	124574.6	-287725.5	1	313536	-66.58915	4.684944E-010	0.0099534	5
	57	85	1.998082	153151.6	-336848.4	1	370030.1	-65.5506	1.621557E-010	0.00999	5
	58	88	1.584686	187131.3	-393758.9	1	435963.6	-64.58091	1.394034E-010	0.0099438	5
	59	92	1.266892	227580.4	-457988.5	1	511416	-63.57662	3.472489E-011	0.0099955	5
	60	96	0.999041	276994.1	-533609.3	1	601219.2	-62.56638	1.598513E-011	0.0099132	5
