EXPLAIN
TAG	EISPOT
TITLE	LABEL	Potentiostatic IDE	Test &Identifier
DATE	LABEL	9/8/2019	Date
TIME	LABEL	10:22:17	Time
NOTES	NOTES	1	&Notes...
	
PSTAT	PSTAT	REF600-11020	Potentiostat
VDC	POTEN	0.00000E+000	T	DC &Voltage (V)
FREQINIT	QUANT	1.00000E+006	Initial Fre&q. (Hz)
FREQFINAL	QUANT	1.00000E+000	Final Fre&q. (Hz)
PTSPERDEC	QUANT	1.00000E+001	Points/&decade
VAC	QUANT	2.50000E+001	AC &Voltage (mV rms)
AREA	QUANT	1.00000E-002	&Area (cm^2)
CONDIT	TWOPARAM	T	5.00000E+000	0.00000E+000	Conditionin&g	Time(s)	E(V)
DELAY	TWOPARAM	T	5.00000E+000	0.00000E+000	Init. De&lay	Time(s)	Stab.(mV/s)
SPEED	SELECTOR	1	&Optimize for:
ZGUESS	QUANT	1.00000E+007	E&stimated Z (ohms)
OCVCURVE	TABLE	19
	Pt	T	Vf	Vm	Ach	Over
	#	s	V vs. Ref.	V	V	bits
	0	0.258333	1.24280E-002	1.24280E-002	5.70499E-004	...........
	1	0.516667	1.24317E-002	1.26185E-002	5.72799E-004	...........
	2	0.775	1.24545E-002	1.28243E-002	5.71766E-004	...........
	3	1.03333	1.25209E-002	1.30328E-002	5.71099E-004	...........
	4	1.29167	1.26438E-002	1.32400E-002	5.71599E-004	...........
	5	1.55	1.28141E-002	1.34507E-002	5.72166E-004	...........
	6	1.80833	1.30118E-002	1.36559E-002	5.74066E-004	...........
	7	2.06667	1.32200E-002	1.38541E-002	5.76299E-004	...........
	8	2.325	1.34291E-002	1.40523E-002	5.78099E-004	...........
	9	2.58333	1.36349E-002	1.42447E-002	5.73332E-004	...........
	10	2.84167	1.38365E-002	1.44335E-002	5.76666E-004	...........
	11	3.1	1.40337E-002	1.46177E-002	5.75066E-004	...........
	12	3.35833	1.42267E-002	1.47971E-002	5.73432E-004	...........
	13	3.61667	1.44150E-002	1.49459E-002	5.81499E-004	...........
	14	3.875	1.45970E-002	1.51284E-002	5.77366E-004	...........
	15	4.13333	1.47731E-002	1.53361E-002	5.78666E-004	...........
	16	4.39167	1.49469E-002	1.54440E-002	5.75999E-004	...........
	17	4.65	1.51196E-002	1.56262E-002	5.77899E-004	...........
	18	4.90833	1.52877E-002	1.57788E-002	5.73366E-004	...........
EOC	QUANT	0.0152877	Open Circuit (V)
PSTATMODEL	IQUANT	4	Pstat Model
PSTATSECTION	LABEL	REF600-11020	Pstat Section
PSTATSERIALNO	LABEL	11020	Pstat Serial Number
CTRLMODE	IQUANT	1	Control Mode
IESTAB	IQUANT	0	I/E Stability
CASPEED	IQUANT	1	Control Amp Speed
CONVENTION	IQUANT	1	Current Convention
ICHRANGE	IQUANT	2	Ich Range
ICHRANGEMODE	TOGGLE	F	Ich Auto Range
ICHOFFSETENABLE	TOGGLE	T	Ich Offset Enable
ICHOFFSET	QUANT	0	Ich Offset (V)
ICHFILTER	IQUANT	3	Ich Filter
VCHRANGE	IQUANT	2	Vch Range
VCHRANGEMODE	TOGGLE	F	Vch Auto Range
VCHOFFSETENABLE	TOGGLE	T	Vch Offset Enable
VCHOFFSET	QUANT	0	Vch Offset (V)
VCHFILTER	IQUANT	3	Vch Filter
ACHRANGE	IQUANT	2	Ach Range
ACHOFFSETENABLE	TOGGLE	F	Ach Offset Enable
ACHOFFSET	QUANT	0	Ach Offset (V)
ACHFILTER	IQUANT	3	Ach Filter
IERANGELOWERLIMIT	IQUANT	1	I/E Range Lower Limit
IERANGEMODE	TOGGLE	F	I/E AutoRange
IERANGE	IQUANT	3	I/E Range
POSFEEDENABLE	TOGGLE	F	Positive Feedback IR Comp
POSFEEDRESISTANCE	QUANT	0	Positive Feedback Resistance (ohm)
ACHSELECT	IQUANT	0	Ach Select
CABLEID	IQUANT	14	Cable ID
DCCALDATE	LABEL	8/19/2019	DC Calibration Date
ACCALDATE	LABEL	8/19/2019	AC Calibration Date
THERMOSELECT	IQUANT	1	Thermo Select
FRAMEWORKVERSION	QUANT	6.33	Framework Version
INSTRUMENTVERSION	LABEL	3.50	Instrument Version
ZCURVE	TABLE
	Pt	Time	Freq	Zreal	Zimag	Zsig	Zmod	Zphz	Idc	Vdc	IERange
	#	s	Hz	ohm	ohm	V	ohm	°	A	V	#
	0	2	1000078	2798.913	-1655.881	1	3252.053	-30.60922	-4.795597E-006	0.0178694	8
	1	3	794390.6	3116.041	-1510.708	1	3462.939	-25.86486	-3.147098E-006	0.0183373	8
	2	5	630984.4	3358.494	-1349.761	1	3619.577	-21.89494	-3.671987E-006	0.0180493	8
	3	6	501234.4	3556.922	-1200.708	1	3754.117	-18.65311	1.230458E-006	0.0167984	8
	4	7	398109.4	3704.867	-1058.411	1	3853.086	-15.94365	-2.519916E-006	0.0172367	8
	5	9	316265.6	3826.97	-891.8067	1	3929.506	-13.11765	5.923E-006	0.0158592	8
	6	10	251203.1	3906.581	-790.6068	1	3985.779	-11.44089	1.942881E-006	0.0163024	8
	7	12	199546.9	3986.236	-683.108	1	4044.343	-9.72413	-2.284735E-006	0.0171633	8
	8	13	158578.1	4036.947	-609.7467	1	4082.736	-8.589119	4.073454E-006	0.0161553	8
	9	15	125953.1	4115.447	-502.6502	1	4146.03	-6.96347	-3.400704E-007	0.0172333	7
	10	16	100078.1	4127.623	-467.9416	1	4154.063	-6.46791	-1.477624E-008	0.016922	7
	11	17	79453.13	4165.524	-457.2176	1	4190.542	-6.263842	-2.026294E-008	0.0168438	7
	12	19	63140.62	4195.777	-457.0328	1	4220.595	-6.216541	9.279621E-008	0.01667	7
	13	20	50203.12	4232.151	-467.9722	1	4257.945	-6.309876	7.754726E-008	0.016828	7
	14	21	39890.62	4269.128	-487.4975	1	4296.872	-6.514464	7.725816E-008	0.0168233	7
	15	23	31640.63	4306.884	-531.7048	1	4339.581	-7.03782	9.469963E-008	0.0166696	7
	16	24	25171.88	4347.272	-584.9445	1	4386.449	-7.663371	8.19182E-008	0.0167142	7
	17	25	20015.62	4392.962	-654.9894	1	4441.523	-8.48031	2.367307E-010	0.0167919	7
	18	27	15890.62	4442.19	-740.3132	1	4503.456	-9.461672	-4.031256E-008	0.0169087	7
	19	28	12609.37	4500.698	-855.7003	1	4581.322	-10.76494	1.636923E-009	0.0167925	7
	20	30	10078.13	4563.112	-987.114	1	4668.66	-12.20641	-6.240701E-009	0.0168754	7
	21	31	8015.625	4635.149	-1153.982	1	4776.639	-13.98033	-1.37261E-008	0.016911	7
	22	32	6328.125	4723.921	-1363.104	1	4916.654	-16.09568	-7.014472E-008	0.0169596	7
	23	34	5015.625	4825.235	-1611.581	1	5087.247	-18.46881	3.963117E-008	0.0168151	7
	24	35	3984.375	4943.583	-1910.8	1	5300.016	-21.13257	9.583413E-008	0.0166609	7
	25	36	3170.956	5086.394	-2267.192	1	5568.803	-24.02429	2.858748E-008	0.016763	7
	26	38	2527.573	5254.971	-2689.373	1	5903.172	-27.10232	5.305174E-008	0.0166857	7
	27	39	1976.103	5478.795	-3239.665	1	6364.953	-30.59624	-1.903544E-008	0.016823	7
	28	40	1577.524	5727.499	-3842.219	1	6896.875	-33.85518	-1.750351E-008	0.0168327	7
	29	42	1265.625	6014.993	-4537.758	1	7534.679	-37.03119	5.075126E-008	0.0166925	7
	30	43	998.264	6398.777	-5421.281	1	8386.575	-40.27251	-3.997777E-008	0.0168989	7
	31	44	796.875	6822.259	-6414.161	1	9364.01	-43.23405	8.110197E-008	0.0168106	7
	32	45	627.7902	7377.181	-7647.718	1	10625.93	-46.03155	-5.082523E-009	0.0167886	6
	33	47	505.5147	7960.171	-8971.776	1	11994.04	-48.41909	-8.110495E-009	0.0168808	6
	34	48	397.9953	8713.937	-10692.63	1	13793.66	-50.82175	1.414371E-009	0.0168064	6
	35	49	315.5048	9570.76	-12676.32	1	15883.59	-52.94682	1.510945E-009	0.0168011	6
	36	51	252.4038	10525.74	-14934.21	1	18270.79	-54.82354	6.6232E-010	0.0168001	6
	37	52	198.6229	11713.22	-17819.24	1	21324.28	-56.68166	1.100445E-009	0.016802	6
	38	53	158.3615	13026.29	-21092.79	1	24790.93	-58.30173	8.828012E-010	0.0167984	6
	39	55	125.558	14587.21	-25093.37	1	29025.22	-59.82983	1.257011E-009	0.0167941	6
	40	56	100.4464	16379.47	-29687.16	1	33905.97	-61.1129	4.539304E-010	0.0167991	6
	41	57	79.00281	18555.36	-35636.77	1	40178.11	-62.4949	4.563861E-010	0.0167996	6
	42	59	63.3446	21326.92	-42648.47	1	47683.64	-63.43207	5.926522E-010	0.0167967	6
	43	60	49.86702	24084.29	-50632.7	1	56068.91	-64.56112	1.125613E-009	0.0167938	6
	44	62	39.72458	28033.37	-60656.66	1	66821.41	-65.19528	7.96078E-010	0.0168007	6
	45	63	31.6723	32574.68	-72068.3	1	79088.24	-65.67716	5.236517E-010	0.0168042	6
	46	64	24.93351	38194.08	-86828.98	1	94858.1	-66.2564	7.270877E-010	0.0167951	6
	47	66	19.86229	44737.6	-103229.3	1	112506.6	-66.56901	6.724684E-010	0.0168026	5
	48	67	15.83615	53798.68	-122349.6	1	133655.3	-66.26431	1.760202E-009	0.0168033	5
	49	68	12.40079	62807.66	-147321.4	1	160151.1	-66.90994	-5.847969E-010	0.0168099	5
	50	70	9.93114	75103.92	-175776.2	1	191148.8	-66.86443	6.666556E-010	0.0168006	5
	51	71	7.944915	89866.52	-208949.9	1	227455.6	-66.72811	2.24171E-010	0.0168078	5
	52	73	6.317385	106968.1	-247532.2	1	269656	-66.62899	-5.409806E-011	0.0168101	5
	53	75	5.008013	130288.1	-295465	1	322915.7	-66.20446	-3.169659E-011	0.0167973	5
	54	77	3.945707	159270	-352239.7	1	386574.4	-65.66925	2.898745E-010	0.0168106	5
	55	80	3.158693	193173.8	-413842.4	1	456707.4	-64.97772	-6.908821E-011	0.0167908	5
	56	83	2.504006	237292.1	-487430.9	1	542122.1	-64.04216	3.541037E-010	0.0168035	5
	57	86	1.998082	289032.8	-568454.9	1	637715.4	-63.04879	1.513738E-010	0.0168431	5
	58	89	1.584686	350497.4	-661393.9	1	748525.4	-62.0792	1.665663E-010	0.0168093	5
	59	93	1.266892	424776.7	-764292	1	874401.3	-60.93565	2.597895E-011	0.0168485	5
	60	97	0.999041	514899.1	-883673.9	1	1022742	-59.7715	8.100842E-011	0.0167766	4
