EXPLAIN
TAG	EISPOT
TITLE	LABEL	Potentiostatic EIS	Test &Identifier
DATE	LABEL	10/16/2019	Date
TIME	LABEL	9:02:06	Time
NOTES	NOTES	1	&Notes...
	
PSTAT	PSTAT	REF600-11020	Potentiostat
VDC	POTEN	0.00000E+000	T	DC &Voltage (V)
FREQINIT	QUANT	1.00000E+006	Initial Fre&q. (Hz)
FREQFINAL	QUANT	1.00000E+000	Final Fre&q. (Hz)
PTSPERDEC	QUANT	1.00000E+001	Points/&decade
VAC	QUANT	2.50000E+001	AC &Voltage (mV rms)
AREA	QUANT	1.00000E-002	&Area (cm^2)
CONDIT	TWOPARAM	T	5.00000E+000	0.00000E+000	Conditionin&g	Time(s)	E(V)
DELAY	TWOPARAM	T	5.00000E+000	0.00000E+000	Init. De&lay	Time(s)	Stab.(mV/s)
SPEED	SELECTOR	0	&Optimize for:
ZGUESS	QUANT	1.00000E+005	E&stimated Z (ohms)
OCVCURVE	TABLE	19
	Pt	T	Vf	Vm	Ach	Over
	#	s	V vs. Ref.	V	V	bits
	0	0.258333	5.50833E-003	5.50833E-003	5.42699E-004	...........
	1	0.516667	5.50931E-003	5.55977E-003	5.34033E-004	...........
	2	0.775	5.51614E-003	5.65019E-003	5.46066E-004	...........
	3	1.03333	5.53865E-003	5.76509E-003	5.37333E-004	...........
	4	1.29167	5.58652E-003	5.88292E-003	5.42766E-004	...........
	5	1.55	5.66230E-003	5.99469E-003	5.46799E-004	...........
	6	1.80833	5.75991E-003	6.10674E-003	5.40166E-004	...........
	7	2.06667	5.87162E-003	6.32962E-003	5.46033E-004	...........
	8	2.325	6.01387E-003	7.36455E-003	5.39933E-004	...........
	9	2.58333	6.25961E-003	8.31357E-003	5.39533E-004	...........
	10	2.84167	6.71140E-003	9.55448E-003	5.41566E-004	...........
	11	3.1	7.42609E-003	1.09572E-002	5.36499E-004	...........
	12	3.35833	8.38015E-003	1.17348E-002	5.39133E-004	...........
	13	3.61667	9.47516E-003	1.25966E-002	5.40499E-004	...........
	14	3.875	1.05680E-002	1.30073E-002	5.44333E-004	...........
	15	4.13333	1.15307E-002	1.32775E-002	5.45266E-004	...........
	16	4.39167	1.22872E-002	1.33307E-002	5.37433E-004	...........
	17	4.65	1.28161E-002	1.35047E-002	5.41633E-004	...........
	18	4.90833	1.31481E-002	1.35658E-002	5.41633E-004	...........
EOC	QUANT	0.0131481	Open Circuit (V)
PSTATMODEL	IQUANT	4	Pstat Model
PSTATSECTION	LABEL	REF600-11020	Pstat Section
PSTATSERIALNO	LABEL	11020	Pstat Serial Number
CTRLMODE	IQUANT	1	Control Mode
IESTAB	IQUANT	0	I/E Stability
CASPEED	IQUANT	1	Control Amp Speed
CONVENTION	IQUANT	1	Current Convention
ICHRANGE	IQUANT	2	Ich Range
ICHRANGEMODE	TOGGLE	F	Ich Auto Range
ICHOFFSETENABLE	TOGGLE	T	Ich Offset Enable
ICHOFFSET	QUANT	0	Ich Offset (V)
ICHFILTER	IQUANT	3	Ich Filter
VCHRANGE	IQUANT	2	Vch Range
VCHRANGEMODE	TOGGLE	F	Vch Auto Range
VCHOFFSETENABLE	TOGGLE	T	Vch Offset Enable
VCHOFFSET	QUANT	0	Vch Offset (V)
VCHFILTER	IQUANT	3	Vch Filter
ACHRANGE	IQUANT	2	Ach Range
ACHOFFSETENABLE	TOGGLE	F	Ach Offset Enable
ACHOFFSET	QUANT	0	Ach Offset (V)
ACHFILTER	IQUANT	3	Ach Filter
IERANGELOWERLIMIT	IQUANT	1	I/E Range Lower Limit
IERANGEMODE	TOGGLE	F	I/E AutoRange
IERANGE	IQUANT	5	I/E Range
POSFEEDENABLE	TOGGLE	F	Positive Feedback IR Comp
POSFEEDRESISTANCE	QUANT	0	Positive Feedback Resistance (ohm)
ACHSELECT	IQUANT	0	Ach Select
CABLEID	IQUANT	14	Cable ID
DCCALDATE	LABEL	8/19/2019	DC Calibration Date
ACCALDATE	LABEL	8/19/2019	AC Calibration Date
THERMOSELECT	IQUANT	1	Thermo Select
FRAMEWORKVERSION	QUANT	6.33	Framework Version
INSTRUMENTVERSION	LABEL	3.50	Instrument Version
ZCURVE	TABLE
	Pt	Time	Freq	Zreal	Zimag	Zsig	Zmod	Zphz	Idc	Vdc	IERange
	#	s	Hz	ohm	ohm	V	ohm	°	A	V	#
	0	1	1000078	2195.938	-1090.158	1	2451.65	-26.40177	2.037367E-007	0.0160202	8
	1	2	794390.6	2388.097	-1000.096	1	2589.054	-22.72315	-2.466488E-006	0.0158482	8
	2	2	630984.4	2544.918	-890.0859	1	2696.083	-19.2773	1.278061E-006	0.0148482	8
	3	2	501234.4	2660.019	-769.4565	1	2769.073	-16.13343	3.553189E-006	0.014155	8
	4	2	398109.4	2758.792	-676.4935	1	2840.523	-13.77785	-7.257233E-007	0.0149199	8
	5	3	316265.6	2828.871	-586.3557	1	2889.001	-11.71019	6.756447E-007	0.0146933	8
	6	3	251203.1	2878.779	-508.6968	1	2923.378	-10.02105	3.299701E-006	0.0143274	8
	7	3	199546.9	2926.411	-447.1885	1	2960.381	-8.68823	-6.754286E-007	0.0148087	8
	8	4	158578.1	2961.409	-405.1782	1	2988.998	-7.790801	-2.37494E-006	0.0153337	8
	9	4	125953.1	2998.004	-312.0215	1	3014.197	-5.941748	3.744117E-007	0.0135722	7
	10	4	100078.1	3032.106	-306.53	1	3047.561	-5.77269	7.619004E-009	0.0149005	7
	11	5	79453.13	3057.973	-302.4022	1	3072.889	-5.647603	3.390693E-008	0.0147857	7
	12	5	63140.62	3085.279	-304.5059	1	3100.27	-5.636631	-5.150625E-008	0.0149169	7
	13	5	50203.12	3113.229	-312.6508	1	3128.889	-5.734788	7.059638E-008	0.0147604	7
	14	6	39890.62	3144.54	-326.7305	1	3161.469	-5.931979	-5.32596E-008	0.0149128	7
	15	6	31640.63	3177.29	-346.9201	1	3196.174	-6.231294	-2.931102E-008	0.014817	7
	16	6	25171.88	3211.924	-374.0386	1	3233.629	-6.642354	6.170372E-009	0.0148947	7
	17	7	20015.62	3240.527	-414.4341	1	3266.921	-7.288049	-8.197226E-009	0.0147858	7
	18	7	15890.62	3292.831	-451.1284	1	3323.591	-7.801137	3.423515E-008	0.0147032	7
	19	7	12609.37	3341.555	-502.734	1	3379.161	-8.555931	-3.246148E-008	0.0148899	7
	20	8	10078.13	3391.312	-560.6445	1	3437.342	-9.387116	1.32438E-009	0.0148075	7
	21	8	8015.625	3457.081	-619.0142	1	3512.063	-10.15162	3.33069E-008	0.0147071	7
	22	8	6328.125	3511.158	-715.0651	1	3583.231	-11.51116	2.616742E-009	0.014809	7
	23	8	5015.625	3579.384	-812.358	1	3670.411	-12.78694	-4.639927E-008	0.0148724	7
	24	9	3984.375	3664.573	-934.7817	1	3781.919	-14.31019	4.768226E-008	0.0147305	7
	25	9	3170.956	3725.001	-1065.215	1	3874.315	-15.9586	-5.738051E-008	0.014979	7
	26	9	2527.573	3804.68	-1227.933	1	3997.926	-17.88712	4.781667E-008	0.0147264	7
	27	10	1976.103	3895.75	-1445.942	1	4155.432	-20.36285	-5.167191E-008	0.014902	7
	28	10	1577.524	4033.94	-1708.194	1	4380.708	-22.9505	9.590447E-008	0.0146625	7
	29	10	1265.625	4076.583	-1984.104	1	4533.783	-25.95254	-5.057488E-008	0.0149006	7
	30	11	998.264	4184.93	-2371.698	1	4810.259	-29.54125	9.833877E-009	0.0147492	7
	31	11	796.875	4294.236	-2828.418	1	5142.024	-33.37107	-8.06909E-009	0.0147795	7
	32	11	627.7902	4420.891	-3434.857	1	5598.438	-37.84579	1.025061E-008	0.0147512	7
	33	12	505.5147	4560.498	-4115.022	1	6142.601	-42.06052	8.91605E-009	0.014747	7
	34	12	397.9953	4737.091	-5047.784	1	6922.439	-46.81866	1.759298E-009	0.0148301	7
	35	12	315.5048	4945.389	-6175.453	1	7911.58	-51.31176	2.978017E-009	0.0148291	7
	36	13	252.4038	5191.008	-7513.153	1	9132.033	-55.35853	2.334053E-009	0.0148258	7
	37	13	198.6229	5528.471	-9287.783	1	10808.65	-59.23715	6.603155E-010	0.0147683	6
	38	13	158.3615	5935.369	-11360.18	1	12817.27	-62.41423	4.631182E-011	0.0147666	6
	39	14	125.558	6471.807	-13972.34	1	15398.4	-65.14704	-1.82014E-010	0.0147658	6
	40	14	100.4464	7146.962	-17053.01	1	18490.11	-67.26131	1.094229E-009	0.0147694	6
	41	14	79.00281	8054.111	-21083.6	1	22569.6	-69.09272	6.858705E-010	0.0147657	6
	42	15	63.3446	9465.547	-25598.66	1	27292.63	-69.70725	-1.523211E-011	0.0147625	6
	43	15	49.86702	11054.73	-31573.78	1	33453.11	-70.70364	5.46241E-010	0.0147669	6
	44	15	39.72458	12990.54	-38392.37	1	40530.59	-71.30611	-4.351365E-010	0.0147694	6
	45	16	31.6723	15754.27	-46422.63	1	49023.04	-71.25452	-6.205376E-010	0.0147643	6
	46	16	24.93351	19391.64	-56784.38	1	60004.18	-71.14516	6.242189E-010	0.0147596	6
	47	16	19.86229	23942.92	-68434.79	1	72502.3	-70.71686	2.125797E-009	0.0147677	6
	48	17	15.83615	30665.67	-82097.16	1	87637.48	-69.51788	-2.46385E-009	0.0147593	6
	49	17	12.40079	38057.77	-98663.8	1	105749.4	-68.90678	7.78672E-010	0.0147616	5
	50	17	9.93114	47503.65	-116594	1	125899.8	-67.83264	-9.2064E-010	0.0147608	5
	51	18	7.944915	59184.35	-137120.4	1	149347.8	-66.65385	-7.597298E-010	0.0147699	5
	52	18	6.317385	73228.77	-160822.7	1	176709.9	-65.5184	-7.63327E-010	0.0147831	5
	53	19	5.008013	90755.32	-188252.6	1	208987	-64.2616	-6.246081E-010	0.0147651	5
	54	20	3.945707	111219.7	-219764	1	246304.8	-63.15662	-2.15482E-010	0.0147591	5
	55	22	3.158693	133637	-253402.7	1	286481.7	-62.19417	5.547361E-011	0.0147749	5
	56	23	2.504006	160227.3	-293003.1	1	333951.5	-61.32817	-1.749043E-010	0.0147701	5
	57	25	1.998082	188634.8	-337488.4	1	386628.3	-60.79755	-2.226502E-010	0.0147351	5
	58	26	1.584686	222175.8	-389195.1	1	448146.1	-60.2797	-6.680477E-011	0.0147845	5
	59	28	1.266892	259163.8	-449357	1	518736.5	-60.02607	-2.044455E-011	0.0148075	5
	60	31	0.999041	302596.6	-524595.2	1	605611.1	-60.02283	9.354359E-012	0.0147972	5
