EXPLAIN
TAG	EISPOT
TITLE	LABEL	Potentiostatic EIS	Test &Identifier
DATE	LABEL	10/20/2019	Date
TIME	LABEL	10:01:24	Time
NOTES	NOTES	1	&Notes...
	
PSTAT	PSTAT	REF600-11020	Potentiostat
VDC	POTEN	0.00000E+000	T	DC &Voltage (V)
FREQINIT	QUANT	1.00000E+006	Initial Fre&q. (Hz)
FREQFINAL	QUANT	1.00000E+000	Final Fre&q. (Hz)
PTSPERDEC	QUANT	1.00000E+001	Points/&decade
VAC	QUANT	2.50000E+001	AC &Voltage (mV rms)
AREA	QUANT	1.00000E-002	&Area (cm^2)
CONDIT	TWOPARAM	T	5.00000E+000	0.00000E+000	Conditionin&g	Time(s)	E(V)
DELAY	TWOPARAM	T	5.00000E+000	0.00000E+000	Init. De&lay	Time(s)	Stab.(mV/s)
SPEED	SELECTOR	1	&Optimize for:
ZGUESS	QUANT	1.00000E+005	E&stimated Z (ohms)
OCVCURVE	TABLE	19
	Pt	T	Vf	Vm	Ach	Over
	#	s	V vs. Ref.	V	V	bits
	0	0.258333	6.95111E-003	6.95111E-003	5.56066E-004	...........
	1	0.516667	6.95081E-003	6.93565E-003	5.58232E-004	...........
	2	0.775	6.94886E-003	6.91365E-003	5.57132E-004	...........
	3	1.03333	6.94346E-003	6.92349E-003	5.54033E-004	...........
	4	1.29167	6.93589E-003	6.95489E-003	5.55833E-004	...........
	5	1.55	6.93179E-003	6.96451E-003	5.53833E-004	...........
	6	1.80833	6.93681E-003	7.02792E-003	5.57666E-004	...........
	7	2.06667	6.95285E-003	7.03117E-003	5.60099E-004	...........
	8	2.325	6.97746E-003	7.05602E-003	5.56733E-004	...........
	9	2.58333	7.00524E-003	7.08935E-003	5.54133E-004	...........
	10	2.84167	7.03306E-003	7.15078E-003	5.60266E-004	...........
	11	3.1	7.06269E-003	7.15774E-003	5.59799E-004	...........
	12	3.35833	7.09527E-003	7.18095E-003	5.52333E-004	...........
	13	3.61667	7.12797E-003	7.23223E-003	5.59966E-004	...........
	14	3.875	7.15949E-003	7.27941E-003	5.60432E-004	...........
	15	4.13333	7.19273E-003	7.30532E-003	5.64099E-004	...........
	16	4.39167	7.22885E-003	7.31837E-003	5.52866E-004	...........
	17	4.65	7.26379E-003	7.32707E-003	5.58932E-004	...........
	18	4.90833	7.29277E-003	7.36292E-003	5.56033E-004	...........
EOC	QUANT	0.0072928	Open Circuit (V)
PSTATMODEL	IQUANT	4	Pstat Model
PSTATSECTION	LABEL	REF600-11020	Pstat Section
PSTATSERIALNO	LABEL	11020	Pstat Serial Number
CTRLMODE	IQUANT	1	Control Mode
IESTAB	IQUANT	0	I/E Stability
CASPEED	IQUANT	1	Control Amp Speed
CONVENTION	IQUANT	1	Current Convention
ICHRANGE	IQUANT	2	Ich Range
ICHRANGEMODE	TOGGLE	F	Ich Auto Range
ICHOFFSETENABLE	TOGGLE	T	Ich Offset Enable
ICHOFFSET	QUANT	0	Ich Offset (V)
ICHFILTER	IQUANT	3	Ich Filter
VCHRANGE	IQUANT	2	Vch Range
VCHRANGEMODE	TOGGLE	F	Vch Auto Range
VCHOFFSETENABLE	TOGGLE	T	Vch Offset Enable
VCHOFFSET	QUANT	0	Vch Offset (V)
VCHFILTER	IQUANT	3	Vch Filter
ACHRANGE	IQUANT	2	Ach Range
ACHOFFSETENABLE	TOGGLE	F	Ach Offset Enable
ACHOFFSET	QUANT	0	Ach Offset (V)
ACHFILTER	IQUANT	3	Ach Filter
IERANGELOWERLIMIT	IQUANT	1	I/E Range Lower Limit
IERANGEMODE	TOGGLE	F	I/E AutoRange
IERANGE	IQUANT	5	I/E Range
POSFEEDENABLE	TOGGLE	F	Positive Feedback IR Comp
POSFEEDRESISTANCE	QUANT	0	Positive Feedback Resistance (ohm)
ACHSELECT	IQUANT	0	Ach Select
CABLEID	IQUANT	14	Cable ID
DCCALDATE	LABEL	8/19/2019	DC Calibration Date
ACCALDATE	LABEL	8/19/2019	AC Calibration Date
THERMOSELECT	IQUANT	1	Thermo Select
FRAMEWORKVERSION	QUANT	6.33	Framework Version
INSTRUMENTVERSION	LABEL	3.50	Instrument Version
ZCURVE	TABLE
	Pt	Time	Freq	Zreal	Zimag	Zsig	Zmod	Zphz	Idc	Vdc	IERange
	#	s	Hz	ohm	ohm	V	ohm	°	A	V	#
	0	1	1000078	2682.109	-1653.513	1	3150.844	-31.65372	-2.214017E-006	0.0096786	8
	1	3	794390.6	2999.212	-1549.715	1	3375.927	-27.32573	2.945442E-007	0.0091226	8
	2	4	630984.4	3268.021	-1400.152	1	3555.333	-23.19225	-2.058887E-006	0.0095033	8
	3	6	501234.4	3474.722	-1239.263	1	3689.101	-19.62882	6.209309E-006	0.0076076	8
	4	8	398109.4	3663.508	-1089.751	1	3822.152	-16.56569	2.785943E-006	0.0081108	8
	5	9	316265.6	3790.838	-911.2209	1	3898.817	-13.51602	4.088185E-006	0.008125	8
	6	11	251203.1	3898.347	-800.5001	1	3979.687	-11.60401	5.233555E-006	0.0076238	8
	7	12	199546.9	3956.245	-682.1278	1	4014.62	-9.78264	-2.996999E-006	0.0093674	8
	8	13	158578.1	4017.316	-580.3761	1	4059.022	-8.220566	-1.514466E-006	0.0090584	8
	9	15	125953.1	4081.592	-451.1256	1	4106.447	-6.307124	8.92994E-007	0.0070699	7
	10	16	100078.1	4115.79	-405.5928	1	4135.727	-5.628073	-4.290039E-008	0.0087947	7
	11	18	79453.13	4144.616	-372.3393	1	4161.308	-5.133492	-2.105052E-008	0.0088666	7
	12	19	63140.62	4175.099	-355.0933	1	4190.172	-4.861322	5.802431E-008	0.0086116	7
	13	20	50203.12	4201.689	-344.532	1	4215.791	-4.687677	-5.802279E-008	0.0088087	7
	14	22	39890.62	4228.456	-343.2127	1	4242.362	-4.640375	-5.231204E-009	0.0087703	7
	15	23	31640.63	4257.788	-350.4313	1	4272.185	-4.705044	1.291246E-007	0.0085881	7
	16	24	25171.88	4287.598	-367.2709	1	4303.299	-4.895942	1.298591E-007	0.0085893	7
	17	26	20015.62	4294.302	-409.5486	1	4313.788	-5.447835	-1.00463E-007	0.0089373	7
	18	27	15890.62	4351.904	-427.5019	1	4372.852	-5.610353	-6.641609E-008	0.0089089	7
	19	29	12609.37	4383.294	-471.7083	1	4408.603	-6.142249	9.868769E-008	0.0085846	7
	20	30	10078.13	4421.79	-530.5883	1	4453.509	-6.842436	2.026042E-009	0.0086989	7
	21	31	8015.625	4470.148	-624.6505	1	4513.581	-7.954899	5.727421E-008	0.008606	7
	22	33	6328.125	4504.756	-695.3618	1	4558.109	-8.775015	-5.071807E-009	0.008776	7
	23	34	5015.625	4550.613	-810.4119	1	4622.212	-10.09786	-1.737661E-008	0.0088546	7
	24	35	3984.375	4614.653	-966.574	1	4714.794	-11.83001	5.559117E-008	0.0086957	7
	25	37	3170.956	4653.599	-1125.756	1	4787.829	-13.59921	5.010604E-008	0.00873	7
	26	38	2527.573	4716.85	-1337.007	1	4902.679	-15.82556	5.010448E-008	0.0087256	7
	27	39	1976.103	4791.397	-1619.606	1	5057.728	-18.67648	2.666222E-008	0.008861	7
	28	41	1577.524	4852.309	-1875.806	1	5202.264	-21.13551	6.000739E-008	0.0085996	7
	29	42	1265.625	4970.762	-2323.444	1	5486.973	-25.05242	5.021698E-008	0.0087223	7
	30	44	998.264	5092.516	-2826.072	1	5824.122	-29.02791	5.140724E-008	0.0087286	7
	31	45	796.875	5223.239	-3406.876	1	6236.107	-33.11454	-9.977846E-008	0.0089319	7
	32	46	627.7902	5390.35	-4161.706	1	6809.968	-37.67051	5.27453E-008	0.008695	7
	33	48	505.5147	5559.399	-4997.068	1	7475.132	-41.9508	5.114631E-008	0.0087248	7
	34	49	397.9953	5789.241	-6144.033	1	8441.827	-46.70298	3.966369E-009	0.0087925	7
	35	50	315.5048	6053.138	-7512.91	1	9648.02	-51.14167	4.035796E-009	0.0087909	7
	36	52	252.4038	6364.489	-9132.303	1	11131.29	-55.12657	2.070266E-009	0.0087264	6
	37	53	198.6229	6774.14	-11278.96	1	13156.9	-59.01099	6.199212E-010	0.0087304	6
	38	54	158.3615	7261.92	-13787.97	1	15583.44	-62.22488	1.921791E-009	0.0087307	6
	39	56	125.558	7894.583	-16945.42	1	18694.16	-65.01998	1.334315E-009	0.0087322	6
	40	57	100.4464	8643.035	-20669.21	1	22403.54	-67.30728	4.343186E-010	0.0087285	6
	41	59	79.00281	9777.4	-25642.41	1	27443.23	-69.12825	1.979764E-009	0.0087284	6
	42	60	63.3446	10896.31	-31456.22	1	33289.99	-70.89411	1.468077E-009	0.0087269	6
	43	61	49.86702	12996.91	-37993.25	1	40154.79	-71.11496	1.57606E-009	0.0087236	6
	44	63	39.72458	15458.04	-46674.22	1	49167.41	-71.67564	3.798137E-010	0.0087256	6
	45	64	31.6723	18666.63	-57001.73	1	59980.33	-71.86768	-6.34346E-011	0.0087265	6
	46	66	24.93351	22962.43	-69575.97	1	73267.24	-71.73536	2.1771E-010	0.0087294	6
	47	67	19.86229	28414.62	-84157.15	1	88824.63	-71.34338	1.5131E-009	0.0087366	6
	48	69	15.83615	37060.72	-99968.2	1	106616.8	-69.65899	2.215457E-009	0.0087331	5
	49	70	12.40079	44490.72	-122244.7	1	130089.1	-70.00112	1.364837E-009	0.0087384	5
	50	71	9.93114	58205.81	-144626.8	1	155900.1	-68.07743	9.76955E-010	0.0087305	5
	51	73	7.944915	72854.66	-170155.3	1	185096.3	-66.82105	-4.18114E-010	0.008735	5
	52	75	6.317385	92758.47	-200007.1	1	220469.9	-65.11926	2.412255E-010	0.0087215	5
	53	77	5.008013	116468.6	-233238.9	1	260701.6	-63.46461	-4.554138E-011	0.0087384	5
	54	79	3.945707	145986.7	-270822.6	1	307663.8	-61.67316	1.79933E-010	0.0087345	5
	55	82	3.158693	177455.2	-309200.6	1	356504.4	-60.1478	-1.350268E-010	0.008715	5
	56	85	2.504006	214831.5	-352465.3	1	412776.3	-58.63723	4.859527E-010	0.0087359	5
	57	88	1.998082	255147.7	-398182.3	1	472916	-57.34902	3.871717E-010	0.0087285	5
	58	91	1.584686	301699.5	-450319.7	1	542042.8	-56.17921	-5.972292E-012	0.0086789	5
	59	95	1.266892	346840.1	-506994.9	1	614281.6	-55.6236	2.579336E-010	0.0087173	5
	60	99	0.999041	400097.4	-578383.8	1	703282.2	-55.32642	-1.751254E-010	0.008727	5
