EXPLAIN
TAG	EISPOT
TITLE	LABEL	Potentiostatic EIS	Test &Identifier
DATE	LABEL	11/27/2019	Date
TIME	LABEL	13:28:49	Time
NOTES	NOTES	3	&Notes...
	
	
	
PSTAT	PSTAT	REF600-11020	Potentiostat
VDC	POTEN	0.00000E+000	T	DC &Voltage (V)
FREQINIT	QUANT	1.00000E+006	Initial Fre&q. (Hz)
FREQFINAL	QUANT	1.00000E+000	Final Fre&q. (Hz)
PTSPERDEC	QUANT	1.00000E+001	Points/&decade
VAC	QUANT	2.50000E+001	AC &Voltage (mV rms)
AREA	QUANT	1.00000E-002	&Area (cm^2)
CONDIT	TWOPARAM	T	5.00000E+000	0.00000E+000	Conditionin&g	Time(s)	E(V)
DELAY	TWOPARAM	T	5.00000E+000	0.00000E+000	Init. De&lay	Time(s)	Stab.(mV/s)
SPEED	SELECTOR	0	&Optimize for:
ZGUESS	QUANT	1.00000E+005	E&stimated Z (ohms)
OCVCURVE	TABLE	19
	Pt	T	Vf	Vm	Ach	Over
	#	s	V vs. Ref.	V	V	bits
	0	0.258333	4.95709E-003	4.95709E-003	5.38199E-004	...........
	1	0.516667	4.96854E-003	5.55687E-003	5.48466E-004	...........
	2	0.775	5.03655E-003	6.00218E-003	5.53799E-004	...........
	3	1.03333	5.22032E-003	6.38808E-003	5.45833E-004	...........
	4	1.29167	5.52958E-003	6.71034E-003	5.42033E-004	...........
	5	1.55	5.91095E-003	7.05154E-003	5.42966E-004	...........
	6	1.80833	6.28120E-003	6.29079E-003	5.36766E-004	...........
	7	2.06667	6.53643E-003	6.24663E-003	5.37466E-004	...........
	8	2.325	6.60325E-003	6.34768E-003	5.36299E-004	...........
	9	2.58333	6.53466E-003	6.88189E-003	5.38699E-004	...........
	10	2.84167	6.48860E-003	7.28914E-003	5.38899E-004	...........
	11	3.1	6.58507E-003	7.34675E-003	5.38033E-004	...........
	12	3.35833	6.81063E-003	7.35878E-003	5.36799E-004	...........
	13	3.61667	7.07263E-003	8.08624E-003	5.37499E-004	...........
	14	3.875	7.34031E-003	8.89102E-003	5.39799E-004	...........
	15	4.13333	7.68181E-003	9.34701E-003	5.38299E-004	...........
	16	4.39167	8.14824E-003	9.85416E-003	5.34166E-004	...........
	17	4.65	8.69610E-003	1.02043E-002	5.36033E-004	...........
	18	4.90833	9.23995E-003	1.04955E-002	5.40533E-004	...........
EOC	QUANT	0.00924	Open Circuit (V)
PSTATMODEL	IQUANT	4	Pstat Model
PSTATSECTION	LABEL	REF600-11020	Pstat Section
PSTATSERIALNO	LABEL	11020	Pstat Serial Number
CTRLMODE	IQUANT	1	Control Mode
IESTAB	IQUANT	0	I/E Stability
CASPEED	IQUANT	1	Control Amp Speed
CONVENTION	IQUANT	1	Current Convention
ICHRANGE	IQUANT	2	Ich Range
ICHRANGEMODE	TOGGLE	F	Ich Auto Range
ICHOFFSETENABLE	TOGGLE	T	Ich Offset Enable
ICHOFFSET	QUANT	0	Ich Offset (V)
ICHFILTER	IQUANT	3	Ich Filter
VCHRANGE	IQUANT	2	Vch Range
VCHRANGEMODE	TOGGLE	F	Vch Auto Range
VCHOFFSETENABLE	TOGGLE	T	Vch Offset Enable
VCHOFFSET	QUANT	0	Vch Offset (V)
VCHFILTER	IQUANT	3	Vch Filter
ACHRANGE	IQUANT	2	Ach Range
ACHOFFSETENABLE	TOGGLE	F	Ach Offset Enable
ACHOFFSET	QUANT	0	Ach Offset (V)
ACHFILTER	IQUANT	3	Ach Filter
IERANGELOWERLIMIT	IQUANT	1	I/E Range Lower Limit
IERANGEMODE	TOGGLE	F	I/E AutoRange
IERANGE	IQUANT	5	I/E Range
POSFEEDENABLE	TOGGLE	F	Positive Feedback IR Comp
POSFEEDRESISTANCE	QUANT	0	Positive Feedback Resistance (ohm)
ACHSELECT	IQUANT	0	Ach Select
CABLEID	IQUANT	14	Cable ID
DCCALDATE	LABEL	8/19/2019	DC Calibration Date
ACCALDATE	LABEL	8/19/2019	AC Calibration Date
THERMOSELECT	IQUANT	1	Thermo Select
FRAMEWORKVERSION	QUANT	6.33	Framework Version
INSTRUMENTVERSION	LABEL	3.50	Instrument Version
ZCURVE	TABLE
	Pt	Time	Freq	Zreal	Zimag	Zsig	Zmod	Zphz	Idc	Vdc	IERange
	#	s	Hz	ohm	ohm	V	ohm	°	A	V	#
	0	1	1000078	2235.061	-1737.896	1	2831.215	-37.86723	-8.07524E-007	0.0122749	8
	1	1	794390.6	2570.57	-1702.092	1	3083.009	-33.51036	-1.706719E-006	0.0117597	8
	2	2	630984.4	2837.91	-1587.276	1	3251.643	-29.21879	-4.72439E-006	0.0111403	8
	3	2	501234.4	3120.398	-1492.494	1	3458.963	-25.5619	-2.44378E-006	0.0112095	8
	4	2	398109.4	3357.222	-1385.387	1	3631.836	-22.42393	7.171055E-006	0.0106271	8
	5	3	316265.6	3556.494	-1270.136	1	3776.492	-19.65325	5.564037E-006	0.0106297	8
	6	3	251203.1	3760.978	-1165.008	1	3937.283	-17.211	-2.231315E-007	0.0105825	8
	7	3	199546.9	3908.771	-1027.852	1	4041.655	-14.73298	3.51652E-006	0.0110176	8
	8	4	158578.1	4057.039	-916.8329	1	4159.345	-12.73413	-2.429483E-006	0.0106763	8
	9	4	125953.1	4143.565	-798.1236	1	4219.731	-10.90265	7.968088E-007	0.0130727	7
	10	4	100078.1	4223.747	-747.9162	1	4289.454	-10.04151	1.1517E-006	0.0095226	7
	11	5	79453.13	4298.657	-698.0703	1	4354.969	-9.223893	-1.049253E-006	0.0124269	7
	12	5	63140.62	4361.224	-656.9421	1	4410.424	-8.566205	1.127032E-006	0.0101188	7
	13	5	50203.12	4447.544	-632.0684	1	4492.233	-8.088499	8.760061E-007	0.0087876	7
	14	6	39890.62	4503.194	-637.4361	1	4548.085	-8.056806	7.901466E-008	0.0118759	7
	15	6	31640.63	4558.081	-662.7845	1	4606.016	-8.273318	-1.273987E-006	0.0120408	7
	16	6	25171.88	4622.874	-679.0493	1	4672.48	-8.356362	1.23852E-007	0.0092633	7
	17	7	20015.62	4686.959	-725.9081	1	4742.839	-8.803923	2.05471E-007	0.0092466	7
	18	7	15890.62	4753.453	-795.0826	1	4819.489	-9.495631	6.72594E-007	0.009121	7
	19	7	12609.37	4828.057	-871.2224	1	4906.033	-10.22894	3.346558E-007	0.0092989	7
	20	7	10078.13	4902.359	-965.915	1	4996.611	-11.14625	-9.124845E-007	0.0109923	7
	21	8	8015.625	4989.325	-1076.567	1	5104.151	-12.17627	-3.48753E-007	0.0098479	7
	22	8	6328.125	5090.182	-1232.778	1	5237.336	-13.61418	1.284011E-007	0.0092504	7
	23	8	5015.625	5195.177	-1405.323	1	5381.896	-15.13656	-1.366295E-006	0.0120014	7
	24	9	3984.375	5329.497	-1625.076	1	5571.75	-16.95757	1.10776E-006	0.0089465	7
	25	9	3170.956	5451.583	-1871.941	1	5764.019	-18.95123	-8.217925E-007	0.0106166	7
	26	9	2527.573	5607.505	-2177.623	1	6015.493	-21.22322	6.867584E-007	0.0110061	7
	27	10	1976.103	5769.146	-2572.484	1	6316.702	-24.03227	1.087461E-006	0.008527	7
	28	10	1577.524	6002.262	-2981.62	1	6702.03	-26.41586	-1.132191E-006	0.0121965	7
	29	11	1265.625	6188.636	-3483.819	1	7101.845	-29.37682	2.467969E-007	0.0114652	7
	30	11	998.264	6446.754	-4148.601	1	7666.259	-32.762	1.086319E-006	0.0089122	7
	31	12	796.875	6693.44	-4884.781	1	8286.327	-36.12146	-1.163095E-006	0.0113544	7
	32	12	627.7902	7008.264	-5843.407	1	9124.756	-39.82095	-9.873598E-007	0.0126323	7
	33	13	505.5147	7317.023	-6909.226	1	10063.61	-43.35806	1.066248E-006	0.0101873	7
	34	13	397.9953	7728.02	-8340.012	1	11370.05	-47.1812	1.071825E-009	0.0108073	7
	35	13	315.5048	8182.049	-10049.36	1	12958.99	-50.84799	8.558229E-011	0.0107547	6
	36	14	252.4038	8680.335	-12059.42	1	14858.59	-54.25377	1.27959E-009	0.0107414	6
	37	14	198.6229	9306.714	-14721.44	1	17416.54	-57.69943	-3.05383E-011	0.0107508	6
	38	14	158.3615	10026.51	-17814.66	1	20442.43	-60.62817	-4.595428E-010	0.0107499	6
	39	15	125.558	10935.86	-21731.13	1	24327.66	-63.28687	-7.838104E-011	0.0107485	6
	40	15	100.4464	12011.38	-26306.72	1	28919.14	-65.45905	-8.339562E-010	0.010738	6
	41	15	79.00281	13518.66	-32327.01	1	35039.83	-67.30606	2.933418E-010	0.0107366	6
	42	16	63.3446	15355.94	-39800.8	1	42660.38	-68.90239	-1.617222E-011	0.0107375	6
	43	16	49.86702	17777.71	-48708.08	1	51850.98	-69.94868	-1.043413E-009	0.0107399	6
	44	16	39.72458	21174.23	-58762.33	1	62460.86	-70.18404	-1.772871E-010	0.010741	6
	45	17	31.6723	25176.96	-71054.44	1	75383.1	-70.48906	2.189008E-011	0.0107393	6
	46	17	24.93351	31217.6	-87040.68	1	92469.55	-70.26936	4.709299E-010	0.0107283	6
	47	17	19.86229	38700.59	-104762.5	1	111682.2	-69.72514	1.025607E-009	0.0107505	5
	48	17	15.83615	48301.05	-124731.3	1	133756.8	-68.83156	2.282699E-010	0.010741	5
	49	18	12.40079	61988.13	-150235.3	1	162521.3	-67.57861	-1.964171E-009	0.0107477	5
	50	18	9.93114	79299.42	-178147.6	1	195000	-66.00457	-5.346913E-010	0.0107526	5
	51	19	7.944915	99005.6	-207274.4	1	229705.9	-64.4683	2.007762E-009	0.0107316	5
	52	19	6.317385	125605.6	-241443.2	1	272161	-62.51526	5.809428E-010	0.0107276	5
	53	20	5.008013	157926.5	-278087.8	1	319802.4	-60.40768	8.115727E-011	0.0107321	5
	54	21	3.945707	196171.1	-317987.5	1	373629.7	-58.32897	-2.339227E-010	0.0107523	5
	55	23	3.158693	294584.4	-427983.9	1	519567.3	-55.46009	2.802039E-009	0.0107394	5
	56	24	2.504006	668860.4	-744702.2	1	1000977	-48.07114	6.393025E-011	0.0107299	5
	57	26	1.998082	336549.3	-442228	1	555725.8	-52.72773	-5.621142E-010	0.0107313	5
	58	28	1.584686	386145.7	-497827.6	1	630032.4	-52.20065	-5.340592E-010	0.0106866	5
	59	30	1.266892	445344.2	-554858	1	711476.5	-51.24852	-4.172084E-010	0.0106918	5
	60	33	0.999041	506790.8	-622190.1	1	802469.6	-50.83624	-3.078602E-010	0.0107118	5
