EXPLAIN
TAG	EISPOT
TITLE	LABEL	Potentiostatic EIS	Test &Identifier
DATE	LABEL	10/18/2019	Date
TIME	LABEL	9:44:11	Time
NOTES	NOTES	1	&Notes...
	
PSTAT	PSTAT	REF600-11020	Potentiostat
VDC	POTEN	0.00000E+000	T	DC &Voltage (V)
FREQINIT	QUANT	1.00000E+006	Initial Fre&q. (Hz)
FREQFINAL	QUANT	1.00000E+000	Final Fre&q. (Hz)
PTSPERDEC	QUANT	1.00000E+001	Points/&decade
VAC	QUANT	2.50000E+001	AC &Voltage (mV rms)
AREA	QUANT	1.00000E-002	&Area (cm^2)
CONDIT	TWOPARAM	T	5.00000E+000	0.00000E+000	Conditionin&g	Time(s)	E(V)
DELAY	TWOPARAM	T	5.00000E+000	0.00000E+000	Init. De&lay	Time(s)	Stab.(mV/s)
SPEED	SELECTOR	0	&Optimize for:
ZGUESS	QUANT	1.00000E+005	E&stimated Z (ohms)
OCVCURVE	TABLE	19
	Pt	T	Vf	Vm	Ach	Over
	#	s	V vs. Ref.	V	V	bits
	0	0.258333	6.30337E-003	6.30337E-003	5.69166E-004	...........
	1	0.516667	6.30323E-003	6.29577E-003	5.72066E-004	...........
	2	0.775	6.30214E-003	6.27800E-003	5.72766E-004	...........
	3	1.03333	6.29901E-003	6.29438E-003	5.69666E-004	...........
	4	1.29167	6.29495E-003	6.31266E-003	5.67699E-004	...........
	5	1.55	6.29398E-003	6.32506E-003	5.71266E-004	...........
	6	1.80833	6.29953E-003	6.35838E-003	5.69532E-004	...........
	7	2.06667	6.31244E-003	6.39134E-003	5.69732E-004	...........
	8	2.325	6.33225E-003	6.41723E-003	5.71532E-004	...........
	9	2.58333	6.35786E-003	6.46283E-003	5.70599E-004	...........
	10	2.84167	6.38813E-003	6.51040E-003	5.69032E-004	...........
	11	3.1	6.42309E-003	6.55681E-003	5.71699E-004	...........
	12	3.35833	6.46262E-003	6.58586E-003	5.69199E-004	...........
	13	3.61667	6.50426E-003	6.61111E-003	5.69166E-004	...........
	14	3.875	6.54404E-003	6.64849E-003	5.71799E-004	...........
	15	4.13333	6.58009E-003	6.68602E-003	5.69932E-004	...........
	16	4.39167	6.61401E-003	6.72718E-003	5.68132E-004	...........
	17	4.65	6.64882E-003	6.77871E-003	5.69966E-004	...........
	18	4.90833	6.68675E-003	6.82278E-003	5.65866E-004	...........
EOC	QUANT	0.0066868	Open Circuit (V)
PSTATMODEL	IQUANT	4	Pstat Model
PSTATSECTION	LABEL	REF600-11020	Pstat Section
PSTATSERIALNO	LABEL	11020	Pstat Serial Number
CTRLMODE	IQUANT	1	Control Mode
IESTAB	IQUANT	0	I/E Stability
CASPEED	IQUANT	1	Control Amp Speed
CONVENTION	IQUANT	1	Current Convention
ICHRANGE	IQUANT	2	Ich Range
ICHRANGEMODE	TOGGLE	F	Ich Auto Range
ICHOFFSETENABLE	TOGGLE	T	Ich Offset Enable
ICHOFFSET	QUANT	0	Ich Offset (V)
ICHFILTER	IQUANT	3	Ich Filter
VCHRANGE	IQUANT	2	Vch Range
VCHRANGEMODE	TOGGLE	F	Vch Auto Range
VCHOFFSETENABLE	TOGGLE	T	Vch Offset Enable
VCHOFFSET	QUANT	0	Vch Offset (V)
VCHFILTER	IQUANT	3	Vch Filter
ACHRANGE	IQUANT	2	Ach Range
ACHOFFSETENABLE	TOGGLE	F	Ach Offset Enable
ACHOFFSET	QUANT	0	Ach Offset (V)
ACHFILTER	IQUANT	3	Ach Filter
IERANGELOWERLIMIT	IQUANT	1	I/E Range Lower Limit
IERANGEMODE	TOGGLE	F	I/E AutoRange
IERANGE	IQUANT	5	I/E Range
POSFEEDENABLE	TOGGLE	F	Positive Feedback IR Comp
POSFEEDRESISTANCE	QUANT	0	Positive Feedback Resistance (ohm)
ACHSELECT	IQUANT	0	Ach Select
CABLEID	IQUANT	14	Cable ID
DCCALDATE	LABEL	8/19/2019	DC Calibration Date
ACCALDATE	LABEL	8/19/2019	AC Calibration Date
THERMOSELECT	IQUANT	1	Thermo Select
FRAMEWORKVERSION	QUANT	6.33	Framework Version
INSTRUMENTVERSION	LABEL	3.50	Instrument Version
ZCURVE	TABLE
	Pt	Time	Freq	Zreal	Zimag	Zsig	Zmod	Zphz	Idc	Vdc	IERange
	#	s	Hz	ohm	ohm	V	ohm	°	A	V	#
	0	2	1000078	2477.147	-1385.258	1	2838.168	-29.21459	1.455714E-006	0.0094731	8
	1	2	794390.6	2744.813	-1277.631	1	3027.596	-24.96062	1.436883E-006	0.0083013	8
	2	2	630984.4	2960.821	-1130.049	1	3169.144	-20.89023	-1.292693E-006	0.0089179	8
	3	3	501234.4	3130.927	-984.642	1	3282.107	-17.45779	-2.976625E-006	0.0089044	8
	4	3	398109.4	3245.057	-857.429	1	3356.424	-14.80079	-1.629864E-007	0.0085741	8
	5	3	316265.6	3340.457	-726.7446	1	3418.598	-12.27392	1.024659E-006	0.0081468	8
	6	4	251203.1	3410.132	-603.5698	1	3463.134	-10.03701	-2.877255E-006	0.0087713	8
	7	4	199546.9	3461.109	-529.4795	1	3501.374	-8.697661	-7.404561E-007	0.0086773	8
	8	4	158578.1	3463	-450.8665	1	3492.227	-7.41792	1.768374E-006	0.0078518	8
	9	5	125953.1	3557.847	-361.3704	1	3576.152	-5.799642	-9.000103E-007	0.0104561	7
	10	5	100078.1	3564.427	-324.3229	1	3579.151	-5.198958	-4.32551E-008	0.0083734	7
	11	5	79453.13	3586.472	-308.575	1	3599.722	-4.917539	3.92561E-008	0.0082069	7
	12	6	63140.62	3609.631	-301.671	1	3622.215	-4.77733	1.331642E-007	0.0081349	7
	13	6	50203.12	3633.26	-302.6532	1	3645.844	-4.761786	-3.906236E-008	0.0083709	7
	14	6	39890.62	3658.664	-309.3216	1	3671.717	-4.832576	7.968977E-008	0.0081644	7
	15	6	31640.63	3685.423	-326.3668	1	3699.846	-5.060691	-1.395112E-008	0.008296	7
	16	7	25171.88	3712.908	-350.3353	1	3729.4	-5.390244	-3.791218E-008	0.0083604	7
	17	7	20015.62	3742.919	-383.9808	1	3762.563	-5.857402	-1.615612E-008	0.0083064	7
	18	7	15890.62	3777.013	-423.7954	1	3800.714	-6.40203	-1.347137E-008	0.0083736	7
	19	8	12609.37	3814.467	-473.6854	1	3843.765	-7.078825	3.557747E-008	0.0082915	7
	20	8	10078.13	3853.317	-534.3792	1	3890.194	-7.895438	-9.356732E-009	0.0083723	7
	21	8	8015.625	3902.022	-612.8511	1	3949.856	-8.92595	-4.269881E-008	0.0083575	7
	22	9	6328.125	3941.614	-706.7075	1	4004.467	-10.16478	-3.984215E-008	0.0083436	7
	23	9	5015.625	3991.142	-824.4973	1	4075.416	-11.67207	-1.724062E-008	0.0083001	7
	24	9	3984.375	4043.5	-961.127	1	4156.159	-13.37089	-3.91842E-008	0.00835	7
	25	10	3170.956	4101.598	-1140.349	1	4257.17	-15.5373	-4.892152E-008	0.0084241	7
	26	10	2527.573	4166.874	-1351.74	1	4380.644	-17.97314	-4.755725E-008	0.0084181	7
	27	10	1976.103	4245.049	-1636.943	1	4549.728	-21.08725	8.0032E-008	0.0081517	7
	28	11	1577.524	4349.831	-1925.261	1	4756.854	-23.87447	-4.020096E-009	0.0083382	7
	29	11	1265.625	4426.332	-2336.803	1	5005.304	-27.83102	4.172678E-008	0.0081858	7
	30	11	998.264	4550.889	-2841.975	1	5365.39	-31.98428	-1.339497E-008	0.0082779	7
	31	12	796.875	4679.231	-3423.453	1	5797.865	-36.19022	8.141656E-008	0.0081448	7
	32	12	627.7902	4852.385	-4181.998	1	6405.837	-40.7562	1.342571E-007	0.0081133	7
	33	12	505.5147	5029.029	-5026.369	1	7110.241	-44.98484	-3.66541E-008	0.008347	7
	34	13	397.9953	5253.209	-6170.829	1	8104.032	-49.59235	2.625739E-009	0.0083357	7
	35	13	315.5048	5519.593	-7546.978	1	9350.015	-53.81958	2.555755E-009	0.008336	7
	36	13	252.4038	5831.168	-9173.524	1	10869.96	-57.55784	-5.679767E-010	0.0082751	6
	37	13	198.6229	6241.428	-11328.85	1	12934.38	-61.14821	2.075471E-010	0.0082739	6
	38	14	158.3615	6724.962	-13845.73	1	15392.51	-64.09385	3.66241E-010	0.008272	6
	39	14	125.558	7366.387	-17019.89	1	18545.63	-66.59653	5.350851E-010	0.0082691	6
	40	14	100.4464	8184.24	-20731.7	1	22288.68	-68.45741	-8.953175E-010	0.0082711	6
	41	15	79.00281	9361.332	-25694.21	1	27346.42	-69.98148	-3.353776E-010	0.0082645	6
	42	15	63.3446	10168.85	-31340.97	1	32949.38	-72.0239	1.191792E-009	0.0082692	6
	43	15	49.86702	12204.21	-38533.13	1	40419.61	-72.42596	-5.394417E-010	0.0082689	6
	44	16	39.72458	14886.81	-47000.44	1	49301.71	-72.42504	-3.335573E-010	0.0082754	6
	45	16	31.6723	18227.51	-57267.2	1	60098.04	-72.34431	-6.281278E-010	0.008277	6
	46	16	24.93351	22635.09	-69789.86	1	73368.74	-72.03046	7.113354E-010	0.008273	6
	47	17	19.86229	28379.83	-84262.25	1	88913.11	-71.38628	7.408555E-010	0.0082855	6
	48	17	15.83615	34559.37	-100658.5	1	106426	-71.05097	1.041546E-009	0.0082723	5
	49	17	12.40079	46396.21	-123869.6	1	132273.5	-69.46622	5.271206E-010	0.008274	5
	50	18	9.93114	58320.05	-145467.7	1	156722.9	-68.15345	-4.604682E-010	0.0082767	5
	51	18	7.944915	73484.84	-170547.9	1	185705.7	-66.68999	-3.661063E-010	0.0082678	5
	52	19	6.317385	93413.69	-200739.3	1	221410	-65.04517	-2.226373E-010	0.0082821	5
	53	20	5.008013	117847.2	-233806.6	1	261827.2	-63.25019	-3.588332E-010	0.0082672	5
	54	21	3.945707	148458.3	-271380.5	1	309333.5	-61.3192	3.086856E-010	0.0082811	5
	55	22	3.158693	181009.5	-308188.3	1	357413.6	-59.57283	-9.652385E-011	0.0082883	5
	56	24	2.504006	219711.1	-350823.7	1	413944.7	-57.94224	-2.741563E-010	0.008282	5
	57	25	1.998082	261056.2	-393987.1	1	472626.8	-56.47151	2.873529E-011	0.0083135	5
	58	27	1.584686	307152.7	-444956.8	1	540674.8	-55.38277	1.037928E-010	0.0083319	5
	59	29	1.266892	353848.8	-499175.6	1	611870.3	-54.66845	3.038981E-011	0.0082816	5
	60	31	0.999041	407938.2	-565121.3	1	696976.1	-54.17601	-5.377492E-012	0.0082522	5
