EXPLAIN
TAG	EISPOT
TITLE	LABEL	Potentiostatic EIS	Test &Identifier
DATE	LABEL	8/14/2018	Date
TIME	LABEL	5:48:22	Time
NOTES	NOTES	1	&Notes...
	
PSTAT	PSTAT	REF600-11020	Potentiostat
VDC	POTEN	0.00000E+000	T	DC &Voltage (V)
FREQINIT	QUANT	1.00000E+006	Initial Fre&q. (Hz)
FREQFINAL	QUANT	1.00000E+000	Final Fre&q. (Hz)
PTSPERDEC	QUANT	1.00000E+001	Points/&decade
VAC	QUANT	2.50000E+001	AC &Voltage (mV rms)
AREA	QUANT	1.00000E-002	&Area (cm^2)
CONDIT	TWOPARAM	T	5.00000E+000	0.00000E+000	Conditionin&g	Time(s)	E(V)
DELAY	TWOPARAM	T	5.00000E+000	0.00000E+000	Init. De&lay	Time(s)	Stab.(mV/s)
SPEED	SELECTOR	0	&Optimize for:
ZGUESS	QUANT	1.00000E+005	E&stimated Z (ohms)
OCVCURVE	TABLE	19
	Pt	T	Vf	Vm	Ach	Over
	#	s	V vs. Ref.	V	V	bits
	0	0.258333	1.59656E-001	1.59656E-001	5.83865E-004	...........
	1	0.516667	1.59563E-001	1.54780E-001	5.86799E-004	...........
	2	0.775	1.58552E-001	1.27156E-001	5.79599E-004	...........
	3	1.03333	1.55294E-001	1.56332E-001	5.82899E-004	...........
	4	1.29167	1.50769E-001	1.57646E-001	5.82465E-004	...........
	5	1.55	1.49221E-001	1.91996E-001	5.76599E-004	...........
	6	1.80833	1.53832E-001	1.69798E-001	5.72066E-004	...........
	7	2.06667	1.62168E-001	1.51992E-001	5.79832E-004	...........
	8	2.325	1.68194E-001	1.79621E-001	5.79132E-004	...........
	9	2.58333	1.69072E-001	1.40834E-001	5.77699E-004	...........
	10	2.84167	1.66727E-001	1.80065E-001	5.85599E-004	...........
	11	3.1	1.64233E-001	1.62639E-001	5.88532E-004	...........
	12	3.35833	1.63136E-001	1.41344E-001	5.82832E-004	...........
	13	3.61667	1.62403E-001	1.80492E-001	5.85532E-004	...........
	14	3.875	1.61158E-001	1.45752E-001	5.83465E-004	...........
	15	4.13333	1.60332E-001	1.69099E-001	5.87232E-004	...........
	16	4.39167	1.60458E-001	1.69937E-001	5.88232E-004	...........
	17	4.65	1.60861E-001	1.22010E-001	5.88065E-004	...........
	18	4.90833	1.59694E-001	1.74359E-001	5.97598E-004	...........
EOC	QUANT	0.1596942	Open Circuit (V)
PSTATMODEL	IQUANT	4	Pstat Model
PSTATSECTION	LABEL	REF600-11020	Pstat Section
PSTATSERIALNO	LABEL	11020	Pstat Serial Number
CTRLMODE	IQUANT	1	Control Mode
IESTAB	IQUANT	0	I/E Stability
CASPEED	IQUANT	1	Control Amp Speed
CONVENTION	IQUANT	1	Current Convention
ICHRANGE	IQUANT	2	Ich Range
ICHRANGEMODE	TOGGLE	F	Ich Auto Range
ICHOFFSETENABLE	TOGGLE	T	Ich Offset Enable
ICHOFFSET	QUANT	0	Ich Offset (V)
ICHFILTER	IQUANT	3	Ich Filter
VCHRANGE	IQUANT	2	Vch Range
VCHRANGEMODE	TOGGLE	F	Vch Auto Range
VCHOFFSETENABLE	TOGGLE	T	Vch Offset Enable
VCHOFFSET	QUANT	0	Vch Offset (V)
VCHFILTER	IQUANT	3	Vch Filter
ACHRANGE	IQUANT	2	Ach Range
ACHOFFSETENABLE	TOGGLE	F	Ach Offset Enable
ACHOFFSET	QUANT	0	Ach Offset (V)
ACHFILTER	IQUANT	3	Ach Filter
IERANGELOWERLIMIT	IQUANT	1	I/E Range Lower Limit
IERANGEMODE	TOGGLE	F	I/E AutoRange
IERANGE	IQUANT	6	I/E Range
POSFEEDENABLE	TOGGLE	F	Positive Feedback IR Comp
POSFEEDRESISTANCE	QUANT	0	Positive Feedback Resistance (ohm)
ACHSELECT	IQUANT	0	Ach Select
CABLEID	IQUANT	14	Cable ID
DCCALDATE	LABEL	8/19/2019	DC Calibration Date
ACCALDATE	LABEL	8/19/2019	AC Calibration Date
THERMOSELECT	IQUANT	1	Thermo Select
FRAMEWORKVERSION	QUANT	6.33	Framework Version
INSTRUMENTVERSION	LABEL	3.50	Instrument Version
ZCURVE	TABLE
	Pt	Time	Freq	Zreal	Zimag	Zsig	Zmod	Zphz	Idc	Vdc	IERange
	#	s	Hz	ohm	ohm	V	ohm	°	A	V	#
	0	2	1000078	1991.278	-9042.134	1	9258.8	-77.58044	-2.941631E-006	0.1627251	8
	1	2	794390.6	1120.27	-11846.07	1	11898.92	-84.59766	-4.791411E-006	0.1626955	8
	2	3	630984.4	1244.901	-14872.68	1	14924.69	-85.21527	-5.333495E-007	0.1613298	8
	3	3	501234.4	1589.435	-18543.85	1	18611.84	-85.10102	1.34082E-007	0.1612205	8
	4	4	398109.4	2241.47	-23625.06	1	23731.15	-84.58018	-3.683016E-007	0.1615048	8
	5	4	316265.6	2103.712	-29003.08	1	29079.27	-85.85137	8.464559E-008	0.1611532	8
	6	4	251203.1	2757.666	-39647.72	1	39743.51	-86.02125	-9.039169E-007	0.1615397	8
	7	5	199546.9	3066.079	-45128.52	1	45232.55	-86.11324	-9.884071E-007	0.1611666	8
	8	6	158578.1	-724.1898	-74958.6	1	74962.1	-90.55353	1.189048E-006	0.1611781	8
	9	6	125953.1	1180.487	-68284.08	1	68294.28	-89.00957	6.817264E-007	0.1601643	7
	10	7	100078.1	7174.342	-89146.23	1	89434.46	-85.39885	-5.475059E-008	0.1612575	7
	11	7	79453.13	7960.708	-110078.1	1	110365.5	-85.86364	1.245248E-007	0.160979	7
	12	7	63140.62	9948	-137661.4	1	138020.4	-85.86674	-1.742628E-008	0.1612543	7
	13	8	50203.12	10349.91	-171684	1	171995.7	-86.55012	6.55244E-008	0.161135	7
	14	8	39890.62	15513.78	-213782.2	1	214344.4	-85.84943	3.69094E-008	0.1613368	7
	15	9	31640.63	16906.09	-264567.3	1	265106.8	-86.34372	-2.907428E-008	0.1612544	7
	16	9	25171.88	18618.54	-330076.1	1	330600.8	-86.77155	7.976561E-008	0.1611401	7
	17	10	20015.62	-40022.87	-459074.9	1	460816.2	-94.98254	7.818878E-008	0.1611359	7
	18	10	15890.62	46328.94	-518651.3	1	520716.4	-84.89555	3.63487E-008	0.161335	7
	19	11	12609.37	59037.52	-642091.9	1	644800.4	-84.74667	-1.51638E-008	0.1615204	6
	20	11	10078.13	112051.8	-834811.7	1	842298.1	-82.35522	-1.590362E-008	0.1615274	6
	21	11	8015.625	78119.55	-936957.5	1	940208.5	-85.23395	-8.043084E-009	0.1612109	6
	22	12	6328.125	86837.98	-1231686	1	1234743	-85.96712	-4.979913E-009	0.1614068	6
	23	12	5015.625	129624.6	-1561960	1	1567330	-85.25598	9.216316E-009	0.1609588	6
	24	13	3984.375	89775.94	-2285972	1	2287735	-87.75101	4.634466E-009	0.1612386	6
	25	13	3170.956	173982.5	-2398191	1	2404493	-85.85061	8.323561E-009	0.1609556	6
	26	14	2527.573	272167.3	-2937412	1	2949994	-84.70634	5.235995E-010	0.1613611	6
	27	14	1976.103	-1309417	-3151967	1	3413132	-112.5594	-6.490324E-009	0.1611474	6
	28	14	1577.524	1802480	-1590822	1	2404090	-41.43079	3.834006E-009	0.1612281	6
	29	15	1265.625	884848	-5885145	1	5951293	-81.44946	4.705019E-010	0.1609642	5
	30	15	998.264	622584.3	-7831181	1	7855890	-85.45451	-1.6625E-008	0.1614254	6
	31	16	796.875	865573.8	-1.023191E+007	1	1.026846E+007	-85.16454	-4.301254E-010	0.1613795	5
	32	16	627.7902	1679651	-1.119564E+007	1	1.132094E+007	-81.4677	9.123048E-010	0.1611979	5
	33	17	505.5147	2955287	-1.486771E+007	1	1.515858E+007	-78.75773	-1.941666E-009	0.1613559	5
	34	17	397.9953	4770026	-1.669353E+007	1	1.736165E+007	-74.05318	-6.947681E-011	0.1611791	5
	35	18	315.5048	1.02365E+007	-2.372541E+007	1	2.583952E+007	-66.66187	-5.647511E-010	0.1611784	5
	36	18	252.4038	-2246162	-2.971033E+007	1	2.979512E+007	-94.32346	5.698725E-010	0.1611765	5
	37	19	198.6229	4252098	-2.911503E+007	1	2.942389E+007	-81.69099	1.080837E-010	0.1611756	5
	38	19	158.3615	-4595342	-3.237915E+007	1	3.270362E+007	-98.0776	-7.698617E-010	0.1611714	5
	39	19	125.558	4.087913E+007	-1.160571E+008	1	1.230461E+008	-70.59605	6.829232E-011	0.161177	4
	40	20	100.4464	-2137928	4.69329E+007	1	4.698157E+007	92.60818	1.014993E-009	0.1611727	4
	41	20	79.00281	1.102935E+007	-4994309	1	1.210742E+007	-24.36197	-5.816953E-010	0.1611794	4
	42	21	63.3446	-1135747	-3784202	1	3950963	-106.706	3.89405E-010	0.1611725	4
	43	22	49.86702	-4.222598E+007	1.844395E+007	1	4.607833E+007	156.4047	2.258214E-010	0.1611736	4
	44	22	39.72458	-631069.4	-3.617767E+007	1	3.618318E+007	-90.99934	3.564607E-011	0.161178	4
	45	23	31.6723	-5433990	1.730978E+007	1	1.814267E+007	107.4284	-6.927401E-010	0.1611786	4
	46	23	24.93351	-2.926672E+007	-9.103045E+007	1	9.561947E+007	-107.8228	-9.03447E-011	0.1611739	4
	47	24	19.86229	5.53453E+007	2032003	1	5.538259E+007	2.10267	1.397984E-010	0.1611824	4
	48	24	15.83615	-3.323604E+007	9.814586E+006	1	3.465488E+007	163.5482	2.477869E-010	0.1611722	4
	49	25	12.40079	1.931676E+007	9418227	1	2.149047E+007	25.99236	6.658343E-010	0.1611729	4
	50	25	9.93114	3.847075E+007	6964121	1	3.909601E+007	10.26078	-3.027105E-010	0.1611853	4
	51	26	7.944915	4.750668E+007	6.482794E+007	1	8.037131E+007	53.7656	-9.687304E-011	0.1611826	4
	52	27	6.317385	1.441009E+008	-7.320727E+007	1	1.616304E+008	-26.93183	4.389471E-011	0.1611723	5
	53	28	5.008013	6.650504E+007	-1.123049E+008	1	1.305194E+008	-59.36671	3.808594E-011	0.1611867	4
	54	30	3.945707	4.480593E+008	9.290484E+007	1	4.575898E+008	11.71425	3.79128E-011	0.1611813	4
	55	32	3.158693	3.304284E+008	-1.894485E+008	1	3.808854E+008	-29.82746	3.02041E-011	0.1611608	4
	56	35	2.504006	1.196984E+009	-5.693723E+008	1	1.325502E+009	-25.43915	4.949813E-011	0.1611652	3
	57	37	1.998082	1.450375E+009	-7.804546E+007	1	1.452473E+009	-3.080147	4.88835E-011	0.1611306	3
	58	40	1.584686	1.688014E+009	-2.755975E+008	1	1.710364E+009	-9.272717	4.832571E-011	0.1612065	3
	59	44	1.266892	1.629605E+010	-4.049642E+009	1	1.679169E+010	-13.95557	-9.823968E-013	0.1612153	2
	60	49	0.999041	1.741656E+010	-4.545962E+009	1	1.800007E+010	-14.62861	-1.007413E-012	0.161168	2
