EXPLAIN
TAG	EISPOT
TITLE	LABEL	Potentiostatic EIS	Test &Identifier
DATE	LABEL	9/26/2019	Date
TIME	LABEL	10:43:37	Time
NOTES	NOTES	2	&Notes...
	
	
PSTAT	PSTAT	REF600-11020	Potentiostat
VDC	POTEN	0.00000E+000	T	DC &Voltage (V)
FREQINIT	QUANT	1.00000E+006	Initial Fre&q. (Hz)
FREQFINAL	QUANT	1.00000E+000	Final Fre&q. (Hz)
PTSPERDEC	QUANT	1.00000E+001	Points/&decade
VAC	QUANT	2.50000E+001	AC &Voltage (mV rms)
AREA	QUANT	1.00000E-002	&Area (cm^2)
CONDIT	TWOPARAM	T	5.00000E+000	0.00000E+000	Conditionin&g	Time(s)	E(V)
DELAY	TWOPARAM	T	5.00000E+000	0.00000E+000	Init. De&lay	Time(s)	Stab.(mV/s)
SPEED	SELECTOR	1	&Optimize for:
ZGUESS	QUANT	1.00000E+004	E&stimated Z (ohms)
OCVCURVE	TABLE	19
	Pt	T	Vf	Vm	Ach	Over
	#	s	V vs. Ref.	V	V	bits
	0	0.258333	3.91025E-002	3.91025E-002	5.61699E-004	...........
	1	0.516667	3.91516E-002	4.16724E-002	5.60132E-004	...........
	2	0.775	3.94505E-002	4.39719E-002	5.60399E-004	...........
	3	1.03333	4.02859E-002	4.61074E-002	5.62899E-004	...........
	4	1.29167	4.17580E-002	4.81606E-002	5.63666E-004	...........
	5	1.55	4.36819E-002	5.00518E-002	5.66632E-004	...........
	6	1.80833	4.57767E-002	5.18194E-002	5.66299E-004	...........
	7	2.06667	4.78395E-002	5.33883E-002	5.67732E-004	...........
	8	2.325	4.97752E-002	5.49361E-002	5.70099E-004	...........
	9	2.58333	5.15617E-002	5.63868E-002	5.63632E-004	...........
	10	2.84167	5.32144E-002	5.77334E-002	5.58032E-004	...........
	11	3.1	5.47578E-002	5.90197E-002	5.60666E-004	...........
	12	3.35833	5.62083E-002	6.02166E-002	5.62266E-004	...........
	13	3.61667	5.75749E-002	6.13768E-002	5.63499E-004	...........
	14	3.875	5.88649E-002	6.24759E-002	5.64899E-004	...........
	15	4.13333	6.00864E-002	6.35224E-002	5.62166E-004	...........
	16	4.39167	6.12469E-002	6.45150E-002	5.61666E-004	...........
	17	4.65	6.23519E-002	6.54942E-002	5.65866E-004	...........
	18	4.90833	6.34055E-002	6.63588E-002	5.64499E-004	...........
EOC	QUANT	0.0634055	Open Circuit (V)
PSTATMODEL	IQUANT	4	Pstat Model
PSTATSECTION	LABEL	REF600-11020	Pstat Section
PSTATSERIALNO	LABEL	11020	Pstat Serial Number
CTRLMODE	IQUANT	1	Control Mode
IESTAB	IQUANT	0	I/E Stability
CASPEED	IQUANT	1	Control Amp Speed
CONVENTION	IQUANT	1	Current Convention
ICHRANGE	IQUANT	2	Ich Range
ICHRANGEMODE	TOGGLE	F	Ich Auto Range
ICHOFFSETENABLE	TOGGLE	T	Ich Offset Enable
ICHOFFSET	QUANT	0	Ich Offset (V)
ICHFILTER	IQUANT	3	Ich Filter
VCHRANGE	IQUANT	2	Vch Range
VCHRANGEMODE	TOGGLE	F	Vch Auto Range
VCHOFFSETENABLE	TOGGLE	T	Vch Offset Enable
VCHOFFSET	QUANT	0	Vch Offset (V)
VCHFILTER	IQUANT	3	Vch Filter
ACHRANGE	IQUANT	2	Ach Range
ACHOFFSETENABLE	TOGGLE	F	Ach Offset Enable
ACHOFFSET	QUANT	0	Ach Offset (V)
ACHFILTER	IQUANT	3	Ach Filter
IERANGELOWERLIMIT	IQUANT	1	I/E Range Lower Limit
IERANGEMODE	TOGGLE	F	I/E AutoRange
IERANGE	IQUANT	7	I/E Range
POSFEEDENABLE	TOGGLE	F	Positive Feedback IR Comp
POSFEEDRESISTANCE	QUANT	0	Positive Feedback Resistance (ohm)
ACHSELECT	IQUANT	0	Ach Select
CABLEID	IQUANT	14	Cable ID
DCCALDATE	LABEL	8/19/2019	DC Calibration Date
ACCALDATE	LABEL	8/19/2019	AC Calibration Date
THERMOSELECT	IQUANT	1	Thermo Select
FRAMEWORKVERSION	QUANT	6.33	Framework Version
INSTRUMENTVERSION	LABEL	3.50	Instrument Version
ZCURVE	TABLE
	Pt	Time	Freq	Zreal	Zimag	Zsig	Zmod	Zphz	Idc	Vdc	IERange
	#	s	Hz	ohm	ohm	V	ohm	°	A	V	#
	0	2	1000078	2203.737	-2325.716	1	3203.968	-46.5426	-1.969214E-006	0.0658709	8
	1	4	794390.6	2650.618	-2455.72	1	3613.356	-42.8142	2.599261E-007	0.0654362	8
	2	5	630984.4	3121.542	-2538.344	1	4023.333	-39.11697	2.431526E-008	0.0653892	8
	3	6	501234.4	3619.199	-2558.477	1	4432.201	-35.25718	-2.569265E-006	0.0657335	8
	4	8	398109.4	4069.513	-2494.526	1	4773.217	-31.50742	1.020575E-006	0.0652137	8
	5	9	316265.6	4534.892	-2397.458	1	5129.625	-27.86404	1.375616E-006	0.0646576	8
	6	11	251203.1	4972.453	-2229.01	1	5449.199	-24.14535	3.153317E-006	0.0644766	8
	7	12	199546.9	5291.035	-2100.462	1	5692.714	-21.65234	3.654965E-006	0.0644523	8
	8	14	158578.1	5621.08	-1925.615	1	5941.762	-18.90994	2.655393E-008	0.0651793	8
	9	16	125953.1	5891.403	-1740.059	1	6142.999	-16.4548	-2.263189E-006	0.065573	8
	10	17	100078.1	6153.743	-1514.617	1	6337.398	-13.82733	8.539834E-008	0.0649132	7
	11	19	79453.13	6340.393	-1378.362	1	6488.487	-12.26491	-8.746805E-008	0.0652214	7
	12	20	63140.62	6505.288	-1257.883	1	6625.786	-10.94383	4.226151E-008	0.0649336	7
	13	22	50203.12	6644.013	-1146.067	1	6742.135	-9.78699	7.313673E-008	0.0649578	7
	14	23	39890.62	6762.706	-1053.646	1	6844.294	-8.855623	-8.62964E-008	0.0652175	7
	15	25	31640.63	6872.345	-984.42	1	6942.493	-8.151809	8.701759E-008	0.0648931	7
	16	26	25171.88	6965.635	-930.1693	1	7027.466	-7.606102	-5.806452E-008	0.065264	7
	17	28	20015.62	7055.841	-902.0903	1	7113.273	-7.285749	1.008698E-007	0.0650098	7
	18	30	15890.62	7126.842	-889.0182	1	7182.077	-7.110474	-8.56345E-008	0.0652146	7
	19	31	12609.37	7206.39	-906.4572	1	7263.175	-7.169309	-3.235492E-009	0.0651177	7
	20	33	10078.13	7279.334	-944.5675	1	7340.362	-7.393397	4.980262E-008	0.0650085	7
	21	34	8015.625	7344.581	-1005.076	1	7413.032	-7.792292	-8.486933E-008	0.0652102	7
	22	36	6328.125	7424.191	-1106.894	1	7506.253	-8.47993	1.007383E-007	0.0650054	7
	23	37	5015.625	7506.1	-1235.259	1	7607.063	-9.345254	1.018735E-007	0.0650057	7
	24	39	3984.375	7588.973	-1403.824	1	7717.722	-10.48023	7.411546E-008	0.0649459	7
	25	41	3170.956	7682.039	-1612.495	1	7849.45	-11.85454	4.896546E-008	0.0650045	7
	26	42	2527.573	7784.953	-1872.044	1	8006.875	-13.52117	-1.119218E-008	0.0650007	7
	27	44	1976.103	7914.564	-2226.623	1	8221.812	-15.71301	1.457425E-007	0.0648382	7
	28	45	1577.524	8044.523	-2623.479	1	8461.501	-18.06218	-2.70524E-008	0.0650481	7
	29	47	1265.625	8193.23	-3103.038	1	8761.157	-20.74328	-3.558676E-008	0.0650704	7
	30	48	998.264	8382.427	-3732.239	1	9175.767	-24.00081	-5.621037E-008	0.0652461	7
	31	50	796.875	8596.713	-4440.567	1	9675.85	-27.31828	1.723908E-009	0.0648768	6
	32	51	627.7902	8858.814	-5379.788	1	10364.4	-31.26951	-3.69224E-009	0.0651426	6
	33	52	505.5147	9147.251	-6417.356	1	11173.84	-35.05201	-7.979533E-009	0.0650422	6
	34	54	397.9953	9512.83	-7797.164	1	12299.99	-39.33967	-1.301811E-009	0.065029	6
	35	55	315.5048	9948.68	-9440.45	1	13714.9	-43.49849	-8.707711E-011	0.0650302	6
	36	57	252.4038	10449.26	-11354.9	1	15431.16	-47.37842	-1.192209E-009	0.0650208	6
	37	58	198.6229	11100.14	-13864.05	1	17760.21	-51.31776	-1.024418E-009	0.0650246	6
	38	59	158.3615	11860.03	-16764.44	1	20535.5	-54.72244	-1.483399E-010	0.0650184	6
	39	61	125.558	12809.59	-20377.12	1	24068.91	-57.84546	-4.48739E-010	0.0650218	6
	40	62	100.4464	13889.85	-24619.23	1	28267.2	-60.56887	-1.34518E-009	0.0650202	6
	41	63	79.00281	15565.99	-30101.35	1	33887.92	-62.65564	-8.88576E-010	0.0650181	6
	42	65	63.3446	17728.21	-36601.56	1	40668.95	-64.15646	-2.846466E-010	0.0650158	6
	43	66	49.86702	19370.84	-44685.85	1	48703.74	-66.56377	3.602046E-011	0.0650094	6
	44	68	39.72458	22838.11	-53913.51	1	58551.22	-67.04217	-3.146076E-010	0.0650139	6
	45	69	31.6723	27064.75	-65002.88	1	70412.18	-67.395	-1.075283E-009	0.0650106	6
	46	70	24.93351	32343.24	-78959.02	1	85326.5	-67.72498	-7.311283E-010	0.0650172	6
	47	72	19.86229	39190.39	-94793.55	1	102575.4	-67.53838	-8.486434E-010	0.0650139	6
	48	73	15.83615	48122.7	-113125.8	1	122935.9	-66.95554	-1.207721E-009	0.0650182	5
	49	75	12.40079	60826.39	-136648.1	1	149574.5	-66.00464	-2.796832E-009	0.0650181	5
	50	76	9.93114	72621.16	-159455.4	1	175213.8	-65.51395	-1.023707E-009	0.0650186	5
	51	78	7.944915	88700.95	-187005.8	1	206976	-64.62399	-1.137913E-009	0.0650248	5
	52	79	6.317385	108873.6	-217527.9	1	243252.6	-63.41185	-1.935737E-009	0.0650129	5
	53	81	5.008013	132262	-253257.7	1	285714.4	-62.42451	-1.243111E-009	0.0650083	5
	54	84	3.945707	160203.9	-294945.6	1	335645.9	-61.49077	-8.613356E-010	0.0650194	5
	55	87	3.158693	190377.3	-339732.6	1	389437.8	-60.73486	-1.213821E-009	0.0650059	5
	56	90	2.504006	226440.8	-392513.8	1	453147.3	-60.0194	-7.760528E-010	0.0650108	5
	57	93	1.998082	266496.8	-452186	1	524874	-59.48693	-1.093632E-009	0.0650497	5
	58	96	1.584686	312294.7	-523353.7	1	609448.1	-59.1747	-9.556573E-010	0.0650321	5
	59	99	1.266892	364823.2	-602306.4	1	704179.6	-58.79628	-1.0551E-009	0.0650542	5
	60	104	0.999041	430440.6	-698724.3	1	820667.3	-58.36536	-9.350348E-010	0.0649917	5
