EXPLAIN
TAG	EISPOT
TITLE	LABEL	Potentiostatic EIS	Test &Identifier
DATE	LABEL	11/27/2019	Date
TIME	LABEL	13:37:05	Time
NOTES	NOTES	3	&Notes...
	
	
	
PSTAT	PSTAT	REF600-11020	Potentiostat
VDC	POTEN	0.00000E+000	T	DC &Voltage (V)
FREQINIT	QUANT	1.00000E+006	Initial Fre&q. (Hz)
FREQFINAL	QUANT	1.00000E+000	Final Fre&q. (Hz)
PTSPERDEC	QUANT	1.00000E+001	Points/&decade
VAC	QUANT	2.50000E+001	AC &Voltage (mV rms)
AREA	QUANT	1.00000E-002	&Area (cm^2)
CONDIT	TWOPARAM	T	5.00000E+000	0.00000E+000	Conditionin&g	Time(s)	E(V)
DELAY	TWOPARAM	T	5.00000E+000	0.00000E+000	Init. De&lay	Time(s)	Stab.(mV/s)
SPEED	SELECTOR	0	&Optimize for:
ZGUESS	QUANT	1.00000E+005	E&stimated Z (ohms)
OCVCURVE	TABLE	19
	Pt	T	Vf	Vm	Ach	Over
	#	s	V vs. Ref.	V	V	bits
	0	0.258333	4.26223E-005	4.26223E-005	5.41533E-004	...........
	1	0.516667	3.45093E-005	-3.82057E-004	5.37399E-004	...........
	2	0.775	-3.35685E-005	-1.74042E-003	5.36866E-004	...........
	3	1.03333	-3.37946E-004	-5.71921E-003	5.35266E-004	...........
	4	1.29167	-1.12890E-003	-4.61016E-003	5.32133E-004	...........
	5	1.55	-2.30834E-003	-1.46857E-003	5.32766E-004	...........
	6	1.80833	-3.13885E-003	2.42272E-003	5.49033E-004	...........
	7	2.06667	-2.83207E-003	2.09252E-003	5.42466E-004	...........
	8	2.325	-1.36350E-003	5.74042E-003	5.46433E-004	...........
	9	2.58333	6.64940E-004	5.78109E-003	5.45166E-004	...........
	10	2.84167	2.64372E-003	4.55468E-003	5.45966E-004	...........
	11	3.1	4.09538E-003	3.52738E-003	5.42766E-004	...........
	12	3.35833	4.71305E-003	3.44924E-003	5.40766E-004	...........
	13	3.61667	4.57776E-003	2.77793E-003	5.41733E-004	...........
	14	3.875	4.06105E-003	2.59737E-003	5.40399E-004	...........
	15	4.13333	3.48810E-003	2.26104E-003	5.48566E-004	...........
	16	4.39167	2.99866E-003	1.89343E-003	5.38766E-004	...........
	17	4.65	2.58052E-003	4.84342E-004	5.36799E-004	...........
	18	4.90833	2.14907E-003	1.35114E-003	5.44766E-004	...........
EOC	QUANT	0.0021491	Open Circuit (V)
PSTATMODEL	IQUANT	4	Pstat Model
PSTATSECTION	LABEL	REF600-11020	Pstat Section
PSTATSERIALNO	LABEL	11020	Pstat Serial Number
CTRLMODE	IQUANT	1	Control Mode
IESTAB	IQUANT	0	I/E Stability
CASPEED	IQUANT	1	Control Amp Speed
CONVENTION	IQUANT	1	Current Convention
ICHRANGE	IQUANT	2	Ich Range
ICHRANGEMODE	TOGGLE	F	Ich Auto Range
ICHOFFSETENABLE	TOGGLE	T	Ich Offset Enable
ICHOFFSET	QUANT	0	Ich Offset (V)
ICHFILTER	IQUANT	3	Ich Filter
VCHRANGE	IQUANT	2	Vch Range
VCHRANGEMODE	TOGGLE	F	Vch Auto Range
VCHOFFSETENABLE	TOGGLE	T	Vch Offset Enable
VCHOFFSET	QUANT	0	Vch Offset (V)
VCHFILTER	IQUANT	3	Vch Filter
ACHRANGE	IQUANT	2	Ach Range
ACHOFFSETENABLE	TOGGLE	F	Ach Offset Enable
ACHOFFSET	QUANT	0	Ach Offset (V)
ACHFILTER	IQUANT	3	Ach Filter
IERANGELOWERLIMIT	IQUANT	1	I/E Range Lower Limit
IERANGEMODE	TOGGLE	F	I/E AutoRange
IERANGE	IQUANT	4	I/E Range
POSFEEDENABLE	TOGGLE	F	Positive Feedback IR Comp
POSFEEDRESISTANCE	QUANT	0	Positive Feedback Resistance (ohm)
ACHSELECT	IQUANT	0	Ach Select
CABLEID	IQUANT	14	Cable ID
DCCALDATE	LABEL	8/19/2019	DC Calibration Date
ACCALDATE	LABEL	8/19/2019	AC Calibration Date
THERMOSELECT	IQUANT	1	Thermo Select
FRAMEWORKVERSION	QUANT	6.33	Framework Version
INSTRUMENTVERSION	LABEL	3.50	Instrument Version
ZCURVE	TABLE
	Pt	Time	Freq	Zreal	Zimag	Zsig	Zmod	Zphz	Idc	Vdc	IERange
	#	s	Hz	ohm	ohm	V	ohm	°	A	V	#
	0	2	1000078	2000.206	-1443.34	1	2466.587	-35.81406	-6.980998E-006	0.0057899	8
	1	2	794390.6	2288.133	-1413.176	1	2689.353	-31.69994	9.624239E-006	0.0028517	8
	2	2	630984.4	2551.296	-1334.318	1	2879.152	-27.60939	-3.541638E-006	0.004495	8
	3	3	501234.4	2782.519	-1234.957	1	3044.262	-23.93294	-4.180069E-006	0.0043451	8
	4	3	398109.4	2966.516	-1122.12	1	3171.651	-20.71973	5.923864E-006	0.0031864	8
	5	3	316265.6	3129.355	-1005.995	1	3287.079	-17.82106	5.001622E-006	0.0031708	8
	6	4	251203.1	3262.206	-893.0394	1	3382.234	-15.30982	-5.43225E-006	0.004612	8
	7	4	199546.9	3369.661	-790.6687	1	3461.181	-13.20519	-3.094419E-006	0.0043394	8
	8	4	158578.1	3459.191	-719.8914	1	3533.305	-11.75601	-5.597069E-007	0.0035673	8
	9	5	125953.1	3547.878	-606.9684	1	3599.423	-9.70814	3.358206E-006	-0.0003079	7
	10	5	100078.1	3586.666	-550.7067	1	3628.698	-8.729183	3.626064E-007	0.0042377	7
	11	5	79453.13	3640.842	-517.92	1	3677.496	-8.096167	5.611804E-007	0.0039368	7
	12	6	63140.62	3692.669	-494.752	1	3725.666	-7.631168	9.627976E-007	0.002455	7
	13	6	50203.12	3734.021	-479.5226	1	3764.685	-7.317867	-6.741067E-007	0.0036655	7
	14	6	39890.62	3778.068	-478.2985	1	3808.224	-7.215188	-1.09591E-006	0.0050924	7
	15	7	31640.63	3834.112	-487.0207	1	3864.92	-7.239118	9.643275E-007	0.002451	7
	16	7	25171.88	3881.651	-503.1665	1	3914.127	-7.38589	9.146286E-007	0.0031015	7
	17	7	20015.62	3933.132	-529.9703	1	3968.677	-7.674104	9.633992E-007	0.0024543	7
	18	8	15890.62	3982.557	-564.0206	1	4022.297	-8.06078	5.618117E-007	0.0039316	7
	19	8	12609.37	4039.526	-611.2307	1	4085.507	-8.604298	7.60145E-007	0.0035394	7
	20	8	10078.13	4097.062	-665.9471	1	4150.831	-9.232265	4.136431E-007	0.0022946	7
	21	8	8015.625	4151.55	-734.3484	1	4215.997	-10.03102	7.577524E-007	0.0035345	7
	22	9	6328.125	4224.725	-831.9982	1	4305.871	-11.141	9.817799E-007	0.0027366	7
	23	9	5015.625	4287.684	-940.8814	1	4389.703	-12.37671	3.635159E-007	0.0042239	7
	24	9	3984.375	4350.001	-1068.505	1	4479.309	-13.80052	-2.43759E-007	0.0049737	7
	25	10	3170.956	4427.492	-1240.481	1	4597.986	-15.65165	-9.746867E-007	0.0052342	7
	26	10	2527.573	4509.091	-1446.042	1	4735.287	-17.78078	8.205726E-008	0.002565	7
	27	10	1976.103	4598.603	-1718.24	1	4909.124	-20.4879	-1.094636E-006	0.0050834	7
	28	11	1577.524	4693.396	-2035.992	1	5115.978	-23.45117	7.601356E-007	0.003534	7
	29	11	1265.625	4796.447	-2413.981	1	5369.656	-26.71544	9.641697E-007	0.0024454	7
	30	11	998.264	4911.491	-2909.989	1	5708.833	-30.64614	8.292196E-008	0.0046052	7
	31	12	796.875	5041.722	-3488.839	1	6131.146	-34.68298	-1.094015E-006	0.0050797	7
	32	12	627.7902	5201.696	-4268.053	1	6728.59	-39.36928	-6.752473E-007	0.0036496	7
	33	12	505.5147	5380.594	-5137.679	1	7439.525	-43.67702	3.650521E-007	0.0042209	7
	34	13	397.9953	5612.989	-6314.637	1	8448.686	-48.36657	-3.385452E-010	0.0037903	7
	35	13	315.5048	5897.202	-7732.716	1	9724.81	-52.66977	3.67809E-009	0.0037925	7
	36	13	252.4038	6241.275	-9404.609	1	11287.17	-56.43016	9.820431E-010	0.0037335	6
	37	14	198.6229	6708.234	-11615.24	1	13413.21	-59.99196	6.130917E-010	0.0037298	6
	38	14	158.3615	7285.266	-14176.9	1	15939.25	-62.80214	5.055482E-010	0.0037326	6
	39	14	125.558	8044.229	-17394.32	1	19164.34	-65.18121	2.662961E-010	0.0037374	6
	40	15	100.4464	8991.645	-21126.32	1	22960.21	-66.94475	-7.955306E-010	0.0037241	6
	41	15	79.00281	10372.42	-25994.71	1	27987.71	-68.24699	-4.002948E-011	0.0037239	6
	42	15	63.3446	11892.47	-31851.13	1	33998.9	-69.52554	4.198181E-010	0.0037346	6
	43	16	49.86702	14144.4	-38831.49	1	41327.34	-69.98581	6.497681E-010	0.0037243	6
	44	16	39.72458	17082.11	-46706.55	1	49732.29	-69.91089	-1.155626E-010	0.0037359	6
	45	16	31.6723	20738.09	-56045.46	1	59759.2	-69.69439	-4.671674E-010	0.0037349	6
	46	17	24.93351	25439.01	-68176.77	1	72768.23	-69.5378	6.848319E-010	0.0037287	6
	47	17	19.86229	31378.53	-81761.41	1	87575.91	-69.00412	1.986015E-009	0.0037399	6
	48	17	15.83615	40255.78	-97316.4	1	105313.8	-67.52713	-3.970909E-009	0.0037299	5
	49	18	12.40079	49520.27	-116612.4	1	126691.4	-66.99116	-1.268206E-009	0.0037315	5
	50	18	9.93114	61706.44	-137692.2	1	150886.8	-65.86058	-1.158835E-009	0.0037442	5
	51	19	7.944915	76200.87	-160312.1	1	177500.8	-64.57693	6.731496E-011	0.0037286	5
	52	19	6.317385	94451.13	-185958.6	1	208570.4	-63.07331	2.199362E-009	0.0037348	5
	53	20	5.008013	116526.5	-214936.2	1	244491.3	-61.5359	5.013805E-010	0.0037256	5
	54	21	3.945707	142367.6	-247997.5	1	285956.8	-60.1412	2.40956E-010	0.0037318	5
	55	22	3.158693	169880.7	-281678.4	1	328941	-58.90576	-2.974633E-010	0.0037453	5
	56	24	2.504006	207535.8	-324325.7	1	385043.2	-57.38485	-7.878695E-010	0.0037301	5
	57	25	1.998082	220937.8	-359370.2	1	421853.5	-58.41715	-2.556741E-010	0.0037704	5
	58	27	1.584686	273302.1	-418244.7	1	499622.5	-56.83739	3.115233E-010	0.0037728	5
	59	29	1.266892	303234.2	-480495.1	1	568178.3	-57.74451	1.188978E-009	0.0037379	5
	60	31	0.999041	350886.3	-552763.3	1	654727.8	-57.5932	-4.510743E-011	0.0037084	5
