EXPLAIN
TAG	EISPOT
TITLE	LABEL	Potentiostatic EIS	Test &Identifier
DATE	LABEL	10/22/2019	Date
TIME	LABEL	9:17:08	Time
NOTES	NOTES	1	&Notes...
	
PSTAT	PSTAT	REF600-11020	Potentiostat
VDC	POTEN	0.00000E+000	T	DC &Voltage (V)
FREQINIT	QUANT	1.00000E+006	Initial Fre&q. (Hz)
FREQFINAL	QUANT	1.00000E+000	Final Fre&q. (Hz)
PTSPERDEC	QUANT	1.00000E+001	Points/&decade
VAC	QUANT	2.50000E+001	AC &Voltage (mV rms)
AREA	QUANT	1.00000E-002	&Area (cm^2)
CONDIT	TWOPARAM	T	5.00000E+000	0.00000E+000	Conditionin&g	Time(s)	E(V)
DELAY	TWOPARAM	T	5.00000E+000	0.00000E+000	Init. De&lay	Time(s)	Stab.(mV/s)
SPEED	SELECTOR	1	&Optimize for:
ZGUESS	QUANT	1.00000E+005	E&stimated Z (ohms)
OCVCURVE	TABLE	19
	Pt	T	Vf	Vm	Ach	Over
	#	s	V vs. Ref.	V	V	bits
	0	0.258333	1.02862E-002	1.02862E-002	5.41833E-004	...........
	1	0.516667	1.02937E-002	1.06805E-002	5.36466E-004	...........
	2	0.775	1.03395E-002	1.10326E-002	5.39099E-004	...........
	3	1.03333	1.04665E-002	1.12983E-002	5.40833E-004	...........
	4	1.29167	1.06854E-002	1.15813E-002	5.41166E-004	...........
	5	1.55	1.09635E-002	1.18653E-002	5.35766E-004	...........
	6	1.80833	1.12597E-002	1.21285E-002	5.36799E-004	...........
	7	2.06667	1.15516E-002	1.23869E-002	5.39533E-004	...........
	8	2.325	1.18323E-002	1.26371E-002	5.40766E-004	...........
	9	2.58333	1.21022E-002	1.29039E-002	5.39833E-004	...........
	10	2.84167	1.23640E-002	1.31346E-002	5.37133E-004	...........
	11	3.1	1.26192E-002	1.33260E-002	5.33900E-004	...........
	12	3.35833	1.28646E-002	1.35528E-002	5.36599E-004	...........
	13	3.61667	1.30969E-002	1.37548E-002	5.37599E-004	...........
	14	3.875	1.33179E-002	1.39859E-002	5.41733E-004	...........
	15	4.13333	1.35331E-002	1.41846E-002	5.39833E-004	...........
	16	4.39167	1.37464E-002	1.43868E-002	5.40566E-004	...........
	17	4.65	1.39576E-002	1.45747E-002	5.40299E-004	...........
	18	4.90833	1.41638E-002	1.47488E-002	5.48333E-004	...........
EOC	QUANT	0.0141638	Open Circuit (V)
PSTATMODEL	IQUANT	4	Pstat Model
PSTATSECTION	LABEL	REF600-11020	Pstat Section
PSTATSERIALNO	LABEL	11020	Pstat Serial Number
CTRLMODE	IQUANT	1	Control Mode
IESTAB	IQUANT	0	I/E Stability
CASPEED	IQUANT	1	Control Amp Speed
CONVENTION	IQUANT	1	Current Convention
ICHRANGE	IQUANT	2	Ich Range
ICHRANGEMODE	TOGGLE	F	Ich Auto Range
ICHOFFSETENABLE	TOGGLE	T	Ich Offset Enable
ICHOFFSET	QUANT	0	Ich Offset (V)
ICHFILTER	IQUANT	3	Ich Filter
VCHRANGE	IQUANT	2	Vch Range
VCHRANGEMODE	TOGGLE	F	Vch Auto Range
VCHOFFSETENABLE	TOGGLE	T	Vch Offset Enable
VCHOFFSET	QUANT	0	Vch Offset (V)
VCHFILTER	IQUANT	3	Vch Filter
ACHRANGE	IQUANT	2	Ach Range
ACHOFFSETENABLE	TOGGLE	F	Ach Offset Enable
ACHOFFSET	QUANT	0	Ach Offset (V)
ACHFILTER	IQUANT	3	Ach Filter
IERANGELOWERLIMIT	IQUANT	1	I/E Range Lower Limit
IERANGEMODE	TOGGLE	F	I/E AutoRange
IERANGE	IQUANT	5	I/E Range
POSFEEDENABLE	TOGGLE	F	Positive Feedback IR Comp
POSFEEDRESISTANCE	QUANT	0	Positive Feedback Resistance (ohm)
ACHSELECT	IQUANT	0	Ach Select
CABLEID	IQUANT	14	Cable ID
DCCALDATE	LABEL	8/19/2019	DC Calibration Date
ACCALDATE	LABEL	8/19/2019	AC Calibration Date
THERMOSELECT	IQUANT	1	Thermo Select
FRAMEWORKVERSION	QUANT	6.33	Framework Version
INSTRUMENTVERSION	LABEL	3.50	Instrument Version
ZCURVE	TABLE
	Pt	Time	Freq	Zreal	Zimag	Zsig	Zmod	Zphz	Idc	Vdc	IERange
	#	s	Hz	ohm	ohm	V	ohm	°	A	V	#
	0	2	1000078	2619.167	-1889.128	1	3229.371	-35.80181	-3.815426E-006	0.017304	8
	1	4	794390.6	2998.707	-1777.959	1	3486.17	-30.66406	2.623473E-006	0.0158942	8
	2	5	630984.4	3326.672	-1666.706	1	3720.841	-26.61147	3.895331E-007	0.015783	8
	3	6	501234.4	3611.387	-1486.404	1	3905.319	-22.37148	1.05751E-007	0.0160254	8
	4	8	398109.4	3831.608	-1306.237	1	4048.145	-18.82481	-2.257299E-006	0.016341	8
	5	9	316265.6	3987.687	-1119.502	1	4141.852	-15.68153	1.445464E-006	0.0155726	8
	6	11	251203.1	4135.403	-981.732	1	4250.336	-13.35463	-1.336096E-006	0.0161176	8
	7	12	199546.9	4225.711	-859.5513	1	4312.246	-11.49767	-2.881605E-006	0.0164989	8
	8	13	158578.1	4288.391	-737.1478	1	4351.285	-9.75347	1.386937E-007	0.0158949	8
	9	15	125953.1	4376.657	-594.4443	1	4416.842	-7.734671	6.174615E-007	0.014506	7
	10	16	100078.1	4411.539	-549.3314	1	4445.609	-7.09802	9.37526E-008	0.0157184	7
	11	17	79453.13	4456.575	-516.1731	1	4486.368	-6.606721	-1.741567E-008	0.0157587	7
	12	19	63140.62	4498.191	-497.2481	1	4525.591	-6.308094	-9.28019E-009	0.0159196	7
	13	20	50203.12	4540.56	-491.0204	1	4567.032	-6.172034	8.111496E-008	0.0156042	7
	14	22	39890.62	4582.708	-496.9221	1	4609.571	-6.18864	-3.759342E-008	0.015797	7
	15	23	31640.63	4628.629	-513.9643	1	4657.077	-6.336183	-6.00996E-008	0.0159607	7
	16	24	25171.88	4676.599	-543.4134	1	4708.065	-6.627955	-2.240228E-008	0.0158414	7
	17	26	20015.62	4723.159	-583.8558	1	4759.109	-7.046898	6.131692E-008	0.0156856	7
	18	27	15890.62	4787.13	-636.4033	1	4829.247	-7.572526	-2.153809E-008	0.015839	7
	19	28	12609.37	4848.584	-701.1055	1	4899.012	-8.227942	1.347145E-007	0.0155791	7
	20	30	10078.13	4914.503	-778.6979	1	4975.813	-9.003605	-3.701833E-008	0.0158632	7
	21	31	8015.625	4970.955	-863.7035	1	5045.432	-9.85674	-1.615614E-008	0.0157605	7
	22	33	6328.125	5065.342	-995.035	1	5162.149	-11.11367	7.362714E-009	0.0157112	7
	23	34	5015.625	5151.097	-1137.059	1	5275.103	-12.44792	3.873729E-008	0.0156495	7
	24	35	3984.375	5241.782	-1303.321	1	5401.381	-13.96293	-2.048014E-008	0.0158486	7
	25	37	3170.956	5340.682	-1514.16	1	5551.177	-15.82879	-6.737653E-009	0.0159155	7
	26	38	2527.573	5445.988	-1762.394	1	5724.056	-17.93227	4.58695E-008	0.0157324	7
	27	39	1976.103	5571.71	-2092.568	1	5951.705	-20.58468	-2.013165E-008	0.0158425	7
	28	41	1577.524	5677.847	-2410.627	1	6168.393	-23.00448	-6.675626E-009	0.0159111	7
	29	42	1265.625	5839.513	-2908.014	1	6523.531	-26.4728	-2.136888E-008	0.0158383	7
	30	43	998.264	6015.68	-3486.735	1	6953.109	-30.09691	6.025638E-008	0.0156773	7
	31	45	796.875	6200.879	-4160.177	1	7467.126	-33.85771	-5.098213E-008	0.0158135	7
	32	46	627.7902	6422.825	-5032.448	1	8159.547	-38.07961	8.291919E-008	0.0156053	7
	33	48	505.5147	6653.51	-6010.327	1	8966.227	-42.09251	1.363828E-007	0.0155728	7
	34	49	397.9953	6950.043	-7326.523	1	10098.57	-46.51057	6.137483E-009	0.0157983	7
	35	50	315.5048	7286.133	-8907.687	1	11508.02	-50.7182	1.299308E-009	0.0157394	6
	36	52	252.4038	7665.968	-10783.84	1	13230.96	-54.59191	5.908115E-010	0.0157357	6
	37	53	198.6229	8156.191	-13270.3	1	15576.41	-58.4243	6.416116E-010	0.0157342	6
	38	54	158.3615	8732.299	-16175.99	1	18382.49	-61.63846	1.163878E-009	0.0157303	6
	39	56	125.558	9471.393	-19852.7	1	21996.3	-64.49497	5.828199E-010	0.0157341	6
	40	57	100.4464	10411.16	-24188.61	1	26334.03	-66.7122	2.664147E-010	0.0157352	6
	41	59	79.00281	11712.77	-29889.64	1	32102.64	-68.60141	-2.606502E-009	0.0157305	6
	42	60	63.3446	13394.99	-36589.15	1	38963.98	-69.89274	3.413013E-009	0.0157327	6
	43	61	49.86702	15142.34	-44916.52	1	47400.26	-71.36992	-2.325218E-009	0.0157258	6
	44	63	39.72458	18119.7	-54732.05	1	57653.46	-71.68226	2.332015E-009	0.0157349	6
	45	64	31.6723	21871.98	-66438.29	1	69945.91	-71.77808	1.251132E-009	0.0157372	6
	46	66	24.93351	26795.24	-81397.55	1	85694.5	-71.77898	7.204291E-010	0.0157315	6
	47	67	19.86229	33013.27	-98334.7	1	103728.5	-71.44189	-5.592668E-011	0.0157324	6
	48	68	15.83615	41374.58	-118629.1	1	125637.3	-70.77263	3.188978E-010	0.0157405	5
	49	70	12.40079	53194.48	-145043.8	1	154490.6	-69.8596	-9.002786E-010	0.0157461	5
	50	71	9.93114	66206.04	-170666.9	1	183058.6	-68.79746	5.859947E-011	0.0157407	5
	51	73	7.944915	83880.28	-201953	1	218679.9	-67.44466	5.39057E-010	0.0157441	5
	52	75	6.317385	106268.4	-238195.5	1	260825.8	-65.95647	-1.345199E-010	0.0157621	5
	53	77	5.008013	134571.1	-279305.1	1	310033.4	-64.27491	-5.310689E-011	0.0157356	5
	54	79	3.945707	170149.1	-325706.7	1	367471.9	-62.41745	3.793719E-010	0.015746	5
	55	82	3.158693	210357.2	-373146.5	1	428355.5	-60.58835	-2.58268E-010	0.0157258	5
	56	85	2.504006	258861	-426267.5	1	498711.4	-58.73079	2.359532E-010	0.0157472	5
	57	88	1.998082	312143.9	-481100.5	1	573490.6	-57.024	3.430638E-010	0.015719	5
	58	91	1.584686	374832.6	-543041.3	1	659843.4	-55.38474	-1.544853E-010	0.0156957	5
	59	95	1.266892	439536.9	-604264.1	1	747213.4	-53.96816	1.673799E-010	0.0157001	5
	60	99	0.999041	514004.1	-678339.2	1	851084.2	-52.84737	-2.560375E-010	0.0157613	5
