EXPLAIN
TAG	EISPOT
TITLE	LABEL	Potentiostatic EIS	Test &Identifier
DATE	LABEL	9/26/2019	Date
TIME	LABEL	9:24:00	Time
NOTES	NOTES	2	&Notes...
	
	
PSTAT	PSTAT	REF600-11020	Potentiostat
VDC	POTEN	0.00000E+000	T	DC &Voltage (V)
FREQINIT	QUANT	1.00000E+006	Initial Fre&q. (Hz)
FREQFINAL	QUANT	1.00000E+000	Final Fre&q. (Hz)
PTSPERDEC	QUANT	1.00000E+001	Points/&decade
VAC	QUANT	2.50000E+001	AC &Voltage (mV rms)
AREA	QUANT	1.00000E-002	&Area (cm^2)
CONDIT	TWOPARAM	T	5.00000E+000	0.00000E+000	Conditionin&g	Time(s)	E(V)
DELAY	TWOPARAM	T	5.00000E+000	0.00000E+000	Init. De&lay	Time(s)	Stab.(mV/s)
SPEED	SELECTOR	1	&Optimize for:
ZGUESS	QUANT	1.00000E+004	E&stimated Z (ohms)
OCVCURVE	TABLE	19
	Pt	T	Vf	Vm	Ach	Over
	#	s	V vs. Ref.	V	V	bits
	0	0.258333	2.99259E-002	2.99259E-002	5.88365E-004	...........
	1	0.516667	2.99584E-002	3.16294E-002	5.90165E-004	...........
	2	0.775	3.01580E-002	3.32270E-002	5.88132E-004	...........
	3	1.03333	3.07142E-002	3.43890E-002	5.84399E-004	...........
	4	1.29167	3.16904E-002	3.62417E-002	5.82599E-004	...........
	5	1.55	3.29789E-002	3.74920E-002	5.84865E-004	...........
	6	1.80833	3.44217E-002	3.86777E-002	5.89099E-004	...........
	7	2.06667	3.58808E-002	3.98317E-002	5.88832E-004	...........
	8	2.325	3.72537E-002	4.05458E-002	5.88265E-004	...........
	9	2.58333	3.84960E-002	4.21123E-002	5.86632E-004	...........
	10	2.84167	3.96369E-002	4.30057E-002	5.86365E-004	...........
	11	3.1	4.07389E-002	4.39248E-002	5.87365E-004	...........
	12	3.35833	4.18204E-002	4.48102E-002	5.87265E-004	...........
	13	3.61667	4.28525E-002	4.56666E-002	5.86065E-004	...........
	14	3.875	4.38164E-002	4.64652E-002	5.88032E-004	...........
	15	4.13333	4.47183E-002	4.72546E-002	5.86399E-004	...........
	16	4.39167	4.55716E-002	4.79963E-002	5.86799E-004	...........
	17	4.65	4.63861E-002	4.87102E-002	5.87899E-004	...........
	18	4.90833	4.71668E-002	4.93956E-002	5.87565E-004	...........
EOC	QUANT	0.0471668	Open Circuit (V)
PSTATMODEL	IQUANT	4	Pstat Model
PSTATSECTION	LABEL	REF600-11020	Pstat Section
PSTATSERIALNO	LABEL	11020	Pstat Serial Number
CTRLMODE	IQUANT	1	Control Mode
IESTAB	IQUANT	0	I/E Stability
CASPEED	IQUANT	1	Control Amp Speed
CONVENTION	IQUANT	1	Current Convention
ICHRANGE	IQUANT	2	Ich Range
ICHRANGEMODE	TOGGLE	F	Ich Auto Range
ICHOFFSETENABLE	TOGGLE	T	Ich Offset Enable
ICHOFFSET	QUANT	0	Ich Offset (V)
ICHFILTER	IQUANT	3	Ich Filter
VCHRANGE	IQUANT	2	Vch Range
VCHRANGEMODE	TOGGLE	F	Vch Auto Range
VCHOFFSETENABLE	TOGGLE	T	Vch Offset Enable
VCHOFFSET	QUANT	0	Vch Offset (V)
VCHFILTER	IQUANT	3	Vch Filter
ACHRANGE	IQUANT	2	Ach Range
ACHOFFSETENABLE	TOGGLE	F	Ach Offset Enable
ACHOFFSET	QUANT	0	Ach Offset (V)
ACHFILTER	IQUANT	3	Ach Filter
IERANGELOWERLIMIT	IQUANT	1	I/E Range Lower Limit
IERANGEMODE	TOGGLE	F	I/E AutoRange
IERANGE	IQUANT	6	I/E Range
POSFEEDENABLE	TOGGLE	F	Positive Feedback IR Comp
POSFEEDRESISTANCE	QUANT	0	Positive Feedback Resistance (ohm)
ACHSELECT	IQUANT	0	Ach Select
CABLEID	IQUANT	14	Cable ID
DCCALDATE	LABEL	8/19/2019	DC Calibration Date
ACCALDATE	LABEL	8/19/2019	AC Calibration Date
THERMOSELECT	IQUANT	1	Thermo Select
FRAMEWORKVERSION	QUANT	6.33	Framework Version
INSTRUMENTVERSION	LABEL	3.50	Instrument Version
ZCURVE	TABLE
	Pt	Time	Freq	Zreal	Zimag	Zsig	Zmod	Zphz	Idc	Vdc	IERange
	#	s	Hz	ohm	ohm	V	ohm	°	A	V	#
	0	2	1000078	2041.149	-2160.706	1	2972.362	-46.62982	-3.134289E-006	0.0505825	8
	1	3	794390.6	2447.333	-2307.983	1	3363.959	-43.32149	1.071318E-006	0.0493011	8
	2	5	630984.4	2892.516	-2382.826	1	3747.601	-39.48137	-4.158245E-006	0.0498917	8
	3	6	501234.4	3323.136	-2404.069	1	4101.558	-35.88325	3.987184E-006	0.0482562	8
	4	8	398109.4	3817.931	-2404.242	1	4511.871	-32.1996	1.049518E-006	0.0485075	8
	5	9	316265.6	4255.486	-2298.444	1	4836.529	-28.37407	-3.415651E-006	0.0495509	8
	6	11	251203.1	4642.86	-2213.43	1	5143.483	-25.48893	-1.313168E-007	0.0489865	8
	7	12	199546.9	5011.409	-2057.65	1	5417.392	-22.32271	-2.221937E-006	0.0492705	8
	8	14	158578.1	5289.668	-1852.637	1	5604.717	-19.30214	3.002016E-006	0.0482321	8
	9	15	125953.1	5661.194	-1623.932	1	5889.505	-16.00571	1.413604E-006	0.046134	7
	10	17	100078.1	5855.421	-1456.297	1	6033.801	-13.96662	-4.546638E-008	0.0488262	7
	11	18	79453.13	6014.041	-1366.872	1	6167.416	-12.80467	1.246501E-007	0.0487666	8
	12	20	63140.62	6197.495	-1180.178	1	6308.864	-10.78165	3.650789E-008	0.0486522	7
	13	21	50203.12	6323.509	-1066.145	1	6412.755	-9.57008	-4.063808E-008	0.0488216	7
	14	22	39890.62	6428.229	-970.639	1	6501.097	-8.586588	-8.425106E-008	0.0489242	7
	15	24	31640.63	6519.496	-901.933	1	6581.589	-7.87653	-3.682974E-008	0.0487965	7
	16	25	25171.88	6594.831	-850.5786	1	6649.457	-7.34924	-5.919857E-008	0.0488296	7
	17	26	20015.62	6677.216	-823.2054	1	6727.77	-7.028286	1.407406E-007	0.0485752	7
	18	28	15890.62	6741.368	-821.7639	1	6791.27	-6.949991	-2.784932E-008	0.0487714	7
	19	29	12609.37	6813.282	-841.9653	1	6865.109	-7.044727	9.829945E-008	0.048716	7
	20	31	10078.13	6875.375	-886.2313	1	6932.257	-7.344888	1.00757E-007	0.0487164	7
	21	32	8015.625	6939.695	-955.652	1	7005.187	-7.840778	-2.816544E-008	0.0487627	7
	22	33	6328.125	7010.697	-1052.237	1	7089.222	-8.535824	3.981805E-008	0.0486459	7
	23	35	5015.625	7088.068	-1185.623	1	7186.543	-9.495965	-3.864938E-010	0.0489137	7
	24	36	3984.375	7163.375	-1352.249	1	7289.892	-10.69008	-4.176541E-008	0.0488011	7
	25	37	3170.956	7249.309	-1566.013	1	7416.527	-12.18986	-5.232952E-008	0.0489549	7
	26	39	2527.573	7344.304	-1828.381	1	7568.472	-13.97973	-2.731062E-008	0.0487698	7
	27	40	1976.103	7465.062	-2183.617	1	7777.875	-16.30481	1.014471E-007	0.0487207	7
	28	41	1577.524	7580.131	-2581.671	1	8007.709	-18.80802	8.718951E-008	0.0486026	7
	29	43	1265.625	7655.194	-3058.598	1	8243.604	-21.77895	-1.563354E-009	0.0488182	7
	30	44	998.264	7894.704	-3690.546	1	8714.728	-25.05473	7.075644E-008	0.0486736	7
	31	46	796.875	8083.719	-4425.19	1	9215.684	-28.69718	-3.806334E-008	0.0488126	7
	32	47	627.7902	8326.819	-5370.973	1	9908.75	-32.82286	1.758372E-008	0.0484841	6
	33	48	505.5147	8574.767	-6430.159	1	10717.91	-36.86598	-3.166267E-009	0.0488455	6
	34	50	397.9953	8903.01	-7845.8	1	11866.77	-41.3882	-3.751406E-010	0.0487398	6
	35	51	315.5048	9279.354	-9546.06	1	13312.91	-45.81168	-2.832037E-011	0.048743	6
	36	52	252.4038	9707.33	-11543.39	1	15082.51	-49.9381	2.778992E-010	0.0487344	6
	37	54	198.6229	10265.78	-14190.56	1	17514.51	-54.11716	6.017639E-010	0.0487375	6
	38	55	158.3615	10922.24	-17266.94	1	20431.41	-57.68451	9.703234E-010	0.0487343	6
	39	56	125.558	11752.02	-21138.89	1	24186	-60.92842	-2.110371E-010	0.0487392	6
	40	58	100.4464	12722.34	-25709.45	1	28685.07	-63.67146	6.226971E-010	0.0487364	6
	41	59	79.00281	14217.3	-31616.45	1	34666	-65.78748	-5.096833E-011	0.0487385	6
	42	61	63.3446	15970.52	-37933.94	1	41158.73	-67.16848	3.007417E-010	0.0487381	6
	43	62	49.86702	18277.33	-47741.79	1	51120.84	-69.05129	-1.042318E-010	0.0487368	6
	44	63	39.72458	21077.26	-57559.16	1	61296.89	-69.88806	4.374411E-012	0.0487417	6
	45	65	31.6723	24748.07	-69866.28	1	74119.93	-70.49481	4.099416E-010	0.0487356	6
	46	66	24.93351	30182.7	-85646.75	1	90809.48	-70.58707	1.557965E-010	0.0487335	6
	47	68	19.86229	36855.11	-103432.3	1	109802.3	-70.38794	1.369472E-011	0.0487412	5
	48	69	15.83615	43953.37	-125562.4	1	133033.1	-70.70729	-1.885715E-009	0.0487427	5
	49	70	12.40079	55685.88	-152081.5	1	161955.8	-69.88938	7.688461E-010	0.0487467	5
	50	72	9.93114	71208.55	-179690.8	1	193285.9	-68.38239	-4.458983E-010	0.0487442	5
	51	73	7.944915	88816.29	-210498.5	1	228468.7	-67.1235	-7.29188E-010	0.0487391	5
	52	75	6.317385	110980.1	-250136.1	1	273650.6	-66.07416	-2.969582E-010	0.0487439	5
	53	77	5.008013	139296.8	-294318.8	1	325618.1	-64.67249	-3.301252E-010	0.0487409	5
	54	79	3.945707	174938.3	-345625.1	1	387375.9	-63.15372	-9.371618E-013	0.0487486	5
	55	82	3.158693	215853.1	-399234.9	1	453851.4	-61.60138	-3.302944E-010	0.048739	5
	56	85	2.504006	266864.1	-460137	1	531923.4	-59.8877	4.78596E-011	0.0487403	5
	57	88	1.998082	324440.7	-523759.7	1	616105.5	-58.22404	-3.967713E-010	0.0487772	5
	58	91	1.584686	393054.7	-595300.9	1	713354.8	-56.56473	-2.428279E-011	0.0487652	5
	59	95	1.266892	469162.9	-666993.3	1	815471.6	-54.87746	-3.269424E-010	0.0487775	5
	60	99	0.999041	558322.4	-750046.6	1	935036.8	-53.33661	-1.638845E-011	0.0487145	5
