EXPLAIN
TAG	EISPOT
TITLE	LABEL	Potentiostatic EIS	Test &Identifier
DATE	LABEL	6/20/2000	Date
TIME	LABEL	9:09:55	Time
NOTES	NOTES	2	&Notes...
	
	
PSTAT	PSTAT	REF600-11020	Potentiostat
VDC	POTEN	0.00000E+000	T	DC &Voltage (V)
FREQINIT	QUANT	1.00000E+006	Initial Fre&q. (Hz)
FREQFINAL	QUANT	1.00000E+000	Final Fre&q. (Hz)
PTSPERDEC	QUANT	1.00000E+001	Points/&decade
VAC	QUANT	2.50000E+001	AC &Voltage (mV rms)
AREA	QUANT	1.00000E-002	&Area (cm^2)
CONDIT	TWOPARAM	T	5.00000E+000	0.00000E+000	Conditionin&g	Time(s)	E(V)
DELAY	TWOPARAM	T	5.00000E+000	0.00000E+000	Init. De&lay	Time(s)	Stab.(mV/s)
SPEED	SELECTOR	0	&Optimize for:
ZGUESS	QUANT	1.00000E+005	E&stimated Z (ohms)
OCVCURVE	TABLE	19
	Pt	T	Vf	Vm	Ach	Over
	#	s	V vs. Ref.	V	V	bits
	0	0.258333	4.79497E-003	4.79497E-003	5.53499E-004	...........
	1	0.516667	4.79435E-003	4.76252E-003	5.53633E-004	...........
	2	0.775	4.78724E-003	4.55877E-003	5.50033E-004	...........
	3	1.03333	4.75752E-003	4.43564E-003	5.54566E-004	...........
	4	1.29167	4.69287E-003	4.51367E-003	5.47033E-004	...........
	5	1.55	4.60826E-003	4.44367E-003	5.51133E-004	...........
	6	1.80833	4.53275E-003	4.33634E-003	5.48566E-004	...........
	7	2.06667	4.47473E-003	4.34492E-003	5.48133E-004	...........
	8	2.325	4.42537E-003	4.32243E-003	5.48933E-004	...........
	9	2.58333	4.38154E-003	4.26634E-003	5.54333E-004	...........
	10	2.84167	4.34415E-003	4.24009E-003	5.50133E-004	...........
	11	3.1	4.31029E-003	4.21667E-003	5.50733E-004	...........
	12	3.35833	4.27763E-003	4.18945E-003	5.47799E-004	...........
	13	3.61667	4.24692E-003	4.17007E-003	5.53099E-004	...........
	14	3.875	4.21913E-003	4.14616E-003	5.48666E-004	...........
	15	4.13333	4.19410E-003	4.12927E-003	5.49199E-004	...........
	16	4.39167	4.17294E-003	4.19673E-003	5.52466E-004	...........
	17	4.65	4.16145E-003	4.22828E-003	5.52366E-004	...........
	18	4.90833	4.16183E-003	4.00322E-003	5.50066E-004	...........
EOC	QUANT	0.0041618	Open Circuit (V)
PSTATMODEL	IQUANT	4	Pstat Model
PSTATSECTION	LABEL	REF600-11020	Pstat Section
PSTATSERIALNO	LABEL	11020	Pstat Serial Number
CTRLMODE	IQUANT	1	Control Mode
IESTAB	IQUANT	0	I/E Stability
CASPEED	IQUANT	1	Control Amp Speed
CONVENTION	IQUANT	1	Current Convention
ICHRANGE	IQUANT	2	Ich Range
ICHRANGEMODE	TOGGLE	F	Ich Auto Range
ICHOFFSETENABLE	TOGGLE	T	Ich Offset Enable
ICHOFFSET	QUANT	0	Ich Offset (V)
ICHFILTER	IQUANT	3	Ich Filter
VCHRANGE	IQUANT	2	Vch Range
VCHRANGEMODE	TOGGLE	F	Vch Auto Range
VCHOFFSETENABLE	TOGGLE	T	Vch Offset Enable
VCHOFFSET	QUANT	0	Vch Offset (V)
VCHFILTER	IQUANT	3	Vch Filter
ACHRANGE	IQUANT	2	Ach Range
ACHOFFSETENABLE	TOGGLE	F	Ach Offset Enable
ACHOFFSET	QUANT	0	Ach Offset (V)
ACHFILTER	IQUANT	3	Ach Filter
IERANGELOWERLIMIT	IQUANT	1	I/E Range Lower Limit
IERANGEMODE	TOGGLE	F	I/E AutoRange
IERANGE	IQUANT	4	I/E Range
POSFEEDENABLE	TOGGLE	F	Positive Feedback IR Comp
POSFEEDRESISTANCE	QUANT	0	Positive Feedback Resistance (ohm)
ACHSELECT	IQUANT	0	Ach Select
CABLEID	IQUANT	14	Cable ID
DCCALDATE	LABEL	8/19/2019	DC Calibration Date
ACCALDATE	LABEL	8/19/2019	AC Calibration Date
THERMOSELECT	IQUANT	1	Thermo Select
FRAMEWORKVERSION	QUANT	6.33	Framework Version
INSTRUMENTVERSION	LABEL	3.50	Instrument Version
ZCURVE	TABLE
	Pt	Time	Freq	Zreal	Zimag	Zsig	Zmod	Zphz	Idc	Vdc	IERange
	#	s	Hz	ohm	ohm	V	ohm	°	A	V	#
	0	1	1000078	1874.782	-930.6671	1	2093.071	-26.40043	1.181504E-005	0.0048292	8
	1	1	794390.6	2049.855	-871.6269	1	2227.474	-23.03587	-6.077005E-006	0.0068234	8
	2	2	630984.4	2191.717	-777.8728	1	2325.663	-19.54053	6.365327E-006	0.0060045	8
	3	2	501234.4	2299.6	-681.5928	1	2398.485	-16.50963	-2.493465E-006	0.0064359	8
	4	2	398109.4	2386.572	-591.4886	1	2458.777	-13.91972	-1.590999E-007	0.0064085	8
	5	3	316265.6	2453.094	-513.8802	1	2506.34	-11.83138	2.044508E-006	0.0061627	8
	6	3	251203.1	2505.105	-443.9424	1	2544.138	-10.04934	-2.308639E-006	0.0060138	8
	7	3	199546.9	2547.924	-391.8526	1	2577.88	-8.743182	-2.591588E-006	0.0057486	8
	8	3	158578.1	2576.621	-350.4554	1	2600.345	-7.745472	-6.958237E-007	0.0055349	8
	9	4	125953.1	2615.215	-271.7664	1	2629.298	-5.932735	-1.214043E-006	0.0047602	7
	10	4	100078.1	2635.507	-245.5131	1	2646.918	-5.322082	7.415157E-007	0.0040873	7
	11	4	79453.13	2655.696	-238.7501	1	2666.407	-5.137146	9.854944E-007	0.0050825	7
	12	5	63140.62	2673.489	-234.9152	1	2683.79	-5.02159	-1.196669E-006	0.0072322	7
	13	5	50203.12	2694.641	-236.9227	1	2705.037	-5.024733	-7.146061E-007	0.0056468	7
	14	5	39890.62	2716.154	-245.1266	1	2727.192	-5.156842	8.177059E-007	0.0055536	7
	15	6	31640.63	2737.809	-257.8371	1	2749.923	-5.380044	6.074491E-007	0.0059632	7
	16	6	25171.88	2759.67	-275.725	1	2773.41	-5.705618	8.156243E-007	0.0055569	7
	17	6	20015.62	2783.883	-301.4296	1	2800.155	-6.179721	1.046635E-007	0.0044731	7
	18	7	15890.62	2807.054	-332.5403	1	2826.683	-6.75611	-7.165704E-007	0.0056436	7
	19	7	12609.37	2834.701	-373.8514	1	2859.247	-7.513032	1.044869E-007	0.0044692	7
	20	7	10078.13	2857.805	-423.7282	1	2889.047	-8.433829	-5.946428E-007	0.0073353	7
	21	8	8015.625	2890.224	-487.0155	1	2930.969	-9.56474	-1.197201E-006	0.0072218	7
	22	8	6328.125	2926.099	-569.1348	1	2980.935	-11.00677	6.079164E-007	0.0059503	7
	23	8	5015.625	2961.238	-669.9851	1	3036.085	-12.74862	1.05623E-007	0.004467	7
	24	9	3984.375	3001.282	-792.9761	1	3104.272	-14.80006	6.066194E-007	0.0059533	7
	25	9	3170.956	3044.773	-940.5044	1	3186.721	-17.16547	-8.672877E-007	0.0074198	7
	26	9	2527.573	3097.863	-1123.448	1	3295.283	-19.9333	9.409619E-007	0.0041512	7
	27	10	1976.103	3158.622	-1364.143	1	3440.607	-23.35851	-1.026969E-006	0.006299	7
	28	10	1577.524	3226.54	-1638.116	1	3618.561	-26.91693	4.617637E-007	0.0041758	7
	29	10	1265.625	3302.755	-1958.841	1	3839.954	-30.67188	-8.675612E-007	0.0074146	7
	30	11	998.264	3397.661	-2388.583	1	4153.243	-35.10752	-3.037835E-007	0.0049531	7
	31	11	796.875	3496.754	-2891.254	1	4537.25	-39.58528	6.056286E-007	0.005952	7
	32	11	627.7902	3622.104	-3551.335	1	5072.634	-44.43478	1.047946E-006	0.0043576	7
	33	11	505.5147	3756.001	-4284.463	1	5697.733	-48.76038	9.428949E-007	0.0041478	7
	34	12	397.9953	3941.933	-5275.923	1	6585.91	-53.23457	4.685886E-009	0.0058039	7
	35	12	315.5048	4158.698	-6478.36	1	7698.306	-57.3021	3.142103E-009	0.005803	7
	36	12	252.4038	4421.309	-7902.348	1	9055.113	-60.77329	1.091888E-009	0.0058049	7
	37	13	198.6229	4782.322	-9789.2	1	10894.91	-63.96308	3.995333E-010	0.0057494	6
	38	13	158.3615	5223.767	-11986.28	1	13075.12	-66.45185	2.220024E-010	0.0057433	6
	39	13	125.558	5811.091	-14753.19	1	15856.4	-68.50117	4.960239E-010	0.0057455	6
	40	14	100.4464	6536.806	-17999.41	1	19149.64	-70.04061	1.253175E-009	0.0057385	6
	41	14	79.00281	7614.552	-22234.84	1	23502.54	-71.0957	8.548976E-010	0.0057317	6
	42	14	63.3446	8897.846	-27254.71	1	28670.38	-71.91969	-4.865465E-010	0.0057415	6
	43	15	49.86702	10726.91	-33441.02	1	35119.34	-72.21527	-4.221973E-012	0.0057398	6
	44	15	39.72458	13190.11	-40467.57	1	42562.93	-71.94699	-4.543604E-011	0.0057408	6
	45	15	31.6723	16346.5	-48862.81	1	51524.58	-71.50291	5.65592E-011	0.0057323	6
	46	16	24.93351	20685.68	-59547.98	1	63038.55	-70.84388	1.168041E-009	0.0057344	6
	47	16	19.86229	26065.77	-71348.78	1	75960.99	-69.9313	2.184633E-009	0.0057433	6
	48	16	15.83615	33026.4	-84625.89	1	90842.09	-68.68111	-8.93573E-010	0.0057393	6
	49	17	12.40079	43451.5	-101710	1	110602.7	-66.86736	-1.034391E-009	0.0057426	5
	50	17	9.93114	53562.51	-118745.8	1	130267	-65.72135	6.353939E-010	0.0057397	5
	51	18	7.944915	66314.02	-137875.1	1	152993.8	-64.31377	-7.204953E-010	0.0057455	5
	52	18	6.317385	82140	-159408.9	1	179327	-62.73891	-5.055605E-010	0.0057528	5
	53	19	5.008013	100493.8	-183683.4	1	209376.7	-61.31677	6.91814E-011	0.005735	5
	54	20	3.945707	121992.5	-211168.6	1	243873.6	-59.9849	4.161257E-011	0.0057218	5
	55	21	3.158693	143924.5	-240899.5	1	280618.6	-59.14396	3.203278E-010	0.0057352	5
	56	23	2.504006	169011.8	-275636.5	1	323327.2	-58.48466	9.886906E-011	0.0057381	5
	57	24	1.998082	195791.2	-315210	1	371068.1	-58.15371	-9.273079E-011	0.0056955	5
	58	26	1.584686	225338.6	-361872.5	1	426297.1	-58.08942	4.088508E-011	0.0057352	5
	59	28	1.266892	258553.7	-415780	1	489615.1	-58.1245	1.306293E-010	0.0057682	5
	60	30	0.999041	297756.2	-484966.7	1	569079.5	-58.45122	1.606373E-010	0.0057733	5
