EXPLAIN
TAG	EISPOT
TITLE	LABEL	Potentiostatic IDE	Test &Identifier
DATE	LABEL	9/12/2019	Date
TIME	LABEL	8:56:37	Time
NOTES	NOTES	1	&Notes...
	
PSTAT	PSTAT	REF600-11020	Potentiostat
VDC	POTEN	0.00000E+000	T	DC &Voltage (V)
FREQINIT	QUANT	1.00000E+006	Initial Fre&q. (Hz)
FREQFINAL	QUANT	1.00000E+000	Final Fre&q. (Hz)
PTSPERDEC	QUANT	1.00000E+001	Points/&decade
VAC	QUANT	2.50000E+001	AC &Voltage (mV rms)
AREA	QUANT	1.00000E-002	&Area (cm^2)
CONDIT	TWOPARAM	T	5.00000E+000	0.00000E+000	Conditionin&g	Time(s)	E(V)
DELAY	TWOPARAM	T	5.00000E+000	0.00000E+000	Init. De&lay	Time(s)	Stab.(mV/s)
SPEED	SELECTOR	1	&Optimize for:
ZGUESS	QUANT	1.00000E+007	E&stimated Z (ohms)
OCVCURVE	TABLE	19
	Pt	T	Vf	Vm	Ach	Over
	#	s	V vs. Ref.	V	V	bits
	0	0.258333	3.86419E-003	3.86419E-003	5.36599E-004	...........
	1	0.516667	3.86069E-003	3.68085E-003	5.35866E-004	...........
	2	0.775	3.83952E-003	3.52476E-003	5.34500E-004	...........
	3	1.03333	3.78094E-003	3.38482E-003	5.38299E-004	...........
	4	1.29167	3.67954E-003	3.27131E-003	5.40966E-004	...........
	5	1.55	3.55100E-003	3.16274E-003	5.35566E-004	...........
	6	1.80833	3.41730E-003	3.06974E-003	5.30333E-004	...........
	7	2.06667	3.29254E-003	2.97923E-003	5.31500E-004	...........
	8	2.325	3.18115E-003	2.90661E-003	5.33300E-004	...........
	9	2.58333	3.08245E-003	2.83365E-003	5.36833E-004	...........
	10	2.84167	2.99445E-003	2.76404E-003	5.35266E-004	...........
	11	3.1	2.91486E-003	2.70206E-003	5.36666E-004	...........
	12	3.35833	2.84162E-003	2.64485E-003	5.35299E-004	...........
	13	3.61667	2.77347E-003	2.58149E-003	5.32466E-004	...........
	14	3.875	2.70957E-003	2.53701E-003	5.32766E-004	...........
	15	4.13333	2.64957E-003	2.49085E-003	5.32166E-004	...........
	16	4.39167	2.59388E-003	2.44549E-003	5.30966E-004	...........
	17	4.65	2.54265E-003	2.40234E-003	5.37566E-004	...........
	18	4.90833	2.49509E-003	2.36218E-003	5.36599E-004	...........
EOC	QUANT	0.0024951	Open Circuit (V)
PSTATMODEL	IQUANT	4	Pstat Model
PSTATSECTION	LABEL	REF600-11020	Pstat Section
PSTATSERIALNO	LABEL	11020	Pstat Serial Number
CTRLMODE	IQUANT	1	Control Mode
IESTAB	IQUANT	0	I/E Stability
CASPEED	IQUANT	1	Control Amp Speed
CONVENTION	IQUANT	1	Current Convention
ICHRANGE	IQUANT	2	Ich Range
ICHRANGEMODE	TOGGLE	F	Ich Auto Range
ICHOFFSETENABLE	TOGGLE	T	Ich Offset Enable
ICHOFFSET	QUANT	0	Ich Offset (V)
ICHFILTER	IQUANT	3	Ich Filter
VCHRANGE	IQUANT	2	Vch Range
VCHRANGEMODE	TOGGLE	F	Vch Auto Range
VCHOFFSETENABLE	TOGGLE	T	Vch Offset Enable
VCHOFFSET	QUANT	0	Vch Offset (V)
VCHFILTER	IQUANT	3	Vch Filter
ACHRANGE	IQUANT	2	Ach Range
ACHOFFSETENABLE	TOGGLE	F	Ach Offset Enable
ACHOFFSET	QUANT	0	Ach Offset (V)
ACHFILTER	IQUANT	3	Ach Filter
IERANGELOWERLIMIT	IQUANT	1	I/E Range Lower Limit
IERANGEMODE	TOGGLE	F	I/E AutoRange
IERANGE	IQUANT	2	I/E Range
POSFEEDENABLE	TOGGLE	F	Positive Feedback IR Comp
POSFEEDRESISTANCE	QUANT	0	Positive Feedback Resistance (ohm)
ACHSELECT	IQUANT	0	Ach Select
CABLEID	IQUANT	14	Cable ID
DCCALDATE	LABEL	8/19/2019	DC Calibration Date
ACCALDATE	LABEL	8/19/2019	AC Calibration Date
THERMOSELECT	IQUANT	1	Thermo Select
FRAMEWORKVERSION	QUANT	6.33	Framework Version
INSTRUMENTVERSION	LABEL	3.50	Instrument Version
ZCURVE	TABLE
	Pt	Time	Freq	Zreal	Zimag	Zsig	Zmod	Zphz	Idc	Vdc	IERange
	#	s	Hz	ohm	ohm	V	ohm	°	A	V	#
	0	2	1000078	2088.266	-1022.591	1	2325.198	-26.09026	-4.732102E-007	0.0051727	8
	1	3	794390.6	2265.219	-924.8928	1	2446.762	-22.21028	3.383451E-006	0.0039466	8
	2	4	630984.4	2399.196	-821.5236	1	2535.95	-18.90203	-1.948477E-006	0.0048037	8
	3	6	501234.4	2518.654	-722.0392	1	2620.106	-15.99636	-6.280884E-007	0.0044603	8
	4	7	398109.4	2590.531	-620.7761	1	2663.872	-13.47584	2.649827E-006	0.003717	8
	5	8	316265.6	2656.065	-534.6406	1	2709.34	-11.38101	3.896432E-007	0.0040812	8
	6	10	251203.1	2701.595	-460.8096	1	2740.614	-9.67975	-1.792182E-006	0.0044839	8
	7	11	199546.9	2750.969	-395.7512	1	2779.29	-8.186339	5.305378E-006	0.0032115	8
	8	13	158578.1	2771.31	-375.1404	1	2796.585	-7.709027	-8.681254E-007	0.0043258	8
	9	14	125953.1	2815.546	-309.0702	1	2832.459	-6.264432	-7.727126E-007	0.0056123	7
	10	15	100078.1	2837.248	-287.2939	1	2851.757	-5.781944	7.619556E-008	0.0039913	7
	11	17	79453.13	2861.299	-285.2635	1	2875.484	-5.693417	-2.927855E-009	0.0040679	7
	12	18	63140.62	2886.9	-289.9013	1	2901.419	-5.734395	7.686905E-008	0.0039816	7
	13	19	50203.12	2915.39	-299.0567	1	2930.688	-5.856837	6.526594E-008	0.0041021	7
	14	21	39890.62	2944.722	-312.9378	1	2961.303	-6.066098	-1.793251E-009	0.0040653	7
	15	22	31640.63	2978.662	-335.2754	1	2997.472	-6.422128	-1.936979E-009	0.0041553	7
	16	23	25171.88	3013.976	-361.873	1	3035.622	-6.846444	-3.994997E-008	0.0041507	7
	17	25	20015.62	3053.385	-394.9168	1	3078.818	-7.369575	-2.071296E-008	0.0042593	7
	18	26	15890.62	3095.898	-435.1344	1	3126.328	-8.000621	-2.105523E-008	0.0042544	7
	19	27	12609.37	3143.167	-483.7161	1	3180.17	-8.748869	6.665989E-008	0.004103	7
	20	29	10078.13	3194.754	-537.5934	1	3239.669	-9.55189	-2.027231E-008	0.0041125	7
	21	30	8015.625	3249.595	-602.2029	1	3304.923	-10.49874	-4.61508E-008	0.0041739	7
	22	31	6328.125	3313.284	-681.8326	1	3382.713	-11.62842	1.30803E-007	0.003929	7
	23	33	5015.625	3383.008	-774.0034	1	3470.421	-12.88698	-1.424409E-009	0.0041489	7
	24	34	3984.375	3458.328	-879.841	1	3568.495	-14.27393	-1.100944E-009	0.0041401	7
	25	35	3170.956	3540.118	-1005.349	1	3680.104	-15.85388	-2.093647E-008	0.0041034	7
	26	37	2527.573	3627.496	-1151.648	1	3805.919	-17.61346	-1.733439E-008	0.004261	7
	27	38	1976.103	3731.904	-1341.983	1	3965.857	-19.77845	7.857087E-008	0.0039432	7
	28	39	1577.524	3837.105	-1551.891	1	4139.05	-22.02053	-2.182327E-009	0.0041398	7
	29	41	1265.625	3945.304	-1793.75	1	4333.932	-24.44912	-4.672905E-008	0.0042162	7
	30	42	998.264	4073.375	-2110.101	1	4587.473	-27.38518	-4.114703E-008	0.0041438	7
	31	43	796.875	4205.196	-2478.91	1	4881.462	-30.51881	2.853436E-008	0.0040854	7
	32	45	627.7902	4355.379	-2954.9	1	5263.151	-34.15486	1.311768E-007	0.0039164	7
	33	46	505.5147	4503.418	-3483.987	1	5693.763	-37.72667	-3.983124E-008	0.0041416	7
	34	47	397.9953	4679.403	-4203.309	1	6290.042	-41.93201	5.187667E-009	0.0041245	7
	35	49	315.5048	4866.821	-5072.171	1	7029.428	-46.18362	5.997332E-009	0.0041293	7
	36	50	252.4038	5069.647	-6106.618	1	7936.757	-50.30092	5.921641E-009	0.0041226	7
	37	51	198.6229	5319.883	-7489.2	1	9186.363	-54.61228	6.596926E-009	0.0041235	7
	38	53	158.3615	5603.401	-9116.808	1	10701.13	-58.42415	1.728419E-009	0.0040569	6
	39	54	125.558	5957.313	-11187.57	1	12674.83	-61.96496	1.319016E-009	0.0040603	6
	40	55	100.4464	6381.639	-13650.66	1	15068.7	-64.94406	1.336315E-010	0.0040598	6
	41	57	79.00281	6936.583	-16925.03	1	18291.33	-67.71413	1.605582E-010	0.0040577	6
	42	58	63.3446	7698.631	-20522.74	1	21919.21	-69.43758	9.977412E-010	0.0040504	6
	43	59	49.86702	8603.968	-25685.26	1	27088.02	-71.48034	-8.547475E-011	0.0040513	6
	44	61	39.72458	9820.55	-31346.38	1	32848.72	-72.60468	1.245548E-009	0.0040549	6
	45	62	31.6723	11340.67	-38429.9	1	40068.3	-73.55865	8.613468E-010	0.0040494	6
	46	63	24.93351	13572.9	-47472.54	1	49374.74	-74.04421	8.636233E-010	0.0040493	6
	47	65	19.86229	16390.28	-57929.45	1	60203.5	-74.20192	1.008018E-009	0.0040521	6
	48	66	15.83615	19992.69	-70977.91	1	73739.89	-74.26881	-9.761612E-010	0.0040558	6
	49	67	12.40079	24754.11	-87253.82	1	90697.27	-74.16124	4.341481E-010	0.0040486	6
	50	69	9.93114	31191.27	-104719.8	1	109266.3	-73.4136	2.155887E-010	0.0040604	5
	51	70	7.944915	38982.96	-126086.4	1	131975.2	-72.81961	8.175014E-010	0.0040556	5
	52	72	6.317385	48923.82	-151639	1	159335.9	-72.11857	7.868649E-010	0.0040507	5
	53	74	5.008013	62211.12	-182645.1	1	192949.4	-71.19054	3.523722E-010	0.0040658	5
	54	76	3.945707	79126.39	-219577.7	1	233399.5	-70.18301	2.80748E-011	0.0040483	5
	55	79	3.158693	99124.3	-259688.2	1	277963.3	-69.10789	2.14595E-010	0.0040493	5
	56	82	2.504006	124455.7	-308114.4	1	332300.6	-68.00488	1.139216E-010	0.0040646	5
	57	85	1.998082	154261.8	-361282.3	1	392837.9	-66.87829	4.142489E-010	0.004028	5
	58	88	1.584686	190953.6	-426256.7	1	467073.9	-65.86868	8.55115E-011	0.0040216	5
	59	92	1.266892	233897.3	-495107.7	1	547576.1	-64.71315	3.586452E-010	0.004029	5
	60	96	0.999041	287254.5	-582184.3	1	649194.7	-63.73789	-4.752264E-011	0.00406	5
