EXPLAIN
TAG	EISPOT
TITLE	LABEL	Potentiostatic EIS	Test &Identifier
DATE	LABEL	11/9/2019	Date
TIME	LABEL	10:54:42	Time
NOTES	NOTES	2	&Notes...
	
	
PSTAT	PSTAT	REF600-11020	Potentiostat
VDC	POTEN	0.00000E+000	T	DC &Voltage (V)
FREQINIT	QUANT	1.00000E+006	Initial Fre&q. (Hz)
FREQFINAL	QUANT	1.00000E+000	Final Fre&q. (Hz)
PTSPERDEC	QUANT	1.00000E+001	Points/&decade
VAC	QUANT	2.50000E+001	AC &Voltage (mV rms)
AREA	QUANT	1.00000E-002	&Area (cm^2)
CONDIT	TWOPARAM	T	5.00000E+000	0.00000E+000	Conditionin&g	Time(s)	E(V)
DELAY	TWOPARAM	T	5.00000E+000	0.00000E+000	Init. De&lay	Time(s)	Stab.(mV/s)
SPEED	SELECTOR	0	&Optimize for:
ZGUESS	QUANT	1.00000E+005	E&stimated Z (ohms)
OCVCURVE	TABLE	19
	Pt	T	Vf	Vm	Ach	Over
	#	s	V vs. Ref.	V	V	bits
	0	0.258333	3.51278E-002	3.51278E-002	5.63532E-004	...........
	1	0.516667	3.51660E-002	3.71227E-002	5.64666E-004	...........
	2	0.775	3.53992E-002	3.89746E-002	5.66832E-004	...........
	3	1.03333	3.60529E-002	4.05580E-002	5.67632E-004	...........
	4	1.29167	3.72003E-002	4.20131E-002	5.67766E-004	...........
	5	1.55	3.86789E-002	4.33027E-002	5.64632E-004	...........
	6	1.80833	4.02464E-002	4.44392E-002	5.71132E-004	...........
	7	2.06667	4.17354E-002	4.55212E-002	5.75599E-004	...........
	8	2.325	4.30799E-002	4.64066E-002	5.70432E-004	...........
	9	2.58333	4.42762E-002	4.73211E-002	5.68699E-004	...........
	10	2.84167	4.53428E-002	4.80178E-002	5.74299E-004	...........
	11	3.1	4.62996E-002	4.87812E-002	5.66332E-004	...........
	12	3.35833	4.71615E-002	4.93291E-002	5.71532E-004	...........
	13	3.61667	4.79393E-002	4.99709E-002	5.68666E-004	...........
	14	3.875	4.86415E-002	5.04035E-002	5.70432E-004	...........
	15	4.13333	4.92753E-002	5.09223E-002	5.76499E-004	...........
	16	4.39167	4.98468E-002	5.12765E-002	5.67666E-004	...........
	17	4.65	5.03609E-002	5.16731E-002	5.69699E-004	...........
	18	4.90833	5.08221E-002	5.19829E-002	5.78666E-004	...........
EOC	QUANT	0.0508221	Open Circuit (V)
PSTATMODEL	IQUANT	4	Pstat Model
PSTATSECTION	LABEL	REF600-11020	Pstat Section
PSTATSERIALNO	LABEL	11020	Pstat Serial Number
CTRLMODE	IQUANT	1	Control Mode
IESTAB	IQUANT	0	I/E Stability
CASPEED	IQUANT	1	Control Amp Speed
CONVENTION	IQUANT	1	Current Convention
ICHRANGE	IQUANT	2	Ich Range
ICHRANGEMODE	TOGGLE	F	Ich Auto Range
ICHOFFSETENABLE	TOGGLE	T	Ich Offset Enable
ICHOFFSET	QUANT	0	Ich Offset (V)
ICHFILTER	IQUANT	3	Ich Filter
VCHRANGE	IQUANT	2	Vch Range
VCHRANGEMODE	TOGGLE	F	Vch Auto Range
VCHOFFSETENABLE	TOGGLE	T	Vch Offset Enable
VCHOFFSET	QUANT	0	Vch Offset (V)
VCHFILTER	IQUANT	3	Vch Filter
ACHRANGE	IQUANT	2	Ach Range
ACHOFFSETENABLE	TOGGLE	F	Ach Offset Enable
ACHOFFSET	QUANT	0	Ach Offset (V)
ACHFILTER	IQUANT	3	Ach Filter
IERANGELOWERLIMIT	IQUANT	1	I/E Range Lower Limit
IERANGEMODE	TOGGLE	F	I/E AutoRange
IERANGE	IQUANT	5	I/E Range
POSFEEDENABLE	TOGGLE	F	Positive Feedback IR Comp
POSFEEDRESISTANCE	QUANT	0	Positive Feedback Resistance (ohm)
ACHSELECT	IQUANT	0	Ach Select
CABLEID	IQUANT	14	Cable ID
DCCALDATE	LABEL	8/19/2019	DC Calibration Date
ACCALDATE	LABEL	8/19/2019	AC Calibration Date
THERMOSELECT	IQUANT	1	Thermo Select
FRAMEWORKVERSION	QUANT	6.33	Framework Version
INSTRUMENTVERSION	LABEL	3.50	Instrument Version
ZCURVE	TABLE
	Pt	Time	Freq	Zreal	Zimag	Zsig	Zmod	Zphz	Idc	Vdc	IERange
	#	s	Hz	ohm	ohm	V	ohm	°	A	V	#
	0	2	1000078	2157.092	-2046.386	1	2973.338	-43.49136	-5.547327E-006	0.0524806	8
	1	2	794390.6	2531.432	-2181.346	1	3341.619	-40.75161	9.389485E-007	0.0521787	8
	2	2	630984.4	2919.042	-2298.029	1	3715.07	-38.21175	-6.872863E-006	0.053041	8
	3	3	501234.4	3342.998	-2338.985	1	4080.01	-34.97921	-2.922299E-006	0.0532091	8
	4	3	398109.4	3762.263	-2384.939	1	4454.499	-32.37105	8.162893E-006	0.050919	8
	5	3	316265.6	4244.563	-2354.379	1	4853.804	-29.01631	4.507488E-006	0.0523138	8
	6	4	251203.1	4640.646	-2311.38	1	5184.406	-26.47665	-2.199214E-007	0.0519637	8
	7	4	199546.9	5062.244	-2153.321	1	5501.191	-23.04339	-5.565433E-006	0.0527768	8
	8	4	158578.1	5440.356	-2055.31	1	5815.649	-20.69604	-2.36409E-006	0.0525076	8
	9	5	125953.1	5693.508	-1720.081	1	5947.665	-16.81024	-4.173394E-006	0.057547	7
	10	5	100078.1	5966.716	-1557.166	1	6166.56	-14.62655	-1.68671E-006	0.0543202	7
	11	5	79453.13	6180.618	-1402.731	1	6337.798	-12.78703	-1.442604E-006	0.0530291	7
	12	6	63140.62	6411.687	-1305.132	1	6543.172	-11.50566	8.37332E-007	0.052597	7
	13	6	50203.12	6519.877	-1150.967	1	6620.689	-10.01139	5.224923E-007	0.0530613	7
	14	7	39890.62	6648.792	-1054.082	1	6731.83	-9.008545	8.37418E-007	0.0526017	7
	15	7	31640.63	6705.311	-931.5851	1	6769.715	-7.90961	-8.593429E-007	0.0545073	7
	16	8	25171.88	6742.765	-869.9854	1	6798.658	-7.351971	-1.227828E-006	0.054621	7
	17	8	20015.62	6895.768	-849.9705	1	6947.954	-7.026819	1.146827E-006	0.0520088	7
	18	8	15890.62	6939.664	-834.7188	1	6989.684	-6.858719	1.352899E-006	0.0499678	7
	19	9	12609.37	6897.929	-828.0971	1	6947.458	-6.845604	-1.66268E-006	0.0537817	7
	20	9	10078.13	6988.302	-849.6038	1	7039.758	-6.931725	-1.436752E-006	0.0530059	7
	21	9	8015.625	7078.837	-930.9758	1	7139.794	-7.492276	1.506631E-006	0.050269	7
	22	10	6328.125	7050.126	-1014.789	1	7122.786	-8.190848	-1.428236E-006	0.0530014	7
	23	10	5015.625	7150.41	-1173.223	1	7246.021	-9.317939	6.706312E-007	0.049999	7
	24	11	3984.375	7233.341	-1338.257	1	7356.097	-10.4819	5.255224E-007	0.0530535	7
	25	11	3170.956	7291.357	-1571.346	1	7458.755	-12.1617	5.381294E-007	0.0530503	7
	26	11	2527.573	7383.599	-1874.276	1	7617.772	-14.2433	1.144786E-006	0.052005	7
	27	12	1976.103	7452.243	-2248.527	1	7784.074	-16.78987	9.477147E-008	0.0536461	7
	28	12	1577.524	7590.056	-2669.576	1	8045.843	-19.37781	1.074937E-006	0.0498256	7
	29	12	1265.625	7722.035	-3204.808	1	8360.658	-22.53948	1.511482E-006	0.0502551	7
	30	13	998.264	7867.428	-3885.843	1	8774.748	-26.28547	1.533741E-006	0.0507202	7
	31	13	796.875	8069.574	-4670.708	1	9323.815	-30.06247	1.412602E-006	0.0513152	7
	32	13	627.7902	8241.747	-5694.16	1	10017.48	-34.6403	6.716458E-007	0.0499822	7
	33	14	505.5147	8545.55	-6818.944	1	10932.72	-38.58821	1.071944E-006	0.0498342	7
	34	14	397.9953	8820.881	-8364.85	1	12156.42	-43.47999	1.524324E-009	0.0523216	7
	35	14	315.5048	9210.875	-10205.22	1	13747.24	-47.93168	2.884083E-009	0.0522532	6
	36	15	252.4038	9667.36	-12378.37	1	15706.11	-52.01057	9.699755E-010	0.0522581	6
	37	15	198.6229	10284.49	-15263.28	1	18404.85	-56.02768	1.600907E-009	0.0522484	6
	38	15	158.3615	11002.93	-18577.43	1	21591.32	-59.36284	9.250045E-010	0.0522562	6
	39	16	125.558	11982.92	-22769.95	1	25730.54	-62.24395	9.128835E-010	0.0522646	6
	40	16	100.4464	13149.66	-27762.42	1	30719.13	-64.65545	3.33412E-011	0.052249	6
	41	16	79.00281	14649	-34199.66	1	37204.97	-66.81273	7.053775E-010	0.0522557	6
	42	17	63.3446	17909.43	-40926.82	1	44673.85	-66.36599	1.084905E-009	0.052248	6
	43	17	49.86702	20678.45	-50633.03	1	54692.79	-67.78497	1.689355E-009	0.0522515	6
	44	17	39.72458	23581.29	-61486.1	1	65853	-69.01707	8.972627E-010	0.0522568	6
	45	18	31.6723	28060.49	-74358.88	1	79477.26	-69.32521	1.328373E-009	0.0522459	6
	46	18	24.93351	35311.73	-90667.25	1	97300.9	-68.72083	6.796419E-010	0.0522587	6
	47	18	19.86229	44008.45	-108448	1	117037.2	-67.91257	1.877983E-009	0.0522476	5
	48	19	15.83615	55546.1	-130894.7	1	142192.8	-67.00571	-1.284404E-009	0.0522601	5
	49	19	12.40079	71333.57	-153074.9	1	168879.9	-65.01428	1.775501E-009	0.0522418	5
	50	19	9.93114	89824.59	-180732.5	1	201823.4	-63.57248	4.531969E-010	0.0522571	5
	51	20	7.944915	112670.4	-209892.3	1	238221.3	-61.77305	9.399265E-010	0.0522564	5
	52	21	6.317385	138629.3	-239310.1	1	276563.6	-59.91683	4.630247E-010	0.0522605	5
	53	21	5.008013	170543.7	-272907.2	1	321812.8	-57.99813	4.963377E-010	0.0522409	5
	54	22	3.945707	208057.8	-307015.1	1	370872.3	-55.87532	1.003773E-009	0.0522483	5
	55	24	3.158693	248559	-342857.8	1	423477.3	-54.0593	9.191086E-010	0.0522602	5
	56	25	2.504006	293404.1	-382134.8	1	481781	-52.48285	7.382258E-010	0.0522539	5
	57	27	1.998082	339026.1	-421410.3	1	540856.1	-51.1832	1.054593E-009	0.0522838	5
	58	28	1.584686	388734.2	-469011.3	1	609168.2	-50.34679	1.122823E-009	0.0522937	5
	59	30	1.266892	437240.8	-520321.9	1	679642.9	-49.95874	1.044961E-009	0.0522564	5
	60	33	0.999041	493047.5	-584097.4	1	764372.7	-49.83166	1.004732E-009	0.0522286	5
