EXPLAIN
TAG	EISPOT
TITLE	LABEL	Potentiostatic IDE	Test &Identifier
DATE	LABEL	9/4/2019	Date
TIME	LABEL	12:19:04	Time
NOTES	NOTES	1	&Notes...
	
PSTAT	PSTAT	REF600-11020	Potentiostat
VDC	POTEN	0.00000E+000	T	DC &Voltage (V)
FREQINIT	QUANT	1.00000E+006	Initial Fre&q. (Hz)
FREQFINAL	QUANT	1.00000E+000	Final Fre&q. (Hz)
PTSPERDEC	QUANT	1.00000E+001	Points/&decade
VAC	QUANT	2.50000E+001	AC &Voltage (mV rms)
AREA	QUANT	1.00000E-002	&Area (cm^2)
CONDIT	TWOPARAM	T	5.00000E+000	0.00000E+000	Conditionin&g	Time(s)	E(V)
DELAY	TWOPARAM	T	5.00000E+000	0.00000E+000	Init. De&lay	Time(s)	Stab.(mV/s)
SPEED	SELECTOR	1	&Optimize for:
ZGUESS	QUANT	1.00000E+007	E&stimated Z (ohms)
OCVCURVE	TABLE	19
	Pt	T	Vf	Vm	Ach	Over
	#	s	V vs. Ref.	V	V	bits
	0	0.258333	5.72465E-002	5.72465E-002	5.52799E-004	...........
	1	0.516667	5.72467E-002	5.72554E-002	5.58899E-004	...........
	2	0.775	5.72503E-002	5.74010E-002	5.57099E-004	...........
	3	1.03333	5.72706E-002	5.76032E-002	5.57132E-004	...........
	4	1.29167	5.73308E-002	5.78954E-002	5.60632E-004	...........
	5	1.55	5.74554E-002	5.83428E-002	5.56832E-004	...........
	6	1.80833	5.76586E-002	5.85849E-002	5.58666E-004	...........
	7	2.06667	5.79216E-002	5.83631E-002	5.62932E-004	...........
	8	2.325	5.81796E-002	5.86760E-002	5.57066E-004	...........
	9	2.58333	5.83771E-002	5.88179E-002	5.59732E-004	...........
	10	2.84167	5.85271E-002	5.91695E-002	5.65332E-004	...........
	11	3.1	5.86866E-002	5.95235E-002	5.61832E-004	...........
	12	3.35833	5.89027E-002	6.00681E-002	5.63799E-004	...........
	13	3.61667	5.91915E-002	6.01411E-002	5.57099E-004	...........
	14	3.875	5.95306E-002	6.06185E-002	5.58599E-004	...........
	15	4.13333	5.98750E-002	6.06552E-002	5.66799E-004	...........
	16	4.39167	6.01872E-002	6.08237E-002	5.68232E-004	...........
	17	4.65	6.04497E-002	6.11582E-002	5.59599E-004	...........
	18	4.90833	6.06777E-002	6.16149E-002	5.58966E-004	...........
EOC	QUANT	0.0606777	Open Circuit (V)
PSTATMODEL	IQUANT	4	Pstat Model
PSTATSECTION	LABEL	REF600-11020	Pstat Section
PSTATSERIALNO	LABEL	11020	Pstat Serial Number
CTRLMODE	IQUANT	1	Control Mode
IESTAB	IQUANT	0	I/E Stability
CASPEED	IQUANT	1	Control Amp Speed
CONVENTION	IQUANT	1	Current Convention
ICHRANGE	IQUANT	2	Ich Range
ICHRANGEMODE	TOGGLE	F	Ich Auto Range
ICHOFFSETENABLE	TOGGLE	T	Ich Offset Enable
ICHOFFSET	QUANT	0	Ich Offset (V)
ICHFILTER	IQUANT	3	Ich Filter
VCHRANGE	IQUANT	2	Vch Range
VCHRANGEMODE	TOGGLE	F	Vch Auto Range
VCHOFFSETENABLE	TOGGLE	T	Vch Offset Enable
VCHOFFSET	QUANT	0	Vch Offset (V)
VCHFILTER	IQUANT	3	Vch Filter
ACHRANGE	IQUANT	2	Ach Range
ACHOFFSETENABLE	TOGGLE	F	Ach Offset Enable
ACHOFFSET	QUANT	0	Ach Offset (V)
ACHFILTER	IQUANT	3	Ach Filter
IERANGELOWERLIMIT	IQUANT	1	I/E Range Lower Limit
IERANGEMODE	TOGGLE	F	I/E AutoRange
IERANGE	IQUANT	4	I/E Range
POSFEEDENABLE	TOGGLE	F	Positive Feedback IR Comp
POSFEEDRESISTANCE	QUANT	0	Positive Feedback Resistance (ohm)
ACHSELECT	IQUANT	0	Ach Select
CABLEID	IQUANT	14	Cable ID
DCCALDATE	LABEL	8/19/2019	DC Calibration Date
ACCALDATE	LABEL	8/19/2019	AC Calibration Date
THERMOSELECT	IQUANT	1	Thermo Select
FRAMEWORKVERSION	QUANT	6.33	Framework Version
INSTRUMENTVERSION	LABEL	3.50	Instrument Version
ZCURVE	TABLE
	Pt	Time	Freq	Zreal	Zimag	Zsig	Zmod	Zphz	Idc	Vdc	IERange
	#	s	Hz	ohm	ohm	V	ohm	°	A	V	#
	0	2	1000078	2350.592	-2027.046	1	3103.901	-40.77302	9.400106E-006	0.0627024	8
	1	3	794390.6	2742.617	-1948.863	1	3364.523	-35.39703	9.346435E-006	0.0622607	8
	2	5	630984.4	3101.673	-1840.185	1	3606.474	-30.68014	1.218812E-005	0.0615729	8
	3	6	501234.4	3405.888	-1682.867	1	3798.962	-26.29421	1.269642E-005	0.0613565	8
	4	8	398109.4	3660.248	-1529.193	1	3966.844	-22.67439	1.094406E-005	0.0613694	8
	5	10	316265.6	3850.493	-1364.631	1	4085.158	-19.51455	1.016232E-005	0.0619464	8
	6	11	251203.1	4015.352	-1236.111	1	4201.312	-17.11078	1.171209E-005	0.0615308	8
	7	13	199546.9	4132.135	-1118.43	1	4280.821	-15.14515	1.10928E-005	0.0616561	8
	8	14	158578.1	4234.097	-1048.24	1	4361.924	-13.90519	1.074181E-005	0.0618597	8
	9	16	125953.1	4317.992	-984.63	1	4428.832	-12.8455	8.051497E-007	0.0620585	7
	10	17	100078.1	4391.153	-954.925	1	4493.786	-12.26885	9.570468E-007	0.0620207	7
	11	19	79453.13	4463.024	-967.124	1	4566.609	-12.22679	9.554107E-007	0.0620124	7
	12	20	63140.62	4540.37	-1009.077	1	4651.149	-12.53008	9.694344E-007	0.0620533	7
	13	21	50203.12	4624.038	-1076.12	1	4747.606	-13.10085	9.526588E-007	0.0620413	7
	14	23	39890.62	4701.215	-1170.099	1	4844.642	-13.97652	9.297806E-007	0.0621579	7
	15	24	31640.63	4800.369	-1307.355	1	4975.211	-15.23472	9.812783E-007	0.0619884	7
	16	25	25171.88	4908.865	-1474.506	1	5125.536	-16.71902	1.017205E-006	0.0619522	7
	17	27	20015.62	5032.67	-1683.465	1	5306.771	-18.49547	1.012542E-006	0.0619725	7
	18	28	15890.62	5179.698	-1937.576	1	5530.233	-20.50938	9.301729E-007	0.0621544	7
	19	29	12609.37	5341.053	-2249.39	1	5795.395	-22.83844	9.213935E-007	0.0620926	7
	20	31	10078.13	5529.092	-2604.961	1	6112.011	-25.22687	9.307589E-007	0.0620632	7
	21	32	8015.625	5744.744	-3038.766	1	6498.937	-27.87726	1.011757E-006	0.0619739	7
	22	33	6328.125	6011.629	-3568.665	1	6991.07	-30.69451	9.508294E-007	0.0620624	7
	23	35	5015.625	6314.644	-4186.094	1	7576.154	-33.54113	9.232436E-007	0.0620726	7
	24	36	3984.375	6668.555	-4925.139	1	8290.152	-36.44815	9.538362E-007	0.062027	7
	25	37	3170.956	7081.686	-5788.288	1	9146.286	-39.2612	9.906021E-007	0.06194	7
	26	39	2527.573	7560.85	-6797.208	1	10167.03	-41.95556	9.617469E-007	0.0620878	7
	27	40	1976.103	8185.917	-8098.684	1	11515.12	-44.69308	9.455595E-007	0.0620237	7
	28	41	1577.524	8855.088	-9504.62	1	12990.4	-47.02619	9.83624E-008	0.0619575	6
	29	43	1265.625	9629.94	-11138.87	1	14724.48	-49.15545	8.98963E-008	0.0620925	6
	30	44	998.264	10609.68	-13221.61	1	16952.18	-51.25469	8.825864E-008	0.0620529	6
	31	45	796.875	11701.86	-15523.58	1	19440.04	-52.99057	1.009055E-007	0.0618551	6
	32	47	627.7902	13099.16	-18453.43	1	22630.01	-54.63097	8.911223E-008	0.0620081	6
	33	48	505.5147	14602.92	-21587.85	1	26063.01	-55.92394	9.037186E-008	0.0619819	6
	34	49	397.9953	16564.47	-25584.96	1	30479.04	-57.07977	9.484391E-008	0.0616514	6
	35	51	315.5048	18840.72	-30211.32	1	35604.73	-58.05105	9.484683E-008	0.0616433	6
	36	52	252.4038	21438.57	-35408.6	1	41393.01	-58.80667	9.441658E-008	0.0616363	6
	37	53	198.6229	24741.25	-41986.91	1	48734.28	-59.49081	9.461504E-008	0.0616393	6
	38	55	158.3615	28476.76	-49272.27	1	56909.42	-59.97437	9.427949E-008	0.0616363	6
	39	56	125.558	32968.93	-57977.51	1	66695.89	-60.37526	9.460569E-008	0.0616455	6
	40	57	100.4464	37980.48	-67869.5	1	77773.94	-60.76817	9.442294E-008	0.0616396	6
	41	59	79.00281	44326.78	-80272.66	1	91698.22	-61.0924	9.442839E-008	0.0616385	6
	42	60	63.3446	51307.64	-92116.59	1	105441.6	-60.88281	9.462062E-008	0.0616375	6
	43	61	49.86702	60519.89	-110753.2	1	126209.8	-61.34607	9.431994E-008	0.0616339	6
	44	63	39.72458	69553.2	-128449.5	1	146071.7	-61.56522	9.405231E-009	0.0616456	5
	45	64	31.6723	80673.27	-149763	1	170109.2	-61.68986	9.450146E-009	0.0616478	5
	46	65	24.93351	94228.55	-177560.5	1	201014.3	-62.04582	9.56456E-009	0.0616452	5
	47	67	19.86229	108896.5	-208238.3	1	234992.9	-62.39306	9.807414E-009	0.0616538	5
	48	68	15.83615	126199.9	-245718.6	1	276231.9	-62.81518	9.358451E-009	0.0616425	5
	49	70	12.40079	146410.7	-291682.8	1	326366.2	-63.34555	9.576415E-009	0.0616443	5
	50	71	9.93114	169811.6	-340456.7	1	380456	-63.49108	9.979087E-009	0.0616456	5
	51	72	7.944915	197067.1	-401191	1	446978.3	-63.83949	9.649544E-009	0.061645	5
	52	74	6.317385	230189	-474063.3	1	526994.3	-64.10036	9.617882E-009	0.0616531	5
	53	76	5.008013	270193.8	-561813.2	1	623409	-64.31562	9.658046E-009	0.0616509	5
	54	79	3.945707	318978.1	-671704.6	1	743595.4	-64.59796	9.452254E-008	0.0616432	6
	55	82	3.158693	375283.5	-789273.4	1	873950.9	-64.56986	9.542621E-009	0.0616398	5
	56	85	2.504006	445106.6	-935460.7	1	1035957	-64.55418	9.421613E-009	0.0619352	5
	57	88	1.998082	527707.9	-1100296	1	1220298	-64.37737	9.493847E-009	0.0618942	5
	58	91	1.584686	630722.6	-1305270	1	1449669	-64.20958	9.640944E-010	0.0618849	4
	59	95	1.266892	751467.4	-1527340	1	1702196	-63.80233	1.057997E-009	0.0619082	4
	60	99	0.999041	907137.4	-1809452	1	2024108	-63.37389	9.29018E-010	0.0619202	4
