EXPLAIN
TAG	EISPOT
TITLE	LABEL	Potentiostatic EIS	Test &Identifier
DATE	LABEL	11/11/2019	Date
TIME	LABEL	14:29:46	Time
NOTES	NOTES	3	&Notes...
	
	
	
PSTAT	PSTAT	REF600-11020	Potentiostat
VDC	POTEN	0.00000E+000	T	DC &Voltage (V)
FREQINIT	QUANT	1.00000E+006	Initial Fre&q. (Hz)
FREQFINAL	QUANT	1.00000E+000	Final Fre&q. (Hz)
PTSPERDEC	QUANT	1.00000E+001	Points/&decade
VAC	QUANT	2.50000E+001	AC &Voltage (mV rms)
AREA	QUANT	1.00000E-002	&Area (cm^2)
CONDIT	TWOPARAM	T	5.00000E+000	0.00000E+000	Conditionin&g	Time(s)	E(V)
DELAY	TWOPARAM	T	5.00000E+000	0.00000E+000	Init. De&lay	Time(s)	Stab.(mV/s)
SPEED	SELECTOR	1	&Optimize for:
ZGUESS	QUANT	1.00000E+005	E&stimated Z (ohms)
OCVCURVE	TABLE	19
	Pt	T	Vf	Vm	Ach	Over
	#	s	V vs. Ref.	V	V	bits
	0	0.258333	8.38298E-003	8.38298E-003	5.33933E-004	...........
	1	0.516667	8.38491E-003	8.48418E-003	5.40433E-004	...........
	2	0.775	8.39705E-003	8.59402E-003	5.35933E-004	...........
	3	1.03333	8.43213E-003	8.69223E-003	5.39766E-004	...........
	4	1.29167	8.49655E-003	8.81506E-003	5.34333E-004	...........
	5	1.55	8.58553E-003	8.91956E-003	5.33500E-004	...........
	6	1.80833	8.68903E-003	9.01810E-003	5.33500E-004	...........
	7	2.06667	8.79798E-003	9.13475E-003	5.38666E-004	...........
	8	2.325	8.90694E-003	9.22854E-003	5.39133E-004	...........
	9	2.58333	9.01411E-003	9.33087E-003	5.31633E-004	...........
	10	2.84167	9.11896E-003	9.42782E-003	5.36766E-004	...........
	11	3.1	9.22120E-003	9.52074E-003	5.36033E-004	...........
	12	3.35833	9.32077E-003	9.61210E-003	5.33266E-004	...........
	13	3.61667	9.41783E-003	9.71128E-003	5.31966E-004	...........
	14	3.875	9.51285E-003	9.79138E-003	5.32033E-004	...........
	15	4.13333	9.60609E-003	9.87990E-003	5.33966E-004	...........
	16	4.39167	9.69717E-003	9.96920E-003	5.29133E-004	...........
	17	4.65	9.78606E-003	1.00478E-002	5.35699E-004	...........
	18	4.90833	9.87294E-003	1.01217E-002	5.29133E-004	...........
EOC	QUANT	0.0098729	Open Circuit (V)
PSTATMODEL	IQUANT	4	Pstat Model
PSTATSECTION	LABEL	REF600-11020	Pstat Section
PSTATSERIALNO	LABEL	11020	Pstat Serial Number
CTRLMODE	IQUANT	1	Control Mode
IESTAB	IQUANT	0	I/E Stability
CASPEED	IQUANT	1	Control Amp Speed
CONVENTION	IQUANT	1	Current Convention
ICHRANGE	IQUANT	2	Ich Range
ICHRANGEMODE	TOGGLE	F	Ich Auto Range
ICHOFFSETENABLE	TOGGLE	T	Ich Offset Enable
ICHOFFSET	QUANT	0	Ich Offset (V)
ICHFILTER	IQUANT	3	Ich Filter
VCHRANGE	IQUANT	2	Vch Range
VCHRANGEMODE	TOGGLE	F	Vch Auto Range
VCHOFFSETENABLE	TOGGLE	T	Vch Offset Enable
VCHOFFSET	QUANT	0	Vch Offset (V)
VCHFILTER	IQUANT	3	Vch Filter
ACHRANGE	IQUANT	2	Ach Range
ACHOFFSETENABLE	TOGGLE	F	Ach Offset Enable
ACHOFFSET	QUANT	0	Ach Offset (V)
ACHFILTER	IQUANT	3	Ach Filter
IERANGELOWERLIMIT	IQUANT	1	I/E Range Lower Limit
IERANGEMODE	TOGGLE	F	I/E AutoRange
IERANGE	IQUANT	5	I/E Range
POSFEEDENABLE	TOGGLE	F	Positive Feedback IR Comp
POSFEEDRESISTANCE	QUANT	0	Positive Feedback Resistance (ohm)
ACHSELECT	IQUANT	0	Ach Select
CABLEID	IQUANT	14	Cable ID
DCCALDATE	LABEL	8/19/2019	DC Calibration Date
ACCALDATE	LABEL	8/19/2019	AC Calibration Date
THERMOSELECT	IQUANT	1	Thermo Select
FRAMEWORKVERSION	QUANT	6.33	Framework Version
INSTRUMENTVERSION	LABEL	3.50	Instrument Version
ZCURVE	TABLE
	Pt	Time	Freq	Zreal	Zimag	Zsig	Zmod	Zphz	Idc	Vdc	IERange
	#	s	Hz	ohm	ohm	V	ohm	°	A	V	#
	0	1	1000078	2388.988	-1970.59	1	3096.851	-39.51798	2.182584E-006	0.0114259	8
	1	3	794390.6	2792.974	-1987.953	1	3428.215	-35.44209	1.24508E-006	0.011882	8
	2	4	630984.4	3172.839	-1937.062	1	3717.407	-31.40463	6.720307E-006	0.010657	8
	3	5	501234.4	3544.938	-1833.88	1	3991.203	-27.35358	4.680161E-006	0.0102761	8
	4	7	398109.4	3860.465	-1690.422	1	4214.346	-23.64767	2.758717E-007	0.0116516	8
	5	8	316265.6	4144.521	-1533.681	1	4419.189	-20.307	-1.988627E-006	0.011463	8
	6	10	251203.1	4358.866	-1355.83	1	4564.865	-17.27837	4.083611E-008	0.0110312	8
	7	11	199546.9	4525.792	-1211.548	1	4685.151	-14.9866	-3.054E-006	0.0117789	8
	8	12	158578.1	4652.09	-1048.787	1	4768.846	-12.70461	-6.103738E-007	0.0116463	8
	9	14	125953.1	4825.634	-849.1773	1	4899.78	-9.98028	3.377422E-006	0.0071424	7
	10	15	100078.1	4895.59	-746.001	1	4952.103	-8.664207	8.750997E-007	0.0097526	7
	11	16	79453.13	4949.801	-674.1313	1	4995.496	-7.755603	-5.556031E-007	0.0126836	7
	12	18	63140.62	5013.342	-617.7463	1	5051.258	-7.024602	9.848256E-007	0.0102399	7
	13	19	50203.12	5062.642	-575.6807	1	5095.267	-6.487326	6.972333E-007	0.0096657	7
	14	20	39890.62	5100.404	-547.97	1	5129.756	-6.132142	-9.779044E-007	0.0126952	7
	15	22	31640.63	5145.166	-538.1066	1	5173.229	-5.970567	-9.356548E-007	0.0117147	7
	16	23	25171.88	5192.187	-545.279	1	5220.741	-5.995177	6.385479E-008	0.0121058	7
	17	24	20015.62	5243.299	-563.6756	1	5273.51	-6.13596	8.78483E-007	0.0097359	7
	18	26	15890.62	5274.748	-599.7585	1	5308.736	-6.486885	-1.089827E-006	0.0125379	7
	19	27	12609.37	5317.089	-651.3337	1	5356.834	-6.983834	-1.086866E-006	0.0122181	7
	20	28	10078.13	5364.654	-714.8932	1	5412.078	-7.590509	-1.087063E-006	0.0122185	7
	21	30	8015.625	5426.278	-809.6071	1	5486.343	-8.485999	9.861258E-007	0.010236	7
	22	31	6328.125	5481.755	-927.8514	1	5559.725	-9.60693	8.785705E-007	0.0097419	7
	23	32	5015.625	5529.097	-1076.292	1	5632.878	-11.01542	-6.543712E-007	0.0111128	7
	24	34	3984.375	5595.881	-1260.938	1	5736.188	-12.69855	-5.523682E-007	0.0126712	7
	25	35	3170.956	5676.393	-1490.314	1	5868.771	-14.71076	9.857069E-007	0.0102363	7
	26	36	2527.573	5758.305	-1768.136	1	6023.652	-17.06955	9.113546E-007	0.0106104	7
	27	38	1976.103	5859.797	-2149.921	1	6241.745	-20.14775	9.126767E-007	0.0106027	7
	28	39	1577.524	5956.999	-2576.253	1	6490.216	-23.38727	9.129533E-007	0.0105986	7
	29	41	1265.625	6102.922	-3079.035	1	6835.65	-26.77177	9.728843E-007	0.0099398	7
	30	42	998.264	6266.139	-3737.002	1	7295.868	-30.81102	4.365552E-007	0.0097565	7
	31	44	796.875	6454.474	-4499.658	1	7868.11	-34.88181	5.499288E-007	0.0114402	7
	32	45	627.7902	6689.225	-5489.593	1	8653.401	-39.37443	-2.816069E-007	0.010495	7
	33	47	505.5147	6944.716	-6581.235	1	9567.75	-43.46067	-5.513086E-007	0.0126737	7
	34	48	397.9953	7272.002	-8068.252	1	10861.8	-47.97132	6.324815E-009	0.0112744	7
	35	49	315.5048	7661.803	-9837.18	1	12468.89	-52.08633	4.576556E-010	0.0112244	6
	36	51	252.4038	8110.231	-11927.12	1	14423.32	-55.785	8.064748E-010	0.0112218	6
	37	52	198.6229	8704.416	-14683.87	1	17069.94	-59.34106	6.378938E-010	0.0112192	6
	38	53	158.3615	9416.649	-17890.54	1	20217.44	-62.24002	4.774052E-010	0.0112136	6
	39	55	125.558	10338.49	-21917.67	1	24233.62	-64.74691	4.966959E-010	0.0112192	6
	40	56	100.4464	11495.44	-26635.4	1	29010.17	-66.6557	1.41834E-009	0.0112109	6
	41	57	79.00281	13044.58	-32877.55	1	35370.81	-68.35867	2.282353E-010	0.0112146	6
	42	59	63.3446	15157.01	-40060.01	1	42831.52	-69.27548	5.545229E-010	0.0112099	6
	43	60	49.86702	17539.6	-48904.91	1	51955.06	-70.26978	4.110082E-011	0.0112086	6
	44	62	39.72458	21282.92	-59341.57	1	63042.72	-70.26957	2.419064E-010	0.0112125	6
	45	63	31.6723	25732.91	-71903.55	1	76369.52	-70.30868	1.10906E-009	0.0112062	6
	46	64	24.93351	32224.4	-87378.04	1	93130.73	-69.75638	5.197802E-010	0.0112113	6
	47	66	19.86229	40372.23	-104779.4	1	112288.2	-68.92799	5.145726E-010	0.0112124	5
	48	67	15.83615	51434.08	-124888.1	1	135064.8	-67.61611	1.133967E-009	0.0112204	5
	49	68	12.40079	65522.72	-150221.1	1	163889	-66.43437	5.176394E-010	0.011218	5
	50	70	9.93114	82299.98	-175221.9	1	193587.2	-64.84103	4.978345E-010	0.0112207	5
	51	71	7.944915	102868.3	-203489.3	1	228012.7	-63.1824	-1.624062E-010	0.0112164	5
	52	73	6.317385	129019.4	-234807	1	267918.5	-61.21251	-2.911318E-010	0.0112177	5
	53	75	5.008013	159947.9	-269056.9	1	313009.6	-59.26953	-2.080291E-010	0.0112129	5
	54	78	3.945707	196307.5	-305773.5	1	363364.9	-57.29942	3.945492E-010	0.0112238	5
	55	80	3.158693	235089.1	-342739.5	1	415616.7	-55.55331	-6.432288E-011	0.0112122	5
	56	83	2.504006	278313.7	-383328	1	473707.6	-54.01864	2.318959E-010	0.0112117	5
	57	86	1.998082	322235.3	-426630.1	1	534648.3	-52.93611	-2.132441E-010	0.0112364	5
	58	89	1.584686	371347.1	-476753.6	1	604311.7	-52.0847	1.169205E-010	0.011256	5
	59	93	1.266892	418674.9	-531886.2	1	676898.5	-51.7919	-2.096569E-010	0.0112297	5
	60	97	0.999041	471965.1	-602119.1	1	765048	-51.90923	2.275738E-010	0.0112163	5
