EXPLAIN
TAG	EISPOT
TITLE	LABEL	Potentiostatic EIS	Test &Identifier
DATE	LABEL	10/2/2019	Date
TIME	LABEL	8:44:44	Time
NOTES	NOTES	2	&Notes...
	
	
PSTAT	PSTAT	REF600-11020	Potentiostat
VDC	POTEN	0.00000E+000	T	DC &Voltage (V)
FREQINIT	QUANT	1.00000E+006	Initial Fre&q. (Hz)
FREQFINAL	QUANT	1.00000E+000	Final Fre&q. (Hz)
PTSPERDEC	QUANT	1.00000E+001	Points/&decade
VAC	QUANT	2.50000E+001	AC &Voltage (mV rms)
AREA	QUANT	1.00000E-002	&Area (cm^2)
CONDIT	TWOPARAM	T	5.00000E+000	0.00000E+000	Conditionin&g	Time(s)	E(V)
DELAY	TWOPARAM	T	5.00000E+000	0.00000E+000	Init. De&lay	Time(s)	Stab.(mV/s)
SPEED	SELECTOR	1	&Optimize for:
ZGUESS	QUANT	1.00000E+004	E&stimated Z (ohms)
OCVCURVE	TABLE	19
	Pt	T	Vf	Vm	Ach	Over
	#	s	V vs. Ref.	V	V	bits
	0	0.258333	6.07960E-003	6.07960E-003	5.64866E-004	...........
	1	0.516667	6.08004E-003	6.10253E-003	5.66932E-004	...........
	2	0.775	6.08329E-003	6.15366E-003	5.66232E-004	...........
	3	1.03333	6.09514E-003	6.24380E-003	5.69832E-004	...........
	4	1.29167	6.12297E-003	6.30893E-003	5.62566E-004	...........
	5	1.55	6.17047E-003	6.40509E-003	5.68366E-004	...........
	6	1.80833	6.23550E-003	6.50257E-003	5.62832E-004	...........
	7	2.06667	6.31212E-003	6.51659E-003	5.67066E-004	...........
	8	2.325	6.39064E-003	6.56901E-003	5.69232E-004	...........
	9	2.58333	6.46027E-003	6.60420E-003	5.68199E-004	...........
	10	2.84167	6.51728E-003	6.68316E-003	5.67599E-004	...........
	11	3.1	6.56792E-003	6.76533E-003	5.67499E-004	...........
	12	3.35833	6.62190E-003	6.82879E-003	5.61599E-004	...........
	13	3.61667	6.68356E-003	6.87216E-003	5.69366E-004	...........
	14	3.875	6.74821E-003	6.88762E-003	5.67832E-004	...........
	15	4.13333	6.80612E-003	6.89172E-003	5.66799E-004	...........
	16	4.39167	6.85096E-003	6.97942E-003	5.72466E-004	...........
	17	4.65	6.88611E-003	6.99153E-003	5.68166E-004	...........
	18	4.90833	6.92258E-003	7.17076E-003	5.65966E-004	...........
EOC	QUANT	0.0069226	Open Circuit (V)
PSTATMODEL	IQUANT	4	Pstat Model
PSTATSECTION	LABEL	REF600-11020	Pstat Section
PSTATSERIALNO	LABEL	11020	Pstat Serial Number
CTRLMODE	IQUANT	1	Control Mode
IESTAB	IQUANT	0	I/E Stability
CASPEED	IQUANT	1	Control Amp Speed
CONVENTION	IQUANT	1	Current Convention
ICHRANGE	IQUANT	2	Ich Range
ICHRANGEMODE	TOGGLE	F	Ich Auto Range
ICHOFFSETENABLE	TOGGLE	T	Ich Offset Enable
ICHOFFSET	QUANT	0	Ich Offset (V)
ICHFILTER	IQUANT	3	Ich Filter
VCHRANGE	IQUANT	2	Vch Range
VCHRANGEMODE	TOGGLE	F	Vch Auto Range
VCHOFFSETENABLE	TOGGLE	T	Vch Offset Enable
VCHOFFSET	QUANT	0	Vch Offset (V)
VCHFILTER	IQUANT	3	Vch Filter
ACHRANGE	IQUANT	2	Ach Range
ACHOFFSETENABLE	TOGGLE	F	Ach Offset Enable
ACHOFFSET	QUANT	0	Ach Offset (V)
ACHFILTER	IQUANT	3	Ach Filter
IERANGELOWERLIMIT	IQUANT	1	I/E Range Lower Limit
IERANGEMODE	TOGGLE	F	I/E AutoRange
IERANGE	IQUANT	6	I/E Range
POSFEEDENABLE	TOGGLE	F	Positive Feedback IR Comp
POSFEEDRESISTANCE	QUANT	0	Positive Feedback Resistance (ohm)
ACHSELECT	IQUANT	0	Ach Select
CABLEID	IQUANT	14	Cable ID
DCCALDATE	LABEL	8/19/2019	DC Calibration Date
ACCALDATE	LABEL	8/19/2019	AC Calibration Date
THERMOSELECT	IQUANT	1	Thermo Select
FRAMEWORKVERSION	QUANT	6.33	Framework Version
INSTRUMENTVERSION	LABEL	3.50	Instrument Version
ZCURVE	TABLE
	Pt	Time	Freq	Zreal	Zimag	Zsig	Zmod	Zphz	Idc	Vdc	IERange
	#	s	Hz	ohm	ohm	V	ohm	°	A	V	#
	0	1	1000078	2340.218	-1342.837	1	2698.116	-29.84758	9.017277E-007	0.0085478	8
	1	3	794390.6	2595.402	-1232.112	1	2873.014	-25.39504	6.493198E-007	0.0088155	8
	2	4	630984.4	2793.043	-1099.675	1	3001.729	-21.49052	-3.514005E-006	0.00954	8
	3	6	501234.4	2947.672	-960.142	1	3100.104	-18.04193	-5.99142E-007	0.0089755	8
	4	7	398109.4	3072.457	-827.3065	1	3181.89	-15.07034	-1.658953E-007	0.0088001	8
	5	8	316265.6	3155.351	-717.7697	1	3235.959	-12.81539	1.534848E-006	0.0081445	8
	6	10	251203.1	3217.291	-609.5423	1	3274.523	-10.72801	-2.866806E-006	0.0091914	8
	7	11	199546.9	3267.689	-528.7098	1	3310.185	-9.190769	-1.883703E-006	0.0089834	8
	8	13	158578.1	3314.182	-459.8333	1	3345.931	-7.899194	1.505928E-006	0.0081267	8
	9	14	125953.1	3371.164	-382.478	1	3392.792	-6.472858	-6.958118E-007	0.0104647	7
	10	15	100078.1	3395.685	-352.2974	1	3413.911	-5.923164	7.634556E-008	0.0083971	7
	11	17	79453.13	3422.458	-337.0544	1	3439.015	-5.62453	4.174554E-008	0.0084211	7
	12	18	63140.62	3450.842	-330.6209	1	3466.644	-5.472733	-7.196996E-008	0.0086688	7
	13	19	50203.12	3480.035	-331.5053	1	3495.789	-5.441529	-3.639641E-008	0.0086303	7
	14	21	39890.62	3510.509	-340.1296	1	3526.948	-5.534055	-7.15668E-008	0.0086682	7
	15	22	31640.63	3542.043	-356.9094	1	3559.979	-5.753913	-1.346203E-008	0.0085896	7
	16	23	25171.88	3576.561	-380.9118	1	3596.787	-6.079215	-2.613561E-008	0.0085557	7
	17	25	20015.62	3613.48	-413.5916	1	3637.072	-6.529544	1.269697E-007	0.008358	7
	18	26	15890.62	3652.861	-453.1931	1	3680.866	-7.072278	8.442949E-008	0.0084955	7
	19	27	12609.37	3697.065	-504.5199	1	3731.331	-7.770865	-1.07163E-008	0.0086823	7
	20	29	10078.13	3742.979	-563.7167	1	3785.191	-8.564744	-7.33483E-008	0.0086702	7
	21	30	8015.625	3793.459	-637.1566	1	3846.596	-9.53451	-6.211038E-009	0.0085037	7
	22	31	6328.125	3847.707	-730.3121	1	3916.402	-10.74716	8.368095E-008	0.0084913	7
	23	33	5015.625	3906.64	-839.416	1	3995.805	-12.12671	8.222602E-008	0.008375	7
	24	34	3984.375	3970.135	-974.805	1	4088.057	-13.79519	-1.398238E-008	0.008682	7
	25	36	3170.956	4037.109	-1135.582	1	4193.781	-15.71054	-3.542906E-008	0.0085607	7
	26	37	2527.573	4110.221	-1332.131	1	4320.705	-17.95762	-1.483092E-008	0.0085936	7
	27	38	1976.103	4197.886	-1592.945	1	4489.958	-20.77993	3.778251E-008	0.0085042	7
	28	40	1577.524	4286.254	-1887.871	1	4683.592	-23.77099	3.580939E-009	0.0085487	7
	29	41	1265.625	4379.935	-2241.699	1	4920.269	-27.10386	8.623909E-008	0.0084844	7
	30	42	998.264	4494.864	-2708.383	1	5247.775	-31.07109	-1.429266E-008	0.0085921	7
	31	44	796.875	4621.242	-3256.082	1	5653.136	-35.16816	-1.490595E-008	0.0085139	7
	32	45	627.7902	4772.301	-3978.164	1	6212.942	-39.8144	4.685605E-009	0.0085403	7
	33	46	505.5147	4934.17	-4770.886	1	6863.482	-44.03611	1.052157E-008	0.0084814	7
	34	48	397.9953	5147.311	-5878.362	1	7813.446	-48.79342	6.300884E-009	0.008563	7
	35	49	315.5048	5406.101	-7201.797	1	9005.099	-53.10591	7.801476E-009	0.0085617	7
	36	51	252.4038	5720.974	-8765.298	1	10467.09	-56.86814	5.946814E-010	0.0085016	6
	37	52	198.6229	6150.522	-10836.36	1	12460.16	-60.42153	8.847698E-010	0.0085026	6
	38	53	158.3615	6676.346	-13244.2	1	14831.81	-63.24752	1.290021E-009	0.0084971	6
	39	55	125.558	7381.503	-16263.43	1	17860.17	-65.58807	8.943292E-010	0.0085005	6
	40	56	100.4464	8262.468	-19800.66	1	21455.41	-67.35008	1.331311E-009	0.0085018	6
	41	57	79.00281	9513.48	-24393.44	1	26182.94	-68.69413	1.197636E-009	0.0084971	6
	42	59	63.3446	11027.4	-29422.97	1	31421.57	-69.45456	4.713848E-010	0.0084958	6
	43	60	49.86702	13355.49	-36347.26	1	38723.28	-69.82457	7.259529E-010	0.0084969	6
	44	62	39.72458	16070.91	-43945.84	1	46792.21	-69.91263	7.24779E-010	0.0084992	6
	45	63	31.6723	19778.45	-52915.17	1	56490.73	-69.50543	1.04173E-009	0.0084963	6
	46	64	24.93351	24735.14	-64123.91	1	68729.2	-68.90639	8.379981E-010	0.0084954	6
	47	66	19.86229	31042.88	-76499.41	1	82557.98	-67.91306	4.487875E-010	0.008496	6
	48	67	15.83615	38670.98	-90716.82	1	98615.3	-66.91231	1.766884E-009	0.008498	6
	49	69	12.40079	49913.95	-108021	1	118995.5	-65.19946	1.426089E-009	0.0084945	5
	50	70	9.93114	62129.99	-125308.3	1	139865.3	-63.62699	8.661949E-010	0.0084954	5
	51	72	7.944915	76473.25	-144772.5	1	163729.2	-62.15563	-4.222653E-010	0.008504	5
	52	73	6.317385	94448.6	-166306.6	1	191254.9	-60.40695	-2.34942E-010	0.0085144	5
	53	75	5.008013	115248.2	-190098.7	1	222305.4	-58.77348	1.56045E-011	0.0084956	5
	54	78	3.945707	138960.4	-216472.9	1	257236.3	-57.30239	6.461308E-010	0.008507	5
	55	80	3.158693	163740.6	-243643.1	1	293552.3	-56.09688	-1.011889E-010	0.0084847	5
	56	84	2.504006	191385.7	-275437	1	335401.3	-55.20674	4.30664E-010	0.0085095	5
	57	86	1.998082	220211.9	-310706.3	1	380830.3	-54.67304	4.122585E-010	0.0085277	5
	58	89	1.584686	251944.4	-351759.6	1	432678.6	-54.38824	1.773306E-010	0.0084755	5
	59	93	1.266892	285297.8	-400827.6	1	491993.5	-54.55781	2.713062E-010	0.0085368	5
	60	97	0.999041	324536.2	-461438.3	1	564135.7	-54.88073	-2.968739E-011	0.0084609	5
