EXPLAIN
TAG	EISPOT
TITLE	LABEL	Potentiostatic EIS	Test &Identifier
DATE	LABEL	9/24/2019	Date
TIME	LABEL	10:31:44	Time
NOTES	NOTES	1	&Notes...
	
PSTAT	PSTAT	REF600-11020	Potentiostat
VDC	POTEN	0.00000E+000	T	DC &Voltage (V)
FREQINIT	QUANT	1.00000E+006	Initial Fre&q. (Hz)
FREQFINAL	QUANT	1.00000E+000	Final Fre&q. (Hz)
PTSPERDEC	QUANT	1.00000E+001	Points/&decade
VAC	QUANT	2.50000E+001	AC &Voltage (mV rms)
AREA	QUANT	1.00000E-002	&Area (cm^2)
CONDIT	TWOPARAM	T	5.00000E+000	0.00000E+000	Conditionin&g	Time(s)	E(V)
DELAY	TWOPARAM	T	5.00000E+000	0.00000E+000	Init. De&lay	Time(s)	Stab.(mV/s)
SPEED	SELECTOR	1	&Optimize for:
ZGUESS	QUANT	1.00000E+004	E&stimated Z (ohms)
OCVCURVE	TABLE	19
	Pt	T	Vf	Vm	Ach	Over
	#	s	V vs. Ref.	V	V	bits
	0	0.258333	2.29473E-003	2.29473E-003	4.84834E-004	...........
	1	0.516667	2.28766E-003	1.92461E-003	4.91867E-004	...........
	2	0.775	2.24449E-003	1.58674E-003	4.81134E-004	...........
	3	1.03333	2.12353E-003	1.28063E-003	4.81134E-004	...........
	4	1.29167	1.91041E-003	9.96013E-004	4.90000E-004	...........
	5	1.55	1.63297E-003	7.29003E-004	4.90134E-004	...........
	6	1.80833	1.33323E-003	4.77653E-004	4.88934E-004	...........
	7	2.06667	1.04009E-003	2.44545E-004	4.79267E-004	...........
	8	2.325	7.65197E-004	2.33779E-005	4.87067E-004	...........
	9	2.58333	5.09942E-004	-1.87169E-004	4.92367E-004	...........
	10	2.84167	2.71945E-004	-3.86346E-004	4.89534E-004	...........
	11	3.1	4.84171E-005	-5.70534E-004	4.88367E-004	...........
	12	3.35833	-1.62481E-004	-7.50343E-004	4.91234E-004	...........
	13	3.61667	-3.61886E-004	-9.23203E-004	4.86167E-004	...........
	14	3.875	-5.51254E-004	-1.09578E-003	4.83200E-004	...........
	15	4.13333	-7.32594E-004	-1.25749E-003	4.86900E-004	...........
	16	4.39167	-9.07588E-004	-1.41418E-003	4.90434E-004	...........
	17	4.65	-1.07684E-003	-1.56504E-003	4.94467E-004	...........
	18	4.90833	-1.24026E-003	-1.71230E-003	4.80800E-004	...........
EOC	QUANT	-0.0012403	Open Circuit (V)
PSTATMODEL	IQUANT	4	Pstat Model
PSTATSECTION	LABEL	REF600-11020	Pstat Section
PSTATSERIALNO	LABEL	11020	Pstat Serial Number
CTRLMODE	IQUANT	1	Control Mode
IESTAB	IQUANT	0	I/E Stability
CASPEED	IQUANT	1	Control Amp Speed
CONVENTION	IQUANT	1	Current Convention
ICHRANGE	IQUANT	2	Ich Range
ICHRANGEMODE	TOGGLE	F	Ich Auto Range
ICHOFFSETENABLE	TOGGLE	T	Ich Offset Enable
ICHOFFSET	QUANT	0	Ich Offset (V)
ICHFILTER	IQUANT	3	Ich Filter
VCHRANGE	IQUANT	2	Vch Range
VCHRANGEMODE	TOGGLE	F	Vch Auto Range
VCHOFFSETENABLE	TOGGLE	T	Vch Offset Enable
VCHOFFSET	QUANT	0	Vch Offset (V)
VCHFILTER	IQUANT	3	Vch Filter
ACHRANGE	IQUANT	2	Ach Range
ACHOFFSETENABLE	TOGGLE	F	Ach Offset Enable
ACHOFFSET	QUANT	0	Ach Offset (V)
ACHFILTER	IQUANT	3	Ach Filter
IERANGELOWERLIMIT	IQUANT	1	I/E Range Lower Limit
IERANGEMODE	TOGGLE	F	I/E AutoRange
IERANGE	IQUANT	5	I/E Range
POSFEEDENABLE	TOGGLE	F	Positive Feedback IR Comp
POSFEEDRESISTANCE	QUANT	0	Positive Feedback Resistance (ohm)
ACHSELECT	IQUANT	0	Ach Select
CABLEID	IQUANT	14	Cable ID
DCCALDATE	LABEL	8/19/2019	DC Calibration Date
ACCALDATE	LABEL	8/19/2019	AC Calibration Date
THERMOSELECT	IQUANT	1	Thermo Select
FRAMEWORKVERSION	QUANT	6.33	Framework Version
INSTRUMENTVERSION	LABEL	3.50	Instrument Version
ZCURVE	TABLE
	Pt	Time	Freq	Zreal	Zimag	Zsig	Zmod	Zphz	Idc	Vdc	IERange
	#	s	Hz	ohm	ohm	V	ohm	°	A	V	#
	0	1	1000078	2174.618	-2033.985	1	2977.593	-43.08613	6.134689E-007	0.0015364	8
	1	3	794390.6	2576.043	-2077.918	1	3309.644	-38.89075	-2.876249E-006	0.0011341	8
	2	4	630984.4	2986.349	-2053.361	1	3624.165	-34.51172	-1.745835E-007	0.0008456	8
	3	6	501234.4	3414.079	-1991.674	1	3952.556	-30.25804	-1.127612E-006	0.0006488	8
	4	7	398109.4	3770.152	-1837.772	1	4194.216	-25.98706	-1.781804E-007	0.0002943	8
	5	8	316265.6	4078.31	-1695.437	1	4416.687	-22.57366	8.7571E-007	0.0001503	8
	6	10	251203.1	4332.718	-1482.4	1	4579.297	-18.88792	2.09181E-006	-0.0001348	8
	7	11	199546.9	4531.325	-1313.627	1	4717.894	-16.16683	5.407455E-007	0.0004083	8
	8	13	158578.1	4672.052	-1128.616	1	4806.438	-13.58062	4.706231E-006	-0.0005818	8
	9	15	125953.1	4822.419	-927.4655	1	4910.796	-10.88641	1.183168E-007	-3.534968E-005	7
	10	16	100078.1	4904.584	-804.0997	1	4970.063	-9.310731	-3.84576E-008	0.0003171	7
	11	17	79453.13	4974.034	-714.3384	1	5025.067	-8.172566	-4.513194E-008	0.0004217	7
	12	19	63140.62	5032.185	-641.959	1	5072.967	-7.269991	-1.03819E-008	0.0003966	7
	13	20	50203.12	5081.283	-588.868	1	5115.291	-6.610497	-3.466803E-008	0.000286	7
	14	21	39890.62	5126.749	-555.9573	1	5156.806	-6.189111	-4.591642E-008	0.0004107	7
	15	23	31640.63	5168.334	-532.4227	1	5195.686	-5.881653	-3.994686E-008	0.0002843	7
	16	24	25171.88	5209.367	-527.5186	1	5236.008	-5.782259	7.045411E-008	0.0001414	7
	17	25	20015.62	5251.834	-533.6497	1	5278.877	-5.802028	-7.310138E-008	0.0003733	7
	18	27	15890.62	5292.456	-557.5829	1	5321.747	-6.014171	-4.779949E-008	0.0003596	7
	19	28	12609.37	5337.223	-598.6833	1	5370.695	-6.40019	-1.166334E-008	0.0003967	7
	20	29	10078.13	5378.89	-650.2941	1	5418.057	-6.893458	-1.041628E-008	0.0003118	7
	21	31	8015.625	5427.953	-721.6003	1	5475.708	-7.572585	-3.937961E-008	0.0002797	7
	22	32	6328.125	5476.148	-818.4366	1	5536.97	-8.500213	-3.629422E-009	0.0002791	7
	23	34	5015.625	5531.236	-938.9509	1	5610.365	-9.63436	-3.843414E-008	0.0002844	7
	24	35	3984.375	5592.507	-1092.503	1	5698.219	-11.05359	-4.491004E-008	0.0003612	7
	25	36	3170.956	5659.176	-1276.129	1	5801.274	-12.7075	-7.1995E-008	0.0003787	7
	26	38	2527.573	5735.077	-1506.517	1	5929.646	-14.71821	-4.376768E-008	0.0004085	7
	27	39	1976.103	5824.626	-1810.216	1	6099.438	-17.26455	-5.690652E-009	0.0003015	7
	28	40	1577.524	5929.433	-2155.519	1	6309.076	-19.97765	8.407017E-008	0.0002137	7
	29	42	1265.625	6039.759	-2542.189	1	6552.97	-22.82667	6.941286E-008	0.0001433	7
	30	43	998.264	6169.354	-3101.11	1	6904.912	-26.68701	-4.586591E-008	0.0004018	7
	31	44	796.875	6316.067	-3719.771	1	7330.034	-30.49544	-4.097204E-008	0.0002798	7
	32	46	627.7902	6499.311	-4535.758	1	7925.538	-34.91053	-4.621717E-008	0.0003658	7
	33	47	505.5147	6685.097	-5427.803	1	8611.131	-39.07404	4.19932E-008	0.0001268	7
	34	49	397.9953	6922.325	-6656.968	1	9603.84	-43.88051	7.535249E-009	0.0002835	7
	35	50	315.5048	7197.78	-8130.036	1	10858.43	-48.48051	1.646215E-009	0.0002198	6
	36	51	252.4038	7505.835	-9877.48	1	12405.73	-52.76904	1.774144E-009	0.000216	6
	37	53	198.6229	7909.481	-12199.07	1	14538.82	-57.04193	1.325884E-009	0.0002206	6
	38	54	158.3615	8381.328	-14923.74	1	17116.21	-60.68097	1.510362E-009	0.0002204	6
	39	55	125.558	8995.968	-18361.95	1	20447.21	-63.89864	1.526698E-009	0.0002157	6
	40	57	100.4464	9757.4	-22446.04	1	24475.12	-66.50518	3.921151E-010	0.0002147	6
	41	58	79.00281	10747.17	-27779.95	1	29786.36	-68.85016	5.733333E-010	0.0002186	6
	42	59	63.3446	11756.64	-33707.42	1	35698.86	-70.772	1.063963E-009	0.0002147	6
	43	61	49.86702	14118.5	-42035	1	44342.68	-71.43409	1.295946E-009	0.0002102	6
	44	62	39.72458	16164.17	-51459.58	1	53938.57	-72.56177	1.214492E-009	0.0002154	6
	45	64	31.6723	19033.12	-62785.28	1	65606.79	-73.13552	1.158597E-009	0.0002156	6
	46	65	24.93351	23396.13	-77357.73	1	80818.3	-73.17255	1.277376E-009	0.0002136	6
	47	67	19.86229	28767.41	-93995.76	1	98299.4	-72.98327	9.436142E-010	0.0002079	6
	48	68	15.83615	36013.33	-112751	1	118362.8	-72.28622	-1.303756E-010	0.0002123	5
	49	69	12.40079	45441.03	-139138.6	1	146370.9	-71.91357	6.218622E-010	0.0002146	5
	50	71	9.93114	57851.21	-166551.3	1	176312.5	-70.84545	2.694788E-010	0.0002256	5
	51	72	7.944915	73463.22	-199531	1	212625.2	-69.78733	4.605962E-010	0.0002186	5
	52	74	6.317385	93487.27	-235942.3	1	253788.6	-68.38508	5.836767E-010	0.0002333	5
	53	76	5.008013	119593.8	-279302.9	1	303830.2	-66.82003	6.04481E-010	0.000228	5
	54	79	3.945707	152694.7	-329800.2	1	363433.4	-65.15627	3.466097E-010	0.0002105	5
	55	81	3.158693	190549.2	-381470.5	1	426413.8	-63.45731	3.645435E-010	0.000234	5
	56	85	2.504006	237442.6	-441282.5	1	501108	-61.71647	2.74158E-010	0.0002093	5
	57	87	1.998082	289745.4	-504570.1	1	581844.8	-60.13374	2.083697E-011	0.0002243	5
	58	90	1.584686	353676.9	-574648.4	1	674765.2	-58.38909	3.193507E-010	0.0002747	5
	59	94	1.266892	419810.4	-648845.1	1	772813.5	-57.09666	1.95362E-011	0.0002368	5
	60	98	0.999041	498457.8	-735239	1	888277.3	-55.86456	4.838182E-010	0.0002223	5
