EXPLAIN
TAG	EISPOT
TITLE	LABEL	Potentiostatic EIS	Test &Identifier
DATE	LABEL	11/5/2019	Date
TIME	LABEL	10:36:48	Time
NOTES	NOTES	2	&Notes...
	
	
PSTAT	PSTAT	REF600-11020	Potentiostat
VDC	POTEN	0.00000E+000	T	DC &Voltage (V)
FREQINIT	QUANT	1.00000E+006	Initial Fre&q. (Hz)
FREQFINAL	QUANT	1.00000E+000	Final Fre&q. (Hz)
PTSPERDEC	QUANT	1.00000E+001	Points/&decade
VAC	QUANT	2.50000E+001	AC &Voltage (mV rms)
AREA	QUANT	1.00000E-002	&Area (cm^2)
CONDIT	TWOPARAM	T	5.00000E+000	0.00000E+000	Conditionin&g	Time(s)	E(V)
DELAY	TWOPARAM	T	5.00000E+000	0.00000E+000	Init. De&lay	Time(s)	Stab.(mV/s)
SPEED	SELECTOR	1	&Optimize for:
ZGUESS	QUANT	1.00000E+005	E&stimated Z (ohms)
OCVCURVE	TABLE	19
	Pt	T	Vf	Vm	Ach	Over
	#	s	V vs. Ref.	V	V	bits
	0	0.258333	4.82438E-003	4.82438E-003	5.66632E-004	...........
	1	0.516667	4.82478E-003	4.84535E-003	5.64999E-004	...........
	2	0.775	4.82731E-003	4.86910E-003	5.60932E-004	...........
	3	1.03333	4.83314E-003	4.80878E-003	5.69066E-004	...........
	4	1.29167	4.83877E-003	4.83758E-003	5.69032E-004	...........
	5	1.55	4.84064E-003	4.89097E-003	5.64032E-004	...........
	6	1.80833	4.84500E-003	4.97534E-003	5.68666E-004	...........
	7	2.06667	4.86404E-003	5.00522E-003	5.70266E-004	...........
	8	2.325	4.90134E-003	5.03948E-003	5.66899E-004	...........
	9	2.58333	4.94861E-003	5.09122E-003	5.67266E-004	...........
	10	2.84167	4.99591E-003	5.10465E-003	5.67566E-004	...........
	11	3.1	5.03958E-003	5.19904E-003	5.72999E-004	...........
	12	3.35833	5.08148E-003	5.18924E-003	5.66099E-004	...........
	13	3.61667	5.12281E-003	5.21418E-003	5.64699E-004	...........
	14	3.875	5.15985E-003	5.22298E-003	5.66632E-004	...........
	15	4.13333	5.18853E-003	5.24764E-003	5.62899E-004	...........
	16	4.39167	5.21005E-003	5.27400E-003	5.70399E-004	...........
	17	4.65	5.22902E-003	5.29519E-003	5.67999E-004	...........
	18	4.90833	5.24915E-003	5.32688E-003	5.65632E-004	...........
EOC	QUANT	0.0052492	Open Circuit (V)
PSTATMODEL	IQUANT	4	Pstat Model
PSTATSECTION	LABEL	REF600-11020	Pstat Section
PSTATSERIALNO	LABEL	11020	Pstat Serial Number
CTRLMODE	IQUANT	1	Control Mode
IESTAB	IQUANT	0	I/E Stability
CASPEED	IQUANT	1	Control Amp Speed
CONVENTION	IQUANT	1	Current Convention
ICHRANGE	IQUANT	2	Ich Range
ICHRANGEMODE	TOGGLE	F	Ich Auto Range
ICHOFFSETENABLE	TOGGLE	T	Ich Offset Enable
ICHOFFSET	QUANT	0	Ich Offset (V)
ICHFILTER	IQUANT	3	Ich Filter
VCHRANGE	IQUANT	2	Vch Range
VCHRANGEMODE	TOGGLE	F	Vch Auto Range
VCHOFFSETENABLE	TOGGLE	T	Vch Offset Enable
VCHOFFSET	QUANT	0	Vch Offset (V)
VCHFILTER	IQUANT	3	Vch Filter
ACHRANGE	IQUANT	2	Ach Range
ACHOFFSETENABLE	TOGGLE	F	Ach Offset Enable
ACHOFFSET	QUANT	0	Ach Offset (V)
ACHFILTER	IQUANT	3	Ach Filter
IERANGELOWERLIMIT	IQUANT	1	I/E Range Lower Limit
IERANGEMODE	TOGGLE	F	I/E AutoRange
IERANGE	IQUANT	4	I/E Range
POSFEEDENABLE	TOGGLE	F	Positive Feedback IR Comp
POSFEEDRESISTANCE	QUANT	0	Positive Feedback Resistance (ohm)
ACHSELECT	IQUANT	0	Ach Select
CABLEID	IQUANT	14	Cable ID
DCCALDATE	LABEL	8/19/2019	DC Calibration Date
ACCALDATE	LABEL	8/19/2019	AC Calibration Date
THERMOSELECT	IQUANT	1	Thermo Select
FRAMEWORKVERSION	QUANT	6.33	Framework Version
INSTRUMENTVERSION	LABEL	3.50	Instrument Version
ZCURVE	TABLE
	Pt	Time	Freq	Zreal	Zimag	Zsig	Zmod	Zphz	Idc	Vdc	IERange
	#	s	Hz	ohm	ohm	V	ohm	°	A	V	#
	0	2	1000078	1860.428	-929.5999	1	2079.747	-26.54992	1.049973E-006	0.0083624	8
	1	3	794390.6	2017.036	-876.906	1	2199.409	-23.49698	-8.76887E-006	0.0083429	8
	2	5	630984.4	2155.326	-817.2853	1	2305.079	-20.76639	9.478637E-006	0.0056083	8
	3	6	501234.4	2274.942	-760.9567	1	2398.837	-18.49483	-1.798151E-006	0.0074364	8
	4	7	398109.4	2377.976	-700.7353	1	2479.073	-16.41904	-3.960056E-006	0.0074561	8
	5	9	316265.6	2472.884	-645.6538	1	2555.783	-14.63288	-7.059418E-007	0.0072651	8
	6	10	251203.1	2557.355	-598.866	1	2626.539	-13.17969	-1.742447E-006	0.00656	8
	7	11	199546.9	2624.258	-559.1302	1	2683.161	-12.02772	-1.94238E-006	0.0068956	8
	8	13	158578.1	2684.321	-494.2563	1	2729.445	-10.43285	-2.685842E-006	0.006701	8
	9	14	125953.1	2770.114	-447.5627	1	2806.037	-9.177872	-6.447107E-007	0.0100221	7
	10	15	100078.1	2811.335	-426.8448	1	2843.554	-8.63328	-7.335461E-007	0.0066096	7
	11	17	79453.13	2860.586	-424.4164	1	2891.9	-8.439235	-8.852903E-007	0.0084355	7
	12	18	63140.62	2910.916	-426.1653	1	2941.947	-8.329072	-3.153703E-007	0.0059084	7
	13	20	50203.12	2962.17	-432.9138	1	2993.638	-8.314771	-6.056833E-007	0.0083274	7
	14	21	39890.62	3012.551	-442.9277	1	3044.938	-8.364126	-1.094481E-006	0.0083717	7
	15	22	31640.63	3066.507	-458.0146	1	3100.523	-8.494922	-7.368293E-007	0.0065947	7
	16	24	25171.88	3121.036	-477.5166	1	3157.354	-8.698763	-1.056654E-006	0.0072787	7
	17	25	20015.62	3183.459	-501.5153	1	3222.721	-8.952674	4.678801E-007	0.0050852	7
	18	26	15890.62	3243.571	-536.9401	1	3287.713	-9.399492	1.082795E-006	0.0052541	7
	19	28	12609.37	3306.902	-575.6838	1	3356.637	-9.8754	1.021946E-006	0.0059941	7
	20	29	10078.13	3370.6	-610.1218	1	3425.375	-10.26017	-1.235519E-006	0.0082197	7
	21	31	8015.625	3437.781	-669.3578	1	3502.338	-11.018	-1.05607E-006	0.0072756	7
	22	32	6328.125	3519.244	-734.1299	1	3595	-11.78318	9.975342E-008	0.0053902	7
	23	33	5015.625	3596.386	-805.776	1	3685.549	-12.62865	-1.092882E-006	0.0083669	7
	24	35	3984.375	3679.336	-887.0135	1	3784.746	-13.55422	-1.094961E-006	0.0083605	7
	25	36	3170.956	3758.063	-989.703	1	3886.2	-14.7541	-1.056549E-006	0.0072771	7
	26	37	2527.573	3836.649	-1110.398	1	3994.103	-16.14143	-1.234732E-006	0.008218	7
	27	39	1976.103	3922.068	-1278.472	1	4125.18	-18.05436	-1.05609E-006	0.0072737	7
	28	40	1577.524	3992.217	-1498.515	1	4264.193	-20.57409	6.364578E-007	0.006885	7
	29	41	1265.625	4076.032	-1709.19	1	4419.883	-22.74961	-1.052155E-006	0.0072692	7
	30	43	998.264	4168.966	-2033.641	1	4638.532	-26.00333	9.525698E-008	0.0076672	7
	31	44	796.875	4264.708	-2424.483	1	4905.696	-29.61819	1.08302E-006	0.0052521	7
	32	45	627.7902	4379.818	-2936.767	1	5273.273	-33.84275	6.349364E-007	0.0068874	7
	33	47	505.5147	4501.67	-3515.672	1	5711.829	-37.98879	8.42814E-007	0.0064805	7
	34	48	397.9953	4671.369	-4304.134	1	6351.949	-42.65703	8.634331E-009	0.0067491	7
	35	50	315.5048	4876.698	-5258.027	1	7171.403	-47.15479	6.8534E-009	0.0067432	7
	36	51	252.4038	5129.462	-6382.992	1	8188.649	-51.21415	5.362982E-009	0.0067446	7
	37	52	198.6229	5480.771	-7868.933	1	9589.52	-55.1425	3.892444E-009	0.0067526	7
	38	54	158.3615	5922.218	-9586.37	1	11268.15	-58.29326	5.577363E-010	0.0066894	6
	39	55	125.558	6505.252	-11727.48	1	13410.9	-60.9828	4.81946E-010	0.0066903	6
	40	56	100.4464	7236.749	-14199.26	1	15937.05	-62.99403	1.435797E-009	0.0066788	6
	41	58	79.00281	8268.423	-17446.17	1	19306.36	-64.64189	1.090354E-009	0.0066851	6
	42	59	63.3446	9510.29	-21121.55	1	23163.88	-65.75964	5.989271E-010	0.0066803	6
	43	60	49.86702	11275.47	-25420.15	1	27808.64	-66.07963	1.771007E-009	0.006685	6
	44	62	39.72458	13588.29	-30575.23	1	33458.73	-66.03861	7.152084E-010	0.0066912	6
	45	63	31.6723	16333.64	-36511.54	1	39998.5	-65.89837	2.147895E-009	0.0066836	6
	46	65	24.93351	20182.64	-43695.84	1	48131.75	-65.2083	1.269697E-010	0.0066824	6
	47	66	19.86229	24670.21	-51501.74	1	57105.59	-64.40479	1.200165E-010	0.0066943	6
	48	67	15.83615	29819.21	-60494.5	1	67444.57	-63.76019	-1.122721E-009	0.0066919	6
	49	69	12.40079	37217.09	-71099.23	1	80250.94	-62.37006	1.782857E-010	0.0066829	6
	50	70	9.93114	44998.79	-82202.94	1	93713.47	-61.30322	8.936968E-010	0.0066828	6
	51	72	7.944915	54097.15	-94333.47	1	108744.2	-60.16714	1.275111E-010	0.0066991	5
	52	73	6.317385	64669.13	-108268.5	1	126111.8	-59.15	-5.132361E-010	0.0067088	5
	53	75	5.008013	76980.13	-123914.2	1	145879	-58.14991	1.068759E-010	0.0066911	5
	54	78	3.945707	90705.83	-141816.8	1	168343.5	-57.39707	3.667563E-010	0.0066857	5
	55	81	3.158693	104635.3	-160617.7	1	191694	-56.91756	4.287785E-011	0.0066943	5
	56	84	2.504006	119673.4	-183366	1	218963	-56.86961	2.41281E-010	0.0066809	5
	57	87	1.998082	134682.7	-209331.1	1	248915.5	-57.24296	-1.238339E-010	0.0067108	5
	58	90	1.584686	150809.6	-242326.6	1	285422	-58.10434	1.682234E-010	0.0067336	5
	59	93	1.266892	166825	-280373.1	1	326250.9	-59.2469	-1.570139E-010	0.006709	5
	60	98	0.999041	185995.4	-331160.9	1	379818.1	-60.67941	1.98437E-010	0.0066818	5
