EXPLAIN
TAG	EISPOT
TITLE	LABEL	Potentiostatic EIS	Test &Identifier
DATE	LABEL	10/8/2019	Date
TIME	LABEL	9:14:35	Time
NOTES	NOTES	2	&Notes...
	
	
PSTAT	PSTAT	REF600-11020	Potentiostat
VDC	POTEN	0.00000E+000	T	DC &Voltage (V)
FREQINIT	QUANT	1.00000E+006	Initial Fre&q. (Hz)
FREQFINAL	QUANT	1.00000E+000	Final Fre&q. (Hz)
PTSPERDEC	QUANT	1.00000E+001	Points/&decade
VAC	QUANT	2.50000E+001	AC &Voltage (mV rms)
AREA	QUANT	1.00000E-002	&Area (cm^2)
CONDIT	TWOPARAM	T	5.00000E+000	0.00000E+000	Conditionin&g	Time(s)	E(V)
DELAY	TWOPARAM	T	5.00000E+000	0.00000E+000	Init. De&lay	Time(s)	Stab.(mV/s)
SPEED	SELECTOR	1	&Optimize for:
ZGUESS	QUANT	1.00000E+004	E&stimated Z (ohms)
OCVCURVE	TABLE	19
	Pt	T	Vf	Vm	Ach	Over
	#	s	V vs. Ref.	V	V	bits
	0	0.258333	5.63506E-003	5.63506E-003	5.73832E-004	...........
	1	0.516667	5.63161E-003	5.45445E-003	5.77166E-004	...........
	2	0.775	5.61097E-003	5.31173E-003	5.73399E-004	...........
	3	1.03333	5.55492E-003	5.20305E-003	5.71532E-004	...........
	4	1.29167	5.46072E-003	5.11057E-003	5.72899E-004	...........
	5	1.55	5.34555E-003	5.00522E-003	5.64299E-004	...........
	6	1.80833	5.22868E-003	4.90499E-003	5.63766E-004	...........
	7	2.06667	5.11922E-003	4.85251E-003	5.71966E-004	...........
	8	2.325	5.02231E-003	4.90058E-003	5.75165E-004	...........
	9	2.58333	4.94510E-003	4.74483E-003	5.75899E-004	...........
	10	2.84167	4.88655E-003	4.71119E-003	5.77432E-004	...........
	11	3.1	4.83393E-003	4.67279E-003	5.70666E-004	...........
	12	3.35833	4.77939E-003	4.63532E-003	5.74165E-004	...........
	13	3.61667	4.72654E-003	4.59845E-003	5.79099E-004	...........
	14	3.875	4.67997E-003	4.57406E-003	5.70232E-004	...........
	15	4.13333	4.64027E-003	4.54842E-003	5.66532E-004	...........
	16	4.39167	4.60655E-003	4.52972E-003	5.71532E-004	...........
	17	4.65	4.57778E-003	4.50522E-003	5.75365E-004	...........
	18	4.90833	4.55279E-003	4.49106E-003	5.77432E-004	...........
EOC	QUANT	0.0045528	Open Circuit (V)
PSTATMODEL	IQUANT	4	Pstat Model
PSTATSECTION	LABEL	REF600-11020	Pstat Section
PSTATSERIALNO	LABEL	11020	Pstat Serial Number
CTRLMODE	IQUANT	1	Control Mode
IESTAB	IQUANT	0	I/E Stability
CASPEED	IQUANT	1	Control Amp Speed
CONVENTION	IQUANT	1	Current Convention
ICHRANGE	IQUANT	2	Ich Range
ICHRANGEMODE	TOGGLE	F	Ich Auto Range
ICHOFFSETENABLE	TOGGLE	T	Ich Offset Enable
ICHOFFSET	QUANT	0	Ich Offset (V)
ICHFILTER	IQUANT	3	Ich Filter
VCHRANGE	IQUANT	2	Vch Range
VCHRANGEMODE	TOGGLE	F	Vch Auto Range
VCHOFFSETENABLE	TOGGLE	T	Vch Offset Enable
VCHOFFSET	QUANT	0	Vch Offset (V)
VCHFILTER	IQUANT	3	Vch Filter
ACHRANGE	IQUANT	2	Ach Range
ACHOFFSETENABLE	TOGGLE	F	Ach Offset Enable
ACHOFFSET	QUANT	0	Ach Offset (V)
ACHFILTER	IQUANT	3	Ach Filter
IERANGELOWERLIMIT	IQUANT	1	I/E Range Lower Limit
IERANGEMODE	TOGGLE	F	I/E AutoRange
IERANGE	IQUANT	5	I/E Range
POSFEEDENABLE	TOGGLE	F	Positive Feedback IR Comp
POSFEEDRESISTANCE	QUANT	0	Positive Feedback Resistance (ohm)
ACHSELECT	IQUANT	0	Ach Select
CABLEID	IQUANT	14	Cable ID
DCCALDATE	LABEL	8/19/2019	DC Calibration Date
ACCALDATE	LABEL	8/19/2019	AC Calibration Date
THERMOSELECT	IQUANT	1	Thermo Select
FRAMEWORKVERSION	QUANT	6.33	Framework Version
INSTRUMENTVERSION	LABEL	3.50	Instrument Version
ZCURVE	TABLE
	Pt	Time	Freq	Zreal	Zimag	Zsig	Zmod	Zphz	Idc	Vdc	IERange
	#	s	Hz	ohm	ohm	V	ohm	°	A	V	#
	0	1	1000078	2498.66	-1781.094	1	3068.485	-35.48203	3.802098E-006	0.0064282	8
	1	3	794390.6	2852.528	-1714.883	1	3328.324	-31.01344	3.725841E-006	0.0055103	8
	2	4	630984.4	3176.572	-1613.929	1	3563.057	-26.93388	3.748548E-006	0.0054336	8
	3	5	501234.4	3457.106	-1473.561	1	3758.053	-23.0857	1.029284E-006	0.005682	8
	4	7	398109.4	3700.36	-1291.417	1	3919.238	-19.23886	-1.172221E-006	0.0063636	8
	5	8	316265.6	3866.944	-1136.816	1	4030.583	-16.38244	-2.783058E-006	0.0066669	8
	6	9	251203.1	4007.999	-988.464	1	4128.089	-13.85398	3.966265E-006	0.0053564	8
	7	11	199546.9	4095.565	-830.7331	1	4178.968	-11.46616	-5.30054E-007	0.0061011	8
	8	12	158578.1	4183.922	-732.8514	1	4247.62	-9.93508	-4.066054E-007	0.006098	8
	9	13	125953.1	4267.539	-611.0549	1	4311.064	-8.148607	-1.475593E-007	0.0065373	7
	10	15	100078.1	4294.028	-526.5441	1	4326.19	-6.990848	-3.984685E-008	0.0060625	7
	11	16	79453.13	4334.402	-483.2262	1	4361.255	-6.361423	-3.735682E-009	0.0060537	7
	12	17	63140.62	4371.132	-453.1397	1	4394.557	-5.918509	7.704954E-009	0.005975	7
	13	19	50203.12	4404.557	-435.4918	1	4426.034	-5.646654	7.015793E-009	0.0059755	7
	14	20	39890.62	4437.308	-430.9709	1	4458.188	-5.54742	4.622112E-008	0.0058955	7
	15	21	31640.63	4470.314	-436.8993	1	4491.613	-5.581988	9.221178E-008	0.0059825	7
	16	23	25171.88	4503.784	-456.6078	1	4526.871	-5.789046	6.727399E-008	0.005926	7
	17	24	20015.62	4535.803	-478.5966	1	4560.983	-6.023293	-1.957066E-008	0.0060087	7
	18	25	15890.62	4575.01	-532.5829	1	4605.905	-6.639989	4.187681E-008	0.0059871	7
	19	27	12609.37	4614.771	-595.2464	1	4653.002	-7.34984	-3.907175E-008	0.0060476	7
	20	28	10078.13	4658.186	-671.0821	1	4706.277	-8.197919	-5.910417E-008	0.0062076	7
	21	29	8015.625	4708.277	-766.1297	1	4770.202	-9.242153	6.938055E-008	0.0059198	7
	22	31	6328.125	4757.536	-894.7151	1	4840.937	-10.6508	4.203462E-008	0.0059844	7
	23	32	5015.625	4814.873	-1048.177	1	4927.644	-12.28142	-8.010077E-008	0.006163	7
	24	33	3984.375	4868.143	-1236.746	1	5022.784	-14.25437	-2.105835E-008	0.0060892	7
	25	35	3170.956	4955.128	-1465.555	1	5167.315	-16.47639	1.394323E-007	0.005825	7
	26	36	2527.573	5035.6	-1742.912	1	5328.697	-19.09166	8.351059E-008	0.0058609	7
	27	37	1976.103	5141.235	-2114.133	1	5558.944	-22.35301	-4.12638E-009	0.0060682	7
	28	39	1577.524	5251.538	-2531.356	1	5829.787	-25.73509	8.405754E-008	0.0058592	7
	29	40	1265.625	5382.525	-3026.595	1	6175.1	-29.34906	4.801824E-008	0.0058871	7
	30	41	998.264	5543.858	-3681.867	1	6655.111	-33.5895	-1.068593E-008	0.0061691	7
	31	43	796.875	5732.063	-4442.868	1	7252.284	-37.77892	-5.800324E-008	0.0062003	7
	32	44	627.7902	5969.75	-5415.739	1	8060.282	-42.21422	-1.041124E-008	0.0059836	7
	33	45	505.5147	6221.676	-6510.365	1	9005.227	-46.29891	-5.849347E-008	0.0061961	7
	34	47	397.9953	6571.195	-7965.432	1	10326.12	-50.4786	6.734124E-010	0.0059807	6
	35	48	315.5048	6974.905	-9705.58	1	11951.89	-54.29713	6.523556E-010	0.0059786	6
	36	49	252.4038	7445.625	-11745.6	1	13906.71	-57.62908	2.906015E-010	0.0059777	6
	37	51	198.6229	8067.179	-14429.25	1	16531.26	-60.79109	8.453503E-010	0.0059754	6
	38	52	158.3615	8789.484	-17541.4	1	19620.29	-63.38588	5.29204E-010	0.0059745	6
	39	54	125.558	9728.55	-21443.17	1	23546.85	-65.59667	1.096074E-009	0.0059743	6
	40	55	100.4464	10881.39	-26000.88	1	28185.99	-67.29064	6.684688E-010	0.0059726	6
	41	56	79.00281	12447.45	-32016.97	1	34351.5	-68.75507	1.281227E-009	0.005973	6
	42	58	63.3446	14485.53	-38556.28	1	41187.59	-69.40888	4.035666E-010	0.005973	6
	43	59	49.86702	17181.64	-47888.42	1	50877.4	-70.26278	4.930333E-011	0.0059707	6
	44	61	39.72458	20661.31	-57813.32	1	61394.38	-70.33414	8.347564E-010	0.0059812	6
	45	62	31.6723	25499.91	-69738.63	1	74254.44	-69.91508	6.581553E-010	0.0059751	6
	46	63	24.93351	32026.07	-84878.87	1	90719.85	-69.32776	5.560964E-010	0.0059754	6
	47	65	19.86229	40192.28	-101399.9	1	109075	-68.37791	1.036898E-009	0.0059886	5
	48	66	15.83615	50687.84	-121150.3	1	131326.5	-67.29614	1.503785E-009	0.0059783	5
	49	67	12.40079	65679.87	-143160.3	1	157507.9	-65.35503	-1.075399E-010	0.0059846	5
	50	69	9.93114	82471.23	-166442.8	1	185754.5	-63.64192	-2.012682E-010	0.0059819	5
	51	70	7.944915	102595.9	-191516.7	1	217266.1	-61.82196	2.506973E-010	0.0059749	5
	52	72	6.317385	126248	-219113.2	1	252881.7	-60.05043	4.650448E-010	0.0059731	5
	53	74	5.008013	153811.8	-249310.6	1	292940	-58.32755	4.470621E-010	0.0059797	5
	54	77	3.945707	185049.5	-283145	1	338252	-56.83336	6.792589E-011	0.0059715	5
	55	79	3.158693	216533.8	-317628.7	1	384414.9	-55.71697	2.16954E-010	0.0059836	5
	56	83	2.504006	251535.8	-358852.4	1	438229.8	-54.97166	1.202538E-010	0.0059641	5
	57	85	1.998082	287646.3	-404154.6	1	496065.8	-54.55966	-1.154261E-010	0.0059965	5
	58	88	1.584686	328148.2	-460397.6	1	565373.5	-54.52065	1.977604E-010	0.0060121	5
	59	92	1.266892	369128.2	-523168.3	1	640281.8	-54.79462	-5.576736E-011	0.0060007	5
	60	96	0.999041	416990.5	-604041.8	1	733994.3	-55.38136	2.119419E-010	0.0059564	5
