EXPLAIN
TAG	EISPOT
TITLE	LABEL	Potentiostatic EIS	Test &Identifier
DATE	LABEL	10/8/2019	Date
TIME	LABEL	9:10:14	Time
NOTES	NOTES	2	&Notes...
	
	
PSTAT	PSTAT	REF600-11020	Potentiostat
VDC	POTEN	0.00000E+000	T	DC &Voltage (V)
FREQINIT	QUANT	1.00000E+006	Initial Fre&q. (Hz)
FREQFINAL	QUANT	1.00000E+000	Final Fre&q. (Hz)
PTSPERDEC	QUANT	1.00000E+001	Points/&decade
VAC	QUANT	2.50000E+001	AC &Voltage (mV rms)
AREA	QUANT	1.00000E-002	&Area (cm^2)
CONDIT	TWOPARAM	T	5.00000E+000	0.00000E+000	Conditionin&g	Time(s)	E(V)
DELAY	TWOPARAM	T	5.00000E+000	0.00000E+000	Init. De&lay	Time(s)	Stab.(mV/s)
SPEED	SELECTOR	1	&Optimize for:
ZGUESS	QUANT	1.00000E+004	E&stimated Z (ohms)
OCVCURVE	TABLE	19
	Pt	T	Vf	Vm	Ach	Over
	#	s	V vs. Ref.	V	V	bits
	0	0.258333	5.29277E-003	5.29277E-003	5.65132E-004	...........
	1	0.516667	5.28933E-003	5.11249E-003	5.64466E-004	...........
	2	0.775	5.26902E-003	4.98575E-003	5.63932E-004	...........
	3	1.03333	5.21420E-003	4.85422E-003	5.62366E-004	...........
	4	1.29167	5.12099E-003	4.74296E-003	5.66632E-004	...........
	5	1.55	5.00455E-003	4.69625E-003	5.67066E-004	...........
	6	1.80833	4.88739E-003	4.63666E-003	5.67566E-004	...........
	7	2.06667	4.78648E-003	4.58183E-003	5.66266E-004	...........
	8	2.325	4.70752E-003	4.58858E-003	5.65099E-004	...........
	9	2.58333	4.64766E-003	4.47237E-003	5.65066E-004	...........
	10	2.84167	4.59835E-003	4.43237E-003	5.67032E-004	...........
	11	3.1	4.54933E-003	4.39836E-003	5.57866E-004	...........
	12	3.35833	4.49759E-003	4.36145E-003	5.61632E-004	...........
	13	3.61667	4.44806E-003	4.33904E-003	5.61099E-004	...........
	14	3.875	4.40561E-003	4.32381E-003	5.63232E-004	...........
	15	4.13333	4.37260E-003	4.35222E-003	5.68166E-004	...........
	16	4.39167	4.35269E-003	4.42296E-003	5.67766E-004	...........
	17	4.65	4.34989E-003	4.35691E-003	5.64466E-004	...........
	18	4.90833	4.35801E-003	4.27457E-003	5.61132E-004	...........
EOC	QUANT	0.004358	Open Circuit (V)
PSTATMODEL	IQUANT	4	Pstat Model
PSTATSECTION	LABEL	REF600-11020	Pstat Section
PSTATSERIALNO	LABEL	11020	Pstat Serial Number
CTRLMODE	IQUANT	1	Control Mode
IESTAB	IQUANT	0	I/E Stability
CASPEED	IQUANT	1	Control Amp Speed
CONVENTION	IQUANT	1	Current Convention
ICHRANGE	IQUANT	2	Ich Range
ICHRANGEMODE	TOGGLE	F	Ich Auto Range
ICHOFFSETENABLE	TOGGLE	T	Ich Offset Enable
ICHOFFSET	QUANT	0	Ich Offset (V)
ICHFILTER	IQUANT	3	Ich Filter
VCHRANGE	IQUANT	2	Vch Range
VCHRANGEMODE	TOGGLE	F	Vch Auto Range
VCHOFFSETENABLE	TOGGLE	T	Vch Offset Enable
VCHOFFSET	QUANT	0	Vch Offset (V)
VCHFILTER	IQUANT	3	Vch Filter
ACHRANGE	IQUANT	2	Ach Range
ACHOFFSETENABLE	TOGGLE	F	Ach Offset Enable
ACHOFFSET	QUANT	0	Ach Offset (V)
ACHFILTER	IQUANT	3	Ach Filter
IERANGELOWERLIMIT	IQUANT	1	I/E Range Lower Limit
IERANGEMODE	TOGGLE	F	I/E AutoRange
IERANGE	IQUANT	5	I/E Range
POSFEEDENABLE	TOGGLE	F	Positive Feedback IR Comp
POSFEEDRESISTANCE	QUANT	0	Positive Feedback Resistance (ohm)
ACHSELECT	IQUANT	0	Ach Select
CABLEID	IQUANT	14	Cable ID
DCCALDATE	LABEL	8/19/2019	DC Calibration Date
ACCALDATE	LABEL	8/19/2019	AC Calibration Date
THERMOSELECT	IQUANT	1	Thermo Select
FRAMEWORKVERSION	QUANT	6.33	Framework Version
INSTRUMENTVERSION	LABEL	3.50	Instrument Version
ZCURVE	TABLE
	Pt	Time	Freq	Zreal	Zimag	Zsig	Zmod	Zphz	Idc	Vdc	IERange
	#	s	Hz	ohm	ohm	V	ohm	°	A	V	#
	0	1	1000078	2502.809	-1524.76	1	2930.691	-31.35059	-4.028342E-006	0.0070709	8
	1	3	794390.6	2781.659	-1394.247	1	3111.519	-26.62133	1.337372E-006	0.0062552	8
	2	4	630984.4	3028.023	-1257.298	1	3278.677	-22.54924	1.451967E-006	0.0054315	8
	3	6	501234.4	3231.482	-1107.069	1	3415.857	-18.91088	1.157188E-006	0.0057857	8
	4	7	398109.4	3366.58	-952.561	1	3498.748	-15.79865	9.364582E-007	0.0056422	8
	5	8	316265.6	3466.373	-821.1293	1	3562.302	-13.32682	-4.500108E-007	0.0058491	8
	6	10	251203.1	3561.032	-701.6251	1	3629.494	-11.14614	-1.155282E-007	0.0059326	8
	7	11	199546.9	3602.504	-586.0298	1	3649.858	-9.239537	2.967945E-006	0.0052337	8
	8	12	158578.1	3675.467	-531.7651	1	3713.735	-8.232409	3.73393E-006	0.005112	8
	9	14	125953.1	3723.022	-421.4053	1	3746.795	-6.45777	-5.200011E-007	0.0069656	7
	10	15	100078.1	3745.967	-374.5005	1	3764.641	-5.709135	-4.145802E-008	0.0058779	7
	11	16	79453.13	3773.171	-348.5648	1	3789.237	-5.277992	-2.52611E-009	0.0057977	7
	12	18	63140.62	3801.401	-331.9964	1	3815.871	-4.991279	3.625569E-008	0.0057499	7
	13	19	50203.12	3827.477	-323.6531	1	3841.137	-4.833457	-1.117107E-008	0.0057597	7
	14	20	39890.62	3853.412	-321.5559	1	3866.805	-4.770113	-2.128809E-008	0.005846	7
	15	22	31640.63	3880.28	-329.6409	1	3894.257	-4.855782	-3.521028E-008	0.0058039	7
	16	23	25171.88	3906.588	-345.219	1	3921.811	-5.05002	4.50616E-008	0.0056443	7
	17	24	20015.62	3935.734	-365.744	1	3952.691	-5.309195	-1.800324E-008	0.0059308	7
	18	26	15890.62	3960.966	-405.6257	1	3981.681	-5.847035	-1.922216E-008	0.0058371	7
	19	27	12609.37	3991.135	-450.1201	1	4016.437	-6.434626	-3.907172E-008	0.0058674	7
	20	28	10078.13	4020.996	-509.4089	1	4053.135	-7.220181	-1.917059E-008	0.0058406	7
	21	30	8015.625	4056.881	-583.0545	1	4098.565	-8.178539	7.053297E-009	0.005726	7
	22	31	6328.125	4088.429	-683.4988	1	4145.168	-9.490871	-5.782428E-008	0.0059581	7
	23	32	5015.625	4127.703	-805.9836	1	4205.656	-11.04867	8.036172E-008	0.0056239	7
	24	34	3984.375	4169.791	-961.205	1	4279.144	-12.98085	-6.154755E-009	0.005824	7
	25	35	3170.956	4221.19	-1143.751	1	4373.398	-15.16054	8.66251E-008	0.0057349	7
	26	36	2527.573	4280.202	-1370.727	1	4494.332	-17.75757	-1.707032E-008	0.0058321	7
	27	38	1976.103	4353.916	-1675.64	1	4665.228	-21.04963	1.371898E-007	0.005575	7
	28	39	1577.524	4441.471	-2021.614	1	4879.917	-24.47349	8.708763E-008	0.0057247	7
	29	40	1265.625	4535.43	-2425.87	1	5143.439	-28.14104	-3.909521E-008	0.0058027	7
	30	42	998.264	4662.197	-2964.049	1	5524.642	-32.44666	-4.716868E-008	0.0058088	7
	31	43	796.875	4803.024	-3580.64	1	5990.828	-36.70442	-3.165199E-008	0.0057974	7
	32	44	627.7902	4980.753	-4381.664	1	6633.768	-41.33871	8.796293E-008	0.0057273	7
	33	46	505.5147	5174.841	-5268.874	1	7385.121	-45.51587	4.045875E-008	0.0057368	7
	34	47	397.9953	5424.823	-6462.461	1	8437.542	-49.98869	5.696628E-009	0.0057947	7
	35	48	315.5048	5714.584	-7896.203	1	9747.13	-54.10625	4.584932E-009	0.0057961	7
	36	50	252.4038	6052.712	-9586.99	1	11337.8	-57.73389	5.585493E-010	0.0057294	6
	37	51	198.6229	6495.336	-11826.94	1	13493.18	-61.22448	1.067843E-009	0.0057401	6
	38	52	158.3615	7020.971	-14441.84	1	16058.04	-64.07307	5.725264E-010	0.0057364	6
	39	54	125.558	7707.193	-17731.49	1	19334.07	-66.50727	1.085673E-009	0.0057367	6
	40	55	100.4464	8547.886	-21588.02	1	23218.72	-68.39866	1.09221E-009	0.0057353	6
	41	56	79.00281	9776.58	-26684.48	1	28419.06	-69.87833	1.163511E-009	0.0057312	6
	42	58	63.3446	11003.26	-32357.79	1	34177.45	-71.2194	6.026537E-010	0.0057321	6
	43	59	49.86702	13359.92	-39840.07	1	42020.45	-71.4617	7.978398E-010	0.0057335	6
	44	61	39.72458	15780.41	-48604.96	1	51102.48	-72.01311	7.65215E-010	0.0057362	6
	45	62	31.6723	19114.29	-58991.35	1	62010.77	-72.04671	-5.774133E-011	0.005732	6
	46	63	24.93351	23688.61	-71907.75	1	75709.15	-71.76654	1.302617E-010	0.005734	6
	47	65	19.86229	29351.49	-86584.66	1	91424.36	-71.27377	1.142352E-009	0.0057425	6
	48	66	15.83615	36957.92	-104317.9	1	110671.2	-70.4917	1.853021E-009	0.0057359	5
	49	67	12.40079	46499.26	-125650.4	1	133978.4	-69.69208	8.751806E-010	0.005736	5
	50	69	9.93114	57709.93	-149215.3	1	159986.4	-68.85571	6.098053E-010	0.0057403	5
	51	70	7.944915	72362.22	-176271.1	1	190546.1	-67.68104	8.673146E-010	0.0057438	5
	52	72	6.317385	90280.73	-207912.9	1	226668	-66.52837	6.244485E-010	0.0057376	5
	53	74	5.008013	112986.9	-244833.8	1	269647.3	-65.22743	2.726834E-010	0.005744	5
	54	76	3.945707	141484.8	-287669.1	1	320579.8	-63.81057	-1.092158E-011	0.0057365	5
	55	79	3.158693	173343	-331900.8	1	374440.8	-62.42313	3.448478E-011	0.0057205	5
	56	82	2.504006	211749.1	-383374.9	1	437965.8	-61.08685	3.534134E-010	0.0057327	5
	57	85	1.998082	254972.8	-439181.2	1	507829.9	-59.86209	3.640983E-010	0.0057463	5
	58	88	1.584686	306000.1	-500974.2	1	587035.9	-58.58299	1.68296E-010	0.0056986	5
	59	92	1.266892	360634.4	-570375.9	1	674822.8	-57.69586	2.244697E-010	0.0057557	5
	60	96	0.999041	426035.3	-651838.8	1	778716.8	-56.83178	-1.134055E-010	0.0056921	5
