EXPLAIN
TAG	EISPOT
TITLE	LABEL	Potentiostatic EIS	Test &Identifier
DATE	LABEL	8/14/2018	Date
TIME	LABEL	5:50:18	Time
NOTES	NOTES	1	&Notes...
	
PSTAT	PSTAT	REF600-11020	Potentiostat
VDC	POTEN	0.00000E+000	T	DC &Voltage (V)
FREQINIT	QUANT	1.00000E+006	Initial Fre&q. (Hz)
FREQFINAL	QUANT	1.00000E+000	Final Fre&q. (Hz)
PTSPERDEC	QUANT	1.00000E+001	Points/&decade
VAC	QUANT	2.50000E+001	AC &Voltage (mV rms)
AREA	QUANT	1.00000E-002	&Area (cm^2)
CONDIT	TWOPARAM	T	5.00000E+000	0.00000E+000	Conditionin&g	Time(s)	E(V)
DELAY	TWOPARAM	T	5.00000E+000	0.00000E+000	Init. De&lay	Time(s)	Stab.(mV/s)
SPEED	SELECTOR	0	&Optimize for:
ZGUESS	QUANT	1.00000E+005	E&stimated Z (ohms)
OCVCURVE	TABLE	19
	Pt	T	Vf	Vm	Ach	Over
	#	s	V vs. Ref.	V	V	bits
	0	0.258333	2.73539E-002	2.73539E-002	5.47033E-004	...........
	1	0.516667	2.73880E-002	2.91429E-002	5.43866E-004	...........
	2	0.775	2.75978E-002	3.08332E-002	5.44066E-004	...........
	3	1.03333	2.81905E-002	3.24369E-002	5.43233E-004	...........
	4	1.29167	2.92486E-002	3.39715E-002	5.45266E-004	...........
	5	1.55	3.06514E-002	3.54049E-002	5.43599E-004	...........
	6	1.80833	3.21997E-002	3.67779E-002	5.47433E-004	...........
	7	2.06667	3.37461E-002	3.80888E-002	5.40799E-004	...........
	8	2.325	3.52244E-002	3.93446E-002	5.42099E-004	...........
	9	2.58333	3.66219E-002	4.05507E-002	5.41599E-004	...........
	10	2.84167	3.79471E-002	4.17042E-002	5.43999E-004	...........
	11	3.1	3.92109E-002	4.28164E-002	5.45233E-004	...........
	12	3.35833	4.04211E-002	4.38850E-002	5.45266E-004	...........
	13	3.61667	4.15825E-002	4.49122E-002	5.41099E-004	...........
	14	3.875	4.26986E-002	4.59076E-002	5.41966E-004	...........
	15	4.13333	4.37725E-002	4.68691E-002	5.45066E-004	...........
	16	4.39167	4.48074E-002	4.78037E-002	5.47699E-004	...........
	17	4.65	4.58065E-002	4.87018E-002	5.52432E-004	...........
	18	4.90833	4.67724E-002	4.95702E-002	5.47499E-004	...........
EOC	QUANT	0.0467724	Open Circuit (V)
PSTATMODEL	IQUANT	4	Pstat Model
PSTATSECTION	LABEL	REF600-11020	Pstat Section
PSTATSERIALNO	LABEL	11020	Pstat Serial Number
CTRLMODE	IQUANT	1	Control Mode
IESTAB	IQUANT	0	I/E Stability
CASPEED	IQUANT	1	Control Amp Speed
CONVENTION	IQUANT	1	Current Convention
ICHRANGE	IQUANT	2	Ich Range
ICHRANGEMODE	TOGGLE	F	Ich Auto Range
ICHOFFSETENABLE	TOGGLE	T	Ich Offset Enable
ICHOFFSET	QUANT	0	Ich Offset (V)
ICHFILTER	IQUANT	3	Ich Filter
VCHRANGE	IQUANT	2	Vch Range
VCHRANGEMODE	TOGGLE	F	Vch Auto Range
VCHOFFSETENABLE	TOGGLE	T	Vch Offset Enable
VCHOFFSET	QUANT	0	Vch Offset (V)
VCHFILTER	IQUANT	3	Vch Filter
ACHRANGE	IQUANT	2	Ach Range
ACHOFFSETENABLE	TOGGLE	F	Ach Offset Enable
ACHOFFSET	QUANT	0	Ach Offset (V)
ACHFILTER	IQUANT	3	Ach Filter
IERANGELOWERLIMIT	IQUANT	1	I/E Range Lower Limit
IERANGEMODE	TOGGLE	F	I/E AutoRange
IERANGE	IQUANT	5	I/E Range
POSFEEDENABLE	TOGGLE	F	Positive Feedback IR Comp
POSFEEDRESISTANCE	QUANT	0	Positive Feedback Resistance (ohm)
ACHSELECT	IQUANT	0	Ach Select
CABLEID	IQUANT	14	Cable ID
DCCALDATE	LABEL	8/19/2019	DC Calibration Date
ACCALDATE	LABEL	8/19/2019	AC Calibration Date
THERMOSELECT	IQUANT	1	Thermo Select
FRAMEWORKVERSION	QUANT	6.33	Framework Version
INSTRUMENTVERSION	LABEL	3.50	Instrument Version
ZCURVE	TABLE
	Pt	Time	Freq	Zreal	Zimag	Zsig	Zmod	Zphz	Idc	Vdc	IERange
	#	s	Hz	ohm	ohm	V	ohm	°	A	V	#
	0	1	1000078	2506.478	-2068.045	1	3249.499	-39.52536	4.457871E-006	0.0477956	8
	1	2	794390.6	2915.684	-2104.846	1	3596.052	-35.8257	-4.914291E-006	0.0492506	8
	2	2	630984.4	3342.171	-2060.596	1	3926.342	-31.65566	3.691694E-006	0.0479368	8
	3	2	501234.4	3741.815	-1951.774	1	4220.261	-27.54707	-3.340583E-006	0.0489208	8
	4	3	398109.4	4096.474	-1817.375	1	4481.512	-23.92417	2.364268E-006	0.0478367	8
	5	3	316265.6	4381.811	-1617.679	1	4670.884	-20.26316	7.253356E-007	0.0482918	8
	6	3	251203.1	4641.915	-1435.62	1	4858.845	-17.18543	-2.068432E-006	0.0487204	8
	7	4	199546.9	4820.823	-1271.578	1	4985.705	-14.77625	3.844524E-006	0.0476614	8
	8	4	158578.1	5049.035	-1012.377	1	5149.53	-11.33797	4.0623E-006	0.047382	8
	9	4	125953.1	5129.618	-870.7963	1	5203.006	-9.6346	8.68608E-007	0.0460176	7
	10	5	100078.1	5197.33	-754.3605	1	5251.79	-8.25846	-2.241635E-008	0.0482424	7
	11	5	79453.13	5263.124	-668.6314	1	5305.426	-7.240117	-4.379582E-008	0.0482827	7
	12	5	63140.62	5319.033	-599.9234	1	5352.758	-6.435085	-8.857067E-008	0.0483934	7
	13	5	50203.12	5370.844	-551.661	1	5399.101	-5.864514	1.203141E-007	0.0480983	7
	14	6	39890.62	5412.089	-517.0471	1	5436.731	-5.457224	-8.726268E-008	0.0483858	7
	15	6	31640.63	5454.171	-499.1465	1	5476.963	-5.228942	-6.294687E-008	0.0484067	7
	16	6	25171.88	5492.764	-492.8119	1	5514.828	-5.126862	-6.595977E-008	0.0483737	7
	17	7	20015.62	5539.678	-503.423	1	5562.506	-5.19254	-2.111305E-008	0.048227	7
	18	7	15890.62	5574.603	-529.6095	1	5599.704	-5.427039	2.487915E-008	0.0483429	7
	19	7	12609.37	5614.482	-575.9988	1	5643.951	-5.857574	1.1183E-007	0.0481596	7
	20	8	10078.13	5654.144	-632.9583	1	5689.462	-6.387434	1.234316E-007	0.0480847	7
	21	8	8015.625	5699.277	-700.9353	1	5742.218	-7.011409	6.080437E-008	0.0481667	7
	22	8	6328.125	5745.529	-810.6942	1	5802.442	-8.031415	-4.273474E-008	0.0482731	7
	23	9	5015.625	5795.804	-939.8911	1	5871.519	-9.211325	-1.638428E-008	0.0482185	7
	24	9	3984.375	5848.458	-1103.537	1	5951.659	-10.68543	4.267846E-008	0.0481145	7
	25	9	3170.956	5914.636	-1303.959	1	6056.668	-12.43273	-1.264315E-008	0.0482684	7
	26	10	2527.573	5989.877	-1552.821	1	6187.882	-14.53346	2.182093E-008	0.0481506	7
	27	10	1976.103	6080.642	-1888.294	1	6367.092	-17.25175	-8.576189E-009	0.0482346	7
	28	11	1577.524	6112.979	-2327.932	1	6541.237	-20.84773	4.952906E-008	0.0481875	7
	29	11	1265.625	6281.037	-2711.936	1	6841.493	-23.35303	-6.587777E-008	0.0483434	7
	30	11	998.264	6412.18	-3307.888	1	7215.135	-27.28811	-6.095528E-008	0.0482885	7
	31	12	796.875	6572.61	-3993.672	1	7690.814	-31.28385	3.943956E-008	0.0481087	7
	32	12	627.7902	6765.75	-4892.769	1	8349.524	-35.87322	-8.471459E-008	0.0485124	7
	33	12	505.5147	6980.664	-5884.136	1	9129.771	-40.12819	1.692339E-008	0.0481525	7
	34	13	397.9953	7272.313	-7229.033	1	10254.04	-44.829	-8.356245E-010	0.0482169	6
	35	13	315.5048	7610.913	-8844.467	1	11668.36	-49.28708	-1.489326E-009	0.0482166	6
	36	13	252.4038	8017.512	-10752.32	1	13412.42	-53.28981	-1.677832E-009	0.0482116	6
	37	14	198.6229	8566.083	-13267.69	1	15792.7	-57.15231	-1.553395E-009	0.0482117	6
	38	14	158.3615	9235.144	-16195.86	1	18643.87	-60.30751	-2.145021E-009	0.0482108	6
	39	14	125.558	10134.3	-19870.97	1	22306.04	-62.97819	-7.189112E-010	0.0482122	6
	40	14	100.4464	11289.92	-24135.75	1	26645.76	-64.93133	-2.19439E-009	0.0482139	6
	41	15	79.00281	12976.39	-29787.7	1	32491.44	-66.46066	-2.290578E-009	0.048206	6
	42	15	63.3446	14381.07	-36021.12	1	38785.77	-68.23615	-8.259628E-010	0.0482107	6
	43	16	49.86702	17376.28	-44029.26	1	47334.03	-68.46318	-1.229765E-009	0.0482058	6
	44	16	39.72458	21271.51	-53116.74	1	57217.7	-68.17552	-2.294355E-009	0.0482105	6
	45	16	31.6723	26076.17	-63677.69	1	68809.99	-67.73078	-2.123403E-009	0.0482082	6
	46	17	24.93351	32034.85	-76390.84	1	82835.94	-67.24903	-1.110333E-009	0.0482113	6
	47	17	19.86229	39129.86	-90572.88	1	98664	-66.63438	-8.745842E-010	0.0482135	6
	48	17	15.83615	48162.48	-108273.8	1	118502.5	-66.01949	-3.193811E-009	0.0482131	5
	49	17	12.40079	60191.04	-127561.9	1	141049.7	-64.73936	-1.563321E-009	0.0482184	5
	50	18	9.93114	72081.33	-147347.2	1	164033.2	-63.9324	-1.300852E-009	0.0482179	5
	51	18	7.944915	86986.59	-170736.9	1	191618.8	-63.00219	-8.546406E-010	0.0482076	5
	52	19	6.317385	104141.7	-198926.2	1	224537.6	-62.36708	-8.845589E-010	0.0481988	5
	53	20	5.008013	125081.9	-231776.2	1	263373.7	-61.64575	-1.141376E-009	0.0482134	5
	54	21	3.945707	149088.8	-270531.4	1	308892.7	-61.14101	-1.198504E-009	0.048218	5
	55	22	3.158693	176261.1	-312306.7	1	358613.2	-60.56028	-1.480654E-009	0.0482039	5
	56	24	2.504006	208647.9	-361945	1	417777.6	-60.03814	-1.219022E-009	0.048204	5
	57	25	1.998082	244331.2	-417941.4	1	484120.6	-59.68917	-1.114337E-009	0.0482366	5
	58	27	1.584686	287407	-483000.1	1	562042.6	-59.24544	-1.205835E-009	0.0481902	5
	59	29	1.266892	336299.9	-557548.9	1	651120.9	-58.90264	-1.180173E-009	0.0481681	5
	60	31	0.999041	394700.4	-649432.1	1	759967.4	-58.71034	-1.146777E-009	0.0481673	5
