EXPLAIN
TAG	EISPOT
TITLE	LABEL	Potentiostatic EIS	Test &Identifier
DATE	LABEL	10/10/2019	Date
TIME	LABEL	9:25:22	Time
NOTES	NOTES	1	&Notes...
	
PSTAT	PSTAT	REF600-11020	Potentiostat
VDC	POTEN	0.00000E+000	T	DC &Voltage (V)
FREQINIT	QUANT	1.00000E+006	Initial Fre&q. (Hz)
FREQFINAL	QUANT	1.00000E+000	Final Fre&q. (Hz)
PTSPERDEC	QUANT	1.00000E+001	Points/&decade
VAC	QUANT	2.50000E+001	AC &Voltage (mV rms)
AREA	QUANT	1.00000E-002	&Area (cm^2)
CONDIT	TWOPARAM	T	5.00000E+000	0.00000E+000	Conditionin&g	Time(s)	E(V)
DELAY	TWOPARAM	T	5.00000E+000	0.00000E+000	Init. De&lay	Time(s)	Stab.(mV/s)
SPEED	SELECTOR	1	&Optimize for:
ZGUESS	QUANT	1.00000E+004	E&stimated Z (ohms)
OCVCURVE	TABLE	19
	Pt	T	Vf	Vm	Ach	Over
	#	s	V vs. Ref.	V	V	bits
	0	0.258333	4.29979E-003	4.29979E-003	5.74599E-004	...........
	1	0.516667	4.29785E-003	4.19803E-003	5.77366E-004	...........
	2	0.775	4.28530E-003	4.06986E-003	5.72332E-004	...........
	3	1.03333	4.24828E-003	3.97176E-003	5.73432E-004	...........
	4	1.29167	4.18039E-003	3.88605E-003	5.77932E-004	...........
	5	1.55	4.09054E-003	3.81507E-003	5.78632E-004	...........
	6	1.80833	3.99547E-003	3.77232E-003	5.71499E-004	...........
	7	2.06667	3.90835E-003	3.69839E-003	5.74899E-004	...........
	8	2.325	3.83387E-003	3.66399E-003	5.81932E-004	...........
	9	2.58333	3.77019E-003	3.60165E-003	5.77399E-004	...........
	10	2.84167	3.71380E-003	3.57024E-003	5.76299E-004	...........
	11	3.1	3.66254E-003	3.53177E-003	5.76532E-004	...........
	12	3.35833	3.61590E-003	3.49137E-003	5.75532E-004	...........
	13	3.61667	3.57349E-003	3.46054E-003	5.78232E-004	...........
	14	3.875	3.53441E-003	3.42842E-003	5.75999E-004	...........
	15	4.13333	3.49776E-003	3.38593E-003	5.79899E-004	...........
	16	4.39167	3.46237E-003	3.35088E-003	5.82965E-004	...........
	17	4.65	3.42707E-003	3.32714E-003	5.78366E-004	...........
	18	4.90833	3.39216E-003	3.29468E-003	5.83065E-004	...........
EOC	QUANT	0.0033922	Open Circuit (V)
PSTATMODEL	IQUANT	4	Pstat Model
PSTATSECTION	LABEL	REF600-11020	Pstat Section
PSTATSERIALNO	LABEL	11020	Pstat Serial Number
CTRLMODE	IQUANT	1	Control Mode
IESTAB	IQUANT	0	I/E Stability
CASPEED	IQUANT	1	Control Amp Speed
CONVENTION	IQUANT	1	Current Convention
ICHRANGE	IQUANT	2	Ich Range
ICHRANGEMODE	TOGGLE	F	Ich Auto Range
ICHOFFSETENABLE	TOGGLE	T	Ich Offset Enable
ICHOFFSET	QUANT	0	Ich Offset (V)
ICHFILTER	IQUANT	3	Ich Filter
VCHRANGE	IQUANT	2	Vch Range
VCHRANGEMODE	TOGGLE	F	Vch Auto Range
VCHOFFSETENABLE	TOGGLE	T	Vch Offset Enable
VCHOFFSET	QUANT	0	Vch Offset (V)
VCHFILTER	IQUANT	3	Vch Filter
ACHRANGE	IQUANT	2	Ach Range
ACHOFFSETENABLE	TOGGLE	F	Ach Offset Enable
ACHOFFSET	QUANT	0	Ach Offset (V)
ACHFILTER	IQUANT	3	Ach Filter
IERANGELOWERLIMIT	IQUANT	1	I/E Range Lower Limit
IERANGEMODE	TOGGLE	F	I/E AutoRange
IERANGE	IQUANT	5	I/E Range
POSFEEDENABLE	TOGGLE	F	Positive Feedback IR Comp
POSFEEDRESISTANCE	QUANT	0	Positive Feedback Resistance (ohm)
ACHSELECT	IQUANT	0	Ach Select
CABLEID	IQUANT	14	Cable ID
DCCALDATE	LABEL	8/19/2019	DC Calibration Date
ACCALDATE	LABEL	8/19/2019	AC Calibration Date
THERMOSELECT	IQUANT	1	Thermo Select
FRAMEWORKVERSION	QUANT	6.33	Framework Version
INSTRUMENTVERSION	LABEL	3.50	Instrument Version
ZCURVE	TABLE
	Pt	Time	Freq	Zreal	Zimag	Zsig	Zmod	Zphz	Idc	Vdc	IERange
	#	s	Hz	ohm	ohm	V	ohm	°	A	V	#
	0	2	1000078	2630.784	-1833.202	1	3206.501	-34.86984	6.396551E-006	0.0049367	8
	1	3	794390.6	2985.696	-1784.235	1	3478.2	-30.8623	-1.353249E-006	0.0056057	8
	2	5	630984.4	3318.475	-1694.674	1	3726.151	-27.05243	6.203236E-007	0.0053654	8
	3	6	501234.4	3635.056	-1579.053	1	3963.211	-23.47992	1.930826E-006	0.0047542	8
	4	7	398109.4	3863.86	-1413.485	1	4114.287	-20.09363	-3.038187E-006	0.0058842	8
	5	9	316265.6	4087.886	-1246.645	1	4273.75	-16.95965	3.934782E-006	0.004302	8
	6	10	251203.1	4228.634	-1074.938	1	4363.123	-14.26276	3.473253E-006	0.00432	8
	7	12	199546.9	4356.823	-946.7784	1	4458.508	-12.26029	4.568027E-007	0.0050989	8
	8	13	158578.1	4476.928	-812.9731	1	4550.144	-10.29229	1.087262E-006	0.0049031	8
	9	15	125953.1	4572.842	-642.6483	1	4617.779	-7.99972	-3.31068E-007	0.006585	7
	10	16	100078.1	4619.194	-570.3898	1	4654.278	-7.039394	9.942838E-008	0.0049922	7
	11	17	79453.13	4663.163	-509.4265	1	4690.907	-6.234545	2.315145E-009	0.0050161	7
	12	19	63140.62	4703.416	-460.2854	1	4725.884	-5.589279	-7.338578E-008	0.0051488	7
	13	20	50203.12	4739.997	-426.5124	1	4759.147	-5.141718	-5.745863E-008	0.0051205	7
	14	22	39890.62	4774.329	-404.8359	1	4791.462	-4.846762	-3.687457E-008	0.0050544	7
	15	23	31640.63	4801.887	-392.3851	1	4817.892	-4.671533	-4.18768E-008	0.0050621	7
	16	24	25171.88	4832.849	-393.007	1	4848.802	-4.64906	-4.04735E-008	0.0050567	7
	17	26	20015.62	4858.007	-391.4449	1	4873.752	-4.606783	-1.660415E-009	0.0051002	7
	18	27	15890.62	4893.704	-424.2363	1	4912.058	-4.954598	-6.55488E-008	0.005266	7
	19	28	12609.37	4927.436	-457.7705	1	4948.654	-5.307679	8.806747E-008	0.0048783	7
	20	30	10078.13	4956.935	-503.4344	1	4982.434	-5.799169	-2.892505E-008	0.0051038	7
	21	31	8015.625	4981.021	-565.5472	1	5013.024	-6.477647	-6.723652E-008	0.0051645	7
	22	32	6328.125	5026.913	-648.9689	1	5068.63	-7.356135	-5.215164E-008	0.0051187	7
	23	34	5015.625	5065.369	-753.003	1	5121.033	-8.455501	-1.122734E-008	0.0050706	7
	24	35	3984.375	5123.526	-884.2318	1	5199.268	-9.7918	1.267285E-008	0.0051561	7
	25	37	3170.956	5157.518	-1043.781	1	5262.078	-11.44102	5.059202E-008	0.0049883	7
	26	38	2527.573	5210.697	-1240.536	1	5356.332	-13.39139	-6.446583E-008	0.005162	7
	27	39	1976.103	5284.813	-1507.894	1	5495.725	-15.92482	-9.40521E-009	0.005064	7
	28	41	1577.524	5357.534	-1793.075	1	5649.627	-18.50451	-1.71508E-009	0.0050981	7
	29	42	1265.625	5437.45	-2159.234	1	5850.483	-21.65824	-4.355205E-008	0.0051552	7
	30	43	998.264	5541.421	-2629.646	1	6133.708	-25.38638	-4.242672E-008	0.0051617	7
	31	45	796.875	5652.424	-3176.615	1	6483.886	-29.33562	7.192726E-008	0.0049336	7
	32	46	627.7902	5788.025	-3895.465	1	6976.81	-33.9414	4.300297E-009	0.0050058	7
	33	48	505.5147	5941.887	-4693.245	1	7571.827	-38.30371	7.188694E-008	0.0049341	7
	34	49	397.9953	6140.796	-5782.54	1	8434.876	-43.27897	6.394302E-009	0.0050632	7
	35	50	315.5048	6371.763	-7093.02	1	9534.69	-48.06618	5.503661E-009	0.0050617	7
	36	52	252.4038	6646.707	-8644.952	1	10904.77	-52.44497	1.846403E-009	0.0050007	6
	37	53	198.6229	7014.965	-10704.48	1	12798.27	-56.76198	1.102E-009	0.0050025	6
	38	54	158.3615	7455.179	-13113.33	1	15084.4	-60.38094	7.441976E-010	0.0049943	6
	39	56	125.558	8032.913	-16139.68	1	18028.22	-63.53992	1.291782E-009	0.0050004	6
	40	57	100.4464	8756.787	-19689.27	1	21548.75	-66.02293	1.284648E-009	0.0050005	6
	41	59	79.00281	9809.5	-24445.29	1	26340.05	-68.13521	5.676119E-010	0.0049994	6
	42	60	63.3446	11010.93	-30011.53	1	31967.68	-69.85242	2.569844E-010	0.0049977	6
	43	61	49.86702	12487.99	-36711.52	1	38777.38	-71.21346	1.540032E-010	0.0049985	6
	44	63	39.72458	14864.92	-44903.4	1	47299.91	-71.68328	1.074824E-009	0.0050006	6
	45	64	31.6723	17870.91	-54470.91	1	57327.56	-71.83629	1.563447E-009	0.0050001	6
	46	66	24.93351	21859.8	-67115.27	1	70585.48	-71.9593	6.185943E-010	0.0049986	6
	47	67	19.86229	27042.58	-81192.95	1	85578.01	-71.57886	1.093439E-009	0.0049924	6
	48	68	15.83615	34315.34	-98371.4	1	104184.8	-70.76947	2.411811E-009	0.0050014	6
	49	70	12.40079	43923.35	-118981.3	1	126829.8	-69.73778	1.635055E-009	0.0050015	5
	50	71	9.93114	54967.1	-141961.3	1	152231.3	-68.8337	5.729552E-010	0.0050096	5
	51	73	7.944915	69011.81	-166963.5	1	180663.9	-67.543	1.235459E-009	0.0050085	5
	52	74	6.317385	88502.68	-197245.4	1	216190.8	-65.83455	1.743426E-010	0.0050241	5
	53	76	5.008013	112514	-230668.5	1	256646.3	-63.9981	3.892516E-010	0.0050097	5
	54	79	3.945707	142159.3	-268375.7	1	303701.8	-62.08971	2.090273E-010	0.0050052	5
	55	82	3.158693	174409.7	-305953.8	1	352173.9	-60.3146	3.341832E-010	0.0050238	5
	56	85	2.504006	213030.3	-348998.5	1	408878.8	-58.59991	-1.605064E-010	0.0050033	5
	57	88	1.998082	254796	-393621.2	1	468890.8	-57.08451	-1.397841E-010	0.004995	5
	58	91	1.584686	301776.1	-441947.1	1	535150.4	-55.67344	6.787162E-011	0.0050521	5
	59	94	1.266892	349622.2	-496826.8	1	607513.4	-54.86555	-8.898384E-011	0.0049837	5
	60	99	0.999041	404130.2	-561318.2	1	691664.2	-54.24738	3.078325E-010	0.0050404	5
