EXPLAIN
TAG	EISPOT
TITLE	LABEL	Potentiostatic EIS	Test &Identifier
DATE	LABEL	10/24/2019	Date
TIME	LABEL	10:30:06	Time
NOTES	NOTES	1	&Notes...
	
PSTAT	PSTAT	REF600-11020	Potentiostat
VDC	POTEN	0.00000E+000	T	DC &Voltage (V)
FREQINIT	QUANT	1.00000E+006	Initial Fre&q. (Hz)
FREQFINAL	QUANT	1.00000E+000	Final Fre&q. (Hz)
PTSPERDEC	QUANT	1.00000E+001	Points/&decade
VAC	QUANT	2.50000E+001	AC &Voltage (mV rms)
AREA	QUANT	1.00000E-002	&Area (cm^2)
CONDIT	TWOPARAM	T	5.00000E+000	0.00000E+000	Conditionin&g	Time(s)	E(V)
DELAY	TWOPARAM	T	5.00000E+000	0.00000E+000	Init. De&lay	Time(s)	Stab.(mV/s)
SPEED	SELECTOR	1	&Optimize for:
ZGUESS	QUANT	1.00000E+005	E&stimated Z (ohms)
OCVCURVE	TABLE	19
	Pt	T	Vf	Vm	Ach	Over
	#	s	V vs. Ref.	V	V	bits
	0	0.258333	5.27200E-003	5.27200E-003	5.43366E-004	...........
	1	0.516667	5.27096E-003	5.21745E-003	5.38699E-004	...........
	2	0.775	5.26495E-003	5.18617E-003	5.34566E-004	...........
	3	1.03333	5.24945E-003	5.16658E-003	5.41233E-004	...........
	4	1.29167	5.22525E-003	5.15611E-003	5.44799E-004	...........
	5	1.55	5.19925E-003	5.16901E-003	5.46633E-004	...........
	6	1.80833	5.18412E-003	5.42970E-003	5.43566E-004	...........
	7	2.06667	5.19352E-003	5.12498E-003	5.40999E-004	...........
	8	2.325	5.21768E-003	5.11258E-003	5.44699E-004	...........
	9	2.58333	5.22368E-003	5.17275E-003	5.45433E-004	...........
	10	2.84167	5.18810E-003	4.45004E-003	5.50499E-004	...........
	11	3.1	5.09545E-003	4.69665E-003	5.44799E-004	...........
	12	3.35833	4.95176E-003	4.83527E-003	5.44899E-004	...........
	13	3.61667	4.82237E-003	4.99600E-003	5.46966E-004	...........
	14	3.875	4.78173E-003	5.11095E-003	5.39499E-004	...........
	15	4.13333	4.83556E-003	5.04069E-003	5.43899E-004	...........
	16	4.39167	4.93317E-003	5.24622E-003	5.36566E-004	...........
	17	4.65	5.02795E-003	5.16260E-003	5.46399E-004	...........
	18	4.90833	5.10352E-003	5.26195E-003	5.47233E-004	...........
EOC	QUANT	0.0051035	Open Circuit (V)
PSTATMODEL	IQUANT	4	Pstat Model
PSTATSECTION	LABEL	REF600-11020	Pstat Section
PSTATSERIALNO	LABEL	11020	Pstat Serial Number
CTRLMODE	IQUANT	1	Control Mode
IESTAB	IQUANT	0	I/E Stability
CASPEED	IQUANT	1	Control Amp Speed
CONVENTION	IQUANT	1	Current Convention
ICHRANGE	IQUANT	2	Ich Range
ICHRANGEMODE	TOGGLE	F	Ich Auto Range
ICHOFFSETENABLE	TOGGLE	T	Ich Offset Enable
ICHOFFSET	QUANT	0	Ich Offset (V)
ICHFILTER	IQUANT	3	Ich Filter
VCHRANGE	IQUANT	2	Vch Range
VCHRANGEMODE	TOGGLE	F	Vch Auto Range
VCHOFFSETENABLE	TOGGLE	T	Vch Offset Enable
VCHOFFSET	QUANT	0	Vch Offset (V)
VCHFILTER	IQUANT	3	Vch Filter
ACHRANGE	IQUANT	2	Ach Range
ACHOFFSETENABLE	TOGGLE	F	Ach Offset Enable
ACHOFFSET	QUANT	0	Ach Offset (V)
ACHFILTER	IQUANT	3	Ach Filter
IERANGELOWERLIMIT	IQUANT	1	I/E Range Lower Limit
IERANGEMODE	TOGGLE	F	I/E AutoRange
IERANGE	IQUANT	4	I/E Range
POSFEEDENABLE	TOGGLE	F	Positive Feedback IR Comp
POSFEEDRESISTANCE	QUANT	0	Positive Feedback Resistance (ohm)
ACHSELECT	IQUANT	0	Ach Select
CABLEID	IQUANT	14	Cable ID
DCCALDATE	LABEL	8/19/2019	DC Calibration Date
ACCALDATE	LABEL	8/19/2019	AC Calibration Date
THERMOSELECT	IQUANT	1	Thermo Select
FRAMEWORKVERSION	QUANT	6.33	Framework Version
INSTRUMENTVERSION	LABEL	3.50	Instrument Version
ZCURVE	TABLE
	Pt	Time	Freq	Zreal	Zimag	Zsig	Zmod	Zphz	Idc	Vdc	IERange
	#	s	Hz	ohm	ohm	V	ohm	°	A	V	#
	0	1	1000078	2424.584	-1673.312	1	2945.943	-34.61126	5.116024E-007	0.0069777	8
	1	3	794390.6	2746.573	-1638.524	1	3198.19	-30.81905	-4.853892E-006	0.0079216	8
	2	4	630984.4	3053.123	-1531.064	1	3415.511	-26.6326	1.095982E-006	0.0066288	8
	3	5	501234.4	3321.817	-1404.314	1	3606.462	-22.91645	1.128165E-006	0.0063554	8
	4	7	398109.4	3524.09	-1249.665	1	3739.101	-19.52483	-2.448576E-006	0.0069144	8
	5	8	316265.6	3702.993	-1117.692	1	3867.996	-16.79564	-3.435822E-007	0.00671	8
	6	9	251203.1	3839.709	-985.73	1	3964.219	-14.39804	-1.642636E-006	0.0068594	8
	7	11	199546.9	3974.644	-849.6266	1	4064.438	-12.06605	1.984236E-006	0.0061428	8
	8	12	158578.1	4030.137	-758.9521	1	4100.977	-10.66499	-2.857183E-007	0.0066617	8
	9	13	125953.1	4135.977	-605.4605	1	4180.058	-8.328303	-5.317346E-007	0.008316	7
	10	15	100078.1	4184.9	-536.6553	1	4219.169	-7.307507	3.464923E-008	0.0064744	7
	11	16	79453.13	4231.866	-483.4226	1	4259.388	-6.516872	1.103642E-007	0.0063392	7
	12	17	63140.62	4270.672	-445.0075	1	4293.795	-5.948798	6.947118E-008	0.0064623	7
	13	19	50203.12	4305.528	-416.8131	1	4325.656	-5.529506	-1.193054E-008	0.0065438	7
	14	20	39890.62	4337.513	-401.6837	1	4356.072	-5.290895	-3.286311E-008	0.0065216	7
	15	22	31640.63	4367.811	-398.2935	1	4385.933	-5.210299	-1.140079E-008	0.006472	7
	16	23	25171.88	4398.44	-404.6791	1	4417.018	-5.256706	-1.142425E-008	0.0065375	7
	17	24	20015.62	4425.739	-424.6229	1	4446.062	-5.480409	-5.974641E-008	0.006597	7
	18	26	15890.62	4459.871	-455.1299	1	4483.034	-5.826864	7.022285E-008	0.0064572	7
	19	27	12609.37	4494.912	-499.9464	1	4522.629	-6.346636	-3.689021E-008	0.0065687	7
	20	28	10078.13	4515.265	-544.0085	1	4547.919	-6.870001	-2.8625E-008	0.0065091	7
	21	30	8015.625	4562.93	-631.5302	1	4606.426	-7.879934	1.13038E-007	0.0063206	7
	22	31	6328.125	4603.707	-730.2034	1	4661.256	-9.012723	-3.470551E-008	0.0065766	7
	23	32	5015.625	4647.404	-853.2742	1	4725.086	-10.40377	-8.14096E-009	0.0064669	7
	24	34	3984.375	4691.305	-1006.355	1	4798.03	-12.10732	-7.901866E-009	0.006467	7
	25	35	3170.956	4750.972	-1193.749	1	4898.649	-14.10439	-2.977772E-009	0.0065149	7
	26	36	2527.573	4811.751	-1422.09	1	5017.499	-16.46479	1.12252E-007	0.0063239	7
	27	38	1976.103	4886.403	-1729.996	1	5183.611	-19.49614	-2.481825E-008	0.0065154	7
	28	39	1577.524	4983.499	-2076.301	1	5398.729	-22.61832	7.227312E-008	0.0064519	7
	29	41	1265.625	5067.692	-2497.441	1	5649.666	-26.23483	-1.930021E-010	0.0065129	7
	30	42	998.264	5194.639	-3047.193	1	6022.43	-30.39603	1.82517E-008	0.0064246	7
	31	43	796.875	5334.587	-3686.216	1	6484.29	-34.64459	-3.491513E-008	0.006518	7
	32	45	627.7902	5512.495	-4518.193	1	7127.529	-39.339	5.594954E-008	0.0063994	7
	33	46	505.5147	5712.057	-5438.155	1	7886.769	-43.59283	5.670691E-008	0.006396	7
	34	48	397.9953	5974.812	-6687.019	1	8967.419	-48.2194	4.246264E-009	0.0065173	7
	35	49	315.5048	6289.717	-8174.115	1	10313.91	-52.42288	3.729243E-010	0.0064551	6
	36	50	252.4038	6657.619	-9926.75	1	11952.58	-56.15125	1.162545E-009	0.006455	6
	37	52	198.6229	7143.019	-12237.18	1	14169.38	-59.72728	6.279496E-010	0.0064563	6
	38	53	158.3615	7724.704	-14926.85	1	16807.2	-62.63825	3.204738E-010	0.0064559	6
	39	54	125.558	8479.852	-18301.02	1	20170.16	-65.13916	1.18915E-009	0.0064571	6
	40	56	100.4464	9387.961	-22267.87	1	24165.92	-67.14009	1.454267E-010	0.0064518	6
	41	57	79.00281	10792.83	-27526.22	1	29566.5	-68.59022	4.082032E-010	0.0064552	6
	42	59	63.3446	12681.26	-33323.34	1	35654.72	-69.16559	1.020833E-009	0.0064509	6
	43	60	49.86702	14704.58	-41326.36	1	43864.48	-70.41364	-1.378285E-010	0.0064518	6
	44	61	39.72458	17700.91	-49902.54	1	52948.89	-70.46992	1.034585E-009	0.0064553	6
	45	63	31.6723	21684.66	-60528.11	1	64295.23	-70.28955	4.202224E-010	0.0064561	6
	46	64	24.93351	27157.08	-73378.49	1	78242.64	-69.69069	3.75074E-010	0.0064572	6
	47	65	19.86229	34056.9	-87953.54	1	94317.01	-68.83287	3.302942E-010	0.0064554	6
	48	67	15.83615	43837.57	-103666.2	1	112554	-67.07784	-1.216274E-009	0.0064603	5
	49	68	12.40079	56157.97	-125022.9	1	137056.4	-65.81128	-8.217572E-010	0.006464	5
	50	70	9.93114	69839.52	-146007.3	1	161850.8	-64.43687	4.019319E-010	0.0064592	5
	51	71	7.944915	86373.64	-168033.4	1	188932.8	-62.79562	-7.319387E-010	0.0064615	5
	52	73	6.317385	107932.4	-194124.9	1	222112.3	-60.92618	1.880645E-010	0.0064551	5
	53	75	5.008013	132982.8	-222492.2	1	259204.9	-59.13338	1.492209E-010	0.0064718	5
	54	78	3.945707	161678.1	-253400.8	1	300585.7	-57.46078	5.890206E-011	0.0064581	5
	55	80	3.158693	192578.8	-284424.6	1	343487.9	-55.89878	4.360822E-010	0.0064822	5
	56	84	2.504006	227781.5	-320309.1	1	393042.4	-54.58221	-4.054808E-010	0.0064635	5
	57	86	1.998082	264350.2	-357643.5	1	444735.7	-53.53025	-1.459438E-010	0.0064355	5
	58	89	1.584686	303019.6	-398873.6	1	500920.1	-52.77649	1.211744E-010	0.0065059	5
	59	93	1.266892	344712.1	-449198.3	1	566220.4	-52.49759	-1.541226E-010	0.0064527	5
	60	97	0.999041	390273.8	-509680.2	1	641940.4	-52.5579	3.551468E-010	0.0064931	5
