EXPLAIN
TAG	EISPOT
TITLE	LABEL	Potentiostatic IDE	Test &Identifier
DATE	LABEL	9/4/2019	Date
TIME	LABEL	12:10:20	Time
NOTES	NOTES	1	&Notes...
	
PSTAT	PSTAT	REF600-11020	Potentiostat
VDC	POTEN	0.00000E+000	T	DC &Voltage (V)
FREQINIT	QUANT	1.00000E+006	Initial Fre&q. (Hz)
FREQFINAL	QUANT	1.00000E+000	Final Fre&q. (Hz)
PTSPERDEC	QUANT	1.00000E+001	Points/&decade
VAC	QUANT	2.50000E+001	AC &Voltage (mV rms)
AREA	QUANT	1.00000E-002	&Area (cm^2)
CONDIT	TWOPARAM	T	5.00000E+000	0.00000E+000	Conditionin&g	Time(s)	E(V)
DELAY	TWOPARAM	T	5.00000E+000	0.00000E+000	Init. De&lay	Time(s)	Stab.(mV/s)
SPEED	SELECTOR	1	&Optimize for:
ZGUESS	QUANT	1.00000E+007	E&stimated Z (ohms)
OCVCURVE	TABLE	19
	Pt	T	Vf	Vm	Ach	Over
	#	s	V vs. Ref.	V	V	bits
	0	0.258333	6.26891E-002	6.26891E-002	5.72832E-004	...........
	1	0.516667	6.26966E-002	6.30841E-002	5.71599E-004	...........
	2	0.775	6.27422E-002	6.34191E-002	5.76332E-004	...........
	3	1.03333	6.28703E-002	6.38286E-002	5.71999E-004	...........
	4	1.29167	6.31046E-002	6.43556E-002	5.72499E-004	...........
	5	1.55	6.34381E-002	6.48512E-002	5.67666E-004	...........
	6	1.80833	6.38492E-002	6.53211E-002	5.66299E-004	...........
	7	2.06667	6.43104E-002	6.58059E-002	5.69799E-004	...........
	8	2.325	6.47934E-002	6.62662E-002	5.69699E-004	...........
	9	2.58333	6.52782E-002	6.67189E-002	5.72366E-004	...........
	10	2.84167	6.57553E-002	6.71557E-002	5.69999E-004	...........
	11	3.1	6.62208E-002	6.75902E-002	5.66166E-004	...........
	12	3.35833	6.66745E-002	6.80218E-002	5.67266E-004	...........
	13	3.61667	6.71241E-002	6.87585E-002	5.67866E-004	...........
	14	3.875	6.75861E-002	6.89145E-002	5.68432E-004	...........
	15	4.13333	6.80560E-002	6.91720E-002	5.73066E-004	...........
	16	4.39167	6.84934E-002	6.95441E-002	5.70066E-004	...........
	17	4.65	6.88718E-002	6.99561E-002	5.70732E-004	...........
	18	4.90833	6.92124E-002	7.02310E-002	5.67232E-004	...........
EOC	QUANT	0.0692124	Open Circuit (V)
PSTATMODEL	IQUANT	4	Pstat Model
PSTATSECTION	LABEL	REF600-11020	Pstat Section
PSTATSERIALNO	LABEL	11020	Pstat Serial Number
CTRLMODE	IQUANT	1	Control Mode
IESTAB	IQUANT	0	I/E Stability
CASPEED	IQUANT	1	Control Amp Speed
CONVENTION	IQUANT	1	Current Convention
ICHRANGE	IQUANT	2	Ich Range
ICHRANGEMODE	TOGGLE	F	Ich Auto Range
ICHOFFSETENABLE	TOGGLE	T	Ich Offset Enable
ICHOFFSET	QUANT	0	Ich Offset (V)
ICHFILTER	IQUANT	3	Ich Filter
VCHRANGE	IQUANT	2	Vch Range
VCHRANGEMODE	TOGGLE	F	Vch Auto Range
VCHOFFSETENABLE	TOGGLE	T	Vch Offset Enable
VCHOFFSET	QUANT	0	Vch Offset (V)
VCHFILTER	IQUANT	3	Vch Filter
ACHRANGE	IQUANT	2	Ach Range
ACHOFFSETENABLE	TOGGLE	F	Ach Offset Enable
ACHOFFSET	QUANT	0	Ach Offset (V)
ACHFILTER	IQUANT	3	Ach Filter
IERANGELOWERLIMIT	IQUANT	1	I/E Range Lower Limit
IERANGEMODE	TOGGLE	F	I/E AutoRange
IERANGE	IQUANT	4	I/E Range
POSFEEDENABLE	TOGGLE	F	Positive Feedback IR Comp
POSFEEDRESISTANCE	QUANT	0	Positive Feedback Resistance (ohm)
ACHSELECT	IQUANT	0	Ach Select
CABLEID	IQUANT	14	Cable ID
DCCALDATE	LABEL	8/19/2019	DC Calibration Date
ACCALDATE	LABEL	8/19/2019	AC Calibration Date
THERMOSELECT	IQUANT	1	Thermo Select
FRAMEWORKVERSION	QUANT	6.33	Framework Version
INSTRUMENTVERSION	LABEL	3.50	Instrument Version
ZCURVE	TABLE
	Pt	Time	Freq	Zreal	Zimag	Zsig	Zmod	Zphz	Idc	Vdc	IERange
	#	s	Hz	ohm	ohm	V	ohm	°	A	V	#
	0	2	1000078	2362.629	-2144.823	1	3190.968	-42.23354	1.091963E-005	0.0706507	8
	1	4	794390.6	2808.148	-2132.765	1	3526.242	-37.21637	1.270815E-005	0.0698736	8
	2	5	630984.4	3182.947	-2004.911	1	3761.758	-32.20647	1.183005E-005	0.0701512	8
	3	7	501234.4	3529.877	-1847.039	1	3983.916	-27.6212	9.236939E-006	0.0708057	8
	4	8	398109.4	3815.202	-1699.17	1	4176.476	-24.00667	8.741043E-006	0.0706358	8
	5	10	316265.6	4023.833	-1530.559	1	4305.095	-20.82549	1.047492E-005	0.0703092	8
	6	12	251203.1	4195.952	-1399.998	1	4423.348	-18.45151	9.481729E-006	0.07055	8
	7	13	199546.9	4363.788	-1313.129	1	4557.077	-16.74733	8.733725E-006	0.0705935	8
	8	15	158578.1	4429.723	-1155.141	1	4577.859	-14.61556	1.261001E-005	0.0698656	8
	9	16	125953.1	4578.507	-1159.755	1	4723.109	-14.21428	1.179777E-006	0.069626	7
	10	18	100078.1	4666.374	-1140.79	1	4803.795	-13.73767	8.921473E-007	0.0706127	7
	11	19	79453.13	4762.777	-1162.006	1	4902.479	-13.71098	9.043615E-007	0.0705582	7
	12	20	63140.62	4863.649	-1216.024	1	5013.362	-14.03748	8.906784E-007	0.0705412	7
	13	22	50203.12	4959.654	-1299.484	1	5127.068	-14.68209	9.14391E-007	0.0704856	7
	14	23	39890.62	5068.485	-1420.303	1	5263.725	-15.65406	8.90058E-007	0.0705316	7
	15	24	31640.63	5196.521	-1576.615	1	5430.428	-16.8777	9.2523E-007	0.0705299	7
	16	26	25171.88	5333.046	-1784.206	1	5623.59	-18.49801	8.916692E-007	0.0705337	7
	17	27	20015.62	5480.081	-2027.698	1	5843.188	-20.3051	9.256097E-007	0.0705247	7
	18	28	15890.62	5656.407	-2330.966	1	6117.871	-22.39622	8.948024E-007	0.0706045	7
	19	30	12609.37	5855.998	-2690.266	1	6444.396	-24.67422	8.781857E-007	0.0705639	7
	20	31	10078.13	6072.916	-3109.676	1	6822.784	-27.11501	9.018081E-007	0.0705002	7
	21	32	8015.625	6341.843	-3623.52	1	7304.031	-29.74222	9.272128E-007	0.0705239	7
	22	34	6328.125	6658.86	-4257.658	1	7903.674	-32.59474	8.944966E-007	0.0706015	7
	23	35	5015.625	7023.456	-4991.445	1	8616.464	-35.40073	8.919777E-007	0.0705294	7
	24	36	3984.375	7448.624	-5862.356	1	9478.883	-38.20412	8.867324E-007	0.0705855	7
	25	38	3170.956	7944.751	-6890.124	1	10516.31	-40.93362	8.80109E-007	0.0705832	7
	26	39	2527.573	8504.321	-8068.239	1	11722.63	-43.49269	8.973964E-007	0.0706082	7
	27	40	1976.103	9245.668	-9616.22	1	13339.94	-46.12547	8.4906E-008	0.0705265	6
	28	42	1577.524	10030.27	-11309.98	1	15116.94	-48.43175	8.703422E-008	0.0704643	6
	29	43	1265.625	10927.12	-13247.28	1	17172.43	-50.48223	8.418824E-008	0.0705376	6
	30	44	998.264	12075.68	-15704.26	1	19810.25	-52.44177	8.807233E-008	0.070449	6
	31	46	796.875	13377.25	-18487.14	1	22819.41	-54.1106	8.896542E-008	0.0705363	6
	32	47	627.7902	14998.42	-21964.84	1	26597.13	-55.67327	9.09729E-008	0.0704899	6
	33	48	505.5147	16748.08	-25667.29	1	30648.14	-56.87528	9.54408E-008	0.07032	6
	34	50	397.9953	19109.83	-30498.94	1	35991.26	-57.92983	8.88409E-008	0.070124	6
	35	51	315.5048	21798.35	-36049.95	1	42127.98	-58.83988	8.970258E-008	0.0701238	6
	36	52	252.4038	24865.3	-42304.79	1	49071.15	-59.55445	8.982987E-008	0.0701188	6
	37	54	198.6229	28815.74	-50232.16	1	57910.42	-60.15921	8.978885E-008	0.0701221	6
	38	55	158.3615	33242.38	-59017.25	1	67735.45	-60.60894	8.990102E-008	0.0701178	6
	39	56	125.558	38670.19	-69494.34	1	79528.91	-60.90621	8.975982E-008	0.0701145	6
	40	58	100.4464	44861.7	-81276.2	1	92835.3	-61.10279	8.928163E-008	0.0701182	6
	41	59	79.00281	52645.14	-96457.3	1	109888.7	-61.37487	8.943633E-008	0.0701166	6
	42	60	63.3446	60099.17	-111433.4	1	126606.9	-61.66076	8.976178E-008	0.0701186	6
	43	62	49.86702	73569.88	-132887.3	1	151893.3	-61.02994	9.161178E-009	0.0701184	5
	44	63	39.72458	85244.84	-153853.6	1	175890.9	-61.01071	9.018205E-009	0.0701258	5
	45	65	31.6723	100268	-179723.1	1	205801	-60.84274	8.879164E-009	0.0701239	5
	46	66	24.93351	117490.5	-210992.9	1	241499.5	-60.88894	8.890942E-009	0.070125	5
	47	67	19.86229	136795.2	-245923	1	281409.1	-60.91489	8.850932E-009	0.0701216	5
	48	69	15.83615	159791.2	-288399.1	1	329707.8	-61.01079	8.746984E-009	0.0701244	5
	49	70	12.40079	188644.8	-336537.2	1	385803.3	-60.72733	9.015769E-009	0.0701256	5
	50	71	9.93114	217638.3	-392745.4	1	449016.1	-61.00714	9.092023E-009	0.0701331	5
	51	73	7.944915	253816.1	-454360.9	1	520448.3	-60.81131	9.064731E-009	0.0701206	5
	52	75	6.317385	294599.9	-531797.8	1	607945.8	-61.01488	9.051275E-009	0.070116	5
	53	77	5.008013	343104.9	-624194.7	1	712278.1	-61.20345	8.982256E-008	0.0701115	6
	54	80	3.945707	402658.3	-733528	1	836777.8	-61.23613	9.031216E-009	0.0701246	5
	55	83	3.158693	467903.2	-853953.8	1	973740	-61.28053	9.015444E-009	0.0701083	5
	56	86	2.504006	546281.4	-1003991	1	1142988	-61.44894	9.000423E-009	0.0704099	5
	57	89	1.998082	639071.7	-1173329	1	1336082	-61.4244	9.365391E-010	0.0704481	4
	58	92	1.584686	746847.1	-1375014	1	1564751	-61.49115	9.39146E-010	0.0704128	4
	59	95	1.266892	878396.7	-1604279	1	1829014	-61.29782	8.883214E-010	0.0704523	4
	60	100	0.999041	1037663	-1885488	1	2152164	-61.17418	9.281226E-010	0.0703824	4
