EXPLAIN
TAG	EISPOT
TITLE	LABEL	Potentiostatic EIS	Test &Identifier
DATE	LABEL	10/10/2019	Date
TIME	LABEL	10:52:15	Time
NOTES	NOTES	1	&Notes...
	
PSTAT	PSTAT	REF600-11020	Potentiostat
VDC	POTEN	0.00000E+000	T	DC &Voltage (V)
FREQINIT	QUANT	1.00000E+006	Initial Fre&q. (Hz)
FREQFINAL	QUANT	1.00000E+000	Final Fre&q. (Hz)
PTSPERDEC	QUANT	1.00000E+001	Points/&decade
VAC	QUANT	2.50000E+001	AC &Voltage (mV rms)
AREA	QUANT	1.00000E-002	&Area (cm^2)
CONDIT	TWOPARAM	T	5.00000E+000	0.00000E+000	Conditionin&g	Time(s)	E(V)
DELAY	TWOPARAM	T	5.00000E+000	0.00000E+000	Init. De&lay	Time(s)	Stab.(mV/s)
SPEED	SELECTOR	1	&Optimize for:
ZGUESS	QUANT	1.00000E+004	E&stimated Z (ohms)
OCVCURVE	TABLE	19
	Pt	T	Vf	Vm	Ach	Over
	#	s	V vs. Ref.	V	V	bits
	0	0.258333	5.97497E-003	5.97497E-003	5.45299E-004	...........
	1	0.516667	5.98054E-003	6.26637E-003	5.44533E-004	...........
	2	0.775	6.01193E-003	6.39648E-003	5.43999E-004	...........
	3	1.03333	6.09520E-003	6.71711E-003	5.46633E-004	...........
	4	1.29167	6.23795E-003	6.78513E-003	5.44699E-004	...........
	5	1.55	6.40719E-003	6.28837E-003	5.42999E-004	...........
	6	1.80833	6.51417E-003	5.63738E-003	5.38566E-004	...........
	7	2.06667	6.45182E-003	5.24743E-003	5.48566E-004	...........
	8	2.325	6.18967E-003	5.05551E-003	5.48766E-004	...........
	9	2.58333	5.81505E-003	5.08645E-003	5.44799E-004	...........
	10	2.84167	5.46634E-003	5.19055E-003	5.48666E-004	...........
	11	3.1	5.23172E-003	4.77909E-003	5.49033E-004	...........
	12	3.35833	5.10503E-003	5.12976E-003	5.48533E-004	...........
	13	3.61667	5.04552E-003	5.32241E-003	5.48299E-004	...........
	14	3.875	5.05216E-003	5.49426E-003	5.37266E-004	...........
	15	4.13333	5.13933E-003	5.67718E-003	5.46366E-004	...........
	16	4.39167	5.28823E-003	5.77902E-003	5.46699E-004	...........
	17	4.65	5.45980E-003	5.93235E-003	5.45733E-004	...........
	18	4.90833	5.63235E-003	6.41853E-003	5.50099E-004	...........
EOC	QUANT	0.0056323	Open Circuit (V)
PSTATMODEL	IQUANT	4	Pstat Model
PSTATSECTION	LABEL	REF600-11020	Pstat Section
PSTATSERIALNO	LABEL	11020	Pstat Serial Number
CTRLMODE	IQUANT	1	Control Mode
IESTAB	IQUANT	0	I/E Stability
CASPEED	IQUANT	1	Control Amp Speed
CONVENTION	IQUANT	1	Current Convention
ICHRANGE	IQUANT	2	Ich Range
ICHRANGEMODE	TOGGLE	F	Ich Auto Range
ICHOFFSETENABLE	TOGGLE	T	Ich Offset Enable
ICHOFFSET	QUANT	0	Ich Offset (V)
ICHFILTER	IQUANT	3	Ich Filter
VCHRANGE	IQUANT	2	Vch Range
VCHRANGEMODE	TOGGLE	F	Vch Auto Range
VCHOFFSETENABLE	TOGGLE	T	Vch Offset Enable
VCHOFFSET	QUANT	0	Vch Offset (V)
VCHFILTER	IQUANT	3	Vch Filter
ACHRANGE	IQUANT	2	Ach Range
ACHOFFSETENABLE	TOGGLE	F	Ach Offset Enable
ACHOFFSET	QUANT	0	Ach Offset (V)
ACHFILTER	IQUANT	3	Ach Filter
IERANGELOWERLIMIT	IQUANT	1	I/E Range Lower Limit
IERANGEMODE	TOGGLE	F	I/E AutoRange
IERANGE	IQUANT	6	I/E Range
POSFEEDENABLE	TOGGLE	F	Positive Feedback IR Comp
POSFEEDRESISTANCE	QUANT	0	Positive Feedback Resistance (ohm)
ACHSELECT	IQUANT	0	Ach Select
CABLEID	IQUANT	14	Cable ID
DCCALDATE	LABEL	8/19/2019	DC Calibration Date
ACCALDATE	LABEL	8/19/2019	AC Calibration Date
THERMOSELECT	IQUANT	1	Thermo Select
FRAMEWORKVERSION	QUANT	6.33	Framework Version
INSTRUMENTVERSION	LABEL	3.50	Instrument Version
ZCURVE	TABLE
	Pt	Time	Freq	Zreal	Zimag	Zsig	Zmod	Zphz	Idc	Vdc	IERange
	#	s	Hz	ohm	ohm	V	ohm	°	A	V	#
	0	2	1000078	2401.135	-1169.35	1	2670.736	-25.96604	-8.971291E-008	0.0084018	8
	1	3	794390.6	2591.754	-1075.612	1	2806.088	-22.53909	-5.837033E-006	0.0088132	8
	2	4	630984.4	2773.258	-963.598	1	2935.895	-19.16033	8.190166E-007	0.0075273	8
	3	6	501234.4	2899.327	-845.6239	1	3020.129	-16.25996	-5.729981E-007	0.0074294	8
	4	7	398109.4	3003.687	-749.7956	1	3095.857	-14.01602	-1.873105E-006	0.0078049	8
	5	8	316265.6	3084.461	-675.9201	1	3157.652	-12.36026	-4.490383E-006	0.0082065	8
	6	10	251203.1	3156.983	-576.7392	1	3209.232	-10.35302	-1.517278E-006	0.0076366	8
	7	11	199546.9	3204.078	-528.2281	1	3247.328	-9.361642	-3.177884E-006	0.0080005	8
	8	13	158578.1	3258.168	-478.6566	1	3293.14	-8.357524	-1.946121E-006	0.0078897	8
	9	14	125953.1	3307.178	-395.973	1	3330.799	-6.827602	8.758298E-008	0.006734	7
	10	15	100078.1	3339.434	-388.2713	1	3361.93	-6.631922	1.048182E-007	0.0072169	7
	11	17	79453.13	3378.143	-386.3698	1	3400.166	-6.524764	8.165877E-008	0.0071399	7
	12	18	63140.62	3417.977	-390.0202	1	3440.157	-6.50978	-6.81413E-008	0.0074253	7
	13	19	50203.12	3459.934	-400.4251	1	3483.028	-6.601586	-3.285684E-008	0.0072934	7
	14	21	39890.62	3505.17	-415.4171	1	3529.701	-6.758912	1.231894E-007	0.0071092	7
	15	22	31640.63	3554.491	-435.806	1	3581.108	-6.989985	1.239309E-008	0.007398	7
	16	23	25171.88	3604.259	-462.6519	1	3633.831	-7.314635	1.274994E-007	0.0071036	7
	17	25	20015.62	3661.806	-492.8329	1	3694.822	-7.665228	-5.864629E-008	0.0073654	7
	18	26	15890.62	3716.973	-530.6673	1	3754.663	-8.125135	-1.24728E-008	0.0072888	7
	19	27	12609.37	3778.115	-572.6704	1	3821.271	-8.619039	-6.908834E-008	0.0074242	7
	20	29	10078.13	3839.093	-622.2628	1	3889.196	-9.206768	-4.675089E-008	0.0074021	7
	21	30	8015.625	3893.196	-690.4508	1	3953.947	-10.05673	-7.060573E-008	0.0074187	7
	22	32	6328.125	3971.792	-754.92	1	4042.899	-10.76186	4.612734E-008	0.0072472	7
	23	33	5015.625	4039.154	-843.7163	1	4126.333	-11.79855	-3.986091E-008	0.0072987	7
	24	34	3984.375	4101.947	-951.643	1	4210.89	-13.06144	-5.963702E-008	0.0073659	7
	25	36	3170.956	4173.386	-1086.966	1	4312.614	-14.59846	4.503036E-008	0.0071577	7
	26	37	2527.573	4240.949	-1254.453	1	4422.59	-16.47798	-8.137908E-008	0.0075367	7
	27	38	1976.103	4316.773	-1483.798	1	4564.667	-18.9693	-1.377922E-008	0.0073311	7
	28	40	1577.524	4419.37	-1702.36	1	4735.912	-21.0669	-5.484355E-009	0.0072438	7
	29	41	1265.625	4474.854	-2069.492	1	4930.225	-24.81919	4.490063E-008	0.007247	7
	30	42	998.264	4573.458	-2502.042	1	5213.13	-28.68214	1.272143E-008	0.0072185	7
	31	44	796.875	4682.916	-3014.216	1	5569.129	-32.76786	7.328326E-009	0.0072644	7
	32	45	627.7902	4827.357	-3683.912	1	6072.445	-37.34842	-7.880841E-008	0.0073936	7
	33	47	505.5147	4974.645	-4427.506	1	6659.572	-41.66954	4.283347E-008	0.0071542	7
	34	48	397.9953	5182.119	-5447.468	1	7518.595	-46.42999	4.528259E-009	0.0073134	7
	35	49	315.5048	5432.646	-6669.058	1	8601.743	-50.83358	5.333794E-009	0.0073123	7
	36	51	252.4038	5736.62	-8106.751	1	9931.17	-54.71544	4.793934E-009	0.0073118	7
	37	52	198.6229	6154.691	-10001.24	1	11743.29	-58.39215	7.753799E-010	0.0072571	6
	38	53	158.3615	6655.861	-12193.78	1	13892.04	-61.37248	1.47911E-009	0.0072515	6
	39	55	125.558	7319.134	-14925.15	1	16623.17	-63.87716	2.313266E-009	0.0072522	6
	40	56	100.4464	8126.643	-18102.83	1	19843.26	-65.82395	4.662473E-010	0.0072522	6
	41	58	79.00281	9250.801	-22316.35	1	24157.75	-67.48452	1.138267E-009	0.0072476	6
	42	59	63.3446	10386.24	-27011.75	1	28939.74	-68.96783	3.535617E-010	0.0072476	6
	43	60	49.86702	12616.01	-32846.01	1	35185.57	-68.98843	1.071307E-009	0.0072492	6
	44	62	39.72458	14741.25	-39813.59	1	42454.99	-69.68259	1.373495E-009	0.00725	6
	45	63	31.6723	17405.31	-47931.58	1	50993.93	-70.04261	9.760951E-010	0.0072525	6
	46	65	24.93351	21291.18	-58254.67	1	62023.55	-69.92342	5.104558E-010	0.0072495	6
	47	66	19.86229	25811.52	-69936.3	1	74547.45	-69.74232	2.408685E-010	0.0072545	6
	48	67	15.83615	31137.48	-83106.43	1	88748.08	-69.46053	4.713276E-010	0.0072489	6
	49	69	12.40079	38302.63	-100996.9	1	108016	-69.231	7.625243E-010	0.0072595	5
	50	70	9.93114	47112.74	-119237.7	1	128207.8	-68.44022	5.6711E-010	0.0072562	5
	51	72	7.944915	57857.22	-141713.9	1	153069.5	-67.79139	7.48379E-010	0.0072559	5
	52	73	6.317385	70057.02	-167240.9	1	181321.5	-67.27124	7.649776E-010	0.0072446	5
	53	75	5.008013	85887.98	-198302.4	1	216103.2	-66.58178	3.995168E-010	0.007265	5
	54	78	3.945707	105410.6	-235146.2	1	257691.9	-65.8544	-5.968549E-011	0.007253	5
	55	81	3.158693	127157.8	-274510.9	1	302531.5	-65.14568	3.189606E-010	0.0072741	5
	56	84	2.504006	154405.2	-323493.1	1	358453.2	-64.48458	-5.828046E-011	0.0072545	5
	57	87	1.998082	185844.8	-376637.9	1	419993.4	-63.73684	2.424343E-011	0.0072157	5
	58	90	1.584686	223000.7	-438828.6	1	492239.6	-63.06157	4.650056E-012	0.0072692	5
	59	93	1.266892	266753.1	-509902.1	1	575462.8	-62.38388	3.645576E-011	0.007213	5
	60	98	0.999041	315864.1	-593969.8	1	672733.4	-61.99664	2.079588E-010	0.0072984	5
