EXPLAIN
TAG	EISPOT
TITLE	LABEL	Potentiostatic IDE	Test &Identifier
DATE	LABEL	9/10/2019	Date
TIME	LABEL	10:13:44	Time
NOTES	NOTES	1	&Notes...
	
PSTAT	PSTAT	REF600-11020	Potentiostat
VDC	POTEN	0.00000E+000	T	DC &Voltage (V)
FREQINIT	QUANT	1.00000E+006	Initial Fre&q. (Hz)
FREQFINAL	QUANT	1.00000E+000	Final Fre&q. (Hz)
PTSPERDEC	QUANT	1.00000E+001	Points/&decade
VAC	QUANT	2.50000E+001	AC &Voltage (mV rms)
AREA	QUANT	1.00000E-002	&Area (cm^2)
CONDIT	TWOPARAM	T	5.00000E+000	0.00000E+000	Conditionin&g	Time(s)	E(V)
DELAY	TWOPARAM	T	5.00000E+000	0.00000E+000	Init. De&lay	Time(s)	Stab.(mV/s)
SPEED	SELECTOR	1	&Optimize for:
ZGUESS	QUANT	1.00000E+007	E&stimated Z (ohms)
OCVCURVE	TABLE	19
	Pt	T	Vf	Vm	Ach	Over
	#	s	V vs. Ref.	V	V	bits
	0	0.258333	3.79128E-003	3.79128E-003	6.31398E-004	...........
	1	0.516667	3.78615E-003	3.52242E-003	6.29498E-004	...........
	2	0.775	3.75505E-003	3.29051E-003	6.34831E-004	...........
	3	1.03333	3.66859E-003	3.07168E-003	6.28065E-004	...........
	4	1.29167	3.51772E-003	2.89722E-003	6.25765E-004	...........
	5	1.55	3.32433E-003	2.72462E-003	6.28398E-004	...........
	6	1.80833	3.12017E-003	2.55958E-003	6.35998E-004	...........
	7	2.06667	2.92564E-003	2.41903E-003	6.33131E-004	...........
	8	2.325	2.74720E-003	2.27671E-003	6.34265E-004	...........
	9	2.58333	2.58422E-003	2.14744E-003	6.34898E-004	...........
	10	2.84167	2.43398E-003	2.02165E-003	6.33998E-004	...........
	11	3.1	2.29364E-003	1.89923E-003	6.33498E-004	...........
	12	3.35833	2.16100E-003	1.78859E-003	6.35331E-004	...........
	13	3.61667	2.03483E-003	1.67919E-003	6.32031E-004	...........
	14	3.875	1.91479E-003	1.58059E-003	6.32431E-004	...........
	15	4.13333	1.80106E-003	1.49033E-003	6.35165E-004	...........
	16	4.39167	1.69451E-003	1.42491E-003	6.32331E-004	...........
	17	4.65	1.59712E-003	1.36358E-003	6.29231E-004	...........
	18	4.90833	1.51032E-003	1.26957E-003	6.28965E-004	...........
EOC	QUANT	0.0015103	Open Circuit (V)
PSTATMODEL	IQUANT	4	Pstat Model
PSTATSECTION	LABEL	REF600-11020	Pstat Section
PSTATSERIALNO	LABEL	11020	Pstat Serial Number
CTRLMODE	IQUANT	1	Control Mode
IESTAB	IQUANT	0	I/E Stability
CASPEED	IQUANT	1	Control Amp Speed
CONVENTION	IQUANT	1	Current Convention
ICHRANGE	IQUANT	2	Ich Range
ICHRANGEMODE	TOGGLE	F	Ich Auto Range
ICHOFFSETENABLE	TOGGLE	T	Ich Offset Enable
ICHOFFSET	QUANT	0	Ich Offset (V)
ICHFILTER	IQUANT	3	Ich Filter
VCHRANGE	IQUANT	2	Vch Range
VCHRANGEMODE	TOGGLE	F	Vch Auto Range
VCHOFFSETENABLE	TOGGLE	T	Vch Offset Enable
VCHOFFSET	QUANT	0	Vch Offset (V)
VCHFILTER	IQUANT	3	Vch Filter
ACHRANGE	IQUANT	2	Ach Range
ACHOFFSETENABLE	TOGGLE	F	Ach Offset Enable
ACHOFFSET	QUANT	0	Ach Offset (V)
ACHFILTER	IQUANT	3	Ach Filter
IERANGELOWERLIMIT	IQUANT	1	I/E Range Lower Limit
IERANGEMODE	TOGGLE	F	I/E AutoRange
IERANGE	IQUANT	2	I/E Range
POSFEEDENABLE	TOGGLE	F	Positive Feedback IR Comp
POSFEEDRESISTANCE	QUANT	0	Positive Feedback Resistance (ohm)
ACHSELECT	IQUANT	0	Ach Select
CABLEID	IQUANT	14	Cable ID
DCCALDATE	LABEL	8/19/2019	DC Calibration Date
ACCALDATE	LABEL	8/19/2019	AC Calibration Date
THERMOSELECT	IQUANT	1	Thermo Select
FRAMEWORKVERSION	QUANT	6.33	Framework Version
INSTRUMENTVERSION	LABEL	3.50	Instrument Version
ZCURVE	TABLE
	Pt	Time	Freq	Zreal	Zimag	Zsig	Zmod	Zphz	Idc	Vdc	IERange
	#	s	Hz	ohm	ohm	V	ohm	°	A	V	#
	0	2	1000078	2551.563	-1858.608	1	3156.722	-36.07033	-8.068051E-008	0.0038472	8
	1	3	794390.6	2912.91	-1809.87	1	3429.384	-31.85381	3.582565E-006	0.0028574	8
	2	5	630984.4	3260.252	-1707.889	1	3680.507	-27.64788	-3.489605E-006	0.003918	8
	3	6	501234.4	3558.054	-1567.787	1	3888.149	-23.77976	9.089495E-007	0.0031681	8
	4	7	398109.4	3811.471	-1404.311	1	4061.946	-20.22598	-9.015029E-008	0.0032614	8
	5	9	316265.6	4019.545	-1236.74	1	4205.505	-17.10216	-9.437012E-008	0.0032518	8
	6	10	251203.1	4200.153	-1093.573	1	4340.183	-14.59381	-1.517079E-007	0.0031827	8
	7	11	199546.9	4303.941	-949.4523	1	4407.422	-12.44024	-2.220253E-006	0.0036273	8
	8	13	158578.1	4388.726	-804.5409	1	4461.86	-10.38811	8.714941E-007	0.0030387	8
	9	14	125953.1	4485.195	-671.1906	1	4535.138	-8.510917	2.743703E-007	0.0026609	7
	10	15	100078.1	4530.486	-586.6447	1	4568.31	-7.378077	-2.678255E-008	0.0031764	7
	11	17	79453.13	4575.744	-533.1663	1	4606.702	-6.646141	-3.038776E-008	0.0031327	7
	12	18	63140.62	4617	-492.4736	1	4643.19	-6.088449	8.96607E-009	0.0030521	7
	13	19	50203.12	4651.123	-466.0665	1	4674.416	-5.722231	-3.962652E-008	0.0031815	7
	14	21	39890.62	4684.84	-453.7582	1	4706.764	-5.532224	-4.304104E-008	0.0031617	7
	15	22	31640.63	4718.682	-454.3049	1	4740.501	-5.499368	1.127886E-008	0.0030459	7
	16	23	25171.88	4752.657	-468.459	1	4775.688	-5.629335	-4.035317E-008	0.0032539	7
	17	25	20015.62	4790.14	-496.4937	1	4815.802	-5.917525	-2.791241E-008	0.0031878	7
	18	26	15890.62	4829.344	-535.7758	1	4858.973	-6.330605	1.2329E-008	0.0030445	7
	19	27	12609.37	4870.95	-593.3795	1	4906.959	-6.945553	-4.174085E-008	0.0032543	7
	20	29	10078.13	4918.816	-662.3347	1	4963.208	-7.668937	6.540736E-009	0.0030694	7
	21	30	8015.625	4969.624	-751.2961	1	5026.093	-8.596744	9.183986E-008	0.0029937	7
	22	31	6328.125	5028.818	-867.3838	1	5103.074	-9.78624	3.574315E-008	0.0030732	7
	23	33	5015.625	5097.214	-1007.793	1	5195.887	-11.18396	-9.415466E-010	0.0031395	7
	24	34	3984.375	5173.057	-1174.817	1	5304.782	-12.79502	9.160702E-008	0.0029877	7
	25	35	3170.956	5258.686	-1374.799	1	5435.425	-14.65115	-1.906902E-008	0.0030996	7
	26	37	2527.573	5354.204	-1612.324	1	5591.698	-16.75875	-2.14209E-008	0.0031625	7
	27	38	1976.103	5473.656	-1929.131	1	5803.659	-19.41445	-4.250816E-008	0.003186	7
	28	39	1577.524	5598.731	-2276.909	1	6044.015	-22.13074	-4.330045E-008	0.003179	7
	29	41	1265.625	5736.57	-2687.129	1	6334.738	-25.09937	-3.977484E-008	0.0032526	7
	30	42	998.264	5905.494	-3218.79	1	6725.732	-28.5926	-3.490154E-009	0.0031389	7
	31	43	796.875	6089.811	-3837.044	1	7197.826	-32.21405	1.266324E-008	0.0030458	7
	32	45	627.7902	6310.742	-4630.242	1	7827.17	-36.2678	6.702709E-008	0.0029834	7
	33	46	505.5147	6542.733	-5511.618	1	8554.841	-40.11089	1.004243E-008	0.0030717	7
	34	47	397.9953	6833.201	-6706.294	1	9574.29	-44.46298	5.89023E-009	0.0031396	7
	35	49	315.5048	7167.963	-8127.274	1	10836.62	-48.58887	7.670417E-010	0.0030742	6
	36	50	252.4038	7543.833	-9800.03	1	12367.3	-52.41178	1.106492E-009	0.003073	6
	37	51	198.6229	8024.402	-12004.36	1	14439.38	-56.23896	1.004359E-009	0.0030749	6
	38	53	158.3615	8569.462	-14569.03	1	16902.44	-59.53609	7.107034E-010	0.0030738	6
	39	54	125.558	9243.702	-17789.97	1	20048.17	-62.54353	1.152868E-009	0.0030655	6
	40	55	100.4464	10043.83	-21584.86	1	23807.24	-65.04657	8.627152E-010	0.0030666	6
	41	57	79.00281	11098.63	-26614.12	1	28835.58	-67.36288	1.268726E-009	0.0030768	6
	42	58	63.3446	12221.07	-32131.48	1	34377.12	-69.17591	9.276964E-010	0.0030727	6
	43	59	49.86702	14038.95	-39848.7	1	42249.39	-70.59232	1.346342E-009	0.0030673	6
	44	61	39.72458	15899.76	-48620.67	1	51154.39	-71.89141	1.087521E-009	0.003072	6
	45	62	31.6723	18565.05	-59333.36	1	62170	-72.62541	6.485981E-010	0.0030608	6
	46	63	24.93351	22086.68	-73196.31	1	76456.02	-73.20903	9.559612E-010	0.0030638	6
	47	65	19.86229	26620.74	-89120.27	1	93011.22	-73.36881	1.362731E-009	0.0030735	6
	48	66	15.83615	32548.28	-108757.5	1	113523.5	-73.33893	8.404823E-011	0.0030741	5
	49	67	12.40079	41189.98	-133607.9	1	139813	-72.866	3.5568E-010	0.0030827	5
	50	69	9.93114	51844.44	-160361.7	1	168534	-72.08414	6.927892E-010	0.0030708	5
	51	70	7.944915	65466.1	-192304.4	1	203142.3	-71.19991	3.055904E-010	0.0030818	5
	52	72	6.317385	83291.72	-230620.1	1	245200.2	-70.1421	4.878461E-011	0.0030941	5
	53	74	5.008013	107199.5	-275050.7	1	295202.7	-68.70692	4.996307E-010	0.0030808	5
	54	77	3.945707	138172.7	-327760.8	1	355694.9	-67.14139	3.275517E-010	0.003077	5
	55	79	3.158693	173721.1	-382593.9	1	420187	-65.57904	4.22072E-010	0.0030936	5
	56	82	2.504006	219814.2	-447246.2	1	498344.8	-63.82663	-8.495933E-011	0.0030837	5
	57	85	1.998082	272261.3	-513297.7	1	581034.2	-62.0578	4.04658E-010	0.0030384	5
	58	88	1.584686	336019.9	-591318.2	1	680122.5	-60.39235	1.081825E-010	0.0030321	5
	59	92	1.266892	404792.5	-669676.3	1	782510.9	-58.84872	4.102947E-010	0.0030545	5
	60	96	0.999041	489591.8	-766690.2	1	909677.9	-57.43858	-8.975947E-011	0.0030608	5
