EXPLAIN
TAG	EISPOT
TITLE	LABEL	Potentiostatic EIS	Test &Identifier
DATE	LABEL	10/26/2019	Date
TIME	LABEL	10:21:57	Time
NOTES	NOTES	1	&Notes...
	
PSTAT	PSTAT	REF600-11020	Potentiostat
VDC	POTEN	0.00000E+000	T	DC &Voltage (V)
FREQINIT	QUANT	1.00000E+006	Initial Fre&q. (Hz)
FREQFINAL	QUANT	1.00000E+000	Final Fre&q. (Hz)
PTSPERDEC	QUANT	1.00000E+001	Points/&decade
VAC	QUANT	2.50000E+001	AC &Voltage (mV rms)
AREA	QUANT	1.00000E-002	&Area (cm^2)
CONDIT	TWOPARAM	T	5.00000E+000	0.00000E+000	Conditionin&g	Time(s)	E(V)
DELAY	TWOPARAM	T	5.00000E+000	0.00000E+000	Init. De&lay	Time(s)	Stab.(mV/s)
SPEED	SELECTOR	0	&Optimize for:
ZGUESS	QUANT	1.00000E+005	E&stimated Z (ohms)
OCVCURVE	TABLE	19
	Pt	T	Vf	Vm	Ach	Over
	#	s	V vs. Ref.	V	V	bits
	0	0.258333	5.41225E-003	5.41225E-003	5.54433E-004	...........
	1	0.516667	5.41088E-003	5.34025E-003	5.49399E-004	...........
	2	0.775	5.40205E-003	5.25187E-003	5.59866E-004	...........
	3	1.03333	5.37649E-003	5.20395E-003	5.56233E-004	...........
	4	1.29167	5.33149E-003	5.16406E-003	5.64166E-004	...........
	5	1.55	5.27522E-003	5.10683E-003	5.64366E-004	...........
	6	1.80833	5.22066E-003	5.19893E-003	5.64066E-004	...........
	7	2.06667	5.18254E-003	5.25587E-003	5.57899E-004	...........
	8	2.325	5.17278E-003	5.21626E-003	5.59466E-004	...........
	9	2.58333	5.18745E-003	5.23730E-003	5.56299E-004	...........
	10	2.84167	5.21035E-003	5.31056E-003	5.54966E-004	...........
	11	3.1	5.23369E-003	5.33413E-003	5.52333E-004	...........
	12	3.35833	5.25943E-003	5.28178E-003	5.54466E-004	...........
	13	3.61667	5.28357E-003	5.29516E-003	5.47366E-004	...........
	14	3.875	5.29967E-003	5.41403E-003	5.50933E-004	...........
	15	4.13333	5.31395E-003	5.40105E-003	5.53966E-004	...........
	16	4.39167	5.33613E-003	5.36373E-003	5.48533E-004	...........
	17	4.65	5.35956E-003	5.31129E-003	5.54199E-004	...........
	18	4.90833	5.36625E-003	5.21020E-003	5.60699E-004	...........
EOC	QUANT	0.0053663	Open Circuit (V)
PSTATMODEL	IQUANT	4	Pstat Model
PSTATSECTION	LABEL	REF600-11020	Pstat Section
PSTATSERIALNO	LABEL	11020	Pstat Serial Number
CTRLMODE	IQUANT	1	Control Mode
IESTAB	IQUANT	0	I/E Stability
CASPEED	IQUANT	1	Control Amp Speed
CONVENTION	IQUANT	1	Current Convention
ICHRANGE	IQUANT	2	Ich Range
ICHRANGEMODE	TOGGLE	F	Ich Auto Range
ICHOFFSETENABLE	TOGGLE	T	Ich Offset Enable
ICHOFFSET	QUANT	0	Ich Offset (V)
ICHFILTER	IQUANT	3	Ich Filter
VCHRANGE	IQUANT	2	Vch Range
VCHRANGEMODE	TOGGLE	F	Vch Auto Range
VCHOFFSETENABLE	TOGGLE	T	Vch Offset Enable
VCHOFFSET	QUANT	0	Vch Offset (V)
VCHFILTER	IQUANT	3	Vch Filter
ACHRANGE	IQUANT	2	Ach Range
ACHOFFSETENABLE	TOGGLE	F	Ach Offset Enable
ACHOFFSET	QUANT	0	Ach Offset (V)
ACHFILTER	IQUANT	3	Ach Filter
IERANGELOWERLIMIT	IQUANT	1	I/E Range Lower Limit
IERANGEMODE	TOGGLE	F	I/E AutoRange
IERANGE	IQUANT	5	I/E Range
POSFEEDENABLE	TOGGLE	F	Positive Feedback IR Comp
POSFEEDRESISTANCE	QUANT	0	Positive Feedback Resistance (ohm)
ACHSELECT	IQUANT	0	Ach Select
CABLEID	IQUANT	14	Cable ID
DCCALDATE	LABEL	8/19/2019	DC Calibration Date
ACCALDATE	LABEL	8/19/2019	AC Calibration Date
THERMOSELECT	IQUANT	1	Thermo Select
FRAMEWORKVERSION	QUANT	6.33	Framework Version
INSTRUMENTVERSION	LABEL	3.50	Instrument Version
ZCURVE	TABLE
	Pt	Time	Freq	Zreal	Zimag	Zsig	Zmod	Zphz	Idc	Vdc	IERange
	#	s	Hz	ohm	ohm	V	ohm	°	A	V	#
	0	2	1000078	2321.344	-1479.913	1	2752.958	-32.51849	1.734443E-006	0.0069655	8
	1	2	794390.6	2611.887	-1387.468	1	2957.536	-27.97781	-3.133697E-006	0.0077061	8
	2	2	630984.4	2855.712	-1259.921	1	3121.296	-23.80675	-1.590121E-006	0.0075024	8
	3	3	501234.4	3056.33	-1118.097	1	3254.426	-20.09403	1.940602E-006	0.006532	8
	4	3	398109.4	3202.565	-975.39	1	3347.806	-16.93891	-2.361285E-006	0.0074457	8
	5	3	316265.6	3319.864	-836.4792	1	3423.623	-14.14199	3.535345E-007	0.0068649	8
	6	4	251203.1	3410.171	-719.9542	1	3485.341	-11.92121	1.2229E-006	0.0066034	8
	7	4	199546.9	3480.756	-623.5547	1	3536.168	-10.15643	-2.873133E-007	0.006827	8
	8	4	158578.1	3528.432	-536.278	1	3568.953	-8.642111	-3.638064E-007	0.0068675	8
	9	5	125953.1	3590.018	-425.4319	1	3615.138	-6.758267	-5.807462E-007	0.0080825	7
	10	5	100078.1	3615.993	-384.1614	1	3636.342	-6.064331	7.86436E-009	0.0067421	7
	11	5	79453.13	3643.793	-355.9813	1	3661.141	-5.579819	-3.742309E-008	0.0068864	7
	12	6	63140.62	3671.697	-337.1122	1	3687.14	-5.245832	-1.528567E-008	0.0068273	7
	13	6	50203.12	3697.516	-326.697	1	3711.92	-5.049303	-1.635461E-008	0.0068203	7
	14	6	39890.62	3723.544	-325.2374	1	3737.721	-4.991899	-5.990272E-008	0.0068645	7
	15	7	31640.63	3749.141	-333.1424	1	3763.913	-5.077871	-3.063938E-008	0.0067887	7
	16	7	25171.88	3775.343	-347.4904	1	3791.301	-5.258805	-5.471865E-009	0.0067899	7
	17	7	20015.62	3804.437	-364.1796	1	3821.828	-5.467975	3.098938E-008	0.0067509	7
	18	7	15890.62	3831.716	-408.3905	1	3853.417	-6.083711	-3.73168E-008	0.0068733	7
	19	8	12609.37	3863.223	-454.9598	1	3889.92	-6.716609	3.466956E-008	0.0066771	7
	20	8	10078.13	3895.155	-512.6342	1	3928.744	-7.497503	-3.440311E-009	0.0067867	7
	21	8	8015.625	3922.319	-587.7358	1	3966.109	-8.522021	6.562607E-009	0.0068692	7
	22	9	6328.125	3967.527	-682.5771	1	4025.814	-9.76166	-8.317537E-009	0.0068343	7
	23	9	5015.625	4008.933	-802.3885	1	4088.443	-11.3182	-1.951061E-009	0.0067651	7
	24	9	3984.375	4044.732	-948.3754	1	4154.428	-13.19587	7.695968E-008	0.0067236	7
	25	10	3170.956	4105.234	-1129.013	1	4257.654	-15.37721	4.746818E-008	0.006709	7
	26	10	2527.573	4161.451	-1348.657	1	4374.535	-17.95665	7.081411E-009	0.006869	7
	27	10	1976.103	4231.917	-1641.834	1	4539.244	-21.20449	-5.878535E-008	0.0069594	7
	28	11	1577.524	4321.623	-1989.282	1	4757.485	-24.71704	-2.91157E-008	0.0067903	7
	29	11	1265.625	4392.93	-2373.713	1	4993.229	-28.3845	-6.016993E-008	0.0068579	7
	30	11	998.264	4498.347	-2900.335	1	5352.295	-32.81213	-5.157553E-008	0.0068775	7
	31	12	796.875	4618.186	-3520.903	1	5807.271	-37.32188	-6.073878E-008	0.0069551	7
	32	12	627.7902	4770.959	-4328.709	1	6442.032	-42.21758	7.764173E-008	0.0067207	7
	33	12	505.5147	4928.629	-5229.985	1	7186.385	-46.69919	-5.922779E-008	0.0069574	7
	34	13	397.9953	5147.645	-6455.345	1	8256.496	-51.43031	1.841249E-009	0.0068087	7
	35	13	315.5048	5409.264	-7933.294	1	9601.94	-55.71214	2.657176E-009	0.0068093	7
	36	13	252.4038	5727.802	-9679.9	1	11247.58	-59.38628	1.220543E-009	0.0067464	6
	37	14	198.6229	6160.218	-11997.78	1	13486.85	-62.82193	8.334392E-010	0.0067489	6
	38	14	158.3615	6683.595	-14697.5	1	16145.81	-65.54664	-4.33416E-010	0.0067473	6
	39	14	125.558	7389.049	-18096.18	1	19546.61	-67.78878	2.346974E-010	0.006748	6
	40	15	100.4464	8310.958	-22072.81	1	23585.61	-69.36741	2.523678E-010	0.0067463	6
	41	15	79.00281	9602.97	-27363.28	1	28999.42	-70.6618	-7.380337E-010	0.006746	6
	42	15	63.3446	10693.95	-33195.17	1	34875.21	-72.14346	5.970283E-010	0.0067419	6
	43	16	49.86702	13037.53	-40816.91	1	42848.54	-72.28574	3.575473E-010	0.0067405	6
	44	16	39.72458	16098.14	-49865.64	1	52399.73	-72.10835	6.355111E-010	0.0067451	6
	45	16	31.6723	20024.49	-60449.04	1	63679.41	-71.67191	1.310066E-009	0.0067443	6
	46	17	24.93351	25023.68	-73531.9	1	77673.19	-71.20602	-4.701599E-010	0.0067451	6
	47	17	19.86229	31340.84	-88389.13	1	93781.06	-70.47662	-4.844595E-010	0.0067409	6
	48	17	15.83615	39962.82	-106190.7	1	113461.4	-69.37714	2.515541E-010	0.0067418	5
	49	18	12.40079	52344.14	-125901.6	1	136349.3	-67.42469	2.498392E-009	0.0067455	5
	50	18	9.93114	64790.2	-149456.8	1	162896	-66.56304	-7.376684E-010	0.0067486	5
	51	18	7.944915	81469.09	-174215	1	192322.8	-64.93755	-1.246125E-009	0.0067543	5
	52	19	6.317385	103129.8	-202833.7	1	227546.2	-63.04917	-7.657037E-010	0.0067608	5
	53	20	5.008013	129090.8	-234032.9	1	267274.8	-61.11921	-4.371833E-010	0.0067416	5
	54	21	3.945707	161154	-268461.5	1	313116.9	-59.02414	1.893742E-010	0.0067402	5
	55	22	3.158693	193424.9	-302361.1	1	358936.5	-57.39235	5.116065E-011	0.0067616	5
	56	24	2.504006	232019.5	-340658.8	1	412166.8	-55.74158	-2.486522E-010	0.0067462	5
	57	25	1.998082	270819.8	-380535.4	1	467065.9	-54.56127	-1.087729E-010	0.006743	5
	58	27	1.584686	314919.5	-425926.7	1	529705.4	-53.52171	6.649033E-011	0.0067892	5
	59	29	1.266892	358405.4	-477841.1	1	597316.1	-53.12822	7.325459E-011	0.0067789	5
	60	31	0.999041	405900.9	-541671.8	1	676878.1	-53.15401	6.323164E-011	0.0067614	5
