EXPLAIN
TAG	EISPOT
TITLE	LABEL	Potentiostatic EIS	Test &Identifier
DATE	LABEL	10/12/2019	Date
TIME	LABEL	10:46:21	Time
NOTES	NOTES	1	&Notes...
	
PSTAT	PSTAT	REF600-11020	Potentiostat
VDC	POTEN	0.00000E+000	T	DC &Voltage (V)
FREQINIT	QUANT	1.00000E+006	Initial Fre&q. (Hz)
FREQFINAL	QUANT	1.00000E+000	Final Fre&q. (Hz)
PTSPERDEC	QUANT	1.00000E+001	Points/&decade
VAC	QUANT	2.50000E+001	AC &Voltage (mV rms)
AREA	QUANT	1.00000E-002	&Area (cm^2)
CONDIT	TWOPARAM	T	5.00000E+000	0.00000E+000	Conditionin&g	Time(s)	E(V)
DELAY	TWOPARAM	T	5.00000E+000	0.00000E+000	Init. De&lay	Time(s)	Stab.(mV/s)
SPEED	SELECTOR	1	&Optimize for:
ZGUESS	QUANT	1.00000E+004	E&stimated Z (ohms)
OCVCURVE	TABLE	19
	Pt	T	Vf	Vm	Ach	Over
	#	s	V vs. Ref.	V	V	bits
	0	0.258333	-7.18951E-002	-7.18951E-002	5.57599E-004	...........
	1	0.516667	-6.58442E-002	2.44848E-001	5.57966E-004	...........
	2	0.775	-3.34171E-002	2.97521E-001	5.56533E-004	...........
	3	1.03333	4.29257E-002	3.65214E-001	5.59166E-004	...........
	4	1.29167	1.44154E-001	9.78167E-002	5.58899E-004	...........
	5	1.55	2.17374E-001	6.53310E-002	5.53799E-004	...........
	6	1.80833	2.24014E-001	4.48907E-002	5.55733E-004	...........
	7	2.06667	1.76192E-001	5.85269E-002	5.48766E-004	...........
	8	2.325	1.16441E-001	4.51205E-002	5.51832E-004	...........
	9	2.58333	7.49243E-002	7.45781E-002	5.47099E-004	...........
	10	2.84167	5.50660E-002	-3.69448E-002	5.48033E-004	...........
	11	3.1	4.40008E-002	1.24514E-002	5.56899E-004	...........
	12	3.35833	3.10767E-002	3.11182E-002	5.54133E-004	.........v.
	13	3.61667	1.84016E-002	-2.21195E-002	5.61299E-004	...........
	14	3.875	1.02033E-002	-7.58739E-003	5.60099E-004	...........
	15	4.13333	4.72852E-003	2.84428E-002	5.54599E-004	.........v.
	16	4.39167	2.42623E-003	3.50307E-002	5.62132E-004	...........
	17	4.65	6.14546E-003	1.90754E-004	5.59132E-004	...........
	18	4.90833	1.30053E-002	3.08665E-002	5.55033E-004	.........v.
EOC	QUANT	0.0130053	Open Circuit (V)
PSTATMODEL	IQUANT	4	Pstat Model
PSTATSECTION	LABEL	REF600-11020	Pstat Section
PSTATSERIALNO	LABEL	11020	Pstat Serial Number
CTRLMODE	IQUANT	1	Control Mode
IESTAB	IQUANT	0	I/E Stability
CASPEED	IQUANT	1	Control Amp Speed
CONVENTION	IQUANT	1	Current Convention
ICHRANGE	IQUANT	2	Ich Range
ICHRANGEMODE	TOGGLE	F	Ich Auto Range
ICHOFFSETENABLE	TOGGLE	T	Ich Offset Enable
ICHOFFSET	QUANT	0	Ich Offset (V)
ICHFILTER	IQUANT	3	Ich Filter
VCHRANGE	IQUANT	2	Vch Range
VCHRANGEMODE	TOGGLE	F	Vch Auto Range
VCHOFFSETENABLE	TOGGLE	T	Vch Offset Enable
VCHOFFSET	QUANT	0	Vch Offset (V)
VCHFILTER	IQUANT	3	Vch Filter
ACHRANGE	IQUANT	2	Ach Range
ACHOFFSETENABLE	TOGGLE	F	Ach Offset Enable
ACHOFFSET	QUANT	0	Ach Offset (V)
ACHFILTER	IQUANT	3	Ach Filter
IERANGELOWERLIMIT	IQUANT	1	I/E Range Lower Limit
IERANGEMODE	TOGGLE	F	I/E AutoRange
IERANGE	IQUANT	6	I/E Range
POSFEEDENABLE	TOGGLE	F	Positive Feedback IR Comp
POSFEEDRESISTANCE	QUANT	0	Positive Feedback Resistance (ohm)
ACHSELECT	IQUANT	0	Ach Select
CABLEID	IQUANT	14	Cable ID
DCCALDATE	LABEL	8/19/2019	DC Calibration Date
ACCALDATE	LABEL	8/19/2019	AC Calibration Date
THERMOSELECT	IQUANT	1	Thermo Select
FRAMEWORKVERSION	QUANT	6.33	Framework Version
INSTRUMENTVERSION	LABEL	3.50	Instrument Version
ZCURVE	TABLE
	Pt	Time	Freq	Zreal	Zimag	Zsig	Zmod	Zphz	Idc	Vdc	IERange
	#	s	Hz	ohm	ohm	V	ohm	°	A	V	#
	0	2	1000078	931.2843	-9038.54	1	9086.391	-84.1173	-3.143814E-006	0.0160414	8
	1	4	794390.6	913.3862	-11178.24	1	11215.5	-85.32867	2.61339E-006	0.0142212	8
	2	6	630984.4	1294.242	-14078.54	1	14137.9	-84.74755	4.890468E-006	0.0135967	8
	3	7	501234.4	1375.819	-17366.31	1	17420.73	-85.47029	9.572158E-007	0.0145017	8
	4	9	398109.4	1425.359	-21833.77	1	21880.24	-86.2649	-8.485576E-007	0.0149125	8
	5	11	316265.6	1544.957	-28275.08	1	28317.26	-86.87245	-1.735205E-006	0.0150727	8
	6	12	251203.1	2234.416	-36553.98	1	36622.21	-86.50207	3.75851E-007	0.0146392	8
	7	14	199546.9	2587.963	-42184.55	1	42263.86	-86.48939	4.750386E-007	0.0144144	8
	8	15	158578.1	4648.777	-53486.77	1	53688.41	-85.03265	3.640862E-007	0.0146382	8
	9	17	125953.1	1800.465	-66267.95	1	66292.4	-88.44369	-9.1642E-007	0.0164444	7
	10	19	100078.1	5098.812	-82757.65	1	82914.57	-86.47439	-2.755469E-008	0.0145481	7
	11	20	79453.13	6169.694	-103565.3	1	103748.9	-86.59074	-4.836832E-009	0.0146121	7
	12	22	63140.62	7308.729	-129626.4	1	129832.3	-86.77291	-6.512341E-009	0.0145401	7
	13	24	50203.12	8983.271	-161661	1	161910.4	-86.81943	5.760024E-008	0.0144634	7
	14	25	39890.62	10833.69	-203755.5	1	204043.3	-86.95644	1.162246E-007	0.0144436	7
	15	27	31640.63	12799.57	-252208.2	1	252532.8	-87.09473	1.902182E-008	0.0146491	7
	16	29	25171.88	17139.39	-317285.7	1	317748.3	-86.90796	9.634413E-008	0.0143564	7
	17	30	20015.62	21351.34	-396440.2	1	397014.8	-86.91716	-8.74502E-008	0.0148165	7
	18	32	15890.62	24954.66	-494716.3	1	495345.3	-87.11231	9.822955E-008	0.0143477	7
	19	33	12609.37	36982.8	-614440.3	1	615552.3	-86.55556	-3.953636E-009	0.0143811	6
	20	35	10078.13	43613.39	-771291.3	1	772523.4	-86.7636	1.921796E-008	0.0141304	6
	21	37	8015.625	-8656.814	-848439.5	1	848483.7	-90.58458	-4.328916E-009	0.0143915	6
	22	38	6328.125	73583.24	-1206852	1	1209093	-86.51093	1.930755E-008	0.014129	6
	23	40	5015.625	101662	-1510161	1	1513579	-86.14874	-1.323063E-008	0.0145652	6
	24	42	3984.375	162562.1	-1752932	1	1760453	-84.7017	1.340126E-009	0.0146172	6
	25	43	3170.956	113845.3	-2303950	1	2306761	-87.17114	-6.914979E-009	0.0145155	6
	26	45	2527.573	255846.6	-2848851	1	2860317	-84.86821	-1.255824E-008	0.0146085	6
	27	47	1976.103	-26425.24	-3953420	1	3953509	-90.38297	-7.114349E-009	0.0145198	6
	28	49	1577.524	15744.01	-5059984	1	5060008	-89.82172	-8.475538E-009	0.014566	6
	29	50	1265.625	551149.1	-5691854	1	5718476	-84.46922	-4.722919E-010	0.0146764	5
	30	52	998.264	318001.2	-6929813	1	6937105	-87.3726	-5.442555E-010	0.014426	5
	31	54	796.875	202202.2	-9297573	1	9299771	-88.75414	-1.77442E-009	0.0146024	5
	32	55	627.7902	641811.8	-1.079479E+007	1	1.081386E+007	-86.59744	-8.953676E-010	0.0144272	5
	33	57	505.5147	1277976	-1.360782E+007	1	1.36677E+007	-84.63482	-5.97734E-010	0.0145126	5
	34	58	397.9953	492306.5	-1.580366E+007	1	1.581133E+007	-88.21573	9.513317E-011	0.0144971	5
	35	60	315.5048	1845845	-2.101811E+007	1	2.109901E+007	-84.98106	6.31487E-010	0.0144931	5
	36	61	252.4038	5134413	-2.622292E+007	1	2.672085E+007	-78.92171	-5.10338E-010	0.0144957	5
	37	63	198.6229	5594621	-3.095592E+007	1	3.145741E+007	-79.75559	2.547941E-010	0.0144984	5
	38	64	158.3615	-6146486	-4.476457E+007	1	4.518458E+007	-97.8182	3.103469E-010	0.0144909	5
	39	66	125.558	1.369886E+007	-5.98017E+007	1	6.135065E+007	-77.09778	-1.937615E-010	0.0144971	4
	40	67	100.4464	1.083034E+007	-4.613814E+007	1	4.739224E+007	-76.78971	3.202852E-011	0.0144955	5
	41	69	79.00281	3.740772E+007	1.342889E+007	1	3.97451E+007	19.74748	1.924356E-010	0.0144986	4
	42	71	63.3446	-3879777	-4580672	1	6002934	-130.2642	3.534939E-010	0.0144909	4
	43	73	49.86702	4.254446E+007	-1.849456E+007	1	4.639051E+007	-23.49514	1.664258E-011	0.0144865	5
	44	75	39.72458	-5.29917E+007	-3.491236E+007	1	6.345859E+007	-146.622	-7.742892E-011	0.0144882	4
	45	76	31.6723	6.146234E+007	-5557051	1	6.171305E+007	-5.166289	3.630096E-011	0.0144887	5
	46	78	24.93351	4.407668E+007	-1.035573E+008	1	1.125472E+008	-66.94414	1.047814E-010	0.0144846	5
	47	80	19.86229	5.33298E+007	9.782697E+007	1	1.11419E+008	61.40325	2.201801E-010	0.01449	4
	48	82	15.83615	8561267	-1.921146E+007	1	2.103272E+007	-65.98065	7.059371E-010	0.0144816	4
	49	83	12.40079	2.141976E+007	-3503182	1	2.170434E+007	-9.288436	-7.161565E-010	0.0144962	4
	50	85	9.93114	-1.147865E+008	-2.296162E+007	1	1.170606E+008	-168.688	-1.561364E-010	0.0144828	4
	51	87	7.944915	2.599208E+008	1.059796E+008	1	2.806964E+008	22.18259	-3.935481E-012	0.0144899	4
	52	89	6.317385	4.221565E+008	-2.273195E+008	1	4.794687E+008	-28.30123	2.163107E-011	0.0144868	4
	53	92	5.008013	4.290769E+008	1.940737E+008	1	4.709263E+008	24.33749	5.013773E-011	0.0144867	4
	54	95	3.945707	2.268271E+008	2.923354E+007	1	2.287032E+008	7.343813	-2.96039E-011	0.0144919	4
	55	99	3.158693	5.088449E+008	-1.423549E+008	1	5.283825E+008	-15.62954	2.02974E-011	0.0145044	4
	56	103	2.504006	1.279756E+009	-3.362482E+008	1	1.323192E+009	-14.72139	4.006989E-011	0.014473	3
	57	107	1.998082	1.347623E+009	-3.195316E+008	1	1.384987E+009	-13.33893	4.004892E-011	0.0145229	3
	58	112	1.584686	1.378039E+009	-2.468124E+008	1	1.399967E+009	-10.15425	3.995691E-011	0.0144361	3
	59	119	1.266892	3.529195E+009	-8.558924E+008	1	3.631497E+009	-13.63206	-6.449521E-013	0.0144685	2
	60	126	0.999041	6.508679E+009	-2.487733E+009	1	6.967906E+009	-20.91775	-1.327175E-012	0.0145034	2
