EXPLAIN
TAG	EISPOT
TITLE	LABEL	Potentiostatic IDE	Test &Identifier
DATE	LABEL	9/18/2019	Date
TIME	LABEL	9:06:05	Time
NOTES	NOTES	1	&Notes...
	
PSTAT	PSTAT	REF600-11020	Potentiostat
VDC	POTEN	0.00000E+000	T	DC &Voltage (V)
FREQINIT	QUANT	1.00000E+006	Initial Fre&q. (Hz)
FREQFINAL	QUANT	1.00000E+000	Final Fre&q. (Hz)
PTSPERDEC	QUANT	1.00000E+001	Points/&decade
VAC	QUANT	2.50000E+001	AC &Voltage (mV rms)
AREA	QUANT	1.00000E-002	&Area (cm^2)
CONDIT	TWOPARAM	T	5.00000E+000	0.00000E+000	Conditionin&g	Time(s)	E(V)
DELAY	TWOPARAM	T	5.00000E+000	0.00000E+000	Init. De&lay	Time(s)	Stab.(mV/s)
SPEED	SELECTOR	1	&Optimize for:
ZGUESS	QUANT	1.00000E+007	E&stimated Z (ohms)
OCVCURVE	TABLE	19
	Pt	T	Vf	Vm	Ach	Over
	#	s	V vs. Ref.	V	V	bits
	0	0.258333	5.64271E-003	5.64271E-003	5.61566E-004	...........
	1	0.516667	5.63809E-003	5.40083E-003	5.63199E-004	...........
	2	0.775	5.61000E-003	5.18646E-003	5.65032E-004	...........
	3	1.03333	5.53180E-003	4.99736E-003	5.66932E-004	...........
	4	1.29167	5.39580E-003	4.85199E-003	5.64999E-004	...........
	5	1.55	5.22339E-003	4.71233E-003	5.66499E-004	...........
	6	1.80833	5.04539E-003	4.60005E-003	5.67866E-004	...........
	7	2.06667	4.88140E-003	4.45943E-003	5.66432E-004	...........
	8	2.325	4.73514E-003	4.33506E-003	5.63466E-004	...........
	9	2.58333	4.60023E-003	4.17733E-003	5.69766E-004	...........
	10	2.84167	4.46727E-003	4.00490E-003	5.61332E-004	...........
	11	3.1	4.32966E-003	3.92909E-003	5.64832E-004	...........
	12	3.35833	4.20096E-003	4.41107E-003	5.68966E-004	...........
	13	3.61667	4.12700E-003	4.31901E-003	5.61866E-004	...........
	14	3.875	4.13289E-003	3.91720E-003	5.68132E-004	...........
	15	4.13333	4.16013E-003	3.78995E-003	5.64966E-004	...........
	16	4.39167	4.12132E-003	3.60375E-003	5.69866E-004	...........
	17	4.65	3.97592E-003	2.41496E-003	5.73799E-004	...........
	18	4.90833	3.74136E-003	4.42251E-003	5.69799E-004	...........
EOC	QUANT	0.0037414	Open Circuit (V)
PSTATMODEL	IQUANT	4	Pstat Model
PSTATSECTION	LABEL	REF600-11020	Pstat Section
PSTATSERIALNO	LABEL	11020	Pstat Serial Number
CTRLMODE	IQUANT	1	Control Mode
IESTAB	IQUANT	0	I/E Stability
CASPEED	IQUANT	1	Control Amp Speed
CONVENTION	IQUANT	1	Current Convention
ICHRANGE	IQUANT	2	Ich Range
ICHRANGEMODE	TOGGLE	F	Ich Auto Range
ICHOFFSETENABLE	TOGGLE	T	Ich Offset Enable
ICHOFFSET	QUANT	0	Ich Offset (V)
ICHFILTER	IQUANT	3	Ich Filter
VCHRANGE	IQUANT	2	Vch Range
VCHRANGEMODE	TOGGLE	F	Vch Auto Range
VCHOFFSETENABLE	TOGGLE	T	Vch Offset Enable
VCHOFFSET	QUANT	0	Vch Offset (V)
VCHFILTER	IQUANT	3	Vch Filter
ACHRANGE	IQUANT	2	Ach Range
ACHOFFSETENABLE	TOGGLE	F	Ach Offset Enable
ACHOFFSET	QUANT	0	Ach Offset (V)
ACHFILTER	IQUANT	3	Ach Filter
IERANGELOWERLIMIT	IQUANT	1	I/E Range Lower Limit
IERANGEMODE	TOGGLE	F	I/E AutoRange
IERANGE	IQUANT	2	I/E Range
POSFEEDENABLE	TOGGLE	F	Positive Feedback IR Comp
POSFEEDRESISTANCE	QUANT	0	Positive Feedback Resistance (ohm)
ACHSELECT	IQUANT	0	Ach Select
CABLEID	IQUANT	14	Cable ID
DCCALDATE	LABEL	8/19/2019	DC Calibration Date
ACCALDATE	LABEL	8/19/2019	AC Calibration Date
THERMOSELECT	IQUANT	1	Thermo Select
FRAMEWORKVERSION	QUANT	6.33	Framework Version
INSTRUMENTVERSION	LABEL	3.50	Instrument Version
ZCURVE	TABLE
	Pt	Time	Freq	Zreal	Zimag	Zsig	Zmod	Zphz	Idc	Vdc	IERange
	#	s	Hz	ohm	ohm	V	ohm	°	A	V	#
	0	1	1000078	2133.428	-1983.871	1	2913.29	-42.91969	3.134243E-007	0.0061128	8
	1	3	794390.6	2557.78	-1986.948	1	3238.858	-37.84096	-4.342771E-007	0.0057639	8
	2	4	630984.4	2962.006	-1899.269	1	3518.623	-32.66841	-5.570712E-007	0.0057673	8
	3	5	501234.4	3326.089	-1773.399	1	3769.325	-28.06557	9.694559E-007	0.0052968	8
	4	7	398109.4	3654.903	-1605.796	1	3992.104	-23.71848	-2.32731E-006	0.0058263	8
	5	8	316265.6	3865.237	-1414.118	1	4115.797	-20.09533	-5.91149E-007	0.0054572	8
	6	9	251203.1	4033.371	-1248.359	1	4222.142	-17.19769	8.41966E-007	0.0051946	8
	7	11	199546.9	4178.611	-1100.65	1	4321.137	-14.75659	4.612577E-007	0.0052495	8
	8	12	158578.1	4278.945	-950.499	1	4383.243	-12.52399	-6.990562E-007	0.0054383	8
	9	13	125953.1	4392.003	-830.4259	1	4469.821	-10.70691	3.290522E-007	0.0045012	7
	10	15	100078.1	4454.449	-754.8128	1	4517.948	-9.6175	-2.209599E-008	0.0053509	7
	11	16	79453.13	4516.596	-707.2278	1	4571.631	-8.899353	-2.152873E-008	0.0053434	7
	12	17	63140.62	4574.479	-680.1296	1	4624.764	-8.456737	5.420349E-008	0.0052588	7
	13	19	50203.12	4629.581	-670.2267	1	4677.844	-8.237508	-4.977946E-008	0.0053893	7
	14	20	39890.62	4684.546	-672.0325	1	4732.504	-8.1638	1.813542E-009	0.0053441	7
	15	21	31640.63	4747.021	-704.3435	1	4798.99	-8.439737	5.712472E-009	0.0052728	7
	16	23	25171.88	4809.962	-745.5035	1	4867.393	-8.810261	-2.267108E-008	0.0053309	7
	17	24	20015.62	4877.917	-803.0628	1	4943.581	-9.348875	6.062538E-009	0.0052729	7
	18	25	15890.62	4952.608	-883.792	1	5030.847	-10.11792	1.885645E-008	0.0053378	7
	19	27	12609.37	5035.458	-980.793	1	5130.086	-11.02192	3.729403E-009	0.0053442	7
	20	28	10078.13	5126.177	-1095.988	1	5242.03	-12.06827	-3.204422E-008	0.0053313	7
	21	29	8015.625	5222.853	-1236.063	1	5367.126	-13.31488	2.145681E-008	0.0052207	7
	22	31	6328.125	5335.655	-1413.638	1	5519.746	-14.83911	5.557709E-008	0.0051623	7
	23	32	5015.625	5456.477	-1622.681	1	5692.647	-16.56175	-4.93122E-008	0.0053795	7
	24	33	3984.375	5588.028	-1874.42	1	5894.023	-18.54326	-1.922842E-008	0.0053288	7
	25	35	3170.956	5729.496	-2172.753	1	6127.64	-20.76785	-5.064163E-008	0.0053799	7
	26	36	2527.573	5888.448	-2532.137	1	6409.8	-23.26856	5.917103E-008	0.005253	7
	27	37	1976.103	6076.49	-3008.149	1	6780.317	-26.33758	-1.003617E-009	0.0053117	7
	28	39	1577.524	6271.667	-3537.718	1	7200.643	-29.42645	8.421118E-009	0.0052691	7
	29	40	1265.625	6461.296	-4185.056	1	7698.25	-32.93159	8.505095E-008	0.0051544	7
	30	41	998.264	6737.686	-4984.967	1	8381.308	-36.49638	5.646906E-008	0.0051658	7
	31	43	796.875	7006.542	-5934.3	1	9181.914	-40.26345	-7.224447E-009	0.005255	7
	32	44	627.7902	7338.948	-7179.552	1	10266.75	-44.37099	-4.476018E-009	0.0052827	6
	33	45	505.5147	7683.72	-8551.11	1	11496.13	-48.05828	-2.073312E-009	0.0052979	6
	34	47	397.9953	8122.476	-10413.62	1	13206.74	-52.04626	6.04355E-010	0.0052567	6
	35	48	315.5048	8621.877	-12641.99	1	15302.18	-55.70589	7.406977E-010	0.0052568	6
	36	49	252.4038	9190.822	-15266.04	1	17819.18	-58.95022	1.270198E-009	0.0052548	6
	37	51	198.6229	9920.32	-18733.91	1	21198.4	-62.09707	9.930092E-010	0.0052492	6
	38	52	158.3615	10751.1	-22777.19	1	25187.03	-64.73215	4.597558E-010	0.0052479	6
	39	53	125.558	11797.89	-27870.18	1	30264.45	-67.05628	7.317679E-010	0.0052544	6
	40	55	100.4464	13026.09	-33879.44	1	36297.32	-68.96906	1.297565E-009	0.0052527	6
	41	56	79.00281	14672.29	-41838.21	1	44336.36	-70.67468	3.131414E-010	0.0052501	6
	42	57	63.3446	17181.75	-50638.93	1	53474.43	-71.25797	7.267323E-010	0.0052466	6
	43	59	49.86702	19300.98	-62993.89	1	65884.44	-72.96523	8.446514E-011	0.0052463	6
	44	60	39.72458	22939.51	-76471.7	1	79838.22	-73.30213	9.055832E-010	0.0052429	6
	45	61	31.6723	27585.23	-93524.92	1	97508.2	-73.56654	3.170395E-010	0.0052452	6
	46	63	24.93351	33902.52	-114646	1	119553.6	-73.52626	2.480602E-010	0.005246	5
	47	64	19.86229	41986.49	-139258.9	1	145450.7	-73.22197	2.460422E-010	0.0052525	5
	48	65	15.83615	52482.89	-168058.4	1	176062.7	-72.65696	5.349584E-010	0.0052567	5
	49	67	12.40079	67227.38	-206891.7	1	217540.1	-71.99895	3.352634E-010	0.005259	5
	50	68	9.93114	86321.3	-247420.1	1	262045.9	-70.76685	1.782264E-010	0.0052601	5
	51	70	7.944915	110567.2	-293978.3	1	314083.4	-69.3884	-1.328422E-010	0.0052584	5
	52	71	6.317385	143458.1	-349586.2	1	377876.6	-67.68845	-3.02351E-011	0.0052612	5
	53	73	5.008013	186046.6	-413179.1	1	453133.9	-65.75887	5.274579E-011	0.0052499	5
	54	76	3.945707	240387.6	-483283.6	1	539767.8	-63.55402	3.116772E-010	0.005256	5
	55	78	3.158693	301957.5	-553683.8	1	630669.6	-61.39367	2.425568E-010	0.0052775	5
	56	82	2.504006	377865.9	-633415.1	1	737561.7	-59.18167	-7.98702E-011	0.0052516	5
	57	84	1.998082	462645.3	-711959.1	1	849073.9	-56.98338	7.219354E-011	0.0052191	5
	58	88	1.584686	557181.6	-797551.4	1	972903	-55.06126	2.556368E-011	0.0052512	5
	59	91	1.266892	660884.3	-882534.3	1	1102558	-53.17236	1.291794E-010	0.0052111	4
	60	95	0.999041	775701.3	-983766	1	1252800	-51.74415	-4.757366E-011	0.0052828	4
