EXPLAIN
TAG	EISPOT
TITLE	LABEL	Potentiostatic EIS	Test &Identifier
DATE	LABEL	11/12/2019	Date
TIME	LABEL	22:58:37	Time
NOTES	NOTES	3	&Notes...
	
	
	
PSTAT	PSTAT	REF600-11020	Potentiostat
VDC	POTEN	0.00000E+000	T	DC &Voltage (V)
FREQINIT	QUANT	1.00000E+006	Initial Fre&q. (Hz)
FREQFINAL	QUANT	1.00000E+000	Final Fre&q. (Hz)
PTSPERDEC	QUANT	1.00000E+001	Points/&decade
VAC	QUANT	2.50000E+001	AC &Voltage (mV rms)
AREA	QUANT	1.00000E-002	&Area (cm^2)
CONDIT	TWOPARAM	T	5.00000E+000	0.00000E+000	Conditionin&g	Time(s)	E(V)
DELAY	TWOPARAM	T	5.00000E+000	0.00000E+000	Init. De&lay	Time(s)	Stab.(mV/s)
SPEED	SELECTOR	1	&Optimize for:
ZGUESS	QUANT	1.00000E+005	E&stimated Z (ohms)
OCVCURVE	TABLE	19
	Pt	T	Vf	Vm	Ach	Over
	#	s	V vs. Ref.	V	V	bits
	0	0.258333	5.90963E-003	5.90963E-003	5.64999E-004	...........
	1	0.516667	5.90892E-003	5.87232E-003	5.67766E-004	...........
	2	0.775	5.90485E-003	5.85309E-003	5.67299E-004	...........
	3	1.03333	5.89452E-003	5.84315E-003	5.67299E-004	...........
	4	1.29167	5.87898E-003	5.84558E-003	5.70632E-004	...........
	5	1.55	5.86343E-003	5.84988E-003	5.70099E-004	...........
	6	1.80833	5.85307E-003	5.86474E-003	5.69899E-004	...........
	7	2.06667	5.85022E-003	5.87825E-003	5.71832E-004	...........
	8	2.325	5.85473E-003	5.90100E-003	5.66766E-004	...........
	9	2.58333	5.86530E-003	5.91744E-003	5.65066E-004	...........
	10	2.84167	5.88035E-003	5.94405E-003	5.64399E-004	...........
	11	3.1	5.89848E-003	5.95931E-003	5.62666E-004	...........
	12	3.35833	5.91851E-003	5.98954E-003	5.63832E-004	...........
	13	3.61667	5.93990E-003	6.01560E-003	5.67766E-004	...........
	14	3.875	5.96284E-003	6.04258E-003	5.69599E-004	...........
	15	4.13333	5.98744E-003	6.06415E-003	5.66099E-004	...........
	16	4.39167	6.01301E-003	6.09410E-003	5.54466E-004	...........
	17	4.65	6.03884E-003	6.11962E-003	5.64999E-004	...........
	18	4.90833	6.06496E-003	6.15211E-003	5.67599E-004	...........
EOC	QUANT	0.006065	Open Circuit (V)
PSTATMODEL	IQUANT	4	Pstat Model
PSTATSECTION	LABEL	REF600-11020	Pstat Section
PSTATSERIALNO	LABEL	11020	Pstat Serial Number
CTRLMODE	IQUANT	1	Control Mode
IESTAB	IQUANT	0	I/E Stability
CASPEED	IQUANT	1	Control Amp Speed
CONVENTION	IQUANT	1	Current Convention
ICHRANGE	IQUANT	2	Ich Range
ICHRANGEMODE	TOGGLE	F	Ich Auto Range
ICHOFFSETENABLE	TOGGLE	T	Ich Offset Enable
ICHOFFSET	QUANT	0	Ich Offset (V)
ICHFILTER	IQUANT	3	Ich Filter
VCHRANGE	IQUANT	2	Vch Range
VCHRANGEMODE	TOGGLE	F	Vch Auto Range
VCHOFFSETENABLE	TOGGLE	T	Vch Offset Enable
VCHOFFSET	QUANT	0	Vch Offset (V)
VCHFILTER	IQUANT	3	Vch Filter
ACHRANGE	IQUANT	2	Ach Range
ACHOFFSETENABLE	TOGGLE	F	Ach Offset Enable
ACHOFFSET	QUANT	0	Ach Offset (V)
ACHFILTER	IQUANT	3	Ach Filter
IERANGELOWERLIMIT	IQUANT	1	I/E Range Lower Limit
IERANGEMODE	TOGGLE	F	I/E AutoRange
IERANGE	IQUANT	5	I/E Range
POSFEEDENABLE	TOGGLE	F	Positive Feedback IR Comp
POSFEEDRESISTANCE	QUANT	0	Positive Feedback Resistance (ohm)
ACHSELECT	IQUANT	0	Ach Select
CABLEID	IQUANT	14	Cable ID
DCCALDATE	LABEL	8/19/2019	DC Calibration Date
ACCALDATE	LABEL	8/19/2019	AC Calibration Date
THERMOSELECT	IQUANT	1	Thermo Select
FRAMEWORKVERSION	QUANT	6.33	Framework Version
INSTRUMENTVERSION	LABEL	3.50	Instrument Version
ZCURVE	TABLE
	Pt	Time	Freq	Zreal	Zimag	Zsig	Zmod	Zphz	Idc	Vdc	IERange
	#	s	Hz	ohm	ohm	V	ohm	°	A	V	#
	0	2	1000078	1971.38	-1317.154	1	2370.914	-33.74839	2.526419E-006	0.0087805	8
	1	3	794390.6	2230.958	-1232.99	1	2549.008	-28.92823	-9.746607E-007	0.0075498	8
	2	5	630984.4	2453.959	-1131.377	1	2702.209	-24.75167	-5.846241E-006	0.0086464	8
	3	6	501234.4	2633.876	-1018.095	1	2823.796	-21.13345	-7.370897E-007	0.007455	8
	4	7	398109.4	2781.513	-907.892	1	2925.933	-18.0768	-2.300063E-006	0.0075235	8
	5	9	316265.6	2889.929	-791.1818	1	2996.274	-15.31082	-2.218891E-006	0.0080502	8
	6	10	251203.1	2983.443	-692.8282	1	3062.832	-13.07375	-2.604471E-007	0.007978	8
	7	11	199546.9	3051.728	-611.5576	1	3112.402	-11.33181	-3.283849E-007	0.007976	8
	8	13	158578.1	3124.17	-553.4222	1	3172.808	-10.04529	-1.402405E-006	0.0073772	8
	9	14	125953.1	3167.266	-465.25	1	3201.255	-8.3566	-1.96907E-006	0.010436	7
	10	16	100078.1	3210.646	-420.8262	1	3238.107	-7.467312	-9.366769E-007	0.008929	7
	11	17	79453.13	3246.92	-398.3562	1	3271.265	-6.994517	7.250949E-007	0.0073007	7
	12	18	63140.62	3282.942	-386.138	1	3305.573	-6.708279	7.255325E-007	0.0072984	7
	13	20	50203.12	3319.038	-381.0872	1	3340.844	-6.549937	9.276678E-007	0.0062485	7
	14	21	39890.62	3352.099	-382.6729	1	3373.871	-6.512646	-1.052063E-006	0.0087682	7
	15	22	31640.63	3389.873	-396.2612	1	3412.955	-6.667365	8.346536E-007	0.0060591	7
	16	24	25171.88	3424.703	-415.8135	1	3449.854	-6.922736	-2.75157E-007	0.0067905	7
	17	25	20015.62	3462.133	-442.6526	1	3490.316	-7.286049	-9.104608E-007	0.0079719	7
	18	27	15890.62	3505.157	-484.6605	1	3538.506	-7.87241	7.296986E-007	0.0072867	7
	19	28	12609.37	3547.938	-534.8967	1	3588.033	-8.573499	8.347161E-007	0.0060533	7
	20	29	10078.13	3592.122	-597.6254	1	3641.496	-9.445847	5.416855E-007	0.0076597	7
	21	31	8015.625	3645.737	-675.8948	1	3707.861	-10.503	9.302776E-007	0.0062404	7
	22	32	6328.125	3690.955	-773.6143	1	3771.157	-11.83768	6.588265E-007	0.0059882	7
	23	33	5015.625	3745.715	-895.715	1	3851.323	-13.44862	9.484628E-007	0.0065137	7
	24	35	3984.375	3802.182	-1046.296	1	3943.516	-15.386	-6.399223E-007	0.0073842	7
	25	36	3170.956	3862.826	-1226.99	1	4053.015	-17.62195	-1.054371E-006	0.0087613	7
	26	37	2527.573	3934.502	-1453.387	1	4194.358	-20.274	6.594781E-007	0.0059823	7
	27	39	1976.103	4019.829	-1755.469	1	4386.421	-23.59101	8.326267E-007	0.0060591	7
	28	40	1577.524	4102.277	-2093.395	1	4605.538	-27.03525	8.326471E-007	0.0060561	7
	29	42	1265.625	4214.238	-2505.626	1	4902.853	-30.73412	5.398072E-007	0.007659	7
	30	43	998.264	4344.095	-3044.297	1	5304.612	-35.02238	8.791815E-007	0.0068719	7
	31	44	796.875	4491.522	-3666.435	1	5797.975	-39.22481	-6.356952E-007	0.0073833	7
	32	46	627.7902	4676.471	-4477.842	1	6474.601	-43.757	-7.570693E-007	0.008942	7
	33	47	505.5147	4870.026	-5377.378	1	7254.885	-47.83442	3.563613E-007	0.0079276	7
	34	48	397.9953	5129.53	-6591.189	1	8351.997	-52.1085	6.645915E-009	0.0075201	7
	35	50	315.5048	5427.577	-8045.653	1	9705.21	-55.9965	5.326748E-009	0.0075215	7
	36	51	252.4038	5772.429	-9758.64	1	11338.08	-59.39484	1.239497E-009	0.0074643	6
	37	53	198.6229	6221.859	-12027.89	1	13541.84	-62.6481	9.48489E-010	0.0074577	6
	38	54	158.3615	6745.534	-14675.34	1	16151.4	-65.31408	1.164786E-009	0.0074662	6
	39	55	125.558	7423.458	-18008.12	1	19478.2	-67.59715	1.017258E-009	0.0074552	6
	40	57	100.4464	8245.053	-21948.18	1	23445.76	-69.41081	-7.959675E-011	0.0074612	6
	41	58	79.00281	9397.942	-27099.09	1	28682.44	-70.8735	-1.78332E-010	0.0074627	6
	42	59	63.3446	10938	-32819.76	1	34594.46	-71.56807	6.40162E-010	0.007448	6
	43	61	49.86702	12801.15	-40861.42	1	42819.68	-72.60516	5.017065E-010	0.0074544	6
	44	62	39.72458	15264.15	-49665.89	1	51958.59	-72.91589	1.312353E-009	0.0074553	6
	45	64	31.6723	18390.82	-60375.85	1	63114.7	-73.05897	1.126562E-009	0.0074547	6
	46	65	24.93351	23058.21	-74059.12	1	77565.67	-72.70609	4.80522E-010	0.0074587	6
	47	66	19.86229	28955.89	-89650.66	1	94210.84	-72.10028	1.272642E-009	0.0074539	6
	48	68	15.83615	36770.04	-107675.2	1	113780.4	-71.14547	3.608169E-010	0.0074548	5
	49	69	12.40079	46666.06	-131381.3	1	139423	-70.44518	4.697161E-011	0.0074578	5
	50	71	9.93114	60290.05	-155548.5	1	166824	-68.81385	4.273623E-010	0.0074589	5
	51	72	7.944915	77099.9	-183324.2	1	198877.3	-67.19004	5.881497E-011	0.0074564	5
	52	74	6.317385	97936.4	-215158.5	1	236399.5	-65.52579	6.684789E-010	0.0074649	5
	53	76	5.008013	124339.3	-251209.4	1	280297	-63.66631	4.192687E-010	0.0074751	5
	54	78	3.945707	157219.8	-291249.5	1	330974.8	-61.63933	-9.296952E-011	0.0074527	5
	55	81	3.158693	192562.3	-331209.1	1	383118.4	-59.82663	3.051329E-010	0.0074766	5
	56	84	2.504006	234665.5	-376923.5	1	444003.7	-58.09438	-2.575152E-010	0.0074579	5
	57	87	1.998082	279823.3	-424186	1	508168.1	-56.58831	-1.67212E-010	0.0074317	5
	58	90	1.584686	330374.3	-476145.8	1	579536	-55.24511	2.791128E-012	0.0075074	5
	59	94	1.266892	382035.4	-535351.8	1	657687.3	-54.48775	-1.695557E-010	0.0074518	5
	60	98	0.999041	441893.4	-606526	1	750428.9	-53.92424	2.943968E-010	0.0074885	5
