EXPLAIN
TAG	EISPOT
TITLE	LABEL	Potentiostatic EIS	Test &Identifier
DATE	LABEL	10/26/2019	Date
TIME	LABEL	10:19:54	Time
NOTES	NOTES	1	&Notes...
	
PSTAT	PSTAT	REF600-11020	Potentiostat
VDC	POTEN	0.00000E+000	T	DC &Voltage (V)
FREQINIT	QUANT	1.00000E+006	Initial Fre&q. (Hz)
FREQFINAL	QUANT	1.00000E+000	Final Fre&q. (Hz)
PTSPERDEC	QUANT	1.00000E+001	Points/&decade
VAC	QUANT	2.50000E+001	AC &Voltage (mV rms)
AREA	QUANT	1.00000E-002	&Area (cm^2)
CONDIT	TWOPARAM	T	5.00000E+000	0.00000E+000	Conditionin&g	Time(s)	E(V)
DELAY	TWOPARAM	T	5.00000E+000	0.00000E+000	Init. De&lay	Time(s)	Stab.(mV/s)
SPEED	SELECTOR	0	&Optimize for:
ZGUESS	QUANT	1.00000E+005	E&stimated Z (ohms)
OCVCURVE	TABLE	19
	Pt	T	Vf	Vm	Ach	Over
	#	s	V vs. Ref.	V	V	bits
	0	0.258333	7.01499E-003	7.01499E-003	5.04467E-004	...........
	1	0.516667	7.01582E-003	7.05863E-003	5.09600E-004	...........
	2	0.775	7.02114E-003	7.11053E-003	5.06367E-004	...........
	3	1.03333	7.03710E-003	7.17282E-003	5.02133E-004	...........
	4	1.29167	7.06802E-003	7.23439E-003	5.10000E-004	...........
	5	1.55	7.11335E-003	7.30300E-003	5.06000E-004	...........
	6	1.80833	7.16915E-003	7.36548E-003	5.02000E-004	...........
	7	2.06667	7.23097E-003	7.42940E-003	5.04033E-004	...........
	8	2.325	7.29508E-003	7.48389E-003	5.07900E-004	...........
	9	2.58333	7.35866E-003	7.53907E-003	5.03233E-004	...........
	10	2.84167	7.42034E-003	7.61635E-003	5.02100E-004	...........
	11	3.1	7.48102E-003	7.67149E-003	5.04767E-004	...........
	12	3.35833	7.54256E-003	7.73910E-003	5.05433E-004	...........
	13	3.61667	7.60548E-003	7.80205E-003	5.09200E-004	...........
	14	3.875	7.66945E-003	7.88024E-003	5.03500E-004	...........
	15	4.13333	7.73526E-003	7.96744E-003	5.07566E-004	...........
	16	4.39167	7.80472E-003	8.03255E-003	5.07766E-004	...........
	17	4.65	7.87763E-003	8.08443E-003	5.07600E-004	...........
	18	4.90833	7.94990E-003	8.12889E-003	5.10600E-004	...........
EOC	QUANT	0.0079499	Open Circuit (V)
PSTATMODEL	IQUANT	4	Pstat Model
PSTATSECTION	LABEL	REF600-11020	Pstat Section
PSTATSERIALNO	LABEL	11020	Pstat Serial Number
CTRLMODE	IQUANT	1	Control Mode
IESTAB	IQUANT	0	I/E Stability
CASPEED	IQUANT	1	Control Amp Speed
CONVENTION	IQUANT	1	Current Convention
ICHRANGE	IQUANT	2	Ich Range
ICHRANGEMODE	TOGGLE	F	Ich Auto Range
ICHOFFSETENABLE	TOGGLE	T	Ich Offset Enable
ICHOFFSET	QUANT	0	Ich Offset (V)
ICHFILTER	IQUANT	3	Ich Filter
VCHRANGE	IQUANT	2	Vch Range
VCHRANGEMODE	TOGGLE	F	Vch Auto Range
VCHOFFSETENABLE	TOGGLE	T	Vch Offset Enable
VCHOFFSET	QUANT	0	Vch Offset (V)
VCHFILTER	IQUANT	3	Vch Filter
ACHRANGE	IQUANT	2	Ach Range
ACHOFFSETENABLE	TOGGLE	F	Ach Offset Enable
ACHOFFSET	QUANT	0	Ach Offset (V)
ACHFILTER	IQUANT	3	Ach Filter
IERANGELOWERLIMIT	IQUANT	1	I/E Range Lower Limit
IERANGEMODE	TOGGLE	F	I/E AutoRange
IERANGE	IQUANT	5	I/E Range
POSFEEDENABLE	TOGGLE	F	Positive Feedback IR Comp
POSFEEDRESISTANCE	QUANT	0	Positive Feedback Resistance (ohm)
ACHSELECT	IQUANT	0	Ach Select
CABLEID	IQUANT	14	Cable ID
DCCALDATE	LABEL	8/19/2019	DC Calibration Date
ACCALDATE	LABEL	8/19/2019	AC Calibration Date
THERMOSELECT	IQUANT	1	Thermo Select
FRAMEWORKVERSION	QUANT	6.33	Framework Version
INSTRUMENTVERSION	LABEL	3.50	Instrument Version
ZCURVE	TABLE
	Pt	Time	Freq	Zreal	Zimag	Zsig	Zmod	Zphz	Idc	Vdc	IERange
	#	s	Hz	ohm	ohm	V	ohm	°	A	V	#
	0	1	1000078	2264.403	-1357.657	1	2640.218	-30.94543	1.96833E-006	0.0094835	8
	1	2	794390.6	2524.918	-1276.242	1	2829.135	-26.81471	-1.059452E-006	0.009751	8
	2	2	630984.4	2755.507	-1157.354	1	2988.693	-22.78313	1.370149E-006	0.0095452	8
	3	2	501234.4	2930.287	-1030.198	1	3106.105	-19.3701	1.607511E-007	0.0096357	8
	4	3	398109.4	3068.074	-891.1973	1	3194.888	-16.19724	3.165979E-006	0.0090783	8
	5	3	316265.6	3174.093	-765.6028	1	3265.121	-13.56092	2.144749E-008	0.009574	8
	6	3	251203.1	3257.037	-657.066	1	3322.654	-11.40561	9.771729E-007	0.0093838	8
	7	4	199546.9	3307.597	-565.0783	1	3355.519	-9.69496	-1.031428E-006	0.0097996	8
	8	4	158578.1	3353.819	-479.782	1	3387.963	-8.141235	-2.6939E-006	0.0100309	8
	9	4	125953.1	3412.863	-395.7763	1	3435.734	-6.61482	-7.502706E-008	0.0094198	7
	10	4	100078.1	3432.076	-347.5933	1	3449.633	-5.783076	3.04846E-008	0.0094955	7
	11	5	79453.13	3456.493	-324.0207	1	3471.647	-5.355405	3.203483E-008	0.0094146	7
	12	5	63140.62	3480.723	-308.743	1	3494.389	-5.068916	7.249504E-008	0.0094606	7
	13	5	50203.12	3505.209	-301.2972	1	3518.135	-4.912896	-5.657723E-008	0.0096846	7
	14	6	39890.62	3529.655	-302.7718	1	3542.617	-4.902797	4.63321E-008	0.0094391	7
	15	6	31640.63	3554.046	-311.1182	1	3567.637	-5.002872	-5.41394E-008	0.0095922	7
	16	6	25171.88	3578.794	-328.0864	1	3593.802	-5.237956	-5.071083E-008	0.009605	7
	17	7	20015.62	3605.732	-356.7032	1	3623.333	-5.649701	-4.392087E-008	0.0095726	7
	18	7	15890.62	3633.745	-386.574	1	3654.25	-6.072539	5.910964E-009	0.0094587	7
	19	7	12609.37	3663.529	-431.4396	1	3688.846	-6.716565	-1.49825E-008	0.009497	7
	20	8	10078.13	3694.288	-486.2295	1	3726.148	-7.497977	6.645416E-009	0.0094577	7
	21	8	8015.625	3724.53	-557.5805	1	3766.035	-8.51423	3.058775E-008	0.0094776	7
	22	8	6328.125	3763.792	-649.0344	1	3819.343	-9.78396	-5.346899E-008	0.0095787	7
	23	9	5015.625	3804.115	-760.84	1	3879.454	-11.31018	-6.993365E-010	0.009484	7
	24	9	3984.375	3849.671	-901.1918	1	3953.747	-13.17544	6.762649E-009	0.0094503	7
	25	9	3170.956	3895.886	-1070.025	1	4040.159	-15.35787	-5.440609E-009	0.0095186	7
	26	10	2527.573	3952.446	-1277.619	1	4153.811	-17.91331	-2.939541E-008	0.0095169	7
	27	10	1976.103	4022.925	-1555.728	1	4313.26	-21.14226	3.239736E-008	0.0093986	7
	28	10	1577.524	4099.003	-1867.763	1	4504.482	-24.49699	9.392137E-008	0.0093658	7
	29	11	1265.625	4185.179	-2243.895	1	4748.767	-28.19811	-3.335223E-008	0.0095866	7
	30	11	998.264	4294.63	-2736.708	1	5092.486	-32.50689	-5.359835E-008	0.0096686	7
	31	11	796.875	4411.872	-3308.46	1	5514.574	-36.86621	4.76604E-008	0.009425	7
	32	11	627.7902	4565.613	-4056.467	1	6107.352	-41.62053	3.394481E-008	0.0094676	7
	33	12	505.5147	4726.621	-4894.155	1	6803.947	-45.99763	6.202215E-009	0.0095854	7
	34	12	397.9953	4939.807	-6024.658	1	7790.904	-50.65059	1.414809E-009	0.0095332	7
	35	12	315.5048	5193.038	-7388.85	1	9031.21	-54.89965	1.947858E-009	0.0095336	7
	36	13	252.4038	5498.703	-9000.246	1	10547.04	-58.57714	1.064846E-009	0.00947	6
	37	13	198.6229	5911.415	-11136.99	1	12608.63	-62.04105	4.384338E-010	0.0094701	6
	38	13	158.3615	6406.462	-13624.11	1	15055.2	-64.8157	8.658636E-010	0.0094684	6
	39	14	125.558	7067.875	-16752.51	1	18182.45	-67.12514	6.031471E-010	0.00947	6
	40	14	100.4464	7898.159	-20446.62	1	21919.06	-68.87936	-9.013429E-010	0.0094686	6
	41	14	79.00281	9010.591	-25316.08	1	26871.82	-70.40816	-2.79119E-010	0.0094659	6
	42	15	63.3446	10647.1	-30390.54	1	32201.64	-70.69247	1.350961E-010	0.0094626	6
	43	15	49.86702	12691.8	-37610.73	1	39694.45	-71.35296	6.141282E-011	0.0094615	6
	44	15	39.72458	15076.59	-45917.63	1	48329.42	-71.82293	-2.849201E-010	0.0094664	6
	45	16	31.6723	18302.81	-55745.41	1	58673.19	-71.82351	-4.827952E-010	0.009463	6
	46	16	24.93351	23267.35	-67992.27	1	71863.19	-71.10875	-6.540666E-010	0.0094605	6
	47	16	19.86229	29313.35	-81643.7	1	86746.56	-70.24984	-1.309015E-009	0.0094573	6
	48	17	15.83615	36000.8	-96730.5	1	103212.6	-69.58592	-1.331127E-009	0.0094607	6
	49	17	12.40079	47375.95	-117430.1	1	126626.7	-68.0289	5.738439E-010	0.0094656	5
	50	17	9.93114	60180.96	-137728.3	1	150302.5	-66.39688	5.325768E-010	0.0094599	5
	51	18	7.944915	75237.76	-161109.9	1	177812.1	-64.96759	-7.267134E-010	0.0094702	5
	52	19	6.317385	94290.3	-187093.8	1	209510.8	-63.25312	-6.370494E-010	0.0094767	5
	53	19	5.008013	117064.3	-216029.7	1	245709	-61.54718	4.775234E-011	0.009472	5
	54	20	3.945707	144736.4	-247814.9	1	286985.8	-59.71292	-1.443278E-010	0.0094596	5
	55	22	3.158693	173517.2	-281346.5	1	330551.1	-58.33627	6.224569E-011	0.0094618	5
	56	23	2.504006	206711.2	-319047.6	1	380159	-57.06076	2.034219E-011	0.0094664	5
	57	25	1.998082	241970.8	-359817.6	1	433611.1	-56.07988	-2.761165E-010	0.0094239	5
	58	26	1.584686	279244.3	-407087.3	1	493657.2	-55.55155	-1.553421E-010	0.009447	5
	59	28	1.266892	318730.6	-459187.9	1	558965.8	-55.23479	-5.87625E-011	0.0094792	5
	60	31	0.999041	363581.9	-525755.4	1	639226.5	-55.33452	1.122607E-011	0.0095001	5
