EXPLAIN
TAG	EISPOT
TITLE	LABEL	Potentiostatic EIS	Test &Identifier
DATE	LABEL	9/20/2019	Date
TIME	LABEL	11:41:36	Time
NOTES	NOTES	1	&Notes...
	
PSTAT	PSTAT	REF600-11020	Potentiostat
VDC	POTEN	0.00000E+000	T	DC &Voltage (V)
FREQINIT	QUANT	1.00000E+006	Initial Fre&q. (Hz)
FREQFINAL	QUANT	1.00000E+000	Final Fre&q. (Hz)
PTSPERDEC	QUANT	1.00000E+001	Points/&decade
VAC	QUANT	2.50000E+001	AC &Voltage (mV rms)
AREA	QUANT	1.00000E-002	&Area (cm^2)
CONDIT	TWOPARAM	T	5.00000E+000	0.00000E+000	Conditionin&g	Time(s)	E(V)
DELAY	TWOPARAM	T	5.00000E+000	0.00000E+000	Init. De&lay	Time(s)	Stab.(mV/s)
SPEED	SELECTOR	1	&Optimize for:
ZGUESS	QUANT	1.00000E+004	E&stimated Z (ohms)
OCVCURVE	TABLE	19
	Pt	T	Vf	Vm	Ach	Over
	#	s	V vs. Ref.	V	V	bits
	0	0.258333	5.76534E-003	5.76534E-003	5.83399E-004	...........
	1	0.516667	5.76107E-003	5.54223E-003	5.78865E-004	...........
	2	0.775	5.73625E-003	5.40119E-003	5.78165E-004	...........
	3	1.03333	5.66990E-003	5.23510E-003	5.77132E-004	...........
	4	1.29167	5.55693E-003	5.05680E-003	5.73099E-004	...........
	5	1.55	5.41323E-003	5.03887E-003	5.71366E-004	...........
	6	1.80833	5.26485E-003	4.91244E-003	5.75766E-004	...........
	7	2.06667	5.13396E-003	4.87196E-003	5.75399E-004	...........
	8	2.325	5.02768E-003	4.77812E-003	5.81332E-004	...........
	9	2.58333	4.94163E-003	4.78444E-003	5.78399E-004	...........
	10	2.84167	4.87451E-003	4.87685E-003	5.79732E-004	...........
	11	3.1	4.84095E-003	5.21053E-003	5.79932E-004	...........
	12	3.35833	4.86710E-003	5.23373E-003	5.79099E-004	...........
	13	3.61667	4.95566E-003	5.14178E-003	5.73499E-004	...........
	14	3.875	5.06045E-003	5.02953E-003	5.75832E-004	...........
	15	4.13333	5.11899E-003	4.87450E-003	5.76932E-004	...........
	16	4.39167	5.10205E-003	4.76509E-003	5.77632E-004	...........
	17	4.65	5.02261E-003	4.70418E-003	5.73499E-004	...........
	18	4.90833	4.91522E-003	4.67175E-003	5.74165E-004	...........
EOC	QUANT	0.0049152	Open Circuit (V)
PSTATMODEL	IQUANT	4	Pstat Model
PSTATSECTION	LABEL	REF600-11020	Pstat Section
PSTATSERIALNO	LABEL	11020	Pstat Serial Number
CTRLMODE	IQUANT	1	Control Mode
IESTAB	IQUANT	0	I/E Stability
CASPEED	IQUANT	1	Control Amp Speed
CONVENTION	IQUANT	1	Current Convention
ICHRANGE	IQUANT	2	Ich Range
ICHRANGEMODE	TOGGLE	F	Ich Auto Range
ICHOFFSETENABLE	TOGGLE	T	Ich Offset Enable
ICHOFFSET	QUANT	0	Ich Offset (V)
ICHFILTER	IQUANT	3	Ich Filter
VCHRANGE	IQUANT	2	Vch Range
VCHRANGEMODE	TOGGLE	F	Vch Auto Range
VCHOFFSETENABLE	TOGGLE	T	Vch Offset Enable
VCHOFFSET	QUANT	0	Vch Offset (V)
VCHFILTER	IQUANT	3	Vch Filter
ACHRANGE	IQUANT	2	Ach Range
ACHOFFSETENABLE	TOGGLE	F	Ach Offset Enable
ACHOFFSET	QUANT	0	Ach Offset (V)
ACHFILTER	IQUANT	3	Ach Filter
IERANGELOWERLIMIT	IQUANT	1	I/E Range Lower Limit
IERANGEMODE	TOGGLE	F	I/E AutoRange
IERANGE	IQUANT	5	I/E Range
POSFEEDENABLE	TOGGLE	F	Positive Feedback IR Comp
POSFEEDRESISTANCE	QUANT	0	Positive Feedback Resistance (ohm)
ACHSELECT	IQUANT	0	Ach Select
CABLEID	IQUANT	14	Cable ID
DCCALDATE	LABEL	8/19/2019	DC Calibration Date
ACCALDATE	LABEL	8/19/2019	AC Calibration Date
THERMOSELECT	IQUANT	1	Thermo Select
FRAMEWORKVERSION	QUANT	6.33	Framework Version
INSTRUMENTVERSION	LABEL	3.50	Instrument Version
ZCURVE	TABLE
	Pt	Time	Freq	Zreal	Zimag	Zsig	Zmod	Zphz	Idc	Vdc	IERange
	#	s	Hz	ohm	ohm	V	ohm	°	A	V	#
	0	1	1000078	2312.47	-1962.835	1	3033.19	-40.32475	-4.116217E-006	0.0080043	8
	1	2	794390.6	2723.477	-1969.53	1	3361.008	-35.87324	3.799617E-006	0.0064145	8
	2	4	630984.4	3090.785	-1918.734	1	3637.924	-31.83166	9.933783E-007	0.0064506	8
	3	5	501234.4	3463.486	-1831.789	1	3918.059	-27.87374	-3.66287E-006	0.0075192	8
	4	6	398109.4	3787.81	-1657.67	1	4134.655	-23.63577	-3.016296E-006	0.0074121	8
	5	8	316265.6	4053.529	-1466.522	1	4310.66	-19.88957	1.277868E-006	0.0064467	8
	6	9	251203.1	4240.5	-1301.271	1	4435.667	-17.05954	-5.535509E-007	0.0067688	8
	7	10	199546.9	4411.13	-1133.83	1	4554.519	-14.41516	1.51126E-006	0.0062836	8
	8	12	158578.1	4524.741	-966.418	1	4626.797	-12.05638	-4.40795E-007	0.0067473	8
	9	13	125953.1	4646.634	-805.3866	1	4715.916	-9.8332	1.409429E-006	0.0039808	7
	10	14	100078.1	4710.355	-713.7479	1	4764.125	-8.616335	4.22909E-008	0.0064532	7
	11	16	79453.13	4769.942	-645.8309	1	4813.465	-7.710728	1.33783E-007	0.0063861	7
	12	17	63140.62	4819.721	-595.9234	1	4856.422	-7.048433	-3.371633E-008	0.0065842	7
	13	19	50203.12	4864.105	-560.7946	1	4896.327	-6.576733	-4.264879E-008	0.0066336	7
	14	20	39890.62	4910.494	-543.2788	1	4940.456	-6.313316	8.618284E-008	0.0063996	7
	15	21	31640.63	4953.567	-540.7242	1	4982.992	-6.22966	4.890276E-008	0.0065125	7
	16	23	25171.88	4999.321	-551.4885	1	5029.647	-6.294998	1.246497E-008	0.0064971	7
	17	24	20015.62	5045.612	-575.0591	1	5078.277	-6.502065	-4.270661E-008	0.006625	7
	18	25	15890.62	5094.427	-615.2021	1	5131.438	-6.885687	7.022019E-009	0.0066876	7
	19	27	12609.37	5146.394	-669.8352	1	5189.803	-7.415714	-5.648349E-008	0.0066309	7
	20	28	10078.13	5202.342	-738.3511	1	5254.477	-8.07785	4.871211E-008	0.0065171	7
	21	29	8015.625	5262.276	-826.2	1	5326.74	-8.922843	-4.617925E-010	0.0065076	7
	22	31	6328.125	5329.632	-938.0081	1	5411.547	-9.98175	9.995865E-009	0.0066773	7
	23	32	5015.625	5400.367	-1077.479	1	5506.807	-11.28347	4.879647E-008	0.0065134	7
	24	33	3984.375	5479.747	-1245.421	1	5619.493	-12.80451	9.64389E-008	0.0065045	7
	25	35	3170.956	5562.042	-1449.823	1	5747.895	-14.60983	-5.179535E-008	0.0067516	7
	26	36	2527.573	5657.447	-1702.112	1	5907.951	-16.74455	-5.309085E-008	0.0067462	7
	27	38	1976.103	5769.294	-2031.051	1	6116.365	-19.39436	-4.573721E-008	0.0066146	7
	28	39	1577.524	5888.979	-2403.403	1	6360.536	-22.20129	-4.185264E-010	0.0066071	7
	29	40	1265.625	6029.572	-2851.055	1	6669.652	-25.30691	-5.195102E-008	0.0067538	7
	30	42	998.264	6180.916	-3426.73	1	7067.263	-29.0042	5.012376E-008	0.0065102	7
	31	43	796.875	6359.728	-4105.381	1	7569.696	-32.84337	-5.163238E-008	0.0067511	7
	32	44	627.7902	6571.365	-4974.131	1	8241.651	-37.12355	9.725883E-008	0.0065059	7
	33	46	505.5147	6788.127	-5945.148	1	9023.495	-41.21238	-2.888413E-008	0.0066473	7
	34	47	397.9953	7072.006	-7251.353	1	10128.94	-45.71738	1.056974E-009	0.0065267	6
	35	48	315.5048	7381.012	-8828.639	1	11507.57	-50.10335	1.305726E-009	0.006525	6
	36	50	252.4038	7725.63	-10695.55	1	13193.94	-54.15858	7.128945E-010	0.0065236	6
	37	51	198.6229	8166.215	-13180.47	1	15505.22	-58.21893	1.380378E-009	0.0065265	6
	38	53	158.3615	8671.284	-16097.5	1	18284.44	-61.68987	1.289122E-009	0.0065268	6
	39	54	125.558	9322.376	-19788.08	1	21874.07	-64.77438	1.211543E-009	0.0065267	6
	40	55	100.4464	10094.98	-24177.04	1	26199.96	-67.33732	6.847774E-010	0.006522	6
	41	57	79.00281	11181.26	-30017.3	1	32032.15	-69.56995	1.241643E-009	0.0065205	6
	42	58	63.3446	12726.48	-36402.58	1	38563.08	-70.73018	6.842259E-010	0.006525	6
	43	59	49.86702	14303.85	-45478.35	1	47674.73	-72.54059	3.36839E-010	0.0065201	6
	44	61	39.72458	16728.28	-55476.69	1	57943.93	-73.21999	1.020715E-009	0.0065282	6
	45	62	31.6723	19801.99	-67655.96	1	70494.31	-73.68595	6.61993E-010	0.0065268	6
	46	64	24.93351	24197.36	-83545.47	1	86979.06	-73.84734	6.369505E-010	0.0065237	6
	47	65	19.86229	29639.4	-101762.7	1	105991.3	-73.76128	1.278852E-009	0.0065321	6
	48	66	15.83615	37242.04	-124204.2	1	129667.5	-73.30889	-7.111415E-010	0.0065271	5
	49	68	12.40079	47047.55	-150300.5	1	157491.9	-72.61867	1.003075E-009	0.0065276	5
	50	69	9.93114	59850.41	-181329.4	1	190951.3	-71.73377	8.932269E-010	0.0065198	5
	51	71	7.944915	75646.24	-217850.5	1	230610.5	-70.85099	3.707071E-010	0.0065276	5
	52	72	6.317385	96546.6	-259331.5	1	276720.2	-69.5802	2.053253E-010	0.0065161	5
	53	74	5.008013	123918.3	-309098.5	1	333013	-68.15405	5.692589E-011	0.0065221	5
	54	77	3.945707	160050.9	-367121.3	1	400492.7	-66.44464	1.998376E-010	0.0065265	5
	55	80	3.158693	202251.3	-427668	1	473080.9	-64.68975	2.286758E-010	0.0065189	5
	56	83	2.504006	255693.4	-497130.1	1	559032.6	-62.78147	1.754739E-010	0.006529	5
	57	86	1.998082	317204.2	-568808.1	1	651276.6	-60.85313	4.855373E-010	0.0064942	5
	58	89	1.584686	391891.5	-651222.6	1	760045.9	-58.96139	8.914963E-011	0.0064926	5
	59	93	1.266892	473828.1	-731212.6	1	871312.2	-57.05663	3.38312E-010	0.0064829	5
	60	97	0.999041	570167.1	-825964.8	1	1003648	-55.38251	4.837821E-011	0.0065539	5
