EXPLAIN
TAG	EISPOT
TITLE	LABEL	Potentiostatic EIS	Test &Identifier
DATE	LABEL	10/10/2019	Date
TIME	LABEL	9:45:36	Time
NOTES	NOTES	1	&Notes...
	
PSTAT	PSTAT	REF600-11020	Potentiostat
VDC	POTEN	0.00000E+000	T	DC &Voltage (V)
FREQINIT	QUANT	1.00000E+006	Initial Fre&q. (Hz)
FREQFINAL	QUANT	1.00000E+000	Final Fre&q. (Hz)
PTSPERDEC	QUANT	1.00000E+001	Points/&decade
VAC	QUANT	2.50000E+001	AC &Voltage (mV rms)
AREA	QUANT	1.00000E-002	&Area (cm^2)
CONDIT	TWOPARAM	T	5.00000E+000	0.00000E+000	Conditionin&g	Time(s)	E(V)
DELAY	TWOPARAM	T	5.00000E+000	0.00000E+000	Init. De&lay	Time(s)	Stab.(mV/s)
SPEED	SELECTOR	1	&Optimize for:
ZGUESS	QUANT	1.00000E+004	E&stimated Z (ohms)
OCVCURVE	TABLE	19
	Pt	T	Vf	Vm	Ach	Over
	#	s	V vs. Ref.	V	V	bits
	0	0.258333	8.30485E-003	8.30485E-003	5.62199E-004	...........
	1	0.516667	8.30211E-003	8.16114E-003	5.70932E-004	...........
	2	0.775	8.28647E-003	8.08864E-003	5.63666E-004	...........
	3	1.03333	8.24581E-003	7.99506E-003	5.65566E-004	...........
	4	1.29167	8.17983E-003	7.95409E-003	5.62266E-004	...........
	5	1.55	8.10176E-003	7.89627E-003	5.68266E-004	...........
	6	1.80833	8.02574E-003	7.81667E-003	5.66499E-004	...........
	7	2.06667	7.95651E-003	7.75621E-003	5.62066E-004	...........
	8	2.325	7.89187E-003	7.73364E-003	5.61432E-004	...........
	9	2.58333	7.83291E-003	7.75943E-003	5.66032E-004	...........
	10	2.84167	7.78576E-003	7.66929E-003	5.63899E-004	...........
	11	3.1	7.75047E-003	7.62540E-003	5.61832E-004	...........
	12	3.35833	7.71802E-003	7.62522E-003	5.63166E-004	...........
	13	3.61667	7.68356E-003	7.60848E-003	5.67666E-004	...........
	14	3.875	7.65205E-003	7.60682E-003	5.66532E-004	...........
	15	4.13333	7.62857E-003	7.57842E-003	5.63066E-004	...........
	16	4.39167	7.61140E-003	7.54072E-003	5.71466E-004	...........
	17	4.65	7.60219E-003	7.92417E-003	5.75766E-004	...........
	18	4.90833	7.62117E-003	7.89493E-003	5.65866E-004	...........
EOC	QUANT	0.0076212	Open Circuit (V)
PSTATMODEL	IQUANT	4	Pstat Model
PSTATSECTION	LABEL	REF600-11020	Pstat Section
PSTATSERIALNO	LABEL	11020	Pstat Serial Number
CTRLMODE	IQUANT	1	Control Mode
IESTAB	IQUANT	0	I/E Stability
CASPEED	IQUANT	1	Control Amp Speed
CONVENTION	IQUANT	1	Current Convention
ICHRANGE	IQUANT	2	Ich Range
ICHRANGEMODE	TOGGLE	F	Ich Auto Range
ICHOFFSETENABLE	TOGGLE	T	Ich Offset Enable
ICHOFFSET	QUANT	0	Ich Offset (V)
ICHFILTER	IQUANT	3	Ich Filter
VCHRANGE	IQUANT	2	Vch Range
VCHRANGEMODE	TOGGLE	F	Vch Auto Range
VCHOFFSETENABLE	TOGGLE	T	Vch Offset Enable
VCHOFFSET	QUANT	0	Vch Offset (V)
VCHFILTER	IQUANT	3	Vch Filter
ACHRANGE	IQUANT	2	Ach Range
ACHOFFSETENABLE	TOGGLE	F	Ach Offset Enable
ACHOFFSET	QUANT	0	Ach Offset (V)
ACHFILTER	IQUANT	3	Ach Filter
IERANGELOWERLIMIT	IQUANT	1	I/E Range Lower Limit
IERANGEMODE	TOGGLE	F	I/E AutoRange
IERANGE	IQUANT	6	I/E Range
POSFEEDENABLE	TOGGLE	F	Positive Feedback IR Comp
POSFEEDRESISTANCE	QUANT	0	Positive Feedback Resistance (ohm)
ACHSELECT	IQUANT	0	Ach Select
CABLEID	IQUANT	14	Cable ID
DCCALDATE	LABEL	8/19/2019	DC Calibration Date
ACCALDATE	LABEL	8/19/2019	AC Calibration Date
THERMOSELECT	IQUANT	1	Thermo Select
FRAMEWORKVERSION	QUANT	6.33	Framework Version
INSTRUMENTVERSION	LABEL	3.50	Instrument Version
ZCURVE	TABLE
	Pt	Time	Freq	Zreal	Zimag	Zsig	Zmod	Zphz	Idc	Vdc	IERange
	#	s	Hz	ohm	ohm	V	ohm	°	A	V	#
	0	2	1000078	2708.999	-2038.306	1	3390.187	-36.95855	1.361455E-006	0.0099867	8
	1	3	794390.6	3103.175	-2006.526	1	3695.382	-32.88688	-2.164072E-006	0.0097556	8
	2	4	630984.4	3495.281	-1923.508	1	3989.596	-28.82468	-3.09353E-006	0.010018	8
	3	6	501234.4	3832.69	-1764.231	1	4219.244	-24.71715	1.430832E-006	0.0089665	8
	4	7	398109.4	4086.368	-1622.8	1	4396.803	-21.65928	1.814146E-006	0.0085524	8
	5	9	316265.6	4314.768	-1437.66	1	4547.977	-18.42783	1.737316E-006	0.008543	8
	6	11	251203.1	4505.269	-1322.425	1	4695.344	-16.35847	4.15211E-006	0.0082941	8
	7	12	199546.9	4629.868	-1184.932	1	4779.094	-14.35569	-1.155863E-006	0.0094586	8
	8	14	158578.1	4756.929	-1091.917	1	4880.641	-12.92786	-4.064615E-007	0.0092634	8
	9	15	125953.1	4903.338	-959.441	1	4996.324	-11.07124	-6.931871E-007	0.0111017	7
	10	17	100078.1	4993.349	-903.7849	1	5074.481	-10.25934	1.514667E-007	0.0088389	7
	11	18	79453.13	5078.104	-883.5694	1	5154.399	-9.87042	-4.240969E-008	0.0090864	7
	12	19	63140.62	5164.582	-880.6217	1	5239.122	-9.67654	4.509752E-008	0.0090102	7
	13	21	50203.12	5252.671	-896.6971	1	5328.66	-9.68772	7.772698E-008	0.0089301	7
	14	22	39890.62	5340.585	-931.5447	1	5421.22	-9.89441	-1.845017E-008	0.0091098	7
	15	23	31640.63	5435.644	-982.704	1	5523.76	-10.24775	7.324668E-008	0.0089329	7
	16	25	25171.88	5538.958	-1054.946	1	5638.525	-10.78336	9.383075E-008	0.0089932	7
	17	26	20015.62	5667.28	-1154.834	1	5783.745	-11.5176	1.724686E-008	0.0089707	7
	18	28	15890.62	5770.583	-1253.76	1	5905.213	-12.25799	-3.393512E-008	0.0090909	7
	19	29	12609.37	5905.458	-1391.178	1	6067.109	-13.25577	-1.550134E-008	0.0092105	7
	20	31	10078.13	6052.108	-1547.943	1	6246.931	-14.34693	-4.23286E-008	0.0090698	7
	21	32	8015.625	6220.687	-1732.93	1	6457.553	-15.56653	-2.500999E-009	0.0090679	7
	22	33	6328.125	6410.063	-1956.375	1	6701.963	-16.97239	-5.073694E-008	0.0090788	7
	23	35	5015.625	6623.786	-2215.294	1	6984.416	-18.49227	4.342464E-008	0.0090024	7
	24	36	3984.375	6859.582	-2512.328	1	7305.18	-20.1153	-4.478348E-008	0.00907	7
	25	37	3170.956	7135.082	-2860.688	1	7687.192	-21.84747	7.319964E-008	0.008927	7
	26	39	2527.573	7450.124	-3251.414	1	8128.717	-23.57762	9.561597E-008	0.0089923	7
	27	40	1976.103	7848.606	-3742.542	1	8695.242	-25.49375	-4.653496E-008	0.0090648	7
	28	42	1577.524	8261.022	-4234.601	1	9283.121	-27.13968	1.634752E-008	0.0089579	7
	29	43	1265.625	8711.672	-4779.625	1	9936.7	-28.7512	1.907501E-008	0.0087537	6
	30	44	998.264	9250.853	-5443.056	1	10733.37	-30.47189	-8.003035E-009	0.0090856	6
	31	46	796.875	9792.27	-6146.472	1	11561.47	-32.11593	1.991448E-008	0.0086342	6
	32	47	627.7902	10393.75	-7001.521	1	12532.01	-33.96531	-9.56055E-009	0.0092096	6
	33	48	505.5147	10959.84	-7921.618	1	13522.95	-35.85888	4.317144E-009	0.0088608	6
	34	50	397.9953	11578.34	-9141.975	1	14752.41	-38.29377	2.284569E-010	0.0089977	6
	35	51	315.5048	12175.37	-10610.88	1	16150.25	-41.07226	1.328262E-009	0.0089966	6
	36	53	252.4038	12750.84	-12367.48	1	17763.4	-44.12562	3.257471E-010	0.0089957	6
	37	54	198.6229	13398.49	-14748.71	1	19925.96	-47.74635	4.470478E-010	0.0089931	6
	38	55	158.3615	14065.59	-17586.28	1	22519.28	-51.34701	5.213757E-010	0.0089944	6
	39	57	125.558	14830.95	-21249.25	1	25913.07	-55.08682	7.142413E-010	0.0089954	6
	40	58	100.4464	15739.11	-25599.66	1	30051	-58.41609	1.655021E-010	0.0089928	6
	41	59	79.00281	16838.36	-31578.89	1	35787.66	-61.93277	-4.497966E-011	0.0089977	6
	42	61	63.3446	17774.91	-38202.78	1	42135.49	-65.04848	8.733133E-010	0.0089937	6
	43	62	49.86702	20399.96	-46786.87	1	51040.86	-66.44189	1.40182E-009	0.0089896	6
	44	64	39.72458	22564.25	-57449.66	1	61722.03	-68.55681	6.884452E-010	0.0089931	6
	45	65	31.6723	25784.34	-70214.06	1	74798.71	-69.83552	7.661486E-010	0.0089939	6
	46	67	24.93351	29899.86	-86353.83	1	91383.73	-70.90168	1.485755E-010	0.008993	6
	47	68	19.86229	35157.61	-104920.8	1	110654.5	-71.47466	8.221353E-011	0.0090018	5
	48	69	15.83615	40597.22	-126593.7	1	132943.9	-72.21951	1.626993E-009	0.0089944	5
	49	71	12.40079	52463.02	-157125.8	1	165652.9	-71.53625	-6.658946E-010	0.0089964	5
	50	72	9.93114	62676.84	-188492.7	1	198640.1	-71.60721	1.2101E-010	0.0089942	5
	51	74	7.944915	76586.89	-226225.6	1	238837.9	-71.29688	2.690055E-010	0.008998	5
	52	75	6.317385	95322	-270485.1	1	286789.9	-70.58698	3.547955E-010	0.0089956	5
	53	78	5.008013	118667	-324787.5	1	345787.2	-69.92931	2.381047E-010	0.0090081	5
	54	80	3.945707	147959.8	-390404.7	1	417502	-69.24375	-4.869617E-011	0.0089975	5
	55	83	3.158693	184015.8	-461958.7	1	497260.2	-68.28072	1.82028E-010	0.0090167	5
	56	86	2.504006	230560.1	-549723.8	1	596116	-67.24629	1.061286E-010	0.0089958	5
	57	89	1.998082	283778.7	-646242.2	1	705804	-66.2927	2.325685E-011	0.0089876	5
	58	92	1.584686	355629.4	-762140.6	1	841029.4	-64.98534	1.356005E-010	0.0090501	5
	59	96	1.266892	438481.5	-886107.7	1	988662	-63.67196	-3.753599E-012	0.0090041	5
	60	100	0.999041	545589.9	-1037884	1	1172549	-62.2702	2.061087E-010	0.0090077	4
