EXPLAIN
TAG	EISPOT
TITLE	LABEL	Potentiostatic EIS	Test &Identifier
DATE	LABEL	11/22/2019	Date
TIME	LABEL	9:42:50	Time
NOTES	NOTES	4	&Notes...
	
	
	
	
PSTAT	PSTAT	REF600-11020	Potentiostat
VDC	POTEN	0.00000E+000	T	DC &Voltage (V)
FREQINIT	QUANT	1.00000E+006	Initial Fre&q. (Hz)
FREQFINAL	QUANT	1.00000E+000	Final Fre&q. (Hz)
PTSPERDEC	QUANT	1.00000E+001	Points/&decade
VAC	QUANT	2.50000E+001	AC &Voltage (mV rms)
AREA	QUANT	1.00000E-002	&Area (cm^2)
CONDIT	TWOPARAM	T	5.00000E+000	0.00000E+000	Conditionin&g	Time(s)	E(V)
DELAY	TWOPARAM	T	5.00000E+000	0.00000E+000	Init. De&lay	Time(s)	Stab.(mV/s)
SPEED	SELECTOR	0	&Optimize for:
ZGUESS	QUANT	1.00000E+005	E&stimated Z (ohms)
OCVCURVE	TABLE	19
	Pt	T	Vf	Vm	Ach	Over
	#	s	V vs. Ref.	V	V	bits
	0	0.258333	3.56117E-005	3.56117E-005	5.38366E-004	...........
	1	0.516667	3.01676E-005	-2.49364E-004	5.42766E-004	...........
	2	0.775	-3.15869E-006	-5.14063E-004	5.39799E-004	...........
	3	1.03333	-9.68035E-005	-7.53033E-004	5.46066E-004	...........
	4	1.29167	-2.62448E-004	-9.83573E-004	5.44299E-004	...........
	5	1.55	-4.79073E-004	-1.18355E-003	5.46233E-004	...........
	6	1.80833	-7.13879E-004	-1.38412E-003	5.41833E-004	...........
	7	2.06667	-9.43519E-004	-1.56461E-003	5.39733E-004	...........
	8	2.325	-1.15917E-003	-1.77440E-003	5.39133E-004	...........
	9	2.58333	-1.36150E-003	-1.90451E-003	5.40766E-004	...........
	10	2.84167	-1.55202E-003	-2.06182E-003	5.42833E-004	...........
	11	3.1	-1.72982E-003	-2.23030E-003	5.43266E-004	...........
	12	3.35833	-1.89615E-003	-2.37779E-003	5.36799E-004	...........
	13	3.61667	-2.05542E-003	-2.51869E-003	5.37899E-004	...........
	14	3.875	-2.20998E-003	-2.64615E-003	5.44533E-004	...........
	15	4.13333	-2.35844E-003	-2.76515E-003	5.37499E-004	...........
	16	4.39167	-2.49921E-003	-2.91467E-003	5.44766E-004	...........
	17	4.65	-2.63278E-003	-2.98350E-003	5.46866E-004	...........
	18	4.90833	-2.75970E-003	-3.12968E-003	5.40399E-004	...........
EOC	QUANT	-0.0027597	Open Circuit (V)
PSTATMODEL	IQUANT	4	Pstat Model
PSTATSECTION	LABEL	REF600-11020	Pstat Section
PSTATSERIALNO	LABEL	11020	Pstat Serial Number
CTRLMODE	IQUANT	1	Control Mode
IESTAB	IQUANT	0	I/E Stability
CASPEED	IQUANT	1	Control Amp Speed
CONVENTION	IQUANT	1	Current Convention
ICHRANGE	IQUANT	2	Ich Range
ICHRANGEMODE	TOGGLE	F	Ich Auto Range
ICHOFFSETENABLE	TOGGLE	T	Ich Offset Enable
ICHOFFSET	QUANT	0	Ich Offset (V)
ICHFILTER	IQUANT	3	Ich Filter
VCHRANGE	IQUANT	2	Vch Range
VCHRANGEMODE	TOGGLE	F	Vch Auto Range
VCHOFFSETENABLE	TOGGLE	T	Vch Offset Enable
VCHOFFSET	QUANT	0	Vch Offset (V)
VCHFILTER	IQUANT	3	Vch Filter
ACHRANGE	IQUANT	2	Ach Range
ACHOFFSETENABLE	TOGGLE	F	Ach Offset Enable
ACHOFFSET	QUANT	0	Ach Offset (V)
ACHFILTER	IQUANT	3	Ach Filter
IERANGELOWERLIMIT	IQUANT	1	I/E Range Lower Limit
IERANGEMODE	TOGGLE	F	I/E AutoRange
IERANGE	IQUANT	4	I/E Range
POSFEEDENABLE	TOGGLE	F	Positive Feedback IR Comp
POSFEEDRESISTANCE	QUANT	0	Positive Feedback Resistance (ohm)
ACHSELECT	IQUANT	0	Ach Select
CABLEID	IQUANT	14	Cable ID
DCCALDATE	LABEL	8/19/2019	DC Calibration Date
ACCALDATE	LABEL	8/19/2019	AC Calibration Date
THERMOSELECT	IQUANT	1	Thermo Select
FRAMEWORKVERSION	QUANT	6.33	Framework Version
INSTRUMENTVERSION	LABEL	3.50	Instrument Version
ZCURVE	TABLE
	Pt	Time	Freq	Zreal	Zimag	Zsig	Zmod	Zphz	Idc	Vdc	IERange
	#	s	Hz	ohm	ohm	V	ohm	°	A	V	#
	0	1	1000078	1310.314	-2096.633	1	2472.406	-57.99623	-2.911848E-006	-0.000892	8
	1	1	794390.6	1500.054	-2466.617	1	2886.929	-58.69445	-2.002739E-006	-0.0006234	8
	2	2	630984.4	1730.379	-2927.328	1	3400.509	-59.41216	4.948174E-008	-0.0013379	8
	3	2	501234.4	2021.2	-3446.26	1	3995.242	-59.60877	-2.561425E-006	-0.0008959	8
	4	2	398109.4	2389.344	-4033.993	1	4688.503	-59.36164	-4.285702E-007	-0.0014908	8
	5	3	316265.6	2832.5	-4755.685	1	5535.304	-59.22185	-8.7511E-007	-0.0007419	8
	6	3	251203.1	3411.673	-5537.709	1	6504.286	-58.3636	-1.402963E-006	-0.0007826	8
	7	3	199546.9	4130.272	-6406.128	1	7622.18	-57.1886	-4.062571E-007	-0.0014876	8
	8	4	158578.1	4953.118	-7438.98	1	8937.103	-56.34302	1.881086E-006	-0.0016377	8
	9	4	125953.1	5991.621	-8420.274	1	10334.43	-54.56546	1.497165E-006	-0.0072378	7
	10	5	100078.1	7032.345	-9318.44	1	11674.21	-52.95925	1.373582E-006	-0.0027683	7
	11	5	79453.13	8163.017	-10435.55	1	13248.98	-51.96635	1.099846E-006	-0.0016686	7
	12	5	63140.62	9382.981	-11707.89	1	15003.83	-51.29047	1.100715E-006	-0.0016707	7
	13	5	50203.12	10728.38	-13247.26	1	17046.64	-50.99749	-1.342068E-006	-0.000468	7
	14	6	39890.62	12158.78	-14899.11	1	19230.69	-50.78301	-1.481167E-006	0.0005914	7
	15	6	31640.63	13739.28	-17071.23	1	21913.34	-51.17217	1.374107E-006	-0.0027722	7
	16	6	25171.88	15614.62	-19572.42	1	25037.89	-51.41759	-9.943757E-007	-0.0012701	7
	17	7	20015.62	17717.55	-23013.51	1	29043.65	-52.40818	-6.834841E-007	0.0006744	7
	18	7	15890.62	20630.18	-25867.76	1	33086.94	-51.42677	1.376276E-006	-0.0027867	7
	19	7	12609.37	24657.98	-29344.32	1	38328.9	-49.95973	-1.404053E-007	0.0021645	6
	20	8	10078.13	28952.18	-33779.2	1	44488.91	-49.4001	8.633479E-008	-0.0043521	6
	21	8	8015.625	34542.98	-38458.37	1	51693.94	-48.07009	1.424405E-007	-0.004611	6
	22	8	6328.125	41700	-42330.23	1	59420.02	-45.42971	7.540589E-008	-2.427337E-005	6
	23	9	5015.625	50166.57	-45549.83	1	67760.4	-42.23856	-2.448978E-007	0.0014054	6
	24	9	3984.375	60463.9	-48120.8	1	77275.45	-38.51488	1.859468E-007	-0.0045654	6
	25	9	3170.956	69756.3	-48574.18	1	85002.3	-34.85109	2.131347E-007	-0.0030083	6
	26	10	2527.573	79156.98	-46911.24	1	92013.54	-30.65249	1.861705E-007	-0.0021175	6
	27	10	1976.103	87881.98	-43499.57	1	98058.4	-26.33436	-2.3591E-007	0.0020847	6
	28	11	1577.524	92502.3	-39135.41	1	100440.3	-22.93201	-4.864066E-008	-0.0030229	6
	29	11	1265.625	102418.7	-34895.03	1	108200	-18.81448	1.258983E-008	-0.0045317	5
	30	12	998.264	106568	-31273.17	1	111061.9	-16.35471	1.574286E-008	-0.0014786	5
	31	12	796.875	109770.4	-28402.65	1	113385.4	-14.5069	-7.514124E-009	-0.0026488	5
	32	12	627.7902	112333.1	-26220.08	1	115352.6	-13.13839	-3.682051E-009	0.0014106	5
	33	12	505.5147	114487.5	-24941.7	1	117172.8	-12.29015	3.51985E-009	0.0005598	5
	34	13	397.9953	116597.8	-24377.31	1	119118.9	-11.80883	6.246274E-010	-0.0012999	5
	35	13	315.5048	118354.5	-24520.82	1	120867.9	-11.705	1.157782E-009	-0.0013089	5
	36	13	252.4038	120357.1	-25373.85	1	123002.7	-11.90485	1.301729E-009	-0.0013059	5
	37	14	198.6229	122986.7	-27255.8	1	125970.7	-12.49569	4.000343E-010	-0.0013054	5
	38	14	158.3615	124996.8	-29440.76	1	128417.2	-13.25344	6.883851E-011	-0.0013134	5
	39	14	125.558	127789.9	-32911.97	1	131960	-14.44252	7.611577E-010	-0.0013064	5
	40	15	100.4464	130743.3	-36180.54	1	135657.1	-15.46834	3.996087E-010	-0.0012999	5
	41	15	79.00281	134663.2	-43176.68	1	141415.7	-17.77726	8.704404E-010	-0.0013044	5
	42	15	63.3446	138340.5	-42457.49	1	144709.1	-17.06155	3.880947E-010	-0.001312	5
	43	16	49.86702	144846.4	-51614.46	1	153767.8	-19.61298	-2.611653E-010	-0.0013105	5
	44	16	39.72458	149742.5	-62051.3	1	162090.1	-22.50846	-3.670393E-011	-0.0012952	5
	45	16	31.6723	156751.3	-71464.53	1	172273.4	-24.50874	1.568968E-010	-0.0013016	5
	46	17	24.93351	165804.7	-81335.91	1	184680	-26.13038	-2.685559E-010	-0.0013109	5
	47	17	19.86229	176680	-92513.4	1	199435.6	-27.6375	-1.675593E-009	-0.0013099	5
	48	17	15.83615	185629.3	-101250.7	1	211447.2	-28.61006	2.317329E-009	-0.0012988	5
	49	18	12.40079	200169.2	-119550.9	1	233152.6	-30.84773	-8.597809E-010	-0.0012988	5
	50	18	9.93114	213796.6	-133949.9	1	252292.6	-32.06836	-6.135417E-010	-0.0013003	5
	51	19	7.944915	230910.2	-149048.7	1	274836.3	-32.84158	-1.120656E-010	-0.0012926	5
	52	19	6.317385	248526.8	-168646.3	1	300345.1	-34.16019	-5.667007E-010	-0.0012763	5
	53	20	5.008013	268906.6	-189279.6	1	328842.7	-35.14118	4.231433E-011	-0.0013047	5
	54	21	3.945707	291417.4	-212919.7	1	360913.9	-36.15316	2.083272E-010	-0.0013145	5
	55	22	3.158693	315040.8	-238252.7	1	394987.4	-37.09875	5.600662E-010	-0.0012913	5
	56	24	2.504006	341546	-268207.3	1	434268.2	-38.14164	3.472513E-010	-0.0013038	5
	57	25	1.998082	369645.5	-302462.9	1	477620.8	-39.29179	1.731974E-010	-0.001351	5
	58	27	1.584686	400412.4	-342844.3	1	527135.9	-40.57106	2.92059E-010	-0.0013109	5
	59	29	1.266892	434061.2	-388169	1	582309.4	-41.80539	3.918034E-010	-0.0012829	5
	60	31	0.999041	474460.3	-446088.2	1	651235.2	-43.23465	4.307524E-010	-0.0012715	5
