EXPLAIN
TAG	EISPOT
TITLE	LABEL	Potentiostatic IDE	Test &Identifier
DATE	LABEL	9/18/2019	Date
TIME	LABEL	7:52:13	Time
NOTES	NOTES	1	&Notes...
	
PSTAT	PSTAT	REF600-11020	Potentiostat
VDC	POTEN	0.00000E+000	T	DC &Voltage (V)
FREQINIT	QUANT	1.00000E+006	Initial Fre&q. (Hz)
FREQFINAL	QUANT	1.00000E+000	Final Fre&q. (Hz)
PTSPERDEC	QUANT	1.00000E+001	Points/&decade
VAC	QUANT	2.50000E+001	AC &Voltage (mV rms)
AREA	QUANT	1.00000E-002	&Area (cm^2)
CONDIT	TWOPARAM	T	5.00000E+000	0.00000E+000	Conditionin&g	Time(s)	E(V)
DELAY	TWOPARAM	T	5.00000E+000	0.00000E+000	Init. De&lay	Time(s)	Stab.(mV/s)
SPEED	SELECTOR	1	&Optimize for:
ZGUESS	QUANT	1.00000E+007	E&stimated Z (ohms)
OCVCURVE	TABLE	19
	Pt	T	Vf	Vm	Ach	Over
	#	s	V vs. Ref.	V	V	bits
	0	0.258333	7.51545E-003	7.51545E-003	5.75599E-004	...........
	1	0.516667	7.52138E-003	7.82599E-003	5.74532E-004	...........
	2	0.775	7.55779E-003	8.11908E-003	5.69099E-004	...........
	3	1.03333	7.66073E-003	8.40242E-003	5.74899E-004	...........
	4	1.29167	7.84473E-003	8.66375E-003	5.70732E-004	...........
	5	1.55	8.08888E-003	8.92084E-003	5.75699E-004	...........
	6	1.80833	8.35873E-003	9.16285E-003	5.71999E-004	...........
	7	2.06667	8.62907E-003	9.39298E-003	5.69466E-004	...........
	8	2.325	8.88853E-003	9.61294E-003	5.74199E-004	...........
	9	2.58333	9.13445E-003	9.82746E-003	5.69866E-004	...........
	10	2.84167	9.36780E-003	1.00280E-002	5.72766E-004	...........
	11	3.1	9.59030E-003	1.02248E-002	5.70966E-004	...........
	12	3.35833	9.80307E-003	1.04029E-002	5.67766E-004	...........
	13	3.61667	1.00068E-002	1.06037E-002	5.73866E-004	...........
	14	3.875	1.02031E-002	1.07848E-002	5.67532E-004	...........
	15	4.13333	1.03943E-002	1.09535E-002	5.68032E-004	...........
	16	4.39167	1.05811E-002	1.11161E-002	5.71299E-004	...........
	17	4.65	1.07614E-002	1.12652E-002	5.67899E-004	...........
	18	4.90833	1.09326E-002	1.13861E-002	5.68866E-004	...........
EOC	QUANT	0.0109326	Open Circuit (V)
PSTATMODEL	IQUANT	4	Pstat Model
PSTATSECTION	LABEL	REF600-11020	Pstat Section
PSTATSERIALNO	LABEL	11020	Pstat Serial Number
CTRLMODE	IQUANT	1	Control Mode
IESTAB	IQUANT	0	I/E Stability
CASPEED	IQUANT	1	Control Amp Speed
CONVENTION	IQUANT	1	Current Convention
ICHRANGE	IQUANT	2	Ich Range
ICHRANGEMODE	TOGGLE	F	Ich Auto Range
ICHOFFSETENABLE	TOGGLE	T	Ich Offset Enable
ICHOFFSET	QUANT	0	Ich Offset (V)
ICHFILTER	IQUANT	3	Ich Filter
VCHRANGE	IQUANT	2	Vch Range
VCHRANGEMODE	TOGGLE	F	Vch Auto Range
VCHOFFSETENABLE	TOGGLE	T	Vch Offset Enable
VCHOFFSET	QUANT	0	Vch Offset (V)
VCHFILTER	IQUANT	3	Vch Filter
ACHRANGE	IQUANT	2	Ach Range
ACHOFFSETENABLE	TOGGLE	F	Ach Offset Enable
ACHOFFSET	QUANT	0	Ach Offset (V)
ACHFILTER	IQUANT	3	Ach Filter
IERANGELOWERLIMIT	IQUANT	1	I/E Range Lower Limit
IERANGEMODE	TOGGLE	F	I/E AutoRange
IERANGE	IQUANT	3	I/E Range
POSFEEDENABLE	TOGGLE	F	Positive Feedback IR Comp
POSFEEDRESISTANCE	QUANT	0	Positive Feedback Resistance (ohm)
ACHSELECT	IQUANT	0	Ach Select
CABLEID	IQUANT	14	Cable ID
DCCALDATE	LABEL	8/19/2019	DC Calibration Date
ACCALDATE	LABEL	8/19/2019	AC Calibration Date
THERMOSELECT	IQUANT	1	Thermo Select
FRAMEWORKVERSION	QUANT	6.33	Framework Version
INSTRUMENTVERSION	LABEL	3.50	Instrument Version
ZCURVE	TABLE
	Pt	Time	Freq	Zreal	Zimag	Zsig	Zmod	Zphz	Idc	Vdc	IERange
	#	s	Hz	ohm	ohm	V	ohm	°	A	V	#
	0	2	1000078	1408.073	-1730.058	1	2230.643	-50.85828	2.764281E-007	0.0137707	8
	1	3	794390.6	1564.368	-1975.728	1	2520.069	-51.62806	-8.808757E-007	0.0131916	8
	2	5	630984.4	1750.131	-2272.966	1	2868.681	-52.40455	8.495396E-007	0.0126969	8
	3	6	501234.4	1969.672	-2647.71	1	3299.997	-53.35387	6.691229E-007	0.0126075	8
	4	7	398109.4	2242.65	-3080.747	1	3810.574	-53.94701	-1.304655E-006	0.012968	8
	5	9	316265.6	2611.453	-3606.5	1	4452.7	-54.09185	-5.961752E-007	0.0128872	8
	6	10	251203.1	3077.487	-4202.278	1	5208.653	-53.78328	3.409218E-006	0.0120019	8
	7	12	199546.9	3698.244	-4874.759	1	6118.847	-52.81416	-8.915709E-007	0.0127688	8
	8	13	158578.1	4460.096	-5531.019	1	7105.254	-51.11803	-1.445179E-006	0.0129922	8
	9	15	125953.1	5558.131	-6190.223	1	8319.355	-48.07969	4.232216E-007	0.0114664	7
	10	16	100078.1	6726.983	-6748.642	1	9528.72	-45.09209	3.102268E-009	0.0125179	7
	11	17	79453.13	8097.179	-7157.228	1	10806.95	-41.47398	-2.618503E-009	0.0125168	7
	12	19	63140.62	9544.27	-7363.645	1	12054.72	-37.65109	-7.780141E-009	0.0126109	7
	13	20	50203.12	10984.55	-7319.236	1	13199.68	-33.67635	-1.026907E-008	0.0125904	7
	14	21	39890.62	12325.36	-7027.902	1	14188.23	-29.69172	3.541449E-008	0.0125012	7
	15	23	31640.63	13584.87	-6680.93	1	15138.8	-26.1876	-2.357839E-008	0.0125579	7
	16	24	25171.88	14634.84	-6223.871	1	15903.31	-23.03896	-4.235657E-008	0.0126255	7
	17	25	20015.62	15534.01	-5761.248	1	16567.96	-20.3488	3.601192E-008	0.0124961	7
	18	27	15890.62	16304.69	-5267.344	1	17134.41	-17.90341	6.161151E-008	0.0125088	7
	19	28	12609.37	16996.08	-4849.924	1	17674.52	-15.92638	-3.096455E-009	0.012454	6
	20	29	10078.13	17524.79	-4562.056	1	18108.86	-14.59139	1.707123E-009	0.012505	6
	21	31	8015.625	18041.46	-4354.352	1	18559.49	-13.56898	-3.58261E-009	0.0124888	6
	22	32	6328.125	18516.9	-4221.858	1	18992.1	-12.8439	-1.486718E-009	0.0124804	6
	23	33	5015.625	18974.44	-4165.571	1	19426.31	-12.38205	-2.701552E-010	0.0123939	6
	24	35	3984.375	19429.03	-4176.041	1	19872.76	-12.1305	-6.211537E-009	0.0124915	6
	25	36	3170.956	19881.06	-4268.197	1	20334.06	-12.11672	5.335431E-010	0.0124052	6
	26	37	2527.573	20338.18	-4426.9	1	20814.39	-12.27972	4.532492E-009	0.01236	6
	27	39	1976.103	20866.94	-4671.731	1	21383.51	-12.6194	-5.071549E-009	0.0125458	6
	28	40	1577.524	21365.51	-4965.806	1	21935	-13.08447	3.722955E-011	0.0124058	6
	29	41	1265.625	21869.13	-5368.576	1	22518.45	-13.79259	-4.1322E-009	0.0125013	6
	30	43	998.264	22477.32	-5855.323	1	23227.46	-14.601	-5.995355E-009	0.0125898	6
	31	44	796.875	23089.57	-6418.416	1	23965.06	-15.53481	-5.794598E-009	0.0125503	6
	32	45	627.7902	23779.87	-7150.085	1	24831.55	-16.73488	3.57195E-010	0.0124052	6
	33	47	505.5147	24464.4	-7935.625	1	25719.28	-17.97173	3.947926E-010	0.0125522	6
	34	48	397.9953	25279.79	-8996.842	1	26833.02	-19.59017	-3.468363E-010	0.0125093	6
	35	49	315.5048	26165	-10229.45	1	28093.57	-21.35347	-9.7598E-010	0.012513	6
	36	51	252.4038	27109.95	-11646.08	1	29505.6	-23.24774	-2.94102E-010	0.0125034	6
	37	52	198.6229	28266.64	-13462.61	1	31308.87	-25.46716	-4.923719E-010	0.012506	6
	38	53	158.3615	29518.75	-15508.87	1	33344.89	-27.717	-9.51606E-010	0.0125039	6
	39	55	125.558	31011.37	-18002.94	1	35858.2	-30.13632	-6.427107E-010	0.0125098	6
	40	56	100.4464	32687.69	-20808.75	1	38749.05	-32.48053	1.083513E-010	0.0125012	6
	41	57	79.00281	34931.87	-24383.07	1	42600.11	-34.91574	-3.283479E-010	0.0125047	6
	42	59	63.3446	36910.96	-28004.47	1	46332.16	-37.18771	-9.522315E-010	0.0125092	6
	43	60	49.86702	40486.68	-33050.77	1	52263.99	-39.22603	-1.5091E-009	0.0125043	6
	44	62	39.72458	43618.1	-38369.53	1	58092.68	-41.33712	-3.698903E-010	0.0125082	6
	45	63	31.6723	47822.51	-44549.44	1	65357.82	-42.97065	-6.855013E-010	0.0125049	6
	46	64	24.93351	52892.36	-51844.46	1	74063.82	-44.42678	-1.515511E-009	0.0125038	6
	47	66	19.86229	58635.42	-59772.38	1	83730.81	-45.55014	-1.874361E-009	0.0124985	6
	48	67	15.83615	65494.03	-69285.8	1	95341.4	-46.61148	-6.957337E-010	0.0125006	6
	49	68	12.40079	74671.52	-79695.18	1	109211.5	-46.86396	-1.052854E-009	0.0125046	5
	50	70	9.93114	83549.04	-90758.46	1	123359.4	-47.36842	-1.251512E-009	0.0125106	5
	51	71	7.944915	94324.93	-102654.2	1	139409.8	-47.42132	-1.255155E-009	0.0125043	5
	52	73	6.317385	106993.9	-116603.2	1	158252.9	-47.46083	-1.563112E-009	0.0125107	5
	53	75	5.008013	121721.1	-132316.2	1	179787.7	-47.38824	-1.417565E-009	0.0125057	5
	54	77	3.945707	138958.6	-149988.5	1	204465.3	-47.18607	-8.225499E-010	0.0125126	5
	55	80	3.158693	156819.9	-168284.6	1	230026.5	-47.01967	-6.498584E-010	0.0125209	5
	56	83	2.504006	178348.4	-189739.7	1	260402.2	-46.77258	-1.87761E-009	0.0125053	5
	57	86	1.998082	201156.7	-211852.7	1	292139.7	-46.4835	-9.383775E-010	0.0124606	5
	58	89	1.584686	227623.8	-238481.1	1	329675.4	-46.33438	-1.431326E-009	0.0124737	5
	59	92	1.266892	257197.5	-265834.2	1	369889.7	-45.94602	-6.542449E-010	0.0124772	5
	60	97	0.999041	295587	-296782.9	1	418869.7	-45.11567	-1.340212E-009	0.0125254	5
