EXPLAIN
TAG	EISPOT
TITLE	LABEL	Potentiostatic EIS	Test &Identifier
DATE	LABEL	9/26/2019	Date
TIME	LABEL	10:04:11	Time
NOTES	NOTES	2	&Notes...
	
	
PSTAT	PSTAT	REF600-11020	Potentiostat
VDC	POTEN	0.00000E+000	T	DC &Voltage (V)
FREQINIT	QUANT	1.00000E+006	Initial Fre&q. (Hz)
FREQFINAL	QUANT	1.00000E+000	Final Fre&q. (Hz)
PTSPERDEC	QUANT	1.00000E+001	Points/&decade
VAC	QUANT	2.50000E+001	AC &Voltage (mV rms)
AREA	QUANT	1.00000E-002	&Area (cm^2)
CONDIT	TWOPARAM	T	5.00000E+000	0.00000E+000	Conditionin&g	Time(s)	E(V)
DELAY	TWOPARAM	T	5.00000E+000	0.00000E+000	Init. De&lay	Time(s)	Stab.(mV/s)
SPEED	SELECTOR	1	&Optimize for:
ZGUESS	QUANT	1.00000E+004	E&stimated Z (ohms)
OCVCURVE	TABLE	19
	Pt	T	Vf	Vm	Ach	Over
	#	s	V vs. Ref.	V	V	bits
	0	0.258333	6.90221E-002	6.90221E-002	5.60466E-004	...........
	1	0.516667	6.91158E-002	7.39270E-002	5.59766E-004	...........
	2	0.775	6.96880E-002	7.84119E-002	5.57899E-004	...........
	3	1.03333	7.12963E-002	8.27120E-002	5.60566E-004	...........
	4	1.29167	7.41480E-002	8.65635E-002	5.59999E-004	...........
	5	1.55	7.78893E-002	9.01525E-002	5.58166E-004	...........
	6	1.80833	8.19536E-002	9.34930E-002	5.58666E-004	...........
	7	2.06667	8.59286E-002	9.66193E-002	5.57766E-004	...........
	8	2.325	8.96394E-002	9.95589E-002	5.59099E-004	...........
	9	2.58333	9.30649E-002	1.02322E-001	5.53333E-004	...........
	10	2.84167	9.62410E-002	1.04930E-001	5.53066E-004	...........
	11	3.1	9.92079E-002	1.07387E-001	5.53766E-004	...........
	12	3.35833	1.01987E-001	1.09332E-001	5.60399E-004	...........
	13	3.61667	1.04585E-001	1.12057E-001	5.62766E-004	...........
	14	3.875	1.07030E-001	1.14096E-001	5.58099E-004	...........
	15	4.13333	1.09378E-001	1.16087E-001	5.59666E-004	...........
	16	4.39167	1.11647E-001	1.17987E-001	5.59566E-004	...........
	17	4.65	1.13811E-001	1.19814E-001	5.63199E-004	...........
	18	4.90833	1.15853E-001	1.21548E-001	5.60899E-004	...........
EOC	QUANT	0.1158532	Open Circuit (V)
PSTATMODEL	IQUANT	4	Pstat Model
PSTATSECTION	LABEL	REF600-11020	Pstat Section
PSTATSERIALNO	LABEL	11020	Pstat Serial Number
CTRLMODE	IQUANT	1	Control Mode
IESTAB	IQUANT	0	I/E Stability
CASPEED	IQUANT	1	Control Amp Speed
CONVENTION	IQUANT	1	Current Convention
ICHRANGE	IQUANT	2	Ich Range
ICHRANGEMODE	TOGGLE	F	Ich Auto Range
ICHOFFSETENABLE	TOGGLE	T	Ich Offset Enable
ICHOFFSET	QUANT	0	Ich Offset (V)
ICHFILTER	IQUANT	3	Ich Filter
VCHRANGE	IQUANT	2	Vch Range
VCHRANGEMODE	TOGGLE	F	Vch Auto Range
VCHOFFSETENABLE	TOGGLE	T	Vch Offset Enable
VCHOFFSET	QUANT	0	Vch Offset (V)
VCHFILTER	IQUANT	3	Vch Filter
ACHRANGE	IQUANT	2	Ach Range
ACHOFFSETENABLE	TOGGLE	F	Ach Offset Enable
ACHOFFSET	QUANT	0	Ach Offset (V)
ACHFILTER	IQUANT	3	Ach Filter
IERANGELOWERLIMIT	IQUANT	1	I/E Range Lower Limit
IERANGEMODE	TOGGLE	F	I/E AutoRange
IERANGE	IQUANT	7	I/E Range
POSFEEDENABLE	TOGGLE	F	Positive Feedback IR Comp
POSFEEDRESISTANCE	QUANT	0	Positive Feedback Resistance (ohm)
ACHSELECT	IQUANT	0	Ach Select
CABLEID	IQUANT	14	Cable ID
DCCALDATE	LABEL	8/19/2019	DC Calibration Date
ACCALDATE	LABEL	8/19/2019	AC Calibration Date
THERMOSELECT	IQUANT	1	Thermo Select
FRAMEWORKVERSION	QUANT	6.33	Framework Version
INSTRUMENTVERSION	LABEL	3.50	Instrument Version
ZCURVE	TABLE
	Pt	Time	Freq	Zreal	Zimag	Zsig	Zmod	Zphz	Idc	Vdc	IERange
	#	s	Hz	ohm	ohm	V	ohm	°	A	V	#
	0	2	1000078	2244.563	-2236.15	1	3168.348	-44.89241	-4.289595E-006	0.1177817	8
	1	3	794390.6	2606.833	-2400.413	1	3543.665	-42.63935	3.187452E-006	0.1169669	8
	2	4	630984.4	3035.131	-2542.313	1	3959.214	-39.9505	4.321295E-007	0.1171748	8
	3	6	501234.4	3484.921	-2627.004	1	4364.152	-37.00973	-1.221025E-006	0.1176197	8
	4	8	398109.4	3970.251	-2714.184	1	4809.334	-34.3577	-5.848577E-007	0.1176066	8
	5	9	316265.6	4476.517	-2714.383	1	5235.177	-31.23096	-4.34718E-006	0.1183179	8
	6	11	251203.1	4982.269	-2707.679	1	5670.496	-28.52245	3.907697E-006	0.1166052	8
	7	12	199546.9	5510.925	-2584.822	1	6087.002	-25.12826	4.552145E-006	0.1164851	8
	8	14	158578.1	5892.679	-2467.014	1	6388.257	-22.71699	3.643229E-006	0.1166171	8
	9	16	125953.1	6349.541	-2202.156	1	6720.578	-19.12764	-8.839496E-007	0.1190825	7
	10	17	100078.1	6664.932	-2023.637	1	6965.374	-16.88958	-6.125447E-008	0.1173151	7
	11	19	79453.13	6953.691	-1861.232	1	7198.472	-14.9846	6.91419E-008	0.1171451	7
	12	20	63140.62	7179.434	-1705.921	1	7379.325	-13.3663	3.999322E-008	0.1171186	7
	13	22	50203.12	7373.521	-1572.372	1	7539.308	-12.03777	-4.189997E-008	0.1172941	7
	14	24	39890.62	7542.197	-1464.707	1	7683.105	-10.99014	-4.130002E-008	0.1172927	7
	15	25	31640.63	7696.367	-1398.564	1	7822.407	-10.29926	-2.823607E-008	0.1173372	7
	16	27	25171.88	7826.488	-1354.175	1	7942.777	-9.81639	-4.172562E-008	0.1172944	7
	17	28	20015.62	7969.225	-1340.196	1	8081.13	-9.54619	-3.655598E-009	0.1173982	7
	18	30	15890.62	8097.879	-1359.989	1	8211.286	-9.53351	7.084337E-008	0.1171438	7
	19	31	12609.37	8225.049	-1409.653	1	8344.972	-9.72517	-2.950061E-008	0.1172424	7
	20	33	10078.13	8361.561	-1480.461	1	8491.611	-10.04048	-6.057883E-008	0.117309	7
	21	35	8015.625	8516.9	-1588.954	1	8663.854	-10.56789	-8.023942E-009	0.1172829	7
	22	36	6328.125	8682.881	-1738.56	1	8855.226	-11.32252	8.665288E-008	0.1170742	7
	23	38	5015.625	8868.591	-1919.562	1	9073.953	-12.21299	1.021291E-007	0.1171897	7
	24	39	3984.375	9082.229	-2090.464	1	9319.707	-12.96206	-9.307651E-009	0.1174138	6
	25	41	3170.956	9304.464	-2348.304	1	9596.23	-14.16477	-7.873882E-009	0.1172844	6
	26	42	2527.573	9553.29	-2645.217	1	9912.75	-15.47691	-4.504547E-009	0.1171061	6
	27	44	1976.103	9852.14	-3011.836	1	10302.22	-16.9986	-3.538649E-009	0.1173293	6
	28	45	1577.524	10161.35	-3397.235	1	10714.21	-18.48628	4.748495E-009	0.1170285	6
	29	46	1265.625	10441.48	-3789.335	1	11107.82	-19.94642	7.971718E-009	0.1171911	6
	30	48	998.264	10828.75	-4362.126	1	11674.33	-21.94096	5.08629E-009	0.1169891	6
	31	49	796.875	11173.25	-4971.078	1	12229.19	-23.9847	1.675434E-009	0.1170715	6
	32	50	627.7902	11532.56	-5748.459	1	12885.83	-26.49418	-2.385175E-009	0.1171894	6
	33	52	505.5147	11855.82	-6635.902	1	13586.6	-29.23647	1.453344E-009	0.1172681	6
	34	53	397.9953	12220.67	-7848.673	1	14523.99	-32.71044	-1.467074E-009	0.1172114	6
	35	54	315.5048	12589.28	-9347.255	1	15679.96	-36.59305	-7.859132E-010	0.1172119	6
	36	56	252.4038	12980.24	-11155.72	1	17115.39	-40.67704	-7.402036E-010	0.117209	6
	37	57	198.6229	13454.05	-13595.39	1	19127.11	-45.29939	-5.749603E-010	0.1172104	6
	38	59	158.3615	14001.72	-16487.1	1	21630.36	-49.66032	-7.142669E-010	0.1172123	6
	39	60	125.558	14679.61	-20149.19	1	24929.52	-53.92494	-5.114228E-010	0.1172092	6
	40	61	100.4464	15491.49	-24465.22	1	28957.44	-57.65783	-1.514844E-009	0.1172135	6
	41	63	79.00281	16555.53	-30266.25	1	34498.29	-61.3215	-1.126106E-009	0.1172094	6
	42	64	63.3446	18548	-36953.72	1	41347.38	-63.34678	-5.12175E-010	0.1172112	6
	43	66	49.86702	19621.07	-45726.97	1	49758.84	-66.77622	-2.186995E-010	0.1172084	6
	44	67	39.72458	22218.03	-55536.68	1	59816.08	-68.1956	-5.783159E-010	0.1172097	6
	45	68	31.6723	25190.19	-67511.52	1	72057.96	-69.53823	-1.389281E-009	0.1172096	6
	46	70	24.93351	29458.44	-83180.24	1	88242.58	-70.49831	-8.517699E-010	0.1172084	6
	47	71	19.86229	34467.82	-101006.7	1	106725.7	-71.15816	-9.663426E-010	0.1172131	5
	48	73	15.83615	41276.5	-123071.4	1	129808.7	-71.45923	-1.147513E-010	0.1172119	5
	49	74	12.40079	50192.49	-150025.6	1	158199.2	-71.50185	-5.460972E-010	0.1172193	5
	50	76	9.93114	60014.16	-180849.9	1	190547.6	-71.64182	-9.578707E-010	0.1172233	5
	51	77	7.944915	74406.15	-216658.9	1	229079.3	-71.04623	-1.254478E-009	0.1172175	5
	52	79	6.317385	89432.97	-260654.8	1	275570.7	-71.06245	-8.031665E-010	0.1172313	5
	53	81	5.008013	110354.6	-313778.1	1	332618.1	-70.62342	-7.895958E-010	0.1172163	5
	54	83	3.945707	137395.4	-378719.8	1	402872.4	-70.05978	-7.512918E-010	0.1172225	5
	55	86	3.158693	169373.1	-450011.4	1	480830	-69.37491	-9.192915E-010	0.1172203	5
	56	89	2.504006	209994.3	-536970.8	1	576571.9	-68.64091	-6.751042E-010	0.1172196	5
	57	92	1.998082	258979.8	-635139.9	1	685910.6	-67.8167	-8.268329E-010	0.1172575	5
	58	95	1.584686	319900.5	-750895.7	1	816198.9	-66.92477	-7.977534E-010	0.1171967	5
	59	99	1.266892	393467.4	-884308.5	1	967894	-66.01363	-7.530559E-010	0.1172516	5
	60	103	0.999041	490718.8	-1045647	1	1155068	-64.85948	-8.837359E-010	0.117178	4
