EXPLAIN
TAG	EISPOT
TITLE	LABEL	Potentiostatic EIS	Test &Identifier
DATE	LABEL	10/24/2019	Date
TIME	LABEL	10:09:33	Time
NOTES	NOTES	1	&Notes...
	
PSTAT	PSTAT	REF600-11020	Potentiostat
VDC	POTEN	0.00000E+000	T	DC &Voltage (V)
FREQINIT	QUANT	1.00000E+006	Initial Fre&q. (Hz)
FREQFINAL	QUANT	1.00000E+000	Final Fre&q. (Hz)
PTSPERDEC	QUANT	1.00000E+001	Points/&decade
VAC	QUANT	2.50000E+001	AC &Voltage (mV rms)
AREA	QUANT	1.00000E-002	&Area (cm^2)
CONDIT	TWOPARAM	T	5.00000E+000	0.00000E+000	Conditionin&g	Time(s)	E(V)
DELAY	TWOPARAM	T	5.00000E+000	0.00000E+000	Init. De&lay	Time(s)	Stab.(mV/s)
SPEED	SELECTOR	1	&Optimize for:
ZGUESS	QUANT	1.00000E+005	E&stimated Z (ohms)
OCVCURVE	TABLE	19
	Pt	T	Vf	Vm	Ach	Over
	#	s	V vs. Ref.	V	V	bits
	0	0.258333	5.32035E-003	5.32035E-003	5.34099E-004	...........
	1	0.516667	5.31915E-003	5.25747E-003	5.39133E-004	...........
	2	0.775	5.31098E-003	5.15629E-003	5.31033E-004	...........
	3	1.03333	5.29075E-003	5.34851E-003	5.29700E-004	...........
	4	1.29167	5.26219E-003	4.93714E-003	5.31466E-004	...........
	5	1.55	5.21841E-003	4.77110E-003	5.29033E-004	...........
	6	1.80833	5.13311E-003	4.70438E-003	5.35966E-004	...........
	7	2.06667	5.00121E-003	4.58611E-003	5.32100E-004	...........
	8	2.325	4.85693E-003	4.67140E-003	5.28333E-004	...........
	9	2.58333	4.74144E-003	4.66315E-003	5.30733E-004	...........
	10	2.84167	4.67259E-003	4.51975E-003	5.29766E-004	...........
	11	3.1	4.63531E-003	4.50322E-003	5.24333E-004	...........
	12	3.35833	4.60104E-003	4.46186E-003	5.29033E-004	...........
	13	3.61667	4.55866E-003	4.45942E-003	5.33500E-004	...........
	14	3.875	4.51592E-003	4.42965E-003	5.27133E-004	...........
	15	4.13333	4.48023E-003	4.37029E-003	5.29200E-004	...........
	16	4.39167	4.45147E-003	4.45184E-003	5.31700E-004	...........
	17	4.65	4.43027E-003	4.41578E-003	5.28066E-004	...........
	18	4.90833	4.42113E-003	4.48095E-003	5.27833E-004	...........
EOC	QUANT	0.0044211	Open Circuit (V)
PSTATMODEL	IQUANT	4	Pstat Model
PSTATSECTION	LABEL	REF600-11020	Pstat Section
PSTATSERIALNO	LABEL	11020	Pstat Serial Number
CTRLMODE	IQUANT	1	Control Mode
IESTAB	IQUANT	0	I/E Stability
CASPEED	IQUANT	1	Control Amp Speed
CONVENTION	IQUANT	1	Current Convention
ICHRANGE	IQUANT	2	Ich Range
ICHRANGEMODE	TOGGLE	F	Ich Auto Range
ICHOFFSETENABLE	TOGGLE	T	Ich Offset Enable
ICHOFFSET	QUANT	0	Ich Offset (V)
ICHFILTER	IQUANT	3	Ich Filter
VCHRANGE	IQUANT	2	Vch Range
VCHRANGEMODE	TOGGLE	F	Vch Auto Range
VCHOFFSETENABLE	TOGGLE	T	Vch Offset Enable
VCHOFFSET	QUANT	0	Vch Offset (V)
VCHFILTER	IQUANT	3	Vch Filter
ACHRANGE	IQUANT	2	Ach Range
ACHOFFSETENABLE	TOGGLE	F	Ach Offset Enable
ACHOFFSET	QUANT	0	Ach Offset (V)
ACHFILTER	IQUANT	3	Ach Filter
IERANGELOWERLIMIT	IQUANT	1	I/E Range Lower Limit
IERANGEMODE	TOGGLE	F	I/E AutoRange
IERANGE	IQUANT	4	I/E Range
POSFEEDENABLE	TOGGLE	F	Positive Feedback IR Comp
POSFEEDRESISTANCE	QUANT	0	Positive Feedback Resistance (ohm)
ACHSELECT	IQUANT	0	Ach Select
CABLEID	IQUANT	14	Cable ID
DCCALDATE	LABEL	8/19/2019	DC Calibration Date
ACCALDATE	LABEL	8/19/2019	AC Calibration Date
THERMOSELECT	IQUANT	1	Thermo Select
FRAMEWORKVERSION	QUANT	6.33	Framework Version
INSTRUMENTVERSION	LABEL	3.50	Instrument Version
ZCURVE	TABLE
	Pt	Time	Freq	Zreal	Zimag	Zsig	Zmod	Zphz	Idc	Vdc	IERange
	#	s	Hz	ohm	ohm	V	ohm	°	A	V	#
	0	2	1000078	2407.644	-1944.155	1	3094.59	-38.92062	-1.638847E-006	0.0073491	8
	1	3	794390.6	2814.704	-1927.798	1	3411.592	-34.40735	3.21722E-007	0.0065144	8
	2	5	630984.4	3190.502	-1841.22	1	3683.666	-29.98898	4.44137E-007	0.0059952	8
	3	6	501234.4	3528.609	-1705.997	1	3919.376	-25.80264	-2.847361E-006	0.0068506	8
	4	7	398109.4	3810.286	-1534.562	1	4107.695	-21.93671	1.352031E-006	0.0058148	8
	5	9	316265.6	4048.748	-1363.553	1	4272.194	-18.61269	-2.448397E-006	0.0065784	8
	6	10	251203.1	4213.935	-1170.763	1	4373.549	-15.52696	-4.21843E-007	0.0061451	8
	7	12	199546.9	4352.464	-1017.784	1	4469.88	-13.1616	-1.442998E-007	0.0061091	8
	8	13	158578.1	4447.475	-894.4902	1	4536.535	-11.3718	-1.902634E-007	0.0061219	8
	9	14	125953.1	4541.919	-731.1534	1	4600.393	-9.144958	3.939366E-007	0.0052904	7
	10	16	100078.1	4602.766	-633.8963	1	4646.211	-7.841489	7.342389E-009	0.0061099	7
	11	17	79453.13	4654.595	-574.1737	1	4689.875	-7.032271	5.521141E-008	0.0059309	7
	12	18	63140.62	4700.876	-528.3184	1	4730.471	-6.412406	7.198871E-008	0.0059668	7
	13	20	50203.12	4741.054	-499.7883	1	4767.325	-6.017731	-2.981734E-008	0.0060267	7
	14	21	39890.62	4779.294	-482.943	1	4803.632	-5.770096	-3.478991E-008	0.0060478	7
	15	22	31640.63	4817.699	-479.7138	1	4841.523	-5.686382	-2.597777E-008	0.0060111	7
	16	24	25171.88	4854.942	-489.7203	1	4879.579	-5.759969	5.492233E-008	0.0059247	7
	17	25	20015.62	4901.575	-510.9726	1	4928.137	-5.951394	9.212117E-010	0.0059669	7
	18	27	15890.62	4931.215	-549.8865	1	4961.78	-6.362843	-5.22048E-008	0.0060993	7
	19	28	12609.37	4973.059	-604.5587	1	5009.671	-6.931251	3.782468E-008	0.0059749	7
	20	29	10078.13	5012.002	-671.6976	1	5056.812	-7.633173	3.895762E-008	0.0059705	7
	21	31	8015.625	5066.525	-763.0178	1	5123.658	-8.564373	7.447029E-008	0.0059612	7
	22	32	6328.125	5105.917	-880.993	1	5181.365	-9.78963	-2.524486E-008	0.0060127	7
	23	33	5015.625	5159.859	-1029.346	1	5261.53	-11.28189	7.407336E-008	0.005963	7
	24	35	3984.375	5207.833	-1229.319	1	5350.958	-13.28165	7.439372E-008	0.0059598	7
	25	36	3170.956	5281.288	-1439.362	1	5473.917	-15.24513	-1.185865E-008	0.0060388	7
	26	38	2527.573	5352.982	-1714.617	1	5620.884	-17.76081	-2.504952E-008	0.0060188	7
	27	39	1976.103	5444.306	-2084.74	1	5829.803	-20.9529	-2.924698E-008	0.0060258	7
	28	40	1577.524	5596.013	-2459.616	1	6112.698	-23.72694	-2.505577E-008	0.0060811	7
	29	42	1265.625	5649.227	-3015.49	1	6403.667	-28.09277	-2.517658E-008	0.0060157	7
	30	43	998.264	5785.852	-3683.243	1	6858.743	-32.48062	7.698864E-009	0.0059598	7
	31	44	796.875	5943.497	-4469.149	1	7436.292	-36.94094	-2.622438E-008	0.0060681	7
	32	46	627.7902	6148.976	-5489.608	1	8242.918	-41.75745	-2.528548E-008	0.0060045	7
	33	47	505.5147	6369.866	-6638.254	1	9200.088	-46.18198	-2.678666E-008	0.0060637	7
	34	49	397.9953	6687.107	-8188.446	1	10572.04	-50.76315	7.352345E-010	0.0059712	6
	35	50	315.5048	7067.217	-10052.75	1	12288.34	-54.89226	9.984954E-010	0.0059698	6
	36	51	252.4038	7538.846	-12255.95	1	14388.97	-58.40361	7.699533E-010	0.0059687	6
	37	53	198.6229	8196.682	-15158.04	1	17232.29	-61.59778	1.169998E-009	0.0059714	6
	38	54	158.3615	9017.458	-18525.54	1	20603.64	-64.04511	2.70459E-010	0.0059646	6
	39	55	125.558	10151.18	-22729.28	1	24893.1	-65.93387	6.109389E-010	0.0059658	6
	40	57	100.4464	11643.67	-27613.33	1	29967.84	-67.13638	2.454192E-010	0.0059663	6
	41	58	79.00281	13824.31	-34021.04	1	36722.51	-67.88583	3.915316E-010	0.0059653	6
	42	60	63.3446	16825.46	-41253.41	1	44552.67	-67.8116	2.588616E-010	0.0059634	6
	43	61	49.86702	19871.34	-50158.8	1	53951.6	-68.38808	1.267035E-009	0.0059627	6
	44	62	39.72458	25101.29	-59967.64	1	65009.17	-67.28676	1.266061E-009	0.0059678	6
	45	64	31.6723	31519.31	-70952.24	1	77638.19	-66.04764	1.475714E-009	0.0059647	6
	46	65	24.93351	40355.12	-84573.56	1	93708.18	-64.49139	1.040502E-009	0.005966	6
	47	66	19.86229	50558.47	-98352.4	1	110586.4	-62.79438	-2.454887E-011	0.0059726	5
	48	68	15.83615	63290.18	-113667.2	1	130099.5	-60.89083	-4.295126E-011	0.0059751	5
	49	69	12.40079	78680.03	-129934	1	151899.3	-58.80349	1.669115E-009	0.0059698	5
	50	71	9.93114	95271.2	-146593.6	1	174832.2	-56.98016	3.107436E-010	0.005974	5
	51	72	7.944915	112928.8	-163284.2	1	198531.2	-55.33192	3.512254E-011	0.0059683	5
	52	74	6.317385	130993.4	-183202.8	1	225216.6	-54.43454	6.617489E-010	0.0059747	5
	53	76	5.008013	151080.5	-205742.5	1	255255.3	-53.70948	3.672992E-010	0.0059764	5
	54	79	3.945707	172737.1	-233435.5	1	290396.7	-53.49937	1.033507E-010	0.0059689	5
	55	81	3.158693	194035.6	-263417.9	1	327167.9	-53.62437	5.117742E-011	0.0059818	5
	56	85	2.504006	217947.9	-302514.2	1	372848.7	-54.22894	2.439066E-010	0.0059668	5
	57	87	1.998082	243705	-346781.3	1	423850.6	-54.90188	-1.178453E-011	0.0060132	5
	58	90	1.584686	272098.8	-402428	1	485783.9	-55.93569	9.620343E-011	0.005996	5
	59	94	1.266892	306813.2	-467782.3	1	559423.5	-56.73958	-6.416881E-013	0.0060141	5
	60	98	0.999041	345882.6	-549299.8	1	649126.4	-57.80224	9.051385E-011	0.0059331	5
