EXPLAIN
TAG	EISPOT
TITLE	LABEL	Potentiostatic EIS	Test &Identifier
DATE	LABEL	10/18/2019	Date
TIME	LABEL	9:58:15	Time
NOTES	NOTES	1	&Notes...
	
PSTAT	PSTAT	REF600-11020	Potentiostat
VDC	POTEN	0.00000E+000	T	DC &Voltage (V)
FREQINIT	QUANT	1.00000E+006	Initial Fre&q. (Hz)
FREQFINAL	QUANT	1.00000E+000	Final Fre&q. (Hz)
PTSPERDEC	QUANT	1.00000E+001	Points/&decade
VAC	QUANT	2.50000E+001	AC &Voltage (mV rms)
AREA	QUANT	1.00000E-002	&Area (cm^2)
CONDIT	TWOPARAM	T	5.00000E+000	0.00000E+000	Conditionin&g	Time(s)	E(V)
DELAY	TWOPARAM	T	5.00000E+000	0.00000E+000	Init. De&lay	Time(s)	Stab.(mV/s)
SPEED	SELECTOR	0	&Optimize for:
ZGUESS	QUANT	1.00000E+005	E&stimated Z (ohms)
OCVCURVE	TABLE	19
	Pt	T	Vf	Vm	Ach	Over
	#	s	V vs. Ref.	V	V	bits
	0	0.258333	3.07587E-003	3.07587E-003	5.24466E-004	...........
	1	0.516667	3.09397E-003	4.02332E-003	5.27033E-004	...........
	2	0.775	3.19482E-003	4.38275E-003	5.24566E-004	...........
	3	1.03333	3.44938E-003	4.90855E-003	5.23433E-004	...........
	4	1.29167	3.84849E-003	5.14195E-003	5.24700E-004	...........
	5	1.55	4.30981E-003	5.69545E-003	5.23433E-004	...........
	6	1.80833	4.75789E-003	5.68361E-003	5.23200E-004	...........
	7	2.06667	5.14544E-003	5.63443E-003	5.20533E-004	...........
	8	2.325	5.42946E-003	5.63540E-003	5.22800E-004	...........
	9	2.58333	5.58957E-003	5.70109E-003	5.18333E-004	...........
	10	2.84167	5.65847E-003	5.88827E-003	5.13533E-004	...........
	11	3.1	5.70255E-003	6.08358E-003	5.14800E-004	...........
	12	3.35833	5.77515E-003	6.16265E-003	5.18033E-004	...........
	13	3.61667	5.88861E-003	6.31981E-003	5.16833E-004	...........
	14	3.875	6.02396E-003	6.40591E-003	5.15233E-004	...........
	15	4.13333	6.16064E-003	6.56998E-003	5.14500E-004	...........
	16	4.39167	6.29172E-003	6.67965E-003	5.16933E-004	...........
	17	4.65	6.41958E-003	6.81532E-003	5.18866E-004	...........
	18	4.90833	6.54722E-003	6.94288E-003	5.18933E-004	...........
EOC	QUANT	0.0065472	Open Circuit (V)
PSTATMODEL	IQUANT	4	Pstat Model
PSTATSECTION	LABEL	REF600-11020	Pstat Section
PSTATSERIALNO	LABEL	11020	Pstat Serial Number
CTRLMODE	IQUANT	1	Control Mode
IESTAB	IQUANT	0	I/E Stability
CASPEED	IQUANT	1	Control Amp Speed
CONVENTION	IQUANT	1	Current Convention
ICHRANGE	IQUANT	2	Ich Range
ICHRANGEMODE	TOGGLE	F	Ich Auto Range
ICHOFFSETENABLE	TOGGLE	T	Ich Offset Enable
ICHOFFSET	QUANT	0	Ich Offset (V)
ICHFILTER	IQUANT	3	Ich Filter
VCHRANGE	IQUANT	2	Vch Range
VCHRANGEMODE	TOGGLE	F	Vch Auto Range
VCHOFFSETENABLE	TOGGLE	T	Vch Offset Enable
VCHOFFSET	QUANT	0	Vch Offset (V)
VCHFILTER	IQUANT	3	Vch Filter
ACHRANGE	IQUANT	2	Ach Range
ACHOFFSETENABLE	TOGGLE	F	Ach Offset Enable
ACHOFFSET	QUANT	0	Ach Offset (V)
ACHFILTER	IQUANT	3	Ach Filter
IERANGELOWERLIMIT	IQUANT	1	I/E Range Lower Limit
IERANGEMODE	TOGGLE	F	I/E AutoRange
IERANGE	IQUANT	5	I/E Range
POSFEEDENABLE	TOGGLE	F	Positive Feedback IR Comp
POSFEEDRESISTANCE	QUANT	0	Positive Feedback Resistance (ohm)
ACHSELECT	IQUANT	0	Ach Select
CABLEID	IQUANT	14	Cable ID
DCCALDATE	LABEL	8/19/2019	DC Calibration Date
ACCALDATE	LABEL	8/19/2019	AC Calibration Date
THERMOSELECT	IQUANT	1	Thermo Select
FRAMEWORKVERSION	QUANT	6.33	Framework Version
INSTRUMENTVERSION	LABEL	3.50	Instrument Version
ZCURVE	TABLE
	Pt	Time	Freq	Zreal	Zimag	Zsig	Zmod	Zphz	Idc	Vdc	IERange
	#	s	Hz	ohm	ohm	V	ohm	°	A	V	#
	0	1	1000078	2244.908	-1110.957	1	2504.762	-26.32982	-2.124559E-006	0.0090962	8
	1	1	794390.6	2431.923	-1035.168	1	2643.07	-23.05742	-2.871023E-006	0.0092623	8
	2	2	630984.4	2591.541	-960.044	1	2763.652	-20.32729	-2.6279E-006	0.0090343	8
	3	2	501234.4	2730.907	-887.9918	1	2871.652	-18.01264	1.694941E-006	0.0079394	8
	4	2	398109.4	2847.093	-805.906	1	2958.956	-15.80484	-1.091181E-006	0.0083355	8
	5	3	316265.6	2955.696	-736.0623	1	3045.969	-13.98402	-3.157211E-006	0.0089359	8
	6	3	251203.1	3029.594	-674.2468	1	3103.715	-12.5469	3.689325E-007	0.0079111	8
	7	3	199546.9	3108.655	-629.0997	1	3171.672	-11.44046	2.77299E-007	0.0079094	8
	8	4	158578.1	3169.689	-592.5644	1	3224.603	-10.58905	3.434024E-006	0.007503	8
	9	4	125953.1	3256.103	-513.0581	1	3296.276	-8.954369	-2.76532E-007	0.0083158	7
	10	4	100078.1	3303.354	-513.6002	1	3343.043	-8.837498	1.150914E-009	0.0082103	7
	11	5	79453.13	3358.804	-522.883	1	3399.261	-8.848515	-3.110189E-008	0.0081074	7
	12	5	63140.62	3417.902	-539.4903	1	3460.218	-8.969707	-8.648856E-009	0.0081391	7
	13	5	50203.12	3482.127	-561.1827	1	3527.058	-9.155119	-2.964386E-008	0.0081747	7
	14	6	39890.62	3550.246	-590.9285	1	3599.09	-9.450087	-3.268334E-008	0.0080976	7
	15	6	31640.63	3622.819	-625.2629	1	3676.38	-9.79222	-5.190163E-008	0.0082658	7
	16	6	25171.88	3699.397	-667.4606	1	3759.128	-10.22751	3.497429E-008	0.0080584	7
	17	7	20015.62	3789.374	-717.7484	1	3856.749	-10.72538	3.449609E-008	0.0080563	7
	18	7	15890.62	3871.514	-772.4323	1	3947.818	-11.28331	-3.536341E-008	0.0081613	7
	19	7	12609.37	3967.508	-836.5927	1	4054.751	-11.90702	8.0132E-008	0.0080454	7
	20	7	10078.13	4067.298	-908.3359	1	4167.492	-12.58909	-6.127788E-008	0.0082028	7
	21	8	8015.625	4179.092	-986.932	1	4294.048	-13.28749	-5.026234E-008	0.0081476	7
	22	8	6328.125	4291.579	-1084.093	1	4426.388	-14.17687	4.676417E-009	0.0080395	7
	23	8	5015.625	4410.129	-1191.206	1	4568.174	-15.11528	3.595721E-008	0.008057	7
	24	9	3984.375	4508.38	-1326.283	1	4699.417	-16.39292	-6.269996E-008	0.0081974	7
	25	9	3170.956	4644.669	-1466.056	1	4870.552	-17.51793	-6.170764E-008	0.0081928	7
	26	9	2527.573	4755.806	-1648.639	1	5033.458	-19.1193	-3.172855E-008	0.0081045	7
	27	10	1976.103	4876.39	-1903.315	1	5234.671	-21.32131	1.182059E-007	0.0079057	7
	28	10	1577.524	4972.545	-2206.381	1	5440.066	-23.92746	-1.207901E-008	0.0081129	7
	29	10	1265.625	5102.086	-2572.235	1	5713.814	-26.75512	-2.99721E-008	0.0080812	7
	30	11	998.264	5246.175	-3075.436	1	6081.173	-30.37987	-1.023134E-008	0.0081064	7
	31	11	796.875	5395.516	-3671.274	1	6526.089	-34.23257	-5.083117E-008	0.0082451	7
	32	11	627.7902	5601.374	-4463.408	1	7162.22	-38.5493	-3.472655E-008	0.0081472	7
	33	12	505.5147	5835.085	-5336.632	1	7907.456	-42.44531	-6.300275E-009	0.0081231	7
	34	12	397.9953	6164.54	-6525.315	1	8976.708	-46.62849	1.877719E-009	0.0081019	7
	35	12	315.5048	6585.738	-7936.86	1	10313.37	-50.31526	1.425403E-009	0.0080397	6
	36	13	252.4038	7108.371	-9578.08	1	11927.64	-53.41905	5.997698E-010	0.0080365	6
	37	13	198.6229	7838.884	-11700.45	1	14083.63	-56.17933	3.861159E-010	0.0080376	6
	38	13	158.3615	8748.762	-14107.5	1	16600.07	-58.19489	1.021907E-009	0.0080359	6
	39	14	125.558	9961.11	-17025.34	1	19725.26	-59.66913	5.291763E-010	0.0080383	6
	40	14	100.4464	11438.85	-20280.58	1	23284.1	-60.57572	-5.484052E-010	0.0080351	6
	41	14	79.00281	13652.09	-24398.04	1	27957.89	-60.7705	-1.142252E-009	0.0080392	6
	42	15	63.3446	15613.82	-28912.79	1	32859.41	-61.62955	3.94194E-010	0.0080389	6
	43	15	49.86702	19070.29	-34042.81	1	39020.37	-60.74308	-1.616622E-010	0.0080368	6
	44	15	39.72458	23260.86	-39624.5	1	45947.45	-59.58569	1.340808E-010	0.008039	6
	45	16	31.6723	27904.87	-45630.32	1	53486.52	-58.55244	3.245065E-011	0.0080407	6
	46	16	24.93351	33271.81	-52541.29	1	62190.03	-57.65593	-6.443797E-010	0.0080411	6
	47	16	19.86229	39144.73	-59915.09	1	71569.05	-56.84194	-2.114664E-009	0.0080434	6
	48	16	15.83615	44800.16	-67126.42	1	80703.23	-56.28086	2.057625E-009	0.0080416	6
	49	17	12.40079	52374.07	-78118.38	1	94050.65	-56.16032	-5.715006E-010	0.0080387	6
	50	17	9.93114	58833.59	-89440.89	1	107056.4	-56.66336	-3.301047E-010	0.0080454	5
	51	18	7.944915	66098.22	-102751.8	1	122175.7	-57.24761	2.271992E-010	0.0080351	5
	52	18	6.317385	73988.93	-118884.4	1	140028.1	-58.1035	-3.852754E-010	0.008045	5
	53	19	5.008013	83191.22	-139449.2	1	162378.7	-59.18096	-6.29738E-010	0.0080346	5
	54	20	3.945707	94139.67	-164948.1	1	189921.4	-60.2856	-1.952251E-010	0.0080445	5
	55	22	3.158693	106496.4	-194263.5	1	221539.6	-61.26818	-4.291764E-010	0.0080524	5
	56	23	2.504006	121802	-230911.2	1	261066.5	-62.18908	-4.943382E-010	0.0080393	5
	57	25	1.998082	140086.7	-272720.9	1	306595.8	-62.8121	-1.536161E-010	0.0080742	5
	58	26	1.584686	162095.5	-324698.9	1	362910.9	-63.47082	-2.044315E-010	0.0080716	5
	59	28	1.266892	188303.5	-382525.4	1	426361.2	-63.79064	-2.764833E-010	0.0080292	5
	60	31	0.999041	223148.3	-455264.6	1	507011.8	-63.88818	-3.042319E-010	0.0080041	5
