EXPLAIN
TAG	EISPOT
TITLE	LABEL	Potentiostatic EIS	Test &Identifier
DATE	LABEL	10/31/2019	Date
TIME	LABEL	23:40:10	Time
NOTES	NOTES	1	&Notes...
	
PSTAT	PSTAT	REF600-11020	Potentiostat
VDC	POTEN	0.00000E+000	T	DC &Voltage (V)
FREQINIT	QUANT	1.00000E+006	Initial Fre&q. (Hz)
FREQFINAL	QUANT	1.00000E+000	Final Fre&q. (Hz)
PTSPERDEC	QUANT	1.00000E+001	Points/&decade
VAC	QUANT	2.50000E+001	AC &Voltage (mV rms)
AREA	QUANT	1.00000E-002	&Area (cm^2)
CONDIT	TWOPARAM	T	5.00000E+000	0.00000E+000	Conditionin&g	Time(s)	E(V)
DELAY	TWOPARAM	T	5.00000E+000	0.00000E+000	Init. De&lay	Time(s)	Stab.(mV/s)
SPEED	SELECTOR	0	&Optimize for:
ZGUESS	QUANT	1.00000E+005	E&stimated Z (ohms)
OCVCURVE	TABLE	19
	Pt	T	Vf	Vm	Ach	Over
	#	s	V vs. Ref.	V	V	bits
	0	0.258333	7.51965E-003	7.51965E-003	4.97567E-004	...........
	1	0.516667	7.52491E-003	7.79481E-003	5.01367E-004	...........
	2	0.775	7.55559E-003	7.97230E-003	5.04233E-004	...........
	3	1.03333	7.63773E-003	8.17501E-003	5.01033E-004	...........
	4	1.29167	7.77916E-003	8.47546E-003	5.02933E-004	...........
	5	1.55	7.97059E-003	8.79542E-003	5.02733E-004	...........
	6	1.80833	8.20125E-003	8.95949E-003	5.09267E-004	...........
	7	2.06667	8.45431E-003	9.15750E-003	5.02433E-004	...........
	8	2.325	8.70398E-003	9.34929E-003	5.04067E-004	...........
	9	2.58333	8.93142E-003	9.47392E-003	5.01333E-004	...........
	10	2.84167	9.13256E-003	9.65735E-003	5.04200E-004	...........
	11	3.1	9.31304E-003	9.85613E-003	5.01767E-004	...........
	12	3.35833	9.48011E-003	9.80652E-003	5.04767E-004	...........
	13	3.61667	9.63230E-003	1.00602E-002	5.05933E-004	...........
	14	3.875	9.76783E-003	1.02304E-002	5.03633E-004	...........
	15	4.13333	9.90191E-003	1.04486E-002	5.05100E-004	...........
	16	4.39167	1.00548E-002	1.06378E-002	5.05100E-004	...........
	17	4.65	1.02267E-002	1.05974E-002	5.06600E-004	...........
	18	4.90833	1.03947E-002	1.07856E-002	5.07667E-004	...........
EOC	QUANT	0.0103947	Open Circuit (V)
PSTATMODEL	IQUANT	4	Pstat Model
PSTATSECTION	LABEL	REF600-11020	Pstat Section
PSTATSERIALNO	LABEL	11020	Pstat Serial Number
CTRLMODE	IQUANT	1	Control Mode
IESTAB	IQUANT	0	I/E Stability
CASPEED	IQUANT	1	Control Amp Speed
CONVENTION	IQUANT	1	Current Convention
ICHRANGE	IQUANT	2	Ich Range
ICHRANGEMODE	TOGGLE	F	Ich Auto Range
ICHOFFSETENABLE	TOGGLE	T	Ich Offset Enable
ICHOFFSET	QUANT	0	Ich Offset (V)
ICHFILTER	IQUANT	3	Ich Filter
VCHRANGE	IQUANT	2	Vch Range
VCHRANGEMODE	TOGGLE	F	Vch Auto Range
VCHOFFSETENABLE	TOGGLE	T	Vch Offset Enable
VCHOFFSET	QUANT	0	Vch Offset (V)
VCHFILTER	IQUANT	3	Vch Filter
ACHRANGE	IQUANT	2	Ach Range
ACHOFFSETENABLE	TOGGLE	F	Ach Offset Enable
ACHOFFSET	QUANT	0	Ach Offset (V)
ACHFILTER	IQUANT	3	Ach Filter
IERANGELOWERLIMIT	IQUANT	1	I/E Range Lower Limit
IERANGEMODE	TOGGLE	F	I/E AutoRange
IERANGE	IQUANT	5	I/E Range
POSFEEDENABLE	TOGGLE	F	Positive Feedback IR Comp
POSFEEDRESISTANCE	QUANT	0	Positive Feedback Resistance (ohm)
ACHSELECT	IQUANT	0	Ach Select
CABLEID	IQUANT	14	Cable ID
DCCALDATE	LABEL	8/19/2019	DC Calibration Date
ACCALDATE	LABEL	8/19/2019	AC Calibration Date
THERMOSELECT	IQUANT	1	Thermo Select
FRAMEWORKVERSION	QUANT	6.33	Framework Version
INSTRUMENTVERSION	LABEL	3.50	Instrument Version
ZCURVE	TABLE
	Pt	Time	Freq	Zreal	Zimag	Zsig	Zmod	Zphz	Idc	Vdc	IERange
	#	s	Hz	ohm	ohm	V	ohm	°	A	V	#
	0	1	1000078	1808.475	-734.3328	1	1951.877	-22.09966	-3.798537E-006	0.0133228	8
	1	2	794390.6	1921.209	-651.3043	1	2028.606	-18.72704	-3.297507E-007	0.0129517	8
	2	2	630984.4	2012.053	-568.4941	1	2090.823	-15.77734	-3.565709E-007	0.0119921	8
	3	2	501234.4	2074.95	-491.3409	1	2132.331	-13.32206	-1.043326E-007	0.0118593	8
	4	3	398109.4	2128.776	-425.0286	1	2170.791	-11.29113	-3.131989E-007	0.0125777	8
	5	3	316265.6	2166.466	-370.8266	1	2197.973	-9.71299	-4.581244E-006	0.0124633	8
	6	3	251203.1	2195.949	-323.6216	1	2219.667	-8.383455	-1.796111E-007	0.0118349	8
	7	4	199546.9	2226.263	-288.2082	1	2244.841	-7.376387	-4.420452E-006	0.0124362	8
	8	4	158578.1	2246.942	-260.9246	1	2262.041	-6.623767	-6.750363E-007	0.0124816	8
	9	4	125953.1	2274.737	-220.4234	1	2285.392	-5.534716	-4.71328E-007	0.0146178	7
	10	5	100078.1	2294.695	-202.4516	1	2303.608	-5.04192	-2.655592E-007	0.0113429	7
	11	5	79453.13	2311.872	-205.4795	1	2320.985	-5.079112	-2.675422E-007	0.0113264	7
	12	5	63140.62	2330.138	-214.0461	1	2339.949	-5.248451	8.578714E-008	0.0109026	7
	13	5	50203.12	2349.685	-225.4942	1	2360.48	-5.481765	-9.169041E-007	0.0134119	7
	14	6	39890.62	2371.352	-242.1079	1	2383.679	-5.829529	7.04209E-007	0.0118206	7
	15	6	31640.63	2395.476	-262.5055	1	2409.816	-6.25374	-7.451276E-007	0.0134452	7
	16	6	25171.88	2420.983	-288.8887	1	2438.158	-6.80476	-2.686829E-007	0.0113263	7
	17	7	20015.62	2449.032	-322.2493	1	2470.142	-7.496048	-6.201074E-007	0.0119148	7
	18	7	15890.62	2476.024	-359.8868	1	2502.042	-8.269953	-1.029086E-006	0.0129618	7
	19	7	12609.37	2508.79	-408.2175	1	2541.785	-9.241881	8.327911E-008	0.0109072	7
	20	8	10078.13	2541.39	-463.8765	1	2583.379	-10.34424	7.996643E-007	0.0106376	7
	21	8	8015.625	2574.415	-533.2858	1	2629.069	-11.70321	-2.285555E-007	0.0131518	7
	22	8	6328.125	2614.536	-623.6303	1	2687.883	-13.41576	8.011786E-007	0.0106411	7
	23	9	5015.625	2655.025	-731.4384	1	2753.935	-15.40246	6.297568E-007	0.0105749	7
	24	9	3984.375	2700.283	-861.1104	1	2834.262	-17.68729	3.895132E-007	0.0106661	7
	25	9	3170.956	2746.562	-1023.808	1	2931.174	-20.44343	7.010057E-007	0.0118204	7
	26	10	2527.573	2798.864	-1218.826	1	3052.733	-23.53177	3.493328E-007	0.0124265	7
	27	10	1976.103	2863.666	-1481.52	1	3224.203	-27.35481	-9.148379E-007	0.0133905	7
	28	10	1577.524	2928.677	-1774.759	1	3424.459	-31.21559	-2.299915E-007	0.0131462	7
	29	11	1265.625	3002.741	-2146.872	1	3691.276	-35.56366	8.494665E-007	0.0114076	7
	30	11	998.264	3098.34	-2625.719	1	4061.294	-40.27994	-1.030523E-006	0.0132683	7
	31	11	796.875	3205.649	-3194.915	1	4525.889	-44.90392	6.99743E-007	0.0118162	7
	32	12	627.7902	3346.41	-3939.612	1	5169.042	-49.65455	3.914501E-007	0.0106568	7
	33	12	505.5147	3514.88	-4757.585	1	5915.15	-53.54319	-1.032345E-006	0.0132622	7
	34	12	397.9953	3739.53	-5891.317	1	6977.944	-57.59455	7.72151E-010	0.0120506	7
	35	13	315.5048	4026.004	-7239.777	1	8283.905	-60.92178	-5.194419E-011	0.0120512	7
	36	13	252.4038	4384.332	-8825.66	1	9854.68	-63.58315	2.740345E-009	0.0120423	7
	37	13	198.6229	4894.474	-10904.63	1	11952.69	-65.82738	4.384382E-011	0.0119829	6
	38	14	158.3615	5527.14	-13307.98	1	14410.13	-67.44566	-1.074773E-009	0.0119837	6
	39	14	125.558	6386.84	-16284.46	1	17492.15	-68.58466	-7.245957E-011	0.0119781	6
	40	14	100.4464	7498.085	-19724.06	1	21101.18	-69.18575	6.707325E-010	0.0119806	6
	41	15	79.00281	9101.108	-24204.76	1	25859.24	-69.39349	-5.064837E-010	0.0119763	6
	42	15	63.3446	10646.72	-29093.05	1	30979.96	-69.8997	-9.272266E-010	0.0119768	6
	43	15	49.86702	13428.22	-35293	1	37761.26	-69.16926	-1.01333E-009	0.011972	6
	44	16	39.72458	17006.48	-42212.41	1	45509.43	-68.05655	2.143628E-010	0.0119817	6
	45	16	31.6723	21390.62	-50059.91	1	54438.53	-66.86296	-3.653483E-011	0.0119832	6
	46	17	24.93351	27088.23	-59524.27	1	65398.09	-65.53073	-5.874979E-010	0.0119807	6
	47	17	19.86229	33801.48	-69620.37	1	77392.09	-64.10291	6.67078E-011	0.0119872	6
	48	17	15.83615	42333.5	-80880.19	1	91289.27	-62.37199	-1.411686E-009	0.0119834	6
	49	17	12.40079	52896.19	-94184.64	1	108022	-60.68047	3.181098E-010	0.0119863	5
	50	18	9.93114	63763.59	-106433.1	1	124071.7	-59.07436	-1.468825E-009	0.0119781	5
	51	18	7.944915	76404.31	-120469.5	1	142655.2	-57.61626	-1.142775E-009	0.0119771	5
	52	19	6.317385	90131.52	-136037.8	1	163186.9	-56.47363	-9.796409E-010	0.0119989	5
	53	20	5.008013	105328	-153780.9	1	186393.5	-55.59187	-7.97358E-010	0.0119766	5
	54	21	3.945707	122241.8	-174713.5	1	213232	-55.02066	-8.442927E-011	0.0119771	5
	55	22	3.158693	138182.5	-197403.7	1	240961.9	-55.00799	-2.971982E-010	0.0119982	5
	56	24	2.504006	156411.3	-226103.5	1	274931.4	-55.32572	-6.316578E-010	0.0119842	5
	57	25	1.998082	174830.8	-259089.3	1	312559	-55.98892	-3.290711E-010	0.0119993	5
	58	27	1.584686	196976.3	-301410	1	360066.2	-56.83473	-2.110808E-010	0.0120319	5
	59	29	1.266892	220618.1	-351435.3	1	414944.7	-57.88092	-3.563785E-010	0.0120084	5
	60	31	0.999041	249172.7	-412939.4	1	482292.4	-58.89271	5.088762E-010	0.0119796	5
