EXPLAIN
TAG	EISPOT
TITLE	LABEL	Potentiostatic EIS	Test &Identifier
DATE	LABEL	11/3/2019	Date
TIME	LABEL	12:09:30	Time
NOTES	NOTES	1	&Notes...
	
PSTAT	PSTAT	REF600-11020	Potentiostat
VDC	POTEN	0.00000E+000	T	DC &Voltage (V)
FREQINIT	QUANT	1.00000E+006	Initial Fre&q. (Hz)
FREQFINAL	QUANT	1.00000E+000	Final Fre&q. (Hz)
PTSPERDEC	QUANT	1.00000E+001	Points/&decade
VAC	QUANT	2.50000E+001	AC &Voltage (mV rms)
AREA	QUANT	1.00000E-002	&Area (cm^2)
CONDIT	TWOPARAM	T	5.00000E+000	0.00000E+000	Conditionin&g	Time(s)	E(V)
DELAY	TWOPARAM	T	5.00000E+000	0.00000E+000	Init. De&lay	Time(s)	Stab.(mV/s)
SPEED	SELECTOR	1	&Optimize for:
ZGUESS	QUANT	1.00000E+005	E&stimated Z (ohms)
OCVCURVE	TABLE	19
	Pt	T	Vf	Vm	Ach	Over
	#	s	V vs. Ref.	V	V	bits
	0	0.258333	2.77736E-003	2.77736E-003	5.87265E-004	...........
	1	0.516667	2.77109E-003	2.44901E-003	5.88665E-004	...........
	2	0.775	2.73277E-003	2.14831E-003	5.85899E-004	...........
	3	1.03333	2.62534E-003	1.87498E-003	5.84432E-004	...........
	4	1.29167	2.43585E-003	1.62112E-003	5.91732E-004	...........
	5	1.55	2.18896E-003	1.38592E-003	5.89565E-004	...........
	6	1.80833	1.92226E-003	1.16533E-003	5.90132E-004	...........
	7	2.06667	1.66189E-003	9.57292E-004	5.91865E-004	...........
	8	2.325	1.41829E-003	7.59120E-004	5.89332E-004	...........
	9	2.58333	1.19226E-003	5.77497E-004	5.89699E-004	...........
	10	2.84167	9.81541E-004	4.01024E-004	5.88432E-004	...........
	11	3.1	7.83887E-004	2.34478E-004	5.87965E-004	...........
	12	3.35833	5.97466E-004	7.29551E-005	5.89099E-004	...........
	13	3.61667	4.20651E-004	-7.83979E-005	5.88732E-004	...........
	14	3.875	2.52293E-004	-2.21856E-004	5.86565E-004	...........
	15	4.13333	9.18845E-005	-3.60244E-004	5.87932E-004	...........
	16	4.39167	-6.08236E-005	-4.92148E-004	5.86365E-004	...........
	17	4.65	-2.06351E-004	-6.22392E-004	5.83432E-004	...........
	18	4.90833	-3.45610E-004	-7.47141E-004	5.80232E-004	...........
EOC	QUANT	-0.0003456	Open Circuit (V)
PSTATMODEL	IQUANT	4	Pstat Model
PSTATSECTION	LABEL	REF600-11020	Pstat Section
PSTATSERIALNO	LABEL	11020	Pstat Serial Number
CTRLMODE	IQUANT	1	Control Mode
IESTAB	IQUANT	0	I/E Stability
CASPEED	IQUANT	1	Control Amp Speed
CONVENTION	IQUANT	1	Current Convention
ICHRANGE	IQUANT	2	Ich Range
ICHRANGEMODE	TOGGLE	F	Ich Auto Range
ICHOFFSETENABLE	TOGGLE	T	Ich Offset Enable
ICHOFFSET	QUANT	0	Ich Offset (V)
ICHFILTER	IQUANT	3	Ich Filter
VCHRANGE	IQUANT	2	Vch Range
VCHRANGEMODE	TOGGLE	F	Vch Auto Range
VCHOFFSETENABLE	TOGGLE	T	Vch Offset Enable
VCHOFFSET	QUANT	0	Vch Offset (V)
VCHFILTER	IQUANT	3	Vch Filter
ACHRANGE	IQUANT	2	Ach Range
ACHOFFSETENABLE	TOGGLE	F	Ach Offset Enable
ACHOFFSET	QUANT	0	Ach Offset (V)
ACHFILTER	IQUANT	3	Ach Filter
IERANGELOWERLIMIT	IQUANT	1	I/E Range Lower Limit
IERANGEMODE	TOGGLE	F	I/E AutoRange
IERANGE	IQUANT	3	I/E Range
POSFEEDENABLE	TOGGLE	F	Positive Feedback IR Comp
POSFEEDRESISTANCE	QUANT	0	Positive Feedback Resistance (ohm)
ACHSELECT	IQUANT	0	Ach Select
CABLEID	IQUANT	14	Cable ID
DCCALDATE	LABEL	8/19/2019	DC Calibration Date
ACCALDATE	LABEL	8/19/2019	AC Calibration Date
THERMOSELECT	IQUANT	1	Thermo Select
FRAMEWORKVERSION	QUANT	6.33	Framework Version
INSTRUMENTVERSION	LABEL	3.50	Instrument Version
ZCURVE	TABLE
	Pt	Time	Freq	Zreal	Zimag	Zsig	Zmod	Zphz	Idc	Vdc	IERange
	#	s	Hz	ohm	ohm	V	ohm	°	A	V	#
	0	2	1000078	1919.246	-1815.994	1	2642.223	-43.41659	1.406914E-007	0.0024831	8
	1	3	794390.6	2274.082	-1900.483	1	2963.66	-39.88599	-1.24665E-006	0.0022507	8
	2	5	630984.4	2627.063	-1957.683	1	3276.276	-36.69342	3.446586E-006	0.0007955	8
	3	6	501234.4	3001.028	-1967.544	1	3588.51	-33.24979	-5.562879E-006	0.0017919	8
	4	7	398109.4	3372.927	-1937.639	1	3889.869	-29.876	-4.333835E-006	0.0017151	8
	5	9	316265.6	3727.319	-1856.357	1	4164.009	-26.47518	2.377835E-007	0.0009915	8
	6	10	251203.1	4066.399	-1737.369	1	4421.996	-23.1346	-2.928831E-006	0.0018593	8
	7	12	199546.9	4346.505	-1601.429	1	4632.136	-20.22585	-4.468788E-006	0.0016393	8
	8	13	158578.1	4584.168	-1492.875	1	4821.128	-18.0383	2.701594E-006	0.0006961	8
	9	15	125953.1	4823.539	-1211.576	1	4973.374	-14.09985	-1.695024E-006	0.0056043	7
	10	16	100078.1	4977.815	-1061.804	1	5089.8	-12.04114	-3.438148E-007	0.0003487	7
	11	17	79453.13	5099.008	-938.534	1	5184.663	-10.42925	-9.658762E-007	0.0030602	7
	12	19	63140.62	5199.233	-825.6657	1	5264.385	-9.02352	-6.661635E-007	0.0029608	7
	13	20	50203.12	5296.96	-725.0102	1	5346.347	-7.793808	1.182856E-006	-0.0003698	7
	14	21	39890.62	5333.976	-648.5401	1	5373.258	-6.932373	-6.660165E-007	0.0029646	7
	15	23	31640.63	5404.022	-586.761	1	5435.784	-6.196818	1.064227E-006	-0.0006044	7
	16	24	25171.88	5438.067	-546.037	1	5465.413	-5.733858	8.404247E-007	-0.0006887	7
	17	26	20015.62	5457.619	-527.0995	1	5483.013	-5.516544	-9.652135E-007	0.0030576	7
	18	27	15890.62	5481.351	-520.1482	1	5505.975	-5.420803	-1.327171E-006	0.0028191	7
	19	28	12609.37	5516.467	-541.2602	1	5542.957	-5.603764	-1.1843E-006	0.0029845	7
	20	30	10078.13	5547.148	-567.8074	1	5576.133	-5.844454	-3.420849E-007	0.0003347	7
	21	31	8015.625	5576.535	-626.1442	1	5611.578	-6.406449	-9.648573E-007	0.00305	7
	22	32	6328.125	5602.869	-704.1849	1	5646.947	-7.163539	-1.318307E-006	0.0024169	7
	23	34	5015.625	5639.586	-814.3264	1	5698.075	-8.216417	-1.135007E-006	0.0018018	7
	24	35	3984.375	5708.315	-955.806	1	5787.783	-9.50548	1.065473E-006	-0.0006111	7
	25	36	3170.956	5722.151	-1123.329	1	5831.371	-11.10663	-1.316216E-006	0.0024012	7
	26	38	2527.573	5785.014	-1345.305	1	5939.379	-13.09145	-6.650289E-007	0.0029496	7
	27	39	1976.103	5846.648	-1641.101	1	6072.604	-15.67895	-9.646291E-007	0.003051	7
	28	41	1577.524	5909.895	-1990.072	1	6235.964	-18.61021	-1.324927E-006	0.0028091	7
	29	43	1265.625	5992.6	-2377.354	1	6446.943	-21.63897	-1.320072E-006	0.0024064	7
	30	44	998.264	6103.141	-2915.547	1	6763.782	-25.53439	-1.139634E-006	0.0018002	7
	31	45	796.875	6242.852	-3555.527	1	7184.356	-29.66305	-9.611341E-007	0.0030473	7
	32	47	627.7902	6450.455	-4419.207	1	7819.064	-34.41504	1.183983E-006	-0.000374	7
	33	48	505.5147	6628.214	-5292.469	1	8481.949	-38.60652	-9.654761E-007	0.0030441	7
	34	50	397.9953	6934.488	-6550.773	1	9539.38	-43.37012	6.159714E-009	0.0012535	7
	35	51	315.5048	7313.389	-8020.558	1	10854.26	-47.64049	1.589487E-009	0.0011825	6
	36	53	252.4038	7784.778	-9733.05	1	12463.34	-51.34615	6.165789E-010	0.0011911	6
	37	54	198.6229	8447.278	-11963.91	1	14645.53	-54.77549	1.487425E-009	0.0011879	6
	38	55	158.3615	9275.401	-14506.68	1	17218.5	-57.40562	3.856571E-010	0.0011846	6
	39	57	125.558	10383.92	-17620.31	1	20452.41	-59.48851	1.405846E-009	0.001191	6
	40	58	100.4464	11752.54	-21169.79	1	24213.26	-60.96288	1.755726E-010	0.0011841	6
	41	59	79.00281	13745.81	-25634.41	1	29087.28	-61.79868	1.399737E-009	0.0011816	6
	42	61	63.3446	16365.25	-30678.46	1	34770.53	-61.92257	1.233986E-009	0.0011797	6
	43	62	49.86702	19107.54	-36696.73	1	41373.28	-62.49456	9.400408E-010	0.0011826	6
	44	64	39.72458	23183.7	-43152.75	1	48986.16	-61.7532	1.104709E-009	0.001196	6
	45	65	31.6723	27979.02	-50282.49	1	57542.63	-60.90683	7.765153E-010	0.0011826	6
	46	66	24.93351	34027.22	-58898.64	1	68021.33	-59.98389	8.942556E-010	0.0011925	6
	47	68	19.86229	40757.19	-67651.2	1	78979.95	-58.93269	5.040289E-010	0.0011979	6
	48	69	15.83615	48312.58	-77801.99	1	91581.96	-58.16103	-3.55027E-010	0.0011797	6
	49	71	12.40079	56717.23	-89328.3	1	105813	-57.58731	1.49404E-010	0.0011848	5
	50	72	9.93114	66156.66	-101035.6	1	120767.9	-56.78379	2.853303E-010	0.0011932	5
	51	74	7.944915	75131.79	-114731.1	1	137142.3	-56.78117	1.196844E-009	0.0011793	5
	52	75	6.317385	85709.24	-131823.5	1	157237.1	-56.96881	1.437438E-010	0.0012049	5
	53	77	5.008013	96916.1	-152446.1	1	180644.8	-57.55425	2.465537E-010	0.0011807	5
	54	80	3.945707	109220.2	-178022.3	1	208856.4	-58.47007	5.328624E-010	0.0011928	5
	55	83	3.158693	122335.6	-207335.1	1	240736	-59.45779	-9.272802E-011	0.0011769	5
	56	86	2.504006	137772.1	-244171.8	1	280358.8	-60.56646	5.294603E-010	0.0011836	5
	57	89	1.998082	155391.8	-287233.3	1	326572.4	-61.58683	2.136454E-010	0.0012166	5
	58	92	1.584686	176737.9	-340439.2	1	383582	-62.56406	1.950175E-010	0.0011422	5
	59	95	1.266892	200132.3	-403493.6	1	450399.8	-63.61864	2.263146E-010	0.0011958	5
	60	100	0.999041	231491.6	-483567.9	1	536121.6	-64.41883	-3.527062E-011	0.0011511	5
