EXPLAIN
TAG	EISPOT
TITLE	LABEL	Potentiostatic EIS	Test &Identifier
DATE	LABEL	11/11/2019	Date
TIME	LABEL	13:05:24	Time
NOTES	NOTES	3	&Notes...
	
	
	
PSTAT	PSTAT	REF600-11020	Potentiostat
VDC	POTEN	0.00000E+000	T	DC &Voltage (V)
FREQINIT	QUANT	1.00000E+006	Initial Fre&q. (Hz)
FREQFINAL	QUANT	1.00000E+000	Final Fre&q. (Hz)
PTSPERDEC	QUANT	1.00000E+001	Points/&decade
VAC	QUANT	2.50000E+001	AC &Voltage (mV rms)
AREA	QUANT	1.00000E-002	&Area (cm^2)
CONDIT	TWOPARAM	T	5.00000E+000	0.00000E+000	Conditionin&g	Time(s)	E(V)
DELAY	TWOPARAM	T	5.00000E+000	0.00000E+000	Init. De&lay	Time(s)	Stab.(mV/s)
SPEED	SELECTOR	1	&Optimize for:
ZGUESS	QUANT	1.00000E+005	E&stimated Z (ohms)
OCVCURVE	TABLE	19
	Pt	T	Vf	Vm	Ach	Over
	#	s	V vs. Ref.	V	V	bits
	0	0.258333	6.86192E-003	6.86192E-003	5.45499E-004	...........
	1	0.516667	6.85207E-003	6.34630E-003	5.43866E-004	...........
	2	0.775	6.80018E-003	6.30793E-003	5.47833E-004	...........
	3	1.03333	6.68473E-003	6.41335E-003	5.52699E-004	...........
	4	1.29167	6.54152E-003	6.31185E-003	5.50666E-004	...........
	5	1.55	6.42751E-003	6.24627E-003	5.45166E-004	...........
	6	1.80833	6.35860E-003	6.35699E-003	5.44033E-004	...........
	7	2.06667	6.32414E-003	6.40296E-003	5.46533E-004	...........
	8	2.325	6.31927E-003	6.35080E-003	5.53099E-004	...........
	9	2.58333	6.33681E-003	6.45750E-003	5.49833E-004	...........
	10	2.84167	6.36778E-003	6.64960E-003	5.44499E-004	...........
	11	3.1	6.41815E-003	6.71214E-003	5.40333E-004	...........
	12	3.35833	6.49319E-003	6.60918E-003	5.49066E-004	...........
	13	3.61667	6.56939E-003	6.53132E-003	5.42433E-004	...........
	14	3.875	6.60936E-003	6.48897E-003	5.47466E-004	...........
	15	4.13333	6.59963E-003	6.43844E-003	5.45033E-004	...........
	16	4.39167	6.55607E-003	6.38282E-003	5.48399E-004	...........
	17	4.65	6.50302E-003	6.48124E-003	5.46599E-004	...........
	18	4.90833	6.46100E-003	6.42475E-003	5.47399E-004	...........
EOC	QUANT	0.006461	Open Circuit (V)
PSTATMODEL	IQUANT	4	Pstat Model
PSTATSECTION	LABEL	REF600-11020	Pstat Section
PSTATSERIALNO	LABEL	11020	Pstat Serial Number
CTRLMODE	IQUANT	1	Control Mode
IESTAB	IQUANT	0	I/E Stability
CASPEED	IQUANT	1	Control Amp Speed
CONVENTION	IQUANT	1	Current Convention
ICHRANGE	IQUANT	2	Ich Range
ICHRANGEMODE	TOGGLE	F	Ich Auto Range
ICHOFFSETENABLE	TOGGLE	T	Ich Offset Enable
ICHOFFSET	QUANT	0	Ich Offset (V)
ICHFILTER	IQUANT	3	Ich Filter
VCHRANGE	IQUANT	2	Vch Range
VCHRANGEMODE	TOGGLE	F	Vch Auto Range
VCHOFFSETENABLE	TOGGLE	T	Vch Offset Enable
VCHOFFSET	QUANT	0	Vch Offset (V)
VCHFILTER	IQUANT	3	Vch Filter
ACHRANGE	IQUANT	2	Ach Range
ACHOFFSETENABLE	TOGGLE	F	Ach Offset Enable
ACHOFFSET	QUANT	0	Ach Offset (V)
ACHFILTER	IQUANT	3	Ach Filter
IERANGELOWERLIMIT	IQUANT	1	I/E Range Lower Limit
IERANGEMODE	TOGGLE	F	I/E AutoRange
IERANGE	IQUANT	5	I/E Range
POSFEEDENABLE	TOGGLE	F	Positive Feedback IR Comp
POSFEEDRESISTANCE	QUANT	0	Positive Feedback Resistance (ohm)
ACHSELECT	IQUANT	0	Ach Select
CABLEID	IQUANT	14	Cable ID
DCCALDATE	LABEL	8/19/2019	DC Calibration Date
ACCALDATE	LABEL	8/19/2019	AC Calibration Date
THERMOSELECT	IQUANT	1	Thermo Select
FRAMEWORKVERSION	QUANT	6.33	Framework Version
INSTRUMENTVERSION	LABEL	3.50	Instrument Version
ZCURVE	TABLE
	Pt	Time	Freq	Zreal	Zimag	Zsig	Zmod	Zphz	Idc	Vdc	IERange
	#	s	Hz	ohm	ohm	V	ohm	°	A	V	#
	0	2	1000078	2437.576	-1529.445	1	2877.669	-32.10601	-2.677614E-006	0.0090346	8
	1	3	794390.6	2742.312	-1452.156	1	3103.068	-27.90287	-4.611135E-006	0.0089174	8
	2	5	630984.4	3006.385	-1316.766	1	3282.106	-23.65293	3.55345E-007	0.0079654	8
	3	6	501234.4	3215.009	-1172.586	1	3422.169	-20.03805	-8.666913E-007	0.0086242	8
	4	7	398109.4	3385.306	-1023.81	1	3536.734	-16.82677	-5.388184E-007	0.0078245	8
	5	9	316265.6	3508.012	-886.8406	1	3618.375	-14.18737	-7.34772E-007	0.008489	8
	6	10	251203.1	3599.481	-760.1236	1	3678.866	-11.92429	6.409515E-006	0.0073697	8
	7	11	199546.9	3665.903	-654.7032	1	3723.907	-10.12585	1.531394E-006	0.0083396	8
	8	13	158578.1	3719.103	-569.6501	1	3762.476	-8.708241	-2.328828E-006	0.008534	8
	9	14	125953.1	3798.358	-437.0521	1	3823.42	-6.563783	5.247059E-007	0.0101205	7
	10	15	100078.1	3819.615	-391.7889	1	3839.656	-5.856511	1.000521E-006	0.0066777	7
	11	17	79453.13	3852.387	-364.6212	1	3869.604	-5.406831	-5.774623E-007	0.0094964	7
	12	18	63140.62	3881.245	-348.1918	1	3896.832	-5.12636	-2.705955E-007	0.0092714	7
	13	19	50203.12	3908.948	-341.2727	1	3923.817	-4.989587	-1.005357E-006	0.0095062	7
	14	21	39890.62	3938.925	-342.7924	1	3953.813	-4.973743	1.152962E-007	0.0067565	7
	15	22	31640.63	3966.86	-350.9017	1	3982.35	-5.05513	-6.6158E-007	0.0078615	7
	16	24	25171.88	3996.3	-366.9323	1	4013.11	-5.246075	-2.716956E-007	0.0092638	7
	17	25	20015.62	4028.564	-394.3817	1	4047.822	-5.591231	4.522202E-007	0.0064899	7
	18	26	15890.62	4056.034	-429.4724	1	4078.708	-6.044232	-5.725179E-007	0.0094839	7
	19	28	12609.37	4088.513	-480.3923	1	4116.639	-6.701416	4.515483E-007	0.0064831	7
	20	29	10078.13	4124.412	-541.8521	1	4159.853	-7.484473	-1.0044E-006	0.0095002	7
	21	30	8015.625	4157.097	-617.8218	1	4202.756	-8.453341	-2.707049E-007	0.0072237	7
	22	32	6328.125	4194.039	-720.1268	1	4255.414	-9.74282	-5.716099E-007	0.009479	7
	23	33	5015.625	4236.99	-846.0952	1	4320.644	-11.29299	-1.112585E-006	0.0090032	7
	24	34	3984.375	4282.402	-1004.873	1	4398.72	-13.20563	-8.233333E-007	0.0095558	7
	25	36	3170.956	4336.382	-1198.232	1	4498.885	-15.44658	6.316876E-008	0.0089031	7
	26	37	2527.573	4396.413	-1436.042	1	4625.004	-18.08909	-9.564624E-007	0.0084757	7
	27	38	1976.103	4475.778	-1753.368	1	4806.962	-21.39257	3.554195E-007	0.0085093	7
	28	40	1577.524	4541.46	-2110.375	1	5007.849	-24.92387	9.020409E-007	0.0064702	7
	29	41	1265.625	4666.714	-2540.058	1	5313.202	-28.55912	3.549913E-007	0.0085067	7
	30	42	998.264	4800.833	-3098.201	1	5713.742	-32.83604	-1.119483E-006	0.0093468	7
	31	44	796.875	4950.034	-3746.885	1	6208.219	-37.12358	1.175136E-007	0.0067509	7
	32	45	627.7902	5137.229	-4582.82	1	6884.284	-41.73552	4.521702E-007	0.0064855	7
	33	47	505.5147	5338.192	-5499.573	1	7664.307	-45.85311	3.541693E-007	0.008501	7
	34	48	397.9953	5601.824	-6750.602	1	8772.176	-50.31324	2.64552E-009	0.0080405	7
	35	50	315.5048	5908.551	-8242.614	1	10141.58	-54.36592	1.105839E-009	0.0079846	6
	36	51	252.4038	6257.999	-10005.79	1	11801.62	-57.97658	1.077365E-009	0.0079727	6
	37	53	198.6229	6719.878	-12344.93	1	14055.39	-61.43864	9.654805E-010	0.0079771	6
	38	54	158.3615	7264.325	-15072.67	1	16731.88	-64.2681	4.602218E-010	0.007973	6
	39	55	125.558	7976.645	-18507.12	1	20152.93	-66.68376	1.048857E-009	0.0079762	6
	40	57	100.4464	8858.516	-22569.03	1	24245.3	-68.56962	8.828152E-011	0.007986	6
	41	58	79.00281	10079.12	-27917.04	1	29680.79	-70.14848	1.469273E-009	0.0079751	6
	42	59	63.3446	11773.21	-33986.29	1	35967.71	-70.89338	9.892657E-010	0.0079775	6
	43	61	49.86702	13460.96	-41709.46	1	43827.81	-72.11348	8.407135E-011	0.007969	6
	44	62	39.72458	16306.4	-50678.2	1	53237	-72.16371	7.89047E-010	0.0079823	6
	45	63	31.6723	19670.56	-61533.02	1	64600.65	-72.27222	6.195754E-010	0.0079792	6
	46	65	24.93351	24505.57	-75198.97	1	79091.13	-71.95043	3.300372E-010	0.0079778	6
	47	66	19.86229	30329.35	-90594.73	1	95536.8	-71.49046	6.452964E-010	0.0079837	6
	48	67	15.83615	38589.93	-108271.8	1	114943.3	-70.38306	-5.718359E-010	0.0079784	5
	49	69	12.40079	47262.77	-131767.1	1	139987	-70.2679	1.419238E-010	0.0079806	5
	50	70	9.93114	60406.66	-156629.5	1	167874.3	-68.91007	7.775975E-010	0.007986	5
	51	72	7.944915	74868.52	-184892.1	1	199475.3	-67.95545	-2.190329E-010	0.0079811	5
	52	74	6.317385	94381.15	-218635.2	1	238136.8	-66.65095	-1.985582E-011	0.0079733	5
	53	76	5.008013	118578.4	-257290.2	1	283300.3	-65.25624	-2.170261E-010	0.007978	5
	54	78	3.945707	148715	-301663.8	1	336329	-63.7575	3.655733E-010	0.0079887	5
	55	81	3.158693	182109.2	-348773.2	1	393454.5	-62.42904	-1.365201E-010	0.007973	5
	56	84	2.504006	223839.6	-402923.8	1	460924.9	-60.94615	5.481372E-010	0.0079757	5
	57	87	1.998082	270853	-460515	1	534261.6	-59.53799	7.148829E-011	0.008021	5
	58	90	1.584686	324088.6	-525732.6	1	617598.8	-58.34819	7.110133E-011	0.0079911	5
	59	93	1.266892	384554.6	-595611.1	1	708967.5	-57.15181	-1.735375E-011	0.0080238	5
	60	98	0.999041	452908	-678006.8	1	815364.3	-56.25711	9.339676E-011	0.0079445	5
