EXPLAIN
TAG	EISPOT
TITLE	LABEL	Potentiostatic EIS	Test &Identifier
DATE	LABEL	10/4/2019	Date
TIME	LABEL	10:39:58	Time
NOTES	NOTES	2	&Notes...
	
	
PSTAT	PSTAT	REF600-11020	Potentiostat
VDC	POTEN	0.00000E+000	T	DC &Voltage (V)
FREQINIT	QUANT	1.00000E+006	Initial Fre&q. (Hz)
FREQFINAL	QUANT	1.00000E+000	Final Fre&q. (Hz)
PTSPERDEC	QUANT	1.00000E+001	Points/&decade
VAC	QUANT	2.50000E+001	AC &Voltage (mV rms)
AREA	QUANT	1.00000E-002	&Area (cm^2)
CONDIT	TWOPARAM	T	5.00000E+000	0.00000E+000	Conditionin&g	Time(s)	E(V)
DELAY	TWOPARAM	T	5.00000E+000	0.00000E+000	Init. De&lay	Time(s)	Stab.(mV/s)
SPEED	SELECTOR	1	&Optimize for:
ZGUESS	QUANT	1.00000E+004	E&stimated Z (ohms)
OCVCURVE	TABLE	19
	Pt	T	Vf	Vm	Ach	Over
	#	s	V vs. Ref.	V	V	bits
	0	0.258333	3.53383E-003	3.53383E-003	5.62332E-004	...........
	1	0.516667	3.52982E-003	3.32402E-003	5.59132E-004	...........
	2	0.775	3.50533E-003	3.13156E-003	5.63732E-004	...........
	3	1.03333	3.43665E-003	2.95692E-003	5.62466E-004	...........
	4	1.29167	3.31588E-003	2.81447E-003	5.58499E-004	...........
	5	1.55	3.16074E-003	2.70309E-003	5.56933E-004	...........
	6	1.80833	2.99852E-003	2.56473E-003	5.59432E-004	...........
	7	2.06667	2.84731E-003	2.47705E-003	5.61599E-004	...........
	8	2.325	2.71350E-003	2.43254E-003	5.57666E-004	...........
	9	2.58333	2.59893E-003	2.31151E-003	5.62966E-004	...........
	10	2.84167	2.50205E-003	2.27218E-003	5.61899E-004	...........
	11	3.1	2.42333E-003	2.49633E-003	5.60032E-004	...........
	12	3.35833	2.37150E-003	2.16097E-003	5.58499E-004	...........
	13	3.61667	2.34625E-003	2.42367E-003	5.61132E-004	...........
	14	3.875	2.33884E-003	2.56210E-003	5.63132E-004	...........
	15	4.13333	2.35824E-003	2.55391E-003	5.64932E-004	...........
	16	4.39167	2.41400E-003	2.67012E-003	5.65499E-004	...........
	17	4.65	2.48924E-003	2.59799E-003	5.60266E-004	...........
	18	4.90833	2.56471E-003	3.05737E-003	5.59832E-004	...........
EOC	QUANT	0.0025647	Open Circuit (V)
PSTATMODEL	IQUANT	4	Pstat Model
PSTATSECTION	LABEL	REF600-11020	Pstat Section
PSTATSERIALNO	LABEL	11020	Pstat Serial Number
CTRLMODE	IQUANT	1	Control Mode
IESTAB	IQUANT	0	I/E Stability
CASPEED	IQUANT	1	Control Amp Speed
CONVENTION	IQUANT	1	Current Convention
ICHRANGE	IQUANT	2	Ich Range
ICHRANGEMODE	TOGGLE	F	Ich Auto Range
ICHOFFSETENABLE	TOGGLE	T	Ich Offset Enable
ICHOFFSET	QUANT	0	Ich Offset (V)
ICHFILTER	IQUANT	3	Ich Filter
VCHRANGE	IQUANT	2	Vch Range
VCHRANGEMODE	TOGGLE	F	Vch Auto Range
VCHOFFSETENABLE	TOGGLE	T	Vch Offset Enable
VCHOFFSET	QUANT	0	Vch Offset (V)
VCHFILTER	IQUANT	3	Vch Filter
ACHRANGE	IQUANT	2	Ach Range
ACHOFFSETENABLE	TOGGLE	F	Ach Offset Enable
ACHOFFSET	QUANT	0	Ach Offset (V)
ACHFILTER	IQUANT	3	Ach Filter
IERANGELOWERLIMIT	IQUANT	1	I/E Range Lower Limit
IERANGEMODE	TOGGLE	F	I/E AutoRange
IERANGE	IQUANT	5	I/E Range
POSFEEDENABLE	TOGGLE	F	Positive Feedback IR Comp
POSFEEDRESISTANCE	QUANT	0	Positive Feedback Resistance (ohm)
ACHSELECT	IQUANT	0	Ach Select
CABLEID	IQUANT	14	Cable ID
DCCALDATE	LABEL	8/19/2019	DC Calibration Date
ACCALDATE	LABEL	8/19/2019	AC Calibration Date
THERMOSELECT	IQUANT	1	Thermo Select
FRAMEWORKVERSION	QUANT	6.33	Framework Version
INSTRUMENTVERSION	LABEL	3.50	Instrument Version
ZCURVE	TABLE
	Pt	Time	Freq	Zreal	Zimag	Zsig	Zmod	Zphz	Idc	Vdc	IERange
	#	s	Hz	ohm	ohm	V	ohm	°	A	V	#
	0	2	1000078	2047.307	-869.7194	1	2224.383	-23.01634	3.158331E-008	0.0047601	8
	1	3	794390.6	2187.416	-796.5592	1	2327.938	-20.00936	1.312156E-006	0.0041408	8
	2	4	630984.4	2301.685	-718.1872	1	2411.13	-17.32932	-2.410343E-006	0.0047326	8
	3	6	501234.4	2395.685	-645.454	1	2481.112	-15.07879	6.7205E-007	0.0041881	8
	4	7	398109.4	2470.392	-575.6852	1	2536.583	-13.11775	9.811156E-007	0.0039325	8
	5	8	316265.6	2529.477	-512.1346	1	2580.802	-11.44576	-2.853159E-006	0.0045856	8
	6	10	251203.1	2584.561	-474.0726	1	2627.68	-10.39393	-2.668863E-007	0.0040977	8
	7	11	199546.9	2626.744	-436.1104	1	2662.701	-9.426661	-3.418714E-007	0.0040019	8
	8	12	158578.1	2672.822	-410.5224	1	2704.164	-8.731902	6.708765E-007	0.0040317	8
	9	14	125953.1	2723.52	-374.1329	1	2749.098	-7.821826	3.093507E-008	0.0041393	7
	10	15	100078.1	2755.111	-364.3823	1	2779.102	-7.534036	8.678134E-008	0.0039115	7
	11	17	79453.13	2793.012	-371.1105	1	2817.56	-7.568617	-1.18869E-008	0.0040653	7
	12	18	63140.62	2833.464	-384.2202	1	2859.396	-7.722257	-3.399106E-010	0.0040445	7
	13	19	50203.12	2876.651	-401.3703	1	2904.517	-7.943024	2.929541E-008	0.0040069	7
	14	21	39890.62	2923.044	-423.2635	1	2953.53	-8.239292	7.247057E-009	0.0041066	7
	15	22	31640.63	2973.086	-450.6164	1	3007.041	-8.618451	-1.404065E-009	0.0040142	7
	16	23	25171.88	3025.831	-484.4526	1	3064.367	-9.09618	-5.836697E-010	0.0040312	7
	17	25	20015.62	3082.6	-524.5557	1	3126.913	-9.65732	-2.738575E-008	0.0040396	7
	18	26	15890.62	3144.877	-572.864	1	3196.627	-10.32368	2.90891E-008	0.0039943	7
	19	27	12609.37	3212.76	-628.7373	1	3273.703	-11.07285	-1.076008E-008	0.0040457	7
	20	29	10078.13	3286.295	-689.9099	1	3357.932	-11.85624	6.809601E-008	0.0039729	7
	21	30	8015.625	3369.051	-761.3676	1	3454.01	-12.73429	-4.173616E-008	0.004102	7
	22	31	6328.125	3459.589	-842.4979	1	3560.696	-13.68657	6.836481E-008	0.003973	7
	23	33	5015.625	3555.126	-932.9007	1	3675.49	-14.70348	4.608522E-008	0.003956	7
	24	34	3984.375	3656.01	-1035.19	1	3799.74	-15.80933	4.503034E-008	0.0039552	7
	25	35	3170.956	3756.109	-1152.695	1	3929.003	-17.06048	-2.868593E-008	0.004096	7
	26	37	2527.573	3855.98	-1290.383	1	4066.162	-18.50253	4.394585E-008	0.0039469	7
	27	38	1976.103	3965.024	-1476.041	1	4230.853	-20.41856	5.648907E-010	0.0040024	7
	28	39	1577.524	4062.91	-1687.524	1	4399.429	-22.55548	1.273417E-010	0.0040198	7
	29	41	1265.625	4158.587	-1947.048	1	4591.823	-25.08897	3.07909E-008	0.0039925	7
	30	42	998.264	4266.769	-2298.803	1	4846.628	-28.31441	-8.597448E-009	0.0040037	7
	31	43	796.875	4373.377	-2717.397	1	5148.852	-31.85475	-8.247216E-009	0.0040691	7
	32	45	627.7902	4498.103	-3276.124	1	5564.703	-36.06715	4.568771E-008	0.0039511	7
	33	46	505.5147	4626.336	-3905.055	1	6054.126	-40.16746	-2.562771E-008	0.0040255	7
	34	48	397.9953	4788.372	-4773.999	1	6761.625	-44.91388	4.268869E-009	0.0040527	7
	35	49	315.5048	4975.607	-5826.2	1	7661.676	-49.50249	4.710611E-009	0.0040501	7
	36	50	252.4038	5193.295	-7078.255	1	8779.067	-53.73261	3.868236E-009	0.0040484	7
	37	52	198.6229	5483.604	-8745.285	1	10322.3	-57.91083	9.802693E-010	0.0039931	6
	38	53	158.3615	5827.275	-10697.14	1	12181.37	-61.42062	1.006463E-009	0.0039832	6
	39	54	125.558	6275.609	-13165.76	1	14584.94	-64.51467	-6.551585E-010	0.0039876	6
	40	56	100.4464	6826.517	-16072.93	1	17462.54	-66.98803	7.86829E-010	0.0039874	6
	41	57	79.00281	7598.27	-19941.78	1	21340.3	-69.14203	4.428734E-010	0.0039848	6
	42	58	63.3446	8576.913	-24314.92	1	25783.3	-70.57007	6.220492E-010	0.0039801	6
	43	60	49.86702	9781.42	-30045.06	1	31597.18	-71.9669	6.102394E-011	0.0039868	6
	44	61	39.72458	11462.8	-36700.96	1	38449.4	-72.65487	4.976031E-010	0.0039922	6
	45	63	31.6723	13585.66	-44814.57	1	46828.58	-73.13519	9.540198E-011	0.0039879	6
	46	64	24.93351	16610.9	-55103.35	1	57552.59	-73.22458	8.071278E-011	0.0039899	6
	47	65	19.86229	20358.7	-66955.4	1	69982.16	-73.08739	-1.242245E-011	0.0039818	6
	48	67	15.83615	25169.15	-81041.42	1	84859.88	-72.7467	-3.142394E-010	0.0039783	6
	49	68	12.40079	32121.56	-99151.4	1	104224.7	-72.0495	-1.03004E-010	0.003988	6
	50	69	9.93114	40422.64	-118639.9	1	125337.2	-71.18515	-9.762702E-011	0.0039919	5
	51	71	7.944915	51074.3	-141026.8	1	149990.5	-70.09163	1.094494E-009	0.0039895	5
	52	73	6.317385	64823.83	-168024.5	1	180095.4	-68.90339	1.813399E-010	0.0040083	5
	53	74	5.008013	82126.87	-199289.5	1	215548.4	-67.60352	-4.888389E-011	0.0039875	5
	54	77	3.945707	103936.2	-235506	1	257421.4	-66.18663	3.317977E-010	0.0039907	5
	55	79	3.158693	128373.3	-273910.8	1	302501	-64.88901	-6.545062E-011	0.0039763	5
	56	83	2.504006	158346	-318871.4	1	356023	-63.5918	5.434317E-010	0.0039861	5
	57	85	1.998082	192117.6	-367735	1	414895.4	-62.41586	2.565982E-010	0.0040251	5
	58	88	1.584686	231004.8	-423451.3	1	482363.2	-61.38627	2.256555E-010	0.0039663	5
	59	92	1.266892	274230.9	-487092.3	1	558982.6	-60.62067	2.114268E-010	0.004025	5
	60	96	0.999041	325834.8	-562953	1	650449.4	-59.93793	6.35827E-012	0.0039439	5
