EXPLAIN
TAG	EISPOT
TITLE	LABEL	Potentiostatic IDE	Test &Identifier
DATE	LABEL	9/10/2019	Date
TIME	LABEL	9:58:37	Time
NOTES	NOTES	1	&Notes...
	
PSTAT	PSTAT	REF600-11020	Potentiostat
VDC	POTEN	0.00000E+000	T	DC &Voltage (V)
FREQINIT	QUANT	1.00000E+006	Initial Fre&q. (Hz)
FREQFINAL	QUANT	1.00000E+000	Final Fre&q. (Hz)
PTSPERDEC	QUANT	1.00000E+001	Points/&decade
VAC	QUANT	2.50000E+001	AC &Voltage (mV rms)
AREA	QUANT	1.00000E-002	&Area (cm^2)
CONDIT	TWOPARAM	T	5.00000E+000	0.00000E+000	Conditionin&g	Time(s)	E(V)
DELAY	TWOPARAM	T	5.00000E+000	0.00000E+000	Init. De&lay	Time(s)	Stab.(mV/s)
SPEED	SELECTOR	1	&Optimize for:
ZGUESS	QUANT	1.00000E+007	E&stimated Z (ohms)
OCVCURVE	TABLE	19
	Pt	T	Vf	Vm	Ach	Over
	#	s	V vs. Ref.	V	V	bits
	0	0.258333	3.84907E-003	3.84907E-003	5.45999E-004	...........
	1	0.516667	3.84427E-003	3.59782E-003	5.47166E-004	...........
	2	0.775	3.81518E-003	3.37973E-003	5.44399E-004	...........
	3	1.03333	3.73436E-003	3.18078E-003	5.42366E-004	...........
	4	1.29167	3.59333E-003	3.00259E-003	5.38866E-004	...........
	5	1.55	3.41182E-003	2.83439E-003	5.43666E-004	...........
	6	1.80833	3.21827E-003	2.68146E-003	5.46333E-004	...........
	7	2.06667	3.03172E-003	2.53834E-003	5.41433E-004	...........
	8	2.325	2.85934E-003	2.40253E-003	5.42399E-004	...........
	9	2.58333	2.70115E-003	2.27030E-003	5.43099E-004	...........
	10	2.84167	2.55442E-003	2.14633E-003	5.45666E-004	...........
	11	3.1	2.41639E-003	2.02901E-003	5.39799E-004	...........
	12	3.35833	2.28544E-003	1.91949E-003	5.38566E-004	...........
	13	3.61667	2.16106E-003	1.81064E-003	5.42033E-004	...........
	14	3.875	2.04287E-003	1.70687E-003	5.39466E-004	...........
	15	4.13333	1.93017E-003	1.61055E-003	5.47533E-004	...........
	16	4.39167	1.82232E-003	1.51348E-003	5.44033E-004	...........
	17	4.65	1.71894E-003	1.42290E-003	5.46033E-004	...........
	18	4.90833	1.61961E-003	1.33155E-003	5.43833E-004	...........
EOC	QUANT	0.0016196	Open Circuit (V)
PSTATMODEL	IQUANT	4	Pstat Model
PSTATSECTION	LABEL	REF600-11020	Pstat Section
PSTATSERIALNO	LABEL	11020	Pstat Serial Number
CTRLMODE	IQUANT	1	Control Mode
IESTAB	IQUANT	0	I/E Stability
CASPEED	IQUANT	1	Control Amp Speed
CONVENTION	IQUANT	1	Current Convention
ICHRANGE	IQUANT	2	Ich Range
ICHRANGEMODE	TOGGLE	F	Ich Auto Range
ICHOFFSETENABLE	TOGGLE	T	Ich Offset Enable
ICHOFFSET	QUANT	0	Ich Offset (V)
ICHFILTER	IQUANT	3	Ich Filter
VCHRANGE	IQUANT	2	Vch Range
VCHRANGEMODE	TOGGLE	F	Vch Auto Range
VCHOFFSETENABLE	TOGGLE	T	Vch Offset Enable
VCHOFFSET	QUANT	0	Vch Offset (V)
VCHFILTER	IQUANT	3	Vch Filter
ACHRANGE	IQUANT	2	Ach Range
ACHOFFSETENABLE	TOGGLE	F	Ach Offset Enable
ACHOFFSET	QUANT	0	Ach Offset (V)
ACHFILTER	IQUANT	3	Ach Filter
IERANGELOWERLIMIT	IQUANT	1	I/E Range Lower Limit
IERANGEMODE	TOGGLE	F	I/E AutoRange
IERANGE	IQUANT	2	I/E Range
POSFEEDENABLE	TOGGLE	F	Positive Feedback IR Comp
POSFEEDRESISTANCE	QUANT	0	Positive Feedback Resistance (ohm)
ACHSELECT	IQUANT	0	Ach Select
CABLEID	IQUANT	14	Cable ID
DCCALDATE	LABEL	8/19/2019	DC Calibration Date
ACCALDATE	LABEL	8/19/2019	AC Calibration Date
THERMOSELECT	IQUANT	1	Thermo Select
FRAMEWORKVERSION	QUANT	6.33	Framework Version
INSTRUMENTVERSION	LABEL	3.50	Instrument Version
ZCURVE	TABLE
	Pt	Time	Freq	Zreal	Zimag	Zsig	Zmod	Zphz	Idc	Vdc	IERange
	#	s	Hz	ohm	ohm	V	ohm	°	A	V	#
	0	2	1000078	2890.586	-1703.988	1	3355.453	-30.51916	-8.306994E-007	0.0043024	8
	1	3	794390.6	3200.296	-1574.575	1	3566.677	-26.19761	-2.435198E-007	0.0033954	8
	2	5	630984.4	3449.632	-1404.092	1	3724.438	-22.14763	-5.404289E-007	0.0034218	8
	3	6	501234.4	3658.271	-1229.431	1	3859.333	-18.57589	3.727551E-007	0.0032611	8
	4	7	398109.4	3808.804	-1057.367	1	3952.849	-15.51525	3.409203E-006	0.0024586	8
	5	9	316265.6	3923.644	-914.1304	1	4028.724	-13.11482	-1.028823E-006	0.0033568	8
	6	10	251203.1	4009.515	-790.1092	1	4086.622	-11.14779	2.865858E-006	0.0025393	8
	7	11	199546.9	4091.345	-673.9879	1	4146.488	-9.354605	3.282439E-006	0.0025938	8
	8	13	158578.1	4131.061	-601.1293	1	4174.568	-8.279258	1.223573E-006	0.0029116	8
	9	14	125953.1	4193.584	-504.0421	1	4223.767	-6.853709	3.089483E-007	0.0022864	7
	10	15	100078.1	4221.67	-459.1898	1	4246.57	-6.207641	-5.670227E-008	0.0033012	7
	11	17	79453.13	4256.101	-440.7192	1	4278.858	-5.911907	3.492741E-008	0.0030164	7
	12	18	63140.62	4289.832	-431.7923	1	4311.508	-5.747737	-3.341004E-008	0.0031961	7
	13	19	50203.12	4325.306	-435.3491	1	4347.16	-5.747558	-5.571934E-008	0.0031862	7
	14	21	39890.62	4360.525	-450.1816	1	4383.702	-5.894348	-3.358661E-008	0.0031962	7
	15	22	31640.63	4400.621	-475.2979	1	4426.214	-6.16445	-3.851286E-009	0.0031217	7
	16	23	25171.88	4439.126	-512.1851	1	4468.576	-6.581667	7.043536E-008	0.0030628	7
	17	25	20015.62	4483.774	-561.8472	1	4518.839	-7.14232	-1.586703E-008	0.00315	7
	18	26	15890.62	4534.196	-626.6304	1	4577.292	-7.868491	-5.462543E-008	0.0032825	7
	19	27	12609.37	4588.136	-706.6957	1	4642.242	-8.75627	-3.214736E-008	0.0031917	7
	20	29	10078.13	4648.446	-804.1089	1	4717.483	-9.81416	-2.27461E-008	0.0031156	7
	21	30	8015.625	4713.878	-921.0277	1	4803.013	-11.05554	-3.682537E-009	0.0031148	7
	22	31	6328.125	4796.143	-1067.674	1	4913.544	-12.55003	-2.016697E-009	0.0031127	7
	23	33	5015.625	4884.264	-1240.812	1	5039.41	-14.25404	-8.259734E-009	0.0030813	7
	24	34	3984.375	4986.192	-1446.391	1	5191.739	-16.17635	1.758829E-009	0.0030921	7
	25	35	3170.956	5103.046	-1692.154	1	5376.288	-18.34536	-1.970035E-008	0.00311	7
	26	37	2527.573	5232.89	-1980.805	1	5595.241	-20.73315	-8.587907E-009	0.0031469	7
	27	38	1976.103	5398.34	-2362.295	1	5892.581	-23.63402	3.716911E-009	0.0030969	7
	28	39	1577.524	5574.88	-2772.534	1	6226.253	-26.44236	-9.826692E-009	0.0030851	7
	29	41	1265.625	5763.975	-3253.84	1	6618.979	-29.4453	7.344435E-008	0.0030586	7
	30	42	998.264	6003.6	-3874.539	1	7145.296	-32.83696	-2.573886E-008	0.0031217	7
	31	43	796.875	6263.177	-4580.947	1	7759.669	-36.18209	-9.797285E-009	0.0030757	7
	32	45	627.7902	6577.828	-5486.026	1	8565.296	-39.82871	-2.362577E-009	0.0031117	7
	33	46	505.5147	6902.864	-6484.069	1	9470.622	-43.20815	-3.103753E-008	0.0031937	7
	34	47	397.9953	7327.199	-7800.248	1	10701.95	-46.79111	9.633914E-010	0.0030721	6
	35	49	315.5048	7797.382	-9369.651	1	12189.73	-50.23292	1.156334E-009	0.003075	6
	36	50	252.4038	8328.418	-11200.46	1	13957.54	-53.36631	6.742397E-010	0.0030721	6
	37	51	198.6229	9000.901	-13596.73	1	16306.05	-56.49584	1.16101E-009	0.0030765	6
	38	53	158.3615	9760.75	-16359.01	1	19049.66	-59.17721	1.235767E-009	0.0030683	6
	39	54	125.558	10701.1	-19804.08	1	22510.33	-61.61551	1.189666E-009	0.0030694	6
	40	55	100.4464	11781.8	-23815.31	1	26570.28	-63.6777	4.818417E-010	0.0030682	6
	41	57	79.00281	13209.37	-29066.13	1	31926.9	-65.56014	1.17054E-009	0.003067	6
	42	58	63.3446	14748.89	-35137.29	1	38107.21	-67.22975	1.060214E-009	0.0030652	6
	43	59	49.86702	16961.52	-42596.16	1	45848.95	-68.28786	1.006457E-009	0.0030685	6
	44	61	39.72458	19566	-51713.18	1	55290.88	-69.27556	1.186167E-009	0.003068	6
	45	62	31.6723	22725.69	-62387.35	1	66397.58	-69.98496	7.608877E-010	0.0030638	6
	46	63	24.93351	27062.61	-76286.39	1	80944.41	-70.46785	6.352636E-010	0.0030643	6
	47	65	19.86229	32178.95	-92190.34	1	97645	-70.75851	5.418068E-010	0.0030629	6
	48	66	15.83615	39410.62	-111190.4	1	117968.2	-70.4835	-4.065575E-010	0.0030715	5
	49	67	12.40079	48644.6	-135920	1	144362.6	-70.30815	1.271652E-009	0.0030685	5
	50	69	9.93114	58994.64	-162292.3	1	172682.2	-70.02336	6.950804E-010	0.0030723	5
	51	70	7.944915	72854.34	-193507.6	1	206767.8	-69.36897	8.801591E-010	0.0030647	5
	52	72	6.317385	91084.71	-231093.6	1	248396.2	-68.4883	7.699615E-010	0.0030711	5
	53	74	5.008013	114785.5	-275717.8	1	298657	-67.39729	3.444685E-010	0.0030798	5
	54	77	3.945707	145859	-327775.4	1	358763.9	-66.01109	3.347201E-010	0.0030726	5
	55	79	3.158693	181928.4	-382836.8	1	423865.4	-64.58241	2.097111E-010	0.0030577	5
	56	83	2.504006	227953.3	-446714.3	1	501514.1	-62.96529	2.298016E-010	0.003074	5
	57	85	1.998082	281004.9	-514618.4	1	586341.1	-61.36347	5.712738E-010	0.0030784	5
	58	88	1.584686	347499	-589541.8	1	684335.6	-59.48324	2.272656E-010	0.0030189	5
	59	92	1.266892	418705.4	-668780.3	1	789038.2	-57.95042	4.255596E-010	0.0030869	5
	60	96	0.999041	507262.4	-760076	1	913800.1	-56.28149	-3.921003E-011	0.0030275	5
