EXPLAIN
TAG	EISPOT
TITLE	LABEL	Potentiostatic EIS	Test &Identifier
DATE	LABEL	8/14/2018	Date
TIME	LABEL	5:47:46	Time
NOTES	NOTES	1	&Notes...
	
PSTAT	PSTAT	REF600-11020	Potentiostat
VDC	POTEN	0.00000E+000	T	DC &Voltage (V)
FREQINIT	QUANT	1.00000E+006	Initial Fre&q. (Hz)
FREQFINAL	QUANT	1.00000E+000	Final Fre&q. (Hz)
PTSPERDEC	QUANT	1.00000E+001	Points/&decade
VAC	QUANT	2.50000E+001	AC &Voltage (mV rms)
AREA	QUANT	1.00000E-002	&Area (cm^2)
CONDIT	TWOPARAM	T	5.00000E+000	0.00000E+000	Conditionin&g	Time(s)	E(V)
DELAY	TWOPARAM	T	5.00000E+000	0.00000E+000	Init. De&lay	Time(s)	Stab.(mV/s)
SPEED	SELECTOR	0	&Optimize for:
ZGUESS	QUANT	1.00000E+005	E&stimated Z (ohms)
OCVCURVE	TABLE	19
	Pt	T	Vf	Vm	Ach	Over
	#	s	V vs. Ref.	V	V	bits
	0	0.258333	6.31397E-002	6.31397E-002	5.68732E-004	...........
	1	0.516667	6.31968E-002	6.61275E-002	5.77099E-004	...........
	2	0.775	6.35435E-002	6.87582E-002	5.72432E-004	...........
	3	1.03333	6.45078E-002	7.11022E-002	5.65666E-004	...........
	4	1.29167	6.61906E-002	7.32020E-002	5.72099E-004	...........
	5	1.55	6.83510E-002	7.51153E-002	5.68499E-004	...........
	6	1.80833	7.06407E-002	7.68581E-002	5.71966E-004	...........
	7	2.06667	7.28249E-002	7.84688E-002	5.73632E-004	...........
	8	2.325	7.48172E-002	7.99590E-002	5.70099E-004	...........
	9	2.58333	7.66188E-002	8.13445E-002	5.67999E-004	...........
	10	2.84167	7.82600E-002	8.26402E-002	5.69732E-004	...........
	11	3.1	7.97707E-002	8.38484E-002	5.74132E-004	...........
	12	3.35833	8.11721E-002	8.49840E-002	5.72332E-004	...........
	13	3.61667	8.24787E-002	8.60563E-002	5.78399E-004	...........
	14	3.875	8.37011E-002	8.70594E-002	5.73099E-004	...........
	15	4.13333	8.48479E-002	8.80151E-002	5.74099E-004	...........
	16	4.39167	8.59264E-002	8.89140E-002	5.78165E-004	...........
	17	4.65	8.69426E-002	8.97668E-002	5.77999E-004	...........
	18	4.90833	8.79019E-002	9.05681E-002	5.74565E-004	...........
EOC	QUANT	0.0879019	Open Circuit (V)
PSTATMODEL	IQUANT	4	Pstat Model
PSTATSECTION	LABEL	REF600-11020	Pstat Section
PSTATSERIALNO	LABEL	11020	Pstat Serial Number
CTRLMODE	IQUANT	1	Control Mode
IESTAB	IQUANT	0	I/E Stability
CASPEED	IQUANT	1	Control Amp Speed
CONVENTION	IQUANT	1	Current Convention
ICHRANGE	IQUANT	2	Ich Range
ICHRANGEMODE	TOGGLE	F	Ich Auto Range
ICHOFFSETENABLE	TOGGLE	T	Ich Offset Enable
ICHOFFSET	QUANT	0	Ich Offset (V)
ICHFILTER	IQUANT	3	Ich Filter
VCHRANGE	IQUANT	2	Vch Range
VCHRANGEMODE	TOGGLE	F	Vch Auto Range
VCHOFFSETENABLE	TOGGLE	T	Vch Offset Enable
VCHOFFSET	QUANT	0	Vch Offset (V)
VCHFILTER	IQUANT	3	Vch Filter
ACHRANGE	IQUANT	2	Ach Range
ACHOFFSETENABLE	TOGGLE	F	Ach Offset Enable
ACHOFFSET	QUANT	0	Ach Offset (V)
ACHFILTER	IQUANT	3	Ach Filter
IERANGELOWERLIMIT	IQUANT	1	I/E Range Lower Limit
IERANGEMODE	TOGGLE	F	I/E AutoRange
IERANGE	IQUANT	6	I/E Range
POSFEEDENABLE	TOGGLE	F	Positive Feedback IR Comp
POSFEEDRESISTANCE	QUANT	0	Positive Feedback Resistance (ohm)
ACHSELECT	IQUANT	0	Ach Select
CABLEID	IQUANT	14	Cable ID
DCCALDATE	LABEL	8/19/2019	DC Calibration Date
ACCALDATE	LABEL	8/19/2019	AC Calibration Date
THERMOSELECT	IQUANT	1	Thermo Select
FRAMEWORKVERSION	QUANT	6.33	Framework Version
INSTRUMENTVERSION	LABEL	3.50	Instrument Version
ZCURVE	TABLE
	Pt	Time	Freq	Zreal	Zimag	Zsig	Zmod	Zphz	Idc	Vdc	IERange
	#	s	Hz	ohm	ohm	V	ohm	°	A	V	#
	0	2	1000078	1943.718	-1868.042	1	2695.853	-43.86264	-2.13985E-006	0.0909275	8
	1	2	794390.6	2220.046	-2034.216	1	3011.086	-42.49885	1.611209E-006	0.0898477	8
	2	2	630984.4	2506.807	-2217.015	1	3346.526	-41.48948	-1.461876E-007	0.0896806	8
	3	3	501234.4	2831.976	-2399.229	1	3711.656	-40.27103	-6.841779E-007	0.0897706	8
	4	3	398109.4	3160.504	-2616.728	1	4103.176	-39.62294	-2.804186E-006	0.090153	8
	5	3	316265.6	3591.225	-2802.174	1	4555.116	-37.96434	-2.920558E-006	0.0900684	8
	6	4	251203.1	4042.889	-3061.044	1	5070.99	-37.13092	1.20083E-006	0.0893561	8
	7	4	199546.9	4570.974	-3211.803	1	5586.545	-35.09387	3.73122E-007	0.0894572	8
	8	4	158578.1	5143.149	-3360.293	1	6143.578	-33.15872	-3.013069E-006	0.0900537	8
	9	5	125953.1	5804.916	-3361.791	1	6708.105	-30.07635	2.716537E-008	0.0894635	7
	10	5	100078.1	6459.989	-3435.774	1	7316.83	-28.00648	2.819617E-008	0.0893743	7
	11	5	79453.13	7091.974	-3408.485	1	7868.537	-25.66948	-2.810416E-008	0.0895604	7
	12	6	63140.62	7709.235	-3295.913	1	8384.232	-23.14806	-7.040838E-008	0.0895735	7
	13	6	50203.12	8286.214	-3128.39	1	8857.097	-20.68361	-4.462236E-008	0.0896073	7
	14	6	39890.62	8809.909	-2907.792	1	9277.379	-18.26595	2.106373E-009	0.0895087	7
	15	7	31640.63	9261.022	-2646.652	1	9631.79	-15.94909	9.236507E-008	0.0894146	7
	16	7	25171.88	9614.81	-2386.497	1	9906.56	-13.9397	-3.989984E-008	0.0895633	7
	17	7	20015.62	10037.99	-2217.399	1	10279.98	-12.45664	6.660891E-008	0.0893761	7
	18	8	15890.62	10147.69	-1917.849	1	10327.33	-10.70231	2.922428E-008	0.0893608	7
	19	8	12609.37	10429.42	-1552.932	1	10544.4	-8.469073	-2.959514E-009	0.0895185	6
	20	8	10078.13	10565.65	-1424.389	1	10661.23	-7.677933	-2.257408E-009	0.089526	6
	21	9	8015.625	10683.94	-1353.04	1	10769.28	-7.217653	-1.387934E-008	0.0895297	6
	22	9	6328.125	10764.11	-1298.438	1	10842.14	-6.87816	-8.108136E-009	0.0895759	6
	23	9	5015.625	10844.05	-1292.081	1	10920.76	-6.794822	-1.289375E-008	0.0895313	6
	24	10	3984.375	10928.5	-1320.896	1	11008.04	-6.891745	-1.086537E-008	0.0895853	6
	25	10	3170.956	10978.65	-1432.624	1	11071.73	-7.434618	-3.733517E-009	0.0893986	6
	26	10	2527.573	11044.04	-1578.365	1	11156.26	-8.13338	-3.452706E-009	0.0893962	6
	27	10	1976.103	11114.31	-1807.44	1	11260.32	-9.236741	1.374901E-008	0.0891898	6
	28	11	1577.524	11014.72	-1977.465	1	11190.82	-10.17785	-7.898647E-010	0.0893156	6
	29	11	1265.625	11267.11	-2454.827	1	11531.43	-12.29126	-2.063E-009	0.0895204	6
	30	11	998.264	11358.86	-2947.382	1	11735.02	-14.54623	-6.833675E-010	0.0892421	6
	31	12	796.875	11464.56	-3537.069	1	11997.79	-17.14614	-6.858469E-009	0.0893379	6
	32	12	627.7902	11607.34	-4317.25	1	12384.23	-20.40224	9.357478E-010	0.0892359	6
	33	12	505.5147	11770.07	-5201.171	1	12868.05	-23.84055	-2.062714E-009	0.0895198	6
	34	13	397.9953	11980.32	-6405.677	1	13585.31	-28.13268	-2.005527E-009	0.0894381	6
	35	13	315.5048	12244.58	-7852.848	1	14546.37	-32.67338	-3.65142E-009	0.0894384	6
	36	13	252.4038	12568.27	-9562.02	1	15792.2	-37.26413	-3.78844E-009	0.0894389	6
	37	14	198.6229	13018.67	-11818.47	1	17583	-42.23348	-2.74554E-009	0.0894362	6
	38	14	158.3615	13567.87	-14444.55	1	19817.47	-46.79255	-2.857833E-009	0.0894352	6
	39	14	125.558	14292.23	-17730.39	1	22773.55	-51.12819	-2.946102E-009	0.0894349	6
	40	15	100.4464	15223.27	-21552.19	1	26386.45	-54.76474	-1.897031E-009	0.0894329	6
	41	15	79.00281	16429.47	-26564.22	1	31234.36	-58.26398	-3.03156E-009	0.0894319	6
	42	15	63.3446	18513.35	-32431.09	1	37343.27	-60.28004	-2.777462E-009	0.0894301	6
	43	16	49.86702	20546.2	-39876.18	1	44858.17	-62.74021	-1.967359E-009	0.0894289	6
	44	16	39.72458	23155.67	-47959.87	1	53257.25	-64.22813	-2.527197E-009	0.0894371	6
	45	16	31.6723	26533.21	-57852.51	1	63646.87	-65.36214	-2.163366E-009	0.0894337	6
	46	17	24.93351	31698.77	-70658.66	1	77443.26	-65.83813	-2.662875E-009	0.0894321	6
	47	17	19.86229	37750.73	-84828.8	1	92849.58	-66.00986	-1.484195E-009	0.0894382	6
	48	17	15.83615	46302.29	-101164.8	1	111257.4	-65.40681	-3.978524E-009	0.0894328	5
	49	18	12.40079	56026.12	-120750.6	1	133115.2	-65.10955	-4.625597E-009	0.0894425	5
	50	18	9.93114	69656.73	-143678.1	1	159673	-64.13538	-2.862825E-009	0.089447	5
	51	19	7.944915	85537.57	-168040.3	1	188558.3	-63.02254	-1.878022E-009	0.0894341	5
	52	19	6.317385	106531.8	-195679	1	222798.8	-61.43519	-2.134394E-009	0.0894289	5
	53	20	5.008013	132575.4	-226813.8	1	262718	-59.69321	-2.470358E-009	0.089437	5
	54	21	3.945707	165150.8	-260234.7	1	308215.7	-57.59986	-2.446122E-009	0.0894412	5
	55	22	3.158693	200449.2	-294026.8	1	355853.4	-55.71627	-2.694964E-009	0.0894311	5
	56	24	2.504006	242653.2	-329779.5	1	409432.7	-53.65421	-2.36071E-009	0.0894256	5
	57	25	1.998082	288138.8	-365559.7	1	465465.2	-51.75437	-2.009632E-009	0.0894699	5
	58	27	1.584686	338654	-402937.3	1	526350.6	-49.95418	-2.146354E-009	0.0894292	5
	59	29	1.266892	392797.3	-441503.3	1	590944.1	-48.34111	-2.158661E-009	0.0893964	5
	60	31	0.999041	453907.7	-489131.4	1	667294.4	-47.13908	-2.391743E-009	0.0893899	5
