EXPLAIN
TAG	EISPOT
TITLE	LABEL	Potentiostatic IDE	Test &Identifier
DATE	LABEL	9/18/2019	Date
TIME	LABEL	9:32:34	Time
NOTES	NOTES	1	&Notes...
	
PSTAT	PSTAT	REF600-11020	Potentiostat
VDC	POTEN	0.00000E+000	T	DC &Voltage (V)
FREQINIT	QUANT	1.00000E+006	Initial Fre&q. (Hz)
FREQFINAL	QUANT	1.00000E+000	Final Fre&q. (Hz)
PTSPERDEC	QUANT	1.00000E+001	Points/&decade
VAC	QUANT	2.50000E+001	AC &Voltage (mV rms)
AREA	QUANT	1.00000E-002	&Area (cm^2)
CONDIT	TWOPARAM	T	5.00000E+000	0.00000E+000	Conditionin&g	Time(s)	E(V)
DELAY	TWOPARAM	T	5.00000E+000	0.00000E+000	Init. De&lay	Time(s)	Stab.(mV/s)
SPEED	SELECTOR	1	&Optimize for:
ZGUESS	QUANT	1.00000E+007	E&stimated Z (ohms)
OCVCURVE	TABLE	19
	Pt	T	Vf	Vm	Ach	Over
	#	s	V vs. Ref.	V	V	bits
	0	0.258333	7.53499E-003	7.53499E-003	5.44666E-004	...........
	1	0.516667	7.48774E-003	5.06167E-003	5.50433E-004	...........
	2	0.775	7.27545E-003	6.79280E-003	5.56733E-004	...........
	3	1.03333	6.88036E-003	5.66223E-003	5.54066E-004	...........
	4	1.29167	6.45877E-003	5.46231E-003	5.54599E-004	...........
	5	1.55	6.11311E-003	5.21626E-003	5.49866E-004	...........
	6	1.80833	5.81866E-003	5.35789E-003	5.55133E-004	...........
	7	2.06667	5.57578E-003	5.49981E-003	5.52266E-004	...........
	8	2.325	5.42884E-003	5.38611E-003	5.53899E-004	...........
	9	2.58333	5.38129E-003	5.37825E-003	5.58799E-004	...........
	10	2.84167	5.38526E-003	5.44746E-003	5.51966E-004	...........
	11	3.1	5.40020E-003	5.52264E-003	5.51066E-004	...........
	12	3.35833	5.41998E-003	5.46216E-003	5.49033E-004	...........
	13	3.61667	5.44476E-003	5.46560E-003	5.48666E-004	...........
	14	3.875	5.46417E-003	5.45607E-003	5.57066E-004	...........
	15	4.13333	5.46966E-003	5.39723E-003	5.55299E-004	...........
	16	4.39167	5.46101E-003	5.39804E-003	5.50533E-004	...........
	17	4.65	5.44220E-003	5.37377E-003	5.50099E-004	...........
	18	4.90833	5.41877E-003	5.33416E-003	5.48399E-004	...........
EOC	QUANT	0.0054188	Open Circuit (V)
PSTATMODEL	IQUANT	4	Pstat Model
PSTATSECTION	LABEL	REF600-11020	Pstat Section
PSTATSERIALNO	LABEL	11020	Pstat Serial Number
CTRLMODE	IQUANT	1	Control Mode
IESTAB	IQUANT	0	I/E Stability
CASPEED	IQUANT	1	Control Amp Speed
CONVENTION	IQUANT	1	Current Convention
ICHRANGE	IQUANT	2	Ich Range
ICHRANGEMODE	TOGGLE	F	Ich Auto Range
ICHOFFSETENABLE	TOGGLE	T	Ich Offset Enable
ICHOFFSET	QUANT	0	Ich Offset (V)
ICHFILTER	IQUANT	3	Ich Filter
VCHRANGE	IQUANT	2	Vch Range
VCHRANGEMODE	TOGGLE	F	Vch Auto Range
VCHOFFSETENABLE	TOGGLE	T	Vch Offset Enable
VCHOFFSET	QUANT	0	Vch Offset (V)
VCHFILTER	IQUANT	3	Vch Filter
ACHRANGE	IQUANT	2	Ach Range
ACHOFFSETENABLE	TOGGLE	F	Ach Offset Enable
ACHOFFSET	QUANT	0	Ach Offset (V)
ACHFILTER	IQUANT	3	Ach Filter
IERANGELOWERLIMIT	IQUANT	1	I/E Range Lower Limit
IERANGEMODE	TOGGLE	F	I/E AutoRange
IERANGE	IQUANT	3	I/E Range
POSFEEDENABLE	TOGGLE	F	Positive Feedback IR Comp
POSFEEDRESISTANCE	QUANT	0	Positive Feedback Resistance (ohm)
ACHSELECT	IQUANT	0	Ach Select
CABLEID	IQUANT	14	Cable ID
DCCALDATE	LABEL	8/19/2019	DC Calibration Date
ACCALDATE	LABEL	8/19/2019	AC Calibration Date
THERMOSELECT	IQUANT	1	Thermo Select
FRAMEWORKVERSION	QUANT	6.33	Framework Version
INSTRUMENTVERSION	LABEL	3.50	Instrument Version
ZCURVE	TABLE
	Pt	Time	Freq	Zreal	Zimag	Zsig	Zmod	Zphz	Idc	Vdc	IERange
	#	s	Hz	ohm	ohm	V	ohm	°	A	V	#
	0	2	1000078	2354.852	-1800.005	1	2964.009	-37.39363	-1.132225E-006	0.0081263	8
	1	3	794390.6	2719.382	-1719.31	1	3217.307	-32.30283	1.818955E-006	0.0072182	8
	2	5	630984.4	3054.093	-1586.93	1	3441.777	-27.45673	-1.173479E-006	0.0073166	8
	3	6	501234.4	3326.052	-1439.454	1	3624.176	-23.40208	1.35891E-006	0.007013	8
	4	7	398109.4	3529.73	-1280.862	1	3754.944	-19.94473	-1.567144E-006	0.0075851	8
	5	9	316265.6	3690.86	-1125.14	1	3858.548	-16.95358	-7.738622E-007	0.0073545	8
	6	10	251203.1	3820.378	-969.305	1	3941.426	-14.23665	4.97974E-006	0.0062417	8
	7	12	199546.9	3911.799	-838.3845	1	4000.632	-12.09674	8.796996E-007	0.0069008	8
	8	13	158578.1	3987.145	-751.2499	1	4057.302	-10.67046	-8.271672E-007	0.0073988	8
	9	15	125953.1	4070.761	-618.5565	1	4117.488	-8.640062	8.200962E-007	0.0054197	7
	10	16	100078.1	4122.392	-567.3867	1	4161.255	-7.836685	-4.838552E-008	0.0071284	7
	11	17	79453.13	4167.552	-538.1437	1	4202.152	-7.357723	3.84857E-008	0.0070143	7
	12	19	63140.62	4212.954	-519.353	1	4244.845	-7.027697	-4.288633E-008	0.0071143	7
	13	20	50203.12	4256.466	-511.8458	1	4287.13	-6.85697	2.233976E-008	0.0070021	7
	14	21	39890.62	4303.511	-520.046	1	4334.819	-6.890341	-4.890588E-008	0.0072218	7
	15	23	31640.63	4346.355	-540.5533	1	4379.841	-7.089434	-7.070495E-009	0.0070927	7
	16	24	25171.88	4394.172	-568.6091	1	4430.809	-7.373146	-1.279943E-008	0.0070542	7
	17	25	20015.62	4444.578	-609.1199	1	4486.123	-7.803649	6.765529E-008	0.0069809	7
	18	27	15890.62	4500.651	-661.328	1	4548.979	-8.359251	5.718981E-008	0.0069739	7
	19	28	12609.37	4559.005	-736.5608	1	4618.122	-9.177504	-3.995468E-008	0.0071308	7
	20	29	10078.13	4617.565	-823.6642	1	4690.451	-10.11384	6.893048E-008	0.0069822	7
	21	31	8015.625	4688.465	-932.2769	1	4780.255	-11.24628	-2.311489E-008	0.0071159	7
	22	32	6328.125	4765.089	-1070.761	1	4883.913	-12.66454	3.238017E-008	0.0070186	7
	23	33	5015.625	4848.061	-1238.575	1	5003.774	-14.33128	2.877708E-009	0.0071301	7
	24	35	3984.375	4938.345	-1438.759	1	5143.664	-16.24318	1.44472E-009	0.0070159	7
	25	36	3170.956	5039.371	-1682.335	1	5312.769	-18.46098	5.841809E-008	0.0069685	7
	26	37	2527.573	5150.561	-1975.951	1	5516.581	-20.98871	-3.787783E-008	0.0071227	7
	27	39	1976.103	5288.444	-2365.328	1	5793.308	-24.09723	-1.969818E-009	0.0070958	7
	28	40	1577.524	5428.768	-2800.622	1	6108.601	-27.28855	-3.036899E-008	0.0071034	7
	29	41	1265.625	5582.834	-3318.471	1	6494.635	-30.72751	-2.212727E-008	0.0071149	7
	30	43	998.264	5777.171	-3997.791	1	7025.527	-34.68316	1.821152E-009	0.0070185	7
	31	44	796.875	5985.896	-4787.677	1	7665.037	-38.65374	7.003014E-008	0.0069721	7
	32	45	627.7902	6245.811	-5810.356	1	8530.557	-42.93144	4.200641E-009	0.0071338	7
	33	47	505.5147	6515.708	-6934.551	1	9515.38	-46.78362	-1.429591E-009	0.0070472	7
	34	48	397.9953	6871.472	-8465.762	1	10903.5	-50.93452	7.85069E-010	0.007027	6
	35	49	315.5048	7273.5	-10294.22	1	12604.55	-54.75645	1.349954E-009	0.0070251	6
	36	51	252.4038	7730.103	-12447.76	1	14652.69	-58.15957	5.798899E-010	0.0070138	6
	37	52	198.6229	8317.613	-15293.98	1	17409.44	-61.46049	1.140107E-009	0.0070194	6
	38	53	158.3615	8994.345	-18606.44	1	20666.35	-64.2009	8.060172E-010	0.007016	6
	39	55	125.558	9847.22	-22792.06	1	24828.32	-66.63343	1.13705E-009	0.0070154	6
	40	56	100.4464	10855.2	-27708.42	1	29758.9	-68.60647	5.541661E-010	0.0070174	6
	41	58	79.00281	12226.16	-34225.12	1	36343.33	-70.34187	1.501572E-009	0.0070158	6
	42	59	63.3446	13654.85	-41496.93	1	43685.81	-71.78585	4.629493E-010	0.007013	6
	43	60	49.86702	16512.64	-51325.07	1	53915.96	-72.16563	3.653561E-010	0.0070108	6
	44	62	39.72458	19245.04	-62724.77	1	65610.73	-72.94308	1.112525E-009	0.0070175	6
	45	63	31.6723	23149.52	-76466.23	1	79893.59	-73.15675	9.212676E-010	0.0070152	6
	46	64	24.93351	28499.7	-94005.05	1	98230.3	-73.13417	5.562228E-010	0.0070159	6
	47	66	19.86229	35558.45	-114192.6	1	119600.8	-72.70393	7.102042E-010	0.0070231	5
	48	67	15.83615	43873.03	-137298.7	1	144138	-72.27901	9.797013E-010	0.0070205	5
	49	68	12.40079	56916.28	-168394.2	1	177752.8	-71.32504	7.072307E-010	0.0070254	5
	50	70	9.93114	74082.87	-200921	1	214143.7	-69.76025	7.909703E-010	0.0070268	5
	51	71	7.944915	94254.48	-238804.1	1	256731.9	-68.46116	-6.831905E-011	0.0070219	5
	52	73	6.317385	123397.5	-281762	1	307598.4	-66.34902	-3.148048E-011	0.0070341	5
	53	75	5.008013	159411.9	-329441.3	1	365983.2	-64.17833	5.927911E-010	0.0070242	5
	54	78	3.945707	204615.2	-383219.4	1	434424.3	-61.90057	2.554535E-010	0.0070133	5
	55	80	3.158693	254116.1	-435165.2	1	503928.3	-59.71707	4.431649E-010	0.0070392	5
	56	84	2.504006	315740.5	-495571.6	1	587608.1	-57.49781	-4.663031E-010	0.0070241	5
	57	86	1.998082	380213.1	-550944.3	1	669403.9	-55.38999	-3.205891E-011	0.0069777	5
	58	89	1.584686	450073.8	-611506.8	1	759280.6	-53.64664	4.944731E-011	0.007012	5
	59	93	1.266892	523475.1	-673334.3	1	852880.6	-52.13718	2.678104E-010	0.0069761	5
	60	97	0.999041	605883.5	-748782.8	1	963208	-51.02168	1.125206E-010	0.0070519	5
