EXPLAIN
TAG	EISPOT
TITLE	LABEL	Potentiostatic EIS	Test &Identifier
DATE	LABEL	11/11/2019	Date
TIME	LABEL	14:42:06	Time
NOTES	NOTES	3	&Notes...
	
	
	
PSTAT	PSTAT	REF600-11020	Potentiostat
VDC	POTEN	0.00000E+000	T	DC &Voltage (V)
FREQINIT	QUANT	1.00000E+006	Initial Fre&q. (Hz)
FREQFINAL	QUANT	1.00000E+000	Final Fre&q. (Hz)
PTSPERDEC	QUANT	1.00000E+001	Points/&decade
VAC	QUANT	2.50000E+001	AC &Voltage (mV rms)
AREA	QUANT	1.00000E-002	&Area (cm^2)
CONDIT	TWOPARAM	T	5.00000E+000	0.00000E+000	Conditionin&g	Time(s)	E(V)
DELAY	TWOPARAM	T	5.00000E+000	0.00000E+000	Init. De&lay	Time(s)	Stab.(mV/s)
SPEED	SELECTOR	1	&Optimize for:
ZGUESS	QUANT	1.00000E+005	E&stimated Z (ohms)
OCVCURVE	TABLE	19
	Pt	T	Vf	Vm	Ach	Over
	#	s	V vs. Ref.	V	V	bits
	0	0.258333	6.83515E-003	6.83515E-003	5.14166E-004	...........
	1	0.516667	6.84190E-003	7.18865E-003	5.21100E-004	...........
	2	0.775	6.87835E-003	7.26087E-003	5.20100E-004	...........
	3	1.03333	6.96170E-003	7.16947E-003	5.15933E-004	...........
	4	1.29167	7.06664E-003	7.16261E-003	5.22866E-004	...........
	5	1.55	7.14472E-003	7.15280E-003	5.13767E-004	...........
	6	1.80833	7.17590E-003	7.14344E-003	5.10200E-004	...........
	7	2.06667	7.17273E-003	7.03870E-003	5.14266E-004	...........
	8	2.325	7.15247E-003	7.15990E-003	5.18633E-004	...........
	9	2.58333	7.13095E-003	7.18089E-003	5.22566E-004	...........
	10	2.84167	7.12511E-003	7.20798E-003	5.18233E-004	...........
	11	3.1	7.14021E-003	7.19765E-003	5.21333E-004	...........
	12	3.35833	7.16486E-003	7.19516E-003	5.24600E-004	...........
	13	3.61667	7.18642E-003	7.27395E-003	5.22466E-004	...........
	14	3.875	7.20420E-003	7.26874E-003	5.19400E-004	...........
	15	4.13333	7.22332E-003	7.25477E-003	5.17000E-004	...........
	16	4.39167	7.24313E-003	7.30799E-003	5.15033E-004	...........
	17	4.65	7.26029E-003	7.29756E-003	5.21133E-004	...........
	18	4.90833	7.27709E-003	7.40940E-003	5.21100E-004	...........
EOC	QUANT	0.0072771	Open Circuit (V)
PSTATMODEL	IQUANT	4	Pstat Model
PSTATSECTION	LABEL	REF600-11020	Pstat Section
PSTATSERIALNO	LABEL	11020	Pstat Serial Number
CTRLMODE	IQUANT	1	Control Mode
IESTAB	IQUANT	0	I/E Stability
CASPEED	IQUANT	1	Control Amp Speed
CONVENTION	IQUANT	1	Current Convention
ICHRANGE	IQUANT	2	Ich Range
ICHRANGEMODE	TOGGLE	F	Ich Auto Range
ICHOFFSETENABLE	TOGGLE	T	Ich Offset Enable
ICHOFFSET	QUANT	0	Ich Offset (V)
ICHFILTER	IQUANT	3	Ich Filter
VCHRANGE	IQUANT	2	Vch Range
VCHRANGEMODE	TOGGLE	F	Vch Auto Range
VCHOFFSETENABLE	TOGGLE	T	Vch Offset Enable
VCHOFFSET	QUANT	0	Vch Offset (V)
VCHFILTER	IQUANT	3	Vch Filter
ACHRANGE	IQUANT	2	Ach Range
ACHOFFSETENABLE	TOGGLE	F	Ach Offset Enable
ACHOFFSET	QUANT	0	Ach Offset (V)
ACHFILTER	IQUANT	3	Ach Filter
IERANGELOWERLIMIT	IQUANT	1	I/E Range Lower Limit
IERANGEMODE	TOGGLE	F	I/E AutoRange
IERANGE	IQUANT	5	I/E Range
POSFEEDENABLE	TOGGLE	F	Positive Feedback IR Comp
POSFEEDRESISTANCE	QUANT	0	Positive Feedback Resistance (ohm)
ACHSELECT	IQUANT	0	Ach Select
CABLEID	IQUANT	14	Cable ID
DCCALDATE	LABEL	8/19/2019	DC Calibration Date
ACCALDATE	LABEL	8/19/2019	AC Calibration Date
THERMOSELECT	IQUANT	1	Thermo Select
FRAMEWORKVERSION	QUANT	6.33	Framework Version
INSTRUMENTVERSION	LABEL	3.50	Instrument Version
ZCURVE	TABLE
	Pt	Time	Freq	Zreal	Zimag	Zsig	Zmod	Zphz	Idc	Vdc	IERange
	#	s	Hz	ohm	ohm	V	ohm	°	A	V	#
	0	1	1000078	2459.278	-1926.064	1	3123.743	-38.06744	-6.895447E-006	0.0093767	8
	1	3	794390.6	2879.026	-1938.302	1	3470.707	-33.95039	2.145431E-006	0.0088753	8
	2	4	630984.4	3251.544	-1856.343	1	3744.135	-29.72252	-8.860094E-007	0.0094676	8
	3	5	501234.4	3607.877	-1732.856	1	4002.446	-25.65488	5.461243E-006	0.0082735	8
	4	7	398109.4	3895.226	-1572.171	1	4200.537	-21.97974	1.543299E-007	0.009193	8
	5	8	316265.6	4136.502	-1392.993	1	4364.754	-18.61128	-2.104007E-006	0.0092471	8
	6	10	251203.1	4325.965	-1216.47	1	4493.748	-15.7061	-4.769105E-006	0.0095296	8
	7	11	199546.9	4465.8	-1046.13	1	4586.694	-13.18402	7.152155E-007	0.0091237	8
	8	12	158578.1	4543.202	-901.7006	1	4631.819	-11.22575	4.726359E-006	0.0082359	8
	9	14	125953.1	4724.099	-736.0371	1	4781.094	-8.855755	2.421992E-006	0.0072806	7
	10	15	100078.1	4741.221	-633.5765	1	4783.366	-7.611429	-7.820136E-007	0.0102307	7
	11	16	79453.13	4802.252	-566.3339	1	4835.531	-6.725877	-2.591799E-007	0.0080348	7
	12	18	63140.62	4855.313	-516.2921	1	4882.687	-6.069765	4.281372E-007	0.0073282	7
	13	19	50203.12	4898.412	-486.7154	1	4922.533	-5.674391	8.749184E-007	0.0081637	7
	14	20	39890.62	4932.855	-462.4777	1	4954.487	-5.356085	8.738496E-007	0.0081696	7
	15	22	31640.63	4971.585	-450.6562	1	4991.969	-5.1795	9.491786E-007	0.0078006	7
	16	23	25171.88	4992.673	-451.8284	1	5013.076	-5.171084	-9.489504E-007	0.0101627	7
	17	24	20015.62	5032.956	-466.0441	1	5054.487	-5.290417	-2.613864E-007	0.0099507	7
	18	26	15890.62	5078.141	-491.1012	1	5101.833	-5.523831	8.530561E-007	0.0073115	7
	19	27	12609.37	5106.252	-533.1544	1	5134.01	-5.960773	5.153436E-008	0.0096139	7
	20	28	10078.13	5143.49	-591.0674	1	5177.34	-6.555426	-7.792398E-007	0.0102132	7
	21	30	8015.625	5190.109	-662.7897	1	5232.258	-7.277423	9.428371E-007	0.0075124	7
	22	31	6328.125	5220.9	-762.7074	1	5276.317	-8.311395	-2.57278E-007	0.0080203	7
	23	32	5015.625	5276.442	-889.4251	1	5350.88	-9.56813	9.515867E-007	0.0078004	7
	24	34	3984.375	5324.856	-1044.181	1	5426.27	-11.09467	8.535984E-007	0.007314	7
	25	35	3170.956	5379.677	-1238.96	1	5520.502	-12.96929	8.751075E-007	0.0081591	7
	26	36	2527.573	5434.842	-1473.463	1	5631.039	-15.16906	3.260186E-007	0.0092431	7
	27	38	1976.103	5508.574	-1792.178	1	5792.779	-18.02195	-5.433702E-007	0.0101395	7
	28	39	1577.524	5596.295	-2146.687	1	5993.896	-20.98635	-7.77263E-007	0.0102066	7
	29	41	1265.625	5678.459	-2580.499	1	6237.297	-24.43877	-9.025432E-007	0.0091975	7
	30	42	998.264	5810.415	-3159.522	1	6613.887	-28.53597	7.139368E-007	0.0085802	7
	31	44	796.875	5938.013	-3830.595	1	7066.361	-32.82595	9.398429E-007	0.0075088	7
	32	45	627.7902	6094.031	-4690.526	1	7690.14	-37.58518	-2.619907E-007	0.00802	7
	33	46	505.5147	6273.167	-5657.589	1	8447.54	-42.04639	-7.753876E-007	0.0102065	7
	34	48	397.9953	6502.539	-6998.416	1	9553.05	-47.10347	5.57421E-009	0.0087881	7
	35	49	315.5048	6783.554	-8597.45	1	10951.38	-51.72588	1.554163E-010	0.0087362	6
	36	50	252.4038	7114.571	-10494.67	1	12678.93	-55.86579	3.565879E-010	0.0087274	6
	37	52	198.6229	7564.314	-13010.52	1	15049.67	-59.82629	8.347967E-010	0.0087243	6
	38	53	158.3615	8113.199	-15955.66	1	17899.92	-63.04739	3.611005E-010	0.0087167	6
	39	54	125.558	8844.326	-19658.63	1	21556.53	-65.77724	9.286983E-010	0.0087185	6
	40	56	100.4464	9746.68	-24018.02	1	25920.32	-67.91235	1.339994E-009	0.008716	6
	41	57	79.00281	11115.33	-29811.45	1	31816.24	-69.55181	4.149753E-010	0.0087204	6
	42	59	63.3446	12934.06	-36168.73	1	38411.8	-70.32278	7.176691E-010	0.0087154	6
	43	60	49.86702	14955.58	-44896.82	1	47322.24	-71.57658	2.419053E-010	0.0087234	6
	44	61	39.72458	18039.35	-54524.37	1	57431.05	-71.69324	9.513708E-010	0.0087234	6
	45	63	31.6723	22006.64	-66316.47	1	69872.5	-71.64194	1.118523E-009	0.0087245	6
	46	64	24.93351	27774.49	-80811.6	1	85451.38	-71.03245	5.583788E-010	0.0087271	6
	47	65	19.86229	34845.46	-97160.5	1	103220	-70.27023	7.098339E-010	0.0087249	6
	48	67	15.83615	44022.07	-115853.9	1	123935.8	-69.19426	3.966754E-010	0.0087226	5
	49	68	12.40079	56493.76	-139556.3	1	150557.3	-67.96141	1.954404E-010	0.0087285	5
	50	70	9.93114	71662.75	-163614.5	1	178620.5	-66.3467	9.987668E-011	0.0087343	5
	51	71	7.944915	89209.13	-190536.4	1	210386.3	-64.91101	7.398565E-010	0.0087271	5
	52	73	6.317385	110789.4	-221414.3	1	247585.5	-63.41793	1.414838E-010	0.0087368	5
	53	75	5.008013	136111.3	-255990.7	1	289926.7	-62.00023	3.491852E-010	0.008733	5
	54	77	3.945707	166162.6	-296064.5	1	339505.8	-60.69722	-1.181921E-010	0.008716	5
	55	80	3.158693	197612.6	-337910.9	1	391451.8	-59.68061	2.534398E-010	0.008732	5
	56	83	2.504006	234897.1	-387911.2	1	453488.4	-58.80328	-2.728194E-010	0.008726	5
	57	86	1.998082	274708.2	-441896.3	1	520323.8	-58.13254	7.20109E-011	0.0086842	5
	58	89	1.584686	320083.5	-507147.5	1	599709.9	-57.74215	-1.34025E-010	0.0087112	5
	59	93	1.266892	370166.1	-579204.6	1	687387.1	-57.4176	8.451968E-011	0.0086839	5
	60	97	0.999041	429098.9	-669256.1	1	795002.9	-57.33371	-7.46692E-011	0.0087596	5
