EXPLAIN
TAG	EISPOT
TITLE	LABEL	Potentiostatic IDE	Test &Identifier
DATE	LABEL	9/12/2019	Date
TIME	LABEL	10:30:04	Time
NOTES	NOTES	1	&Notes...
	
PSTAT	PSTAT	REF600-11020	Potentiostat
VDC	POTEN	0.00000E+000	T	DC &Voltage (V)
FREQINIT	QUANT	1.00000E+006	Initial Fre&q. (Hz)
FREQFINAL	QUANT	1.00000E+000	Final Fre&q. (Hz)
PTSPERDEC	QUANT	1.00000E+001	Points/&decade
VAC	QUANT	2.50000E+001	AC &Voltage (mV rms)
AREA	QUANT	1.00000E-002	&Area (cm^2)
CONDIT	TWOPARAM	T	5.00000E+000	0.00000E+000	Conditionin&g	Time(s)	E(V)
DELAY	TWOPARAM	T	5.00000E+000	0.00000E+000	Init. De&lay	Time(s)	Stab.(mV/s)
SPEED	SELECTOR	1	&Optimize for:
ZGUESS	QUANT	1.00000E+007	E&stimated Z (ohms)
OCVCURVE	TABLE	19
	Pt	T	Vf	Vm	Ach	Over
	#	s	V vs. Ref.	V	V	bits
	0	0.258333	5.42765E-003	5.42765E-003	5.48599E-004	...........
	1	0.516667	5.42809E-003	5.45089E-003	5.47766E-004	...........
	2	0.775	5.42808E-003	5.32977E-003	5.48699E-004	...........
	3	1.03333	5.41355E-003	4.92945E-003	5.49399E-004	...........
	4	1.29167	5.37131E-003	5.85690E-003	5.47766E-004	...........
	5	1.55	5.38237E-003	7.72886E-003	5.44299E-004	...........
	6	1.80833	5.58813E-003	5.16867E-003	5.47699E-004	...........
	7	2.06667	5.89708E-003	4.94861E-003	5.47799E-004	...........
	8	2.325	5.97943E-003	4.68910E-003	5.43866E-004	...........
	9	2.58333	5.70498E-003	4.58322E-003	5.37333E-004	...........
	10	2.84167	5.26875E-003	4.48543E-003	5.39899E-004	...........
	11	3.1	4.88973E-003	4.36102E-003	5.44166E-004	...........
	12	3.35833	4.63701E-003	4.28066E-003	5.41866E-004	...........
	13	3.61667	4.48043E-003	4.19422E-003	5.45599E-004	...........
	14	3.875	4.37296E-003	4.13744E-003	5.44033E-004	...........
	15	4.13333	4.28646E-003	4.06284E-003	5.42133E-004	...........
	16	4.39167	4.20991E-003	4.00607E-003	5.40333E-004	...........
	17	4.65	4.13977E-003	3.95880E-003	5.37399E-004	...........
	18	4.90833	4.07512E-003	3.89876E-003	5.39199E-004	...........
EOC	QUANT	0.0040751	Open Circuit (V)
PSTATMODEL	IQUANT	4	Pstat Model
PSTATSECTION	LABEL	REF600-11020	Pstat Section
PSTATSERIALNO	LABEL	11020	Pstat Serial Number
CTRLMODE	IQUANT	1	Control Mode
IESTAB	IQUANT	0	I/E Stability
CASPEED	IQUANT	1	Control Amp Speed
CONVENTION	IQUANT	1	Current Convention
ICHRANGE	IQUANT	2	Ich Range
ICHRANGEMODE	TOGGLE	F	Ich Auto Range
ICHOFFSETENABLE	TOGGLE	T	Ich Offset Enable
ICHOFFSET	QUANT	0	Ich Offset (V)
ICHFILTER	IQUANT	3	Ich Filter
VCHRANGE	IQUANT	2	Vch Range
VCHRANGEMODE	TOGGLE	F	Vch Auto Range
VCHOFFSETENABLE	TOGGLE	T	Vch Offset Enable
VCHOFFSET	QUANT	0	Vch Offset (V)
VCHFILTER	IQUANT	3	Vch Filter
ACHRANGE	IQUANT	2	Ach Range
ACHOFFSETENABLE	TOGGLE	F	Ach Offset Enable
ACHOFFSET	QUANT	0	Ach Offset (V)
ACHFILTER	IQUANT	3	Ach Filter
IERANGELOWERLIMIT	IQUANT	1	I/E Range Lower Limit
IERANGEMODE	TOGGLE	F	I/E AutoRange
IERANGE	IQUANT	2	I/E Range
POSFEEDENABLE	TOGGLE	F	Positive Feedback IR Comp
POSFEEDRESISTANCE	QUANT	0	Positive Feedback Resistance (ohm)
ACHSELECT	IQUANT	0	Ach Select
CABLEID	IQUANT	14	Cable ID
DCCALDATE	LABEL	8/19/2019	DC Calibration Date
ACCALDATE	LABEL	8/19/2019	AC Calibration Date
THERMOSELECT	IQUANT	1	Thermo Select
FRAMEWORKVERSION	QUANT	6.33	Framework Version
INSTRUMENTVERSION	LABEL	3.50	Instrument Version
ZCURVE	TABLE
	Pt	Time	Freq	Zreal	Zimag	Zsig	Zmod	Zphz	Idc	Vdc	IERange
	#	s	Hz	ohm	ohm	V	ohm	°	A	V	#
	0	2	1000078	2622.008	-1982.328	1	3287.028	-37.09053	-8.029173E-007	0.006001	8
	1	3	794390.6	3006.212	-1905.68	1	3559.344	-32.37119	-1.24108E-006	0.0064147	8
	2	5	630984.4	3393.115	-1749.866	1	3817.756	-27.28064	-2.447093E-006	0.0061615	8
	3	6	501234.4	3678.152	-1602.343	1	4012.02	-23.53977	3.112425E-006	0.0049866	8
	4	8	398109.4	3907.88	-1420.465	1	4158.034	-19.97557	1.335349E-006	0.0052489	8
	5	9	316265.6	4094.302	-1243.965	1	4279.107	-16.90027	2.297585E-006	0.0051728	8
	6	11	251203.1	4233.19	-1073.781	1	4367.254	-14.23331	-1.250286E-006	0.0059472	8
	7	12	199546.9	4358.944	-976.674	1	4467.022	-12.62922	5.179468E-006	0.0047092	8
	8	13	158578.1	4429.391	-867.1772	1	4513.479	-11.07715	1.71543E-007	0.0056015	8
	9	15	125953.1	4543.484	-710.4266	1	4598.69	-8.886904	1.067806E-006	0.0032695	7
	10	16	100078.1	4573.31	-664.6566	1	4621.356	-8.269119	-3.565097E-008	0.0056052	7
	11	18	79453.13	4626.886	-639.2003	1	4670.83	-7.865576	8.451389E-008	0.0054505	7
	12	19	63140.62	4681.376	-632.1183	1	4723.86	-7.690042	-1.197585E-008	0.0056373	7
	13	20	50203.12	4734.373	-640.7499	1	4777.535	-7.707578	-2.517766E-008	0.0055775	7
	14	22	39890.62	4792.314	-657.7671	1	4837.245	-7.815275	-1.196025E-008	0.0056297	7
	15	23	31640.63	4853.489	-703.5361	1	4904.214	-8.247846	7.60205E-008	0.0055622	7
	16	24	25171.88	4920.642	-759.0701	1	4978.846	-8.76946	-2.369776E-008	0.0055787	7
	17	26	20015.62	4992.824	-830.4059	1	5061.409	-9.44299	-3.422576E-008	0.0055874	7
	18	27	15890.62	5077.003	-914.6425	1	5158.733	-10.21252	8.352523E-010	0.0055206	7
	19	28	12609.37	5163.873	-1029.365	1	5265.47	-11.27355	-5.611782E-008	0.0056994	7
	20	30	10078.13	5257.014	-1156.401	1	5382.7	-12.40594	-6.167277E-009	0.0056208	7
	21	31	8015.625	5367.484	-1310.504	1	5525.152	-13.72068	1.465176E-007	0.0053705	7
	22	32	6328.125	5493.794	-1500.196	1	5694.942	-15.27345	7.59705E-008	0.0055613	7
	23	34	5015.625	5631.264	-1724.332	1	5889.351	-17.02495	8.437477E-008	0.0054354	7
	24	35	3984.375	5780.201	-1987.257	1	6112.276	-18.97318	1.466598E-007	0.0053669	7
	25	36	3170.956	5945.941	-2296.331	1	6373.958	-21.11663	-3.483039E-008	0.0055855	7
	26	38	2527.573	6132.068	-2661.293	1	6684.665	-23.46065	2.434423E-008	0.0054873	7
	27	39	1976.103	6353.453	-3135.341	1	7084.965	-26.2657	8.289111E-008	0.0054329	7
	28	40	1577.524	6572.961	-3669.869	1	7528.064	-29.17585	-5.227617E-009	0.0056195	7
	29	42	1265.625	6800.107	-4277.523	1	8033.596	-32.17144	-1.119499E-008	0.0056219	7
	30	43	998.264	7110.564	-5084.56	1	8741.445	-35.56747	1.484905E-007	0.0053627	7
	31	44	796.875	7410.954	-6014.701	1	9544.57	-39.06265	-5.489938E-008	0.0056996	7
	32	45	627.7902	7780.458	-7206.052	1	10604.84	-42.80503	-8.053732E-009	0.0056039	6
	33	47	505.5147	8148.022	-8529.879	1	11796.15	-46.31161	-8.423039E-009	0.0055938	6
	34	48	397.9953	8595.18	-10336.01	1	13442.85	-50.25389	4.644178E-010	0.0055266	6
	35	49	315.5048	9097.317	-12495.34	1	15456.22	-53.94326	1.619862E-009	0.0055252	6
	36	51	252.4038	9654.65	-15037.91	1	17870.39	-57.29869	8.820698E-010	0.0055243	6
	37	52	198.6229	10347.62	-18413.15	1	21121.49	-60.66536	1.012739E-009	0.0055306	6
	38	53	158.3615	11137.37	-22349.53	1	24970.83	-63.51168	8.124756E-010	0.0055242	6
	39	55	125.558	12089.45	-27327	1	29881.76	-66.13543	1.279927E-009	0.0055235	6
	40	56	100.4464	13238.98	-33243.55	1	35782.74	-68.28548	1.166073E-010	0.0055196	6
	41	58	79.00281	14598.11	-41035.66	1	43554.91	-70.41738	1.636744E-009	0.0055184	6
	42	59	63.3446	17049.7	-49575.96	1	52425.83	-71.02135	5.939034E-010	0.005526	6
	43	60	49.86702	18613.29	-62316.58	1	65037	-73.36968	-1.320434E-011	0.005518	6
	44	62	39.72458	21851.78	-75608.23	1	78702.63	-73.88	7.002453E-010	0.0055222	6
	45	63	31.6723	25821.94	-92927.95	1	96448.8	-74.47095	1.244746E-009	0.0055201	6
	46	64	24.93351	31546.26	-114230.2	1	118506.2	-74.56178	4.96944E-010	0.005523	5
	47	66	19.86229	38987.38	-139060.7	1	144422.6	-74.3385	5.398799E-010	0.0055309	5
	48	67	15.83615	48001.87	-166868.5	1	173635.4	-73.95143	-7.239561E-010	0.0055281	5
	49	68	12.40079	63955.42	-206544.7	1	216219.9	-72.79516	-7.480843E-010	0.0055313	5
	50	70	9.93114	79144.38	-250725.2	1	262920.1	-72.48108	5.686577E-010	0.0055213	5
	51	71	7.944915	100338	-302798.3	1	318989.8	-71.66639	1.752903E-011	0.0055319	5
	52	73	6.317385	129713.2	-359209.2	1	381911.9	-70.14495	3.763372E-010	0.005531	5
	53	75	5.008013	167300.9	-428696.4	1	460184.9	-68.68153	4.209162E-010	0.0055328	5
	54	77	3.945707	217482.1	-510395.1	1	554798.7	-66.92088	1.061124E-010	0.0055239	5
	55	80	3.158693	276115.8	-594928.2	1	655880.7	-65.10322	1.139302E-010	0.005519	5
	56	83	2.504006	349664.1	-692757.1	1	776000.9	-63.21797	3.493053E-010	0.0055342	5
	57	86	1.998082	437113.8	-796191.2	1	908289	-61.23295	3.083564E-010	0.0055629	5
	58	89	1.584686	542108.3	-908218.2	1	1057706	-59.16735	1.964396E-010	0.005506	4
	59	93	1.266892	661812.7	-1026579	1	1221418	-57.19103	1.393046E-010	0.0055578	4
	60	97	0.999041	800453.3	-1155475	1	1405648	-55.28778	7.99658E-011	0.0054865	4
