EXPLAIN
TAG	EISPOT
TITLE	LABEL	Potentiostatic EIS	Test &Identifier
DATE	LABEL	9/22/2019	Date
TIME	LABEL	11:02:54	Time
NOTES	NOTES	1	&Notes...
	
PSTAT	PSTAT	REF600-11020	Potentiostat
VDC	POTEN	0.00000E+000	T	DC &Voltage (V)
FREQINIT	QUANT	1.00000E+006	Initial Fre&q. (Hz)
FREQFINAL	QUANT	1.00000E+000	Final Fre&q. (Hz)
PTSPERDEC	QUANT	1.00000E+001	Points/&decade
VAC	QUANT	2.50000E+001	AC &Voltage (mV rms)
AREA	QUANT	1.00000E-002	&Area (cm^2)
CONDIT	TWOPARAM	T	5.00000E+000	0.00000E+000	Conditionin&g	Time(s)	E(V)
DELAY	TWOPARAM	T	5.00000E+000	0.00000E+000	Init. De&lay	Time(s)	Stab.(mV/s)
SPEED	SELECTOR	1	&Optimize for:
ZGUESS	QUANT	1.00000E+004	E&stimated Z (ohms)
OCVCURVE	TABLE	19
	Pt	T	Vf	Vm	Ach	Over
	#	s	V vs. Ref.	V	V	bits
	0	0.258333	-4.64262E-003	-4.64262E-003	6.32198E-004	...........
	1	0.516667	-4.65805E-003	-5.45045E-003	6.31831E-004	...........
	2	0.775	-4.75254E-003	-6.20177E-003	6.34631E-004	...........
	3	1.03333	-5.01861E-003	-6.90616E-003	6.30831E-004	...........
	4	1.29167	-5.49068E-003	-7.53977E-003	6.33031E-004	...........
	5	1.55	-6.10971E-003	-8.14444E-003	6.33731E-004	...........
	6	1.80833	-6.78350E-003	-8.77053E-003	6.34365E-004	...........
	7	2.06667	-7.45003E-003	-9.32963E-003	6.33765E-004	...........
	8	2.325	-8.08664E-003	-9.84724E-003	6.32698E-004	...........
	9	2.58333	-8.68845E-003	-1.03344E-002	6.33565E-004	...........
	10	2.84167	-9.25392E-003	-1.08169E-002	6.35998E-004	...........
	11	3.1	-9.78543E-003	-1.13034E-002	6.35731E-004	...........
	12	3.35833	-1.02905E-002	-1.17476E-002	6.36631E-004	...........
	13	3.61667	-1.07765E-002	-1.21735E-002	6.40265E-004	...........
	14	3.875	-1.12456E-002	-1.25868E-002	6.36565E-004	...........
	15	4.13333	-1.16967E-002	-1.29943E-002	6.38698E-004	...........
	16	4.39167	-1.21300E-002	-1.33830E-002	6.37631E-004	...........
	17	4.65	-1.25480E-002	-1.37632E-002	6.35398E-004	...........
	18	4.90833	-1.29524E-002	-1.41281E-002	6.29565E-004	...........
EOC	QUANT	-0.0129524	Open Circuit (V)
PSTATMODEL	IQUANT	4	Pstat Model
PSTATSECTION	LABEL	REF600-11020	Pstat Section
PSTATSERIALNO	LABEL	11020	Pstat Serial Number
CTRLMODE	IQUANT	1	Control Mode
IESTAB	IQUANT	0	I/E Stability
CASPEED	IQUANT	1	Control Amp Speed
CONVENTION	IQUANT	1	Current Convention
ICHRANGE	IQUANT	2	Ich Range
ICHRANGEMODE	TOGGLE	F	Ich Auto Range
ICHOFFSETENABLE	TOGGLE	T	Ich Offset Enable
ICHOFFSET	QUANT	0	Ich Offset (V)
ICHFILTER	IQUANT	3	Ich Filter
VCHRANGE	IQUANT	2	Vch Range
VCHRANGEMODE	TOGGLE	F	Vch Auto Range
VCHOFFSETENABLE	TOGGLE	T	Vch Offset Enable
VCHOFFSET	QUANT	0	Vch Offset (V)
VCHFILTER	IQUANT	3	Vch Filter
ACHRANGE	IQUANT	2	Ach Range
ACHOFFSETENABLE	TOGGLE	F	Ach Offset Enable
ACHOFFSET	QUANT	0	Ach Offset (V)
ACHFILTER	IQUANT	3	Ach Filter
IERANGELOWERLIMIT	IQUANT	1	I/E Range Lower Limit
IERANGEMODE	TOGGLE	F	I/E AutoRange
IERANGE	IQUANT	6	I/E Range
POSFEEDENABLE	TOGGLE	F	Positive Feedback IR Comp
POSFEEDRESISTANCE	QUANT	0	Positive Feedback Resistance (ohm)
ACHSELECT	IQUANT	0	Ach Select
CABLEID	IQUANT	14	Cable ID
DCCALDATE	LABEL	8/19/2019	DC Calibration Date
ACCALDATE	LABEL	8/19/2019	AC Calibration Date
THERMOSELECT	IQUANT	1	Thermo Select
FRAMEWORKVERSION	QUANT	6.33	Framework Version
INSTRUMENTVERSION	LABEL	3.50	Instrument Version
ZCURVE	TABLE
	Pt	Time	Freq	Zreal	Zimag	Zsig	Zmod	Zphz	Idc	Vdc	IERange
	#	s	Hz	ohm	ohm	V	ohm	°	A	V	#
	0	1	1000078	2364.554	-1952.828	1	3066.701	-39.55249	5.564931E-007	-0.0109018	8
	1	3	794390.6	2752.977	-1944.296	1	3370.336	-35.23173	-4.215535E-006	-0.010301	8
	2	4	630984.4	3127.22	-1876.673	1	3647.11	-30.96836	-2.636699E-006	-0.0105985	8
	3	5	501234.4	3467.986	-1787.368	1	3901.488	-27.26616	-2.903095E-006	-0.0107297	8
	4	7	398109.4	3772.69	-1634.925	1	4111.711	-23.42988	-1.05781E-006	-0.0111231	8
	5	8	316265.6	4025.386	-1493.943	1	4293.67	-20.36142	5.93472E-007	-0.0114372	8
	6	9	251203.1	4256.894	-1330.31	1	4459.918	-17.3544	4.272709E-006	-0.0122542	8
	7	11	199546.9	4405.788	-1170.001	1	4558.494	-14.8722	2.386689E-007	-0.0114552	8
	8	12	158578.1	4543.408	-1059.724	1	4665.359	-13.12918	8.029692E-007	-0.0115794	8
	9	14	125953.1	4687.181	-876.9924	1	4768.52	-10.59776	1.342769E-006	-0.0144129	7
	10	15	100078.1	4763.102	-791.2941	1	4828.383	-9.432401	1.05491E-008	-0.01155	7
	11	16	79453.13	4839.479	-725.1207	1	4893.501	-8.521489	-5.471448E-008	-0.0113939	7
	12	18	63140.62	4907.582	-675.4293	1	4953.843	-7.836374	9.617697E-009	-0.0115551	7
	13	19	50203.12	4968.21	-639.5059	1	5009.2	-7.334756	-5.852752E-008	-0.0112916	7
	14	20	39890.62	5023.078	-618.1348	1	5060.968	-7.015489	-4.356453E-008	-0.0114614	7
	15	22	31640.63	5080.335	-615.1768	1	5117.445	-6.90432	-1.459028E-008	-0.011454	7
	16	23	25171.88	5134.367	-623.8393	1	5172.127	-6.927633	-3.52478E-008	-0.0114737	7
	17	24	20015.62	5192.063	-647.4578	1	5232.276	-7.108174	4.494439E-008	-0.0116297	7
	18	26	15890.62	5250.753	-688.4865	1	5295.698	-7.470091	-2.861875E-008	-0.0114292	7
	19	27	12609.37	5317.312	-742.0296	1	5368.837	-7.944308	-2.51808E-008	-0.0114989	7
	20	28	10078.13	5384.412	-810.0632	1	5445.006	-8.555756	1.24163E-007	-0.0116586	7
	21	30	8015.625	5458.743	-897.5902	1	5532.046	-9.337683	-6.357508E-008	-0.0114127	7
	22	31	6328.125	5545.198	-1010.712	1	5636.556	-10.32979	-3.480555E-008	-0.0114871	7
	23	32	5015.625	5639.242	-1144.143	1	5754.139	-11.46903	4.345668E-008	-0.0115419	7
	24	34	3984.375	5741.609	-1302.793	1	5887.559	-12.78417	1.231472E-007	-0.0116609	7
	25	35	3170.956	5853.585	-1492.024	1	6040.744	-14.29966	-2.41275E-008	-0.011506	7
	26	36	2527.573	5976.048	-1712.366	1	6216.539	-15.98903	-3.72048E-008	-0.0114899	7
	27	38	1976.103	6122.711	-2002.102	1	6441.739	-18.10754	-3.385655E-009	-0.0114466	7
	28	39	1577.524	6269.866	-2324.275	1	6686.813	-20.34003	-3.737982E-008	-0.0114843	7
	29	40	1265.625	6416.211	-2693.539	1	6958.657	-22.77276	-3.67992E-009	-0.0114424	7
	30	42	998.264	6618.483	-3197.73	1	7350.497	-25.78758	-6.09183E-008	-0.0113844	7
	31	43	796.875	6814.321	-3763.618	1	7784.587	-28.91231	8.186394E-008	-0.0116568	7
	32	44	627.7902	7046.305	-4500.078	1	8360.688	-32.56408	-6.40465E-008	-0.0114138	7
	33	46	505.5147	7286.856	-5325.311	1	9025.365	-36.15973	-2.968313E-008	-0.0114316	7
	34	47	397.9953	7579.871	-6421.645	1	9934.38	-40.27118	1.220357E-009	-0.011524	6
	35	48	315.5048	7907.824	-7748.703	1	11071.41	-44.41771	1.20804E-009	-0.0115278	6
	36	50	252.4038	8273.937	-9313.519	1	12457.92	-48.38278	5.157871E-010	-0.0115236	6
	37	51	198.6229	8741.272	-11387.14	1	14355.38	-52.48857	1.181129E-009	-0.0115227	6
	38	52	158.3615	9278.1	-13810.03	1	16637.31	-56.1053	7.17848E-010	-0.0115286	6
	39	54	125.558	9954.56	-16854.72	1	19574.85	-59.4335	1.121612E-009	-0.011528	6
	40	55	100.4464	10776.6	-20457.4	1	23122.29	-62.22053	9.363825E-010	-0.0115307	6
	41	56	79.00281	11915.86	-25199.25	1	27874.54	-64.69213	6.59274E-010	-0.0115295	6
	42	58	63.3446	13148.87	-30268.76	1	33001.37	-66.51968	4.076311E-010	-0.0115348	6
	43	59	49.86702	15187.81	-37428.43	1	40392.53	-67.91354	6.958707E-010	-0.0115374	6
	44	61	39.72458	17265.51	-45533.7	1	48697.18	-69.23423	9.609423E-010	-0.011531	6
	45	62	31.6723	20131.59	-55042.57	1	58608.58	-69.91022	6.374353E-010	-0.0115317	6
	46	63	24.93351	24032.8	-67482.1	1	71633.86	-70.39736	1.088968E-009	-0.011538	6
	47	65	19.86229	28778.46	-81424.38	1	86360.46	-70.53466	7.957466E-010	-0.0115409	6
	48	66	15.83615	35426.27	-98060.3	1	104263.3	-70.13673	-1.201925E-010	-0.011538	6
	49	67	12.40079	43059.09	-120200.2	1	127679.9	-70.29105	1.480335E-009	-0.0115337	5
	50	69	9.93114	52849.22	-142718.6	1	152189.5	-69.68022	9.697649E-010	-0.0115349	5
	51	70	7.944915	64363.68	-169127.4	1	180960.6	-69.16501	1.434737E-009	-0.011535	5
	52	72	6.317385	80161.52	-202379.2	1	217676.8	-68.39169	5.576316E-010	-0.0115191	5
	53	74	5.008013	99712.5	-240972.5	1	260787.9	-67.52061	4.530165E-010	-0.0115366	5
	54	77	3.945707	124801.4	-286479.7	1	312483.6	-66.46023	8.121891E-010	-0.0115235	5
	55	79	3.158693	153749.5	-335766.4	1	369293.9	-65.39667	3.03332E-010	-0.0115517	5
	56	83	2.504006	190583.6	-393907.8	1	437590.6	-64.181	6.922228E-010	-0.011524	5
	57	85	1.998082	233456.2	-457158.6	1	513318.3	-62.94806	7.412275E-010	-0.0115398	5
	58	89	1.584686	287979.5	-531103.4	1	604154.8	-61.53218	3.775529E-010	-0.0115851	5
	59	92	1.266892	346955.3	-608505.6	1	700469.1	-60.30924	6.199911E-010	-0.011549	5
	60	97	0.999041	421956.6	-700903.1	1	818115.2	-58.95128	1.554433E-010	-0.0115244	5
