EXPLAIN
TAG	EISPOT
TITLE	LABEL	Potentiostatic EIS	Test &Identifier
DATE	LABEL	8/14/2018	Date
TIME	LABEL	5:36:08	Time
NOTES	NOTES	1	&Notes...
	
PSTAT	PSTAT	REF600-11020	Potentiostat
VDC	POTEN	0.00000E+000	T	DC &Voltage (V)
FREQINIT	QUANT	1.00000E+006	Initial Fre&q. (Hz)
FREQFINAL	QUANT	1.00000E+000	Final Fre&q. (Hz)
PTSPERDEC	QUANT	1.00000E+001	Points/&decade
VAC	QUANT	2.50000E+001	AC &Voltage (mV rms)
AREA	QUANT	1.00000E-002	&Area (cm^2)
CONDIT	TWOPARAM	T	5.00000E+000	0.00000E+000	Conditionin&g	Time(s)	E(V)
DELAY	TWOPARAM	T	5.00000E+000	0.00000E+000	Init. De&lay	Time(s)	Stab.(mV/s)
SPEED	SELECTOR	0	&Optimize for:
ZGUESS	QUANT	1.00000E+005	E&stimated Z (ohms)
OCVCURVE	TABLE	19
	Pt	T	Vf	Vm	Ach	Over
	#	s	V vs. Ref.	V	V	bits
	0	0.258333	3.17378E-002	3.17378E-002	5.75699E-004	...........
	1	0.516667	3.17650E-002	3.31619E-002	5.75165E-004	...........
	2	0.775	3.19326E-002	3.45431E-002	5.80165E-004	...........
	3	1.03333	3.24104E-002	3.59455E-002	5.76966E-004	...........
	4	1.29167	3.32721E-002	3.71182E-002	5.77899E-004	...........
	5	1.55	3.44246E-002	3.84193E-002	5.79566E-004	...........
	6	1.80833	3.57070E-002	3.96087E-002	5.80832E-004	...........
	7	2.06667	3.70013E-002	4.06301E-002	5.80532E-004	...........
	8	2.325	3.82492E-002	4.17188E-002	5.83832E-004	...........
	9	2.58333	3.94318E-002	4.28825E-002	5.82365E-004	...........
	10	2.84167	4.05603E-002	4.38181E-002	5.75666E-004	...........
	11	3.1	4.16535E-002	4.48635E-002	5.76732E-004	...........
	12	3.35833	4.27158E-002	4.57520E-002	5.78666E-004	...........
	13	3.61667	4.37408E-002	4.66422E-002	5.72599E-004	...........
	14	3.875	4.47244E-002	4.76335E-002	5.74299E-004	...........
	15	4.13333	4.56720E-002	4.83899E-002	5.77366E-004	...........
	16	4.39167	4.65913E-002	4.92938E-002	5.76432E-004	...........
	17	4.65	4.74847E-002	5.01274E-002	5.73399E-004	...........
	18	4.90833	4.83520E-002	5.07732E-002	5.74799E-004	...........
EOC	QUANT	0.048352	Open Circuit (V)
PSTATMODEL	IQUANT	4	Pstat Model
PSTATSECTION	LABEL	REF600-11020	Pstat Section
PSTATSERIALNO	LABEL	11020	Pstat Serial Number
CTRLMODE	IQUANT	1	Control Mode
IESTAB	IQUANT	0	I/E Stability
CASPEED	IQUANT	1	Control Amp Speed
CONVENTION	IQUANT	1	Current Convention
ICHRANGE	IQUANT	2	Ich Range
ICHRANGEMODE	TOGGLE	F	Ich Auto Range
ICHOFFSETENABLE	TOGGLE	T	Ich Offset Enable
ICHOFFSET	QUANT	0	Ich Offset (V)
ICHFILTER	IQUANT	3	Ich Filter
VCHRANGE	IQUANT	2	Vch Range
VCHRANGEMODE	TOGGLE	F	Vch Auto Range
VCHOFFSETENABLE	TOGGLE	T	Vch Offset Enable
VCHOFFSET	QUANT	0	Vch Offset (V)
VCHFILTER	IQUANT	3	Vch Filter
ACHRANGE	IQUANT	2	Ach Range
ACHOFFSETENABLE	TOGGLE	F	Ach Offset Enable
ACHOFFSET	QUANT	0	Ach Offset (V)
ACHFILTER	IQUANT	3	Ach Filter
IERANGELOWERLIMIT	IQUANT	1	I/E Range Lower Limit
IERANGEMODE	TOGGLE	F	I/E AutoRange
IERANGE	IQUANT	5	I/E Range
POSFEEDENABLE	TOGGLE	F	Positive Feedback IR Comp
POSFEEDRESISTANCE	QUANT	0	Positive Feedback Resistance (ohm)
ACHSELECT	IQUANT	0	Ach Select
CABLEID	IQUANT	14	Cable ID
DCCALDATE	LABEL	8/19/2019	DC Calibration Date
ACCALDATE	LABEL	8/19/2019	AC Calibration Date
THERMOSELECT	IQUANT	1	Thermo Select
FRAMEWORKVERSION	QUANT	6.33	Framework Version
INSTRUMENTVERSION	LABEL	3.50	Instrument Version
ZCURVE	TABLE
	Pt	Time	Freq	Zreal	Zimag	Zsig	Zmod	Zphz	Idc	Vdc	IERange
	#	s	Hz	ohm	ohm	V	ohm	°	A	V	#
	0	1	1000078	2314.714	-2054.177	1	3094.761	-41.58722	5.848994E-006	0.049036	8
	1	2	794390.6	2678.445	-2116.816	1	3413.939	-38.31986	-6.217426E-006	0.0509053	8
	2	2	630984.4	3102.225	-2154.357	1	3776.91	-34.77826	2.376107E-006	0.0499054	8
	3	2	501234.4	3491.155	-2114.521	1	4081.589	-31.20243	-1.179853E-006	0.0497497	8
	4	3	398109.4	3900.868	-2093.401	1	4427.087	-28.22023	-1.950398E-006	0.0502341	8
	5	3	316265.6	4255.375	-1962.781	1	4686.228	-24.7614	2.137711E-007	0.0496924	8
	6	3	251203.1	4559.775	-1815.55	1	4907.929	-21.71079	-4.305116E-006	0.0506222	8
	7	3	199546.9	4894.207	-1642.007	1	5162.31	-18.54661	-1.20455E-007	0.0497423	8
	8	4	158578.1	5146.978	-1440.131	1	5344.657	-15.63169	-1.90141E-006	0.0501868	8
	9	4	125953.1	5355.199	-1213.57	1	5490.984	-12.76844	8.469822E-007	0.0476665	7
	10	4	100078.1	5528.954	-1063.698	1	5630.345	-10.8899	-4.185181E-008	0.0497774	7
	11	5	79453.13	5632.911	-971.185	1	5716.02	-9.78235	2.649968E-008	0.0498393	7
	12	5	63140.62	5733.2	-873.5011	1	5799.36	-8.662872	4.916059E-008	0.049695	7
	13	5	50203.12	5815.59	-793.5262	1	5869.478	-7.769917	1.042744E-007	0.0496628	7
	14	6	39890.62	5884.737	-729.9219	1	5929.833	-7.070652	-5.892915E-008	0.0497907	7
	15	6	31640.63	5937.79	-719.9055	1	5981.272	-6.912876	7.627474E-008	0.0497466	8
	16	6	25171.88	6007.988	-671.6384	1	6045.413	-6.378664	-5.79962E-008	0.0497876	7
	17	7	20015.62	6057.093	-666.886	1	6093.694	-6.28296	-6.082941E-008	0.0498304	7
	18	7	15890.62	6118.459	-680.3079	1	6156.165	-6.344624	8.087116E-008	0.0495725	7
	19	8	12609.37	6165.345	-715.7907	1	6206.757	-6.622338	-6.278222E-009	0.0497214	7
	20	8	10078.13	6212.195	-763.6296	1	6258.953	-7.007887	-1.864084E-008	0.0497826	7
	21	8	8015.625	6268.03	-853.9988	1	6325.939	-7.758593	-5.588184E-008	0.0497834	7
	22	9	6328.125	6330.057	-966.811	1	6403.464	-8.683867	-5.912794E-008	0.0498891	7
	23	9	5015.625	6392.518	-1114.322	1	6488.913	-9.88825	1.04901E-007	0.0496569	7
	24	9	3984.375	6470.719	-1293.242	1	6598.688	-11.30226	3.559514E-008	0.0496167	7
	25	10	3170.956	6529.312	-1526.728	1	6705.431	-13.16083	1.154754E-007	0.0495807	7
	26	10	2527.573	6610.882	-1809.635	1	6854.089	-15.30889	-6.365885E-008	0.0498582	7
	27	10	1976.103	6710.916	-2187.337	1	7058.388	-18.05272	-2.591325E-008	0.0497227	7
	28	11	1577.524	6821.166	-2638.062	1	7313.527	-21.1438	-6.459726E-008	0.0498553	7
	29	11	1265.625	6954.245	-3142.313	1	7631.229	-24.31608	-2.502923E-008	0.0497195	7
	30	11	998.264	7121.604	-3819.239	1	8081.079	-28.20418	-5.489732E-009	0.0497183	7
	31	12	796.875	7300.101	-4605.582	1	8631.504	-32.24754	-2.643629E-008	0.0497234	7
	32	12	627.7902	7538.378	-5628.205	1	9407.648	-36.74527	6.058507E-008	0.0496468	7
	33	12	505.5147	7785.658	-6759.252	1	10310.38	-40.96344	-6.902366E-009	0.049691	6
	34	13	397.9953	8110.734	-8297.736	1	11603.29	-45.65295	-5.609289E-010	0.0497165	6
	35	13	315.5048	8493.338	-10143.53	1	13229.81	-50.06002	-2.272827E-009	0.0497142	6
	36	13	252.4038	8942.786	-12317.81	1	15221.75	-54.02018	-7.693088E-010	0.0497086	6
	37	14	198.6229	9547.38	-15195.31	1	17945.75	-57.8584	-1.652238E-009	0.0497116	6
	38	14	158.3615	10266.26	-18541.7	1	21194.12	-61.02736	-2.068903E-009	0.0497086	6
	39	14	125.558	11225.01	-22746.94	1	25365.8	-63.73489	-1.151789E-009	0.0497144	6
	40	15	100.4464	12354.36	-27698.24	1	30328.58	-65.96149	-9.752661E-010	0.0497081	6
	41	15	79.00281	14138.18	-34137.29	1	36949.19	-67.50279	-6.463578E-010	0.0497053	6
	42	15	63.3446	15401.43	-41563.81	1	44325.55	-69.66786	-1.907665E-009	0.0497085	6
	43	16	49.86702	18334.02	-50890.87	1	54092.67	-70.18787	-1.99666E-009	0.0497046	6
	44	16	39.72458	22449.2	-61880.97	1	65827.21	-70.06023	-1.450107E-009	0.0497091	6
	45	16	31.6723	27277.88	-74768.56	1	79589.07	-69.95647	-1.863773E-009	0.0497079	6
	46	17	24.93351	33640.81	-91131.7	1	97142.6	-69.73862	-1.348864E-009	0.0497043	6
	47	17	19.86229	41827.82	-109459.6	1	117179.2	-69.08664	-1.727936E-009	0.0497097	5
	48	17	15.83615	52088.15	-129983.7	1	140031.9	-68.16262	-1.107953E-009	0.0497096	5
	49	18	12.40079	67381.08	-156638.2	1	170516.1	-66.72407	-1.813099E-009	0.0497107	5
	50	18	9.93114	85899.12	-184208.3	1	203252	-64.99966	-1.106646E-009	0.049709	5
	51	19	7.944915	106942.5	-214362.2	1	239557.6	-63.48598	-1.456725E-009	0.0497131	5
	52	19	6.317385	133206.2	-247110	1	280726.3	-61.67283	-8.121457E-010	0.0497015	5
	53	20	5.008013	165696.7	-283796.8	1	328627.4	-59.72119	-1.346235E-009	0.0497173	5
	54	21	3.945707	203108.3	-324070.7	1	382458.9	-57.92295	-1.333395E-009	0.0497079	5
	55	22	3.158693	244349.8	-365055.8	1	439286.5	-56.20366	-1.46526E-009	0.0496891	5
	56	24	2.504006	290386.3	-408370.6	1	501089.6	-54.58393	-8.550149E-010	0.0497017	5
	57	25	1.998082	339578.4	-456455.9	1	568916.1	-53.35276	-1.347174E-009	0.0496855	5
	58	27	1.584686	394469.9	-512066	1	646388.5	-52.39115	-1.265622E-009	0.0496526	5
	59	29	1.266892	449563.8	-572699.2	1	728074.2	-51.8684	-1.171741E-009	0.0496764	5
	60	31	0.999041	512811.9	-645843	1	824675.3	-51.54974	-1.092101E-009	0.0497012	5
