EXPLAIN
TAG	EISPOT
TITLE	LABEL	Potentiostatic EIS	Test &Identifier
DATE	LABEL	11/7/2019	Date
TIME	LABEL	10:23:23	Time
NOTES	NOTES	2	&Notes...
	
	
PSTAT	PSTAT	REF600-11020	Potentiostat
VDC	POTEN	0.00000E+000	T	DC &Voltage (V)
FREQINIT	QUANT	1.00000E+006	Initial Fre&q. (Hz)
FREQFINAL	QUANT	1.00000E+000	Final Fre&q. (Hz)
PTSPERDEC	QUANT	1.00000E+001	Points/&decade
VAC	QUANT	2.50000E+001	AC &Voltage (mV rms)
AREA	QUANT	1.00000E-002	&Area (cm^2)
CONDIT	TWOPARAM	T	5.00000E+000	0.00000E+000	Conditionin&g	Time(s)	E(V)
DELAY	TWOPARAM	T	5.00000E+000	0.00000E+000	Init. De&lay	Time(s)	Stab.(mV/s)
SPEED	SELECTOR	1	&Optimize for:
ZGUESS	QUANT	1.00000E+005	E&stimated Z (ohms)
OCVCURVE	TABLE	19
	Pt	T	Vf	Vm	Ach	Over
	#	s	V vs. Ref.	V	V	bits
	0	0.258333	3.11372E-003	3.11372E-003	5.86299E-004	...........
	1	0.516667	3.10732E-003	2.77883E-003	5.84365E-004	...........
	2	0.775	3.06838E-003	2.47942E-003	5.82765E-004	...........
	3	1.03333	2.95870E-003	2.15732E-003	5.87399E-004	...........
	4	1.29167	2.76644E-003	2.09189E-003	5.83532E-004	...........
	5	1.55	2.52549E-003	1.80921E-003	5.87432E-004	...........
	6	1.80833	2.28137E-003	1.57937E-003	5.89899E-004	...........
	7	2.06667	2.05163E-003	1.40689E-003	5.90599E-004	...........
	8	2.325	1.83288E-003	1.22771E-003	5.89232E-004	...........
	9	2.58333	1.62435E-003	1.05017E-003	5.84132E-004	...........
	10	2.84167	1.42874E-003	9.01229E-004	5.81165E-004	...........
	11	3.1	1.24661E-003	7.60871E-004	5.81999E-004	...........
	12	3.35833	1.07778E-003	6.29248E-004	5.84499E-004	...........
	13	3.61667	9.21951E-004	4.97887E-004	5.86132E-004	...........
	14	3.875	7.77549E-004	3.82224E-004	5.88599E-004	...........
	15	4.13333	6.42482E-004	2.70275E-004	5.91232E-004	...........
	16	4.39167	5.15534E-004	1.67563E-004	5.90732E-004	...........
	17	4.65	3.96060E-004	5.51317E-005	5.86499E-004	...........
	18	4.90833	2.83230E-004	-1.89151E-005	5.83132E-004	...........
EOC	QUANT	0.0002832	Open Circuit (V)
PSTATMODEL	IQUANT	4	Pstat Model
PSTATSECTION	LABEL	REF600-11020	Pstat Section
PSTATSERIALNO	LABEL	11020	Pstat Serial Number
CTRLMODE	IQUANT	1	Control Mode
IESTAB	IQUANT	0	I/E Stability
CASPEED	IQUANT	1	Control Amp Speed
CONVENTION	IQUANT	1	Current Convention
ICHRANGE	IQUANT	2	Ich Range
ICHRANGEMODE	TOGGLE	F	Ich Auto Range
ICHOFFSETENABLE	TOGGLE	T	Ich Offset Enable
ICHOFFSET	QUANT	0	Ich Offset (V)
ICHFILTER	IQUANT	3	Ich Filter
VCHRANGE	IQUANT	2	Vch Range
VCHRANGEMODE	TOGGLE	F	Vch Auto Range
VCHOFFSETENABLE	TOGGLE	T	Vch Offset Enable
VCHOFFSET	QUANT	0	Vch Offset (V)
VCHFILTER	IQUANT	3	Vch Filter
ACHRANGE	IQUANT	2	Ach Range
ACHOFFSETENABLE	TOGGLE	F	Ach Offset Enable
ACHOFFSET	QUANT	0	Ach Offset (V)
ACHFILTER	IQUANT	3	Ach Filter
IERANGELOWERLIMIT	IQUANT	1	I/E Range Lower Limit
IERANGEMODE	TOGGLE	F	I/E AutoRange
IERANGE	IQUANT	3	I/E Range
POSFEEDENABLE	TOGGLE	F	Positive Feedback IR Comp
POSFEEDRESISTANCE	QUANT	0	Positive Feedback Resistance (ohm)
ACHSELECT	IQUANT	0	Ach Select
CABLEID	IQUANT	14	Cable ID
DCCALDATE	LABEL	8/19/2019	DC Calibration Date
ACCALDATE	LABEL	8/19/2019	AC Calibration Date
THERMOSELECT	IQUANT	1	Thermo Select
FRAMEWORKVERSION	QUANT	6.33	Framework Version
INSTRUMENTVERSION	LABEL	3.50	Instrument Version
ZCURVE	TABLE
	Pt	Time	Freq	Zreal	Zimag	Zsig	Zmod	Zphz	Idc	Vdc	IERange
	#	s	Hz	ohm	ohm	V	ohm	°	A	V	#
	0	2	1000078	2278.519	-1962.493	1	3007.162	-40.73839	-2.393958E-006	0.0025519	8
	1	3	794390.6	2743.72	-1914.69	1	3345.75	-34.90905	-5.841756E-006	0.0025997	8
	2	5	630984.4	3138.66	-1842.436	1	3639.472	-30.41352	6.495834E-006	0.0019301	8
	3	7	501234.4	3482.403	-1732.615	1	3889.612	-26.45192	6.466058E-006	0.0005407	8
	4	8	398109.4	3767.993	-1572.003	1	4082.765	-22.64585	6.758564E-006	0.0009398	8
	5	10	316265.6	3991.258	-1394.567	1	4227.878	-19.25969	6.721555E-006	0.0009432	8
	6	11	251203.1	4186.589	-1210.979	1	4358.21	-16.13261	6.474724E-006	0.0005716	8
	7	13	199546.9	4322.726	-1070.028	1	4453.191	-13.90326	6.753544E-006	0.0009608	8
	8	14	158578.1	4440.655	-898.4473	1	4530.632	-11.43786	7.562781E-006	0.0009835	8
	9	16	125953.1	4596.579	-706.9725	1	4650.628	-8.743807	1.961397E-006	-0.0047876	7
	10	18	100078.1	4613.573	-643.2447	1	4658.199	-7.937263	9.566749E-007	-0.0003705	7
	11	19	79453.13	4662.07	-562.0125	1	4695.823	-6.873837	-7.644487E-007	0.0036877	7
	12	20	63140.62	4704.644	-511.5465	1	4732.373	-6.20552	-1.324906E-006	0.0036851	7
	13	22	50203.12	4746.476	-481.9226	1	4770.879	-5.797528	-7.641721E-007	0.0036823	7
	14	23	39890.62	4778.281	-466.1893	1	4800.969	-5.572382	-1.473341E-006	0.0034786	7
	15	24	31640.63	4815.484	-455.2732	1	4836.958	-5.400896	-1.089656E-006	0.0037636	7
	16	26	25171.88	4845.359	-461.2331	1	4867.262	-5.43764	-1.448873E-006	0.0030103	7
	17	27	20015.62	4889	-484.7929	1	4912.977	-5.662934	-8.464584E-007	0.0015166	7
	18	28	15890.62	4920.868	-516.1401	1	4947.863	-5.987746	9.78181E-007	0.0015428	7
	19	30	12609.37	4960.143	-562.8399	1	4991.974	-6.473805	6.117466E-007	-0.0002733	7
	20	31	10078.13	4989.183	-638.3171	1	5029.85	-7.290826	1.20953E-006	0.0009387	7
	21	33	8015.625	5034.418	-727.3436	1	5086.688	-8.22088	1.709491E-007	8.120636E-005	7
	22	34	6328.125	5073.558	-834.1298	1	5141.669	-9.33632	9.813095E-007	0.0015386	7
	23	35	5015.625	5111.83	-979.302	1	5204.79	-10.84507	-1.322326E-006	0.0036811	7
	24	37	3984.375	5165.125	-1154.096	1	5292.49	-12.59529	-3.341479E-007	0.0006819	7
	25	38	3170.956	5225.393	-1382.948	1	5405.301	-14.82398	5.953232E-008	0.0029438	7
	26	39	2527.573	5298.945	-1657.61	1	5552.161	-17.37067	9.624194E-007	-0.0003849	7
	27	41	1976.103	5379.473	-2027.301	1	5748.798	-20.64935	6.131359E-007	-0.0002732	7
	28	42	1577.524	5481.614	-2464.603	1	6010.188	-24.20929	6.136765E-007	-0.0002721	7
	29	43	1265.625	5591.425	-2915.818	1	6306.032	-27.54115	5.941354E-008	0.0029336	7
	30	45	998.264	5733.785	-3561.378	1	6749.793	-31.84531	-1.087975E-006	0.0037614	7
	31	46	796.875	5894.648	-4316.147	1	7305.889	-36.21213	-3.692746E-007	0.0033923	7
	32	48	627.7902	6096.606	-5286.783	1	8069.615	-40.93079	1.646914E-007	7.581508E-005	7
	33	49	505.5147	6291.823	-6375.391	1	8957.268	-45.37799	1.324202E-006	0.0004174	7
	34	50	397.9953	6573.885	-7841.464	1	10232.52	-50.02524	8.750898E-009	0.0017772	7
	35	52	315.5048	6896.303	-9610.4	1	11828.72	-54.33724	1.862199E-009	0.0017055	6
	36	53	252.4038	7264.426	-11703.34	1	13774.62	-58.17155	4.869196E-010	0.0017036	6
	37	55	198.6229	7753.617	-14487.59	1	16431.95	-61.84474	1.153589E-009	0.0017074	6
	38	56	158.3615	8349.627	-17742.26	1	19608.78	-64.79801	-1.052505E-010	0.0017134	6
	39	57	125.558	9116.901	-21858.69	1	23683.75	-67.35978	8.783402E-010	0.0017131	6
	40	59	100.4464	10055.28	-26672.83	1	28505.24	-69.34426	-3.823361E-010	0.0017139	6
	41	60	79.00281	11409.3	-33247.63	1	35150.78	-71.05976	1.871667E-009	0.001706	6
	42	61	63.3446	13035.31	-40977	1	43000.39	-72.35346	2.098159E-009	0.0017035	6
	43	63	49.86702	15204.99	-49668.5	1	51943.73	-72.97911	1.437371E-009	0.0017092	6
	44	64	39.72458	18735.39	-60918.09	1	63734.05	-72.90469	1.147099E-009	0.0017192	6
	45	66	31.6723	22840.09	-74417.74	1	77843.88	-72.93784	2.287747E-009	0.0017011	6
	46	67	24.93351	28915.97	-91112.17	1	95590.6	-72.3923	1.138671E-009	0.0016995	6
	47	69	19.86229	36713.79	-109901.8	1	115872	-71.5276	1.084086E-009	0.0017061	5
	48	70	15.83615	46155.87	-134131.3	1	141850.5	-71.01117	-1.6402E-009	0.0017212	5
	49	71	12.40079	59731.09	-159626.1	1	170435.6	-69.48447	6.839735E-010	0.0017221	5
	50	73	9.93114	77775.49	-188918.4	1	204301.7	-67.62361	8.543663E-011	0.001725	5
	51	74	7.944915	99712.8	-220713.7	1	242192.4	-65.68777	3.656444E-010	0.0017051	5
	52	76	6.317385	125661.8	-256497.9	1	285625.8	-63.89914	6.542766E-010	0.001715	5
	53	78	5.008013	157460	-296958.6	1	336122.1	-62.06557	5.393108E-010	0.0017238	5
	54	80	3.945707	195933.2	-341342	1	393578.7	-60.1438	-9.862769E-011	0.00171	5
	55	83	3.158693	236495.2	-386280.9	1	452927.1	-58.52352	3.796355E-010	0.0017171	5
	56	87	2.504006	283981.2	-438298.8	1	522255.8	-57.06012	-1.84597E-010	0.0017106	5
	57	89	1.998082	333887.1	-492481.5	1	594994.6	-55.86395	1.353635E-010	0.0016628	5
	58	92	1.584686	388565	-555762.3	1	678125.7	-55.04041	2.264939E-011	0.0017165	5
	59	96	1.266892	448146.7	-626487.3	1	770273.8	-54.42263	8.211023E-011	0.0016731	5
	60	100	0.999041	516036	-711885.2	1	879246.1	-54.06215	1.738178E-010	0.0017527	5
