EXPLAIN
TAG	EISPOT
TITLE	LABEL	Potentiostatic EIS	Test &Identifier
DATE	LABEL	10/22/2019	Date
TIME	LABEL	8:03:05	Time
NOTES	NOTES	1	&Notes...
	
PSTAT	PSTAT	REF600-11020	Potentiostat
VDC	POTEN	0.00000E+000	T	DC &Voltage (V)
FREQINIT	QUANT	1.00000E+006	Initial Fre&q. (Hz)
FREQFINAL	QUANT	1.00000E+000	Final Fre&q. (Hz)
PTSPERDEC	QUANT	1.00000E+001	Points/&decade
VAC	QUANT	2.50000E+001	AC &Voltage (mV rms)
AREA	QUANT	1.00000E-002	&Area (cm^2)
CONDIT	TWOPARAM	T	5.00000E+000	0.00000E+000	Conditionin&g	Time(s)	E(V)
DELAY	TWOPARAM	T	5.00000E+000	0.00000E+000	Init. De&lay	Time(s)	Stab.(mV/s)
SPEED	SELECTOR	1	&Optimize for:
ZGUESS	QUANT	1.00000E+005	E&stimated Z (ohms)
OCVCURVE	TABLE	19
	Pt	T	Vf	Vm	Ach	Over
	#	s	V vs. Ref.	V	V	bits
	0	0.258333	5.10762E-003	5.10762E-003	5.64699E-004	...........
	1	0.516667	5.10669E-003	5.05859E-003	5.63966E-004	...........
	2	0.775	5.10128E-003	5.03023E-003	5.59966E-004	...........
	3	1.03333	5.08742E-003	5.01787E-003	5.64032E-004	...........
	4	1.29167	5.06630E-003	5.01678E-003	5.58599E-004	...........
	5	1.55	5.04466E-003	5.01877E-003	5.66899E-004	...........
	6	1.80833	5.02925E-003	5.03866E-003	5.60232E-004	...........
	7	2.06667	5.02354E-003	5.06721E-003	5.55799E-004	...........
	8	2.325	5.02822E-003	5.07753E-003	5.57199E-004	...........
	9	2.58333	5.04122E-003	5.09469E-003	5.57032E-004	...........
	10	2.84167	5.05887E-003	5.13713E-003	5.57899E-004	...........
	11	3.1	5.07952E-003	5.16953E-003	5.58599E-004	...........
	12	3.35833	5.10442E-003	5.20837E-003	5.59032E-004	...........
	13	3.61667	5.13452E-003	5.25076E-003	5.56333E-004	...........
	14	3.875	5.16924E-003	5.29493E-003	5.51399E-004	...........
	15	4.13333	5.20754E-003	5.33577E-003	5.60066E-004	...........
	16	4.39167	5.24834E-003	5.38103E-003	5.59732E-004	...........
	17	4.65	5.29056E-003	5.42177E-003	5.59066E-004	...........
	18	4.90833	5.33342E-003	5.46720E-003	5.58499E-004	...........
EOC	QUANT	0.0053334	Open Circuit (V)
PSTATMODEL	IQUANT	4	Pstat Model
PSTATSECTION	LABEL	REF600-11020	Pstat Section
PSTATSERIALNO	LABEL	11020	Pstat Serial Number
CTRLMODE	IQUANT	1	Control Mode
IESTAB	IQUANT	0	I/E Stability
CASPEED	IQUANT	1	Control Amp Speed
CONVENTION	IQUANT	1	Current Convention
ICHRANGE	IQUANT	2	Ich Range
ICHRANGEMODE	TOGGLE	F	Ich Auto Range
ICHOFFSETENABLE	TOGGLE	T	Ich Offset Enable
ICHOFFSET	QUANT	0	Ich Offset (V)
ICHFILTER	IQUANT	3	Ich Filter
VCHRANGE	IQUANT	2	Vch Range
VCHRANGEMODE	TOGGLE	F	Vch Auto Range
VCHOFFSETENABLE	TOGGLE	T	Vch Offset Enable
VCHOFFSET	QUANT	0	Vch Offset (V)
VCHFILTER	IQUANT	3	Vch Filter
ACHRANGE	IQUANT	2	Ach Range
ACHOFFSETENABLE	TOGGLE	F	Ach Offset Enable
ACHOFFSET	QUANT	0	Ach Offset (V)
ACHFILTER	IQUANT	3	Ach Filter
IERANGELOWERLIMIT	IQUANT	1	I/E Range Lower Limit
IERANGEMODE	TOGGLE	F	I/E AutoRange
IERANGE	IQUANT	5	I/E Range
POSFEEDENABLE	TOGGLE	F	Positive Feedback IR Comp
POSFEEDRESISTANCE	QUANT	0	Positive Feedback Resistance (ohm)
ACHSELECT	IQUANT	0	Ach Select
CABLEID	IQUANT	14	Cable ID
DCCALDATE	LABEL	8/19/2019	DC Calibration Date
ACCALDATE	LABEL	8/19/2019	AC Calibration Date
THERMOSELECT	IQUANT	1	Thermo Select
FRAMEWORKVERSION	QUANT	6.33	Framework Version
INSTRUMENTVERSION	LABEL	3.50	Instrument Version
ZCURVE	TABLE
	Pt	Time	Freq	Zreal	Zimag	Zsig	Zmod	Zphz	Idc	Vdc	IERange
	#	s	Hz	ohm	ohm	V	ohm	°	A	V	#
	0	1	1000078	2040.292	-931.8873	1	2243.035	-24.54818	-1.802099E-007	0.0074628	8
	1	3	794390.6	2204.847	-836.1414	1	2358.068	-20.76817	1.483317E-006	0.0068736	8
	2	4	630984.4	2325.771	-733.3732	1	2438.656	-17.50135	2.702678E-006	0.0063595	8
	3	5	501234.4	2417.59	-634.0287	1	2499.346	-14.69525	1.078085E-006	0.0067877	8
	4	7	398109.4	2490.667	-550.0487	1	2550.681	-12.45353	9.959188E-007	0.0065515	8
	5	8	316265.6	2537.944	-469.3019	1	2580.969	-10.47647	-1.679039E-007	0.0069358	8
	6	9	251203.1	2577.021	-405.9918	1	2608.806	-8.952966	1.569007E-006	0.0064735	8
	7	11	199546.9	2615.783	-359.2244	1	2640.333	-7.819494	-2.44346E-007	0.006785	8
	8	12	158578.1	2645.226	-323.9429	1	2664.988	-6.981861	2.536095E-006	0.0062544	8
	9	13	125953.1	2683.633	-252.5155	1	2695.487	-5.3754	2.897843E-007	0.0063184	7
	10	15	100078.1	2699.102	-241.7835	1	2709.91	-5.118849	-5.417072E-008	0.0069476	7
	11	16	79453.13	2719.409	-239.2304	1	2729.911	-5.027452	-1.588131E-008	0.0068006	7
	12	18	63140.62	2741.688	-242.6385	1	2752.403	-5.057483	3.651345E-008	0.0066463	7
	13	19	50203.12	2764.614	-250.414	1	2775.931	-5.175631	-3.695741E-008	0.0068417	7
	14	20	39890.62	2789.546	-262.4342	1	2801.864	-5.374438	-1.259313E-008	0.0068901	7
	15	22	31640.63	2816.263	-280.2856	1	2830.176	-5.683587	6.14373E-008	0.0066638	7
	16	23	25171.88	2846.083	-302.3517	1	2862.098	-6.064033	-3.919989E-008	0.0067875	7
	17	24	20015.62	2879.42	-332.8577	1	2898.595	-6.594058	7.347488E-008	0.0067265	7
	18	26	15890.62	2912.213	-366.3575	1	2935.167	-7.170164	-2.327686E-009	0.0067799	7
	19	27	12609.37	2951.134	-408.8317	1	2979.318	-7.887199	-3.791537E-008	0.0068064	7
	20	28	10078.13	2991.988	-456.6435	1	3026.635	-8.677637	-2.312268E-008	0.0067548	7
	21	30	8015.625	3034.47	-513.9789	1	3077.691	-9.61352	-3.631041E-008	0.0067765	7
	22	31	6328.125	3089.48	-585.5103	1	3144.473	-10.73128	-4.872305E-008	0.0069161	7
	23	33	5015.625	3145.092	-668.7642	1	3215.408	-12.00443	-3.757308E-008	0.0068067	7
	24	34	3984.375	3211.461	-762.9418	1	3300.842	-13.36393	-8.481624E-009	0.0068068	7
	25	35	3170.956	3268.903	-880.7225	1	3385.469	-15.07884	6.174513E-008	0.0066588	7
	26	37	2527.573	3337.744	-1017.333	1	3489.341	-16.95104	-8.136256E-009	0.006803	7
	27	38	1976.103	3419.681	-1198.312	1	3623.558	-19.31129	-2.238579E-009	0.0067761	7
	28	39	1577.524	3497.952	-1386.847	1	3762.846	-21.62703	-2.744669E-008	0.0067699	7
	29	41	1265.625	3582.8	-1634.122	1	3937.869	-24.51781	3.989998E-008	0.0066371	7
	30	42	998.264	3679.208	-1949.363	1	4163.723	-27.91608	-8.133861E-009	0.0067818	7
	31	43	796.875	3778.021	-2315.346	1	4431.058	-31.5019	7.299822E-008	0.0066152	7
	32	45	627.7902	3891.31	-2798.327	1	4793.008	-35.72075	6.428229E-008	0.006664	7
	33	46	505.5147	4006.126	-3343.232	1	5217.877	-39.84601	-4.770105E-008	0.0069197	7
	34	48	397.9953	4153.071	-4084.136	1	5824.789	-44.52052	4.807406E-009	0.0067852	7
	35	49	315.5048	4321.395	-4985.354	1	6597.592	-49.08067	4.234256E-009	0.0067925	7
	36	50	252.4038	4516.721	-6054.111	1	7553.346	-53.27491	3.918261E-009	0.006786	7
	37	52	198.6229	4777.147	-7475.749	1	8871.75	-57.42064	4.292903E-009	0.0067827	7
	38	53	158.3615	5090.001	-9138.295	1	10460.24	-60.88233	2.551795E-011	0.0067215	6
	39	54	125.558	5495.073	-11236.23	1	12507.95	-63.93909	7.439449E-010	0.0067218	6
	40	56	100.4464	5996.607	-13694.75	1	14950.1	-66.35253	1.153618E-009	0.0067185	6
	41	57	79.00281	6689.46	-16977.11	1	18247.49	-68.49416	1.110153E-009	0.0067183	6
	42	59	63.3446	7411.962	-20653.32	1	21943.04	-70.2582	-1.301356E-011	0.0067207	6
	43	60	49.86702	8735.236	-25394.37	1	26854.76	-71.01764	-4.71877E-011	0.0067159	6
	44	61	39.72458	10118.95	-31012.17	1	32621.27	-71.92904	2.846816E-010	0.0067177	6
	45	63	31.6723	11932.55	-37809.93	1	39648.16	-72.48467	-3.213934E-010	0.0067175	6
	46	64	24.93351	14445.84	-46336.19	1	48535.81	-72.68453	5.563997E-010	0.0067195	6
	47	66	19.86229	17581.89	-56162.22	1	58849.96	-72.61699	2.407345E-010	0.0067221	6
	48	67	15.83615	21687.22	-67530.24	1	70927.21	-72.19566	-5.359292E-010	0.0067246	6
	49	68	12.40079	26874.2	-82600.62	1	86862.45	-71.97765	-5.607694E-010	0.0067273	6
	50	70	9.93114	32980.43	-99218.3	1	104556.1	-71.61305	3.900951E-010	0.0067226	6
	51	71	7.944915	40690.62	-118497.4	1	125289.1	-71.04813	-4.14544E-010	0.0067335	5
	52	73	6.317385	50953.95	-141782.6	1	150660.5	-70.23253	-3.471783E-010	0.0067252	5
	53	75	5.008013	63702.47	-169543.2	1	181115.8	-69.4073	-3.143335E-010	0.0067209	5
	54	78	3.945707	79873.72	-202782.1	1	217945.9	-68.50105	3.868293E-011	0.0067332	5
	55	80	3.158693	98339.4	-238912.5	1	258359.9	-67.62732	-2.096953E-010	0.0067159	5
	56	84	2.504006	121668.1	-282469	1	307557.9	-66.69696	1.371548E-010	0.0067331	5
	57	86	1.998082	148690.5	-330786.2	1	362668.5	-65.79578	1.909339E-010	0.0067239	5
	58	89	1.584686	183276.8	-388600.7	1	429652	-64.74989	-1.263465E-010	0.0066767	5
	59	93	1.266892	220706.7	-451151.6	1	502244.1	-63.93178	9.784769E-011	0.0067142	5
	60	97	0.999041	268886.5	-528961	1	593379.9	-63.05442	-3.237831E-010	0.006717	5
