EXPLAIN
TAG	EISPOT
TITLE	LABEL	Potentiostatic IDE	Test &Identifier
DATE	LABEL	9/14/2019	Date
TIME	LABEL	12:45:46	Time
NOTES	NOTES	1	&Notes...
	
PSTAT	PSTAT	REF600-11020	Potentiostat
VDC	POTEN	0.00000E+000	T	DC &Voltage (V)
FREQINIT	QUANT	1.00000E+006	Initial Fre&q. (Hz)
FREQFINAL	QUANT	1.00000E+000	Final Fre&q. (Hz)
PTSPERDEC	QUANT	1.00000E+001	Points/&decade
VAC	QUANT	2.50000E+001	AC &Voltage (mV rms)
AREA	QUANT	1.00000E-002	&Area (cm^2)
CONDIT	TWOPARAM	T	5.00000E+000	0.00000E+000	Conditionin&g	Time(s)	E(V)
DELAY	TWOPARAM	T	5.00000E+000	0.00000E+000	Init. De&lay	Time(s)	Stab.(mV/s)
SPEED	SELECTOR	1	&Optimize for:
ZGUESS	QUANT	1.00000E+007	E&stimated Z (ohms)
OCVCURVE	TABLE	19
	Pt	T	Vf	Vm	Ach	Over
	#	s	V vs. Ref.	V	V	bits
	0	0.258333	4.05199E-003	4.05199E-003	5.55899E-004	...........
	1	0.516667	4.04676E-003	3.77827E-003	5.57499E-004	...........
	2	0.775	4.01509E-003	3.54191E-003	5.57632E-004	...........
	3	1.03333	3.92731E-003	3.33263E-003	5.56466E-004	...........
	4	1.29167	3.77492E-003	3.15107E-003	5.58533E-004	...........
	5	1.55	3.58062E-003	2.97876E-003	5.60832E-004	...........
	6	1.80833	3.37602E-003	2.81557E-003	5.56166E-004	...........
	7	2.06667	3.18062E-003	2.64765E-003	5.56966E-004	...........
	8	2.325	2.99992E-003	2.53741E-003	5.54699E-004	...........
	9	2.58333	2.83443E-003	2.41907E-003	5.59232E-004	...........
	10	2.84167	2.68487E-003	2.28766E-003	5.60932E-004	...........
	11	3.1	2.54954E-003	2.17493E-003	5.63732E-004	...........
	12	3.35833	2.42376E-003	2.07374E-003	5.56933E-004	...........
	13	3.61667	2.30456E-003	1.97867E-003	5.63932E-004	...........
	14	3.875	2.19218E-003	1.88823E-003	5.59132E-004	...........
	15	4.13333	2.08750E-003	1.80723E-003	5.63766E-004	...........
	16	4.39167	1.99030E-003	1.71891E-003	5.60432E-004	...........
	17	4.65	1.89880E-003	1.61821E-003	5.57199E-004	...........
	18	4.90833	1.81000E-003	1.54607E-003	5.61132E-004	...........
EOC	QUANT	0.00181	Open Circuit (V)
PSTATMODEL	IQUANT	4	Pstat Model
PSTATSECTION	LABEL	REF600-11020	Pstat Section
PSTATSERIALNO	LABEL	11020	Pstat Serial Number
CTRLMODE	IQUANT	1	Control Mode
IESTAB	IQUANT	0	I/E Stability
CASPEED	IQUANT	1	Control Amp Speed
CONVENTION	IQUANT	1	Current Convention
ICHRANGE	IQUANT	2	Ich Range
ICHRANGEMODE	TOGGLE	F	Ich Auto Range
ICHOFFSETENABLE	TOGGLE	T	Ich Offset Enable
ICHOFFSET	QUANT	0	Ich Offset (V)
ICHFILTER	IQUANT	3	Ich Filter
VCHRANGE	IQUANT	2	Vch Range
VCHRANGEMODE	TOGGLE	F	Vch Auto Range
VCHOFFSETENABLE	TOGGLE	T	Vch Offset Enable
VCHOFFSET	QUANT	0	Vch Offset (V)
VCHFILTER	IQUANT	3	Vch Filter
ACHRANGE	IQUANT	2	Ach Range
ACHOFFSETENABLE	TOGGLE	F	Ach Offset Enable
ACHOFFSET	QUANT	0	Ach Offset (V)
ACHFILTER	IQUANT	3	Ach Filter
IERANGELOWERLIMIT	IQUANT	1	I/E Range Lower Limit
IERANGEMODE	TOGGLE	F	I/E AutoRange
IERANGE	IQUANT	2	I/E Range
POSFEEDENABLE	TOGGLE	F	Positive Feedback IR Comp
POSFEEDRESISTANCE	QUANT	0	Positive Feedback Resistance (ohm)
ACHSELECT	IQUANT	0	Ach Select
CABLEID	IQUANT	14	Cable ID
DCCALDATE	LABEL	8/19/2019	DC Calibration Date
ACCALDATE	LABEL	8/19/2019	AC Calibration Date
THERMOSELECT	IQUANT	1	Thermo Select
FRAMEWORKVERSION	QUANT	6.33	Framework Version
INSTRUMENTVERSION	LABEL	3.50	Instrument Version
ZCURVE	TABLE
	Pt	Time	Freq	Zreal	Zimag	Zsig	Zmod	Zphz	Idc	Vdc	IERange
	#	s	Hz	ohm	ohm	V	ohm	°	A	V	#
	0	2	1000078	2398.378	-2227.03	1	3272.901	-42.87846	7.028818E-006	0.0033297	8
	1	4	794390.6	2886.399	-2237.455	1	3652.055	-37.78183	-2.032996E-006	0.0035512	8
	2	5	630984.4	3346.475	-2147.918	1	3976.486	-32.69417	-3.139357E-008	0.0035881	8
	3	6	501234.4	3725.467	-1985.287	1	4221.429	-28.05298	1.310522E-006	0.0032751	8
	4	8	398109.4	4081.607	-1809.921	1	4464.9	-23.91409	6.986583E-007	0.003286	8
	5	9	316265.6	4336.967	-1582.228	1	4616.571	-20.04316	7.28097E-008	0.003354	8
	6	11	251203.1	4588.66	-1403.744	1	4798.572	-17.0097	2.483628E-006	0.0029846	8
	7	12	199546.9	4709.354	-1228.605	1	4866.979	-14.62176	1.673259E-007	0.0033245	8
	8	14	158578.1	4833.552	-1045.554	1	4945.342	-12.20569	3.05259E-006	0.0029632	8
	9	15	125953.1	4975.019	-872.553	1	5050.956	-9.94775	7.027895E-008	0.0031024	7
	10	17	100078.1	5034.56	-791.1666	1	5096.345	-8.930829	-5.066707E-008	0.0034169	7
	11	18	79453.13	5098.405	-733.5677	1	5150.909	-8.187629	4.50848E-010	0.0034298	7
	12	20	63140.62	5156.326	-696.8522	1	5203.201	-7.696612	-5.055143E-008	0.0034067	7
	13	21	50203.12	5210.796	-677.5865	1	5254.666	-7.408891	4.985288E-008	0.0032474	7
	14	22	39890.62	5267.796	-678.7037	1	5311.338	-7.341553	-1.660306E-008	0.00332	7
	15	24	31640.63	5323.702	-696.1237	1	5369.021	-7.449691	-1.732346E-008	0.0034313	7
	16	25	25171.88	5384.15	-731.4771	1	5433.611	-7.736693	4.852927E-008	0.0032161	7
	17	26	20015.62	5447.763	-783.8417	1	5503.865	-8.187709	1.456838E-008	0.0032603	7
	18	28	15890.62	5512.278	-860.2737	1	5579.003	-8.870313	-1.66265E-008	0.0034282	7
	19	29	12609.37	5596.578	-949.6545	1	5676.577	-9.6305	1.342133E-008	0.0033335	7
	20	30	10078.13	5682.139	-1059.822	1	5780.132	-10.5653	-3.538532E-008	0.0034385	7
	21	32	8015.625	5772.441	-1200.262	1	5895.906	-11.74612	-1.684528E-008	0.0033228	7
	22	33	6328.125	5879.981	-1372.688	1	6038.083	-13.14042	5.408859E-008	0.0032398	7
	23	34	5015.625	5995.408	-1579.905	1	6200.082	-14.76292	-1.82958E-008	0.0033194	7
	24	36	3984.375	6125.768	-1826.206	1	6392.188	-16.60031	-1.915421E-008	0.003321	7
	25	37	3170.956	6269.039	-2122.217	1	6618.508	-18.70217	1.024814E-007	0.0031783	7
	26	38	2527.573	6426.134	-2468.678	1	6884.008	-21.01489	-3.375011E-008	0.0033552	7
	27	40	1976.103	6617.165	-2928.439	1	7236.202	-23.87188	1.091225E-009	0.003427	7
	28	41	1577.524	6816.963	-3440.34	1	7635.897	-26.77886	1.994395E-008	0.0033294	7
	29	42	1265.625	6991.199	-4047.757	1	8078.44	-30.06994	-3.327769E-008	0.0033844	7
	30	44	998.264	7285.311	-4832.715	1	8742.476	-33.55833	3.108037E-008	0.0033684	7
	31	45	796.875	7560.485	-5734.442	1	9489.191	-37.17942	1.495671E-008	0.0033343	7
	32	46	627.7902	7898.997	-6917.04	1	10499.5	-41.20817	3.752451E-009	0.003348	6
	33	48	505.5147	8242.298	-8223.633	1	11643.18	-44.93505	-9.744237E-010	0.0033884	6
	34	49	397.9953	8683.778	-9992.06	1	13238.18	-49.00715	5.338601E-010	0.0033069	6
	35	50	315.5048	9181.104	-12107.95	1	15195.23	-52.82802	1.856933E-009	0.0033042	6
	36	52	252.4038	9742.95	-14593.23	1	17546.72	-56.27155	1.614977E-009	0.0033018	6
	37	53	198.6229	10469.04	-17882.7	1	20721.77	-59.65408	1.192842E-009	0.0033007	6
	38	54	158.3615	11287.74	-21702.84	1	24462.75	-62.52087	1.015183E-009	0.0032966	6
	39	56	125.558	12330.14	-26512.65	1	29239.58	-65.05846	6.477323E-010	0.0032984	6
	40	57	100.4464	13555.08	-32222.02	1	34957.1	-67.18459	1.262124E-010	0.0032995	6
	41	58	79.00281	15338.8	-39698.28	1	42558.57	-68.87424	8.576551E-011	0.0032957	6
	42	60	63.3446	17177.5	-47400.31	1	50416.82	-70.07988	1.076779E-009	0.0032939	6
	43	61	49.86702	19926.81	-59854.02	1	63083.92	-71.58619	1.422915E-009	0.0033012	6
	44	63	39.72458	23222.34	-72172.63	1	75816.66	-72.16385	1.029484E-009	0.0033046	6
	45	64	31.6723	27754.59	-87781.36	1	92064.56	-72.45416	6.887629E-010	0.0032983	6
	46	66	24.93351	33714.07	-107991.1	1	113131.5	-72.662	3.716281E-010	0.0033026	5
	47	67	19.86229	41566.65	-130837.7	1	137281.8	-72.37514	4.298365E-010	0.0032993	5
	48	68	15.83615	49913.05	-159438.6	1	167068.7	-72.617	1.58574E-009	0.003299	5
	49	70	12.40079	67460.91	-193021.3	1	204470.5	-70.73549	1.563616E-009	0.0032961	5
	50	71	9.93114	83175.08	-231141.9	1	245651.5	-70.20902	4.776515E-010	0.0032945	5
	51	73	7.944915	104186.6	-275465.3	1	294509.8	-69.28236	3.979168E-010	0.0033035	5
	52	75	6.317385	133372.2	-326902.4	1	353062.8	-67.80515	2.57761E-010	0.0033004	5
	53	77	5.008013	170720.3	-387360.6	1	423312.7	-66.21561	1.099177E-010	0.0032951	5
	54	79	3.945707	219263.6	-456502.5	1	506429.8	-64.34447	4.9109E-010	0.0033092	5
	55	82	3.158693	276311.6	-529013.8	1	596828	-62.42128	2.727493E-011	0.0032972	5
	56	85	2.504006	348232.7	-608439.2	1	701045.1	-60.21587	5.390163E-010	0.0033044	5
	57	88	1.998082	430086.3	-692788.9	1	815432.8	-58.16782	3.232245E-010	0.0033433	5
	58	91	1.584686	526731.3	-777118.3	1	938807.1	-55.87056	3.142641E-010	0.0033103	5
	59	95	1.266892	635682.1	-863354	1	1072134	-53.63602	2.640958E-011	0.0033418	4
	60	99	0.999041	757034.9	-957209	1	1220390	-51.66032	2.698458E-010	0.003278	4
