EXPLAIN
TAG	EISPOT
TITLE	LABEL	Potentiostatic IDE	Test &Identifier
DATE	LABEL	9/10/2019	Date
TIME	LABEL	10:05:01	Time
NOTES	NOTES	1	&Notes...
	
PSTAT	PSTAT	REF600-11020	Potentiostat
VDC	POTEN	0.00000E+000	T	DC &Voltage (V)
FREQINIT	QUANT	1.00000E+006	Initial Fre&q. (Hz)
FREQFINAL	QUANT	1.00000E+000	Final Fre&q. (Hz)
PTSPERDEC	QUANT	1.00000E+001	Points/&decade
VAC	QUANT	2.50000E+001	AC &Voltage (mV rms)
AREA	QUANT	1.00000E-002	&Area (cm^2)
CONDIT	TWOPARAM	T	5.00000E+000	0.00000E+000	Conditionin&g	Time(s)	E(V)
DELAY	TWOPARAM	T	5.00000E+000	0.00000E+000	Init. De&lay	Time(s)	Stab.(mV/s)
SPEED	SELECTOR	1	&Optimize for:
ZGUESS	QUANT	1.00000E+007	E&stimated Z (ohms)
OCVCURVE	TABLE	19
	Pt	T	Vf	Vm	Ach	Over
	#	s	V vs. Ref.	V	V	bits
	0	0.258333	4.82442E-003	4.82442E-003	4.74400E-004	...........
	1	0.516667	4.82180E-003	4.68737E-003	4.68501E-004	...........
	2	0.775	4.80590E-003	4.56672E-003	4.72867E-004	...........
	3	1.03333	4.76176E-003	4.46415E-003	4.72034E-004	...........
	4	1.29167	4.68504E-003	4.36651E-003	4.76034E-004	...........
	5	1.55	4.58706E-003	4.28665E-003	4.71234E-004	...........
	6	1.80833	4.48394E-003	4.20842E-003	4.72134E-004	...........
	7	2.06667	4.38647E-003	4.13834E-003	4.72867E-004	...........
	8	2.325	4.29842E-003	4.07377E-003	4.78500E-004	...........
	9	2.58333	4.21936E-003	4.01344E-003	4.73634E-004	...........
	10	2.84167	4.14761E-003	3.95446E-003	4.72667E-004	...........
	11	3.1	4.08152E-003	3.90016E-003	4.76034E-004	...........
	12	3.35833	4.01975E-003	3.84742E-003	4.68200E-004	...........
	13	3.61667	3.96144E-003	3.79850E-003	4.68001E-004	...........
	14	3.875	3.90611E-003	3.74771E-003	4.79734E-004	...........
	15	4.13333	3.85335E-003	3.70467E-003	4.76300E-004	...........
	16	4.39167	3.80289E-003	3.65921E-003	4.70700E-004	...........
	17	4.65	3.75464E-003	3.61711E-003	4.70234E-004	...........
	18	4.90833	3.70840E-003	3.57275E-003	4.74834E-004	...........
EOC	QUANT	0.0037084	Open Circuit (V)
PSTATMODEL	IQUANT	4	Pstat Model
PSTATSECTION	LABEL	REF600-11020	Pstat Section
PSTATSERIALNO	LABEL	11020	Pstat Serial Number
CTRLMODE	IQUANT	1	Control Mode
IESTAB	IQUANT	0	I/E Stability
CASPEED	IQUANT	1	Control Amp Speed
CONVENTION	IQUANT	1	Current Convention
ICHRANGE	IQUANT	2	Ich Range
ICHRANGEMODE	TOGGLE	F	Ich Auto Range
ICHOFFSETENABLE	TOGGLE	T	Ich Offset Enable
ICHOFFSET	QUANT	0	Ich Offset (V)
ICHFILTER	IQUANT	3	Ich Filter
VCHRANGE	IQUANT	2	Vch Range
VCHRANGEMODE	TOGGLE	F	Vch Auto Range
VCHOFFSETENABLE	TOGGLE	T	Vch Offset Enable
VCHOFFSET	QUANT	0	Vch Offset (V)
VCHFILTER	IQUANT	3	Vch Filter
ACHRANGE	IQUANT	2	Ach Range
ACHOFFSETENABLE	TOGGLE	F	Ach Offset Enable
ACHOFFSET	QUANT	0	Ach Offset (V)
ACHFILTER	IQUANT	3	Ach Filter
IERANGELOWERLIMIT	IQUANT	1	I/E Range Lower Limit
IERANGEMODE	TOGGLE	F	I/E AutoRange
IERANGE	IQUANT	2	I/E Range
POSFEEDENABLE	TOGGLE	F	Positive Feedback IR Comp
POSFEEDRESISTANCE	QUANT	0	Positive Feedback Resistance (ohm)
ACHSELECT	IQUANT	0	Ach Select
CABLEID	IQUANT	14	Cable ID
DCCALDATE	LABEL	8/19/2019	DC Calibration Date
ACCALDATE	LABEL	8/19/2019	AC Calibration Date
THERMOSELECT	IQUANT	1	Thermo Select
FRAMEWORKVERSION	QUANT	6.33	Framework Version
INSTRUMENTVERSION	LABEL	3.50	Instrument Version
ZCURVE	TABLE
	Pt	Time	Freq	Zreal	Zimag	Zsig	Zmod	Zphz	Idc	Vdc	IERange
	#	s	Hz	ohm	ohm	V	ohm	°	A	V	#
	0	2	1000078	2640.281	-1682.96	1	3131.044	-32.51413	-1.525767E-006	0.0063689	8
	1	3	794390.6	2961.484	-1588.235	1	3360.488	-28.20454	-3.116294E-007	0.0061366	8
	2	4	630984.4	3255.825	-1450.406	1	3564.278	-24.01203	-6.174807E-007	0.0059303	8
	3	6	501234.4	3480.3	-1289.734	1	3711.59	-20.33376	3.479787E-007	0.0055182	8
	4	7	398109.4	3662.705	-1116.074	1	3828.972	-16.94667	2.755023E-006	0.0048532	8
	5	8	316265.6	3795.562	-984.276	1	3921.109	-14.53787	-7.437291E-007	0.0055106	8
	6	10	251203.1	3909.905	-846.2397	1	4000.435	-12.21243	-1.623398E-006	0.005732	8
	7	11	199546.9	3990.025	-709.3122	1	4052.583	-10.08024	3.567091E-006	0.0047711	8
	8	12	158578.1	4039.042	-637.1036	1	4088.981	-8.96377	-6.100777E-007	0.0054823	8
	9	14	125953.1	4113.167	-524.9079	1	4146.525	-7.272575	-5.433927E-007	0.006879	7
	10	15	100078.1	4141.175	-465.6745	1	4167.275	-6.415949	-6.892348E-009	0.0053937	7
	11	16	79453.13	4177.31	-433.149	1	4199.707	-5.919895	-6.718858E-009	0.0053853	7
	12	18	63140.62	4210.918	-413.8967	1	4231.211	-5.613645	-5.604698E-009	0.005386	7
	13	19	50203.12	4241.668	-403.0427	1	4260.773	-5.42794	-1.916746E-008	0.0053316	7
	14	20	39890.62	4271.427	-402.9308	1	4290.389	-5.38886	-4.423183E-008	0.0054139	7
	15	22	31640.63	4307.113	-417.1814	1	4327.27	-5.532338	-2.730917E-008	0.0053876	7
	16	23	25171.88	4339.345	-439.2987	1	4361.524	-5.780712	-3.130192E-008	0.0053543	7
	17	24	20015.62	4373.9	-474.9615	1	4399.613	-6.197461	-1.848612E-008	0.0053237	7
	18	25	15890.62	4413.438	-521.8864	1	4444.187	-6.743876	-4.422245E-008	0.0054099	7
	19	27	12609.37	4455.802	-586.394	1	4494.222	-7.497176	5.471838E-009	0.0054109	7
	20	28	10078.13	4500.965	-659.6631	1	4549.049	-8.33793	-4.038285E-008	0.0054801	7
	21	29	8015.625	4552.991	-757.869	1	4615.635	-9.450533	3.553999E-008	0.0052348	7
	22	31	6328.125	4613.454	-878.9876	1	4696.443	-10.78711	-4.222531E-008	0.0054008	7
	23	32	5015.625	4680.682	-1024.92	1	4791.58	-12.35101	6.113411E-008	0.0052408	7
	24	33	3984.375	4756.605	-1201.574	1	4906.024	-14.177	6.284839E-008	0.0053005	7
	25	35	3170.956	4842.748	-1409.34	1	5043.654	-16.22609	-2.333367E-008	0.0053405	7
	26	36	2527.573	4943.147	-1659.953	1	5214.417	-18.56251	1.57545E-008	0.0052638	7
	27	37	1976.103	5066.412	-1989.078	1	5442.881	-21.43502	3.375379E-008	0.0052311	7
	28	39	1577.524	5197.295	-2357.096	1	5706.819	-24.39541	-2.276014E-008	0.0053787	7
	29	40	1265.625	5346.161	-2785.097	1	6028.117	-27.51738	-4.438966E-008	0.0054851	7
	30	41	998.264	5525.345	-3338.665	1	6455.704	-31.14228	9.056866E-008	0.0052177	7
	31	43	796.875	5729.648	-3975.438	1	6973.734	-34.75432	-2.427912E-008	0.0053367	7
	32	44	627.7902	5972.101	-4797.328	1	7660.31	-38.77456	-5.041075E-009	0.0053702	7
	33	45	505.5147	6230.219	-5700.682	1	8444.726	-42.45867	6.609274E-008	0.0052058	7
	34	47	397.9953	6557.811	-6917.775	1	9532.08	-46.53014	5.006438E-009	0.0053599	7
	35	48	315.5048	6937.097	-8362.961	1	10865.65	-50.32421	9.334825E-010	0.0052925	6
	36	49	252.4038	7364.68	-10055.42	1	12463.95	-53.78063	7.908199E-010	0.0052915	6
	37	51	198.6229	7915.504	-12279.57	1	14609.69	-57.19386	1.190902E-009	0.0052929	6
	38	52	158.3615	8545.38	-14855.25	1	17137.74	-60.09064	6.35915E-010	0.0052917	6
	39	53	125.558	9330.985	-18079.9	1	20345.76	-62.70187	9.189824E-010	0.0052967	6
	40	55	100.4464	10251.25	-21850.99	1	24136.15	-64.86668	1.35697E-009	0.0052903	6
	41	56	79.00281	11517.49	-26820.6	1	29188.99	-66.76001	1.186688E-009	0.0052882	6
	42	57	63.3446	12769.79	-32396.72	1	34822.62	-68.48717	9.677011E-010	0.0052922	6
	43	59	49.86702	14979.7	-39679	1	42412.43	-69.31737	1.185776E-009	0.0052857	6
	44	60	39.72458	17168.58	-48115.9	1	51087.18	-70.36273	8.232288E-010	0.0052923	6
	45	61	31.6723	20207.99	-58388.36	1	61786.43	-70.90946	1.456961E-009	0.0052914	6
	46	63	24.93351	24104.33	-71465.16	1	75420.73	-71.36137	5.701307E-010	0.0052928	6
	47	64	19.86229	28928.13	-86546.35	1	91252.98	-71.51778	3.178709E-010	0.0052889	6
	48	66	15.83615	35228.99	-104790.9	1	110554.1	-71.41819	1.428472E-009	0.005296	5
	49	67	12.40079	44653.11	-127834.8	1	135409.1	-70.74553	-5.993251E-011	0.0053071	5
	50	68	9.93114	54949.55	-152802.3	1	162382.3	-70.2208	1.025667E-009	0.0052971	5
	51	70	7.944915	68964.16	-182322.2	1	194929.3	-69.28065	9.853186E-010	0.0052973	5
	52	72	6.317385	86982.38	-217223.4	1	233991.3	-68.17744	8.428658E-010	0.0052885	5
	53	74	5.008013	110993.3	-258269.8	1	281110	-66.74405	1.818706E-010	0.0052922	5
	54	76	3.945707	141868.5	-305006.3	1	336386	-65.05531	5.671802E-010	0.0052964	5
	55	79	3.158693	177903.8	-354193.5	1	396362	-63.3306	1.124991E-010	0.0052949	5
	56	82	2.504006	222990.2	-409138	1	465959.8	-61.40854	3.556825E-010	0.0052797	5
	57	85	1.998082	273145.7	-467216.4	1	541202.1	-59.68844	-1.088875E-010	0.0052954	5
	58	88	1.584686	334521.8	-529067.5	1	625953.1	-57.69542	1.888843E-010	0.0053445	5
	59	91	1.266892	398291.6	-595782.6	1	716654.1	-56.23655	-6.270471E-011	0.0052711	5
	60	96	0.999041	473353.4	-669075	1	819588.2	-54.72157	3.873117E-010	0.0053271	5
