EXPLAIN
TAG	EISPOT
TITLE	LABEL	Potentiostatic EIS	Test &Identifier
DATE	LABEL	9/20/2019	Date
TIME	LABEL	11:54:40	Time
NOTES	NOTES	1	&Notes...
	
PSTAT	PSTAT	REF600-11020	Potentiostat
VDC	POTEN	0.00000E+000	T	DC &Voltage (V)
FREQINIT	QUANT	1.00000E+006	Initial Fre&q. (Hz)
FREQFINAL	QUANT	1.00000E+000	Final Fre&q. (Hz)
PTSPERDEC	QUANT	1.00000E+001	Points/&decade
VAC	QUANT	2.50000E+001	AC &Voltage (mV rms)
AREA	QUANT	1.00000E-002	&Area (cm^2)
CONDIT	TWOPARAM	T	5.00000E+000	0.00000E+000	Conditionin&g	Time(s)	E(V)
DELAY	TWOPARAM	T	5.00000E+000	0.00000E+000	Init. De&lay	Time(s)	Stab.(mV/s)
SPEED	SELECTOR	1	&Optimize for:
ZGUESS	QUANT	1.00000E+004	E&stimated Z (ohms)
OCVCURVE	TABLE	19
	Pt	T	Vf	Vm	Ach	Over
	#	s	V vs. Ref.	V	V	bits
	0	0.258333	1.34052E-002	1.34052E-002	5.34433E-004	...........
	1	0.516667	1.34053E-002	1.34153E-002	5.35999E-004	...........
	2	0.775	1.34070E-002	1.34468E-002	5.41799E-004	...........
	3	1.03333	1.34132E-002	1.34905E-002	5.46266E-004	...........
	4	1.29167	1.34286E-002	1.35605E-002	5.30833E-004	...........
	5	1.55	1.34576E-002	1.36360E-002	5.38533E-004	...........
	6	1.80833	1.35026E-002	1.37221E-002	5.46266E-004	...........
	7	2.06667	1.35631E-002	1.38163E-002	5.41033E-004	...........
	8	2.325	1.36367E-002	1.39153E-002	5.30900E-004	...........
	9	2.58333	1.37201E-002	1.39915E-002	5.33666E-004	...........
	10	2.84167	1.38088E-002	1.40732E-002	5.39466E-004	...........
	11	3.1	1.38977E-002	1.41548E-002	5.47199E-004	...........
	12	3.35833	1.39840E-002	1.42464E-002	5.34933E-004	...........
	13	3.61667	1.40685E-002	1.43398E-002	5.39999E-004	...........
	14	3.875	1.41538E-002	1.44245E-002	5.49866E-004	...........
	15	4.13333	1.42409E-002	1.45096E-002	5.45166E-004	...........
	16	4.39167	1.43289E-002	1.45941E-002	5.38366E-004	...........
	17	4.65	1.44163E-002	1.46773E-002	5.38133E-004	...........
	18	4.90833	1.45021E-002	1.47559E-002	5.44299E-004	...........
EOC	QUANT	0.0145021	Open Circuit (V)
PSTATMODEL	IQUANT	4	Pstat Model
PSTATSECTION	LABEL	REF600-11020	Pstat Section
PSTATSERIALNO	LABEL	11020	Pstat Serial Number
CTRLMODE	IQUANT	1	Control Mode
IESTAB	IQUANT	0	I/E Stability
CASPEED	IQUANT	1	Control Amp Speed
CONVENTION	IQUANT	1	Current Convention
ICHRANGE	IQUANT	2	Ich Range
ICHRANGEMODE	TOGGLE	F	Ich Auto Range
ICHOFFSETENABLE	TOGGLE	T	Ich Offset Enable
ICHOFFSET	QUANT	0	Ich Offset (V)
ICHFILTER	IQUANT	3	Ich Filter
VCHRANGE	IQUANT	2	Vch Range
VCHRANGEMODE	TOGGLE	F	Vch Auto Range
VCHOFFSETENABLE	TOGGLE	T	Vch Offset Enable
VCHOFFSET	QUANT	0	Vch Offset (V)
VCHFILTER	IQUANT	3	Vch Filter
ACHRANGE	IQUANT	2	Ach Range
ACHOFFSETENABLE	TOGGLE	F	Ach Offset Enable
ACHOFFSET	QUANT	0	Ach Offset (V)
ACHFILTER	IQUANT	3	Ach Filter
IERANGELOWERLIMIT	IQUANT	1	I/E Range Lower Limit
IERANGEMODE	TOGGLE	F	I/E AutoRange
IERANGE	IQUANT	6	I/E Range
POSFEEDENABLE	TOGGLE	F	Positive Feedback IR Comp
POSFEEDRESISTANCE	QUANT	0	Positive Feedback Resistance (ohm)
ACHSELECT	IQUANT	0	Ach Select
CABLEID	IQUANT	14	Cable ID
DCCALDATE	LABEL	8/19/2019	DC Calibration Date
ACCALDATE	LABEL	8/19/2019	AC Calibration Date
THERMOSELECT	IQUANT	1	Thermo Select
FRAMEWORKVERSION	QUANT	6.33	Framework Version
INSTRUMENTVERSION	LABEL	3.50	Instrument Version
ZCURVE	TABLE
	Pt	Time	Freq	Zreal	Zimag	Zsig	Zmod	Zphz	Idc	Vdc	IERange
	#	s	Hz	ohm	ohm	V	ohm	°	A	V	#
	0	2	1000078	2563.115	-1987.739	1	3243.557	-37.79418	4.720363E-006	0.0155259	8
	1	3	794390.6	2942.903	-1941.086	1	3525.407	-33.40813	-5.046696E-007	0.0165767	8
	2	5	630984.4	3307.773	-1888.617	1	3808.968	-29.72478	-4.874991E-007	0.0166128	8
	3	6	501234.4	3660.971	-1799.448	1	4079.305	-26.17513	6.598881E-008	0.0163314	8
	4	7	398109.4	3966.235	-1614.282	1	4282.163	-22.14662	-4.849091E-006	0.0173065	8
	5	9	316265.6	4193.217	-1500.337	1	4453.547	-19.68726	-3.723399E-007	0.016434	8
	6	10	251203.1	4405.958	-1363.28	1	4612.05	-17.19297	-2.172356E-007	0.0160545	8
	7	12	199546.9	4574.211	-1197.798	1	4728.438	-14.67394	-1.802145E-008	0.0162119	8
	8	13	158578.1	4688.681	-1084.549	1	4812.481	-13.02415	-2.474112E-007	0.0160605	8
	9	14	125953.1	4839.749	-920.3975	1	4926.49	-10.76762	1.517296E-006	0.0133293	7
	10	16	100078.1	4919.209	-847.691	1	4991.713	-9.77733	-1.301505E-008	0.0160388	7
	11	17	79453.13	4998.828	-799.8134	1	5062.408	-9.090288	-1.72172E-008	0.0161331	7
	12	18	63140.62	5071.822	-770.4758	1	5130.011	-8.637932	4.328167E-008	0.0160252	7
	13	20	50203.12	5144.769	-760.171	1	5200.625	-8.404987	-5.669289E-008	0.0162477	7
	14	21	39890.62	5211.241	-766.478	1	5267.307	-8.367167	-3.952493E-008	0.0160931	7
	15	22	31640.63	5286.218	-789.7698	1	5344.889	-8.497235	-2.124586E-008	0.0160414	7
	16	24	25171.88	5365.239	-830.8679	1	5429.192	-8.802973	1.438203E-007	0.0158585	7
	17	25	20015.62	5449.088	-887.8906	1	5520.952	-9.254612	8.996617E-008	0.015883	7
	18	26	15890.62	5541.673	-963.039	1	5624.729	-9.85848	1.428671E-007	0.0158588	7
	19	28	12609.37	5643.949	-1055.929	1	5741.876	-10.59698	8.941764E-008	0.0158897	7
	20	29	10078.13	5757.056	-1165.591	1	5873.865	-11.44557	-1.612799E-008	0.0161219	7
	21	31	8015.625	5883.939	-1295.538	1	6024.879	-12.41737	7.449373E-008	0.0159465	7
	22	32	6328.125	6028.03	-1454.015	1	6200.912	-13.56121	-3.852856E-008	0.0161063	7
	23	33	5015.625	6192.91	-1633.96	1	6404.838	-14.78031	9.269213E-008	0.0160128	7
	24	35	3984.375	6375.322	-1838.353	1	6635.079	-16.08515	4.416628E-008	0.0160237	7
	25	36	3170.956	6579.839	-2072.696	1	6898.576	-17.48479	-3.321925E-008	0.0160778	7
	26	37	2527.573	6807.159	-2334.766	1	7196.426	-18.93129	-6.663293E-009	0.0161089	7
	27	39	1976.103	7078.684	-2651.053	1	7558.826	-20.53154	9.27109E-008	0.0160199	7
	28	40	1577.524	7350.372	-2983.799	1	7932.907	-22.09413	9.142289E-008	0.0158844	7
	29	41	1265.625	7615.597	-3353.676	1	8321.326	-23.76723	-3.128477E-008	0.0160778	7
	30	43	998.264	7926.742	-3818.488	1	8798.527	-25.72115	-4.903058E-008	0.0160908	7
	31	44	796.875	8204.227	-4348.562	1	9285.436	-27.92534	4.567387E-008	0.0160174	7
	32	46	627.7902	8500.898	-5037.275	1	9881.27	-30.6492	1.926849E-008	0.0156735	6
	33	47	505.5147	8763.093	-5832.233	1	10526.48	-33.64555	-3.704136E-009	0.015957	6
	34	48	397.9953	9051.886	-6936.929	1	11404.28	-37.46482	9.871859E-010	0.0160253	6
	35	50	315.5048	9347.944	-8301.129	1	12501.71	-41.60561	2.991959E-010	0.0160301	6
	36	51	252.4038	9663.43	-9950.48	1	13870.61	-45.83848	1.4351E-010	0.0160315	6
	37	52	198.6229	10058.26	-12177.99	1	15794.68	-50.4454	6.347709E-010	0.0160259	6
	38	54	158.3615	10511.13	-14811.9	1	18162.5	-54.63895	1.914376E-010	0.0160245	6
	39	55	125.558	11089.47	-18169.23	1	21286.08	-58.60247	1.046942E-009	0.0160235	6
	40	56	100.4464	11784.51	-22167.84	1	25105.54	-62.00471	2.1687E-010	0.0160236	6
	41	58	79.00281	12792.2	-27495.21	1	30325.36	-65.04971	1.534844E-010	0.0160189	6
	42	59	63.3446	14122.13	-33667.46	1	36509.35	-67.24393	7.023545E-010	0.0160194	6
	43	61	49.86702	15469.24	-41339.33	1	44138.84	-69.48407	8.228426E-010	0.016022	6
	44	62	39.72458	17668.48	-50635.95	1	53629.97	-70.76451	8.408101E-010	0.0160255	6
	45	63	31.6723	20567.77	-61794.09	1	65127.12	-71.59031	9.74979E-010	0.0160188	6
	46	65	24.93351	24141.32	-76195.38	1	79928.34	-72.42001	7.719372E-010	0.0160234	6
	47	66	19.86229	28604.59	-92638.13	1	96953.8	-72.84048	9.555693E-010	0.0160277	6
	48	67	15.83615	34176.04	-113031.7	1	118085.4	-73.1769	-8.688788E-010	0.0160294	5
	49	69	12.40079	42630.28	-138650.3	1	145056	-72.9091	-2.311638E-010	0.0160341	5
	50	70	9.93114	51732.75	-166188.1	1	174053.9	-72.70914	2.938292E-010	0.0160265	5
	51	72	7.944915	63461.53	-199442	1	209295.2	-72.34917	1.466158E-010	0.016028	5
	52	74	6.317385	78028.88	-239613.7	1	251998.4	-71.96244	1.261928E-010	0.0160157	5
	53	76	5.008013	96488	-288493.8	1	304201.6	-71.50726	7.762119E-011	0.0160279	5
	54	78	3.945707	120080.5	-347928.3	1	368067.2	-70.9589	1.357067E-010	0.0160219	5
	55	81	3.158693	147395.5	-413882.9	1	439345.5	-70.39774	1.705966E-010	0.0160206	5
	56	84	2.504006	181712.8	-494714.4	1	527031.2	-69.83128	9.977669E-011	0.0160314	5
	57	87	1.998082	221759.2	-585631.5	1	626211.9	-69.25999	2.264675E-010	0.0159942	5
	58	90	1.584686	271632.7	-698970.9	1	749896.4	-68.76298	1.16312E-010	0.0159789	5
	59	94	1.266892	331335.7	-824022.8	1	888142.4	-68.09518	2.009781E-010	0.0159929	5
	60	98	0.999041	406315.4	-984072	1	1064654	-67.56465	3.193272E-011	0.0160399	4
