EXPLAIN
TAG	EISPOT
TITLE	LABEL	Potentiostatic IDE	Test &Identifier
DATE	LABEL	9/4/2019	Date
TIME	LABEL	11:10:32	Time
NOTES	NOTES	1	&Notes...
	
PSTAT	PSTAT	REF600-11020	Potentiostat
VDC	POTEN	0.00000E+000	T	DC &Voltage (V)
FREQINIT	QUANT	1.00000E+006	Initial Fre&q. (Hz)
FREQFINAL	QUANT	1.00000E+000	Final Fre&q. (Hz)
PTSPERDEC	QUANT	1.00000E+001	Points/&decade
VAC	QUANT	2.50000E+001	AC &Voltage (mV rms)
AREA	QUANT	1.00000E-002	&Area (cm^2)
CONDIT	TWOPARAM	T	5.00000E+000	0.00000E+000	Conditionin&g	Time(s)	E(V)
DELAY	TWOPARAM	T	5.00000E+000	0.00000E+000	Init. De&lay	Time(s)	Stab.(mV/s)
SPEED	SELECTOR	1	&Optimize for:
ZGUESS	QUANT	1.00000E+007	E&stimated Z (ohms)
OCVCURVE	TABLE	18
	Pt	T	Vf	Vm	Ach	Over
	#	s	V vs. Ref.	V	V	bits
	0	0.258333	8.86942E-002	8.86942E-002	5.71232E-004	...........
	1	0.516667	8.87597E-002	9.21210E-002	5.65599E-004	...........
	2	0.775	8.91604E-002	9.53011E-002	5.69399E-004	...........
	3	1.03333	9.02882E-002	9.82782E-002	5.72032E-004	...........
	4	1.29167	9.22897E-002	1.01055E-001	5.68366E-004	...........
	5	1.55	9.49208E-002	1.03654E-001	5.64399E-004	...........
	6	1.80833	9.77932E-002	1.06092E-001	5.68166E-004	...........
	7	2.06667	1.00627E-001	1.08400E-001	5.69099E-004	...........
	8	2.325	1.03300E-001	1.10578E-001	5.67199E-004	...........
	9	2.58333	1.05795E-001	1.12642E-001	5.65666E-004	...........
	10	2.84167	1.08129E-001	1.14597E-001	5.67699E-004	...........
	11	3.1	1.10326E-001	1.16448E-001	5.64966E-004	...........
	12	3.35833	1.12403E-001	1.18216E-001	5.58366E-004	...........
	13	3.61667	1.14371E-001	1.19892E-001	5.60166E-004	...........
	14	3.875	1.16239E-001	1.21503E-001	5.65699E-004	...........
	15	4.13333	1.18016E-001	1.23042E-001	5.60832E-004	...........
	16	4.39167	1.19709E-001	1.24511E-001	5.59832E-004	...........
	17	4.65	1.21326E-001	1.25913E-001	5.65666E-004	...........
EOC	QUANT	0.1228714	Open Circuit (V)
PSTATMODEL	IQUANT	4	Pstat Model
PSTATSECTION	LABEL	REF600-11020	Pstat Section
PSTATSERIALNO	LABEL	11020	Pstat Serial Number
CTRLMODE	IQUANT	1	Control Mode
IESTAB	IQUANT	0	I/E Stability
CASPEED	IQUANT	1	Control Amp Speed
CONVENTION	IQUANT	1	Current Convention
ICHRANGE	IQUANT	2	Ich Range
ICHRANGEMODE	TOGGLE	F	Ich Auto Range
ICHOFFSETENABLE	TOGGLE	T	Ich Offset Enable
ICHOFFSET	QUANT	0	Ich Offset (V)
ICHFILTER	IQUANT	3	Ich Filter
VCHRANGE	IQUANT	2	Vch Range
VCHRANGEMODE	TOGGLE	F	Vch Auto Range
VCHOFFSETENABLE	TOGGLE	T	Vch Offset Enable
VCHOFFSET	QUANT	0	Vch Offset (V)
VCHFILTER	IQUANT	3	Vch Filter
ACHRANGE	IQUANT	2	Ach Range
ACHOFFSETENABLE	TOGGLE	F	Ach Offset Enable
ACHOFFSET	QUANT	0	Ach Offset (V)
ACHFILTER	IQUANT	3	Ach Filter
IERANGELOWERLIMIT	IQUANT	1	I/E Range Lower Limit
IERANGEMODE	TOGGLE	F	I/E AutoRange
IERANGE	IQUANT	4	I/E Range
POSFEEDENABLE	TOGGLE	F	Positive Feedback IR Comp
POSFEEDRESISTANCE	QUANT	0	Positive Feedback Resistance (ohm)
ACHSELECT	IQUANT	0	Ach Select
CABLEID	IQUANT	14	Cable ID
DCCALDATE	LABEL	8/19/2019	DC Calibration Date
ACCALDATE	LABEL	8/19/2019	AC Calibration Date
THERMOSELECT	IQUANT	1	Thermo Select
FRAMEWORKVERSION	QUANT	6.33	Framework Version
INSTRUMENTVERSION	LABEL	3.50	Instrument Version
ZCURVE	TABLE
	Pt	Time	Freq	Zreal	Zimag	Zsig	Zmod	Zphz	Idc	Vdc	IERange
	#	s	Hz	ohm	ohm	V	ohm	°	A	V	#
	0	2	1000078	2480.604	-1697.555	1	3005.843	-34.38506	9.000051E-006	0.1248651	8
	1	3	794390.6	2797.327	-1601.393	1	3223.274	-29.78995	1.432205E-005	0.1236687	8
	2	5	630984.4	3066.115	-1468.658	1	3399.709	-25.59424	1.138901E-005	0.1238833	8
	3	6	501234.4	3283.419	-1347.753	1	3549.265	-22.3168	1.113648E-005	0.1239593	8
	4	8	398109.4	3462.378	-1191.94	1	3661.801	-18.99626	1.164099E-005	0.1239272	8
	5	10	316265.6	3627.301	-1098.754	1	3790.062	-16.85221	1.141285E-005	0.1239286	8
	6	11	251203.1	3720.394	-956.202	1	3841.309	-14.41398	1.351535E-005	0.1235651	8
	7	13	199546.9	3808.939	-871.6739	1	3907.407	-12.89014	1.111377E-005	0.1239143	8
	8	14	158578.1	3888.621	-816.3989	1	3973.397	-11.85679	1.283709E-005	0.1235342	8
	9	16	125953.1	3965.113	-777.601	1	4040.641	-11.0955	7.737718E-007	0.1240838	7
	10	17	100078.1	4017.158	-746.7365	1	4085.973	-10.53034	1.138601E-006	0.1239705	7
	11	19	79453.13	4074.279	-761.9255	1	4144.91	-10.59246	1.082547E-006	0.12406	7
	12	20	63140.62	4135.034	-794.98	1	4210.76	-10.8826	1.072328E-006	0.1241038	7
	13	21	50203.12	4198.73	-851.873	1	4284.276	-11.46896	1.148215E-006	0.1239238	7
	14	23	39890.62	4271.122	-931.4883	1	4371.516	-12.30299	1.106923E-006	0.12404	7
	15	24	31640.63	4349.088	-1036.77	1	4470.958	-13.40836	1.084674E-006	0.1240614	7
	16	25	25171.88	4437.204	-1168.081	1	4588.375	-14.74834	1.082811E-006	0.1240586	7
	17	27	20015.62	4539.334	-1331.276	1	4730.523	-16.34512	1.088621E-006	0.124122	7
	18	28	15890.62	4653.893	-1528.245	1	4898.393	-18.17914	1.113324E-006	0.1240129	7
	19	29	12609.37	4789.346	-1770.561	1	5106.145	-20.28872	1.092786E-006	0.124037	7
	20	31	10078.13	4940.163	-2044.319	1	5346.442	-22.48056	1.128147E-006	0.1240047	7
	21	32	8015.625	5119.486	-2379.978	1	5645.656	-24.93306	1.102721E-006	0.1239945	7
	22	33	6328.125	5328.62	-2790.728	1	6015.177	-27.64215	1.11176E-006	0.1240405	7
	23	35	5015.625	5578.976	-3269.876	1	6466.611	-30.37486	1.084576E-006	0.1240431	7
	24	36	3984.375	5859.603	-3831.036	1	7000.841	-33.17685	1.128251E-006	0.1240133	7
	25	37	3170.956	6187.849	-4493.347	1	7647.198	-35.98552	1.106955E-006	0.1240026	7
	26	39	2527.573	6568.368	-5270.041	1	8421.21	-38.74134	1.102578E-006	0.1239929	7
	27	40	1976.103	7055.275	-6276.347	1	9442.957	-41.65617	1.107185E-006	0.12403	7
	28	41	1577.524	7594.438	-7369.252	1	10582.13	-44.13783	1.101368E-006	0.1240816	7
	29	43	1265.625	8209.591	-8598.601	1	11888.37	-46.32582	1.129332E-006	0.1240143	7
	30	44	998.264	8988.542	-10172.09	1	13574.44	-48.53466	1.122527E-006	0.1240613	7
	31	45	796.875	9872.6	-11933.06	1	15487.61	-50.39796	1.039621E-007	0.1240201	6
	32	47	627.7902	10968.42	-14134.74	1	17891.25	-52.18889	1.111725E-007	0.1239862	6
	33	48	505.5147	12148.46	-16464.68	1	20461.45	-53.57824	1.059984E-007	0.1240016	6
	34	49	397.9953	13706.68	-19497.12	1	23832.97	-54.89239	1.108843E-007	0.1236168	6
	35	51	315.5048	15496.87	-22955.76	1	27696.93	-55.97768	1.109695E-007	0.1236126	6
	36	52	252.4038	17529.49	-26843.96	1	32060.59	-56.85489	1.110828E-007	0.1236088	6
	37	53	198.6229	20124.86	-31732.14	1	37575.77	-57.61669	1.107032E-007	0.123621	6
	38	55	158.3615	23014.1	-37135.56	1	43688.66	-58.21218	1.109318E-007	0.1236083	6
	39	56	125.558	26513.75	-43580.09	1	51011.8	-58.68403	1.107083E-007	0.1236134	6
	40	57	100.4464	30477.08	-50753	1	59200.68	-59.01526	1.102148E-007	0.1236096	6
	41	59	79.00281	35564.92	-59939.36	1	69696.41	-59.3173	1.102612E-007	0.1236057	6
	42	60	63.3446	40853.08	-68717.82	1	79944.44	-59.26831	1.104973E-007	0.1236107	6
	43	61	49.86702	47962.22	-82226.8	1	95192.5	-59.74533	1.10028E-007	0.1236079	6
	44	63	39.72458	54916.52	-95253.6	1	109950.4	-60.03529	1.106819E-007	0.1236145	6
	45	64	31.6723	63327.94	-111574.9	1	128294.1	-60.42152	1.103725E-007	0.1236092	6
	46	65	24.93351	73644.06	-130745.6	1	150059.5	-60.60909	1.078786E-008	0.1236138	5
	47	67	19.86229	84999.76	-152689.8	1	174754.5	-60.89608	1.113567E-008	0.1236207	5
	48	68	15.83615	98081	-179977.3	1	204967.6	-61.41126	1.18028E-008	0.1236184	5
	49	70	12.40079	114561.9	-213089.8	1	241933.2	-61.73653	1.070057E-008	0.1236162	5
	50	71	9.93114	130120.3	-248053.3	1	280110.3	-62.32002	1.107531E-008	0.1236185	5
	51	73	7.944915	149159	-291459.5	1	327409.6	-62.89818	1.100858E-008	0.1236154	5
	52	74	6.317385	172438.5	-343442	1	384301.2	-63.33926	1.106855E-008	0.1236253	5
	53	76	5.008013	199905.4	-407338.4	1	453747.5	-63.86005	1.113184E-008	0.1236182	5
	54	79	3.945707	233612.7	-486497.5	1	539680.2	-64.35001	1.098843E-008	0.1236021	5
	55	82	3.158693	272170.1	-574887.6	1	636060	-64.66563	1.106413E-008	0.1236059	5
	56	85	2.504006	319879.5	-684160.8	1	755247.6	-64.94155	1.090471E-008	0.1239008	5
	57	88	1.998082	376417.7	-809222	1	892485.6	-65.05403	1.097731E-008	0.1238936	5
	58	91	1.584686	451484.3	-962527	1	1063154	-64.87054	1.089635E-008	0.1238458	5
	59	94	1.266892	536004.1	-1136286	1	1256363	-64.74601	1.096692E-008	0.1239064	5
	60	99	0.999041	652828.1	-1355078	1	1504135	-64.2769	8.387407E-010	0.1238616	4
