EXPLAIN
TAG	EISPOT
TITLE	LABEL	Potentiostatic EIS	Test &Identifier
DATE	LABEL	10/31/2019	Date
TIME	LABEL	23:37:43	Time
NOTES	NOTES	1	&Notes...
	
PSTAT	PSTAT	REF600-11020	Potentiostat
VDC	POTEN	0.00000E+000	T	DC &Voltage (V)
FREQINIT	QUANT	1.00000E+006	Initial Fre&q. (Hz)
FREQFINAL	QUANT	1.00000E+000	Final Fre&q. (Hz)
PTSPERDEC	QUANT	1.00000E+001	Points/&decade
VAC	QUANT	2.50000E+001	AC &Voltage (mV rms)
AREA	QUANT	1.00000E-002	&Area (cm^2)
CONDIT	TWOPARAM	T	5.00000E+000	0.00000E+000	Conditionin&g	Time(s)	E(V)
DELAY	TWOPARAM	T	5.00000E+000	0.00000E+000	Init. De&lay	Time(s)	Stab.(mV/s)
SPEED	SELECTOR	0	&Optimize for:
ZGUESS	QUANT	1.00000E+005	E&stimated Z (ohms)
OCVCURVE	TABLE	19
	Pt	T	Vf	Vm	Ach	Over
	#	s	V vs. Ref.	V	V	bits
	0	0.258333	6.05381E-003	6.05381E-003	5.26500E-004	...........
	1	0.516667	6.05531E-003	6.13206E-003	5.29499E-004	...........
	2	0.775	6.06477E-003	6.22093E-003	5.31600E-004	...........
	3	1.03333	6.09269E-003	6.31797E-003	5.29033E-004	...........
	4	1.29167	6.14539E-003	6.40920E-003	5.33500E-004	...........
	5	1.55	6.21982E-003	6.50338E-003	5.32666E-004	...........
	6	1.80833	6.30780E-003	6.61659E-003	5.31100E-004	...........
	7	2.06667	6.40273E-003	6.70229E-003	5.29966E-004	...........
	8	2.325	6.50084E-003	6.80163E-003	5.19633E-004	...........
	9	2.58333	6.59949E-003	6.89907E-003	5.26133E-004	...........
	10	2.84167	6.69703E-003	6.98135E-003	5.22766E-004	...........
	11	3.1	6.79247E-003	7.06489E-003	5.22566E-004	...........
	12	3.35833	6.88545E-003	7.19129E-003	5.22033E-004	...........
	13	3.61667	6.97803E-003	7.27275E-003	5.24066E-004	...........
	14	3.875	7.07322E-003	7.38291E-003	5.30300E-004	...........
	15	4.13333	7.17134E-003	7.47275E-003	5.28066E-004	...........
	16	4.39167	7.27039E-003	7.56332E-003	5.25766E-004	...........
	17	4.65	7.36829E-003	7.66186E-003	5.25600E-004	...........
	18	4.90833	7.46444E-003	7.76299E-003	5.30366E-004	...........
EOC	QUANT	0.0074644	Open Circuit (V)
PSTATMODEL	IQUANT	4	Pstat Model
PSTATSECTION	LABEL	REF600-11020	Pstat Section
PSTATSERIALNO	LABEL	11020	Pstat Serial Number
CTRLMODE	IQUANT	1	Control Mode
IESTAB	IQUANT	0	I/E Stability
CASPEED	IQUANT	1	Control Amp Speed
CONVENTION	IQUANT	1	Current Convention
ICHRANGE	IQUANT	2	Ich Range
ICHRANGEMODE	TOGGLE	F	Ich Auto Range
ICHOFFSETENABLE	TOGGLE	T	Ich Offset Enable
ICHOFFSET	QUANT	0	Ich Offset (V)
ICHFILTER	IQUANT	3	Ich Filter
VCHRANGE	IQUANT	2	Vch Range
VCHRANGEMODE	TOGGLE	F	Vch Auto Range
VCHOFFSETENABLE	TOGGLE	T	Vch Offset Enable
VCHOFFSET	QUANT	0	Vch Offset (V)
VCHFILTER	IQUANT	3	Vch Filter
ACHRANGE	IQUANT	2	Ach Range
ACHOFFSETENABLE	TOGGLE	F	Ach Offset Enable
ACHOFFSET	QUANT	0	Ach Offset (V)
ACHFILTER	IQUANT	3	Ach Filter
IERANGELOWERLIMIT	IQUANT	1	I/E Range Lower Limit
IERANGEMODE	TOGGLE	F	I/E AutoRange
IERANGE	IQUANT	5	I/E Range
POSFEEDENABLE	TOGGLE	F	Positive Feedback IR Comp
POSFEEDRESISTANCE	QUANT	0	Positive Feedback Resistance (ohm)
ACHSELECT	IQUANT	0	Ach Select
CABLEID	IQUANT	14	Cable ID
DCCALDATE	LABEL	8/19/2019	DC Calibration Date
ACCALDATE	LABEL	8/19/2019	AC Calibration Date
THERMOSELECT	IQUANT	1	Thermo Select
FRAMEWORKVERSION	QUANT	6.33	Framework Version
INSTRUMENTVERSION	LABEL	3.50	Instrument Version
ZCURVE	TABLE
	Pt	Time	Freq	Zreal	Zimag	Zsig	Zmod	Zphz	Idc	Vdc	IERange
	#	s	Hz	ohm	ohm	V	ohm	°	A	V	#
	0	1	1000078	1161.064	-1948.918	1	2268.557	-59.21571	-1.489996E-006	0.009304	8
	1	1	794390.6	1339.418	-2309.975	1	2670.211	-59.8931	-6.994449E-006	0.0104518	8
	2	2	630984.4	1558.782	-2747.54	1	3158.921	-60.43214	1.06974E-006	0.0098052	8
	3	2	501234.4	1836.436	-3248.704	1	3731.833	-60.52128	-4.189424E-006	0.0098054	8
	4	2	398109.4	2213.507	-3835.029	1	4427.986	-60.00726	4.55779E-006	0.0090586	8
	5	3	316265.6	2644.109	-4476.055	1	5198.69	-59.42867	-6.116544E-006	0.0099228	8
	6	3	251203.1	3221.31	-5234.282	1	6146.1	-58.3908	-1.939615E-006	0.0092515	8
	7	3	199546.9	3863.881	-5990.31	1	7128.351	-57.1771	-5.556658E-006	0.009892	8
	8	4	158578.1	4518.275	-6734.304	1	8109.603	-56.14099	-3.478037E-007	0.0088326	8
	9	4	125953.1	5684.687	-7760.629	1	9619.93	-53.7771	4.398996E-006	0.0012623	7
	10	5	100078.1	6706.59	-8612.124	1	10915.45	-52.09075	1.575582E-007	0.0101425	7
	11	5	79453.13	7850.419	-9750.95	1	12518.39	-51.16272	-1.44689E-006	0.0108425	7
	12	6	63140.62	9131.313	-11014.05	1	14307	-50.33922	1.338745E-006	0.0075529	7
	13	6	50203.12	10691.18	-12301.08	1	16297.79	-49.00528	5.378508E-007	0.0096117	7
	14	6	39890.62	12624.77	-13962.54	1	18823.84	-47.88047	2.767321E-010	0.0075529	7
	15	7	31640.63	14892.3	-15510.53	1	21502.49	-46.16492	4.618684E-007	0.0071187	7
	16	7	25171.88	17555.75	-16653.23	1	24197.81	-43.48874	5.38593E-007	0.0096044	7
	17	7	20015.62	20745.1	-17902.28	1	27401.66	-40.79303	8.137566E-007	0.0091612	7
	18	8	15890.62	24091.86	-18643.26	1	30462.91	-37.73416	1.070339E-006	0.0086271	7
	19	8	12609.37	28264.71	-18849.9	1	33973.71	-33.69956	-1.141149E-007	0.0083095	6
	20	8	10078.13	31767.49	-18634.71	1	36829.69	-30.39575	-2.364185E-007	0.0115983	6
	21	9	8015.625	35140.69	-18018.63	1	39491	-27.1468	7.216018E-008	0.0102172	6
	22	9	6328.125	38311.63	-16864.02	1	41859	-23.75813	-6.729645E-008	0.0118242	6
	23	9	5015.625	40962.05	-15568.01	1	43820.69	-20.80976	-2.363814E-007	0.0115849	6
	24	10	3984.375	43136.46	-14270.15	1	45435.57	-18.30494	-1.131164E-007	0.0083039	6
	25	10	3170.956	45213.61	-13292	1	47126.93	-16.3824	8.213113E-008	0.006053	6
	26	10	2527.573	46702.93	-12321.05	1	48300.85	-14.7789	1.367917E-007	0.0058032	6
	27	10	1976.103	47583.3	-11337.68	1	48915.37	-13.40198	-1.369745E-007	0.0123438	6
	28	11	1577.524	48966.16	-10880.68	1	50160.48	-12.52803	2.094308E-007	0.0067361	6
	29	11	1265.625	49714	-10779.83	1	50869.3	-12.23444	-6.744149E-008	0.0118171	6
	30	11	998.264	50668.79	-10835.59	1	51814.44	-12.07096	-2.142416E-007	0.010558	6
	31	12	796.875	51661.8	-11343.36	1	52892.47	-12.38389	-1.125455E-007	0.0083021	6
	32	12	627.7902	52478.18	-12026.28	1	53838.56	-12.90744	-1.944447E-007	0.0125245	6
	33	12	505.5147	53383.97	-13103.26	1	54968.57	-13.79078	-2.367885E-007	0.0115815	6
	34	13	397.9953	54758.23	-14693.76	1	56695.42	-15.02082	-5.786424E-010	0.0090017	6
	35	13	315.5048	55951.04	-16591.34	1	58359.16	-16.51684	1.129909E-009	0.0089957	6
	36	13	252.4038	57486.75	-18860.09	1	60501.48	-18.16348	5.009256E-010	0.0089957	6
	37	14	198.6229	59359.84	-21827.1	1	63245.66	-20.18888	5.620644E-010	0.0089911	6
	38	14	158.3615	61508.77	-25126.96	1	66443.15	-22.22052	5.889706E-010	0.0089864	6
	39	15	125.558	64200.15	-29106.25	1	70489.95	-24.38799	2.751615E-010	0.0089902	6
	40	15	100.4464	67098.4	-33849.43	1	75153.04	-26.76978	4.216294E-010	0.0089976	6
	41	15	79.00281	70453.73	-39368.42	1	80706.88	-29.19576	3.666656E-010	0.0090024	6
	42	16	63.3446	75847.35	-42782.37	1	87081.3	-29.42555	-2.670394E-010	0.0089969	6
	43	16	49.86702	81062.92	-50711.81	1	95618.4	-32.02951	-1.294361E-009	0.0089921	5
	44	16	39.72458	85487.48	-59227.68	1	104000.1	-34.7151	-5.043121E-010	0.0089962	5
	45	17	31.6723	92395.45	-68506.48	1	115022	-36.55504	-1.363464E-010	0.0090051	5
	46	17	24.93351	100335.6	-78261.6	1	127248.2	-37.95417	-8.576639E-011	0.0089937	5
	47	17	19.86229	108728.8	-89312.11	1	140707.5	-39.40039	9.888069E-010	0.0089966	5
	48	18	15.83615	117596	-104099.2	1	157052.5	-41.51614	3.992498E-010	0.0089889	5
	49	18	12.40079	130538.7	-118753.3	1	176472.9	-42.29333	-4.876127E-011	0.0089961	5
	50	18	9.93114	143352.5	-133016	1	195558.6	-42.85806	-7.939198E-010	0.0089904	5
	51	19	7.944915	157702.4	-151843.1	1	218920.9	-43.9156	-6.629769E-010	0.0089877	5
	52	20	6.317385	173090.2	-173729.8	1	245239.2	-45.10567	-7.242958E-010	0.0090043	5
	53	20	5.008013	191971.8	-199687.2	1	276998.5	-46.12853	-6.711667E-010	0.0089818	5
	54	21	3.945707	213695.9	-229707	1	313737.5	-47.06803	-1.769396E-010	0.0089985	5
	55	23	3.158693	237403.7	-262406.1	1	353860.8	-47.86377	-1.697098E-010	0.0090027	5
	56	24	2.504006	265626.4	-301894.3	1	402116.3	-48.65656	-5.467446E-010	0.0089947	5
	57	26	1.998082	295238.1	-344879.6	1	453990.6	-49.43444	-2.658307E-010	0.0090041	5
	58	27	1.584686	331537.5	-396914	1	517163.2	-50.1284	-1.132605E-010	0.009039	5
	59	29	1.266892	369082.5	-456499.7	1	587038.2	-51.04427	-1.007869E-010	0.0090124	5
	60	32	0.999041	415245.7	-525078.1	1	669429.6	-51.66212	-1.648538E-010	0.0089883	5
