EXPLAIN
TAG	EISPOT
TITLE	LABEL	Potentiostatic IDE	Test &Identifier
DATE	LABEL	9/18/2019	Date
TIME	LABEL	10:20:03	Time
NOTES	NOTES	1	&Notes...
	
PSTAT	PSTAT	REF600-11020	Potentiostat
VDC	POTEN	0.00000E+000	T	DC &Voltage (V)
FREQINIT	QUANT	1.00000E+006	Initial Fre&q. (Hz)
FREQFINAL	QUANT	1.00000E+000	Final Fre&q. (Hz)
PTSPERDEC	QUANT	1.00000E+001	Points/&decade
VAC	QUANT	2.50000E+001	AC &Voltage (mV rms)
AREA	QUANT	1.00000E-002	&Area (cm^2)
CONDIT	TWOPARAM	T	5.00000E+000	0.00000E+000	Conditionin&g	Time(s)	E(V)
DELAY	TWOPARAM	T	5.00000E+000	0.00000E+000	Init. De&lay	Time(s)	Stab.(mV/s)
SPEED	SELECTOR	1	&Optimize for:
ZGUESS	QUANT	1.00000E+007	E&stimated Z (ohms)
OCVCURVE	TABLE	19
	Pt	T	Vf	Vm	Ach	Over
	#	s	V vs. Ref.	V	V	bits
	0	0.258333	7.77003E-003	7.77003E-003	5.42333E-004	...........
	1	0.516667	7.85555E-003	1.22467E-002	5.45366E-004	...........
	2	0.775	8.31009E-003	1.27940E-002	5.47633E-004	...........
	3	1.03333	9.32903E-003	1.16315E-002	5.46099E-004	...........
	4	1.29167	1.05702E-002	1.12102E-002	5.42933E-004	...........
	5	1.55	1.14012E-002	9.96657E-003	5.43899E-004	...........
	6	1.80833	1.15043E-002	8.61807E-003	5.42099E-004	...........
	7	2.06667	1.09755E-002	8.28089E-003	5.42599E-004	...........
	8	2.325	1.01114E-002	8.13331E-003	5.38599E-004	...........
	9	2.58333	9.25109E-003	8.20571E-003	5.39633E-004	...........
	10	2.84167	8.63537E-003	8.43884E-003	5.38499E-004	...........
	11	3.1	8.34283E-003	9.10681E-003	5.41566E-004	...........
	12	3.35833	8.36017E-003	9.99271E-003	5.39533E-004	...........
	13	3.61667	8.68685E-003	1.21711E-002	5.40799E-004	...........
	14	3.875	9.37685E-003	1.35613E-002	5.44399E-004	...........
	15	4.13333	1.04301E-002	1.34553E-002	5.44566E-004	...........
	16	4.39167	1.16229E-002	1.32200E-002	5.34833E-004	...........
	17	4.65	1.25861E-002	1.30201E-002	5.34400E-004	...........
	18	4.90833	1.30933E-002	1.25132E-002	5.40366E-004	...........
EOC	QUANT	0.0130933	Open Circuit (V)
PSTATMODEL	IQUANT	4	Pstat Model
PSTATSECTION	LABEL	REF600-11020	Pstat Section
PSTATSERIALNO	LABEL	11020	Pstat Serial Number
CTRLMODE	IQUANT	1	Control Mode
IESTAB	IQUANT	0	I/E Stability
CASPEED	IQUANT	1	Control Amp Speed
CONVENTION	IQUANT	1	Current Convention
ICHRANGE	IQUANT	2	Ich Range
ICHRANGEMODE	TOGGLE	F	Ich Auto Range
ICHOFFSETENABLE	TOGGLE	T	Ich Offset Enable
ICHOFFSET	QUANT	0	Ich Offset (V)
ICHFILTER	IQUANT	3	Ich Filter
VCHRANGE	IQUANT	2	Vch Range
VCHRANGEMODE	TOGGLE	F	Vch Auto Range
VCHOFFSETENABLE	TOGGLE	T	Vch Offset Enable
VCHOFFSET	QUANT	0	Vch Offset (V)
VCHFILTER	IQUANT	3	Vch Filter
ACHRANGE	IQUANT	2	Ach Range
ACHOFFSETENABLE	TOGGLE	F	Ach Offset Enable
ACHOFFSET	QUANT	0	Ach Offset (V)
ACHFILTER	IQUANT	3	Ach Filter
IERANGELOWERLIMIT	IQUANT	1	I/E Range Lower Limit
IERANGEMODE	TOGGLE	F	I/E AutoRange
IERANGE	IQUANT	3	I/E Range
POSFEEDENABLE	TOGGLE	F	Positive Feedback IR Comp
POSFEEDRESISTANCE	QUANT	0	Positive Feedback Resistance (ohm)
ACHSELECT	IQUANT	0	Ach Select
CABLEID	IQUANT	14	Cable ID
DCCALDATE	LABEL	8/19/2019	DC Calibration Date
ACCALDATE	LABEL	8/19/2019	AC Calibration Date
THERMOSELECT	IQUANT	1	Thermo Select
FRAMEWORKVERSION	QUANT	6.33	Framework Version
INSTRUMENTVERSION	LABEL	3.50	Instrument Version
ZCURVE	TABLE
	Pt	Time	Freq	Zreal	Zimag	Zsig	Zmod	Zphz	Idc	Vdc	IERange
	#	s	Hz	ohm	ohm	V	ohm	°	A	V	#
	0	2	1000078	2145.096	-1604.065	1	2678.518	-36.7885	-2.107282E-006	0.0162641	8
	1	4	794390.6	2471.194	-1536.504	1	2909.922	-31.87194	2.49888E-006	0.0148676	8
	2	5	630984.4	2756.362	-1430.404	1	3105.413	-27.42689	3.363113E-006	0.0140082	8
	3	6	501234.4	2998.453	-1297.964	1	3267.328	-23.40671	3.229263E-006	0.0139655	8
	4	8	398109.4	3188.406	-1152.265	1	3390.229	-19.86946	-3.936877E-006	0.0154394	8
	5	9	316265.6	3342.706	-1019.999	1	3494.865	-16.96913	1.850916E-006	0.0143384	8
	6	10	251203.1	3468.181	-918.3625	1	3587.71	-14.83134	-1.422627E-006	0.0148794	8
	7	12	199546.9	3573.794	-814.5869	1	3665.455	-12.84025	-1.259267E-006	0.0148761	8
	8	13	158578.1	3650.674	-727.261	1	3722.409	-11.26656	2.019081E-006	0.0141805	8
	9	14	125953.1	3738.385	-641.0548	1	3792.951	-9.73039	-3.60258E-007	0.0157706	7
	10	16	100078.1	3776.055	-600.7689	1	3823.547	-9.039968	-3.809816E-008	0.0146838	7
	11	17	79453.13	3829.359	-578.4686	1	3872.805	-8.590235	-1.056788E-008	0.0145783	7
	12	18	63140.62	3881.19	-569.2902	1	3922.719	-8.344599	7.839324E-009	0.0146495	7
	13	20	50203.12	3935.363	-572.1821	1	3976.741	-8.272552	-9.977149E-009	0.0146011	7
	14	21	39890.62	3991.33	-589.4404	1	4034.62	-8.40073	1.504971E-008	0.0146039	7
	15	22	31640.63	4049.136	-614.884	1	4095.557	-8.634717	1.156799E-008	0.0145993	7
	16	23	25171.88	4112.619	-654.0894	1	4164.309	-9.036889	1.711404E-008	0.0146043	7
	17	25	20015.62	4180.442	-704.6507	1	4239.414	-9.56778	-4.379519E-009	0.0145496	7
	18	26	15890.62	4257.434	-768.3033	1	4326.203	-10.22959	3.304334E-009	0.0145628	7
	19	27	12609.37	4341.536	-847.2365	1	4423.431	-11.04231	2.264291E-008	0.0145419	7
	20	29	10078.13	4432.653	-936.426	1	4530.486	-11.9287	1.423239E-008	0.0145955	7
	21	30	8015.625	4534.618	-1042.203	1	4652.843	-12.94365	-5.524967E-009	0.014548	7
	22	31	6328.125	4655.74	-1172.337	1	4801.071	-14.13352	-3.546345E-008	0.0146556	7
	23	33	5015.625	4787.708	-1318.437	1	4965.927	-15.39647	-8.828558E-009	0.0145569	7
	24	34	3984.375	4935.362	-1485.038	1	5153.944	-16.74641	2.937196E-008	0.0145322	7
	25	35	3170.956	5101.478	-1675.57	1	5369.601	-18.18266	2.83187E-008	0.0145278	7
	26	37	2527.573	5287.985	-1889.904	1	5615.561	-19.66668	-8.686353E-009	0.0145478	7
	27	38	1976.103	5515.368	-2152.881	1	5920.657	-21.3228	-1.089602E-008	0.0146	7
	28	39	1577.524	5739.985	-2422.97	1	6230.426	-22.88564	-9.334595E-009	0.0145799	7
	29	41	1265.625	5978.516	-2741.043	1	6576.927	-24.63062	-3.289952E-008	0.0146204	7
	30	42	998.264	6251.613	-3092.49	1	6974.68	-26.32026	1.509015E-008	0.0145766	7
	31	43	796.875	6517.092	-3499.421	1	7397.191	-28.23405	3.247987E-008	0.0145357	7
	32	45	627.7902	6793.29	-4022.3	1	7894.788	-30.62973	-2.460102E-008	0.0146714	7
	33	46	505.5147	7045.224	-4604.046	1	8416.2	-33.16457	-1.218278E-008	0.0145981	7
	34	47	397.9953	7317.98	-5400.952	1	9095.225	-36.42876	5.516224E-009	0.0145962	7
	35	49	315.5048	7588.513	-6386.554	1	9918.35	-40.08424	1.034886E-009	0.0145422	6
	36	50	252.4038	7860.916	-7579.442	1	10919.8	-43.95563	1.201989E-009	0.0145338	6
	37	51	198.6229	8186.498	-9197.252	1	12312.93	-48.32764	6.863033E-010	0.0145329	6
	38	53	158.3615	8544.805	-11116.8	1	14021.3	-52.45273	1.060083E-009	0.0145322	6
	39	54	125.558	8990.284	-13573.03	1	16280.43	-56.48096	6.540263E-010	0.0145397	6
	40	55	100.4464	9529.84	-16488.45	1	19044.34	-59.97334	1.025695E-009	0.0145385	6
	41	57	79.00281	10262.7	-20414.26	1	22848.74	-63.31031	1.242454E-009	0.0145324	6
	42	58	63.3446	11034.38	-24730.28	1	27080.33	-65.9541	8.855093E-010	0.0145333	6
	43	60	49.86702	12376.07	-30760.7	1	33157.02	-68.0834	1.180608E-010	0.0145337	6
	44	61	39.72458	13870.95	-37483.82	1	39967.99	-69.69293	6.769234E-010	0.0145398	6
	45	62	31.6723	15751.45	-45789.58	1	48423.07	-71.01697	7.825423E-010	0.0145347	6
	46	64	24.93351	18496.37	-56432.15	1	59386.05	-71.85278	7.751757E-010	0.0145321	6
	47	65	19.86229	21789.22	-68750.09	1	72120.36	-72.41483	9.745162E-010	0.0145404	6
	48	66	15.83615	25778.55	-83304.92	1	87202.31	-72.80542	3.561565E-010	0.014526	6
	49	68	12.40079	31781.29	-102979.9	1	107772.5	-72.84892	1.120896E-009	0.0145393	5
	50	69	9.93114	39029.29	-123720.5	1	129730.6	-72.49142	-5.028149E-011	0.0145364	5
	51	71	7.944915	48237.57	-148790.4	1	156414.3	-72.0374	6.462775E-011	0.0145323	5
	52	72	6.317385	60017.04	-179226.9	1	189008.8	-71.48605	-1.056423E-011	0.0145322	5
	53	74	5.008013	75433.8	-215802.9	1	228607	-70.73295	4.02207E-011	0.0145335	5
	54	77	3.945707	95571.4	-260043	1	277049.2	-69.82053	8.590303E-011	0.0145332	5
	55	79	3.158693	118886.6	-307015.5	1	329230.2	-68.83195	3.403631E-010	0.0145533	5
	56	83	2.504006	149219.8	-364758.8	1	394100.9	-67.75093	-1.207941E-010	0.0145386	5
	57	85	1.998082	185016.7	-427589.6	1	465901.3	-66.60201	2.176567E-010	0.0144923	5
	58	88	1.584686	227890.3	-502617.3	1	551867.8	-65.61012	7.73574E-011	0.0145026	5
	59	92	1.266892	277829	-582649.6	1	645499.4	-64.50646	2.543847E-010	0.0145039	5
	60	96	0.999041	338263.3	-682507.9	1	761734.3	-63.63615	-8.490044E-012	0.0145376	5
