EXPLAIN
TAG	EISPOT
TITLE	LABEL	Potentiostatic EIS	Test &Identifier
DATE	LABEL	11/5/2019	Date
TIME	LABEL	10:05:20	Time
NOTES	NOTES	2	&Notes...
	
	
PSTAT	PSTAT	REF600-11020	Potentiostat
VDC	POTEN	0.00000E+000	T	DC &Voltage (V)
FREQINIT	QUANT	1.00000E+006	Initial Fre&q. (Hz)
FREQFINAL	QUANT	1.00000E+000	Final Fre&q. (Hz)
PTSPERDEC	QUANT	1.00000E+001	Points/&decade
VAC	QUANT	2.50000E+001	AC &Voltage (mV rms)
AREA	QUANT	1.00000E-002	&Area (cm^2)
CONDIT	TWOPARAM	T	5.00000E+000	0.00000E+000	Conditionin&g	Time(s)	E(V)
DELAY	TWOPARAM	T	5.00000E+000	0.00000E+000	Init. De&lay	Time(s)	Stab.(mV/s)
SPEED	SELECTOR	1	&Optimize for:
ZGUESS	QUANT	1.00000E+005	E&stimated Z (ohms)
OCVCURVE	TABLE	19
	Pt	T	Vf	Vm	Ach	Over
	#	s	V vs. Ref.	V	V	bits
	0	0.258333	6.31517E-003	6.31517E-003	5.13533E-004	...........
	1	0.516667	6.31025E-003	6.05778E-003	5.15466E-004	...........
	2	0.775	6.28125E-003	5.87599E-003	5.11133E-004	...........
	3	1.03333	6.19844E-003	5.45524E-003	5.04100E-004	...........
	4	1.29167	6.04009E-003	5.19267E-003	5.13100E-004	...........
	5	1.55	5.81850E-003	5.46822E-003	5.20166E-004	...........
	6	1.80833	5.60042E-003	5.54126E-003	5.05967E-004	...........
	7	2.06667	5.46577E-003	5.42580E-003	5.04900E-004	...........
	8	2.325	5.42311E-003	5.19661E-003	5.16766E-004	...........
	9	2.58333	5.40851E-003	5.30015E-003	5.15266E-004	...........
	10	2.84167	5.37126E-003	5.15192E-003	5.09933E-004	...........
	11	3.1	5.31346E-003	5.19622E-003	5.11400E-004	...........
	12	3.35833	5.25251E-003	4.95245E-003	5.18600E-004	...........
	13	3.61667	5.18973E-003	5.02109E-003	5.15700E-004	...........
	14	3.875	5.12172E-003	4.94837E-003	5.07267E-004	...........
	15	4.13333	5.05594E-003	4.91163E-003	5.04867E-004	...........
	16	4.39167	5.00210E-003	4.93824E-003	5.14400E-004	...........
	17	4.65	4.96163E-003	4.82545E-003	5.19300E-004	...........
	18	4.90833	4.92733E-003	4.75826E-003	5.06500E-004	...........
EOC	QUANT	0.0049273	Open Circuit (V)
PSTATMODEL	IQUANT	4	Pstat Model
PSTATSECTION	LABEL	REF600-11020	Pstat Section
PSTATSERIALNO	LABEL	11020	Pstat Serial Number
CTRLMODE	IQUANT	1	Control Mode
IESTAB	IQUANT	0	I/E Stability
CASPEED	IQUANT	1	Control Amp Speed
CONVENTION	IQUANT	1	Current Convention
ICHRANGE	IQUANT	2	Ich Range
ICHRANGEMODE	TOGGLE	F	Ich Auto Range
ICHOFFSETENABLE	TOGGLE	T	Ich Offset Enable
ICHOFFSET	QUANT	0	Ich Offset (V)
ICHFILTER	IQUANT	3	Ich Filter
VCHRANGE	IQUANT	2	Vch Range
VCHRANGEMODE	TOGGLE	F	Vch Auto Range
VCHOFFSETENABLE	TOGGLE	T	Vch Offset Enable
VCHOFFSET	QUANT	0	Vch Offset (V)
VCHFILTER	IQUANT	3	Vch Filter
ACHRANGE	IQUANT	2	Ach Range
ACHOFFSETENABLE	TOGGLE	F	Ach Offset Enable
ACHOFFSET	QUANT	0	Ach Offset (V)
ACHFILTER	IQUANT	3	Ach Filter
IERANGELOWERLIMIT	IQUANT	1	I/E Range Lower Limit
IERANGEMODE	TOGGLE	F	I/E AutoRange
IERANGE	IQUANT	4	I/E Range
POSFEEDENABLE	TOGGLE	F	Positive Feedback IR Comp
POSFEEDRESISTANCE	QUANT	0	Positive Feedback Resistance (ohm)
ACHSELECT	IQUANT	0	Ach Select
CABLEID	IQUANT	14	Cable ID
DCCALDATE	LABEL	8/19/2019	DC Calibration Date
ACCALDATE	LABEL	8/19/2019	AC Calibration Date
THERMOSELECT	IQUANT	1	Thermo Select
FRAMEWORKVERSION	QUANT	6.33	Framework Version
INSTRUMENTVERSION	LABEL	3.50	Instrument Version
ZCURVE	TABLE
	Pt	Time	Freq	Zreal	Zimag	Zsig	Zmod	Zphz	Idc	Vdc	IERange
	#	s	Hz	ohm	ohm	V	ohm	°	A	V	#
	0	1	1000078	2026.016	-1047.861	1	2280.955	-27.34813	-8.46953E-006	0.0087008	8
	1	3	794390.6	2204.633	-975.717	1	2410.898	-23.87301	1.174378E-005	0.0058686	8
	2	4	630984.4	2358.469	-895.7985	1	2522.862	-20.79788	-5.932574E-006	0.0066379	8
	3	5	501234.4	2486.917	-811.1744	1	2615.867	-18.06512	8.206785E-006	0.0057576	8
	4	7	398109.4	2596.75	-738.4899	1	2699.718	-15.87522	2.241865E-006	0.0059064	8
	5	8	316265.6	2673.169	-670.2526	1	2755.916	-14.07578	2.762785E-006	0.005885	8
	6	10	251203.1	2741.838	-621.4454	1	2811.383	-12.77049	-1.867978E-006	0.0063004	8
	7	11	199546.9	2811.614	-573.9135	1	2869.59	-11.53687	8.358995E-007	0.0069343	8
	8	12	158578.1	2873.524	-550.6133	1	2925.802	-10.84731	-7.437948E-007	0.0062301	8
	9	14	125953.1	2943.278	-487.27	1	2983.34	-9.400257	1.020404E-007	0.0090775	7
	10	15	100078.1	2990.365	-480.599	1	3028.739	-9.130262	-1.127937E-006	0.0081661	7
	11	16	79453.13	3041.814	-495.2748	1	3081.872	-9.247869	-6.309493E-007	0.008129	7
	12	18	63140.62	3098.987	-516.6213	1	3141.754	-9.464543	8.533897E-008	0.007455	7
	13	19	50203.12	3157.939	-542.2869	1	3204.162	-9.7439	-1.080806E-006	0.0070258	7
	14	21	39890.62	3226.009	-575.9346	1	3277.016	-10.12229	1.00273E-006	0.0047483	7
	15	22	31640.63	3297.124	-614.8286	1	3353.959	-10.56287	1.046004E-006	0.0057318	7
	16	23	25171.88	3370.275	-658.7166	1	3434.045	-11.05898	4.197501E-007	0.0069947	7
	17	25	20015.62	3450.312	-710.203	1	3522.647	-11.63116	7.965593E-007	0.0046577	7
	18	26	15890.62	3534.453	-769.6678	1	3617.285	-12.28502	-2.887354E-007	0.0078587	7
	19	27	12609.37	3624.103	-835.3813	1	3719.138	-12.98035	-3.152594E-007	0.005595	7
	20	29	10078.13	3712.316	-916.6982	1	3823.823	-13.87081	-1.12992E-006	0.0081514	7
	21	30	8015.625	3816.025	-1010.206	1	3947.475	-14.82763	4.192579E-007	0.0069944	7
	22	32	6328.125	3922.275	-1120.557	1	4079.202	-15.94413	8.617499E-008	0.0074516	7
	23	33	5015.625	4031.614	-1251.597	1	4221.422	-17.24672	1.003305E-006	0.0047412	7
	24	34	3984.375	4138.393	-1406.481	1	4370.867	-18.77093	1.047137E-006	0.0057329	7
	25	36	3170.956	4247.819	-1594.148	1	4537.1	-20.57042	-7.488669E-007	0.0063051	7
	26	37	2527.573	4357.161	-1829.933	1	4725.834	-22.78158	7.961624E-007	0.0046548	7
	27	38	1976.103	4475.916	-2145.698	1	4963.652	-25.61248	8.70486E-008	0.0074467	7
	28	40	1577.524	4601.641	-2536.589	1	5254.463	-28.86513	7.954342E-007	0.0046497	7
	29	41	1265.625	4714.477	-2965.525	1	5569.616	-32.17093	1.13616E-006	0.0052875	7
	30	42	998.264	4856.746	-3551.419	1	6016.69	-36.17555	-9.186521E-007	0.0082087	7
	31	44	796.875	5009.957	-4275.11	1	6586.063	-40.47488	7.971438E-007	0.0046546	7
	32	45	627.7902	5200.112	-5200.542	1	7354.373	-45.00237	4.250238E-007	0.0069941	7
	33	47	505.5147	5406.873	-6263.632	1	8274.5	-49.19868	1.116426E-006	0.004964	7
	34	48	397.9953	5680.241	-7681.842	1	9553.84	-53.51939	5.696798E-009	0.0065016	7
	35	49	315.5048	6012.896	-9404.157	1	11162.13	-57.40568	1.357586E-009	0.0064349	6
	36	51	252.4038	6400.722	-11440.05	1	13108.93	-60.77294	1.899766E-009	0.0064277	6
	37	52	198.6229	6927.791	-14133.4	1	15739.99	-63.88721	1.22138E-009	0.0064322	6
	38	54	158.3615	7561.851	-17265.15	1	18848.53	-66.34737	6.673887E-010	0.0064298	6
	39	55	125.558	8393.299	-21211.44	1	22811.68	-68.41145	7.725948E-010	0.0064425	6
	40	56	100.4464	9423.755	-25797.23	1	27464.6	-69.9327	1.398267E-010	0.0064365	6
	41	58	79.00281	10870.19	-31981.08	1	33777.96	-71.22739	-1.194667E-010	0.00644	6
	42	59	63.3446	12364.85	-39171.52	1	41076.72	-72.48122	1.106782E-009	0.0064305	6
	43	61	49.86702	14693.68	-47350.98	1	49578.42	-72.76014	1.200623E-009	0.0064338	6
	44	62	39.72458	17825.4	-57962.79	1	60641.82	-72.90568	3.122272E-010	0.0064377	6
	45	63	31.6723	21533.21	-70375.59	1	73596.22	-72.98717	1.354594E-009	0.0064248	6
	46	65	24.93351	27125.11	-86096.38	1	90268.26	-72.5127	5.738802E-010	0.0064276	6
	47	66	19.86229	33705.67	-104092.3	1	109413.3	-72.05775	2.503046E-010	0.006445	5
	48	68	15.83615	41889.27	-123422.2	1	130337.1	-71.25288	1.502769E-009	0.006441	5
	49	69	12.40079	54582.88	-153690.8	1	163095.6	-70.44765	-9.454871E-010	0.0064329	5
	50	71	9.93114	68027.85	-180559.8	1	192949.9	-69.35556	6.018878E-011	0.006436	5
	51	72	7.944915	87382.64	-211872.4	1	229184.7	-67.58725	-1.986373E-010	0.0064336	5
	52	74	6.317385	109115.4	-250587.5	1	273313.5	-66.46983	6.242866E-010	0.0064344	5
	53	76	5.008013	137331.4	-294202.2	1	324676.5	-64.97718	4.136031E-010	0.0064474	5
	54	78	3.945707	171897.5	-343645.4	1	384240.7	-63.42498	-4.523745E-011	0.0064357	5
	55	81	3.158693	210996.1	-394610.1	1	447477.9	-61.86681	2.135637E-010	0.0064587	5
	56	85	2.504006	256910.7	-454120	1	521754.8	-60.50172	1.18096E-010	0.0064268	5
	57	87	1.998082	306915.5	-517949.5	1	602053.9	-59.35077	-1.382609E-010	0.0064579	5
	58	91	1.584686	365200.1	-592554.4	1	696054.5	-58.35386	1.377641E-010	0.0064788	5
	59	94	1.266892	427350.7	-671774.7	1	796184.6	-57.53745	-2.749509E-011	0.0064753	5
	60	104	0.999041	511660.2	-786268.6	1	938090.9	-56.94615	-2.391157E-010	0.0064132	5
