EXPLAIN
TAG	EISPOT
TITLE	LABEL	Potentiostatic EIS	Test &Identifier
DATE	LABEL	11/15/2019	Date
TIME	LABEL	10:13:22	Time
NOTES	NOTES	4	&Notes...
	
	
	
	
PSTAT	PSTAT	REF600-11020	Potentiostat
VDC	POTEN	0.00000E+000	T	DC &Voltage (V)
FREQINIT	QUANT	1.00000E+006	Initial Fre&q. (Hz)
FREQFINAL	QUANT	1.00000E+000	Final Fre&q. (Hz)
PTSPERDEC	QUANT	1.00000E+001	Points/&decade
VAC	QUANT	2.50000E+001	AC &Voltage (mV rms)
AREA	QUANT	1.00000E-002	&Area (cm^2)
CONDIT	TWOPARAM	T	5.00000E+000	0.00000E+000	Conditionin&g	Time(s)	E(V)
DELAY	TWOPARAM	T	5.00000E+000	0.00000E+000	Init. De&lay	Time(s)	Stab.(mV/s)
SPEED	SELECTOR	0	&Optimize for:
ZGUESS	QUANT	1.00000E+005	E&stimated Z (ohms)
OCVCURVE	TABLE	19
	Pt	T	Vf	Vm	Ach	Over
	#	s	V vs. Ref.	V	V	bits
	0	0.258333	4.67161E-003	4.67161E-003	5.83432E-004	...........
	1	0.516667	4.66825E-003	4.49567E-003	5.82699E-004	...........
	2	0.775	4.64775E-003	4.33634E-003	5.90865E-004	...........
	3	1.03333	4.59066E-003	4.20522E-003	5.87399E-004	...........
	4	1.29167	4.49149E-003	4.09255E-003	5.86865E-004	...........
	5	1.55	4.36583E-003	3.98944E-003	5.88165E-004	...........
	6	1.80833	4.23547E-003	3.89551E-003	5.90465E-004	...........
	7	2.06667	4.11409E-003	3.81181E-003	5.82565E-004	...........
	8	2.325	4.00568E-003	3.73070E-003	5.85899E-004	...........
	9	2.58333	3.90903E-003	3.65733E-003	5.86965E-004	...........
	10	2.84167	3.82174E-003	3.59783E-003	5.82065E-004	...........
	11	3.1	3.74235E-003	3.53840E-003	5.89599E-004	...........
	12	3.35833	3.67033E-003	3.47932E-003	5.84265E-004	...........
	13	3.61667	3.60483E-003	3.43397E-003	5.88832E-004	...........
	14	3.875	3.54480E-003	3.38585E-003	5.75799E-004	...........
	15	4.13333	3.48957E-003	3.33903E-003	5.75399E-004	...........
	16	4.39167	3.43837E-003	3.29462E-003	5.75232E-004	...........
	17	4.65	3.39013E-003	3.25381E-003	5.75732E-004	...........
	18	4.90833	3.34417E-003	3.21728E-003	5.77599E-004	...........
EOC	QUANT	0.0033442	Open Circuit (V)
PSTATMODEL	IQUANT	4	Pstat Model
PSTATSECTION	LABEL	REF600-11020	Pstat Section
PSTATSERIALNO	LABEL	11020	Pstat Serial Number
CTRLMODE	IQUANT	1	Control Mode
IESTAB	IQUANT	0	I/E Stability
CASPEED	IQUANT	1	Control Amp Speed
CONVENTION	IQUANT	1	Current Convention
ICHRANGE	IQUANT	2	Ich Range
ICHRANGEMODE	TOGGLE	F	Ich Auto Range
ICHOFFSETENABLE	TOGGLE	T	Ich Offset Enable
ICHOFFSET	QUANT	0	Ich Offset (V)
ICHFILTER	IQUANT	3	Ich Filter
VCHRANGE	IQUANT	2	Vch Range
VCHRANGEMODE	TOGGLE	F	Vch Auto Range
VCHOFFSETENABLE	TOGGLE	T	Vch Offset Enable
VCHOFFSET	QUANT	0	Vch Offset (V)
VCHFILTER	IQUANT	3	Vch Filter
ACHRANGE	IQUANT	2	Ach Range
ACHOFFSETENABLE	TOGGLE	F	Ach Offset Enable
ACHOFFSET	QUANT	0	Ach Offset (V)
ACHFILTER	IQUANT	3	Ach Filter
IERANGELOWERLIMIT	IQUANT	1	I/E Range Lower Limit
IERANGEMODE	TOGGLE	F	I/E AutoRange
IERANGE	IQUANT	4	I/E Range
POSFEEDENABLE	TOGGLE	F	Positive Feedback IR Comp
POSFEEDRESISTANCE	QUANT	0	Positive Feedback Resistance (ohm)
ACHSELECT	IQUANT	0	Ach Select
CABLEID	IQUANT	14	Cable ID
DCCALDATE	LABEL	8/19/2019	DC Calibration Date
ACCALDATE	LABEL	8/19/2019	AC Calibration Date
THERMOSELECT	IQUANT	1	Thermo Select
FRAMEWORKVERSION	QUANT	6.33	Framework Version
INSTRUMENTVERSION	LABEL	3.50	Instrument Version
ZCURVE	TABLE
	Pt	Time	Freq	Zreal	Zimag	Zsig	Zmod	Zphz	Idc	Vdc	IERange
	#	s	Hz	ohm	ohm	V	ohm	°	A	V	#
	0	2	1000078	2267.674	-1469.805	1	2702.346	-32.94951	-5.871704E-006	0.0061967	8
	1	2	794390.6	2559.336	-1374.454	1	2905.052	-28.23738	9.737627E-006	0.0042944	8
	2	2	630984.4	2807.836	-1258.044	1	3076.787	-24.13466	-1.365402E-006	0.0055018	8
	3	3	501234.4	3011.749	-1112.866	1	3210.78	-20.27969	6.653625E-006	0.0041704	8
	4	3	398109.4	3158.562	-966.728	1	3303.192	-17.01757	-7.253309E-006	0.0058659	8
	5	3	316265.6	3270.333	-826.2733	1	3373.1	-14.17945	2.589259E-006	0.0043531	8
	6	3	251203.1	3362.906	-722.1354	1	3439.566	-12.1194	-1.670768E-006	0.0046091	8
	7	4	199546.9	3427.552	-614.9272	1	3482.276	-10.17107	-1.958122E-006	0.0049728	8
	8	4	158578.1	3482.486	-534.183	1	3523.217	-8.720701	-1.322508E-006	0.0052396	8
	9	4	125953.1	3536.076	-431.3057	1	3562.283	-6.954184	-2.391231E-006	0.0083064	7
	10	5	100078.1	3564.519	-387.8955	1	3585.562	-6.210562	-2.950847E-007	0.003923	7
	11	5	79453.13	3593.487	-359.4861	1	3611.424	-5.712761	-7.246448E-007	0.0046118	7
	12	5	63140.62	3621.148	-343.8174	1	3637.433	-5.423808	-1.114323E-006	0.0064357	7
	13	6	50203.12	3648.088	-334.7417	1	3663.413	-5.242673	-1.24527E-006	0.0062577	7
	14	6	39890.62	3676.136	-334.8835	1	3691.358	-5.205083	-1.247038E-006	0.0062588	7
	15	6	31640.63	3704.04	-344.7909	1	3720.053	-5.318059	-9.157303E-007	0.0064927	7
	16	7	25171.88	3734.444	-360.8929	1	3751.842	-5.519866	-3.037625E-007	0.0061639	7
	17	7	20015.62	3767.718	-387.0165	1	3787.543	-5.8648	8.319032E-007	0.0045868	7
	18	7	15890.62	3798.361	-422.0294	1	3821.734	-6.340032	3.844797E-007	0.005326	7
	19	8	12609.37	3831.552	-467.5335	1	3859.971	-6.956952	-3.041079E-007	0.0061557	7
	20	8	10078.13	3869.043	-523.1746	1	3904.255	-7.700864	-1.117583E-006	0.0064203	7
	21	8	8015.625	3906.055	-597.5637	1	3951.5	-8.697898	-2.955567E-007	0.0039016	7
	22	9	6328.125	3947.848	-690.6613	1	4007.807	-9.92326	1.000707E-006	0.0030723	7
	23	9	5015.625	3991.209	-806.3893	1	4071.856	-11.42235	1.105069E-006	0.0033055	7
	24	9	3984.375	4033.581	-947.7004	1	4143.417	-13.22198	-6.371251E-007	0.006397	7
	25	9	3170.956	4089.723	-1124.513	1	4241.504	-15.37415	1.00197E-006	0.0030713	7
	26	10	2527.573	4145.053	-1338.627	1	4355.845	-17.89764	6.262335E-008	0.0057537	7
	27	10	1976.103	4220.909	-1628.615	1	4524.208	-21.09883	3.852142E-007	0.0053206	7
	28	10	1577.524	4297.744	-1956.866	1	4722.28	-24.48091	-1.233886E-006	0.0058608	7
	29	11	1265.625	4388.546	-2344.963	1	4975.76	-28.11725	-9.148333E-007	0.0064732	7
	30	11	998.264	4501.975	-2866.169	1	5336.918	-32.48275	8.018915E-007	0.0029751	7
	31	11	796.875	4627.818	-3469.032	1	5783.674	-36.85538	1.001187E-006	0.0030646	7
	32	12	627.7902	4791.518	-4243.119	1	6400.211	-41.52643	6.500806E-008	0.005754	7
	33	12	505.5147	4969.585	-5112.783	1	7130.03	-45.81371	-7.306345E-007	0.0045855	7
	34	12	397.9953	5196.202	-6294.398	1	8162.105	-50.45937	1.877544E-009	0.0048008	7
	35	13	315.5048	5468.115	-7711.277	1	9453.258	-54.65931	4.12269E-009	0.0047893	7
	36	13	252.4038	5794.521	-9385.659	1	11030.28	-58.30964	1.400054E-009	0.0047309	6
	37	13	198.6229	6227.233	-11599.11	1	13165.02	-61.76991	1.267263E-009	0.0047375	6
	38	14	158.3615	6752.807	-14184.28	1	15709.68	-64.54196	1.245595E-009	0.0047366	6
	39	14	125.558	7448.569	-17427.1	1	18952.18	-66.85751	6.451614E-010	0.0047275	6
	40	14	100.4464	8330.753	-21264	1	22837.67	-68.60588	3.956891E-010	0.0047354	6
	41	15	79.00281	9524.9	-26318.74	1	27989.28	-70.10452	1.534836E-010	0.0047333	6
	42	15	63.3446	11108.54	-31571.99	1	33469.25	-70.61569	1.138442E-010	0.0047329	6
	43	15	49.86702	13298.19	-39039.07	1	41241.86	-71.1892	2.868349E-010	0.0047334	6
	44	16	39.72458	15819.85	-47657.84	1	50214.91	-71.6366	-1.14976E-010	0.0047391	6
	45	16	31.6723	19376.7	-57871.03	1	61028.78	-71.48814	-6.705428E-010	0.0047394	6
	46	16	24.93351	24288.78	-70223.77	1	74305.61	-70.92068	-2.3919E-010	0.004739	6
	47	17	19.86229	30419.9	-84260.41	1	89583.41	-70.14928	6.541242E-010	0.0047343	6
	48	17	15.83615	37697.17	-100384.4	1	107229.2	-69.41743	2.458122E-010	0.0047306	5
	49	17	12.40079	47989.18	-121862.4	1	130971	-68.50556	1.765616E-010	0.0047424	5
	50	18	9.93114	59839.86	-141703	1	153819.9	-67.10612	1.007653E-009	0.0047328	5
	51	18	7.944915	74331.8	-165689.4	1	181599	-65.83797	8.368125E-010	0.0047311	5
	52	19	6.317385	91874.14	-193965.5	1	214624	-64.65485	5.002691E-010	0.0047277	5
	53	20	5.008013	112900.4	-226169	1	252782.4	-63.47227	4.149799E-010	0.0047355	5
	54	21	3.945707	138474.7	-264260.4	1	298343.4	-62.34509	-1.649396E-010	0.0047332	5
	55	22	3.158693	165201.9	-303387.2	1	345449.7	-61.43061	3.490404E-011	0.004722	5
	56	24	2.504006	197646.5	-350783.5	1	402632.9	-60.60122	2.515662E-010	0.0047236	5
	57	25	1.998082	232893.5	-402345.3	1	464888.3	-59.93604	4.178626E-011	0.0047044	5
	58	27	1.584686	275031.9	-465127.9	1	540357.8	-59.40401	-5.185419E-011	0.0046782	5
	59	29	1.266892	319194.8	-534367.6	1	622442	-59.14878	-3.559936E-012	0.004698	5
	60	31	0.999041	372861.4	-618407.5	1	722117.4	-58.91263	1.041929E-011	0.0047255	5
