EXPLAIN
TAG	EISPOT
TITLE	LABEL	Potentiostatic EIS	Test &Identifier
DATE	LABEL	10/4/2019	Date
TIME	LABEL	10:16:46	Time
NOTES	NOTES	2	&Notes...
	
	
PSTAT	PSTAT	REF600-11020	Potentiostat
VDC	POTEN	0.00000E+000	T	DC &Voltage (V)
FREQINIT	QUANT	1.00000E+006	Initial Fre&q. (Hz)
FREQFINAL	QUANT	1.00000E+000	Final Fre&q. (Hz)
PTSPERDEC	QUANT	1.00000E+001	Points/&decade
VAC	QUANT	2.50000E+001	AC &Voltage (mV rms)
AREA	QUANT	1.00000E-002	&Area (cm^2)
CONDIT	TWOPARAM	T	5.00000E+000	0.00000E+000	Conditionin&g	Time(s)	E(V)
DELAY	TWOPARAM	T	5.00000E+000	0.00000E+000	Init. De&lay	Time(s)	Stab.(mV/s)
SPEED	SELECTOR	1	&Optimize for:
ZGUESS	QUANT	1.00000E+004	E&stimated Z (ohms)
OCVCURVE	TABLE	19
	Pt	T	Vf	Vm	Ach	Over
	#	s	V vs. Ref.	V	V	bits
	0	0.258333	-4.89867E-005	-4.89867E-005	5.68099E-004	...........
	1	0.516667	-4.89406E-005	-4.65764E-005	5.68099E-004	...........
	2	0.775	-4.87007E-005	-4.65330E-005	5.65066E-004	...........
	3	1.03333	-4.81802E-005	-4.73267E-005	5.67732E-004	...........
	4	1.29167	-4.75987E-005	-4.83230E-005	5.70566E-004	...........
	5	1.55	-4.73152E-005	-4.79837E-005	5.69932E-004	...........
	6	1.80833	-4.74101E-005	-4.75637E-005	5.72166E-004	...........
	7	2.06667	-4.76311E-005	-4.72450E-005	5.69366E-004	...........
	8	2.325	-4.77334E-005	-4.81700E-005	5.74699E-004	...........
	9	2.58333	-4.77554E-005	-4.95217E-005	5.73499E-004	...........
	10	2.84167	-4.79195E-005	-4.90240E-005	5.71032E-004	...........
	11	3.1	-4.83026E-005	-4.93973E-005	5.71999E-004	...........
	12	3.35833	-4.87866E-005	-5.15043E-005	5.67799E-004	...........
	13	3.61667	-4.93430E-005	-5.19963E-005	5.66366E-004	...........
	14	3.875	-5.00029E-005	-4.93900E-005	5.68299E-004	...........
	15	4.13333	-5.05464E-005	-5.02963E-005	5.63966E-004	...........
	16	4.39167	-5.07235E-005	-5.15513E-005	5.68366E-004	...........
	17	4.65	-5.06784E-005	-5.07143E-005	5.69332E-004	...........
	18	4.90833	-5.06676E-005	-4.95393E-005	5.67866E-004	...........
EOC	QUANT	-5.066764E-005	Open Circuit (V)
PSTATMODEL	IQUANT	4	Pstat Model
PSTATSECTION	LABEL	REF600-11020	Pstat Section
PSTATSERIALNO	LABEL	11020	Pstat Serial Number
CTRLMODE	IQUANT	1	Control Mode
IESTAB	IQUANT	0	I/E Stability
CASPEED	IQUANT	1	Control Amp Speed
CONVENTION	IQUANT	1	Current Convention
ICHRANGE	IQUANT	2	Ich Range
ICHRANGEMODE	TOGGLE	F	Ich Auto Range
ICHOFFSETENABLE	TOGGLE	T	Ich Offset Enable
ICHOFFSET	QUANT	0	Ich Offset (V)
ICHFILTER	IQUANT	3	Ich Filter
VCHRANGE	IQUANT	2	Vch Range
VCHRANGEMODE	TOGGLE	F	Vch Auto Range
VCHOFFSETENABLE	TOGGLE	T	Vch Offset Enable
VCHOFFSET	QUANT	0	Vch Offset (V)
VCHFILTER	IQUANT	3	Vch Filter
ACHRANGE	IQUANT	2	Ach Range
ACHOFFSETENABLE	TOGGLE	F	Ach Offset Enable
ACHOFFSET	QUANT	0	Ach Offset (V)
ACHFILTER	IQUANT	3	Ach Filter
IERANGELOWERLIMIT	IQUANT	1	I/E Range Lower Limit
IERANGEMODE	TOGGLE	F	I/E AutoRange
IERANGE	IQUANT	3	I/E Range
POSFEEDENABLE	TOGGLE	F	Positive Feedback IR Comp
POSFEEDRESISTANCE	QUANT	0	Positive Feedback Resistance (ohm)
ACHSELECT	IQUANT	0	Ach Select
CABLEID	IQUANT	14	Cable ID
DCCALDATE	LABEL	8/19/2019	DC Calibration Date
ACCALDATE	LABEL	8/19/2019	AC Calibration Date
THERMOSELECT	IQUANT	1	Thermo Select
FRAMEWORKVERSION	QUANT	6.33	Framework Version
INSTRUMENTVERSION	LABEL	3.50	Instrument Version
ZCURVE	TABLE
	Pt	Time	Freq	Zreal	Zimag	Zsig	Zmod	Zphz	Idc	Vdc	IERange
	#	s	Hz	ohm	ohm	V	ohm	°	A	V	#
	0	1	1000078	2579.52	-2060.206	1	3301.268	-38.61359	-4.022869E-006	0.0038443	8
	1	2	794390.6	3025.278	-2009.851	1	3632.053	-33.59818	9.942795E-007	0.0024764	8
	2	4	630984.4	3429.137	-1879.131	1	3910.258	-28.72228	-2.090643E-006	0.0024244	8
	3	6	501234.4	3777.662	-1685.31	1	4136.544	-24.04285	4.002499E-006	0.0010859	8
	4	7	398109.4	4037.331	-1476.487	1	4298.843	-20.08791	-2.008486E-006	0.0021007	8
	5	9	316265.6	4244.71	-1240.689	1	4422.316	-16.29315	5.40819E-007	0.0016054	8
	6	10	251203.1	4385.084	-1040.548	1	4506.851	-13.34897	4.610938E-007	0.0016022	8
	7	12	199546.9	4473.611	-863.5478	1	4556.194	-10.92551	-1.624291E-006	0.0016533	8
	8	13	158578.1	4519.999	-708.7015	1	4575.221	-8.910994	5.025629E-007	0.001339	8
	9	15	125953.1	4502.724	-641.1284	1	4548.139	-8.10369	1.153764E-006	-0.0009182	7
	10	16	100078.1	4541.688	-558.3735	1	4575.884	-7.009002	4.145407E-008	0.0013059	7
	11	18	79453.13	4579.798	-512.3721	1	4608.37	-6.383511	4.183539E-008	0.0013482	7
	12	20	63140.62	4598.566	-477.0989	1	4623.25	-5.923216	8.065451E-008	0.0012962	7
	13	21	50203.12	4634.395	-463.7916	1	4657.544	-5.714904	-7.028537E-008	0.0016916	7
	14	23	39890.62	4672.714	-455.749	1	4694.887	-5.570673	6.367866E-010	0.0015074	7
	15	24	31640.63	4708.674	-461.5405	1	4731.24	-5.598204	-2.344304E-008	0.0015455	7
	16	25	25171.88	4745.303	-477.2248	1	4769.24	-5.742803	-3.286465E-008	0.0015544	7
	17	27	20015.62	4786.292	-508.8863	1	4813.268	-6.06898	4.397239E-008	0.0014534	7
	18	28	15890.62	4828.364	-545.0968	1	4859.036	-6.441119	-6.054749E-009	0.0015637	7
	19	29	12609.37	4872.157	-599.9192	1	4908.953	-7.019619	7.98544E-010	0.0015386	7
	20	31	10078.13	4916.246	-669.7139	1	4961.652	-7.757348	-4.046101E-008	0.001604	7
	21	32	8015.625	4965.48	-760.0242	1	5023.309	-8.702243	4.310431E-008	0.0014521	7
	22	34	6328.125	5019.316	-879.842	1	5095.847	-9.94243	4.380438E-008	0.0014492	7
	23	35	5015.625	5073.144	-1025.932	1	5175.84	-11.43263	-6.349324E-009	0.0015551	7
	24	37	3984.375	5135.922	-1208.154	1	5276.11	-13.23737	-4.570313E-008	0.0016329	7
	25	39	3170.956	5201.985	-1429.351	1	5394.784	-15.36402	-4.697673E-008	0.0016342	7
	26	40	2527.573	5282.736	-1696.078	1	5548.331	-17.79978	-1.484711E-010	0.0015272	7
	27	42	1976.103	5369.241	-2067.681	1	5753.612	-21.06157	-1.058896E-008	0.0015679	7
	28	43	1577.524	5480.84	-2466.662	1	6010.327	-24.23021	-4.135644E-008	0.0016273	7
	29	45	1265.625	5590.371	-2961.548	1	6326.375	-27.9128	4.369937E-008	0.0014482	7
	30	46	998.264	5723.548	-3623.057	1	6773.887	-32.33418	7.351199E-008	0.0014267	7
	31	48	796.875	5890.919	-4375.511	1	7338.121	-36.60331	-6.588493E-008	0.0016816	7
	32	49	627.7902	6081.912	-5388.454	1	8125.582	-41.54031	-1.963907E-008	0.001553	7
	33	51	505.5147	6319.732	-6471.741	1	9045.576	-45.68085	3.30287E-008	0.0014797	7
	34	52	397.9953	6647.479	-7974.051	1	10381.45	-50.1841	1.159766E-009	0.0015066	6
	35	53	315.5048	7020.869	-9776.28	1	12036.12	-54.31585	1.686399E-009	0.0015007	6
	36	55	252.4038	7477.254	-11901.66	1	14055.56	-57.86079	-2.965825E-010	0.0014973	6
	37	56	198.6229	8111.965	-14708.24	1	16796.91	-61.12216	1.04263E-009	0.0014997	6
	38	57	158.3615	8897.286	-17959.9	1	20042.95	-63.64631	1.122577E-009	0.0014959	6
	39	59	125.558	9961.79	-22031.82	1	24179.3	-65.66968	1.045548E-009	0.0014957	6
	40	60	100.4464	11308.51	-26777.01	1	29067.01	-67.10461	9.76989E-010	0.0014938	6
	41	61	79.00281	13273.08	-32980.89	1	35551.57	-68.0778	8.507065E-010	0.0014948	6
	42	63	63.3446	15696.59	-39965.55	1	42937.49	-68.55743	7.542372E-010	0.0014933	6
	43	64	49.86702	19160.86	-48557.56	1	52201.3	-68.46577	2.708143E-010	0.0014935	6
	44	66	39.72458	23831.86	-58354.23	1	63033.12	-67.7849	1.168976E-009	0.0014961	6
	45	67	31.6723	29650.83	-69689.45	1	75735.01	-66.95166	1.29904E-009	0.001495	6
	46	68	24.93351	37970.01	-83216.94	1	91470.11	-65.47385	1.01575E-009	0.0014915	6
	47	70	19.86229	48156.89	-97469.1	1	108716.6	-63.70725	8.194668E-010	0.0015079	5
	48	71	15.83615	60591.94	-112889.6	1	128122.8	-61.77594	9.833763E-010	0.0015002	5
	49	72	12.40079	75788.12	-130866.2	1	151227.7	-59.92373	2.303896E-010	0.0015042	5
	50	74	9.93114	92368.65	-147865.5	1	174345	-58.0078	4.576756E-010	0.001501	5
	51	75	7.944915	110625.2	-166159.9	1	199617.2	-56.3453	5.268011E-010	0.0015012	5
	52	77	6.317385	130456.1	-186103	1	227273.3	-54.96998	-1.348546E-010	0.0015153	5
	53	79	5.008013	152303.3	-208580.8	1	258267.8	-53.86351	5.874164E-010	0.0014928	5
	54	81	3.945707	174836.9	-235216	1	293077.7	-53.37644	3.813481E-010	0.0015016	5
	55	84	3.158693	197373	-264068	1	329678.7	-53.22436	-2.72533E-011	0.0015095	5
	56	87	2.504006	222092	-300579.1	1	373728	-53.54003	1.514724E-010	0.0014914	5
	57	90	1.998082	247917.8	-344164.7	1	424161.1	-54.23304	1.206577E-010	0.001511	5
	58	93	1.584686	277507.4	-396203.9	1	483722.9	-54.992	1.851422E-010	0.001549	5
	59	97	1.266892	310172.6	-459352.8	1	554267.1	-55.97128	9.10691E-011	0.0015206	5
	60	101	0.999041	347668.3	-535851.3	1	638756.6	-57.02389	4.477166E-010	0.0015113	5
