EXPLAIN
TAG	EISPOT
TITLE	LABEL	Potentiostatic EIS	Test &Identifier
DATE	LABEL	11/15/2019	Date
TIME	LABEL	10:00:03	Time
NOTES	NOTES	4	&Notes...
	
	
	
	
PSTAT	PSTAT	REF600-11020	Potentiostat
VDC	POTEN	0.00000E+000	T	DC &Voltage (V)
FREQINIT	QUANT	1.00000E+006	Initial Fre&q. (Hz)
FREQFINAL	QUANT	1.00000E+000	Final Fre&q. (Hz)
PTSPERDEC	QUANT	1.00000E+001	Points/&decade
VAC	QUANT	2.50000E+001	AC &Voltage (mV rms)
AREA	QUANT	1.00000E-002	&Area (cm^2)
CONDIT	TWOPARAM	T	5.00000E+000	0.00000E+000	Conditionin&g	Time(s)	E(V)
DELAY	TWOPARAM	T	5.00000E+000	0.00000E+000	Init. De&lay	Time(s)	Stab.(mV/s)
SPEED	SELECTOR	0	&Optimize for:
ZGUESS	QUANT	1.00000E+005	E&stimated Z (ohms)
OCVCURVE	TABLE	19
	Pt	T	Vf	Vm	Ach	Over
	#	s	V vs. Ref.	V	V	bits
	0	0.258333	6.65426E-003	6.65426E-003	5.62866E-004	...........
	1	0.516667	6.65474E-003	6.67924E-003	5.58466E-004	...........
	2	0.775	6.65757E-003	6.69789E-003	5.60366E-004	...........
	3	1.03333	6.66583E-003	6.74502E-003	5.61832E-004	...........
	4	1.29167	6.68246E-003	6.79236E-003	5.62399E-004	...........
	5	1.55	6.70927E-003	6.84246E-003	5.63732E-004	...........
	6	1.80833	6.74608E-003	6.90003E-003	5.59766E-004	...........
	7	2.06667	6.79084E-003	6.94947E-003	5.59099E-004	...........
	8	2.325	6.84088E-003	7.01374E-003	5.59099E-004	...........
	9	2.58333	6.89433E-003	7.07403E-003	5.61932E-004	...........
	10	2.84167	6.95044E-003	7.13140E-003	5.59166E-004	...........
	11	3.1	7.00878E-003	7.19996E-003	5.61232E-004	...........
	12	3.35833	7.06868E-003	7.25125E-003	5.59099E-004	...........
	13	3.61667	7.12941E-003	7.32047E-003	5.60066E-004	...........
	14	3.875	7.19038E-003	7.37783E-003	5.58732E-004	...........
	15	4.13333	7.25139E-003	7.43495E-003	5.59132E-004	...........
	16	4.39167	7.31220E-003	7.50031E-003	5.64199E-004	...........
	17	4.65	7.37251E-003	7.54897E-003	5.64766E-004	...........
	18	4.90833	7.43199E-003	7.60989E-003	5.62166E-004	...........
EOC	QUANT	0.007432	Open Circuit (V)
PSTATMODEL	IQUANT	4	Pstat Model
PSTATSECTION	LABEL	REF600-11020	Pstat Section
PSTATSERIALNO	LABEL	11020	Pstat Serial Number
CTRLMODE	IQUANT	1	Control Mode
IESTAB	IQUANT	0	I/E Stability
CASPEED	IQUANT	1	Control Amp Speed
CONVENTION	IQUANT	1	Current Convention
ICHRANGE	IQUANT	2	Ich Range
ICHRANGEMODE	TOGGLE	F	Ich Auto Range
ICHOFFSETENABLE	TOGGLE	T	Ich Offset Enable
ICHOFFSET	QUANT	0	Ich Offset (V)
ICHFILTER	IQUANT	3	Ich Filter
VCHRANGE	IQUANT	2	Vch Range
VCHRANGEMODE	TOGGLE	F	Vch Auto Range
VCHOFFSETENABLE	TOGGLE	T	Vch Offset Enable
VCHOFFSET	QUANT	0	Vch Offset (V)
VCHFILTER	IQUANT	3	Vch Filter
ACHRANGE	IQUANT	2	Ach Range
ACHOFFSETENABLE	TOGGLE	F	Ach Offset Enable
ACHOFFSET	QUANT	0	Ach Offset (V)
ACHFILTER	IQUANT	3	Ach Filter
IERANGELOWERLIMIT	IQUANT	1	I/E Range Lower Limit
IERANGEMODE	TOGGLE	F	I/E AutoRange
IERANGE	IQUANT	5	I/E Range
POSFEEDENABLE	TOGGLE	F	Positive Feedback IR Comp
POSFEEDRESISTANCE	QUANT	0	Positive Feedback Resistance (ohm)
ACHSELECT	IQUANT	0	Ach Select
CABLEID	IQUANT	14	Cable ID
DCCALDATE	LABEL	8/19/2019	DC Calibration Date
ACCALDATE	LABEL	8/19/2019	AC Calibration Date
THERMOSELECT	IQUANT	1	Thermo Select
FRAMEWORKVERSION	QUANT	6.33	Framework Version
INSTRUMENTVERSION	LABEL	3.50	Instrument Version
ZCURVE	TABLE
	Pt	Time	Freq	Zreal	Zimag	Zsig	Zmod	Zphz	Idc	Vdc	IERange
	#	s	Hz	ohm	ohm	V	ohm	°	A	V	#
	0	2	1000078	1924.15	-999.92	1	2168.454	-27.45949	1.683746E-006	0.0103338	8
	1	2	794390.6	2102.499	-914.6153	1	2292.82	-23.50969	-2.365747E-006	0.0098898	8
	2	2	630984.4	2245.673	-817.3334	1	2389.787	-19.99944	3.03355E-007	0.0088975	8
	3	3	501234.4	2361.735	-711.6844	1	2466.635	-16.76964	-4.242658E-007	0.0096434	8
	4	3	398109.4	2444.87	-620.5419	1	2522.392	-14.24172	-1.29072E-008	0.008764	8
	5	3	316265.6	2514.894	-536.2467	1	2571.43	-12.03682	-2.679034E-006	0.0090159	8
	6	4	251203.1	2564.776	-469.8931	1	2607.466	-10.38203	-1.460751E-006	0.0088368	8
	7	4	199546.9	2606.111	-411.811	1	2638.447	-8.979487	-8.251703E-007	0.0095034	8
	8	4	158578.1	2633.078	-363.086	1	2657.994	-7.851236	-3.522609E-006	0.0096087	8
	9	4	125953.1	2682.674	-302.9025	1	2699.72	-6.442022	-3.68836E-007	0.0071725	7
	10	5	100078.1	2703.824	-284.0511	1	2718.704	-5.997227	9.071493E-007	0.0074829	7
	11	5	79453.13	2725.48	-277.6429	1	2739.585	-5.816619	9.356172E-007	0.0083742	7
	12	5	63140.62	2750.526	-280.0725	1	2764.749	-5.814108	7.236305E-007	0.0073928	7
	13	6	50203.12	2775	-286.5551	1	2789.757	-5.895641	7.670083E-007	0.0088228	7
	14	6	39890.62	2803.257	-297.5846	1	2819.008	-6.059638	-6.673012E-007	0.0088556	7
	15	6	31640.63	2832.242	-317.3022	1	2849.96	-6.392316	-9.685344E-007	0.0094979	7
	16	7	25171.88	2862.87	-342.6071	1	2883.297	-6.824282	-1.136389E-006	0.0100305	7
	17	7	20015.62	2898.931	-375.3385	1	2923.128	-7.377318	4.565208E-007	0.0074852	7
	18	7	15890.62	2936.88	-414.9629	1	2966.051	-8.042301	9.078401E-007	0.0074665	7
	19	8	12609.37	2977.055	-461.9783	1	3012.687	-8.820784	-1.023854E-006	0.0105314	7
	20	8	10078.13	3022.761	-517.5413	1	3066.746	-9.71568	-2.720785E-007	0.0082196	7
	21	8	8015.625	3076.616	-585.5405	1	3131.84	-10.77564	7.67621E-007	0.0088193	7
	22	9	6328.125	3130.985	-667.1767	1	3201.279	-12.02915	5.699456E-007	0.0092089	7
	23	9	5015.625	3193.952	-762.3637	1	3283.676	-13.42473	5.695769E-007	0.009207	7
	24	9	3984.375	3263.697	-873.0444	1	3378.45	-14.97607	-9.706362E-007	0.0094981	7
	25	10	3170.956	3338.394	-1008.734	1	3487.466	-16.81279	4.584882E-007	0.0074794	7
	26	10	2527.573	3419.85	-1165.357	1	3612.953	-18.81719	1.007205E-006	0.0076778	7
	27	10	1976.103	3517.245	-1368.146	1	3773.968	-21.25515	7.669396E-007	0.0088216	7
	28	11	1577.524	3612.931	-1596.103	1	3949.787	-23.83464	-2.72852E-007	0.0082175	7
	29	11	1265.625	3720.3	-1859.823	1	4159.276	-26.56102	-6.699187E-007	0.0088568	7
	30	11	998.264	3839.21	-2204.228	1	4426.98	-29.86168	-2.713954E-007	0.0082151	7
	31	11	796.875	3964.169	-2607.3	1	4744.75	-33.33359	9.379302E-007	0.0083649	7
	32	12	627.7902	4104.793	-3130.917	1	5162.554	-37.33446	9.109879E-007	0.007463	7
	33	12	505.5147	4247.004	-3709.67	1	5639.033	-41.13654	-2.711487E-007	0.0102706	7
	34	12	397.9953	4417.348	-4512.308	1	6314.578	-45.60927	5.592256E-009	0.0090409	7
	35	13	315.5048	4609.484	-5481.729	1	7162.171	-49.94014	5.431172E-009	0.009038	7
	36	13	252.4038	4826.475	-6635.142	1	8204.875	-53.96745	4.790631E-009	0.0090409	7
	37	13	198.6229	5110.706	-8173.335	1	9639.64	-57.98267	1.810139E-009	0.0090439	7
	38	14	158.3615	5447.961	-9972.58	1	11363.65	-61.35248	9.115775E-010	0.0089734	6
	39	14	125.558	5881.71	-12247.01	1	13586.16	-64.34704	2.76031E-010	0.0089751	6
	40	14	100.4464	6400.519	-14926.8	1	16241.19	-66.79065	9.261316E-010	0.0089814	6
	41	15	79.00281	7116.47	-18463.52	1	19787.51	-68.92163	5.663624E-011	0.0089704	6
	42	15	63.3446	8147.509	-22554.05	1	23980.56	-70.13806	1.066743E-010	0.0089725	6
	43	15	49.86702	9297.903	-27844.28	1	29355.67	-71.53455	-4.870932E-010	0.0089812	6
	44	16	39.72458	10778.74	-33853.48	1	35528	-72.33884	4.981893E-010	0.0089795	6
	45	16	31.6723	12689.82	-41147.44	1	43059.77	-72.8603	-3.566646E-010	0.0089822	6
	46	16	24.93351	15350.6	-50682.86	1	52956.52	-73.14972	2.34171E-010	0.0089796	6
	47	17	19.86229	18650.97	-61585.07	1	64347.33	-73.15112	1.773742E-009	0.008979	6
	48	17	15.83615	23067.18	-74248.45	1	77749.13	-72.74126	-1.047888E-009	0.0089672	6
	49	17	12.40079	29227.98	-91033.08	1	95610.1	-72.19975	-1.285652E-009	0.0089726	6
	50	18	9.93114	35567.49	-109151.6	1	114800.3	-71.95159	6.092431E-010	0.0089857	5
	51	18	7.944915	44235.14	-130300.1	1	137604	-71.24833	8.123149E-010	0.0089722	5
	52	19	6.317385	55559.18	-156280.1	1	165862.3	-70.42918	3.97073E-010	0.0089616	5
	53	20	5.008013	69973.12	-186864.1	1	199535.6	-69.47109	2.666317E-010	0.0089896	5
	54	21	3.945707	88705.85	-223676.5	1	240624	-68.36766	-2.470379E-010	0.0089814	5
	55	22	3.158693	109787.3	-262661.2	1	284682.5	-67.31602	-1.016616E-010	0.0089612	5
	56	24	2.504006	136864.8	-309885.6	1	338764.1	-66.17075	1.414965E-010	0.0089673	5
	57	25	1.998082	168003	-361272.6	1	398425.6	-65.0601	-7.424797E-011	0.0089526	5
	58	27	1.584686	207126.8	-423111.3	1	471088.8	-63.91675	-1.693891E-010	0.0089213	5
	59	29	1.266892	250044.4	-490415.8	1	550481.5	-62.98469	-1.5017E-010	0.0089378	5
	60	31	0.999041	303986.8	-570682.6	1	646596.1	-61.957	-1.378964E-010	0.0089619	5
