EXPLAIN
TAG	EISPOT
TITLE	LABEL	Potentiostatic EIS	Test &Identifier
DATE	LABEL	10/14/2019	Date
TIME	LABEL	11:53:09	Time
NOTES	NOTES	1	&Notes...
	
PSTAT	PSTAT	REF600-11020	Potentiostat
VDC	POTEN	0.00000E+000	T	DC &Voltage (V)
FREQINIT	QUANT	1.00000E+006	Initial Fre&q. (Hz)
FREQFINAL	QUANT	1.00000E+000	Final Fre&q. (Hz)
PTSPERDEC	QUANT	1.00000E+001	Points/&decade
VAC	QUANT	2.50000E+001	AC &Voltage (mV rms)
AREA	QUANT	1.00000E-002	&Area (cm^2)
CONDIT	TWOPARAM	T	5.00000E+000	0.00000E+000	Conditionin&g	Time(s)	E(V)
DELAY	TWOPARAM	T	5.00000E+000	0.00000E+000	Init. De&lay	Time(s)	Stab.(mV/s)
SPEED	SELECTOR	1	&Optimize for:
ZGUESS	QUANT	1.00000E+004	E&stimated Z (ohms)
OCVCURVE	TABLE	19
	Pt	T	Vf	Vm	Ach	Over
	#	s	V vs. Ref.	V	V	bits
	0	0.258333	6.42649E-003	6.42649E-003	5.63732E-004	...........
	1	0.516667	6.42691E-003	6.44866E-003	5.65899E-004	...........
	2	0.775	6.42990E-003	6.48994E-003	5.66299E-004	...........
	3	1.03333	6.43992E-003	6.54416E-003	5.64799E-004	...........
	4	1.29167	6.46152E-003	6.59417E-003	5.62466E-004	...........
	5	1.55	6.49607E-003	6.65769E-003	5.64499E-004	...........
	6	1.80833	6.54141E-003	6.71091E-003	5.59766E-004	...........
	7	2.06667	6.59393E-003	6.77471E-003	5.60632E-004	...........
	8	2.325	6.65038E-003	6.82789E-003	5.63699E-004	...........
	9	2.58333	6.70846E-003	6.88770E-003	5.65666E-004	...........
	10	2.84167	6.76679E-003	6.94440E-003	5.64699E-004	...........
	11	3.1	6.82496E-003	7.00928E-003	5.64666E-004	...........
	12	3.35833	6.88358E-003	7.07590E-003	5.71432E-004	...........
	13	3.61667	6.94406E-003	7.15559E-003	5.68499E-004	...........
	14	3.875	7.00740E-003	7.19310E-003	5.60599E-004	...........
	15	4.13333	7.07168E-003	7.23673E-003	5.62899E-004	...........
	16	4.39167	7.13213E-003	7.27610E-003	5.60266E-004	...........
	17	4.65	7.18537E-003	7.32117E-003	5.69699E-004	...........
	18	4.90833	7.23224E-003	7.36724E-003	5.66999E-004	...........
EOC	QUANT	0.0072322	Open Circuit (V)
PSTATMODEL	IQUANT	4	Pstat Model
PSTATSECTION	LABEL	REF600-11020	Pstat Section
PSTATSERIALNO	LABEL	11020	Pstat Serial Number
CTRLMODE	IQUANT	1	Control Mode
IESTAB	IQUANT	0	I/E Stability
CASPEED	IQUANT	1	Control Amp Speed
CONVENTION	IQUANT	1	Current Convention
ICHRANGE	IQUANT	2	Ich Range
ICHRANGEMODE	TOGGLE	F	Ich Auto Range
ICHOFFSETENABLE	TOGGLE	T	Ich Offset Enable
ICHOFFSET	QUANT	0	Ich Offset (V)
ICHFILTER	IQUANT	3	Ich Filter
VCHRANGE	IQUANT	2	Vch Range
VCHRANGEMODE	TOGGLE	F	Vch Auto Range
VCHOFFSETENABLE	TOGGLE	T	Vch Offset Enable
VCHOFFSET	QUANT	0	Vch Offset (V)
VCHFILTER	IQUANT	3	Vch Filter
ACHRANGE	IQUANT	2	Ach Range
ACHOFFSETENABLE	TOGGLE	F	Ach Offset Enable
ACHOFFSET	QUANT	0	Ach Offset (V)
ACHFILTER	IQUANT	3	Ach Filter
IERANGELOWERLIMIT	IQUANT	1	I/E Range Lower Limit
IERANGEMODE	TOGGLE	F	I/E AutoRange
IERANGE	IQUANT	6	I/E Range
POSFEEDENABLE	TOGGLE	F	Positive Feedback IR Comp
POSFEEDRESISTANCE	QUANT	0	Positive Feedback Resistance (ohm)
ACHSELECT	IQUANT	0	Ach Select
CABLEID	IQUANT	14	Cable ID
DCCALDATE	LABEL	8/19/2019	DC Calibration Date
ACCALDATE	LABEL	8/19/2019	AC Calibration Date
THERMOSELECT	IQUANT	1	Thermo Select
FRAMEWORKVERSION	QUANT	6.33	Framework Version
INSTRUMENTVERSION	LABEL	3.50	Instrument Version
ZCURVE	TABLE
	Pt	Time	Freq	Zreal	Zimag	Zsig	Zmod	Zphz	Idc	Vdc	IERange
	#	s	Hz	ohm	ohm	V	ohm	°	A	V	#
	0	1	1000078	2394.648	-1606.525	1	2883.619	-33.85693	1.180562E-006	0.0094631	8
	1	2	794390.6	2698.919	-1542.096	1	3108.412	-29.74258	4.996688E-007	0.0091215	8
	2	4	630984.4	2974.384	-1437.915	1	3303.719	-25.80064	-5.506029E-007	0.0090473	8
	3	5	501234.4	3222.51	-1301.368	1	3475.36	-21.99067	-2.573628E-006	0.009609	8
	4	7	398109.4	3423.653	-1174.861	1	3619.627	-18.94018	-7.087497E-007	0.0092262	8
	5	8	316265.6	3579.993	-1030.984	1	3725.49	-16.06561	3.536136E-006	0.0082055	8
	6	9	251203.1	3712.632	-897.3411	1	3819.536	-13.58776	-1.309661E-006	0.00905	8
	7	11	199546.9	3811.625	-760.0683	1	3886.668	-11.27731	3.241608E-006	0.0081533	8
	8	12	158578.1	3886.29	-669.7072	1	3943.571	-9.7775	-1.220371E-006	0.0090877	8
	9	13	125953.1	3975.531	-550.5538	1	4013.472	-7.884491	-9.110566E-007	0.0101383	7
	10	15	100078.1	4006.781	-482.0452	1	4035.674	-6.860132	8.549055E-008	0.0087476	7
	11	16	79453.13	4046.492	-436.9533	1	4070.016	-6.163103	1.243154E-009	0.0087642	7
	12	17	63140.62	4080.811	-402.8252	1	4100.645	-5.63752	6.101378E-008	0.0087006	7
	13	19	50203.12	4112.94	-379.2702	1	4130.39	-5.268567	4.17815E-008	0.0087478	7
	14	20	39890.62	4144.766	-366.2258	1	4160.914	-5.049462	2.591781E-009	0.0087595	7
	15	21	31640.63	4173.417	-363.0195	1	4189.176	-4.971289	-5.115548E-009	0.008835	7
	16	23	25171.88	4202.726	-367.4062	1	4218.755	-4.996148	-3.130974E-008	0.0088004	7
	17	24	20015.62	4236.054	-382.809	1	4253.315	-5.163751	8.708765E-008	0.0087295	7
	18	25	15890.62	4264.172	-406.8156	1	4283.534	-5.449706	-6.337661E-008	0.0088709	7
	19	27	12609.37	4295.969	-443.0147	1	4318.751	-5.887722	-6.244525E-008	0.0088746	7
	20	28	10078.13	4329.042	-488.3054	1	4356.495	-6.435622	-3.71996E-008	0.0088037	7
	21	29	8015.625	4362.418	-551.3572	1	4397.123	-7.203305	1.076629E-008	0.0087209	7
	22	31	6328.125	4401.62	-628.9393	1	4446.327	-8.131844	9.294228E-009	0.0088852	7
	23	32	5015.625	4439.451	-727.4169	1	4498.651	-9.305391	8.912384E-008	0.008727	7
	24	33	3984.375	4478.734	-855.5062	1	4559.709	-10.81409	-4.224807E-009	0.008843	7
	25	35	3170.956	4523.043	-1005.646	1	4633.492	-12.53515	-2.061297E-008	0.0088395	7
	26	36	2527.573	4569.665	-1195.118	1	4723.361	-14.65645	1.095071E-008	0.0087207	7
	27	38	1976.103	4626.866	-1457.329	1	4850.948	-17.48292	1.165823E-007	0.0086266	7
	28	39	1577.524	4690.788	-1768.214	1	5012.99	-20.65416	1.132889E-008	0.0087137	7
	29	40	1265.625	4756.195	-2110.556	1	5203.445	-23.9292	-3.712618E-008	0.0087984	7
	30	42	998.264	4843.61	-2587.001	1	5491.187	-28.10694	4.310577E-008	0.0086573	7
	31	43	796.875	4944.086	-3148.132	1	5861.29	-32.48682	-6.300001E-008	0.0088693	7
	32	44	627.7902	5075.44	-3882.438	1	6390.104	-37.41404	8.722464E-008	0.0087289	7
	33	46	505.5147	5222.474	-4698.457	1	7024.937	-41.97648	4.102854E-008	0.0086573	7
	34	47	397.9953	5424.708	-5813.883	1	7951.647	-46.98328	4.727428E-009	0.0088015	7
	35	48	315.5048	5673.238	-7149.583	1	9127.002	-51.56778	4.40023E-009	0.0088069	7
	36	50	252.4038	5977.615	-8723.984	1	10575.43	-55.58132	1.38325E-009	0.0087456	6
	37	51	198.6229	6393.116	-10802.64	1	12552.65	-59.3825	9.111491E-010	0.0087442	6
	38	52	158.3615	6901.226	-13219.98	1	14912.91	-62.43409	7.895134E-010	0.0087431	6
	39	54	125.558	7579.93	-16244.46	1	17925.9	-64.98548	8.849622E-010	0.0087426	6
	40	55	100.4464	8422.116	-19794.03	1	21511.29	-66.95084	3.733705E-010	0.0087421	6
	41	56	79.00281	9651.71	-24415.5	1	26253.99	-68.43059	6.467857E-010	0.0087397	6
	42	58	63.3446	11050.03	-29445.83	1	31450.92	-69.43057	6.679807E-010	0.0087384	6
	43	59	49.86702	13228.93	-36401.49	1	38730.78	-70.02798	2.954292E-010	0.0087423	6
	44	61	39.72458	15667.82	-44088.84	1	46790.02	-70.43635	6.003485E-010	0.0087441	6
	45	62	31.6723	19121.11	-53249.49	1	56578.49	-70.24753	5.34298E-010	0.0087435	6
	46	63	24.93351	23594.27	-64750.52	1	68915.3	-69.9789	1.441597E-010	0.00874	6
	47	65	19.86229	29223.79	-77563.22	1	82885.96	-69.3549	1.260111E-010	0.0087376	6
	48	66	15.83615	35864.31	-92888.22	1	99571.4	-68.88834	-7.105422E-010	0.0087422	6
	49	67	12.40079	45940.09	-111363.9	1	120467.4	-67.58276	7.262577E-011	0.0087522	5
	50	69	9.93114	57129.22	-130934.6	1	142855.2	-66.42745	-5.073914E-012	0.0087466	5
	51	70	7.944915	71337.06	-153677.9	1	169428.1	-65.09933	-3.368867E-010	0.0087466	5
	52	72	6.317385	88750.86	-179318.9	1	200079.9	-63.66766	-8.753116E-011	0.0087413	5
	53	74	5.008013	110559	-208512.2	1	236009.8	-62.06621	-1.949362E-010	0.0087406	5
	54	77	3.945707	137632.2	-241129.2	1	277643.4	-60.28305	3.506071E-010	0.0087534	5
	55	79	3.158693	166223.9	-274996.6	1	321330.8	-58.8488	-2.127795E-010	0.0087276	5
	56	83	2.504006	200912.1	-312883.1	1	371835.4	-57.2942	6.420324E-010	0.0087395	5
	57	85	1.998082	239182.5	-351438.1	1	425108.2	-55.7615	1.891953E-010	0.0087777	5
	58	88	1.584686	278810.2	-394960.7	1	483455.3	-54.781	2.559331E-010	0.0087392	5
	59	92	1.266892	322384.5	-441805.4	1	546922.1	-53.88185	2.225035E-011	0.0087843	5
	60	96	0.999041	368963.8	-498754.3	1	620395.1	-53.50706	7.296742E-011	0.008708	5
