EXPLAIN
TAG	EISPOT
TITLE	LABEL	Potentiostatic EIS	Test &Identifier
DATE	LABEL	11/27/2019	Date
TIME	LABEL	13:53:13	Time
NOTES	NOTES	3	&Notes...
	
	
	
PSTAT	PSTAT	REF600-11020	Potentiostat
VDC	POTEN	0.00000E+000	T	DC &Voltage (V)
FREQINIT	QUANT	1.00000E+006	Initial Fre&q. (Hz)
FREQFINAL	QUANT	1.00000E+000	Final Fre&q. (Hz)
PTSPERDEC	QUANT	1.00000E+001	Points/&decade
VAC	QUANT	2.50000E+001	AC &Voltage (mV rms)
AREA	QUANT	1.00000E-002	&Area (cm^2)
CONDIT	TWOPARAM	T	5.00000E+000	0.00000E+000	Conditionin&g	Time(s)	E(V)
DELAY	TWOPARAM	T	5.00000E+000	0.00000E+000	Init. De&lay	Time(s)	Stab.(mV/s)
SPEED	SELECTOR	0	&Optimize for:
ZGUESS	QUANT	1.00000E+005	E&stimated Z (ohms)
OCVCURVE	TABLE	19
	Pt	T	Vf	Vm	Ach	Over
	#	s	V vs. Ref.	V	V	bits
	0	0.258333	8.49307E-002	8.49307E-002	5.79399E-004	...........
	1	0.516667	8.50100E-002	8.90809E-002	5.84732E-004	...........
	2	0.775	8.54923E-002	9.27753E-002	5.84732E-004	...........
	3	1.03333	8.68371E-002	9.60994E-002	5.80266E-004	...........
	4	1.29167	8.91917E-002	9.90944E-002	5.76432E-004	...........
	5	1.55	9.22282E-002	1.01834E-001	5.76366E-004	...........
	6	1.80833	9.54634E-002	1.04331E-001	5.80532E-004	...........
	7	2.06667	9.85660E-002	1.06627E-001	5.74966E-004	...........
	8	2.325	1.01407E-001	1.08738E-001	5.80132E-004	...........
	9	2.58333	1.03979E-001	1.10691E-001	5.79799E-004	...........
	10	2.84167	1.06318E-001	1.12488E-001	5.74565E-004	...........
	11	3.1	1.08460E-001	1.14160E-001	5.72432E-004	...........
	12	3.35833	1.10432E-001	1.15716E-001	5.81565E-004	...........
	13	3.61667	1.12255E-001	1.17159E-001	5.83332E-004	...........
	14	3.875	1.13945E-001	1.18511E-001	5.77399E-004	...........
	15	4.13333	1.15515E-001	1.19764E-001	5.78932E-004	...........
	16	4.39167	1.16976E-001	1.20942E-001	5.88599E-004	...........
	17	4.65	1.18338E-001	1.22033E-001	5.82399E-004	...........
	18	4.90833	1.19607E-001	1.23063E-001	5.79499E-004	...........
EOC	QUANT	0.1196069	Open Circuit (V)
PSTATMODEL	IQUANT	4	Pstat Model
PSTATSECTION	LABEL	REF600-11020	Pstat Section
PSTATSERIALNO	LABEL	11020	Pstat Serial Number
CTRLMODE	IQUANT	1	Control Mode
IESTAB	IQUANT	0	I/E Stability
CASPEED	IQUANT	1	Control Amp Speed
CONVENTION	IQUANT	1	Current Convention
ICHRANGE	IQUANT	2	Ich Range
ICHRANGEMODE	TOGGLE	F	Ich Auto Range
ICHOFFSETENABLE	TOGGLE	T	Ich Offset Enable
ICHOFFSET	QUANT	0	Ich Offset (V)
ICHFILTER	IQUANT	3	Ich Filter
VCHRANGE	IQUANT	2	Vch Range
VCHRANGEMODE	TOGGLE	F	Vch Auto Range
VCHOFFSETENABLE	TOGGLE	T	Vch Offset Enable
VCHOFFSET	QUANT	0	Vch Offset (V)
VCHFILTER	IQUANT	3	Vch Filter
ACHRANGE	IQUANT	2	Ach Range
ACHOFFSETENABLE	TOGGLE	F	Ach Offset Enable
ACHOFFSET	QUANT	0	Ach Offset (V)
ACHFILTER	IQUANT	3	Ach Filter
IERANGELOWERLIMIT	IQUANT	1	I/E Range Lower Limit
IERANGEMODE	TOGGLE	F	I/E AutoRange
IERANGE	IQUANT	6	I/E Range
POSFEEDENABLE	TOGGLE	F	Positive Feedback IR Comp
POSFEEDRESISTANCE	QUANT	0	Positive Feedback Resistance (ohm)
ACHSELECT	IQUANT	0	Ach Select
CABLEID	IQUANT	14	Cable ID
DCCALDATE	LABEL	8/19/2019	DC Calibration Date
ACCALDATE	LABEL	8/19/2019	AC Calibration Date
THERMOSELECT	IQUANT	1	Thermo Select
FRAMEWORKVERSION	QUANT	6.33	Framework Version
INSTRUMENTVERSION	LABEL	3.50	Instrument Version
ZCURVE	TABLE
	Pt	Time	Freq	Zreal	Zimag	Zsig	Zmod	Zphz	Idc	Vdc	IERange
	#	s	Hz	ohm	ohm	V	ohm	°	A	V	#
	0	1	1000078	1570.433	-1965.054	1	2515.491	-51.36882	-5.34487E-006	0.1212477	8
	1	1	794390.6	1839.675	-2209.625	1	2875.213	-50.22013	2.778755E-006	0.1217408	8
	2	2	630984.4	2147.248	-2458.847	1	3264.445	-48.87012	-2.144057E-006	0.1216017	8
	3	2	501234.4	2498.333	-2748.9	1	3714.582	-47.73393	-1.275218E-007	0.1215617	8
	4	2	398109.4	2918.425	-3065.449	1	4232.515	-46.40748	-1.317869E-006	0.1214237	8
	5	3	316265.6	3394.298	-3375.245	1	4786.809	-44.83874	-1.409512E-006	0.1207836	8
	6	3	251203.1	3966.624	-3665.705	1	5401.064	-42.74217	-7.600196E-007	0.1214036	8
	7	3	199546.9	4633.956	-3950.361	1	6089.245	-40.44698	-2.841324E-007	0.120747	8
	8	4	158578.1	5386.843	-4148.217	1	6798.954	-37.59859	1.628473E-006	0.1212796	8
	9	4	125953.1	6272.357	-4256.52	1	7580.265	-34.16143	1.346562E-006	0.1157308	7
	10	4	100078.1	7009.817	-4309.935	1	8228.795	-31.58497	1.220018E-007	0.1219353	7
	11	5	79453.13	7878.838	-4156.742	1	8908.119	-27.81537	2.38304E-008	0.1196318	7
	12	5	63140.62	8715.247	-4052.759	1	9611.47	-24.93934	1.124201E-006	0.1193613	7
	13	5	50203.12	9294.3	-3744.177	1	10020.12	-21.94187	-2.544825E-007	0.1223405	7
	14	6	39890.62	9950.53	-3442.111	1	10529.06	-19.08165	4.545691E-007	0.1214667	7
	15	6	31640.63	10442.23	-3026.437	1	10871.96	-16.16299	4.251579E-007	0.119261	7
	16	7	25171.88	10697.26	-2651.946	1	11021.08	-13.92342	-1.289729E-006	0.1221598	7
	17	7	20015.62	11026.37	-2345.721	1	11273.12	-12.00992	-4.136708E-007	0.1201864	7
	18	7	15890.62	11258.62	-2070.802	1	11447.47	-10.42195	-1.139968E-006	0.1215917	7
	19	8	12609.37	11674.11	-1894.575	1	11826.84	-9.218087	1.160884E-006	0.1196758	7
	20	8	10078.13	11744.42	-1693.16	1	11865.84	-8.203648	7.537291E-007	0.1190998	7
	21	8	8015.625	11771.07	-1483.658	1	11864.21	-7.183831	-2.110344E-007	0.12302	6
	22	8	6328.125	11995.04	-1438.667	1	12081.01	-6.839297	1.009429E-007	0.1213553	6
	23	9	5015.625	12011.77	-1432.558	1	12096.89	-6.801136	-7.876324E-008	0.1235508	6
	24	9	3984.375	12110.01	-1476.658	1	12199.7	-6.952157	1.805352E-007	0.1185566	6
	25	9	3170.956	12054.95	-1577.674	1	12157.75	-7.456128	-1.421901E-007	0.1209918	6
	26	10	2527.573	12127.46	-1736.884	1	12251.2	-8.15043	-1.415236E-007	0.1209885	6
	27	10	1976.103	12314.09	-1996.747	1	12474.92	-9.210426	1.638823E-007	0.1181703	6
	28	10	1577.524	12363.26	-2270.998	1	12570.11	-10.40859	-1.852202E-007	0.124018	6
	29	11	1265.625	12507.58	-2697.76	1	12795.22	-12.17166	4.414723E-008	0.1222307	6
	30	11	998.264	12508.78	-3206.319	1	12913.17	-14.37684	-2.746424E-008	0.1191779	6
	31	11	796.875	12729.5	-3859.158	1	13301.63	-16.86555	-1.798881E-008	0.1229761	6
	32	12	627.7902	12788.9	-4660.845	1	13611.74	-20.02399	-2.647019E-008	0.119183	6
	33	12	505.5147	13053.71	-5629.421	1	14215.83	-23.32816	-1.768769E-008	0.1229646	6
	34	12	397.9953	13240.63	-6885.118	1	14923.77	-27.47441	-6.362398E-010	0.1209074	6
	35	13	315.5048	13514.99	-8419.646	1	15923.11	-31.92232	-2.345645E-009	0.1209105	6
	36	13	252.4038	13841.11	-10235.4	1	17214.52	-36.48264	-1.448501E-009	0.1209078	6
	37	13	198.6229	14295.86	-12635.12	1	19079.25	-41.47123	-1.686037E-009	0.1209129	6
	38	14	158.3615	14836.56	-15452.13	1	21421.76	-46.16429	-1.702784E-009	0.1209099	6
	39	14	125.558	15563.43	-18962.04	1	24531.19	-50.62196	-2.022034E-009	0.1209117	6
	40	14	100.4464	16446.16	-23049.35	1	28315.17	-54.4914	-1.549893E-009	0.1209121	6
	41	15	79.00281	17785.87	-28459.04	1	33559.71	-57.99611	-1.405048E-009	0.1209095	6
	42	15	63.3446	19178.99	-35076.26	1	39977.21	-61.33106	-2.476487E-009	0.1208999	6
	43	15	49.86702	21281.09	-42979.39	1	47959.48	-63.65786	-1.056696E-009	0.1209059	6
	44	16	39.72458	24284.43	-51884.56	1	57286.48	-64.91818	-2.161916E-009	0.1209003	6
	45	16	31.6723	27862.95	-62761.92	1	68668.79	-66.06133	-1.153416E-009	0.1208958	6
	46	16	24.93351	32745.2	-76940.2	1	83618.43	-66.94574	-1.238507E-009	0.1209019	6
	47	17	19.86229	38965.95	-92946.09	1	100783.5	-67.25503	-1.412152E-009	0.1209088	6
	48	17	15.83615	46210.15	-111006.4	1	120240.6	-67.39884	-2.309988E-009	0.1209019	5
	49	17	12.40079	58589.53	-134979.7	1	147147.1	-66.53618	-2.814958E-009	0.1209152	5
	50	18	9.93114	72885.8	-160237.1	1	176034.8	-65.54101	-1.851205E-009	0.1209135	5
	51	18	7.944915	89942.45	-188487.9	1	208847.6	-64.4905	-1.019069E-009	0.1209004	5
	52	19	6.317385	112679.9	-221366.9	1	248394.9	-63.02306	-8.483411E-010	0.1208995	5
	53	20	5.008013	141691.5	-256824.4	1	293317.6	-61.11423	-5.534805E-010	0.1209046	5
	54	21	3.945707	178333	-297917.6	1	347214	-59.09533	-1.043381E-009	0.1208983	5
	55	22	3.158693	217988.1	-336913.8	1	401285.1	-57.09655	-7.223083E-010	0.1208842	5
	56	24	2.504006	266232.4	-379115.4	1	463258.3	-54.92169	-4.307547E-010	0.1208914	5
	57	25	1.998082	318225.5	-422213.8	1	528707.8	-52.9944	-3.320074E-010	0.1208703	5
	58	27	1.584686	379550.1	-469440.5	1	603682.6	-51.04391	-4.352248E-010	0.1208465	5
	59	29	1.266892	442688.9	-517159.7	1	680755.2	-49.43646	-3.158441E-010	0.12087	5
	60	31	0.999041	515848.1	-569470.5	1	768372.3	-47.82852	-1.998092E-010	0.1208953	5
