EXPLAIN
TAG	EISPOT
TITLE	LABEL	Potentiostatic IDE	Test &Identifier
DATE	LABEL	9/10/2019	Date
TIME	LABEL	9:22:02	Time
NOTES	NOTES	1	&Notes...
	
PSTAT	PSTAT	REF600-11020	Potentiostat
VDC	POTEN	0.00000E+000	T	DC &Voltage (V)
FREQINIT	QUANT	1.00000E+006	Initial Fre&q. (Hz)
FREQFINAL	QUANT	1.00000E+000	Final Fre&q. (Hz)
PTSPERDEC	QUANT	1.00000E+001	Points/&decade
VAC	QUANT	2.50000E+001	AC &Voltage (mV rms)
AREA	QUANT	1.00000E-002	&Area (cm^2)
CONDIT	TWOPARAM	T	5.00000E+000	0.00000E+000	Conditionin&g	Time(s)	E(V)
DELAY	TWOPARAM	T	5.00000E+000	0.00000E+000	Init. De&lay	Time(s)	Stab.(mV/s)
SPEED	SELECTOR	1	&Optimize for:
ZGUESS	QUANT	1.00000E+007	E&stimated Z (ohms)
OCVCURVE	TABLE	19
	Pt	T	Vf	Vm	Ach	Over
	#	s	V vs. Ref.	V	V	bits
	0	0.258333	3.54837E-003	3.54837E-003	5.50633E-004	...........
	1	0.516667	3.54334E-003	3.28520E-003	5.47166E-004	...........
	2	0.775	3.51290E-003	3.05855E-003	5.53433E-004	...........
	3	1.03333	3.42856E-003	2.85734E-003	5.49433E-004	...........
	4	1.29167	3.28223E-003	2.68537E-003	5.44899E-004	...........
	5	1.55	3.09570E-003	2.51256E-003	5.47966E-004	...........
	6	1.80833	2.89915E-003	2.36385E-003	5.52099E-004	...........
	7	2.06667	2.71173E-003	2.22411E-003	5.51066E-004	...........
	8	2.325	2.54013E-003	2.09480E-003	5.53032E-004	...........
	9	2.58333	2.38424E-003	1.96805E-003	5.51966E-004	...........
	10	2.84167	2.24112E-003	1.84155E-003	5.41733E-004	...........
	11	3.1	2.10696E-003	1.72058E-003	5.44566E-004	...........
	12	3.35833	1.97874E-003	1.61628E-003	5.45433E-004	...........
	13	3.61667	1.85569E-003	1.51399E-003	5.49999E-004	...........
	14	3.875	1.73894E-003	1.42393E-003	5.49666E-004	...........
	15	4.13333	1.62948E-003	1.31995E-003	5.51966E-004	...........
	16	4.39167	1.52671E-003	1.24382E-003	5.46966E-004	...........
	17	4.65	1.42935E-003	1.15165E-003	5.52199E-004	...........
	18	4.90833	1.33640E-003	1.06045E-003	5.53466E-004	...........
EOC	QUANT	0.0013364	Open Circuit (V)
PSTATMODEL	IQUANT	4	Pstat Model
PSTATSECTION	LABEL	REF600-11020	Pstat Section
PSTATSERIALNO	LABEL	11020	Pstat Serial Number
CTRLMODE	IQUANT	1	Control Mode
IESTAB	IQUANT	0	I/E Stability
CASPEED	IQUANT	1	Control Amp Speed
CONVENTION	IQUANT	1	Current Convention
ICHRANGE	IQUANT	2	Ich Range
ICHRANGEMODE	TOGGLE	F	Ich Auto Range
ICHOFFSETENABLE	TOGGLE	T	Ich Offset Enable
ICHOFFSET	QUANT	0	Ich Offset (V)
ICHFILTER	IQUANT	3	Ich Filter
VCHRANGE	IQUANT	2	Vch Range
VCHRANGEMODE	TOGGLE	F	Vch Auto Range
VCHOFFSETENABLE	TOGGLE	T	Vch Offset Enable
VCHOFFSET	QUANT	0	Vch Offset (V)
VCHFILTER	IQUANT	3	Vch Filter
ACHRANGE	IQUANT	2	Ach Range
ACHOFFSETENABLE	TOGGLE	F	Ach Offset Enable
ACHOFFSET	QUANT	0	Ach Offset (V)
ACHFILTER	IQUANT	3	Ach Filter
IERANGELOWERLIMIT	IQUANT	1	I/E Range Lower Limit
IERANGEMODE	TOGGLE	F	I/E AutoRange
IERANGE	IQUANT	2	I/E Range
POSFEEDENABLE	TOGGLE	F	Positive Feedback IR Comp
POSFEEDRESISTANCE	QUANT	0	Positive Feedback Resistance (ohm)
ACHSELECT	IQUANT	0	Ach Select
CABLEID	IQUANT	14	Cable ID
DCCALDATE	LABEL	8/19/2019	DC Calibration Date
ACCALDATE	LABEL	8/19/2019	AC Calibration Date
THERMOSELECT	IQUANT	1	Thermo Select
FRAMEWORKVERSION	QUANT	6.33	Framework Version
INSTRUMENTVERSION	LABEL	3.50	Instrument Version
ZCURVE	TABLE
	Pt	Time	Freq	Zreal	Zimag	Zsig	Zmod	Zphz	Idc	Vdc	IERange
	#	s	Hz	ohm	ohm	V	ohm	°	A	V	#
	0	2	1000078	2620.561	-1989.477	1	3290.191	-37.20503	-7.028748E-006	0.0045713	8
	1	3	794390.6	3028.271	-1954.608	1	3604.292	-32.84035	2.468779E-006	0.0033651	8
	2	5	630984.4	3402.038	-1843.726	1	3869.52	-28.45537	-1.165664E-006	0.0030351	8
	3	6	501234.4	3731.07	-1679.61	1	4091.696	-24.23577	-1.176101E-006	0.0034068	8
	4	7	398109.4	3999.642	-1532.244	1	4283.096	-20.9616	-1.276559E-006	0.0032416	8
	5	9	316265.6	4227.042	-1367.96	1	4442.882	-17.93268	-5.190643E-007	0.0031641	8
	6	10	251203.1	4389.231	-1194.766	1	4548.936	-15.22721	3.557009E-007	0.0027956	8
	7	11	199546.9	4512.836	-1033.554	1	4629.679	-12.89972	1.38408E-007	0.0029968	8
	8	13	158578.1	4610.2	-916.8664	1	4700.488	-11.24809	-1.137087E-006	0.0031214	8
	9	14	125953.1	4714.166	-781.6862	1	4778.534	-9.414919	1.059763E-006	0.0006083	7
	10	15	100078.1	4777.092	-714.5195	1	4830.233	-8.506783	-5.883671E-010	0.0028674	7
	11	17	79453.13	4837.197	-666.2396	1	4882.863	-7.842155	-1.62999E-008	0.0028984	7
	12	18	63140.62	4892.252	-640.1395	1	4933.955	-7.454665	3.414137E-008	0.002757	7
	13	19	50203.12	4949.268	-628.0742	1	4988.96	-7.232316	-5.971915E-009	0.0028267	7
	14	21	39890.62	5002.267	-635.4085	1	5042.461	-7.239177	-5.840719E-008	0.0029415	7
	15	22	31640.63	5059.686	-650.8302	1	5101.373	-7.329739	5.252043E-008	0.0027754	7
	16	23	25171.88	5119.129	-684.189	1	5164.648	-7.61266	7.725036E-008	0.0027989	7
	17	25	20015.62	5181.886	-735.7819	1	5233.862	-8.08147	-1.965817E-008	0.0028547	7
	18	26	15890.62	5254.221	-802.6795	1	5315.179	-8.685836	-2.899227E-008	0.0028648	7
	19	27	12609.37	5326.889	-885.9007	1	5400.053	-9.442288	-7.925302E-009	0.002904	7
	20	29	10078.13	5406.96	-985.521	1	5496.042	-10.32984	6.596759E-008	0.0027242	7
	21	30	8015.625	5499.347	-1109.115	1	5610.076	-11.40253	3.730897E-008	0.0028173	7
	22	32	6328.125	5601.92	-1269.276	1	5743.916	-12.76645	1.843766E-008	0.0027838	7
	23	33	5015.625	5717.496	-1456.054	1	5899.987	-14.2876	-5.917605E-008	0.0030355	7
	24	34	3984.375	5842.736	-1665.216	1	6075.402	-15.90788	6.693642E-008	0.0027273	7
	25	36	3170.956	5988.112	-1936.029	1	6293.306	-17.91665	1.506749E-008	0.0027887	7
	26	37	2527.573	6150.392	-2239.688	1	6545.496	-20.00929	5.008836E-008	0.0027652	7
	27	38	1976.103	6349.016	-2637.75	1	6875.153	-22.56084	-4.804581E-008	0.0029431	7
	28	40	1577.524	6555.505	-3075.287	1	7240.997	-25.13199	-5.647991E-008	0.002932	7
	29	41	1265.625	6781.156	-3576.796	1	7666.651	-27.80991	-8.399767E-009	0.0028974	7
	30	42	998.264	7062.32	-4227.143	1	8230.741	-30.90258	-4.956668E-009	0.002818	7
	31	43	796.875	7350.73	-4963.254	1	8869.449	-34.02744	1.687195E-008	0.0027794	7
	32	45	627.7902	7688.477	-5911.151	1	9698.16	-37.55426	1.255896E-008	0.0025781	6
	33	46	505.5147	8021.65	-6960.479	1	10620.51	-40.94856	4.103423E-009	0.0026225	6
	34	48	397.9953	8465.344	-8349.497	1	11890.17	-44.60526	7.373344E-010	0.0028159	6
	35	49	315.5048	8939.85	-10018.07	1	13426.94	-48.25516	5.958219E-010	0.0028152	6
	36	50	252.4038	9467.251	-11979.55	1	15268.87	-51.68124	8.38124E-010	0.0028154	6
	37	52	198.6229	10130.64	-14562.33	1	17739.54	-55.17465	8.058861E-010	0.0028195	6
	38	53	158.3615	10880.64	-17566.17	1	20662.98	-58.22555	5.917052E-010	0.0028113	6
	39	54	125.558	11798.68	-21332.47	1	24377.92	-61.05366	6.677175E-010	0.0028222	6
	40	56	100.4464	12871.74	-25742.48	1	28781.2	-63.43406	4.356251E-010	0.0028164	6
	41	57	79.00281	14328.25	-31590	1	34687.56	-65.60242	6.147362E-010	0.0028185	6
	42	58	63.3446	15999.92	-37895.51	1	41134.74	-67.10997	8.039303E-010	0.0028125	6
	43	60	49.86702	18113.24	-46846.97	1	50226.77	-68.86116	5.962489E-010	0.002806	6
	44	61	39.72458	20829.17	-56705.93	1	60410.4	-69.83075	9.914164E-010	0.0028137	6
	45	62	31.6723	24136.86	-68839.58	1	72948.45	-70.67807	7.546408E-010	0.002815	6
	46	64	24.93351	28917.45	-84327.5	1	89147.89	-71.07221	9.031409E-010	0.0028099	6
	47	65	19.86229	34663.88	-102126	1	107848.5	-71.25162	1.029436E-009	0.0028212	5
	48	66	15.83615	42346.36	-123634.7	1	130685.7	-71.09306	1.249057E-010	0.0028149	5
	49	68	12.40079	52302.24	-150524	1	159351.8	-70.83931	7.624303E-011	0.0028204	5
	50	69	9.93114	65381.26	-180342.2	1	191828.1	-70.0724	7.449792E-010	0.0028154	5
	51	71	7.944915	81342.71	-215036.8	1	229907.5	-69.2797	2.603381E-010	0.0028248	5
	52	72	6.317385	102311	-256064.1	1	275746.9	-68.22071	4.022357E-010	0.0028284	5
	53	74	5.008013	128991.4	-304733.6	1	330909.8	-67.05743	5.324852E-010	0.0028287	5
	54	77	3.945707	163903.9	-361122.4	1	396577.8	-65.58796	1.325192E-010	0.0028189	5
	55	79	3.158693	203681	-420428.9	1	467168.5	-64.15166	9.259607E-011	0.002805	5
	56	83	2.504006	254233.2	-489780.3	1	551832.7	-62.56725	5.308926E-010	0.0028159	5
	57	85	1.998082	314231.1	-563501.9	1	645194.2	-60.85422	3.143671E-010	0.0028523	5
	58	89	1.584686	384242.1	-645605.3	1	751297.6	-59.24035	3.458676E-010	0.0028246	5
	59	92	1.266892	466404.3	-731620.9	1	867641.7	-57.48271	1.133266E-010	0.0028587	5
	60	96	0.999041	561754.1	-829005.8	1	1001408	-55.8775	2.943889E-010	0.0027935	5
