EXPLAIN
TAG	EISPOT
TITLE	LABEL	Potentiostatic EIS	Test &Identifier
DATE	LABEL	11/12/2019	Date
TIME	LABEL	22:32:46	Time
NOTES	NOTES	3	&Notes...
	
	
	
PSTAT	PSTAT	REF600-11020	Potentiostat
VDC	POTEN	0.00000E+000	T	DC &Voltage (V)
FREQINIT	QUANT	1.00000E+006	Initial Fre&q. (Hz)
FREQFINAL	QUANT	1.00000E+000	Final Fre&q. (Hz)
PTSPERDEC	QUANT	1.00000E+001	Points/&decade
VAC	QUANT	2.50000E+001	AC &Voltage (mV rms)
AREA	QUANT	1.00000E-002	&Area (cm^2)
CONDIT	TWOPARAM	T	5.00000E+000	0.00000E+000	Conditionin&g	Time(s)	E(V)
DELAY	TWOPARAM	T	5.00000E+000	0.00000E+000	Init. De&lay	Time(s)	Stab.(mV/s)
SPEED	SELECTOR	1	&Optimize for:
ZGUESS	QUANT	1.00000E+005	E&stimated Z (ohms)
OCVCURVE	TABLE	19
	Pt	T	Vf	Vm	Ach	Over
	#	s	V vs. Ref.	V	V	bits
	0	0.258333	4.52177E-003	4.52177E-003	5.28566E-004	...........
	1	0.516667	4.51834E-003	4.34200E-003	5.37799E-004	...........
	2	0.775	4.49754E-003	4.18696E-003	5.35766E-004	...........
	3	1.03333	4.44009E-003	4.05895E-003	5.34333E-004	...........
	4	1.29167	4.34103E-003	3.94229E-003	5.30366E-004	...........
	5	1.55	4.21589E-003	3.83313E-003	5.29000E-004	...........
	6	1.80833	4.08535E-003	3.73632E-003	5.27800E-004	...........
	7	2.06667	3.96220E-003	3.64797E-003	5.38233E-004	...........
	8	2.325	3.85074E-003	3.57073E-003	5.35366E-004	...........
	9	2.58333	3.75108E-003	3.50237E-003	5.35066E-004	...........
	10	2.84167	3.66213E-003	3.43355E-003	5.34633E-004	...........
	11	3.1	3.58227E-003	3.37297E-003	5.30200E-004	...........
	12	3.35833	3.50971E-003	3.31896E-003	5.40066E-004	...........
	13	3.61667	3.44298E-003	3.25800E-003	5.30366E-004	...........
	14	3.875	3.38076E-003	3.20193E-003	5.32033E-004	...........
	15	4.13333	3.32257E-003	3.20575E-003	5.33666E-004	...........
	16	4.39167	3.27010E-003	3.11733E-003	5.35499E-004	...........
	17	4.65	3.22369E-003	3.09013E-003	5.43333E-004	...........
	18	4.90833	3.17954E-003	3.02901E-003	5.44566E-004	...........
EOC	QUANT	0.0031795	Open Circuit (V)
PSTATMODEL	IQUANT	4	Pstat Model
PSTATSECTION	LABEL	REF600-11020	Pstat Section
PSTATSERIALNO	LABEL	11020	Pstat Serial Number
CTRLMODE	IQUANT	1	Control Mode
IESTAB	IQUANT	0	I/E Stability
CASPEED	IQUANT	1	Control Amp Speed
CONVENTION	IQUANT	1	Current Convention
ICHRANGE	IQUANT	2	Ich Range
ICHRANGEMODE	TOGGLE	F	Ich Auto Range
ICHOFFSETENABLE	TOGGLE	T	Ich Offset Enable
ICHOFFSET	QUANT	0	Ich Offset (V)
ICHFILTER	IQUANT	3	Ich Filter
VCHRANGE	IQUANT	2	Vch Range
VCHRANGEMODE	TOGGLE	F	Vch Auto Range
VCHOFFSETENABLE	TOGGLE	T	Vch Offset Enable
VCHOFFSET	QUANT	0	Vch Offset (V)
VCHFILTER	IQUANT	3	Vch Filter
ACHRANGE	IQUANT	2	Ach Range
ACHOFFSETENABLE	TOGGLE	F	Ach Offset Enable
ACHOFFSET	QUANT	0	Ach Offset (V)
ACHFILTER	IQUANT	3	Ach Filter
IERANGELOWERLIMIT	IQUANT	1	I/E Range Lower Limit
IERANGEMODE	TOGGLE	F	I/E AutoRange
IERANGE	IQUANT	4	I/E Range
POSFEEDENABLE	TOGGLE	F	Positive Feedback IR Comp
POSFEEDRESISTANCE	QUANT	0	Positive Feedback Resistance (ohm)
ACHSELECT	IQUANT	0	Ach Select
CABLEID	IQUANT	14	Cable ID
DCCALDATE	LABEL	8/19/2019	DC Calibration Date
ACCALDATE	LABEL	8/19/2019	AC Calibration Date
THERMOSELECT	IQUANT	1	Thermo Select
FRAMEWORKVERSION	QUANT	6.33	Framework Version
INSTRUMENTVERSION	LABEL	3.50	Instrument Version
ZCURVE	TABLE
	Pt	Time	Freq	Zreal	Zimag	Zsig	Zmod	Zphz	Idc	Vdc	IERange
	#	s	Hz	ohm	ohm	V	ohm	°	A	V	#
	0	2	1000078	2282.9	-1640.341	1	2811.113	-35.69852	-3.838915E-006	0.0062673	8
	1	3	794390.6	2607.56	-1563.012	1	3040.128	-30.93913	3.76398E-007	0.0056811	8
	2	4	630984.4	2895.385	-1453.558	1	3239.766	-26.65783	-1.752129E-006	0.0047807	8
	3	6	501234.4	3148.736	-1304.75	1	3408.359	-22.50777	7.024978E-006	0.0041693	8
	4	7	398109.4	3337.203	-1158.798	1	3532.667	-19.14886	-5.978167E-006	0.0056398	8
	5	8	316265.6	3495.326	-1006.93	1	3637.473	-16.07058	-1.953185E-006	0.0052807	8
	6	10	251203.1	3597.955	-872.9034	1	3702.329	-13.6371	-2.7972E-007	0.0052221	8
	7	11	199546.9	3691.387	-757.0566	1	3768.219	-11.58993	-7.161944E-007	0.0051909	8
	8	13	158578.1	3753.566	-658.1032	1	3810.821	-9.94445	5.041947E-006	0.0041915	8
	9	14	125953.1	3825.934	-542.4741	1	3864.201	-8.070098	-2.092982E-006	0.0077093	7
	10	15	100078.1	3851.132	-489.8839	1	3882.165	-7.249385	-1.095497E-006	0.0060714	7
	11	17	79453.13	3902.551	-452.1328	1	3928.655	-6.60858	6.982428E-007	0.0031787	7
	12	18	63140.62	3936.236	-428.807	1	3959.524	-6.21719	-5.567376E-007	0.0062002	7
	13	19	50203.12	3968.878	-416.5821	1	3990.681	-5.99195	-1.095648E-006	0.0060631	7
	14	21	39890.62	4003.711	-416.517	1	4025.318	-5.939271	-2.603175E-007	0.0059784	7
	15	22	31640.63	4039.553	-427.0049	1	4062.059	-6.034099	6.438769E-008	0.0056232	7
	16	24	25171.88	4077.18	-448.9803	1	4101.827	-6.284108	7.488903E-007	0.004555	7
	17	25	20015.62	4114.072	-480.4564	1	4142.032	-6.661038	5.481676E-007	0.0049476	7
	18	26	15890.62	4152.83	-524.0594	1	4185.766	-7.192327	-2.743773E-007	0.003992	7
	19	28	12609.37	4204.062	-583.3234	1	4244.337	-7.899487	9.130799E-007	0.0041129	7
	20	29	10078.13	4246.25	-650.3503	1	4295.765	-8.707683	7.510547E-007	0.0045516	7
	21	30	8015.625	4291.703	-740.4073	1	4355.102	-9.78835	-1.093636E-006	0.0057322	7
	22	32	6328.125	4345.948	-854.5051	1	4429.159	-11.12366	-9.383318E-007	0.0052219	7
	23	33	5015.625	4408.673	-996.037	1	4519.789	-12.73091	7.023465E-007	0.0031637	7
	24	34	3984.375	4467.418	-1159.38	1	4615.408	-14.5484	-6.551385E-007	0.0046091	7
	25	36	3170.956	4536.091	-1378.647	1	4740.969	-16.90551	-5.611788E-007	0.0062033	7
	26	37	2527.573	4610.365	-1637.826	1	4892.642	-19.55751	-8.121068E-007	0.0062815	7
	27	39	1976.103	4704.462	-1986.639	1	5106.731	-22.89376	1.098454E-007	0.0035142	7
	28	40	1577.524	4812.378	-2394.997	1	5375.406	-26.45835	7.024637E-007	0.0031612	7
	29	41	1265.625	4913.904	-2851.895	1	5681.528	-30.1297	-6.547728E-007	0.0046041	7
	30	43	998.264	5054.358	-3473.12	1	6132.625	-34.49504	9.871389E-007	0.0037349	7
	31	44	796.875	5213.349	-4192.055	1	6689.719	-38.80277	-1.100302E-006	0.0057333	7
	32	46	627.7902	5413.12	-5133.119	1	7459.945	-43.47916	-1.096902E-006	0.0060591	7
	33	47	505.5147	5630.458	-6179.222	1	8359.716	-47.66047	-9.82594E-007	0.0062192	7
	34	48	397.9953	5912.933	-7613.996	1	9640.32	-52.16754	3.475668E-009	0.0047826	7
	35	50	315.5048	6259.282	-9324.398	1	11230.45	-56.12733	6.665675E-010	0.0047136	6
	36	51	252.4038	6667.597	-11341.21	1	13155.99	-59.54836	8.379161E-010	0.0047114	6
	37	53	198.6229	7216.065	-14008.49	1	15757.84	-62.74606	1.608532E-009	0.0047221	6
	38	54	158.3615	7892.236	-17112.24	1	18844.52	-65.24065	5.343377E-010	0.0047154	6
	39	55	125.558	8787.841	-20999.56	1	22764.18	-67.29179	6.746679E-010	0.0047147	6
	40	57	100.4464	9923.91	-25555.28	1	27414.53	-68.77725	1.24242E-009	0.0047127	6
	41	58	79.00281	11461.35	-31559.56	1	33576.31	-70.04072	7.519951E-010	0.0047107	6
	42	59	63.3446	13145.07	-38329.68	1	40521.07	-71.07072	5.104562E-010	0.0047189	6
	43	61	49.86702	16309.63	-46636.28	1	49405.93	-70.72426	-4.367529E-011	0.0047061	6
	44	62	39.72458	19625.69	-56721.46	1	60020.76	-70.91432	1.154718E-009	0.0047148	6
	45	64	31.6723	24236.3	-68540.16	1	72699.05	-70.52604	5.36107E-010	0.004712	6
	46	65	24.93351	30449.44	-82998.13	1	88407.34	-69.85348	6.667673E-010	0.0047139	6
	47	66	19.86229	38193.3	-99174	1	106274.2	-68.93761	-4.548152E-012	0.0047232	5
	48	68	15.83615	48297.14	-117488.8	1	127028.5	-67.65349	3.615563E-010	0.0047203	5
	49	69	12.40079	60967.68	-141077.1	1	153687.3	-66.62799	2.275256E-010	0.0047173	5
	50	71	9.93114	76050.73	-164187.1	1	180945	-65.14664	6.426186E-010	0.0047122	5
	51	72	7.944915	93569.17	-191011.8	1	212698.6	-63.90158	-1.109047E-010	0.0047258	5
	52	74	6.317385	116477.9	-221102	1	249906.4	-62.21946	-1.842376E-010	0.0047246	5
	53	76	5.008013	142958.5	-255110.8	1	292435.7	-60.73469	-1.165389E-010	0.0047222	5
	54	78	3.945707	174217.5	-293582.8	1	341383.4	-59.31432	3.044659E-010	0.0047275	5
	55	81	3.158693	207436.1	-333767.8	1	392976.7	-58.13911	3.856077E-011	0.0047042	5
	56	84	2.504006	246281	-380357.2	1	453129	-57.07698	1.381365E-010	0.0047306	5
	57	87	1.998082	287921.1	-430620.6	1	518008.4	-56.23256	3.833697E-010	0.0046936	5
	58	90	1.584686	336583	-490649.9	1	595000.4	-55.5501	4.37461E-012	0.0046835	5
	59	94	1.266892	387115.7	-553866.4	1	675741.5	-55.04902	2.46618E-010	0.0046877	5
	60	98	0.999041	446388.6	-633699.3	1	775137.1	-54.83848	-5.500793E-011	0.0047474	5
