EXPLAIN
TAG	EISPOT
TITLE	LABEL	Potentiostatic EIS	Test &Identifier
DATE	LABEL	10/6/2019	Date
TIME	LABEL	9:52:41	Time
NOTES	NOTES	2	&Notes...
	
	
PSTAT	PSTAT	REF600-11020	Potentiostat
VDC	POTEN	0.00000E+000	T	DC &Voltage (V)
FREQINIT	QUANT	1.00000E+006	Initial Fre&q. (Hz)
FREQFINAL	QUANT	1.00000E+000	Final Fre&q. (Hz)
PTSPERDEC	QUANT	1.00000E+001	Points/&decade
VAC	QUANT	2.50000E+001	AC &Voltage (mV rms)
AREA	QUANT	1.00000E-002	&Area (cm^2)
CONDIT	TWOPARAM	T	5.00000E+000	0.00000E+000	Conditionin&g	Time(s)	E(V)
DELAY	TWOPARAM	T	5.00000E+000	0.00000E+000	Init. De&lay	Time(s)	Stab.(mV/s)
SPEED	SELECTOR	1	&Optimize for:
ZGUESS	QUANT	1.00000E+004	E&stimated Z (ohms)
OCVCURVE	TABLE	19
	Pt	T	Vf	Vm	Ach	Over
	#	s	V vs. Ref.	V	V	bits
	0	0.258333	5.69275E-003	5.69275E-003	6.27698E-004	...........
	1	0.516667	5.69022E-003	5.56028E-003	6.31065E-004	...........
	2	0.775	5.67512E-003	5.45776E-003	6.26965E-004	...........
	3	1.03333	5.63396E-003	5.36425E-003	6.25865E-004	...........
	4	1.29167	5.56392E-003	5.29321E-003	6.25898E-004	...........
	5	1.55	5.47688E-003	5.22631E-003	6.27998E-004	...........
	6	1.80833	5.38858E-003	5.17621E-003	6.29665E-004	...........
	7	2.06667	5.30895E-003	5.12521E-003	6.26265E-004	...........
	8	2.325	5.24098E-003	5.08738E-003	6.26931E-004	...........
	9	2.58333	5.18367E-003	5.05113E-003	6.34165E-004	...........
	10	2.84167	5.13507E-003	5.02258E-003	6.32165E-004	...........
	11	3.1	5.09358E-003	4.99736E-003	6.32665E-004	...........
	12	3.35833	5.05812E-003	4.97757E-003	6.38598E-004	...........
	13	3.61667	5.02789E-003	4.95472E-003	6.28065E-004	...........
	14	3.875	5.00191E-003	4.93823E-003	6.29231E-004	...........
	15	4.13333	4.97910E-003	4.92045E-003	6.26131E-004	...........
	16	4.39167	4.95871E-003	4.90891E-003	6.35331E-004	...........
	17	4.65	4.94044E-003	4.89350E-003	6.35331E-004	...........
	18	4.90833	4.92417E-003	4.88472E-003	6.34798E-004	...........
EOC	QUANT	0.0049242	Open Circuit (V)
PSTATMODEL	IQUANT	4	Pstat Model
PSTATSECTION	LABEL	REF600-11020	Pstat Section
PSTATSERIALNO	LABEL	11020	Pstat Serial Number
CTRLMODE	IQUANT	1	Control Mode
IESTAB	IQUANT	0	I/E Stability
CASPEED	IQUANT	1	Control Amp Speed
CONVENTION	IQUANT	1	Current Convention
ICHRANGE	IQUANT	2	Ich Range
ICHRANGEMODE	TOGGLE	F	Ich Auto Range
ICHOFFSETENABLE	TOGGLE	T	Ich Offset Enable
ICHOFFSET	QUANT	0	Ich Offset (V)
ICHFILTER	IQUANT	3	Ich Filter
VCHRANGE	IQUANT	2	Vch Range
VCHRANGEMODE	TOGGLE	F	Vch Auto Range
VCHOFFSETENABLE	TOGGLE	T	Vch Offset Enable
VCHOFFSET	QUANT	0	Vch Offset (V)
VCHFILTER	IQUANT	3	Vch Filter
ACHRANGE	IQUANT	2	Ach Range
ACHOFFSETENABLE	TOGGLE	F	Ach Offset Enable
ACHOFFSET	QUANT	0	Ach Offset (V)
ACHFILTER	IQUANT	3	Ach Filter
IERANGELOWERLIMIT	IQUANT	1	I/E Range Lower Limit
IERANGEMODE	TOGGLE	F	I/E AutoRange
IERANGE	IQUANT	5	I/E Range
POSFEEDENABLE	TOGGLE	F	Positive Feedback IR Comp
POSFEEDRESISTANCE	QUANT	0	Positive Feedback Resistance (ohm)
ACHSELECT	IQUANT	0	Ach Select
CABLEID	IQUANT	14	Cable ID
DCCALDATE	LABEL	8/19/2019	DC Calibration Date
ACCALDATE	LABEL	8/19/2019	AC Calibration Date
THERMOSELECT	IQUANT	1	Thermo Select
FRAMEWORKVERSION	QUANT	6.33	Framework Version
INSTRUMENTVERSION	LABEL	3.50	Instrument Version
ZCURVE	TABLE
	Pt	Time	Freq	Zreal	Zimag	Zsig	Zmod	Zphz	Idc	Vdc	IERange
	#	s	Hz	ohm	ohm	V	ohm	°	A	V	#
	0	1	1000078	2248.397	-2106.662	1	3081.122	-43.13598	-4.807156E-008	0.0078025	8
	1	3	794390.6	2677.023	-2154.078	1	3436.06	-38.82203	-1.527549E-006	0.0072549	8
	2	4	630984.4	3110.257	-2131.701	1	3770.656	-34.42587	-1.198556E-006	0.0070908	8
	3	6	501234.4	3536.328	-2039.978	1	4082.539	-29.97907	-1.284778E-006	0.0069699	8
	4	7	398109.4	3905.646	-1896.18	1	4341.608	-25.89644	-3.828333E-006	0.0073006	8
	5	8	316265.6	4224.526	-1696.023	1	4552.265	-21.87401	-3.636876E-006	0.0072548	8
	6	10	251203.1	4482.169	-1528.695	1	4735.689	-18.83253	-3.655226E-006	0.0072243	8
	7	12	199546.9	4672.456	-1306.553	1	4851.693	-15.62252	-3.646174E-006	0.0072126	8
	8	13	158578.1	4817.564	-1143.674	1	4951.456	-13.35462	-9.944993E-008	0.00672	8
	9	15	125953.1	4954.87	-934.2972	1	5042.187	-10.67839	3.734716E-007	0.0057816	7
	10	16	100078.1	5054.318	-834.7589	1	5122.788	-9.378174	-3.602446E-008	0.0065308	7
	11	17	79453.13	5127.852	-748.312	1	5182.166	-8.302618	-4.54674E-009	0.0065427	7
	12	19	63140.62	5189.325	-682.7225	1	5234.043	-7.494952	8.054613E-008	0.006351	7
	13	20	50203.12	5242.499	-637.0852	1	5281.067	-6.928792	-8.731676E-009	0.006541	7
	14	21	39890.62	5291.523	-607.9466	1	5326.333	-6.554013	5.858065E-008	0.0064378	7
	15	23	31640.63	5341	-595.7121	1	5374.119	-6.364221	-3.454302E-008	0.0065299	7
	16	24	25171.88	5390.502	-599.5063	1	5423.737	-6.346089	-6.522843E-008	0.0067392	7
	17	25	20015.62	5423.196	-605.0692	1	5456.845	-6.366196	4.411148E-008	0.0063771	7
	18	27	15890.62	5486.837	-653.4583	1	5525.612	-6.791687	-1.307758E-008	0.0065517	7
	19	28	12609.37	5540.844	-705.545	1	5585.584	-7.256722	-7.53345E-008	0.0067631	7
	20	29	10078.13	5593.165	-777.3377	1	5646.924	-7.912281	5.292205E-008	0.0064623	7
	21	31	8015.625	5653.855	-867.634	1	5720.041	-8.724483	-5.546854E-009	0.0064947	7
	22	32	6328.125	5715.504	-990.81	1	5800.75	-9.83476	-3.60129E-009	0.0064958	7
	23	34	5015.625	5781.105	-1142.512	1	5892.921	-11.17923	8.815965E-008	0.0063436	7
	24	35	3984.375	5856.68	-1329.807	1	6005.754	-12.79258	-1.598735E-008	0.0064751	7
	25	37	3170.956	5933.424	-1564.213	1	6136.146	-14.76871	-1.495752E-008	0.0065491	7
	26	38	2527.573	6020.275	-1844.54	1	6296.51	-17.03444	-4.920723E-008	0.0065372	7
	27	39	1976.103	6134.29	-2229.806	1	6526.986	-19.97614	1.171972E-007	0.0064067	7
	28	41	1577.524	6249.618	-2652.452	1	6789.199	-22.99725	4.577684E-008	0.0063728	7
	29	42	1265.625	6380.547	-3168.487	1	7123.952	-26.40833	-7.856098E-010	0.0065559	7
	30	43	998.264	6547.839	-3843.532	1	7592.558	-30.41261	-2.138599E-008	0.0065648	7
	31	45	796.875	6728.089	-4625.553	1	8164.736	-34.50848	-7.146868E-008	0.0066098	7
	32	46	627.7902	6948.751	-5653.634	1	8958.165	-39.13245	-2.281849E-008	0.0065671	7
	33	48	505.5147	7182.771	-6788.089	1	9882.83	-43.3818	-9.563474E-009	0.0065723	6
	34	49	397.9953	7504.966	-8334.522	1	11215.56	-47.99799	4.294746E-010	0.0064825	6
	35	50	315.5048	7874.006	-10196.13	1	12882.58	-52.32272	1.241819E-009	0.0064786	6
	36	52	252.4038	8312.649	-12395.08	1	14924.42	-56.15258	9.510245E-010	0.0064785	6
	37	53	198.6229	8905.087	-15301.72	1	17704.33	-59.80203	9.891152E-010	0.0064796	6
	38	54	158.3615	9613.69	-18684.79	1	21012.96	-62.7733	7.084632E-010	0.0064798	6
	39	56	125.558	10551.05	-22940.97	1	25250.99	-65.30128	1.14781E-009	0.0064861	6
	40	57	100.4464	11693.13	-27926.3	1	30275.53	-67.28027	3.045824E-010	0.006477	6
	41	58	79.00281	13409.43	-34554.36	1	37065.04	-68.79038	1.813531E-010	0.0064797	6
	42	60	63.3446	15705	-41960.14	1	44802.91	-69.47994	9.9927E-010	0.0064752	6
	43	61	49.86702	17954.85	-51608.7	1	54642.79	-70.81703	1.097091E-009	0.0064792	6
	44	63	39.72458	21827.4	-62710.75	1	66400.85	-70.80879	6.638339E-010	0.0064841	6
	45	64	31.6723	26892.41	-75798.91	1	80428.09	-70.46602	5.590574E-010	0.0064788	6
	46	65	24.93351	33717.21	-92562.41	1	98512.2	-69.98511	7.323694E-010	0.0064774	6
	47	67	19.86229	42502.14	-110950.1	1	118812.2	-69.03944	7.739958E-010	0.0064833	5
	48	68	15.83615	53804.32	-132967.5	1	143440.8	-67.96964	1.264088E-009	0.0064812	5
	49	70	12.40079	70352.39	-158030.9	1	172983.3	-66.00227	-3.384862E-010	0.0064876	5
	50	71	9.93114	88836.33	-184741.4	1	204990.9	-64.31856	-3.627968E-010	0.0064912	5
	51	73	7.944915	111802	-213329	1	240850.4	-62.34175	8.770492E-010	0.00649	5
	52	74	6.317385	139960.7	-245344.8	1	282459	-60.29673	9.263798E-011	0.0065013	5
	53	76	5.008013	173473	-278940	1	328481.9	-58.12249	2.078465E-010	0.0064833	5
	54	79	3.945707	211823.5	-314817.5	1	379445.9	-56.06554	4.120268E-010	0.0064888	5
	55	82	3.158693	251683.7	-350273.9	1	431319.5	-54.30147	-8.13009E-011	0.0064836	5
	56	85	2.504006	295430.8	-389753	1	489067.3	-52.83805	5.087383E-010	0.0064856	5
	57	88	1.998082	340003.9	-431516.3	1	549371.5	-51.76442	1.898013E-010	0.0065279	5
	58	91	1.584686	385237	-480406.9	1	615790.8	-51.27397	1.678506E-010	0.0064711	5
	59	94	1.266892	433315	-537832.4	1	690670.4	-51.14268	1.497066E-010	0.0065196	5
	60	99	0.999041	485316	-609654.4	1	779236.9	-51.47842	-7.633796E-011	0.0064458	5
