EXPLAIN
TAG	EISPOT
TITLE	LABEL	Potentiostatic EIS	Test &Identifier
DATE	LABEL	10/22/2019	Date
TIME	LABEL	8:44:36	Time
NOTES	NOTES	1	&Notes...
	
PSTAT	PSTAT	REF600-11020	Potentiostat
VDC	POTEN	0.00000E+000	T	DC &Voltage (V)
FREQINIT	QUANT	1.00000E+006	Initial Fre&q. (Hz)
FREQFINAL	QUANT	1.00000E+000	Final Fre&q. (Hz)
PTSPERDEC	QUANT	1.00000E+001	Points/&decade
VAC	QUANT	2.50000E+001	AC &Voltage (mV rms)
AREA	QUANT	1.00000E-002	&Area (cm^2)
CONDIT	TWOPARAM	T	5.00000E+000	0.00000E+000	Conditionin&g	Time(s)	E(V)
DELAY	TWOPARAM	T	5.00000E+000	0.00000E+000	Init. De&lay	Time(s)	Stab.(mV/s)
SPEED	SELECTOR	1	&Optimize for:
ZGUESS	QUANT	1.00000E+005	E&stimated Z (ohms)
OCVCURVE	TABLE	19
	Pt	T	Vf	Vm	Ach	Over
	#	s	V vs. Ref.	V	V	bits
	0	0.258333	9.99065E-003	9.99065E-003	6.32198E-004	...........
	1	0.516667	9.99450E-003	1.01924E-002	6.27998E-004	...........
	2	0.775	1.00194E-002	1.04502E-002	6.23498E-004	...........
	3	1.03333	1.00937E-002	1.06713E-002	6.28065E-004	...........
	4	1.29167	1.02345E-002	1.09841E-002	6.29231E-004	...........
	5	1.55	1.04316E-002	1.10162E-002	6.27498E-004	...........
	6	1.80833	1.06545E-002	1.13857E-002	6.27465E-004	...........
	7	2.06667	1.08760E-002	1.14464E-002	6.33231E-004	...........
	8	2.325	1.10858E-002	1.16584E-002	6.31065E-004	...........
	9	2.58333	1.12825E-002	1.18713E-002	6.34498E-004	...........
	10	2.84167	1.14701E-002	1.20523E-002	6.30331E-004	...........
	11	3.1	1.16569E-002	1.22466E-002	6.27698E-004	...........
	12	3.35833	1.18469E-002	1.24376E-002	6.33631E-004	...........
	13	3.61667	1.20384E-002	1.26117E-002	6.31998E-004	...........
	14	3.875	1.22287E-002	1.27979E-002	6.31865E-004	...........
	15	4.13333	1.24151E-002	1.29332E-002	6.34431E-004	...........
	16	4.39167	1.25954E-002	1.31420E-002	6.32165E-004	...........
	17	4.65	1.27694E-002	1.32569E-002	6.28698E-004	...........
	18	4.90833	1.29374E-002	1.34059E-002	6.34031E-004	...........
EOC	QUANT	0.0129374	Open Circuit (V)
PSTATMODEL	IQUANT	4	Pstat Model
PSTATSECTION	LABEL	REF600-11020	Pstat Section
PSTATSERIALNO	LABEL	11020	Pstat Serial Number
CTRLMODE	IQUANT	1	Control Mode
IESTAB	IQUANT	0	I/E Stability
CASPEED	IQUANT	1	Control Amp Speed
CONVENTION	IQUANT	1	Current Convention
ICHRANGE	IQUANT	2	Ich Range
ICHRANGEMODE	TOGGLE	F	Ich Auto Range
ICHOFFSETENABLE	TOGGLE	T	Ich Offset Enable
ICHOFFSET	QUANT	0	Ich Offset (V)
ICHFILTER	IQUANT	3	Ich Filter
VCHRANGE	IQUANT	2	Vch Range
VCHRANGEMODE	TOGGLE	F	Vch Auto Range
VCHOFFSETENABLE	TOGGLE	T	Vch Offset Enable
VCHOFFSET	QUANT	0	Vch Offset (V)
VCHFILTER	IQUANT	3	Vch Filter
ACHRANGE	IQUANT	2	Ach Range
ACHOFFSETENABLE	TOGGLE	F	Ach Offset Enable
ACHOFFSET	QUANT	0	Ach Offset (V)
ACHFILTER	IQUANT	3	Ach Filter
IERANGELOWERLIMIT	IQUANT	1	I/E Range Lower Limit
IERANGEMODE	TOGGLE	F	I/E AutoRange
IERANGE	IQUANT	5	I/E Range
POSFEEDENABLE	TOGGLE	F	Positive Feedback IR Comp
POSFEEDRESISTANCE	QUANT	0	Positive Feedback Resistance (ohm)
ACHSELECT	IQUANT	0	Ach Select
CABLEID	IQUANT	14	Cable ID
DCCALDATE	LABEL	8/19/2019	DC Calibration Date
ACCALDATE	LABEL	8/19/2019	AC Calibration Date
THERMOSELECT	IQUANT	1	Thermo Select
FRAMEWORKVERSION	QUANT	6.33	Framework Version
INSTRUMENTVERSION	LABEL	3.50	Instrument Version
ZCURVE	TABLE
	Pt	Time	Freq	Zreal	Zimag	Zsig	Zmod	Zphz	Idc	Vdc	IERange
	#	s	Hz	ohm	ohm	V	ohm	°	A	V	#
	0	2	1000078	2492.819	-1483.069	1	2900.628	-30.74995	1.560371E-006	0.01517	8
	1	3	794390.6	2787.113	-1383.854	1	3111.76	-26.40527	3.319141E-006	0.0142519	8
	2	4	630984.4	3013.887	-1240.2	1	3259.081	-22.36693	9.707419E-007	0.0142678	8
	3	6	501234.4	3201.969	-1071.935	1	3376.633	-18.50918	1.431462E-006	0.0141957	8
	4	7	398109.4	3336.835	-934.8182	1	3465.307	-15.65028	2.638848E-006	0.0140524	8
	5	8	316265.6	3440.091	-795.5733	1	3530.887	-13.02159	-2.878856E-007	0.0147396	8
	6	10	251203.1	3514.385	-672.8486	1	3578.216	-10.83844	-2.063567E-006	0.0150137	8
	7	11	199546.9	3576.515	-574.1856	1	3622.313	-9.120627	-2.024435E-006	0.0150103	8
	8	12	158578.1	3617.895	-510.006	1	3653.665	-8.023977	-2.78202E-007	0.014576	8
	9	14	125953.1	3678.786	-406.0553	1	3701.127	-6.29867	6.280795E-007	0.0131861	7
	10	15	100078.1	3701.422	-358.8741	1	3718.779	-5.537844	-3.901287E-009	0.0145585	7
	11	17	79453.13	3726.915	-339.2926	1	3742.328	-5.20178	3.784965E-008	0.0144212	7
	12	18	63140.62	3751.952	-326.9139	1	3766.167	-4.979702	-1.413086E-008	0.0146837	7
	13	19	50203.12	3777.366	-324.4997	1	3791.279	-4.910015	-5.762113E-008	0.0147181	7
	14	21	39890.62	3804.21	-329.2172	1	3818.429	-4.946067	-1.645303E-008	0.0145161	7
	15	22	31640.63	3831.863	-344.5173	1	3847.319	-5.137568	-6.275082E-009	0.0145866	7
	16	23	25171.88	3861.095	-366.9154	1	3878.49	-5.42845	-1.770633E-008	0.0145985	7
	17	25	20015.62	3899.585	-397.4756	1	3919.79	-5.819927	7.753005E-008	0.0143838	7
	18	26	15890.62	3929.382	-438.8786	1	3953.816	-6.373038	-3.723712E-008	0.0145664	7
	19	27	12609.37	3967.719	-490.6336	1	3997.939	-7.049201	-3.277244E-008	0.0145717	7
	20	29	10078.13	4008.594	-552.2187	1	4046.451	-7.843624	-1.502786E-008	0.0145109	7
	21	30	8015.625	4054.44	-626.5862	1	4102.572	-8.785173	-1.262124E-008	0.014682	7
	22	32	6328.125	4101.123	-725.592	1	4164.816	-10.03324	-1.260368E-009	0.0145483	7
	23	33	5015.625	4152.592	-842.9891	1	4237.293	-11.47528	1.292934E-007	0.0143463	7
	24	34	3984.375	4205.285	-990.461	1	4320.352	-13.2532	6.347349E-008	0.0144359	7
	25	36	3170.956	4267.982	-1161.828	1	4423.292	-15.22804	-3.423984E-008	0.0145673	7
	26	37	2527.573	4335.033	-1375.264	1	4547.952	-17.60132	-1.289003E-008	0.0145107	7
	27	38	1976.103	4416.489	-1664.487	1	4719.734	-20.65043	6.164979E-008	0.0144355	7
	28	40	1577.524	4504.693	-1994.349	1	4926.427	-23.88026	1.141537E-009	0.0145465	7
	29	41	1265.625	4600.786	-2375.462	1	5177.843	-27.30806	-4.326393E-009	0.0145756	7
	30	42	998.264	4726.201	-2884.312	1	5536.807	-31.39494	-5.235892E-009	0.0145685	7
	31	44	796.875	4864.583	-3475.849	1	5978.77	-35.54662	8.066174E-008	0.0143734	7
	32	45	627.7902	5031.092	-4248.788	1	6585.141	-40.18129	-5.517135E-008	0.0147034	7
	33	47	505.5147	5216.596	-5100.091	1	7295.464	-44.35299	-3.831464E-008	0.0146199	7
	34	48	397.9953	5451.811	-6253.325	1	8296.163	-48.91724	4.273704E-009	0.0145577	7
	35	49	315.5048	5722.683	-7640.381	1	9545.92	-53.16661	4.206289E-009	0.0145652	7
	36	51	252.4038	6037.564	-9278.458	1	11069.87	-56.94764	5.789517E-011	0.0144982	6
	37	52	198.6229	6447.667	-11451.43	1	13141.83	-60.61855	7.933775E-010	0.0144986	6
	38	53	158.3615	6929.331	-13986.5	1	15608.9	-63.64481	6.941847E-010	0.014494	6
	39	55	125.558	7553.751	-17194.01	1	18780.13	-66.28294	7.654897E-010	0.0144961	6
	40	56	100.4464	8304.004	-20979.29	1	22562.96	-68.4054	1.065891E-010	0.0144969	6
	41	57	79.00281	9436.401	-25977.05	1	27637.89	-70.03598	3.37102E-010	0.0144897	6
	42	59	63.3446	10687.33	-31326.32	1	33099.21	-71.16233	2.723002E-010	0.0144896	6
	43	60	49.86702	12695.48	-39145.43	1	41152.64	-72.0313	-4.914517E-011	0.0144921	6
	44	62	39.72458	14810.42	-47696.34	1	49942.86	-72.74966	5.989841E-010	0.0144955	6
	45	63	31.6723	17970.08	-57955.87	1	60677.89	-72.77318	5.691244E-010	0.0144934	6
	46	64	24.93351	22172.2	-71291.92	1	74660.2	-72.72401	2.627469E-010	0.0144951	6
	47	66	19.86229	27492.61	-86406.38	1	90674.73	-72.35007	2.279461E-011	0.0144967	6
	48	67	15.83615	34891.77	-104905.6	1	110556	-71.6028	2.14221E-009	0.0144991	5
	49	68	12.40079	45366.32	-126097.3	1	134009.8	-70.21267	1.509919E-009	0.0144964	5
	50	70	9.93114	56910.62	-150365.2	1	160774.7	-69.26921	8.110488E-010	0.0145	5
	51	71	7.944915	73255.31	-177867	1	192361.6	-67.61546	5.537246E-010	0.0145097	5
	52	73	6.317385	92635.57	-210036.7	1	229557.7	-66.20037	-1.590011E-010	0.0145149	5
	53	75	5.008013	118126.9	-245546.1	1	272482.8	-64.30879	3.622151E-010	0.0145038	5
	54	78	3.945707	149733	-286121	1	322932.2	-62.37602	4.677691E-011	0.0144998	5
	55	80	3.158693	184211.8	-326346.5	1	374748	-60.55672	1.772595E-010	0.0145192	5
	56	84	2.504006	225659.1	-372852.7	1	435822.4	-58.81671	-3.354982E-010	0.0144962	5
	57	86	1.998082	270725.9	-420550.9	1	500155.6	-57.22895	-2.26474E-010	0.0144761	5
	58	89	1.584686	320894.8	-472415.2	1	571095.1	-55.81313	-8.57524E-011	0.0145373	5
	59	93	1.266892	373351.1	-531413.9	1	649455	-54.90958	-1.927153E-010	0.0144699	5
	60	97	0.999041	432615.3	-600157.2	1	739827.5	-54.21455	1.512764E-010	0.0145365	5
