EXPLAIN
TAG	EISPOT
TITLE	LABEL	Potentiostatic EIS	Test &Identifier
DATE	LABEL	10/4/2019	Date
TIME	LABEL	10:26:46	Time
NOTES	NOTES	2	&Notes...
	
	
PSTAT	PSTAT	REF600-11020	Potentiostat
VDC	POTEN	0.00000E+000	T	DC &Voltage (V)
FREQINIT	QUANT	1.00000E+006	Initial Fre&q. (Hz)
FREQFINAL	QUANT	1.00000E+000	Final Fre&q. (Hz)
PTSPERDEC	QUANT	1.00000E+001	Points/&decade
VAC	QUANT	2.50000E+001	AC &Voltage (mV rms)
AREA	QUANT	1.00000E-002	&Area (cm^2)
CONDIT	TWOPARAM	T	5.00000E+000	0.00000E+000	Conditionin&g	Time(s)	E(V)
DELAY	TWOPARAM	T	5.00000E+000	0.00000E+000	Init. De&lay	Time(s)	Stab.(mV/s)
SPEED	SELECTOR	1	&Optimize for:
ZGUESS	QUANT	1.00000E+004	E&stimated Z (ohms)
OCVCURVE	TABLE	19
	Pt	T	Vf	Vm	Ach	Over
	#	s	V vs. Ref.	V	V	bits
	0	0.258333	-1.67300E-003	-1.67300E-003	5.52299E-004	...........
	1	0.516667	-1.69385E-003	-2.76447E-003	5.56799E-004	...........
	2	0.775	-1.80274E-003	-2.79673E-003	5.62632E-004	...........
	3	1.03333	-2.06456E-003	-3.73965E-003	5.67132E-004	...........
	4	1.29167	-2.48177E-003	-4.43516E-003	5.56699E-004	...........
	5	1.55	-3.02568E-003	-5.17239E-003	5.60199E-004	...........
	6	1.80833	-3.66555E-003	-5.75573E-003	5.63066E-004	...........
	7	2.06667	-4.35178E-003	-6.28643E-003	5.58166E-004	...........
	8	2.325	-5.02433E-003	-6.70764E-003	5.49699E-004	...........
	9	2.58333	-5.63401E-003	-6.86146E-003	5.63032E-004	...........
	10	2.84167	-6.15553E-003	-7.62649E-003	5.63599E-004	...........
	11	3.1	-6.59263E-003	-7.15751E-003	5.57432E-004	...........
	12	3.35833	-6.95613E-003	-8.10450E-003	5.59199E-004	...........
	13	3.61667	-7.25857E-003	-7.87099E-003	5.50433E-004	...........
	14	3.875	-7.55993E-003	-1.01078E-002	5.62899E-004	...........
	15	4.13333	-7.96613E-003	-9.16874E-003	5.61932E-004	...........
	16	4.39167	-8.48329E-003	-9.12556E-003	5.60066E-004	...........
	17	4.65	-8.93299E-003	-8.92356E-003	5.55799E-004	...........
	18	4.90833	-9.17342E-003	-1.02929E-002	5.61999E-004	...........
EOC	QUANT	-0.0091734	Open Circuit (V)
PSTATMODEL	IQUANT	4	Pstat Model
PSTATSECTION	LABEL	REF600-11020	Pstat Section
PSTATSERIALNO	LABEL	11020	Pstat Serial Number
CTRLMODE	IQUANT	1	Control Mode
IESTAB	IQUANT	0	I/E Stability
CASPEED	IQUANT	1	Control Amp Speed
CONVENTION	IQUANT	1	Current Convention
ICHRANGE	IQUANT	2	Ich Range
ICHRANGEMODE	TOGGLE	F	Ich Auto Range
ICHOFFSETENABLE	TOGGLE	T	Ich Offset Enable
ICHOFFSET	QUANT	0	Ich Offset (V)
ICHFILTER	IQUANT	3	Ich Filter
VCHRANGE	IQUANT	2	Vch Range
VCHRANGEMODE	TOGGLE	F	Vch Auto Range
VCHOFFSETENABLE	TOGGLE	T	Vch Offset Enable
VCHOFFSET	QUANT	0	Vch Offset (V)
VCHFILTER	IQUANT	3	Vch Filter
ACHRANGE	IQUANT	2	Ach Range
ACHOFFSETENABLE	TOGGLE	F	Ach Offset Enable
ACHOFFSET	QUANT	0	Ach Offset (V)
ACHFILTER	IQUANT	3	Ach Filter
IERANGELOWERLIMIT	IQUANT	1	I/E Range Lower Limit
IERANGEMODE	TOGGLE	F	I/E AutoRange
IERANGE	IQUANT	6	I/E Range
POSFEEDENABLE	TOGGLE	F	Positive Feedback IR Comp
POSFEEDRESISTANCE	QUANT	0	Positive Feedback Resistance (ohm)
ACHSELECT	IQUANT	0	Ach Select
CABLEID	IQUANT	14	Cable ID
DCCALDATE	LABEL	8/19/2019	DC Calibration Date
ACCALDATE	LABEL	8/19/2019	AC Calibration Date
THERMOSELECT	IQUANT	1	Thermo Select
FRAMEWORKVERSION	QUANT	6.33	Framework Version
INSTRUMENTVERSION	LABEL	3.50	Instrument Version
ZCURVE	TABLE
	Pt	Time	Freq	Zreal	Zimag	Zsig	Zmod	Zphz	Idc	Vdc	IERange
	#	s	Hz	ohm	ohm	V	ohm	°	A	V	#
	0	1	1000078	2700.094	-2045.158	1	3387.208	-37.14174	-4.300343E-006	-0.0063291	8
	1	2	794390.6	3083.074	-2038.827	1	3696.236	-33.47654	9.085787E-007	-0.0072994	8
	2	4	630984.4	3484.177	-1942.662	1	3989.163	-29.1426	-2.07529E-006	-0.0069915	8
	3	5	501234.4	3812.107	-1842.212	1	4233.899	-25.79229	3.011809E-006	-0.0081859	8
	4	6	398109.4	4099.929	-1700.935	1	4438.761	-22.53207	-2.482379E-006	-0.0071821	8
	5	8	316265.6	4355.639	-1538.807	1	4619.472	-19.45784	9.085861E-007	-0.0078292	8
	6	9	251203.1	4558.283	-1390.924	1	4765.775	-16.96916	5.675954E-007	-0.0077536	8
	7	11	199546.9	4717.705	-1266.042	1	4884.629	-15.02194	-4.229636E-007	-0.0075791	8
	8	12	158578.1	4852.529	-1137.085	1	4983.975	-13.18808	-4.191442E-007	-0.0075762	8
	9	13	125953.1	5001.977	-1007.141	1	5102.363	-11.3842	-2.279437E-007	-0.0075463	7
	10	15	100078.1	5099.832	-944.5775	1	5186.57	-10.49326	-5.448323E-008	-0.0076483	7
	11	16	79453.13	5194.331	-903.4815	1	5272.32	-9.86709	-4.923719E-008	-0.0075594	7
	12	17	63140.62	5281.998	-881.4958	1	5355.048	-9.474594	-1.193524E-008	-0.0077038	7
	13	19	50203.12	5367.855	-876.1487	1	5438.888	-9.270151	-4.27285E-008	-0.0076263	7
	14	20	39890.62	5454.802	-892.4129	1	5527.32	-9.291353	-1.491844E-008	-0.0077114	7
	15	21	31640.63	5544.233	-924.9708	1	5620.862	-9.471693	3.436171E-008	-0.0078489	7
	16	23	25171.88	5636.895	-977.171	1	5720.965	-9.83464	8.977573E-010	-0.0077051	7
	17	24	20015.62	5737.501	-1049.675	1	5832.73	-10.3676	-3.847323E-008	-0.0076687	7
	18	26	15890.62	5846.61	-1138.322	1	5956.394	-11.01752	-4.125642E-008	-0.007631	7
	19	27	12609.37	5966.792	-1253.65	1	6097.068	-11.86551	-1.414132E-008	-0.0077194	7
	20	28	10078.13	6097.554	-1381.855	1	6252.174	-12.76894	7.018984E-008	-0.0078766	7
	21	30	8015.625	6242.56	-1543.055	1	6430.441	-13.88424	-3.845012E-008	-0.0076682	7
	22	31	6328.125	6412.131	-1739.139	1	6643.796	-15.17504	9.39195E-008	-0.0078639	7
	23	32	5015.625	6597.283	-1966.069	1	6884.008	-16.59468	-1.300916E-008	-0.0077102	7
	24	34	3984.375	6806.989	-2224.151	1	7161.141	-18.09455	1.252278E-008	-0.0078102	7
	25	35	3170.956	7044.132	-2525.277	1	7483.103	-19.72243	4.312788E-008	-0.0077945	7
	26	36	2527.573	7309.037	-2868.228	1	7851.672	-21.42615	-1.160815E-009	-0.0077099	7
	27	38	1976.103	7636.033	-3302.954	1	8319.766	-23.39082	-3.626341E-008	-0.0076447	7
	28	39	1577.524	7970.126	-3755.421	1	8810.567	-25.22921	-3.30211E-008	-0.0077244	7
	29	41	1265.625	8344.881	-4251.377	1	9365.428	-26.99699	-9.915962E-010	-0.0076838	6
	30	42	998.264	8784.005	-4877.102	1	10047.13	-29.04014	-6.801146E-009	-0.0077016	6
	31	43	796.875	9234.159	-5558.951	1	10778.29	-31.04788	-7.369916E-009	-0.0077024	6
	32	45	627.7902	9740.19	-6407.768	1	11658.93	-33.33968	-4.230873E-009	-0.0076724	6
	33	46	505.5147	10212.22	-7314.549	1	12561.53	-35.61231	-6.369037E-010	-0.0076797	6
	34	47	397.9953	10758.27	-8526.679	1	13727.52	-38.39927	-1.304551E-009	-0.0077699	6
	35	49	315.5048	11296.27	-9979.21	1	15072.83	-41.45761	4.326838E-010	-0.0077725	6
	36	50	252.4038	11832.29	-11711.86	1	16648.45	-44.70692	-4.05788E-010	-0.0077746	6
	37	51	198.6229	12446.34	-14038.45	1	18761.38	-48.44016	8.121375E-010	-0.0077745	6
	38	53	158.3615	13091.78	-16797.07	1	21296.4	-52.06684	1.015641E-009	-0.0077736	6
	39	54	125.558	13854.91	-20322.3	1	24595.82	-55.71544	1.050059E-009	-0.0077751	6
	40	56	100.4464	14731.5	-24537.41	1	28619.95	-59.02069	1.169865E-009	-0.0077781	6
	41	57	79.00281	15928.04	-30148.74	1	34097.64	-62.15182	5.642107E-010	-0.0077788	6
	42	58	63.3446	17286.13	-36654.48	1	40526.05	-64.7516	1.162725E-009	-0.0077811	6
	43	60	49.86702	19049.38	-44872.84	1	48748.85	-66.99784	1.952671E-009	-0.0077841	6
	44	61	39.72458	21416.26	-54813.13	1	58848.41	-68.65871	2.672995E-010	-0.0077775	6
	45	63	31.6723	24390.85	-66715.05	1	71033.88	-69.91772	7.2227E-010	-0.0077775	6
	46	64	24.93351	28396.83	-82171.98	1	86940.29	-70.93597	7.684362E-010	-0.0077786	6
	47	65	19.86229	33364.08	-99985.5	1	105405.3	-71.54671	6.825274E-010	-0.0077811	6
	48	67	15.83615	40064.77	-121622.3	1	128051.4	-71.7671	1.172602E-009	-0.0077773	5
	49	68	12.40079	48627.51	-148476.5	1	156236.7	-71.86587	2.937769E-010	-0.0077742	5
	50	70	9.93114	59602.57	-179205.1	1	188856.9	-71.60317	2.048929E-010	-0.0077688	5
	51	71	7.944915	73487.27	-214850.7	1	227070.9	-71.11732	8.290466E-010	-0.0077676	5
	52	73	6.317385	91312.43	-258620.6	1	274267.4	-70.55315	7.726345E-010	-0.0077581	5
	53	75	5.008013	114559.4	-310672.6	1	331121.3	-69.75873	-1.347599E-010	-0.007784	5
	54	77	3.945707	145925.8	-373245.2	1	400757.2	-68.64625	7.092943E-010	-0.0077693	5
	55	80	3.158693	180679.6	-439987.4	1	475640.6	-67.67464	9.69414E-011	-0.0077902	5
	56	83	2.504006	227478.8	-519873.7	1	567463.8	-66.36748	6.334254E-010	-0.007771	5
	57	86	1.998082	280405.2	-610325.7	1	671658.1	-65.32428	-1.002E-010	-0.0077561	5
	58	89	1.584686	350897.5	-708476.6	1	790612.6	-63.6515	3.537878E-010	-0.0078215	5
	59	93	1.266892	427654.4	-818255.5	1	923271.6	-62.40656	3.117507E-010	-0.0077706	5
	60	97	0.999041	521058.4	-948570.8	1	1082261	-61.21961	8.419515E-011	-0.0077949	4
