EXPLAIN
TAG	EISPOT
TITLE	LABEL	Potentiostatic EIS	Test &Identifier
DATE	LABEL	10/8/2019	Date
TIME	LABEL	10:31:49	Time
NOTES	NOTES	2	&Notes...
	
	
PSTAT	PSTAT	REF600-11020	Potentiostat
VDC	POTEN	0.00000E+000	T	DC &Voltage (V)
FREQINIT	QUANT	1.00000E+006	Initial Fre&q. (Hz)
FREQFINAL	QUANT	1.00000E+000	Final Fre&q. (Hz)
PTSPERDEC	QUANT	1.00000E+001	Points/&decade
VAC	QUANT	2.50000E+001	AC &Voltage (mV rms)
AREA	QUANT	1.00000E-002	&Area (cm^2)
CONDIT	TWOPARAM	T	5.00000E+000	0.00000E+000	Conditionin&g	Time(s)	E(V)
DELAY	TWOPARAM	T	5.00000E+000	0.00000E+000	Init. De&lay	Time(s)	Stab.(mV/s)
SPEED	SELECTOR	1	&Optimize for:
ZGUESS	QUANT	1.00000E+004	E&stimated Z (ohms)
OCVCURVE	TABLE	19
	Pt	T	Vf	Vm	Ach	Over
	#	s	V vs. Ref.	V	V	bits
	0	0.258333	8.42050E-003	8.42050E-003	5.49866E-004	...........
	1	0.516667	8.42184E-003	8.49067E-003	5.49166E-004	...........
	2	0.775	8.43020E-003	8.56382E-003	5.46866E-004	...........
	3	1.03333	8.45459E-003	8.65104E-003	5.49266E-004	...........
	4	1.29167	8.50041E-003	8.73160E-003	5.53399E-004	...........
	5	1.55	8.56535E-003	8.82115E-003	5.49966E-004	...........
	6	1.80833	8.64275E-003	8.90601E-003	5.54733E-004	...........
	7	2.06667	8.72653E-003	8.99738E-003	5.52866E-004	...........
	8	2.325	8.81293E-003	9.07546E-003	5.53566E-004	...........
	9	2.58333	8.89987E-003	9.16460E-003	5.46299E-004	...........
	10	2.84167	8.98634E-003	9.25643E-003	5.56199E-004	...........
	11	3.1	9.07263E-003	9.33746E-003	5.48599E-004	...........
	12	3.35833	9.15909E-003	9.41837E-003	5.41933E-004	...........
	13	3.61667	9.24505E-003	9.50331E-003	5.54366E-004	...........
	14	3.875	9.32966E-003	9.58180E-003	5.48833E-004	...........
	15	4.13333	9.41282E-003	9.66179E-003	5.55333E-004	...........
	16	4.39167	9.49457E-003	9.73521E-003	5.56666E-004	...........
	17	4.65	9.57463E-003	9.80792E-003	5.55433E-004	...........
	18	4.90833	9.65261E-003	9.88495E-003	5.49233E-004	...........
EOC	QUANT	0.0096526	Open Circuit (V)
PSTATMODEL	IQUANT	4	Pstat Model
PSTATSECTION	LABEL	REF600-11020	Pstat Section
PSTATSERIALNO	LABEL	11020	Pstat Serial Number
CTRLMODE	IQUANT	1	Control Mode
IESTAB	IQUANT	0	I/E Stability
CASPEED	IQUANT	1	Control Amp Speed
CONVENTION	IQUANT	1	Current Convention
ICHRANGE	IQUANT	2	Ich Range
ICHRANGEMODE	TOGGLE	F	Ich Auto Range
ICHOFFSETENABLE	TOGGLE	T	Ich Offset Enable
ICHOFFSET	QUANT	0	Ich Offset (V)
ICHFILTER	IQUANT	3	Ich Filter
VCHRANGE	IQUANT	2	Vch Range
VCHRANGEMODE	TOGGLE	F	Vch Auto Range
VCHOFFSETENABLE	TOGGLE	T	Vch Offset Enable
VCHOFFSET	QUANT	0	Vch Offset (V)
VCHFILTER	IQUANT	3	Vch Filter
ACHRANGE	IQUANT	2	Ach Range
ACHOFFSETENABLE	TOGGLE	F	Ach Offset Enable
ACHOFFSET	QUANT	0	Ach Offset (V)
ACHFILTER	IQUANT	3	Ach Filter
IERANGELOWERLIMIT	IQUANT	1	I/E Range Lower Limit
IERANGEMODE	TOGGLE	F	I/E AutoRange
IERANGE	IQUANT	6	I/E Range
POSFEEDENABLE	TOGGLE	F	Positive Feedback IR Comp
POSFEEDRESISTANCE	QUANT	0	Positive Feedback Resistance (ohm)
ACHSELECT	IQUANT	0	Ach Select
CABLEID	IQUANT	14	Cable ID
DCCALDATE	LABEL	8/19/2019	DC Calibration Date
ACCALDATE	LABEL	8/19/2019	AC Calibration Date
THERMOSELECT	IQUANT	1	Thermo Select
FRAMEWORKVERSION	QUANT	6.33	Framework Version
INSTRUMENTVERSION	LABEL	3.50	Instrument Version
ZCURVE	TABLE
	Pt	Time	Freq	Zreal	Zimag	Zsig	Zmod	Zphz	Idc	Vdc	IERange
	#	s	Hz	ohm	ohm	V	ohm	°	A	V	#
	0	2	1000078	2471.79	-1562.361	1	2924.161	-32.29604	4.879361E-006	0.0108999	8
	1	3	794390.6	2754.025	-1486.45	1	3129.566	-28.35739	-6.016501E-006	0.0123777	8
	2	5	630984.4	3031.65	-1381.945	1	3331.767	-24.50536	1.609679E-006	0.0115777	8
	3	6	501234.4	3241.679	-1257.979	1	3477.211	-21.20944	8.088711E-007	0.0111957	8
	4	7	398109.4	3425.684	-1112.218	1	3601.714	-17.98708	-3.591104E-006	0.0121621	8
	5	9	316265.6	3574.426	-992.187	1	3709.576	-15.51356	9.503744E-007	0.0110079	8
	6	10	251203.1	3694.268	-876.1069	1	3796.733	-13.3414	-3.427808E-006	0.0120891	8
	7	12	199546.9	3782.693	-768.0304	1	3859.875	-11.4772	-3.113127E-006	0.0118044	8
	8	13	158578.1	3872.912	-697.092	1	3935.148	-10.20351	-8.491089E-007	0.0116707	8
	9	14	125953.1	3949.829	-577.496	1	3991.823	-8.318155	4.013314E-007	0.0104208	7
	10	16	100078.1	3987.957	-544.5449	1	4024.963	-7.775499	-4.076417E-008	0.0113873	7
	11	17	79453.13	4037.063	-522.6552	1	4070.755	-7.376721	-5.999333E-008	0.0113556	7
	12	18	63140.62	4086.037	-512.2883	1	4118.025	-7.146191	-4.393962E-008	0.0113212	7
	13	20	50203.12	4134.949	-510.8884	1	4166.391	-7.043412	-4.077823E-008	0.0113754	7
	14	21	39890.62	4187.562	-522.2574	1	4220.003	-7.109014	-7.962731E-008	0.0114254	7
	15	23	31640.63	4237.291	-542.2606	1	4271.847	-7.292698	4.773226E-008	0.0112441	7
	16	24	25171.88	4292.358	-572.3116	1	4330.344	-7.594606	-4.122514E-008	0.0113348	7
	17	25	20015.62	4353.688	-616.9783	1	4397.188	-8.065902	-4.140643E-008	0.0113327	7
	18	27	15890.62	4420.222	-666.1801	1	4470.141	-8.570653	-7.761293E-008	0.0114189	7
	19	28	12609.37	4491.872	-731.4524	1	4551.037	-9.248816	-3.235052E-008	0.0113705	7
	20	29	10078.13	4570.945	-807.1062	1	4641.655	-10.01368	3.226757E-010	0.011414	7
	21	31	8015.625	4661.27	-897.6404	1	4746.914	-10.90025	-7.470572E-009	0.0113109	7
	22	32	6328.125	4761.932	-1003.841	1	4866.589	-11.90397	-5.825873E-008	0.0113391	7
	23	33	5015.625	4873.29	-1125.338	1	5001.533	-13.00279	7.722142E-009	0.0112214	7
	24	35	3984.375	4984.534	-1267.843	1	5143.249	-14.27086	-3.453988E-008	0.0112859	7
	25	36	3170.956	5129.124	-1422.219	1	5322.651	-15.49779	-3.569315E-008	0.0112893	7
	26	38	2527.573	5268.655	-1607.146	1	5508.325	-16.96376	4.566793E-008	0.0111432	7
	27	39	1976.103	5440.487	-1829.97	1	5740.007	-18.59095	-2.988768E-008	0.0113684	7
	28	40	1577.524	5601.124	-2068.719	1	5970.945	-20.27121	-3.643481E-009	0.0113296	7
	29	42	1265.625	5757.48	-2355.672	1	6220.753	-22.25191	4.475091E-008	0.0111343	7
	30	43	998.264	5933.141	-2731.373	1	6531.658	-24.71939	-1.616167E-008	0.0113186	7
	31	44	796.875	6100.321	-3169.052	1	6874.359	-27.4514	-2.055814E-008	0.0112504	7
	32	46	627.7902	6289.1	-3744.14	1	7319.246	-30.76695	-5.657621E-008	0.0113522	7
	33	47	505.5147	6458.109	-4408.4	1	7819.281	-34.31802	-7.338206E-008	0.0115214	7
	34	48	397.9953	6681.911	-5305.694	1	8532.193	-38.45093	3.504667E-009	0.0113027	7
	35	50	315.5048	6925.193	-6411.625	1	9437.544	-42.79477	4.603685E-009	0.011305	7
	36	51	252.4038	7206.414	-7731.028	1	10568.88	-47.01144	7.886488E-010	0.0112432	6
	37	52	198.6229	7579.284	-9493.07	1	12147.59	-51.39607	4.069683E-010	0.0112463	6
	38	54	158.3615	8029.117	-11555.84	1	14071.39	-55.20803	9.321715E-010	0.0112427	6
	39	55	125.558	8622.426	-14149.17	1	16569.41	-58.64211	3.781233E-010	0.0112427	6
	40	57	100.4464	9360.86	-17188.71	1	19572.36	-61.42757	1.160078E-009	0.0112428	6
	41	58	79.00281	10389.12	-21191.77	1	23601.38	-63.88391	3.113449E-010	0.011241	6
	42	59	63.3446	11581.93	-25533.71	1	28037.68	-65.60126	9.414704E-011	0.0112398	6
	43	61	49.86702	13589.52	-31450.4	1	34260.8	-66.63113	2.11433E-010	0.0112398	6
	44	62	39.72458	15727.86	-38073.13	1	41193.8	-67.55468	3.346944E-010	0.0112435	6
	45	64	31.6723	18574.95	-45869.74	1	49487.99	-67.95451	2.976601E-010	0.0112464	6
	46	65	24.93351	22536.41	-55791.8	1	60171.54	-68.00436	-1.324392E-010	0.0112418	6
	47	66	19.86229	27349.59	-66877.48	1	72253.7	-67.75786	2.392289E-010	0.0112403	6
	48	68	15.83615	33587.54	-79185.16	1	86014.03	-67.01506	4.55309E-010	0.0112457	6
	49	69	12.40079	41882.76	-95592.9	1	104365.6	-66.34001	-1.099849E-009	0.0112489	6
	50	71	9.93114	51182.23	-111954.9	1	123099.6	-65.43162	-1.76081E-010	0.0112501	5
	51	72	7.944915	62274.8	-130453.4	1	144555.4	-64.48151	-3.198704E-010	0.0112497	5
	52	74	6.317385	75531.86	-151997.3	1	169729.9	-63.57589	3.207078E-011	0.0112354	5
	53	76	5.008013	90919.05	-176690.3	1	198710.1	-62.77113	-7.522637E-011	0.0112436	5
	54	78	3.945707	108203.5	-205745.2	1	232463.1	-62.25965	-1.993913E-010	0.0112416	5
	55	81	3.158693	126122.4	-237216.6	1	268660.7	-62.0015	1.70678E-010	0.0112621	5
	56	84	2.504006	146212.3	-276222.3	1	312532.9	-62.10646	-2.855117E-010	0.0112435	5
	57	87	1.998082	167183	-321196.2	1	362101	-62.50297	-1.47328E-010	0.01123	5
	58	90	1.584686	192721.3	-377096.9	1	423489.8	-62.92999	1.070091E-011	0.0112959	5
	59	94	1.266892	219134.7	-443098.8	1	494324.3	-63.68529	-9.637678E-011	0.0112468	5
	60	98	0.999041	253132.2	-528508.3	1	586000.8	-64.40763	1.686554E-010	0.0112614	5
