EXPLAIN
TAG	EISPOT
TITLE	LABEL	Potentiostatic EIS	Test &Identifier
DATE	LABEL	9/24/2019	Date
TIME	LABEL	10:22:56	Time
NOTES	NOTES	1	&Notes...
	
PSTAT	PSTAT	REF600-11020	Potentiostat
VDC	POTEN	0.00000E+000	T	DC &Voltage (V)
FREQINIT	QUANT	1.00000E+006	Initial Fre&q. (Hz)
FREQFINAL	QUANT	1.00000E+000	Final Fre&q. (Hz)
PTSPERDEC	QUANT	1.00000E+001	Points/&decade
VAC	QUANT	2.50000E+001	AC &Voltage (mV rms)
AREA	QUANT	1.00000E-002	&Area (cm^2)
CONDIT	TWOPARAM	T	5.00000E+000	0.00000E+000	Conditionin&g	Time(s)	E(V)
DELAY	TWOPARAM	T	5.00000E+000	0.00000E+000	Init. De&lay	Time(s)	Stab.(mV/s)
SPEED	SELECTOR	1	&Optimize for:
ZGUESS	QUANT	1.00000E+004	E&stimated Z (ohms)
OCVCURVE	TABLE	19
	Pt	T	Vf	Vm	Ach	Over
	#	s	V vs. Ref.	V	V	bits
	0	0.258333	5.54128E-003	5.54128E-003	5.73666E-004	...........
	1	0.516667	5.54151E-003	5.55375E-003	5.76899E-004	...........
	2	0.775	5.54282E-003	5.55712E-003	5.79732E-004	...........
	3	1.03333	5.54611E-003	5.56794E-003	5.79632E-004	...........
	4	1.29167	5.55172E-003	5.58506E-003	5.78266E-004	...........
	5	1.55	5.55982E-003	5.60059E-003	5.75499E-004	...........
	6	1.80833	5.57084E-003	5.62264E-003	5.75165E-004	...........
	7	2.06667	5.58482E-003	5.63532E-003	5.77832E-004	...........
	8	2.325	5.60099E-003	5.65401E-003	5.73932E-004	...........
	9	2.58333	5.61804E-003	5.66877E-003	5.78165E-004	...........
	10	2.84167	5.63498E-003	5.68303E-003	5.77432E-004	...........
	11	3.1	5.65161E-003	5.71203E-003	5.75766E-004	...........
	12	3.35833	5.66860E-003	5.72460E-003	5.76466E-004	...........
	13	3.61667	5.68664E-003	5.74257E-003	5.77499E-004	...........
	14	3.875	5.70514E-003	5.75426E-003	5.73666E-004	...........
	15	4.13333	5.72285E-003	5.77126E-003	5.80099E-004	...........
	16	4.39167	5.73907E-003	5.77649E-003	5.77366E-004	...........
	17	4.65	5.75375E-003	5.80029E-003	5.80266E-004	...........
	18	4.90833	5.76747E-003	5.80716E-003	5.78865E-004	...........
EOC	QUANT	0.0057675	Open Circuit (V)
PSTATMODEL	IQUANT	4	Pstat Model
PSTATSECTION	LABEL	REF600-11020	Pstat Section
PSTATSERIALNO	LABEL	11020	Pstat Serial Number
CTRLMODE	IQUANT	1	Control Mode
IESTAB	IQUANT	0	I/E Stability
CASPEED	IQUANT	1	Control Amp Speed
CONVENTION	IQUANT	1	Current Convention
ICHRANGE	IQUANT	2	Ich Range
ICHRANGEMODE	TOGGLE	F	Ich Auto Range
ICHOFFSETENABLE	TOGGLE	T	Ich Offset Enable
ICHOFFSET	QUANT	0	Ich Offset (V)
ICHFILTER	IQUANT	3	Ich Filter
VCHRANGE	IQUANT	2	Vch Range
VCHRANGEMODE	TOGGLE	F	Vch Auto Range
VCHOFFSETENABLE	TOGGLE	T	Vch Offset Enable
VCHOFFSET	QUANT	0	Vch Offset (V)
VCHFILTER	IQUANT	3	Vch Filter
ACHRANGE	IQUANT	2	Ach Range
ACHOFFSETENABLE	TOGGLE	F	Ach Offset Enable
ACHOFFSET	QUANT	0	Ach Offset (V)
ACHFILTER	IQUANT	3	Ach Filter
IERANGELOWERLIMIT	IQUANT	1	I/E Range Lower Limit
IERANGEMODE	TOGGLE	F	I/E AutoRange
IERANGE	IQUANT	6	I/E Range
POSFEEDENABLE	TOGGLE	F	Positive Feedback IR Comp
POSFEEDRESISTANCE	QUANT	0	Positive Feedback Resistance (ohm)
ACHSELECT	IQUANT	0	Ach Select
CABLEID	IQUANT	14	Cable ID
DCCALDATE	LABEL	8/19/2019	DC Calibration Date
ACCALDATE	LABEL	8/19/2019	AC Calibration Date
THERMOSELECT	IQUANT	1	Thermo Select
FRAMEWORKVERSION	QUANT	6.33	Framework Version
INSTRUMENTVERSION	LABEL	3.50	Instrument Version
ZCURVE	TABLE
	Pt	Time	Freq	Zreal	Zimag	Zsig	Zmod	Zphz	Idc	Vdc	IERange
	#	s	Hz	ohm	ohm	V	ohm	°	A	V	#
	0	2	1000078	2167.668	-1952.063	1	2917.076	-42.00417	-2.735824E-006	0.0093341	8
	1	3	794390.6	2561.865	-1998.192	1	3248.988	-37.95336	5.445521E-006	0.0069571	8
	2	5	630984.4	2958.41	-1982.25	1	3561.111	-33.82363	6.19615E-007	0.0071317	8
	3	6	501234.4	3327.606	-1884.156	1	3824.004	-29.51939	-2.655668E-006	0.0078955	8
	4	8	398109.4	3672.756	-1769.185	1	4076.659	-25.72035	-1.209457E-006	0.0077199	8
	5	9	316265.6	3961.911	-1582.172	1	4266.147	-21.76908	8.290338E-007	0.0070653	8
	6	10	251203.1	4208.767	-1433.02	1	4446.04	-18.80291	3.423486E-006	0.0067428	8
	7	12	199546.9	4377.614	-1268.214	1	4557.617	-16.15654	-1.436299E-006	0.0076433	8
	8	13	158578.1	4546.269	-1090.035	1	4675.119	-13.48299	-2.253093E-006	0.0077204	8
	9	15	125953.1	4691.725	-896.3958	1	4776.59	-10.81651	-5.629661E-007	0.0079431	7
	10	16	100078.1	4775.348	-796.3193	1	4841.289	-9.467318	7.132142E-008	0.0072123	7
	11	17	79453.13	4847.341	-706.4518	1	4898.549	-8.291912	-4.08298E-008	0.0073728	7
	12	19	63140.62	4904.446	-639.7778	1	4946	-7.432183	-2.219756E-008	0.0073922	7
	13	20	50203.12	4952.356	-589.6584	1	4987.336	-6.790027	-4.434433E-008	0.0074737	7
	14	21	39890.62	4997.814	-555.1754	1	5028.555	-6.338636	-1.104066E-009	0.0073547	7
	15	23	31640.63	5039.056	-540.389	1	5067.949	-6.121014	1.184299E-008	0.0072566	7
	16	24	25171.88	5078.762	-540.1666	1	5107.407	-6.071037	-4.308323E-008	0.0074679	7
	17	25	20015.62	5119.824	-555.7337	1	5149.897	-6.194943	-3.163323E-008	0.0073177	7
	18	27	15890.62	5160.759	-584.9072	1	5193.799	-6.466164	4.151893E-008	0.007265	7
	19	28	12609.37	5208.368	-636.5757	1	5247.125	-6.968228	-4.292227E-008	0.007466	7
	20	29	10078.13	5256.255	-698.0504	1	5302.405	-7.564827	2.666744E-009	0.0072545	7
	21	31	8015.625	5307.056	-782.2611	1	5364.399	-8.38503	-5.995741E-008	0.0074152	7
	22	32	6328.125	5366.744	-893.4277	1	5440.602	-9.451627	-4.434747E-008	0.0074689	7
	23	34	5015.625	5428.917	-1027.918	1	5525.375	-10.72154	-3.077061E-008	0.0073144	7
	24	35	3984.375	5498.335	-1193.575	1	5626.394	-12.2477	-4.250969E-008	0.0073912	7
	25	36	3170.956	5574.782	-1397.034	1	5747.164	-14.06854	-3.413827E-008	0.0073217	7
	26	38	2527.573	5661.202	-1642.249	1	5894.589	-16.17683	1.300095E-008	0.0072451	7
	27	39	1976.103	5768.524	-1972.987	1	6096.602	-18.88204	-1.995713E-008	0.0073743	7
	28	40	1577.524	5881.667	-2340.549	1	6330.259	-21.69957	7.192181E-008	0.007188	7
	29	42	1265.625	5994.072	-2772.668	1	6604.286	-24.82377	4.209181E-008	0.0072592	7
	30	43	998.264	6163.917	-3366.775	1	7023.463	-28.64368	-2.721649E-008	0.0073105	7
	31	44	796.875	6341.334	-4038.258	1	7517.981	-32.4896	-3.519107E-008	0.0073192	7
	32	46	627.7902	6559.961	-4909.901	1	8193.913	-36.81357	1.275357E-007	0.0071338	7
	33	47	505.5147	6797.509	-5880.138	1	8987.89	-40.86121	-3.974217E-008	0.0073953	7
	34	48	397.9953	7107.638	-7165.664	1	10092.83	-45.23293	1.497427E-009	0.0072814	6
	35	50	315.5048	7466.459	-8712.191	1	11473.9	-49.403	9.961394E-010	0.007275	6
	36	51	252.4038	7882.262	-10529.51	1	13152.97	-53.18192	1.835107E-009	0.0072686	6
	37	53	198.6229	8420.497	-12917.95	1	15420.06	-56.90189	1.061397E-009	0.0072709	6
	38	54	158.3615	9050.747	-15697.16	1	18119.52	-60.0329	1.333552E-009	0.0072679	6
	39	55	125.558	9837.02	-19173.15	1	21549.4	-62.83936	9.958927E-010	0.0072714	6
	40	57	100.4464	10799.51	-23236.85	1	25623.83	-65.07298	2.048121E-009	0.0072651	6
	41	58	79.00281	12091.05	-28706.03	1	31148.51	-67.15906	1.696911E-009	0.0072689	6
	42	59	63.3446	13271.48	-34798.3	1	37243.17	-69.124	4.307611E-010	0.0072695	6
	43	61	49.86702	15746.02	-42381.21	1	45211.77	-69.61831	1.600673E-009	0.0072646	6
	44	62	39.72458	18574.65	-51854.68	1	55081.08	-70.29218	1.389316E-009	0.0072674	6
	45	64	31.6723	21770.88	-62941.28	1	66600.12	-70.91991	2.793563E-010	0.0072658	6
	46	65	24.93351	26945.33	-77090.98	1	81664.38	-70.73414	7.161799E-010	0.007266	6
	47	66	19.86229	33268.65	-93008.02	1	98779	-70.31805	1.288463E-009	0.0072711	6
	48	68	15.83615	41582.11	-111389.4	1	118897.7	-69.5292	7.872774E-010	0.0072699	5
	49	69	12.40079	53648.96	-136434.8	1	146603.7	-68.53423	-9.494719E-010	0.0072736	5
	50	71	9.93114	66230.23	-161408.1	1	174467.8	-67.69029	6.541691E-010	0.0072683	5
	51	72	7.944915	83948.81	-189537.3	1	207296.4	-66.11076	-1.273843E-010	0.0072725	5
	52	74	6.317385	106523.5	-222606.5	1	246781	-64.42757	6.931563E-010	0.0072669	5
	53	76	5.008013	135476.6	-259928.1	1	293115.2	-62.47112	3.976011E-010	0.007281	5
	54	78	3.945707	171576.5	-300610.1	1	346128.5	-60.28396	-1.49798E-010	0.0072696	5
	55	81	3.158693	211893	-340462.8	1	401015.6	-58.1032	4.936389E-010	0.0072842	5
	56	84	2.504006	261036.6	-384363.3	1	464623.8	-55.81799	-3.617116E-010	0.0072683	5
	57	87	1.998082	313716.1	-426570.8	1	529509.6	-53.66784	6.085345E-011	0.0072404	5
	58	90	1.584686	372173.3	-470007.9	1	599516.8	-51.62625	-9.64882E-012	0.0072983	5
	59	94	1.266892	433580.9	-514703.6	1	672987.5	-49.88956	4.139454E-011	0.0072382	5
	60	98	0.999041	499450.5	-563412.8	1	752917.5	-48.44386	2.828363E-010	0.0073188	5
