EXPLAIN
TAG	EISPOT
TITLE	LABEL	Potentiostatic EIS	Test &Identifier
DATE	LABEL	10/16/2019	Date
TIME	LABEL	8:59:28	Time
NOTES	NOTES	1	&Notes...
	
PSTAT	PSTAT	REF600-11020	Potentiostat
VDC	POTEN	0.00000E+000	T	DC &Voltage (V)
FREQINIT	QUANT	1.00000E+006	Initial Fre&q. (Hz)
FREQFINAL	QUANT	1.00000E+000	Final Fre&q. (Hz)
PTSPERDEC	QUANT	1.00000E+001	Points/&decade
VAC	QUANT	2.50000E+001	AC &Voltage (mV rms)
AREA	QUANT	1.00000E-002	&Area (cm^2)
CONDIT	TWOPARAM	T	5.00000E+000	0.00000E+000	Conditionin&g	Time(s)	E(V)
DELAY	TWOPARAM	T	5.00000E+000	0.00000E+000	Init. De&lay	Time(s)	Stab.(mV/s)
SPEED	SELECTOR	0	&Optimize for:
ZGUESS	QUANT	1.00000E+005	E&stimated Z (ohms)
OCVCURVE	TABLE	19
	Pt	T	Vf	Vm	Ach	Over
	#	s	V vs. Ref.	V	V	bits
	0	0.258333	6.25418E-002	6.25418E-002	5.83165E-004	...........
	1	0.516667	6.24498E-002	5.77274E-002	5.80432E-004	...........
	2	0.775	6.19001E-002	5.39501E-002	5.82699E-004	...........
	3	1.03333	6.03629E-002	4.86558E-002	5.80632E-004	...........
	4	1.29167	5.75424E-002	4.21161E-002	5.84465E-004	...........
	5	1.55	5.33854E-002	3.08420E-002	5.83832E-004	...........
	6	1.80833	4.80080E-002	3.52992E-002	5.85099E-004	...........
	7	2.06667	4.22740E-002	3.42925E-002	5.80266E-004	...........
	8	2.325	3.76846E-002	3.23061E-002	5.89099E-004	...........
	9	2.58333	3.49778E-002	3.35053E-002	5.85799E-004	...........
	10	2.84167	3.37335E-002	3.40737E-002	5.86832E-004	...........
	11	3.1	3.33150E-002	3.27342E-002	5.77932E-004	...........
	12	3.35833	3.32904E-002	3.39767E-002	5.84699E-004	...........
	13	3.61667	3.33633E-002	3.30290E-002	5.73832E-004	...........
	14	3.875	3.34190E-002	3.41279E-002	5.77299E-004	...........
	15	4.13333	3.34644E-002	3.29248E-002	5.84099E-004	...........
	16	4.39167	3.34922E-002	3.35096E-002	5.80499E-004	...........
	17	4.65	3.34681E-002	3.30641E-002	5.82599E-004	...........
	18	4.90833	3.34012E-002	3.36505E-002	5.77632E-004	...........
EOC	QUANT	0.0334012	Open Circuit (V)
PSTATMODEL	IQUANT	4	Pstat Model
PSTATSECTION	LABEL	REF600-11020	Pstat Section
PSTATSERIALNO	LABEL	11020	Pstat Serial Number
CTRLMODE	IQUANT	1	Control Mode
IESTAB	IQUANT	0	I/E Stability
CASPEED	IQUANT	1	Control Amp Speed
CONVENTION	IQUANT	1	Current Convention
ICHRANGE	IQUANT	2	Ich Range
ICHRANGEMODE	TOGGLE	F	Ich Auto Range
ICHOFFSETENABLE	TOGGLE	T	Ich Offset Enable
ICHOFFSET	QUANT	0	Ich Offset (V)
ICHFILTER	IQUANT	3	Ich Filter
VCHRANGE	IQUANT	2	Vch Range
VCHRANGEMODE	TOGGLE	F	Vch Auto Range
VCHOFFSETENABLE	TOGGLE	T	Vch Offset Enable
VCHOFFSET	QUANT	0	Vch Offset (V)
VCHFILTER	IQUANT	3	Vch Filter
ACHRANGE	IQUANT	2	Ach Range
ACHOFFSETENABLE	TOGGLE	F	Ach Offset Enable
ACHOFFSET	QUANT	0	Ach Offset (V)
ACHFILTER	IQUANT	3	Ach Filter
IERANGELOWERLIMIT	IQUANT	1	I/E Range Lower Limit
IERANGEMODE	TOGGLE	F	I/E AutoRange
IERANGE	IQUANT	5	I/E Range
POSFEEDENABLE	TOGGLE	F	Positive Feedback IR Comp
POSFEEDRESISTANCE	QUANT	0	Positive Feedback Resistance (ohm)
ACHSELECT	IQUANT	0	Ach Select
CABLEID	IQUANT	14	Cable ID
DCCALDATE	LABEL	8/19/2019	DC Calibration Date
ACCALDATE	LABEL	8/19/2019	AC Calibration Date
THERMOSELECT	IQUANT	1	Thermo Select
FRAMEWORKVERSION	QUANT	6.33	Framework Version
INSTRUMENTVERSION	LABEL	3.50	Instrument Version
ZCURVE	TABLE
	Pt	Time	Freq	Zreal	Zimag	Zsig	Zmod	Zphz	Idc	Vdc	IERange
	#	s	Hz	ohm	ohm	V	ohm	°	A	V	#
	0	1	1000078	817.9745	-9373.735	1	9409.356	-85.01286	-3.202407E-006	0.0364923	8
	1	1	794390.6	778.2176	-11535.37	1	11561.59	-86.14047	-3.118791E-006	0.0361135	8
	2	2	630984.4	945.6061	-14441.57	1	14472.5	-86.25373	3.023243E-006	0.0346437	8
	3	2	501234.4	1140.875	-18051.28	1	18087.3	-86.38361	4.489168E-007	0.0351835	8
	4	3	398109.4	2018.738	-23031.29	1	23119.6	-84.99072	1.458568E-006	0.0347835	8
	5	4	316265.6	1416.072	-27511.99	1	27548.41	-87.05353	7.58854E-007	0.0348795	8
	6	5	251203.1	2837.832	-35497.71	1	35610.96	-85.42926	1.676953E-006	0.0346577	8
	7	5	199546.9	1962.543	-43524.57	1	43568.8	-87.41826	-7.571668E-007	0.0353342	8
	8	5	158578.1	706.7127	-54697.39	1	54701.96	-89.25976	-1.822292E-006	0.0354373	8
	9	5	125953.1	4765.858	-69185.38	1	69349.34	-86.05939	9.860403E-007	0.0327087	7
	10	6	100078.1	5970.401	-85923.23	1	86130.41	-86.02518	-1.114481E-008	0.0349788	7
	11	6	79453.13	6695.314	-106540	1	106750.1	-86.40408	-8.068663E-008	0.0351265	7
	12	7	63140.62	8136.431	-133685.4	1	133932.8	-86.51713	-4.546792E-008	0.0350711	7
	13	7	50203.12	9799.25	-166380.9	1	166669.3	-86.62937	-2.356071E-008	0.0350512	7
	14	8	39890.62	13718.33	-207281.6	1	207735	-86.21357	2.302343E-009	0.0349718	7
	15	8	31640.63	15258.62	-260379.6	1	260826.3	-86.64622	5.320069E-008	0.0349381	7
	16	9	25171.88	19859.44	-328482.2	1	329082	-86.54021	-6.995946E-008	0.0351284	7
	17	9	20015.62	120529.2	-354899.5	1	374807.9	-71.24174	5.37856E-008	0.0349385	7
	18	9	15890.62	21749.69	-506037.1	1	506504.3	-87.53892	-2.97478E-008	0.035013	7
	19	10	12609.37	41355.11	-642444.8	1	643774.4	-86.31687	-1.083816E-008	0.0351982	6
	20	10	10078.13	45511.03	-785885.6	1	787202.3	-86.68568	4.317192E-009	0.0347905	6
	21	10	8015.625	30473.06	-1003071	1	1003534	-88.2599	3.186001E-009	0.0347398	6
	22	11	6328.125	111261.2	-1246995	1	1251948	-84.90137	-5.028076E-009	0.0348632	6
	23	11	5015.625	128707.8	-1529026	1	1534433	-85.18839	-7.889221E-009	0.035045	6
	24	12	3984.375	1675890	-4551412	1	4850151	-69.78562	7.04643E-009	0.0347822	6
	25	12	3170.956	195307.3	-2341504	1	2349636	-85.23193	-1.076177E-008	0.035186	6
	26	13	2527.573	207083.5	-2882545	1	2889974	-85.8909	2.251906E-008	0.0346307	6
	27	13	1976.103	1554568	-4388688	1	4655885	-70.49475	8.727219E-010	0.0348857	6
	28	14	1577.524	-825638.5	-859756.7	1	1191999	-133.8403	2.177946E-008	0.0346287	6
	29	14	1265.625	780108.9	-5555936	1	5610436	-82.00735	-2.571815E-010	0.0351842	5
	30	14	998.264	572733.6	-7304280	1	7326700	-85.51657	-4.236621E-011	0.0351271	5
	31	15	796.875	2531123	-9411718	1	9.746128E+006	-74.94742	2.27148E-008	0.0346313	6
	32	16	627.7902	1173260	-1.154541E+007	1	1.160487E+007	-84.19745	1.725029E-010	0.035049	5
	33	16	505.5147	2259607	-1.404147E+007	1	1.422212E+007	-80.85812	-7.820449E-010	0.0348888	5
	34	17	397.9953	4968350	-1.721492E+007	1	1.791753E+007	-73.90147	2.075871E-010	0.034959	5
	35	17	315.5048	1739796	-2.405727E+007	1	2.41201E+007	-85.86363	1.564507E-010	0.0349608	5
	36	17	252.4038	9.833785E+006	-2.557524E+007	1	2.740066E+007	-68.96804	-7.427723E-010	0.0349602	5
	37	18	198.6229	7298311	-2.74777E+007	1	2.843043E+007	-75.1252	-2.308332E-010	0.0349601	5
	38	18	158.3615	-7799842	-3.672338E+007	1	3.754256E+007	-101.9911	-4.803263E-010	0.034959	5
	39	19	125.558	5862395	-3.97091E+007	1	4.013951E+007	-81.60188	2.863145E-010	0.0349584	4
	40	19	100.4464	-2.87597E+007	-2979959	1	2.891367E+007	-174.0844	7.814906E-010	0.0349551	4
	41	20	79.00281	1.203298E+007	1762135	1	1.216132E+007	8.331299	2.941248E-010	0.0349588	4
	42	20	63.3446	2432715	-3566171	1	4316906	-55.69958	-2.721783E-010	0.0349544	4
	43	21	49.86702	-3.324558E+007	-2.764931E+007	1	4.324064E+007	-140.2508	3.107749E-011	0.0349518	4
	44	21	39.72458	2.640331E+007	-8917698	1	2.786862E+007	-18.66236	3.001934E-010	0.0349536	4
	45	22	31.6723	-3.405497E+007	-6757284	1	3.47189E+007	-168.777	2.764868E-010	0.0349525	4
	46	22	24.93351	8.273011E+007	-1.967609E+007	1	8.503776E+007	-13.37837	-4.233975E-011	0.0349553	4
	47	23	19.86229	-1.351549E+008	7.87313E+007	1	1.564144E+008	149.7781	-1.322554E-010	0.034951	5
	48	23	15.83615	-870738.4	-1.155285E+007	1	1.158562E+007	-94.31023	1.390979E-009	0.0349426	4
	49	24	12.40079	-3.2109E+007	-4.880163E+007	1	5.841735E+007	-123.3429	2.684232E-010	0.0349555	4
	50	25	9.93114	1.122161E+008	-1.153668E+008	1	1.609408E+008	-45.79317	3.350345E-011	0.0349532	4
	51	25	7.944915	2.223823E+007	6.003003E+007	1	6.401674E+007	69.67276	3.040142E-010	0.0349562	4
	52	26	6.317385	1.951005E+008	-6.155722E+007	1	2.045813E+008	-17.51129	4.734451E-011	0.0349726	5
	53	28	5.008013	5.31068E+008	1.920566E+008	1	5.647291E+008	19.88213	-3.523645E-011	0.0349493	4
	54	30	3.945707	1.832036E+008	3.921768E+008	1	4.328582E+008	64.96059	-5.960414E-011	0.0349497	4
	55	32	3.158693	2.136234E+008	-3.68352E+007	1	2.167759E+008	-9.78334	2.236517E-011	0.034962	4
	56	34	2.504006	6.880028E+008	-1.056115E+008	1	6.960614E+008	-8.727034	4.134855E-011	0.0349425	3
	57	36	1.998082	7.591971E+008	-8.659952E+007	1	7.641203E+008	-6.507445	4.07119E-011	0.0349754	3
	58	39	1.584686	7.238426E+008	-8.121629E+007	1	7.283846E+008	-6.401902	4.124915E-011	0.0349013	3
	59	43	1.266892	7.20955E+009	-2.026862E+009	1	7.489044E+009	-15.70257	-1.409928E-012	0.0349141	2
	60	47	0.999041	7.337684E+009	-1.762351E+009	1	7.546356E+009	-13.50538	-1.630228E-012	0.0349484	2
