EXPLAIN
TAG	EISPOT
TITLE	LABEL	Potentiostatic EIS	Test &Identifier
DATE	LABEL	11/11/2019	Date
TIME	LABEL	11:44:26	Time
NOTES	NOTES	3	&Notes...
	
	
	
PSTAT	PSTAT	REF600-11020	Potentiostat
VDC	POTEN	0.00000E+000	T	DC &Voltage (V)
FREQINIT	QUANT	1.00000E+006	Initial Fre&q. (Hz)
FREQFINAL	QUANT	1.00000E+000	Final Fre&q. (Hz)
PTSPERDEC	QUANT	1.00000E+001	Points/&decade
VAC	QUANT	2.50000E+001	AC &Voltage (mV rms)
AREA	QUANT	1.00000E-002	&Area (cm^2)
CONDIT	TWOPARAM	T	5.00000E+000	0.00000E+000	Conditionin&g	Time(s)	E(V)
DELAY	TWOPARAM	T	5.00000E+000	0.00000E+000	Init. De&lay	Time(s)	Stab.(mV/s)
SPEED	SELECTOR	1	&Optimize for:
ZGUESS	QUANT	1.00000E+005	E&stimated Z (ohms)
OCVCURVE	TABLE	19
	Pt	T	Vf	Vm	Ach	Over
	#	s	V vs. Ref.	V	V	bits
	0	0.258333	1.53286E-003	1.53286E-003	5.75599E-004	...........
	1	0.516667	1.52653E-003	1.20136E-003	5.82499E-004	...........
	2	0.775	1.48792E-003	9.01712E-004	5.80432E-004	...........
	3	1.03333	1.37987E-003	6.27184E-004	5.82232E-004	...........
	4	1.29167	1.18965E-003	3.74701E-004	5.81565E-004	...........
	5	1.55	9.42237E-004	1.40231E-004	5.78066E-004	...........
	6	1.80833	6.75382E-004	-8.26125E-005	5.82899E-004	...........
	7	2.06667	4.15046E-004	-2.91398E-004	5.80932E-004	...........
	8	2.325	1.71356E-004	-4.84838E-004	5.82699E-004	...........
	9	2.58333	-5.48565E-005	-6.75104E-004	5.81965E-004	...........
	10	2.84167	-2.65999E-004	-8.53884E-004	5.83065E-004	...........
	11	3.1	-4.64934E-004	-1.02394E-003	5.84732E-004	...........
	12	3.35833	-6.53861E-004	-1.19164E-003	5.78865E-004	...........
	13	3.61667	-8.34190E-004	-1.34708E-003	5.83932E-004	...........
	14	3.875	-1.00685E-003	-1.50082E-003	5.77466E-004	...........
	15	4.13333	-1.17244E-003	-1.64669E-003	5.82832E-004	...........
	16	4.39167	-1.33139E-003	-1.78506E-003	5.78399E-004	...........
	17	4.65	-1.48399E-003	-1.92120E-003	5.82765E-004	...........
	18	4.90833	-1.63047E-003	-2.05009E-003	5.82332E-004	...........
EOC	QUANT	-0.0016305	Open Circuit (V)
PSTATMODEL	IQUANT	4	Pstat Model
PSTATSECTION	LABEL	REF600-11020	Pstat Section
PSTATSERIALNO	LABEL	11020	Pstat Serial Number
CTRLMODE	IQUANT	1	Control Mode
IESTAB	IQUANT	0	I/E Stability
CASPEED	IQUANT	1	Control Amp Speed
CONVENTION	IQUANT	1	Current Convention
ICHRANGE	IQUANT	2	Ich Range
ICHRANGEMODE	TOGGLE	F	Ich Auto Range
ICHOFFSETENABLE	TOGGLE	T	Ich Offset Enable
ICHOFFSET	QUANT	0	Ich Offset (V)
ICHFILTER	IQUANT	3	Ich Filter
VCHRANGE	IQUANT	2	Vch Range
VCHRANGEMODE	TOGGLE	F	Vch Auto Range
VCHOFFSETENABLE	TOGGLE	T	Vch Offset Enable
VCHOFFSET	QUANT	0	Vch Offset (V)
VCHFILTER	IQUANT	3	Vch Filter
ACHRANGE	IQUANT	2	Ach Range
ACHOFFSETENABLE	TOGGLE	F	Ach Offset Enable
ACHOFFSET	QUANT	0	Ach Offset (V)
ACHFILTER	IQUANT	3	Ach Filter
IERANGELOWERLIMIT	IQUANT	1	I/E Range Lower Limit
IERANGEMODE	TOGGLE	F	I/E AutoRange
IERANGE	IQUANT	4	I/E Range
POSFEEDENABLE	TOGGLE	F	Positive Feedback IR Comp
POSFEEDRESISTANCE	QUANT	0	Positive Feedback Resistance (ohm)
ACHSELECT	IQUANT	0	Ach Select
CABLEID	IQUANT	14	Cable ID
DCCALDATE	LABEL	8/19/2019	DC Calibration Date
ACCALDATE	LABEL	8/19/2019	AC Calibration Date
THERMOSELECT	IQUANT	1	Thermo Select
FRAMEWORKVERSION	QUANT	6.33	Framework Version
INSTRUMENTVERSION	LABEL	3.50	Instrument Version
ZCURVE	TABLE
	Pt	Time	Freq	Zreal	Zimag	Zsig	Zmod	Zphz	Idc	Vdc	IERange
	#	s	Hz	ohm	ohm	V	ohm	°	A	V	#
	0	2	1000078	2414.362	-1510.771	1	2848.083	-32.036	-5.100788E-007	-1.837385E-006	8
	1	3	794390.6	2697.473	-1420.435	1	3048.605	-27.7704	-1.445587E-006	0.0005315	8
	2	5	630984.4	2945.843	-1302.017	1	3220.752	-23.84469	4.657477E-006	-0.0001399	8
	3	6	501234.4	3147.788	-1160.392	1	3354.859	-20.23576	5.402827E-006	-0.0013118	8
	4	7	398109.4	3320.084	-1031.37	1	3476.59	-17.25718	-6.685436E-007	-0.0005066	8
	5	9	316265.6	3441.394	-901.5765	1	3557.532	-14.68043	3.749328E-006	-0.0002846	8
	6	10	251203.1	3544.135	-787.654	1	3630.605	-12.52986	-2.415559E-006	-0.0003326	8
	7	11	199546.9	3621.681	-695.1879	1	3687.799	-10.86586	-6.8098E-007	0.0001469	8
	8	13	158578.1	3687.834	-620.713	1	3739.707	-9.55411	-1.197568E-006	0.0001293	8
	9	14	125953.1	3770.242	-502.9708	1	3803.644	-7.598703	-1.381677E-006	0.003388	7
	10	16	100078.1	3798.709	-459.4342	1	3826.392	-6.896133	-1.012679E-006	0.001225	7
	11	17	79453.13	3839.502	-444.1226	1	3865.103	-6.59819	3.597092E-007	0.0002067	7
	12	18	63140.62	3879.435	-433.9903	1	3903.635	-6.383109	3.597842E-007	0.0002035	7
	13	20	50203.12	3917.839	-435.4823	1	3941.968	-6.342601	3.627502E-007	0.0002005	7
	14	21	39890.62	3958.479	-444.1377	1	3983.317	-6.401759	-6.717783E-007	-0.000438	7
	15	22	31640.63	4000.104	-463.1192	1	4026.824	-6.604117	-1.131868E-006	0.0010563	7
	16	24	25171.88	4050.935	-494.8989	1	4081.053	-6.965255	7.715324E-007	-0.0004925	7
	17	25	20015.62	4096.485	-531.6978	1	4130.847	-7.395285	-1.132327E-006	0.0010562	7
	18	26	15890.62	4148.831	-582.242	1	4189.487	-7.988649	-9.666497E-007	0.0001837	7
	19	28	12609.37	4214.743	-645.7515	1	4263.924	-8.710696	9.429543E-007	-0.0009473	7
	20	29	10078.13	4274.664	-714.4908	1	4333.964	-9.489014	-8.265228E-007	0.0012624	7
	21	30	8015.625	4353.596	-799.9664	1	4426.482	-10.41187	7.750642E-007	-0.000494	7
	22	32	6328.125	4431.407	-907.7834	1	4523.433	-11.577	-6.713266E-007	-0.0004446	7
	23	33	5015.625	4524.204	-1026.975	1	4639.299	-12.78917	3.632643E-007	0.0001945	7
	24	34	3984.375	4622.234	-1174.195	1	4769.044	-14.25346	4.527641E-007	-0.0018378	7
	25	36	3170.956	4723.69	-1331.381	1	4907.731	-15.74059	-5.735743E-007	0.0011863	7
	26	37	2527.573	4842.701	-1526.057	1	5077.46	-17.49095	7.708699E-007	-0.0004982	7
	27	38	1976.103	4967.195	-1777.928	1	5275.799	-19.69402	7.728655E-007	-0.0005021	7
	28	40	1577.524	5094.436	-2112.492	1	5515.061	-22.52215	-1.125531E-006	0.0007068	7
	29	41	1265.625	5224.179	-2391.737	1	5745.646	-24.59929	-9.661215E-007	0.0001733	7
	30	43	998.264	5372.966	-2834.168	1	6074.642	-27.81105	-2.769708E-007	-0.0011005	7
	31	44	796.875	5531.194	-3340.08	1	6461.443	-31.1262	-2.694578E-007	0.0009635	7
	32	45	627.7902	5713.627	-4012.797	1	6981.982	-35.08115	-2.874949E-007	-0.0011061	7
	33	47	505.5147	5889.407	-4769.921	1	7578.738	-39.00454	7.772792E-007	-0.0005064	7
	34	48	397.9953	6119.94	-5795.365	1	8428.519	-43.43964	3.769153E-009	-0.0002659	7
	35	50	315.5048	6374.609	-7038.576	1	9496.167	-47.83389	6.650686E-009	-0.0002744	7
	36	51	252.4038	6668.999	-8513.329	1	10814.45	-51.92628	4.106693E-010	-0.000339	6
	37	52	198.6229	7047.32	-10478.66	1	12628.03	-56.07758	1.22017E-009	-0.0003267	6
	38	54	158.3615	7492.296	-12776.35	1	14811.13	-59.61182	7.616056E-010	-0.0003289	6
	39	55	125.558	8073.241	-15683.13	1	17639.1	-62.76185	1.873281E-009	-0.000338	6
	40	56	100.4464	8767.778	-19113.34	1	21028.4	-65.35786	7.084655E-010	-0.0003364	6
	41	58	79.00281	9809.1	-23659.66	1	25612.46	-67.48151	2.441368E-010	-0.0003398	6
	42	59	63.3446	11147.1	-28587.57	1	30683.99	-68.69778	2.035428E-010	-0.000343	6
	43	60	49.86702	12703.79	-35650.83	1	37846.63	-70.38702	-1.304073E-010	-0.0003349	6
	44	62	39.72458	14803.2	-43251.51	1	45714.64	-71.10606	5.665567E-010	-0.0003313	6
	45	63	31.6723	17655.92	-52648.5	1	55530.13	-71.46088	3.811532E-010	-0.0003321	6
	46	64	24.93351	21618.43	-64467.87	1	67996.05	-71.46182	-2.302634E-010	-0.0003318	6
	47	66	19.86229	26545.7	-77876	1	82276.03	-71.17723	4.635919E-010	-0.0003287	6
	48	67	15.83615	32367.85	-93607.55	1	99045.7	-70.92551	1.56768E-009	-0.0003323	6
	49	69	12.40079	41316.71	-113821.4	1	121088.3	-70.04931	6.476492E-010	-0.0003385	5
	50	70	9.93114	52805.65	-135310.8	1	145249.6	-68.68156	8.196706E-010	-0.0003323	5
	51	72	7.944915	66130.09	-159922.8	1	173056.3	-67.53429	-2.248879E-010	-0.0003323	5
	52	73	6.317385	83078.84	-188294.5	1	205807.9	-66.19208	2.199461E-010	-0.0003457	5
	53	75	5.008013	104506.1	-221298.1	1	244733.3	-64.72138	-8.348865E-011	-0.0003256	5
	54	78	3.945707	131017.8	-258703.5	1	289988.2	-63.14051	4.687923E-010	-0.0003166	5
	55	80	3.158693	160082.2	-297308.3	1	337666.4	-61.70027	-3.651484E-011	-0.0003399	5
	56	84	2.504006	195629.3	-342264.9	1	394228.5	-60.24888	5.228493E-010	-0.0003284	5
	57	86	1.998082	233397.5	-389845.4	1	454371.9	-59.09136	3.179054E-010	-0.0002988	5
	58	90	1.584686	276666.8	-443385.6	1	522623.5	-58.03638	3.767733E-010	-0.0003515	5
	59	93	1.266892	325509.2	-504030.4	1	600002.4	-57.14511	2.909557E-010	-0.0002979	5
	60	97	0.999041	383076.3	-578603.8	1	693923.5	-56.49265	-8.663498E-011	-0.0003729	5
