EXPLAIN
TAG	EISPOT
TITLE	LABEL	Potentiostatic EIS	Test &Identifier
DATE	LABEL	10/10/2019	Date
TIME	LABEL	10:33:06	Time
NOTES	NOTES	1	&Notes...
	
PSTAT	PSTAT	REF600-11020	Potentiostat
VDC	POTEN	0.00000E+000	T	DC &Voltage (V)
FREQINIT	QUANT	1.00000E+006	Initial Fre&q. (Hz)
FREQFINAL	QUANT	1.00000E+000	Final Fre&q. (Hz)
PTSPERDEC	QUANT	1.00000E+001	Points/&decade
VAC	QUANT	2.50000E+001	AC &Voltage (mV rms)
AREA	QUANT	1.00000E-002	&Area (cm^2)
CONDIT	TWOPARAM	T	5.00000E+000	0.00000E+000	Conditionin&g	Time(s)	E(V)
DELAY	TWOPARAM	T	5.00000E+000	0.00000E+000	Init. De&lay	Time(s)	Stab.(mV/s)
SPEED	SELECTOR	1	&Optimize for:
ZGUESS	QUANT	1.00000E+004	E&stimated Z (ohms)
OCVCURVE	TABLE	19
	Pt	T	Vf	Vm	Ach	Over
	#	s	V vs. Ref.	V	V	bits
	0	0.258333	5.05056E-003	5.05056E-003	5.37433E-004	...........
	1	0.516667	5.04909E-003	4.97361E-003	5.37299E-004	...........
	2	0.775	5.04006E-003	4.90072E-003	5.41666E-004	...........
	3	1.03333	5.01491E-003	4.85045E-003	5.35266E-004	...........
	4	1.29167	4.97206E-003	4.82892E-003	5.38733E-004	...........
	5	1.55	4.92089E-003	4.80304E-003	5.45233E-004	...........
	6	1.80833	4.87364E-003	4.78738E-003	5.37199E-004	...........
	7	2.06667	4.83651E-003	4.76669E-003	5.36866E-004	...........
	8	2.325	4.80928E-003	4.76949E-003	5.32333E-004	...........
	9	2.58333	4.78997E-003	4.77030E-003	5.37833E-004	...........
	10	2.84167	4.77768E-003	4.76879E-003	5.29233E-004	...........
	11	3.1	4.77145E-003	4.77008E-003	5.31800E-004	...........
	12	3.35833	4.76948E-003	4.78144E-003	5.37166E-004	...........
	13	3.61667	4.77046E-003	4.78593E-003	5.32933E-004	...........
	14	3.875	4.77399E-003	4.79632E-003	5.37166E-004	...........
	15	4.13333	4.77974E-003	4.80667E-003	5.40399E-004	...........
	16	4.39167	4.78738E-003	4.82320E-003	5.36733E-004	...........
	17	4.65	4.79686E-003	4.83391E-003	5.41566E-004	...........
	18	4.90833	4.80794E-003	4.84010E-003	5.36266E-004	...........
EOC	QUANT	0.0048079	Open Circuit (V)
PSTATMODEL	IQUANT	4	Pstat Model
PSTATSECTION	LABEL	REF600-11020	Pstat Section
PSTATSERIALNO	LABEL	11020	Pstat Serial Number
CTRLMODE	IQUANT	1	Control Mode
IESTAB	IQUANT	0	I/E Stability
CASPEED	IQUANT	1	Control Amp Speed
CONVENTION	IQUANT	1	Current Convention
ICHRANGE	IQUANT	2	Ich Range
ICHRANGEMODE	TOGGLE	F	Ich Auto Range
ICHOFFSETENABLE	TOGGLE	T	Ich Offset Enable
ICHOFFSET	QUANT	0	Ich Offset (V)
ICHFILTER	IQUANT	3	Ich Filter
VCHRANGE	IQUANT	2	Vch Range
VCHRANGEMODE	TOGGLE	F	Vch Auto Range
VCHOFFSETENABLE	TOGGLE	T	Vch Offset Enable
VCHOFFSET	QUANT	0	Vch Offset (V)
VCHFILTER	IQUANT	3	Vch Filter
ACHRANGE	IQUANT	2	Ach Range
ACHOFFSETENABLE	TOGGLE	F	Ach Offset Enable
ACHOFFSET	QUANT	0	Ach Offset (V)
ACHFILTER	IQUANT	3	Ach Filter
IERANGELOWERLIMIT	IQUANT	1	I/E Range Lower Limit
IERANGEMODE	TOGGLE	F	I/E AutoRange
IERANGE	IQUANT	5	I/E Range
POSFEEDENABLE	TOGGLE	F	Positive Feedback IR Comp
POSFEEDRESISTANCE	QUANT	0	Positive Feedback Resistance (ohm)
ACHSELECT	IQUANT	0	Ach Select
CABLEID	IQUANT	14	Cable ID
DCCALDATE	LABEL	8/19/2019	DC Calibration Date
ACCALDATE	LABEL	8/19/2019	AC Calibration Date
THERMOSELECT	IQUANT	1	Thermo Select
FRAMEWORKVERSION	QUANT	6.33	Framework Version
INSTRUMENTVERSION	LABEL	3.50	Instrument Version
ZCURVE	TABLE
	Pt	Time	Freq	Zreal	Zimag	Zsig	Zmod	Zphz	Idc	Vdc	IERange
	#	s	Hz	ohm	ohm	V	ohm	°	A	V	#
	0	2	1000078	2734.474	-1846.477	1	3299.519	-34.02952	-1.424898E-006	0.0079137	8
	1	3	794390.6	3084.81	-1763.089	1	3553.103	-29.74964	-8.981958E-007	0.0071848	8
	2	4	630984.4	3406.672	-1646.627	1	3783.754	-25.79696	-5.36065E-008	0.0066973	8
	3	6	501234.4	3692.166	-1475.532	1	3976.089	-21.78356	-4.650522E-006	0.0075426	8
	4	7	398109.4	3914.361	-1315.61	1	4129.534	-18.5774	-1.64763E-006	0.0068039	8
	5	9	316265.6	4084.026	-1121.145	1	4235.119	-15.35066	-2.819495E-006	0.0067944	8
	6	10	251203.1	4211.034	-997.401	1	4327.541	-13.32518	3.045317E-006	0.0057514	8
	7	12	199546.9	4313.408	-843.2936	1	4395.069	-11.06209	9.427147E-007	0.0063292	8
	8	13	158578.1	4410.707	-749.1138	1	4473.87	-9.63913	1.11625E-006	0.0060475	8
	9	15	125953.1	4500.833	-582.8974	1	4538.421	-7.379233	-1.54284E-006	0.0094673	7
	10	16	100078.1	4534.556	-519.7767	1	4564.249	-6.539031	4.216436E-008	0.0061755	7
	11	17	79453.13	4576.594	-471.421	1	4600.81	-5.881122	-3.767159E-008	0.0063351	7
	12	19	63140.62	4612.918	-435.0356	1	4633.387	-5.387522	-3.089563E-008	0.006303	7
	13	20	50203.12	4645.477	-411.0978	1	4663.631	-5.057171	4.073914E-008	0.0061596	7
	14	21	39890.62	4676.379	-401.7944	1	4693.608	-4.910792	4.493661E-008	0.0062513	7
	15	23	31640.63	4706.458	-399.8634	1	4723.413	-4.856221	-6.013242E-008	0.0064863	7
	16	24	25171.88	4738.119	-411.9179	1	4755.991	-4.968631	-5.416443E-008	0.0064748	7
	17	25	20015.62	4764.873	-435.5948	1	4784.742	-5.223343	-7.905688E-008	0.0064262	7
	18	27	15890.62	4799.708	-469.3013	1	4822.596	-5.584462	-1.580707E-009	0.0063413	7
	19	28	12609.37	4837.764	-516.5734	1	4865.266	-6.094913	-6.484504E-009	0.0063268	7
	20	30	10078.13	4874.636	-577.2569	1	4908.696	-6.753544	-4.286758E-008	0.0063296	7
	21	31	8015.625	4920.568	-664.4025	1	4965.221	-7.689887	-1.641555E-008	0.006357	7
	22	32	6328.125	4960.25	-759.6693	1	5018.085	-8.707273	-4.327933E-009	0.0063177	7
	23	34	5015.625	5010.72	-888.1194	1	5088.818	-10.05094	-4.822924E-008	0.0063993	7
	24	35	3984.375	5068.828	-1041.209	1	5174.662	-11.6079	-1.144143E-008	0.006262	7
	25	36	3170.956	5125.108	-1233.139	1	5271.373	-13.52864	1.494343E-008	0.0062241	7
	26	38	2527.573	5194.901	-1469.988	1	5398.875	-15.79978	-1.000529E-008	0.0064495	7
	27	39	1976.103	5275.587	-1777.771	1	5567.071	-18.62282	-3.766529E-008	0.0063441	7
	28	40	1577.524	5368.471	-2110.629	1	5768.469	-21.4624	1.515284E-008	0.0062224	7
	29	42	1265.625	5472.969	-2553.506	1	6039.353	-25.0122	-5.689605E-008	0.0064841	7
	30	43	998.264	5606.44	-3104.345	1	6408.52	-28.97376	-8.78031E-009	0.0062629	7
	31	45	796.875	5756.478	-3750.375	1	6870.396	-33.08445	-8.019861E-008	0.0064314	7
	32	46	627.7902	5946.251	-4593.839	1	7514.071	-37.68826	8.865626E-008	0.0061254	7
	33	47	505.5147	6158.23	-5502.225	1	8258.225	-41.77999	-4.323732E-008	0.0063299	7
	34	49	397.9953	6426.26	-6756.514	1	9324.554	-46.43507	6.18367E-009	0.0063181	7
	35	50	315.5048	6751.986	-8246.515	1	10658.06	-50.69046	6.992266E-010	0.0062533	6
	36	51	252.4038	7130.487	-9997.86	1	12280.11	-54.50348	1.141448E-009	0.0062505	6
	37	53	198.6229	7628.119	-12309.45	1	14481.39	-58.21366	9.92828E-010	0.0062538	6
	38	54	158.3615	8216.825	-14992.99	1	17096.96	-61.2753	1.023243E-009	0.0062513	6
	39	55	125.558	8962.972	-18362.58	1	20433.29	-63.98251	4.73438E-010	0.0062516	6
	40	57	100.4464	9868.54	-22312.57	1	24397.52	-66.14085	1.615041E-009	0.0062503	6
	41	58	79.00281	11115.54	-27570.76	1	29727.13	-68.04247	1.496881E-009	0.00625	6
	42	60	63.3446	12450.92	-33651.56	1	35881.1	-69.69576	5.488957E-010	0.0062458	6
	43	61	49.86702	14832.43	-40901.89	1	43508.23	-70.06762	1.300245E-009	0.006239	6
	44	62	39.72458	17756.17	-49993.07	1	53052.69	-70.44636	1.123463E-009	0.0062491	6
	45	64	31.6723	21357.72	-60701.86	1	64349.57	-70.61578	7.184739E-010	0.0062503	6
	46	65	24.93351	26724.44	-74007.2	1	78684.56	-70.14505	3.422576E-010	0.0062444	6
	47	67	19.86229	33430.79	-89077.6	1	95144.3	-69.42891	4.414804E-010	0.0062469	6
	48	68	15.83615	41978.51	-105831.1	1	113852.6	-68.36397	8.382169E-010	0.0062538	5
	49	69	12.40079	53767.02	-128843.8	1	139612.4	-67.34903	-4.628909E-010	0.0062518	5
	50	71	9.93114	67840.7	-150125.8	1	164742.6	-65.68216	8.025587E-010	0.0062508	5
	51	72	7.944915	86101.93	-174346.5	1	194448.5	-63.71729	2.845788E-010	0.0062592	5
	52	74	6.317385	106399.8	-201868.1	1	228192.1	-62.20737	-4.487611E-010	0.0062577	5
	53	76	5.008013	132125.3	-232687.3	1	267582.7	-60.41106	-1.213795E-010	0.006244	5
	54	79	3.945707	162499.8	-266248.4	1	311920.5	-58.60297	5.035816E-010	0.0062554	5
	55	81	3.158693	194951	-300036.7	1	357809.9	-56.9859	2.728596E-011	0.0062508	5
	56	85	2.504006	231835.7	-338036.8	1	409898.3	-55.55651	1.557668E-010	0.0062462	5
	57	87	1.998082	269885.9	-378542.3	1	464900.7	-54.51261	2.999803E-012	0.0062812	5
	58	90	1.584686	311055	-426447.6	1	527837.8	-53.89263	1.006797E-010	0.0062973	5
	59	94	1.266892	355271.2	-477023.6	1	594784.9	-53.32249	-1.204311E-010	0.0062786	5
	60	98	0.999041	403597.6	-543134.8	1	676673.1	-53.38436	2.926079E-010	0.0062506	5
