EXPLAIN
TAG	EISPOT
TITLE	LABEL	Potentiostatic EIS	Test &Identifier
DATE	LABEL	10/22/2019	Date
TIME	LABEL	9:03:23	Time
NOTES	NOTES	1	&Notes...
	
PSTAT	PSTAT	REF600-11020	Potentiostat
VDC	POTEN	0.00000E+000	T	DC &Voltage (V)
FREQINIT	QUANT	1.00000E+006	Initial Fre&q. (Hz)
FREQFINAL	QUANT	1.00000E+000	Final Fre&q. (Hz)
PTSPERDEC	QUANT	1.00000E+001	Points/&decade
VAC	QUANT	2.50000E+001	AC &Voltage (mV rms)
AREA	QUANT	1.00000E-002	&Area (cm^2)
CONDIT	TWOPARAM	T	5.00000E+000	0.00000E+000	Conditionin&g	Time(s)	E(V)
DELAY	TWOPARAM	T	5.00000E+000	0.00000E+000	Init. De&lay	Time(s)	Stab.(mV/s)
SPEED	SELECTOR	1	&Optimize for:
ZGUESS	QUANT	1.00000E+005	E&stimated Z (ohms)
OCVCURVE	TABLE	19
	Pt	T	Vf	Vm	Ach	Over
	#	s	V vs. Ref.	V	V	bits
	0	0.258333	1.52103E-002	1.52103E-002	6.30565E-004	...........
	1	0.516667	1.52158E-002	1.55005E-002	6.28965E-004	...........
	2	0.775	1.52494E-002	1.57506E-002	6.24365E-004	...........
	3	1.03333	1.53432E-002	1.60127E-002	6.24932E-004	...........
	4	1.29167	1.55098E-002	1.62636E-002	6.27398E-004	...........
	5	1.55	1.57315E-002	1.65077E-002	6.28365E-004	...........
	6	1.80833	1.59794E-002	1.67346E-002	6.23432E-004	...........
	7	2.06667	1.62315E-002	1.69581E-002	6.32565E-004	...........
	8	2.325	1.64762E-002	1.71667E-002	6.32698E-004	...........
	9	2.58333	1.67099E-002	1.73709E-002	6.23732E-004	...........
	10	2.84167	1.69323E-002	1.75553E-002	6.26298E-004	...........
	11	3.1	1.71441E-002	1.77467E-002	6.20065E-004	...........
	12	3.35833	1.73461E-002	1.79270E-002	6.23231E-004	...........
	13	3.61667	1.75400E-002	1.81049E-002	6.21098E-004	...........
	14	3.875	1.77276E-002	1.82738E-002	6.26465E-004	...........
	15	4.13333	1.79094E-002	1.84337E-002	6.23132E-004	...........
	16	4.39167	1.80853E-002	1.85915E-002	6.26165E-004	...........
	17	4.65	1.82548E-002	1.87426E-002	6.29198E-004	...........
	18	4.90833	1.84179E-002	1.88878E-002	6.25365E-004	...........
EOC	QUANT	0.0184179	Open Circuit (V)
PSTATMODEL	IQUANT	4	Pstat Model
PSTATSECTION	LABEL	REF600-11020	Pstat Section
PSTATSERIALNO	LABEL	11020	Pstat Serial Number
CTRLMODE	IQUANT	1	Control Mode
IESTAB	IQUANT	0	I/E Stability
CASPEED	IQUANT	1	Control Amp Speed
CONVENTION	IQUANT	1	Current Convention
ICHRANGE	IQUANT	2	Ich Range
ICHRANGEMODE	TOGGLE	F	Ich Auto Range
ICHOFFSETENABLE	TOGGLE	T	Ich Offset Enable
ICHOFFSET	QUANT	0	Ich Offset (V)
ICHFILTER	IQUANT	3	Ich Filter
VCHRANGE	IQUANT	2	Vch Range
VCHRANGEMODE	TOGGLE	F	Vch Auto Range
VCHOFFSETENABLE	TOGGLE	T	Vch Offset Enable
VCHOFFSET	QUANT	0	Vch Offset (V)
VCHFILTER	IQUANT	3	Vch Filter
ACHRANGE	IQUANT	2	Ach Range
ACHOFFSETENABLE	TOGGLE	F	Ach Offset Enable
ACHOFFSET	QUANT	0	Ach Offset (V)
ACHFILTER	IQUANT	3	Ach Filter
IERANGELOWERLIMIT	IQUANT	1	I/E Range Lower Limit
IERANGEMODE	TOGGLE	F	I/E AutoRange
IERANGE	IQUANT	5	I/E Range
POSFEEDENABLE	TOGGLE	F	Positive Feedback IR Comp
POSFEEDRESISTANCE	QUANT	0	Positive Feedback Resistance (ohm)
ACHSELECT	IQUANT	0	Ach Select
CABLEID	IQUANT	14	Cable ID
DCCALDATE	LABEL	8/19/2019	DC Calibration Date
ACCALDATE	LABEL	8/19/2019	AC Calibration Date
THERMOSELECT	IQUANT	1	Thermo Select
FRAMEWORKVERSION	QUANT	6.33	Framework Version
INSTRUMENTVERSION	LABEL	3.50	Instrument Version
ZCURVE	TABLE
	Pt	Time	Freq	Zreal	Zimag	Zsig	Zmod	Zphz	Idc	Vdc	IERange
	#	s	Hz	ohm	ohm	V	ohm	°	A	V	#
	0	1	1000078	2610.724	-1808.939	1	3176.184	-34.71762	-1.140489E-006	0.0209514	8
	1	3	794390.6	2950.727	-1741.442	1	3426.282	-30.54799	-3.037217E-007	0.0205575	8
	2	4	630984.4	3250.348	-1624.036	1	3633.491	-26.549	-3.397689E-006	0.0210831	8
	3	6	501234.4	3520.945	-1475.058	1	3817.44	-22.73066	-4.82203E-007	0.0204456	8
	4	7	398109.4	3745.808	-1340.076	1	3978.302	-19.68485	3.135023E-006	0.0195279	8
	5	8	316265.6	3904.7	-1192.61	1	4082.769	-16.98421	8.929921E-007	0.0198211	8
	6	10	251203.1	4048.274	-1082.257	1	4190.441	-14.96731	-8.337044E-007	0.0204291	8
	7	11	199546.9	4174.77	-975.236	1	4287.166	-13.14863	-2.894074E-007	0.0200868	8
	8	13	158578.1	4232.769	-896.9265	1	4326.755	-11.96404	2.145994E-006	0.0196357	8
	9	14	125953.1	4357.606	-787.9523	1	4428.273	-10.2496	-9.064563E-007	0.0221818	7
	10	15	100078.1	4437.106	-769.3557	1	4503.313	-9.83679	-7.253345E-009	0.0201961	7
	11	17	79453.13	4511.136	-766.3447	1	4575.766	-9.64127	1.324891E-007	0.0198648	7
	12	18	63140.62	4585.717	-778.6113	1	4651.348	-9.63638	8.159627E-008	0.0198859	7
	13	19	50203.12	4664.233	-804.6946	1	4733.139	-9.78857	-4.235752E-009	0.020183	7
	14	21	39890.62	4745.07	-850.0328	1	4820.606	-10.15625	6.635199E-008	0.0199491	7
	15	22	31640.63	4837.034	-908.9205	1	4921.69	-10.64227	-2.066298E-008	0.0200363	7
	16	23	25171.88	4932.947	-985.024	1	5030.332	-11.29245	-3.615884E-008	0.0200726	7
	17	25	20015.62	5039.978	-1070.786	1	5152.471	-11.99463	-8.973897E-009	0.0200122	7
	18	26	15890.62	5160.139	-1192.066	1	5296.041	-13.00795	-1.977848E-008	0.0200276	7
	19	28	12609.37	5292.913	-1325.753	1	5456.422	-14.06196	-3.658077E-008	0.0200811	7
	20	29	10078.13	5435.973	-1477.083	1	5633.079	-15.20159	-3.804504E-008	0.0201253	7
	21	30	8015.625	5600.848	-1654.957	1	5840.238	-16.46153	-1.0285E-008	0.0200062	7
	22	32	6328.125	5789.057	-1871.839	1	6084.156	-17.91814	-2.958296E-008	0.020049	7
	23	33	5015.625	5997.774	-2115.456	1	6359.909	-19.4281	-3.544501E-008	0.0200751	7
	24	34	3984.375	6224.533	-2431.422	1	6682.562	-21.33657	-5.253405E-008	0.0202113	7
	25	36	3170.956	6503.931	-2718.423	1	7049.18	-22.68327	-7.285307E-008	0.0201629	7
	26	37	2527.573	6809.878	-3079.334	1	7473.736	-24.33183	-4.176374E-009	0.0200587	7
	27	38	1976.103	7184	-3520.356	1	8000.172	-26.10611	-3.731715E-008	0.0201264	7
	28	40	1577.524	7549.375	-3901.695	1	8498.017	-27.33098	-2.222304E-008	0.0201071	7
	29	41	1265.625	7996.323	-4477.107	1	9164.37	-29.24428	-4.341407E-009	0.0201631	7
	30	43	998.264	8488.165	-5061.515	1	9882.71	-30.80774	3.293201E-009	0.0198623	6
	31	44	796.875	8975.455	-5712.954	1	10639.39	-32.4771	7.388528E-009	0.0198277	6
	32	45	627.7902	9506.15	-6517.72	1	11525.95	-34.43579	1.16217E-010	0.0200512	6
	33	47	505.5147	9988.21	-7391.52	1	12425.74	-36.50235	1.7414E-008	0.0196708	6
	34	48	397.9953	10525.11	-8571.624	1	13573.9	-39.15929	-1.410373E-010	0.0200015	6
	35	49	315.5048	11045.83	-10004.78	1	14903.22	-42.16876	-9.456992E-011	0.0200026	6
	36	51	252.4038	11555.88	-11726.43	1	16463.52	-45.41969	-4.915421E-010	0.0199968	6
	37	52	198.6229	12136.28	-14063.9	1	18576.4	-49.20784	4.995949E-010	0.0200037	6
	38	53	158.3615	12744.02	-16850.02	1	21126.6	-52.89903	1.333892E-010	0.0199917	6
	39	55	125.558	13476.32	-20413.5	1	24460.63	-56.56853	8.094019E-010	0.0199915	6
	40	56	100.4464	14321.25	-24703.38	1	28554.43	-59.89791	1.113836E-009	0.0199927	6
	41	58	79.00281	15407.1	-30404.35	1	34085.24	-63.12684	-1.137369E-010	0.0199902	6
	42	59	63.3446	16469.95	-36945.2	1	40450.06	-65.97298	-5.586679E-011	0.0199932	6
	43	60	49.86702	18880.77	-45274.07	1	49053.29	-67.36227	-4.495876E-010	0.0199861	6
	44	62	39.72458	20988.93	-55520.17	1	59355.07	-69.29133	4.048177E-010	0.0199899	6
	45	63	31.6723	24174.91	-67692.48	1	71879.75	-70.34691	2.799813E-010	0.0199922	6
	46	65	24.93351	28250.78	-83362.67	1	88019.55	-71.27899	6.384515E-010	0.0199904	6
	47	66	19.86229	33377.74	-101222.9	1	106584	-71.75029	-6.357047E-010	0.0199963	5
	48	67	15.83615	40177.36	-121915.4	1	128365	-71.76031	-7.4833E-010	0.0199911	5
	49	69	12.40079	48638.48	-149708.4	1	157411.2	-72.00163	-4.567457E-010	0.0199966	5
	50	70	9.93114	60118.06	-180571.1	1	190315.8	-71.5857	-4.01014E-010	0.0199986	5
	51	72	7.944915	73747.66	-216504.4	1	228720.1	-71.18967	1.113747E-010	0.0199915	5
	52	73	6.317385	91413.75	-259832.5	1	275444	-70.61721	2.650106E-010	0.0200074	5
	53	76	5.008013	114643.7	-312253	1	332633.7	-69.83928	6.608292E-010	0.0200098	5
	54	78	3.945707	142655.9	-375485.3	1	401671.4	-69.19701	1.209763E-010	0.0200065	5
	55	81	3.158693	176537.1	-444913.5	1	478657.9	-68.35734	-1.01757E-010	0.0199961	5
	56	84	2.504006	219072.6	-529176.3	1	572730.6	-67.51103	1.79661E-010	0.0199944	5
	57	87	1.998082	273537.8	-623334.8	1	680712.3	-66.30671	-2.153088E-010	0.0200443	5
	58	90	1.584686	339708.7	-731964.5	1	806953.6	-65.10373	8.747537E-012	0.0199967	5
	59	94	1.266892	421003.3	-854687.6	1	952751	-63.776	-2.952033E-011	0.0200378	5
	60	98	0.999041	527326.6	-999864	1	1130399	-62.19291	-1.856907E-010	0.0199573	4
