EXPLAIN
TAG	EISPOT
TITLE	LABEL	Potentiostatic IDE	Test &Identifier
DATE	LABEL	9/18/2019	Date
TIME	LABEL	8:56:14	Time
NOTES	NOTES	1	&Notes...
	
PSTAT	PSTAT	REF600-11020	Potentiostat
VDC	POTEN	0.00000E+000	T	DC &Voltage (V)
FREQINIT	QUANT	1.00000E+006	Initial Fre&q. (Hz)
FREQFINAL	QUANT	1.00000E+000	Final Fre&q. (Hz)
PTSPERDEC	QUANT	1.00000E+001	Points/&decade
VAC	QUANT	2.50000E+001	AC &Voltage (mV rms)
AREA	QUANT	1.00000E-002	&Area (cm^2)
CONDIT	TWOPARAM	T	5.00000E+000	0.00000E+000	Conditionin&g	Time(s)	E(V)
DELAY	TWOPARAM	T	5.00000E+000	0.00000E+000	Init. De&lay	Time(s)	Stab.(mV/s)
SPEED	SELECTOR	1	&Optimize for:
ZGUESS	QUANT	1.00000E+007	E&stimated Z (ohms)
OCVCURVE	TABLE	19
	Pt	T	Vf	Vm	Ach	Over
	#	s	V vs. Ref.	V	V	bits
	0	0.258333	-3.58523E-003	-3.58523E-003	5.65866E-004	...........
	1	0.516667	-3.59711E-003	-4.20687E-003	5.63666E-004	...........
	2	0.775	-3.67218E-003	-4.90885E-003	5.64499E-004	...........
	3	1.03333	-3.89210E-003	-5.60189E-003	5.66999E-004	...........
	4	1.29167	-4.29969E-003	-6.19702E-003	5.65632E-004	...........
	5	1.55	-4.85613E-003	-6.75211E-003	5.63132E-004	...........
	6	1.80833	-5.47785E-003	-7.28498E-003	5.63599E-004	...........
	7	2.06667	-6.09534E-003	-7.76710E-003	5.62566E-004	...........
	8	2.325	-6.67578E-003	-8.23496E-003	5.67532E-004	...........
	9	2.58333	-7.21332E-003	-8.68176E-003	5.67032E-004	...........
	10	2.84167	-7.71363E-003	-9.10011E-003	5.62632E-004	...........
	11	3.1	-8.18410E-003	-9.50005E-003	5.68366E-004	...........
	12	3.35833	-8.62950E-003	-9.87520E-003	5.67766E-004	...........
	13	3.61667	-9.05195E-003	-1.02342E-002	5.63999E-004	...........
	14	3.875	-9.45271E-003	-1.05818E-002	5.62266E-004	...........
	15	4.13333	-9.83371E-003	-1.09235E-002	5.61199E-004	...........
	16	4.39167	-1.01979E-002	-1.12421E-002	5.62132E-004	...........
	17	4.65	-1.05479E-002	-1.15534E-002	5.63999E-004	...........
	18	4.90833	-1.08846E-002	-1.18452E-002	5.65132E-004	...........
EOC	QUANT	-0.0108846	Open Circuit (V)
PSTATMODEL	IQUANT	4	Pstat Model
PSTATSECTION	LABEL	REF600-11020	Pstat Section
PSTATSERIALNO	LABEL	11020	Pstat Serial Number
CTRLMODE	IQUANT	1	Control Mode
IESTAB	IQUANT	0	I/E Stability
CASPEED	IQUANT	1	Control Amp Speed
CONVENTION	IQUANT	1	Current Convention
ICHRANGE	IQUANT	2	Ich Range
ICHRANGEMODE	TOGGLE	F	Ich Auto Range
ICHOFFSETENABLE	TOGGLE	T	Ich Offset Enable
ICHOFFSET	QUANT	0	Ich Offset (V)
ICHFILTER	IQUANT	3	Ich Filter
VCHRANGE	IQUANT	2	Vch Range
VCHRANGEMODE	TOGGLE	F	Vch Auto Range
VCHOFFSETENABLE	TOGGLE	T	Vch Offset Enable
VCHOFFSET	QUANT	0	Vch Offset (V)
VCHFILTER	IQUANT	3	Vch Filter
ACHRANGE	IQUANT	2	Ach Range
ACHOFFSETENABLE	TOGGLE	F	Ach Offset Enable
ACHOFFSET	QUANT	0	Ach Offset (V)
ACHFILTER	IQUANT	3	Ach Filter
IERANGELOWERLIMIT	IQUANT	1	I/E Range Lower Limit
IERANGEMODE	TOGGLE	F	I/E AutoRange
IERANGE	IQUANT	3	I/E Range
POSFEEDENABLE	TOGGLE	F	Positive Feedback IR Comp
POSFEEDRESISTANCE	QUANT	0	Positive Feedback Resistance (ohm)
ACHSELECT	IQUANT	0	Ach Select
CABLEID	IQUANT	14	Cable ID
DCCALDATE	LABEL	8/19/2019	DC Calibration Date
ACCALDATE	LABEL	8/19/2019	AC Calibration Date
THERMOSELECT	IQUANT	1	Thermo Select
FRAMEWORKVERSION	QUANT	6.33	Framework Version
INSTRUMENTVERSION	LABEL	3.50	Instrument Version
ZCURVE	TABLE
	Pt	Time	Freq	Zreal	Zimag	Zsig	Zmod	Zphz	Idc	Vdc	IERange
	#	s	Hz	ohm	ohm	V	ohm	°	A	V	#
	0	2	1000078	2168.101	-1869.182	1	2862.604	-40.76557	1.215218E-006	-0.0090264	8
	1	3	794390.6	2565.855	-1859.511	1	3168.816	-35.93137	4.790361E-006	-0.0102721	8
	2	5	630984.4	2931.157	-1769.073	1	3423.639	-31.11269	-4.987544E-007	-0.0094123	8
	3	6	501234.4	3255.57	-1641.961	1	3646.199	-26.76429	-2.869967E-006	-0.0087187	8
	4	7	398109.4	3536.043	-1456.217	1	3824.156	-22.3829	4.479474E-006	-0.0103165	8
	5	9	316265.6	3739.251	-1278.181	1	3951.676	-18.87187	-3.727781E-007	-0.0094618	8
	6	10	251203.1	3916.429	-1117.247	1	4072.672	-15.92196	2.487193E-006	-0.0099422	8
	7	11	199546.9	4028.741	-968.975	1	4143.63	-13.52366	-6.35417E-008	-0.0094893	8
	8	13	158578.1	4118.222	-824.7469	1	4199.996	-11.32468	-4.983708E-007	-0.009302	8
	9	14	125953.1	4214.064	-708.1084	1	4273.143	-9.53856	1.552228E-007	-0.009808	7
	10	15	100078.1	4266.158	-625.5557	1	4311.777	-8.341952	1.248685E-008	-0.0094354	7
	11	17	79453.13	4316.134	-570.4005	1	4353.662	-7.528323	6.779816E-009	-0.0094938	7
	12	18	63140.62	4359.282	-531.5734	1	4391.572	-6.952358	-2.04442E-008	-0.0093933	7
	13	19	50203.12	4399.882	-510.0565	1	4429.348	-6.6125	1.921364E-009	-0.009438	7
	14	21	39890.62	4439.982	-503.2259	1	4468.409	-6.466288	3.941948E-009	-0.0094336	7
	15	22	31640.63	4479.054	-505.6093	1	4507.501	-6.44046	-2.959546E-008	-0.0094091	7
	16	23	25171.88	4520.522	-525.3396	1	4550.945	-6.628731	-2.674506E-008	-0.0094421	7
	17	25	20015.62	4561.443	-557.7722	1	4595.418	-6.971505	-7.52369E-009	-0.0095142	7
	18	26	15890.62	4608.753	-608.486	1	4648.748	-7.521167	-1.960502E-008	-0.0094496	7
	19	27	12609.37	4656.641	-668.0747	1	4704.32	-8.164349	-5.410892E-009	-0.0095211	7
	20	29	10078.13	4709.23	-747.9677	1	4768.26	-9.024909	-5.542171E-009	-0.0095172	7
	21	30	8015.625	4767.855	-846.9643	1	4842.498	-10.07298	3.119564E-008	-0.0095332	7
	22	31	6328.125	4834.363	-977.327	1	4932.164	-11.42902	7.94093E-009	-0.0095133	7
	23	33	5015.625	4907.461	-1134.476	1	5036.885	-13.01662	-3.123004E-008	-0.0094543	7
	24	34	3984.375	4987.029	-1325.866	1	5160.269	-14.88841	1.578574E-008	-0.009459	7
	25	35	3170.956	5078.685	-1553.45	1	5310.955	-17.00764	6.937673E-009	-0.0095126	7
	26	37	2527.573	5179.364	-1828.885	1	5492.78	-19.44863	5.45926E-008	-0.0095259	7
	27	38	1976.103	5304.073	-2195.49	1	5740.502	-22.4859	-2.432598E-008	-0.009408	7
	28	39	1577.524	5433.658	-2603.975	1	6025.39	-25.60517	8.352357E-010	-0.0094674	7
	29	41	1265.625	5578.894	-3084.031	1	6374.583	-28.93397	-1.766477E-008	-0.0094893	7
	30	42	998.264	5759.537	-3723.06	1	6858.093	-32.8793	1.518914E-008	-0.0094622	7
	31	43	796.875	5952.549	-4460.066	1	7438.08	-36.84312	-9.68295E-010	-0.0094346	7
	32	45	627.7902	6197.885	-5410.65	1	8227.327	-41.12042	-4.875274E-008	-0.0094044	7
	33	46	505.5147	6453.068	-6469.511	1	9137.65	-45.07291	-1.840113E-008	-0.0094536	7
	34	47	397.9953	6787.147	-7892.843	1	10409.72	-49.30738	1.615556E-009	-0.009529	6
	35	49	315.5048	7171.545	-9597.96	1	11981.32	-53.23312	1.6156E-009	-0.0095303	6
	36	50	252.4038	7609.204	-11597.85	1	13871.19	-56.73162	1.734721E-009	-0.0095309	6
	37	51	198.6229	8174.056	-14232.67	1	16412.93	-60.13055	1.234075E-009	-0.0095283	6
	38	53	158.3615	8821.491	-17298.61	1	19418.05	-62.98052	1.027479E-009	-0.0095328	6
	39	54	125.558	9620.22	-21150.36	1	23235.46	-65.54164	1.121083E-009	-0.0095289	6
	40	56	100.4464	10558.82	-25705.57	1	27789.65	-67.66911	1.542239E-009	-0.0095302	6
	41	57	79.00281	11889.18	-31727.64	1	33882.09	-69.4577	1.357541E-009	-0.0095376	6
	42	58	63.3446	13095.76	-38357.8	1	40531.71	-71.14955	1.433698E-009	-0.0095359	6
	43	60	49.86702	15606.74	-47536.29	1	50032.68	-71.82437	7.505642E-010	-0.0095333	6
	44	61	39.72458	18018.16	-58110.81	1	60840.12	-72.77313	1.08381E-009	-0.0095314	6
	45	62	31.6723	21308.78	-70840.36	1	73975.81	-73.25871	1.243207E-009	-0.0095333	6
	46	64	24.93351	26201.93	-87184.61	1	91036.79	-73.2727	6.55078E-010	-0.0095325	6
	47	65	19.86229	32454.95	-106074.5	1	110928.4	-72.98779	1.101469E-009	-0.0095183	5
	48	66	15.83615	40277.07	-128242.3	1	134418.5	-72.56406	6.547693E-010	-0.009527	5
	49	68	12.40079	52327.33	-156722.4	1	165227.3	-71.53658	-3.08705E-011	-0.0095176	5
	50	69	9.93114	67289.35	-188041.6	1	199718.6	-70.31062	8.745679E-010	-0.0095274	5
	51	71	7.944915	86018.34	-223362.4	1	239353.1	-68.93797	4.790341E-010	-0.0095303	5
	52	72	6.317385	110849.3	-264936.2	1	287191.1	-67.29557	9.099779E-010	-0.0095284	5
	53	74	5.008013	143231.6	-312312.1	1	343590	-65.36301	3.340635E-010	-0.009528	5
	54	77	3.945707	184866	-364769.7	1	408940.5	-63.12402	5.006693E-010	-0.0095189	5
	55	80	3.158693	231336.7	-418204.7	1	477924.5	-61.05011	1.357615E-010	-0.0095275	5
	56	83	2.504006	288694.5	-475702	1	556450.3	-58.74723	6.71057E-010	-0.0095295	5
	57	86	1.998082	350328.1	-533836.4	1	638522.6	-56.72527	1.255033E-010	-0.0094954	5
	58	89	1.584686	421386.9	-597487.3	1	731134.7	-54.80602	3.933652E-010	-0.0094756	5
	59	92	1.266892	492425.3	-663645.8	1	826382.7	-53.42458	4.425086E-011	-0.0095125	5
	60	97	0.999041	573270.4	-740358.7	1	936359.9	-52.24887	5.401734E-010	-0.009517	5
