EXPLAIN
TAG	EISPOT
TITLE	LABEL	Potentiostatic EIS	Test &Identifier
DATE	LABEL	10/22/2019	Date
TIME	LABEL	9:05:45	Time
NOTES	NOTES	1	&Notes...
	
PSTAT	PSTAT	REF600-11020	Potentiostat
VDC	POTEN	0.00000E+000	T	DC &Voltage (V)
FREQINIT	QUANT	1.00000E+006	Initial Fre&q. (Hz)
FREQFINAL	QUANT	1.00000E+000	Final Fre&q. (Hz)
PTSPERDEC	QUANT	1.00000E+001	Points/&decade
VAC	QUANT	2.50000E+001	AC &Voltage (mV rms)
AREA	QUANT	1.00000E-002	&Area (cm^2)
CONDIT	TWOPARAM	T	5.00000E+000	0.00000E+000	Conditionin&g	Time(s)	E(V)
DELAY	TWOPARAM	T	5.00000E+000	0.00000E+000	Init. De&lay	Time(s)	Stab.(mV/s)
SPEED	SELECTOR	1	&Optimize for:
ZGUESS	QUANT	1.00000E+005	E&stimated Z (ohms)
OCVCURVE	TABLE	19
	Pt	T	Vf	Vm	Ach	Over
	#	s	V vs. Ref.	V	V	bits
	0	0.258333	1.13312E-002	1.13312E-002	5.53166E-004	...........
	1	0.516667	1.13345E-002	1.15044E-002	5.51733E-004	...........
	2	0.775	1.13618E-002	1.20320E-002	5.58866E-004	...........
	3	1.03333	1.14603E-002	1.24501E-002	5.54199E-004	...........
	4	1.29167	1.16659E-002	1.24349E-002	5.56866E-004	...........
	5	1.55	1.19443E-002	1.25608E-002	5.53366E-004	...........
	6	1.80833	1.22122E-002	1.27454E-002	5.51033E-004	...........
	7	2.06667	1.24221E-002	1.28888E-002	5.53766E-004	...........
	8	2.325	1.25871E-002	1.30663E-002	5.59566E-004	...........
	9	2.58333	1.27373E-002	1.32085E-002	5.59566E-004	...........
	10	2.84167	1.28884E-002	1.33589E-002	5.60466E-004	...........
	11	3.1	1.30405E-002	1.34249E-002	5.56166E-004	...........
	12	3.35833	1.31819E-002	1.33814E-002	5.58899E-004	...........
	13	3.61667	1.32951E-002	1.34949E-002	5.58432E-004	...........
	14	3.875	1.33752E-002	1.36067E-002	5.52432E-004	...........
	15	4.13333	1.34424E-002	1.38423E-002	5.56166E-004	...........
	16	4.39167	1.35292E-002	1.40211E-002	5.56432E-004	...........
	17	4.65	1.36546E-002	1.41604E-002	5.57432E-004	...........
	18	4.90833	1.38114E-002	1.42958E-002	5.55166E-004	...........
EOC	QUANT	0.0138114	Open Circuit (V)
PSTATMODEL	IQUANT	4	Pstat Model
PSTATSECTION	LABEL	REF600-11020	Pstat Section
PSTATSERIALNO	LABEL	11020	Pstat Serial Number
CTRLMODE	IQUANT	1	Control Mode
IESTAB	IQUANT	0	I/E Stability
CASPEED	IQUANT	1	Control Amp Speed
CONVENTION	IQUANT	1	Current Convention
ICHRANGE	IQUANT	2	Ich Range
ICHRANGEMODE	TOGGLE	F	Ich Auto Range
ICHOFFSETENABLE	TOGGLE	T	Ich Offset Enable
ICHOFFSET	QUANT	0	Ich Offset (V)
ICHFILTER	IQUANT	3	Ich Filter
VCHRANGE	IQUANT	2	Vch Range
VCHRANGEMODE	TOGGLE	F	Vch Auto Range
VCHOFFSETENABLE	TOGGLE	T	Vch Offset Enable
VCHOFFSET	QUANT	0	Vch Offset (V)
VCHFILTER	IQUANT	3	Vch Filter
ACHRANGE	IQUANT	2	Ach Range
ACHOFFSETENABLE	TOGGLE	F	Ach Offset Enable
ACHOFFSET	QUANT	0	Ach Offset (V)
ACHFILTER	IQUANT	3	Ach Filter
IERANGELOWERLIMIT	IQUANT	1	I/E Range Lower Limit
IERANGEMODE	TOGGLE	F	I/E AutoRange
IERANGE	IQUANT	5	I/E Range
POSFEEDENABLE	TOGGLE	F	Positive Feedback IR Comp
POSFEEDRESISTANCE	QUANT	0	Positive Feedback Resistance (ohm)
ACHSELECT	IQUANT	0	Ach Select
CABLEID	IQUANT	14	Cable ID
DCCALDATE	LABEL	8/19/2019	DC Calibration Date
ACCALDATE	LABEL	8/19/2019	AC Calibration Date
THERMOSELECT	IQUANT	1	Thermo Select
FRAMEWORKVERSION	QUANT	6.33	Framework Version
INSTRUMENTVERSION	LABEL	3.50	Instrument Version
ZCURVE	TABLE
	Pt	Time	Freq	Zreal	Zimag	Zsig	Zmod	Zphz	Idc	Vdc	IERange
	#	s	Hz	ohm	ohm	V	ohm	°	A	V	#
	0	1	1000078	2308.995	-1470.976	1	2737.741	-32.49971	-1.932547E-006	0.0159237	8
	1	3	794390.6	2581.503	-1381.873	1	2928.094	-28.16005	-7.491761E-007	0.0161506	8
	2	4	630984.4	2825.227	-1274.237	1	3099.288	-24.27637	2.210413E-006	0.0151961	8
	3	5	501234.4	3021.901	-1136.155	1	3228.426	-20.60493	-1.84482E-006	0.0154435	8
	4	7	398109.4	3174.945	-1013.946	1	3332.921	-17.71133	-3.045452E-006	0.0160033	8
	5	8	316265.6	3301.241	-905.0747	1	3423.062	-15.3316	4.76223E-007	0.0153675	8
	6	9	251203.1	3398.792	-803.9275	1	3492.576	-13.30778	-6.941287E-008	0.0152197	8
	7	11	199546.9	3479.524	-719.3854	1	3553.112	-11.68122	-1.391059E-006	0.0153755	8
	8	12	158578.1	3539.966	-666.1771	1	3602.104	-10.6577	3.655495E-006	0.014491	8
	9	14	125953.1	3615.689	-574.0271	1	3660.972	-9.020995	-1.398329E-006	0.0182728	7
	10	15	100078.1	3671.401	-544.3841	1	3711.542	-8.434189	4.804171E-008	0.0152349	7
	11	16	79453.13	3723.707	-539.8978	1	3762.643	-8.249789	-6.931442E-009	0.0152849	7
	12	18	63140.62	3775.914	-545.986	1	3815.184	-8.227773	2.590898E-008	0.0151883	7
	13	19	50203.12	3832.448	-560.8405	1	3873.267	-8.325569	2.346416E-009	0.0152527	7
	14	20	39890.62	3889.243	-587.1066	1	3933.307	-8.584358	2.910943E-008	0.0153482	7
	15	22	31640.63	3953.087	-622.1164	1	4001.74	-8.943561	4.341993E-009	0.0152455	7
	16	23	25171.88	4017.834	-668.5432	1	4073.075	-9.447116	-6.736313E-008	0.0154971	7
	17	24	20015.62	4093.968	-723.5127	1	4157.408	-10.0222	1.125474E-007	0.0151094	7
	18	26	15890.62	4168.59	-797.1645	1	4244.127	-10.82604	-4.800262E-008	0.0153124	7
	19	27	12609.37	4251.369	-881.4138	1	4341.777	-11.71289	-7.213875E-008	0.0155011	7
	20	29	10078.13	4340.446	-982.413	1	4450.236	-12.75339	-5.886195E-008	0.015412	7
	21	30	8015.625	4424.858	-1090.984	1	4557.37	-13.85048	8.76971E-008	0.0150973	7
	22	31	6328.125	4544.206	-1245.182	1	4711.718	-15.32379	2.794052E-008	0.0151709	7
	23	33	5015.625	4659.661	-1416.476	1	4870.199	-16.90859	1.123833E-007	0.0151079	7
	24	34	3984.375	4764.432	-1636.948	1	5037.798	-18.96153	5.003729E-008	0.0152137	7
	25	35	3170.956	4915.711	-1861.368	1	5256.32	-20.73952	1.087718E-007	0.0151602	7
	26	37	2527.573	5056.197	-2150.323	1	5494.453	-23.03931	-6.362617E-009	0.0153274	7
	27	38	1976.103	5222.195	-2535.083	1	5804.995	-25.89398	-7.929285E-008	0.0153966	7
	28	39	1577.524	5383.158	-2951.439	1	6139.168	-28.73476	-4.038287E-008	0.0152912	7
	29	41	1265.625	5569.092	-3479.106	1	6566.503	-31.99372	-7.077984E-008	0.0155006	7
	30	42	998.264	5787.878	-4157.151	1	7126.11	-35.68785	-4.553503E-009	0.0152728	7
	31	44	796.875	6026.355	-4942.617	1	7793.999	-39.35747	-6.044841E-008	0.015412	7
	32	45	627.7902	6314.522	-5951.895	1	8677.456	-43.30668	8.512158E-008	0.0151023	7
	33	46	505.5147	6624.824	-7090.643	1	9703.89	-46.94519	-1.003858E-008	0.0152219	7
	34	48	397.9953	7021.543	-8610.535	1	11110.51	-50.80415	2.402089E-010	0.0152376	6
	35	49	315.5048	7479.363	-10428.99	1	12833.73	-54.35302	1.334485E-009	0.0152359	6
	36	50	252.4038	8004.555	-12562.47	1	14895.93	-57.49554	6.295044E-010	0.0152357	6
	37	52	198.6229	8684.991	-15361.06	1	17646.28	-60.51661	7.130943E-010	0.0152364	6
	38	53	158.3615	9471.377	-18602.42	1	20874.79	-63.01719	5.858983E-010	0.0152274	6
	39	55	125.558	10449.65	-22675.3	1	24967.26	-65.25794	4.753302E-010	0.0152283	6
	40	56	100.4464	11592.04	-27449.74	1	29797.04	-67.10564	1.109151E-009	0.0152288	6
	41	57	79.00281	13237.52	-33676.67	1	36184.95	-68.54136	1.039536E-009	0.0152302	6
	42	59	63.3446	15033	-41155.01	1	43814.68	-69.93389	9.448846E-010	0.0152283	6
	43	60	49.86702	17401.63	-49892.75	1	52840.35	-70.77222	7.712698E-010	0.0152245	6
	44	62	39.72458	20740.21	-60930.71	1	64363.87	-71.20193	5.411628E-010	0.0152313	6
	45	63	31.6723	25072.74	-73731.53	1	77877.98	-71.21917	7.725214E-010	0.0152271	6
	46	64	24.93351	30990.12	-90371.66	1	95537.6	-71.0722	7.639043E-010	0.0152253	6
	47	66	19.86229	38325.25	-109076.3	1	115613.4	-70.64047	-3.047164E-010	0.0152319	5
	48	67	15.83615	49811.68	-130682.9	1	139854.3	-69.13493	-8.778266E-010	0.0152356	5
	49	68	12.40079	62859.93	-158911.9	1	170892.8	-68.418	-6.340961E-010	0.0152432	5
	50	70	9.93114	79101.41	-186313.8	1	202410.2	-66.99586	6.151949E-010	0.015237	5
	51	72	7.944915	100310.4	-219629	1	241452	-65.45255	-4.714134E-011	0.0152327	5
	52	73	6.317385	126046.3	-254872.7	1	284337.4	-63.68548	9.676703E-011	0.0152235	5
	53	75	5.008013	157813.3	-294686.3	1	334282.9	-61.82962	-5.571991E-011	0.015243	5
	54	78	3.945707	196046.2	-339528.8	1	392063.7	-59.99757	-2.117011E-010	0.0152309	5
	55	80	3.158693	236385.4	-384040.7	1	450960.4	-58.3868	1.169715E-010	0.0152415	5
	56	84	2.504006	283109.8	-435180.9	1	519166.2	-56.95373	-2.801132E-010	0.0152372	5
	57	86	1.998082	331743.8	-488686.7	1	590651.1	-55.82948	1.822347E-011	0.015189	5
	58	90	1.584686	384351.8	-552249.1	1	672833.8	-55.16303	-1.283482E-010	0.0152356	5
	59	93	1.266892	441061.2	-623484.9	1	763720.1	-54.72393	-8.029128E-011	0.0151925	5
	60	98	0.999041	505390.3	-711577.7	1	872789.9	-54.61614	5.338998E-011	0.0152753	5
