EXPLAIN
TAG	EISPOT
TITLE	LABEL	Potentiostatic EIS	Test &Identifier
DATE	LABEL	10/4/2019	Date
TIME	LABEL	9:09:26	Time
NOTES	NOTES	2	&Notes...
	
	
PSTAT	PSTAT	REF600-11020	Potentiostat
VDC	POTEN	0.00000E+000	T	DC &Voltage (V)
FREQINIT	QUANT	1.00000E+006	Initial Fre&q. (Hz)
FREQFINAL	QUANT	1.00000E+000	Final Fre&q. (Hz)
PTSPERDEC	QUANT	1.00000E+001	Points/&decade
VAC	QUANT	2.50000E+001	AC &Voltage (mV rms)
AREA	QUANT	1.00000E-002	&Area (cm^2)
CONDIT	TWOPARAM	T	5.00000E+000	0.00000E+000	Conditionin&g	Time(s)	E(V)
DELAY	TWOPARAM	T	5.00000E+000	0.00000E+000	Init. De&lay	Time(s)	Stab.(mV/s)
SPEED	SELECTOR	1	&Optimize for:
ZGUESS	QUANT	1.00000E+004	E&stimated Z (ohms)
OCVCURVE	TABLE	19
	Pt	T	Vf	Vm	Ach	Over
	#	s	V vs. Ref.	V	V	bits
	0	0.258333	1.53339E-003	1.53339E-003	5.50633E-004	...........
	1	0.516667	1.52877E-003	1.29150E-003	5.57199E-004	...........
	2	0.775	1.50105E-003	1.09636E-003	5.49633E-004	...........
	3	1.03333	1.42460E-003	8.99320E-004	5.53099E-004	...........
	4	1.29167	1.29131E-003	7.15147E-004	5.51666E-004	...........
	5	1.55	1.11826E-003	5.55580E-004	5.52499E-004	...........
	6	1.80833	9.31114E-004	4.06327E-004	5.55233E-004	...........
	7	2.06667	7.48863E-004	2.66135E-004	5.54199E-004	...........
	8	2.325	5.79883E-004	1.27330E-004	5.55399E-004	...........
	9	2.58333	4.24580E-004	2.69387E-006	5.53333E-004	...........
	10	2.84167	2.80438E-004	-1.10953E-004	5.52099E-004	...........
	11	3.1	1.45578E-004	-2.28628E-004	5.51399E-004	...........
	12	3.35833	1.88302E-005	-3.38961E-004	5.50799E-004	...........
	13	3.61667	-1.01093E-004	-4.32088E-004	5.46133E-004	...........
	14	3.875	-2.14692E-004	-5.23668E-004	5.50899E-004	...........
	15	4.13333	-3.21229E-004	-6.06288E-004	5.49499E-004	...........
	16	4.39167	-4.20465E-004	-7.06603E-004	5.50599E-004	...........
	17	4.65	-5.14361E-004	-7.98693E-004	5.50666E-004	...........
	18	4.90833	-6.06237E-004	-8.90973E-004	5.53866E-004	...........
EOC	QUANT	-0.0006062	Open Circuit (V)
PSTATMODEL	IQUANT	4	Pstat Model
PSTATSECTION	LABEL	REF600-11020	Pstat Section
PSTATSERIALNO	LABEL	11020	Pstat Serial Number
CTRLMODE	IQUANT	1	Control Mode
IESTAB	IQUANT	0	I/E Stability
CASPEED	IQUANT	1	Control Amp Speed
CONVENTION	IQUANT	1	Current Convention
ICHRANGE	IQUANT	2	Ich Range
ICHRANGEMODE	TOGGLE	F	Ich Auto Range
ICHOFFSETENABLE	TOGGLE	T	Ich Offset Enable
ICHOFFSET	QUANT	0	Ich Offset (V)
ICHFILTER	IQUANT	3	Ich Filter
VCHRANGE	IQUANT	2	Vch Range
VCHRANGEMODE	TOGGLE	F	Vch Auto Range
VCHOFFSETENABLE	TOGGLE	T	Vch Offset Enable
VCHOFFSET	QUANT	0	Vch Offset (V)
VCHFILTER	IQUANT	3	Vch Filter
ACHRANGE	IQUANT	2	Ach Range
ACHOFFSETENABLE	TOGGLE	F	Ach Offset Enable
ACHOFFSET	QUANT	0	Ach Offset (V)
ACHFILTER	IQUANT	3	Ach Filter
IERANGELOWERLIMIT	IQUANT	1	I/E Range Lower Limit
IERANGEMODE	TOGGLE	F	I/E AutoRange
IERANGE	IQUANT	5	I/E Range
POSFEEDENABLE	TOGGLE	F	Positive Feedback IR Comp
POSFEEDRESISTANCE	QUANT	0	Positive Feedback Resistance (ohm)
ACHSELECT	IQUANT	0	Ach Select
CABLEID	IQUANT	14	Cable ID
DCCALDATE	LABEL	8/19/2019	DC Calibration Date
ACCALDATE	LABEL	8/19/2019	AC Calibration Date
THERMOSELECT	IQUANT	1	Thermo Select
FRAMEWORKVERSION	QUANT	6.33	Framework Version
INSTRUMENTVERSION	LABEL	3.50	Instrument Version
ZCURVE	TABLE
	Pt	Time	Freq	Zreal	Zimag	Zsig	Zmod	Zphz	Idc	Vdc	IERange
	#	s	Hz	ohm	ohm	V	ohm	°	A	V	#
	0	1	1000078	2442.938	-856.2796	1	2588.66	-19.31619	-2.845614E-006	0.0026735	8
	1	2	794390.6	2566.938	-751.3956	1	2674.653	-16.31584	-2.383721E-006	0.0021867	8
	2	4	630984.4	2653.917	-646.2448	1	2731.466	-13.68552	-7.476766E-008	0.0014003	8
	3	5	501234.4	2724.573	-542.8235	1	2778.12	-11.26764	1.161814E-006	0.0011137	8
	4	6	398109.4	2778.848	-463.4205	1	2817.224	-9.467924	-3.262425E-006	0.0017697	8
	5	8	316265.6	2818.665	-394.4983	1	2846.138	-7.967321	3.851524E-006	0.0002757	8
	6	9	251203.1	2842.734	-331.7937	1	2862.031	-6.657238	-3.695038E-006	0.0016913	8
	7	10	199546.9	2874.482	-287.1313	1	2888.787	-5.70434	6.154432E-007	0.0010145	8
	8	12	158578.1	2893.693	-253.8464	1	2904.805	-5.013383	3.200522E-007	0.0010643	8
	9	13	125953.1	2925.596	-189.4626	1	2931.725	-3.705321	1.423169E-007	0.0008883	7
	10	15	100078.1	2934.008	-170.2217	1	2938.941	-3.320395	-3.969212E-008	0.0010294	7
	11	16	79453.13	2946.115	-164.4904	1	2950.704	-3.195676	7.993822E-008	0.0008392	7
	12	17	63140.62	2959.702	-162.1224	1	2964.139	-3.135335	-5.686947E-008	0.0010818	7
	13	19	50203.12	2973.641	-163.3354	1	2978.123	-3.14397	-2.769903E-009	0.0010022	7
	14	20	39890.62	2987.214	-167.0466	1	2991.881	-3.200676	-5.634909E-008	0.0010749	7
	15	21	31640.63	3000.646	-175.1103	1	3005.751	-3.339851	-3.629792E-008	0.0010146	7
	16	23	25171.88	3014.437	-187.4221	1	3020.258	-3.557775	-6.025898E-008	0.0011123	7
	17	24	20015.62	3028.246	-205.278	1	3035.196	-3.878019	-2.691817E-009	0.0009774	7
	18	25	15890.62	3043.375	-228.788	1	3051.963	-4.299166	-4.320357E-008	0.0010971	7
	19	27	12609.37	3058.508	-259.7178	1	3069.515	-4.853714	8.025076E-008	0.000839	7
	20	28	10078.13	3074.294	-298.9661	1	3088.797	-5.554381	-3.479305E-008	0.0010169	7
	21	29	8015.625	3092.87	-348.8224	1	3112.478	-6.434784	-1.915132E-009	0.0009955	7
	22	31	6328.125	3113.319	-412.8885	1	3140.578	-7.554486	7.109556E-009	0.0011008	7
	23	32	5015.625	3137.224	-491.5346	1	3175.497	-8.904607	-8.180423E-010	0.0009984	7
	24	34	3984.375	3164.672	-586.8691	1	3218.628	-10.50581	-5.82775E-008	0.0011102	7
	25	35	3170.956	3195.245	-703.7004	1	3271.817	-12.42018	-6.900545E-008	0.0010872	7
	26	36	2527.573	3230.154	-844.7516	1	3338.787	-14.65579	8.173534E-008	0.0008257	7
	27	38	1976.103	3275.485	-1034.09	1	3434.843	-17.52121	-5.951204E-008	0.0011069	7
	28	39	1577.524	3322.252	-1246.268	1	3548.315	-20.56245	3.771057E-008	0.0009563	7
	29	40	1265.625	3376.72	-1499.051	1	3694.509	-23.93821	-2.94337E-009	0.0009934	7
	30	42	998.264	3443.351	-1835.249	1	3901.897	-28.05687	4.756125E-008	0.0008591	7
	31	43	796.875	3519.117	-2229.586	1	4165.962	-32.35687	6.883727E-010	0.0009924	7
	32	44	627.7902	3612.107	-2742.404	1	4535.207	-37.2067	-6.903799E-008	0.0012085	7
	33	46	505.5147	3715.752	-3315.765	1	4980.071	-41.74425	-6.811477E-008	0.0010859	7
	34	47	397.9953	3855.208	-4094.404	1	5623.769	-46.72345	5.429034E-009	0.0010226	7
	35	49	315.5048	4021.965	-5032.792	1	6442.453	-51.36983	4.604608E-009	0.0010233	7
	36	50	252.4038	4222.268	-6140.07	1	7451.712	-55.48533	5.437605E-009	0.001026	7
	37	51	198.6229	4495.648	-7607.717	1	8836.753	-59.41977	4.860165E-009	0.0010261	7
	38	53	158.3615	4830.896	-9317.275	1	10495.2	-62.5938	6.345187E-010	0.0009652	6
	39	54	125.558	5270.755	-11465	1	12618.52	-65.31055	6.786569E-010	0.0009666	6
	40	55	100.4464	5816.62	-13990.79	1	15151.74	-67.42508	6.218581E-010	0.0009619	6
	41	57	79.00281	6582.007	-17320.12	1	18528.61	-69.19216	9.197639E-010	0.0009594	6
	42	58	63.3446	7470.914	-20976.95	1	22267.62	-70.39671	6.989458E-010	0.0009596	6
	43	60	49.86702	8908.406	-25959.75	1	27445.74	-71.05972	6.857171E-010	0.0009592	6
	44	61	39.72458	10550.5	-31570.05	1	33286.35	-71.52071	4.817814E-010	0.0009597	6
	45	62	31.6723	12703.11	-38273.47	1	40326.51	-71.6388	2.175162E-010	0.0009607	6
	46	64	24.93351	15792.78	-46800.47	1	49393.28	-71.35307	3.110547E-010	0.0009573	6
	47	65	19.86229	19605.66	-56422.76	1	59731.98	-70.83879	1.357283E-009	0.0009657	6
	48	67	15.83615	24621.22	-67825.44	1	72156.04	-70.04867	-2.346974E-010	0.0009594	6
	49	68	12.40079	31666.73	-81976.09	1	87879.81	-68.87884	-9.097448E-010	0.0009644	6
	50	69	9.93114	39456.98	-96536.1	1	104288.4	-67.7688	1.324618E-009	0.0009612	5
	51	71	7.944915	49334.09	-113497.9	1	123756.3	-66.50687	-3.56165E-010	0.0009622	5
	52	73	6.317385	61637.06	-133074	1	146655.4	-65.14742	9.166244E-010	0.0009523	5
	53	75	5.008013	76963.73	-155375.1	1	173392.1	-63.64888	4.994906E-010	0.000974	5
	54	77	3.945707	95711.7	-180952.2	1	204705.7	-62.12413	-1.358915E-010	0.0009615	5
	55	80	3.158693	115921.4	-207186.7	1	237411.2	-60.7729	5.783533E-010	0.0009853	5
	56	83	2.504006	140287.4	-237937.2	1	276214.9	-59.47646	-2.630688E-010	0.0009657	5
	57	86	1.998082	166641.1	-270521.6	1	317728.2	-58.36696	-1.576348E-010	0.0009555	5
	58	89	1.584686	197194.5	-307328.2	1	365152.4	-57.31409	2.410264E-010	0.0010213	5
	59	93	1.266892	227864.3	-348353.9	1	416260.2	-56.81061	-9.393542E-011	0.00098	5
	60	97	0.999041	263402.6	-398869.4	1	477993.4	-56.56031	5.217449E-010	0.0009749	5
