EXPLAIN
TAG	EISPOT
TITLE	LABEL	Potentiostatic EIS	Test &Identifier
DATE	LABEL	11/7/2019	Date
TIME	LABEL	10:45:29	Time
NOTES	NOTES	2	&Notes...
	
	
PSTAT	PSTAT	REF600-11020	Potentiostat
VDC	POTEN	0.00000E+000	T	DC &Voltage (V)
FREQINIT	QUANT	1.00000E+006	Initial Fre&q. (Hz)
FREQFINAL	QUANT	1.00000E+000	Final Fre&q. (Hz)
PTSPERDEC	QUANT	1.00000E+001	Points/&decade
VAC	QUANT	2.50000E+001	AC &Voltage (mV rms)
AREA	QUANT	1.00000E-002	&Area (cm^2)
CONDIT	TWOPARAM	T	5.00000E+000	0.00000E+000	Conditionin&g	Time(s)	E(V)
DELAY	TWOPARAM	T	5.00000E+000	0.00000E+000	Init. De&lay	Time(s)	Stab.(mV/s)
SPEED	SELECTOR	1	&Optimize for:
ZGUESS	QUANT	1.00000E+005	E&stimated Z (ohms)
OCVCURVE	TABLE	19
	Pt	T	Vf	Vm	Ach	Over
	#	s	V vs. Ref.	V	V	bits
	0	0.258333	8.85803E-003	8.85803E-003	5.73032E-004	...........
	1	0.516667	8.87668E-003	9.83407E-003	5.74132E-004	...........
	2	0.775	8.97671E-003	1.00019E-002	5.71599E-004	...........
	3	1.03333	9.21185E-003	1.01765E-002	5.72099E-004	...........
	4	1.29167	9.53646E-003	1.01289E-002	5.75066E-004	...........
	5	1.55	9.83326E-003	1.00350E-002	5.75699E-004	...........
	6	1.80833	1.00179E-002	1.00043E-002	5.74665E-004	...........
	7	2.06667	1.00824E-002	9.96589E-003	5.70932E-004	...........
	8	2.325	1.00689E-002	9.93416E-003	5.75999E-004	...........
	9	2.58333	1.00250E-002	9.88028E-003	5.70866E-004	...........
	10	2.84167	9.97730E-003	9.86915E-003	5.73032E-004	...........
	11	3.1	9.93473E-003	9.85063E-003	5.75932E-004	...........
	12	3.35833	9.89873E-003	9.77117E-003	5.74066E-004	...........
	13	3.61667	9.86569E-003	9.75271E-003	5.71632E-004	...........
	14	3.875	9.83093E-003	9.74010E-003	5.73766E-004	...........
	15	4.13333	9.79603E-003	9.73549E-003	5.75999E-004	...........
	16	4.39167	9.76731E-003	9.73390E-003	5.71399E-004	...........
	17	4.65	9.74882E-003	9.75285E-003	5.76499E-004	...........
	18	4.90833	9.74210E-003	9.82162E-003	5.72632E-004	...........
EOC	QUANT	0.0097421	Open Circuit (V)
PSTATMODEL	IQUANT	4	Pstat Model
PSTATSECTION	LABEL	REF600-11020	Pstat Section
PSTATSERIALNO	LABEL	11020	Pstat Serial Number
CTRLMODE	IQUANT	1	Control Mode
IESTAB	IQUANT	0	I/E Stability
CASPEED	IQUANT	1	Control Amp Speed
CONVENTION	IQUANT	1	Current Convention
ICHRANGE	IQUANT	2	Ich Range
ICHRANGEMODE	TOGGLE	F	Ich Auto Range
ICHOFFSETENABLE	TOGGLE	T	Ich Offset Enable
ICHOFFSET	QUANT	0	Ich Offset (V)
ICHFILTER	IQUANT	3	Ich Filter
VCHRANGE	IQUANT	2	Vch Range
VCHRANGEMODE	TOGGLE	F	Vch Auto Range
VCHOFFSETENABLE	TOGGLE	T	Vch Offset Enable
VCHOFFSET	QUANT	0	Vch Offset (V)
VCHFILTER	IQUANT	3	Vch Filter
ACHRANGE	IQUANT	2	Ach Range
ACHOFFSETENABLE	TOGGLE	F	Ach Offset Enable
ACHOFFSET	QUANT	0	Ach Offset (V)
ACHFILTER	IQUANT	3	Ach Filter
IERANGELOWERLIMIT	IQUANT	1	I/E Range Lower Limit
IERANGEMODE	TOGGLE	F	I/E AutoRange
IERANGE	IQUANT	5	I/E Range
POSFEEDENABLE	TOGGLE	F	Positive Feedback IR Comp
POSFEEDRESISTANCE	QUANT	0	Positive Feedback Resistance (ohm)
ACHSELECT	IQUANT	0	Ach Select
CABLEID	IQUANT	14	Cable ID
DCCALDATE	LABEL	8/19/2019	DC Calibration Date
ACCALDATE	LABEL	8/19/2019	AC Calibration Date
THERMOSELECT	IQUANT	1	Thermo Select
FRAMEWORKVERSION	QUANT	6.33	Framework Version
INSTRUMENTVERSION	LABEL	3.50	Instrument Version
ZCURVE	TABLE
	Pt	Time	Freq	Zreal	Zimag	Zsig	Zmod	Zphz	Idc	Vdc	IERange
	#	s	Hz	ohm	ohm	V	ohm	°	A	V	#
	0	1	1000078	2507.048	-1954.892	1	3179.134	-37.94563	-5.748906E-006	0.0130012	8
	1	3	794390.6	2856.571	-1950.186	1	3458.789	-34.32141	7.823018E-006	0.0116507	8
	2	4	630984.4	3216.088	-1887.135	1	3728.874	-30.40355	7.552432E-006	0.0105257	8
	3	6	501234.4	3562.334	-1775.196	1	3980.144	-26.48817	-6.778931E-006	0.0118417	8
	4	7	398109.4	3861.613	-1657.127	1	4202.157	-23.22553	-2.762609E-006	0.0120215	8
	5	9	316265.6	4107.644	-1524.361	1	4381.372	-20.36007	-3.144719E-006	0.0119665	8
	6	10	251203.1	4291.34	-1373.094	1	4505.662	-17.74304	-3.496023E-007	0.0118381	8
	7	12	199546.9	4482.529	-1265.439	1	4657.725	-15.76463	-2.856252E-006	0.0112029	8
	8	14	158578.1	4641.519	-1156.437	1	4783.413	-13.99043	-4.191996E-007	0.0118256	8
	9	15	125953.1	4778.192	-977.73	1	4877.2	-11.56442	6.743959E-007	0.0140406	7
	10	17	100078.1	4892.418	-939.1848	1	4981.749	-10.86672	1.205639E-006	0.0091892	7
	11	18	79453.13	4948.274	-902.6222	1	5029.925	-10.33775	-1.344468E-006	0.0132297	7
	12	19	63140.62	5042.031	-898.2016	1	5121.411	-10.10087	-3.612391E-007	0.0101878	7
	13	21	50203.12	5123.146	-915.2833	1	5204.264	-10.1294	-3.675446E-007	0.012919	7
	14	22	39890.62	5210.108	-945.8347	1	5295.265	-10.28933	-1.49908E-006	0.0130164	7
	15	24	31640.63	5319.146	-1004.139	1	5413.097	-10.69039	1.23698E-006	0.0103977	7
	16	25	25171.88	5419.34	-1079.177	1	5525.746	-11.26224	6.096416E-007	0.0091951	7
	17	26	20015.62	5512.388	-1168.051	1	5634.781	-11.96377	-3.576277E-007	0.0101849	7
	18	28	15890.62	5655.273	-1298.688	1	5802.475	-12.93328	1.236233E-006	0.0103968	7
	19	29	12609.37	5789.491	-1440.165	1	5965.927	-13.96909	1.334569E-006	0.00946	7
	20	30	10078.13	5958.332	-1573.983	1	6162.722	-14.79752	1.011173E-006	0.0110035	7
	21	32	8015.625	6107.502	-1787.724	1	6363.768	-16.31525	-8.767125E-007	0.011015	7
	22	33	6328.125	6307.208	-2029.693	1	6625.747	-17.83845	1.557657E-007	0.0095526	7
	23	35	5015.625	6520.769	-2298.864	1	6914.13	-19.41984	-3.586372E-007	0.0101774	7
	24	36	3984.375	6784.744	-2616.543	1	7271.798	-21.08918	1.236247E-006	0.0103941	7
	25	38	3170.956	7041.821	-2971.646	1	7643.162	-22.87973	7.333576E-008	0.0124417	7
	26	39	2527.573	7361.846	-3383.824	1	8102.286	-24.68556	1.210849E-006	0.009176	7
	27	41	1976.103	7736.846	-3887.158	1	8658.451	-26.67594	-1.480472E-006	0.0125389	7
	28	43	1577.524	8167.333	-4396.134	1	9275.307	-28.29173	1.575113E-007	0.0095463	7
	29	44	1265.625	8586.331	-5034.665	1	9953.54	-30.38557	1.425723E-007	0.0077623	6
	30	46	998.264	9108.657	-5790.845	1	10793.59	-32.44623	-2.421285E-007	0.0148102	6
	31	47	796.875	9671.67	-6614.365	1	11717.12	-34.36787	2.165267E-007	0.008143	6
	32	48	627.7902	10319.17	-7631.855	1	12834.73	-36.48591	1.925718E-007	0.0102614	6
	33	50	505.5147	10940.43	-8689.242	1	13971.25	-38.45774	-1.308175E-007	0.0146084	6
	34	51	397.9953	11673.66	-10078.91	1	15422.67	-40.80695	1.085504E-009	0.0112178	6
	35	52	315.5048	12402.73	-11707.51	1	17055.61	-43.34833	-1.614608E-010	0.0112135	6
	36	54	252.4038	13122.47	-13629.23	1	18919.7	-46.08523	7.70529E-010	0.0112145	6
	37	55	198.6229	13926.53	-16187.48	1	21353.76	-49.2937	1.009614E-009	0.0112051	6
	38	57	158.3615	14749.52	-19210.21	1	24219.42	-52.48309	1.607222E-009	0.0111972	6
	39	58	125.558	15675.9	-23106.11	1	27921.79	-55.84582	6.43218E-010	0.0112053	6
	40	59	100.4464	16712.84	-27794.97	1	32432.7	-58.98193	1.28707E-009	0.011209	6
	41	61	79.00281	18059.76	-33891.21	1	38402.73	-61.94799	1.081726E-009	0.0112025	6
	42	62	63.3446	20013.8	-40436.55	1	45118.36	-63.6672	7.220458E-010	0.0111981	6
	43	64	49.86702	22503.94	-51136.95	1	55869.62	-66.24706	-5.480387E-010	0.0112038	6
	44	65	39.72458	25253.11	-61850.13	1	66806.88	-67.79005	4.246865E-011	0.0112038	6
	45	66	31.6723	29126.75	-75580.7	1	80998.83	-68.92469	1.318886E-009	0.0111986	6
	46	68	24.93351	34849.67	-92549.63	1	98893.5	-69.36607	2.781853E-010	0.0112072	6
	47	69	19.86229	42271.31	-111943.6	1	119658.8	-69.31283	8.017688E-010	0.0112051	5
	48	70	15.83615	52374.42	-132535.6	1	142508.8	-68.43743	-1.319641E-009	0.0112126	5
	49	72	12.40079	66383.41	-164096.5	1	177015.3	-67.97476	4.272723E-010	0.0112127	5
	50	73	9.93114	85043.39	-193471.4	1	211337.5	-66.27135	-5.186874E-010	0.0112053	5
	51	75	7.944915	108192.8	-226194.2	1	250737.9	-64.43736	8.770491E-010	0.0112045	5
	52	77	6.317385	135222.8	-264654.3	1	297198.7	-62.93563	-2.844469E-010	0.0112194	5
	53	79	5.008013	169819.3	-305086.2	1	349165	-60.89849	-7.396347E-011	0.0112036	5
	54	81	3.945707	210730.9	-350082	1	408613.4	-58.95428	-2.139448E-010	0.0112046	5
	55	84	3.158693	252954.5	-391885.7	1	466433.7	-57.15855	2.651905E-010	0.0112277	5
	56	88	2.504006	299847.6	-440250.6	1	532662.4	-55.74185	-1.777997E-010	0.0112054	5
	57	90	1.998082	346720.5	-491991.7	1	601889.4	-54.82656	-2.443859E-011	0.0111814	5
	58	93	1.584686	396780.3	-552469.1	1	680188.8	-54.3143	-6.775287E-011	0.011255	5
	59	97	1.266892	444929.8	-626142.9	1	768125.9	-54.60285	4.088277E-011	0.0112051	5
	60	101	0.999041	501267.5	-719691.3	1	877054.5	-55.14265	2.230146E-010	0.0112313	5
