EXPLAIN
TAG	EISPOT
TITLE	LABEL	Potentiostatic IDE	Test &Identifier
DATE	LABEL	9/4/2019	Date
TIME	LABEL	11:19:37	Time
NOTES	NOTES	1	&Notes...
	
PSTAT	PSTAT	REF600-11020	Potentiostat
VDC	POTEN	0.00000E+000	T	DC &Voltage (V)
FREQINIT	QUANT	1.00000E+006	Initial Fre&q. (Hz)
FREQFINAL	QUANT	1.00000E+000	Final Fre&q. (Hz)
PTSPERDEC	QUANT	1.00000E+001	Points/&decade
VAC	QUANT	2.50000E+001	AC &Voltage (mV rms)
AREA	QUANT	1.00000E-002	&Area (cm^2)
CONDIT	TWOPARAM	T	5.00000E+000	0.00000E+000	Conditionin&g	Time(s)	E(V)
DELAY	TWOPARAM	T	5.00000E+000	0.00000E+000	Init. De&lay	Time(s)	Stab.(mV/s)
SPEED	SELECTOR	1	&Optimize for:
ZGUESS	QUANT	1.00000E+007	E&stimated Z (ohms)
OCVCURVE	TABLE	19
	Pt	T	Vf	Vm	Ach	Over
	#	s	V vs. Ref.	V	V	bits
	0	0.258333	1.69173E-001	1.69173E-001	5.64966E-004	...........
	1	0.516667	1.69379E-001	1.79943E-001	5.64832E-004	...........
	2	0.775	1.70628E-001	1.89418E-001	5.67232E-004	...........
	3	1.03333	1.74102E-001	1.97802E-001	5.64332E-004	...........
	4	1.29167	1.80158E-001	2.05283E-001	5.65866E-004	...........
	5	1.55	1.87918E-001	2.12017E-001	5.65199E-004	...........
	6	1.80833	1.96112E-001	2.18123E-001	5.65766E-004	...........
	7	2.06667	2.03887E-001	2.23682E-001	5.65332E-004	...........
	8	2.325	2.10928E-001	2.28847E-001	5.67766E-004	...........
	9	2.58333	2.17244E-001	2.33610E-001	5.64466E-004	...........
	10	2.84167	2.22954E-001	2.38008E-001	5.63066E-004	...........
	11	3.1	2.28175E-001	2.42084E-001	5.67032E-004	...........
	12	3.35833	2.32985E-001	2.45881E-001	5.62266E-004	...........
	13	3.61667	2.37434E-001	2.49427E-001	5.62532E-004	...........
	14	3.875	2.41563E-001	2.52752E-001	5.62666E-004	...........
	15	4.13333	2.45404E-001	2.55876E-001	5.65166E-004	...........
	16	4.39167	2.48991E-001	2.58839E-001	5.64032E-004	...........
	17	4.65	2.52350E-001	2.61610E-001	5.59666E-004	...........
	18	4.90833	2.55508E-001	2.64256E-001	5.62632E-004	...........
EOC	QUANT	0.2555078	Open Circuit (V)
PSTATMODEL	IQUANT	4	Pstat Model
PSTATSECTION	LABEL	REF600-11020	Pstat Section
PSTATSERIALNO	LABEL	11020	Pstat Serial Number
CTRLMODE	IQUANT	1	Control Mode
IESTAB	IQUANT	0	I/E Stability
CASPEED	IQUANT	1	Control Amp Speed
CONVENTION	IQUANT	1	Current Convention
ICHRANGE	IQUANT	2	Ich Range
ICHRANGEMODE	TOGGLE	F	Ich Auto Range
ICHOFFSETENABLE	TOGGLE	T	Ich Offset Enable
ICHOFFSET	QUANT	0	Ich Offset (V)
ICHFILTER	IQUANT	3	Ich Filter
VCHRANGE	IQUANT	2	Vch Range
VCHRANGEMODE	TOGGLE	F	Vch Auto Range
VCHOFFSETENABLE	TOGGLE	T	Vch Offset Enable
VCHOFFSET	QUANT	0	Vch Offset (V)
VCHFILTER	IQUANT	3	Vch Filter
ACHRANGE	IQUANT	2	Ach Range
ACHOFFSETENABLE	TOGGLE	F	Ach Offset Enable
ACHOFFSET	QUANT	0	Ach Offset (V)
ACHFILTER	IQUANT	3	Ach Filter
IERANGELOWERLIMIT	IQUANT	1	I/E Range Lower Limit
IERANGEMODE	TOGGLE	F	I/E AutoRange
IERANGE	IQUANT	4	I/E Range
POSFEEDENABLE	TOGGLE	F	Positive Feedback IR Comp
POSFEEDRESISTANCE	QUANT	0	Positive Feedback Resistance (ohm)
ACHSELECT	IQUANT	0	Ach Select
CABLEID	IQUANT	14	Cable ID
DCCALDATE	LABEL	8/19/2019	DC Calibration Date
ACCALDATE	LABEL	8/19/2019	AC Calibration Date
THERMOSELECT	IQUANT	1	Thermo Select
FRAMEWORKVERSION	QUANT	6.33	Framework Version
INSTRUMENTVERSION	LABEL	3.50	Instrument Version
ZCURVE	TABLE
	Pt	Time	Freq	Zreal	Zimag	Zsig	Zmod	Zphz	Idc	Vdc	IERange
	#	s	Hz	ohm	ohm	V	ohm	°	A	V	#
	0	2	1000078	2377.34	-1332.707	1	2725.409	-29.27444	7.515281E-006	0.2571172	8
	1	4	794390.6	2637.281	-1183.559	1	2890.686	-24.16958	8.376201E-006	0.2565544	8
	2	5	630984.4	2790.166	-1053.952	1	2982.589	-20.69346	7.211055E-006	0.2571252	8
	3	7	501234.4	2919.142	-911.8098	1	3058.232	-17.34648	1.025954E-005	0.2563342	8
	4	9	398109.4	3020.505	-780.8514	1	3119.804	-14.49459	7.97944E-006	0.2565565	8
	5	10	316265.6	3102.138	-687.967	1	3177.509	-12.50422	8.207232E-006	0.2565344	8
	6	11	251203.1	3154.468	-595.9102	1	3210.261	-10.69767	7.481931E-006	0.2566724	8
	7	13	199546.9	3201.377	-520.5281	1	3243.418	-9.235193	9.942069E-006	0.2563632	8
	8	15	158578.1	3248.453	-473.1646	1	3282.732	-8.287333	8.745429E-006	0.2565043	8
	9	16	125953.1	3289.725	-432.1095	1	3317.982	-7.483034	2.943019E-007	0.2570954	7
	10	18	100078.1	3319.472	-394.0069	1	3342.774	-6.769089	6.415867E-007	0.2569122	7
	11	19	79453.13	3350.782	-389.4285	1	3373.336	-6.629185	6.733863E-007	0.2568004	7
	12	20	63140.62	3384.288	-390.6742	1	3406.763	-6.584943	6.539524E-007	0.2568753	7
	13	22	50203.12	3419.524	-398.0342	1	3442.611	-6.639378	6.596938E-007	0.2568454	7
	14	23	39890.62	3457.788	-416.3326	1	3482.762	-6.865608	6.890072E-007	0.2567956	7
	15	24	31640.63	3497.94	-441.7387	1	3525.722	-7.19752	7.164265E-007	0.2567458	7
	16	26	25171.88	3542.299	-478.5812	1	3574.482	-7.69434	6.302367E-007	0.2568835	7
	17	27	20015.62	3590.015	-522.4162	1	3627.827	-8.279522	7.093225E-007	0.2567095	7
	18	28	15890.62	3642.577	-574.6604	1	3687.628	-8.96521	6.531351E-007	0.2568113	7
	19	30	12609.37	3706.251	-645.9342	1	3762.118	-9.88634	7.188237E-007	0.2567424	7
	20	31	10078.13	3763.314	-723.1976	1	3832.172	-10.87794	6.670635E-007	0.2568609	7
	21	32	8015.625	3837.263	-819.7994	1	3923.857	-12.05947	6.676965E-007	0.2568232	7
	22	34	6328.125	3917.636	-932.5882	1	4027.107	-13.38997	7.101272E-007	0.2567011	7
	23	35	5015.625	4007.358	-1069.529	1	4147.627	-14.94343	6.686153E-007	0.2568471	7
	24	36	3984.375	4108.789	-1229.481	1	4288.796	-16.65887	6.317368E-007	0.2568743	7
	25	38	3170.956	4219.564	-1414.875	1	4450.46	-18.53698	6.624629E-007	0.2568254	7
	26	39	2527.573	4344.367	-1633.911	1	4641.464	-20.61122	6.560276E-007	0.2567903	7
	27	41	1976.103	4497.649	-1919.031	1	4889.941	-23.10669	6.484719E-007	0.2568163	7
	28	42	1577.524	4656.084	-2227.535	1	5161.495	-25.5671	6.670979E-007	0.2568491	7
	29	43	1265.625	4833.465	-2588.799	1	5483.089	-28.17346	6.31329E-007	0.2568671	7
	30	45	998.264	5055.42	-3046.651	1	5902.488	-31.07529	6.573387E-007	0.2567815	7
	31	46	796.875	5288.394	-3567.927	1	6379.437	-34.00641	6.695803E-007	0.2568164	7
	32	47	627.7902	5577.701	-4216.551	1	6992.142	-37.08803	6.617159E-007	0.2568218	7
	33	49	505.5147	5882.733	-4925.836	1	7672.705	-39.94072	6.648564E-007	0.2568218	7
	34	50	397.9953	6259.521	-5860.751	1	8574.964	-43.11559	6.884442E-007	0.2564502	7
	35	51	315.5048	6677.28	-6949.777	1	9637.71	-46.14558	6.901991E-007	0.2564486	7
	36	53	252.4038	7131.804	-8202.95	1	10869.73	-48.99567	6.900484E-007	0.2564459	7
	37	54	198.6229	7681.63	-9824.09	1	12470.77	-51.97751	6.595087E-008	0.2563914	6
	38	55	158.3615	8275.731	-11691.87	1	14324.37	-54.7084	6.655034E-008	0.256388	6
	39	57	125.558	8963.321	-14019.11	1	16639.61	-57.4066	6.665895E-008	0.256391	6
	40	58	100.4464	9720.32	-16752.4	1	19368.21	-59.87622	6.616702E-008	0.2563925	6
	41	59	79.00281	10668.53	-20324.81	1	22954.64	-62.30493	6.62452E-008	0.2563883	6
	42	61	63.3446	11707.91	-24484.97	1	27140.17	-64.44441	6.637414E-008	0.2563903	6
	43	62	49.86702	13022.58	-29705.2	1	32434.34	-66.32765	6.62503E-008	0.2563844	6
	44	64	39.72458	14607.36	-36054.74	1	38901.41	-67.94497	6.676756E-008	0.2563942	6
	45	65	31.6723	16514.06	-43643.64	1	46663.5	-69.27415	6.687577E-008	0.2563915	6
	46	66	24.93351	19019.79	-53513.6	1	56793.11	-70.43378	6.679483E-008	0.2563947	6
	47	68	19.86229	22057.35	-64944.81	1	68588.3	-71.24085	6.669098E-008	0.2563954	6
	48	69	15.83615	26030.9	-78951.03	1	83131.66	-71.75213	6.555879E-008	0.2563888	6
	49	70	12.40079	30963.79	-96762.7	1	101596.2	-72.25549	6.624885E-008	0.2563916	6
	50	72	9.93114	37348.36	-116575.9	1	122412.6	-72.23569	6.695929E-008	0.2563889	6
	51	73	7.944915	44921.46	-140517.5	1	147523.2	-72.27165	6.506743E-009	0.2564031	5
	52	75	6.317385	55235.32	-169719.6	1	178481.6	-71.9725	6.530439E-009	0.2564092	5
	53	77	5.008013	68338.94	-205052	1	216140	-71.568	6.708551E-009	0.2564009	5
	54	79	3.945707	85632.85	-248793.2	1	263117.9	-71.0069	6.297404E-009	0.2563894	5
	55	82	3.158693	106485.2	-296854	1	315375	-70.26646	6.538325E-009	0.2563951	5
	56	85	2.504006	133680.4	-355355.2	1	379668	-69.3843	6.279198E-009	0.256682	5
	57	88	1.998082	166466	-420528.2	1	452277.5	-68.40387	6.544308E-009	0.2566666	5
	58	91	1.584686	210546.3	-499376.5	1	541947.1	-67.13882	6.336227E-009	0.2566177	5
	59	95	1.266892	261029.7	-586506.7	1	641970.9	-66.00815	6.46534E-009	0.2566968	5
	60	99	0.999041	329250.3	-692744.8	1	767007.9	-64.57902	6.118253E-009	0.2566395	5
