EXPLAIN
TAG	EISPOT
TITLE	LABEL	Potentiostatic IDE	Test &Identifier
DATE	LABEL	9/18/2019	Date
TIME	LABEL	8:22:13	Time
NOTES	NOTES	1	&Notes...
	
PSTAT	PSTAT	REF600-11020	Potentiostat
VDC	POTEN	0.00000E+000	T	DC &Voltage (V)
FREQINIT	QUANT	1.00000E+006	Initial Fre&q. (Hz)
FREQFINAL	QUANT	1.00000E+000	Final Fre&q. (Hz)
PTSPERDEC	QUANT	1.00000E+001	Points/&decade
VAC	QUANT	2.50000E+001	AC &Voltage (mV rms)
AREA	QUANT	1.00000E-002	&Area (cm^2)
CONDIT	TWOPARAM	T	5.00000E+000	0.00000E+000	Conditionin&g	Time(s)	E(V)
DELAY	TWOPARAM	T	5.00000E+000	0.00000E+000	Init. De&lay	Time(s)	Stab.(mV/s)
SPEED	SELECTOR	1	&Optimize for:
ZGUESS	QUANT	1.00000E+007	E&stimated Z (ohms)
OCVCURVE	TABLE	19
	Pt	T	Vf	Vm	Ach	Over
	#	s	V vs. Ref.	V	V	bits
	0	0.258333	1.29287E-002	1.29287E-002	5.67966E-004	...........
	1	0.516667	1.29407E-002	1.35554E-002	5.64966E-004	...........
	2	0.775	1.30142E-002	1.41494E-002	5.69932E-004	...........
	3	1.03333	1.32219E-002	1.47074E-002	5.61899E-004	...........
	4	1.29167	1.35923E-002	1.52260E-002	5.57599E-004	...........
	5	1.55	1.40816E-002	1.57333E-002	5.66832E-004	...........
	6	1.80833	1.46196E-002	1.62116E-002	5.61199E-004	...........
	7	2.06667	1.51563E-002	1.66712E-002	5.60466E-004	...........
	8	2.325	1.56704E-002	1.71092E-002	5.64899E-004	...........
	9	2.58333	1.61576E-002	1.75220E-002	5.66032E-004	...........
	10	2.84167	1.66197E-002	1.79243E-002	5.65566E-004	...........
	11	3.1	1.70594E-002	1.83103E-002	5.59866E-004	...........
	12	3.35833	1.74794E-002	1.86783E-002	5.64399E-004	...........
	13	3.61667	1.78819E-002	1.90344E-002	5.63199E-004	...........
	14	3.875	1.82683E-002	1.93753E-002	5.58832E-004	...........
	15	4.13333	1.86396E-002	1.97076E-002	5.65532E-004	...........
	16	4.39167	1.89967E-002	2.00211E-002	5.64366E-004	...........
	17	4.65	1.93403E-002	2.03274E-002	5.66432E-004	...........
	18	4.90833	1.96708E-002	2.06198E-002	5.63332E-004	...........
EOC	QUANT	0.0196708	Open Circuit (V)
PSTATMODEL	IQUANT	4	Pstat Model
PSTATSECTION	LABEL	REF600-11020	Pstat Section
PSTATSERIALNO	LABEL	11020	Pstat Serial Number
CTRLMODE	IQUANT	1	Control Mode
IESTAB	IQUANT	0	I/E Stability
CASPEED	IQUANT	1	Control Amp Speed
CONVENTION	IQUANT	1	Current Convention
ICHRANGE	IQUANT	2	Ich Range
ICHRANGEMODE	TOGGLE	F	Ich Auto Range
ICHOFFSETENABLE	TOGGLE	T	Ich Offset Enable
ICHOFFSET	QUANT	0	Ich Offset (V)
ICHFILTER	IQUANT	3	Ich Filter
VCHRANGE	IQUANT	2	Vch Range
VCHRANGEMODE	TOGGLE	F	Vch Auto Range
VCHOFFSETENABLE	TOGGLE	T	Vch Offset Enable
VCHOFFSET	QUANT	0	Vch Offset (V)
VCHFILTER	IQUANT	3	Vch Filter
ACHRANGE	IQUANT	2	Ach Range
ACHOFFSETENABLE	TOGGLE	F	Ach Offset Enable
ACHOFFSET	QUANT	0	Ach Offset (V)
ACHFILTER	IQUANT	3	Ach Filter
IERANGELOWERLIMIT	IQUANT	1	I/E Range Lower Limit
IERANGEMODE	TOGGLE	F	I/E AutoRange
IERANGE	IQUANT	3	I/E Range
POSFEEDENABLE	TOGGLE	F	Positive Feedback IR Comp
POSFEEDRESISTANCE	QUANT	0	Positive Feedback Resistance (ohm)
ACHSELECT	IQUANT	0	Ach Select
CABLEID	IQUANT	14	Cable ID
DCCALDATE	LABEL	8/19/2019	DC Calibration Date
ACCALDATE	LABEL	8/19/2019	AC Calibration Date
THERMOSELECT	IQUANT	1	Thermo Select
FRAMEWORKVERSION	QUANT	6.33	Framework Version
INSTRUMENTVERSION	LABEL	3.50	Instrument Version
ZCURVE	TABLE
	Pt	Time	Freq	Zreal	Zimag	Zsig	Zmod	Zphz	Idc	Vdc	IERange
	#	s	Hz	ohm	ohm	V	ohm	°	A	V	#
	0	2	1000078	2264.83	-1019.475	1	2483.703	-24.23409	-2.177389E-006	0.022108	8
	1	3	794390.6	2423.408	-890.2043	1	2581.738	-20.17009	2.935333E-006	0.0216021	8
	2	5	630984.4	2537.479	-764.787	1	2650.226	-16.77262	-7.961686E-007	0.0216272	8
	3	6	501234.4	2637.387	-653.7284	1	2717.199	-13.92131	1.969259E-006	0.0213346	8
	4	7	398109.4	2690.384	-550.5705	1	2746.142	-11.56554	-6.874934E-007	0.0215737	8
	5	9	316265.6	2745.646	-461.4904	1	2784.16	-9.54114	1.073706E-006	0.0212522	8
	6	10	251203.1	2779.463	-386.973	1	2806.272	-7.926101	9.653538E-007	0.0212377	8
	7	11	199546.9	2807.893	-337.521	1	2828.106	-6.854317	-2.558413E-006	0.0219361	8
	8	13	158578.1	2831.838	-288.8577	1	2846.532	-5.824232	-1.47549E-007	0.0213568	8
	9	14	125953.1	2855.093	-237.2813	1	2864.936	-4.750826	-8.522928E-009	0.0217393	7
	10	15	100078.1	2870.115	-212.2378	1	2877.952	-4.22918	7.658777E-008	0.0212022	7
	11	17	79453.13	2884.751	-199.3747	1	2891.633	-3.953613	2.608552E-008	0.021288	7
	12	18	63140.62	2899.877	-192.4931	1	2906.259	-3.797708	3.742537E-010	0.0213714	7
	13	19	50203.12	2916.145	-189.926	1	2922.323	-3.726361	5.255013E-008	0.021197	7
	14	21	39890.62	2933.54	-193.0582	1	2939.885	-3.765244	2.921881E-008	0.0212858	7
	15	22	31640.63	2947.274	-196.545	1	2953.821	-3.815237	-1.753447E-008	0.0213551	7
	16	23	25171.88	2962.536	-207.2501	1	2969.777	-4.001719	7.790983E-008	0.0211874	7
	17	25	20015.62	2977.821	-223.4061	1	2986.19	-4.290483	2.815212E-009	0.0213582	7
	18	26	15890.62	2993.486	-246.57	1	3003.624	-4.708756	-6.914211E-009	0.0213516	7
	19	27	12609.37	3011.661	-277.2153	1	3024.393	-5.259102	5.174218E-008	0.0212775	7
	20	29	10078.13	3029.464	-316.2754	1	3045.929	-5.960075	-2.105835E-008	0.0213959	7
	21	30	8015.625	3049.688	-365.0841	1	3071.462	-6.826504	-5.323775E-008	0.0214099	7
	22	31	6328.125	3073.563	-428.8088	1	3103.332	-7.942366	-2.992049E-008	0.0213505	7
	23	33	5015.625	3099.606	-506.8645	1	3140.775	-9.287121	2.800458E-008	0.0212769	7
	24	34	3984.375	3129.879	-601.5	1	3187.153	-10.87847	-2.461509E-008	0.0213548	7
	25	35	3170.956	3164.165	-717.0333	1	3244.391	-12.76819	1.976128E-008	0.0212539	7
	26	37	2527.573	3203.37	-856.6498	1	3315.936	-14.97178	8.919159E-009	0.0213477	7
	27	38	1976.103	3253.709	-1041.659	1	3416.384	-17.75221	5.439725E-008	0.0211882	7
	28	39	1577.524	3304.985	-1249.11	1	3533.157	-20.70395	2.969385E-008	0.0212756	7
	29	41	1265.625	3363.179	-1497.171	1	3681.371	-23.99697	-2.539799E-008	0.0213498	7
	30	42	998.264	3434.724	-1823.478	1	3888.754	-27.96361	6.086706E-010	0.0213498	7
	31	43	796.875	3512.316	-2204.063	1	4146.596	-32.10926	6.21728E-009	0.0212916	7
	32	45	627.7902	3608.102	-2703.524	1	4508.596	-36.84394	-1.859533E-008	0.021342	7
	33	46	505.5147	3710.339	-3261.663	1	4940.148	-41.31787	-3.216611E-008	0.0213767	7
	34	47	397.9953	3847.246	-4017.76	1	5562.706	-46.24198	5.363044E-009	0.0213434	7
	35	49	315.5048	4007.917	-4931.342	1	6354.646	-50.89773	5.37973E-009	0.0213454	7
	36	50	252.4038	4197.641	-6011.594	1	7332.084	-55.07504	6.125208E-009	0.0213389	7
	37	51	198.6229	4455.009	-7445.792	1	8676.804	-59.10683	5.883744E-009	0.0213421	7
	38	53	158.3615	4765.328	-9121.182	1	10290.98	-62.41535	5.175737E-009	0.0213368	7
	39	54	125.558	5179.01	-11234.84	1	12371.08	-65.25135	2.355383E-010	0.0212846	6
	40	55	100.4464	5687.622	-13721.61	1	14853.67	-67.48594	7.339289E-010	0.0212809	6
	41	57	79.00281	6409.319	-17003.83	1	18171.67	-69.34688	-4.569719E-010	0.0212785	6
	42	58	63.3446	7319.871	-20781.21	1	22032.69	-70.59595	-4.04319E-010	0.0212807	6
	43	59	49.86702	8547.076	-25521.07	1	26914.26	-71.48416	1.094742E-010	0.0212781	6
	44	61	39.72458	10205.26	-31209.94	1	32836.07	-71.89291	-9.779184E-011	0.0212809	6
	45	62	31.6723	12365	-37894.04	1	39860.4	-71.92826	3.920928E-010	0.0212816	6
	46	63	24.93351	15437.36	-46504.71	1	49000	-71.63628	-4.206006E-010	0.0212828	6
	47	65	19.86229	19307.44	-56153.38	1	59379.96	-71.02528	8.111183E-010	0.021287	6
	48	66	15.83615	24540.42	-67449.63	1	71775.24	-70.00693	6.398287E-010	0.0212848	6
	49	67	12.40079	31616.74	-81554.27	1	87468.38	-68.80981	-5.403503E-010	0.0212867	6
	50	69	9.93114	40268.8	-96400.4	1	104473	-67.32852	7.162606E-010	0.0212804	5
	51	70	7.944915	51078.3	-113352.1	1	124329	-65.7429	-3.974639E-010	0.0212863	5
	52	72	6.317385	65057.74	-132175.6	1	147319	-63.79327	-2.83626E-010	0.0212938	5
	53	74	5.008013	82314.83	-153221.5	1	173932.6	-61.75407	1.510139E-010	0.0212929	5
	54	77	3.945707	103706.3	-176577.7	1	204779.6	-59.57375	-1.047452E-009	0.0212852	5
	55	79	3.158693	127143.5	-199243.9	1	236354.9	-57.45683	-5.73755E-010	0.0212789	5
	56	82	2.504006	154160.9	-224058.8	1	271970.4	-55.47056	-2.979055E-010	0.0212931	5
	57	85	1.998082	183504.8	-249482.5	1	309702.3	-53.66396	-6.406477E-011	0.0213046	5
	58	88	1.584686	216247	-276398.3	1	350939.9	-51.96129	-5.296902E-010	0.0212526	5
	59	92	1.266892	250675.8	-306047.3	1	395605	-50.67994	-2.893326E-010	0.0213128	5
	60	96	0.999041	289631.2	-339710.5	1	446418.5	-49.54967	-9.797735E-010	0.0212492	5
