EXPLAIN
TAG	EISPOT
TITLE	LABEL	Potentiostatic EIS	Test &Identifier
DATE	LABEL	10/12/2019	Date
TIME	LABEL	9:02:46	Time
NOTES	NOTES	1	&Notes...
	
PSTAT	PSTAT	REF600-11020	Potentiostat
VDC	POTEN	0.00000E+000	T	DC &Voltage (V)
FREQINIT	QUANT	1.00000E+006	Initial Fre&q. (Hz)
FREQFINAL	QUANT	1.00000E+000	Final Fre&q. (Hz)
PTSPERDEC	QUANT	1.00000E+001	Points/&decade
VAC	QUANT	2.50000E+001	AC &Voltage (mV rms)
AREA	QUANT	1.00000E-002	&Area (cm^2)
CONDIT	TWOPARAM	T	5.00000E+000	0.00000E+000	Conditionin&g	Time(s)	E(V)
DELAY	TWOPARAM	T	5.00000E+000	0.00000E+000	Init. De&lay	Time(s)	Stab.(mV/s)
SPEED	SELECTOR	1	&Optimize for:
ZGUESS	QUANT	1.00000E+004	E&stimated Z (ohms)
OCVCURVE	TABLE	19
	Pt	T	Vf	Vm	Ach	Over
	#	s	V vs. Ref.	V	V	bits
	0	0.258333	1.07363E-002	1.07363E-002	5.26366E-004	...........
	1	0.516667	1.07416E-002	1.10086E-002	5.28500E-004	...........
	2	0.775	1.07734E-002	1.12605E-002	5.20533E-004	...........
	3	1.03333	1.08643E-002	1.15685E-002	5.27133E-004	...........
	4	1.29167	1.10299E-002	1.17751E-002	5.22200E-004	...........
	5	1.55	1.12532E-002	1.19835E-002	5.26400E-004	...........
	6	1.80833	1.14983E-002	1.21832E-002	5.17766E-004	...........
	7	2.06667	1.17369E-002	1.23916E-002	5.24266E-004	...........
	8	2.325	1.19597E-002	1.25898E-002	5.20666E-004	...........
	9	2.58333	1.21694E-002	1.27568E-002	5.20300E-004	...........
	10	2.84167	1.23690E-002	1.29060E-002	5.17933E-004	...........
	11	3.1	1.25591E-002	1.31822E-002	5.23766E-004	...........
	12	3.35833	1.27445E-002	1.32947E-002	5.28566E-004	...........
	13	3.61667	1.29306E-002	1.34777E-002	5.15233E-004	...........
	14	3.875	1.31151E-002	1.36710E-002	5.22666E-004	...........
	15	4.13333	1.32968E-002	1.39286E-002	5.30066E-004	...........
	16	4.39167	1.34851E-002	1.42051E-002	5.23733E-004	...........
	17	4.65	1.36920E-002	1.43938E-002	5.17933E-004	...........
	18	4.90833	1.39147E-002	1.44641E-002	5.17666E-004	...........
EOC	QUANT	0.0139147	Open Circuit (V)
PSTATMODEL	IQUANT	4	Pstat Model
PSTATSECTION	LABEL	REF600-11020	Pstat Section
PSTATSERIALNO	LABEL	11020	Pstat Serial Number
CTRLMODE	IQUANT	1	Control Mode
IESTAB	IQUANT	0	I/E Stability
CASPEED	IQUANT	1	Control Amp Speed
CONVENTION	IQUANT	1	Current Convention
ICHRANGE	IQUANT	2	Ich Range
ICHRANGEMODE	TOGGLE	F	Ich Auto Range
ICHOFFSETENABLE	TOGGLE	T	Ich Offset Enable
ICHOFFSET	QUANT	0	Ich Offset (V)
ICHFILTER	IQUANT	3	Ich Filter
VCHRANGE	IQUANT	2	Vch Range
VCHRANGEMODE	TOGGLE	F	Vch Auto Range
VCHOFFSETENABLE	TOGGLE	T	Vch Offset Enable
VCHOFFSET	QUANT	0	Vch Offset (V)
VCHFILTER	IQUANT	3	Vch Filter
ACHRANGE	IQUANT	2	Ach Range
ACHOFFSETENABLE	TOGGLE	F	Ach Offset Enable
ACHOFFSET	QUANT	0	Ach Offset (V)
ACHFILTER	IQUANT	3	Ach Filter
IERANGELOWERLIMIT	IQUANT	1	I/E Range Lower Limit
IERANGEMODE	TOGGLE	F	I/E AutoRange
IERANGE	IQUANT	6	I/E Range
POSFEEDENABLE	TOGGLE	F	Positive Feedback IR Comp
POSFEEDRESISTANCE	QUANT	0	Positive Feedback Resistance (ohm)
ACHSELECT	IQUANT	0	Ach Select
CABLEID	IQUANT	14	Cable ID
DCCALDATE	LABEL	8/19/2019	DC Calibration Date
ACCALDATE	LABEL	8/19/2019	AC Calibration Date
THERMOSELECT	IQUANT	1	Thermo Select
FRAMEWORKVERSION	QUANT	6.33	Framework Version
INSTRUMENTVERSION	LABEL	3.50	Instrument Version
ZCURVE	TABLE
	Pt	Time	Freq	Zreal	Zimag	Zsig	Zmod	Zphz	Idc	Vdc	IERange
	#	s	Hz	ohm	ohm	V	ohm	°	A	V	#
	0	2	1000078	2260.652	-1085.63	1	2507.816	-25.65165	1.107904E-006	0.0162429	8
	1	4	794390.6	2413.812	-984.183	1	2606.742	-22.18217	6.268097E-006	0.0144726	8
	2	5	630984.4	2557.257	-872.0919	1	2701.871	-18.83073	-2.519028E-006	0.0157156	8
	3	6	501234.4	2674.668	-762.616	1	2781.264	-15.9142	-4.824786E-007	0.0159276	8
	4	8	398109.4	2762.927	-654.7706	1	2839.453	-13.33225	-1.569831E-006	0.0159463	8
	5	9	316265.6	2830.617	-570.3644	1	2887.51	-11.39245	6.057939E-007	0.0156001	8
	6	10	251203.1	2878.202	-496.0643	1	2920.638	-9.77898	5.019851E-006	0.0144773	8
	7	12	199546.9	2921.827	-437.1281	1	2954.345	-8.508789	1.67254E-006	0.0151786	8
	8	13	158578.1	2949.327	-391.1647	1	2975.153	-7.55496	-2.031863E-006	0.0161176	8
	9	14	125953.1	2996.174	-320.198	1	3013.235	-6.099989	1.328063E-006	0.0130466	7
	10	16	100078.1	3026.119	-307.4507	1	3041.697	-5.801289	-4.155017E-008	0.0156373	7
	11	17	79453.13	3051.538	-302.8366	1	3066.528	-5.667514	5.985962E-009	0.0156373	7
	12	18	63140.62	3079.351	-307.0926	1	3094.625	-5.695073	5.944013E-008	0.0154422	7
	13	20	50203.12	3108.647	-315.7109	1	3124.637	-5.799016	1.419647E-008	0.0155103	7
	14	21	39890.62	3139.427	-330.4853	1	3156.775	-6.009353	-1.031471E-008	0.0155747	7
	15	22	31640.63	3172.842	-353.0282	1	3192.421	-6.348937	-1.158516E-008	0.0155741	7
	16	24	25171.88	3208.909	-381.5338	1	3231.512	-6.780537	1.321822E-008	0.0155086	7
	17	25	20015.62	3256.85	-413.1137	1	3282.946	-7.229053	9.679991E-008	0.0154586	7
	18	26	15890.62	3292.389	-463.4671	1	3324.85	-8.012833	1.324786E-008	0.0155093	7
	19	28	12609.37	3340.406	-516.8252	1	3380.151	-8.795025	6.079655E-008	0.0154325	7
	20	29	10078.13	3392.929	-579.6205	1	3442.082	-9.69437	1.231691E-007	0.0153533	7
	21	31	8015.625	3448.489	-646.0429	1	3508.482	-10.61085	1.227628E-007	0.0153499	7
	22	32	6328.125	3523.002	-741.7645	1	3600.244	-11.8899	7.960226E-008	0.0153784	7
	23	33	5015.625	3597.737	-844.2042	1	3695.455	-13.20547	1.235145E-007	0.015352	7
	24	35	3984.375	3679.053	-957.585	1	3801.631	-14.58927	-7.338426E-008	0.0156322	7
	25	36	3170.956	3770.414	-1100.618	1	3927.77	-16.273	-6.481117E-008	0.0156587	7
	26	37	2527.573	3866.831	-1262.582	1	4067.739	-18.08268	-3.789188E-008	0.0156215	7
	27	39	1976.103	3980.262	-1469.455	1	4242.851	-20.26341	-1.226024E-008	0.0155844	7
	28	40	1577.524	4065.029	-1697.761	1	4405.321	-22.66788	-1.269314E-008	0.0155857	7
	29	41	1265.625	4206.212	-1967.738	1	4643.729	-25.071	1.373078E-008	0.0154981	7
	30	43	998.264	4337.509	-2318.495	1	4918.272	-28.12549	-7.092364E-008	0.015626	7
	31	44	796.875	4465.738	-2729.599	1	5233.882	-31.43458	-5.393783E-008	0.0155977	7
	32	45	627.7902	4609.271	-3269.269	1	5650.974	-35.34736	1.228024E-007	0.0153427	7
	33	47	505.5147	4759.011	-3875.704	1	6137.529	-39.15912	-5.408941E-008	0.0155964	7
	34	48	397.9953	4941.129	-4712.899	1	6828.336	-43.64573	6.09046E-009	0.0155387	7
	35	49	315.5048	5145.294	-5724.321	1	7696.876	-48.04927	6.179074E-009	0.01554	7
	36	51	252.4038	5378.652	-6926.544	1	8769.658	-52.16968	4.659379E-009	0.015536	7
	37	52	198.6229	5686.062	-8525.919	1	10248.05	-56.30009	7.7361E-010	0.0154762	6
	38	53	158.3615	6046.859	-10399.73	1	12029.92	-59.82441	3.603184E-011	0.0154726	6
	39	55	125.558	6511.021	-12758.28	1	14323.65	-62.9631	5.349166E-010	0.0154759	6
	40	56	100.4464	7067.537	-15551.49	1	17082.13	-65.56009	9.388976E-011	0.0154715	6
	41	58	79.00281	7822.992	-19216.5	1	20747.84	-67.84887	5.818507E-011	0.0154711	6
	42	59	63.3446	8769.313	-23515.36	1	25097.27	-69.54858	-9.67907E-011	0.0154728	6
	43	60	49.86702	9941.3	-28739.03	1	30409.89	-70.91866	1.180645E-010	0.0154741	6
	44	62	39.72458	11633.46	-35109.04	1	36986.24	-71.66726	7.196446E-011	0.0154753	6
	45	63	31.6723	13603.72	-42706.89	1	44821.2	-72.3314	1.07968E-009	0.0154788	6
	46	64	24.93351	16415.71	-52488.27	1	54995.39	-72.63293	3.304315E-010	0.0154734	6
	47	66	19.86229	19692.56	-63674.97	1	66650.57	-72.8149	-8.626008E-011	0.0154692	6
	48	67	15.83615	23855.38	-76953.87	1	80566.6	-72.77678	7.720681E-010	0.0154747	6
	49	69	12.40079	30186.88	-94163.8	1	98884.1	-72.22527	1.317802E-009	0.0154716	6
	50	70	9.93114	36776.39	-112923	1	118760.7	-71.96077	5.112376E-010	0.0154758	5
	51	72	7.944915	45181.68	-135002.5	1	142362.5	-71.496	-3.890127E-010	0.0154735	5
	52	73	6.317385	55942.66	-161917.3	1	171309	-70.93989	-2.064535E-010	0.0154741	5
	53	75	5.008013	69573.54	-194237.8	1	206322	-70.29311	-9.719539E-011	0.0154724	5
	54	78	3.945707	86833.59	-233092.5	1	248741.2	-69.56821	2.686623E-010	0.0154842	5
	55	80	3.158693	106888.6	-276246.2	1	296204.6	-68.84693	-1.729415E-010	0.0154761	5
	56	84	2.504006	132278.4	-327922.3	1	353596.7	-68.03168	1.535702E-010	0.0154692	5
	57	86	1.998082	161975.2	-386311.8	1	418894.7	-67.25237	-1.343224E-010	0.0155094	5
	58	90	1.584686	198164.1	-457053.4	1	498163.4	-66.55994	4.232931E-011	0.0155088	5
	59	93	1.266892	241501.3	-535088.4	1	587062.6	-65.70893	-1.966795E-010	0.0155098	5
	60	97	0.999041	294473	-632711.8	1	697881.4	-65.04207	5.300702E-010	0.0154646	5
