EXPLAIN
TAG	EISPOT
TITLE	LABEL	Potentiostatic EIS	Test &Identifier
DATE	LABEL	10/24/2019	Date
TIME	LABEL	10:11:40	Time
NOTES	NOTES	1	&Notes...
	
PSTAT	PSTAT	REF600-11020	Potentiostat
VDC	POTEN	0.00000E+000	T	DC &Voltage (V)
FREQINIT	QUANT	1.00000E+006	Initial Fre&q. (Hz)
FREQFINAL	QUANT	1.00000E+000	Final Fre&q. (Hz)
PTSPERDEC	QUANT	1.00000E+001	Points/&decade
VAC	QUANT	2.50000E+001	AC &Voltage (mV rms)
AREA	QUANT	1.00000E-002	&Area (cm^2)
CONDIT	TWOPARAM	T	5.00000E+000	0.00000E+000	Conditionin&g	Time(s)	E(V)
DELAY	TWOPARAM	T	5.00000E+000	0.00000E+000	Init. De&lay	Time(s)	Stab.(mV/s)
SPEED	SELECTOR	1	&Optimize for:
ZGUESS	QUANT	1.00000E+005	E&stimated Z (ohms)
OCVCURVE	TABLE	19
	Pt	T	Vf	Vm	Ach	Over
	#	s	V vs. Ref.	V	V	bits
	0	0.258333	9.65867E-002	9.65867E-002	5.52632E-004	...........
	1	0.516667	9.43980E-002	-1.79811E-002	5.52266E-004	...........
	2	0.775	8.40025E-002	3.27755E-002	5.52699E-004	.........v.
	3	1.03333	6.44066E-002	6.54893E-002	5.52999E-004	...........
	4	1.29167	4.89389E-002	1.66608E-001	5.53799E-004	...........
	5	1.55	5.18672E-002	1.97388E-002	5.49266E-004	...........
	6	1.80833	6.63072E-002	3.27755E-002	5.52632E-004	.........v.
	7	2.06667	7.29611E-002	9.29478E-002	5.48366E-004	...........
	8	2.325	6.89982E-002	8.66221E-002	5.47933E-004	...........
	9	2.58333	6.37090E-002	-8.71149E-002	5.46099E-004	...........
	10	2.84167	5.43874E-002	5.34836E-002	5.54133E-004	...........
	11	3.1	3.69358E-002	3.06850E-002	5.49099E-004	...........
	12	3.35833	2.26792E-002	4.83680E-002	5.47866E-004	...........
	13	3.61667	2.19038E-002	5.84270E-002	5.49466E-004	...........
	14	3.875	3.05410E-002	2.68029E-002	5.50499E-004	...........
	15	4.13333	3.95482E-002	6.31848E-002	5.57066E-004	...........
	16	4.39167	4.45172E-002	3.35644E-002	5.54999E-004	...........
	17	4.65	4.59924E-002	4.42119E-002	5.53133E-004	...........
	18	4.90833	4.56572E-002	5.20717E-002	5.52366E-004	...........
EOC	QUANT	0.0456572	Open Circuit (V)
PSTATMODEL	IQUANT	4	Pstat Model
PSTATSECTION	LABEL	REF600-11020	Pstat Section
PSTATSERIALNO	LABEL	11020	Pstat Serial Number
CTRLMODE	IQUANT	1	Control Mode
IESTAB	IQUANT	0	I/E Stability
CASPEED	IQUANT	1	Control Amp Speed
CONVENTION	IQUANT	1	Current Convention
ICHRANGE	IQUANT	2	Ich Range
ICHRANGEMODE	TOGGLE	F	Ich Auto Range
ICHOFFSETENABLE	TOGGLE	T	Ich Offset Enable
ICHOFFSET	QUANT	0	Ich Offset (V)
ICHFILTER	IQUANT	3	Ich Filter
VCHRANGE	IQUANT	2	Vch Range
VCHRANGEMODE	TOGGLE	F	Vch Auto Range
VCHOFFSETENABLE	TOGGLE	T	Vch Offset Enable
VCHOFFSET	QUANT	0	Vch Offset (V)
VCHFILTER	IQUANT	3	Vch Filter
ACHRANGE	IQUANT	2	Ach Range
ACHOFFSETENABLE	TOGGLE	F	Ach Offset Enable
ACHOFFSET	QUANT	0	Ach Offset (V)
ACHFILTER	IQUANT	3	Ach Filter
IERANGELOWERLIMIT	IQUANT	1	I/E Range Lower Limit
IERANGEMODE	TOGGLE	F	I/E AutoRange
IERANGE	IQUANT	5	I/E Range
POSFEEDENABLE	TOGGLE	F	Positive Feedback IR Comp
POSFEEDRESISTANCE	QUANT	0	Positive Feedback Resistance (ohm)
ACHSELECT	IQUANT	0	Ach Select
CABLEID	IQUANT	14	Cable ID
DCCALDATE	LABEL	8/19/2019	DC Calibration Date
ACCALDATE	LABEL	8/19/2019	AC Calibration Date
THERMOSELECT	IQUANT	1	Thermo Select
FRAMEWORKVERSION	QUANT	6.33	Framework Version
INSTRUMENTVERSION	LABEL	3.50	Instrument Version
ZCURVE	TABLE
	Pt	Time	Freq	Zreal	Zimag	Zsig	Zmod	Zphz	Idc	Vdc	IERange
	#	s	Hz	ohm	ohm	V	ohm	°	A	V	#
	0	2	1000078	704.9858	-8415.443	1	8444.921	-85.21135	-1.956379E-006	0.0487843	8
	1	4	794390.6	904.3369	-10544.1	1	10582.81	-85.0979	3.951274E-007	0.0477267	8
	2	6	630984.4	1036.898	-13154.55	1	13195.36	-85.49302	-1.067947E-006	0.0478685	8
	3	7	501234.4	1218.722	-16321.52	1	16366.96	-85.72967	-8.758336E-008	0.0473916	8
	4	9	398109.4	1546.931	-20505.53	1	20563.8	-85.6858	9.082174E-007	0.0472972	8
	5	10	316265.6	1545.858	-25396.92	1	25443.92	-86.51682	-2.855393E-007	0.0472928	8
	6	12	251203.1	1760.92	-31584.72	1	31633.77	-86.80894	9.898465E-007	0.0470228	8
	7	14	199546.9	2259.343	-39613.14	1	39677.52	-86.73566	8.113885E-007	0.0471494	8
	8	15	158578.1	2819.822	-49938.93	1	50018.48	-86.7682	1.248329E-006	0.0470069	8
	9	17	125953.1	4046.257	-61062.33	1	61196.25	-86.20888	-1.064932E-007	0.0475674	7
	10	18	100078.1	4882.346	-77938.95	1	78091.72	-86.41549	6.852965E-009	0.0473651	7
	11	20	79453.13	5793.508	-97172.5	1	97345.1	-86.58802	4.799794E-009	0.0472868	7
	12	22	63140.62	7500.427	-121477.9	1	121709.2	-86.46687	-6.542642E-008	0.0473489	7
	13	24	50203.12	8696.831	-151898.6	1	152147.4	-86.72315	-3.409524E-008	0.0472659	7
	14	25	39890.62	10845.83	-189554.6	1	189864.6	-86.72525	5.494538E-008	0.0471878	7
	15	27	31640.63	13070.08	-237262.5	1	237622.2	-86.84693	-2.27229E-008	0.0472876	7
	16	28	25171.88	14863.57	-296201.8	1	296574.5	-87.12727	-3.372241E-008	0.0472648	7
	17	30	20015.62	-99009.1	-362131.9	1	375422.9	-105.2913	-5.54005E-008	0.0472976	7
	18	31	15890.62	30363.35	-465148.5	1	466138.5	-86.26522	8.579949E-008	0.0470706	7
	19	33	12609.37	40198.12	-583250.3	1	584633.9	-86.05736	1.845551E-008	0.0468544	6
	20	35	10078.13	48576.68	-715761.1	1	717407.6	-86.11745	7.304367E-010	0.0471259	6
	21	36	8015.625	-6013.482	-905221	1	905241	-90.38062	7.694723E-009	0.0470036	6
	22	38	6328.125	80671.52	-1122597	1	1125492	-85.8897	-1.762004E-010	0.0473001	6
	23	40	5015.625	77427.1	-1405145	1	1407277	-86.84605	3.092637E-009	0.0469781	6
	24	41	3984.375	315565.7	-1641322	1	1671383	-79.11694	3.793711E-009	0.0469767	6
	25	43	3170.956	78020.77	-2184544	1	2185937	-87.95456	4.078802E-009	0.0472674	6
	26	45	2527.573	214452.6	-2735503	1	2743896	-85.5174	-1.197263E-008	0.0472824	6
	27	47	1976.103	249445.2	-3385499	1	3394677	-85.78603	-1.275435E-008	0.0472786	6
	28	48	1577.524	-1288482	-717260.4	1	1474669	-150.8966	3.377167E-010	0.0472995	6
	29	50	1265.625	288991.8	-5146898	1	5155005	-86.78629	2.264717E-009	0.0468406	5
	30	52	998.264	822928	-6486439	1	6538433	-82.76957	4.885042E-010	0.047222	5
	31	53	796.875	1281695	-9.744313E+006	1	9.828244E+006	-82.50675	6.739656E-009	0.0472681	6
	32	55	627.7902	1339128	-1.015198E+007	1	1.023992E+007	-82.48561	-9.27486E-010	0.0471447	5
	33	57	505.5147	2208717	-1.218984E+007	1	1.238833E+007	-79.72982	-7.830136E-010	0.0473324	5
	34	59	397.9953	208822.7	-1.597612E+007	1	1.597748E+007	-89.25114	1.288759E-010	0.0472077	5
	35	60	315.5048	4520558	-1.84109E+007	1	1.895776E+007	-76.20468	2.510386E-010	0.0472078	5
	36	62	252.4038	-756804.7	-3.087411E+007	1	3.088338E+007	-91.40419	1.522063E-010	0.0472068	5
	37	63	198.6229	1693995	-2.862948E+007	1	2.867956E+007	-86.61378	-1.235227E-010	0.0472049	5
	38	65	158.3615	1.107451E+007	-2.638056E+007	1	2.861081E+007	-67.22742	2.85596E-010	0.047205	5
	39	66	125.558	1999763	-4.218994E+007	1	4.22373E+007	-87.28626	4.48805E-010	0.0472022	4
	40	68	100.4464	2.885256E+007	-7.768302E+007	1	8.28681E+007	-69.6243	3.454323E-011	0.0472031	4
	41	70	79.00281	3.199747E+007	3.877396E+007	1	5.027184E+007	50.4695	4.409313E-010	0.0472062	5
	42	71	63.3446	4849040	-118961.3	1	4850499	-1.405353	2.343051E-010	0.047204	4
	43	73	49.86702	2.397E+007	3.994544E+007	1	4.658539E+007	59.03336	-5.870535E-011	0.0472066	4
	44	75	39.72458	-3.775622E+007	-3.01603E+007	1	4.832366E+007	-141.3815	1.609418E-010	0.0472044	4
	45	76	31.6723	2.523691E+007	-6806832	1	2.613876E+007	-15.09448	4.867134E-010	0.0472073	4
	46	78	24.93351	-3938985	-1.179888E+008	1	1.180546E+008	-91.91207	-1.07708E-010	0.0472047	4
	47	80	19.86229	1.174866E+008	-1.552248E+007	1	1.185076E+008	-7.526398	9.424151E-010	0.0471955	4
	48	81	15.83615	-9.707357E+006	-1.003194E+007	1	1.395968E+007	-134.058	1.879037E-009	0.0471951	4
	49	83	12.40079	7699465	1.32666E+007	1	1.533898E+007	59.87064	-1.681568E-009	0.0472174	4
	50	85	9.93114	-1.646203E+007	-2.114241E+008	1	2.12064E+008	-94.45222	5.677665E-010	0.0472022	4
	51	87	7.944915	3.656388E+007	3.37551E+007	1	4.976268E+007	42.71262	-2.146351E-009	0.0472214	4
	52	89	6.317385	1.654266E+008	-2.023809E+008	1	2.613886E+008	-50.73736	1.46151E-010	0.0472	4
	53	92	5.008013	1.62587E+008	-6.73725E+007	1	1.759931E+008	-22.50805	4.021793E-010	0.0471971	4
	54	95	3.945707	1.055434E+009	2.698336E+009	1	2.897405E+009	68.63743	1.990667E-010	0.04721	4
	55	98	3.158693	3.378811E+008	-5.450172E+007	1	3.422486E+008	-9.163135	8.251069E-011	0.0472108	4
	56	103	2.504006	9.65842E+008	-2.462686E+008	1	9.967443E+008	-14.30437	5.038108E-011	0.0471913	3
	57	107	1.998082	1.040499E+009	-4.830898E+007	1	1.04162E+009	-2.658256	1.66744E-010	0.0472057	3
	58	112	1.584686	9.350813E+008	-1.793735E+008	1	9.521302E+008	-10.85895	7.157354E-011	0.0471441	3
	59	118	1.266892	8.38516E+009	-2.827574E+009	1	8.849073E+009	-18.63471	-1.806325E-012	0.047167	2
	60	126	0.999041	8.060171E+009	-2.126622E+009	1	8.335999E+009	-14.78028	-2.478568E-012	0.0472442	2
