EXPLAIN
TAG	EISPOT
TITLE	LABEL	Potentiostatic EIS	Test &Identifier
DATE	LABEL	8/14/2018	Date
TIME	LABEL	5:47:05	Time
NOTES	NOTES	1	&Notes...
	
PSTAT	PSTAT	REF600-11020	Potentiostat
VDC	POTEN	0.00000E+000	T	DC &Voltage (V)
FREQINIT	QUANT	1.00000E+006	Initial Fre&q. (Hz)
FREQFINAL	QUANT	1.00000E+000	Final Fre&q. (Hz)
PTSPERDEC	QUANT	1.00000E+001	Points/&decade
VAC	QUANT	2.50000E+001	AC &Voltage (mV rms)
AREA	QUANT	1.00000E-002	&Area (cm^2)
CONDIT	TWOPARAM	T	5.00000E+000	0.00000E+000	Conditionin&g	Time(s)	E(V)
DELAY	TWOPARAM	T	5.00000E+000	0.00000E+000	Init. De&lay	Time(s)	Stab.(mV/s)
SPEED	SELECTOR	0	&Optimize for:
ZGUESS	QUANT	1.00000E+005	E&stimated Z (ohms)
OCVCURVE	TABLE	19
	Pt	T	Vf	Vm	Ach	Over
	#	s	V vs. Ref.	V	V	bits
	0	0.258333	2.87933E-002	2.87933E-002	5.63999E-004	...........
	1	0.516667	2.88336E-002	3.09042E-002	5.57432E-004	...........
	2	0.775	2.90813E-002	3.29060E-002	5.62432E-004	...........
	3	1.03333	2.97812E-002	3.47938E-002	5.60232E-004	...........
	4	1.29167	3.10308E-002	3.65998E-002	5.64799E-004	...........
	5	1.55	3.26871E-002	3.83193E-002	5.57833E-004	...........
	6	1.80833	3.45168E-002	3.99728E-002	5.55933E-004	...........
	7	2.06667	3.63502E-002	4.15530E-002	5.55266E-004	...........
	8	2.325	3.81125E-002	4.30738E-002	5.63332E-004	...........
	9	2.58333	3.97881E-002	4.45274E-002	5.60599E-004	...........
	10	2.84167	4.13840E-002	4.59257E-002	5.60999E-004	...........
	11	3.1	4.29101E-002	4.72774E-002	5.60066E-004	...........
	12	3.35833	4.43737E-002	4.85740E-002	5.64299E-004	...........
	13	3.61667	4.57806E-002	4.98266E-002	5.66132E-004	...........
	14	3.875	4.71348E-002	5.10407E-002	5.63966E-004	...........
	15	4.13333	4.84399E-002	5.22079E-002	5.64632E-004	...........
	16	4.39167	4.96989E-002	5.33393E-002	5.63532E-004	...........
	17	4.65	5.09147E-002	5.44412E-002	5.65999E-004	...........
	18	4.90833	5.20899E-002	5.55051E-002	5.66966E-004	...........
EOC	QUANT	0.0520899	Open Circuit (V)
PSTATMODEL	IQUANT	4	Pstat Model
PSTATSECTION	LABEL	REF600-11020	Pstat Section
PSTATSERIALNO	LABEL	11020	Pstat Serial Number
CTRLMODE	IQUANT	1	Control Mode
IESTAB	IQUANT	0	I/E Stability
CASPEED	IQUANT	1	Control Amp Speed
CONVENTION	IQUANT	1	Current Convention
ICHRANGE	IQUANT	2	Ich Range
ICHRANGEMODE	TOGGLE	F	Ich Auto Range
ICHOFFSETENABLE	TOGGLE	T	Ich Offset Enable
ICHOFFSET	QUANT	0	Ich Offset (V)
ICHFILTER	IQUANT	3	Ich Filter
VCHRANGE	IQUANT	2	Vch Range
VCHRANGEMODE	TOGGLE	F	Vch Auto Range
VCHOFFSETENABLE	TOGGLE	T	Vch Offset Enable
VCHOFFSET	QUANT	0	Vch Offset (V)
VCHFILTER	IQUANT	3	Vch Filter
ACHRANGE	IQUANT	2	Ach Range
ACHOFFSETENABLE	TOGGLE	F	Ach Offset Enable
ACHOFFSET	QUANT	0	Ach Offset (V)
ACHFILTER	IQUANT	3	Ach Filter
IERANGELOWERLIMIT	IQUANT	1	I/E Range Lower Limit
IERANGEMODE	TOGGLE	F	I/E AutoRange
IERANGE	IQUANT	5	I/E Range
POSFEEDENABLE	TOGGLE	F	Positive Feedback IR Comp
POSFEEDRESISTANCE	QUANT	0	Positive Feedback Resistance (ohm)
ACHSELECT	IQUANT	0	Ach Select
CABLEID	IQUANT	14	Cable ID
DCCALDATE	LABEL	8/19/2019	DC Calibration Date
ACCALDATE	LABEL	8/19/2019	AC Calibration Date
THERMOSELECT	IQUANT	1	Thermo Select
FRAMEWORKVERSION	QUANT	6.33	Framework Version
INSTRUMENTVERSION	LABEL	3.50	Instrument Version
ZCURVE	TABLE
	Pt	Time	Freq	Zreal	Zimag	Zsig	Zmod	Zphz	Idc	Vdc	IERange
	#	s	Hz	ohm	ohm	V	ohm	°	A	V	#
	0	1	1000078	2323.069	-1885.615	1	2992.021	-39.06594	4.419192E-006	0.0524705	8
	1	1	794390.6	2665.002	-1936.301	1	3294.161	-36.00089	-3.976687E-006	0.0546328	8
	2	2	630984.4	3039.771	-1962.113	1	3618.024	-32.84146	1.084587E-006	0.0535317	8
	3	2	501234.4	3424.696	-1930.985	1	3931.57	-29.4161	-6.23257E-006	0.0548267	8
	4	2	398109.4	3751.875	-1874.925	1	4194.271	-26.55268	-2.038998E-006	0.0540709	8
	5	3	316265.6	4081.478	-1773.672	1	4450.21	-23.48813	1.259665E-006	0.053494	8
	6	3	251203.1	4405.435	-1628.103	1	4696.656	-20.28265	-2.72155E-006	0.0540674	8
	7	3	199546.9	4628.282	-1471.025	1	4856.429	-17.63202	-1.260542E-006	0.0540576	8
	8	4	158578.1	4826.462	-1333.675	1	5007.337	-15.44684	4.505513E-006	0.0527377	8
	9	4	125953.1	5073.258	-1071.196	1	5185.114	-11.92263	1.607241E-006	0.049953	7
	10	4	100078.1	5180.24	-950.77	1	5266.768	-10.4002	4.091729E-008	0.0533824	7
	11	4	79453.13	5280.337	-839.9097	1	5346.719	-9.03796	-2.030512E-008	0.0534766	7
	12	5	63140.62	5359.838	-752.6008	1	5412.418	-7.99292	-2.311958E-008	0.0534804	7
	13	5	50203.12	5432.422	-687.0743	1	5475.699	-7.208303	-6.823353E-008	0.0535606	7
	14	5	39890.62	5491.983	-638.04	1	5528.921	-6.626722	-7.373115E-008	0.0536105	7
	15	6	31640.63	5544.099	-607.5498	1	5577.289	-6.253801	1.214423E-007	0.0533991	7
	16	6	25171.88	5591.604	-591.8418	1	5622.838	-6.04196	-4.763852E-008	0.0535291	7
	17	6	20015.62	5638.18	-596.9049	1	5669.689	-6.0433	-2.406189E-008	0.0534698	7
	18	7	15890.62	5687.24	-617.5435	1	5720.669	-6.197128	1.204141E-007	0.0533959	7
	19	7	12609.37	5728.117	-662.941	1	5766.352	-6.60173	-1.341199E-008	0.0535775	7
	20	7	10078.13	5758.385	-685.7953	1	5799.079	-6.791656	5.159531E-008	0.0534484	7
	21	8	8015.625	5825.496	-810.7412	1	5881.642	-7.92303	-6.923525E-008	0.0536655	7
	22	8	6328.125	5872.688	-922.5577	1	5944.709	-8.927798	1.291777E-007	0.0533154	7
	23	8	5015.625	5919.696	-1073.417	1	6016.23	-10.27776	9.310351E-008	0.0534758	8
	24	9	3984.375	5990.278	-1265.359	1	6122.464	-11.92756	-1.956282E-008	0.0534625	7
	25	9	3170.956	6056.458	-1489.719	1	6236.982	-13.81883	2.753684E-008	0.0535973	7
	26	9	2527.573	6130.68	-1776.475	1	6382.876	-16.1599	-9.23423E-008	0.0537904	7
	27	10	1976.103	6223.901	-2160.808	1	6588.326	-19.14593	-1.31315E-008	0.0534954	7
	28	10	1577.524	6356.842	-2588.97	1	6863.833	-22.15974	-6.825948E-008	0.0536651	7
	29	10	1265.625	6434.425	-3128.813	1	7154.809	-25.93187	9.463177E-008	0.0533061	7
	30	11	998.264	6583.694	-3827.832	1	7615.597	-30.17419	-2.120283E-008	0.0534622	7
	31	11	796.875	6750.452	-4642.491	1	8192.761	-34.51748	-2.246247E-008	0.0534628	7
	32	11	627.7902	6964.408	-5717.699	1	9010.83	-39.3856	-1.604222E-008	0.0535214	7
	33	12	505.5147	7220.43	-6900.015	1	9987.23	-43.70009	1.115698E-008	0.0533725	6
	34	12	397.9953	7555.338	-8512.679	1	11381.95	-48.40968	-1.948099E-009	0.0534682	6
	35	12	315.5048	7974.249	-10449.45	1	13144.57	-52.65179	-2.519437E-009	0.0534688	6
	36	13	252.4038	8491.532	-12728.24	1	15300.79	-56.29112	-1.191439E-009	0.0534694	6
	37	13	198.6229	9221.345	-15727.96	1	18231.89	-59.61679	-2.10171E-009	0.0534659	6
	38	13	158.3615	10141.29	-19198.07	1	21712.01	-62.15497	-2.773236E-009	0.0534665	6
	39	14	125.558	11394.88	-23510.79	1	26126.63	-64.14211	-1.835383E-009	0.0534687	6
	40	14	100.4464	13013.59	-28572.19	1	31396.23	-65.51247	-2.792467E-009	0.0534655	6
	41	14	79.00281	15305.38	-35126.02	1	38315.69	-66.45591	-1.739726E-009	0.053463	6
	42	15	63.3446	18241.88	-41396.29	1	45237.36	-66.21861	-1.999238E-009	0.05346	6
	43	15	49.86702	22491.02	-50575.81	1	55351.23	-66.02533	-1.771633E-009	0.0534589	6
	44	15	39.72458	27738.19	-60885.63	1	66906.41	-65.507	-1.965798E-009	0.0534643	6
	45	16	31.6723	34594.31	-72185.48	1	80046.92	-64.3943	-2.003969E-009	0.053463	6
	46	16	24.93351	43971.78	-84857.58	1	95573.7	-62.60756	-2.684722E-009	0.0534646	6
	47	16	19.86229	54630.67	-97854.4	1	112071.4	-60.82601	-3.453388E-009	0.0534666	5
	48	17	15.83615	67756.56	-112177.6	1	131052.5	-58.86754	-1.873723E-009	0.0534694	5
	49	17	12.40079	83958.54	-128941.7	1	153866.8	-56.93042	-2.118291E-009	0.0534702	5
	50	17	9.93114	98090.1	-143119.6	1	173507.6	-55.57438	-1.93156E-009	0.0534608	5
	51	18	7.944915	114632.4	-159483.1	1	196406.3	-54.29238	-2.619691E-009	0.0534704	5
	52	18	6.317385	132513.6	-178949.1	1	222671.6	-53.47969	-2.371077E-009	0.0534835	5
	53	19	5.008013	151937.3	-201470.6	1	252339.8	-52.97855	-1.934101E-009	0.0534674	5
	54	20	3.945707	172457	-228436.2	1	286224.6	-52.94916	-1.926319E-009	0.0534595	5
	55	22	3.158693	193351.6	-259079.8	1	323275.7	-53.26596	-1.229197E-009	0.0534705	5
	56	23	2.504006	217242.4	-297720.8	1	368553.8	-53.88233	-1.45154E-009	0.0534724	5
	57	25	1.998082	243625	-342927.2	1	420656.9	-54.60896	-1.583472E-009	0.0534264	5
	58	26	1.584686	273458.3	-397203.9	1	482234.8	-55.45421	-1.370016E-009	0.0534617	5
	59	28	1.266892	308891	-460416.8	1	554434.2	-56.14257	-1.233779E-009	0.0534959	5
	60	31	0.999041	353122.6	-541280.1	1	646281.4	-56.8802	-1.158145E-009	0.0535027	5
