EXPLAIN
TAG	EISPOT
TITLE	LABEL	Potentiostatic EIS	Test &Identifier
DATE	LABEL	10/22/2019	Date
TIME	LABEL	9:19:17	Time
NOTES	NOTES	1	&Notes...
	
PSTAT	PSTAT	REF600-11020	Potentiostat
VDC	POTEN	0.00000E+000	T	DC &Voltage (V)
FREQINIT	QUANT	1.00000E+006	Initial Fre&q. (Hz)
FREQFINAL	QUANT	1.00000E+000	Final Fre&q. (Hz)
PTSPERDEC	QUANT	1.00000E+001	Points/&decade
VAC	QUANT	2.50000E+001	AC &Voltage (mV rms)
AREA	QUANT	1.00000E-002	&Area (cm^2)
CONDIT	TWOPARAM	T	5.00000E+000	0.00000E+000	Conditionin&g	Time(s)	E(V)
DELAY	TWOPARAM	T	5.00000E+000	0.00000E+000	Init. De&lay	Time(s)	Stab.(mV/s)
SPEED	SELECTOR	1	&Optimize for:
ZGUESS	QUANT	1.00000E+005	E&stimated Z (ohms)
OCVCURVE	TABLE	19
	Pt	T	Vf	Vm	Ach	Over
	#	s	V vs. Ref.	V	V	bits
	0	0.258333	2.86946E-004	2.86946E-004	5.66166E-004	...........
	1	0.516667	2.72871E-004	-4.49850E-004	5.59432E-004	...........
	2	0.775	1.86183E-004	-1.16162E-003	5.55999E-004	...........
	3	1.03333	-6.15569E-005	-1.93159E-003	5.53333E-004	...........
	4	1.29167	-5.07890E-004	-2.36713E-003	5.62266E-004	...........
	5	1.55	-1.08570E-003	-2.49209E-003	5.63666E-004	...........
	6	1.80833	-1.66261E-003	-2.78599E-003	5.60699E-004	...........
	7	2.06667	-2.13961E-003	-3.21328E-003	5.59732E-004	...........
	8	2.325	-2.51519E-003	-3.57391E-003	5.64632E-004	...........
	9	2.58333	-2.85300E-003	-4.13197E-003	5.58932E-004	...........
	10	2.84167	-3.21208E-003	-4.52643E-003	5.54399E-004	...........
	11	3.1	-3.60846E-003	-4.68338E-003	5.56333E-004	...........
	12	3.35833	-4.00532E-003	-4.70774E-003	5.63899E-004	...........
	13	3.61667	-4.34072E-003	-4.93179E-003	5.64132E-004	...........
	14	3.875	-4.59051E-003	-5.31614E-003	5.60899E-004	...........
	15	4.13333	-4.79187E-003	-5.37352E-003	5.62932E-004	...........
	16	4.39167	-4.98943E-003	-5.57735E-003	5.64666E-004	...........
	17	4.65	-5.19277E-003	-5.92440E-003	5.56899E-004	...........
	18	4.90833	-5.40240E-003	-6.15613E-003	5.50699E-004	...........
EOC	QUANT	-0.0054024	Open Circuit (V)
PSTATMODEL	IQUANT	4	Pstat Model
PSTATSECTION	LABEL	REF600-11020	Pstat Section
PSTATSERIALNO	LABEL	11020	Pstat Serial Number
CTRLMODE	IQUANT	1	Control Mode
IESTAB	IQUANT	0	I/E Stability
CASPEED	IQUANT	1	Control Amp Speed
CONVENTION	IQUANT	1	Current Convention
ICHRANGE	IQUANT	2	Ich Range
ICHRANGEMODE	TOGGLE	F	Ich Auto Range
ICHOFFSETENABLE	TOGGLE	T	Ich Offset Enable
ICHOFFSET	QUANT	0	Ich Offset (V)
ICHFILTER	IQUANT	3	Ich Filter
VCHRANGE	IQUANT	2	Vch Range
VCHRANGEMODE	TOGGLE	F	Vch Auto Range
VCHOFFSETENABLE	TOGGLE	T	Vch Offset Enable
VCHOFFSET	QUANT	0	Vch Offset (V)
VCHFILTER	IQUANT	3	Vch Filter
ACHRANGE	IQUANT	2	Ach Range
ACHOFFSETENABLE	TOGGLE	F	Ach Offset Enable
ACHOFFSET	QUANT	0	Ach Offset (V)
ACHFILTER	IQUANT	3	Ach Filter
IERANGELOWERLIMIT	IQUANT	1	I/E Range Lower Limit
IERANGEMODE	TOGGLE	F	I/E AutoRange
IERANGE	IQUANT	5	I/E Range
POSFEEDENABLE	TOGGLE	F	Positive Feedback IR Comp
POSFEEDRESISTANCE	QUANT	0	Positive Feedback Resistance (ohm)
ACHSELECT	IQUANT	0	Ach Select
CABLEID	IQUANT	14	Cable ID
DCCALDATE	LABEL	8/19/2019	DC Calibration Date
ACCALDATE	LABEL	8/19/2019	AC Calibration Date
THERMOSELECT	IQUANT	1	Thermo Select
FRAMEWORKVERSION	QUANT	6.33	Framework Version
INSTRUMENTVERSION	LABEL	3.50	Instrument Version
ZCURVE	TABLE
	Pt	Time	Freq	Zreal	Zimag	Zsig	Zmod	Zphz	Idc	Vdc	IERange
	#	s	Hz	ohm	ohm	V	ohm	°	A	V	#
	0	2	1000078	2485.76	-2099.774	1	3253.93	-40.18849	2.851331E-007	-0.0035363	8
	1	3	794390.6	2915.383	-2117.124	1	3603.009	-35.98681	-8.708533E-007	-0.0032179	8
	2	5	630984.4	3338.215	-2078.015	1	3932.153	-31.90196	3.435557E-007	-0.0036685	8
	3	6	501234.4	3730.174	-1935.854	1	4202.586	-27.42803	1.818993E-006	-0.004057	8
	4	7	398109.4	4060.22	-1773.885	1	4430.807	-23.60022	-8.461535E-007	-0.0036066	8
	5	9	316265.6	4355.923	-1602.391	1	4641.306	-20.1968	1.332334E-006	-0.0042148	8
	6	10	251203.1	4586.66	-1374.199	1	4788.097	-16.67863	-2.889533E-006	-0.003312	8
	7	12	199546.9	4750.911	-1207.397	1	4901.935	-14.25928	-1.198391E-006	-0.0036774	8
	8	13	158578.1	4880.642	-1036.567	1	4989.503	-11.9905	-7.068606E-007	-0.0038799	8
	9	15	125953.1	5025.578	-849.6335	1	5096.893	-9.59579	-5.314608E-008	-0.0037692	7
	10	16	100078.1	5074.77	-731.2602	1	5127.186	-8.199719	-6.036528E-008	-0.0038042	7
	11	17	79453.13	5137.08	-651.0087	1	5178.166	-7.222445	-4.624859E-009	-0.0039832	7
	12	19	63140.62	5187.505	-588.0447	1	5220.728	-6.467323	-3.036898E-008	-0.0039887	7
	13	20	50203.12	5231.187	-540.6916	1	5259.056	-5.901094	7.361148E-009	-0.0040731	7
	14	22	39890.62	5271.535	-509.9307	1	5296.141	-5.525195	4.603049E-008	-0.004055	7
	15	23	31640.63	5310.909	-495.7985	1	5334.001	-5.333375	9.780784E-008	-0.0040723	7
	16	24	25171.88	5347.099	-494.1949	1	5369.888	-5.280446	-5.190319E-008	-0.0039622	7
	17	26	20015.62	5367.427	-516.0944	1	5392.182	-5.492279	-5.254704E-008	-0.003962	7
	18	27	15890.62	5420.593	-534.2303	1	5446.855	-5.628648	-5.352529E-008	-0.003962	7
	19	28	12609.37	5453.582	-578.6272	1	5484.192	-6.056446	6.274368E-008	-0.0041041	7
	20	30	10078.13	5491.853	-637.327	1	5528.71	-6.619538	-3.0083E-008	-0.0039872	7
	21	31	8015.625	5516.852	-727.7281	1	5564.643	-7.514503	-3.669172E-008	-0.0039853	7
	22	32	6328.125	5572.793	-828.7311	1	5634.076	-8.458477	-5.856034E-008	-0.0038176	7
	23	34	5015.625	5619.889	-968.213	1	5702.683	-9.77514	6.398449E-008	-0.0041061	7
	24	35	3984.375	5673.196	-1156.853	1	5789.945	-11.52549	-5.748364E-008	-0.0038229	7
	25	36	3170.956	5731.922	-1358.008	1	5890.595	-13.32877	-1.688123E-008	-0.0040419	7
	26	38	2527.573	5798.215	-1621.357	1	6020.64	-15.62261	-3.499285E-010	-0.0039815	7
	27	39	1976.103	5886.449	-1976.951	1	6209.559	-18.56451	-1.73549E-008	-0.0040355	7
	28	40	1577.524	5910.703	-2367.361	1	6367.166	-21.82714	-3.823181E-008	-0.0039953	7
	29	42	1265.625	6095	-2849.108	1	6728.034	-25.05375	-8.238032E-008	-0.0038748	7
	30	43	998.264	6233.263	-3471.609	1	7134.819	-29.11557	9.912645E-008	-0.0040793	7
	31	44	796.875	6392.717	-4203.767	1	7651.044	-33.3284	-1.539276E-008	-0.0040403	7
	32	46	627.7902	6583.141	-5145.084	1	8355.217	-38.00957	4.653385E-008	-0.0040634	7
	33	47	505.5147	6785.834	-6201.571	1	9192.771	-42.42418	-1.504614E-009	-0.0039976	7
	34	49	397.9953	7054.966	-7620.694	1	10384.97	-47.20758	5.218216E-010	-0.0040441	6
	35	50	315.5048	7361.035	-9338.935	1	11891.2	-51.75449	2.687112E-010	-0.0040444	6
	36	51	252.4038	7716.213	-11374.4	1	13744.71	-55.84766	1.363001E-009	-0.0040452	6
	37	53	198.6229	8190.729	-14080.64	1	16289.64	-59.81337	8.150753E-010	-0.0040482	6
	38	54	158.3615	8752.116	-17249.16	1	19342.52	-63.09705	7.185114E-010	-0.0040532	6
	39	55	125.558	9503.92	-21251.32	1	23279.67	-65.90505	1.049196E-009	-0.0040509	6
	40	57	100.4464	10427.96	-25947.81	1	27964.82	-68.10569	2.76229E-010	-0.004055	6
	41	58	79.00281	11741.81	-32287.31	1	34356.09	-70.01537	1.511206E-009	-0.0040572	6
	42	59	63.3446	13710.99	-39405.69	1	41722.89	-70.81495	1.25774E-009	-0.0040566	6
	43	61	49.86702	15426.19	-48759.41	1	51141.45	-72.44401	1.368224E-009	-0.0040569	6
	44	62	39.72458	18705.56	-59347.88	1	62225.95	-72.50593	6.47037E-010	-0.0040537	6
	45	64	31.6723	22580.16	-72417.28	1	75855.96	-72.6822	9.139466E-010	-0.0040579	6
	46	65	24.93351	28433.46	-88787.37	1	93229.06	-72.24274	3.629793E-010	-0.0040581	6
	47	66	19.86229	35983.4	-107424.9	1	113291.3	-71.48104	1.705341E-010	-0.0040519	5
	48	68	15.83615	46055.33	-128643.7	1	136639.3	-70.30228	3.040515E-010	-0.0040471	5
	49	69	12.40079	60084.5	-157316.5	1	168400.2	-69.09644	1.526766E-009	-0.004046	5
	50	70	9.93114	75205.66	-184705.4	1	199429.1	-67.84554	2.215224E-010	-0.0040561	5
	51	72	7.944915	96478.5	-216404.9	1	236937.1	-65.97153	-1.012273E-010	-0.0040559	5
	52	74	6.317385	122179.5	-252700.5	1	280687.2	-64.19646	2.215314E-010	-0.0040663	5
	53	76	5.008013	153660.4	-292765.8	1	330640.7	-62.30691	-1.052473E-010	-0.0040555	5
	54	78	3.945707	191834.5	-336713	1	387525.7	-60.32867	2.799621E-010	-0.0040485	5
	55	81	3.158693	232173	-381598.2	1	446678.2	-58.68272	-1.177027E-010	-0.0040673	5
	56	84	2.504006	278730.9	-432217.6	1	514298.5	-57.18261	4.25069E-010	-0.0040445	5
	57	87	1.998082	328626.7	-486722.7	1	587277.2	-55.97346	3.260069E-010	-0.0040278	5
	58	90	1.584686	384205.5	-547460.9	1	668825.4	-54.939	1.384946E-010	-0.004095	5
	59	94	1.266892	441557.9	-617617.3	1	759226.2	-54.43759	2.278894E-010	-0.004029	5
	60	98	0.999041	510225.9	-702603.4	1	868321.4	-54.0131	-1.673737E-010	-0.0040762	5
