EXPLAIN
TAG	EISPOT
TITLE	LABEL	Potentiostatic EIS	Test &Identifier
DATE	LABEL	11/22/2019	Date
TIME	LABEL	9:49:39	Time
NOTES	NOTES	4	&Notes...
	
	
	
	
PSTAT	PSTAT	REF600-11020	Potentiostat
VDC	POTEN	0.00000E+000	T	DC &Voltage (V)
FREQINIT	QUANT	1.00000E+006	Initial Fre&q. (Hz)
FREQFINAL	QUANT	1.00000E+000	Final Fre&q. (Hz)
PTSPERDEC	QUANT	1.00000E+001	Points/&decade
VAC	QUANT	2.50000E+001	AC &Voltage (mV rms)
AREA	QUANT	1.00000E-002	&Area (cm^2)
CONDIT	TWOPARAM	T	5.00000E+000	0.00000E+000	Conditionin&g	Time(s)	E(V)
DELAY	TWOPARAM	T	5.00000E+000	0.00000E+000	Init. De&lay	Time(s)	Stab.(mV/s)
SPEED	SELECTOR	0	&Optimize for:
ZGUESS	QUANT	1.00000E+005	E&stimated Z (ohms)
OCVCURVE	TABLE	19
	Pt	T	Vf	Vm	Ach	Over
	#	s	V vs. Ref.	V	V	bits
	0	0.258333	-9.78009E-005	-9.78009E-005	5.50699E-004	...........
	1	0.516667	-1.04622E-004	-4.54852E-004	5.48899E-004	...........
	2	0.775	-1.46349E-004	-7.85043E-004	5.53599E-004	...........
	3	1.03333	-2.63445E-004	-1.07981E-003	5.52599E-004	...........
	4	1.29167	-4.70081E-004	-1.36225E-003	5.45366E-004	...........
	5	1.55	-7.39586E-004	-1.62093E-003	5.52866E-004	...........
	6	1.80833	-1.03134E-003	-1.86074E-003	5.47999E-004	...........
	7	2.06667	-1.31685E-003	-2.09404E-003	5.46033E-004	...........
	8	2.325	-1.58460E-003	-2.31402E-003	5.50166E-004	...........
	9	2.58333	-1.83387E-003	-2.51983E-003	5.44866E-004	...........
	10	2.84167	-2.06754E-003	-2.71966E-003	5.49766E-004	...........
	11	3.1	-2.28828E-003	-2.91165E-003	5.50633E-004	...........
	12	3.35833	-2.49819E-003	-3.09776E-003	5.48766E-004	...........
	13	3.61667	-2.69894E-003	-3.27058E-003	5.54099E-004	...........
	14	3.875	-2.89142E-003	-3.44016E-003	5.43433E-004	...........
	15	4.13333	-3.07593E-003	-3.60404E-003	5.47499E-004	...........
	16	4.39167	-3.25290E-003	-3.76308E-003	5.41766E-004	...........
	17	4.65	-3.42321E-003	-3.91620E-003	5.40599E-004	...........
	18	4.90833	-3.58774E-003	-4.06865E-003	5.43966E-004	...........
EOC	QUANT	-0.0035877	Open Circuit (V)
PSTATMODEL	IQUANT	4	Pstat Model
PSTATSECTION	LABEL	REF600-11020	Pstat Section
PSTATSERIALNO	LABEL	11020	Pstat Serial Number
CTRLMODE	IQUANT	1	Control Mode
IESTAB	IQUANT	0	I/E Stability
CASPEED	IQUANT	1	Control Amp Speed
CONVENTION	IQUANT	1	Current Convention
ICHRANGE	IQUANT	2	Ich Range
ICHRANGEMODE	TOGGLE	F	Ich Auto Range
ICHOFFSETENABLE	TOGGLE	T	Ich Offset Enable
ICHOFFSET	QUANT	0	Ich Offset (V)
ICHFILTER	IQUANT	3	Ich Filter
VCHRANGE	IQUANT	2	Vch Range
VCHRANGEMODE	TOGGLE	F	Vch Auto Range
VCHOFFSETENABLE	TOGGLE	T	Vch Offset Enable
VCHOFFSET	QUANT	0	Vch Offset (V)
VCHFILTER	IQUANT	3	Vch Filter
ACHRANGE	IQUANT	2	Ach Range
ACHOFFSETENABLE	TOGGLE	F	Ach Offset Enable
ACHOFFSET	QUANT	0	Ach Offset (V)
ACHFILTER	IQUANT	3	Ach Filter
IERANGELOWERLIMIT	IQUANT	1	I/E Range Lower Limit
IERANGEMODE	TOGGLE	F	I/E AutoRange
IERANGE	IQUANT	4	I/E Range
POSFEEDENABLE	TOGGLE	F	Positive Feedback IR Comp
POSFEEDRESISTANCE	QUANT	0	Positive Feedback Resistance (ohm)
ACHSELECT	IQUANT	0	Ach Select
CABLEID	IQUANT	14	Cable ID
DCCALDATE	LABEL	8/19/2019	DC Calibration Date
ACCALDATE	LABEL	8/19/2019	AC Calibration Date
THERMOSELECT	IQUANT	1	Thermo Select
FRAMEWORKVERSION	QUANT	6.33	Framework Version
INSTRUMENTVERSION	LABEL	3.50	Instrument Version
ZCURVE	TABLE
	Pt	Time	Freq	Zreal	Zimag	Zsig	Zmod	Zphz	Idc	Vdc	IERange
	#	s	Hz	ohm	ohm	V	ohm	°	A	V	#
	0	2	1000078	1987.586	-1147.058	1	2294.829	-29.98972	-3.088769E-006	-0.0016113	8
	1	2	794390.6	2197.362	-1064.55	1	2441.652	-25.84868	8.897725E-006	-0.0031057	8
	2	2	630984.4	2376.996	-978.522	1	2570.528	-22.37517	2.247196E-007	-0.0014426	8
	3	3	501234.4	2535.676	-880.3608	1	2684.155	-19.14648	-1.452555E-007	-0.0021979	8
	4	3	398109.4	2648.853	-773.8066	1	2759.565	-16.28461	-1.672218E-006	-0.002155	8
	5	3	316265.6	2747.46	-689.1715	1	2832.577	-14.0815	-5.901955E-006	-0.0010873	8
	6	4	251203.1	2824.603	-603.5685	1	2888.369	-12.06171	2.160553E-006	-0.0024116	8
	7	4	199546.9	2881.86	-539.6659	1	2931.954	-10.60654	6.816091E-006	-0.0027281	8
	8	4	158578.1	2935.01	-474.7668	1	2973.161	-9.188566	1.749076E-006	-0.0016842	8
	9	4	125953.1	2998.63	-387.1021	1	3023.513	-7.355802	-5.599086E-007	0.000931	7
	10	5	100078.1	3029.976	-355.1332	1	3050.717	-6.684945	-8.306921E-007	-0.0004142	7
	11	5	79453.13	3061.848	-338.9591	1	3080.553	-6.317155	-1.15378E-006	-0.0009515	7
	12	5	63140.62	3092.848	-333.6522	1	3110.793	-6.157177	-2.5552E-007	-0.0007408	7
	13	6	50203.12	3123.305	-331.7043	1	3140.87	-6.062258	-8.324627E-007	-0.0004233	7
	14	6	39890.62	3156.153	-337.9982	1	3174.2	-6.112613	8.69892E-008	-0.003266	7
	15	6	31640.63	3188.427	-350.9253	1	3207.68	-6.280819	4.347131E-007	-0.0035534	7
	16	7	25171.88	3217.027	-370.7225	1	3238.317	-6.573633	-1.155643E-006	-0.0009565	7
	17	7	20015.62	3256.053	-397.0904	1	3280.177	-6.953144	9.052241E-007	-0.0035878	7
	18	7	15890.62	3289.171	-438.8672	1	3318.32	-7.599968	7.127057E-007	-0.0036591	7
	19	8	12609.37	3324.353	-488.0229	1	3359.983	-8.351504	8.825808E-008	-0.0011227	7
	20	8	10078.13	3360.047	-548.5614	1	3404.532	-9.272307	8.879411E-008	-0.001126	7
	21	8	8015.625	3401.912	-623.0644	1	3458.499	-10.37876	4.375901E-007	-0.003558	7
	22	8	6328.125	3447.398	-723.7477	1	3522.551	-11.8565	1.034645E-006	-0.0031025	7
	23	9	5015.625	3493.384	-844.7318	1	3594.065	-13.5937	3.876426E-007	-0.001553	7
	24	9	3984.375	3549.21	-992.618	1	3685.402	-15.62487	9.618052E-007	-0.002716	7
	25	9	3170.956	3602.416	-1176.082	1	3789.534	-18.08033	-1.026492E-006	-0.0004782	7
	26	10	2527.573	3672.046	-1398.72	1	3929.42	-20.85236	8.832376E-008	-0.0032781	7
	27	10	1976.103	3753.59	-1694.543	1	4118.362	-24.2966	-9.982102E-007	-0.0015037	7
	28	10	1577.524	3865.277	-2015.928	1	4359.396	-27.54421	-1.026994E-006	-0.0004826	7
	29	11	1265.625	3950.679	-2427.99	1	4637.132	-31.57386	1.034612E-006	-0.003108	7
	30	11	998.264	4080.802	-2943.181	1	5031.427	-35.80013	5.936756E-007	-0.0018626	7
	31	11	796.875	4217.161	-3546.911	1	5510.447	-40.06605	7.946309E-007	-0.0022571	7
	32	12	627.7902	4395.726	-4324.398	1	6166.266	-44.53135	-2.549748E-007	-0.000757	7
	33	12	505.5147	4578.162	-5198.857	1	6927.314	-48.63256	3.905174E-007	-0.0015625	7
	34	12	397.9953	4824.96	-6388.382	1	8005.728	-52.93731	3.132741E-010	-0.0019925	7
	35	12	315.5048	5117.051	-7815.74	1	9341.842	-56.78679	4.595721E-009	-0.0020006	7
	36	13	252.4038	5469.46	-9499.086	1	10961.19	-60.06718	8.365081E-010	-0.0020532	6
	37	13	198.6229	5947.562	-11728.5	1	13150.33	-63.11027	8.629141E-010	-0.0020646	6
	38	13	158.3615	6530.589	-14321.41	1	15740.12	-65.48693	3.562203E-011	-0.0020591	6
	39	14	125.558	7315.046	-17565.08	1	19027.4	-67.39052	9.972954E-010	-0.0020555	6
	40	14	100.4464	8303.496	-21373.91	1	22930.16	-68.76948	2.389772E-010	-0.0020552	6
	41	14	79.00281	9725.63	-26285.37	1	28026.92	-69.69543	2.657349E-010	-0.0020705	6
	42	15	63.3446	11657.76	-31792.36	1	33862.33	-69.86281	3.46998E-010	-0.0020667	6
	43	15	49.86702	14007.37	-39011.04	1	41449.58	-70.24873	-7.613464E-010	-0.00206	6
	44	15	39.72458	16835.22	-47102.89	1	50021.07	-70.33241	4.888114E-010	-0.0020578	6
	45	16	31.6723	20794.45	-56839.23	1	60523.61	-69.90511	9.035401E-010	-0.0020633	6
	46	16	24.93351	26137.3	-68629.19	1	73437.89	-69.15076	1.602668E-009	-0.0020733	6
	47	16	19.86229	32735.41	-81910.24	1	88209.38	-68.21589	2.084621E-009	-0.0020633	6
	48	17	15.83615	41531.01	-97636.1	1	106102	-66.95677	2.411244E-009	-0.0020559	5
	49	17	12.40079	52768.07	-115336.5	1	126834.5	-65.41525	4.35791E-010	-0.0020611	5
	50	17	9.93114	65595.83	-134265.4	1	149432.3	-63.96202	1.749867E-009	-0.0020604	5
	51	18	7.944915	82134.39	-155054.9	1	175465.4	-62.08931	1.431461E-009	-0.0020608	5
	52	18	6.317385	101143.8	-178548.6	1	205206.4	-60.46942	1.242729E-009	-0.0020765	5
	53	19	5.008013	124313	-204256.9	1	239112.1	-58.67485	6.000567E-010	-0.0020705	5
	54	20	3.945707	151221.9	-232178.9	1	277083.2	-56.92314	6.43759E-010	-0.002057	5
	55	22	3.158693	179723.6	-260991.9	1	316887	-55.44803	4.147279E-010	-0.0020511	5
	56	23	2.504006	212187.7	-293679.8	1	362314.1	-54.15137	2.448558E-010	-0.002057	5
	57	25	1.998082	245661.5	-327873.6	1	409695.8	-53.15737	4.119596E-010	-0.002043	5
	58	26	1.584686	284066.2	-368104.5	1	464967.2	-52.34263	5.242169E-010	-0.0020123	5
	59	28	1.266892	322788.8	-413403.1	1	524494.8	-52.01697	4.990091E-010	-0.0020268	5
	60	31	0.999041	366607.5	-468463.6	1	594860.7	-51.95419	4.935199E-010	-0.0020438	5
