EXPLAIN
TAG	EISPOT
TITLE	LABEL	Potentiostatic IDE	Test &Identifier
DATE	LABEL	9/10/2019	Date
TIME	LABEL	10:02:47	Time
NOTES	NOTES	1	&Notes...
	
PSTAT	PSTAT	REF600-11020	Potentiostat
VDC	POTEN	0.00000E+000	T	DC &Voltage (V)
FREQINIT	QUANT	1.00000E+006	Initial Fre&q. (Hz)
FREQFINAL	QUANT	1.00000E+000	Final Fre&q. (Hz)
PTSPERDEC	QUANT	1.00000E+001	Points/&decade
VAC	QUANT	2.50000E+001	AC &Voltage (mV rms)
AREA	QUANT	1.00000E-002	&Area (cm^2)
CONDIT	TWOPARAM	T	5.00000E+000	0.00000E+000	Conditionin&g	Time(s)	E(V)
DELAY	TWOPARAM	T	5.00000E+000	0.00000E+000	Init. De&lay	Time(s)	Stab.(mV/s)
SPEED	SELECTOR	1	&Optimize for:
ZGUESS	QUANT	1.00000E+007	E&stimated Z (ohms)
OCVCURVE	TABLE	19
	Pt	T	Vf	Vm	Ach	Over
	#	s	V vs. Ref.	V	V	bits
	0	0.258333	3.06735E-003	3.06735E-003	5.58966E-004	...........
	1	0.516667	3.06273E-003	2.82520E-003	5.62899E-004	...........
	2	0.775	3.03424E-003	2.59161E-003	5.56566E-004	...........
	3	1.03333	2.95360E-003	2.37752E-003	5.62399E-004	...........
	4	1.29167	2.80983E-003	2.18123E-003	5.59699E-004	...........
	5	1.55	2.62070E-003	2.00152E-003	5.56866E-004	...........
	6	1.80833	2.41514E-003	1.83262E-003	5.57333E-004	...........
	7	2.06667	2.21425E-003	1.67244E-003	5.59999E-004	...........
	8	2.325	2.02654E-003	1.51565E-003	5.54533E-004	...........
	9	2.58333	1.85227E-003	1.37214E-003	5.57199E-004	...........
	10	2.84167	1.68887E-003	1.22883E-003	5.57833E-004	...........
	11	3.1	1.53406E-003	1.09628E-003	5.60399E-004	...........
	12	3.35833	1.38640E-003	9.63034E-004	5.61332E-004	...........
	13	3.61667	1.24487E-003	8.37725E-004	5.58099E-004	...........
	14	3.875	1.10871E-003	7.16387E-004	5.54066E-004	...........
	15	4.13333	9.77419E-004	5.97238E-004	5.57199E-004	...........
	16	4.39167	8.50731E-004	4.86236E-004	5.57966E-004	...........
	17	4.65	7.28491E-004	3.74860E-004	5.58166E-004	...........
	18	4.90833	6.10522E-004	2.67963E-004	5.56533E-004	...........
EOC	QUANT	0.0006105	Open Circuit (V)
PSTATMODEL	IQUANT	4	Pstat Model
PSTATSECTION	LABEL	REF600-11020	Pstat Section
PSTATSERIALNO	LABEL	11020	Pstat Serial Number
CTRLMODE	IQUANT	1	Control Mode
IESTAB	IQUANT	0	I/E Stability
CASPEED	IQUANT	1	Control Amp Speed
CONVENTION	IQUANT	1	Current Convention
ICHRANGE	IQUANT	2	Ich Range
ICHRANGEMODE	TOGGLE	F	Ich Auto Range
ICHOFFSETENABLE	TOGGLE	T	Ich Offset Enable
ICHOFFSET	QUANT	0	Ich Offset (V)
ICHFILTER	IQUANT	3	Ich Filter
VCHRANGE	IQUANT	2	Vch Range
VCHRANGEMODE	TOGGLE	F	Vch Auto Range
VCHOFFSETENABLE	TOGGLE	T	Vch Offset Enable
VCHOFFSET	QUANT	0	Vch Offset (V)
VCHFILTER	IQUANT	3	Vch Filter
ACHRANGE	IQUANT	2	Ach Range
ACHOFFSETENABLE	TOGGLE	F	Ach Offset Enable
ACHOFFSET	QUANT	0	Ach Offset (V)
ACHFILTER	IQUANT	3	Ach Filter
IERANGELOWERLIMIT	IQUANT	1	I/E Range Lower Limit
IERANGEMODE	TOGGLE	F	I/E AutoRange
IERANGE	IQUANT	2	I/E Range
POSFEEDENABLE	TOGGLE	F	Positive Feedback IR Comp
POSFEEDRESISTANCE	QUANT	0	Positive Feedback Resistance (ohm)
ACHSELECT	IQUANT	0	Ach Select
CABLEID	IQUANT	14	Cable ID
DCCALDATE	LABEL	8/19/2019	DC Calibration Date
ACCALDATE	LABEL	8/19/2019	AC Calibration Date
THERMOSELECT	IQUANT	1	Thermo Select
FRAMEWORKVERSION	QUANT	6.33	Framework Version
INSTRUMENTVERSION	LABEL	3.50	Instrument Version
ZCURVE	TABLE
	Pt	Time	Freq	Zreal	Zimag	Zsig	Zmod	Zphz	Idc	Vdc	IERange
	#	s	Hz	ohm	ohm	V	ohm	°	A	V	#
	0	2	1000078	2701.952	-1814.315	1	3254.579	-33.88069	-1.017442E-006	0.0030577	8
	1	3	794390.6	3059.244	-1704.686	1	3502.132	-29.12762	-1.808395E-006	0.0028673	8
	2	4	630984.4	3379.217	-1578.107	1	3729.548	-25.03275	5.302888E-007	0.0023604	8
	3	6	501234.4	3633.564	-1399.99	1	3893.939	-21.07137	1.875088E-007	0.0022201	8
	4	7	398109.4	3840.848	-1239.99	1	4036.048	-17.8923	1.34629E-006	0.0018638	8
	5	8	316265.6	3977.812	-1054.93	1	4115.321	-14.85313	4.120187E-008	0.0020642	8
	6	10	251203.1	4097.255	-898.2668	1	4194.565	-12.36567	-1.507618E-006	0.0025371	8
	7	11	199546.9	4175.124	-781.1927	1	4247.578	-10.59787	-1.732804E-006	0.0025177	8
	8	12	158578.1	4237.355	-692.6967	1	4293.601	-9.284239	2.559374E-006	0.0016943	8
	9	13	125953.1	4307.292	-567.1517	1	4344.471	-7.501122	-5.431933E-007	0.0035905	7
	10	15	100078.1	4348.174	-515.9235	1	4378.675	-6.766674	-3.044553E-008	0.0021896	7
	11	16	79453.13	4386.824	-479.2981	1	4412.93	-6.235321	7.583066E-009	0.0021828	7
	12	17	63140.62	4423.323	-458.381	1	4447.01	-5.91634	-2.958762E-008	0.0021191	7
	13	19	50203.12	4460.417	-448.8509	1	4482.943	-5.746319	-1.946282E-008	0.0021459	7
	14	20	39890.62	4493.565	-453.5823	1	4516.4	-5.763936	-2.37603E-008	0.0021038	7
	15	22	31640.63	4531.61	-467.0213	1	4555.612	-5.884049	-2.100209E-008	0.002138	7
	16	23	25171.88	4569.824	-496.1409	1	4596.678	-6.196273	-5.006699E-008	0.0021575	7
	17	24	20015.62	4610.111	-536.2347	1	4641.193	-6.634665	-1.472156E-008	0.002075	7
	18	26	15890.62	4655.165	-590.5237	1	4692.471	-7.229553	-7.422109E-009	0.0021096	7
	19	27	12609.37	4704.433	-662.177	1	4750.807	-8.012088	-3.052683E-008	0.0021781	7
	20	28	10078.13	4758.396	-747.0746	1	4816.685	-8.922678	-2.937824E-008	0.00211	7
	21	30	8015.625	4816.764	-855.5684	1	4892.159	-10.07201	-8.344132E-009	0.0021159	7
	22	31	6328.125	4886.752	-991.171	1	4986.258	-11.46566	-4.713846E-008	0.0022598	7
	23	32	5015.625	4966.268	-1155.148	1	5098.842	-13.09411	-8.964522E-009	0.0021178	7
	24	34	3984.375	5053.507	-1349.27	1	5230.532	-14.94908	6.837882E-008	0.0020623	7
	25	35	3170.956	5154.715	-1582.036	1	5392.024	-17.0618	3.754026E-008	0.0020017	7
	26	36	2527.573	5269.249	-1859.099	1	5587.596	-19.43389	-3.955619E-008	0.0021533	7
	27	38	1976.103	5413.704	-2222.164	1	5852.026	-22.31669	-2.692479E-008	0.0020893	7
	28	39	1577.524	5563.756	-2624.468	1	6151.684	-25.25363	5.304618E-009	0.00217	7
	29	40	1265.625	5734.898	-3093.674	1	6516.124	-28.34451	-1.588657E-008	0.0020767	7
	30	42	998.264	5947.228	-3701.281	1	7004.926	-31.89623	1.6295E-008	0.0020208	7
	31	43	796.875	6172.692	-4403.699	1	7582.525	-35.50468	-4.631618E-008	0.0021494	7
	32	44	627.7902	6450.13	-5309.654	1	8354.436	-39.46072	-4.400732E-008	0.0022483	7
	33	45	505.5147	6746.262	-6297.366	1	9228.698	-43.02895	-2.734001E-008	0.0021843	7
	34	47	397.9953	7129.81	-7619.828	1	10435.32	-46.9028	1.196574E-009	0.0020624	6
	35	48	315.5048	7567.208	-9198.005	1	11910.75	-50.55583	1.332119E-009	0.0020641	6
	36	49	252.4038	8066.309	-11040.92	1	13673.6	-53.84878	1.310449E-009	0.0020614	6
	37	51	198.6229	8710.435	-13454.56	1	16028	-57.08112	1.123118E-009	0.0020595	6
	38	52	158.3615	9451.705	-16241.54	1	18791.55	-59.80289	1.12214E-009	0.0020619	6
	39	53	125.558	10376.34	-19713.64	1	22277.71	-62.23977	9.21751E-010	0.0020591	6
	40	55	100.4464	11465.45	-23749.8	1	26372.52	-64.23061	6.539657E-010	0.0020549	6
	41	56	79.00281	12928.95	-29039.83	1	31787.88	-66.00069	1.23331E-009	0.0020568	6
	42	57	63.3446	14406.24	-34900.66	1	37757.06	-67.57022	6.514123E-010	0.0020585	6
	43	59	49.86702	16936.48	-42739.29	1	45972.72	-68.38286	3.153549E-010	0.0020589	6
	44	60	39.72458	19476.77	-51683.99	1	55232.05	-69.35142	1.166436E-009	0.0020635	6
	45	62	31.6723	22877.73	-62555.45	1	66607.61	-69.91157	1.253809E-009	0.0020535	6
	46	63	24.93351	27343.13	-76218.11	1	80974.36	-70.26463	5.668166E-010	0.0020551	6
	47	64	19.86229	32862.18	-92052.06	1	97742	-70.35366	4.198759E-010	0.0020571	6
	48	66	15.83615	40247.3	-110112.4	1	117237.3	-69.92208	-5.370081E-012	0.0020587	5
	49	67	12.40079	49481.17	-134339.2	1	143162.2	-69.77973	1.099094E-009	0.0020616	5
	50	68	9.93114	61626.89	-160513.3	1	171937.2	-68.99639	9.554422E-010	0.002057	5
	51	70	7.944915	76473.16	-190650.6	1	205416.2	-68.14345	8.937996E-010	0.0020578	5
	52	72	6.317385	95839.4	-226404.3	1	245853.8	-67.05653	7.344809E-010	0.0020606	5
	53	74	5.008013	120770.5	-268303.3	1	294231.4	-65.76621	4.988551E-010	0.0020669	5
	54	76	3.945707	153240.7	-316652.1	1	351783	-64.17579	2.475091E-010	0.0020649	5
	55	79	3.158693	190409.3	-366583.6	1	413085	-62.55193	2.947285E-010	0.0020499	5
	56	82	2.504006	236752	-423606.2	1	485277	-60.79933	4.257083E-010	0.0020686	5
	57	85	1.998082	290224.9	-483671.3	1	564064.2	-59.03432	6.139616E-010	0.0020854	5
	58	88	1.584686	353395.1	-547573.9	1	651709.4	-57.16248	3.859193E-010	0.0020333	5
	59	91	1.266892	423814	-615400.4	1	747218.8	-55.44559	3.639923E-010	0.0020989	5
	60	96	0.999041	503917.7	-689330.3	1	853878.9	-53.83226	1.747806E-010	0.0020181	5
