EXPLAIN
TAG	EISPOT
TITLE	LABEL	Potentiostatic IDE	Test &Identifier
DATE	LABEL	9/8/2019	Date
TIME	LABEL	9:19:24	Time
NOTES	NOTES	1	&Notes...
	
PSTAT	PSTAT	REF600-11020	Potentiostat
VDC	POTEN	0.00000E+000	T	DC &Voltage (V)
FREQINIT	QUANT	1.00000E+006	Initial Fre&q. (Hz)
FREQFINAL	QUANT	1.00000E+000	Final Fre&q. (Hz)
PTSPERDEC	QUANT	1.00000E+001	Points/&decade
VAC	QUANT	2.50000E+001	AC &Voltage (mV rms)
AREA	QUANT	1.00000E-002	&Area (cm^2)
CONDIT	TWOPARAM	T	5.00000E+000	0.00000E+000	Conditionin&g	Time(s)	E(V)
DELAY	TWOPARAM	T	5.00000E+000	0.00000E+000	Init. De&lay	Time(s)	Stab.(mV/s)
SPEED	SELECTOR	1	&Optimize for:
ZGUESS	QUANT	1.00000E+007	E&stimated Z (ohms)
OCVCURVE	TABLE	19
	Pt	T	Vf	Vm	Ach	Over
	#	s	V vs. Ref.	V	V	bits
	0	0.258333	2.07420E-003	2.07420E-003	5.63199E-004	...........
	1	0.516667	2.06566E-003	1.62749E-003	5.64566E-004	...........
	2	0.775	2.01376E-003	1.23014E-003	5.67099E-004	...........
	3	1.03333	1.86894E-003	8.67439E-004	5.71432E-004	...........
	4	1.29167	1.61487E-003	5.34118E-004	5.68499E-004	...........
	5	1.55	1.28561E-003	2.21453E-004	5.67332E-004	...........
	6	1.80833	9.31507E-004	-6.86767E-005	5.71299E-004	...........
	7	2.06667	5.86920E-004	-3.41198E-004	5.69199E-004	...........
	8	2.325	2.65406E-004	-5.95133E-004	5.64932E-004	...........
	9	2.58333	-3.18426E-005	-8.40465E-004	5.64232E-004	...........
	10	2.84167	-3.08092E-004	-1.06817E-003	5.69332E-004	...........
	11	3.1	-5.67029E-004	-1.28775E-003	5.64999E-004	...........
	12	3.35833	-8.11369E-004	-1.49563E-003	5.70666E-004	...........
	13	3.61667	-1.04304E-003	-1.70107E-003	5.72166E-004	...........
	14	3.875	-1.26390E-003	-1.89824E-003	5.68266E-004	...........
	15	4.13333	-1.47578E-003	-2.08546E-003	5.73932E-004	...........
	16	4.39167	-1.67991E-003	-2.26920E-003	5.73432E-004	...........
	17	4.65	-1.87668E-003	-2.43910E-003	5.66032E-004	...........
	18	4.90833	-2.06607E-003	-2.61289E-003	5.70966E-004	...........
EOC	QUANT	-0.0020661	Open Circuit (V)
PSTATMODEL	IQUANT	4	Pstat Model
PSTATSECTION	LABEL	REF600-11020	Pstat Section
PSTATSERIALNO	LABEL	11020	Pstat Serial Number
CTRLMODE	IQUANT	1	Control Mode
IESTAB	IQUANT	0	I/E Stability
CASPEED	IQUANT	1	Control Amp Speed
CONVENTION	IQUANT	1	Current Convention
ICHRANGE	IQUANT	2	Ich Range
ICHRANGEMODE	TOGGLE	F	Ich Auto Range
ICHOFFSETENABLE	TOGGLE	T	Ich Offset Enable
ICHOFFSET	QUANT	0	Ich Offset (V)
ICHFILTER	IQUANT	3	Ich Filter
VCHRANGE	IQUANT	2	Vch Range
VCHRANGEMODE	TOGGLE	F	Vch Auto Range
VCHOFFSETENABLE	TOGGLE	T	Vch Offset Enable
VCHOFFSET	QUANT	0	Vch Offset (V)
VCHFILTER	IQUANT	3	Vch Filter
ACHRANGE	IQUANT	2	Ach Range
ACHOFFSETENABLE	TOGGLE	F	Ach Offset Enable
ACHOFFSET	QUANT	0	Ach Offset (V)
ACHFILTER	IQUANT	3	Ach Filter
IERANGELOWERLIMIT	IQUANT	1	I/E Range Lower Limit
IERANGEMODE	TOGGLE	F	I/E AutoRange
IERANGE	IQUANT	2	I/E Range
POSFEEDENABLE	TOGGLE	F	Positive Feedback IR Comp
POSFEEDRESISTANCE	QUANT	0	Positive Feedback Resistance (ohm)
ACHSELECT	IQUANT	0	Ach Select
CABLEID	IQUANT	14	Cable ID
DCCALDATE	LABEL	8/19/2019	DC Calibration Date
ACCALDATE	LABEL	8/19/2019	AC Calibration Date
THERMOSELECT	IQUANT	1	Thermo Select
FRAMEWORKVERSION	QUANT	6.33	Framework Version
INSTRUMENTVERSION	LABEL	3.50	Instrument Version
ZCURVE	TABLE
	Pt	Time	Freq	Zreal	Zimag	Zsig	Zmod	Zphz	Idc	Vdc	IERange
	#	s	Hz	ohm	ohm	V	ohm	°	A	V	#
	0	2	1000078	2555.533	-1881.312	1	3173.339	-36.35946	7.849928E-007	0.0008565	8
	1	4	794390.6	2943.047	-1793.948	1	3446.706	-31.3646	2.915257E-006	-0.0006413	8
	2	5	630984.4	3276.563	-1662.727	1	3674.306	-26.90601	-2.051961E-006	0.0002194	8
	3	6	501234.4	3564.497	-1510.598	1	3871.375	-22.96674	-4.36085E-006	0.0006962	8
	4	8	398109.4	3785.589	-1314.19	1	4007.216	-19.14475	-8.180448E-007	2.269805E-005	8
	5	9	316265.6	3967.259	-1162.426	1	4134.051	-16.33084	2.117837E-006	-0.0008926	8
	6	11	251203.1	4084.747	-1000.785	1	4205.559	-13.76659	2.40405E-006	-0.000856	8
	7	12	199546.9	4192.044	-855.9014	1	4278.528	-11.53963	-1.192461E-006	-5.683784E-005	8
	8	13	158578.1	4262.022	-749.3313	1	4327.393	-9.9716	2.048186E-006	-0.0008988	8
	9	15	125953.1	4344.786	-603.3658	1	4386.48	-7.906172	-3.102668E-007	-0.0006087	7
	10	16	100078.1	4382.965	-556.1478	1	4418.109	-7.231529	-1.65812E-008	-0.0003535	7
	11	17	79453.13	4424.425	-526.3685	1	4455.625	-6.784521	3.546032E-008	-0.0004373	7
	12	19	63140.62	4464.009	-508.3728	1	4492.863	-6.496999	9.734214E-008	-0.0006034	7
	13	20	50203.12	4503.085	-505.9352	1	4531.417	-6.41047	5.749299E-008	-0.0005832	7
	14	21	39890.62	4544.219	-514.7948	1	4573.286	-6.463234	-9.377067E-009	-0.000364	7
	15	23	31640.63	4583.596	-539.8094	1	4615.273	-6.716776	2.818587E-008	-0.0005165	7
	16	24	25171.88	4626.818	-578.405	1	4662.832	-7.125659	8.114933E-008	-0.0004413	7
	17	25	20015.62	4671.793	-632.7755	1	4714.452	-7.71354	7.524358E-010	-0.0004862	7
	18	27	15890.62	4724.428	-708.0766	1	4777.195	-8.523797	-7.300222E-009	-0.0003777	7
	19	28	12609.37	4780.744	-796.87	1	4846.701	-9.463248	-2.268825E-008	-0.000251	7
	20	29	10078.13	4841.254	-908.5002	1	4925.76	-10.6284	-4.39771E-008	-0.000266	7
	21	31	8015.625	4912.665	-1047.51	1	5023.102	-12.03671	-6.236709E-008	-0.0002949	7
	22	32	6328.125	4996.555	-1221.899	1	5143.792	-13.74189	-6.036215E-008	-0.0002958	7
	23	33	5015.625	5091.203	-1430.805	1	5288.435	-15.69721	-1.422305E-008	-0.0003579	7
	24	35	3984.375	5201.493	-1681.532	1	5466.542	-17.91491	3.276209E-009	-0.000485	7
	25	36	3170.956	5327.605	-1981.974	1	5684.329	-20.40619	-6.330941E-008	-0.0002979	7
	26	37	2527.573	5474.316	-2338.949	1	5953.051	-23.13501	-2.100053E-008	-0.0002444	7
	27	39	1976.103	5662.367	-2799.941	1	6316.809	-26.31158	-2.290439E-008	-0.0002702	7
	28	40	1577.524	5865.266	-3307.167	1	6733.402	-29.41675	-2.626813E-008	-0.0004304	7
	29	42	1265.625	6099.082	-3898.993	1	7238.85	-32.58978	-3.597167E-008	-0.0004119	7
	30	43	998.264	6394.599	-4658.076	1	7911.293	-36.07106	1.044746E-007	-0.0006187	7
	31	44	796.875	6720.95	-5517.477	1	8695.615	-39.38384	5.762391E-008	-0.0005954	7
	32	46	627.7902	7123.293	-6608.857	1	9716.91	-42.85458	-7.123915E-008	-0.0003141	7
	33	47	505.5147	7538.396	-7784.451	1	10836.29	-45.91998	2.180425E-008	-0.0008412	6
	34	48	397.9953	8076.284	-9358.771	1	12361.75	-49.20698	5.466927E-010	-0.000458	6
	35	50	315.5048	8673.392	-11209.06	1	14172.89	-52.26787	9.047784E-010	-0.0004627	6
	36	51	252.4038	9332.991	-13356.37	1	16294.09	-55.05542	1.137375E-009	-0.0004666	6
	37	52	198.6229	10163.06	-16168.02	1	19096.93	-57.84692	1.311219E-009	-0.0004652	6
	38	54	158.3615	11089.44	-19413.67	1	22357.69	-60.26421	1.63424E-009	-0.0004676	6
	39	55	125.558	12218.29	-23452.84	1	26444.71	-62.48171	1.247814E-009	-0.0004682	6
	40	56	100.4464	13493.26	-28217.01	1	31277.27	-64.44306	1.29087E-009	-0.0004733	6
	41	58	79.00281	15183.57	-34293.66	1	37504.62	-66.11856	8.340362E-010	-0.000474	6
	42	59	63.3446	17386.19	-41781.16	1	45254.23	-67.40658	1.428696E-009	-0.0004753	6
	43	60	49.86702	19426.33	-50378.5	1	53994.22	-68.91299	1.407289E-009	-0.000476	6
	44	62	39.72458	23006.61	-61074.2	1	65263.79	-69.35864	1.212146E-009	-0.0004728	6
	45	63	31.6723	26690.4	-73578.95	1	78270.29	-70.06201	1.132757E-009	-0.0004737	6
	46	65	24.93351	32123.55	-89699.51	1	95278.1	-70.29633	1.085383E-009	-0.0004738	6
	47	66	19.86229	38536.92	-108006.5	1	114675.6	-70.36351	8.003254E-010	-0.0004555	5
	48	67	15.83615	45621.71	-129579	1	137375.6	-70.60403	2.503791E-010	-0.0004606	5
	49	69	12.40079	56774.82	-158926	1	168762.7	-70.34121	7.964785E-010	-0.0004605	5
	50	70	9.93114	69433.12	-188635.2	1	201008	-69.79228	7.208515E-010	-0.0004708	5
	51	71	7.944915	84795.63	-225825	1	241220.3	-69.41921	2.213165E-010	-0.0004627	5
	52	73	6.317385	105054.9	-268303.9	1	288138	-68.61708	5.246955E-010	-0.0004659	5
	53	75	5.008013	131160.7	-320250.9	1	346069	-67.72814	4.285924E-010	-0.0004606	5
	54	78	3.945707	164642.4	-382674.1	1	416589.2	-66.72061	2.986284E-010	-0.0004645	5
	55	80	3.158693	204464.4	-449112.1	1	493464.6	-65.52195	1.920394E-010	-0.0004595	5
	56	84	2.504006	256254.9	-527680.8	1	586611.9	-64.09764	3.592919E-010	-0.0004807	5
	57	86	1.998082	317024.3	-612207.3	1	689421.6	-62.62316	5.85175E-011	-0.0004318	5
	58	90	1.584686	393055.9	-708850.1	1	810531.6	-60.99172	2.552379E-010	-0.0004246	5
	59	93	1.266892	478209.6	-808534.8	1	939368.4	-59.39772	-1.817406E-011	-0.0004423	5
	60	97	0.999041	582533.3	-924066.8	1	1092357	-57.7726	3.025621E-010	-0.0004778	4
