EXPLAIN
TAG	EISPOT
TITLE	LABEL	Potentiostatic EIS	Test &Identifier
DATE	LABEL	10/14/2019	Date
TIME	LABEL	11:18:47	Time
NOTES	NOTES	1	&Notes...
	
PSTAT	PSTAT	REF600-11020	Potentiostat
VDC	POTEN	0.00000E+000	T	DC &Voltage (V)
FREQINIT	QUANT	1.00000E+006	Initial Fre&q. (Hz)
FREQFINAL	QUANT	1.00000E+000	Final Fre&q. (Hz)
PTSPERDEC	QUANT	1.00000E+001	Points/&decade
VAC	QUANT	2.50000E+001	AC &Voltage (mV rms)
AREA	QUANT	1.00000E-002	&Area (cm^2)
CONDIT	TWOPARAM	T	5.00000E+000	0.00000E+000	Conditionin&g	Time(s)	E(V)
DELAY	TWOPARAM	T	5.00000E+000	0.00000E+000	Init. De&lay	Time(s)	Stab.(mV/s)
SPEED	SELECTOR	1	&Optimize for:
ZGUESS	QUANT	1.00000E+004	E&stimated Z (ohms)
OCVCURVE	TABLE	19
	Pt	T	Vf	Vm	Ach	Over
	#	s	V vs. Ref.	V	V	bits
	0	0.258333	8.08290E-002	8.08290E-002	5.31966E-004	...........
	1	0.516667	7.99659E-002	3.56461E-002	5.51299E-004	...........
	2	0.775	7.51324E-002	1.72563E-002	5.51466E-004	...........
	3	1.03333	6.31304E-002	5.87784E-003	5.34800E-004	...........
	4	1.29167	4.53167E-002	1.86883E-003	5.33000E-004	...........
	5	1.55	2.70327E-002	-6.89871E-003	5.47533E-004	...........
	6	1.80833	1.24813E-002	-7.78101E-003	5.46333E-004	...........
	7	2.06667	2.62763E-003	-5.58167E-003	5.32266E-004	...........
	8	2.325	-3.24881E-003	-1.10580E-002	5.36366E-004	...........
	9	2.58333	-6.37352E-003	-9.85101E-003	5.51433E-004	...........
	10	2.84167	-8.07562E-003	-1.01095E-002	5.43533E-004	...........
	11	3.1	-9.12915E-003	-9.21475E-003	5.31666E-004	...........
	12	3.35833	-9.69811E-003	-1.06175E-002	5.45666E-004	...........
	13	3.61667	-9.90333E-003	-9.62483E-003	5.53533E-004	...........
	14	3.875	-9.99035E-003	-1.18911E-002	5.46499E-004	...........
	15	4.13333	-1.01374E-002	-9.28658E-003	5.37699E-004	...........
	16	4.39167	-1.03356E-002	-1.15969E-002	5.50566E-004	...........
	17	4.65	-1.05075E-002	-1.09992E-002	5.52666E-004	...........
	18	4.90833	-1.06869E-002	-1.18521E-002	5.38899E-004	...........
EOC	QUANT	-0.0106869	Open Circuit (V)
PSTATMODEL	IQUANT	4	Pstat Model
PSTATSECTION	LABEL	REF600-11020	Pstat Section
PSTATSERIALNO	LABEL	11020	Pstat Serial Number
CTRLMODE	IQUANT	1	Control Mode
IESTAB	IQUANT	0	I/E Stability
CASPEED	IQUANT	1	Control Amp Speed
CONVENTION	IQUANT	1	Current Convention
ICHRANGE	IQUANT	2	Ich Range
ICHRANGEMODE	TOGGLE	F	Ich Auto Range
ICHOFFSETENABLE	TOGGLE	T	Ich Offset Enable
ICHOFFSET	QUANT	0	Ich Offset (V)
ICHFILTER	IQUANT	3	Ich Filter
VCHRANGE	IQUANT	2	Vch Range
VCHRANGEMODE	TOGGLE	F	Vch Auto Range
VCHOFFSETENABLE	TOGGLE	T	Vch Offset Enable
VCHOFFSET	QUANT	0	Vch Offset (V)
VCHFILTER	IQUANT	3	Vch Filter
ACHRANGE	IQUANT	2	Ach Range
ACHOFFSETENABLE	TOGGLE	F	Ach Offset Enable
ACHOFFSET	QUANT	0	Ach Offset (V)
ACHFILTER	IQUANT	3	Ach Filter
IERANGELOWERLIMIT	IQUANT	1	I/E Range Lower Limit
IERANGEMODE	TOGGLE	F	I/E AutoRange
IERANGE	IQUANT	6	I/E Range
POSFEEDENABLE	TOGGLE	F	Positive Feedback IR Comp
POSFEEDRESISTANCE	QUANT	0	Positive Feedback Resistance (ohm)
ACHSELECT	IQUANT	0	Ach Select
CABLEID	IQUANT	14	Cable ID
DCCALDATE	LABEL	8/19/2019	DC Calibration Date
ACCALDATE	LABEL	8/19/2019	AC Calibration Date
THERMOSELECT	IQUANT	1	Thermo Select
FRAMEWORKVERSION	QUANT	6.33	Framework Version
INSTRUMENTVERSION	LABEL	3.50	Instrument Version
ZCURVE	TABLE
	Pt	Time	Freq	Zreal	Zimag	Zsig	Zmod	Zphz	Idc	Vdc	IERange
	#	s	Hz	ohm	ohm	V	ohm	°	A	V	#
	0	2	1000078	1024.061	-9640.51	1	9694.75	-83.93651	-8.376181E-006	-0.0076987	8
	1	3	794390.6	1210.123	-11799.07	1	11860.96	-84.14417	4.400593E-006	-0.0097404	8
	2	5	630984.4	1298.865	-14539.97	1	14597.87	-84.89528	-1.3835E-007	-0.0091256	8
	3	7	501234.4	1435.94	-17923.11	1	17980.54	-85.41943	2.568572E-006	-0.0095673	8
	4	9	398109.4	1710.347	-22312.13	1	22377.58	-85.61654	4.055277E-007	-0.0091303	8
	5	12	316265.6	2229.349	-28145.39	1	28233.54	-85.47115	-4.325138E-007	-0.0091783	8
	6	14	251203.1	1827.483	-34971.37	1	35019.09	-87.00864	-3.659466E-007	-0.0091569	8
	7	15	199546.9	2778.578	-46029.92	1	46113.71	-86.54556	3.536392E-006	-0.0099771	8
	8	17	158578.1	2484.81	-55678.77	1	55734.19	-87.44473	-3.192149E-007	-0.0091714	8
	9	19	125953.1	4811.286	-69404.67	1	69571.23	-86.03448	1.031488E-006	-0.0117535	7
	10	20	100078.1	6013.533	-85975.38	1	86185.44	-85.99897	-3.311802E-008	-0.0091836	7
	11	22	79453.13	6183.499	-107751.3	1	107928.6	-86.71558	1.535825E-008	-0.0091117	7
	12	24	63140.62	8471.126	-134657.3	1	134923.5	-86.40034	1.777924E-008	-0.009318	7
	13	25	50203.12	10127.69	-167253.7	1	167560.1	-86.53481	-7.147415E-008	-0.0090778	7
	14	27	39890.62	12740.18	-208934.6	1	209322.6	-86.5106	6.933125E-008	-0.0093385	7
	15	28	31640.63	17158.47	-260839.7	1	261403.4	-86.23641	1.79612E-008	-0.0093529	7
	16	30	25171.88	16927.62	-326743	1	327181.2	-87.03432	-8.415503E-008	-0.0089723	7
	17	31	20015.62	6957.53	-410485.3	1	410544.3	-89.02895	-2.718227E-008	-0.0092155	7
	18	33	15890.62	31285.15	-506252.8	1	507218.5	-86.46376	-4.970876E-008	-0.0091789	7
	19	34	12609.37	43361.82	-634917.3	1	636396.3	-86.09304	2.255007E-009	-0.0092016	6
	20	36	10078.13	48923.64	-793358.8	1	794865.8	-86.47124	-1.356306E-008	-0.009171	6
	21	38	8015.625	85579.23	-927505.6	1	931445.3	-84.72835	6.03616E-009	-0.0095061	6
	22	39	6328.125	74596.5	-1239038	1	1241282	-86.55466	-1.609886E-008	-0.0091834	6
	23	41	5015.625	83410.79	-1558106	1	1560337	-86.93568	1.858785E-009	-0.0091545	6
	24	43	3984.375	104921	-2022895	1	2025614	-87.03091	5.111793E-009	-0.0095777	6
	25	44	3170.956	125395.4	-2392708	1	2395992	-87.00003	5.031103E-009	-0.0095771	6
	26	46	2527.573	186896.4	-3010732	1	3016528	-86.44782	4.802917E-009	-0.0095735	6
	27	48	1976.103	96988.4	-3822911	1	3824141	-88.5467	8.807787E-009	-0.0095123	6
	28	50	1577.524	674583.4	-4762836	1	4810371	-81.93855	1.490426E-009	-0.0092044	6
	29	51	1265.625	494352.7	-5791873	1	5812932	-85.12147	-2.729386E-010	-0.0093561	5
	30	53	998.264	700087	-7292097	1	7325627	-84.51605	2.473554E-010	-0.0095392	5
	31	54	796.875	779247.9	-9458187	1	9490233	-85.29011	3.366677E-010	-0.0095446	5
	32	56	627.7902	560451.9	-1.154212E+007	1	1.155572E+007	-87.22006	-1.138346E-009	-0.0090863	5
	33	57	505.5147	1374620	-1.439084E+007	1	1.445634E+007	-84.54363	-1.805142E-009	-0.0091418	5
	34	59	397.9953	1572604	-1.729659E+007	1	1.736793E+007	-84.80495	3.346441E-010	-0.009298	5
	35	60	315.5048	2372331	-2.217701E+007	1	2.230354E+007	-83.89414	-2.838017E-010	-0.0093014	5
	36	62	252.4038	1770168	-2.550573E+007	1	2.556708E+007	-86.02988	-2.574183E-010	-0.0093026	5
	37	63	198.6229	3473047	-3.172661E+007	1	3.191614E+007	-83.75282	1.131913E-010	-0.009302	5
	38	65	158.3615	6834508	-4.062178E+007	1	4.119272E+007	-80.44958	-1.751499E-010	-0.0093026	5
	39	66	125.558	3061255	-6.231933E+007	1	6.239448E+007	-87.18777	1.446072E-010	-0.009305	4
	40	68	100.4464	6190335	-5.941813E+007	1	5.973972E+007	-84.05223	-1.600888E-011	-0.0093015	5
	41	70	79.00281	-1363619	-3.283179E+007	1	3.286009E+007	-92.37833	-3.340429E-012	-0.0093077	5
	42	71	63.3446	-1937374	1.103885E+007	1	1.120757E+007	99.9543	2.111226E-010	-0.0093093	4
	43	73	49.86702	-2.857402E+007	-4.921855E+007	1	5.691168E+007	-120.1375	-4.210942E-011	-0.0093084	4
	44	75	39.72458	9.931835E+007	3.226719E+007	1	1.044285E+008	17.99828	-9.488879E-011	-0.0093043	4
	45	76	31.6723	-5.664479E+007	-5.438411E+007	1	7.852556E+007	-136.1664	1.034149E-010	-0.0093124	4
	46	78	24.93351	2.38589E+008	-3.196487E+008	1	3.988735E+008	-53.26197	7.328506E-011	-0.0093174	5
	47	80	19.86229	9.74394E+008	4.044018E+008	1	1.054981E+009	22.53987	5.05367E-011	-0.0093169	4
	48	82	15.83615	2814332	-2.384546E+007	1	2.401096E+007	-83.26888	6.475206E-010	-0.0093107	4
	49	84	12.40079	4.757914E+007	2.052461E+007	1	5.181731E+007	23.33432	3.338679E-010	-0.0093074	4
	50	85	9.93114	1.23088E+008	-1.0794E+007	1	1.235603E+008	-5.011639	-1.102741E-010	-0.009299	4
	51	87	7.944915	-3.828828E+007	-1.358136E+008	1	1.411075E+008	-105.7441	-8.8491E-011	-0.0092992	4
	52	89	6.317385	4.60678E+008	-6.185276E+008	1	7.712331E+008	-53.32134	1.27626E-011	-0.0093089	4
	53	92	5.008013	4.10737E+008	-3.526626E+008	1	5.413647E+008	-40.6497	4.090013E-011	-0.0093135	5
	54	96	3.945707	3.435599E+007	-4.425387E+008	1	4.438703E+008	-85.56081	-1.490728E-011	-0.0093028	4
	55	100	3.158693	8.083719E+008	-7.270897E+008	1	1.087256E+009	-41.96978	1.100402E-011	-0.0093165	4
	56	104	2.504006	4.91885E+009	-3.361915E+009	1	5.957982E+009	-34.35166	7.53286E-011	-0.0093104	3
	57	108	1.998082	5.450212E+008	6.749694E+008	1	8.675436E+008	51.07998	-5.254294E-012	-0.0093143	3
	58	114	1.584686	1.304083E+009	-5.840573E+008	1	1.4289E+009	-24.12609	3.027374E-012	-0.0092719	3
	59	120	1.266892	2.602407E+009	-9.920712E+008	1	2.78509E+009	-20.86749	-9.214582E-012	-0.0092578	2
	60	128	0.999041	2.771976E+009	-8.904077E+008	1	2.911473E+009	-17.80794	-8.650182E-012	-0.009329	2
