EXPLAIN
TAG	EISPOT
TITLE	LABEL	Potentiostatic IDE	Test &Identifier
DATE	LABEL	9/4/2019	Date
TIME	LABEL	11:50:01	Time
NOTES	NOTES	1	&Notes...
	
PSTAT	PSTAT	REF600-11020	Potentiostat
VDC	POTEN	0.00000E+000	T	DC &Voltage (V)
FREQINIT	QUANT	1.00000E+006	Initial Fre&q. (Hz)
FREQFINAL	QUANT	1.00000E+000	Final Fre&q. (Hz)
PTSPERDEC	QUANT	1.00000E+001	Points/&decade
VAC	QUANT	2.50000E+001	AC &Voltage (mV rms)
AREA	QUANT	1.00000E-002	&Area (cm^2)
CONDIT	TWOPARAM	T	5.00000E+000	0.00000E+000	Conditionin&g	Time(s)	E(V)
DELAY	TWOPARAM	T	5.00000E+000	0.00000E+000	Init. De&lay	Time(s)	Stab.(mV/s)
SPEED	SELECTOR	1	&Optimize for:
ZGUESS	QUANT	1.00000E+007	E&stimated Z (ohms)
OCVCURVE	TABLE	19
	Pt	T	Vf	Vm	Ach	Over
	#	s	V vs. Ref.	V	V	bits
	0	0.258333	6.06581E-002	6.06581E-002	5.82899E-004	...........
	1	0.516667	6.06740E-002	6.14941E-002	5.86965E-004	...........
	2	0.775	6.07681E-002	6.20758E-002	5.82565E-004	...........
	3	1.03333	6.10041E-002	6.17606E-002	5.85165E-004	...........
	4	1.29167	6.14467E-002	6.76945E-002	5.83932E-004	...........
	5	1.55	6.23163E-002	6.77990E-002	5.81099E-004	...........
	6	1.80833	6.37800E-002	6.78405E-002	5.81265E-004	...........
	7	2.06667	6.54943E-002	6.79086E-002	5.87232E-004	...........
	8	2.325	6.68665E-002	6.83664E-002	5.83465E-004	...........
	9	2.58333	6.76774E-002	6.87012E-002	5.81732E-004	...........
	10	2.84167	6.81093E-002	6.90014E-002	5.79166E-004	...........
	11	3.1	6.84053E-002	6.93960E-002	5.87565E-004	...........
	12	3.35833	6.86961E-002	6.97976E-002	5.85965E-004	...........
	13	3.61667	6.90204E-002	7.01644E-002	5.86965E-004	...........
	14	3.875	6.93761E-002	7.04807E-002	5.83132E-004	...........
	15	4.13333	6.97474E-002	7.09845E-002	5.80599E-004	...........
	16	4.39167	7.01265E-002	7.13593E-002	5.80932E-004	...........
	17	4.65	7.05238E-002	7.21094E-002	5.84565E-004	...........
	18	4.90833	7.09538E-002	7.21699E-002	5.82099E-004	...........
EOC	QUANT	0.0709538	Open Circuit (V)
PSTATMODEL	IQUANT	4	Pstat Model
PSTATSECTION	LABEL	REF600-11020	Pstat Section
PSTATSERIALNO	LABEL	11020	Pstat Serial Number
CTRLMODE	IQUANT	1	Control Mode
IESTAB	IQUANT	0	I/E Stability
CASPEED	IQUANT	1	Control Amp Speed
CONVENTION	IQUANT	1	Current Convention
ICHRANGE	IQUANT	2	Ich Range
ICHRANGEMODE	TOGGLE	F	Ich Auto Range
ICHOFFSETENABLE	TOGGLE	T	Ich Offset Enable
ICHOFFSET	QUANT	0	Ich Offset (V)
ICHFILTER	IQUANT	3	Ich Filter
VCHRANGE	IQUANT	2	Vch Range
VCHRANGEMODE	TOGGLE	F	Vch Auto Range
VCHOFFSETENABLE	TOGGLE	T	Vch Offset Enable
VCHOFFSET	QUANT	0	Vch Offset (V)
VCHFILTER	IQUANT	3	Vch Filter
ACHRANGE	IQUANT	2	Ach Range
ACHOFFSETENABLE	TOGGLE	F	Ach Offset Enable
ACHOFFSET	QUANT	0	Ach Offset (V)
ACHFILTER	IQUANT	3	Ach Filter
IERANGELOWERLIMIT	IQUANT	1	I/E Range Lower Limit
IERANGEMODE	TOGGLE	F	I/E AutoRange
IERANGE	IQUANT	4	I/E Range
POSFEEDENABLE	TOGGLE	F	Positive Feedback IR Comp
POSFEEDRESISTANCE	QUANT	0	Positive Feedback Resistance (ohm)
ACHSELECT	IQUANT	0	Ach Select
CABLEID	IQUANT	14	Cable ID
DCCALDATE	LABEL	8/19/2019	DC Calibration Date
ACCALDATE	LABEL	8/19/2019	AC Calibration Date
THERMOSELECT	IQUANT	1	Thermo Select
FRAMEWORKVERSION	QUANT	6.33	Framework Version
INSTRUMENTVERSION	LABEL	3.50	Instrument Version
ZCURVE	TABLE
	Pt	Time	Freq	Zreal	Zimag	Zsig	Zmod	Zphz	Idc	Vdc	IERange
	#	s	Hz	ohm	ohm	V	ohm	°	A	V	#
	0	2	1000078	2384.956	-2011.905	1	3120.221	-40.15036	8.284455E-006	0.073063	8
	1	3	794390.6	2830.853	-1949.394	1	3437.13	-34.55224	1.288929E-005	0.0719518	8
	2	5	630984.4	3180.679	-1867.898	1	3688.599	-30.42418	8.133902E-006	0.0725279	8
	3	6	501234.4	3491.613	-1743.515	1	3902.718	-26.53496	9.899546E-006	0.0723112	8
	4	8	398109.4	3725.234	-1593.437	1	4051.717	-23.15841	1.007765E-005	0.0722685	8
	5	10	316265.6	3956.458	-1453.424	1	4214.974	-20.17105	9.66976E-006	0.0723054	8
	6	11	251203.1	4111.269	-1324.306	1	4319.296	-17.85459	1.213804E-005	0.0716599	8
	7	13	199546.9	4240.34	-1237.788	1	4417.307	-16.27293	8.923895E-006	0.0723289	8
	8	14	158578.1	4384.624	-1175.067	1	4539.351	-15.00257	1.188477E-005	0.0719152	8
	9	16	125953.1	4485.772	-1143	1	4629.104	-14.2951	8.533257E-007	0.0719873	7
	10	17	100078.1	4573.004	-1123.231	1	4708.929	-13.79992	9.451217E-007	0.0723585	7
	11	19	79453.13	4671.805	-1158.455	1	4813.292	-13.92658	9.514133E-007	0.0723412	7
	12	20	63140.62	4771.087	-1219.245	1	4924.412	-14.33507	9.701314E-007	0.0723057	7
	13	21	50203.12	4883.675	-1315.357	1	5057.711	-15.07419	9.479643E-007	0.0724364	7
	14	23	39890.62	4994.18	-1440.574	1	5197.796	-16.09023	9.675732E-007	0.0723267	7
	15	24	31640.63	5125.325	-1604.747	1	5370.677	-17.38542	9.478175E-007	0.0723559	7
	16	25	25171.88	5271.271	-1806.207	1	5572.134	-18.91409	9.45403E-007	0.0724311	7
	17	27	20015.62	5434.23	-2045.694	1	5806.524	-20.62864	9.312527E-007	0.0724195	7
	18	28	15890.62	5622.976	-2344.771	1	6092.275	-22.63605	1.004255E-006	0.0722464	7
	19	29	12609.37	5848.33	-2699.726	1	6441.389	-24.77915	9.480862E-007	0.072352	7
	20	31	10078.13	6092.746	-3101.561	1	6836.755	-26.97873	1.026486E-006	0.0722439	7
	21	32	8015.625	6380.681	-3593.524	1	7323.012	-29.3877	1.027769E-006	0.0722487	7
	22	33	6328.125	6726.616	-4184.077	1	7921.733	-31.88236	1.022926E-006	0.0722663	7
	23	35	5015.625	7125.762	-4875.832	1	8634.246	-34.38205	9.695685E-007	0.0723429	7
	24	36	3984.375	7565.447	-5674.393	1	9456.994	-36.87139	1.024178E-006	0.0722646	7
	25	37	3170.956	8106.252	-6603.859	1	10455.73	-39.16841	1.02817E-006	0.07228	7
	26	39	2527.573	8710.046	-7675.885	1	11609.66	-41.38869	9.994021E-007	0.0722666	7
	27	40	1976.103	9483.762	-9046.546	1	13106.55	-43.64838	1.021598E-007	0.0721449	6
	28	41	1577.524	10310.7	-10527.89	1	14735.91	-45.59714	9.151386E-008	0.07233	6
	29	43	1265.625	11254.91	-12213.28	1	16608.35	-47.33849	9.367398E-008	0.0722724	6
	30	44	998.264	12439.94	-14338.68	1	18982.88	-49.05579	1.037021E-007	0.0721362	6
	31	45	796.875	13748.12	-16694.26	1	21626.59	-50.52773	9.684548E-008	0.07234	6
	32	47	627.7902	15399.01	-19617.05	1	24939.09	-51.86876	9.286168E-008	0.0722891	6
	33	48	505.5147	17095.78	-22701	1	28418.32	-53.01716	9.527125E-008	0.0722526	6
	34	49	397.9953	19357.49	-26683.05	1	32965.1	-54.04061	9.700148E-008	0.0719348	6
	35	51	315.5048	21899.1	-31192.53	1	38112.26	-54.92875	9.695773E-008	0.0719325	6
	36	52	252.4038	24749.03	-36253.21	1	43895.44	-55.67976	9.714076E-008	0.0719299	6
	37	53	198.6229	28318.97	-42581.2	1	51138.27	-56.37379	9.721889E-008	0.0719293	6
	38	55	158.3615	32274.86	-49577.12	1	59157.05	-56.93575	9.758459E-008	0.0719246	6
	39	56	125.558	36933.86	-57900.73	1	68677.53	-57.46691	9.725271E-008	0.0719259	6
	40	57	100.4464	42084.6	-67361.17	1	79426.95	-58.00449	9.722079E-008	0.071919	6
	41	59	79.00281	48922.75	-79139.81	1	93040.55	-58.27642	9.732077E-008	0.0719214	6
	42	60	63.3446	56584.55	-91023.63	1	107177.9	-58.13298	9.74387E-008	0.0719197	6
	43	62	49.86702	63566.95	-108188.2	1	125480.8	-59.56325	9.759161E-008	0.071918	6
	44	63	39.72458	73833.35	-125524.5	1	145628.8	-59.536	9.798585E-009	0.0719304	5
	45	64	31.6723	83957.08	-146766.6	1	169083.5	-60.2285	1.000664E-008	0.0719261	5
	46	66	24.93351	97181.7	-172648.4	1	198120.6	-60.62537	9.977263E-009	0.0719292	5
	47	67	19.86229	111591.6	-202272	1	231012.3	-61.11488	9.893315E-009	0.0719283	5
	48	68	15.83615	125828.7	-237572.4	1	268837.3	-62.09237	1.018294E-008	0.0719297	5
	49	70	12.40079	147676.1	-282653.4	1	318906.2	-62.41457	1.00618E-008	0.0719299	5
	50	71	9.93114	169892.5	-333081.8	1	373907.7	-62.97559	9.889201E-009	0.0719342	5
	51	73	7.944915	196356.5	-391164.8	1	437682.3	-63.34431	9.869261E-009	0.0719276	5
	52	74	6.317385	227858.1	-463260.1	1	516264.7	-63.80937	9.945468E-009	0.0719207	5
	53	76	5.008013	266317.6	-551076.5	1	612054.3	-64.20701	9.800051E-009	0.0719265	5
	54	79	3.945707	314896.2	-658995	1	730365.7	-64.45952	9.815071E-008	0.0719234	6
	55	82	3.158693	372190.7	-775390.3	1	860090.7	-64.35879	9.884807E-009	0.0719452	5
	56	85	2.504006	443939.3	-921235.5	1	1022623	-64.27079	9.720123E-009	0.0722092	5
	57	88	1.998082	530520.9	-1085877	1	1208545	-63.96152	9.744082E-009	0.0721722	5
	58	91	1.584686	641979.8	-1279517	1	1431538	-63.35543	9.420151E-010	0.0722309	4
	59	95	1.266892	775051.7	-1500297	1	1688667	-62.67918	9.530498E-010	0.0721668	4
	60	99	0.999041	948710.8	-1760490	1	1999844	-61.68021	9.884117E-010	0.072249	4
