EXPLAIN
TAG	EISPOT
TITLE	LABEL	Potentiostatic EIS	Test &Identifier
DATE	LABEL	11/15/2019	Date
TIME	LABEL	11:07:45	Time
NOTES	NOTES	4	&Notes...
	
	
	
	
PSTAT	PSTAT	REF600-11020	Potentiostat
VDC	POTEN	0.00000E+000	T	DC &Voltage (V)
FREQINIT	QUANT	1.00000E+006	Initial Fre&q. (Hz)
FREQFINAL	QUANT	1.00000E+000	Final Fre&q. (Hz)
PTSPERDEC	QUANT	1.00000E+001	Points/&decade
VAC	QUANT	2.50000E+001	AC &Voltage (mV rms)
AREA	QUANT	1.00000E-002	&Area (cm^2)
CONDIT	TWOPARAM	T	5.00000E+000	0.00000E+000	Conditionin&g	Time(s)	E(V)
DELAY	TWOPARAM	T	5.00000E+000	0.00000E+000	Init. De&lay	Time(s)	Stab.(mV/s)
SPEED	SELECTOR	0	&Optimize for:
ZGUESS	QUANT	1.00000E+005	E&stimated Z (ohms)
OCVCURVE	TABLE	19
	Pt	T	Vf	Vm	Ach	Over
	#	s	V vs. Ref.	V	V	bits
	0	0.258333	5.20154E-003	5.20154E-003	5.70366E-004	...........
	1	0.516667	5.19908E-003	5.07271E-003	5.72599E-004	...........
	2	0.775	5.18445E-003	4.97586E-003	5.70099E-004	...........
	3	1.03333	5.14480E-003	4.88962E-003	5.68332E-004	...........
	4	1.29167	5.07814E-003	4.83990E-003	5.70366E-004	...........
	5	1.55	4.99754E-003	4.79038E-003	5.69732E-004	...........
	6	1.80833	4.91962E-003	4.75228E-003	5.72866E-004	...........
	7	2.06667	4.85374E-003	4.71833E-003	5.70566E-004	...........
	8	2.325	4.80089E-003	4.68223E-003	5.69366E-004	...........
	9	2.58333	4.75783E-003	4.65438E-003	5.69899E-004	...........
	10	2.84167	4.72111E-003	4.63623E-003	5.75932E-004	...........
	11	3.1	4.68935E-003	4.62510E-003	5.76799E-004	...........
	12	3.35833	4.66297E-003	4.61098E-003	5.72366E-004	...........
	13	3.61667	4.64214E-003	4.59519E-003	5.71932E-004	...........
	14	3.875	4.62555E-003	4.58810E-003	5.69966E-004	...........
	15	4.13333	4.61166E-003	4.58270E-003	5.75232E-004	...........
	16	4.39167	4.59997E-003	4.57496E-003	5.71566E-004	...........
	17	4.65	4.59049E-003	4.57065E-003	5.72132E-004	...........
	18	4.90833	4.58288E-003	4.56630E-003	5.70266E-004	...........
EOC	QUANT	0.0045829	Open Circuit (V)
PSTATMODEL	IQUANT	4	Pstat Model
PSTATSECTION	LABEL	REF600-11020	Pstat Section
PSTATSERIALNO	LABEL	11020	Pstat Serial Number
CTRLMODE	IQUANT	1	Control Mode
IESTAB	IQUANT	0	I/E Stability
CASPEED	IQUANT	1	Control Amp Speed
CONVENTION	IQUANT	1	Current Convention
ICHRANGE	IQUANT	2	Ich Range
ICHRANGEMODE	TOGGLE	F	Ich Auto Range
ICHOFFSETENABLE	TOGGLE	T	Ich Offset Enable
ICHOFFSET	QUANT	0	Ich Offset (V)
ICHFILTER	IQUANT	3	Ich Filter
VCHRANGE	IQUANT	2	Vch Range
VCHRANGEMODE	TOGGLE	F	Vch Auto Range
VCHOFFSETENABLE	TOGGLE	T	Vch Offset Enable
VCHOFFSET	QUANT	0	Vch Offset (V)
VCHFILTER	IQUANT	3	Vch Filter
ACHRANGE	IQUANT	2	Ach Range
ACHOFFSETENABLE	TOGGLE	F	Ach Offset Enable
ACHOFFSET	QUANT	0	Ach Offset (V)
ACHFILTER	IQUANT	3	Ach Filter
IERANGELOWERLIMIT	IQUANT	1	I/E Range Lower Limit
IERANGEMODE	TOGGLE	F	I/E AutoRange
IERANGE	IQUANT	4	I/E Range
POSFEEDENABLE	TOGGLE	F	Positive Feedback IR Comp
POSFEEDRESISTANCE	QUANT	0	Positive Feedback Resistance (ohm)
ACHSELECT	IQUANT	0	Ach Select
CABLEID	IQUANT	14	Cable ID
DCCALDATE	LABEL	8/19/2019	DC Calibration Date
ACCALDATE	LABEL	8/19/2019	AC Calibration Date
THERMOSELECT	IQUANT	1	Thermo Select
FRAMEWORKVERSION	QUANT	6.33	Framework Version
INSTRUMENTVERSION	LABEL	3.50	Instrument Version
ZCURVE	TABLE
	Pt	Time	Freq	Zreal	Zimag	Zsig	Zmod	Zphz	Idc	Vdc	IERange
	#	s	Hz	ohm	ohm	V	ohm	°	A	V	#
	0	1	1000078	2209.349	-1958.868	1	2952.691	-41.56105	-8.254025E-006	0.0082053	8
	1	1	794390.6	2602.687	-1984.739	1	3273.098	-37.32817	1.091184E-005	0.0054807	8
	2	1	630984.4	2975.342	-1954.193	1	3559.709	-33.29676	-2.620053E-006	0.0058993	8
	3	2	501234.4	3336.331	-1875.806	1	3827.5	-29.34627	-6.842202E-007	0.0066705	8
	4	2	398109.4	3673.706	-1785.226	1	4084.501	-25.91728	2.691607E-006	0.0055107	8
	5	2	316265.6	3945.031	-1653.596	1	4277.575	-22.74144	4.901942E-007	0.0064994	8
	6	3	251203.1	4204.967	-1496.74	1	4463.405	-19.59297	6.105574E-007	0.0064807	8
	7	3	199546.9	4424.445	-1376.069	1	4633.495	-17.27649	-2.574693E-008	0.0057435	8
	8	3	158578.1	4594.651	-1236.145	1	4758.033	-15.05829	5.971093E-006	0.0053667	8
	9	4	125953.1	4779.3	-1041.751	1	4891.518	-12.29651	-4.511542E-007	0.003693	7
	10	4	100078.1	4893.896	-939.7245	1	4983.302	-10.86962	1.092582E-006	0.0041715	7
	11	4	79453.13	4992.403	-857.3019	1	5065.477	-9.74387	6.557026E-007	0.0062817	7
	12	4	63140.62	5070.16	-784.4615	1	5130.488	-8.795135	1.474537E-007	0.0044923	7
	13	5	50203.12	5150.019	-734.4991	1	5202.133	-8.116823	9.018127E-007	0.005808	7
	14	5	39890.62	5213.273	-698.6479	1	5259.879	-7.632918	8.764248E-007	0.0040487	7
	15	5	31640.63	5269.235	-682.546	1	5313.257	-7.380665	-3.373468E-007	0.0075163	7
	16	6	25171.88	5321.564	-681.5043	1	5365.025	-7.297842	-1.216515E-006	0.0077893	7
	17	6	20015.62	5388.311	-698.2729	1	5433.367	-7.383829	8.766296E-007	0.0040515	7
	18	6	15890.62	5445.525	-735.0391	1	5494.909	-7.687345	4.073641E-007	0.0066232	7
	19	7	12609.37	5511.546	-793.5269	1	5568.377	-8.192881	1.214394E-006	0.0047762	7
	20	7	10078.13	5563.146	-871.2986	1	5630.964	-8.90134	-3.20096E-007	0.0050488	7
	21	7	8015.625	5624.778	-965.353	1	5707.016	-9.73851	-1.216731E-006	0.0077829	7
	22	8	6328.125	5709.365	-1097.313	1	5813.858	-10.87932	1.094631E-006	0.0041484	7
	23	8	5015.625	5783.063	-1257.865	1	5918.28	-12.27118	4.08058E-007	0.0066252	7
	24	8	3984.375	5859.292	-1461.89	1	6038.909	-14.00925	-3.379015E-007	0.007512	7
	25	9	3170.956	5955.615	-1709.99	1	6196.242	-16.01995	5.620061E-008	0.0070853	7
	26	9	2527.573	6056.537	-2015.873	1	6383.211	-18.40964	5.572314E-007	0.004156	7
	27	9	1976.103	6182.387	-2426.952	1	6641.687	-21.43294	8.736764E-007	0.004043	7
	28	10	1577.524	6317.682	-2914.347	1	6957.48	-24.76388	1.111053E-006	0.0052589	7
	29	10	1265.625	6466.07	-3439.864	1	7324.119	-28.01239	5.554234E-007	0.0041503	7
	30	10	998.264	6663.154	-4170.722	1	7860.823	-32.04402	1.094213E-006	0.0041442	7
	31	11	796.875	6875.377	-5015.212	1	8510.181	-36.10871	8.72224E-007	0.0040406	7
	32	11	627.7902	7156.626	-6108.293	1	9408.961	-40.48128	8.718794E-007	0.0040351	7
	33	11	505.5147	7456.479	-7319.572	1	10448.69	-44.46914	9.026219E-007	0.0057929	7
	34	12	397.9953	7863.663	-8934.701	1	11902.36	-48.64816	4.087874E-009	0.0060254	7
	35	12	315.5048	8348.885	-10868.73	1	13705.22	-52.4701	-4.543109E-010	0.0059672	6
	36	12	252.4038	8914.854	-13138.13	1	15877.19	-55.84122	6.017583E-010	0.0059577	6
	37	13	198.6229	9671.24	-16131.73	1	18808.66	-59.05661	4.524039E-011	0.0059732	6
	38	13	158.3615	10573.17	-19590.44	1	22261.57	-61.6438	7.055569E-010	0.0059587	6
	39	13	125.558	11796.41	-23915.8	1	26666.85	-63.74529	2.41952E-010	0.0059667	6
	40	14	100.4464	13266.14	-28933.76	1	31830.07	-65.36853	8.321055E-010	0.0059638	6
	41	14	79.00281	15480.63	-35414.5	1	38650.18	-66.38856	1.100478E-009	0.005951	6
	42	14	63.3446	18324.02	-43281.01	1	47000.16	-67.0535	-1.840086E-010	0.0059598	6
	43	15	49.86702	21976.22	-52476.23	1	56892.08	-67.27683	3.601918E-011	0.0059545	6
	44	15	39.72458	26878.13	-62388.6	1	67932.1	-66.69276	3.10861E-010	0.0059616	6
	45	15	31.6723	33143.99	-74598.45	1	81629.97	-66.04449	-3.669092E-010	0.0059585	6
	46	16	24.93351	41397.69	-88748.76	1	97929.1	-64.99286	1.15261E-009	0.0059539	6
	47	16	19.86229	51301.74	-104077.5	1	116034.5	-63.76046	7.051253E-010	0.0059636	5
	48	16	15.83615	63352.11	-121238.6	1	136792.9	-62.41111	2.528397E-010	0.0059604	5
	49	17	12.40079	79784.61	-141519	1	162459.9	-60.58687	-5.701611E-010	0.0059627	5
	50	17	9.93114	97482.9	-160480.3	1	187768	-58.72365	-5.039096E-010	0.0059705	5
	51	18	7.944915	117551.6	-181685.3	1	216397.6	-57.09685	7.161526E-010	0.0059523	5
	52	18	6.317385	140014.8	-206017.1	1	249092.8	-55.79891	7.775012E-010	0.0059411	5
	53	19	5.008013	166614.8	-232000.8	1	285630.7	-54.31543	3.095899E-010	0.005959	5
	54	20	3.945707	195351.8	-260589.2	1	325682.4	-53.14278	1.165128E-010	0.0059609	5
	55	21	3.158693	224476.5	-291395.4	1	367832.8	-52.39113	-1.528627E-010	0.0059519	5
	56	23	2.504006	256727.3	-326926.4	1	415679.9	-51.85833	-7.358483E-011	0.0059473	5
	57	24	1.998082	290289.7	-367018.2	1	467942.8	-51.65808	1.886124E-010	0.0059942	5
	58	26	1.584686	325391.7	-415519	1	527764.9	-51.93561	5.220684E-011	0.0059708	5
	59	28	1.266892	363026.9	-470487.7	1	594261.9	-52.34634	-1.757654E-011	0.005929	5
	60	30	0.999041	407231.9	-541976.2	1	677920.4	-53.07941	-7.12124E-011	0.0059078	5
