EXPLAIN
TAG	EISPOT
TITLE	LABEL	Potentiostatic EIS	Test &Identifier
DATE	LABEL	10/4/2019	Date
TIME	LABEL	8:53:11	Time
NOTES	NOTES	2	&Notes...
	
	
PSTAT	PSTAT	REF600-11020	Potentiostat
VDC	POTEN	0.00000E+000	T	DC &Voltage (V)
FREQINIT	QUANT	1.00000E+006	Initial Fre&q. (Hz)
FREQFINAL	QUANT	1.00000E+000	Final Fre&q. (Hz)
PTSPERDEC	QUANT	1.00000E+001	Points/&decade
VAC	QUANT	2.50000E+001	AC &Voltage (mV rms)
AREA	QUANT	1.00000E-002	&Area (cm^2)
CONDIT	TWOPARAM	T	5.00000E+000	0.00000E+000	Conditionin&g	Time(s)	E(V)
DELAY	TWOPARAM	T	5.00000E+000	0.00000E+000	Init. De&lay	Time(s)	Stab.(mV/s)
SPEED	SELECTOR	1	&Optimize for:
ZGUESS	QUANT	1.00000E+004	E&stimated Z (ohms)
OCVCURVE	TABLE	19
	Pt	T	Vf	Vm	Ach	Over
	#	s	V vs. Ref.	V	V	bits
	0	0.258333	4.96636E-003	4.96636E-003	5.57833E-004	...........
	1	0.516667	4.96492E-003	4.89071E-003	5.56733E-004	...........
	2	0.775	4.95632E-003	4.83354E-003	5.58332E-004	...........
	3	1.03333	4.93315E-003	4.79070E-003	5.57399E-004	...........
	4	1.29167	4.89473E-003	4.76182E-003	5.51866E-004	...........
	5	1.55	4.84926E-003	4.74273E-003	5.51199E-004	...........
	6	1.80833	4.80679E-003	4.72673E-003	5.55866E-004	...........
	7	2.06667	4.77290E-003	4.71567E-003	5.57566E-004	...........
	8	2.325	4.74820E-003	4.70823E-003	5.56333E-004	...........
	9	2.58333	4.73086E-003	4.70499E-003	5.55266E-004	...........
	10	2.84167	4.71902E-003	4.70527E-003	5.49933E-004	...........
	11	3.1	4.71150E-003	4.70783E-003	5.55966E-004	...........
	12	3.35833	4.70765E-003	4.71090E-003	5.58999E-004	...........
	13	3.61667	4.70694E-003	4.72159E-003	5.58032E-004	...........
	14	3.875	4.70903E-003	4.72830E-003	5.56999E-004	...........
	15	4.13333	4.71369E-003	4.73795E-003	5.57699E-004	...........
	16	4.39167	4.72039E-003	4.74731E-003	5.55433E-004	...........
	17	4.65	4.72845E-003	4.75704E-003	5.63299E-004	...........
	18	4.90833	4.73728E-003	4.76416E-003	5.55866E-004	...........
EOC	QUANT	0.0047373	Open Circuit (V)
PSTATMODEL	IQUANT	4	Pstat Model
PSTATSECTION	LABEL	REF600-11020	Pstat Section
PSTATSERIALNO	LABEL	11020	Pstat Serial Number
CTRLMODE	IQUANT	1	Control Mode
IESTAB	IQUANT	0	I/E Stability
CASPEED	IQUANT	1	Control Amp Speed
CONVENTION	IQUANT	1	Current Convention
ICHRANGE	IQUANT	2	Ich Range
ICHRANGEMODE	TOGGLE	F	Ich Auto Range
ICHOFFSETENABLE	TOGGLE	T	Ich Offset Enable
ICHOFFSET	QUANT	0	Ich Offset (V)
ICHFILTER	IQUANT	3	Ich Filter
VCHRANGE	IQUANT	2	Vch Range
VCHRANGEMODE	TOGGLE	F	Vch Auto Range
VCHOFFSETENABLE	TOGGLE	T	Vch Offset Enable
VCHOFFSET	QUANT	0	Vch Offset (V)
VCHFILTER	IQUANT	3	Vch Filter
ACHRANGE	IQUANT	2	Ach Range
ACHOFFSETENABLE	TOGGLE	F	Ach Offset Enable
ACHOFFSET	QUANT	0	Ach Offset (V)
ACHFILTER	IQUANT	3	Ach Filter
IERANGELOWERLIMIT	IQUANT	1	I/E Range Lower Limit
IERANGEMODE	TOGGLE	F	I/E AutoRange
IERANGE	IQUANT	5	I/E Range
POSFEEDENABLE	TOGGLE	F	Positive Feedback IR Comp
POSFEEDRESISTANCE	QUANT	0	Positive Feedback Resistance (ohm)
ACHSELECT	IQUANT	0	Ach Select
CABLEID	IQUANT	14	Cable ID
DCCALDATE	LABEL	8/19/2019	DC Calibration Date
ACCALDATE	LABEL	8/19/2019	AC Calibration Date
THERMOSELECT	IQUANT	1	Thermo Select
FRAMEWORKVERSION	QUANT	6.33	Framework Version
INSTRUMENTVERSION	LABEL	3.50	Instrument Version
ZCURVE	TABLE
	Pt	Time	Freq	Zreal	Zimag	Zsig	Zmod	Zphz	Idc	Vdc	IERange
	#	s	Hz	ohm	ohm	V	ohm	°	A	V	#
	0	2	1000078	2009.962	-870.5792	1	2190.401	-23.41899	4.430706E-006	0.0060475	8
	1	3	794390.6	2148.149	-776.6203	1	2284.225	-19.87645	3.841429E-006	0.0054719	8
	2	4	630984.4	2263.529	-683.821	1	2364.567	-16.80977	-4.552476E-006	0.0072721	8
	3	6	501234.4	2346.216	-590.0734	1	2419.28	-14.1171	-9.256788E-007	0.0067831	8
	4	7	398109.4	2413.263	-506.5497	1	2465.853	-11.85442	7.46878E-007	0.0063308	8
	5	9	316265.6	2449.759	-443.6439	1	2489.606	-10.26484	9.404496E-007	0.0062997	8
	6	10	251203.1	2490.235	-375.8518	1	2518.439	-8.582887	-8.619668E-007	0.0062776	8
	7	11	199546.9	2521.386	-339.8591	1	2544.188	-7.676664	3.479322E-006	0.005711	8
	8	13	158578.1	2557.414	-299.9198	1	2574.94	-6.68879	1.828022E-006	0.0059609	8
	9	14	125953.1	2590.913	-242.1252	1	2602.202	-5.338882	9.30769E-007	0.0041906	7
	10	15	100078.1	2606.075	-231.4459	1	2616.333	-5.07513	-1.770334E-008	0.0063536	7
	11	17	79453.13	2625.736	-229.9791	1	2635.789	-5.005564	8.810163E-008	0.0062124	7
	12	18	63140.62	2646.842	-233.9188	1	2657.158	-5.050483	-4.010645E-008	0.00638	7
	13	19	50203.12	2669.911	-241.334	1	2680.796	-5.164946	-1.599838E-008	0.0063455	7
	14	21	39890.62	2694.818	-252.5788	1	2706.629	-5.354552	-5.958398E-008	0.0063958	7
	15	22	31640.63	2721.341	-269.8257	1	2734.686	-5.662468	-7.184807E-008	0.0063796	7
	16	24	25171.88	2749.1	-291.3621	1	2764.496	-6.049882	1.686716E-008	0.0062048	7
	17	25	20015.62	2778.954	-320.005	1	2797.318	-6.568851	-7.156366E-008	0.0064936	7
	18	26	15890.62	2813.122	-351.1438	1	2834.953	-7.115059	7.175168E-009	0.0063752	7
	19	28	12609.37	2850.853	-391.499	1	2877.609	-7.819346	7.580329E-008	0.0061266	7
	20	29	10078.13	2890.385	-436.4791	1	2923.156	-8.587393	-1.832359E-008	0.0063387	7
	21	30	8015.625	2933.976	-491.6877	1	2974.89	-9.51346	-5.713201E-008	0.006394	7
	22	32	6328.125	2982.925	-557.7551	1	3034.622	-10.59101	4.698844E-008	0.0061428	7
	23	33	5015.625	3035.492	-636.0447	1	3101.414	-11.83431	-7.545582E-009	0.0062753	7
	24	34	3984.375	3092.174	-728.1774	1	3176.756	-13.25118	-5.73461E-008	0.0063678	7
	25	36	3170.956	3151.773	-837.0633	1	3261.035	-14.87353	-5.838843E-008	0.0063932	7
	26	37	2527.573	3214.907	-966.715	1	3357.106	-16.73592	-6.478232E-009	0.0062796	7
	27	39	1976.103	3289.482	-1137.076	1	3480.465	-19.06874	6.670453E-009	0.0062602	7
	28	40	1577.524	3360.397	-1328.437	1	3613.449	-21.56995	1.959719E-008	0.0061999	7
	29	41	1265.625	3433.732	-1555.695	1	3769.708	-24.3735	4.698528E-008	0.00614	7
	30	43	998.264	3515.29	-1860.274	1	3977.17	-27.88757	7.833627E-008	0.0061258	7
	31	44	796.875	3600.329	-2220.021	1	4229.759	-31.65865	7.757226E-008	0.0061286	7
	32	45	627.7902	3700.124	-2694.951	1	4577.519	-36.06738	4.849887E-008	0.0061423	7
	33	47	505.5147	3802.748	-3232.586	1	4991.042	-40.36673	-5.021796E-009	0.0062317	7
	34	48	397.9953	3932.193	-3966.752	1	5585.451	-45.25068	4.682409E-009	0.0063078	7
	35	49	315.5048	4085.843	-4858.019	1	6347.792	-49.93444	4.712447E-009	0.0063058	7
	36	51	252.4038	4265.778	-5915.519	1	7293.163	-54.204	5.161402E-009	0.0063034	7
	37	52	198.6229	4509.038	-7322.389	1	8599.349	-58.37574	5.482716E-009	0.0063047	7
	38	54	158.3615	4801.23	-8968.425	1	10172.73	-61.83771	4.904714E-009	0.0063038	7
	39	55	125.558	5184.723	-11041.99	1	12198.65	-64.84779	7.937728E-010	0.0062463	6
	40	56	100.4464	5651.907	-13486.77	1	14623.17	-67.26289	8.136238E-010	0.0062388	6
	41	58	79.00281	6314.807	-16705.14	1	17858.85	-69.29261	2.412999E-010	0.0062401	6
	42	59	63.3446	7054.686	-20288.6	1	21480.13	-70.82658	6.120615E-010	0.0062409	6
	43	60	49.86702	8272.484	-25154.84	1	26480.18	-71.7959	6.130579E-010	0.0062369	6
	44	62	39.72458	9595.68	-30721.47	1	32185.18	-72.6541	4.175154E-010	0.0062393	6
	45	63	31.6723	11320.13	-37424.36	1	39098.95	-73.17047	1.037265E-009	0.0062378	6
	46	65	24.93351	13780.25	-45995.74	1	48015.66	-73.32186	5.482725E-010	0.0062416	6
	47	66	19.86229	16803.09	-55875.3	1	58347.17	-73.26266	6.427381E-010	0.0062434	6
	48	67	15.83615	20552.59	-67311.65	1	70379.45	-73.02074	1.80569E-010	0.0062412	6
	49	69	12.40079	26047.3	-82631.58	1	86639.71	-72.504	1.519513E-010	0.0062461	6
	50	70	9.93114	32125.67	-99039.4	1	104119.5	-72.02836	5.738254E-011	0.0062451	6
	51	72	7.944915	39942.64	-118295.6	1	124857	-71.34269	8.068309E-010	0.006244	5
	52	73	6.317385	50040.66	-141571.2	1	150154.8	-70.53321	5.672414E-010	0.0062554	5
	53	75	5.008013	62739.26	-169387.1	1	180632.7	-69.67588	4.006167E-010	0.006255	5
	54	78	3.945707	78814.02	-202710	1	217492.5	-68.75382	1.747312E-010	0.006254	5
	55	80	3.158693	97467.2	-238718.8	1	257849.8	-67.79015	1.927467E-010	0.0062625	5
	56	84	2.504006	120774	-282421.7	1	307161.8	-66.84665	4.662214E-011	0.006242	5
	57	86	1.998082	147847.3	-330822.9	1	362357	-65.91977	-1.471853E-010	0.0062641	5
	58	90	1.584686	181699.5	-389011.1	1	429353.4	-64.96364	1.804719E-010	0.0062965	5
	59	93	1.266892	220200.6	-451996.4	1	502781.3	-64.02589	-1.325068E-010	0.0062793	5
	60	98	0.999041	267654.2	-529427.3	1	593238.6	-63.18093	2.516581E-010	0.0062318	5
