EXPLAIN
TAG	EISPOT
TITLE	LABEL	Potentiostatic EIS	Test &Identifier
DATE	LABEL	11/7/2019	Date
TIME	LABEL	8:48:20	Time
NOTES	NOTES	2	&Notes...
	
	
PSTAT	PSTAT	REF600-11020	Potentiostat
VDC	POTEN	0.00000E+000	T	DC &Voltage (V)
FREQINIT	QUANT	1.00000E+006	Initial Fre&q. (Hz)
FREQFINAL	QUANT	1.00000E+000	Final Fre&q. (Hz)
PTSPERDEC	QUANT	1.00000E+001	Points/&decade
VAC	QUANT	2.50000E+001	AC &Voltage (mV rms)
AREA	QUANT	1.00000E-002	&Area (cm^2)
CONDIT	TWOPARAM	T	5.00000E+000	0.00000E+000	Conditionin&g	Time(s)	E(V)
DELAY	TWOPARAM	T	5.00000E+000	0.00000E+000	Init. De&lay	Time(s)	Stab.(mV/s)
SPEED	SELECTOR	1	&Optimize for:
ZGUESS	QUANT	1.00000E+005	E&stimated Z (ohms)
OCVCURVE	TABLE	19
	Pt	T	Vf	Vm	Ach	Over
	#	s	V vs. Ref.	V	V	bits
	0	0.258333	2.07344E-003	2.07344E-003	5.74165E-004	...........
	1	0.516667	2.06841E-003	1.81061E-003	5.77699E-004	...........
	2	0.775	2.03797E-003	1.58160E-003	5.73199E-004	...........
	3	1.03333	1.95326E-003	1.36953E-003	5.72832E-004	...........
	4	1.29167	1.80504E-003	1.17718E-003	5.76599E-004	...........
	5	1.55	1.61336E-003	9.96302E-004	5.78832E-004	...........
	6	1.80833	1.40774E-003	8.33233E-004	5.74266E-004	...........
	7	2.06667	1.20838E-003	6.74033E-004	5.67966E-004	...........
	8	2.325	1.02315E-003	5.28381E-004	5.75732E-004	...........
	9	2.58333	8.52322E-004	3.88414E-004	5.71966E-004	...........
	10	2.84167	6.93576E-004	2.53287E-004	5.70732E-004	...........
	11	3.1	5.44460E-004	1.25361E-004	5.77499E-004	...........
	12	3.35833	4.03061E-004	1.84055E-006	5.73999E-004	...........
	13	3.61667	2.68199E-004	-1.13134E-004	5.68266E-004	...........
	14	3.875	1.39338E-004	-2.27783E-004	5.73965E-004	...........
	15	4.13333	1.61739E-005	-3.33196E-004	5.73299E-004	...........
	16	4.39167	-1.01788E-004	-4.45880E-004	5.73766E-004	...........
	17	4.65	-2.15441E-004	-5.47145E-004	5.72732E-004	...........
	18	4.90833	-3.25771E-004	-6.50943E-004	5.72966E-004	...........
EOC	QUANT	-0.0003258	Open Circuit (V)
PSTATMODEL	IQUANT	4	Pstat Model
PSTATSECTION	LABEL	REF600-11020	Pstat Section
PSTATSERIALNO	LABEL	11020	Pstat Serial Number
CTRLMODE	IQUANT	1	Control Mode
IESTAB	IQUANT	0	I/E Stability
CASPEED	IQUANT	1	Control Amp Speed
CONVENTION	IQUANT	1	Current Convention
ICHRANGE	IQUANT	2	Ich Range
ICHRANGEMODE	TOGGLE	F	Ich Auto Range
ICHOFFSETENABLE	TOGGLE	T	Ich Offset Enable
ICHOFFSET	QUANT	0	Ich Offset (V)
ICHFILTER	IQUANT	3	Ich Filter
VCHRANGE	IQUANT	2	Vch Range
VCHRANGEMODE	TOGGLE	F	Vch Auto Range
VCHOFFSETENABLE	TOGGLE	T	Vch Offset Enable
VCHOFFSET	QUANT	0	Vch Offset (V)
VCHFILTER	IQUANT	3	Vch Filter
ACHRANGE	IQUANT	2	Ach Range
ACHOFFSETENABLE	TOGGLE	F	Ach Offset Enable
ACHOFFSET	QUANT	0	Ach Offset (V)
ACHFILTER	IQUANT	3	Ach Filter
IERANGELOWERLIMIT	IQUANT	1	I/E Range Lower Limit
IERANGEMODE	TOGGLE	F	I/E AutoRange
IERANGE	IQUANT	3	I/E Range
POSFEEDENABLE	TOGGLE	F	Positive Feedback IR Comp
POSFEEDRESISTANCE	QUANT	0	Positive Feedback Resistance (ohm)
ACHSELECT	IQUANT	0	Ach Select
CABLEID	IQUANT	14	Cable ID
DCCALDATE	LABEL	8/19/2019	DC Calibration Date
ACCALDATE	LABEL	8/19/2019	AC Calibration Date
THERMOSELECT	IQUANT	1	Thermo Select
FRAMEWORKVERSION	QUANT	6.33	Framework Version
INSTRUMENTVERSION	LABEL	3.50	Instrument Version
ZCURVE	TABLE
	Pt	Time	Freq	Zreal	Zimag	Zsig	Zmod	Zphz	Idc	Vdc	IERange
	#	s	Hz	ohm	ohm	V	ohm	°	A	V	#
	0	2	1000078	1970.285	-1289.146	1	2354.553	-33.1965	-5.05733E-006	0.0018822	8
	1	3	794390.6	2260.893	-1262.104	1	2589.313	-29.17167	7.359984E-006	0.0016221	8
	2	4	630984.4	2490.037	-1195.296	1	2762.067	-25.64247	-4.95192E-006	0.0013835	8
	3	6	501234.4	2692.763	-1098.09	1	2908.054	-22.18529	-3.418402E-007	0.001916	8
	4	7	398109.4	2859.621	-986.329	1	3024.943	-19.03013	7.016583E-006	0.0004794	8
	5	8	316265.6	3004.451	-891.5251	1	3133.934	-16.52746	-2.611965E-006	0.0014405	8
	6	10	251203.1	3118.217	-782.1628	1	3214.818	-14.08135	2.196362E-006	0.0015857	8
	7	11	199546.9	3198.483	-693.0657	1	3272.71	-12.22617	2.037152E-006	0.0015778	8
	8	13	158578.1	3272.446	-612.4398	1	3329.262	-10.60031	4.136562E-006	0.0012419	8
	9	14	125953.1	3353.881	-503.507	1	3391.465	-8.537865	-1.767399E-006	0.0046405	7
	10	15	100078.1	3407.083	-445.3171	1	3436.062	-7.446538	8.62297E-008	0.0022597	7
	11	17	79453.13	3445.309	-423.046	1	3471.184	-7.00025	-1.307019E-006	0.0024077	7
	12	18	63140.62	3485.395	-408.6946	1	3509.275	-6.687917	6.690107E-007	0.0014245	7
	13	19	50203.12	3526.238	-396.0874	1	3548.413	-6.408929	9.007314E-007	0.0009786	7
	14	21	39890.62	3556.968	-393.0295	1	3578.616	-6.305357	-6.579545E-007	0.0029375	7
	15	22	31640.63	3593.607	-398.1564	1	3615.597	-6.322343	-9.553356E-007	0.0030298	7
	16	23	25171.88	3634.079	-416.1654	1	3657.831	-6.532907	5.10811E-007	-0.0005515	7
	17	25	20015.62	3673.496	-440.877	1	3699.858	-6.843657	1.047614E-006	-0.0005892	7
	18	26	15890.62	3708.392	-473.5544	1	3738.505	-7.277174	8.765335E-008	0.0022467	7
	19	28	12609.37	3742.776	-516.7391	1	3778.279	-7.860737	-1.129563E-006	0.0017912	7
	20	29	10078.13	3778.318	-567.3699	1	3820.68	-8.539993	-1.173523E-006	0.0029668	7
	21	30	8015.625	3830.242	-650.1076	1	3885.022	-9.63302	1.154352E-007	-0.0002368	7
	22	32	6328.125	3874.735	-749.9971	1	3946.653	-10.95475	-6.551573E-007	0.0029314	7
	23	33	5015.625	3928.61	-872.849	1	4024.406	-12.52637	4.339068E-007	0.0017675	7
	24	34	3984.375	3986.472	-1024.414	1	4115.991	-14.41163	1.046492E-006	-0.0005939	7
	25	36	3170.956	4041.281	-1206.727	1	4217.599	-16.62563	5.126988E-007	-0.0005624	7
	26	37	2527.573	4107.515	-1430.508	1	4349.487	-19.2015	-2.987634E-007	0.0026681	7
	27	39	1976.103	4191.808	-1732.894	1	4535.876	-22.46021	-3.000214E-007	0.0026545	7
	28	40	1577.524	4265.953	-2068.405	1	4740.955	-25.86705	-9.547184E-007	0.0030209	7
	29	41	1265.625	4385.046	-2474.563	1	5035.086	-29.43684	-1.127104E-006	0.0017842	7
	30	43	998.264	4512.517	-3006.055	1	5422.101	-33.66994	-6.542566E-007	0.0029301	7
	31	44	796.875	4649.231	-3629.653	1	5898.282	-37.97915	5.142958E-007	-0.0005623	7
	32	45	627.7902	4824.968	-4426.844	1	6548.073	-42.53596	-9.558238E-007	0.0030246	7
	33	47	505.5147	4984.225	-5340.219	1	7304.823	-46.97482	1.186623E-006	-1.46402E-005	7
	34	48	397.9953	5232.071	-6554.17	1	8386.4	-51.40029	1.910526E-009	0.0012471	7
	35	50	315.5048	5506.917	-8028.435	1	9735.6	-55.55274	6.330327E-009	0.0012418	7
	36	51	252.4038	5835.372	-9775.62	1	11384.83	-59.1657	6.165554E-010	0.0011858	6
	37	53	198.6229	6276.19	-12091.93	1	13623.71	-62.56891	1.147539E-009	0.0011792	6
	38	54	158.3615	6809.874	-14794.25	1	16286.32	-65.28313	1.988021E-010	0.0011891	6
	39	55	125.558	7518.953	-18195.75	1	19688.07	-67.54833	4.071107E-010	0.0011893	6
	40	57	100.4464	8424.634	-22198.99	1	23743.84	-69.21799	6.774287E-011	0.0011826	6
	41	58	79.00281	9619.27	-27498.93	1	29132.83	-70.71989	-3.273713E-011	0.0011769	6
	42	59	63.3446	10822.27	-33350.92	1	35062.88	-72.02191	1.733737E-009	0.0011723	6
	43	61	49.86702	13557.13	-40815.86	1	43008.49	-71.62592	1.437762E-009	0.0011767	6
	44	62	39.72458	16159.02	-49915.78	1	52466.17	-72.0619	9.246106E-010	0.0011698	6
	45	64	31.6723	19828.96	-60563.51	1	63726.97	-71.87116	6.325249E-010	0.001174	6
	46	65	24.93351	24708.39	-73893.69	1	77915.22	-71.51122	9.268628E-010	0.0011702	6
	47	67	19.86229	31225.84	-88989.55	1	94309.03	-70.66437	1.316476E-009	0.0011778	6
	48	68	15.83615	39771.81	-107407.3	1	114534.4	-69.68092	2.316122E-009	0.0011778	5
	49	69	12.40079	49864.94	-127681.1	1	137072.8	-68.66722	7.218192E-011	0.0011777	5
	50	71	9.93114	63522.8	-151954.5	1	164697.6	-67.3132	4.302279E-010	0.001191	5
	51	72	7.944915	79714.35	-177975.8	1	195012.2	-65.87266	-1.516673E-010	0.0011826	5
	52	74	6.317385	102265	-207465.7	1	231301	-63.76017	1.189329E-010	0.0011708	5
	53	76	5.008013	128838.1	-240534.1	1	272866.1	-61.82501	5.14769E-012	0.0011837	5
	54	79	3.945707	160422.3	-276889.7	1	320005	-59.91317	6.186569E-011	0.0011736	5
	55	81	3.158693	195124.1	-313499.5	1	369263.3	-58.1016	3.379148E-010	0.0011855	5
	56	85	2.504006	235588.6	-354704.4	1	425813.5	-56.40857	-1.545135E-010	0.0011823	5
	57	87	1.998082	278294.8	-396617.4	1	484513.6	-54.94379	3.2048E-010	0.0011387	5
	58	91	1.584686	325405.4	-445203.5	1	551447.9	-53.83641	3.695503E-011	0.0011868	5
	59	94	1.266892	375954.6	-497389.1	1	623488.4	-52.91597	1.460559E-010	0.0011404	5
	60	99	0.999041	432513.9	-560003.3	1	707581.8	-52.31959	3.183518E-010	0.0012197	5
