EXPLAIN
TAG	EISPOT
TITLE	LABEL	Potentiostatic IDE	Test &Identifier
DATE	LABEL	9/4/2019	Date
TIME	LABEL	12:14:46	Time
NOTES	NOTES	1	&Notes...
	
PSTAT	PSTAT	REF600-11020	Potentiostat
VDC	POTEN	0.00000E+000	T	DC &Voltage (V)
FREQINIT	QUANT	1.00000E+006	Initial Fre&q. (Hz)
FREQFINAL	QUANT	1.00000E+000	Final Fre&q. (Hz)
PTSPERDEC	QUANT	1.00000E+001	Points/&decade
VAC	QUANT	2.50000E+001	AC &Voltage (mV rms)
AREA	QUANT	1.00000E-002	&Area (cm^2)
CONDIT	TWOPARAM	T	5.00000E+000	0.00000E+000	Conditionin&g	Time(s)	E(V)
DELAY	TWOPARAM	T	5.00000E+000	0.00000E+000	Init. De&lay	Time(s)	Stab.(mV/s)
SPEED	SELECTOR	1	&Optimize for:
ZGUESS	QUANT	1.00000E+007	E&stimated Z (ohms)
OCVCURVE	TABLE	19
	Pt	T	Vf	Vm	Ach	Over
	#	s	V vs. Ref.	V	V	bits
	0	0.258333	6.32929E-002	6.32929E-002	5.72699E-004	...........
	1	0.516667	6.33083E-002	6.40999E-002	5.72066E-004	...........
	2	0.775	6.34091E-002	6.51877E-002	5.71299E-004	...........
	3	1.03333	6.37000E-002	6.54514E-002	5.74332E-004	...........
	4	1.29167	6.41994E-002	6.59301E-002	5.73332E-004	...........
	5	1.55	6.47990E-002	6.65249E-002	5.75365E-004	...........
	6	1.80833	6.53893E-002	6.70945E-002	5.73532E-004	...........
	7	2.06667	6.59491E-002	6.77419E-002	5.74499E-004	...........
	8	2.325	6.65065E-002	6.83077E-002	5.76166E-004	...........
	9	2.58333	6.70800E-002	6.88710E-002	5.75599E-004	...........
	10	2.84167	6.76644E-002	6.94109E-002	5.74732E-004	...........
	11	3.1	6.82444E-002	6.99241E-002	5.73132E-004	...........
	12	3.35833	6.88082E-002	7.04379E-002	5.72299E-004	...........
	13	3.61667	6.93515E-002	7.08939E-002	5.68132E-004	...........
	14	3.875	6.98730E-002	7.13606E-002	5.72166E-004	...........
	15	4.13333	7.03735E-002	7.18508E-002	5.67532E-004	...........
	16	4.39167	7.08591E-002	7.23730E-002	5.68699E-004	...........
	17	4.65	7.13391E-002	7.27421E-002	5.68766E-004	...........
	18	4.90833	7.18132E-002	7.31242E-002	5.75999E-004	...........
EOC	QUANT	0.0718132	Open Circuit (V)
PSTATMODEL	IQUANT	4	Pstat Model
PSTATSECTION	LABEL	REF600-11020	Pstat Section
PSTATSERIALNO	LABEL	11020	Pstat Serial Number
CTRLMODE	IQUANT	1	Control Mode
IESTAB	IQUANT	0	I/E Stability
CASPEED	IQUANT	1	Control Amp Speed
CONVENTION	IQUANT	1	Current Convention
ICHRANGE	IQUANT	2	Ich Range
ICHRANGEMODE	TOGGLE	F	Ich Auto Range
ICHOFFSETENABLE	TOGGLE	T	Ich Offset Enable
ICHOFFSET	QUANT	0	Ich Offset (V)
ICHFILTER	IQUANT	3	Ich Filter
VCHRANGE	IQUANT	2	Vch Range
VCHRANGEMODE	TOGGLE	F	Vch Auto Range
VCHOFFSETENABLE	TOGGLE	T	Vch Offset Enable
VCHOFFSET	QUANT	0	Vch Offset (V)
VCHFILTER	IQUANT	3	Vch Filter
ACHRANGE	IQUANT	2	Ach Range
ACHOFFSETENABLE	TOGGLE	F	Ach Offset Enable
ACHOFFSET	QUANT	0	Ach Offset (V)
ACHFILTER	IQUANT	3	Ach Filter
IERANGELOWERLIMIT	IQUANT	1	I/E Range Lower Limit
IERANGEMODE	TOGGLE	F	I/E AutoRange
IERANGE	IQUANT	4	I/E Range
POSFEEDENABLE	TOGGLE	F	Positive Feedback IR Comp
POSFEEDRESISTANCE	QUANT	0	Positive Feedback Resistance (ohm)
ACHSELECT	IQUANT	0	Ach Select
CABLEID	IQUANT	14	Cable ID
DCCALDATE	LABEL	8/19/2019	DC Calibration Date
ACCALDATE	LABEL	8/19/2019	AC Calibration Date
THERMOSELECT	IQUANT	1	Thermo Select
FRAMEWORKVERSION	QUANT	6.33	Framework Version
INSTRUMENTVERSION	LABEL	3.50	Instrument Version
ZCURVE	TABLE
	Pt	Time	Freq	Zreal	Zimag	Zsig	Zmod	Zphz	Idc	Vdc	IERange
	#	s	Hz	ohm	ohm	V	ohm	°	A	V	#
	0	1	1000078	2361.683	-2101.053	1	3161.008	-41.65763	7.26375E-006	0.0734217	8
	1	3	794390.6	2758.83	-2005.939	1	3411.002	-36.02082	9.182558E-006	0.0733408	8
	2	5	630984.4	3135.622	-1919.012	1	3676.239	-31.46679	1.325784E-005	0.0723731	8
	3	6	501234.4	3471.793	-1735.57	1	3881.437	-26.56074	1.240293E-005	0.0723476	8
	4	8	398109.4	3717.105	-1545.058	1	4025.428	-22.57078	1.069938E-005	0.0727813	8
	5	9	316265.6	3932.507	-1418.494	1	4180.519	-19.83487	9.886474E-006	0.0729462	8
	6	11	251203.1	4106.828	-1266.732	1	4297.749	-17.14214	8.73403E-006	0.0729577	8
	7	12	199546.9	4224.645	-1129.064	1	4372.918	-14.96297	1.070062E-005	0.0727577	8
	8	14	158578.1	4328.474	-1048.791	1	4453.723	-13.6203	1.080711E-005	0.0728776	8
	9	15	125953.1	4420.298	-983.908	1	4528.478	-12.54881	1.18614E-006	0.0721372	7
	10	17	100078.1	4494.291	-939.4927	1	4591.438	-11.80716	8.924943E-007	0.0730882	7
	11	18	79453.13	4566.368	-940.1968	1	4662.155	-11.63438	9.464814E-007	0.072997	7
	12	20	63140.62	4639.625	-966.359	1	4739.195	-11.76557	9.117E-007	0.0730883	7
	13	21	50203.12	4711.52	-1025.367	1	4821.805	-12.27782	9.078136E-007	0.073038	7
	14	22	39890.62	4791.393	-1106.192	1	4917.429	-13.00013	8.882187E-007	0.0730935	7
	15	24	31640.63	4883.799	-1224.726	1	5035.022	-14.07793	9.566514E-007	0.072955	7
	16	25	25171.88	4984.589	-1372.947	1	5170.214	-15.3996	8.95093E-007	0.0731064	7
	17	26	20015.62	5094.7	-1561.266	1	5328.557	-17.03763	9.569375E-007	0.0729558	7
	18	28	15890.62	5228.147	-1793.508	1	5527.223	-18.93445	9.230016E-007	0.0730108	7
	19	29	12609.37	5378.705	-2079.098	1	5766.552	-21.13364	8.943555E-007	0.0731091	7
	20	30	10078.13	5548.977	-2403.212	1	6047.03	-23.417	9.160944E-007	0.0730717	7
	21	32	8015.625	5744.606	-2800.737	1	6390.98	-25.99118	9.336842E-007	0.0730534	7
	22	33	6328.125	5991.872	-3292.258	1	6836.775	-28.78677	9.784491E-007	0.0729763	7
	23	34	5015.625	6267.383	-3866.493	1	7364.093	-31.67139	8.864263E-007	0.0730995	7
	24	36	3984.375	6585.78	-4541.526	1	7999.873	-34.58998	8.942455E-007	0.0730672	7
	25	37	3170.956	6966.539	-5342.829	1	8779.436	-37.48558	9.319E-007	0.0730416	7
	26	38	2527.573	7388.84	-6277.033	1	9695.16	-40.34886	9.183708E-007	0.0730726	7
	27	40	1976.103	7958.463	-7496.585	1	10933.25	-43.28821	9.360937E-007	0.0730372	7
	28	41	1577.524	8554.839	-8792.683	1	12267.7	-45.78551	9.079975E-007	0.0730287	7
	29	42	1265.625	9262.951	-10323.67	1	13870.13	-48.09984	8.648791E-008	0.0729924	6
	30	44	998.264	10148.82	-12260.21	1	15915.75	-50.38255	9.807343E-008	0.072848	6
	31	45	796.875	11132.57	-14423.99	1	18220.47	-52.3387	8.976926E-008	0.0729715	6
	32	46	627.7902	12383.98	-17179.06	1	21177.42	-54.21307	8.515443E-008	0.0730557	6
	33	48	505.5147	13717.33	-20079.54	1	24317.75	-55.66109	9.146012E-008	0.0729011	6
	34	49	397.9953	15464.77	-23914.37	1	28479.04	-57.11036	9.088144E-008	0.0726521	6
	35	50	315.5048	17477.95	-28316.65	1	33276.29	-58.31577	9.0954E-008	0.0726471	6
	36	52	252.4038	19763.86	-33307.61	1	38729.92	-59.31622	9.127029E-008	0.0726468	6
	37	53	198.6229	22686.2	-39642.76	1	45675.07	-60.21896	9.114097E-008	0.072652	6
	38	54	158.3615	25965.43	-46751.21	1	53477.84	-60.95239	9.093977E-008	0.072645	6
	39	56	125.558	29983.15	-55332.55	1	62933.94	-61.54799	9.100714E-008	0.0726463	6
	40	57	100.4464	34489.52	-65061.97	1	73638.21	-62.07182	9.148776E-008	0.0726471	6
	41	58	79.00281	40354.13	-77119.24	1	87039.27	-62.37832	9.127643E-008	0.0726493	6
	42	60	63.3446	47435.1	-91468.98	1	103037.2	-62.5891	9.111618E-008	0.0726426	6
	43	61	49.86702	54094.75	-107142.3	1	120023.8	-63.21138	9.120252E-008	0.0726419	6
	44	63	39.72458	63977.45	-126643.8	1	141886.5	-63.19818	9.309171E-009	0.0726479	5
	45	64	31.6723	74121.16	-148421.2	1	165900	-63.46258	9.159041E-009	0.0726486	5
	46	65	24.93351	87727.59	-176197.5	1	196829.1	-63.53158	9.216016E-009	0.0726478	5
	47	67	19.86229	102470.6	-207078.7	1	231045	-63.67199	9.272003E-009	0.0726523	5
	48	68	15.83615	120690.1	-245175.8	1	273271.5	-63.79085	9.856322E-009	0.0726444	5
	49	69	12.40079	142281.9	-289711.4	1	322764.3	-63.84361	8.881259E-009	0.0726516	5
	50	71	9.93114	163522.5	-340628.5	1	377845.8	-64.35615	9.112974E-009	0.0726502	5
	51	72	7.944915	190885.7	-403030	1	445949	-64.65652	9.359242E-009	0.072646	5
	52	74	6.317385	222008.6	-474856	1	524190.8	-64.94258	9.176945E-009	0.0726584	5
	53	76	5.008013	261366.1	-564102.4	1	621710.4	-65.14025	9.220727E-009	0.0726447	5
	54	78	3.945707	308714.2	-673370.5	1	740764.7	-65.37038	9.130857E-008	0.0726485	6
	55	81	3.158693	363545.7	-792853.4	1	872228.2	-65.3672	9.213275E-009	0.0726345	5
	56	85	2.504006	431925	-942213.6	1	1036497	-65.37256	9.150877E-009	0.0729381	5
	57	88	1.998082	511792.6	-1111831	1	1223968	-65.28266	9.184681E-009	0.0729349	5
	58	91	1.584686	617927.8	-1320748	1	1458153	-64.9269	9.412174E-010	0.0728827	4
	59	95	1.266892	736592.9	-1552856	1	1718701	-64.62281	1.027476E-009	0.072933	4
	60	99	0.999041	898132.3	-1845561	1	2052495	-64.05038	9.03461E-010	0.0729025	4
