EXPLAIN
TAG	EISPOT
TITLE	LABEL	Potentiostatic EIS	Test &Identifier
DATE	LABEL	11/22/2019	Date
TIME	LABEL	10:44:18	Time
NOTES	NOTES	4	&Notes...
	
	
	
	
PSTAT	PSTAT	REF600-11020	Potentiostat
VDC	POTEN	0.00000E+000	T	DC &Voltage (V)
FREQINIT	QUANT	1.00000E+006	Initial Fre&q. (Hz)
FREQFINAL	QUANT	1.00000E+000	Final Fre&q. (Hz)
PTSPERDEC	QUANT	1.00000E+001	Points/&decade
VAC	QUANT	2.50000E+001	AC &Voltage (mV rms)
AREA	QUANT	1.00000E-002	&Area (cm^2)
CONDIT	TWOPARAM	T	5.00000E+000	0.00000E+000	Conditionin&g	Time(s)	E(V)
DELAY	TWOPARAM	T	5.00000E+000	0.00000E+000	Init. De&lay	Time(s)	Stab.(mV/s)
SPEED	SELECTOR	0	&Optimize for:
ZGUESS	QUANT	1.00000E+005	E&stimated Z (ohms)
OCVCURVE	TABLE	19
	Pt	T	Vf	Vm	Ach	Over
	#	s	V vs. Ref.	V	V	bits
	0	0.258333	4.27797E-002	4.27797E-002	5.56533E-004	...........
	1	0.516667	4.28538E-002	4.66601E-002	5.61032E-004	...........
	2	0.775	4.33096E-002	5.03682E-002	5.54233E-004	...........
	3	1.03333	4.45998E-002	5.38691E-002	5.58132E-004	...........
	4	1.29167	4.69057E-002	5.71685E-002	5.55299E-004	...........
	5	1.55	4.99627E-002	6.03181E-002	5.54066E-004	...........
	6	1.80833	5.33348E-002	6.33284E-002	5.59832E-004	...........
	7	2.06667	5.67040E-002	6.62161E-002	5.59432E-004	...........
	8	2.325	5.99320E-002	6.89817E-002	5.56266E-004	...........
	9	2.58333	6.29937E-002	7.16459E-002	5.54599E-004	...........
	10	2.84167	6.59065E-002	7.42147E-002	5.54966E-004	...........
	11	3.1	6.86930E-002	7.66909E-002	5.56832E-004	...........
	12	3.35833	7.13700E-002	7.90809E-002	5.58099E-004	...........
	13	3.61667	7.39485E-002	8.13988E-002	5.58699E-004	...........
	14	3.875	7.64367E-002	8.36655E-002	5.58832E-004	...........
	15	4.13333	7.88423E-002	8.58301E-002	5.54299E-004	...........
	16	4.39167	8.11721E-002	8.79548E-002	5.57099E-004	...........
	17	4.65	8.34295E-002	8.99895E-002	5.57266E-004	...........
	18	4.90833	8.56172E-002	9.20102E-002	5.57699E-004	...........
EOC	QUANT	0.0856172	Open Circuit (V)
PSTATMODEL	IQUANT	4	Pstat Model
PSTATSECTION	LABEL	REF600-11020	Pstat Section
PSTATSERIALNO	LABEL	11020	Pstat Serial Number
CTRLMODE	IQUANT	1	Control Mode
IESTAB	IQUANT	0	I/E Stability
CASPEED	IQUANT	1	Control Amp Speed
CONVENTION	IQUANT	1	Current Convention
ICHRANGE	IQUANT	2	Ich Range
ICHRANGEMODE	TOGGLE	F	Ich Auto Range
ICHOFFSETENABLE	TOGGLE	T	Ich Offset Enable
ICHOFFSET	QUANT	0	Ich Offset (V)
ICHFILTER	IQUANT	3	Ich Filter
VCHRANGE	IQUANT	2	Vch Range
VCHRANGEMODE	TOGGLE	F	Vch Auto Range
VCHOFFSETENABLE	TOGGLE	T	Vch Offset Enable
VCHOFFSET	QUANT	0	Vch Offset (V)
VCHFILTER	IQUANT	3	Vch Filter
ACHRANGE	IQUANT	2	Ach Range
ACHOFFSETENABLE	TOGGLE	F	Ach Offset Enable
ACHOFFSET	QUANT	0	Ach Offset (V)
ACHFILTER	IQUANT	3	Ach Filter
IERANGELOWERLIMIT	IQUANT	1	I/E Range Lower Limit
IERANGEMODE	TOGGLE	F	I/E AutoRange
IERANGE	IQUANT	6	I/E Range
POSFEEDENABLE	TOGGLE	F	Positive Feedback IR Comp
POSFEEDRESISTANCE	QUANT	0	Positive Feedback Resistance (ohm)
ACHSELECT	IQUANT	0	Ach Select
CABLEID	IQUANT	14	Cable ID
DCCALDATE	LABEL	8/19/2019	DC Calibration Date
ACCALDATE	LABEL	8/19/2019	AC Calibration Date
THERMOSELECT	IQUANT	1	Thermo Select
FRAMEWORKVERSION	QUANT	6.33	Framework Version
INSTRUMENTVERSION	LABEL	3.50	Instrument Version
ZCURVE	TABLE
	Pt	Time	Freq	Zreal	Zimag	Zsig	Zmod	Zphz	Idc	Vdc	IERange
	#	s	Hz	ohm	ohm	V	ohm	°	A	V	#
	0	1	1000078	1877.306	-1013.776	1	2133.546	-28.36977	3.955176E-006	0.086458	8
	1	1	794390.6	2014.916	-1007.407	1	2252.721	-26.5639	1.112412E-006	0.0876532	8
	2	1	630984.4	2164.867	-1006.557	1	2387.427	-24.93613	-6.828755E-007	0.0868561	8
	3	2	501234.4	2313.299	-996.706	1	2518.884	-23.30922	9.680185E-007	0.0875026	8
	4	2	398109.4	2447.554	-1002.954	1	2645.078	-22.28274	-2.888293E-006	0.0876014	8
	5	2	316265.6	2609.182	-1001.587	1	2794.818	-21.0003	-4.625584E-006	0.0874104	8
	6	3	251203.1	2764.961	-1000.521	1	2940.417	-19.89303	-1.96031E-006	0.0871705	8
	7	3	199546.9	2914.923	-999.099	1	3081.391	-18.91932	2.110445E-006	0.086536	8
	8	3	158578.1	3071.445	-1007.969	1	3232.612	-18.16849	-2.642487E-006	0.0875383	8
	9	4	125953.1	3260.681	-927.9301	1	3390.147	-15.88538	2.450879E-006	0.0815897	7
	10	4	100078.1	3395.108	-914.6578	1	3516.157	-15.07778	6.889103E-007	0.0853048	7
	11	4	79453.13	3537.621	-915.9359	1	3654.271	-14.51586	1.055184E-006	0.085822	7
	12	4	63140.62	3672.737	-908.3477	1	3783.396	-13.89173	1.054146E-006	0.0858218	7
	13	5	50203.12	3805.806	-898.9355	1	3910.53	-13.28975	1.05551E-006	0.085821	7
	14	5	39890.62	3918.34	-884.4077	1	4016.909	-12.71909	-7.59623E-007	0.086919	7
	15	5	31640.63	4045.669	-880.5601	1	4140.39	-12.2792	-3.647864E-007	0.0862476	7
	16	6	25171.88	4165.625	-881.8423	1	4257.942	-11.95277	-1.048501E-006	0.0885739	7
	17	6	20015.62	4315.869	-904.4878	1	4409.628	-11.83632	6.330167E-007	0.0870801	7
	18	6	15890.62	4399.824	-894.0658	1	4489.744	-11.48639	-3.650037E-007	0.0862433	7
	19	7	12609.37	4513.181	-916.3309	1	4605.265	-11.47701	-3.653443E-007	0.0862469	7
	20	7	10078.13	4641.713	-944.6321	1	4736.858	-11.50314	9.011892E-007	0.085333	7
	21	7	8015.625	4754.912	-989.47	1	4856.772	-11.75516	6.89887E-007	0.085283	7
	22	8	6328.125	4873.18	-1040.979	1	4983.124	-12.05795	-5.61979E-007	0.0885008	7
	23	8	5015.625	5002.265	-1109.155	1	5123.756	-12.50196	6.907683E-007	0.0852798	7
	24	8	3984.375	5134.814	-1201.013	1	5273.4	-13.1646	9.020065E-007	0.0853303	7
	25	9	3170.956	5263.152	-1298.062	1	5420.861	-13.85448	6.368547E-007	0.0870749	7
	26	9	2527.573	5367.921	-1411.47	1	5550.39	-14.73218	-3.649912E-007	0.086239	7
	27	9	1976.103	5529.638	-1586.952	1	5752.853	-16.01296	9.025613E-007	0.085325	7
	28	10	1577.524	5642.985	-1760.874	1	5911.342	-17.33035	3.990458E-007	0.0854102	7
	29	10	1265.625	5770.843	-2001.58	1	6108.106	-19.12878	3.992806E-008	0.0857186	7
	30	10	998.264	5915.281	-2324.105	1	6355.471	-21.44979	-2.301655E-007	0.0882354	7
	31	11	796.875	6044.127	-2697.477	1	6618.75	-24.05107	-1.049298E-006	0.0885634	7
	32	11	627.7902	6199.119	-3208.815	1	6980.37	-27.36718	-3.627829E-007	0.0862357	7
	33	12	505.5147	6362.49	-3783.002	1	7402.187	-30.73482	-7.626422E-007	0.0868999	7
	34	12	397.9953	6586.948	-4593.875	1	8030.665	-34.89273	-3.06306E-009	0.0869833	7
	35	13	315.5048	6828.26	-5555.708	1	8802.898	-39.13299	-8.243052E-009	0.08699	7
	36	13	252.4038	7116.416	-6692.869	1	9769.23	-43.24322	-5.958121E-009	0.086923	6
	37	13	198.6229	7502.929	-8198.19	1	11113.25	-47.53546	-5.880561E-009	0.086929	6
	38	14	158.3615	7974.172	-9940.72	1	12743.84	-51.26438	-5.787917E-009	0.0869279	6
	39	14	125.558	8592.046	-12117.83	1	14854.79	-54.66176	-5.562041E-009	0.0869177	6
	40	14	100.4464	9364.336	-14635.13	1	17374.63	-57.38672	-5.372882E-009	0.0869155	6
	41	14	79.00281	10477.29	-17907.08	1	20746.98	-59.66845	-5.818076E-009	0.0869255	6
	42	15	63.3446	11883.98	-21648.25	1	24695.66	-61.23507	-6.135681E-009	0.0869157	6
	43	15	49.86702	13655.16	-26286.94	1	29622.06	-62.54968	-5.515858E-009	0.0869173	6
	44	16	39.72458	15913.53	-31378.13	1	35182.77	-63.10799	-5.521133E-009	0.0869215	6
	45	16	31.6723	18747.13	-37380.59	1	41818.22	-63.3653	-5.647514E-009	0.0869096	6
	46	16	24.93351	22600.55	-44829.97	1	50204.69	-63.24553	-4.720524E-009	0.0869193	6
	47	17	19.86229	27144.56	-52905.76	1	59462.98	-62.83883	-4.037152E-009	0.086926	6
	48	17	15.83615	32905.42	-62089.62	1	70270.1	-62.0779	-6.804324E-009	0.0869099	6
	49	17	12.40079	40519.25	-73438.68	1	83875.2	-61.1126	-5.358803E-009	0.0869096	6
	50	17	9.93114	48153.1	-84639.18	1	97378.2	-60.36349	-5.792749E-009	0.0869208	6
	51	18	7.944915	57601.32	-97183.8	1	112971.7	-59.34457	-6.859406E-009	0.0869347	5
	52	18	6.317385	68742.7	-111708.3	1	131165.1	-58.39281	-6.928264E-009	0.0869476	5
	53	19	5.008013	81958.05	-127893.4	1	151900.8	-57.34699	-5.635518E-009	0.0869267	5
	54	20	3.945707	96688.4	-145928.7	1	175053.8	-56.47262	-5.299788E-009	0.0869181	5
	55	21	3.158693	111565.1	-165848.1	1	199880.9	-56.07149	-4.84241E-009	0.0869357	5
	56	23	2.504006	127988.7	-188800.6	1	228093.8	-55.86649	-4.92359E-009	0.0869303	5
	57	24	1.998082	145558.9	-215907.5	1	260390.9	-56.01323	-5.266424E-009	0.0868857	5
	58	26	1.584686	163770.5	-248014.5	1	297207	-56.56217	-4.572656E-009	0.0869306	5
	59	28	1.266892	183905.3	-286074.6	1	340087.9	-57.26474	-4.382617E-009	0.0869578	5
	60	30	0.999041	207381.2	-336563.7	1	395325.3	-58.35978	-4.231634E-009	0.0869633	5
