EXPLAIN
TAG	EISPOT
TITLE	LABEL	Potentiostatic EIS	Test &Identifier
DATE	LABEL	10/18/2019	Date
TIME	LABEL	10:22:25	Time
NOTES	NOTES	1	&Notes...
	
PSTAT	PSTAT	REF600-11020	Potentiostat
VDC	POTEN	0.00000E+000	T	DC &Voltage (V)
FREQINIT	QUANT	1.00000E+006	Initial Fre&q. (Hz)
FREQFINAL	QUANT	1.00000E+000	Final Fre&q. (Hz)
PTSPERDEC	QUANT	1.00000E+001	Points/&decade
VAC	QUANT	2.50000E+001	AC &Voltage (mV rms)
AREA	QUANT	1.00000E-002	&Area (cm^2)
CONDIT	TWOPARAM	T	5.00000E+000	0.00000E+000	Conditionin&g	Time(s)	E(V)
DELAY	TWOPARAM	T	5.00000E+000	0.00000E+000	Init. De&lay	Time(s)	Stab.(mV/s)
SPEED	SELECTOR	0	&Optimize for:
ZGUESS	QUANT	1.00000E+005	E&stimated Z (ohms)
OCVCURVE	TABLE	19
	Pt	T	Vf	Vm	Ach	Over
	#	s	V vs. Ref.	V	V	bits
	0	0.258333	1.45293E-002	1.45293E-002	5.64199E-004	...........
	1	0.516667	1.45124E-002	1.36462E-002	5.64066E-004	...........
	2	0.775	1.44101E-002	1.28767E-002	5.63866E-004	...........
	3	1.03333	1.41333E-002	1.25746E-002	5.62466E-004	...........
	4	1.29167	1.36765E-002	1.19545E-002	5.57266E-004	...........
	5	1.55	1.31336E-002	1.17668E-002	5.55099E-004	...........
	6	1.80833	1.26102E-002	1.15363E-002	5.62132E-004	...........
	7	2.06667	1.21721E-002	1.14489E-002	5.62099E-004	...........
	8	2.325	1.18506E-002	1.16904E-002	5.60032E-004	...........
	9	2.58333	1.16638E-002	1.18868E-002	5.65866E-004	...........
	10	2.84167	1.16127E-002	1.16904E-002	5.62599E-004	...........
	11	3.1	1.16435E-002	1.13042E-002	5.62332E-004	...........
	12	3.35833	1.16428E-002	1.06650E-002	5.61299E-004	...........
	13	3.61667	1.15008E-002	1.00411E-002	5.60432E-004	...........
	14	3.875	1.11925E-002	1.04816E-002	5.63266E-004	...........
	15	4.13333	1.07952E-002	9.02984E-003	5.57532E-004	...........
	16	4.39167	1.03510E-002	7.65186E-003	5.61166E-004	...........
	17	4.65	9.79271E-003	8.34498E-003	5.66666E-004	...........
	18	4.90833	9.10848E-003	6.38344E-003	5.70999E-004	...........
EOC	QUANT	0.0091085	Open Circuit (V)
PSTATMODEL	IQUANT	4	Pstat Model
PSTATSECTION	LABEL	REF600-11020	Pstat Section
PSTATSERIALNO	LABEL	11020	Pstat Serial Number
CTRLMODE	IQUANT	1	Control Mode
IESTAB	IQUANT	0	I/E Stability
CASPEED	IQUANT	1	Control Amp Speed
CONVENTION	IQUANT	1	Current Convention
ICHRANGE	IQUANT	2	Ich Range
ICHRANGEMODE	TOGGLE	F	Ich Auto Range
ICHOFFSETENABLE	TOGGLE	T	Ich Offset Enable
ICHOFFSET	QUANT	0	Ich Offset (V)
ICHFILTER	IQUANT	3	Ich Filter
VCHRANGE	IQUANT	2	Vch Range
VCHRANGEMODE	TOGGLE	F	Vch Auto Range
VCHOFFSETENABLE	TOGGLE	T	Vch Offset Enable
VCHOFFSET	QUANT	0	Vch Offset (V)
VCHFILTER	IQUANT	3	Vch Filter
ACHRANGE	IQUANT	2	Ach Range
ACHOFFSETENABLE	TOGGLE	F	Ach Offset Enable
ACHOFFSET	QUANT	0	Ach Offset (V)
ACHFILTER	IQUANT	3	Ach Filter
IERANGELOWERLIMIT	IQUANT	1	I/E Range Lower Limit
IERANGEMODE	TOGGLE	F	I/E AutoRange
IERANGE	IQUANT	5	I/E Range
POSFEEDENABLE	TOGGLE	F	Positive Feedback IR Comp
POSFEEDRESISTANCE	QUANT	0	Positive Feedback Resistance (ohm)
ACHSELECT	IQUANT	0	Ach Select
CABLEID	IQUANT	14	Cable ID
DCCALDATE	LABEL	8/19/2019	DC Calibration Date
ACCALDATE	LABEL	8/19/2019	AC Calibration Date
THERMOSELECT	IQUANT	1	Thermo Select
FRAMEWORKVERSION	QUANT	6.33	Framework Version
INSTRUMENTVERSION	LABEL	3.50	Instrument Version
ZCURVE	TABLE
	Pt	Time	Freq	Zreal	Zimag	Zsig	Zmod	Zphz	Idc	Vdc	IERange
	#	s	Hz	ohm	ohm	V	ohm	°	A	V	#
	0	2	1000078	2108.26	-791.3784	1	2251.896	-20.57465	6.642511E-006	0.0102172	8
	1	2	794390.6	2211.189	-705.4652	1	2320.999	-17.69494	-6.032331E-006	0.0114109	8
	2	2	630984.4	2303.517	-639.6477	1	2390.678	-15.51907	5.881869E-006	0.0100239	8
	3	3	501234.4	2379.961	-572.6761	1	2447.892	-13.52954	4.121574E-007	0.0103401	8
	4	3	398109.4	2450.209	-516.5936	1	2504.075	-11.90568	1.036382E-006	0.0102225	8
	5	3	316265.6	2495.109	-468.9817	1	2538.802	-10.64513	-1.791953E-007	0.010676	8
	6	4	251203.1	2537.57	-436.1401	1	2574.778	-9.75232	-1.882267E-007	0.0107074	8
	7	4	199546.9	2583.383	-419.4206	1	2617.208	-9.221695	7.870654E-007	0.0104142	8
	8	4	158578.1	2620.48	-411.9723	1	2652.666	-8.934485	-3.027986E-006	0.0112461	8
	9	5	125953.1	2677.506	-355.4488	1	2700.996	-7.562009	6.031743E-007	0.0098904	7
	10	5	100078.1	2708.388	-364.4226	1	2732.795	-7.663312	1.241426E-007	0.010389	7
	11	5	79453.13	2747.396	-385.1361	1	2774.26	-7.979851	-1.227762E-008	0.0107019	7
	12	5	63140.62	2790.659	-415.2243	1	2821.38	-8.462996	-4.056106E-008	0.0106024	7
	13	6	50203.12	2838.564	-448.6992	1	2873.809	-8.982568	-6.485645E-008	0.0106797	7
	14	6	39890.62	2891.989	-486.6491	1	2932.649	-9.55195	7.246065E-008	0.0104138	7
	15	6	31640.63	2950.467	-530.6931	1	2997.814	-10.19662	7.593454E-008	0.0104159	7
	16	7	25171.88	3013.712	-580.5336	1	3069.117	-10.90337	-7.681568E-009	0.0105273	7
	17	7	20015.62	3083.116	-636.4207	1	3148.116	-11.66325	-7.34241E-009	0.0106021	7
	18	7	15890.62	3153.095	-701.9117	1	3230.277	-12.55	1.230175E-007	0.0103797	7
	19	8	12609.37	3229.994	-778.748	1	3322.546	-13.55525	-8.239388E-009	0.0105193	7
	20	8	10078.13	3310.437	-867.4481	1	3422.201	-14.68334	-4.604536E-009	0.010579	7
	21	8	8015.625	3397.958	-972.202	1	3534.303	-15.96655	-1.677962E-008	0.0106127	7
	22	9	6328.125	3494.76	-1100.431	1	3663.918	-17.47818	6.393137E-008	0.0104516	7
	23	9	5015.625	3598.951	-1251.4	1	3810.308	-19.17319	3.413668E-008	0.0104424	7
	24	9	3984.375	3705.417	-1427.482	1	3970.871	-21.06877	-4.360358E-008	0.0106151	7
	25	10	3170.956	3835.137	-1641.19	1	4171.544	-23.16779	-2.032857E-008	0.0105485	7
	26	10	2527.573	3965.508	-1891.408	1	4393.481	-25.4995	7.575795E-008	0.0105207	7
	27	10	1976.103	4119.498	-2220.548	1	4679.86	-28.32616	1.242255E-007	0.0103782	7
	28	11	1577.524	4270.714	-2580.321	1	4989.695	-31.13993	6.659736E-008	0.0104469	7
	29	11	1265.625	4433.656	-3015.499	1	5361.953	-34.22112	-4.070789E-008	0.0105808	7
	30	11	998.264	4623.612	-3582.852	1	5849.326	-37.77222	1.149036E-008	0.0104906	7
	31	11	796.875	4822.944	-4247.98	1	6426.984	-41.37314	-1.152579E-008	0.0105937	7
	32	12	627.7902	5047.609	-5132.557	1	7198.715	-45.47809	-4.179521E-008	0.0105864	7
	33	12	505.5147	5302.775	-6111.249	1	8091.154	-49.05159	-4.745259E-008	0.0107063	7
	34	12	397.9953	5638.626	-7441.372	1	9336.387	-52.84733	1.946981E-009	0.0105682	7
	35	13	315.5048	6039.217	-9044.608	1	10875.53	-56.26839	1.28586E-009	0.0105047	6
	36	13	252.4038	6522.856	-10936.65	1	12734.12	-59.18722	1.913425E-009	0.0105038	6
	37	13	198.6229	7187.325	-13423.87	1	15226.88	-61.83479	5.777278E-010	0.0105059	6
	38	14	158.3615	8013.979	-16301.41	1	18164.8	-63.82069	6.34135E-010	0.0104994	6
	39	14	125.558	9115.671	-19855.82	1	21848.32	-65.34047	8.747E-010	0.0105049	6
	40	14	100.4464	10458.4	-23996.71	1	26176.72	-66.45116	-9.328442E-010	0.0105046	6
	41	15	79.00281	12368.22	-29210.72	1	31721.28	-67.05153	-1.388378E-009	0.0105007	6
	42	15	63.3446	15448.14	-35046.94	1	38300.56	-66.21287	4.016932E-010	0.0104949	6
	43	15	49.86702	18686.61	-42491.85	1	46419.25	-66.26159	6.935257E-010	0.010495	6
	44	16	39.72458	22405.34	-50509.08	1	55255.46	-66.07838	-8.226825E-010	0.0104997	6
	45	16	31.6723	27461.73	-59550.07	1	65577.12	-65.24304	1.442918E-010	0.0104973	6
	46	16	24.93351	34423.68	-71018.27	1	78921.38	-64.13979	5.412824E-010	0.0104983	6
	47	17	19.86229	42566.06	-82888.34	1	93179.11	-62.81791	2.805623E-010	0.0105057	6
	48	17	15.83615	53042.45	-96077.6	1	109747.1	-61.09784	-5.755471E-010	0.0105031	5
	49	17	12.40079	63499.61	-110818.7	1	127722.3	-60.1871	-2.604376E-009	0.0105044	5
	50	18	9.93114	78507.92	-125643.7	1	148154.8	-58.00098	-1.000507E-009	0.0105079	5
	51	18	7.944915	93081.16	-141767.3	1	169593.8	-56.71201	2.498069E-010	0.0104984	5
	52	19	6.317385	109297.7	-159909.5	1	193693.2	-55.6475	2.280823E-010	0.0104973	5
	53	20	5.008013	126759.2	-180485.1	1	220551.1	-54.91866	-2.345972E-010	0.0105001	5
	54	21	3.945707	145588.6	-204404.9	1	250953	-54.53939	5.841749E-011	0.0105089	5
	55	22	3.158693	164323	-231771.9	1	284113.2	-54.6639	-2.352847E-010	0.0105081	5
	56	24	2.504006	184553.5	-265748.1	1	323546	-55.22127	7.156716E-010	0.010497	5
	57	25	1.998082	206009.3	-305328.4	1	368327.6	-55.99191	-1.153823E-009	0.0105436	5
	58	27	1.584686	230261.6	-357877.8	1	425554.9	-57.24243	-6.843007E-010	0.0105245	5
	59	29	1.266892	253711.2	-418205.7	1	489147.6	-58.75623	2.619874E-010	0.0104878	5
	60	31	0.999041	285746.3	-491439.7	1	568475.1	-59.82426	-5.234711E-010	0.0104644	5
