EXPLAIN
TAG	EISPOT
TITLE	LABEL	Potentiostatic EIS	Test &Identifier
DATE	LABEL	11/7/2019	Date
TIME	LABEL	10:30:37	Time
NOTES	NOTES	2	&Notes...
	
	
PSTAT	PSTAT	REF600-11020	Potentiostat
VDC	POTEN	0.00000E+000	T	DC &Voltage (V)
FREQINIT	QUANT	1.00000E+006	Initial Fre&q. (Hz)
FREQFINAL	QUANT	1.00000E+000	Final Fre&q. (Hz)
PTSPERDEC	QUANT	1.00000E+001	Points/&decade
VAC	QUANT	2.50000E+001	AC &Voltage (mV rms)
AREA	QUANT	1.00000E-002	&Area (cm^2)
CONDIT	TWOPARAM	T	5.00000E+000	0.00000E+000	Conditionin&g	Time(s)	E(V)
DELAY	TWOPARAM	T	5.00000E+000	0.00000E+000	Init. De&lay	Time(s)	Stab.(mV/s)
SPEED	SELECTOR	1	&Optimize for:
ZGUESS	QUANT	1.00000E+005	E&stimated Z (ohms)
OCVCURVE	TABLE	19
	Pt	T	Vf	Vm	Ach	Over
	#	s	V vs. Ref.	V	V	bits
	0	0.258333	2.49385E-003	2.49385E-003	5.64366E-004	...........
	1	0.516667	2.48747E-003	2.15980E-003	5.62132E-004	...........
	2	0.775	2.44867E-003	1.86330E-003	5.68232E-004	...........
	3	1.03333	2.34052E-003	1.59682E-003	5.64699E-004	...........
	4	1.29167	2.15119E-003	1.34999E-003	5.63699E-004	...........
	5	1.55	1.90675E-003	1.13298E-003	5.67099E-004	...........
	6	1.80833	1.64584E-003	9.27528E-004	5.70399E-004	...........
	7	2.06667	1.39507E-003	7.37322E-004	5.71599E-004	...........
	8	2.325	1.16435E-003	5.47612E-004	5.66666E-004	...........
	9	2.58333	9.51272E-004	2.97745E-004	5.60666E-004	...........
	10	2.84167	7.44517E-004	1.45667E-005	5.72899E-004	...........
	11	3.1	5.28643E-004	-2.34256E-004	5.73466E-004	...........
	12	3.35833	2.79886E-004	-1.25721E-003	5.68499E-004	...........
	13	3.61667	-2.84264E-005	-6.11266E-004	5.63132E-004	...........
	14	3.875	-3.62479E-004	-7.62919E-004	5.66466E-004	...........
	15	4.13333	-6.23011E-004	-9.63262E-004	5.66499E-004	...........
	16	4.39167	-7.70636E-004	-1.12954E-003	5.60966E-004	...........
	17	4.65	-8.60299E-004	-9.45936E-004	5.63799E-004	...........
	18	4.90833	-9.41537E-004	-1.40078E-003	5.71399E-004	...........
EOC	QUANT	-0.0009415	Open Circuit (V)
PSTATMODEL	IQUANT	4	Pstat Model
PSTATSECTION	LABEL	REF600-11020	Pstat Section
PSTATSERIALNO	LABEL	11020	Pstat Serial Number
CTRLMODE	IQUANT	1	Control Mode
IESTAB	IQUANT	0	I/E Stability
CASPEED	IQUANT	1	Control Amp Speed
CONVENTION	IQUANT	1	Current Convention
ICHRANGE	IQUANT	2	Ich Range
ICHRANGEMODE	TOGGLE	F	Ich Auto Range
ICHOFFSETENABLE	TOGGLE	T	Ich Offset Enable
ICHOFFSET	QUANT	0	Ich Offset (V)
ICHFILTER	IQUANT	3	Ich Filter
VCHRANGE	IQUANT	2	Vch Range
VCHRANGEMODE	TOGGLE	F	Vch Auto Range
VCHOFFSETENABLE	TOGGLE	T	Vch Offset Enable
VCHOFFSET	QUANT	0	Vch Offset (V)
VCHFILTER	IQUANT	3	Vch Filter
ACHRANGE	IQUANT	2	Ach Range
ACHOFFSETENABLE	TOGGLE	F	Ach Offset Enable
ACHOFFSET	QUANT	0	Ach Offset (V)
ACHFILTER	IQUANT	3	Ach Filter
IERANGELOWERLIMIT	IQUANT	1	I/E Range Lower Limit
IERANGEMODE	TOGGLE	F	I/E AutoRange
IERANGE	IQUANT	4	I/E Range
POSFEEDENABLE	TOGGLE	F	Positive Feedback IR Comp
POSFEEDRESISTANCE	QUANT	0	Positive Feedback Resistance (ohm)
ACHSELECT	IQUANT	0	Ach Select
CABLEID	IQUANT	14	Cable ID
DCCALDATE	LABEL	8/19/2019	DC Calibration Date
ACCALDATE	LABEL	8/19/2019	AC Calibration Date
THERMOSELECT	IQUANT	1	Thermo Select
FRAMEWORKVERSION	QUANT	6.33	Framework Version
INSTRUMENTVERSION	LABEL	3.50	Instrument Version
ZCURVE	TABLE
	Pt	Time	Freq	Zreal	Zimag	Zsig	Zmod	Zphz	Idc	Vdc	IERange
	#	s	Hz	ohm	ohm	V	ohm	°	A	V	#
	0	1	1000078	2273.168	-1516.071	1	2732.355	-33.70099	4.21435E-006	0.0017649	8
	1	3	794390.6	2564.009	-1467.833	1	2954.434	-29.79009	2.4034E-006	-0.0001329	8
	2	5	630984.4	2836.359	-1377.512	1	3153.168	-25.90408	-6.566164E-007	0.0002397	8
	3	6	501234.4	3076.73	-1260.684	1	3324.996	-22.28127	-9.800536E-007	0.0011059	8
	4	8	398109.4	3280.41	-1111.301	1	3463.535	-18.71478	7.083315E-006	-0.0007677	8
	5	9	316265.6	3406.708	-1006.64	1	3552.321	-16.46175	-2.230879E-006	0.0002431	8
	6	10	251203.1	3529.637	-888.1578	1	3639.665	-14.12403	2.187779E-006	0.000822	8
	7	12	199546.9	3634.152	-799.1809	1	3720.988	-12.40242	-6.745552E-006	0.0014694	8
	8	14	158578.1	3699.811	-648.7552	1	3756.26	-9.9456	-2.668138E-006	0.0004059	8
	9	15	125953.1	3812.712	-583.0953	1	3857.042	-8.69513	1.412481E-006	0.0021566	7
	10	17	100078.1	3858.812	-536.5747	1	3895.939	-7.916319	9.361846E-007	0.0002418	7
	11	18	79453.13	3901.688	-510.4108	1	3934.932	-7.452992	1.412825E-007	-0.001103	7
	12	19	63140.62	3946.442	-496.4905	1	3977.551	-7.170545	-1.249155E-006	0.002297	7
	13	21	50203.12	3993.587	-492.0864	1	4023.79	-7.024529	-1.251899E-006	0.0022903	7
	14	22	39890.62	4043.157	-498.0338	1	4073.716	-7.022286	-1.399451E-006	0.0021128	7
	15	23	31640.63	4097.64	-513.1301	1	4129.643	-7.137753	7.668778E-008	0.0015563	7
	16	25	25171.88	4152.938	-540.8557	1	4188.008	-7.420123	9.4109E-007	0.0002143	7
	17	26	20015.62	4208.697	-569.2343	1	4247.018	-7.702621	1.256938E-006	-0.000836	7
	18	28	15890.62	4262.589	-615.0198	1	4306.729	-8.210157	5.603459E-007	-0.0014521	7
	19	29	12609.37	4327.028	-673.3658	1	4379.109	-8.845338	4.429893E-007	0.0010611	7
	20	30	10078.13	4413.487	-748.9576	1	4476.584	-9.6312	1.121047E-006	-0.0014722	7
	21	32	8015.625	4465.818	-809.729	1	4538.634	-10.27705	1.404637E-007	-0.0011233	7
	22	33	6328.125	4539.647	-911.5146	1	4630.255	-11.35343	1.124063E-006	-0.0014849	7
	23	34	5015.625	4615.714	-1033.27	1	4729.954	-12.61815	1.121552E-006	-0.0014773	7
	24	36	3984.375	4688.921	-1181.217	1	4835.417	-14.13955	4.428486E-007	0.0010492	7
	25	37	3170.956	4769.518	-1357.355	1	4958.902	-15.8858	-8.191296E-007	0.000242	7
	26	39	2527.573	4856.989	-1579.921	1	5107.494	-18.01909	-1.020195E-006	0.0023541	7
	27	40	1976.103	4967.381	-1879.274	1	5310.984	-20.72278	4.430815E-007	0.0010422	7
	28	41	1577.524	5082.214	-2199.606	1	5537.794	-23.40318	5.620993E-007	-0.0014595	7
	29	43	1265.625	5189.496	-2620.348	1	5813.526	-26.79072	-3.319039E-007	0.0019845	7
	30	44	998.264	5324.531	-3145.63	1	6184.305	-30.57377	-1.38259E-006	0.001677	7
	31	45	796.875	5483.528	-3769.055	1	6653.936	-34.50234	-1.246458E-006	0.0022852	7
	32	47	627.7902	5672.556	-4604.284	1	7305.979	-39.06545	1.123739E-006	-0.001482	7
	33	48	505.5147	5871.543	-5492.887	1	8040.325	-43.09164	5.559042E-007	-0.0014573	7
	34	50	397.9953	6132.077	-6731.544	1	9105.825	-47.66815	4.877258E-009	0.0004683	7
	35	51	315.5048	6435.999	-8213.626	1	10434.83	-51.91861	1.734822E-009	0.0004124	6
	36	52	252.4038	6789.72	-9967.02	1	12059.93	-55.73659	4.639181E-011	0.0004139	6
	37	54	198.6229	7261.436	-12286.91	1	14272.23	-59.41735	6.345855E-010	0.0004214	6
	38	55	158.3615	7820.419	-14998.4	1	16914.81	-62.4617	2.3118E-010	0.000411	6
	39	57	125.558	8566.139	-18402.62	1	20298.65	-65.03874	7.887564E-010	0.0004125	6
	40	58	100.4464	9442.335	-22397.11	1	24306.13	-67.14034	1.62776E-009	0.0004064	6
	41	59	79.00281	10781.24	-27750.17	1	29770.9	-68.76832	5.905196E-010	0.0003934	6
	42	61	63.3446	12150.59	-33980.56	1	36087.61	-70.32423	3.332442E-010	0.0004079	6
	43	62	49.86702	14407.83	-41038.25	1	43493.95	-70.65469	4.309923E-010	0.0004038	6
	44	64	39.72458	17297.58	-50171.66	1	53069.78	-70.97745	1.05959E-009	0.0003989	6
	45	65	31.6723	21208.87	-60990.26	1	64572.66	-70.82529	3.420871E-010	0.0003995	6
	46	66	24.93351	26119.79	-74079.57	1	78549.52	-70.5778	1.037252E-009	0.0003979	6
	47	68	19.86229	32377.34	-89064.66	1	94767.12	-70.02247	-3.523315E-010	0.0004065	6
	48	69	15.83615	41387.71	-106630	1	114380.5	-68.78661	-3.985884E-010	0.0004202	5
	49	70	12.40079	51972.66	-128594.9	1	138700.4	-67.99351	-2.433153E-011	0.0003954	5
	50	72	9.93114	65813.91	-150568.8	1	164324.1	-66.38976	1.181533E-009	0.0004032	5
	51	74	7.944915	82646.75	-175456.6	1	193947.2	-64.77778	-4.686788E-010	0.0004046	5
	52	75	6.317385	102484.3	-205011.1	1	229199.9	-63.4397	7.892146E-010	0.0004149	5
	53	77	5.008013	127096.3	-237092.3	1	269009.7	-61.8059	5.496577E-010	0.0004179	5
	54	80	3.945707	156373.1	-273393.2	1	314954.6	-60.23167	2.341434E-010	0.0004102	5
	55	82	3.158693	186702.5	-310370.6	1	362198.5	-58.97112	3.797578E-010	0.000424	5
	56	86	2.504006	221269.5	-353666.1	1	417180.9	-57.96805	1.101144E-010	0.000406	5
	57	89	1.998082	257548.3	-401138.4	1	476700.3	-57.29777	-3.195839E-011	0.0004248	5
	58	92	1.584686	299211.5	-457958.4	1	547040.6	-56.84102	2.880707E-010	0.000461	5
	59	95	1.266892	341584.1	-521248.4	1	623201.1	-56.7624	1.942676E-011	0.0004381	5
	60	100	0.999041	391269.5	-601988.3	1	717970.5	-56.97766	3.673761E-010	0.0003994	5
