EXPLAIN
TAG	EISPOT
TITLE	LABEL	Potentiostatic EIS	Test &Identifier
DATE	LABEL	11/5/2019	Date
TIME	LABEL	9:39:24	Time
NOTES	NOTES	2	&Notes...
	
	
PSTAT	PSTAT	REF600-11020	Potentiostat
VDC	POTEN	0.00000E+000	T	DC &Voltage (V)
FREQINIT	QUANT	1.00000E+006	Initial Fre&q. (Hz)
FREQFINAL	QUANT	1.00000E+000	Final Fre&q. (Hz)
PTSPERDEC	QUANT	1.00000E+001	Points/&decade
VAC	QUANT	2.50000E+001	AC &Voltage (mV rms)
AREA	QUANT	1.00000E-002	&Area (cm^2)
CONDIT	TWOPARAM	T	5.00000E+000	0.00000E+000	Conditionin&g	Time(s)	E(V)
DELAY	TWOPARAM	T	5.00000E+000	0.00000E+000	Init. De&lay	Time(s)	Stab.(mV/s)
SPEED	SELECTOR	1	&Optimize for:
ZGUESS	QUANT	1.00000E+005	E&stimated Z (ohms)
OCVCURVE	TABLE	19
	Pt	T	Vf	Vm	Ach	Over
	#	s	V vs. Ref.	V	V	bits
	0	0.258333	6.22485E-003	6.22485E-003	5.68766E-004	...........
	1	0.516667	6.22296E-003	6.12602E-003	5.73832E-004	...........
	2	0.775	6.21208E-003	6.06936E-003	5.75832E-004	...........
	3	1.03333	6.18360E-003	6.01365E-003	5.68932E-004	...........
	4	1.29167	6.13754E-003	5.98284E-003	5.71932E-004	...........
	5	1.55	6.08371E-003	5.94860E-003	5.70199E-004	...........
	6	1.80833	6.03306E-003	5.93444E-003	5.73499E-004	...........
	7	2.06667	5.99157E-003	5.91904E-003	5.68766E-004	...........
	8	2.325	5.96066E-003	5.91947E-003	5.65499E-004	...........
	9	2.58333	5.93959E-003	5.91639E-003	5.75566E-004	...........
	10	2.84167	5.92679E-003	5.91667E-003	5.69966E-004	...........
	11	3.1	5.92027E-003	5.92330E-003	5.66332E-004	...........
	12	3.35833	5.91774E-003	5.90412E-003	5.62599E-004	...........
	13	3.61667	5.91685E-003	5.92549E-003	5.66766E-004	...........
	14	3.875	5.91643E-003	5.92116E-003	5.65399E-004	...........
	15	4.13333	5.91696E-003	5.91999E-003	5.65766E-004	...........
	16	4.39167	5.91899E-003	5.94865E-003	5.65132E-004	...........
	17	4.65	5.92269E-003	5.92451E-003	5.68799E-004	...........
	18	4.90833	5.92737E-003	5.93636E-003	5.69132E-004	...........
EOC	QUANT	0.0059274	Open Circuit (V)
PSTATMODEL	IQUANT	4	Pstat Model
PSTATSECTION	LABEL	REF600-11020	Pstat Section
PSTATSERIALNO	LABEL	11020	Pstat Serial Number
CTRLMODE	IQUANT	1	Control Mode
IESTAB	IQUANT	0	I/E Stability
CASPEED	IQUANT	1	Control Amp Speed
CONVENTION	IQUANT	1	Current Convention
ICHRANGE	IQUANT	2	Ich Range
ICHRANGEMODE	TOGGLE	F	Ich Auto Range
ICHOFFSETENABLE	TOGGLE	T	Ich Offset Enable
ICHOFFSET	QUANT	0	Ich Offset (V)
ICHFILTER	IQUANT	3	Ich Filter
VCHRANGE	IQUANT	2	Vch Range
VCHRANGEMODE	TOGGLE	F	Vch Auto Range
VCHOFFSETENABLE	TOGGLE	T	Vch Offset Enable
VCHOFFSET	QUANT	0	Vch Offset (V)
VCHFILTER	IQUANT	3	Vch Filter
ACHRANGE	IQUANT	2	Ach Range
ACHOFFSETENABLE	TOGGLE	F	Ach Offset Enable
ACHOFFSET	QUANT	0	Ach Offset (V)
ACHFILTER	IQUANT	3	Ach Filter
IERANGELOWERLIMIT	IQUANT	1	I/E Range Lower Limit
IERANGEMODE	TOGGLE	F	I/E AutoRange
IERANGE	IQUANT	5	I/E Range
POSFEEDENABLE	TOGGLE	F	Positive Feedback IR Comp
POSFEEDRESISTANCE	QUANT	0	Positive Feedback Resistance (ohm)
ACHSELECT	IQUANT	0	Ach Select
CABLEID	IQUANT	14	Cable ID
DCCALDATE	LABEL	8/19/2019	DC Calibration Date
ACCALDATE	LABEL	8/19/2019	AC Calibration Date
THERMOSELECT	IQUANT	1	Thermo Select
FRAMEWORKVERSION	QUANT	6.33	Framework Version
INSTRUMENTVERSION	LABEL	3.50	Instrument Version
ZCURVE	TABLE
	Pt	Time	Freq	Zreal	Zimag	Zsig	Zmod	Zphz	Idc	Vdc	IERange
	#	s	Hz	ohm	ohm	V	ohm	°	A	V	#
	0	2	1000078	2144.796	-1506.806	1	2621.186	-35.0896	-4.469375E-006	0.0076959	8
	1	3	794390.6	2442.938	-1439.499	1	2835.508	-30.50868	1.012318E-005	0.0063384	8
	2	5	630984.4	2703.561	-1359.633	1	3026.192	-26.69803	-2.824467E-006	0.0083527	8
	3	6	501234.4	2926.254	-1246.291	1	3180.598	-23.06915	-1.348387E-006	0.0081626	8
	4	7	398109.4	3109.59	-1123.365	1	3306.282	-19.86268	-2.272688E-007	0.0072877	8
	5	9	316265.6	3258.522	-1003.926	1	3409.668	-17.12367	-2.826139E-006	0.0074666	8
	6	10	251203.1	3376.681	-906.5145	1	3496.247	-15.02747	-1.643135E-006	0.007316	8
	7	11	199546.9	3452.359	-808.1356	1	3545.683	-13.1747	-3.064687E-006	0.0081617	8
	8	13	158578.1	3536.356	-759.3328	1	3616.96	-12.11865	-6.931884E-007	0.0072516	8
	9	14	125953.1	3651.891	-634.4235	1	3706.589	-9.85533	-2.509746E-006	0.0083812	7
	10	16	100078.1	3709.936	-598.7336	1	3757.939	-9.167718	-1.339383E-006	0.0087071	7
	11	17	79453.13	3769.4	-590.5036	1	3815.373	-8.903432	-7.952248E-007	0.0073212	7
	12	18	63140.62	3830.716	-590.4922	1	3875.96	-8.762983	-7.969672E-007	0.0073182	7
	13	20	50203.12	3890.293	-600.9515	1	3936.436	-8.781334	-1.341688E-006	0.0086933	7
	14	21	39890.62	3955.551	-624.3408	1	4004.521	-8.969518	1.11943E-006	0.0067212	7
	15	22	31640.63	4022.514	-654.7537	1	4075.453	-9.245085	1.084308E-006	0.0056369	7
	16	24	25171.88	4092.745	-695.8129	1	4151.472	-9.64867	1.118608E-006	0.0067248	7
	17	25	20015.62	4164.358	-748.1851	1	4231.035	-10.18532	-9.917546E-007	0.0093614	7
	18	26	15890.62	4248.626	-815.4321	1	4326.17	-10.86457	6.751959E-007	0.0077241	7
	19	28	12609.37	4337.183	-893.1133	1	4428.184	-11.63571	1.084666E-006	0.0056356	7
	20	29	10078.13	4433.223	-987.045	1	4541.775	-12.55201	1.33783E-007	0.0059802	7
	21	31	8015.625	4531.615	-1096.448	1	4662.375	-13.60161	4.326081E-007	0.0080793	7
	22	32	6328.125	4640.738	-1229.16	1	4800.758	-14.83489	-7.969782E-007	0.0073056	7
	23	33	5015.625	4762.352	-1388.985	1	4960.773	-16.25983	1.085625E-006	0.0056356	7
	24	35	3984.375	4879.394	-1572.227	1	5126.44	-17.85986	-1.211835E-006	0.0092747	7
	25	36	3170.956	5011.406	-1794.88	1	5323.136	-19.70544	7.812316E-008	0.0085569	7
	26	38	2527.573	5146.966	-2062.703	1	5544.908	-21.83899	1.08582E-006	0.005626	7
	27	39	1976.103	5301.073	-2421.123	1	5827.796	-24.54728	5.42045E-007	0.005652	7
	28	41	1577.524	5456.869	-2826.214	1	6145.315	-27.38048	1.218484E-006	0.00624	7
	29	42	1265.625	5594.112	-3300.673	1	6495.27	-30.54172	-9.90578E-007	0.0093461	7
	30	43	998.264	5782.075	-3963.453	1	7010.089	-34.42957	5.423561E-007	0.0056466	7
	31	45	796.875	5980.299	-4732.194	1	7626.116	-38.35447	5.406916E-007	0.0056508	7
	32	46	627.7902	6216.023	-5716.512	1	8444.967	-42.60292	-9.862472E-007	0.0093519	7
	33	48	505.5147	6470.8	-6854.172	1	9426.077	-46.648	1.29232E-007	0.0059773	7
	34	49	397.9953	6808.886	-8377.096	1	10795.21	-50.89586	1.205336E-011	0.0074584	6
	35	51	315.5048	7209.235	-10211.26	1	12499.72	-54.77759	7.850344E-010	0.0074609	6
	36	52	252.4038	7683.567	-12374.55	1	14565.95	-58.16317	4.87301E-010	0.0074645	6
	37	53	198.6229	8313.5	-15216.7	1	17339.62	-61.35043	6.251994E-010	0.007456	6
	38	55	158.3615	9055.243	-18521.68	1	20616.74	-63.94601	4.919145E-010	0.0074528	6
	39	56	125.558	10018.51	-22648.97	1	24765.83	-66.13834	6.6407E-010	0.0074444	6
	40	57	100.4464	11233.15	-27497.91	1	29703.85	-67.77954	-8.163056E-011	0.0074597	6
	41	59	79.00281	12711.79	-33872.57	1	36179.29	-69.42975	-6.229164E-010	0.0074528	6
	42	60	63.3446	14552.31	-40533.46	1	43066.59	-70.25086	5.602254E-011	0.0074435	6
	43	62	49.86702	17854.01	-50679.08	1	53732.07	-70.59287	1.163898E-009	0.0074536	6
	44	63	39.72458	20990.18	-61311.15	1	64804.67	-71.1011	-3.280868E-010	0.0074633	6
	45	64	31.6723	25625.28	-74396.65	1	78686.19	-70.99418	8.831624E-010	0.0074434	6
	46	66	24.93351	31823.09	-90736.8	1	96155.5	-70.67328	6.123229E-010	0.0074537	6
	47	67	19.86229	39801.67	-108870.2	1	115917.6	-69.91818	-3.806579E-010	0.0074492	5
	48	69	15.83615	49312.9	-130804.3	1	139791	-69.34368	-9.469316E-010	0.0074564	5
	49	70	12.40079	65344.79	-156683.4	1	169763.5	-67.36143	7.689511E-010	0.0074583	5
	50	72	9.93114	83355.75	-183956.5	1	201960.9	-65.62342	1.979661E-010	0.0074501	5
	51	73	7.944915	106020	-212898.8	1	237836.4	-63.52748	-5.94412E-010	0.0074455	5
	52	75	6.317385	132507.8	-247020.4	1	280316.6	-61.7898	6.392986E-010	0.0074487	5
	53	77	5.008013	165057.5	-283445.5	1	328002	-59.78667	4.448455E-010	0.0074722	5
	54	80	3.945707	204263.1	-323190	1	382328.7	-57.70622	4.254113E-010	0.0074661	5
	55	82	3.158693	245048.3	-361613.9	1	436821.8	-55.8764	-1.111921E-010	0.007448	5
	56	86	2.504006	290497.8	-407383.6	1	500350.3	-54.50803	4.705654E-010	0.0074518	5
	57	88	1.998082	338028	-449312.7	1	562267.5	-53.04504	2.333128E-010	0.0074944	5
	58	91	1.584686	387667.6	-501047.7	1	633510.1	-52.27038	1.537592E-010	0.0074358	5
	59	95	1.266892	439431.2	-560899.9	1	712536.6	-51.92344	1.656463E-010	0.0074893	5
	60	99	0.999041	497159.7	-635165.7	1	806599.8	-51.94884	-9.27066E-011	0.0074172	5
