EXPLAIN
TAG	EISPOT
TITLE	LABEL	Potentiostatic EIS	Test &Identifier
DATE	LABEL	11/27/2019	Date
TIME	LABEL	12:12:09	Time
NOTES	NOTES	3	&Notes...
	
	
	
PSTAT	PSTAT	REF600-11020	Potentiostat
VDC	POTEN	0.00000E+000	T	DC &Voltage (V)
FREQINIT	QUANT	1.00000E+006	Initial Fre&q. (Hz)
FREQFINAL	QUANT	1.00000E+000	Final Fre&q. (Hz)
PTSPERDEC	QUANT	1.00000E+001	Points/&decade
VAC	QUANT	2.50000E+001	AC &Voltage (mV rms)
AREA	QUANT	1.00000E-002	&Area (cm^2)
CONDIT	TWOPARAM	T	5.00000E+000	0.00000E+000	Conditionin&g	Time(s)	E(V)
DELAY	TWOPARAM	T	5.00000E+000	0.00000E+000	Init. De&lay	Time(s)	Stab.(mV/s)
SPEED	SELECTOR	0	&Optimize for:
ZGUESS	QUANT	1.00000E+005	E&stimated Z (ohms)
OCVCURVE	TABLE	19
	Pt	T	Vf	Vm	Ach	Over
	#	s	V vs. Ref.	V	V	bits
	0	0.258333	-1.51593E-002	-1.51593E-002	5.30333E-004	...........
	1	0.516667	-1.51905E-002	-1.67935E-002	5.29033E-004	...........
	2	0.775	-1.53822E-002	-1.83439E-002	5.32433E-004	...........
	3	1.03333	-1.59229E-002	-1.97393E-002	5.34733E-004	...........
	4	1.29167	-1.68827E-002	-2.10723E-002	5.32066E-004	...........
	5	1.55	-1.81424E-002	-2.23143E-002	5.28466E-004	...........
	6	1.80833	-1.95159E-002	-2.35136E-002	5.28800E-004	...........
	7	2.06667	-2.08728E-002	-2.46301E-002	5.29133E-004	...........
	8	2.325	-2.21596E-002	-2.57167E-002	5.29666E-004	...........
	9	2.58333	-2.33689E-002	-2.67314E-002	5.30833E-004	...........
	10	2.84167	-2.45097E-002	-2.77128E-002	5.26600E-004	...........
	11	3.1	-2.55912E-002	-2.86313E-002	5.28966E-004	...........
	12	3.35833	-2.66205E-002	-2.95633E-002	5.32233E-004	...........
	13	3.61667	-2.76043E-002	-3.04385E-002	5.36166E-004	...........
	14	3.875	-2.85504E-002	-3.12861E-002	5.31666E-004	...........
	15	4.13333	-2.94637E-002	-3.20868E-002	5.31700E-004	...........
	16	4.39167	-3.03452E-002	-3.29234E-002	5.25100E-004	...........
	17	4.65	-3.11974E-002	-3.36784E-002	5.29833E-004	...........
	18	4.90833	-3.20241E-002	-3.44358E-002	5.25833E-004	...........
EOC	QUANT	-0.0320241	Open Circuit (V)
PSTATMODEL	IQUANT	4	Pstat Model
PSTATSECTION	LABEL	REF600-11020	Pstat Section
PSTATSERIALNO	LABEL	11020	Pstat Serial Number
CTRLMODE	IQUANT	1	Control Mode
IESTAB	IQUANT	0	I/E Stability
CASPEED	IQUANT	1	Control Amp Speed
CONVENTION	IQUANT	1	Current Convention
ICHRANGE	IQUANT	2	Ich Range
ICHRANGEMODE	TOGGLE	F	Ich Auto Range
ICHOFFSETENABLE	TOGGLE	T	Ich Offset Enable
ICHOFFSET	QUANT	0	Ich Offset (V)
ICHFILTER	IQUANT	3	Ich Filter
VCHRANGE	IQUANT	2	Vch Range
VCHRANGEMODE	TOGGLE	F	Vch Auto Range
VCHOFFSETENABLE	TOGGLE	T	Vch Offset Enable
VCHOFFSET	QUANT	0	Vch Offset (V)
VCHFILTER	IQUANT	3	Vch Filter
ACHRANGE	IQUANT	2	Ach Range
ACHOFFSETENABLE	TOGGLE	F	Ach Offset Enable
ACHOFFSET	QUANT	0	Ach Offset (V)
ACHFILTER	IQUANT	3	Ach Filter
IERANGELOWERLIMIT	IQUANT	1	I/E Range Lower Limit
IERANGEMODE	TOGGLE	F	I/E AutoRange
IERANGE	IQUANT	5	I/E Range
POSFEEDENABLE	TOGGLE	F	Positive Feedback IR Comp
POSFEEDRESISTANCE	QUANT	0	Positive Feedback Resistance (ohm)
ACHSELECT	IQUANT	0	Ach Select
CABLEID	IQUANT	14	Cable ID
DCCALDATE	LABEL	8/19/2019	DC Calibration Date
ACCALDATE	LABEL	8/19/2019	AC Calibration Date
THERMOSELECT	IQUANT	1	Thermo Select
FRAMEWORKVERSION	QUANT	6.33	Framework Version
INSTRUMENTVERSION	LABEL	3.50	Instrument Version
ZCURVE	TABLE
	Pt	Time	Freq	Zreal	Zimag	Zsig	Zmod	Zphz	Idc	Vdc	IERange
	#	s	Hz	ohm	ohm	V	ohm	°	A	V	#
	0	1	1000078	2100.007	-1365.74	1	2505.05	-33.03797	-6.139459E-007	-0.0292111	8
	1	1	794390.6	2370.615	-1292.586	1	2700.11	-28.60157	5.224736E-006	-0.030224	8
	2	2	630984.4	2608.619	-1173.804	1	2860.544	-24.22638	-2.797921E-007	-0.0298696	8
	3	2	501234.4	2784.475	-1048.549	1	2975.358	-20.63486	-7.952997E-007	-0.0299272	8
	4	2	398109.4	2930.142	-910.6619	1	3068.393	-17.26478	-2.073052E-006	-0.0302572	8
	5	3	316265.6	3050.51	-791.8551	1	3151.61	-14.55174	6.83928E-006	-0.0312068	8
	6	3	251203.1	3132.372	-684.2581	1	3206.238	-12.32253	3.552327E-006	-0.0305217	8
	7	3	199546.9	3191.692	-595.0762	1	3246.693	-10.56127	6.875603E-007	-0.0301177	8
	8	4	158578.1	3253.797	-501.0107	1	3292.144	-8.753498	-1.998854E-006	-0.0302983	8
	9	4	125953.1	3301.926	-417.2484	1	3328.184	-7.202018	-1.573466E-006	-0.0307877	7
	10	4	100078.1	3328.997	-367.8942	1	3349.264	-6.306283	9.206075E-007	-0.0311544	7
	11	5	79453.13	3358.381	-344.6884	1	3376.023	-5.860049	9.768464E-007	-0.0318219	7
	12	5	63140.62	3379.35	-325.2057	1	3394.962	-5.49683	-1.074516E-006	-0.0295445	7
	13	5	50203.12	3411.369	-321.2007	1	3426.457	-5.378882	7.274202E-007	-0.0307067	7
	14	5	39890.62	3436.641	-324.0154	1	3451.882	-5.386074	3.428334E-007	-0.0300553	7
	15	6	31640.63	3462.128	-325.4586	1	3477.392	-5.370327	-9.119485E-007	-0.0300536	7
	16	6	25171.88	3490.491	-342.3299	1	3507.238	-5.60137	6.737879E-007	-0.0320477	7
	17	6	20015.62	3512.633	-368.6427	1	3531.924	-5.991127	-5.410479E-007	-0.0291266	7
	18	7	15890.62	3549.152	-403.5486	1	3572.021	-6.486832	4.192641E-007	-0.031953	7
	19	7	12609.37	3574.034	-444.2721	1	3601.541	-7.085833	-9.48355E-007	-0.0291014	7
	20	7	10078.13	3608.349	-502.0592	1	3643.11	-7.921176	-9.079135E-007	-0.0300594	7
	21	8	8015.625	3636.454	-573.1177	1	3681.34	-8.956342	-1.055427E-006	-0.029566	7
	22	8	6328.125	3678.272	-669.0284	1	3738.62	-10.30864	3.475075E-007	-0.0300643	7
	23	8	5015.625	3716.673	-781.0632	1	3797.857	-11.86807	4.179656E-007	-0.0319544	7
	24	9	3984.375	3759.998	-926.5021	1	3872.466	-13.8425	-6.371611E-007	-0.0306495	7
	25	9	3170.956	3815.123	-1104.592	1	3971.812	-16.14731	8.471256E-007	-0.0319751	7
	26	9	2527.573	3867.676	-1309.637	1	4083.389	-18.70666	8.813506E-007	-0.0311426	7
	27	10	1976.103	3942.428	-1604.812	1	4256.543	-22.14936	8.500244E-007	-0.0319727	7
	28	10	1577.524	4008.13	-1928.384	1	4447.895	-25.69306	1.020944E-007	-0.0317089	7
	29	10	1265.625	4100.061	-2314.005	1	4707.984	-29.43965	7.204411E-007	-0.0307117	7
	30	11	998.264	4208.826	-2823.904	1	5068.397	-33.85957	-2.471196E-007	-0.0293489	7
	31	11	796.875	4329.867	-3429.193	1	5523.325	-38.37872	6.811217E-007	-0.0320548	7
	32	11	627.7902	4496.685	-4208.469	1	6158.847	-43.10371	5.263921E-007	-0.0303355	7
	33	12	505.5147	4654.501	-5081.46	1	6890.98	-47.51103	8.430355E-007	-0.0319689	7
	34	12	397.9953	4891.168	-6237.021	1	7926.156	-51.8959	2.333332E-009	-0.0304871	7
	35	12	315.5048	5161.273	-7646.343	1	9225.254	-55.98069	5.284251E-009	-0.0304902	7
	36	12	252.4038	5487.02	-9309.899	1	10806.55	-59.48597	1.374658E-009	-0.0305532	6
	37	13	198.6229	5924.258	-11512.37	1	12947.26	-62.76968	2.413493E-009	-0.0305606	6
	38	13	158.3615	6459.063	-14071.98	1	15483.54	-65.3448	1.908399E-009	-0.0305591	6
	39	13	125.558	7161.403	-17296.91	1	18720.81	-67.50908	1.857823E-009	-0.0305474	6
	40	14	100.4464	8073.772	-21066.49	1	22560.64	-69.03057	3.522207E-009	-0.0305617	6
	41	14	79.00281	9375.763	-26068.43	1	27703.21	-70.21838	2.03862E-009	-0.030563	6
	42	14	63.3446	10504.81	-31496.7	1	33202.3	-71.55537	1.876255E-009	-0.0305673	6
	43	15	49.86702	12842.86	-38676.35	1	40752.9	-71.63075	1.810855E-009	-0.0305562	6
	44	15	39.72458	15780.96	-47138.82	1	49710.23	-71.49068	2.471487E-009	-0.030551	6
	45	16	31.6723	19594.12	-57049.63	1	60320.72	-71.04459	2.971438E-009	-0.0305571	6
	46	16	24.93351	24457.54	-69043.63	1	73247.49	-70.49417	1.212275E-009	-0.0305546	6
	47	16	19.86229	30566.59	-82632.3	1	88104.55	-69.70001	1.427816E-009	-0.030561	6
	48	16	15.83615	38046.29	-99118.1	1	106169.3	-69.00081	3.033299E-009	-0.0305586	5
	49	17	12.40079	49016.82	-118548.9	1	128282.9	-67.53621	1.974676E-009	-0.0305512	5
	50	17	9.93114	60226.63	-138133.5	1	150692.2	-66.44266	1.346629E-009	-0.030551	5
	51	18	7.944915	74410.25	-160988.8	1	177353.5	-65.19326	9.311289E-010	-0.0305513	5
	52	18	6.317385	91685.12	-187725.1	1	208918.3	-63.96907	1.520184E-009	-0.0305346	5
	53	19	5.008013	112443.1	-218667.8	1	245884.2	-62.78692	1.584416E-009	-0.030547	5
	54	20	3.945707	136433.9	-253946.4	1	288275.9	-61.75288	1.72079E-009	-0.0305532	5
	55	22	3.158693	162674	-292244.7	1	334469.4	-60.89811	1.884691E-009	-0.0305348	5
	56	23	2.504006	193922	-337050.3	1	388855.5	-60.08602	1.614794E-009	-0.0305442	5
	57	24	1.998082	227708.6	-387204.4	1	449197.5	-59.54091	1.571405E-009	-0.0305748	5
	58	26	1.584686	268186	-445255.2	1	519784.5	-58.93861	1.698251E-009	-0.030521	5
	59	28	1.266892	312556.6	-511899.2	1	599776.9	-58.5925	1.699192E-009	-0.0305156	5
	60	31	0.999041	363539.7	-593325.6	1	695842.3	-58.50356	1.637863E-009	-0.0305265	5
