EXPLAIN
TAG	EISPOT
TITLE	LABEL	Potentiostatic EIS	Test &Identifier
DATE	LABEL	10/20/2019	Date
TIME	LABEL	11:08:05	Time
NOTES	NOTES	1	&Notes...
	
PSTAT	PSTAT	REF600-11020	Potentiostat
VDC	POTEN	0.00000E+000	T	DC &Voltage (V)
FREQINIT	QUANT	1.00000E+006	Initial Fre&q. (Hz)
FREQFINAL	QUANT	1.00000E+000	Final Fre&q. (Hz)
PTSPERDEC	QUANT	1.00000E+001	Points/&decade
VAC	QUANT	2.50000E+001	AC &Voltage (mV rms)
AREA	QUANT	1.00000E-002	&Area (cm^2)
CONDIT	TWOPARAM	T	5.00000E+000	0.00000E+000	Conditionin&g	Time(s)	E(V)
DELAY	TWOPARAM	T	5.00000E+000	0.00000E+000	Init. De&lay	Time(s)	Stab.(mV/s)
SPEED	SELECTOR	1	&Optimize for:
ZGUESS	QUANT	1.00000E+005	E&stimated Z (ohms)
OCVCURVE	TABLE	19
	Pt	T	Vf	Vm	Ach	Over
	#	s	V vs. Ref.	V	V	bits
	0	0.258333	6.32367E-003	6.32367E-003	5.45033E-004	...........
	1	0.516667	6.32143E-003	6.20645E-003	5.37199E-004	...........
	2	0.775	6.30813E-003	6.11881E-003	5.42133E-004	...........
	3	1.03333	6.27225E-003	6.04878E-003	5.38333E-004	...........
	4	1.29167	6.21259E-003	6.00569E-003	5.43833E-004	...........
	5	1.55	6.14119E-003	5.94602E-003	5.43833E-004	...........
	6	1.80833	6.07159E-003	5.90221E-003	5.48899E-004	...........
	7	2.06667	6.00880E-003	5.80553E-003	5.48666E-004	...........
	8	2.325	5.95063E-003	5.82460E-003	5.42399E-004	...........
	9	2.58333	5.89743E-003	5.82585E-003	5.39066E-004	...........
	10	2.84167	5.85589E-003	5.79588E-003	5.37499E-004	...........
	11	3.1	5.82949E-003	5.78779E-003	5.48499E-004	...........
	12	3.35833	5.81290E-003	5.76099E-003	5.50233E-004	...........
	13	3.61667	5.79839E-003	5.73289E-003	5.44366E-004	...........
	14	3.875	5.77986E-003	5.63357E-003	5.44399E-004	...........
	15	4.13333	5.75155E-003	5.61734E-003	5.47233E-004	...........
	16	4.39167	5.71217E-003	5.60430E-003	5.48866E-004	...........
	17	4.65	5.66967E-003	5.60003E-003	5.48966E-004	...........
	18	4.90833	5.63519E-003	5.60174E-003	5.46933E-004	...........
EOC	QUANT	0.0056352	Open Circuit (V)
PSTATMODEL	IQUANT	4	Pstat Model
PSTATSECTION	LABEL	REF600-11020	Pstat Section
PSTATSERIALNO	LABEL	11020	Pstat Serial Number
CTRLMODE	IQUANT	1	Control Mode
IESTAB	IQUANT	0	I/E Stability
CASPEED	IQUANT	1	Control Amp Speed
CONVENTION	IQUANT	1	Current Convention
ICHRANGE	IQUANT	2	Ich Range
ICHRANGEMODE	TOGGLE	F	Ich Auto Range
ICHOFFSETENABLE	TOGGLE	T	Ich Offset Enable
ICHOFFSET	QUANT	0	Ich Offset (V)
ICHFILTER	IQUANT	3	Ich Filter
VCHRANGE	IQUANT	2	Vch Range
VCHRANGEMODE	TOGGLE	F	Vch Auto Range
VCHOFFSETENABLE	TOGGLE	T	Vch Offset Enable
VCHOFFSET	QUANT	0	Vch Offset (V)
VCHFILTER	IQUANT	3	Vch Filter
ACHRANGE	IQUANT	2	Ach Range
ACHOFFSETENABLE	TOGGLE	F	Ach Offset Enable
ACHOFFSET	QUANT	0	Ach Offset (V)
ACHFILTER	IQUANT	3	Ach Filter
IERANGELOWERLIMIT	IQUANT	1	I/E Range Lower Limit
IERANGEMODE	TOGGLE	F	I/E AutoRange
IERANGE	IQUANT	5	I/E Range
POSFEEDENABLE	TOGGLE	F	Positive Feedback IR Comp
POSFEEDRESISTANCE	QUANT	0	Positive Feedback Resistance (ohm)
ACHSELECT	IQUANT	0	Ach Select
CABLEID	IQUANT	14	Cable ID
DCCALDATE	LABEL	8/19/2019	DC Calibration Date
ACCALDATE	LABEL	8/19/2019	AC Calibration Date
THERMOSELECT	IQUANT	1	Thermo Select
FRAMEWORKVERSION	QUANT	6.33	Framework Version
INSTRUMENTVERSION	LABEL	3.50	Instrument Version
ZCURVE	TABLE
	Pt	Time	Freq	Zreal	Zimag	Zsig	Zmod	Zphz	Idc	Vdc	IERange
	#	s	Hz	ohm	ohm	V	ohm	°	A	V	#
	0	1	1000078	2799.747	-2112.94	1	3507.577	-37.04148	1.505869E-006	0.0078532	8
	1	3	794390.6	3221.392	-2065.674	1	3826.796	-32.66947	-1.480944E-006	0.007973	8
	2	4	630984.4	3621.67	-1969.593	1	4122.595	-28.53893	1.388104E-006	0.0074577	8
	3	6	501234.4	3964.121	-1813.335	1	4359.179	-24.58111	2.262817E-006	0.0068609	8
	4	7	398109.4	4281.102	-1644.314	1	4586.022	-21.01112	-1.171492E-006	0.0077767	8
	5	9	316265.6	4512.405	-1443.018	1	4737.52	-17.73371	1.461824E-006	0.0071171	8
	6	10	251203.1	4666.529	-1259.347	1	4833.472	-15.10253	-2.623648E-006	0.0077053	8
	7	12	199546.9	4858.902	-1085.408	1	4978.659	-12.5923	1.747853E-006	0.0069182	8
	8	13	158578.1	4971.013	-935.6659	1	5058.304	-10.65975	8.676705E-008	0.0073585	8
	9	15	125953.1	5097.868	-722.4731	1	5148.808	-8.066278	-1.25474E-006	0.0099176	7
	10	16	100078.1	5129.125	-636.4678	1	5168.464	-7.073614	-2.114591E-008	0.0073492	7
	11	18	79453.13	5181.172	-569.4651	1	5212.373	-6.272231	6.987652E-009	0.007223	7
	12	19	63140.62	5223.437	-518.437	1	5249.102	-5.668162	-2.115994E-008	0.0073369	7
	13	20	50203.12	5262.64	-482.3168	1	5284.695	-5.236485	-4.560702E-008	0.0073114	7
	14	22	39890.62	5301.667	-463.1945	1	5321.863	-4.993122	-7.139269E-009	0.0073501	7
	15	23	31640.63	5336.746	-449.8801	1	5355.674	-4.81856	-7.016349E-008	0.0074515	7
	16	25	25171.88	5371.322	-452.7953	1	5390.374	-4.818566	-8.880978E-008	0.0074227	7
	17	26	20015.62	5441.336	-484.1778	1	5462.835	-5.084867	3.190981E-008	0.0071673	7
	18	27	15890.62	5446.868	-493.646	1	5469.191	-5.178531	-5.841654E-008	0.0073875	7
	19	29	12609.37	5481.093	-536.0305	1	5507.241	-5.585553	-6.894612E-008	0.0073899	7
	20	30	10078.13	5519.814	-584.7249	1	5550.698	-6.046905	-5.782116E-008	0.0074034	7
	21	32	8015.625	5576.651	-639.7563	1	5613.228	-6.544392	-7.758099E-009	0.0072287	7
	22	33	6328.125	5602.933	-752.8948	1	5653.292	-7.653282	-4.152363E-008	0.0072969	7
	23	35	5015.625	5647.349	-872.8243	1	5714.4	-8.785817	1.006793E-007	0.0070785	7
	24	36	3984.375	5684.94	-1058.025	1	5782.557	-10.54271	1.28237E-007	0.0070937	7
	25	37	3170.956	5754.288	-1207.623	1	5879.642	-11.85237	2.051056E-009	0.007258	7
	26	39	2527.573	5816.047	-1435.717	1	5990.634	-13.86649	-5.841191E-008	0.0073996	7
	27	40	1976.103	5891.781	-1740.387	1	6143.455	-16.45674	5.610216E-008	0.0071188	7
	28	42	1577.524	6013.45	-2081.915	1	6363.643	-19.09635	-4.403124E-009	0.0072148	7
	29	43	1265.625	6061.262	-2502.747	1	6557.64	-22.43615	1.282829E-007	0.0070929	7
	30	45	998.264	6170.517	-3056.724	1	6886.133	-26.35269	-6.235149E-008	0.0073234	7
	31	46	796.875	6295.733	-3697.291	1	7301.111	-30.42441	-7.768708E-011	0.0072642	7
	32	48	627.7902	6442.003	-4542.697	1	7882.608	-35.19028	-8.840225E-008	0.0075623	7
	33	49	505.5147	6614.011	-5488.324	1	8594.582	-39.68598	1.279402E-007	0.0070892	7
	34	50	397.9953	6831.557	-6772.364	1	9619.52	-44.7507	3.977122E-009	0.0073018	7
	35	52	315.5048	7097.835	-8323.694	1	10939.07	-49.54489	2.007203E-009	0.0072388	6
	36	53	252.4038	7409.063	-10162.32	1	12576.45	-53.90526	2.015981E-009	0.0072403	6
	37	54	198.6229	7830.631	-12606.64	1	14840.7	-58.15347	1.581776E-009	0.0072402	6
	38	56	158.3615	8353.357	-15463.46	1	17575.47	-61.62209	1.09713E-009	0.007235	6
	39	57	125.558	9022.592	-19064.64	1	21091.89	-64.67354	1.016904E-009	0.0072377	6
	40	59	100.4464	9879.61	-23342.51	1	25347.18	-67.05972	-6.513317E-010	0.0072301	6
	41	60	79.00281	11156.39	-28812.88	1	30897.37	-68.83353	4.300805E-010	0.0072357	6
	42	61	63.3446	13165.36	-35000.13	1	37394.32	-69.38612	1.539024E-009	0.0072349	6
	43	63	49.86702	14787.82	-44005.95	1	46424.17	-71.42552	-2.718307E-010	0.0072304	6
	44	64	39.72458	17705.17	-53221.62	1	56089.34	-71.59933	1.341265E-009	0.0072322	6
	45	66	31.6723	21474.63	-64724.61	1	68194.09	-71.64495	6.641138E-010	0.0072329	6
	46	67	24.93351	26695.25	-79029.6	1	83416.51	-71.33566	3.904819E-010	0.0072367	6
	47	69	19.86229	33573.76	-95556.5	1	101282.9	-70.64108	7.687889E-010	0.0072323	6
	48	70	15.83615	41394.38	-116207.7	1	123360.1	-70.39358	3.341315E-009	0.007235	5
	49	71	12.40079	54705.71	-137266.8	1	147766.4	-68.27096	1.769522E-010	0.0072424	5
	50	73	9.93114	67707.52	-162665.9	1	176194.5	-67.40112	4.768179E-010	0.0072422	5
	51	74	7.944915	85191.05	-189656.4	1	207911.2	-65.81104	8.52839E-010	0.0072321	5
	52	76	6.317385	106944	-221316.8	1	245801	-64.20939	1.366452E-010	0.0072574	5
	53	78	5.008013	132382	-256492.5	1	288640.6	-62.70065	3.986484E-010	0.0072417	5
	54	81	3.945707	162641.4	-297046	1	338657	-61.298	3.522669E-010	0.0072468	5
	55	84	3.158693	195273.5	-339982.9	1	392071.6	-60.12854	-8.49336E-012	0.0072356	5
	56	87	2.504006	233121.9	-389741.1	1	454140.8	-59.11443	4.839771E-010	0.007235	5
	57	90	1.998082	274526.6	-444586.1	1	522514.8	-58.30516	1.133623E-010	0.0072765	5
	58	93	1.584686	320604	-508269	1	600936.2	-57.75725	2.03325E-010	0.0072224	5
	59	96	1.266892	373078.4	-580872.5	1	690362.4	-57.28849	1.365378E-010	0.0072785	5
	60	101	0.999041	434405.7	-668525.8	1	797267.2	-56.98433	-2.023218E-011	0.007195	5
