EXPLAIN
TAG	EISPOT
TITLE	LABEL	Potentiostatic EIS	Test &Identifier
DATE	LABEL	11/5/2019	Date
TIME	LABEL	8:38:26	Time
NOTES	NOTES	2	&Notes...
	
	
PSTAT	PSTAT	REF600-11020	Potentiostat
VDC	POTEN	0.00000E+000	T	DC &Voltage (V)
FREQINIT	QUANT	1.00000E+006	Initial Fre&q. (Hz)
FREQFINAL	QUANT	1.00000E+000	Final Fre&q. (Hz)
PTSPERDEC	QUANT	1.00000E+001	Points/&decade
VAC	QUANT	2.50000E+001	AC &Voltage (mV rms)
AREA	QUANT	1.00000E-002	&Area (cm^2)
CONDIT	TWOPARAM	T	5.00000E+000	0.00000E+000	Conditionin&g	Time(s)	E(V)
DELAY	TWOPARAM	T	5.00000E+000	0.00000E+000	Init. De&lay	Time(s)	Stab.(mV/s)
SPEED	SELECTOR	1	&Optimize for:
ZGUESS	QUANT	1.00000E+005	E&stimated Z (ohms)
OCVCURVE	TABLE	19
	Pt	T	Vf	Vm	Ach	Over
	#	s	V vs. Ref.	V	V	bits
	0	0.258333	5.51061E-003	5.51061E-003	5.60866E-004	...........
	1	0.516667	5.50019E-003	4.96515E-003	5.59966E-004	...........
	2	0.775	5.44980E-003	5.15976E-003	5.67266E-004	...........
	3	1.03333	5.34415E-003	4.91307E-003	5.65766E-004	...........
	4	1.29167	5.21399E-003	5.06871E-003	5.63999E-004	...........
	5	1.55	5.10666E-003	5.04149E-003	5.59999E-004	...........
	6	1.80833	5.04489E-003	4.94510E-003	5.59066E-004	...........
	7	2.06667	5.01572E-003	4.86210E-003	5.53066E-004	...........
	8	2.325	4.98690E-003	4.77204E-003	5.58099E-004	...........
	9	2.58333	4.93771E-003	4.71910E-003	5.56133E-004	...........
	10	2.84167	4.87096E-003	4.68952E-003	5.55666E-004	...........
	11	3.1	4.80132E-003	4.64114E-003	5.55933E-004	...........
	12	3.35833	4.74033E-003	4.60816E-003	5.52733E-004	...........
	13	3.61667	4.69036E-003	4.57462E-003	5.56899E-004	...........
	14	3.875	4.64874E-003	4.55301E-003	5.63366E-004	...........
	15	4.13333	4.61287E-003	4.51844E-003	5.61399E-004	...........
	16	4.39167	4.58122E-003	4.50559E-003	5.58166E-004	...........
	17	4.65	4.55280E-003	4.47389E-003	5.65099E-004	...........
	18	4.90833	4.52693E-003	4.46006E-003	5.57933E-004	...........
EOC	QUANT	0.0045269	Open Circuit (V)
PSTATMODEL	IQUANT	4	Pstat Model
PSTATSECTION	LABEL	REF600-11020	Pstat Section
PSTATSERIALNO	LABEL	11020	Pstat Serial Number
CTRLMODE	IQUANT	1	Control Mode
IESTAB	IQUANT	0	I/E Stability
CASPEED	IQUANT	1	Control Amp Speed
CONVENTION	IQUANT	1	Current Convention
ICHRANGE	IQUANT	2	Ich Range
ICHRANGEMODE	TOGGLE	F	Ich Auto Range
ICHOFFSETENABLE	TOGGLE	T	Ich Offset Enable
ICHOFFSET	QUANT	0	Ich Offset (V)
ICHFILTER	IQUANT	3	Ich Filter
VCHRANGE	IQUANT	2	Vch Range
VCHRANGEMODE	TOGGLE	F	Vch Auto Range
VCHOFFSETENABLE	TOGGLE	T	Vch Offset Enable
VCHOFFSET	QUANT	0	Vch Offset (V)
VCHFILTER	IQUANT	3	Vch Filter
ACHRANGE	IQUANT	2	Ach Range
ACHOFFSETENABLE	TOGGLE	F	Ach Offset Enable
ACHOFFSET	QUANT	0	Ach Offset (V)
ACHFILTER	IQUANT	3	Ach Filter
IERANGELOWERLIMIT	IQUANT	1	I/E Range Lower Limit
IERANGEMODE	TOGGLE	F	I/E AutoRange
IERANGE	IQUANT	4	I/E Range
POSFEEDENABLE	TOGGLE	F	Positive Feedback IR Comp
POSFEEDRESISTANCE	QUANT	0	Positive Feedback Resistance (ohm)
ACHSELECT	IQUANT	0	Ach Select
CABLEID	IQUANT	14	Cable ID
DCCALDATE	LABEL	8/19/2019	DC Calibration Date
ACCALDATE	LABEL	8/19/2019	AC Calibration Date
THERMOSELECT	IQUANT	1	Thermo Select
FRAMEWORKVERSION	QUANT	6.33	Framework Version
INSTRUMENTVERSION	LABEL	3.50	Instrument Version
ZCURVE	TABLE
	Pt	Time	Freq	Zreal	Zimag	Zsig	Zmod	Zphz	Idc	Vdc	IERange
	#	s	Hz	ohm	ohm	V	ohm	°	A	V	#
	0	1	1000078	2324.279	-1518.318	1	2776.25	-33.15427	1.208505E-005	0.0057095	8
	1	3	794390.6	2624.563	-1441.225	1	2994.238	-28.77249	-9.200098E-006	0.0071764	8
	2	4	630984.4	2897.907	-1295.389	1	3174.255	-24.08504	9.329259E-006	0.0049105	8
	3	5	501234.4	3089.771	-1158.171	1	3299.704	-20.54803	3.148364E-006	0.0061115	8
	4	7	398109.4	3253.367	-1006.875	1	3405.613	-17.19662	-7.050228E-007	0.0065873	8
	5	8	316265.6	3374.861	-872.1669	1	3485.737	-14.48995	-2.137431E-006	0.0062116	8
	6	10	251203.1	3465.596	-750.1707	1	3545.858	-12.21393	-3.664796E-006	0.0066216	8
	7	11	199546.9	3532.444	-647.8483	1	3591.36	-10.39252	2.319559E-006	0.0055411	8
	8	12	158578.1	3572.199	-554.2133	1	3614.936	-8.818915	-2.813167E-006	0.0065945	8
	9	14	125953.1	3656.074	-433.3696	1	3681.669	-6.759964	-1.749084E-006	0.0056579	7
	10	15	100078.1	3671.397	-379.0958	1	3690.918	-5.895271	5.052415E-007	0.0042849	7
	11	17	79453.13	3710.064	-361.3276	1	3727.618	-5.562562	1.039388E-006	0.0052664	7
	12	18	63140.62	3738.903	-344.9748	1	3754.784	-5.271545	8.071577E-007	0.0041695	7
	13	19	50203.12	3765.922	-337.1772	1	3780.986	-5.116266	1.043037E-006	0.0052637	7
	14	21	39890.62	3795.225	-335.8845	1	3810.059	-5.057606	1.012501E-006	0.0042546	7
	15	22	31640.63	3821.745	-343.5349	1	3837.154	-5.136487	-1.078331E-006	0.0065252	7
	16	23	25171.88	3850.74	-360.3185	1	3867.562	-5.345671	-6.408522E-007	0.007637	7
	17	25	20015.62	3883.147	-386.3848	1	3902.323	-5.682399	4.001506E-007	0.0065373	7
	18	26	15890.62	3914.61	-418.8979	1	3936.959	-6.107912	-1.12993E-006	0.007659	7
	19	27	12609.37	3952.993	-466.6084	1	3980.437	-6.732	1.121163E-006	0.0044827	7
	20	29	10078.13	3989.954	-521.5906	1	4023.902	-7.447812	8.082609E-007	0.0041569	7
	21	30	8015.625	4022.644	-588.3832	1	4065.447	-8.321518	-2.990853E-007	0.0073828	7
	22	31	6328.125	4065.571	-681.8951	1	4122.36	-9.52127	1.121363E-006	0.004482	7
	23	33	5015.625	4106.214	-794.3575	1	4182.343	-10.94877	7.272942E-008	0.0069685	7
	24	34	3984.375	4152.72	-932.837	1	4256.203	-12.66036	-6.388847E-007	0.0076333	7
	25	36	3170.956	4204.249	-1104.858	1	4347.001	-14.72415	-1.263134E-006	0.0074842	7
	26	37	2527.573	4265.066	-1316.777	1	4463.708	-17.15731	1.123199E-006	0.0044845	7
	27	38	1976.103	4338.056	-1598.265	1	4623.114	-20.22525	-7.496498E-007	0.0058209	7
	28	40	1577.524	4414.885	-1916.326	1	4812.849	-23.46375	1.046131E-006	0.0052523	7
	29	41	1265.625	4499.936	-2299.466	1	5053.411	-27.06702	7.464375E-008	0.0069723	7
	30	42	998.264	4610.074	-2801.99	1	5394.806	-31.29112	-1.079809E-006	0.0065196	7
	31	44	796.875	4731.019	-3395.035	1	5823.126	-35.66367	8.088672E-007	0.0041617	7
	32	45	627.7902	4885.535	-4153.876	1	6412.732	-40.37251	-2.97722E-007	0.007385	7
	33	46	505.5147	5050.481	-5013.835	1	7116.594	-44.79138	-2.989384E-007	0.007381	7
	34	48	397.9953	5264.71	-6175.691	1	8115.191	-49.55276	3.276698E-009	0.0060191	7
	35	49	315.5048	5520.854	-7574.075	1	9372.644	-53.91114	3.121756E-009	0.0060198	7
	36	51	252.4038	5829.327	-9226.422	1	10913.66	-57.71498	6.336956E-011	0.0059557	6
	37	52	198.6229	6237.844	-11421	1	13013.46	-61.35782	3.05025E-010	0.0059536	6
	38	53	158.3615	6730.649	-13979.21	1	15515.16	-64.29032	8.651801E-011	0.005956	6
	39	55	125.558	7387.439	-17203.62	1	18722.68	-66.76074	6.821502E-010	0.0059467	6
	40	56	100.4464	8206.367	-21009.39	1	22555.24	-68.66415	8.367133E-012	0.0059355	6
	41	57	79.00281	9425.902	-25962.87	1	27620.97	-70.04641	6.069575E-012	0.0059418	6
	42	59	63.3446	10953.43	-31308.44	1	33169.2	-70.71732	1.126471E-009	0.0059386	6
	43	60	49.86702	13016.22	-39073.77	1	41184.73	-71.5761	1.305639E-010	0.0059478	6
	44	62	39.72458	15424.04	-47446.95	1	49891.02	-71.99171	7.943208E-010	0.0059466	6
	45	63	31.6723	18817.49	-57338.54	1	60347.38	-71.83109	5.466255E-011	0.005954	6
	46	65	24.93351	23572.79	-70098.55	1	73955.95	-71.4132	4.410833E-010	0.0059391	6
	47	66	19.86229	29342.52	-84299.45	1	89260.19	-70.80828	-3.973358E-010	0.005944	6
	48	67	15.83615	36370.07	-101230.1	1	107565.4	-70.23759	2.448044E-009	0.0059418	5
	49	69	12.40079	47231.31	-121194.5	1	130072.7	-68.70839	6.548093E-010	0.0059496	5
	50	70	9.93114	59074.2	-143391.1	1	155083.1	-67.60934	5.393597E-010	0.0059428	5
	51	72	7.944915	73622.19	-168220.7	1	183625.8	-66.36329	4.055535E-010	0.0059573	5
	52	73	6.317385	90835.38	-196426.8	1	216413	-65.18235	6.296272E-010	0.0059555	5
	53	75	5.008013	112134.3	-229781.5	1	255682.7	-63.98743	3.512675E-010	0.0059525	5
	54	78	3.945707	137752.3	-268362.8	1	301652.6	-62.82828	-1.518159E-010	0.0059508	5
	55	81	3.158693	165754.5	-308625.4	1	350320.2	-61.76094	3.148003E-010	0.0059699	5
	56	84	2.504006	199272.4	-357722.3	1	409481	-60.87962	-1.589351E-010	0.0059467	5
	57	87	1.998082	236160.9	-410901.2	1	473932.2	-60.11234	-8.292955E-011	0.0059337	5
	58	90	1.584686	280933.3	-472980.3	1	550121.6	-59.29121	1.555674E-010	0.0059999	5
	59	94	1.266892	327672.3	-542287.3	1	633596.6	-58.8579	-1.139158E-010	0.0059669	5
	60	98	0.999041	384980.6	-627111.1	1	735852.1	-58.45443	3.062544E-010	0.0059687	5
