EXPLAIN
TAG	EISPOT
TITLE	LABEL	Potentiostatic EIS	Test &Identifier
DATE	LABEL	10/8/2019	Date
TIME	LABEL	8:32:01	Time
NOTES	NOTES	2	&Notes...
	
	
PSTAT	PSTAT	REF600-11020	Potentiostat
VDC	POTEN	0.00000E+000	T	DC &Voltage (V)
FREQINIT	QUANT	1.00000E+006	Initial Fre&q. (Hz)
FREQFINAL	QUANT	1.00000E+000	Final Fre&q. (Hz)
PTSPERDEC	QUANT	1.00000E+001	Points/&decade
VAC	QUANT	2.50000E+001	AC &Voltage (mV rms)
AREA	QUANT	1.00000E-002	&Area (cm^2)
CONDIT	TWOPARAM	T	5.00000E+000	0.00000E+000	Conditionin&g	Time(s)	E(V)
DELAY	TWOPARAM	T	5.00000E+000	0.00000E+000	Init. De&lay	Time(s)	Stab.(mV/s)
SPEED	SELECTOR	1	&Optimize for:
ZGUESS	QUANT	1.00000E+004	E&stimated Z (ohms)
OCVCURVE	TABLE	19
	Pt	T	Vf	Vm	Ach	Over
	#	s	V vs. Ref.	V	V	bits
	0	0.258333	6.02849E-003	6.02849E-003	5.53266E-004	...........
	1	0.516667	6.02838E-003	6.02312E-003	5.47599E-004	...........
	2	0.775	6.02860E-003	6.06236E-003	5.54266E-004	...........
	3	1.03333	6.03211E-003	6.10411E-003	5.47666E-004	...........
	4	1.29167	6.04408E-003	6.13949E-003	5.40199E-004	...........
	5	1.55	6.06725E-003	6.17860E-003	5.46933E-004	...........
	6	1.80833	6.09978E-003	6.23782E-003	5.50799E-004	...........
	7	2.06667	6.13914E-003	6.29817E-003	5.47933E-004	...........
	8	2.325	6.18452E-003	6.33930E-003	5.49533E-004	...........
	9	2.58333	6.23435E-003	6.38398E-003	5.47333E-004	...........
	10	2.84167	6.28507E-003	6.42610E-003	5.55166E-004	...........
	11	3.1	6.33402E-003	6.48980E-003	5.48133E-004	...........
	12	3.35833	6.38178E-003	6.53182E-003	5.58199E-004	...........
	13	3.61667	6.43035E-003	6.59027E-003	5.52866E-004	...........
	14	3.875	6.48042E-003	6.63422E-003	5.44699E-004	...........
	15	4.13333	6.53117E-003	6.68171E-003	5.47733E-004	...........
	16	4.39167	6.58137E-003	6.72889E-003	5.44233E-004	...........
	17	4.65	6.63030E-003	6.77620E-003	5.43299E-004	...........
	18	4.90833	6.67807E-003	6.81924E-003	5.44833E-004	...........
EOC	QUANT	0.0066781	Open Circuit (V)
PSTATMODEL	IQUANT	4	Pstat Model
PSTATSECTION	LABEL	REF600-11020	Pstat Section
PSTATSERIALNO	LABEL	11020	Pstat Serial Number
CTRLMODE	IQUANT	1	Control Mode
IESTAB	IQUANT	0	I/E Stability
CASPEED	IQUANT	1	Control Amp Speed
CONVENTION	IQUANT	1	Current Convention
ICHRANGE	IQUANT	2	Ich Range
ICHRANGEMODE	TOGGLE	F	Ich Auto Range
ICHOFFSETENABLE	TOGGLE	T	Ich Offset Enable
ICHOFFSET	QUANT	0	Ich Offset (V)
ICHFILTER	IQUANT	3	Ich Filter
VCHRANGE	IQUANT	2	Vch Range
VCHRANGEMODE	TOGGLE	F	Vch Auto Range
VCHOFFSETENABLE	TOGGLE	T	Vch Offset Enable
VCHOFFSET	QUANT	0	Vch Offset (V)
VCHFILTER	IQUANT	3	Vch Filter
ACHRANGE	IQUANT	2	Ach Range
ACHOFFSETENABLE	TOGGLE	F	Ach Offset Enable
ACHOFFSET	QUANT	0	Ach Offset (V)
ACHFILTER	IQUANT	3	Ach Filter
IERANGELOWERLIMIT	IQUANT	1	I/E Range Lower Limit
IERANGEMODE	TOGGLE	F	I/E AutoRange
IERANGE	IQUANT	6	I/E Range
POSFEEDENABLE	TOGGLE	F	Positive Feedback IR Comp
POSFEEDRESISTANCE	QUANT	0	Positive Feedback Resistance (ohm)
ACHSELECT	IQUANT	0	Ach Select
CABLEID	IQUANT	14	Cable ID
DCCALDATE	LABEL	8/19/2019	DC Calibration Date
ACCALDATE	LABEL	8/19/2019	AC Calibration Date
THERMOSELECT	IQUANT	1	Thermo Select
FRAMEWORKVERSION	QUANT	6.33	Framework Version
INSTRUMENTVERSION	LABEL	3.50	Instrument Version
ZCURVE	TABLE
	Pt	Time	Freq	Zreal	Zimag	Zsig	Zmod	Zphz	Idc	Vdc	IERange
	#	s	Hz	ohm	ohm	V	ohm	°	A	V	#
	0	1	1000078	2397.716	-1418.295	1	2785.786	-30.60513	-1.082515E-007	0.0090466	8
	1	3	794390.6	2669.062	-1317.725	1	2976.624	-26.2757	1.871418E-006	0.0084827	8
	2	4	630984.4	2906.313	-1180.351	1	3136.859	-22.10372	-5.442879E-006	0.0097087	8
	3	5	501234.4	3068.024	-1039.733	1	3239.416	-18.72118	1.726289E-006	0.0082514	8
	4	7	398109.4	3214.588	-885.7933	1	3334.397	-15.40577	-4.617841E-006	0.0094248	8
	5	8	316265.6	3323.097	-741.6347	1	3404.849	-12.58086	1.142195E-006	0.0081226	8
	6	9	251203.1	3398.276	-632.8852	1	3456.707	-10.54974	-7.571743E-007	0.0084062	8
	7	11	199546.9	3448.677	-547.0721	1	3491.8	-9.013862	-1.370339E-008	0.0084254	8
	8	12	158578.1	3498.811	-458.7117	1	3528.752	-7.469165	3.952379E-006	0.0076877	8
	9	14	125953.1	3533.146	-366.1084	1	3552.063	-5.915937	-6.934104E-007	0.0101582	7
	10	15	100078.1	3554.979	-309.9841	1	3568.468	-4.983425	1.334643E-007	0.0081057	7
	11	16	79453.13	3575.224	-278.6476	1	3586.067	-4.456538	-5.937764E-008	0.0084816	7
	12	18	63140.62	3595.767	-257.0969	1	3604.946	-4.089682	-1.267286E-008	0.008264	7
	13	19	50203.12	3614.211	-240.9848	1	3622.236	-3.814665	-8.054144E-008	0.0084395	7
	14	21	39890.62	3632.146	-231.9871	1	3639.547	-3.654548	7.847552E-008	0.0081385	7
	15	22	31640.63	3647.961	-230.0752	1	3655.209	-3.608838	-7.844586E-008	0.0084358	7
	16	23	25171.88	3663.721	-234.6392	1	3671.227	-3.664445	3.737223E-009	0.0082418	7
	17	25	20015.62	3677.106	-244.6771	1	3685.238	-3.806888	-7.386125E-009	0.0083436	7
	18	26	15890.62	3694.607	-266.7479	1	3704.224	-4.129547	-1.222748E-008	0.0082702	7
	19	27	12609.37	3709	-296.2755	1	3720.814	-4.567098	7.692221E-008	0.0081436	7
	20	29	10078.13	3723.193	-336.0529	1	3738.328	-5.157503	-3.288736E-009	0.0083425	7
	21	30	8015.625	3742.084	-388.7345	1	3762.221	-5.930717	6.172857E-011	0.0083009	7
	22	31	6328.125	3758.316	-459.845	1	3786.344	-6.975695	-3.729807E-008	0.008318	7
	23	33	5015.625	3778.321	-548.7177	1	3817.958	-8.263177	6.982988E-009	0.0082446	7
	24	34	3984.375	3803.035	-662.5375	1	3860.315	-9.88248	-5.731169E-008	0.008471	7
	25	36	3170.956	3827.782	-797.8296	1	3910.045	-11.77367	4.258626E-008	0.008155	7
	26	37	2527.573	3857.643	-968.959	1	3977.473	-14.0998	8.007575E-008	0.0081323	7
	27	38	1976.103	3901.364	-1199.008	1	4081.453	-17.08379	-1.842832E-008	0.0082697	7
	28	40	1577.524	3945.889	-1458.727	1	4206.89	-20.28848	-3.583537E-008	0.0083292	7
	29	41	1265.625	4005.027	-1773.994	1	4380.331	-23.89055	-3.528372E-008	0.0083273	7
	30	42	998.264	4079.584	-2191.385	1	4630.893	-28.24287	6.423367E-008	0.0081941	7
	31	44	796.875	4171.45	-2680.21	1	4958.278	-32.72126	-5.245251E-009	0.0083349	7
	32	45	627.7902	4295.264	-3320.913	1	5429.342	-37.70965	-4.826085E-008	0.0083293	7
	33	47	505.5147	4443.931	-4025.935	1	5996.388	-42.17469	-3.421012E-008	0.0083231	7
	34	48	397.9953	4649.758	-4980.561	1	6813.68	-46.96734	4.946365E-009	0.0083126	7
	35	49	315.5048	4915.423	-6119.039	1	7848.823	-51.22509	4.635258E-009	0.0083129	7
	36	51	252.4038	5250.104	-7448.726	1	9113.019	-54.82257	4.691201E-009	0.0083127	7
	37	52	198.6229	5723.589	-9183.124	1	10820.78	-58.06585	9.595622E-010	0.0082538	6
	38	53	158.3615	6313.704	-11169.72	1	12830.65	-60.52262	4.305054E-010	0.0082515	6
	39	55	125.558	7108.698	-13611.29	1	15355.8	-62.42352	6.311093E-010	0.0082498	6
	40	56	100.4464	8099.755	-16412.32	1	18302.2	-63.73289	1.190227E-009	0.0082489	6
	41	58	79.00281	9531.25	-19981.41	1	22138.23	-64.49859	5.288177E-010	0.0082477	6
	42	59	63.3446	11239.75	-23926.76	1	26435.24	-64.83791	4.720264E-010	0.0082472	6
	43	60	49.86702	13408.34	-28601.84	1	31588.75	-64.88315	9.627001E-010	0.0082509	6
	44	62	39.72458	16204.93	-33984.38	1	37650.2	-64.50658	6.405874E-010	0.0082543	6
	45	63	31.6723	19429.46	-39952.57	1	44426.48	-64.06574	-2.894482E-011	0.008249	6
	46	64	24.93351	23597.46	-47193.48	1	52764.23	-63.43425	7.970559E-010	0.0082474	6
	47	66	19.86229	28159.69	-55056.79	1	61840.27	-62.91179	7.677544E-010	0.0082519	6
	48	67	15.83615	33104.94	-64045.99	1	72095.95	-62.66586	1.658354E-009	0.0082488	6
	49	69	12.40079	39596.45	-75460.33	1	85218.2	-62.31256	-2.673734E-010	0.0082494	6
	50	70	9.93114	45904.89	-87164.66	1	98513.6	-62.22666	9.682906E-010	0.0082456	6
	51	72	7.944915	52961.63	-101390.4	1	114389.4	-62.41952	-4.254321E-010	0.0082494	5
	52	73	6.317385	61103.6	-118822.7	1	133613.2	-62.78588	6.373738E-010	0.0082454	5
	53	75	5.008013	70795.02	-140155.6	1	157020.8	-63.20086	2.284799E-010	0.0082624	5
	54	78	3.945707	82580.41	-166464.8	1	185822.6	-63.61475	-1.8313E-010	0.00825	5
	55	80	3.158693	95289.5	-195808	1	217763.3	-64.05024	2.289902E-010	0.0082722	5
	56	84	2.504006	111457	-232473.6	1	257811.2	-64.3851	-2.969752E-010	0.0082463	5
	57	86	1.998082	129934.9	-274155.4	1	303387.9	-64.64157	-1.533272E-010	0.0082442	5
	58	90	1.584686	153710.1	-324621.2	1	359173.6	-64.66217	2.562199E-011	0.0083054	5
	59	93	1.266892	179524.4	-382534.5	1	422565.6	-64.85921	-1.56133E-010	0.0082439	5
	60	97	0.999041	212840.8	-454719	1	502066.3	-64.91707	2.316277E-010	0.0082772	5
