EXPLAIN
TAG	EISPOT
TITLE	LABEL	Potentiostatic IDE	Test &Identifier
DATE	LABEL	9/4/2019	Date
TIME	LABEL	11:36:11	Time
NOTES	NOTES	1	&Notes...
	
PSTAT	PSTAT	REF600-11020	Potentiostat
VDC	POTEN	0.00000E+000	T	DC &Voltage (V)
FREQINIT	QUANT	1.00000E+006	Initial Fre&q. (Hz)
FREQFINAL	QUANT	1.00000E+000	Final Fre&q. (Hz)
PTSPERDEC	QUANT	1.00000E+001	Points/&decade
VAC	QUANT	2.50000E+001	AC &Voltage (mV rms)
AREA	QUANT	1.00000E-002	&Area (cm^2)
CONDIT	TWOPARAM	T	5.00000E+000	0.00000E+000	Conditionin&g	Time(s)	E(V)
DELAY	TWOPARAM	T	5.00000E+000	0.00000E+000	Init. De&lay	Time(s)	Stab.(mV/s)
SPEED	SELECTOR	1	&Optimize for:
ZGUESS	QUANT	1.00000E+007	E&stimated Z (ohms)
OCVCURVE	TABLE	18
	Pt	T	Vf	Vm	Ach	Over
	#	s	V vs. Ref.	V	V	bits
	0	0.258333	6.97190E-002	6.97190E-002	5.74899E-004	...........
	1	0.516667	6.97461E-002	7.11388E-002	5.72999E-004	...........
	2	0.775	6.99132E-002	7.25116E-002	5.72766E-004	...........
	3	1.03333	7.03876E-002	7.38348E-002	5.72632E-004	...........
	4	1.29167	7.12401E-002	7.50928E-002	5.75132E-004	...........
	5	1.55	7.23784E-002	7.62981E-002	5.71966E-004	...........
	6	1.80833	7.36455E-002	7.74808E-002	5.73166E-004	...........
	7	2.06667	7.49249E-002	7.86074E-002	5.77632E-004	...........
	8	2.325	7.61636E-002	7.96651E-002	5.75699E-004	...........
	9	2.58333	7.73492E-002	8.07869E-002	5.69499E-004	...........
	10	2.84167	7.84844E-002	8.16380E-002	5.73999E-004	...........
	11	3.1	7.95674E-002	8.25015E-002	5.70899E-004	...........
	12	3.35833	8.05859E-002	8.33667E-002	5.65966E-004	...........
	13	3.61667	8.15356E-002	8.42038E-002	5.70666E-004	...........
	14	3.875	8.24304E-002	8.50154E-002	5.68299E-004	...........
	15	4.13333	8.32900E-002	8.58357E-002	5.71232E-004	...........
	16	4.39167	8.41269E-002	8.65938E-002	5.74132E-004	...........
	17	4.65	8.49432E-002	8.72393E-002	5.74466E-004	...........
EOC	QUANT	0.0857303	Open Circuit (V)
PSTATMODEL	IQUANT	4	Pstat Model
PSTATSECTION	LABEL	REF600-11020	Pstat Section
PSTATSERIALNO	LABEL	11020	Pstat Serial Number
CTRLMODE	IQUANT	1	Control Mode
IESTAB	IQUANT	0	I/E Stability
CASPEED	IQUANT	1	Control Amp Speed
CONVENTION	IQUANT	1	Current Convention
ICHRANGE	IQUANT	2	Ich Range
ICHRANGEMODE	TOGGLE	F	Ich Auto Range
ICHOFFSETENABLE	TOGGLE	T	Ich Offset Enable
ICHOFFSET	QUANT	0	Ich Offset (V)
ICHFILTER	IQUANT	3	Ich Filter
VCHRANGE	IQUANT	2	Vch Range
VCHRANGEMODE	TOGGLE	F	Vch Auto Range
VCHOFFSETENABLE	TOGGLE	T	Vch Offset Enable
VCHOFFSET	QUANT	0	Vch Offset (V)
VCHFILTER	IQUANT	3	Vch Filter
ACHRANGE	IQUANT	2	Ach Range
ACHOFFSETENABLE	TOGGLE	F	Ach Offset Enable
ACHOFFSET	QUANT	0	Ach Offset (V)
ACHFILTER	IQUANT	3	Ach Filter
IERANGELOWERLIMIT	IQUANT	1	I/E Range Lower Limit
IERANGEMODE	TOGGLE	F	I/E AutoRange
IERANGE	IQUANT	4	I/E Range
POSFEEDENABLE	TOGGLE	F	Positive Feedback IR Comp
POSFEEDRESISTANCE	QUANT	0	Positive Feedback Resistance (ohm)
ACHSELECT	IQUANT	0	Ach Select
CABLEID	IQUANT	14	Cable ID
DCCALDATE	LABEL	8/19/2019	DC Calibration Date
ACCALDATE	LABEL	8/19/2019	AC Calibration Date
THERMOSELECT	IQUANT	1	Thermo Select
FRAMEWORKVERSION	QUANT	6.33	Framework Version
INSTRUMENTVERSION	LABEL	3.50	Instrument Version
ZCURVE	TABLE
	Pt	Time	Freq	Zreal	Zimag	Zsig	Zmod	Zphz	Idc	Vdc	IERange
	#	s	Hz	ohm	ohm	V	ohm	°	A	V	#
	0	2	1000078	2462.817	-1812.131	1	3057.66	-36.34549	9.96407E-006	0.087995	8
	1	3	794390.6	2781.865	-1718.557	1	3269.894	-31.7066	1.017719E-005	0.0870378	8
	2	5	630984.4	3070.081	-1599.663	1	3461.838	-27.52173	1.015696E-005	0.0869921	8
	3	6	501234.4	3312.471	-1475.969	1	3626.424	-24.01677	1.139831E-005	0.0867267	8
	4	8	398109.4	3506.831	-1355.73	1	3759.769	-21.13635	1.063617E-005	0.0868883	8
	5	9	316265.6	3664.766	-1235.453	1	3867.409	-18.6298	9.885974E-006	0.0869877	8
	6	11	251203.1	3796.406	-1163.783	1	3970.78	-17.04285	1.083777E-005	0.0866787	8
	7	13	199546.9	3874.009	-1130.657	1	4035.632	-16.27026	1.116368E-005	0.086609	8
	8	14	158578.1	3999.529	-1086.563	1	4144.496	-15.19887	1.234403E-005	0.0864164	8
	9	16	125953.1	4103.072	-1077.076	1	4242.086	-14.70856	7.831684E-007	0.0867849	7
	10	17	100078.1	4188.032	-1091.368	1	4327.897	-14.60599	9.115485E-007	0.0871291	7
	11	19	79453.13	4282.236	-1159.256	1	4436.375	-15.14763	9.884058E-007	0.0870152	7
	12	20	63140.62	4379.858	-1251.295	1	4555.095	-15.94427	9.185088E-007	0.087079	7
	13	21	50203.12	4497.895	-1374.907	1	4703.342	-16.99723	9.210028E-007	0.0870778	7
	14	23	39890.62	4622.626	-1532.498	1	4870.033	-18.34144	9.669185E-007	0.0870154	7
	15	24	31640.63	4769.484	-1729.554	1	5073.395	-19.93212	9.312699E-007	0.0870606	7
	16	25	25171.88	4931.069	-1965.772	1	5308.456	-21.73471	9.120735E-007	0.0871182	7
	17	27	20015.62	5116.586	-2247.944	1	5588.623	-23.71802	9.633243E-007	0.0870425	7
	18	28	15890.62	5328.938	-2578.99	1	5920.201	-25.8251	9.169351E-007	0.087095	7
	19	29	12609.37	5587.124	-2977.641	1	6331.058	-28.05525	9.292737E-007	0.0870614	7
	20	31	10078.13	5867.915	-3426.044	1	6794.866	-30.27897	9.937106E-007	0.0870083	7
	21	32	8015.625	6201.767	-3958.529	1	7357.436	-32.54971	9.756475E-007	0.0869737	7
	22	33	6328.125	6605.925	-4608.508	1	8054.601	-34.90088	9.60239E-007	0.0870874	7
	23	35	5015.625	7064.391	-5329.795	1	8849.426	-37.03307	9.634314E-007	0.0870442	7
	24	36	3984.375	7581.561	-6187.759	1	9786.13	-39.21991	9.145703E-007	0.0870905	7
	25	37	3170.956	8188.97	-7167.609	1	10882.73	-41.19488	9.733347E-007	0.0869567	7
	26	39	2527.573	8872.316	-8313.172	1	12158.41	-43.13649	9.292258E-007	0.0870426	7
	27	40	1976.103	9757.04	-9733.7	1	13782.04	-44.93139	1.005283E-007	0.0868697	6
	28	41	1577.524	10687.48	-11265.46	1	15528.46	-46.50815	9.276886E-008	0.0869794	6
	29	43	1265.625	11736.74	-12998.88	1	17513.48	-47.92101	8.94922E-008	0.0869998	6
	30	44	998.264	13019.53	-15197.67	1	20011.92	-49.41402	9.405764E-008	0.0869562	6
	31	45	796.875	14496.93	-17609.95	1	22809.46	-50.53796	9.368352E-008	0.0869077	6
	32	47	627.7902	16279.31	-20592.04	1	26249.73	-51.6714	8.905825E-008	0.0870571	6
	33	48	505.5147	18143.12	-23730.14	1	29871.26	-52.59991	9.433347E-008	0.086902	6
	34	49	397.9953	20541.62	-27804.67	1	34569.61	-53.54363	9.369395E-008	0.0866525	6
	35	51	315.5048	23271.48	-32408.31	1	39898.13	-54.31895	9.341947E-008	0.0866521	6
	36	52	252.4038	26329.44	-37534.87	1	45848.73	-54.95164	9.336782E-008	0.0866494	6
	37	53	198.6229	30167.99	-43951.24	1	53308.71	-55.53442	9.363055E-008	0.0866473	6
	38	55	158.3615	34419.35	-50967.51	1	61501.04	-55.96808	9.367517E-008	0.086646	6
	39	56	125.558	39454.9	-59379.41	1	71292.38	-56.39778	9.362974E-008	0.0866474	6
	40	57	100.4464	45149.21	-68564.2	1	82094.46	-56.63528	9.346212E-008	0.0866456	6
	41	59	79.00281	52286.66	-80083.74	1	95641.5	-56.85949	9.390961E-008	0.0866461	6
	42	60	63.3446	60973.91	-93227.14	1	111396.2	-56.81387	9.379205E-008	0.0866443	6
	43	61	49.86702	67962.54	-108577.4	1	128093.6	-57.95605	9.363033E-008	0.0866374	6
	44	63	39.72458	79135.12	-125367.5	1	148254.4	-57.73885	9.45197E-009	0.0866505	5
	45	64	31.6723	91041.82	-145727.7	1	171828.9	-58.00536	9.559837E-009	0.086649	5
	46	65	24.93351	104523.3	-170649	1	200115.4	-58.51233	9.32627E-009	0.0866463	5
	47	67	19.86229	119880.5	-198667	1	232034.3	-58.89219	9.187313E-009	0.0866431	5
	48	68	15.83615	137999.5	-229519.3	1	267811.5	-58.98342	8.91488E-009	0.0866486	5
	49	69	12.40079	157812.7	-271932.3	1	314407.4	-59.87177	9.750016E-009	0.0866455	5
	50	71	9.93114	181222.7	-316948.9	1	365100.4	-60.24026	9.709598E-009	0.0866421	5
	51	72	7.944915	207465.3	-370688.9	1	424796.6	-60.76535	9.586417E-009	0.0866532	5
	52	74	6.317385	239034.8	-435487.4	1	496776.6	-61.23804	9.515981E-009	0.0866573	5
	53	76	5.008013	277042.8	-514087.2	1	583984.9	-61.67967	9.450281E-009	0.086654	5
	54	79	3.945707	322030.9	-609797.6	1	689606.4	-62.1617	9.384666E-009	0.0866442	5
	55	81	3.158693	372513.4	-717968.4	1	808854.1	-62.57774	9.382074E-008	0.086644	6
	56	85	2.504006	437120.9	-846626.9	1	952813	-62.6923	9.327601E-009	0.0869278	5
	57	88	1.998082	512438.3	-995617	1	1119752	-62.76537	9.326951E-009	0.0869699	5
	58	91	1.584686	601916.2	-1174860	1	1320076	-62.87257	9.384157E-009	0.0869471	5
	59	95	1.266892	715742	-1376641	1	1551589	-62.52922	8.657921E-010	0.0869638	4
	60	99	0.999041	852046.6	-1625711	1	1835462	-62.34065	9.528469E-010	0.0869037	4
