EXPLAIN
TAG	EISPOT
TITLE	LABEL	Potentiostatic EIS	Test &Identifier
DATE	LABEL	11/11/2019	Date
TIME	LABEL	12:10:13	Time
NOTES	NOTES	3	&Notes...
	
	
	
PSTAT	PSTAT	REF600-11020	Potentiostat
VDC	POTEN	0.00000E+000	T	DC &Voltage (V)
FREQINIT	QUANT	1.00000E+006	Initial Fre&q. (Hz)
FREQFINAL	QUANT	1.00000E+000	Final Fre&q. (Hz)
PTSPERDEC	QUANT	1.00000E+001	Points/&decade
VAC	QUANT	2.50000E+001	AC &Voltage (mV rms)
AREA	QUANT	1.00000E-002	&Area (cm^2)
CONDIT	TWOPARAM	T	5.00000E+000	0.00000E+000	Conditionin&g	Time(s)	E(V)
DELAY	TWOPARAM	T	5.00000E+000	0.00000E+000	Init. De&lay	Time(s)	Stab.(mV/s)
SPEED	SELECTOR	1	&Optimize for:
ZGUESS	QUANT	1.00000E+005	E&stimated Z (ohms)
OCVCURVE	TABLE	19
	Pt	T	Vf	Vm	Ach	Over
	#	s	V vs. Ref.	V	V	bits
	0	0.258333	5.06247E-003	5.06247E-003	5.33133E-004	...........
	1	0.516667	5.05495E-003	4.66868E-003	5.37033E-004	...........
	2	0.775	5.01364E-003	4.55101E-003	5.38199E-004	...........
	3	1.03333	4.91429E-003	4.50572E-003	5.33100E-004	...........
	4	1.29167	4.77519E-003	4.54517E-003	5.30833E-004	...........
	5	1.55	4.64847E-003	4.54904E-003	5.37799E-004	...........
	6	1.80833	4.56975E-003	4.50192E-003	5.35666E-004	...........
	7	2.06667	4.53370E-003	4.42340E-003	5.37633E-004	...........
	8	2.325	4.51043E-003	4.32142E-003	5.38566E-004	...........
	9	2.58333	4.47211E-003	4.18272E-003	5.32700E-004	...........
	10	2.84167	4.40704E-003	4.14487E-003	5.45533E-004	...........
	11	3.1	4.31677E-003	3.81483E-003	5.36199E-004	...........
	12	3.35833	4.19910E-003	3.59723E-003	5.36599E-004	...........
	13	3.61667	4.04591E-003	3.53653E-003	5.44033E-004	...........
	14	3.875	3.87083E-003	3.57849E-003	5.39766E-004	...........
	15	4.13333	3.71975E-003	3.74449E-003	5.41466E-004	...........
	16	4.39167	3.64103E-003	3.89554E-003	5.39333E-004	...........
	17	4.65	3.64372E-003	3.52429E-003	5.35366E-004	...........
	18	4.90833	3.66399E-003	2.79798E-003	5.35366E-004	...........
EOC	QUANT	0.003664	Open Circuit (V)
PSTATMODEL	IQUANT	4	Pstat Model
PSTATSECTION	LABEL	REF600-11020	Pstat Section
PSTATSERIALNO	LABEL	11020	Pstat Serial Number
CTRLMODE	IQUANT	1	Control Mode
IESTAB	IQUANT	0	I/E Stability
CASPEED	IQUANT	1	Control Amp Speed
CONVENTION	IQUANT	1	Current Convention
ICHRANGE	IQUANT	2	Ich Range
ICHRANGEMODE	TOGGLE	F	Ich Auto Range
ICHOFFSETENABLE	TOGGLE	T	Ich Offset Enable
ICHOFFSET	QUANT	0	Ich Offset (V)
ICHFILTER	IQUANT	3	Ich Filter
VCHRANGE	IQUANT	2	Vch Range
VCHRANGEMODE	TOGGLE	F	Vch Auto Range
VCHOFFSETENABLE	TOGGLE	T	Vch Offset Enable
VCHOFFSET	QUANT	0	Vch Offset (V)
VCHFILTER	IQUANT	3	Vch Filter
ACHRANGE	IQUANT	2	Ach Range
ACHOFFSETENABLE	TOGGLE	F	Ach Offset Enable
ACHOFFSET	QUANT	0	Ach Offset (V)
ACHFILTER	IQUANT	3	Ach Filter
IERANGELOWERLIMIT	IQUANT	1	I/E Range Lower Limit
IERANGEMODE	TOGGLE	F	I/E AutoRange
IERANGE	IQUANT	4	I/E Range
POSFEEDENABLE	TOGGLE	F	Positive Feedback IR Comp
POSFEEDRESISTANCE	QUANT	0	Positive Feedback Resistance (ohm)
ACHSELECT	IQUANT	0	Ach Select
CABLEID	IQUANT	14	Cable ID
DCCALDATE	LABEL	8/19/2019	DC Calibration Date
ACCALDATE	LABEL	8/19/2019	AC Calibration Date
THERMOSELECT	IQUANT	1	Thermo Select
FRAMEWORKVERSION	QUANT	6.33	Framework Version
INSTRUMENTVERSION	LABEL	3.50	Instrument Version
ZCURVE	TABLE
	Pt	Time	Freq	Zreal	Zimag	Zsig	Zmod	Zphz	Idc	Vdc	IERange
	#	s	Hz	ohm	ohm	V	ohm	°	A	V	#
	0	2	1000078	2252.152	-1937.612	1	2970.948	-40.70667	-4.1213E-006	0.0056285	8
	1	3	794390.6	2632.244	-1992.319	1	3301.219	-37.1217	6.806956E-007	0.0053306	8
	2	4	630984.4	3027.757	-2015.898	1	3637.466	-33.65591	2.135034E-006	0.0050036	8
	3	6	501234.4	3427.534	-1959.061	1	3947.899	-29.7508	7.174907E-006	0.0046102	8
	4	7	398109.4	3777.925	-1856.099	1	4209.254	-26.16495	-1.504877E-006	0.0058164	8
	5	8	316265.6	4125.233	-1722.007	1	4470.219	-22.65725	6.012489E-006	0.0042176	8
	6	10	251203.1	4380.168	-1538.235	1	4642.418	-19.35034	3.63929E-006	0.0052697	8
	7	11	199546.9	4620.409	-1374.125	1	4820.415	-16.56265	-9.015055E-008	0.0050132	8
	8	12	158578.1	4804.024	-1179.911	1	4946.801	-13.79921	6.616916E-006	0.004581	8
	9	14	125953.1	5024.5	-961.834	1	5115.733	-10.83696	2.976963E-006	0.0032979	7
	10	15	100078.1	5082.845	-807.1526	1	5146.534	-9.02319	1.053022E-006	0.0045236	7
	11	16	79453.13	5149.593	-698.7048	1	5196.777	-7.726796	4.028776E-007	0.0058223	7
	12	18	63140.62	5206.914	-605.9256	1	5242.051	-6.637623	4.050825E-007	0.0058176	7
	13	19	50203.12	5244.541	-524.2803	1	5270.681	-5.708713	-3.254342E-007	0.0043913	7
	14	20	39890.62	5294.488	-469.5819	1	5315.271	-5.068449	1.016514E-006	0.0034958	7
	15	22	31640.63	5325.52	-430.8003	1	5342.916	-4.62479	1.017727E-006	0.003493	7
	16	23	25171.88	5351.516	-404.7566	1	5366.8	-4.325274	1.015514E-006	0.0034944	7
	17	25	20015.62	5363.221	-397.0586	1	5377.899	-4.234088	4.047403E-007	0.0058087	7
	18	26	15890.62	5396.464	-395.7215	1	5410.954	-4.193981	1.128301E-006	0.0037267	7
	19	27	12609.37	5413.989	-416.4322	1	5429.981	-4.398406	1.015203E-006	0.0034951	7
	20	29	10078.13	5419.068	-443.4148	1	5437.179	-4.677801	-2.935517E-007	0.006654	7
	21	30	8015.625	5447.244	-502.082	1	5470.333	-5.266173	4.985531E-007	0.0035285	7
	22	31	6328.125	5452.617	-563.4463	1	5481.652	-5.899721	-9.209966E-007	0.0069892	7
	23	33	5015.625	5488.813	-662.1124	1	5528.604	-6.878323	7.917717E-008	0.0062446	7
	24	34	3984.375	5525.177	-792.597	1	5581.737	-8.163494	1.144602E-006	0.0040646	7
	25	35	3170.956	5532.029	-930.6393	1	5609.762	-9.54931	-1.269968E-006	0.0067561	7
	26	37	2527.573	5568.225	-1117.559	1	5679.267	-11.34865	-1.258636E-006	0.006375	7
	27	38	1976.103	5617.625	-1375.105	1	5783.479	-13.75463	-1.083364E-006	0.0057941	7
	28	39	1577.524	5704.032	-1686.64	1	5948.171	-16.47256	5.010487E-007	0.0035257	7
	29	41	1265.625	5741.982	-2031.334	1	6090.704	-19.48219	-6.362297E-007	0.0068953	7
	30	42	998.264	5825.842	-2495.181	1	6337.694	-23.18522	-7.642715E-007	0.0050913	7
	31	43	796.875	5928.545	-3047.939	1	6666.151	-27.20826	-7.58376E-007	0.0050874	7
	32	45	627.7902	6071.876	-3768.074	1	7146.052	-31.82284	-9.187562E-007	0.0069821	7
	33	46	505.5147	6238.784	-4572.51	1	7735.003	-36.23832	-6.355405E-007	0.0068899	7
	34	48	397.9953	6476.356	-5666.602	1	8605.438	-41.18487	7.395527E-009	0.005267	7
	35	49	315.5048	6774.885	-6958.873	1	9712.1	-45.76753	5.471443E-009	0.005268	7
	36	51	252.4038	7152.863	-8467.635	1	11084.42	-49.81123	2.006976E-009	0.0051939	6
	37	52	198.6229	7682.361	-10437.73	1	12960.13	-53.64624	1.131695E-009	0.0051972	6
	38	53	158.3615	8344.426	-12697.49	1	15193.94	-56.68823	1.443164E-009	0.0051998	6
	39	55	125.558	9225.517	-15479.55	1	18020.17	-59.20586	6.757307E-010	0.0052124	6
	40	56	100.4464	10349.46	-18692.39	1	21366.26	-61.02793	1.454983E-009	0.0052028	6
	41	57	79.00281	11937.81	-22711.81	1	25658.09	-62.27264	5.079726E-010	0.0052119	6
	42	59	63.3446	13687.64	-26976.16	1	30250.04	-63.09687	3.107449E-010	0.005208	6
	43	60	49.86702	16528.79	-32806.97	1	36735.52	-63.26015	1.492455E-009	0.0052032	6
	44	62	39.72458	19450.72	-38847.04	1	43444.49	-63.40286	1.006064E-009	0.0052086	6
	45	63	31.6723	23231.64	-45775.34	1	51333.14	-63.09156	5.142064E-010	0.0051999	6
	46	64	24.93351	27863.07	-54010.15	1	60773.74	-62.71144	3.763767E-010	0.0052069	6
	47	66	19.86229	33052.6	-63078.13	1	71213.23	-62.3457	8.409066E-010	0.0052055	6
	48	67	15.83615	38937.71	-73165.92	1	82881.83	-61.97882	1.012218E-009	0.0052126	6
	49	68	12.40079	45890.73	-86283.27	1	97728	-61.99322	1.18026E-009	0.0052054	6
	50	70	9.93114	53204.3	-100033.8	1	113302.5	-61.99313	1.258454E-009	0.0052074	5
	51	71	7.944915	61515.38	-116189.3	1	131469	-62.10143	-1.355178E-010	0.0052111	5
	52	73	6.317385	70920.23	-136489.9	1	153815.4	-62.54359	4.979082E-010	0.0051992	5
	53	75	5.008013	82190.97	-161104.5	1	180859.1	-62.9706	2.901956E-010	0.0052156	5
	54	78	3.945707	95724.6	-191227.4	1	213848.3	-63.40837	-1.241136E-010	0.0051997	5
	55	80	3.158693	110801.1	-224799.6	1	250622.7	-63.76184	3.253274E-010	0.0052233	5
	56	84	2.504006	129886.1	-266625.8	1	296580	-64.02709	-2.591216E-010	0.0052098	5
	57	86	1.998082	151985.5	-314284.6	1	349105.2	-64.19197	-1.061856E-011	0.0051716	5
	58	89	1.584686	178954.5	-370767.4	1	411695.5	-64.23526	1.614975E-011	0.0052313	5
	59	93	1.266892	209968.4	-436720.4	1	484573.5	-64.32247	-1.822141E-012	0.0051772	5
	60	97	0.999041	250578.8	-515176.6	1	572884.5	-64.06199	-3.727591E-010	0.0052502	5
