EXPLAIN
TAG	EISPOT
TITLE	LABEL	Potentiostatic EIS	Test &Identifier
DATE	LABEL	10/2/2019	Date
TIME	LABEL	10:30:42	Time
NOTES	NOTES	2	&Notes...
	
	
PSTAT	PSTAT	REF600-11020	Potentiostat
VDC	POTEN	0.00000E+000	T	DC &Voltage (V)
FREQINIT	QUANT	1.00000E+006	Initial Fre&q. (Hz)
FREQFINAL	QUANT	1.00000E+000	Final Fre&q. (Hz)
PTSPERDEC	QUANT	1.00000E+001	Points/&decade
VAC	QUANT	2.50000E+001	AC &Voltage (mV rms)
AREA	QUANT	1.00000E-002	&Area (cm^2)
CONDIT	TWOPARAM	T	5.00000E+000	0.00000E+000	Conditionin&g	Time(s)	E(V)
DELAY	TWOPARAM	T	5.00000E+000	0.00000E+000	Init. De&lay	Time(s)	Stab.(mV/s)
SPEED	SELECTOR	1	&Optimize for:
ZGUESS	QUANT	1.00000E+004	E&stimated Z (ohms)
OCVCURVE	TABLE	19
	Pt	T	Vf	Vm	Ach	Over
	#	s	V vs. Ref.	V	V	bits
	0	0.258333	2.75998E-003	2.75998E-003	5.68132E-004	...........
	1	0.516667	2.77579E-003	3.58754E-003	5.66999E-004	...........
	2	0.775	2.86020E-003	3.70883E-003	5.64999E-004	...........
	3	1.03333	3.06426E-003	4.21110E-003	5.65299E-004	...........
	4	1.29167	3.38243E-003	4.82176E-003	5.63899E-004	...........
	5	1.55	3.75961E-003	4.15014E-003	5.65132E-004	...........
	6	1.80833	4.06320E-003	2.47693E-003	5.64399E-004	...........
	7	2.06667	4.07767E-003	2.24523E-003	5.72899E-004	...........
	8	2.325	3.72297E-003	3.06835E-003	5.66366E-004	...........
	9	2.58333	3.23719E-003	3.35370E-003	5.65166E-004	...........
	10	2.84167	2.95269E-003	3.38521E-003	5.68432E-004	...........
	11	3.1	2.98293E-003	4.52060E-003	5.69099E-004	...........
	12	3.35833	3.23963E-003	3.74523E-003	5.69432E-004	...........
	13	3.61667	3.51355E-003	1.05505E-003	5.67932E-004	...........
	14	3.875	3.43770E-003	-1.00197E-003	5.70032E-004	...........
	15	4.13333	2.69600E-003	-1.73364E-003	5.72632E-004	...........
	16	4.39167	1.40529E-003	-1.03405E-003	5.70832E-004	...........
	17	4.65	1.03518E-004	-4.51525E-004	5.71366E-004	...........
	18	4.90833	-6.90966E-004	3.20285E-004	5.67299E-004	...........
EOC	QUANT	-0.000691	Open Circuit (V)
PSTATMODEL	IQUANT	4	Pstat Model
PSTATSECTION	LABEL	REF600-11020	Pstat Section
PSTATSERIALNO	LABEL	11020	Pstat Serial Number
CTRLMODE	IQUANT	1	Control Mode
IESTAB	IQUANT	0	I/E Stability
CASPEED	IQUANT	1	Control Amp Speed
CONVENTION	IQUANT	1	Current Convention
ICHRANGE	IQUANT	2	Ich Range
ICHRANGEMODE	TOGGLE	F	Ich Auto Range
ICHOFFSETENABLE	TOGGLE	T	Ich Offset Enable
ICHOFFSET	QUANT	0	Ich Offset (V)
ICHFILTER	IQUANT	3	Ich Filter
VCHRANGE	IQUANT	2	Vch Range
VCHRANGEMODE	TOGGLE	F	Vch Auto Range
VCHOFFSETENABLE	TOGGLE	T	Vch Offset Enable
VCHOFFSET	QUANT	0	Vch Offset (V)
VCHFILTER	IQUANT	3	Vch Filter
ACHRANGE	IQUANT	2	Ach Range
ACHOFFSETENABLE	TOGGLE	F	Ach Offset Enable
ACHOFFSET	QUANT	0	Ach Offset (V)
ACHFILTER	IQUANT	3	Ach Filter
IERANGELOWERLIMIT	IQUANT	1	I/E Range Lower Limit
IERANGEMODE	TOGGLE	F	I/E AutoRange
IERANGE	IQUANT	5	I/E Range
POSFEEDENABLE	TOGGLE	F	Positive Feedback IR Comp
POSFEEDRESISTANCE	QUANT	0	Positive Feedback Resistance (ohm)
ACHSELECT	IQUANT	0	Ach Select
CABLEID	IQUANT	14	Cable ID
DCCALDATE	LABEL	8/19/2019	DC Calibration Date
ACCALDATE	LABEL	8/19/2019	AC Calibration Date
THERMOSELECT	IQUANT	1	Thermo Select
FRAMEWORKVERSION	QUANT	6.33	Framework Version
INSTRUMENTVERSION	LABEL	3.50	Instrument Version
ZCURVE	TABLE
	Pt	Time	Freq	Zreal	Zimag	Zsig	Zmod	Zphz	Idc	Vdc	IERange
	#	s	Hz	ohm	ohm	V	ohm	°	A	V	#
	0	2	1000078	2447.847	-1724.76	1	2994.453	-35.16863	-2.275501E-006	0.0024137	8
	1	3	794390.6	2784.946	-1674.771	1	3249.736	-31.02126	2.775032E-007	0.0011578	8
	2	5	630984.4	3087.378	-1563.436	1	3460.67	-26.85748	-2.954987E-006	0.0017507	8
	3	6	501234.4	3362.688	-1437.225	1	3656.95	-23.14204	-2.863451E-006	0.0015956	8
	4	7	398109.4	3579.575	-1288.211	1	3804.319	-19.79269	-5.314043E-007	0.0009775	8
	5	9	316265.6	3767.308	-1131.072	1	3933.438	-16.71152	6.763833E-007	0.0006157	8
	6	10	251203.1	3907.938	-996.105	1	4032.891	-14.29978	-1.228069E-006	0.0011002	8
	7	11	199546.9	4013.51	-858.6953	1	4104.341	-12.07643	3.478702E-006	0.0001904	8
	8	13	158578.1	4097.152	-761.3365	1	4167.288	-10.52669	-3.355614E-006	0.0014019	8
	9	14	125953.1	4197.215	-623.361	1	4243.252	-8.447691	-2.816376E-007	0.0011289	7
	10	16	100078.1	4239.491	-559.4044	1	4276.239	-7.516801	5.839E-008	0.0006797	7
	11	17	79453.13	4288.291	-511.7119	1	4318.713	-6.804798	-1.743128E-008	0.000734	7
	12	18	63140.62	4332.632	-477.8373	1	4358.902	-6.293602	-9.242706E-009	0.0007945	7
	13	20	50203.12	4372.728	-456.1695	1	4396.458	-5.955639	-3.50915E-008	0.0007693	7
	14	21	39890.62	4413.088	-442.8943	1	4435.256	-5.730973	-6.070751E-008	0.0009715	7
	15	22	31640.63	4451.732	-441.8057	1	4473.602	-5.667677	-3.106595E-008	0.0007687	7
	16	24	25171.88	4492.582	-450.6479	1	4515.127	-5.72814	-5.985429E-008	0.0008766	7
	17	25	20015.62	4530.55	-468.4727	1	4554.707	-5.903577	5.757425E-008	0.0006676	7
	18	27	15890.62	4570.708	-498.1078	1	4597.77	-6.21945	5.83134E-008	0.0006664	7
	19	28	12609.37	4609.153	-537.8782	1	4640.431	-6.656188	1.179309E-007	0.0005931	7
	20	29	10078.13	4651.925	-592.8821	1	4689.554	-7.26312	-3.218329E-008	0.0007726	7
	21	31	8015.625	4694.177	-664.1668	1	4740.93	-8.053175	-4.559605E-008	0.0008695	7
	22	32	6328.125	4739.361	-759.1897	1	4799.782	-9.100791	-7.801862E-009	0.0008139	7
	23	33	5015.625	4786.988	-879.5532	1	4867.122	-10.41131	1.189935E-007	0.0005938	7
	24	35	3984.375	4839.083	-1028.296	1	4947.132	-11.9968	4.549448E-008	0.0007066	7
	25	36	3170.956	4896.669	-1215.314	1	5045.231	-13.9387	-6.726464E-008	0.0009688	7
	26	37	2527.573	4961.617	-1441.398	1	5166.747	-16.19909	4.62852E-008	0.0006174	7
	27	39	1976.103	5044.468	-1747.942	1	5338.723	-19.11155	-4.048443E-008	0.0007742	7
	28	40	1577.524	5130.835	-2091.562	1	5540.767	-22.17805	-3.248648E-008	0.0007604	7
	29	42	1265.625	5231.57	-2506.553	1	5801.045	-25.60004	1.19403E-007	0.0005884	7
	30	43	998.264	5358.697	-3047.405	1	6164.601	-29.6262	4.706986E-008	0.0006125	7
	31	44	796.875	5499.818	-3682.552	1	6618.851	-33.80536	-7.213517E-009	0.0007988	7
	32	46	627.7902	5677.738	-4512.464	1	7252.52	-38.47643	1.178984E-007	0.0005826	7
	33	47	505.5147	5872.698	-5443.986	1	8007.844	-42.83049	2.590178E-009	0.0007201	7
	34	48	397.9953	6150.848	-6679.536	1	9080.15	-47.35959	5.094293E-009	0.0007798	7
	35	50	315.5048	6484.035	-8171.703	1	10431.66	-51.56891	1.388987E-009	0.000717	6
	36	51	252.4038	6884.727	-9927.24	1	12080.96	-55.25796	5.16564E-010	0.000717	6
	37	52	198.6229	7435.647	-12236.9	1	14318.88	-58.71539	8.334348E-010	0.0007188	6
	38	54	158.3615	8109.485	-14910.22	1	16972.88	-61.45878	9.821638E-010	0.0007144	6
	39	55	125.558	9016.995	-18243.36	1	20350.1	-63.69857	8.651546E-010	0.0007164	6
	40	57	100.4464	10166.51	-22110.45	1	24335.77	-65.30676	1.18284E-009	0.0007152	6
	41	58	79.00281	11777.71	-27135.99	1	29581.69	-66.53793	8.51746E-010	0.0007172	6
	42	59	63.3446	13707.05	-32564.12	1	35331.36	-67.17256	7.445474E-010	0.0007166	6
	43	61	49.86702	16794.11	-39939.28	1	43326.53	-67.19368	1.232655E-009	0.0007095	6
	44	62	39.72458	20267.5	-47948.5	1	52056.03	-67.08655	1.289891E-009	0.0007192	6
	45	64	31.6723	24873.63	-57145	1	62323.74	-66.47784	3.889652E-010	0.0007182	6
	46	65	24.93351	31257.23	-68412.47	1	75214.89	-65.44463	6.549844E-010	0.0007184	6
	47	66	19.86229	38894.37	-80437.02	1	89347	-64.19446	5.002561E-011	0.0007135	6
	48	68	15.83615	48112.32	-94103.98	1	105689.9	-62.92081	1.987324E-009	0.0007217	5
	49	69	12.40079	60767.34	-109929.2	1	125606.9	-61.06679	1.215716E-009	0.0007243	5
	50	70	9.93114	73833.05	-125109.7	1	145271.3	-59.45317	1.076242E-010	0.00073	5
	51	72	7.944915	88850.25	-142103.2	1	167593.8	-57.98425	6.75604E-010	0.0007299	5
	52	74	6.317385	106162	-160658	1	192565.2	-56.54348	-3.336626E-010	0.0007257	5
	53	76	5.008013	125619	-181621.4	1	220831.3	-55.33022	-1.458786E-010	0.0007143	5
	54	78	3.945707	147365.3	-205228.9	1	252656.8	-54.31963	5.138746E-010	0.0007261	5
	55	81	3.158693	169212.3	-230556.7	1	285988.1	-53.72396	-8.594458E-011	0.0007033	5
	56	84	2.504006	193673.8	-260724.4	1	324787.3	-53.39394	4.535462E-010	0.0007243	5
	57	87	1.998082	219042	-294521.5	1	367045.4	-53.36102	4.502779E-010	0.0007055	5
	58	90	1.584686	248484.9	-336408.3	1	418228.8	-53.54891	9.614355E-011	0.0006619	5
	59	94	1.266892	277956.7	-383474.6	1	473616.6	-54.064	3.802034E-010	0.0006917	5
	60	98	0.999041	313611.3	-444193.9	1	543746.5	-54.77702	-9.444178E-011	0.0007247	5
