EXPLAIN
TAG	EISPOT
TITLE	LABEL	Potentiostatic EIS	Test &Identifier
DATE	LABEL	9/20/2019	Date
TIME	LABEL	10:24:20	Time
NOTES	NOTES	1	&Notes...
	
PSTAT	PSTAT	REF600-11020	Potentiostat
VDC	POTEN	0.00000E+000	T	DC &Voltage (V)
FREQINIT	QUANT	1.00000E+006	Initial Fre&q. (Hz)
FREQFINAL	QUANT	1.00000E+000	Final Fre&q. (Hz)
PTSPERDEC	QUANT	1.00000E+001	Points/&decade
VAC	QUANT	2.50000E+001	AC &Voltage (mV rms)
AREA	QUANT	1.00000E-002	&Area (cm^2)
CONDIT	TWOPARAM	T	5.00000E+000	0.00000E+000	Conditionin&g	Time(s)	E(V)
DELAY	TWOPARAM	T	5.00000E+000	0.00000E+000	Init. De&lay	Time(s)	Stab.(mV/s)
SPEED	SELECTOR	1	&Optimize for:
ZGUESS	QUANT	1.00000E+004	E&stimated Z (ohms)
OCVCURVE	TABLE	19
	Pt	T	Vf	Vm	Ach	Over
	#	s	V vs. Ref.	V	V	bits
	0	0.258333	1.91526E-002	1.91526E-002	5.64266E-004	...........
	1	0.516667	1.91635E-002	1.97243E-002	5.65566E-004	...........
	2	0.775	1.92300E-002	2.02395E-002	5.68299E-004	...........
	3	1.03333	1.94163E-002	2.07150E-002	5.68566E-004	...........
	4	1.29167	1.97441E-002	2.11453E-002	5.65832E-004	...........
	5	1.55	2.01703E-002	2.15503E-002	5.67032E-004	...........
	6	1.80833	2.06295E-002	2.19242E-002	5.62832E-004	...........
	7	2.06667	2.10762E-002	2.22728E-002	5.66332E-004	...........
	8	2.325	2.14921E-002	2.26020E-002	5.71399E-004	...........
	9	2.58333	2.18757E-002	2.29131E-002	5.69432E-004	...........
	10	2.84167	2.22312E-002	2.32077E-002	5.63199E-004	...........
	11	3.1	2.25638E-002	2.34834E-002	5.64099E-004	...........
	12	3.35833	2.28768E-002	2.37478E-002	5.66566E-004	...........
	13	3.61667	2.31723E-002	2.39921E-002	5.64099E-004	...........
	14	3.875	2.34516E-002	2.42333E-002	5.67599E-004	...........
	15	4.13333	2.37159E-002	2.44618E-002	5.66666E-004	...........
	16	4.39167	2.39673E-002	2.46821E-002	5.65399E-004	...........
	17	4.65	2.42073E-002	2.48877E-002	5.66499E-004	...........
	18	4.90833	2.44369E-002	2.50901E-002	5.65832E-004	...........
EOC	QUANT	0.0244369	Open Circuit (V)
PSTATMODEL	IQUANT	4	Pstat Model
PSTATSECTION	LABEL	REF600-11020	Pstat Section
PSTATSERIALNO	LABEL	11020	Pstat Serial Number
CTRLMODE	IQUANT	1	Control Mode
IESTAB	IQUANT	0	I/E Stability
CASPEED	IQUANT	1	Control Amp Speed
CONVENTION	IQUANT	1	Current Convention
ICHRANGE	IQUANT	2	Ich Range
ICHRANGEMODE	TOGGLE	F	Ich Auto Range
ICHOFFSETENABLE	TOGGLE	T	Ich Offset Enable
ICHOFFSET	QUANT	0	Ich Offset (V)
ICHFILTER	IQUANT	3	Ich Filter
VCHRANGE	IQUANT	2	Vch Range
VCHRANGEMODE	TOGGLE	F	Vch Auto Range
VCHOFFSETENABLE	TOGGLE	T	Vch Offset Enable
VCHOFFSET	QUANT	0	Vch Offset (V)
VCHFILTER	IQUANT	3	Vch Filter
ACHRANGE	IQUANT	2	Ach Range
ACHOFFSETENABLE	TOGGLE	F	Ach Offset Enable
ACHOFFSET	QUANT	0	Ach Offset (V)
ACHFILTER	IQUANT	3	Ach Filter
IERANGELOWERLIMIT	IQUANT	1	I/E Range Lower Limit
IERANGEMODE	TOGGLE	F	I/E AutoRange
IERANGE	IQUANT	6	I/E Range
POSFEEDENABLE	TOGGLE	F	Positive Feedback IR Comp
POSFEEDRESISTANCE	QUANT	0	Positive Feedback Resistance (ohm)
ACHSELECT	IQUANT	0	Ach Select
CABLEID	IQUANT	14	Cable ID
DCCALDATE	LABEL	8/19/2019	DC Calibration Date
ACCALDATE	LABEL	8/19/2019	AC Calibration Date
THERMOSELECT	IQUANT	1	Thermo Select
FRAMEWORKVERSION	QUANT	6.33	Framework Version
INSTRUMENTVERSION	LABEL	3.50	Instrument Version
ZCURVE	TABLE
	Pt	Time	Freq	Zreal	Zimag	Zsig	Zmod	Zphz	Idc	Vdc	IERange
	#	s	Hz	ohm	ohm	V	ohm	°	A	V	#
	0	1	1000078	2251.154	-1794.095	1	2878.624	-38.55368	1.769772E-006	0.0259159	8
	1	3	794390.6	2602.381	-1767.861	1	3146.064	-34.18923	-6.534431E-007	0.0266571	8
	2	4	630984.4	2949.74	-1678.082	1	3393.659	-29.63519	1.524625E-006	0.0263346	8
	3	5	501234.4	3240.707	-1556.181	1	3594.979	-25.65022	3.783635E-006	0.0255008	8
	4	7	398109.4	3513.879	-1413.718	1	3787.604	-21.91611	-2.720646E-006	0.0266662	8
	5	8	316265.6	3715.032	-1257.185	1	3921.987	-18.69606	-3.113826E-007	0.0264224	8
	6	9	251203.1	3885.194	-1107.484	1	4039.957	-15.91034	2.330493E-006	0.025643	8
	7	11	199546.9	3992.385	-996.284	1	4114.816	-14.01176	-2.27318E-006	0.0265813	8
	8	12	158578.1	4122.599	-863.6728	1	4212.096	-11.83218	-1.036143E-007	0.0260819	8
	9	13	125953.1	4221.869	-728.1601	1	4284.203	-9.78572	4.284848E-007	0.0252239	7
	10	15	100078.1	4278.932	-655.8708	1	4328.905	-8.714421	5.780242E-008	0.0259873	7
	11	16	79453.13	4339.327	-608.3698	1	4381.766	-7.9808	3.430701E-008	0.026047	7
	12	17	63140.62	4393.893	-575.0783	1	4431.366	-7.456561	-5.388002E-008	0.0261847	7
	13	19	50203.12	4445.93	-553.5848	1	4480.262	-7.097651	3.184731E-008	0.0260349	7
	14	20	39890.62	4499.641	-543.7709	1	4532.378	-6.890645	-4.266132E-008	0.0261039	7
	15	21	31640.63	4554.369	-543.2772	1	4586.657	-6.8025	-5.346903E-008	0.0261806	7
	16	23	25171.88	4610.162	-554.7568	1	4643.42	-6.861608	-2.797805E-008	0.026061	7
	17	24	20015.62	4665.034	-576.7374	1	4700.549	-7.047707	-2.457601E-008	0.0261406	7
	18	25	15890.62	4720.232	-608.7141	1	4759.319	-7.348223	-4.393021E-008	0.0261246	7
	19	27	12609.37	4780.532	-651.9573	1	4824.784	-7.765949	-8.614534E-008	0.026212	7
	20	28	10078.13	4841.61	-707.6978	1	4893.059	-8.316029	7.305605E-008	0.0259091	7
	21	29	8015.625	4903.316	-778.6036	1	4964.75	-9.022736	-2.778739E-008	0.0260577	7
	22	31	6328.125	4971.711	-872.1851	1	5047.635	-9.95012	-2.666692E-008	0.0260549	7
	23	32	5015.625	5041.607	-988.174	1	5137.538	-11.08961	3.224423E-008	0.0259455	7
	24	33	3984.375	5117.169	-1131.476	1	5240.769	-12.46826	-5.416598E-008	0.0261126	7
	25	35	3170.956	5197.875	-1305.974	1	5359.428	-14.10371	1.301654E-007	0.0258832	7
	26	36	2527.573	5286.123	-1520.641	1	5500.495	-16.04876	-8.056593E-009	0.0261022	7
	27	38	1976.103	5397.622	-1807.972	1	5692.371	-18.51864	8.146654E-008	0.026017	7
	28	39	1577.524	5512.924	-2133.648	1	5911.411	-21.15776	-1.585137E-008	0.0262143	7
	29	40	1265.625	5644.185	-2514.527	1	6178.97	-24.01333	5.606684E-008	0.0259667	7
	30	42	998.264	5811.423	-3024.326	1	6551.274	-27.49294	-6.263099E-009	0.0260955	7
	31	43	796.875	6000.396	-3609.234	1	7002.236	-31.02688	-5.186147E-008	0.026175	7
	32	44	627.7902	6249.075	-4361.768	1	7620.758	-34.91451	3.547938E-008	0.0260366	7
	33	46	505.5147	6522.326	-5197.164	1	8339.739	-38.54877	1.293887E-007	0.0258702	7
	34	47	397.9953	6897.901	-6300.097	1	9341.962	-42.40656	-2.019357E-009	0.026101	7
	35	48	315.5048	7367.967	-7608.401	1	10591.26	-45.91976	-7.195055E-009	0.0260368	6
	36	50	252.4038	7941.485	-9124.709	1	12096.59	-48.96605	-6.78437E-009	0.0260368	6
	37	51	198.6229	8745.805	-11076.08	1	14112.71	-51.70496	-6.99334E-009	0.0260344	6
	38	52	158.3615	9749.86	-13274.12	1	16470.04	-53.70265	-7.273789E-009	0.0260341	6
	39	54	125.558	11117.07	-15912.58	1	19411.33	-55.06054	-6.991047E-009	0.026036	6
	40	55	100.4464	12853.63	-18846.65	1	22812.54	-55.70557	-7.165542E-009	0.0260392	6
	41	56	79.00281	15296.52	-22363.36	1	27094.34	-55.6279	-6.796614E-009	0.0260343	6
	42	58	63.3446	17939.03	-26056.5	1	31634.63	-55.45389	-7.094262E-009	0.0260292	6
	43	59	49.86702	22111.06	-30057.2	1	37313.99	-53.66058	-8.030632E-009	0.0260318	6
	44	61	39.72458	26700.82	-34317.28	1	43481.14	-52.11503	-8.137087E-009	0.0260368	6
	45	62	31.6723	32158.41	-38349.85	1	50048.72	-50.01835	-6.673539E-009	0.0260338	6
	46	63	24.93351	38678.04	-42484.4	1	57453.59	-47.68509	-7.394925E-009	0.0260375	6
	47	65	19.86229	45766.36	-46087.18	1	64950.66	-45.20012	-9.669119E-009	0.0260385	6
	48	66	15.83615	53173.74	-49311.48	1	72519.44	-42.84177	-7.645602E-009	0.0260349	6
	49	67	12.40079	61875.03	-51695.37	1	80628.35	-39.87809	-6.826594E-009	0.0260308	6
	50	69	9.93114	69665.94	-54097.93	1	88203.91	-37.83054	-7.583669E-009	0.0260305	6
	51	70	7.944915	77791.1	-56276.61	1	96013.1	-35.8832	-1.117955E-008	0.0260314	6
	52	72	6.317385	86278.97	-58216.29	1	104082.6	-34.00931	-1.160697E-008	0.0260463	5
	53	74	5.008013	95176.8	-60192.49	1	112613.3	-32.31041	-8.291795E-009	0.0260485	5
	54	76	3.945707	104268.9	-62262.57	1	121443.9	-30.8429	-1.009678E-008	0.0260428	5
	55	79	3.158693	113086.1	-64159.98	1	130019.1	-29.56863	-8.473392E-009	0.0260391	5
	56	82	2.504006	122361.1	-66315.5	1	139176.1	-28.45616	-8.752031E-009	0.0260466	5
	57	85	1.998082	131338.8	-68753.78	1	148246.3	-27.63134	-5.791205E-009	0.0260139	5
	58	88	1.584686	141116.8	-71043.79	1	157991	-26.7225	-7.547234E-009	0.0259945	5
	59	91	1.266892	150620.1	-74162.24	1	167888.3	-26.21468	-5.014651E-009	0.0260259	5
	60	96	0.999041	161631.6	-77504.73	1	179253.3	-25.61841	-9.344917E-009	0.0260369	5
