EXPLAIN
TAG	EISPOT
TITLE	LABEL	Potentiostatic EIS	Test &Identifier
DATE	LABEL	6/20/2000	Date
TIME	LABEL	9:04:35	Time
NOTES	NOTES	2	&Notes...
	
	
PSTAT	PSTAT	REF600-11020	Potentiostat
VDC	POTEN	0.00000E+000	T	DC &Voltage (V)
FREQINIT	QUANT	1.00000E+006	Initial Fre&q. (Hz)
FREQFINAL	QUANT	1.00000E+000	Final Fre&q. (Hz)
PTSPERDEC	QUANT	1.00000E+001	Points/&decade
VAC	QUANT	2.50000E+001	AC &Voltage (mV rms)
AREA	QUANT	1.00000E-002	&Area (cm^2)
CONDIT	TWOPARAM	T	5.00000E+000	0.00000E+000	Conditionin&g	Time(s)	E(V)
DELAY	TWOPARAM	T	5.00000E+000	0.00000E+000	Init. De&lay	Time(s)	Stab.(mV/s)
SPEED	SELECTOR	0	&Optimize for:
ZGUESS	QUANT	1.00000E+005	E&stimated Z (ohms)
OCVCURVE	TABLE	19
	Pt	T	Vf	Vm	Ach	Over
	#	s	V vs. Ref.	V	V	bits
	0	0.258333	3.38833E-003	3.38833E-003	5.61332E-004	...........
	1	0.516667	3.38656E-003	3.29540E-003	5.57132E-004	...........
	2	0.775	3.37616E-003	3.23386E-003	5.66766E-004	...........
	3	1.03333	3.34618E-003	3.05630E-003	5.59466E-004	...........
	4	1.29167	3.28836E-003	3.01367E-003	5.57066E-004	...........
	5	1.55	3.20579E-003	2.94429E-003	5.63866E-004	...........
	6	1.80833	3.11269E-003	2.81854E-003	5.57233E-004	...........
	7	2.06667	3.02101E-003	2.77671E-003	5.59232E-004	...........
	8	2.325	2.93403E-003	2.70284E-003	5.53833E-004	...........
	9	2.58333	2.85259E-003	2.62212E-003	5.61099E-004	...........
	10	2.84167	2.77739E-003	2.59674E-003	5.55133E-004	...........
	11	3.1	2.70867E-003	2.53247E-003	5.56666E-004	...........
	12	3.35833	2.64688E-003	2.47731E-003	5.59466E-004	...........
	13	3.61667	2.59063E-003	2.43237E-003	5.61099E-004	...........
	14	3.875	2.53764E-003	2.39975E-003	5.59666E-004	...........
	15	4.13333	2.48789E-003	2.35948E-003	5.60299E-004	...........
	16	4.39167	2.44253E-003	2.32002E-003	5.65799E-004	...........
	17	4.65	2.40095E-003	2.27536E-003	5.63099E-004	...........
	18	4.90833	2.36111E-003	2.24333E-003	5.62366E-004	...........
EOC	QUANT	0.0023611	Open Circuit (V)
PSTATMODEL	IQUANT	4	Pstat Model
PSTATSECTION	LABEL	REF600-11020	Pstat Section
PSTATSERIALNO	LABEL	11020	Pstat Serial Number
CTRLMODE	IQUANT	1	Control Mode
IESTAB	IQUANT	0	I/E Stability
CASPEED	IQUANT	1	Control Amp Speed
CONVENTION	IQUANT	1	Current Convention
ICHRANGE	IQUANT	2	Ich Range
ICHRANGEMODE	TOGGLE	F	Ich Auto Range
ICHOFFSETENABLE	TOGGLE	T	Ich Offset Enable
ICHOFFSET	QUANT	0	Ich Offset (V)
ICHFILTER	IQUANT	3	Ich Filter
VCHRANGE	IQUANT	2	Vch Range
VCHRANGEMODE	TOGGLE	F	Vch Auto Range
VCHOFFSETENABLE	TOGGLE	T	Vch Offset Enable
VCHOFFSET	QUANT	0	Vch Offset (V)
VCHFILTER	IQUANT	3	Vch Filter
ACHRANGE	IQUANT	2	Ach Range
ACHOFFSETENABLE	TOGGLE	F	Ach Offset Enable
ACHOFFSET	QUANT	0	Ach Offset (V)
ACHFILTER	IQUANT	3	Ach Filter
IERANGELOWERLIMIT	IQUANT	1	I/E Range Lower Limit
IERANGEMODE	TOGGLE	F	I/E AutoRange
IERANGE	IQUANT	4	I/E Range
POSFEEDENABLE	TOGGLE	F	Positive Feedback IR Comp
POSFEEDRESISTANCE	QUANT	0	Positive Feedback Resistance (ohm)
ACHSELECT	IQUANT	0	Ach Select
CABLEID	IQUANT	14	Cable ID
DCCALDATE	LABEL	8/19/2019	DC Calibration Date
ACCALDATE	LABEL	8/19/2019	AC Calibration Date
THERMOSELECT	IQUANT	1	Thermo Select
FRAMEWORKVERSION	QUANT	6.33	Framework Version
INSTRUMENTVERSION	LABEL	3.50	Instrument Version
ZCURVE	TABLE
	Pt	Time	Freq	Zreal	Zimag	Zsig	Zmod	Zphz	Idc	Vdc	IERange
	#	s	Hz	ohm	ohm	V	ohm	°	A	V	#
	0	1	1000078	1789.366	-861.6026	1	1985.999	-25.7114	1.166045E-006	0.0039441	8
	1	1	794390.6	1933.455	-804.1091	1	2094.001	-22.58205	9.257026E-006	0.0030111	8
	2	2	630984.4	2060.319	-726.4702	1	2184.645	-19.42269	-6.602519E-006	0.0046816	8
	3	2	501234.4	2162.964	-646.1766	1	2257.423	-16.6333	-1.5968E-006	0.0040985	8
	4	2	398109.4	2245.433	-574.5471	1	2317.773	-14.35254	7.921471E-006	0.0029672	8
	5	2	316265.6	2310.345	-510.3213	1	2366.035	-12.45579	1.668286E-006	0.0033262	8
	6	3	251203.1	2366.84	-446.6263	1	2408.611	-10.68614	-2.087206E-007	0.0035016	8
	7	3	199546.9	2407.444	-400.1213	1	2440.468	-9.4364	8.309671E-007	0.0042132	8
	8	3	158578.1	2429.928	-362.7176	1	2456.851	-8.489905	-7.870281E-007	0.0035318	8
	9	4	125953.1	2496.241	-295.2377	1	2513.639	-6.745205	-3.013252E-006	0.0077403	7
	10	4	100078.1	2519.627	-274.0139	1	2534.483	-6.206626	9.670106E-007	0.0030696	7
	11	4	79453.13	2543.168	-266.8163	1	2557.127	-5.989271	-1.030688E-006	0.0053505	7
	12	5	63140.62	2568.53	-264.8613	1	2582.15	-5.887408	-1.166233E-006	0.0052022	7
	13	5	50203.12	2595.449	-270.4757	1	2609.504	-5.949407	9.68553E-007	0.0030589	7
	14	5	39890.62	2618.839	-278.6088	1	2633.617	-6.072649	-2.484238E-007	0.0050393	7
	15	6	31640.63	2647.135	-293.1689	1	2663.319	-6.319727	9.07193E-007	0.0021784	7
	16	6	25171.88	2671.17	-313.3326	1	2689.484	-6.690316	-1.013245E-006	0.0043169	7
	17	6	20015.62	2699.101	-339.5256	1	2720.372	-7.169697	4.046496E-007	0.0042255	7
	18	7	15890.62	2728.533	-377.4549	1	2754.517	-7.876094	9.723317E-007	0.0030582	7
	19	7	12609.37	2757.999	-424.8079	1	2790.523	-8.756316	8.015075E-008	0.0025144	7
	20	7	10078.13	2786.82	-481.6505	1	2828.136	-9.80565	-2.465078E-007	0.0050376	7
	21	8	8015.625	2821.595	-551.6773	1	2875.021	-11.06289	7.123244E-007	0.0021117	7
	22	8	6328.125	2855.931	-646.2133	1	2928.128	-12.74966	-1.169601E-006	0.0051937	7
	23	8	5015.625	2896.067	-760.9527	1	2994.37	-14.72191	-1.033409E-006	0.0053328	7
	24	9	3984.375	2938.485	-900.7993	1	3073.456	-17.04304	7.100257E-007	0.0021056	7
	25	9	3170.956	2991.466	-1072.182	1	3177.804	-19.71836	-8.339191E-007	0.0053708	7
	26	9	2527.573	3048.776	-1280.205	1	3306.654	-22.77791	-5.653075E-007	0.0052782	7
	27	9	1976.103	3119.564	-1557.844	1	3486.913	-26.53656	-1.033357E-006	0.0053347	7
	28	10	1577.524	3186.963	-1880.585	1	3700.45	-30.54429	8.225418E-008	0.0025057	7
	29	10	1265.625	3281.512	-2245.056	1	3976.002	-34.3781	4.040996E-007	0.0042166	7
	30	10	998.264	3385.105	-2741.301	1	4355.877	-39.00099	-3.155056E-007	0.0030022	7
	31	11	796.875	3503.752	-3315.274	1	4823.621	-43.41675	-2.47597E-007	0.0050324	7
	32	11	627.7902	3648.695	-4077.59	1	5471.72	-48.17729	4.048374E-007	0.0042181	7
	33	11	505.5147	3802.084	-4933.884	1	6228.889	-52.38191	1.041779E-006	0.0026657	7
	34	12	397.9953	4026.377	-6076.39	1	7289.323	-56.47049	2.246703E-009	0.0038013	7
	35	12	315.5048	4293.718	-7465.137	1	8611.869	-60.09381	-3.444862E-010	0.0038011	7
	36	12	252.4038	4621.958	-9104.325	1	10210.35	-63.08463	4.185452E-009	0.0037959	7
	37	13	198.6229	5082.184	-11268.42	1	12361.47	-65.72409	4.972287E-010	0.003741	6
	38	13	158.3615	5650.411	-13781.01	1	14894.41	-67.70567	1.068345E-009	0.003741	6
	39	13	125.558	6413.399	-16919.33	1	18094.07	-69.24041	8.943311E-010	0.0037344	6
	40	14	100.4464	7391.335	-20570.51	1	21858.12	-70.23576	-6.571151E-010	0.0037314	6
	41	14	79.00281	8770.863	-25399.05	1	26870.8	-70.94906	-4.616952E-010	0.0037309	6
	42	14	63.3446	10256.01	-30436.47	1	32117.97	-71.37801	1.195687E-011	0.0037288	6
	43	15	49.86702	12727.03	-37332.93	1	39442.68	-71.17543	4.65373E-010	0.0037231	6
	44	15	39.72458	15721.12	-45316.75	1	47966.26	-70.86751	9.165998E-010	0.0037243	6
	45	15	31.6723	19662.05	-54574.02	1	58007.93	-70.18681	5.648805E-010	0.003726	6
	46	16	24.93351	24950.66	-65776.09	1	70349.34	-69.2269	6.91727E-010	0.003725	6
	47	16	19.86229	31362.81	-78224.04	1	84277.08	-68.15239	2.200652E-009	0.0037271	6
	48	16	15.83615	39584.02	-92957.48	1	101034.6	-66.93428	-7.386717E-010	0.0037328	6
	49	17	12.40079	51808.2	-110115	1	121693.9	-64.8034	1.541978E-009	0.0037255	5
	50	17	9.93114	63539.43	-127697.7	1	142632.3	-63.54612	-7.192282E-010	0.0037399	5
	51	18	7.944915	78603.56	-147054.5	1	166744	-61.87461	4.207344E-010	0.0037287	5
	52	18	6.317385	96964.6	-168666.2	1	194551.8	-60.10581	3.808672E-010	0.003737	5
	53	19	5.008013	118677.4	-192286.7	1	225961.3	-58.31753	-3.459485E-011	0.0037363	5
	54	20	3.945707	143358.3	-219174.2	1	261894.9	-56.81195	5.283176E-010	0.0037434	5
	55	21	3.158693	169257.1	-245693.1	1	298350.6	-55.43718	-6.031178E-011	0.0037413	5
	56	23	2.504006	198235.7	-276766.7	1	340436.7	-54.38765	-1.108261E-010	0.0037334	5
	57	24	1.998082	228883.5	-310090	1	385413.3	-53.56824	2.922335E-010	0.0037757	5
	58	26	1.584686	261377.9	-350331.3	1	437093.2	-53.27383	2.211639E-010	0.0037587	5
	59	28	1.266892	295791.9	-394334	1	492942.4	-53.12625	9.929954E-011	0.0037136	5
	60	30	0.999041	336184.3	-450342.1	1	561985.6	-53.25834	3.229688E-011	0.0036934	5
