EXPLAIN
TAG	EISPOT
TITLE	LABEL	Potentiostatic IDE	Test &Identifier
DATE	LABEL	9/16/2019	Date
TIME	LABEL	9:16:52	Time
NOTES	NOTES	1	&Notes...
	
PSTAT	PSTAT	REF600-11020	Potentiostat
VDC	POTEN	0.00000E+000	T	DC &Voltage (V)
FREQINIT	QUANT	1.00000E+006	Initial Fre&q. (Hz)
FREQFINAL	QUANT	1.00000E+000	Final Fre&q. (Hz)
PTSPERDEC	QUANT	1.00000E+001	Points/&decade
VAC	QUANT	2.50000E+001	AC &Voltage (mV rms)
AREA	QUANT	1.00000E-002	&Area (cm^2)
CONDIT	TWOPARAM	T	5.00000E+000	0.00000E+000	Conditionin&g	Time(s)	E(V)
DELAY	TWOPARAM	T	5.00000E+000	0.00000E+000	Init. De&lay	Time(s)	Stab.(mV/s)
SPEED	SELECTOR	1	&Optimize for:
ZGUESS	QUANT	1.00000E+007	E&stimated Z (ohms)
OCVCURVE	TABLE	19
	Pt	T	Vf	Vm	Ach	Over
	#	s	V vs. Ref.	V	V	bits
	0	0.258333	-2.56995E-003	-2.56995E-003	5.67532E-004	...........
	1	0.516667	-2.58050E-003	-3.12213E-003	5.66899E-004	...........
	2	0.775	-2.64503E-003	-3.63286E-003	5.65399E-004	...........
	3	1.03333	-2.82639E-003	-4.10247E-003	5.68799E-004	...........
	4	1.29167	-3.14722E-003	-4.53282E-003	5.73632E-004	...........
	5	1.55	-3.56647E-003	-4.93536E-003	5.70666E-004	...........
	6	1.80833	-4.02045E-003	-5.31230E-003	5.65999E-004	...........
	7	2.06667	-4.46443E-003	-5.67233E-003	5.77399E-004	...........
	8	2.325	-4.88055E-003	-6.00490E-003	5.80099E-004	...........
	9	2.58333	-5.26734E-003	-6.33113E-003	5.68832E-004	...........
	10	2.84167	-5.63004E-003	-6.69145E-003	5.65499E-004	...........
	11	3.1	-5.97772E-003	-7.04117E-003	5.70132E-004	...........
	12	3.35833	-6.32360E-003	-7.54154E-003	5.65832E-004	...........
	13	3.61667	-6.67840E-003	-7.62719E-003	5.65866E-004	...........
	14	3.875	-7.03027E-003	-7.81707E-003	5.63199E-004	...........
	15	4.13333	-7.34522E-003	-8.04124E-003	5.73899E-004	...........
	16	4.39167	-7.60522E-003	-8.25372E-003	5.80465E-004	...........
	17	4.65	-7.82625E-003	-8.46967E-003	5.67566E-004	...........
	18	4.90833	-8.03376E-003	-8.68553E-003	5.70032E-004	...........
EOC	QUANT	-0.0080338	Open Circuit (V)
PSTATMODEL	IQUANT	4	Pstat Model
PSTATSECTION	LABEL	REF600-11020	Pstat Section
PSTATSERIALNO	LABEL	11020	Pstat Serial Number
CTRLMODE	IQUANT	1	Control Mode
IESTAB	IQUANT	0	I/E Stability
CASPEED	IQUANT	1	Control Amp Speed
CONVENTION	IQUANT	1	Current Convention
ICHRANGE	IQUANT	2	Ich Range
ICHRANGEMODE	TOGGLE	F	Ich Auto Range
ICHOFFSETENABLE	TOGGLE	T	Ich Offset Enable
ICHOFFSET	QUANT	0	Ich Offset (V)
ICHFILTER	IQUANT	3	Ich Filter
VCHRANGE	IQUANT	2	Vch Range
VCHRANGEMODE	TOGGLE	F	Vch Auto Range
VCHOFFSETENABLE	TOGGLE	T	Vch Offset Enable
VCHOFFSET	QUANT	0	Vch Offset (V)
VCHFILTER	IQUANT	3	Vch Filter
ACHRANGE	IQUANT	2	Ach Range
ACHOFFSETENABLE	TOGGLE	F	Ach Offset Enable
ACHOFFSET	QUANT	0	Ach Offset (V)
ACHFILTER	IQUANT	3	Ach Filter
IERANGELOWERLIMIT	IQUANT	1	I/E Range Lower Limit
IERANGEMODE	TOGGLE	F	I/E AutoRange
IERANGE	IQUANT	3	I/E Range
POSFEEDENABLE	TOGGLE	F	Positive Feedback IR Comp
POSFEEDRESISTANCE	QUANT	0	Positive Feedback Resistance (ohm)
ACHSELECT	IQUANT	0	Ach Select
CABLEID	IQUANT	14	Cable ID
DCCALDATE	LABEL	8/19/2019	DC Calibration Date
ACCALDATE	LABEL	8/19/2019	AC Calibration Date
THERMOSELECT	IQUANT	1	Thermo Select
FRAMEWORKVERSION	QUANT	6.33	Framework Version
INSTRUMENTVERSION	LABEL	3.50	Instrument Version
ZCURVE	TABLE
	Pt	Time	Freq	Zreal	Zimag	Zsig	Zmod	Zphz	Idc	Vdc	IERange
	#	s	Hz	ohm	ohm	V	ohm	°	A	V	#
	0	2	1000078	2459.568	-2040.431	1	3195.752	-39.67873	-3.163994E-006	-0.0044301	8
	1	4	794390.6	2875.581	-2047.779	1	3530.208	-35.45569	1.157684E-007	-0.0057545	8
	2	5	630984.4	3288.166	-1986.943	1	3841.872	-31.14335	6.359472E-008	-0.006392	8
	3	6	501234.4	3665.122	-1849.599	1	4105.378	-26.77773	-9.513376E-007	-0.0059243	8
	4	8	398109.4	3966.165	-1683.533	1	4308.683	-22.99995	-5.336231E-006	-0.0051517	8
	5	10	316265.6	4206.712	-1537.071	1	4478.729	-20.07156	-4.848585E-007	-0.0061615	8
	6	11	251203.1	4413.489	-1328.38	1	4609.065	-16.75083	-5.112145E-006	-0.0052583	8
	7	12	199546.9	4582.343	-1180.949	1	4732.072	-14.45165	2.143019E-007	-0.0065697	8
	8	14	158578.1	4697.121	-1034.847	1	4809.766	-12.42465	-7.557391E-007	-0.006182	8
	9	16	125953.1	4840.347	-864.0258	1	4916.859	-10.12098	9.693928E-007	-0.0078599	7
	10	17	100078.1	4909.793	-772.3126	1	4970.165	-8.939402	2.162245E-008	-0.0065495	7
	11	18	79453.13	4976.245	-713.5872	1	5027.148	-8.16051	-4.112514E-008	-0.0064423	7
	12	20	63140.62	5036.128	-674.6339	1	5081.114	-7.629853	-1.112888E-008	-0.0064171	7
	13	21	50203.12	5095.042	-649.4158	1	5136.263	-7.263772	4.218618E-008	-0.0064996	7
	14	22	39890.62	5147.474	-643.0796	1	5187.489	-7.121129	-2.063485E-008	-0.0064848	7
	15	24	31640.63	5205.663	-652.2789	1	5246.37	-7.142041	-5.987769E-008	-0.00635	7
	16	25	25171.88	5265.629	-676.4305	1	5308.899	-7.32021	-5.883224E-008	-0.0063454	7
	17	26	20015.62	5327.058	-717.1194	1	5375.109	-7.666968	-2.151778E-008	-0.006485	7
	18	28	15890.62	5398.046	-774.4359	1	5453.316	-8.164284	-2.091459E-008	-0.0062998	7
	19	29	12609.37	5469.407	-843.5646	1	5534.078	-8.767829	-2.330239E-008	-0.006493	7
	20	30	10078.13	5547.172	-935.833	1	5625.558	-9.57589	-4.589923E-008	-0.0064383	7
	21	32	8015.625	5634.155	-1048.83	1	5730.946	-10.54523	-5.25142E-008	-0.006311	7
	22	33	6328.125	5733.088	-1185.553	1	5854.386	-11.68359	8.724859E-008	-0.0065069	7
	23	34	5015.625	5840.104	-1349.665	1	5994.032	-13.01277	4.163457E-008	-0.0065154	7
	24	36	3984.375	5960.335	-1550.399	1	6158.68	-14.58062	4.242839E-008	-0.0065142	7
	25	37	3170.956	6088.549	-1782.08	1	6343.992	-16.31442	4.392674E-008	-0.0065096	7
	26	38	2527.573	6230.704	-2059.059	1	6562.119	-18.28716	-4.167697E-008	-0.0064416	7
	27	40	1976.103	6401.909	-2424.227	1	6845.533	-20.7403	8.767035E-008	-0.0065099	7
	28	41	1577.524	6576.038	-2821.18	1	7155.65	-23.21977	-9.81106E-009	-0.0064315	7
	29	42	1265.625	6763.005	-3270.63	1	7512.34	-25.80869	2.469429E-008	-0.0065716	7
	30	44	998.264	7004.069	-3895.68	1	8014.568	-29.08291	5.230041E-008	-0.006635	7
	31	45	796.875	7239.259	-4608.601	1	8581.729	-32.48133	-9.283952E-009	-0.0064372	7
	32	46	627.7902	7519.745	-5516.423	1	9326.172	-36.26347	1.530742E-007	-0.0067056	7
	33	48	505.5147	7819.739	-6526.835	1	10185.67	-39.85046	2.077848E-009	-0.0064981	6
	34	49	397.9953	8183.146	-7888.219	1	11366.08	-43.94868	8.767543E-010	-0.0065141	6
	35	50	315.5048	8594.908	-9521.14	1	12826.71	-47.92685	6.600199E-010	-0.0065201	6
	36	52	252.4038	9052.049	-11441.59	1	14589.37	-51.65061	8.285529E-010	-0.0065247	6
	37	53	198.6229	9638.42	-13979.67	1	16980.29	-55.4153	1.055725E-009	-0.0065243	6
	38	54	158.3615	10310.7	-16932.55	1	19824.77	-58.66161	1.519504E-009	-0.006528	6
	39	56	125.558	11134.49	-20648.17	1	23458.98	-61.66431	1.018461E-009	-0.0065283	6
	40	57	100.4464	12151.71	-25007.72	1	27803.79	-64.08403	1.442897E-009	-0.0065287	6
	41	58	79.00281	13402.63	-30755.52	1	33548.96	-66.45341	1.507563E-009	-0.0065301	6
	42	60	63.3446	15429.99	-37474.61	1	40526.92	-67.62082	7.958044E-010	-0.006524	6
	43	61	49.86702	16893.67	-45939.87	1	48947.6	-69.80979	1.357281E-009	-0.0065331	6
	44	62	39.72458	19983.98	-56038.08	1	59494.75	-70.37304	1.191245E-009	-0.006523	6
	45	64	31.6723	23382.1	-67953.03	1	71863.32	-71.01206	1.082918E-009	-0.0065269	6
	46	65	24.93351	28481.13	-83342.84	1	88074.98	-71.13293	9.080489E-010	-0.0065264	6
	47	67	19.86229	34516.66	-101025.3	1	106759.1	-71.13657	1.518437E-009	-0.006519	5
	48	68	15.83615	43644.69	-120471	1	128133.2	-70.08537	2.260884E-009	-0.0065218	5
	49	69	12.40079	52990.91	-146933	1	156196.5	-70.16832	-4.320833E-010	-0.0065209	5
	50	71	9.93114	67319.86	-176277	1	188694.4	-69.09824	1.672489E-010	-0.0065212	5
	51	72	7.944915	83543.52	-207922.7	1	224078.9	-68.1097	1.412444E-009	-0.0065288	5
	52	74	6.317385	106226.6	-248133.7	1	269915.6	-66.82411	6.667102E-010	-0.00653	5
	53	76	5.008013	135543.1	-292378.2	1	322268.4	-65.12812	2.075504E-010	-0.0065197	5
	54	78	3.945707	172557.7	-343704.7	1	384589.5	-63.34095	5.095757E-010	-0.006522	5
	55	81	3.158693	213190	-395642.3	1	449424.9	-61.6822	2.121539E-010	-0.0065427	5
	56	84	2.504006	264957.4	-455088.9	1	526600.8	-59.7916	7.693189E-010	-0.0065187	5
	57	87	1.998082	324480.7	-515978.5	1	609525.6	-57.83566	4.272606E-010	-0.0064791	5
	58	90	1.584686	391813.7	-583053.8	1	702473.9	-56.09879	5.494836E-010	-0.0065088	5
	59	94	1.266892	467407.9	-650200.6	1	800768.9	-54.28888	2.395502E-010	-0.006482	5
	60	98	0.999041	552241.6	-726769.9	1	912778.9	-52.77034	4.64021E-010	-0.0065616	5
