EXPLAIN
TAG	EISPOT
TITLE	LABEL	Potentiostatic EIS	Test &Identifier
DATE	LABEL	10/22/2019	Date
TIME	LABEL	7:42:29	Time
NOTES	NOTES	1	&Notes...
	
PSTAT	PSTAT	REF600-11020	Potentiostat
VDC	POTEN	0.00000E+000	T	DC &Voltage (V)
FREQINIT	QUANT	1.00000E+006	Initial Fre&q. (Hz)
FREQFINAL	QUANT	1.00000E+000	Final Fre&q. (Hz)
PTSPERDEC	QUANT	1.00000E+001	Points/&decade
VAC	QUANT	2.50000E+001	AC &Voltage (mV rms)
AREA	QUANT	1.00000E-002	&Area (cm^2)
CONDIT	TWOPARAM	T	5.00000E+000	0.00000E+000	Conditionin&g	Time(s)	E(V)
DELAY	TWOPARAM	T	5.00000E+000	0.00000E+000	Init. De&lay	Time(s)	Stab.(mV/s)
SPEED	SELECTOR	1	&Optimize for:
ZGUESS	QUANT	1.00000E+005	E&stimated Z (ohms)
OCVCURVE	TABLE	19
	Pt	T	Vf	Vm	Ach	Over
	#	s	V vs. Ref.	V	V	bits
	0	0.258333	3.00374E-002	3.00374E-002	5.40566E-004	...........
	1	0.516667	3.00878E-002	3.26755E-002	5.45233E-004	...........
	2	0.775	3.03914E-002	3.48698E-002	5.43666E-004	...........
	3	1.03333	3.12277E-002	3.68119E-002	5.44066E-004	...........
	4	1.29167	3.26700E-002	3.85302E-002	5.43999E-004	...........
	5	1.55	3.44952E-002	3.99536E-002	5.45999E-004	...........
	6	1.80833	3.64021E-002	4.17909E-002	5.46533E-004	...........
	7	2.06667	3.82119E-002	4.27982E-002	5.44599E-004	...........
	8	2.325	3.98482E-002	4.29631E-002	5.44466E-004	...........
	9	2.58333	4.12350E-002	4.42457E-002	5.50266E-004	...........
	10	2.84167	4.23429E-002	4.50582E-002	5.48766E-004	...........
	11	3.1	4.32661E-002	4.59469E-002	5.47933E-004	...........
	12	3.35833	4.41246E-002	4.64421E-002	5.50366E-004	...........
	13	3.61667	4.49452E-002	4.68596E-002	5.49366E-004	...........
	14	3.875	4.56876E-002	4.75574E-002	5.42266E-004	...........
	15	4.13333	4.63395E-002	4.83470E-002	5.47033E-004	...........
	16	4.39167	4.69515E-002	4.89397E-002	5.51366E-004	...........
	17	4.65	4.75880E-002	5.00973E-002	5.44599E-004	...........
	18	4.90833	4.83019E-002	5.14276E-002	5.42233E-004	...........
EOC	QUANT	0.0483019	Open Circuit (V)
PSTATMODEL	IQUANT	4	Pstat Model
PSTATSECTION	LABEL	REF600-11020	Pstat Section
PSTATSERIALNO	LABEL	11020	Pstat Serial Number
CTRLMODE	IQUANT	1	Control Mode
IESTAB	IQUANT	0	I/E Stability
CASPEED	IQUANT	1	Control Amp Speed
CONVENTION	IQUANT	1	Current Convention
ICHRANGE	IQUANT	2	Ich Range
ICHRANGEMODE	TOGGLE	F	Ich Auto Range
ICHOFFSETENABLE	TOGGLE	T	Ich Offset Enable
ICHOFFSET	QUANT	0	Ich Offset (V)
ICHFILTER	IQUANT	3	Ich Filter
VCHRANGE	IQUANT	2	Vch Range
VCHRANGEMODE	TOGGLE	F	Vch Auto Range
VCHOFFSETENABLE	TOGGLE	T	Vch Offset Enable
VCHOFFSET	QUANT	0	Vch Offset (V)
VCHFILTER	IQUANT	3	Vch Filter
ACHRANGE	IQUANT	2	Ach Range
ACHOFFSETENABLE	TOGGLE	F	Ach Offset Enable
ACHOFFSET	QUANT	0	Ach Offset (V)
ACHFILTER	IQUANT	3	Ach Filter
IERANGELOWERLIMIT	IQUANT	1	I/E Range Lower Limit
IERANGEMODE	TOGGLE	F	I/E AutoRange
IERANGE	IQUANT	5	I/E Range
POSFEEDENABLE	TOGGLE	F	Positive Feedback IR Comp
POSFEEDRESISTANCE	QUANT	0	Positive Feedback Resistance (ohm)
ACHSELECT	IQUANT	0	Ach Select
CABLEID	IQUANT	14	Cable ID
DCCALDATE	LABEL	8/19/2019	DC Calibration Date
ACCALDATE	LABEL	8/19/2019	AC Calibration Date
THERMOSELECT	IQUANT	1	Thermo Select
FRAMEWORKVERSION	QUANT	6.33	Framework Version
INSTRUMENTVERSION	LABEL	3.50	Instrument Version
ZCURVE	TABLE
	Pt	Time	Freq	Zreal	Zimag	Zsig	Zmod	Zphz	Idc	Vdc	IERange
	#	s	Hz	ohm	ohm	V	ohm	°	A	V	#
	0	2	1000078	1222.128	-1406.207	1	1863.066	-49.00624	6.90407E-006	0.0491081	8
	1	3	794390.6	1306.035	-1659.139	1	2111.509	-51.79103	-7.963219E-006	0.0511857	8
	2	4	630984.4	1424.685	-1988.449	1	2446.151	-54.37913	3.282611E-006	0.0498126	8
	3	6	501234.4	1567.331	-2389.757	1	2857.878	-56.74099	2.418202E-006	0.0492103	8
	4	7	398109.4	1773.089	-2873.567	1	3376.571	-58.324	-3.170717E-006	0.0504298	8
	5	8	316265.6	2057.677	-3443.728	1	4011.645	-59.14108	-1.420408E-006	0.0503426	8
	6	10	251203.1	2437.383	-4146.155	1	4809.515	-59.55018	-1.456586E-006	0.0500871	8
	7	11	199546.9	2964.325	-4914.833	1	5739.582	-58.9042	1.427099E-006	0.0496496	8
	8	12	158578.1	3663.808	-5765.545	1	6831.179	-57.56543	2.149732E-006	0.049489	8
	9	14	125953.1	4688.688	-6629.557	1	8120.026	-54.73052	4.674643E-007	0.049134	7
	10	15	100078.1	5817.585	-7543.651	1	9526.33	-52.36097	-4.827258E-009	0.0498043	7
	11	17	79453.13	7234.382	-8386.333	1	11075.51	-49.21765	7.518282E-008	0.0496017	7
	12	18	63140.62	8853.1	-9044.87	1	12656.5	-45.61388	3.493192E-008	0.0496272	7
	13	20	50203.12	10616.3	-9491.495	1	14240.59	-41.79827	9.152635E-009	0.0496824	7
	14	21	39890.62	12464.99	-9754.27	1	15827.88	-38.04438	1.071233E-007	0.0496058	7
	15	22	31640.63	14243.84	-9680.22	1	17221.89	-34.20031	-1.333012E-008	0.0497816	7
	16	24	25171.88	15954.08	-9476.116	1	18556.11	-30.7087	4.434744E-008	0.0498104	7
	17	25	20015.62	17518.39	-9026.336	1	19707.08	-27.25974	8.115475E-009	0.0496731	7
	18	26	15890.62	18907.72	-8777.773	1	20845.89	-24.90274	-5.756644E-008	0.0499811	7
	19	28	12609.37	20253.22	-8136.785	1	21826.59	-21.88792	-1.82129E-008	0.049861	6
	20	29	10078.13	21339.46	-7837.209	1	22733.11	-20.16646	-6.590945E-009	0.0498205	6
	21	30	8015.625	22331.1	-7604.463	1	23590.37	-18.80537	-6.564543E-009	0.0498076	6
	22	32	6328.125	23340.8	-7410.924	1	24489.08	-17.61513	-1.665519E-008	0.0499096	6
	23	33	5015.625	24286.33	-7303.71	1	25360.79	-16.73779	-9.983869E-009	0.0496196	6
	24	35	3984.375	25272.43	-7246.823	1	26290.91	-16.00015	-8.065498E-009	0.0495939	6
	25	36	3170.956	26131.44	-7299.113	1	27131.7	-15.60627	-8.258956E-009	0.0498235	6
	26	38	2527.573	27044.33	-7386.065	1	28034.79	-15.2755	-6.336206E-009	0.0498236	6
	27	39	1976.103	28026.66	-7566.378	1	29030.04	-15.10802	-1.195083E-008	0.0496917	6
	28	40	1577.524	29047.16	-7823.049	1	30082.18	-15.07338	-6.451844E-009	0.0497022	6
	29	42	1265.625	30017.72	-7986.407	1	31061.98	-14.89877	-1.72973E-008	0.0498523	6
	30	43	998.264	31100.28	-8271.971	1	32181.56	-14.89454	-3.916769E-009	0.049586	6
	31	45	796.875	32173.57	-8651.809	1	33316.55	-15.05137	-1.825085E-008	0.0498473	6
	32	46	627.7902	33361.95	-9061.087	1	34570.55	-15.19495	-2.036921E-008	0.0498109	6
	33	47	505.5147	34468.84	-9509.67	1	35756.61	-15.42374	-5.991479E-009	0.0498219	6
	34	49	397.9953	35725.23	-10088.96	1	37122.49	-15.76991	-1.092041E-008	0.049724	6
	35	50	315.5048	36965.68	-10735.89	1	38493.13	-16.19481	-9.529259E-009	0.0497208	6
	36	51	252.4038	38241.02	-11477.25	1	39926.22	-16.70605	-9.44038E-009	0.0497198	6
	37	53	198.6229	39659.29	-12432.78	1	41562.4	-17.40567	-3.612882E-009	0.0497167	6
	38	54	158.3615	41144.53	-13512.21	1	43306.49	-18.18061	-6.101368E-009	0.0497171	6
	39	56	125.558	42735.66	-14779.3	1	45219.07	-19.07695	-7.174964E-009	0.0497154	6
	40	57	100.4464	44324.56	-16231.77	1	47203.14	-20.11287	-1.238877E-008	0.0497148	6
	41	58	79.00281	46291.21	-17945.96	1	49648.09	-21.19008	-1.982536E-008	0.049718	6
	42	60	63.3446	48747.92	-20444.77	1	52861.59	-22.75307	-9.103582E-009	0.0497113	6
	43	61	49.86702	50277.76	-22514.43	1	55088.59	-24.12288	-5.674861E-009	0.0497105	6
	44	63	39.72458	53012.31	-25139.24	1	58671	-25.37102	8.869114E-010	0.0497188	6
	45	64	31.6723	55538.25	-28152.37	1	62265.98	-26.88047	-2.75362E-009	0.0497144	6
	46	65	24.93351	58673.95	-32124.32	1	66892.48	-28.70096	-4.296488E-009	0.0497123	6
	47	67	19.86229	61855.58	-36545.15	1	71844.7	-30.57519	-2.493076E-009	0.0497205	6
	48	68	15.83615	65249.58	-41849.09	1	77516.8	-32.67488	-3.969628E-009	0.0497154	6
	49	69	12.40079	69755.05	-48064	1	84710.77	-34.56839	-5.097022E-009	0.0497264	6
	50	71	9.93114	74733.9	-55330.23	1	92987.05	-36.51489	-3.786686E-009	0.0497239	6
	51	73	7.944915	80029.36	-63583.77	1	102213.5	-38.46733	-1.501049E-009	0.0497251	5
	52	74	6.317385	86183.29	-73444.76	1	113232.9	-40.43739	-1.355169E-009	0.0497288	5
	53	76	5.008013	93763.51	-85006.73	1	126561.2	-42.1957	1.967777E-009	0.04971	5
	54	79	3.945707	103112.8	-98587.2	1	142659.3	-43.71463	6.081984E-009	0.04972	5
	55	81	3.158693	113437.4	-113983.1	1	160811.1	-45.13748	2.687032E-009	0.0497058	5
	56	85	2.504006	125959.5	-132598.1	1	182888.1	-46.47079	1.434437E-009	0.0497233	5
	57	87	1.998082	140537.7	-153725.1	1	208284	-47.56599	1.262786E-009	0.0496831	5
	58	90	1.584686	158754	-178977	1	239239.6	-48.42672	-6.376701E-010	0.049686	5
	59	94	1.266892	179957.7	-205422.3	1	273099	-48.78042	3.846698E-010	0.0496665	5
	60	98	0.999041	206454.2	-237232.1	1	314487.5	-48.96817	-1.176771E-010	0.0497478	5
