EXPLAIN
TAG	EISPOT
TITLE	LABEL	Potentiostatic EIS	Test &Identifier
DATE	LABEL	9/24/2019	Date
TIME	LABEL	8:56:04	Time
NOTES	NOTES	1	&Notes...
	
PSTAT	PSTAT	REF600-11020	Potentiostat
VDC	POTEN	0.00000E+000	T	DC &Voltage (V)
FREQINIT	QUANT	1.00000E+006	Initial Fre&q. (Hz)
FREQFINAL	QUANT	1.00000E+000	Final Fre&q. (Hz)
PTSPERDEC	QUANT	1.00000E+001	Points/&decade
VAC	QUANT	2.50000E+001	AC &Voltage (mV rms)
AREA	QUANT	1.00000E-002	&Area (cm^2)
CONDIT	TWOPARAM	T	5.00000E+000	0.00000E+000	Conditionin&g	Time(s)	E(V)
DELAY	TWOPARAM	T	5.00000E+000	0.00000E+000	Init. De&lay	Time(s)	Stab.(mV/s)
SPEED	SELECTOR	1	&Optimize for:
ZGUESS	QUANT	1.00000E+004	E&stimated Z (ohms)
OCVCURVE	TABLE	19
	Pt	T	Vf	Vm	Ach	Over
	#	s	V vs. Ref.	V	V	bits
	0	0.258333	-5.42082E-003	-5.42082E-003	5.42733E-004	...........
	1	0.516667	-5.43290E-003	-6.05312E-003	5.44399E-004	...........
	2	0.775	-5.51461E-003	-7.04677E-003	5.41233E-004	...........
	3	1.03333	-5.76754E-003	-7.83078E-003	5.41199E-004	...........
	4	1.29167	-6.25297E-003	-8.50703E-003	5.43999E-004	...........
	5	1.55	-6.92022E-003	-9.02445E-003	5.43966E-004	...........
	6	1.80833	-7.65259E-003	-9.80477E-003	5.39833E-004	...........
	7	2.06667	-8.36709E-003	-1.03844E-002	5.38833E-004	...........
	8	2.325	-9.04523E-003	-1.09519E-002	5.42899E-004	...........
	9	2.58333	-9.69176E-003	-1.14878E-002	5.44633E-004	...........
	10	2.84167	-1.03053E-002	-1.20093E-002	5.37499E-004	...........
	11	3.1	-1.08843E-002	-1.25083E-002	5.40499E-004	...........
	12	3.35833	-1.14325E-002	-1.29945E-002	5.38533E-004	...........
	13	3.61667	-1.19558E-002	-1.34614E-002	5.39433E-004	...........
	14	3.875	-1.24589E-002	-1.39138E-002	5.36666E-004	...........
	15	4.13333	-1.29444E-002	-1.43513E-002	5.39499E-004	...........
	16	4.39167	-1.34138E-002	-1.47749E-002	5.39799E-004	...........
	17	4.65	-1.38678E-002	-1.51870E-002	5.41433E-004	...........
	18	4.90833	-1.43072E-002	-1.55879E-002	5.32000E-004	...........
EOC	QUANT	-0.0143072	Open Circuit (V)
PSTATMODEL	IQUANT	4	Pstat Model
PSTATSECTION	LABEL	REF600-11020	Pstat Section
PSTATSERIALNO	LABEL	11020	Pstat Serial Number
CTRLMODE	IQUANT	1	Control Mode
IESTAB	IQUANT	0	I/E Stability
CASPEED	IQUANT	1	Control Amp Speed
CONVENTION	IQUANT	1	Current Convention
ICHRANGE	IQUANT	2	Ich Range
ICHRANGEMODE	TOGGLE	F	Ich Auto Range
ICHOFFSETENABLE	TOGGLE	T	Ich Offset Enable
ICHOFFSET	QUANT	0	Ich Offset (V)
ICHFILTER	IQUANT	3	Ich Filter
VCHRANGE	IQUANT	2	Vch Range
VCHRANGEMODE	TOGGLE	F	Vch Auto Range
VCHOFFSETENABLE	TOGGLE	T	Vch Offset Enable
VCHOFFSET	QUANT	0	Vch Offset (V)
VCHFILTER	IQUANT	3	Vch Filter
ACHRANGE	IQUANT	2	Ach Range
ACHOFFSETENABLE	TOGGLE	F	Ach Offset Enable
ACHOFFSET	QUANT	0	Ach Offset (V)
ACHFILTER	IQUANT	3	Ach Filter
IERANGELOWERLIMIT	IQUANT	1	I/E Range Lower Limit
IERANGEMODE	TOGGLE	F	I/E AutoRange
IERANGE	IQUANT	6	I/E Range
POSFEEDENABLE	TOGGLE	F	Positive Feedback IR Comp
POSFEEDRESISTANCE	QUANT	0	Positive Feedback Resistance (ohm)
ACHSELECT	IQUANT	0	Ach Select
CABLEID	IQUANT	14	Cable ID
DCCALDATE	LABEL	8/19/2019	DC Calibration Date
ACCALDATE	LABEL	8/19/2019	AC Calibration Date
THERMOSELECT	IQUANT	1	Thermo Select
FRAMEWORKVERSION	QUANT	6.33	Framework Version
INSTRUMENTVERSION	LABEL	3.50	Instrument Version
ZCURVE	TABLE
	Pt	Time	Freq	Zreal	Zimag	Zsig	Zmod	Zphz	Idc	Vdc	IERange
	#	s	Hz	ohm	ohm	V	ohm	°	A	V	#
	0	1	1000078	2087.269	-2131.885	1	2983.559	-45.60585	-2.852081E-006	-0.0121107	8
	1	3	794390.6	2524.244	-2207.087	1	3353.065	-41.16502	4.707289E-006	-0.013056	8
	2	4	630984.4	2980.193	-2200.603	1	3704.619	-36.44251	-4.754532E-006	-0.0116619	8
	3	5	501234.4	3427.762	-2162.51	1	4052.901	-32.24705	1.347534E-006	-0.012699	8
	4	7	398109.4	3828.045	-2001.645	1	4319.781	-27.6046	1.397193E-006	-0.012963	8
	5	8	316265.6	4166.351	-1822.758	1	4547.629	-23.62914	1.278336E-006	-0.012969	8
	6	10	251203.1	4439.091	-1636.963	1	4731.298	-20.242	-1.440914E-006	-0.0124028	8
	7	11	199546.9	4648.405	-1441.672	1	4866.835	-17.23094	-2.77391E-006	-0.0120742	8
	8	12	158578.1	4838.444	-1249.899	1	4997.278	-14.48437	-2.229048E-006	-0.0123407	8
	9	14	125953.1	5004.641	-1030.983	1	5109.731	-11.6404	2.092392E-007	-0.0133378	7
	10	15	100078.1	5096.372	-902.6893	1	5175.699	-10.04428	-6.034809E-008	-0.0126246	7
	11	17	79453.13	5175.605	-797.7401	1	5236.724	-8.762308	-3.528372E-008	-0.0126852	7
	12	18	63140.62	5239.179	-717.1348	1	5288.031	-7.794167	-4.649238E-010	-0.0127	7
	13	19	50203.12	5294.998	-657.1442	1	5335.62	-7.074611	4.405521E-008	-0.0127898	7
	14	21	39890.62	5339.965	-615.9477	1	5375.372	-6.579804	1.57576E-008	-0.0128068	7
	15	22	31640.63	5388.129	-595.3453	1	5420.92	-6.305151	-3.867639E-008	-0.0127136	7
	16	24	25171.88	5435.386	-588.1847	1	5467.118	-6.176171	-3.581818E-008	-0.0127185	7
	17	25	20015.62	5478.714	-600.6628	1	5511.542	-6.256677	-2.901189E-009	-0.0127189	7
	18	26	15890.62	5522.506	-624.8893	1	5557.748	-6.455743	6.849604E-008	-0.0128475	7
	19	28	12609.37	5575.262	-664.3569	1	5614.706	-6.795412	4.246436E-008	-0.0128703	7
	20	29	10078.13	5620.965	-727.3547	1	5667.83	-7.373122	-4.297226E-008	-0.0126458	7
	21	30	8015.625	5672.104	-808.7818	1	5729.476	-8.115067	-3.884672E-008	-0.0127129	7
	22	32	6328.125	5729.839	-915.8361	1	5802.569	-9.08113	-7.042446E-008	-0.0126226	7
	23	33	5015.625	5791.659	-1053.046	1	5886.614	-10.30501	1.340628E-007	-0.0129326	7
	24	35	3984.375	5853.58	-1224.407	1	5980.265	-11.81435	-4.298789E-008	-0.0125862	7
	25	36	3170.956	5928.504	-1432.547	1	6099.127	-13.58439	-2.50428E-009	-0.0127063	7
	26	37	2527.573	6007.22	-1690.983	1	6240.682	-15.72147	4.009639E-008	-0.0128706	7
	27	39	1976.103	6106.195	-2041.556	1	6438.444	-18.48693	-1.569294E-008	-0.0127584	7
	28	40	1577.524	6218.301	-2432.433	1	6677.125	-21.36411	4.039064E-008	-0.0128661	7
	29	41	1265.625	6358.078	-2918.527	1	6995.924	-24.65639	1.546731E-010	-0.0127027	7
	30	43	998.264	6492.738	-3516.803	1	7384.006	-28.44227	4.602319E-008	-0.0127926	7
	31	44	796.875	6668.449	-4234.092	1	7899.098	-32.41327	-1.17085E-008	-0.0126835	7
	32	45	627.7902	6885.92	-5159.094	1	8604.193	-36.84142	8.243596E-008	-0.0129081	7
	33	47	505.5147	7118.474	-6186.956	1	9431.389	-40.99524	-1.739413E-008	-0.0127655	7
	34	48	397.9953	7425.081	-7570.659	1	10604.09	-45.55621	2.117005E-009	-0.0127778	6
	35	49	315.5048	7777.034	-9228.33	1	12068.32	-49.878	3.134544E-009	-0.0127754	6
	36	51	252.4038	8182.729	-11182.01	1	13856.21	-53.80423	2.930386E-009	-0.0127769	6
	37	52	198.6229	8715.421	-13767.95	1	16294.63	-57.66527	2.706908E-009	-0.0127787	6
	38	53	158.3615	9340.411	-16775.73	1	19200.74	-60.89176	1.756594E-009	-0.0127727	6
	39	55	125.558	10151.29	-20576.29	1	22944.11	-63.74063	2.70757E-009	-0.0127735	6
	40	56	100.4464	11148.87	-25002.46	1	27375.54	-65.96738	3.0911E-009	-0.0127822	6
	41	58	79.00281	12575.24	-30862.66	1	33326.27	-67.83117	2.881174E-009	-0.012778	6
	42	59	63.3446	14183.73	-38004.74	1	40565.24	-69.53395	2.185669E-009	-0.0127754	6
	43	60	49.86702	16464	-45991.34	1	48849.43	-70.30363	2.705111E-009	-0.0127839	6
	44	62	39.72458	19683.42	-56416.28	1	59751.43	-70.76632	2.743006E-009	-0.0127765	6
	45	63	31.6723	23543.37	-68219.45	1	72167.74	-70.95982	2.070699E-009	-0.0127807	6
	46	64	24.93351	29499.66	-83591.88	1	88644.41	-70.56201	1.878108E-009	-0.0127771	6
	47	66	19.86229	36847.34	-100590.3	1	107126.7	-69.88165	2.157173E-009	-0.0127644	5
	48	67	15.83615	46756.11	-119502.2	1	128323.5	-68.63172	1.030799E-009	-0.0127718	5
	49	68	12.40079	60811.1	-145110.6	1	157337.5	-67.26305	7.579344E-010	-0.0127692	5
	50	70	9.93114	75164.87	-170850.8	1	186654.1	-66.25317	1.248527E-009	-0.0127681	5
	51	71	7.944915	95588.6	-199671.1	1	221372.4	-64.41814	1.4945E-009	-0.0127659	5
	52	73	6.317385	119736.7	-232056.5	1	261126.5	-62.70714	1.54974E-009	-0.0127569	5
	53	75	5.008013	149369.4	-267158.3	1	306079.7	-60.79026	1.912741E-009	-0.0127605	5
	54	77	3.945707	185261.7	-306472.7	1	358116.5	-58.84718	1.3669E-009	-0.0127712	5
	55	80	3.158693	223489.6	-345053.5	1	411107.7	-57.06905	1.553477E-009	-0.0127798	5
	56	83	2.504006	266914.8	-388858.6	1	471650.8	-55.53406	1.710151E-009	-0.0127634	5
	57	86	1.998082	313472	-435842.2	1	536864.2	-54.27507	1.857812E-009	-0.0127543	5
	58	89	1.584686	365370	-487387.6	1	609132.1	-53.14294	1.608679E-009	-0.0128107	5
	59	93	1.266892	420912.4	-547038.1	1	690230.4	-52.42392	1.623651E-009	-0.0127402	5
	60	97	0.999041	485200.9	-617284.6	1	785149.8	-51.83178	1.411256E-009	-0.0128135	5
