EXPLAIN
TAG	EISPOT
TITLE	LABEL	Potentiostatic EIS	Test &Identifier
DATE	LABEL	10/4/2019	Date
TIME	LABEL	9:07:15	Time
NOTES	NOTES	2	&Notes...
	
	
PSTAT	PSTAT	REF600-11020	Potentiostat
VDC	POTEN	0.00000E+000	T	DC &Voltage (V)
FREQINIT	QUANT	1.00000E+006	Initial Fre&q. (Hz)
FREQFINAL	QUANT	1.00000E+000	Final Fre&q. (Hz)
PTSPERDEC	QUANT	1.00000E+001	Points/&decade
VAC	QUANT	2.50000E+001	AC &Voltage (mV rms)
AREA	QUANT	1.00000E-002	&Area (cm^2)
CONDIT	TWOPARAM	T	5.00000E+000	0.00000E+000	Conditionin&g	Time(s)	E(V)
DELAY	TWOPARAM	T	5.00000E+000	0.00000E+000	Init. De&lay	Time(s)	Stab.(mV/s)
SPEED	SELECTOR	1	&Optimize for:
ZGUESS	QUANT	1.00000E+004	E&stimated Z (ohms)
OCVCURVE	TABLE	19
	Pt	T	Vf	Vm	Ach	Over
	#	s	V vs. Ref.	V	V	bits
	0	0.258333	5.46472E-003	5.46472E-003	5.49199E-004	...........
	1	0.516667	5.46285E-003	5.36653E-003	5.49433E-004	...........
	2	0.775	5.45145E-003	5.28008E-003	5.51832E-004	...........
	3	1.03333	5.41985E-003	5.20756E-003	5.52399E-004	...........
	4	1.29167	5.36521E-003	5.14980E-003	5.47833E-004	...........
	5	1.55	5.29659E-003	5.10121E-003	5.49166E-004	...........
	6	1.80833	5.22677E-003	5.05847E-003	5.48766E-004	...........
	7	2.06667	5.16403E-003	5.02166E-003	5.54333E-004	...........
	8	2.325	5.11077E-003	4.99273E-003	5.52366E-004	...........
	9	2.58333	5.06625E-003	4.96510E-003	5.59432E-004	...........
	10	2.84167	5.02891E-003	4.94423E-003	5.62799E-004	...........
	11	3.1	4.99731E-003	4.92126E-003	5.58499E-004	...........
	12	3.35833	4.97020E-003	4.90652E-003	5.63932E-004	...........
	13	3.61667	4.94660E-003	4.88532E-003	5.53533E-004	...........
	14	3.875	4.92576E-003	4.87665E-003	5.52399E-004	...........
	15	4.13333	4.90729E-003	4.86219E-003	5.64299E-004	...........
	16	4.39167	4.89115E-003	4.85493E-003	5.57532E-004	...........
	17	4.65	4.87732E-003	4.84438E-003	5.59099E-004	...........
	18	4.90833	4.86558E-003	4.84089E-003	5.63532E-004	...........
EOC	QUANT	0.0048656	Open Circuit (V)
PSTATMODEL	IQUANT	4	Pstat Model
PSTATSECTION	LABEL	REF600-11020	Pstat Section
PSTATSERIALNO	LABEL	11020	Pstat Serial Number
CTRLMODE	IQUANT	1	Control Mode
IESTAB	IQUANT	0	I/E Stability
CASPEED	IQUANT	1	Control Amp Speed
CONVENTION	IQUANT	1	Current Convention
ICHRANGE	IQUANT	2	Ich Range
ICHRANGEMODE	TOGGLE	F	Ich Auto Range
ICHOFFSETENABLE	TOGGLE	T	Ich Offset Enable
ICHOFFSET	QUANT	0	Ich Offset (V)
ICHFILTER	IQUANT	3	Ich Filter
VCHRANGE	IQUANT	2	Vch Range
VCHRANGEMODE	TOGGLE	F	Vch Auto Range
VCHOFFSETENABLE	TOGGLE	T	Vch Offset Enable
VCHOFFSET	QUANT	0	Vch Offset (V)
VCHFILTER	IQUANT	3	Vch Filter
ACHRANGE	IQUANT	2	Ach Range
ACHOFFSETENABLE	TOGGLE	F	Ach Offset Enable
ACHOFFSET	QUANT	0	Ach Offset (V)
ACHFILTER	IQUANT	3	Ach Filter
IERANGELOWERLIMIT	IQUANT	1	I/E Range Lower Limit
IERANGEMODE	TOGGLE	F	I/E AutoRange
IERANGE	IQUANT	5	I/E Range
POSFEEDENABLE	TOGGLE	F	Positive Feedback IR Comp
POSFEEDRESISTANCE	QUANT	0	Positive Feedback Resistance (ohm)
ACHSELECT	IQUANT	0	Ach Select
CABLEID	IQUANT	14	Cable ID
DCCALDATE	LABEL	8/19/2019	DC Calibration Date
ACCALDATE	LABEL	8/19/2019	AC Calibration Date
THERMOSELECT	IQUANT	1	Thermo Select
FRAMEWORKVERSION	QUANT	6.33	Framework Version
INSTRUMENTVERSION	LABEL	3.50	Instrument Version
ZCURVE	TABLE
	Pt	Time	Freq	Zreal	Zimag	Zsig	Zmod	Zphz	Idc	Vdc	IERange
	#	s	Hz	ohm	ohm	V	ohm	°	A	V	#
	0	1	1000078	2530.901	-1685.321	1	3040.685	-33.65955	2.060787E-006	0.0066148	8
	1	3	794390.6	2871.774	-1591.511	1	3283.29	-28.99481	3.935078E-006	0.0056686	8
	2	4	630984.4	3152.57	-1447.877	1	3469.156	-24.66784	-2.918474E-006	0.0069165	8
	3	5	501234.4	3369.734	-1282.833	1	3605.658	-20.84145	4.601849E-006	0.0057139	8
	4	7	398109.4	3564.439	-1115.666	1	3734.962	-17.38007	3.540045E-006	0.0056682	8
	5	8	316265.6	3703.612	-967.734	1	3827.956	-14.64368	3.692257E-006	0.0056823	8
	6	10	251203.1	3800.474	-821.2792	1	3888.2	-12.19406	-1.047256E-006	0.0067165	8
	7	11	199546.9	3873.75	-702.2292	1	3936.885	-10.27494	-4.580727E-007	0.0064222	8
	8	12	158578.1	3950.667	-590.087	1	3994.493	-8.495118	-3.451715E-006	0.0069496	8
	9	14	125953.1	4000.097	-481.0519	1	4028.918	-6.857462	1.427752E-006	0.003281	7
	10	15	100078.1	4026.118	-429.9786	1	4049.013	-6.09593	9.69952E-008	0.0062354	7
	11	17	79453.13	4058.835	-397.6052	1	4078.263	-5.594868	9.889861E-008	0.0062273	7
	12	18	63140.62	4089.909	-375.2625	1	4107.089	-5.242397	1.286889E-009	0.0062678	7
	13	19	50203.12	4119.499	-361.6388	1	4135.342	-5.016968	-6.186859E-008	0.006409	7
	14	21	39890.62	4148.496	-358.0647	1	4163.919	-4.933084	4.675717E-008	0.00625	7
	15	22	31640.63	4178.688	-363.4885	1	4194.467	-4.971433	-4.497097E-008	0.0063149	7
	16	23	25171.88	4208.961	-377.4106	1	4225.849	-5.123914	1.213751E-007	0.0061183	7
	17	25	20015.62	4238.822	-400.8182	1	4257.73	-5.401762	-3.709489E-008	0.0063137	7
	18	26	15890.62	4270.004	-433.5632	1	4291.959	-5.79777	9.910022E-008	0.0062249	7
	19	27	12609.37	4304.768	-479.9468	1	4331.44	-6.361742	-3.708397E-008	0.0063112	7
	20	29	10078.13	4337.058	-538.9328	1	4370.415	-7.083395	-8.5285E-009	0.0063083	7
	21	30	8015.625	4370.792	-611.5467	1	4413.367	-7.964929	-6.86992E-008	0.0065157	7
	22	31	6328.125	4412.293	-713.7361	1	4469.647	-9.18862	-3.785441E-008	0.0063153	7
	23	33	5015.625	4454.393	-838.7076	1	4532.665	-10.66325	-6.933838E-008	0.0065112	7
	24	34	3984.375	4501.941	-991.762	1	4609.888	-12.42362	-4.969977E-008	0.0064077	7
	25	35	3170.956	4553.016	-1179.275	1	4703.259	-14.52105	1.215377E-007	0.0061109	7
	26	37	2527.573	4611.536	-1408.41	1	4821.813	-16.98321	-6.900708E-008	0.006508	7
	27	38	1976.103	4685.567	-1717.051	1	4990.271	-20.12563	1.292284E-008	0.0062139	7
	28	39	1577.524	4764.396	-2067.354	1	5193.594	-23.45686	3.351238E-009	0.0062576	7
	29	41	1265.625	4851.302	-2486.228	1	5451.28	-27.13454	-7.250443E-008	0.0063825	7
	30	42	998.264	4964.037	-3041.718	1	5821.83	-31.49792	4.527794E-008	0.0061496	7
	31	43	796.875	5087.831	-3692.284	1	6286.413	-35.96873	-6.776631E-008	0.0065088	7
	32	45	627.7902	5247.56	-4538.68	1	6938.047	-40.85693	1.307184E-008	0.0062129	7
	33	46	505.5147	5447.043	-5497.111	1	7738.767	-45.26212	9.973812E-008	0.0062089	7
	34	47	397.9953	5658.688	-6779.944	1	8831.104	-50.15089	4.491266E-009	0.0063243	7
	35	49	315.5048	5949.882	-8332.943	1	10239.09	-54.47243	1.063172E-009	0.0062603	6
	36	50	252.4038	6299.127	-10166.49	1	11959.79	-58.21776	5.206654E-010	0.0062595	6
	37	52	198.6229	6780.17	-12594.01	1	14303.14	-61.70355	1.004746E-009	0.0062591	6
	38	53	158.3615	7373.187	-15418.12	1	17090.41	-64.44214	4.093286E-010	0.0062576	6
	39	54	125.558	8167.525	-18966.32	1	20650.18	-66.70169	9.00223E-010	0.006259	6
	40	56	100.4464	9185.707	-23131.27	1	24888.41	-68.34138	1.212304E-009	0.0062556	6
	41	57	79.00281	10603.25	-28555.84	1	30460.88	-69.62922	3.370997E-010	0.0062552	6
	42	58	63.3446	12220.02	-34760.61	1	36846.01	-70.63097	3.973173E-010	0.0062535	6
	43	60	49.86702	15011.25	-42420.19	1	44997.89	-70.51263	9.513718E-010	0.0062512	6
	44	61	39.72458	18349.16	-51609.05	1	54773.95	-70.42758	4.020835E-010	0.0062568	6
	45	62	31.6723	22546.41	-62176.78	1	66138.44	-70.06845	1.195767E-009	0.0062578	6
	46	64	24.93351	28723.97	-75335.99	1	80626.16	-69.12924	8.483844E-010	0.0062551	6
	47	65	19.86229	36302.17	-89761.69	1	96824.6	-67.98019	2.411814E-010	0.0062599	6
	48	67	15.83615	45566.18	-106326.4	1	115678.8	-66.80244	1.23659E-009	0.0062591	5
	49	68	12.40079	58377.59	-126055	1	138916.5	-65.15057	1.087351E-009	0.0062608	5
	50	69	9.93114	72305.3	-145626.5	1	162588.9	-63.59505	3.942496E-010	0.0062571	5
	51	71	7.944915	88414.54	-167847.8	1	189710.4	-62.22179	1.375164E-011	0.0062537	5
	52	73	6.317385	107516.7	-192622.3	1	220597.3	-60.83089	6.425294E-010	0.0062495	5
	53	75	5.008013	129724.9	-221266.1	1	256490.2	-59.61757	1.293185E-010	0.0062615	5
	54	77	3.945707	154734.5	-254089	1	297496.2	-58.65953	-2.50068E-011	0.006255	5
	55	80	3.158693	180946.5	-289016.5	1	340987	-57.95028	5.847525E-011	0.0062499	5
	56	83	2.504006	210786.6	-331347.7	1	392711.5	-57.53755	2.28675E-010	0.0062683	5
	57	86	1.998082	243059.7	-379000.2	1	450243.4	-57.32721	3.676755E-010	0.0062559	5
	58	89	1.584686	282862.1	-436621.5	1	520239.7	-57.06311	2.882082E-010	0.006207	5
	59	93	1.266892	322481.5	-500256.2	1	595189.5	-57.19284	1.823986E-010	0.0062553	5
	60	97	0.999041	374089.9	-582071.1	1	691917.6	-57.27164	-2.812061E-010	0.0062369	5
