EXPLAIN
TAG	EISPOT
TITLE	LABEL	Potentiostatic EIS	Test &Identifier
DATE	LABEL	10/8/2019	Date
TIME	LABEL	9:05:53	Time
NOTES	NOTES	2	&Notes...
	
	
PSTAT	PSTAT	REF600-11020	Potentiostat
VDC	POTEN	0.00000E+000	T	DC &Voltage (V)
FREQINIT	QUANT	1.00000E+006	Initial Fre&q. (Hz)
FREQFINAL	QUANT	1.00000E+000	Final Fre&q. (Hz)
PTSPERDEC	QUANT	1.00000E+001	Points/&decade
VAC	QUANT	2.50000E+001	AC &Voltage (mV rms)
AREA	QUANT	1.00000E-002	&Area (cm^2)
CONDIT	TWOPARAM	T	5.00000E+000	0.00000E+000	Conditionin&g	Time(s)	E(V)
DELAY	TWOPARAM	T	5.00000E+000	0.00000E+000	Init. De&lay	Time(s)	Stab.(mV/s)
SPEED	SELECTOR	1	&Optimize for:
ZGUESS	QUANT	1.00000E+004	E&stimated Z (ohms)
OCVCURVE	TABLE	19
	Pt	T	Vf	Vm	Ach	Over
	#	s	V vs. Ref.	V	V	bits
	0	0.258333	4.60728E-003	4.60728E-003	5.56233E-004	...........
	1	0.516667	4.60378E-003	4.42415E-003	5.59466E-004	...........
	2	0.775	4.58258E-003	4.26556E-003	5.58599E-004	...........
	3	1.03333	4.52389E-003	4.12966E-003	5.56766E-004	...........
	4	1.29167	4.42217E-003	4.00431E-003	5.48866E-004	...........
	5	1.55	4.29274E-003	3.89785E-003	5.59732E-004	...........
	6	1.80833	4.15711E-003	3.79875E-003	5.56399E-004	...........
	7	2.06667	4.02967E-003	3.71538E-003	5.51066E-004	...........
	8	2.325	3.91574E-003	3.63146E-003	5.58232E-004	...........
	9	2.58333	3.81504E-003	3.56118E-003	5.55633E-004	...........
	10	2.84167	3.72514E-003	3.48784E-003	5.59499E-004	...........
	11	3.1	3.64362E-003	3.43306E-003	5.54233E-004	...........
	12	3.35833	3.56909E-003	3.37239E-003	5.53233E-004	...........
	13	3.61667	3.50101E-003	3.32578E-003	5.60299E-004	...........
	14	3.875	3.43893E-003	3.27284E-003	5.53666E-004	...........
	15	4.13333	3.38210E-003	3.23080E-003	5.60766E-004	...........
	16	4.39167	3.32953E-003	3.18208E-003	5.58499E-004	...........
	17	4.65	3.28029E-003	3.14534E-003	5.60532E-004	...........
	18	4.90833	3.23384E-003	3.10537E-003	5.56233E-004	...........
EOC	QUANT	0.0032338	Open Circuit (V)
PSTATMODEL	IQUANT	4	Pstat Model
PSTATSECTION	LABEL	REF600-11020	Pstat Section
PSTATSERIALNO	LABEL	11020	Pstat Serial Number
CTRLMODE	IQUANT	1	Control Mode
IESTAB	IQUANT	0	I/E Stability
CASPEED	IQUANT	1	Control Amp Speed
CONVENTION	IQUANT	1	Current Convention
ICHRANGE	IQUANT	2	Ich Range
ICHRANGEMODE	TOGGLE	F	Ich Auto Range
ICHOFFSETENABLE	TOGGLE	T	Ich Offset Enable
ICHOFFSET	QUANT	0	Ich Offset (V)
ICHFILTER	IQUANT	3	Ich Filter
VCHRANGE	IQUANT	2	Vch Range
VCHRANGEMODE	TOGGLE	F	Vch Auto Range
VCHOFFSETENABLE	TOGGLE	T	Vch Offset Enable
VCHOFFSET	QUANT	0	Vch Offset (V)
VCHFILTER	IQUANT	3	Vch Filter
ACHRANGE	IQUANT	2	Ach Range
ACHOFFSETENABLE	TOGGLE	F	Ach Offset Enable
ACHOFFSET	QUANT	0	Ach Offset (V)
ACHFILTER	IQUANT	3	Ach Filter
IERANGELOWERLIMIT	IQUANT	1	I/E Range Lower Limit
IERANGEMODE	TOGGLE	F	I/E AutoRange
IERANGE	IQUANT	5	I/E Range
POSFEEDENABLE	TOGGLE	F	Positive Feedback IR Comp
POSFEEDRESISTANCE	QUANT	0	Positive Feedback Resistance (ohm)
ACHSELECT	IQUANT	0	Ach Select
CABLEID	IQUANT	14	Cable ID
DCCALDATE	LABEL	8/19/2019	DC Calibration Date
ACCALDATE	LABEL	8/19/2019	AC Calibration Date
THERMOSELECT	IQUANT	1	Thermo Select
FRAMEWORKVERSION	QUANT	6.33	Framework Version
INSTRUMENTVERSION	LABEL	3.50	Instrument Version
ZCURVE	TABLE
	Pt	Time	Freq	Zreal	Zimag	Zsig	Zmod	Zphz	Idc	Vdc	IERange
	#	s	Hz	ohm	ohm	V	ohm	°	A	V	#
	0	2	1000078	2400.104	-1519.91	1	2840.884	-32.34478	2.875083E-007	0.0062229	8
	1	3	794390.6	2679.903	-1432.829	1	3038.894	-28.13151	3.904453E-006	0.0044141	8
	2	5	630984.4	2947.581	-1305.243	1	3223.646	-23.88465	7.874666E-007	0.004519	8
	3	6	501234.4	3153.44	-1152.267	1	3357.366	-20.0723	-1.951248E-007	0.0050709	8
	4	7	398109.4	3327.677	-1018.299	1	3479.995	-17.01458	4.077815E-006	0.0041263	8
	5	9	316265.6	3435.943	-870.0551	1	3544.39	-14.20984	-4.74953E-006	0.0059175	8
	6	10	251203.1	3539.992	-745.7507	1	3617.691	-11.89624	2.904781E-006	0.0042692	8
	7	11	199546.9	3601.784	-656.2099	1	3661.073	-10.32548	-2.289853E-006	0.0052899	8
	8	13	158578.1	3662.183	-556.7343	1	3704.26	-8.644064	-2.165702E-006	0.0052784	8
	9	14	125953.1	3729.213	-454.1223	1	3756.761	-6.94297	-8.228291E-007	0.0065474	7
	10	15	100078.1	3755.088	-406.0119	1	3776.974	-6.171027	-5.911666E-008	0.0049824	7
	11	17	79453.13	3786.899	-377.2651	1	3805.645	-5.689248	-1.905183E-008	0.0047761	7
	12	18	63140.62	3814.404	-358.7654	1	3831.239	-5.373172	-1.212275E-008	0.0047667	7
	13	20	50203.12	3841.687	-349.7573	1	3857.576	-5.202017	4.559608E-008	0.0046559	7
	14	21	39890.62	3869.269	-348.5429	1	3884.936	-5.147298	-4.824959E-008	0.0048351	7
	15	22	31640.63	3897.958	-359.2838	1	3914.481	-5.266205	6.489711E-008	0.0046909	7
	16	24	25171.88	3927.511	-377.3206	1	3945.595	-5.487631	-1.112575E-008	0.0049338	7
	17	25	20015.62	3956.185	-402.0641	1	3976.563	-5.803004	-1.853613E-008	0.0048544	7
	18	26	15890.62	3991.467	-444.6388	1	4016.157	-6.35639	7.522062E-009	0.0047343	7
	19	28	12609.37	4028.638	-493.6406	1	4058.769	-6.985793	-1.84705E-008	0.0047702	7
	20	29	10078.13	4064.7	-557.2766	1	4102.724	-7.806668	-3.902483E-008	0.0048122	7
	21	30	8015.625	4106.068	-638.215	1	4155.372	-8.83491	-1.187742E-008	0.0047603	7
	22	32	6328.125	4150.538	-739.0802	1	4215.828	-10.09675	-2.276114E-009	0.0048052	7
	23	33	5015.625	4199.489	-863.015	1	4287.249	-11.61288	-1.788291E-008	0.0047733	7
	24	35	3984.375	4253.621	-1016.135	1	4373.308	-13.43543	-1.230715E-008	0.0049423	7
	25	36	3170.956	4313.57	-1200.908	1	4477.618	-15.55733	-2.983453E-008	0.004809	7
	26	37	2527.573	4379.799	-1428.118	1	4606.751	-18.05956	-4.09642E-008	0.004887	7
	27	39	1976.103	4465.956	-1731.795	1	4789.977	-21.19514	8.88535E-008	0.0047463	7
	28	40	1577.524	4557.665	-2071.055	1	5006.154	-24.43759	-4.91825E-008	0.0048361	7
	29	41	1265.625	4666.507	-2480.071	1	5284.604	-27.98895	-4.016877E-008	0.0048848	7
	30	43	998.264	4798.838	-3009.023	1	5664.191	-32.08901	-3.779935E-008	0.0048135	7
	31	44	796.875	4947.633	-3628.947	1	6135.824	-36.25898	-1.310339E-009	0.0048118	7
	32	45	627.7902	5134.515	-4421.419	1	6775.854	-40.73231	-3.538202E-008	0.0048333	7
	33	47	505.5147	5341.097	-5294.425	1	7520.522	-44.74857	7.190503E-009	0.0047359	7
	34	48	397.9953	5586.063	-6501.928	1	8571.999	-49.33282	4.450124E-009	0.0048167	7
	35	49	315.5048	5880.831	-7930.932	1	9873.39	-53.44286	4.962784E-009	0.0048152	7
	36	51	252.4038	6221.489	-9615.35	1	11452.6	-57.09564	5.25927E-010	0.0047557	6
	37	52	198.6229	6662.2	-11848.03	1	13592.67	-60.65075	9.787693E-010	0.0047567	6
	38	54	158.3615	7177.643	-14453.59	1	16137.68	-63.59104	1.367038E-009	0.0047552	6
	39	55	125.558	7844.556	-17739.44	1	19396.52	-66.14452	1.169017E-009	0.0047549	6
	40	56	100.4464	8652.97	-21598.19	1	23267.05	-68.16728	3.090729E-010	0.0047534	6
	41	58	79.00281	9762.63	-26717.36	1	28445.15	-69.92749	8.228389E-010	0.0047518	6
	42	59	63.3446	11132.58	-32647.16	1	34493.06	-71.17079	3.941924E-010	0.0047451	6
	43	60	49.86702	12981	-39946.59	1	42002.81	-71.99796	1.446264E-010	0.0047505	6
	44	62	39.72458	15510.76	-48767.93	1	51175.13	-72.35661	7.751753E-010	0.0047596	6
	45	63	31.6723	18778.67	-59255.39	1	62159.79	-72.41603	7.709357E-010	0.004754	6
	46	65	24.93351	23041.45	-72694.91	1	76259.16	-72.41342	2.823745E-010	0.0047491	6
	47	66	19.86229	28493.95	-87926.69	1	92428.39	-72.04431	9.25526E-010	0.0047601	6
	48	67	15.83615	34976.14	-105647.2	1	111286.4	-71.68208	-5.524597E-010	0.0047548	5
	49	69	12.40079	45496.16	-128285.2	1	136113.9	-70.47301	-8.381445E-011	0.0047564	5
	50	70	9.93114	57593.03	-153359	1	163816.8	-69.41664	-1.838453E-010	0.0047627	5
	51	72	7.944915	72279.48	-181853.2	1	195690.8	-68.32413	4.172192E-010	0.0047615	5
	52	73	6.317385	92140.87	-214754.5	1	233686.6	-66.77814	-1.127614E-010	0.0047542	5
	53	76	5.008013	116974.5	-252681.6	1	278443.9	-65.15905	-1.010295E-010	0.0047561	5
	54	78	3.945707	148354.2	-295912.1	1	331018	-63.3733	-1.122656E-010	0.004749	5
	55	81	3.158693	183467.7	-339813.8	1	386178.5	-61.63511	3.186191E-010	0.004767	5
	56	84	2.504006	226313.2	-390045	1	450946.6	-59.87669	-2.998981E-010	0.0047538	5
	57	87	1.998082	273336.8	-441316.5	1	519108.2	-58.2273	6.314255E-013	0.0047157	5
	58	90	1.584686	326071.8	-498013.9	1	595265.2	-56.78545	-3.554958E-011	0.0047857	5
	59	94	1.266892	381815.5	-560903.3	1	678524.6	-55.75628	-9.509411E-011	0.0047284	5
	60	98	0.999041	446065.9	-634254.3	1	775405.3	-54.88159	2.418214E-010	0.0047946	5
