EXPLAIN
TAG	EISPOT
TITLE	LABEL	Potentiostatic EIS	Test &Identifier
DATE	LABEL	10/14/2019	Date
TIME	LABEL	9:56:49	Time
NOTES	NOTES	1	&Notes...
	
PSTAT	PSTAT	REF600-11020	Potentiostat
VDC	POTEN	0.00000E+000	T	DC &Voltage (V)
FREQINIT	QUANT	1.00000E+006	Initial Fre&q. (Hz)
FREQFINAL	QUANT	1.00000E+000	Final Fre&q. (Hz)
PTSPERDEC	QUANT	1.00000E+001	Points/&decade
VAC	QUANT	2.50000E+001	AC &Voltage (mV rms)
AREA	QUANT	1.00000E-002	&Area (cm^2)
CONDIT	TWOPARAM	T	5.00000E+000	0.00000E+000	Conditionin&g	Time(s)	E(V)
DELAY	TWOPARAM	T	5.00000E+000	0.00000E+000	Init. De&lay	Time(s)	Stab.(mV/s)
SPEED	SELECTOR	1	&Optimize for:
ZGUESS	QUANT	1.00000E+004	E&stimated Z (ohms)
OCVCURVE	TABLE	19
	Pt	T	Vf	Vm	Ach	Over
	#	s	V vs. Ref.	V	V	bits
	0	0.258333	3.84063E-003	3.84063E-003	6.27831E-004	...........
	1	0.516667	3.83963E-003	3.78828E-003	6.24498E-004	...........
	2	0.775	3.83350E-003	3.73918E-003	6.23132E-004	...........
	3	1.03333	3.81656E-003	3.71138E-003	6.23998E-004	...........
	4	1.29167	3.78807E-003	3.69265E-003	6.22032E-004	...........
	5	1.55	3.75440E-003	3.67487E-003	6.21232E-004	...........
	6	1.80833	3.72310E-003	3.65780E-003	6.17132E-004	...........
	7	2.06667	3.69763E-003	3.64921E-003	6.20532E-004	...........
	8	2.325	3.67793E-003	3.64387E-003	6.19331E-004	...........
	9	2.58333	3.66354E-003	3.65959E-003	6.19965E-004	...........
	10	2.84167	3.65471E-003	3.64262E-003	6.12465E-004	...........
	11	3.1	3.65045E-003	3.63583E-003	6.18098E-004	...........
	12	3.35833	3.64777E-003	3.64157E-003	6.21565E-004	...........
	13	3.61667	3.64490E-003	3.64782E-003	6.21632E-004	...........
	14	3.875	3.64306E-003	3.65366E-003	6.19298E-004	...........
	15	4.13333	3.64404E-003	3.66434E-003	6.29265E-004	...........
	16	4.39167	3.64805E-003	3.66530E-003	6.24898E-004	...........
	17	4.65	3.65400E-003	3.67572E-003	6.25865E-004	...........
	18	4.90833	3.66067E-003	3.68435E-003	6.27765E-004	...........
EOC	QUANT	0.0036607	Open Circuit (V)
PSTATMODEL	IQUANT	4	Pstat Model
PSTATSECTION	LABEL	REF600-11020	Pstat Section
PSTATSERIALNO	LABEL	11020	Pstat Serial Number
CTRLMODE	IQUANT	1	Control Mode
IESTAB	IQUANT	0	I/E Stability
CASPEED	IQUANT	1	Control Amp Speed
CONVENTION	IQUANT	1	Current Convention
ICHRANGE	IQUANT	2	Ich Range
ICHRANGEMODE	TOGGLE	F	Ich Auto Range
ICHOFFSETENABLE	TOGGLE	T	Ich Offset Enable
ICHOFFSET	QUANT	0	Ich Offset (V)
ICHFILTER	IQUANT	3	Ich Filter
VCHRANGE	IQUANT	2	Vch Range
VCHRANGEMODE	TOGGLE	F	Vch Auto Range
VCHOFFSETENABLE	TOGGLE	T	Vch Offset Enable
VCHOFFSET	QUANT	0	Vch Offset (V)
VCHFILTER	IQUANT	3	Vch Filter
ACHRANGE	IQUANT	2	Ach Range
ACHOFFSETENABLE	TOGGLE	F	Ach Offset Enable
ACHOFFSET	QUANT	0	Ach Offset (V)
ACHFILTER	IQUANT	3	Ach Filter
IERANGELOWERLIMIT	IQUANT	1	I/E Range Lower Limit
IERANGEMODE	TOGGLE	F	I/E AutoRange
IERANGE	IQUANT	5	I/E Range
POSFEEDENABLE	TOGGLE	F	Positive Feedback IR Comp
POSFEEDRESISTANCE	QUANT	0	Positive Feedback Resistance (ohm)
ACHSELECT	IQUANT	0	Ach Select
CABLEID	IQUANT	14	Cable ID
DCCALDATE	LABEL	8/19/2019	DC Calibration Date
ACCALDATE	LABEL	8/19/2019	AC Calibration Date
THERMOSELECT	IQUANT	1	Thermo Select
FRAMEWORKVERSION	QUANT	6.33	Framework Version
INSTRUMENTVERSION	LABEL	3.50	Instrument Version
ZCURVE	TABLE
	Pt	Time	Freq	Zreal	Zimag	Zsig	Zmod	Zphz	Idc	Vdc	IERange
	#	s	Hz	ohm	ohm	V	ohm	°	A	V	#
	0	2	1000078	2450.331	-1094.15	1	2683.521	-24.06226	-5.467128E-006	0.0070453	8
	1	3	794390.6	2607.603	-1000.495	1	2792.953	-20.991	-1.613215E-006	0.0064689	8
	2	4	630984.4	2753.632	-904.8615	1	2898.493	-18.19086	1.781811E-006	0.0052467	8
	3	6	501234.4	2874.737	-780.9741	1	2978.931	-15.19862	-5.099383E-006	0.006582	8
	4	7	398109.4	2975.222	-691.4485	1	3054.512	-13.08342	-2.46197E-006	0.0059814	8
	5	8	316265.6	3051.608	-606.0323	1	3111.204	-11.23247	4.16225E-006	0.0045964	8
	6	10	251203.1	3112.046	-534.9949	1	3157.697	-9.75443	3.826812E-006	0.0046771	8
	7	11	199546.9	3180.425	-460.2641	1	3213.556	-8.234551	-3.340131E-007	0.0053225	8
	8	13	158578.1	3215.149	-408.2946	1	3240.97	-7.237301	2.591909E-006	0.0048012	8
	9	14	125953.1	3271.214	-312.0041	1	3286.059	-5.448316	-5.017262E-007	0.0060838	7
	10	15	100078.1	3285.584	-278.4377	1	3297.362	-4.843972	-3.766998E-008	0.00534	7
	11	17	79453.13	3309.668	-255.9129	1	3319.547	-4.421475	1.151483E-008	0.0052375	7
	12	18	63140.62	3330.892	-239.6084	1	3339.499	-4.114498	7.658152E-008	0.0052622	7
	13	19	50203.12	3350.785	-227.4632	1	3358.497	-3.883482	-1.657961E-008	0.0053542	7
	14	21	39890.62	3369.054	-220.195	1	3376.242	-3.739426	-4.074694E-008	0.0053786	7
	15	22	31640.63	3386.145	-220.324	1	3393.305	-3.722778	-9.486455E-009	0.0053372	7
	16	23	25171.88	3402.895	-225.8783	1	3410.384	-3.797623	-1.975972E-008	0.0052885	7
	17	25	20015.62	3419.161	-237.4226	1	3427.394	-3.972177	-5.612565E-008	0.005464	7
	18	26	15890.62	3434.774	-257.3569	1	3444.402	-4.284986	-2.128496E-008	0.005291	7
	19	28	12609.37	3449.505	-283.964	1	3461.173	-4.705989	-5.240569E-009	0.0053204	7
	20	29	10078.13	3468.009	-320.4319	1	3482.781	-5.278942	-7.103317E-009	0.0053423	7
	21	30	8015.625	3482.879	-366.6594	1	3502.125	-6.009666	-4.795733E-008	0.0054565	7
	22	32	6328.125	3506.377	-430.4893	1	3532.705	-6.999361	3.89686E-008	0.0051707	7
	23	33	5015.625	3530.667	-509.9816	1	3567.308	-8.219153	-3.209892E-008	0.0053258	7
	24	34	3984.375	3553.464	-600.1174	1	3603.782	-9.5858	6.29906E-008	0.005187	7
	25	36	3170.956	3587.931	-725.7473	1	3660.595	-11.43519	-8.645708E-009	0.005253	7
	26	37	2527.573	3623.134	-871.5559	1	3726.487	-13.52569	-4.015466E-008	0.0053759	7
	27	38	1976.103	3667.119	-1065.186	1	3818.688	-16.19697	-9.458321E-009	0.0052543	7
	28	40	1577.524	3724.722	-1294.903	1	3943.391	-19.17006	-6.684428E-008	0.0054023	7
	29	41	1265.625	3767.222	-1548.784	1	4073.167	-22.34859	-1.366674E-008	0.0054197	7
	30	43	998.264	3838.881	-1897.229	1	4282.112	-26.29924	-6.204777E-009	0.0052525	7
	31	44	796.875	3911.818	-2303.014	1	4539.404	-30.4867	-3.036117E-008	0.0053065	7
	32	45	627.7902	4009.362	-2836.723	1	4911.413	-35.28035	-3.753368E-008	0.0053104	7
	33	47	505.5147	4111.238	-3430.286	1	5354.357	-39.84054	1.277907E-008	0.0052295	7
	34	48	397.9953	4250.342	-4240.93	1	6004.24	-44.93649	6.262485E-009	0.0053019	7
	35	49	315.5048	4417.782	-5214.772	1	6834.519	-49.72984	5.588373E-009	0.0053014	7
	36	51	252.4038	4619.328	-6368.491	1	7867.392	-54.04508	4.850416E-009	0.0053025	7
	37	52	198.6229	4892.894	-7895.273	1	9288.474	-58.21249	5.349496E-009	0.0052989	7
	38	54	158.3615	5226.701	-9675.3	1	10996.81	-61.6216	1.074317E-009	0.0052404	6
	39	55	125.558	5668.84	-11919.58	1	13198.95	-64.56468	9.613486E-010	0.0052431	6
	40	56	100.4464	6229.2	-14553.51	1	15830.59	-66.82809	1.504339E-009	0.0052428	6
	41	58	79.00281	6985.344	-18059.12	1	19363.03	-68.85332	6.093095E-010	0.0052401	6
	42	59	63.3446	7853.641	-21824.16	1	23194.26	-70.20823	8.189616E-010	0.0052326	6
	43	60	49.86702	9384.441	-27083.91	1	28663.67	-70.88905	5.880421E-010	0.0052349	6
	44	62	39.72458	11011.42	-33036.61	1	34823.39	-71.56628	9.052739E-010	0.0052417	6
	45	63	31.6723	13275.4	-40162.47	1	42299.65	-71.70909	9.923925E-010	0.0052387	6
	46	65	24.93351	16394.77	-49134.91	1	51797.95	-71.54777	1.162412E-009	0.0052349	6
	47	66	19.86229	20382.51	-59301.96	1	62707.02	-71.03178	1.010754E-009	0.0052376	6
	48	67	15.83615	25279.24	-71087.29	1	75448.27	-70.42419	4.478481E-010	0.0052339	6
	49	69	12.40079	32766.08	-86469.38	1	92469.29	-69.24666	1.663238E-009	0.0052367	6
	50	70	9.93114	41094.82	-102256	1	110204.7	-68.10571	-6.430364E-011	0.0052411	5
	51	72	7.944915	51802.06	-119887.8	1	130600.6	-66.63141	1.372804E-009	0.0052458	5
	52	73	6.317385	65051.34	-140889.7	1	155182.4	-65.21638	-2.105706E-010	0.0052562	5
	53	76	5.008013	81562.77	-164495.5	1	183606.3	-63.62614	1.693167E-010	0.0052334	5
	54	78	3.945707	101368.6	-190975.1	1	216210.8	-62.04087	6.041468E-010	0.0052478	5
	55	81	3.158693	123331	-218755	1	251126.1	-60.58631	-1.975356E-010	0.0052324	5
	56	84	2.504006	149198.1	-250235.5	1	291338.1	-59.19531	6.709301E-010	0.005233	5
	57	87	1.998082	177332.9	-283937.4	1	334764.7	-58.0132	8.816749E-011	0.0052822	5
	58	90	1.584686	208075.4	-322194.1	1	383541.9	-57.14532	2.245387E-010	0.005225	5
	59	94	1.266892	241844.9	-365483.7	1	438254.8	-56.50692	1.712411E-010	0.0052817	5
	60	98	0.999041	280277.3	-417775.2	1	503082	-56.1431	-1.619725E-010	0.0052024	5
