EXPLAIN
TAG	EISPOT
TITLE	LABEL	Potentiostatic EIS	Test &Identifier
DATE	LABEL	10/24/2019	Date
TIME	LABEL	9:00:04	Time
NOTES	NOTES	1	&Notes...
	
PSTAT	PSTAT	REF600-11020	Potentiostat
VDC	POTEN	0.00000E+000	T	DC &Voltage (V)
FREQINIT	QUANT	1.00000E+006	Initial Fre&q. (Hz)
FREQFINAL	QUANT	1.00000E+000	Final Fre&q. (Hz)
PTSPERDEC	QUANT	1.00000E+001	Points/&decade
VAC	QUANT	2.50000E+001	AC &Voltage (mV rms)
AREA	QUANT	1.00000E-002	&Area (cm^2)
CONDIT	TWOPARAM	T	5.00000E+000	0.00000E+000	Conditionin&g	Time(s)	E(V)
DELAY	TWOPARAM	T	5.00000E+000	0.00000E+000	Init. De&lay	Time(s)	Stab.(mV/s)
SPEED	SELECTOR	1	&Optimize for:
ZGUESS	QUANT	1.00000E+005	E&stimated Z (ohms)
OCVCURVE	TABLE	19
	Pt	T	Vf	Vm	Ach	Over
	#	s	V vs. Ref.	V	V	bits
	0	0.258333	2.77982E-003	2.77982E-003	5.76099E-004	...........
	1	0.516667	2.77758E-003	2.66248E-003	5.73332E-004	...........
	2	0.775	2.76673E-003	2.70404E-003	5.79999E-004	...........
	3	1.03333	2.73988E-003	2.43644E-003	5.73132E-004	...........
	4	1.29167	2.68847E-003	2.36227E-003	5.73066E-004	...........
	5	1.55	2.60601E-003	2.28737E-003	5.72732E-004	...........
	6	1.80833	2.50158E-003	2.22035E-003	5.72732E-004	...........
	7	2.06667	2.39667E-003	2.15466E-003	5.69732E-004	...........
	8	2.325	2.30542E-003	2.09944E-003	5.71599E-004	...........
	9	2.58333	2.22906E-003	2.04228E-003	5.71766E-004	...........
	10	2.84167	2.16333E-003	1.99019E-003	5.71966E-004	...........
	11	3.1	2.10401E-003	1.94003E-003	5.77799E-004	...........
	12	3.35833	2.04858E-003	1.89368E-003	5.77832E-004	...........
	13	3.61667	1.99609E-003	1.85109E-003	5.81999E-004	...........
	14	3.875	1.94640E-003	1.80622E-003	5.72899E-004	...........
	15	4.13333	1.89934E-003	1.76585E-003	5.73266E-004	...........
	16	4.39167	1.85439E-003	1.72203E-003	5.77032E-004	...........
	17	4.65	1.81096E-003	1.68444E-003	5.75499E-004	...........
	18	4.90833	1.76869E-003	1.64443E-003	5.78865E-004	...........
EOC	QUANT	0.0017687	Open Circuit (V)
PSTATMODEL	IQUANT	4	Pstat Model
PSTATSECTION	LABEL	REF600-11020	Pstat Section
PSTATSERIALNO	LABEL	11020	Pstat Serial Number
CTRLMODE	IQUANT	1	Control Mode
IESTAB	IQUANT	0	I/E Stability
CASPEED	IQUANT	1	Control Amp Speed
CONVENTION	IQUANT	1	Current Convention
ICHRANGE	IQUANT	2	Ich Range
ICHRANGEMODE	TOGGLE	F	Ich Auto Range
ICHOFFSETENABLE	TOGGLE	T	Ich Offset Enable
ICHOFFSET	QUANT	0	Ich Offset (V)
ICHFILTER	IQUANT	3	Ich Filter
VCHRANGE	IQUANT	2	Vch Range
VCHRANGEMODE	TOGGLE	F	Vch Auto Range
VCHOFFSETENABLE	TOGGLE	T	Vch Offset Enable
VCHOFFSET	QUANT	0	Vch Offset (V)
VCHFILTER	IQUANT	3	Vch Filter
ACHRANGE	IQUANT	2	Ach Range
ACHOFFSETENABLE	TOGGLE	F	Ach Offset Enable
ACHOFFSET	QUANT	0	Ach Offset (V)
ACHFILTER	IQUANT	3	Ach Filter
IERANGELOWERLIMIT	IQUANT	1	I/E Range Lower Limit
IERANGEMODE	TOGGLE	F	I/E AutoRange
IERANGE	IQUANT	4	I/E Range
POSFEEDENABLE	TOGGLE	F	Positive Feedback IR Comp
POSFEEDRESISTANCE	QUANT	0	Positive Feedback Resistance (ohm)
ACHSELECT	IQUANT	0	Ach Select
CABLEID	IQUANT	14	Cable ID
DCCALDATE	LABEL	8/19/2019	DC Calibration Date
ACCALDATE	LABEL	8/19/2019	AC Calibration Date
THERMOSELECT	IQUANT	1	Thermo Select
FRAMEWORKVERSION	QUANT	6.33	Framework Version
INSTRUMENTVERSION	LABEL	3.50	Instrument Version
ZCURVE	TABLE
	Pt	Time	Freq	Zreal	Zimag	Zsig	Zmod	Zphz	Idc	Vdc	IERange
	#	s	Hz	ohm	ohm	V	ohm	°	A	V	#
	0	1	1000078	2376.008	-1151.459	1	2640.317	-25.85572	-2.935115E-007	0.0043188	8
	1	3	794390.6	2551.627	-1077.553	1	2769.823	-22.89434	1.830986E-006	0.0033684	8
	2	4	630984.4	2719.017	-997.347	1	2896.162	-20.14326	-5.047581E-007	0.0034931	8
	3	5	501234.4	2868.494	-925.0213	1	3013.955	-17.87328	3.942027E-006	0.0027039	8
	4	7	398109.4	2987.429	-855.6472	1	3107.55	-15.98255	-2.138906E-006	0.003707	8
	5	8	316265.6	3105.887	-777.3144	1	3201.679	-14.05087	5.219697E-008	0.0032882	8
	6	10	251203.1	3216.382	-720.8771	1	3296.176	-12.63275	-2.539258E-006	0.003842	8
	7	11	199546.9	3305.38	-657.7862	1	3370.196	-11.25509	2.276496E-006	0.0028943	8
	8	12	158578.1	3384.91	-595.5635	1	3436.905	-9.97886	2.120981E-006	0.0028764	8
	9	14	125953.1	3480.415	-489.4911	1	3514.668	-8.005662	2.255473E-007	0.0028756	7
	10	15	100078.1	3534.353	-440.9614	1	3561.755	-7.111724	-1.690778E-008	0.0034094	7
	11	16	79453.13	3586.011	-401.759	1	3608.446	-6.39248	-3.272712E-008	0.0033013	7
	12	18	63140.62	3630.245	-367.2348	1	3648.772	-5.776379	-7.128327E-009	0.0033127	7
	13	19	50203.12	3667.474	-336.9883	1	3682.923	-5.24992	-7.297107E-009	0.0033093	7
	14	21	39890.62	3699.166	-312.921	1	3712.377	-4.835271	-3.151602E-008	0.003292	7
	15	22	31640.63	3725.478	-296.2279	1	3737.237	-4.546255	-4.193462E-008	0.0033599	7
	16	23	25171.88	3748.674	-289.2059	1	3759.813	-4.411566	-1.64968E-008	0.0033938	7
	17	25	20015.62	3783.124	-289.2563	1	3794.166	-4.372307	-3.617445E-008	0.0033161	7
	18	26	15890.62	3790.518	-297.5768	1	3802.181	-4.488831	5.860721E-008	0.0031755	7
	19	27	12609.37	3809.193	-315.2498	1	3822.216	-4.731031	7.588297E-008	0.003218	7
	20	29	10078.13	3827.684	-344.2327	1	3843.132	-5.13892	-4.302952E-009	0.0033056	7
	21	30	8015.625	3851.564	-394.4905	1	3871.714	-5.84804	4.732672E-009	0.0032548	7
	22	31	6328.125	3869.481	-443.3072	1	3894.792	-6.535598	-1.137423E-008	0.0032736	7
	23	33	5015.625	3893.831	-517.7889	1	3928.107	-7.574569	-5.698668E-008	0.0033739	7
	24	34	3984.375	3933.455	-606.1172	1	3979.88	-8.759969	4.056096E-008	0.0031495	7
	25	36	3170.956	3948.597	-723.7042	1	4014.37	-10.38598	3.70199E-008	0.0032339	7
	26	37	2527.573	3982.342	-864.9241	1	4075.186	-12.25375	6.876953E-008	0.0031346	7
	27	38	1976.103	4024.693	-1056.994	1	4161.176	-14.71513	-5.791962E-008	0.0034481	7
	28	40	1577.524	4073.336	-1276.825	1	4268.765	-17.40408	-5.570302E-009	0.003307	7
	29	41	1265.625	4121.078	-1532.66	1	4396.854	-20.40055	-4.515695E-008	0.0033243	7
	30	42	998.264	4186.324	-1878.977	1	4588.667	-24.17231	9.987566E-008	0.0031252	7
	31	44	796.875	4260.105	-2283.087	1	4833.32	-28.18787	3.716521E-008	0.0032294	7
	32	45	627.7902	4353.864	-2812.752	1	5183.406	-32.86391	-1.37405E-008	0.0032985	7
	33	46	505.5147	4457.935	-3407.221	1	5610.913	-37.39085	-2.292266E-008	0.0033263	7
	34	48	397.9953	4596.584	-4212.665	1	6234.992	-42.50455	4.576473E-009	0.0032893	7
	35	49	315.5048	4765.145	-5181.983	1	7039.854	-47.3996	6.438017E-009	0.0032864	7
	36	51	252.4038	4968.208	-6328.37	1	8045.58	-51.86564	6.285373E-009	0.0032808	7
	37	52	198.6229	5246.735	-7845.555	1	9438.271	-56.22727	5.558304E-009	0.0032868	7
	38	53	158.3615	5589.431	-9614.54	1	11121.2	-59.82833	1.018732E-009	0.0032238	6
	39	55	125.558	6037.384	-11838.59	1	13289.18	-62.97956	1.584173E-009	0.0032263	6
	40	56	100.4464	6593.831	-14442.39	1	15876.44	-65.46042	1.700568E-009	0.0032232	6
	41	57	79.00281	7372.376	-17898.95	1	19357.8	-67.61379	5.408081E-010	0.0032183	6
	42	59	63.3446	8385.291	-21617.5	1	23186.84	-68.79904	1.440601E-009	0.0032161	6
	43	60	49.86702	9799.12	-26933.91	1	28661.09	-70.00756	1.470965E-009	0.0032187	6
	44	62	39.72458	11519.72	-32683.47	1	34654.19	-70.58432	5.552254E-010	0.0032281	6
	45	63	31.6723	13852.14	-39681.04	1	42029.36	-70.75656	1.525718E-009	0.0032283	6
	46	65	24.93351	16996.26	-48473.2	1	51366.56	-70.67769	4.720144E-010	0.0032236	6
	47	66	19.86229	21009.57	-58466	1	62126.28	-70.23426	1.00216E-009	0.003228	6
	48	67	15.83615	25792.04	-69868.05	1	74476.66	-69.7382	-4.908215E-010	0.003221	6
	49	69	12.40079	34067.6	-84799.12	1	91386.49	-68.11246	2.835E-009	0.0032225	6
	50	70	9.93114	42038.9	-99966.4	1	108446	-67.19176	1.758592E-011	0.0032294	5
	51	72	7.944915	52724.58	-116932.6	1	128269.7	-65.72952	1.549139E-009	0.0032257	5
	52	73	6.317385	65853.92	-137092	1	152088.6	-64.34209	-2.136246E-010	0.0032317	5
	53	75	5.008013	82250.55	-159592.5	1	179540.8	-62.73439	2.226809E-010	0.0032205	5
	54	78	3.945707	101629.9	-184705	1	210818.8	-61.17916	1.029383E-009	0.0032282	5
	55	81	3.158693	124309.5	-210813	1	244734.5	-59.47355	-2.969471E-010	0.0032251	5
	56	84	2.504006	149744.9	-240885.8	1	283636.2	-58.13316	7.685896E-010	0.0032247	5
	57	87	1.998082	176226.7	-271503	1	323681.5	-57.01328	7.672439E-011	0.0032706	5
	58	90	1.584686	205674.5	-310222.5	1	372209.6	-56.45601	-1.663951E-010	0.0032217	5
	59	93	1.266892	240465.9	-347434.2	1	422533.3	-55.31214	1.906886E-010	0.0032608	5
	60	98	0.999041	277410.9	-394819	1	482533.8	-54.90704	-6.014971E-011	0.0031824	5
