EXPLAIN
TAG	EISPOT
TITLE	LABEL	Potentiostatic EIS	Test &Identifier
DATE	LABEL	10/20/2019	Date
TIME	LABEL	10:14:32	Time
NOTES	NOTES	1	&Notes...
	
PSTAT	PSTAT	REF600-11020	Potentiostat
VDC	POTEN	0.00000E+000	T	DC &Voltage (V)
FREQINIT	QUANT	1.00000E+006	Initial Fre&q. (Hz)
FREQFINAL	QUANT	1.00000E+000	Final Fre&q. (Hz)
PTSPERDEC	QUANT	1.00000E+001	Points/&decade
VAC	QUANT	2.50000E+001	AC &Voltage (mV rms)
AREA	QUANT	1.00000E-002	&Area (cm^2)
CONDIT	TWOPARAM	T	5.00000E+000	0.00000E+000	Conditionin&g	Time(s)	E(V)
DELAY	TWOPARAM	T	5.00000E+000	0.00000E+000	Init. De&lay	Time(s)	Stab.(mV/s)
SPEED	SELECTOR	1	&Optimize for:
ZGUESS	QUANT	1.00000E+005	E&stimated Z (ohms)
OCVCURVE	TABLE	19
	Pt	T	Vf	Vm	Ach	Over
	#	s	V vs. Ref.	V	V	bits
	0	0.258333	7.69100E-003	7.69100E-003	5.13967E-004	...........
	1	0.516667	7.69623E-003	7.96531E-003	5.13733E-004	...........
	2	0.775	7.74289E-003	8.98293E-003	5.11467E-004	...........
	3	1.03333	7.87240E-003	7.31250E-003	5.15433E-004	...........
	4	1.29167	7.99845E-003	6.85218E-003	5.12767E-004	...........
	5	1.55	7.93054E-003	6.95228E-003	5.16533E-004	...........
	6	1.80833	7.62524E-003	6.40065E-003	5.16533E-004	...........
	7	2.06667	7.22860E-003	6.46806E-003	5.12433E-004	...........
	8	2.325	6.89268E-003	7.07436E-003	5.16566E-004	...........
	9	2.58333	6.71943E-003	7.43977E-003	5.15400E-004	...........
	10	2.84167	6.76486E-003	7.65477E-003	5.13500E-004	...........
	11	3.1	6.98470E-003	7.51680E-003	5.18300E-004	...........
	12	3.35833	7.24996E-003	7.64809E-003	5.15066E-004	...........
	13	3.61667	7.45604E-003	7.85370E-003	5.11600E-004	...........
	14	3.875	7.59160E-003	7.89691E-003	5.12900E-004	...........
	15	4.13333	7.69096E-003	7.68178E-003	5.13267E-004	...........
	16	4.39167	7.75871E-003	7.70305E-003	5.12067E-004	...........
	17	4.65	7.78443E-003	8.02563E-003	5.13466E-004	...........
	18	4.90833	7.78672E-003	7.49125E-003	5.14400E-004	...........
EOC	QUANT	0.0077867	Open Circuit (V)
PSTATMODEL	IQUANT	4	Pstat Model
PSTATSECTION	LABEL	REF600-11020	Pstat Section
PSTATSERIALNO	LABEL	11020	Pstat Serial Number
CTRLMODE	IQUANT	1	Control Mode
IESTAB	IQUANT	0	I/E Stability
CASPEED	IQUANT	1	Control Amp Speed
CONVENTION	IQUANT	1	Current Convention
ICHRANGE	IQUANT	2	Ich Range
ICHRANGEMODE	TOGGLE	F	Ich Auto Range
ICHOFFSETENABLE	TOGGLE	T	Ich Offset Enable
ICHOFFSET	QUANT	0	Ich Offset (V)
ICHFILTER	IQUANT	3	Ich Filter
VCHRANGE	IQUANT	2	Vch Range
VCHRANGEMODE	TOGGLE	F	Vch Auto Range
VCHOFFSETENABLE	TOGGLE	T	Vch Offset Enable
VCHOFFSET	QUANT	0	Vch Offset (V)
VCHFILTER	IQUANT	3	Vch Filter
ACHRANGE	IQUANT	2	Ach Range
ACHOFFSETENABLE	TOGGLE	F	Ach Offset Enable
ACHOFFSET	QUANT	0	Ach Offset (V)
ACHFILTER	IQUANT	3	Ach Filter
IERANGELOWERLIMIT	IQUANT	1	I/E Range Lower Limit
IERANGEMODE	TOGGLE	F	I/E AutoRange
IERANGE	IQUANT	5	I/E Range
POSFEEDENABLE	TOGGLE	F	Positive Feedback IR Comp
POSFEEDRESISTANCE	QUANT	0	Positive Feedback Resistance (ohm)
ACHSELECT	IQUANT	0	Ach Select
CABLEID	IQUANT	14	Cable ID
DCCALDATE	LABEL	8/19/2019	DC Calibration Date
ACCALDATE	LABEL	8/19/2019	AC Calibration Date
THERMOSELECT	IQUANT	1	Thermo Select
FRAMEWORKVERSION	QUANT	6.33	Framework Version
INSTRUMENTVERSION	LABEL	3.50	Instrument Version
ZCURVE	TABLE
	Pt	Time	Freq	Zreal	Zimag	Zsig	Zmod	Zphz	Idc	Vdc	IERange
	#	s	Hz	ohm	ohm	V	ohm	°	A	V	#
	0	2	1000078	2735.694	-1866.356	1	3311.692	-34.30274	-2.165588E-006	0.0103394	8
	1	3	794390.6	3105.14	-1767.23	1	3572.814	-29.64553	1.663969E-007	0.0097651	8
	2	5	630984.4	3448.792	-1637.641	1	3817.857	-25.40047	-3.943918E-006	0.0104179	8
	3	6	501234.4	3710.867	-1445.661	1	3982.52	-21.28465	2.15938E-006	0.0091181	8
	4	8	398109.4	3908.887	-1278.452	1	4112.643	-18.111	-3.722314E-006	0.0101238	8
	5	9	316265.6	4076.77	-1101.672	1	4223	-15.12195	1.758929E-006	0.0092121	8
	6	11	251203.1	4196.386	-944.9125	1	4301.455	-12.68981	4.219895E-006	0.0086307	8
	7	13	199546.9	4298.959	-824.0634	1	4377.229	-10.85134	-3.463083E-006	0.0100355	8
	8	14	158578.1	4376.533	-721.6174	1	4435.625	-9.362878	3.151541E-006	0.0087271	8
	9	16	125953.1	4456.557	-560.3212	1	4491.644	-7.166173	-7.090299E-007	0.0104752	7
	10	17	100078.1	4490.135	-501.005	1	4517.999	-6.366674	-4.152679E-008	0.0093284	7
	11	18	79453.13	4527.195	-466.763	1	4551.193	-5.886512	-1.402929E-008	0.0092615	7
	12	20	63140.62	4564.064	-443.8179	1	4585.592	-5.554083	-4.411305E-008	0.009327	7
	13	21	50203.12	4599.551	-431.9298	1	4619.788	-5.364739	-2.159435E-008	0.0092669	7
	14	23	39890.62	4634.345	-433.681	1	4654.593	-5.346157	9.523249E-008	0.0092288	7
	15	24	31640.63	4671.614	-442.1202	1	4692.488	-5.406354	-3.18739E-008	0.0093123	7
	16	25	25171.88	4709.522	-465.0544	1	4732.428	-5.639542	-1.679682E-008	0.0092609	7
	17	27	20015.62	4755.596	-481.8435	1	4779.944	-5.785542	-5.073365E-009	0.0093382	7
	18	28	15890.62	4796.599	-539.1577	1	4826.806	-6.413363	6.943211E-008	0.0091827	7
	19	29	12609.37	4845.156	-597.1846	1	4881.82	-7.026492	-1.591235E-008	0.0094471	7
	20	31	10078.13	4894.922	-665.2778	1	4939.925	-7.739749	9.41386E-008	0.009228	7
	21	32	8015.625	4954.655	-774.5415	1	5014.831	-8.884911	-4.316762E-008	0.0093178	7
	22	33	6328.125	5012.458	-861.0005	1	5085.869	-9.7467	-3.736058E-008	0.0093288	7
	23	35	5015.625	5079.262	-994.109	1	5175.631	-11.0739	-2.632399E-009	0.0093031	7
	24	36	3984.375	5147.442	-1156.434	1	5275.746	-12.66194	-3.540874E-008	0.0093228	7
	25	38	3170.956	5225.487	-1345.195	1	5395.856	-14.43618	4.188461E-008	0.0091458	7
	26	39	2527.573	5307.405	-1581.43	1	5538.002	-16.5923	-8.594688E-008	0.0094331	7
	27	40	1976.103	5411.372	-1898.187	1	5734.637	-19.32972	-1.500752E-008	0.0094456	7
	28	42	1577.524	5498.792	-2196.355	1	5921.207	-21.773	1.467442E-007	0.0090681	7
	29	43	1265.625	5637.905	-2676.341	1	6240.895	-25.39392	-6.711086E-009	0.0093395	7
	30	45	998.264	5777.002	-3244.113	1	6625.558	-29.31667	-2.700484E-009	0.0093075	7
	31	46	796.875	5944.245	-3883.732	1	7100.522	-33.159	-4.406603E-008	0.0093206	7
	32	48	627.7902	6139.495	-4735.906	1	7753.851	-37.64601	3.903145E-008	0.0091453	7
	33	49	505.5147	6342.039	-5663.593	1	8502.808	-41.76562	-2.189207E-008	0.0093459	7
	34	50	397.9953	6617.607	-6931.846	1	9583.49	-46.32856	4.233056E-009	0.0093094	7
	35	52	315.5048	6929.164	-8451.549	1	10928.95	-50.65273	1.878441E-009	0.0092495	6
	36	53	252.4038	7285.358	-10249.78	1	12575.15	-54.59549	1.595215E-009	0.0092454	6
	37	54	198.6229	7751.142	-12636.92	1	14824.71	-58.47618	1.059052E-009	0.0092406	6
	38	56	158.3615	8296.033	-15425.75	1	17515.08	-61.72845	-3.021535E-010	0.0092389	6
	39	57	125.558	9006.554	-18941.33	1	20973.6	-64.56903	7.625368E-010	0.0092423	6
	40	58	100.4464	9860.87	-23116.57	1	25131.9	-66.89828	1.281061E-009	0.0092383	6
	41	60	79.00281	11131.86	-28654.51	1	30740.84	-68.76957	-7.623648E-011	0.0092377	6
	42	61	63.3446	12091.74	-35048.29	1	37075.5	-70.96545	-8.359952E-012	0.0092402	6
	43	63	49.86702	14539.46	-42362.59	1	44788.23	-71.05703	-8.328407E-010	0.0092334	6
	44	64	39.72458	17368.78	-52097.27	1	54916.3	-71.56207	7.02316E-010	0.0092437	6
	45	65	31.6723	21181.38	-63419.87	1	66863.52	-71.53137	1.009693E-009	0.0092353	6
	46	67	24.93351	25843	-77600.76	1	81790.82	-71.58095	9.731958E-011	0.0092358	6
	47	68	19.86229	31988.27	-93489.29	1	98810.4	-71.11112	-9.855016E-011	0.0092423	6
	48	70	15.83615	39521.37	-112830.1	1	119551.5	-70.696	3.726909E-010	0.0092436	5
	49	71	12.40079	50751.14	-134841	1	144075.5	-69.37478	1.394159E-009	0.0092391	5
	50	73	9.93114	65340.46	-161323.8	1	174053.9	-67.95074	8.736554E-010	0.0092344	5
	51	74	7.944915	82182.95	-191130.7	1	208050.5	-66.73312	1.323856E-010	0.009234	5
	52	76	6.317385	102992.8	-223574.3	1	246156.4	-65.26614	4.517691E-010	0.0092341	5
	53	78	5.008013	129661.9	-260957.4	1	291394.9	-63.5786	1.709726E-010	0.0092462	5
	54	80	3.945707	162526.7	-304299.6	1	344982.8	-61.89329	-2.1509E-010	0.0092373	5
	55	83	3.158693	198726.9	-346653.2	1	399575.8	-60.17553	2.157844E-010	0.009244	5
	56	87	2.504006	241422.7	-395423.9	1	463297.9	-58.5942	-1.962277E-010	0.0092399	5
	57	89	1.998082	287036.6	-446009.4	1	530390.8	-57.23604	1.725948E-010	0.0091914	5
	58	93	1.584686	337456.5	-505370.7	1	607681.2	-56.26735	-6.545362E-011	0.0092312	5
	59	96	1.266892	391865.7	-569072	1	690942.6	-55.44851	-7.504905E-012	0.0091991	5
	60	101	0.999041	453572	-647099.9	1	790231.6	-54.97222	1.362486E-010	0.0092821	5
