EXPLAIN
TAG	EISPOT
TITLE	LABEL	Potentiostatic EIS	Test &Identifier
DATE	LABEL	11/9/2019	Date
TIME	LABEL	11:12:23	Time
NOTES	NOTES	2	&Notes...
	
	
PSTAT	PSTAT	REF600-11020	Potentiostat
VDC	POTEN	0.00000E+000	T	DC &Voltage (V)
FREQINIT	QUANT	1.00000E+006	Initial Fre&q. (Hz)
FREQFINAL	QUANT	1.00000E+000	Final Fre&q. (Hz)
PTSPERDEC	QUANT	1.00000E+001	Points/&decade
VAC	QUANT	2.50000E+001	AC &Voltage (mV rms)
AREA	QUANT	1.00000E-002	&Area (cm^2)
CONDIT	TWOPARAM	T	5.00000E+000	0.00000E+000	Conditionin&g	Time(s)	E(V)
DELAY	TWOPARAM	T	5.00000E+000	0.00000E+000	Init. De&lay	Time(s)	Stab.(mV/s)
SPEED	SELECTOR	0	&Optimize for:
ZGUESS	QUANT	1.00000E+005	E&stimated Z (ohms)
OCVCURVE	TABLE	19
	Pt	T	Vf	Vm	Ach	Over
	#	s	V vs. Ref.	V	V	bits
	0	0.258333	9.32159E-003	9.32159E-003	5.80232E-004	...........
	1	0.516667	9.32484E-003	9.49195E-003	5.75199E-004	...........
	2	0.775	9.34528E-003	9.67716E-003	5.73199E-004	...........
	3	1.03333	9.40421E-003	9.83425E-003	5.78332E-004	...........
	4	1.29167	9.51113E-003	1.00002E-002	5.76899E-004	...........
	5	1.55	9.65554E-003	1.01975E-002	5.75966E-004	...........
	6	1.80833	9.81957E-003	1.03051E-002	5.74932E-004	...........
	7	2.06667	9.98931E-003	1.05307E-002	5.69666E-004	...........
	8	2.325	1.01585E-002	1.06843E-002	5.75932E-004	...........
	9	2.58333	1.03291E-002	1.09017E-002	5.72299E-004	...........
	10	2.84167	1.05044E-002	1.10350E-002	5.74665E-004	...........
	11	3.1	1.06837E-002	1.12566E-002	5.76866E-004	...........
	12	3.35833	1.08635E-002	1.13742E-002	5.73399E-004	...........
	13	3.61667	1.10406E-002	1.15774E-002	5.73266E-004	...........
	14	3.875	1.12130E-002	1.16929E-002	5.75799E-004	...........
	15	4.13333	1.13794E-002	1.18665E-002	5.71666E-004	...........
	16	4.39167	1.15393E-002	1.19924E-002	5.80199E-004	...........
	17	4.65	1.16934E-002	1.21585E-002	5.66566E-004	...........
	18	4.90833	1.18439E-002	1.23176E-002	5.79666E-004	...........
EOC	QUANT	0.0118439	Open Circuit (V)
PSTATMODEL	IQUANT	4	Pstat Model
PSTATSECTION	LABEL	REF600-11020	Pstat Section
PSTATSERIALNO	LABEL	11020	Pstat Serial Number
CTRLMODE	IQUANT	1	Control Mode
IESTAB	IQUANT	0	I/E Stability
CASPEED	IQUANT	1	Control Amp Speed
CONVENTION	IQUANT	1	Current Convention
ICHRANGE	IQUANT	2	Ich Range
ICHRANGEMODE	TOGGLE	F	Ich Auto Range
ICHOFFSETENABLE	TOGGLE	T	Ich Offset Enable
ICHOFFSET	QUANT	0	Ich Offset (V)
ICHFILTER	IQUANT	3	Ich Filter
VCHRANGE	IQUANT	2	Vch Range
VCHRANGEMODE	TOGGLE	F	Vch Auto Range
VCHOFFSETENABLE	TOGGLE	T	Vch Offset Enable
VCHOFFSET	QUANT	0	Vch Offset (V)
VCHFILTER	IQUANT	3	Vch Filter
ACHRANGE	IQUANT	2	Ach Range
ACHOFFSETENABLE	TOGGLE	F	Ach Offset Enable
ACHOFFSET	QUANT	0	Ach Offset (V)
ACHFILTER	IQUANT	3	Ach Filter
IERANGELOWERLIMIT	IQUANT	1	I/E Range Lower Limit
IERANGEMODE	TOGGLE	F	I/E AutoRange
IERANGE	IQUANT	5	I/E Range
POSFEEDENABLE	TOGGLE	F	Positive Feedback IR Comp
POSFEEDRESISTANCE	QUANT	0	Positive Feedback Resistance (ohm)
ACHSELECT	IQUANT	0	Ach Select
CABLEID	IQUANT	14	Cable ID
DCCALDATE	LABEL	8/19/2019	DC Calibration Date
ACCALDATE	LABEL	8/19/2019	AC Calibration Date
THERMOSELECT	IQUANT	1	Thermo Select
FRAMEWORKVERSION	QUANT	6.33	Framework Version
INSTRUMENTVERSION	LABEL	3.50	Instrument Version
ZCURVE	TABLE
	Pt	Time	Freq	Zreal	Zimag	Zsig	Zmod	Zphz	Idc	Vdc	IERange
	#	s	Hz	ohm	ohm	V	ohm	°	A	V	#
	0	2	1000078	2174.641	-1463.777	1	2621.395	-33.94498	-6.217748E-006	0.0136816	8
	1	2	794390.6	2494.294	-1396.01	1	2858.382	-29.23492	-5.656936E-008	0.014244	8
	2	2	630984.4	2739.452	-1317.119	1	3039.638	-25.67809	-1.006888E-006	0.0130333	8
	3	3	501234.4	2953.088	-1205.285	1	3189.583	-22.20253	-2.710231E-006	0.0135796	8
	4	3	398109.4	3145.141	-1082.474	1	3326.208	-18.9921	-1.169978E-007	0.0129885	8
	5	3	316265.6	3298.264	-955.064	1	3433.758	-16.1492	-4.662066E-007	0.0138955	8
	6	4	251203.1	3410.52	-868.2993	1	3519.316	-14.28373	2.268011E-006	0.0136782	8
	7	4	199546.9	3512.01	-774.4261	1	3596.38	-12.43518	-5.574997E-006	0.0137547	8
	8	4	158578.1	3594.743	-678.621	1	3658.238	-10.69057	-2.97257E-006	0.0132232	8
	9	5	125953.1	3661.946	-567.003	1	3705.583	-8.801585	-8.050898E-007	0.0172701	7
	10	5	100078.1	3745.88	-537.0636	1	3784.185	-8.159148	9.558592E-007	0.0111268	7
	11	5	79453.13	3795.569	-508.1577	1	3829.435	-7.625518	1.34494E-006	0.0118936	7
	12	6	63140.62	3845.204	-491.9659	1	3876.548	-7.290969	1.338908E-006	0.0114912	7
	13	6	50203.12	3878.969	-483.7457	1	3909.016	-7.108649	-1.505556E-006	0.0146246	7
	14	6	39890.62	3939.415	-492.1479	1	3970.038	-7.121021	1.016522E-006	0.0130211	7
	15	6	31640.63	3996.465	-499.3496	1	4027.54	-7.122073	1.199958E-006	0.011219	7
	16	7	25171.88	4030.45	-522.1468	1	4064.131	-7.381584	-1.515951E-006	0.0150834	7
	17	7	20015.62	4094	-555.2144	1	4131.477	-7.723142	4.823634E-007	0.0139347	7
	18	7	15890.62	4137.753	-591.4498	1	4179.811	-8.134746	-3.763271E-007	0.0122387	7
	19	8	12609.37	4187.747	-641.1331	1	4236.541	-8.704248	-1.28512E-006	0.0139136	7
	20	8	10078.13	4264.347	-704.5081	1	4322.15	-9.381037	-8.942805E-007	0.0130757	7
	21	8	8015.625	4317.085	-793.8566	1	4389.468	-10.41956	-1.514402E-006	0.0150807	7
	22	9	6328.125	4395.827	-893.6052	1	4485.735	-11.49079	-3.532505E-007	0.0149449	7
	23	9	5015.625	4483.261	-1011.079	1	4595.858	-12.70891	1.022775E-006	0.0130127	7
	24	9	3984.375	4535.944	-1154.361	1	4680.528	-14.27822	-1.514054E-006	0.0150777	7
	25	10	3170.956	4634.324	-1345.868	1	4825.797	-16.19399	9.551887E-007	0.0111021	7
	26	10	2527.573	4718.513	-1574.969	1	4974.424	-18.45824	-3.659351E-007	0.0149571	7
	27	10	1976.103	4819.932	-1861.174	1	5166.79	-21.11363	1.355409E-006	0.0118912	7
	28	11	1577.524	4928.281	-2212.5	1	5402.139	-24.17719	1.354107E-006	0.0118869	7
	29	11	1265.625	5052.973	-2624.784	1	5694.034	-27.44977	1.328837E-006	0.0114941	7
	30	11	998.264	5174.015	-3153.876	1	6059.485	-31.36485	-3.71798E-007	0.0122344	7
	31	12	796.875	5316.18	-3774.208	1	6519.694	-35.37274	-1.500154E-006	0.0146084	7
	32	12	627.7902	5520.196	-4618.07	1	7197.162	-39.91508	7.37407E-007	0.0135358	7
	33	12	505.5147	5722.625	-5506.96	1	7941.98	-43.89977	9.075531E-008	0.0144572	7
	34	13	397.9953	5977.331	-6769.989	1	9031.126	-48.5582	2.358199E-010	0.0132996	7
	35	13	315.5048	6288.592	-8265.189	1	10385.55	-52.73421	6.493778E-010	0.0132343	6
	36	13	252.4038	6647.611	-10033.02	1	12035.45	-56.4726	6.952929E-010	0.0132366	6
	37	14	198.6229	7133.981	-12383.13	1	14291.11	-60.05356	4.724465E-010	0.0132318	6
	38	14	158.3615	7722.092	-15105.34	1	16964.72	-62.92315	1.017887E-009	0.0132409	6
	39	14	125.558	8491.804	-18534.86	1	20387.54	-65.38496	7.191303E-010	0.0132368	6
	40	15	100.4464	9399.287	-22539.9	1	24421.17	-67.36354	-1.427089E-009	0.0132362	6
	41	15	79.00281	10688.93	-27752.58	1	29739.85	-68.93577	1.17803E-010	0.0132398	6
	42	15	63.3446	13119.65	-33998.83	1	36442.36	-68.89913	-5.146755E-010	0.0132362	6
	43	16	49.86702	15169.83	-41810.69	1	44477.61	-70.05812	-9.398872E-010	0.0132394	6
	44	16	39.72458	17751.62	-50167.54	1	53215.62	-70.51384	2.40735E-010	0.0132383	6
	45	17	31.6723	21124.98	-60698.83	1	64269.84	-70.81059	5.85645E-010	0.0132404	6
	46	17	24.93351	26917.85	-74091.97	1	78830.14	-70.03375	6.850383E-011	0.0132365	6
	47	17	19.86229	33719.86	-88759.47	1	94948.79	-69.19814	1.079257E-009	0.0132309	6
	48	17	15.83615	40380.13	-107233.5	1	114584.3	-69.36549	1.795164E-009	0.0132373	5
	49	18	12.40079	53194.62	-128547.9	1	139119.5	-67.51965	-8.770196E-010	0.0132393	5
	50	18	9.93114	67473.45	-148415.5	1	163033.2	-65.55225	-1.223954E-009	0.0132427	5
	51	19	7.944915	84914.45	-172917.6	1	192642	-63.84578	-8.455616E-010	0.0132302	5
	52	19	6.317385	104944.9	-200018.6	1	225878	-62.31509	-8.466893E-010	0.0132492	5
	53	20	5.008013	129244.8	-231040	1	264733.3	-60.77716	-9.229693E-010	0.0132312	5
	54	21	3.945707	157494	-264206.8	1	307586.8	-59.20077	-2.992484E-010	0.0132258	5
	55	23	3.158693	186482.4	-298729.4	1	352157.6	-58.02546	-2.492722E-010	0.0132521	5
	56	24	2.504006	220089.6	-340127.1	1	405124.5	-57.09389	-4.900979E-010	0.0132412	5
	57	25	1.998082	254012.4	-385468.5	1	461636.5	-56.61629	-3.879955E-010	0.0132317	5
	58	27	1.584686	293865	-439213.4	1	528455.4	-56.21466	-2.350563E-010	0.0132779	5
	59	29	1.266892	335108.7	-502279.9	1	603807	-56.28977	-2.190431E-010	0.0132697	5
	60	31	0.999041	382741.5	-580714.3	1	695499.9	-56.61162	-2.261948E-010	0.0132534	5
