EXPLAIN
TAG	EISPOT
TITLE	LABEL	Potentiostatic EIS	Test &Identifier
DATE	LABEL	11/27/2019	Date
TIME	LABEL	13:14:07	Time
NOTES	NOTES	3	&Notes...
	
	
	
PSTAT	PSTAT	REF600-11020	Potentiostat
VDC	POTEN	0.00000E+000	T	DC &Voltage (V)
FREQINIT	QUANT	1.00000E+006	Initial Fre&q. (Hz)
FREQFINAL	QUANT	1.00000E+000	Final Fre&q. (Hz)
PTSPERDEC	QUANT	1.00000E+001	Points/&decade
VAC	QUANT	2.50000E+001	AC &Voltage (mV rms)
AREA	QUANT	1.00000E-002	&Area (cm^2)
CONDIT	TWOPARAM	T	5.00000E+000	0.00000E+000	Conditionin&g	Time(s)	E(V)
DELAY	TWOPARAM	T	5.00000E+000	0.00000E+000	Init. De&lay	Time(s)	Stab.(mV/s)
SPEED	SELECTOR	0	&Optimize for:
ZGUESS	QUANT	1.00000E+005	E&stimated Z (ohms)
OCVCURVE	TABLE	19
	Pt	T	Vf	Vm	Ach	Over
	#	s	V vs. Ref.	V	V	bits
	0	0.258333	6.18020E-003	6.18020E-003	5.93899E-004	...........
	1	0.516667	6.17913E-003	6.12390E-003	5.90065E-004	...........
	2	0.775	6.17349E-003	6.12135E-003	5.90665E-004	...........
	3	1.03333	6.16058E-003	6.10814E-003	5.93965E-004	...........
	4	1.29167	6.14342E-003	6.12708E-003	5.84032E-004	...........
	5	1.55	6.12905E-003	6.12495E-003	5.88832E-004	...........
	6	1.80833	6.12251E-003	6.15602E-003	5.91432E-004	...........
	7	2.06667	6.12492E-003	6.16984E-003	5.90899E-004	...........
	8	2.325	6.13537E-003	6.20376E-003	5.92165E-004	...........
	9	2.58333	6.15248E-003	6.23336E-003	5.94899E-004	...........
	10	2.84167	6.17499E-003	6.26218E-003	5.94132E-004	...........
	11	3.1	6.20148E-003	6.29296E-003	5.88965E-004	...........
	12	3.35833	6.23032E-003	6.32371E-003	5.91599E-004	...........
	13	3.61667	6.26036E-003	6.36027E-003	5.89232E-004	...........
	14	3.875	6.29130E-003	6.38832E-003	5.89299E-004	...........
	15	4.13333	6.32311E-003	6.42725E-003	5.92599E-004	...........
	16	4.39167	6.35561E-003	6.45484E-003	5.91599E-004	...........
	17	4.65	6.38856E-003	6.49317E-003	5.87899E-004	...........
	18	4.90833	6.42174E-003	6.52340E-003	5.90865E-004	...........
EOC	QUANT	0.0064217	Open Circuit (V)
PSTATMODEL	IQUANT	4	Pstat Model
PSTATSECTION	LABEL	REF600-11020	Pstat Section
PSTATSERIALNO	LABEL	11020	Pstat Serial Number
CTRLMODE	IQUANT	1	Control Mode
IESTAB	IQUANT	0	I/E Stability
CASPEED	IQUANT	1	Control Amp Speed
CONVENTION	IQUANT	1	Current Convention
ICHRANGE	IQUANT	2	Ich Range
ICHRANGEMODE	TOGGLE	F	Ich Auto Range
ICHOFFSETENABLE	TOGGLE	T	Ich Offset Enable
ICHOFFSET	QUANT	0	Ich Offset (V)
ICHFILTER	IQUANT	3	Ich Filter
VCHRANGE	IQUANT	2	Vch Range
VCHRANGEMODE	TOGGLE	F	Vch Auto Range
VCHOFFSETENABLE	TOGGLE	T	Vch Offset Enable
VCHOFFSET	QUANT	0	Vch Offset (V)
VCHFILTER	IQUANT	3	Vch Filter
ACHRANGE	IQUANT	2	Ach Range
ACHOFFSETENABLE	TOGGLE	F	Ach Offset Enable
ACHOFFSET	QUANT	0	Ach Offset (V)
ACHFILTER	IQUANT	3	Ach Filter
IERANGELOWERLIMIT	IQUANT	1	I/E Range Lower Limit
IERANGEMODE	TOGGLE	F	I/E AutoRange
IERANGE	IQUANT	5	I/E Range
POSFEEDENABLE	TOGGLE	F	Positive Feedback IR Comp
POSFEEDRESISTANCE	QUANT	0	Positive Feedback Resistance (ohm)
ACHSELECT	IQUANT	0	Ach Select
CABLEID	IQUANT	14	Cable ID
DCCALDATE	LABEL	8/19/2019	DC Calibration Date
ACCALDATE	LABEL	8/19/2019	AC Calibration Date
THERMOSELECT	IQUANT	1	Thermo Select
FRAMEWORKVERSION	QUANT	6.33	Framework Version
INSTRUMENTVERSION	LABEL	3.50	Instrument Version
ZCURVE	TABLE
	Pt	Time	Freq	Zreal	Zimag	Zsig	Zmod	Zphz	Idc	Vdc	IERange
	#	s	Hz	ohm	ohm	V	ohm	°	A	V	#
	0	2	1000078	1950.085	-1324.946	1	2357.607	-34.19336	-7.842415E-006	0.0100166	8
	1	2	794390.6	2206.455	-1279.836	1	2550.769	-30.11553	9.931265E-006	0.007094	8
	2	2	630984.4	2433.748	-1195.593	1	2711.563	-26.16286	-2.980728E-006	0.0079851	8
	3	3	501234.4	2627.22	-1099.41	1	2847.979	-22.7078	6.449995E-006	0.0070471	8
	4	3	398109.4	2787.17	-997.865	1	2960.414	-19.69844	5.058966E-006	0.0074308	8
	5	3	316265.6	2915.37	-895.3341	1	3049.755	-17.07215	-6.142319E-007	0.0085396	8
	6	4	251203.1	3031.319	-805.9415	1	3136.629	-14.88888	-3.274995E-006	0.008609	8
	7	4	199546.9	3118.77	-737.5153	1	3204.786	-13.30469	-4.118762E-006	0.0084418	8
	8	4	158578.1	3178.139	-672.9343	1	3248.601	-11.95515	-4.139601E-006	0.0084489	8
	9	5	125953.1	3271.671	-587.5781	1	3324.016	-10.18154	-1.997595E-006	0.0087855	7
	10	5	100078.1	3333.916	-561.9565	1	3380.945	-9.5677	9.768057E-007	0.0070327	7
	11	5	79453.13	3389.992	-552.3112	1	3434.69	-9.253556	6.778041E-007	0.0064776	7
	12	6	63140.62	3443.831	-550.8654	1	3487.61	-9.087882	9.554576E-007	0.0067338	7
	13	6	50203.12	3499.129	-558.4318	1	3543.41	-9.067462	-7.865314E-007	0.0095314	7
	14	6	39890.62	3559.603	-572.559	1	3605.356	-9.137709	-2.881338E-007	0.007306	7
	15	7	31640.63	3622.299	-604.4246	1	3672.381	-9.473218	-2.849255E-007	0.0073084	7
	16	7	25171.88	3685.308	-636.5995	1	3739.887	-9.80055	-1.091632E-006	0.0093493	7
	17	7	20015.62	3751.859	-688.6243	1	3814.531	-10.40043	7.474183E-007	0.0078223	7
	18	7	15890.62	3825.764	-748.2293	1	3898.245	-11.06602	-2.899293E-007	0.0073029	7
	19	8	12609.37	3903.015	-824.2305	1	3989.096	-11.9244	5.575376E-007	0.0081953	7
	20	8	10078.13	3985.921	-906.7861	1	4087.766	-12.8165	7.446648E-007	0.0078179	7
	21	8	8015.625	4069.399	-1016.76	1	4194.498	-14.02843	4.133946E-007	0.0065696	7
	22	9	6328.125	4173.395	-1143.825	1	4327.304	-15.32699	7.792856E-008	0.0088678	7
	23	9	5015.625	4272.008	-1293.482	1	4463.535	-16.84531	-9.663044E-007	0.0094874	7
	24	9	3984.375	4380.339	-1465.396	1	4618.956	-18.49711	8.607634E-007	0.00654	7
	25	10	3170.956	4499.741	-1697.828	1	4809.396	-20.67234	-2.843567E-007	0.0073004	7
	26	10	2527.573	4613.759	-1959.384	1	5012.58	-23.0101	-1.083422E-006	0.0090136	7
	27	10	1976.103	4748.579	-2314.812	1	5282.741	-25.98806	-6.588156E-007	0.0079076	7
	28	11	1577.524	4888.895	-2726.994	1	5598.017	-29.1525	-7.841624E-007	0.0095264	7
	29	11	1265.625	5031.549	-3213.483	1	5970.172	-32.56502	9.062946E-007	0.0073792	7
	30	11	998.264	5205.489	-3863.315	1	6482.462	-36.58139	4.20586E-007	0.0065669	7
	31	12	796.875	5395.356	-4612.528	1	7098.259	-40.52737	3.645959E-007	0.0084805	7
	32	12	627.7902	5613.789	-5591.925	1	7923.651	-44.88821	7.427029E-007	0.0078184	7
	33	12	505.5147	5878.413	-6698.146	1	8911.84	-48.72923	-2.385582E-007	0.0092202	7
	34	13	397.9953	6226.004	-8216.823	1	10309.19	-52.84827	1.669857E-009	0.0080577	7
	35	13	315.5048	6639.773	-10015.63	1	12016.63	-56.45796	1.597156E-009	0.0079951	6
	36	13	252.4038	7124.955	-12127.23	1	14065.37	-59.56503	-3.817633E-010	0.0079923	6
	37	14	198.6229	7776.778	-14907.18	1	16813.76	-62.44986	3.71458E-010	0.0079951	6
	38	14	158.3615	8541.4	-18109.99	1	20023.16	-64.74954	1.297148E-009	0.0079919	6
	39	14	125.558	9526.61	-22138.92	1	24101.62	-66.71728	6.052793E-011	0.0079969	6
	40	15	100.4464	10707.11	-26854.44	1	28910.26	-68.26237	-8.053797E-010	0.0080012	6
	41	15	79.00281	12450.66	-33077.29	1	35342.98	-69.37311	-4.713351E-010	0.0079967	6
	42	15	63.3446	13831.45	-40113.07	1	42430.73	-70.97522	-1.315005E-010	0.0079839	6
	43	16	49.86702	16699.7	-48948.24	1	51718.57	-71.16187	1.21195E-009	0.0079944	6
	44	16	39.72458	20649.75	-59431.62	1	62916.84	-70.84001	4.116531E-010	0.0079917	6
	45	16	31.6723	25228.36	-71870.56	1	76169.86	-70.65765	1.398517E-010	0.0079991	6
	46	17	24.93351	31932.35	-87342.91	1	92997.09	-69.91772	-8.594582E-010	0.0079959	6
	47	17	19.86229	40132.43	-104608.7	1	112042.9	-69.01102	-2.159745E-009	0.0080042	5
	48	17	15.83615	50283.71	-124042.7	1	133847.1	-67.93363	6.950046E-010	0.007993	5
	49	17	12.40079	67915.06	-148913.5	1	163669.5	-65.48367	8.475746E-010	0.0079985	5
	50	18	9.93114	83039.61	-173123.8	1	192009	-64.37509	-1.23128E-009	0.0079943	5
	51	18	7.944915	104041.5	-200030.2	1	225470	-62.51974	-6.165845E-010	0.0080019	5
	52	19	6.317385	131767.9	-229308.2	1	264471.3	-60.11694	-7.197088E-010	0.0080055	5
	53	20	5.008013	163786.8	-262789.2	1	309651.8	-58.06623	-3.872022E-010	0.007999	5
	54	21	3.945707	197243	-297183.5	1	356683.1	-56.42746	-2.626705E-010	0.0079934	5
	55	22	3.158693	234991.6	-330329.1	1	405386.7	-54.57248	1.698286E-010	0.0080014	5
	56	24	2.504006	274943.3	-367176.1	1	458707	-53.17395	-7.818513E-011	0.0079972	5
	57	25	1.998082	315910.4	-408874.5	1	516698.9	-52.3091	-1.836188E-010	0.007954	5
	58	27	1.584686	358126.9	-455910.6	1	579749.4	-51.84966	-4.944268E-011	0.0079916	5
	59	29	1.266892	402465.2	-509703	1	649442.4	-51.70512	2.887367E-011	0.0080179	5
	60	31	0.999041	451933.7	-581431.8	1	736414.9	-52.14289	6.547272E-011	0.0080294	5
