EXPLAIN
TAG	EISPOT
TITLE	LABEL	Potentiostatic EIS	Test &Identifier
DATE	LABEL	10/4/2019	Date
TIME	LABEL	10:31:14	Time
NOTES	NOTES	2	&Notes...
	
	
PSTAT	PSTAT	REF600-11020	Potentiostat
VDC	POTEN	0.00000E+000	T	DC &Voltage (V)
FREQINIT	QUANT	1.00000E+006	Initial Fre&q. (Hz)
FREQFINAL	QUANT	1.00000E+000	Final Fre&q. (Hz)
PTSPERDEC	QUANT	1.00000E+001	Points/&decade
VAC	QUANT	2.50000E+001	AC &Voltage (mV rms)
AREA	QUANT	1.00000E-002	&Area (cm^2)
CONDIT	TWOPARAM	T	5.00000E+000	0.00000E+000	Conditionin&g	Time(s)	E(V)
DELAY	TWOPARAM	T	5.00000E+000	0.00000E+000	Init. De&lay	Time(s)	Stab.(mV/s)
SPEED	SELECTOR	1	&Optimize for:
ZGUESS	QUANT	1.00000E+004	E&stimated Z (ohms)
OCVCURVE	TABLE	19
	Pt	T	Vf	Vm	Ach	Over
	#	s	V vs. Ref.	V	V	bits
	0	0.258333	4.39470E-003	4.39470E-003	5.69932E-004	...........
	1	0.516667	4.39354E-003	4.33440E-003	5.69832E-004	...........
	2	0.775	4.38677E-003	4.29270E-003	5.70632E-004	...........
	3	1.03333	4.36749E-003	4.19605E-003	5.67566E-004	...........
	4	1.29167	4.34842E-003	5.05781E-003	5.64099E-004	...........
	5	1.55	4.38651E-003	5.00404E-003	5.59999E-004	...........
	6	1.80833	4.52456E-003	4.84375E-003	5.60299E-004	...........
	7	2.06667	4.68716E-003	3.80943E-003	5.63999E-004	...........
	8	2.325	4.71567E-003	3.95133E-003	5.59499E-004	...........
	9	2.58333	4.55432E-003	4.38472E-003	5.66299E-004	...........
	10	2.84167	4.34575E-003	4.87487E-003	5.60032E-004	...........
	11	3.1	4.26345E-003	3.89481E-003	5.64032E-004	...........
	12	3.35833	4.28573E-003	3.69762E-003	5.56233E-004	...........
	13	3.61667	4.24929E-003	3.61182E-003	5.65632E-004	...........
	14	3.875	4.09413E-003	4.00767E-003	5.67332E-004	...........
	15	4.13333	3.93244E-003	4.38056E-003	5.64899E-004	...........
	16	4.39167	3.87991E-003	3.45205E-003	5.66799E-004	...........
	17	4.65	3.89365E-003	3.29723E-003	5.69432E-004	...........
	18	4.90833	3.82800E-003	2.83243E-003	5.62566E-004	...........
EOC	QUANT	0.003828	Open Circuit (V)
PSTATMODEL	IQUANT	4	Pstat Model
PSTATSECTION	LABEL	REF600-11020	Pstat Section
PSTATSERIALNO	LABEL	11020	Pstat Serial Number
CTRLMODE	IQUANT	1	Control Mode
IESTAB	IQUANT	0	I/E Stability
CASPEED	IQUANT	1	Control Amp Speed
CONVENTION	IQUANT	1	Current Convention
ICHRANGE	IQUANT	2	Ich Range
ICHRANGEMODE	TOGGLE	F	Ich Auto Range
ICHOFFSETENABLE	TOGGLE	T	Ich Offset Enable
ICHOFFSET	QUANT	0	Ich Offset (V)
ICHFILTER	IQUANT	3	Ich Filter
VCHRANGE	IQUANT	2	Vch Range
VCHRANGEMODE	TOGGLE	F	Vch Auto Range
VCHOFFSETENABLE	TOGGLE	T	Vch Offset Enable
VCHOFFSET	QUANT	0	Vch Offset (V)
VCHFILTER	IQUANT	3	Vch Filter
ACHRANGE	IQUANT	2	Ach Range
ACHOFFSETENABLE	TOGGLE	F	Ach Offset Enable
ACHOFFSET	QUANT	0	Ach Offset (V)
ACHFILTER	IQUANT	3	Ach Filter
IERANGELOWERLIMIT	IQUANT	1	I/E Range Lower Limit
IERANGEMODE	TOGGLE	F	I/E AutoRange
IERANGE	IQUANT	5	I/E Range
POSFEEDENABLE	TOGGLE	F	Positive Feedback IR Comp
POSFEEDRESISTANCE	QUANT	0	Positive Feedback Resistance (ohm)
ACHSELECT	IQUANT	0	Ach Select
CABLEID	IQUANT	14	Cable ID
DCCALDATE	LABEL	8/19/2019	DC Calibration Date
ACCALDATE	LABEL	8/19/2019	AC Calibration Date
THERMOSELECT	IQUANT	1	Thermo Select
FRAMEWORKVERSION	QUANT	6.33	Framework Version
INSTRUMENTVERSION	LABEL	3.50	Instrument Version
ZCURVE	TABLE
	Pt	Time	Freq	Zreal	Zimag	Zsig	Zmod	Zphz	Idc	Vdc	IERange
	#	s	Hz	ohm	ohm	V	ohm	°	A	V	#
	0	1	1000078	2499.017	-1155.995	1	2753.437	-24.82431	-3.165502E-006	0.0064065	8
	1	2	794390.6	2696.067	-1044.676	1	2891.388	-21.18043	1.841629E-006	0.0053877	8
	2	4	630984.4	2851.351	-929.1964	1	2998.935	-18.04972	3.151455E-006	0.0048963	8
	3	5	501234.4	2970.354	-811.9807	1	3079.337	-15.28894	-9.17999E-007	0.00545	8
	4	6	398109.4	3053.678	-693.0682	1	3131.34	-12.78732	-3.441084E-007	0.0054001	8
	5	8	316265.6	3132.224	-612.1562	1	3191.483	-11.05839	-1.291656E-006	0.0055701	8
	6	9	251203.1	3181.62	-541.3832	1	3227.352	-9.65693	-2.882798E-007	0.005237	8
	7	10	199546.9	3245.396	-473.6518	1	3279.778	-8.303452	3.016174E-006	0.0048398	8
	8	12	158578.1	3266.787	-438.0894	1	3296.031	-7.638027	5.304361E-007	0.005298	8
	9	13	125953.1	3323.898	-381.9123	1	3345.767	-6.554481	3.987629E-007	0.0049724	7
	10	14	100078.1	3353.405	-354.8077	1	3372.123	-6.03972	-3.496807E-008	0.0053782	7
	11	16	79453.13	3386.737	-353.42	1	3405.127	-5.957489	-7.25024E-009	0.0052899	7
	12	17	63140.62	3422.858	-354.7066	1	3441.188	-5.916374	-3.488836E-008	0.0053652	7
	13	19	50203.12	3460.682	-360.8828	1	3479.448	-5.953334	6.397198E-008	0.0051569	7
	14	20	39890.62	3500.088	-371.5282	1	3519.751	-6.059157	6.447986E-008	0.0051532	7
	15	21	31640.63	3541.727	-386.8454	1	3562.791	-6.233426	-4.414899E-008	0.005368	7
	16	23	25171.88	3584.114	-407.6454	1	3607.221	-6.488751	-5.238919E-008	0.0053555	7
	17	24	20015.62	3628.676	-437.1699	1	3654.915	-6.869681	6.681383E-009	0.005356	7
	18	25	15890.62	3672.592	-468.1259	1	3702.307	-7.26402	5.211551E-010	0.0052626	7
	19	27	12609.37	3720.359	-510.5923	1	3755.233	-7.814611	1.297285E-008	0.0052239	7
	20	28	10078.13	3766.872	-561.3052	1	3808.463	-8.475337	4.687437E-008	0.0052111	7
	21	29	8015.625	3815.124	-620.2771	1	3865.219	-9.23456	-2.481668E-008	0.0052873	7
	22	31	6328.125	3871.554	-707.0162	1	3935.582	-10.34921	3.227392E-008	0.005243	7
	23	32	5015.625	3928.552	-806.3617	1	4010.454	-11.59924	-2.810776E-008	0.0052843	7
	24	33	3984.375	3987.764	-926.9167	1	4094.073	-13.08548	3.304849E-010	0.0052559	7
	25	35	3170.956	4050.009	-1075.181	1	4190.297	-14.86772	-5.809932E-008	0.0054531	7
	26	36	2527.573	4117.407	-1256.308	1	4304.806	-16.96805	-2.82687E-008	0.0052929	7
	27	37	1976.103	4194.927	-1499.394	1	4454.84	-19.66843	1.361824E-008	0.0052144	7
	28	39	1577.524	4272.827	-1776.435	1	4627.394	-22.57517	7.159959E-008	0.0052214	7
	29	40	1265.625	4359.456	-2110.041	1	4843.255	-25.82766	-9.911515E-009	0.005304	7
	30	41	998.264	4463.71	-2554.547	1	5142.998	-29.78217	-5.307573E-008	0.0054427	7
	31	43	796.875	4579.181	-3078.481	1	5517.785	-33.91206	-2.452689E-009	0.0052808	7
	32	44	627.7902	4724.462	-3759.497	1	6037.745	-38.51107	-9.554191E-009	0.0052507	7
	33	45	505.5147	4884.984	-4524.015	1	6658.062	-42.80297	6.812308E-009	0.0053466	7
	34	47	397.9953	5100.614	-5560.116	1	7545.274	-47.46805	4.540413E-009	0.0053034	7
	35	48	315.5048	5362.512	-6803.922	1	8663.134	-51.75659	5.356438E-009	0.0053054	7
	36	50	252.4038	5678.278	-8267.894	1	10030	-55.51925	5.313739E-009	0.0053032	7
	37	51	198.6229	6110.864	-10195.96	1	11886.98	-59.06399	1.193598E-009	0.0052417	6
	38	52	158.3615	6634.786	-12430.07	1	14089.96	-61.90807	1.214794E-009	0.0052377	6
	39	54	125.558	7325.954	-15227.52	1	16898.13	-64.30781	-1.845579E-011	0.0052461	6
	40	55	100.4464	8188.153	-18483.82	1	20216.26	-66.10712	2.443425E-010	0.005243	6
	41	56	79.00281	9403.391	-22771.24	1	24636.42	-67.56181	-3.343172E-010	0.0052402	6
	42	58	63.3446	10954.99	-27530.37	1	29629.94	-68.30122	9.108188E-010	0.0052402	6
	43	59	49.86702	12935.23	-33740.32	1	36134.88	-69.02437	1.399402E-010	0.0052357	6
	44	61	39.72458	15595.5	-40702.37	1	43587.87	-69.03519	5.528807E-010	0.0052439	6
	45	62	31.6723	19027.02	-48996.75	1	52561.48	-68.77721	1.142635E-009	0.0052396	6
	46	63	24.93351	23829.17	-59207.03	1	63822.43	-68.0766	1.266177E-009	0.0052447	6
	47	65	19.86229	29672.69	-70494.76	1	76485.16	-67.17278	-6.385721E-011	0.0052468	6
	48	66	15.83615	37152.27	-83387.98	1	91289.9	-65.98535	1.018741E-009	0.0052461	6
	49	67	12.40079	47421.04	-98927.8	1	109706.3	-64.38927	-6.238022E-010	0.0052507	5
	50	69	9.93114	58389.83	-114344.4	1	128390.1	-62.94893	-1.615624E-010	0.005253	5
	51	70	7.944915	71471	-131171	1	149378.5	-61.41541	1.715439E-009	0.0052517	5
	52	72	6.317385	86729.49	-150337.9	1	173561.2	-60.01949	2.607995E-010	0.0052533	5
	53	74	5.008013	104335.4	-171728.2	1	200938.9	-58.71877	-1.270133E-010	0.0052419	5
	54	76	3.945707	123713.6	-195969.6	1	231752.3	-57.73622	4.896438E-010	0.0052579	5
	55	79	3.158693	143131.1	-222153.4	1	264270.1	-57.20674	-7.194757E-011	0.0052346	5
	56	82	2.504006	164371.9	-253209	1	301882.3	-57.01019	7.787871E-010	0.0052452	5
	57	85	1.998082	187332.6	-290131.5	1	345354.6	-57.15041	9.499085E-011	0.0052861	5
	58	88	1.584686	211530.9	-334335.3	1	395632.9	-57.67883	2.413929E-010	0.0052464	5
	59	91	1.266892	239502.4	-387222.5	1	455305.1	-58.26265	1.250889E-010	0.0052914	5
	60	96	0.999041	272825.1	-449834	1	526102.8	-58.76312	3.208974E-010	0.0052089	5
