EXPLAIN
TAG	EISPOT
TITLE	LABEL	Potentiostatic EIS	Test &Identifier
DATE	LABEL	11/7/2019	Date
TIME	LABEL	11:18:45	Time
NOTES	NOTES	2	&Notes...
	
	
PSTAT	PSTAT	REF600-11020	Potentiostat
VDC	POTEN	0.00000E+000	T	DC &Voltage (V)
FREQINIT	QUANT	1.00000E+006	Initial Fre&q. (Hz)
FREQFINAL	QUANT	1.00000E+000	Final Fre&q. (Hz)
PTSPERDEC	QUANT	1.00000E+001	Points/&decade
VAC	QUANT	2.50000E+001	AC &Voltage (mV rms)
AREA	QUANT	1.00000E-002	&Area (cm^2)
CONDIT	TWOPARAM	T	5.00000E+000	0.00000E+000	Conditionin&g	Time(s)	E(V)
DELAY	TWOPARAM	T	5.00000E+000	0.00000E+000	Init. De&lay	Time(s)	Stab.(mV/s)
SPEED	SELECTOR	1	&Optimize for:
ZGUESS	QUANT	1.00000E+005	E&stimated Z (ohms)
OCVCURVE	TABLE	19
	Pt	T	Vf	Vm	Ach	Over
	#	s	V vs. Ref.	V	V	bits
	0	0.258333	5.23909E-003	5.23909E-003	5.78266E-004	...........
	1	0.516667	5.23203E-003	4.86998E-003	5.72432E-004	...........
	2	0.775	5.18958E-003	4.56411E-003	5.77332E-004	...........
	3	1.03333	5.07273E-003	4.29519E-003	5.75732E-004	...........
	4	1.29167	4.87161E-003	4.06175E-003	5.73299E-004	...........
	5	1.55	4.61777E-003	3.85816E-003	5.69832E-004	...........
	6	1.80833	4.35460E-003	3.67947E-003	5.72232E-004	...........
	7	2.06667	4.11053E-003	3.51950E-003	5.77466E-004	...........
	8	2.325	3.89537E-003	3.37460E-003	5.81599E-004	...........
	9	2.58333	3.70779E-003	3.24603E-003	5.79066E-004	...........
	10	2.84167	3.54274E-003	3.12044E-003	5.79499E-004	...........
	11	3.1	3.39525E-003	3.01469E-003	5.74732E-004	...........
	12	3.35833	3.26162E-003	2.91050E-003	5.75832E-004	...........
	13	3.61667	3.13967E-003	2.82056E-003	5.74999E-004	...........
	14	3.875	3.02801E-003	2.72950E-003	5.74165E-004	...........
	15	4.13333	2.92533E-003	2.65017E-003	5.83265E-004	...........
	16	4.39167	2.83039E-003	2.57545E-003	5.74032E-004	...........
	17	4.65	2.74233E-003	2.50584E-003	5.72566E-004	...........
	18	4.90833	2.66033E-003	2.42134E-003	5.79266E-004	...........
EOC	QUANT	0.0026603	Open Circuit (V)
PSTATMODEL	IQUANT	4	Pstat Model
PSTATSECTION	LABEL	REF600-11020	Pstat Section
PSTATSERIALNO	LABEL	11020	Pstat Serial Number
CTRLMODE	IQUANT	1	Control Mode
IESTAB	IQUANT	0	I/E Stability
CASPEED	IQUANT	1	Control Amp Speed
CONVENTION	IQUANT	1	Current Convention
ICHRANGE	IQUANT	2	Ich Range
ICHRANGEMODE	TOGGLE	F	Ich Auto Range
ICHOFFSETENABLE	TOGGLE	T	Ich Offset Enable
ICHOFFSET	QUANT	0	Ich Offset (V)
ICHFILTER	IQUANT	3	Ich Filter
VCHRANGE	IQUANT	2	Vch Range
VCHRANGEMODE	TOGGLE	F	Vch Auto Range
VCHOFFSETENABLE	TOGGLE	T	Vch Offset Enable
VCHOFFSET	QUANT	0	Vch Offset (V)
VCHFILTER	IQUANT	3	Vch Filter
ACHRANGE	IQUANT	2	Ach Range
ACHOFFSETENABLE	TOGGLE	F	Ach Offset Enable
ACHOFFSET	QUANT	0	Ach Offset (V)
ACHFILTER	IQUANT	3	Ach Filter
IERANGELOWERLIMIT	IQUANT	1	I/E Range Lower Limit
IERANGEMODE	TOGGLE	F	I/E AutoRange
IERANGE	IQUANT	4	I/E Range
POSFEEDENABLE	TOGGLE	F	Positive Feedback IR Comp
POSFEEDRESISTANCE	QUANT	0	Positive Feedback Resistance (ohm)
ACHSELECT	IQUANT	0	Ach Select
CABLEID	IQUANT	14	Cable ID
DCCALDATE	LABEL	8/19/2019	DC Calibration Date
ACCALDATE	LABEL	8/19/2019	AC Calibration Date
THERMOSELECT	IQUANT	1	Thermo Select
FRAMEWORKVERSION	QUANT	6.33	Framework Version
INSTRUMENTVERSION	LABEL	3.50	Instrument Version
ZCURVE	TABLE
	Pt	Time	Freq	Zreal	Zimag	Zsig	Zmod	Zphz	Idc	Vdc	IERange
	#	s	Hz	ohm	ohm	V	ohm	°	A	V	#
	0	2	1000078	2394.92	-1935.757	1	3079.415	-38.94778	-2.383917E-006	0.0056782	8
	1	4	794390.6	2790.223	-1911.521	1	3382.197	-34.4142	-2.204822E-006	0.0048217	8
	2	5	630984.4	3164.306	-1833.452	1	3657.1	-30.08873	-6.711934E-007	0.0050576	8
	3	7	501234.4	3471.664	-1715.613	1	3872.438	-26.29748	7.528413E-006	0.0034775	8
	4	8	398109.4	3771.793	-1573.369	1	4086.797	-22.64301	6.398128E-006	0.0034615	8
	5	10	316265.6	3994.5	-1427.927	1	4242.052	-19.67061	-1.163749E-006	0.0039581	8
	6	12	251203.1	4178.299	-1278.311	1	4369.469	-17.011	-5.258271E-008	0.0039405	8
	7	13	199546.9	4321.89	-1141.407	1	4470.072	-14.79398	7.973207E-007	0.0047281	8
	8	15	158578.1	4421.397	-978.052	1	4528.282	-12.47346	-9.729554E-007	0.0047707	8
	9	16	125953.1	4590.781	-872.6263	1	4672.981	-10.76252	-4.696892E-007	0.0017777	7
	10	18	100078.1	4675.752	-857.1285	1	4753.665	-10.38776	-1.468885E-006	0.005997	7
	11	19	79453.13	4746.136	-795.5816	1	4812.355	-9.51586	4.575788E-007	0.0049017	7
	12	20	63140.62	4826.61	-782.3934	1	4889.612	-9.207555	9.993104E-007	0.0039928	7
	13	22	50203.12	4903.815	-780.2354	1	4965.498	-9.040429	-3.67815E-007	0.003219	7
	14	23	39890.62	4978.043	-800.516	1	5041.998	-9.135487	-1.252581E-006	0.0048567	7
	15	24	31640.63	5060.611	-829.7147	1	5128.178	-9.311112	-1.25176E-006	0.0048545	7
	16	26	25171.88	5143.254	-879.7764	1	5217.957	-9.70675	-1.459217E-006	0.0055352	7
	17	27	20015.62	5238.998	-947.4817	1	5323.985	-10.25123	7.332085E-007	0.0044987	7
	18	28	15890.62	5340.753	-1035.496	1	5440.211	-10.9727	5.894732E-007	0.0022243	7
	19	30	12609.37	5448.624	-1141.096	1	5566.831	-11.8284	1.328466E-006	0.0028722	7
	20	31	10078.13	5582.37	-1238.405	1	5718.085	-12.50806	5.882325E-007	0.0022241	7
	21	32	8015.625	5696.488	-1399.684	1	5865.926	-13.80467	-1.074985E-006	0.0062651	7
	22	34	6328.125	5857.599	-1575.351	1	6065.739	-15.05303	-8.721181E-007	0.0040455	7
	23	35	5015.625	6028.96	-1772.886	1	6284.226	-16.38659	-1.251346E-006	0.0048601	7
	24	37	3984.375	6231.578	-2015.203	1	6549.321	-17.92047	1.328035E-006	0.0028831	7
	25	38	3170.956	6443.644	-2269.155	1	6831.516	-19.39992	1.326391E-006	0.002876	7
	26	40	2527.573	6674.399	-2563.865	1	7149.896	-21.01349	-1.314821E-006	0.0061871	7
	27	41	1976.103	6976.6	-2939.542	1	7570.591	-22.84779	-8.79531E-007	0.0040419	7
	28	42	1577.524	7203.416	-3320.607	1	7931.937	-24.7486	-7.454681E-007	0.0061641	7
	29	44	1265.625	7568.429	-3776.03	1	8458.104	-26.51546	-1.259385E-006	0.0048562	7
	30	45	998.264	7931.119	-4321.617	1	9032.11	-28.58569	-7.443505E-007	0.0061663	7
	31	47	796.875	8276.841	-4950.956	1	9644.59	-30.88659	-3.456137E-007	0.0058692	7
	32	48	627.7902	8691.359	-5744.245	1	10418.06	-33.46129	2.114771E-007	0.001211	6
	33	50	505.5147	9067.846	-6613.435	1	11223.34	-36.10432	1.457361E-007	0.0042363	6
	34	51	397.9953	9501.68	-7787.031	1	12284.94	-39.33609	1.34141E-010	0.0042011	6
	35	52	315.5048	9949.42	-9211.422	1	13558.81	-42.79429	9.277318E-010	0.0042125	6
	36	54	252.4038	10407.7	-10909.93	1	15078.02	-46.3496	9.981103E-010	0.004211	6
	37	55	198.6229	10960.96	-13183.86	1	17145.17	-50.26012	1.038341E-009	0.0042085	6
	38	56	158.3615	11570.21	-15875.35	1	19644.25	-53.91483	1.361451E-009	0.0042019	6
	39	58	125.558	12307.1	-19278.68	1	22872.09	-57.4467	1.306695E-009	0.0042029	6
	40	59	100.4464	13229.6	-23312.71	1	26804.94	-60.42578	1.523342E-010	0.0042102	6
	41	61	79.00281	14345.4	-28666.28	1	32055.36	-63.41536	-5.861943E-010	0.0042065	6
	42	62	63.3446	15406.69	-34611.23	1	37885.4	-66.00445	9.589478E-010	0.004205	6
	43	63	49.86702	18184.85	-42687.68	1	46399.64	-66.92611	-3.890318E-010	0.0042045	6
	44	65	39.72458	20484.87	-52195.86	1	56071.72	-68.5719	-1.680186E-012	0.0042088	6
	45	66	31.6723	23625.64	-63430.16	1	67687.2	-69.5713	6.593497E-011	0.0042006	6
	46	68	24.93351	28195.35	-77532.61	1	82500.2	-70.0158	2.499328E-010	0.0042011	6
	47	69	19.86229	34020.66	-93691	1	99676.5	-70.04325	4.275326E-010	0.0042049	6
	48	70	15.83615	39167.1	-112451.6	1	119077.4	-70.79668	-1.799617E-009	0.0042031	5
	49	72	12.40079	50898.07	-135422.2	1	144671.3	-69.40141	1.548878E-009	0.0042088	5
	50	73	9.93114	61873.56	-162620.5	1	173993.6	-69.16927	7.197705E-010	0.0042057	5
	51	75	7.944915	74773.91	-192699.5	1	206698.4	-68.79206	-6.282679E-010	0.0042157	5
	52	76	6.317385	92767.21	-230156.4	1	248148.6	-68.04752	2.919229E-011	0.0041914	5
	53	78	5.008013	114372.4	-273310.7	1	296276.5	-67.29214	-1.174993E-012	0.0042149	5
	54	81	3.945707	140629.9	-324721.9	1	353865.9	-66.58363	1.855297E-010	0.0042025	5
	55	84	3.158693	170036.1	-380198.6	1	416489.2	-65.90438	2.691734E-011	0.0041891	5
	56	87	2.504006	206357.7	-447492.3	1	492780.7	-65.24356	2.722681E-010	0.0042233	5
	57	90	1.998082	247302.6	-522790.7	1	578332.6	-64.68382	2.474602E-010	0.0042283	5
	58	93	1.584686	298583.5	-612207.4	1	681138.8	-64.00076	1.271901E-010	0.0041718	5
	59	96	1.266892	353302	-713874.3	1	796516.6	-63.66883	2.162928E-010	0.0042249	5
	60	101	0.999041	424976.6	-841582.1	1	942796.6	-63.20744	-1.3245E-011	0.0041845	5
