EXPLAIN
TAG	EISPOT
TITLE	LABEL	Potentiostatic EIS	Test &Identifier
DATE	LABEL	10/10/2019	Date
TIME	LABEL	8:16:00	Time
NOTES	NOTES	1	&Notes...
	
PSTAT	PSTAT	REF600-11020	Potentiostat
VDC	POTEN	0.00000E+000	T	DC &Voltage (V)
FREQINIT	QUANT	1.00000E+006	Initial Fre&q. (Hz)
FREQFINAL	QUANT	1.00000E+000	Final Fre&q. (Hz)
PTSPERDEC	QUANT	1.00000E+001	Points/&decade
VAC	QUANT	2.50000E+001	AC &Voltage (mV rms)
AREA	QUANT	1.00000E-002	&Area (cm^2)
CONDIT	TWOPARAM	T	5.00000E+000	0.00000E+000	Conditionin&g	Time(s)	E(V)
DELAY	TWOPARAM	T	5.00000E+000	0.00000E+000	Init. De&lay	Time(s)	Stab.(mV/s)
SPEED	SELECTOR	1	&Optimize for:
ZGUESS	QUANT	1.00000E+004	E&stimated Z (ohms)
OCVCURVE	TABLE	19
	Pt	T	Vf	Vm	Ach	Over
	#	s	V vs. Ref.	V	V	bits
	0	0.258333	7.32084E-003	7.32084E-003	5.60832E-004	...........
	1	0.516667	7.31606E-003	7.07081E-003	5.57666E-004	...........
	2	0.775	7.29168E-003	7.09286E-003	5.56432E-004	...........
	3	1.03333	7.24082E-003	7.20144E-003	5.53799E-004	...........
	4	1.29167	7.18600E-003	7.14971E-003	5.57199E-004	...........
	5	1.55	7.15553E-003	7.17569E-003	5.56199E-004	...........
	6	1.80833	7.15250E-003	7.23729E-003	5.54633E-004	...........
	7	2.06667	7.16711E-003	7.29564E-003	5.52066E-004	...........
	8	2.325	7.19590E-003	7.35193E-003	5.61266E-004	...........
	9	2.58333	7.24008E-003	7.51177E-003	5.54766E-004	...........
	10	2.84167	7.29843E-003	7.38268E-003	5.59199E-004	...........
	11	3.1	7.35986E-003	7.48973E-003	5.60866E-004	...........
	12	3.35833	7.41013E-003	7.55690E-003	5.61732E-004	...........
	13	3.61667	7.45147E-003	7.63859E-003	5.56533E-004	...........
	14	3.875	7.49826E-003	7.69509E-003	5.59432E-004	...........
	15	4.13333	7.55648E-003	7.74820E-003	5.53899E-004	...........
	16	4.39167	7.62036E-003	7.78701E-003	5.54933E-004	...........
	17	4.65	7.68137E-003	7.81673E-003	5.57766E-004	...........
	18	4.90833	7.73746E-003	8.02249E-003	5.51599E-004	...........
EOC	QUANT	0.0077375	Open Circuit (V)
PSTATMODEL	IQUANT	4	Pstat Model
PSTATSECTION	LABEL	REF600-11020	Pstat Section
PSTATSERIALNO	LABEL	11020	Pstat Serial Number
CTRLMODE	IQUANT	1	Control Mode
IESTAB	IQUANT	0	I/E Stability
CASPEED	IQUANT	1	Control Amp Speed
CONVENTION	IQUANT	1	Current Convention
ICHRANGE	IQUANT	2	Ich Range
ICHRANGEMODE	TOGGLE	F	Ich Auto Range
ICHOFFSETENABLE	TOGGLE	T	Ich Offset Enable
ICHOFFSET	QUANT	0	Ich Offset (V)
ICHFILTER	IQUANT	3	Ich Filter
VCHRANGE	IQUANT	2	Vch Range
VCHRANGEMODE	TOGGLE	F	Vch Auto Range
VCHOFFSETENABLE	TOGGLE	T	Vch Offset Enable
VCHOFFSET	QUANT	0	Vch Offset (V)
VCHFILTER	IQUANT	3	Vch Filter
ACHRANGE	IQUANT	2	Ach Range
ACHOFFSETENABLE	TOGGLE	F	Ach Offset Enable
ACHOFFSET	QUANT	0	Ach Offset (V)
ACHFILTER	IQUANT	3	Ach Filter
IERANGELOWERLIMIT	IQUANT	1	I/E Range Lower Limit
IERANGEMODE	TOGGLE	F	I/E AutoRange
IERANGE	IQUANT	6	I/E Range
POSFEEDENABLE	TOGGLE	F	Positive Feedback IR Comp
POSFEEDRESISTANCE	QUANT	0	Positive Feedback Resistance (ohm)
ACHSELECT	IQUANT	0	Ach Select
CABLEID	IQUANT	14	Cable ID
DCCALDATE	LABEL	8/19/2019	DC Calibration Date
ACCALDATE	LABEL	8/19/2019	AC Calibration Date
THERMOSELECT	IQUANT	1	Thermo Select
FRAMEWORKVERSION	QUANT	6.33	Framework Version
INSTRUMENTVERSION	LABEL	3.50	Instrument Version
ZCURVE	TABLE
	Pt	Time	Freq	Zreal	Zimag	Zsig	Zmod	Zphz	Idc	Vdc	IERange
	#	s	Hz	ohm	ohm	V	ohm	°	A	V	#
	0	1	1000078	2308.568	-1206.096	1	2604.641	-27.58452	-3.471653E-006	0.010574	8
	1	3	794390.6	2521.813	-1105.237	1	2753.377	-23.66644	-2.67405E-006	0.0105517	8
	2	4	630984.4	2705.691	-981.826	1	2878.323	-19.94455	-1.001042E-006	0.0099308	8
	3	5	501234.4	2845.609	-862.3801	1	2973.414	-16.85977	-4.30048E-007	0.0094745	8
	4	7	398109.4	2941.898	-744.4247	1	3034.622	-14.20018	-5.210749E-007	0.0094111	8
	5	8	316265.6	3024.449	-632.9123	1	3089.963	-11.81946	1.684932E-006	0.0090332	8
	6	10	251203.1	3081.509	-552.1002	1	3130.577	-10.15766	-1.79696E-006	0.0096568	8
	7	11	199546.9	3136.009	-478.6597	1	3172.328	-8.678272	-3.026733E-007	0.0093554	8
	8	12	158578.1	3162.281	-414.5785	1	3189.341	-7.468944	3.818997E-006	0.0087132	8
	9	14	125953.1	3216.021	-341.6821	1	3234.121	-6.064568	1.296633E-006	0.0067404	7
	10	15	100078.1	3238.621	-318.9029	1	3254.284	-5.623713	1.439647E-008	0.0094011	7
	11	16	79453.13	3265.482	-310.6467	1	3280.224	-5.434219	9.195791E-009	0.0092329	7
	12	18	63140.62	3290.704	-306.9621	1	3304.99	-5.329219	-3.150041E-008	0.009307	7
	13	19	50203.12	3318.458	-310.7772	1	3332.979	-5.350206	9.593261E-008	0.0092255	7
	14	21	39890.62	3348.907	-318.6104	1	3364.029	-5.434683	-7.318419E-008	0.0095259	7
	15	22	31640.63	3380.379	-337.7655	1	3397.211	-5.706022	4.608986E-008	0.0091607	7
	16	23	25171.88	3414.803	-361.0828	1	3433.841	-6.036052	-4.109859E-008	0.0093017	7
	17	25	20015.62	3453.16	-392.1525	1	3475.356	-6.478945	-5.995894E-008	0.0094074	7
	18	26	15890.62	3493.29	-429.2941	1	3519.569	-7.006011	-7.182621E-008	0.0093978	7
	19	27	12609.37	3538.151	-475.0007	1	3569.894	-7.646303	-1.355106E-008	0.0092668	7
	20	29	10078.13	3586.527	-528.1932	1	3625.212	-8.377813	-5.968703E-008	0.0094128	7
	21	30	8015.625	3640.912	-591.2794	1	3688.611	-9.224232	1.562168E-008	0.0093957	7
	22	31	6328.125	3702.17	-669.5243	1	3762.224	-10.25094	-1.596859E-008	0.0093323	7
	23	33	5015.625	3768.223	-760.8141	1	3844.261	-11.41471	6.200139E-008	0.009198	7
	24	34	3984.375	3848.798	-869.0099	1	3945.684	-12.72331	1.321978E-008	0.0093931	7
	25	36	3170.956	3917.93	-991.69	1	4041.488	-14.20414	1.307753E-008	0.0092195	7
	26	37	2527.573	4002.501	-1138.217	1	4161.196	-15.8745	4.517099E-008	0.0091642	7
	27	38	1976.103	4104.572	-1326.994	1	4313.749	-17.91584	-1.336981E-008	0.0092589	7
	28	40	1577.524	4204.679	-1543.473	1	4479.021	-20.15741	1.226878E-007	0.0091177	7
	29	41	1265.625	4304.794	-1783.755	1	4659.725	-22.5074	4.49147E-008	0.0091593	7
	30	42	998.264	4420.199	-2107.173	1	4896.768	-25.48782	1.477379E-008	0.0093838	7
	31	44	796.875	4538.058	-2480.7	1	5171.832	-28.66294	-8.95515E-009	0.0093422	7
	32	45	627.7902	4667.097	-2971.447	1	5532.747	-32.48409	-4.304313E-008	0.0094045	7
	33	47	505.5147	4794.565	-3524.826	1	5950.82	-36.32225	-6.984627E-008	0.0095184	7
	34	48	397.9953	4952.541	-4280.118	1	6545.768	-40.83445	3.833562E-009	0.009317	7
	35	49	315.5048	5122.849	-5202.293	1	7301.194	-45.44084	4.472127E-009	0.0093157	7
	36	51	252.4038	5316.116	-6301.696	1	8244.541	-49.849	4.152073E-009	0.0093099	7
	37	52	198.6229	5565.846	-7770.235	1	9557.99	-54.38585	4.60662E-009	0.0093161	7
	38	53	158.3615	5860.125	-9495.834	1	11158.49	-58.32019	1.39624E-009	0.0092494	6
	39	55	125.558	6232.562	-11681.43	1	13240.11	-61.91809	7.61493E-010	0.0092472	6
	40	56	100.4464	6686.11	-14261.76	1	15751.25	-64.88217	1.221484E-009	0.0092479	6
	41	58	79.00281	7357.738	-17695.57	1	19164.28	-67.42268	3.35056E-010	0.0092443	6
	42	59	63.3446	8127.212	-21712.27	1	23183.49	-69.47841	7.80833E-010	0.0092448	6
	43	60	49.86702	9035.381	-26683.19	1	28171.45	-71.29302	-3.355131E-010	0.00924	6
	44	62	39.72458	10445.96	-32699.94	1	34327.89	-72.28398	7.140347E-010	0.0092474	6
	45	63	31.6723	12241.81	-40006.95	1	41838	-72.98631	7.256148E-010	0.0092475	6
	46	65	24.93351	14538.94	-49315.85	1	51414.33	-73.57381	1.450957E-010	0.0092432	6
	47	66	19.86229	17492.47	-60164.57	1	62655.91	-73.78854	7.341562E-010	0.0092461	6
	48	67	15.83615	21088.7	-72963.23	1	75949.77	-73.87902	1.00659E-009	0.0092442	6
	49	69	12.40079	26464.94	-90401	1	94195.19	-73.68259	1.711629E-009	0.0092489	6
	50	70	9.93114	32661.79	-108157.2	1	112981.3	-73.1965	2.621543E-010	0.0092589	5
	51	72	7.944915	41042.53	-129945.9	1	136273.4	-72.47164	4.099548E-010	0.0092542	5
	52	73	6.317385	51246.91	-156295	1	164482.2	-71.84642	-4.723383E-011	0.0092455	5
	53	76	5.008013	64607.23	-188038.3	1	198827.8	-71.03802	-5.4141E-011	0.0092512	5
	54	78	3.945707	81836.92	-226196.4	1	240545.4	-70.11008	-3.157263E-011	0.0092514	5
	55	81	3.158693	102138	-267770.3	1	286588.8	-69.12122	2.275565E-010	0.0092535	5
	56	84	2.504006	127725	-317651.9	1	342368.8	-68.09538	2.168729E-011	0.0092646	5
	57	87	1.998082	157951.9	-372997.7	1	405063	-67.04899	2.802445E-010	0.0092213	5
	58	90	1.584686	194846.9	-440018.8	1	481229.6	-66.11552	-1.157673E-011	0.0092304	5
	59	94	1.266892	239067.3	-513225.1	1	566174.2	-65.02325	1.404857E-010	0.0092114	5
	60	98	0.999041	293683	-602646.6	1	670397.3	-64.019	3.429579E-011	0.009297	5
