EXPLAIN
TAG	EISPOT
TITLE	LABEL	Potentiostatic IDE	Test &Identifier
DATE	LABEL	9/8/2019	Date
TIME	LABEL	9:52:47	Time
NOTES	NOTES	1	&Notes...
	
PSTAT	PSTAT	REF600-11020	Potentiostat
VDC	POTEN	0.00000E+000	T	DC &Voltage (V)
FREQINIT	QUANT	1.00000E+006	Initial Fre&q. (Hz)
FREQFINAL	QUANT	1.00000E+000	Final Fre&q. (Hz)
PTSPERDEC	QUANT	1.00000E+001	Points/&decade
VAC	QUANT	2.50000E+001	AC &Voltage (mV rms)
AREA	QUANT	1.00000E-002	&Area (cm^2)
CONDIT	TWOPARAM	T	5.00000E+000	0.00000E+000	Conditionin&g	Time(s)	E(V)
DELAY	TWOPARAM	T	5.00000E+000	0.00000E+000	Init. De&lay	Time(s)	Stab.(mV/s)
SPEED	SELECTOR	1	&Optimize for:
ZGUESS	QUANT	1.00000E+007	E&stimated Z (ohms)
OCVCURVE	TABLE	19
	Pt	T	Vf	Vm	Ach	Over
	#	s	V vs. Ref.	V	V	bits
	0	0.258333	5.87619E-003	5.87619E-003	5.50266E-004	...........
	1	0.516667	5.87343E-003	5.73172E-003	5.50133E-004	...........
	2	0.775	5.85687E-003	5.61499E-003	5.52866E-004	...........
	3	1.03333	5.81163E-003	5.51996E-003	5.47633E-004	...........
	4	1.29167	5.73474E-003	5.43682E-003	5.42133E-004	...........
	5	1.55	5.63948E-003	5.36740E-003	5.46066E-004	...........
	6	1.80833	5.54292E-003	5.30274E-003	5.49299E-004	...........
	7	2.06667	5.45527E-003	5.24806E-003	5.46699E-004	...........
	8	2.325	5.37923E-003	5.19982E-003	5.52499E-004	...........
	9	2.58333	5.31369E-003	5.15279E-003	5.54333E-004	...........
	10	2.84167	5.25649E-003	5.11190E-003	5.55999E-004	...........
	11	3.1	5.20551E-003	5.07010E-003	5.58999E-004	...........
	12	3.35833	5.15915E-003	5.03903E-003	5.56666E-004	...........
	13	3.61667	5.11670E-003	5.00762E-003	5.52599E-004	...........
	14	3.875	5.07800E-003	4.97343E-003	5.53266E-004	...........
	15	4.13333	5.04261E-003	4.94768E-003	5.55066E-004	...........
	16	4.39167	5.00986E-003	4.92344E-003	5.52599E-004	...........
	17	4.65	4.97931E-003	4.88891E-003	5.52166E-004	...........
	18	4.90833	4.95053E-003	4.87308E-003	5.57066E-004	...........
EOC	QUANT	0.0049505	Open Circuit (V)
PSTATMODEL	IQUANT	4	Pstat Model
PSTATSECTION	LABEL	REF600-11020	Pstat Section
PSTATSERIALNO	LABEL	11020	Pstat Serial Number
CTRLMODE	IQUANT	1	Control Mode
IESTAB	IQUANT	0	I/E Stability
CASPEED	IQUANT	1	Control Amp Speed
CONVENTION	IQUANT	1	Current Convention
ICHRANGE	IQUANT	2	Ich Range
ICHRANGEMODE	TOGGLE	F	Ich Auto Range
ICHOFFSETENABLE	TOGGLE	T	Ich Offset Enable
ICHOFFSET	QUANT	0	Ich Offset (V)
ICHFILTER	IQUANT	3	Ich Filter
VCHRANGE	IQUANT	2	Vch Range
VCHRANGEMODE	TOGGLE	F	Vch Auto Range
VCHOFFSETENABLE	TOGGLE	T	Vch Offset Enable
VCHOFFSET	QUANT	0	Vch Offset (V)
VCHFILTER	IQUANT	3	Vch Filter
ACHRANGE	IQUANT	2	Ach Range
ACHOFFSETENABLE	TOGGLE	F	Ach Offset Enable
ACHOFFSET	QUANT	0	Ach Offset (V)
ACHFILTER	IQUANT	3	Ach Filter
IERANGELOWERLIMIT	IQUANT	1	I/E Range Lower Limit
IERANGEMODE	TOGGLE	F	I/E AutoRange
IERANGE	IQUANT	2	I/E Range
POSFEEDENABLE	TOGGLE	F	Positive Feedback IR Comp
POSFEEDRESISTANCE	QUANT	0	Positive Feedback Resistance (ohm)
ACHSELECT	IQUANT	0	Ach Select
CABLEID	IQUANT	14	Cable ID
DCCALDATE	LABEL	8/19/2019	DC Calibration Date
ACCALDATE	LABEL	8/19/2019	AC Calibration Date
THERMOSELECT	IQUANT	1	Thermo Select
FRAMEWORKVERSION	QUANT	6.33	Framework Version
INSTRUMENTVERSION	LABEL	3.50	Instrument Version
ZCURVE	TABLE
	Pt	Time	Freq	Zreal	Zimag	Zsig	Zmod	Zphz	Idc	Vdc	IERange
	#	s	Hz	ohm	ohm	V	ohm	°	A	V	#
	0	2	1000078	2785.91	-1843.622	1	3340.694	-33.49527	-6.22225E-006	0.0086129	8
	1	4	794390.6	3140.578	-1739.536	1	3590.156	-28.98164	1.145382E-006	0.0074498	8
	2	5	630984.4	3436.234	-1599.147	1	3790.115	-24.95622	6.640038E-006	0.0057037	8
	3	7	501234.4	3721.993	-1429.574	1	3987.094	-21.0112	-4.905955E-006	0.0076218	8
	4	8	398109.4	3896.563	-1240.746	1	4089.335	-17.66255	5.868266E-008	0.0070676	8
	5	9	316265.6	4061.427	-1068.18	1	4199.547	-14.73543	-3.735539E-006	0.0074627	8
	6	11	251203.1	4194.177	-935.2913	1	4297.195	-12.57114	-6.184684E-007	0.0068296	8
	7	12	199546.9	4278.353	-844.8274	1	4360.968	-11.17024	-4.031291E-006	0.0075433	8
	8	14	158578.1	4341.984	-711.4549	1	4399.885	-9.305497	5.794791E-006	0.0056332	8
	9	15	125953.1	4414.933	-599.5084	1	4455.451	-7.732956	1.40126E-007	0.0063312	7
	10	17	100078.1	4449.076	-552.6453	1	4483.269	-7.080769	-2.386655E-008	0.0068021	7
	11	18	79453.13	4492.063	-533.8537	1	4523.674	-6.777458	-2.49792E-008	0.0068007	7
	12	19	63140.62	4534.24	-527.4439	1	4564.814	-6.635091	-1.634522E-008	0.0066923	7
	13	20	50203.12	4578.046	-536.2267	1	4609.344	-6.680615	-3.532592E-008	0.006644	7
	14	22	39890.62	4627.342	-554.5604	1	4660.454	-6.833976	-2.092083E-008	0.0066831	7
	15	23	31640.63	4674.77	-592.6404	1	4712.186	-7.225087	2.820305E-008	0.006521	7
	16	24	25171.88	4727.581	-641.4933	1	4770.905	-7.727365	5.814306E-008	0.0064579	7
	17	26	20015.62	4785.913	-705.8403	1	4837.683	-8.389668	-1.910497E-008	0.006781	7
	18	27	15890.62	4850.244	-778.4853	1	4912.321	-9.118451	5.678664E-008	0.0064545	7
	19	28	12609.37	4927.25	-884.5096	1	5006.012	-10.17699	1.772868E-009	0.0065531	7
	20	30	10078.13	5001.682	-1000.212	1	5100.71	-11.30857	9.137103E-008	0.0064602	7
	21	31	8015.625	5096.486	-1140.665	1	5222.575	-12.61569	3.930455E-008	0.0065913	7
	22	32	6328.125	5204.446	-1316.911	1	5368.474	-14.19983	-4.546166E-008	0.006687	7
	23	34	5015.625	5324.632	-1521.364	1	5537.712	-15.9458	-1.386052E-008	0.0066848	7
	24	35	3984.375	5461.809	-1761.791	1	5738.925	-17.8779	-3.423983E-008	0.0066347	7
	25	36	3170.956	5616.289	-2045.219	1	5977.091	-20.00952	3.182473E-009	0.0065622	7
	26	38	2527.573	5792.767	-2376.845	1	6261.433	-22.30896	-4.760684E-008	0.0066887	7
	27	39	1976.103	6015.444	-2807.309	1	6638.264	-25.01768	-4.952616E-008	0.0066961	7
	28	40	1577.524	6251.685	-3270.184	1	7055.329	-27.61354	9.725994E-008	0.0064254	7
	29	42	1265.625	6512.257	-3802.499	1	7541.12	-30.28061	-4.916939E-008	0.0066565	7
	30	43	998.264	6831.604	-4477.01	1	8167.891	-33.23835	-1.289804E-008	0.0066755	7
	31	44	796.875	7180.628	-5238.78	1	8888.545	-36.11341	9.566114E-008	0.006432	7
	32	46	627.7902	7599.471	-6205.62	1	9811.3	-39.23459	-3.207427E-008	0.006624	7
	33	47	505.5147	8036.244	-7245.801	1	10820.48	-42.03909	8.934495E-009	0.0063496	6
	34	48	397.9953	8558.604	-8637.343	1	12159.5	-45.26235	8.547118E-010	0.0065749	6
	35	50	315.5048	9146.705	-10269.98	1	13752.63	-48.31094	1.105892E-009	0.006578	6
	36	51	252.4038	9789.03	-12163.69	1	15613.47	-51.17376	1.77067E-009	0.0065723	6
	37	52	198.6229	10587.95	-14634.47	1	18063.01	-54.11451	1.233675E-009	0.0065717	6
	38	54	158.3615	11476.24	-17482.88	1	20913.04	-56.71802	5.012932E-010	0.0065739	6
	39	55	125.558	12536.15	-21027.21	1	24480.57	-59.19715	1.365204E-009	0.0065776	6
	40	56	100.4464	13759.42	-25132.51	1	28652.48	-61.3004	1.934925E-009	0.0065725	6
	41	58	79.00281	15314.27	-30617.72	1	34234.07	-63.42685	1.763063E-009	0.0065695	6
	42	59	63.3446	17365.41	-36394.84	1	40325.45	-64.49235	9.167573E-010	0.0065653	6
	43	61	49.86702	19281.57	-44264.72	1	48281.93	-66.46222	1.362358E-009	0.0065651	6
	44	62	39.72458	21984.68	-53732.18	1	58055.78	-67.74793	1.090061E-009	0.0065707	6
	45	63	31.6723	25128.02	-65067.64	1	69751.09	-68.88428	1.254702E-009	0.0065689	6
	46	65	24.93351	29416.21	-79142.05	1	84432.09	-69.61046	5.569083E-010	0.006566	6
	47	66	19.86229	34725.12	-95782.2	1	101882.6	-70.07227	1.198843E-009	0.0065709	6
	48	67	15.83615	40691.89	-116627.3	1	123522.3	-70.76584	-9.066162E-010	0.0065756	5
	49	69	12.40079	50035.56	-140101.9	1	148768.6	-70.34647	-6.510486E-010	0.0065822	5
	50	70	9.93114	60899.61	-169597.2	1	180199.8	-70.2476	5.094747E-010	0.0065733	5
	51	72	7.944915	73878.46	-202636.2	1	215683.7	-69.96882	-2.934319E-010	0.0065823	5
	52	73	6.317385	93172	-242660.3	1	259932.8	-68.99518	1.389669E-010	0.0065952	5
	53	75	5.008013	117124.3	-289627.9	1	312413.9	-67.98181	3.856217E-010	0.0065866	5
	54	78	3.945707	147475.9	-346228.7	1	376328.9	-66.92845	5.463853E-011	0.00657	5
	55	80	3.158693	183830.3	-406041.1	1	445716.2	-65.64192	3.135671E-010	0.0065746	5
	56	84	2.504006	229940.6	-476448.8	1	529033.3	-64.23742	5.684434E-011	0.0065873	5
	57	86	1.998082	283273.5	-552050.3	1	620486.4	-62.83628	4.442428E-010	0.0065724	5
	58	89	1.584686	351442.8	-638672	1	728981.4	-61.17728	1.967943E-010	0.0065299	5
	59	93	1.266892	426206.7	-731718.4	1	846796.3	-59.78033	3.153091E-010	0.0065962	5
	60	97	0.999041	521127.8	-838745.9	1	987456	-58.14658	-2.795996E-011	0.0065314	5
