EXPLAIN
TAG	EISPOT
TITLE	LABEL	Potentiostatic EIS	Test &Identifier
DATE	LABEL	10/8/2019	Date
TIME	LABEL	8:02:18	Time
NOTES	NOTES	2	&Notes...
	
	
PSTAT	PSTAT	REF600-11020	Potentiostat
VDC	POTEN	0.00000E+000	T	DC &Voltage (V)
FREQINIT	QUANT	1.00000E+006	Initial Fre&q. (Hz)
FREQFINAL	QUANT	1.00000E+000	Final Fre&q. (Hz)
PTSPERDEC	QUANT	1.00000E+001	Points/&decade
VAC	QUANT	2.50000E+001	AC &Voltage (mV rms)
AREA	QUANT	1.00000E-002	&Area (cm^2)
CONDIT	TWOPARAM	T	5.00000E+000	0.00000E+000	Conditionin&g	Time(s)	E(V)
DELAY	TWOPARAM	T	5.00000E+000	0.00000E+000	Init. De&lay	Time(s)	Stab.(mV/s)
SPEED	SELECTOR	1	&Optimize for:
ZGUESS	QUANT	1.00000E+004	E&stimated Z (ohms)
OCVCURVE	TABLE	19
	Pt	T	Vf	Vm	Ach	Over
	#	s	V vs. Ref.	V	V	bits
	0	0.258333	7.27597E-003	7.27597E-003	5.46566E-004	...........
	1	0.516667	7.27816E-003	7.39068E-003	5.50266E-004	...........
	2	0.775	7.29164E-003	7.50038E-003	5.50599E-004	...........
	3	1.03333	7.32987E-003	7.60857E-003	5.48333E-004	...........
	4	1.29167	7.39879E-003	7.71971E-003	5.49833E-004	...........
	5	1.55	7.49189E-003	7.82988E-003	5.48633E-004	...........
	6	1.80833	7.59799E-003	7.93958E-003	5.44566E-004	...........
	7	2.06667	7.70866E-003	8.04659E-003	5.46366E-004	...........
	8	2.325	7.82048E-003	8.19792E-003	5.43366E-004	...........
	9	2.58333	7.93317E-003	8.22814E-003	5.41199E-004	...........
	10	2.84167	8.04411E-003	8.35451E-003	5.42999E-004	...........
	11	3.1	8.14910E-003	8.47032E-003	5.50466E-004	...........
	12	3.35833	8.24989E-003	8.57686E-003	5.45666E-004	...........
	13	3.61667	8.35227E-003	8.67854E-003	5.42699E-004	...........
	14	3.875	8.45780E-003	8.77756E-003	5.42466E-004	...........
	15	4.13333	8.56359E-003	8.86733E-003	5.43166E-004	...........
	16	4.39167	8.66631E-003	8.94945E-003	5.39766E-004	...........
	17	4.65	8.76614E-003	9.15550E-003	5.40533E-004	...........
	18	4.90833	8.86743E-003	9.10458E-003	5.45233E-004	...........
EOC	QUANT	0.0088674	Open Circuit (V)
PSTATMODEL	IQUANT	4	Pstat Model
PSTATSECTION	LABEL	REF600-11020	Pstat Section
PSTATSERIALNO	LABEL	11020	Pstat Serial Number
CTRLMODE	IQUANT	1	Control Mode
IESTAB	IQUANT	0	I/E Stability
CASPEED	IQUANT	1	Control Amp Speed
CONVENTION	IQUANT	1	Current Convention
ICHRANGE	IQUANT	2	Ich Range
ICHRANGEMODE	TOGGLE	F	Ich Auto Range
ICHOFFSETENABLE	TOGGLE	T	Ich Offset Enable
ICHOFFSET	QUANT	0	Ich Offset (V)
ICHFILTER	IQUANT	3	Ich Filter
VCHRANGE	IQUANT	2	Vch Range
VCHRANGEMODE	TOGGLE	F	Vch Auto Range
VCHOFFSETENABLE	TOGGLE	T	Vch Offset Enable
VCHOFFSET	QUANT	0	Vch Offset (V)
VCHFILTER	IQUANT	3	Vch Filter
ACHRANGE	IQUANT	2	Ach Range
ACHOFFSETENABLE	TOGGLE	F	Ach Offset Enable
ACHOFFSET	QUANT	0	Ach Offset (V)
ACHFILTER	IQUANT	3	Ach Filter
IERANGELOWERLIMIT	IQUANT	1	I/E Range Lower Limit
IERANGEMODE	TOGGLE	F	I/E AutoRange
IERANGE	IQUANT	6	I/E Range
POSFEEDENABLE	TOGGLE	F	Positive Feedback IR Comp
POSFEEDRESISTANCE	QUANT	0	Positive Feedback Resistance (ohm)
ACHSELECT	IQUANT	0	Ach Select
CABLEID	IQUANT	14	Cable ID
DCCALDATE	LABEL	8/19/2019	DC Calibration Date
ACCALDATE	LABEL	8/19/2019	AC Calibration Date
THERMOSELECT	IQUANT	1	Thermo Select
FRAMEWORKVERSION	QUANT	6.33	Framework Version
INSTRUMENTVERSION	LABEL	3.50	Instrument Version
ZCURVE	TABLE
	Pt	Time	Freq	Zreal	Zimag	Zsig	Zmod	Zphz	Idc	Vdc	IERange
	#	s	Hz	ohm	ohm	V	ohm	°	A	V	#
	0	1	1000078	1980.164	-700.7034	1	2100.485	-19.4869	-3.106884E-006	0.0110591	8
	1	2	794390.6	2082.392	-610.9573	1	2170.167	-16.35127	2.606248E-006	0.0101316	8
	2	3	630984.4	2160.205	-534.4296	1	2225.331	-13.89582	-1.354623E-006	0.0105744	8
	3	5	501234.4	2211.688	-458.1912	1	2258.651	-11.70429	2.907098E-006	0.0098299	8
	4	6	398109.4	2256.164	-395.6169	1	2290.587	-9.94567	3.532227E-006	0.0096506	8
	5	7	316265.6	2297.18	-346.5556	1	2323.174	-8.579022	-1.172396E-006	0.0105442	8
	6	9	251203.1	2320.907	-303.3675	1	2340.65	-7.446954	-2.138042E-006	0.0107527	8
	7	10	199546.9	2347.789	-274.6924	1	2363.804	-6.673292	-8.96113E-007	0.0105324	8
	8	11	158578.1	2365.195	-259.4084	1	2379.378	-6.259035	-2.973829E-006	0.0107577	8
	9	13	125953.1	2396.934	-218.9197	1	2406.911	-5.21853	6.215689E-007	0.0090692	7
	10	14	100078.1	2414.884	-213.3399	1	2424.29	-5.048615	5.630877E-010	0.0103002	7
	11	15	79453.13	2434.625	-221.5398	1	2444.684	-5.199336	-5.233474E-008	0.010444	7
	12	17	63140.62	2457	-235.4379	1	2468.255	-5.473557	-8.099046E-009	0.0102549	7
	13	18	50203.12	2481.985	-253.0579	1	2494.853	-5.821639	-1.658136E-008	0.010259	7
	14	19	39890.62	2508.565	-274.8315	1	2523.575	-6.252234	-6.67663E-008	0.0103965	7
	15	21	31640.63	2537.968	-301.9645	1	2555.869	-6.785089	-2.812823E-008	0.0102949	7
	16	22	25171.88	2569.305	-334.572	1	2590.997	-7.419244	7.209638E-008	0.0101378	7
	17	24	20015.62	2603.424	-375.1231	1	2630.311	-8.199224	1.23455E-007	0.0100988	7
	18	25	15890.62	2639.465	-422.3425	1	2673.041	-9.090871	-3.592138E-008	0.0103252	7
	19	26	12609.37	2679.19	-479.9161	1	2721.833	-10.15553	-2.70076E-008	0.0102917	7
	20	28	10078.13	2719.631	-547.4972	1	2774.193	-11.38225	-7.008219E-008	0.0103893	7
	21	29	8015.625	2762.81	-632.7291	1	2834.337	-12.89923	-1.427306E-008	0.0102555	7
	22	30	6328.125	2811.895	-737.2507	1	2906.939	-14.69169	-8.039351E-009	0.0103203	7
	23	32	5015.625	2864.296	-865.4958	1	2992.202	-16.81309	-3.441486E-008	0.010348	7
	24	33	3984.375	2920.772	-1022.005	1	3094.416	-19.28542	3.079327E-009	0.0102803	7
	25	34	3170.956	2984.102	-1210.127	1	3220.135	-22.07377	-6.874764E-008	0.0103897	7
	26	36	2527.573	3053.278	-1439.37	1	3375.543	-25.24004	-3.546032E-008	0.0103507	7
	27	37	1976.103	3139.356	-1745.45	1	3591.957	-29.07362	-5.06327E-008	0.0104282	7
	28	38	1577.524	3227.441	-2091.18	1	3845.7	-32.94072	-5.036703E-008	0.0104232	7
	29	40	1265.625	3326.798	-2503.462	1	4163.521	-36.96198	-3.962654E-008	0.0103007	7
	30	41	998.264	3447.32	-3050	1	4602.881	-41.50064	-3.986039E-008	0.0102999	7
	31	42	796.875	3581.76	-3690.78	1	5143.04	-45.85884	7.465866E-009	0.0102165	7
	32	44	627.7902	3743.48	-4532.86	1	5878.815	-50.44827	7.826159E-008	0.0102321	7
	33	45	505.5147	3930.511	-5471.527	1	6736.953	-54.30815	6.401886E-008	0.0101689	7
	34	46	397.9953	4180.596	-6751.027	1	7940.639	-58.232	4.550652E-009	0.0102927	7
	35	48	315.5048	4488.615	-8290.627	1	9427.733	-61.56852	4.787928E-009	0.0102954	7
	36	49	252.4038	4868.364	-10105.15	1	11216.73	-64.2766	6.634406E-010	0.01023	6
	37	50	198.6229	5391.895	-12500.3	1	13613.6	-66.66747	1.011784E-009	0.0102323	6
	38	52	158.3615	6038.638	-15272.97	1	16423.42	-68.42711	7.240994E-010	0.0102294	6
	39	53	125.558	6903.414	-18742.19	1	19973.15	-69.77946	9.122061E-010	0.0102314	6
	40	54	100.4464	8007.15	-22790.07	1	24155.78	-70.64139	2.68215E-010	0.0102294	6
	41	56	79.00281	9559.28	-28080.81	1	29663.31	-71.20037	5.08213E-010	0.010231	6
	42	57	63.3446	11593.72	-33887.25	1	35815.64	-71.11283	9.040421E-011	0.0102291	6
	43	58	49.86702	13972.22	-41583.88	1	43868.46	-71.4276	-1.679118E-010	0.0102246	6
	44	60	39.72458	17394.53	-50004.37	1	52943.43	-70.81925	1.159131E-010	0.0102316	6
	45	61	31.6723	21712.36	-60047.37	1	63852.27	-70.12065	2.21759E-010	0.010232	6
	46	63	24.93351	27498.83	-72526.54	1	77564.71	-69.2355	1.759104E-011	0.0102297	6
	47	64	19.86229	34697.81	-86264.81	1	92981.48	-68.08881	9.752597E-010	0.0102246	6
	48	65	15.83615	43923.62	-101856.1	1	110923.2	-66.67275	1.616285E-010	0.0102346	5
	49	67	12.40079	55149	-121136	1	133099	-65.52188	-1.2926E-011	0.0102346	5
	50	68	9.93114	68879.86	-140801.3	1	156746.4	-63.93216	6.7357E-010	0.0102325	5
	51	70	7.944915	85007.38	-162357.2	1	183265.1	-62.36423	2.728709E-010	0.0102303	5
	52	72	6.317385	104130.2	-186894.8	1	213945.8	-60.87523	6.259384E-010	0.0102415	5
	53	74	5.008013	126465.6	-214693.2	1	249172	-59.49967	4.869823E-010	0.0102385	5
	54	76	3.945707	152813.4	-246532.6	1	290052.1	-58.20726	2.036608E-010	0.0102351	5
	55	79	3.158693	180347.2	-279665.6	1	332773.2	-57.18335	-1.557828E-010	0.0102348	5
	56	82	2.504006	211784.7	-318733.4	1	382679.7	-56.39766	4.713341E-010	0.010237	5
	57	85	1.998082	245718.3	-361570.5	1	437162.1	-55.80051	1.246187E-010	0.0102689	5
	58	88	1.584686	283373	-411431	1	499575.5	-55.44288	6.693715E-011	0.0101949	5
	59	92	1.266892	324112.7	-470142	1	571036.4	-55.41788	1.473521E-010	0.0102516	5
	60	96	0.999041	373564.5	-542123.9	1	658368.3	-55.43021	-2.333414E-010	0.0101992	5
