EXPLAIN
TAG	EISPOT
TITLE	LABEL	Potentiostatic EIS	Test &Identifier
DATE	LABEL	10/8/2019	Date
TIME	LABEL	10:29:41	Time
NOTES	NOTES	2	&Notes...
	
	
PSTAT	PSTAT	REF600-11020	Potentiostat
VDC	POTEN	0.00000E+000	T	DC &Voltage (V)
FREQINIT	QUANT	1.00000E+006	Initial Fre&q. (Hz)
FREQFINAL	QUANT	1.00000E+000	Final Fre&q. (Hz)
PTSPERDEC	QUANT	1.00000E+001	Points/&decade
VAC	QUANT	2.50000E+001	AC &Voltage (mV rms)
AREA	QUANT	1.00000E-002	&Area (cm^2)
CONDIT	TWOPARAM	T	5.00000E+000	0.00000E+000	Conditionin&g	Time(s)	E(V)
DELAY	TWOPARAM	T	5.00000E+000	0.00000E+000	Init. De&lay	Time(s)	Stab.(mV/s)
SPEED	SELECTOR	1	&Optimize for:
ZGUESS	QUANT	1.00000E+004	E&stimated Z (ohms)
OCVCURVE	TABLE	19
	Pt	T	Vf	Vm	Ach	Over
	#	s	V vs. Ref.	V	V	bits
	0	0.258333	7.46351E-003	7.46351E-003	5.52599E-004	...........
	1	0.516667	7.46592E-003	7.58966E-003	5.52932E-004	...........
	2	0.775	7.48079E-003	7.71328E-003	5.47466E-004	...........
	3	1.03333	7.52343E-003	7.84734E-003	5.46899E-004	...........
	4	1.29167	7.60139E-003	7.97100E-003	5.49166E-004	...........
	5	1.55	7.70794E-003	8.08502E-003	5.45099E-004	...........
	6	1.80833	7.82762E-003	8.12919E-003	5.46733E-004	...........
	7	2.06667	7.94495E-003	8.28077E-003	5.46499E-004	...........
	8	2.325	8.05409E-003	8.41350E-003	5.47499E-004	...........
	9	2.58333	8.16218E-003	8.55279E-003	5.48999E-004	...........
	10	2.84167	8.28013E-003	8.75713E-003	5.44866E-004	...........
	11	3.1	8.41131E-003	8.74573E-003	5.47066E-004	...........
	12	3.35833	8.54725E-003	8.95948E-003	5.44766E-004	...........
	13	3.61667	8.67553E-003	8.96291E-003	5.44033E-004	...........
	14	3.875	8.78981E-003	9.05003E-003	5.43133E-004	...........
	15	4.13333	8.88849E-003	9.14730E-003	5.42266E-004	...........
	16	4.39167	8.97464E-003	9.23239E-003	5.43866E-004	...........
	17	4.65	9.05641E-003	9.32220E-003	5.46366E-004	...........
	18	4.90833	9.13996E-003	9.40740E-003	5.41033E-004	...........
EOC	QUANT	0.00914	Open Circuit (V)
PSTATMODEL	IQUANT	4	Pstat Model
PSTATSECTION	LABEL	REF600-11020	Pstat Section
PSTATSERIALNO	LABEL	11020	Pstat Serial Number
CTRLMODE	IQUANT	1	Control Mode
IESTAB	IQUANT	0	I/E Stability
CASPEED	IQUANT	1	Control Amp Speed
CONVENTION	IQUANT	1	Current Convention
ICHRANGE	IQUANT	2	Ich Range
ICHRANGEMODE	TOGGLE	F	Ich Auto Range
ICHOFFSETENABLE	TOGGLE	T	Ich Offset Enable
ICHOFFSET	QUANT	0	Ich Offset (V)
ICHFILTER	IQUANT	3	Ich Filter
VCHRANGE	IQUANT	2	Vch Range
VCHRANGEMODE	TOGGLE	F	Vch Auto Range
VCHOFFSETENABLE	TOGGLE	T	Vch Offset Enable
VCHOFFSET	QUANT	0	Vch Offset (V)
VCHFILTER	IQUANT	3	Vch Filter
ACHRANGE	IQUANT	2	Ach Range
ACHOFFSETENABLE	TOGGLE	F	Ach Offset Enable
ACHOFFSET	QUANT	0	Ach Offset (V)
ACHFILTER	IQUANT	3	Ach Filter
IERANGELOWERLIMIT	IQUANT	1	I/E Range Lower Limit
IERANGEMODE	TOGGLE	F	I/E AutoRange
IERANGE	IQUANT	6	I/E Range
POSFEEDENABLE	TOGGLE	F	Positive Feedback IR Comp
POSFEEDRESISTANCE	QUANT	0	Positive Feedback Resistance (ohm)
ACHSELECT	IQUANT	0	Ach Select
CABLEID	IQUANT	14	Cable ID
DCCALDATE	LABEL	8/19/2019	DC Calibration Date
ACCALDATE	LABEL	8/19/2019	AC Calibration Date
THERMOSELECT	IQUANT	1	Thermo Select
FRAMEWORKVERSION	QUANT	6.33	Framework Version
INSTRUMENTVERSION	LABEL	3.50	Instrument Version
ZCURVE	TABLE
	Pt	Time	Freq	Zreal	Zimag	Zsig	Zmod	Zphz	Idc	Vdc	IERange
	#	s	Hz	ohm	ohm	V	ohm	°	A	V	#
	0	1	1000078	2446.388	-1486.316	1	2862.508	-31.28099	-9.121902E-006	0.0122931	8
	1	3	794390.6	2724.213	-1428.785	1	3076.16	-27.67595	4.517893E-006	0.010945	8
	2	4	630984.4	2979.384	-1299.336	1	3250.385	-23.56244	-9.449147E-007	0.0111229	8
	3	5	501234.4	3184.044	-1177.636	1	3394.844	-20.29718	4.95398E-006	0.010111	8
	4	7	398109.4	3366.186	-1029.863	1	3520.203	-17.01116	6.027758E-007	0.010671	8
	5	8	316265.6	3499.632	-887.7591	1	3610.476	-14.23409	1.624097E-006	0.0106713	8
	6	10	251203.1	3585.215	-769.9859	1	3666.967	-12.12112	3.317938E-006	0.0100946	8
	7	11	199546.9	3660.54	-656.4596	1	3718.937	-10.16701	-1.904682E-006	0.011162	8
	8	13	158578.1	3724.564	-564.959	1	3767.168	-8.62514	-1.015445E-006	0.0112265	8
	9	14	125953.1	3789.2	-453.3065	1	3816.219	-6.82194	3.277046E-007	0.0098595	7
	10	15	100078.1	3820.453	-403.256	1	3841.676	-6.025367	-2.286797E-008	0.0108349	7
	11	17	79453.13	3850.075	-371.2177	1	3867.93	-5.507338	1.023506E-007	0.0107047	7
	12	18	63140.62	3879.386	-348.3217	1	3894.993	-5.130706	-4.829561E-009	0.0108268	7
	13	19	50203.12	3907.246	-334.4288	1	3921.532	-4.892134	-4.540541E-008	0.010834	7
	14	21	39890.62	3932.899	-328.9949	1	3946.636	-4.781775	-6.943905E-009	0.0107319	7
	15	22	31640.63	3961.206	-332.434	1	3975.131	-4.797159	-3.333034E-008	0.0107837	7
	16	24	25171.88	3989.246	-343.446	1	4004.003	-4.92063	-7.897186E-009	0.0108296	7
	17	25	20015.62	4015.811	-360.2552	1	4031.937	-5.126237	-4.173149E-008	0.010822	7
	18	26	15890.62	4048.961	-391.8893	1	4067.882	-5.528303	4.887349E-009	0.0107144	7
	19	28	12609.37	4080.275	-428.1576	1	4102.678	-5.990325	4.850584E-008	0.010624	7
	20	29	10078.13	4110.824	-477.516	1	4138.465	-6.625821	-4.027346E-008	0.0108154	7
	21	30	8015.625	4147.767	-538.9879	1	4182.64	-7.403899	-2.764206E-008	0.0108542	7
	22	32	6328.125	4183.656	-620.7134	1	4229.452	-8.439197	-3.38804E-008	0.0107811	7
	23	33	5015.625	4221.262	-721.0792	1	4282.407	-9.69374	-5.806264E-009	0.0108136	7
	24	34	3984.375	4259.523	-851.1419	1	4343.729	-11.30007	-6.631373E-009	0.0109074	7
	25	36	3170.956	4305.38	-999.21	1	4419.81	-13.06612	1.46827E-007	0.010547	7
	26	37	2527.573	4352.491	-1190.035	1	4512.246	-15.29177	4.622115E-008	0.0106192	7
	27	39	1976.103	4408.812	-1447.154	1	4640.245	-18.17196	1.460254E-007	0.0105548	7
	28	40	1577.524	4452.149	-1750.998	1	4784.101	-21.46936	1.472427E-007	0.0105514	7
	29	41	1265.625	4535.352	-2103.137	1	4999.26	-24.87813	-5.265595E-009	0.0107912	7
	30	43	998.264	4623.918	-2575.483	1	5292.8	-29.11743	9.075288E-008	0.0105927	7
	31	44	796.875	4721.959	-3138.029	1	5669.579	-33.60645	-3.874514E-008	0.0108567	7
	32	45	627.7902	4850.954	-3871.596	1	6206.529	-38.59373	-4.457997E-009	0.010811	7
	33	47	505.5147	4996.863	-4690.327	1	6853.306	-43.18757	4.544303E-008	0.0106183	7
	34	48	397.9953	5194.104	-5799.61	1	7785.512	-48.15252	5.837117E-009	0.0107839	7
	35	49	315.5048	5437.237	-7134.679	1	8970.351	-52.68949	6.224842E-009	0.0107863	7
	36	51	252.4038	5735.356	-8709.708	1	10428.49	-56.63503	1.422912E-009	0.0107228	6
	37	52	198.6229	6143.446	-10790.16	1	12416.5	-60.34469	1.080114E-009	0.0107235	6
	38	53	158.3615	6643.642	-13208.59	1	14785.29	-63.29857	1.311232E-009	0.0107285	6
	39	55	125.558	7306.688	-16242.19	1	17810.01	-65.77899	7.370191E-010	0.0107303	6
	40	56	100.4464	8135.582	-19805.99	1	21411.8	-67.66892	1.31501E-009	0.0107253	6
	41	57	79.00281	9345.348	-24470.05	1	26193.87	-69.09766	1.25702E-009	0.0107225	6
	42	59	63.3446	10657.6	-29489.93	1	31356.66	-70.13025	9.448885E-010	0.0107268	6
	43	60	49.86702	12839.51	-36585.52	1	38773.1	-70.66173	9.681705E-010	0.0107253	6
	44	62	39.72458	15315.82	-44259.72	1	46834.79	-70.91212	6.013262E-010	0.0107287	6
	45	63	31.6723	18758.35	-53427.05	1	56624.43	-70.65372	7.45039E-010	0.0107215	6
	46	64	24.93351	23199.09	-65056.16	1	69068.82	-70.37372	1.979169E-010	0.0107242	6
	47	66	19.86229	28905.69	-78004.41	1	83187.9	-69.66707	1.287682E-009	0.0107262	6
	48	67	15.83615	36030.71	-93356.79	1	100068.5	-68.89609	1.492786E-009	0.0107309	6
	49	69	12.40079	46169.48	-111530.4	1	120708.9	-67.51225	-4.084076E-010	0.0107358	5
	50	70	9.93114	57336.68	-132058	1	143968.1	-66.53058	-1.749124E-010	0.0107377	5
	51	72	7.944915	71049.12	-154533.2	1	170083.8	-65.30863	-1.630212E-010	0.0107358	5
	52	73	6.317385	89304.84	-180575.2	1	201451.6	-63.68495	-1.195814E-010	0.0107279	5
	53	75	5.008013	111315.3	-209883.7	1	237575.8	-62.06003	-7.466557E-011	0.0107402	5
	54	78	3.945707	138277.1	-242748.3	1	279369.4	-60.33279	-3.165177E-010	0.0107322	5
	55	81	3.158693	167584.4	-275765.9	1	322693.9	-58.71273	3.465515E-010	0.0107521	5
	56	84	2.504006	202479.5	-313229.3	1	372975.3	-57.12033	-3.75943E-010	0.0107311	5
	57	87	1.998082	239674.7	-352043.2	1	425885.3	-55.75256	-3.050872E-010	0.0107293	5
	58	90	1.584686	281756.3	-394947.5	1	485149.6	-54.49587	8.688456E-011	0.0107919	5
	59	93	1.266892	322829.4	-441661.2	1	547068	-53.8353	-2.161029E-010	0.0107572	5
	60	98	0.999041	368992.2	-499365.7	1	620903.6	-53.5385	2.545726E-010	0.0107301	5
