EXPLAIN
TAG	EISPOT
TITLE	LABEL	Potentiostatic EIS	Test &Identifier
DATE	LABEL	8/14/2018	Date
TIME	LABEL	5:27:20	Time
NOTES	NOTES	1	&Notes...
	
PSTAT	PSTAT	REF600-11020	Potentiostat
VDC	POTEN	0.00000E+000	T	DC &Voltage (V)
FREQINIT	QUANT	1.00000E+006	Initial Fre&q. (Hz)
FREQFINAL	QUANT	1.00000E+000	Final Fre&q. (Hz)
PTSPERDEC	QUANT	1.00000E+001	Points/&decade
VAC	QUANT	2.50000E+001	AC &Voltage (mV rms)
AREA	QUANT	1.00000E-002	&Area (cm^2)
CONDIT	TWOPARAM	T	5.00000E+000	0.00000E+000	Conditionin&g	Time(s)	E(V)
DELAY	TWOPARAM	T	5.00000E+000	0.00000E+000	Init. De&lay	Time(s)	Stab.(mV/s)
SPEED	SELECTOR	0	&Optimize for:
ZGUESS	QUANT	1.00000E+005	E&stimated Z (ohms)
OCVCURVE	TABLE	19
	Pt	T	Vf	Vm	Ach	Over
	#	s	V vs. Ref.	V	V	bits
	0	0.258333	6.55732E-002	6.55732E-002	5.55666E-004	...........
	1	0.516667	6.56374E-002	6.89360E-002	5.59099E-004	...........
	2	0.775	6.60273E-002	7.18822E-002	5.59866E-004	...........
	3	1.03333	6.71110E-002	7.45027E-002	5.56233E-004	...........
	4	1.29167	6.89996E-002	7.68488E-002	5.52333E-004	...........
	5	1.55	7.14210E-002	7.89746E-002	5.56933E-004	...........
	6	1.80833	7.39823E-002	8.08846E-002	5.54799E-004	...........
	7	2.06667	7.64172E-002	8.26046E-002	5.54933E-004	...........
	8	2.325	7.86225E-002	8.41726E-002	5.54933E-004	...........
	9	2.58333	8.05929E-002	8.55974E-002	5.59999E-004	...........
	10	2.84167	8.23580E-002	8.68905E-002	5.56766E-004	...........
	11	3.1	8.39502E-002	8.80689E-002	5.52499E-004	...........
	12	3.35833	8.53940E-002	8.91519E-002	5.55299E-004	...........
	13	3.61667	8.67075E-002	9.01380E-002	5.57666E-004	...........
	14	3.875	8.79056E-002	9.10490E-002	5.54799E-004	...........
	15	4.13333	8.90008E-002	9.18864E-002	5.53866E-004	...........
	16	4.39167	9.00043E-002	9.26611E-002	5.52966E-004	...........
	17	4.65	9.09267E-002	9.34065E-002	5.51733E-004	...........
	18	4.90833	9.17796E-002	9.41228E-002	5.52166E-004	...........
EOC	QUANT	0.0917796	Open Circuit (V)
PSTATMODEL	IQUANT	4	Pstat Model
PSTATSECTION	LABEL	REF600-11020	Pstat Section
PSTATSERIALNO	LABEL	11020	Pstat Serial Number
CTRLMODE	IQUANT	1	Control Mode
IESTAB	IQUANT	0	I/E Stability
CASPEED	IQUANT	1	Control Amp Speed
CONVENTION	IQUANT	1	Current Convention
ICHRANGE	IQUANT	2	Ich Range
ICHRANGEMODE	TOGGLE	F	Ich Auto Range
ICHOFFSETENABLE	TOGGLE	T	Ich Offset Enable
ICHOFFSET	QUANT	0	Ich Offset (V)
ICHFILTER	IQUANT	3	Ich Filter
VCHRANGE	IQUANT	2	Vch Range
VCHRANGEMODE	TOGGLE	F	Vch Auto Range
VCHOFFSETENABLE	TOGGLE	T	Vch Offset Enable
VCHOFFSET	QUANT	0	Vch Offset (V)
VCHFILTER	IQUANT	3	Vch Filter
ACHRANGE	IQUANT	2	Ach Range
ACHOFFSETENABLE	TOGGLE	F	Ach Offset Enable
ACHOFFSET	QUANT	0	Ach Offset (V)
ACHFILTER	IQUANT	3	Ach Filter
IERANGELOWERLIMIT	IQUANT	1	I/E Range Lower Limit
IERANGEMODE	TOGGLE	F	I/E AutoRange
IERANGE	IQUANT	6	I/E Range
POSFEEDENABLE	TOGGLE	F	Positive Feedback IR Comp
POSFEEDRESISTANCE	QUANT	0	Positive Feedback Resistance (ohm)
ACHSELECT	IQUANT	0	Ach Select
CABLEID	IQUANT	14	Cable ID
DCCALDATE	LABEL	8/19/2019	DC Calibration Date
ACCALDATE	LABEL	8/19/2019	AC Calibration Date
THERMOSELECT	IQUANT	1	Thermo Select
FRAMEWORKVERSION	QUANT	6.33	Framework Version
INSTRUMENTVERSION	LABEL	3.50	Instrument Version
ZCURVE	TABLE
	Pt	Time	Freq	Zreal	Zimag	Zsig	Zmod	Zphz	Idc	Vdc	IERange
	#	s	Hz	ohm	ohm	V	ohm	°	A	V	#
	0	2	1000078	2238.28	-1647.024	1	2778.954	-36.34725	3.069465E-006	0.0929938	8
	1	2	794390.6	2554.121	-1618.16	1	3023.57	-32.35625	-4.995657E-006	0.0944652	8
	2	2	630984.4	2854.869	-1526.16	1	3237.196	-28.12813	-5.583536E-007	0.0940181	8
	3	3	501234.4	3129.764	-1450.639	1	3449.605	-24.86763	1.018609E-007	0.0933004	8
	4	3	398109.4	3392.952	-1315.702	1	3639.12	-21.19505	-1.997156E-006	0.0937427	8
	5	3	316265.6	3587.245	-1185.776	1	3778.146	-18.29149	-8.398017E-007	0.0936989	8
	6	4	251203.1	3751.638	-1052.301	1	3896.425	-15.66834	-7.059363E-007	0.0934073	8
	7	4	199546.9	3879.62	-922.1298	1	3987.703	-13.37028	5.21896E-007	0.093291	8
	8	4	158578.1	4037.405	-809.7129	1	4117.799	-11.34038	-2.474864E-007	0.0932525	8
	9	5	125953.1	4099.014	-631.9648	1	4147.444	-8.764559	8.462293E-007	0.0912054	7
	10	5	100078.1	4138.722	-560.8693	1	4176.553	-7.717566	-6.919304E-008	0.0934882	7
	11	5	79453.13	4189.699	-508.1012	1	4220.396	-6.914717	-3.735276E-008	0.0932728	7
	12	6	63140.62	4233.212	-463.9135	1	4258.557	-6.25403	4.346138E-008	0.0932108	7
	13	6	50203.12	4270.069	-431.8231	1	4291.848	-5.77457	5.500357E-008	0.0931705	7
	14	6	39890.62	4305.125	-410.5183	1	4324.653	-5.447012	-7.06026E-008	0.0934823	7
	15	6	31640.63	4335.467	-401.9411	1	4354.06	-5.296751	9.697494E-008	0.0931673	7
	16	7	25171.88	4363.022	-403.3508	1	4381.626	-5.281843	-5.883381E-008	0.0933601	7
	17	7	20015.62	4393.292	-430.4525	1	4414.329	-5.595951	4.273473E-008	0.0932011	7
	18	7	15890.62	4422.652	-441.5333	1	4444.638	-5.701204	-5.287518E-008	0.0932859	7
	19	8	12609.37	4450.428	-480.8574	1	4476.331	-6.166739	-3.580721E-008	0.0932625	7
	20	8	10078.13	4481.276	-534.5762	1	4513.049	-6.802728	9.776567E-008	0.0931638	7
	21	8	8015.625	4507.37	-602.2944	1	4547.432	-7.611027	-5.89604E-008	0.0933261	7
	22	9	6328.125	4543.501	-701.5637	1	4597.346	-8.77774	-5.957921E-008	0.0933517	7
	23	9	5015.625	4579.775	-823.1083	1	4653.154	-10.18881	5.61053E-008	0.093161	7
	24	9	3984.375	4627.482	-970.997	1	4728.259	-11.8506	-5.907861E-009	0.0932309	7
	25	10	3170.956	4670.219	-1161.279	1	4812.434	-13.96376	-1.088509E-008	0.09326	7
	26	10	2527.573	4727.16	-1390.697	1	4927.482	-16.39351	4.502252E-008	0.0931902	7
	27	10	1976.103	4798.919	-1702.175	1	5091.859	-19.52958	9.734842E-008	0.0931489	7
	28	11	1577.524	4864.775	-2000.85	1	5260.175	-22.35705	9.967842E-008	0.0931507	7
	29	11	1265.625	4978.906	-2464.62	1	5555.525	-26.33598	-6.51105E-009	0.0932933	7
	30	11	998.264	5100.133	-2996.913	1	5915.476	-30.43912	-5.857995E-008	0.0933175	7
	31	12	796.875	5237.516	-3628.965	1	6371.888	-34.71728	-6.772973E-008	0.0934594	7
	32	12	627.7902	5409.548	-4441.729	1	6999.44	-39.3891	-1.310294E-008	0.0932685	7
	33	12	505.5147	5595.918	-5342.875	1	7736.964	-43.67483	3.316947E-008	0.0931145	7
	34	13	397.9953	5835.141	-6571.383	1	8788.171	-48.39613	-2.612831E-010	0.0932676	7
	35	13	315.5048	6125.476	-8041.719	1	10108.94	-52.70303	-4.253048E-010	0.0932069	6
	36	13	252.4038	6459.489	-9783.88	1	11723.88	-56.56651	-8.836176E-010	0.0932025	6
	37	13	198.6229	6911.932	-12087.77	1	13924.41	-60.23857	1.600988E-010	0.0932051	6
	38	14	158.3615	7451.253	-14772.23	1	16545.09	-63.23319	-6.792029E-010	0.0931984	6
	39	14	125.558	8168.188	-18146.22	1	19899.87	-65.76598	-1.490324E-010	0.0932011	6
	40	14	100.4464	9062.534	-22088.28	1	23875.12	-67.69229	-9.35953E-010	0.0931988	6
	41	15	79.00281	10383.3	-27289.29	1	29197.91	-69.16867	-4.036195E-010	0.0931969	6
	42	15	63.3446	11559.67	-33458.27	1	35398.9	-70.94022	4.704492E-010	0.0931976	6
	43	16	49.86702	13689.09	-40923.18	1	43152.03	-71.50455	3.446533E-010	0.0931977	6
	44	16	39.72458	16576.9	-49611.08	1	52307.29	-71.52362	4.511127E-010	0.0932023	6
	45	16	31.6723	20149.63	-60298.75	1	63576.31	-71.52226	1.270105E-009	0.0932001	6
	46	17	24.93351	24844.29	-73230.15	1	77329.77	-71.25982	-2.901351E-010	0.0932001	6
	47	17	19.86229	30540.06	-88152.29	1	93292.66	-70.89153	1.603118E-010	0.0932006	6
	48	17	15.83615	37260.96	-106886.3	1	113194.8	-70.78125	1.464177E-009	0.0931998	5
	49	17	12.40079	48250.5	-127414.2	1	136244.2	-69.25881	1.257044E-009	0.0932036	5
	50	18	9.93114	60438.51	-152246.6	1	163804.2	-68.34802	1.685379E-010	0.0931963	5
	51	18	7.944915	75247.73	-179472.9	1	194609.2	-67.25312	-4.143437E-010	0.0932073	5
	52	19	6.317385	95046	-211045.6	1	231460.6	-65.75523	-1.598862E-011	0.0932091	5
	53	20	5.008013	119799.8	-247543	1	275008.2	-64.17509	2.973581E-010	0.0932076	5
	54	21	3.945707	149844.5	-290388.1	1	326770	-62.70561	1.731946E-010	0.0931932	5
	55	22	3.158693	184740.6	-333131.5	1	380927.4	-60.98911	7.107969E-010	0.0931957	5
	56	24	2.504006	226979.9	-382641.8	1	444898.5	-59.32394	7.981018E-010	0.093197	5
	57	25	1.998082	275251.7	-434976.3	1	514750.3	-57.6745	6.865594E-010	0.0931536	5
	58	27	1.584686	330120.2	-493130.4	1	593428.1	-56.20015	8.584468E-010	0.0931816	5
	59	29	1.266892	391242	-552653.1	1	677123.1	-54.70402	1.081912E-009	0.0932105	5
	60	31	0.999041	464300.3	-622922.6	1	776921.8	-53.3007	1.288987E-009	0.0932369	5
