EXPLAIN
TAG	EISPOT
TITLE	LABEL	Potentiostatic EIS	Test &Identifier
DATE	LABEL	11/3/2019	Date
TIME	LABEL	11:40:56	Time
NOTES	NOTES	1	&Notes...
	
PSTAT	PSTAT	REF600-11020	Potentiostat
VDC	POTEN	0.00000E+000	T	DC &Voltage (V)
FREQINIT	QUANT	1.00000E+006	Initial Fre&q. (Hz)
FREQFINAL	QUANT	1.00000E+000	Final Fre&q. (Hz)
PTSPERDEC	QUANT	1.00000E+001	Points/&decade
VAC	QUANT	2.50000E+001	AC &Voltage (mV rms)
AREA	QUANT	1.00000E-002	&Area (cm^2)
CONDIT	TWOPARAM	T	5.00000E+000	0.00000E+000	Conditionin&g	Time(s)	E(V)
DELAY	TWOPARAM	T	5.00000E+000	0.00000E+000	Init. De&lay	Time(s)	Stab.(mV/s)
SPEED	SELECTOR	1	&Optimize for:
ZGUESS	QUANT	1.00000E+005	E&stimated Z (ohms)
OCVCURVE	TABLE	19
	Pt	T	Vf	Vm	Ach	Over
	#	s	V vs. Ref.	V	V	bits
	0	0.258333	7.27231E-003	7.27231E-003	5.57766E-004	...........
	1	0.516667	7.27250E-003	7.28212E-003	5.59066E-004	...........
	2	0.775	7.27376E-003	7.29734E-003	5.59232E-004	...........
	3	1.03333	7.27804E-003	7.32882E-003	5.61099E-004	...........
	4	1.29167	7.28786E-003	7.36132E-003	5.61899E-004	...........
	5	1.55	7.30524E-003	7.40293E-003	5.57333E-004	...........
	6	1.80833	7.33055E-003	7.43837E-003	5.57066E-004	...........
	7	2.06667	7.36247E-003	7.48429E-003	5.51066E-004	...........
	8	2.325	7.39909E-003	7.52924E-003	5.51999E-004	...........
	9	2.58333	7.43909E-003	7.57558E-003	5.52999E-004	...........
	10	2.84167	7.48165E-003	7.61788E-003	5.51266E-004	...........
	11	3.1	7.52593E-003	7.67093E-003	5.49799E-004	...........
	12	3.35833	7.57126E-003	7.71015E-003	5.54399E-004	...........
	13	3.61667	7.61716E-003	7.75834E-003	5.50399E-004	...........
	14	3.875	7.66306E-003	7.80150E-003	5.54933E-004	...........
	15	4.13333	7.70856E-003	7.84715E-003	5.50933E-004	...........
	16	4.39167	7.75369E-003	7.89158E-003	5.44833E-004	...........
	17	4.65	7.79850E-003	7.93145E-003	5.42233E-004	...........
	18	4.90833	7.84287E-003	7.97870E-003	5.44066E-004	...........
EOC	QUANT	0.0078429	Open Circuit (V)
PSTATMODEL	IQUANT	4	Pstat Model
PSTATSECTION	LABEL	REF600-11020	Pstat Section
PSTATSERIALNO	LABEL	11020	Pstat Serial Number
CTRLMODE	IQUANT	1	Control Mode
IESTAB	IQUANT	0	I/E Stability
CASPEED	IQUANT	1	Control Amp Speed
CONVENTION	IQUANT	1	Current Convention
ICHRANGE	IQUANT	2	Ich Range
ICHRANGEMODE	TOGGLE	F	Ich Auto Range
ICHOFFSETENABLE	TOGGLE	T	Ich Offset Enable
ICHOFFSET	QUANT	0	Ich Offset (V)
ICHFILTER	IQUANT	3	Ich Filter
VCHRANGE	IQUANT	2	Vch Range
VCHRANGEMODE	TOGGLE	F	Vch Auto Range
VCHOFFSETENABLE	TOGGLE	T	Vch Offset Enable
VCHOFFSET	QUANT	0	Vch Offset (V)
VCHFILTER	IQUANT	3	Vch Filter
ACHRANGE	IQUANT	2	Ach Range
ACHOFFSETENABLE	TOGGLE	F	Ach Offset Enable
ACHOFFSET	QUANT	0	Ach Offset (V)
ACHFILTER	IQUANT	3	Ach Filter
IERANGELOWERLIMIT	IQUANT	1	I/E Range Lower Limit
IERANGEMODE	TOGGLE	F	I/E AutoRange
IERANGE	IQUANT	5	I/E Range
POSFEEDENABLE	TOGGLE	F	Positive Feedback IR Comp
POSFEEDRESISTANCE	QUANT	0	Positive Feedback Resistance (ohm)
ACHSELECT	IQUANT	0	Ach Select
CABLEID	IQUANT	14	Cable ID
DCCALDATE	LABEL	8/19/2019	DC Calibration Date
ACCALDATE	LABEL	8/19/2019	AC Calibration Date
THERMOSELECT	IQUANT	1	Thermo Select
FRAMEWORKVERSION	QUANT	6.33	Framework Version
INSTRUMENTVERSION	LABEL	3.50	Instrument Version
ZCURVE	TABLE
	Pt	Time	Freq	Zreal	Zimag	Zsig	Zmod	Zphz	Idc	Vdc	IERange
	#	s	Hz	ohm	ohm	V	ohm	°	A	V	#
	0	2	1000078	2098.459	-1706.45	1	2704.719	-39.11773	4.642063E-006	0.0097262	8
	1	3	794390.6	2429.626	-1690.503	1	2959.879	-34.82971	3.696923E-006	0.0094586	8
	2	4	630984.4	2765.015	-1628.562	1	3208.975	-30.49759	-8.004185E-006	0.0104831	8
	3	6	501234.4	3069.544	-1522.58	1	3426.419	-26.38271	1.091852E-006	0.0090119	8
	4	7	398109.4	3331.895	-1375.754	1	3604.75	-22.43595	6.845746E-007	0.0097258	8
	5	8	316265.6	3533.238	-1226.17	1	3739.955	-19.13874	2.04421E-006	0.0088106	8
	6	10	251203.1	3709.958	-1078.285	1	3863.481	-16.2063	7.07255E-006	0.0084875	8
	7	11	199546.9	3830.975	-943.9004	1	3945.544	-13.84122	1.865305E-006	0.0088179	8
	8	13	158578.1	3937.929	-866.2379	1	4032.078	-12.40594	-2.540443E-006	0.0092071	8
	9	14	125953.1	4026.898	-651.6892	1	4079.29	-9.192708	-3.187745E-006	0.0133414	7
	10	16	100078.1	4086.289	-585.7004	1	4128.05	-8.156825	8.733979E-007	0.0090095	7
	11	17	79453.13	4127.713	-526.683	1	4161.179	-7.271466	-1.272407E-006	0.0107804	7
	12	18	63140.62	4170.805	-491.5596	1	4199.672	-6.721715	-6.371126E-007	0.0109087	7
	13	20	50203.12	4207.385	-465.1151	1	4233.016	-6.30828	-1.097613E-006	0.0098087	7
	14	21	39890.62	4248.777	-454.8805	1	4273.058	-6.110896	1.05898E-007	0.0078385	7
	15	22	31640.63	4279.835	-455.9207	1	4304.05	-6.080652	-1.098122E-006	0.0098061	7
	16	24	25171.88	4324.586	-472.042	1	4350.272	-6.22935	1.063841E-006	0.0084888	7
	17	25	20015.62	4362.919	-493.5616	1	4390.748	-6.454229	8.035525E-007	0.007401	7
	18	27	15890.62	4398.066	-536.2637	1	4430.639	-6.951857	6.448433E-007	0.0094532	7
	19	28	12609.37	4438.43	-591.4936	1	4477.67	-7.590875	8.770265E-007	0.0089968	7
	20	29	10078.13	4477.492	-652.6107	1	4524.802	-8.292673	8.031884E-007	0.0074003	7
	21	31	8015.625	4525.143	-755.0336	1	4587.701	-9.472708	8.775907E-007	0.0089992	7
	22	32	6328.125	4564.289	-869.4832	1	4646.368	-10.78545	-1.272218E-006	0.0103917	7
	23	33	5015.625	4615.994	-1015.611	1	4726.401	-12.40851	-1.273438E-006	0.0107665	7
	24	35	3984.375	4685.107	-1197.011	1	4835.604	-14.33206	-1.137425E-006	0.0109453	7
	25	36	3170.956	4742.99	-1421.941	1	4951.553	-16.68865	-1.139272E-006	0.0109386	7
	26	38	2527.573	4822.273	-1697.631	1	5112.365	-19.39409	8.461074E-008	0.0102328	7
	27	39	1976.103	4926.515	-2067.402	1	5342.724	-22.76526	1.018965E-006	0.0074739	7
	28	40	1577.524	5038.259	-2466.828	1	5609.75	-26.08726	6.459185E-007	0.0094503	7
	29	42	1265.625	5149.81	-2965.42	1	5942.58	-29.93467	-1.271002E-006	0.0103939	7
	30	43	998.264	5311.082	-3619.516	1	6427.167	-34.27453	8.781519E-007	0.0089967	7
	31	44	796.875	5485.947	-4369.282	1	7013.29	-38.53556	4.908989E-007	0.0075106	7
	32	46	627.7902	5708.252	-5335.412	1	7813.499	-43.06639	1.020821E-006	0.0074776	7
	33	47	505.5147	5944.861	-6409.07	1	8741.713	-47.15192	1.13091E-006	0.0077041	7
	34	49	397.9953	6273.258	-7845.712	1	10045.35	-51.35494	7.341354E-010	0.0092762	7
	35	50	315.5048	6654.105	-9576.63	1	11661.43	-55.20736	1.657157E-009	0.0092021	6
	36	51	252.4038	7095.613	-11617.35	1	13612.88	-58.58437	-2.368168E-010	0.0092154	6
	37	53	198.6229	7690.279	-14307.51	1	16243.31	-61.74199	8.019908E-010	0.0092074	6
	38	54	158.3615	8396.992	-17437.8	1	19354.23	-64.28734	1.306982E-009	0.0092001	6
	39	56	125.558	9334.39	-21345.39	1	23297.13	-66.38013	8.561202E-010	0.0092094	6
	40	57	100.4464	10502.11	-25938.05	1	27983.51	-67.95737	-6.846091E-010	0.0092148	6
	41	58	79.00281	12018.55	-31941.28	1	34127.57	-69.38019	1.279149E-009	0.009213	6
	42	60	63.3446	14208.29	-38225.08	1	40780.29	-69.60986	8.998792E-010	0.009199	6
	43	61	49.86702	16956.99	-47690.73	1	50615.66	-70.42657	4.802183E-010	0.0091948	6
	44	63	39.72458	20296.82	-57521.97	1	60997.85	-70.56444	6.72624E-010	0.0092104	6
	45	64	31.6723	24512.48	-69461.63	1	73659.9	-70.56245	1.078231E-009	0.0092099	6
	46	65	24.93351	31079.43	-84316.68	1	89862.3	-69.76594	1.082164E-009	0.0091978	6
	47	67	19.86229	39083.08	-101116.2	1	108406.6	-68.86767	6.007486E-010	0.0092025	5
	48	68	15.83615	50617.43	-119994.1	1	130233.3	-67.1284	1.75696E-009	0.0092028	5
	49	69	12.40079	63704.09	-144458.7	1	157881.4	-66.20325	1.582575E-009	0.0092107	5
	50	71	9.93114	79286.31	-167618.4	1	185424.5	-64.68507	-3.632266E-010	0.009217	5
	51	72	7.944915	99936.5	-195456.2	1	219523.1	-62.9194	4.385958E-010	0.0092282	5
	52	74	6.317385	123713.2	-224426.6	1	256266	-61.13463	1.272927E-010	0.0092351	5
	53	76	5.008013	152940.6	-257065.2	1	299120.9	-59.24953	1.320097E-010	0.0092165	5
	54	79	3.945707	186704.6	-292203.2	1	346758.3	-57.42327	3.855198E-010	0.0092213	5
	55	81	3.158693	222374.9	-328054.7	1	396321.2	-55.86826	-5.069123E-011	0.0092048	5
	56	85	2.504006	262510.8	-368147.7	1	452155.5	-54.50892	4.805624E-010	0.0092101	5
	57	87	1.998082	303991.7	-410644.6	1	510920.7	-53.48822	7.059572E-011	0.009257	5
	58	91	1.584686	347138.8	-460184.5	1	576433.1	-52.97104	1.799561E-010	0.0091995	5
	59	94	1.266892	393208.6	-517144.5	1	649654.9	-52.75262	1.158817E-010	0.0092529	5
	60	99	0.999041	443748.4	-587720.8	1	736429.5	-52.946	-8.6376E-011	0.0091802	5
