EXPLAIN
TAG	EISPOT
TITLE	LABEL	Potentiostatic EIS	Test &Identifier
DATE	LABEL	11/9/2019	Date
TIME	LABEL	11:20:05	Time
NOTES	NOTES	2	&Notes...
	
	
PSTAT	PSTAT	REF600-11020	Potentiostat
VDC	POTEN	0.00000E+000	T	DC &Voltage (V)
FREQINIT	QUANT	1.00000E+006	Initial Fre&q. (Hz)
FREQFINAL	QUANT	1.00000E+000	Final Fre&q. (Hz)
PTSPERDEC	QUANT	1.00000E+001	Points/&decade
VAC	QUANT	2.50000E+001	AC &Voltage (mV rms)
AREA	QUANT	1.00000E-002	&Area (cm^2)
CONDIT	TWOPARAM	T	5.00000E+000	0.00000E+000	Conditionin&g	Time(s)	E(V)
DELAY	TWOPARAM	T	5.00000E+000	0.00000E+000	Init. De&lay	Time(s)	Stab.(mV/s)
SPEED	SELECTOR	0	&Optimize for:
ZGUESS	QUANT	1.00000E+005	E&stimated Z (ohms)
OCVCURVE	TABLE	19
	Pt	T	Vf	Vm	Ach	Over
	#	s	V vs. Ref.	V	V	bits
	0	0.258333	7.95335E-002	7.95335E-002	5.57666E-004	...........
	1	0.516667	7.96329E-002	8.47365E-002	5.52566E-004	...........
	2	0.775	8.02408E-002	8.95429E-002	5.59032E-004	...........
	3	1.03333	8.19441E-002	9.37045E-002	5.58132E-004	...........
	4	1.29167	8.49398E-002	9.77653E-002	5.52799E-004	...........
	5	1.55	8.88375E-002	1.01894E-001	5.59166E-004	...........
	6	1.80833	9.30901E-002	1.06222E-001	5.55699E-004	...........
	7	2.06667	9.73300E-002	1.07700E-001	5.52799E-004	...........
	8	2.325	1.01285E-001	1.10348E-001	5.55066E-004	...........
	9	2.58333	1.04739E-001	1.13381E-001	5.56266E-004	...........
	10	2.84167	1.07711E-001	1.15978E-001	5.54466E-004	...........
	11	3.1	1.10430E-001	1.18400E-001	5.61699E-004	...........
	12	3.35833	1.13064E-001	1.20711E-001	5.53533E-004	...........
	13	3.61667	1.15631E-001	1.22801E-001	5.54499E-004	...........
	14	3.875	1.18084E-001	1.24794E-001	5.58766E-004	...........
	15	4.13333	1.20390E-001	1.26700E-001	5.51499E-004	...........
	16	4.39167	1.22546E-001	1.28461E-001	5.55399E-004	...........
	17	4.65	1.24565E-001	1.30100E-001	5.56499E-004	...........
	18	4.90833	1.26462E-001	1.31797E-001	5.58832E-004	...........
EOC	QUANT	0.1264623	Open Circuit (V)
PSTATMODEL	IQUANT	4	Pstat Model
PSTATSECTION	LABEL	REF600-11020	Pstat Section
PSTATSERIALNO	LABEL	11020	Pstat Serial Number
CTRLMODE	IQUANT	1	Control Mode
IESTAB	IQUANT	0	I/E Stability
CASPEED	IQUANT	1	Control Amp Speed
CONVENTION	IQUANT	1	Current Convention
ICHRANGE	IQUANT	2	Ich Range
ICHRANGEMODE	TOGGLE	F	Ich Auto Range
ICHOFFSETENABLE	TOGGLE	T	Ich Offset Enable
ICHOFFSET	QUANT	0	Ich Offset (V)
ICHFILTER	IQUANT	3	Ich Filter
VCHRANGE	IQUANT	2	Vch Range
VCHRANGEMODE	TOGGLE	F	Vch Auto Range
VCHOFFSETENABLE	TOGGLE	T	Vch Offset Enable
VCHOFFSET	QUANT	0	Vch Offset (V)
VCHFILTER	IQUANT	3	Vch Filter
ACHRANGE	IQUANT	2	Ach Range
ACHOFFSETENABLE	TOGGLE	F	Ach Offset Enable
ACHOFFSET	QUANT	0	Ach Offset (V)
ACHFILTER	IQUANT	3	Ach Filter
IERANGELOWERLIMIT	IQUANT	1	I/E Range Lower Limit
IERANGEMODE	TOGGLE	F	I/E AutoRange
IERANGE	IQUANT	6	I/E Range
POSFEEDENABLE	TOGGLE	F	Positive Feedback IR Comp
POSFEEDRESISTANCE	QUANT	0	Positive Feedback Resistance (ohm)
ACHSELECT	IQUANT	0	Ach Select
CABLEID	IQUANT	14	Cable ID
DCCALDATE	LABEL	8/19/2019	DC Calibration Date
ACCALDATE	LABEL	8/19/2019	AC Calibration Date
THERMOSELECT	IQUANT	1	Thermo Select
FRAMEWORKVERSION	QUANT	6.33	Framework Version
INSTRUMENTVERSION	LABEL	3.50	Instrument Version
ZCURVE	TABLE
	Pt	Time	Freq	Zreal	Zimag	Zsig	Zmod	Zphz	Idc	Vdc	IERange
	#	s	Hz	ohm	ohm	V	ohm	°	A	V	#
	0	1	1000078	2095.549	-1972.573	1	2877.91	-43.26852	-1.026898E-005	0.1303415	8
	1	1	794390.6	2443.041	-2074.767	1	3205.169	-40.33979	7.394531E-006	0.1274743	8
	2	2	630984.4	2820.896	-2156.315	1	3550.655	-37.39458	1.763245E-006	0.1274132	8
	3	2	501234.4	3218.023	-2221.238	1	3910.188	-34.61535	-5.191604E-006	0.1288771	8
	4	2	398109.4	3644.599	-2203.473	1	4258.92	-31.15657	-2.158838E-006	0.1282236	8
	5	3	316265.6	4048.925	-2180.499	1	4598.735	-28.30414	5.052799E-006	0.1279861	8
	6	3	251203.1	4429.393	-2060.203	1	4885.075	-24.94412	-5.225607E-007	0.1276848	8
	7	3	199546.9	4775.79	-1942.019	1	5155.542	-22.12854	7.249323E-006	0.1266683	8
	8	4	158578.1	5087.432	-1817.847	1	5402.457	-19.66289	2.043708E-006	0.128391	8
	9	4	125953.1	5328.348	-1529.35	1	5543.483	-16.01461	-2.340317E-006	0.1275444	7
	10	4	100078.1	5624.383	-1412.7	1	5799.087	-14.09955	6.278644E-007	0.125756	7
	11	4	79453.13	5803.687	-1332.387	1	5954.665	-12.92968	1.479884E-006	0.1264386	7
	12	5	63140.62	5883.446	-1197.197	1	6004.017	-11.50184	-1.21028E-006	0.1302439	7
	13	5	50203.12	6092.003	-1117.523	1	6193.655	-10.39482	1.31124E-006	0.125702	7
	14	6	39890.62	6127.602	-1022.173	1	6212.273	-9.47056	-9.961381E-007	0.1277764	7
	15	6	31640.63	6317.838	-1011.761	1	6398.338	-9.098294	1.111773E-006	0.1276808	7
	16	7	25171.88	6311.423	-972.948	1	6385.976	-8.763542	-1.206057E-006	0.130232	7
	17	7	20015.62	6421.395	-962.133	1	6493.074	-8.521375	-1.473409E-006	0.1301554	7
	18	7	15890.62	6520.743	-974.271	1	6593.125	-8.497758	-9.877995E-007	0.1277707	7
	19	8	12609.37	6691.396	-1051.577	1	6773.521	-8.931188	1.116525E-006	0.127665	7
	20	8	10078.13	6786.727	-1100.106	1	6875.31	-9.207373	1.467768E-006	0.1259799	7
	21	9	8015.625	6798.454	-1161.388	1	6896.941	-9.69433	-1.638101E-006	0.1294262	7
	22	9	6328.125	7039.293	-1279.356	1	7154.607	-10.30078	1.468643E-006	0.1264339	7
	23	10	5015.625	7061.245	-1385.567	1	7195.9	-11.10161	-1.477927E-006	0.130155	7
	24	10	3984.375	7228.899	-1526.82	1	7388.38	-11.9262	-1.467929E-006	0.1301374	7
	25	10	3170.956	7398.769	-1724.699	1	7597.129	-13.12168	-1.625473E-006	0.12942	7
	26	11	2527.573	7660.892	-1948.977	1	7904.921	-14.27359	1.450669E-006	0.1259892	7
	27	11	1976.103	7799.237	-2212.161	1	8106.896	-15.83536	1.361097E-006	0.1270069	7
	28	11	1577.524	8028.249	-2468.97	1	8399.321	-17.09451	1.478749E-006	0.1264213	7
	29	12	1265.625	8184.345	-2788.582	1	8646.369	-18.81508	1.394416E-007	0.1261419	7
	30	12	998.264	8490.194	-3278.904	1	9101.353	-21.11651	1.297234E-006	0.1256989	7
	31	13	796.875	8573.453	-3695.581	1	9336.027	-23.31842	-1.400557E-006	0.1286637	7
	32	13	627.7902	8854.15	-4391.106	1	9883.21	-26.37854	-8.425254E-007	0.130107	7
	33	14	505.5147	9106.006	-5096.458	1	10435.19	-29.23491	9.932182E-008	0.1292657	7
	34	14	397.9953	9372.801	-6124.298	1	11196.27	-33.16107	-5.947548E-009	0.1279297	6
	35	14	315.5048	9682.09	-7363.706	1	12164.17	-37.25476	-2.969666E-009	0.1279383	6
	36	15	252.4038	10028.8	-8836.978	1	13366.71	-41.38521	-3.173532E-009	0.1279223	6
	37	15	198.6229	10481.71	-10799.08	1	15049.46	-45.85442	-4.947375E-009	0.12793	6
	38	15	158.3615	11034.82	-13101.73	1	17129.58	-49.89452	-5.002973E-009	0.1279218	6
	39	16	125.558	11757.23	-15997.89	1	19853.58	-53.68696	-4.972393E-009	0.1279304	6
	40	16	100.4464	12633.63	-19367.95	1	23124.15	-56.88376	-6.577072E-009	0.1279259	6
	41	16	79.00281	13963.79	-23718.86	1	27524.03	-59.51379	-5.462591E-009	0.1279353	6
	42	17	63.3446	15468.42	-29372.39	1	33196.52	-62.2273	-4.332349E-009	0.127931	6
	43	17	49.86702	17423.93	-35545.99	1	39586.75	-63.88683	-4.19655E-009	0.1279282	6
	44	17	39.72458	20477.19	-42573.88	1	47242.46	-64.31338	-4.39677E-009	0.1279332	6
	45	18	31.6723	24144.4	-50887.01	1	56324.42	-64.61703	-3.731872E-009	0.1279337	6
	46	18	24.93351	28663.89	-61736.16	1	68065.94	-65.09472	-5.88192E-009	0.1279244	6
	47	18	19.86229	34820.8	-73673.78	1	81488.13	-64.70294	-6.418497E-009	0.1279329	6
	48	18	15.83615	41694.66	-86262.66	1	95810.7	-64.20341	-3.09276E-009	0.1279324	6
	49	19	12.40079	51336.66	-102496.9	1	114634.5	-63.39552	-7.831339E-009	0.1279401	5
	50	19	9.93114	63652.55	-120260.8	1	136067.3	-62.10828	-5.588431E-009	0.1279307	5
	51	20	7.944915	76909.48	-138888.8	1	158761.4	-61.02458	-5.494296E-009	0.1279408	5
	52	20	6.317385	93999.7	-160530.6	1	186027	-59.64863	-5.00738E-009	0.127946	5
	53	21	5.008013	113109.3	-184051.3	1	216029.2	-58.42707	-4.872271E-009	0.1279309	5
	54	22	3.945707	135633.9	-211431.3	1	251196.6	-57.31968	-4.163391E-009	0.1279389	5
	55	24	3.158693	157927	-239558.6	1	286930.8	-56.60547	-4.259213E-009	0.1279418	5
	56	25	2.504006	184444.8	-274106.9	1	330385.3	-56.06364	-4.435558E-009	0.1279391	5
	57	26	1.998082	212994.1	-312209	1	377943.1	-55.69755	-4.0883E-009	0.1279547	5
	58	28	1.584686	247841.3	-359464.7	1	436623.6	-55.41478	-3.866688E-009	0.1279794	5
	59	30	1.266892	285973.9	-412154.7	1	501649.8	-55.24512	-3.786757E-009	0.1279506	5
	60	33	0.999041	334711.3	-475561.9	1	581541.8	-54.86124	-3.698726E-009	0.1279223	5
