EXPLAIN
TAG	EISPOT
TITLE	LABEL	Potentiostatic EIS	Test &Identifier
DATE	LABEL	10/4/2019	Date
TIME	LABEL	9:24:02	Time
NOTES	NOTES	2	&Notes...
	
	
PSTAT	PSTAT	REF600-11020	Potentiostat
VDC	POTEN	0.00000E+000	T	DC &Voltage (V)
FREQINIT	QUANT	1.00000E+006	Initial Fre&q. (Hz)
FREQFINAL	QUANT	1.00000E+000	Final Fre&q. (Hz)
PTSPERDEC	QUANT	1.00000E+001	Points/&decade
VAC	QUANT	2.50000E+001	AC &Voltage (mV rms)
AREA	QUANT	1.00000E-002	&Area (cm^2)
CONDIT	TWOPARAM	T	5.00000E+000	0.00000E+000	Conditionin&g	Time(s)	E(V)
DELAY	TWOPARAM	T	5.00000E+000	0.00000E+000	Init. De&lay	Time(s)	Stab.(mV/s)
SPEED	SELECTOR	1	&Optimize for:
ZGUESS	QUANT	1.00000E+004	E&stimated Z (ohms)
OCVCURVE	TABLE	19
	Pt	T	Vf	Vm	Ach	Over
	#	s	V vs. Ref.	V	V	bits
	0	0.258333	2.53975E-003	2.53975E-003	5.79399E-004	...........
	1	0.516667	2.53290E-003	2.18130E-003	5.75132E-004	...........
	2	0.775	2.49127E-003	1.86338E-003	5.75332E-004	...........
	3	1.03333	2.37546E-003	1.58809E-003	5.71366E-004	...........
	4	1.29167	2.17367E-003	1.33727E-003	5.73066E-004	...........
	5	1.55	1.91507E-003	1.09812E-003	5.71366E-004	...........
	6	1.80833	1.64085E-003	8.91812E-004	5.76466E-004	...........
	7	2.06667	1.37801E-003	6.83244E-004	5.76966E-004	...........
	8	2.325	1.13633E-003	5.06718E-004	5.78966E-004	...........
	9	2.58333	9.15986E-004	3.37938E-004	5.80399E-004	...........
	10	2.84167	7.14314E-004	1.66973E-004	5.81732E-004	...........
	11	3.1	5.27982E-004	1.66440E-005	5.81165E-004	...........
	12	3.35833	3.53636E-004	-1.31338E-004	5.76432E-004	...........
	13	3.61667	1.89551E-004	-2.46720E-004	5.82299E-004	...........
	14	3.875	3.59842E-005	-3.87577E-004	5.80266E-004	...........
	15	4.13333	-1.08517E-004	-5.76919E-004	5.80232E-004	...........
	16	4.39167	-2.51863E-004	-7.79169E-004	5.74932E-004	...........
	17	4.65	-4.05496E-004	-9.55786E-004	5.73866E-004	...........
	18	4.90833	-5.72876E-004	-1.04817E-003	5.75365E-004	...........
EOC	QUANT	-0.0005729	Open Circuit (V)
PSTATMODEL	IQUANT	4	Pstat Model
PSTATSECTION	LABEL	REF600-11020	Pstat Section
PSTATSERIALNO	LABEL	11020	Pstat Serial Number
CTRLMODE	IQUANT	1	Control Mode
IESTAB	IQUANT	0	I/E Stability
CASPEED	IQUANT	1	Control Amp Speed
CONVENTION	IQUANT	1	Current Convention
ICHRANGE	IQUANT	2	Ich Range
ICHRANGEMODE	TOGGLE	F	Ich Auto Range
ICHOFFSETENABLE	TOGGLE	T	Ich Offset Enable
ICHOFFSET	QUANT	0	Ich Offset (V)
ICHFILTER	IQUANT	3	Ich Filter
VCHRANGE	IQUANT	2	Vch Range
VCHRANGEMODE	TOGGLE	F	Vch Auto Range
VCHOFFSETENABLE	TOGGLE	T	Vch Offset Enable
VCHOFFSET	QUANT	0	Vch Offset (V)
VCHFILTER	IQUANT	3	Vch Filter
ACHRANGE	IQUANT	2	Ach Range
ACHOFFSETENABLE	TOGGLE	F	Ach Offset Enable
ACHOFFSET	QUANT	0	Ach Offset (V)
ACHFILTER	IQUANT	3	Ach Filter
IERANGELOWERLIMIT	IQUANT	1	I/E Range Lower Limit
IERANGEMODE	TOGGLE	F	I/E AutoRange
IERANGE	IQUANT	5	I/E Range
POSFEEDENABLE	TOGGLE	F	Positive Feedback IR Comp
POSFEEDRESISTANCE	QUANT	0	Positive Feedback Resistance (ohm)
ACHSELECT	IQUANT	0	Ach Select
CABLEID	IQUANT	14	Cable ID
DCCALDATE	LABEL	8/19/2019	DC Calibration Date
ACCALDATE	LABEL	8/19/2019	AC Calibration Date
THERMOSELECT	IQUANT	1	Thermo Select
FRAMEWORKVERSION	QUANT	6.33	Framework Version
INSTRUMENTVERSION	LABEL	3.50	Instrument Version
ZCURVE	TABLE
	Pt	Time	Freq	Zreal	Zimag	Zsig	Zmod	Zphz	Idc	Vdc	IERange
	#	s	Hz	ohm	ohm	V	ohm	°	A	V	#
	0	1	1000078	2623.808	-1478.681	1	3011.788	-29.40401	-4.565993E-006	0.0019367	8
	1	3	794390.6	2892.71	-1350.416	1	3192.396	-25.02478	-4.204673E-007	0.0018464	8
	2	4	630984.4	3105.8	-1210.713	1	3333.439	-21.297	5.438781E-006	4.222754E-005	8
	3	6	501234.4	3279.543	-1051.991	1	3444.139	-17.78488	-1.321038E-006	0.0013395	8
	4	7	398109.4	3407.762	-911.2285	1	3527.489	-14.97052	4.019909E-006	0.0004124	8
	5	8	316265.6	3512.24	-779.1	1	3597.614	-12.50708	2.169966E-006	0.0005658	8
	6	10	251203.1	3585.238	-674.8163	1	3648.192	-10.65955	-1.243557E-006	0.0014633	8
	7	11	199546.9	3635.407	-595.0587	1	3683.786	-9.295979	1.444901E-006	0.0009107	8
	8	13	158578.1	3682.121	-527.1889	1	3719.669	-8.147969	-9.358731E-007	0.0009997	8
	9	14	125953.1	3750.71	-421.0867	1	3774.273	-6.40569	5.330912E-007	-0.0004252	7
	10	15	100078.1	3766.4	-389.5099	1	3786.488	-5.904368	4.328636E-008	0.0009782	7
	11	17	79453.13	3795.405	-377.0098	1	3814.083	-5.672766	-5.743793E-009	0.0010292	7
	12	18	63140.62	3826.881	-373.442	1	3845.058	-5.573499	1.51872E-008	0.0010958	7
	13	19	50203.12	3859.261	-378.7608	1	3877.803	-5.605248	5.407377E-008	0.0009181	7
	14	21	39890.62	3893.226	-391.8238	1	3912.894	-5.747036	-6.515499E-008	0.0011287	7
	15	22	31640.63	3929.947	-414.0171	1	3951.695	-6.013886	5.024826E-008	0.0008537	7
	16	23	25171.88	3970.103	-445.4685	1	3995.017	-6.402139	1.091438E-007	0.000899	7
	17	25	20015.62	4012.814	-485.9468	1	4042.131	-6.904825	-1.233779E-009	0.000944	7
	18	26	15890.62	4060.561	-535.6083	1	4095.734	-7.51422	-3.209735E-008	0.0010001	7
	19	27	12609.37	4113.391	-598.9901	1	4156.774	-8.285151	-7.66903E-009	0.0009892	7
	20	29	10078.13	4168.604	-669.5404	1	4222.031	-9.124632	-4.307853E-008	0.00101	7
	21	30	8015.625	4227.068	-753.9937	1	4293.787	-10.11364	-1.233766E-009	0.0009315	7
	22	32	6328.125	4296.042	-864.4141	1	4382.145	-11.37667	1.085421E-007	0.0008954	7
	23	33	5015.625	4369.716	-992.908	1	4481.103	-12.80165	-6.593873E-009	0.000983	7
	24	34	3984.375	4446.919	-1148.434	1	4592.82	-14.48047	-8.158691E-008	0.0012519	7
	25	36	3170.956	4530.865	-1333.272	1	4722.96	-16.39727	7.447117E-009	0.0009767	7
	26	37	2527.573	4620.954	-1557.02	1	4876.22	-18.62113	-4.171273E-008	0.001017	7
	27	38	1976.103	4730.7	-1856.033	1	5081.77	-21.42196	-8.382003E-008	0.0012445	7
	28	40	1577.524	4844.911	-2189.7	1	5316.761	-24.321	-8.357E-008	0.0011228	7
	29	41	1265.625	4963.236	-2587.689	1	5597.307	-27.53625	-6.847036E-009	0.0009906	7
	30	42	998.264	5111.351	-3113.466	1	5984.946	-31.34676	-8.076701E-008	0.0011252	7
	31	44	796.875	5267.02	-3718.664	1	6447.477	-35.22316	8.16998E-009	0.000974	7
	32	45	627.7902	5457.228	-4513.23	1	7081.708	-39.59139	1.992972E-008	0.0010936	7
	33	47	505.5147	5647.752	-5404.185	1	7816.797	-43.73749	7.973086E-009	0.000966	7
	34	48	397.9953	5896.878	-6592.452	1	8844.976	-48.18771	4.928477E-009	0.0010225	7
	35	49	315.5048	6181.569	-8038.123	1	10140.18	-52.43858	6.442081E-010	0.0009591	6
	36	51	252.4038	6504.428	-9755.5	1	11725.07	-56.30682	1.315676E-009	0.0009596	6
	37	52	198.6229	6932.719	-12038.48	1	13892	-60.06323	9.471264E-010	0.0009659	6
	38	53	158.3615	7442.508	-14707.21	1	16483.11	-63.15855	4.385702E-010	0.0009633	6
	39	55	125.558	8102.607	-18074.16	1	19807.26	-65.85341	8.997096E-010	0.0009596	6
	40	56	100.4464	8923.893	-22051.59	1	23788.83	-67.96768	3.142036E-010	0.0009592	6
	41	58	79.00281	10064.75	-27261.09	1	29059.71	-69.73593	1.281229E-009	0.0009589	6
	42	59	63.3446	11651.04	-33284.71	1	35264.98	-70.70782	6.93916E-010	0.0009611	6
	43	60	49.86702	13315.04	-40932.82	1	43044	-71.98081	1.481424E-010	0.0009558	6
	44	62	39.72458	15955.04	-49858.61	1	52349.25	-72.25503	6.200787E-010	0.0009664	6
	45	63	31.6723	19186.28	-60668.04	1	63629.59	-72.45043	8.218337E-010	0.0009655	6
	46	65	24.93351	23734.74	-74221.47	1	77924.09	-72.26662	3.991704E-010	0.0009644	6
	47	66	19.86229	29335.48	-89703.64	1	94378.56	-71.89088	4.277679E-010	0.000966	6
	48	67	15.83615	36090.9	-108095.6	1	113961.5	-71.5369	-5.40428E-010	0.0009729	5
	49	69	12.40079	46390.27	-131561.7	1	139501	-70.57672	-1.248839E-010	0.0009678	5
	50	70	9.93114	57945.11	-155714.4	1	166146.3	-69.58855	5.943106E-010	0.0009614	5
	51	72	7.944915	72284.81	-184046.8	1	197733	-68.55747	-1.254604E-011	0.000962	5
	52	73	6.317385	90334.34	-217587.6	1	235594.2	-67.45358	4.56914E-010	0.0009525	5
	53	75	5.008013	112748.8	-256806.4	1	280467.2	-66.2965	3.064893E-010	0.0009694	5
	54	78	3.945707	140546.8	-302780.8	1	333810.7	-65.09991	3.423004E-012	0.0009564	5
	55	81	3.158693	171468.3	-351615.1	1	391196.3	-64.0034	4.016354E-010	0.0009813	5
	56	84	2.504006	209776.7	-410109.2	1	460647.1	-62.90961	-9.483794E-011	0.0009633	5
	57	87	1.998082	252916.8	-473657	1	536952.4	-61.8993	1.1127E-010	0.0009342	5
	58	90	1.584686	304975.4	-546765.2	1	626068.8	-60.84804	1.383345E-010	0.0009996	5
	59	93	1.266892	362514.2	-629847.8	1	726721.9	-60.07706	5.271526E-011	0.0009384	5
	60	98	0.999041	434616.8	-728226.8	1	848060.2	-59.1706	3.3888E-010	0.0010036	5
