EXPLAIN
TAG	EISPOT
TITLE	LABEL	Potentiostatic EIS	Test &Identifier
DATE	LABEL	9/20/2019	Date
TIME	LABEL	12:10:51	Time
NOTES	NOTES	1	&Notes...
	
PSTAT	PSTAT	REF600-11020	Potentiostat
VDC	POTEN	0.00000E+000	T	DC &Voltage (V)
FREQINIT	QUANT	1.00000E+006	Initial Fre&q. (Hz)
FREQFINAL	QUANT	1.00000E+000	Final Fre&q. (Hz)
PTSPERDEC	QUANT	1.00000E+001	Points/&decade
VAC	QUANT	2.50000E+001	AC &Voltage (mV rms)
AREA	QUANT	1.00000E-002	&Area (cm^2)
CONDIT	TWOPARAM	T	5.00000E+000	0.00000E+000	Conditionin&g	Time(s)	E(V)
DELAY	TWOPARAM	T	5.00000E+000	0.00000E+000	Init. De&lay	Time(s)	Stab.(mV/s)
SPEED	SELECTOR	1	&Optimize for:
ZGUESS	QUANT	1.00000E+004	E&stimated Z (ohms)
OCVCURVE	TABLE	19
	Pt	T	Vf	Vm	Ach	Over
	#	s	V vs. Ref.	V	V	bits
	0	0.258333	1.68303E-003	1.68303E-003	5.67499E-004	...........
	1	0.516667	1.67741E-003	1.38853E-003	5.62499E-004	...........
	2	0.775	1.64291E-003	1.11215E-003	5.66399E-004	...........
	3	1.03333	1.54588E-003	8.66356E-004	5.64832E-004	...........
	4	1.29167	1.37457E-003	6.48062E-004	5.67199E-004	...........
	5	1.55	1.15208E-003	4.37521E-004	5.64766E-004	...........
	6	1.80833	9.13194E-004	2.33819E-004	5.67099E-004	...........
	7	2.06667	6.80952E-004	5.34208E-005	5.65399E-004	...........
	8	2.325	4.63747E-004	-1.18271E-004	5.58699E-004	...........
	9	2.58333	2.62443E-004	-2.85786E-004	5.62266E-004	...........
	10	2.84167	7.53692E-005	-4.36216E-004	5.63432E-004	...........
	11	3.1	-9.97345E-005	-5.88019E-004	5.58899E-004	...........
	12	3.35833	-2.64679E-004	-7.21161E-004	5.70732E-004	...........
	13	3.61667	-4.20330E-004	-8.45245E-004	5.68766E-004	...........
	14	3.875	-5.66689E-004	-9.69984E-004	5.67599E-004	...........
	15	4.13333	-7.04252E-004	-1.10202E-003	5.67999E-004	...........
	16	4.39167	-8.35134E-004	-1.21176E-003	5.67666E-004	...........
	17	4.65	-9.61438E-004	-1.32548E-003	5.71166E-004	...........
	18	4.90833	-1.08342E-003	-1.42911E-003	5.69632E-004	...........
EOC	QUANT	-0.0010834	Open Circuit (V)
PSTATMODEL	IQUANT	4	Pstat Model
PSTATSECTION	LABEL	REF600-11020	Pstat Section
PSTATSERIALNO	LABEL	11020	Pstat Serial Number
CTRLMODE	IQUANT	1	Control Mode
IESTAB	IQUANT	0	I/E Stability
CASPEED	IQUANT	1	Control Amp Speed
CONVENTION	IQUANT	1	Current Convention
ICHRANGE	IQUANT	2	Ich Range
ICHRANGEMODE	TOGGLE	F	Ich Auto Range
ICHOFFSETENABLE	TOGGLE	T	Ich Offset Enable
ICHOFFSET	QUANT	0	Ich Offset (V)
ICHFILTER	IQUANT	3	Ich Filter
VCHRANGE	IQUANT	2	Vch Range
VCHRANGEMODE	TOGGLE	F	Vch Auto Range
VCHOFFSETENABLE	TOGGLE	T	Vch Offset Enable
VCHOFFSET	QUANT	0	Vch Offset (V)
VCHFILTER	IQUANT	3	Vch Filter
ACHRANGE	IQUANT	2	Ach Range
ACHOFFSETENABLE	TOGGLE	F	Ach Offset Enable
ACHOFFSET	QUANT	0	Ach Offset (V)
ACHFILTER	IQUANT	3	Ach Filter
IERANGELOWERLIMIT	IQUANT	1	I/E Range Lower Limit
IERANGEMODE	TOGGLE	F	I/E AutoRange
IERANGE	IQUANT	5	I/E Range
POSFEEDENABLE	TOGGLE	F	Positive Feedback IR Comp
POSFEEDRESISTANCE	QUANT	0	Positive Feedback Resistance (ohm)
ACHSELECT	IQUANT	0	Ach Select
CABLEID	IQUANT	14	Cable ID
DCCALDATE	LABEL	8/19/2019	DC Calibration Date
ACCALDATE	LABEL	8/19/2019	AC Calibration Date
THERMOSELECT	IQUANT	1	Thermo Select
FRAMEWORKVERSION	QUANT	6.33	Framework Version
INSTRUMENTVERSION	LABEL	3.50	Instrument Version
ZCURVE	TABLE
	Pt	Time	Freq	Zreal	Zimag	Zsig	Zmod	Zphz	Idc	Vdc	IERange
	#	s	Hz	ohm	ohm	V	ohm	°	A	V	#
	0	1	1000078	2404.888	-1726.686	1	2960.563	-35.67798	-1.123915E-006	0.0013311	8
	1	3	794390.6	2751.959	-1671.292	1	3219.705	-31.27072	5.029126E-006	0.0001652	8
	2	4	630984.4	3072.49	-1559.61	1	3445.66	-26.91256	2.556385E-006	4.694132E-005	8
	3	5	501234.4	3336.28	-1419.078	1	3625.541	-23.04236	6.160819E-007	0.0007417	8
	4	7	398109.4	3566.076	-1257.875	1	3781.422	-19.42945	-2.162451E-006	0.0010737	8
	5	8	316265.6	3746.257	-1111.758	1	3907.742	-16.52904	3.730551E-006	-4.823206E-005	8
	6	9	251203.1	3874.854	-966.333	1	3993.532	-14.00311	-4.480346E-007	0.0005548	8
	7	11	199546.9	3953.097	-829.1514	1	4039.118	-11.84591	1.899511E-006	0.0001781	8
	8	12	158578.1	4052.107	-727.8107	1	4116.95	-10.18249	8.840796E-007	0.0005985	8
	9	13	125953.1	4143.186	-580.7798	1	4183.693	-7.979564	-4.40233E-007	0.0015925	7
	10	15	100078.1	4179.867	-516.7902	1	4211.693	-7.048164	-5.538334E-008	0.0007238	7
	11	16	79453.13	4220.957	-471.9025	1	4247.254	-6.379172	4.095477E-008	0.000406	7
	12	18	63140.62	4256.913	-439.7098	1	4279.563	-5.897346	8.80737E-008	0.0004943	7
	13	19	50203.12	4290.292	-417.1866	1	4310.527	-5.553962	8.728142E-008	0.0004884	7
	14	20	39890.62	4321.403	-414.0766	1	4341.196	-5.473367	-2.403221E-008	0.0005272	7
	15	22	31640.63	4353.414	-413.0284	1	4372.963	-5.419692	-2.551519E-008	0.0005263	7
	16	23	25171.88	4387.004	-426.2765	1	4407.666	-5.549893	-7.337329E-008	0.0006631	7
	17	24	20015.62	4419.496	-452.3513	1	4442.585	-5.844079	-5.343151E-008	0.0007101	7
	18	26	15890.62	4456.542	-490.0494	1	4483.404	-6.275137	-6.664187E-009	0.0005836	7
	19	27	12609.37	4494.213	-540.6691	1	4526.619	-6.85991	-7.093952E-009	0.000491	7
	20	28	10078.13	4536.35	-605.0208	1	4576.518	-7.596804	-5.70939E-009	0.0006687	7
	21	30	8015.625	4581.727	-686.2914	1	4632.841	-8.518931	4.358953E-008	0.0004912	7
	22	31	6328.125	4635.063	-792.7432	1	4702.366	-9.70549	-5.251514E-009	0.0006709	7
	23	32	5015.625	4691.924	-920.2044	1	4781.311	-11.0963	4.334104E-008	0.0004947	7
	24	34	3984.375	4755.533	-1074.438	1	4875.398	-12.73133	8.486545E-008	0.0003634	7
	25	35	3170.956	4825.695	-1263.874	1	4988.458	-14.67641	1.322446E-008	0.0004602	7
	26	37	2527.573	4903.545	-1490.279	1	5125.006	-16.905	7.066354E-008	0.0004245	7
	27	38	1976.103	4999.16	-1794.469	1	5311.47	-19.74581	-7.279041E-008	0.0006503	7
	28	39	1577.524	5103.646	-2135.195	1	5532.292	-22.7028	-4.963983E-009	0.0005601	7
	29	41	1265.625	5217.681	-2538.402	1	5802.386	-25.94293	-5.191724E-008	0.0007078	7
	30	42	998.264	5357.965	-3068.25	1	6174.297	-29.7977	-4.16332E-008	0.0005728	7
	31	43	796.875	5513.962	-3685.353	1	6632.165	-33.75748	-7.258384E-008	0.0006562	7
	32	45	627.7902	5709.737	-4481.472	1	7258.422	-38.12775	-7.468641E-009	0.0004876	7
	33	46	505.5147	5915.567	-5366.584	1	7987.125	-42.21421	-3.827118E-008	0.0005497	7
	34	47	397.9953	6188.439	-6565.005	1	9021.978	-46.69126	6.201917E-009	0.0005547	7
	35	49	315.5048	6506.973	-7992.967	1	10306.71	-50.8514	6.510859E-010	0.0004958	6
	36	50	252.4038	6870.624	-9673.62	1	11865.26	-54.61598	8.013658E-010	0.0004935	6
	37	52	198.6229	7346.739	-11889.45	1	13976.18	-58.28722	1.094215E-009	0.0004929	6
	38	53	158.3615	7897.594	-14463.22	1	16478.98	-61.3634	1.110536E-009	0.0004899	6
	39	54	125.558	8602.865	-17702.42	1	19682.1	-64.08159	9.596123E-010	0.0004886	6
	40	56	100.4464	9458.333	-21507.14	1	23495.04	-66.26124	1.825114E-009	0.0004926	6
	41	57	79.00281	10602.64	-26509.66	1	28551.32	-68.20086	1.279931E-009	0.0004969	6
	42	58	63.3446	11857.81	-32040.8	1	34164.61	-69.69126	6.436005E-010	0.0004957	6
	43	60	49.86702	14102.47	-39820.71	1	42244.15	-70.49845	3.876302E-010	0.000491	6
	44	61	39.72458	16411.28	-48460.45	1	51163.9	-71.29118	1.205113E-009	0.0004967	6
	45	63	31.6723	19600.95	-58773.65	1	61955.94	-71.55651	4.744676E-010	0.000493	6
	46	64	24.93351	24334.7	-72210.73	1	76200.83	-71.37641	1.039908E-009	0.0004916	6
	47	65	19.86229	30341.4	-87300.55	1	92422.88	-70.83505	4.473015E-010	0.0004875	6
	48	67	15.83615	38218.6	-104453.6	1	111226	-69.9029	3.134307E-010	0.0004944	5
	49	68	12.40079	49113.99	-128122.1	1	137213.2	-69.0263	4.744621E-010	0.0005022	5
	50	70	9.93114	63192.43	-150503.1	1	163231.3	-67.22369	-2.028432E-010	0.0005035	5
	51	71	7.944915	80344.38	-176323.9	1	193766.2	-65.50297	8.754864E-010	0.0004996	5
	52	73	6.317385	101742.6	-205968.3	1	229727	-63.71191	-1.710612E-010	0.0005071	5
	53	75	5.008013	128728.1	-238454.8	1	270982.7	-61.63792	2.170156E-011	0.0004911	5
	54	77	3.945707	161100.5	-272973	1	316966.2	-59.45217	7.805229E-010	0.0005015	5
	55	80	3.158693	196349.5	-308199.6	1	365431.4	-57.49937	-1.045185E-010	0.0004844	5
	56	83	2.504006	236320.3	-346565.6	1	419469.8	-55.71024	7.191241E-010	0.0005009	5
	57	86	1.998082	279810.2	-386523.5	1	477173.1	-54.09865	5.882642E-010	0.000517	5
	58	89	1.584686	326185.9	-429324.7	1	539181.8	-52.7737	2.582204E-010	0.0004524	5
	59	93	1.266892	373523.8	-478240.2	1	606822.6	-52.00881	4.283694E-010	0.0005071	5
	60	97	0.999041	426872.5	-537742.3	1	686576.3	-51.55663	-1.458367E-010	0.0004679	5
