EXPLAIN
TAG	EISPOT
TITLE	LABEL	Potentiostatic EIS	Test &Identifier
DATE	LABEL	9/22/2019	Date
TIME	LABEL	9:19:03	Time
NOTES	NOTES	1	&Notes...
	
PSTAT	PSTAT	REF600-11020	Potentiostat
VDC	POTEN	0.00000E+000	T	DC &Voltage (V)
FREQINIT	QUANT	1.00000E+006	Initial Fre&q. (Hz)
FREQFINAL	QUANT	1.00000E+000	Final Fre&q. (Hz)
PTSPERDEC	QUANT	1.00000E+001	Points/&decade
VAC	QUANT	2.50000E+001	AC &Voltage (mV rms)
AREA	QUANT	1.00000E-002	&Area (cm^2)
CONDIT	TWOPARAM	T	5.00000E+000	0.00000E+000	Conditionin&g	Time(s)	E(V)
DELAY	TWOPARAM	T	5.00000E+000	0.00000E+000	Init. De&lay	Time(s)	Stab.(mV/s)
SPEED	SELECTOR	1	&Optimize for:
ZGUESS	QUANT	1.00000E+004	E&stimated Z (ohms)
OCVCURVE	TABLE	19
	Pt	T	Vf	Vm	Ach	Over
	#	s	V vs. Ref.	V	V	bits
	0	0.258333	-2.33839E-002	-2.33839E-002	5.48133E-004	...........
	1	0.516667	-2.34095E-002	-2.47203E-002	5.52733E-004	...........
	2	0.775	-2.35658E-002	-2.59656E-002	5.55999E-004	...........
	3	1.03333	-2.40055E-002	-2.70945E-002	5.55733E-004	...........
	4	1.29167	-2.47831E-002	-2.81285E-002	5.57333E-004	...........
	5	1.55	-2.57964E-002	-2.90253E-002	5.54199E-004	...........
	6	1.80833	-2.68859E-002	-2.99488E-002	5.54566E-004	...........
	7	2.06667	-2.79421E-002	-3.08365E-002	5.51533E-004	...........
	8	2.325	-2.89285E-002	-3.15808E-002	5.45299E-004	...........
	9	2.58333	-2.98452E-002	-3.22884E-002	5.51166E-004	...........
	10	2.84167	-3.06954E-002	-3.29851E-002	5.52466E-004	...........
	11	3.1	-3.14821E-002	-3.36218E-002	5.46566E-004	...........
	12	3.35833	-3.22137E-002	-3.42097E-002	5.50099E-004	...........
	13	3.61667	-3.28981E-002	-3.47871E-002	5.49099E-004	...........
	14	3.875	-3.35390E-002	-3.52247E-002	5.46633E-004	...........
	15	4.13333	-3.41375E-002	-3.58807E-002	5.49466E-004	...........
	16	4.39167	-3.47029E-002	-3.63754E-002	5.48633E-004	...........
	17	4.65	-3.52507E-002	-3.68359E-002	5.51266E-004	...........
	18	4.90833	-3.57855E-002	-3.72762E-002	5.47966E-004	...........
EOC	QUANT	-0.0357855	Open Circuit (V)
PSTATMODEL	IQUANT	4	Pstat Model
PSTATSECTION	LABEL	REF600-11020	Pstat Section
PSTATSERIALNO	LABEL	11020	Pstat Serial Number
CTRLMODE	IQUANT	1	Control Mode
IESTAB	IQUANT	0	I/E Stability
CASPEED	IQUANT	1	Control Amp Speed
CONVENTION	IQUANT	1	Current Convention
ICHRANGE	IQUANT	2	Ich Range
ICHRANGEMODE	TOGGLE	F	Ich Auto Range
ICHOFFSETENABLE	TOGGLE	T	Ich Offset Enable
ICHOFFSET	QUANT	0	Ich Offset (V)
ICHFILTER	IQUANT	3	Ich Filter
VCHRANGE	IQUANT	2	Vch Range
VCHRANGEMODE	TOGGLE	F	Vch Auto Range
VCHOFFSETENABLE	TOGGLE	T	Vch Offset Enable
VCHOFFSET	QUANT	0	Vch Offset (V)
VCHFILTER	IQUANT	3	Vch Filter
ACHRANGE	IQUANT	2	Ach Range
ACHOFFSETENABLE	TOGGLE	F	Ach Offset Enable
ACHOFFSET	QUANT	0	Ach Offset (V)
ACHFILTER	IQUANT	3	Ach Filter
IERANGELOWERLIMIT	IQUANT	1	I/E Range Lower Limit
IERANGEMODE	TOGGLE	F	I/E AutoRange
IERANGE	IQUANT	6	I/E Range
POSFEEDENABLE	TOGGLE	F	Positive Feedback IR Comp
POSFEEDRESISTANCE	QUANT	0	Positive Feedback Resistance (ohm)
ACHSELECT	IQUANT	0	Ach Select
CABLEID	IQUANT	14	Cable ID
DCCALDATE	LABEL	8/19/2019	DC Calibration Date
ACCALDATE	LABEL	8/19/2019	AC Calibration Date
THERMOSELECT	IQUANT	1	Thermo Select
FRAMEWORKVERSION	QUANT	6.33	Framework Version
INSTRUMENTVERSION	LABEL	3.50	Instrument Version
ZCURVE	TABLE
	Pt	Time	Freq	Zreal	Zimag	Zsig	Zmod	Zphz	Idc	Vdc	IERange
	#	s	Hz	ohm	ohm	V	ohm	°	A	V	#
	0	2	1000078	2096.432	-1982.315	1	2885.238	-43.39738	7.175629E-006	-0.034882	8
	1	4	794390.6	2455.295	-2082.848	1	3219.741	-40.30824	-6.942645E-006	-0.0329308	8
	2	5	630984.4	2863.329	-2143.7	1	3576.885	-36.82125	3.172036E-006	-0.0345413	8
	3	6	501234.4	3266.747	-2065.681	1	3865.058	-32.30663	1.02189E-006	-0.0345925	8
	4	8	398109.4	3670.439	-2044.549	1	4201.465	-29.11917	9.209659E-007	-0.034323	8
	5	9	316265.6	4061.186	-1943.009	1	4502.057	-25.56804	9.422567E-007	-0.0343437	8
	6	11	251203.1	4389.997	-1790.034	1	4740.917	-22.18332	-1.017008E-007	-0.034065	8
	7	12	199546.9	4667.123	-1623.326	1	4941.379	-19.17877	-6.150128E-008	-0.0340624	8
	8	14	158578.1	4906.795	-1453.7	1	5117.605	-16.50259	-3.274734E-006	-0.0334715	8
	9	15	125953.1	5120.963	-1235.47	1	5267.888	-13.56383	-4.990993E-007	-0.0333213	7
	10	17	100078.1	5248.693	-1098.885	1	5362.493	-11.82485	-3.907568E-009	-0.0341503	7
	11	18	79453.13	5368.533	-982.729	1	5457.738	-10.37335	-3.136757E-008	-0.0341837	7
	12	20	63140.62	5467.629	-885.5636	1	5538.88	-9.200009	-1.514037E-008	-0.0341466	7
	13	21	50203.12	5547.783	-806.2731	1	5606.065	-8.269044	-1.515287E-008	-0.0341507	7
	14	22	39890.62	5617.341	-744.4059	1	5666.451	-7.54881	-1.969254E-008	-0.0342294	7
	15	24	31640.63	5685.519	-703.1635	1	5728.836	-7.050324	-7.131449E-009	-0.0340746	7
	16	25	25171.88	5741.005	-678.4115	1	5780.95	-6.739358	4.626019E-008	-0.0343495	7
	17	26	20015.62	5794.727	-673.0245	1	5833.68	-6.624897	-7.646514E-008	-0.0340781	7
	18	28	15890.62	5848.146	-675.6626	1	5887.048	-6.590419	-9.077031E-009	-0.0342472	7
	19	29	12609.37	5906.348	-712.6151	1	5949.182	-6.879621	-3.428982E-008	-0.0341688	7
	20	31	10078.13	5965.949	-756.8038	1	6013.759	-7.229578	9.23368E-008	-0.0342632	7
	21	32	8015.625	6020.625	-823.9146	1	6076.74	-7.792447	-7.473913E-008	-0.0340814	7
	22	34	6328.125	6085.657	-915.7165	1	6154.166	-8.557171	4.438618E-008	-0.0343472	7
	23	35	5015.625	6154.676	-1034.33	1	6240.984	-9.53975	7.31901E-008	-0.0343317	7
	24	36	3984.375	6225.624	-1181.139	1	6336.678	-10.7426	-2.894554E-008	-0.0341977	7
	25	38	3170.956	6303.049	-1367.06	1	6449.596	-12.23727	-1.613268E-010	-0.0341939	7
	26	39	2527.573	6391.365	-1595.775	1	6587.567	-14.01881	9.423453E-008	-0.034261	7
	27	40	1976.103	6493.004	-1898.176	1	6764.774	-16.29585	-1.746398E-008	-0.0342326	7
	28	42	1577.524	6599.812	-2244.975	1	6971.186	-18.78612	-1.855084E-008	-0.034238	7
	29	43	1265.625	6734.034	-2672.606	1	7245	-21.64716	-4.525339E-008	-0.0341802	7
	30	44	998.264	6895.001	-3202.152	1	7602.291	-24.91093	7.417096E-008	-0.0343375	7
	31	46	796.875	7075.659	-3829.429	1	8045.463	-28.42277	-1.210246E-008	-0.0341611	7
	32	47	627.7902	7303.699	-4638.939	1	8652.385	-32.42164	4.833814E-011	-0.034193	7
	33	48	505.5147	7554.681	-5526.339	1	9360.216	-36.18592	-3.570895E-008	-0.0342032	7
	34	50	397.9953	7890.827	-6723.878	1	10367.05	-40.43476	4.523223E-009	-0.0342517	6
	35	51	315.5048	8283.919	-8145.977	1	11618.1	-44.51897	5.230589E-009	-0.0342495	6
	36	52	252.4038	8750.477	-9808.54	1	13144.51	-48.26293	5.353538E-009	-0.0342538	6
	37	54	198.6229	9377.62	-11984.38	1	15217.27	-51.9573	4.943726E-009	-0.0342553	6
	38	55	158.3615	10129.98	-14489.29	1	17679.26	-55.04123	4.384609E-009	-0.0342611	6
	39	56	125.558	11122.44	-17593.58	1	20814.48	-57.69943	4.536109E-009	-0.0342538	6
	40	58	100.4464	12364.54	-21163.63	1	24510.84	-59.70503	4.997833E-009	-0.0342538	6
	41	59	79.00281	14121.73	-25795.97	1	29408.42	-61.30196	4.318335E-009	-0.0342615	6
	42	60	63.3446	16331.37	-30763.17	1	34829.38	-62.03733	4.374697E-009	-0.0342596	6
	43	62	49.86702	18881.6	-37386.06	1	41883.56	-63.20422	4.968679E-009	-0.0342637	6
	44	63	39.72458	22486.39	-44449.45	1	49813.57	-63.16576	4.437752E-009	-0.0342551	6
	45	65	31.6723	26953	-52735.53	1	59224.15	-62.92853	4.91566E-009	-0.0342567	6
	46	66	24.93351	32738.05	-62539.69	1	70590.32	-62.369	4.49188E-009	-0.0342594	6
	47	67	19.86229	39526.41	-73274.28	1	83255.38	-61.6562	4.709409E-009	-0.0342538	6
	48	69	15.83615	47974.82	-84941.55	1	97553.3	-60.54233	3.762644E-009	-0.0342659	6
	49	70	12.40079	58264.93	-99702.5	1	115479	-59.69851	4.795564E-009	-0.0342558	5
	50	71	9.93114	70359.45	-114665.1	1	134530.8	-58.46637	4.245255E-009	-0.0342507	5
	51	73	7.944915	83997.17	-130993	1	155610.7	-57.33062	5.317027E-009	-0.034258	5
	52	75	6.317385	101018.6	-149296.6	1	180261.6	-55.91653	4.832501E-009	-0.0342519	5
	53	77	5.008013	120674.3	-169722.6	1	208250	-54.58682	4.628965E-009	-0.0342454	5
	54	79	3.945707	144150.4	-192596.9	1	240567.8	-53.18674	3.68012E-009	-0.0342609	5
	55	82	3.158693	169511.5	-215428.2	1	274123	-51.80226	4.337326E-009	-0.0342538	5
	56	85	2.504006	199190.4	-240986.2	1	312651.9	-50.42411	3.566481E-009	-0.034247	5
	57	88	1.998082	230414	-266908.6	1	352605.7	-49.19697	4.48767E-009	-0.0342892	5
	58	91	1.584686	267304.5	-296582.5	1	399265.4	-47.97222	3.689909E-009	-0.0342932	5
	59	95	1.266892	305371.6	-325750	1	446502.9	-46.8494	4.321599E-009	-0.0342932	5
	60	99	0.999041	349717.7	-360898.1	1	502543.4	-45.90138	3.654071E-009	-0.0342397	5
