EXPLAIN
TAG	EISPOT
TITLE	LABEL	Potentiostatic EIS	Test &Identifier
DATE	LABEL	11/5/2019	Date
TIME	LABEL	9:08:18	Time
NOTES	NOTES	2	&Notes...
	
	
PSTAT	PSTAT	REF600-11020	Potentiostat
VDC	POTEN	0.00000E+000	T	DC &Voltage (V)
FREQINIT	QUANT	1.00000E+006	Initial Fre&q. (Hz)
FREQFINAL	QUANT	1.00000E+000	Final Fre&q. (Hz)
PTSPERDEC	QUANT	1.00000E+001	Points/&decade
VAC	QUANT	2.50000E+001	AC &Voltage (mV rms)
AREA	QUANT	1.00000E-002	&Area (cm^2)
CONDIT	TWOPARAM	T	5.00000E+000	0.00000E+000	Conditionin&g	Time(s)	E(V)
DELAY	TWOPARAM	T	5.00000E+000	0.00000E+000	Init. De&lay	Time(s)	Stab.(mV/s)
SPEED	SELECTOR	1	&Optimize for:
ZGUESS	QUANT	1.00000E+005	E&stimated Z (ohms)
OCVCURVE	TABLE	19
	Pt	T	Vf	Vm	Ach	Over
	#	s	V vs. Ref.	V	V	bits
	0	0.258333	5.25170E-003	5.25170E-003	5.53599E-004	...........
	1	0.516667	5.25077E-003	5.20262E-003	5.54066E-004	...........
	2	0.775	5.24465E-003	5.13723E-003	5.56566E-004	...........
	3	1.03333	5.22704E-003	5.12131E-003	5.50366E-004	...........
	4	1.29167	5.19699E-003	5.09980E-003	5.53399E-004	...........
	5	1.55	5.16195E-003	5.08610E-003	5.53399E-004	...........
	6	1.80833	5.13068E-003	5.07903E-003	5.45399E-004	...........
	7	2.06667	5.10737E-003	5.08225E-003	5.48433E-004	...........
	8	2.325	5.09234E-003	5.07792E-003	5.51466E-004	...........
	9	2.58333	5.08431E-003	5.08820E-003	5.50399E-004	...........
	10	2.84167	5.08155E-003	5.09039E-003	5.52966E-004	...........
	11	3.1	5.08267E-003	5.10271E-003	5.54799E-004	...........
	12	3.35833	5.08671E-003	5.10814E-003	5.54833E-004	...........
	13	3.61667	5.09300E-003	5.12486E-003	5.54999E-004	...........
	14	3.875	5.10123E-003	5.13715E-003	5.57233E-004	...........
	15	4.13333	5.11127E-003	5.14392E-003	5.54066E-004	...........
	16	4.39167	5.12042E-003	5.05074E-003	5.48033E-004	...........
	17	4.65	5.11741E-003	4.86314E-003	5.53399E-004	...........
	18	4.90833	5.08399E-003	4.80056E-003	5.58066E-004	...........
EOC	QUANT	0.005084	Open Circuit (V)
PSTATMODEL	IQUANT	4	Pstat Model
PSTATSECTION	LABEL	REF600-11020	Pstat Section
PSTATSERIALNO	LABEL	11020	Pstat Serial Number
CTRLMODE	IQUANT	1	Control Mode
IESTAB	IQUANT	0	I/E Stability
CASPEED	IQUANT	1	Control Amp Speed
CONVENTION	IQUANT	1	Current Convention
ICHRANGE	IQUANT	2	Ich Range
ICHRANGEMODE	TOGGLE	F	Ich Auto Range
ICHOFFSETENABLE	TOGGLE	T	Ich Offset Enable
ICHOFFSET	QUANT	0	Ich Offset (V)
ICHFILTER	IQUANT	3	Ich Filter
VCHRANGE	IQUANT	2	Vch Range
VCHRANGEMODE	TOGGLE	F	Vch Auto Range
VCHOFFSETENABLE	TOGGLE	T	Vch Offset Enable
VCHOFFSET	QUANT	0	Vch Offset (V)
VCHFILTER	IQUANT	3	Vch Filter
ACHRANGE	IQUANT	2	Ach Range
ACHOFFSETENABLE	TOGGLE	F	Ach Offset Enable
ACHOFFSET	QUANT	0	Ach Offset (V)
ACHFILTER	IQUANT	3	Ach Filter
IERANGELOWERLIMIT	IQUANT	1	I/E Range Lower Limit
IERANGEMODE	TOGGLE	F	I/E AutoRange
IERANGE	IQUANT	4	I/E Range
POSFEEDENABLE	TOGGLE	F	Positive Feedback IR Comp
POSFEEDRESISTANCE	QUANT	0	Positive Feedback Resistance (ohm)
ACHSELECT	IQUANT	0	Ach Select
CABLEID	IQUANT	14	Cable ID
DCCALDATE	LABEL	8/19/2019	DC Calibration Date
ACCALDATE	LABEL	8/19/2019	AC Calibration Date
THERMOSELECT	IQUANT	1	Thermo Select
FRAMEWORKVERSION	QUANT	6.33	Framework Version
INSTRUMENTVERSION	LABEL	3.50	Instrument Version
ZCURVE	TABLE
	Pt	Time	Freq	Zreal	Zimag	Zsig	Zmod	Zphz	Idc	Vdc	IERange
	#	s	Hz	ohm	ohm	V	ohm	°	A	V	#
	0	1	1000078	2457.688	-1502.657	1	2880.662	-31.44207	-2.667018E-006	0.0077735	8
	1	2	794390.6	2747.765	-1395.286	1	3081.726	-26.92098	-9.491818E-007	0.0073683	8
	2	4	630984.4	2998.003	-1257.461	1	3251.035	-22.75478	-5.197785E-006	0.0070922	8
	3	5	501234.4	3189.059	-1120.433	1	3380.158	-19.35824	-3.357425E-006	0.0072388	8
	4	7	398109.4	3349.784	-970.403	1	3487.511	-16.15583	5.900251E-008	0.0062676	8
	5	8	316265.6	3445.304	-844.8113	1	3547.369	-13.77747	6.278542E-006	0.0058149	8
	6	9	251203.1	3545	-735.8062	1	3620.557	-11.72591	-2.814556E-006	0.0064539	8
	7	11	199546.9	3617.434	-638.9505	1	3673.43	-10.01689	-6.052911E-007	0.0062488	8
	8	12	158578.1	3664.175	-557.6984	1	3706.374	-8.65417	-1.578378E-006	0.0063323	8
	9	13	125953.1	3724.397	-436.1804	1	3749.852	-6.67973	-3.49774E-007	0.0043298	7
	10	15	100078.1	3758.527	-403.4104	1	3780.115	-6.12622	3.807058E-007	0.0070716	7
	11	16	79453.13	3790.138	-381.9059	1	3809.33	-5.753877	-1.136626E-006	0.0081637	7
	12	17	63140.62	3821.393	-371.7763	1	3839.435	-5.556714	-1.265659E-006	0.0079818	7
	13	19	50203.12	3853.56	-372.1893	1	3871.492	-5.516701	5.248504E-007	0.004776	7
	14	20	39890.62	3886.373	-377.9993	1	3904.713	-5.555271	-1.267227E-006	0.007984	7
	15	21	31640.63	3921.372	-394.1531	1	3941.131	-5.739755	-1.266323E-006	0.0079819	7
	16	23	25171.88	3960.035	-420.8376	1	3982.333	-6.066123	6.125155E-007	0.0067372	7
	17	24	20015.62	4001.33	-451.1196	1	4026.68	-6.432502	-6.550213E-007	0.0081509	7
	18	26	15890.62	4042.854	-497.2677	1	4073.321	-7.012115	-1.064455E-006	0.0069873	7
	19	27	12609.37	4089.984	-551.3411	1	4126.978	-7.677348	-1.247621E-006	0.0075792	7
	20	28	10078.13	4144.245	-612.8118	1	4189.309	-8.411405	1.126048E-006	0.0050031	7
	21	30	8015.625	4191.771	-691.369	1	4248.404	-9.365749	-1.248985E-006	0.0075735	7
	22	31	6328.125	4262.898	-786.5699	1	4334.858	-10.45436	1.126234E-006	0.0050019	7
	23	32	5015.625	4327.167	-899.4993	1	4419.669	-11.74298	8.233848E-007	0.0046669	7
	24	34	3984.375	4391.83	-1034.848	1	4512.104	-13.25877	-3.184442E-007	0.0079089	7
	25	35	3170.956	4469.978	-1202.095	1	4628.794	-15.05223	5.438159E-008	0.0074973	7
	26	36	2527.573	4546.957	-1402.593	1	4758.37	-17.14334	-9.356627E-007	0.0082228	7
	27	38	1976.103	4638.541	-1673.564	1	4931.215	-19.83921	3.867894E-007	0.0070547	7
	28	39	1577.524	4731.912	-1997.784	1	5136.354	-22.88917	8.220721E-007	0.004664	7
	29	40	1265.625	4824.769	-2332.694	1	5359.091	-25.80298	-1.248121E-006	0.0075799	7
	30	42	998.264	4943.594	-2829.269	1	5695.954	-29.78294	-7.247767E-007	0.0062798	7
	31	43	796.875	5071.548	-3402.575	1	6107.218	-33.85823	8.428859E-007	0.0063053	7
	32	45	627.7902	5222.382	-4154.392	1	6673.248	-38.50216	1.037226E-006	0.0057936	7
	33	46	505.5147	5391.522	-5000.728	1	7353.625	-42.84644	1.1235E-006	0.0050041	7
	34	47	397.9953	5620.552	-6142.489	1	8325.909	-47.5406	3.892236E-009	0.0065175	7
	35	49	315.5048	5895.012	-7526.353	1	9560.19	-51.93019	4.284103E-009	0.0065124	7
	36	50	252.4038	6232.544	-9159.968	1	11079.24	-55.76819	6.665708E-010	0.0064481	6
	37	51	198.6229	6690.425	-11322.5	1	13151.46	-59.42131	4.384511E-010	0.006456	6
	38	53	158.3615	7259.069	-13841.86	1	15629.82	-62.3262	-1.978869E-010	0.0064496	6
	39	54	125.558	8022.186	-16986.92	1	18785.92	-64.72066	7.549035E-010	0.0064459	6
	40	56	100.4464	8995.495	-20646.94	1	22521.43	-66.45811	8.955344E-010	0.0064436	6
	41	57	79.00281	10353.96	-25441.14	1	27467.36	-67.85481	2.243235E-010	0.0064542	6
	42	58	63.3446	11817.86	-30778.77	1	32969.59	-68.99514	8.730009E-010	0.0064529	6
	43	60	49.86702	14738.35	-37532.94	1	40322.95	-68.56117	1.567075E-009	0.0064401	6
	44	61	39.72458	17794.44	-45531.27	1	48884.95	-68.65355	8.960919E-010	0.0064504	6
	45	62	31.6723	21776.91	-54473.38	1	58665	-68.20987	1.27323E-009	0.0064421	6
	46	64	24.93351	27480.92	-65746.58	1	71258.78	-67.31593	1.257425E-009	0.0064389	6
	47	65	19.86229	34321.3	-78078.7	1	85289.13	-66.271	6.717451E-010	0.0064582	6
	48	66	15.83615	43758.24	-91988.41	1	101865.8	-64.5599	-1.736023E-009	0.0064451	6
	49	68	12.40079	53903.55	-108722.8	1	121351.7	-63.6283	6.4848E-010	0.006451	5
	50	69	9.93114	66621.16	-124602.1	1	141294.2	-61.86786	-4.918502E-010	0.0064462	5
	51	71	7.944915	81012.08	-142345.3	1	163783.8	-60.35478	5.62059E-010	0.0064474	5
	52	73	6.317385	98181.9	-162470.3	1	189832.3	-58.85515	5.156101E-010	0.0064498	5
	53	75	5.008013	117364.5	-184855.3	1	218965.5	-57.58855	5.0796E-010	0.0064566	5
	54	77	3.945707	139015.1	-210245.2	1	252048.1	-56.52713	-1.190559E-010	0.0064387	5
	55	80	3.158693	160546.4	-237198.3	1	286423.1	-55.9081	3.382561E-010	0.006451	5
	56	83	2.504006	184501.9	-269678.8	1	326753.1	-55.62185	-2.911834E-010	0.006446	5
	57	86	1.998082	208959	-306658.4	1	371083.9	-55.72924	6.794789E-012	0.0064025	5
	58	89	1.584686	234867.8	-352295.3	1	423408.6	-56.30945	-2.404572E-011	0.0064517	5
	59	93	1.266892	263765.2	-406500.9	1	484577.2	-57.02177	7.291025E-011	0.0063998	5
	60	97	0.999041	299053.3	-475985.5	1	562134.4	-57.85957	8.771504E-011	0.0064856	5
