EXPLAIN
TAG	EISPOT
TITLE	LABEL	Potentiostatic EIS	Test &Identifier
DATE	LABEL	9/22/2019	Date
TIME	LABEL	9:26:18	Time
NOTES	NOTES	1	&Notes...
	
PSTAT	PSTAT	REF600-11020	Potentiostat
VDC	POTEN	0.00000E+000	T	DC &Voltage (V)
FREQINIT	QUANT	1.00000E+006	Initial Fre&q. (Hz)
FREQFINAL	QUANT	1.00000E+000	Final Fre&q. (Hz)
PTSPERDEC	QUANT	1.00000E+001	Points/&decade
VAC	QUANT	2.50000E+001	AC &Voltage (mV rms)
AREA	QUANT	1.00000E-002	&Area (cm^2)
CONDIT	TWOPARAM	T	5.00000E+000	0.00000E+000	Conditionin&g	Time(s)	E(V)
DELAY	TWOPARAM	T	5.00000E+000	0.00000E+000	Init. De&lay	Time(s)	Stab.(mV/s)
SPEED	SELECTOR	1	&Optimize for:
ZGUESS	QUANT	1.00000E+004	E&stimated Z (ohms)
OCVCURVE	TABLE	19
	Pt	T	Vf	Vm	Ach	Over
	#	s	V vs. Ref.	V	V	bits
	0	0.258333	-1.30073E-002	-1.30073E-002	5.51066E-004	...........
	1	0.516667	-1.30306E-002	-1.42274E-002	5.44766E-004	...........
	2	0.775	-1.31738E-002	-1.53850E-002	5.39799E-004	...........
	3	1.03333	-1.35786E-002	-1.64878E-002	5.40399E-004	...........
	4	1.29167	-1.43025E-002	-1.75487E-002	5.45566E-004	...........
	5	1.55	-1.52649E-002	-1.85768E-002	5.43733E-004	...........
	6	1.80833	-1.63323E-002	-1.95008E-002	5.46599E-004	...........
	7	2.06667	-1.74044E-002	-2.04387E-002	5.47999E-004	...........
	8	2.325	-1.84333E-002	-2.13251E-002	5.43666E-004	...........
	9	2.58333	-1.94096E-002	-2.21797E-002	5.51499E-004	...........
	10	2.84167	-2.03403E-002	-2.30102E-002	5.47933E-004	...........
	11	3.1	-2.12336E-002	-2.38292E-002	5.50333E-004	...........
	12	3.35833	-2.20962E-002	-2.46089E-002	5.48699E-004	...........
	13	3.61667	-2.29326E-002	-2.53880E-002	5.54499E-004	...........
	14	3.875	-2.37464E-002	-2.61524E-002	5.44999E-004	...........
	15	4.13333	-2.45388E-002	-2.68017E-002	5.50299E-004	...........
	16	4.39167	-2.53061E-002	-2.74926E-002	5.54666E-004	...........
	17	4.65	-2.60441E-002	-2.82388E-002	5.51166E-004	...........
	18	4.90833	-2.67577E-002	-2.88695E-002	5.47733E-004	...........
EOC	QUANT	-0.0267577	Open Circuit (V)
PSTATMODEL	IQUANT	4	Pstat Model
PSTATSECTION	LABEL	REF600-11020	Pstat Section
PSTATSERIALNO	LABEL	11020	Pstat Serial Number
CTRLMODE	IQUANT	1	Control Mode
IESTAB	IQUANT	0	I/E Stability
CASPEED	IQUANT	1	Control Amp Speed
CONVENTION	IQUANT	1	Current Convention
ICHRANGE	IQUANT	2	Ich Range
ICHRANGEMODE	TOGGLE	F	Ich Auto Range
ICHOFFSETENABLE	TOGGLE	T	Ich Offset Enable
ICHOFFSET	QUANT	0	Ich Offset (V)
ICHFILTER	IQUANT	3	Ich Filter
VCHRANGE	IQUANT	2	Vch Range
VCHRANGEMODE	TOGGLE	F	Vch Auto Range
VCHOFFSETENABLE	TOGGLE	T	Vch Offset Enable
VCHOFFSET	QUANT	0	Vch Offset (V)
VCHFILTER	IQUANT	3	Vch Filter
ACHRANGE	IQUANT	2	Ach Range
ACHOFFSETENABLE	TOGGLE	F	Ach Offset Enable
ACHOFFSET	QUANT	0	Ach Offset (V)
ACHFILTER	IQUANT	3	Ach Filter
IERANGELOWERLIMIT	IQUANT	1	I/E Range Lower Limit
IERANGEMODE	TOGGLE	F	I/E AutoRange
IERANGE	IQUANT	6	I/E Range
POSFEEDENABLE	TOGGLE	F	Positive Feedback IR Comp
POSFEEDRESISTANCE	QUANT	0	Positive Feedback Resistance (ohm)
ACHSELECT	IQUANT	0	Ach Select
CABLEID	IQUANT	14	Cable ID
DCCALDATE	LABEL	8/19/2019	DC Calibration Date
ACCALDATE	LABEL	8/19/2019	AC Calibration Date
THERMOSELECT	IQUANT	1	Thermo Select
FRAMEWORKVERSION	QUANT	6.33	Framework Version
INSTRUMENTVERSION	LABEL	3.50	Instrument Version
ZCURVE	TABLE
	Pt	Time	Freq	Zreal	Zimag	Zsig	Zmod	Zphz	Idc	Vdc	IERange
	#	s	Hz	ohm	ohm	V	ohm	°	A	V	#
	0	1	1000078	2085.09	-967.882	1	2298.781	-24.90036	-5.619247E-006	-0.0234177	8
	1	3	794390.6	2243.674	-857.3289	1	2401.892	-20.91233	5.932535E-006	-0.0255971	8
	2	4	630984.4	2370.667	-771.8676	1	2493.159	-18.03477	2.694791E-007	-0.0252823	8
	3	5	501234.4	2463.293	-665.4453	1	2551.593	-15.1173	2.419949E-006	-0.0255764	8
	4	7	398109.4	2543.72	-578.9065	1	2608.763	-12.82115	-3.590496E-006	-0.0243995	8
	5	8	316265.6	2613.854	-500.4139	1	2661.325	-10.83795	2.444103E-007	-0.0252507	8
	6	10	251203.1	2663.493	-435.8759	1	2698.923	-9.293969	1.60958E-006	-0.0255906	8
	7	11	199546.9	2693.113	-383.8104	1	2720.325	-8.110918	7.592145E-007	-0.0253092	8
	8	12	158578.1	2719.774	-336.4641	1	2740.507	-7.052249	1.301953E-006	-0.0254282	8
	9	14	125953.1	2770.755	-266.9745	1	2783.588	-5.50371	-8.123471E-007	-0.0227117	7
	10	15	100078.1	2781.393	-242.7193	1	2791.964	-4.987302	1.268243E-007	-0.0253791	7
	11	16	79453.13	2801.182	-232.336	1	2810.801	-4.741382	1.264226E-007	-0.02539	7
	12	18	63140.62	2821.795	-227.6712	1	2830.964	-4.61281	-5.037417E-009	-0.0251776	7
	13	19	50203.12	2842.475	-227.0571	1	2851.529	-4.567094	-4.574611E-008	-0.0250626	7
	14	20	39890.62	2864.383	-230.2441	1	2873.622	-4.595654	3.003138E-008	-0.0252373	7
	15	22	31640.63	2886.216	-238.7402	1	2896.073	-4.728591	7.093702E-008	-0.0253365	7
	16	23	25171.88	2908.995	-251.1474	1	2919.817	-4.934382	3.111285E-008	-0.0252378	7
	17	24	20015.62	2933.099	-269.2227	1	2945.429	-5.244358	-6.730683E-008	-0.025095	7
	18	26	15890.62	2957.929	-292.9691	1	2972.402	-5.656432	1.274416E-007	-0.0254014	7
	19	27	12609.37	2984.391	-323.4226	1	3001.865	-6.185084	1.2714E-007	-0.0253914	7
	20	28	10078.13	3012.028	-359.8097	1	3033.443	-6.812135	4.686657E-008	-0.025346	7
	21	30	8015.625	3041.217	-407.0118	1	3068.332	-7.622708	4.483503E-008	-0.0253422	7
	22	31	6328.125	3073.972	-466.5262	1	3109.172	-8.629729	-4.592581E-008	-0.0250682	7
	23	32	5015.625	3109.84	-538.2914	1	3156.083	-9.82019	1.505749E-008	-0.0252807	7
	24	34	3984.375	3147.28	-626.8514	1	3209.099	-11.26433	-4.011565E-008	-0.0251195	7
	25	35	3170.956	3188.792	-734.1944	1	3272.222	-12.96594	-5.032739E-009	-0.0251897	7
	26	37	2527.573	3234.38	-863.0926	1	3347.558	-14.94119	-1.06757E-008	-0.0251709	7
	27	38	1976.103	3290.835	-1036.084	1	3450.082	-17.47605	-3.406637E-008	-0.0252028	7
	28	39	1577.524	3347.546	-1230.953	1	3566.695	-20.18938	-2.871565E-008	-0.0252038	7
	29	41	1265.625	3411.926	-1463.575	1	3712.585	-23.21733	-1.074757E-008	-0.0251675	7
	30	42	998.264	3487.905	-1768.614	1	3910.687	-26.88823	-3.406098E-008	-0.0251971	7
	31	43	796.875	3572.333	-2127.803	1	4158.018	-30.77947	-3.526656E-008	-0.0251952	7
	32	45	627.7902	3674.858	-2595.493	1	4499.019	-35.23294	-4.416134E-008	-0.0250687	7
	33	46	505.5147	3788.192	-3116.456	1	4905.375	-39.44332	-2.839685E-008	-0.0252026	7
	34	48	397.9953	3935.658	-3825.175	1	5488.294	-44.18439	6.844131E-009	-0.0251992	7
	35	49	315.5048	4113.069	-4676.544	1	6227.954	-48.66804	7.314353E-009	-0.0251989	7
	36	50	252.4038	4323.959	-5679.608	1	7138.247	-52.71751	7.150724E-009	-0.025196	7
	37	52	198.6229	4611.19	-7003.648	1	8385.354	-56.63916	8.297962E-009	-0.0251981	7
	38	53	158.3615	4959.386	-8542.053	1	9877.36	-59.8612	7.387656E-009	-0.0251952	7
	39	54	125.558	5418.671	-10464.85	1	11784.53	-62.625	4.057725E-009	-0.0252466	6
	40	56	100.4464	5986.461	-12714.37	1	14053.22	-64.78697	3.427799E-009	-0.0252554	6
	41	57	79.00281	6766.308	-15647.46	1	17047.75	-66.61527	3.889419E-009	-0.0252565	6
	42	59	63.3446	7718.956	-18838.05	1	20358.15	-67.71847	3.761218E-009	-0.0252543	6
	43	60	49.86702	9132.624	-23218.69	1	24950.19	-68.52876	3.960755E-009	-0.025256	6
	44	61	39.72458	10753.17	-28056.79	1	30046.87	-69.02996	4.536787E-009	-0.0252572	6
	45	63	31.6723	12886.01	-33840.06	1	36210.48	-69.15358	3.472842E-009	-0.0252582	6
	46	64	24.93351	15757.14	-41033.61	1	43955.03	-68.99293	3.146105E-009	-0.0252566	6
	47	66	19.86229	19272.43	-49112.53	1	52758.57	-68.57428	3.385276E-009	-0.025248	6
	48	67	15.83615	23793.65	-58445.93	1	63103.6	-67.8485	3.434109E-009	-0.0252568	6
	49	68	12.40079	29566.31	-70491.27	1	76440.73	-67.24525	3.92428E-009	-0.0252537	6
	50	70	9.93114	36367.84	-82835.2	1	90467.07	-66.29668	3.957436E-009	-0.0252615	6
	51	71	7.944915	44711.3	-97115.9	1	106914	-65.27908	2.614402E-009	-0.0252556	5
	52	73	6.317385	54981.72	-113815.3	1	126399.9	-64.21582	3.570487E-009	-0.0252632	5
	53	75	5.008013	67694.32	-133284.8	1	149490.3	-63.07433	3.237536E-009	-0.0252478	5
	54	78	3.945707	83453.66	-155740.4	1	176690.6	-61.81532	2.607712E-009	-0.0252546	5
	55	80	3.158693	101011.3	-179430.7	1	205909.3	-60.62247	3.596653E-009	-0.0252392	5
	56	83	2.504006	122843.4	-207066.1	1	240763.1	-59.32116	2.410858E-009	-0.0252545	5
	57	86	1.998082	147486.4	-236224.5	1	278485.7	-58.02147	2.717954E-009	-0.0252821	5
	58	89	1.584686	176911.7	-268305.3	1	321380.6	-56.60046	3.012691E-009	-0.025204	5
	59	93	1.266892	208460.7	-303805.7	1	368447.8	-55.54346	2.638306E-009	-0.0252694	5
	60	97	0.999041	245971.9	-343700.3	1	422648.8	-54.41029	3.562359E-009	-0.0252269	5
