EXPLAIN
TAG	EISPOT
TITLE	LABEL	Potentiostatic EIS	Test &Identifier
DATE	LABEL	11/15/2019	Date
TIME	LABEL	10:45:56	Time
NOTES	NOTES	4	&Notes...
	
	
	
	
PSTAT	PSTAT	REF600-11020	Potentiostat
VDC	POTEN	0.00000E+000	T	DC &Voltage (V)
FREQINIT	QUANT	1.00000E+006	Initial Fre&q. (Hz)
FREQFINAL	QUANT	1.00000E+000	Final Fre&q. (Hz)
PTSPERDEC	QUANT	1.00000E+001	Points/&decade
VAC	QUANT	2.50000E+001	AC &Voltage (mV rms)
AREA	QUANT	1.00000E-002	&Area (cm^2)
CONDIT	TWOPARAM	T	5.00000E+000	0.00000E+000	Conditionin&g	Time(s)	E(V)
DELAY	TWOPARAM	T	5.00000E+000	0.00000E+000	Init. De&lay	Time(s)	Stab.(mV/s)
SPEED	SELECTOR	0	&Optimize for:
ZGUESS	QUANT	1.00000E+005	E&stimated Z (ohms)
OCVCURVE	TABLE	19
	Pt	T	Vf	Vm	Ach	Over
	#	s	V vs. Ref.	V	V	bits
	0	0.258333	6.60110E-003	6.60110E-003	5.43866E-004	...........
	1	0.516667	6.59743E-003	6.40888E-003	5.49433E-004	...........
	2	0.775	6.57583E-003	6.27674E-003	5.51499E-004	...........
	3	1.03333	6.51537E-003	6.01605E-003	5.47466E-004	...........
	4	1.29167	6.40476E-003	5.90006E-003	5.45566E-004	...........
	5	1.55	6.25378E-003	5.77901E-003	5.48066E-004	...........
	6	1.80833	6.08922E-003	5.69647E-003	5.55633E-004	...........
	7	2.06667	5.93803E-003	5.62841E-003	5.50799E-004	...........
	8	2.325	5.81343E-003	5.55662E-003	5.46766E-004	...........
	9	2.58333	5.71522E-003	5.52240E-003	5.43333E-004	...........
	10	2.84167	5.63818E-003	5.49365E-003	5.46799E-004	...........
	11	3.1	5.57837E-003	5.47080E-003	5.49666E-004	...........
	12	3.35833	5.53307E-003	5.43835E-003	5.47833E-004	...........
	13	3.61667	5.49825E-003	5.41497E-003	5.46599E-004	...........
	14	3.875	5.46907E-003	5.38676E-003	5.46466E-004	...........
	15	4.13333	5.44226E-003	5.37113E-003	5.44499E-004	...........
	16	4.39167	5.41715E-003	5.36056E-003	5.44033E-004	...........
	17	4.65	5.39489E-003	5.34855E-003	5.47499E-004	...........
	18	4.90833	5.37653E-003	5.33602E-003	5.45033E-004	...........
EOC	QUANT	0.0053765	Open Circuit (V)
PSTATMODEL	IQUANT	4	Pstat Model
PSTATSECTION	LABEL	REF600-11020	Pstat Section
PSTATSERIALNO	LABEL	11020	Pstat Serial Number
CTRLMODE	IQUANT	1	Control Mode
IESTAB	IQUANT	0	I/E Stability
CASPEED	IQUANT	1	Control Amp Speed
CONVENTION	IQUANT	1	Current Convention
ICHRANGE	IQUANT	2	Ich Range
ICHRANGEMODE	TOGGLE	F	Ich Auto Range
ICHOFFSETENABLE	TOGGLE	T	Ich Offset Enable
ICHOFFSET	QUANT	0	Ich Offset (V)
ICHFILTER	IQUANT	3	Ich Filter
VCHRANGE	IQUANT	2	Vch Range
VCHRANGEMODE	TOGGLE	F	Vch Auto Range
VCHOFFSETENABLE	TOGGLE	T	Vch Offset Enable
VCHOFFSET	QUANT	0	Vch Offset (V)
VCHFILTER	IQUANT	3	Vch Filter
ACHRANGE	IQUANT	2	Ach Range
ACHOFFSETENABLE	TOGGLE	F	Ach Offset Enable
ACHOFFSET	QUANT	0	Ach Offset (V)
ACHFILTER	IQUANT	3	Ach Filter
IERANGELOWERLIMIT	IQUANT	1	I/E Range Lower Limit
IERANGEMODE	TOGGLE	F	I/E AutoRange
IERANGE	IQUANT	5	I/E Range
POSFEEDENABLE	TOGGLE	F	Positive Feedback IR Comp
POSFEEDRESISTANCE	QUANT	0	Positive Feedback Resistance (ohm)
ACHSELECT	IQUANT	0	Ach Select
CABLEID	IQUANT	14	Cable ID
DCCALDATE	LABEL	8/19/2019	DC Calibration Date
ACCALDATE	LABEL	8/19/2019	AC Calibration Date
THERMOSELECT	IQUANT	1	Thermo Select
FRAMEWORKVERSION	QUANT	6.33	Framework Version
INSTRUMENTVERSION	LABEL	3.50	Instrument Version
ZCURVE	TABLE
	Pt	Time	Freq	Zreal	Zimag	Zsig	Zmod	Zphz	Idc	Vdc	IERange
	#	s	Hz	ohm	ohm	V	ohm	°	A	V	#
	0	1	1000078	2088.932	-1533.454	1	2591.354	-36.28185	9.680625E-006	0.0067982	8
	1	1	794390.6	2400.78	-1515.722	1	2839.218	-32.26609	4.753375E-006	0.0060122	8
	2	1	630984.4	2691.587	-1431.505	1	3048.581	-28.00602	-1.887526E-006	0.0069687	8
	3	2	501234.4	2943.939	-1314.622	1	3224.129	-24.06324	4.740282E-006	0.0071635	8
	4	2	398109.4	3144.941	-1188.554	1	3362.04	-20.70286	-1.163476E-006	0.0068307	8
	5	2	316265.6	3295.722	-1066.85	1	3464.095	-17.93716	-1.560859E-006	0.0068629	8
	6	3	251203.1	3431.181	-951.449	1	3560.654	-15.49842	-1.325638E-006	0.0074854	8
	7	3	199546.9	3532.762	-849.1949	1	3633.393	-13.51616	-1.358154E-006	0.0074858	8
	8	3	158578.1	3621.081	-773.0552	1	3702.681	-12.05102	7.115329E-006	0.006276	8
	9	4	125953.1	3719.045	-676.2943	1	3780.036	-10.3064	3.78734E-006	0.0024356	7
	10	4	100078.1	3770.221	-635.1094	1	3823.34	-9.56194	1.016428E-006	0.005282	7
	11	4	79453.13	3818.93	-620.8678	1	3869.07	-9.23415	-1.27495E-006	0.0085425	7
	12	5	63140.62	3873.639	-624.2997	1	3923.625	-9.155416	-1.26875E-006	0.0081601	7
	13	5	50203.12	3932.587	-640.4114	1	3984.39	-9.249276	-3.209836E-007	0.0061473	7
	14	5	39890.62	3993.454	-671.93	1	4049.588	-9.551	1.052841E-006	0.0062895	7
	15	6	31640.63	4060.124	-719.7128	1	4123.42	-10.05204	1.054298E-006	0.006281	7
	16	6	25171.88	4124.13	-781.2188	1	4197.47	-10.72624	-1.091575E-006	0.0075637	7
	17	6	20015.62	4203.83	-859.5642	1	4290.808	-11.55608	4.05617E-007	0.007566	7
	18	7	15890.62	4289.015	-957.907	1	4394.682	-12.5898	1.19614E-007	0.0055982	7
	19	7	12609.37	4386.622	-1076.603	1	4516.805	-13.78947	4.044106E-007	0.0075634	7
	20	7	10078.13	4503.983	-1213.02	1	4664.47	-15.07334	1.054129E-006	0.0062796	7
	21	7	8015.625	4620.829	-1375.507	1	4821.211	-16.57697	5.047367E-007	0.0052884	7
	22	8	6328.125	4766.517	-1573.353	1	5019.475	-18.26725	8.087625E-007	0.0051769	7
	23	8	5015.625	4926.252	-1797.356	1	5243.896	-20.04463	-1.266261E-006	0.0081469	7
	24	8	3984.375	5119.78	-2059.846	1	5518.615	-21.91645	5.041679E-007	0.0052853	7
	25	9	3170.956	5325.143	-2357.664	1	5823.721	-23.88098	-1.140237E-006	0.0087031	7
	26	9	2527.573	5567.254	-2701.881	1	6188.253	-25.88807	4.055341E-007	0.0075591	7
	27	9	1976.103	5861.861	-3142.167	1	6650.912	-28.1929	1.019519E-006	0.0052612	7
	28	10	1577.524	6193.022	-3581.893	1	7154.263	-30.04404	-9.327451E-007	0.0087572	7
	29	10	1265.625	6527.21	-4120.998	1	7719.268	-32.26654	1.055951E-006	0.0062768	7
	30	11	998.264	6957.051	-4774.874	1	8438.008	-34.4632	1.018021E-006	0.0052602	7
	31	11	796.875	7411.763	-5475.935	1	9215.21	-36.45761	5.061526E-007	0.0052801	7
	32	11	627.7902	7967.628	-6336.825	1	10180.3	-38.49598	1.145135E-006	0.0058319	7
	33	12	505.5147	8515.098	-7216.14	1	11161.52	-40.27969	4.090282E-007	0.0075599	7
	34	12	397.9953	9163.535	-8366.316	1	12408.29	-42.39611	3.437116E-010	0.0069859	6
	35	12	315.5048	9812.41	-9689.94	1	13790.51	-44.64018	7.683543E-010	0.0069844	6
	36	13	252.4038	10447.97	-11228.19	1	15337.28	-47.06143	1.031704E-009	0.0069747	6
	37	13	198.6229	11140.84	-13262.29	1	17320.7	-49.96841	1.321642E-010	0.0069846	6
	38	13	158.3615	11830.53	-15670.72	1	19634.99	-52.94922	-2.979901E-011	0.0069732	6
	39	14	125.558	12585.79	-18758.27	1	22589.27	-56.14052	1.450908E-010	0.0069785	6
	40	14	100.4464	13378.98	-22495.2	1	26173.1	-59.25801	3.063778E-010	0.0069757	6
	41	14	79.00281	14361.97	-27460.67	1	30989.59	-62.39037	1.207261E-009	0.0069738	6
	42	15	63.3446	15938.96	-33084.37	1	36723.65	-64.27676	-5.515551E-010	0.0069687	6
	43	15	49.86702	17491.02	-40879.98	1	44464.69	-66.83573	-5.64446E-010	0.0069633	6
	44	15	39.72458	19162.92	-49779.62	1	53340.68	-68.94553	-1.558E-010	0.0069809	6
	45	16	31.6723	21570.06	-60752.02	1	64467.63	-70.45255	2.690849E-010	0.0069725	6
	46	16	24.93351	25260.43	-75041.24	1	79178.77	-71.39571	-3.091688E-010	0.0069829	6
	47	16	19.86229	29708.93	-91388.09	1	96095.8	-71.99142	-5.692339E-010	0.0069796	6
	48	17	15.83615	35277.16	-110285.9	1	115790.5	-72.26208	-4.637873E-010	0.0069876	5
	49	17	12.40079	43162.19	-136024.5	1	142708.3	-72.39516	1.069744E-009	0.0069758	5
	50	17	9.93114	53888.79	-164378.9	1	172986.8	-71.84917	4.146994E-010	0.0069758	5
	51	18	7.944915	65695.62	-197412	1	208056.3	-71.59337	-7.976385E-010	0.0069865	5
	52	19	6.317385	83113.41	-237609.6	1	251726.3	-70.72068	-4.321311E-010	0.0069974	5
	53	19	5.008013	104900.7	-285821.5	1	304463.6	-69.84612	-3.271089E-010	0.0069772	5
	54	20	3.945707	132820.5	-341591.5	1	366505.2	-68.75249	-2.493404E-011	0.0069745	5
	55	22	3.158693	166653.6	-403042	1	436137.9	-67.53542	9.876824E-011	0.0069816	5
	56	23	2.504006	209779.5	-475754.7	1	519951.9	-66.20538	-2.260026E-010	0.0069768	5
	57	25	1.998082	259215.7	-554162	1	611791.1	-64.93161	-2.458685E-011	0.0069724	5
	58	26	1.584686	322075.1	-645772.1	1	721632.8	-63.49254	5.93692E-011	0.0070148	5
	59	28	1.266892	390555	-746444.3	1	842444.3	-62.38051	5.486729E-011	0.0070036	5
	60	31	0.999041	474374.9	-864914.8	1	986463	-61.25681	5.774914E-011	0.0069836	5
