EXPLAIN
TAG	EISPOT
TITLE	LABEL	Potentiostatic EIS	Test &Identifier
DATE	LABEL	9/22/2019	Date
TIME	LABEL	9:33:16	Time
NOTES	NOTES	1	&Notes...
	
PSTAT	PSTAT	REF600-11020	Potentiostat
VDC	POTEN	0.00000E+000	T	DC &Voltage (V)
FREQINIT	QUANT	1.00000E+006	Initial Fre&q. (Hz)
FREQFINAL	QUANT	1.00000E+000	Final Fre&q. (Hz)
PTSPERDEC	QUANT	1.00000E+001	Points/&decade
VAC	QUANT	2.50000E+001	AC &Voltage (mV rms)
AREA	QUANT	1.00000E-002	&Area (cm^2)
CONDIT	TWOPARAM	T	5.00000E+000	0.00000E+000	Conditionin&g	Time(s)	E(V)
DELAY	TWOPARAM	T	5.00000E+000	0.00000E+000	Init. De&lay	Time(s)	Stab.(mV/s)
SPEED	SELECTOR	1	&Optimize for:
ZGUESS	QUANT	1.00000E+004	E&stimated Z (ohms)
OCVCURVE	TABLE	19
	Pt	T	Vf	Vm	Ach	Over
	#	s	V vs. Ref.	V	V	bits
	0	0.258333	-8.76758E-004	-8.76758E-004	6.35631E-004	...........
	1	0.516667	-8.80423E-004	-1.06860E-003	6.32698E-004	...........
	2	0.775	-9.02879E-004	-1.24794E-003	6.33865E-004	...........
	3	1.03333	-9.65949E-004	-1.40440E-003	6.28965E-004	...........
	4	1.29167	-1.07706E-003	-1.54836E-003	6.28331E-004	...........
	5	1.55	-1.22105E-003	-1.67906E-003	6.33498E-004	...........
	6	1.80833	-1.37517E-003	-1.80822E-003	6.33798E-004	...........
	7	2.06667	-1.52361E-003	-1.89125E-003	6.32231E-004	...........
	8	2.325	-1.65878E-003	-1.99046E-003	6.31465E-004	...........
	9	2.58333	-1.77888E-003	-2.10958E-003	6.33831E-004	...........
	10	2.84167	-1.88858E-003	-2.24572E-003	6.34165E-004	...........
	11	3.1	-1.99614E-003	-2.31363E-003	6.37298E-004	...........
	12	3.35833	-2.10520E-003	-2.43757E-003	6.34598E-004	...........
	13	3.61667	-2.21245E-003	-2.47654E-003	6.27165E-004	...........
	14	3.875	-2.31329E-003	-2.61159E-003	6.37331E-004	...........
	15	4.13333	-2.40487E-003	-2.55336E-003	6.34565E-004	...........
	16	4.39167	-2.48388E-003	-2.69479E-003	6.37531E-004	...........
	17	4.65	-2.55366E-003	-2.94050E-003	6.37598E-004	...........
	18	4.90833	-2.63293E-003	-2.96870E-003	6.33398E-004	...........
EOC	QUANT	-0.0026329	Open Circuit (V)
PSTATMODEL	IQUANT	4	Pstat Model
PSTATSECTION	LABEL	REF600-11020	Pstat Section
PSTATSERIALNO	LABEL	11020	Pstat Serial Number
CTRLMODE	IQUANT	1	Control Mode
IESTAB	IQUANT	0	I/E Stability
CASPEED	IQUANT	1	Control Amp Speed
CONVENTION	IQUANT	1	Current Convention
ICHRANGE	IQUANT	2	Ich Range
ICHRANGEMODE	TOGGLE	F	Ich Auto Range
ICHOFFSETENABLE	TOGGLE	T	Ich Offset Enable
ICHOFFSET	QUANT	0	Ich Offset (V)
ICHFILTER	IQUANT	3	Ich Filter
VCHRANGE	IQUANT	2	Vch Range
VCHRANGEMODE	TOGGLE	F	Vch Auto Range
VCHOFFSETENABLE	TOGGLE	T	Vch Offset Enable
VCHOFFSET	QUANT	0	Vch Offset (V)
VCHFILTER	IQUANT	3	Vch Filter
ACHRANGE	IQUANT	2	Ach Range
ACHOFFSETENABLE	TOGGLE	F	Ach Offset Enable
ACHOFFSET	QUANT	0	Ach Offset (V)
ACHFILTER	IQUANT	3	Ach Filter
IERANGELOWERLIMIT	IQUANT	1	I/E Range Lower Limit
IERANGEMODE	TOGGLE	F	I/E AutoRange
IERANGE	IQUANT	5	I/E Range
POSFEEDENABLE	TOGGLE	F	Positive Feedback IR Comp
POSFEEDRESISTANCE	QUANT	0	Positive Feedback Resistance (ohm)
ACHSELECT	IQUANT	0	Ach Select
CABLEID	IQUANT	14	Cable ID
DCCALDATE	LABEL	8/19/2019	DC Calibration Date
ACCALDATE	LABEL	8/19/2019	AC Calibration Date
THERMOSELECT	IQUANT	1	Thermo Select
FRAMEWORKVERSION	QUANT	6.33	Framework Version
INSTRUMENTVERSION	LABEL	3.50	Instrument Version
ZCURVE	TABLE
	Pt	Time	Freq	Zreal	Zimag	Zsig	Zmod	Zphz	Idc	Vdc	IERange
	#	s	Hz	ohm	ohm	V	ohm	°	A	V	#
	0	1	1000078	1453.982	-2666.153	1	3036.846	-61.39423	-5.682832E-006	-6.578773E-006	8
	1	3	794390.6	1633.239	-3164.705	1	3561.295	-62.70268	5.542516E-006	-0.0015255	8
	2	4	630984.4	1826.143	-3746.683	1	4168.024	-64.01527	-3.759558E-006	-0.0004783	8
	3	6	501234.4	2012.968	-4474.932	1	4906.838	-65.78026	1.639817E-006	-0.0012465	8
	4	7	398109.4	2270.467	-5367.008	1	5827.503	-67.06963	8.302396E-007	-0.0011077	8
	5	9	316265.6	2505.271	-6529.515	1	6993.637	-69.00899	1.626743E-006	-0.0016189	8
	6	10	251203.1	2995.48	-7916.504	1	8464.274	-69.27415	-5.046847E-007	-0.0009628	8
	7	12	199546.9	3499.004	-9555.25	1	10175.75	-69.88795	-8.752295E-007	-0.0009634	8
	8	14	158578.1	4197.538	-11664.2	1	12396.49	-70.20797	2.636094E-006	-0.0017124	8
	9	16	125953.1	5280.892	-14078.83	1	15036.67	-69.43921	-2.656918E-007	-0.0005949	7
	10	17	100078.1	6414.664	-16960.27	1	18132.8	-69.28252	-5.125824E-008	-0.0011692	7
	11	19	79453.13	7994.805	-20463.55	1	21969.84	-68.66015	-5.125495E-008	-0.0011768	7
	12	20	63140.62	10078.9	-24599.49	1	26584.19	-67.72012	8.727893E-008	-0.0014008	7
	13	21	50203.12	12815.25	-29175.54	1	31866.01	-66.2867	-5.075364E-008	-0.0011872	7
	14	23	39890.62	16480.4	-34573.95	1	38300.94	-64.51421	4.929282E-008	-0.0012801	7
	15	24	31640.63	21299.91	-40497.74	1	45757.55	-62.25774	5.376522E-008	-0.0012855	7
	16	26	25171.88	27318.99	-46521.13	1	53949.45	-59.57692	-5.67929E-008	-0.0011736	7
	17	27	20015.62	34840.8	-52980.25	1	63409.68	-56.67033	-3.75823E-008	-0.0012163	7
	18	29	15890.62	44172.59	-58962.49	1	73673.55	-53.16076	-5.615484E-008	-0.0011766	7
	19	31	12609.37	55786.21	-64262.32	1	85098.46	-49.0387	6.653142E-009	-0.0012626	6
	20	32	10078.13	67552.08	-68607.82	1	96282.5	-45.44424	7.43854E-009	-0.0012556	6
	21	33	8015.625	80463.91	-71571.41	1	107688.9	-41.6526	6.822165E-009	-0.0014719	6
	22	35	6328.125	94265.85	-72936.09	1	119187.8	-37.73011	3.153853E-010	-0.0011398	6
	23	36	5015.625	107735.6	-72789.42	1	130020.3	-34.04414	1.94428E-008	-0.0016421	6
	24	38	3984.375	120507.5	-70905.47	1	139820.1	-30.47214	-8.297102E-009	-0.0011387	6
	25	39	3170.956	133556.9	-70690.21	1	151111	-27.89179	-3.823432E-010	-0.0011511	6
	26	41	2527.573	145538.9	-68732.92	1	160952.7	-25.27973	8.142696E-010	-0.0014054	6
	27	43	1976.103	156549.5	-65157.61	1	169567.8	-22.59761	-5.912437E-009	-0.0013626	6
	28	44	1577.524	164967.9	-62443.87	1	176390.6	-20.73272	-2.870621E-009	-0.0013081	6
	29	46	1265.625	174547.2	-56925.15	1	183595.2	-18.06273	-1.109025E-009	-0.0014581	5
	30	47	998.264	182246.1	-54901.34	1	190336	-16.76484	-2.630513E-010	-0.0012426	5
	31	48	796.875	189131.1	-53782.75	1	196629.5	-15.87403	-1.033038E-009	-0.0011374	5
	32	50	627.7902	195749.2	-52401.96	1	202641.9	-14.98665	-3.257966E-010	-0.0014571	5
	33	51	505.5147	201555.7	-52006.01	1	208157	-14.46806	-1.136386E-009	-0.0012785	5
	34	53	397.9953	207687	-52717.41	1	214273.2	-14.24265	-4.12013E-010	-0.001253	5
	35	54	315.5048	213323.8	-53519.23	1	219934.9	-14.08383	-7.759814E-010	-0.0012613	5
	36	55	252.4038	218897.7	-55580	1	225843.6	-14.24682	-6.695202E-010	-0.001256	5
	37	57	198.6229	225207.9	-58580.98	1	232702.3	-14.58063	-5.855324E-010	-0.0012607	5
	38	58	158.3615	231173.1	-62542.8	1	239484	-15.13869	-7.111377E-010	-0.0012626	5
	39	60	125.558	237954.1	-68126.87	1	247514.5	-15.97655	-1.213255E-010	-0.0012587	5
	40	61	100.4464	244489.2	-75073.16	1	255755.6	-17.06969	-3.657787E-010	-0.0012659	5
	41	63	79.00281	251986.1	-85245.13	1	266014.5	-18.69032	-5.970631E-010	-0.0012695	5
	42	64	63.3446	259538.1	-108550	1	281323.8	-22.69678	2.429867E-011	-0.0012625	5
	43	66	49.86702	269243.2	-108370.8	1	290234.6	-21.92485	-4.318744E-010	-0.0012692	5
	44	67	39.72458	280157.4	-122912.9	1	305934.3	-23.68841	-5.631882E-010	-0.0012665	5
	45	69	31.6723	294046.8	-138359.9	1	324972.3	-25.19872	-1.942649E-010	-0.0012612	5
	46	70	24.93351	312825.8	-162108.3	1	352333.8	-27.39347	-2.093658E-010	-0.0012595	5
	47	71	19.86229	332384.1	-184005.7	1	379917.5	-28.96863	4.185468E-011	-0.0012594	5
	48	73	15.83615	354028	-221928	1	417837.2	-32.08219	1.221665E-009	-0.0012637	5
	49	74	12.40079	391357.8	-235081.3	1	456535	-30.99245	-8.951986E-010	-0.0012547	5
	50	76	9.93114	423662.9	-265457.1	1	499957.7	-32.07028	-7.366956E-011	-0.0012606	5
	51	77	7.944915	462469	-294382.9	1	548214.2	-32.47864	-1.074028E-010	-0.0012633	5
	52	79	6.317385	505187.8	-322585.5	1	599396.4	-32.56009	-3.866593E-010	-0.0012651	5
	53	81	5.008013	553514	-351676.3	1	655785	-32.42992	-1.761031E-010	-0.0012767	6
	54	84	3.945707	605538.9	-380330.4	1	715072.4	-32.13234	2.606977E-010	-0.001263	6
	55	87	3.158693	656778.1	-409260.3	1	773854.9	-31.92841	2.212128E-010	-0.0012554	6
	56	91	2.504006	711055.8	-441516.6	1	836981	-31.83743	-3.209051E-010	-0.0012581	5
	57	93	1.998082	760733.2	-476418.2	1	897601.9	-32.05734	2.561025E-010	-0.0013002	5
	58	96	1.584686	821903.8	-521548.4	1	973416	-32.39764	-1.934674E-010	-0.0012917	4
	59	100	1.266892	878817	-571180.1	1	1048125	-33.02153	1.163289E-010	-0.0013065	4
	60	104	0.999041	944002.6	-635531.8	1	1137999	-33.94966	-1.76089E-010	-0.0012287	4
