EXPLAIN
TAG	EISPOT
TITLE	LABEL	Potentiostatic EIS	Test &Identifier
DATE	LABEL	10/12/2019	Date
TIME	LABEL	11:25:23	Time
NOTES	NOTES	1	&Notes...
	
PSTAT	PSTAT	REF600-11020	Potentiostat
VDC	POTEN	0.00000E+000	T	DC &Voltage (V)
FREQINIT	QUANT	1.00000E+006	Initial Fre&q. (Hz)
FREQFINAL	QUANT	1.00000E+000	Final Fre&q. (Hz)
PTSPERDEC	QUANT	1.00000E+001	Points/&decade
VAC	QUANT	2.50000E+001	AC &Voltage (mV rms)
AREA	QUANT	1.00000E-002	&Area (cm^2)
CONDIT	TWOPARAM	T	5.00000E+000	0.00000E+000	Conditionin&g	Time(s)	E(V)
DELAY	TWOPARAM	T	5.00000E+000	0.00000E+000	Init. De&lay	Time(s)	Stab.(mV/s)
SPEED	SELECTOR	1	&Optimize for:
ZGUESS	QUANT	1.00000E+004	E&stimated Z (ohms)
OCVCURVE	TABLE	19
	Pt	T	Vf	Vm	Ach	Over
	#	s	V vs. Ref.	V	V	bits
	0	0.258333	4.46980E-003	4.46980E-003	5.25966E-004	...........
	1	0.516667	4.47410E-003	4.69475E-003	5.32500E-004	...........
	2	0.775	4.48913E-003	4.31334E-003	5.28866E-004	...........
	3	1.03333	4.48826E-003	3.65288E-003	5.38633E-004	...........
	4	1.29167	4.39547E-003	3.35472E-003	5.36433E-004	...........
	5	1.55	4.17717E-003	4.01240E-003	5.30566E-004	...........
	6	1.80833	3.93364E-003	3.92373E-003	5.31766E-004	...........
	7	2.06667	3.79484E-003	3.51386E-003	5.32566E-004	...........
	8	2.325	3.74461E-003	2.97637E-003	5.29499E-004	...........
	9	2.58333	3.66730E-003	3.63380E-003	5.33566E-004	...........
	10	2.84167	3.54776E-003	3.81632E-003	5.24066E-004	...........
	11	3.1	3.48671E-003	3.62768E-003	5.29100E-004	...........
	12	3.35833	3.51920E-003	3.27652E-003	5.27966E-004	...........
	13	3.61667	3.55411E-003	3.15726E-003	5.37133E-004	...........
	14	3.875	3.50394E-003	3.04978E-003	5.30033E-004	...........
	15	4.13333	3.37662E-003	3.07734E-003	5.31966E-004	...........
	16	4.39167	3.23322E-003	2.87813E-003	5.32300E-004	...........
	17	4.65	3.11432E-003	2.93625E-003	5.34300E-004	...........
	18	4.90833	3.02643E-003	2.93732E-003	5.23700E-004	...........
EOC	QUANT	0.0030264	Open Circuit (V)
PSTATMODEL	IQUANT	4	Pstat Model
PSTATSECTION	LABEL	REF600-11020	Pstat Section
PSTATSERIALNO	LABEL	11020	Pstat Serial Number
CTRLMODE	IQUANT	1	Control Mode
IESTAB	IQUANT	0	I/E Stability
CASPEED	IQUANT	1	Control Amp Speed
CONVENTION	IQUANT	1	Current Convention
ICHRANGE	IQUANT	2	Ich Range
ICHRANGEMODE	TOGGLE	F	Ich Auto Range
ICHOFFSETENABLE	TOGGLE	T	Ich Offset Enable
ICHOFFSET	QUANT	0	Ich Offset (V)
ICHFILTER	IQUANT	3	Ich Filter
VCHRANGE	IQUANT	2	Vch Range
VCHRANGEMODE	TOGGLE	F	Vch Auto Range
VCHOFFSETENABLE	TOGGLE	T	Vch Offset Enable
VCHOFFSET	QUANT	0	Vch Offset (V)
VCHFILTER	IQUANT	3	Vch Filter
ACHRANGE	IQUANT	2	Ach Range
ACHOFFSETENABLE	TOGGLE	F	Ach Offset Enable
ACHOFFSET	QUANT	0	Ach Offset (V)
ACHFILTER	IQUANT	3	Ach Filter
IERANGELOWERLIMIT	IQUANT	1	I/E Range Lower Limit
IERANGEMODE	TOGGLE	F	I/E AutoRange
IERANGE	IQUANT	5	I/E Range
POSFEEDENABLE	TOGGLE	F	Positive Feedback IR Comp
POSFEEDRESISTANCE	QUANT	0	Positive Feedback Resistance (ohm)
ACHSELECT	IQUANT	0	Ach Select
CABLEID	IQUANT	14	Cable ID
DCCALDATE	LABEL	8/19/2019	DC Calibration Date
ACCALDATE	LABEL	8/19/2019	AC Calibration Date
THERMOSELECT	IQUANT	1	Thermo Select
FRAMEWORKVERSION	QUANT	6.33	Framework Version
INSTRUMENTVERSION	LABEL	3.50	Instrument Version
ZCURVE	TABLE
	Pt	Time	Freq	Zreal	Zimag	Zsig	Zmod	Zphz	Idc	Vdc	IERange
	#	s	Hz	ohm	ohm	V	ohm	°	A	V	#
	0	1	1000078	2397.432	-1677.321	1	2925.933	-34.97787	-6.371928E-006	0.0062613	8
	1	3	794390.6	2719.36	-1603.126	1	3156.728	-30.52035	5.323152E-007	0.0051575	8
	2	4	630984.4	3025.588	-1495.11	1	3374.838	-26.29651	4.480272E-007	0.0048189	8
	3	6	501234.4	3262.423	-1366.32	1	3536.981	-22.72419	2.316629E-006	0.0041821	8
	4	7	398109.4	3491.45	-1202.973	1	3692.88	-19.0113	-1.628239E-006	0.0048435	8
	5	9	316265.6	3645.565	-1064.718	1	3797.864	-16.28088	-3.386875E-007	0.0045761	8
	6	10	251203.1	3779.597	-901.513	1	3885.625	-13.41558	6.767843E-007	0.0045983	8
	7	12	199546.9	3890.433	-780.9103	1	3968.033	-11.34991	2.933841E-006	0.0040568	8
	8	13	158578.1	3959.783	-674.7898	1	4016.867	-9.67092	-9.42E-007	0.0045435	8
	9	15	125953.1	4004.915	-540.3989	1	4041.21	-7.684729	4.103781E-007	0.0043863	7
	10	16	100078.1	4052.767	-470.1767	1	4079.949	-6.617516	-1.108981E-008	0.0046206	7
	11	18	79453.13	4087.579	-424.661	1	4109.579	-5.931215	-2.761392E-008	0.0045446	7
	12	19	63140.62	4117.064	-396.2489	1	4136.089	-5.497527	-6.60332E-008	0.0046787	7
	13	20	50203.12	4150.414	-377.5912	1	4167.555	-5.198273	-8.587969E-008	0.0046547	7
	14	22	39890.62	4174.875	-363.0901	1	4190.635	-4.970523	8.294018E-008	0.004395	7
	15	23	31640.63	4202.149	-355.9971	1	4217.202	-4.842413	7.167615E-008	0.0044558	7
	16	24	25171.88	4234.303	-367.8019	1	4250.247	-4.964391	-1.485904E-008	0.0045529	7
	17	26	20015.62	4270.469	-376.8885	1	4287.067	-5.043549	-7.21622E-008	0.0047656	7
	18	27	15890.62	4301.86	-416.4061	1	4321.966	-5.528821	6.696103E-010	0.0046027	7
	19	29	12609.37	4328.314	-446.6169	1	4351.295	-5.891213	-5.364716E-008	0.0046096	7
	20	30	10078.13	4353.729	-485.1736	1	4380.679	-6.358728	-6.097316E-008	0.0046144	7
	21	31	8015.625	4401.232	-558.0641	1	4436.471	-7.226384	1.212298E-007	0.0043609	7
	22	33	6328.125	4439.994	-626.8005	1	4484.019	-8.03543	-1.919092E-008	0.0046014	7
	23	34	5015.625	4476.41	-733.9857	1	4536.186	-9.311785	-7.749104E-008	0.0046641	7
	24	35	3984.375	4524.327	-864.4681	1	4606.174	-10.81719	2.431973E-008	0.0044739	7
	25	37	3170.956	4554.181	-1012.019	1	4665.27	-12.52856	5.43113E-008	0.0044558	7
	26	38	2527.573	4602.41	-1206.314	1	4757.874	-14.68712	-1.647893E-009	0.0044937	7
	27	39	1976.103	4663.338	-1459.081	1	4886.271	-17.37403	-6.550113E-009	0.0045717	7
	28	41	1577.524	4726.734	-1762.191	1	5044.535	-20.44615	-1.211296E-010	0.0044867	7
	29	42	1265.625	4800.683	-2109.023	1	5243.523	-23.71671	4.521632E-008	0.0044128	7
	30	44	998.264	4880.288	-2604.876	1	5531.96	-28.09128	7.517439E-008	0.0043918	7
	31	45	796.875	4992.232	-3154.792	1	5905.514	-32.29044	4.473185E-008	0.0045022	7
	32	46	627.7902	5101.619	-3919.398	1	6433.366	-37.53383	-4.611993E-008	0.0046419	7
	33	48	505.5147	5230.955	-4738.621	1	7058.146	-42.17282	-8.022486E-008	0.0047619	7
	34	49	397.9953	5451.854	-5840.971	1	7989.973	-46.97346	6.574884E-009	0.0045614	7
	35	51	315.5048	5695.145	-7187.844	1	9170.593	-51.60916	7.549096E-009	0.0045609	7
	36	52	252.4038	5994.414	-8774.808	1	10626.86	-55.66149	1.644616E-009	0.0045011	6
	37	53	198.6229	6407.902	-10864.83	1	12613.71	-59.46858	6.607216E-010	0.0045004	6
	38	55	158.3615	6902.155	-13309.85	1	14993.06	-62.58987	2.038778E-009	0.0044923	6
	39	56	125.558	7564.789	-16361.95	1	18026.07	-65.187	3.317605E-010	0.004494	6
	40	57	100.4464	8434.975	-19910.3	1	21623.34	-67.04012	1.495613E-009	0.0044916	6
	41	59	79.00281	9631.4	-24717.39	1	26527.59	-68.71108	2.092538E-009	0.0044839	6
	42	60	63.3446	10891.16	-30365.31	1	32259.41	-70.26855	-3.999744E-010	0.0044896	6
	43	62	49.86702	12783.01	-36438.19	1	38615.37	-70.66844	-7.101671E-010	0.0044876	6
	44	63	39.72458	15520.95	-44523.46	1	47151.23	-70.78136	6.032788E-010	0.0044899	6
	45	64	31.6723	19000.95	-53822.36	1	57077.86	-70.5554	8.82558E-010	0.0044915	6
	46	66	24.93351	23505.29	-65535.06	1	69622.86	-70.26875	1.278053E-009	0.0044895	6
	47	67	19.86229	29192.55	-78871.52	1	84100.66	-69.68908	9.622502E-010	0.0044918	6
	48	69	15.83615	36357.17	-92330.13	1	99230.5	-68.50679	-1.612569E-009	0.0044908	6
	49	70	12.40079	45964.18	-114499.6	1	123381	-68.12773	1.67076E-009	0.0045004	5
	50	72	9.93114	57525.29	-133649	1	145503.4	-66.71197	1.66404E-010	0.0045027	5
	51	73	7.944915	72112.55	-156639.2	1	172441.5	-65.27991	6.182488E-010	0.0045028	5
	52	75	6.317385	89640.55	-182890.4	1	203677	-63.88902	6.183866E-011	0.0045158	5
	53	77	5.008013	112059.6	-213074.3	1	240744.7	-62.25931	1.242253E-010	0.004499	5
	54	79	3.945707	139011.3	-246310.7	1	282830.5	-60.56075	4.54172E-010	0.0045048	5
	55	82	3.158693	169206.6	-280504.8	1	327587.8	-58.9007	-8.748017E-011	0.0044995	5
	56	86	2.504006	204940.7	-318797.3	1	378988.6	-57.26483	5.947123E-010	0.0044971	5
	57	88	1.998082	243289.6	-357942.9	1	432796.7	-55.79652	2.861204E-011	0.0045399	5
	58	92	1.584686	284666.8	-403705.4	1	493977	-54.811	2.683456E-010	0.004489	5
	59	95	1.266892	329101.3	-449837.1	1	557369.8	-53.81076	1.623077E-010	0.0045328	5
	60	99	0.999041	377470.6	-506011.4	1	631293.6	-53.27808	-1.528304E-011	0.0044555	5
