EXPLAIN
TAG	EISPOT
TITLE	LABEL	Potentiostatic EIS	Test &Identifier
DATE	LABEL	11/11/2019	Date
TIME	LABEL	12:33:07	Time
NOTES	NOTES	3	&Notes...
	
	
	
PSTAT	PSTAT	REF600-11020	Potentiostat
VDC	POTEN	0.00000E+000	T	DC &Voltage (V)
FREQINIT	QUANT	1.00000E+006	Initial Fre&q. (Hz)
FREQFINAL	QUANT	1.00000E+000	Final Fre&q. (Hz)
PTSPERDEC	QUANT	1.00000E+001	Points/&decade
VAC	QUANT	2.50000E+001	AC &Voltage (mV rms)
AREA	QUANT	1.00000E-002	&Area (cm^2)
CONDIT	TWOPARAM	T	5.00000E+000	0.00000E+000	Conditionin&g	Time(s)	E(V)
DELAY	TWOPARAM	T	5.00000E+000	0.00000E+000	Init. De&lay	Time(s)	Stab.(mV/s)
SPEED	SELECTOR	1	&Optimize for:
ZGUESS	QUANT	1.00000E+005	E&stimated Z (ohms)
OCVCURVE	TABLE	19
	Pt	T	Vf	Vm	Ach	Over
	#	s	V vs. Ref.	V	V	bits
	0	0.258333	4.64646E-003	4.64646E-003	5.44966E-004	...........
	1	0.516667	4.64478E-003	4.55833E-003	5.45266E-004	...........
	2	0.775	4.63666E-003	4.59110E-003	5.44366E-004	...........
	3	1.03333	4.61604E-003	4.35867E-003	5.40766E-004	...........
	4	1.29167	4.57326E-003	4.22972E-003	5.40499E-004	...........
	5	1.55	4.49777E-003	4.18450E-003	5.41499E-004	...........
	6	1.80833	4.39274E-003	3.96896E-003	5.43866E-004	...........
	7	2.06667	4.26727E-003	3.63014E-003	5.46799E-004	...........
	8	2.325	4.11336E-003	3.42308E-003	5.44233E-004	...........
	9	2.58333	3.93113E-003	3.85625E-003	5.38499E-004	...........
	10	2.84167	3.78353E-003	4.36460E-003	5.43966E-004	...........
	11	3.1	3.76713E-003	4.30421E-003	5.44166E-004	...........
	12	3.35833	3.88092E-003	3.41528E-003	5.39533E-004	...........
	13	3.61667	3.98033E-003	3.56697E-003	5.45766E-004	...........
	14	3.875	3.94359E-003	3.77418E-003	5.41466E-004	...........
	15	4.13333	3.81553E-003	3.56657E-003	5.45666E-004	...........
	16	4.39167	3.70893E-003	3.79938E-003	5.49433E-004	...........
	17	4.65	3.67867E-003	4.27824E-003	5.45833E-004	...........
	18	4.90833	3.73433E-003	3.89242E-003	5.51199E-004	...........
EOC	QUANT	0.0037343	Open Circuit (V)
PSTATMODEL	IQUANT	4	Pstat Model
PSTATSECTION	LABEL	REF600-11020	Pstat Section
PSTATSERIALNO	LABEL	11020	Pstat Serial Number
CTRLMODE	IQUANT	1	Control Mode
IESTAB	IQUANT	0	I/E Stability
CASPEED	IQUANT	1	Control Amp Speed
CONVENTION	IQUANT	1	Current Convention
ICHRANGE	IQUANT	2	Ich Range
ICHRANGEMODE	TOGGLE	F	Ich Auto Range
ICHOFFSETENABLE	TOGGLE	T	Ich Offset Enable
ICHOFFSET	QUANT	0	Ich Offset (V)
ICHFILTER	IQUANT	3	Ich Filter
VCHRANGE	IQUANT	2	Vch Range
VCHRANGEMODE	TOGGLE	F	Vch Auto Range
VCHOFFSETENABLE	TOGGLE	T	Vch Offset Enable
VCHOFFSET	QUANT	0	Vch Offset (V)
VCHFILTER	IQUANT	3	Vch Filter
ACHRANGE	IQUANT	2	Ach Range
ACHOFFSETENABLE	TOGGLE	F	Ach Offset Enable
ACHOFFSET	QUANT	0	Ach Offset (V)
ACHFILTER	IQUANT	3	Ach Filter
IERANGELOWERLIMIT	IQUANT	1	I/E Range Lower Limit
IERANGEMODE	TOGGLE	F	I/E AutoRange
IERANGE	IQUANT	4	I/E Range
POSFEEDENABLE	TOGGLE	F	Positive Feedback IR Comp
POSFEEDRESISTANCE	QUANT	0	Positive Feedback Resistance (ohm)
ACHSELECT	IQUANT	0	Ach Select
CABLEID	IQUANT	14	Cable ID
DCCALDATE	LABEL	8/19/2019	DC Calibration Date
ACCALDATE	LABEL	8/19/2019	AC Calibration Date
THERMOSELECT	IQUANT	1	Thermo Select
FRAMEWORKVERSION	QUANT	6.33	Framework Version
INSTRUMENTVERSION	LABEL	3.50	Instrument Version
ZCURVE	TABLE
	Pt	Time	Freq	Zreal	Zimag	Zsig	Zmod	Zphz	Idc	Vdc	IERange
	#	s	Hz	ohm	ohm	V	ohm	°	A	V	#
	0	2	1000078	2436.575	-1242.375	1	2735.031	-27.01638	-7.824416E-006	0.006586	8
	1	3	794390.6	2647.9	-1122.979	1	2876.188	-22.98189	1.80546E-006	0.0062231	8
	2	4	630984.4	2824.472	-1002.229	1	2997.016	-19.5366	-1.896669E-006	0.0059808	8
	3	6	501234.4	2962.229	-881.8746	1	3090.713	-16.57861	-1.136121E-006	0.0058554	8
	4	7	398109.4	3069.249	-761.0599	1	3162.199	-13.92634	-6.803297E-007	0.0057802	8
	5	9	316265.6	3156.033	-667.1245	1	3225.771	-11.93552	1.837561E-006	0.0048992	8
	6	10	251203.1	3213.85	-574.1863	1	3264.739	-10.12959	-2.395307E-006	0.0052135	8
	7	11	199546.9	3260.646	-509.3702	1	3300.192	-8.878846	8.136743E-007	0.0056575	8
	8	13	158578.1	3312.978	-453.1633	1	3343.827	-7.788826	-7.388345E-007	0.0057095	8
	9	14	125953.1	3352.005	-357.6257	1	3371.029	-6.089855	-1.574213E-006	0.0049309	7
	10	15	100078.1	3385.722	-338.4283	1	3402.594	-5.708183	9.349391E-007	0.0046042	7
	11	17	79453.13	3413.064	-334.7278	1	3429.438	-5.601229	7.104023E-007	0.0036402	7
	12	18	63140.62	3440.762	-336.8133	1	3457.208	-5.590824	-8.20933E-007	0.0068015	7
	13	19	50203.12	3470.768	-348.3348	1	3488.204	-5.731155	-1.006649E-006	0.006752	7
	14	21	39890.62	3502.684	-368.1908	1	3521.982	-6.00071	4.45263E-007	0.0037242	7
	15	22	31640.63	3536.045	-394.0149	1	3557.93	-6.358133	-1.008052E-006	0.0067516	7
	16	23	25171.88	3573.644	-429.7762	1	3599.394	-6.857613	7.153399E-008	0.0061335	7
	17	25	20015.62	3618.104	-472.66	1	3648.847	-7.442828	4.486807E-007	0.0037184	7
	18	26	15890.62	3664.468	-530.2179	1	3702.628	-8.233083	5.670358E-007	0.0054344	7
	19	28	12609.37	3716.577	-598.8784	1	3764.519	-9.15379	7.148029E-007	0.0036256	7
	20	29	10078.13	3771.336	-675.4595	1	3831.347	-10.15421	-6.685904E-007	0.0051025	7
	21	30	8015.625	3838.154	-758.4761	1	3912.379	-11.17847	-5.689174E-007	0.0067178	7
	22	32	6328.125	3913.588	-881.2993	1	4011.591	-12.69072	-1.12536E-006	0.006582	7
	23	33	5015.625	4001.206	-1012.968	1	4127.439	-14.20683	1.01192E-006	0.0041992	7
	24	34	3984.375	4088.336	-1158.866	1	4249.407	-15.82573	-1.008374E-006	0.0067424	7
	25	36	3170.956	4196.028	-1340.967	1	4405.093	-17.72285	-1.128834E-006	0.0065832	7
	26	37	2527.573	4311.244	-1548.888	1	4581.035	-19.76169	7.156577E-007	0.0036161	7
	27	39	1976.103	4444.123	-1813.699	1	4799.972	-22.20095	-8.223175E-007	0.0067852	7
	28	40	1577.524	4582.407	-2131.024	1	5053.684	-24.94054	-2.795233E-007	0.0044559	7
	29	41	1265.625	4723.57	-2452.422	1	5322.264	-27.43781	5.662185E-007	0.0054338	7
	30	43	998.264	4888.974	-2899.737	1	5684.236	-30.67293	-8.231789E-007	0.0067968	7
	31	44	796.875	5061.169	-3419.419	1	6108.016	-34.04368	-9.652948E-007	0.0057246	7
	32	45	627.7902	5259.615	-4091.773	1	6663.795	-37.88151	-8.201268E-007	0.00679	7
	33	47	505.5147	5454.824	-4849.742	1	7298.98	-41.63946	7.413431E-008	0.0061237	7
	34	48	397.9953	5697.733	-5881.008	1	8188.432	-45.90683	3.136921E-009	0.0052682	7
	35	50	315.5048	5970.885	-7124.845	1	9295.961	-50.03574	4.875599E-009	0.0052762	7
	36	51	252.4038	6284.66	-8598.806	1	10650.65	-53.83783	6.085414E-010	0.005208	6
	37	52	198.6229	6689.121	-10563.66	1	12503.41	-57.65718	5.980161E-010	0.0052076	6
	38	54	158.3615	7163.721	-12860.88	1	14721.45	-60.88147	-5.857947E-011	0.0052059	6
	39	55	125.558	7784.437	-15760.82	1	17578.42	-63.71474	6.456974E-010	0.0052004	6
	40	56	100.4464	8535.49	-19178.95	1	20992.54	-66.0088	-2.927833E-010	0.0052061	6
	41	58	79.00281	9647.93	-23652.47	1	25544.51	-67.80927	1.089033E-009	0.0052031	6
	42	59	63.3446	11115.77	-28804.93	1	30875.3	-68.8985	6.38388E-011	0.005201	6
	43	61	49.86702	12623.99	-35412.35	1	37595.21	-70.37959	-1.143881E-010	0.0052106	6
	44	62	39.72458	15107.03	-43093.26	1	45664.55	-70.68107	8.958955E-010	0.0052033	6
	45	63	31.6723	18297.91	-52211.36	1	55324.86	-70.68655	1.204248E-009	0.0052073	6
	46	65	24.93351	22564.73	-63680.18	1	67559.84	-70.48849	-1.511927E-010	0.005195	6
	47	66	19.86229	27930.35	-76803.67	1	81724.59	-70.01575	-2.646253E-010	0.0052026	6
	48	68	15.83615	35606.99	-91319.02	1	98015.4	-68.69827	-4.844568E-010	0.0051965	6
	49	69	12.40079	44397.75	-110951.4	1	119504.7	-68.19093	2.630516E-010	0.0052017	5
	50	70	9.93114	56189.97	-130096.3	1	141712.3	-66.63998	5.42499E-010	0.0052026	5
	51	72	7.944915	70091.12	-152190.6	1	167555.2	-65.27165	-6.691646E-010	0.0052041	5
	52	74	6.317385	87589.15	-177227.3	1	197690.1	-63.70053	-8.721354E-011	0.0052018	5
	53	76	5.008013	107976.8	-205367.9	1	232023.6	-62.26585	-4.317714E-010	0.0052114	5
	54	78	3.945707	133223.4	-237493.9	1	272308.3	-60.70953	-3.786017E-010	0.0052137	5
	55	81	3.158693	159239.2	-270247.7	1	313673.3	-59.49196	1.677724E-010	0.0052137	5
	56	84	2.504006	189273.8	-308637.8	1	362052.3	-58.48106	-4.933346E-010	0.0052206	5
	57	87	1.998082	221260.3	-350570.9	1	414555.3	-57.74222	1.688975E-010	0.0051743	5
	58	90	1.584686	255379.4	-400061.4	1	474623.8	-57.44785	1.686396E-010	0.0051922	5
	59	94	1.266892	294017.3	-458142	1	544371.5	-57.30927	1.342678E-010	0.0051615	5
	60	98	0.999041	339614.2	-530674.4	1	630042.2	-57.38209	-1.580346E-010	0.0052409	5
