EXPLAIN
TAG	EISPOT
TITLE	LABEL	Potentiostatic EIS	Test &Identifier
DATE	LABEL	11/7/2019	Date
TIME	LABEL	9:54:07	Time
NOTES	NOTES	2	&Notes...
	
	
PSTAT	PSTAT	REF600-11020	Potentiostat
VDC	POTEN	0.00000E+000	T	DC &Voltage (V)
FREQINIT	QUANT	1.00000E+006	Initial Fre&q. (Hz)
FREQFINAL	QUANT	1.00000E+000	Final Fre&q. (Hz)
PTSPERDEC	QUANT	1.00000E+001	Points/&decade
VAC	QUANT	2.50000E+001	AC &Voltage (mV rms)
AREA	QUANT	1.00000E-002	&Area (cm^2)
CONDIT	TWOPARAM	T	5.00000E+000	0.00000E+000	Conditionin&g	Time(s)	E(V)
DELAY	TWOPARAM	T	5.00000E+000	0.00000E+000	Init. De&lay	Time(s)	Stab.(mV/s)
SPEED	SELECTOR	1	&Optimize for:
ZGUESS	QUANT	1.00000E+005	E&stimated Z (ohms)
OCVCURVE	TABLE	19
	Pt	T	Vf	Vm	Ach	Over
	#	s	V vs. Ref.	V	V	bits
	0	0.258333	1.33913E-003	1.33913E-003	5.46133E-004	...........
	1	0.516667	1.33259E-003	9.96712E-004	5.42433E-004	...........
	2	0.775	1.29267E-003	6.85301E-004	5.39399E-004	...........
	3	1.03333	1.18095E-003	4.05376E-004	5.44699E-004	...........
	4	1.29167	9.84410E-004	1.44891E-004	5.44733E-004	...........
	5	1.55	7.29280E-004	-9.09520E-005	5.37933E-004	...........
	6	1.80833	4.55054E-004	-3.14335E-004	5.46166E-004	...........
	7	2.06667	1.89050E-004	-5.21570E-004	5.44766E-004	...........
	8	2.325	-5.81327E-005	-7.21251E-004	5.37566E-004	...........
	9	2.58333	-2.86223E-004	-9.06948E-004	5.34066E-004	...........
	10	2.84167	-4.98455E-004	-1.08736E-003	5.41399E-004	...........
	11	3.1	-6.98019E-004	-1.25819E-003	5.35533E-004	...........
	12	3.35833	-8.87281E-004	-1.42712E-003	5.43166E-004	...........
	13	3.61667	-1.06805E-003	-1.58682E-003	5.38466E-004	...........
	14	3.875	-1.24163E-003	-1.73915E-003	5.43499E-004	...........
	15	4.13333	-1.40861E-003	-1.88697E-003	5.42899E-004	...........
	16	4.39167	-1.56916E-003	-2.03240E-003	5.37799E-004	...........
	17	4.65	-1.72371E-003	-2.17235E-003	5.36166E-004	...........
	18	4.90833	-1.87300E-003	-2.30490E-003	5.38666E-004	...........
EOC	QUANT	-0.001873	Open Circuit (V)
PSTATMODEL	IQUANT	4	Pstat Model
PSTATSECTION	LABEL	REF600-11020	Pstat Section
PSTATSERIALNO	LABEL	11020	Pstat Serial Number
CTRLMODE	IQUANT	1	Control Mode
IESTAB	IQUANT	0	I/E Stability
CASPEED	IQUANT	1	Control Amp Speed
CONVENTION	IQUANT	1	Current Convention
ICHRANGE	IQUANT	2	Ich Range
ICHRANGEMODE	TOGGLE	F	Ich Auto Range
ICHOFFSETENABLE	TOGGLE	T	Ich Offset Enable
ICHOFFSET	QUANT	0	Ich Offset (V)
ICHFILTER	IQUANT	3	Ich Filter
VCHRANGE	IQUANT	2	Vch Range
VCHRANGEMODE	TOGGLE	F	Vch Auto Range
VCHOFFSETENABLE	TOGGLE	T	Vch Offset Enable
VCHOFFSET	QUANT	0	Vch Offset (V)
VCHFILTER	IQUANT	3	Vch Filter
ACHRANGE	IQUANT	2	Ach Range
ACHOFFSETENABLE	TOGGLE	F	Ach Offset Enable
ACHOFFSET	QUANT	0	Ach Offset (V)
ACHFILTER	IQUANT	3	Ach Filter
IERANGELOWERLIMIT	IQUANT	1	I/E Range Lower Limit
IERANGEMODE	TOGGLE	F	I/E AutoRange
IERANGE	IQUANT	4	I/E Range
POSFEEDENABLE	TOGGLE	F	Positive Feedback IR Comp
POSFEEDRESISTANCE	QUANT	0	Positive Feedback Resistance (ohm)
ACHSELECT	IQUANT	0	Ach Select
CABLEID	IQUANT	14	Cable ID
DCCALDATE	LABEL	8/19/2019	DC Calibration Date
ACCALDATE	LABEL	8/19/2019	AC Calibration Date
THERMOSELECT	IQUANT	1	Thermo Select
FRAMEWORKVERSION	QUANT	6.33	Framework Version
INSTRUMENTVERSION	LABEL	3.50	Instrument Version
ZCURVE	TABLE
	Pt	Time	Freq	Zreal	Zimag	Zsig	Zmod	Zphz	Idc	Vdc	IERange
	#	s	Hz	ohm	ohm	V	ohm	°	A	V	#
	0	2	1000078	2229.74	-1698.326	1	2802.865	-37.29543	-9.229557E-007	0.0012346	8
	1	3	794390.6	2572.614	-1643.637	1	3052.849	-32.57441	-6.35051E-007	-0.0002281	8
	2	4	630984.4	2892.107	-1546.235	1	3279.501	-28.13073	3.161171E-006	-0.0006739	8
	3	6	501234.4	3188.188	-1417.369	1	3489.051	-23.96844	-3.82207E-006	0.0005822	8
	4	7	398109.4	3402.875	-1277.727	1	3634.852	-20.58038	-4.51201E-007	-0.0005061	8
	5	9	316265.6	3590.462	-1114.391	1	3759.426	-17.24306	6.807646E-006	-0.0010237	8
	6	10	251203.1	3714.935	-975.511	1	3840.88	-14.71321	-2.015581E-006	-0.0004659	8
	7	12	199546.9	3836.61	-832.5615	1	3925.906	-12.24361	-2.748092E-006	-0.0003097	8
	8	13	158578.1	3865.511	-802.575	1	3947.949	-11.72936	-8.869827E-007	0.000256	8
	9	14	125953.1	4002.311	-566.5071	1	4042.205	-8.056413	4.753876E-008	0.0027254	7
	10	16	100078.1	4040.246	-497.4267	1	4070.752	-7.018815	-3.313928E-007	0.0012947	7
	11	17	79453.13	4078.573	-452.7313	1	4103.624	-6.334037	-1.193074E-006	0.0003261	7
	12	19	63140.62	4112.569	-420.0816	1	4133.968	-5.832295	-1.194768E-006	0.0003246	7
	13	20	50203.12	4143.417	-399.3222	1	4162.615	-5.504884	-1.251865E-006	0.0015842	7
	14	21	39890.62	4173.803	-390.2661	1	4192.009	-5.341838	-1.023212E-006	0.0016543	7
	15	23	31640.63	4207.05	-389.8051	1	4225.07	-5.293638	1.344097E-007	-0.0018398	7
	16	24	25171.88	4237.775	-403.0754	1	4256.901	-5.433334	5.579143E-007	-0.0021802	7
	17	25	20015.62	4266.317	-425.5776	1	4287.491	-5.696577	-8.29617E-007	-0.0004559	7
	18	27	15890.62	4301.017	-456.1271	1	4325.136	-6.053647	1.164606E-006	-0.0010898	7
	19	28	12609.37	4327.029	-502.383	1	4356.096	-6.622586	-3.304912E-007	0.001279	7
	20	29	10078.13	4359.623	-559.7858	1	4395.415	-7.316877	-1.02104E-006	0.0016529	7
	21	31	8015.625	4396.1	-639.0665	1	4442.308	-8.271218	-1.02179E-006	0.0016448	7
	22	32	6328.125	4447.8	-741.246	1	4509.143	-9.461645	9.531916E-007	-0.000523	7
	23	34	5015.625	4487.738	-867.1158	1	4570.742	-10.93587	-1.021793E-006	0.0016476	7
	24	35	3984.375	4544.54	-1021.034	1	4657.827	-12.66254	1.246328E-006	-0.0019491	7
	25	36	3170.956	4596.807	-1211.295	1	4753.722	-14.76232	9.53476E-007	-0.0005226	7
	26	38	2527.573	4656.265	-1442.407	1	4874.56	-17.21181	-8.299905E-007	-0.0004637	7
	27	39	1976.103	4741.894	-1759.252	1	5057.719	-20.35495	1.163164E-006	-0.0010902	7
	28	40	1577.524	4818.718	-2099.778	1	5256.34	-23.54538	-1.399334E-006	0.0013863	7
	29	42	1265.625	4908.484	-2529.34	1	5521.845	-27.26203	8.942804E-007	-0.0023071	7
	30	43	998.264	5024.302	-3086.52	1	5896.627	-31.56317	4.449209E-007	0.0003294	7
	31	44	796.875	5160.431	-3737.77	1	6371.889	-35.91632	8.953884E-007	-0.0023062	7
	32	46	627.7902	5322.758	-4589.026	1	7027.867	-40.76633	1.16267E-006	-0.0010906	7
	33	47	505.5147	5502.652	-5531.585	1	7802.411	-45.15024	1.164189E-006	-0.0010938	7
	34	49	397.9953	5734.047	-6814.283	1	8905.826	-49.92023	7.244234E-009	-0.0002562	7
	35	50	315.5048	6017.261	-8360.019	1	10300.36	-54.25492	1.921249E-009	-0.0003114	6
	36	52	252.4038	6348.672	-10190.35	1	12006.2	-58.07676	8.335947E-010	-0.0003193	6
	37	53	198.6229	6793.218	-12617.2	1	14329.75	-61.70157	5.964953E-010	-0.0003038	6
	38	54	158.3615	7336.196	-15450.67	1	17103.89	-64.60098	2.608739E-010	-0.0003205	6
	39	56	125.558	8049.972	-19018.65	1	20652.14	-67.05865	6.998528E-010	-0.0003227	6
	40	57	100.4464	8904.114	-23209.52	1	24858.9	-69.01116	1.523729E-009	-0.00031	6
	41	58	79.00281	10246.65	-28685.91	1	30461.04	-70.34319	9.090498E-010	-0.0003242	6
	42	60	63.3446	12129.05	-35053.57	1	37092.67	-70.91363	2.701107E-010	-0.0003286	6
	43	61	49.86702	13639.16	-43236.67	1	45336.92	-72.49194	2.70034E-010	-0.0003292	6
	44	63	39.72458	16681.39	-52595.04	1	55177.05	-72.40272	5.280764E-010	-0.0003068	6
	45	64	31.6723	20217.37	-63901.46	1	67023.42	-72.44349	-1.678001E-010	-0.0003149	6
	46	65	24.93351	25656.97	-78082.94	1	82190.18	-71.8102	3.870758E-010	-0.0003233	6
	47	67	19.86229	32299.02	-94250.27	1	99631	-71.08371	2.383306E-010	-0.0003173	6
	48	68	15.83615	40075.35	-113765.2	1	120617.4	-70.59449	-1.307217E-009	-0.0003106	5
	49	70	12.40079	53344.27	-136329.5	1	146394.5	-68.63013	7.012402E-010	-0.0003131	5
	50	71	9.93114	66661.88	-161331.8	1	174561.6	-67.54971	5.19892E-010	-0.0003213	5
	51	73	7.944915	84019.34	-189075.2	1	206902.6	-66.04108	9.363642E-010	-0.0003321	5
	52	74	6.317385	108345.3	-220338.4	1	245535.6	-63.81562	7.054891E-010	-0.0003036	5
	53	76	5.008013	136677.1	-255200.6	1	289496.1	-61.82795	5.376525E-010	-0.0003209	5
	54	79	3.945707	171262.4	-293593.4	1	339893.9	-59.74363	6.550073E-010	-0.0003199	5
	55	82	3.158693	209004.4	-331775.6	1	392119.7	-57.79082	3.163936E-013	-0.0003308	5
	56	85	2.504006	252174.6	-373214	1	450422.9	-55.95375	7.398631E-010	-0.0003158	5
	57	88	1.998082	297769.5	-415749.1	1	511384.3	-54.38885	3.07217E-010	-0.000279	5
	58	91	1.584686	346213.3	-463237.3	1	578318.7	-53.22638	2.856301E-010	-0.0003505	5
	59	94	1.266892	397381.7	-516894.8	1	651991.2	-52.4474	2.772484E-010	-0.0002882	5
	60	99	0.999041	451600	-581800.1	1	736501.1	-52.18097	-5.344659E-011	-0.0003559	5
