EXPLAIN
TAG	EISPOT
TITLE	LABEL	Potentiostatic EIS	Test &Identifier
DATE	LABEL	11/27/2019	Date
TIME	LABEL	12:22:26	Time
NOTES	NOTES	3	&Notes...
	
	
	
PSTAT	PSTAT	REF600-11020	Potentiostat
VDC	POTEN	0.00000E+000	T	DC &Voltage (V)
FREQINIT	QUANT	1.00000E+006	Initial Fre&q. (Hz)
FREQFINAL	QUANT	1.00000E+000	Final Fre&q. (Hz)
PTSPERDEC	QUANT	1.00000E+001	Points/&decade
VAC	QUANT	2.50000E+001	AC &Voltage (mV rms)
AREA	QUANT	1.00000E-002	&Area (cm^2)
CONDIT	TWOPARAM	T	5.00000E+000	0.00000E+000	Conditionin&g	Time(s)	E(V)
DELAY	TWOPARAM	T	5.00000E+000	0.00000E+000	Init. De&lay	Time(s)	Stab.(mV/s)
SPEED	SELECTOR	0	&Optimize for:
ZGUESS	QUANT	1.00000E+005	E&stimated Z (ohms)
OCVCURVE	TABLE	19
	Pt	T	Vf	Vm	Ach	Over
	#	s	V vs. Ref.	V	V	bits
	0	0.258333	8.47372E-003	8.47372E-003	5.50099E-004	...........
	1	0.516667	8.47467E-003	8.52340E-003	5.46566E-004	...........
	2	0.775	8.48133E-003	8.61425E-003	5.46266E-004	...........
	3	1.03333	8.50255E-003	8.68011E-003	5.49333E-004	...........
	4	1.29167	8.54451E-003	8.76325E-003	5.51166E-004	...........
	5	1.55	8.60521E-003	8.84609E-003	5.50199E-004	...........
	6	1.80833	8.67409E-003	8.72427E-003	5.43066E-004	...........
	7	2.06667	8.72129E-003	8.19805E-003	5.42266E-004	...........
	8	2.325	8.68962E-003	7.85697E-003	5.43899E-004	...........
	9	2.58333	8.53903E-003	7.92214E-003	5.46633E-004	...........
	10	2.84167	8.33713E-003	9.32452E-003	5.41466E-004	...........
	11	3.1	8.26944E-003	9.47087E-003	5.39199E-004	...........
	12	3.35833	8.43662E-003	7.98158E-003	5.39366E-004	...........
	13	3.61667	8.66285E-003	8.17828E-003	5.49366E-004	...........
	14	3.875	8.68849E-003	7.67711E-003	5.49433E-004	...........
	15	4.13333	8.47158E-003	7.46608E-003	5.46666E-004	...........
	16	4.39167	8.14512E-003	7.43935E-003	5.51333E-004	...........
	17	4.65	7.85221E-003	8.26720E-003	5.48366E-004	...........
	18	4.90833	7.71925E-003	8.66248E-003	5.44966E-004	...........
EOC	QUANT	0.0077192	Open Circuit (V)
PSTATMODEL	IQUANT	4	Pstat Model
PSTATSECTION	LABEL	REF600-11020	Pstat Section
PSTATSERIALNO	LABEL	11020	Pstat Serial Number
CTRLMODE	IQUANT	1	Control Mode
IESTAB	IQUANT	0	I/E Stability
CASPEED	IQUANT	1	Control Amp Speed
CONVENTION	IQUANT	1	Current Convention
ICHRANGE	IQUANT	2	Ich Range
ICHRANGEMODE	TOGGLE	F	Ich Auto Range
ICHOFFSETENABLE	TOGGLE	T	Ich Offset Enable
ICHOFFSET	QUANT	0	Ich Offset (V)
ICHFILTER	IQUANT	3	Ich Filter
VCHRANGE	IQUANT	2	Vch Range
VCHRANGEMODE	TOGGLE	F	Vch Auto Range
VCHOFFSETENABLE	TOGGLE	T	Vch Offset Enable
VCHOFFSET	QUANT	0	Vch Offset (V)
VCHFILTER	IQUANT	3	Vch Filter
ACHRANGE	IQUANT	2	Ach Range
ACHOFFSETENABLE	TOGGLE	F	Ach Offset Enable
ACHOFFSET	QUANT	0	Ach Offset (V)
ACHFILTER	IQUANT	3	Ach Filter
IERANGELOWERLIMIT	IQUANT	1	I/E Range Lower Limit
IERANGEMODE	TOGGLE	F	I/E AutoRange
IERANGE	IQUANT	5	I/E Range
POSFEEDENABLE	TOGGLE	F	Positive Feedback IR Comp
POSFEEDRESISTANCE	QUANT	0	Positive Feedback Resistance (ohm)
ACHSELECT	IQUANT	0	Ach Select
CABLEID	IQUANT	14	Cable ID
DCCALDATE	LABEL	8/19/2019	DC Calibration Date
ACCALDATE	LABEL	8/19/2019	AC Calibration Date
THERMOSELECT	IQUANT	1	Thermo Select
FRAMEWORKVERSION	QUANT	6.33	Framework Version
INSTRUMENTVERSION	LABEL	3.50	Instrument Version
ZCURVE	TABLE
	Pt	Time	Freq	Zreal	Zimag	Zsig	Zmod	Zphz	Idc	Vdc	IERange
	#	s	Hz	ohm	ohm	V	ohm	°	A	V	#
	0	1	1000078	2041.674	-1425.777	1	2490.235	-34.92804	-2.013651E-007	0.0097634	8
	1	1	794390.6	2323.311	-1367.524	1	2695.904	-30.4815	-1.863104E-006	0.0094336	8
	2	2	630984.4	2581.884	-1262.404	1	2873.985	-26.05618	-2.336604E-006	0.0094299	8
	3	2	501234.4	2791.212	-1133.796	1	3012.7	-22.10708	4.420747E-006	0.0093975	8
	4	2	398109.4	2969.387	-998.047	1	3132.627	-18.57811	-2.982897E-006	0.0098873	8
	5	3	316265.6	3076.733	-871.5905	1	3197.805	-15.8166	-1.899926E-006	0.0095	8
	6	3	251203.1	3189.806	-737.8272	1	3274.026	-13.02392	1.938648E-006	0.0088811	8
	7	3	199546.9	3267.136	-641.9146	1	3329.599	-11.11567	6.986078E-007	0.0096694	8
	8	4	158578.1	3323.599	-570.1046	1	3372.14	-9.73335	-5.285089E-006	0.0101089	8
	9	4	125953.1	3385.351	-459.8854	1	3416.445	-7.73603	-1.495499E-006	0.0123172	7
	10	4	100078.1	3415.232	-418.8761	1	3440.824	-6.99237	9.419635E-007	0.0086207	7
	11	4	79453.13	3445.59	-388.5181	1	3467.425	-6.433388	-1.006399E-006	0.0107753	7
	12	5	63140.62	3473.201	-370.4668	1	3492.903	-6.088398	9.88759E-007	0.0079277	7
	13	5	50203.12	3507.437	-365.6347	1	3526.443	-5.951334	3.617531E-007	0.0097486	7
	14	5	39890.62	3535.919	-363.2378	1	3554.528	-5.865304	7.110305E-007	0.0076534	7
	15	6	31640.63	3566.24	-373.2115	1	3585.716	-5.974328	9.359439E-007	0.0086149	7
	16	6	25171.88	3602.307	-391.8993	1	3623.562	-6.208858	9.968367E-007	0.0079313	7
	17	6	20015.62	3628.42	-423.8734	1	3653.094	-6.663114	5.624227E-007	0.0094572	7
	18	7	15890.62	3666.802	-462.7785	1	3695.889	-7.193137	8.935037E-007	0.0077288	7
	19	7	12609.37	3705.53	-509.8012	1	3740.434	-7.83349	-9.570484E-007	0.0097492	7
	20	7	10078.13	3751.244	-576.5031	1	3795.285	-8.73704	-2.586954E-007	0.0104926	7
	21	8	8015.625	3783.601	-649.0281	1	3838.864	-9.73362	5.627259E-007	0.0094534	7
	22	8	6328.125	3836.251	-749.2252	1	3908.729	-11.05084	-1.116303E-006	0.0102668	7
	23	8	5015.625	3887.008	-875.658	1	3984.42	-12.69555	-6.651539E-007	0.0091301	7
	24	8	3984.375	3937.693	-1021.954	1	4068.146	-14.54906	5.614445E-007	0.0094519	7
	25	9	3170.956	3991.32	-1204.722	1	4169.172	-16.79568	1.04476E-007	0.0080242	7
	26	9	2527.573	4058.311	-1429.668	1	4302.771	-19.40642	1.0181E-007	0.0080266	7
	27	9	1976.103	4125.928	-1736.06	1	4476.291	-22.81982	7.298259E-008	0.0101335	7
	28	10	1577.524	4192.588	-2073.733	1	4677.41	-26.31787	7.597363E-008	0.0101329	7
	29	10	1265.625	4280.121	-2517.002	1	4965.353	-30.45842	9.845099E-007	0.0079362	7
	30	10	998.264	4396.553	-3067.561	1	5360.933	-34.90424	-9.551657E-007	0.0097436	7
	31	11	796.875	4522.385	-3735.272	1	5865.512	-39.55507	8.879796E-007	0.0077316	7
	32	11	627.7902	4662.377	-4600.948	1	6550.304	-44.62005	1.046228E-007	0.008022	7
	33	11	505.5147	4836.636	-5555.556	1	7365.952	-48.95735	-2.503564E-007	0.010489	7
	34	12	397.9953	5075.331	-6887.097	1	8555.18	-53.61226	4.032696E-009	0.0092881	7
	35	12	315.5048	5368.091	-8470.046	1	10027.87	-57.63456	2.433973E-010	0.0092957	7
	36	12	252.4038	5721.492	-10334.53	1	11812.62	-61.02983	7.937343E-010	0.0092367	6
	37	13	198.6229	6210.559	-12794.88	1	14222.52	-64.10835	1.196761E-010	0.0092357	6
	38	13	158.3615	6804.707	-15658.65	1	17073.29	-66.5119	-1.592798E-010	0.0092324	6
	39	13	125.558	7582.281	-19239.06	1	20679.28	-68.49017	7.040206E-010	0.0092244	6
	40	13	100.4464	8540.604	-23458.34	1	24964.69	-69.99468	1.059159E-009	0.009223	6
	41	14	79.00281	9884.42	-28979.89	1	30619.21	-71.16659	-7.38037E-010	0.009223	6
	42	14	63.3446	11230.16	-34822.45	1	36588.52	-72.12561	-1.843177E-010	0.0092302	6
	43	14	49.86702	13762.75	-42831.25	1	44988.11	-72.18649	-1.983848E-010	0.0092241	6
	44	15	39.72458	16621.11	-52272.52	1	54851.41	-72.36088	7.286878E-010	0.0092323	6
	45	15	31.6723	20159.64	-63203.22	1	66340.47	-72.30911	1.105799E-009	0.0092227	6
	46	15	24.93351	25362.49	-77202.8	1	81262.1	-71.81373	4.752428E-010	0.0092296	6
	47	16	19.86229	31547.22	-92862.57	1	98074.9	-71.23637	1.1202E-009	0.0092279	6
	48	16	15.83615	38570.71	-110515.4	1	117052.8	-70.76062	-3.46589E-009	0.0092367	5
	49	16	12.40079	49756.2	-135523.9	1	144369	-69.83981	-2.367154E-009	0.009237	5
	50	17	9.93114	63150.51	-159769.8	1	171797.5	-68.43313	-7.094048E-010	0.0092263	5
	51	17	7.944915	78949.36	-187914.7	1	203825.8	-67.21107	5.185822E-010	0.0092422	5
	52	18	6.317385	98789	-221341.7	1	242387	-65.94788	-1.272977E-009	0.0092408	5
	53	19	5.008013	123481.9	-259331	1	287228.7	-64.53829	2.710341E-010	0.0092417	5
	54	20	3.945707	155003.6	-304061.5	1	341290.9	-62.98855	-3.343956E-010	0.0092312	5
	55	21	3.158693	190127.8	-349159.4	1	397568.7	-61.43038	-3.029087E-011	0.0092204	5
	56	23	2.504006	232334.9	-401594.2	1	463958.4	-59.94926	7.172512E-011	0.0092266	5
	57	24	1.998082	279267.6	-455997.4	1	534718.6	-58.51535	-1.399788E-010	0.0092006	5
	58	26	1.584686	333814.2	-519709.2	1	617680.8	-57.28698	-2.143115E-010	0.0091789	5
	59	28	1.266892	390408.1	-586949	1	704930.9	-56.37021	-2.800656E-010	0.0092006	5
	60	30	0.999041	455834.9	-666700.9	1	807635.8	-55.63891	-1.724791E-010	0.0092197	5
