EXPLAIN
TAG	EISPOT
TITLE	LABEL	Potentiostatic IDE	Test &Identifier
DATE	LABEL	9/10/2019	Date
TIME	LABEL	9:08:49	Time
NOTES	NOTES	1	&Notes...
	
PSTAT	PSTAT	REF600-11020	Potentiostat
VDC	POTEN	0.00000E+000	T	DC &Voltage (V)
FREQINIT	QUANT	1.00000E+006	Initial Fre&q. (Hz)
FREQFINAL	QUANT	1.00000E+000	Final Fre&q. (Hz)
PTSPERDEC	QUANT	1.00000E+001	Points/&decade
VAC	QUANT	2.50000E+001	AC &Voltage (mV rms)
AREA	QUANT	1.00000E-002	&Area (cm^2)
CONDIT	TWOPARAM	T	5.00000E+000	0.00000E+000	Conditionin&g	Time(s)	E(V)
DELAY	TWOPARAM	T	5.00000E+000	0.00000E+000	Init. De&lay	Time(s)	Stab.(mV/s)
SPEED	SELECTOR	1	&Optimize for:
ZGUESS	QUANT	1.00000E+007	E&stimated Z (ohms)
OCVCURVE	TABLE	19
	Pt	T	Vf	Vm	Ach	Over
	#	s	V vs. Ref.	V	V	bits
	0	0.258333	6.06504E-003	6.06504E-003	5.69366E-004	...........
	1	0.516667	6.06307E-003	5.96223E-003	5.64766E-004	...........
	2	0.775	6.05137E-003	5.88322E-003	5.68532E-004	...........
	3	1.03333	6.01975E-003	5.82495E-003	5.70266E-004	...........
	4	1.29167	5.96722E-003	5.78493E-003	5.66366E-004	...........
	5	1.55	5.90498E-003	5.75900E-003	5.69999E-004	...........
	6	1.80833	5.84655E-003	5.72540E-003	5.73199E-004	...........
	7	2.06667	5.79820E-003	5.67169E-003	5.65066E-004	...........
	8	2.325	5.75726E-003	5.62564E-003	5.64699E-004	...........
	9	2.58333	5.71802E-003	5.61075E-003	5.66766E-004	...........
	10	2.84167	5.67938E-003	5.60298E-003	5.68932E-004	...........
	11	3.1	5.64575E-003	5.59519E-003	5.64499E-004	...........
	12	3.35833	5.62092E-003	5.57295E-003	5.67899E-004	...........
	13	3.61667	5.60365E-003	5.56369E-003	5.69599E-004	...........
	14	3.875	5.59024E-003	5.56759E-003	5.70432E-004	...........
	15	4.13333	5.57850E-003	5.52817E-003	5.70699E-004	...........
	16	4.39167	5.56732E-003	5.54148E-003	5.66499E-004	...........
	17	4.65	5.55614E-003	5.53496E-003	5.65166E-004	...........
	18	4.90833	5.54637E-003	5.53185E-003	5.65032E-004	...........
EOC	QUANT	0.0055464	Open Circuit (V)
PSTATMODEL	IQUANT	4	Pstat Model
PSTATSECTION	LABEL	REF600-11020	Pstat Section
PSTATSERIALNO	LABEL	11020	Pstat Serial Number
CTRLMODE	IQUANT	1	Control Mode
IESTAB	IQUANT	0	I/E Stability
CASPEED	IQUANT	1	Control Amp Speed
CONVENTION	IQUANT	1	Current Convention
ICHRANGE	IQUANT	2	Ich Range
ICHRANGEMODE	TOGGLE	F	Ich Auto Range
ICHOFFSETENABLE	TOGGLE	T	Ich Offset Enable
ICHOFFSET	QUANT	0	Ich Offset (V)
ICHFILTER	IQUANT	3	Ich Filter
VCHRANGE	IQUANT	2	Vch Range
VCHRANGEMODE	TOGGLE	F	Vch Auto Range
VCHOFFSETENABLE	TOGGLE	T	Vch Offset Enable
VCHOFFSET	QUANT	0	Vch Offset (V)
VCHFILTER	IQUANT	3	Vch Filter
ACHRANGE	IQUANT	2	Ach Range
ACHOFFSETENABLE	TOGGLE	F	Ach Offset Enable
ACHOFFSET	QUANT	0	Ach Offset (V)
ACHFILTER	IQUANT	3	Ach Filter
IERANGELOWERLIMIT	IQUANT	1	I/E Range Lower Limit
IERANGEMODE	TOGGLE	F	I/E AutoRange
IERANGE	IQUANT	3	I/E Range
POSFEEDENABLE	TOGGLE	F	Positive Feedback IR Comp
POSFEEDRESISTANCE	QUANT	0	Positive Feedback Resistance (ohm)
ACHSELECT	IQUANT	0	Ach Select
CABLEID	IQUANT	14	Cable ID
DCCALDATE	LABEL	8/19/2019	DC Calibration Date
ACCALDATE	LABEL	8/19/2019	AC Calibration Date
THERMOSELECT	IQUANT	1	Thermo Select
FRAMEWORKVERSION	QUANT	6.33	Framework Version
INSTRUMENTVERSION	LABEL	3.50	Instrument Version
ZCURVE	TABLE
	Pt	Time	Freq	Zreal	Zimag	Zsig	Zmod	Zphz	Idc	Vdc	IERange
	#	s	Hz	ohm	ohm	V	ohm	°	A	V	#
	0	1	1000078	2547.458	-1792.195	1	3114.724	-35.12727	5.992043E-006	0.0070934	8
	1	3	794390.6	2907.8	-1693.095	1	3364.799	-30.21052	1.817743E-006	0.0066279	8
	2	4	630984.4	3210.709	-1561.976	1	3570.493	-25.94242	-3.435578E-006	0.0079791	8
	3	5	501234.4	3468.764	-1401.319	1	3741.125	-21.99783	1.080227E-006	0.0071701	8
	4	7	398109.4	3679.169	-1212.937	1	3873.951	-18.24619	3.081841E-006	0.0064929	8
	5	8	316265.6	3835.369	-1044.903	1	3975.158	-15.23973	-2.814982E-006	0.0077296	8
	6	9	251203.1	3948.211	-916.8304	1	4053.264	-13.07319	-2.765725E-007	0.0073203	8
	7	11	199546.9	4038.864	-780.7068	1	4113.627	-10.94027	-2.530389E-006	0.0077005	8
	8	12	158578.1	4114.203	-677.1082	1	4169.549	-9.345858	3.412937E-006	0.0065531	8
	9	14	125953.1	4175.7	-563.5665	1	4213.559	-7.686386	-1.780855E-007	0.0072339	7
	10	15	100078.1	4208.274	-499.7828	1	4237.848	-6.772835	-5.011544E-008	0.0072699	7
	11	16	79453.13	4244.225	-463.641	1	4269.474	-6.234296	-3.255836E-008	0.0071857	7
	12	18	63140.62	4277.211	-438.5305	1	4299.633	-5.853921	3.38929E-008	0.007004	7
	13	19	50203.12	4314.497	-423.9409	1	4335.275	-5.611848	8.656101E-008	0.0069789	7
	14	20	39890.62	4346.07	-422.6419	1	4366.572	-5.554373	-1.079757E-008	0.0070728	7
	15	22	31640.63	4381.612	-431.9826	1	4402.855	-5.630588	8.92395E-008	0.0069851	7
	16	23	25171.88	4414.943	-452.0784	1	4438.029	-5.846557	-5.126561E-008	0.0071647	7
	17	24	20015.62	4456.931	-485.5252	1	4483.298	-6.217122	-5.571617E-008	0.0071752	7
	18	26	15890.62	4495.095	-531.7581	1	4526.439	-6.746588	9.100849E-008	0.0069731	7
	19	27	12609.37	4539.13	-588.9932	1	4577.185	-7.393335	6.665359E-008	0.0069632	7
	20	28	10078.13	4590.109	-661.1044	1	4637.474	-8.195836	1.823138E-008	0.007021	7
	21	30	8015.625	4641.212	-751.7386	1	4701.698	-9.200316	6.804755E-008	0.0069656	7
	22	31	6328.125	4700.258	-867.4824	1	4779.639	-10.45687	1.015373E-008	0.0071643	7
	23	32	5015.625	4768.857	-1006.703	1	4873.956	-11.92009	5.620841E-008	0.0070117	7
	24	34	3984.375	4838.774	-1172.483	1	4978.8	-13.6208	4.366994E-009	0.0070849	7
	25	35	3170.956	4927.465	-1376.927	1	5116.233	-15.61245	1.771317E-009	0.0070837	7
	26	36	2527.573	5022.788	-1617.024	1	5276.663	-17.84531	-3.513766E-009	0.0070585	7
	27	38	1976.103	5144.44	-1932.447	1	5495.417	-20.58809	3.320529E-008	0.0070515	7
	28	39	1577.524	5266.789	-2282.58	1	5740.143	-23.43148	3.458205E-008	0.0070572	7
	29	40	1265.625	5403.404	-2695.542	1	6038.437	-26.51278	3.78528E-008	0.0069817	7
	30	42	998.264	5572.178	-3234.866	1	6443.099	-30.13684	-6.753989E-009	0.0071477	7
	31	43	796.875	5757.918	-3854.378	1	6928.914	-33.79854	7.813719E-008	0.0070367	7
	32	44	627.7902	5967.642	-4658.412	1	7570.571	-37.97602	3.313708E-009	0.0070808	7
	33	46	505.5147	6192.007	-5546.075	1	8312.635	-41.85026	-4.622377E-009	0.0070474	7
	34	47	397.9953	6489.588	-6735.371	1	9353.073	-46.0647	3.96411E-009	0.0071092	7
	35	48	315.5048	6811.563	-8164.744	1	10632.99	-50.16293	6.823433E-010	0.007051	6
	36	50	252.4038	7166.023	-9849.77	1	12180.72	-53.96292	1.071124E-009	0.0070493	6
	37	51	198.6229	7615.384	-12082.08	1	14281.83	-57.7766	1.134451E-009	0.0070502	6
	38	52	158.3615	8118.211	-14692.38	1	16786.05	-61.07735	7.685182E-010	0.0070438	6
	39	53	125.558	8748.117	-17984.4	1	19999.21	-64.06042	8.476174E-010	0.0070572	6
	40	55	100.4464	9498.847	-21878.91	1	23851.94	-66.53166	9.587031E-010	0.0070472	6
	41	56	79.00281	10478.02	-27040.48	1	28999.6	-68.81895	1.10777E-009	0.0070438	6
	42	58	63.3446	11732.95	-33066.3	1	35086.21	-70.46374	4.720132E-010	0.0070451	6
	43	59	49.86702	13202.8	-40692.09	1	42780.37	-72.02402	5.028793E-010	0.0070474	6
	44	60	39.72458	15362.78	-49851.64	1	52165.14	-72.87227	7.952969E-010	0.0070505	6
	45	62	31.6723	17941.58	-60951.7	1	63537.47	-73.59782	9.343507E-010	0.0070463	6
	46	63	24.93351	21787.07	-75196.31	1	78288.97	-73.8418	9.095165E-010	0.0070449	6
	47	64	19.86229	26535.52	-91708.82	1	95470.6	-73.86245	1.107269E-009	0.0070499	6
	48	66	15.83615	32333.88	-111351.4	1	115950.9	-73.80792	8.558732E-010	0.0070465	5
	49	67	12.40079	42237.29	-136663	1	143041.2	-72.82564	1.232849E-009	0.0070491	5
	50	68	9.93114	52529.57	-164369.8	1	172559.5	-72.27707	7.279335E-010	0.0070542	5
	51	70	7.944915	66470.82	-196972.2	1	207885.5	-71.35236	1.029579E-010	0.007055	5
	52	72	6.317385	85426.66	-235650.1	1	250656.5	-70.07367	3.562801E-010	0.0070596	5
	53	74	5.008013	109565.9	-280878.6	1	301492.1	-68.69009	5.070351E-010	0.007058	5
	54	76	3.945707	140886.8	-334594.5	1	363046.3	-67.16563	1.148741E-010	0.0070449	5
	55	79	3.158693	176982.1	-390941.5	1	429136.2	-65.64339	3.726039E-010	0.007062	5
	56	82	2.504006	223235	-457178.4	1	508769.1	-63.97427	-1.506642E-010	0.0070468	5
	57	85	1.998082	276936.7	-526060	1	594502.4	-62.23608	2.311983E-010	0.0070063	5
	58	88	1.584686	340751.8	-606453.2	1	695627.3	-60.66939	3.254317E-011	0.0070213	5
	59	91	1.266892	413131.9	-687801.1	1	802339.3	-59.00861	3.035254E-010	0.0070131	5
	60	96	0.999041	500200.5	-787285.1	1	932747.8	-57.57022	-7.893104E-011	0.0070586	5
