EXPLAIN
TAG	EISPOT
TITLE	LABEL	Potentiostatic EIS	Test &Identifier
DATE	LABEL	10/6/2019	Date
TIME	LABEL	9:19:25	Time
NOTES	NOTES	2	&Notes...
	
	
PSTAT	PSTAT	REF600-11020	Potentiostat
VDC	POTEN	0.00000E+000	T	DC &Voltage (V)
FREQINIT	QUANT	1.00000E+006	Initial Fre&q. (Hz)
FREQFINAL	QUANT	1.00000E+000	Final Fre&q. (Hz)
PTSPERDEC	QUANT	1.00000E+001	Points/&decade
VAC	QUANT	2.50000E+001	AC &Voltage (mV rms)
AREA	QUANT	1.00000E-002	&Area (cm^2)
CONDIT	TWOPARAM	T	5.00000E+000	0.00000E+000	Conditionin&g	Time(s)	E(V)
DELAY	TWOPARAM	T	5.00000E+000	0.00000E+000	Init. De&lay	Time(s)	Stab.(mV/s)
SPEED	SELECTOR	1	&Optimize for:
ZGUESS	QUANT	1.00000E+004	E&stimated Z (ohms)
OCVCURVE	TABLE	19
	Pt	T	Vf	Vm	Ach	Over
	#	s	V vs. Ref.	V	V	bits
	0	0.258333	4.27809E-003	4.27809E-003	5.56299E-004	...........
	1	0.516667	4.27628E-003	4.18367E-003	5.57599E-004	...........
	2	0.775	4.26545E-003	4.10716E-003	5.58866E-004	...........
	3	1.03333	4.23575E-003	4.03911E-003	5.61799E-004	...........
	4	1.29167	4.18487E-003	3.98496E-003	5.55699E-004	...........
	5	1.55	4.12127E-003	3.93976E-003	5.53099E-004	...........
	6	1.80833	4.05659E-003	3.90155E-003	5.52232E-004	...........
	7	2.06667	3.99851E-003	3.86972E-003	5.60466E-004	...........
	8	2.325	3.94954E-003	3.84282E-003	5.60099E-004	...........
	9	2.58333	3.90907E-003	3.81786E-003	5.55199E-004	...........
	10	2.84167	3.87532E-003	3.79407E-003	5.54066E-004	...........
	11	3.1	3.84632E-003	3.77069E-003	5.62332E-004	...........
	12	3.35833	3.82048E-003	3.75524E-003	5.58932E-004	...........
	13	3.61667	3.79704E-003	3.73906E-003	5.60932E-004	...........
	14	3.875	3.77604E-003	3.72318E-003	5.60332E-004	...........
	15	4.13333	3.75741E-003	3.70992E-003	5.60532E-004	...........
	16	4.39167	3.74084E-003	3.70318E-003	5.61066E-004	...........
	17	4.65	3.72627E-003	3.69155E-003	5.54666E-004	...........
	18	4.90833	3.71374E-003	3.68331E-003	5.49566E-004	...........
EOC	QUANT	0.0037137	Open Circuit (V)
PSTATMODEL	IQUANT	4	Pstat Model
PSTATSECTION	LABEL	REF600-11020	Pstat Section
PSTATSERIALNO	LABEL	11020	Pstat Serial Number
CTRLMODE	IQUANT	1	Control Mode
IESTAB	IQUANT	0	I/E Stability
CASPEED	IQUANT	1	Control Amp Speed
CONVENTION	IQUANT	1	Current Convention
ICHRANGE	IQUANT	2	Ich Range
ICHRANGEMODE	TOGGLE	F	Ich Auto Range
ICHOFFSETENABLE	TOGGLE	T	Ich Offset Enable
ICHOFFSET	QUANT	0	Ich Offset (V)
ICHFILTER	IQUANT	3	Ich Filter
VCHRANGE	IQUANT	2	Vch Range
VCHRANGEMODE	TOGGLE	F	Vch Auto Range
VCHOFFSETENABLE	TOGGLE	T	Vch Offset Enable
VCHOFFSET	QUANT	0	Vch Offset (V)
VCHFILTER	IQUANT	3	Vch Filter
ACHRANGE	IQUANT	2	Ach Range
ACHOFFSETENABLE	TOGGLE	F	Ach Offset Enable
ACHOFFSET	QUANT	0	Ach Offset (V)
ACHFILTER	IQUANT	3	Ach Filter
IERANGELOWERLIMIT	IQUANT	1	I/E Range Lower Limit
IERANGEMODE	TOGGLE	F	I/E AutoRange
IERANGE	IQUANT	5	I/E Range
POSFEEDENABLE	TOGGLE	F	Positive Feedback IR Comp
POSFEEDRESISTANCE	QUANT	0	Positive Feedback Resistance (ohm)
ACHSELECT	IQUANT	0	Ach Select
CABLEID	IQUANT	14	Cable ID
DCCALDATE	LABEL	8/19/2019	DC Calibration Date
ACCALDATE	LABEL	8/19/2019	AC Calibration Date
THERMOSELECT	IQUANT	1	Thermo Select
FRAMEWORKVERSION	QUANT	6.33	Framework Version
INSTRUMENTVERSION	LABEL	3.50	Instrument Version
ZCURVE	TABLE
	Pt	Time	Freq	Zreal	Zimag	Zsig	Zmod	Zphz	Idc	Vdc	IERange
	#	s	Hz	ohm	ohm	V	ohm	°	A	V	#
	0	2	1000078	2503.203	-1292.851	1	2817.355	-27.3154	2.446876E-007	0.0061222	8
	1	3	794390.6	2705.856	-1182.57	1	2952.987	-23.60731	1.654014E-006	0.0055488	8
	2	5	630984.4	2900.138	-1037.009	1	3079.966	-19.67564	2.419812E-006	0.0048947	8
	3	6	501234.4	3039.004	-902.0947	1	3170.067	-16.53294	-3.844708E-006	0.0061321	8
	4	7	398109.4	3140.072	-767.8091	1	3232.582	-13.74033	-4.47437E-006	0.0062386	8
	5	9	316265.6	3217.721	-657.2422	1	3284.159	-11.54427	-2.192847E-006	0.0058371	8
	6	10	251203.1	3283.043	-576.7731	1	3333.323	-9.96418	3.724868E-006	0.0046777	8
	7	11	199546.9	3317.642	-506.6521	1	3356.106	-8.682813	1.234548E-006	0.0051888	8
	8	13	158578.1	3371.008	-439.9277	1	3399.593	-7.435268	-4.516788E-007	0.005326	8
	9	14	125953.1	3412.035	-361.9607	1	3431.18	-6.05549	-1.853648E-008	0.0054713	7
	10	16	100078.1	3437.734	-330.4232	1	3453.577	-5.490207	5.223601E-008	0.0051168	7
	11	17	79453.13	3463.805	-319.7656	1	3478.533	-5.274384	-4.190178E-008	0.0052634	7
	12	18	63140.62	3491.528	-317.3054	1	3505.916	-5.1927	-1.32198E-008	0.0052933	7
	13	20	50203.12	3519.544	-321.8417	1	3534.229	-5.224832	8.662661E-008	0.0050912	7
	14	21	39890.62	3548.91	-332.1596	1	3564.42	-5.347011	1.341198E-008	0.0051794	7
	15	22	31640.63	3581.031	-350.7185	1	3598.165	-5.593587	-4.028911E-008	0.0052573	7
	16	24	25171.88	3614.949	-376.7302	1	3634.527	-5.949575	1.101251E-007	0.0051516	7
	17	25	20015.62	3653.904	-408.8527	1	3676.707	-6.384539	4.397705E-008	0.0052127	7
	18	26	15890.62	3692.197	-450.4266	1	3719.57	-6.955384	5.277359E-008	0.005098	7
	19	28	12609.37	3735.931	-501.0758	1	3769.384	-7.639116	1.319469E-007	0.0050576	7
	20	29	10078.13	3782.149	-559.0775	1	3823.248	-8.408572	-4.789326E-008	0.0053633	7
	21	30	8015.625	3829.803	-633.9858	1	3881.924	-9.399505	1.527628E-008	0.0051841	7
	22	32	6328.125	3888.257	-721.0004	1	3954.54	-10.50505	8.865816E-008	0.0050841	7
	23	33	5015.625	3948.137	-829.2261	1	4034.279	-11.86141	1.030374E-008	0.0052274	7
	24	35	3984.375	4008.822	-959.006	1	4121.935	-13.45368	1.327188E-007	0.0050569	7
	25	36	3170.956	4077.929	-1115.017	1	4227.62	-15.29244	1.074757E-008	0.005225	7
	26	37	2527.573	4150.696	-1305.061	1	4351.03	-17.45418	-8.459357E-008	0.0055104	7
	27	39	1976.103	4236.355	-1558.55	1	4513.955	-20.19851	-2.865313E-008	0.0052426	7
	28	40	1577.524	4325.086	-1843.482	1	4701.574	-23.08516	1.092414E-008	0.0052281	7
	29	41	1265.625	4420.892	-2183.156	1	4930.563	-26.2814	-2.896412E-008	0.0052451	7
	30	43	998.264	4534.177	-2635.411	1	5244.44	-30.16654	1.129068E-008	0.0052327	7
	31	44	796.875	4661.428	-3163.788	1	5633.69	-34.16538	-6.21999E-008	0.0053412	7
	32	45	627.7902	4811.077	-3855.089	1	6165.076	-38.705	8.918499E-008	0.0050819	7
	33	47	505.5147	4954.105	-4626.979	1	6778.797	-43.04452	-2.771978E-009	0.0051976	7
	34	48	397.9953	5196.218	-5688.234	1	7704.33	-47.58821	4.563498E-009	0.0052902	7
	35	50	315.5048	5462.11	-6958.59	1	8846.277	-51.87004	4.894204E-009	0.0052797	7
	36	51	252.4038	5786.462	-8456.323	1	10246.59	-55.61708	3.114355E-010	0.0052269	6
	37	52	198.6229	6228.38	-10434.93	1	12152.38	-59.16794	8.353491E-010	0.005229	6
	38	54	158.3615	6771.313	-12733.59	1	14422.03	-61.99739	1.097313E-010	0.0052283	6
	39	55	125.558	7502.729	-15607.35	1	17317.05	-64.32558	8.460646E-010	0.0052303	6
	40	56	100.4464	8427.788	-18965.13	1	20753.41	-66.04044	4.832794E-011	0.0052209	6
	41	58	79.00281	9704	-23344.52	1	25281.11	-67.42801	7.309175E-010	0.0052256	6
	42	59	63.3446	11180.11	-28264.61	1	30395.45	-68.41865	9.583233E-010	0.005224	6
	43	61	49.86702	13687.3	-34276.58	1	36908.35	-68.23222	1.12874E-009	0.005226	6
	44	62	39.72458	16533.54	-41452.54	1	44628.14	-68.25518	7.236067E-010	0.0052293	6
	45	63	31.6723	20273.56	-49786.99	1	53756.5	-67.84355	1.641624E-010	0.005227	6
	46	65	24.93351	25457.49	-59833.91	1	65024.46	-66.95174	-1.383776E-010	0.0052245	6
	47	66	19.86229	31683.59	-70740.3	1	77511.54	-65.87306	8.965391E-010	0.0052306	6
	48	67	15.83615	39205.6	-82824.78	1	91635.27	-64.66919	3.290858E-010	0.0052248	6
	49	69	12.40079	50053.96	-97713.6	1	109787.7	-62.87612	1.755948E-009	0.0052273	5
	50	70	9.93114	61346.76	-112990.9	1	128570.5	-61.50089	8.392902E-011	0.0052297	5
	51	72	7.944915	74398.11	-129158.7	1	149053.8	-60.05716	7.512626E-010	0.0052334	5
	52	74	6.317385	90005.05	-147114.6	1	172463.4	-58.5416	7.995661E-010	0.0052336	5
	53	76	5.008013	107533.7	-167226.4	1	198816.9	-57.25726	5.857819E-010	0.0052443	5
	54	78	3.945707	127355.2	-190076.1	1	228797.4	-56.17704	2.053278E-010	0.0052309	5
	55	81	3.158693	147100.8	-213998.3	1	259680.4	-55.49567	2.487975E-010	0.0052455	5
	56	84	2.504006	168778.4	-242923.8	1	295800.8	-55.20922	1.498049E-010	0.0052248	5
	57	87	1.998082	190848.5	-275785.8	1	335381.8	-55.31609	-1.00866E-010	0.0052567	5
	58	90	1.584686	215711.5	-317129	1	383539.1	-55.77642	2.623025E-010	0.0052726	5
	59	94	1.266892	241698	-363937.9	1	436885.3	-56.41111	-3.3292E-011	0.0052637	5
	60	98	0.999041	272120.4	-425278.1	1	504887.1	-57.38626	2.434399E-010	0.0052069	5
