EXPLAIN
TAG	EISPOT
TITLE	LABEL	Potentiostatic EIS	Test &Identifier
DATE	LABEL	11/12/2019	Date
TIME	LABEL	21:49:53	Time
NOTES	NOTES	3	&Notes...
	
	
	
PSTAT	PSTAT	REF600-11020	Potentiostat
VDC	POTEN	0.00000E+000	T	DC &Voltage (V)
FREQINIT	QUANT	1.00000E+006	Initial Fre&q. (Hz)
FREQFINAL	QUANT	1.00000E+000	Final Fre&q. (Hz)
PTSPERDEC	QUANT	1.00000E+001	Points/&decade
VAC	QUANT	2.50000E+001	AC &Voltage (mV rms)
AREA	QUANT	1.00000E-002	&Area (cm^2)
CONDIT	TWOPARAM	T	5.00000E+000	0.00000E+000	Conditionin&g	Time(s)	E(V)
DELAY	TWOPARAM	T	5.00000E+000	0.00000E+000	Init. De&lay	Time(s)	Stab.(mV/s)
SPEED	SELECTOR	1	&Optimize for:
ZGUESS	QUANT	1.00000E+005	E&stimated Z (ohms)
OCVCURVE	TABLE	19
	Pt	T	Vf	Vm	Ach	Over
	#	s	V vs. Ref.	V	V	bits
	0	0.258333	-3.74101E-003	-3.74101E-003	5.40433E-004	...........
	1	0.516667	-3.75657E-003	-4.55556E-003	5.40533E-004	...........
	2	0.775	-3.85164E-003	-5.30256E-003	5.41699E-004	...........
	3	1.03333	-4.11625E-003	-5.87510E-003	5.42466E-004	...........
	4	1.29167	-4.57542E-003	-6.47035E-003	5.43099E-004	...........
	5	1.55	-5.16061E-003	-7.00823E-003	5.44933E-004	...........
	6	1.80833	-5.77979E-003	-7.49116E-003	5.33166E-004	...........
	7	2.06667	-6.37917E-003	-8.16215E-003	5.36166E-004	...........
	8	2.325	-6.95207E-003	-8.68511E-003	5.43366E-004	...........
	9	2.58333	-7.51325E-003	-9.13986E-003	5.39299E-004	...........
	10	2.84167	-8.06242E-003	-9.47998E-003	5.39033E-004	...........
	11	3.1	-8.57690E-003	-9.84719E-003	5.39766E-004	...........
	12	3.35833	-9.03843E-003	-1.02766E-002	5.36066E-004	...........
	13	3.61667	-9.45367E-003	-1.06142E-002	5.33466E-004	...........
	14	3.875	-9.84299E-003	-1.09822E-002	5.43166E-004	...........
	15	4.13333	-1.02192E-002	-1.13007E-002	5.35799E-004	...........
	16	4.39167	-1.05849E-002	-1.16955E-002	5.32966E-004	...........
	17	4.65	-1.09436E-002	-1.20796E-002	5.33033E-004	...........
	18	4.90833	-1.13025E-002	-1.23889E-002	5.33400E-004	...........
EOC	QUANT	-0.0113025	Open Circuit (V)
PSTATMODEL	IQUANT	4	Pstat Model
PSTATSECTION	LABEL	REF600-11020	Pstat Section
PSTATSERIALNO	LABEL	11020	Pstat Serial Number
CTRLMODE	IQUANT	1	Control Mode
IESTAB	IQUANT	0	I/E Stability
CASPEED	IQUANT	1	Control Amp Speed
CONVENTION	IQUANT	1	Current Convention
ICHRANGE	IQUANT	2	Ich Range
ICHRANGEMODE	TOGGLE	F	Ich Auto Range
ICHOFFSETENABLE	TOGGLE	T	Ich Offset Enable
ICHOFFSET	QUANT	0	Ich Offset (V)
ICHFILTER	IQUANT	3	Ich Filter
VCHRANGE	IQUANT	2	Vch Range
VCHRANGEMODE	TOGGLE	F	Vch Auto Range
VCHOFFSETENABLE	TOGGLE	T	Vch Offset Enable
VCHOFFSET	QUANT	0	Vch Offset (V)
VCHFILTER	IQUANT	3	Vch Filter
ACHRANGE	IQUANT	2	Ach Range
ACHOFFSETENABLE	TOGGLE	F	Ach Offset Enable
ACHOFFSET	QUANT	0	Ach Offset (V)
ACHFILTER	IQUANT	3	Ach Filter
IERANGELOWERLIMIT	IQUANT	1	I/E Range Lower Limit
IERANGEMODE	TOGGLE	F	I/E AutoRange
IERANGE	IQUANT	5	I/E Range
POSFEEDENABLE	TOGGLE	F	Positive Feedback IR Comp
POSFEEDRESISTANCE	QUANT	0	Positive Feedback Resistance (ohm)
ACHSELECT	IQUANT	0	Ach Select
CABLEID	IQUANT	14	Cable ID
DCCALDATE	LABEL	8/19/2019	DC Calibration Date
ACCALDATE	LABEL	8/19/2019	AC Calibration Date
THERMOSELECT	IQUANT	1	Thermo Select
FRAMEWORKVERSION	QUANT	6.33	Framework Version
INSTRUMENTVERSION	LABEL	3.50	Instrument Version
ZCURVE	TABLE
	Pt	Time	Freq	Zreal	Zimag	Zsig	Zmod	Zphz	Idc	Vdc	IERange
	#	s	Hz	ohm	ohm	V	ohm	°	A	V	#
	0	2	1000078	2068.613	-1452.89	1	2527.854	-35.08228	-3.052851E-006	-0.0094181	8
	1	3	794390.6	2364.66	-1386.949	1	2741.394	-30.39299	5.679181E-006	-0.0094753	8
	2	4	630984.4	2619.495	-1288.397	1	2919.198	-26.19024	-6.057403E-006	-0.0091811	8
	3	6	501234.4	2835.558	-1157.322	1	3062.643	-22.20263	4.717337E-006	-0.0096992	8
	4	7	398109.4	3014.29	-1026.114	1	3184.157	-18.79942	1.276019E-006	-0.0101148	8
	5	9	316265.6	3137.457	-895.5264	1	3262.76	-15.93037	6.144461E-006	-0.0104135	8
	6	10	251203.1	3235.674	-784.1141	1	3329.327	-13.62212	3.268833E-006	-0.0097688	8
	7	11	199546.9	3326.512	-685.2981	1	3396.368	-11.6407	-2.024976E-006	-0.0095857	8
	8	13	158578.1	3384.928	-612.4574	1	3439.89	-10.25594	5.06829E-006	-0.0103515	8
	9	14	125953.1	3451.737	-501.8575	1	3488.03	-8.272426	-4.8795E-007	-0.0113864	7
	10	16	100078.1	3485.236	-457.8875	1	3515.186	-7.484608	5.355847E-007	-0.0096026	7
	11	17	79453.13	3521.998	-429.4181	1	3548.08	-6.951452	-7.73864E-007	-0.0083146	7
	12	18	63140.62	3558.218	-413.3447	1	3582.146	-6.626134	-5.336188E-007	-0.0083925	7
	13	20	50203.12	3596.992	-408.1477	1	3620.074	-6.473616	8.861012E-007	-0.0104126	7
	14	21	39890.62	3630.659	-410.1826	1	3653.757	-6.445798	7.314943E-007	-0.0099944	7
	15	23	31640.63	3663.955	-423.1323	1	3688.307	-6.587626	-7.723733E-007	-0.0083262	7
	16	24	25171.88	3702.469	-446.723	1	3729.321	-6.879791	7.203093E-008	-0.0089611	7
	17	25	20015.62	3741.475	-481.0193	1	3772.269	-7.325993	3.46634E-007	-0.0093385	7
	18	27	15890.62	3787.073	-525.0417	1	3823.295	-7.893202	8.460145E-007	-0.0112543	7
	19	28	12609.37	3829.089	-582.3901	1	3873.125	-8.648193	9.476055E-008	-0.010973	7
	20	29	10078.13	3870.486	-642.5129	1	3923.453	-9.425328	-1.06233E-006	-0.0085262	7
	21	31	8015.625	3927.452	-741.3562	1	3996.81	-10.68953	-2.719801E-007	-0.0105222	7
	22	32	6328.125	3984.452	-853.08	1	4074.751	-12.08471	-9.143347E-007	-0.00933	7
	23	34	5015.625	4047.925	-988.854	1	4166.957	-13.72774	3.485108E-007	-0.0093445	7
	24	35	3984.375	4112.619	-1152.416	1	4271.03	-15.65365	-2.442997E-007	-0.0086194	7
	25	36	3170.956	4188.632	-1356.516	1	4402.814	-17.94488	3.4732E-007	-0.0093446	7
	26	38	2527.573	4272.481	-1603.944	1	4563.631	-20.57678	8.461458E-007	-0.0112548	7
	27	39	1976.103	4369.525	-1928.439	1	4776.152	-23.81371	-9.478175E-007	-0.0083801	7
	28	41	1577.524	4492.929	-2305.873	1	5050.095	-27.16792	8.479304E-007	-0.011259	7
	29	42	1265.625	4595.646	-2736.323	1	5348.591	-30.77026	-7.726217E-007	-0.0083395	7
	30	43	998.264	4747.026	-3318.492	1	5791.947	-34.95615	8.853108E-007	-0.0104271	7
	31	45	796.875	4911.095	-3980.26	1	6321.497	-39.02348	-9.48466E-007	-0.0083773	7
	32	46	627.7902	5117.847	-4847.34	1	7049.047	-43.44508	-7.732364E-007	-0.0083391	7
	33	48	505.5147	5320.358	-5824.128	1	7888.389	-47.58821	6.692914E-007	-0.011334	7
	34	49	397.9953	5596.022	-7119.203	1	9055.303	-51.83102	5.542621E-009	-0.009775	7
	35	50	315.5048	5911.187	-8685.973	1	10506.58	-55.76299	1.095837E-009	-0.0098374	6
	36	52	252.4038	6268.053	-10540.81	1	12263.66	-59.26234	7.755731E-010	-0.009833	6
	37	53	198.6229	6736.849	-12998.41	1	14640.48	-62.60308	1.316118E-009	-0.0098301	6
	38	55	158.3615	7289.718	-15869.82	1	17464	-65.32857	1.305427E-009	-0.0098289	6
	39	56	125.558	8006.489	-19494.06	1	21074.21	-67.67135	1.101992E-009	-0.0098273	6
	40	57	100.4464	8892.303	-23771.12	1	25379.9	-69.49017	1.484441E-009	-0.0098293	6
	41	59	79.00281	10088.32	-29438.55	1	31119.17	-71.08389	3.412667E-010	-0.0098355	6
	42	60	63.3446	11758.27	-35892.5	1	37769.41	-71.86137	1.529124E-010	-0.0098315	6
	43	62	49.86702	13485.01	-44145.92	1	46159.59	-73.01395	8.369041E-010	-0.0098378	6
	44	63	39.72458	16304.91	-53820.21	1	56235.8	-73.14574	8.728461E-010	-0.0098364	6
	45	65	31.6723	19540.3	-65435.66	1	68290.91	-73.37341	6.751647E-010	-0.0098383	6
	46	66	24.93351	24384.96	-80281.1	1	83902.81	-73.10412	8.025675E-010	-0.0098383	6
	47	67	19.86229	30355.33	-97294	1	101919.4	-72.67229	5.903668E-010	-0.0098404	6
	48	69	15.83615	38103.52	-118020.1	1	124018.7	-72.10701	-3.828849E-010	-0.0098301	5
	49	70	12.40079	48972.73	-142048.2	1	150253.1	-70.97778	4.821697E-010	-0.0098327	5
	50	72	9.93114	61393.31	-170288.1	1	181017	-70.17444	6.557574E-010	-0.0098393	5
	51	73	7.944915	77361.94	-201716.9	1	216043	-69.01732	3.530084E-010	-0.0098356	5
	52	75	6.317385	98120	-238524.3	1	257917.4	-67.63956	7.945281E-010	-0.0098144	5
	53	77	5.008013	123892.8	-281343.2	1	307414.1	-66.23315	7.583955E-010	-0.0098246	5
	54	79	3.945707	156248.2	-331235.5	1	366238.2	-64.74612	6.579337E-010	-0.0098374	5
	55	82	3.158693	192824.5	-383599.4	1	429336.4	-63.31263	2.663369E-010	-0.0098326	5
	56	86	2.504006	237287.7	-444053.1	1	503476.5	-61.88138	7.587014E-010	-0.009831	5
	57	88	1.998082	288153.3	-508700.6	1	584644.1	-60.47063	5.411213E-010	-0.0097922	5
	58	91	1.584686	346903.2	-581865.8	1	677428.7	-59.19698	4.370077E-010	-0.0098578	5
	59	95	1.266892	411290.5	-659439.6	1	777187.5	-58.04833	4.306925E-010	-0.0097959	5
	60	99	0.999041	493140.7	-763957.8	1	909296.1	-57.15744	3.966875E-010	-0.0098662	5
