EXPLAIN
TAG	EISPOT
TITLE	LABEL	Potentiostatic EIS	Test &Identifier
DATE	LABEL	8/16/2017	Date
TIME	LABEL	16:35:02	Time
NOTES	NOTES	1	&Notes...
	
PSTAT	PSTAT	REF600-11020	Potentiostat
VDC	POTEN	0.00000E+000	T	DC &Voltage (V)
FREQINIT	QUANT	1.00000E+006	Initial Fre&q. (Hz)
FREQFINAL	QUANT	1.00000E+000	Final Fre&q. (Hz)
PTSPERDEC	QUANT	1.00000E+001	Points/&decade
VAC	QUANT	2.50000E+001	AC &Voltage (mV rms)
AREA	QUANT	1.00000E-002	&Area (cm^2)
CONDIT	TWOPARAM	T	5.00000E+000	0.00000E+000	Conditionin&g	Time(s)	E(V)
DELAY	TWOPARAM	T	5.00000E+000	0.00000E+000	Init. De&lay	Time(s)	Stab.(mV/s)
SPEED	SELECTOR	0	&Optimize for:
ZGUESS	QUANT	1.00000E+005	E&stimated Z (ohms)
OCVCURVE	TABLE	19
	Pt	T	Vf	Vm	Ach	Over
	#	s	V vs. Ref.	V	V	bits
	0	0.258333	6.34958E-003	6.34958E-003	5.42333E-004	...........
	1	0.516667	6.34926E-003	6.33305E-003	5.52932E-004	...........
	2	0.775	6.34748E-003	6.32545E-003	5.47533E-004	...........
	3	1.03333	6.34307E-003	6.32471E-003	5.49033E-004	...........
	4	1.29167	6.33697E-003	6.33723E-003	5.49399E-004	...........
	5	1.55	6.33243E-003	6.34711E-003	5.46966E-004	...........
	6	1.80833	6.33259E-003	6.36526E-003	5.48633E-004	...........
	7	2.06667	6.33882E-003	6.39557E-003	5.46299E-004	...........
	8	2.325	6.35180E-003	6.44551E-003	5.41699E-004	...........
	9	2.58333	6.37248E-003	6.45927E-003	5.45833E-004	...........
	10	2.84167	6.40020E-003	6.51244E-003	5.42366E-004	...........
	11	3.1	6.43289E-003	6.56119E-003	5.43399E-004	...........
	12	3.35833	6.47024E-003	6.62852E-003	5.43199E-004	...........
	13	3.61667	6.51391E-003	6.67919E-003	5.42899E-004	...........
	14	3.875	6.56377E-003	6.71441E-003	5.44199E-004	...........
	15	4.13333	6.61585E-003	6.75010E-003	5.43666E-004	...........
	16	4.39167	6.66469E-003	6.77513E-003	5.42366E-004	...........
	17	4.65	6.70702E-003	6.80499E-003	5.45333E-004	...........
	18	4.90833	6.74341E-003	6.86449E-003	5.49133E-004	...........
EOC	QUANT	0.0067434	Open Circuit (V)
PSTATMODEL	IQUANT	4	Pstat Model
PSTATSECTION	LABEL	REF600-11020	Pstat Section
PSTATSERIALNO	LABEL	11020	Pstat Serial Number
CTRLMODE	IQUANT	1	Control Mode
IESTAB	IQUANT	0	I/E Stability
CASPEED	IQUANT	1	Control Amp Speed
CONVENTION	IQUANT	1	Current Convention
ICHRANGE	IQUANT	2	Ich Range
ICHRANGEMODE	TOGGLE	F	Ich Auto Range
ICHOFFSETENABLE	TOGGLE	T	Ich Offset Enable
ICHOFFSET	QUANT	0	Ich Offset (V)
ICHFILTER	IQUANT	3	Ich Filter
VCHRANGE	IQUANT	2	Vch Range
VCHRANGEMODE	TOGGLE	F	Vch Auto Range
VCHOFFSETENABLE	TOGGLE	T	Vch Offset Enable
VCHOFFSET	QUANT	0	Vch Offset (V)
VCHFILTER	IQUANT	3	Vch Filter
ACHRANGE	IQUANT	2	Ach Range
ACHOFFSETENABLE	TOGGLE	F	Ach Offset Enable
ACHOFFSET	QUANT	0	Ach Offset (V)
ACHFILTER	IQUANT	3	Ach Filter
IERANGELOWERLIMIT	IQUANT	1	I/E Range Lower Limit
IERANGEMODE	TOGGLE	F	I/E AutoRange
IERANGE	IQUANT	5	I/E Range
POSFEEDENABLE	TOGGLE	F	Positive Feedback IR Comp
POSFEEDRESISTANCE	QUANT	0	Positive Feedback Resistance (ohm)
ACHSELECT	IQUANT	0	Ach Select
CABLEID	IQUANT	14	Cable ID
DCCALDATE	LABEL	8/19/2019	DC Calibration Date
ACCALDATE	LABEL	8/19/2019	AC Calibration Date
THERMOSELECT	IQUANT	1	Thermo Select
FRAMEWORKVERSION	QUANT	6.33	Framework Version
INSTRUMENTVERSION	LABEL	3.50	Instrument Version
ZCURVE	TABLE
	Pt	Time	Freq	Zreal	Zimag	Zsig	Zmod	Zphz	Idc	Vdc	IERange
	#	s	Hz	ohm	ohm	V	ohm	°	A	V	#
	0	1	1000078	2203.661	-1410.032	1	2616.164	-32.61351	-7.304557E-006	0.0103319	8
	1	2	794390.6	2474.053	-1346.905	1	2816.929	-28.56441	8.243685E-006	0.0086078	8
	2	2	630984.4	2713.756	-1223.755	1	2976.919	-24.27276	5.981034E-006	0.0070741	8
	3	2	501234.4	2922.559	-1108.849	1	3125.844	-20.77726	-1.642103E-006	0.0080698	8
	4	3	398109.4	3063.804	-970.611	1	3213.874	-17.57817	-3.367124E-007	0.0089006	8
	5	3	316265.6	3206.922	-856.3929	1	3319.301	-14.95166	-2.786164E-006	0.0082408	8
	6	3	251203.1	3304.003	-744.5681	1	3386.86	-12.69965	-2.662471E-006	0.0082413	8
	7	4	199546.9	3377.307	-645.6277	1	3438.464	-10.82246	2.102754E-006	0.0086456	8
	8	4	158578.1	3427.835	-556.6786	1	3472.743	-9.224276	-6.348389E-006	0.0092348	8
	9	4	125953.1	3497.671	-451.1035	1	3526.641	-7.349015	-6.37636E-007	0.0117413	7
	10	5	100078.1	3535.8	-392.8381	1	3557.556	-6.339734	9.082589E-007	0.0080578	7
	11	5	79453.13	3564.182	-365.9277	1	3582.917	-5.861909	4.257947E-007	0.0088648	7
	12	5	63140.62	3589.797	-346.485	1	3606.48	-5.513076	-9.770371E-007	0.0101308	7
	13	6	50203.12	3622.888	-339.4571	1	3638.757	-5.352866	1.17888E-006	0.0067084	7
	14	6	39890.62	3646.391	-338.7328	1	3662.09	-5.307281	6.690419E-007	0.008508	7
	15	6	31640.63	3674.329	-347.4529	1	3690.72	-5.401957	5.21925E-007	0.0064883	7
	16	7	25171.88	3700.58	-368.1732	1	3718.85	-5.681698	6.665057E-007	0.0085064	7
	17	7	20015.62	3726.227	-406.7432	1	3748.36	-6.229563	4.278997E-007	0.0088598	7
	18	7	15890.62	3757.914	-437.1634	1	3783.257	-6.635472	1.062964E-006	0.0064643	7
	19	8	12609.37	3781.27	-489.5271	1	3812.825	-7.376544	-9.742929E-007	0.0101194	7
	20	8	10078.13	3818.703	-557.0884	1	3859.124	-8.299998	1.195529E-006	0.0070615	7
	21	8	8015.625	3848.044	-650.4278	1	3902.627	-9.59392	9.066134E-007	0.0080451	7
	22	8	6328.125	3884.545	-754.415	1	3957.124	-10.99056	-1.194817E-006	0.0100538	7
	23	9	5015.625	3931.833	-896.0833	1	4032.651	-12.83869	1.062603E-006	0.0064598	7
	24	9	3984.375	3982.024	-1068.181	1	4122.806	-15.01611	1.179847E-006	0.0067024	7
	25	9	3170.956	4030.164	-1277.815	1	4227.887	-17.59188	1.106012E-006	0.0075035	7
	26	10	2527.573	4086.948	-1535.478	1	4365.872	-20.59134	-1.141461E-006	0.0088545	7
	27	10	1976.103	4168.712	-1885.043	1	4575.101	-24.33192	1.179022E-006	0.006699	7
	28	10	1577.524	4258.818	-2296.782	1	4838.671	-28.338	6.68098E-007	0.0085081	7
	29	11	1265.625	4360.701	-2746.844	1	5153.724	-32.20718	1.105092E-006	0.0075065	7
	30	11	998.264	4494.394	-3361.625	1	5612.495	-36.79501	1.104756E-006	0.0075033	7
	31	11	796.875	4644.423	-4078.052	1	6180.71	-41.28486	1.064804E-006	0.0064553	7
	32	12	627.7902	4841.61	-5011.127	1	6967.968	-45.98568	1.180242E-006	0.006703	7
	33	12	505.5147	5053.773	-6038.673	1	7874.402	-50.07399	5.253458E-007	0.0064757	7
	34	13	397.9953	5350.71	-7424.194	1	9151.435	-54.21923	5.008693E-009	0.0083056	7
	35	13	315.5048	5704.494	-9092.816	1	10734.08	-57.89737	-7.547147E-010	0.0082521	6
	36	13	252.4038	6121.272	-11061.66	1	12642.4	-61.04084	-1.112534E-010	0.0082412	6
	37	14	198.6229	6694.627	-13662.85	1	15214.84	-63.89571	2.9665E-010	0.0082456	6
	38	14	158.3615	7402.916	-16689.03	1	18257.24	-66.0789	-8.207435E-010	0.0082507	6
	39	14	125.558	8350.897	-20479.67	1	22116.84	-67.81608	-4.431771E-010	0.0082582	6
	40	14	100.4464	9575.08	-24885.64	1	26664.16	-68.9551	1.60587E-009	0.0082401	6
	41	15	79.00281	11402.25	-30638.68	1	32691.59	-69.58714	-8.09218E-011	0.0082475	6
	42	15	63.3446	13278.88	-37476.86	1	39759.82	-70.48963	-7.190742E-010	0.0082465	6
	43	16	49.86702	16417.03	-45556.87	1	48424.66	-70.18269	-3.554362E-010	0.0082428	6
	44	16	39.72458	20851.85	-54715.85	1	58554.45	-69.13849	2.989444E-010	0.0082474	6
	45	16	31.6723	26354.07	-65219.32	1	70342.7	-67.99716	-2.441491E-010	0.0082437	6
	46	17	24.93351	33445.39	-78240.18	1	85088.89	-66.85471	2.4712E-010	0.0082505	6
	47	17	19.86229	42114.75	-92233.14	1	101393.3	-65.458	2.842839E-009	0.0082476	6
	48	17	15.83615	52703.68	-105970	1	118352.5	-63.55676	8.438016E-010	0.0082434	5
	49	17	12.40079	66763.42	-124488.7	1	141261.4	-61.79529	-1.832472E-009	0.0082528	5
	50	18	9.93114	82847.87	-143318.9	1	165541.8	-59.96923	-3.128471E-010	0.0082529	5
	51	18	7.944915	99832.7	-162275.3	1	190525.2	-58.39992	8.61954E-010	0.0082488	5
	52	19	6.317385	120761	-182461.7	1	218804.7	-56.50169	7.617744E-010	0.0082415	5
	53	20	5.008013	142776.3	-205510.8	1	250239.4	-55.21079	4.009947E-010	0.0082384	5
	54	21	3.945707	167451.2	-232584.4	1	286592.8	-54.24767	2.571714E-010	0.0082556	5
	55	22	3.158693	192333.1	-260118.3	1	323502	-53.52055	-1.727573E-010	0.0082423	5
	56	24	2.504006	219511.2	-293311.8	1	366356.3	-53.18924	-1.335051E-010	0.0082374	5
	57	25	1.998082	247637.4	-331261.3	1	413592	-53.21971	9.089736E-011	0.0082829	5
	58	27	1.584686	276997.1	-377450.7	1	468184.2	-53.72644	-5.046515E-011	0.0082497	5
	59	29	1.266892	309319.4	-431001.4	1	530509.9	-54.3339	-1.301802E-010	0.0082109	5
	60	31	0.999041	347107.3	-501443.6	1	609859.9	-55.3084	-1.64008E-010	0.0081986	5
