EXPLAIN
TAG	EISPOT
TITLE	LABEL	Potentiostatic EIS	Test &Identifier
DATE	LABEL	11/5/2019	Date
TIME	LABEL	10:39:02	Time
NOTES	NOTES	2	&Notes...
	
	
PSTAT	PSTAT	REF600-11020	Potentiostat
VDC	POTEN	0.00000E+000	T	DC &Voltage (V)
FREQINIT	QUANT	1.00000E+006	Initial Fre&q. (Hz)
FREQFINAL	QUANT	1.00000E+000	Final Fre&q. (Hz)
PTSPERDEC	QUANT	1.00000E+001	Points/&decade
VAC	QUANT	2.50000E+001	AC &Voltage (mV rms)
AREA	QUANT	1.00000E-002	&Area (cm^2)
CONDIT	TWOPARAM	T	5.00000E+000	0.00000E+000	Conditionin&g	Time(s)	E(V)
DELAY	TWOPARAM	T	5.00000E+000	0.00000E+000	Init. De&lay	Time(s)	Stab.(mV/s)
SPEED	SELECTOR	1	&Optimize for:
ZGUESS	QUANT	1.00000E+005	E&stimated Z (ohms)
OCVCURVE	TABLE	19
	Pt	T	Vf	Vm	Ach	Over
	#	s	V vs. Ref.	V	V	bits
	0	0.258333	3.87934E-003	3.87934E-003	5.44799E-004	...........
	1	0.516667	3.87587E-003	3.69781E-003	5.42966E-004	...........
	2	0.775	3.85467E-003	3.53082E-003	5.42533E-004	...........
	3	1.03333	3.79436E-003	3.33551E-003	5.45966E-004	...........
	4	1.29167	3.68533E-003	3.20992E-003	5.54166E-004	...........
	5	1.55	3.54044E-003	3.08410E-003	5.56933E-004	...........
	6	1.80833	3.38495E-003	3.00104E-003	5.51832E-004	...........
	7	2.06667	3.24027E-003	2.90407E-003	5.53099E-004	...........
	8	2.325	3.11677E-003	2.88664E-003	5.56099E-004	...........
	9	2.58333	3.01987E-003	2.96083E-003	5.54366E-004	...........
	10	2.84167	2.95899E-003	3.04057E-003	5.49666E-004	...........
	11	3.1	2.93998E-003	2.91295E-003	5.57432E-004	...........
	12	3.35833	2.94292E-003	2.68109E-003	5.52266E-004	...........
	13	3.61667	2.92470E-003	2.64738E-003	5.53433E-004	...........
	14	3.875	2.86016E-003	2.56953E-003	5.53233E-004	...........
	15	4.13333	2.76501E-003	2.51400E-003	5.52832E-004	...........
	16	4.39167	2.66968E-003	2.48368E-003	5.60832E-004	...........
	17	4.65	2.59030E-003	2.40207E-003	5.53666E-004	...........
	18	4.90833	2.52670E-003	2.38454E-003	5.51766E-004	...........
EOC	QUANT	0.0025267	Open Circuit (V)
PSTATMODEL	IQUANT	4	Pstat Model
PSTATSECTION	LABEL	REF600-11020	Pstat Section
PSTATSERIALNO	LABEL	11020	Pstat Serial Number
CTRLMODE	IQUANT	1	Control Mode
IESTAB	IQUANT	0	I/E Stability
CASPEED	IQUANT	1	Control Amp Speed
CONVENTION	IQUANT	1	Current Convention
ICHRANGE	IQUANT	2	Ich Range
ICHRANGEMODE	TOGGLE	F	Ich Auto Range
ICHOFFSETENABLE	TOGGLE	T	Ich Offset Enable
ICHOFFSET	QUANT	0	Ich Offset (V)
ICHFILTER	IQUANT	3	Ich Filter
VCHRANGE	IQUANT	2	Vch Range
VCHRANGEMODE	TOGGLE	F	Vch Auto Range
VCHOFFSETENABLE	TOGGLE	T	Vch Offset Enable
VCHOFFSET	QUANT	0	Vch Offset (V)
VCHFILTER	IQUANT	3	Vch Filter
ACHRANGE	IQUANT	2	Ach Range
ACHOFFSETENABLE	TOGGLE	F	Ach Offset Enable
ACHOFFSET	QUANT	0	Ach Offset (V)
ACHFILTER	IQUANT	3	Ach Filter
IERANGELOWERLIMIT	IQUANT	1	I/E Range Lower Limit
IERANGEMODE	TOGGLE	F	I/E AutoRange
IERANGE	IQUANT	4	I/E Range
POSFEEDENABLE	TOGGLE	F	Positive Feedback IR Comp
POSFEEDRESISTANCE	QUANT	0	Positive Feedback Resistance (ohm)
ACHSELECT	IQUANT	0	Ach Select
CABLEID	IQUANT	14	Cable ID
DCCALDATE	LABEL	8/19/2019	DC Calibration Date
ACCALDATE	LABEL	8/19/2019	AC Calibration Date
THERMOSELECT	IQUANT	1	Thermo Select
FRAMEWORKVERSION	QUANT	6.33	Framework Version
INSTRUMENTVERSION	LABEL	3.50	Instrument Version
ZCURVE	TABLE
	Pt	Time	Freq	Zreal	Zimag	Zsig	Zmod	Zphz	Idc	Vdc	IERange
	#	s	Hz	ohm	ohm	V	ohm	°	A	V	#
	0	2	1000078	2125.796	-1871.715	1	2832.371	-41.36319	1.182129E-005	0.0035358	8
	1	4	794390.6	2482.478	-1897.457	1	3124.586	-37.39212	5.718022E-006	0.0033527	8
	2	5	630984.4	2856.873	-1886.958	1	3423.789	-33.44467	-1.644397E-006	0.0038954	8
	3	7	501234.4	3234.339	-1836.811	1	3719.52	-29.59264	7.434716E-006	0.002825	8
	4	8	398109.4	3560.764	-1738.838	1	3962.65	-26.02778	3.752868E-006	0.0040579	8
	5	9	316265.6	3848.194	-1606.311	1	4169.992	-22.65661	5.581323E-007	0.004479	8
	6	11	251203.1	4120.403	-1451.846	1	4368.704	-19.41018	-3.062502E-007	0.0037389	8
	7	12	199546.9	4325.524	-1293.632	1	4514.825	-16.65032	-2.01264E-006	0.0041415	8
	8	14	158578.1	4459.824	-1169.159	1	4610.527	-14.68973	8.013747E-007	0.0044367	8
	9	15	125953.1	4656.122	-912.4097	1	4744.677	-11.08714	-4.066293E-007	0.0014716	7
	10	16	100078.1	4731.066	-802.7211	1	4798.682	-9.62968	1.140936E-006	0.0020402	7
	11	18	79453.13	4825.71	-716.7168	1	4878.643	-8.447844	6.958369E-008	0.0051183	7
	12	19	63140.62	4895.533	-641.6245	1	4937.401	-7.466811	7.00154E-007	0.0042443	7
	13	20	50203.12	4945.493	-580.1146	1	4979.401	-6.690317	4.402451E-007	0.004625	7
	14	22	39890.62	4984.38	-536.926	1	5013.216	-6.148291	-7.253231E-007	0.0058382	7
	15	23	31640.63	5025.271	-507.4428	1	5050.826	-5.766079	-1.041822E-006	0.005931	7
	16	25	25171.88	5061.233	-491.6646	1	5085.058	-5.548487	-8.341426E-007	0.0037893	7
	17	26	20015.62	5104.899	-501.0254	1	5129.427	-5.605398	9.118094E-007	0.0019282	7
	18	27	15890.62	5132.842	-509.6362	1	5158.081	-5.670272	-1.400876E-006	0.0052186	7
	19	29	12609.37	5178.611	-545.8855	1	5207.303	-6.017416	4.391653E-007	0.0046173	7
	20	30	10078.13	5213.539	-590.6308	1	5246.888	-6.463362	-1.420179E-006	0.0056584	7
	21	31	8015.625	5261.701	-652.7277	1	5302.032	-7.071564	7.045171E-007	0.0042419	7
	22	33	6328.125	5289.577	-743.0732	1	5341.515	-7.996512	-1.041813E-006	0.005928	7
	23	34	5015.625	5339.263	-855.0098	1	5407.289	-9.097891	-3.43035E-007	0.0055611	7
	24	36	3984.375	5382.502	-992.637	1	5473.268	-10.44904	-8.319845E-007	0.0037851	7
	25	37	3170.956	5439.067	-1176.345	1	5564.821	-12.2038	-3.457135E-007	0.0029901	7
	26	38	2527.573	5499.473	-1390.758	1	5672.602	-14.19194	-1.039972E-006	0.0059284	7
	27	40	1976.103	5571.081	-1683.945	1	5820.019	-16.81825	-3.459463E-007	0.0029897	7
	28	41	1577.524	5661.71	-2018.221	1	6010.672	-19.61954	-1.418493E-006	0.0056528	7
	29	42	1265.625	5740.884	-2412.938	1	6227.36	-22.7974	-1.270857E-006	0.0058488	7
	30	44	998.264	5857.021	-2952.003	1	6558.889	-26.74861	4.396772E-007	0.0046206	7
	31	45	796.875	5975.339	-3559.663	1	6955.277	-30.78334	-1.417935E-006	0.0056585	7
	32	47	627.7902	6134.431	-4386.085	1	7541.153	-35.56456	9.134918E-007	0.0019251	7
	33	48	505.5147	6302.5	-5289.51	1	8228.026	-40.00579	4.45532E-007	0.0046158	7
	34	50	397.9953	6521.162	-6518.68	1	9220.561	-44.9891	6.287155E-009	0.004011	7
	35	51	315.5048	6791.528	-8002.437	1	10495.9	-49.67932	-1.346645E-012	0.0039512	6
	36	53	252.4038	7107.94	-9758.45	1	12072.7	-53.93084	1.857357E-009	0.0039403	6
	37	54	198.6229	7540.67	-12086.18	1	14245.61	-58.03961	7.291271E-010	0.0039533	6
	38	55	158.3615	8069.761	-14803.65	1	16860.28	-61.40433	1.094464E-009	0.0039409	6
	39	57	125.558	8760.173	-18214.09	1	20211.23	-64.31451	1.021775E-009	0.0039454	6
	40	58	100.4464	9625.79	-22233.16	1	24227.45	-66.58994	2.340356E-009	0.0039378	6
	41	59	79.00281	10777.23	-27483.73	1	29521.25	-68.5883	1.431774E-009	0.003942	6
	42	61	63.3446	12097.97	-33108.27	1	35249.38	-69.92737	6.7454E-010	0.0039385	6
	43	62	49.86702	14691.19	-41240.95	1	43779.53	-70.39267	-3.140253E-010	0.0039493	6
	44	64	39.72458	17088.37	-50133.59	1	52965.93	-71.17799	8.771417E-010	0.0039494	6
	45	65	31.6723	20531.51	-60799.58	1	64172.68	-71.3406	1.460796E-010	0.003949	6
	46	67	24.93351	25211.13	-74448.72	1	78601.61	-71.29197	4.368733E-011	0.0039427	6
	47	68	19.86229	31023.34	-89899.78	1	95102.1	-70.96106	8.596588E-010	0.0039566	6
	48	69	15.83615	38817.07	-108916.7	1	115627	-70.38432	-1.1935E-009	0.0039598	5
	49	71	12.40079	50379.11	-131059.2	1	140408.6	-68.97326	1.367126E-009	0.0039441	5
	50	72	9.93114	62642.44	-154994.6	1	167174.7	-67.99346	1.894895E-010	0.0039418	5
	51	74	7.944915	79015.33	-182284.8	1	198673.5	-66.56463	9.61938E-010	0.0039565	5
	52	76	6.317385	100246.5	-214619.5	1	236877.3	-64.96321	3.818499E-010	0.0039503	5
	53	78	5.008013	126118.4	-250201	1	280189.9	-63.24878	-2.199969E-010	0.0039414	5
	54	80	3.945707	157997.2	-289646.3	1	329936.5	-61.38828	5.874126E-010	0.0039479	5
	55	83	3.158693	194036.2	-330061.6	1	382871.7	-59.54963	-7.342654E-011	0.0039469	5
	56	86	2.504006	235797.1	-374859.2	1	442854	-57.82894	3.329641E-010	0.0039518	5
	57	89	1.998082	280024.4	-421640.5	1	506156.4	-56.41064	4.679315E-010	0.0039331	5
	58	92	1.584686	331663.3	-475145.1	1	579451	-55.08398	2.397487E-011	0.0038965	5
	59	96	1.266892	381979.1	-531095	1	654194.1	-54.2752	3.16065E-010	0.0039242	5
	60	100	0.999041	440646.4	-601729.4	1	745820	-53.78468	-1.481819E-010	0.0039584	5
